I,II,III,aVR,aVL,aVF,V1,V2,V3,V4,V5,V6
87,78,-9,-82,48,34,19,19,-39,-48,-78,-68
87,78,-9,-82,48,34,19,19,-39,-48,-78,-68
87,78,-9,-82,48,34,19,19,-39,-48,-78,-68
87,78,-9,-82,48,34,19,19,-39,-48,-78,-68
87,63,-24,-75,56,19,19,9,-43,-63,-87,-73
87,58,-29,-73,58,14,19,9,-48,-68,-87,-78
87,53,-34,-70,61,9,19,9,-53,-73,-87,-82
87,48,-39,-68,63,4,19,9,-58,-78,-87,-87
87,58,-29,-73,58,14,29,9,-53,-63,-78,-78
87,68,-19,-78,53,24,29,9,-48,-58,-78,-78
87,78,-9,-82,48,34,29,9,-43,-53,-78,-78
87,87,0,-87,43,43,29,9,-39,-48,-78,-78
78,92,14,-85,31,53,34,19,-34,-43,-68,-73
78,97,19,-87,29,58,39,19,-29,-39,-58,-68
78,102,24,-90,26,63,43,19,-24,-34,-48,-63
78,107,29,-92,24,68,48,19,-19,-29,-39,-58
63,92,29,-78,17,61,34,4,-34,-34,-48,-73
58,78,19,-68,19,48,29,0,-39,-39,-58,-78
53,63,9,-58,21,36,24,-4,-43,-43,-68,-82
48,48,0,-48,24,24,19,-9,-48,-48,-78,-87
58,63,4,-61,26,34,24,0,-39,-48,-78,-82
68,78,9,-73,29,43,29,0,-39,-48,-78,-78
78,92,14,-85,31,53,34,0,-39,-48,-78,-73
87,107,19,-97,34,63,39,0,-39,-48,-78,-68
82,107,24,-95,29,65,39,0,-48,-48,-78,-73
78,107,29,-92,24,68,39,0,-48,-48,-78,-78
73,107,34,-90,19,70,39,0,-48,-48,-78,-82
68,107,39,-87,14,73,39,0,-48,-48,-78,-87
68,97,29,-82,19,63,39,0,-58,-58,-92,-97
68,87,19,-78,24,53,39,0,-58,-58,-97,-97
68,78,9,-73,29,43,39,0,-58,-58,-102,-97
68,68,0,-68,34,34,39,0,-58,-58,-107,-97
58,58,0,-58,29,29,39,0,-48,-68,-97,-87
58,58,0,-58,29,29,39,0,-48,-68,-97,-87
58,58,0,-58,29,29,39,0,-48,-68,-97,-87
58,58,0,-58,29,29,39,0,-48,-68,-97,-87
63,48,-14,-56,39,17,48,4,-39,-58,-107,-87
68,48,-19,-58,43,14,48,9,-39,-58,-107,-87
73,48,-24,-61,48,12,48,14,-39,-58,-107,-87
78,48,-29,-63,53,9,48,19,-39,-58,-107,-87
78,58,-19,-68,48,19,53,29,-39,-68,-107,-87
78,58,-19,-68,48,19,58,29,-39,-68,-107,-87
78,58,-19,-68,48,19,63,29,-39,-68,-107,-87
78,58,-19,-68,48,19,68,29,-39,-68,-107,-87
68,68,0,-68,34,34,73,39,-29,-53,-102,-78
68,68,0,-68,34,34,78,39,-29,-48,-97,-78
68,68,0,-68,34,34,82,39,-29,-43,-92,-78
68,68,0,-68,34,34,87,39,-29,-39,-87,-78
58,58,0,-58,29,29,78,29,-34,-53,-102,-82
48,48,0,-48,24,24,78,29,-39,-58,-107,-87
39,39,0,-39,19,19,78,29,-43,-63,-112,-92
29,29,0,-29,14,14,78,29,-48,-68,-117,-97
53,39,-14,-46,34,12,92,34,-43,-63,-112,-92
68,48,-19,-58,43,14,97,39,-39,-58,-107,-87
82,58,-24,-70,53,17,102,43,-34,-53,-102,-82
97,68,-29,-82,63,19,107,48,-29,-48,-97,-78
97,73,-24,-85,61,24,107,58,-19,-58,-87,-68
97,78,-19,-87,58,29,107,58,-19,-58,-87,-68
97,82,-14,-90,56,34,107,58,-19,-58,-87,-68
97,87,-9,-92,53,39,107,58,-19,-58,-87,-68
78,63,-14,-70,46,24,97,48,-29,-73,-97,-78
68,48,-19,-58,43,14,87,39,-39,-78,-107,-87
58,34,-24,-46,41,4,78,29,-48,-82,-117,-97
48,19,-29,-34,39,-4,68,19,-58,-87,-126,-107
48,24,-24,-36,36,0,63,19,-68,-87,-126,-107
48,29,-19,-39,34,4,58,19,-68,-87,-126,-107
48,34,-14,-41,31,9,53,19,-68,-87,-126,-107
48,39,-9,-43,29,14,48,19,-68,-87,-126,-107
43,29,-14,-36,29,7,48,9,-58,-78,-122,-102
39,29,-9,-34,24,9,48,9,-58,-78,-117,-97
34,29,-4,-31,19,12,48,9,-58,-78,-112,-92
29,29,0,-29,14,14,48,9,-58,-78,-107,-87
19,29,9,-24,4,19,58,0,-68,-78,-117,-97
19,29,9,-24,4,19,58,0,-68,-78,-117,-97
19,29,9,-24,4,19,58,0,-68,-78,-117,-97
19,29,9,-24,4,19,58,0,-68,-78,-117,-97
9,29,19,-19,-4,24,48,-9,-68,-87,-126,-97
9,29,19,-19,-4,24,48,-9,-68,-87,-126,-97
9,29,19,-19,-4,24,48,-9,-68,-87,-126,-97
9,29,19,-19,-4,24,48,-9,-68,-87,-126,-97
14,39,24,-26,-4,31,43,-14,-73,-92,-136,-112
19,39,19,-29,0,29,39,-19,-78,-97,-136,-117
24,39,14,-31,4,26,34,-24,-82,-102,-136,-122
29,39,9,-34,9,24,29,-29,-87,-107,-136,-126
24,39,14,-31,4,26,34,-24,-82,-102,-126,-122
19,39,19,-29,0,29,39,-19,-78,-97,-126,-117
14,39,24,-26,-4,31,43,-14,-73,-92,-126,-112
9,39,29,-24,-9,34,48,-9,-68,-87,-126,-107
0,29,29,-14,-14,29,48,-9,-78,-97,-136,-107
0,29,29,-14,-14,29,48,-9,-78,-97,-136,-107
0,29,29,-14,-14,29,48,-9,-78,-97,-136,-107
0,29,29,-14,-14,29,48,-9,-78,-97,-136,-107
-14,4,19,4,-17,12,39,-24,-82,-102,-141,-122
-19,-9,9,14,-14,0,29,-29,-87,-107,-146,-126
-24,-24,0,24,-12,-12,19,-34,-92,-112,-151,-131
-29,-39,-9,34,-9,-24,9,-39,-97,-117,-156,-136
-9,-19,-9,14,0,-14,24,-24,-82,-112,-151,-122
9,0,-9,-4,9,-4,29,-19,-78,-107,-146,-117
29,19,-9,-24,19,4,34,-14,-73,-102,-141,-112
48,39,-9,-43,29,14,39,-9,-68,-97,-136,-107
39,39,0,-39,19,19,43,0,-78,-97,-136,-117
29,39,9,-34,9,24,48,0,-78,-97,-136,-117
19,39,19,-29,0,29,53,0,-78,-97,-136,-117
9,39,29,-24,-9,34,58,0,-78,-97,-136,-117
14,24,9,-19,2,17,48,0,-68,-87,-136,-107
19,19,0,-19,9,9,48,0,-68,-87,-136,-107
24,14,-9,-19,17,2,48,0,-68,-87,-136,-107
29,9,-19,-19,24,-4,48,0,-68,-87,-136,-107
29,0,-29,-14,29,-14,58,0,-78,-92,-146,-117
29,0,-29,-14,29,-14,58,0,-78,-97,-146,-117
29,0,-29,-14,29,-14,58,0,-78,-102,-146,-117
29,0,-29,-14,29,-14,58,0,-78,-107,-146,-117
9,9,0,-9,4,4,63,14,-63,-97,-131,-112
0,9,9,-4,-4,9,68,19,-58,-87,-126,-107
-9,9,19,0,-14,14,73,24,-53,-78,-122,-102
-19,9,29,4,-24,19,78,29,-48,-68,-117,-97
-4,4,9,0,-7,7,78,24,-53,-82,-122,-102
9,0,-9,-4,9,-4,78,19,-58,-87,-126,-107
24,-4,-29,-9,26,-17,78,14,-63,-92,-131,-112
39,-9,-48,-14,43,-29,78,9,-68,-97,-136,-117
29,-4,-34,-12,31,-19,87,14,-63,-82,-122,-102
29,0,-29,-14,29,-14,87,19,-58,-78,-117,-97
29,4,-24,-17,26,-9,87,24,-53,-73,-112,-92
29,9,-19,-19,24,-4,87,29,-48,-68,-107,-87
19,9,-9,-14,14,0,97,29,-48,-68,-107,-87
9,9,0,-9,4,4,97,29,-48,-68,-107,-87
0,9,9,-4,-4,9,97,29,-48,-68,-107,-87
-9,9,19,0,-14,14,97,29,-48,-68,-107,-87
-9,4,14,2,-12,9,97,19,-58,-78,-117,-97
-9,0,9,4,-9,4,97,19,-58,-78,-117,-97
-9,-4,4,7,-7,0,97,19,-58,-78,-117,-97
-9,-9,0,9,-4,-4,97,19,-58,-78,-117,-97
9,4,-4,-7,7,0,87,19,-58,-78,-117,-97
19,19,0,-19,9,9,87,19,-58,-78,-117,-97
29,34,4,-31,12,19,87,19,-58,-78,-117,-97
39,48,9,-43,14,29,87,19,-58,-78,-117,-97
24,34,9,-29,7,21,82,14,-68,-78,-117,-87
9,29,19,-19,-4,24,78,9,-68,-78,-117,-87
-4,24,29,-9,-17,26,73,4,-68,-78,-117,-87
-19,19,39,0,-29,29,68,0,-68,-78,-117,-87
-9,14,24,-2,-17,19,53,-14,-82,-87,-131,-102
-9,9,19,0,-14,14,48,-19,-87,-97,-136,-107
-9,4,14,2,-12,9,43,-24,-92,-107,-141,-112
-9,0,9,4,-9,4,39,-29,-97,-117,-146,-117
4,24,19,-14,-7,21,48,-19,-92,-107,-131,-102
19,39,19,-29,0,29,48,-19,-87,-97,-126,-97
34,53,19,-43,7,36,48,-19,-82,-87,-122,-92
48,68,19,-58,14,43,48,-19,-78,-78,-117,-87
14,43,29,-29,-7,36,48,-19,-78,-87,-126,-97
-9,29,39,-9,-24,34,48,-19,-78,-87,-126,-97
-34,14,48,9,-41,31,48,-19,-78,-87,-126,-97
-58,0,58,29,-58,29,48,-19,-78,-87,-126,-97
-48,0,48,24,-48,24,43,-29,-82,-92,-131,-112
-39,0,39,19,-39,19,39,-29,-87,-97,-136,-117
-29,0,29,14,-29,14,34,-29,-92,-102,-141,-122
-19,0,19,9,-19,9,29,-29,-97,-107,-146,-126
-9,9,19,0,-14,14,39,-19,-97,-107,-146,-117
0,19,19,-9,-9,19,39,-19,-97,-107,-146,-117
9,29,19,-19,-4,24,39,-19,-97,-107,-146,-117
19,39,19,-29,0,29,39,-19,-97,-107,-146,-117
-4,14,19,-4,-12,17,29,-19,-87,-107,-136,-117
-19,0,19,9,-19,9,29,-19,-87,-107,-136,-117
-34,-14,19,24,-26,2,29,-19,-87,-107,-136,-117
-48,-29,19,39,-34,-4,29,-19,-87,-107,-136,-117
-39,-24,14,31,-26,-4,39,-19,-87,-107,-146,-117
-39,-19,19,29,-29,0,39,-19,-87,-107,-146,-117
-39,-14,24,26,-31,4,39,-19,-87,-107,-146,-117
-39,-9,29,24,-34,9,39,-19,-87,-107,-146,-117
-29,-14,14,21,-21,0,29,-19,-87,-117,-156,-126
-19,-19,0,19,-9,-9,29,-19,-87,-117,-156,-126
-9,-24,-14,17,2,-19,29,-19,-87,-117,-156,-126
0,-29,-29,14,14,-29,29,-19,-87,-117,-156,-126
4,-29,-34,12,19,-31,39,-14,-78,-107,-151,-122
9,-29,-39,9,24,-34,39,-9,-78,-107,-146,-117
14,-29,-43,7,29,-36,39,-4,-78,-107,-141,-112
19,-29,-48,4,34,-39,39,0,-78,-107,-136,-107
4,-29,-34,12,19,-31,43,0,-78,-107,-141,-112
0,-29,-29,14,14,-29,48,0,-78,-107,-146,-117
-4,-29,-24,17,9,-26,53,0,-78,-107,-151,-122
-9,-29,-19,19,4,-24,58,0,-78,-107,-156,-126
-9,-39,-29,24,9,-34,68,0,-78,-107,-146,-126
-9,-39,-29,24,9,-34,68,0,-78,-107,-146,-126
-9,-39,-29,24,9,-34,68,0,-78,-107,-146,-126
-9,-39,-29,24,9,-34,68,0,-78,-107,-146,-126
-9,-29,-19,19,4,-24,73,4,-73,-102,-141,-122
-9,-19,-9,14,0,-14,78,9,-68,-97,-136,-117
-9,-9,0,9,-4,-4,82,14,-63,-92,-131,-112
-9,0,9,4,-9,4,87,19,-58,-87,-126,-107
-29,-9,19,19,-24,4,78,14,-58,-82,-117,-102
-39,-19,19,29,-29,0,78,9,-58,-78,-117,-97
-48,-29,19,39,-34,-4,78,4,-58,-73,-117,-92
-58,-39,19,48,-39,-9,78,0,-58,-68,-117,-87
-53,-19,34,36,-43,7,87,9,-48,-58,-112,-82
-48,-9,39,29,-43,14,87,9,-48,-58,-107,-78
-43,0,43,21,-43,21,87,9,-48,-58,-102,-73
-39,9,48,14,-43,29,87,9,-48,-58,-97,-68
-29,4,34,12,-31,19,78,0,-53,-63,-107,-73
-29,0,29,14,-29,14,78,0,-58,-68,-107,-78
-29,-4,24,17,-26,9,78,0,-63,-73,-107,-82
-29,-9,19,19,-24,4,78,0,-68,-78,-107,-87
-19,-4,14,12,-17,4,68,0,-58,-78,-107,-78
-19,0,19,9,-19,9,68,0,-58,-78,-107,-78
-19,4,24,7,-21,14,68,0,-58,-78,-107,-78
-19,9,29,4,-24,19,68,0,-58,-78,-107,-78
-19,0,19,9,-19,9,63,0,-68,-78,-107,-87
-19,0,19,9,-19,9,58,0,-68,-78,-107,-87
-19,0,19,9,-19,9,53,0,-68,-78,-107,-87
-19,0,19,9,-19,9,48,0,-68,-78,-107,-87
-29,-14,14,21,-21,0,48,-4,-78,-87,-112,-97
-39,-19,19,29,-29,0,48,-9,-78,-87,-117,-97
-48,-24,24,36,-36,0,48,-14,-78,-87,-122,-97
-58,-29,29,43,-43,0,48,-19,-78,-87,-126,-97
-48,-24,24,36,-36,0,48,-9,-78,-97,-136,-107
-39,-19,19,29,-29,0,48,-9,-78,-97,-136,-107
-29,-14,14,21,-21,0,48,-9,-78,-97,-136,-107
-19,-9,9,14,-14,0,48,-9,-78,-97,-136,-107
-29,0,29,14,-29,14,53,0,-73,-92,-131,-97
-29,0,29,14,-29,14,58,0,-68,-87,-126,-97
-29,0,29,14,-29,14,63,0,-63,-82,-122,-97
-29,0,29,14,-29,14,68,0,-58,-78,-117,-97
-34,-9,24,21,-29,7,63,-9,-63,-87,-117,-97
-39,-19,19,29,-29,0,58,-9,-68,-87,-117,-97
-43,-29,14,36,-29,-7,53,-9,-73,-87,-117,-97
-48,-39,9,43,-29,-14,48,-9,-78,-87,-117,-97
-39,-29,9,34,-24,-9,39,-9,-68,-87,-126,-97
-29,-19,9,24,-19,-4,39,-9,-68,-87,-126,-97
-19,-9,9,14,-14,0,39,-9,-68,-87,-126,-97
-9,0,9,4,-9,4,39,-9,-68,-87,-126,-97
-19,-14,4,17,-12,-4,29,-19,-73,-92,-131,-102
-19,-19,0,19,-9,-9,29,-19,-78,-97,-136,-107
-19,-24,-4,21,-7,-14,29,-19,-82,-102,-141,-112
-19,-29,-9,24,-4,-19,29,-19,-87,-107,-146,-117
-34,-39,-4,36,-14,-21,29,-19,-87,-117,-146,-126
-39,-48,-9,43,-14,-29,29,-19,-87,-117,-146,-126
-43,-58,-14,51,-14,-36,29,-19,-87,-117,-146,-126
-48,-68,-19,58,-14,-43,29,-19,-87,-117,-146,-126
-39,-58,-19,48,-9,-39,43,-9,-73,-107,-141,-117
-39,-48,-9,43,-14,-29,48,0,-68,-97,-136,-107
-39,-39,0,39,-19,-19,53,9,-63,-87,-131,-97
-39,-29,9,34,-24,-9,58,19,-58,-78,-126,-87
-29,-43,-14,36,-7,-29,68,19,-48,-78,-117,-87
-29,-48,-19,39,-4,-34,68,19,-48,-78,-117,-87
-29,-53,-24,41,-2,-39,68,19,-48,-78,-117,-87
-29,-58,-29,43,0,-43,68,19,-48,-78,-117,-87
-34,-53,-19,43,-7,-36,78,29,-48,-68,-107,-87
-39,-48,-9,43,-14,-29,78,29,-48,-68,-107,-87
-43,-43,0,43,-21,-21,78,29,-48,-68,-107,-87
-48,-39,9,43,-29,-14,78,29,-48,-68,-107,-87
-68,-43,24,56,-46,-9,68,29,-39,-58,-107,-87
-78,-48,29,63,-53,-9,68,29,-39,-58,-107,-87
-87,-53,34,70,-61,-9,68,29,-39,-58,-107,-87
-97,-58,39,78,-68,-9,68,29,-39,-58,-107,-87
-78,-43,34,61,-56,-4,68,39,-48,-68,-117,-78
-58,-29,29,43,-43,0,68,39,-48,-68,-117,-78
-39,-14,24,26,-31,4,68,39,-48,-68,-117,-78
-19,0,19,9,-19,9,68,39,-48,-68,-117,-78
-29,0,29,14,-29,14,68,34,-48,-68,-117,-87
-29,0,29,14,-29,14,68,29,-48,-68,-117,-87
-29,0,29,14,-29,14,68,24,-48,-68,-117,-87
-29,0,29,14,-29,14,68,19,-48,-68,-117,-87
-19,9,29,4,-24,19,78,19,-39,-68,-107,-78
-19,9,29,4,-24,19,78,19,-39,-68,-107,-78
-19,9,29,4,-24,19,78,19,-39,-68,-107,-78
-19,9,29,4,-24,19,78,19,-39,-68,-107,-78
-34,-4,29,19,-31,12,68,14,-53,-78,-112,-87
-39,-9,29,24,-34,9,68,9,-58,-78,-117,-87
-43,-14,29,29,-36,7,68,4,-63,-78,-122,-87
-48,-19,29,34,-39,4,68,0,-68,-78,-126,-87
-53,-29,24,41,-39,-2,68,0,-68,-87,-126,-97
-58,-29,29,43,-43,0,68,0,-68,-87,-126,-97
-63,-29,34,46,-48,2,68,0,-68,-87,-126,-97
-68,-29,39,48,-53,4,68,0,-68,-87,-126,-97
-48,-14,34,31,-41,9,68,9,-78,-97,-136,-107
-29,0,29,14,-29,14,68,9,-78,-97,-136,-107
-9,14,24,-2,-17,19,68,9,-78,-97,-136,-107
9,29,19,-19,-4,24,68,9,-78,-97,-136,-107
-9,14,24,-2,-17,19,73,9,-68,-87,-126,-97
-19,9,29,4,-24,19,78,9,-68,-87,-126,-97
-29,4,34,12,-31,19,82,9,-68,-87,-126,-97
-39,0,39,19,-39,19,87,9,-68,-87,-126,-97
-34,0,34,17,-34,17,82,4,-73,-92,-141,-102
-29,0,29,14,-29,14,78,0,-78,-97,-146,-107
-24,0,24,12,-24,12,73,-4,-82,-102,-151,-112
-19,0,19,9,-19,9,68,-9,-87,-107,-156,-117
-48,-19,29,34,-39,4,53,-19,-97,-117,-146,-107
-78,-39,39,58,-58,0,48,-19,-97,-117,-146,-107
-107,-58,48,82,-78,-4,43,-19,-97,-117,-146,-107
-136,-78,58,107,-97,-9,39,-19,-97,-117,-146,-107
-117,-53,63,85,-90,4,48,-9,-87,-112,-146,-107
-97,-39,58,68,-78,9,48,-9,-87,-107,-146,-107
-78,-24,53,51,-65,14,48,-9,-87,-102,-146,-107
-58,-9,48,34,-53,19,48,-9,-87,-97,-146,-107
-48,-14,34,31,-41,9,39,-14,-97,-102,-146,-117
-48,-19,29,34,-39,4,29,-19,-97,-107,-146,-117
-48,-24,24,36,-36,0,19,-24,-97,-112,-146,-117
-48,-29,19,39,-34,-4,9,-29,-97,-117,-146,-117
-34,-14,19,24,-26,2,9,-19,-87,-112,-136,-112
-29,-9,19,19,-24,4,9,-19,-87,-107,-136,-107
-24,-4,19,14,-21,7,9,-19,-87,-102,-136,-102
-19,0,19,9,-19,9,9,-19,-87,-97,-136,-97
-29,-14,14,21,-21,0,19,-19,-97,-102,-146,-107
-39,-19,19,29,-29,0,19,-19,-97,-107,-146,-107
-48,-24,24,36,-36,0,19,-19,-97,-112,-146,-107
-58,-29,29,43,-43,0,19,-19,-97,-117,-146,-107
-48,-19,29,34,-39,4,19,-9,-92,-112,-136,-107
-48,-19,29,34,-39,4,19,-9,-87,-107,-136,-107
-48,-19,29,34,-39,4,19,-9,-82,-102,-136,-107
-48,-19,29,34,-39,4,19,-9,-78,-97,-136,-107
-34,-29,4,31,-19,-12,24,-4,-78,-97,-146,-117
-29,-29,0,29,-14,-14,29,0,-78,-97,-146,-117
-24,-29,-4,26,-9,-17,34,4,-78,-97,-146,-117
-19,-29,-9,24,-4,-19,39,9,-78,-97,-146,-117
-43,-39,4,41,-24,-17,53,14,-73,-82,-131,-102
-58,-39,19,48,-39,-9,68,19,-68,-78,-126,-97
-73,-39,34,56,-53,-2,63,24,-58,-73,-117,-92
-92,-48,43,70,-68,-2,63,29,-53,-63,-112,-87
-92,-29,63,61,-78,17,68,34,-39,-58,-97,-73
-58,-4,53,31,-56,24,73,34,-39,-58,-97,-78
-29,19,48,4,-39,34,78,39,-34,-58,-97,-73
-29,19,48,4,-39,34,82,48,-29,-53,-92,-68
-58,0,58,29,-58,29,82,53,-34,-48,-92,-73
-29,19,48,4,-39,34,73,48,-34,-48,-87,-63
-14,9,24,2,-19,17,73,39,-34,-48,-87,-63
-39,4,43,17,-41,24,73,34,-34,-48,-87,-63
-48,-14,34,31,-41,9,63,24,-43,-58,-97,-73
-68,-34,34,51,-51,0,63,24,-43,-68,-102,-73
-97,-53,43,75,-70,-4,58,14,-48,-68,-107,-78
-97,-53,43,75,-70,-4,58,24,-48,-68,-107,-78
-53,-19,34,36,-43,7,63,39,-43,-58,-107,-73
-34,4,39,14,-36,21,68,34,-39,-53,-102,-68
-14,24,39,-4,-26,31,73,29,-34,-53,-87,-63
-19,53,73,-17,-46,63,73,34,-29,-48,-82,-58
-29,34,63,-2,-46,48,82,34,-24,-48,-82,-68
-14,24,39,-4,-26,31,82,34,-24,-48,-82,-68
-24,34,58,-4,-41,46,87,39,-24,-48,-78,-58
-43,0,43,21,-43,21,87,39,-24,-53,-78,-58
-73,-19,53,46,-63,17,68,14,-43,-63,-107,-78
-97,-29,68,63,-82,19,68,14,-58,-82,-117,-87
-97,-43,53,70,-75,4,68,14,-53,-78,-122,-87
-112,-29,82,70,-97,26,68,19,-58,-73,-117,-78
-97,-29,68,63,-82,19,73,19,-58,-73,-112,-82
-82,-19,63,51,-73,21,78,19,-58,-73,-112,-82
-78,-19,58,48,-68,19,78,14,-63,-78,-122,-87
-53,-9,43,31,-48,17,78,9,-63,-82,-126,-97
-24,-4,19,14,-21,7,78,0,-82,-97,-141,-102
-19,-19,0,19,-9,-9,78,0,-82,-97,-141,-107
-63,-29,34,46,-48,2,78,0,-78,-92,-136,-107
-87,-34,53,61,-70,9,82,9,-73,-87,-131,-112
-87,-34,53,61,-70,9,82,9,-82,-92,-141,-122
-82,-53,29,68,-56,-12,78,4,-82,-97,-151,-126
-78,-53,24,65,-51,-14,78,4,-92,-107,-151,-126
-78,-43,34,61,-56,-4,82,4,-82,-112,-146,-126
-73,-39,34,56,-53,-2,92,4,-87,-122,-156,-126
-68,-39,29,53,-48,-4,82,4,-92,-122,-156,-126
-68,-48,19,58,-43,-14,82,4,-97,-122,-156,-126
-63,-39,24,51,-43,-7,82,9,-102,-122,-156,-122
-53,-9,43,31,-48,17,82,9,-97,-112,-146,-112
-39,-24,14,31,-26,-4,82,9,-92,-112,-146,-112
-68,-24,43,46,-56,9,82,9,-87,-117,-146,-117
-73,-39,34,56,-53,-2,82,9,-82,-117,-151,-117
-82,-43,39,63,-61,-2,92,9,-92,-117,-156,-112
-82,-48,34,65,-58,-7,92,9,-92,-117,-156,-112
-82,-43,39,63,-61,-2,92,24,-78,-107,-151,-102
-73,-34,39,53,-56,2,107,24,-78,-107,-141,-102
-92,-48,43,70,-68,-2,82,14,-97,-126,-156,-126
-97,-78,19,87,-58,-29,78,9,-102,-131,-161,-131
-102,-82,19,92,-61,-31,78,4,-107,-136,-165,-136
-107,-82,24,95,-65,-29,78,0,-112,-141,-170,-141
-92,-73,19,82,-56,-26,73,-9,-126,-151,-190,-151
-78,-78,0,78,-39,-39,68,-14,-126,-151,-190,-151
-78,-78,0,78,-39,-39,63,-19,-126,-146,-180,-146
-82,-82,0,82,-41,-41,58,-24,-122,-146,-180,-146
-97,-68,29,82,-63,-19,68,-19,-117,-146,-165,-141
-102,-58,43,80,-73,-7,78,-9,-107,-136,-161,-126
-117,-53,63,85,-90,4,82,-9,-107,-136,-151,-122
-107,-48,58,78,-82,4,82,-9,-107,-136,-161,-117
-87,-63,24,75,-56,-19,68,-19,-126,-146,-175,-122
-78,-63,14,70,-46,-24,63,-24,-126,-156,-175,-131
-78,-73,4,75,-41,-34,53,-29,-126,-146,-175,-136
-68,-58,9,63,-39,-24,39,-34,-122,-141,-175,-141
-63,-63,0,63,-31,-31,29,-34,-122,-141,-156,-131
-78,-63,14,70,-46,-24,19,-34,-117,-136,-156,-126
-102,-73,29,87,-65,-21,24,-34,-117,-126,-151,-122
-126,-78,48,102,-87,-14,14,-24,-122,-136,-151,-117
-102,-68,34,85,-68,-17,4,-34,-112,-126,-151,-117
-78,-53,24,65,-51,-14,-14,-34,-107,-126,-151,-117
-63,-48,14,56,-39,-17,-24,-39,-107,-126,-151,-117
-43,-43,0,43,-21,-21,-34,-39,-122,-136,-165,-122
-53,-4,48,29,-51,21,-4,0,-87,-112,-141,-97
-78,-43,34,61,-56,-4,-4,0,-107,-126,-156,-117
-87,-102,-14,95,-36,-58,-14,-9,-126,-165,-200,-156
-68,-97,-29,82,-19,-63,-9,-9,-141,-195,-224,-175
-48,-92,-43,70,-2,-68,-19,-14,-165,-229,-239,-185
-39,-112,-73,75,17,-92,-29,-53,-229,-273,-287,-214
-29,-92,-63,61,17,-78,-34,-102,-287,-336,-341,-229
-58,-92,-34,75,-12,-63,-43,-141,-336,-385,-380,-239
-97,-151,-53,124,-21,-102,-107,-224,-419,-448,-439,-278
-58,-151,-92,104,17,-122,-175,-331,-512,-522,-492,-302
9,-92,-102,41,56,-97,-214,-395,-561,-585,-541,-317
-9,-126,-117,68,53,-122,-258,-453,-629,-644,-595,-336
-53,-204,-151,129,48,-178,-351,-541,-697,-692,-619,-346
-14,-156,-141,85,63,-148,-400,-614,-727,-688,-590,-287
82,-53,-136,-14,109,-95,-414,-658,-751,-668,-536,-200
112,-39,-151,-36,131,-95,-483,-736,-805,-658,-488,-112
151,-58,-209,-46,180,-134,-561,-824,-854,-639,-429,-48
229,-43,-273,-92,251,-158,-634,-883,-912,-619,-370,29
341,-4,-346,-168,344,-175,-712,-966,-1000,-649,-336,107
419,24,-395,-222,407,-185,-800,-1049,-1127,-722,-336,170
463,34,-429,-248,446,-197,-868,-1141,-1288,-854,-400,190
522,29,-492,-275,507,-231,-951,-1239,-1537,-1117,-575,117
580,24,-556,-302,568,-265,-1039,-1376,-1810,-1444,-834,-14
624,43,-580,-334,602,-268,-1093,-1483,-2034,-1698,-1015,-87
688,53,-634,-370,661,-290,-1102,-1561,-2196,-1869,-1122,-112
766,39,-727,-402,746,-344,-1122,-1600,-2298,-1981,-1190,-112
795,58,-736,-427,766,-339,-1112,-1581,-2293,-1971,-1161,-58
766,146,-619,-456,692,-236,-1034,-1503,-2186,-1844,-1010,92
697,292,-405,-495,551,-56,-902,-1376,-1991,-1615,-732,366
658,473,-185,-566,422,143,-766,-1283,-1751,-1273,-351,702
683,644,-39,-663,361,302,-663,-1224,-1556,-976,-19,990
585,668,82,-627,251,375,-629,-1210,-1459,-824,156,1146
400,551,151,-475,124,351,-610,-1180,-1439,-814,209,1200
361,478,117,-419,122,297,-585,-1127,-1405,-844,209,1156
380,468,87,-424,146,278,-527,-1024,-1327,-795,214,1088
341,424,82,-383,129,253,-473,-912,-1210,-697,268,1044
331,356,24,-344,153,190,-424,-805,-1063,-556,370,1005
273,268,-4,-270,139,131,-361,-692,-917,-424,434,883
107,141,34,-124,36,87,-244,-541,-766,-312,414,658
-19,63,82,-21,-51,73,-82,-356,-585,-219,341,424
-39,43,82,-2,-61,63,-4,-229,-439,-141,307,278
-48,9,58,19,-53,34,-4,-165,-390,-122,287,204
-87,-39,48,63,-68,4,-29,-126,-351,-122,244,156
-78,-39,39,58,-58,0,-9,-39,-239,-48,219,122
-39,-29,9,34,-24,-9,4,34,-107,43,239,117
-29,-48,-19,39,-4,-34,-4,48,-63,82,229,117
-58,-34,24,46,-41,-4,4,63,-29,112,239,131
-92,-9,82,51,-87,36,39,117,48,185,283,165
-82,-9,73,46,-78,31,63,175,131,244,317,161
-29,9,39,9,-34,24,92,229,190,278,322,141
-19,24,43,-2,-31,34,112,248,209,278,292,107
-34,-9,24,21,-29,7,97,239,204,244,248,73
-43,0,43,21,-43,21,92,224,200,229,229,63
-43,-4,39,24,-41,17,87,200,190,209,195,53
-53,-29,24,41,-39,-2,82,185,175,190,161,48
-73,-19,53,46,-63,17,97,180,165,170,146,39
-82,-39,43,61,-63,2,102,180,161,161,126,24
-97,-14,82,56,-90,34,112,185,161,161,122,19
-107,4,112,51,-109,58,126,185,161,156,122,19
-87,9,97,39,-92,53,146,190,175,156,117,14
-58,14,73,21,-65,43,151,195,190,151,107,9
-29,19,48,4,-39,34,146,195,195,136,87,-4
0,34,34,-17,-17,34,151,185,190,136,82,-14
-19,24,43,-2,-31,34,156,204,209,146,87,0
-48,9,58,19,-53,34,161,214,214,161,102,14
-87,-4,82,46,-85,39,165,224,219,175,112,24
-126,-19,107,73,-117,43,170,224,224,180,122,29
-112,-19,92,65,-102,36,170,219,229,175,107,19
-92,-14,78,53,-85,31,165,214,239,175,102,14
-87,-14,73,51,-80,29,161,209,224,170,97,4
-53,-9,43,31,-48,17,156,204,219,165,92,-4
-53,-4,48,29,-51,21,161,209,219,170,97,-4
-53,-4,48,29,-51,21,165,224,219,175,107,4
-53,-14,39,34,-46,12,170,224,224,175,107,4
-58,-19,39,39,-48,9,180,219,234,180,107,4
-58,-19,39,39,-48,9,180,229,244,185,112,-4
-58,-9,48,34,-53,19,185,229,244,190,112,0
-73,-9,63,41,-68,26,185,229,248,195,112,0
-82,-9,73,46,-78,31,185,229,248,195,117,9
-78,0,78,39,-78,39,170,214,239,204,122,19
-73,9,82,31,-78,46,161,219,244,209,122,19
-102,4,107,48,-104,56,151,214,244,214,131,14
-107,-19,87,63,-97,34,136,209,248,219,141,14
-78,9,87,34,-82,48,102,214,258,229,161,34
-63,19,82,21,-73,51,92,214,273,239,170,48
-53,29,82,12,-68,56,87,214,283,248,175,58
-39,43,82,-2,-61,63,87,214,292,253,190,78
-43,43,87,0,-65,65,68,204,287,253,190,73
-43,34,78,4,-61,56,58,195,278,253,185,68
-48,24,73,12,-61,48,48,190,278,253,175,63
-58,9,68,24,-63,39,39,190,283,248,170,53
-48,34,82,7,-65,58,39,204,302,263,180,58
-53,48,102,2,-78,75,58,209,307,273,195,68
-48,63,112,-7,-80,87,68,214,322,283,209,82
-29,78,107,-24,-68,92,63,219,326,292,219,92
-24,68,92,-21,-58,80,73,219,326,307,219,97
-29,68,97,-19,-63,82,78,219,336,312,224,102
-34,63,97,-14,-65,80,78,219,336,312,224,102
-63,63,126,0,-95,95,78,219,336,317,234,102
-63,63,126,0,-95,95,78,229,341,331,239,97
-43,68,112,-12,-78,90,87,239,361,336,253,102
-34,78,112,-21,-73,95,87,234,356,341,248,102
-63,58,122,2,-92,90,87,229,351,336,244,97
-73,63,136,4,-104,100,78,239,361,336,244,97
-48,82,131,-17,-90,107,82,239,361,346,248,97
-19,87,107,-34,-63,97,82,239,375,351,258,97
-14,92,107,-39,-61,100,78,253,380,356,258,102
-29,97,126,-34,-78,112,82,263,390,375,273,117
-14,97,112,-41,-63,104,92,273,400,385,283,122
-9,97,107,-43,-58,102,97,278,414,395,292,131
-19,102,122,-41,-70,112,112,283,429,409,297,151
-53,102,156,-24,-104,129,117,292,453,429,326,175
-68,97,165,-14,-117,131,122,307,453,434,331,180
-78,87,165,-4,-122,126,112,292,453,434,331,175
-73,87,161,-7,-117,124,117,307,453,439,336,170
-82,78,161,2,-122,119,107,297,463,434,331,165
-68,87,156,-9,-112,122,112,307,463,444,326,165
-39,107,146,-34,-92,126,112,312,473,448,331,161
-39,102,141,-31,-90,122,112,307,473,458,322,161
-34,112,146,-39,-90,129,122,312,497,458,326,151
-53,112,165,-29,-109,139,122,317,502,458,326,151
-19,126,146,-53,-82,136,122,326,507,473,336,156
14,126,112,-70,-48,119,122,336,517,488,351,161
-14,117,131,-51,-73,124,136,346,531,497,361,165
-24,112,136,-43,-80,124,151,366,551,512,375,170
-43,112,156,-34,-100,134,156,375,556,522,380,185
-48,107,156,-29,-102,131,161,380,570,527,380,190
-58,112,170,-26,-114,141,170,395,580,531,385,195
-48,131,180,-41,-114,156,170,400,580,541,390,195
-48,136,185,-43,-117,161,161,400,590,541,390,195
-68,122,190,-26,-129,156,161,414,605,551,400,200
-97,126,224,-14,-161,175,185,424,619,566,414,204
-82,146,229,-31,-156,187,204,444,639,585,434,214
-82,136,219,-26,-151,178,209,448,649,590,434,209
-87,117,204,-14,-146,161,214,458,653,590,419,195
-68,151,219,-41,-143,185,224,473,678,605,419,195
-53,185,239,-65,-146,212,234,492,692,610,439,204
-43,200,244,-78,-143,222,234,497,697,619,444,214
-34,234,268,-100,-151,251,229,497,702,624,458,214
-48,200,248,-75,-148,224,224,507,692,619,458,214
-58,180,239,-61,-148,209,229,507,707,629,453,219
-58,170,229,-56,-143,200,239,512,712,634,448,219
-68,165,234,-48,-151,200,244,512,722,634,444,219
-58,165,224,-53,-141,195,258,522,736,639,439,214
-73,156,229,-41,-151,192,258,536,741,644,444,209
-78,146,224,-34,-151,185,258,541,741,644,444,200
-78,136,214,-29,-146,175,258,541,741,639,444,190
-92,131,224,-19,-158,178,263,546,751,644,444,200
-97,151,248,-26,-173,200,273,551,761,658,448,204
-97,156,253,-29,-175,204,292,566,771,663,453,209
-92,161,253,-34,-173,207,302,570,771,668,458,214
-73,170,244,-48,-158,207,283,556,756,653,439,200
-73,180,253,-53,-163,217,278,551,751,639,424,195
-63,185,248,-61,-156,217,268,556,736,624,419,190
-39,195,234,-78,-136,214,253,536,727,619,419,180
-39,209,248,-85,-143,229,263,527,727,634,429,185
-14,224,239,-104,-126,231,253,527,722,624,424,195
-9,239,248,-114,-129,244,248,517,717,619,419,190
-4,253,258,-124,-131,256,248,517,712,610,409,190
-34,234,268,-100,-151,251,219,488,673,570,395,180
-53,214,268,-80,-161,241,204,458,653,551,380,151
-53,204,258,-75,-156,231,190,434,629,527,341,136
-63,185,248,-61,-156,217,175,419,610,507,312,122
-43,195,239,-75,-141,217,151,395,580,497,297,97
-29,195,224,-82,-126,209,136,370,556,468,283,87
-24,185,209,-80,-117,197,117,356,527,434,258,73
-9,175,185,-82,-97,180,107,331,497,400,229,63
-34,161,195,-63,-114,178,112,336,478,385,219,63
-43,131,175,-43,-109,153,112,317,468,351,190,43
-48,107,156,-29,-102,131,107,292,429,312,161,14
-58,97,156,-19,-107,126,97,273,405,283,136,-4
-58,92,151,-17,-104,122,82,258,361,258,122,-9
-53,82,136,-14,-95,109,73,244,326,229,102,-14
-39,87,126,-24,-82,107,68,224,312,209,92,-14
-14,92,107,-39,-61,100,63,214,297,190,73,-29
-29,78,107,-24,-68,92,73,200,268,161,58,-39
-58,63,122,-2,-90,92,63,175,229,126,39,-48
-63,48,112,7,-87,80,53,151,195,92,14,-58
-53,48,102,2,-78,75,39,131,165,58,-14,-63
-39,58,97,-9,-68,78,24,107,141,34,-39,-73
-39,43,82,-2,-61,63,19,87,112,19,-53,-82
-43,39,82,2,-63,61,9,78,87,-4,-63,-92
-29,19,48,4,-39,34,0,63,73,-19,-73,-92
-29,14,43,7,-36,29,9,63,68,-24,-87,-87
-19,14,34,2,-26,24,9,48,53,-34,-92,-102
-14,24,39,-4,-26,31,4,34,34,-58,-97,-107
-19,4,24,7,-21,14,0,19,19,-68,-97,-112
-9,0,9,4,-9,4,-4,14,0,-73,-112,-102
0,9,9,-4,-4,9,-4,9,0,-73,-102,-92
9,19,9,-14,0,14,-9,9,0,-73,-92,-92
-4,0,4,2,-4,2,-9,4,-9,-82,-107,-92
-14,4,19,4,-17,12,0,0,-24,-73,-112,-92
-9,19,29,-4,-19,24,-4,-4,-19,-82,-112,-92
-4,24,29,-9,-17,26,-4,-9,-19,-87,-107,-92
-14,4,19,4,-17,12,-9,-14,-29,-87,-102,-92
-68,-34,34,51,-51,0,-9,-9,-29,-78,-97,-92
-92,-39,53,65,-73,7,-4,-9,-29,-78,-92,-87
-107,-34,73,70,-90,19,0,-9,-34,-78,-92,-82
-131,-58,73,95,-102,7,9,-14,-39,-78,-92,-82
-87,-19,68,53,-78,24,24,-4,-29,-63,-82,-73
-43,9,53,17,-48,31,29,4,-9,-58,-73,-63
0,39,39,-19,-19,39,34,9,-9,-53,-63,-58
48,63,14,-56,17,39,34,14,-9,-48,-53,-48
34,53,19,-43,7,36,29,4,-9,-48,-63,-48
24,39,14,-31,4,26,29,4,-9,-48,-58,-53
4,19,14,-12,-4,17,24,4,-14,-58,-58,-58
-34,-4,29,19,-31,12,24,4,-14,-58,-58,-63
-14,14,29,0,-21,21,39,14,0,-43,-48,-63
-9,34,43,-12,-26,39,48,24,4,-34,-39,-53
0,43,43,-21,-21,43,53,29,4,-34,-39,-53
4,48,43,-26,-19,46,48,29,-4,-43,-48,-63
-9,39,48,-14,-29,43,48,24,-9,-53,-53,-73
-9,39,48,-14,-29,43,53,29,-4,-43,-43,-63
-14,29,43,-7,-29,36,53,24,-9,-43,-48,-63
-14,19,34,-2,-24,26,58,19,-9,-43,-53,-63
-14,24,39,-4,-26,31,68,24,0,-34,-43,-58
-14,24,39,-4,-26,31,68,24,4,-29,-39,-58
-4,24,29,-9,-17,26,68,24,4,-29,-39,-58
-4,34,39,-14,-21,36,68,24,4,-19,-39,-58
-9,34,43,-12,-26,39,73,34,9,-9,-24,-43
-4,43,48,-19,-26,46,73,34,14,-4,-14,-34
14,53,39,-34,-12,46,78,34,19,0,-9,-29
29,63,34,-46,-2,48,78,29,24,-4,0,-24
0,34,34,-17,-17,34,68,24,19,-9,-14,-19
-4,24,29,-9,-17,26,58,34,24,0,-14,-24
0,19,19,-9,-9,19,53,29,24,4,-14,-29
-14,9,24,2,-19,17,43,24,19,0,-19,-34
-43,14,58,14,-51,36,34,14,9,-9,-9,-29
-34,34,68,0,-51,51,29,19,9,-9,-9,-29
-29,43,73,-7,-51,58,19,19,4,-9,-9,-29
-29,48,78,-9,-53,63,14,9,4,-9,-9,-29
-24,29,53,-2,-39,41,-4,-9,0,-19,-14,-39
-24,24,48,0,-36,36,-19,-19,-19,-29,-24,-43
-29,14,43,7,-36,29,-34,-29,-34,-39,-34,-48
-34,4,39,14,-36,21,-43,-39,-43,-48,-43,-53
-29,19,48,4,-39,34,-39,-24,-29,-43,-29,-39
-34,24,58,4,-46,41,-29,-24,-24,-39,-24,-29
-29,24,53,2,-41,39,-24,-24,-24,-39,-24,-24
-19,14,34,2,-26,24,-29,-39,-24,-39,-29,-29
-24,4,29,9,-26,17,-39,-48,-39,-43,-39,-43
-19,14,34,2,-26,24,-43,-43,-39,-43,-43,-43
-4,19,24,-7,-14,21,-43,-43,-43,-48,-48,-48
0,9,9,-4,-4,9,-53,-43,-43,-53,-58,-53
4,14,9,-9,-2,12,-48,-39,-43,-53,-53,-53
-9,9,19,0,-14,14,-39,-29,-39,-43,-48,-43
-14,9,24,2,-19,17,-29,-29,-39,-43,-48,-43
-19,9,29,4,-24,19,-24,-29,-39,-43,-48,-43
-4,19,24,-7,-14,21,-34,-29,-39,-43,-48,-48
34,39,4,-36,14,21,-39,-34,-43,-43,-53,-53
68,53,-14,-61,41,19,-39,-34,-43,-43,-53,-58
82,63,-19,-73,51,21,-34,-34,-39,-43,-53,-63
53,53,0,-53,26,26,-14,-14,-29,-29,-43,-43
43,48,4,-46,19,26,-4,-9,-24,-29,-39,-39
34,43,9,-39,12,26,4,4,-19,-29,-34,-34
14,34,19,-24,-2,26,9,9,-9,-24,-24,-29
0,9,9,-4,-4,9,9,0,-14,-29,-39,-43
-24,-9,14,17,-19,2,4,-9,-24,-43,-53,-58
-29,-34,-4,31,-12,-19,-9,-19,-39,-48,-68,-78
-34,-43,-9,39,-12,-26,0,-19,-43,-53,-73,-82
-14,0,14,7,-14,7,0,-4,-29,-48,-68,-63
-4,9,14,-2,-9,12,4,-4,-24,-48,-63,-63
19,14,-4,-17,12,4,9,-4,-24,-48,-58,-63
24,24,0,-24,12,12,9,0,-24,-48,-58,-58
19,9,-9,-14,14,0,9,-9,-34,-48,-68,-53
4,-4,-9,0,7,-7,4,-14,-39,-48,-68,-73
-14,-19,-4,17,-4,-12,4,-14,-43,-63,-78,-82
-19,-24,-4,21,-7,-14,4,-14,-43,-63,-78,-87
-14,0,14,7,-14,7,19,-4,-29,-48,-68,-73
-4,4,9,0,-7,7,24,0,-24,-53,-63,-68
-24,-4,19,14,-21,7,19,4,-19,-53,-73,-68
-48,0,48,24,-48,24,24,14,-19,-48,-68,-63
-39,0,39,19,-39,19,39,19,-19,-53,-73,-68
-34,4,39,14,-36,21,43,19,-14,-48,-73,-68
-29,4,34,12,-31,19,48,24,-14,-48,-78,-73
-9,0,9,4,-9,4,48,24,-14,-58,-87,-78
-48,-24,24,36,-36,0,53,19,-14,-53,-82,-87
-82,-29,53,56,-68,12,58,24,-14,-48,-78,-82
-68,-19,48,43,-58,14,78,39,-4,-34,-68,-68
-82,-19,63,51,-73,21,82,48,-4,-29,-58,-63
-53,0,53,26,-53,26,78,48,-9,-39,-58,-78
-34,9,43,12,-39,26,78,48,-9,-39,-68,-78
-14,19,34,-2,-24,26,78,48,-14,-43,-73,-82
0,24,24,-12,-12,24,73,43,-19,-43,-78,-82
-4,24,29,-9,-17,26,63,34,-19,-58,-82,-82
-9,19,29,-4,-19,24,63,34,-19,-58,-78,-82
-14,19,34,-2,-24,26,78,34,-19,-68,-92,-82
-19,19,39,0,-29,29,78,34,-9,-68,-97,-78
-24,19,43,2,-34,31,78,29,-14,-63,-92,-87
-9,24,34,-7,-21,29,78,29,-19,-63,-92,-92
-43,-4,39,24,-41,17,78,29,-34,-68,-92,-92
-87,-24,63,56,-75,19,78,29,-39,-68,-92,-92
-87,4,92,41,-90,48,102,24,-24,-63,-82,-82
-63,19,82,21,-73,51,107,24,-19,-63,-82,-87
-58,9,68,24,-63,39,102,19,-24,-63,-97,-92
-58,14,73,21,-65,43,107,14,-24,-63,-102,-92
-39,19,58,9,-48,39,92,0,-39,-63,-92,-82
-34,14,48,9,-41,31,82,-4,-39,-63,-92,-82
-19,29,48,-4,-34,39,82,0,-34,-58,-87,-78
4,43,39,-24,-17,41,73,-4,-29,-48,-87,-78
0,24,24,-12,-12,24,43,-19,-29,-63,-87,-78
0,19,19,-9,-9,19,34,-34,-43,-68,-97,-78
-4,19,24,-7,-14,21,24,-24,-43,-68,-97,-78
-24,19,43,2,-34,31,14,-24,-34,-63,-92,-73
-9,34,43,-12,-26,39,14,-19,-29,-48,-78,-68
4,39,34,-21,-14,36,9,-19,-29,-53,-73,-63
9,34,24,-21,-7,29,4,-14,-29,-48,-78,-73
-14,24,39,-4,-26,31,0,-9,-24,-43,-73,-68
4,9,4,-7,0,7,0,-9,-34,-48,-78,-58
34,34,0,-34,17,17,4,0,-24,-48,-73,-63
34,29,-4,-31,19,12,0,0,-24,-48,-73,-68
24,9,-14,-17,19,-2,-9,-4,-34,-53,-82,-78
9,-4,-14,-2,12,-9,-19,-19,-48,-68,-97,-82
4,-14,-19,4,12,-17,-34,-19,-48,-73,-97,-82
0,0,0,0,0,0,-24,-19,-48,-73,-97,-82
-9,0,9,4,-9,4,-14,-19,-48,-68,-97,-78
-34,-4,29,19,-31,12,-14,-9,-43,-58,-87,-73
-43,-14,29,29,-36,7,-24,-14,-43,-58,-87,-73
-43,-14,29,29,-36,7,-24,-14,-43,-58,-87,-68
-24,4,29,9,-26,17,-24,-14,-43,-58,-82,-58
4,19,14,-12,-4,17,-19,-9,-39,-48,-82,-53
9,24,14,-17,-2,19,-19,-9,-43,-53,-92,-53
-4,24,29,-9,-17,26,-19,-9,-43,-53,-92,-48
9,24,14,-17,-2,19,-19,-9,-39,-53,-87,-43
43,14,-29,-29,36,-7,-29,-14,-43,-53,-82,-39
43,14,-29,-29,36,-7,-24,-14,-39,-53,-82,-29
14,9,-4,-12,9,2,-19,-9,-39,-58,-82,-29
-14,0,14,7,-14,7,-14,-4,-39,-63,-82,-29
-34,-9,24,21,-29,7,-24,-14,-43,-63,-92,-39
-29,-9,19,19,-24,4,-14,-14,-43,-53,-92,-43
-24,-9,14,17,-19,2,-14,-19,-43,-63,-92,-58
-19,-19,0,19,-9,-9,-19,-24,-53,-73,-107,-68
4,-9,-14,2,9,-12,-29,-24,-53,-82,-107,-68
0,0,0,0,0,0,-24,-24,-43,-87,-102,-68
4,0,-4,-2,4,-2,-24,-24,-53,-87,-97,-68
19,24,4,-21,7,14,-19,-24,-53,-82,-92,-68
29,34,4,-31,12,19,-14,-24,-53,-73,-92,-78
-9,4,14,2,-12,9,-9,-19,-48,-63,-92,-73
-68,-14,53,41,-61,19,-14,-19,-43,-58,-92,-68
-73,-14,58,43,-65,21,-19,-14,-43,-58,-87,-68
-58,0,58,29,-58,29,-4,-4,-34,-53,-82,-68
-43,0,43,21,-43,21,-4,-4,-34,-53,-78,-68
-14,24,39,-4,-26,31,0,-4,-29,-53,-73,-58
0,39,39,-19,-19,39,4,0,-29,-48,-73,-53
-19,9,29,4,-24,19,0,0,-29,-48,-82,-63
-19,9,29,4,-24,19,0,-9,-39,-48,-82,-68
-14,0,14,7,-14,7,4,-9,-43,-53,-87,-78
-14,4,19,4,-17,12,19,-4,-43,-58,-87,-82
0,24,24,-12,-12,24,14,0,-24,-58,-68,-82
-9,0,9,4,-9,4,14,4,-34,-68,-68,-82
-9,4,14,2,-12,9,19,4,-34,-63,-73,-78
-4,19,24,-7,-14,21,29,4,-29,-58,-73,-68
0,63,63,-31,-31,63,39,4,-19,-53,-78,-78
-4,48,53,-21,-29,51,34,9,-19,-48,-73,-73
-4,34,39,-14,-21,36,29,14,-19,-43,-68,-68
0,58,58,-29,-29,58,29,14,-19,-43,-68,-68
4,43,39,-24,-17,41,19,-4,-24,-58,-87,-73
14,43,29,-29,-7,36,19,-9,-29,-63,-92,-78
-9,19,29,-4,-19,24,19,-14,-39,-73,-97,-87
-43,-24,19,34,-31,-2,19,-29,-58,-82,-107,-102
-39,-14,24,26,-31,4,19,-29,-68,-97,-122,-107
-43,-9,34,26,-39,12,19,-29,-68,-102,-122,-112
-39,-9,29,24,-34,9,9,-29,-68,-102,-122,-117
-29,-14,14,21,-21,0,19,-24,-63,-92,-117,-117
-24,-4,19,14,-21,7,19,-14,-53,-82,-107,-112
-24,4,29,9,-26,17,14,-19,-58,-87,-112,-117
-29,9,39,9,-34,24,14,-19,-58,-97,-117,-112
-24,19,43,2,-34,31,14,-24,-58,-97,-117,-107
-9,24,34,-7,-21,29,14,-29,-68,-102,-107,-92
0,39,39,-19,-19,39,14,-29,-68,-102,-107,-92
-24,24,48,0,-36,36,19,-29,-68,-92,-102,-87
-34,19,53,7,-43,36,19,-29,-63,-92,-97,-82
-34,14,48,9,-41,31,19,-34,-63,-92,-92,-82
-53,9,63,21,-58,36,19,-39,-63,-92,-97,-87
-34,4,39,14,-36,21,19,-48,-63,-97,-102,-87
-43,0,43,21,-43,21,19,-53,-63,-97,-112,-87
-63,0,63,31,-63,31,19,-58,-73,-92,-107,-97
-48,14,63,17,-56,39,19,-58,-68,-92,-107,-97
-34,19,53,7,-43,36,14,-63,-68,-92,-107,-97
-19,19,39,0,-29,29,9,-63,-68,-87,-107,-102
-24,29,53,-2,-39,41,0,-73,-68,-78,-97,-97
-39,19,58,9,-48,39,-19,-73,-73,-87,-102,-97
-63,4,68,29,-65,36,-34,-82,-78,-87,-102,-92
-39,34,73,2,-56,53,-43,-82,-78,-82,-92,-82
58,87,29,-73,14,58,-63,-73,-63,-78,-102,-78
92,82,-9,-87,51,36,-68,-73,-73,-87,-102,-73
19,24,4,-21,7,14,-68,-73,-63,-78,-82,-63
-58,-19,39,39,-48,9,-68,-58,-58,-68,-78,-58
-58,-19,39,39,-48,9,-78,-58,-58,-68,-87,-73
-58,-19,39,39,-48,9,-78,-58,-58,-68,-87,-78
-58,-19,39,39,-48,9,-78,-58,-58,-68,-87,-82
-58,-19,39,39,-48,9,-78,-58,-58,-68,-87,-87
-43,-9,34,26,-39,12,-73,-58,-58,-68,-87,-87
-29,0,29,14,-29,14,-68,-58,-58,-68,-87,-87
-14,9,24,2,-19,17,-63,-58,-58,-68,-87,-87
0,19,19,-9,-9,19,-58,-58,-58,-68,-87,-87
-14,29,43,-7,-29,36,-58,-48,-58,-68,-78,-78
-19,29,48,-4,-34,39,-58,-48,-58,-68,-78,-78
-24,29,53,-2,-39,41,-58,-48,-58,-68,-78,-78
-29,29,58,0,-43,43,-58,-48,-58,-68,-78,-78
-29,24,53,2,-41,39,-48,-53,-58,-68,-87,-78
-29,19,48,4,-39,34,-48,-58,-58,-68,-87,-78
-29,14,43,7,-36,29,-48,-63,-58,-68,-87,-78
-29,9,39,9,-34,24,-48,-68,-58,-68,-87,-78
-14,24,39,-4,-26,31,-43,-58,-43,-63,-82,-73
0,39,39,-19,-19,39,-39,-48,-39,-58,-78,-68
14,53,39,-34,-12,46,-34,-39,-34,-53,-73,-63
29,68,39,-48,-4,53,-29,-29,-29,-48,-68,-58
19,63,43,-41,-12,53,-29,-39,-39,-58,-68,-68
9,58,48,-34,-19,53,-29,-39,-39,-58,-68,-68
0,53,53,-26,-26,53,-29,-39,-39,-58,-68,-68
-9,48,58,-19,-34,53,-29,-39,-39,-58,-68,-68
0,58,58,-29,-29,58,-24,-24,-29,-53,-68,-68
0,58,58,-29,-29,58,-19,-19,-29,-48,-68,-68
0,58,58,-29,-29,58,-14,-14,-29,-43,-68,-68
0,58,58,-29,-29,58,-9,-9,-29,-39,-68,-68
-14,48,63,-17,-39,56,-9,-19,-19,-39,-58,-58
-19,48,68,-14,-43,58,-9,-19,-19,-39,-58,-58
-24,48,73,-12,-48,61,-9,-19,-19,-39,-58,-58
-29,48,78,-9,-53,63,-9,-19,-19,-39,-58,-58
-39,58,97,-9,-68,78,-4,-14,-9,-24,-53,-53
-39,58,97,-9,-68,78,0,-9,-9,-19,-48,-48
-39,58,97,-9,-68,78,4,-4,-9,-14,-43,-43
-39,58,97,-9,-68,78,9,0,-9,-9,-39,-39
-24,48,73,-12,-48,61,0,-4,-19,-24,-43,-43
-19,48,68,-14,-43,58,0,-9,-19,-29,-48,-48
-14,48,63,-17,-39,56,0,-14,-19,-34,-53,-53
-9,48,58,-19,-34,53,0,-19,-19,-39,-58,-58
-4,58,63,-26,-34,61,-9,-19,-24,-43,-63,-63
0,58,58,-29,-29,58,-9,-19,-29,-48,-68,-68
4,58,53,-31,-24,56,-9,-19,-34,-53,-73,-73
9,58,48,-34,-19,53,-9,-19,-39,-58,-78,-78
-4,39,43,-17,-24,41,-19,-34,-48,-68,-78,-78
-9,29,39,-9,-24,34,-19,-39,-48,-68,-78,-78
-14,19,34,-2,-24,26,-19,-43,-48,-68,-78,-78
-19,9,29,4,-24,19,-19,-48,-48,-68,-78,-78
-9,24,34,-7,-21,29,-9,-48,-48,-68,-82,-87
-9,29,39,-9,-24,34,-9,-48,-48,-68,-87,-87
-9,34,43,-12,-26,39,-9,-48,-48,-68,-92,-87
-9,39,48,-14,-29,43,-9,-48,-48,-68,-97,-87
0,43,43,-21,-21,43,-19,-48,-58,-68,-87,-87
0,48,48,-24,-24,48,-19,-48,-58,-68,-87,-87
0,53,53,-26,-26,53,-19,-48,-58,-68,-87,-87
0,58,58,-29,-29,58,-19,-48,-58,-68,-87,-87
9,39,29,-24,-9,34,-24,-58,-68,-78,-92,-97
9,29,19,-19,-4,24,-29,-58,-68,-78,-97,-97
9,19,9,-14,0,14,-34,-58,-68,-78,-102,-97
9,9,0,-9,4,4,-39,-58,-68,-78,-107,-97
0,19,19,-9,-9,19,-39,-58,-68,-78,-102,-92
0,19,19,-9,-9,19,-39,-58,-68,-78,-97,-87
0,19,19,-9,-9,19,-39,-58,-68,-78,-92,-82
0,19,19,-9,-9,19,-39,-58,-68,-78,-87,-78
0,4,4,-2,-2,4,-29,-48,-58,-78,-97,-78
0,0,0,0,0,0,-29,-48,-58,-78,-97,-78
0,-4,-4,2,2,-4,-29,-48,-58,-78,-97,-78
0,-9,-9,4,4,-9,-29,-48,-58,-78,-97,-78
9,9,0,-9,4,4,-29,-34,-53,-68,-92,-78
19,19,0,-19,9,9,-29,-29,-48,-68,-87,-78
29,29,0,-29,14,14,-29,-24,-43,-68,-82,-78
39,39,0,-39,19,19,-29,-19,-39,-68,-78,-78
53,39,-14,-46,34,12,-19,-9,-34,-63,-73,-73
58,39,-19,-48,39,9,-19,-9,-29,-58,-68,-68
63,39,-24,-51,43,7,-19,-9,-24,-53,-63,-63
68,39,-29,-53,48,4,-19,-9,-19,-48,-58,-58
53,48,-4,-51,29,21,-29,-19,-29,-39,-68,-58
48,48,0,-48,24,24,-29,-19,-29,-39,-68,-58
43,48,4,-46,19,26,-29,-19,-29,-39,-68,-58
39,48,9,-43,14,29,-29,-19,-29,-39,-68,-58
29,48,19,-39,4,34,-39,-24,-29,-48,-68,-58
29,48,19,-39,4,34,-39,-29,-29,-48,-68,-58
29,48,19,-39,4,34,-39,-34,-29,-48,-68,-58
29,48,19,-39,4,34,-39,-39,-29,-48,-68,-58
19,48,29,-34,-4,39,-48,-43,-43,-58,-78,-68
19,48,29,-34,-4,39,-48,-48,-48,-58,-78,-68
19,48,29,-34,-4,39,-48,-53,-53,-58,-78,-68
19,48,29,-34,-4,39,-48,-58,-58,-58,-78,-68
29,63,34,-46,-2,48,-43,-53,-43,-53,-73,-58
39,78,39,-58,0,58,-39,-48,-39,-48,-68,-58
48,92,43,-70,2,68,-34,-43,-34,-43,-63,-58
58,107,48,-82,4,78,-29,-39,-29,-39,-58,-58
53,97,43,-75,4,70,-19,-29,-29,-39,-58,-58
48,97,48,-73,0,73,-19,-29,-29,-39,-58,-58
43,97,53,-70,-4,75,-19,-29,-29,-39,-58,-58
39,97,58,-68,-9,78,-19,-29,-29,-39,-58,-58
29,97,68,-63,-19,82,-19,-39,-39,-39,-68,-63
19,97,78,-58,-29,87,-19,-39,-39,-39,-68,-68
9,97,87,-53,-39,92,-19,-39,-39,-39,-68,-73
0,97,97,-48,-48,97,-19,-39,-39,-39,-68,-78
14,107,92,-61,-39,100,-19,-48,-43,-48,-78,-68
29,107,78,-68,-24,92,-9,-48,-48,-48,-78,-68
43,107,63,-75,-9,85,-19,-48,-48,-48,-73,-68
53,97,43,-75,4,70,-24,-48,-53,-43,-73,-68
19,82,63,-51,-21,73,-34,-48,-63,-53,-82,-73
19,82,63,-51,-21,73,-34,-53,-68,-58,-87,-87
14,82,68,-48,-26,75,-34,-53,-68,-63,-92,-92
-19,58,78,-19,-48,68,-34,-48,-68,-63,-92,-97
-19,63,82,-21,-51,73,-19,-29,-53,-39,-78,-78
19,87,68,-53,-24,78,-24,-29,-53,-39,-68,-63
43,82,39,-63,2,61,-19,-34,-53,-39,-63,-58
29,82,53,-56,-12,68,-14,-34,-53,-39,-58,-53
19,82,63,-51,-21,73,-24,-43,-68,-43,-63,-68
9,73,63,-41,-26,68,-24,-53,-73,-58,-73,-73
-9,63,73,-26,-41,68,-29,-73,-82,-63,-82,-82
0,73,73,-36,-36,73,-29,-73,-87,-68,-87,-87
9,68,58,-39,-24,63,-29,-63,-87,-63,-92,-87
4,73,68,-39,-31,70,-29,-73,-87,-63,-92,-87
0,73,73,-36,-36,73,-29,-82,-87,-68,-82,-87
-29,82,112,-26,-70,97,-34,-82,-87,-68,-82,-87
-14,78,92,-31,-53,85,-29,-73,-92,-68,-92,-87
14,73,58,-43,-21,65,-24,-73,-92,-68,-92,-87
19,87,68,-53,-24,78,-14,-68,-92,-68,-87,-78
14,58,43,-36,-14,51,-9,-68,-92,-73,-87,-78
0,53,53,-26,-26,53,-9,-78,-82,-68,-97,-78
-9,48,58,-19,-34,53,-9,-73,-87,-82,-97,-87
4,39,34,-21,-14,36,-9,-68,-73,-73,-92,-87
4,58,53,-31,-24,56,-9,-58,-68,-63,-78,-78
0,29,29,-14,-14,29,-9,-68,-78,-63,-73,-73
-4,29,34,-12,-19,31,-9,-68,-78,-63,-73,-73
-19,19,39,0,-29,29,-14,-73,-82,-68,-82,-78
-14,19,34,-2,-24,26,-19,-78,-82,-73,-87,-87
39,43,4,-41,17,24,-9,-73,-87,-68,-82,-78
48,39,-9,-43,29,14,-9,-68,-82,-68,-82,-78
9,39,29,-24,-9,34,-9,-63,-73,-63,-78,-73
-9,43,53,-17,-31,48,-4,-48,-63,-58,-73,-73
-19,53,73,-17,-46,63,-4,-48,-63,-48,-73,-73
-14,34,48,-9,-31,41,-9,-53,-63,-48,-82,-78
-9,34,43,-12,-26,39,-9,-53,-73,-53,-82,-78
-9,43,53,-17,-31,48,-4,-53,-63,-53,-78,-78
4,68,63,-36,-29,65,4,-43,-63,-43,-68,-78
9,68,58,-39,-24,63,-4,-43,-63,-43,-68,-78
9,58,48,-34,-19,53,-4,-43,-63,-43,-68,-78
14,68,53,-41,-19,61,-4,-39,-63,-43,-68,-73
29,73,43,-51,-7,58,-9,-53,-68,-48,-73,-78
39,43,4,-41,17,24,-14,-58,-73,-53,-78,-82
4,29,24,-17,-9,26,-19,-63,-78,-63,-82,-92
-4,0,4,2,-4,2,-24,-68,-82,-68,-92,-97
-24,-9,14,17,-19,2,-29,-73,-82,-78,-97,-97
-34,-9,24,21,-29,7,-34,-68,-82,-78,-97,-92
-43,0,43,21,-43,21,-39,-48,-68,-68,-92,-78
-43,14,58,14,-51,36,-29,-43,-68,-68,-82,-73
-34,14,48,9,-41,31,-63,-48,-82,-73,-92,-73
-9,0,9,4,-9,4,-78,-48,-82,-73,-92,-73
14,9,-4,-12,9,2,-87,-48,-82,-73,-92,-73
39,24,-14,-31,26,4,-97,-48,-82,-73,-92,-73
29,24,-4,-26,17,9,-117,-68,-92,-82,-107,-92
39,19,-19,-29,29,0,-126,-73,-97,-92,-112,-102
34,19,-14,-26,24,2,-136,-78,-102,-97,-107,-107
24,14,-9,-19,17,2,-146,-82,-102,-107,-112,-117
24,34,9,-29,7,21,-131,-63,-92,-92,-102,-107
24,48,24,-36,0,36,-117,-48,-78,-78,-92,-87
14,58,43,-36,-14,51,-107,-43,-73,-73,-78,-78
29,68,39,-48,-4,53,-102,-39,-68,-68,-82,-68
9,53,43,-31,-17,48,-102,-58,-87,-78,-97,-73
0,43,43,-21,-21,43,-102,-63,-87,-87,-97,-82
-19,24,43,-2,-31,34,-107,-68,-87,-78,-97,-87
-29,29,58,0,-43,43,-117,-73,-82,-73,-97,-92
0,43,43,-21,-21,43,-126,-82,-92,-78,-87,-87
0,53,53,-26,-26,53,-126,-82,-87,-78,-87,-87
-9,53,63,-21,-36,58,-112,-82,-87,-73,-82,-87
-19,58,78,-19,-48,68,-112,-73,-92,-87,-82,-87
-9,63,73,-26,-41,68,-107,-82,-82,-73,-73,-78
0,82,82,-41,-41,82,-112,-82,-78,-68,-73,-78
0,92,92,-46,-46,92,-107,-87,-78,-63,-73,-78
4,102,97,-53,-46,100,-102,-87,-92,-68,-87,-82
-43,43,87,0,-65,65,-122,-126,-117,-82,-102,-87
58,131,73,-95,-7,102,-112,-107,-107,-68,-87,-68
97,161,63,-129,17,112,-102,-87,-97,-68,-82,-68
58,126,68,-92,-4,97,-97,-87,-112,-97,-107,-87
48,131,82,-90,-17,107,-97,-102,-126,-122,-141,-107
78,151,73,-114,2,112,-87,-112,-151,-146,-161,-117
78,131,53,-104,12,92,-102,-141,-200,-209,-214,-151
68,82,14,-75,26,48,-141,-209,-297,-297,-302,-209
58,34,-24,-46,41,4,-175,-273,-380,-390,-390,-258
39,14,-24,-26,31,-4,-204,-331,-444,-453,-434,-273
29,4,-24,-17,26,-9,-244,-385,-502,-497,-453,-278
9,0,-9,-4,9,-4,-287,-453,-561,-556,-497,-287
4,-9,-14,2,9,-12,-331,-512,-610,-614,-551,-317
14,-29,-43,7,29,-36,-380,-556,-649,-649,-570,-307
14,-24,-39,4,26,-31,-434,-619,-702,-658,-566,-268
43,0,-43,-21,43,-21,-473,-668,-746,-668,-536,-219
131,9,-122,-70,126,-56,-531,-736,-785,-668,-497,-136
258,34,-224,-146,241,-95,-605,-805,-824,-649,-429,-39
322,63,-258,-192,290,-97,-663,-849,-854,-610,-346,68
331,63,-268,-197,300,-102,-741,-902,-932,-614,-287,151
414,92,-322,-253,368,-114,-829,-995,-1044,-668,-292,209
531,185,-346,-358,439,-80,-883,-1073,-1156,-746,-322,244
551,190,-361,-370,456,-85,-932,-1161,-1342,-927,-453,209
546,131,-414,-339,480,-141,-1024,-1268,-1605,-1249,-692,68
600,131,-468,-366,534,-168,-1102,-1405,-1864,-1546,-907,-24
688,156,-531,-422,610,-187,-1151,-1512,-2064,-1747,-1015,-34
727,146,-580,-436,653,-217,-1151,-1551,-2176,-1844,-1054,-9
766,195,-570,-480,668,-187,-1122,-1503,-2137,-1815,-990,82
775,341,-434,-558,605,-46,-1039,-1415,-1991,-1654,-810,268
697,502,-195,-600,446,153,-912,-1322,-1830,-1429,-546,507
634,624,-9,-629,322,307,-810,-1254,-1644,-1161,-244,775
595,668,73,-631,261,370,-756,-1249,-1507,-922,19,990
536,678,141,-607,197,409,-707,-1229,-1429,-775,190,1141
478,683,204,-580,136,444,-653,-1156,-1356,-717,307,1254
409,663,253,-536,78,458,-614,-1073,-1317,-697,370,1312
361,590,229,-475,65,409,-561,-990,-1249,-688,395,1268
331,531,200,-431,65,366,-512,-922,-1161,-614,419,1190
302,463,161,-383,70,312,-478,-839,-1054,-512,453,1098
283,395,112,-339,85,253,-439,-746,-922,-380,512,971
234,317,82,-275,75,200,-346,-619,-761,-268,507,775
136,229,92,-183,21,161,-200,-453,-595,-200,434,522
9,117,107,-63,-48,112,-92,-312,-478,-141,366,322
-39,48,87,-4,-63,68,-68,-244,-439,-131,322,234
-29,58,87,-14,-58,73,-68,-204,-405,-117,297,209
-9,78,87,-34,-48,82,-53,-122,-302,-63,278,165
-29,29,58,0,-43,43,-43,-48,-190,-4,248,107
-68,-24,43,46,-56,9,-63,-34,-136,24,219,82
-63,0,63,31,-63,31,-68,-19,-87,58,214,97
-24,48,73,-12,-48,61,-43,29,-14,126,239,122
-9,39,48,-14,-29,43,-24,92,82,200,273,131
-19,4,24,7,-21,14,-4,141,151,258,312,136
0,9,9,-4,-4,9,4,161,180,248,292,122
14,48,34,-31,-9,41,14,165,190,258,297,122
39,73,34,-56,2,53,24,161,195,263,287,122
53,78,24,-65,14,51,34,165,195,268,278,126
48,97,48,-73,0,73,43,170,200,253,248,117
43,87,43,-65,0,65,43,170,200,248,224,102
34,122,87,-78,-26,104,48,175,204,253,214,97
29,151,122,-90,-46,136,58,175,209,253,209,97
9,131,122,-70,-56,126,53,165,209,239,204,92
0,122,122,-61,-61,122,43,156,209,229,195,87
-9,112,122,-51,-65,117,24,141,200,209,175,73
-19,112,131,-46,-75,122,14,117,180,204,170,63
9,126,117,-68,-53,122,4,122,180,204,156,53
19,136,117,-78,-48,126,4,126,185,209,161,63
19,146,126,-82,-53,136,4,131,190,214,161,68
19,156,136,-87,-58,146,4,126,195,209,161,68
19,141,122,-80,-51,131,-4,117,190,214,151,63
24,141,117,-82,-46,129,-9,117,200,214,151,63
14,136,122,-75,-53,129,-14,117,185,209,151,58
34,136,102,-85,-34,119,-19,117,180,204,151,53
48,151,102,-100,-26,126,-24,112,180,204,151,43
53,151,97,-102,-21,124,-29,117,180,204,156,53
58,141,82,-100,-12,112,-34,107,185,200,151,53
58,136,78,-97,-9,107,-34,92,195,200,146,53
53,146,92,-100,-19,119,-43,97,195,214,156,63
48,156,107,-102,-29,131,-39,102,195,219,161,68
29,156,126,-92,-48,141,-39,107,200,224,165,68
14,156,141,-85,-63,148,-39,112,200,224,175,78
19,161,141,-90,-61,151,-48,97,190,219,175,73
24,165,141,-95,-58,153,-53,102,195,219,170,68
-4,156,161,-75,-82,158,-58,97,195,219,175,58
-9,126,136,-58,-73,131,-68,92,200,219,180,53
-14,146,161,-65,-87,153,-63,102,214,234,195,68
-24,146,170,-61,-97,158,-53,107,224,248,200,78
-39,146,185,-53,-112,165,-39,112,229,263,200,82
-48,151,200,-51,-124,175,-19,117,234,273,209,97
-24,190,214,-82,-119,202,-9,126,244,283,224,102
4,209,204,-107,-100,207,-9,126,248,292,234,107
29,229,200,-129,-85,214,-9,131,263,302,239,112
48,244,195,-146,-73,219,-9,141,283,307,248,112
53,239,185,-146,-65,212,-19,131,283,312,244,107
43,234,190,-139,-73,212,-9,131,278,312,244,107
43,229,185,-136,-70,207,-9,131,283,312,244,112
58,224,165,-141,-53,195,-24,131,278,312,239,112
58,229,170,-143,-56,200,-9,141,273,322,244,126
58,234,175,-146,-58,204,0,141,287,331,253,131
58,234,175,-146,-58,204,4,141,292,336,258,131
34,239,204,-136,-85,222,9,141,297,346,273,131
29,224,195,-126,-82,209,9,146,302,351,268,136
43,224,180,-134,-68,202,19,161,322,356,283,141
48,229,180,-139,-65,204,19,161,317,361,278,141
14,204,190,-109,-87,197,19,161,312,356,273,136
-14,185,200,-85,-107,192,9,161,322,356,273,146
0,200,200,-100,-100,200,14,161,322,366,278,146
19,200,180,-109,-80,190,14,161,336,370,287,146
14,200,185,-107,-85,192,9,175,341,375,287,151
0,204,204,-102,-102,204,14,185,356,390,307,161
14,204,190,-109,-87,197,24,195,361,395,312,161
19,204,185,-112,-82,195,29,200,370,400,317,165
9,209,200,-109,-95,204,43,204,380,409,317,180
9,214,204,-112,-97,209,48,224,405,429,346,200
19,214,195,-117,-87,204,53,239,405,434,351,200
34,209,175,-122,-70,192,43,224,405,434,351,190
63,214,151,-139,-43,183,48,239,405,439,356,180
53,214,161,-134,-53,187,43,234,419,439,366,185
58,224,165,-141,-53,195,53,248,424,453,366,195
78,244,165,-161,-43,204,58,258,439,463,375,200
68,239,170,-153,-51,204,63,258,444,478,370,209
43,224,180,-134,-68,202,73,268,448,468,375,200
4,219,214,-112,-104,217,73,268,453,468,375,200
19,229,209,-124,-95,219,73,273,458,483,385,204
34,224,190,-129,-78,207,73,278,468,497,400,209
34,229,195,-131,-80,212,63,273,468,488,395,209
43,229,185,-136,-70,207,73,287,483,502,405,209
43,234,190,-139,-73,212,73,292,483,512,405,219
58,234,175,-146,-58,204,73,292,492,517,400,219
39,224,185,-131,-73,204,63,292,483,512,405,214
39,229,190,-134,-75,209,63,292,483,522,409,214
29,219,190,-124,-80,204,53,287,492,522,409,214
0,190,190,-95,-95,190,53,297,507,531,419,219
9,214,204,-112,-97,209,63,317,522,546,424,229
43,253,209,-148,-82,231,78,336,541,566,444,244
63,263,200,-163,-68,231,78,341,551,570,444,244
78,263,185,-170,-53,224,78,351,556,570,429,234
63,283,219,-173,-78,251,97,366,575,600,444,253
63,302,239,-183,-87,270,107,385,595,610,468,263
58,302,244,-180,-92,273,107,390,605,624,478,273
53,322,268,-187,-107,295,102,390,614,634,497,273
48,307,258,-178,-104,283,102,400,624,639,492,283
48,297,248,-173,-100,273,102,400,639,649,492,287
58,297,239,-178,-90,268,107,405,644,653,492,287
58,302,244,-180,-92,273,107,405,653,653,492,287
48,302,253,-175,-102,278,102,419,658,658,497,287
34,302,268,-168,-117,285,102,429,663,663,502,287
29,302,273,-165,-122,287,102,429,663,663,502,283
29,302,273,-165,-122,287,102,424,663,658,502,278
14,283,268,-148,-126,275,97,434,663,658,497,273
9,297,287,-153,-139,292,97,434,673,668,497,273
9,297,287,-153,-139,292,107,444,683,668,497,273
14,297,283,-156,-134,290,107,444,683,668,497,273
29,307,278,-168,-124,292,117,448,692,673,492,263
34,317,283,-175,-124,300,122,453,692,668,483,263
48,322,273,-185,-112,297,122,468,683,663,483,263
78,331,253,-204,-87,292,117,458,678,668,488,258
53,326,273,-190,-109,300,107,468,688,678,492,248
63,322,258,-192,-97,290,97,468,683,663,483,253
53,317,263,-185,-104,290,92,458,678,653,473,244
43,312,268,-178,-112,290,92,458,673,639,458,239
19,307,287,-163,-134,297,78,458,644,614,448,229
4,292,287,-148,-141,290,78,439,634,600,439,209
9,287,278,-148,-134,283,78,424,619,580,405,204
4,273,268,-139,-131,270,78,419,610,566,380,200
9,292,283,-151,-136,287,78,419,600,566,375,185
9,302,292,-156,-141,297,78,400,585,546,370,175
0,302,302,-151,-151,302,73,390,566,522,356,161
0,302,302,-151,-151,302,78,370,546,497,336,151
14,317,302,-165,-143,309,82,370,536,492,331,165
24,317,292,-170,-134,305,82,356,527,468,307,151
39,322,283,-180,-122,302,78,336,488,439,283,126
48,341,292,-195,-122,317,68,322,463,419,263,112
34,322,287,-178,-126,305,73,297,429,390,248,92
24,297,273,-161,-124,285,63,283,395,356,229,82
24,287,263,-156,-119,275,58,263,380,331,219,78
34,278,244,-156,-104,261,53,253,366,307,200,58
39,258,219,-148,-90,239,53,239,326,268,165,43
19,239,219,-129,-100,229,43,214,287,234,136,29
24,219,195,-122,-85,207,34,190,253,200,102,14
43,214,170,-129,-63,192,19,170,224,165,63,4
53,224,170,-139,-58,197,24,161,204,141,48,4
48,209,161,-129,-56,185,29,146,180,126,34,-4
39,204,165,-122,-63,185,29,141,161,102,24,-14
48,185,136,-117,-43,161,29,131,151,87,14,-14
39,161,122,-100,-41,141,19,122,131,58,-9,-29
39,151,112,-95,-36,131,19,107,112,43,-24,-43
34,151,117,-92,-41,134,14,92,87,14,-39,-48
19,122,102,-70,-41,112,9,78,68,0,-48,-53
29,131,102,-80,-36,117,14,63,43,-9,-73,-63
39,146,107,-92,-34,126,14,58,39,-14,-63,-53
48,161,112,-104,-31,136,9,58,34,-19,-53,-53
34,146,112,-90,-39,129,9,53,19,-34,-68,-53
24,136,112,-80,-43,124,14,39,0,-34,-68,-53
29,146,117,-87,-43,131,14,34,0,-43,-73,-53
34,146,112,-90,-39,129,19,29,-4,-48,-73,-53
24,122,97,-73,-36,109,19,24,-19,-48,-73,-53
24,117,92,-70,-34,104,14,14,-29,-53,-73,-63
43,136,92,-90,-24,114,14,9,-29,-58,-73,-58
73,165,92,-119,-9,129,14,4,-34,-63,-78,-53
92,165,73,-129,9,119,19,-4,-39,-68,-82,-53
73,146,73,-109,0,109,14,-14,-53,-73,-92,-58
53,126,73,-90,-9,100,9,-14,-48,-78,-92,-63
34,107,73,-70,-19,90,4,-19,-63,-82,-92,-73
19,82,63,-51,-21,73,-4,-24,-78,-87,-92,-78
14,92,78,-53,-31,85,-4,-14,-63,-82,-82,-63
24,87,63,-56,-19,75,0,-14,-58,-78,-78,-63
24,78,53,-51,-14,65,0,-14,-58,-82,-78,-63
4,63,58,-34,-26,61,4,-14,-53,-78,-78,-63
9,73,63,-41,-26,68,4,-9,-58,-73,-78,-73
9,82,73,-46,-31,78,9,-4,-53,-63,-68,-63
14,82,68,-48,-26,75,9,-4,-53,-63,-68,-63
14,78,63,-46,-24,70,0,-9,-63,-73,-78,-73
19,82,63,-51,-21,73,14,-4,-58,-63,-68,-68
29,97,68,-63,-19,82,24,9,-43,-53,-53,-53
34,102,68,-68,-17,85,29,14,-39,-53,-53,-48
43,107,63,-75,-9,85,39,19,-29,-53,-53,-43
43,87,43,-65,0,65,34,19,-34,-58,-58,-43
43,82,39,-63,2,61,29,14,-34,-58,-58,-48
53,78,24,-65,14,51,24,9,-39,-63,-63,-53
53,82,29,-68,12,56,19,4,-43,-58,-68,-58
19,82,63,-51,-21,73,19,14,-39,-53,-58,-58
14,82,68,-48,-26,75,14,14,-34,-53,-53,-53
24,82,58,-53,-17,70,14,14,-29,-53,-53,-53
29,82,53,-56,-12,68,9,9,-24,-63,-48,-53
0,68,68,-34,-34,68,9,9,-29,-73,-53,-48
-4,63,68,-29,-36,65,9,24,-24,-58,-53,-53
0,63,63,-31,-31,63,14,24,-24,-48,-53,-58
-14,58,73,-21,-43,65,14,24,-29,-48,-58,-63
-24,68,92,-21,-58,80,19,29,-14,-43,-53,-58
-4,92,97,-43,-51,95,19,39,-9,-39,-48,-48
9,107,97,-58,-43,102,14,43,-9,-34,-43,-39
19,117,97,-68,-39,107,14,39,-4,-29,-39,-29
34,122,87,-78,-26,104,9,48,0,-29,-34,-29
43,122,78,-82,-17,100,9,48,-9,-29,-34,-34
48,117,68,-82,-9,92,9,48,-14,-29,-34,-39
53,112,58,-82,-2,85,14,48,-14,-29,-34,-43
24,102,78,-63,-26,90,14,63,-9,-24,-24,-39
-4,102,107,-48,-56,104,19,63,-4,-19,-24,-29
-24,97,122,-36,-73,109,19,63,-4,-19,-29,-24
-39,82,122,-21,-80,102,9,48,-4,-19,-39,-29
-29,82,112,-26,-70,97,0,43,-19,-34,-48,-34
-9,102,112,-46,-61,107,-4,43,-19,-34,-43,-34
19,117,97,-68,-39,107,-4,39,-24,-39,-39,-39
39,117,78,-78,-19,97,-14,34,-24,-43,-39,-43
34,122,87,-78,-26,104,-4,39,-19,-39,-24,-48
9,117,107,-63,-48,112,0,48,-9,-24,-19,-34
-4,117,122,-56,-63,119,4,48,-4,-19,-19,-29
-19,117,136,-48,-78,126,4,48,0,-14,-19,-24
-14,126,141,-56,-78,134,9,39,0,-4,-9,-34
14,146,131,-80,-58,139,9,34,-4,-4,-14,-43
39,161,122,-100,-41,141,14,34,-4,-4,-14,-53
43,170,126,-107,-41,148,24,34,0,-4,-14,-63
34,161,126,-97,-46,143,24,34,0,-14,-24,-73
34,156,122,-95,-43,139,24,29,-4,-19,-29,-78
34,151,117,-92,-41,134,24,34,-9,-24,-34,-82
24,141,117,-82,-46,129,19,29,-9,-24,-34,-87
14,136,122,-75,-53,129,19,19,-19,-24,-34,-87
-14,126,141,-56,-78,134,14,9,-24,-34,-43,-97
-24,112,136,-43,-80,124,0,0,-34,-34,-53,-112
-34,112,146,-39,-90,129,9,0,-34,-34,-53,-112
-9,146,156,-68,-82,151,19,14,-19,-24,-43,-97
4,156,151,-80,-73,153,24,14,-14,-19,-34,-92
34,161,126,-97,-46,143,29,14,-14,-14,-24,-87
43,170,126,-107,-41,148,29,19,-14,-9,-19,-78
43,165,122,-104,-39,143,34,9,-4,-9,-19,-58
34,151,117,-92,-41,134,34,4,-9,-9,-19,-73
19,136,117,-78,-48,126,39,4,-14,-24,-29,-78
19,131,112,-75,-46,122,43,4,-14,-24,-29,-78
9,141,131,-75,-61,136,43,4,-24,-24,-34,-78
14,141,126,-78,-56,134,43,0,-24,-34,-34,-78
-9,126,136,-58,-73,131,34,-4,-24,-39,-48,-82
-39,126,165,-43,-102,146,34,-4,-29,-39,-48,-82
-39,117,156,-39,-97,136,39,-9,-34,-43,-53,-97
-34,122,156,-43,-95,139,43,-9,-34,-39,-53,-97
-29,122,151,-46,-90,136,48,-4,-39,-39,-58,-102
-9,117,126,-53,-68,122,48,-4,-43,-48,-68,-107
-9,107,117,-48,-63,112,39,-4,-43,-48,-58,-117
-14,117,131,-51,-73,124,39,-4,-43,-48,-58,-112
29,141,112,-85,-41,126,53,4,-34,-39,-53,-97
43,156,112,-100,-34,134,53,9,-34,-39,-48,-92
14,141,126,-78,-56,134,53,19,-34,-29,-39,-87
-4,136,141,-65,-73,139,58,19,-29,-29,-48,-87
-24,131,156,-53,-90,143,63,19,-29,-34,-53,-92
-48,122,170,-36,-109,146,63,14,-29,-34,-58,-92
-29,131,161,-51,-95,146,63,14,-29,-39,-58,-102
-19,126,146,-53,-82,136,63,14,-29,-39,-48,-102
-9,126,136,-58,-73,131,78,14,-29,-48,-58,-102
0,126,126,-63,-63,126,78,14,-19,-48,-58,-97
-14,131,146,-58,-80,139,68,29,-29,-39,-58,-107
0,131,131,-65,-65,131,68,29,-29,-43,-63,-112
-34,97,131,-31,-82,114,68,29,-39,-53,-68,-112
-78,73,151,2,-114,112,68,29,-39,-58,-73,-112
-68,87,156,-9,-112,122,87,34,-29,-58,-73,-112
-34,97,131,-31,-82,114,87,34,-29,-63,-73,-117
-19,82,102,-31,-61,92,78,29,-39,-68,-87,-122
-9,82,92,-36,-51,87,78,24,-43,-73,-92,-122
-29,53,82,-12,-56,68,63,24,-58,-87,-102,-126
-53,34,87,9,-70,61,63,24,-58,-92,-102,-131
-68,34,102,17,-85,68,73,34,-53,-92,-97,-131
-73,34,107,19,-90,70,73,34,-48,-87,-97,-136
-43,19,63,12,-53,41,63,29,-58,-112,-102,-156
-29,19,48,4,-39,34,63,14,-73,-117,-117,-156
-19,24,43,-2,-31,34,63,24,-73,-117,-122,-156
-24,29,53,-2,-39,41,63,24,-63,-112,-122,-151
-34,34,68,0,-51,51,63,29,-58,-97,-117,-141
-24,39,63,-7,-43,51,58,29,-58,-102,-112,-141
-24,34,58,-4,-41,46,53,34,-58,-97,-117,-156
-53,24,78,14,-65,51,48,39,-53,-92,-112,-156
-39,9,48,14,-43,29,43,48,-48,-87,-97,-141
-14,34,48,-9,-31,41,53,58,-34,-87,-92,-141
-19,29,48,-4,-34,39,53,58,-29,-87,-92,-141
-34,9,43,12,-39,26,48,53,-34,-92,-102,-146
-29,24,53,2,-41,39,39,48,-39,-87,-107,-141
-24,24,48,0,-36,36,24,48,-39,-92,-107,-141
-19,48,68,-14,-43,58,34,48,-39,-92,-107,-141
-19,58,78,-19,-48,68,43,48,-39,-87,-107,-136
-53,34,87,9,-70,61,34,48,-43,-87,-117,-146
-73,14,87,29,-80,51,24,43,-43,-87,-117,-151
-82,4,87,39,-85,46,24,43,-43,-87,-117,-151
-73,14,87,29,-80,51,24,43,-43,-87,-112,-146
-43,34,78,4,-61,56,19,29,-39,-78,-97,-141
-29,53,82,-12,-56,68,19,29,-43,-82,-102,-141
-34,68,102,-17,-68,85,19,29,-43,-82,-97,-136
-9,82,92,-36,-51,87,19,29,-39,-82,-87,-131
9,68,58,-39,-24,63,4,14,-53,-87,-92,-141
4,63,58,-34,-26,61,4,4,-58,-92,-102,-136
-29,53,82,-12,-56,68,4,0,-68,-102,-112,-141
-63,39,102,12,-82,70,4,-4,-78,-112,-122,-146
-68,43,112,12,-90,78,4,-4,-73,-102,-117,-146
-48,48,97,0,-73,73,14,-4,-73,-92,-112,-141
-29,53,82,-12,-56,68,14,-9,-73,-102,-107,-146
-9,48,58,-19,-34,53,9,-14,-82,-112,-117,-146
-14,58,73,-21,-43,65,19,-9,-78,-107,-107,-141
-29,58,87,-14,-58,73,24,-4,-63,-107,-102,-136
-34,48,82,-7,-58,65,24,0,-68,-102,-97,-131
-29,63,92,-17,-61,78,29,4,-63,-92,-92,-126
14,82,68,-48,-26,75,24,-4,-63,-92,-92,-126
-9,63,73,-26,-41,68,29,0,-58,-82,-92,-122
-53,53,107,0,-80,80,24,0,-53,-78,-92,-117
-43,63,107,-9,-75,85,19,4,-53,-78,-87,-117
-43,58,102,-7,-73,80,29,4,-53,-82,-87,-126
-43,39,82,2,-63,61,24,4,-53,-82,-87,-126
-29,43,73,-7,-51,58,24,4,-48,-82,-87,-117
-29,39,68,-4,-48,53,24,9,-48,-78,-92,-112
-48,29,78,9,-63,53,19,19,-43,-73,-82,-117
-48,39,87,4,-68,63,19,9,-48,-68,-82,-117
-43,39,82,2,-63,61,24,9,-48,-68,-87,-122
-43,53,97,-4,-70,75,39,14,-43,-68,-87,-122
-14,78,92,-31,-53,85,34,14,-43,-63,-87,-126
-19,48,68,-14,-43,58,34,14,-53,-78,-87,-131
-14,48,63,-17,-39,56,39,9,-53,-78,-92,-131
-4,58,63,-26,-34,61,48,4,-48,-78,-92,-126
-29,73,102,-21,-65,87,39,-4,-58,-78,-92,-131
-53,48,102,2,-78,75,34,0,-58,-78,-92,-131
-73,24,97,24,-85,61,29,4,-58,-78,-92,-131
-87,39,126,24,-107,82,29,4,-58,-82,-97,-136
-43,73,117,-14,-80,95,39,14,-43,-78,-97,-122
-4,102,107,-48,-56,104,48,19,-39,-73,-92,-117
0,107,107,-53,-53,107,58,24,-39,-73,-87,-117
-4,92,97,-43,-51,95,68,19,-48,-73,-87,-122
-19,82,102,-31,-61,92,68,9,-48,-78,-102,-131
-34,87,122,-26,-78,104,68,9,-48,-82,-102,-131
-39,87,126,-24,-82,107,58,9,-48,-82,-102,-131
-39,82,122,-21,-80,102,68,14,-43,-73,-97,-126
-29,78,107,-24,-68,92,78,24,-43,-73,-97,-117
-34,73,107,-19,-70,90,73,19,-48,-78,-102,-126
-43,63,107,-9,-75,85,73,19,-48,-87,-107,-126
-43,58,102,-7,-73,80,73,14,-48,-87,-107,-126
-34,73,107,-19,-70,90,82,14,-39,-92,-97,-131
-19,87,107,-34,-63,97,82,19,-39,-92,-97,-131
-39,73,112,-17,-75,92,87,24,-39,-82,-92,-126
-43,68,112,-12,-78,90,87,29,-34,-82,-87,-122
-48,53,102,-2,-75,78,102,34,-34,-73,-87,-112
-73,48,122,12,-97,85,107,39,-34,-73,-87,-117
-58,43,102,7,-80,73,112,39,-34,-78,-87,-117
-73,39,112,17,-92,75,117,43,-34,-78,-92,-117
-73,43,117,14,-95,80,122,48,-34,-73,-97,-126
-48,63,112,-7,-80,87,126,48,-29,-73,-97,-126
-24,73,97,-24,-61,85,126,43,-29,-73,-97,-126
0,78,78,-39,-39,78,126,43,-29,-68,-97,-131
-14,82,97,-34,-56,90,117,39,-39,-78,-107,-131
-29,68,97,-19,-63,82,107,34,-43,-87,-112,-136
-53,48,102,2,-78,75,102,19,-48,-87,-112,-136
-29,73,102,-21,-65,87,102,14,-48,-82,-102,-131
-29,107,136,-39,-82,122,102,34,-34,-58,-82,-107
-43,82,126,-19,-85,104,78,24,-43,-87,-102,-122
-78,34,112,21,-95,73,58,-4,-73,-107,-122,-141
-78,68,146,4,-112,107,48,-9,-68,-97,-107,-126
-78,58,136,9,-107,97,39,-19,-68,-97,-107,-126
-78,58,136,9,-107,97,39,-19,-68,-97,-107,-126
-78,58,136,9,-107,97,39,-19,-68,-97,-107,-126
-78,58,136,9,-107,97,39,-19,-68,-97,-107,-126
-73,48,122,12,-97,85,29,-29,-78,-112,-122,-131
-68,39,107,14,-87,73,19,-29,-87,-117,-126,-136
-63,29,92,17,-78,61,9,-29,-97,-122,-131,-141
-58,19,78,19,-68,48,0,-29,-107,-126,-136,-146
-48,24,73,12,-61,48,-9,-19,-102,-122,-126,-146
-39,29,68,4,-53,48,-9,-19,-97,-117,-126,-146
-29,34,63,-2,-46,48,-9,-19,-92,-112,-126,-146
-19,39,58,-9,-39,48,-9,-19,-87,-107,-126,-146
-9,34,43,-12,-26,39,0,-4,-82,-97,-117,-141
-9,29,39,-9,-24,34,0,0,-78,-97,-117,-136
-9,24,34,-7,-21,29,0,4,-73,-97,-117,-131
-9,19,29,-4,-19,24,0,9,-68,-97,-117,-126
-9,24,34,-7,-21,29,0,4,-68,-97,-117,-126
-9,29,39,-9,-24,34,0,0,-68,-97,-117,-126
-9,34,43,-12,-26,39,0,-4,-68,-97,-117,-126
-9,39,48,-14,-29,43,0,-9,-68,-97,-117,-126
-14,48,63,-17,-39,56,9,-4,-58,-87,-112,-117
-19,48,68,-14,-43,58,9,0,-58,-87,-107,-117
-24,48,73,-12,-48,61,9,4,-58,-87,-102,-117
-29,48,78,-9,-53,63,9,9,-58,-87,-97,-117
-39,39,78,0,-58,58,9,0,-58,-87,-97,-117
-39,29,68,4,-53,48,9,0,-58,-87,-97,-117
-39,19,58,9,-48,39,9,0,-58,-87,-97,-117
-39,9,48,14,-43,29,9,0,-58,-87,-97,-117
-39,24,63,7,-51,43,14,4,-53,-78,-97,-107
-39,29,68,4,-53,48,19,9,-48,-78,-97,-107
-39,34,73,2,-56,53,24,14,-43,-78,-97,-107
-39,39,78,0,-58,58,29,19,-39,-78,-97,-107
-29,48,78,-9,-53,63,29,19,-48,-87,-97,-117
-19,48,68,-14,-43,58,29,19,-48,-87,-97,-117
-9,48,58,-19,-34,53,29,19,-48,-87,-97,-117
0,48,48,-24,-24,48,29,19,-48,-87,-97,-117
-9,53,63,-21,-36,58,39,19,-48,-87,-107,-126
-9,58,68,-24,-39,63,39,19,-48,-87,-107,-126
-9,63,73,-26,-41,68,39,19,-48,-87,-107,-126
-9,68,78,-29,-43,73,39,19,-48,-87,-107,-126
-9,58,68,-24,-39,63,48,19,-58,-97,-112,-136
-9,48,58,-19,-34,53,48,19,-58,-97,-117,-136
-9,39,48,-14,-29,43,48,19,-58,-97,-122,-136
-9,29,39,-9,-24,34,48,19,-58,-97,-126,-136
-19,29,48,-4,-34,39,63,24,-48,-87,-117,-126
-29,29,58,0,-43,43,68,29,-48,-87,-117,-126
-39,29,68,4,-53,48,73,34,-48,-87,-117,-126
-48,29,78,9,-63,53,78,39,-48,-87,-117,-126
-43,43,87,0,-65,65,87,48,-39,-78,-112,-117
-39,48,87,-4,-63,68,97,48,-39,-78,-107,-117
-34,53,87,-9,-61,70,107,48,-39,-78,-102,-117
-29,58,87,-14,-58,73,117,48,-39,-78,-97,-117
-43,43,87,0,-65,65,107,39,-48,-87,-107,-117
-58,39,97,9,-78,68,107,39,-48,-87,-107,-117
-73,34,107,19,-90,70,107,39,-48,-87,-107,-117
-87,29,117,29,-102,73,107,39,-48,-87,-107,-117
-68,53,122,7,-95,87,117,29,-48,-82,-102,-117
-58,68,126,-4,-92,97,117,29,-48,-78,-97,-117
-48,82,131,-17,-90,107,117,29,-48,-73,-92,-117
-39,97,136,-29,-87,117,117,29,-48,-68,-87,-117
-29,112,141,-41,-85,126,117,29,-43,-58,-78,-112
-29,117,146,-43,-87,131,117,29,-39,-58,-78,-107
-29,122,151,-46,-90,136,117,29,-34,-58,-78,-102
-29,126,156,-48,-92,141,117,29,-29,-58,-78,-97
-29,107,136,-39,-82,122,97,19,-48,-68,-87,-112
-29,97,126,-34,-78,112,87,9,-58,-78,-97,-117
-29,87,117,-29,-73,102,78,0,-68,-87,-107,-122
-29,78,107,-24,-68,92,68,-9,-78,-97,-117,-126
-34,87,122,-26,-78,104,73,0,-68,-87,-117,-126
-39,87,126,-24,-82,107,78,0,-68,-87,-117,-126
-43,87,131,-21,-87,109,82,0,-68,-87,-117,-126
-48,87,136,-19,-92,112,87,0,-68,-87,-117,-126
-39,82,122,-21,-80,102,73,-9,-78,-92,-126,-136
-39,78,117,-19,-78,97,68,-9,-78,-97,-126,-136
-39,73,112,-17,-75,92,63,-9,-78,-102,-126,-136
-39,68,107,-14,-73,87,58,-9,-78,-107,-126,-136
-29,58,87,-14,-58,73,58,-9,-78,-107,-126,-136
-29,58,87,-14,-58,73,58,-9,-78,-107,-126,-136
-29,58,87,-14,-58,73,58,-9,-78,-107,-126,-136
-29,58,87,-14,-58,73,58,-9,-78,-107,-126,-136
-29,48,78,-9,-53,63,53,-9,-87,-117,-136,-136
-29,39,68,-4,-48,53,48,-9,-87,-117,-136,-136
-29,29,58,0,-43,43,43,-9,-87,-117,-136,-136
-29,19,48,4,-39,34,39,-9,-87,-117,-136,-136
-19,9,29,4,-24,19,34,-19,-87,-117,-136,-136
-19,9,29,4,-24,19,29,-19,-87,-117,-136,-136
-19,9,29,4,-24,19,24,-19,-87,-117,-136,-136
-19,9,29,4,-24,19,19,-19,-87,-117,-136,-136
-24,24,48,0,-36,36,19,-14,-78,-107,-131,-131
-29,29,58,0,-43,43,19,-9,-78,-107,-126,-126
-34,34,68,0,-51,51,19,-4,-78,-107,-122,-122
-39,39,78,0,-58,58,19,0,-78,-107,-117,-117
-39,43,82,-2,-61,63,29,9,-73,-92,-112,-112
-39,48,87,-4,-63,68,29,9,-68,-87,-107,-107
-39,53,92,-7,-65,73,29,9,-63,-82,-102,-102
-39,58,97,-9,-68,78,29,9,-58,-78,-97,-97
-19,63,82,-21,-51,73,39,19,-48,-78,-97,-107
-9,68,78,-29,-43,73,39,19,-48,-78,-97,-107
0,73,73,-36,-36,73,39,19,-48,-78,-97,-107
9,78,68,-43,-29,73,39,19,-48,-78,-97,-107
-9,53,63,-21,-36,58,39,19,-48,-87,-107,-117
-19,39,58,-9,-39,48,39,19,-48,-87,-107,-117
-29,24,53,2,-41,39,39,19,-48,-87,-107,-117
-39,9,48,14,-43,29,39,19,-48,-87,-107,-117
-39,4,43,17,-41,24,39,19,-53,-97,-117,-131
-39,0,39,19,-39,19,39,19,-58,-97,-117,-136
-39,-4,34,21,-36,14,39,19,-63,-97,-117,-141
-39,-9,29,24,-34,9,39,19,-68,-97,-117,-146
-24,0,24,12,-24,12,39,19,-68,-107,-126,-136
-9,9,19,0,-14,14,39,19,-68,-107,-126,-136
4,19,14,-12,-4,17,39,19,-68,-107,-126,-136
19,29,9,-24,4,19,39,19,-68,-107,-126,-136
9,48,39,-29,-14,43,53,34,-53,-97,-117,-126
0,58,58,-29,-29,58,58,39,-48,-87,-107,-117
-9,68,78,-29,-43,73,63,43,-43,-78,-97,-107
-19,78,97,-29,-58,87,68,48,-39,-68,-87,-97
-24,63,87,-19,-56,75,78,43,-39,-78,-97,-107
-29,58,87,-14,-58,73,78,39,-39,-78,-97,-107
-34,53,87,-9,-61,70,78,34,-39,-78,-97,-107
-39,48,87,-4,-63,68,78,29,-39,-78,-97,-107
-34,53,87,-9,-61,70,82,39,-29,-68,-92,-97
-29,58,87,-14,-58,73,87,39,-29,-68,-87,-97
-24,63,87,-19,-56,75,92,39,-29,-68,-82,-97
-19,68,87,-24,-53,78,97,39,-29,-68,-78,-97
-34,78,112,-21,-73,95,122,39,-29,-58,-87,-97
-39,78,117,-19,-78,97,117,39,-24,-58,-82,-97
-48,68,117,-9,-82,92,117,39,-24,-53,-82,-97
-68,68,136,0,-102,102,122,39,-24,-53,-82,-97
-48,82,131,-17,-90,107,117,29,-34,-68,-87,-107
-34,97,131,-31,-82,114,112,24,-39,-73,-92,-107
-48,87,136,-19,-92,112,107,24,-43,-73,-92,-107
-63,78,141,-7,-102,109,102,29,-43,-58,-82,-102
-19,87,107,-34,-63,97,82,24,-53,-73,-92,-97
0,78,78,-39,-39,78,82,14,-53,-78,-97,-102
-19,73,92,-26,-56,82,82,9,-53,-82,-102,-107
-19,73,92,-26,-56,82,82,4,-53,-87,-107,-112
-19,73,92,-26,-56,82,73,4,-63,-87,-102,-102
-39,63,102,-12,-70,82,68,-4,-68,-87,-107,-107
-29,73,102,-21,-65,87,68,4,-68,-87,-107,-107
-14,78,92,-31,-53,85,68,14,-68,-82,-112,-107
-9,82,92,-36,-51,87,78,14,-58,-82,-112,-117
-4,82,87,-39,-46,85,78,4,-58,-87,-102,-117
-24,92,117,-34,-70,104,73,4,-58,-87,-102,-117
-19,92,112,-36,-65,102,73,4,-63,-87,-102,-117
-4,87,92,-41,-48,90,63,-4,-73,-97,-107,-126
-4,102,107,-48,-56,104,68,0,-73,-97,-107,-117
-14,73,87,-29,-51,80,68,0,-73,-102,-112,-117
-29,63,92,-17,-61,78,58,-14,-78,-107,-131,-126
-43,58,102,-7,-73,80,68,-9,-82,-117,-131,-131
-34,48,82,-7,-58,65,68,-4,-68,-102,-126,-126
-39,68,107,-14,-73,87,68,4,-63,-87,-112,-112
-43,48,92,-2,-68,70,68,9,-58,-82,-102,-102
-29,58,87,-14,-58,73,68,9,-68,-87,-112,-112
-24,48,73,-12,-48,61,63,4,-73,-97,-122,-117
0,48,48,-24,-24,48,58,0,-73,-107,-126,-126
58,68,9,-63,24,39,58,0,-82,-117,-131,-126
48,53,4,-51,21,29,68,4,-68,-102,-117,-112
-9,43,53,-17,-31,48,68,9,-58,-92,-107,-102
-48,39,87,4,-68,63,73,24,-48,-82,-97,-97
-68,34,102,17,-85,68,73,29,-43,-78,-92,-92
-43,4,48,19,-46,26,58,9,-58,-92,-117,-102
-29,4,34,12,-31,19,48,4,-73,-102,-122,-107
-19,14,34,2,-26,24,43,0,-68,-107,-122,-112
-9,29,39,-9,-24,34,34,-4,-73,-112,-126,-117
-19,43,63,-12,-41,53,39,4,-58,-102,-112,-102
-24,39,63,-7,-43,51,43,14,-53,-92,-107,-97
-24,53,78,-14,-51,65,48,29,-48,-82,-102,-87
-4,82,87,-39,-46,85,63,39,-43,-73,-97,-82
14,63,48,-39,-17,56,53,29,-43,-82,-107,-87
-9,58,68,-24,-39,63,53,29,-43,-87,-107,-97
-9,39,48,-14,-29,43,53,29,-43,-87,-112,-102
-4,39,43,-17,-24,41,53,19,-53,-87,-117,-112
-14,48,63,-17,-39,56,63,29,-63,-87,-107,-112
-14,58,73,-21,-43,65,63,43,-48,-78,-102,-102
-4,73,78,-34,-41,75,78,43,-48,-78,-92,-102
-19,63,82,-21,-51,73,63,39,-53,-92,-102,-112
-14,29,43,-7,-29,36,58,39,-43,-92,-112,-122
-9,29,39,-9,-24,34,58,39,-43,-92,-112,-122
-4,34,39,-14,-21,36,58,39,-43,-92,-112,-122
4,48,43,-26,-19,46,58,34,-48,-92,-122,-122
9,58,48,-34,-19,53,63,39,-43,-87,-117,-117
9,63,53,-36,-21,58,68,43,-39,-78,-102,-107
4,63,58,-34,-26,61,73,48,-29,-73,-97,-102
0,63,63,-31,-31,63,78,58,-19,-68,-87,-97
0,58,58,-29,-29,58,97,78,-4,-53,-73,-78
-9,58,68,-24,-39,63,102,78,0,-48,-63,-78
4,58,53,-31,-24,56,102,78,4,-43,-73,-78
9,53,43,-31,-17,48,107,73,0,-39,-78,-78
0,48,48,-24,-24,48,102,63,-4,-58,-78,-82
-9,34,43,-12,-26,39,102,63,-9,-48,-78,-82
-9,43,53,-17,-31,48,97,63,-9,-43,-78,-82
9,43,34,-26,-12,39,97,63,-14,-43,-68,-78
-9,34,43,-12,-26,39,107,73,0,-39,-68,-68
-29,24,53,2,-41,39,122,73,0,-29,-63,-68
-48,19,68,14,-58,43,122,82,-4,-39,-63,-68
-48,19,68,14,-58,43,122,82,-4,-39,-63,-68
-58,53,112,2,-85,82,122,53,-19,-58,-82,-87
-19,97,117,-39,-68,107,131,68,-19,-58,-82,-78
53,112,58,-82,-2,85,131,68,-24,-58,-87,-82
53,82,29,-68,12,56,122,39,-58,-92,-122,-107
29,63,34,-46,-2,48,122,29,-78,-117,-146,-126
39,53,14,-46,12,34,131,29,-87,-136,-161,-136
9,9,0,-9,4,4,126,19,-112,-175,-195,-165
-39,-43,-4,41,-17,-24,107,-4,-156,-219,-239,-195
-9,-14,-4,12,-2,-9,107,-34,-200,-263,-278,-214
39,34,-4,-36,21,14,92,-82,-278,-336,-341,-239
9,-14,-24,2,17,-19,34,-161,-366,-424,-419,-287
-48,-102,-53,75,2,-78,-48,-253,-468,-507,-478,-317
-78,-131,-53,104,-12,-92,-117,-351,-551,-570,-531,-351
-58,-122,-63,90,2,-92,-156,-424,-619,-644,-600,-385
-19,-126,-107,73,43,-117,-200,-483,-658,-683,-624,-385
53,-78,-131,12,92,-104,-244,-531,-678,-692,-610,-336
131,-29,-161,-51,146,-95,-312,-595,-727,-707,-590,-297
131,-24,-156,-53,143,-90,-385,-678,-800,-727,-575,-248
151,-19,-170,-65,161,-95,-473,-766,-863,-717,-527,-170
229,9,-219,-119,224,-104,-551,-834,-902,-678,-458,-78
287,24,-263,-156,275,-119,-595,-883,-932,-649,-380,29
351,24,-326,-187,339,-151,-644,-956,-1010,-678,-346,107
439,53,-385,-246,412,-165,-722,-1049,-1146,-771,-375,141
492,73,-419,-283,456,-173,-810,-1141,-1327,-941,-468,131
531,39,-492,-285,512,-226,-902,-1249,-1586,-1224,-673,29
639,53,-585,-346,612,-265,-990,-1385,-1869,-1551,-922,-102
761,131,-629,-446,695,-248,-1063,-1503,-2093,-1786,-1073,-156
805,151,-653,-478,729,-251,-1093,-1590,-2254,-1947,-1171,-161
824,126,-697,-475,761,-285,-1093,-1610,-2327,-2020,-1210,-131
834,175,-658,-505,746,-241,-1034,-1571,-2274,-1971,-1132,-29
805,273,-531,-539,668,-129,-946,-1473,-2137,-1815,-951,151
727,351,-375,-539,551,-12,-824,-1376,-1942,-1556,-644,434
658,463,-195,-561,427,134,-736,-1312,-1722,-1224,-283,732
614,556,-58,-585,336,248,-673,-1293,-1566,-976,-9,951
575,619,43,-597,265,331,-629,-1268,-1488,-854,156,1098
527,639,112,-583,207,375,-580,-1190,-1429,-814,239,1180
488,575,87,-531,200,331,-536,-1107,-1376,-805,258,1156
419,488,68,-453,175,278,-488,-1024,-1298,-775,253,1068
341,414,73,-378,134,244,-424,-912,-1171,-658,307,1024
273,336,63,-305,104,200,-385,-795,-1015,-517,400,956
165,219,53,-192,56,136,-331,-673,-868,-385,444,805
39,82,43,-61,-2,63,-214,-512,-717,-312,375,561
-48,-4,43,26,-46,19,-92,-356,-595,-268,283,297
-58,-34,24,46,-41,-4,-53,-258,-507,-229,229,151
-48,-19,29,34,-39,4,-43,-175,-439,-180,229,126
-19,19,39,0,-29,29,-9,-97,-341,-112,234,126
-9,0,9,4,-9,4,9,-9,-219,-29,219,92
-48,-48,0,48,-24,-24,14,53,-97,43,219,78
-68,-48,19,58,-43,-14,43,97,-24,82,239,107
-39,4,43,17,-41,24,43,122,9,122,248,131
-14,39,53,-12,-34,46,58,165,78,195,283,136
4,58,53,-31,-24,56,82,224,180,273,326,141
9,39,29,-24,-9,34,102,258,209,297,322,112
-9,14,24,-2,-17,19,102,268,209,268,292,78
-14,0,14,7,-14,7,117,258,214,253,258,68
-24,19,43,2,-34,31,122,253,219,248,248,63
-24,24,48,0,-36,36,126,239,219,239,224,58
-34,9,43,12,-39,26,131,234,214,229,200,58
-24,9,34,7,-29,21,141,239,204,209,170,39
-24,-9,14,17,-19,2,141,239,200,200,146,24
-29,14,43,7,-36,29,146,244,200,200,136,19
-29,34,63,-2,-46,48,156,244,200,195,131,19
-19,48,68,-14,-43,58,170,253,229,209,141,39
-9,53,63,-21,-36,58,180,263,248,209,146,48
0,58,58,-29,-29,58,180,268,258,200,141,48
9,73,63,-41,-26,68,190,263,258,204,151,53
29,58,29,-43,0,43,170,258,263,204,141,48
29,39,9,-34,9,24,161,263,263,209,151,53
19,19,0,-19,9,9,151,268,263,214,156,53
9,0,-9,-4,9,-4,141,263,263,209,161,48
-9,24,34,-7,-21,29,151,268,278,234,175,63
-14,43,58,-14,-36,51,156,273,297,244,180,73
-34,58,92,-12,-63,75,161,278,292,248,185,78
-24,78,102,-26,-63,90,165,283,297,253,190,82
0,92,92,-46,-46,92,161,273,292,248,190,73
4,92,87,-48,-41,90,156,283,287,253,195,82
9,82,73,-46,-31,78,151,278,287,253,190,82
9,78,68,-43,-29,73,151,268,292,258,185,82
0,78,78,-39,-39,78,161,253,297,258,185,78
0,87,87,-43,-43,87,165,248,292,258,180,78
-14,87,102,-36,-58,95,165,244,292,258,175,73
-24,87,112,-31,-68,100,165,239,287,253,175,78
0,112,112,-56,-56,112,165,239,297,253,190,87
14,126,112,-70,-48,119,170,248,302,258,190,87
-4,126,131,-61,-68,129,175,248,302,263,200,82
0,107,107,-53,-53,107,175,248,307,268,209,82
19,126,107,-73,-43,117,161,248,307,273,209,87
24,126,102,-75,-39,114,161,244,312,278,209,87
24,126,102,-75,-39,114,165,239,312,283,204,82
29,131,102,-80,-36,117,175,234,312,283,209,87
4,136,131,-70,-63,134,170,234,307,287,209,82
-14,122,136,-53,-75,129,165,234,307,292,214,87
-39,107,146,-34,-92,126,161,239,317,297,214,92
-68,87,156,-9,-112,122,156,248,331,297,219,92
-48,107,156,-29,-102,131,146,244,322,302,209,97
-43,117,161,-36,-102,139,156,239,317,302,214,97
-29,126,156,-48,-92,141,156,234,322,302,219,102
0,136,136,-68,-68,136,141,229,317,302,219,102
19,146,126,-82,-53,136,151,234,322,307,219,107
19,146,126,-82,-53,136,156,239,336,312,224,112
19,141,122,-80,-51,131,156,244,341,312,224,112
-4,141,146,-68,-75,143,156,248,346,317,234,112
-9,151,161,-70,-85,156,156,253,356,346,248,131
4,165,161,-85,-78,163,165,268,380,356,273,141
9,185,175,-97,-82,180,165,268,380,366,278,146
-24,175,200,-75,-112,187,165,268,380,366,283,146
-43,151,195,-53,-119,173,156,268,380,356,278,141
-29,151,180,-61,-104,165,161,268,380,366,278,136
-9,136,146,-63,-78,141,161,268,395,370,283,131
-14,122,136,-53,-75,129,156,283,400,375,278,131
-14,122,136,-53,-75,129,146,273,400,380,287,131
4,126,122,-65,-58,124,151,283,400,385,292,131
14,131,117,-73,-51,124,151,287,405,390,297,136
9,141,131,-75,-61,136,161,292,409,400,297,151
-34,136,170,-51,-102,153,151,302,434,409,312,161
-48,126,175,-39,-112,151,151,317,434,414,312,161
-58,112,170,-26,-114,141,136,302,434,414,307,151
-53,107,161,-26,-107,134,136,317,434,419,307,141
-68,112,180,-21,-124,146,141,322,458,429,331,156
-58,126,185,-34,-122,156,151,336,463,444,336,165
-34,151,185,-58,-109,168,156,346,478,453,351,170
-39,151,190,-56,-114,170,161,346,483,468,351,180
-39,146,185,-53,-112,165,165,356,502,478,366,190
-63,141,204,-39,-134,173,170,366,512,478,366,190
-34,151,185,-58,-109,168,175,380,522,492,375,195
-4,146,151,-70,-78,148,180,395,536,507,390,200
-34,131,165,-48,-100,148,180,409,541,507,380,200
-43,122,165,-39,-104,143,190,424,561,522,395,200
-63,117,180,-26,-122,148,190,429,566,531,400,209
-68,107,175,-19,-122,141,190,429,580,536,400,209
-58,97,156,-19,-107,126,204,444,580,536,395,209
-39,112,151,-36,-95,131,209,448,580,541,400,204
-29,112,141,-41,-85,126,204,448,590,536,400,200
-39,92,131,-26,-85,112,209,463,605,541,409,200
-58,102,161,-21,-109,131,224,478,639,570,434,209
-43,126,170,-41,-107,148,244,502,658,595,453,224
-43,122,165,-39,-104,143,248,512,668,605,453,224
-48,107,156,-29,-102,131,253,527,673,610,439,214
-39,141,180,-51,-109,161,253,536,697,634,444,239
-24,165,190,-70,-107,178,263,551,712,639,468,253
-14,170,185,-78,-100,178,263,551,717,649,478,268
-4,195,200,-95,-102,197,258,546,722,653,497,273
-29,175,204,-73,-117,190,244,536,712,658,502,263
-39,161,200,-61,-119,180,239,536,727,668,502,268
-39,156,195,-58,-117,175,239,541,732,673,502,268
-48,156,204,-53,-126,180,234,541,741,673,502,268
-58,170,229,-56,-143,200,248,556,756,688,507,273
-73,175,248,-51,-161,212,248,566,761,692,512,278
-78,180,258,-51,-168,219,248,566,761,692,512,278
-78,185,263,-53,-170,224,248,561,761,688,512,278
-48,180,229,-65,-139,204,234,556,756,678,502,268
-29,200,229,-85,-129,214,234,551,761,688,497,263
-4,204,209,-100,-107,207,244,556,766,688,492,258
24,209,185,-117,-80,197,244,551,761,688,488,253
0,204,204,-102,-102,204,248,551,761,688,488,253
-24,209,234,-92,-129,222,258,551,761,678,473,253
-39,209,248,-85,-143,229,263,561,751,668,468,253
-39,214,253,-87,-146,234,263,546,746,668,468,248
-68,200,268,-65,-168,234,258,531,736,653,448,229
-63,195,258,-65,-161,226,244,527,722,634,434,224
-78,190,268,-56,-173,229,234,512,707,619,419,204
-92,185,278,-46,-185,231,229,507,692,600,400,190
-97,195,292,-48,-195,244,239,502,678,590,400,195
-92,195,287,-51,-190,241,244,488,673,580,400,180
-68,204,273,-68,-170,239,248,478,663,566,375,180
-53,204,258,-75,-156,231,253,478,658,556,361,180
-48,214,263,-82,-156,239,263,483,649,566,361,180
-48,214,263,-82,-156,239,263,468,634,546,361,175
-58,204,263,-73,-161,234,258,463,614,522,351,165
-58,195,253,-68,-156,224,263,448,595,497,336,161
-82,170,253,-43,-168,212,253,434,556,473,312,151
-92,141,234,-24,-163,187,239,405,536,429,268,122
-97,117,214,-9,-156,165,219,370,488,380,224,82
-107,107,214,0,-161,161,195,341,453,341,185,53
-92,112,204,-9,-148,158,190,326,429,326,165,53
-82,102,185,-9,-134,143,180,312,395,297,151,43
-63,107,170,-21,-117,139,175,292,380,278,146,39
-34,112,146,-39,-90,129,170,283,366,258,131,19
-43,87,131,-21,-87,109,156,263,322,224,102,-4
-68,73,141,-2,-104,107,141,234,278,185,78,-19
-68,58,126,4,-97,92,126,204,239,146,48,-34
-53,58,112,-2,-82,85,107,180,204,107,14,-43
-48,68,117,-9,-82,92,107,170,185,92,9,-34
-58,53,112,2,-85,82,107,156,161,78,-4,-43
-73,48,122,12,-97,85,102,151,141,53,-14,-53
-68,29,97,19,-82,63,97,141,131,39,-24,-53
-78,19,97,29,-87,58,82,122,112,14,-48,-63
-68,14,82,26,-75,48,78,107,92,4,-63,-82
-63,19,82,21,-73,51,68,92,68,-19,-78,-92
-68,-4,63,36,-65,29,58,78,48,-29,-87,-102
-58,-14,43,36,-51,14,58,82,43,-29,-97,-92
-48,0,48,24,-48,24,63,78,48,-24,-82,-82
-39,14,53,12,-46,34,63,78,53,-19,-68,-82
-53,0,53,26,-53,26,68,73,48,-24,-78,-82
-58,9,68,24,-63,39,78,68,19,-34,-87,-82
-58,19,78,19,-68,48,73,63,19,-43,-92,-82
-58,19,78,19,-68,48,73,58,14,-48,-92,-82
-73,-4,68,39,-70,31,68,53,0,-48,-92,-82
-87,-34,53,61,-70,9,63,39,-9,-53,-92,-97
-82,-29,53,56,-68,12,63,39,-9,-58,-92,-97
-68,-14,53,41,-61,19,63,39,-14,-63,-97,-97
-63,-29,34,46,-48,2,68,34,-19,-68,-102,-102
-63,-24,39,43,-51,7,78,43,-19,-58,-92,-97
-63,-19,43,41,-53,12,78,43,-9,-58,-92,-92
-63,-14,48,39,-56,17,78,39,-19,-58,-92,-92
-58,-14,43,36,-51,14,73,34,-29,-58,-92,-87
-53,-24,29,39,-41,2,58,24,-39,-68,-102,-87
-43,-29,14,36,-29,-7,58,24,-39,-68,-97,-92
-43,-39,4,41,-24,-17,53,24,-43,-78,-97,-97
-63,-53,9,58,-36,-21,53,24,-43,-78,-97,-102
-53,-29,24,41,-39,-2,63,29,-34,-68,-92,-87
-48,-14,34,31,-41,9,68,34,-24,-53,-78,-73
-39,-9,29,24,-34,9,68,34,-19,-48,-73,-68
-34,-9,24,21,-29,7,58,29,-24,-53,-78,-73
-48,-19,29,34,-39,4,53,14,-34,-68,-92,-78
-58,-19,39,39,-48,9,53,19,-34,-63,-82,-73
-73,-29,43,51,-58,7,48,14,-43,-68,-87,-78
-82,-39,43,61,-63,2,48,9,-48,-73,-92,-82
-63,-24,39,43,-51,7,58,14,-39,-68,-87,-73
-43,-14,29,29,-36,7,58,14,-34,-58,-78,-68
-14,-4,9,9,-12,2,58,14,-34,-53,-73,-63
4,14,9,-9,-2,12,58,14,-34,-39,-68,-58
-34,-9,24,21,-29,7,48,9,-43,-43,-68,-58
-53,-14,39,34,-46,12,43,4,-43,-43,-63,-53
-58,-19,39,39,-48,9,43,0,-43,-43,-63,-53
-68,-24,43,46,-56,9,39,-9,-43,-53,-58,-53
-68,-29,39,48,-53,4,39,-14,-48,-63,-63,-53
-63,-24,39,43,-51,7,39,-4,-43,-48,-63,-53
-48,-14,34,31,-41,9,43,-9,-43,-39,-63,-53
-53,-9,43,31,-48,17,43,-14,-48,-39,-68,-53
-58,-9,48,34,-53,19,39,-19,-58,-43,-78,-68
-43,4,48,19,-46,26,39,-19,-58,-48,-78,-68
-34,9,43,12,-39,26,34,-24,-63,-53,-78,-68
-29,9,39,9,-34,24,34,-39,-63,-58,-78,-68
-24,0,24,12,-24,12,29,-29,-48,-58,-73,-73
-24,-4,19,14,-21,7,29,-29,-58,-58,-73,-73
-29,-14,14,21,-21,0,29,-29,-63,-58,-73,-73
-34,-24,9,29,-21,-7,34,-29,-63,-58,-73,-73
-39,-9,29,24,-34,9,43,-19,-58,-53,-63,-68
-53,-4,48,29,-51,21,48,-14,-53,-48,-63,-58
-58,-4,53,31,-56,24,48,-9,-53,-48,-68,-53
-58,-14,43,36,-51,14,39,-19,-53,-48,-78,-58
-73,-24,48,48,-61,12,29,-19,-53,-48,-68,-68
-68,-4,63,36,-65,29,34,-14,-48,-43,-63,-63
-53,9,63,21,-58,36,43,-14,-48,-43,-58,-63
-48,9,58,19,-53,34,43,-14,-43,-43,-58,-63
-34,-4,29,19,-31,12,39,-9,-43,-43,-63,-73
-48,-9,39,29,-43,14,39,0,-39,-34,-58,-63
-53,-9,43,31,-48,17,39,0,-39,-34,-58,-63
-58,-9,48,34,-53,19,34,0,-39,-34,-58,-63
-82,-24,58,53,-70,17,43,9,-29,-34,-48,-63
-63,-19,43,41,-53,12,39,4,-34,-34,-53,-63
-48,-19,29,34,-39,4,39,4,-34,-34,-53,-63
-53,-24,29,39,-41,2,43,4,-29,-34,-53,-63
-73,-24,48,48,-61,12,48,14,-14,-19,-43,-48
-73,-29,43,51,-58,7,53,19,-14,-19,-39,-48
-73,-34,39,53,-56,2,58,34,-14,-19,-34,-48
-82,-43,39,63,-61,-2,58,39,-9,-14,-24,-48
-73,-34,39,53,-56,2,73,53,-4,-4,-14,-39
-82,-39,43,61,-63,2,73,48,-4,-14,-24,-48
-73,-48,24,61,-48,-12,63,43,-9,-14,-34,-63
-63,-43,19,53,-41,-12,78,48,-4,-14,-34,-63
-68,-29,39,48,-53,4,82,68,4,-9,-19,-63
-73,-29,43,51,-58,7,92,73,14,-9,-14,-63
-63,-34,29,48,-46,-2,102,78,19,-9,-9,-63
-73,-34,39,53,-56,2,107,87,24,-9,-9,-58
-68,-29,39,48,-53,4,117,87,24,0,-9,-48
-73,-34,39,53,-56,2,112,82,19,0,-9,-63
-82,-39,43,61,-63,2,112,82,14,-14,-19,-68
-78,-34,43,56,-61,4,112,82,14,-14,-19,-68
-63,-4,58,34,-61,26,122,82,24,4,-4,-58
-43,-4,39,24,-41,17,122,78,24,-4,-4,-58
-53,-19,34,36,-43,7,112,73,24,-9,-19,-63
-68,-19,48,43,-58,14,112,73,19,-9,-19,-63
-78,-24,53,51,-65,14,107,73,9,-4,-4,-63
-73,-24,48,48,-61,12,112,68,14,0,-4,-58
-68,-29,39,48,-53,4,117,68,14,0,-9,-58
-48,-39,9,43,-29,-14,117,63,14,-9,-19,-58
-73,-53,19,63,-46,-17,107,43,-4,-19,-19,-68
-92,-48,43,70,-68,-2,107,43,-4,-19,-19,-63
-63,-29,34,46,-48,2,122,53,4,-9,-14,-48
-63,-19,43,41,-53,12,122,58,4,-9,-9,-43
-48,-4,43,26,-46,19,107,58,9,0,0,-39
-43,0,43,21,-43,21,107,58,9,0,-9,-39
-39,4,43,17,-41,24,107,58,4,-4,-14,-43
-39,4,43,17,-41,24,102,53,0,-4,-19,-43
-53,-14,39,34,-46,12,78,39,-9,-24,-34,-53
-68,-29,39,48,-53,4,63,34,-19,-29,-29,-63
-82,-39,43,61,-63,2,63,29,-29,-43,-43,-73
-97,-48,48,73,-73,0,48,24,-29,-48,-48,-78
-78,-43,34,61,-56,-4,34,19,-43,-43,-48,-87
-39,-34,4,36,-21,-14,29,9,-48,-53,-53,-92
-48,-58,-9,53,-19,-34,24,0,-63,-68,-58,-92
-68,-73,-4,70,-31,-39,19,-9,-68,-78,-63,-92
-78,-63,14,70,-46,-24,29,-4,-58,-68,-63,-82
-63,-58,4,61,-34,-26,29,-4,-58,-73,-63,-87
-68,-78,-9,73,-29,-43,19,-9,-68,-78,-78,-92
-78,-82,-4,80,-36,-43,19,-14,-73,-82,-82,-92
-97,-102,-4,100,-46,-53,9,-29,-82,-87,-92,-97
-112,-112,0,112,-56,-56,4,-34,-87,-92,-92,-102
-117,-102,14,109,-65,-43,9,-29,-87,-92,-87,-102
-112,-92,19,102,-65,-36,4,-34,-87,-87,-87,-107
-82,-97,-14,90,-34,-56,4,-34,-78,-97,-78,-112
-68,-87,-19,78,-24,-53,4,-43,-92,-97,-87,-107
-58,-73,-14,65,-21,-43,4,-29,-92,-92,-87,-102
-63,-58,4,61,-34,-26,4,-24,-82,-82,-82,-92
-78,-53,24,65,-51,-14,4,-29,-92,-87,-92,-102
-73,-48,24,61,-48,-12,0,-39,-97,-102,-92,-102
-78,-53,24,65,-51,-14,-4,-43,-102,-107,-102,-117
-112,-63,48,87,-80,-7,-9,-48,-102,-112,-102,-117
-82,-63,19,73,-51,-21,4,-43,-92,-92,-87,-92
-53,-34,19,43,-36,-7,14,-29,-82,-87,-82,-92
-53,-34,19,43,-36,-7,14,-24,-82,-82,-82,-92
-63,-48,14,56,-39,-17,9,-24,-92,-82,-92,-97
-63,-53,9,58,-36,-21,0,-39,-97,-97,-97,-112
-63,-63,0,63,-31,-31,-14,-39,-97,-102,-97,-112
-63,-48,14,56,-39,-17,-4,-39,-97,-102,-97,-112
-68,-48,19,58,-43,-14,4,-39,-97,-97,-97,-107
-87,-48,39,68,-63,-4,19,-24,-87,-92,-82,-92
-92,-53,39,73,-65,-7,14,-24,-82,-87,-78,-92
-87,-48,39,68,-63,-4,19,-19,-78,-82,-73,-87
-63,-24,39,43,-51,7,24,-14,-73,-78,-63,-78
-58,-39,19,48,-39,-9,29,-19,-78,-78,-73,-82
-68,-53,14,61,-41,-19,29,-19,-82,-82,-82,-92
-97,-73,24,85,-61,-24,29,-19,-82,-82,-82,-97
-97,-92,4,95,-51,-43,29,-19,-78,-82,-78,-102
-63,-78,-14,70,-24,-46,43,0,-63,-78,-73,-107
-63,-73,-9,68,-26,-41,53,4,-58,-73,-73,-97
-92,-73,19,82,-56,-26,63,14,-58,-73,-73,-97
-122,-78,43,100,-82,-17,73,24,-58,-73,-73,-97
-131,-87,43,109,-87,-21,73,24,-63,-82,-78,-112
-117,-87,29,102,-73,-29,82,24,-63,-73,-82,-112
-102,-87,14,95,-58,-36,82,19,-63,-82,-87,-122
-87,-97,-9,92,-39,-53,78,14,-73,-92,-107,-126
-73,-87,-14,80,-29,-51,87,14,-73,-82,-97,-122
-78,-87,-9,82,-34,-48,92,14,-63,-87,-92,-117
-73,-97,-24,85,-24,-61,92,14,-73,-87,-87,-112
-58,-82,-24,70,-17,-53,97,14,-73,-82,-82,-107
-39,-63,-24,51,-7,-43,97,24,-53,-78,-73,-97
-68,-82,-14,75,-26,-48,107,29,-48,-63,-73,-92
-117,-92,24,104,-70,-34,107,29,-43,-53,-73,-87
-112,-82,29,97,-70,-26,107,34,-43,-48,-68,-87
-112,-78,34,95,-73,-21,117,24,-48,-53,-68,-97
-112,-87,24,100,-68,-31,112,24,-53,-53,-68,-97
-97,-73,24,85,-61,-24,112,24,-53,-53,-68,-87
-97,-68,29,82,-63,-19,112,29,-58,-48,-73,-82
-92,-68,24,80,-58,-21,102,19,-53,-43,-68,-78
-68,-48,19,58,-43,-14,97,9,-58,-39,-63,-78
-39,-39,0,39,-19,-19,97,9,-58,-39,-63,-82
-14,-14,0,14,-7,-7,107,14,-53,-39,-58,-82
-24,-24,0,24,-12,-12,92,4,-53,-43,-58,-78
-58,-68,-9,63,-24,-39,82,4,-63,-58,-58,-82
-82,-82,0,82,-41,-41,78,0,-63,-58,-63,-82
-102,-87,14,95,-58,-36,78,-4,-58,-58,-63,-78
-92,-68,24,80,-58,-21,78,-4,-58,-63,-68,-78
-102,-97,4,100,-53,-46,73,0,-58,-58,-63,-73
-107,-126,-19,117,-43,-73,68,4,-58,-53,-58,-68
-107,-117,-9,112,-48,-63,68,4,-58,-53,-58,-68
-63,-87,-24,75,-19,-56,53,-9,-68,-73,-73,-73
-24,-63,-39,43,7,-51,48,-9,-68,-73,-73,-78
-19,-63,-43,41,12,-53,43,-9,-73,-78,-73,-87
-24,-82,-58,53,17,-70,39,-19,-87,-82,-78,-102
-43,-87,-43,65,0,-65,34,-29,-87,-87,-82,-102
-53,-87,-34,70,-9,-61,29,-29,-87,-92,-82,-102
-53,-92,-39,73,-7,-65,14,-29,-87,-92,-82,-102
-48,-102,-53,75,2,-78,19,-24,-82,-82,-78,-97
-58,-102,-43,80,-7,-73,9,-34,-87,-92,-87,-107
-63,-102,-39,82,-12,-70,4,-39,-97,-97,-92,-117
-73,-107,-34,90,-19,-70,4,-39,-102,-107,-97,-117
-73,-107,-34,90,-19,-70,4,-43,-107,-107,-97,-117
-63,-97,-34,80,-14,-65,-4,-53,-117,-112,-107,-122
-48,-87,-39,68,-4,-63,-4,-48,-117,-112,-107,-122
-68,-107,-39,87,-14,-73,0,-43,-117,-102,-102,-117
-73,-117,-43,95,-14,-80,0,-39,-112,-102,-97,-112
-82,-112,-29,97,-26,-70,-9,-29,-102,-92,-87,-107
-102,-107,-4,104,-48,-56,-9,-29,-102,-92,-87,-107
-82,-102,-19,92,-31,-61,-9,-34,-102,-97,-87,-102
-92,-97,-4,95,-43,-51,-9,-34,-102,-97,-92,-97
-87,-102,-14,95,-36,-58,-9,-34,-117,-107,-107,-112
-68,-92,-24,80,-21,-58,-9,-39,-117,-112,-107,-117
-48,-92,-43,70,-2,-68,-14,-48,-122,-117,-107,-122
-29,-97,-68,63,19,-82,-19,-53,-126,-117,-107,-131
-43,-97,-53,70,4,-75,-9,-43,-122,-112,-102,-126
-68,-107,-39,87,-14,-73,-19,-43,-122,-117,-102,-126
-102,-122,-19,112,-41,-70,-24,-53,-122,-112,-97,-122
-87,-92,-4,90,-41,-48,-24,-53,-117,-102,-82,-112
-136,-87,48,112,-92,-19,-4,-34,-102,-87,-73,-107
-102,-63,39,82,-70,-12,19,-14,-82,-78,-63,-92
-19,-34,-14,26,-2,-24,9,-14,-82,-87,-73,-92
9,-39,-48,14,29,-43,0,-39,-97,-97,-87,-107
-9,-58,-48,34,19,-53,-4,-48,-102,-97,-87,-117
-29,-68,-39,48,4,-53,-9,-48,-107,-97,-87,-117
-48,-78,-29,63,-9,-53,-14,-48,-112,-97,-87,-117
-68,-87,-19,78,-24,-53,-19,-48,-117,-97,-87,-117
-78,-78,0,78,-39,-39,-14,-39,-107,-97,-78,-107
-78,-78,0,78,-39,-39,-9,-39,-107,-97,-78,-107
-78,-78,0,78,-39,-39,-4,-39,-107,-97,-78,-107
-78,-78,0,78,-39,-39,0,-39,-107,-97,-78,-107
-73,-58,14,65,-43,-21,14,-24,-92,-87,-63,-102
-68,-48,19,58,-43,-14,19,-19,-87,-78,-58,-97
-63,-39,24,51,-43,-7,24,-14,-82,-68,-53,-92
-58,-29,29,43,-43,0,29,-9,-78,-58,-48,-87
-58,-34,24,46,-41,-4,29,-19,-82,-63,-53,-97
-58,-39,19,48,-39,-9,29,-19,-87,-68,-58,-97
-58,-43,14,51,-36,-14,29,-19,-92,-73,-63,-97
-58,-48,9,53,-34,-19,29,-19,-97,-78,-68,-97
-68,-48,19,58,-43,-14,34,-9,-87,-68,-58,-97
-68,-48,19,58,-43,-14,39,-9,-87,-68,-58,-97
-68,-48,19,58,-43,-14,43,-9,-87,-68,-58,-97
-68,-48,19,58,-43,-14,48,-9,-87,-68,-58,-97
-73,-63,9,68,-41,-26,48,-14,-92,-78,-63,-107
-78,-68,9,73,-43,-29,48,-19,-97,-78,-68,-107
-82,-73,9,78,-46,-31,48,-24,-102,-78,-73,-107
-87,-78,9,82,-48,-34,48,-29,-107,-78,-78,-107
-78,-68,9,73,-43,-29,39,-29,-97,-78,-68,-97
-78,-68,9,73,-43,-29,48,-29,-97,-78,-68,-97
-78,-68,9,73,-43,-29,39,-29,-92,-78,-63,-97
-82,-78,4,80,-43,-36,34,-29,-92,-73,-63,-97
-78,-78,0,78,-39,-39,24,-39,-102,-73,-63,-97
-48,-63,-14,56,-17,-39,24,-43,-107,-78,-68,-107
-24,-48,-24,36,0,-36,24,-43,-107,-82,-73,-107
-29,-58,-29,43,0,-43,24,-39,-107,-82,-73,-107
-73,-78,-4,75,-34,-41,29,-19,-87,-58,-53,-92
-58,-58,0,58,-29,-29,24,-19,-82,-58,-48,-82
-58,-68,-9,63,-24,-39,29,-24,-78,-58,-48,-82
-97,-73,24,85,-61,-24,34,-24,-73,-58,-48,-82
-78,-68,9,73,-43,-29,24,-34,-78,-68,-58,-92
-68,-73,-4,70,-31,-39,24,-34,-82,-78,-63,-92
-68,-78,-9,73,-29,-43,19,-43,-92,-78,-68,-97
-39,-63,-24,51,-7,-43,19,-34,-97,-78,-68,-97
-24,-48,-24,36,0,-36,34,-9,-82,-63,-63,-87
-24,-43,-19,34,-2,-31,39,-14,-78,-53,-53,-78
-24,-43,-19,34,-2,-31,43,-19,-73,-48,-34,-68
-48,-34,14,41,-31,-9,43,-14,-68,-39,-24,-58
-63,-58,4,61,-34,-26,24,-29,-78,-48,-34,-78
-43,-73,-29,58,-7,-51,14,-34,-82,-58,-43,-87
-48,-68,-19,58,-14,-43,9,-34,-87,-68,-48,-87
-63,-107,-43,85,-9,-75,0,-39,-92,-82,-58,-97
-73,-102,-29,87,-21,-65,0,-39,-92,-73,-58,-102
-78,-97,-19,87,-29,-58,0,-34,-97,-82,-58,-107
-58,-97,-39,78,-9,-68,0,-29,-82,-68,-53,-102
-53,-68,-14,61,-19,-41,0,-19,-78,-53,-39,-87
-63,-82,-19,73,-21,-51,0,-29,-78,-53,-34,-73
-63,-78,-14,70,-24,-46,0,-29,-78,-53,-34,-73
-73,-82,-9,78,-31,-46,-4,-34,-82,-58,-43,-78
-63,-78,-14,70,-24,-46,-9,-39,-82,-63,-48,-87
-9,-68,-58,39,24,-63,-24,-48,-97,-73,-53,-87
0,-78,-78,39,39,-78,-29,-48,-102,-78,-53,-87
-39,-82,-43,61,2,-63,-34,-48,-102,-78,-48,-82
-58,-82,-24,70,-17,-53,-34,-39,-102,-78,-43,-82
-68,-78,-9,73,-29,-43,-24,-29,-87,-68,-29,-73
-73,-92,-19,82,-26,-56,-29,-34,-82,-58,-34,-78
-78,-87,-9,82,-34,-48,-29,-34,-87,-53,-29,-78
-87,-73,14,80,-51,-29,-24,-34,-73,-43,-19,-78
-63,-53,9,58,-36,-21,-24,-43,-78,-48,-34,-87
-48,-48,0,48,-24,-24,-34,-43,-82,-53,-39,-87
-39,-53,-14,46,-12,-34,-34,-43,-87,-58,-43,-87
-24,-39,-14,31,-4,-26,-34,-39,-92,-63,-48,-82
-19,-19,0,19,-9,-9,-24,-29,-82,-53,-43,-78
-19,-43,-24,31,2,-34,-24,-29,-82,-53,-39,-73
-63,-53,9,58,-36,-21,-24,-29,-82,-58,-34,-73
-82,-78,4,80,-43,-36,-24,-29,-82,-58,-34,-68
-73,-82,-9,78,-31,-46,-24,-48,-97,-63,-43,-82
-63,-87,-24,75,-19,-56,-24,-48,-102,-68,-48,-82
-53,-82,-29,68,-12,-56,-24,-34,-92,-63,-48,-73
-34,-73,-39,53,2,-56,-9,-34,-97,-68,-43,-73
-43,-73,-29,58,-7,-51,-24,-39,-102,-82,-53,-92
-39,-87,-48,63,4,-68,-29,-39,-102,-82,-53,-92
-34,-78,-43,56,4,-61,-29,-39,-102,-82,-53,-92
-29,-63,-34,46,2,-48,-29,-39,-102,-82,-53,-92
-43,-53,-9,48,-17,-31,-19,-43,-107,-82,-63,-92
-39,-58,-19,48,-9,-39,-19,-43,-107,-82,-63,-92
-48,-58,-9,53,-19,-34,-19,-43,-107,-78,-53,-87
-63,-63,0,63,-31,-31,-19,-43,-102,-78,-53,-87
-58,-58,0,58,-29,-29,-4,-39,-87,-73,-43,-78
-63,-48,14,56,-39,-17,9,-29,-78,-58,-34,-68
-78,-43,34,61,-56,-4,19,-29,-78,-53,-19,-68
-68,-39,29,53,-48,-4,24,-29,-78,-48,-24,-68
-58,-43,14,51,-36,-14,14,-34,-92,-53,-34,-73
-58,-43,14,51,-36,-14,14,-34,-97,-68,-39,-82
-68,-53,14,61,-41,-19,9,-34,-102,-63,-43,-87
-68,-39,29,53,-48,-4,0,-34,-102,-63,-48,-92
-63,-48,14,56,-39,-17,9,-34,-97,-63,-29,-82
-78,-53,24,65,-51,-14,9,-34,-87,-58,-29,-78
-102,-68,34,85,-68,-17,24,-34,-82,-48,-24,-73
-126,-78,48,102,-87,-14,24,-24,-82,-58,-24,-68
-97,-73,24,85,-61,-24,24,-24,-87,-58,-34,-78
-78,-53,24,65,-51,-14,14,-24,-87,-58,-34,-78
-68,-43,24,56,-46,-9,14,-29,-92,-58,-34,-78
-53,-34,19,43,-36,-7,14,-29,-112,-68,-48,-82
-53,-73,-19,63,-17,-46,4,-48,-117,-92,-63,-107
-48,-112,-63,80,7,-87,-14,-78,-146,-126,-97,-146
-39,-82,-43,61,2,-63,-4,-78,-136,-117,-102,-146
-39,-48,-9,43,-14,-29,29,-29,-112,-107,-78,-107
-48,-63,-14,56,-17,-39,39,-24,-136,-141,-92,-117
-48,-102,-53,75,2,-78,9,-73,-209,-214,-170,-175
-58,-151,-92,104,17,-122,-34,-141,-297,-307,-263,-239
-78,-170,-92,124,7,-131,-63,-200,-375,-395,-341,-287
-48,-151,-102,100,26,-126,-78,-244,-419,-439,-370,-307
-9,-122,-112,65,51,-117,-107,-292,-473,-473,-395,-302
-9,-141,-131,75,61,-136,-165,-366,-541,-517,-434,-317
-19,-175,-156,97,68,-165,-219,-424,-619,-605,-497,-356
4,-195,-200,95,102,-197,-253,-483,-668,-663,-551,-375
43,-185,-229,70,136,-207,-312,-546,-717,-697,-561,-346
24,-180,-204,78,114,-192,-356,-590,-741,-707,-536,-297
34,-175,-209,70,122,-192,-405,-649,-775,-697,-507,-229
112,-126,-239,7,175,-183,-483,-727,-834,-697,-458,-146
200,-102,-302,-48,251,-202,-546,-795,-873,-658,-380,-39
234,-122,-356,-56,295,-239,-595,-829,-902,-629,-287,68
302,-102,-405,-100,353,-253,-673,-893,-980,-644,-258,161
434,-24,-458,-204,446,-241,-751,-985,-1093,-697,-253,209
512,29,-483,-270,497,-226,-814,-1063,-1244,-805,-302,234
483,-24,-507,-229,495,-265,-883,-1151,-1459,-1054,-483,161
497,-63,-561,-217,529,-312,-995,-1288,-1742,-1376,-741,19
668,53,-614,-361,641,-280,-1063,-1434,-1981,-1634,-917,-53
775,136,-639,-456,707,-251,-1102,-1522,-2142,-1786,-995,-43
717,78,-639,-397,678,-280,-1102,-1551,-2205,-1854,-1015,0
697,97,-600,-397,649,-251,-1044,-1503,-2137,-1766,-912,122
707,253,-453,-480,580,-100,-932,-1385,-1981,-1576,-673,346
649,395,-253,-522,451,70,-824,-1293,-1810,-1322,-380,614
585,497,-87,-541,336,204,-741,-1234,-1634,-1063,-78,873
566,580,14,-573,275,297,-658,-1190,-1468,-814,185,1107
527,629,102,-578,212,366,-600,-1141,-1361,-668,356,1259
478,595,117,-536,180,356,-566,-1098,-1327,-658,424,1312
419,488,68,-453,175,278,-556,-1054,-1317,-697,400,1254
380,444,63,-412,158,253,-512,-1000,-1259,-678,395,1171
341,424,82,-383,129,253,-444,-902,-1161,-585,448,1112
283,346,63,-314,109,204,-400,-780,-1034,-473,512,1029
214,219,4,-217,104,112,-351,-668,-893,-351,541,854
97,102,4,-100,46,53,-229,-522,-732,-248,507,610
-39,14,53,12,-46,34,-102,-385,-595,-200,414,366
-97,-87,9,92,-53,-39,-53,-312,-527,-190,326,195
-78,-126,-48,102,-14,-87,-58,-283,-507,-180,283,136
-87,-126,-39,107,-24,-82,-48,-224,-453,-156,258,112
-87,-126,-39,107,-24,-82,-34,-122,-351,-92,239,78
-48,-117,-68,82,9,-92,-24,-39,-229,-24,248,78
-58,-102,-43,80,-7,-73,-43,-24,-175,4,248,92
-102,-117,-14,109,-43,-65,-68,-19,-146,29,234,97
-63,-107,-43,85,-9,-75,-73,9,-82,87,258,92
-19,-107,-87,63,34,-97,-63,53,4,170,302,92
-19,-102,-82,61,31,-92,-34,92,73,229,331,97
-9,-87,-78,48,34,-82,-19,112,107,224,317,87
-4,-39,-34,21,14,-36,-4,126,122,229,317,92
9,-4,-14,-2,12,-9,9,131,131,229,302,97
14,9,-4,-12,9,2,24,146,136,229,287,107
-4,0,4,2,-4,2,24,131,136,219,258,78
-14,-29,-14,21,0,-21,24,131,131,209,234,63
-29,-14,14,21,-21,0,29,136,131,209,224,58
-39,-4,34,21,-36,14,39,136,131,204,219,58
-53,-9,43,31,-48,17,34,131,141,195,209,68
-48,-14,34,31,-41,9,34,126,151,190,204,68
-43,-19,24,31,-34,2,24,117,151,175,190,58
-39,-14,24,26,-31,4,24,97,141,175,190,53
-14,-4,9,9,-12,2,19,102,136,175,185,48
-9,0,9,4,-9,4,14,107,136,180,190,53
-14,4,19,4,-17,12,9,112,136,185,190,53
-19,9,29,4,-24,19,4,107,136,180,190,48
-29,4,34,12,-31,19,0,97,136,180,180,34
-34,4,39,14,-36,21,0,97,151,185,180,34
-53,0,53,26,-53,26,0,97,141,185,180,29
-43,0,43,21,-43,21,0,97,141,185,180,24
-19,4,24,7,-21,14,9,92,151,180,175,34
-14,4,19,4,-17,12,9,107,151,185,185,43
-9,-4,4,7,-7,0,9,107,156,185,185,43
-9,-9,0,9,-4,-4,14,102,165,190,185,43
-9,-4,4,7,-7,0,29,112,190,214,200,53
-9,9,19,0,-14,14,39,122,195,229,209,58
-24,14,39,4,-31,26,43,131,204,244,219,58
-34,19,53,7,-43,36,48,141,209,253,234,68
-19,43,63,-12,-41,53,48,136,219,263,239,73
-14,58,73,-21,-43,65,53,151,224,268,239,78
-43,58,102,-7,-73,80,58,156,224,273,248,78
-48,39,87,4,-68,63,58,161,229,278,258,82
-24,58,82,-17,-53,70,43,165,234,292,273,92
-14,58,73,-21,-43,65,43,165,244,297,278,97
-9,58,68,-24,-39,63,48,165,248,302,278,97
0,63,63,-31,-31,63,58,165,253,302,287,107
-9,73,82,-31,-46,78,68,175,268,312,307,117
-14,73,87,-29,-51,80,68,175,268,322,312,126
-24,73,97,-24,-61,85,68,180,278,331,312,136
-39,68,107,-14,-73,87,68,190,292,336,317,141
-34,73,107,-19,-70,90,48,180,287,351,317,136
-43,78,122,-17,-82,100,58,180,287,351,322,136
-43,82,126,-19,-85,104,58,180,297,351,326,141
-29,87,117,-29,-73,102,43,180,297,351,326,141
-19,87,107,-34,-63,97,53,180,287,346,326,136
-19,87,107,-34,-63,97,58,180,297,351,331,141
-19,82,102,-31,-61,92,58,180,297,351,331,141
-43,82,126,-19,-85,104,58,180,297,356,341,141
-19,92,112,-36,-65,102,68,195,317,375,341,151
14,107,92,-61,-39,100,78,209,341,385,361,161
39,126,87,-82,-24,107,78,209,341,395,361,165
24,117,92,-70,-34,104,78,209,341,395,361,165
0,97,97,-48,-48,97,73,200,331,385,351,175
9,102,92,-56,-41,97,73,200,331,395,356,175
24,92,68,-58,-21,80,68,200,346,400,366,175
14,82,68,-48,-26,75,58,214,351,405,366,180
-14,78,92,-31,-53,85,53,204,346,409,375,175
-4,78,82,-36,-43,80,53,214,351,414,380,170
-4,78,82,-36,-43,80,48,219,361,419,385,170
-19,82,102,-31,-61,92,53,224,370,429,385,180
-34,92,126,-29,-80,109,48,219,380,429,390,185
-29,87,117,-29,-73,102,43,229,375,434,390,180
-19,78,97,-29,-58,87,24,209,370,434,385,165
4,78,73,-41,-34,75,19,219,366,439,385,151
-9,92,102,-41,-56,97,24,229,395,458,409,180
0,107,107,-53,-53,107,34,248,405,473,414,195
24,131,107,-78,-41,119,39,263,424,483,429,204
19,131,112,-75,-46,122,43,268,434,497,429,219
19,126,107,-73,-43,117,34,278,448,507,439,229
-4,122,126,-58,-65,124,34,278,453,507,444,229
24,131,107,-78,-41,119,34,283,458,522,458,234
53,126,73,-90,-9,100,34,287,468,536,478,239
14,131,117,-73,-51,124,39,292,473,536,478,239
4,131,126,-68,-61,129,53,307,492,551,492,239
-14,136,151,-61,-82,143,58,312,497,561,497,248
-19,136,156,-58,-87,146,63,312,512,566,497,248
0,141,141,-70,-70,141,73,317,522,580,512,258
19,161,141,-90,-61,151,73,322,522,590,517,263
29,165,136,-97,-53,151,63,322,531,590,517,268
19,151,131,-85,-56,141,63,336,546,600,527,278
0,151,151,-75,-75,151,58,331,561,610,527,278
14,175,161,-95,-73,168,68,346,570,624,541,283
14,170,156,-92,-70,163,63,346,570,624,536,273
9,156,146,-82,-68,151,58,351,566,619,517,253
0,165,165,-82,-82,165,78,356,580,644,527,253
-4,175,180,-85,-92,178,87,366,595,649,546,263
-14,165,180,-75,-97,173,87,361,600,658,551,273
-24,175,200,-75,-112,187,82,351,605,663,566,273
-14,185,200,-85,-107,192,82,366,610,678,580,287
0,190,190,-95,-95,190,82,370,629,688,580,297
24,204,180,-114,-78,192,87,380,639,692,580,302
39,224,185,-131,-73,204,87,385,653,692,580,307
48,224,175,-136,-63,200,82,390,658,707,585,307
34,224,190,-129,-78,207,82,400,663,712,590,307
29,224,195,-126,-82,209,82,400,663,712,590,302
29,224,195,-126,-82,209,82,395,663,707,590,297
9,209,200,-109,-95,204,82,405,653,697,585,283
0,219,219,-109,-109,219,87,405,663,707,585,283
-4,214,219,-104,-112,217,102,414,673,707,585,283
-4,209,214,-102,-109,212,107,414,673,707,585,283
4,219,214,-112,-104,217,107,419,688,717,585,287
-4,229,234,-112,-119,231,112,424,692,717,580,292
-4,234,239,-114,-122,236,112,439,688,717,585,297
9,244,234,-126,-112,239,107,429,688,727,595,297
4,234,229,-119,-112,231,117,419,692,717,580,283
24,234,209,-129,-92,222,107,419,683,702,570,283
24,234,209,-129,-92,222,102,409,673,692,561,268
24,234,209,-129,-92,222,102,409,663,678,546,258
-9,239,248,-114,-129,244,112,414,658,673,556,268
-34,234,268,-100,-151,251,117,409,663,678,566,258
-39,239,278,-100,-158,258,122,409,663,678,551,263
-53,234,287,-90,-170,261,126,419,668,683,546,268
-34,214,248,-90,-141,231,112,395,629,668,527,239
-29,204,234,-87,-131,219,97,370,605,634,507,224
-34,185,219,-75,-126,202,78,356,575,595,478,204
-29,165,195,-68,-112,180,68,331,546,556,444,190
-29,175,204,-73,-117,190,78,341,536,546,434,190
-24,170,195,-73,-109,183,82,326,527,517,405,170
-14,170,185,-78,-100,178,82,307,488,483,375,141
-9,185,195,-87,-102,190,78,292,463,458,351,122
-19,161,180,-70,-100,170,63,263,419,419,317,97
-14,141,156,-63,-85,148,53,244,375,375,287,82
0,136,136,-68,-68,136,48,219,351,341,268,73
24,131,107,-78,-41,119,43,204,326,307,239,48
14,117,102,-65,-43,109,43,190,297,278,214,43
-9,102,112,-46,-61,107,34,165,258,244,195,29
-9,87,97,-39,-53,92,24,141,224,209,170,14
4,87,82,-46,-39,85,9,122,195,175,141,4
-4,97,102,-46,-53,100,19,112,165,156,122,-4
-19,82,102,-31,-61,92,19,97,141,136,102,-14
-39,78,117,-19,-78,97,14,92,122,107,87,-24
-39,58,97,-9,-68,78,9,82,112,87,73,-24
-43,63,107,-9,-75,85,4,68,82,68,48,-34
-29,63,92,-17,-61,78,0,48,63,53,34,-53
-19,73,92,-26,-56,82,-9,29,39,24,19,-63
-19,53,73,-17,-46,63,-19,9,19,9,9,-73
-29,43,73,-7,-51,58,-29,-9,-14,-9,-9,-82
-19,58,78,-19,-48,68,-34,-19,-19,-14,-4,-73
-9,73,82,-31,-46,78,-43,-24,-24,-19,0,-73
-24,58,82,-17,-53,70,-48,-34,-39,-34,-19,-73
-29,48,78,-9,-53,63,-53,-58,-58,-43,-29,-82
-19,58,78,-19,-48,68,-63,-63,-58,-53,-34,-82
-9,58,68,-24,-39,63,-68,-68,-63,-58,-34,-82
-14,34,48,-9,-31,41,-78,-73,-78,-58,-34,-82
-24,14,39,4,-31,26,-92,-87,-97,-68,-34,-92
-24,29,53,-2,-39,41,-92,-87,-97,-68,-34,-87
-14,53,68,-19,-41,61,-92,-87,-102,-68,-39,-82
-14,48,63,-17,-39,56,-87,-92,-107,-68,-43,-82
-24,39,63,-7,-43,51,-87,-82,-107,-58,-34,-92
-24,39,63,-7,-43,51,-87,-82,-97,-58,-34,-92
-24,39,63,-7,-43,51,-87,-87,-107,-58,-34,-97
-19,34,53,-7,-36,43,-92,-92,-117,-58,-34,-97
-4,43,48,-19,-26,46,-92,-87,-102,-53,-29,-82
4,48,43,-26,-19,46,-87,-82,-97,-48,-19,-73
4,48,43,-26,-19,46,-87,-78,-97,-53,-14,-63
-14,43,58,-14,-36,51,-82,-73,-92,-48,-9,-53
0,53,53,-26,-26,53,-73,-78,-97,-53,-9,-63
0,63,63,-31,-31,63,-68,-73,-92,-43,0,-53
4,63,58,-34,-26,61,-68,-73,-92,-43,0,-53
4,58,53,-31,-24,56,-78,-78,-102,-53,-9,-63
-4,48,53,-21,-29,51,-87,-78,-102,-53,-19,-63
-9,58,68,-24,-39,63,-82,-68,-92,-43,-4,-53
-19,58,78,-19,-48,68,-82,-68,-92,-43,-4,-53
-24,58,82,-17,-53,70,-78,-68,-87,-43,-4,-53
-19,58,78,-19,-48,68,-63,-63,-87,-43,4,-48
-14,63,78,-24,-46,70,-58,-63,-82,-39,9,-48
0,68,68,-34,-34,68,-53,-63,-82,-39,9,-48
4,82,78,-43,-36,80,-48,-63,-82,-29,9,-48
-9,82,92,-36,-51,87,-48,-53,-82,-24,19,-48
-4,82,87,-39,-46,85,-53,-53,-82,-24,24,-43
14,82,68,-48,-26,75,-53,-53,-82,-24,24,-43
29,82,53,-56,-12,68,-58,-58,-82,-34,29,-43
14,82,68,-48,-26,75,-48,-58,-73,-24,29,-34
14,82,68,-48,-26,75,-48,-43,-63,-9,34,-34
24,87,63,-56,-19,75,-43,-43,-58,0,39,-34
14,87,73,-51,-29,80,-43,-43,-58,0,39,-34
-14,73,87,-29,-51,80,-34,-34,-48,14,53,-29
-4,82,87,-39,-46,85,-29,-19,-39,19,58,-19
0,82,82,-41,-41,82,-29,-9,-34,24,63,-9
0,78,78,-39,-39,78,-24,-9,-24,29,68,0
9,63,53,-36,-21,58,-39,-19,-24,24,63,0
14,63,48,-39,-17,56,-39,-19,-39,19,63,-4
14,58,43,-36,-14,51,-39,-19,-48,14,63,-9
14,53,39,-34,-12,46,-34,-19,-53,9,63,-14
19,39,19,-29,0,29,-39,-14,-43,0,58,-19
4,34,29,-19,-12,31,-39,-14,-43,0,53,-19
0,24,24,-12,-12,24,-43,-14,-48,-4,43,-24
0,4,4,-2,-2,4,-58,-29,-53,-9,29,-39
9,14,4,-12,2,9,-43,-24,-53,-9,29,-39
19,43,24,-31,-2,34,-34,-14,-48,-4,34,-34
39,68,29,-53,4,48,-19,-9,-48,-4,39,-34
48,78,29,-63,9,53,-14,-4,-43,-4,39,-34
29,53,24,-41,2,39,-14,-4,-48,-19,29,-48
0,29,29,-14,-14,29,-9,0,-48,-14,29,-43
-19,9,29,4,-24,19,-4,-4,-53,-19,24,-48
-39,-9,29,24,-34,9,-4,-9,-58,-24,19,-53
-43,4,48,19,-46,26,0,-9,-58,-24,19,-53
-14,19,34,-2,-24,26,0,-14,-63,-24,14,-53
9,29,19,-19,-4,24,4,-14,-63,-24,14,-53
14,34,19,-24,-2,26,14,-14,-58,-24,14,-53
-4,29,34,-12,-19,31,24,-9,-43,-9,19,-58
-4,29,34,-12,-19,31,34,-9,-43,-9,19,-58
-4,29,34,-12,-19,31,43,0,-43,-9,19,-58
-14,24,39,-4,-26,31,48,0,-39,-4,24,-58
-29,29,58,0,-43,43,43,-9,-48,-14,24,-53
-53,19,73,17,-63,46,34,-19,-53,-24,14,-58
-58,4,63,26,-61,34,14,-29,-63,-24,4,-68
-63,4,68,29,-65,36,19,-29,-63,-24,4,-63
-43,48,92,-2,-68,70,14,-34,-58,-9,9,-43
-24,58,82,-17,-53,70,14,-34,-53,-9,14,-43
9,63,53,-36,-21,58,14,-34,-53,-9,19,-43
24,73,48,-48,-12,61,9,-29,-53,-9,19,-39
19,82,63,-51,-21,73,-4,-39,-63,-19,19,-29
4,73,68,-39,-31,70,-14,-43,-68,-19,19,-43
-14,63,78,-24,-46,70,-19,-43,-73,-34,9,-48
-19,63,82,-21,-51,73,-24,-43,-73,-34,9,-48
9,102,92,-56,-41,97,-24,-34,-63,-4,24,-39
24,73,48,-48,-12,61,-43,-58,-82,-24,4,-58
-9,39,48,-14,-29,43,-53,-63,-82,-39,0,-63
-68,29,97,19,-82,63,-34,-43,-58,-19,9,-53
-78,39,117,19,-97,78,-29,-39,-58,-19,19,-48
-48,58,107,-4,-78,82,-34,-48,-63,-24,4,-58
-19,68,87,-24,-53,78,-39,-48,-68,-29,0,-58
9,78,68,-43,-29,73,-43,-48,-73,-34,-4,-58
39,87,48,-63,-4,68,-48,-48,-78,-39,-9,-58
19,73,53,-46,-17,63,-39,-39,-78,-29,0,-58
9,68,58,-39,-24,63,-48,-39,-73,-29,4,-58
-4,53,58,-24,-31,56,-53,-39,-73,-24,4,-58
-29,48,78,-9,-53,63,-53,-39,-73,-24,4,-58
-19,53,73,-17,-46,63,-53,-43,-87,-34,-4,-78
-14,58,73,-21,-43,65,-53,-43,-87,-43,-14,-78
-39,39,78,0,-58,58,-53,-39,-87,-48,-19,-78
-63,19,82,21,-73,51,-53,-29,-82,-39,-14,-73
4,78,73,-41,-34,75,-48,-14,-63,-29,0,-53
48,97,48,-73,0,73,-34,-14,-53,-19,9,-43
53,122,68,-87,-7,95,-19,-9,-43,-9,19,-34
78,151,73,-114,2,112,-4,-4,-34,0,29,-24
58,136,78,-97,-9,107,4,4,-34,0,34,-14
29,122,92,-75,-31,107,0,-4,-39,0,29,-19
29,126,97,-78,-34,112,0,4,-39,0,29,-19
34,126,92,-80,-29,109,0,14,-39,4,24,-19
24,107,82,-65,-29,95,-4,-4,-43,-9,14,-29
24,92,68,-58,-21,80,-9,-14,-48,-19,14,-39
0,87,87,-43,-43,87,-19,-14,-53,-24,4,-48
0,73,73,-36,-36,73,-24,-14,-63,-29,-4,-58
14,58,43,-36,-14,51,-14,-9,-53,-19,4,-48
4,73,68,-39,-31,70,-9,0,-53,-19,9,-39
-14,43,58,-14,-36,51,-9,4,-53,-24,9,-39
-39,34,73,2,-56,53,-19,-4,-58,-29,-4,-48
-39,43,82,-2,-61,63,-4,0,-63,-34,0,-48
-14,39,53,-12,-34,46,0,4,-48,-24,0,-48
-4,63,68,-29,-36,65,4,14,-43,-14,9,-39
4,48,43,-26,-19,46,9,19,-39,-14,14,-34
-9,39,48,-14,-29,43,9,9,-43,-29,9,-39
-24,19,43,2,-34,31,4,4,-53,-39,-4,-48
-19,9,29,4,-24,19,0,0,-58,-48,-14,-63
19,19,0,-19,9,9,0,0,-73,-58,-24,-68
39,9,-29,-24,34,-9,4,0,-82,-68,-29,-78
0,4,4,-2,-2,4,9,0,-78,-63,-29,-73
-19,4,24,7,-21,14,19,9,-73,-58,-29,-73
-19,4,24,7,-21,14,24,9,-73,-58,-34,-73
-14,-24,-9,19,-2,-17,14,0,-78,-73,-48,-87
-9,-34,-24,21,7,-29,9,-4,-92,-82,-53,-87
-9,-34,-24,21,7,-29,9,-9,-87,-87,-53,-87
-9,-29,-19,19,4,-24,4,-14,-92,-92,-58,-87
-24,-29,-4,26,-9,-17,9,-14,-102,-82,-58,-87
-34,-39,-4,36,-14,-21,14,-14,-102,-82,-58,-87
-39,-29,9,34,-24,-9,19,-9,-102,-82,-58,-82
-24,-4,19,14,-21,7,34,-9,-102,-82,-58,-82
4,-9,-14,2,9,-12,39,0,-92,-82,-48,-82
-9,-9,0,9,-4,-4,43,0,-92,-87,-48,-87
0,-24,-24,12,12,-24,48,0,-92,-87,-53,-87
14,-19,-34,2,24,-26,53,-9,-102,-87,-58,-92
-4,-34,-29,19,12,-31,63,-19,-112,-87,-68,-92
-24,-29,-4,26,-9,-17,63,-4,-97,-78,-63,-82
-34,-19,14,26,-24,-2,78,-4,-97,-78,-53,-82
-68,-34,34,51,-51,0,63,-9,-102,-92,-63,-92
-63,-43,19,53,-41,-12,58,-9,-102,-82,-53,-102
-58,-29,29,43,-43,0,58,-9,-102,-82,-53,-102
-53,-9,43,31,-48,17,58,-9,-102,-82,-53,-102
-43,19,63,12,-53,41,58,-14,-107,-82,-63,-102
-4,29,34,-12,-19,31,53,-24,-107,-82,-53,-92
9,43,34,-26,-12,39,48,-24,-107,-78,-43,-87
19,53,34,-36,-7,43,43,-24,-102,-78,-43,-87
29,63,34,-46,-2,48,39,-19,-97,-78,-39,-87
4,58,53,-31,-24,56,29,-24,-92,-78,-39,-87
-19,58,78,-19,-48,68,24,-29,-97,-78,-34,-87
-19,58,78,-19,-48,68,14,-34,-102,-78,-48,-87
-29,53,82,-12,-56,68,9,-43,-117,-78,-58,-87
-39,39,78,0,-58,58,9,-43,-117,-87,-58,-92
-58,24,82,17,-70,53,4,-43,-117,-78,-58,-92
-68,34,102,17,-85,68,-4,-43,-112,-73,-58,-92
-58,34,92,12,-75,63,-9,-43,-112,-73,-48,-87
-39,48,87,-4,-63,68,-14,-48,-117,-82,-63,-97
-39,43,82,-2,-61,63,-4,-53,-117,-78,-63,-97
-39,43,82,-2,-61,63,-9,-48,-122,-92,-68,-97
-19,48,68,-14,-43,58,-14,-53,-122,-97,-73,-97
0,82,82,-41,-41,82,-4,-34,-97,-68,-43,-78
29,87,58,-58,-14,73,4,-19,-97,-58,-34,-78
43,92,48,-68,-2,70,4,-19,-92,-68,-39,-82
43,92,48,-68,-2,70,14,-19,-97,-73,-43,-78
19,73,53,-46,-17,63,24,-9,-87,-78,-48,-68
0,34,34,-17,-17,34,24,-9,-97,-87,-73,-78
-9,-9,0,9,-4,-4,-9,-29,-131,-126,-107,-97
-39,-14,24,26,-31,4,-29,-43,-165,-161,-122,-117
-29,4,34,12,-31,19,-29,-63,-200,-204,-151,-136
0,4,4,-2,-2,4,-43,-112,-268,-278,-214,-180
-9,-43,-34,26,12,-39,-82,-170,-346,-356,-292,-239
-29,-63,-34,46,2,-48,-117,-224,-419,-409,-341,-258
-9,-24,-14,17,2,-19,-136,-263,-463,-453,-356,-244
0,-14,-14,7,7,-14,-175,-336,-522,-517,-414,-258
-29,-68,-39,48,4,-53,-229,-395,-580,-595,-488,-287
-34,-87,-53,61,9,-70,-283,-453,-639,-653,-522,-287
24,-97,-122,36,73,-109,-351,-507,-688,-678,-522,-268
43,-131,-175,43,109,-153,-405,-551,-732,-697,-517,-248
73,-146,-219,36,146,-183,-473,-610,-795,-717,-507,-200
161,-87,-248,-36,204,-168,-522,-668,-834,-697,-439,-107
219,-53,-273,-82,246,-163,-566,-707,-854,-658,-361,0
253,-63,-317,-95,285,-190,-614,-741,-912,-668,-317,87
351,-34,-385,-158,368,-209,-692,-814,-1010,-732,-317,151
483,43,-439,-263,461,-197,-751,-897,-1141,-814,-341,190
561,48,-512,-305,536,-231,-824,-976,-1332,-1010,-468,136
551,-24,-575,-263,563,-300,-902,-1063,-1566,-1317,-707,4
575,-24,-600,-275,588,-312,-976,-1180,-1800,-1590,-897,-78
649,14,-634,-331,641,-309,-1015,-1278,-2000,-1800,-1015,-102
707,39,-668,-373,688,-314,-1034,-1356,-2142,-1922,-1093,-92
746,97,-649,-422,697,-275,-1005,-1346,-2117,-1883,-1034,0
736,204,-531,-470,634,-163,-927,-1278,-1971,-1708,-834,200
649,322,-326,-485,488,-2,-814,-1220,-1815,-1478,-556,463
561,463,-97,-512,329,183,-697,-1156,-1644,-1205,-244,741
546,585,39,-566,253,312,-605,-1127,-1498,-946,29,961
536,610,73,-573,231,341,-561,-1122,-1429,-844,185,1098
448,551,102,-500,173,326,-522,-1093,-1381,-795,278,1171
361,507,146,-434,107,326,-468,-1019,-1317,-746,346,1215
331,497,165,-414,82,331,-400,-936,-1249,-707,361,1176
273,434,161,-353,56,297,-326,-854,-1161,-658,366,1083
214,346,131,-280,41,239,-268,-775,-1054,-546,419,976
165,278,112,-222,26,195,-195,-673,-927,-414,473,844
19,161,141,-90,-61,151,-107,-541,-775,-302,463,629
-117,43,161,36,-139,102,-14,-395,-634,-239,380,385
-117,-4,112,61,-114,53,63,-287,-546,-200,317,209
-58,0,58,29,-58,29,102,-214,-497,-190,278,146
-39,-19,19,29,-29,0,97,-156,-458,-180,244,117
-97,-78,19,87,-58,-29,97,-87,-375,-136,209,63
-185,-136,48,161,-117,-43,92,-24,-263,-63,209,48
-136,-97,39,117,-87,-29,82,0,-180,-4,219,68
-19,-24,-4,21,-7,-14,53,4,-136,24,219,73
-4,-9,-4,7,0,-7,58,48,-78,87,244,97
-24,-19,4,21,-14,-7,73,117,14,175,297,112
0,-9,-9,4,4,-9,92,170,92,229,322,112
-19,-14,4,17,-12,-4,122,209,141,258,341,97
-24,-34,-9,29,-7,-21,131,200,146,244,302,78
-34,-9,24,21,-29,7,131,195,151,239,297,73
-34,0,34,17,-34,17,131,180,151,229,278,68
-43,-9,34,26,-39,12,131,175,146,219,258,68
-39,-4,34,21,-36,14,141,170,136,200,229,58
-43,-19,24,31,-34,2,141,170,131,190,204,43
-53,9,63,21,-58,36,146,175,131,190,195,39
-58,34,92,12,-75,63,156,175,131,185,190,39
-48,43,92,2,-70,68,151,161,136,175,180,48
-29,53,82,-12,-56,68,141,156,141,170,175,48
-9,63,73,-26,-41,68,122,146,136,156,161,39
9,82,73,-46,-31,78,112,126,122,156,161,34
24,87,63,-56,-19,75,107,126,136,165,175,39
19,87,68,-53,-24,78,102,136,146,180,190,53
4,87,82,-46,-39,85,97,146,156,195,200,63
-9,87,97,-39,-53,92,92,146,165,200,209,68
-14,97,112,-41,-63,104,92,156,165,209,200,68
-14,102,117,-43,-65,109,87,156,180,214,200,73
-29,102,131,-36,-80,117,82,156,170,214,200,73
-14,107,122,-46,-68,114,78,156,170,214,200,73
-14,117,131,-51,-73,124,87,170,185,234,219,82
-14,122,136,-53,-75,129,87,185,190,244,234,92
-14,117,131,-51,-73,124,87,185,200,248,239,92
-19,117,136,-48,-78,126,92,180,214,258,244,92
-9,107,117,-48,-63,112,82,180,214,263,248,82
-9,117,126,-53,-68,122,87,180,214,268,248,87
-24,117,141,-46,-82,129,87,180,219,273,248,87
-34,117,151,-41,-92,134,87,180,219,273,253,97
-4,122,126,-58,-65,124,92,185,224,283,258,107
14,136,122,-75,-53,129,92,200,234,287,258,107
0,136,136,-68,-68,136,92,204,239,292,268,102
9,117,107,-63,-48,112,87,209,248,297,278,102
14,131,117,-73,-51,124,87,219,268,307,297,117
4,136,131,-70,-63,134,92,224,283,317,307,126
-9,141,151,-65,-80,146,102,229,292,326,312,131
-19,151,170,-65,-95,161,117,234,302,331,326,146
-14,156,170,-70,-92,163,112,224,292,336,326,146
-4,141,146,-68,-75,143,107,224,287,341,322,146
0,126,126,-63,-63,126,102,229,292,346,312,146
0,107,107,-53,-53,107,97,239,302,346,307,141
-9,102,112,-46,-61,107,92,253,317,361,312,146
-24,97,122,-36,-73,109,107,258,317,361,322,146
-29,92,122,-31,-75,107,112,263,326,361,331,151
-19,87,107,-34,-63,97,102,268,326,361,336,151
9,102,92,-56,-41,97,112,268,326,375,336,146
19,107,87,-63,-34,97,117,268,336,380,341,151
29,107,78,-68,-24,92,117,268,336,380,341,151
14,112,97,-63,-41,104,117,268,336,385,351,151
14,112,97,-63,-41,104,112,273,336,390,356,151
34,117,82,-75,-24,100,117,287,361,395,370,161
43,126,82,-85,-19,104,112,287,361,400,366,165
14,107,92,-61,-39,100,107,287,361,395,361,165
-14,82,97,-34,-56,90,117,278,351,405,361,170
0,92,92,-46,-46,92,122,278,351,414,366,175
19,87,68,-53,-24,78,122,278,366,419,375,180
14,82,68,-48,-26,75,117,292,370,424,375,190
-4,78,82,-36,-43,80,131,302,375,419,375,180
4,78,73,-41,-34,75,141,312,380,424,380,180
4,78,73,-41,-34,75,146,317,390,429,385,185
-9,82,92,-36,-51,87,161,322,400,439,385,200
-43,73,117,-14,-80,95,161,326,414,439,400,200
-48,68,117,-9,-82,92,161,336,414,444,400,200
-48,58,107,-4,-78,82,146,317,414,444,395,190
-34,58,92,-12,-63,75,146,326,414,448,395,180
-9,78,87,-34,-48,82,151,322,424,453,400,190
19,97,78,-58,-29,87,161,336,424,463,405,195
63,126,63,-95,0,95,165,346,434,468,419,195
78,131,53,-104,12,92,170,346,434,478,419,200
53,122,68,-87,-7,95,180,356,448,478,424,209
14,112,97,-63,-41,104,180,356,453,478,424,209
29,117,87,-73,-29,102,180,361,458,492,434,214
43,107,63,-75,-9,85,180,366,468,507,448,219
29,117,87,-73,-29,102,170,366,468,502,444,214
34,112,78,-73,-21,95,180,375,483,512,453,209
29,112,82,-70,-26,97,180,375,483,517,453,214
39,107,68,-73,-14,87,180,370,492,517,448,209
29,117,87,-73,-29,102,170,366,497,527,458,219
29,131,102,-80,-36,117,170,370,502,541,468,224
19,131,112,-75,-46,122,161,370,517,546,473,229
-9,112,122,-51,-65,117,161,385,536,561,488,239
-14,117,131,-51,-73,124,161,380,551,580,492,239
4,146,141,-75,-68,143,165,395,561,595,512,253
9,146,136,-78,-63,141,156,395,561,595,512,253
9,136,126,-73,-58,131,146,400,556,590,497,244
14,156,141,-85,-63,148,146,405,570,614,502,263
24,175,151,-100,-63,163,156,424,585,619,527,273
29,175,146,-102,-58,161,156,429,590,629,536,283
34,195,161,-114,-63,178,151,429,595,634,556,283
34,195,161,-114,-63,178,151,439,605,649,561,283
39,190,151,-114,-56,170,151,439,619,658,561,287
53,195,141,-124,-43,168,156,444,624,663,561,287
58,204,146,-131,-43,175,156,444,634,663,561,287
48,209,161,-129,-56,185,151,448,649,678,566,297
24,204,180,-114,-78,192,151,458,653,683,570,297
9,200,190,-104,-90,195,151,458,653,683,570,292
0,195,195,-97,-97,195,151,453,653,678,570,287
9,190,180,-100,-85,185,161,463,668,678,575,292
9,209,200,-109,-95,204,165,473,683,697,585,302
14,214,200,-114,-92,207,180,492,697,707,595,312
24,219,195,-122,-85,207,185,502,702,717,605,322
9,219,209,-114,-100,214,185,502,712,717,605,322
-4,219,224,-107,-114,222,190,502,712,707,590,322
-9,214,224,-102,-117,219,190,512,702,697,585,322
0,214,214,-107,-107,214,185,497,697,697,585,317
0,224,224,-112,-112,224,195,507,683,688,570,292
34,224,190,-129,-78,207,185,507,673,673,561,292
48,224,175,-136,-63,200,180,497,663,663,551,278
63,224,161,-143,-48,192,180,497,653,649,536,268
34,209,175,-122,-70,192,165,478,629,619,517,253
24,185,161,-104,-68,173,165,458,614,600,507,229
34,170,136,-102,-51,153,165,444,595,575,473,219
34,146,112,-90,-39,129,165,439,580,556,448,209
39,141,102,-90,-31,122,175,444,561,551,439,200
39,136,97,-87,-29,117,175,429,546,527,429,195
29,122,92,-75,-31,107,170,424,527,497,409,185
29,107,78,-68,-24,92,175,409,507,468,385,180
19,97,78,-58,-29,87,170,395,478,439,361,175
14,73,58,-43,-21,65,170,375,458,400,326,151
14,53,39,-34,-12,46,165,351,409,356,292,117
9,48,39,-29,-14,43,156,331,375,322,263,92
9,34,24,-21,-7,29,161,317,331,287,234,73
14,14,0,-14,7,7,151,302,297,248,209,63
29,9,-19,-19,24,-4,146,283,283,219,195,58
53,4,-48,-29,51,-21,141,273,268,190,170,39
43,-19,-63,-12,53,-41,146,258,229,170,136,24
19,-34,-53,7,36,-43,141,234,190,136,117,9
19,-48,-68,14,43,-58,136,209,156,102,92,-4
34,-48,-82,7,58,-65,126,190,126,68,63,-14
39,-58,-97,9,68,-78,136,180,117,53,48,-14
29,-73,-102,21,65,-87,136,165,92,39,34,-24
14,-78,-92,31,53,-85,131,161,73,14,24,-34
19,-97,-117,39,68,-107,126,151,63,0,14,-34
19,-92,-112,36,65,-102,141,156,53,-4,9,-29
29,-82,-112,26,70,-97,146,146,43,-4,4,-43
34,-63,-97,14,65,-80,146,136,29,-19,0,-48
29,-73,-102,21,65,-87,146,126,19,-19,0,-53
19,-87,-107,34,63,-97,151,112,9,-24,-14,-43
29,-78,-107,24,68,-92,151,107,9,-24,-4,-34
39,-68,-107,14,73,-87,146,107,9,-24,4,-34
24,-87,-112,31,68,-100,146,102,0,-34,-9,-34
14,-87,-102,36,58,-95,146,92,-14,-19,-9,-34
19,-78,-97,29,58,-87,141,92,-9,-24,-4,-34
24,-78,-102,26,63,-90,141,92,-9,-24,4,-34
14,-102,-117,43,65,-109,136,92,-19,-19,14,-34
0,-122,-122,61,61,-122,122,73,-39,-34,4,-43
4,-107,-112,51,58,-109,122,68,-39,-39,4,-39
19,-82,-102,31,61,-92,122,63,-43,-43,0,-34
24,-87,-112,31,68,-100,126,53,-48,-48,-4,-34
4,-87,-92,41,48,-90,117,53,-48,-39,4,-43
-4,-87,-82,46,39,-85,117,53,-39,-39,4,-43
-14,-87,-73,51,29,-80,117,48,-48,-39,4,-48
-19,-92,-73,56,26,-82,112,43,-58,-39,4,-48
-4,-78,-73,41,34,-75,97,34,-58,-39,-4,-43
14,-78,-92,31,53,-85,97,34,-58,-39,0,-43
24,-82,-107,29,65,-95,92,34,-63,-48,0,-43
14,-92,-107,39,61,-100,92,34,-63,-48,0,-43
0,-92,-92,46,46,-92,92,39,-58,-34,9,-43
-9,-82,-73,46,31,-78,97,43,-53,-24,19,-34
-14,-82,-68,48,26,-75,97,43,-53,-24,19,-34
-24,-87,-63,56,19,-75,87,39,-63,-34,9,-43
-24,-78,-53,51,14,-65,92,43,-48,-24,19,-24
-19,-58,-39,39,9,-48,102,58,-34,-4,43,-4
-19,-48,-29,34,4,-39,107,63,-29,4,53,4
-14,-39,-24,26,4,-31,117,68,-19,14,63,14
-4,-43,-39,24,17,-41,107,63,-19,4,63,9
-4,-43,-39,24,17,-41,107,63,-14,9,68,9
4,-43,-48,19,26,-46,107,63,-14,9,68,9
4,-34,-39,14,21,-36,107,63,-14,19,68,9
-9,-53,-43,31,17,-48,97,73,-4,24,58,9
-4,-53,-48,29,21,-51,92,73,-4,24,63,14
14,-53,-68,19,41,-61,92,73,-4,24,63,14
29,-53,-82,12,56,-68,87,68,-4,14,68,14
0,-53,-53,26,26,-53,92,73,4,24,73,34
-4,-53,-48,29,21,-51,97,92,14,39,82,34
0,-48,-48,24,24,-48,107,97,19,48,92,34
-14,-48,-34,31,9,-41,112,102,19,48,97,34
-24,-58,-34,41,4,-46,107,92,14,34,82,14
-4,-43,-39,24,17,-41,107,97,9,29,78,9
9,-39,-48,14,29,-43,102,97,0,24,73,4
19,-39,-58,9,39,-48,102,87,-4,19,68,0
34,-48,-82,7,58,-65,107,97,9,19,63,-4
34,-53,-87,9,61,-70,107,97,0,19,63,-4
29,-63,-92,17,61,-78,107,97,-4,19,63,-4
24,-73,-97,24,61,-85,112,97,-4,19,63,-4
29,-73,-102,21,65,-87,122,102,-4,19,73,-4
14,-73,-87,29,51,-80,126,102,-4,19,73,0
9,-78,-87,34,48,-82,126,102,-9,14,68,0
9,-92,-102,41,56,-97,117,87,-14,9,58,-9
0,-102,-102,51,51,-102,122,97,-4,19,68,0
9,-82,-92,36,51,-87,131,102,0,24,73,4
29,-68,-97,19,63,-82,146,102,0,24,78,4
39,-68,-107,14,73,-87,151,102,4,24,78,4
34,-92,-126,29,80,-109,136,102,-9,9,73,-9
9,-107,-117,48,63,-112,136,107,-9,14,68,-4
-4,-117,-112,61,53,-114,136,102,-14,9,58,-9
-19,-126,-107,73,43,-117,131,97,-19,4,48,-14
-24,-117,-92,70,34,-104,131,97,-14,4,58,-4
4,-97,-102,46,53,-100,126,92,-14,4,53,-4
29,-82,-112,26,70,-97,126,92,-9,4,53,-4
34,-73,-107,19,70,-90,131,92,0,4,53,-4
34,-63,-97,14,65,-80,131,92,-4,9,58,-9
34,-58,-92,12,63,-75,131,87,-4,9,58,-9
34,-53,-87,9,61,-70,131,92,-4,9,58,-9
24,-53,-78,14,51,-65,126,87,0,14,63,-9
14,-63,-78,24,46,-70,126,87,-9,14,53,0
-14,-78,-63,46,24,-70,122,78,-14,4,43,-9
-24,-97,-73,61,24,-85,107,68,-24,4,34,-24
-34,-102,-68,68,17,-85,117,68,-24,4,34,-24
-19,-82,-63,51,21,-73,102,58,-34,4,29,-19
-4,-78,-73,41,34,-75,102,53,-34,0,34,-24
24,-78,-102,26,63,-90,102,48,-39,-4,39,-29
34,-73,-107,19,70,-90,97,48,-43,-9,39,-29
19,-82,-102,31,61,-92,107,39,-43,-19,34,-19
-4,-102,-97,53,46,-100,102,34,-48,-19,29,-34
-34,-122,-87,78,26,-104,102,34,-53,-34,14,-39
-48,-131,-82,90,17,-107,102,34,-53,-34,9,-39
-24,-102,-78,63,26,-90,112,43,-48,-19,19,-34
-4,-92,-87,48,41,-90,112,39,-43,-24,24,-29
-14,-97,-82,56,34,-90,102,34,-39,-24,14,-29
-29,-87,-58,58,14,-73,102,34,-39,-19,19,-24
-19,-73,-53,46,17,-63,112,48,-29,-4,29,-14
-4,-63,-58,34,26,-61,122,48,-24,0,34,-9
9,-58,-68,24,39,-63,131,53,-24,0,34,-9
39,-58,-97,9,68,-78,136,53,-24,-9,29,-9
0,-87,-87,43,43,-87,122,34,-43,-19,29,-24
-24,-87,-63,56,19,-75,117,34,-43,-19,29,-24
0,-73,-73,36,36,-73,126,43,-34,-9,34,-14
-4,-68,-63,36,29,-65,122,48,-34,-9,39,-14
-14,-58,-43,36,14,-51,126,53,-34,0,48,-9
-24,-58,-34,41,4,-46,126,58,-29,0,39,-9
-34,-58,-24,46,-4,-41,126,63,-29,-4,34,-14
-48,-63,-14,56,-17,-39,122,63,-29,-4,29,-14
-34,-53,-19,43,-7,-36,122,73,-19,-4,39,-14
-19,-58,-39,39,9,-48,122,73,-19,0,48,-14
-4,-58,-53,31,24,-56,136,73,-19,-4,39,-14
9,-58,-68,24,39,-63,136,73,-9,0,39,-9
9,-48,-58,19,34,-53,122,68,-19,9,34,-19
29,-43,-73,7,51,-58,117,68,-19,4,34,-24
0,-73,-73,36,36,-73,112,68,-29,-4,34,-24
-39,-92,-53,65,7,-73,107,68,-29,-9,34,-24
-43,-58,-14,51,-14,-36,131,82,-9,0,43,-14
-24,-39,-14,31,-4,-26,136,92,0,4,53,-9
-24,-43,-19,34,-2,-31,131,97,0,9,48,-4
-29,-34,-4,31,-12,-19,136,102,4,14,53,4
-24,-53,-29,39,2,-41,131,102,-9,9,53,-4
-24,-63,-39,43,7,-51,131,102,-9,4,53,-4
-14,-53,-39,34,12,-46,141,112,-4,4,58,0
4,-43,-48,19,26,-46,141,112,0,9,58,0
14,-68,-82,26,48,-75,131,102,-9,-14,43,-19
19,-68,-87,24,53,-78,131,82,-24,-19,29,-19
19,-63,-82,21,51,-73,131,87,-24,-19,24,-19
4,-58,-63,26,34,-61,131,82,-14,-14,24,-14
0,-63,-63,31,31,-63,126,73,-19,-19,14,-19
4,-68,-73,31,39,-70,126,68,-29,-34,14,-24
0,-82,-82,41,41,-82,126,68,-39,-39,4,-43
-34,-102,-68,68,17,-85,126,68,-43,-43,4,-48
-14,-112,-97,63,41,-104,131,68,-43,-39,9,-43
14,-82,-97,34,56,-90,141,78,-34,-39,14,-43
14,-82,-97,34,56,-90,141,78,-34,-39,14,-43
4,-97,-102,46,53,-100,136,73,-43,-43,4,-48
0,-102,-102,51,51,-102,122,78,-48,-48,0,-53
-4,-112,-107,58,51,-109,112,78,-48,-53,0,-53
-9,-97,-87,53,39,-92,126,78,-48,-53,0,-53
-19,-97,-78,58,29,-87,141,78,-48,-48,0,-48
-34,-92,-58,63,12,-75,141,68,-63,-48,0,-48
-34,-102,-68,68,17,-85,131,63,-63,-48,0,-53
-24,-102,-78,63,26,-90,131,63,-63,-48,0,-53
4,-82,-87,39,46,-85,131,63,-63,-48,4,-48
29,-68,-97,19,63,-82,126,48,-78,-58,0,-53
29,-63,-92,17,61,-78,126,48,-82,-63,-14,-63
9,-63,-73,26,41,-68,126,48,-82,-63,-19,-68
19,-63,-82,21,51,-73,126,48,-78,-63,-19,-73
39,-78,-117,19,78,-97,122,48,-82,-68,-14,-78
34,-82,-117,24,75,-100,122,43,-78,-63,-14,-68
0,-92,-92,46,46,-92,122,43,-78,-63,-14,-68
-34,-107,-73,70,19,-90,122,43,-78,-63,-14,-68
-43,-107,-63,75,9,-85,107,34,-92,-73,-24,-73
