I,II,III,aVR,aVL,aVF,V1,V2,V3,V4,V5,V6
-146,-92,53,119,-100,-19,497,-112,112,73,-458,-170
-146,-73,73,109,-109,0,497,-112,122,78,-453,-165
-136,-48,87,92,-112,19,507,-97,126,87,-434,-161
-117,-48,68,82,-92,9,507,-92,136,92,-429,-151
-122,-39,82,80,-102,21,502,-78,136,97,-424,-151
-122,-29,92,75,-107,31,512,-78,146,107,-424,-151
-112,-19,92,65,-102,36,512,-73,151,112,-419,-146
-97,4,102,46,-100,53,522,-63,161,122,-409,-146
-87,4,92,41,-90,48,522,-58,180,146,-395,-131
-82,0,82,41,-82,41,507,-53,190,151,-385,-126
-82,0,82,41,-82,41,507,-39,204,170,-375,-117
-68,4,73,31,-70,39,512,-29,209,180,-356,-107
-53,14,68,19,-61,41,512,-29,209,190,-356,-102
-48,29,78,9,-63,53,517,-29,209,190,-356,-97
-43,39,82,2,-63,61,517,-34,219,195,-351,-97
-34,48,82,-7,-58,65,517,-39,224,204,-346,-92
-34,39,73,-2,-53,56,527,-19,244,224,-341,-92
-34,34,68,0,-51,51,527,-4,253,234,-331,-92
-29,29,58,0,-43,43,527,9,263,248,-326,-87
-24,39,63,-7,-43,51,527,24,278,263,-322,-82
-24,48,73,-12,-48,61,536,14,278,278,-297,-68
-19,53,73,-17,-46,63,527,0,278,283,-297,-63
-14,58,73,-21,-43,65,512,-9,278,283,-297,-58
-9,68,78,-29,-43,73,502,-29,268,287,-297,-58
-4,73,78,-34,-41,75,502,-48,244,297,-297,-58
-9,68,78,-29,-43,73,507,-68,224,287,-307,-58
-19,53,73,-17,-46,63,507,-87,214,283,-312,-53
-24,48,73,-12,-48,61,512,-87,204,287,-312,-53
-4,43,48,-19,-26,46,517,-92,190,287,-322,-63
-4,43,48,-19,-26,46,522,-97,180,283,-322,-68
-19,39,58,-9,-39,48,531,-97,165,283,-322,-73
-9,39,48,-14,-29,43,536,-102,156,283,-317,-78
19,68,48,-43,-14,58,536,-87,156,292,-307,-73
39,78,39,-58,0,58,541,-82,156,302,-297,-58
53,82,29,-68,12,56,541,-78,156,312,-283,-53
63,87,24,-75,19,56,541,-73,156,322,-273,-43
53,73,19,-63,17,46,541,-82,141,322,-273,-43
43,63,19,-53,12,41,541,-82,141,322,-273,-43
53,63,9,-58,21,36,541,-73,146,326,-268,-43
53,63,9,-58,21,36,551,-63,156,336,-263,-43
43,63,19,-53,12,41,546,-63,170,351,-248,-34
24,53,29,-39,-2,41,546,-58,170,351,-239,-34
19,53,34,-36,-7,43,546,-58,170,351,-234,-34
14,48,34,-31,-9,41,551,-53,170,346,-229,-34
14,39,24,-26,-4,31,546,-68,161,346,-229,-43
0,19,19,-9,-9,19,546,-82,151,322,-244,-63
-4,4,9,0,-7,7,556,-87,136,312,-263,-73
-14,-14,0,14,-7,-7,556,-92,136,312,-268,-82
-34,-19,14,26,-24,-2,561,-92,136,302,-273,-87
-29,-29,0,29,-14,-14,561,-97,112,287,-283,-102
-24,-39,-14,31,-4,-26,556,-107,107,278,-292,-112
-29,-53,-24,41,-2,-39,556,-112,92,278,-292,-112
-14,-48,-34,31,9,-41,561,-117,87,278,-287,-107
-14,-48,-34,31,9,-41,566,-122,73,273,-287,-112
-9,-43,-34,26,12,-39,566,-126,68,278,-283,-112
-9,-48,-39,29,14,-43,566,-131,63,283,-278,-112
-19,-39,-19,29,0,-29,561,-141,43,283,-273,-102
-9,-39,-29,24,9,-34,561,-141,24,283,-278,-107
-9,-48,-39,29,14,-43,561,-141,14,283,-278,-107
-14,-48,-34,31,9,-41,566,-136,9,287,-273,-107
-29,-39,-9,34,-9,-24,566,-141,0,287,-273,-117
-43,-43,0,43,-21,-21,566,-146,-4,287,-273,-117
-43,-63,-19,53,-12,-41,566,-151,-4,287,-273,-117
-39,-68,-29,53,-4,-48,566,-156,-4,287,-273,-117
-34,-53,-19,43,-7,-36,566,-165,-19,297,-258,-112
-34,-58,-24,46,-4,-41,566,-165,-24,292,-258,-112
-34,-73,-39,53,2,-56,570,-170,-34,292,-268,-117
-48,-78,-29,63,-9,-53,575,-170,-39,287,-273,-122
-39,-68,-29,53,-4,-48,580,-165,-53,287,-273,-126
-34,-43,-9,39,-12,-26,580,-151,-39,292,-283,-131
-34,-14,19,24,-26,2,580,-112,-19,287,-312,-151
-43,-9,34,26,-39,12,585,-53,24,287,-331,-161
-68,-29,39,48,-53,4,580,-4,58,302,-336,-185
-102,-68,34,85,-68,-17,585,24,102,336,-326,-204
-131,-82,48,107,-90,-17,585,63,165,429,-258,-185
-136,-73,63,104,-100,-4,590,122,258,566,-146,-131
-87,-39,48,63,-68,4,585,200,395,746,19,-58
-9,9,19,0,-14,14,585,278,541,961,214,39
24,34,9,-29,7,21,585,351,692,1176,409,165
43,39,-4,-41,24,17,590,424,834,1395,610,263
102,68,-34,-85,68,17,595,483,995,1659,873,400
190,126,-63,-158,126,31,595,522,1127,1956,1215,590
268,170,-97,-219,183,36,595,522,1215,2220,1532,790
336,219,-117,-278,226,51,600,492,1288,2435,1790,941
424,312,-112,-368,268,100,595,458,1400,2674,2064,1112
517,434,-82,-475,300,175,600,448,1546,2957,2366,1322
561,527,-34,-544,297,246,600,448,1678,3186,2576,1473
595,624,29,-610,283,326,600,419,1742,3289,2649,1542
629,732,102,-680,263,417,605,414,1751,3303,2649,1600
692,751,58,-722,317,405,600,424,1712,3230,2552,1586
712,614,-97,-663,405,258,600,424,1590,3035,2259,1410
634,385,-248,-509,441,68,610,390,1434,2762,1834,1098
468,190,-278,-329,373,-43,610,283,1166,2386,1327,751
312,78,-234,-195,273,-78,610,14,605,1722,668,375
190,-29,-219,-80,204,-124,610,-336,-151,849,-107,-24
48,-151,-200,51,124,-175,614,-610,-814,-9,-751,-336
-48,-214,-165,131,58,-190,614,-790,-1342,-722,-1117,-468
-117,-219,-102,168,-7,-161,614,-844,-1605,-1117,-1283,-522
-224,-214,9,219,-117,-102,614,-741,-1517,-1068,-1254,-561
-283,-204,78,244,-180,-63,614,-600,-1298,-800,-1093,-536
-253,-214,39,234,-146,-87,619,-434,-1132,-605,-951,-478
-214,-239,-24,226,-95,-131,619,-239,-971,-458,-863,-458
-214,-229,-14,222,-100,-122,619,-73,-810,-322,-800,-458
-195,-204,-9,200,-92,-107,614,39,-683,-209,-732,-458
-190,-244,-53,217,-68,-148,619,131,-595,-126,-678,-458
-229,-302,-73,265,-78,-187,624,170,-527,-58,-634,-463
-229,-302,-73,265,-78,-187,619,161,-492,-9,-595,-448
-190,-292,-102,241,-43,-197,619,180,-448,34,-546,-409
-185,-287,-102,236,-41,-195,629,180,-400,92,-502,-366
-185,-258,-73,222,-56,-165,624,141,-361,146,-453,-341
-141,-219,-78,180,-31,-148,624,107,-302,214,-405,-302
-102,-180,-78,141,-12,-129,629,87,-229,292,-351,-263
-107,-170,-63,139,-21,-117,634,24,-190,341,-312,-239
-87,-141,-53,114,-17,-97,634,-53,-185,356,-278,-204
-43,-82,-39,63,-2,-61,629,-92,-185,366,-248,-175
-34,-53,-19,43,-7,-36,634,-122,-195,366,-239,-175
-58,-68,-9,63,-24,-39,629,-146,-204,366,-244,-170
-48,-68,-19,58,-14,-43,629,-146,-200,370,-244,-180
-48,-58,-9,53,-19,-34,634,-146,-204,375,-239,-180
-53,-63,-9,58,-21,-36,634,-146,-209,390,-234,-175
-53,-82,-29,68,-12,-56,634,-165,-224,400,-244,-175
-53,-82,-29,68,-12,-56,634,-180,-229,400,-244,-170
-43,-82,-39,63,-2,-61,619,-195,-229,405,-234,-165
-43,-82,-39,63,-2,-61,634,-200,-224,414,-224,-161
-58,-78,-19,68,-19,-48,639,-204,-234,419,-209,-156
-58,-68,-9,63,-24,-39,639,-204,-234,424,-209,-151
-53,-63,-9,58,-21,-36,639,-204,-229,434,-204,-151
-48,-63,-14,56,-17,-39,639,-204,-224,439,-195,-146
-39,-53,-14,46,-12,-34,639,-209,-229,444,-200,-141
-43,-43,0,43,-21,-21,639,-204,-229,458,-190,-131
-43,-43,0,43,-21,-21,649,-195,-234,468,-170,-126
-43,-34,9,39,-26,-12,658,-185,-239,478,-170,-122
-43,-39,4,41,-24,-17,658,-175,-248,473,-165,-131
-39,-39,0,39,-19,-19,658,-175,-244,473,-175,-131
-39,-39,0,39,-19,-19,658,-161,-239,473,-175,-131
-39,-43,-4,41,-17,-24,658,-170,-234,473,-175,-136
-39,-53,-14,46,-12,-34,663,-156,-244,483,-175,-131
-53,-58,-4,56,-24,-31,663,-151,-244,488,-175,-122
-53,-63,-9,58,-21,-36,658,-146,-244,488,-175,-117
-43,-63,-19,53,-12,-41,658,-141,-239,488,-175,-117
-58,-63,-4,61,-26,-34,658,-141,-248,497,-175,-117
-63,-63,0,63,-31,-31,663,-136,-253,502,-170,-117
-58,-68,-9,63,-24,-39,663,-131,-263,502,-170,-117
-63,-73,-9,68,-26,-41,663,-126,-268,502,-165,-112
-63,-63,0,63,-31,-31,668,-117,-273,517,-161,-107
-58,-58,0,58,-29,-29,663,-112,-273,527,-151,-102
-53,-53,0,53,-26,-26,668,-107,-263,531,-146,-97
-43,-48,-4,46,-19,-26,673,-102,-258,531,-136,-97
-53,-43,9,48,-31,-17,668,-102,-268,541,-136,-92
-53,-39,14,46,-34,-12,663,-102,-268,541,-136,-92
-48,-39,9,43,-29,-14,668,-97,-253,551,-131,-87
-53,-34,19,43,-36,-7,688,-87,-248,556,-131,-87
-68,-43,24,56,-46,-9,678,-82,-253,556,-141,-92
-68,-48,19,58,-43,-14,678,-82,-258,561,-126,-92
-68,-43,24,56,-46,-9,683,-73,-244,570,-112,-78
-73,-53,19,63,-46,-17,692,-73,-248,570,-107,-73
-73,-39,34,56,-53,-2,683,-68,-224,585,-92,-73
-63,-34,29,48,-46,-2,683,-58,-204,600,-92,-63
-63,-34,29,48,-46,-2,683,-53,-180,605,-87,-73
-53,-43,9,48,-31,-17,683,-43,-156,610,-87,-73
-68,-43,24,56,-46,-9,688,-34,-141,614,-68,-68
-82,-39,43,61,-63,2,688,-29,-122,634,-53,-48
-87,-43,43,65,-65,0,683,-19,-107,649,-53,-39
-97,-48,48,73,-73,0,683,-14,-92,658,-39,-29
-92,-43,48,68,-70,2,688,-19,-63,663,-29,-34
-87,-39,48,63,-68,4,692,-19,-48,663,-24,-29
-73,-29,43,51,-58,7,688,-9,-24,673,-24,-29
-68,-14,53,41,-61,19,688,-4,0,697,-9,-24
-58,-4,53,31,-56,24,688,4,43,717,4,-14
-63,-9,53,36,-58,21,692,14,78,727,14,-9
-63,-9,53,36,-58,21,697,19,117,741,39,4
-58,0,58,29,-58,29,712,34,156,751,58,19
-58,9,68,24,-63,39,712,58,190,780,87,39
-53,19,73,17,-63,46,707,58,229,800,97,43
-53,34,87,9,-70,61,707,73,268,819,112,58
-53,39,92,7,-73,65,707,78,307,839,131,68
-48,29,78,9,-63,53,712,82,341,844,136,68
-48,29,78,9,-63,53,702,87,361,858,151,73
-48,29,78,9,-63,53,707,97,385,873,161,82
-48,34,82,7,-65,58,722,102,414,888,175,92
-53,53,107,0,-80,80,732,117,419,917,200,107
-43,53,97,-4,-70,75,717,122,434,941,224,112
-48,58,107,-4,-78,82,712,131,439,961,239,131
-53,58,112,-2,-82,85,707,141,444,980,258,136
-53,58,112,-2,-82,85,712,146,453,995,273,146
-48,53,102,-2,-75,78,717,146,458,1015,283,156
-34,58,92,-12,-63,75,722,151,458,1019,287,165
-29,73,102,-21,-65,87,727,156,463,1039,297,175
-34,68,102,-17,-68,85,727,156,478,1058,312,190
-39,68,107,-14,-73,87,727,156,488,1068,331,190
-43,63,107,-9,-75,85,732,156,492,1073,351,200
-48,73,122,-12,-85,97,736,161,497,1088,366,209
-53,78,131,-12,-92,104,736,151,507,1093,366,224
-53,78,131,-12,-92,104,736,156,517,1098,366,224
-63,78,141,-7,-102,109,732,156,517,1107,370,229
-63,78,141,-7,-102,109,732,151,522,1107,390,234
-43,78,122,-17,-82,100,741,136,522,1107,385,234
-39,78,117,-19,-78,97,741,126,522,1102,385,234
-39,78,117,-19,-78,97,736,122,517,1098,385,239
-48,82,131,-17,-90,107,741,122,517,1088,390,239
-29,97,126,-34,-78,112,756,131,536,1102,405,248
-14,112,126,-48,-70,119,756,131,546,1112,409,263
-4,136,141,-65,-73,139,751,131,556,1127,414,273
19,161,141,-90,-61,151,736,122,566,1132,419,283
14,141,126,-78,-56,134,751,112,561,1122,414,292
-14,136,151,-61,-82,143,741,107,561,1122,414,297
-19,136,156,-58,-87,146,746,107,566,1112,414,297
-24,136,161,-56,-92,148,766,102,570,1107,414,302
-29,126,156,-48,-92,141,756,92,561,1093,405,292
-34,122,156,-43,-95,139,756,82,556,1083,395,283
-53,112,165,-29,-109,139,756,78,551,1063,385,268
-58,97,156,-19,-107,126,761,63,551,1049,380,258
-39,107,146,-34,-92,126,761,53,536,1044,361,263
-29,117,146,-43,-87,131,766,53,522,1034,351,263
-29,117,146,-43,-87,131,775,53,512,1029,341,258
-19,126,146,-53,-82,136,785,43,492,1019,326,253
-24,122,146,-48,-85,134,780,39,468,990,317,248
-34,112,146,-39,-90,129,766,34,453,976,292,239
-43,107,151,-31,-97,129,766,29,429,951,283,224
-63,102,165,-19,-114,134,790,29,414,932,268,214
-58,112,170,-26,-114,141,790,19,390,917,239,214
-53,107,161,-26,-107,134,785,4,366,893,224,200
-43,92,136,-24,-90,114,785,0,341,868,209,195
-34,92,126,-29,-80,109,790,0,317,844,195,190
-63,73,136,-4,-100,104,795,-14,302,824,165,170
-87,53,141,17,-114,97,795,-24,273,800,146,156
-107,29,136,39,-122,82,790,-43,248,775,122,151
-131,14,146,58,-139,80,785,-48,234,761,102,146
-122,24,146,48,-134,85,795,-48,224,746,97,141
-112,24,136,43,-124,80,785,-58,209,732,82,141
-92,39,131,26,-112,85,800,-58,185,712,68,136
-78,58,136,9,-107,97,800,-53,165,692,53,126
-82,53,136,14,-109,95,795,-73,151,668,24,107
-87,43,131,21,-109,87,795,-78,136,649,14,97
-92,39,131,26,-112,85,795,-82,126,634,-4,92
-102,24,126,39,-114,75,800,-82,107,610,-14,87
-112,19,131,46,-122,75,800,-92,82,605,-24,78
-117,4,122,56,-119,63,800,-97,68,590,-39,73
-122,-19,102,70,-112,41,800,-102,53,580,-43,53
-122,-24,97,73,-109,36,810,-112,43,575,-53,48
-122,-9,112,65,-117,51,805,-112,39,561,-63,39
-117,0,117,58,-117,58,814,-112,24,556,-68,39
-117,9,126,53,-122,68,814,-112,19,551,-73,39
-117,19,136,48,-126,78,814,-112,14,527,-82,39
-117,14,131,51,-124,73,824,-122,0,522,-97,48
-117,-4,112,61,-114,53,824,-126,-4,517,-102,39
-117,-19,97,68,-107,39,814,-131,-4,517,-112,34
-131,-24,107,78,-119,41,810,-136,-9,517,-112,29
-131,-19,112,75,-122,46,819,-126,-9,517,-117,19
-126,-4,122,65,-124,58,824,-126,-9,512,-117,19
-126,0,126,63,-126,63,829,-131,-9,502,-117,24
-136,0,136,68,-136,68,834,-131,-14,492,-122,24
-165,-29,136,97,-151,53,834,-131,-24,497,-141,14
-141,-4,136,73,-139,65,834,-117,-4,497,-136,24
-112,14,126,48,-119,70,834,-117,0,488,-146,14
-112,-4,107,58,-109,51,834,-136,-24,468,-161,4
-136,-19,117,78,-126,48,839,-126,-19,468,-156,0
-136,-19,117,78,-126,48,839,-117,-19,458,-156,9
-136,-19,117,78,-126,48,839,-117,-19,458,-156,9
-136,-19,117,78,-126,48,839,-117,-19,458,-156,9
-136,-19,117,78,-126,48,839,-117,-19,458,-156,9
-151,-19,131,85,-141,56,854,-112,-14,458,-165,0
-156,-19,136,87,-146,58,844,-107,-9,453,-170,-4
-165,-19,146,92,-156,63,844,-102,-9,453,-170,-4
-170,-19,151,95,-161,65,844,-97,-14,453,-175,-4
-165,-14,151,90,-158,68,854,-97,-24,453,-190,-19
-156,-9,146,82,-151,68,849,-92,-24,453,-190,-19
-151,-4,146,78,-148,70,849,-92,-24,453,-185,-14
-156,-4,151,80,-153,73,849,-92,-19,453,-185,-14
-146,-9,136,78,-141,63,854,-82,-19,444,-204,-34
-141,-14,126,78,-134,56,858,-82,-19,444,-204,-34
-141,-29,112,85,-126,41,858,-82,-19,444,-204,-34
-151,-34,117,92,-134,41,858,-82,-19,444,-204,-34
-151,-48,102,100,-126,26,858,-87,-34,434,-214,-43
-156,-43,112,100,-134,34,858,-92,-39,439,-209,-43
-165,-48,117,107,-141,34,863,-92,-43,448,-209,-43
-175,-53,122,114,-148,34,863,-92,-39,453,-204,-43
-165,-48,117,107,-141,34,868,-82,-39,458,-204,-34
-165,-24,141,95,-153,58,868,-82,-34,468,-200,-29
-156,4,161,75,-158,82,878,-68,-34,483,-180,-24
-136,9,146,63,-141,78,878,-63,-29,492,-175,-14
-146,4,151,70,-148,78,873,-63,-43,497,-170,-14
-151,9,161,70,-156,85,883,-68,-39,507,-170,-14
-146,14,161,65,-153,87,883,-68,-39,512,-165,-9
-136,34,170,51,-153,102,893,-63,-34,522,-156,-9
-136,29,165,53,-151,97,893,-68,-39,531,-156,-9
-131,29,161,51,-146,95,878,-73,-43,531,-151,-9
-131,34,165,48,-148,100,878,-68,-43,546,-146,-4
-117,43,161,36,-139,102,883,-68,-53,551,-131,0
-107,53,161,26,-134,107,893,-53,-53,561,-136,4
-107,58,165,24,-136,112,897,-48,-53,561,-141,9
-107,58,165,24,-136,112,897,-48,-43,566,-141,9
-102,58,161,21,-131,109,897,-48,-39,575,-141,14
-112,53,165,29,-139,109,897,-34,-29,590,-126,24
-112,53,165,29,-139,109,897,-24,-19,595,-117,24
-107,53,161,26,-134,107,897,-14,-9,605,-112,29
-102,68,170,17,-136,119,897,-4,4,614,-107,34
-102,78,180,12,-141,129,902,4,14,614,-102,48
-97,82,180,7,-139,131,897,-9,14,614,-102,53
-92,87,180,2,-136,134,888,-19,14,610,-102,58
-87,97,185,-4,-136,141,883,-39,4,610,-102,58
-87,92,180,-2,-134,136,883,-48,-4,605,-107,53
-87,87,175,0,-131,131,888,-68,-19,590,-122,48
-92,73,165,9,-129,119,888,-87,-24,580,-131,48
-92,68,161,12,-126,114,893,-87,-29,580,-136,43
-82,63,146,9,-114,104,907,-87,-24,570,-146,29
-82,63,146,9,-114,104,912,-87,-24,566,-146,29
-97,58,156,19,-126,107,922,-82,-29,566,-146,29
-87,58,146,14,-117,102,927,-82,-29,566,-141,29
-58,87,146,-14,-102,117,927,-78,-29,570,-131,39
-39,97,136,-29,-87,117,932,-73,-29,575,-131,48
-24,102,126,-39,-75,114,932,-68,-29,580,-126,48
-14,107,122,-46,-68,114,932,-63,-29,585,-126,53
-19,102,122,-41,-70,112,932,-82,-58,566,-141,48
-34,92,126,-29,-80,109,932,-82,-63,566,-146,43
-29,92,122,-31,-75,107,932,-73,-63,570,-146,39
-34,92,126,-29,-80,109,941,-63,-58,580,-146,34
-29,82,112,-26,-70,97,946,-68,-58,585,-156,34
-43,73,117,-14,-80,95,946,-68,-63,585,-151,34
-43,73,117,-14,-80,95,946,-73,-68,585,-151,34
-43,68,112,-12,-78,90,951,-73,-73,580,-151,34
-34,78,112,-21,-73,95,946,-82,-73,570,-161,24
-48,58,107,-4,-78,82,946,-92,-82,546,-175,4
-53,43,97,4,-75,70,956,-92,-97,536,-195,-4
-63,24,87,19,-75,56,956,-92,-97,536,-200,-14
-102,4,107,48,-104,56,961,-92,-97,522,-214,-24
-107,-9,97,58,-102,43,961,-97,-122,502,-234,-43
-112,-24,87,68,-100,31,956,-107,-126,488,-253,-58
-126,-43,82,85,-104,19,956,-112,-141,483,-263,-63
-117,-34,82,75,-100,24,961,-107,-136,488,-273,-58
-122,-39,82,80,-102,21,966,-112,-141,478,-278,-63
-122,-39,82,80,-102,21,966,-117,-136,478,-278,-63
-126,-48,78,87,-102,14,966,-122,-131,478,-278,-63
-122,-43,78,82,-100,17,971,-122,-126,478,-268,-53
-107,-39,68,73,-87,14,971,-122,-131,478,-278,-58
-102,-43,58,73,-80,7,971,-122,-126,478,-283,-58
-102,-39,63,70,-82,12,976,-117,-117,483,-283,-58
-102,-29,73,65,-87,21,985,-117,-117,483,-292,-68
-112,-34,78,73,-95,21,985,-117,-122,483,-292,-68
-107,-53,53,80,-80,0,985,-117,-122,483,-292,-68
-97,-58,39,78,-68,-9,985,-117,-122,483,-292,-68
-92,-34,58,63,-75,12,985,-117,-112,492,-287,-53
-102,-29,73,65,-87,21,985,-117,-112,488,-287,-53
-112,-34,78,73,-95,21,990,-122,-117,488,-297,-58
-136,-29,107,82,-122,39,995,-122,-117,483,-302,-63
-146,-39,107,92,-126,34,1000,-117,-122,483,-331,-68
-122,-24,97,73,-109,36,1000,-82,-97,478,-331,-73
-141,-14,126,78,-134,56,1000,-53,-68,463,-361,-102
-180,-9,170,95,-175,80,1005,-24,-43,453,-400,-151
-214,-19,195,117,-204,87,1000,14,0,468,-414,-165
-219,-29,190,124,-204,80,1005,73,73,541,-375,-156
-219,-14,204,117,-212,95,1005,122,146,634,-297,-117
-214,-14,200,114,-207,92,1010,170,239,761,-185,-53
-214,-39,175,126,-195,68,1015,239,366,932,-39,9
-165,-19,146,92,-156,63,1015,317,502,1117,136,97
-92,43,136,24,-114,90,1015,409,653,1332,351,214
-14,97,112,-41,-63,104,1019,492,824,1571,570,331
43,87,43,-65,0,65,1015,531,966,1815,814,458
131,117,-14,-124,73,51,1024,541,1068,2083,1117,629
248,200,-48,-224,148,75,1024,551,1156,2337,1415,810
346,287,-58,-317,202,114,1029,522,1239,2562,1683,980
405,390,-14,-397,209,187,1024,497,1361,2810,1956,1161
468,492,24,-480,222,258,1029,497,1517,3103,2259,1371
522,575,53,-549,234,314,1029,497,1649,3323,2469,1512
566,653,87,-610,239,370,1029,488,1712,3416,2522,1581
610,712,102,-661,253,407,1034,483,1722,3420,2513,1610
624,692,68,-658,278,380,1039,492,1673,3318,2366,1576
614,556,-58,-585,336,248,1039,463,1542,3084,2034,1381
575,346,-229,-461,402,58,1039,400,1346,2781,1561,1049
468,209,-258,-339,363,-24,1039,234,990,2337,995,683
312,126,-185,-219,248,-29,1049,-63,370,1615,297,307
161,-29,-190,-65,175,-109,1049,-414,-395,722,-458,-63
48,-151,-200,51,124,-175,1054,-688,-1039,-107,-1034,-346
-48,-185,-136,117,43,-161,1054,-868,-1517,-761,-1342,-458
-146,-190,-43,168,-51,-117,1054,-902,-1712,-1078,-1459,-502
-224,-195,29,209,-126,-82,1054,-790,-1586,-980,-1429,-541
-234,-185,48,209,-141,-68,1054,-619,-1346,-702,-1278,-517
-195,-195,0,195,-97,-97,1058,-424,-1180,-517,-1146,-458
-165,-170,-4,168,-80,-87,1058,-239,-1029,-390,-1068,-439
-185,-170,14,178,-100,-78,1068,-92,-878,-263,-1005,-439
-204,-214,-9,209,-97,-112,1063,48,-741,-131,-927,-439
-219,-263,-43,241,-87,-153,1068,151,-624,-29,-863,-429
-239,-283,-43,261,-97,-163,1073,180,-556,48,-819,-414
-229,-263,-34,246,-97,-148,1068,180,-502,97,-780,-400
-190,-244,-53,217,-68,-148,1078,200,-448,141,-732,-361
-165,-239,-73,202,-46,-156,1078,170,-409,200,-697,-326
-146,-200,-53,173,-46,-126,1083,141,-351,253,-649,-302
-112,-161,-48,136,-31,-104,1083,146,-273,322,-590,-253
-122,-151,-29,136,-46,-90,1088,107,-209,390,-536,-214
-146,-170,-24,158,-61,-97,1083,4,-200,419,-517,-190
-117,-131,-14,124,-51,-73,1083,-73,-204,434,-492,-175
-63,-63,0,63,-31,-31,1088,-102,-204,444,-473,-146
-63,-53,9,58,-36,-21,1093,-131,-204,434,-473,-146
-82,-63,19,73,-51,-21,1098,-131,-190,444,-478,-141
-78,-68,9,73,-43,-29,1098,-126,-180,448,-478,-151
-82,-63,19,73,-51,-21,1102,-122,-180,453,-473,-151
-92,-73,19,82,-56,-26,1102,-117,-180,468,-468,-146
-87,-68,19,78,-53,-24,1102,-131,-180,478,-468,-146
-82,-63,19,73,-51,-21,1102,-141,-180,478,-468,-141
-68,-58,9,63,-39,-24,1088,-151,-175,483,-458,-136
-63,-53,9,58,-36,-21,1102,-151,-165,492,-448,-131
-82,-53,29,68,-56,-12,1107,-146,-156,483,-453,-141
-87,-48,39,68,-63,-4,1107,-146,-156,483,-463,-141
-87,-48,39,68,-63,-4,1107,-146,-151,488,-468,-146
-87,-53,34,70,-61,-9,1107,-146,-146,488,-468,-146
-102,-53,48,78,-75,-2,1102,-146,-146,483,-463,-136
-112,-53,58,82,-85,2,1107,-146,-141,497,-453,-122
-117,-63,53,90,-85,-4,1122,-141,-141,507,-434,-112
-122,-63,58,92,-90,-2,1137,-136,-141,517,-434,-102
-112,-48,63,80,-87,7,1127,-126,-141,522,-439,-102
-97,-39,58,68,-78,9,1127,-126,-136,522,-448,-102
-87,-29,58,58,-73,14,1127,-112,-131,522,-448,-102
-78,-24,53,51,-65,14,1127,-122,-126,522,-448,-107
-92,-39,53,65,-73,7,1127,-112,-117,536,-434,-92
-122,-48,73,85,-97,12,1132,-102,-107,546,-429,-82
-136,-58,78,97,-107,9,1132,-92,-97,551,-424,-78
-141,-63,78,102,-109,7,1137,-82,-82,556,-419,-78
-151,-39,112,95,-131,36,1146,-82,-73,566,-414,-68
-151,-34,117,92,-134,41,1151,-78,-68,570,-414,-68
-141,-34,107,87,-124,36,1151,-73,-68,570,-419,-68
-141,-34,107,87,-124,36,1151,-68,-63,570,-419,-63
-141,-34,107,87,-124,36,1161,-53,-58,585,-419,-68
-136,-39,97,87,-117,29,1151,-53,-58,595,-414,-63
-131,-43,87,87,-109,21,1151,-53,-48,600,-414,-58
-122,-48,73,85,-97,12,1151,-53,-43,600,-409,-58
-146,-48,97,97,-122,24,1156,-53,-34,590,-419,-73
-151,-48,102,100,-126,26,1151,-53,-34,590,-419,-73
-151,-53,97,102,-124,21,1156,-48,-19,600,-414,-68
-161,-53,107,107,-134,26,1176,-39,-14,605,-414,-68
-156,-43,112,100,-134,34,1176,-24,-4,605,-424,-73
-136,-39,97,87,-117,29,1176,-24,4,610,-409,-73
-117,-24,92,70,-104,34,1180,-14,34,619,-395,-58
-102,-24,78,63,-90,26,1190,-14,43,619,-390,-53
-122,-34,87,78,-104,26,1180,-9,58,639,-385,-43
-122,-34,87,78,-104,26,1180,0,68,649,-385,-34
-131,-39,92,85,-112,26,1180,4,82,649,-380,-43
-131,-53,78,92,-104,12,1180,14,97,649,-380,-43
-131,-43,87,87,-109,21,1185,19,102,644,-375,-53
-131,-39,92,85,-112,26,1185,29,122,663,-366,-39
-122,-43,78,82,-100,17,1180,43,136,678,-370,-34
-117,-48,68,82,-92,9,1180,53,151,688,-361,-29
-112,-39,73,75,-92,17,1195,68,170,702,-346,-19
-107,-29,78,68,-92,24,1200,78,185,712,-336,-9
-92,-14,78,53,-85,31,1195,97,209,732,-331,-4
-87,4,92,41,-90,48,1195,112,234,766,-312,4
-87,-4,82,46,-85,39,1195,131,253,771,-307,0
-92,-9,82,51,-87,36,1200,141,273,775,-307,0
-92,-9,82,51,-87,36,1205,146,297,785,-292,9
-87,0,87,43,-87,43,1220,161,322,790,-283,19
-63,4,68,29,-65,36,1229,190,346,819,-263,19
-53,9,63,21,-58,36,1224,195,375,839,-253,24
-48,19,68,14,-58,43,1224,214,405,858,-239,39
-43,19,63,12,-53,41,1224,224,434,878,-219,48
-39,29,68,4,-53,48,1229,214,424,883,-214,58
-29,29,58,0,-43,43,1220,204,419,897,-200,63
-19,29,48,-4,-34,39,1224,200,419,912,-190,73
-9,34,43,-12,-26,39,1239,190,424,927,-175,82
-19,34,53,-7,-36,43,1244,185,414,941,-165,102
-14,24,39,-4,-26,31,1234,170,414,961,-146,102
-24,19,43,2,-34,31,1234,161,405,976,-136,117
-34,9,43,12,-39,26,1234,151,395,990,-122,117
-19,29,48,-4,-34,39,1239,156,395,1000,-112,131
0,43,43,-21,-21,43,1244,156,400,1024,-97,136
29,68,39,-48,-4,53,1249,161,400,1034,-87,141
48,102,53,-75,-2,78,1254,165,405,1058,-73,146
43,78,34,-61,4,56,1254,156,385,1063,-68,151
29,68,39,-48,-4,53,1254,146,380,1068,-58,151
14,53,39,-34,-12,46,1259,136,370,1068,-48,161
0,53,53,-26,-26,53,1263,131,361,1078,-43,170
19,68,48,-43,-14,58,1273,136,361,1093,-29,185
34,78,43,-56,-4,61,1273,146,370,1107,-24,185
39,87,48,-63,-4,68,1268,151,370,1127,-14,190
53,97,43,-75,4,70,1268,151,375,1137,9,195
78,92,14,-85,31,53,1278,131,361,1137,9,185
87,87,0,-87,43,43,1278,117,346,1132,4,185
92,82,-9,-87,51,36,1273,107,326,1127,0,190
87,82,-4,-85,46,39,1278,102,312,1117,0,190
107,73,-34,-90,70,19,1293,102,312,1117,4,200
112,73,-39,-92,75,17,1293,102,312,1122,0,204
112,82,-29,-97,70,26,1288,102,312,1132,-4,204
126,92,-34,-109,80,29,1273,92,312,1132,-9,204
146,87,-58,-117,102,14,1283,73,287,1127,-24,195
122,87,-34,-104,78,26,1278,68,278,1122,-24,200
122,92,-29,-107,75,31,1288,68,273,1107,-24,200
122,97,-24,-109,73,36,1312,63,268,1098,-24,204
141,107,-34,-124,87,36,1312,48,248,1098,-39,200
161,122,-39,-141,100,41,1312,43,244,1093,-43,195
165,131,-34,-148,100,48,1312,43,239,1078,-48,185
185,136,-48,-161,117,43,1317,34,239,1068,-48,180
190,122,-68,-156,129,26,1322,9,219,1049,-73,170
185,117,-68,-151,126,24,1322,4,200,1034,-87,165
170,102,-68,-136,119,17,1327,0,185,1024,-102,156
165,97,-68,-131,117,14,1332,-14,161,1010,-122,146
185,112,-73,-148,129,19,1322,-29,141,985,-146,136
200,112,-87,-156,143,12,1312,-34,131,966,-175,122
214,117,-97,-165,156,9,1317,-39,112,936,-190,102
219,122,-97,-170,158,12,1346,-39,102,912,-209,87
234,117,-117,-175,175,0,1356,-58,73,888,-234,78
239,107,-131,-173,185,-12,1351,-73,53,863,-253,63
248,87,-161,-168,204,-36,1351,-78,34,839,-273,58
258,82,-175,-170,217,-46,1356,-78,14,814,-292,53
244,78,-165,-161,204,-43,1361,-97,-4,795,-326,34
234,73,-161,-153,197,-43,1361,-102,-29,771,-341,19
229,63,-165,-146,197,-51,1356,-117,-48,746,-361,14
219,63,-156,-141,187,-46,1351,-117,-58,732,-375,9
224,58,-165,-141,195,-53,1361,-131,-73,697,-400,-9
229,43,-185,-136,207,-70,1351,-146,-92,683,-414,-14
244,43,-200,-143,222,-78,1366,-151,-122,663,-429,-24
253,48,-204,-151,229,-78,1366,-151,-146,644,-444,-39
239,39,-200,-139,219,-80,1371,-151,-161,624,-463,-43
234,34,-200,-134,217,-82,1371,-156,-175,610,-473,-48
229,34,-195,-131,212,-80,1371,-161,-185,600,-492,-48
219,24,-195,-122,207,-85,1376,-161,-204,580,-502,-48
219,29,-190,-124,204,-80,1385,-175,-229,566,-522,-68
224,24,-200,-124,212,-87,1385,-185,-244,551,-536,-73
229,9,-219,-119,224,-104,1385,-195,-258,541,-541,-92
239,14,-224,-126,231,-104,1395,-209,-268,536,-551,-97
234,9,-224,-122,229,-107,1390,-209,-283,517,-561,-107
234,0,-234,-117,234,-117,1400,-209,-297,507,-566,-107
229,-9,-239,-109,234,-124,1400,-209,-302,497,-570,-107
224,-19,-244,-102,234,-131,1400,-209,-307,468,-580,-107
219,-14,-234,-102,226,-124,1410,-200,-312,473,-585,-117
214,-24,-239,-95,226,-131,1410,-204,-317,468,-590,-126
209,-29,-239,-90,224,-134,1400,-209,-317,468,-600,-131
190,-24,-214,-82,202,-119,1395,-214,-322,468,-600,-136
200,-19,-219,-90,209,-119,1400,-214,-341,458,-605,-146
214,-4,-219,-104,217,-112,1410,-214,-341,453,-605,-146
224,0,-224,-112,224,-112,1420,-219,-341,444,-605,-141
224,0,-224,-112,224,-112,1429,-219,-346,434,-610,-141
234,0,-234,-117,234,-117,1429,-209,-346,429,-610,-141
229,-4,-234,-112,231,-119,1429,-214,-356,429,-614,-141
248,4,-244,-126,246,-119,1429,-214,-361,439,-624,-131
248,-14,-263,-117,256,-139,1439,-224,-366,429,-629,-141
214,-39,-253,-87,234,-146,1434,-214,-361,419,-624,-136
209,-24,-234,-92,222,-129,1444,-209,-351,429,-614,-136
204,-19,-224,-92,214,-122,1444,-204,-351,429,-614,-136
200,-14,-214,-92,207,-114,1444,-200,-351,429,-614,-136
195,-9,-204,-92,200,-107,1444,-195,-351,429,-614,-136
195,-19,-214,-87,204,-117,1459,-195,-356,429,-624,-146
195,-19,-214,-87,204,-117,1449,-195,-351,424,-629,-151
190,-19,-209,-85,200,-114,1449,-195,-351,424,-629,-151
190,-19,-209,-85,200,-114,1449,-195,-356,424,-634,-151
175,-39,-214,-68,195,-126,1454,-185,-366,419,-649,-170
175,-48,-224,-63,200,-136,1454,-180,-366,414,-649,-175
170,-58,-229,-56,200,-143,1459,-180,-366,409,-644,-175
156,-73,-229,-41,192,-151,1464,-180,-361,405,-644,-180
156,-63,-219,-46,187,-141,1478,-170,-351,395,-653,-185
161,-53,-214,-53,187,-134,1483,-170,-351,395,-653,-180
161,-53,-214,-53,187,-134,1483,-170,-351,395,-653,-175
151,-43,-195,-53,173,-119,1483,-170,-351,395,-653,-170
170,-34,-204,-68,187,-119,1483,-161,-341,395,-644,-161
185,-14,-200,-85,192,-107,1483,-161,-331,400,-639,-161
195,-4,-200,-95,197,-102,1488,-156,-322,409,-639,-161
204,4,-200,-104,202,-97,1488,-151,-302,414,-634,-161
195,-4,-200,-95,197,-102,1493,-141,-283,424,-624,-161
185,4,-180,-95,183,-87,1493,-141,-268,429,-619,-156
185,19,-165,-102,175,-73,1503,-126,-258,439,-600,-151
195,9,-185,-102,190,-87,1503,-122,-244,444,-595,-141
170,0,-170,-85,170,-85,1493,-126,-234,439,-600,-141
161,0,-161,-80,161,-80,1507,-126,-224,448,-600,-141
161,0,-161,-80,161,-80,1512,-122,-219,453,-595,-136
165,14,-151,-90,158,-68,1527,-112,-209,463,-585,-136
165,29,-136,-97,151,-53,1537,-107,-190,473,-575,-126
170,29,-141,-100,156,-56,1522,-102,-180,473,-570,-126
170,34,-136,-102,153,-51,1522,-87,-165,488,-566,-122
185,43,-141,-114,163,-48,1527,-78,-161,492,-551,-117
195,34,-161,-114,178,-63,1537,-82,-141,497,-541,-117
195,39,-156,-117,175,-58,1542,-78,-141,492,-541,-117
195,39,-156,-117,175,-58,1542,-78,-131,492,-536,-122
200,39,-161,-119,180,-61,1542,-78,-126,497,-531,-122
190,43,-146,-117,168,-51,1551,-63,-117,512,-536,-122
190,43,-146,-117,168,-51,1551,-53,-107,517,-527,-122
195,43,-151,-119,173,-53,1551,-43,-97,527,-522,-117
200,58,-141,-129,170,-41,1551,-34,-82,536,-517,-112
190,78,-112,-134,151,-17,1556,-29,-68,546,-497,-97
195,82,-112,-139,153,-14,1551,-39,-63,546,-492,-92
200,87,-112,-143,156,-12,1542,-43,-58,541,-488,-87
204,97,-107,-151,156,-4,1537,-58,-63,541,-483,-87
204,117,-87,-161,146,14,1546,-82,-87,536,-473,-87
204,117,-87,-161,146,14,1551,-107,-107,522,-483,-87
200,107,-92,-153,146,7,1551,-131,-117,512,-488,-82
200,107,-92,-153,146,7,1556,-136,-126,512,-488,-82
204,107,-97,-156,151,4,1571,-131,-126,502,-488,-87
200,102,-97,-151,148,2,1576,-126,-122,497,-488,-87
180,92,-87,-136,134,2,1586,-117,-122,497,-488,-87
185,87,-97,-136,141,-4,1590,-112,-117,497,-483,-87
195,92,-102,-143,148,-4,1600,-102,-107,507,-468,-87
204,97,-107,-151,156,-4,1605,-102,-107,507,-463,-78
209,97,-112,-153,161,-7,1605,-102,-107,507,-453,-78
209,97,-112,-153,161,-7,1605,-102,-107,507,-448,-73
200,102,-97,-151,148,2,1605,-112,-107,497,-448,-63
190,92,-97,-141,143,-2,1605,-112,-102,497,-448,-63
200,92,-107,-146,153,-7,1605,-102,-92,502,-444,-63
200,92,-107,-146,153,-7,1615,-92,-78,512,-439,-63
195,97,-97,-146,146,0,1620,-92,-63,517,-429,-63
180,92,-87,-136,134,2,1620,-87,-63,517,-424,-63
180,97,-82,-139,131,7,1620,-87,-63,517,-424,-63
180,97,-82,-139,131,7,1625,-82,-63,512,-424,-63
165,87,-78,-126,122,4,1629,-92,-53,502,-424,-63
146,58,-87,-102,117,-14,1629,-102,-63,478,-439,-82
136,34,-102,-85,119,-34,1639,-102,-78,468,-458,-92
122,4,-117,-63,119,-56,1639,-102,-78,468,-463,-102
92,4,-87,-48,90,-41,1654,-97,-68,458,-468,-102
97,0,-97,-48,97,-48,1654,-97,-82,444,-478,-122
102,-4,-107,-48,104,-56,1649,-102,-78,434,-488,-136
97,-14,-112,-41,104,-63,1649,-102,-82,434,-488,-141
82,-24,-107,-29,95,-65,1664,-97,-78,429,-488,-136
73,-39,-112,-17,92,-75,1668,-102,-82,419,-492,-141
68,-48,-117,-9,92,-82,1668,-107,-78,419,-492,-141
58,-68,-126,4,92,-97,1668,-112,-73,419,-492,-141
48,-58,-107,4,78,-82,1673,-122,-63,405,-483,-151
58,-58,-117,0,87,-87,1673,-122,-73,400,-492,-156
58,-68,-126,4,92,-97,1673,-122,-73,395,-497,-156
53,-68,-122,7,87,-95,1678,-117,-68,395,-497,-156
63,-43,-107,-9,85,-75,1688,-126,-58,405,-492,-151
53,-34,-87,-9,70,-61,1688,-126,-63,405,-488,-146
58,-39,-97,-9,78,-68,1688,-126,-63,405,-483,-141
68,-29,-97,-19,82,-63,1688,-126,-63,405,-478,-136
68,-14,-82,-26,75,-48,1698,-117,-53,405,-463,-131
63,-19,-82,-21,73,-51,1698,-117,-53,400,-463,-131
58,-34,-92,-12,75,-63,1703,-122,-58,400,-473,-136
39,-39,-78,0,58,-58,1708,-122,-58,395,-478,-141
-9,-39,-29,24,9,-34,1712,-107,-43,395,-478,-156
-24,-43,-19,34,-2,-31,1712,-63,-9,390,-497,-180
-43,-53,-9,48,-17,-31,1722,-14,39,375,-527,-200
-43,-9,34,26,-39,12,1727,14,82,375,-546,-219
-39,9,48,14,-43,29,1722,53,136,409,-541,-224
-53,-19,34,36,-43,7,1727,122,219,492,-483,-204
-43,-24,19,34,-31,-2,1737,161,312,605,-385,-165
0,14,14,-7,-7,14,1732,219,434,761,-234,-102
19,19,0,-19,9,9,1737,297,580,951,-48,-19
39,19,-19,-29,29,0,1747,385,727,1156,146,78
92,43,-48,-68,70,-2,1747,448,868,1361,341,185
151,48,-102,-100,126,-26,1751,522,1029,1610,580,302
209,68,-141,-139,175,-36,1756,561,1190,1903,893,478
268,117,-151,-192,209,-17,1756,580,1293,2181,1224,688
356,180,-175,-268,265,2,1756,590,1390,2415,1512,868
463,278,-185,-370,324,46,1761,600,1532,2649,1771,1039
541,390,-151,-466,346,119,1766,605,1722,2918,2074,1229
575,512,-63,-544,319,224,1771,605,1878,3181,2337,1410
600,614,14,-607,292,314,1771,575,1961,3333,2479,1532
644,712,68,-678,287,390,1781,556,1976,3367,2493,1590
717,780,63,-749,326,422,1786,541,1937,3313,2405,1581
722,683,-39,-702,380,322,1781,541,1859,3132,2161,1459
644,458,-185,-551,414,136,1790,541,1737,2888,1751,1185
536,258,-278,-397,407,-9,1790,448,1522,2547,1249,824
419,161,-258,-290,339,-48,1800,214,1058,1986,634,439
263,68,-195,-165,229,-63,1800,-122,361,1166,-92,63
102,-29,-131,-36,117,-80,1800,-424,-346,283,-771,-268
-9,-102,-92,56,41,-97,1805,-649,-951,-497,-1200,-444
-97,-136,-39,117,-29,-87,1805,-771,-1342,-1024,-1429,-507
-195,-141,53,168,-124,-43,1815,-727,-1361,-1098,-1468,-561
-244,-136,107,190,-175,-14,1815,-575,-1137,-844,-1332,-541
-195,-117,78,156,-136,-19,1825,-424,-946,-624,-1161,-478
-165,-126,39,146,-102,-43,1820,-229,-790,-488,-1058,-448
-156,-141,14,148,-85,-63,1830,-53,-629,-341,-980,-448
-146,-151,-4,148,-70,-78,1830,63,-517,-244,-917,-468
-165,-185,-19,175,-73,-102,1834,165,-429,-170,-868,-468
-180,-214,-34,197,-73,-124,1839,248,-341,-87,-814,-448
-141,-224,-82,183,-29,-153,1844,258,-292,-29,-780,-444
-131,-224,-92,178,-19,-158,1849,268,-268,-9,-751,-429
-180,-244,-63,212,-58,-153,1849,287,-214,34,-712,-400
-156,-239,-82,197,-36,-161,1849,248,-165,82,-678,-385
-97,-209,-112,153,7,-161,1854,180,-146,107,-639,-370
-92,-190,-97,141,2,-143,1864,165,-87,175,-570,-322
-102,-151,-48,126,-26,-100,1859,146,-14,253,-507,-263
-48,-92,-43,70,-2,-68,1864,82,14,302,-468,-219
-9,-73,-63,41,26,-68,1873,4,9,307,-453,-214
-34,-82,-48,58,7,-65,1878,-53,-9,287,-453,-224
-53,-82,-29,68,-12,-56,1873,-73,-9,287,-463,-234
-63,-97,-34,80,-14,-65,1873,-87,-14,283,-468,-239
-48,-97,-48,73,0,-73,1878,-87,-4,283,-468,-248
-43,-87,-43,65,0,-65,1888,-87,-4,283,-463,-248
-43,-92,-48,68,2,-70,1893,-87,-4,292,-458,-244
-53,-82,-29,68,-12,-56,1893,-97,-4,307,-444,-224
-53,-73,-19,63,-17,-46,1893,-102,-4,312,-429,-209
-43,-63,-19,53,-12,-41,1878,-107,0,322,-405,-195
-43,-53,-9,48,-17,-31,1893,-102,9,336,-380,-180
-34,-43,-9,39,-12,-26,1908,-107,9,336,-390,-190
-29,-29,0,29,-14,-14,1908,-107,9,336,-395,-190
-19,-19,0,19,-9,-9,1908,-107,14,341,-395,-195
-9,-14,-4,12,-2,-9,1908,-107,19,341,-390,-195
-24,-34,-9,29,-7,-21,1912,-117,14,322,-385,-190
-34,-43,-9,39,-12,-26,1917,-117,14,331,-375,-180
-39,-63,-24,51,-7,-43,1932,-112,9,336,-356,-175
-43,-73,-29,58,-7,-51,1947,-107,4,341,-356,-170
-34,-58,-24,46,-4,-41,1947,-97,14,336,-370,-175
-29,-48,-19,39,-4,-34,1947,-97,19,336,-380,-180
-29,-39,-9,34,-9,-24,1947,-82,24,336,-380,-185
-29,-34,-4,31,-12,-19,1947,-92,29,336,-380,-195
-24,-29,-4,26,-9,-17,1947,-92,29,336,-375,-195
-34,-29,4,31,-19,-12,1952,-92,29,341,-370,-190
-29,-29,0,29,-14,-14,1952,-92,29,341,-366,-190
-14,-24,-9,19,-2,-17,1956,-92,34,341,-361,-195
-24,-19,4,21,-14,-7,1961,-102,43,341,-361,-195
-24,-24,0,24,-12,-12,1971,-97,48,346,-356,-195
-14,-34,-19,24,2,-26,1976,-92,48,346,-356,-195
-14,-43,-29,29,7,-36,1981,-87,53,346,-351,-190
-24,-29,-4,26,-9,-17,1986,-73,68,361,-336,-180
-29,-29,0,29,-14,-14,1981,-73,68,370,-326,-170
-34,-29,4,31,-19,-12,1986,-73,78,375,-322,-161
-34,-29,4,31,-19,-12,1991,-73,82,375,-312,-156
-39,-19,19,29,-29,0,1995,-68,78,375,-312,-161
-34,-19,14,26,-24,-2,1991,-63,73,375,-312,-161
-24,-24,0,24,-12,-12,1995,-53,82,385,-307,-156
-24,-24,0,24,-12,-12,2015,-39,82,390,-307,-156
-29,-39,-9,34,-9,-24,2015,-39,92,380,-307,-161
-19,-39,-19,29,0,-29,2015,-43,92,385,-292,-161
-9,-29,-19,19,4,-24,2020,-39,112,395,-278,-146
-4,-34,-29,19,12,-31,2030,-43,112,395,-273,-141
-24,-29,-4,26,-9,-17,2039,-39,112,405,-278,-151
-24,-24,0,24,-12,-12,2039,-29,117,414,-278,-141
-34,-24,9,29,-21,-7,2039,-24,126,414,-273,-151
-34,-34,0,34,-17,-17,2039,-14,136,414,-273,-151
-19,-24,-4,21,-7,-14,2054,4,165,409,-273,-156
-14,-19,-4,17,-4,-12,2054,29,209,429,-258,-146
0,-24,-24,12,12,-24,2049,58,248,444,-258,-146
9,-29,-39,9,24,-34,2049,82,287,453,-244,-146
4,-19,-24,7,14,-21,2064,78,317,468,-224,-131
0,-19,-19,9,9,-19,2069,78,331,468,-219,-126
4,-14,-19,4,12,-17,2064,87,356,478,-219,-126
0,-4,-4,2,2,-4,2064,92,380,502,-204,-122
9,0,-9,-4,9,-4,2074,82,370,512,-185,-112
4,0,-4,-2,4,-2,2078,82,361,522,-180,-107
4,4,0,-4,2,2,2083,78,356,536,-161,-92
9,19,9,-14,0,14,2098,82,351,546,-146,-78
19,14,-4,-17,12,4,2108,82,361,561,-131,-73
24,9,-14,-17,19,-2,2103,78,375,575,-126,-73
24,9,-14,-17,19,-2,2103,87,390,590,-117,-63
24,0,-24,-12,24,-12,2103,87,405,605,-102,-58
9,14,4,-12,2,9,2117,92,405,629,-82,-43
9,19,9,-14,0,14,2108,97,400,644,-63,-34
9,24,14,-17,-2,19,2113,107,400,658,-48,-19
9,34,24,-21,-7,29,2127,112,405,673,-29,-4
29,34,4,-31,12,19,2142,131,429,707,-4,9
43,34,-9,-39,26,12,2132,131,453,727,19,14
43,39,-4,-41,24,17,2132,136,468,741,34,34
43,39,-4,-41,24,17,2132,141,483,756,53,39
39,53,14,-46,12,34,2137,136,478,771,68,53
39,53,14,-46,12,34,2142,136,478,790,78,58
48,63,14,-56,17,39,2147,141,473,795,82,63
48,82,34,-65,7,58,2152,146,473,814,92,68
73,92,19,-82,26,56,2156,156,492,829,102,73
78,97,19,-87,29,58,2161,156,507,834,117,73
82,97,14,-90,34,56,2171,156,517,834,131,82
87,112,24,-100,31,68,2181,161,527,844,141,92
87,112,24,-100,31,68,2191,151,517,839,136,102
82,107,24,-95,29,65,2191,146,507,844,131,97
68,102,34,-85,17,68,2186,136,488,854,131,97
63,97,34,-80,14,65,2186,122,473,854,146,97
73,107,34,-90,19,70,2196,122,473,858,141,107
78,107,29,-92,24,68,2196,117,473,858,141,107
78,107,29,-92,24,68,2191,117,468,858,141,112
68,112,43,-90,12,78,2196,122,468,854,146,112
73,102,29,-87,21,65,2215,131,463,863,165,117
73,102,29,-87,21,65,2220,131,458,868,165,126
68,112,43,-90,12,78,2220,131,453,878,165,131
78,122,43,-100,17,82,2210,122,448,878,165,136
82,117,34,-100,24,75,2220,97,414,868,170,146
53,117,63,-85,-4,90,2215,87,385,868,170,151
48,122,73,-85,-12,97,2225,82,361,858,170,151
43,126,82,-85,-19,104,2249,73,336,854,170,156
48,126,78,-87,-14,102,2259,82,346,854,156,146
53,131,78,-92,-12,104,2259,92,361,849,151,146
43,131,87,-87,-21,109,2259,107,375,834,146,141
48,126,78,-87,-14,102,2264,112,395,824,146,141
39,117,78,-78,-19,97,2264,82,351,795,112,131
29,107,78,-68,-24,92,2269,63,307,780,97,126
9,87,78,-48,-34,82,2278,43,268,771,82,117
0,78,78,-39,-39,78,2288,14,219,756,63,107
19,92,73,-56,-26,82,2288,24,234,746,58,107
34,102,68,-68,-17,85,2278,34,248,732,39,102
48,117,68,-82,-9,92,2283,43,253,707,34,92
53,131,78,-92,-12,104,2313,58,268,688,24,87
39,122,82,-80,-21,102,2322,39,229,683,14,82
34,117,82,-75,-24,100,2318,14,200,658,0,73
34,102,68,-68,-17,85,2318,0,170,634,-14,73
34,102,68,-68,-17,85,2322,-9,141,610,-29,73
19,82,63,-51,-21,73,2322,-4,141,585,-68,48
9,73,63,-41,-26,68,2327,-4,126,556,-87,29
4,58,53,-31,-24,56,2327,-14,117,527,-112,19
-4,53,58,-24,-31,56,2327,-9,117,507,-131,9
-19,48,68,-14,-43,58,2332,-29,97,483,-136,9
-24,34,58,-4,-41,46,2327,-48,73,468,-151,4
-19,34,53,-7,-36,43,2347,-58,39,448,-165,-4
-19,39,58,-9,-39,48,2352,-63,9,429,-180,-19
-9,48,58,-19,-34,53,2352,-53,19,414,-195,-19
0,53,53,-26,-26,53,2357,-48,19,405,-200,-29
9,63,53,-36,-21,58,2361,-43,24,400,-214,-34
14,63,48,-39,-17,56,2371,-34,19,385,-219,-39
-14,48,63,-17,-39,56,2381,-48,-14,361,-239,-39
-29,34,63,-2,-46,48,2381,-58,-29,346,-253,-43
-43,9,53,17,-48,31,2381,-68,-43,336,-258,-63
-53,4,58,24,-56,31,2391,-82,-53,331,-268,-68
-39,0,39,19,-39,19,2396,-73,-53,326,-258,-78
-29,0,29,14,-29,14,2405,-73,-63,322,-263,-78
-24,0,24,12,-24,12,2405,-73,-63,317,-268,-78
-19,0,19,9,-19,9,2405,-73,-63,292,-278,-78
-29,9,39,9,-34,24,2410,-78,-78,278,-283,-87
-29,-4,24,17,-26,9,2415,-87,-82,273,-287,-97
-29,-14,14,21,-21,0,2410,-97,-82,273,-297,-102
-43,-14,29,29,-36,7,2410,-107,-87,273,-297,-107
-53,-14,39,34,-46,12,2425,-97,-87,283,-292,-102
-48,-4,43,26,-46,19,2435,-97,-87,278,-292,-97
-48,-4,43,26,-46,19,2444,-102,-87,268,-292,-87
-58,-9,48,34,-53,19,2454,-102,-92,258,-297,-82
-68,0,68,34,-68,34,2454,-63,-63,263,-278,-73
-43,24,68,9,-56,46,2464,-87,-82,253,-292,-82
-63,4,68,29,-65,36,2464,-117,-117,234,-302,-92
-107,-29,78,68,-92,24,2469,-117,-126,234,-302,-97
-97,-19,78,58,-87,29,2479,-107,-122,234,-312,-97
-87,-19,68,53,-78,24,2479,-107,-117,234,-312,-97
-78,-19,58,48,-68,19,2479,-107,-112,234,-312,-97
-68,-19,48,43,-58,14,2479,-107,-107,234,-312,-97
-78,-24,53,51,-65,14,2498,-97,-102,224,-302,-87
-78,-19,58,48,-68,19,2493,-97,-97,219,-307,-92
-82,-14,68,48,-75,26,2498,-97,-97,219,-307,-92
-82,-9,73,46,-78,31,2503,-97,-102,219,-312,-92
-73,-9,63,41,-68,26,2508,-107,-102,219,-307,-97
-58,-9,48,34,-53,19,2508,-102,-102,219,-307,-97
-48,-9,39,29,-43,14,2513,-102,-102,219,-302,-92
-48,-14,34,31,-41,9,2518,-102,-97,219,-302,-92
-58,-4,53,31,-56,24,2532,-92,-97,209,-302,-102
-53,-4,48,29,-51,21,2537,-92,-97,209,-302,-102
-53,-14,39,34,-46,12,2537,-92,-97,209,-302,-102
-63,-14,48,39,-56,17,2537,-92,-97,209,-302,-102
-43,-4,39,24,-41,17,2542,-82,-87,209,-292,-102
-39,4,43,17,-41,24,2547,-82,-87,214,-287,-102
-39,4,43,17,-41,24,2557,-78,-87,224,-287,-102
-39,4,43,17,-41,24,2562,-73,-78,229,-283,-102
-39,-4,34,21,-36,14,2576,-82,-82,219,-292,-112
-39,14,53,12,-46,34,2576,-82,-73,224,-287,-107
-29,39,68,-4,-48,53,2586,-68,-68,234,-268,-102
-9,39,48,-14,-29,43,2586,-63,-58,239,-263,-92
-34,24,58,4,-46,41,2576,-68,-58,234,-248,-82
-43,19,63,12,-53,41,2591,-68,-48,244,-248,-82
-43,14,58,14,-51,36,2596,-63,-43,248,-244,-78
-39,24,63,7,-51,43,2610,-53,-34,258,-234,-78
-29,39,68,-4,-48,53,2615,-53,-29,268,-214,-68
-24,39,63,-7,-43,51,2605,-53,-24,268,-209,-68
-24,43,68,-9,-46,56,2610,-43,-14,283,-204,-63
-9,53,63,-21,-36,58,2620,-39,-14,287,-190,-58
-14,53,68,-19,-41,61,2640,-43,-4,297,-180,-53
-19,58,78,-19,-48,68,2644,-39,-4,297,-180,-48
-24,58,82,-17,-53,70,2644,-39,4,302,-175,-48
-24,58,82,-17,-53,70,2644,-39,9,312,-170,-43
-14,43,58,-14,-36,51,2649,-39,9,312,-170,-43
-14,43,58,-14,-36,51,2654,-34,9,312,-165,-43
-9,43,53,-17,-31,48,2659,-29,9,317,-165,-39
-4,58,63,-26,-34,61,2664,-24,14,322,-165,-34
-14,63,78,-24,-46,70,2679,-24,19,331,-141,-19
-9,63,73,-26,-41,68,2674,-39,24,331,-141,-14
-4,63,68,-29,-36,65,2664,-48,29,326,-141,-9
0,68,68,-34,-34,68,2659,-68,24,326,-141,-9
24,87,63,-56,-19,75,2664,-82,19,331,-126,-9
29,97,68,-63,-19,82,2674,-97,0,317,-131,-9
29,97,68,-63,-19,82,2679,-112,-9,307,-131,-4
34,107,73,-70,-19,90,2688,-107,-19,307,-126,-4
29,102,73,-65,-21,87,2698,-117,-14,307,-117,-4
24,102,78,-63,-26,90,2708,-117,-14,302,-117,0
4,97,92,-51,-43,95,2723,-112,-19,302,-117,4
9,97,87,-53,-39,92,2732,-112,-19,302,-112,9
19,117,97,-68,-39,107,2742,-122,-29,292,-122,0
29,126,97,-78,-34,112,2747,-122,-29,292,-122,9
34,131,97,-82,-31,114,2747,-122,-29,292,-117,9
34,136,102,-85,-34,119,2747,-122,-29,292,-117,14
43,126,82,-85,-19,104,2752,-131,-43,273,-126,4
43,112,68,-78,-12,90,2757,-131,-43,273,-126,4
63,107,43,-85,9,75,2762,-122,-39,278,-122,4
73,102,29,-87,21,65,2776,-112,-29,287,-117,4
53,112,58,-82,-2,85,2791,-112,-24,292,-112,19
34,102,68,-68,-17,85,2791,-107,-24,292,-102,24
29,102,73,-65,-21,87,2791,-107,-24,292,-97,29
24,97,73,-61,-24,85,2796,-102,-24,287,-92,34
24,87,63,-56,-19,75,2810,-102,-24,297,-92,34
9,68,58,-39,-24,63,2810,-112,-34,273,-107,14
4,53,48,-29,-21,51,2820,-112,-48,263,-126,4
-4,34,39,-14,-21,36,2820,-112,-48,263,-131,-4
-24,24,48,0,-36,36,2835,-102,-43,248,-141,-4
-19,19,39,0,-29,29,2835,-107,-63,229,-156,-24
-14,14,29,0,-21,21,2830,-117,-63,214,-170,-39
-19,4,24,7,-21,14,2830,-122,-73,209,-175,-43
-24,-4,19,14,-21,7,2840,-122,-63,204,-175,-39
-34,-9,24,21,-29,7,2849,-122,-73,195,-180,-43
-39,-9,29,24,-34,9,2854,-122,-73,195,-180,-43
-48,-19,29,34,-39,4,2859,-122,-73,195,-180,-43
-58,-29,29,43,-43,0,2415,-131,-78,180,-190,-53
-48,-29,19,39,-34,-4,1976,-131,-92,175,-200,-58
-48,-39,9,43,-29,-14,1537,-131,-97,170,-204,-58
-53,-39,14,46,-34,-12,1102,-126,-97,170,-204,-58
-58,-29,29,43,-43,0,1088,-126,-97,161,-214,-68
-73,-34,39,53,-56,2,1083,-126,-102,161,-214,-68
-73,-53,19,63,-46,-17,1078,-126,-102,161,-214,-68
-68,-58,9,63,-39,-24,1073,-126,-102,161,-214,-68
-63,-29,34,46,-48,2,1063,-126,-92,170,-195,-58
-63,-29,34,46,-48,2,1063,-126,-92,165,-190,-53
-63,-39,24,51,-43,-7,1068,-131,-97,165,-195,-53
-78,-39,39,58,-58,0,1073,-131,-97,161,-195,-53
-68,-29,39,48,-53,4,1058,-117,-82,161,-185,-58
-53,4,58,24,-56,31,1058,-112,-68,165,-195,-53
-43,4,48,19,-46,26,1078,-73,-39,151,-234,-73
-82,-9,73,46,-78,31,1093,-43,-14,122,-283,-112
-117,-19,97,68,-107,39,1117,-4,19,126,-297,-136
-131,-29,102,80,-117,36,1141,43,73,161,-287,-146
-170,-43,126,107,-148,41,1161,92,146,234,-239,-126
-156,-34,122,95,-139,43,1176,151,239,341,-136,-82
-78,0,78,39,-78,39,1180,209,356,492,0,-19
-29,29,58,0,-43,43,1180,278,483,688,175,58
-34,43,78,-4,-56,61,1171,351,624,893,370,175
-14,58,73,-21,-43,65,1156,424,766,1093,561,273
24,68,43,-46,-9,56,1132,492,927,1327,785,390
82,107,24,-95,29,65,1102,541,1088,1625,1098,580
190,161,-29,-175,109,65,1034,561,1205,1908,1434,780
287,219,-68,-253,178,75,951,541,1268,2132,1703,941
356,292,-63,-324,209,114,888,517,1361,2361,1966,1102
429,385,-43,-407,236,170,814,488,1488,2625,2269,1302
492,507,14,-500,239,261,756,488,1629,2903,2547,1493
546,624,78,-585,234,351,727,488,1742,3064,2698,1610
600,712,112,-656,244,412,692,483,1771,3108,2718,1668
624,732,107,-678,258,419,658,473,1771,3084,2659,1693
605,653,48,-629,278,351,688,502,1717,2937,2464,1615
556,492,-63,-524,309,214,795,507,1610,2703,2108,1361
478,307,-170,-392,324,68,893,439,1420,2405,1629,1015
351,156,-195,-253,273,-19,941,239,1024,1908,1049,649
219,48,-170,-134,195,-61,932,-73,366,1122,331,268
78,-24,-102,-26,90,-63,927,-375,-336,234,-390,-92
-58,-87,-29,73,-14,-58,936,-595,-932,-566,-893,-302
-156,-102,53,129,-104,-24,936,-717,-1351,-1166,-1176,-385
-253,-117,136,185,-195,9,946,-692,-1429,-1322,-1244,-434
-312,-126,185,219,-248,29,946,-561,-1239,-1112,-1132,-439
-283,-126,156,204,-219,14,893,-453,-1073,-888,-980,-409
-234,-151,82,192,-158,-34,844,-317,-941,-761,-883,-380
-214,-180,34,197,-124,-73,854,-131,-771,-614,-800,-361
-214,-185,29,200,-122,-78,888,-9,-634,-483,-712,-361
-219,-214,4,217,-112,-104,932,82,-546,-400,-658,-361
-229,-253,-24,241,-102,-139,985,170,-458,-322,-614,-356
-248,-253,-4,251,-122,-129,1029,209,-385,-253,-585,-331
-239,-244,-4,241,-117,-124,1049,209,-361,-229,-556,-322
-185,-229,-43,207,-70,-136,1039,219,-341,-219,-531,-317
-146,-219,-73,183,-36,-146,1034,209,-292,-165,-502,-302
-161,-200,-39,180,-61,-119,1005,175,-253,-117,-453,-263
-151,-170,-19,161,-65,-95,961,146,-200,-58,-400,-214
-126,-141,-14,134,-56,-78,936,131,-131,9,-331,-170
-117,-112,4,114,-61,-53,907,82,-97,63,-278,-126
-102,-82,19,92,-61,-31,854,4,-97,73,-258,-97
-102,-73,29,87,-65,-21,800,-34,-97,82,-248,-87
-107,-73,34,90,-70,-19,775,-63,-92,87,-253,-102
-87,-68,19,78,-53,-24,766,-68,-82,87,-253,-112
-78,-53,24,65,-51,-14,761,-73,-82,87,-248,-112
-73,-53,19,63,-46,-17,751,-78,-82,97,-244,-107
-82,-53,29,68,-56,-12,736,-92,-82,117,-229,-97
-82,-53,29,68,-56,-12,732,-102,-82,117,-224,-92
-73,-53,19,63,-46,-17,712,-112,-78,122,-209,-87
-73,-53,19,63,-46,-17,722,-112,-68,131,-195,-82
-78,-43,34,61,-56,-4,712,-107,-58,122,-204,-73
-78,-29,48,53,-63,9,707,-107,-58,122,-209,-73
-73,-19,53,46,-63,17,702,-107,-53,126,-209,-78
-68,-14,53,41,-61,19,697,-107,-48,126,-204,-78
-58,-24,34,41,-46,4,673,-126,-53,107,-209,-78
-63,-34,29,48,-46,-2,668,-126,-53,117,-200,-73
-63,-53,9,58,-36,-21,673,-122,-58,122,-180,-73
-63,-63,0,63,-31,-31,678,-117,-63,126,-180,-73
-48,-48,0,48,-24,-24,663,-107,-53,131,-175,-68
-39,-39,0,39,-19,-19,658,-107,-48,131,-185,-63
-34,-29,4,31,-19,-12,653,-92,-43,131,-185,-58
-29,-24,4,26,-17,-9,649,-102,-39,131,-185,-58
-48,-39,9,43,-29,-14,644,-112,-48,141,-185,-68
-73,-48,24,61,-48,-12,644,-112,-48,146,-185,-63
-82,-58,24,70,-53,-17,639,-112,-48,146,-185,-63
-82,-63,19,73,-51,-21,639,-112,-43,146,-185,-68
-78,-39,39,58,-58,0,634,-112,-43,146,-175,-63
-73,-34,39,53,-56,2,634,-107,-39,151,-170,-58
-58,-34,24,46,-41,-4,629,-102,-39,151,-170,-53
-53,-34,19,43,-36,-7,624,-97,-34,151,-165,-43
-43,-24,19,34,-31,-2,619,-92,-29,156,-161,-48
-39,-19,19,29,-29,0,605,-92,-29,165,-151,-43
-34,-14,19,24,-26,2,600,-92,-19,170,-146,-39
-24,-9,14,17,-19,2,595,-92,-14,170,-136,-39
-48,-19,29,34,-39,4,575,-102,-29,165,-151,-48
-63,-29,34,46,-48,2,566,-102,-34,161,-156,-53
-73,-43,29,58,-51,-7,566,-97,-24,165,-156,-53
-92,-53,39,73,-65,-7,580,-87,-24,165,-161,-58
-73,-48,24,61,-48,-12,570,-82,-14,175,-151,-63
-48,-39,9,43,-29,-14,561,-82,-14,180,-136,-63
-24,-19,4,21,-14,-7,556,-73,4,190,-122,-48
-4,-14,-9,9,2,-12,556,-73,4,190,-117,-43
-14,-4,9,9,-12,2,546,-63,4,209,-102,-39
-14,-4,9,9,-12,2,546,-58,9,219,-102,-24
-24,-9,14,17,-19,2,546,-58,19,219,-97,-29
-24,-24,0,24,-12,-12,546,-53,29,219,-97,-24
-34,-24,9,29,-21,-7,531,-63,24,219,-87,-34
-43,-19,24,31,-34,2,522,-58,34,234,-73,-19
-43,-24,19,34,-31,-2,507,-48,39,244,-73,-14
-48,-29,19,39,-34,-4,497,-43,43,248,-58,-9
-39,-24,14,31,-26,-4,488,-39,58,258,-39,-4
-39,-19,19,29,-29,0,488,-39,58,263,-34,0
-29,-9,19,19,-24,4,478,-29,68,278,-34,0
-29,4,34,12,-31,19,473,-24,78,307,-19,4
-14,14,29,0,-21,21,468,-19,87,317,-9,19
-14,9,24,2,-19,17,468,-14,97,326,-4,19
-9,9,19,0,-14,14,468,-14,112,341,14,29
0,19,19,-9,-9,19,478,-4,126,351,29,39
9,14,4,-12,2,9,468,0,126,361,48,58
14,19,4,-17,4,12,453,0,141,380,58,63
14,29,14,-21,0,21,444,14,156,400,73,78
14,29,14,-21,0,21,434,19,170,419,92,87
-9,9,19,0,-14,14,419,14,175,434,97,82
-19,0,19,9,-19,9,400,19,185,448,112,82
-29,-9,19,19,-24,4,395,29,200,463,122,87
-39,-14,24,26,-31,4,400,34,219,478,136,92
-9,9,19,0,-14,14,409,53,239,512,161,112
14,24,9,-19,2,17,395,53,258,531,185,112
24,43,19,-34,2,31,390,58,268,546,200,126
34,58,24,-46,4,41,385,63,278,561,219,126
24,48,24,-36,0,36,385,82,297,580,239,146
29,43,14,-36,7,29,385,87,312,605,253,156
43,48,4,-46,19,26,385,97,322,614,263,165
48,63,14,-56,17,39,385,107,336,639,278,175
68,78,9,-73,29,43,361,97,341,668,292,190
68,87,19,-78,24,53,356,97,351,678,312,190
68,92,24,-80,21,58,356,97,356,683,331,200
68,112,43,-90,12,78,356,102,361,697,346,209
63,117,53,-90,4,85,341,117,380,717,351,234
63,117,53,-90,4,85,336,126,390,727,356,234
53,117,63,-85,-4,90,326,131,390,741,366,239
53,117,63,-85,-4,90,322,131,395,746,390,244
58,107,48,-82,4,78,312,122,390,741,385,239
58,107,48,-82,4,78,302,107,385,741,385,234
53,107,53,-80,0,80,287,97,375,741,385,234
39,112,73,-75,-17,92,283,92,370,736,390,229
58,112,53,-85,2,82,278,102,380,746,400,244
63,112,48,-87,7,80,278,102,380,751,400,253
63,122,58,-92,2,90,273,102,380,761,400,258
78,131,53,-104,12,92,258,92,380,761,400,263
97,122,24,-109,36,73,244,92,380,766,400,263
73,126,53,-100,9,90,224,87,375,771,405,268
73,136,63,-104,4,100,219,87,375,766,409,268
73,146,73,-109,0,109,229,82,375,766,414,273
68,131,63,-100,2,97,219,78,356,761,405,263
63,131,68,-97,-2,100,209,73,351,751,395,263
43,126,82,-85,-19,104,200,73,346,732,385,258
39,117,78,-78,-19,97,195,63,346,717,380,258
63,107,43,-85,9,75,195,43,326,702,370,253
68,107,39,-87,14,73,190,43,317,692,361,253
63,97,34,-80,14,65,190,43,312,688,351,248
68,97,29,-82,19,63,190,34,297,678,336,244
58,102,43,-80,7,73,165,29,297,668,317,239
53,102,48,-78,2,75,141,24,287,653,292,229
48,107,58,-78,-4,82,131,19,268,629,283,214
34,112,78,-73,-21,95,146,19,258,610,268,204
43,112,68,-78,-12,90,141,9,234,595,248,195
43,107,63,-75,-9,85,131,-4,219,570,234,180
48,92,43,-70,2,68,126,-9,204,546,219,175
53,92,39,-73,7,65,126,-9,190,522,204,170
58,97,39,-78,9,68,136,-9,170,512,180,151
48,92,43,-70,2,68,141,-14,146,488,165,136
43,82,39,-63,2,61,141,-29,126,463,146,131
34,82,48,-58,-7,65,141,-29,117,448,131,126
14,68,53,-41,-19,61,131,-34,117,424,107,117
14,53,39,-34,-12,46,122,-48,102,409,92,112
24,53,29,-39,-2,41,136,-53,78,390,78,102
29,58,29,-43,0,43,136,-53,58,370,63,87
19,48,29,-34,-4,39,122,-63,39,351,53,87
9,43,34,-26,-12,39,122,-68,29,336,43,78
0,43,43,-21,-21,43,122,-73,24,326,24,73
-14,34,48,-9,-31,41,126,-73,9,307,14,68
-34,29,63,2,-48,46,126,-82,0,292,-4,58
-39,14,53,12,-46,34,117,-87,-9,278,-19,53
-43,-9,34,26,-39,12,107,-92,-19,268,-24,34
-43,-14,29,29,-36,7,107,-102,-24,263,-34,29
-39,4,43,17,-41,24,97,-92,-19,253,-24,29
-29,9,39,9,-34,24,92,-92,-34,253,-29,29
-24,14,39,4,-31,26,78,-92,-39,253,-34,29
-19,19,39,0,-29,29,63,-92,-43,234,-43,29
-9,19,29,-4,-19,24,68,-92,-48,239,-48,29
-9,4,14,2,-12,9,73,-97,-53,234,-53,19
-9,-4,4,7,-7,0,68,-102,-53,234,-63,14
-24,-4,19,14,-21,7,68,-107,-58,234,-63,9
-14,-14,0,14,-7,-7,78,-117,-73,224,-68,0
-9,-4,4,7,-7,0,82,-117,-78,219,-68,0
-9,-4,4,7,-7,0,87,-122,-82,209,-68,4
-19,-9,9,14,-14,0,92,-122,-92,200,-73,4
-29,-4,24,17,-26,9,78,-122,-92,204,-73,4
-24,4,29,9,-26,17,73,-117,-92,204,-78,4
-14,9,24,2,-19,17,68,-117,-97,204,-78,4
-24,-4,19,14,-21,7,63,-117,-102,195,-82,-4
-4,4,9,0,-7,7,73,-112,-82,209,-58,9
0,19,19,-9,-9,19,78,-97,-78,214,-58,9
-14,9,24,2,-19,17,63,-102,-82,200,-68,0
-19,0,19,9,-19,9,58,-107,-87,195,-78,0
-24,-9,14,17,-19,2,53,-112,-92,190,-87,0
-29,-19,9,24,-19,-4,48,-117,-97,185,-97,0
-39,-24,14,31,-26,-4,63,-107,-102,195,-87,-9
-39,-19,19,29,-29,0,53,-107,-97,190,-92,-14
-43,-14,29,29,-36,7,53,-107,-97,190,-92,-14
-43,-9,34,26,-39,12,53,-107,-102,190,-97,-14
-43,-14,29,29,-36,7,43,-107,-92,190,-102,-19
-39,-19,19,29,-29,0,39,-102,-92,190,-102,-19
-39,-24,14,31,-26,-4,39,-102,-92,190,-97,-14
-48,-34,14,41,-31,-9,39,-102,-87,190,-97,-14
-58,-34,24,46,-41,-4,29,-92,-87,190,-97,-14
-53,-34,19,43,-36,-7,29,-92,-87,190,-97,-14
-53,-43,9,48,-31,-17,24,-92,-87,190,-97,-14
-63,-43,19,53,-41,-12,19,-92,-87,190,-97,-14
-58,-58,0,58,-29,-29,19,-92,-78,180,-102,-24
-58,-53,4,56,-31,-24,19,-92,-78,185,-102,-24
-63,-58,4,61,-34,-26,24,-87,-78,195,-107,-24
-68,-63,4,65,-36,-29,24,-82,-68,200,-107,-24
-43,-43,0,43,-21,-21,19,-73,-53,204,-102,-19
-29,-4,24,17,-26,9,19,-73,-43,214,-92,-9
-4,39,43,-17,-24,41,29,-58,-39,229,-68,0
29,58,29,-43,0,43,29,-53,-29,239,-58,14
9,34,24,-21,-7,29,4,-39,-19,244,-53,14
-4,29,34,-12,-19,31,14,-39,-9,253,-53,14
-9,24,34,-7,-21,29,14,-34,-4,258,-48,19
-9,34,43,-12,-26,39,24,-24,4,268,-39,19
-14,24,39,-4,-26,31,9,-34,0,268,-39,19
-14,19,34,-2,-24,26,-9,-34,4,268,-34,19
-19,19,39,0,-29,29,-14,-24,14,283,-29,24
-9,24,34,-7,-21,29,-14,-19,14,287,-14,29
4,39,34,-21,-14,36,-9,-4,29,302,-4,43
9,48,39,-29,-14,43,-9,0,34,307,-4,48
14,53,39,-34,-12,46,-14,0,48,317,0,48
24,58,34,-41,-4,46,-19,0,58,331,4,53
14,39,24,-26,-4,31,-24,0,53,326,0,43
4,34,29,-19,-12,31,-29,4,58,331,9,43
0,29,29,-14,-14,29,-34,9,63,341,14,48
-4,39,43,-17,-24,41,-39,14,73,351,19,53
0,63,63,-31,-31,63,-43,24,82,361,39,63
9,73,63,-41,-26,68,-58,9,82,361,43,73
19,82,63,-51,-21,73,-78,0,82,356,48,82
29,97,68,-63,-19,82,-92,-19,73,356,53,87
48,97,48,-73,0,73,-112,-48,53,351,43,87
48,97,48,-73,0,73,-126,-68,29,336,34,87
43,87,43,-65,0,65,-146,-87,14,326,29,92
43,87,43,-65,0,65,-161,-87,0,326,29,92
43,82,39,-63,2,61,-165,-87,4,317,29,78
34,73,39,-53,-2,56,-170,-87,4,312,29,78
9,58,48,-34,-19,53,-170,-82,0,312,29,78
9,48,39,-29,-14,43,-175,-82,0,312,34,78
39,82,43,-61,-2,63,-175,-78,9,317,39,92
68,107,39,-87,14,73,-170,-73,9,322,43,107
92,126,34,-109,29,80,-170,-68,9,326,53,112
112,146,34,-129,39,90,-170,-63,9,331,58,122
102,131,29,-117,36,80,-175,-82,-4,322,48,112
82,112,29,-97,26,70,-180,-82,-4,322,48,112
82,102,19,-92,31,61,-185,-73,0,326,53,112
73,92,19,-82,26,56,-180,-63,9,336,58,112
68,82,14,-75,26,48,-175,-53,24,341,68,126
53,73,19,-63,17,46,-175,-48,24,341,73,131
53,73,19,-63,17,46,-175,-48,24,341,73,136
53,68,14,-61,19,41,-170,-43,24,336,73,141
43,73,29,-58,7,51,-175,-43,24,336,73,131
29,58,29,-43,0,43,-175,-53,14,312,58,112
24,48,24,-36,0,36,-165,-53,0,302,39,102
14,34,19,-24,-2,26,-165,-53,0,302,34,92
-29,14,43,7,-36,29,-151,-63,-9,278,9,73
-29,0,29,14,-29,14,-151,-68,-34,258,-9,53
-29,-14,14,21,-21,0,-156,-78,-39,244,-29,39
-39,-34,4,36,-21,-14,-156,-82,-53,239,-39,34
-53,-43,9,48,-31,-17,-161,-97,-63,229,-43,19
-63,-58,4,61,-34,-26,-156,-102,-73,214,-53,14
-68,-68,0,68,-34,-34,-156,-107,-73,209,-58,14
-78,-87,-9,82,-34,-48,-156,-112,-73,204,-63,14
-63,-73,-9,68,-26,-41,-161,-107,-68,204,-58,19
-39,-58,-19,48,-9,-39,-161,-102,-73,204,-63,19
-24,-53,-29,39,2,-41,-161,-97,-68,204,-63,24
-14,-39,-24,26,4,-31,-156,-87,-58,209,-58,29
-9,-14,-4,12,-2,-9,-165,-87,-58,219,-58,29
-24,-14,9,19,-17,-2,-165,-87,-63,219,-58,29
-24,-29,-4,26,-9,-17,-165,-87,-63,219,-58,29
-19,-29,-9,24,-4,-19,-165,-87,-63,219,-58,29
-19,-14,4,17,-12,-4,-180,-92,-68,204,-68,29
-24,-19,4,21,-14,-7,-185,-97,-73,195,-73,24
-29,-34,-4,31,-12,-19,-185,-107,-82,190,-87,14
-48,-39,9,43,-29,-14,-185,-112,-87,180,-97,4
-58,-29,29,43,-43,0,-170,-97,-63,180,-87,9
-73,-24,48,48,-61,12,-151,-73,-48,175,-117,-4
-63,-14,48,39,-56,17,-131,-34,-19,161,-146,-34
-63,0,63,31,-63,31,-87,14,14,161,-165,-53
-117,-19,97,68,-107,39,-63,63,68,185,-170,-58
-141,-29,112,85,-126,41,-29,122,151,248,-131,-39
-122,-24,97,73,-109,36,-19,170,234,341,-53,-9
-126,-24,102,75,-114,39,-4,229,336,468,68,43
-126,-19,107,73,-117,43,0,287,463,649,224,117
-58,9,68,24,-63,39,0,356,600,844,400,195
24,34,9,-29,7,21,-29,429,722,1029,575,292
63,48,-14,-56,39,17,-43,502,893,1268,795,409
82,58,-24,-70,53,17,-68,570,1063,1551,1088,585
161,97,-63,-129,112,17,-126,600,1195,1849,1429,775
268,161,-107,-214,187,26,-195,590,1263,2083,1717,946
336,219,-117,-278,226,51,-248,561,1346,2298,1966,1107
375,312,-63,-344,219,124,-302,536,1459,2547,2249,1288
439,453,14,-446,212,234,-375,536,1615,2840,2562,1498
512,575,63,-544,224,319,-424,536,1747,3050,2762,1649
566,634,68,-600,248,351,-473,517,1781,3123,2806,1708
600,692,92,-646,253,392,-527,502,1781,3118,2776,1727
663,712,48,-688,307,380,-512,502,1732,3015,2649,1693
653,575,-78,-614,366,248,-424,512,1620,2801,2347,1507
546,346,-200,-446,373,73,-287,468,1464,2518,1893,1205
429,190,-239,-309,334,-24,-180,302,1137,2093,1346,839
361,126,-234,-244,297,-53,-170,14,527,1381,649,463
209,19,-190,-114,200,-85,-180,-297,-200,497,-97,82
19,-92,-112,36,65,-102,-156,-551,-844,-331,-673,-190
-87,-146,-58,117,-14,-102,-156,-722,-1332,-1005,-1010,-312
-146,-180,-34,163,-56,-107,-156,-736,-1537,-1332,-1156,-375
-253,-204,48,229,-151,-78,-126,-634,-1410,-1224,-1117,-414
-302,-175,126,239,-214,-24,-136,-502,-1200,-976,-956,-370
-273,-156,117,214,-195,-19,-180,-336,-1034,-800,-814,-312
-234,-190,43,212,-139,-73,-180,-141,-873,-663,-736,-292
-224,-209,14,217,-119,-97,-151,4,-722,-527,-683,-302
-224,-224,0,224,-112,-112,-107,126,-614,-424,-614,-302
-239,-253,-14,246,-112,-134,-43,219,-517,-351,-551,-302
-229,-273,-43,251,-92,-158,0,248,-448,-283,-497,-297
-229,-273,-43,251,-92,-158,14,239,-414,-234,-468,-273
-219,-273,-53,246,-82,-163,24,248,-370,-200,-429,-244
-185,-258,-73,222,-56,-165,4,239,-322,-161,-395,-229
-146,-219,-73,183,-36,-146,-39,180,-283,-117,-375,-204
-122,-180,-58,151,-31,-119,-58,175,-234,-58,-317,-156
-112,-161,-48,136,-31,-104,-82,156,-151,29,-234,-107
-107,-131,-24,119,-41,-78,-126,102,-112,78,-185,-73
-87,-122,-34,104,-26,-78,-175,24,-117,92,-170,-48
-73,-112,-39,92,-17,-75,-209,-24,-117,92,-161,-48
-82,-92,-9,87,-36,-51,-204,-43,-97,102,-141,-39
-92,-82,9,87,-51,-36,-219,-68,-102,97,-156,-39
-78,-78,0,78,-39,-39,-219,-68,-92,97,-156,-43
-73,-63,9,68,-41,-26,-214,-68,-92,97,-151,-39
-73,-63,9,68,-41,-26,-214,-68,-92,107,-146,-29
-92,-82,9,87,-51,-36,-234,-92,-102,107,-156,-24
-92,-82,9,87,-51,-36,-244,-102,-112,107,-156,-24
-82,-82,0,82,-41,-41,-268,-112,-117,112,-146,-24
-82,-82,0,82,-41,-41,-263,-112,-117,122,-136,-24
-68,-68,0,68,-34,-34,-253,-97,-102,131,-131,-19
-58,-48,9,53,-34,-19,-258,-97,-97,131,-131,-14
-43,-34,9,39,-26,-12,-263,-97,-87,136,-126,-14
-29,-24,4,26,-17,-9,-268,-97,-78,136,-117,-9
-39,-24,14,31,-26,-4,-287,-102,-68,131,-102,4
-43,-24,19,34,-31,-2,-287,-97,-63,146,-92,14
-43,-34,9,39,-26,-12,-278,-87,-63,156,-73,19
-43,-34,9,39,-26,-12,-268,-78,-63,165,-73,24
-63,-53,9,58,-36,-21,-278,-82,-78,161,-92,9
-68,-58,9,63,-39,-24,-287,-87,-78,151,-107,4
-78,-63,14,70,-46,-24,-297,-78,-78,141,-112,0
-87,-73,14,80,-51,-29,-307,-92,-78,131,-117,-9
-68,-78,-9,73,-29,-43,-297,-92,-78,141,-107,0
-73,-78,-4,75,-34,-41,-292,-92,-78,146,-107,4
-63,-78,-14,70,-24,-46,-292,-92,-78,146,-107,4
-43,-73,-29,58,-7,-51,-287,-92,-73,146,-107,0
-48,-58,-9,53,-19,-34,-302,-82,-63,146,-87,9
-53,-53,0,53,-26,-26,-302,-78,-58,151,-82,9
-48,-53,-4,51,-21,-29,-307,-73,-58,151,-82,9
-53,-53,0,53,-26,-26,-312,-68,-53,151,-78,14
-53,-58,-4,56,-24,-31,-307,-63,-48,156,-78,19
-48,-58,-9,53,-19,-34,-312,-63,-48,165,-73,24
-43,-58,-14,51,-14,-36,-307,-63,-39,170,-73,29
-34,-58,-24,46,-4,-41,-302,-63,-34,170,-68,29
-48,-68,-19,58,-14,-43,-302,-63,-34,161,-68,14
-53,-68,-14,61,-19,-41,-312,-63,-34,161,-68,14
-53,-73,-19,63,-17,-46,-312,-58,-19,170,-63,19
-63,-73,-9,68,-26,-41,-297,-48,-14,175,-63,19
-53,-63,-9,58,-21,-36,-307,-43,-4,180,-53,29
-39,-48,-9,43,-14,-29,-307,-43,-4,190,-39,34
-24,-24,0,24,-12,-12,-302,-34,14,204,-24,53
-14,-14,0,14,-7,-7,-292,-34,14,209,-19,63
-34,-29,4,31,-19,-12,-297,-34,24,214,-24,63
-34,-34,0,34,-17,-17,-302,-29,29,219,-24,73
-43,-43,0,43,-21,-21,-307,-29,39,214,-19,63
-43,-63,-19,53,-12,-41,-312,-24,48,209,-19,63
-53,-39,14,46,-34,-12,-312,-24,39,204,-9,53
-53,-29,24,41,-39,-2,-317,-19,53,224,4,68
-43,-29,14,36,-29,-7,-326,-9,63,239,4,73
-39,-29,9,34,-24,-9,-331,-4,73,248,19,78
-24,-29,-4,26,-9,-17,-341,-9,68,244,19,73
-19,-29,-9,24,-4,-19,-351,-9,68,244,24,78
-4,-24,-19,14,7,-21,-370,0,78,253,24,78
0,-14,-14,7,7,-14,-385,4,87,278,39,82
-19,-19,0,19,-9,-9,-390,9,107,287,58,97
-34,-29,4,31,-19,-12,-390,14,117,297,63,97
-43,-34,9,39,-26,-12,-390,14,131,312,82,107
-48,-29,19,39,-34,-4,-380,24,146,322,97,117
-29,-9,19,19,-24,4,-390,48,165,341,117,126
-14,0,14,7,-14,7,-395,48,180,361,126,131
-4,14,19,-4,-12,17,-395,63,195,380,141,146
4,19,14,-12,-4,17,-395,68,209,400,161,156
-9,4,14,2,-12,9,-400,73,219,414,175,165
-19,0,19,9,-19,9,-419,78,224,429,190,170
-29,-4,24,17,-26,9,-424,87,234,444,200,180
-39,-4,34,21,-36,14,-419,92,248,458,214,190
-9,14,24,-2,-17,19,-424,112,268,483,244,209
14,24,9,-19,2,17,-444,112,287,502,263,209
24,39,14,-31,4,26,-453,117,297,517,273,224
34,48,14,-41,9,31,-463,122,307,531,287,224
34,53,19,-43,7,36,-468,131,317,541,297,234
39,53,14,-46,12,34,-463,136,331,566,312,244
53,63,9,-58,21,36,-458,146,341,575,322,253
58,82,24,-70,17,53,-453,156,356,600,336,263
58,73,14,-65,21,43,-468,151,351,605,336,258
48,68,19,-58,14,43,-473,146,361,610,351,258
39,58,19,-48,9,39,-473,141,366,610,366,268
29,63,34,-46,-2,48,-473,141,370,619,375,278
29,58,29,-43,0,43,-478,141,370,619,385,292
24,58,34,-41,-4,46,-483,146,380,629,385,292
9,58,48,-34,-19,53,-492,146,380,644,390,297
4,58,53,-31,-24,56,-497,141,385,649,409,302
24,73,48,-48,-12,61,-512,141,385,663,414,307
39,78,39,-58,0,58,-517,136,385,663,414,312
48,82,34,-65,7,58,-527,136,380,663,414,322
48,92,43,-70,2,68,-527,141,380,658,419,326
63,102,39,-82,12,70,-522,131,390,668,429,331
73,102,29,-87,21,65,-522,131,390,673,429,341
78,112,34,-95,21,73,-527,131,390,683,429,346
97,122,24,-109,36,73,-541,122,390,683,429,351
92,102,9,-97,41,56,-541,112,390,678,424,346
53,97,43,-75,4,70,-556,107,385,673,424,346
39,97,58,-68,-9,78,-556,107,385,658,424,341
24,97,73,-61,-24,85,-541,102,385,649,424,341
34,87,53,-61,-9,70,-541,97,366,639,409,331
34,92,58,-63,-12,75,-541,92,361,634,405,331
19,92,73,-56,-26,82,-541,92,356,619,400,326
19,87,68,-53,-24,78,-536,82,356,610,400,326
43,92,48,-68,-2,70,-527,82,346,595,370,312
48,97,48,-73,0,73,-522,82,336,585,361,312
43,92,48,-68,-2,70,-512,82,331,580,351,307
48,97,48,-73,0,73,-502,73,317,570,336,302
39,92,53,-65,-7,73,-507,78,317,551,331,307
34,82,48,-58,-7,65,-522,73,307,536,312,297
29,78,48,-53,-9,63,-522,68,287,512,307,283
14,73,58,-43,-21,65,-497,68,278,492,297,273
0,68,68,-34,-34,68,-502,53,253,468,263,263
-4,58,63,-26,-34,61,-512,34,239,444,244,248
-4,39,43,-17,-24,41,-517,24,224,419,224,244
-4,34,39,-14,-21,36,-517,19,209,395,204,239
0,39,39,-19,-19,39,-502,19,204,385,185,229
0,43,43,-21,-21,43,-492,14,185,361,175,214
4,43,39,-24,-17,41,-488,0,170,336,161,209
4,53,48,-29,-21,51,-483,0,165,322,151,204
-14,39,53,-12,-34,46,-483,4,156,307,131,204
-14,24,39,-4,-26,31,-492,-9,141,292,112,200
-4,24,29,-9,-17,26,-478,-14,117,273,92,190
0,29,29,-14,-14,29,-478,-14,97,253,73,175
-9,24,34,-7,-21,29,-492,-34,87,234,58,165
-9,14,24,-2,-17,19,-492,-39,78,219,53,156
-9,9,19,0,-14,14,-492,-43,73,209,39,151
-14,-4,9,9,-12,2,-488,-43,58,190,34,146
-43,-4,39,24,-41,17,-488,-43,39,165,14,136
-48,-14,34,31,-41,9,-488,-48,29,151,0,131
-53,-34,19,43,-36,-7,-488,-53,19,141,-4,112
-53,-34,19,43,-36,-7,-478,-63,14,136,-14,107
-53,-39,14,46,-34,-12,-478,-63,9,122,-14,97
-48,-39,9,43,-29,-14,-473,-63,-4,117,-19,97
-48,-39,9,43,-29,-14,-478,-63,-9,112,-24,97
-48,-39,9,43,-29,-14,-483,-63,-14,87,-34,97
-48,-34,14,41,-31,-9,-473,-63,-9,87,-39,107
-48,-43,4,46,-26,-19,-473,-68,-14,87,-43,97
-48,-48,0,48,-24,-24,-483,-73,-14,92,-53,92
-63,-43,19,53,-41,-12,-488,-78,-19,97,-53,87
-63,-43,19,53,-41,-12,-488,-68,-29,92,-58,78
-58,-34,24,46,-41,-4,-483,-68,-29,82,-58,78
-58,-34,24,46,-41,-4,-478,-73,-29,68,-58,82
-68,-39,29,53,-48,-4,-473,-73,-34,53,-63,82
-78,-48,29,63,-53,-9,-473,-78,-39,48,-68,78
-73,-53,19,63,-46,-17,-473,-78,-43,48,-78,73
-63,-63,0,63,-31,-31,-473,-82,-53,48,-82,68
-73,-92,-19,82,-26,-56,-473,-87,-63,39,-92,53
-63,-34,29,48,-46,-2,-453,-63,-43,43,-78,87
-87,-48,39,68,-63,-4,-439,-58,-39,48,-78,87
-82,-48,34,65,-58,-7,-448,-68,-48,39,-87,82
-78,-48,29,63,-53,-9,-448,-68,-48,39,-87,78
-73,-48,24,61,-48,-12,-448,-68,-48,39,-87,73
-68,-48,19,58,-43,-14,-448,-68,-48,39,-87,68
-68,-58,9,63,-39,-24,-444,-78,-48,29,-97,58
-68,-58,9,63,-39,-24,-453,-78,-48,24,-102,53
-73,-58,14,65,-43,-21,-453,-78,-53,24,-102,53
-73,-58,14,65,-43,-21,-453,-78,-63,24,-107,53
-82,-48,34,65,-58,-7,-453,-68,-53,24,-102,48
-78,-48,29,63,-53,-9,-458,-63,-53,24,-102,48
-78,-48,29,63,-53,-9,-458,-63,-53,24,-97,53
-87,-53,34,70,-61,-9,-458,-63,-48,24,-97,53
-82,-63,19,73,-51,-21,-463,-63,-48,24,-117,43
-73,-63,9,68,-41,-26,-458,-63,-48,24,-117,43
-68,-73,-4,70,-31,-39,-458,-63,-48,24,-117,43
-73,-73,0,73,-36,-36,-458,-63,-48,24,-117,43
-63,-63,0,63,-31,-31,-453,-58,-43,34,-112,53
-58,-53,4,56,-31,-24,-448,-53,-39,39,-102,53
-58,-53,4,56,-31,-24,-439,-43,-34,48,-97,53
-58,-53,4,56,-31,-24,-434,-34,-19,53,-87,53
-73,-58,14,65,-43,-21,-444,-43,-24,43,-92,43
-78,-43,34,61,-56,-4,-448,-43,-14,48,-92,48
-73,-24,48,48,-61,12,-444,-29,-9,58,-78,53
-58,-29,29,43,-43,0,-448,-24,0,63,-78,63
-78,-53,24,65,-51,-14,-458,-29,-9,58,-73,53
-92,-58,34,75,-63,-12,-444,-29,0,68,-73,53
-97,-63,34,80,-65,-14,-439,-24,4,73,-68,58
-97,-53,43,75,-70,-4,-424,-14,14,82,-58,58
-82,-34,48,58,-65,7,-419,0,29,97,-39,82
-63,-19,43,41,-53,12,-429,4,34,102,-34,87
-48,0,48,24,-48,24,-424,19,43,122,-29,97
-19,24,43,-2,-31,34,-414,29,43,131,-14,107
-24,24,48,0,-36,36,-419,24,63,141,-9,112
-29,29,58,0,-43,43,-429,29,63,141,-4,117
-34,29,63,2,-48,46,-444,29,73,146,4,117
-34,29,63,2,-48,46,-458,29,78,156,14,122
-29,9,39,9,-34,24,-473,24,73,156,9,107
-24,4,29,9,-26,17,-478,24,68,156,9,102
-14,0,14,7,-14,7,-483,24,63,161,4,102
-4,9,14,-2,-9,12,-488,24,63,165,0,102
-9,9,19,0,-14,14,-502,14,53,165,14,117
-9,14,24,-2,-17,19,-517,0,53,165,14,122
-9,19,29,-4,-19,24,-536,-9,53,161,14,126
-9,29,39,-9,-24,34,-551,-29,43,161,14,126
-4,39,43,-17,-24,41,-566,-48,29,156,14,117
-9,39,48,-14,-29,43,-575,-68,9,141,4,117
-19,29,48,-4,-34,39,-590,-87,0,131,0,122
-24,29,53,-2,-39,41,-600,-87,-9,131,0,122
4,39,34,-21,-14,36,-595,-78,-14,131,0,126
14,43,29,-29,-7,36,-590,-78,-14,126,0,126
9,43,34,-26,-12,39,-580,-73,-19,126,0,126
29,48,19,-39,4,34,-575,-73,-19,126,4,126
34,58,24,-46,4,41,-575,-73,-29,126,4,126
39,58,19,-48,9,39,-570,-73,-29,126,4,136
39,53,14,-46,12,34,-570,-73,-29,126,9,136
34,48,14,-41,9,31,-570,-73,-29,126,9,141
19,43,24,-31,-2,34,-575,-92,-34,112,0,141
4,34,29,-19,-12,31,-580,-92,-34,107,0,141
9,34,24,-21,-7,29,-585,-82,-29,107,4,141
4,34,29,-19,-12,31,-580,-73,-19,112,9,141
4,34,29,-19,-12,31,-566,-63,-24,126,9,141
-4,24,29,-9,-17,26,-566,-58,-24,126,14,141
0,24,24,-12,-12,24,-566,-58,-24,126,14,141
4,19,14,-12,-4,17,-561,-53,-24,122,14,141
-14,4,19,4,-17,12,-556,-58,-29,107,0,136
-39,-19,19,29,-29,0,-556,-73,-43,78,-19,112
-53,-39,14,46,-34,-12,-546,-78,-63,63,-43,97
-73,-63,9,68,-41,-26,-546,-82,-68,58,-53,82
-92,-63,29,78,-61,-17,-522,-78,-63,48,-53,78
-78,-58,19,68,-48,-19,-522,-78,-82,34,-68,63
-63,-53,9,58,-36,-21,-527,-82,-82,24,-82,53
-58,-53,4,56,-31,-24,-527,-82,-92,24,-87,53
-48,-43,4,46,-26,-19,-517,-78,-82,29,-87,48
-53,-48,4,51,-29,-21,-507,-82,-92,19,-92,43
-53,-48,4,51,-29,-21,-502,-87,-92,19,-92,43
-58,-58,0,58,-29,-29,-497,-92,-92,19,-92,43
-78,-78,0,78,-39,-39,-502,-102,-102,14,-82,43
-78,-87,-9,82,-34,-48,-502,-102,-112,9,-92,39
-87,-107,-19,97,-34,-63,-502,-102,-112,4,-97,39
-102,-117,-14,109,-43,-65,-497,-97,-107,4,-97,39
-92,-87,4,90,-48,-41,-512,-97,-107,-4,-97,39
-102,-82,19,92,-61,-31,-517,-97,-112,-4,-97,39
-97,-92,4,95,-51,-43,-522,-97,-112,-4,-97,39
-87,-87,0,87,-43,-43,-527,-97,-112,-4,-97,39
-82,-73,9,78,-46,-31,-517,-87,-102,4,-102,53
-82,-78,4,80,-43,-36,-517,-87,-102,0,-102,53
-82,-92,-9,87,-36,-51,-512,-92,-107,0,-112,48
-97,-97,0,97,-48,-48,-507,-92,-107,-4,-117,43
-78,-29,48,53,-63,9,-453,-68,-82,4,-107,58
-82,-34,48,58,-65,7,-424,-34,-58,-19,-136,34
-131,-63,68,97,-100,2,-395,4,-29,-43,-165,-4
-170,-58,112,114,-141,26,-361,53,14,-34,-185,-24
-165,-58,107,112,-136,24,-326,112,68,19,-170,-19
-161,-87,73,124,-117,-7,-322,161,141,82,-131,-9
-170,-131,39,151,-104,-46,-322,200,214,175,-53,9
-156,-122,34,139,-95,-43,-297,258,326,312,68,73
-126,-78,48,102,-87,-14,-292,326,463,492,234,156
-117,-68,48,92,-82,-9,-322,395,590,697,419,253
-73,-53,19,63,-46,-17,-351,458,732,893,624,351
14,0,-14,-7,14,-7,-366,531,902,1141,854,468
122,58,-63,-90,92,-2,-409,610,1073,1444,1166,644
209,107,-102,-158,156,2,-468,629,1185,1712,1488,854
268,161,-107,-214,187,26,-527,610,1254,1937,1766,1015
336,248,-87,-292,212,80,-570,580,1346,2152,2025,1176
414,361,-53,-387,234,153,-624,556,1468,2420,2308,1366
488,483,-4,-485,246,239,-697,546,1615,2684,2571,1546
551,575,24,-563,263,300,-736,536,1717,2845,2723,1649
585,644,58,-614,263,351,-756,546,1771,2908,2766,1717
619,692,73,-656,273,383,-800,551,1761,2884,2708,1727
634,644,9,-639,312,326,-785,551,1673,2723,2493,1634
595,468,-126,-531,361,170,-678,531,1522,2479,2122,1390
468,229,-239,-348,353,-4,-541,439,1298,2147,1620,1049
331,63,-268,-197,300,-102,-483,195,814,1576,995,663
234,-39,-273,-97,253,-156,-492,-151,87,756,258,287
73,-146,-219,36,146,-183,-502,-473,-629,-126,-439,-63
-78,-219,-141,148,31,-180,-507,-697,-1205,-897,-888,-268
-146,-224,-78,185,-34,-151,-527,-810,-1586,-1424,-1107,-331
-214,-219,-4,217,-104,-112,-517,-766,-1634,-1566,-1176,-385
-312,-244,68,278,-190,-87,-488,-614,-1420,-1351,-1068,-395
-302,-253,48,278,-175,-102,-497,-444,-1200,-1102,-907,-331
-244,-253,-9,248,-117,-131,-522,-268,-1054,-966,-814,-292
-263,-258,4,261,-134,-126,-502,-122,-932,-868,-766,-302
-283,-278,4,280,-143,-136,-444,24,-790,-732,-683,-302
-273,-302,-29,287,-122,-165,-380,156,-653,-619,-614,-292
-287,-302,-14,295,-136,-158,-326,229,-556,-536,-551,-292
-297,-292,4,295,-151,-143,-273,258,-478,-458,-497,-278
-258,-292,-34,275,-112,-163,-248,287,-405,-390,-439,-224
-229,-312,-82,270,-73,-197,-278,278,-370,-356,-400,-195
-224,-287,-63,256,-80,-175,-307,229,-341,-326,-385,-180
-185,-258,-73,222,-56,-165,-331,190,-292,-283,-346,-156
-141,-239,-97,190,-21,-168,-361,165,-224,-214,-287,-117
-161,-209,-48,185,-56,-129,-424,107,-190,-175,-244,-97
-185,-200,-14,192,-85,-107,-488,14,-170,-146,-224,-82
-175,-200,-24,187,-75,-112,-517,-24,-156,-122,-190,-58
-151,-180,-29,165,-61,-104,-522,-34,-146,-102,-170,-39
-141,-122,19,131,-80,-51,-507,-53,-136,-92,-151,-19
-141,-107,34,124,-87,-36,-507,-63,-131,-87,-146,-19
-117,-87,29,102,-73,-29,-502,-58,-122,-87,-146,-24
-102,-58,43,80,-73,-7,-492,-53,-122,-87,-141,-19
-92,-43,48,68,-70,2,-488,-48,-122,-78,-136,-9
-92,-68,24,80,-58,-21,-507,-53,-117,-73,-136,-9
-92,-73,19,82,-56,-26,-517,-63,-122,-78,-136,-4
-82,-78,4,80,-43,-36,-541,-73,-122,-78,-126,0
-82,-82,0,82,-41,-41,-536,-73,-117,-73,-117,4
-97,-102,-4,100,-46,-53,-536,-78,-126,-78,-131,0
-107,-107,0,107,-53,-53,-541,-78,-126,-82,-141,-4
-112,-117,-4,114,-53,-61,-546,-78,-122,-82,-146,-14
-117,-131,-14,124,-51,-73,-551,-78,-117,-87,-146,-19
-107,-112,-4,109,-51,-58,-546,-82,-107,-82,-131,-4
-102,-102,0,102,-51,-51,-541,-78,-102,-68,-122,4
-92,-102,-9,97,-41,-56,-527,-68,-102,-58,-102,9
-82,-92,-9,87,-36,-51,-512,-58,-102,-48,-102,14
-92,-102,-9,97,-41,-56,-517,-63,-107,-58,-117,4
-87,-97,-9,92,-39,-53,-522,-68,-107,-63,-126,4
-87,-92,-4,90,-41,-48,-527,-58,-107,-68,-126,4
-87,-92,-4,90,-41,-48,-531,-73,-107,-73,-126,0
-87,-92,-4,90,-41,-48,-531,-63,-97,-63,-112,9
-102,-97,4,100,-53,-46,-527,-63,-97,-58,-107,14
-102,-102,0,102,-51,-51,-527,-63,-97,-58,-102,14
-92,-102,-9,97,-41,-56,-522,-63,-92,-58,-97,9
-102,-102,0,102,-51,-51,-512,-73,-92,-68,-97,9
-102,-102,0,102,-51,-51,-507,-68,-87,-63,-92,9
-92,-107,-14,100,-39,-61,-507,-63,-87,-63,-92,9
-92,-112,-19,102,-36,-65,-507,-58,-82,-63,-87,14
-82,-102,-19,92,-31,-61,-517,-43,-78,-58,-87,14
-78,-97,-19,87,-29,-58,-527,-43,-78,-48,-82,14
-73,-92,-19,82,-26,-56,-527,-43,-68,-43,-82,14
-63,-87,-24,75,-19,-56,-527,-43,-63,-43,-78,9
-82,-102,-19,92,-31,-61,-546,-43,-73,-43,-87,4
-92,-107,-14,100,-39,-61,-556,-43,-73,-43,-87,4
-97,-117,-19,107,-39,-68,-556,-39,-58,-34,-82,9
-112,-122,-9,117,-51,-65,-541,-29,-53,-29,-82,9
-102,-107,-4,104,-48,-56,-546,-24,-43,-29,-73,14
-87,-97,-9,92,-39,-53,-551,-24,-43,-24,-58,14
-73,-78,-4,75,-34,-41,-551,-14,-24,-14,-43,29
-63,-73,-9,68,-26,-41,-546,-14,-24,-14,-39,34
-73,-73,0,73,-36,-36,-536,-4,-24,-4,-24,43
-73,-73,0,73,-36,-36,-527,0,-19,4,-24,53
-82,-78,4,80,-43,-36,-517,0,-9,4,-19,43
-82,-92,-9,87,-36,-51,-507,4,0,4,-19,43
-78,-68,9,73,-43,-29,-517,4,0,9,-9,43
-73,-58,14,65,-43,-21,-522,9,14,29,4,58
-58,-58,0,58,-29,-29,-531,19,24,43,4,63
-48,-58,-9,53,-19,-34,-536,24,34,53,19,68
-53,-68,-14,61,-19,-41,-536,19,39,48,29,63
-58,-68,-9,63,-24,-39,-536,19,39,48,34,68
-53,-63,-9,58,-21,-36,-546,29,48,58,34,68
-58,-53,4,56,-31,-24,-551,34,58,82,48,73
-58,-63,-4,61,-26,-34,-556,39,58,92,58,78
-63,-68,-4,65,-29,-36,-556,43,68,102,63,78
-63,-68,-4,65,-29,-36,-556,43,82,117,82,87
-58,-58,0,58,-29,-29,-546,53,97,126,97,97
-43,-43,0,43,-21,-21,-546,78,107,136,117,107
-34,-39,-4,36,-14,-21,-551,78,122,156,126,112
-29,-29,0,29,-14,-14,-551,92,136,175,141,126
-24,-29,-4,26,-9,-17,-551,97,151,195,161,136
-39,-34,4,36,-21,-14,-551,112,175,209,175,136
-39,-39,0,39,-19,-19,-566,117,185,224,190,141
-39,-43,-4,41,-17,-24,-566,126,200,239,200,151
-39,-43,-4,41,-17,-24,-556,131,219,253,214,161
-29,-29,0,29,-14,-14,-566,151,234,268,234,170
-14,-24,-9,19,-2,-17,-580,151,248,287,253,170
-14,-14,0,14,-7,-7,-585,156,253,302,263,185
-14,-9,4,12,-9,-2,-590,161,258,317,278,185
-24,-4,19,14,-21,7,-605,161,268,326,297,200
-19,-4,14,12,-17,4,-610,165,283,351,312,204
-4,4,9,0,-7,7,-614,175,292,361,322,209
0,24,24,-12,-12,24,-619,185,307,385,336,214
19,24,4,-21,7,14,-629,195,322,395,346,224
29,29,0,-29,14,14,-629,195,331,405,361,229
39,29,-9,-34,24,9,-624,195,336,409,375,244
48,43,-4,-46,26,19,-619,200,341,424,385,258
43,48,4,-46,19,26,-614,200,351,444,400,283
34,48,14,-41,9,31,-610,204,361,453,405,283
14,48,34,-31,-9,41,-610,204,361,468,414,287
4,48,43,-26,-19,46,-605,200,366,473,439,292
4,39,34,-21,-14,36,-600,204,366,468,444,292
9,39,29,-24,-9,34,-605,195,366,468,444,292
9,39,29,-24,-9,34,-614,190,361,468,444,297
0,43,43,-21,-21,43,-614,190,361,463,448,297
24,48,24,-36,0,36,-610,185,351,453,453,287
34,53,19,-43,7,36,-610,180,351,458,448,292
39,68,29,-53,4,48,-614,175,351,468,444,292
58,82,24,-70,17,53,-629,161,351,468,439,292
53,58,4,-56,24,31,-619,161,351,468,444,302
24,58,34,-41,-4,46,-634,156,346,468,444,307
19,63,43,-41,-12,53,-634,156,346,458,444,307
14,68,53,-41,-19,61,-619,151,346,453,444,312
34,68,34,-51,0,51,-629,146,336,453,429,302
43,73,29,-58,7,51,-629,141,331,448,424,302
39,73,34,-56,2,53,-629,141,326,434,419,297
48,68,19,-58,14,43,-624,131,326,424,419,297
43,53,9,-48,17,31,-619,112,307,400,400,283
29,48,19,-39,4,34,-619,112,297,390,390,283
4,34,29,-19,-12,31,-614,112,292,385,380,278
-9,29,39,-9,-24,34,-610,102,278,375,366,273
0,34,34,-17,-17,34,-614,87,268,356,356,258
4,34,29,-19,-12,31,-629,82,258,341,331,248
9,39,29,-24,-9,34,-629,78,239,317,322,234
4,43,39,-24,-17,41,-605,78,229,297,307,224
9,53,43,-31,-17,48,-605,68,204,273,278,224
4,48,43,-26,-19,46,-610,53,190,248,263,209
4,34,29,-19,-12,31,-610,48,175,224,248,204
4,34,29,-19,-12,31,-605,48,161,200,234,200
-14,24,39,-4,-26,31,-600,29,141,180,209,185
-29,14,43,7,-36,29,-600,24,117,156,195,165
-39,0,39,19,-39,19,-605,9,97,131,175,156
-53,-4,48,29,-51,21,-610,9,87,117,161,146
-53,9,63,21,-58,36,-600,14,78,102,156,141
-43,4,48,19,-46,26,-600,0,63,87,141,141
-24,14,39,4,-31,26,-575,-4,39,68,126,136
-9,29,39,-9,-24,34,-566,-4,19,48,112,126
-19,14,34,2,-26,24,-580,-14,4,24,87,107
-19,4,24,7,-21,14,-580,-19,-9,4,73,97
-19,0,19,9,-19,9,-580,-24,-19,-9,48,92
-24,-14,9,19,-17,-2,-575,-24,-39,-34,34,87
-48,-19,29,34,-39,4,-575,-34,-58,-39,34,78
-58,-34,24,46,-41,-4,-575,-39,-68,-53,19,73
-68,-58,9,63,-39,-24,-575,-43,-78,-63,14,53
-73,-63,9,68,-41,-26,-566,-53,-82,-68,4,48
-78,-53,24,65,-51,-14,-566,-48,-73,-78,4,58
-78,-48,29,63,-53,-9,-561,-43,-82,-78,0,58
-82,-43,39,63,-61,-2,-566,-39,-82,-78,-4,58
-87,-39,48,63,-68,4,-570,-34,-82,-97,-14,58
-78,-43,34,61,-56,-4,-570,-39,-92,-112,-19,48
-78,-63,14,70,-46,-24,-570,-48,-102,-117,-24,39
-78,-78,0,78,-39,-39,-580,-58,-107,-117,-34,34
-92,-82,9,87,-51,-36,-585,-68,-117,-117,-34,29
-78,-73,4,75,-41,-34,-580,-58,-117,-117,-39,19
-68,-53,14,61,-41,-19,-570,-58,-117,-122,-39,19
-63,-43,19,53,-41,-12,-561,-63,-117,-131,-39,24
-68,-39,29,53,-48,-4,-551,-63,-122,-141,-43,24
-78,-68,9,73,-43,-29,-561,-63,-131,-146,-43,34
-24,-34,-9,29,-7,-21,-580,-68,-122,-126,-39,34
-34,-24,9,29,-21,-7,-561,-58,-107,-117,-29,53
-58,-39,19,48,-39,-9,-556,-48,-97,-117,-19,58
-68,-48,19,58,-43,-14,-566,-48,-112,-131,-34,43
-78,-58,19,68,-48,-19,-566,-48,-117,-136,-39,39
-87,-68,19,78,-53,-24,-566,-48,-122,-141,-43,34
-97,-78,19,87,-58,-29,-566,-48,-126,-146,-48,29
-97,-87,9,92,-53,-39,-570,-58,-126,-156,-58,19
-97,-87,9,92,-53,-39,-590,-58,-126,-161,-63,14
-102,-87,14,95,-58,-36,-600,-58,-131,-161,-63,14
-102,-87,14,95,-58,-36,-610,-58,-141,-161,-68,14
-92,-78,14,85,-53,-31,-600,-58,-141,-170,-82,0
-87,-78,9,82,-48,-34,-605,-53,-141,-170,-82,0
-87,-78,9,82,-48,-34,-605,-53,-141,-170,-78,4
-97,-82,14,90,-56,-34,-605,-53,-136,-170,-78,4
-87,-73,14,80,-51,-29,-585,-43,-136,-170,-78,-4
-82,-73,9,78,-46,-31,-575,-43,-136,-170,-78,-4
-82,-82,0,82,-41,-41,-570,-43,-136,-170,-78,-4
-92,-82,9,87,-51,-36,-566,-43,-136,-170,-78,-4
-73,-68,4,70,-39,-31,-561,-43,-126,-180,-87,-4
-68,-53,14,61,-41,-19,-556,-43,-126,-175,-82,-4
-68,-48,19,58,-43,-14,-546,-39,-126,-165,-82,-4
-68,-43,24,56,-46,-9,-541,-34,-117,-161,-78,-4
-82,-58,24,70,-53,-17,-556,-43,-117,-170,-82,-14
-87,-43,43,65,-65,0,-566,-43,-112,-165,-82,-9
-82,-24,58,53,-70,17,-566,-29,-112,-156,-68,-4
-68,-29,39,48,-53,4,-575,-24,-107,-151,-68,4
-73,-39,34,56,-53,-2,-600,-19,-117,-136,-63,14
-82,-39,43,61,-63,2,-590,-19,-107,-126,-63,14
-82,-39,43,61,-63,2,-590,-14,-102,-122,-58,19
-78,-24,53,51,-65,14,-580,-4,-92,-112,-48,19
-78,-19,58,48,-68,19,-600,-9,-97,-117,-48,19
-73,-19,53,46,-63,17,-624,-14,-102,-122,-43,19
-73,-14,58,43,-65,21,-634,-9,-102,-112,-39,24
-58,-4,53,31,-56,24,-639,-9,-112,-112,-24,29
-58,4,63,26,-61,34,-639,-4,-112,-97,-14,34
-58,9,68,24,-63,39,-634,0,-112,-92,-14,39
-58,9,68,24,-63,39,-634,0,-102,-82,-9,39
-53,9,63,21,-58,36,-634,0,-97,-68,-4,43
-63,-9,53,36,-58,21,-619,19,-92,-73,-9,34
-63,-14,48,39,-56,17,-614,24,-87,-68,0,34
-58,-19,39,39,-48,9,-610,29,-82,-58,4,39
-53,-9,43,31,-48,17,-605,34,-73,-48,9,43
-48,9,58,19,-53,34,-600,39,-58,-39,34,39
-39,14,53,12,-46,34,-605,29,-53,-39,34,43
-29,19,48,4,-39,34,-614,24,-48,-43,34,48
-19,29,48,-4,-34,39,-619,9,-53,-43,34,48
-19,39,58,-9,-39,48,-644,-19,-68,-48,24,39
-19,39,58,-9,-39,48,-663,-39,-87,-63,14,39
-24,29,53,-2,-39,41,-688,-58,-97,-73,9,43
-24,29,53,-2,-39,41,-707,-58,-107,-73,9,43
-9,48,58,-19,-34,53,-697,-58,-107,-63,19,43
-4,53,58,-24,-31,56,-697,-58,-102,-68,19,48
-14,53,68,-19,-41,61,-692,-53,-102,-68,19,53
0,58,58,-29,-29,58,-692,-53,-97,-68,24,58
9,63,53,-36,-21,58,-678,-53,-107,-78,14,58
19,68,48,-43,-14,58,-658,-53,-107,-78,14,68
24,68,43,-46,-9,56,-644,-53,-107,-78,19,68
24,68,43,-46,-9,56,-629,-53,-107,-78,19,73
19,53,34,-36,-7,43,-629,-53,-107,-82,19,63
4,43,39,-24,-17,41,-629,-53,-102,-78,19,63
9,43,34,-26,-12,39,-629,-43,-92,-68,24,63
4,43,39,-24,-17,41,-619,-34,-78,-53,29,63
9,39,29,-24,-9,34,-624,-39,-82,-63,24,63
-4,24,29,-9,-17,26,-634,-39,-82,-68,24,63
-4,19,24,-7,-14,21,-644,-43,-82,-73,19,63
-4,9,14,-2,-9,12,-649,-43,-82,-82,14,63
-4,19,24,-7,-14,21,-634,-29,-78,-68,19,68
-19,0,19,9,-19,9,-634,-34,-82,-87,9,53
-24,-14,9,19,-17,-2,-624,-29,-92,-92,-4,48
-34,-34,0,34,-17,-17,-624,-24,-87,-87,-4,43
-73,-34,39,53,-56,2,-610,-24,-82,-102,-19,34
-78,-39,39,58,-58,0,-610,-29,-102,-122,-39,14
-82,-43,39,63,-61,-2,-614,-39,-102,-136,-58,0
-97,-53,43,75,-70,-4,-614,-43,-112,-141,-68,-4
-82,-63,19,73,-51,-21,-614,-39,-112,-156,-68,-9
-82,-68,14,75,-48,-26,-614,-43,-122,-165,-73,-14
-78,-68,9,73,-43,-29,-619,-48,-122,-165,-73,-14
-78,-78,0,78,-39,-39,-624,-53,-122,-165,-73,-14
-87,-82,4,85,-46,-39,-629,-58,-122,-175,-87,-29
-87,-87,0,87,-43,-43,-629,-63,-131,-185,-102,-39
-97,-102,-4,100,-46,-53,-629,-68,-131,-195,-112,-43
-112,-107,4,109,-58,-51,-624,-68,-126,-200,-117,-48
-117,-107,9,112,-63,-48,-614,-68,-126,-200,-117,-48
-131,-112,19,122,-75,-46,-614,-68,-131,-200,-117,-48
-131,-131,0,131,-65,-65,-614,-68,-131,-200,-117,-48
-126,-136,-9,131,-58,-73,-614,-68,-131,-200,-117,-48
-92,-92,0,92,-46,-46,-600,-53,-126,-190,-102,-34
-82,-78,4,80,-43,-36,-595,-48,-122,-195,-102,-34
-73,-73,0,73,-36,-36,-585,-48,-122,-195,-112,-39
-78,-58,19,68,-48,-19,-575,-43,-117,-200,-117,-43
-68,-29,39,48,-53,4,-580,-39,-92,-190,-117,-39
-131,-63,68,97,-100,2,-561,-24,-78,-185,-126,-53
-170,-102,68,136,-119,-17,-541,-4,-58,-219,-165,-82
-161,-97,63,129,-112,-17,-517,34,-34,-239,-204,-112
-156,-68,87,112,-122,9,-483,82,19,-214,-209,-117
-170,-68,102,119,-136,17,-439,151,92,-170,-180,-107
-180,-73,107,126,-143,17,-419,200,165,-107,-141,-97
-165,-43,122,104,-143,39,-424,239,239,-9,-58,-63
-136,-19,117,78,-126,48,-419,307,346,161,78,0
-107,-19,87,63,-97,34,-409,375,492,356,253,87
-82,-24,58,53,-70,17,-429,448,634,551,448,175
-43,-9,34,26,-39,12,-453,522,766,751,639,283
-4,0,4,2,-4,2,-478,590,927,985,863,400
92,29,-63,-61,78,-17,-536,639,1088,1263,1156,561
200,92,-107,-146,153,-7,-605,658,1195,1546,1483,751
268,161,-107,-214,187,26,-668,658,1288,1781,1771,941
317,224,-92,-270,204,65,-722,624,1381,2010,2034,1112
380,336,-43,-358,212,146,-785,605,1498,2283,2318,1302
463,468,4,-466,229,236,-844,605,1649,2552,2596,1493
527,575,48,-551,239,312,-873,605,1751,2713,2747,1610
570,673,102,-622,234,387,-907,600,1790,2757,2766,1659
614,722,107,-668,253,414,-941,590,1761,2703,2688,1654
605,634,29,-619,287,331,-912,590,1678,2527,2435,1537
546,414,-131,-480,339,141,-795,575,1561,2264,2010,1263
439,219,-219,-329,329,0,-668,497,1351,1937,1503,907
312,117,-195,-214,253,-39,-590,287,917,1420,912,531
161,9,-151,-85,156,-70,-590,-53,219,614,185,151
-9,-112,-102,61,46,-107,-605,-385,-512,-283,-507,-190
-146,-175,-29,161,-58,-102,-614,-614,-1117,-1063,-961,-380
-244,-209,34,226,-139,-87,-634,-756,-1507,-1595,-1185,-453
-331,-234,97,283,-214,-68,-634,-722,-1556,-1722,-1244,-492
-390,-224,165,307,-278,-29,-605,-570,-1356,-1503,-1122,-488
-351,-195,156,273,-253,-19,-629,-405,-1161,-1268,-961,-429
-273,-200,73,236,-173,-63,-649,-219,-1010,-1122,-863,-380
-224,-209,14,217,-119,-97,-619,-24,-839,-985,-771,-370
-224,-195,29,209,-126,-82,-566,126,-692,-844,-692,-370
-248,-214,34,231,-141,-90,-522,239,-605,-771,-639,-380
-248,-273,-24,261,-112,-148,-458,307,-527,-702,-605,-385
-248,-312,-63,280,-92,-187,-424,317,-463,-644,-556,-361
-268,-292,-24,280,-122,-158,-405,317,-439,-610,-527,-341
-273,-287,-14,280,-129,-151,-395,326,-409,-580,-502,-326
-263,-307,-43,285,-109,-175,-390,297,-361,-536,-483,-312
-258,-287,-29,273,-114,-158,-409,244,-322,-488,-434,-283
-219,-248,-29,234,-95,-139,-434,234,-248,-409,-370,-234
-126,-200,-73,163,-26,-136,-468,209,-170,-331,-292,-180
-107,-141,-34,124,-36,-87,-497,131,-136,-278,-239,-136
-122,-112,9,117,-65,-51,-531,63,-126,-278,-229,-117
-122,-112,9,117,-65,-51,-585,24,-136,-287,-239,-117
-141,-112,29,126,-85,-41,-600,-4,-146,-302,-248,-122
-126,-107,19,117,-73,-43,-600,-9,-141,-302,-253,-131
-122,-92,29,107,-75,-31,-595,-14,-146,-302,-253,-131
-122,-92,29,107,-75,-31,-595,-19,-151,-292,-253,-126
-122,-92,29,107,-75,-31,-585,-43,-146,-283,-248,-126
-122,-92,29,107,-75,-31,-585,-53,-151,-283,-244,-122
-112,-92,19,102,-65,-36,-600,-63,-151,-278,-229,-117
-112,-92,19,102,-65,-36,-585,-63,-146,-268,-214,-112
-107,-97,9,102,-58,-43,-575,-68,-146,-278,-224,-102
-107,-87,19,97,-63,-34,-580,-68,-146,-278,-229,-102
-102,-82,19,92,-61,-31,-585,-68,-141,-273,-229,-107
-97,-82,14,90,-56,-34,-590,-68,-136,-273,-224,-107
-102,-73,29,87,-65,-21,-610,-68,-136,-273,-229,-102
-112,-73,39,92,-75,-17,-610,-68,-131,-263,-219,-92
-117,-82,34,100,-75,-24,-600,-63,-131,-258,-200,-87
-122,-82,39,102,-80,-21,-590,-58,-131,-253,-200,-82
-126,-87,39,107,-82,-24,-595,-68,-131,-258,-195,-92
-126,-87,39,107,-82,-24,-600,-68,-126,-258,-204,-92
-131,-87,43,109,-87,-21,-605,-53,-122,-258,-204,-92
-136,-92,43,114,-90,-24,-610,-63,-117,-258,-204,-97
-117,-87,29,102,-73,-29,-614,-63,-126,-258,-204,-97
-122,-87,34,104,-78,-26,-614,-63,-126,-253,-204,-92
-112,-87,24,100,-68,-31,-619,-63,-126,-253,-204,-92
-92,-82,9,87,-51,-36,-619,-63,-122,-253,-204,-97
-97,-73,24,85,-61,-24,-624,-53,-112,-248,-204,-97
-102,-73,29,87,-65,-21,-624,-48,-107,-239,-200,-97
-97,-78,19,87,-58,-29,-629,-43,-107,-234,-200,-97
-102,-82,19,92,-61,-31,-634,-39,-102,-229,-195,-92
-112,-92,19,102,-65,-36,-634,-39,-102,-239,-200,-92
-117,-97,19,107,-68,-39,-644,-43,-107,-234,-200,-92
-122,-102,19,112,-70,-41,-644,-48,-102,-234,-204,-92
-122,-107,14,114,-68,-46,-644,-53,-102,-239,-204,-97
-107,-87,19,97,-63,-34,-644,-43,-112,-234,-190,-97
-92,-78,14,85,-53,-31,-644,-43,-112,-229,-185,-92
-73,-73,0,73,-36,-36,-634,-39,-97,-214,-175,-82
-63,-63,0,63,-31,-31,-610,-29,-92,-204,-170,-78
-82,-73,9,78,-46,-31,-605,-24,-92,-195,-180,-73
-87,-68,19,78,-53,-24,-600,-24,-92,-190,-165,-73
-92,-53,39,73,-65,-7,-590,-14,-73,-180,-151,-58
-102,-53,48,78,-75,-2,-575,-14,-73,-180,-146,-53
-97,-48,48,73,-73,0,-580,-29,-82,-175,-151,-58
-92,-43,48,68,-70,2,-585,-29,-87,-170,-151,-53
-97,-43,53,70,-75,4,-590,-34,-87,-175,-146,-68
-92,-53,39,73,-65,-7,-595,-34,-87,-180,-146,-73
-92,-43,48,68,-70,2,-619,-48,-112,-185,-146,-63
-92,-39,53,65,-73,7,-639,-48,-112,-165,-131,-48
-82,-43,39,63,-61,-2,-663,-43,-117,-151,-131,-43
-78,-48,29,63,-53,-9,-683,-43,-122,-141,-117,-39
-87,-58,29,73,-58,-14,-663,-48,-131,-126,-102,-24
-87,-58,29,73,-58,-14,-653,-48,-136,-126,-92,-19
-78,-53,24,65,-51,-14,-653,-39,-131,-117,-87,-19
-78,-43,34,61,-56,-4,-649,-34,-126,-92,-68,-14
-68,-43,24,56,-46,-9,-639,-14,-107,-82,-68,-19
-73,-48,24,61,-48,-12,-634,-4,-87,-73,-63,-19
-73,-48,24,61,-48,-12,-629,0,-63,-58,-43,-9
-68,-39,29,53,-48,-4,-614,14,-39,-48,-29,0
-68,-24,43,46,-56,9,-624,29,-24,-39,-19,4
-63,-19,43,41,-53,12,-629,29,-4,-19,-9,4
-63,-9,53,36,-58,21,-629,43,14,0,4,14
-63,-9,53,36,-58,21,-629,48,34,19,24,19
-58,-9,48,34,-53,19,-639,48,29,24,29,29
-58,-9,48,34,-53,19,-653,48,29,39,43,34
-58,-9,48,34,-53,19,-653,53,34,53,53,43
-58,-4,53,31,-56,24,-644,53,43,68,68,53
-53,0,53,26,-53,26,-634,78,73,102,97,63
-43,-4,39,24,-41,17,-649,82,92,122,117,63
-48,-4,43,26,-46,19,-653,92,102,136,126,78
-53,-9,43,31,-48,17,-658,102,112,151,141,78
-58,-19,39,39,-48,9,-658,112,141,156,146,82
-58,-24,34,41,-46,4,-658,117,165,175,156,87
-48,-19,29,34,-39,4,-658,126,185,180,161,92
-48,-4,43,26,-46,19,-658,136,209,200,170,97
-29,9,39,9,-34,24,-658,141,219,224,195,112
-19,29,48,-4,-34,39,-658,146,234,239,214,122
-9,43,53,-17,-31,48,-653,151,244,248,234,141
0,73,73,-36,-36,73,-649,161,253,268,248,161
-4,73,78,-34,-41,75,-653,161,263,278,253,175
-4,68,73,-31,-39,70,-658,165,273,287,258,175
-14,63,78,-24,-46,70,-668,165,273,302,268,180
-14,58,73,-21,-43,65,-673,161,278,307,292,185
-9,53,63,-21,-36,58,-697,156,268,312,287,185
-9,48,58,-19,-34,53,-712,146,268,312,287,185
-14,43,58,-14,-36,51,-732,141,263,312,287,190
-29,43,73,-7,-51,58,-741,141,263,307,292,190
-9,63,73,-26,-41,68,-727,141,268,317,312,195
4,73,68,-39,-31,70,-727,141,273,322,312,204
14,92,78,-53,-31,85,-732,141,278,331,312,209
39,112,73,-75,-17,92,-746,131,283,331,312,214
39,97,58,-68,-9,78,-741,122,273,322,302,209
14,97,82,-56,-34,90,-751,117,268,322,297,209
14,102,87,-58,-36,95,-746,117,268,312,292,204
14,107,92,-61,-39,100,-727,112,268,307,287,204
14,102,87,-58,-36,95,-727,117,268,307,283,195
14,102,87,-58,-36,95,-727,112,263,302,278,195
0,97,97,-48,-48,97,-727,112,258,287,273,190
0,87,87,-43,-43,87,-722,102,258,278,273,190
0,87,87,-43,-43,87,-727,92,248,263,253,195
0,87,87,-43,-43,87,-727,92,239,253,244,195
-9,78,87,-34,-48,82,-722,92,234,248,234,190
-9,78,87,-34,-48,82,-717,82,219,239,219,185
-14,68,82,-26,-48,75,-712,78,209,219,219,180
-24,63,87,-19,-56,75,-717,73,200,204,195,170
-34,63,97,-14,-65,80,-707,68,180,180,185,156
-53,63,117,-4,-85,90,-673,68,170,161,170,146
-48,63,112,-7,-80,87,-644,68,170,156,151,146
-43,58,102,-7,-73,80,-639,53,161,131,136,131
-34,43,78,-4,-56,61,-629,48,151,107,122,126
-24,43,68,-9,-46,56,-614,48,141,82,107,122
-39,43,82,-2,-61,63,-595,48,136,73,92,117
-48,43,92,2,-70,68,-590,43,117,48,78,107
-53,39,92,7,-73,65,-590,29,102,24,58,107
-63,43,107,9,-85,75,-590,29,97,9,43,107
-73,34,107,19,-90,70,-595,14,87,-24,24,92
-73,14,87,29,-80,51,-610,0,73,-39,4,82
-63,9,73,26,-68,41,-600,-4,48,-58,-14,68
-58,9,68,24,-63,39,-605,-4,29,-78,-34,48
-48,0,48,24,-48,24,-595,-14,29,-97,-53,29
-48,-4,43,26,-46,19,-590,-19,19,-112,-63,19
-48,-4,43,26,-46,19,-585,-24,14,-122,-82,14
-53,-14,39,34,-46,12,-575,-24,0,-141,-92,9
-82,-9,73,46,-78,31,-556,-19,-9,-146,-102,0
-87,-14,73,51,-80,29,-546,-19,-9,-161,-117,-4
-92,-29,63,61,-78,17,-536,-19,-9,-170,-122,-24
-92,-24,68,58,-80,21,-517,-24,-4,-175,-131,-29
-73,-14,58,43,-65,21,-527,-34,0,-200,-131,-19
-58,-9,48,34,-53,19,-522,-34,-14,-204,-136,-19
-48,-4,43,26,-46,19,-527,-34,-19,-209,-141,-19
-39,0,39,19,-39,19,-531,-34,-24,-234,-151,-19
-39,0,39,19,-39,19,-541,-34,-39,-224,-151,-9
-39,-14,24,26,-31,4,-541,-39,-43,-224,-151,-19
-39,-24,14,31,-26,-4,-551,-43,-43,-219,-156,-24
-53,-24,29,39,-41,2,-556,-48,-48,-214,-151,-29
-68,-29,39,48,-53,4,-561,-53,-68,-219,-161,-34
-68,-24,43,46,-56,9,-561,-58,-78,-229,-165,-39
-73,-29,43,51,-58,7,-561,-68,-87,-244,-170,-39
-87,-39,48,63,-68,4,-561,-73,-102,-258,-180,-43
-117,-68,48,92,-82,-9,-561,-63,-102,-253,-180,-43
-141,-63,78,102,-109,7,-551,-48,-82,-244,-175,-34
-112,-34,78,73,-95,21,-541,-39,-78,-234,-156,-14
-102,-43,58,73,-80,7,-551,-48,-82,-244,-161,-24
-117,-58,58,87,-87,0,-556,-58,-87,-253,-185,-39
-102,-43,58,73,-80,7,-551,-48,-87,-258,-195,-48
-97,-39,58,68,-78,9,-546,-48,-87,-263,-195,-48
-92,-34,58,63,-75,12,-541,-48,-87,-268,-195,-48
-87,-29,58,58,-73,14,-536,-48,-87,-273,-195,-48
-87,-39,48,63,-68,4,-517,-58,-97,-283,-195,-48
-87,-39,48,63,-68,4,-522,-58,-97,-287,-200,-53
-92,-39,53,65,-73,7,-517,-58,-102,-287,-200,-53
-92,-39,53,65,-73,7,-512,-58,-112,-287,-204,-53
-97,-43,53,70,-75,4,-517,-68,-112,-287,-209,-58
-97,-48,48,73,-73,0,-527,-63,-112,-287,-209,-58
-102,-53,48,78,-75,-2,-531,-63,-112,-287,-204,-53
-117,-63,53,90,-85,-4,-536,-63,-107,-287,-204,-53
-131,-78,53,104,-92,-12,-541,-73,-112,-297,-224,-73
-131,-82,48,107,-90,-17,-546,-73,-117,-297,-224,-73
-136,-97,39,117,-87,-29,-556,-73,-122,-297,-224,-73
-151,-102,48,126,-100,-26,-566,-73,-126,-297,-224,-73
-131,-87,43,109,-87,-21,-580,-87,-146,-302,-234,-73
-117,-73,43,95,-80,-14,-585,-92,-156,-302,-229,-73
-107,-68,39,87,-73,-14,-585,-92,-165,-297,-229,-73
-97,-63,34,80,-65,-14,-590,-92,-165,-297,-224,-73
-87,-53,34,70,-61,-9,-580,-92,-170,-292,-214,-63
-87,-24,63,56,-75,19,-575,-92,-161,-283,-209,-58
-78,9,87,34,-82,48,-561,-78,-156,-268,-190,-53
-58,19,78,19,-68,48,-556,-73,-146,-258,-185,-43
-87,-4,82,46,-85,39,-566,-58,-141,-263,-180,-53
-102,-19,82,61,-92,31,-551,-58,-126,-253,-180,-53
-107,-34,73,70,-90,19,-546,-53,-117,-248,-175,-48
-107,-34,73,70,-90,19,-531,-43,-102,-239,-165,-48
-92,-14,78,53,-85,31,-536,-53,-112,-219,-146,-34
-82,-9,73,46,-78,31,-556,-53,-112,-219,-141,-29
-78,0,78,39,-78,39,-561,-43,-107,-204,-136,-19
-58,14,73,21,-65,43,-561,-39,-112,-200,-122,-9
-53,14,68,19,-61,41,-536,-24,-92,-190,-112,4
-58,19,78,19,-68,48,-527,-19,-92,-190,-112,9
-63,19,82,21,-73,51,-522,-19,-82,-185,-107,9
-63,19,82,21,-73,51,-517,-19,-78,-175,-102,14
-63,24,87,19,-75,56,-517,-9,-63,-170,-97,4
-63,24,87,19,-75,56,-517,-4,-58,-165,-87,4
-58,24,82,17,-70,53,-517,0,-53,-156,-82,9
-53,39,92,7,-73,65,-517,4,-43,-146,-78,14
-58,39,97,9,-78,68,-517,9,-39,-136,-73,9
-58,34,92,12,-75,63,-527,0,-34,-136,-73,14
-58,29,87,14,-73,58,-541,-4,-29,-141,-73,19
-58,29,87,14,-73,58,-551,-19,-34,-141,-73,19
-39,58,97,-9,-68,78,-561,-29,-48,-136,-68,34
-29,68,97,-19,-63,82,-566,-48,-68,-151,-73,39
-24,68,92,-21,-58,80,-575,-68,-78,-161,-73,48
-14,78,92,-31,-53,85,-580,-68,-87,-161,-68,53
-19,73,92,-26,-56,82,-595,-73,-102,-170,-68,39
-24,63,87,-19,-56,75,-600,-78,-102,-175,-68,39
-43,48,92,-2,-68,70,-600,-78,-107,-175,-68,39
-39,39,78,0,-58,58,-605,-82,-107,-175,-63,39
-34,63,97,-14,-65,80,-605,-92,-107,-185,-68,34
-29,68,97,-19,-63,82,-600,-92,-107,-185,-73,39
-29,68,97,-19,-63,82,-600,-92,-107,-185,-73,34
-34,68,102,-17,-68,85,-600,-92,-107,-185,-78,34
-19,73,92,-26,-56,82,-595,-92,-112,-190,-73,48
-14,73,87,-29,-51,80,-590,-92,-112,-185,-68,53
9,82,73,-46,-31,78,-585,-82,-107,-175,-58,58
24,92,68,-58,-21,80,-570,-73,-97,-161,-48,63
4,87,82,-46,-39,85,-566,-73,-87,-156,-39,63
-14,73,87,-29,-51,80,-566,-68,-82,-156,-34,63
-19,68,87,-24,-53,78,-566,-68,-78,-156,-34,63
-24,58,82,-17,-53,70,-561,-63,-73,-161,-34,63
-14,68,82,-26,-48,75,-546,-53,-63,-161,-34,73
-29,48,78,-9,-53,63,-546,-63,-73,-185,-48,53
-34,34,68,0,-51,51,-536,-63,-87,-195,-68,43
-43,14,58,14,-51,36,-536,-63,-87,-195,-73,34
-73,0,73,36,-73,36,-512,-53,-87,-209,-87,14
-68,-9,58,39,-63,24,-502,-58,-112,-229,-107,-4
-63,-19,43,41,-53,12,-497,-68,-117,-244,-126,-19
-68,-34,34,51,-51,0,-488,-73,-131,-248,-136,-24
-78,-39,39,58,-58,0,-483,-68,-126,-253,-126,-24
-92,-48,43,70,-68,-2,-478,-73,-131,-263,-131,-24
-102,-53,48,78,-75,-2,-478,-78,-126,-263,-131,-19
-117,-68,48,92,-82,-9,-478,-82,-122,-263,-131,-14
-107,-58,48,82,-78,-4,-478,-82,-112,-258,-131,-14
-97,-58,39,78,-68,-9,-473,-82,-122,-263,-141,-19
-97,-68,29,82,-63,-19,-468,-82,-122,-268,-146,-19
-102,-68,34,85,-68,-17,-458,-78,-117,-268,-146,-19
-102,-58,43,80,-73,-7,-453,-68,-102,-278,-146,-19
-112,-63,48,87,-80,-7,-448,-68,-102,-278,-146,-19
-107,-82,24,95,-65,-29,-444,-68,-97,-278,-146,-19
-97,-87,9,92,-53,-39,-439,-68,-92,-278,-146,-19
-73,-63,9,68,-41,-26,-439,-68,-87,-273,-141,-19
-73,-58,14,65,-43,-21,-439,-68,-82,-273,-141,-24
-73,-63,9,68,-41,-26,-434,-73,-82,-268,-151,-34
-87,-58,29,73,-58,-14,-429,-73,-78,-268,-156,-43
-97,-39,58,68,-78,9,-424,-58,-73,-278,-156,-39
-92,-34,58,63,-75,12,-414,-43,-48,-283,-156,-34
-92,-24,68,58,-80,21,-424,-24,-39,-287,-185,-53
-112,-19,92,65,-102,36,-439,-14,-43,-307,-224,-82
-146,-39,107,92,-126,34,-414,14,-19,-302,-248,-107
-180,-58,122,119,-151,31,-380,63,24,-278,-239,-126
-190,-63,126,126,-158,31,-361,102,78,-224,-200,-126
-204,-63,141,134,-173,39,-346,151,151,-126,-117,-92
-214,-48,165,131,-190,58,-322,209,258,14,9,-29
-165,-29,136,97,-151,53,-302,287,405,209,185,58
-82,4,87,39,-85,46,-292,380,556,434,390,175
-34,29,63,2,-48,46,-287,453,707,644,580,283
-24,9,34,7,-29,21,-312,512,868,868,785,390
34,19,-14,-26,24,2,-351,551,1010,1146,1078,541
131,82,-48,-107,90,17,-419,580,1127,1420,1405,732
229,170,-58,-200,143,56,-473,570,1210,1673,1712,912
326,283,-43,-305,185,119,-527,556,1302,1912,1976,1093
409,375,-34,-392,222,170,-590,536,1429,2176,2269,1293
434,468,34,-451,200,251,-649,546,1600,2464,2557,1503
468,575,107,-522,180,341,-678,556,1722,2654,2737,1649
522,683,161,-602,180,422,-702,551,1761,2718,2776,1717
585,761,175,-673,204,468,-727,541,1761,2693,2718,1732
595,702,107,-649,244,405,-707,541,1708,2547,2522,1625
527,483,-43,-505,285,219,-619,536,1590,2303,2156,1381
419,248,-170,-334,295,39,-502,478,1420,2015,1698,1044
302,126,-175,-214,239,-24,-424,297,1034,1527,1137,697
190,48,-141,-119,165,-46,-414,-4,395,780,429,336
48,-63,-112,7,80,-87,-419,-307,-307,-107,-283,-24
-107,-146,-39,126,-34,-92,-400,-527,-922,-907,-805,-253
-175,-141,34,158,-104,-53,-409,-658,-1371,-1527,-1088,-336
-224,-107,117,165,-170,4,-380,-644,-1459,-1722,-1166,-385
-273,-136,136,204,-204,0,-361,-531,-1288,-1551,-1083,-429
-302,-175,126,239,-214,-24,-405,-434,-1141,-1346,-951,-409
-283,-190,92,236,-187,-48,-444,-297,-1019,-1210,-854,-361
-244,-170,73,207,-158,-48,-434,-102,-839,-1063,-771,-351
-253,-175,78,214,-165,-48,-400,48,-683,-922,-683,-341
-258,-214,43,236,-151,-85,-356,141,-585,-819,-619,-331
-239,-234,4,236,-122,-114,-283,229,-488,-741,-566,-326
-248,-253,-4,251,-122,-129,-239,268,-444,-702,-536,-341
-258,-253,4,256,-131,-124,-229,258,-419,-678,-517,-341
-204,-209,-4,207,-100,-107,-229,268,-390,-649,-492,-317
-175,-200,-24,187,-75,-112,-234,258,-351,-614,-463,-292
-200,-229,-29,214,-85,-129,-273,214,-322,-585,-424,-263
-190,-229,-39,209,-75,-134,-297,195,-268,-517,-370,-214
-146,-190,-43,168,-51,-117,-312,190,-200,-439,-302,-161
-136,-161,-24,148,-56,-92,-341,141,-146,-375,-248,-117
-112,-112,0,112,-56,-56,-385,53,-146,-356,-219,-97
-73,-73,0,73,-36,-36,-419,-14,-146,-356,-219,-87
-97,-82,14,90,-56,-34,-434,-39,-141,-351,-219,-87
-97,-78,19,87,-58,-29,-434,-39,-131,-351,-214,-92
-107,-63,43,85,-75,-9,-429,-39,-131,-351,-204,-87
-122,-63,58,92,-90,-2,-429,-39,-131,-341,-195,-78
-141,-78,63,109,-102,-7,-434,-63,-126,-331,-195,-78
-141,-82,58,112,-100,-12,-439,-73,-131,-331,-195,-73
-131,-87,43,109,-87,-21,-458,-82,-131,-326,-185,-68
-131,-92,39,112,-85,-26,-448,-82,-126,-317,-175,-63
-136,-78,58,107,-97,-9,-458,-78,-126,-322,-165,-63
-136,-68,68,102,-102,0,-463,-78,-126,-326,-170,-63
-131,-63,68,97,-100,2,-468,-78,-122,-326,-170,-68
-126,-63,63,95,-95,0,-473,-78,-117,-331,-165,-68
-112,-53,58,82,-85,2,-468,-87,-107,-326,-161,-53
-112,-53,58,82,-85,2,-463,-87,-102,-312,-151,-43
-107,-63,43,85,-75,-9,-448,-82,-102,-302,-131,-39
-102,-63,39,82,-70,-12,-434,-78,-102,-292,-131,-34
-102,-58,43,80,-73,-7,-424,-78,-107,-292,-136,-43
-97,-48,48,73,-73,0,-424,-78,-107,-297,-146,-43
-97,-39,58,68,-78,9,-424,-63,-107,-302,-146,-43
-97,-34,63,65,-80,14,-424,-73,-107,-307,-146,-48
-107,-53,53,80,-80,0,-429,-78,-117,-317,-156,-53
-131,-68,63,100,-97,-2,-429,-82,-117,-312,-156,-53
-141,-82,58,112,-100,-12,-434,-87,-117,-312,-156,-58
-141,-92,48,117,-95,-21,-434,-92,-112,-312,-156,-68
-117,-63,53,90,-85,-4,-444,-82,-107,-307,-141,-53
-92,-43,48,68,-70,2,-439,-78,-97,-297,-131,-48
-58,-29,29,43,-43,0,-439,-73,-92,-292,-126,-43
-34,-14,19,24,-26,2,-439,-68,-82,-287,-117,-34
-58,-29,29,43,-43,0,-424,-63,-87,-292,-126,-34
-68,-39,29,53,-48,-4,-429,-63,-87,-283,-122,-34
-78,-48,29,63,-53,-9,-424,-63,-78,-278,-122,-34
-82,-58,24,70,-53,-17,-419,-63,-73,-278,-117,-39
-87,-53,34,70,-61,-9,-424,-63,-78,-268,-107,-34
-92,-48,43,70,-68,-2,-429,-63,-82,-268,-107,-34
-92,-48,43,70,-68,-2,-424,-58,-73,-258,-102,-29
-102,-43,58,73,-80,7,-405,-48,-73,-253,-102,-29
-107,-53,53,80,-80,0,-409,-53,-63,-253,-112,-24
-97,-48,48,73,-73,0,-414,-53,-63,-248,-97,-24
-87,-34,53,61,-70,9,-414,-43,-43,-239,-82,-9
-82,-34,48,58,-65,7,-409,-43,-43,-239,-78,-4
-102,-48,53,75,-78,2,-414,-43,-53,-239,-73,-14
-102,-53,48,78,-75,-2,-419,-39,-48,-229,-73,-4
-112,-63,48,87,-80,-7,-424,-39,-39,-229,-68,-14
-112,-82,29,97,-70,-26,-429,-34,-29,-229,-68,-14
-112,-63,48,87,-80,-7,-419,-34,-29,-234,-58,-14
-112,-48,63,80,-87,7,-424,-29,-14,-214,-43,0
-102,-43,58,73,-80,7,-434,-19,-4,-200,-43,4
-97,-39,58,68,-78,9,-439,-14,4,-190,-29,9
-82,-29,53,56,-68,12,-448,-14,0,-185,-19,14
-78,-29,48,53,-63,9,-448,-19,0,-185,-14,19
-63,-24,39,43,-51,7,-458,-14,9,-175,-14,19
-58,-14,43,36,-51,14,-463,-14,19,-151,0,24
-43,0,43,21,-43,21,-463,0,39,-141,9,39
-43,0,43,21,-43,21,-458,4,48,-131,14,39
-39,4,43,17,-41,24,-453,4,63,-117,34,48
-29,19,48,4,-39,34,-439,14,78,-107,48,58
-39,14,53,12,-46,34,-448,24,78,-87,68,63
-43,9,53,17,-48,31,-463,19,92,-68,78,63
-53,9,63,21,-58,36,-473,29,107,-48,92,73
-63,0,63,31,-63,31,-483,29,122,-29,112,78
-68,0,68,34,-68,34,-488,34,146,-9,136,82
-68,0,68,34,-68,34,-507,39,156,9,151,92
-68,0,68,34,-68,34,-512,48,170,29,161,107
-68,4,73,31,-70,39,-507,53,190,48,175,122
-43,29,73,7,-58,51,-512,73,195,73,195,122
-14,34,48,-9,-31,41,-531,73,209,92,214,122
0,43,43,-21,-21,43,-541,78,214,107,224,136
14,48,34,-31,-9,41,-551,82,219,122,239,136
4,43,39,-24,-17,41,-566,78,234,131,258,156
0,34,34,-17,-17,34,-570,78,244,156,273,165
4,34,29,-19,-12,31,-575,82,248,165,283,175
0,43,43,-21,-21,43,-580,87,258,190,297,185
-4,53,58,-24,-31,56,-575,87,258,209,317,190
-9,58,68,-24,-39,63,-570,87,263,219,331,190
-14,58,73,-21,-43,65,-561,87,263,224,346,200
-19,73,92,-26,-56,82,-551,92,263,239,356,209
-4,68,73,-31,-39,70,-556,102,287,258,361,224
-4,68,73,-31,-39,70,-561,107,302,268,366,224
-14,68,82,-26,-48,75,-570,107,307,283,375,229
-14,68,82,-26,-48,75,-575,102,317,287,400,234
9,73,63,-41,-26,68,-585,107,307,287,400,234
19,78,58,-48,-19,68,-595,97,307,283,395,234
24,82,58,-53,-17,70,-610,92,302,278,390,239
19,92,73,-56,-26,82,-614,92,302,268,390,239
14,87,73,-51,-29,80,-605,102,307,273,405,244
14,82,68,-48,-26,75,-600,102,312,283,409,253
9,87,78,-48,-34,82,-600,102,317,297,414,258
19,92,73,-56,-26,82,-610,92,322,302,419,263
34,92,58,-63,-12,75,-624,68,297,297,414,253
14,97,82,-56,-34,90,-644,58,278,292,414,258
19,107,87,-63,-34,97,-649,53,263,278,414,258
24,117,92,-70,-34,104,-639,43,248,268,414,263
14,112,97,-63,-41,104,-619,53,253,273,409,273
4,112,107,-58,-51,109,-610,53,253,273,405,273
-19,107,126,-43,-73,117,-600,58,253,263,400,268
-29,97,126,-34,-78,112,-585,53,258,258,400,268
-4,102,107,-48,-56,104,-585,53,263,244,380,253
0,107,107,-53,-53,107,-580,53,258,234,370,253
-4,102,107,-48,-56,104,-570,53,258,229,361,248
0,107,107,-53,-53,107,-561,43,248,219,346,244
4,102,97,-53,-46,100,-561,39,239,190,346,248
4,92,87,-48,-41,90,-570,34,229,175,322,239
4,87,82,-46,-39,85,-566,29,209,151,312,224
-4,82,87,-39,-46,85,-536,29,200,131,297,214
-9,82,92,-36,-51,87,-536,9,185,107,273,195
-14,78,92,-31,-53,85,-541,-4,170,82,253,180
-14,63,78,-24,-46,70,-541,-9,156,58,234,175
-14,63,78,-24,-46,70,-536,-9,141,34,214,170
-29,53,82,-12,-56,68,-536,-14,141,24,190,161
-48,43,92,2,-70,68,-531,-14,117,0,175,146
-63,29,92,17,-78,61,-531,-24,97,-24,156,141
-82,24,107,29,-95,65,-531,-19,87,-39,141,136
-78,29,107,24,-92,68,-522,-34,78,-73,126,117
-73,14,87,29,-80,51,-531,-48,63,-87,112,112
-58,14,73,21,-65,43,-517,-53,39,-107,97,102
-48,19,68,14,-58,43,-517,-53,19,-126,82,87
-34,34,68,0,-51,51,-512,-53,19,-136,73,87
-29,34,63,-2,-46,48,-512,-58,9,-151,63,78
-24,39,63,-7,-43,51,-512,-63,4,-161,43,73
-24,34,58,-4,-41,46,-507,-63,-9,-180,34,68
-58,34,92,12,-75,63,-507,-63,-19,-195,24,63
-68,24,92,21,-80,58,-507,-68,-29,-209,9,63
-78,4,82,36,-80,43,-507,-73,-39,-219,4,48
-82,4,87,39,-85,46,-497,-82,-43,-224,-4,48
-92,4,97,43,-95,51,-502,-92,-48,-239,-14,43
-87,0,87,43,-87,43,-492,-92,-63,-244,-19,39
-87,-4,82,46,-85,39,-492,-92,-68,-248,-24,34
-87,-9,78,48,-82,34,-492,-92,-73,-273,-34,29
-87,-19,68,53,-78,24,-478,-82,-78,-268,-29,29
-87,-34,53,61,-70,9,-473,-87,-82,-273,-34,19
-87,-43,43,65,-65,0,-478,-92,-82,-273,-43,14
-102,-43,58,73,-80,7,-478,-97,-87,-273,-43,9
-92,-43,48,68,-70,2,-492,-107,-97,-283,-48,9
-87,-34,53,61,-70,9,-492,-107,-97,-287,-48,9
-87,-34,53,61,-70,9,-492,-112,-97,-297,-48,14
-97,-39,58,68,-78,9,-492,-112,-102,-307,-53,14
-97,-39,58,68,-78,9,-507,-112,-102,-312,-63,4
-92,-34,58,63,-75,12,-512,-107,-102,-312,-68,4
-82,-34,48,58,-65,7,-517,-107,-107,-312,-68,4
-92,-53,39,73,-65,-7,-522,-107,-112,-322,-73,-4
-151,-82,68,117,-109,-7,-512,-122,-112,-336,-87,-29
-131,-63,68,97,-100,2,-492,-112,-97,-336,-82,-24
-97,-58,39,78,-68,-9,-497,-107,-97,-322,-87,-19
-87,-53,34,70,-61,-9,-483,-102,-82,-322,-87,-9
-87,-48,39,68,-63,-4,-468,-97,-78,-322,-87,-9
-87,-43,43,65,-65,0,-453,-92,-73,-322,-87,-9
-87,-39,48,63,-68,4,-439,-87,-68,-322,-87,-9
-92,-53,39,73,-65,-7,-400,-73,-34,-322,-87,-19
-97,-58,39,78,-68,-9,-395,-58,-9,-326,-92,-24
-107,-63,43,85,-75,-9,-380,-43,9,-326,-92,-24
-112,-68,43,90,-78,-12,-366,-29,24,-326,-97,-24
-107,-53,53,80,-80,0,-385,-34,34,-326,-92,-19
-97,-48,48,73,-73,0,-409,-34,34,-326,-92,-19
-92,-43,48,68,-70,2,-429,-39,34,-326,-87,-14
-97,-43,53,70,-75,4,-448,-43,39,-326,-87,-14
-107,-53,53,80,-80,0,-463,-63,19,-346,-107,-29
-102,-53,48,78,-75,-2,-478,-73,0,-346,-107,-34
-102,-63,39,82,-70,-12,-497,-82,-19,-346,-107,-39
-112,-63,48,87,-80,-7,-517,-92,-39,-346,-107,-43
-92,-63,29,78,-61,-17,-507,-92,-48,-336,-102,-29
-87,-53,34,70,-61,-9,-507,-92,-58,-331,-92,-24
-87,-53,34,70,-61,-9,-502,-87,-68,-322,-87,-19
-87,-53,34,70,-61,-9,-502,-82,-68,-317,-78,-14
-97,-63,34,80,-65,-14,-497,-82,-73,-326,-82,-19
-97,-43,53,70,-75,4,-497,-82,-63,-322,-82,-19
-87,-19,68,53,-78,24,-488,-68,-58,-312,-68,-19
-68,-19,48,43,-58,14,-488,-63,-48,-307,-68,-14
-73,-19,53,46,-63,17,-492,-48,-39,-292,-53,-4
-82,-19,63,51,-73,21,-473,-48,-19,-283,-53,-4
-82,-19,63,51,-73,21,-463,-43,-4,-278,-48,0
-78,-4,73,41,-75,34,-444,-34,14,-268,-39,0
-78,0,78,39,-78,39,-453,-43,9,-258,-29,0
-73,0,73,36,-73,36,-478,-43,14,-258,-24,0
-73,4,78,34,-75,41,-488,-34,24,-244,-19,4
-58,14,73,21,-65,43,-492,-29,24,-239,-4,9
-63,4,68,29,-65,36,-473,-24,43,-229,4,14
-68,0,68,34,-68,34,-468,-19,43,-229,4,19
-73,-9,63,41,-68,26,-468,-19,53,-224,9,19
-73,-19,53,46,-63,17,-468,-19,58,-214,14,24
-68,-9,58,39,-63,24,-478,-9,63,-209,19,34
-63,-4,58,34,-61,26,-478,-4,68,-204,29,34
-53,0,53,26,-53,26,-478,0,73,-195,34,39
-43,19,63,12,-53,41,-478,4,82,-185,39,43
-39,29,68,4,-53,48,-478,4,82,-175,53,48
-29,34,63,-2,-46,48,-488,-9,82,-175,53,53
-19,39,58,-9,-39,48,-502,-19,82,-180,53,58
-9,48,58,-19,-34,53,-512,-39,73,-180,53,58
0,73,73,-36,-36,73,-527,-58,48,-185,63,48
0,78,78,-39,-39,78,-536,-78,29,-200,53,48
-4,73,78,-34,-41,75,-551,-97,19,-209,48,53
-4,78,82,-36,-43,80,-561,-97,9,-209,48,53
14,82,68,-48,-26,75,-561,-87,14,-219,43,39
14,82,68,-48,-26,75,-561,-87,14,-224,39,39
0,78,78,-39,-39,78,-556,-82,9,-224,34,39
9,78,68,-43,-29,73,-556,-82,9,-224,34,39
9,87,78,-48,-34,82,-561,-92,4,-224,43,48
19,87,68,-53,-24,78,-561,-92,0,-224,43,58
24,82,58,-53,-17,70,-566,-92,-4,-224,48,58
24,78,53,-51,-14,65,-570,-92,-9,-224,48,63
19,58,39,-39,-9,48,-561,-92,-14,-224,48,68
4,43,39,-24,-17,41,-561,-92,-14,-224,48,73
9,39,29,-24,-9,34,-561,-82,-9,-219,53,78
4,34,29,-19,-12,31,-551,-73,0,-209,58,82
9,34,24,-21,-7,29,-556,-82,-4,-214,48,87
-4,24,29,-9,-17,26,-556,-78,-4,-214,53,82
-4,24,29,-9,-17,26,-556,-78,-4,-214,53,78
-4,19,24,-7,-14,21,-551,-73,-4,-219,53,73
-9,24,34,-7,-21,29,-536,-73,-4,-219,53,63
-29,9,39,9,-34,24,-536,-82,-14,-244,39,43
-39,0,39,19,-39,19,-527,-82,-29,-253,19,34
-53,-14,39,34,-46,12,-527,-82,-29,-253,14,24
-82,-34,48,58,-65,7,-502,-92,-39,-278,0,14
-78,-48,29,63,-53,-9,-502,-97,-63,-297,-19,-4
-73,-63,9,68,-41,-26,-507,-107,-68,-312,-39,-19
-78,-82,-4,80,-36,-43,-507,-112,-82,-317,-48,-24
-78,-68,9,73,-43,-29,-502,-117,-92,-331,-58,-29
-82,-68,14,75,-48,-26,-497,-122,-102,-341,-63,-34
-82,-63,19,73,-51,-21,-497,-126,-102,-341,-63,-34
-87,-68,19,78,-53,-24,-497,-131,-102,-341,-63,-34
-82,-58,24,70,-53,-17,-497,-126,-97,-341,-48,-29
-68,-58,9,63,-39,-24,-492,-122,-102,-341,-53,-29
-63,-68,-4,65,-29,-36,-488,-117,-97,-341,-53,-24
-63,-68,-4,65,-29,-36,-478,-107,-87,-336,-48,-19
-58,-58,0,58,-29,-29,-468,-112,-92,-346,-53,-29
-73,-63,9,68,-41,-26,-468,-117,-102,-346,-58,-29
-73,-82,-9,78,-31,-46,-468,-122,-107,-346,-63,-29
-68,-87,-19,78,-24,-53,-468,-126,-112,-346,-68,-29
-58,-78,-19,68,-19,-48,-468,-126,-112,-356,-63,-34
-63,-78,-14,70,-24,-46,-468,-126,-112,-361,-63,-34
-68,-87,-19,78,-24,-53,-463,-131,-117,-361,-73,-39
-87,-87,0,87,-43,-43,-458,-131,-117,-366,-78,-43
-97,-87,9,92,-53,-39,-444,-117,-112,-366,-87,-58
-112,-73,39,92,-75,-17,-424,-102,-97,-380,-126,-82
-112,-63,48,87,-80,-7,-395,-63,-68,-395,-165,-112
-151,-78,73,114,-112,-2,-361,-14,-24,-395,-185,-122
-175,-78,97,126,-136,9,-317,43,39,-351,-170,-126
-141,-48,92,95,-117,21,-273,102,131,-278,-112,-107
-112,-24,87,68,-100,31,-253,151,204,-185,-24,-68
-107,-34,73,70,-90,19,-248,190,297,-58,87,-34
-107,-68,39,87,-73,-14,-244,258,424,122,234,29
-117,-68,48,92,-82,-9,-253,326,561,317,409,126
-73,-24,48,48,-61,12,-273,390,692,512,595,234
14,19,4,-17,4,12,-307,463,854,761,814,351
82,48,-34,-65,58,7,-341,531,1034,1073,1146,546
141,97,-43,-119,92,26,-400,580,1185,1381,1498,756
209,131,-78,-170,143,26,-468,561,1254,1615,1795,927
278,200,-78,-239,178,61,-512,531,1327,1820,2044,1078
356,341,-14,-348,185,163,-566,497,1429,2078,2308,1259
448,473,24,-461,212,248,-639,478,1576,2332,2571,1439
512,566,53,-539,229,309,-678,468,1678,2513,2732,1561
536,653,117,-595,209,385,-697,458,1732,2596,2796,1649
590,732,141,-661,224,436,-732,473,1742,2601,2786,1688
634,702,68,-668,283,385,-736,473,1683,2469,2620,1625
575,507,-68,-541,322,219,-668,453,1542,2235,2288,1400
458,248,-209,-353,334,19,-541,390,1337,1952,1834,1068
331,63,-268,-197,300,-102,-444,204,941,1468,1249,692
195,-39,-234,-78,214,-136,-424,-102,292,707,531,297
63,-117,-180,26,122,-148,-424,-414,-434,-185,-214,-73
-58,-161,-102,109,21,-131,-390,-639,-1029,-985,-751,-307
-156,-165,-9,161,-73,-87,-380,-761,-1468,-1600,-1019,-370
-244,-180,63,212,-153,-58,-361,-746,-1576,-1839,-1117,-414
-292,-195,97,244,-195,-48,-341,-634,-1410,-1683,-1029,-434
-283,-185,97,234,-190,-43,-380,-512,-1229,-1434,-868,-400
-234,-175,58,204,-146,-58,-434,-356,-1093,-1278,-766,-351
-214,-200,14,207,-114,-92,-483,-200,-971,-1171,-707,-361
-214,-209,4,212,-109,-102,-463,-82,-868,-1054,-663,-390
-204,-224,-19,214,-92,-122,-341,39,-761,-951,-595,-380
-239,-292,-53,265,-92,-173,-248,141,-634,-878,-551,-380
-278,-341,-63,309,-107,-202,-224,180,-546,-800,-497,-366
-268,-322,-53,295,-107,-187,-200,190,-502,-751,-429,-331
-248,-312,-63,280,-92,-187,-200,209,-458,-717,-400,-312
-253,-317,-63,285,-95,-190,-209,180,-429,-688,-385,-307
-244,-297,-53,270,-95,-175,-224,122,-400,-663,-375,-302
-180,-239,-58,209,-61,-148,-244,97,-351,-605,-326,-273
-122,-180,-58,151,-31,-119,-258,87,-258,-527,-263,-214
-87,-122,-34,104,-26,-78,-273,53,-190,-448,-185,-141
-87,-102,-14,95,-36,-58,-312,-4,-165,-414,-141,-97
-112,-112,0,112,-56,-56,-346,-53,-165,-414,-131,-97
-102,-112,-9,107,-46,-61,-361,-82,-165,-424,-131,-107
-107,-107,0,107,-53,-53,-356,-107,-170,-439,-146,-112
-87,-97,-9,92,-39,-53,-356,-107,-161,-439,-146,-122
-78,-78,0,78,-39,-39,-351,-107,-161,-439,-141,-122
-73,-73,0,73,-36,-36,-351,-107,-161,-429,-136,-117
-92,-92,0,92,-46,-46,-370,-122,-156,-429,-136,-117
-102,-102,0,102,-51,-51,-380,-131,-161,-429,-136,-112
-102,-112,-9,107,-46,-61,-405,-141,-161,-424,-126,-107
-112,-122,-9,117,-51,-65,-400,-141,-156,-414,-117,-102
-112,-107,4,109,-58,-51,-380,-131,-151,-414,-107,-97
-107,-87,19,97,-63,-34,-375,-126,-146,-414,-112,-92
-97,-73,24,85,-61,-24,-370,-122,-136,-409,-112,-92
-87,-63,24,75,-56,-19,-366,-117,-126,-409,-107,-87
-97,-68,29,82,-63,-19,-385,-126,-117,-414,-112,-92
-102,-73,29,87,-65,-21,-385,-126,-112,-400,-102,-82
-102,-87,14,95,-58,-36,-375,-122,-112,-390,-82,-78
-102,-92,9,97,-56,-41,-366,-117,-112,-380,-82,-73
-92,-102,-9,97,-41,-56,-375,-117,-122,-385,-78,-73
-87,-97,-9,92,-39,-53,-375,-117,-117,-385,-87,-73
-87,-92,-4,90,-41,-48,-375,-102,-112,-385,-87,-73
-87,-92,-4,90,-41,-48,-375,-112,-107,-385,-87,-78
-78,-97,-19,87,-29,-58,-380,-122,-107,-385,-78,-78
-92,-97,-4,95,-43,-51,-380,-122,-107,-380,-78,-73
-92,-97,-4,95,-43,-51,-385,-122,-107,-380,-78,-73
-82,-92,-9,87,-36,-51,-385,-122,-102,-380,-78,-78
-92,-82,9,87,-51,-36,-395,-112,-92,-370,-68,-68
-102,-82,19,92,-61,-31,-390,-107,-87,-366,-63,-68
-102,-87,14,95,-58,-36,-390,-102,-87,-366,-63,-68
-112,-92,19,102,-65,-36,-390,-97,-82,-366,-58,-63
-92,-82,9,87,-51,-36,-385,-92,-78,-351,-58,-63
-78,-78,0,78,-39,-39,-390,-92,-78,-341,-53,-63
-63,-73,-9,68,-26,-41,-385,-92,-68,-336,-53,-63
-43,-68,-24,56,-9,-46,-380,-92,-63,-336,-48,-68
-58,-68,-9,63,-24,-39,-380,-102,-73,-346,-39,-73
-63,-68,-4,65,-29,-36,-390,-102,-73,-346,-39,-73
-63,-73,-9,68,-26,-41,-390,-97,-58,-336,-34,-68
-73,-73,0,73,-36,-36,-375,-87,-53,-331,-34,-68
-82,-78,4,80,-43,-36,-375,-82,-43,-331,-39,-82
-68,-78,-9,73,-29,-43,-375,-82,-43,-326,-29,-82
-53,-68,-14,61,-19,-41,-370,-73,-24,-317,-19,-68
-43,-73,-29,58,-7,-51,-361,-73,-24,-317,-19,-63
-58,-78,-19,68,-19,-48,-351,-63,-19,-307,-14,-73
-63,-82,-19,73,-21,-51,-351,-58,-9,-297,-14,-63
-78,-92,-14,85,-31,-53,-351,-58,4,-297,-9,-73
-82,-112,-29,97,-26,-70,-351,-53,19,-297,-9,-73
-78,-92,-14,85,-31,-53,-326,-34,48,-278,4,-58
-73,-78,-4,75,-34,-41,-307,-9,92,-253,24,-39
-58,-73,-14,65,-21,-43,-292,19,131,-234,29,-29
-48,-68,-19,58,-14,-43,-273,43,170,-219,48,-19
-34,-48,-14,41,-9,-31,-292,39,161,-204,68,-14
-29,-39,-9,34,-9,-24,-312,29,156,-204,73,-9
-14,-24,-9,19,-2,-17,-341,29,161,-195,73,-9
-9,-4,4,7,-7,0,-366,24,165,-170,87,-4
-19,-24,-4,21,-7,-14,-395,9,146,-165,92,-9
-34,-39,-4,36,-14,-21,-419,4,136,-161,92,-9
-43,-48,-4,46,-19,-26,-444,-4,131,-151,107,0
-48,-48,0,48,-24,-24,-458,-4,126,-146,117,9
-34,-34,0,34,-17,-17,-448,4,126,-131,126,14
-24,-29,-4,26,-9,-17,-453,0,131,-117,136,14
-19,-19,0,19,-9,-9,-453,9,136,-102,151,24
-14,-19,-4,17,-4,-12,-453,9,141,-87,170,29
-9,-24,-14,17,2,-19,-448,24,165,-63,185,39
-9,-29,-19,19,4,-24,-458,29,175,-48,200,43
-9,-34,-24,21,7,-29,-453,39,190,-34,209,53
-9,-34,-24,21,7,-29,-439,43,209,-19,224,63
0,-9,-9,4,4,-9,-424,63,234,14,253,73
14,-4,-19,-4,17,-12,-434,63,248,34,273,73
14,4,-9,-9,12,-2,-434,68,253,48,283,87
14,9,-4,-12,9,2,-434,73,258,63,297,87
4,4,0,-4,2,2,-439,82,278,82,317,117
9,4,-4,-7,7,0,-434,87,292,107,331,126
24,14,-9,-19,17,2,-429,97,302,117,341,136
29,34,4,-31,12,19,-424,107,317,141,356,146
29,24,-4,-26,17,9,-448,97,312,156,366,151
29,29,0,-29,14,14,-453,97,322,161,380,151
29,29,0,-29,14,14,-453,97,326,161,395,161
29,43,14,-36,7,29,-453,102,331,170,405,170
43,63,19,-53,12,41,-463,102,331,190,409,185
53,68,14,-61,19,41,-463,107,341,200,414,185
53,73,19,-63,17,46,-468,107,341,214,424,190
63,78,14,-70,24,46,-468,102,346,219,448,195
53,63,9,-58,21,36,-468,107,356,214,444,195
48,58,9,-53,19,34,-468,97,356,214,444,195
39,53,14,-46,12,34,-473,92,351,214,444,200
19,53,34,-36,-7,43,-468,92,351,209,448,200
39,48,9,-43,14,29,-463,87,346,209,448,200
43,43,0,-43,21,21,-463,82,341,214,448,204
43,48,4,-46,19,26,-468,78,336,224,448,204
58,53,-4,-56,31,24,-483,63,331,224,448,204
73,43,-29,-58,51,7,-483,58,322,224,444,195
53,48,-4,-51,29,21,-497,58,317,224,444,200
58,58,0,-58,29,29,-497,63,317,214,444,200
63,68,4,-65,29,36,-483,63,317,209,444,204
63,73,9,-68,26,41,-473,48,307,219,439,204
63,82,19,-73,21,51,-473,43,302,214,434,204
48,87,39,-68,4,63,-473,43,297,200,429,200
48,87,39,-68,4,63,-468,34,297,190,429,200
39,82,43,-61,-2,63,-448,29,297,175,419,204
29,78,48,-53,-9,63,-444,34,287,165,409,204
9,63,53,-36,-21,58,-434,39,283,161,400,200
0,58,58,-29,-29,58,-424,34,268,151,385,195
14,58,43,-36,-14,51,-434,14,253,131,370,175
24,53,29,-39,-2,41,-444,4,239,117,341,161
34,53,19,-43,7,36,-439,-4,214,92,326,141
34,53,19,-43,7,36,-409,-9,200,73,307,126
39,68,29,-53,4,48,-400,-9,185,68,287,122
34,68,34,-51,0,51,-405,-24,170,43,273,112
34,58,24,-46,4,41,-405,-29,156,19,258,112
34,63,29,-48,2,46,-400,-29,141,-4,244,112
39,48,9,-43,14,29,-395,-39,131,-24,219,92
29,43,14,-36,7,29,-395,-43,107,-48,204,78
24,34,9,-29,7,21,-400,-58,87,-73,185,73
14,34,19,-24,-2,26,-405,-58,78,-87,170,68
-9,14,24,-2,-17,19,-400,-53,68,-107,156,58
-14,-4,9,9,-12,2,-405,-68,53,-117,141,53
-9,-9,0,9,-4,-4,-385,-73,29,-131,126,43
-9,-9,0,9,-4,-4,-380,-73,9,-146,112,29
-19,4,24,7,-21,14,-375,-73,9,-156,97,29
-19,4,24,7,-21,14,-375,-78,0,-170,92,19
-19,9,29,4,-24,19,-375,-82,-4,-180,78,14
-24,4,29,9,-26,17,-370,-82,-19,-200,73,9
-34,4,39,14,-36,21,-370,-92,-39,-214,63,9
-29,-4,24,17,-26,9,-370,-97,-48,-229,48,4
-24,-24,0,24,-12,-12,-370,-102,-58,-239,43,-14
-14,-24,-9,19,-2,-17,-361,-112,-63,-244,34,-19
-29,-19,9,24,-19,-4,-351,-102,-53,-244,43,-9
-29,-19,9,24,-19,-4,-336,-102,-63,-244,39,-9
-34,-19,14,26,-24,-2,-331,-102,-63,-244,34,-9
-39,-19,19,29,-29,0,-326,-102,-63,-263,24,-9
-29,-34,-4,31,-12,-19,-336,-107,-78,-273,14,-19
-29,-53,-24,41,-2,-39,-336,-117,-82,-283,4,-39
-29,-68,-39,48,4,-53,-346,-126,-82,-287,-9,-53
-43,-73,-29,58,-7,-51,-351,-136,-87,-292,-14,-68
-29,-58,-29,43,0,-43,-341,-136,-87,-283,-29,-68
-19,-43,-24,31,2,-34,-336,-136,-87,-287,-29,-68
-14,-39,-24,26,4,-31,-331,-141,-87,-297,-29,-63
-19,-39,-19,29,0,-29,-326,-141,-92,-307,-34,-63
-58,-58,0,58,-29,-29,-317,-122,-102,-302,-14,-53
-53,-53,0,53,-26,-26,-307,-107,-92,-292,-9,-43
-63,-63,0,63,-31,-31,-297,-107,-87,-292,-19,-34
-92,-141,-48,117,-21,-95,-326,-126,-102,-302,-34,-53
-126,-156,-29,141,-48,-92,-341,-136,-107,-302,-48,-68
-102,-122,-19,112,-41,-70,-336,-126,-97,-302,-43,-58
-87,-97,-9,92,-39,-53,-331,-126,-97,-302,-39,-58
-73,-73,0,73,-36,-36,-326,-126,-97,-302,-34,-58
-58,-48,9,53,-34,-19,-322,-126,-97,-302,-29,-58
-53,-53,0,53,-26,-26,-287,-122,-92,-292,-39,-58
-48,-48,0,48,-24,-24,-287,-117,-87,-297,-43,-63
-48,-43,4,46,-26,-19,-278,-112,-87,-297,-43,-63
-43,-39,4,41,-24,-17,-268,-107,-92,-297,-48,-63
-53,-48,4,51,-29,-21,-283,-112,-97,-307,-63,-73
-48,-48,0,48,-24,-24,-292,-112,-102,-307,-63,-78
-48,-48,0,48,-24,-24,-297,-117,-107,-307,-58,-78
-58,-53,4,56,-31,-24,-302,-122,-107,-307,-58,-82
-63,-68,-4,65,-29,-36,-292,-122,-107,-307,-78,-92
-63,-73,-9,68,-26,-41,-283,-122,-107,-307,-78,-92
-68,-87,-19,78,-24,-53,-278,-122,-107,-307,-78,-92
-82,-92,-9,87,-36,-51,-273,-122,-107,-307,-78,-92
-63,-87,-24,75,-19,-56,-283,-112,-102,-297,-63,-82
-58,-73,-14,65,-21,-43,-283,-112,-97,-292,-53,-82
-58,-68,-9,63,-24,-39,-278,-107,-92,-283,-48,-82
-58,-63,-4,61,-26,-34,-278,-102,-78,-278,-39,-82
-48,-73,-24,61,-12,-48,-273,-92,-73,-278,-48,-73
-48,-53,-4,51,-21,-29,-273,-92,-63,-273,-43,-68
-39,-29,9,34,-24,-9,-263,-78,-58,-263,-24,-63
-19,-29,-9,24,-4,-19,-263,-73,-48,-258,-19,-53
-29,-34,-4,31,-12,-19,-268,-78,-48,-248,-4,-63
-34,-29,4,31,-19,-12,-258,-78,-39,-234,-4,-63
-29,-24,4,26,-17,-9,-258,-73,-34,-224,0,-58
-19,-4,14,12,-17,4,-248,-63,-24,-209,9,-58
-34,-9,24,21,-29,7,-248,-73,-19,-209,4,-58
-34,-19,14,26,-24,-2,-263,-73,-14,-209,4,-58
-39,-24,14,31,-26,-4,-263,-63,-4,-195,4,-53
-29,-24,4,26,-17,-9,-258,-58,-4,-190,14,-48
-24,-14,9,19,-17,-2,-239,-53,4,-170,19,-34
-29,-9,19,19,-24,4,-234,-48,4,-170,24,-29
-34,-9,24,21,-29,7,-234,-48,14,-165,34,-29
-34,-9,24,21,-29,7,-234,-48,19,-156,43,-24
-19,0,19,9,-19,9,-224,-39,14,-141,48,-24
-4,4,9,0,-7,7,-224,-34,19,-136,58,-24
14,9,-4,-12,9,2,-224,-29,24,-126,63,-19
34,29,-4,-31,19,12,-224,-24,34,-117,68,-14
24,29,4,-26,9,17,-234,-24,34,-117,82,-19
19,24,4,-21,7,14,-253,-39,34,-117,82,-14
14,19,4,-17,4,12,-278,-48,34,-122,82,-9
9,19,9,-14,0,14,-297,-68,24,-122,82,-9
9,43,34,-26,-12,39,-322,-78,9,-112,87,-4
9,48,39,-29,-14,43,-331,-97,-9,-122,82,0
4,43,39,-24,-17,41,-346,-117,-19,-126,82,9
4,48,43,-26,-19,46,-356,-117,-29,-122,87,14
34,58,24,-46,4,41,-346,-117,-34,-131,78,0
43,63,19,-53,12,41,-346,-117,-34,-136,78,0
39,63,24,-51,7,43,-341,-112,-39,-136,78,0
58,68,9,-63,24,39,-341,-112,-39,-136,82,0
63,73,9,-68,26,41,-341,-112,-48,-146,73,0
68,78,9,-73,29,43,-336,-112,-48,-146,73,9
68,78,9,-73,29,43,-336,-112,-48,-146,78,9
63,78,14,-70,24,46,-336,-112,-48,-146,78,14
48,53,4,-51,21,29,-356,-136,-68,-165,63,4
34,34,0,-34,17,17,-366,-141,-73,-165,58,-4
39,24,-14,-31,26,4,-375,-136,-73,-161,58,-14
34,14,-19,-24,26,-2,-375,-131,-68,-151,58,-24
39,24,-14,-31,26,4,-351,-126,-53,-141,63,0
24,24,0,-24,12,12,-341,-117,-53,-136,73,4
24,34,9,-29,7,21,-331,-112,-53,-131,78,9
24,39,14,-31,4,26,-317,-102,-53,-131,82,14
39,53,14,-46,12,34,-307,-102,-43,-126,92,24
29,39,9,-34,9,24,-302,-112,-53,-146,78,4
29,29,0,-29,14,14,-287,-112,-68,-151,58,-4
24,14,-9,-19,17,2,-283,-112,-68,-146,53,-14
-29,-24,4,26,-17,-9,-268,-122,-73,-170,29,-34
-48,-48,0,48,-24,-24,-268,-126,-102,-190,9,-53
-68,-73,-4,70,-31,-39,-273,-136,-112,-204,-9,-68
-97,-102,-4,100,-46,-53,-273,-141,-131,-209,-19,-73
-73,-82,-9,78,-31,-46,-278,-146,-122,-204,-9,-73
-63,-78,-14,70,-24,-46,-273,-151,-131,-214,-14,-73
-48,-68,-19,58,-14,-43,-273,-156,-131,-214,-14,-68
-39,-68,-29,53,-4,-48,-273,-161,-131,-214,-14,-63
-39,-58,-19,48,-9,-39,-278,-156,-131,-209,-14,-63
-29,-58,-29,43,0,-43,-278,-151,-141,-214,-24,-68
-29,-68,-39,48,4,-53,-278,-146,-141,-219,-29,-68
-34,-68,-34,51,0,-51,-273,-136,-136,-219,-29,-68
-53,-73,-19,63,-17,-46,-283,-151,-146,-224,-34,-73
-73,-82,-9,78,-31,-46,-283,-156,-151,-229,-39,-78
-78,-107,-29,92,-24,-68,-283,-161,-151,-234,-43,-82
-78,-117,-39,97,-19,-78,-283,-165,-151,-239,-48,-87
