I,II,III,aVR,aVL,aVF,V1,V2,V3,V4,V5,V6
48,126,78,-87,-14,102,107,97,87,126,39,-39
58,117,58,-87,0,87,126,126,117,136,39,-39
68,126,58,-97,4,92,146,165,156,165,58,-9
48,107,58,-78,-4,82,165,204,195,185,87,0
58,87,29,-73,14,58,175,244,224,195,78,-9
78,48,-29,-63,53,9,185,292,253,175,58,-29
117,29,-87,-73,102,-29,204,351,302,175,58,-29
175,19,-156,-97,165,-68,195,409,361,195,87,-9
214,-9,-224,-102,219,-117,165,458,400,234,146,19
253,-39,-292,-107,273,-165,156,478,419,244,195,68
322,-58,-380,-131,351,-219,126,497,439,263,253,117
380,-78,-458,-151,419,-268,97,517,478,302,322,195
478,-87,-566,-195,522,-326,58,556,546,341,331,234
556,-117,-673,-219,614,-395,19,575,595,322,292,224
624,-146,-771,-239,697,-458,-39,556,605,292,244,195
712,-146,-858,-283,785,-502,-97,527,624,292,204,185
780,-146,-927,-317,854,-536,-136,517,683,322,165,136
829,-175,-1005,-326,917,-590,-165,536,761,351,97,39
917,-204,-1122,-356,1019,-663,-204,546,819,341,-9,-48
985,-214,-1200,-385,1093,-707,-253,536,858,331,-107,-126
1044,-244,-1288,-400,1166,-766,-263,575,946,380,-146,-204
1112,-263,-1376,-424,1244,-819,-253,683,1112,497,-156,-322
1122,-322,-1444,-400,1283,-883,-244,722,1141,478,-234,-458
1073,-390,-1464,-341,1268,-927,-224,653,829,87,-497,-605
946,-439,-1385,-253,1166,-912,-175,536,361,-478,-858,-771
810,-468,-1278,-170,1044,-873,-87,488,68,-800,-1093,-897
683,-468,-1151,-107,917,-810,-9,458,-29,-878,-1161,-966
507,-458,-966,-24,736,-712,39,361,-146,-917,-1200,-995
253,-439,-692,92,473,-566,117,234,-322,-976,-1239,-995
39,-400,-439,180,239,-419,214,204,-400,-966,-1220,-966
-68,-370,-302,219,117,-336,312,273,-322,-878,-1161,-927
-87,-341,-253,214,82,-297,370,400,-185,-771,-1083,-897
-107,-283,-175,195,34,-229,448,556,-9,-644,-976,-839
-195,-253,-58,224,-68,-156,546,722,156,-507,-868,-771
-224,-263,-39,244,-92,-151,634,897,322,-390,-790,-732
-195,-273,-78,234,-58,-175,712,1083,468,-302,-732,-702
-204,-292,-87,248,-58,-190,790,1249,595,-204,-663,-673
-195,-302,-107,248,-43,-204,858,1346,644,-136,-605,-634
-204,-292,-87,248,-58,-190,888,1307,575,-117,-575,-595
-214,-283,-68,248,-73,-175,907,1239,478,-126,-546,-566
-204,-244,-39,224,-82,-141,927,1171,400,-146,-517,-527
-214,-224,-9,219,-102,-117,927,1083,302,-175,-478,-488
-234,-224,9,229,-122,-107,927,966,175,-253,-488,-478
-214,-224,-9,219,-102,-117,897,810,9,-361,-536,-478
-234,-244,-9,239,-112,-126,849,614,-175,-458,-556,-468
-253,-263,-9,258,-122,-136,829,468,-283,-488,-536,-439
-234,-263,-29,248,-102,-146,839,439,-283,-468,-517,-419
-244,-273,-29,258,-107,-151,829,400,-283,-429,-478,-400
-234,-253,-19,244,-107,-136,771,292,-302,-400,-439,-370
-234,-224,9,229,-122,-107,692,165,-322,-361,-380,-322
-214,-175,39,195,-126,-68,614,58,-312,-312,-322,-283
-165,-107,58,136,-112,-24,546,0,-283,-244,-253,-224
-156,-78,78,117,-117,0,478,-39,-263,-195,-195,-175
-136,-58,78,97,-107,9,370,-97,-253,-156,-146,-126
-78,0,78,39,-78,39,244,-136,-234,-107,-97,-78
-39,29,68,4,-53,48,165,-117,-185,-58,-58,-39
-29,39,68,-4,-48,53,146,-68,-126,-9,-19,-9
9,58,48,-34,-19,53,126,-29,-87,19,9,9
9,68,58,-39,-24,63,117,-19,-68,48,29,9
9,78,68,-43,-29,73,107,-9,-48,58,48,29
29,107,78,-68,-24,92,97,-29,-68,58,48,39
19,117,97,-68,-39,107,87,-39,-82,48,48,48
19,117,97,-68,-39,107,78,-48,-87,48,48,48
19,117,97,-68,-39,107,68,-58,-92,48,48,48
19,117,97,-68,-39,107,58,-68,-97,48,48,48
9,126,117,-68,-53,122,43,-78,-92,53,53,48
9,126,117,-68,-53,122,39,-78,-87,58,58,48
9,126,117,-68,-53,122,34,-78,-82,63,63,48
9,126,117,-68,-53,122,29,-78,-78,68,68,48
0,126,126,-63,-63,126,29,-82,-82,68,73,63
0,126,126,-63,-63,126,29,-87,-87,68,78,68
0,126,126,-63,-63,126,29,-92,-92,68,82,73
0,126,126,-63,-63,126,29,-97,-97,68,87,78
4,117,112,-61,-53,114,19,-87,-82,82,92,87
9,117,107,-63,-48,112,19,-87,-78,87,97,87
14,117,102,-65,-43,109,19,-87,-73,92,102,87
19,117,97,-68,-39,107,19,-87,-68,97,107,87
9,117,107,-63,-48,112,19,-97,-78,107,117,97
9,117,107,-63,-48,112,19,-97,-78,107,117,97
9,117,107,-63,-48,112,19,-97,-78,107,117,97
9,117,107,-63,-48,112,19,-97,-78,107,117,97
19,117,97,-68,-39,107,19,-97,-63,122,131,102
19,117,97,-68,-39,107,19,-97,-58,126,136,107
19,117,97,-68,-39,107,19,-97,-53,131,141,112
19,117,97,-68,-39,107,19,-97,-48,136,146,117
9,126,117,-68,-53,122,9,-97,-58,136,156,122
9,126,117,-68,-53,122,9,-97,-58,136,156,126
9,126,117,-68,-53,122,9,-97,-58,136,156,131
9,126,117,-68,-53,122,9,-97,-58,136,156,136
9,131,122,-70,-56,126,0,-107,-48,151,170,146
9,136,126,-73,-58,131,0,-107,-48,156,175,146
9,141,131,-75,-61,136,0,-107,-48,161,180,146
9,146,136,-78,-63,141,0,-107,-48,165,185,146
0,156,156,-78,-78,156,0,-107,-39,175,200,161
0,156,156,-78,-78,156,0,-107,-39,175,204,165
0,156,156,-78,-78,156,0,-107,-39,175,209,170
0,156,156,-78,-78,156,0,-107,-39,175,214,175
4,161,156,-82,-75,158,-9,-117,-48,190,229,180
9,165,156,-87,-73,161,-9,-117,-48,195,234,185
14,170,156,-92,-70,163,-9,-117,-48,200,239,190
19,175,156,-97,-68,165,-9,-117,-48,204,244,195
4,185,180,-95,-87,183,-9,-117,-34,219,263,214
0,185,185,-92,-92,185,-9,-117,-29,224,273,224
-4,185,190,-90,-97,187,-9,-117,-24,229,283,234
-9,185,195,-87,-102,190,-9,-117,-19,234,292,244
4,200,195,-102,-95,197,-19,-126,-19,253,302,253
9,204,195,-107,-92,200,-19,-126,-19,263,312,263
14,209,195,-112,-90,202,-19,-126,-19,273,322,273
19,214,195,-117,-87,204,-19,-126,-19,283,331,283
9,219,209,-114,-100,214,-34,-136,-14,297,346,302
9,224,214,-117,-102,219,-39,-136,-9,302,361,312
9,229,219,-119,-104,224,-43,-136,-4,307,375,322
9,234,224,-122,-107,229,-48,-136,0,312,390,331
19,248,229,-134,-104,239,-58,-146,4,331,414,346
29,263,234,-146,-102,248,-58,-146,9,341,429,361
39,278,239,-158,-100,258,-58,-146,14,351,444,375
48,292,244,-170,-97,268,-58,-146,19,361,458,390
43,307,263,-175,-109,285,-68,-156,34,375,478,405
39,312,273,-175,-117,292,-68,-156,39,390,497,419
34,317,283,-175,-124,300,-68,-156,43,405,517,434
29,322,292,-175,-131,307,-68,-156,48,419,536,448
19,341,322,-180,-151,331,-82,-161,53,434,551,468
19,351,331,-185,-156,341,-87,-165,58,448,566,478
19,361,341,-190,-161,351,-92,-170,63,463,580,488
19,370,351,-195,-165,361,-97,-175,68,478,595,497
9,375,366,-192,-178,370,-107,-170,78,497,624,517
9,380,370,-195,-180,375,-107,-165,87,517,644,536
9,385,375,-197,-183,380,-107,-161,97,536,663,556
9,390,380,-200,-185,385,-107,-156,107,556,683,575
24,409,385,-217,-180,397,-107,-146,122,580,707,600
29,419,390,-224,-180,405,-107,-146,136,595,722,614
34,429,395,-231,-180,412,-107,-146,151,610,736,629
39,439,400,-239,-180,419,-107,-146,165,624,751,644
43,448,405,-246,-180,427,-107,-136,185,639,775,663
48,458,409,-253,-180,434,-107,-126,195,653,790,673
53,468,414,-261,-180,441,-107,-117,204,668,805,683
58,478,419,-268,-180,448,-107,-107,214,683,819,692
58,488,429,-273,-185,458,-97,-97,229,692,824,702
58,488,429,-273,-185,458,-97,-87,244,702,829,702
58,488,429,-273,-185,458,-97,-78,258,712,834,702
58,488,429,-273,-185,458,-97,-68,273,722,839,702
58,497,439,-278,-190,468,-97,-58,287,722,824,697
58,497,439,-278,-190,468,-97,-48,292,722,819,692
58,497,439,-278,-190,468,-97,-39,297,722,814,688
58,497,439,-278,-190,468,-97,-29,302,722,810,683
68,497,429,-283,-180,463,-92,-14,317,717,795,658
68,497,429,-283,-180,463,-87,0,322,712,780,644
68,497,429,-283,-180,463,-82,14,326,707,766,629
68,497,429,-283,-180,463,-78,29,331,702,751,614
73,483,409,-278,-168,446,-73,39,331,678,722,585
78,478,400,-278,-161,439,-68,48,331,663,702,566
82,473,390,-278,-153,431,-63,58,331,649,683,546
87,468,380,-278,-146,424,-58,68,331,634,663,527
78,458,380,-268,-151,419,-48,78,322,614,629,497
78,448,370,-263,-146,409,-48,87,322,595,605,478
78,439,361,-258,-141,400,-48,97,322,575,580,458
78,429,351,-253,-136,390,-48,107,322,556,556,439
68,405,336,-236,-134,370,-43,122,307,527,522,414
68,390,322,-229,-126,356,-39,126,302,507,497,390
68,375,307,-222,-119,341,-34,131,297,488,473,366
68,361,292,-214,-112,326,-29,136,292,468,448,341
78,336,258,-207,-90,297,-14,146,278,444,419,317
78,322,244,-200,-82,283,-9,146,273,429,400,302
78,307,229,-192,-75,268,-4,146,268,414,380,287
78,292,214,-185,-68,253,0,146,263,400,361,273
78,278,200,-178,-61,239,9,146,248,370,336,248
78,263,185,-170,-53,224,9,146,234,351,312,234
78,248,170,-163,-46,209,9,146,219,331,287,219
78,234,156,-156,-39,195,9,146,204,312,263,204
73,219,146,-146,-36,183,14,131,185,297,248,190
68,204,136,-136,-34,170,19,126,175,283,234,175
63,190,126,-126,-31,158,24,122,165,268,219,161
58,175,117,-117,-29,146,29,117,156,253,204,146
68,161,92,-114,-12,126,29,112,136,239,185,126
68,156,87,-112,-9,122,29,107,126,224,175,117
68,151,82,-109,-7,117,29,102,117,209,165,107
68,146,78,-107,-4,112,29,97,107,195,156,97
48,126,78,-87,-14,102,29,82,87,185,136,87
39,117,78,-78,-19,97,29,78,78,175,126,78
29,107,78,-68,-24,92,29,73,68,165,117,68
19,97,78,-58,-29,87,29,68,58,156,107,58
9,82,73,-46,-31,78,29,53,43,146,92,43
9,78,68,-43,-29,73,29,48,39,136,87,39
9,73,63,-41,-26,68,29,43,34,126,82,34
9,68,58,-39,-24,63,29,39,29,117,78,29
4,53,48,-29,-21,51,39,34,24,112,68,29
0,48,48,-24,-24,48,39,29,19,107,68,29
-4,43,48,-19,-26,46,39,24,14,102,68,29
-9,39,48,-14,-29,43,39,19,9,97,68,29
0,48,48,-24,-24,48,29,9,4,87,58,29
9,48,39,-29,-14,43,29,9,0,87,58,29
19,48,29,-34,-4,39,29,9,-4,87,58,29
29,48,19,-39,4,34,29,9,-9,87,58,29
19,58,39,-39,-9,48,19,4,-19,78,58,19
19,58,39,-39,-9,48,19,0,-19,78,58,19
19,58,39,-39,-9,48,19,-4,-19,78,58,19
19,58,39,-39,-9,48,19,-9,-19,78,58,19
29,68,39,-48,-4,53,9,-9,-29,68,53,14
29,68,39,-48,-4,53,9,-9,-29,68,48,9
29,68,39,-48,-4,53,9,-9,-29,68,43,4
29,68,39,-48,-4,53,9,-9,-29,68,39,0
14,58,43,-36,-14,51,9,-14,-39,68,39,9
9,58,48,-34,-19,53,9,-19,-39,68,39,9
4,58,53,-31,-24,56,9,-24,-39,68,39,9
0,58,58,-29,-29,58,9,-29,-39,68,39,9
9,68,58,-39,-24,63,4,-39,-48,58,29,9
9,68,58,-39,-24,63,0,-39,-48,58,29,9
9,68,58,-39,-24,63,-4,-39,-48,58,29,9
9,68,58,-39,-24,63,-9,-39,-48,58,29,9
0,73,73,-36,-36,73,-9,-39,-48,48,29,4
0,78,78,-39,-39,78,-9,-39,-48,48,29,0
0,82,82,-41,-41,82,-9,-39,-48,48,29,-4
0,87,87,-43,-43,87,-9,-39,-48,48,29,-9
9,87,78,-48,-34,82,0,-29,-39,58,29,0
9,87,78,-48,-34,82,0,-29,-39,58,29,0
9,87,78,-48,-34,82,0,-29,-39,58,29,0
9,87,78,-48,-34,82,0,-29,-39,58,29,0
9,82,73,-46,-31,78,9,-19,-29,63,39,0
9,78,68,-43,-29,73,9,-19,-29,68,39,0
9,73,63,-41,-26,68,9,-19,-29,73,39,0
9,68,58,-39,-24,63,9,-19,-29,78,39,0
24,82,58,-53,-17,70,4,-29,-39,73,34,-9
29,87,58,-58,-14,73,0,-29,-39,68,29,-9
34,92,58,-63,-12,75,-4,-29,-39,63,24,-9
39,97,58,-68,-9,78,-9,-29,-39,58,19,-9
24,87,63,-56,-19,75,-19,-29,-43,48,9,-19
19,87,68,-53,-24,78,-19,-29,-48,48,9,-19
14,87,73,-51,-29,80,-19,-29,-53,48,9,-19
9,87,78,-48,-34,82,-19,-29,-58,48,9,-19
14,97,82,-56,-34,90,-19,-29,-48,48,9,-9
19,97,78,-58,-29,87,-19,-29,-48,48,9,-9
24,97,73,-61,-24,85,-19,-29,-48,48,9,-9
29,97,68,-63,-19,82,-19,-29,-48,48,9,-9
39,117,78,-78,-19,97,-19,-39,-48,39,0,-19
39,117,78,-78,-19,97,-19,-39,-48,39,9,-19
48,126,78,-87,-14,102,-9,-29,-48,39,19,-9
34,112,78,-73,-21,95,0,-29,-48,39,9,-9
29,107,78,-68,-24,92,0,-29,-48,39,9,-9
24,102,78,-63,-26,90,0,-29,-48,39,9,-9
19,97,78,-58,-29,87,0,-29,-48,39,9,-9
29,87,58,-58,-14,73,-4,-39,-58,29,0,-14
29,87,58,-58,-14,73,-9,-39,-58,29,0,-19
29,87,58,-58,-14,73,-14,-39,-58,29,0,-24
29,87,58,-58,-14,73,-19,-39,-58,29,0,-29
19,87,68,-53,-24,78,-29,-48,-68,29,-9,-34
19,87,68,-53,-24,78,-29,-48,-68,29,-9,-39
19,87,68,-53,-24,78,-29,-48,-68,29,-9,-43
19,87,68,-53,-24,78,-29,-48,-68,29,-9,-48
24,97,73,-61,-24,85,-19,-39,-58,19,-9,-39
29,97,68,-63,-19,82,-19,-39,-58,19,-9,-39
34,97,63,-65,-14,80,-19,-39,-58,19,-9,-39
39,97,58,-68,-9,78,-19,-39,-58,19,-9,-39
29,92,63,-61,-17,78,-19,-29,-58,29,0,-34
29,87,58,-58,-14,73,-19,-29,-58,29,0,-29
29,82,53,-56,-12,68,-19,-29,-58,29,0,-24
29,78,48,-53,-9,63,-19,-29,-58,29,0,-19
29,73,43,-51,-7,58,-9,-39,-58,29,0,-19
29,68,39,-48,-4,53,-9,-39,-58,29,0,-19
29,63,34,-46,-2,48,-9,-39,-58,29,0,-19
29,58,29,-43,0,43,-9,-39,-58,29,0,-19
34,73,39,-53,-2,56,-19,-48,-68,29,-9,-29
39,78,39,-58,0,58,-19,-48,-68,29,-9,-29
43,82,39,-63,2,61,-19,-48,-68,29,-9,-29
48,87,39,-68,4,63,-19,-48,-68,29,-9,-29
58,97,39,-78,9,68,-19,-48,-68,24,-9,-29
58,97,39,-78,9,68,-19,-48,-68,19,-9,-29
58,97,39,-78,9,68,-19,-48,-68,14,-9,-29
58,97,39,-78,9,68,-19,-48,-68,9,-9,-29
63,97,34,-80,14,65,-19,-48,-68,19,-19,-29
68,97,29,-82,19,63,-19,-48,-68,19,-19,-29
73,97,24,-85,24,61,-19,-48,-68,19,-19,-29
78,97,19,-87,29,58,-19,-48,-68,19,-19,-29
73,97,24,-85,24,61,-29,-53,-73,14,-19,-34
68,97,29,-82,19,63,-29,-58,-78,9,-19,-39
63,97,34,-80,14,65,-29,-63,-82,4,-19,-43
58,97,39,-78,9,68,-29,-68,-87,0,-19,-48
48,107,58,-78,-4,82,-29,-68,-87,0,-29,-48
48,107,58,-78,-4,82,-29,-68,-87,0,-29,-48
48,107,58,-78,-4,82,-29,-68,-87,0,-29,-48
48,107,58,-78,-4,82,-29,-68,-87,0,-29,-48
58,97,39,-78,9,68,-39,-68,-87,-9,-29,-58
58,97,39,-78,9,68,-39,-68,-87,-9,-29,-58
58,97,39,-78,9,68,-39,-68,-87,-9,-29,-58
58,97,39,-78,9,68,-39,-68,-87,-9,-29,-58
48,92,43,-70,2,68,-29,-58,-78,0,-19,-53
48,87,39,-68,4,63,-29,-58,-78,0,-19,-48
48,82,34,-65,7,58,-29,-58,-78,0,-19,-43
48,78,29,-63,9,53,-29,-58,-78,0,-19,-39
48,87,39,-68,4,63,-39,-58,-87,0,-19,-39
48,87,39,-68,4,63,-39,-58,-87,0,-19,-39
48,87,39,-68,4,63,-39,-58,-87,0,-19,-39
48,87,39,-68,4,63,-39,-58,-87,0,-19,-39
39,78,39,-58,0,58,-29,-58,-78,0,-29,-48
39,78,39,-58,0,58,-29,-58,-78,0,-29,-48
39,78,39,-58,0,58,-29,-58,-78,0,-29,-48
39,78,39,-58,0,58,-29,-58,-78,0,-29,-48
43,73,29,-58,7,51,-29,-58,-78,0,-19,-39
48,68,19,-58,14,43,-29,-58,-78,0,-19,-39
53,63,9,-58,21,36,-29,-58,-78,0,-19,-39
58,58,0,-58,29,29,-29,-58,-78,0,-19,-39
53,68,14,-61,19,41,-39,-68,-87,0,-29,-43
48,68,19,-58,14,43,-39,-68,-87,0,-29,-48
43,68,24,-56,9,46,-39,-68,-87,0,-29,-53
39,68,29,-53,4,48,-39,-68,-87,0,-29,-58
48,78,29,-63,9,53,-39,-78,-97,-9,-34,-68
48,78,29,-63,9,53,-39,-78,-97,-9,-39,-68
48,78,29,-63,9,53,-39,-78,-97,-9,-43,-68
48,78,29,-63,9,53,-39,-78,-97,-9,-48,-68
58,87,29,-73,14,58,-39,-68,-87,-9,-43,-63
58,87,29,-73,14,58,-39,-68,-87,-9,-39,-58
58,87,29,-73,14,58,-39,-68,-87,-9,-34,-53
58,87,29,-73,14,58,-39,-68,-87,-9,-29,-48
48,92,43,-70,2,68,-48,-78,-92,-19,-34,-63
48,97,48,-73,0,73,-48,-78,-97,-19,-39,-68
48,102,53,-75,-2,78,-48,-78,-102,-19,-43,-73
48,107,58,-78,-4,82,-48,-78,-107,-19,-48,-78
39,107,68,-73,-14,87,-48,-78,-97,-9,-39,-68
39,107,68,-73,-14,87,-48,-78,-97,-9,-39,-68
39,107,68,-73,-14,87,-48,-78,-97,-9,-39,-68
39,107,68,-73,-14,87,-48,-78,-97,-9,-39,-68
48,117,68,-82,-9,92,-39,-78,-87,-9,-29,-63
48,117,68,-82,-9,92,-39,-78,-87,-9,-29,-58
48,117,68,-82,-9,92,-39,-78,-87,-9,-29,-53
48,117,68,-82,-9,92,-39,-78,-87,-9,-29,-48
53,126,73,-90,-9,100,-39,-87,-97,-9,-39,-53
58,136,78,-97,-9,107,-39,-87,-97,-9,-39,-58
63,146,82,-104,-9,114,-39,-87,-97,-9,-39,-63
68,156,87,-112,-9,122,-39,-87,-97,-9,-39,-68
53,161,107,-107,-26,134,-29,-78,-87,-4,-34,-63
48,165,117,-107,-34,141,-29,-78,-87,0,-29,-58
43,170,126,-107,-41,148,-29,-78,-87,4,-24,-53
39,175,136,-107,-48,156,-29,-78,-87,9,-19,-48
48,185,136,-117,-43,161,-39,-78,-78,9,-9,-39
48,185,136,-117,-43,161,-39,-78,-78,9,-9,-39
48,185,136,-117,-43,161,-39,-78,-78,9,-9,-39
48,185,136,-117,-43,161,-39,-78,-78,9,-9,-39
48,180,131,-114,-41,156,-39,-87,-78,0,-9,-29
48,175,126,-112,-39,151,-39,-87,-78,0,-9,-29
48,170,122,-109,-36,146,-39,-87,-78,0,-9,-29
48,165,117,-107,-34,141,-39,-87,-78,0,-9,-29
58,170,112,-114,-26,141,-48,-97,-87,9,0,-39
58,175,117,-117,-29,146,-58,-97,-87,9,0,-39
58,180,122,-119,-31,151,-68,-97,-87,9,0,-39
58,185,126,-122,-34,156,-78,-97,-87,9,0,-39
73,175,102,-124,-14,139,-87,-102,-97,0,-9,-34
78,175,97,-126,-9,136,-97,-107,-97,0,-9,-29
82,175,92,-129,-4,134,-107,-112,-97,0,-9,-24
87,175,87,-131,0,131,-117,-117,-97,0,-9,-19
78,170,92,-124,-7,131,-122,-131,-112,-4,-19,-19
78,165,87,-122,-4,126,-126,-136,-117,-9,-19,-19
78,161,82,-119,-2,122,-131,-141,-122,-14,-19,-19
78,156,78,-117,0,117,-136,-146,-126,-19,-19,-19
78,170,92,-124,-7,131,-141,-156,-131,-29,-29,-34
78,175,97,-126,-9,136,-146,-156,-136,-39,-39,-39
78,180,102,-129,-12,141,-151,-156,-141,-48,-48,-43
78,185,107,-131,-14,146,-156,-156,-146,-58,-58,-48
82,185,102,-134,-9,143,-151,-151,-141,-43,-43,-43
87,185,97,-136,-4,141,-146,-146,-136,-39,-39,-39
92,185,92,-139,0,139,-141,-141,-131,-34,-34,-34
97,185,87,-141,4,136,-136,-136,-126,-29,-29,-29
92,170,78,-131,7,124,-122,-131,-117,-19,-29,-19
87,165,78,-126,4,122,-117,-126,-117,-19,-29,-19
92,136,43,-114,24,90,-102,-122,-117,-14,-24,-24
78,122,43,-100,17,82,-87,-117,-107,-14,-24,-24
73,131,58,-102,7,95,-82,-112,-112,-14,-34,-29
78,141,63,-109,7,102,-82,-112,-117,-19,-34,-29
73,141,68,-107,2,104,-78,-107,-117,-24,-34,-34
58,136,78,-97,-9,107,-73,-107,-122,-29,-34,-39
43,122,78,-82,-17,100,-68,-97,-112,-39,-43,-58
29,107,78,-68,-24,92,-48,-92,-112,-39,-48,-63
19,92,73,-56,-26,82,-43,-92,-112,-39,-58,-68
19,82,63,-51,-21,73,-43,-92,-112,-43,-63,-68
29,82,53,-56,-12,68,-39,-102,-112,-53,-53,-68
29,87,58,-58,-14,73,-39,-92,-112,-53,-53,-68
29,87,58,-58,-14,73,-39,-92,-112,-53,-63,-68
29,78,48,-53,-9,63,-39,-92,-112,-53,-63,-78
43,82,39,-63,2,61,-48,-97,-117,-53,-68,-87
43,87,43,-65,0,65,-43,-97,-117,-53,-68,-87
48,92,43,-70,2,68,-43,-97,-122,-53,-68,-82
53,87,34,-70,9,61,-39,-97,-131,-58,-68,-82
63,87,24,-75,19,56,-48,-97,-131,-73,-78,-82
68,92,24,-80,21,58,-43,-97,-131,-73,-82,-82
68,107,39,-87,14,73,-43,-97,-131,-68,-82,-82
68,107,39,-87,14,73,-43,-97,-131,-63,-82,-87
63,107,43,-85,9,75,-43,-102,-131,-53,-73,-97
58,107,48,-82,4,78,-53,-107,-131,-53,-68,-97
53,102,48,-78,2,75,-53,-107,-131,-58,-68,-97
48,102,53,-75,-2,78,-53,-102,-131,-58,-68,-97
43,92,48,-68,-2,70,-43,-102,-131,-63,-78,-97
39,92,53,-65,-7,73,-39,-97,-126,-63,-82,-97
39,87,48,-63,-4,68,-39,-97,-126,-68,-87,-97
34,78,43,-56,-4,61,-39,-97,-126,-68,-87,-102
34,63,29,-48,2,46,-29,-87,-117,-58,-78,-97
34,63,29,-48,2,46,-29,-87,-117,-58,-78,-92
34,63,29,-48,2,46,-29,-87,-117,-58,-73,-87
34,63,29,-48,2,46,-29,-87,-117,-58,-73,-78
43,73,29,-58,7,51,-29,-87,-117,-48,-68,-68
34,73,39,-53,-2,56,-29,-92,-117,-48,-58,-68
48,78,29,-63,9,53,-29,-92,-117,-48,-53,-68
63,92,29,-78,17,61,-29,-92,-122,-48,-53,-68
53,87,34,-70,9,61,-39,-92,-122,-53,-58,-68
53,87,34,-70,9,61,-39,-92,-122,-53,-63,-68
48,92,43,-70,2,68,-39,-82,-117,-48,-63,-68
48,92,43,-70,2,68,-39,-82,-117,-43,-63,-68
34,87,53,-61,-9,70,-39,-82,-117,-53,-73,-73
34,87,53,-61,-9,70,-39,-92,-122,-53,-73,-78
39,87,48,-63,-4,68,-39,-92,-122,-58,-73,-82
48,92,43,-70,2,68,-39,-92,-122,-58,-73,-82
39,78,39,-58,0,58,-29,-92,-122,-58,-68,-73
53,87,34,-70,9,61,-39,-87,-131,-63,-68,-73
82,87,4,-85,39,46,-43,-87,-122,-58,-68,-82
68,78,9,-73,29,43,-43,-78,-122,-63,-78,-87
58,63,4,-61,26,34,-24,-82,-122,-58,-73,-87
48,48,0,-48,24,24,-24,-82,-126,-73,-87,-97
48,39,-9,-43,29,14,-34,-92,-126,-87,-102,-117
97,48,-48,-73,73,0,-34,-73,-126,-82,-102,-117
97,43,-53,-70,75,-4,-34,-58,-107,-73,-102,-117
87,9,-78,-48,82,-34,-48,-53,-97,-78,-122,-136
117,9,-107,-63,112,-48,-48,-34,-68,-63,-112,-126
136,29,-107,-82,122,-39,-34,9,-19,-14,-73,-97
141,24,-117,-82,129,-46,-19,39,34,34,-14,-82
131,19,-112,-75,122,-46,-29,63,87,73,9,-87
131,0,-131,-65,131,-65,-24,92,126,112,34,-97
180,19,-161,-100,170,-70,-24,131,180,165,63,-68
229,34,-195,-131,212,-80,-9,180,244,219,97,-48
229,19,-209,-124,219,-95,4,229,322,278,131,-39
273,19,-253,-146,263,-117,4,297,414,366,190,0
326,43,-283,-185,305,-119,-4,331,512,458,273,53
366,68,-297,-217,331,-114,-14,346,575,541,356,122
414,107,-307,-261,361,-100,-43,346,624,619,453,200
473,146,-326,-309,400,-90,-73,346,658,678,546,292
536,175,-361,-356,448,-92,-92,351,717,761,653,395
610,200,-409,-405,509,-104,-117,400,800,858,756,488
644,190,-453,-417,549,-131,-117,448,834,878,795,536
644,180,-463,-412,553,-141,-117,463,819,839,785,556
590,219,-370,-405,480,-75,-92,448,790,819,790,595
424,258,-165,-341,295,46,-24,409,741,824,819,653
234,322,87,-278,73,204,43,361,697,814,834,697
126,419,292,-273,-82,356,92,336,678,858,907,771
82,527,444,-305,-180,485,97,307,717,971,1054,893
63,614,551,-339,-244,583,117,292,751,1058,1171,1005
24,683,658,-353,-317,671,122,273,717,1088,1220,1054
-29,722,751,-346,-390,736,117,244,663,1083,1249,1107
-58,761,819,-351,-439,790,131,244,610,1005,1190,1098
-107,751,858,-322,-483,805,165,244,502,805,976,990
-180,717,897,-268,-539,807,175,229,375,610,751,849
-219,702,922,-241,-570,812,141,165,253,478,600,741
-253,673,927,-209,-590,800,107,63,97,326,448,644
-248,683,932,-217,-590,807,87,-19,-48,156,283,546
-219,707,927,-244,-573,817,63,-39,-112,63,151,468
-214,702,917,-244,-566,810,39,-29,-131,0,58,390
-204,683,888,-239,-546,785,29,-19,-165,-102,-63,307
-195,673,868,-239,-531,771,14,-14,-209,-209,-170,214
-219,658,878,-219,-549,768,34,14,-200,-229,-219,122
-229,619,849,-195,-539,734,68,102,-146,-200,-244,29
-248,590,839,-170,-544,714,126,224,-97,-200,-287,-73
-273,556,829,-141,-551,692,190,341,-78,-273,-385,-204
-268,512,780,-122,-524,646,268,448,-73,-351,-497,-346
-287,458,746,-85,-517,602,351,527,-48,-361,-551,-429
-307,424,732,-58,-519,578,405,546,-9,-317,-551,-448
-317,424,741,-53,-529,583,448,527,-14,-297,-546,-463
-370,400,771,-14,-570,585,463,502,-58,-326,-575,-483
-395,414,810,-9,-602,612,478,444,-107,-370,-605,-507
-395,473,868,-39,-631,671,478,322,-195,-409,-610,-497
-429,497,927,-34,-678,712,497,224,-248,-414,-595,-497
-448,468,917,-9,-683,692,536,200,-273,-414,-600,-497
-453,439,893,7,-673,666,590,165,-317,-448,-619,-497
-444,385,829,29,-636,607,610,92,-375,-492,-639,-517
-419,302,722,58,-570,512,629,53,-414,-541,-658,-541
-419,229,649,95,-534,439,619,24,-468,-600,-683,-566
-414,190,605,112,-509,397,585,-29,-522,-639,-683,-566
-370,180,551,95,-461,366,546,-78,-531,-634,-649,-541
-351,151,502,100,-427,326,497,-122,-517,-614,-614,-512
-331,122,453,104,-392,287,439,-190,-527,-590,-590,-488
-307,87,395,109,-351,241,366,-258,-546,-566,-556,-468
-292,29,322,131,-307,175,283,-331,-546,-527,-527,-439
-248,-9,239,129,-244,114,204,-380,-527,-488,-488,-419
-224,-14,209,119,-217,97,175,-370,-483,-439,-444,-390
-229,-34,195,131,-212,80,165,-346,-448,-400,-405,-370
-209,-34,175,122,-192,70,136,-322,-444,-380,-380,-346
-185,-24,161,104,-173,68,97,-307,-424,-361,-356,-317
-161,-24,136,92,-148,56,58,-283,-395,-346,-317,-287
-112,-14,97,63,-104,41,24,-244,-351,-302,-287,-263
-92,-14,78,53,-85,31,9,-204,-287,-253,-258,-248
-58,-9,48,34,-53,19,-4,-165,-234,-219,-229,-229
-14,9,24,2,-19,17,-14,-141,-195,-175,-200,-209
-34,0,34,17,-34,17,-14,-122,-175,-146,-180,-200
-39,-9,29,24,-34,9,-14,-117,-175,-156,-185,-200
-43,-14,29,29,-36,7,-14,-117,-190,-161,-185,-200
-39,-14,24,26,-31,4,-19,-122,-190,-170,-185,-200
-34,-14,19,24,-26,2,-24,-122,-195,-170,-185,-200
-34,-34,0,34,-17,-17,-48,-126,-185,-170,-185,-204
-34,-39,-4,36,-14,-21,-48,-131,-180,-165,-185,-195
-24,-43,-19,34,-2,-31,-48,-131,-170,-156,-175,-195
-14,-53,-39,34,12,-46,-48,-126,-165,-151,-175,-195
-19,-39,-19,29,0,-29,-43,-117,-156,-141,-165,-185
-24,-39,-14,31,-4,-26,-43,-117,-161,-141,-165,-185
-29,-48,-19,39,-4,-34,-43,-122,-180,-151,-161,-185
-14,-34,-19,24,2,-26,-43,-136,-190,-156,-156,-185
-14,-43,-29,29,7,-36,-43,-136,-185,-165,-165,-180
-34,-48,-14,41,-9,-31,-43,-131,-180,-165,-165,-180
-24,-48,-24,36,0,-36,-48,-126,-175,-161,-161,-180
-24,-53,-29,39,2,-41,-48,-122,-161,-161,-161,-175
-24,-68,-43,46,9,-56,-39,-117,-156,-151,-141,-175
-14,-68,-53,41,19,-61,-34,-117,-156,-146,-141,-175
-9,-58,-48,34,19,-53,-34,-112,-161,-141,-146,-175
-9,-68,-58,39,24,-63,-34,-112,-170,-141,-151,-170
4,-63,-68,29,36,-65,-53,-122,-170,-156,-161,-180
4,-63,-68,29,36,-65,-53,-122,-170,-156,-161,-180
-4,-63,-58,34,26,-61,-48,-117,-170,-156,-161,-185
-4,-58,-53,31,24,-56,-48,-117,-165,-151,-161,-185
4,-68,-73,31,39,-70,-53,-112,-161,-141,-165,-185
4,-63,-68,29,36,-65,-53,-112,-161,-141,-165,-185
9,-58,-68,24,39,-63,-58,-112,-165,-146,-170,-190
24,-58,-82,17,53,-70,-63,-117,-170,-161,-180,-190
34,-63,-97,14,65,-80,-63,-131,-175,-170,-170,-200
29,-63,-92,17,61,-78,-63,-131,-175,-170,-170,-200
24,-63,-87,19,56,-75,-63,-131,-175,-170,-170,-200
24,-63,-87,19,56,-75,-63,-131,-170,-170,-170,-195
34,-58,-92,12,63,-75,-63,-126,-170,-170,-180,-190
43,-63,-107,9,75,-85,-63,-126,-170,-170,-180,-190
48,-63,-112,7,80,-87,-73,-126,-170,-170,-180,-185
58,-63,-122,2,90,-92,-63,-122,-170,-175,-180,-175
78,-63,-141,-7,109,-102,-73,-131,-175,-170,-170,-165
58,-63,-122,2,90,-92,-78,-131,-180,-170,-180,-170
43,-73,-117,14,80,-95,-78,-131,-180,-170,-180,-170
53,-73,-126,9,90,-100,-78,-126,-175,-165,-170,-165
68,-68,-136,0,102,-102,-87,-136,-185,-175,-175,-170
73,-73,-146,0,109,-109,-87,-136,-180,-170,-175,-175
73,-73,-146,0,109,-109,-87,-136,-180,-170,-175,-185
73,-82,-156,4,114,-119,-87,-141,-180,-175,-180,-190
78,-82,-161,2,119,-122,-97,-141,-185,-180,-200,-200
82,-82,-165,0,124,-124,-97,-136,-185,-190,-204,-204
82,-87,-170,2,126,-129,-97,-136,-185,-195,-209,-209
73,-97,-170,12,122,-134,-97,-136,-185,-200,-209,-214
63,-107,-170,21,117,-139,-97,-146,-185,-200,-209,-214
63,-117,-180,26,122,-148,-97,-141,-185,-200,-204,-219
82,-122,-204,19,143,-163,-102,-141,-190,-204,-200,-219
82,-126,-209,21,146,-168,-107,-146,-190,-209,-200,-214
97,-117,-214,9,156,-165,-112,-156,-195,-209,-200,-204
122,-107,-229,-7,175,-168,-117,-156,-195,-209,-200,-204
122,-117,-239,-2,180,-178,-122,-161,-195,-209,-200,-209
112,-122,-234,4,173,-178,-126,-161,-195,-209,-200,-209
117,-126,-244,4,180,-185,-126,-156,-204,-209,-200,-209
122,-131,-253,4,187,-192,-126,-156,-204,-209,-200,-209
126,-131,-258,2,192,-195,-126,-156,-200,-209,-195,-204
141,-131,-273,-4,207,-202,-131,-156,-200,-209,-195,-204
146,-141,-287,-2,217,-214,-146,-161,-209,-224,-204,-214
161,-141,-302,-9,231,-222,-146,-161,-209,-219,-214,-219
170,-131,-302,-19,236,-217,-146,-161,-204,-224,-219,-224
185,-126,-312,-29,248,-219,-146,-161,-200,-229,-224,-229
190,-136,-326,-26,258,-231,-165,-161,-200,-234,-224,-219
195,-141,-336,-26,265,-239,-165,-161,-200,-244,-229,-224
204,-151,-356,-26,280,-253,-165,-156,-209,-244,-234,-224
209,-151,-361,-29,285,-256,-165,-156,-200,-239,-234,-224
209,-161,-370,-24,290,-265,-175,-165,-190,-234,-214,-219
219,-156,-375,-31,297,-265,-180,-161,-190,-229,-209,-214
224,-156,-380,-34,302,-268,-180,-161,-190,-229,-204,-209
229,-161,-390,-34,309,-275,-185,-161,-185,-224,-200,-200
248,-161,-409,-43,329,-285,-200,-161,-185,-214,-195,-200
253,-170,-424,-41,339,-297,-200,-156,-185,-209,-195,-190
258,-165,-424,-46,341,-295,-200,-156,-180,-209,-175,-180
283,-156,-439,-63,361,-297,-200,-151,-180,-204,-170,-175
292,-146,-439,-73,366,-292,-219,-151,-165,-185,-161,-156
302,-146,-448,-78,375,-297,-224,-141,-161,-180,-151,-151
307,-146,-453,-80,380,-300,-224,-136,-156,-175,-141,-146
312,-151,-463,-80,387,-307,-219,-131,-146,-161,-131,-141
312,-141,-453,-85,383,-297,-229,-136,-141,-151,-117,-141
317,-141,-458,-87,387,-300,-239,-131,-141,-151,-117,-141
317,-136,-453,-90,385,-295,-239,-126,-122,-141,-107,-136
331,-122,-453,-104,392,-287,-239,-122,-117,-126,-87,-131
326,-102,-429,-112,378,-265,-229,-117,-97,-117,-78,-131
326,-97,-424,-114,375,-261,-229,-117,-87,-112,-73,-126
326,-92,-419,-117,373,-256,-239,-107,-87,-102,-68,-122
336,-82,-419,-126,378,-251,-239,-102,-68,-92,-58,-112
331,-73,-405,-129,368,-239,-234,-87,-63,-92,-58,-107
336,-73,-409,-131,373,-241,-234,-73,-48,-82,-43,-97
331,-73,-405,-129,368,-239,-229,-63,-43,-78,-43,-87
322,-73,-395,-124,358,-234,-229,-63,-34,-73,-39,-87
312,-53,-366,-129,339,-209,-214,-58,-24,-58,-24,-82
307,-48,-356,-129,331,-202,-214,-58,-14,-43,-9,-78
307,-48,-356,-129,331,-202,-214,-48,-4,-29,4,-58
307,-34,-341,-136,324,-187,-209,-39,-4,-14,19,-53
297,-14,-312,-141,305,-163,-200,-39,-4,-9,9,-48
297,-4,-302,-146,300,-153,-195,-34,4,-14,24,-39
292,4,-287,-148,290,-141,-190,-24,9,-14,24,-29
292,4,-287,-148,290,-141,-185,-9,14,-4,29,-19
278,-4,-283,-136,280,-143,-185,-4,9,-14,24,-14
263,-4,-268,-129,265,-136,-180,4,14,-14,19,-19
258,4,-253,-131,256,-124,-175,4,19,-14,19,-19
253,14,-239,-134,246,-112,-170,9,19,-14,14,-24
253,34,-219,-143,236,-92,-156,0,19,0,19,-19
244,43,-200,-143,222,-78,-151,9,19,0,19,-19
244,58,-185,-151,214,-63,-146,9,19,0,19,-19
229,78,-151,-153,190,-36,-146,9,19,0,19,-29
224,78,-146,-151,185,-34,-126,9,19,-9,4,-48
219,78,-141,-148,180,-31,-122,9,19,-14,0,-53
214,73,-141,-143,178,-34,-112,19,19,-14,-4,-53
224,68,-156,-146,190,-43,-112,9,19,-14,-14,-53
190,68,-122,-129,156,-26,-117,0,14,-19,-14,-63
175,68,-107,-122,141,-19,-102,-4,9,-19,-14,-53
151,73,-78,-112,114,-2,-102,-9,-4,-19,-14,-48
131,78,-53,-104,92,12,-102,-14,-14,-24,-19,-48
141,87,-53,-114,97,17,-92,-9,-19,-24,-19,-53
161,97,-63,-129,112,17,-102,-24,-24,-19,-19,-63
165,97,-68,-131,117,14,-107,-29,-29,-29,-19,-58
151,82,-68,-117,109,7,-97,-34,-39,-39,-24,-48
146,78,-68,-112,107,4,-97,-39,-39,-39,-29,-48
141,73,-68,-107,104,2,-97,-43,-39,-39,-34,-48
136,68,-68,-102,102,0,-97,-48,-39,-39,-39,-48
126,58,-68,-92,97,-4,-87,-53,-43,-39,-29,-48
117,58,-58,-87,87,0,-87,-58,-48,-39,-29,-48
107,58,-48,-82,78,4,-87,-63,-53,-39,-29,-48
97,58,-39,-78,68,9,-87,-68,-58,-39,-29,-48
87,58,-29,-73,58,14,-87,-73,-63,-48,-39,-53
87,58,-29,-73,58,14,-87,-78,-68,-48,-39,-58
87,58,-29,-73,58,14,-87,-82,-73,-48,-39,-63
87,58,-29,-73,58,14,-87,-87,-78,-48,-39,-68
73,68,-4,-70,39,31,-78,-97,-82,-63,-48,-73
68,68,0,-68,34,34,-78,-97,-87,-68,-58,-78
63,68,4,-65,29,36,-78,-97,-92,-73,-68,-82
58,68,9,-63,24,39,-78,-97,-97,-78,-78,-87
58,63,4,-61,26,34,-68,-97,-97,-78,-68,-73
58,58,0,-58,29,29,-68,-97,-97,-78,-68,-68
58,53,-4,-56,31,24,-68,-97,-97,-78,-68,-63
58,48,-9,-53,34,19,-68,-97,-97,-78,-68,-58
58,53,-4,-56,31,24,-68,-97,-97,-68,-53,-48
58,58,0,-58,29,29,-68,-97,-97,-68,-48,-48
58,63,4,-61,26,34,-68,-97,-97,-68,-43,-48
58,68,9,-63,24,39,-68,-97,-97,-68,-39,-48
68,78,9,-73,29,43,-68,-107,-97,-73,-43,-63
68,78,9,-73,29,43,-68,-107,-97,-78,-48,-68
68,78,9,-73,29,43,-68,-107,-97,-82,-53,-73
68,78,9,-73,29,43,-68,-107,-97,-87,-58,-78
58,82,24,-70,17,53,-68,-117,-102,-97,-63,-92
58,87,29,-73,14,58,-68,-117,-107,-97,-68,-97
58,92,34,-75,12,63,-68,-117,-112,-97,-73,-102
58,97,39,-78,9,68,-68,-117,-117,-97,-78,-107
68,97,29,-82,19,63,-68,-117,-117,-102,-92,-117
68,97,29,-82,19,63,-68,-117,-117,-107,-97,-117
68,97,29,-82,19,63,-68,-117,-117,-112,-102,-117
68,97,29,-82,19,63,-68,-117,-117,-117,-107,-117
68,87,19,-78,24,53,-68,-107,-117,-117,-97,-112
68,78,9,-73,29,43,-68,-107,-117,-117,-97,-107
68,68,0,-68,34,34,-68,-107,-117,-117,-97,-102
68,58,-9,-63,39,24,-68,-107,-117,-117,-97,-97
78,58,-19,-68,48,19,-78,-112,-126,-126,-107,-107
78,58,-19,-68,48,19,-78,-117,-126,-126,-107,-107
78,58,-19,-68,48,19,-78,-122,-126,-126,-107,-107
78,58,-19,-68,48,19,-78,-126,-126,-126,-107,-107
78,68,-9,-73,43,29,-87,-126,-126,-126,-97,-107
78,78,0,-78,39,39,-87,-126,-126,-126,-97,-107
78,87,9,-82,34,48,-87,-126,-126,-126,-97,-107
78,97,19,-87,29,58,-87,-126,-126,-126,-97,-107
87,107,19,-97,34,63,-97,-136,-117,-117,-102,-117
87,107,19,-97,34,63,-97,-136,-117,-117,-107,-117
87,107,19,-97,34,63,-97,-136,-117,-117,-112,-117
87,107,19,-97,34,63,-97,-136,-117,-117,-117,-117
97,102,4,-100,46,53,-92,-131,-112,-107,-102,-112
97,97,0,-97,48,48,-87,-126,-107,-107,-97,-107
97,92,-4,-95,51,43,-82,-122,-102,-107,-92,-102
97,87,-9,-92,53,39,-78,-117,-97,-107,-87,-97
87,97,9,-92,39,53,-78,-122,-97,-92,-82,-107
87,97,9,-92,39,53,-78,-126,-97,-87,-78,-107
87,97,9,-92,39,53,-78,-131,-97,-82,-73,-107
87,97,9,-92,39,53,-78,-136,-97,-78,-68,-107
78,87,9,-82,34,48,-73,-122,-78,-68,-63,-107
78,87,9,-82,34,48,-68,-117,-68,-58,-58,-107
78,87,9,-82,34,48,-63,-112,-58,-48,-53,-107
78,87,9,-82,34,48,-58,-107,-48,-39,-48,-107
68,78,9,-73,29,43,-48,-87,-39,-48,-68,-126
78,78,0,-78,39,39,-48,-78,-29,-68,-107,-136
78,68,-9,-73,43,29,-29,-48,-9,-48,-97,-136
97,58,-39,-78,68,9,-19,-9,19,-19,-68,-126
117,48,-68,-82,92,-9,-19,19,58,0,-39,-126
107,19,-87,-63,97,-34,-19,58,87,9,-39,-136
107,0,-107,-53,107,-53,0,97,126,29,-29,-136
126,-9,-136,-58,131,-73,0,136,156,29,-39,-156
136,-39,-175,-48,156,-107,9,185,195,29,-48,-175
165,-68,-234,-48,200,-151,19,244,234,39,-29,-146
214,-87,-302,-63,258,-195,9,283,273,48,9,-97
253,-107,-361,-73,307,-234,-9,292,283,58,48,-58
322,-136,-458,-92,390,-297,-19,312,292,58,87,0
361,-175,-536,-92,448,-356,-48,331,331,87,165,78
390,-224,-614,-82,502,-419,-58,370,400,126,214,126
468,-234,-702,-117,585,-468,-87,400,458,146,195,126
556,-253,-810,-151,683,-531,-146,409,488,136,165,117
663,-253,-917,-204,790,-585,-195,390,497,146,146,117
751,-234,-985,-258,868,-610,-244,370,546,185,117,97
790,-234,-1024,-278,907,-629,-273,390,644,253,68,39
868,-244,-1112,-312,990,-678,-292,409,732,292,0,-39
946,-244,-1190,-351,1068,-717,-331,419,780,302,-78,-136
995,-263,-1259,-366,1127,-761,-361,439,858,341,-126,-234
1054,-312,-1366,-370,1210,-839,-351,507,995,448,-126,-370
1083,-361,-1444,-361,1263,-902,-312,585,1102,497,-165,-527
1044,-439,-1483,-302,1263,-961,-283,566,917,224,-409,-692
966,-507,-1473,-229,1220,-990,-253,429,448,-380,-858,-897
849,-556,-1405,-146,1127,-980,-214,331,58,-858,-1210,-1054
722,-585,-1307,-68,1015,-946,-136,322,-68,-1005,-1327,-1122
556,-575,-1132,9,844,-854,-68,292,-136,-1015,-1356,-1171
351,-556,-907,102,629,-732,-9,185,-292,-1073,-1385,-1200
146,-517,-663,185,405,-590,58,107,-419,-1112,-1385,-1200
-9,-478,-468,244,229,-473,136,117,-419,-1093,-1366,-1190
-78,-458,-380,268,151,-419,195,185,-351,-1024,-1317,-1171
-68,-419,-351,244,141,-385,253,302,-224,-907,-1229,-1122
-107,-370,-263,239,78,-317,331,448,-78,-780,-1132,-1054
-156,-341,-185,248,14,-263,409,595,78,-673,-1044,-985
-136,-322,-185,229,24,-253,468,732,224,-585,-976,-936
-117,-322,-204,219,43,-263,536,907,390,-478,-897,-897
-126,-341,-214,234,43,-278,614,1102,536,-370,-819,-858
-126,-351,-224,239,48,-287,673,1220,605,-322,-771,-839
-136,-331,-195,234,29,-263,692,1220,556,-302,-732,-829
-126,-292,-165,209,19,-229,712,1180,478,-292,-702,-790
-117,-263,-146,190,14,-204,722,1141,429,-292,-663,-722
-136,-253,-117,195,-9,-185,741,1063,322,-331,-644,-673
-126,-244,-117,185,-4,-180,741,946,185,-409,-653,-644
-146,-253,-107,200,-19,-180,712,839,39,-488,-673,-634
-185,-283,-97,234,-43,-190,683,692,-117,-566,-663,-614
-165,-273,-107,219,-29,-190,653,556,-234,-605,-653,-595
-156,-273,-117,214,-19,-195,653,488,-263,-595,-634,-585
-165,-292,-126,229,-19,-209,634,458,-273,-575,-614,-575
-165,-292,-126,229,-19,-209,595,361,-312,-566,-595,-546
-165,-253,-87,209,-39,-170,536,224,-351,-536,-546,-527
-146,-185,-39,165,-53,-112,468,97,-361,-497,-488,-468
-117,-126,-9,122,-53,-68,400,-9,-361,-448,-429,-409
-87,-107,-19,97,-34,-63,331,-87,-361,-400,-361,-361
-68,-58,9,63,-39,-24,244,-146,-341,-341,-292,-302
-48,9,58,19,-53,34,136,-195,-331,-302,-234,-234
-19,48,68,-14,-43,58,29,-234,-331,-273,-204,-195
58,78,19,-68,19,48,-29,-224,-292,-263,-195,-185
97,87,-9,-92,53,39,-48,-214,-263,-244,-204,-195
78,87,9,-82,34,48,-68,-204,-234,-214,-175,-185
97,117,19,-107,39,68,-78,-195,-204,-175,-136,-156
87,126,39,-107,24,82,-78,-185,-195,-165,-107,-146
73,122,48,-97,12,85,-92,-200,-204,-165,-107,-141
68,117,48,-92,9,82,-97,-204,-214,-165,-107,-136
63,112,48,-87,7,80,-102,-209,-224,-165,-107,-131
58,107,48,-82,4,78,-107,-214,-234,-165,-107,-126
78,117,39,-97,19,78,-112,-224,-219,-151,-92,-117
87,117,29,-102,29,73,-117,-224,-214,-146,-87,-107
97,117,19,-107,39,68,-122,-224,-209,-141,-82,-97
107,117,9,-112,48,63,-126,-224,-204,-136,-78,-87
92,112,19,-102,36,65,-117,-214,-204,-122,-68,-82
87,107,19,-97,34,63,-117,-214,-204,-117,-58,-78
82,102,19,-92,31,61,-117,-214,-204,-112,-48,-73
78,97,19,-87,29,58,-117,-214,-204,-107,-39,-68
87,112,24,-100,31,68,-122,-219,-195,-97,-39,-68
87,117,29,-102,29,73,-126,-224,-195,-97,-39,-68
87,122,34,-104,26,78,-131,-229,-195,-97,-39,-68
87,126,39,-107,24,82,-136,-234,-195,-97,-39,-68
78,131,53,-104,12,92,-146,-244,-204,-87,-34,-63
78,136,58,-107,9,97,-146,-244,-204,-87,-29,-58
78,141,63,-109,7,102,-146,-244,-204,-87,-24,-53
78,146,68,-112,4,107,-146,-244,-204,-87,-19,-48
78,156,78,-117,0,117,-146,-234,-200,-78,-14,-43
78,156,78,-117,0,117,-146,-234,-195,-78,-9,-39
78,156,78,-117,0,117,-146,-234,-190,-78,-4,-34
78,156,78,-117,0,117,-146,-234,-185,-78,0,-29
73,161,87,-117,-7,124,-136,-234,-175,-68,9,-19
68,165,97,-117,-14,131,-136,-234,-175,-58,19,-9
63,170,107,-117,-21,139,-136,-234,-175,-48,29,0
58,175,117,-117,-29,146,-136,-234,-175,-39,39,9
53,185,131,-119,-39,158,-141,-244,-175,-29,43,19
48,185,136,-117,-43,161,-146,-244,-175,-29,48,19
43,185,141,-114,-48,163,-151,-244,-175,-29,53,19
39,185,146,-112,-53,165,-156,-244,-175,-29,58,19
29,190,161,-109,-65,175,-146,-244,-165,-24,73,24
29,195,165,-112,-68,180,-146,-244,-165,-19,78,29
29,200,170,-114,-70,185,-146,-244,-165,-14,82,34
29,204,175,-117,-73,190,-146,-244,-165,-9,87,39
39,219,180,-129,-70,200,-156,-244,-161,0,107,63
39,224,185,-131,-73,204,-156,-244,-156,9,117,78
39,229,190,-134,-75,209,-156,-244,-151,19,126,92
39,234,195,-136,-78,214,-156,-244,-146,29,136,107
39,244,204,-141,-82,224,-146,-244,-136,39,146,126
39,244,204,-141,-82,224,-146,-244,-136,48,156,136
39,244,204,-141,-82,224,-146,-244,-136,58,165,146
39,244,204,-141,-82,224,-146,-244,-136,68,175,156
39,263,224,-151,-92,244,-161,-258,-136,82,185,170
39,273,234,-156,-97,253,-165,-263,-136,87,195,175
39,283,244,-161,-102,263,-170,-268,-136,92,204,180
39,292,253,-165,-107,273,-175,-273,-136,97,214,185
29,297,268,-163,-119,283,-175,-273,-131,107,239,200
29,302,273,-165,-122,287,-175,-273,-126,117,253,214
29,307,278,-168,-124,292,-175,-273,-122,126,268,229
29,312,283,-170,-126,297,-175,-273,-117,136,283,244
19,312,292,-165,-136,302,-185,-283,-112,156,297,263
19,312,292,-165,-136,302,-185,-283,-107,165,312,273
19,312,292,-165,-136,302,-185,-283,-102,175,326,283
19,312,292,-165,-136,302,-185,-283,-97,185,341,292
29,331,302,-180,-136,317,-190,-283,-82,200,370,322
29,341,312,-185,-141,326,-195,-283,-78,214,390,341
29,351,322,-190,-146,336,-200,-283,-73,229,409,361
29,361,331,-195,-151,346,-204,-283,-68,244,429,380
24,375,351,-200,-163,363,-214,-292,-53,268,453,409
19,390,370,-204,-175,380,-214,-292,-48,283,478,429
14,405,390,-209,-187,397,-214,-292,-43,297,502,448
9,419,409,-214,-200,414,-214,-292,-39,312,527,468
14,434,419,-224,-202,427,-229,-292,-24,336,546,488
19,448,429,-234,-204,439,-234,-292,-19,351,566,497
24,463,439,-244,-207,451,-239,-292,-14,366,585,507
29,478,448,-253,-209,463,-244,-292,-9,380,605,517
29,492,463,-261,-217,478,-244,-287,4,405,624,536
29,497,468,-263,-219,483,-244,-283,19,419,644,556
29,502,473,-265,-222,488,-244,-278,34,434,663,575
29,507,478,-268,-224,492,-244,-273,48,448,683,595
29,517,488,-273,-229,502,-239,-263,68,463,697,610
29,517,488,-273,-229,502,-234,-253,78,478,712,624
29,517,488,-273,-229,502,-229,-244,87,492,727,639
29,517,488,-273,-229,502,-224,-234,97,507,741,653
29,531,502,-280,-236,517,-224,-224,122,522,751,668
29,536,507,-283,-239,522,-224,-214,136,536,761,673
29,541,512,-285,-241,527,-224,-204,151,551,771,678
29,546,517,-287,-244,531,-224,-195,165,566,780,683
43,541,497,-292,-226,519,-219,-180,180,575,766,663
48,536,488,-292,-219,512,-214,-165,195,575,761,653
53,531,478,-292,-212,505,-209,-151,209,575,756,644
58,527,468,-292,-204,497,-204,-136,224,575,751,634
48,507,458,-278,-204,483,-195,-117,239,575,741,624
48,497,448,-273,-200,473,-185,-97,253,575,732,614
48,488,439,-268,-195,463,-175,-78,268,575,722,605
48,478,429,-263,-190,453,-165,-58,283,575,712,595
39,463,424,-251,-192,444,-161,-39,292,556,688,566
39,458,419,-248,-190,439,-156,-29,292,546,663,546
39,453,414,-246,-187,434,-151,-19,292,536,639,527
39,448,409,-244,-185,429,-146,-9,292,527,614,507
39,439,400,-239,-180,419,-131,0,283,507,580,473
39,429,390,-234,-175,409,-126,9,283,488,556,448
39,419,380,-229,-170,400,-122,19,283,468,531,424
39,409,370,-224,-165,390,-117,29,283,448,507,400
24,390,366,-207,-170,378,-112,48,278,419,478,366
19,380,361,-200,-170,370,-107,58,273,400,448,341
14,370,356,-192,-170,363,-102,68,268,380,419,317
9,361,351,-185,-170,356,-97,78,263,361,390,292
19,346,326,-183,-153,336,-82,87,248,336,366,273
19,341,322,-180,-151,331,-78,87,244,322,341,253
19,336,317,-178,-148,326,-73,87,239,307,317,234
19,331,312,-175,-146,322,-68,87,234,292,292,214
9,312,302,-161,-146,307,-58,87,224,263,258,190
9,302,292,-156,-141,297,-58,87,214,244,234,165
9,292,283,-151,-136,287,-58,87,204,224,209,141
9,283,273,-146,-131,278,-58,87,195,204,185,117
0,268,268,-134,-134,268,-53,82,180,190,170,97
-9,253,263,-122,-136,258,-48,78,165,175,156,87
-19,239,258,-109,-139,248,-43,73,151,161,141,78
-29,224,253,-97,-141,239,-39,68,136,146,126,68
-29,214,244,-92,-136,229,-34,58,126,126,117,53
-29,204,234,-87,-131,219,-29,58,117,117,107,48
-29,195,224,-82,-126,209,-24,58,107,107,97,43
-29,185,214,-78,-122,200,-19,58,97,97,87,39
-48,165,214,-58,-131,190,-9,43,87,87,78,24
-58,156,214,-48,-136,185,-9,39,78,78,68,19
-68,146,214,-39,-141,180,-9,34,68,68,58,14
-78,136,214,-29,-146,175,-9,29,58,58,48,9
-68,126,195,-29,-131,161,-14,24,48,48,39,-4
-58,126,185,-34,-122,156,-19,19,39,39,29,-9
-48,126,175,-39,-112,151,-24,14,29,29,19,-14
-39,126,165,-43,-102,146,-29,9,19,19,9,-19
-48,126,175,-39,-112,151,-29,0,4,4,4,-29
-48,126,175,-39,-112,151,-29,-9,0,0,0,-29
-48,126,175,-39,-112,151,-29,-19,-4,-4,-4,-29
-48,126,175,-39,-112,151,-29,-29,-9,-9,-9,-29
-48,136,185,-43,-117,161,-39,-34,-24,-14,-14,-39
-48,136,185,-43,-117,161,-39,-39,-29,-19,-19,-39
-48,136,185,-43,-117,161,-39,-43,-34,-24,-24,-39
-48,136,185,-43,-117,161,-39,-48,-39,-29,-29,-39
-58,126,185,-34,-122,156,-39,-58,-48,-29,-29,-48
-58,126,185,-34,-122,156,-39,-58,-48,-29,-29,-48
-58,126,185,-34,-122,156,-39,-58,-48,-29,-29,-48
-58,126,185,-34,-122,156,-39,-58,-48,-29,-29,-48
-58,126,185,-34,-122,156,-48,-68,-48,-39,-29,-48
-58,126,185,-34,-122,156,-48,-68,-48,-39,-29,-48
-58,126,185,-34,-122,156,-48,-68,-48,-39,-29,-48
-58,126,185,-34,-122,156,-48,-68,-48,-39,-29,-48
-58,126,185,-34,-122,156,-48,-78,-53,-39,-39,-48
-58,126,185,-34,-122,156,-48,-78,-58,-39,-39,-48
-58,126,185,-34,-122,156,-48,-78,-63,-39,-39,-48
-58,126,185,-34,-122,156,-48,-78,-68,-39,-39,-48
-53,136,190,-41,-122,163,-48,-78,-68,-39,-29,-48
-48,136,185,-43,-117,161,-48,-78,-68,-39,-29,-48
-43,136,180,-46,-112,158,-48,-78,-68,-39,-29,-48
-39,136,175,-48,-107,156,-48,-78,-68,-39,-29,-48
-29,136,165,-53,-97,151,-58,-87,-78,-48,-39,-58
-29,136,165,-53,-97,151,-58,-87,-78,-48,-39,-58
-29,136,165,-53,-97,151,-58,-87,-78,-48,-39,-58
-29,136,165,-53,-97,151,-58,-87,-78,-48,-39,-58
-29,136,165,-53,-97,151,-58,-87,-87,-48,-29,-48
-29,136,165,-53,-97,151,-58,-87,-87,-48,-29,-48
-29,136,165,-53,-97,151,-58,-87,-87,-48,-29,-48
-29,136,165,-53,-97,151,-58,-87,-87,-48,-29,-48
-24,151,175,-63,-100,163,-63,-102,-92,-53,-34,-53
-19,156,175,-68,-97,165,-68,-107,-97,-58,-39,-58
-14,161,175,-73,-95,168,-73,-112,-102,-63,-43,-63
-9,165,175,-78,-92,170,-78,-117,-107,-68,-48,-68
0,165,165,-82,-82,165,-78,-117,-97,-68,-48,-78
0,165,165,-82,-82,165,-78,-117,-97,-68,-48,-78
0,165,165,-82,-82,165,-78,-117,-97,-68,-48,-78
0,165,165,-82,-82,165,-78,-117,-97,-68,-48,-78
4,165,161,-85,-78,163,-78,-107,-107,-68,-48,-68
9,165,156,-87,-73,161,-78,-107,-107,-68,-48,-68
14,165,151,-90,-68,158,-78,-107,-107,-68,-48,-68
19,165,146,-92,-63,156,-78,-107,-107,-68,-48,-68
24,161,136,-92,-56,148,-78,-117,-102,-58,-39,-63
29,156,126,-92,-48,141,-78,-117,-97,-58,-39,-58
34,151,117,-92,-41,134,-78,-117,-92,-58,-39,-53
39,146,107,-92,-34,126,-78,-117,-87,-58,-39,-48
9,136,126,-73,-58,131,-68,-107,-78,-39,-29,-48
19,146,126,-82,-53,136,-68,-97,-78,-39,-29,-48
39,146,107,-92,-34,126,-78,-107,-87,-58,-39,-58
29,146,117,-87,-43,131,-78,-107,-87,-68,-39,-58
29,146,117,-87,-43,131,-78,-107,-87,-68,-39,-58
29,146,117,-87,-43,131,-78,-107,-87,-68,-39,-58
29,146,117,-87,-43,131,-78,-107,-87,-68,-39,-58
24,156,131,-90,-53,143,-78,-107,-87,-58,-39,-58
19,156,136,-87,-58,146,-78,-107,-87,-58,-39,-58
14,156,141,-85,-63,148,-78,-107,-87,-58,-39,-58
9,156,146,-82,-68,151,-78,-107,-87,-58,-39,-58
19,170,151,-95,-65,161,-78,-107,-87,-58,-39,-68
19,175,156,-97,-68,165,-78,-107,-87,-58,-39,-68
19,180,161,-100,-70,170,-78,-107,-87,-58,-39,-68
19,185,165,-102,-73,175,-78,-107,-87,-58,-39,-68
19,175,156,-97,-68,165,-78,-97,-78,-48,-39,-58
19,175,156,-97,-68,165,-78,-97,-78,-48,-39,-58
19,175,156,-97,-68,165,-78,-97,-78,-48,-39,-58
19,175,156,-97,-68,165,-78,-97,-78,-48,-39,-58
4,170,165,-87,-80,168,-68,-97,-87,-58,-39,-68
0,165,165,-82,-82,165,-68,-97,-87,-58,-39,-68
-4,161,165,-78,-85,163,-68,-97,-87,-58,-39,-68
-9,156,165,-73,-87,161,-68,-97,-87,-58,-39,-68
-4,146,151,-70,-78,148,-68,-97,-87,-48,-39,-68
0,146,146,-73,-73,146,-68,-97,-87,-48,-39,-68
4,146,141,-75,-68,143,-68,-97,-87,-48,-39,-68
9,146,136,-78,-63,141,-68,-97,-87,-48,-39,-68
-9,136,146,-63,-78,141,-68,-97,-87,-58,-48,-58
-19,136,156,-58,-87,146,-68,-97,-87,-58,-48,-58
-29,136,165,-53,-97,151,-68,-97,-87,-58,-48,-58
-39,136,175,-48,-107,156,-68,-97,-87,-58,-48,-58
-39,141,180,-51,-109,161,-58,-97,-87,-48,-48,-58
-39,146,185,-53,-112,165,-58,-97,-87,-48,-48,-58
-39,151,190,-56,-114,170,-58,-97,-87,-48,-48,-58
-39,156,195,-58,-117,175,-58,-97,-87,-48,-48,-58
-29,156,185,-63,-107,170,-58,-87,-78,-48,-39,-58
-29,156,185,-63,-107,170,-58,-87,-78,-48,-39,-58
-29,156,185,-63,-107,170,-58,-87,-78,-48,-39,-58
-29,156,185,-63,-107,170,-58,-87,-78,-48,-39,-58
-34,151,185,-58,-109,168,-58,-87,-78,-48,-39,-58
-39,146,185,-53,-112,165,-58,-87,-78,-48,-39,-58
-43,141,185,-48,-114,163,-58,-87,-78,-48,-39,-58
-48,136,185,-43,-117,161,-58,-87,-78,-48,-39,-58
-39,141,180,-51,-109,161,-58,-87,-78,-48,-39,-48
-39,146,185,-53,-112,165,-58,-87,-78,-48,-39,-48
-39,151,190,-56,-114,170,-58,-87,-78,-48,-39,-48
-39,156,195,-58,-117,175,-58,-87,-78,-48,-39,-48
-43,146,190,-51,-117,168,-58,-97,-82,-58,-48,-58
-48,146,195,-48,-122,170,-58,-97,-87,-58,-48,-58
-53,146,200,-46,-126,173,-58,-97,-92,-58,-48,-58
-58,146,204,-43,-131,175,-58,-97,-97,-58,-48,-58
-58,151,209,-46,-134,180,-58,-97,-97,-48,-48,-58
-58,156,214,-48,-136,185,-58,-97,-97,-48,-48,-58
-58,161,219,-51,-139,190,-58,-97,-97,-48,-48,-58
-58,165,224,-53,-141,195,-58,-97,-97,-48,-48,-58
-58,161,219,-51,-139,190,-68,-87,-87,-48,-48,-68
-58,156,214,-48,-136,185,-68,-87,-87,-48,-48,-68
-58,151,209,-46,-134,180,-68,-87,-87,-48,-48,-68
-58,146,204,-43,-131,175,-68,-87,-87,-48,-48,-68
-58,146,204,-43,-131,175,-63,-87,-87,-48,-48,-63
-58,146,204,-43,-131,175,-58,-87,-87,-48,-48,-58
-58,146,204,-43,-131,175,-53,-87,-87,-48,-48,-53
-58,146,204,-43,-131,175,-48,-87,-87,-48,-48,-48
-68,136,204,-34,-136,170,-48,-78,-87,-48,-39,-48
-68,136,204,-34,-136,170,-48,-78,-87,-48,-39,-48
-68,136,204,-34,-136,170,-48,-78,-87,-48,-39,-48
-68,136,204,-34,-136,170,-48,-78,-87,-48,-39,-48
-58,131,190,-36,-124,161,-58,-87,-97,-58,-48,-48
-58,126,185,-34,-122,156,-58,-87,-97,-58,-48,-48
-58,122,180,-31,-119,151,-58,-87,-97,-58,-48,-48
-58,117,175,-29,-117,146,-58,-87,-97,-58,-48,-48
-48,117,165,-34,-107,141,-58,-87,-107,-58,-48,-58
-48,117,165,-34,-107,141,-58,-87,-107,-58,-48,-58
-48,117,165,-34,-107,141,-58,-87,-107,-58,-48,-58
-48,117,165,-34,-107,141,-58,-87,-107,-58,-48,-58
-48,122,170,-36,-109,146,-68,-97,-97,-58,-48,-68
-48,126,175,-39,-112,151,-68,-97,-97,-58,-48,-68
-48,131,180,-41,-114,156,-68,-97,-97,-58,-48,-68
-48,136,185,-43,-117,161,-68,-97,-97,-58,-48,-68
-39,117,156,-39,-97,136,-58,-82,-82,-43,-43,-53
-39,97,136,-29,-87,117,-48,-78,-78,-39,-39,-48
-39,78,117,-19,-78,97,-39,-73,-73,-34,-34,-43
-39,58,97,-9,-68,78,-29,-68,-68,-29,-29,-39
-48,48,97,0,-73,73,-19,-63,-58,-19,-24,-34
-48,48,97,0,-73,73,-19,-58,-58,-19,-19,-29
-48,48,97,0,-73,73,-19,-53,-58,-19,-14,-24
-48,48,97,0,-73,73,-19,-48,-58,-19,-9,-19
-43,48,92,-2,-68,70,-19,-58,-58,-19,-9,-29
-39,48,87,-4,-63,68,-19,-58,-58,-19,-9,-29
-34,48,82,-7,-58,65,-19,-58,-58,-19,-9,-29
-29,48,78,-9,-53,63,-19,-58,-58,-19,-9,-29
-29,43,73,-7,-51,58,-29,-58,-68,-29,-9,-19
-29,39,68,-4,-48,53,-29,-58,-68,-29,-9,-19
-29,34,63,-2,-46,48,-29,-58,-68,-29,-9,-19
-29,29,58,0,-43,43,-29,-58,-68,-29,-9,-19
-29,29,58,0,-43,43,-19,-58,-58,-19,-9,-9
-29,29,58,0,-43,43,-19,-58,-58,-19,-9,-9
-29,29,58,0,-43,43,-19,-58,-58,-19,-9,-9
-29,29,58,0,-43,43,-19,-58,-58,-19,-9,-9
-34,19,53,7,-43,36,-19,-58,-68,-29,-19,-14
-39,19,58,9,-48,39,-19,-58,-68,-29,-19,-19
-43,19,63,12,-53,41,-19,-58,-68,-29,-19,-24
-48,19,68,14,-58,43,-19,-58,-68,-29,-19,-29
-48,14,63,17,-56,39,-19,-48,-58,-19,-9,-19
-48,9,58,19,-53,34,-19,-48,-58,-19,-9,-19
-48,4,53,21,-51,29,-19,-48,-58,-19,-9,-19
-48,0,48,24,-48,24,-19,-48,-58,-19,-9,-19
-48,0,48,24,-48,24,-19,-48,-58,-9,-9,-19
-48,0,48,24,-48,24,-19,-48,-58,-9,-9,-19
-48,0,48,24,-48,24,-19,-48,-58,-9,-9,-19
-48,0,48,24,-48,24,-19,-48,-58,-9,-9,-19
-39,0,39,19,-39,19,-19,-48,-58,-19,-9,-19
-39,0,39,19,-39,19,-19,-48,-58,-19,-9,-19
-39,0,39,19,-39,19,-19,-48,-58,-19,-9,-19
-39,0,39,19,-39,19,-19,-48,-58,-19,-9,-19
-34,9,43,12,-39,26,-19,-48,-58,-19,-9,-19
-29,9,39,9,-34,24,-19,-48,-58,-19,-9,-19
-24,9,34,7,-29,21,-19,-48,-58,-19,-9,-19
-19,9,29,4,-24,19,-19,-48,-58,-19,-9,-19
-19,19,39,0,-29,29,-19,-48,-48,-19,0,-9
-19,19,39,0,-29,29,-19,-48,-48,-19,0,-9
-19,19,39,0,-29,29,-19,-48,-48,-19,0,-9
-19,19,39,0,-29,29,-19,-48,-48,-19,0,-9
-29,14,43,7,-36,29,-19,-39,-48,-19,0,-19
-29,9,39,9,-34,24,-19,-39,-48,-19,0,-19
-29,4,34,12,-31,19,-19,-39,-48,-19,0,-19
-29,0,29,14,-29,14,-19,-39,-48,-19,0,-19
-29,0,29,14,-29,14,-19,-39,-48,-19,0,-9
-29,0,29,14,-29,14,-19,-39,-48,-19,0,-9
-29,0,29,14,-29,14,-19,-39,-48,-19,0,-9
-29,0,29,14,-29,14,-19,-39,-48,-19,0,-9
-19,9,29,4,-24,19,-9,-39,-48,-9,0,-9
-19,9,29,4,-24,19,-9,-39,-48,-9,0,-9
-19,9,29,4,-24,19,-9,-39,-48,-9,0,-9
-19,9,29,4,-24,19,-9,-39,-48,-9,0,-9
-19,19,39,0,-29,29,-19,-39,-48,-19,0,-9
-19,19,39,0,-29,29,-19,-39,-48,-19,0,-9
-19,19,39,0,-29,29,-19,-39,-48,-19,0,-9
-19,19,39,0,-29,29,-19,-39,-48,-19,0,-9
-29,29,58,0,-43,43,-19,-48,-48,-9,0,-9
-29,29,58,0,-43,43,-19,-48,-48,-9,0,-9
-29,29,58,0,-43,43,-19,-48,-48,-9,0,-9
-29,29,58,0,-43,43,-19,-48,-48,-9,0,-9
-29,39,68,-4,-48,53,-29,-58,-53,-19,0,-19
-29,39,68,-4,-48,53,-29,-58,-58,-19,0,-19
-29,39,68,-4,-48,53,-29,-58,-63,-19,0,-19
-29,39,68,-4,-48,53,-29,-58,-68,-19,0,-19
-29,48,78,-9,-53,63,-29,-48,-58,-19,-9,-29
-29,48,78,-9,-53,63,-29,-48,-58,-19,-9,-29
-29,48,78,-9,-53,63,-29,-48,-58,-19,-9,-29
-29,48,78,-9,-53,63,-29,-48,-58,-19,-9,-29
-39,58,97,-9,-68,78,-29,-48,-58,-19,0,-19
-39,58,97,-9,-68,78,-29,-48,-58,-19,0,-19
-39,58,97,-9,-68,78,-29,-48,-58,-19,0,-19
-39,58,97,-9,-68,78,-29,-48,-58,-19,0,-19
-34,58,92,-12,-63,75,-29,-39,-58,-9,0,-19
-29,58,87,-14,-58,73,-29,-39,-58,-9,0,-19
-24,58,82,-17,-53,70,-29,-39,-58,-9,0,-19
-19,58,78,-19,-48,68,-29,-39,-58,-9,0,-19
-19,63,82,-21,-51,73,-19,-39,-48,-9,0,-14
-19,68,87,-24,-53,78,-19,-39,-48,-9,0,-9
-19,73,92,-26,-56,82,-19,-39,-48,-9,0,-4
-19,78,97,-29,-58,87,-19,-39,-48,-9,0,0
-19,78,97,-29,-58,87,-29,-48,-58,-19,0,-9
-19,78,97,-29,-58,87,-29,-48,-58,-19,0,-9
-19,78,97,-29,-58,87,-29,-48,-58,-19,0,-9
-19,78,97,-29,-58,87,-29,-48,-58,-19,0,-9
-29,87,117,-29,-73,102,-29,-48,-58,-9,-9,-19
-29,87,117,-29,-73,102,-29,-48,-58,-9,-9,-19
-29,87,117,-29,-73,102,-29,-48,-58,-9,-9,-19
-29,87,117,-29,-73,102,-29,-48,-58,-9,-9,-19
-29,82,112,-26,-70,97,-19,-48,-58,-9,0,-9
-29,78,107,-24,-68,92,-19,-48,-58,-9,0,-9
-29,73,102,-21,-65,87,-19,-48,-58,-9,0,-9
-29,68,97,-19,-63,82,-19,-48,-58,-9,0,-9
-39,68,107,-14,-73,87,-29,-48,-68,-9,0,-9
-39,68,107,-14,-73,87,-29,-48,-68,-9,0,-9
-39,68,107,-14,-73,87,-29,-48,-68,-9,0,-9
-39,68,107,-14,-73,87,-29,-48,-68,-9,0,-9
-29,68,97,-19,-63,82,-29,-58,-68,-19,-9,-19
-29,68,97,-19,-63,82,-29,-58,-68,-19,-9,-19
-29,68,97,-19,-63,82,-29,-58,-68,-19,-9,-19
-29,68,97,-19,-63,82,-29,-58,-68,-19,-9,-19
-39,78,117,-19,-78,97,-29,-48,-68,-9,0,-19
-39,78,117,-19,-78,97,-29,-48,-68,-9,0,-19
-39,78,117,-19,-78,97,-29,-48,-68,-9,0,-19
-39,78,117,-19,-78,97,-29,-48,-68,-9,0,-19
-39,78,117,-19,-78,97,-19,-39,-58,-9,-9,-19
-39,78,117,-19,-78,97,-19,-39,-58,-9,-9,-19
-39,78,117,-19,-78,97,-19,-39,-58,-9,-9,-19
-39,78,117,-19,-78,97,-19,-39,-58,-9,-9,-19
-34,87,122,-26,-78,104,-19,-48,-68,-9,0,-9
-29,87,117,-29,-73,102,-19,-48,-68,-9,0,-9
-24,87,112,-31,-68,100,-19,-48,-68,-9,0,-9
-19,87,107,-34,-63,97,-19,-48,-68,-9,0,-9
-24,87,112,-31,-68,100,-29,-48,-68,-9,0,-19
-29,87,117,-29,-73,102,-29,-48,-68,-9,0,-19
-34,87,122,-26,-78,104,-29,-48,-68,-9,0,-19
-39,87,126,-24,-82,107,-29,-48,-68,-9,0,-19
-34,97,131,-31,-82,114,-39,-58,-68,-19,-9,-19
-29,97,126,-34,-78,112,-39,-58,-68,-19,-9,-19
-24,97,122,-36,-73,109,-39,-58,-68,-19,-9,-19
-19,97,117,-39,-68,107,-39,-58,-68,-19,-9,-19
-24,92,117,-34,-70,104,-39,-48,-68,-19,-9,-19
-29,87,117,-29,-73,102,-39,-48,-68,-19,-9,-19
-34,82,117,-24,-75,100,-39,-48,-68,-19,-9,-19
-39,78,117,-19,-78,97,-39,-48,-68,-19,-9,-19
-39,82,122,-21,-80,102,-48,-58,-78,-29,-19,-29
-39,87,126,-24,-82,107,-48,-58,-78,-29,-19,-29
-39,92,131,-26,-85,112,-48,-58,-78,-29,-19,-29
-39,97,136,-29,-87,117,-48,-58,-78,-29,-19,-29
-29,102,131,-36,-80,117,-39,-58,-78,-19,-9,-19
-29,107,136,-39,-82,122,-39,-58,-78,-19,-9,-19
-29,112,141,-41,-85,126,-39,-58,-78,-19,-9,-19
-29,117,146,-43,-87,131,-39,-58,-78,-19,-9,-19
-24,126,151,-51,-87,139,-48,-68,-78,-24,-19,-29
-19,126,146,-53,-82,136,-48,-68,-78,-29,-19,-29
-14,126,141,-56,-78,134,-48,-68,-78,-34,-19,-29
-9,126,136,-58,-73,131,-48,-68,-78,-39,-19,-29
-14,126,141,-56,-78,134,-48,-58,-78,-34,-9,-19
-19,126,146,-53,-82,136,-48,-58,-78,-29,-9,-19
-24,126,151,-51,-87,139,-48,-58,-78,-24,-9,-19
-29,126,156,-48,-92,141,-48,-58,-78,-19,-9,-19
-19,122,141,-51,-80,131,-39,-68,-78,-19,-19,-9
-19,117,136,-48,-78,126,-39,-68,-78,-19,-19,-9
-19,112,131,-46,-75,122,-39,-68,-78,-19,-19,-9
-19,107,126,-43,-73,117,-39,-68,-78,-19,-19,-9
-9,117,126,-53,-68,122,-48,-68,-78,-19,-9,-19
-9,117,126,-53,-68,122,-48,-68,-78,-19,-9,-19
-9,117,126,-53,-68,122,-48,-68,-78,-19,-9,-19
-9,117,126,-53,-68,122,-48,-68,-78,-19,-9,-19
-14,117,131,-51,-73,124,-39,-58,-68,-19,-9,-9
-19,117,136,-48,-78,126,-39,-58,-68,-19,-9,-9
-24,117,141,-46,-82,129,-39,-58,-68,-19,-9,-9
-29,117,146,-43,-87,131,-39,-58,-68,-19,-9,-9
-14,131,146,-58,-80,139,-43,-68,-73,-29,-19,-19
-9,136,146,-63,-78,141,-48,-68,-78,-29,-19,-19
-4,141,146,-68,-75,143,-53,-68,-82,-29,-19,-19
0,146,146,-73,-73,146,-58,-68,-87,-29,-19,-19
-9,146,156,-68,-82,151,-58,-73,-87,-29,-29,-29
-9,146,156,-68,-82,151,-58,-78,-87,-29,-29,-29
-9,146,156,-68,-82,151,-58,-82,-87,-29,-29,-29
-9,146,156,-68,-82,151,-58,-87,-87,-29,-29,-29
-9,156,165,-73,-87,161,-58,-78,-97,-29,-19,-29
-9,156,165,-73,-87,161,-58,-78,-97,-29,-19,-29
-9,156,165,-73,-87,161,-58,-78,-97,-29,-19,-29
-9,156,165,-73,-87,161,-58,-78,-97,-29,-19,-29
-19,156,175,-68,-97,165,-68,-87,-97,-39,-24,-29
-19,156,175,-68,-97,165,-68,-87,-97,-39,-29,-29
-19,156,175,-68,-97,165,-68,-87,-97,-39,-34,-29
-19,156,175,-68,-97,165,-68,-87,-97,-39,-39,-29
-19,165,185,-73,-102,175,-68,-87,-97,-48,-39,-39
-19,165,185,-73,-102,175,-68,-87,-97,-48,-39,-39
-19,165,185,-73,-102,175,-68,-87,-97,-48,-39,-39
-19,165,185,-73,-102,175,-68,-87,-97,-48,-39,-39
-19,161,180,-70,-100,170,-68,-87,-97,-48,-39,-39
-19,156,175,-68,-97,165,-68,-87,-97,-48,-39,-39
-19,151,170,-65,-95,161,-68,-87,-97,-48,-39,-39
-19,146,165,-63,-92,156,-68,-87,-97,-48,-39,-39
-9,146,156,-68,-82,151,-68,-87,-97,-48,-39,-39
-9,146,156,-68,-82,151,-68,-87,-97,-48,-39,-39
-9,146,156,-68,-82,151,-68,-87,-97,-48,-39,-39
-9,146,156,-68,-82,151,-68,-87,-97,-48,-39,-39
-14,146,161,-65,-87,153,-68,-87,-97,-48,-29,-29
-19,146,165,-63,-92,156,-68,-87,-97,-48,-29,-29
-24,146,170,-61,-97,158,-68,-87,-97,-48,-29,-29
-29,146,175,-58,-102,161,-68,-87,-97,-48,-29,-29
-19,146,165,-63,-92,156,-68,-97,-97,-48,-39,-39
-19,146,165,-63,-92,156,-68,-97,-97,-48,-39,-39
-19,146,165,-63,-92,156,-68,-97,-97,-48,-39,-39
-19,146,165,-63,-92,156,-68,-97,-97,-48,-39,-39
-29,161,190,-65,-109,175,-78,-87,-97,-58,-39,-39
-29,165,195,-68,-112,180,-78,-87,-97,-58,-39,-39
-29,170,200,-70,-114,185,-78,-87,-97,-58,-39,-39
-19,151,170,-65,-95,161,-68,-87,-97,-53,-34,-43
-39,146,185,-53,-112,165,-63,-97,-97,-53,-34,-43
-39,151,190,-56,-114,170,-63,-92,-97,-48,-34,-43
-29,165,195,-68,-112,180,-68,-92,-97,-48,-34,-39
-29,170,200,-70,-114,185,-68,-87,-92,-48,-34,-39
-24,175,200,-75,-112,187,-78,-92,-102,-48,-34,-29
-34,170,204,-68,-119,187,-78,-87,-102,-48,-39,-39
-43,156,200,-56,-122,178,-63,-87,-102,-48,-39,-43
-48,141,190,-46,-119,165,-63,-92,-102,-48,-43,-48
-39,151,190,-56,-114,170,-68,-102,-102,-53,-43,-39
-29,161,190,-65,-109,175,-68,-102,-102,-53,-43,-39
-29,175,204,-73,-117,190,-73,-92,-102,-53,-43,-39
-29,185,214,-78,-122,200,-78,-92,-102,-53,-53,-39
-34,165,200,-65,-117,183,-78,-102,-112,-63,-53,-58
-39,165,204,-63,-122,185,-78,-97,-112,-63,-48,-58
-48,165,214,-58,-131,190,-73,-97,-107,-63,-48,-58
-53,165,219,-56,-136,192,-73,-97,-107,-63,-48,-53
-48,161,209,-56,-129,185,-78,-97,-102,-63,-39,-43
-43,165,209,-61,-126,187,-78,-97,-102,-63,-39,-43
-34,175,209,-70,-122,192,-73,-97,-102,-58,-43,-43
-29,195,224,-82,-126,209,-73,-97,-102,-48,-43,-43
-29,190,219,-80,-124,204,-68,-92,-97,-34,-39,-34
-29,185,214,-78,-122,200,-63,-92,-92,-34,-34,-29
-29,180,209,-75,-119,195,-68,-92,-87,-34,-24,-24
-29,170,200,-70,-114,185,-63,-87,-82,-39,-19,-19
-19,185,204,-82,-112,195,-63,-92,-82,-29,-19,-29
-24,190,214,-82,-119,202,-63,-92,-82,-24,-19,-29
-29,195,224,-82,-126,209,-58,-87,-78,-24,-24,-29
-29,195,224,-82,-126,209,-58,-87,-78,-29,-29,-29
-43,195,239,-75,-141,217,-68,-97,-78,-29,-19,-24
-43,190,234,-73,-139,212,-68,-97,-78,-29,-19,-24
-43,190,234,-73,-139,212,-68,-97,-78,-29,-19,-24
-43,190,234,-73,-139,212,-68,-97,-78,-29,-14,-24
-43,195,239,-75,-141,217,-78,-97,-78,-19,-14,-19
-43,200,244,-78,-143,222,-78,-97,-78,-19,-14,-19
-53,204,258,-75,-156,231,-78,-102,-78,-19,-9,-19
-39,214,253,-87,-146,234,-78,-102,-78,-19,-9,-19
-34,229,263,-97,-148,246,-68,-102,-73,-19,-4,-19
-43,214,258,-85,-151,236,-68,-102,-73,-14,-4,-19
-43,214,258,-85,-151,236,-68,-102,-73,-14,-4,-19
-48,219,268,-85,-158,244,-68,-92,-68,-9,0,-19
-39,229,268,-95,-153,248,-58,-102,-78,-4,-4,-19
-43,234,278,-95,-161,256,-58,-102,-78,-4,-4,-19
-43,244,287,-100,-165,265,-58,-112,-82,-4,-4,-19
-39,253,292,-107,-165,273,-58,-112,-82,-9,-4,-19
-19,258,278,-119,-148,268,-73,-112,-82,-9,-4,-14
-19,263,283,-122,-151,273,-78,-112,-82,-9,-9,-14
-14,263,278,-124,-146,270,-82,-107,-82,-14,-9,-14
-14,253,268,-119,-141,261,-92,-107,-82,-19,-19,-24
0,244,244,-122,-122,244,-122,-107,-82,-14,-9,-19
29,258,229,-143,-100,244,-122,-102,-82,-19,-14,-9
19,234,214,-126,-97,224,-131,-112,-87,-34,-19,-19
39,224,185,-131,-73,204,-141,-112,-97,-39,-34,-29
48,244,195,-146,-73,219,-141,-112,-107,-43,-34,-39
48,229,180,-139,-65,204,-131,-97,-87,-43,-43,-39
78,244,165,-161,-43,204,-146,-82,-68,-29,-34,-29
97,234,136,-165,-19,185,-165,-82,-48,-24,-34,-39
78,214,136,-146,-29,175,-180,-78,-29,-14,-24,-48
102,229,126,-165,-12,178,-175,-39,24,24,4,-24
122,244,122,-183,0,183,-165,-4,78,63,29,0
131,234,102,-183,14,168,-151,43,126,112,63,9
151,234,82,-192,34,158,-151,82,190,175,112,29
161,229,68,-195,46,148,-146,112,253,239,146,39
219,244,24,-231,97,134,-141,161,331,307,190,58
283,253,-29,-268,156,112,-122,229,444,395,258,97
307,248,-58,-278,183,95,-112,292,551,497,351,161
366,292,-73,-329,219,109,-131,326,624,590,444,229
414,331,-82,-373,248,124,-151,326,673,678,541,307
463,361,-102,-412,283,129,-161,326,717,756,634,390
527,380,-146,-453,336,117,-180,351,775,849,741,492
541,375,-165,-458,353,104,-185,400,839,917,824,546
546,366,-180,-456,363,92,-175,448,883,936,854,575
566,375,-190,-470,378,92,-156,453,868,897,854,614
512,405,-107,-458,309,148,-131,419,810,878,858,653
356,444,87,-400,134,265,-73,370,751,863,878,712
175,517,341,-346,-82,429,14,331,697,854,893,756
58,585,527,-322,-234,556,53,307,697,897,956,810
14,692,678,-353,-331,685,68,297,746,1010,1102,932
-34,771,805,-368,-419,788,107,292,780,1107,1200,1034
-102,800,902,-348,-502,851,131,273,736,1127,1239,1083
-146,829,976,-341,-561,902,136,244,673,1102,1249,1117
-195,858,1054,-331,-624,956,151,234,600,995,1171,1107
-253,858,1112,-302,-683,985,185,244,483,795,956,1000
-278,844,1122,-283,-700,983,185,229,366,600,732,849
-317,819,1137,-251,-727,978,161,175,244,458,580,741
-351,800,1151,-224,-751,976,126,82,97,307,429,644
-356,810,1166,-226,-761,988,97,9,-39,146,263,536
-366,814,1180,-224,-773,997,73,-19,-102,53,131,448
-351,810,1161,-229,-756,985,58,-9,-131,-19,29,390
-312,810,1122,-248,-717,966,39,-29,-195,-151,-92,297
-312,810,1122,-248,-717,966,14,-34,-239,-248,-190,214
-287,814,1102,-263,-695,958,24,14,-209,-239,-219,131
-287,795,1083,-253,-685,939,68,131,-136,-209,-234,39
-336,736,1073,-200,-705,905,136,253,-107,-248,-297,-82
-370,673,1044,-151,-707,858,219,351,-117,-351,-424,-234
-395,619,1015,-112,-705,817,297,419,-112,-409,-536,-356
-405,595,1000,-95,-702,797,380,448,-87,-380,-561,-409
-414,600,1015,-92,-714,807,424,429,-97,-346,-570,-419
-424,580,1005,-78,-714,793,448,400,-141,-366,-575,-444
-439,575,1015,-68,-727,795,453,336,-204,-405,-595,-453
-453,610,1063,-78,-758,836,439,219,-283,-448,-595,-458
-492,649,1141,-78,-817,895,448,107,-361,-478,-610,-468
-488,673,1161,-92,-824,917,497,68,-385,-492,-614,-478
-497,673,1171,-87,-834,922,536,14,-419,-522,-639,-478
-551,653,1205,-51,-878,929,551,-97,-492,-566,-668,-488
-551,600,1151,-24,-851,875,570,-141,-551,-610,-697,-517
-517,517,1034,0,-775,775,600,-122,-570,-649,-707,-541
-517,424,941,46,-729,683,590,-131,-595,-688,-712,-546
-483,366,849,58,-666,607,546,-156,-600,-688,-683,-527
-439,326,766,56,-602,546,497,-165,-561,-653,-639,-512
-409,317,727,46,-568,522,439,-209,-546,-624,-605,-492
-361,307,668,26,-514,488,370,-287,-575,-610,-590,-468
-346,273,619,36,-483,446,297,-366,-595,-595,-575,-448
-312,253,566,29,-439,409,224,-419,-595,-556,-536,-429
-268,244,512,12,-390,378,165,-429,-556,-497,-488,-390
-263,209,473,26,-368,341,146,-400,-502,-448,-434,-361
-229,209,439,9,-334,324,117,-366,-468,-409,-395,-341
-190,219,409,-14,-300,314,68,-341,-434,-380,-361,-326
-185,219,405,-17,-295,312,39,-297,-395,-361,-326,-297
-161,219,380,-29,-270,300,19,-263,-366,-336,-317,-287
-131,219,351,-43,-241,285,-4,-234,-331,-302,-297,-273
-102,219,322,-58,-212,270,-9,-204,-278,-263,-268,-239
-87,204,292,-58,-190,248,-14,-175,-234,-209,-229,-209
-102,175,278,-36,-190,226,-34,-151,-204,-185,-200,-190
-92,175,268,-41,-180,222,-24,-141,-185,-165,-180,-180
-82,170,253,-43,-168,212,-29,-136,-195,-170,-180,-185
-73,170,244,-48,-158,207,-34,-136,-209,-180,-185,-190
-53,175,229,-61,-141,202,-43,-141,-209,-195,-190,-195
-34,180,214,-73,-124,197,-53,-141,-214,-200,-195,-200
-48,165,214,-58,-131,190,-58,-146,-214,-190,-204,-204
-53,165,219,-56,-136,192,-58,-151,-209,-185,-204,-195
-48,165,214,-58,-131,190,-58,-151,-200,-175,-195,-195
-43,161,204,-58,-124,183,-58,-146,-195,-170,-195,-195
-34,170,204,-68,-119,187,-53,-122,-170,-161,-185,-190
-34,165,200,-65,-117,183,-53,-117,-170,-161,-185,-185
-34,151,185,-58,-109,168,-53,-117,-185,-170,-180,-180
-14,161,175,-73,-95,168,-53,-126,-190,-175,-175,-175
-24,156,180,-65,-102,168,-53,-141,-180,-175,-185,-165
-43,146,190,-51,-117,168,-53,-141,-180,-175,-185,-170
-34,141,175,-53,-104,158,-58,-141,-180,-170,-180,-175
-34,131,165,-48,-100,148,-58,-141,-170,-170,-180,-175
-34,136,170,-51,-102,153,-58,-126,-165,-156,-170,-175
-24,136,161,-56,-92,148,-53,-126,-165,-156,-170,-175
-19,146,165,-63,-92,156,-53,-122,-170,-156,-175,-175
-19,136,156,-58,-87,146,-53,-122,-180,-161,-180,-170
-14,146,161,-65,-87,153,-73,-131,-190,-175,-190,-180
-14,151,165,-68,-90,158,-73,-131,-190,-175,-190,-180
-24,156,180,-65,-102,168,-68,-126,-190,-175,-190,-185
-24,165,190,-70,-107,178,-68,-126,-185,-170,-190,-185
-34,175,209,-70,-122,192,-82,-131,-180,-170,-185,-195
-34,180,214,-73,-124,197,-82,-131,-180,-170,-185,-195
-29,185,214,-78,-122,200,-87,-131,-185,-175,-190,-200
-14,185,200,-85,-107,192,-92,-136,-190,-190,-200,-200
-4,195,200,-95,-102,197,-92,-141,-195,-180,-200,-200
-9,200,209,-95,-109,204,-92,-141,-195,-180,-200,-200
-14,204,219,-95,-117,212,-92,-141,-195,-180,-200,-200
-14,209,224,-97,-119,217,-92,-141,-190,-180,-200,-195
-4,219,224,-107,-114,222,-92,-146,-190,-180,-200,-195
4,219,214,-112,-104,217,-92,-146,-190,-180,-200,-200
9,224,214,-117,-102,219,-102,-146,-190,-180,-200,-200
19,229,209,-124,-95,219,-92,-141,-190,-185,-200,-195
19,219,200,-119,-90,209,-92,-141,-185,-190,-200,-200
0,219,219,-109,-109,219,-97,-141,-190,-190,-209,-209
-14,209,224,-97,-119,217,-97,-141,-190,-190,-209,-214
-4,209,214,-102,-109,212,-97,-136,-185,-185,-200,-214
-14,200,214,-92,-114,207,-97,-136,-185,-195,-204,-204
-14,190,204,-87,-109,197,-97,-136,-180,-190,-204,-204
-19,185,204,-82,-112,195,-97,-136,-180,-190,-204,-209
-24,170,195,-73,-109,183,-97,-141,-180,-195,-209,-209
-9,175,185,-82,-97,180,-97,-131,-185,-195,-214,-214
-4,180,185,-87,-95,183,-97,-126,-185,-200,-214,-214
-4,180,185,-87,-95,183,-97,-126,-185,-200,-214,-214
-14,175,190,-80,-102,183,-97,-126,-185,-200,-209,-214
-24,175,200,-75,-112,187,-107,-136,-185,-190,-219,-214
-24,175,200,-75,-112,187,-107,-131,-185,-190,-214,-219
-4,180,185,-87,-95,183,-112,-131,-190,-195,-209,-219
-4,185,190,-90,-97,187,-117,-136,-190,-200,-209,-214
-9,180,190,-85,-100,185,-117,-126,-195,-209,-224,-224
14,185,170,-100,-78,178,-117,-126,-195,-209,-229,-224
14,170,156,-92,-70,163,-117,-131,-195,-209,-234,-229
4,161,156,-82,-75,158,-117,-131,-195,-209,-239,-229
4,146,141,-75,-68,143,-117,-126,-185,-209,-229,-219
4,141,136,-73,-65,139,-117,-126,-185,-209,-229,-219
4,141,136,-73,-65,139,-117,-126,-180,-209,-224,-214
14,141,126,-78,-56,134,-122,-126,-180,-209,-224,-214
9,151,141,-80,-65,146,-136,-122,-200,-229,-229,-229
14,151,136,-82,-61,143,-136,-122,-200,-219,-234,-229
14,161,146,-87,-65,153,-136,-122,-195,-219,-234,-229
19,165,146,-92,-63,156,-136,-122,-190,-219,-234,-229
24,175,151,-100,-63,163,-146,-131,-180,-214,-224,-219
29,170,141,-100,-56,156,-146,-131,-180,-224,-229,-224
39,161,122,-100,-41,141,-146,-126,-190,-224,-234,-224
43,161,117,-102,-36,139,-146,-126,-180,-219,-234,-224
43,151,107,-97,-31,129,-146,-117,-180,-219,-219,-224
53,156,102,-104,-24,129,-151,-112,-180,-219,-219,-224
58,156,97,-107,-19,126,-151,-112,-180,-224,-219,-224
63,151,87,-107,-12,119,-156,-112,-175,-224,-219,-219
63,126,63,-95,0,95,-151,-102,-156,-204,-214,-219
58,112,53,-85,2,82,-151,-97,-156,-200,-214,-209
53,112,58,-82,-2,85,-151,-97,-151,-200,-195,-200
68,117,48,-92,9,82,-151,-92,-151,-195,-190,-195
78,107,29,-92,24,68,-151,-92,-136,-185,-195,-190
87,107,19,-97,34,63,-156,-82,-131,-180,-190,-190
92,107,14,-100,39,61,-156,-78,-126,-175,-185,-190
97,102,4,-100,46,53,-151,-73,-117,-161,-180,-190
87,78,-9,-82,48,34,-141,-58,-102,-141,-161,-165
92,63,-29,-78,61,17,-151,-53,-102,-141,-156,-161
92,53,-39,-73,65,7,-151,-48,-82,-131,-141,-151
107,53,-53,-80,80,0,-151,-43,-78,-117,-117,-141
112,48,-63,-80,87,-7,-161,-19,-78,-117,-107,-122
112,48,-63,-80,87,-7,-161,-19,-68,-112,-102,-117
112,48,-63,-80,87,-7,-170,-9,-68,-102,-97,-112
122,53,-68,-87,95,-7,-170,-4,-48,-92,-87,-102
122,58,-63,-90,92,-2,-156,0,-24,-68,-63,-87
131,53,-78,-92,104,-12,-156,14,-9,-53,-43,-78
131,48,-82,-90,107,-17,-151,24,-4,-43,-39,-68
126,43,-82,-85,104,-19,-151,24,4,-34,-29,-68
136,48,-87,-92,112,-19,-146,39,14,-14,-9,-53
131,48,-82,-90,107,-17,-146,39,24,-4,0,-48
131,43,-87,-87,109,-21,-146,48,34,4,9,-29
131,53,-78,-92,104,-12,-141,58,34,14,19,-24
136,53,-82,-95,109,-14,-131,68,39,34,29,-24
141,63,-78,-102,109,-7,-126,73,53,34,43,-19
141,73,-68,-107,104,2,-122,82,63,39,43,-14
146,73,-73,-109,109,0,-117,97,73,53,48,-9
141,82,-58,-112,100,12,-107,92,87,43,39,-9
126,82,-43,-104,85,19,-102,102,92,43,39,-9
122,92,-29,-107,75,31,-97,102,97,43,43,-4
117,102,-14,-109,65,43,-92,107,97,43,43,-4
107,97,-9,-102,58,43,-97,107,87,58,48,-4
97,102,4,-100,46,53,-92,117,87,58,48,-9
97,112,14,-104,41,63,-87,117,87,58,48,-14
82,126,43,-104,19,85,-87,117,87,58,48,-29
102,141,39,-122,31,90,-87,117,87,58,39,-9
102,146,43,-124,29,95,-82,107,87,53,39,-14
82,126,43,-104,19,85,-63,117,97,53,48,-4
78,117,39,-97,19,78,-68,117,87,48,39,-9
68,117,48,-92,9,82,-58,107,78,48,29,-4
68,117,48,-92,9,82,-58,107,78,48,29,0
68,117,48,-92,9,82,-58,107,78,48,29,4
68,117,48,-92,9,82,-58,107,78,48,29,9
63,122,58,-92,2,90,-48,97,73,58,39,14
58,126,68,-92,-4,97,-48,87,68,58,39,19
53,131,78,-92,-12,104,-48,78,63,58,39,24
48,136,87,-92,-19,112,-48,68,58,58,39,29
48,146,97,-97,-24,122,-58,53,43,53,29,14
48,146,97,-97,-24,122,-58,48,39,48,29,9
48,146,97,-97,-24,122,-58,43,34,43,29,4
48,146,97,-97,-24,122,-58,39,29,39,29,0
34,156,122,-95,-43,139,-48,29,19,24,24,0
29,156,126,-92,-48,141,-48,19,9,19,19,0
24,156,131,-90,-53,143,-48,9,0,14,14,0
19,156,136,-87,-58,146,-48,0,-9,9,9,0
9,146,136,-78,-63,141,-39,-4,-19,19,19,0
9,146,136,-78,-63,141,-39,-9,-19,19,19,0
9,146,136,-78,-63,141,-39,-14,-19,19,19,0
9,146,136,-78,-63,141,-39,-19,-19,19,19,0
4,136,131,-70,-63,134,-39,-29,-24,9,9,0
0,136,136,-68,-68,136,-39,-29,-29,9,9,0
-4,136,141,-65,-73,139,-39,-29,-34,9,9,0
-9,136,146,-63,-78,141,-39,-29,-39,9,9,0
0,146,146,-73,-73,146,-48,-34,-43,4,4,-9
0,146,146,-73,-73,146,-48,-39,-48,0,0,-9
0,146,146,-73,-73,146,-48,-43,-53,-4,-4,-9
0,146,146,-73,-73,146,-48,-48,-58,-9,-9,-9
-14,136,151,-61,-82,143,-48,-53,-63,-14,-14,-24
-19,136,156,-58,-87,146,-48,-58,-68,-19,-19,-29
-24,136,161,-56,-92,148,-48,-63,-73,-24,-24,-34
-29,136,165,-53,-97,151,-48,-68,-78,-29,-29,-39
-39,117,156,-39,-97,136,-39,-68,-87,-39,-39,-39
-39,107,146,-34,-92,126,-39,-68,-87,-39,-39,-39
-39,97,136,-29,-87,117,-39,-68,-87,-39,-39,-39
-39,87,126,-24,-82,107,-39,-68,-87,-39,-39,-39
-39,82,122,-21,-80,102,-39,-68,-87,-39,-29,-34
-39,78,117,-19,-78,97,-39,-68,-87,-39,-29,-29
-39,73,112,-17,-75,92,-39,-68,-87,-39,-29,-24
-39,68,107,-14,-73,87,-39,-68,-87,-39,-29,-19
-48,73,122,-12,-85,97,-39,-78,-87,-39,-29,-19
-48,78,126,-14,-87,102,-39,-78,-87,-39,-29,-19
-48,82,131,-17,-90,107,-39,-78,-87,-39,-29,-19
-48,87,136,-19,-92,112,-39,-78,-87,-39,-29,-19
-39,97,136,-29,-87,117,-48,-87,-97,-39,-29,-34
-39,97,136,-29,-87,117,-48,-87,-97,-39,-29,-39
-39,97,136,-29,-87,117,-48,-87,-97,-39,-29,-43
-39,97,136,-29,-87,117,-48,-87,-97,-39,-29,-48
-29,97,126,-34,-78,112,-53,-92,-107,-43,-39,-58
-29,97,126,-34,-78,112,-58,-97,-107,-48,-48,-58
-29,97,126,-34,-78,112,-63,-102,-107,-53,-58,-58
-29,97,126,-34,-78,112,-68,-107,-107,-58,-68,-58
-19,97,117,-39,-68,107,-63,-102,-102,-48,-53,-53
-19,97,117,-39,-68,107,-58,-97,-97,-48,-48,-48
-19,97,117,-39,-68,107,-53,-92,-92,-48,-43,-43
-19,97,117,-39,-68,107,-48,-87,-87,-48,-39,-39
-29,82,112,-26,-70,97,-39,-82,-78,-43,-39,-43
-29,78,107,-24,-68,92,-39,-78,-78,-39,-39,-48
-29,73,102,-21,-65,87,-39,-73,-78,-34,-39,-53
-29,68,97,-19,-63,82,-39,-68,-78,-29,-39,-58
-24,53,78,-14,-51,65,-29,-63,-68,-14,-34,-48
-19,48,68,-14,-43,58,-29,-58,-58,-9,-29,-48
-14,43,58,-14,-36,51,-29,-53,-48,-4,-24,-48
-9,39,48,-14,-29,43,-29,-48,-39,0,-19,-48
-9,19,29,-4,-19,24,-19,-39,-19,29,0,-39
-9,29,39,-9,-24,34,-9,-29,-9,29,0,-48
-9,39,48,-14,-29,43,0,-9,0,19,-19,-68
-39,9,48,14,-43,29,9,9,9,19,-29,-87
-58,-9,48,34,-53,19,19,39,39,39,-29,-107
-39,0,39,19,-39,19,39,78,68,48,-29,-107
-9,-9,0,9,-4,-4,48,107,87,48,-29,-107
-9,-48,-39,29,14,-43,68,146,117,68,-19,-97
-29,-68,-39,48,4,-53,87,175,146,78,-19,-97
-29,-87,-58,58,14,-73,117,234,185,78,-29,-117
0,-107,-107,53,53,-107,126,302,234,68,-48,-136
29,-146,-175,58,102,-161,146,380,292,87,-29,-126
78,-185,-263,53,170,-224,156,439,351,117,29,-97
117,-214,-331,48,224,-273,146,478,380,126,68,-58
156,-244,-400,43,278,-322,146,507,419,156,117,-19
234,-273,-507,19,370,-390,117,536,468,204,195,58
322,-302,-624,-9,473,-463,87,566,527,224,214,87
390,-341,-732,-24,561,-536,58,595,575,214,175,68
497,-331,-829,-82,663,-580,9,595,595,195,126,39
595,-331,-927,-131,761,-629,-48,585,614,195,87,19
644,-341,-985,-151,814,-663,-97,585,673,214,39,-9
732,-351,-1083,-190,907,-717,-136,605,751,234,-48,-97
771,-380,-1151,-195,961,-766,-146,624,829,224,-165,-204
829,-400,-1229,-214,1029,-814,-165,634,878,224,-253,-273
927,-400,-1327,-263,1127,-863,-204,644,946,263,-292,-351
1005,-419,-1424,-292,1215,-922,-224,702,1073,351,-312,-488
1024,-478,-1503,-273,1263,-990,-204,761,1141,361,-370,-624
985,-527,-1512,-229,1249,-1019,-185,712,907,58,-595,-761
858,-585,-1444,-136,1151,-1015,-146,585,429,-478,-927,-927
722,-634,-1356,-43,1039,-995,-87,507,78,-858,-1200,-1054
566,-634,-1200,34,883,-917,-9,478,-29,-956,-1288,-1122
380,-614,-995,117,688,-805,48,409,-117,-956,-1307,-1151
185,-566,-751,190,468,-658,126,292,-263,-1005,-1327,-1141
-29,-536,-507,283,239,-522,214,244,-341,-1015,-1317,-1102
-165,-497,-331,331,82,-414,292,302,-283,-917,-1229,-1054
-185,-448,-263,317,39,-356,351,409,-156,-800,-1122,-995
-244,-409,-165,326,-39,-287,419,566,9,-673,-1015,-927
-292,-370,-78,331,-107,-224,517,751,195,-536,-907,-868
-302,-361,-58,331,-122,-209,605,936,361,-429,-849,-839
-312,-370,-58,341,-126,-214,673,1112,507,-331,-790,-810
-302,-370,-68,336,-117,-219,741,1298,653,-224,-712,-751
-292,-370,-78,331,-107,-224,800,1395,722,-156,-653,-712
-292,-361,-68,326,-112,-214,819,1395,692,-117,-595,-663
-283,-322,-39,302,-122,-180,839,1346,634,-97,-546,-614
-283,-292,-9,287,-136,-151,858,1298,556,-117,-507,-566
-292,-283,9,287,-151,-136,858,1210,448,-165,-488,-536
-302,-263,39,283,-170,-112,858,1112,312,-234,-507,-527
-312,-273,39,292,-175,-117,839,966,136,-341,-556,-527
-322,-283,39,302,-180,-122,790,732,-78,-448,-585,-517
-322,-283,39,302,-180,-122,761,566,-204,-497,-566,-478
-341,-312,29,326,-185,-141,771,527,-214,-478,-536,-458
-312,-312,0,312,-156,-156,751,478,-214,-448,-507,-429
-322,-312,9,317,-165,-151,692,351,-253,-429,-478,-409
-351,-302,48,326,-200,-126,624,214,-292,-409,-429,-370
-312,-244,68,278,-190,-87,546,97,-302,-361,-361,-322
-263,-195,68,229,-165,-63,478,9,-292,-302,-312,-283
-253,-165,87,209,-170,-39,419,-39,-263,-244,-253,-234
-224,-117,107,170,-165,-4,322,-97,-253,-195,-185,-165
-195,-68,126,131,-161,29,195,-165,-253,-165,-146,-117
-146,-48,97,97,-122,24,97,-165,-224,-126,-107,-78
-97,-19,78,58,-87,29,58,-126,-175,-97,-78,-58
-107,-9,97,58,-102,43,39,-107,-136,-58,-48,-68
-107,0,107,53,-107,53,19,-78,-107,-29,-29,-48
-68,19,87,24,-78,53,9,-78,-87,-19,-19,-58
-68,29,97,19,-82,63,9,-87,-97,-24,-29,-48
-68,29,97,19,-82,63,9,-97,-107,-29,-29,-48
-68,29,97,19,-82,63,9,-107,-117,-34,-29,-48
-68,29,97,19,-82,63,9,-117,-126,-39,-29,-48
-73,19,92,26,-82,56,-4,-131,-126,-29,-14,-34
-78,19,97,29,-87,58,-9,-136,-126,-29,-9,-19
-82,19,102,31,-92,61,-14,-141,-126,-29,-4,-4
-87,19,107,34,-97,63,-19,-146,-126,-29,0,9
-78,9,87,34,-82,48,-9,-146,-126,-24,9,19
-78,9,87,34,-82,48,-9,-146,-126,-19,9,19
-78,9,87,34,-82,48,-9,-146,-126,-14,9,19
-78,9,87,34,-82,48,-9,-146,-126,-9,9,19
-78,0,78,39,-78,39,-14,-151,-126,0,24,29
-78,0,78,39,-78,39,-19,-156,-126,0,29,29
-78,0,78,39,-78,39,-24,-161,-126,0,34,29
-78,0,78,39,-78,39,-29,-165,-126,0,39,29
-68,0,68,34,-68,34,-39,-165,-136,-9,29,19
-68,0,68,34,-68,34,-39,-165,-136,-9,29,9
-68,0,68,34,-68,34,-39,-165,-136,-9,29,0
-68,0,68,34,-68,34,-39,-165,-136,-9,29,-9
-58,9,68,24,-63,39,-29,-165,-131,-4,34,9
-58,9,68,24,-63,39,-29,-165,-126,0,39,19
-58,9,68,24,-63,39,-29,-165,-122,4,43,29
-58,9,68,24,-63,39,-29,-165,-117,9,48,39
-68,19,87,24,-78,53,-14,-161,-112,24,63,43
-78,19,97,29,-87,58,-9,-156,-107,29,68,48
-87,19,107,34,-97,63,-4,-151,-102,34,73,53
-97,19,117,39,-107,68,0,-146,-97,39,78,58
-82,53,136,14,-109,95,-4,-151,-87,48,92,68
-78,78,156,0,-117,117,-9,-156,-87,58,107,78
-73,102,175,-14,-124,139,-14,-161,-87,68,122,87
-68,126,195,-29,-131,161,-19,-165,-87,78,136,97
-68,136,204,-34,-136,170,-29,-156,-73,87,151,107
-68,136,204,-34,-136,170,-29,-156,-68,97,156,117
-68,136,204,-34,-136,170,-29,-156,-63,107,161,126
-68,136,204,-34,-136,170,-29,-156,-58,117,165,136
-73,146,219,-36,-146,183,-39,-165,-58,122,185,146
-78,146,224,-34,-151,185,-48,-165,-58,126,195,156
-82,146,229,-31,-156,187,-58,-165,-58,131,204,165
-87,146,234,-29,-161,190,-68,-165,-58,136,214,175
-82,151,234,-34,-158,192,-73,-165,-53,146,224,190
-78,156,234,-39,-156,195,-78,-165,-48,156,234,195
-73,161,234,-43,-153,197,-82,-165,-43,165,244,200
-68,165,234,-48,-151,200,-87,-165,-39,175,253,204
-53,180,234,-63,-143,207,-87,-175,-39,190,263,224
-48,185,234,-68,-141,209,-87,-175,-39,195,273,234
-43,190,234,-73,-139,212,-87,-175,-39,200,283,244
-39,195,234,-78,-136,214,-87,-175,-39,204,292,253
-53,200,253,-73,-153,226,-97,-175,-34,224,317,273
-58,204,263,-73,-161,234,-97,-175,-29,234,331,283
-63,209,273,-73,-168,241,-97,-175,-24,244,346,292
-68,214,283,-73,-175,248,-97,-175,-19,253,361,302
-53,229,283,-87,-168,256,-102,-180,-9,258,375,312
-48,244,292,-97,-170,268,-107,-185,-9,263,380,322
-43,258,302,-107,-173,280,-112,-190,-9,268,385,331
-39,273,312,-117,-175,292,-117,-195,-9,273,390,341
-48,273,322,-112,-185,297,-117,-195,4,287,409,370
-48,273,322,-112,-185,297,-117,-195,9,302,429,390
-48,273,322,-112,-185,297,-117,-195,14,317,448,409
-48,273,322,-112,-185,297,-117,-195,19,331,468,429
-43,292,336,-124,-190,314,-122,-204,34,356,492,453
-39,302,341,-131,-190,322,-126,-204,39,370,517,468
-34,312,346,-139,-190,329,-131,-204,43,385,541,483
-29,322,351,-146,-190,336,-136,-204,48,400,566,497
-24,341,366,-158,-195,353,-141,-204,53,409,580,522
-19,351,370,-165,-195,361,-146,-204,58,419,595,536
-14,361,375,-173,-195,368,-151,-204,63,429,610,551
-9,370,380,-180,-195,375,-156,-204,68,439,624,566
0,380,380,-190,-190,380,-161,-214,78,458,649,595
0,390,390,-195,-195,390,-165,-214,87,478,673,614
0,400,400,-200,-200,400,-170,-214,97,497,697,634
0,409,409,-204,-204,409,-175,-214,107,517,722,653
-9,424,434,-207,-222,429,-185,-200,126,536,741,673
-9,429,439,-209,-224,434,-185,-195,136,546,751,683
-9,434,444,-212,-226,439,-185,-190,146,556,761,692
-9,439,448,-214,-229,444,-185,-185,156,566,771,702
0,444,444,-222,-222,444,-185,-170,170,590,785,712
0,448,448,-224,-224,448,-185,-165,185,605,800,722
0,453,453,-226,-226,453,-185,-161,200,619,814,732
0,458,458,-229,-229,458,-185,-156,214,634,829,741
19,468,448,-244,-214,458,-175,-136,224,644,819,727
29,478,448,-253,-209,463,-175,-126,234,644,819,722
39,488,448,-263,-204,468,-175,-117,244,644,819,717
48,497,448,-273,-200,473,-175,-107,253,644,819,712
48,492,444,-270,-197,468,-165,-97,263,639,805,688
48,488,439,-268,-195,463,-165,-87,273,634,790,673
48,483,434,-265,-192,458,-165,-78,283,629,775,658
48,478,429,-263,-190,453,-165,-68,292,624,761,644
63,463,400,-263,-168,431,-161,-53,307,614,736,619
68,458,390,-263,-161,424,-156,-39,312,605,722,605
73,453,380,-263,-153,417,-151,-24,317,595,707,590
78,448,370,-263,-146,409,-146,-9,322,585,692,575
68,439,370,-253,-151,405,-141,9,312,566,663,561
68,429,361,-248,-146,395,-136,19,312,556,644,546
68,419,351,-244,-141,385,-131,29,312,546,624,531
68,409,341,-239,-136,375,-126,39,312,536,605,517
82,405,322,-244,-119,363,-112,48,302,507,566,488
87,400,312,-244,-112,356,-107,58,302,488,536,458
92,395,302,-244,-104,348,-102,68,302,468,507,429
97,390,292,-244,-97,341,-97,78,302,448,478,400
82,370,287,-226,-102,329,-87,87,292,429,448,366
78,361,283,-219,-102,322,-87,87,283,409,429,341
73,351,278,-212,-102,314,-87,87,273,390,409,317
68,341,273,-204,-102,307,-87,87,263,370,390,292
58,322,263,-190,-102,292,-78,87,253,341,356,263
58,312,253,-185,-97,283,-78,87,244,322,331,244
58,302,244,-180,-92,273,-78,87,234,302,307,224
58,292,234,-175,-87,263,-78,87,224,283,283,204
53,268,214,-161,-80,241,-58,87,204,268,268,190
48,253,204,-151,-78,229,-48,87,195,253,253,175
43,239,195,-141,-75,217,-39,87,185,239,239,161
39,224,185,-131,-73,204,-29,87,175,224,224,146
29,204,175,-117,-73,190,-29,82,165,195,190,131
29,195,165,-112,-68,180,-29,78,156,175,165,117
29,185,156,-107,-63,170,-29,73,146,156,141,102
29,175,146,-102,-58,161,-29,68,136,136,117,87
24,161,136,-92,-56,148,-29,63,117,122,107,82
19,156,136,-87,-58,146,-29,58,107,117,107,78
14,151,136,-82,-61,143,-29,53,97,112,107,73
9,146,136,-78,-63,141,-29,48,87,107,107,68
4,146,141,-75,-68,143,-39,34,78,92,97,53
0,146,146,-73,-73,146,-39,29,68,87,87,48
-4,146,151,-70,-78,148,-39,24,58,82,78,43
-9,146,156,-68,-82,151,-39,19,48,78,68,39
-4,126,131,-61,-68,129,-29,9,39,73,63,34
0,117,117,-58,-58,117,-29,9,39,68,58,29
4,107,102,-56,-48,104,-29,9,39,63,53,24
9,97,87,-53,-39,92,-29,9,39,58,48,19
4,87,82,-46,-39,85,-29,4,24,43,43,19
0,78,78,-39,-39,78,-29,0,19,39,39,19
-4,68,73,-31,-39,70,-29,-4,14,34,34,19
-9,58,68,-24,-39,63,-29,-9,9,29,29,19
-9,63,73,-26,-41,68,-29,-19,0,39,34,19
-9,68,78,-29,-43,73,-29,-19,0,39,39,19
-9,73,82,-31,-46,78,-29,-19,0,39,43,19
-9,78,87,-34,-48,82,-29,-19,0,39,48,19
0,87,87,-43,-43,87,-29,-19,0,34,43,14
0,87,87,-43,-43,87,-29,-19,0,29,39,9
0,87,87,-43,-43,87,-29,-19,0,24,34,4
0,87,87,-43,-43,87,-29,-19,0,19,29,0
-14,78,92,-31,-53,85,-24,-19,-9,9,24,-9
-19,68,87,-24,-53,78,-19,-19,-9,9,19,-9
-24,58,82,-17,-53,70,-14,-19,-9,9,14,-9
-29,48,78,-9,-53,63,-9,-19,-9,9,9,-9
-14,63,78,-24,-46,70,-19,-19,0,19,14,-4
-9,68,78,-29,-43,73,-19,-19,0,19,19,0
-4,73,78,-34,-41,75,-19,-19,0,19,24,4
0,78,78,-39,-39,78,-19,-19,0,19,29,9
0,87,87,-43,-43,87,-19,-19,-9,19,19,9
0,87,87,-43,-43,87,-19,-19,-9,19,19,9
0,87,87,-43,-43,87,-19,-19,-9,19,19,9
0,87,87,-43,-43,87,-19,-19,-9,19,19,9
-4,73,78,-34,-41,75,-9,-19,0,19,29,19
-9,68,78,-29,-43,73,-9,-19,0,19,29,19
-14,63,78,-24,-46,70,-9,-19,0,19,29,19
-19,58,78,-19,-48,68,-9,-19,0,19,29,19
-19,48,68,-14,-43,58,-9,-9,-9,19,19,14
-19,48,68,-14,-43,58,-9,-9,-9,19,19,9
-19,48,68,-14,-43,58,-9,-9,-9,19,19,4
-19,48,68,-14,-43,58,-9,-9,-9,19,19,0
-19,39,58,-9,-39,48,-9,-19,0,9,9,-4
-19,39,58,-9,-39,48,-9,-19,0,9,9,-9
-19,39,58,-9,-39,48,-9,-19,0,9,9,-14
-19,39,58,-9,-39,48,-9,-19,0,9,9,-19
-29,43,73,-7,-51,58,-9,-9,-9,19,14,-14
-29,48,78,-9,-53,63,-9,-9,-9,19,19,-9
-29,53,82,-12,-56,68,-9,-9,-9,19,24,-4
-29,58,87,-14,-58,73,-9,-9,-9,19,29,0
-24,68,92,-21,-58,80,-9,-9,-9,9,24,0
-19,68,87,-24,-53,78,-9,-9,-9,9,19,0
-14,68,82,-26,-48,75,-9,-9,-9,9,14,0
-9,68,78,-29,-43,73,-9,-9,-9,9,9,0
0,58,58,-29,-29,58,0,-9,9,0,9,0
-9,58,68,-24,-39,63,9,0,9,9,19,-9
-9,68,78,-29,-43,73,-9,0,0,9,29,0
0,58,58,-29,-29,58,-9,-4,-9,0,24,0
0,58,58,-29,-29,58,-9,-9,-9,0,19,0
0,58,58,-29,-29,58,-9,-14,-9,0,14,0
0,58,58,-29,-29,58,-9,-19,-9,0,9,0
0,73,73,-36,-36,73,-19,-29,-19,-9,4,-9
0,78,78,-39,-39,78,-19,-29,-19,-9,0,-9
0,82,82,-41,-41,82,-19,-29,-19,-9,-4,-9
0,87,87,-43,-43,87,-19,-29,-19,-9,-9,-9
-4,82,87,-39,-46,85,-19,-29,-29,-19,-9,-19
-9,78,87,-34,-48,82,-19,-29,-29,-19,-9,-19
-14,73,87,-29,-51,80,-19,-29,-29,-19,-9,-19
-19,68,87,-24,-53,78,-19,-29,-29,-19,-9,-19
-9,58,68,-24,-39,63,-19,-39,-29,-29,-9,-19
-9,58,68,-24,-39,63,-19,-39,-29,-29,-9,-19
-9,58,68,-24,-39,63,-19,-39,-29,-29,-9,-19
-9,58,68,-24,-39,63,-19,-39,-29,-29,-9,-19
-19,43,63,-12,-41,53,-9,-34,-19,-24,-9,-19
-19,39,58,-9,-39,48,-9,-29,-19,-19,-9,-19
-19,34,53,-7,-36,43,-9,-24,-19,-14,-9,-19
-19,29,48,-4,-34,39,-9,-19,-19,-9,-9,-19
-14,19,34,-2,-24,26,0,-19,-19,-9,-9,-14
-9,19,29,-4,-19,24,0,-19,-19,-9,-9,-9
-4,19,24,-7,-14,21,0,-19,-19,-9,-9,-4
0,19,19,-9,-9,19,0,-19,-19,-9,-9,0
-9,19,29,-4,-19,24,0,-19,-29,0,-4,9
-9,19,29,-4,-19,24,0,-19,-29,0,0,9
-9,19,29,-4,-19,24,0,-19,-29,0,4,9
-9,19,29,-4,-19,24,0,-19,-29,0,9,9
-9,24,34,-7,-21,29,-9,-29,-29,-4,0,4
-9,29,39,-9,-24,34,-9,-29,-29,-9,0,0
-9,34,43,-12,-26,39,-9,-29,-29,-14,0,-4
-9,39,48,-14,-29,43,-9,-29,-29,-19,0,-9
-19,29,48,-4,-34,39,0,-29,-39,-29,-14,-14
-19,29,48,-4,-34,39,0,-29,-39,-29,-19,-19
-19,29,48,-4,-34,39,0,-29,-39,-29,-24,-24
-19,29,48,-4,-34,39,0,-29,-39,-29,-29,-29
-19,19,39,0,-29,29,0,-19,-29,-19,-24,-24
-19,9,29,4,-24,19,0,-19,-29,-19,-19,-19
-19,0,19,9,-19,9,0,-19,-29,-19,-14,-14
-19,-9,9,14,-14,0,0,-19,-29,-19,-9,-9
-9,-4,4,7,-7,0,0,-29,-29,-9,-4,4
-9,0,9,4,-9,4,0,-29,-29,-9,0,9
-9,4,14,2,-12,9,0,-29,-29,-9,4,14
-9,9,19,0,-14,14,0,-29,-29,-9,9,19
-9,19,29,-4,-19,24,-9,-29,-29,-19,4,14
-9,19,29,-4,-19,24,-9,-29,-29,-19,0,9
-9,19,29,-4,-19,24,-9,-29,-29,-19,-4,4
-9,19,29,-4,-19,24,-9,-29,-29,-19,-9,0
-14,9,24,2,-19,17,-9,-39,-39,-19,0,0
-19,9,29,4,-24,19,-9,-39,-39,-19,0,0
-24,9,34,7,-29,21,-9,-39,-39,-19,0,0
-29,9,39,9,-34,24,-9,-39,-39,-19,0,0
-19,0,19,9,-19,9,-9,-39,-39,-29,-4,-9
-19,0,19,9,-19,9,-9,-39,-39,-29,-9,-9
-19,0,19,9,-19,9,-9,-39,-39,-29,-14,-9
-19,0,19,9,-19,9,-9,-39,-39,-29,-19,-9
-29,9,39,9,-34,24,-9,-48,-48,-29,-9,-9
-29,9,39,9,-34,24,-9,-48,-48,-29,-9,-9
-29,9,39,9,-34,24,-9,-48,-48,-29,-9,-9
-29,9,39,9,-34,24,-9,-48,-48,-29,-9,-9
-39,0,39,19,-39,19,-9,-48,-48,-29,-19,-9
-39,0,39,19,-39,19,-9,-48,-48,-29,-19,-9
-39,0,39,19,-39,19,-9,-48,-48,-29,-19,-9
-39,0,39,19,-39,19,-9,-48,-48,-29,-19,-9
-48,-9,39,29,-43,14,0,-48,-39,-29,-19,-14
-48,-9,39,29,-43,14,0,-48,-39,-29,-19,-19
-48,-9,39,29,-43,14,0,-48,-39,-29,-19,-24
-48,-9,39,29,-43,14,0,-48,-39,-29,-19,-29
-39,-19,19,29,-29,0,0,-48,-39,-24,-9,-19
-39,-19,19,29,-29,0,0,-48,-39,-19,-9,-19
-39,-19,19,29,-29,0,0,-48,-39,-14,-9,-19
-39,-19,19,29,-29,0,0,-48,-39,-9,-9,-19
-34,-14,19,24,-26,2,-9,-48,-48,-14,-19,-19
-29,-9,19,19,-24,4,-9,-48,-48,-19,-19,-19
-24,-4,19,14,-21,7,-9,-48,-48,-24,-19,-19
-19,0,19,9,-19,9,-9,-48,-48,-29,-19,-19
-19,9,29,4,-24,19,-9,-48,-48,-19,-9,-9
-19,9,29,4,-24,19,-9,-48,-48,-19,-9,-9
-19,9,29,4,-24,19,-9,-48,-48,-19,-9,-9
-19,9,29,4,-24,19,-9,-48,-48,-19,-9,-9
-14,0,14,7,-14,7,-4,-39,-48,-19,-9,-4
-9,0,9,4,-9,4,0,-39,-48,-19,-9,0
-4,0,4,2,-4,2,4,-39,-48,-19,-9,4
0,0,0,0,0,0,9,-39,-48,-19,-9,9
-9,-9,0,9,-4,-4,0,-39,-39,-29,-19,0
-9,-9,0,9,-4,-4,0,-39,-39,-29,-19,0
-9,-9,0,9,-4,-4,0,-39,-39,-29,-19,0
-9,-9,0,9,-4,-4,0,-39,-39,-29,-19,0
0,0,0,0,0,0,0,-39,-48,-24,-14,-9
0,0,0,0,0,0,0,-39,-48,-19,-9,-9
0,0,0,0,0,0,0,-39,-48,-14,-4,-9
0,0,0,0,0,0,0,-39,-48,-9,0,-9
-14,-4,9,9,-12,2,-9,-48,-48,-14,-14,-14
-19,-9,9,14,-14,0,-9,-48,-48,-19,-19,-19
-24,-14,9,19,-17,-2,-9,-48,-48,-24,-24,-24
-29,-19,9,24,-19,-4,-9,-48,-48,-29,-29,-29
-19,-9,9,14,-14,0,0,-48,-48,-19,-14,-19
-19,-9,9,14,-14,0,0,-48,-48,-19,-9,-9
-19,-9,9,14,-14,0,0,-48,-48,-19,-4,0
-19,-9,9,14,-14,0,0,-48,-48,-19,0,9
-24,-14,9,19,-17,-2,0,-39,-48,-19,-4,4
-29,-19,9,24,-19,-4,0,-39,-48,-19,-9,0
-34,-24,9,29,-21,-7,0,-39,-48,-19,-14,-4
-39,-29,9,34,-24,-9,0,-39,-48,-19,-19,-9
-34,-19,14,26,-24,-2,0,-48,-48,-19,-9,-9
-29,-19,9,24,-19,-4,0,-48,-48,-19,-9,-9
-24,-19,4,21,-14,-7,0,-48,-48,-19,-9,-9
-19,-19,0,19,-9,-9,0,-48,-48,-19,-9,-9
-39,-29,9,34,-24,-9,0,-39,-48,-29,-14,-9
-48,-39,9,43,-29,-14,0,-39,-48,-29,-19,-9
-58,-48,9,53,-34,-19,0,-39,-48,-29,-24,-9
-68,-58,9,63,-39,-24,0,-39,-48,-29,-29,-9
-58,-53,4,56,-31,-24,0,-48,-58,-29,-19,-19
-58,-48,9,53,-34,-19,0,-48,-58,-29,-19,-19
-58,-43,14,51,-36,-14,0,-48,-58,-29,-19,-19
-58,-39,19,48,-39,-9,0,-48,-58,-29,-19,-19
-48,-29,19,39,-34,-4,-9,-48,-58,-29,-19,-29
-48,-29,19,39,-34,-4,-9,-48,-58,-29,-19,-29
-48,-29,19,39,-34,-4,-9,-48,-58,-29,-19,-29
-48,-29,19,39,-34,-4,-9,-48,-58,-29,-19,-29
-39,-39,0,39,-19,-19,-9,-58,-58,-29,-19,-19
-39,-39,0,39,-19,-19,-9,-58,-58,-29,-19,-19
-39,-39,0,39,-19,-19,-9,-58,-58,-29,-19,-19
-39,-39,0,39,-19,-19,-9,-58,-58,-29,-19,-19
-39,-34,4,36,-21,-14,-9,-68,-58,-29,-19,-9
-39,-29,9,34,-24,-9,-9,-68,-58,-29,-19,-9
-39,-24,14,31,-26,-4,-9,-68,-58,-29,-19,-9
-39,-19,19,29,-29,0,-9,-68,-58,-29,-19,-9
-48,-19,29,34,-39,4,-9,-68,-68,-39,-19,-14
-48,-19,29,34,-39,4,-9,-68,-68,-39,-19,-19
-48,-19,29,34,-39,4,-9,-68,-68,-39,-19,-24
-48,-19,29,34,-39,4,-9,-68,-68,-39,-19,-29
-53,-24,29,39,-41,2,-9,-58,-58,-29,-9,-19
-58,-29,29,43,-43,0,-9,-58,-58,-29,-9,-19
-63,-34,29,48,-46,-2,-9,-58,-58,-29,-9,-19
-68,-39,29,53,-48,-4,-9,-58,-58,-29,-9,-19
-53,-48,4,51,-29,-21,-9,-58,-58,-19,-9,-9
-48,-48,0,48,-24,-24,-9,-58,-58,-19,-9,-9
-43,-48,-4,46,-19,-26,-9,-58,-58,-19,-9,-9
-39,-48,-9,43,-14,-29,-9,-58,-58,-19,-9,-9
-48,-48,0,48,-24,-24,0,-48,-48,-19,-9,0
-48,-48,0,48,-24,-24,0,-48,-48,-19,-9,0
-48,-48,0,48,-24,-24,0,-48,-48,-19,-9,0
-48,-48,0,48,-24,-24,0,-48,-48,-19,-9,0
-39,-34,4,36,-21,-14,-9,-58,-58,-29,-9,-9
-39,-29,9,34,-24,-9,-9,-58,-58,-29,-9,-9
-39,-24,14,31,-26,-4,-9,-58,-58,-29,-9,-9
-39,-19,19,29,-29,0,-9,-58,-58,-29,-9,-9
-48,-19,29,34,-39,4,-9,-58,-58,-29,-9,-9
-48,-19,29,34,-39,4,-9,-58,-58,-29,-9,-9
-48,-19,29,34,-39,4,-9,-58,-58,-29,-9,-9
-48,-19,29,34,-39,4,-9,-58,-58,-29,-9,-9
-48,-34,14,41,-31,-9,0,-58,-48,-19,0,-9
-48,-39,9,43,-29,-14,0,-58,-48,-19,0,-9
-48,-43,4,46,-26,-19,0,-58,-48,-19,0,-9
-48,-48,0,48,-24,-24,0,-58,-48,-19,0,-9
-58,-48,9,53,-34,-19,-4,-58,-58,-29,-9,-19
-58,-48,9,53,-34,-19,-9,-58,-58,-29,-9,-19
-58,-48,9,53,-34,-19,-14,-58,-58,-29,-9,-19
-58,-48,9,53,-34,-19,-19,-58,-58,-29,-9,-19
-53,-34,19,43,-36,-7,-9,-58,-58,-19,-9,-19
-48,-29,19,39,-34,-4,-9,-58,-58,-19,-9,-19
-43,-24,19,34,-31,-2,-9,-58,-58,-19,-9,-19
-39,-19,19,29,-29,0,-9,-58,-58,-19,-9,-19
-43,-24,19,34,-31,-2,-9,-58,-58,-29,-9,-9
-48,-29,19,39,-34,-4,-9,-58,-58,-29,-9,-9
-53,-34,19,43,-36,-7,-9,-58,-58,-29,-9,-9
-58,-39,19,48,-39,-9,-9,-58,-58,-29,-9,-9
-48,-39,9,43,-29,-14,-9,-58,-58,-24,0,0
-48,-39,9,43,-29,-14,-9,-58,-58,-19,0,0
-48,-39,9,43,-29,-14,-9,-58,-58,-14,0,0
-48,-39,9,43,-29,-14,-9,-58,-58,-9,0,0
-58,-29,29,43,-43,0,-9,-58,-58,-9,-9,-9
-58,-29,29,43,-43,0,-9,-58,-58,-9,-9,-9
-58,-29,29,43,-43,0,-9,-58,-58,-9,-9,-9
-58,-29,29,43,-43,0,-9,-58,-58,-9,-9,-9
-68,-29,39,48,-53,4,-9,-48,-58,-19,-9,-9
-68,-29,39,48,-53,4,-9,-48,-58,-19,-9,-9
-68,-29,39,48,-53,4,-9,-48,-58,-19,-9,-9
-68,-29,39,48,-53,4,-9,-48,-58,-19,-9,-9
-63,-19,43,41,-53,12,-19,-53,-68,-19,-19,-19
-58,-19,39,39,-48,9,-19,-58,-68,-19,-19,-19
-53,-19,34,36,-43,7,-19,-63,-68,-19,-19,-19
-48,-19,29,34,-39,4,-19,-68,-68,-19,-19,-19
-58,-29,29,43,-43,0,-9,-63,-58,-9,-14,-14
-58,-29,29,43,-43,0,-9,-58,-58,-9,-9,-9
-58,-29,29,43,-43,0,-9,-53,-58,-9,-4,-4
-58,-29,29,43,-43,0,-9,-48,-58,-9,0,0
-48,-19,29,34,-39,4,-9,-48,-58,-9,0,9
-48,-19,29,34,-39,4,-9,-48,-58,-9,0,9
-48,-19,29,34,-39,4,-9,-48,-58,-9,0,9
-48,-19,29,34,-39,4,-9,-48,-58,-9,0,9
-43,-29,14,36,-29,-7,-19,-48,-58,-19,0,0
-39,-29,9,34,-24,-9,-19,-48,-58,-19,0,0
-34,-29,4,31,-19,-12,-19,-48,-58,-19,0,0
-29,-29,0,29,-14,-14,-19,-48,-58,-19,0,0
-39,-24,14,31,-26,-4,-9,-48,-48,-9,0,0
-39,-19,19,29,-29,0,-9,-48,-48,-9,0,0
-39,-14,24,26,-31,4,-9,-48,-48,-9,0,0
-39,-9,29,24,-34,9,-9,-48,-48,-9,0,0
-29,-19,9,24,-19,-4,-9,-48,-58,-9,0,-9
-29,-19,9,24,-19,-4,-9,-48,-58,-9,0,-9
-29,-19,9,24,-19,-4,-9,-48,-58,-9,0,-9
-29,-19,9,24,-19,-4,-9,-48,-58,-9,0,-9
-29,-29,0,29,-14,-14,0,-39,-48,-9,0,4
-29,-29,0,29,-14,-14,0,-39,-48,-9,0,9
-29,-29,0,29,-14,-14,0,-39,-48,-9,0,14
-29,-29,0,29,-14,-14,0,-39,-48,-9,0,19
-39,-29,9,34,-24,-9,0,-39,-39,0,9,9
-39,-29,9,34,-24,-9,0,-39,-39,0,9,9
-39,-29,9,34,-24,-9,0,-39,-39,0,9,9
-39,-29,9,34,-24,-9,0,-39,-39,0,9,9
-29,-19,9,24,-19,-4,-9,-48,-48,-9,0,0
-29,-19,9,24,-19,-4,-9,-48,-48,-9,0,0
-29,-19,9,24,-19,-4,-9,-48,-48,-9,0,0
-29,-19,9,24,-19,-4,-9,-48,-48,-9,0,0
-29,-24,4,26,-17,-9,0,-48,-39,-9,0,0
-29,-29,0,29,-14,-14,0,-48,-39,-9,0,0
-29,-34,-4,31,-12,-19,0,-48,-39,-9,0,0
-29,-39,-9,34,-9,-24,0,-48,-39,-9,0,0
-39,-29,9,34,-24,-9,-9,-48,-48,-9,9,0
-39,-29,9,34,-24,-9,-9,-48,-48,-9,9,0
-39,-29,9,34,-24,-9,-9,-48,-48,-9,9,0
-39,-29,9,34,-24,-9,-9,-48,-48,-9,9,0
-29,-39,-9,34,-9,-24,0,-39,-39,-4,19,9
-29,-39,-9,34,-9,-24,0,-39,-39,0,19,9
-29,-39,-9,34,-9,-24,0,-39,-39,4,19,9
-29,-39,-9,34,-9,-24,0,-39,-39,9,19,9
-19,-34,-14,26,-2,-24,0,-39,-39,9,19,9
-19,-29,-9,24,-4,-19,0,-39,-39,9,19,9
-19,-24,-4,21,-7,-14,0,-39,-39,9,19,9
-19,-19,0,19,-9,-9,0,-39,-39,9,19,9
-19,-19,0,19,-9,-9,0,-39,-29,19,19,14
-19,-19,0,19,-9,-9,0,-39,-29,19,19,19
-19,-19,0,19,-9,-9,0,-39,-29,19,19,24
-19,-19,0,19,-9,-9,0,-39,-29,19,19,29
-19,-9,9,14,-14,0,9,-39,-29,19,19,29
-19,-9,9,14,-14,0,9,-39,-29,19,19,29
-19,-9,9,14,-14,0,9,-39,-29,19,19,29
-19,-9,9,14,-14,0,9,-39,-29,19,19,29
-29,4,34,12,-31,19,9,-39,-19,29,29,19
-29,9,39,9,-34,24,9,-39,-19,29,29,19
-29,14,43,7,-36,29,9,-39,-19,29,29,19
-29,19,48,4,-39,34,9,-39,-19,29,29,19
-19,29,48,-4,-34,39,0,-48,-29,19,29,29
-19,29,48,-4,-34,39,0,-48,-29,19,29,29
-19,29,48,-4,-34,39,0,-48,-29,19,29,29
-19,29,48,-4,-34,39,0,-48,-29,19,29,29
-24,39,63,-7,-43,51,9,-48,-19,29,29,39
-29,39,68,-4,-48,53,9,-48,-19,29,29,39
-34,39,73,-2,-53,56,9,-48,-19,29,29,39
-39,39,78,0,-58,58,9,-48,-19,29,29,39
-29,39,68,-4,-48,53,0,-58,-29,29,29,29
-29,39,68,-4,-48,53,-9,-58,-29,29,29,29
-29,39,68,-4,-48,53,-19,-58,-29,29,29,29
-29,39,68,-4,-48,53,-29,-58,-29,29,29,29
-19,39,58,-9,-39,48,-43,-63,-39,19,39,34
-19,39,58,-9,-39,48,-48,-68,-39,19,39,39
-19,39,58,-9,-39,48,-53,-73,-39,19,39,43
-19,39,58,-9,-39,48,-58,-78,-39,19,39,48
-9,43,53,-17,-31,48,-68,-87,-48,14,34,39
-9,48,58,-19,-34,53,-78,-97,-58,9,29,39
-9,53,63,-21,-36,58,-87,-107,-68,4,24,39
-9,58,68,-24,-39,63,-97,-117,-78,0,19,39
-14,48,63,-17,-39,56,-107,-122,-82,-4,14,34
-19,48,68,-14,-43,58,-107,-126,-87,-9,9,29
-24,48,73,-12,-48,61,-107,-131,-92,-14,4,24
-29,48,78,-9,-53,63,-107,-136,-97,-19,0,19
-24,63,87,-19,-56,75,-112,-136,-97,-19,9,29
-9,43,53,-17,-31,48,-107,-136,-97,-14,14,24
-14,39,53,-12,-34,46,-102,-136,-87,-14,14,24
-9,43,53,-17,-31,48,-102,-131,-87,-9,14,24
4,63,58,-34,-26,61,-92,-117,-73,0,24,39
9,63,53,-36,-21,58,-87,-107,-63,0,24,39
4,58,53,-31,-24,56,-82,-102,-58,0,24,39
-4,53,58,-24,-31,56,-78,-87,-53,0,19,29
-24,29,53,-2,-39,41,-48,-73,-53,9,19,34
-39,4,43,17,-41,24,-43,-73,-53,9,14,29
-43,-14,29,29,-36,7,-43,-73,-53,4,14,29
-39,-24,14,31,-26,-4,-39,-73,-53,4,14,29
-43,-24,19,34,-31,-2,-34,-53,-43,14,24,29
-48,-29,19,39,-34,-4,-29,-53,-43,14,14,29
-53,-43,9,48,-31,-17,-24,-53,-43,14,14,19
-58,-48,9,53,-34,-19,-19,-48,-43,14,19,19
-63,-53,9,58,-36,-21,-14,-48,-48,9,4,9
-63,-58,4,61,-34,-26,-14,-48,-48,4,0,4
-63,-73,-9,68,-26,-41,-9,-48,-53,-4,-4,-4
-63,-78,-14,70,-24,-46,-9,-48,-53,-14,-9,-14
-73,-82,-9,78,-31,-46,-4,-48,-63,-24,-14,-14
-78,-78,0,78,-39,-39,-4,-48,-63,-19,-14,-14
-82,-87,-4,85,-39,-46,-4,-48,-63,-14,-14,-19
-87,-97,-9,92,-39,-53,-4,-53,-63,-14,-14,-19
-87,-97,-9,92,-39,-53,-14,-68,-73,-24,-14,-19
-87,-102,-14,95,-36,-58,-14,-68,-73,-29,-19,-19
-87,-102,-14,95,-36,-58,-14,-63,-73,-29,-24,-19
-92,-102,-9,97,-41,-56,-14,-63,-73,-24,-29,-19
-107,-97,9,102,-58,-43,-9,-48,-58,-14,-29,-9
-107,-97,9,102,-58,-43,-9,-48,-58,-19,-29,-9
-112,-102,9,107,-61,-46,-9,-48,-58,-19,-24,-14
-112,-102,9,107,-61,-46,-9,-48,-58,-19,-19,-14
-97,-97,0,97,-48,-48,-19,-53,-63,-29,-29,-24
-92,-92,0,92,-46,-46,-19,-58,-68,-29,-24,-24
-87,-87,0,87,-43,-43,-19,-63,-73,-29,-24,-19
-82,-82,0,82,-41,-41,-19,-68,-78,-29,-24,-19
-97,-87,9,92,-53,-39,-9,-63,-78,-29,-29,-29
-87,-87,0,87,-43,-43,-9,-63,-78,-29,-29,-29
-78,-78,0,78,-39,-39,-9,-63,-82,-29,-34,-29
-92,-97,-4,95,-43,-51,-9,-63,-82,-24,-34,-29
-102,-102,0,102,-51,-51,-9,-63,-78,-14,-24,-19
-107,-102,4,104,-56,-48,-9,-53,-68,-9,-19,-19
-107,-107,0,107,-53,-53,-9,-53,-63,-4,-14,-19
-112,-117,-4,114,-53,-61,-9,-53,-58,-4,-14,-19
-102,-117,-14,109,-43,-65,-9,-63,-73,-14,-14,-19
-97,-117,-19,107,-39,-68,-9,-63,-73,-19,-14,-19
-87,-112,-24,100,-31,-68,-9,-63,-73,-19,-14,-14
-87,-107,-19,97,-34,-63,-9,-63,-73,-19,-19,-14
-82,-97,-14,90,-34,-56,-9,-48,-63,-14,-9,-14
-102,-117,-14,109,-43,-65,-4,-48,-73,-19,-19,-24
-97,-126,-29,112,-34,-78,-14,-48,-73,-24,-29,-19
-87,-122,-34,104,-26,-78,-14,-43,-73,-29,-34,-19
-87,-126,-39,107,-24,-82,-4,-43,-68,-24,-39,-29
-78,-136,-58,107,-9,-97,-4,-43,-68,-39,-53,-39
-78,-156,-78,117,0,-117,-14,-53,-78,-43,-53,-58
-87,-180,-92,134,2,-136,4,-29,-68,-43,-53,-58
-58,-175,-117,117,29,-146,9,-14,-48,-39,-53,-58
-29,-175,-146,102,58,-161,0,4,-19,-24,-43,-58
-19,-165,-146,92,63,-156,4,29,9,14,-14,-39
14,-161,-175,73,95,-168,0,58,53,53,14,-24
4,-165,-170,80,87,-168,0,82,97,92,29,-9
4,-156,-161,75,82,-158,4,112,165,141,63,9
34,-126,-161,46,97,-143,14,161,229,195,112,29
43,-131,-175,43,109,-153,19,200,283,248,146,39
53,-126,-180,36,117,-153,34,239,341,307,180,48
97,-117,-214,9,156,-165,34,287,424,375,229,68
161,-102,-263,-29,212,-183,34,351,522,458,302,102
219,-97,-317,-61,268,-207,24,366,585,541,375,161
239,-87,-326,-75,283,-207,-4,375,634,619,453,219
287,-39,-326,-124,307,-183,-24,375,688,707,556,322
370,29,-341,-200,356,-156,-53,380,746,800,673,444
405,34,-370,-219,387,-168,-78,409,819,897,785,527
429,24,-405,-226,417,-190,-87,448,873,946,854,566
458,34,-424,-246,441,-195,-78,483,888,927,863,585
414,34,-380,-224,397,-173,-73,488,868,897,858,624
326,53,-273,-190,300,-109,-34,458,819,883,878,673
195,126,-68,-161,131,29,14,409,746,863,873,717
48,195,146,-122,-48,170,82,366,707,868,897,771
-24,302,326,-139,-175,314,117,346,727,951,1005,893
-82,409,492,-163,-287,451,126,322,780,1078,1161,1015
-141,468,610,-163,-375,539,131,312,795,1146,1259,1093
-175,507,683,-165,-429,595,136,292,741,1141,1288,1137
-224,546,771,-161,-497,658,141,273,688,1102,1288,1176
-283,546,829,-131,-556,688,175,273,610,971,1171,1137
-346,522,868,-87,-607,695,204,268,483,756,936,1015
-385,488,873,-51,-629,680,200,234,361,585,717,878
-370,468,839,-48,-605,653,165,161,244,473,585,780
-395,468,863,-36,-629,666,126,68,78,302,429,683
-444,463,907,-9,-675,685,102,9,-43,151,268,575
-439,468,907,-14,-673,688,87,9,-73,68,146,478
-409,468,878,-29,-644,673,68,9,-107,-24,34,405
-400,458,858,-29,-629,658,43,14,-161,-141,-92,312
-385,453,839,-34,-612,646,43,34,-190,-209,-170,209
-414,434,849,-9,-631,641,68,92,-156,-200,-204,117
-434,414,849,9,-641,631,126,195,-78,-161,-219,24
-419,390,810,14,-614,600,190,312,-39,-185,-278,-87
-444,346,790,48,-617,568,278,419,-34,-283,-400,-229
-473,283,756,95,-614,519,351,497,-19,-331,-502,-341
-492,248,741,122,-617,495,405,536,0,-317,-531,-390
-522,229,751,146,-636,490,439,507,-4,-307,-527,-424
-527,224,751,151,-639,488,463,473,-48,-307,-536,-434
-522,239,761,141,-641,500,478,434,-97,-331,-546,-448
-551,258,810,146,-680,534,497,331,-185,-370,-551,-439
-575,292,868,141,-722,580,507,195,-268,-395,-556,-429
-605,292,897,156,-751,595,546,141,-302,-405,-561,-419
-639,263,902,187,-771,583,610,126,-326,-439,-570,-439
-629,239,868,195,-749,553,639,43,-385,-483,-590,-458
-634,185,819,224,-727,502,629,-24,-434,-531,-619,-483
-644,92,736,275,-690,414,639,-34,-478,-580,-634,-497
-600,43,644,278,-622,344,624,-58,-512,-619,-644,-497
-546,-4,541,275,-544,268,595,-107,-531,-624,-629,-492
-507,-53,453,280,-480,200,556,-122,-507,-585,-585,-473
-468,-73,395,270,-431,161,497,-151,-488,-561,-551,-448
-463,-107,356,285,-409,124,424,-219,-507,-546,-517,-419
-439,-126,312,283,-375,92,341,-292,-517,-517,-488,-400
-405,-136,268,270,-336,65,263,-341,-507,-478,-458,-361
-390,-170,219,280,-305,24,204,-341,-473,-439,-405,-341
-366,-190,175,278,-270,-7,175,-326,-429,-390,-366,-312
-336,-180,156,258,-246,-12,156,-302,-395,-361,-331,-297
-312,-170,141,241,-226,-14,126,-278,-385,-331,-307,-268
-268,-170,97,219,-183,-36,87,-253,-366,-317,-278,-248
-248,-170,78,209,-163,-46,73,-214,-322,-292,-258,-214
-239,-190,48,214,-143,-70,68,-165,-268,-244,-219,-190
-224,-195,29,209,-126,-82,53,-136,-214,-200,-180,-170
-209,-204,4,207,-107,-100,34,-112,-175,-156,-161,-161
-190,-214,-24,202,-82,-119,24,-92,-136,-126,-141,-151
-185,-224,-39,204,-73,-131,24,-82,-131,-117,-126,-141
-180,-229,-48,204,-65,-139,24,-78,-141,-122,-126,-141
-165,-229,-63,197,-51,-146,19,-78,-136,-131,-126,-141
-151,-229,-78,190,-36,-153,14,-73,-136,-131,-126,-141
-161,-244,-82,202,-39,-163,9,-78,-146,-141,-126,-126
-161,-244,-82,202,-39,-163,9,-82,-141,-136,-126,-117
-151,-244,-92,197,-29,-168,9,-82,-131,-126,-117,-117
-141,-248,-107,195,-17,-178,9,-78,-126,-122,-117,-117
-136,-244,-107,190,-14,-175,9,-63,-102,-117,-117,-126
-131,-244,-112,187,-9,-178,4,-58,-102,-112,-117,-126
-126,-253,-126,190,0,-190,0,-58,-117,-117,-112,-126
-102,-239,-136,170,17,-187,-4,-68,-122,-117,-107,-126
-112,-239,-126,175,7,-183,4,-63,-122,-107,-107,-122
-131,-244,-112,187,-9,-178,4,-63,-122,-107,-107,-122
-122,-244,-122,183,0,-183,0,-63,-122,-102,-102,-122
-122,-248,-126,185,2,-187,0,-63,-112,-102,-102,-117
-112,-244,-131,178,9,-187,0,-68,-107,-97,-102,-117
-102,-244,-141,173,19,-192,4,-68,-107,-97,-102,-117
-97,-234,-136,165,19,-185,4,-63,-112,-97,-107,-117
-97,-244,-146,170,24,-195,4,-63,-122,-102,-112,-112
-102,-239,-136,170,17,-187,4,-68,-112,-107,-102,-112
-102,-239,-136,170,17,-187,4,-63,-112,-107,-102,-112
-112,-239,-126,175,7,-183,9,-53,-112,-107,-102,-117
-112,-234,-122,173,4,-178,9,-48,-107,-102,-102,-117
-107,-224,-117,165,4,-170,4,-53,-102,-92,-97,-107
-102,-219,-117,161,7,-168,4,-53,-102,-92,-97,-107
-92,-214,-122,153,14,-168,0,-53,-107,-97,-102,-112
-73,-214,-141,143,34,-178,-4,-58,-112,-112,-112,-112
-82,-214,-131,148,24,-173,-4,-53,-117,-112,-102,-112
-87,-219,-131,153,21,-175,-4,-53,-117,-112,-102,-112
-92,-224,-131,158,19,-178,-4,-53,-117,-112,-102,-112
-92,-229,-136,161,21,-183,-4,-53,-112,-112,-102,-107
-82,-224,-141,153,29,-183,-4,-58,-112,-102,-112,-117
-73,-229,-156,151,41,-192,-4,-58,-112,-102,-112,-122
-68,-229,-161,148,46,-195,-14,-58,-112,-102,-112,-122
-58,-229,-170,143,56,-200,-4,-53,-112,-107,-112,-117
-48,-219,-170,134,61,-195,-4,-53,-107,-112,-102,-107
-68,-219,-151,143,41,-185,-9,-53,-112,-112,-112,-112
-82,-229,-146,156,31,-187,-9,-53,-112,-112,-112,-112
-73,-229,-156,151,41,-192,-9,-48,-107,-107,-102,-107
-73,-234,-161,153,43,-197,-9,-58,-117,-112,-107,-117
-73,-239,-165,156,46,-202,-9,-58,-112,-112,-107,-117
-78,-239,-161,158,41,-200,-9,-58,-112,-117,-107,-122
-82,-248,-165,165,41,-207,-9,-63,-112,-126,-112,-122
-58,-234,-175,146,58,-204,-29,-53,-107,-117,-122,-126
-53,-229,-175,141,61,-202,-29,-48,-107,-122,-126,-126
-53,-229,-175,141,61,-202,-29,-48,-107,-122,-131,-126
-63,-234,-170,148,53,-202,-29,-48,-107,-122,-131,-126
-68,-224,-156,146,43,-190,-19,-58,-117,-131,-131,-126
-63,-224,-161,143,48,-192,-19,-53,-117,-131,-126,-131
-39,-219,-180,129,70,-200,-24,-53,-122,-136,-122,-131
-34,-214,-180,124,73,-197,-29,-58,-122,-141,-122,-126
-39,-224,-185,131,73,-204,-29,-48,-117,-146,-131,-126
-14,-214,-200,114,92,-207,-29,-48,-117,-141,-131,-126
-14,-224,-209,119,97,-217,-29,-53,-117,-136,-131,-131
-24,-229,-204,126,90,-217,-29,-53,-117,-131,-131,-131
-24,-224,-200,124,87,-212,-29,-48,-117,-131,-131,-131
-24,-229,-204,126,90,-217,-29,-48,-117,-131,-131,-131
-24,-229,-204,126,90,-217,-29,-48,-112,-131,-126,-126
-14,-229,-214,122,100,-222,-34,-48,-112,-131,-126,-126
-14,-219,-204,117,95,-212,-39,-53,-122,-151,-141,-131
-4,-219,-214,112,104,-217,-39,-53,-122,-141,-146,-131
0,-209,-209,104,104,-209,-39,-53,-117,-141,-146,-131
9,-204,-214,97,112,-209,-39,-53,-112,-141,-146,-131
0,-209,-209,104,104,-209,-48,-43,-112,-141,-131,-117
0,-219,-219,109,109,-219,-48,-43,-112,-146,-131,-117
4,-234,-239,114,122,-236,-48,-39,-122,-141,-131,-112
4,-239,-244,117,124,-241,-48,-39,-112,-131,-126,-107
19,-229,-248,104,134,-239,-48,-48,-102,-141,-122,-97
34,-224,-258,95,146,-241,-53,-43,-102,-141,-122,-97
43,-224,-268,90,156,-246,-53,-43,-102,-146,-122,-97
53,-229,-283,87,168,-256,-58,-43,-97,-146,-122,-92
68,-234,-302,82,185,-268,-73,-43,-97,-136,-117,-97
68,-248,-317,90,192,-283,-73,-39,-97,-131,-117,-92
68,-248,-317,90,192,-283,-73,-39,-92,-131,-97,-87
87,-244,-331,78,209,-287,-73,-34,-92,-126,-92,-87
82,-244,-326,80,204,-285,-73,-34,-87,-126,-97,-87
87,-244,-331,78,209,-287,-78,-24,-82,-122,-92,-82
87,-244,-331,78,209,-287,-78,-19,-78,-117,-87,-78
87,-248,-336,80,212,-292,-73,-14,-68,-102,-82,-73
97,-244,-341,73,219,-292,-73,-9,-63,-92,-68,-53
102,-248,-351,73,226,-300,-82,-4,-63,-92,-68,-53
102,-248,-351,73,226,-300,-82,0,-43,-82,-58,-48
117,-239,-356,61,236,-297,-82,4,-39,-68,-39,-43
131,-229,-361,48,246,-295,-92,9,-29,-68,-39,-34
131,-224,-356,46,244,-290,-92,9,-19,-63,-34,-29
131,-219,-351,43,241,-285,-102,19,-19,-53,-29,-24
141,-209,-351,34,246,-280,-102,24,0,-43,-19,-14
141,-190,-331,24,236,-261,-97,39,4,-19,4,-9
151,-190,-341,19,246,-265,-97,53,19,-4,24,0
151,-190,-341,19,246,-265,-92,63,24,4,29,9
146,-190,-336,21,241,-263,-92,63,34,14,39,9
151,-185,-336,17,244,-261,-87,78,53,14,39,14
151,-185,-336,17,244,-261,-87,78,63,24,48,19
156,-190,-346,17,251,-268,-87,87,73,34,58,39
161,-180,-341,9,251,-261,-82,97,73,43,68,43
161,-175,-336,7,248,-256,-82,107,82,53,78,34
161,-170,-331,4,246,-251,-78,112,92,53,92,39
156,-165,-322,4,239,-244,-73,122,97,58,92,43
156,-170,-326,7,241,-248,-68,136,102,73,97,48
156,-175,-331,9,244,-253,-48,141,117,82,107,68
146,-180,-326,17,236,-253,-43,151,122,82,107,68
146,-175,-322,14,234,-248,-39,151,126,82,112,73
146,-170,-317,12,231,-244,-34,156,126,82,112,73
126,-185,-312,29,219,-248,-24,165,126,78,102,68
117,-190,-307,36,212,-248,-14,175,126,78,97,68
117,-190,-307,36,212,-248,-4,175,126,78,92,68
102,-185,-287,41,195,-236,0,175,126,78,87,58
82,-209,-292,63,187,-251,9,185,126,68,87,58
97,-204,-302,53,200,-253,9,185,126,68,78,48
107,-204,-312,48,209,-258,19,185,126,78,68,48
107,-204,-312,48,209,-258,19,185,126,78,68,48
107,-204,-312,48,209,-258,19,185,126,78,68,48
107,-204,-312,48,209,-258,19,185,126,78,68,48
92,-200,-292,53,192,-246,24,185,136,87,73,58
87,-195,-283,53,185,-239,29,185,136,87,78,58
82,-190,-273,53,178,-231,34,185,136,87,82,58
78,-185,-263,53,170,-224,39,185,136,87,87,58
73,-170,-244,48,158,-207,39,175,122,78,82,48
68,-165,-234,48,151,-200,39,165,117,78,78,48
63,-161,-224,48,143,-192,39,156,112,78,73,48
58,-156,-214,48,136,-185,39,146,107,78,68,48
53,-136,-190,41,122,-163,29,126,87,73,58,48
48,-126,-175,39,112,-151,29,117,78,68,58,48
43,-117,-161,36,102,-139,29,107,68,63,58,48
39,-107,-146,34,92,-126,29,97,58,58,58,48
48,-87,-136,19,92,-112,29,78,48,53,53,43
48,-78,-126,14,87,-102,29,68,39,48,48,39
48,-68,-117,9,82,-92,29,58,29,43,43,34
48,-58,-107,4,78,-82,29,48,19,39,39,29
39,-53,-92,7,65,-73,29,43,14,39,48,39
39,-48,-87,4,63,-68,29,39,9,39,48,39
39,-43,-82,2,61,-63,29,34,4,39,48,39
39,-39,-78,0,58,-58,29,29,0,39,48,39
29,-29,-58,0,43,-43,29,19,0,48,58,39
29,-19,-48,-4,39,-34,29,19,0,48,58,39
29,-9,-39,-9,34,-24,29,19,0,48,58,39
29,0,-29,-14,29,-14,29,19,0,48,58,39
24,9,-14,-17,19,-2,19,14,-9,48,58,48
19,9,-9,-14,14,0,19,9,-9,48,58,48
14,9,-4,-12,9,2,19,4,-9,48,58,48
9,9,0,-9,4,4,19,0,-9,48,58,48
14,19,4,-17,4,12,14,-4,-14,43,48,39
19,19,0,-19,9,9,9,-9,-19,39,48,39
24,19,-4,-21,14,7,4,-14,-24,34,48,39
29,19,-9,-24,19,4,0,-19,-29,29,48,39
19,29,9,-24,4,19,0,-29,-39,29,43,29
19,29,9,-24,4,19,0,-29,-39,29,39,29
19,29,9,-24,4,19,0,-29,-39,29,34,29
19,29,9,-24,4,19,0,-29,-39,29,29,29
19,29,9,-24,4,19,9,-29,-39,19,39,39
19,29,9,-24,4,19,9,-29,-39,19,39,39
19,29,9,-24,4,19,9,-29,-39,19,39,39
19,29,9,-24,4,19,9,-29,-39,19,39,39
29,39,9,-34,9,24,9,-39,-48,9,29,39
29,39,9,-34,9,24,9,-39,-48,9,29,39
29,39,9,-34,9,24,9,-39,-48,9,29,39
29,39,9,-34,9,24,9,-39,-48,9,29,39
39,39,0,-39,19,19,9,-39,-48,0,19,29
39,39,0,-39,19,19,9,-39,-48,0,19,29
39,39,0,-39,19,19,9,-39,-48,0,19,29
39,39,0,-39,19,19,9,-39,-48,0,19,29
24,34,9,-29,7,21,0,-39,-48,0,9,29
19,29,9,-24,4,19,0,-39,-48,0,9,29
14,24,9,-19,2,17,0,-39,-48,0,9,29
9,19,9,-14,0,14,0,-39,-48,0,9,29
24,19,-4,-21,14,7,0,-39,-48,0,9,19
29,19,-9,-24,19,4,0,-39,-48,0,9,19
34,19,-14,-26,24,2,0,-39,-48,0,9,19
39,19,-19,-29,29,0,0,-39,-48,0,9,19
29,19,-9,-24,19,4,9,-34,-34,9,14,29
29,19,-9,-24,19,4,9,-29,-29,19,19,29
29,19,-9,-24,19,4,9,-24,-24,29,24,29
29,19,-9,-24,19,4,9,-19,-19,39,29,29
19,0,-19,-9,19,-9,19,-9,0,48,29,9
19,0,-19,-9,19,-9,29,0,0,39,9,-9
9,-9,-19,0,14,-14,39,19,9,29,0,-29
29,-9,-39,-9,34,-24,48,39,29,39,-9,-39
29,-19,-48,-4,39,-34,58,58,39,39,-19,-58
19,-48,-68,14,43,-58,78,87,58,39,-29,-68
39,-58,-97,9,68,-78,97,126,87,48,-29,-78
29,-78,-107,24,68,-92,117,175,117,48,-19,-87
19,-107,-126,43,73,-117,146,244,165,68,-29,-97
39,-136,-175,48,107,-156,175,312,224,78,-29,-107
58,-175,-234,58,146,-204,195,380,292,87,-29,-117
117,-195,-312,39,214,-253,195,448,361,136,19,-78
195,-185,-380,-4,287,-283,175,497,419,195,97,-9
224,-204,-429,-9,326,-317,165,536,478,253,175,48
273,-224,-497,-24,385,-361,165,595,556,302,263,117
361,-234,-595,-63,478,-414,146,663,634,361,331,175
439,-263,-702,-87,570,-483,126,722,702,370,322,175
527,-283,-810,-122,668,-546,107,761,761,341,253,136
614,-302,-917,-156,766,-610,48,751,780,322,204,126
692,-312,-1005,-190,849,-658,-19,741,819,341,195,126
819,-302,-1122,-258,971,-712,-58,741,917,400,175,117
897,-322,-1220,-287,1058,-771,-107,761,1024,439,107,58
956,-331,-1288,-312,1122,-810,-146,751,1083,419,29,-9
1044,-322,-1366,-361,1205,-844,-185,751,1132,419,-39,-68
1093,-341,-1434,-375,1263,-888,-185,819,1239,478,-87,-165
1122,-409,-1532,-356,1327,-971,-146,946,1395,566,-126,-312
1083,-468,-1551,-307,1317,-1010,-97,985,1356,458,-273,-468
946,-527,-1473,-209,1210,-1000,-68,849,917,-9,-585,-644
722,-556,-1278,-82,1000,-917,-9,634,312,-585,-946,-790
439,-527,-966,43,702,-746,87,439,-78,-888,-1132,-868
117,-478,-595,180,356,-536,204,292,-244,-907,-1141,-878
-117,-409,-292,263,87,-351,283,204,-322,-878,-1102,-858
-224,-370,-146,297,-39,-258,331,224,-312,-839,-1054,-839
-283,-351,-68,317,-107,-209,390,331,-195,-761,-985,-810
-292,-312,-19,302,-136,-165,429,419,-97,-673,-927,-771
-302,-283,19,292,-161,-131,478,527,-9,-605,-897,-761
-302,-292,9,297,-156,-141,556,692,126,-517,-849,-761
-292,-302,-9,297,-141,-156,634,888,292,-419,-800,-741
-292,-322,-29,307,-131,-175,702,1063,448,-322,-741,-702
-273,-341,-68,307,-102,-204,771,1239,595,-234,-663,-663
-263,-351,-87,307,-87,-219,819,1366,692,-156,-585,-605
-273,-331,-58,302,-107,-195,849,1385,692,-97,-517,-556
-263,-292,-29,278,-117,-161,878,1298,624,-87,-478,-517
-253,-253,0,253,-126,-126,888,1210,517,-97,-448,-488
-253,-244,9,248,-131,-117,888,1132,409,-126,-429,-458
-253,-214,39,234,-146,-87,888,1034,283,-175,-429,-419
-263,-224,39,244,-151,-92,888,907,126,-273,-468,-419
-292,-253,39,273,-165,-107,858,741,-39,-380,-507,-439
-292,-263,29,278,-161,-117,829,546,-185,-458,-517,-429
-312,-283,29,297,-170,-126,810,458,-234,-478,-507,-409
-322,-322,0,322,-161,-161,819,419,-234,-458,-478,-400
-322,-312,9,317,-165,-151,790,331,-253,-419,-429,-361
-302,-263,39,283,-170,-112,702,185,-292,-390,-390,-312
-263,-195,68,229,-165,-63,614,58,-312,-341,-341,-263
-224,-146,78,185,-151,-34,527,-9,-302,-273,-273,-214
-204,-117,87,161,-146,-14,458,-39,-263,-224,-214,-165
-146,-68,78,107,-112,4,351,-87,-234,-175,-165,-126
-107,-29,78,68,-92,24,224,-146,-224,-146,-117,-87
-87,0,87,43,-87,43,136,-146,-185,-117,-58,-39
-48,29,78,9,-63,53,117,-97,-117,-58,-9,0
-29,48,78,-9,-53,63,97,-58,-68,-9,29,29
-9,48,58,-19,-34,53,68,-29,-48,19,48,39
9,68,58,-39,-24,63,48,-19,-29,48,58,58
-9,58,68,-24,-39,63,58,-19,-29,58,58,68
-9,48,58,-19,-34,53,53,-34,-34,53,68,68
-9,48,58,-19,-34,53,48,-39,-39,48,68,68
-9,48,58,-19,-34,53,43,-43,-43,43,68,68
-9,48,58,-19,-34,53,39,-48,-48,39,68,68
-4,53,58,-24,-31,56,29,-63,-48,43,78,78
0,58,58,-29,-29,58,19,-68,-48,48,78,78
4,63,58,-34,-26,61,9,-73,-48,53,78,78
9,68,58,-39,-24,63,0,-78,-48,58,78,78
0,68,68,-34,-34,68,0,-87,-48,68,92,82
0,68,68,-34,-34,68,0,-87,-48,68,97,87
0,68,68,-34,-34,68,0,-87,-48,68,102,92
0,68,68,-34,-34,68,0,-87,-48,68,107,97
9,68,58,-39,-24,63,-9,-97,-39,78,117,102
9,68,58,-39,-24,63,-9,-97,-39,78,117,107
9,68,58,-39,-24,63,-9,-97,-39,78,117,112
9,68,58,-39,-24,63,-9,-97,-39,78,117,117
9,58,48,-34,-19,53,-19,-97,-39,87,126,107
9,58,48,-34,-19,53,-19,-97,-39,87,126,107
9,58,48,-34,-19,53,-19,-97,-39,87,126,107
9,58,48,-34,-19,53,-19,-97,-39,87,126,107
9,73,63,-41,-26,68,-29,-107,-48,97,131,122
9,78,68,-43,-29,73,-29,-107,-48,97,136,126
9,82,73,-46,-31,78,-29,-107,-48,97,141,131
9,87,78,-48,-34,82,-29,-107,-48,97,146,136
9,87,78,-48,-34,82,-29,-107,-39,112,156,136
9,87,78,-48,-34,82,-29,-107,-39,117,156,136
9,87,78,-48,-34,82,-29,-107,-39,122,156,136
9,87,78,-48,-34,82,-29,-107,-39,126,156,136
14,97,82,-56,-34,90,-39,-117,-39,126,161,141
19,97,78,-58,-29,87,-39,-117,-39,126,165,146
24,97,73,-61,-24,85,-39,-117,-39,126,170,151
29,97,68,-63,-19,82,-39,-117,-39,126,175,156
29,97,68,-63,-19,82,-29,-107,-34,141,185,170
29,97,68,-63,-19,82,-29,-107,-29,146,195,175
29,97,68,-63,-19,82,-29,-107,-24,151,204,180
29,97,68,-63,-19,82,-29,-107,-19,156,214,185
39,107,68,-73,-14,87,-39,-112,-19,165,219,190
39,107,68,-73,-14,87,-39,-117,-19,165,224,195
39,107,68,-73,-14,87,-39,-122,-19,165,229,200
39,107,68,-73,-14,87,-39,-126,-19,165,234,204
48,117,68,-82,-9,92,-48,-126,-9,180,244,219
48,126,78,-87,-14,102,-48,-126,-9,185,253,224
48,136,87,-92,-19,112,-48,-126,-9,190,263,229
48,146,97,-97,-24,122,-48,-126,-9,195,273,234
48,151,102,-100,-26,126,-58,-126,0,209,287,244
48,156,107,-102,-29,131,-58,-126,0,214,292,253
48,161,112,-104,-31,136,-58,-126,0,219,297,263
48,165,117,-107,-34,141,-58,-126,0,224,302,273
48,185,136,-117,-43,161,-68,-136,9,234,322,283
48,195,146,-122,-48,170,-68,-136,9,244,331,292
48,204,156,-126,-53,180,-68,-136,9,253,341,302
48,214,165,-131,-58,190,-68,-136,9,263,351,312
48,219,170,-134,-61,195,-73,-141,19,283,366,331
48,224,175,-136,-63,200,-78,-146,19,292,380,341
48,229,180,-139,-65,204,-82,-151,19,302,395,351
48,234,185,-141,-68,209,-87,-156,19,312,409,361
53,244,190,-148,-68,217,-97,-165,29,326,429,385
58,244,185,-151,-63,214,-97,-165,39,341,448,400
63,244,180,-153,-58,212,-97,-165,48,356,468,414
68,244,175,-156,-53,209,-97,-165,58,370,488,429
78,253,175,-165,-48,214,-102,-165,63,385,512,453
78,263,185,-170,-53,224,-107,-165,68,400,527,468
78,273,195,-175,-58,234,-112,-165,73,414,541,483
78,283,204,-180,-63,244,-117,-165,78,429,556,497
78,292,214,-185,-68,253,-131,-175,92,444,575,517
78,302,224,-190,-73,263,-136,-175,97,458,595,527
78,312,234,-195,-78,273,-141,-175,102,473,614,536
78,322,244,-200,-82,283,-146,-175,107,488,634,546
92,331,239,-212,-73,285,-146,-165,122,502,658,570
97,341,244,-219,-73,292,-146,-165,126,517,673,585
102,351,248,-226,-73,300,-146,-165,131,531,688,600
107,361,253,-234,-73,307,-146,-165,136,546,702,614
112,375,263,-244,-75,319,-146,-156,151,561,727,634
117,380,263,-248,-73,322,-146,-156,165,575,741,644
122,385,263,-253,-70,324,-146,-156,180,590,756,653
126,390,263,-258,-68,326,-146,-156,195,605,771,663
126,400,273,-263,-73,336,-146,-136,209,619,780,678
126,400,273,-263,-73,336,-146,-126,224,634,790,683
126,400,273,-263,-73,336,-146,-117,239,649,800,688
126,400,273,-263,-73,336,-146,-107,253,663,810,692
136,409,273,-273,-68,341,-146,-92,263,673,800,692
136,409,273,-273,-68,341,-146,-87,273,673,800,692
136,409,273,-273,-68,341,-146,-82,283,673,800,692
136,409,273,-273,-68,341,-146,-78,292,673,800,692
146,405,258,-275,-56,331,-146,-58,307,668,780,673
146,400,253,-273,-53,326,-146,-48,312,663,771,663
146,395,248,-270,-51,322,-146,-39,317,658,761,653
146,390,244,-268,-48,317,-146,-29,322,653,751,644
161,390,229,-275,-34,309,-136,-9,331,644,727,619
165,390,224,-278,-29,307,-136,0,331,634,712,605
170,390,219,-280,-24,305,-136,9,331,624,697,590
175,390,214,-283,-19,302,-136,19,331,614,683,575
165,370,204,-268,-19,287,-131,29,331,595,649,546
165,361,195,-263,-14,278,-126,39,331,575,624,527
165,351,185,-258,-9,268,-122,48,331,556,600,507
165,341,175,-253,-4,258,-117,58,331,536,575,488
161,326,165,-244,-2,246,-102,68,326,512,551,458
156,312,156,-234,0,234,-97,78,322,497,527,439
151,297,146,-224,2,222,-92,87,317,483,502,419
146,283,136,-214,4,209,-87,97,312,468,478,400
141,268,126,-204,7,197,-73,102,297,444,448,370
136,253,117,-195,9,185,-68,107,292,429,429,351
131,239,107,-185,12,173,-63,112,287,414,409,331
126,224,97,-175,14,161,-58,117,283,400,390,312
126,204,78,-165,24,141,-53,126,263,370,366,287
126,195,68,-161,29,131,-48,126,253,351,341,273
126,185,58,-156,34,122,-43,126,244,331,317,258
126,175,48,-151,39,112,-39,126,234,312,292,244
122,156,34,-139,43,95,-34,117,224,292,268,229
117,146,29,-131,43,87,-29,117,214,273,253,214
112,136,24,-124,43,80,-24,117,204,253,239,200
107,126,19,-117,43,73,-19,117,195,234,224,185
97,112,14,-104,41,63,-9,112,175,214,200,170
97,97,0,-97,48,48,-9,107,165,204,185,156
97,82,-14,-90,56,34,-9,102,156,195,170,141
97,68,-29,-82,63,19,-9,97,146,185,156,126
92,53,-39,-73,65,7,-4,92,136,175,146,117
87,48,-39,-68,63,4,0,87,126,165,136,107
82,43,-39,-63,61,2,4,82,117,156,126,97
78,39,-39,-58,58,0,9,78,107,146,117,87
87,29,-58,-58,73,-14,9,73,92,131,102,82
87,29,-58,-58,73,-14,9,68,87,126,97,78
87,29,-58,-58,73,-14,9,63,82,122,92,73
87,29,-58,-58,73,-14,9,58,78,117,87,68
73,14,-58,-43,65,-21,0,53,63,102,78,58
68,9,-58,-39,63,-24,0,48,58,97,78,58
63,4,-58,-34,61,-26,0,43,53,92,78,58
58,0,-58,-29,58,-29,0,39,48,87,78,58
68,-9,-78,-29,73,-43,4,39,48,78,73,48
68,-9,-78,-29,73,-43,9,39,48,78,68,48
68,-9,-78,-29,73,-43,14,39,48,78,63,48
68,-9,-78,-29,73,-43,19,39,48,78,58,48
58,-19,-78,-19,68,-48,19,39,43,78,68,39
58,-19,-78,-19,68,-48,19,39,39,78,68,39
58,-19,-78,-19,68,-48,19,39,34,78,68,39
58,-19,-78,-19,68,-48,19,39,29,78,68,39
68,-19,-87,-24,78,-53,19,29,29,78,58,39
68,-19,-87,-24,78,-53,19,29,29,78,58,39
68,-19,-87,-24,78,-53,19,29,29,78,58,39
68,-19,-87,-24,78,-53,19,29,29,78,58,39
58,-19,-78,-19,68,-48,19,39,29,68,58,48
58,-19,-78,-19,68,-48,19,39,29,68,58,48
58,-19,-78,-19,68,-48,19,39,29,68,58,48
58,-19,-78,-19,68,-48,19,39,29,68,58,48
53,-24,-78,-14,65,-51,29,29,39,68,48,39
48,-29,-78,-9,63,-53,29,29,39,68,48,39
43,-34,-78,-4,61,-56,29,29,39,68,48,39
39,-39,-78,0,58,-58,29,29,39,68,48,39
53,-29,-82,-12,68,-56,19,39,29,68,48,39
58,-29,-87,-14,73,-58,19,39,29,68,48,39
63,-29,-92,-17,78,-61,19,39,29,68,48,39
68,-29,-97,-19,82,-63,19,39,29,68,48,39
58,-39,-97,-9,78,-68,19,39,39,58,48,39
48,-39,-87,-4,68,-63,19,39,39,58,48,39
39,-39,-78,0,58,-58,19,39,39,58,48,39
29,-39,-68,4,48,-53,19,39,39,58,48,39
43,-29,-73,-7,58,-51,9,48,29,58,48,39
48,-29,-78,-9,63,-53,9,48,29,58,48,39
53,-29,-82,-12,68,-56,9,48,29,58,48,39
58,-29,-87,-14,73,-58,9,48,29,58,48,39
48,-19,-68,-14,58,-43,19,39,29,58,39,34
48,-19,-68,-14,58,-43,19,39,29,58,39,29
48,-19,-68,-14,58,-43,19,39,29,58,39,24
48,-19,-68,-14,58,-43,19,39,29,58,39,19
58,-9,-68,-24,63,-39,19,39,29,68,48,9
58,-9,-68,-24,63,-39,19,39,29,68,48,9
58,-9,-68,-24,63,-39,19,39,29,68,48,9
58,-9,-68,-24,63,-39,19,39,29,68,48,9
48,-19,-68,-14,58,-43,19,39,39,68,48,24
48,-29,-78,-9,63,-53,19,39,39,68,48,29
48,-39,-87,-4,68,-63,19,39,39,68,48,34
48,-48,-97,0,73,-73,19,39,39,68,48,39
48,-68,-117,9,82,-92,29,39,29,58,48,48
68,-48,-117,-9,92,-82,19,29,29,58,48,39
48,-48,-97,0,73,-73,9,29,29,48,39,29
43,-58,-102,7,73,-80,19,39,19,48,39,19
39,-58,-97,9,68,-78,19,39,19,48,39,19
34,-58,-92,12,63,-75,19,39,19,48,39,19
29,-58,-87,14,58,-73,19,39,19,48,39,19
29,-58,-87,14,58,-73,19,34,9,39,29,19
29,-58,-87,14,58,-73,19,29,9,39,29,19
29,-58,-87,14,58,-73,19,24,9,39,29,19
29,-58,-87,14,58,-73,19,19,9,39,29,19
39,-68,-107,14,73,-87,19,29,9,48,39,9
39,-68,-107,14,73,-87,19,29,9,48,39,9
39,-68,-107,14,73,-87,19,29,9,48,39,9
39,-68,-107,14,73,-87,19,29,9,48,39,9
39,-68,-107,14,73,-87,19,19,19,48,39,14
39,-68,-107,14,73,-87,19,19,19,48,39,19
39,-68,-107,14,73,-87,19,19,19,48,39,24
39,-68,-107,14,73,-87,19,19,19,48,39,29
29,-78,-107,24,68,-92,29,29,19,48,39,39
29,-78,-107,24,68,-92,29,29,19,48,39,39
29,-78,-107,24,68,-92,29,29,19,48,39,39
29,-78,-107,24,68,-92,29,29,19,48,39,39
34,-63,-97,14,65,-80,19,19,14,39,29,39
39,-58,-97,9,68,-78,19,19,9,39,29,39
43,-53,-97,4,70,-75,19,19,4,39,29,39
48,-48,-97,0,73,-73,19,19,0,39,29,39
48,-48,-97,0,73,-73,19,9,0,29,19,24
48,-48,-97,0,73,-73,19,9,0,29,19,19
48,-48,-97,0,73,-73,19,9,0,29,19,14
48,-48,-97,0,73,-73,19,9,0,29,19,9
39,-48,-87,4,63,-68,19,9,-9,29,29,19
39,-48,-87,4,63,-68,19,9,-9,29,29,19
39,-48,-87,4,63,-68,19,9,-9,29,29,19
39,-48,-87,4,63,-68,19,9,-9,29,29,19
29,-63,-92,17,61,-78,9,0,-9,19,19,19
29,-68,-97,19,63,-82,9,0,-9,19,19,19
29,-73,-102,21,65,-87,9,0,-9,19,19,19
29,-78,-107,24,68,-92,9,0,-9,19,19,19
19,-87,-107,34,63,-97,9,-9,-9,19,19,9
19,-87,-107,34,63,-97,9,-9,-9,19,19,9
19,-87,-107,34,63,-97,9,-9,-9,19,19,9
19,-87,-107,34,63,-97,9,-9,-9,19,19,9
24,-87,-112,31,68,-100,9,0,-9,19,19,19
29,-87,-117,29,73,-102,9,0,-9,19,19,19
34,-87,-122,26,78,-104,9,0,-9,19,19,19
39,-87,-126,24,82,-107,9,0,-9,19,19,19
39,-87,-126,24,82,-107,19,0,-9,19,9,9
39,-87,-126,24,82,-107,19,0,-9,19,9,9
39,-87,-126,24,82,-107,19,0,-9,19,9,9
39,-87,-126,24,82,-107,19,0,-9,19,9,9
48,-78,-126,14,87,-102,19,0,-9,19,9,9
48,-78,-126,14,87,-102,19,0,-9,19,9,9
48,-78,-126,14,87,-102,19,0,-9,19,9,9
48,-78,-126,14,87,-102,19,0,-9,19,9,9
48,-78,-126,14,87,-102,9,-9,-19,19,9,19
48,-78,-126,14,87,-102,9,-9,-19,19,9,19
48,-78,-126,14,87,-102,9,-9,-19,19,9,19
48,-78,-126,14,87,-102,9,-9,-19,19,9,19
58,-82,-141,12,100,-112,19,0,-9,29,14,29
58,-87,-146,14,102,-117,19,0,-9,29,19,29
58,-92,-151,17,104,-122,19,0,-9,29,24,29
58,-97,-156,19,107,-126,19,0,-9,29,29,29
53,-112,-165,29,109,-139,29,9,0,29,29,39
48,-117,-165,34,107,-141,29,9,0,29,29,39
43,-122,-165,39,104,-143,29,9,0,29,29,39
39,-126,-165,43,102,-146,29,9,0,29,29,39
39,-136,-175,48,107,-156,29,19,0,39,39,29
39,-136,-175,48,107,-156,29,19,0,39,39,29
39,-136,-175,48,107,-156,29,19,0,39,39,29
39,-136,-175,48,107,-156,29,19,0,39,39,29
39,-122,-161,41,100,-141,24,4,-4,34,34,24
39,-117,-156,39,97,-136,19,0,-9,29,29,19
39,-112,-151,36,95,-131,14,-4,-14,24,24,14
39,-107,-146,34,92,-126,9,-9,-19,19,19,9
48,-97,-146,24,97,-122,9,-9,-19,19,19,0
48,-97,-146,24,97,-122,9,-9,-19,19,19,0
48,-97,-146,24,97,-122,9,-9,-19,19,19,0
48,-97,-146,24,97,-122,9,-9,-19,19,19,0
58,-107,-165,24,112,-136,19,-9,-19,19,29,4
58,-107,-165,24,112,-136,19,-9,-19,19,29,9
