I,II,III,aVR,aVL,aVF,V1,V2,V3,V4,V5,V6
-29,-29,0,29,-14,-14,9,58,146,97,-9,-58
-28,-28,0,28,-14,-14,9,57,144,96,-6,-58
-28,-28,0,28,-14,-14,9,57,141,96,-4,-58
-29,-29,0,29,-14,-14,8,58,137,97,-1,-57
-29,-29,0,29,-14,-14,8,58,136,97,0,-57
-24,-26,-2,25,-11,-14,9,57,135,96,1,-58
-19,-24,-5,21,-7,-14,9,57,135,96,3,-58
-13,-21,-8,17,-2,-14,8,58,135,97,6,-57
-9,-19,-10,14,0,-14,8,58,135,97,8,-58
-8,-16,-8,12,0,-12,9,57,137,96,9,-58
-8,-14,-6,11,-1,-10,9,57,140,96,9,-57
-9,-11,-2,10,-3,-6,8,58,144,97,8,-57
-8,-9,-1,8,-3,-5,8,58,145,97,8,-57
-9,-8,1,8,-5,-3,9,56,146,95,8,-58
-9,-9,0,9,-4,-4,9,53,145,92,8,-58
-7,-8,-1,7,-3,-4,8,50,146,89,9,-57
-8,-8,0,8,-4,-4,8,48,146,87,9,-57
-14,-14,0,14,-7,-7,9,47,144,86,6,-58
-23,-23,0,23,-11,-11,9,47,141,86,4,-58
-32,-33,-1,32,-15,-17,8,48,138,87,1,-57
-38,-38,0,38,-19,-19,8,48,136,87,0,-57
-40,-40,0,40,-20,-20,9,47,135,86,0,-58
-39,-39,0,39,-19,-19,9,47,135,86,0,-58
-38,-39,-1,38,-18,-20,8,48,136,87,0,-57
-38,-39,-1,38,-18,-20,8,48,136,87,0,-57
-39,-37,2,38,-20,-17,9,45,135,87,0,-58
-39,-34,5,36,-22,-14,9,43,135,87,0,-58
-39,-30,9,34,-24,-10,8,40,136,86,0,-57
-39,-29,10,34,-24,-9,8,39,136,86,0,-57
-38,-28,10,33,-24,-9,9,38,135,87,0,-58
-38,-28,10,33,-24,-9,9,38,135,87,0,-58
-39,-29,10,34,-24,-9,8,38,136,86,0,-57
-39,-29,10,34,-24,-9,8,38,136,86,0,-57
-37,-28,9,32,-23,-9,11,40,135,88,1,-58
-34,-28,6,31,-20,-11,13,42,135,91,3,-58
-31,-28,3,29,-17,-12,16,45,136,94,6,-57
-29,-28,1,28,-15,-13,18,47,136,96,8,-57
-28,-29,-1,28,-13,-15,21,48,135,97,9,-58
-28,-29,-1,28,-13,-15,23,48,135,97,9,-58
-29,-28,1,28,-15,-13,26,47,136,96,8,-57
-28,-28,0,28,-14,-14,28,47,136,96,8,-57
-29,-30,-1,29,-14,-15,29,48,135,97,9,-58
-29,-33,-4,31,-12,-18,29,48,135,97,9,-58
-28,-37,-9,32,-9,-23,28,47,136,96,8,-57
-28,-38,-10,33,-9,-24,28,47,136,96,8,-57
-32,-39,-7,35,-12,-23,29,48,135,97,8,-58
-38,-38,0,38,-19,-19,29,48,135,97,8,-58
-45,-39,6,42,-25,-16,29,47,136,96,9,-57
-48,-39,9,43,-28,-15,29,47,136,96,9,-57
-43,-35,8,39,-25,-13,28,48,135,97,8,-58
-34,-29,5,31,-19,-12,28,48,135,97,8,-58
-25,-23,2,24,-13,-10,29,47,136,96,9,-57
-19,-19,0,19,-9,-9,29,47,136,96,9,-57
-17,-18,-1,17,-8,-9,27,48,135,97,6,-59
-18,-18,0,18,-9,-9,24,48,135,97,4,-62
-19,-19,0,19,-9,-9,21,47,136,96,1,-65
-19,-19,0,19,-9,-9,19,47,136,96,0,-67
-18,-18,0,18,-9,-9,18,48,136,97,0,-68
-18,-18,0,18,-9,-9,18,48,136,97,0,-68
-18,-18,0,18,-9,-9,19,47,135,96,0,-67
-18,-18,0,18,-9,-9,19,47,135,96,0,-67
-19,-19,0,19,-9,-9,18,48,136,96,0,-68
-19,-19,0,19,-9,-9,18,48,136,96,0,-68
-18,-18,0,18,-9,-9,19,47,135,97,0,-67
-18,-18,0,18,-9,-9,19,47,135,97,0,-67
-22,-20,2,21,-12,-9,18,48,136,96,0,-68
-28,-23,5,25,-16,-9,18,48,136,96,0,-68
-34,-27,7,30,-20,-10,19,47,135,97,0,-67
-38,-28,10,33,-24,-9,19,47,135,97,0,-67
-39,-29,10,34,-24,-9,18,47,136,96,0,-68
-39,-28,11,33,-25,-8,18,47,136,96,0,-68
-39,-29,10,34,-24,-9,19,48,135,97,0,-67
-39,-29,10,34,-24,-9,19,48,135,97,0,-67
-35,-23,12,29,-23,-5,18,47,136,96,0,-68
-29,-14,15,21,-22,0,18,47,136,96,0,-68
-22,-4,18,13,-20,7,19,48,135,97,0,-67
-18,0,18,9,-18,9,19,48,135,97,0,-67
-22,-2,20,12,-21,9,14,47,136,96,0,-68
-28,-8,20,18,-24,6,9,47,136,96,0,-68
-34,-14,20,24,-27,3,3,48,135,97,0,-67
-38,-18,20,28,-29,1,0,48,135,97,0,-67
-40,-20,20,30,-30,0,0,47,136,96,0,-68
-39,-19,20,29,-29,0,0,47,136,96,0,-68
-33,-13,20,23,-26,3,0,48,135,97,0,-67
-29,-9,20,19,-24,5,0,48,135,97,0,-67
-27,-7,20,17,-23,6,1,47,136,96,0,-68
-24,-4,20,14,-22,8,3,47,136,96,0,-68
-15,5,20,5,-17,12,4,48,135,99,0,-67
-9,13,22,-2,-15,17,4,48,135,101,0,-67
-11,11,22,0,-16,16,2,47,136,102,-1,-68
-18,4,22,7,-20,13,0,47,136,102,-3,-68
-25,-1,24,13,-24,11,-2,48,135,102,-6,-67
-28,-3,25,15,-26,11,-3,48,135,102,-8,-67
-29,-4,25,16,-27,10,-4,47,136,99,-9,-68
-29,-4,25,16,-27,10,-4,47,136,97,-9,-68
-28,-3,25,15,-26,11,-3,48,133,96,-9,-67
-28,-3,25,15,-26,11,-3,48,131,96,-9,-67
-28,-3,25,15,-26,11,-3,47,130,97,-6,-68
-28,-3,25,15,-26,11,-3,47,130,97,-4,-68
-29,-4,25,16,-27,10,-4,48,130,96,-1,-67
-29,-4,25,16,-27,10,-4,48,130,96,0,-67
-27,-2,25,14,-26,11,-2,47,133,99,0,-68
-24,0,24,12,-24,12,0,47,135,101,0,-68
-21,2,23,9,-22,12,2,50,136,102,0,-67
-19,3,22,8,-20,12,3,52,136,102,0,-67
-18,4,22,7,-20,13,4,54,135,101,0,-68
-18,3,21,7,-19,12,4,53,135,101,0,-68
-18,4,22,7,-20,13,3,50,136,102,0,-67
-18,4,22,7,-20,13,4,48,136,102,0,-67
-20,1,21,9,-20,11,3,47,134,99,-1,-70
-23,-3,20,13,-21,8,3,47,131,97,-3,-72
-26,-12,14,19,-20,1,4,48,128,96,-6,-73
-28,-18,10,23,-19,-4,4,48,126,96,-8,-73
-29,-20,9,24,-19,-5,2,47,125,96,-9,-72
-28,-19,9,23,-18,-5,0,47,126,96,-9,-72
-29,-19,10,24,-19,-4,0,48,125,99,-9,-73
-29,-19,10,24,-19,-4,0,48,125,101,-9,-73
-26,-14,12,20,-19,-1,1,47,129,102,-6,-71
-24,-9,15,16,-19,3,3,47,135,102,-4,-68
-21,-5,16,13,-18,5,9,48,141,101,-1,-65
-19,-4,15,11,-17,5,13,48,145,101,0,-63
-16,-2,14,9,-15,6,14,47,146,102,0,-62
-14,0,14,7,-14,7,14,47,146,102,0,-62
-11,2,13,4,-12,7,14,48,146,101,0,-63
-9,3,12,3,-10,7,14,48,146,101,0,-63
-8,4,12,2,-10,8,12,46,144,102,0,-62
-8,3,11,2,-9,7,9,43,141,102,0,-62
-9,4,13,2,-11,8,6,40,138,101,0,-63
-9,4,13,2,-11,8,4,38,136,101,0,-63
-8,2,10,3,-9,6,3,40,135,102,0,-62
-8,0,8,4,-8,4,3,42,136,102,0,-62
-9,0,9,4,-9,4,4,43,135,101,0,-63
-9,0,9,4,-9,4,4,43,135,101,0,-63
-8,1,9,3,-8,5,3,42,138,102,0,-63
-8,3,11,2,-9,7,3,42,140,102,0,-63
-9,4,13,2,-11,8,4,43,141,101,0,-62
-9,4,13,2,-11,8,4,42,141,101,0,-62
-8,1,9,3,-8,5,3,43,140,102,0,-63
-8,-3,5,5,-6,1,3,43,140,101,0,-63
-9,-10,-1,9,-4,-5,4,42,141,102,0,-62
-9,-13,-4,11,-2,-8,4,42,141,102,0,-62
-6,-10,-4,8,-1,-7,3,44,140,101,0,-63
-4,-4,0,4,-2,-2,3,47,141,101,0,-63
-1,1,2,0,-1,1,4,50,140,102,0,-62
0,3,3,-1,-1,3,4,52,140,102,0,-62
0,4,4,-2,-2,4,3,53,141,101,0,-64
0,4,4,-2,-2,4,3,53,141,101,0,-67
0,3,3,-1,-1,3,4,52,140,102,0,-70
0,3,3,-1,-1,3,4,52,140,102,0,-72
0,4,4,-2,-2,4,3,53,143,101,0,-73
0,3,3,-1,-1,3,3,53,145,101,0,-73
0,4,4,-2,-2,4,4,52,146,102,0,-72
0,4,4,-2,-2,4,4,52,146,102,0,-72
-1,3,4,-1,-2,3,3,53,145,101,0,-73
-3,3,6,0,-4,4,3,53,145,101,0,-73
-6,4,10,1,-8,7,4,50,146,102,0,-72
-8,4,12,2,-10,8,4,48,146,102,0,-72
-12,0,12,6,-12,6,2,45,142,101,-1,-73
-13,-3,10,8,-11,3,0,43,140,101,-3,-73
-12,-5,7,8,-9,1,-1,40,150,105,-3,-68
-9,-4,5,6,-7,0,-3,42,192,116,3,-63
-6,1,7,2,-6,4,-8,53,283,140,21,-57
-4,13,17,-4,-10,15,-13,67,401,173,47,-48
-1,31,32,-15,-16,31,-20,74,514,213,75,-31
3,52,49,-27,-23,50,-28,63,588,256,105,-14
11,68,57,-39,-23,62,-38,23,588,299,138,-5
18,77,59,-47,-20,68,-52,-54,478,335,169,3
24,79,55,-51,-15,67,-72,-180,237,359,196,20
28,91,63,-59,-17,77,-105,-362,-85,383,227,42
33,127,94,-80,-30,110,-155,-602,-432,421,268,64
38,178,140,-108,-51,159,-216,-873,-792,461,320,90
44,226,182,-135,-69,204,-284,-1153,-1174,495,383,126
52,262,210,-157,-79,236,-371,-1475,-1617,529,464,173
64,282,218,-173,-77,250,-491,-1866,-2149,576,569,233
81,301,220,-191,-69,260,-629,-2269,-2708,636,697,304
103,335,232,-219,-64,283,-763,-2616,-3217,713,849,384
134,383,249,-258,-57,316,-888,-2885,-3659,824,1041,483
176,439,263,-307,-43,351,-1002,-3079,-4038,977,1282,610
217,499,282,-358,-32,390,-1113,-3247,-4375,1132,1541,746
248,559,311,-403,-31,435,-1225,-3435,-4685,1251,1787,872
281,621,340,-451,-29,480,-1333,-3605,-4940,1379,2044,1000
330,688,358,-509,-14,523,-1430,-3716,-5111,1561,2341,1142
392,749,357,-570,17,553,-1523,-3788,-5222,1763,2666,1300
461,795,334,-628,63,564,-1621,-3851,-5301,1940,2999,1472
528,837,309,-682,109,573,-1718,-3893,-5328,2087,3329,1652
586,886,300,-736,143,593,-1803,-3894,-5277,2210,3645,1831
632,930,298,-781,167,614,-1867,-3857,-5139,2291,3900,1989
663,954,291,-808,186,622,-1900,-3786,-4916,2307,4052,2109
682,970,288,-826,197,629,-1911,-3692,-4618,2252,4116,2184
691,991,300,-841,195,645,-1908,-3583,-4266,2128,4118,2216
696,1000,304,-848,196,652,-1884,-3459,-3916,1954,4071,2220
701,973,272,-837,214,622,-1832,-3321,-3620,1737,3969,2203
689,897,208,-793,240,552,-1741,-3158,-3380,1406,3731,2140
643,763,120,-703,261,441,-1606,-2960,-3174,910,3291,2006
582,587,5,-584,288,296,-1440,-2718,-2956,384,2739,1813
526,387,-139,-456,332,124,-1262,-2428,-2684,-10,2192,1586
479,182,-297,-330,388,-57,-1084,-2106,-2378,-229,1691,1346
442,-11,-453,-215,447,-232,-916,-1768,-2067,-276,1254,1112
414,-183,-597,-115,505,-390,-761,-1436,-1759,-235,890,896
394,-323,-717,-35,555,-520,-622,-1129,-1457,-194,607,706
375,-411,-786,18,580,-598,-506,-871,-1181,-157,401,546
354,-438,-792,42,573,-615,-416,-679,-950,-112,264,418
327,-438,-765,55,546,-601,-348,-532,-762,-69,164,311
294,-449,-743,77,518,-596,-294,-406,-609,-43,71,215
259,-458,-717,99,488,-587,-249,-296,-478,-29,-15,129
226,-443,-669,108,447,-556,-208,-202,-355,-20,-89,54
196,-410,-606,107,401,-508,-171,-124,-243,-14,-148,-6
168,-372,-540,102,354,-456,-138,-61,-145,-13,-192,-55
142,-337,-479,97,310,-408,-108,-15,-65,-23,-227,-95
114,-310,-424,98,269,-367,-80,12,-4,-46,-258,-131
83,-284,-367,100,225,-325,-54,37,55,-67,-282,-163
47,-249,-296,101,171,-272,-30,74,130,-71,-292,-188
15,-206,-221,95,118,-213,-9,120,215,-58,-287,-199
-4,-156,-152,80,74,-154,7,164,299,-34,-268,-196
-13,-108,-95,60,41,-101,23,202,367,-9,-244,-185
-15,-70,-55,42,20,-62,39,228,407,6,-224,-175
-14,-43,-29,28,7,-36,52,243,428,13,-209,-165
-11,-27,-16,19,2,-21,61,250,442,17,-199,-152
-9,-19,-10,14,0,-14,67,252,452,18,-195,-141
-8,-14,-6,11,-1,-10,73,254,458,21,-194,-138
-8,-13,-5,10,-1,-9,77,257,462,23,-195,-140
-9,-15,-6,12,-1,-10,78,265,469,24,-193,-141
-9,-14,-5,11,-2,-9,78,272,477,23,-190,-141
-8,-6,2,7,-5,-2,77,276,484,25,-187,-140
-8,3,11,2,-9,7,77,277,487,28,-185,-140
-9,10,19,0,-14,14,79,278,488,32,-182,-141
-9,13,22,-2,-15,17,81,278,487,33,-180,-141
-8,17,25,-4,-16,21,84,277,489,33,-180,-138
-8,18,26,-5,-17,22,86,277,491,33,-180,-136
-11,18,29,-3,-20,23,89,279,494,37,-176,-135
-13,18,31,-2,-22,24,91,282,496,42,-170,-135
-14,21,35,-3,-24,28,92,285,499,46,-164,-136
-14,23,37,-4,-25,30,92,286,501,47,-161,-135
-13,24,37,-5,-25,30,91,287,502,48,-160,-136
-13,23,36,-5,-24,29,91,287,502,47,-160,-136
-14,25,39,-5,-26,32,93,286,501,48,-161,-133
-13,28,41,-7,-27,34,96,286,501,48,-161,-131
-14,32,46,-9,-30,39,99,289,502,46,-160,-130
-14,33,47,-9,-30,40,101,291,502,43,-160,-130
-13,33,46,-10,-29,39,102,292,501,40,-161,-131
-13,33,46,-10,-29,39,102,291,501,39,-161,-130
-16,36,52,-10,-34,44,102,294,502,38,-158,-131
-18,38,56,-10,-37,47,102,296,502,38,-156,-131
-19,39,58,-10,-38,48,101,297,501,39,-157,-128
-18,39,57,-10,-37,48,101,297,501,39,-160,-126
-20,38,58,-9,-39,48,104,296,502,36,-162,-125
-23,38,61,-7,-42,49,106,296,502,34,-161,-125
-26,40,66,-7,-46,53,107,299,501,32,-158,-128
-28,42,70,-7,-49,56,107,301,501,33,-156,-130
-29,43,72,-7,-50,57,106,302,502,36,-155,-131
-29,43,72,-7,-50,57,106,301,502,38,-155,-131
-28,42,70,-7,-49,56,109,303,501,39,-156,-128
-28,42,70,-7,-49,56,111,306,501,38,-156,-126
-28,46,74,-9,-51,60,112,309,502,39,-156,-125
-28,52,80,-12,-54,66,112,311,502,39,-156,-126
-29,58,87,-14,-58,72,111,312,501,36,-155,-124
-29,62,91,-16,-60,76,112,311,501,34,-155,-122
-28,65,93,-18,-60,79,111,313,504,33,-158,-121
-28,67,95,-19,-61,81,111,316,506,34,-160,-121
-31,72,103,-20,-67,87,114,319,507,32,-161,-121
-33,77,110,-22,-71,93,116,321,507,29,-161,-121
-34,79,113,-22,-73,96,117,322,506,27,-160,-123
-34,78,112,-22,-73,95,117,322,506,24,-160,-125
-34,77,111,-21,-72,94,116,321,507,18,-162,-126
-34,77,111,-21,-72,94,116,321,507,14,-164,-126
-32,79,111,-23,-71,95,119,323,506,13,-167,-125
-29,81,110,-26,-69,95,121,325,506,14,-169,-125
-26,82,108,-28,-67,95,122,328,507,12,-172,-128
-24,82,106,-29,-65,94,122,330,507,9,-174,-130
-23,81,104,-29,-63,92,121,332,506,4,-174,-131
-23,81,104,-29,-63,92,122,335,506,0,-174,-131
-26,84,110,-29,-68,97,121,340,507,-2,-177,-130
-28,86,114,-29,-71,100,121,345,507,-3,-179,-130
-29,87,116,-29,-72,101,123,348,506,-6,-179,-131
-29,87,116,-29,-72,101,125,350,506,-8,-179,-131
-28,86,114,-29,-71,100,128,355,509,-11,-184,-130
-28,86,114,-29,-71,100,130,360,511,-13,-189,-130
-31,87,118,-28,-74,102,133,365,512,-16,-192,-133
-33,87,120,-27,-76,103,135,369,511,-18,-194,-135
-34,86,120,-26,-77,103,136,375,513,-20,-199,-136
-34,86,120,-26,-77,103,135,379,516,-23,-203,-136
-33,87,120,-27,-76,103,136,382,519,-28,-205,-134
-33,87,120,-27,-76,103,140,384,521,-33,-204,-131
-36,84,120,-24,-78,102,148,389,524,-38,-202,-127
-38,82,120,-22,-79,101,155,394,526,-42,-203,-126
-39,81,120,-21,-79,100,159,399,529,-48,-210,-127
-38,81,119,-21,-78,100,160,404,530,-57,-218,-130
-40,81,121,-20,-80,101,162,409,531,-68,-224,-133
-42,81,123,-19,-82,102,164,413,531,-77,-228,-135
-45,83,128,-19,-86,105,166,418,529,-82,-231,-138
-47,86,133,-19,-90,109,169,423,527,-86,-233,-140
-50,89,139,-19,-94,114,174,427,523,-93,-238,-140
-52,91,143,-19,-97,117,179,433,521,-101,-243,-140
-53,92,145,-19,-99,118,182,442,523,-108,-250,-145
-52,92,144,-20,-98,118,184,452,526,-116,-257,-150
-54,89,143,-17,-98,116,189,460,527,-125,-265,-153
-57,87,144,-15,-100,115,194,467,527,-135,-272,-155
-60,88,148,-14,-104,118,199,475,526,-143,-276,-160
-62,91,153,-14,-107,122,203,482,527,-150,-282,-164
-63,95,158,-16,-110,126,208,487,526,-156,-293,-167
-62,97,159,-17,-110,128,213,491,526,-164,-306,-169
-64,92,156,-14,-110,124,219,498,527,-177,-316,-174
-67,87,154,-10,-110,120,223,506,527,-194,-325,-179
-73,86,159,-6,-116,122,226,514,522,-209,-336,-182
-77,87,164,-5,-120,125,228,521,517,-223,-350,-184
-79,84,163,-2,-121,123,233,528,514,-237,-366,-188
-81,78,159,1,-120,118,238,535,512,-252,-383,-194
-86,72,158,7,-122,115,244,543,507,-268,-400,-201
-91,68,159,11,-125,113,252,550,502,-285,-413,-208
-93,66,159,13,-126,112,262,557,498,-301,-423,-214
-92,67,159,12,-125,113,272,565,497,-316,-433,-218
-91,69,160,11,-125,114,279,574,497,-329,-446,-223
-91,68,159,11,-125,113,286,584,497,-344,-461,-228
-93,61,154,16,-123,107,294,592,493,-364,-478,-235
-96,53,149,21,-122,101,301,599,488,-388,-495,-243
-101,47,148,27,-124,97,306,604,485,-413,-514,-253
-106,43,149,31,-127,96,311,609,483,-437,-534,-262
-112,38,150,37,-131,94,318,616,479,-456,-554,-269
-116,34,150,41,-133,92,325,623,473,-472,-573,-277
-119,32,151,43,-135,91,330,628,463,-488,-591,-287
-121,29,150,46,-135,89,335,633,453,-510,-608,-296
-126,22,148,52,-137,85,342,641,446,-542,-627,-302
-130,14,144,58,-137,79,350,648,439,-577,-647,-306
-130,8,138,61,-134,73,356,651,429,-608,-667,-313
-130,4,134,63,-132,69,360,652,419,-632,-686,-321
-135,0,135,67,-135,67,363,655,412,-650,-703,-328
-140,-3,137,71,-138,67,365,657,405,-666,-720,-335
-141,-7,134,74,-137,63,367,658,396,-688,-740,-343
-140,-9,131,74,-135,61,369,657,385,-715,-759,-350
-142,-7,135,74,-138,64,372,658,373,-745,-773,-356
-145,-4,141,74,-143,68,374,658,361,-773,-784,-360
-148,-1,147,74,-147,73,375,654,351,-793,-795,-363
-150,0,150,75,-150,75,375,649,341,-812,-809,-365
-153,0,153,76,-153,76,375,644,332,-837,-823,-368
-155,0,155,77,-155,77,375,639,318,-861,-838,-369
-156,0,156,78,-156,78,373,630,297,-878,-849,-370
-156,0,156,78,-156,78,370,619,278,-892,-857,-370
-155,0,155,77,-155,77,367,609,271,-908,-864,-368
-155,0,155,77,-155,77,366,600,268,-925,-872,-366
-156,0,156,78,-156,78,364,591,259,-939,-883,-363
-156,0,156,78,-156,78,361,580,248,-950,-892,-361
-153,-1,152,77,-152,75,357,569,239,-958,-895,-359
-151,-3,148,77,-149,72,351,556,229,-965,-896,-356
-150,-4,146,77,-148,71,344,542,217,-971,-900,-351
-150,-4,146,77,-148,71,336,528,204,-975,-902,-346
-151,-2,149,76,-150,73,328,512,193,-978,-896,-343
-151,0,151,75,-151,75,322,498,185,-979,-888,-341
-148,2,150,73,-149,76,317,483,179,-980,-883,-339
-146,3,149,71,-147,76,312,469,175,-980,-878,-336
-143,4,147,69,-145,75,305,454,170,-976,-869,-331
-141,3,144,69,-142,73,297,439,165,-966,-858,-326
-136,5,141,65,-138,73,290,426,160,-952,-850,-321
-131,8,139,61,-135,73,283,414,156,-936,-844,-317
-126,14,140,56,-133,77,274,402,153,-925,-836,-312
-122,18,140,52,-131,79,263,390,151,-917,-824,-307
-118,19,137,49,-127,78,251,378,146,-908,-810,-300
-116,18,134,49,-125,76,239,366,141,-897,-795,-292
-120,20,140,50,-130,80,232,356,139,-885,-783,-285
-125,23,148,51,-136,85,224,346,140,-869,-771,-278
-126,26,152,50,-139,89,213,334,143,-848,-758,-268
-122,28,150,47,-136,89,200,322,145,-825,-742,-258
-114,32,146,41,-130,89,191,312,145,-805,-723,-252
-102,38,140,32,-121,89,185,302,145,-786,-703,-248
-89,48,137,20,-113,92,180,292,149,-767,-683,-244
-78,57,135,10,-106,96,175,283,155,-747,-664,-239
-73,59,132,7,-102,95,167,275,160,-725,-648,-233
-73,58,131,7,-102,94,161,268,164,-703,-634,-229
-71,59,130,6,-100,94,159,261,167,-681,-623,-227
-68,62,130,3,-99,96,156,253,169,-659,-611,-224
-63,65,128,-1,-95,96,147,246,172,-635,-592,-217
-58,67,125,-4,-91,96,136,239,174,-611,-571,-209
-54,68,122,-7,-88,95,130,232,175,-588,-552,-204
-52,67,119,-7,-85,93,126,224,175,-567,-537,-200
-55,68,123,-6,-89,95,120,217,174,-547,-522,-194
-57,68,125,-5,-91,96,112,209,174,-528,-508,-190
-56,65,121,-4,-88,93,104,199,174,-507,-491,-189
-53,63,116,-5,-84,89,97,190,174,-484,-474,-190
-49,61,110,-6,-79,85,91,185,175,-462,-457,-186
-47,62,109,-7,-78,85,87,180,175,-440,-440,-180
-49,65,114,-8,-81,89,82,173,174,-421,-421,-174
-48,67,115,-9,-81,91,78,165,174,-401,-401,-170
-39,68,107,-14,-73,87,74,159,177,-379,-382,-167
-29,68,97,-19,-63,82,73,156,179,-357,-367,-165
-25,67,92,-21,-58,79,73,154,180,-338,-354,-160
-24,67,91,-21,-57,79,73,151,179,-318,-342,-156
-21,68,89,-23,-55,78,71,146,182,-295,-326,-153
-19,68,87,-24,-53,77,68,141,184,-269,-308,-151
-18,67,85,-24,-51,76,65,138,185,-246,-288,-147
-19,67,86,-24,-52,76,63,136,185,-225,-269,-141
-17,68,85,-25,-51,76,60,133,184,-207,-255,-133
-14,68,82,-27,-48,75,58,131,184,-191,-244,-126
-11,65,76,-27,-43,70,58,130,184,-174,-232,-122
-9,63,72,-27,-40,67,58,131,184,-157,-219,-117
-6,62,68,-28,-37,65,54,129,185,-139,-207,-109
-4,62,66,-29,-35,64,48,126,185,-123,-195,-102
-3,63,66,-30,-34,64,43,121,182,-109,-183,-100
-3,62,65,-29,-34,63,39,117,180,-97,-171,-101
-4,63,67,-29,-35,65,35,117,179,-86,-158,-100
-4,63,67,-29,-35,65,34,117,179,-73,-146,-97
-3,60,63,-28,-33,61,34,113,180,-61,-136,-94
-3,58,61,-27,-32,59,34,107,180,-48,-126,-92
-4,57,61,-26,-32,59,31,104,177,-36,-116,-89
-4,57,61,-26,-32,59,29,102,175,-24,-107,-87
-2,58,60,-28,-31,59,29,99,175,-13,-99,-84
0,58,58,-29,-29,58,29,97,175,-4,-92,-82
0,57,57,-28,-28,57,25,94,172,0,-85,-80
0,57,57,-28,-28,57,19,92,170,3,-78,-78
1,60,59,-30,-29,59,15,90,169,10,-70,-75
3,62,59,-32,-28,60,14,87,170,18,-63,-73
6,63,57,-34,-25,60,13,82,167,24,-57,-70
8,63,55,-35,-23,59,13,78,165,28,-53,-68
9,60,51,-34,-21,55,13,75,165,32,-48,-68
9,58,49,-33,-20,53,13,73,165,38,-43,-68
8,55,47,-31,-19,51,14,70,161,45,-38,-65
8,53,45,-30,-18,49,14,68,156,52,-34,-63
9,50,41,-29,-16,45,11,65,152,55,-31,-62
9,48,39,-28,-15,43,9,63,151,57,-29,-63
8,48,40,-28,-16,44,8,62,150,62,-26,-60
8,48,40,-28,-16,44,9,63,150,67,-24,-58
9,45,36,-27,-13,40,6,61,151,68,-21,-57
9,43,34,-26,-12,38,4,58,151,67,-19,-57
8,42,34,-25,-13,38,3,54,148,70,-17,-58
8,42,34,-25,-13,38,3,52,146,72,-14,-58
9,43,34,-26,-12,38,4,55,145,73,-9,-57
9,42,33,-25,-12,37,4,57,146,72,-4,-57
8,43,35,-25,-13,39,2,56,143,74,-2,-58
8,43,35,-25,-13,39,0,53,141,77,-3,-58
9,41,32,-25,-11,36,-2,52,140,80,-4,-55
9,39,30,-24,-10,34,-3,52,140,81,-4,-53
8,38,30,-23,-11,34,-4,52,140,82,-2,-52
8,38,30,-23,-11,34,-4,52,140,82,0,-52
9,38,29,-23,-10,33,-4,55,143,81,0,-52
9,38,29,-23,-10,33,-4,57,145,81,0,-52
8,40,32,-24,-12,36,-3,56,147,84,1,-55
8,42,34,-25,-13,38,-3,53,146,86,3,-57
9,44,35,-26,-13,39,-6,52,143,87,4,-58
9,43,34,-26,-12,38,-8,53,141,87,4,-58
8,39,31,-23,-11,35,-9,50,140,86,3,-57
8,34,26,-21,-9,30,-9,48,140,86,3,-57
9,30,21,-19,-6,25,-8,47,141,87,3,-57
9,29,20,-19,-5,24,-8,47,141,87,3,-57
8,28,20,-18,-6,24,-9,48,140,86,4,-58
8,29,21,-18,-6,25,-9,47,140,86,4,-58
9,28,19,-18,-5,23,-8,48,141,89,3,-55
9,28,19,-18,-5,23,-8,48,141,91,3,-53
8,31,23,-19,-7,27,-9,45,138,92,6,-52
8,33,25,-20,-8,29,-9,43,136,92,8,-52
9,34,25,-21,-8,29,-6,42,135,91,9,-52
9,33,24,-21,-7,28,-4,42,135,91,9,-52
8,35,27,-21,-9,31,-3,43,136,92,8,-55
8,38,30,-23,-11,34,-3,43,136,92,8,-57
9,41,32,-25,-11,36,-4,42,135,91,9,-58
9,42,33,-25,-12,37,-4,42,135,91,9,-58
8,43,35,-25,-13,39,-3,43,136,92,8,-57
8,43,35,-25,-13,39,-3,43,135,92,8,-57
9,42,33,-25,-12,37,-6,41,136,91,9,-58
9,42,33,-25,-12,37,-8,39,136,91,9,-58
8,43,35,-25,-13,39,-9,36,135,92,7,-57
8,43,35,-25,-13,39,-9,34,135,92,4,-57
9,42,33,-25,-12,37,-6,31,136,91,1,-58
9,42,33,-25,-12,37,-4,29,136,91,0,-58
8,43,35,-25,-13,39,-3,28,133,92,0,-55
8,43,35,-25,-13,39,-3,28,131,92,0,-53
9,42,33,-25,-12,37,-4,29,130,91,0,-52
9,42,33,-25,-12,37,-4,29,130,91,0,-52
8,43,35,-25,-13,39,-3,28,131,92,0,-53
8,42,34,-25,-13,38,-3,28,131,92,0,-53
9,43,34,-26,-12,38,-4,29,130,91,0,-52
9,43,34,-26,-12,38,-4,29,130,91,0,-52
8,42,34,-25,-13,38,-3,28,131,92,0,-55
8,42,34,-25,-13,38,-4,28,131,92,0,-57
9,43,34,-26,-12,38,-3,28,130,91,0,-58
9,43,34,-26,-12,38,-3,28,130,91,0,-58
8,42,34,-25,-13,38,-4,29,131,92,0,-57
8,42,34,-25,-13,38,-4,29,131,92,0,-57
9,43,34,-26,-12,38,-3,28,130,91,0,-58
9,43,34,-26,-12,38,-3,28,130,91,0,-58
8,42,34,-25,-13,38,-4,29,133,92,1,-57
8,42,34,-25,-13,38,-4,29,135,92,3,-57
9,43,34,-26,-12,38,-2,28,136,91,4,-58
9,43,34,-26,-12,38,0,28,136,91,4,-58
8,41,33,-24,-12,37,1,30,135,92,3,-57
8,39,31,-23,-11,35,3,33,135,92,3,-57
9,38,29,-23,-10,33,6,36,136,91,4,-60
9,38,29,-23,-10,33,8,38,136,91,4,-62
8,39,31,-23,-11,35,9,39,136,92,3,-63
8,39,31,-23,-11,35,9,39,136,92,3,-63
9,38,29,-23,-10,33,8,38,135,91,6,-60
9,38,29,-23,-10,33,8,38,135,91,8,-58
8,39,31,-23,-11,35,9,40,136,92,9,-57
8,39,31,-23,-11,35,9,42,136,92,9,-57
9,38,29,-23,-10,33,8,45,133,91,8,-58
9,38,29,-23,-10,33,8,47,131,91,8,-58
8,39,31,-23,-11,35,9,48,130,94,9,-57
8,39,31,-23,-11,35,9,48,130,96,9,-57
9,38,29,-23,-10,33,8,48,133,97,8,-58
9,38,29,-23,-10,33,8,48,135,97,8,-58
8,39,31,-23,-11,35,10,46,136,96,9,-57
8,39,31,-23,-11,35,13,43,136,96,9,-57
9,38,29,-23,-10,33,16,40,135,97,8,-58
9,38,29,-23,-10,33,18,38,135,97,8,-58
6,39,33,-22,-13,36,21,40,136,94,9,-57
0,39,39,-19,-19,39,23,42,136,92,9,-57
-5,38,43,-16,-24,40,24,43,135,91,8,-58
-8,38,46,-15,-27,42,23,43,135,91,8,-58
-6,40,46,-17,-26,43,25,42,136,92,9,-57
0,42,42,-21,-21,42,28,42,136,92,9,-57
5,45,40,-25,-17,42,31,42,135,91,8,-58
8,47,39,-27,-15,43,33,42,135,91,8,-58
9,48,39,-28,-15,43,34,43,136,94,9,-55
9,48,39,-28,-15,43,34,43,136,96,9,-53
9,48,39,-28,-15,43,34,41,135,97,8,-52
9,48,39,-28,-15,43,34,39,135,97,8,-52
7,46,39,-26,-16,42,33,38,136,95,9,-52
4,43,39,-23,-17,41,33,38,136,92,9,-52
1,40,39,-20,-19,39,36,39,135,89,8,-55
0,39,39,-19,-19,39,38,39,135,87,8,-57
0,38,38,-19,-19,38,39,38,136,86,9,-58
0,38,38,-19,-19,38,39,38,136,86,9,-58
0,39,39,-19,-19,39,38,39,135,87,8,-57
0,39,39,-19,-19,39,39,39,135,87,8,-57
0,38,38,-19,-19,38,38,38,136,86,9,-58
0,38,38,-19,-19,38,38,38,136,86,9,-58
0,39,39,-19,-19,39,40,39,135,87,8,-57
0,39,39,-19,-19,39,42,39,135,87,8,-57
1,38,37,-19,-18,37,45,39,136,86,9,-58
3,38,35,-20,-16,36,47,39,136,86,9,-58
6,40,34,-23,-14,37,50,38,135,88,8,-57
8,42,34,-25,-13,38,52,38,135,91,8,-57
9,43,34,-26,-12,38,53,39,136,94,9,-58
9,43,34,-26,-12,38,53,39,136,96,9,-58
8,42,34,-25,-13,38,52,38,135,100,8,-57
8,42,34,-25,-13,38,52,38,135,102,8,-57
9,43,34,-26,-12,38,53,39,136,100,9,-58
9,43,34,-26,-12,38,53,39,136,97,9,-58
8,43,35,-25,-13,39,53,38,133,96,8,-57
8,43,35,-25,-13,39,53,38,131,96,8,-57
8,42,34,-25,-13,38,52,40,132,97,9,-58
8,42,34,-25,-13,38,52,42,135,97,9,-58
9,43,34,-26,-12,38,53,45,138,96,8,-57
9,43,34,-26,-12,38,53,47,140,96,8,-57
8,41,33,-24,-12,37,51,47,143,99,9,-58
8,39,31,-23,-11,35,48,47,145,101,9,-58
9,36,27,-22,-9,31,45,49,146,102,8,-57
9,34,25,-21,-8,29,43,52,146,102,8,-57
7,31,24,-19,-8,27,42,54,145,101,9,-58
4,29,25,-16,-10,27,42,53,145,101,9,-58
1,26,25,-13,-12,25,43,50,146,102,8,-57
0,24,24,-12,-12,24,43,48,146,102,8,-57
0,24,24,-12,-12,24,42,47,144,99,9,-58
0,24,24,-12,-12,24,42,47,141,97,9,-58
0,21,21,-10,-10,21,43,48,138,96,8,-55
0,19,19,-9,-9,19,43,48,136,97,8,-53
0,18,18,-9,-9,18,42,47,135,94,9,-52
0,18,18,-9,-9,18,42,47,135,92,9,-52
0,18,18,-9,-9,18,45,48,135,91,8,-53
0,18,18,-9,-9,18,47,48,135,91,8,-53
0,21,21,-10,-10,21,48,47,137,92,9,-52
0,23,23,-11,-11,23,47,47,140,92,9,-52
0,24,24,-12,-12,24,50,47,143,91,8,-53
0,24,24,-12,-12,24,52,47,145,91,8,-53
0,22,22,-11,-11,22,53,48,146,92,9,-52
0,19,19,-9,-9,19,53,48,146,92,9,-52
0,16,16,-8,-8,16,52,47,145,91,8,-53
0,14,14,-7,-7,14,52,47,145,91,8,-53
0,13,13,-6,-6,13,53,48,146,92,9,-52
0,13,13,-6,-6,13,53,48,146,92,9,-52
0,14,14,-7,-7,14,52,47,145,91,8,-53
0,14,14,-7,-7,14,52,47,145,91,8,-53
0,11,11,-5,-5,11,53,50,146,92,9,-51
0,9,9,-4,-4,9,53,52,146,92,9,-48
0,8,8,-4,-4,8,52,53,145,91,8,-45
0,8,8,-4,-4,8,52,53,145,91,8,-43
0,11,11,-5,-5,11,53,52,148,93,10,-42
0,13,13,-6,-6,13,53,52,150,96,13,-42
0,14,14,-7,-7,14,52,53,151,99,16,-43
0,14,14,-7,-7,14,52,53,151,101,18,-43
0,13,13,-6,-6,13,53,52,150,102,19,-42
0,13,13,-6,-6,13,53,52,150,102,19,-42
0,14,14,-7,-7,14,52,53,151,101,19,-43
0,14,14,-7,-7,14,52,53,151,101,19,-43
-1,12,13,-5,-7,12,53,52,150,101,17,-42
-3,9,12,-3,-7,10,53,52,151,101,14,-42
-6,6,12,0,-9,9,52,52,150,102,11,-43
-8,4,12,2,-10,8,52,52,150,102,9,-43
-9,3,12,3,-10,7,53,53,151,100,8,-43
-9,3,12,3,-10,7,53,53,151,97,8,-43
-9,3,12,3,-10,7,52,52,150,94,9,-42
-9,3,12,3,-10,7,52,52,150,92,9,-42
-7,5,12,1,-9,8,54,53,153,91,8,-43
-4,8,12,-2,-8,10,57,53,155,91,9,-43
-1,11,12,-5,-6,11,60,52,156,91,8,-42
0,13,13,-6,-6,13,62,52,156,91,8,-42
0,14,14,-7,-7,14,63,53,156,93,9,-43
0,14,14,-7,-7,14,62,53,156,96,9,-43
0,14,14,-7,-7,14,63,51,155,98,8,-42
0,14,14,-7,-7,14,63,48,155,101,8,-42
0,13,13,-6,-6,13,59,44,160,107,11,-43
0,13,13,-6,-6,13,53,42,176,115,18,-43
3,17,14,-10,-5,15,49,44,210,126,26,-39
8,23,15,-15,-3,19,43,43,256,143,40,-34
11,30,19,-20,-4,24,35,33,311,169,61,-29
13,41,28,-27,-7,34,25,20,376,204,88,-20
17,57,40,-37,-11,48,14,8,448,246,118,-5
23,79,56,-51,-16,67,1,-26,484,291,151,12
31,102,71,-66,-20,86,-16,-114,425,335,190,26
38,123,85,-80,-23,104,-39,-257,240,371,229,40
42,139,97,-90,-27,118,-68,-447,-78,395,263,61
47,157,110,-102,-31,133,-110,-680,-469,420,301,88
57,190,133,-123,-38,161,-176,-954,-853,460,354,118
71,233,162,-152,-45,197,-261,-1259,-1238,506,420,151
86,275,189,-180,-51,232,-355,-1585,-1659,544,495,191
100,309,209,-204,-54,259,-459,-1932,-2121,584,591,245
113,327,214,-220,-50,270,-576,-2297,-2619,642,720,316
128,343,215,-235,-43,279,-701,-2652,-3120,721,880,402
149,372,223,-260,-37,297,-827,-2960,-3588,816,1066,498
180,417,237,-298,-28,327,-947,-3200,-3991,938,1282,608
225,472,247,-348,-11,359,-1053,-3367,-4307,1096,1536,740
272,533,261,-402,5,397,-1153,-3505,-4565,1259,1805,880
310,594,284,-452,13,439,-1255,-3660,-4800,1394,2068,1013
345,655,310,-500,17,482,-1354,-3802,-4988,1524,2332,1144
393,717,324,-555,34,520,-1443,-3879,-5094,1684,2615,1285
454,773,319,-613,67,546,-1530,-3910,-5135,1861,2922,1442
524,816,292,-670,116,554,-1625,-3930,-5140,2023,3248,1618
592,853,261,-722,165,557,-1712,-3934,-5102,2148,3560,1794
645,893,248,-769,198,570,-1773,-3903,-5002,2223,3815,1947
684,928,244,-806,220,586,-1803,-3835,-4817,2240,3990,2070
709,947,238,-828,235,592,-1806,-3734,-4533,2198,4072,2157
721,951,230,-836,245,590,-1789,-3608,-4191,2092,4066,2202
720,945,225,-832,247,585,-1756,-3464,-3849,1916,3982,2199
713,917,204,-815,254,560,-1702,-3305,-3538,1673,3829,2158
703,853,150,-778,276,501,-1615,-3129,-3276,1369,3609,2094
682,751,69,-716,306,410,-1499,-2934,-3055,1002,3297,1996
636,613,-23,-624,329,295,-1358,-2714,-2855,579,2870,1851
577,438,-139,-507,358,149,-1193,-2452,-2636,183,2364,1657
521,231,-290,-376,405,-29,-1008,-2133,-2363,-92,1840,1419
473,24,-449,-248,461,-212,-826,-1792,-2062,-234,1357,1171
435,-144,-579,-145,507,-361,-672,-1479,-1775,-263,967,951
407,-272,-679,-67,543,-475,-545,-1195,-1502,-225,675,763
387,-370,-757,-8,572,-563,-434,-932,-1234,-173,464,599
368,-429,-797,30,582,-613,-337,-703,-985,-123,313,460
345,-443,-788,49,566,-615,-255,-529,-775,-78,198,345
316,-435,-751,59,533,-593,-191,-399,-608,-42,107,250
281,-432,-713,75,497,-572,-145,-295,-479,-20,30,168
243,-430,-673,93,458,-551,-106,-206,-369,-9,-39,96
207,-414,-621,103,414,-517,-67,-122,-261,-6,-104,27
174,-384,-558,105,366,-471,-28,-51,-158,-8,-159,-32
143,-347,-490,102,316,-418,5,2,-72,-16,-197,-78
115,-311,-426,98,270,-368,35,39,-4,-31,-225,-113
91,-283,-374,96,232,-328,62,65,54,-51,-249,-141
66,-256,-322,95,194,-289,88,92,116,-67,-266,-162
36,-222,-258,93,147,-240,113,130,193,-66,-270,-176
7,-180,-187,86,97,-183,133,174,276,-50,-260,-180
-12,-136,-124,74,56,-130,146,214,350,-26,-240,-175
-23,-96,-73,59,25,-84,155,244,404,-2,-216,-166
-26,-66,-40,46,7,-53,162,262,429,14,-196,-157
-24,-45,-21,34,-1,-33,169,272,437,23,-181,-147
-21,-30,-9,25,-6,-19,174,278,447,27,-171,-135
-19,-19,0,19,-9,-9,179,282,457,28,-165,-126
-18,-14,4,16,-11,-5,182,284,461,31,-164,-126
-18,-13,5,15,-11,-4,184,286,462,33,-165,-130
-20,-15,5,17,-12,-5,185,293,466,34,-163,-132
-23,-14,9,18,-16,-2,185,301,472,33,-161,-131
-26,-6,20,16,-23,7,184,305,476,35,-158,-130
-28,2,30,13,-29,16,184,306,477,38,-156,-130
-29,7,36,11,-32,21,186,307,477,41,-153,-131
-29,8,37,10,-33,22,189,307,477,42,-151,-131
-28,9,37,9,-32,23,192,306,479,43,-150,-128
-28,9,37,9,-32,23,194,306,482,42,-150,-126
-31,6,37,12,-34,21,195,308,485,43,-151,-125
-33,4,37,14,-35,20,195,311,487,43,-151,-125
-34,3,37,15,-35,20,192,314,490,41,-150,-126
-34,3,37,15,-35,20,190,316,491,39,-151,-126
-33,3,36,15,-34,19,189,317,492,38,-150,-125
-33,3,36,15,-34,19,189,317,492,38,-150,-122
-34,5,39,14,-36,22,191,316,491,38,-151,-117
-33,8,41,12,-37,24,194,316,491,38,-151,-112
-34,11,45,11,-39,28,197,319,492,40,-149,-111
-34,13,47,10,-40,30,199,321,492,42,-146,-111
-33,14,47,9,-40,30,200,321,491,45,-144,-112
-33,14,47,9,-40,30,200,321,491,47,-141,-111
-36,12,48,12,-42,30,199,325,492,48,-136,-112
-38,9,47,14,-42,28,200,330,492,47,-131,-112
-39,4,43,17,-41,23,199,334,491,48,-129,-110
-39,0,39,19,-39,19,199,335,491,48,-130,-107
-38,-1,37,19,-37,18,201,335,493,45,-131,-106
-38,0,38,19,-38,19,203,335,496,43,-131,-106
-39,1,40,19,-39,20,204,338,499,42,-128,-109
-39,3,42,18,-40,22,204,340,501,42,-126,-111
-38,4,42,17,-40,23,203,341,502,43,-125,-112
-38,4,42,17,-40,23,203,340,502,43,-125,-112
-39,3,42,18,-40,22,206,342,502,41,-126,-109
-39,3,42,18,-40,22,208,345,502,39,-126,-107
-38,5,43,16,-40,24,209,350,500,39,-126,-106
-38,8,46,15,-42,27,209,355,497,39,-126,-107
-39,11,50,14,-44,30,208,358,493,36,-125,-105
-39,13,52,13,-45,32,209,360,491,34,-125,-102
-38,13,51,12,-44,32,208,363,493,33,-128,-101
-38,13,51,12,-44,32,208,365,496,34,-130,-101
-40,15,55,12,-47,35,211,367,497,32,-131,-101
-42,18,60,12,-51,39,213,369,496,29,-131,-101
-45,19,64,13,-54,41,214,372,498,27,-130,-104
-47,19,66,14,-56,42,214,374,501,24,-130,-106
-50,18,68,16,-59,43,213,377,504,19,-132,-107
-52,18,70,17,-61,44,213,379,506,14,-135,-107
-53,19,72,17,-62,45,216,382,507,13,-138,-106
-52,19,71,16,-61,45,218,384,507,13,-140,-106
-53,17,70,18,-61,43,219,387,506,12,-143,-109
-53,14,67,19,-60,40,219,389,506,9,-145,-111
-50,13,63,18,-56,38,218,391,506,4,-145,-112
-48,13,61,17,-54,37,219,394,506,0,-145,-112
-47,15,62,16,-54,38,218,399,507,-2,-148,-111
-47,18,65,14,-56,41,218,404,507,-3,-150,-111
-48,21,69,13,-58,45,220,406,506,-6,-150,-112
-48,23,71,12,-59,47,223,408,506,-8,-150,-112
-47,26,73,10,-60,49,226,412,509,-10,-154,-111
-47,28,75,9,-61,51,228,418,511,-13,-160,-111
-50,29,79,10,-64,54,228,423,510,-17,-162,-114
-52,29,81,11,-66,55,224,428,507,-23,-164,-116
-53,28,81,12,-67,54,219,433,506,-28,-168,-117
-53,28,81,12,-67,54,214,438,506,-33,-174,-116
-52,29,81,11,-66,55,212,441,507,-39,-177,-118
-52,29,81,11,-66,55,213,443,507,-46,-179,-121
-54,26,80,14,-67,53,217,446,506,-54,-181,-123
-57,24,81,16,-69,52,223,452,506,-62,-184,-125
-59,23,82,18,-70,52,228,458,509,-67,-191,-127
-62,23,85,19,-73,54,233,466,511,-72,-198,-130
-67,24,91,21,-79,57,238,474,512,-78,-204,-133
-72,24,96,24,-84,60,243,482,511,-86,-208,-135
-75,23,98,26,-86,60,245,487,513,-91,-212,-137
-77,23,100,27,-88,61,247,491,516,-96,-218,-136
-80,24,104,28,-92,64,252,495,519,-103,-225,-132
-81,24,105,28,-93,64,257,501,521,-110,-232,-130
-80,22,102,29,-91,62,260,508,524,-117,-239,-134
-78,19,97,29,-87,58,262,516,526,-124,-246,-140
-77,14,91,31,-84,52,266,521,527,-134,-254,-143
-77,9,86,34,-81,47,272,526,527,-144,-262,-145
-79,7,86,36,-82,46,277,532,525,-154,-266,-150
-81,8,89,36,-85,48,282,540,522,-163,-271,-155
-82,10,92,36,-87,51,286,545,519,-172,-282,-158
-81,9,90,36,-85,49,291,550,517,-183,-295,-160
-83,3,86,40,-84,44,296,556,517,-196,-306,-164
-86,-3,83,44,-84,40,301,564,517,-211,-315,-169
-91,-6,85,48,-88,39,304,572,512,-227,-325,-172
-96,-8,88,52,-92,40,306,578,507,-241,-338,-174
-99,-12,87,55,-93,37,310,586,506,-256,-354,-178
-101,-18,83,59,-92,32,316,593,506,-270,-372,-183
-106,-23,83,64,-94,30,322,601,506,-286,-388,-191
-111,-28,83,69,-97,27,329,608,502,-304,-403,-199
-114,-31,83,72,-98,26,336,615,497,-323,-414,-204
-116,-33,83,74,-99,25,340,622,492,-343,-426,-208
-119,-35,84,77,-101,24,342,632,490,-362,-442,-212
-121,-38,83,79,-102,22,345,642,488,-381,-460,-218
-123,-44,79,83,-101,17,352,651,484,-402,-477,-224
-125,-51,74,88,-99,11,360,657,478,-425,-494,-232
-129,-57,72,93,-100,7,365,661,475,-450,-512,-242
-135,-62,73,98,-104,5,369,667,473,-474,-532,-251
-140,-67,73,103,-106,3,376,674,471,-494,-553,-259
-145,-72,73,108,-109,0,383,682,468,-509,-572,-266
-147,-75,72,111,-109,-1,389,686,462,-525,-589,-276
-150,-77,73,113,-111,-2,394,691,454,-546,-607,-285
-155,-81,74,118,-114,-3,400,698,447,-578,-625,-291
-160,-86,74,123,-117,-6,407,706,440,-613,-645,-296
-161,-89,72,125,-116,-8,414,709,430,-645,-666,-303
-160,-91,69,125,-114,-11,418,711,420,-669,-685,-311
-164,-94,70,129,-117,-12,418,715,413,-687,-700,-315
-169,-96,73,132,-121,-11,414,721,409,-704,-714,-316
-170,-97,73,133,-121,-12,410,724,404,-725,-731,-318
-169,-96,73,132,-121,-11,408,726,396,-751,-748,-321
-171,-98,73,134,-122,-12,410,728,384,-780,-763,-324
-174,-101,73,137,-123,-14,413,727,371,-806,-777,-325
-177,-104,73,140,-125,-15,414,723,360,-824,-792,-325
-179,-106,73,142,-126,-16,414,717,352,-840,-807,-325
-182,-107,75,144,-128,-16,414,713,344,-864,-821,-327
-184,-107,77,145,-130,-15,414,708,333,-889,-832,-330
-185,-106,79,145,-132,-13,412,699,315,-907,-841,-331
-185,-106,79,145,-132,-13,409,689,298,-920,-848,-331
-184,-107,77,145,-130,-15,407,679,291,-932,-851,-330
-184,-107,77,145,-130,-15,405,669,287,-944,-853,-330
-185,-106,79,145,-132,-13,403,660,279,-953,-858,-331
-185,-106,79,145,-132,-13,400,650,269,-959,-862,-331
-181,-107,74,144,-127,-16,396,639,262,-967,-863,-328
-175,-107,68,141,-121,-19,391,626,258,-974,-862,-323
-171,-105,66,138,-118,-19,384,611,253,-981,-864,-315
-170,-102,68,136,-119,-17,376,597,245,-984,-863,-308
-170,-99,71,134,-120,-14,368,583,235,-984,-854,-302
-170,-97,73,133,-121,-12,361,571,225,-980,-841,-297
-168,-94,74,131,-121,-10,356,560,218,-976,-829,-293
-165,-92,73,128,-119,-9,351,548,214,-971,-820,-287
-163,-91,72,127,-117,-9,345,533,210,-966,-810,-281
-161,-92,69,126,-115,-11,337,519,204,-957,-801,-274
-157,-90,67,123,-112,-11,329,505,198,-944,-793,-266
-151,-87,64,119,-107,-11,322,493,195,-929,-786,-258
-146,-82,64,114,-105,-9,318,481,196,-914,-776,-253
-141,-78,63,109,-102,-7,312,469,199,-899,-763,-248
-137,-77,60,107,-98,-8,305,457,200,-884,-746,-242
-136,-78,58,107,-97,-10,298,445,200,-870,-729,-234
-136,-75,61,105,-98,-7,292,434,199,-855,-714,-229
-136,-69,67,102,-101,-1,288,421,199,-837,-699,-224
-130,-62,68,96,-99,3,280,406,201,-814,-683,-217
-122,-58,64,90,-93,3,269,392,203,-788,-665,-210
-119,-58,61,88,-90,1,258,380,205,-765,-648,-204
-117,-58,59,87,-88,0,249,371,208,-744,-631,-200
-113,-53,60,83,-86,3,242,362,215,-722,-614,-196
-107,-48,59,77,-83,5,235,352,222,-700,-597,-190
-104,-48,56,76,-80,4,225,342,227,-679,-581,-185
-102,-52,50,77,-76,-1,215,332,228,-660,-567,-180
-100,-54,46,77,-73,-4,209,322,229,-642,-556,-178
-97,-53,44,75,-70,-4,205,313,228,-622,-543,-175
-92,-50,42,71,-67,-4,196,305,229,-597,-525,-168
-87,-48,39,67,-63,-4,186,298,229,-570,-505,-157
-83,-47,36,65,-59,-5,179,290,226,-544,-486,-148
-82,-47,35,64,-58,-6,175,283,224,-520,-470,-142
-82,-47,35,64,-58,-6,171,280,223,-500,-455,-135
-82,-47,35,64,-58,-6,165,278,223,-481,-441,-131
-78,-49,29,63,-53,-10,161,274,224,-460,-425,-130
-73,-52,21,62,-47,-15,156,268,224,-437,-407,-131
-71,-55,16,63,-43,-19,151,263,224,-414,-390,-128
-72,-57,15,64,-43,-21,146,258,224,-393,-373,-122
-76,-58,18,67,-47,-20,141,252,223,-373,-353,-117
-78,-58,20,68,-49,-19,136,245,223,-354,-334,-112
-72,-57,15,64,-43,-21,131,238,226,-332,-315,-110
-63,-57,6,60,-34,-25,126,234,228,-310,-299,-107
-62,-58,4,60,-33,-27,123,232,229,-290,-286,-102
-63,-58,5,60,-34,-26,122,229,229,-271,-274,-97
-59,-57,2,58,-30,-27,121,224,229,-249,-262,-96
-53,-57,-4,55,-24,-30,121,219,229,-227,-246,-96
-50,-58,-8,54,-21,-33,122,216,226,-206,-228,-96
-48,-58,-10,53,-19,-34,122,214,224,-187,-211,-92
-46,-57,-11,51,-17,-34,121,211,223,-170,-197,-87
-43,-57,-14,50,-14,-35,121,209,223,-153,-186,-82
-41,-60,-19,50,-11,-39,124,208,223,-137,-175,-80
-39,-62,-23,50,-8,-42,126,209,223,-119,-163,-78
-36,-63,-27,49,-4,-45,123,207,225,-101,-150,-71
-34,-63,-29,48,-2,-46,117,204,228,-84,-138,-63
-33,-62,-29,47,-2,-45,112,199,229,-71,-126,-62
-34,-63,-29,48,-2,-46,107,195,229,-59,-114,-63
-32,-62,-30,47,-1,-46,104,193,228,-48,-101,-60
-29,-62,-33,45,2,-47,102,190,228,-36,-88,-54
-25,-64,-39,44,7,-51,102,184,229,-23,-78,-48
-23,-67,-44,45,10,-55,102,176,229,-11,-69,-43
-25,-70,-45,47,10,-57,99,171,226,0,-61,-40
-28,-72,-44,50,8,-58,97,170,224,12,-54,-39
-29,-75,-46,52,8,-60,97,168,224,23,-48,-37
-29,-77,-48,53,9,-62,97,165,224,32,-43,-34
-29,-80,-51,54,11,-65,93,163,220,38,-37,-31
-29,-81,-52,55,11,-66,87,161,214,42,-30,-29
-27,-82,-55,54,14,-68,83,159,211,48,-22,-27
-24,-82,-58,53,17,-70,82,156,209,56,-15,-24
-21,-81,-60,51,19,-70,81,153,206,62,-9,-21
-19,-81,-62,50,21,-71,81,151,204,67,-4,-19
-18,-84,-66,51,24,-75,81,150,203,71,0,-18
-18,-86,-68,52,25,-77,81,151,204,76,3,-19
-19,-87,-68,53,24,-77,82,149,202,84,8,-18
-19,-87,-68,53,24,-77,82,146,200,91,13,-18
-18,-86,-68,52,25,-77,80,143,199,94,16,-21
-18,-87,-69,52,25,-78,78,141,199,96,18,-23
-19,-86,-67,52,24,-76,76,142,199,101,22,-22
-19,-86,-67,52,24,-76,73,145,199,106,27,-19
-18,-88,-70,53,26,-79,68,147,200,107,34,-18
-18,-91,-73,54,27,-82,63,146,200,106,38,-18
-20,-92,-72,56,26,-82,61,141,197,108,39,-19
-23,-92,-69,57,23,-80,62,136,195,111,38,-19
-26,-91,-65,58,19,-78,63,135,194,112,40,-18
-28,-92,-64,60,18,-78,63,136,195,111,42,-18
-29,-91,-62,60,16,-76,61,132,193,113,42,-19
-29,-91,-62,60,16,-76,58,126,190,116,39,-19
-28,-94,-66,61,19,-80,55,123,189,119,35,-16
-28,-96,-68,62,20,-82,53,122,190,121,33,-14
-29,-97,-68,63,19,-82,52,119,188,122,35,-13
-29,-96,-67,62,19,-81,52,117,185,122,38,-13
-28,-97,-69,62,20,-83,52,116,184,121,39,-13
-28,-97,-69,62,20,-83,52,117,184,121,38,-13
-29,-93,-64,61,17,-78,53,115,185,123,40,-15
-29,-87,-58,58,14,-72,53,112,185,125,42,-18
-28,-83,-55,55,13,-69,51,111,182,126,43,-19
-28,-81,-53,54,12,-67,48,112,180,126,43,-19
-29,-83,-54,56,12,-68,47,110,179,125,42,-18
-29,-86,-57,57,14,-71,47,107,179,125,42,-18
-28,-87,-59,57,15,-73,48,106,180,126,43,-18
-28,-87,-59,57,15,-73,48,106,180,126,42,-18
-29,-86,-57,57,14,-71,47,107,179,124,43,-19
-29,-86,-57,57,14,-71,47,106,179,122,43,-19
-28,-87,-59,57,15,-73,48,107,180,121,42,-17
-28,-87,-59,57,15,-73,48,107,180,121,42,-14
-29,-85,-56,57,13,-70,47,105,177,122,44,-13
-29,-82,-53,55,12,-67,47,102,175,122,47,-13
-28,-81,-53,54,12,-67,49,101,174,121,48,-14
-28,-81,-53,54,12,-67,52,101,175,121,48,-13
-29,-82,-53,55,12,-67,53,102,173,122,46,-14
-29,-81,-52,55,11,-66,53,102,170,122,43,-14
-29,-82,-53,55,12,-67,52,101,167,121,40,-12
-29,-82,-53,55,12,-67,52,101,165,121,39,-9
-28,-80,-52,54,12,-66,53,102,164,122,38,-8
-28,-78,-50,53,11,-64,53,102,164,122,38,-8
-29,-75,-46,52,8,-60,51,100,165,121,38,-9
-29,-73,-44,51,7,-58,48,97,165,121,38,-9
-28,-72,-44,50,8,-58,47,96,164,122,40,-8
-28,-72,-44,50,8,-58,47,96,164,122,42,-8
-29,-72,-43,50,7,-57,50,97,165,121,45,-9
-29,-72,-43,50,7,-57,52,97,165,121,47,-9
-28,-74,-46,51,9,-60,53,96,163,122,48,-7
-28,-77,-49,52,10,-63,53,96,161,122,48,-4
-29,-80,-51,54,11,-65,53,97,160,121,47,-3
-29,-81,-52,55,11,-66,53,97,160,121,47,-3
-28,-82,-54,55,13,-68,51,96,161,122,48,-4
-28,-82,-54,55,13,-68,48,96,161,122,48,-4
-29,-81,-52,55,11,-66,45,97,160,121,47,-3
-29,-81,-52,55,11,-66,43,97,160,121,47,-3
-28,-82,-54,55,13,-68,42,95,161,122,48,-6
-28,-82,-54,55,13,-68,42,92,161,122,48,-8
-29,-81,-52,55,11,-66,43,89,160,121,47,-9
-29,-81,-52,55,11,-66,43,87,160,121,47,-8
-28,-82,-54,55,13,-68,42,86,161,122,48,-10
-28,-82,-54,55,13,-68,42,86,161,122,48,-13
-29,-81,-52,55,11,-66,43,87,160,121,47,-16
-29,-81,-52,55,11,-66,43,87,160,121,47,-18
-27,-82,-55,54,14,-68,42,86,162,122,48,-19
-24,-82,-58,53,17,-70,42,86,164,122,48,-19
-21,-81,-60,51,19,-70,44,87,165,121,46,-19
-19,-81,-62,50,21,-71,47,87,165,121,43,-19
-18,-82,-64,50,23,-73,48,87,164,122,42,-18
-18,-82,-64,50,23,-73,48,87,164,122,42,-18
-19,-80,-61,49,21,-70,47,86,165,121,43,-20
-19,-78,-59,48,20,-68,47,86,165,121,43,-23
-18,-77,-59,47,20,-68,48,87,165,122,42,-24
-18,-77,-59,47,20,-68,48,87,165,122,42,-24
-18,-78,-60,48,21,-69,47,86,164,121,44,-21
-18,-78,-60,48,21,-69,47,86,164,121,47,-19
-19,-77,-58,48,19,-67,48,88,165,122,48,-18
-19,-77,-58,48,19,-67,48,91,165,122,48,-18
-18,-77,-59,47,20,-68,47,94,163,121,47,-19
-18,-77,-59,47,20,-68,47,96,161,121,47,-19
-20,-78,-58,49,19,-68,48,97,158,123,48,-18
-23,-78,-55,50,16,-66,48,97,156,125,48,-18
-26,-77,-51,51,12,-64,47,97,155,126,47,-19
-28,-77,-49,52,10,-63,47,97,155,125,47,-19
-29,-79,-50,54,10,-64,48,95,156,127,48,-18
-29,-81,-52,55,11,-66,48,92,156,130,48,-18
-29,-84,-55,56,13,-69,47,89,155,133,48,-19
-29,-86,-57,57,14,-71,47,87,155,136,48,-19
-27,-87,-60,57,16,-73,49,88,156,134,47,-18
-24,-87,-63,55,19,-75,52,91,156,131,47,-18
-21,-87,-66,54,22,-76,53,92,155,130,48,-19
-19,-87,-68,53,24,-77,53,92,155,130,48,-19
-18,-85,-67,51,24,-76,51,91,156,131,47,-18
-18,-82,-64,50,23,-73,48,91,156,131,47,-18
-19,-80,-61,49,21,-70,45,92,155,130,48,-19
-19,-78,-59,48,20,-68,43,92,155,130,48,-19
-18,-75,-57,46,19,-66,41,90,156,130,47,-18
-18,-73,-55,45,18,-64,39,87,156,130,47,-18
-19,-72,-53,45,17,-62,38,86,155,131,50,-19
-19,-72,-53,45,17,-62,38,86,155,131,52,-19
-18,-72,-54,45,18,-63,40,87,156,130,51,-18
-18,-72,-54,45,18,-63,42,87,156,130,48,-18
-19,-74,-55,46,18,-64,45,86,155,132,47,-19
-19,-77,-58,48,19,-67,47,86,155,135,47,-19
-18,-78,-60,48,21,-69,48,88,156,136,48,-18
-18,-78,-60,48,21,-69,48,91,156,136,48,-18
-19,-77,-58,48,19,-67,48,94,155,135,47,-19
-19,-77,-58,48,19,-67,48,96,155,135,47,-19
-18,-78,-60,48,21,-69,46,97,158,136,48,-18
-18,-78,-60,48,21,-69,43,97,160,136,48,-18
-19,-76,-57,47,19,-66,42,96,161,135,47,-19
-19,-73,-54,46,17,-63,42,96,160,135,47,-19
-18,-72,-54,45,18,-63,43,97,162,137,48,-18
-18,-72,-54,45,18,-63,43,97,164,140,48,-18
-19,-73,-54,46,17,-63,42,97,165,141,47,-19
-19,-73,-54,46,17,-63,43,97,165,141,47,-19
-18,-72,-54,45,18,-63,42,96,164,141,48,-18
-18,-72,-54,45,18,-63,42,96,164,141,48,-18
-19,-73,-54,46,17,-63,43,97,165,139,47,-19
-19,-73,-54,46,17,-63,43,97,165,136,47,-19
-18,-72,-54,45,18,-63,41,95,163,133,48,-18
-18,-72,-54,45,18,-63,39,92,161,131,48,-18
-19,-73,-54,46,17,-63,36,89,160,128,47,-19
-19,-73,-54,46,17,-63,34,87,160,126,47,-19
-18,-73,-55,45,18,-64,33,86,160,125,48,-18
-18,-73,-55,45,18,-64,33,86,160,125,48,-18
-19,-72,-53,45,17,-62,34,86,162,127,47,-19
-19,-72,-53,45,17,-62,34,86,164,130,47,-19
-17,-73,-56,45,19,-64,33,88,165,133,48,-18
-14,-73,-59,43,22,-66,33,91,165,135,48,-18
-11,-72,-61,41,25,-66,33,92,164,138,47,-19
-9,-72,-63,40,27,-67,33,92,164,140,47,-19
-8,-73,-65,40,28,-69,34,89,165,141,48,-18
-8,-73,-65,40,28,-69,34,87,165,141,48,-18
-8,-72,-64,40,28,-68,33,86,164,139,47,-19
-8,-72,-64,40,28,-68,33,86,164,136,47,-19
-10,-74,-64,42,27,-69,34,87,165,134,48,-17
-13,-77,-64,45,25,-70,34,87,165,131,48,-14
-16,-78,-62,47,23,-70,32,86,164,128,47,-13
-18,-78,-60,48,21,-69,29,86,164,126,47,-13
-19,-78,-59,48,20,-68,28,87,165,127,48,-14
-19,-78,-59,48,20,-68,28,87,165,130,48,-14
-18,-76,-58,47,20,-67,28,86,164,131,47,-13
-18,-73,-55,45,18,-64,28,86,165,130,48,-13
-19,-72,-53,45,17,-62,30,86,164,132,47,-14
-19,-72,-53,45,17,-62,33,86,164,135,47,-14
-18,-73,-55,45,18,-64,34,87,165,138,48,-13
-18,-73,-55,45,18,-64,34,87,165,140,48,-13
-19,-72,-53,45,17,-62,33,86,164,141,47,-14
-19,-72,-53,45,17,-62,33,86,164,141,47,-14
-18,-73,-55,45,18,-64,34,87,165,140,48,-13
-18,-73,-55,45,18,-64,34,87,165,140,48,-13
-19,-72,-53,45,17,-62,33,86,164,141,47,-14
-19,-72,-53,45,17,-62,33,86,164,141,47,-14
-18,-74,-56,46,19,-65,34,88,165,140,48,-13
-18,-77,-59,47,20,-68,34,91,165,140,48,-13
-19,-78,-59,48,20,-68,32,92,164,141,47,-14
-19,-78,-59,48,20,-68,29,92,164,141,47,-14
-18,-75,-57,46,19,-66,26,91,166,140,48,-13
-18,-73,-55,45,18,-64,24,91,169,140,48,-13
-19,-72,-53,45,17,-62,23,92,170,141,47,-13
-18,-72,-54,45,18,-63,23,92,170,141,47,-13
-19,-73,-54,46,17,-63,24,91,169,140,48,-14
-19,-73,-54,46,17,-63,24,91,169,140,48,-14
-18,-72,-54,45,18,-63,23,92,170,140,47,-13
-18,-72,-54,45,18,-63,23,92,170,140,47,-13
-19,-73,-54,46,17,-63,24,91,169,141,48,-14
-19,-73,-54,46,17,-63,24,91,170,141,48,-14
-18,-72,-54,45,18,-63,22,91,169,140,47,-13
-18,-72,-54,45,18,-63,19,91,169,140,47,-13
-19,-73,-54,46,17,-63,16,92,170,141,48,-14
-19,-73,-54,46,17,-63,14,92,170,141,48,-14
-18,-72,-54,45,18,-63,12,91,169,140,47,-13
-18,-72,-54,45,18,-63,9,91,169,140,47,-13
-19,-73,-54,46,17,-63,6,92,172,141,48,-14
-19,-73,-54,46,17,-63,4,92,174,141,48,-14
-18,-72,-54,45,18,-63,3,91,174,140,47,-13
-18,-72,-54,45,18,-63,4,91,170,140,47,-13
-19,-73,-54,46,17,-63,3,92,167,141,48,-14
-19,-73,-54,46,17,-63,3,92,165,141,48,-14
-18,-72,-54,45,18,-63,7,90,163,140,47,-13
-18,-72,-54,45,18,-63,12,87,164,140,47,-13
-19,-73,-54,46,17,-63,17,84,169,143,48,-14
-19,-73,-54,46,17,-63,18,82,185,149,52,-14
-15,-70,-55,42,20,-62,18,82,215,157,58,-10
-9,-64,-55,36,23,-59,15,82,261,171,69,-5
-6,-56,-50,31,22,-53,7,79,322,193,88,0
-4,-45,-41,24,18,-43,-2,74,403,226,111,6
-1,-29,-28,15,13,-28,-11,67,508,267,137,21
2,-8,-10,3,6,-9,-21,43,591,315,167,39
9,13,4,-11,2,8,-36,-19,590,364,203,53
17,31,14,-24,1,22,-57,-133,463,407,240,65
23,42,19,-32,2,30,-85,-307,192,434,272,81
28,57,29,-42,0,43,-125,-536,-166,456,304,102
32,89,57,-60,-12,73,-186,-808,-531,491,346,126
37,132,95,-84,-29,113,-261,-1113,-903,533,401,154
42,170,128,-106,-43,149,-339,-1439,-1313,567,467,189
50,196,146,-123,-48,171,-427,-1790,-1774,601,553,236
65,208,143,-136,-39,175,-536,-2173,-2283,650,667,299
86,219,133,-152,-23,176,-663,-2558,-2806,719,810,377
113,248,135,-180,-11,191,-797,-2900,-3293,806,982,465
147,295,148,-221,0,221,-925,-3180,-3720,921,1189,570
191,351,160,-271,15,255,-1037,-3389,-4072,1074,1440,696
238,411,173,-324,32,292,-1139,-3556,-4368,1240,1713,834
277,470,193,-373,42,331,-1243,-3721,-4630,1385,1981,968
313,528,215,-420,49,371,-1345,-3868,-4840,1527,2249,1102
359,587,228,-473,65,407,-1436,-3964,-4966,1699,2537,1246
419,642,223,-530,98,432,-1525,-4017,-5027,1891,2858,1407
493,686,193,-589,150,439,-1626,-4053,-5062,2077,3216,1587
570,723,153,-646,208,438,-1727,-4069,-5062,2239,3574,1772
633,765,132,-699,250,448,-1807,-4051,-4996,2361,3879,1940
680,806,126,-743,277,466,-1857,-3994,-4842,2425,4103,2081
711,836,125,-773,293,480,-1877,-3897,-4588,2413,4227,2192
729,855,126,-792,301,490,-1875,-3771,-4264,2332,4268,2264
735,865,130,-800,302,497,-1858,-3628,-3919,2199,4253,2290
733,855,122,-794,305,488,-1821,-3474,-3595,2004,4175,2275
725,808,83,-766,321,445,-1755,-3308,-3327,1723,4010,2233
704,720,16,-712,344,368,-1658,-3126,-3110,1347,3735,2154
661,595,-66,-628,363,264,-1530,-2917,-2922,884,3332,2026
602,434,-168,-518,385,133,-1374,-2663,-2723,422,2826,1842
544,238,-306,-391,425,-34,-1193,-2348,-2470,76,2260,1602
492,32,-460,-262,476,-214,-1008,-2001,-2183,-128,1705,1341
451,-148,-599,-151,525,-373,-845,-1665,-1903,-211,1232,1106
419,-297,-716,-61,567,-506,-705,-1352,-1630,-210,868,903
397,-416,-813,9,605,-614,-581,-1060,-1352,-170,612,722
378,-492,-870,57,624,-681,-473,-804,-1086,-118,432,562
359,-515,-874,78,616,-694,-387,-603,-863,-70,289,428
332,-508,-840,88,586,-674,-323,-452,-686,-35,172,318
297,-506,-803,104,550,-654,-275,-331,-545,-11,83,227
256,-508,-764,126,510,-636,-237,-229,-425,2,10,147
217,-494,-711,138,464,-602,-198,-137,-309,8,-57,71
182,-465,-647,141,414,-556,-159,-57,-201,9,-119,3
150,-428,-578,139,364,-503,-122,2,-110,3,-165,-45
122,-391,-513,134,317,-452,-88,45,-37,-10,-197,-80
96,-363,-459,133,277,-411,-57,77,21,-29,-225,-110
69,-337,-406,134,237,-371,-29,109,81,-46,-245,-136
37,-304,-341,133,189,-322,-4,148,159,-47,-251,-153
6,-262,-268,128,137,-265,15,194,248,-33,-242,-160
-18,-216,-198,117,90,-207,29,237,332,-10,-223,-157
-32,-173,-141,102,54,-157,40,272,395,14,-199,-148
-36,-139,-103,87,33,-121,54,291,426,33,-179,-138
-34,-116,-82,75,24,-99,69,300,437,46,-163,-128
-31,-99,-68,65,18,-83,83,306,448,53,-152,-115
-29,-88,-59,58,15,-73,91,311,460,57,-146,-103
-28,-83,-55,55,13,-69,92,313,468,60,-145,-101
-28,-81,-53,54,12,-67,88,316,472,62,-145,-105
-29,-83,-54,56,12,-68,82,321,476,63,-145,-110
-29,-83,-54,56,12,-68,78,329,481,62,-145,-111
-28,-75,-47,51,9,-61,77,335,485,64,-147,-112
-28,-64,-36,46,4,-50,77,340,487,67,-150,-111
-29,-59,-30,44,0,-44,79,343,488,70,-151,-112
-29,-58,-29,43,0,-43,81,345,487,72,-151,-112
-28,-56,-28,42,0,-42,83,346,489,72,-151,-108
-28,-53,-25,40,-1,-39,86,345,491,72,-151,-103
-30,-51,-21,40,-4,-36,89,347,493,74,-149,-99
-33,-48,-15,40,-9,-31,91,350,496,77,-146,-97
-34,-44,-10,39,-12,-27,92,353,499,78,-142,-96
-34,-39,-5,36,-14,-22,92,355,501,78,-137,-96
-33,-36,-3,34,-15,-19,91,356,502,77,-133,-97
-33,-34,-1,33,-16,-17,91,356,501,77,-131,-97
-34,-32,2,33,-18,-15,93,355,503,78,-130,-95
-33,-29,4,31,-18,-12,96,355,506,78,-130,-92
-34,-26,8,30,-21,-9,99,358,509,77,-130,-91
-34,-24,10,29,-22,-7,101,360,511,77,-130,-91
-33,-23,10,28,-21,-6,102,359,512,78,-131,-93
-33,-24,9,28,-21,-7,102,356,512,78,-131,-96
-35,-22,13,28,-24,-4,101,355,511,77,-127,-99
-38,-19,19,28,-28,0,101,355,511,77,-122,-101
-39,-18,21,28,-30,1,103,356,512,78,-120,-100
-39,-18,21,28,-30,1,106,356,512,78,-121,-97
-38,-19,19,28,-28,0,111,355,511,76,-122,-95
-38,-19,19,28,-28,0,116,355,511,73,-122,-96
-39,-17,22,28,-30,2,118,359,513,72,-120,-98
-39,-14,25,26,-32,5,117,364,516,72,-117,-101
-38,-13,25,25,-31,6,116,368,519,73,-116,-102
-38,-13,25,25,-31,6,116,369,521,73,-116,-102
-39,-14,25,26,-32,5,119,371,522,71,-117,-99
-39,-14,25,26,-32,5,124,374,522,68,-117,-97
-38,-12,26,25,-32,7,128,377,522,67,-117,-96
-38,-9,29,23,-33,10,130,379,522,68,-117,-97
-39,-6,33,22,-36,13,131,380,521,66,-116,-95
-39,-4,35,21,-37,15,131,379,521,63,-116,-92
-38,-4,34,21,-36,15,130,381,523,62,-118,-91
-38,-4,34,21,-36,15,130,384,526,63,-121,-91
-40,-1,39,20,-39,19,132,387,527,61,-122,-91
-42,3,45,19,-43,24,135,389,527,58,-122,-91
-43,6,49,18,-46,27,136,391,526,56,-121,-93
-43,8,51,17,-47,29,136,394,526,53,-121,-96
-42,10,52,16,-47,31,134,396,528,48,-124,-97
-42,13,55,14,-48,34,131,399,530,43,-129,-97
-43,18,61,12,-52,39,130,401,533,42,-135,-96
-42,23,65,9,-53,44,130,404,535,42,-140,-96
-43,25,68,9,-55,46,131,406,536,42,-143,-98
-43,24,67,9,-55,45,131,408,536,39,-145,-101
-42,23,65,9,-53,44,131,410,535,35,-145,-102
-42,23,65,9,-53,44,131,413,535,30,-145,-102
-44,25,69,9,-56,47,130,417,537,25,-147,-101
-47,28,75,9,-61,51,130,423,540,20,-150,-101
-48,29,77,9,-62,53,132,426,542,14,-150,-102
-48,29,77,9,-62,53,135,428,545,9,-150,-102
-47,28,75,9,-61,51,139,432,548,6,-154,-101
-47,28,75,9,-61,51,144,437,550,4,-160,-101
-49,29,78,10,-63,53,150,442,551,1,-162,-103
-52,29,81,11,-66,55,155,446,550,-2,-164,-106
-53,28,81,12,-67,54,157,452,552,-7,-168,-107
-53,28,81,12,-67,54,156,457,555,-12,-173,-107
-52,31,83,10,-67,57,155,460,556,-17,-177,-106
-52,33,85,9,-68,59,155,462,556,-22,-179,-107
-54,33,87,10,-70,60,159,466,555,-28,-181,-106
-57,29,86,14,-71,57,163,471,555,-32,-183,-106
-58,26,84,16,-71,55,167,476,557,-37,-190,-108
-57,24,81,16,-69,52,169,481,560,-41,-198,-111
-59,22,81,18,-70,51,171,487,561,-48,-204,-113
-62,19,81,21,-71,50,174,495,561,-56,-208,-116
-64,16,80,24,-72,48,176,503,560,-62,-210,-119
-67,14,81,26,-74,47,179,510,561,-66,-213,-122
-70,13,83,28,-76,48,183,515,560,-72,-217,-120
-72,13,85,29,-78,49,189,520,560,-80,-222,-117
-73,14,87,29,-80,50,192,527,562,-87,-229,-118
-72,14,86,29,-79,50,194,534,565,-95,-237,-121
-74,12,86,31,-80,49,197,539,567,-104,-245,-123
-77,9,86,34,-81,47,202,544,569,-114,-251,-125
-80,8,88,36,-84,48,207,551,572,-124,-256,-129
-81,8,89,36,-85,48,212,559,574,-133,-261,-135
-81,9,90,36,-85,49,217,566,575,-142,-271,-138
-78,9,87,34,-82,48,222,573,575,-153,-284,-140
-76,5,81,35,-78,43,228,582,575,-166,-295,-144
-77,0,77,38,-77,38,233,592,575,-181,-304,-149
-81,0,81,40,-81,40,236,601,573,-196,-314,-153
-86,0,86,43,-86,43,238,608,570,-210,-327,-155
-89,-2,87,45,-88,42,241,615,569,-225,-343,-158
-91,-7,84,49,-87,38,246,622,570,-240,-361,-163
-95,-13,82,54,-88,34,253,629,569,-256,-378,-170
-100,-18,82,59,-91,32,261,637,566,-273,-392,-178
-104,-21,83,62,-93,31,269,643,563,-290,-403,-184
-106,-23,83,64,-94,30,276,651,561,-307,-415,-188
-108,-25,83,66,-95,29,281,660,559,-325,-431,-193
-111,-27,84,69,-97,28,285,670,556,-345,-448,-198
-113,-33,80,73,-96,23,292,679,551,-368,-466,-204
-116,-41,75,78,-95,17,300,686,546,-393,-483,-211
-119,-47,72,83,-95,12,306,692,545,-419,-502,-221
-124,-51,73,87,-98,11,310,699,545,-442,-522,-232
-130,-57,73,93,-101,8,317,709,545,-462,-542,-238
-135,-62,73,98,-104,5,324,720,542,-479,-561,-242
-137,-63,74,100,-105,5,329,726,534,-495,-580,-249
-140,-62,78,101,-109,8,334,730,524,-515,-600,-256
-145,-64,81,104,-113,8,341,737,516,-546,-621,-261
-150,-67,83,108,-116,8,349,744,508,-581,-643,-266
-151,-69,82,110,-116,6,355,747,499,-613,-665,-273
-150,-72,78,111,-114,3,360,746,490,-639,-684,-281
-154,-76,78,115,-116,1,363,745,482,-657,-698,-286
-160,-81,79,120,-119,-1,365,745,474,-673,-713,-290
-161,-84,77,122,-119,-3,367,745,466,-694,-731,-295
-161,-86,75,123,-118,-5,369,745,455,-720,-751,-300
-161,-88,73,124,-117,-7,372,746,443,-748,-768,-304
-164,-91,73,127,-118,-9,374,746,431,-774,-781,-306
-166,-95,71,130,-118,-12,373,742,420,-793,-794,-306
-169,-100,69,134,-119,-15,370,737,410,-809,-806,-306
-172,-104,68,138,-120,-18,368,733,403,-832,-819,-308
-174,-106,68,140,-121,-19,366,728,393,-857,-831,-311
-175,-107,68,141,-121,-19,364,720,376,-876,-840,-312
-175,-107,68,141,-121,-19,361,709,359,-889,-847,-312
-174,-106,68,140,-121,-19,359,699,350,-902,-852,-311
-174,-107,67,140,-120,-20,356,690,347,-914,-856,-311
-175,-106,69,140,-122,-18,353,680,339,-923,-864,-312
-175,-106,69,140,-122,-18,347,670,328,-930,-871,-312
-173,-107,66,140,-119,-20,340,660,318,-937,-874,-310
-170,-107,63,138,-116,-22,332,647,309,-944,-873,-307
-169,-104,65,136,-117,-19,325,630,298,-950,-873,-303
-169,-98,71,133,-120,-13,318,610,285,-955,-873,-298
-170,-92,78,131,-124,-7,311,590,274,-956,-867,-293
-170,-87,83,128,-126,-2,303,573,265,-956,-856,-288
-168,-84,84,126,-126,0,297,560,256,-956,-847,-283
-165,-82,83,123,-124,0,293,549,249,-956,-841,-279
-163,-81,82,122,-122,0,287,535,242,-954,-831,-274
-161,-81,80,121,-120,0,279,520,235,-948,-821,-269
-157,-82,75,119,-116,-3,272,505,227,-937,-813,-264
-152,-82,70,117,-111,-6,264,491,220,-925,-806,-259
-146,-80,66,113,-106,-7,258,476,216,-912,-797,-254
-142,-78,64,110,-103,-7,250,461,214,-900,-783,-249
-138,-77,61,107,-99,-8,239,446,210,-886,-766,-241
-136,-78,58,107,-97,-10,226,432,205,-871,-749,-231
-136,-76,60,106,-98,-8,217,419,201,-858,-736,-222
-136,-73,63,104,-99,-5,210,408,200,-843,-724,-215
-131,-70,61,100,-96,-4,202,395,200,-823,-711,-208
-123,-68,55,95,-89,-6,192,382,200,-800,-696,-201
-119,-68,51,93,-85,-8,183,372,197,-779,-679,-195
-117,-68,49,92,-83,-9,176,363,195,-760,-662,-190
-113,-64,49,88,-81,-7,171,352,196,-741,-645,-187
-108,-58,50,83,-79,-4,166,339,199,-721,-628,-185
-104,-57,47,80,-75,-5,157,326,200,-702,-612,-183
-102,-57,45,79,-73,-6,147,315,200,-682,-598,-180
-100,-56,44,78,-72,-6,141,302,199,-663,-586,-178
-97,-53,44,75,-70,-4,137,289,199,-644,-573,-176
-93,-50,43,71,-68,-3,129,279,201,-621,-556,-170
-88,-48,40,68,-64,-4,119,270,203,-596,-535,-162
-84,-48,36,66,-60,-6,112,261,204,-571,-517,-156
-82,-48,34,65,-58,-7,108,254,204,-546,-500,-152
-82,-46,36,64,-59,-5,103,249,203,-524,-486,-146
-82,-43,39,62,-60,-2,98,245,203,-502,-471,-141
-79,-42,37,60,-58,-2,93,238,203,-480,-455,-140
-74,-42,32,58,-53,-5,88,230,203,-458,-438,-141
-69,-43,26,56,-47,-8,83,225,204,-436,-422,-138
-67,-43,24,55,-45,-9,79,220,204,-414,-408,-132
-68,-42,26,55,-47,-8,73,212,202,-394,-392,-126
-68,-42,26,55,-47,-8,65,202,200,-375,-374,-122
-62,-44,18,53,-40,-13,56,193,199,-353,-356,-120
-54,-47,7,50,-30,-20,49,186,199,-331,-339,-117
-51,-48,3,49,-27,-22,45,182,199,-310,-326,-113
-52,-48,4,50,-28,-22,43,180,199,-291,-314,-108
-51,-47,4,49,-27,-21,41,176,201,-272,-302,-104
-48,-47,1,47,-24,-23,39,171,203,-252,-287,-102
-47,-48,-1,47,-23,-24,35,166,204,-234,-269,-99
-48,-48,0,48,-24,-24,30,162,204,-218,-251,-93
-46,-47,-1,46,-22,-24,24,156,204,-201,-237,-87
-43,-47,-4,45,-19,-25,19,151,204,-184,-226,-82
-41,-49,-8,45,-16,-28,18,150,202,-167,-215,-81
-39,-52,-13,45,-13,-32,19,150,200,-150,-203,-79
-36,-53,-17,44,-9,-35,16,150,199,-132,-190,-72
-34,-53,-19,43,-7,-36,10,147,199,-115,-178,-64
-33,-51,-18,42,-7,-34,5,141,200,-101,-166,-61
-34,-48,-14,41,-10,-31,0,136,200,-89,-154,-62
-32,-45,-13,38,-9,-29,-2,135,199,-78,-141,-61
-29,-43,-14,36,-7,-28,-3,136,199,-66,-129,-58
-26,-44,-18,35,-4,-31,-3,132,200,-54,-116,-55
-24,-47,-23,35,0,-35,-3,127,200,-42,-105,-53
-24,-48,-24,36,0,-36,-5,124,198,-29,-93,-51
-24,-48,-24,36,0,-36,-8,122,195,-16,-83,-48
-22,-47,-25,34,1,-36,-8,119,194,-6,-78,-46
-19,-47,-28,33,4,-37,-8,113,195,2,-74,-43
-18,-49,-31,33,6,-40,-11,107,193,7,-68,-41
-19,-52,-33,35,7,-42,-17,102,190,12,-60,-39
-17,-53,-36,35,9,-44,-21,99,189,19,-51,-37
-14,-53,-39,33,12,-46,-23,97,190,27,-44,-34
-11,-52,-41,31,15,-46,-23,94,188,33,-39,-31
-9,-52,-43,30,17,-47,-23,92,185,38,-35,-29
-8,-54,-46,31,19,-50,-25,91,184,41,-30,-29
-8,-57,-49,32,20,-53,-28,92,185,46,-25,-29
-9,-58,-49,33,20,-53,-30,90,183,53,-19,-27
-9,-58,-49,33,20,-53,-33,87,180,61,-15,-24
-8,-57,-49,32,20,-53,-36,84,179,65,-11,-23
-8,-58,-50,33,21,-54,-38,82,179,67,-9,-24
-9,-57,-48,33,19,-52,-39,81,180,71,-7,-22
-9,-57,-48,33,19,-52,-38,81,180,77,-4,-19
-8,-59,-51,33,21,-55,-40,81,179,78,-2,-18
-8,-62,-54,35,23,-58,-42,79,176,77,0,-18
-9,-63,-54,36,22,-58,-43,73,170,79,0,-19
-9,-63,-54,36,22,-58,-43,68,165,81,0,-19
-8,-62,-54,35,23,-58,-42,67,164,82,1,-18
-8,-63,-55,35,23,-59,-42,68,165,81,3,-18
-9,-62,-53,35,22,-57,-44,66,163,83,4,-19
-9,-62,-53,35,22,-57,-47,63,161,86,4,-19
-8,-64,-56,36,24,-60,-50,62,160,89,3,-17
-8,-67,-59,37,25,-63,-52,63,161,91,3,-14
-9,-68,-59,38,25,-63,-53,61,159,92,5,-13
-9,-68,-59,38,25,-63,-53,58,156,92,8,-13
-8,-68,-60,38,26,-64,-52,57,155,91,9,-13
-8,-68,-60,38,26,-64,-52,58,155,91,8,-13
-9,-66,-57,37,24,-61,-52,56,156,93,10,-15
-9,-63,-54,36,22,-58,-52,53,156,96,13,-18
-8,-62,-54,35,23,-58,-53,52,155,97,14,-19
-8,-62,-54,35,23,-58,-53,53,155,97,14,-19
-9,-64,-55,36,23,-59,-51,51,157,96,13,-18
-9,-67,-58,38,24,-62,-48,48,160,96,13,-18
-7,-68,-61,37,27,-64,-47,47,161,97,14,-18
-4,-68,-64,36,30,-66,-47,47,161,97,13,-18
-2,-67,-65,34,31,-66,-47,48,160,96,14,-19
0,-67,-67,33,33,-67,-47,47,160,96,14,-19
0,-68,-68,34,34,-68,-49,48,161,98,13,-17
0,-68,-68,34,34,-68,-52,48,161,101,13,-14
0,-66,-66,33,33,-66,-55,46,159,102,15,-13
0,-63,-63,31,31,-63,-57,43,156,102,18,-14
0,-62,-62,31,31,-62,-56,42,154,101,19,-12
0,-62,-62,31,31,-62,-53,42,151,101,19,-9
0,-63,-63,31,31,-63,-52,43,148,102,18,-8
0,-63,-63,31,31,-63,-52,43,146,102,18,-8
0,-62,-62,31,31,-62,-53,42,145,101,19,-9
0,-62,-62,31,31,-62,-53,42,145,101,19,-9
0,-63,-63,31,31,-63,-52,43,146,102,19,-8
0,-63,-63,31,31,-63,-52,43,146,102,19,-8
0,-62,-62,31,31,-62,-54,41,146,100,18,-10
-3,-62,-59,32,28,-60,-57,39,146,97,18,-13
-6,-63,-57,34,25,-60,-58,38,145,94,19,-16
-8,-63,-55,35,23,-59,-58,38,145,92,19,-18
-9,-62,-53,35,22,-57,-56,39,146,91,17,-19
-9,-62,-53,35,22,-57,-53,39,146,91,14,-19
-8,-63,-55,35,23,-59,-52,38,143,92,11,-17
-8,-63,-55,35,23,-59,-52,38,141,92,9,-14
-9,-62,-53,35,22,-57,-53,39,141,91,8,-13
-9,-62,-53,35,22,-57,-52,39,145,91,8,-13
-8,-63,-55,35,23,-59,-53,38,148,92,9,-14
-8,-63,-55,35,23,-59,-53,38,150,92,9,-14
-9,-62,-53,35,22,-57,-51,39,151,91,8,-12
-9,-62,-53,35,22,-57,-48,39,151,91,8,-9
-8,-63,-55,35,23,-59,-45,38,150,92,8,-8
-8,-63,-55,35,23,-59,-43,38,150,92,8,-8
-9,-62,-53,35,22,-57,-42,39,150,91,9,-9
-9,-62,-53,35,22,-57,-42,39,150,91,9,-9
-8,-63,-55,35,23,-59,-43,38,151,92,8,-8
-8,-63,-55,35,23,-59,-43,38,151,92,8,-8
-9,-62,-53,35,22,-57,-42,39,149,91,10,-9
-9,-62,-53,35,22,-57,-42,39,146,91,13,-9
-8,-63,-55,35,23,-59,-43,38,145,92,16,-8
-8,-63,-55,35,23,-59,-43,39,145,92,18,-8
-9,-62,-53,35,22,-57,-41,38,146,91,17,-9
-9,-62,-53,35,22,-57,-39,38,146,91,14,-9
-8,-63,-55,35,23,-59,-38,39,145,92,13,-8
-8,-63,-55,35,23,-59,-38,39,145,92,14,-8
-9,-61,-52,35,21,-56,-39,38,147,91,12,-10
-9,-58,-49,33,20,-53,-39,38,150,91,9,-13
-8,-57,-49,32,20,-53,-38,39,153,92,6,-14
-8,-57,-49,32,20,-53,-38,39,155,92,4,-14
-9,-58,-49,33,20,-53,-39,38,156,91,5,-12
-9,-58,-49,33,20,-53,-39,38,155,91,8,-9
-8,-57,-49,32,20,-53,-38,39,156,92,9,-8
-8,-58,-50,33,21,-54,-38,39,156,92,9,-8
-9,-57,-48,33,19,-52,-39,38,153,91,8,-9
-9,-57,-48,33,19,-52,-39,38,147,91,8,-9
-8,-58,-50,33,21,-54,-38,39,142,93,9,-8
-8,-58,-50,33,21,-54,-38,39,140,96,9,-8
-9,-56,-47,32,19,-51,-39,38,142,97,8,-9
-9,-53,-44,31,17,-48,-39,38,145,97,8,-9
-8,-50,-42,29,17,-46,-38,39,146,96,9,-8
-8,-48,-40,28,16,-44,-38,39,146,96,9,-9
-9,-47,-38,28,14,-42,-39,37,145,97,8,-8
-9,-47,-38,28,14,-42,-39,34,145,97,8,-8
-8,-48,-40,28,16,-44,-37,33,146,95,9,-9
-8,-48,-40,28,16,-44,-34,33,146,92,9,-9
-9,-47,-38,28,14,-42,-33,34,145,91,8,-8
-9,-47,-38,28,14,-42,-33,34,145,91,8,-8
-8,-48,-40,28,16,-44,-34,33,146,92,9,-9
-8,-48,-40,28,16,-44,-34,33,146,92,9,-9
-9,-47,-38,28,14,-42,-33,35,145,91,8,-7
-9,-47,-38,28,14,-42,-33,38,145,91,8,-4
-8,-48,-40,28,16,-44,-34,41,146,93,9,-3
-8,-48,-40,28,16,-44,-34,42,146,96,9,-3
-9,-47,-38,28,14,-42,-32,41,145,96,8,-3
-9,-48,-39,28,15,-43,-29,39,146,93,8,-3
-8,-47,-39,27,15,-43,-28,38,145,89,9,-5
-8,-47,-39,27,15,-43,-28,38,145,87,9,-8
-9,-48,-39,28,15,-43,-29,39,146,86,8,-9
-9,-48,-39,28,15,-43,-29,39,146,86,8,-9
-8,-47,-39,27,15,-43,-28,38,145,87,9,-8
-8,-47,-39,27,15,-43,-28,38,145,87,9,-8
-9,-48,-39,28,15,-43,-30,39,146,86,8,-9
-9,-48,-39,28,15,-43,-33,39,146,86,8,-9
-8,-47,-39,27,15,-43,-34,38,145,87,9,-8
-8,-47,-39,27,15,-43,-34,38,145,87,9,-8
-9,-48,-39,28,15,-43,-33,39,146,86,8,-9
-9,-48,-39,28,15,-43,-33,39,146,86,8,-9
-8,-46,-38,27,15,-42,-34,38,145,88,9,-8
-8,-43,-35,25,13,-39,-34,38,145,91,9,-8
-9,-42,-33,25,12,-37,-32,38,147,92,8,-9
-9,-42,-33,25,12,-37,-29,38,150,92,8,-9
-8,-43,-35,25,13,-39,-26,39,153,92,9,-8
-8,-43,-35,25,13,-39,-24,39,155,92,9,-8
-9,-42,-33,25,12,-37,-23,38,156,90,8,-9
-9,-42,-33,25,12,-37,-23,38,156,87,8,-9
-8,-43,-35,25,13,-39,-23,39,154,86,9,-8
-8,-43,-35,25,13,-39,-23,39,151,86,9,-8
-9,-42,-33,25,12,-37,-25,38,150,87,8,-9
-9,-42,-33,25,12,-37,-28,38,150,87,8,-9
-8,-43,-35,25,13,-39,-31,39,150,86,9,-8
-8,-43,-35,25,13,-39,-33,39,150,86,9,-8
-9,-42,-33,25,12,-37,-34,38,152,88,8,-9
-9,-42,-33,25,12,-37,-34,38,155,91,8,-9
-8,-43,-35,25,13,-39,-34,40,156,92,9,-8
-8,-43,-35,25,13,-39,-34,42,156,92,9,-8
-9,-42,-33,25,12,-37,-32,43,155,91,8,-9
-9,-42,-33,25,12,-37,-29,43,155,91,9,-9
-8,-43,-35,25,13,-39,-26,41,156,92,8,-8
-8,-43,-35,25,13,-39,-24,39,156,92,8,-8
-9,-42,-33,25,12,-37,-23,38,155,90,9,-9
-9,-42,-33,25,12,-37,-23,38,155,87,9,-9
-8,-44,-36,26,14,-40,-23,39,156,86,8,-7
-8,-47,-39,27,15,-43,-23,39,156,86,8,-4
-9,-48,-39,28,15,-43,-25,38,154,86,9,-3
-9,-48,-39,28,15,-43,-28,38,151,86,9,-3
-8,-48,-40,28,16,-44,-29,39,148,88,8,-4
-8,-48,-40,28,16,-44,-28,39,146,91,8,-4
-11,-46,-35,28,12,-40,-30,38,145,92,9,-3
-17,-43,-26,30,4,-34,-33,38,145,92,9,-3
-23,-42,-19,32,-2,-30,-34,38,145,91,8,-4
-28,-42,-14,35,-7,-28,-34,38,145,91,8,-4
-29,-43,-14,36,-7,-28,-33,39,147,92,9,-3
-29,-43,-14,36,-7,-28,-33,39,150,92,9,-3
-28,-42,-14,35,-7,-28,-34,38,153,91,8,-4
-28,-42,-14,35,-7,-28,-34,38,155,91,8,-4
-29,-43,-14,36,-7,-28,-33,39,156,92,9,-3
-29,-43,-14,36,-7,-28,-33,39,156,92,9,-3
-29,-42,-13,35,-8,-27,-34,38,156,91,8,-4
-29,-42,-13,35,-8,-27,-34,38,156,91,8,-4
-28,-44,-16,36,-6,-30,-33,40,154,92,9,-3
-28,-47,-19,37,-4,-33,-33,42,152,92,9,-3
-29,-48,-19,38,-5,-33,-34,43,148,91,8,-4
-29,-48,-19,38,-5,-33,-34,43,146,91,8,-4
-27,-46,-19,36,-4,-32,-33,42,147,92,9,-3
-24,-43,-19,33,-2,-31,-33,42,150,92,9,-3
-21,-42,-21,31,0,-31,-34,43,151,91,8,-4
-19,-42,-23,30,2,-32,-34,43,150,91,8,-3
-18,-43,-25,30,3,-34,-33,42,152,92,9,-4
-18,-43,-25,30,3,-34,-34,42,155,92,9,-4
-18,-42,-24,30,3,-33,-33,43,158,91,8,-3
-18,-42,-24,30,3,-33,-33,43,160,91,8,-3
-20,-43,-23,31,1,-33,-34,42,161,92,9,-4
-23,-43,-20,33,-1,-31,-34,42,161,92,9,-4
-26,-42,-16,34,-5,-29,-33,42,160,91,8,-3
-28,-42,-14,35,-7,-28,-33,42,160,91,8,-3
-29,-43,-14,36,-7,-28,-34,43,161,92,9,-4
-29,-43,-14,36,-7,-28,-34,43,161,92,9,-4
-28,-42,-14,35,-7,-28,-33,42,160,91,8,-3
-28,-42,-14,35,-7,-28,-33,42,160,91,8,-3
-29,-43,-14,36,-7,-28,-34,43,162,92,9,-4
-29,-43,-14,36,-7,-28,-34,43,164,92,9,-4
-28,-42,-14,35,-7,-28,-33,42,165,91,8,-3
-28,-42,-14,35,-7,-28,-33,42,165,91,8,-3
-29,-43,-14,36,-7,-28,-34,43,165,92,9,-4
-29,-43,-14,36,-7,-28,-34,43,165,92,9,-4
-28,-42,-14,35,-7,-28,-33,42,163,91,8,-3
-28,-42,-14,35,-7,-28,-33,39,163,91,8,-3
-29,-43,-14,36,-7,-28,-35,36,170,94,9,-4
-29,-43,-14,36,-7,-28,-38,34,187,99,12,-4
-26,-41,-15,33,-5,-28,-39,33,218,108,18,-1
-20,-36,-16,28,-2,-26,-41,33,265,121,29,2
-15,-27,-12,21,-1,-19,-48,34,329,139,45,7
-10,-13,-3,11,-3,-8,-59,34,408,165,66,15
-4,4,8,0,-6,6,-70,31,496,199,89,30
1,27,26,-14,-12,26,-82,14,556,236,117,48
9,49,40,-29,-15,44,-100,-32,535,274,148,60
16,68,52,-42,-18,60,-123,-120,397,305,181,69
23,81,58,-52,-17,69,-150,-257,125,323,209,83
27,95,68,-61,-20,81,-189,-443,-237,339,237,104
31,124,93,-77,-31,108,-247,-671,-615,367,276,129
33,166,133,-99,-50,149,-322,-929,-994,404,328,159
35,209,174,-122,-69,191,-404,-1206,-1401,434,391,197
40,244,204,-142,-82,224,-498,-1507,-1851,462,469,246
53,268,215,-160,-81,241,-615,-1848,-2351,504,570,306
74,289,215,-181,-70,252,-749,-2196,-2869,563,698,377
100,321,221,-210,-60,271,-885,-2498,-3355,641,851,456
134,368,234,-251,-50,301,-1013,-2736,-3783,742,1035,552
178,425,247,-301,-34,336,-1126,-2916,-4148,878,1255,671
225,488,263,-356,-19,375,-1228,-3066,-4464,1023,1495,804
265,551,286,-408,-10,418,-1332,-3228,-4753,1141,1727,932
300,614,314,-457,-7,464,-1434,-3385,-4997,1250,1960,1055
342,679,337,-510,2,508,-1528,-3496,-5157,1392,2216,1185
396,740,344,-568,26,542,-1616,-3564,-5242,1560,2497,1329
458,786,328,-622,65,557,-1711,-3616,-5290,1714,2795,1490
523,825,302,-674,110,563,-1804,-3653,-5297,1838,3091,1658
577,873,296,-725,140,584,-1880,-3664,-5242,1928,3360,1818
619,923,304,-771,157,613,-1931,-3642,-5108,1970,3567,1956
647,957,310,-802,168,633,-1955,-3588,-4882,1947,3675,2057
661,975,314,-818,173,644,-1955,-3503,-4580,1864,3694,2117
662,987,325,-824,168,656,-1936,-3397,-4233,1737,3660,2136
655,985,330,-820,162,657,-1895,-3274,-3887,1568,3575,2122
646,953,307,-799,169,630,-1826,-3138,-3589,1343,3424,2083
628,877,249,-752,189,563,-1725,-2981,-3342,1042,3181,2012
587,748,161,-667,213,454,-1589,-2788,-3119,645,2815,1889
530,572,42,-551,244,307,-1425,-2547,-2881,230,2360,1712
471,364,-107,-417,289,128,-1240,-2253,-2592,-75,1880,1489
421,149,-272,-285,346,-61,-1053,-1928,-2268,-238,1427,1250
383,-46,-429,-168,406,-237,-885,-1608,-1954,-280,1041,1029
357,-213,-570,-72,463,-391,-738,-1307,-1655,-245,741,837
338,-350,-688,6,513,-519,-606,-1026,-1359,-188,528,671
322,-445,-767,61,544,-606,-492,-780,-1081,-132,382,529
304,-480,-784,88,544,-632,-403,-592,-848,-83,270,414
281,-475,-756,97,518,-615,-338,-454,-666,-43,180,321
251,-473,-724,111,487,-598,-289,-344,-522,-16,105,245
218,-478,-696,130,457,-587,-250,-250,-400,-2,39,176
187,-469,-656,141,421,-562,-211,-165,-287,2,-29,108
159,-443,-602,142,380,-522,-172,-92,-180,1,-94,45
133,-409,-542,138,337,-475,-136,-35,-89,-5,-144,-2
109,-375,-484,133,296,-429,-105,4,-15,-18,-180,-38
85,-347,-432,131,258,-389,-78,30,45,-39,-210,-70
61,-320,-381,129,221,-350,-54,50,105,-59,-233,-99
32,-288,-320,128,176,-304,-32,79,178,-64,-245,-120
3,-247,-250,122,126,-248,-13,118,261,-53,-242,-130
-18,-202,-184,110,83,-193,0,158,341,-32,-226,-128
-31,-157,-126,94,47,-141,10,192,405,-9,-202,-120
-36,-122,-86,79,25,-104,21,212,440,5,-180,-110
-34,-97,-63,65,14,-80,31,222,454,12,-164,-100
-31,-80,-49,55,9,-64,38,228,466,16,-153,-87
-29,-70,-41,49,6,-55,42,232,479,18,-147,-75
-28,-64,-36,46,4,-50,45,235,487,20,-145,-70
-28,-62,-34,45,3,-48,47,237,490,23,-145,-72
-29,-64,-35,46,3,-49,48,243,495,24,-146,-73
-29,-64,-35,46,3,-49,48,251,500,23,-145,-73
-28,-56,-28,42,0,-42,47,255,504,25,-146,-72
-28,-45,-17,36,-5,-31,47,257,506,27,-146,-72
-29,-39,-10,34,-9,-24,49,258,506,31,-144,-73
-29,-38,-9,33,-10,-23,52,258,506,33,-141,-73
-28,-39,-11,33,-8,-25,54,257,508,34,-140,-71
-28,-38,-10,33,-9,-24,57,257,511,34,-141,-68
-31,-39,-8,35,-11,-23,59,259,513,34,-139,-66
-37,-39,-2,38,-17,-20,62,262,516,34,-137,-63
-41,-37,4,39,-22,-16,63,265,518,32,-133,-60
-42,-34,8,38,-25,-13,63,267,521,29,-131,-58
-43,-34,9,38,-26,-12,62,268,522,28,-130,-57
-43,-38,5,40,-24,-16,62,268,522,28,-130,-58
-42,-40,2,41,-22,-19,64,267,521,29,-131,-56
-42,-39,3,40,-22,-18,67,267,521,29,-131,-53
-43,-37,6,40,-24,-15,70,269,522,28,-130,-52
-43,-34,9,38,-26,-12,72,272,522,28,-130,-52
-42,-33,9,37,-25,-12,73,273,521,29,-131,-53
-42,-34,8,38,-25,-13,72,272,521,29,-131,-52
-44,-32,12,38,-28,-10,74,274,522,28,-128,-53
-47,-29,18,38,-32,-5,77,277,522,28,-123,-53
-48,-28,20,38,-34,-4,79,278,522,29,-120,-51
-48,-28,20,38,-34,-4,81,278,522,29,-121,-48
-47,-29,18,38,-32,-5,83,277,521,28,-123,-47
-47,-29,18,38,-32,-5,86,277,521,28,-125,-47
-48,-27,21,37,-34,-3,87,279,522,30,-126,-49
-48,-24,24,36,-36,0,87,282,522,33,-126,-52
-47,-23,24,35,-35,0,85,282,521,34,-125,-53
-47,-23,24,35,-35,0,82,278,521,34,-125,-53
-48,-24,24,36,-36,0,81,276,522,32,-126,-50
-48,-24,24,36,-36,0,81,277,522,29,-126,-48
-47,-22,25,34,-36,1,82,279,520,28,-126,-49
-47,-20,27,33,-37,3,82,282,518,29,-126,-52
-48,-16,32,32,-40,8,82,283,514,27,-125,-53
-48,-14,34,31,-41,10,82,282,512,24,-125,-53
-47,-13,34,30,-40,10,81,283,513,23,-126,-52
-47,-14,33,30,-40,9,81,286,516,24,-126,-53
-49,-12,37,30,-43,12,83,288,517,22,-124,-52
-52,-9,43,30,-47,17,86,291,517,19,-122,-52
-53,-8,45,30,-49,18,87,293,515,17,-121,-54
-53,-8,45,30,-49,18,87,296,512,15,-121,-57
-53,-9,44,31,-48,17,86,298,509,10,-123,-58
-53,-9,44,31,-48,17,86,301,507,5,-125,-58
-51,-7,44,29,-47,18,89,303,506,3,-127,-56
-48,-4,44,26,-46,20,95,306,506,3,-130,-53
-45,-3,42,24,-43,19,99,308,507,3,-133,-52
-43,-3,40,23,-41,18,101,311,507,1,-135,-52
-42,-4,38,23,-40,17,102,313,506,-3,-135,-53
-42,-4,38,23,-40,17,102,315,506,-7,-135,-53
-44,-2,42,23,-43,20,101,320,507,-11,-137,-52
-47,0,47,23,-47,23,101,325,507,-13,-140,-52
-48,0,48,24,-48,24,103,326,505,-15,-139,-54
-48,0,48,24,-48,24,106,326,502,-18,-136,-57
-47,0,47,23,-47,23,108,326,501,-20,-136,-59
-47,0,47,23,-47,23,111,329,501,-22,-139,-62
-49,0,49,24,-49,24,113,334,501,-26,-142,-64
-52,0,52,26,-52,26,116,339,501,-32,-144,-67
-53,0,53,26,-53,26,117,344,503,-37,-149,-68
-53,0,53,26,-53,26,117,349,506,-41,-154,-68
-52,1,53,25,-52,27,116,352,507,-45,-158,-67
-52,3,55,24,-53,29,116,354,507,-47,-160,-68
-54,4,58,25,-56,31,119,359,506,-49,-161,-67
-57,4,61,26,-59,32,124,364,506,-51,-163,-67
-58,2,60,28,-59,31,128,368,507,-55,-169,-69
-57,0,57,28,-57,28,130,369,507,-60,-177,-72
-59,-1,58,30,-58,28,132,371,505,-68,-184,-74
-62,-3,59,32,-60,28,135,373,502,-75,-188,-77
-63,-4,59,33,-61,27,137,378,500,-81,-191,-79
-63,-4,59,33,-61,27,139,383,497,-85,-194,-81
-62,-3,59,32,-60,28,144,388,494,-91,-197,-81
-63,-4,59,33,-61,27,149,393,492,-99,-202,-81
-62,-3,59,32,-60,28,153,399,493,-107,-208,-83
-62,-3,59,32,-60,28,155,406,496,-114,-216,-86
-64,-5,59,34,-61,27,158,412,497,-122,-224,-86
-66,-8,58,37,-62,25,163,417,497,-132,-232,-86
-70,-10,60,40,-65,25,168,423,495,-142,-236,-89
-72,-13,59,42,-65,23,173,431,492,-152,-241,-95
-73,-15,58,44,-65,21,178,437,490,-162,-251,-99
-72,-17,55,44,-63,19,183,442,488,-171,-264,-101
-73,-22,51,47,-62,14,188,448,488,-181,-274,-105
-76,-28,48,52,-62,10,193,455,488,-191,-280,-110
-81,-29,52,55,-66,11,197,463,485,-200,-288,-114
-85,-28,57,56,-71,14,199,470,479,-210,-298,-116
-88,-31,57,59,-72,13,201,476,474,-222,-311,-119
-90,-37,53,63,-71,8,203,481,469,-238,-326,-123
-95,-42,53,68,-74,5,206,485,463,-255,-340,-130
-100,-46,54,73,-77,4,211,490,455,-272,-352,-138
-104,-50,54,77,-79,2,219,496,447,-288,-363,-144
-106,-52,54,79,-80,1,226,504,440,-302,-375,-149
-108,-53,55,80,-81,1,232,513,435,-315,-390,-154
-111,-56,55,83,-83,0,237,523,430,-330,-408,-159
-113,-62,51,87,-82,-5,243,532,424,-348,-424,-164
-116,-70,46,93,-81,-12,250,539,416,-371,-439,-172
-119,-76,43,97,-81,-16,256,544,410,-397,-454,-182
-124,-80,44,102,-84,-18,261,549,406,-422,-472,-192
-129,-85,44,107,-86,-20,267,555,402,-439,-490,-198
-134,-90,44,112,-89,-23,275,563,397,-449,-506,-202
-137,-94,43,115,-90,-25,281,569,388,-460,-521,-208
-139,-96,43,117,-91,-26,285,573,378,-475,-535,-216
-144,-99,45,121,-94,-27,291,578,368,-502,-552,-223
-150,-101,49,125,-99,-26,299,583,359,-535,-573,-231
-151,-101,50,126,-100,-25,306,585,347,-565,-594,-240
-150,-101,49,125,-99,-26,310,584,334,-588,-613,-250
-153,-104,49,128,-101,-27,313,586,324,-605,-628,-257
-159,-110,49,134,-104,-30,316,589,315,-618,-639,-261
-162,-114,48,138,-105,-33,318,590,304,-636,-653,-266
-161,-116,45,138,-103,-35,321,590,291,-659,-668,-271
-160,-118,42,139,-101,-38,323,590,276,-685,-681,-275
-160,-121,39,140,-99,-41,325,590,258,-710,-693,-277
-160,-123,37,141,-98,-43,326,587,241,-726,-705,-277
-160,-125,35,142,-97,-45,326,581,227,-740,-717,-277
-162,-125,37,143,-99,-44,326,576,217,-761,-730,-279
-164,-123,41,143,-102,-41,326,572,208,-787,-742,-282
-165,-119,46,142,-105,-36,325,564,192,-806,-752,-283
-165,-117,48,141,-106,-34,322,554,174,-819,-759,-283
-164,-116,48,140,-106,-34,320,544,165,-833,-764,-282
-164,-116,48,140,-106,-34,317,534,162,-849,-768,-282
-165,-117,48,141,-106,-34,315,524,155,-861,-776,-283
-165,-116,49,140,-107,-33,313,515,144,-870,-783,-283
-163,-117,46,140,-104,-35,309,504,134,-878,-786,-282
-161,-117,44,139,-102,-36,304,492,125,-885,-785,-279
-160,-115,45,137,-102,-35,297,477,114,-891,-785,-274
-160,-112,48,136,-104,-32,289,462,101,-896,-785,-269
-161,-110,51,135,-106,-29,281,450,89,-897,-781,-264
-161,-107,54,134,-107,-26,275,441,80,-897,-773,-259
-159,-105,54,132,-106,-25,269,433,74,-895,-767,-254
-156,-102,54,129,-105,-24,264,423,69,-893,-763,-249
-155,-101,54,128,-104,-23,259,409,65,-890,-754,-244
-156,-101,55,128,-105,-23,254,394,60,-885,-744,-240
-155,-101,54,128,-104,-23,250,381,53,-875,-735,-235
-152,-98,54,125,-103,-22,245,369,48,-862,-729,-230
-147,-92,55,119,-101,-18,240,359,49,-848,-721,-226
-142,-84,58,113,-100,-13,232,349,55,-834,-711,-221
-138,-79,59,108,-98,-10,221,339,60,-818,-697,-213
-136,-78,58,107,-97,-10,211,329,62,-804,-682,-206
-136,-76,60,106,-98,-8,205,320,62,-793,-670,-200
-136,-74,62,105,-99,-6,201,310,62,-783,-661,-196
-131,-70,61,100,-96,-4,194,298,64,-770,-651,-190
-124,-68,56,96,-90,-6,183,286,67,-752,-638,-182
-119,-68,51,93,-85,-8,173,277,69,-733,-623,-177
-117,-68,49,92,-83,-9,166,270,71,-713,-605,-175
-114,-64,50,89,-82,-7,162,263,76,-694,-588,-173
-108,-59,49,83,-78,-5,158,255,84,-674,-571,-171
-104,-57,47,80,-75,-5,150,248,91,-654,-555,-166
-102,-57,45,79,-73,-6,142,241,95,-635,-540,-162
-100,-57,43,78,-71,-7,139,233,98,-616,-528,-159
-98,-54,44,76,-71,-5,137,226,100,-596,-516,-157
-93,-50,43,71,-68,-3,130,220,106,-575,-501,-151
-88,-48,40,68,-64,-4,120,215,114,-553,-483,-143
-84,-47,37,65,-60,-5,112,210,120,-532,-467,-137
-81,-48,33,64,-57,-7,108,205,124,-513,-452,-132
-83,-46,37,64,-60,-4,104,201,127,-495,-440,-127
-86,-43,43,64,-64,0,98,197,130,-478,-428,-122
-86,-42,44,64,-65,1,93,189,132,-460,-414,-121
-83,-42,41,62,-62,0,88,182,135,-440,-399,-122
-79,-43,36,61,-57,-3,84,177,137,-420,-386,-119
-77,-43,34,60,-55,-4,82,175,140,-401,-374,-114
-79,-42,37,60,-58,-2,81,172,142,-384,-361,-108
-79,-39,40,59,-59,0,79,166,145,-367,-346,-103
-72,-37,35,54,-53,-1,74,161,148,-347,-329,-100
-61,-34,27,47,-44,-3,69,157,150,-324,-312,-98
-54,-32,22,43,-38,-5,66,154,150,-303,-298,-93
-53,-29,24,41,-38,-2,63,152,150,-284,-286,-88
-51,-28,23,39,-37,-2,60,147,153,-266,-275,-85
-48,-28,20,38,-34,-4,54,142,159,-249,-262,-82
-47,-29,18,38,-32,-5,49,138,163,-233,-248,-79
-48,-29,19,38,-33,-5,44,136,164,-218,-233,-74
-46,-28,18,37,-32,-5,40,134,165,-204,-221,-70
-43,-28,15,35,-29,-6,39,131,165,-189,-211,-68
-41,-30,11,35,-26,-9,39,130,164,-175,-203,-68
-39,-33,6,36,-22,-13,39,131,164,-161,-193,-69
-37,-34,3,35,-20,-15,36,130,166,-144,-182,-63
-34,-34,0,34,-17,-17,31,127,169,-127,-169,-54
-33,-33,0,33,-16,-16,25,122,170,-112,-156,-51
-34,-34,0,34,-17,-17,20,117,169,-100,-145,-52
-33,-33,0,33,-16,-16,16,116,170,-90,-132,-52
-30,-33,-3,31,-13,-18,14,117,173,-81,-120,-49
-26,-35,-9,30,-8,-22,13,114,177,-71,-109,-46
-24,-38,-14,31,-5,-26,14,108,179,-61,-100,-43
-25,-39,-14,32,-5,-26,13,105,179,-50,-91,-41
-28,-39,-11,33,-8,-25,13,106,179,-38,-84,-39
-29,-38,-9,33,-10,-23,16,107,181,-26,-78,-37
-29,-38,-9,33,-10,-23,18,107,184,-16,-74,-34
-29,-39,-10,34,-9,-24,16,105,183,-10,-68,-33
-29,-39,-10,34,-9,-24,10,102,180,-5,-60,-33
-28,-37,-9,32,-9,-23,6,100,179,0,-52,-34
-25,-34,-9,29,-8,-21,4,97,180,6,-44,-34
-20,-33,-13,26,-3,-23,3,95,178,12,-40,-32
-15,-33,-18,24,1,-25,3,92,175,17,-39,-29
-11,-35,-24,23,6,-29,3,91,174,21,-38,-28
-9,-38,-29,23,10,-33,3,92,175,26,-35,-29
-8,-39,-31,23,11,-35,4,90,173,33,-30,-27
-8,-39,-31,23,11,-35,4,88,170,41,-25,-24
-9,-38,-29,23,10,-33,2,84,169,45,-21,-23
-9,-39,-30,24,10,-34,0,82,169,46,-19,-24
-8,-38,-30,23,11,-34,0,81,170,51,-17,-22
-8,-38,-30,23,11,-34,0,81,169,56,-15,-19
-9,-40,-31,24,11,-35,-1,81,170,58,-11,-18
-9,-42,-33,25,12,-37,-3,79,170,57,-9,-18
-9,-42,-33,25,12,-37,-3,74,168,59,-8,-19
-9,-40,-31,24,11,-35,-1,69,165,62,-9,-19
-8,-37,-29,22,10,-33,1,67,164,63,-7,-18
-8,-34,-26,21,9,-30,3,68,165,62,-4,-18
-9,-33,-24,21,7,-28,3,66,163,63,-3,-20
-9,-33,-24,21,7,-28,0,63,161,66,-3,-23
-8,-35,-27,21,9,-31,-1,62,160,70,-4,-24
-8,-38,-30,23,11,-34,-3,63,161,72,-4,-24
-10,-39,-29,24,9,-34,-4,61,159,73,-2,-23
-12,-39,-27,25,7,-33,-4,58,156,73,0,-24
-16,-39,-23,27,3,-31,-4,57,155,72,0,-23
-18,-39,-21,28,1,-30,-4,58,155,72,0,-23
-19,-37,-18,28,0,-27,-3,56,156,74,1,-25
-19,-34,-15,26,-2,-24,-3,53,156,77,3,-28
-18,-33,-15,25,-1,-24,-5,52,154,78,4,-29
-18,-33,-15,25,-1,-24,-8,53,151,78,4,-28
-18,-35,-17,26,0,-26,-9,51,150,77,3,-30
-18,-38,-20,28,1,-29,-9,48,150,77,3,-32
-19,-39,-20,29,0,-29,-8,47,151,78,4,-35
-19,-39,-20,29,0,-29,-8,47,151,78,3,-38
-17,-37,-20,27,1,-28,-9,48,150,77,4,-39
-15,-34,-19,24,2,-26,-9,47,150,77,4,-39
-11,-32,-21,21,5,-26,-8,48,151,79,3,-37
-9,-29,-20,19,5,-24,-8,48,151,81,3,-34
-8,-27,-19,17,5,-23,-9,46,149,82,5,-32
-8,-24,-16,16,4,-20,-9,43,146,82,8,-30
-9,-23,-14,16,2,-18,-7,42,145,81,9,-26
-9,-23,-14,16,2,-18,-4,42,145,81,9,-24
-8,-24,-16,16,4,-20,-3,43,146,82,8,-25
-8,-24,-16,16,4,-20,-3,43,146,82,8,-28
-9,-23,-14,16,2,-18,-4,42,145,81,9,-29
-9,-23,-14,16,2,-18,-4,42,145,81,9,-29
-8,-24,-16,16,4,-20,-3,43,147,82,8,-28
-8,-24,-16,16,4,-20,-3,43,149,82,8,-28
-9,-23,-14,16,2,-18,-5,41,153,81,9,-29
-9,-23,-14,16,2,-18,-8,39,155,81,9,-29
-8,-24,-16,16,4,-20,-9,38,156,82,8,-28
-8,-24,-16,16,4,-20,-9,38,156,82,8,-28
-9,-23,-14,16,2,-18,-7,39,156,81,9,-29
-9,-23,-14,16,2,-18,-4,39,156,81,9,-29
-8,-24,-16,16,4,-20,-3,38,154,82,8,-27
-8,-24,-16,16,4,-20,-3,38,151,82,8,-24
-9,-23,-14,16,2,-18,-4,39,150,81,8,-23
-9,-23,-14,16,2,-18,-4,39,150,81,8,-23
-8,-24,-16,16,4,-20,-3,38,151,82,9,-24
-8,-24,-16,16,4,-20,-3,38,151,82,9,-24
-9,-23,-14,16,2,-18,-4,39,150,81,8,-23
-9,-23,-14,16,2,-18,-4,39,150,81,8,-23
-8,-24,-16,16,4,-20,-3,38,151,82,9,-25
-8,-24,-16,16,4,-20,0,38,151,82,9,-28
-9,-23,-14,16,2,-18,1,39,150,81,8,-29
-9,-23,-14,16,2,-18,3,39,150,81,8,-29
-8,-24,-16,16,4,-20,4,38,151,82,9,-28
-8,-24,-16,16,4,-20,4,38,151,82,9,-28
-9,-23,-14,16,2,-18,4,39,150,81,8,-29
-9,-23,-14,16,2,-18,4,39,150,81,8,-29
-8,-24,-16,16,4,-20,2,38,151,82,9,-28
-8,-24,-16,16,4,-20,0,38,151,82,9,-28
-9,-23,-14,16,2,-18,0,38,149,81,7,-29
-9,-23,-14,16,2,-18,0,38,146,81,4,-29
-8,-24,-16,16,4,-20,0,39,145,82,3,-28
-8,-24,-16,16,4,-20,0,39,145,82,3,-28
-9,-22,-13,15,2,-17,0,38,146,81,4,-30
-9,-19,-10,14,0,-14,0,38,146,81,4,-33
-8,-18,-10,13,1,-14,0,39,145,82,3,-34
-8,-18,-10,13,1,-14,0,39,146,82,3,-34
-9,-19,-10,14,0,-14,0,38,145,81,5,-32
-9,-19,-10,14,0,-14,0,38,145,81,8,-29
-8,-18,-10,13,1,-14,0,39,146,82,9,-28
-8,-18,-10,13,1,-14,3,39,146,82,9,-28
-9,-19,-10,14,0,-14,5,38,144,81,8,-28
-9,-19,-10,14,0,-14,8,38,141,81,8,-28
-8,-18,-10,13,1,-14,9,39,141,83,9,-30
-8,-18,-10,13,1,-14,9,39,144,86,9,-32
-9,-19,-10,14,0,-14,8,38,149,87,8,-35
-9,-19,-10,14,0,-14,8,38,154,87,8,-38
-8,-18,-10,13,1,-14,9,39,156,86,9,-39
-9,-18,-9,13,0,-13,9,39,156,86,9,-39
-9,-19,-10,14,0,-14,8,38,155,87,8,-38
-8,-19,-11,13,1,-15,8,38,155,87,8,-38
-8,-18,-10,13,1,-14,9,40,156,85,8,-39
-9,-18,-9,13,0,-13,9,42,156,82,8,-39
-9,-19,-10,14,0,-14,7,43,155,81,9,-38
-9,-19,-10,14,0,-14,4,43,155,81,9,-39
-8,-18,-10,13,1,-14,3,42,156,82,8,-38
-8,-18,-10,13,1,-14,3,42,156,82,8,-38
-9,-19,-10,14,0,-14,4,42,155,81,9,-39
-9,-19,-10,14,0,-14,4,42,155,81,9,-39
-8,-18,-10,13,1,-14,3,43,156,83,8,-38
-8,-18,-10,13,1,-14,3,43,156,86,8,-38
-9,-19,-10,14,0,-14,4,41,155,87,9,-40
-9,-19,-10,14,0,-14,4,39,155,87,9,-42
-8,-17,-9,12,0,-13,3,38,156,86,7,-43
-8,-15,-7,11,0,-11,3,38,156,86,5,-42
-9,-12,-3,10,-3,-7,5,39,155,87,2,-44
-9,-9,0,9,-4,-4,8,39,155,87,0,-47
-8,-8,0,8,-4,-4,9,38,156,86,0,-48
-8,-8,0,8,-4,-4,9,38,156,86,2,-48
-9,-8,1,8,-5,-3,8,39,155,87,5,-47
-9,-8,1,8,-5,-3,8,39,155,87,8,-47
-8,-10,-2,9,-3,-6,9,38,156,86,9,-48
-8,-13,-5,10,-1,-9,9,38,156,86,9,-48
-9,-14,-5,11,-2,-9,8,39,155,87,8,-47
-9,-13,-4,11,-2,-8,8,39,155,87,8,-47
-8,-15,-7,11,0,-11,10,38,156,86,9,-48
-8,-18,-10,13,1,-14,13,38,156,86,9,-48
-9,-18,-9,13,0,-13,14,39,155,88,8,-47
-9,-14,-5,11,-2,-9,14,39,155,91,8,-47
-8,-13,-5,10,-1,-9,13,38,156,92,9,-48
-8,-13,-5,10,-1,-9,13,38,156,92,9,-48
-9,-14,-5,11,-2,-9,14,39,155,92,8,-47
-9,-14,-5,11,-2,-9,14,39,155,92,8,-47
-8,-13,-5,10,-1,-9,13,38,156,90,9,-48
-8,-13,-5,10,-1,-9,13,38,156,87,9,-48
-9,-14,-5,11,-2,-9,14,39,154,86,8,-47
-9,-14,-5,11,-2,-9,14,39,151,86,8,-47
-8,-14,-6,11,-1,-10,13,38,150,87,9,-48
-8,-14,-6,11,-1,-10,13,38,150,87,9,-48
-9,-13,-4,11,-2,-8,14,39,150,86,8,-47
-9,-13,-4,11,-2,-8,14,39,150,86,8,-47
-8,-14,-6,11,-1,-10,13,38,152,88,9,-48
-8,-14,-6,11,-1,-10,13,38,155,91,9,-48
-9,-13,-4,11,-2,-8,14,39,156,92,8,-47
-9,-13,-4,11,-2,-8,14,41,156,91,8,-47
-8,-15,-7,11,0,-11,13,44,155,92,9,-48
-8,-17,-9,12,0,-13,13,47,155,95,9,-48
-9,-21,-12,15,1,-16,14,48,156,99,8,-47
-9,-23,-14,16,2,-18,14,48,156,101,8,-47
-8,-24,-16,16,4,-20,13,47,155,100,9,-48
-8,-23,-15,15,3,-19,13,47,155,97,9,-48
-9,-25,-16,17,3,-20,14,48,156,96,8,-46
-9,-28,-19,18,5,-23,14,48,155,96,8,-43
-8,-29,-21,18,6,-25,12,47,156,96,9,-42
-8,-29,-21,18,6,-25,9,47,156,96,9,-42
-9,-28,-19,18,5,-23,8,48,155,98,8,-43
-9,-29,-20,19,5,-24,8,48,155,101,8,-43
-7,-28,-21,17,7,-24,8,47,156,102,9,-42
-5,-28,-23,16,9,-25,8,48,156,102,9,-42
-2,-30,-28,16,13,-29,10,47,155,101,8,-43
0,-33,-33,16,16,-33,13,47,155,101,8,-43
0,-34,-34,17,17,-34,14,48,157,102,9,-42
0,-34,-34,17,17,-34,14,48,159,102,9,-42
0,-33,-33,16,16,-33,13,47,162,101,8,-43
0,-33,-33,16,16,-33,13,47,164,101,8,-43
0,-34,-34,17,17,-34,15,48,165,102,9,-42
0,-34,-34,17,17,-34,17,48,165,102,9,-42
0,-33,-33,16,16,-33,20,47,164,101,8,-43
0,-33,-33,16,16,-33,23,47,164,101,8,-43
0,-35,-35,17,17,-35,24,49,165,102,9,-42
0,-38,-38,19,19,-38,24,52,165,102,9,-42
0,-39,-39,19,19,-39,23,53,164,101,8,-43
0,-39,-39,19,19,-39,23,53,164,101,8,-43
0,-37,-37,18,18,-37,24,52,166,102,9,-42
0,-34,-34,17,17,-34,24,52,169,102,9,-42
0,-33,-33,16,16,-33,23,53,170,101,8,-43
0,-33,-33,16,16,-33,23,53,170,101,8,-43
0,-35,-35,17,17,-35,24,52,169,102,9,-42
0,-37,-37,18,18,-37,24,52,169,102,9,-42
0,-40,-40,20,20,-40,23,53,170,101,8,-43
0,-42,-42,21,21,-42,23,52,170,101,8,-43
0,-43,-43,21,21,-43,24,53,169,102,9,-42
-2,-43,-41,22,19,-42,24,53,169,102,9,-42
-5,-42,-37,23,16,-39,24,52,170,101,8,-43
-8,-42,-34,25,13,-38,24,52,170,101,8,-43
-9,-43,-34,26,12,-38,23,53,168,102,9,-42
-9,-43,-34,26,12,-38,23,53,166,102,9,-42
-8,-43,-35,25,13,-39,24,52,163,101,8,-43
-8,-43,-35,25,13,-39,24,52,161,101,8,-43
-9,-42,-33,25,12,-37,23,54,161,102,9,-42
-9,-42,-33,25,12,-37,23,56,164,102,9,-42
-9,-43,-34,26,12,-38,24,59,165,101,8,-43
-9,-43,-34,26,12,-38,24,62,164,101,8,-43
-8,-42,-34,25,13,-38,23,63,166,103,9,-42
-8,-40,-32,24,12,-36,23,63,169,105,9,-40
-9,-37,-28,23,9,-32,24,61,170,108,8,-37
-9,-34,-25,21,8,-29,24,59,173,110,8,-34
-8,-33,-25,20,8,-29,22,55,180,115,10,-34
-5,-34,-29,19,12,-31,19,53,197,122,16,-34
0,-32,-32,16,16,-32,18,53,232,133,24,-31
6,-26,-32,10,19,-29,15,54,281,148,36,-26
11,-18,-29,3,20,-23,9,48,334,170,54,-20
13,-6,-19,-3,16,-12,0,37,393,200,77,-13
16,11,-5,-13,10,3,-10,28,463,238,103,0
21,34,13,-27,4,23,-22,4,512,280,132,17
28,56,28,-42,0,42,-42,-59,478,322,169,32
36,76,40,-56,-2,58,-70,-176,324,356,209,46
42,89,47,-65,-2,68,-102,-341,33,377,245,65
46,103,57,-74,-5,80,-144,-552,-352,395,280,91
50,131,81,-90,-15,106,-205,-802,-747,426,327,119
56,172,116,-114,-30,144,-283,-1084,-1136,468,388,151
60,216,156,-138,-48,186,-371,-1390,-1555,502,458,189
68,252,184,-160,-58,218,-469,-1716,-2013,534,544,239
83,275,192,-179,-54,233,-586,-2066,-2504,584,659,305
106,293,187,-199,-40,240,-718,-2415,-3003,655,804,385
134,321,187,-227,-26,254,-854,-2725,-3475,744,975,475
169,365,196,-267,-13,280,-983,-2973,-3892,855,1175,578
213,418,205,-315,4,311,-1095,-3150,-4236,999,1414,703
261,478,217,-369,22,347,-1195,-3284,-4519,1158,1678,843
300,539,239,-419,30,389,-1296,-3428,-4775,1293,1939,978
335,600,265,-467,35,432,-1397,-3574,-4992,1412,2196,1109
379,661,282,-520,48,471,-1487,-3672,-5124,1558,2464,1246
437,717,280,-577,78,498,-1571,-3720,-5175,1729,2755,1399
506,760,254,-633,126,507,-1661,-3750,-5183,1892,3067,1571
576,795,219,-685,178,507,-1751,-3767,-5156,2024,3378,1750
631,834,203,-732,214,518,-1819,-3755,-5077,2110,3643,1907
667,875,208,-771,229,541,-1857,-3707,-4924,2141,3834,2030
690,902,212,-796,239,557,-1866,-3623,-4675,2109,3931,2118
700,912,212,-806,244,562,-1853,-3512,-4351,2016,3939,2168
700,907,207,-803,246,557,-1825,-3384,-4002,1870,3878,2175
692,881,189,-786,251,535,-1780,-3244,-3670,1670,3754,2145
681,821,140,-751,270,480,-1706,-3089,-3383,1408,3564,2090
661,724,63,-692,299,393,-1600,-2915,-3143,1079,3288,2005
621,596,-25,-608,323,285,-1466,-2712,-2932,681,2902,1875
564,437,-127,-500,345,155,-1307,-2467,-2716,276,2427,1694
506,243,-263,-374,384,-10,-1126,-2166,-2450,-26,1918,1464
456,36,-420,-246,438,-192,-940,-1831,-2144,-192,1433,1215
415,-144,-559,-135,487,-351,-777,-1513,-1845,-241,1027,988
384,-288,-672,-48,528,-480,-642,-1227,-1562,-211,719,798
362,-400,-762,19,562,-581,-524,-963,-1284,-154,499,634
343,-475,-818,66,580,-646,-421,-728,-1020,-97,345,493
323,-501,-824,89,573,-662,-334,-543,-796,-50,228,373
298,-492,-790,97,544,-641,-265,-405,-619,-17,130,273
267,-484,-751,108,509,-617,-215,-298,-481,0,48,188
232,-481,-713,124,472,-597,-175,-207,-368,7,-21,114
198,-468,-666,135,432,-567,-137,-126,-259,10,-86,46
167,-442,-609,137,388,-525,-100,-56,-154,10,-143,-13
138,-406,-544,134,341,-475,-67,-4,-64,4,-183,-60
111,-369,-480,129,295,-424,-39,31,9,-7,-209,-94
87,-338,-425,125,256,-381,-12,58,68,-26,-233,-125
63,-313,-376,125,219,-344,13,84,125,-44,-253,-152
35,-281,-316,123,175,-298,39,119,195,-48,-260,-171
5,-241,-246,118,125,-243,61,163,275,-36,-253,-180
-15,-196,-181,105,83,-188,75,203,352,-15,-236,-175
-27,-151,-124,89,48,-137,84,235,412,6,-213,-162
-29,-115,-86,72,28,-100,91,253,444,22,-191,-146
-25,-89,-64,57,19,-76,99,260,454,31,-174,-131
-21,-72,-51,46,15,-61,105,266,464,36,-164,-119
-19,-60,-41,39,11,-50,110,271,478,38,-161,-112
-18,-54,-36,36,9,-45,114,274,487,40,-161,-113
-18,-52,-34,35,8,-43,116,276,490,42,-164,-120
-19,-54,-35,36,8,-44,117,281,494,43,-165,-123
-18,-54,-36,36,9,-45,117,289,500,42,-165,-122
-19,-48,-29,33,5,-38,116,294,504,43,-165,-121
-19,-37,-18,28,0,-27,116,296,506,46,-165,-121
-18,-30,-12,24,-3,-21,118,297,506,49,-163,-122
-15,-29,-14,22,0,-21,120,297,506,52,-161,-122
-11,-28,-17,19,3,-22,123,296,508,53,-160,-120
-9,-28,-19,18,5,-23,125,296,510,52,-161,-117
-9,-30,-21,19,6,-25,127,298,513,54,-160,-116
-13,-33,-20,23,3,-26,130,300,515,57,-157,-116
-14,-34,-20,24,3,-27,131,303,518,58,-154,-117
-14,-34,-20,24,3,-27,131,306,521,58,-151,-116
-13,-34,-21,23,4,-27,130,307,521,57,-150,-117
-14,-34,-20,24,3,-27,130,307,518,57,-150,-117
-13,-33,-20,23,3,-26,132,306,515,58,-151,-115
-13,-30,-17,21,2,-23,134,306,512,58,-151,-112
-15,-26,-11,20,-2,-18,137,308,511,56,-150,-111
-17,-24,-7,20,-5,-15,140,311,511,54,-150,-111
-20,-24,-4,22,-8,-14,141,312,512,51,-151,-112
-22,-24,-2,23,-10,-13,141,311,512,48,-151,-111
-25,-21,4,23,-14,-8,140,313,511,47,-148,-112
-28,-16,12,22,-20,-2,141,316,511,47,-142,-112
-29,-11,18,20,-23,3,140,317,512,48,-139,-110
-29,-9,20,19,-24,5,140,317,512,48,-140,-107
-28,-9,19,18,-23,5,142,316,511,46,-141,-106
-28,-9,19,18,-23,5,145,316,511,43,-141,-106
-29,-7,22,18,-25,7,146,318,511,42,-139,-108
-29,-4,25,16,-27,10,146,321,511,42,-136,-111
-28,-3,25,15,-26,11,145,322,512,43,-135,-112
-28,-3,25,15,-26,11,145,321,512,43,-135,-112
-29,-4,25,16,-27,10,147,322,511,41,-136,-110
-29,-4,25,16,-27,10,150,324,511,39,-136,-107
-28,-3,25,15,-26,11,151,327,512,39,-136,-106
-28,-1,27,14,-27,13,151,330,512,39,-136,-107
-29,1,30,14,-29,15,150,331,511,37,-135,-105
-29,3,32,13,-30,17,151,330,511,34,-135,-102
-28,3,31,12,-29,17,150,331,513,34,-137,-101
-28,3,31,12,-29,17,150,334,516,37,-140,-101
-30,5,35,12,-32,20,152,337,517,39,-141,-101
-33,8,41,12,-37,24,155,340,517,39,-141,-101
-34,9,43,12,-38,26,156,342,516,38,-140,-103
-34,9,43,12,-38,26,156,344,516,35,-140,-106
-33,8,41,12,-37,24,155,347,517,30,-142,-107
-33,8,41,12,-37,24,155,350,517,25,-144,-107
-34,10,44,12,-39,27,157,352,516,23,-147,-106
-33,13,46,10,-39,29,160,354,516,23,-149,-106
-34,14,48,10,-41,31,161,357,517,23,-152,-108
-34,14,48,10,-41,31,161,360,517,20,-155,-111
-33,13,46,10,-39,29,160,362,516,16,-156,-112
-33,13,46,10,-39,29,161,364,516,10,-155,-112
-35,15,50,10,-42,32,160,368,517,7,-157,-111
-38,18,56,10,-47,37,160,373,517,4,-160,-111
-39,19,58,10,-48,38,161,376,516,2,-161,-112
-39,19,58,10,-48,38,164,378,516,0,-160,-112
-38,18,56,10,-47,37,166,382,518,0,-163,-111
-38,18,56,10,-47,37,168,387,521,-2,-168,-111
-40,19,59,10,-49,39,171,393,522,-6,-171,-113
-42,19,61,11,-51,40,174,398,521,-11,-173,-116
-43,18,61,12,-52,39,175,402,523,-17,-177,-117
-43,18,61,12,-52,39,175,407,526,-21,-183,-117
-42,20,62,11,-52,41,174,410,527,-27,-187,-116
-42,23,65,9,-53,44,174,412,527,-32,-189,-117
-44,24,68,10,-56,46,177,416,526,-36,-190,-116
-47,24,71,11,-59,47,182,421,526,-40,-193,-116
-47,23,70,12,-58,46,187,428,528,-46,-198,-118
-44,23,67,10,-55,45,189,435,530,-54,-206,-120
-42,24,66,9,-54,45,191,443,531,-64,-212,-123
-42,24,66,9,-54,45,193,450,531,-74,-217,-125
-44,24,68,10,-56,46,196,456,530,-81,-220,-127
-46,24,70,11,-58,47,201,461,531,-85,-222,-130
-49,23,72,13,-60,47,208,465,530,-90,-226,-130
-52,23,75,14,-63,49,216,470,530,-98,-231,-130
-53,24,77,14,-65,50,221,477,532,-106,-237,-133
-52,24,76,14,-64,50,223,485,535,-113,-244,-139
-53,22,75,15,-64,48,226,490,536,-122,-252,-142
-56,19,75,18,-65,47,231,494,536,-131,-260,-144
-59,18,77,20,-68,47,237,502,535,-142,-265,-148
-62,18,80,22,-71,49,242,512,536,-152,-270,-154
-63,19,82,22,-72,50,246,521,535,-161,-279,-157
-62,19,81,21,-71,50,250,528,535,-170,-291,-159
-63,16,79,23,-71,47,257,535,537,-182,-303,-163
-66,10,76,28,-71,43,265,542,540,-197,-313,-168
-71,8,79,31,-75,43,271,550,540,-212,-323,-171
-76,9,85,33,-80,47,276,558,537,-227,-335,-173
-79,7,86,36,-82,46,280,565,534,-243,-350,-177
-80,2,82,39,-81,42,284,572,532,-260,-367,-182
-84,-3,81,43,-82,39,290,579,528,-279,-384,-189
-90,-7,83,48,-86,38,298,586,524,-299,-399,-196
-94,-10,84,52,-89,37,306,594,518,-317,-411,-204
-96,-13,83,54,-89,35,314,601,513,-334,-423,-211
-98,-14,84,56,-91,35,319,610,510,-350,-438,-218
-100,-17,83,58,-91,33,323,620,508,-367,-455,-225
-103,-22,81,62,-92,29,330,629,504,-386,-472,-233
-105,-31,74,68,-89,21,338,636,498,-408,-489,-240
-109,-37,72,73,-90,17,344,641,495,-433,-507,-249
-114,-41,73,77,-93,16,348,646,492,-458,-527,-259
-120,-45,75,82,-97,15,355,653,490,-479,-547,-266
-124,-51,73,87,-98,11,363,660,485,-495,-567,-270
-127,-54,73,90,-100,9,368,665,477,-511,-585,-276
-129,-56,73,92,-101,8,372,670,467,-530,-602,-284
-135,-60,75,97,-105,7,378,677,458,-559,-620,-290
-143,-66,77,104,-110,5,386,685,451,-595,-640,-294
-148,-69,79,108,-113,5,393,690,442,-628,-661,-301
-149,-71,78,110,-113,3,398,691,432,-654,-680,-308
-153,-75,78,114,-115,1,401,693,424,-673,-696,-315
-159,-80,79,119,-119,0,404,696,417,-689,-710,-320
-161,-83,78,122,-119,-2,406,697,409,-709,-726,-324
-161,-86,75,123,-118,-5,408,697,399,-734,-744,-329
-161,-88,73,124,-117,-7,409,697,387,-762,-758,-333
-163,-90,73,126,-118,-8,409,697,375,-786,-770,-335
-166,-93,73,129,-119,-10,407,695,363,-803,-781,-336
-169,-96,73,132,-121,-11,405,690,354,-816,-794,-335
-170,-97,73,133,-121,-12,404,685,346,-837,-807,-337
-170,-97,73,133,-121,-12,405,680,336,-863,-819,-340
-168,-96,72,132,-120,-12,404,672,320,-883,-829,-341
-165,-96,69,130,-117,-13,401,662,302,-896,-836,-341
-164,-97,67,130,-115,-15,398,652,292,-909,-841,-340
-164,-97,67,130,-115,-15,395,642,288,-922,-846,-340
-165,-96,69,130,-117,-13,393,633,282,-931,-853,-341
-165,-96,69,130,-117,-13,391,623,272,-938,-860,-341
-163,-97,66,130,-114,-15,387,612,263,-945,-863,-340
-161,-97,64,129,-112,-16,382,600,256,-952,-863,-337
-160,-96,64,128,-112,-16,376,586,248,-959,-863,-333
-160,-93,67,126,-113,-13,369,572,238,-964,-864,-328
-161,-89,72,125,-116,-8,361,558,227,-966,-858,-322
-161,-84,77,122,-119,-3,353,545,217,-966,-848,-315
-159,-78,81,118,-120,1,347,534,210,-965,-839,-307
-157,-74,83,115,-120,4,343,522,205,-962,-832,-299
-154,-72,82,113,-118,5,337,508,201,-958,-823,-293
-152,-72,80,112,-116,4,329,493,197,-950,-813,-288
-148,-72,76,110,-112,2,321,480,191,-938,-805,-284
-143,-69,74,106,-108,2,314,468,186,-923,-798,-279
-137,-64,73,100,-105,4,308,455,184,-908,-789,-275
-132,-59,73,95,-102,7,300,440,185,-894,-777,-270
-128,-57,71,92,-99,7,291,424,184,-879,-760,-263
-126,-57,69,91,-97,6,281,410,181,-864,-742,-255
-126,-57,69,91,-97,6,273,398,179,-850,-728,-250
-127,-54,73,90,-100,9,266,389,179,-836,-716,-246
-122,-50,72,86,-97,11,256,378,181,-817,-704,-240
-114,-48,66,81,-90,9,243,366,184,-794,-689,-232
-109,-49,60,79,-84,5,233,354,183,-773,-673,-225
-108,-52,56,80,-82,2,226,344,180,-753,-656,-220
-104,-52,52,78,-78,0,221,335,180,-735,-638,-216
-99,-49,50,74,-74,0,216,326,183,-715,-621,-211
-94,-47,47,70,-70,0,208,316,187,-695,-604,-205
-92,-48,44,70,-68,-2,198,306,189,-676,-590,-201
-90,-47,43,68,-66,-2,191,296,190,-657,-578,-198
-88,-44,44,66,-66,0,187,287,189,-638,-567,-196
-84,-41,43,62,-63,1,179,277,191,-615,-549,-191
-79,-39,40,59,-59,0,168,267,194,-590,-526,-183
-75,-39,36,57,-55,-1,161,256,195,-566,-504,-176
-73,-39,34,56,-53,-2,157,247,195,-544,-485,-171
-74,-37,37,55,-55,0,153,240,194,-524,-469,-166
-77,-35,42,56,-59,3,148,236,194,-505,-454,-162
-77,-33,44,55,-60,5,143,229,195,-484,-438,-160
-74,-33,41,53,-57,4,138,222,195,-462,-421,-161
-70,-35,35,52,-52,0,133,215,195,-439,-405,-159
-68,-38,30,53,-49,-4,128,211,195,-417,-391,-153
-68,-39,29,53,-48,-5,123,205,194,-397,-375,-147
-69,-39,30,54,-49,-4,119,198,194,-378,-358,-142
-63,-38,25,50,-44,-6,113,191,195,-356,-340,-139
-51,-38,13,44,-32,-12,108,186,195,-332,-323,-137
-44,-39,5,41,-24,-17,105,183,193,-308,-309,-133
-43,-39,4,41,-23,-17,102,181,190,-286,-297,-127
-41,-38,3,39,-22,-17,100,177,190,-266,-284,-124
-39,-38,1,38,-20,-18,98,171,193,-246,-270,-123
-38,-39,-1,38,-18,-20,95,168,195,-228,-252,-119
-39,-39,0,39,-19,-19,93,165,195,-211,-235,-114
-38,-38,0,38,-19,-19,90,163,194,-194,-221,-109
-35,-38,-3,36,-16,-20,87,161,194,-177,-212,-107
-32,-40,-8,36,-12,-24,87,160,194,-160,-204,-107
-30,-42,-12,36,-9,-27,87,161,194,-143,-194,-108
-27,-43,-16,35,-5,-29,85,160,195,-125,-183,-103
-24,-43,-19,33,-2,-31,80,157,195,-108,-170,-94
-23,-42,-19,32,-2,-30,75,152,193,-94,-158,-90
-23,-43,-20,33,-1,-31,70,147,190,-82,-146,-91
-24,-42,-18,33,-3,-30,64,145,189,-71,-134,-91
-24,-42,-18,33,-3,-30,59,146,189,-58,-121,-88
-23,-44,-21,33,-1,-32,56,144,190,-46,-110,-85
-23,-47,-24,35,0,-35,54,138,190,-34,-100,-82
-24,-48,-24,36,0,-36,51,132,188,-21,-92,-80
-24,-48,-24,36,0,-36,48,128,185,-9,-84,-78
-22,-47,-25,34,1,-36,48,123,184,2,-79,-76
-19,-47,-28,33,4,-37,48,118,185,11,-75,-74
-18,-49,-31,33,6,-40,46,115,183,17,-69,-71
-19,-52,-33,35,7,-42,41,112,180,21,-61,-69
-18,-53,-35,35,8,-44,36,110,179,27,-53,-66
-15,-53,-38,34,11,-45,34,108,180,35,-45,-64
-12,-52,-40,32,14,-46,33,105,178,42,-40,-61
-9,-52,-43,30,17,-47,33,102,175,46,-35,-58
-8,-54,-46,31,19,-50,33,101,174,50,-31,-57
-8,-57,-49,32,20,-53,33,102,175,55,-26,-58
-9,-58,-49,33,20,-53,34,101,173,62,-20,-56
-9,-58,-49,33,20,-53,34,98,170,70,-15,-53
-8,-57,-49,32,20,-53,32,95,169,74,-12,-52
-8,-58,-50,33,21,-54,29,92,170,76,-9,-53
-9,-57,-48,33,19,-52,28,91,169,80,-7,-51
-9,-57,-48,33,19,-52,29,92,166,85,-5,-48
-8,-59,-51,33,21,-55,27,91,163,87,-2,-47
-8,-62,-54,35,23,-58,24,88,161,86,0,-47
-9,-63,-54,36,22,-58,23,84,159,88,0,-48
-9,-63,-54,36,22,-58,23,79,156,91,0,-48
-8,-62,-54,35,23,-58,24,77,155,92,0,-47
-8,-63,-55,35,23,-59,24,78,155,91,3,-47
-9,-62,-53,35,22,-57,23,76,155,92,4,-48
-9,-62,-53,35,22,-57,20,73,155,95,4,-48
-8,-64,-56,36,24,-60,17,72,157,98,3,-46
-8,-67,-59,37,25,-63,14,73,160,101,3,-43
-9,-68,-59,38,25,-63,13,71,160,102,5,-42
-9,-68,-59,38,25,-63,13,68,157,102,8,-42
-8,-68,-60,38,26,-64,13,67,155,101,9,-42
-8,-68,-60,38,26,-64,13,68,155,101,8,-42
-9,-66,-57,37,24,-61,15,66,156,103,10,-44
-9,-64,-55,36,23,-59,18,63,156,106,13,-47
-8,-62,-54,35,23,-58,19,62,154,107,14,-48
-8,-62,-54,35,23,-58,19,63,151,107,14,-48
-9,-64,-55,36,23,-59,18,61,150,106,13,-47
-9,-67,-58,38,24,-62,18,58,150,106,13,-48
-8,-68,-60,38,26,-64,19,57,151,107,14,-47
-8,-68,-60,38,26,-64,19,57,151,107,14,-47
-9,-67,-58,38,24,-62,18,58,150,106,13,-49
-9,-67,-58,38,24,-62,15,57,150,106,10,-52
-8,-68,-60,38,26,-64,12,58,151,108,6,-53
-8,-68,-60,38,26,-64,9,58,151,111,4,-53
-9,-66,-57,37,24,-61,8,56,149,112,4,-52
-9,-63,-54,36,22,-58,8,53,146,112,7,-52
-8,-62,-54,35,23,-58,10,52,145,111,9,-52
-8,-62,-54,35,23,-58,13,52,145,111,9,-52
-9,-63,-54,36,22,-58,14,53,146,112,8,-53
-9,-62,-53,35,22,-57,14,53,146,112,8,-53
-8,-63,-55,35,23,-59,13,52,145,111,9,-51
-8,-63,-55,35,23,-59,13,52,145,111,9,-48
-9,-62,-53,35,22,-57,14,53,146,111,8,-47
-9,-59,-50,34,20,-54,14,53,145,111,8,-47
-8,-56,-48,32,20,-52,12,51,146,112,9,-48
-8,-53,-45,30,18,-49,10,48,146,112,9,-48
-9,-52,-43,30,17,-47,8,47,145,111,8,-47
-9,-52,-43,30,17,-47,8,47,145,111,8,-47
-8,-52,-44,30,18,-48,10,48,146,112,9,-48
-8,-52,-44,30,18,-48,13,48,146,112,9,-48
-9,-53,-44,31,17,-48,14,47,144,111,8,-46
-8,-56,-48,32,20,-52,14,47,141,108,9,-43
-9,-59,-50,34,20,-54,13,48,140,105,8,-42
-8,-62,-54,35,23,-58,13,48,140,102,8,-42
-9,-63,-54,36,22,-58,14,47,141,101,9,-43
-9,-63,-54,36,22,-58,14,47,141,101,9,-43
-8,-63,-55,35,23,-59,13,48,140,101,8,-42
-8,-63,-55,35,23,-59,13,48,140,101,8,-42
-9,-62,-53,35,22,-57,14,47,141,102,9,-44
-8,-59,-51,33,21,-55,17,47,141,105,9,-47
-9,-56,-47,32,19,-51,20,47,140,108,8,-48
-8,-53,-45,30,18,-49,23,47,140,111,8,-48
-9,-52,-43,30,17,-47,24,48,141,112,9,-47
-9,-52,-43,30,17,-47,24,48,141,112,9,-47
-9,-53,-44,31,17,-48,23,47,140,111,8,-48
-8,-53,-45,30,18,-49,24,47,140,111,8,-48
-9,-52,-43,30,17,-47,23,48,142,112,10,-47
-8,-53,-45,30,18,-49,23,48,145,112,13,-47
-9,-52,-43,30,17,-47,25,47,146,111,14,-48
-8,-52,-44,30,18,-48,28,47,146,111,14,-48
-8,-53,-45,30,18,-49,28,48,145,112,13,-47
-9,-53,-44,31,17,-48,25,48,145,112,13,-47
-9,-51,-42,30,16,-46,22,47,146,111,14,-49
-9,-48,-39,28,15,-43,19,47,146,111,14,-51
-8,-47,-39,27,15,-43,18,48,146,112,13,-53
-9,-47,-38,28,14,-42,18,51,146,112,13,-53
-9,-48,-39,28,15,-43,18,54,145,111,15,-51
-9,-48,-39,28,15,-43,18,57,145,111,18,-48
-9,-47,-38,28,14,-42,19,58,146,112,18,-47
-9,-47,-38,28,14,-42,22,58,146,112,15,-47
-9,-48,-39,28,15,-43,25,57,144,111,12,-47
-8,-48,-40,28,16,-44,28,57,142,111,9,-47
-9,-47,-38,28,14,-42,29,58,140,113,8,-48
-9,-47,-38,28,14,-42,29,58,140,116,8,-51
-9,-48,-39,28,15,-43,28,57,142,117,9,-54
-9,-48,-39,28,15,-43,28,57,145,117,9,-57
-9,-47,-38,28,14,-42,29,58,146,116,8,-58
-9,-47,-38,28,14,-42,29,58,146,116,8,-58
-9,-48,-39,28,15,-43,28,57,145,117,9,-57
-9,-48,-39,28,15,-43,28,57,145,117,9,-57
-8,-47,-39,27,15,-43,30,59,146,115,8,-58
-9,-47,-38,28,14,-42,33,62,146,112,8,-58
-8,-48,-40,28,16,-44,34,63,145,111,9,-58
-8,-48,-40,28,16,-44,34,63,145,111,9,-58
-8,-47,-39,27,15,-43,33,62,146,112,9,-57
-9,-48,-39,28,15,-43,33,62,146,112,9,-57
-9,-47,-38,28,14,-42,34,62,145,111,8,-58
-8,-47,-39,27,15,-43,34,62,145,111,8,-58
-9,-48,-39,28,15,-43,33,63,146,113,9,-57
-9,-48,-39,28,15,-43,33,63,146,116,9,-57
-9,-47,-38,28,14,-42,34,61,145,117,8,-59
-9,-47,-38,28,14,-42,34,58,145,117,8,-62
-9,-48,-39,28,15,-43,32,57,146,116,9,-62
-9,-48,-39,28,15,-43,29,57,146,116,9,-59
-8,-47,-39,27,15,-43,28,58,145,117,8,-57
-9,-47,-38,28,14,-42,28,58,145,117,8,-57
-9,-48,-39,28,15,-43,29,57,146,117,9,-58
-8,-48,-40,28,16,-44,29,57,146,117,12,-58
-8,-47,-39,27,15,-43,28,58,145,116,15,-57
-9,-47,-38,28,14,-42,28,58,145,116,18,-57
-9,-48,-39,28,15,-43,29,57,146,117,19,-58
-8,-48,-40,28,16,-44,32,57,146,117,19,-58
-9,-47,-38,28,14,-42,35,58,145,115,17,-57
-8,-47,-39,27,15,-43,37,58,145,112,14,-57
-9,-48,-39,28,15,-43,40,57,146,111,13,-58
-8,-48,-40,28,16,-44,42,57,146,111,14,-58
-9,-46,-37,27,14,-41,43,58,145,112,12,-57
-8,-43,-35,25,13,-39,43,58,145,112,10,-57
-8,-42,-34,25,13,-38,42,57,146,111,8,-58
-9,-42,-33,25,12,-37,42,57,146,111,8,-58
-8,-43,-35,25,13,-39,43,58,145,112,9,-57
-9,-43,-34,26,12,-38,43,58,145,112,9,-57
-9,-42,-33,25,12,-37,42,57,146,110,8,-58
-9,-42,-33,25,12,-37,42,57,146,107,8,-58
-8,-43,-35,25,13,-39,43,58,144,106,9,-57
-8,-43,-35,25,13,-39,43,58,141,106,9,-57
-9,-42,-33,25,12,-37,42,57,140,107,8,-58
-8,-42,-34,25,13,-38,42,57,140,107,8,-58
-9,-43,-34,26,12,-38,43,58,140,106,9,-57
-9,-43,-34,26,12,-38,43,58,140,106,9,-57
-8,-42,-34,25,13,-38,42,57,142,108,8,-58
-8,-42,-34,25,13,-38,42,57,145,111,8,-58
-9,-43,-34,26,12,-38,43,59,146,112,8,-57
-9,-43,-34,26,12,-38,43,61,146,112,8,-57
-8,-42,-34,25,13,-38,42,63,145,111,9,-58
-8,-42,-34,25,13,-38,42,63,145,111,9,-58
-9,-43,-34,26,12,-38,43,61,146,112,8,-57
-9,-43,-34,26,12,-38,43,58,146,112,8,-57
-8,-42,-34,25,13,-38,42,57,145,110,9,-59
-8,-39,-31,23,11,-35,42,57,146,108,9,-62
-9,-38,-29,23,10,-33,43,58,145,106,8,-63
-9,-38,-29,23,10,-33,43,58,145,106,8,-63
-8,-39,-31,23,11,-35,42,57,146,107,9,-62
-8,-39,-31,23,11,-35,39,57,146,110,9,-62
-9,-39,-30,24,10,-34,38,58,145,114,8,-63
-9,-39,-30,24,10,-34,38,58,145,120,8,-63
-8,-38,-30,23,11,-34,38,57,146,122,9,-62
-8,-38,-30,23,11,-34,38,57,149,122,12,-62
-9,-39,-30,24,10,-34,39,57,152,121,15,-63
-9,-42,-33,25,12,-37,42,57,155,122,18,-63
-8,-43,-35,25,13,-39,43,58,156,121,19,-62
-8,-43,-35,25,13,-39,43,58,156,118,19,-62
-9,-43,-34,26,12,-38,42,57,155,115,18,-63
-9,-43,-34,26,12,-38,42,57,155,112,18,-63
-8,-42,-34,25,13,-38,42,58,155,111,19,-62
-8,-40,-32,24,12,-36,42,58,155,111,19,-62
-9,-37,-28,23,9,-32,43,57,156,112,19,-63
-9,-34,-25,21,8,-29,43,57,156,112,19,-63
-8,-34,-26,21,9,-30,42,59,155,111,18,-62
-8,-37,-29,22,10,-33,40,62,152,111,18,-62
-9,-39,-30,24,10,-34,37,63,149,112,19,-63
-9,-39,-30,24,10,-34,34,63,146,112,19,-63
-8,-37,-29,22,10,-33,33,62,146,111,18,-62
-8,-34,-26,21,9,-30,33,62,149,111,15,-62
-9,-33,-24,21,7,-28,34,63,151,112,12,-62
-9,-33,-24,21,7,-28,34,63,151,112,9,-62
-8,-34,-26,21,9,-30,34,62,150,111,8,-63
-8,-34,-26,21,9,-30,34,62,150,111,8,-63
-9,-33,-24,21,7,-28,33,63,151,112,9,-62
-9,-33,-24,21,7,-28,33,63,151,112,9,-62
-8,-34,-26,21,9,-30,34,62,150,112,8,-63
-8,-34,-26,21,9,-30,37,62,151,112,8,-63
-9,-33,-24,21,7,-28,40,62,150,111,9,-62
-9,-33,-24,21,7,-28,42,62,150,111,9,-62
-8,-34,-26,21,9,-30,43,63,151,112,8,-63
-8,-34,-26,21,9,-30,43,63,151,112,8,-63
-9,-33,-24,21,7,-28,43,62,150,111,8,-62
-9,-33,-24,21,7,-28,43,62,150,111,8,-62
-8,-34,-26,21,9,-30,42,63,152,112,9,-63
-5,-34,-29,19,12,-31,40,63,155,112,9,-63
-2,-33,-31,17,14,-32,37,62,156,111,8,-62
0,-33,-33,16,16,-33,34,62,156,111,8,-62
0,-34,-34,17,17,-34,33,63,155,112,9,-63
0,-34,-34,17,17,-34,33,63,155,112,9,-63
0,-33,-33,16,16,-33,33,62,156,111,8,-62
0,-33,-33,16,16,-33,33,59,155,111,8,-62
-1,-34,-33,17,16,-33,34,56,156,113,9,-63
-3,-34,-31,18,14,-32,37,53,160,118,11,-63
-3,-32,-29,17,13,-30,41,52,173,126,17,-61
-1,-27,-26,14,12,-26,43,52,207,137,27,-55
1,-20,-21,9,11,-20,39,52,273,157,43,-50
2,-10,-12,4,7,-11,29,52,368,187,66,-44
5,4,-1,-4,3,1,18,53,475,224,91,-30
10,24,14,-17,-2,19,6,41,560,266,120,-11
18,44,26,-31,-4,35,-8,-9,577,310,154,2
29,61,32,-45,-1,46,-28,-110,487,353,192,12
38,72,34,-55,2,53,-52,-259,265,385,226,28
45,83,38,-64,3,60,-85,-455,-63,410,260,51
50,106,56,-78,-3,81,-136,-703,-424,443,300,76
55,145,90,-100,-17,117,-203,-992,-791,483,352,102
60,186,126,-123,-33,156,-279,-1300,-1177,519,413,134
68,221,153,-144,-42,187,-365,-1629,-1605,551,490,177
80,243,163,-161,-41,203,-475,-2002,-2098,596,595,238
97,258,161,-177,-32,209,-607,-2400,-2635,660,731,315
118,282,164,-200,-23,223,-744,-2766,-3154,740,891,402
147,322,175,-234,-14,248,-875,-3063,-3612,844,1080,501
188,374,186,-281,1,280,-990,-3277,-3986,988,1314,622
237,433,196,-335,20,314,-1093,-3434,-4289,1155,1583,759
277,494,217,-385,30,355,-1195,-3598,-4561,1298,1848,892
311,555,244,-433,33,399,-1298,-3768,-4799,1423,2108,1019
357,617,260,-487,48,438,-1396,-3887,-4964,1585,2393,1157
419,677,258,-548,80,467,-1490,-3947,-5054,1789,2713,1314
492,724,232,-608,130,478,-1589,-3988,-5100,1989,3053,1488
567,761,194,-664,186,477,-1689,-4017,-5109,2155,3392,1670
631,802,171,-716,230,486,-1772,-4012,-5059,2279,3706,1846
679,846,167,-762,256,506,-1830,-3964,-4932,2354,3965,2001
713,875,162,-794,275,518,-1861,-3879,-4712,2373,4136,2122
735,888,153,-811,291,520,-1867,-3767,-4413,2326,4210,2203
743,898,155,-820,294,526,-1856,-3639,-4076,2204,4201,2236
742,900,158,-821,292,529,-1827,-3497,-3739,2012,4124,2231
739,874,135,-806,302,504,-1772,-3341,-3442,1771,3994,2203
730,805,75,-767,327,440,-1684,-3166,-3197,1461,3777,2145
693,690,-3,-691,348,343,-1559,-2963,-2999,1032,3398,2027
631,532,-99,-581,365,216,-1401,-2720,-2813,538,2875,1843
566,339,-227,-452,396,56,-1221,-2424,-2587,123,2311,1611
510,133,-377,-321,443,-122,-1035,-2089,-2310,-136,1778,1357
466,-55,-521,-205,493,-288,-865,-1755,-2018,-237,1315,1116
435,-213,-648,-111,541,-430,-717,-1441,-1727,-225,937,903
413,-339,-752,-37,582,-545,-586,-1147,-1442,-182,639,714
394,-428,-822,17,608,-625,-471,-883,-1172,-144,417,551
373,-465,-838,46,605,-651,-378,-672,-936,-104,264,416
346,-465,-811,59,578,-638,-305,-512,-741,-63,162,305
312,-463,-775,75,543,-619,-251,-382,-587,-35,78,209
275,-468,-743,96,509,-605,-209,-271,-460,-22,-2,124
239,-461,-700,111,469,-580,-168,-176,-345,-16,-76,48
205,-435,-640,115,422,-537,-126,-99,-237,-13,-139,-16
173,-399,-572,113,372,-485,-87,-38,-143,-16,-188,-68
144,-362,-506,109,325,-434,-53,6,-66,-26,-224,-108
117,-331,-448,107,282,-389,-23,40,-1,-44,-252,-143
91,-305,-396,107,243,-350,5,69,59,-62,-272,-173
61,-274,-335,106,198,-304,33,109,132,-68,-280,-195
27,-235,-262,104,144,-248,58,157,216,-57,-274,-207
2,-190,-192,94,97,-191,76,202,299,-35,-258,-207
-10,-145,-135,77,62,-140,87,236,366,-8,-235,-199
-15,-108,-93,61,39,-100,97,257,406,14,-213,-190
-15,-82,-67,48,26,-74,107,269,423,29,-196,-180
-12,-64,-52,38,20,-58,115,277,436,36,-184,-168
-9,-51,-42,30,16,-46,120,284,451,38,-176,-155
-8,-45,-37,26,14,-41,123,289,463,39,-174,-149
-8,-42,-34,25,13,-38,125,294,470,42,-174,-149
-9,-43,-34,26,12,-38,126,300,475,43,-174,-151
-12,-44,-32,28,10,-38,126,308,480,42,-171,-151
-15,-39,-24,27,4,-31,125,314,484,43,-168,-150
-18,-28,-10,23,-4,-19,125,316,487,46,-166,-150
-19,-21,-2,20,-8,-11,126,317,488,49,-163,-151
-19,-19,0,19,-9,-9,129,317,487,52,-161,-151
-18,-18,0,18,-9,-9,132,316,488,53,-160,-149
-18,-18,0,18,-9,-9,134,316,490,52,-161,-147
-20,-19,1,19,-10,-9,137,317,493,54,-160,-145
-22,-19,3,20,-12,-8,140,320,495,56,-157,-145
-24,-17,7,20,-15,-5,141,323,498,58,-154,-146
-24,-14,10,19,-17,-2,141,325,501,58,-151,-145
-23,-13,10,18,-16,-1,140,326,502,57,-150,-146
-23,-14,9,18,-16,-2,140,326,502,57,-150,-146
-24,-13,11,18,-17,-1,141,325,501,58,-151,-144
-24,-10,14,17,-19,2,144,325,501,58,-151,-142
-23,-7,16,15,-19,4,147,327,502,57,-150,-140
-20,-4,16,12,-18,6,150,330,502,57,-150,-140
-17,-3,14,10,-15,5,151,331,501,58,-151,-141
-14,-4,10,9,-12,3,151,330,501,58,-151,-141
-14,-3,11,8,-12,4,151,332,502,57,-148,-140
-17,0,17,8,-17,8,151,338,502,57,-143,-137
-19,0,19,9,-19,9,150,343,501,58,-139,-133
-18,0,18,9,-18,9,150,345,501,58,-140,-127
-19,0,19,9,-19,9,152,345,502,56,-141,-124
-22,0,22,11,-22,11,158,345,502,54,-141,-125
-25,0,25,12,-25,12,162,347,501,52,-139,-127
-28,3,31,12,-29,17,164,350,501,52,-137,-129
-29,4,33,12,-31,18,164,351,502,53,-135,-132
-29,4,33,12,-31,18,164,350,502,53,-135,-135
-28,3,31,12,-29,17,166,351,501,51,-136,-136
-28,3,31,12,-29,17,169,354,501,48,-136,-135
-29,4,33,12,-31,18,169,357,502,47,-136,-137
-28,7,35,10,-31,21,166,360,502,48,-136,-139
-29,10,39,9,-34,24,163,361,501,46,-135,-141
-29,13,42,8,-35,27,161,360,501,44,-135,-141
-28,14,42,7,-35,28,160,361,503,42,-137,-140
-28,13,41,7,-34,27,160,364,505,43,-139,-141
-30,14,44,8,-37,29,161,367,507,42,-141,-140
-32,17,49,7,-40,33,164,369,507,40,-141,-140
-34,19,53,7,-43,36,165,371,506,38,-140,-142
-34,19,53,7,-43,36,165,373,506,35,-140,-144
-33,18,51,7,-42,34,164,376,507,31,-141,-146
-33,18,51,7,-42,34,164,378,507,25,-144,-146
-34,20,54,7,-44,37,166,381,506,23,-147,-145
-33,22,55,5,-44,38,168,383,506,23,-149,-145
-34,24,58,5,-46,41,170,386,507,23,-152,-146
-34,24,58,5,-46,41,170,388,507,21,-155,-149
-33,23,56,5,-44,39,169,390,506,16,-156,-152
-33,23,56,5,-44,39,170,393,506,11,-155,-154
-35,25,60,5,-47,42,169,397,507,7,-157,-157
-37,27,64,5,-50,45,169,402,507,4,-160,-160
-39,29,68,5,-53,48,170,406,506,2,-161,-161
-39,29,68,5,-53,48,173,407,506,0,-160,-161
-38,28,66,5,-52,47,176,410,508,0,-162,-160
-38,28,66,5,-52,47,178,416,511,-2,-167,-160
-39,29,68,5,-53,48,181,421,512,-6,-171,-161
-42,29,71,6,-56,50,183,426,511,-11,-173,-164
-43,28,71,7,-57,49,185,431,512,-16,-177,-165
-43,28,71,7,-57,49,185,436,515,-21,-182,-165
-42,29,71,6,-56,50,183,440,517,-26,-186,-164
-42,29,71,6,-56,50,180,442,517,-31,-189,-165
-44,27,71,8,-57,49,180,445,516,-36,-190,-164
-47,25,72,11,-59,48,183,450,516,-40,-192,-164
-48,23,71,12,-59,47,186,455,518,-45,-197,-165
-47,23,70,12,-58,46,188,460,520,-50,-205,-168
-48,24,72,12,-60,48,191,465,522,-56,-212,-171
-51,24,75,13,-63,49,193,470,522,-64,-217,-173
-54,23,77,15,-65,50,196,475,521,-71,-220,-176
-56,24,80,16,-68,52,198,480,522,-78,-222,-179
-59,23,82,18,-70,52,202,485,521,-86,-225,-179
-62,23,85,19,-73,54,206,489,521,-97,-230,-179
-63,24,87,19,-75,55,210,495,523,-106,-237,-181
-62,24,86,19,-74,55,212,503,525,-113,-247,-187
-63,22,85,20,-74,53,216,509,527,-121,-258,-191
-66,20,86,23,-76,53,221,514,527,-130,-269,-193
-69,18,87,25,-78,52,226,520,526,-141,-275,-197
-72,18,90,27,-81,54,231,527,527,-151,-279,-201
-73,19,92,27,-82,55,236,533,526,-160,-288,-205
-72,20,92,26,-82,56,241,538,526,-169,-300,-207
-73,16,89,28,-81,52,246,544,528,-181,-312,-211
-76,11,87,32,-81,49,251,552,530,-196,-321,-216
-80,8,88,36,-84,48,254,559,530,-211,-331,-220
-85,8,93,38,-89,50,256,566,527,-226,-344,-222
-88,8,96,40,-92,52,259,573,526,-241,-358,-225
-90,5,95,42,-92,50,264,581,527,-258,-372,-230
-94,2,96,46,-95,49,271,588,526,-277,-386,-237
-99,0,99,49,-99,49,279,596,523,-297,-399,-244
-103,0,103,51,-103,51,286,603,520,-316,-410,-250
-106,-3,103,54,-104,50,294,610,517,-332,-422,-255
-108,-4,104,56,-106,50,299,618,517,-348,-436,-260
-110,-7,103,58,-106,48,304,628,517,-365,-454,-265
-113,-11,102,62,-107,45,310,639,515,-385,-471,-271
-115,-16,99,65,-107,41,318,648,509,-410,-488,-278
-118,-20,98,69,-108,39,324,656,505,-438,-506,-287
-123,-22,101,72,-112,39,328,664,502,-465,-525,-297
-128,-26,102,77,-115,38,334,672,501,-488,-546,-304
-134,-31,103,82,-118,36,342,679,499,-504,-565,-309
-137,-35,102,86,-119,33,348,685,493,-519,-583,-315
-139,-37,102,88,-120,32,353,688,486,-538,-601,-322
-143,-41,102,92,-122,30,359,696,480,-566,-619,-328
-149,-49,100,99,-124,25,366,707,475,-601,-638,-333
-151,-55,96,103,-123,20,373,715,469,-634,-659,-339
-150,-60,90,105,-120,15,378,720,461,-662,-678,-347
-152,-65,87,108,-119,11,381,723,454,-682,-696,-354
-158,-70,88,114,-123,9,384,726,447,-698,-712,-358
-161,-74,87,117,-124,6,385,727,439,-717,-731,-363
-161,-77,84,119,-122,3,388,726,429,-741,-752,-367
-161,-78,83,119,-122,2,392,727,418,-770,-768,-372
-163,-80,83,121,-123,1,397,727,409,-800,-779,-377
-166,-83,83,124,-124,0,401,725,400,-824,-790,-381
-168,-86,82,127,-125,-2,404,719,393,-843,-803,-383
-171,-87,84,129,-127,-1,405,715,387,-865,-816,-386
-174,-87,87,130,-130,0,405,713,380,-890,-828,-389
-175,-87,88,131,-131,0,404,709,367,-910,-838,-390
-175,-87,88,131,-131,0,401,701,352,-925,-845,-390
-174,-86,88,130,-131,1,398,692,342,-939,-851,-389
-174,-83,91,128,-132,4,396,682,338,-954,-858,-389
-175,-80,95,127,-135,7,393,673,332,-966,-868,-390
-175,-78,97,126,-136,9,391,663,322,-975,-879,-390
-173,-77,96,125,-134,9,388,652,312,-983,-884,-389
-171,-78,93,124,-132,7,383,640,305,-991,-883,-386
-169,-77,92,123,-130,7,376,627,297,-998,-883,-382
-169,-74,95,121,-132,10,369,612,288,-1003,-884,-377
-170,-71,99,120,-134,14,362,598,277,-1005,-880,-372
-170,-69,101,119,-135,16,354,585,267,-1005,-871,-368
-169,-66,103,117,-136,18,348,574,259,-1004,-865,-363
-166,-63,103,114,-134,20,343,562,254,-1001,-860,-358
-164,-62,102,113,-133,20,337,549,251,-998,-853,-353
-162,-62,100,112,-131,19,330,534,246,-993,-843,-348
-159,-62,97,110,-128,17,322,520,241,-985,-835,-343
-153,-60,93,106,-123,16,315,508,236,-973,-827,-338
-148,-55,93,101,-120,19,308,495,232,-958,-819,-333
-143,-49,94,96,-118,22,301,480,230,-943,-807,-328
-139,-47,92,93,-115,22,291,465,226,-928,-791,-322
-136,-47,89,91,-112,21,281,450,221,-914,-774,-315
-136,-47,89,91,-112,21,276,438,217,-900,-759,-308
-137,-44,93,90,-115,24,274,429,217,-886,-747,-301
-133,-41,92,87,-112,25,270,418,220,-868,-734,-292
-125,-39,86,82,-105,23,262,406,223,-845,-720,-282
-120,-39,81,79,-100,21,253,394,223,-822,-703,-274
-118,-39,79,78,-98,20,246,384,223,-801,-683,-270
-115,-36,79,75,-97,21,241,375,226,-779,-662,-265
-109,-31,78,70,-93,23,237,366,231,-757,-643,-260
-105,-28,77,66,-91,24,229,354,234,-735,-625,-255
-102,-28,74,65,-88,23,218,339,231,-716,-611,-253
-101,-28,73,64,-87,22,211,323,225,-698,-599,-253
-98,-25,73,61,-85,24,206,308,220,-679,-587,-254
-94,-22,72,58,-83,25,199,297,219,-655,-571,-250
-89,-19,70,54,-79,25,189,290,222,-628,-551,-242
-85,-18,67,51,-76,24,181,283,224,-601,-531,-236
-82,-19,63,50,-72,22,177,276,224,-577,-514,-231
-82,-18,64,50,-73,23,172,270,223,-556,-499,-225
-82,-15,67,48,-74,26,167,265,223,-536,-485,-217
-80,-13,67,46,-73,27,162,259,224,-517,-470,-212
-75,-13,62,44,-68,24,158,251,224,-495,-452,-210
-70,-14,56,42,-63,21,153,245,224,-471,-435,-207
-68,-14,54,41,-61,20,148,241,224,-446,-418,-202
-68,-12,56,40,-62,22,143,235,223,-423,-399,-197
-69,-10,59,39,-64,24,138,227,223,-401,-380,-192
-64,-8,56,36,-60,24,133,220,224,-378,-360,-188
-56,-8,48,32,-52,20,128,215,224,-353,-343,-186
-52,-9,43,30,-47,17,124,212,222,-329,-329,-182
-53,-9,44,31,-48,17,122,210,219,-307,-318,-177
-51,-8,43,29,-47,17,120,206,219,-287,-305,-173
-45,-8,37,26,-41,14,118,202,222,-267,-287,-171
-41,-9,32,25,-36,11,115,198,224,-249,-268,-168
-39,-9,30,24,-34,10,113,196,224,-233,-248,-163
-38,-8,30,23,-34,11,110,192,223,-215,-231,-158
-35,-8,27,21,-31,9,107,187,220,-195,-219,-152
-32,-10,22,21,-27,6,107,183,217,-175,-208,-150
-30,-12,18,21,-24,3,107,180,214,-156,-196,-148
-27,-14,13,20,-20,0,105,179,214,-136,-183,-141
-24,-14,10,19,-17,-2,100,177,217,-116,-171,-130
-23,-13,10,18,-16,-1,94,172,219,-99,-159,-123
-24,-14,10,19,-17,-2,89,166,219,-84,-147,-122
-23,-13,10,18,-16,-1,85,164,218,-71,-135,-121
-20,-13,7,16,-13,-3,82,165,218,-59,-122,-118
-17,-15,2,16,-9,-6,81,163,219,-47,-111,-115
-14,-17,-3,15,-5,-10,82,158,219,-35,-101,-113
-13,-19,-6,16,-3,-12,81,154,217,-22,-92,-110
-14,-19,-5,16,-4,-12,78,151,211,-10,-85,-108
-13,-18,-5,15,-4,-11,78,149,207,1,-79,-105
-10,-18,-8,14,-1,-13,78,147,205,10,-75,-103
-8,-20,-12,14,2,-16,76,144,202,17,-70,-100
-9,-22,-13,15,2,-17,70,142,200,24,-62,-98
-8,-24,-16,16,4,-20,65,139,199,33,-54,-95
-5,-24,-19,14,7,-21,63,137,200,43,-46,-93
-2,-23,-21,12,9,-22,62,134,198,51,-40,-90
0,-23,-23,11,11,-23,62,131,196,55,-36,-87
0,-25,-25,12,12,-25,62,130,194,59,-32,-86
0,-27,-27,13,13,-27,62,131,195,64,-27,-87
0,-29,-29,14,14,-29,63,130,194,71,-20,-86
0,-29,-29,14,14,-29,63,127,191,79,-12,-83
0,-28,-28,14,14,-28,61,124,189,83,-6,-81
0,-29,-29,14,14,-29,59,122,190,85,-1,-82
0,-28,-28,14,14,-28,57,121,189,89,1,-81
0,-28,-28,14,14,-28,58,122,186,94,2,-78
0,-30,-30,15,15,-30,57,121,183,97,5,-77
0,-32,-32,16,16,-32,54,119,181,97,8,-77
0,-34,-34,17,17,-34,52,114,178,97,9,-78
0,-34,-34,17,17,-34,52,108,175,100,8,-78
0,-33,-33,16,16,-33,53,106,174,102,9,-77
0,-34,-34,17,17,-34,53,107,175,101,12,-77
0,-33,-33,16,16,-33,52,106,174,102,14,-78
0,-33,-33,16,16,-33,49,103,171,105,14,-78
0,-35,-35,17,17,-35,46,101,169,108,13,-76
0,-37,-37,18,18,-37,43,102,170,111,13,-74
0,-39,-39,19,19,-39,42,101,169,112,14,-72
0,-39,-39,19,19,-39,42,98,166,112,14,-72
0,-38,-38,19,19,-38,43,96,164,111,12,-72
0,-38,-38,19,19,-38,42,97,164,111,9,-72
0,-38,-38,19,19,-38,43,96,165,113,9,-73
0,-38,-38,19,19,-38,43,93,165,115,12,-76
0,-39,-39,19,19,-39,42,91,164,117,14,-78
0,-41,-41,20,20,-41,39,92,162,117,14,-78
0,-44,-44,22,22,-44,38,91,159,116,13,-77
0,-47,-47,23,23,-47,38,88,157,116,13,-77
0,-48,-48,24,24,-48,39,86,154,117,14,-77
0,-48,-48,24,24,-48,39,87,151,117,13,-77
0,-47,-47,23,23,-47,38,86,150,115,14,-78
0,-47,-47,23,23,-47,38,83,150,113,14,-78
0,-48,-48,24,24,-48,39,80,151,111,13,-76
0,-48,-48,24,24,-48,39,79,151,111,13,-74
0,-46,-46,23,23,-46,38,76,150,112,15,-72
0,-44,-44,22,22,-44,38,74,147,112,17,-72
0,-42,-42,21,21,-42,39,72,145,111,19,-73
0,-42,-42,21,21,-42,42,72,145,111,19,-72
0,-43,-43,21,21,-43,43,73,146,112,18,-73
0,-43,-43,21,21,-43,43,73,149,115,18,-73
0,-42,-42,21,21,-42,42,72,152,118,19,-72
0,-42,-42,21,21,-42,42,72,155,121,19,-69
0,-43,-43,21,21,-43,43,73,156,122,18,-67
0,-43,-43,21,21,-43,43,73,156,122,18,-67
0,-42,-42,21,21,-42,42,71,155,122,19,-68
0,-42,-42,21,21,-42,40,69,156,122,19,-68
0,-43,-43,21,21,-43,38,67,155,121,18,-67
0,-43,-43,21,21,-43,38,67,155,118,18,-67
0,-42,-42,21,21,-42,40,68,156,115,19,-68
0,-42,-42,21,21,-42,42,68,156,112,19,-68
0,-43,-43,21,21,-43,42,67,154,111,18,-66
0,-43,-43,21,21,-43,40,67,148,111,18,-64
0,-42,-42,21,21,-42,37,68,144,112,18,-62
0,-42,-42,21,21,-42,34,68,141,112,18,-63
0,-43,-43,21,21,-43,33,67,140,111,19,-62
0,-43,-43,21,21,-43,33,67,140,111,19,-59
0,-42,-42,21,21,-42,34,68,141,112,18,-56
0,-42,-42,21,21,-42,34,68,141,112,18,-53
0,-43,-43,21,21,-43,33,67,140,111,19,-53
0,-43,-43,21,21,-43,33,67,141,111,19,-56
0,-42,-42,21,21,-42,34,68,140,112,18,-58
0,-42,-42,21,21,-42,34,68,140,112,18,-58
0,-43,-43,21,21,-43,33,67,141,111,19,-57
0,-43,-43,21,21,-43,33,67,141,111,19,-57
0,-42,-42,21,21,-42,34,68,140,112,18,-58
0,-42,-42,21,21,-42,34,68,140,112,18,-58
0,-43,-43,21,21,-43,33,67,141,112,19,-57
0,-43,-43,21,21,-43,30,64,144,112,19,-57
0,-42,-42,21,21,-42,28,61,146,111,18,-58
0,-42,-42,21,21,-42,28,58,146,111,15,-58
0,-43,-43,21,21,-43,29,57,145,112,13,-57
0,-46,-46,23,23,-46,29,57,145,112,13,-57
0,-48,-48,24,24,-48,28,58,146,111,14,-58
0,-48,-48,24,24,-48,29,58,146,111,14,-61
0,-47,-47,23,23,-47,28,57,146,112,13,-63
0,-47,-47,23,23,-47,28,57,146,112,13,-63
0,-48,-48,24,24,-48,29,58,145,111,14,-61
0,-48,-48,24,24,-48,29,58,145,111,17,-59
0,-47,-47,23,23,-47,28,57,146,112,19,-57
0,-47,-47,23,23,-47,25,57,146,112,19,-57
0,-48,-48,24,24,-48,22,57,145,111,18,-58
0,-48,-48,24,24,-48,19,57,142,111,18,-58
