I,II,III,aVR,aVL,aVF,V1,V2,V3,V4,V5,V6
-146,-87,58,117,-102,-14,253,87,-331,-488,-409,-214
-146,-87,58,117,-102,-14,253,87,-331,-488,-409,-214
-146,-87,58,117,-102,-14,253,87,-331,-488,-409,-214
-146,-87,58,117,-102,-14,253,87,-331,-488,-409,-214
-136,-97,39,117,-87,-29,248,78,-336,-478,-400,-214
-136,-97,39,117,-87,-29,244,68,-341,-478,-400,-214
-136,-97,39,117,-87,-29,239,58,-346,-478,-400,-214
-136,-97,39,117,-87,-29,234,48,-351,-478,-400,-214
-131,-97,34,114,-82,-31,229,43,-351,-458,-390,-209
-126,-97,29,112,-78,-34,224,39,-351,-448,-380,-204
-122,-97,24,109,-73,-36,219,34,-351,-439,-370,-200
-117,-97,19,107,-68,-39,214,29,-351,-429,-361,-195
-117,-107,9,112,-63,-48,209,24,-346,-414,-341,-180
-117,-107,9,112,-63,-48,204,19,-341,-400,-331,-175
-117,-107,9,112,-63,-48,200,14,-336,-385,-322,-170
-117,-107,9,112,-63,-48,195,9,-331,-370,-312,-165
-112,-102,9,107,-61,-46,185,4,-326,-356,-292,-161
-107,-97,9,102,-58,-43,175,0,-322,-341,-283,-156
-102,-92,9,97,-56,-41,165,-4,-317,-326,-273,-151
-97,-87,9,92,-53,-39,156,-9,-312,-312,-263,-146
-92,-82,9,87,-51,-36,151,-19,-297,-287,-248,-131
-87,-78,9,82,-48,-34,146,-19,-283,-273,-234,-126
-82,-73,9,78,-46,-31,141,-19,-268,-258,-219,-122
-78,-68,9,73,-43,-29,136,-19,-253,-244,-204,-117
-63,-68,-4,65,-29,-36,122,-19,-244,-229,-185,-107
-58,-68,-9,63,-24,-39,117,-19,-234,-214,-175,-97
-53,-68,-14,61,-19,-41,112,-19,-224,-200,-165,-87
-48,-68,-19,58,-14,-43,107,-19,-214,-185,-156,-78
-48,-68,-19,58,-14,-43,102,-19,-195,-165,-141,-68
-48,-68,-19,58,-14,-43,97,-19,-185,-156,-136,-68
-48,-68,-19,58,-14,-43,92,-19,-175,-146,-131,-68
-48,-68,-19,58,-14,-43,87,-19,-165,-136,-126,-68
-34,-58,-24,46,-4,-41,73,-19,-151,-126,-107,-53
-29,-58,-29,43,0,-43,68,-19,-146,-117,-97,-48
-24,-58,-34,41,4,-46,63,-19,-141,-107,-87,-43
-19,-58,-39,39,9,-48,58,-19,-136,-97,-78,-39
-9,-53,-43,31,17,-48,48,-19,-126,-92,-68,-29
-9,-48,-39,29,14,-43,48,-19,-117,-87,-68,-29
-9,-43,-34,26,12,-39,48,-19,-107,-82,-68,-29
-9,-39,-29,24,9,-34,48,-19,-97,-78,-68,-29
-9,-39,-29,24,9,-34,48,-14,-87,-63,-63,-19
-9,-39,-29,24,9,-34,48,-9,-78,-58,-58,-19
-9,-39,-29,24,9,-34,48,-4,-68,-53,-53,-19
-9,-39,-29,24,9,-34,48,0,-58,-48,-48,-19
0,-39,-39,19,19,-39,39,9,-43,-39,-43,-9
0,-39,-39,19,19,-39,39,9,-39,-39,-39,-9
0,-39,-39,19,19,-39,39,9,-34,-39,-34,-9
0,-39,-39,19,19,-39,39,9,-29,-39,-29,-9
0,-39,-39,19,19,-39,39,19,-14,-39,-29,0
0,-39,-39,19,19,-39,39,19,-9,-39,-29,0
0,-39,-39,19,19,-39,39,19,-4,-39,-29,0
0,-39,-39,19,19,-39,39,19,0,-39,-29,0
9,-39,-48,14,29,-43,39,29,4,-29,-29,0
9,-39,-48,14,29,-43,39,29,9,-29,-29,0
9,-39,-48,14,29,-43,39,29,14,-29,-29,0
9,-39,-48,14,29,-43,39,29,19,-29,-29,0
9,-39,-48,14,29,-43,39,39,29,-29,-29,0
9,-39,-48,14,29,-43,39,39,29,-29,-29,0
9,-39,-48,14,29,-43,39,39,29,-29,-29,0
9,-39,-48,14,29,-43,39,39,29,-29,-29,0
9,-39,-48,14,29,-43,39,39,39,-29,-19,0
9,-39,-48,14,29,-43,39,39,39,-29,-19,0
9,-39,-48,14,29,-43,39,39,39,-29,-19,0
9,-39,-48,14,29,-43,39,39,39,-29,-19,0
9,-48,-58,19,34,-53,48,43,43,-19,-19,-9
9,-48,-58,19,34,-53,48,48,48,-19,-19,-9
9,-48,-58,19,34,-53,48,53,53,-19,-19,-9
9,-48,-58,19,34,-53,48,58,58,-19,-19,-9
9,-39,-48,14,29,-43,48,58,68,-9,-9,-9
9,-39,-48,14,29,-43,48,58,68,-9,-9,-9
9,-39,-48,14,29,-43,48,58,68,-9,-9,-9
9,-39,-48,14,29,-43,48,58,68,-9,-9,-9
19,-48,-68,14,43,-58,48,58,78,0,0,0
19,-48,-68,14,43,-58,48,58,78,0,0,0
19,-48,-68,14,43,-58,48,58,78,0,0,0
19,-48,-68,14,43,-58,48,58,78,0,0,0
9,-39,-48,14,29,-43,48,58,78,0,0,0
9,-39,-48,14,29,-43,48,58,78,0,0,0
9,-39,-48,14,29,-43,48,58,78,0,0,0
9,-39,-48,14,29,-43,48,58,78,0,0,0
9,-39,-48,14,29,-43,48,68,82,4,9,0
9,-39,-48,14,29,-43,48,68,87,9,9,0
9,-39,-48,14,29,-43,48,68,92,14,9,0
9,-39,-48,14,29,-43,48,68,97,19,9,0
19,-39,-58,9,39,-48,48,68,97,29,19,9
19,-39,-58,9,39,-48,48,68,97,29,19,9
19,-39,-58,9,39,-48,48,68,97,29,19,9
19,-39,-58,9,39,-48,48,68,97,29,19,9
19,-48,-68,14,43,-58,48,58,87,39,29,9
19,-48,-68,14,43,-58,48,58,87,39,29,9
19,-48,-68,14,43,-58,48,58,87,39,29,9
19,-48,-68,14,43,-58,48,58,87,39,29,9
9,-48,-58,19,34,-53,48,68,97,48,39,9
9,-48,-58,19,34,-53,48,68,97,48,39,9
9,-48,-58,19,34,-53,48,68,97,48,39,9
9,-48,-58,19,34,-53,48,68,97,48,39,9
19,-48,-68,14,43,-58,48,58,97,48,39,0
19,-48,-68,14,43,-58,48,58,97,48,39,0
19,-48,-68,14,43,-58,48,58,97,48,39,0
19,-48,-68,14,43,-58,48,58,97,48,39,0
19,-39,-58,9,39,-48,43,58,87,48,39,0
19,-39,-58,9,39,-48,39,58,87,48,39,0
19,-39,-58,9,39,-48,34,58,87,48,39,0
19,-39,-58,9,39,-48,29,58,87,48,39,0
19,-29,-48,4,34,-39,29,48,87,39,39,9
19,-29,-48,4,34,-39,29,48,87,39,39,9
19,-29,-48,4,34,-39,29,48,87,39,39,9
19,-29,-48,4,34,-39,29,48,87,39,39,9
19,-39,-58,9,39,-48,29,48,87,39,39,9
19,-39,-58,9,39,-48,29,48,87,39,39,9
19,-39,-58,9,39,-48,29,48,87,39,39,9
19,-39,-58,9,39,-48,29,48,87,39,39,9
19,-39,-58,9,39,-48,19,39,78,39,39,19
19,-39,-58,9,39,-48,19,39,78,39,39,19
19,-39,-58,9,39,-48,19,39,78,39,39,19
19,-39,-58,9,39,-48,19,39,78,39,39,19
29,-29,-58,0,43,-43,19,29,68,29,39,19
29,-29,-58,0,43,-43,19,29,68,29,39,19
29,-29,-58,0,43,-43,19,29,68,29,39,19
29,-29,-58,0,43,-43,19,29,68,29,39,19
19,-29,-48,4,34,-39,19,19,68,29,29,9
19,-29,-48,4,34,-39,19,19,68,29,29,9
19,-29,-48,4,34,-39,19,19,68,29,29,9
19,-29,-48,4,34,-39,19,19,68,29,29,9
19,-39,-58,9,39,-48,19,29,58,19,29,19
19,-39,-58,9,39,-48,19,29,58,19,29,19
19,-39,-58,9,39,-48,19,29,58,19,29,19
19,-39,-58,9,39,-48,19,29,58,19,29,19
19,-39,-58,9,39,-48,19,19,58,9,19,19
19,-39,-58,9,39,-48,19,19,58,9,19,19
19,-39,-58,9,39,-48,19,19,58,9,19,19
19,-39,-58,9,39,-48,19,19,58,9,19,19
19,-39,-58,9,39,-48,9,19,48,0,9,9
19,-39,-58,9,39,-48,9,19,48,0,9,9
19,-39,-58,9,39,-48,9,19,48,0,9,9
19,-39,-58,9,39,-48,9,19,48,0,9,9
19,-39,-58,9,39,-48,9,9,48,0,19,9
19,-39,-58,9,39,-48,9,9,48,0,19,9
19,-39,-58,9,39,-48,9,9,48,0,19,9
19,-39,-58,9,39,-48,9,9,48,0,19,9
19,-39,-58,9,39,-48,9,19,48,0,9,9
19,-39,-58,9,39,-48,9,19,48,0,9,9
19,-39,-58,9,39,-48,9,19,48,0,9,9
19,-39,-58,9,39,-48,9,19,48,0,9,9
29,-39,-68,4,48,-53,9,9,48,0,9,9
29,-39,-68,4,48,-53,9,9,48,0,9,9
29,-39,-68,4,48,-53,9,9,48,0,9,9
29,-39,-68,4,48,-53,9,9,48,0,9,9
29,-29,-58,0,43,-43,9,9,39,0,19,9
29,-29,-58,0,43,-43,9,9,39,0,19,9
29,-29,-58,0,43,-43,9,9,39,0,19,9
29,-29,-58,0,43,-43,9,9,39,0,19,9
29,-24,-53,-2,41,-39,9,19,43,0,19,19
29,-19,-48,-4,39,-34,9,19,48,0,19,19
29,-14,-43,-7,36,-29,9,19,53,0,19,19
29,-9,-39,-9,34,-24,9,19,58,0,19,19
39,-4,-43,-17,41,-24,19,29,68,4,29,29
39,0,-39,-19,39,-19,19,29,68,9,29,29
39,4,-34,-21,36,-14,19,29,68,14,29,29
39,9,-29,-24,34,-9,19,29,68,19,29,29
43,24,-19,-34,31,2,19,29,78,19,39,24
43,29,-14,-36,29,7,24,34,82,24,39,24
43,34,-9,-39,26,12,24,34,82,29,43,29
43,39,-4,-41,24,17,24,34,87,29,43,29
48,53,4,-51,21,29,4,24,78,29,34,39
48,58,9,-53,19,34,0,14,78,29,34,43
48,63,14,-56,17,39,-4,9,78,29,39,43
53,68,14,-61,19,41,-19,4,78,29,39,43
43,58,14,-51,14,36,-39,0,58,24,34,43
39,58,19,-48,9,39,-48,-14,53,19,34,43
39,58,19,-48,9,39,-68,-24,48,19,34,43
39,53,14,-46,12,34,-82,-29,43,14,29,48
53,58,4,-56,24,31,-92,-29,48,24,39,48
58,63,4,-61,26,34,-97,-39,43,24,39,48
58,68,9,-63,24,39,-107,-39,43,24,39,53
58,82,24,-70,17,53,-107,-43,43,24,39,53
68,102,34,-85,17,68,-102,-39,43,24,39,68
68,107,39,-87,14,73,-97,-34,43,29,43,73
68,112,43,-90,12,78,-92,-29,53,29,53,78
78,112,34,-95,21,73,-87,-19,53,39,58,87
87,102,14,-95,36,58,-82,-19,68,34,63,78
87,97,9,-92,39,53,-73,-14,78,39,68,82
92,92,0,-92,46,46,-73,-9,82,43,73,87
97,87,-9,-92,53,39,-68,-4,87,43,78,87
87,87,0,-87,43,43,-73,-4,78,34,68,87
87,78,-9,-82,48,34,-68,-4,78,39,68,87
87,73,-14,-80,51,29,-68,-4,78,39,68,87
87,73,-14,-80,51,29,-68,-4,78,34,68,87
73,73,0,-73,36,36,-53,-4,68,34,68,78
58,73,14,-65,21,43,-53,-9,58,34,63,78
58,73,14,-65,21,43,-43,-9,53,29,58,68
53,63,9,-58,21,36,-39,-9,53,24,53,58
29,48,19,-39,4,34,-39,-9,48,19,39,43
29,34,4,-31,12,19,-39,-14,43,14,34,39
24,24,0,-24,12,12,-24,-14,39,4,19,34
14,14,0,-14,7,7,-19,-24,29,-9,9,29
19,14,-4,-17,12,4,-24,-24,9,-34,-9,14
14,4,-9,-9,12,-2,-24,-24,0,-39,-19,4
9,-4,-14,-2,12,-9,-19,-24,-4,-48,-29,4
4,-19,-24,7,14,-21,-19,-24,-14,-58,-34,-9
4,-24,-29,9,17,-26,-19,-24,-9,-48,-34,0
4,-24,-29,9,17,-26,-19,-24,-4,-48,-29,0
4,-24,-29,9,17,-26,-19,-24,0,-48,-24,0
4,-24,-29,9,17,-26,-14,-24,4,-48,-19,0
4,-14,-19,4,12,-17,-24,-24,-4,-48,-19,0
4,-14,-19,4,12,-17,-24,-24,-4,-48,-19,0
4,-19,-24,7,14,-21,-24,-24,-4,-48,-19,0
4,-19,-24,7,14,-21,-24,-24,-4,-53,-19,0
4,-19,-24,7,14,-21,-24,-24,-4,-53,-19,0
4,-19,-24,7,14,-21,-24,-24,-4,-53,-19,0
4,-19,-24,7,14,-21,-24,-24,-4,-53,-19,0
4,-19,-24,7,14,-21,-24,-24,-4,-53,-19,0
14,-19,-34,2,24,-26,-14,-24,-4,-53,-19,0
14,-19,-34,2,24,-26,-9,-24,-4,-53,-19,0
14,-19,-34,2,24,-26,-9,-24,-4,-53,-19,0
14,-19,-34,2,24,-26,-9,-24,-4,-53,-19,0
14,-19,-34,2,24,-26,-9,-14,-4,-53,-19,-9
14,-19,-34,2,24,-26,-9,-14,-4,-53,-19,-9
14,-19,-34,2,24,-26,-9,-14,-4,-53,-19,-9
14,-24,-39,4,26,-31,-9,-14,-4,-58,-19,-9
14,-24,-39,4,26,-31,-9,-24,-4,-48,-19,0
14,-24,-39,4,26,-31,-9,-24,-9,-48,-19,0
14,-24,-39,4,26,-31,-9,-24,-9,-48,-19,0
14,-24,-39,4,26,-31,-9,-24,-9,-48,-19,0
4,-24,-29,9,17,-26,-19,-24,-4,-58,-29,0
4,-24,-29,9,17,-26,-19,-24,-4,-58,-29,0
4,-24,-29,9,17,-26,-14,-24,-4,-58,-29,0
4,-24,-29,9,17,-26,-14,-24,-4,-58,-29,0
14,-14,-29,0,21,-21,-14,-24,-4,-58,-29,0
14,-14,-29,0,21,-21,-19,-24,-4,-58,-29,4
14,-14,-29,0,21,-21,-19,-24,-4,-58,-29,4
14,-14,-29,0,21,-21,-19,-24,-4,-58,-29,4
14,-24,-39,4,26,-31,-19,-24,-4,-58,-19,4
14,-24,-39,4,26,-31,-19,-24,-4,-58,-19,4
14,-24,-39,4,26,-31,-14,-24,-4,-58,-19,4
14,-24,-39,4,26,-31,-14,-24,-4,-53,-19,4
14,-24,-39,4,26,-31,-14,-19,-4,-53,-19,-4
14,-24,-39,4,26,-31,-14,-19,-4,-53,-19,-4
19,-19,-39,0,29,-29,-14,-24,-4,-53,-14,-4
19,-19,-39,0,29,-29,-14,-24,-4,-53,-14,-4
19,-9,-29,-4,24,-19,-4,-24,4,-43,-14,4
19,-9,-29,-4,24,-19,-9,-19,0,-43,-14,4
9,-9,-19,0,14,-14,0,-9,9,-39,-14,-4
9,0,-9,-4,9,-4,4,4,34,-24,-4,0
19,9,-9,-14,14,0,14,43,73,-14,4,0
19,4,-14,-12,17,-4,29,73,136,24,9,0
19,14,-4,-17,12,4,58,122,214,107,53,0
24,39,14,-31,4,26,73,141,268,219,102,9
43,78,34,-61,4,56,82,156,302,331,165,34
53,92,39,-73,7,65,78,165,346,448,248,63
63,122,58,-92,2,90,68,146,405,595,346,102
78,165,87,-122,-4,126,39,102,414,732,458,146
97,204,107,-151,-4,156,-9,34,429,854,546,204
126,248,122,-187,2,185,-122,-29,517,1034,678,278
185,317,131,-251,26,224,-278,-141,624,1293,873,370
239,375,136,-307,51,256,-458,-331,629,1522,1068,473
283,429,146,-356,68,287,-644,-610,473,1678,1259,590
322,502,180,-412,70,341,-819,-912,268,1839,1449,697
336,595,258,-466,39,427,-995,-1215,87,2025,1649,780
366,692,326,-529,19,509,-1180,-1478,-68,2220,1800,854
405,795,390,-600,7,592,-1366,-1693,-263,2303,1903,927
429,873,444,-651,-7,658,-1503,-1834,-414,2254,1903,971
444,863,419,-653,12,641,-1527,-1825,-473,2098,1786,951
473,741,268,-607,102,505,-1503,-1703,-434,1922,1629,912
483,575,92,-529,195,334,-1429,-1507,-346,1766,1498,854
483,366,-117,-424,300,124,-1312,-1312,-322,1551,1302,756
439,190,-248,-314,344,-29,-1146,-1171,-424,1220,1000,634
370,63,-307,-217,339,-122,-995,-1049,-556,829,639,507
312,-9,-322,-151,317,-165,-834,-946,-663,444,336,400
234,-39,-273,-97,253,-156,-692,-863,-761,73,73,317
141,-14,-156,-63,148,-85,-561,-780,-824,-302,-165,253
48,9,-39,-29,43,-14,-424,-668,-819,-546,-307,190
-9,4,14,2,-12,9,-317,-551,-717,-541,-307,112
-14,-14,0,14,-7,-7,-244,-444,-551,-375,-229,58
-19,4,24,7,-21,14,-180,-336,-380,-263,-175,24
-9,14,24,-2,-17,19,-102,-224,-248,-200,-136,14
-4,4,9,0,-7,7,-43,-131,-131,-141,-92,-4
0,4,4,-2,-2,4,-4,-63,-53,-97,-68,-29
4,0,-4,-2,4,-2,24,-34,-19,-58,-53,-29
14,-9,-24,-2,19,-17,34,-9,4,-29,-29,-14
14,-9,-24,-2,19,-17,34,4,4,-14,-9,-4
9,-9,-19,0,14,-14,34,4,4,-19,-4,0
14,-19,-34,2,24,-26,39,19,19,-29,-14,0
14,-19,-34,2,24,-26,39,19,24,-39,-14,0
14,-19,-34,2,24,-26,39,24,29,-43,-19,0
19,-24,-43,2,31,-34,39,34,34,-48,-24,0
29,-24,-53,-2,41,-39,43,34,43,-48,-14,0
29,-24,-53,-2,41,-39,43,34,43,-48,-14,0
29,-24,-53,-2,41,-39,43,34,43,-43,-14,0
29,-24,-53,-2,41,-39,43,34,43,-39,-14,0
24,-24,-48,0,36,-36,43,34,43,-34,-14,0
24,-24,-48,0,36,-36,48,34,43,-34,-9,0
24,-24,-48,0,36,-36,48,39,43,-34,-9,0
24,-24,-48,0,36,-36,48,43,53,-34,-9,0
24,-34,-58,4,41,-46,53,53,63,-29,-9,0
24,-34,-58,4,41,-46,53,58,63,-29,-9,0
24,-34,-58,4,41,-46,53,58,68,-29,-4,4
24,-34,-58,4,41,-46,53,58,68,-29,-4,4
24,-19,-43,-2,34,-31,43,48,58,-29,-4,14
24,-19,-43,-2,34,-31,48,48,63,-29,-4,14
24,-19,-43,-2,34,-31,48,48,63,-29,-4,14
24,-19,-43,-2,34,-31,48,48,63,-29,-4,14
24,-19,-43,-2,34,-31,48,53,63,-29,-4,14
24,-14,-39,-4,31,-26,48,53,63,-29,-4,9
24,-14,-39,-4,31,-26,48,53,63,-29,-4,9
24,-14,-39,-4,31,-26,48,53,68,-24,-4,9
24,-14,-39,-4,31,-26,58,58,68,-24,0,14
24,-19,-43,-2,34,-31,58,58,68,-19,0,14
29,-24,-53,-2,41,-39,53,58,68,-19,0,14
29,-29,-58,0,43,-43,53,58,68,-19,0,14
29,-19,-48,-4,39,-34,53,58,68,-29,0,14
29,-19,-48,-4,39,-34,53,58,73,-29,0,19
24,-19,-43,-2,34,-31,58,63,73,-29,0,19
24,-19,-43,-2,34,-31,58,63,78,-29,4,19
34,-19,-53,-7,43,-36,58,53,78,-19,-4,9
34,-14,-48,-9,41,-31,58,53,78,-19,-4,9
34,-14,-48,-9,41,-31,53,53,78,-19,-4,9
39,-14,-53,-12,46,-34,53,53,78,-19,-4,9
29,-14,-43,-7,36,-29,53,68,78,-19,0,14
29,-14,-43,-7,36,-29,58,68,78,-19,0,14
29,-14,-43,-7,36,-29,58,68,82,-19,0,14
29,-14,-43,-7,36,-29,58,68,82,-19,0,14
29,-14,-43,-7,36,-29,58,73,82,-19,9,24
29,-14,-43,-7,36,-29,58,73,82,-19,9,24
29,-14,-43,-7,36,-29,58,73,82,-19,9,24
24,-14,-39,-4,31,-26,58,73,82,-19,9,19
24,-14,-39,-4,31,-26,58,78,82,-19,0,19
29,-14,-43,-7,36,-29,58,78,82,-19,0,19
29,-9,-39,-9,34,-24,58,78,82,-14,0,19
29,-9,-39,-9,34,-24,58,78,87,-14,0,19
29,-19,-48,-4,39,-34,58,68,87,-24,0,19
29,-19,-48,-4,39,-34,58,73,87,-24,0,19
29,-19,-48,-4,39,-34,63,73,87,-24,0,19
29,-19,-48,-4,39,-34,63,73,87,-24,0,19
29,-9,-39,-9,34,-24,63,78,87,-24,-9,9
29,-14,-43,-7,36,-29,63,78,92,-24,-9,9
29,-14,-43,-7,36,-29,63,78,92,-19,-9,9
29,-14,-43,-7,36,-29,63,78,92,-19,-9,9
34,-9,-43,-12,39,-26,63,78,92,-24,0,19
39,-9,-48,-14,43,-29,63,82,92,-24,0,19
43,-9,-53,-17,48,-31,63,87,97,-24,0,19
48,-9,-58,-19,53,-34,63,87,97,-24,0,19
39,-19,-58,-9,48,-39,63,87,97,-14,0,19
39,-19,-58,-9,48,-39,63,87,97,-14,0,19
39,-19,-58,-9,48,-39,63,92,97,-14,0,19
39,-19,-58,-9,48,-39,63,92,97,-14,0,14
39,-14,-53,-12,46,-34,53,92,97,-24,-9,4
39,-9,-48,-14,43,-29,58,97,97,-24,-9,4
39,-4,-43,-17,41,-24,58,97,102,-24,-9,4
39,0,-39,-19,39,-19,58,97,102,-24,-14,4
48,0,-48,-24,48,-24,68,102,102,-24,-14,4
43,0,-43,-21,43,-21,68,102,102,-24,-14,4
43,0,-43,-21,43,-21,68,102,107,-24,-14,0
43,0,-43,-21,43,-21,68,107,107,-24,-14,0
34,0,-34,-17,34,-17,73,117,112,-14,-9,4
34,0,-34,-17,34,-17,73,117,112,-14,-4,4
34,-4,-39,-14,36,-21,73,117,112,-14,0,9
34,-9,-43,-12,39,-26,73,122,117,-14,0,14
34,-9,-43,-12,39,-26,73,117,107,-14,-9,4
34,-4,-39,-14,36,-21,73,122,107,-14,-9,0
34,-4,-39,-14,36,-21,73,122,107,-14,-9,0
34,-9,-43,-12,39,-26,78,122,107,-14,-9,0
39,-9,-48,-14,43,-29,68,126,107,-24,-9,-9
39,-4,-43,-17,41,-24,68,126,107,-24,-9,-9
39,-4,-43,-17,41,-24,68,126,107,-24,-9,-9
39,-4,-43,-17,41,-24,68,131,112,-29,-14,-9
39,-4,-43,-17,41,-24,68,131,102,-29,-14,-4
39,-4,-43,-17,41,-24,68,136,102,-29,-14,-4
39,-4,-43,-17,41,-24,73,136,102,-29,-14,-4
39,-4,-43,-17,41,-24,73,141,102,-29,-14,-4
39,-4,-43,-17,41,-24,73,141,112,-29,-14,-9
39,-4,-43,-17,41,-24,73,146,112,-29,-14,-9
39,-4,-43,-17,41,-24,78,146,112,-29,-14,-9
34,-4,-39,-14,36,-21,78,156,112,-29,-14,-9
34,4,-29,-19,31,-12,78,146,112,-29,-24,-9
39,4,-34,-21,36,-14,82,146,117,-34,-24,-9
39,4,-34,-21,36,-14,82,156,117,-34,-24,-9
39,4,-34,-21,36,-14,82,156,117,-34,-24,-14
34,14,-19,-24,26,-2,82,156,107,-34,-39,-24
34,14,-19,-24,26,-2,87,165,107,-39,-39,-24
34,14,-19,-24,26,-2,92,165,107,-39,-39,-24
29,14,-14,-21,21,0,92,165,107,-39,-48,-29
29,4,-24,-17,26,-9,82,170,107,-39,-48,-19
24,4,-19,-14,21,-7,87,175,107,-39,-48,-24
24,4,-19,-14,21,-7,92,175,107,-39,-53,-24
24,4,-19,-14,21,-7,97,175,102,-43,-53,-24
19,-4,-24,-7,21,-14,107,185,102,-58,-53,-24
19,-4,-24,-7,21,-14,107,185,102,-63,-63,-29
19,-4,-24,-7,21,-14,107,185,102,-63,-63,-34
19,-4,-24,-7,21,-14,112,190,92,-63,-68,-34
19,0,-19,-9,19,-9,107,180,87,-78,-73,-43
14,4,-9,-9,12,-2,112,185,87,-78,-78,-43
9,9,0,-9,4,4,112,185,87,-82,-82,-48
9,14,4,-12,2,9,107,190,87,-87,-82,-48
19,14,-4,-17,12,4,112,190,78,-82,-87,-39
14,9,-4,-12,9,2,112,195,78,-87,-92,-43
14,9,-4,-12,9,2,112,195,73,-92,-97,-53
4,9,4,-7,0,7,117,195,68,-97,-102,-53
-4,9,14,-2,-9,12,122,195,63,-112,-107,-53
-4,9,14,-2,-9,12,131,200,58,-122,-112,-58
-4,4,9,0,-7,7,136,200,53,-131,-117,-58
-4,4,9,0,-7,7,141,200,39,-141,-122,-63
0,9,9,-4,-4,9,151,190,39,-151,-126,-68
-4,4,9,0,-7,7,156,190,29,-161,-136,-73
-9,0,9,4,-9,4,161,190,24,-170,-141,-78
-14,-4,9,9,-12,2,161,190,19,-175,-151,-78
-19,-4,14,12,-17,4,151,190,4,-185,-161,-92
-19,-4,14,12,-17,4,161,190,-4,-204,-170,-97
-24,-19,4,21,-14,-7,165,185,-14,-219,-180,-97
-29,-19,9,24,-19,-4,170,185,-34,-234,-190,-102
-29,-9,19,19,-24,4,170,190,-48,-239,-200,-107
-34,-19,14,26,-24,-2,175,185,-58,-253,-209,-117
-39,-24,14,31,-26,-4,180,180,-68,-268,-219,-122
-39,-29,9,34,-24,-9,185,180,-78,-278,-234,-126
-43,-34,9,39,-26,-12,190,170,-87,-292,-244,-131
-48,-34,14,41,-31,-9,190,161,-102,-312,-253,-136
-53,-34,19,43,-36,-7,195,156,-117,-331,-263,-141
-58,-39,19,48,-39,-9,200,141,-131,-351,-283,-146
-53,-53,0,53,-26,-26,204,146,-146,-361,-292,-151
-53,-53,0,53,-26,-26,209,141,-161,-375,-307,-156
-58,-58,0,58,-29,-29,209,136,-170,-390,-312,-165
-63,-58,4,61,-34,-26,209,131,-185,-405,-322,-170
-73,-63,9,68,-41,-26,224,117,-200,-414,-331,-170
-73,-68,4,70,-39,-31,229,112,-214,-424,-341,-175
-73,-73,0,73,-36,-36,229,102,-229,-439,-351,-180
-82,-73,9,78,-46,-31,229,97,-244,-453,-361,-180
-78,-78,0,78,-39,-39,229,102,-258,-458,-370,-185
-78,-87,-9,82,-34,-48,234,87,-268,-468,-375,-190
-78,-92,-14,85,-31,-53,234,78,-283,-478,-380,-195
-78,-92,-14,85,-31,-53,234,68,-287,-483,-385,-200
-78,-97,-19,87,-29,-58,224,73,-297,-483,-385,-195
-78,-97,-19,87,-29,-58,224,63,-307,-492,-390,-195
-78,-97,-19,87,-29,-58,224,63,-317,-492,-400,-195
-82,-97,-14,90,-34,-56,224,53,-326,-492,-400,-190
-82,-112,-29,97,-26,-70,224,48,-326,-492,-390,-200
-82,-112,-29,97,-26,-70,219,34,-336,-497,-395,-200
-82,-112,-29,97,-26,-70,214,24,-336,-497,-395,-200
-82,-117,-34,100,-24,-75,209,24,-341,-492,-390,-200
-78,-117,-39,97,-19,-78,204,19,-346,-488,-390,-190
-78,-117,-39,97,-19,-78,200,14,-351,-478,-380,-185
-73,-117,-43,95,-14,-80,195,14,-356,-473,-375,-185
-73,-117,-43,95,-14,-80,190,9,-356,-458,-375,-180
-73,-117,-43,95,-14,-80,195,4,-351,-444,-361,-175
-63,-117,-53,90,-4,-85,190,0,-346,-434,-346,-170
-63,-117,-53,90,-4,-85,185,-9,-341,-424,-336,-165
-63,-122,-58,92,-2,-90,175,-9,-331,-405,-322,-156
-53,-117,-63,85,4,-90,170,-9,-331,-380,-317,-161
-48,-112,-63,80,7,-87,161,-14,-322,-366,-302,-151
-43,-107,-63,75,9,-85,146,-19,-312,-351,-292,-151
-39,-97,-58,68,9,-78,136,-19,-307,-336,-273,-141
-43,-107,-63,75,9,-85,146,-19,-292,-322,-263,-136
-43,-102,-58,73,7,-80,136,-24,-283,-307,-248,-131
-39,-92,-53,65,7,-73,131,-24,-273,-287,-234,-117
-34,-87,-53,61,9,-70,126,-24,-263,-268,-214,-107
-19,-87,-68,53,24,-78,122,-34,-253,-263,-209,-112
-14,-87,-73,51,29,-80,112,-34,-244,-244,-195,-107
-9,-82,-73,46,31,-78,107,-34,-234,-234,-185,-97
-4,-82,-78,43,36,-80,102,-39,-219,-219,-175,-87
-9,-87,-78,48,34,-82,92,-39,-209,-204,-165,-78
-4,-78,-73,41,34,-75,78,-39,-204,-190,-156,-73
4,-78,-82,36,43,-80,68,-39,-195,-175,-146,-63
9,-68,-78,29,43,-73,68,-39,-175,-170,-136,-58
14,-58,-73,21,43,-65,73,-29,-165,-161,-136,-53
19,-58,-78,19,48,-68,68,-29,-146,-146,-126,-48
24,-53,-78,14,51,-65,58,-24,-141,-136,-117,-43
24,-53,-78,14,51,-65,53,-24,-131,-126,-107,-39
29,-58,-87,14,58,-73,53,-29,-122,-117,-97,-39
29,-63,-92,17,61,-78,48,-24,-112,-107,-92,-34
29,-63,-92,17,61,-78,48,-24,-102,-102,-87,-34
34,-63,-97,14,65,-80,43,-24,-92,-97,-78,-29
34,-58,-92,12,63,-75,39,-24,-82,-97,-78,-14
39,-58,-97,9,68,-78,39,-24,-78,-92,-73,-14
48,-53,-102,2,75,-78,34,-14,-82,-87,-68,-14
48,-48,-97,0,73,-73,34,-14,-78,-82,-63,-14
48,-43,-92,-2,70,-68,34,-14,-58,-78,-58,-14
48,-43,-92,-2,70,-68,29,-9,-53,-73,-58,-9
48,-43,-92,-2,70,-68,24,-9,-39,-73,-53,-9
48,-43,-92,-2,70,-68,24,-9,-29,-68,-48,-9
53,-43,-97,-4,75,-70,24,-4,-34,-68,-43,-4
53,-43,-97,-4,75,-70,24,0,-34,-58,-43,-4
58,-43,-102,-7,80,-73,24,4,-24,-58,-43,-4
58,-43,-102,-7,80,-73,24,9,-24,-58,-43,0
63,-43,-107,-9,85,-75,14,9,-9,-58,-43,0
63,-43,-107,-9,85,-75,14,9,-4,-53,-39,0
63,-43,-107,-9,85,-75,14,9,0,-53,-39,0
63,-48,-112,-7,87,-80,14,14,4,-48,-39,0
53,-39,-92,-7,73,-65,24,19,0,-58,-39,0
53,-39,-92,-7,73,-65,24,14,9,-53,-34,0
58,-39,-97,-9,78,-68,24,9,14,-53,-29,0
58,-39,-97,-9,78,-68,24,14,19,-53,-24,0
58,-48,-107,-4,82,-78,14,29,24,-43,-24,4
58,-53,-112,-2,85,-82,19,29,29,-39,-24,4
58,-53,-112,-2,85,-82,19,29,34,-39,-24,4
58,-53,-112,-2,85,-82,19,29,39,-39,-19,4
68,-43,-112,-12,90,-78,19,34,43,-43,-19,4
68,-43,-112,-12,90,-78,19,34,48,-39,-19,4
68,-43,-112,-12,90,-78,19,39,48,-34,-19,4
68,-43,-112,-12,90,-78,19,39,48,-34,-14,4
68,-43,-112,-12,90,-78,9,39,48,-24,-4,-4
68,-43,-112,-12,90,-78,9,39,53,-19,-9,-4
68,-43,-112,-12,90,-78,14,39,58,-19,-9,-4
68,-43,-112,-12,90,-78,14,39,58,-19,-4,-9
68,-48,-117,-9,92,-82,19,43,68,-14,0,0
68,-48,-117,-9,92,-82,19,48,68,-14,0,0
68,-48,-117,-9,92,-82,19,48,68,-14,0,0
68,-48,-117,-9,92,-82,19,48,68,-14,0,0
68,-43,-112,-12,90,-78,19,48,58,-14,-4,-4
68,-48,-117,-9,92,-82,19,48,63,-9,0,-4
68,-48,-117,-9,92,-82,19,48,68,-9,0,-4
68,-48,-117,-9,92,-82,19,48,68,-9,4,-4
68,-43,-112,-12,90,-78,19,48,78,9,9,4
68,-43,-112,-12,90,-78,19,48,82,9,9,4
68,-43,-112,-12,90,-78,19,48,87,9,9,4
68,-43,-112,-12,90,-78,19,48,87,14,9,9
78,-43,-122,-17,100,-82,19,48,78,19,14,9
78,-43,-122,-17,100,-82,19,48,78,19,14,9
78,-43,-122,-17,100,-82,19,48,78,19,14,9
78,-43,-122,-17,100,-82,19,48,78,19,14,9
68,-43,-112,-12,90,-78,19,48,78,19,19,9
68,-43,-112,-12,90,-78,24,48,82,19,19,9
68,-43,-112,-12,90,-78,24,53,82,29,24,14
68,-43,-112,-12,90,-78,19,53,82,29,29,14
73,-43,-117,-14,95,-80,24,43,82,29,34,14
73,-39,-112,-17,92,-75,24,39,82,29,34,14
73,-39,-112,-17,92,-75,24,39,82,29,34,14
73,-39,-112,-17,92,-75,24,39,82,29,34,14
73,-39,-112,-17,92,-75,24,39,82,34,43,14
73,-39,-112,-17,92,-75,24,39,82,34,43,14
73,-39,-112,-17,92,-75,24,39,82,34,43,14
73,-39,-112,-17,92,-75,24,39,82,34,43,19
73,-39,-112,-17,92,-75,14,43,87,34,39,19
73,-39,-112,-17,92,-75,14,43,87,39,39,19
73,-39,-112,-17,92,-75,14,43,87,39,39,19
73,-39,-112,-17,92,-75,14,43,87,43,39,19
73,-39,-112,-17,92,-75,9,39,73,34,39,19
73,-34,-107,-19,90,-70,9,34,73,34,39,14
73,-34,-107,-19,90,-70,9,34,73,34,39,14
73,-39,-112,-17,92,-75,9,34,73,29,39,14
73,-39,-112,-17,92,-75,4,34,78,29,39,4
73,-39,-112,-17,92,-75,4,34,73,29,39,4
73,-43,-117,-14,95,-80,4,29,73,29,39,4
73,-43,-117,-14,95,-80,4,24,73,29,39,4
82,-39,-122,-21,102,-80,-4,14,63,19,29,9
82,-34,-117,-24,100,-75,-4,14,63,19,29,9
82,-34,-117,-24,100,-75,-4,14,63,19,29,9
82,-34,-117,-24,100,-75,0,14,63,19,29,9
92,-29,-122,-31,107,-75,0,14,63,14,29,9
92,-29,-122,-31,107,-75,-4,14,63,14,29,9
92,-29,-122,-31,107,-75,-9,9,53,9,29,9
92,-29,-122,-31,107,-75,-9,9,53,9,29,9
82,-39,-122,-21,102,-80,0,9,53,9,29,9
82,-39,-122,-21,102,-80,0,4,53,4,24,9
82,-29,-112,-26,97,-70,0,4,48,4,24,4
82,-29,-112,-26,97,-70,-4,4,48,-4,19,0
82,-29,-112,-26,97,-70,-4,4,48,4,19,0
82,-29,-112,-26,97,-70,-4,4,43,4,19,4
82,-29,-112,-26,97,-70,-4,4,43,4,19,9
82,-29,-112,-26,97,-70,-4,4,43,0,14,9
82,-29,-112,-26,97,-70,-4,0,39,-9,14,9
82,-29,-112,-26,97,-70,-4,-4,39,-9,14,9
82,-29,-112,-26,97,-70,-4,-4,39,-9,9,9
82,-29,-112,-26,97,-70,-9,-4,39,-14,9,9
82,-29,-112,-26,97,-70,-9,-4,39,-14,9,0
82,-29,-112,-26,97,-70,-9,-4,39,-14,9,4
82,-29,-112,-26,97,-70,-9,-9,39,-14,9,4
82,-29,-112,-26,97,-70,-9,-9,39,-14,9,4
82,-29,-112,-26,97,-70,-19,-9,29,-14,9,4
82,-29,-112,-26,97,-70,-19,-9,29,-14,9,4
82,-29,-112,-26,97,-70,-19,-9,29,-14,9,0
82,-29,-112,-26,97,-70,-19,-9,24,-14,9,-4
82,-29,-112,-26,97,-70,-9,0,34,-14,9,4
87,-29,-117,-29,102,-73,-9,-4,34,-19,9,9
87,-29,-117,-29,102,-73,-9,-4,34,-19,9,9
87,-24,-112,-31,100,-68,-9,-4,34,-24,9,9
87,-24,-112,-31,100,-68,-9,-4,39,-24,9,9
87,-24,-112,-31,100,-68,-9,-4,39,-24,9,9
87,-24,-112,-31,100,-68,-9,-4,39,-24,4,9
87,-19,-107,-34,97,-63,-14,-4,34,-24,0,9
97,-14,-112,-41,104,-63,-14,4,34,-14,19,9
97,-4,-102,-46,100,-53,-14,4,43,-14,9,14
97,0,-97,-48,97,-48,-4,4,43,-14,19,14
97,0,-97,-48,97,-48,-4,14,53,4,19,19
107,9,-97,-58,102,-43,0,19,58,9,19,19
107,14,-92,-61,100,-39,-9,9,58,9,29,19
107,19,-87,-63,97,-34,-9,9,58,9,29,19
107,24,-82,-65,95,-29,-9,9,58,9,29,19
107,29,-78,-68,92,-24,-9,9,58,9,29,19
122,43,-78,-82,100,-17,-9,9,58,0,29,24
122,48,-73,-85,97,-12,-4,14,63,4,29,24
122,53,-68,-87,95,-7,-4,14,63,9,34,29
122,58,-63,-90,92,-2,-4,14,68,9,34,29
126,63,-63,-95,95,0,-24,14,68,14,24,29
126,68,-58,-97,92,4,-29,4,68,19,24,34
126,73,-53,-100,90,9,-34,0,68,24,29,34
131,78,-53,-104,92,12,-48,-4,68,29,29,34
122,78,-43,-100,82,17,-63,-19,48,14,34,34
117,78,-39,-97,78,19,-78,-34,43,9,34,34
117,78,-39,-97,78,19,-102,-43,39,9,34,34
117,73,-43,-95,80,14,-122,-48,34,4,29,39
131,82,-48,-107,90,17,-122,-39,29,14,29,39
136,82,-53,-109,95,14,-126,-48,24,14,29,39
136,82,-53,-109,95,14,-136,-48,24,14,29,43
136,92,-43,-114,90,24,-136,-53,24,14,29,43
146,102,-43,-124,95,29,-126,-53,34,4,29,48
146,107,-39,-126,92,34,-126,-53,34,9,34,53
146,112,-34,-129,90,39,-126,-53,43,9,43,58
156,112,-43,-134,100,34,-126,-48,43,19,48,68
156,112,-43,-134,100,34,-122,-39,39,24,53,58
156,107,-48,-131,102,29,-112,-34,48,29,58,63
161,102,-58,-131,109,21,-112,-29,53,34,63,68
165,97,-68,-131,117,14,-107,-24,58,34,68,68
156,87,-68,-122,112,9,-92,-14,58,34,68,68
156,78,-78,-117,117,0,-87,-14,58,39,68,68
156,73,-82,-114,119,-4,-87,-14,58,39,68,68
156,73,-82,-114,119,-4,-87,-14,58,34,68,68
141,63,-78,-102,109,-7,-82,-14,58,24,58,68
126,63,-63,-95,95,0,-82,-19,48,24,53,68
126,63,-63,-95,95,0,-73,-19,43,19,48,58
122,53,-68,-87,95,-7,-68,-19,43,14,43,48
107,39,-68,-73,87,-14,-68,-19,29,0,29,34
107,24,-82,-65,95,-29,-68,-24,24,-4,24,29
102,14,-87,-58,95,-36,-53,-24,19,-14,9,24
92,4,-87,-48,90,-41,-48,-34,9,-29,0,19
97,-4,-102,-46,100,-53,-43,-34,0,-43,-9,4
92,-14,-107,-39,100,-61,-43,-34,-9,-48,-19,-4
87,-24,-112,-31,100,-68,-39,-34,-14,-58,-29,-4
82,-39,-122,-21,102,-80,-39,-34,-24,-68,-34,-19
82,-34,-117,-24,100,-75,-39,-34,-14,-68,-29,-9
82,-34,-117,-24,100,-75,-39,-34,-14,-68,-29,-9
82,-34,-117,-24,100,-75,-39,-34,-14,-68,-29,-9
82,-34,-117,-24,100,-75,-34,-34,-14,-68,-29,-9
82,-34,-117,-24,100,-75,-43,-34,-14,-68,-29,-9
82,-34,-117,-24,100,-75,-43,-34,-14,-68,-29,-9
82,-39,-122,-21,102,-80,-43,-34,-14,-68,-29,-9
82,-39,-122,-21,102,-80,-43,-34,-14,-73,-29,-9
82,-39,-122,-21,102,-80,-43,-34,-14,-73,-29,-9
82,-39,-122,-21,102,-80,-43,-34,-14,-73,-29,-9
82,-39,-122,-21,102,-80,-43,-34,-14,-73,-29,-9
82,-39,-122,-21,102,-80,-43,-34,-14,-73,-29,-9
82,-48,-131,-17,107,-90,-43,-34,-14,-73,-29,-9
82,-48,-131,-17,107,-90,-39,-34,-14,-73,-29,-9
82,-48,-131,-17,107,-90,-39,-34,-14,-73,-29,-9
82,-48,-131,-17,107,-90,-39,-34,-14,-73,-29,-9
82,-48,-131,-17,107,-90,-29,-24,-14,-73,-29,-9
82,-48,-131,-17,107,-90,-29,-24,-14,-73,-29,-9
82,-48,-131,-17,107,-90,-29,-24,-14,-73,-29,-9
82,-53,-136,-14,109,-95,-29,-24,-14,-78,-29,-9
82,-43,-126,-19,104,-85,-29,-24,-14,-68,-29,-9
82,-43,-126,-19,104,-85,-29,-24,-19,-68,-29,-9
82,-43,-126,-19,104,-85,-29,-24,-19,-68,-29,-9
82,-43,-126,-19,104,-85,-29,-24,-19,-68,-29,-9
82,-53,-136,-14,109,-95,-29,-24,-14,-68,-29,-9
82,-53,-136,-14,109,-95,-29,-24,-14,-68,-29,-9
82,-53,-136,-14,109,-95,-24,-24,-14,-68,-29,-9
82,-53,-136,-14,109,-95,-24,-24,-14,-68,-29,-9
82,-53,-136,-14,109,-95,-24,-24,-14,-68,-29,-9
82,-53,-136,-14,109,-95,-29,-24,-14,-68,-29,-4
82,-53,-136,-14,109,-95,-29,-24,-14,-68,-29,-4
82,-53,-136,-14,109,-95,-29,-24,-14,-68,-29,-4
82,-53,-136,-14,109,-95,-29,-24,-14,-68,-29,-4
82,-53,-136,-14,109,-95,-29,-24,-14,-68,-29,-4
82,-53,-136,-14,109,-95,-24,-24,-14,-68,-29,-4
82,-53,-136,-14,109,-95,-24,-24,-14,-63,-29,-4
82,-63,-146,-9,114,-104,-24,-19,-14,-63,-29,-4
82,-63,-146,-9,114,-104,-24,-19,-14,-63,-29,-4
87,-58,-146,-14,117,-102,-24,-24,-14,-63,-24,-4
87,-58,-146,-14,117,-102,-24,-24,-14,-63,-24,-4
78,-58,-136,-9,107,-97,-24,-14,-4,-53,-24,-4
87,-58,-146,-14,117,-102,-19,-19,0,-53,-24,-4
78,-48,-126,-14,102,-87,-19,-9,0,-58,-24,-4
87,-48,-136,-19,112,-92,-14,-4,4,-53,-14,-9
87,-48,-136,-19,112,-92,-14,24,34,-34,-14,-9
87,-53,-141,-17,114,-97,9,53,87,-14,-9,-19
87,-43,-131,-21,109,-87,39,102,165,48,24,-9
92,-19,-112,-36,102,-65,63,141,248,151,73,0
92,19,-73,-56,82,-26,73,156,283,253,117,14
102,43,-58,-73,80,-7,78,156,307,351,180,34
122,63,-58,-92,90,2,68,146,346,478,258,63
126,97,-29,-112,78,34,48,112,375,614,351,117
136,136,0,-136,68,68,9,53,400,756,458,175
165,180,14,-173,75,97,-73,0,448,897,570,239
214,239,24,-226,95,131,-219,-92,556,1117,727,312
258,317,58,-287,100,187,-400,-253,629,1366,912,405
312,380,68,-346,122,224,-595,-502,551,1561,1083,502
351,444,92,-397,129,268,-800,-814,356,1712,1263,610
385,527,141,-456,122,334,-1005,-1156,156,1898,1454,712
405,624,219,-514,92,422,-1200,-1459,9,2122,1644,795
453,736,283,-595,85,509,-1405,-1693,-136,2303,1805,878
488,824,336,-656,75,580,-1571,-1873,-297,2361,1893,961
512,854,341,-683,85,597,-1625,-1922,-375,2313,1864,980
541,800,258,-671,141,529,-1620,-1820,-336,2196,1756,951
561,673,112,-617,224,392,-1566,-1644,-248,2059,1644,902
570,502,-68,-536,319,217,-1459,-1429,-165,1883,1498,824
556,307,-248,-431,402,29,-1302,-1239,-219,1590,1244,722
507,151,-356,-329,431,-102,-1141,-1117,-370,1190,893,595
429,29,-400,-229,414,-185,-971,-995,-527,736,531,468
351,-58,-409,-146,380,-234,-810,-902,-653,317,239,366
248,-63,-312,-92,280,-187,-658,-839,-785,-87,-19,302
146,-48,-195,-48,170,-122,-512,-746,-858,-468,-239,219
68,-43,-112,-12,90,-78,-395,-629,-824,-629,-336,131
34,-53,-87,9,61,-70,-312,-522,-668,-502,-287,78
29,-53,-82,12,56,-68,-239,-424,-497,-341,-224,34
39,-43,-82,2,61,-63,-170,-302,-346,-258,-175,4
34,-53,-87,9,61,-70,-92,-180,-219,-190,-131,-14
48,-53,-102,2,75,-78,-34,-102,-112,-117,-97,-19
53,-48,-102,-2,78,-75,-4,-53,-48,-78,-63,-19
53,-48,-102,-2,78,-75,24,-19,-14,-58,-29,-24
53,-39,-92,-7,73,-65,24,4,4,-34,-19,-14
58,-29,-87,-14,73,-58,14,4,4,-19,-14,-9
53,-34,-87,-9,70,-61,19,9,0,-29,-24,-19
53,-39,-92,-7,73,-65,19,9,4,-39,-24,-19
53,-43,-97,-4,75,-70,19,14,9,-43,-29,-19
58,-53,-112,-2,85,-82,19,24,14,-48,-34,-19
68,-53,-122,-7,95,-87,24,43,24,-53,-34,-19
68,-53,-122,-7,95,-87,24,43,24,-58,-34,-19
68,-53,-122,-7,95,-87,24,43,24,-58,-34,-19
68,-53,-122,-7,95,-87,24,43,24,-58,-34,-19
63,-53,-117,-4,90,-85,24,34,24,-43,-34,-19
63,-53,-117,-4,90,-85,29,34,24,-43,-29,-19
63,-53,-117,-4,90,-85,29,39,24,-43,-29,-19
63,-53,-117,-4,90,-85,29,43,34,-43,-29,-19
63,-43,-107,-9,85,-75,34,43,34,-48,-29,-9
63,-43,-107,-9,85,-75,34,48,34,-48,-29,-9
63,-43,-107,-9,85,-75,34,48,39,-48,-24,-4
63,-43,-107,-9,85,-75,34,48,39,-48,-24,-4
63,-39,-102,-12,82,-70,34,48,39,-48,-24,-14
63,-39,-102,-12,82,-70,39,48,43,-48,-24,-14
63,-39,-102,-12,82,-70,39,48,43,-48,-24,-14
63,-39,-102,-12,82,-70,39,48,43,-48,-24,-14
63,-39,-102,-12,82,-70,39,63,53,-39,-24,-14
63,-34,-97,-14,80,-65,39,63,53,-39,-24,-19
63,-34,-97,-14,80,-65,39,63,53,-39,-24,-19
63,-34,-97,-14,80,-65,39,63,58,-34,-24,-19
63,-29,-92,-17,78,-61,39,68,58,-43,-19,-14
63,-29,-92,-17,78,-61,39,68,58,-39,-19,-14
68,-29,-97,-19,82,-63,34,68,58,-39,-19,-14
68,-29,-97,-19,82,-63,34,68,58,-39,-19,-14
68,-29,-97,-19,82,-63,34,58,48,-39,-19,-14
68,-29,-97,-19,82,-63,34,58,53,-39,-19,-9
63,-29,-92,-17,78,-61,39,63,53,-39,-19,-9
63,-29,-92,-17,78,-61,39,63,58,-39,-14,-9
53,-29,-82,-12,68,-56,39,73,58,-29,-14,-9
53,-24,-78,-14,65,-51,39,73,58,-29,-14,-9
53,-24,-78,-14,65,-51,34,73,58,-29,-14,-9
58,-24,-82,-17,70,-53,34,73,58,-29,-14,-9
58,-24,-82,-17,70,-53,34,68,58,-39,-19,-4
58,-24,-82,-17,70,-53,39,68,58,-39,-19,-4
58,-24,-82,-17,70,-53,39,68,63,-39,-19,-4
58,-24,-82,-17,70,-53,39,68,63,-39,-19,-4
58,-24,-82,-17,70,-53,39,73,63,-39,-19,-4
58,-24,-82,-17,70,-53,39,73,63,-39,-19,-4
58,-24,-82,-17,70,-53,39,73,63,-39,-19,-4
53,-24,-78,-14,65,-51,39,73,63,-39,-19,-9
53,-24,-78,-14,65,-51,39,78,63,-39,-19,0
58,-24,-82,-17,70,-53,39,78,63,-39,-19,0
58,-19,-78,-19,68,-48,39,78,63,-34,-19,0
58,-19,-78,-19,68,-48,39,78,68,-34,-19,0
58,-19,-78,-19,68,-48,39,87,78,-34,-19,0
58,-19,-78,-19,68,-48,39,92,78,-34,-19,0
58,-19,-78,-19,68,-48,43,92,78,-34,-19,0
58,-19,-78,-19,68,-48,43,92,78,-34,-19,0
58,-19,-78,-19,68,-48,43,97,78,-34,-19,0
58,-24,-82,-17,70,-53,43,97,82,-34,-19,0
58,-24,-82,-17,70,-53,43,97,82,-29,-19,0
58,-24,-82,-17,70,-53,43,97,82,-29,-19,0
48,-19,-68,-14,58,-43,43,97,82,-24,-19,-9
48,-19,-68,-14,58,-43,43,102,82,-24,-19,-9
48,-19,-68,-14,58,-43,43,107,87,-24,-19,-9
48,-19,-68,-14,58,-43,43,107,87,-24,-19,-9
48,-19,-68,-14,58,-43,43,107,87,-24,-19,-9
48,-19,-68,-14,58,-43,43,107,87,-24,-19,-9
48,-19,-68,-14,58,-43,43,112,87,-24,-19,-9
48,-19,-68,-14,58,-43,43,112,87,-24,-19,-14
39,-19,-58,-9,48,-39,53,112,87,-24,-19,-14
39,-19,-58,-9,48,-39,58,117,87,-24,-19,-14
39,-19,-58,-9,48,-39,58,117,92,-24,-19,-14
39,-19,-58,-9,48,-39,58,117,92,-24,-24,-14
48,-9,-58,-19,53,-34,48,112,82,-24,-24,-14
43,-9,-53,-17,48,-31,48,112,82,-24,-24,-14
43,-9,-53,-17,48,-31,48,112,87,-24,-24,-19
43,-9,-53,-17,48,-31,48,117,87,-24,-24,-19
34,-14,-48,-9,41,-31,53,126,82,-34,-24,-19
34,-9,-43,-12,39,-26,53,126,82,-34,-24,-24
34,-9,-43,-12,39,-26,53,126,82,-34,-24,-24
34,-9,-43,-12,39,-26,53,131,87,-34,-29,-24
34,-9,-43,-12,39,-26,63,136,87,-24,-29,-24
34,-4,-39,-14,36,-21,63,141,87,-24,-29,-29
34,-4,-39,-14,36,-21,63,141,87,-24,-29,-29
34,-9,-43,-12,39,-26,68,141,87,-24,-29,-29
29,-19,-48,-4,39,-34,68,146,97,-24,-29,-29
29,-14,-43,-7,36,-29,68,146,97,-24,-29,-29
29,-14,-43,-7,36,-29,68,146,97,-24,-29,-29
29,-14,-43,-7,36,-29,68,151,102,-29,-34,-29
29,-4,-34,-12,31,-19,68,161,102,-29,-34,-34
29,-4,-34,-12,31,-19,68,165,102,-29,-34,-34
29,-4,-34,-12,31,-19,73,165,102,-29,-34,-34
29,-4,-34,-12,31,-19,73,170,102,-29,-34,-34
29,-4,-34,-12,31,-19,73,161,102,-39,-43,-39
29,-4,-34,-12,31,-19,73,165,102,-39,-43,-39
29,-4,-34,-12,31,-19,78,165,102,-39,-43,-39
24,-4,-29,-9,26,-17,78,175,102,-39,-43,-39
14,-4,-19,-4,17,-12,78,185,102,-39,-43,-39
19,-4,-24,-7,21,-14,82,185,107,-43,-43,-39
19,-4,-24,-7,21,-14,82,195,107,-43,-43,-39
19,-4,-24,-7,21,-14,82,195,107,-43,-43,-43
24,-4,-29,-9,26,-17,82,195,97,-43,-48,-34
24,-4,-29,-9,26,-17,87,204,97,-48,-48,-34
24,-4,-29,-9,26,-17,92,204,97,-48,-48,-34
19,-4,-24,-7,21,-14,92,204,97,-48,-58,-39
19,4,-14,-12,17,-4,82,200,97,-58,-58,-48
14,4,-9,-9,12,-2,87,204,97,-58,-58,-53
14,4,-9,-9,12,-2,92,204,97,-58,-63,-53
14,4,-9,-9,12,-2,97,204,92,-63,-63,-53
9,4,-4,-7,7,0,107,224,92,-68,-63,-53
9,4,-4,-7,7,0,107,224,92,-73,-73,-58
9,4,-4,-7,7,0,107,224,92,-73,-73,-63
9,4,-4,-7,7,0,112,229,82,-73,-78,-63
9,-4,-14,-2,12,-9,112,229,78,-87,-82,-63
4,-4,-9,0,7,-7,122,234,78,-87,-87,-63
0,-4,-4,2,2,-4,126,234,78,-92,-92,-68
0,-4,-4,2,2,-4,126,239,78,-97,-92,-68
0,-4,-4,2,2,-4,131,239,68,-92,-107,-68
-4,-9,-4,7,0,-7,131,244,68,-97,-112,-73
-4,-9,-4,7,0,-7,131,244,63,-102,-117,-82
-14,-9,4,12,-9,-2,136,244,58,-107,-122,-82
-24,-9,14,17,-19,2,131,234,53,-112,-126,-82
-24,-9,14,17,-19,2,141,239,48,-122,-131,-87
-24,-14,9,19,-17,-2,146,239,43,-131,-136,-87
-24,-14,9,19,-17,-2,151,239,29,-141,-141,-92
-29,-9,19,19,-24,4,151,229,19,-161,-156,-97
-34,-14,19,24,-26,2,156,229,9,-170,-165,-102
-39,-19,19,29,-29,0,161,229,4,-180,-170,-107
-43,-24,19,34,-31,-2,161,229,0,-185,-180,-107
-39,-34,4,36,-21,-14,170,239,-14,-195,-180,-122
-39,-34,4,36,-21,-14,180,239,-24,-214,-190,-126
-43,-48,-4,46,-19,-26,185,234,-34,-229,-200,-126
-48,-48,0,48,-24,-24,190,234,-53,-244,-209,-131
-58,-39,19,48,-39,-9,190,229,-68,-258,-229,-126
-63,-48,14,56,-39,-17,195,224,-78,-273,-239,-136
-68,-53,14,61,-41,-19,200,219,-87,-287,-248,-141
-68,-58,9,63,-39,-24,204,219,-97,-297,-263,-146
-73,-63,9,68,-41,-26,209,204,-117,-307,-273,-161
-78,-63,14,70,-46,-24,209,200,-131,-322,-283,-165
-82,-63,19,73,-51,-21,214,200,-146,-336,-292,-170
-87,-68,19,78,-53,-24,219,190,-161,-351,-312,-175
-102,-73,29,87,-65,-21,234,185,-175,-370,-312,-170
-102,-73,29,87,-65,-21,239,180,-190,-385,-326,-175
-107,-78,29,92,-68,-24,239,175,-200,-400,-331,-185
-112,-78,34,95,-73,-21,239,170,-214,-414,-341,-190
-102,-82,19,92,-61,-31,248,165,-229,-424,-351,-190
-102,-87,14,95,-58,-36,248,161,-244,-434,-361,-195
-102,-92,9,97,-56,-41,244,151,-258,-448,-370,-200
-112,-92,19,102,-65,-36,239,146,-273,-463,-380,-200
-117,-87,29,102,-73,-29,239,131,-297,-478,-400,-214
-117,-97,19,107,-68,-39,244,117,-307,-488,-405,-219
-117,-102,14,109,-65,-43,244,107,-322,-497,-409,-224
-117,-102,14,109,-65,-43,244,97,-326,-502,-414,-229
-126,-117,9,122,-68,-53,244,102,-326,-502,-414,-224
-126,-117,9,122,-68,-53,244,92,-336,-512,-419,-224
-126,-117,9,122,-68,-53,244,92,-346,-512,-429,-224
-131,-117,14,124,-73,-51,244,82,-356,-512,-429,-219
-131,-122,9,126,-70,-56,234,68,-366,-502,-419,-219
-131,-122,9,126,-70,-56,229,53,-375,-507,-424,-219
-131,-122,9,126,-70,-56,224,43,-375,-507,-424,-219
-131,-126,4,129,-68,-61,219,43,-380,-502,-419,-219
-117,-126,-9,122,-53,-68,214,29,-385,-497,-419,-219
-117,-126,-9,122,-53,-68,209,24,-390,-488,-409,-214
-112,-126,-14,119,-48,-70,204,24,-395,-483,-405,-214
-112,-126,-14,119,-48,-70,200,19,-395,-468,-405,-209
-112,-117,-4,114,-53,-61,195,24,-385,-453,-390,-204
-102,-117,-14,109,-43,-65,190,19,-385,-444,-375,-200
-102,-117,-14,109,-43,-65,185,9,-385,-434,-366,-195
-102,-122,-19,112,-41,-70,175,9,-380,-414,-351,-185
-102,-112,-9,107,-46,-61,170,-9,-370,-390,-336,-180
-97,-112,-14,104,-41,-63,161,-14,-361,-375,-322,-170
-92,-112,-19,102,-36,-65,146,-19,-351,-361,-312,-170
-87,-107,-19,97,-34,-63,136,-19,-346,-346,-292,-161
-73,-97,-24,85,-24,-61,136,-19,-331,-331,-283,-156
-73,-92,-19,82,-26,-56,126,-24,-322,-317,-268,-151
-68,-82,-14,75,-26,-48,122,-24,-312,-297,-253,-136
-63,-78,-14,70,-24,-46,117,-24,-302,-278,-234,-126
-48,-78,-29,63,-9,-53,112,-34,-287,-263,-229,-122
-43,-78,-34,61,-4,-56,102,-34,-273,-244,-214,-117
-39,-73,-34,56,-2,-53,97,-34,-258,-234,-204,-107
-34,-73,-39,53,2,-56,92,-39,-239,-219,-195,-97
-39,-68,-29,53,-4,-48,82,-39,-229,-204,-175,-107
-34,-58,-24,46,-4,-41,68,-39,-224,-190,-165,-102
-24,-58,-34,41,4,-46,58,-39,-214,-175,-156,-92
-19,-48,-29,34,4,-39,58,-39,-195,-170,-146,-87
-14,-48,-34,31,9,-41,53,-39,-185,-151,-136,-73
-9,-48,-39,29,14,-43,48,-39,-165,-136,-126,-68
-4,-43,-39,24,17,-41,39,-34,-161,-126,-117,-63
-4,-43,-39,24,17,-41,34,-34,-151,-117,-107,-58
0,-43,-43,21,21,-43,34,-19,-141,-107,-97,-48
0,-43,-43,21,21,-43,29,-14,-131,-97,-92,-43
0,-39,-39,19,19,-39,29,-14,-122,-92,-87,-43
4,-34,-39,14,21,-36,24,-14,-112,-87,-78,-39
4,-43,-48,19,26,-46,19,-24,-97,-78,-68,-34
9,-48,-58,19,34,-53,19,-24,-87,-73,-63,-34
19,-48,-68,14,43,-58,14,-14,-87,-68,-58,-34
19,-48,-68,14,43,-58,14,-14,-78,-63,-53,-34
19,-43,-63,12,41,-53,14,-14,-68,-58,-58,-24
19,-43,-63,12,41,-53,9,-9,-63,-53,-58,-19
19,-43,-63,12,41,-53,4,-9,-48,-53,-53,-19
19,-43,-63,12,41,-53,4,-9,-39,-48,-48,-19
24,-34,-58,4,41,-46,14,-4,-24,-48,-43,-14
24,-34,-58,4,41,-46,14,0,-24,-39,-43,-14
29,-34,-63,2,46,-48,14,4,-14,-39,-43,-14
29,-34,-63,2,46,-48,14,9,-14,-39,-43,-9
34,-43,-78,4,56,-61,4,9,-9,-39,-43,-9
34,-43,-78,4,56,-61,4,9,-4,-34,-39,-9
34,-43,-78,4,56,-61,4,9,0,-34,-39,-9
34,-48,-82,7,58,-65,4,14,4,-29,-39,-9
34,-48,-82,7,58,-65,4,24,0,-29,-39,-9
34,-48,-82,7,58,-65,4,24,9,-24,-34,-9
39,-48,-87,4,63,-68,4,24,14,-24,-29,-9
39,-48,-87,4,63,-68,4,34,19,-24,-24,-9
39,-48,-87,4,63,-68,14,48,24,-24,-24,-14
39,-53,-92,7,65,-73,19,48,29,-19,-24,-14
39,-53,-92,7,65,-73,19,48,34,-19,-24,-14
39,-53,-92,7,65,-73,19,48,39,-19,-19,-14
39,-53,-92,7,65,-73,9,53,43,-19,-29,-14
39,-53,-92,7,65,-73,9,53,48,-19,-29,-14
39,-53,-92,7,65,-73,9,58,48,-19,-29,-14
39,-53,-92,7,65,-73,9,58,48,-24,-24,-14
39,-43,-82,2,61,-63,19,58,58,-24,-14,-14
39,-43,-82,2,61,-63,19,58,63,-19,-19,-14
39,-43,-82,2,61,-63,24,58,68,-19,-19,-14
39,-43,-82,2,61,-63,24,58,68,-19,-14,-19
39,-48,-87,4,63,-68,19,63,68,-14,-9,-9
39,-48,-87,4,63,-68,19,68,68,-14,-9,-9
39,-48,-87,4,63,-68,19,68,68,-14,-9,-9
39,-48,-87,4,63,-68,19,68,68,-14,-9,-9
29,-53,-82,12,56,-68,19,68,68,-14,-14,-14
29,-58,-87,14,58,-73,19,68,73,-9,-9,-14
29,-58,-87,14,58,-73,19,68,78,-9,-9,-14
29,-58,-87,14,58,-73,19,68,78,-9,-4,-14
29,-53,-82,12,56,-68,19,78,68,0,-9,-14
29,-53,-82,12,56,-68,19,78,73,0,-9,-14
29,-53,-82,12,56,-68,19,78,78,0,-9,-14
29,-53,-82,12,56,-68,19,78,78,4,-9,-9
39,-53,-92,7,65,-73,19,68,78,0,4,-9
39,-53,-92,7,65,-73,19,68,78,0,4,-9
39,-53,-92,7,65,-73,19,68,78,0,4,-9
39,-53,-92,7,65,-73,19,68,78,0,4,-9
29,-53,-82,12,56,-68,19,68,78,19,9,-9
29,-53,-82,12,56,-68,24,68,82,19,9,-9
29,-53,-82,12,56,-68,24,73,82,29,14,-4
29,-53,-82,12,56,-68,19,73,82,29,19,-4
34,-53,-87,9,61,-70,14,63,82,19,14,-14
34,-48,-82,7,58,-65,14,58,82,19,14,-14
34,-48,-82,7,58,-65,14,58,82,19,14,-14
34,-48,-82,7,58,-65,14,58,82,19,14,-14
43,-58,-102,7,73,-80,14,68,82,34,24,-4
43,-58,-102,7,73,-80,14,68,82,34,24,-4
43,-58,-102,7,73,-80,14,68,82,34,24,-4
43,-58,-102,7,73,-80,14,68,82,34,24,0
43,-58,-102,7,73,-80,14,63,87,34,29,0
43,-58,-102,7,73,-80,14,63,87,39,29,0
43,-58,-102,7,73,-80,14,63,87,39,29,0
43,-58,-102,7,73,-80,14,63,87,43,29,0
43,-58,-102,7,73,-80,9,58,82,34,29,0
43,-53,-97,4,70,-75,9,53,82,34,29,-4
43,-53,-97,4,70,-75,9,53,82,34,29,-4
43,-58,-102,7,73,-80,9,53,82,29,29,-4
43,-48,-92,2,68,-70,4,53,78,29,29,4
43,-48,-92,2,68,-70,4,53,73,29,29,4
43,-53,-97,4,70,-75,4,48,73,29,29,4
43,-53,-97,4,70,-75,4,43,73,29,29,4
43,-58,-102,7,73,-80,4,43,73,29,29,0
43,-53,-97,4,70,-75,4,43,73,29,29,0
43,-53,-97,4,70,-75,4,43,73,29,29,0
43,-53,-97,4,70,-75,9,43,73,29,29,0
43,-48,-92,2,68,-70,9,43,73,24,29,0
43,-48,-92,2,68,-70,4,43,73,24,29,0
43,-48,-92,2,68,-70,0,39,63,19,29,0
43,-48,-92,2,68,-70,0,39,63,19,29,0
43,-58,-102,7,73,-80,0,39,63,19,39,9
43,-58,-102,7,73,-80,0,34,63,14,34,9
43,-48,-92,2,68,-70,0,34,58,14,34,4
43,-48,-92,2,68,-70,-4,34,58,4,29,0
34,-48,-82,7,58,-65,-4,24,58,4,19,0
34,-48,-82,7,58,-65,-4,24,53,4,19,4
34,-48,-82,7,58,-65,-4,24,53,4,19,9
34,-48,-82,7,58,-65,-4,24,53,0,14,9
43,-48,-92,2,68,-70,-4,29,58,9,24,9
43,-48,-92,2,68,-70,-4,24,58,9,24,9
43,-48,-92,2,68,-70,-4,24,58,9,19,9
43,-48,-92,2,68,-70,-9,24,58,4,19,9
43,-48,-92,2,68,-70,-9,24,48,-4,9,9
43,-48,-92,2,68,-70,-9,24,48,-4,9,14
43,-48,-92,2,68,-70,-9,19,48,-4,9,14
43,-48,-92,2,68,-70,-9,19,48,-4,9,14
43,-39,-82,-2,63,-61,-9,19,48,-4,9,14
43,-39,-82,-2,63,-61,-9,19,48,-4,9,14
43,-39,-82,-2,63,-61,-9,19,48,-4,9,9
43,-39,-82,-2,63,-61,-9,19,43,-4,9,4
34,-48,-82,7,58,-65,0,19,43,-4,9,4
39,-48,-87,4,63,-68,0,14,43,-9,9,9
39,-48,-87,4,63,-68,0,14,43,-9,9,9
39,-43,-82,2,61,-63,0,14,43,-14,9,9
39,-43,-82,2,61,-63,-9,14,39,-14,9,9
39,-43,-82,2,61,-63,-9,14,39,-14,9,9
39,-43,-82,2,61,-63,-9,14,39,-14,4,9
39,-39,-78,0,58,-58,-14,14,34,-14,0,9
39,-43,-82,2,61,-63,-14,14,34,-14,0,9
39,-43,-82,2,61,-63,-14,14,34,-14,0,4
39,-48,-87,4,63,-68,-14,14,34,-14,0,4
39,-48,-87,4,63,-68,-14,14,34,-14,0,9
39,-39,-78,0,58,-58,-14,14,39,-14,0,9
39,-39,-78,0,58,-58,-14,14,39,-14,0,9
39,-39,-78,0,58,-58,-14,19,34,-14,4,9
43,-39,-82,-2,63,-61,-14,19,34,-14,4,9
43,-34,-78,-4,61,-56,-4,19,34,-14,4,4
43,-29,-73,-7,58,-51,-4,19,39,-19,4,4
43,-29,-73,-7,58,-51,0,19,39,-19,4,4
43,-29,-73,-7,58,-51,0,19,43,-14,9,4
53,-19,-73,-17,63,-46,-9,19,43,-4,0,4
63,-9,-73,-26,68,-41,-9,19,48,-14,9,4
63,-9,-73,-26,68,-41,0,19,43,-9,9,14
58,-9,-68,-24,63,-39,-9,19,48,-9,9,9
58,-4,-63,-26,61,-34,-9,29,58,-4,19,19
58,0,-58,-29,58,-29,-9,29,58,0,19,19
58,4,-53,-31,56,-24,-9,29,58,4,19,19
58,9,-48,-34,53,-19,-9,29,58,9,19,19
63,24,-39,-43,51,-7,-9,29,58,19,29,24
63,29,-34,-46,48,-2,-4,34,63,24,29,24
63,34,-29,-48,46,2,-4,34,63,29,34,29
63,39,-24,-51,43,7,-4,34,68,29,34,29
68,43,-24,-56,46,9,-4,43,78,29,34,29
68,48,-19,-58,43,14,-9,34,78,29,34,34
68,53,-14,-61,41,19,-14,29,78,29,39,34
73,58,-14,-65,43,21,-29,24,78,29,39,34
73,68,-4,-70,39,31,-39,19,78,24,34,34
68,68,0,-68,34,34,-48,4,73,19,34,34
68,68,0,-68,34,34,-68,-4,68,19,34,34
68,63,-4,-65,36,29,-82,-9,63,14,29,39
63,58,-4,-61,34,26,-102,-9,48,4,29,39
68,53,-14,-61,41,19,-107,-19,43,4,29,39
68,48,-19,-58,43,14,-117,-19,43,4,29,43
68,53,-14,-61,41,19,-117,-24,43,4,29,43
78,73,-4,-75,41,34,-117,-34,39,4,19,39
78,78,0,-78,39,39,-117,-34,34,9,24,43
78,82,4,-80,36,43,-117,-34,39,9,34,48
87,82,-4,-85,46,39,-117,-29,34,19,39,58
97,92,-4,-95,51,43,-112,-19,48,24,53,68
97,87,-9,-92,53,39,-102,-14,58,29,58,73
102,82,-19,-92,61,31,-102,-9,63,34,63,78
107,78,-29,-92,68,24,-97,-4,68,34,68,78
107,68,-39,-87,73,14,-82,4,68,34,68,78
107,58,-48,-82,78,4,-78,4,68,39,68,78
107,53,-53,-80,80,0,-78,4,68,39,68,78
107,53,-53,-80,80,0,-78,4,68,34,68,78
102,63,-39,-82,70,12,-82,14,78,34,78,87
87,63,-24,-75,56,19,-82,9,68,34,73,87
87,63,-24,-75,56,19,-73,9,63,29,68,78
82,53,-29,-68,56,12,-68,9,63,24,63,68
68,48,-19,-58,43,14,-58,9,48,29,58,63
68,34,-34,-51,51,0,-58,4,43,24,53,58
63,24,-39,-43,51,-7,-43,4,39,14,39,53
53,14,-39,-34,46,-12,-39,-4,29,0,29,48
39,4,-34,-21,36,-14,-43,-14,19,-24,9,24
34,-4,-39,-14,36,-21,-43,-14,9,-29,0,14
29,-14,-43,-7,36,-29,-39,-14,4,-39,-9,14
24,-29,-53,2,39,-41,-39,-14,-4,-48,-14,0
24,-43,-68,9,46,-56,-29,-14,-4,-48,-19,0
24,-43,-68,9,46,-56,-29,-14,-4,-48,-19,0
24,-43,-68,9,46,-56,-29,-14,-4,-48,-19,0
24,-43,-68,9,46,-56,-24,-14,-4,-48,-19,0
24,-34,-58,4,41,-46,-24,-14,-4,-48,-19,0
24,-34,-58,4,41,-46,-24,-14,-4,-48,-19,0
24,-39,-63,7,43,-51,-24,-14,-4,-48,-19,0
24,-39,-63,7,43,-51,-24,-14,-4,-53,-19,0
24,-48,-73,12,48,-61,-24,-14,-4,-53,-19,0
24,-48,-73,12,48,-61,-24,-14,-4,-53,-19,0
24,-48,-73,12,48,-61,-24,-14,-4,-53,-19,0
24,-48,-73,12,48,-61,-24,-14,-4,-53,-19,0
24,-39,-63,7,43,-51,-34,-14,-4,-53,-19,0
24,-39,-63,7,43,-51,-29,-14,-4,-53,-19,0
24,-39,-63,7,43,-51,-29,-14,-4,-53,-19,0
24,-39,-63,7,43,-51,-29,-14,-4,-53,-19,0
24,-48,-73,12,48,-61,-29,-14,-4,-53,-19,0
24,-48,-73,12,48,-61,-29,-14,-4,-53,-19,0
24,-48,-73,12,48,-61,-29,-14,-4,-53,-19,0
24,-53,-78,14,51,-65,-29,-14,-4,-58,-19,0
24,-43,-68,9,46,-56,-19,-14,-4,-58,-19,0
24,-43,-68,9,46,-56,-19,-14,-9,-58,-19,0
24,-43,-68,9,46,-56,-19,-14,-9,-58,-19,0
24,-43,-68,9,46,-56,-19,-14,-9,-58,-19,0
24,-53,-78,14,51,-65,-19,-14,-4,-58,-29,0
24,-53,-78,14,51,-65,-19,-14,-4,-58,-29,0
24,-53,-78,14,51,-65,-14,-14,-4,-58,-29,0
24,-53,-78,14,51,-65,-14,-14,-4,-58,-29,0
24,-53,-78,14,51,-65,-14,-14,-4,-58,-19,0
24,-53,-78,14,51,-65,-19,-14,-4,-58,-19,4
24,-53,-78,14,51,-65,-19,-14,-4,-58,-19,4
24,-53,-78,14,51,-65,-19,-14,-4,-58,-19,4
24,-53,-78,14,51,-65,-19,-14,-4,-58,-19,4
24,-53,-78,14,51,-65,-19,-14,-4,-58,-19,4
24,-53,-78,14,51,-65,-14,-14,-4,-58,-19,4
24,-53,-78,14,51,-65,-14,-14,-4,-53,-19,4
24,-53,-78,14,51,-65,-14,-9,-4,-53,-29,4
24,-53,-78,14,51,-65,-14,-9,-4,-53,-29,4
29,-48,-78,9,53,-63,-14,-14,-4,-53,-24,4
29,-48,-78,9,53,-63,-14,-14,-4,-53,-24,4
29,-48,-78,9,53,-63,-14,-14,-4,-53,-24,4
29,-48,-78,9,53,-63,-19,-19,-9,-53,-24,4
29,-39,-68,4,48,-53,-9,-19,0,-48,-24,4
29,-39,-68,4,48,-53,-4,-4,14,-43,-14,0
39,-39,-78,0,58,-58,-4,4,14,-34,-14,0
29,-34,-63,2,46,-48,9,34,39,-24,-9,0
29,-34,-63,2,46,-48,19,63,87,-9,-4,0
43,-29,-73,-7,58,-51,43,122,170,53,24,0
43,-9,-53,-17,48,-31,73,175,263,165,78,14
34,24,-9,-29,21,7,97,204,326,283,151,34
53,53,0,-53,26,26,97,195,366,400,219,53
58,78,19,-68,19,48,87,180,405,536,302,87
78,126,48,-102,14,87,68,131,439,688,409,146
97,180,82,-139,7,131,4,58,458,839,531,209
126,229,102,-178,12,165,-92,-24,488,971,639,273
161,278,117,-219,21,197,-253,-175,570,1171,805,356
214,341,126,-278,43,234,-439,-385,600,1415,1015,453
273,405,131,-339,70,268,-644,-678,483,1605,1215,551
317,497,180,-407,68,339,-878,-1039,263,1751,1415,673
356,605,248,-480,53,427,-1102,-1420,39,1917,1634,785
395,707,312,-551,41,509,-1317,-1722,-126,2127,1854,888
439,805,366,-622,36,585,-1522,-1971,-307,2303,2030,990
473,893,419,-683,26,656,-1673,-2147,-463,2361,2117,1078
502,907,405,-705,48,656,-1717,-2161,-512,2313,2078,1098
541,839,297,-690,122,568,-1703,-2034,-463,2186,1937,1049
561,727,165,-644,197,446,-1634,-1830,-341,2039,1771,980
566,570,4,-568,280,287,-1517,-1600,-248,1854,1586,888
546,395,-151,-470,348,122,-1366,-1400,-273,1561,1302,771
488,244,-244,-366,366,0,-1195,-1239,-409,1176,941,634
409,117,-292,-263,351,-87,-1005,-1098,-546,746,580,502
317,34,-283,-175,300,-124,-824,-985,-688,322,283,400
214,0,-214,-107,214,-107,-658,-893,-800,-78,14,326
107,-4,-112,-51,109,-58,-502,-785,-854,-434,-229,239
24,-4,-29,-9,26,-17,-370,-658,-814,-600,-326,136
-9,-14,-4,12,-2,-9,-287,-531,-673,-497,-273,73
-9,-4,4,7,-7,0,-219,-409,-483,-326,-204,34
-14,24,39,-4,-26,31,-151,-287,-317,-229,-161,14
-9,24,34,-7,-21,29,-92,-180,-190,-165,-117,-9
-4,19,24,-7,-14,21,-34,-102,-97,-107,-82,-9
-4,9,14,-2,-9,12,14,-48,-43,-68,-58,-14
-4,9,14,-2,-9,12,24,-14,-4,-43,-29,-14
9,9,0,-9,4,4,24,14,4,-29,-14,-9
4,9,4,-7,0,7,19,19,0,-19,-24,-14
4,9,4,-7,0,7,19,19,4,-29,-24,-19
4,9,4,-7,0,7,19,24,9,-34,-29,-24
9,4,-4,-7,7,0,19,34,14,-39,-34,-29
19,14,-4,-17,12,4,24,43,24,-53,-34,-19
19,14,-4,-17,12,4,24,43,24,-58,-34,-19
19,14,-4,-17,12,4,24,43,24,-58,-34,-19
19,14,-4,-17,12,4,24,43,24,-58,-34,-19
14,14,0,-14,7,7,24,43,24,-43,-34,-19
14,14,0,-14,7,7,29,43,24,-43,-29,-19
14,14,0,-14,7,7,29,48,24,-43,-29,-19
14,14,0,-14,7,7,29,53,34,-43,-29,-19
14,14,0,-14,7,7,34,53,34,-48,-29,-29
14,14,0,-14,7,7,34,58,34,-48,-29,-29
14,14,0,-14,7,7,34,58,39,-48,-24,-24
14,14,0,-14,7,7,34,58,39,-48,-24,-24
14,19,4,-17,4,12,24,48,39,-48,-24,-24
14,19,4,-17,4,12,29,48,43,-48,-24,-24
14,19,4,-17,4,12,29,48,43,-48,-24,-24
14,19,4,-17,4,12,29,48,43,-48,-24,-24
24,19,-4,-21,14,7,29,63,43,-48,-34,-24
24,24,0,-24,12,12,29,63,43,-48,-34,-29
24,24,0,-24,12,12,29,63,43,-48,-34,-29
24,24,0,-24,12,12,29,63,48,-43,-34,-29
14,29,14,-21,0,21,29,58,48,-53,-29,-24
14,29,14,-21,0,21,29,58,48,-48,-29,-24
19,29,9,-24,4,19,24,58,48,-48,-29,-24
19,29,9,-24,4,19,24,58,48,-48,-29,-24
19,29,9,-24,4,19,24,68,48,-39,-29,-34
19,29,9,-24,4,19,24,68,53,-39,-29,-29
14,29,14,-21,0,21,29,73,53,-39,-29,-29
14,29,14,-21,0,21,29,73,58,-39,-24,-29
24,29,4,-26,9,17,39,73,58,-39,-24,-29
24,34,9,-29,7,21,39,73,58,-39,-24,-29
24,34,9,-29,7,21,34,73,58,-39,-24,-29
29,34,4,-31,12,19,34,73,58,-39,-24,-29
19,34,14,-26,2,24,24,68,58,-39,-29,-24
19,34,14,-26,2,24,29,68,58,-39,-29,-24
19,34,14,-26,2,24,29,68,63,-39,-29,-24
19,34,14,-26,2,24,29,68,63,-39,-29,-24
29,34,4,-31,12,19,39,82,73,-39,-29,-24
29,34,4,-31,12,19,39,82,73,-39,-29,-24
29,34,4,-31,12,19,39,82,73,-39,-29,-24
24,34,9,-29,7,21,39,82,73,-39,-29,-29
14,34,19,-24,-2,26,39,87,73,-39,-19,-19
19,34,14,-26,2,24,39,87,73,-39,-19,-19
19,39,19,-29,0,29,39,87,73,-34,-19,-19
19,39,19,-29,0,29,39,87,78,-34,-19,-19
19,39,19,-29,0,29,39,87,68,-34,-29,-19
19,39,19,-29,0,29,39,92,68,-34,-29,-19
19,39,19,-29,0,29,43,92,68,-34,-29,-19
19,39,19,-29,0,29,43,92,68,-34,-29,-19
19,39,19,-29,0,29,43,87,78,-34,-29,-19
19,34,14,-26,2,24,43,87,82,-34,-29,-19
19,34,14,-26,2,24,43,87,82,-29,-29,-19
19,34,14,-26,2,24,43,87,82,-29,-29,-19
19,48,29,-34,-4,39,43,97,73,-34,-29,-19
19,48,29,-34,-4,39,43,102,73,-34,-29,-19
19,48,29,-34,-4,39,43,107,78,-34,-29,-19
19,48,29,-34,-4,39,43,107,78,-34,-29,-19
19,39,19,-29,0,29,43,107,78,-34,-29,-29
19,39,19,-29,0,29,43,107,78,-34,-29,-29
19,39,19,-29,0,29,43,112,78,-34,-29,-29
19,39,19,-29,0,29,43,112,78,-34,-29,-34
29,48,19,-39,4,34,43,112,78,-34,-29,-24
29,48,19,-39,4,34,48,117,78,-34,-29,-24
29,48,19,-39,4,34,48,117,82,-34,-29,-24
29,48,19,-39,4,34,48,117,82,-34,-34,-24
19,48,29,-34,-4,39,48,122,82,-24,-34,-34
14,48,34,-31,-9,41,48,122,82,-24,-34,-34
14,48,34,-31,-9,41,48,122,87,-24,-34,-39
14,48,34,-31,-9,41,48,126,87,-24,-34,-39
14,43,29,-29,-7,36,53,126,92,-24,-34,-29
14,48,34,-31,-9,41,53,126,92,-24,-34,-34
14,48,34,-31,-9,41,53,126,92,-24,-34,-34
14,48,34,-31,-9,41,53,131,97,-24,-39,-34
14,39,24,-26,-4,31,53,136,97,-24,-39,-34
14,43,29,-29,-7,36,53,141,97,-24,-39,-39
14,43,29,-29,-7,36,53,141,97,-24,-39,-39
14,39,24,-26,-4,31,58,141,97,-24,-39,-39
19,39,19,-29,0,29,58,156,97,-34,-39,-39
19,43,24,-31,-2,34,58,156,97,-34,-39,-39
19,43,24,-31,-2,34,58,156,97,-34,-39,-39
19,43,24,-31,-2,34,58,161,102,-39,-43,-39
19,53,34,-36,-7,43,58,151,102,-29,-43,-43
19,53,34,-36,-7,43,58,156,102,-29,-43,-43
19,53,34,-36,-7,43,63,156,102,-29,-43,-43
19,53,34,-36,-7,43,63,161,102,-29,-43,-43
19,53,34,-36,-7,43,73,161,102,-39,-53,-48
19,53,34,-36,-7,43,73,165,102,-39,-53,-48
19,53,34,-36,-7,43,78,165,102,-39,-53,-48
14,53,39,-34,-12,46,78,175,102,-39,-53,-48
4,43,39,-24,-17,41,78,185,102,-39,-53,-48
9,43,34,-26,-12,39,82,185,107,-43,-53,-48
9,43,34,-26,-12,39,82,195,107,-43,-53,-48
9,43,34,-26,-12,39,82,195,107,-43,-53,-53
14,43,29,-29,-7,36,82,195,107,-43,-58,-53
14,43,29,-29,-7,36,87,204,107,-48,-58,-53
14,43,29,-29,-7,36,92,204,107,-48,-58,-53
9,43,34,-26,-12,39,92,204,107,-48,-68,-58
9,53,43,-31,-17,48,92,209,97,-58,-68,-58
4,53,48,-29,-21,51,97,214,97,-58,-68,-63
4,53,48,-29,-21,51,102,214,97,-58,-73,-63
4,53,48,-29,-21,51,107,214,92,-63,-73,-63
-9,43,53,-17,-31,48,107,224,102,-58,-73,-73
-9,43,53,-17,-31,48,107,224,102,-63,-82,-78
-9,43,53,-17,-31,48,107,224,102,-63,-82,-82
-9,43,53,-17,-31,48,112,229,92,-63,-87,-82
-9,53,63,-21,-36,58,102,229,87,-78,-92,-82
-14,53,68,-19,-41,61,112,234,87,-78,-97,-82
-19,53,73,-17,-46,63,117,234,87,-82,-102,-87
-19,53,73,-17,-46,63,117,239,87,-87,-102,-87
-9,53,63,-21,-36,58,131,239,68,-92,-107,-87
-14,48,63,-17,-39,56,131,244,68,-97,-112,-92
-14,48,63,-17,-39,56,131,244,63,-102,-117,-102
-24,48,73,-12,-48,61,136,244,58,-107,-122,-102
-34,48,82,-7,-58,65,131,234,63,-122,-126,-102
-34,48,82,-7,-58,65,141,239,58,-131,-131,-107
-34,43,78,-4,-56,61,146,239,53,-141,-136,-107
-34,43,78,-4,-56,61,151,239,39,-151,-141,-112
-39,43,82,-2,-61,63,151,239,29,-156,-146,-117
-43,43,87,0,-65,65,156,239,19,-161,-156,-122
-48,43,92,2,-70,68,161,239,14,-165,-161,-126
-53,43,97,4,-75,70,161,239,9,-165,-170,-126
-58,53,112,2,-85,82,161,239,4,-185,-190,-131
-58,53,112,2,-85,82,170,239,-4,-204,-200,-136
-63,39,102,12,-82,70,175,234,-14,-219,-209,-136
-68,39,107,14,-87,73,180,234,-34,-234,-219,-141
-68,39,107,14,-87,73,180,229,-48,-239,-229,-156
-73,29,102,21,-87,65,185,224,-58,-253,-239,-165
-78,24,102,26,-90,63,190,219,-68,-268,-248,-170
-78,19,97,29,-87,58,195,219,-78,-278,-263,-175
-73,14,87,29,-80,51,200,204,-87,-292,-273,-180
-78,14,92,31,-85,53,200,200,-102,-312,-283,-185
-82,14,97,34,-90,56,204,200,-117,-331,-292,-190
-87,9,97,39,-92,53,209,190,-131,-351,-312,-195
-92,4,97,43,-95,51,214,195,-156,-366,-322,-190
-92,4,97,43,-95,51,219,190,-170,-375,-336,-195
-97,0,97,48,-97,48,219,185,-180,-385,-341,-204
-102,0,102,51,-102,51,219,180,-195,-395,-351,-209
-102,-14,87,58,-95,36,234,165,-200,-405,-361,-209
-102,-19,82,61,-92,31,239,161,-214,-414,-370,-214
-102,-24,78,63,-90,26,239,151,-229,-429,-380,-219
-112,-24,87,68,-100,31,239,146,-244,-444,-390,-219
-117,-19,97,68,-107,39,239,151,-263,-468,-409,-234
-117,-29,87,73,-102,29,244,136,-278,-478,-414,-239
-117,-34,82,75,-100,24,244,126,-297,-488,-419,-244
-117,-34,82,75,-100,24,244,117,-307,-492,-424,-248
-117,-39,78,78,-97,19,234,107,-317,-492,-434,-253
-117,-39,78,78,-97,19,234,92,-326,-502,-439,-253
-117,-39,78,78,-97,19,234,87,-336,-502,-448,-253
-122,-39,82,80,-102,21,234,73,-346,-502,-448,-248
-122,-53,68,87,-95,7,234,68,-366,-507,-448,-258
-122,-53,68,87,-95,7,229,53,-375,-517,-453,-258
-122,-53,68,87,-95,7,224,43,-375,-522,-453,-258
-122,-58,63,90,-92,2,219,43,-380,-522,-448,-258
-117,-58,58,87,-87,0,214,29,-395,-517,-439,-248
-117,-58,58,87,-87,0,209,24,-400,-507,-429,-244
-112,-58,53,85,-82,-2,204,24,-405,-502,-424,-244
-112,-58,53,85,-82,-2,200,19,-405,-488,-424,-239
-112,-58,53,85,-82,-2,185,4,-405,-483,-419,-244
-102,-58,43,80,-73,-7,180,0,-405,-473,-405,-239
-102,-58,43,80,-73,-7,175,-9,-405,-463,-395,-234
-102,-63,39,82,-70,-12,165,-9,-400,-444,-380,-224
-92,-53,39,73,-65,-7,170,-29,-400,-429,-375,-219
-87,-53,34,70,-61,-9,161,-34,-390,-414,-361,-209
-82,-53,29,68,-56,-12,146,-39,-380,-400,-351,-209
-78,-48,29,63,-53,-9,136,-39,-375,-385,-331,-200
-73,-58,14,65,-43,-21,136,-39,-370,-370,-322,-195
-73,-53,19,63,-46,-17,126,-43,-361,-356,-307,-190
-68,-43,24,56,-46,-9,122,-43,-351,-336,-292,-175
-63,-39,24,51,-43,-7,117,-43,-341,-317,-273,-165
-58,-48,9,53,-34,-19,102,-53,-322,-292,-248,-151
-53,-48,4,51,-29,-21,92,-53,-312,-273,-234,-146
-48,-43,4,46,-26,-19,87,-53,-302,-263,-224,-136
-43,-43,0,43,-21,-21,82,-58,-287,-248,-214,-126
-39,-29,9,34,-24,-9,82,-48,-268,-234,-204,-126
-34,-19,14,26,-24,-2,68,-48,-263,-219,-195,-122
-24,-19,4,21,-14,-7,58,-48,-253,-204,-185,-112
-19,-9,9,14,-14,0,58,-48,-234,-200,-175,-107
-14,-19,-4,17,-4,-12,43,-58,-224,-180,-165,-102
-9,-19,-9,14,0,-14,39,-58,-204,-165,-156,-97
-4,-14,-9,9,2,-12,29,-53,-200,-156,-146,-92
-4,-14,-9,9,2,-12,24,-53,-190,-146,-136,-87
0,-24,-24,12,12,-24,24,-48,-170,-136,-131,-78
0,-24,-24,12,12,-24,19,-43,-161,-126,-122,-73
0,-19,-19,9,9,-19,19,-43,-151,-122,-112,-73
4,-14,-19,4,12,-17,14,-43,-141,-117,-97,-68
4,-4,-9,0,7,-7,19,-34,-136,-107,-87,-53
9,-9,-19,0,14,-14,19,-34,-126,-102,-82,-53
19,-9,-29,-4,24,-19,14,-24,-126,-97,-78,-53
19,-9,-29,-4,24,-19,14,-24,-117,-92,-73,-53
19,-4,-24,-7,21,-14,14,-34,-107,-87,-68,-53
19,-4,-24,-7,21,-14,9,-29,-102,-82,-68,-48
19,-4,-24,-7,21,-14,4,-29,-87,-82,-63,-48
19,-4,-24,-7,21,-14,4,-29,-78,-78,-58,-48
24,-4,-29,-9,26,-17,4,-24,-63,-78,-63,-43
24,-4,-29,-9,26,-17,4,-19,-63,-68,-63,-43
29,-4,-34,-12,31,-19,4,-14,-53,-68,-63,-43
29,-4,-34,-12,31,-19,4,-9,-53,-68,-63,-39
24,-4,-29,-9,26,-17,-4,-9,-39,-58,-53,-29
24,-4,-29,-9,26,-17,-4,-9,-34,-53,-48,-29
24,-4,-29,-9,26,-17,-4,-9,-29,-53,-48,-29
24,-9,-34,-7,29,-21,-4,-4,-24,-48,-48,-29
24,0,-24,-12,24,-12,4,4,-19,-58,-58,-29
24,0,-24,-12,24,-12,4,4,-9,-53,-53,-29
29,0,-29,-14,29,-14,4,4,-4,-53,-48,-29
29,0,-29,-14,29,-14,4,14,0,-53,-43,-29
19,-9,-29,-4,24,-19,14,19,-4,-53,-43,-34
19,-14,-34,-2,26,-24,19,19,0,-48,-43,-34
19,-14,-34,-2,26,-24,19,19,4,-48,-43,-34
19,-14,-34,-2,26,-24,19,19,9,-48,-39,-34
19,-14,-34,-2,26,-24,19,34,24,-53,-39,-34
19,-14,-34,-2,26,-24,19,34,29,-48,-39,-34
19,-14,-34,-2,26,-24,19,39,29,-43,-39,-34
19,-14,-34,-2,26,-24,19,39,29,-43,-34,-34
19,-4,-24,-7,21,-14,19,39,29,-43,-34,-34
19,-4,-24,-7,21,-14,19,39,34,-39,-39,-34
19,-4,-24,-7,21,-14,24,39,39,-39,-39,-34
19,-4,-24,-7,21,-14,24,39,39,-39,-34,-39
19,-9,-29,-4,24,-19,29,43,48,-34,-29,-29
19,-9,-29,-4,24,-19,29,48,48,-34,-29,-29
19,-9,-29,-4,24,-19,29,48,48,-34,-29,-29
19,-9,-29,-4,24,-19,29,48,48,-34,-29,-29
19,-14,-34,-2,26,-24,29,48,48,-34,-34,-24
19,-19,-39,0,29,-29,29,48,53,-29,-29,-24
19,-19,-39,0,29,-29,29,48,58,-29,-29,-24
19,-19,-39,0,29,-29,29,48,58,-29,-24,-24
9,-14,-24,2,17,-19,29,58,48,-19,-19,-24
9,-14,-24,2,17,-19,29,58,53,-19,-19,-24
9,-14,-24,2,17,-19,29,58,58,-19,-19,-24
9,-14,-24,2,17,-19,29,58,58,-14,-19,-19
9,-14,-24,2,17,-19,29,58,68,-9,-4,-29
9,-14,-24,2,17,-19,29,58,68,-9,-4,-29
9,-14,-24,2,17,-19,29,58,68,-9,-4,-29
9,-14,-24,2,17,-19,29,58,68,-9,-4,-29
9,-14,-24,2,17,-19,29,58,68,0,-9,-29
9,-14,-24,2,17,-19,34,58,73,0,-9,-29
9,-14,-24,2,17,-19,34,63,73,9,-4,-24
9,-14,-24,2,17,-19,29,63,73,9,0,-24
14,-14,-29,0,21,-21,24,53,73,9,4,-24
14,-9,-24,-2,19,-17,24,48,73,9,4,-24
14,-9,-24,-2,19,-17,24,48,73,9,4,-24
14,-9,-24,-2,19,-17,24,48,73,9,4,-24
14,-9,-24,-2,19,-17,24,48,73,14,14,-24
14,-9,-24,-2,19,-17,24,48,73,14,14,-24
14,-9,-24,-2,19,-17,24,48,73,14,14,-24
14,-9,-24,-2,19,-17,24,48,73,14,14,-19
14,-9,-24,-2,19,-17,24,53,78,14,19,-19
14,-9,-24,-2,19,-17,24,53,78,19,19,-19
14,-9,-24,-2,19,-17,24,53,78,19,19,-19
14,-9,-24,-2,19,-17,24,53,78,24,19,-19
14,-9,-24,-2,19,-17,9,48,73,24,19,-19
14,-4,-19,-4,17,-12,9,43,73,24,19,-24
14,-4,-19,-4,17,-12,9,43,73,24,19,-24
14,-9,-24,-2,19,-17,9,43,73,19,19,-24
14,0,-14,-7,14,-7,4,43,78,19,19,-14
14,0,-14,-7,14,-7,4,43,73,19,19,-14
14,-4,-19,-4,17,-12,4,39,73,19,19,-14
14,-4,-19,-4,17,-12,4,34,73,19,19,-14
14,0,-14,-7,14,-7,4,34,73,19,19,-9
14,4,-9,-9,12,-2,4,34,73,19,19,-9
14,4,-9,-9,12,-2,4,34,73,19,19,-9
14,4,-9,-9,12,-2,9,34,73,19,19,-9
14,0,-14,-7,14,-7,9,34,63,24,19,-19
14,0,-14,-7,14,-7,4,34,63,24,19,-19
14,0,-14,-7,14,-7,0,29,53,19,19,-19
14,0,-14,-7,14,-7,0,29,53,19,19,-19
14,-9,-24,-2,19,-17,0,29,53,9,19,-9
14,-9,-24,-2,19,-17,0,24,53,4,14,-9
14,0,-14,-7,14,-7,0,24,48,4,14,-14
14,0,-14,-7,14,-7,-4,24,48,-4,9,-19
14,0,-14,-7,14,-7,-4,24,48,4,9,-19
14,0,-14,-7,14,-7,-4,24,43,4,9,-14
14,0,-14,-7,14,-7,-4,24,43,4,9,-9
14,0,-14,-7,14,-7,-4,24,43,0,4,-9
14,0,-14,-7,14,-7,-4,19,39,0,14,-9
14,0,-14,-7,14,-7,-4,14,39,0,14,-9
14,0,-14,-7,14,-7,-4,14,39,0,9,-9
14,0,-14,-7,14,-7,-9,14,39,-4,9,-9
14,0,-14,-7,14,-7,0,14,39,-4,0,-9
14,0,-14,-7,14,-7,0,14,39,-4,0,-4
14,0,-14,-7,14,-7,0,9,39,-4,0,-4
14,0,-14,-7,14,-7,0,9,39,-4,0,-4
24,9,-14,-17,19,-2,-9,9,29,-14,0,-14
24,9,-14,-17,19,-2,-9,9,29,-14,0,-14
24,9,-14,-17,19,-2,-9,9,29,-14,0,-19
24,9,-14,-17,19,-2,-9,9,24,-14,0,-24
14,9,-4,-12,9,2,-9,9,34,-14,0,-14
19,9,-9,-14,14,0,-9,4,34,-19,0,-9
19,9,-9,-14,14,0,-9,4,34,-19,0,-9
19,14,-4,-17,12,4,-9,4,34,-24,0,-9
19,9,-9,-14,14,0,-9,4,29,-24,0,-9
19,4,-14,-12,17,-4,-9,4,29,-24,0,-9
19,0,-19,-9,19,-9,-9,4,29,-24,-4,-9
19,0,-19,-9,19,-9,-14,4,24,-24,-9,-9
19,4,-14,-12,17,-4,-14,4,34,-24,0,-9
19,4,-14,-12,17,-4,-14,4,34,-24,0,-14
19,0,-19,-9,19,-9,-14,4,34,-24,0,-14
19,0,-19,-9,19,-9,-14,4,34,-24,0,-9
19,0,-19,-9,19,-9,-4,-4,29,-24,-9,-9
19,0,-19,-9,19,-9,-4,-4,29,-24,-9,-9
19,0,-19,-9,19,-9,-4,0,24,-24,-4,-9
24,0,-24,-12,24,-12,-4,0,24,-24,-4,-9
24,4,-19,-14,21,-7,-14,0,24,-24,-4,-14
24,9,-14,-17,19,-2,-14,0,29,-29,-4,-14
24,9,-14,-17,19,-2,-9,0,29,-29,-4,-14
24,9,-14,-17,19,-2,-9,0,34,-24,0,-14
24,9,-14,-17,19,-2,0,9,34,-24,0,-4
24,19,-4,-21,14,7,0,9,39,-14,0,-4
29,29,0,-29,14,14,-9,9,39,-9,0,0
39,34,-4,-36,21,14,0,19,48,0,9,9
39,39,0,-39,19,19,0,19,48,0,9,9
39,43,4,-41,17,24,0,19,48,0,9,9
39,48,9,-43,14,29,0,19,48,0,9,9
43,63,19,-53,12,41,0,19,58,0,19,4
43,68,24,-56,9,46,4,24,63,4,19,4
43,73,29,-58,7,51,4,24,63,9,24,9
43,78,34,-61,4,56,4,24,68,9,24,9
48,82,34,-65,7,58,4,24,58,19,24,9
48,87,39,-68,4,63,0,14,58,19,24,14
48,92,43,-70,2,68,-4,9,58,19,29,14
53,97,43,-75,4,70,-19,4,58,19,29,14
53,107,53,-80,0,80,-29,9,58,14,24,14
48,107,58,-78,-4,82,-39,-4,53,9,24,14
48,107,58,-78,-4,82,-58,-14,48,9,24,14
48,102,53,-75,-2,78,-73,-19,43,4,19,19
43,97,53,-70,-4,75,-92,-29,29,-4,19,19
48,92,43,-70,2,68,-97,-39,24,-4,19,19
48,87,39,-68,4,63,-107,-39,24,-4,19,24
48,92,43,-70,2,68,-107,-43,24,-4,19,24
58,97,39,-78,9,68,-97,-34,34,4,19,29
58,97,39,-78,9,68,-97,-34,34,9,24,34
58,97,39,-78,9,68,-97,-34,43,9,34,39
68,92,24,-80,21,58,-97,-29,43,19,39,48
68,97,29,-82,19,63,-92,-29,48,24,43,58
68,97,29,-82,19,63,-82,-24,58,29,48,63
73,97,24,-85,24,61,-82,-19,63,34,53,68
78,97,19,-87,29,58,-78,-14,68,34,58,68
87,87,0,-87,43,43,-82,-4,78,34,68,78
87,78,-9,-82,48,34,-78,-4,78,39,68,78
87,73,-14,-80,51,29,-78,-4,78,39,68,78
87,73,-14,-80,51,29,-78,-4,78,34,68,78
92,73,-19,-82,56,26,-73,4,78,34,68,78
78,73,-4,-75,41,34,-73,0,68,34,63,78
78,73,-4,-75,41,34,-63,0,63,29,58,68
73,63,-9,-68,41,26,-58,0,63,24,53,58
58,68,9,-63,24,39,-58,0,58,29,58,63
58,53,-4,-56,31,24,-58,-4,53,24,53,58
53,43,-9,-48,31,17,-43,-4,48,14,39,53
43,34,-9,-39,26,12,-39,-14,39,0,29,48
29,24,-4,-26,17,9,-34,-14,29,-14,19,24
24,14,-9,-19,17,2,-34,-14,19,-19,9,14
19,4,-14,-12,17,-4,-29,-14,14,-29,0,14
14,-9,-24,-2,19,-17,-29,-14,4,-39,-4,0
4,-24,-29,9,17,-26,-19,-14,4,-48,-19,-9
4,-24,-29,9,17,-26,-19,-14,4,-48,-19,-9
4,-24,-29,9,17,-26,-19,-14,4,-48,-19,-9
4,-24,-29,9,17,-26,-14,-14,4,-48,-19,-9
4,-34,-39,14,21,-36,-14,-14,4,-48,-19,0
4,-34,-39,14,21,-36,-14,-14,4,-48,-19,0
4,-39,-43,17,24,-41,-14,-14,4,-48,-19,0
4,-39,-43,17,24,-41,-14,-14,4,-53,-19,0
4,-39,-43,17,24,-41,-4,-14,4,-53,-29,0
4,-39,-43,17,24,-41,-4,-14,4,-53,-29,0
4,-39,-43,17,24,-41,-4,-14,4,-53,-29,0
4,-39,-43,17,24,-41,-4,-14,4,-53,-29,0
-4,-48,-43,26,19,-46,-14,-14,4,-53,-19,0
-4,-48,-43,26,19,-46,-9,-14,4,-53,-19,0
-4,-48,-43,26,19,-46,-9,-14,4,-53,-19,0
-4,-48,-43,26,19,-46,-9,-14,4,-53,-19,0
-4,-58,-53,31,24,-56,-9,-14,4,-43,-19,0
-4,-58,-53,31,24,-56,-9,-14,4,-43,-19,0
-4,-58,-53,31,24,-56,-9,-14,4,-43,-19,0
-4,-63,-58,34,26,-61,-9,-14,4,-48,-19,0
-4,-73,-68,39,31,-70,-9,-14,4,-48,-19,0
-4,-73,-68,39,31,-70,-9,-14,0,-48,-19,0
-4,-73,-68,39,31,-70,-9,-14,0,-48,-19,0
-4,-73,-68,39,31,-70,-9,-14,0,-48,-19,0
-4,-63,-58,34,26,-61,-9,-14,4,-48,-19,0
-4,-63,-58,34,26,-61,-9,-14,4,-48,-19,0
-4,-63,-58,34,26,-61,-4,-14,4,-48,-19,0
-4,-63,-58,34,26,-61,-4,-14,4,-48,-19,0
-4,-53,-48,29,21,-51,-4,-4,4,-48,-9,0
-4,-53,-48,29,21,-51,-9,-4,4,-48,-9,4
-4,-53,-48,29,21,-51,-9,-4,4,-48,-9,4
-4,-53,-48,29,21,-51,-9,-4,4,-48,-9,4
-4,-53,-48,29,21,-51,0,-4,4,-48,-9,4
-4,-53,-48,29,21,-51,0,-4,4,-48,-9,4
-4,-53,-48,29,21,-51,4,-4,4,-48,-9,4
-4,-53,-48,29,21,-51,4,-4,4,-43,-9,4
-14,-63,-48,39,17,-56,-4,-9,4,-43,-9,4
-14,-63,-48,39,17,-56,-4,-9,4,-43,-9,4
-9,-58,-48,34,19,-53,-4,-14,4,-43,-4,4
-9,-58,-48,34,19,-53,-4,-14,4,-43,-4,4
-9,-58,-48,34,19,-53,-4,-4,4,-43,-4,14
0,-58,-58,29,29,-58,0,-9,19,-43,-4,14
-9,-48,-39,29,14,-43,9,-9,19,-39,-4,4
-9,-58,-48,34,19,-53,4,-4,24,-43,-4,0
-9,-58,-48,34,19,-53,14,14,43,-34,4,9
-9,-53,-43,31,17,-48,29,43,68,-14,0,0
-9,-43,-34,26,12,-39,39,82,117,9,14,0
-4,-39,-34,21,14,-36,63,141,190,73,43,9
-4,-29,-24,17,9,-26,92,195,283,185,97,24
-4,4,9,0,-7,7,107,204,336,302,161,43
4,34,29,-19,-12,31,107,195,375,429,229,63
19,68,48,-43,-14,58,107,180,424,556,322,97
39,117,78,-78,-19,97,78,131,468,717,439,156
58,151,92,-104,-17,122,24,58,488,858,561,219
97,200,102,-148,-2,151,-82,-24,536,1010,688,283
151,258,107,-204,21,183,-234,-146,619,1229,863,385
204,312,107,-258,48,209,-429,-346,658,1454,1083,483
244,375,131,-309,56,253,-624,-629,541,1634,1283,580
287,468,180,-378,53,324,-839,-1000,312,1781,1493,702
326,566,239,-446,43,402,-1073,-1371,97,1956,1722,824
366,668,302,-517,31,485,-1288,-1693,-58,2166,1942,927
419,766,346,-592,36,556,-1493,-1952,-229,2332,2117,1019
463,854,390,-658,36,622,-1654,-2127,-395,2371,2196,1107
483,858,375,-671,53,617,-1698,-2142,-453,2303,2137,1117
512,780,268,-646,122,524,-1673,-2005,-395,2166,1966,1068
531,668,136,-600,197,402,-1605,-1800,-283,2000,1781,1000
536,492,-43,-514,290,224,-1488,-1561,-200,1786,1576,897
497,307,-190,-402,344,58,-1327,-1371,-244,1483,1273,771
439,165,-273,-302,356,-53,-1146,-1229,-370,1107,912,634
361,48,-312,-204,336,-131,-966,-1088,-497,697,570,502
268,-24,-292,-122,280,-158,-795,-976,-639,283,273,409
165,-39,-204,-63,185,-122,-639,-893,-771,-97,4,336
58,-34,-92,-12,75,-63,-473,-775,-834,-434,-219,258
-34,-53,-19,43,-7,-36,-341,-639,-775,-570,-287,165
-68,-63,4,65,-36,-29,-248,-502,-634,-448,-234,92
-68,-43,24,56,-46,-9,-180,-380,-444,-287,-165,53
-63,-34,29,48,-46,-2,-112,-268,-278,-200,-131,24
-58,-34,24,46,-41,-4,-53,-161,-151,-136,-87,9
-53,-39,14,46,-34,-12,-4,-82,-68,-78,-53,0
-53,-48,4,51,-29,-21,24,-39,-14,-39,-29,4
-43,-48,-4,46,-19,-26,53,4,14,-14,-9,4
-39,-39,0,39,-19,-19,63,14,14,0,14,0
-43,-48,-4,46,-19,-26,58,29,19,9,4,0
-43,-48,-4,46,-19,-26,58,29,24,0,4,0
-43,-48,-4,46,-19,-26,58,34,29,-4,0,0
-39,-53,-14,46,-12,-34,58,43,34,-9,-4,0
-29,-43,-14,36,-7,-29,53,53,53,-24,-14,0
-29,-43,-14,36,-7,-29,53,53,53,-29,-14,0
-29,-43,-14,36,-7,-29,53,53,53,-29,-14,0
-29,-43,-14,36,-7,-29,53,53,53,-29,-14,0
-34,-43,-9,39,-12,-26,63,63,53,-24,-4,0
-34,-43,-9,39,-12,-26,68,63,53,-24,0,0
-34,-43,-9,39,-12,-26,68,68,53,-24,0,0
-34,-43,-9,39,-12,-26,68,73,63,-24,0,0
-34,-43,-9,39,-12,-26,73,73,63,-29,-9,0
-34,-43,-9,39,-12,-26,73,78,63,-29,-9,0
-34,-43,-9,39,-12,-26,73,78,68,-29,-4,4
-34,-43,-9,39,-12,-26,73,78,68,-29,-4,4
-34,-39,-4,36,-14,-21,63,78,58,-19,4,-4
-34,-39,-4,36,-14,-21,68,78,63,-19,4,-4
-34,-39,-4,36,-14,-21,68,78,63,-19,4,-4
-34,-39,-4,36,-14,-21,68,78,63,-19,4,-4
-34,-39,-4,36,-14,-21,68,82,73,-19,4,4
-34,-34,0,34,-17,-17,68,82,73,-19,4,0
-34,-34,0,34,-17,-17,68,82,73,-19,4,0
-34,-34,0,34,-17,-17,68,82,78,-14,4,0
-34,-29,4,31,-19,-12,78,87,87,-14,0,4
-34,-29,4,31,-19,-12,78,87,87,-9,0,4
-29,-29,0,29,-14,-14,73,87,87,-9,0,4
-29,-29,0,29,-14,-14,73,87,87,-9,0,4
-29,-29,0,29,-14,-14,73,87,78,-9,9,4
-29,-29,0,29,-14,-14,73,87,82,-9,9,9
-34,-29,4,31,-19,-12,78,92,82,-9,9,9
-34,-29,4,31,-19,-12,78,92,87,-9,14,9
-34,-29,4,31,-19,-12,78,92,87,-9,4,9
-34,-24,9,29,-21,-7,78,92,87,-9,4,9
-34,-24,9,29,-21,-7,73,92,87,-9,4,9
-29,-24,4,26,-17,-9,73,92,87,-9,4,9
-29,-24,4,26,-17,-9,73,97,87,0,9,4
-29,-24,4,26,-17,-9,78,97,87,0,9,4
-29,-24,4,26,-17,-9,78,97,92,0,9,4
-29,-24,4,26,-17,-9,78,97,92,0,9,4
-39,-24,14,31,-26,-4,78,112,92,-9,9,4
-39,-24,14,31,-26,-4,78,112,92,-9,9,4
-39,-24,14,31,-26,-4,78,112,92,-9,9,4
-43,-24,19,34,-31,-2,78,112,92,-9,9,0
-34,-24,9,29,-21,-7,78,107,92,-9,9,9
-29,-24,4,26,-17,-9,78,107,92,-9,9,9
-29,-19,9,24,-19,-4,78,107,92,-4,9,9
-29,-19,9,24,-19,-4,78,107,97,-4,9,9
-29,-19,9,24,-19,-4,78,107,97,-4,0,9
-29,-19,9,24,-19,-4,78,112,97,-4,0,9
-29,-19,9,24,-19,-4,82,112,97,-4,0,9
-29,-19,9,24,-19,-4,82,112,97,-4,0,9
-29,-9,19,19,-24,4,73,117,97,-4,0,9
-29,-14,14,21,-21,0,73,117,102,-4,0,9
-29,-14,14,21,-21,0,73,117,102,0,0,9
-29,-14,14,21,-21,0,73,117,102,0,0,9
-39,-9,29,24,-34,9,73,117,102,-4,0,0
-39,-9,29,24,-34,9,73,122,102,-4,0,0
-39,-9,29,24,-34,9,73,126,107,-4,0,0
-39,-9,29,24,-34,9,73,126,107,-4,0,0
-39,-19,19,29,-29,0,82,126,107,-4,0,0
-39,-19,19,29,-29,0,82,126,107,-4,0,0
-39,-19,19,29,-29,0,82,131,107,-4,0,0
-39,-19,19,29,-29,0,82,131,107,-4,0,-4
-39,-9,29,24,-34,9,82,131,107,-4,0,4
-39,-9,29,24,-34,9,87,136,107,-4,0,4
-39,-9,29,24,-34,9,87,136,112,-4,0,4
-39,-9,29,24,-34,9,87,136,112,-4,-4,4
-39,-9,29,24,-34,9,87,141,112,4,-4,4
-43,-9,34,26,-39,12,87,141,112,4,-4,4
-43,-9,34,26,-39,12,87,141,117,4,-4,0
-43,-9,34,26,-39,12,87,146,117,4,-4,0
-43,-9,34,26,-39,12,92,156,122,4,4,0
-43,-9,34,26,-39,12,92,156,122,4,4,-4
-43,-14,29,29,-36,7,92,156,122,4,4,-4
-43,-19,24,31,-34,2,92,161,126,4,0,-4
-43,-19,24,31,-34,2,92,156,126,4,0,-4
-43,-14,29,29,-36,7,92,161,126,4,0,-9
-43,-14,29,29,-36,7,92,161,126,4,0,-9
-43,-19,24,31,-34,2,97,161,126,4,0,-9
-48,-19,29,34,-39,4,97,175,126,4,-9,-9
-48,-14,34,31,-41,9,97,175,126,4,-9,-9
-48,-14,34,31,-41,9,97,175,126,4,-9,-9
-48,-14,34,31,-41,9,97,180,131,0,-14,-9
-48,-14,34,31,-41,9,107,180,131,0,-4,-14
-48,-14,34,31,-41,9,107,185,131,0,-4,-14
-48,-14,34,31,-41,9,112,185,131,0,-4,-14
-48,-14,34,31,-41,9,112,190,131,0,-4,-14
-58,-14,43,36,-51,14,102,190,131,0,-14,-19
-58,-14,43,36,-51,14,102,195,131,0,-14,-19
-58,-14,43,36,-51,14,107,195,131,0,-14,-19
-63,-14,48,39,-56,17,107,204,131,0,-14,-19
-73,-14,58,43,-65,21,117,204,131,0,-14,-19
-68,-14,53,41,-61,19,122,204,136,-4,-14,-19
-68,-14,53,41,-61,19,122,214,136,-4,-14,-19
-68,-14,53,41,-61,19,122,214,136,-4,-14,-24
-63,-4,58,34,-61,26,122,214,136,-4,-19,-14
-63,-4,58,34,-61,26,126,224,136,-9,-19,-14
-63,-4,58,34,-61,26,131,224,136,-9,-19,-14
-68,-4,63,36,-65,29,131,224,136,-9,-29,-19
-68,-4,63,36,-65,29,131,229,136,-19,-19,-19
-73,-4,68,39,-70,31,136,234,136,-19,-19,-24
-73,-4,68,39,-70,31,141,234,136,-19,-24,-24
-73,-4,68,39,-70,31,146,234,131,-24,-24,-24
-78,4,82,36,-80,43,146,244,131,-19,-24,-34
-78,4,82,36,-80,43,146,244,131,-24,-34,-39
-78,4,82,36,-80,43,146,244,131,-24,-34,-43
-78,4,82,36,-80,43,151,248,122,-24,-39,-43
-78,4,82,36,-80,43,141,248,117,-29,-53,-43
-82,4,87,39,-85,46,151,253,117,-29,-58,-43
-87,4,92,41,-90,48,156,253,117,-34,-63,-48
-87,4,92,41,-90,48,156,258,117,-39,-63,-48
-97,-4,92,51,-95,43,170,258,107,-43,-68,-39
-102,-9,92,56,-97,41,170,263,107,-48,-73,-43
-102,-9,92,56,-97,41,170,263,102,-53,-78,-53
-112,-9,102,61,-107,46,175,263,97,-58,-82,-53
-112,0,112,56,-112,56,170,253,92,-68,-87,-63
-112,0,112,56,-112,56,180,258,87,-82,-92,-68
-112,-4,107,58,-109,51,185,258,82,-97,-97,-68
-112,-4,107,58,-109,51,190,258,68,-112,-102,-73
-117,4,122,56,-119,63,190,268,58,-112,-117,-78
-122,4,126,58,-124,65,195,268,48,-122,-126,-82
-126,4,131,61,-129,68,200,268,43,-131,-131,-87
-131,4,136,63,-134,70,200,268,39,-136,-141,-87
-136,-4,131,70,-134,63,200,258,34,-146,-151,-102
-136,-4,131,70,-134,63,209,258,24,-165,-161,-107
-141,-19,122,80,-131,51,214,253,14,-180,-170,-107
-146,-19,126,82,-136,53,219,253,-4,-195,-180,-112
-146,-9,136,78,-141,63,229,258,-9,-200,-180,-107
-151,-19,131,85,-141,56,234,253,-19,-214,-190,-117
-156,-24,131,90,-143,53,239,248,-29,-229,-200,-122
-156,-29,126,92,-141,48,244,248,-39,-239,-214,-126
-161,-34,126,97,-143,46,239,234,-58,-258,-224,-131
-165,-34,131,100,-148,48,239,229,-73,-273,-234,-136
-170,-34,136,102,-153,51,244,229,-87,-287,-244,-141
-175,-39,136,107,-156,48,248,219,-102,-302,-263,-146
-180,-43,136,112,-158,46,263,214,-117,-312,-273,-141
-180,-43,136,112,-158,46,268,209,-131,-326,-287,-146
-185,-48,136,117,-161,43,268,204,-141,-341,-292,-156
-190,-48,141,119,-165,46,268,200,-156,-356,-302,-161
-200,-53,146,126,-173,46,273,195,-161,-366,-312,-170
-200,-58,141,129,-170,41,278,190,-175,-375,-322,-175
-200,-63,136,131,-168,36,278,180,-190,-390,-331,-180
-209,-63,146,136,-178,41,278,175,-204,-405,-341,-180
-214,-68,146,141,-180,39,278,170,-229,-419,-361,-185
-214,-78,136,146,-175,29,283,156,-239,-429,-366,-190
-214,-82,131,148,-173,24,283,146,-253,-439,-370,-195
-214,-82,131,148,-173,24,283,136,-258,-444,-375,-200
-214,-87,126,151,-170,19,273,131,-278,-448,-385,-204
-214,-87,126,151,-170,19,273,122,-287,-463,-390,-204
-214,-87,126,151,-170,19,273,122,-297,-468,-400,-204
-219,-87,131,153,-175,21,273,112,-307,-473,-400,-200
-219,-92,126,156,-173,17,283,107,-317,-463,-390,-209
-219,-92,126,156,-173,17,278,92,-326,-468,-395,-209
-219,-92,126,156,-173,17,273,82,-326,-468,-395,-209
-219,-97,122,158,-170,12,268,82,-331,-463,-390,-209
-214,-97,117,156,-165,9,253,58,-336,-468,-390,-209
-214,-97,117,156,-165,9,248,53,-341,-458,-380,-204
-209,-97,112,153,-161,7,244,53,-346,-453,-375,-204
-209,-97,112,153,-161,7,239,48,-346,-439,-375,-200
-209,-97,112,153,-161,7,234,43,-346,-434,-361,-195
-200,-97,102,148,-151,2,229,39,-346,-424,-346,-190
-200,-97,102,148,-151,2,224,29,-346,-414,-336,-185
-200,-102,97,151,-148,-2,214,29,-341,-395,-322,-175
-190,-92,97,141,-143,2,219,9,-351,-370,-317,-170
-185,-92,92,139,-139,0,209,4,-341,-356,-302,-161
-180,-92,87,136,-134,-2,195,0,-331,-341,-292,-161
-175,-87,87,131,-131,0,185,0,-326,-326,-273,-151
-170,-97,73,134,-122,-12,185,0,-312,-312,-263,-146
-170,-92,78,131,-124,-7,175,-4,-302,-297,-248,-141
-165,-82,82,124,-124,0,170,-4,-292,-278,-234,-126
-161,-78,82,119,-122,2,165,-4,-283,-258,-214,-117
-156,-78,78,117,-117,0,151,-14,-273,-253,-200,-112
-151,-78,73,114,-112,-2,141,-14,-263,-234,-185,-107
-146,-73,73,109,-109,0,136,-14,-253,-224,-175,-97
-141,-73,68,107,-104,-2,131,-19,-239,-209,-165,-87
-136,-68,68,102,-102,0,131,-19,-219,-185,-156,-78
-131,-58,73,95,-102,7,117,-19,-214,-170,-146,-73
-122,-58,63,90,-92,2,107,-19,-204,-156,-136,-63
-117,-48,68,82,-92,9,107,-19,-185,-151,-126,-58
-122,-58,63,90,-92,2,102,-19,-175,-131,-107,-53
-117,-58,58,87,-87,0,97,-19,-156,-117,-97,-48
-112,-53,58,82,-85,2,87,-14,-151,-107,-87,-43
-112,-53,58,82,-85,2,82,-14,-141,-97,-78,-39
-97,-53,43,75,-70,-4,82,-9,-131,-87,-78,-29
-97,-53,43,75,-70,-4,78,-4,-122,-78,-73,-24
-97,-48,48,73,-73,0,78,-4,-112,-73,-68,-24
-92,-43,48,68,-70,2,73,-4,-102,-68,-58,-19
-102,-34,68,68,-85,17,68,-4,-87,-68,-48,-24
-97,-39,58,68,-78,9,68,-4,-78,-63,-43,-24
-87,-39,48,63,-68,4,63,4,-78,-58,-39,-24
-87,-39,48,63,-68,4,63,4,-68,-53,-34,-24
-87,-43,43,65,-65,0,63,4,-58,-39,-29,-14
-87,-43,43,65,-65,0,58,9,-53,-34,-29,-9
-87,-43,43,65,-65,0,53,9,-39,-34,-24,-9
-87,-43,43,65,-65,0,53,9,-29,-29,-19,-9
-82,-43,39,63,-61,-2,53,14,-24,-39,-14,4
-82,-43,39,63,-61,-2,53,19,-24,-29,-14,4
-78,-43,34,61,-56,-4,53,24,-14,-29,-14,4
-78,-43,34,61,-56,-4,53,29,-14,-29,-14,9
-73,-34,39,53,-56,2,43,29,0,-29,-14,9
-73,-34,39,53,-56,2,43,29,4,-24,-9,9
-73,-34,39,53,-56,2,43,29,9,-24,-9,9
-73,-39,34,56,-53,-2,43,34,14,-19,-9,9
-82,-39,43,61,-63,2,53,43,19,-19,-19,9
-82,-39,43,61,-63,2,53,43,29,-14,-14,9
-78,-39,39,58,-58,0,53,43,34,-14,-9,9
-78,-39,39,58,-58,0,53,53,39,-14,-4,9
-68,-39,29,53,-48,-4,53,48,34,-24,-4,4
-68,-43,24,56,-46,-9,58,48,39,-19,-4,4
-68,-43,24,56,-46,-9,58,48,43,-19,-4,4
-68,-43,24,56,-46,-9,58,48,48,-19,0,4
-68,-43,24,56,-46,-9,58,63,53,-14,0,4
-68,-43,24,56,-46,-9,58,63,58,-9,0,4
-68,-43,24,56,-46,-9,58,68,58,-4,0,4
-68,-43,24,56,-46,-9,58,68,58,-4,4,4
-68,-34,34,51,-51,0,58,68,68,-14,-4,4
-68,-34,34,51,-51,0,58,68,73,-9,-9,4
-68,-34,34,51,-51,0,63,68,78,-9,-9,4
-68,-34,34,51,-51,0,63,68,78,-9,-4,0
-68,-29,39,48,-53,4,68,73,78,-4,0,0
-68,-29,39,48,-53,4,68,78,78,-4,0,0
-68,-29,39,48,-53,4,68,78,78,-4,0,0
-68,-29,39,48,-53,4,68,78,78,-4,0,0
-68,-34,34,51,-51,0,58,78,78,-4,4,4
-68,-39,29,53,-48,-4,58,78,82,0,9,4
-68,-39,29,53,-48,-4,58,78,87,0,9,4
-68,-39,29,53,-48,-4,58,78,87,0,14,4
-68,-34,34,51,-51,0,68,78,78,9,19,4
-68,-34,34,51,-51,0,68,78,82,9,19,4
-68,-34,34,51,-51,0,68,78,87,9,19,4
-68,-34,34,51,-51,0,68,78,87,14,19,9
-78,-34,43,56,-61,4,68,78,97,29,24,9
-78,-34,43,56,-61,4,68,78,97,29,24,9
-78,-34,43,56,-61,4,68,78,97,29,24,9
-78,-34,43,56,-61,4,68,78,97,29,24,9
-68,-34,34,51,-51,0,63,78,87,34,19,0
-68,-34,34,51,-51,0,63,78,92,29,19,0
-68,-34,34,51,-51,0,58,82,92,34,24,4
-68,-34,34,51,-51,0,48,82,92,29,29,4
-53,-34,19,43,-36,-7,53,82,102,39,43,4
-53,-29,24,41,-39,-2,53,78,102,39,43,4
-53,-29,24,41,-39,-2,53,78,102,39,43,4
-53,-29,24,41,-39,-2,53,78,102,39,43,4
-63,-29,34,46,-48,2,53,78,102,43,43,4
-63,-29,34,46,-48,2,53,78,102,43,43,4
-63,-29,34,46,-48,2,53,78,102,43,43,4
-63,-29,34,46,-48,2,53,78,102,43,43,9
-53,-29,24,41,-39,-2,53,73,97,53,48,9
-53,-29,24,41,-39,-2,53,73,97,58,48,9
-53,-29,24,41,-39,-2,53,73,97,58,48,9
-53,-29,24,41,-39,-2,53,73,97,63,48,9
-53,-29,24,41,-39,-2,48,68,92,53,48,19
-53,-24,29,39,-41,2,48,63,92,53,48,14
-53,-24,29,39,-41,2,48,63,92,53,48,14
-53,-29,24,41,-39,-2,48,63,92,48,48,14
-53,-19,34,36,-43,7,43,63,97,48,48,14
-53,-19,34,36,-43,7,43,63,92,48,48,14
-53,-24,29,39,-41,2,43,58,92,48,48,14
-53,-24,29,39,-41,2,43,53,92,48,48,14
-53,-19,34,36,-43,7,43,53,92,48,48,19
-53,-14,39,34,-46,12,43,53,92,48,48,19
-53,-14,39,34,-46,12,43,53,92,48,48,19
-53,-14,39,34,-46,12,48,53,92,48,48,19
-53,-9,43,31,-48,17,39,43,82,43,48,19
-53,-9,43,31,-48,17,34,43,82,43,48,19
-53,-9,43,31,-48,17,29,39,73,39,48,19
-53,-9,43,31,-48,17,29,39,73,39,48,19
-53,-9,43,31,-48,17,39,39,82,39,39,19
-53,-9,43,31,-48,17,39,34,82,34,34,19
-53,0,53,26,-53,26,39,34,78,34,34,14
-53,0,53,26,-53,26,34,34,78,24,29,9
-53,-9,43,31,-48,17,34,34,68,24,29,9
-53,-9,43,31,-48,17,34,34,63,24,29,14
-53,-9,43,31,-48,17,34,34,63,24,29,19
-53,-9,43,31,-48,17,34,34,63,19,24,19
-53,0,53,26,-53,26,34,39,58,19,34,19
-53,0,53,26,-53,26,34,34,58,19,34,19
-53,0,53,26,-53,26,34,34,58,19,29,19
-53,0,53,26,-53,26,29,34,58,14,29,19
-53,0,53,26,-53,26,19,34,58,14,29,9
-53,0,53,26,-53,26,19,34,58,14,29,14
-53,0,53,26,-53,26,19,29,58,14,29,14
-53,0,53,26,-53,26,19,29,58,14,29,14
-53,0,53,26,-53,26,19,19,48,4,19,14
-53,0,53,26,-53,26,19,19,48,4,19,14
-53,0,53,26,-53,26,19,19,48,4,19,9
-53,0,53,26,-53,26,19,19,43,4,19,4
-53,0,53,26,-53,26,19,29,43,4,9,4
-48,0,48,24,-48,24,19,24,43,0,9,9
-48,0,48,24,-48,24,19,24,43,0,9,9
-48,4,53,21,-51,29,19,24,43,-4,9,9
-48,4,53,21,-51,29,19,24,48,-4,19,9
-48,4,53,21,-51,29,19,24,48,-4,19,9
-48,4,53,21,-51,29,19,24,48,-4,14,9
-48,9,58,19,-53,34,14,24,43,-4,9,9
-39,4,43,17,-41,24,14,24,43,-4,19,19
-39,4,43,17,-41,24,14,24,43,-4,19,14
-39,0,39,19,-39,19,14,24,43,-4,19,14
-39,0,39,19,-39,19,14,24,43,-4,19,19
-48,0,48,24,-48,24,14,14,39,-4,9,9
-48,0,48,24,-48,24,14,14,39,-4,9,9
-48,0,48,24,-48,24,14,19,34,-4,14,9
-43,0,43,21,-43,21,14,19,34,-4,14,9
-43,4,48,19,-46,26,14,19,43,-4,14,14
-43,9,53,17,-48,31,14,19,48,-9,14,14
-43,9,53,17,-48,31,19,19,48,-9,14,14
-43,9,53,17,-48,31,19,19,53,-4,19,14
-43,19,63,12,-53,41,19,19,43,-4,19,24
-43,19,63,12,-53,41,19,19,48,-4,19,24
-43,19,63,12,-53,41,19,19,53,0,19,24
-43,19,63,12,-53,41,19,24,53,0,19,24
-29,29,58,0,-43,43,19,34,63,9,29,29
-29,29,58,0,-43,43,19,39,58,9,29,29
-29,34,63,-2,-46,48,19,39,58,19,29,29
-29,39,68,-4,-48,53,19,39,58,19,29,29
-29,43,73,-7,-51,58,19,39,58,19,29,29
-29,48,78,-9,-53,63,19,39,58,19,29,29
-24,58,82,-17,-53,70,19,29,68,19,29,24
-24,68,92,-21,-58,80,24,34,73,24,29,24
-24,78,102,-26,-63,90,24,34,73,29,34,29
-24,87,112,-31,-68,100,24,34,78,29,34,29
-19,92,112,-36,-65,102,4,34,68,19,34,29
-19,97,117,-39,-68,107,0,24,68,19,34,34
-19,102,122,-41,-70,112,-4,19,68,19,39,34
-14,107,122,-46,-68,114,-19,14,68,19,39,34
-24,97,122,-36,-73,109,-29,9,58,14,34,34
-29,97,126,-34,-78,112,-39,-4,53,9,34,34
-29,97,126,-34,-78,112,-58,-14,48,9,34,34
-29,92,122,-31,-75,107,-73,-19,43,4,29,39
-14,97,112,-41,-63,104,-82,-19,39,14,29,48
-9,102,112,-46,-61,107,-87,-29,34,14,29,48
-9,107,117,-48,-63,112,-97,-29,34,14,29,53
-9,122,131,-56,-70,126,-97,-34,34,14,29,53
0,131,131,-65,-65,131,-87,-24,43,14,39,58
0,136,136,-68,-68,136,-87,-24,43,19,43,63
0,141,141,-70,-70,141,-87,-24,53,19,53,68
9,141,131,-75,-61,136,-87,-19,53,29,58,78
19,131,112,-75,-46,122,-73,-9,68,43,73,68
19,126,107,-73,-43,117,-63,-4,78,48,78,73
24,122,97,-73,-36,109,-63,0,82,53,82,78
29,117,87,-73,-29,102,-58,4,87,53,87,78
29,126,97,-78,-34,112,-58,4,78,43,82,68
29,117,87,-73,-29,102,-58,4,78,48,78,68
29,112,82,-70,-26,97,-63,4,78,48,73,68
29,112,82,-70,-26,97,-68,4,78,43,68,68
19,102,82,-61,-31,92,-58,4,68,34,68,58
0,102,102,-51,-51,102,-53,0,58,34,63,58
-4,102,107,-48,-56,104,-39,0,53,29,58,48
-14,92,107,-39,-61,100,-29,0,53,24,53,39
-29,87,117,-29,-73,102,-39,0,48,9,39,43
-29,73,102,-21,-65,87,-39,-4,43,4,34,39
-34,63,97,-14,-65,80,-24,-4,39,-4,19,34
-43,53,97,-4,-70,75,-19,-14,29,-19,9,29
-48,43,92,2,-70,68,-14,-24,19,-24,0,14
-53,34,87,9,-70,61,-14,-24,9,-29,-9,4
-58,24,82,17,-70,53,-9,-24,4,-39,-19,4
-63,9,73,26,-68,41,-9,-24,-4,-48,-24,-9
-53,14,68,19,-61,41,-9,-14,4,-48,-19,0
-53,14,68,19,-61,41,-9,-14,4,-48,-19,0
-53,14,68,19,-61,41,-9,-14,4,-48,-19,0
-53,14,68,19,-61,41,-4,-14,4,-48,-19,0
-63,14,78,24,-70,46,-4,-24,4,-48,-19,0
-63,14,78,24,-70,46,-4,-24,4,-48,-19,0
-63,9,73,26,-68,41,-4,-24,4,-48,-19,0
-63,9,73,26,-68,41,-4,-24,4,-53,-19,0
-63,0,63,31,-63,31,-4,-14,4,-43,-19,-9
-63,0,63,31,-63,31,-4,-14,4,-43,-19,-9
-63,0,63,31,-63,31,-4,-14,4,-43,-19,-9
-63,0,63,31,-63,31,-4,-14,4,-43,-19,-9
-63,9,73,26,-68,41,-4,-14,4,-43,-19,0
-63,9,73,26,-68,41,0,-14,4,-43,-19,0
-63,9,73,26,-68,41,0,-14,4,-43,-19,0
-63,9,73,26,-68,41,0,-14,4,-43,-19,0
-63,0,63,31,-63,31,0,-14,4,-43,-9,9
-63,0,63,31,-63,31,0,-14,4,-43,-9,9
-63,0,63,31,-63,31,0,-14,4,-43,-9,9
-63,-4,58,34,-61,26,0,-14,4,-48,-9,9
-63,-4,58,34,-61,26,0,-14,4,-58,-19,0
-63,-4,58,34,-61,26,0,-14,0,-58,-19,0
-63,-4,58,34,-61,26,0,-14,0,-58,-19,0
-63,-4,58,34,-61,26,0,-14,0,-58,-19,0
-53,4,58,24,-56,31,0,-14,4,-48,-29,-9
-53,4,58,24,-56,31,0,-14,4,-48,-29,-9
-53,4,58,24,-56,31,4,-14,4,-48,-29,-9
-53,4,58,24,-56,31,4,-14,4,-48,-29,-9
-63,-4,58,34,-61,26,4,-4,4,-39,-24,0
-63,-4,58,34,-61,26,0,-4,4,-39,-19,4
-63,-4,58,34,-61,26,0,-4,4,-39,-14,4
-63,-4,58,34,-61,26,0,-4,4,-39,-9,4
-53,4,58,24,-56,31,0,-14,4,-48,-19,4
-53,4,58,24,-56,31,0,-14,4,-48,-19,4
-53,4,58,24,-56,31,4,-14,4,-48,-19,4
-53,4,58,24,-56,31,4,-14,4,-43,-19,4
-53,4,58,24,-56,31,4,-9,4,-43,-19,4
-53,4,58,24,-56,31,4,-9,4,-43,-19,4
-48,9,58,19,-53,34,4,-14,4,-43,-14,4
-48,9,58,19,-53,34,4,-14,4,-43,-14,4
-48,9,58,19,-53,34,4,-14,4,-43,-14,4
-58,9,68,24,-63,39,9,0,19,-34,-14,4
-48,19,68,14,-58,43,9,9,29,-39,-4,-4
-48,19,68,14,-58,43,24,24,63,-24,-4,-9
-48,19,68,14,-58,43,34,63,102,4,-4,-9
-48,24,73,12,-61,48,58,112,175,63,29,0
-39,43,82,-2,-61,63,78,151,253,156,82,0
-43,78,122,-17,-82,100,92,170,307,268,131,29
-34,107,141,-36,-87,124,92,165,331,390,204,63
-14,131,146,-58,-80,139,87,165,385,527,297,92
4,170,165,-87,-80,168,68,126,424,673,395,131
19,214,195,-117,-87,204,39,73,434,800,497,185
48,244,195,-146,-73,219,-29,14,478,941,614,244
87,297,209,-192,-61,253,-170,-68,585,1161,775,317
146,366,219,-256,-36,292,-346,-219,663,1410,990,409
190,434,244,-312,-26,339,-536,-468,580,1600,1185,502
224,497,273,-361,-24,385,-722,-775,366,1737,1366,619
253,590,336,-422,-41,463,-907,-1117,151,1908,1566,736
278,683,405,-480,-63,544,-1093,-1410,-19,2113,1766,829
326,790,463,-558,-68,627,-1278,-1664,-204,2269,1937,922
366,893,527,-629,-80,710,-1454,-1869,-390,2303,2000,985
380,922,541,-651,-80,732,-1532,-1942,-502,2205,1932,1000
395,873,478,-634,-41,675,-1537,-1854,-492,2030,1776,951
414,741,326,-578,43,534,-1493,-1693,-414,1864,1629,893
434,546,112,-490,161,329,-1400,-1478,-336,1688,1478,824
414,346,-68,-380,241,139,-1254,-1293,-361,1434,1224,717
351,190,-161,-270,256,14,-1107,-1171,-483,1083,883,585
283,82,-200,-183,241,-58,-936,-1049,-605,692,531,458
204,9,-195,-107,200,-92,-785,-936,-692,317,248,351
126,0,-126,-63,126,-63,-634,-844,-780,-63,-14,287
24,43,19,-34,2,31,-483,-741,-824,-419,-234,214
-58,58,117,0,-87,87,-366,-619,-780,-585,-336,131
-97,53,151,21,-124,102,-278,-512,-658,-492,-287,63
-102,63,165,19,-134,114,-195,-405,-483,-326,-219,29
-87,82,170,2,-129,126,-141,-297,-331,-244,-175,4
-87,82,170,2,-129,126,-82,-195,-209,-190,-136,-14
-92,53,146,19,-119,100,-24,-122,-122,-131,-102,-34
-87,43,131,21,-109,87,14,-63,-53,-87,-78,-39
-73,58,131,7,-102,95,34,-24,-19,-58,-53,-29
-73,68,141,2,-107,104,43,0,4,-19,-19,-24
-73,58,131,7,-102,95,43,4,4,-14,-19,-14
-78,58,136,9,-107,97,34,14,4,-19,-14,-19
-63,68,131,-2,-97,100,29,24,9,-29,-24,-19
-63,68,131,-2,-97,100,29,19,14,-39,-24,-19
-63,68,131,-2,-97,100,29,19,19,-43,-29,-19
-58,63,122,-2,-90,92,29,24,24,-48,-34,-19
-68,53,122,7,-95,87,43,24,34,-43,-34,-29
-68,53,122,7,-95,87,43,24,34,-48,-34,-29
-68,53,122,7,-95,87,43,24,34,-48,-34,-29
-68,53,122,7,-95,87,43,24,34,-48,-34,-29
-63,63,126,0,-95,95,34,24,24,-53,-43,-29
-63,63,126,0,-95,95,39,24,24,-53,-39,-29
-63,63,126,0,-95,95,39,29,24,-53,-39,-29
-63,63,126,0,-95,95,39,34,34,-53,-39,-29
-63,73,136,-4,-100,104,43,34,34,-48,-39,-29
-63,73,136,-4,-100,104,43,39,34,-48,-39,-29
-63,73,136,-4,-100,104,43,39,39,-48,-34,-24
-63,73,136,-4,-100,104,43,39,39,-48,-34,-24
-53,78,131,-12,-92,104,34,39,39,-48,-34,-34
-53,78,131,-12,-92,104,39,39,43,-48,-34,-34
-53,78,131,-12,-92,104,39,39,43,-48,-34,-34
-53,78,131,-12,-92,104,39,39,43,-48,-34,-34
-63,78,141,-7,-102,109,39,43,43,-58,-34,-24
-63,82,146,-9,-104,114,39,43,43,-58,-34,-29
-63,82,146,-9,-104,114,39,43,43,-58,-34,-29
-63,82,146,-9,-104,114,39,43,48,-53,-34,-29
-53,92,146,-19,-100,119,39,48,39,-53,-29,-34
-53,97,151,-21,-102,124,39,48,39,-48,-29,-34
-48,102,151,-26,-100,126,34,48,39,-48,-29,-34
-48,107,156,-29,-102,131,34,48,39,-48,-29,-34
-58,97,156,-19,-107,126,34,48,39,-48,-29,-34
-58,97,156,-19,-107,126,34,48,43,-48,-29,-29
-63,97,161,-17,-112,129,39,53,43,-48,-29,-29
-63,97,161,-17,-112,129,39,53,48,-48,-24,-29
-63,97,161,-17,-112,129,39,53,48,-39,-24,-29
-63,102,165,-19,-114,134,39,53,48,-39,-24,-29
-63,102,165,-19,-114,134,34,53,48,-39,-24,-29
-58,102,161,-21,-109,131,34,53,48,-39,-24,-29
-68,102,170,-17,-119,136,34,48,48,-48,-29,-34
-68,102,170,-17,-119,136,39,48,48,-48,-29,-34
-68,102,170,-17,-119,136,39,48,53,-48,-29,-34
-68,102,170,-17,-119,136,39,48,53,-48,-29,-34
-68,112,180,-21,-124,146,39,53,53,-48,-39,-34
-68,112,180,-21,-124,146,39,53,53,-48,-39,-34
-68,112,180,-21,-124,146,39,53,53,-48,-39,-34
-73,112,185,-19,-129,148,39,53,53,-48,-39,-39
-63,112,175,-24,-119,143,39,58,53,-48,-39,-29
-58,112,170,-26,-114,141,39,58,53,-48,-39,-29
-58,117,175,-29,-117,146,39,58,53,-43,-39,-29
-58,117,175,-29,-117,146,39,58,58,-43,-39,-29
-58,126,185,-34,-122,156,29,58,58,-43,-29,-19
-58,126,185,-34,-122,156,29,63,58,-43,-29,-19
-58,126,185,-34,-122,156,34,63,58,-43,-29,-19
-58,126,185,-34,-122,156,34,63,58,-43,-29,-19
-68,126,195,-29,-131,161,43,58,58,-43,-29,-19
-68,122,190,-26,-129,156,43,58,63,-43,-29,-19
-68,122,190,-26,-129,156,43,58,63,-39,-29,-19
-68,122,190,-26,-129,156,43,58,63,-39,-29,-19
-58,126,185,-34,-122,156,43,58,53,-43,-39,-24
-58,126,185,-34,-122,156,43,63,53,-43,-39,-29
-58,126,185,-34,-122,156,43,68,58,-43,-39,-34
-58,126,185,-34,-122,156,43,68,58,-43,-39,-39
-68,126,195,-29,-131,161,43,68,58,-43,-39,-39
-68,126,195,-29,-131,161,43,68,58,-43,-39,-39
-68,126,195,-29,-131,161,43,73,58,-43,-39,-39
-68,126,195,-29,-131,161,43,73,58,-43,-39,-43
-58,136,195,-39,-126,165,34,73,58,-53,-48,-34
-58,136,195,-39,-126,165,39,78,58,-53,-48,-34
-58,136,195,-39,-126,165,39,78,63,-53,-48,-34
-58,136,195,-39,-126,165,39,78,63,-53,-53,-34
-58,146,204,-43,-131,175,39,82,63,-53,-43,-34
-63,146,209,-41,-136,178,39,82,63,-53,-43,-34
-63,146,209,-41,-136,178,39,82,68,-53,-43,-39
-63,146,209,-41,-136,178,39,87,68,-53,-43,-39
-73,141,214,-34,-143,178,43,87,73,-53,-43,-39
-73,146,219,-36,-146,183,43,87,73,-53,-43,-43
-73,146,219,-36,-146,183,43,87,73,-53,-43,-43
-73,146,219,-36,-146,183,43,92,78,-53,-48,-43
-63,136,200,-36,-131,168,43,97,78,-53,-48,-43
-63,141,204,-39,-134,173,43,102,78,-53,-48,-48
-63,141,204,-39,-134,173,43,102,78,-53,-48,-48
-63,136,200,-36,-131,168,48,102,78,-53,-48,-48
-68,146,214,-39,-141,180,48,107,78,-53,-48,-48
-68,151,219,-41,-143,185,48,107,78,-53,-48,-48
-68,151,219,-41,-143,185,48,107,78,-53,-48,-48
-68,151,219,-41,-143,185,48,112,82,-58,-53,-48
-68,151,219,-41,-143,185,48,112,73,-58,-53,-53
-68,151,219,-41,-143,185,48,117,73,-58,-53,-53
-68,151,219,-41,-143,185,53,117,73,-58,-53,-53
-68,151,219,-41,-143,185,53,122,73,-58,-53,-53
-68,151,219,-41,-143,185,53,112,73,-58,-63,-58
-68,151,219,-41,-143,185,53,117,73,-58,-63,-58
-68,151,219,-41,-143,185,58,117,73,-58,-63,-58
-73,151,224,-39,-148,187,58,126,73,-58,-63,-58
-73,161,234,-43,-153,197,58,126,73,-58,-73,-68
-68,161,229,-46,-148,195,63,126,78,-63,-73,-68
-68,161,229,-46,-148,195,63,136,78,-63,-73,-68
-68,161,229,-46,-148,195,63,136,78,-63,-73,-73
-73,161,234,-43,-153,197,63,146,78,-63,-68,-73
-73,161,234,-43,-153,197,68,156,78,-68,-68,-73
-73,161,234,-43,-153,197,73,156,78,-68,-68,-73
-78,161,239,-41,-158,200,73,156,78,-68,-78,-78
-68,161,229,-46,-148,195,73,151,68,-78,-78,-68
-73,161,234,-43,-153,197,78,156,68,-78,-78,-73
-73,161,234,-43,-153,197,82,156,68,-78,-82,-73
-73,161,234,-43,-153,197,87,156,63,-82,-82,-73
-87,161,248,-36,-168,204,78,156,73,-87,-92,-73
-87,161,248,-36,-168,204,78,156,73,-92,-102,-78
-87,161,248,-36,-168,204,78,156,73,-92,-102,-82
-87,161,248,-36,-168,204,82,161,63,-92,-107,-82
-87,170,258,-41,-173,214,73,161,48,-107,-112,-92
-92,170,263,-39,-178,217,82,165,48,-107,-117,-92
-97,170,268,-36,-183,219,87,165,48,-112,-122,-97
-97,170,268,-36,-183,219,87,170,48,-117,-122,-97
-97,180,278,-41,-187,229,102,170,39,-126,-126,-97
-102,175,278,-36,-190,226,102,175,39,-136,-131,-102
-102,175,278,-36,-190,226,102,175,34,-146,-136,-112
-112,175,287,-31,-200,231,107,175,29,-156,-141,-112
-112,175,287,-31,-200,231,107,165,24,-151,-146,-102
-112,175,287,-31,-200,231,112,170,19,-161,-151,-107
-112,170,283,-29,-197,226,112,170,14,-170,-156,-107
-112,170,283,-29,-197,226,112,170,0,-180,-161,-112
-117,170,287,-26,-202,229,112,170,0,-200,-170,-122
-122,170,292,-24,-207,231,117,170,-9,-209,-185,-131
-126,170,297,-21,-212,234,122,170,-14,-219,-195,-141
-131,170,302,-19,-217,236,122,170,-19,-224,-209,-146
-126,170,297,-21,-212,234,122,161,-43,-234,-219,-151
-126,170,297,-21,-212,234,131,161,-53,-253,-229,-156
-131,156,287,-12,-209,222,136,156,-63,-268,-239,-156
-136,156,292,-9,-214,224,141,156,-82,-283,-248,-161
-136,165,302,-14,-219,234,151,151,-97,-297,-248,-165
-141,156,297,-7,-219,226,156,146,-107,-312,-258,-175
-146,151,297,-2,-222,224,161,141,-117,-326,-268,-180
-146,146,292,0,-219,219,165,141,-126,-336,-283,-185
-151,141,292,4,-222,217,161,136,-146,-356,-302,-190
-156,141,297,7,-226,219,161,131,-161,-370,-312,-195
-161,141,302,9,-231,222,165,131,-175,-385,-322,-200
-165,136,302,14,-234,219,170,122,-190,-400,-341,-204
-170,131,302,19,-236,217,175,117,-204,-409,-341,-200
-170,131,302,19,-236,217,180,112,-219,-424,-356,-204
-175,126,302,24,-239,214,180,107,-229,-439,-361,-214
-180,126,307,26,-244,217,180,102,-244,-453,-370,-219
-180,112,292,34,-236,202,195,87,-258,-463,-390,-224
-180,107,287,36,-234,197,200,82,-273,-473,-400,-234
-180,102,283,39,-231,192,200,73,-287,-488,-409,-244
-190,102,292,43,-241,197,200,68,-302,-502,-419,-248
-204,97,302,53,-253,200,200,73,-317,-507,-429,-253
-204,87,292,58,-248,190,204,58,-326,-517,-434,-258
-204,82,287,61,-246,185,204,48,-341,-527,-439,-263
-204,82,287,61,-246,185,204,39,-346,-531,-444,-268
-204,78,283,63,-244,180,195,34,-356,-541,-444,-263
-204,78,283,63,-244,180,195,24,-366,-551,-448,-263
-204,78,283,63,-244,180,195,24,-375,-551,-458,-263
-209,78,287,65,-248,183,195,14,-385,-551,-458,-258
-200,73,273,63,-236,173,195,19,-385,-541,-448,-248
-200,73,273,63,-236,173,190,4,-395,-546,-453,-248
-200,73,273,63,-236,173,185,-4,-395,-546,-453,-248
-200,68,268,65,-234,168,180,-4,-400,-541,-448,-248
-195,58,253,68,-224,156,185,-19,-405,-527,-439,-248
-195,58,253,68,-224,156,180,-24,-409,-517,-429,-244
-190,58,248,65,-219,153,175,-24,-414,-512,-424,-244
-190,58,248,65,-219,153,170,-29,-414,-497,-424,-239
-190,58,248,65,-219,153,165,-34,-405,-483,-409,-234
-180,58,239,61,-209,148,161,-39,-405,-473,-395,-229
-180,58,239,61,-209,148,156,-48,-405,-463,-385,-224
-180,53,234,63,-207,143,146,-48,-400,-444,-370,-214
-180,63,244,58,-212,153,151,-48,-390,-429,-366,-209
-175,63,239,56,-207,151,141,-53,-380,-414,-351,-200
-170,63,234,53,-202,148,126,-58,-370,-400,-341,-200
-165,68,234,48,-200,151,117,-58,-366,-385,-322,-190
-151,58,209,46,-180,134,117,-58,-351,-370,-312,-195
-151,63,214,43,-183,139,107,-63,-341,-356,-297,-190
-146,73,219,36,-183,146,102,-63,-331,-336,-283,-175
-141,78,219,31,-180,148,97,-63,-322,-317,-263,-165
-136,68,204,34,-170,136,92,-63,-302,-302,-258,-151
-131,68,200,31,-165,134,82,-63,-292,-283,-244,-146
-126,73,200,26,-163,136,78,-63,-283,-273,-234,-136
-122,73,195,24,-158,134,73,-68,-268,-258,-224,-126
-126,73,200,26,-163,136,73,-58,-248,-234,-204,-126
-122,78,200,21,-161,139,58,-58,-244,-219,-195,-122
-112,73,185,19,-148,129,48,-58,-234,-204,-185,-112
-107,78,185,14,-146,131,48,-58,-214,-200,-175,-107
-102,78,180,12,-141,129,53,-58,-204,-200,-165,-92
-97,78,175,9,-136,126,48,-58,-185,-185,-156,-87
-92,82,175,4,-134,129,39,-53,-180,-175,-146,-82
-92,82,175,4,-134,129,34,-53,-170,-165,-136,-78
-87,82,170,2,-129,126,34,-48,-161,-156,-136,-78
-87,82,170,2,-129,126,29,-43,-151,-146,-131,-73
-87,87,175,0,-131,131,29,-43,-141,-141,-126,-73
-82,92,175,-4,-129,134,24,-43,-131,-136,-117,-68
-82,82,165,0,-124,124,29,-34,-117,-117,-107,-58
-78,78,156,0,-117,117,29,-34,-107,-112,-102,-53
-68,78,146,-4,-107,112,24,-24,-107,-107,-97,-48
-68,78,146,-4,-107,112,24,-24,-97,-102,-92,-43
-58,78,136,-9,-97,107,24,-24,-87,-107,-87,-43
-58,73,131,-7,-95,102,19,-19,-82,-102,-87,-39
-58,68,126,-4,-92,97,14,-19,-68,-102,-82,-39
-58,63,122,-2,-90,92,14,-19,-58,-97,-78,-39
-63,63,126,0,-95,95,4,-14,-53,-97,-73,-43
-63,63,126,0,-95,95,4,-9,-53,-87,-73,-43
-58,63,122,-2,-90,92,4,-4,-43,-87,-73,-43
-58,63,122,-2,-90,92,4,0,-43,-87,-73,-39
-53,63,117,-4,-85,90,14,0,-39,-78,-63,-29
-53,63,117,-4,-85,90,14,0,-34,-73,-58,-29
-53,63,117,-4,-85,90,14,0,-29,-73,-58,-29
-53,58,112,-2,-82,85,14,4,-24,-68,-58,-29
-53,48,102,2,-78,75,14,4,-19,-78,-68,-39
-53,48,102,2,-78,75,14,4,-9,-73,-63,-39
-48,48,97,0,-73,73,14,4,-4,-73,-58,-39
-48,48,97,0,-73,73,14,14,0,-73,-53,-39
-48,48,97,0,-73,73,4,29,14,-68,-48,-24
-48,43,92,2,-70,68,9,29,19,-58,-43,-24
-48,43,92,2,-70,68,9,29,24,-53,-39,-24
-48,43,92,2,-70,68,9,29,29,-48,-29,-24
-48,34,82,7,-65,58,19,24,34,-53,-29,-14
-48,34,82,7,-65,58,19,24,39,-48,-29,-14
-48,34,82,7,-65,58,19,29,39,-43,-29,-14
-48,34,82,7,-65,58,19,29,39,-43,-24,-14
-48,34,82,7,-65,58,19,39,39,-34,-24,-14
-48,34,82,7,-65,58,19,39,43,-29,-29,-14
-48,34,82,7,-65,58,24,39,48,-29,-29,-14
-48,34,82,7,-65,58,24,39,48,-29,-24,-19
-48,39,87,4,-68,63,19,34,58,-24,-19,-19
-48,39,87,4,-68,63,19,39,58,-24,-19,-19
-48,39,87,4,-68,63,19,39,58,-24,-19,-19
-48,39,87,4,-68,63,19,39,58,-24,-19,-19
-39,43,82,-2,-61,63,19,43,58,-14,-4,-14
-39,39,78,0,-58,58,19,48,63,-9,0,-14
-39,39,78,0,-58,58,19,53,68,-9,0,-14
-39,39,78,0,-58,58,19,58,68,-9,4,-14
-39,43,82,-2,-61,63,9,48,58,0,0,-14
-39,43,82,-2,-61,63,9,48,63,0,0,-14
-39,43,82,-2,-61,63,9,48,68,0,0,-14
-39,43,82,-2,-61,63,9,48,68,4,0,-9
-39,34,73,2,-56,53,19,48,68,9,14,-19
-39,34,73,2,-56,53,19,48,68,9,14,-19
-39,34,73,2,-56,53,19,48,68,9,14,-19
-39,34,73,2,-56,53,19,48,68,9,14,-19
-39,34,73,2,-56,53,19,58,78,19,19,-9
-39,34,73,2,-56,53,24,58,82,19,19,-9
-39,34,73,2,-56,53,24,63,82,29,24,-4
-39,34,73,2,-56,53,19,63,82,29,29,-4
-34,24,58,4,-46,41,24,53,73,29,24,-14
-34,29,63,2,-48,46,24,48,73,29,24,-14
-34,29,63,2,-48,46,24,48,73,29,24,-14
-34,29,63,2,-48,46,24,48,73,29,24,-14
-34,29,63,2,-48,46,24,48,82,34,34,-14
-34,29,63,2,-48,46,24,48,82,34,34,-14
-34,29,63,2,-48,46,24,48,82,34,34,-14
-34,29,63,2,-48,46,24,48,82,34,34,-9
-34,29,63,2,-48,46,24,43,87,34,39,0
-34,29,63,2,-48,46,24,43,87,39,39,0
-34,29,63,2,-48,46,24,43,87,39,39,0
-34,29,63,2,-48,46,24,43,87,43,39,0
-34,29,63,2,-48,46,19,39,73,34,29,-9
-34,34,68,0,-51,51,19,34,73,34,29,-14
-34,34,68,0,-51,51,19,34,73,34,29,-14
-34,29,63,2,-48,46,19,34,73,29,29,-14
-24,19,43,2,-34,31,14,43,68,29,29,-4
-24,19,43,2,-34,31,14,43,63,29,29,-4
-24,14,39,4,-31,26,14,39,63,29,29,-4
-24,14,39,4,-31,26,14,34,63,29,29,-4
-34,19,53,7,-43,36,4,34,63,19,29,-9
-34,24,58,4,-46,41,4,34,63,19,29,-9
-34,24,58,4,-46,41,4,34,63,19,29,-9
-34,24,58,4,-46,41,9,34,63,19,29,-9
-34,19,53,7,-43,36,19,34,63,24,29,0
-34,19,53,7,-43,36,14,34,63,24,29,0
-34,19,53,7,-43,36,9,29,53,19,29,0
-34,19,53,7,-43,36,9,29,53,19,29,0
-24,9,34,7,-29,21,9,29,53,19,29,0
-24,9,34,7,-29,21,9,24,53,14,24,0
-24,19,43,2,-34,31,9,24,48,14,24,-4
-24,19,43,2,-34,31,4,24,48,4,19,-9
-34,19,53,7,-43,36,4,24,48,4,9,-9
-34,19,53,7,-43,36,4,24,43,4,9,-4
-34,19,53,7,-43,36,4,24,43,4,9,0
-34,19,53,7,-43,36,4,24,43,0,4,0
-34,19,53,7,-43,36,4,19,39,0,14,0
-34,19,53,7,-43,36,4,14,39,0,14,0
-34,19,53,7,-43,36,4,14,39,0,9,0
-34,19,53,7,-43,36,0,14,39,-4,9,0
-34,29,63,2,-48,46,9,24,39,-14,9,-9
-34,29,63,2,-48,46,9,24,39,-14,9,-4
-34,29,63,2,-48,46,9,19,39,-14,9,-4
-34,29,63,2,-48,46,9,19,39,-14,9,-4
-34,19,53,7,-43,36,0,19,39,-14,9,-4
-34,19,53,7,-43,36,0,19,39,-14,9,-4
-34,19,53,7,-43,36,0,19,39,-14,9,-9
-34,19,53,7,-43,36,0,19,34,-14,9,-14
-43,9,53,17,-48,31,0,19,34,-4,0,-4
-39,9,48,14,-43,29,0,14,34,-9,0,0
-39,9,48,14,-43,29,0,14,34,-9,0,0
-39,14,53,12,-46,34,0,14,34,-14,0,0
-29,14,43,7,-36,29,0,14,39,-24,0,0
-29,14,43,7,-36,29,0,14,39,-24,0,0
-29,14,43,7,-36,29,0,14,39,-24,-4,0
-29,19,48,4,-39,34,-4,14,34,-24,-9,0
-29,24,53,2,-41,39,4,14,34,-14,0,0
-29,24,53,2,-41,39,4,14,34,-14,0,-4
-29,19,48,4,-39,34,4,14,34,-14,0,-4
-29,19,48,4,-39,34,4,14,34,-14,0,0
-19,24,43,-2,-31,34,4,24,48,-4,9,9
-19,29,48,-4,-34,39,4,24,48,-4,9,9
-19,34,53,-7,-36,43,4,29,43,-4,14,9
-14,39,53,-12,-34,46,4,29,43,-4,14,9
-14,53,68,-19,-41,61,4,29,53,-4,14,4
-9,58,68,-24,-39,63,9,29,58,0,19,9
-9,63,73,-26,-41,68,9,29,68,9,19,9
-9,68,78,-29,-43,73,9,29,68,9,19,9
-9,73,82,-31,-46,78,9,29,68,9,19,9
-9,78,87,-34,-48,82,9,29,68,9,19,9
-14,82,97,-34,-56,90,0,29,68,9,29,14
-14,87,102,-36,-58,95,4,34,73,14,29,14
-14,92,107,-39,-61,100,4,34,73,19,34,19
-14,97,112,-41,-63,104,4,34,78,19,34,19
0,112,112,-56,-56,112,-4,34,68,29,24,29
0,117,117,-58,-58,117,-9,24,68,29,24,34
0,122,122,-61,-61,122,-14,19,68,29,29,34
4,126,122,-65,-58,124,-29,14,68,29,29,34
-4,117,122,-56,-63,119,-53,0,48,14,34,24
-9,117,126,-53,-68,122,-68,-14,43,9,34,24
-9,117,126,-53,-68,122,-92,-24,39,9,34,24
-9,112,122,-51,-65,117,-112,-29,34,4,29,29
4,117,112,-61,-53,114,-107,-19,34,14,29,34
9,122,112,-65,-51,117,-107,-29,34,14,29,39
9,126,117,-68,-53,122,-112,-29,39,14,29,48
9,141,131,-75,-61,136,-107,-34,43,14,29,53
19,151,131,-85,-56,141,-117,-24,43,24,39,48
19,156,136,-87,-58,146,-117,-24,43,29,43,53
19,161,141,-90,-61,151,-117,-24,53,29,53,58
29,161,131,-95,-51,146,-117,-19,53,39,58,68
29,156,126,-92,-48,141,-102,-19,58,34,63,68
29,146,117,-87,-43,131,-92,-14,68,39,68,73
34,136,102,-85,-34,119,-92,-9,73,43,73,78
39,126,87,-82,-24,107,-87,-4,78,43,78,78
34,126,92,-80,-29,109,-73,4,68,34,73,68
29,117,87,-73,-29,102,-68,4,68,39,68,68
24,112,87,-68,-31,100,-68,4,68,39,63,68
19,112,92,-65,-36,102,-68,4,68,34,58,68
14,112,97,-63,-41,104,-63,4,68,29,48,63
0,112,112,-56,-56,112,-63,0,58,24,43,58
0,112,112,-56,-56,112,-53,0,53,14,39,43
-4,102,107,-48,-56,104,-48,0,53,4,34,29
-19,82,102,-31,-61,92,-48,0,39,0,29,34
-19,63,82,-21,-51,73,-48,-4,34,-4,24,29
-24,48,73,-12,-48,61,-34,-4,29,-14,9,24
-34,34,68,0,-51,51,-29,-14,19,-29,0,19
-29,24,53,2,-41,39,-24,-14,9,-43,-9,4
-34,14,48,9,-41,31,-24,-14,0,-48,-19,-4
-39,4,43,17,-41,24,-19,-14,-4,-58,-29,-4
-43,-9,34,26,-39,12,-19,-14,-14,-68,-34,-19
-43,-9,34,26,-39,12,-29,-14,-9,-63,-34,-9
-43,-4,39,24,-41,17,-29,-14,-4,-58,-29,-9
-43,0,43,21,-43,21,-29,-14,0,-53,-24,-9
-43,4,48,19,-46,26,-24,-14,4,-48,-19,-9
-43,-4,39,24,-41,17,-14,-14,-4,-48,-19,-9
-43,-4,39,24,-41,17,-14,-14,-4,-48,-19,-9
-43,-9,34,26,-39,12,-14,-14,-4,-48,-19,-9
-43,-9,34,26,-39,12,-14,-14,-4,-53,-19,-9
-34,0,34,17,-34,17,-24,-14,-4,-53,-29,-9
-34,0,34,17,-34,17,-24,-14,-4,-53,-29,-9
-34,0,34,17,-34,17,-24,-14,-4,-53,-29,-9
-34,0,34,17,-34,17,-24,-14,-4,-53,-29,-9
-43,0,43,21,-43,21,-14,-4,-4,-53,-19,0
-43,0,43,21,-43,21,-9,-4,-4,-53,-19,0
-43,0,43,21,-43,21,-9,-4,-4,-53,-19,0
-43,0,43,21,-43,21,-9,-4,-4,-53,-19,0
-34,0,34,17,-34,17,-19,-14,-4,-63,-19,-9
-34,0,34,17,-34,17,-19,-14,-4,-63,-19,-9
-34,0,34,17,-34,17,-19,-14,-4,-63,-19,-9
-34,-4,29,19,-31,12,-19,-14,-4,-68,-19,-9
-34,-4,29,19,-31,12,-19,-4,-4,-58,-19,-9
-34,-4,29,19,-31,12,-19,-4,-9,-58,-19,-9
-34,-4,29,19,-31,12,-19,-4,-9,-58,-19,-9
-34,-4,29,19,-31,12,-19,-4,-9,-58,-19,-9
-34,-4,29,19,-31,12,-19,-4,-4,-58,-19,-9
-34,-4,29,19,-31,12,-19,-4,-4,-58,-19,-9
-34,-4,29,19,-31,12,-14,-4,-4,-58,-19,-9
-34,-4,29,19,-31,12,-14,-4,-4,-58,-19,-9
-34,-4,29,19,-31,12,-14,-4,-4,-58,-19,-9
-34,-4,29,19,-31,12,-19,-4,-4,-58,-19,-4
-34,-4,29,19,-31,12,-19,-4,-4,-58,-19,-4
-34,-4,29,19,-31,12,-19,-4,-4,-58,-19,-4
-34,-4,29,19,-31,12,-19,-4,-4,-48,-19,-4
-34,-4,29,19,-31,12,-19,-4,-4,-48,-19,-4
-34,-4,29,19,-31,12,-14,-4,-4,-48,-19,-4
-34,-4,29,19,-31,12,-14,-4,-4,-43,-19,-4
-34,-4,29,19,-31,12,-14,0,4,-43,-19,-4
-34,-4,29,19,-31,12,-14,0,4,-43,-19,-4
-29,0,29,14,-29,14,-14,-4,4,-43,-14,-4
-29,0,29,14,-29,14,-14,-4,4,-43,-14,-4
-29,-9,19,19,-24,4,-14,-4,4,-53,-14,4
-29,-9,19,19,-24,4,0,0,9,-43,-14,4
-29,0,29,14,-29,14,9,19,19,-39,-4,-4
-29,0,29,14,-29,14,14,34,43,-34,-4,-9
-29,0,29,14,-29,14,24,53,82,-14,-4,-9
-29,4,34,12,-31,19,39,112,156,43,19,0
-29,14,43,7,-36,29,68,161,234,126,63,0
-24,39,63,-7,-43,51,92,180,297,239,122,29
-24,87,112,-31,-68,100,102,175,312,341,175,43
-4,122,126,-58,-65,124,87,175,346,448,248,63
14,151,136,-82,-61,143,78,146,385,595,346,112
19,175,156,-97,-68,165,39,82,395,732,439,165
48,214,165,-131,-58,190,-39,24,429,863,527,214
97,278,180,-187,-41,229,-161,-48,527,1073,678,278
146,346,200,-246,-26,273,-336,-170,634,1332,873,370
190,414,224,-302,-17,319,-517,-380,600,1542,1058,473
224,488,263,-356,-19,375,-712,-668,424,1688,1239,570
253,570,317,-412,-31,444,-897,-1000,239,1859,1429,678
287,663,375,-475,-43,519,-1102,-1302,78,2074,1620,771
317,751,434,-534,-58,592,-1298,-1566,-68,2269,1781,873
366,844,478,-605,-56,661,-1483,-1781,-244,2361,1883,946
409,893,483,-651,-36,688,-1571,-1864,-366,2313,1864,971
414,854,439,-634,-12,646,-1586,-1805,-375,2176,1756,951
434,741,307,-588,63,524,-1551,-1644,-307,2030,1649,902
453,575,122,-514,165,348,-1449,-1429,-209,1864,1517,844
434,375,-58,-405,246,158,-1302,-1244,-224,1610,1293,746
390,209,-180,-300,285,14,-1146,-1102,-356,1239,961,624
322,92,-229,-207,275,-68,-985,-1000,-497,810,600,497
244,0,-244,-122,244,-122,-824,-897,-624,405,297,390
156,-29,-185,-63,170,-107,-683,-834,-741,14,43,326
63,4,-58,-34,61,-26,-531,-741,-824,-370,-185,244
-19,9,29,4,-24,19,-405,-629,-810,-585,-307,151
-58,4,63,26,-61,34,-307,-522,-688,-522,-287,82
-73,14,87,29,-80,51,-234,-414,-512,-356,-219,48
-78,24,102,26,-90,63,-170,-307,-361,-263,-175,24
-68,24,92,21,-80,58,-92,-195,-229,-200,-136,4
-63,14,78,24,-70,46,-34,-102,-122,-122,-92,-4
-68,14,82,26,-75,48,4,-43,-53,-68,-58,-9
-63,9,73,26,-68,41,34,-4,-9,-39,-34,-9
-63,9,73,26,-68,41,43,19,4,-19,-19,-14
-53,19,73,17,-63,46,34,24,14,-4,-9,-14
-48,19,68,14,-58,43,34,24,14,-9,-14,-9
-43,9,53,17,-48,31,29,29,9,-14,-14,-9
-43,9,53,17,-48,31,29,29,14,-29,-14,-9
-43,9,53,17,-48,31,29,34,19,-39,-19,-9
-39,4,43,17,-41,24,29,43,24,-48,-24,-9
-48,14,63,17,-56,39,34,53,34,-43,-24,-9
-48,14,63,17,-56,39,34,53,34,-48,-24,-9
-48,14,63,17,-56,39,34,53,34,-48,-24,-9
-48,14,63,17,-56,39,34,53,34,-48,-24,-9
-43,14,58,14,-51,36,34,53,34,-43,-24,-9
-43,14,58,14,-51,36,39,53,34,-43,-19,-9
-43,14,58,14,-51,36,39,58,34,-43,-19,-9
-43,14,58,14,-51,36,39,63,43,-43,-19,-9
-53,14,68,19,-61,41,43,53,43,-39,-19,-9
-53,14,68,19,-61,41,43,58,43,-39,-19,-9
-53,14,68,19,-61,41,43,58,48,-39,-14,-4
-53,14,68,19,-61,41,43,58,48,-39,-14,-4
-43,19,63,12,-53,41,43,68,48,-39,-14,-14
-43,19,63,12,-53,41,48,68,53,-39,-14,-14
-43,19,63,12,-53,41,48,68,53,-39,-14,-14
-43,19,63,12,-53,41,48,68,53,-39,-14,-14
-43,19,63,12,-53,41,48,63,53,-39,-14,-4
-43,24,68,9,-56,46,48,63,53,-39,-14,-9
-43,24,68,9,-56,46,48,63,53,-39,-14,-9
-43,24,68,9,-56,46,48,63,58,-34,-14,-9
-43,39,82,2,-63,61,48,68,58,-34,-9,-4
-43,39,82,2,-63,61,48,68,58,-29,-9,-4
-39,39,78,0,-58,58,43,68,58,-29,-9,-4
-39,39,78,0,-58,58,43,68,58,-29,-9,-4
-39,39,78,0,-58,58,43,68,58,-29,-9,-14
-39,39,78,0,-58,58,43,68,63,-29,-9,-9
-43,39,82,2,-63,61,48,73,63,-29,-9,-9
-43,39,82,2,-63,61,48,73,68,-29,-4,-9
-43,39,82,2,-63,61,48,73,68,-29,-14,0
-43,43,87,0,-65,65,48,73,68,-29,-14,0
-43,43,87,0,-65,65,43,73,68,-29,-14,0
-39,43,82,-2,-61,63,43,73,68,-29,-14,0
-48,43,92,2,-70,68,34,78,58,-29,-9,-4
-48,43,92,2,-70,68,39,78,58,-29,-9,-4
-48,43,92,2,-70,68,39,78,63,-29,-9,-4
-48,43,92,2,-70,68,39,78,63,-29,-9,-4
-48,53,102,-2,-75,78,48,82,73,-29,-9,-4
-48,53,102,-2,-75,78,48,82,73,-29,-9,-4
-48,53,102,-2,-75,78,48,82,73,-29,-9,-4
-53,53,107,0,-80,80,48,82,73,-29,-9,-9
-43,53,97,-4,-70,75,48,87,63,-39,-9,-9
-39,53,92,-7,-65,73,48,87,63,-39,-9,-9
-39,58,97,-9,-68,78,48,87,63,-34,-9,-9
-39,58,97,-9,-68,78,48,87,68,-34,-9,-9
-39,58,97,-9,-68,78,39,78,68,-34,-9,-9
-39,58,97,-9,-68,78,39,82,68,-34,-9,-9
-39,58,97,-9,-68,78,43,82,68,-34,-9,-9
-39,58,97,-9,-68,78,43,82,68,-34,-9,-9
-48,58,107,-4,-78,82,53,97,68,-34,-9,-9
-48,53,102,-2,-75,78,53,97,73,-34,-9,-9
-48,53,102,-2,-75,78,53,97,73,-29,-9,-9
-48,53,102,-2,-75,78,53,97,73,-29,-9,-9
-39,58,97,-9,-68,78,53,97,73,-34,-9,-9
-39,58,97,-9,-68,78,53,102,73,-34,-9,-9
-39,58,97,-9,-68,78,53,107,78,-34,-9,-9
-39,58,97,-9,-68,78,53,107,78,-34,-9,-9
-39,58,97,-9,-68,78,53,107,78,-34,-19,-9
-39,58,97,-9,-68,78,53,107,78,-34,-19,-9
-39,58,97,-9,-68,78,53,112,78,-34,-19,-9
-39,58,97,-9,-68,78,53,112,78,-34,-19,-14
-48,58,107,-4,-78,82,53,112,78,-24,-19,-4
-48,58,107,-4,-78,82,58,117,78,-24,-19,-4
-48,58,107,-4,-78,82,58,117,82,-24,-19,-4
-48,58,107,-4,-78,82,58,117,82,-24,-24,-4
-48,58,107,-4,-78,82,58,112,73,-34,-24,-14
-53,58,112,-2,-82,85,58,112,73,-34,-24,-14
-53,58,112,-2,-82,85,58,112,78,-34,-24,-19
-53,58,112,-2,-82,85,58,117,78,-34,-24,-19
-53,63,117,-4,-85,90,63,126,82,-24,-24,-9
-53,68,122,-7,-87,95,63,126,82,-24,-24,-14
-53,68,122,-7,-87,95,63,126,82,-24,-24,-14
-53,68,122,-7,-87,95,63,131,87,-24,-29,-14
-53,68,122,-7,-87,95,63,136,87,-24,-29,-14
-53,73,126,-9,-90,100,63,141,87,-24,-29,-19
-53,73,126,-9,-90,100,63,141,87,-24,-29,-19
-53,68,122,-7,-87,95,68,141,87,-24,-29,-19
-48,68,117,-9,-82,92,68,146,87,-34,-29,-29
-48,73,122,-12,-85,97,68,146,87,-34,-29,-29
-48,73,122,-12,-85,97,68,146,87,-34,-29,-29
-48,73,122,-12,-85,97,68,151,92,-39,-34,-29
-48,73,122,-12,-85,97,68,151,92,-39,-34,-34
-48,73,122,-12,-85,97,68,156,92,-39,-34,-34
-48,73,122,-12,-85,97,73,156,92,-39,-34,-34
-48,73,122,-12,-85,97,73,161,92,-39,-34,-34
-48,73,122,-12,-85,97,73,151,92,-39,-43,-29
-48,73,122,-12,-85,97,73,156,92,-39,-43,-29
-48,73,122,-12,-85,97,78,156,92,-39,-43,-29
-53,73,126,-9,-90,100,78,165,92,-39,-43,-29
-63,73,136,-4,-100,104,78,165,82,-39,-43,-39
-58,73,131,-7,-95,102,82,165,87,-43,-43,-39
-58,73,131,-7,-95,102,82,175,87,-43,-43,-39
-58,73,131,-7,-95,102,82,175,87,-43,-43,-43
-63,82,146,-9,-104,114,82,175,87,-43,-48,-43
-63,82,146,-9,-104,114,87,185,87,-48,-48,-43
-63,82,146,-9,-104,114,92,185,87,-48,-48,-43
-68,82,151,-7,-109,117,92,185,87,-48,-58,-48
-68,73,141,-2,-104,107,92,200,87,-48,-58,-48
-73,73,146,0,-109,109,97,204,87,-48,-58,-53
-73,73,146,0,-109,109,102,204,87,-48,-63,-53
-73,73,146,0,-109,109,107,204,82,-53,-63,-53
-68,73,141,-2,-104,107,107,214,82,-68,-63,-53
-68,73,141,-2,-104,107,107,214,82,-73,-73,-58
-68,73,141,-2,-104,107,107,214,82,-73,-73,-63
-68,73,141,-2,-104,107,112,219,73,-73,-78,-63
-78,82,161,-2,-119,122,102,209,68,-87,-82,-63
-82,82,165,0,-124,124,112,214,68,-87,-87,-63
-87,82,170,2,-129,126,117,214,68,-92,-92,-68
-87,82,170,2,-129,126,117,219,68,-97,-92,-68
-87,82,170,2,-129,126,131,209,48,-112,-107,-68
-92,78,170,7,-131,124,131,214,48,-117,-112,-73
-92,78,170,7,-131,124,131,214,43,-122,-117,-82
-102,78,180,12,-141,129,136,214,39,-126,-122,-82
-92,78,170,7,-131,124,131,214,24,-141,-136,-92
-92,78,170,7,-131,124,141,219,19,-151,-141,-97
-92,73,165,9,-129,119,146,219,14,-161,-146,-97
-92,73,165,9,-129,119,151,219,0,-170,-151,-102
-97,73,170,12,-134,122,151,219,-9,-170,-156,-97
-102,73,175,14,-139,124,156,219,-19,-180,-165,-102
-107,73,180,17,-143,126,161,219,-24,-190,-170,-107
-112,73,185,19,-148,129,161,219,-29,-195,-180,-107
-117,73,190,21,-153,131,161,209,-43,-209,-200,-122
-117,73,190,21,-153,131,170,209,-53,-234,-209,-126
-122,58,180,31,-151,119,175,204,-63,-253,-219,-126
-126,58,185,34,-156,122,180,204,-82,-273,-229,-131
-136,58,195,39,-165,126,180,200,-97,-278,-229,-136
-141,48,190,46,-165,119,185,195,-107,-292,-239,-146
-146,43,190,51,-168,117,190,190,-117,-307,-248,-151
-146,39,185,53,-165,112,195,190,-126,-317,-263,-156
-141,34,175,53,-158,104,200,185,-146,-336,-283,-161
-146,34,180,56,-163,107,200,180,-161,-351,-292,-165
-151,34,185,58,-168,109,204,180,-175,-366,-302,-170
-156,29,185,63,-170,107,209,170,-190,-380,-322,-175
-161,14,175,73,-168,95,224,156,-204,-390,-322,-180
-161,14,175,73,-168,95,229,151,-219,-405,-336,-185
-165,9,175,78,-170,92,229,146,-229,-419,-341,-195
-170,9,180,80,-175,95,229,141,-244,-434,-351,-200
-180,4,185,87,-183,95,239,126,-258,-453,-361,-200
-180,0,180,90,-180,90,239,122,-273,-463,-370,-204
-180,-4,175,92,-178,85,234,112,-287,-478,-380,-209
-190,-4,185,97,-187,90,229,107,-302,-492,-390,-209
-185,0,185,92,-185,92,229,102,-326,-497,-400,-214
-185,-9,175,97,-180,82,234,87,-336,-507,-405,-219
-185,-14,170,100,-178,78,234,78,-351,-517,-409,-224
-185,-14,170,100,-178,78,234,68,-356,-522,-414,-229
-195,-29,165,112,-180,68,234,63,-356,-522,-414,-234
-195,-29,165,112,-180,68,234,53,-366,-531,-419,-234
-195,-29,165,112,-180,68,234,53,-375,-531,-429,-234
-200,-29,170,114,-185,70,234,43,-385,-531,-429,-229
-190,-34,156,112,-173,61,234,48,-395,-522,-419,-219
-190,-34,156,112,-173,61,229,34,-405,-527,-424,-219
-190,-34,156,112,-173,61,224,24,-405,-527,-424,-219
-190,-39,151,114,-170,56,219,24,-409,-522,-419,-219
-185,-39,146,112,-165,53,214,19,-409,-517,-409,-229
-185,-39,146,112,-165,53,209,14,-409,-507,-400,-224
-180,-39,141,109,-161,51,204,14,-409,-502,-395,-224
-180,-39,141,109,-161,51,200,9,-405,-488,-395,-219
-180,-39,141,109,-161,51,185,-4,-395,-463,-380,-204
-170,-39,131,104,-151,46,180,-9,-395,-453,-366,-200
-170,-39,131,104,-151,46,175,-19,-395,-444,-356,-195
-170,-43,126,107,-148,41,165,-19,-390,-424,-341,-185
-161,-34,126,97,-143,46,170,-19,-380,-400,-326,-180
-156,-34,122,95,-139,43,161,-24,-370,-385,-312,-170
-151,-34,117,92,-134,41,146,-29,-361,-370,-302,-170
-146,-29,117,87,-131,43,136,-29,-356,-356,-283,-161
-131,-39,92,85,-112,26,136,-29,-341,-331,-283,-156
-131,-34,97,82,-114,31,126,-34,-331,-317,-268,-151
-126,-24,102,75,-114,39,122,-34,-322,-297,-253,-136
-122,-19,102,70,-112,41,117,-34,-312,-278,-234,-126
-117,-19,97,68,-107,39,112,-43,-297,-263,-219,-122
-112,-19,92,65,-102,36,102,-43,-283,-244,-204,-117
-107,-14,92,61,-100,39,97,-43,-268,-234,-195,-107
-102,-14,87,58,-95,36,92,-48,-248,-219,-185,-97
-97,-9,87,53,-92,39,82,-39,-239,-204,-175,-87
-92,0,92,46,-92,46,68,-39,-234,-190,-165,-82
-82,0,82,41,-82,41,58,-39,-224,-175,-156,-73
-78,9,87,34,-82,48,58,-39,-204,-170,-146,-68
-73,9,82,31,-78,46,63,-39,-195,-161,-136,-73
-68,9,78,29,-73,43,58,-39,-175,-146,-126,-68
-63,14,78,24,-70,46,48,-34,-170,-136,-117,-63
-63,14,78,24,-70,46,43,-34,-161,-126,-107,-58
-58,4,63,26,-61,34,43,-29,-151,-117,-107,-48
-58,4,63,26,-61,34,39,-24,-141,-107,-102,-43
-58,9,68,24,-63,39,39,-24,-131,-102,-97,-43
-53,14,68,19,-61,41,34,-24,-122,-97,-87,-39
-63,14,78,24,-70,46,19,-24,-107,-87,-78,-34
-58,9,68,24,-63,39,19,-24,-97,-82,-73,-34
-48,9,58,19,-53,34,14,-14,-97,-78,-68,-34
-48,9,58,19,-53,34,14,-14,-87,-73,-63,-34
-39,14,53,12,-46,34,24,-4,-78,-68,-58,-24
-39,14,53,12,-46,34,19,0,-73,-63,-58,-19
-39,14,53,12,-46,34,14,0,-58,-63,-53,-19
-39,14,53,12,-46,34,14,0,-48,-58,-48,-19
-34,14,48,9,-41,31,14,-4,-43,-58,-43,-14
-34,14,48,9,-41,31,14,0,-43,-48,-43,-14
-29,14,43,7,-36,29,14,4,-34,-48,-43,-14
-29,14,43,7,-36,29,14,9,-34,-48,-43,-9
-34,14,48,9,-41,31,14,19,-19,-58,-43,-9
-34,14,48,9,-41,31,14,19,-14,-53,-39,-9
-34,14,48,9,-41,31,14,19,-9,-53,-39,-9
-34,9,43,12,-39,26,14,24,-4,-48,-39,-9
-24,0,24,12,-24,12,14,24,0,-48,-29,-9
-24,0,24,12,-24,12,14,24,9,-43,-24,-9
-19,0,19,9,-19,9,14,24,14,-43,-19,-9
-19,0,19,9,-19,9,14,34,19,-43,-14,-9
-29,0,29,14,-29,14,14,39,24,-43,-24,-4
-29,-4,24,17,-26,9,19,39,29,-39,-24,-4
-29,-4,24,17,-26,9,19,39,34,-39,-24,-4
-29,-4,24,17,-26,9,19,39,39,-39,-19,-4
-29,-4,24,17,-26,9,19,53,34,-43,-19,-4
-29,-4,24,17,-26,9,19,53,39,-39,-19,-4
-29,-4,24,17,-26,9,19,58,39,-34,-19,-4
-29,-4,24,17,-26,9,19,58,39,-34,-14,-4
-19,-4,14,12,-17,4,19,58,48,-24,-4,-4
-19,-4,14,12,-17,4,19,58,53,-19,-9,-4
-19,-4,14,12,-17,4,24,58,58,-19,-9,-4
-19,-4,14,12,-17,4,24,58,58,-19,-4,-9
-19,-9,9,14,-14,0,29,63,68,-14,0,0
-19,-9,9,14,-14,0,29,68,68,-14,0,0
-19,-9,9,14,-14,0,29,68,68,-14,0,0
-19,-9,9,14,-14,0,29,68,68,-14,0,0
-19,-24,-4,21,-7,-14,39,78,68,-4,4,4
-19,-29,-9,24,-4,-19,39,78,73,0,9,4
-19,-29,-9,24,-4,-19,39,78,78,0,9,4
-19,-29,-9,24,-4,-19,39,78,78,0,14,4
-19,-34,-14,26,-2,-24,39,78,78,9,19,4
-19,-34,-14,26,-2,-24,39,78,82,9,19,4
-19,-34,-14,26,-2,-24,39,78,87,9,19,4
-19,-34,-14,26,-2,-24,39,78,87,14,19,9
-19,-34,-14,26,-2,-24,39,78,87,19,24,9
-19,-34,-14,26,-2,-24,39,78,87,19,24,9
-19,-34,-14,26,-2,-24,39,78,87,19,24,9
-19,-34,-14,26,-2,-24,39,78,87,19,24,9
-19,-34,-14,26,-2,-24,39,68,87,29,29,9
-19,-34,-14,26,-2,-24,43,68,92,29,29,9
-19,-34,-14,26,-2,-24,43,73,92,39,34,14
-19,-34,-14,26,-2,-24,39,73,92,39,39,14
-14,-43,-29,29,7,-36,34,73,92,39,43,4
-14,-39,-24,26,4,-31,34,68,92,39,43,4
-14,-39,-24,26,4,-31,34,68,92,39,43,4
-14,-39,-24,26,4,-31,34,68,92,39,43,4
-14,-39,-24,26,4,-31,34,68,92,43,43,14
-14,-39,-24,26,4,-31,34,68,92,43,43,14
-14,-39,-24,26,4,-31,34,68,92,43,43,14
-14,-39,-24,26,4,-31,34,68,92,43,43,19
-14,-39,-24,26,4,-31,34,73,97,43,48,19
-14,-39,-24,26,4,-31,34,73,97,48,48,19
-14,-39,-24,26,4,-31,34,73,97,48,48,19
-14,-39,-24,26,4,-31,34,73,97,53,48,19
-4,-39,-34,21,14,-36,29,68,92,53,48,19
-4,-34,-29,19,12,-31,29,63,92,53,48,14
-4,-34,-29,19,12,-31,29,63,92,53,48,14
-4,-39,-34,21,14,-36,29,63,92,48,48,14
-14,-39,-24,26,4,-31,24,63,78,48,48,14
-14,-39,-24,26,4,-31,24,63,73,48,48,14
-14,-43,-29,29,7,-36,24,58,73,48,48,14
-14,-43,-29,29,7,-36,24,53,73,48,48,14
-4,-48,-43,26,19,-46,14,53,82,39,39,19
-4,-43,-39,24,17,-41,14,53,82,39,39,19
-4,-43,-39,24,17,-41,14,53,82,39,39,19
-4,-43,-39,24,17,-41,19,53,82,39,39,19
-4,-39,-34,21,14,-36,29,53,82,43,39,19
-4,-39,-34,21,14,-36,24,53,82,43,39,19
-4,-39,-34,21,14,-36,19,48,73,39,39,19
-4,-39,-34,21,14,-36,19,48,73,39,39,19
-4,-39,-34,21,14,-36,19,48,73,39,39,29
-4,-39,-34,21,14,-36,19,43,73,34,34,29
-4,-29,-24,17,9,-26,19,43,68,34,34,24
-4,-29,-24,17,9,-26,14,43,68,24,29,19
-4,-39,-34,21,14,-36,14,43,68,24,29,9
-4,-39,-34,21,14,-36,14,43,63,24,29,14
-4,-39,-34,21,14,-36,14,43,63,24,29,19
-4,-39,-34,21,14,-36,14,43,63,19,24,19
-4,-39,-34,21,14,-36,4,39,58,19,34,19
-4,-39,-34,21,14,-36,4,34,58,19,34,19
-4,-39,-34,21,14,-36,4,34,58,19,29,19
-4,-39,-34,21,14,-36,0,34,58,14,29,19
-4,-39,-34,21,14,-36,9,34,58,14,29,19
-4,-39,-34,21,14,-36,9,34,58,14,29,24
-4,-39,-34,21,14,-36,9,29,58,14,29,24
-4,-39,-34,21,14,-36,9,29,58,14,29,24
-4,-39,-34,21,14,-36,9,29,58,14,29,24
-4,-39,-34,21,14,-36,9,29,58,14,29,24
-4,-39,-34,21,14,-36,9,29,58,14,29,19
-4,-39,-34,21,14,-36,9,29,53,14,29,14
-4,-39,-34,21,14,-36,0,29,53,14,29,14
0,-39,-39,19,19,-39,0,24,53,9,29,19
0,-39,-39,19,19,-39,0,24,53,9,29,19
0,-34,-34,17,17,-34,0,24,53,4,29,19
0,-43,-43,21,21,-43,0,24,48,4,29,19
0,-43,-43,21,21,-43,0,24,48,4,29,19
0,-43,-43,21,21,-43,0,24,48,4,24,19
0,-39,-39,19,19,-39,-4,24,43,4,19,19
-9,-34,-24,21,7,-29,4,24,43,4,19,19
-9,-34,-24,21,7,-29,4,24,43,4,19,14
-9,-39,-29,24,9,-34,4,24,43,4,19,14
-9,-39,-29,24,9,-34,4,24,43,4,19,19
0,-29,-29,14,14,-29,4,24,48,-4,9,9
0,-29,-29,14,14,-29,4,24,48,-4,9,9
0,-29,-29,14,14,-29,4,29,43,-4,14,9
4,-29,-34,12,19,-31,4,29,43,-4,14,9
4,-34,-39,14,21,-36,4,19,34,-4,24,24
4,-29,-34,12,19,-31,4,19,39,-9,24,24
4,-29,-34,12,19,-31,9,19,39,-9,24,24
4,-29,-34,12,19,-31,9,19,43,-4,29,24
4,-29,-34,12,19,-31,0,19,34,-14,19,14
4,-29,-34,12,19,-31,0,19,39,-14,19,14
4,-29,-34,12,19,-31,0,19,43,-9,19,14
4,-29,-34,12,19,-31,0,24,43,-9,19,14
0,-29,-29,14,14,-29,9,34,43,0,29,19
0,-29,-29,14,14,-29,9,34,43,-4,29,19
9,-24,-34,7,21,-29,9,29,43,-4,29,24
9,-19,-29,4,19,-24,9,29,48,0,29,19
9,-14,-24,2,17,-19,0,39,58,9,29,19
9,-9,-19,0,14,-14,0,39,58,9,29,19
9,-4,-14,-2,12,-9,0,39,58,9,29,19
9,0,-9,-4,9,-4,0,39,58,9,29,19
24,14,-9,-19,17,2,9,48,68,19,34,34
24,19,-4,-21,14,7,14,53,73,24,39,34
24,24,0,-24,12,12,14,53,73,29,48,39
24,29,4,-26,9,17,14,53,78,29,53,39
19,43,24,-31,-2,34,14,53,87,39,53,39
19,48,29,-34,-4,39,9,43,87,39,53,43
19,53,34,-36,-7,43,4,39,87,39,58,43
24,58,34,-41,-4,46,-9,34,87,39,58,43
34,58,24,-46,4,41,-9,39,87,34,53,53
29,58,29,-43,0,43,-19,24,82,29,53,53
29,58,29,-43,0,43,-39,14,78,29,53,53
29,53,24,-41,2,39,-53,9,73,24,48,58
24,43,19,-34,2,31,-73,0,63,14,39,48
29,43,14,-36,7,29,-78,-9,53,14,39,48
29,43,14,-36,7,29,-87,-9,48,14,39,53
29,53,24,-41,2,39,-87,-14,43,14,39,53
39,63,24,-51,7,43,-97,-24,43,14,39,58
39,68,29,-53,4,48,-97,-24,43,19,43,63
39,73,34,-56,2,53,-97,-24,53,19,53,68
48,73,24,-61,12,48,-97,-19,53,29,58,78
48,82,34,-65,7,58,-102,-9,48,24,53,68
48,78,29,-63,9,53,-92,-4,58,29,58,73
53,73,19,-63,17,46,-92,0,63,34,63,78
58,68,9,-63,24,39,-87,4,68,34,68,78
68,68,0,-68,34,34,-82,14,78,43,78,87
68,58,-9,-63,39,24,-78,14,78,48,78,87
68,53,-14,-61,41,19,-78,14,78,48,78,87
68,53,-14,-61,41,19,-78,14,78,43,78,87
73,53,-19,-63,46,17,-73,14,87,53,87,97
58,53,-4,-56,31,24,-73,9,78,53,82,97
58,53,-4,-56,31,24,-63,9,73,48,78,87
53,43,-9,-48,31,17,-58,9,73,43,73,78
39,43,4,-41,17,24,-58,9,58,39,78,73
39,34,-4,-36,21,14,-58,4,53,34,73,68
34,29,-4,-31,19,12,-43,4,48,24,58,63
24,24,0,-24,12,12,-39,-4,39,9,48,58
19,14,-4,-17,12,4,-34,-4,34,4,39,43
14,4,-9,-9,12,-2,-34,-4,29,0,29,34
9,-4,-14,-2,12,-9,-29,-4,29,-9,19,34
4,-19,-24,7,14,-21,-29,-4,24,-19,14,19
-4,-29,-24,17,9,-26,-19,-4,19,-24,0,9
-4,-34,-29,19,12,-31,-19,-4,14,-29,0,9
-4,-39,-34,21,14,-36,-19,-4,9,-34,0,9
-4,-43,-39,24,17,-41,-14,-4,4,-39,0,9
-4,-43,-39,24,17,-41,-14,-4,4,-39,-9,9
-4,-43,-39,24,17,-41,-14,-4,4,-39,-9,9
-4,-48,-43,26,19,-46,-14,-4,4,-39,-9,9
-4,-48,-43,26,19,-46,-14,-4,4,-43,-9,9
-4,-48,-43,26,19,-46,-14,-4,4,-53,-9,9
-4,-48,-43,26,19,-46,-14,-4,4,-53,-9,9
-4,-48,-43,26,19,-46,-14,-4,4,-53,-9,9
-4,-48,-43,26,19,-46,-14,-4,4,-53,-9,9
-4,-48,-43,26,19,-46,-14,-4,4,-43,-9,9
-4,-48,-43,26,19,-46,-9,-4,4,-43,-9,9
-4,-48,-43,26,19,-46,-9,-4,4,-43,-9,9
-4,-48,-43,26,19,-46,-9,-4,4,-43,-9,9
-4,-58,-53,31,24,-56,-9,-4,4,-43,-9,9
-4,-58,-53,31,24,-56,-9,-4,4,-43,-9,9
-4,-58,-53,31,24,-56,-9,-4,4,-43,-9,9
-4,-63,-58,34,26,-61,-9,-4,4,-48,-9,9
-4,-63,-58,34,26,-61,-19,-4,4,-48,-9,9
-4,-63,-58,34,26,-61,-19,-4,0,-48,-9,9
-4,-63,-58,34,26,-61,-19,-4,0,-48,-9,9
-4,-63,-58,34,26,-61,-19,-4,0,-48,-9,9
-4,-53,-48,29,21,-51,-19,-4,4,-48,-19,19
-4,-53,-48,29,21,-51,-19,-4,4,-48,-19,19
-4,-53,-48,29,21,-51,-14,-4,4,-48,-19,19
-4,-53,-48,29,21,-51,-14,-4,4,-48,-19,19
-4,-53,-48,29,21,-51,-14,-4,4,-48,-9,19
-4,-53,-48,29,21,-51,-19,-4,4,-48,-9,24
-4,-53,-48,29,21,-51,-19,-4,4,-48,-9,24
-4,-53,-48,29,21,-51,-19,-4,4,-48,-9,24
4,-53,-58,24,31,-56,-19,-4,4,-48,-9,24
4,-53,-58,24,31,-56,-19,-4,4,-48,-9,24
4,-53,-58,24,31,-56,-14,-4,4,-48,-9,24
4,-53,-58,24,31,-56,-14,-4,4,-43,-9,24
4,-53,-58,24,31,-56,-14,0,14,-43,-9,14
4,-53,-58,24,31,-56,-14,0,14,-43,-9,14
9,-48,-58,19,34,-53,-14,-4,14,-43,-4,14
9,-48,-58,19,34,-53,-14,-4,14,-43,-4,14
