I,II,III,aVR,aVL,aVF,V1,V2,V3,V4,V5,V6
87,9,-78,-48,82,-34,-97,39,-4,34,92,112
86,5,-81,-45,83,-38,-91,42,6,42,94,124
96,13,-83,-54,89,-35,-91,52,18,57,101,135
106,27,-79,-66,92,-26,-90,66,32,74,110,144
102,38,-64,-70,83,-13,-78,81,47,86,116,146
76,42,-34,-59,55,4,-50,96,63,90,117,139
43,39,-4,-41,23,17,-19,106,72,87,112,126
16,32,16,-24,0,24,5,112,71,78,99,106
-3,24,27,-10,-15,25,18,107,63,68,82,87
-20,13,33,3,-26,23,23,89,52,57,64,72
-33,0,33,16,-33,16,23,68,39,43,48,63
-45,-15,30,30,-37,7,25,51,21,23,33,54
-57,-28,29,42,-43,0,28,39,4,4,19,43
-71,-36,35,53,-53,0,31,29,-7,-8,5,27
-81,-42,39,61,-60,-1,33,24,-13,-13,-3,14
-86,-51,35,68,-60,-8,35,24,-14,-15,-4,6
-86,-57,29,71,-57,-14,38,28,-14,-14,-3,4
-87,-58,29,72,-58,-14,43,34,-13,-13,-7,3
-87,-57,30,72,-58,-13,47,38,-14,-13,-13,3
-86,-60,26,73,-56,-17,49,39,-13,-16,-17,4
-86,-62,24,74,-55,-19,48,39,-13,-18,-18,4
-89,-64,25,76,-57,-19,44,39,-18,-21,-18,1
-91,-63,28,77,-59,-17,42,39,-23,-23,-18,0
-90,-60,30,75,-60,-15,45,36,-25,-24,-19,0
-87,-58,29,72,-58,-14,47,34,-24,-24,-19,0
-86,-57,29,71,-57,-14,48,32,-19,-21,-13,0
-86,-57,29,71,-57,-14,47,33,-14,-19,-9,0
-87,-58,29,72,-58,-14,50,40,-10,-16,-8,1
-87,-58,29,72,-58,-14,52,47,-9,-14,-9,3
-87,-57,30,72,-58,-13,53,49,-8,-13,-7,6
-87,-57,30,72,-58,-13,53,48,-8,-13,-4,8
-86,-59,27,72,-56,-16,53,45,-9,-13,-1,10
-86,-58,28,72,-57,-15,53,43,-9,-13,0,9
-89,-50,39,69,-64,-5,52,42,-8,-15,-2,5
-91,-43,48,67,-69,2,52,43,-8,-18,-8,0
-95,-39,56,67,-75,8,56,41,-11,-26,-20,-6
-101,-34,67,67,-84,16,62,42,-13,-38,-38,-18
-113,-19,94,66,-103,37,71,47,-12,-57,-64,-41
-125,0,125,62,-125,62,73,48,-13,-77,-91,-67
-135,20,155,57,-145,87,60,34,-23,-93,-112,-90
-140,52,192,44,-166,122,43,9,-38,-97,-125,-106
-142,103,245,19,-193,174,29,-22,-57,-82,-131,-117
-141,160,301,-9,-221,230,14,-57,-81,-58,-126,-121
-138,209,347,-35,-242,278,-10,-94,-115,-32,-106,-119
-131,252,383,-60,-257,317,-42,-140,-160,0,-68,-102
-115,297,412,-91,-263,354,-81,-200,-218,44,-5,-64
-92,350,442,-129,-267,396,-130,-277,-286,101,81,0
-62,412,474,-175,-268,443,-190,-364,-356,169,192,88
-24,467,491,-221,-257,479,-252,-443,-408,252,329,193
23,497,474,-260,-225,485,-307,-494,-423,358,494,310
86,511,425,-298,-169,468,-355,-521,-395,510,699,456
164,516,352,-340,-94,434,-396,-533,-323,716,943,642
238,483,245,-360,-3,364,-418,-522,-220,929,1169,827
290,386,96,-338,97,241,-414,-482,-104,1106,1324,968
330,235,-95,-282,212,70,-390,-439,-14,1266,1442,1091
372,52,-320,-212,346,-134,-357,-416,14,1434,1567,1228
418,-138,-556,-140,487,-347,-331,-409,-13,1593,1696,1369
463,-320,-783,-71,623,-551,-320,-402,-81,1711,1815,1494
501,-499,-1000,-1,750,-749,-307,-370,-155,1747,1897,1594
525,-686,-1211,80,868,-948,-273,-297,-220,1651,1911,1661
535,-870,-1405,167,970,-1137,-234,-224,-358,1365,1821,1683
535,-1041,-1576,253,1055,-1308,-205,-197,-643,854,1603,1649
517,-1183,-1700,333,1108,-1441,-180,-208,-1005,193,1287,1562
476,-1286,-1762,405,1119,-1524,-147,-235,-1347,-509,915,1425
414,-1350,-1764,468,1089,-1557,-107,-262,-1617,-1138,512,1227
340,-1379,-1719,519,1029,-1549,-64,-277,-1780,-1596,106,965
268,-1371,-1639,551,953,-1505,-34,-282,-1830,-1856,-240,705
212,-1329,-1541,558,876,-1435,-27,-283,-1771,-1925,-471,507
170,-1288,-1458,559,814,-1373,-24,-273,-1645,-1865,-598,367
135,-1275,-1410,570,772,-1342,-7,-245,-1496,-1745,-649,264
102,-1244,-1346,571,724,-1295,4,-219,-1344,-1602,-658,181
67,-1150,-1217,541,642,-1183,-7,-209,-1199,-1456,-654,99
24,-1016,-1040,496,532,-1028,-23,-204,-1046,-1300,-649,5
-28,-883,-855,455,413,-869,-21,-187,-871,-1124,-642,-106
-72,-757,-685,414,306,-721,0,-165,-699,-938,-610,-189
-91,-640,-549,365,229,-594,31,-145,-555,-761,-536,-203
-96,-537,-441,316,172,-489,62,-131,-440,-607,-445,-180
-102,-453,-351,277,124,-402,80,-121,-345,-487,-367,-161
-106,-381,-275,243,84,-328,86,-102,-264,-391,-302,-146
-106,-313,-207,209,50,-260,89,-64,-191,-306,-244,-124
-106,-253,-147,179,20,-200,91,-14,-118,-230,-195,-102
-111,-206,-95,158,-8,-150,98,34,-40,-164,-159,-87
-116,-170,-54,143,-31,-112,106,77,28,-107,-131,-78
-118,-141,-23,129,-47,-82,112,107,72,-57,-104,-69
-117,-117,0,117,-58,-58,116,121,96,-19,-82,-63
-114,-93,21,103,-67,-36,120,120,107,2,-70,-59
-112,-73,39,92,-75,-17,121,112,111,13,-63,-58
-111,-57,54,84,-82,-1,122,106,115,21,-55,-58
-112,-48,64,80,-88,8,122,111,125,28,-48,-58
-110,-44,66,77,-88,11,122,131,145,38,-42,-55
-107,-43,64,75,-85,10,122,150,164,47,-39,-53
-104,-42,62,73,-83,10,121,155,170,53,-37,-52
-102,-42,60,72,-81,9,121,151,170,57,-34,-53
-101,-43,58,72,-79,7,123,145,171,63,-26,-51
-101,-43,58,72,-79,7,125,141,174,67,-19,-48
-102,-38,64,70,-83,13,126,138,176,70,-15,-45
-101,-34,67,67,-84,16,126,140,179,72,-14,-43
-102,-33,69,67,-85,18,123,148,186,75,-11,-40
-102,-33,69,67,-85,18,122,155,194,77,-9,-39
-100,-34,66,67,-83,16,121,158,201,80,-8,-38
-97,-34,63,65,-80,14,121,156,203,81,-8,-38
-94,-32,62,63,-78,15,122,151,202,84,-11,-39
-92,-29,63,60,-77,17,122,146,200,86,-13,-39
-91,-21,70,56,-80,24,118,142,201,89,-14,-38
-91,-14,77,52,-84,31,116,141,203,91,-14,-38
-91,-11,80,51,-85,34,119,142,206,91,-11,-39
-91,-13,78,52,-84,32,121,145,208,91,-9,-39
-92,-20,72,56,-82,26,121,151,211,94,-8,-38
-92,-24,68,58,-80,22,117,155,213,96,-8,-38
-89,-19,70,54,-79,25,111,154,214,97,-9,-42
-87,-14,73,50,-80,29,107,151,214,97,-9,-47
-86,-13,73,49,-79,30,106,147,213,94,-8,-51
-86,-14,72,50,-79,29,106,146,213,92,-8,-52
-87,-12,75,49,-81,31,106,146,218,90,-13,-52
-87,-9,78,48,-82,34,106,146,223,91,-18,-52
-86,-6,80,46,-83,37,109,144,227,95,-22,-55
-86,-4,82,45,-84,39,111,145,228,97,-23,-57
-87,-1,86,44,-86,42,112,155,230,95,-24,-56
-87,0,87,43,-87,43,112,164,233,92,-24,-53
-84,0,84,42,-84,42,111,165,238,91,-21,-52
-82,0,82,41,-82,41,111,161,243,91,-19,-52
-81,4,85,38,-83,44,112,159,246,92,-18,-52
-81,8,89,36,-85,48,112,160,247,92,-19,-52
-81,9,90,36,-85,49,109,162,249,90,-18,-55
-81,9,90,36,-85,49,107,164,252,91,-18,-57
-83,8,91,37,-87,49,106,167,259,96,-21,-60
-86,8,94,39,-90,51,107,169,267,101,-23,-62
-89,9,98,40,-93,53,104,169,273,102,-24,-65
-91,13,104,39,-97,58,102,169,277,101,-23,-67
-92,21,113,35,-102,67,101,174,282,103,-25,-67
-92,28,120,32,-106,74,101,179,286,106,-28,-67
-91,30,121,30,-106,75,101,183,288,109,-31,-71
-91,29,120,31,-105,74,101,185,291,111,-33,-73
-91,29,120,31,-105,74,103,184,301,114,-34,-70
-91,29,120,31,-105,74,106,184,311,116,-34,-67
-92,26,118,33,-105,72,109,189,319,121,-33,-72
-92,24,116,34,-104,70,111,194,325,125,-33,-77
-90,25,115,32,-102,70,112,198,335,129,-35,-78
-91,28,119,31,-105,73,112,199,345,130,-38,-77
-97,31,128,33,-112,79,111,201,354,131,-44,-80
-101,33,134,34,-117,83,111,203,360,131,-47,-86
-98,37,135,30,-116,86,111,208,367,130,-47,-93
-92,42,134,25,-113,88,111,213,374,130,-47,-96
-89,48,137,20,-113,92,112,219,384,133,-55,-96
-87,52,139,17,-113,95,112,223,394,135,-62,-96
-82,55,137,13,-109,96,111,225,401,138,-64,-102
-78,57,135,10,-106,96,111,228,408,140,-63,-111
-77,62,139,7,-108,100,116,237,420,142,-64,-119
-81,67,148,7,-114,107,121,247,433,145,-67,-125
-90,73,163,8,-126,118,123,254,446,151,-71,-133
-101,77,178,12,-139,127,122,257,457,155,-77,-140
-111,80,191,15,-151,135,121,258,468,157,-89,-147
-116,86,202,15,-159,144,121,258,477,156,-101,-155
-113,99,212,7,-162,155,124,257,484,153,-108,-165
-107,111,218,-2,-162,164,125,257,491,151,-116,-174
-102,118,220,-8,-161,169,125,260,502,149,-129,-180
-101,121,222,-10,-161,171,125,262,511,146,-140,-184
-106,128,234,-11,-170,181,128,261,515,140,-141,-190
-111,135,246,-12,-178,190,130,258,516,136,-136,-194
-115,142,257,-13,-186,199,132,254,519,134,-133,-196
-116,150,266,-17,-191,208,131,252,521,135,-135,-199
-117,160,277,-21,-197,218,127,254,522,138,-141,-206
-117,169,286,-26,-201,227,122,253,521,140,-145,-213
-116,175,291,-29,-203,233,114,244,523,141,-147,-216
-116,179,295,-31,-205,237,107,234,522,141,-146,-214
-117,187,304,-35,-210,245,104,227,516,140,-144,-209
-117,194,311,-38,-214,252,102,219,507,140,-141,-204
-112,199,311,-43,-211,255,95,205,498,142,-136,-199
-107,203,310,-48,-208,256,87,190,488,145,-131,-195
-104,208,312,-52,-208,260,80,181,474,148,-126,-192
-102,213,315,-55,-208,264,73,175,458,150,-122,-190
-99,219,318,-60,-208,268,65,168,442,151,-116,-187
-97,223,320,-63,-208,271,58,161,429,150,-107,-180
-95,224,319,-64,-207,271,53,152,419,152,-95,-165
-92,223,315,-65,-203,269,48,141,409,155,-82,-146
-84,224,308,-70,-196,266,38,126,396,161,-70,-128
-78,219,297,-70,-187,258,29,112,380,164,-58,-112
-78,205,283,-63,-180,244,23,103,362,164,-42,-96
-78,190,268,-56,-173,229,19,97,346,164,-24,-82
-70,184,254,-57,-162,219,12,88,334,171,-7,-70
-58,184,242,-63,-150,213,4,78,322,179,8,-58
-49,184,233,-67,-141,208,-3,70,305,183,21,-41
-43,180,223,-68,-133,201,-8,63,287,184,33,-24
-39,171,210,-66,-124,190,-12,54,271,185,45,-11
-34,165,199,-65,-116,182,-13,48,258,184,57,0
-24,164,188,-70,-106,176,-14,45,247,185,70,10
-14,161,175,-73,-94,168,-14,47,239,185,81,23
-7,148,155,-70,-81,151,-13,51,232,183,90,36
-4,131,135,-63,-69,133,-13,53,224,180,96,47
-1,118,119,-58,-60,118,-16,48,212,173,100,53
0,107,107,-53,-53,107,-18,43,200,165,102,57
0,92,92,-46,-46,92,-19,41,190,158,99,63
0,78,78,-39,-39,78,-19,42,180,151,97,67
-1,68,69,-33,-35,68,-17,43,168,141,97,66
-3,58,61,-27,-32,59,-14,43,156,131,97,63
-6,45,51,-19,-28,48,-9,40,147,124,90,60
-8,34,42,-13,-25,38,-4,38,141,117,82,58
-11,29,40,-9,-25,34,-1,40,135,107,76,55
-13,24,37,-5,-25,30,0,42,126,97,73,53
-14,14,28,0,-21,21,1,43,113,89,68,53
-14,4,18,5,-16,11,3,42,102,82,63,53
-13,0,13,6,-13,6,5,44,100,75,58,49
-13,0,13,6,-13,6,8,47,102,68,53,43
-18,-3,15,10,-16,6,14,50,98,60,48,33
-23,-8,15,15,-19,3,18,52,92,53,43,24
-27,-11,16,19,-21,2,19,53,86,45,36,17
-28,-13,15,20,-21,1,19,53,82,39,29,14
-30,-17,13,23,-21,-2,19,51,79,33,25,12
-33,-23,10,28,-21,-6,19,52,78,29,23,13
-37,-31,6,34,-21,-12,16,57,78,24,25,16
-42,-38,4,40,-23,-17,14,62,78,19,24,18
-48,-43,5,45,-26,-19,12,63,75,11,17,17
-52,-47,5,49,-28,-21,13,63,73,4,9,14
-53,-52,1,52,-27,-25,16,63,72,1,6,11
-53,-57,-4,55,-24,-30,18,63,73,0,4,9
-52,-61,-9,56,-21,-35,19,60,71,-3,-1,4
-53,-62,-9,57,-22,-35,19,58,68,-8,-8,0
-52,-62,-10,57,-21,-36,18,59,63,-11,-12,-3
-52,-62,-10,57,-21,-36,18,62,58,-13,-13,-8
-55,-63,-8,59,-23,-35,20,65,51,-16,-15,-16
-57,-63,-6,60,-25,-34,23,67,47,-18,-18,-23
-58,-57,1,57,-29,-28,28,70,52,-21,-23,-25
-57,-48,9,52,-33,-19,33,72,62,-23,-28,-24
-59,-39,20,49,-39,-9,36,75,71,-23,-32,-23
-62,-34,28,48,-45,-3,38,77,77,-23,-33,-23
-65,-36,29,50,-47,-3,43,80,79,-26,-33,-25
-67,-42,25,54,-46,-8,47,81,78,-28,-33,-28
-68,-48,20,58,-44,-14,48,82,77,-29,-37,-36
-68,-52,16,60,-42,-18,48,82,77,-29,-42,-42
-68,-55,13,61,-40,-21,47,82,77,-28,-46,-44
-68,-57,11,62,-39,-23,47,82,77,-29,-47,-43
-67,-58,9,62,-38,-24,47,81,79,-28,-48,-42
-67,-58,9,62,-38,-24,47,81,81,-28,-48,-42
-70,-56,14,63,-42,-21,48,84,84,-30,-47,-43
-72,-53,19,62,-45,-17,48,86,86,-33,-47,-43
-73,-50,23,61,-48,-13,45,87,87,-36,-50,-40
-73,-48,25,60,-49,-11,43,87,86,-38,-52,-39
-72,-48,24,60,-48,-12,42,84,87,-41,-53,-40
-72,-48,24,60,-48,-12,42,82,87,-42,-52,-42
-75,-46,29,60,-52,-8,43,79,84,-42,-55,-45
-77,-43,34,60,-55,-4,43,78,82,-42,-57,-47
-79,-40,39,59,-59,0,42,77,81,-45,-58,-48
-78,-39,39,58,-58,0,43,78,82,-47,-58,-48
-75,-38,37,56,-56,0,42,77,80,-49,-55,-45
-73,-38,35,55,-54,-1,42,77,81,-48,-53,-43
-74,-40,34,57,-54,-3,43,79,87,-45,-50,-40
-77,-42,35,59,-56,-3,43,81,91,-43,-48,-39
-80,-47,33,63,-56,-7,41,82,88,-42,-47,-38
-81,-52,29,66,-55,-11,39,82,82,-42,-47,-38
-82,-57,25,69,-53,-16,36,79,80,-42,-48,-38
-81,-62,19,71,-50,-21,34,78,81,-39,-48,-38
-82,-67,15,74,-48,-26,33,77,82,-33,-45,-39
-82,-68,14,75,-48,-27,33,77,82,-29,-43,-39
-80,-61,19,70,-49,-21,34,78,81,-27,-42,-36
-78,-48,30,63,-54,-9,34,77,78,-28,-42,-34
-75,-35,40,55,-57,2,33,78,72,-29,-42,-32
-73,-29,44,51,-58,7,33,78,68,-29,-39,-29
-69,-33,36,51,-52,1,34,76,67,-27,-31,-23
-67,-42,25,54,-46,-8,34,73,68,-24,-24,-19
-70,-47,23,58,-46,-12,29,70,66,-21,-23,-18
-72,-47,25,59,-48,-11,24,68,63,-19,-24,-19
-71,-48,23,59,-47,-12,22,67,62,-18,-18,-15
-68,-48,20,58,-44,-14,23,67,62,-18,-9,-9
-67,-48,19,57,-43,-14,26,67,65,-19,-3,-3
-67,-48,19,57,-43,-14,28,67,67,-19,0,0
-68,-47,21,57,-44,-13,29,69,70,-15,0,0
-68,-47,21,57,-44,-13,29,72,72,-9,0,0
-67,-48,19,57,-43,-14,28,75,75,-3,0,0
-67,-48,19,57,-43,-14,28,77,77,0,0,0
-67,-46,21,56,-44,-12,29,78,78,0,0,0
-67,-43,24,55,-45,-9,28,78,78,0,0,0
-68,-38,30,53,-49,-4,29,77,77,0,0,0
-68,-34,34,51,-51,0,29,77,78,0,0,0
-67,-30,37,48,-52,3,28,78,77,1,0,0
-67,-28,39,47,-53,5,28,78,77,3,0,0
-68,-30,38,49,-53,4,29,77,79,4,1,1
-68,-29,39,48,-53,5,29,77,81,4,3,3
-63,-18,45,40,-54,13,24,79,82,2,5,6
-58,-4,54,31,-56,25,19,81,81,3,8,8
-54,6,60,24,-57,33,15,85,83,9,16,11
-53,18,71,17,-62,44,14,86,86,18,23,13
-53,32,85,10,-69,58,15,85,91,28,25,16
-53,47,100,3,-76,73,18,82,96,38,23,18
-49,58,107,-4,-78,82,24,80,101,47,25,23
-43,67,110,-12,-76,88,33,81,106,52,28,28
-38,76,114,-19,-76,95,44,88,111,51,31,34
-34,86,120,-26,-77,103,57,96,116,48,33,38
-31,94,125,-31,-78,109,71,103,121,48,38,41
-29,101,130,-36,-79,115,78,106,125,52,42,42
-25,106,131,-40,-78,118,70,107,129,58,43,43
-19,111,130,-46,-74,120,53,106,130,62,43,43
-10,118,128,-54,-69,123,36,107,131,64,42,40
-4,125,129,-60,-66,127,15,107,131,63,42,39
-3,133,136,-65,-69,134,-14,102,130,61,44,39
-4,145,149,-70,-76,147,-46,97,130,62,47,42
0,162,162,-81,-81,162,-73,95,131,69,52,47
3,179,176,-91,-86,177,-100,92,131,77,57,52
6,188,182,-97,-88,185,-130,83,130,80,60,55
8,194,186,-101,-89,190,-159,73,130,81,62,57
11,200,189,-105,-89,194,-180,68,133,85,66,60
13,204,191,-108,-89,197,-194,63,131,87,68,62
14,199,185,-106,-85,192,-205,53,119,82,63,63
14,190,176,-102,-81,183,-213,39,102,73,58,63
11,180,169,-95,-79,174,-215,28,88,64,57,63
9,170,161,-89,-76,165,-214,19,78,58,57,63
9,159,150,-84,-70,154,-211,13,74,56,57,62
9,151,142,-80,-66,146,-209,9,73,57,57,62
7,148,141,-77,-67,144,-208,6,72,60,62,66
8,146,138,-77,-65,142,-208,4,72,62,67,72
19,141,122,-80,-51,131,-209,2,73,65,70,78
33,136,103,-84,-35,119,-209,3,73,67,72,81
42,134,92,-88,-25,113,-205,8,70,69,77,81
47,135,88,-91,-20,111,-200,13,68,68,81,81
52,136,84,-94,-16,110,-195,16,67,63,82,86
57,127,70,-92,-6,98,-185,18,67,58,81,91
60,99,39,-79,10,69,-168,25,68,57,82,95
62,64,2,-63,30,33,-151,33,68,58,82,96
64,40,-24,-52,44,8,-143,38,67,54,77,98
67,24,-43,-45,55,-9,-141,42,67,48,73,101
72,15,-57,-43,64,-21,-138,49,68,42,74,109
77,9,-68,-43,72,-29,-136,57,72,42,81,121
83,6,-77,-44,80,-35,-133,64,80,51,89,135
91,8,-83,-49,87,-37,-131,72,91,66,101,150
103,18,-85,-60,94,-33,-128,84,102,83,115,162
102,28,-74,-65,88,-23,-118,100,115,96,125,165
76,32,-44,-54,60,-6,-91,118,132,100,124,154
36,29,-7,-32,21,11,-59,135,145,97,113,132
2,23,21,-12,-9,22,-35,147,147,88,94,104
-22,14,36,4,-29,25,-19,146,141,78,74,79
-39,4,43,17,-41,23,-12,127,131,69,59,63
-52,-8,44,30,-48,18,-9,98,118,58,48,53
-64,-24,40,44,-52,8,-5,75,100,42,40,45
-77,-38,39,57,-58,0,0,58,83,25,29,34
-88,-44,44,66,-66,0,4,48,70,10,14,19
-96,-47,49,71,-72,1,8,43,63,0,0,4
-98,-52,46,75,-72,-3,13,43,61,-3,-3,-2
-97,-57,40,77,-68,-8,18,47,62,-4,-3,-3
-96,-58,38,77,-67,-10,24,53,62,-3,-7,-4
-97,-57,40,77,-68,-8,28,57,62,-3,-13,-4
-96,-59,37,77,-66,-11,31,59,64,-5,-17,-3
-96,-62,34,79,-65,-14,29,58,63,-8,-18,-3
-99,-63,36,81,-67,-13,22,56,56,-13,-20,-8
-101,-63,38,82,-69,-12,14,53,48,-18,-23,-13
-100,-61,39,80,-69,-11,10,48,44,-22,-27,-17
-97,-58,39,77,-68,-9,9,43,43,-23,-29,-18
-96,-53,43,74,-69,-5,5,37,43,-24,-26,-19
-96,-48,48,72,-72,0,0,34,43,-24,-24,-19
-97,-42,55,69,-76,6,-2,35,41,-23,-25,-16
-97,-39,58,68,-77,9,-3,38,39,-23,-28,-14
-93,-38,55,65,-74,8,-4,40,38,-24,-29,-13
-87,-38,49,62,-68,5,-4,39,38,-24,-29,-13
-81,-39,42,60,-61,1,-3,36,38,-23,-28,-15
-78,-39,39,58,-58,0,-3,34,38,-23,-28,-18
-78,-38,40,58,-59,1,-4,34,39,-25,-32,-23
-81,-38,43,59,-62,2,-4,34,39,-28,-38,-28
-85,-42,43,63,-64,0,-2,32,36,-34,-48,-34
-91,-43,48,67,-69,2,3,33,33,-46,-66,-46
-103,-36,67,69,-85,15,15,41,35,-70,-92,-70
-116,-24,92,70,-104,34,23,48,34,-99,-120,-100
-124,-12,112,68,-118,50,16,40,23,-124,-140,-124
-130,11,141,59,-135,76,4,20,9,-135,-154,-144
-137,56,193,40,-165,124,0,-6,2,-128,-168,-160
-145,108,253,18,-199,180,-3,-36,-3,-108,-175,-169
-151,150,301,0,-226,225,-15,-67,-16,-85,-165,-170
-151,191,342,-20,-246,266,-40,-108,-49,-60,-138,-161
-142,247,389,-52,-265,318,-78,-170,-111,-30,-96,-143
-127,316,443,-94,-285,379,-127,-251,-189,6,-38,-110
-106,392,498,-143,-302,445,-184,-342,-264,52,39,-53
-75,463,538,-194,-306,500,-248,-428,-327,119,154,31
-29,519,548,-245,-288,533,-314,-497,-369,219,324,151
33,566,533,-299,-250,549,-380,-552,-385,362,543,312
109,606,497,-357,-194,551,-440,-594,-365,551,795,510
184,603,419,-393,-117,511,-476,-601,-286,768,1037,708
247,521,274,-384,-13,397,-473,-556,-136,989,1231,868
302,378,76,-340,113,227,-441,-492,24,1207,1393,1008
357,205,-152,-281,254,26,-401,-449,120,1421,1553,1158
414,18,-396,-216,405,-189,-371,-429,142,1637,1723,1319
472,-174,-646,-149,559,-410,-363,-421,105,1854,1904,1483
523,-370,-893,-76,708,-631,-357,-393,60,2029,2067,1633
560,-569,-1129,4,844,-849,-331,-323,36,2092,2170,1752
583,-769,-1352,93,967,-1060,-294,-248,-71,1915,2150,1817
595,-966,-1561,185,1078,-1263,-264,-212,-371,1398,1956,1811
591,-1143,-1734,276,1162,-1438,-236,-213,-778,672,1645,1748
566,-1282,-1848,358,1207,-1565,-201,-230,-1162,-79,1294,1644
516,-1375,-1891,429,1203,-1633,-159,-251,-1472,-765,892,1467
442,-1421,-1863,489,1152,-1642,-112,-265,-1688,-1327,422,1187
361,-1425,-1786,532,1073,-1605,-74,-272,-1800,-1724,-31,879
297,-1397,-1694,550,995,-1545,-60,-273,-1807,-1932,-373,636
251,-1367,-1618,558,934,-1492,-53,-264,-1730,-1973,-579,463
215,-1360,-1575,572,895,-1467,-40,-243,-1598,-1890,-662,343
187,-1336,-1523,574,855,-1429,-33,-224,-1450,-1752,-677,250
159,-1250,-1409,545,784,-1329,-50,-222,-1316,-1623,-685,160
116,-1122,-1238,503,677,-1180,-72,-224,-1173,-1485,-696,52
48,-989,-1037,470,542,-1013,-71,-214,-989,-1307,-704,-82
-24,-863,-839,443,407,-851,-50,-196,-794,-1108,-690,-202
-72,-748,-676,410,302,-712,-18,-180,-628,-918,-637,-255
-95,-642,-547,368,226,-594,11,-170,-497,-752,-557,-258
-101,-542,-441,321,170,-491,31,-166,-391,-618,-472,-241
-97,-446,-349,271,126,-397,42,-157,-303,-505,-391,-216
-90,-355,-265,222,87,-310,47,-130,-223,-403,-317,-188
-86,-278,-192,182,53,-235,52,-86,-142,-313,-257,-162
-90,-224,-134,157,22,-179,59,-32,-56,-238,-214,-144
-96,-187,-91,141,-2,-139,67,20,23,-174,-182,-131
-98,-156,-58,127,-20,-107,73,59,80,-117,-151,-121
-97,-128,-31,112,-33,-79,77,81,115,-70,-123,-112
-96,-103,-7,99,-44,-55,82,84,130,-42,-104,-106
-96,-83,13,89,-54,-35,86,78,135,-25,-88,-102
-99,-68,31,83,-65,-18,89,74,141,-12,-71,-99
-101,-58,43,79,-72,-7,91,80,154,0,-58,-97
-102,-53,49,77,-75,-2,92,100,176,9,-56,-94
-101,-52,49,76,-75,-1,92,120,198,18,-62,-92
-102,-53,49,77,-75,-2,91,126,208,24,-70,-91
-102,-53,49,77,-75,-2,91,122,209,28,-73,-91
-98,-49,49,73,-73,0,94,116,209,32,-67,-92
-92,-43,49,67,-70,3,96,112,209,33,-58,-91
-86,-34,52,60,-69,9,97,109,207,33,-54,-92
-82,-24,58,53,-70,17,97,111,208,33,-53,-92
-81,-14,67,47,-74,26,94,118,214,35,-50,-91
-82,-1,81,41,-81,40,92,125,223,38,-48,-91
-80,14,94,33,-87,54,90,127,230,41,-47,-94
-78,23,101,27,-89,62,91,126,234,42,-47,-96
-78,17,95,30,-86,56,96,123,230,43,-50,-97
-81,4,85,38,-83,44,101,122,224,43,-52,-97
-87,-1,86,44,-86,42,104,121,222,42,-53,-97
-91,-3,88,47,-89,42,106,121,223,42,-53,-97
-92,-8,84,50,-88,38,111,122,227,44,-50,-95
-92,-17,75,54,-83,29,116,125,233,47,-48,-92
-92,-32,60,62,-76,14,119,130,239,52,-47,-88
-92,-42,50,67,-71,4,117,135,243,57,-47,-86
-89,-37,52,63,-70,7,111,136,244,59,-48,-88
-87,-24,63,55,-75,19,107,136,244,58,-48,-91
-86,-17,69,51,-77,26,107,135,243,56,-47,-92
-86,-14,72,50,-79,29,107,136,243,53,-47,-91
-87,-9,78,48,-82,34,101,134,247,48,-52,-93
-87,-4,83,45,-85,39,92,131,252,43,-57,-96
-86,0,86,43,-86,43,85,126,255,39,-61,-102
-86,3,89,41,-87,46,82,125,257,38,-62,-106
-87,10,97,38,-92,53,81,133,259,41,-63,-107
-87,18,105,34,-96,61,82,140,262,47,-63,-106
-84,25,109,29,-96,67,81,138,267,55,-60,-108
-82,28,110,27,-96,69,81,131,272,62,-58,-111
-83,28,111,27,-97,69,85,129,275,64,-57,-113
-86,24,110,31,-98,67,91,130,277,63,-57,-116
-89,16,105,36,-97,60,95,133,279,61,-57,-121
-91,9,100,41,-95,54,96,135,282,62,-57,-125
-92,5,97,43,-94,51,97,138,289,67,-60,-126
-92,4,96,44,-94,50,97,140,296,72,-62,-126
-91,2,93,44,-92,47,95,140,301,74,-62,-125
-91,3,94,44,-92,48,92,140,306,73,-62,-126
-92,10,102,41,-97,56,89,146,312,72,-66,-125
-91,18,109,36,-100,63,87,155,316,72,-72,-125
-92,20,112,36,-102,66,83,161,318,73,-78,-128
-92,18,110,37,-101,64,82,164,321,73,-81,-130
-91,20,111,35,-101,65,83,164,328,72,-82,-130
-91,23,114,34,-102,68,86,164,335,72,-82,-130
-92,24,116,34,-104,70,89,168,340,74,-81,-137
-92,24,116,34,-104,70,91,174,345,77,-81,-145
-89,22,111,33,-100,66,95,177,354,80,-83,-146
-86,19,105,33,-95,62,101,179,365,81,-86,-145
-89,14,103,37,-96,58,108,182,373,82,-92,-149
-92,13,105,39,-98,59,111,184,379,82,-96,-155
-88,21,109,33,-98,65,109,187,386,81,-96,-161
-82,32,114,25,-98,73,102,189,394,81,-96,-164
-79,42,121,18,-100,81,96,193,403,83,-102,-164
-78,51,129,13,-103,90,92,195,413,86,-111,-164
-73,65,138,4,-105,101,90,192,420,89,-116,-170
-68,84,152,-8,-110,118,91,190,428,91,-121,-179
-67,109,176,-21,-121,142,96,192,438,93,-129,-187
-72,125,197,-26,-134,161,101,199,451,96,-135,-194
-84,118,202,-17,-143,160,103,208,464,101,-136,-201
-100,94,194,3,-147,144,102,218,476,106,-135,-208
-116,69,185,23,-150,127,101,224,487,107,-141,-215
-125,57,182,34,-153,119,101,228,496,107,-150,-223
-122,72,194,25,-158,133,104,230,503,106,-156,-233
-112,99,211,6,-161,155,106,233,511,106,-163,-243
-104,119,223,-7,-163,171,107,238,520,107,-177,-248
-101,130,231,-14,-166,180,106,243,530,107,-189,-252
-105,134,239,-14,-172,186,109,245,536,104,-192,-259
-111,135,246,-12,-178,190,111,244,540,102,-190,-267
-115,136,251,-10,-183,193,112,243,545,103,-190,-272
-116,140,256,-12,-186,198,112,243,550,106,-194,-277
-119,149,268,-15,-193,208,110,245,553,109,-199,-284
-121,160,281,-19,-201,220,107,244,555,111,-203,-291
-124,165,289,-20,-206,227,102,235,559,112,-204,-293
-125,169,294,-22,-209,231,97,224,561,112,-204,-292
-127,176,303,-24,-215,239,94,219,557,111,-202,-288
-126,184,310,-29,-218,247,92,214,551,111,-200,-283
-122,190,312,-34,-217,251,86,204,545,114,-195,-278
-117,194,311,-38,-214,252,78,191,537,116,-190,-273
-114,198,312,-42,-213,255,69,177,520,117,-187,-270
-112,203,315,-45,-213,259,59,162,499,117,-185,-268
-109,208,317,-49,-213,262,47,146,477,114,-182,-265
-107,213,320,-53,-213,266,39,132,459,112,-175,-258
-104,219,323,-57,-213,271,38,122,448,110,-164,-247
-97,227,324,-65,-210,275,39,113,439,111,-152,-235
-87,238,325,-75,-206,281,35,98,427,114,-141,-224
-78,239,317,-80,-197,278,29,83,410,116,-127,-210
-77,220,297,-71,-187,258,24,72,390,116,-106,-189
-78,192,270,-57,-174,231,19,64,371,116,-80,-163
-71,172,243,-50,-157,207,13,52,356,122,-53,-139
-59,165,224,-53,-141,194,5,40,342,130,-30,-118
-48,166,214,-59,-131,190,-6,31,324,136,-17,-103
-39,169,208,-65,-123,188,-17,24,303,140,-9,-92
-32,167,199,-67,-115,183,-27,16,286,143,-1,-85
-24,164,188,-70,-106,176,-33,9,269,145,7,-78
-14,169,183,-77,-98,176,-36,5,252,146,18,-67
-4,174,178,-85,-91,176,-38,3,235,146,28,-54
0,172,172,-86,-86,172,-40,4,219,144,34,-41
3,162,159,-82,-78,160,-42,4,205,141,38,-30
6,147,141,-76,-67,144,-45,0,192,134,43,-20
8,128,120,-68,-56,124,-47,-3,180,126,47,-10
10,106,96,-58,-43,101,-48,-5,172,121,49,1
9,88,79,-48,-35,83,-48,-4,162,113,48,8
4,79,75,-41,-35,77,-45,-3,146,96,44,5
-3,73,76,-35,-39,74,-39,-3,127,75,35,-3
-11,64,75,-26,-43,69,-31,-6,112,55,19,-11
-18,53,71,-17,-44,62,-24,-8,102,40,5,-18
-22,48,70,-13,-46,59,-22,-7,95,28,-1,-25
-23,43,66,-10,-44,54,-23,-4,88,19,-3,-33
-24,34,58,-5,-41,46,-24,-3,75,11,-8,-39
-24,24,48,0,-36,36,-24,-3,63,4,-13,-42
-21,20,41,0,-31,30,-22,-4,59,-1,-15,-41
-19,19,38,0,-28,28,-19,-4,58,-8,-14,-39
-20,15,35,2,-27,25,-14,-4,52,-15,-11,-39
-23,9,32,7,-27,20,-9,-4,43,-23,-13,-42
-24,5,29,9,-26,17,-8,-3,37,-31,-23,-47
-24,0,24,12,-24,12,-8,-3,34,-38,-37,-52
-24,-6,18,15,-21,6,-9,-4,31,-43,-48,-54
-24,-13,11,18,-17,-1,-8,-4,29,-47,-52,-53
-22,-15,7,18,-14,-4,-9,0,27,-49,-52,-51
-19,-14,5,16,-12,-4,-9,3,24,-52,-52,-52
-16,-11,5,13,-10,-3,-7,4,19,-57,-59,-56
-14,-9,5,11,-9,-2,-4,4,14,-62,-67,-62
-13,-9,4,11,-8,-2,-1,4,13,-63,-68,-67
-13,-9,4,11,-8,-2,0,4,14,-62,-67,-72
-13,-6,7,9,-10,0,0,2,12,-64,-71,-79
-13,-4,9,8,-11,2,0,0,9,-67,-77,-86
-15,-3,12,9,-13,4,0,0,8,-70,-80,-89
-18,-4,14,11,-16,5,3,3,8,-72,-81,-91
-23,-3,20,13,-21,8,8,6,9,-74,-82,-96
-28,-3,25,15,-26,11,13,8,9,-77,-86,-101
-29,-8,21,18,-25,6,17,9,8,-82,-94,-103
-28,-17,11,22,-19,-3,18,9,8,-86,-105,-102
-30,-28,2,29,-16,-13,18,8,9,-89,-115,-101
-33,-33,0,33,-16,-16,18,8,9,-91,-121,-101
-36,-30,6,33,-21,-12,21,11,7,-96,-122,-102
-38,-20,18,29,-28,-1,23,13,4,-101,-121,-106
-39,-9,30,24,-34,10,22,14,1,-105,-125,-114
-39,-3,36,21,-37,16,19,14,0,-106,-130,-121
-37,-8,29,22,-33,10,18,14,0,-107,-132,-121
-34,-18,16,26,-25,-1,19,14,0,-106,-131,-117
-30,-24,6,27,-18,-9,18,13,0,-107,-128,-113
-28,-28,0,28,-14,-14,18,13,3,-107,-126,-111
-30,-31,-1,30,-14,-16,24,17,8,-105,-125,-114
-33,-33,0,33,-16,-16,33,23,13,-102,-125,-116
-34,-36,-2,35,-16,-19,40,27,16,-98,-128,-116
-34,-38,-4,36,-15,-21,43,28,18,-96,-130,-116
-33,-39,-6,36,-13,-22,39,29,19,-98,-130,-121
-33,-39,-6,36,-13,-22,30,29,19,-101,-130,-129
-36,-36,0,36,-18,-18,20,28,16,-102,-133,-139
-38,-34,4,36,-21,-15,14,28,14,-102,-135,-145
-39,-33,6,36,-22,-13,16,29,15,-102,-135,-144
-39,-33,6,36,-22,-13,23,29,18,-102,-131,-136
-36,-36,0,36,-18,-18,29,28,20,-100,-126,-129
-34,-38,-4,36,-15,-21,33,28,23,-97,-122,-122
-33,-40,-7,36,-13,-23,34,29,29,-94,-119,-118
-33,-42,-9,37,-12,-25,34,29,33,-92,-117,-117
-34,-48,-14,41,-10,-31,32,27,30,-91,-116,-116
-34,-52,-18,43,-8,-35,29,24,24,-91,-116,-116
-33,-50,-17,41,-8,-33,24,19,22,-92,-117,-116
-33,-43,-10,38,-11,-26,19,14,23,-92,-117,-116
-34,-35,-1,34,-16,-18,15,10,23,-90,-115,-117
-34,-29,5,31,-19,-12,14,8,23,-87,-112,-117
-32,-27,5,29,-18,-11,13,10,26,-84,-109,-113
-29,-28,1,28,-15,-13,14,13,28,-82,-107,-107
-26,-28,-2,27,-12,-15,13,17,29,-80,-103,-102
-24,-28,-4,26,-10,-16,13,19,29,-78,-97,-97
-21,-30,-9,25,-6,-19,16,17,28,-76,-89,-91
-19,-33,-14,26,-2,-23,18,14,28,-73,-82,-87
-20,-34,-14,27,-3,-24,17,13,30,-69,-80,-85
-23,-34,-11,28,-6,-22,14,14,29,-67,-81,-86
-26,-31,-5,28,-10,-18,13,12,23,-71,-85,-88
-28,-29,-1,28,-13,-15,14,9,14,-77,-91,-91
-30,-27,3,28,-16,-12,11,6,8,-83,-98,-94
-29,-28,1,28,-15,-13,9,4,4,-86,-102,-96
-25,-33,-8,29,-8,-20,8,3,3,-86,-95,-95
-19,-38,-19,28,0,-28,9,3,3,-82,-79,-92
-13,-41,-28,27,7,-34,7,6,4,-77,-63,-89
-9,-39,-30,24,10,-34,4,8,4,-73,-53,-87
-8,-30,-22,19,7,-26,3,7,3,-71,-55,-86
-8,-15,-7,11,0,-11,3,4,0,-72,-66,-86
-8,0,8,4,-8,4,4,1,-4,-75,-78,-89
-8,8,16,0,-12,12,4,0,-8,-77,-86,-91
-12,1,13,5,-12,7,2,0,-9,-78,-85,-90
-18,-16,2,17,-10,-7,0,0,-9,-78,-78,-87
-25,-35,-10,30,-7,-22,0,0,-8,-77,-72,-86
-28,-47,-19,37,-4,-33,0,0,-8,-77,-68,-87
-26,-46,-20,36,-3,-33,0,0,-9,-78,-67,-85
-19,-39,-20,29,0,-29,0,0,-9,-78,-67,-82
-13,-33,-20,23,3,-26,0,0,-8,-77,-68,-79
-9,-29,-20,19,5,-24,0,0,-8,-77,-67,-78
-8,-24,-16,16,4,-20,0,-1,-9,-78,-68,-78
-8,-19,-11,13,1,-15,0,-3,-9,-78,-68,-78
-9,-15,-6,12,-1,-10,0,-3,-6,-75,-65,-75
-8,-14,-6,11,-1,-10,0,-3,-4,-73,-63,-73
-9,-13,-4,11,-2,-8,0,-6,-3,-72,-62,-72
-9,-9,0,9,-4,-4,0,-8,-3,-72,-63,-73
-5,0,5,2,-5,2,-1,-9,-4,-73,-62,-71
0,12,12,-6,-6,12,-3,-9,-4,-73,-58,-68
3,21,18,-12,-7,19,-4,-8,-2,-69,-52,-66
4,28,24,-16,-10,26,-4,-8,0,-63,-48,-67
2,35,33,-18,-15,34,-3,-10,3,-60,-49,-70
3,46,43,-24,-20,44,0,-13,8,-58,-52,-72
10,63,53,-36,-21,58,4,-15,13,-55,-51,-72
22,84,62,-53,-20,73,12,-14,18,-53,-48,-68
34,102,68,-68,-17,85,22,-8,23,-51,-45,-64
42,111,69,-76,-13,90,32,0,28,-48,-43,-58
45,105,60,-75,-7,82,43,5,33,-42,-39,-52
47,93,46,-70,0,69,48,8,38,-34,-34,-44
52,86,34,-69,9,60,41,9,41,-28,-30,-34
57,90,33,-73,12,61,26,9,43,-24,-29,-29
58,105,47,-81,5,76,4,7,41,-24,-30,-32
54,123,69,-88,-7,96,-24,1,39,-28,-33,-41
44,139,95,-91,-25,117,-63,-10,36,-33,-37,-49
38,153,115,-95,-38,134,-102,-22,34,-34,-39,-53
48,173,125,-110,-38,149,-132,-28,33,-27,-35,-49
65,192,127,-128,-31,159,-157,-33,34,-19,-29,-43
79,205,126,-142,-23,165,-184,-42,32,-17,-28,-41
86,213,127,-149,-20,170,-211,-52,29,-18,-28,-42
90,220,130,-155,-20,175,-232,-57,26,-18,-28,-43
91,224,133,-157,-21,178,-250,-62,20,-18,-28,-43
92,219,127,-155,-17,173,-269,-72,6,-23,-33,-43
92,210,118,-151,-13,164,-282,-85,-11,-32,-38,-43
89,200,111,-144,-11,155,-281,-97,-27,-41,-39,-41
87,191,104,-139,-8,147,-269,-106,-38,-47,-39,-39
86,180,94,-133,-4,137,-256,-110,-42,-48,-39,-37
87,170,83,-128,2,126,-245,-111,-43,-48,-39,-34
85,166,81,-125,2,123,-239,-111,-43,-49,-34,-30
86,165,79,-125,3,122,-238,-111,-43,-52,-29,-24
95,161,66,-128,14,113,-239,-112,-42,-56,-27,-17
110,156,46,-133,32,101,-239,-112,-42,-58,-24,-9
124,154,30,-139,47,92,-235,-107,-45,-54,-17,-6
139,155,16,-147,61,85,-229,-102,-47,-48,-9,-4
153,157,4,-155,74,80,-224,-99,-48,-46,-5,-1
164,148,-16,-156,90,66,-215,-97,-47,-47,-4,3
165,118,-47,-141,106,35,-199,-92,-49,-48,-3,9
161,77,-84,-119,122,-3,-181,-87,-52,-48,-3,17
157,45,-112,-101,134,-33,-171,-84,-55,-47,-5,26
156,29,-127,-92,141,-49,-165,-82,-57,-47,-4,33
156,33,-123,-94,139,-45,-160,-76,-57,-48,1,34
156,50,-106,-103,131,-28,-156,-68,-53,-48,8,29
152,70,-82,-111,117,-6,-153,-62,-46,-45,10,22
150,85,-65,-117,107,10,-151,-54,-35,-40,13,18
158,89,-69,-123,113,10,-148,-41,-23,-29,21,25
161,83,-78,-122,119,2,-138,-25,-10,-19,28,37
145,71,-74,-108,109,-1,-113,-11,3,-15,27,43
115,59,-56,-87,85,1,-81,-1,13,-18,16,36
87,50,-37,-68,62,6,-55,4,13,-26,-2,13
65,43,-22,-54,43,10,-40,1,5,-37,-21,-15
49,37,-12,-43,30,12,-35,-14,-4,-46,-36,-37
35,30,-5,-32,20,12,-34,-36,-17,-56,-46,-51
21,20,-1,-20,11,9,-29,-54,-31,-70,-54,-61
6,10,4,-8,1,7,-20,-66,-46,-85,-61,-71
-10,0,10,5,-10,5,-9,-74,-56,-95,-72,-83
-22,-11,11,16,-16,0,0,-78,-62,-101,-81,-95
-28,-29,-1,28,-13,-15,1,-75,-64,-103,-83,-104
-28,-46,-18,37,-5,-32,0,-68,-63,-102,-81,-111
-29,-56,-27,42,-1,-41,0,-62,-62,-100,-84,-117
-29,-58,-29,43,0,-43,0,-58,-62,-101,-91,-121
-27,-52,-25,39,-1,-38,0,-58,-65,-106,-98,-122
-24,-40,-16,32,-4,-28,-3,-62,-71,-115,-106,-121
-22,-25,-3,23,-9,-14,-10,-67,-81,-124,-112,-123
-19,-14,5,16,-12,-4,-18,-72,-91,-130,-116,-125
-14,-14,0,14,-7,-7,-20,-77,-94,-129,-115,-126
-9,-22,-13,15,2,-17,-19,-81,-92,-123,-108,-126
-7,-31,-24,19,8,-27,-19,-83,-87,-114,-97,-126
-8,-38,-30,23,11,-34,-19,-82,-82,-107,-87,-126
-13,-42,-29,27,8,-35,-16,-76,-79,-103,-85,-124
-22,-47,-25,34,1,-36,-14,-68,-78,-102,-86,-122
-32,-53,-21,42,-5,-37,-13,-66,-77,-101,-87,-121
-38,-57,-19,47,-9,-38,-13,-67,-77,-101,-86,-121
-36,-55,-19,45,-8,-37,-14,-70,-78,-103,-88,-123
-29,-44,-15,36,-7,-29,-13,-72,-78,-106,-91,-125
-25,-29,-4,27,-10,-16,-14,-73,-77,-110,-97,-129
-24,-15,9,19,-16,-3,-14,-72,-77,-116,-105,-135
-24,-9,15,16,-19,3,-11,-74,-78,-122,-116,-141
-28,-4,24,16,-26,10,-5,-73,-78,-133,-133,-153
-36,5,41,15,-38,23,5,-67,-74,-152,-157,-174
-46,21,67,12,-56,44,13,-62,-72,-172,-182,-200
-55,38,93,8,-74,65,11,-70,-77,-184,-197,-223
-62,63,125,0,-93,94,4,-88,-85,-181,-203,-241
-68,103,171,-17,-119,137,0,-114,-92,-160,-204,-254
-72,146,218,-37,-145,182,-7,-142,-100,-126,-197,-258
-72,175,247,-51,-159,211,-26,-167,-118,-90,-173,-250
-65,199,264,-67,-164,231,-58,-198,-150,-49,-129,-228
-45,235,280,-95,-162,257,-96,-246,-199,2,-61,-189
-18,284,302,-133,-160,293,-143,-315,-259,63,28,-131
11,342,331,-176,-160,336,-198,-399,-321,133,140,-52
47,394,347,-220,-150,370,-255,-481,-374,219,279,51
94,423,329,-258,-117,376,-306,-543,-405,333,456,182
155,440,285,-297,-65,362,-358,-588,-414,478,665,341
227,464,237,-345,-5,350,-417,-630,-403,655,893,524
298,462,164,-380,67,313,-467,-652,-360,838,1098,696
352,395,43,-373,154,219,-489,-638,-277,997,1235,821
401,269,-132,-335,266,68,-485,-608,-197,1133,1329,925
461,106,-355,-283,408,-124,-466,-593,-175,1255,1423,1050
530,-67,-597,-231,563,-332,-453,-598,-225,1354,1519,1190
599,-234,-833,-182,716,-533,-460,-613,-340,1414,1603,1321
652,-392,-1044,-130,848,-718,-468,-613,-460,1423,1666,1430
676,-545,-1221,-65,948,-883,-452,-573,-527,1358,1691,1507
674,-695,-1369,10,1021,-1032,-422,-526,-627,1126,1625,1529
658,-843,-1501,92,1079,-1172,-400,-514,-874,636,1416,1477
629,-977,-1606,174,1117,-1291,-378,-528,-1213,-26,1099,1365
585,-1083,-1668,249,1126,-1375,-345,-542,-1539,-718,734,1214
522,-1153,-1675,315,1098,-1414,-299,-550,-1792,-1329,341,1014
440,-1187,-1627,373,1033,-1407,-247,-553,-1936,-1774,-69,751
356,-1191,-1547,417,951,-1369,-204,-547,-1969,-2032,-434,482
295,-1175,-1470,440,882,-1322,-181,-528,-1906,-2112,-681,278
257,-1161,-1418,452,837,-1289,-164,-486,-1773,-2055,-805,141
233,-1166,-1399,466,816,-1282,-136,-415,-1602,-1911,-827,46
216,-1152,-1368,468,792,-1260,-113,-343,-1424,-1733,-795,-24
195,-1074,-1269,439,732,-1171,-116,-305,-1264,-1565,-759,-87
158,-950,-1108,396,633,-1029,-130,-289,-1107,-1400,-730,-158
98,-823,-921,362,509,-872,-126,-271,-928,-1219,-705,-246
36,-704,-740,334,388,-722,-101,-247,-746,-1027,-666,-319
-1,-594,-593,297,296,-593,-64,-220,-590,-843,-593,-337
-17,-500,-483,258,233,-491,-24,-193,-464,-683,-504,-320
-25,-424,-399,224,187,-411,6,-169,-363,-557,-424,-301
-28,-360,-332,194,152,-346,26,-145,-283,-460,-359,-285
-28,-296,-268,162,120,-282,38,-114,-215,-379,-305,-264
-28,-236,-208,132,90,-222,46,-78,-150,-311,-263,-241
-32,-189,-157,110,62,-173,56,-40,-80,-253,-232,-225
-38,-155,-117,96,39,-136,66,-4,-16,-202,-207,-215
-41,-129,-88,85,23,-108,73,24,25,-154,-179,-208
-42,-109,-67,75,12,-88,77,41,46,-116,-153,-204
-43,-92,-49,67,3,-70,80,43,52,-93,-139,-202
-43,-75,-32,59,-5,-53,81,35,52,-83,-131,-203
-42,-57,-15,49,-13,-36,82,28,55,-76,-124,-206
-42,-41,1,41,-21,-20,82,32,65,-69,-117,-208
-42,-29,13,35,-27,-8,82,50,85,-59,-113,-209
-42,-24,18,33,-30,-3,82,70,104,-49,-111,-209
-43,-23,20,33,-31,-1,81,77,112,-43,-113,-209
-43,-23,20,33,-31,-1,81,73,112,-39,-112,-209
-42,-23,19,32,-30,-2,83,68,111,-34,-106,-207
-42,-19,23,30,-32,2,86,63,112,-29,-97,-204
-44,-13,31,28,-37,9,87,59,111,-26,-93,-202
-47,-9,38,28,-42,14,87,57,111,-24,-92,-200
-51,-10,41,30,-46,15,84,61,116,-21,-89,-197
-52,-13,39,32,-45,13,82,67,124,-19,-87,-195
-51,-14,37,32,-44,11,80,69,130,-18,-86,-194
-48,-14,34,31,-41,10,81,68,131,-18,-86,-194
-46,-12,34,29,-40,11,84,65,125,-21,-88,-195
-47,-9,38,28,-42,14,86,63,117,-23,-91,-195
-50,-3,47,26,-48,22,86,62,115,-24,-96,-194
-52,3,55,24,-53,29,86,62,116,-24,-101,-194
-53,6,59,23,-56,32,90,64,119,-24,-105,-195
-53,4,57,24,-55,30,96,67,121,-24,-106,-195
-53,0,53,26,-53,26,99,72,124,-22,-107,-194
-53,-3,50,28,-51,23,97,77,125,-19,-107,-194
-51,-1,50,26,-50,24,92,79,126,-18,-107,-197
-48,3,51,22,-49,27,87,78,126,-18,-107,-199
-47,5,52,21,-49,28,86,76,125,-21,-106,-200
-47,4,51,21,-49,27,87,73,125,-23,-106,-200
-49,3,52,23,-50,27,85,70,129,-24,-110,-199
-52,4,56,24,-54,30,82,68,135,-24,-116,-199
-55,3,58,26,-56,30,81,66,138,-21,-119,-201
-57,3,60,27,-58,31,81,67,140,-19,-121,-203
-58,6,64,26,-61,35,82,74,142,-18,-122,-203
-58,8,66,25,-62,37,82,81,145,-18,-122,-203
-55,8,63,23,-59,35,81,79,150,-18,-119,-206
-53,8,61,22,-57,34,81,73,155,-18,-117,-208
-52,12,64,20,-58,38,84,71,159,-20,-116,-209
-52,18,70,17,-61,44,86,72,160,-23,-116,-208
-53,22,75,15,-64,48,87,74,160,-25,-116,-210
-53,23,76,15,-64,49,87,77,160,-24,-116,-213
-52,24,76,14,-64,50,87,80,163,-19,-119,-214
-52,24,76,14,-64,50,87,81,169,-14,-121,-213
-53,22,75,15,-64,48,84,81,174,-12,-122,-215
-53,23,76,15,-64,49,82,81,179,-13,-121,-218
-52,30,82,11,-67,56,81,85,184,-14,-123,-221
-52,38,90,7,-71,64,81,91,189,-14,-125,-223
-54,38,92,8,-73,65,81,95,191,-14,-128,-226
-57,34,91,11,-74,62,81,96,194,-14,-130,-228
-60,33,93,13,-76,63,83,96,200,-12,-131,-228
-62,33,95,14,-78,64,86,96,208,-9,-131,-228
-63,33,96,15,-79,64,89,100,211,-5,-130,-235
-63,33,96,15,-79,64,91,106,213,0,-130,-243
-61,35,96,13,-78,65,92,109,219,2,-132,-245
-62,38,100,12,-81,69,92,111,227,3,-135,-244
-67,40,107,13,-87,73,92,115,235,5,-140,-244
-72,42,114,15,-93,78,92,121,242,8,-145,-247
-73,46,119,13,-96,82,91,126,249,11,-145,-250
-73,51,124,11,-98,87,91,130,256,13,-145,-252
-73,59,132,7,-102,95,93,133,266,15,-151,-252
-73,66,139,3,-106,102,96,135,276,18,-160,-252
-69,72,141,-1,-105,106,98,137,284,21,-162,-256
-67,77,144,-5,-105,110,101,140,290,23,-161,-261
-72,81,153,-4,-112,117,106,147,299,22,-161,-268
-80,86,166,-3,-123,126,111,154,310,19,-164,-276
-85,91,176,-3,-130,133,112,159,320,18,-167,-286
-86,96,182,-5,-134,139,112,160,329,18,-173,-295
-88,100,188,-6,-138,144,112,161,339,19,-185,-303
-91,105,196,-7,-143,150,116,160,349,19,-198,-310
-94,115,209,-10,-151,162,121,161,357,18,-205,-320
-96,124,220,-14,-158,172,125,164,364,18,-212,-329
-98,128,226,-15,-162,177,126,169,374,19,-227,-335
-101,130,231,-14,-166,180,125,174,383,19,-245,-340
-105,136,241,-15,-173,188,127,176,390,15,-256,-347
-111,144,255,-16,-183,199,130,175,394,9,-262,-354
-116,152,268,-18,-192,210,133,174,398,4,-267,-360
-121,159,280,-19,-200,219,135,174,400,0,-272,-365
-124,169,293,-22,-208,231,135,176,398,-1,-277,-371
-125,178,303,-26,-214,240,131,175,395,-3,-282,-379
-126,184,310,-29,-218,247,125,167,395,-5,-286,-383
-125,189,314,-32,-219,251,117,157,395,-8,-291,-385
-126,195,321,-34,-223,258,114,151,392,-11,-295,-383
-126,202,328,-38,-227,265,112,147,386,-13,-297,-380
-122,208,330,-43,-226,269,109,138,379,-12,-293,-376
-117,213,330,-48,-223,271,107,127,371,-9,-287,-370
-114,217,331,-51,-222,274,106,121,360,-6,-283,-365
-112,223,335,-55,-223,279,103,117,348,-4,-278,-361
-109,228,337,-59,-223,282,92,113,335,-3,-272,-358
-107,233,340,-63,-223,286,79,107,323,-3,-264,-352
-105,234,339,-64,-222,286,72,102,313,-4,-253,-340
-102,234,336,-66,-219,285,68,93,303,-4,-241,-324
-95,233,328,-69,-211,280,64,80,291,-1,-228,-307
-87,230,317,-71,-202,273,58,65,276,0,-216,-289
-86,218,304,-66,-195,261,53,54,256,0,-201,-272
-87,205,292,-59,-189,248,48,44,236,0,-183,-255
-80,201,281,-60,-180,241,43,32,222,6,-163,-239
-69,203,272,-67,-170,237,35,20,211,17,-144,-222
-60,205,265,-72,-162,235,25,11,197,26,-126,-201
-53,201,254,-74,-153,227,15,5,182,33,-109,-178
-49,190,239,-70,-144,214,6,-1,167,37,-92,-157
-44,176,220,-66,-132,198,0,-8,153,38,-75,-139
-35,168,203,-66,-119,185,-2,-12,138,39,-59,-121
-25,162,187,-68,-106,174,-3,-13,124,38,-45,-104
-16,152,168,-68,-92,160,-5,-13,112,39,-32,-90
-10,142,152,-66,-81,147,-8,-13,103,39,-20,-79
-4,135,139,-65,-71,137,-13,-17,93,35,-9,-73
0,127,127,-63,-63,127,-18,-23,83,29,0,-69
0,114,114,-57,-57,114,-20,-27,74,25,1,-60
0,99,99,-49,-49,99,-19,-28,64,20,0,-49
0,89,89,-44,-44,89,-17,-29,52,12,0,-42
0,83,83,-41,-41,83,-14,-28,40,5,0,-39
0,73,73,-36,-36,73,-11,-29,31,-1,-4,-38
0,64,64,-32,-32,64,-9,-29,25,-7,-12,-38
-1,58,59,-28,-30,58,-10,-27,18,-17,-19,-41
-3,54,57,-25,-30,55,-13,-24,10,-27,-23,-42
-4,45,49,-20,-26,47,-14,-23,-1,-34,-26,-41
-4,35,39,-15,-21,37,-14,-23,-12,-38,-28,-39
-3,31,34,-14,-18,32,-12,-24,-17,-42,-31,-37
-3,29,32,-13,-17,30,-9,-24,-18,-47,-33,-38
-6,24,30,-9,-18,27,-4,-24,-21,-52,-35,-42
-8,19,27,-5,-17,23,0,-24,-23,-57,-38,-47
-7,18,25,-5,-16,21,0,-23,-24,-62,-42,-50
-4,18,22,-7,-13,20,0,-23,-23,-67,-47,-52
-3,18,21,-7,-12,19,0,-26,-25,-72,-51,-53
-3,14,17,-5,-10,15,0,-28,-28,-77,-53,-53
-5,8,13,-1,-9,10,0,-27,-29,-79,-52,-52
-8,1,9,3,-8,5,0,-24,-28,-81,-52,-52
-11,-4,7,7,-9,1,1,-23,-30,-84,-58,-56
-13,-8,5,10,-9,-1,3,-23,-33,-86,-66,-62
-14,-10,4,12,-9,-3,6,-24,-34,-86,-70,-65
-14,-9,5,11,-9,-2,8,-23,-33,-86,-72,-67
-14,-5,9,9,-11,2,11,-24,-35,-90,-78,-72
-14,0,14,7,-14,7,13,-24,-38,-96,-85,-77
-13,2,15,5,-14,8,16,-22,-39,-100,-90,-79
-13,3,16,5,-14,9,18,-19,-39,-101,-91,-81
-16,4,20,6,-18,12,20,-16,-38,-102,-93,-86
-18,4,22,7,-20,13,23,-14,-38,-102,-96,-91
-19,3,22,8,-20,12,27,-11,-39,-102,-100,-93
-18,3,21,7,-19,12,29,-9,-38,-102,-106,-92
-20,4,24,8,-22,14,25,-9,-39,-101,-110,-90
-23,4,27,9,-25,15,19,-9,-39,-101,-111,-87
-26,3,29,11,-27,16,17,-7,-38,-105,-111,-85
-28,3,31,12,-29,17,18,-4,-38,-110,-111,-86
-29,4,33,12,-31,18,19,-3,-40,-116,-115,-93
-29,4,33,12,-31,18,19,-3,-42,-121,-121,-101
-29,2,31,13,-30,16,18,-4,-45,-124,-124,-103
-29,0,29,14,-29,14,18,-3,-47,-125,-125,-102
-28,0,28,14,-28,14,20,-4,-46,-126,-126,-101
-28,3,31,12,-29,17,23,-4,-43,-126,-126,-101
-31,6,37,12,-34,21,28,-2,-40,-126,-125,-104
-33,8,41,12,-37,24,33,0,-39,-126,-125,-106
-33,9,42,12,-37,25,34,0,-38,-125,-128,-107
-29,9,38,10,-33,23,34,0,-39,-125,-130,-106
-25,8,33,8,-29,20,34,0,-38,-128,-131,-108
-23,8,31,7,-27,19,34,0,-38,-130,-130,-111
-25,9,34,8,-29,21,32,0,-40,-131,-132,-116
-28,9,37,9,-32,23,29,0,-42,-130,-135,-121
-30,8,38,11,-34,23,26,0,-43,-132,-136,-124
-29,8,37,10,-33,22,24,0,-42,-135,-136,-126
-26,9,35,8,-30,22,23,0,-43,-137,-134,-124
-24,9,33,7,-28,21,23,0,-43,-136,-131,-122
-23,8,31,7,-27,19,24,1,-38,-133,-128,-120
-23,4,27,9,-25,15,24,3,-34,-131,-126,-117
-25,-1,24,13,-24,11,22,5,-36,-130,-125,-113
-28,-7,21,17,-24,7,19,4,-42,-130,-125,-108
-31,-12,19,21,-25,3,16,1,-44,-131,-126,-101
-33,-14,19,23,-26,2,14,-3,-43,-131,-126,-97
-35,-12,23,23,-29,5,13,-6,-42,-128,-124,-97
-34,-9,25,21,-29,8,13,-8,-42,-126,-122,-97
-30,-8,22,19,-26,7,14,-8,-45,-126,-120,-93
-24,-8,16,16,-20,4,14,-8,-47,-126,-117,-87
-20,-9,11,14,-15,1,12,-10,-48,-123,-112,-87
-19,-9,10,14,-14,0,9,-13,-47,-118,-103,-91
-18,-8,10,13,-14,1,6,-16,-49,-111,-94,-95
-18,-8,10,13,-14,1,4,-18,-52,-107,-87,-97
-19,-8,11,13,-15,1,3,-19,-53,-107,-87,-94
-19,-8,11,13,-15,1,3,-19,-52,-111,-91,-88
-19,-9,10,14,-14,0,6,-18,-54,-114,-94,-82
-19,-9,10,14,-14,0,9,-18,-57,-116,-96,-78
-18,-8,10,13,-14,1,6,-19,-61,-117,-97,-77
-18,-8,10,13,-14,1,1,-19,-66,-117,-96,-77
-19,-10,9,14,-14,0,-4,-18,-73,-117,-97,-78
-19,-9,10,14,-14,0,-8,-18,-78,-117,-97,-77
-15,-2,13,8,-14,5,-9,-19,-73,-115,-93,-78
-9,7,16,1,-12,11,-9,-18,-64,-112,-88,-78
-6,12,18,-3,-12,15,-8,-19,-58,-107,-82,-75
-4,13,17,-4,-10,15,-9,-19,-53,-102,-78,-73
-2,15,17,-6,-9,16,-8,-18,-48,-99,-75,-72
0,18,18,-9,-9,18,-8,-18,-43,-97,-73,-73
3,23,20,-13,-8,21,-10,-19,-42,-95,-72,-71
8,32,24,-20,-8,28,-13,-19,-42,-92,-69,-68
11,42,31,-26,-10,36,-14,-18,-42,-86,-61,-63
13,55,42,-34,-14,48,-14,-18,-39,-79,-53,-58
14,69,55,-41,-20,62,-12,-20,-35,-73,-51,-55
14,84,70,-49,-28,77,-9,-23,-29,-68,-52,-53
13,96,83,-54,-35,89,-4,-25,-24,-65,-51,-51
13,105,92,-59,-39,98,2,-24,-19,-63,-48,-48
14,110,96,-62,-41,103,10,-19,-15,-62,-46,-44
14,112,98,-63,-42,105,21,-10,-10,-59,-43,-39
12,110,98,-61,-43,104,35,-2,-3,-51,-39,-36
9,111,102,-60,-46,106,47,3,2,-40,-34,-34
7,117,110,-62,-51,113,46,6,9,-31,-32,-32
8,128,120,-68,-56,124,36,8,13,-25,-29,-29
13,140,127,-76,-57,133,21,10,14,-19,-23,-27
18,149,131,-83,-56,140,0,9,14,-14,-15,-24
18,155,137,-86,-59,146,-28,4,13,-10,-7,-20
18,162,144,-90,-63,153,-62,-2,13,-5,-1,-15
24,178,154,-101,-65,166,-90,-7,14,1,4,-9
32,197,165,-114,-66,181,-116,-12,14,8,8,-4
37,207,170,-122,-66,188,-144,-22,11,10,9,-3
38,212,174,-125,-68,193,-170,-32,8,9,9,-3
40,219,179,-129,-69,199,-189,-37,11,7,9,-4
42,223,181,-132,-69,202,-201,-41,14,5,9,-4
43,220,177,-131,-67,198,-213,-51,10,-2,5,-3
43,210,167,-126,-62,188,-222,-65,-1,-12,0,-4
41,201,160,-121,-59,180,-226,-77,-18,-21,-1,-3
39,191,152,-115,-56,171,-224,-85,-36,-28,-3,-3
39,180,141,-109,-51,160,-220,-90,-47,-30,-6,-4
39,171,132,-105,-46,151,-214,-92,-52,-29,-9,-4
37,167,130,-102,-46,148,-210,-90,-53,-27,-6,-2
37,165,128,-101,-45,146,-209,-87,-53,-24,0,2
47,161,114,-104,-33,137,-209,-85,-52,-22,1,10
60,156,96,-108,-18,126,-209,-82,-52,-19,3,17
70,154,84,-112,-7,119,-206,-78,-53,-16,9,21
76,155,79,-115,-1,117,-200,-73,-53,-14,17,23
82,157,75,-119,3,116,-195,-71,-51,-15,22,27
86,149,63,-117,11,106,-187,-68,-48,-18,23,33
89,122,33,-105,28,77,-171,-62,-47,-19,24,37
91,87,-4,-89,47,41,-153,-54,-47,-19,24,38
93,62,-31,-77,62,15,-142,-48,-48,-19,22,39
96,49,-47,-72,71,1,-136,-44,-48,-19,23,41
101,43,-58,-72,79,-7,-131,-37,-47,-17,30,51
106,39,-67,-72,86,-14,-126,-30,-44,-14,41,65
108,36,-72,-72,90,-18,-123,-23,-36,-9,47,77
111,37,-74,-74,92,-18,-122,-15,-26,-1,51,85
116,46,-70,-81,93,-12,-120,-3,-15,8,59,91
114,56,-58,-85,86,-1,-110,11,-2,17,67,92
92,61,-31,-76,61,15,-85,25,11,22,66,88
59,58,-1,-58,30,28,-53,37,22,20,56,76
29,52,23,-40,3,37,-28,43,23,12,37,55
7,44,37,-25,-15,40,-15,41,15,1,17,32
-8,37,45,-14,-26,41,-12,25,5,-6,2,16
-21,30,51,-4,-36,40,-13,3,-6,-16,-7,5
-34,21,55,6,-44,38,-13,-12,-22,-31,-16,-2
-49,11,60,19,-54,35,-9,-22,-39,-49,-26,-11
-66,0,66,33,-66,33,-5,-28,-54,-63,-40,-24
-80,-11,69,45,-74,29,0,-29,-62,-72,-51,-37
-86,-25,61,55,-73,18,3,-26,-62,-74,-54,-42
-87,-37,50,62,-68,6,8,-20,-58,-73,-52,-43
-86,-41,45,63,-65,2,13,-14,-55,-72,-56,-42
-87,-39,48,63,-67,4,18,-9,-53,-72,-62,-43
-86,-37,49,61,-67,6,22,-7,-51,-75,-64,-42
-86,-34,52,60,-69,9,24,-8,-52,-80,-63,-42
-87,-30,57,58,-72,13,22,-10,-56,-86,-60,-45
-87,-24,63,55,-75,19,19,-13,-62,-91,-58,-47
-84,-21,63,52,-73,21,18,-17,-64,-93,-58,-46
-82,-19,63,50,-72,22,18,-23,-63,-92,-58,-43
-83,-18,65,50,-74,23,18,-26,-59,-90,-54,-41
-86,-18,68,52,-77,25,18,-24,-53,-87,-48,-39
-87,-19,68,53,-77,24,20,-18,-50,-84,-46,-36
-87,-19,68,53,-77,24,23,-10,-48,-82,-47,-34
-86,-18,68,52,-77,25,24,-6,-47,-81,-48,-33
-86,-18,68,52,-77,25,24,-8,-47,-81,-48,-33
-88,-21,67,54,-77,23,23,-11,-48,-81,-47,-35
-91,-24,67,57,-79,21,24,-13,-48,-81,-47,-38
-95,-21,74,58,-84,26,23,-14,-47,-82,-49,-42
-101,-15,86,58,-93,35,23,-13,-47,-86,-56,-46
-105,-10,95,57,-100,42,25,-15,-50,-92,-68,-53
-110,-5,105,57,-107,50,32,-14,-52,-103,-87,-64
-120,4,124,58,-122,64,43,-8,-51,-121,-113,-85
-133,20,153,56,-143,86,52,-3,-51,-142,-140,-111
-143,42,185,50,-164,113,48,-13,-62,-159,-162,-136
-149,73,222,38,-185,147,36,-37,-78,-165,-177,-157
-155,119,274,18,-214,196,25,-67,-93,-153,-186,-172
-160,170,330,-5,-245,250,12,-100,-108,-127,-186,-179
-164,216,380,-26,-272,298,-9,-135,-130,-98,-172,-178
-162,262,424,-50,-293,343,-40,-179,-165,-65,-140,-165
-149,319,468,-85,-308,393,-80,-241,-219,-22,-84,-135
-127,385,512,-129,-319,448,-129,-318,-283,31,-5,-85
-98,454,552,-178,-325,503,-188,-404,-345,93,99,-12
-61,516,577,-227,-319,546,-250,-486,-399,168,232,84
-14,560,574,-273,-294,567,-310,-553,-440,261,396,204
44,586,542,-315,-249,564,-364,-598,-448,397,601,358
115,594,479,-354,-182,536,-410,-620,-401,602,849,555
186,564,378,-375,-96,471,-436,-611,-299,837,1090,758
244,470,226,-357,9,348,-435,-565,-157,1043,1261,915
292,321,29,-306,131,175,-411,-506,-23,1223,1385,1041
343,142,-201,-242,272,-29,-377,-470,40,1400,1516,1179
397,-44,-441,-176,419,-242,-349,-458,29,1568,1659,1326
450,-223,-673,-113,561,-448,-339,-457,-38,1706,1794,1465
494,-397,-891,-48,692,-644,-333,-441,-124,1778,1900,1587
524,-580,-1104,28,814,-842,-312,-388,-198,1738,1952,1686
539,-773,-1312,117,925,-1042,-279,-322,-320,1518,1908,1739
539,-970,-1509,215,1024,-1239,-250,-287,-578,1053,1729,1721
522,-1142,-1664,310,1093,-1403,-224,-284,-933,400,1432,1634
485,-1253,-1738,384,1111,-1495,-194,-300,-1295,-328,1060,1492
428,-1309,-1737,440,1082,-1523,-155,-319,-1598,-1009,644,1293
352,-1333,-1685,490,1018,-1509,-108,-326,-1795,-1526,214,1033
273,-1330,-1603,528,938,-1466,-68,-329,-1875,-1846,-175,762
207,-1303,-1510,548,858,-1406,-54,-339,-1846,-1976,-461,545
158,-1272,-1430,557,794,-1351,-53,-343,-1739,-1962,-631,391
125,-1259,-1384,567,754,-1321,-44,-320,-1596,-1862,-699,283
101,-1235,-1336,567,718,-1285,-34,-284,-1441,-1719,-704,197
78,-1152,-1230,537,654,-1191,-39,-258,-1292,-1567,-693,108
44,-1023,-1067,489,555,-1045,-47,-242,-1140,-1410,-687,1
-13,-888,-875,450,431,-881,-39,-225,-970,-1239,-690,-127
-76,-761,-685,418,304,-723,-14,-207,-795,-1057,-676,-234
-115,-642,-527,378,206,-584,13,-190,-639,-871,-613,-262
-133,-536,-403,334,135,-469,38,-176,-511,-699,-520,-235
-142,-449,-307,295,82,-378,55,-169,-410,-563,-439,-208
-145,-375,-230,260,42,-302,66,-156,-328,-458,-373,-189
-144,-305,-161,224,8,-233,73,-122,-251,-369,-312,-165
-141,-241,-100,191,-20,-170,80,-73,-173,-292,-258,-140
-142,-188,-46,165,-48,-117,88,-23,-89,-226,-215,-121
-145,-148,-3,146,-71,-75,95,21,-13,-167,-181,-109
-147,-117,30,132,-88,-43,101,53,37,-114,-150,-99
-146,-91,55,118,-100,-18,106,71,64,-70,-125,-93
-143,-69,74,106,-108,2,109,72,76,-41,-111,-89
-141,-47,94,94,-117,23,111,64,81,-26,-103,-87
-140,-26,114,83,-127,44,112,59,86,-17,-94,-85
-140,-7,133,73,-136,63,112,64,98,-10,-83,-82
-141,6,147,67,-144,76,111,85,120,-2,-76,-78
-141,13,154,64,-147,83,111,108,142,7,-73,-73
-140,11,151,64,-145,81,113,118,152,15,-73,-72
-140,5,145,67,-142,75,116,117,151,22,-73,-73
-141,0,141,70,-141,70,120,114,150,30,-67,-71
-141,0,141,70,-141,70,125,112,151,37,-59,-68
-140,5,145,67,-142,75,127,110,150,41,-54,-67
-140,12,152,64,-146,82,126,111,150,42,-53,-67
-141,15,156,63,-148,85,124,117,155,44,-51,-67
-141,14,155,63,-148,84,122,124,163,47,-48,-67
-140,12,152,64,-146,82,119,126,171,50,-47,-69
-140,9,149,65,-144,79,117,123,175,52,-47,-72
-142,7,149,67,-145,78,116,117,171,53,-49,-75
-145,8,153,68,-149,80,117,112,165,53,-52,-77
-148,14,162,67,-155,88,116,110,164,52,-53,-78
-150,22,172,64,-161,97,116,111,168,53,-53,-78
-151,26,177,62,-164,101,120,113,174,52,-51,-78
-151,24,175,63,-163,99,125,116,179,52,-48,-78
-151,20,171,65,-161,95,127,119,182,54,-47,-77
-151,18,169,66,-160,93,126,121,184,57,-47,-77
-149,24,173,62,-161,98,122,120,185,58,-48,-79
-146,32,178,57,-162,105,117,117,185,58,-48,-82
-145,35,180,55,-162,107,116,116,184,56,-45,-80
-145,34,179,55,-162,106,117,116,184,53,-43,-74
-147,34,181,56,-164,107,115,117,188,52,-43,-67
-150,34,184,58,-167,109,112,117,193,52,-47,-63
-153,30,183,61,-168,106,111,115,197,55,-50,-64
-155,25,180,65,-167,102,111,116,199,57,-52,-67
-156,21,177,67,-166,99,112,122,200,58,-53,-68
-156,19,175,68,-165,97,112,130,202,57,-53,-67
-154,18,172,68,-163,95,111,129,210,59,-51,-69
-151,18,169,66,-160,93,111,123,221,62,-48,-72
-150,22,172,64,-161,97,113,120,232,63,-47,-72
-150,27,177,61,-163,102,116,121,238,63,-47,-72
-151,31,182,60,-166,106,117,123,237,62,-49,-77
-150,33,183,58,-166,108,117,125,234,62,-52,-85
-151,34,185,58,-168,109,117,128,234,66,-57,-92
-151,34,185,58,-168,109,117,130,238,71,-62,-96
-149,34,183,57,-166,108,115,130,242,75,-63,-94
-146,37,183,54,-164,110,112,130,246,77,-62,-88
-143,46,189,48,-166,117,111,134,252,79,-64,-81
-141,56,197,42,-169,126,112,139,257,81,-67,-78
-140,59,199,40,-169,129,110,144,259,82,-70,-79
-140,58,198,41,-169,128,107,145,261,81,-72,-81
-140,59,199,40,-169,129,105,145,268,83,-73,-81
-140,62,202,39,-171,132,106,145,276,86,-73,-81
-142,63,205,39,-173,134,109,149,281,90,-72,-87
-145,62,207,41,-176,134,111,154,285,96,-72,-95
-147,64,211,41,-179,137,112,158,293,99,-74,-98
-150,67,217,41,-183,142,111,160,304,101,-77,-96
-155,69,224,43,-189,146,113,163,314,102,-80,-99
-160,72,232,44,-196,152,116,168,323,102,-82,-105
-161,75,236,43,-198,155,119,174,333,101,-79,-112
-161,80,241,40,-201,160,121,179,343,101,-77,-116
-161,86,247,37,-204,166,122,182,354,103,-82,-117
-161,91,252,35,-206,171,122,184,364,106,-90,-116
-158,94,252,32,-205,173,121,186,371,109,-93,-119
-155,96,251,29,-203,173,121,188,378,111,-92,-124
-160,100,260,30,-210,180,123,195,388,113,-93,-129
-168,105,273,31,-220,189,125,202,402,116,-96,-134
-173,111,284,31,-228,197,125,207,414,120,-99,-141
-174,116,290,29,-232,203,122,208,426,125,-105,-149
-175,119,294,28,-234,206,121,208,437,126,-115,-155
-175,124,299,25,-237,211,121,208,446,126,-128,-163
-174,133,307,20,-240,220,123,209,453,125,-137,-173
-174,143,317,15,-245,230,125,213,461,125,-144,-183
-176,152,328,12,-252,240,126,218,470,126,-154,-187
-179,162,341,8,-260,251,125,223,481,126,-163,-189
-183,177,360,3,-271,268,127,225,487,122,-166,-193
-188,192,380,-2,-284,286,130,224,491,117,-164,-198
-194,199,393,-2,-293,296,131,221,494,115,-167,-203
-199,199,398,0,-298,298,131,219,496,116,-173,-207
-202,202,404,0,-303,303,128,218,495,119,-179,-214
-203,207,410,-2,-306,308,123,215,492,121,-184,-222
-203,212,415,-4,-309,313,115,206,491,122,-185,-227
-203,217,420,-7,-311,318,108,196,492,122,-185,-229
-204,224,428,-10,-316,326,104,191,489,121,-183,-227
-204,232,436,-14,-320,334,102,186,484,121,-181,-224
-199,238,437,-19,-318,337,97,176,477,124,-174,-220
-191,243,434,-26,-312,338,88,163,470,129,-166,-215
-185,247,432,-31,-308,339,81,154,460,135,-159,-209
-180,251,431,-35,-305,341,74,147,447,140,-152,-205
-177,257,434,-40,-305,345,64,139,431,142,-145,-200
-175,262,437,-43,-306,349,54,128,413,141,-138,-192
-174,263,437,-44,-305,350,49,117,396,139,-127,-178
-171,262,433,-45,-302,347,48,105,382,140,-115,-160
-164,265,429,-50,-296,347,45,90,372,144,-101,-142
-156,268,424,-56,-290,346,40,75,363,150,-85,-126
-155,263,418,-54,-286,340,34,64,350,152,-67,-107
-156,254,410,-49,-283,332,30,55,334,154,-47,-90
-150,247,397,-48,-273,322,25,45,321,162,-27,-77
-138,240,378,-51,-258,309,20,35,309,172,-8,-66
-128,232,360,-52,-244,296,13,29,296,182,9,-50
-122,221,343,-49,-232,282,5,25,281,188,25,-32
-121,210,331,-44,-226,270,0,18,266,192,40,-16
-122,201,323,-39,-222,262,-3,10,251,194,54,-2
-119,196,315,-38,-217,255,-4,5,236,195,68,9
-113,191,304,-39,-208,247,-4,4,222,195,80,21
-109,180,289,-35,-199,234,-3,4,209,192,85,34
-107,164,271,-28,-189,217,-3,4,197,186,86,45
-106,151,257,-22,-181,204,-5,1,185,177,87,52
-106,139,245,-16,-175,192,-8,-3,172,167,87,56
-107,124,231,-8,-169,177,-9,-5,162,159,85,62
-106,109,215,-1,-160,162,-9,-4,153,152,82,67
-107,100,207,3,-157,153,-7,-2,141,143,81,69
-107,93,200,7,-153,146,-4,0,128,133,79,68
-106,84,190,11,-148,137,0,0,116,124,71,65
-106,74,180,16,-143,127,3,0,104,114,60,59
-108,69,177,19,-142,123,4,1,92,102,51,50
-111,64,175,23,-143,119,4,3,80,89,44,43
-112,55,167,28,-139,111,3,4,69,80,39,44
-112,44,156,34,-134,100,3,4,63,74,35,51
-111,39,150,36,-130,94,5,3,64,67,30,57
-111,39,150,36,-130,94,7,3,68,59,25,58
-115,38,153,38,-134,95,13,3,64,52,20,53
-121,38,159,41,-140,98,18,3,55,44,15,44
-123,42,165,40,-144,103,19,4,47,37,8,38
-122,47,169,37,-145,108,19,4,43,30,1,34
-121,48,169,36,-145,108,18,3,40,24,-3,30
-121,44,165,38,-143,104,19,3,39,19,-4,25
-123,37,160,43,-141,98,18,7,39,17,-2,20
-125,30,155,47,-140,92,18,13,39,14,-3,15
-128,24,152,52,-140,88,21,14,37,10,-9,9
-130,19,149,55,-139,84,27,14,34,4,-17,4
-131,18,149,56,-140,83,33,14,33,2,-21,2
-130,18,148,56,-139,83,38,14,34,0,-23,0
-132,19,151,56,-141,85,39,12,32,-3,-29,-1
-135,19,154,58,-144,86,39,9,29,-7,-37,-3
-137,17,154,60,-145,85,38,8,28,-11,-42,-3
-140,14,154,63,-147,84,38,8,28,-13,-43,-3
-143,13,156,65,-149,84,39,9,29,-15,-42,-7
-145,13,158,66,-151,85,38,9,29,-18,-42,-13
-146,14,160,66,-153,87,39,8,28,-21,-44,-15
-145,14,159,65,-152,86,39,8,28,-23,-47,-14
-147,13,160,67,-153,86,38,9,29,-23,-50,-13
-150,13,163,68,-156,88,38,12,29,-23,-52,-13
-153,14,167,69,-160,90,42,18,28,-27,-52,-14
-155,14,169,70,-162,91,47,23,28,-32,-52,-17
-157,12,169,72,-163,90,48,24,30,-36,-56,-24
-160,9,169,75,-164,89,48,24,33,-38,-61,-32
-162,5,167,78,-164,86,47,23,36,-39,-65,-35
-164,0,164,82,-164,82,48,24,38,-39,-67,-34
-164,0,164,82,-164,82,47,23,40,-38,-68,-33
-164,0,164,82,-164,82,47,23,42,-38,-68,-33
-166,0,166,83,-166,83,49,25,45,-39,-67,-36
-169,0,169,84,-169,84,52,28,47,-39,-67,-39
-170,0,170,85,-170,85,53,29,48,-38,-69,-36
-170,0,170,85,-170,85,53,29,48,-38,-72,-30
-169,0,169,84,-169,84,52,29,48,-40,-73,-24
-169,0,169,84,-169,84,52,29,48,-42,-72,-23
-171,1,172,85,-171,86,53,27,46,-42,-74,-28
-174,3,177,85,-175,90,53,24,43,-42,-77,-36
-175,6,181,84,-178,93,53,21,42,-44,-78,-44
-175,8,183,83,-179,95,53,19,43,-47,-78,-47
-172,9,181,81,-176,95,52,18,42,-47,-76,-46
-170,9,179,80,-174,94,52,18,42,-44,-73,-43
-169,7,176,81,-172,91,53,20,47,-39,-70,-41
-170,4,174,83,-172,89,53,23,52,-34,-68,-39
-168,2,170,83,-169,86,51,26,50,-33,-67,-37
-165,3,168,81,-166,85,48,28,44,-33,-67,-34
-162,7,169,77,-165,88,45,27,41,-34,-68,-31
-161,13,174,74,-167,93,43,24,42,-34,-68,-29
-161,14,175,73,-168,94,42,22,43,-30,-66,-27
-161,10,171,75,-166,90,42,23,43,-25,-63,-24
-158,4,162,77,-160,83,43,25,43,-21,-62,-20
-156,0,156,78,-156,78,43,28,43,-19,-63,-15
-157,0,157,78,-157,78,42,29,42,-19,-60,-10
-160,0,160,80,-160,80,42,29,42,-19,-55,-5
-161,0,161,80,-161,80,43,26,44,-17,-45,1
-161,-3,158,82,-159,77,43,24,47,-14,-35,7
-161,-6,155,83,-158,74,40,23,48,-11,-29,10
-163,-8,155,85,-159,73,35,24,48,-9,-25,9
-169,-9,160,89,-164,75,31,22,46,-9,-20,8
-174,-9,165,91,-169,78,29,19,43,-9,-15,8
-174,-8,166,91,-170,79,28,18,41,-6,-11,9
-170,-8,162,89,-166,77,28,18,39,-1,-9,9
-167,-9,158,88,-162,74,29,19,38,4,-8,8
-165,-9,156,87,-160,73,29,19,38,8,-8,8
-162,-7,155,84,-158,74,28,18,39,9,-9,9
-157,-4,153,80,-155,74,28,18,39,9,-9,9
-151,-2,149,76,-150,73,29,19,38,8,-8,8
-146,0,146,73,-146,73,29,19,39,8,-8,8
-145,1,146,72,-145,73,28,17,38,9,-10,9
-145,3,148,71,-146,75,28,14,38,9,-13,9
-146,5,151,70,-148,78,29,11,39,8,-14,8
-146,7,153,69,-149,80,29,9,39,8,-13,8
-145,13,158,66,-151,85,28,8,38,10,-15,10
-145,18,163,63,-154,90,28,8,38,13,-18,13
-146,18,164,64,-155,91,29,8,40,14,-18,17
-146,18,164,64,-155,91,29,8,42,14,-14,22
-142,24,166,59,-154,95,27,10,43,12,-11,28
-137,36,173,50,-155,104,24,13,42,13,-5,36
-133,46,179,43,-156,112,23,16,44,18,3,46
-131,55,186,38,-158,120,24,18,47,27,12,52
-131,68,199,31,-165,133,22,17,51,33,15,51
-131,83,214,24,-172,148,19,14,56,38,14,44
-128,96,224,16,-176,160,19,12,62,41,15,39
-123,105,228,9,-175,166,22,13,67,43,18,38
-117,110,227,3,-172,168,29,18,70,41,19,40
-112,112,224,0,-168,168,40,26,72,39,18,42
-109,111,220,-1,-164,165,51,34,74,38,20,43
-107,111,218,-2,-162,164,57,38,77,41,23,42
-104,116,220,-6,-162,168,55,39,79,49,26,44
-98,127,225,-14,-161,176,45,38,81,60,28,47
-91,140,231,-24,-161,185,34,39,82,68,30,48
-83,153,236,-35,-159,194,19,39,81,72,33,47
-79,163,242,-42,-160,202,-7,35,83,72,35,50
-74,175,249,-50,-161,212,-40,29,86,72,38,56
-65,194,259,-64,-162,226,-69,27,89,77,42,64
-55,214,269,-79,-162,241,-95,25,92,85,47,71
-49,226,275,-88,-162,250,-123,16,90,88,49,74
-48,232,280,-92,-164,256,-150,5,87,87,52,73
-46,239,285,-96,-165,262,-168,1,86,87,55,72
-43,243,286,-100,-164,264,-181,-2,84,87,58,72
-42,240,282,-99,-162,261,-196,-13,71,83,54,73
-42,231,273,-94,-157,252,-210,-29,52,75,49,72
-45,221,266,-88,-155,243,-220,-45,34,66,47,73
-47,211,258,-82,-152,234,-224,-56,21,59,47,73
-48,199,247,-75,-147,223,-221,-61,15,56,47,72
-47,187,234,-70,-140,210,-215,-62,13,57,47,72
-49,180,229,-65,-139,204,-210,-62,13,59,51,75
-49,176,225,-63,-137,200,-208,-62,13,62,57,80
-40,171,211,-65,-125,191,-210,-63,14,64,57,87
-27,166,193,-69,-110,179,-213,-63,14,67,53,95
-16,163,179,-73,-97,171,-213,-59,12,69,52,99
-10,164,174,-77,-92,169,-210,-54,9,69,53,101
-5,168,173,-81,-89,170,-205,-51,7,61,51,103
0,167,167,-83,-83,167,-198,-49,4,50,48,106
1,148,147,-74,-73,147,-182,-43,2,42,46,107
3,119,116,-61,-56,117,-164,-35,0,39,43,107
5,95,90,-50,-42,92,-153,-31,0,38,41,107
8,80,72,-44,-32,76,-147,-29,0,38,41,110
12,72,60,-42,-24,66,-141,-26,0,39,49,118
17,68,51,-42,-17,59,-136,-20,2,41,60,128
22,66,44,-44,-11,55,-134,-14,10,47,67,137
27,66,39,-46,-6,52,-135,-6,21,55,71,144
35,74,39,-54,-2,56,-136,5,32,65,78,148
36,84,48,-60,-6,66,-130,20,44,75,86,147
17,89,72,-53,-27,80,-107,34,59,81,86,140
-15,88,103,-36,-59,95,-75,45,71,82,76,126
-45,82,127,-18,-86,104,-48,52,72,78,59,105
-68,74,142,-3,-105,108,-31,50,65,70,38,83
-85,67,152,9,-118,109,-24,35,55,61,22,66
-98,60,158,19,-128,109,-24,14,42,51,11,55
-110,51,161,29,-135,106,-23,-3,26,36,3,47
-122,41,163,40,-142,102,-20,-16,8,18,-5,37
-137,30,167,53,-152,98,-15,-26,-5,3,-20,22
-152,17,169,67,-160,93,-10,-33,-12,-7,-36,7
-161,3,164,79,-162,83,-5,-34,-15,-12,-42,-1
-164,-7,157,85,-160,75,-1,-30,-14,-13,-42,-3
-165,-10,155,87,-160,72,3,-24,-13,-13,-45,-4
-165,-9,156,87,-160,73,8,-19,-14,-13,-51,-4
-164,-9,155,86,-159,73,10,-18,-13,-15,-56,-3
-164,-12,152,88,-158,70,9,-18,-13,-18,-58,-3
-165,-19,146,92,-155,63,6,-18,-17,-21,-56,-4
-165,-27,138,96,-151,55,4,-18,-22,-23,-53,-4
-161,-33,128,97,-144,47,5,-20,-25,-24,-51,-2
-156,-38,118,97,-137,40,8,-23,-24,-24,-48,0
-155,-39,116,97,-135,38,9,-25,-20,-22,-44,1
-155,-39,116,97,-135,38,8,-25,-15,-19,-39,3
-156,-38,118,97,-137,40,10,-18,-11,-17,-38,7
-156,-39,117,97,-136,39,13,-10,-9,-14,-38,13
-155,-38,117,96,-136,39,14,-6,-8,-12,-39,15
-155,-38,117,96,-136,39,14,-8,-8,-9,-39,14
-156,-40,116,98,-136,38,13,-11,-9,-6,-39,12
-155,-39,116,97,-135,38,13,-13,-9,-4,-39,9
-156,-34,122,95,-139,44,13,-12,-8,-4,-38,6
-156,-25,131,90,-143,53,13,-9,-8,-7,-38,4
-156,-19,137,87,-146,59,15,-7,-11,-13,-41,2
-159,-15,144,87,-151,64,20,-5,-13,-24,-52,-5
-168,-9,159,88,-163,75,35,2,-12,-45,-79,-24
-181,-2,179,91,-180,88,50,8,-12,-74,-113,-51
-191,7,198,92,-194,102,53,4,-21,-101,-141,-73
-198,25,223,86,-210,124,45,-12,-35,-116,-160,-92
-205,64,269,70,-237,166,35,-39,-44,-110,-176,-110
-212,110,322,51,-267,216,23,-70,-50,-88,-184,-127
-218,147,365,35,-291,256,3,-99,-62,-63,-179,-136
-219,182,401,18,-310,291,-24,-137,-90,-36,-155,-133
-213,237,450,-12,-331,343,-62,-198,-145,-4,-111,-119
-199,313,512,-57,-355,412,-111,-282,-218,35,-48,-89
-180,399,579,-109,-379,489,-170,-377,-292,85,32,-39
-151,479,630,-164,-390,554,-235,-470,-355,152,146,40
-107,535,642,-214,-374,588,-300,-543,-401,249,313,159
-47,571,618,-262,-332,594,-363,-597,-423,388,533,323
25,601,576,-313,-275,588,-422,-639,-411,576,792,528
102,600,498,-351,-198,549,-463,-653,-346,794,1050,738
172,531,359,-351,-93,445,-465,-617,-212,1012,1256,911
236,398,162,-317,37,280,-435,-552,-54,1222,1421,1054
298,230,-68,-264,183,81,-391,-502,50,1429,1582,1204
362,46,-316,-204,339,-135,-355,-479,78,1637,1749,1366
427,-139,-566,-144,496,-352,-350,-478,36,1840,1918,1524
487,-324,-811,-81,649,-567,-360,-471,-32,2006,2069,1668
534,-511,-1045,-11,789,-778,-353,-423,-80,2079,2170,1785
567,-703,-1270,68,918,-986,-329,-355,-180,1941,2162,1852
590,-899,-1489,154,1039,-1194,-302,-316,-454,1464,1979,1846
600,-1082,-1682,241,1141,-1382,-275,-313,-857,732,1659,1773
591,-1229,-1820,319,1205,-1524,-245,-331,-1260,-62,1286,1660
556,-1331,-1887,387,1221,-1609,-207,-355,-1593,-794,873,1484
485,-1387,-1872,451,1178,-1629,-158,-371,-1827,-1383,401,1210
397,-1402,-1799,502,1098,-1600,-111,-378,-1951,-1793,-70,891
322,-1382,-1704,530,1013,-1543,-86,-381,-1969,-2018,-446,620
269,-1351,-1620,541,944,-1485,-75,-374,-1899,-2077,-686,426
233,-1338,-1571,552,902,-1454,-63,-352,-1768,-2005,-786,295
209,-1316,-1525,553,867,-1420,-56,-326,-1612,-1864,-797,202
188,-1238,-1426,525,807,-1332,-72,-315,-1467,-1725,-792,117
154,-1110,-1264,478,709,-1187,-97,-313,-1322,-1585,-794,18
93,-971,-1064,439,578,-1017,-103,-302,-1143,-1408,-795,-109
20,-835,-855,407,437,-845,-85,-283,-947,-1202,-777,-229
-29,-707,-678,368,324,-692,-54,-264,-776,-1001,-720,-288
-54,-593,-539,323,242,-566,-21,-250,-638,-823,-635,-291
-64,-501,-437,282,186,-469,2,-243,-523,-677,-544,-271
-67,-427,-360,247,146,-393,16,-234,-425,-557,-457,-242
-67,-361,-294,214,113,-327,25,-207,-335,-448,-375,-208
-67,-299,-232,183,82,-265,32,-164,-248,-349,-306,-176
-69,-239,-170,154,50,-204,39,-112,-159,-270,-261,-157
-72,-184,-112,128,20,-148,46,-60,-77,-206,-231,-147
-72,-135,-63,103,-4,-99,52,-21,-15,-147,-203,-140
-69,-95,-26,82,-21,-60,56,1,22,-97,-176,-133
-65,-67,-2,66,-31,-34,60,5,39,-66,-157,-125
-63,-47,16,55,-39,-15,62,-1,42,-50,-144,-118
-62,-32,30,47,-46,-1,63,-9,44,-41,-131,-112
-63,-21,42,42,-52,10,63,-7,53,-32,-119,-108
-61,-15,46,38,-53,15,63,12,73,-19,-110,-104
-58,-14,44,36,-51,15,63,41,97,-6,-103,-102
-55,-14,41,34,-48,13,62,59,109,2,-98,-101
-53,-14,39,33,-46,12,62,63,111,7,-93,-101
-52,-13,39,32,-45,13,64,57,112,12,-89,-102
-52,-10,42,31,-47,16,67,46,112,17,-86,-101
-53,-4,49,28,-51,22,68,36,111,21,-88,-102
-52,2,54,25,-53,28,68,33,111,23,-91,-102
-53,5,58,24,-55,31,66,38,115,24,-91,-101
-53,4,57,24,-55,30,63,46,123,24,-87,-101
-51,3,54,24,-52,28,62,49,131,23,-85,-103
-48,3,51,22,-49,27,62,48,135,23,-86,-106
-45,4,49,20,-47,26,62,45,133,24,-88,-107
-43,7,50,18,-46,28,59,43,127,24,-91,-107
-42,14,56,14,-49,35,52,42,123,23,-92,-106
-42,22,64,10,-53,43,47,42,124,23,-92,-106
-43,26,69,8,-56,47,52,44,130,26,-90,-107
-42,25,67,8,-54,46,64,46,138,31,-87,-107
-43,19,62,12,-52,40,74,51,148,39,-86,-106
-43,14,57,14,-50,35,78,57,155,46,-86,-106
-41,16,57,12,-49,36,74,58,154,49,-87,-108
-39,22,61,8,-50,41,68,58,148,48,-87,-111
-38,24,62,7,-50,43,67,58,140,46,-85,-111
-38,23,61,7,-49,42,68,58,136,44,-85,-111
-39,29,68,5,-53,48,64,55,138,38,-92,-114
-39,43,82,-2,-60,62,55,50,144,31,-103,-122
-38,60,98,-11,-68,79,47,41,148,23,-114,-135
-38,72,110,-17,-74,91,43,37,150,18,-121,-145
-39,67,106,-14,-72,86,45,47,152,23,-119,-141
-39,49,88,-5,-63,68,51,64,154,34,-110,-126
-37,27,64,5,-50,45,57,73,159,49,-97,-111
-34,11,45,11,-39,28,61,73,163,61,-88,-102
-34,9,43,12,-38,26,65,72,167,62,-88,-103
-38,17,55,10,-46,36,67,72,169,55,-94,-109
-40,20,60,10,-50,40,68,74,170,47,-101,-117
-42,19,61,11,-51,40,68,77,173,42,-105,-124
-43,19,62,12,-52,40,68,80,181,45,-109,-129
-43,22,65,10,-54,43,68,81,192,51,-111,-134
-42,26,68,8,-55,47,66,81,200,54,-112,-140
-42,32,74,5,-58,53,63,81,207,53,-111,-145
-45,39,84,3,-64,61,61,84,213,52,-113,-146
-51,46,97,2,-74,71,58,90,218,52,-116,-145
-58,48,106,5,-82,77,55,94,220,52,-119,-148
-62,47,109,7,-85,78,53,96,222,52,-121,-150
-59,49,108,5,-83,78,53,97,228,53,-122,-149
-50,52,102,-1,-76,77,57,100,237,56,-122,-145
-41,53,94,-6,-67,73,60,106,242,61,-121,-148
-35,52,87,-8,-61,69,62,114,246,66,-121,-154
-32,54,86,-11,-59,70,64,120,254,69,-122,-156
-33,57,90,-12,-61,73,67,124,265,68,-124,-156
-37,59,96,-11,-66,77,70,129,274,66,-130,-157
-42,62,104,-10,-73,83,72,134,281,63,-135,-162
-43,65,108,-11,-75,86,73,139,287,62,-135,-171
-42,71,113,-14,-77,92,73,144,294,62,-135,-182
-45,77,122,-16,-83,99,73,149,303,63,-141,-190
-48,81,129,-16,-88,105,73,154,314,66,-149,-195
-45,80,125,-17,-85,102,72,158,323,72,-149,-192
-40,74,114,-17,-77,94,72,162,332,79,-142,-183
-37,69,106,-16,-71,87,75,173,346,87,-137,-171
-41,67,108,-13,-74,87,80,186,361,95,-135,-164
-49,72,121,-11,-85,96,83,195,375,101,-137,-170
-59,83,142,-12,-100,112,82,199,386,106,-143,-185
-69,94,163,-12,-116,128,81,200,397,107,-154,-199
-76,104,180,-14,-128,142,81,200,406,107,-167,-210
-78,114,192,-18,-135,153,83,200,414,106,-175,-221
-78,123,201,-22,-139,162,86,202,421,106,-182,-231
-78,129,207,-25,-142,168,87,207,431,107,-193,-238
-80,130,210,-25,-145,170,86,212,441,107,-206,-242
-85,131,216,-23,-150,173,88,215,449,103,-212,-246
-90,131,221,-20,-155,176,91,214,455,98,-213,-248
-94,128,222,-17,-158,175,93,213,464,95,-216,-246
-96,129,225,-16,-160,177,92,213,471,96,-222,-246
-97,140,237,-21,-167,188,89,215,474,98,-228,-255
-97,159,256,-31,-176,207,84,215,473,101,-232,-269
-96,176,272,-40,-184,224,75,207,473,102,-235,-279
-96,187,283,-45,-189,235,68,197,473,101,-234,-283
-97,193,290,-48,-193,241,68,192,470,102,-230,-280
-97,194,291,-48,-194,242,72,191,464,105,-221,-274
-94,195,289,-50,-191,242,73,184,458,110,-211,-269
-88,195,283,-53,-185,239,69,173,450,115,-202,-264
-82,194,276,-56,-179,235,63,164,440,119,-195,-259
-75,194,269,-59,-172,231,55,157,427,121,-191,-254
-66,195,261,-64,-163,228,47,151,415,122,-185,-249
-59,195,254,-68,-156,224,40,143,403,122,-177,-242
-56,195,251,-69,-153,223,37,134,391,121,-167,-229
-54,195,249,-70,-151,222,35,121,379,121,-154,-213
-47,194,241,-73,-144,217,29,104,364,123,-142,-198
-40,191,231,-75,-135,211,21,86,346,125,-130,-184
-39,183,222,-72,-130,202,13,74,326,125,-114,-168
-42,175,217,-66,-129,196,6,65,307,125,-97,-150
-40,177,217,-68,-128,197,-1,54,291,130,-79,-135
-31,184,215,-76,-123,199,-10,42,277,138,-62,-121
-22,182,204,-80,-113,193,-22,32,261,144,-47,-103
-15,170,185,-77,-100,177,-35,25,243,145,-33,-83
-11,151,162,-70,-86,156,-45,18,228,146,-18,-65
-6,137,143,-65,-74,140,-51,11,213,146,-3,-51
4,137,133,-70,-64,135,-53,4,195,146,8,-40
19,145,126,-82,-53,135,-53,0,175,146,16,-31
33,143,110,-88,-38,126,-52,-1,156,145,22,-21
41,133,92,-87,-25,112,-52,-3,140,142,27,-11
43,125,82,-84,-19,103,-54,-7,126,135,33,-5
40,119,79,-79,-19,99,-57,-12,114,125,38,-4
34,111,77,-72,-21,94,-58,-15,105,114,39,-2
29,100,71,-64,-21,85,-58,-14,95,105,39,0
28,86,58,-57,-15,72,-56,-13,81,94,39,0
28,69,41,-48,-6,55,-54,-13,63,84,39,0
29,47,18,-38,5,32,-49,-16,46,77,34,0
29,27,-2,-28,15,12,-44,-18,35,70,26,0
27,18,-9,-22,18,4,-38,-17,32,61,19,-1
24,15,-9,-19,16,3,-31,-14,33,50,15,-3
23,7,-16,-15,19,-4,-22,-13,32,42,10,-4
23,-2,-25,-10,24,-13,-15,-13,26,36,5,-3
23,-5,-28,-9,25,-16,-14,-14,18,27,0,-4
20,-4,-24,-8,22,-14,-18,-14,7,17,-6,-7
13,-5,-18,-4,15,-11,-19,-14,-6,7,-14,-13
5,-8,-13,1,9,-10,-19,-14,-20,-1,-21,-21
2,-6,-8,2,5,-7,-18,-13,-29,-9,-29,-30
3,1,-2,-2,2,0,-18,-13,-33,-16,-37,-40
4,10,6,-7,-1,8,-19,-14,-36,-23,-41,-48
4,15,11,-9,-3,13,-19,-14,-38,-27,-43,-53
2,4,2,-3,0,3,-18,-10,-39,-30,-41,-50
0,-16,-16,8,8,-16,-15,-5,-38,-33,-41,-44
-1,-39,-38,20,18,-38,-10,-3,-40,-37,-47,-41
-3,-55,-52,29,24,-53,-5,-3,-42,-41,-56,-42
-6,-58,-52,32,23,-55,-1,-3,-43,-44,-60,-44
-12,-50,-38,31,13,-44,0,-3,-42,-47,-61,-46
-18,-41,-23,29,2,-32,0,-5,-44,-51,-67,-51
-23,-35,-12,29,-5,-23,0,-8,-47,-56,-76,-56
-24,-33,-9,28,-7,-21,0,-8,-48,-60,-80,-59
-23,-33,-10,28,-6,-21,0,-5,-48,-62,-81,-61
-25,-33,-8,29,-8,-20,0,-2,-47,-64,-82,-66
-28,-33,-5,30,-11,-19,3,0,-47,-67,-85,-71
-29,-38,-9,33,-10,-23,6,0,-48,-70,-90,-74
-28,-48,-20,38,-4,-34,8,0,-48,-72,-95,-73
-30,-63,-33,46,1,-48,9,0,-48,-72,-98,-71
-32,-72,-40,52,4,-56,8,0,-48,-71,-101,-71
-36,-66,-30,51,-3,-48,9,0,-47,-78,-105,-77
-38,-46,-8,42,-15,-27,9,-2,-47,-92,-113,-91
-39,-22,17,30,-28,-2,5,-8,-48,-107,-127,-111
-39,-5,34,22,-36,14,0,-13,-48,-116,-139,-128
-39,-6,33,22,-36,13,2,-11,-46,-112,-139,-128
-39,-19,20,29,-29,0,11,-2,-41,-97,-127,-112
-38,-31,7,34,-22,-12,20,5,-32,-79,-110,-94
-38,-38,0,38,-19,-19,27,12,-25,-68,-98,-82
-42,-39,3,40,-22,-18,31,16,-24,-71,-100,-85
-50,-39,11,44,-30,-14,33,18,-31,-86,-116,-97
-58,-38,20,48,-39,-9,34,18,-40,-103,-135,-109
-63,-38,25,50,-44,-6,34,18,-47,-115,-149,-116
-59,-41,18,50,-38,-11,33,20,-46,-115,-147,-115
-50,-46,4,48,-27,-21,33,23,-40,-105,-135,-109
-43,-50,-7,46,-18,-28,34,26,-36,-93,-123,-102
-39,-53,-14,46,-12,-33,33,28,-34,-83,-117,-97
-38,-51,-13,44,-12,-32,34,29,-33,-81,-116,-96
-39,-48,-9,43,-15,-28,34,29,-33,-85,-117,-97
-38,-47,-9,42,-14,-28,33,28,-34,-88,-115,-95
-35,-48,-13,41,-11,-30,33,28,-34,-87,-112,-92
-31,-46,-15,38,-8,-30,34,29,-30,-85,-111,-91
-25,-43,-18,34,-3,-30,34,29,-24,-82,-111,-91
-19,-42,-23,30,2,-32,32,28,-25,-80,-113,-92
-14,-43,-29,28,7,-36,29,25,-32,-81,-116,-95
-16,-41,-25,28,4,-33,26,18,-37,-86,-119,-102
-25,-36,-11,30,-7,-23,24,7,-41,-94,-121,-113
-35,-27,8,31,-21,-9,23,-2,-47,-102,-122,-126
-42,-19,23,30,-32,2,23,-8,-52,-106,-122,-135
-42,-22,20,32,-31,-1,24,-7,-51,-105,-121,-132
-39,-34,5,36,-22,-14,24,-2,-44,-99,-122,-121
-37,-47,-10,42,-13,-28,24,4,-40,-92,-121,-108
-35,-56,-21,45,-7,-38,24,8,-39,-88,-118,-99
-30,-58,-28,44,-1,-43,23,7,-39,-84,-111,-92
-25,-54,-29,39,2,-41,20,4,-39,-82,-103,-87
-22,-49,-27,35,2,-38,13,3,-38,-80,-100,-86
-23,-44,-21,33,-1,-32,5,3,-38,-78,-101,-86
-27,-40,-13,33,-7,-26,2,3,-40,-77,-102,-86
-32,-39,-7,35,-12,-23,3,0,-42,-78,-102,-86
-35,-38,-3,36,-16,-20,3,-1,-43,-77,-101,-87
-34,-38,-4,36,-15,-21,0,-3,-43,-74,-98,-87
-32,-38,-6,35,-13,-22,0,-3,-42,-69,-92,-83
-29,-38,-9,33,-10,-23,0,-3,-42,-64,-84,-75
-28,-39,-11,33,-8,-25,0,-5,-44,-60,-78,-68
-28,-39,-11,33,-8,-25,0,-8,-47,-58,-74,-63
-29,-36,-7,32,-11,-21,0,-9,-48,-57,-70,-62
-29,-31,-2,30,-13,-16,0,-9,-48,-58,-68,-62
-28,-23,5,25,-16,-9,0,-8,-47,-57,-67,-64
-28,-18,10,23,-19,-4,0,-8,-47,-57,-67,-67
-30,-23,7,26,-18,-8,0,-11,-49,-61,-69,-69
-33,-34,-1,33,-16,-17,0,-17,-52,-69,-72,-72
-36,-47,-11,41,-12,-29,0,-23,-55,-79,-74,-74
-38,-56,-18,47,-10,-37,0,-28,-57,-86,-77,-77
-39,-58,-19,48,-10,-38,0,-29,-58,-85,-78,-78
-39,-54,-15,46,-12,-34,0,-29,-58,-80,-78,-78
-37,-48,-11,42,-13,-29,0,-28,-58,-74,-76,-76
-34,-43,-9,38,-12,-26,0,-28,-58,-69,-73,-73
-34,-41,-7,37,-13,-24,0,-29,-57,-65,-72,-72
-34,-37,-3,35,-15,-20,-2,-28,-57,-63,-72,-73
-29,-21,8,25,-18,-6,-7,-29,-59,-63,-72,-71
-21,-1,20,11,-20,9,-12,-29,-62,-63,-69,-69
-15,10,25,2,-20,17,-15,-28,-62,-58,-62,-65
-13,13,26,0,-19,19,-14,-28,-59,-50,-54,-63
-14,16,30,-1,-22,23,-12,-30,-54,-43,-51,-62
-14,25,39,-5,-26,32,-10,-33,-49,-39,-52,-63
-11,39,50,-14,-30,44,-5,-35,-44,-38,-51,-62
-5,57,62,-26,-33,59,1,-34,-40,-38,-48,-59
0,73,73,-36,-36,73,9,-30,-35,-40,-46,-54
3,82,79,-42,-38,80,19,-21,-30,-39,-44,-49
5,76,71,-40,-33,73,35,-12,-25,-34,-37,-45
8,62,54,-35,-23,58,50,-5,-20,-26,-27,-43
11,51,40,-31,-14,45,54,-1,-16,-19,-17,-41
16,50,34,-33,-9,42,46,0,-14,-14,-10,-39
24,63,39,-43,-7,51,32,1,-13,-13,-8,-38
32,85,53,-58,-10,69,12,0,-13,-13,-12,-39
36,104,68,-70,-16,86,-15,-4,-14,-15,-17,-38
38,120,82,-79,-22,101,-47,-11,-14,-15,-19,-35
42,138,96,-90,-27,117,-78,-17,-13,-9,-16,-30
47,156,109,-101,-31,132,-107,-21,-13,-1,-10,-25
48,166,118,-107,-35,142,-137,-30,-15,1,-8,-22
47,172,125,-109,-39,148,-166,-40,-18,0,-8,-23
49,182,133,-115,-42,157,-191,-46,-19,0,-8,-25
52,192,140,-122,-44,166,-212,-50,-21,0,-8,-28
53,196,143,-124,-45,169,-232,-59,-31,-3,-12,-31
53,192,139,-122,-43,165,-249,-73,-47,-11,-18,-33
53,184,131,-118,-39,157,-256,-87,-63,-17,-17,-34
56,173,117,-114,-30,145,-254,-99,-75,-19,-11,-34
62,162,100,-112,-19,131,-249,-106,-80,-15,-4,-33
67,152,85,-109,-9,118,-245,-111,-81,-9,0,-33
64,148,84,-106,-10,116,-241,-113,-83,-10,0,-34
58,147,89,-102,-15,118,-239,-115,-86,-16,-2,-34
60,142,82,-101,-11,112,-239,-119,-88,-23,-8,-32
69,136,67,-102,1,101,-239,-122,-91,-28,-13,-29
78,138,60,-108,9,99,-236,-119,-93,-28,-11,-28
85,147,62,-116,11,104,-230,-113,-96,-28,-5,-29
90,159,69,-124,10,114,-225,-109,-97,-31,-2,-27
95,160,65,-127,15,112,-217,-107,-97,-37,-3,-25
99,135,36,-117,31,85,-203,-103,-96,-40,-6,-21
101,94,-7,-97,54,43,-184,-98,-96,-39,-11,-19
102,61,-41,-81,71,10,-172,-95,-97,-38,-20,-18
104,42,-62,-73,83,-10,-166,-93,-97,-39,-25,-16
113,32,-81,-72,97,-24,-161,-87,-96,-38,-15,-6
126,25,-101,-75,113,-38,-157,-80,-93,-35,3,8
138,20,-118,-79,128,-49,-153,-73,-87,-30,18,24
147,17,-130,-82,138,-56,-151,-66,-76,-22,30,36
158,24,-134,-91,146,-55,-151,-53,-63,-9,42,41
162,36,-126,-99,144,-45,-149,-34,-48,4,54,40
150,41,-109,-95,129,-34,-133,-17,-30,15,61,33
122,40,-82,-81,102,-21,-106,-3,-16,19,57,20
89,35,-54,-62,71,-9,-76,6,-13,16,38,-1
57,30,-27,-43,42,1,-49,9,-20,10,12,-26
30,26,-4,-28,17,11,-32,3,-31,8,-10,-46
9,21,12,-15,-1,16,-25,-12,-43,3,-25,-59
-4,13,17,-4,-10,15,-22,-32,-59,-14,-35,-69
-15,3,18,6,-16,10,-20,-52,-76,-43,-44,-78
-27,-5,22,16,-24,8,-16,-68,-91,-71,-57,-90
-39,-18,21,28,-30,1,-10,-77,-100,-89,-70,-103
-47,-40,7,43,-27,-16,-5,-76,-101,-91,-72,-110
-51,-69,-18,60,-16,-43,-1,-70,-94,-82,-65,-112
-55,-93,-38,74,-8,-65,3,-63,-87,-70,-60,-111
-57,-106,-49,81,-4,-77,7,-58,-82,-63,-61,-111
-58,-102,-44,80,-7,-73,10,-58,-83,-65,-68,-112
-57,-85,-28,71,-14,-56,9,-61,-89,-74,-78,-115
-58,-63,-5,60,-26,-34,5,-66,-99,-84,-88,-120
-58,-45,13,51,-35,-16,0,-71,-109,-90,-95,-125
-54,-42,12,48,-33,-15,0,-76,-114,-93,-98,-126
-49,-49,0,49,-24,-24,2,-80,-113,-92,-98,-126
-47,-59,-12,53,-17,-35,5,-83,-108,-90,-93,-126
-47,-66,-19,56,-14,-42,8,-83,-103,-87,-88,-126
-47,-70,-23,58,-12,-46,10,-77,-99,-84,-84,-124
-44,-72,-28,58,-8,-50,13,-69,-97,-82,-82,-122
-41,-74,-33,57,-4,-53,14,-66,-96,-81,-80,-121
-39,-77,-38,58,0,-57,14,-67,-96,-81,-78,-121
-38,-79,-41,58,1,-60,12,-69,-97,-81,-76,-122
-38,-79,-41,58,1,-60,10,-72,-96,-81,-73,-124
-39,-73,-34,56,-2,-53,6,-73,-97,-82,-72,-128
-42,-65,-23,53,-9,-44,4,-73,-97,-85,-75,-134
-44,-60,-16,52,-14,-38,5,-71,-96,-91,-84,-140
-50,-55,-5,52,-22,-30,11,-65,-93,-102,-100,-150
-60,-43,17,51,-38,-13,21,-55,-87,-118,-122,-169
-73,-27,46,50,-59,9,31,-45,-82,-138,-147,-194
-85,-19,66,52,-75,23,36,-42,-84,-160,-173,-222
-94,-12,82,53,-88,35,38,-48,-93,-174,-194,-246
-101,3,104,49,-102,53,40,-63,-102,-168,-206,-262
-109,32,141,38,-125,86,40,-81,-109,-147,-212,-273
-117,65,182,26,-149,123,31,-96,-117,-130,-218,-288
-122,103,225,9,-173,164,11,-110,-129,-114,-218,-301
-115,147,262,-16,-188,204,-13,-135,-153,-86,-195,-296
-98,202,300,-52,-199,251,-47,-184,-197,-47,-144,-270
-78,272,350,-97,-214,311,-100,-270,-272,-5,-70,-226
-56,342,398,-143,-227,370,-164,-373,-362,43,26,-164
-27,386,413,-179,-220,399,-221,-457,-437,110,146,-86
18,419,401,-218,-191,410,-276,-517,-478,218,313,28
90,473,383,-281,-146,428,-343,-571,-474,390,553,212
176,528,352,-352,-88,440,-410,-608,-425,595,819,427
251,526,275,-388,-12,400,-453,-610,-339,766,1021,599
311,452,141,-381,85,296,-464,-590,-245,918,1161,731
369,318,-51,-343,210,133,-453,-581,-181,1110,1296,869
426,155,-271,-290,348,-58,-436,-595,-175,1322,1435,1016
477,4,-473,-240,475,-234,-436,-626,-242,1487,1554,1148
524,-138,-662,-193,593,-400,-447,-644,-329,1601,1663,1272
574,-303,-877,-135,725,-590,-442,-606,-351,1692,1785,1413
624,-488,-1112,-68,868,-800,-424,-536,-355,1702,1874,1547
662,-671,-1333,4,997,-1002,-412,-492,-463,1518,1850,1620
676,-838,-1514,81,1095,-1176,-401,-487,-717,1068,1672,1606
652,-976,-1628,162,1140,-1302,-374,-504,-1101,320,1333,1500
594,-1080,-1674,243,1134,-1377,-329,-528,-1522,-559,891,1314
518,-1147,-1665,314,1091,-1406,-277,-547,-1851,-1296,437,1074
439,-1183,-1622,372,1030,-1402,-231,-555,-2029,-1781,26,815
366,-1197,-1563,415,964,-1380,-201,-553,-2052,-2018,-313,580
304,-1211,-1515,453,909,-1363,-179,-534,-1966,-2072,-565,386
256,-1244,-1500,494,878,-1372,-147,-489,-1845,-2046,-722,236
222,-1268,-1490,523,856,-1379,-116,-431,-1712,-1970,-792,123
200,-1223,-1423,511,811,-1323,-115,-385,-1561,-1834,-797,35
176,-1120,-1296,472,736,-1208,-135,-352,-1389,-1654,-773,-49
133,-1013,-1146,440,639,-1079,-143,-317,-1200,-1463,-758,-154
76,-910,-986,417,531,-948,-127,-282,-1008,-1271,-740,-254
28,-792,-820,382,424,-806,-90,-257,-831,-1072,-682,-300
-4,-667,-663,335,329,-665,-43,-242,-679,-881,-591,-299
-29,-561,-532,295,251,-546,-4,-232,-553,-724,-508,-295
-45,-474,-429,259,192,-451,22,-217,-449,-602,-440,-294
-49,-396,-347,222,149,-371,37,-185,-363,-499,-377,-280
-48,-324,-276,186,114,-300,45,-139,-285,-408,-319,-255
-49,-262,-213,155,82,-237,53,-88,-202,-327,-272,-237
-55,-213,-158,134,51,-185,64,-42,-120,-256,-235,-227
-61,-177,-116,119,27,-146,74,-6,-58,-193,-201,-217
-66,-149,-83,107,8,-116,83,15,-18,-140,-169,-207
-70,-123,-53,96,-8,-88,93,21,6,-102,-147,-199
-72,-99,-27,85,-22,-63,100,16,21,-78,-134,-195
-73,-79,-6,76,-33,-42,103,9,27,-65,-124,-194
-73,-66,7,69,-40,-29,102,10,34,-56,-114,-195
-72,-57,15,64,-43,-21,101,25,51,-45,-107,-193
-72,-53,19,62,-45,-17,101,47,72,-32,-102,-190
-73,-52,21,62,-47,-15,101,57,83,-24,-102,-189
-73,-52,21,62,-47,-15,101,55,82,-20,-102,-190
-73,-52,21,62,-47,-15,103,49,81,-15,-97,-189
-73,-49,24,61,-48,-12,105,44,82,-10,-89,-186
-72,-43,29,57,-50,-7,109,41,81,-6,-84,-182
-72,-35,37,53,-54,1,111,41,81,-4,-82,-176
-73,-32,41,52,-57,4,112,47,85,-2,-80,-171
-73,-33,40,53,-56,3,112,55,93,0,-78,-166
-71,-35,36,53,-53,0,111,59,103,1,-77,-164
-68,-38,30,53,-49,-4,111,58,110,3,-77,-164
-66,-40,26,53,-46,-7,113,56,111,4,-78,-164
-67,-40,27,53,-47,-6,116,53,108,4,-81,-164
-70,-34,36,52,-53,1,117,52,105,3,-83,-166
-76,-26,50,51,-63,12,116,52,106,4,-86,-168
-80,-22,58,51,-69,18,119,53,108,3,-87,-172
-81,-23,58,52,-69,17,124,56,111,3,-87,-174
-82,-25,57,53,-69,16,128,61,113,5,-86,-175
-82,-25,57,53,-69,16,131,66,116,8,-86,-174
-81,-17,64,49,-72,23,129,68,117,10,-87,-176
-78,-6,72,42,-75,33,126,68,117,9,-87,-179
-76,-2,74,39,-75,36,125,67,115,6,-86,-180
-73,-3,70,38,-71,33,126,67,112,1,-86,-180
-72,-4,68,38,-70,32,125,68,112,-2,-89,-179
-72,-3,69,37,-70,33,122,68,115,-4,-95,-179
-74,-5,69,39,-71,32,120,66,119,-2,-99,-181
-77,-8,69,42,-73,30,117,66,121,0,-101,-184
-78,-9,69,43,-73,30,115,72,122,0,-102,-185
-78,-9,69,43,-73,30,112,80,124,0,-102,-184
-76,-9,67,42,-71,29,111,80,128,1,-100,-186
-73,-9,64,41,-68,27,111,74,134,3,-97,-189
-72,-6,66,39,-69,30,113,71,138,4,-96,-190
-72,-1,71,36,-71,35,116,72,140,4,-96,-189
-73,1,74,36,-73,37,117,74,141,3,-96,-191
-73,0,73,36,-73,36,117,77,144,3,-96,-194
-72,-1,71,36,-71,35,117,79,150,7,-98,-195
-72,-3,69,37,-70,33,117,81,158,12,-101,-194
-73,-5,68,39,-70,31,115,81,163,15,-102,-196
-73,-5,68,39,-70,31,112,81,164,14,-101,-199
-72,0,72,36,-72,36,111,84,166,13,-102,-201
-72,7,79,32,-75,43,112,90,169,13,-105,-203
-73,10,83,31,-78,46,110,94,171,13,-109,-205
-73,9,82,32,-77,45,107,96,173,13,-111,-208
-72,9,81,31,-76,45,106,96,179,14,-112,-208
-72,12,84,30,-78,48,106,96,187,17,-112,-208
-73,15,88,29,-80,51,108,99,193,22,-111,-212
-73,17,90,28,-81,53,111,105,197,27,-111,-218
-72,22,94,25,-83,58,112,109,205,31,-112,-218
-72,27,99,22,-85,63,112,111,215,33,-115,-214
-75,30,105,22,-90,67,111,114,224,34,-120,-215
-80,33,113,23,-96,73,111,120,231,34,-125,-221
-82,36,118,23,-100,77,111,125,238,33,-125,-228
-82,41,123,20,-102,82,111,129,245,33,-125,-233
-82,45,127,18,-104,86,112,133,254,34,-130,-234
-82,47,129,17,-105,88,112,135,264,34,-138,-233
-79,47,126,16,-102,86,110,136,272,33,-142,-236
-77,47,124,15,-100,85,110,138,279,33,-141,-242
-81,50,131,15,-106,90,116,147,289,34,-140,-245
-89,55,144,17,-116,99,127,160,302,37,-140,-244
-94,62,156,16,-125,109,136,171,315,42,-141,-243
-95,67,162,14,-128,114,140,178,326,47,-143,-245
-100,68,168,16,-134,118,141,181,338,47,-153,-253
-108,67,175,20,-141,121,140,184,347,44,-166,-267
-117,70,187,23,-152,128,142,187,355,40,-174,-283
-124,75,199,24,-161,137,145,192,363,39,-181,-298
-125,81,206,22,-165,143,146,198,372,39,-194,-306
-123,88,211,17,-167,149,145,203,382,39,-209,-310
-120,99,219,10,-169,159,146,204,388,36,-218,-316
-121,113,234,4,-177,173,149,203,393,30,-222,-323
-123,122,245,0,-184,183,154,205,398,26,-228,-329
-125,128,253,-1,-189,190,159,211,403,24,-239,-333
-126,137,263,-5,-194,200,162,219,405,23,-251,-340
-125,147,272,-11,-198,209,162,224,404,24,-260,-348
-126,155,281,-14,-203,218,156,220,406,23,-265,-354
-129,159,288,-15,-208,223,148,211,408,20,-267,-356
-133,164,297,-15,-215,230,143,207,408,16,-268,-354
-136,172,308,-18,-222,240,141,205,406,14,-268,-352
-133,179,312,-23,-222,245,139,197,402,14,-266,-349
-127,187,314,-30,-220,250,136,184,397,17,-263,-346
-124,194,318,-35,-221,256,135,173,389,21,-261,-344
-122,201,323,-39,-222,262,133,166,379,23,-259,-342
-120,208,328,-44,-224,268,124,162,367,24,-254,-338
-117,213,330,-48,-223,271,110,157,354,24,-247,-330
-116,214,330,-49,-223,272,102,152,344,23,-236,-316
-113,213,326,-50,-219,269,98,144,334,23,-223,-298
-106,215,321,-54,-213,268,94,133,323,25,-211,-280
-98,215,313,-58,-205,264,88,120,308,28,-199,-263
-96,208,304,-56,-200,256,84,111,289,28,-185,-247
-97,197,294,-50,-195,245,79,105,269,27,-167,-230
-92,193,285,-50,-188,239,74,94,253,34,-149,-212
-81,194,275,-56,-178,234,66,81,239,48,-131,-192
-71,195,266,-62,-168,230,56,72,223,60,-117,-169
-64,192,256,-64,-160,224,46,65,205,70,-102,-144
-60,184,244,-62,-152,214,36,56,190,76,-84,-122
-55,176,231,-60,-143,203,26,46,179,80,-61,-103
-47,173,220,-63,-133,196,19,38,167,83,-38,-85
-37,172,209,-67,-123,190,14,34,155,86,-19,-69
-29,162,191,-66,-110,176,13,32,143,89,-7,-52
-25,146,171,-60,-98,158,14,30,130,91,-1,-38
-21,132,153,-55,-87,142,13,24,117,91,3,-28
-19,121,140,-51,-79,130,10,16,105,88,7,-21
-18,107,125,-44,-71,116,7,9,95,83,10,-13
-18,91,109,-36,-63,100,4,5,85,76,12,-6
-19,81,100,-31,-59,90,2,2,74,66,16,-1
-19,75,94,-28,-56,84,3,0,62,56,19,0
-18,66,84,-24,-51,75,6,0,52,49,16,1
-18,55,73,-18,-45,64,12,0,45,44,11,3
-20,49,69,-14,-44,59,15,0,39,38,6,4
-23,45,68,-11,-45,56,14,3,32,31,4,3
-24,36,60,-6,-42,48,13,5,20,25,3,5
-24,22,46,1,-35,34,13,7,7,20,3,8
-23,14,37,4,-30,25,15,10,1,16,4,10
-23,10,33,6,-28,21,17,13,0,11,4,10
-26,6,32,10,-29,19,21,14,-3,5,2,5
-32,1,33,15,-32,17,23,14,-11,-1,-1,-1
-35,-1,34,18,-34,16,22,14,-18,-8,-8,-8
-34,0,34,17,-34,17,19,14,-22,-16,-16,-12
-32,1,33,15,-32,17,18,13,-26,-22,-22,-14
-29,3,32,13,-30,17,18,13,-28,-27,-24,-14
-28,3,31,12,-29,17,18,16,-29,-30,-23,-13
-28,1,29,13,-28,15,18,22,-28,-32,-22,-13
-30,-3,27,16,-28,12,19,24,-29,-36,-28,-16
-33,-7,26,20,-29,9,22,24,-29,-41,-36,-22
-34,-10,24,22,-29,7,26,24,-27,-44,-40,-26
-34,-9,25,21,-29,8,28,24,-24,-46,-41,-28
-34,-7,27,20,-30,10,28,22,-24,-50,-47,-30
-34,-4,30,19,-32,13,25,19,-28,-56,-55,-33
-33,-3,30,18,-31,13,21,18,-29,-59,-60,-33
-33,-3,30,18,-31,13,19,18,-29,-62,-62,-33
-36,-6,30,21,-33,12,18,19,-28,-65,-63,-36
-41,-11,30,26,-35,9,18,19,-28,-70,-66,-41
-45,-17,28,31,-36,5,19,19,-29,-76,-71,-43
-47,-22,25,34,-36,1,19,19,-29,-81,-76,-43
-49,-24,25,36,-37,0,18,18,-28,-82,-80,-42
-51,-24,27,37,-39,1,18,18,-28,-81,-81,-42
-54,-24,30,39,-42,3,21,20,-29,-84,-81,-43
-57,-24,33,40,-45,4,27,23,-29,-90,-81,-45
-58,-21,37,39,-47,8,30,24,-28,-94,-84,-53
-58,-15,43,36,-50,14,29,24,-28,-96,-90,-64
-57,-11,46,34,-51,17,28,23,-29,-97,-94,-71
-58,-9,49,33,-53,20,28,24,-29,-97,-96,-73
-57,-8,49,32,-53,20,28,23,-27,-96,-97,-72
-57,-8,49,32,-53,20,28,23,-25,-96,-97,-72
-59,-9,50,34,-54,20,30,25,-22,-97,-96,-74
-62,-9,53,35,-57,22,32,28,-19,-97,-96,-77
-63,-8,55,35,-59,23,35,29,-18,-96,-98,-78
-63,-8,55,35,-59,23,38,29,-18,-96,-101,-77
-62,-9,53,35,-57,22,40,28,-18,-98,-102,-78
-62,-9,53,35,-57,22,42,28,-18,-101,-101,-81
-63,-7,56,35,-59,24,43,29,-20,-101,-103,-82
-63,-5,58,34,-60,26,43,28,-23,-97,-106,-82
-61,-2,59,31,-60,28,43,29,-24,-96,-107,-80
-59,0,59,29,-59,29,43,29,-23,-96,-107,-78
-56,1,57,27,-56,29,42,28,-24,-97,-105,-76
-53,3,56,25,-54,29,39,28,-24,-97,-103,-74
-52,4,56,24,-54,30,37,30,-20,-95,-100,-71
-52,4,56,24,-54,30,34,33,-14,-92,-97,-68
-53,1,54,26,-53,27,32,35,-15,-91,-96,-67
-53,-2,51,27,-52,24,30,34,-22,-91,-96,-67
-52,-5,47,28,-49,21,27,31,-25,-92,-97,-67
-52,-4,48,28,-50,22,24,25,-24,-92,-97,-67
-53,-2,51,27,-52,24,23,21,-23,-90,-95,-68
-53,0,53,26,-53,26,23,19,-23,-87,-93,-68
-50,0,50,25,-50,25,24,18,-25,-86,-90,-65
-44,0,44,22,-44,22,24,19,-28,-86,-88,-59
-41,0,41,20,-41,20,23,17,-29,-87,-84,-55
-42,0,42,21,-42,21,23,15,-28,-86,-79,-53
-44,0,44,22,-44,22,24,12,-30,-87,-74,-51
-47,0,47,23,-47,23,24,9,-33,-87,-69,-48
-48,0,48,24,-48,24,21,8,-34,-85,-66,-46
-48,0,48,24,-48,24,15,8,-33,-83,-63,-43
-47,0,47,23,-47,23,11,9,-35,-80,-61,-41
-47,0,47,23,-47,23,9,9,-38,-78,-58,-39
-48,0,48,24,-48,24,8,8,-39,-77,-57,-38
-48,0,48,24,-48,24,8,8,-39,-77,-57,-38
-47,0,47,23,-47,23,9,9,-38,-78,-58,-38
-47,0,47,23,-47,23,9,9,-38,-78,-58,-38
-48,1,49,23,-48,25,9,7,-39,-76,-56,-39
-48,3,51,22,-49,27,9,5,-39,-74,-54,-39
-47,3,50,22,-48,26,8,2,-37,-71,-51,-37
-47,0,47,23,-47,23,8,0,-34,-69,-49,-34
-48,-1,47,24,-47,23,9,0,-33,-65,-46,-33
-48,0,48,24,-48,24,9,0,-33,-63,-43,-33
-46,2,48,22,-47,25,7,0,-34,-63,-42,-33
-41,9,50,16,-45,29,4,0,-34,-64,-41,-30
-35,22,57,6,-46,39,3,0,-33,-58,-33,-24
-30,40,70,-5,-50,55,3,0,-30,-47,-22,-16
-27,60,87,-16,-57,73,4,0,-26,-37,-15,-9
-25,80,105,-27,-65,92,7,-3,-21,-30,-14,-5
-21,95,116,-37,-68,105,12,-5,-15,-26,-12,-2
-16,104,120,-44,-68,112,20,-5,-10,-24,-10,-1
-10,110,120,-50,-65,115,28,0,-6,-23,-7,2
-5,112,117,-53,-61,114,38,6,-1,-20,-4,7
-3,110,113,-53,-58,111,52,13,2,-14,-2,9
-3,107,110,-52,-56,108,65,18,7,-6,0,9
-4,109,113,-52,-58,111,67,19,11,0,0,8
-1,117,118,-58,-59,117,57,18,13,3,0,8
4,129,125,-66,-60,127,45,19,14,4,0,8
12,142,130,-77,-59,136,31,20,14,4,3,8
15,151,136,-83,-60,143,9,14,13,2,4,9
17,160,143,-88,-63,151,-18,6,13,2,7,12
24,175,151,-99,-63,163,-45,2,15,9,13,18
35,194,159,-114,-62,176,-71,1,18,20,21,26
42,205,163,-123,-60,184,-98,-3,19,27,26,31
46,211,165,-128,-59,188,-126,-11,18,28,28,33
51,220,169,-135,-59,194,-150,-17,19,29,29,34
59,231,172,-145,-56,201,-172,-21,20,29,29,34
68,235,167,-151,-49,201,-192,-29,14,25,26,33
73,231,158,-152,-42,194,-209,-42,1,17,20,33
70,223,153,-146,-41,188,-218,-56,-13,8,18,34
61,213,152,-137,-45,182,-219,-69,-25,1,18,34
53,202,149,-127,-48,175,-217,-77,-32,-1,18,33
49,192,143,-120,-47,167,-214,-81,-33,0,18,33
45,187,142,-116,-48,164,-213,-83,-34,1,21,35
45,186,141,-115,-48,163,-213,-85,-34,3,27,40
54,181,127,-117,-36,154,-216,-89,-33,5,30,47
68,175,107,-121,-19,141,-218,-91,-33,8,32,55
78,176,98,-127,-10,137,-217,-90,-36,10,36,60
85,185,100,-135,-7,142,-211,-87,-41,9,41,62
90,197,107,-143,-8,152,-205,-87,-45,6,43,65
95,200,105,-147,-5,152,-199,-87,-47,1,43,70
99,177,78,-138,10,127,-185,-83,-48,0,43,76
101,136,35,-118,33,85,-166,-75,-48,0,43,80
103,103,0,-103,51,51,-154,-69,-48,0,41,84
105,83,-22,-94,63,30,-147,-65,-48,0,41,89
110,69,-41,-89,75,14,-142,-58,-47,0,48,97
115,57,-58,-86,86,0,-137,-50,-44,2,59,108
118,45,-73,-81,95,-14,-133,-44,-38,7,66,117
119,38,-81,-78,100,-21,-131,-37,-28,14,70,123
127,45,-82,-86,104,-18,-131,-25,-16,26,79,128
132,61,-71,-96,101,-5,-129,-9,-2,38,93,131
121,74,-47,-97,84,13,-115,3,14,47,100,128
93,78,-15,-85,54,31,-89,14,30,49,96,118
65,74,9,-69,28,41,-60,25,36,43,81,99
41,66,25,-53,8,45,-36,33,35,32,60,76
23,58,35,-40,-6,46,-21,30,31,23,43,57
9,50,41,-29,-16,45,-15,16,24,14,33,46
-4,42,46,-19,-25,44,-12,-4,7,-1,21,37
-18,33,51,-7,-34,42,-10,-29,-15,-21,6,28
-34,22,56,6,-45,39,-6,-52,-36,-39,-12,16
-48,9,57,19,-52,33,-1,-66,-49,-50,-29,4
-56,-5,51,30,-53,23,2,-65,-54,-54,-36,-6
-58,-20,38,39,-48,9,7,-53,-53,-53,-34,-15
-57,-27,30,42,-43,1,12,-40,-52,-52,-35,-25
-58,-28,30,43,-44,1,17,-31,-52,-52,-40,-32
-57,-30,27,43,-42,-1,20,-27,-52,-54,-45,-32
-57,-33,24,45,-40,-4,20,-28,-52,-56,-47,-26
-58,-34,24,46,-41,-5,16,-29,-55,-59,-48,-21
-58,-34,24,46,-41,-5,10,-32,-60,-62,-47,-19
-55,-32,23,43,-39,-4,8,-37,-65,-63,-48,-18
-49,-29,20,39,-34,-4,8,-45,-67,-63,-48,-18
-46,-28,18,37,-32,-5,9,-51,-67,-61,-45,-19
-47,-28,19,37,-33,-4,8,-53,-64,-59,-40,-19
-48,-30,18,39,-33,-6,9,-50,-60,-56,-38,-17
-48,-32,16,40,-32,-8,9,-44,-58,-53,-38,-14
-48,-35,13,41,-30,-11,7,-42,-57,-52,-39,-13
-48,-38,10,43,-29,-14,4,-46,-58,-52,-39,-13
-46,-40,6,43,-26,-17,3,-50,-57,-53,-38,-14
-43,-40,3,41,-23,-18,3,-52,-54,-52,-38,-17
-42,-34,8,38,-25,-13,3,-53,-50,-53,-40,-22
-42,-26,16,34,-29,-5,3,-53,-48,-56,-44,-27
-44,-23,21,33,-32,-1,5,-52,-48,-62,-54,-30
-49,-24,25,36,-37,0,10,-50,-48,-72,-70,-35
-59,-20,39,39,-49,9,21,-43,-45,-87,-91,-47
-72,-9,63,40,-67,27,31,-35,-42,-106,-115,-67
-84,4,88,40,-86,46,33,-35,-47,-135,-142,-94
-94,23,117,35,-105,70,27,-46,-58,-163,-167,-122
-101,54,155,23,-128,104,20,-64,-68,-173,-183,-141
-108,95,203,6,-155,149,13,-87,-77,-166,-192,-155
-119,136,255,-8,-187,195,0,-113,-92,-151,-198,-170
-129,177,306,-24,-217,241,-19,-145,-117,-129,-196,-183
-129,224,353,-47,-241,288,-45,-189,-155,-93,-170,-180
-118,283,401,-82,-259,342,-82,-254,-211,-50,-118,-156
-100,360,460,-130,-280,410,-138,-345,-288,-11,-47,-112
-74,440,514,-183,-294,477,-206,-452,-378,23,38,-51
-41,500,541,-229,-291,520,-272,-545,-462,68,145,23
4,543,539,-273,-267,541,-332,-614,-510,159,300,135
72,591,519,-331,-223,555,-391,-655,-488,341,543,322
151,630,479,-390,-164,554,-443,-664,-398,579,827,550
217,618,401,-417,-92,509,-471,-637,-271,783,1047,739
270,535,265,-402,2,400,-470,-591,-138,962,1202,884
327,382,55,-354,136,218,-444,-556,-33,1190,1366,1034
389,188,-201,-288,295,-6,-410,-541,23,1459,1552,1199
449,4,-445,-226,447,-220,-391,-543,19,1696,1728,1353
502,-167,-669,-167,585,-418,-384,-536,-20,1867,1881,1494
549,-355,-904,-97,726,-629,-366,-483,-46,1968,2014,1636
588,-564,-1152,-12,870,-858,-334,-400,-89,1953,2093,1760
613,-774,-1387,80,1000,-1080,-304,-336,-233,1746,2063,1823
618,-967,-1585,174,1101,-1276,-278,-314,-511,1287,1886,1805
597,-1121,-1718,262,1157,-1419,-249,-330,-910,540,1548,1706
551,-1236,-1787,342,1169,-1511,-212,-366,-1349,-350,1096,1534
486,-1320,-1806,417,1146,-1563,-167,-395,-1703,-1113,628,1307
413,-1369,-1782,478,1097,-1575,-124,-413,-1909,-1626,200,1054
343,-1371,-1714,514,1028,-1542,-99,-427,-1957,-1891,-156,816
283,-1348,-1631,532,957,-1489,-85,-433,-1890,-1969,-426,614
237,-1341,-1578,552,907,-1459,-61,-413,-1783,-1959,-598,458
205,-1336,-1541,565,873,-1438,-37,-378,-1666,-1902,-684,339
180,-1277,-1457,548,818,-1367,-40,-354,-1531,-1789,-714,233
148,-1165,-1313,508,730,-1239,-64,-347,-1377,-1635,-721,119
96,-1046,-1142,475,619,-1094,-77,-343,-1210,-1475,-741,-16
32,-931,-963,449,497,-947,-67,-336,-1036,-1308,-755,-145
-19,-806,-787,412,384,-796,-40,-321,-862,-1113,-708,-204
-52,-676,-624,364,286,-650,-7,-302,-702,-905,-610,-200
-77,-565,-488,321,205,-526,18,-290,-566,-728,-517,-190
-94,-473,-379,283,142,-426,34,-277,-457,-592,-445,-188
-96,-389,-293,242,98,-341,44,-246,-366,-484,-378,-174
-89,-311,-222,200,66,-266,50,-196,-282,-394,-314,-149
-85,-243,-158,164,36,-200,57,-143,-194,-314,-261,-131
-86,-188,-102,137,8,-145,65,-95,-108,-241,-219,-120
-86,-146,-60,116,-13,-103,71,-54,-40,-176,-181,-109
-83,-114,-31,98,-26,-72,76,-22,4,-120,-147,-96
-78,-82,-4,80,-37,-43,79,-6,36,-78,-122,-85
-74,-52,22,63,-48,-15,81,-2,57,-50,-106,-79
-72,-32,40,52,-56,4,81,-6,67,-36,-96,-77
-72,-21,51,46,-61,15,79,-7,73,-31,-89,-78
-73,-16,57,44,-65,20,76,5,88,-23,-84,-76
-73,-14,59,43,-66,22,73,27,110,-12,-82,-73
-72,-12,60,42,-66,24,72,39,122,-4,-82,-73
-72,-10,62,41,-67,26,72,40,122,1,-83,-76
-73,-7,66,40,-69,29,74,37,121,8,-78,-78
-73,-2,71,37,-72,34,77,34,121,16,-70,-78
-72,4,76,34,-74,40,78,32,122,22,-65,-76
-72,11,83,30,-77,47,78,32,124,27,-63,-74
-73,15,88,29,-80,51,76,37,130,32,-61,-71
-73,14,87,29,-80,50,73,45,141,37,-59,-68
-70,13,83,28,-76,48,72,49,152,41,-56,-66
-65,13,78,26,-71,45,72,49,159,42,-53,-64
-60,14,74,23,-67,44,74,46,160,42,-52,-61
-57,16,73,20,-65,44,77,43,157,42,-52,-58
-59,23,82,18,-70,52,77,42,154,44,-53,-57
-62,31,93,15,-77,62,77,42,155,50,-53,-57
-63,36,99,13,-81,67,80,43,157,57,-51,-57
-63,35,98,14,-80,66,85,46,159,62,-47,-57
-63,30,93,16,-78,61,88,51,162,61,-50,-59
-63,24,87,19,-75,55,88,56,164,52,-58,-64
-61,25,86,18,-73,55,84,58,165,41,-69,-73
-58,31,89,13,-73,60,79,58,165,31,-77,-80
-57,35,92,11,-74,63,78,57,164,28,-75,-81
-57,34,91,11,-74,62,80,57,164,31,-66,-76
-59,33,92,13,-75,62,82,58,167,36,-59,-68
-62,34,96,14,-79,65,82,58,172,41,-57,-63
-63,32,95,15,-79,63,81,56,177,45,-59,-63
-63,29,92,17,-77,60,81,56,179,47,-62,-67
-61,28,89,16,-75,58,82,62,181,48,-63,-68
-59,28,87,15,-73,57,83,71,183,47,-63,-67
-56,28,84,14,-70,56,78,71,186,49,-62,-70
-53,28,81,12,-67,54,67,65,189,52,-62,-75
-52,31,83,10,-67,57,56,61,190,53,-64,-79
-52,36,88,8,-70,62,49,62,190,53,-67,-81
-53,41,94,6,-73,67,48,64,190,52,-68,-83
-53,46,99,3,-76,72,54,66,193,52,-67,-86
-52,50,102,1,-77,76,62,69,198,55,-69,-87
-52,53,105,0,-78,79,67,72,206,61,-72,-87
-53,50,103,1,-78,76,67,72,212,64,-73,-86
-53,44,97,4,-75,70,64,72,216,63,-72,-87
-52,43,95,4,-73,69,62,74,222,62,-73,-86
-52,46,98,3,-75,72,62,79,227,62,-76,-86
-53,48,101,2,-77,74,62,84,230,62,-79,-88
-53,48,101,2,-77,74,62,86,232,62,-81,-91
-52,48,100,2,-76,74,63,86,237,63,-82,-91
-52,51,103,0,-77,77,66,86,245,66,-82,-90
-53,56,109,-1,-81,82,69,89,250,70,-81,-95
-53,63,116,-5,-84,89,72,94,255,76,-78,-104
-52,74,126,-11,-89,100,73,99,263,79,-76,-108
-52,84,136,-16,-94,110,73,101,273,81,-76,-107
-55,87,142,-16,-98,114,72,103,282,82,-80,-108
-61,83,144,-11,-102,113,72,105,289,82,-85,-114
-63,80,143,-8,-103,111,73,108,295,81,-86,-120
-62,80,142,-9,-102,111,73,110,303,81,-85,-125
-64,84,148,-10,-106,116,72,113,312,83,-91,-126
-67,90,157,-11,-112,123,69,116,322,85,-103,-125
-67,93,160,-13,-113,126,65,117,330,88,-110,-128
-67,95,162,-14,-114,128,62,119,337,91,-111,-133
-70,99,169,-14,-119,134,65,126,347,93,-112,-138
-76,104,180,-14,-128,142,71,136,360,95,-115,-143
-79,110,189,-15,-134,149,74,145,373,99,-118,-150
-78,115,193,-18,-135,154,73,150,385,105,-123,-157
-77,118,195,-20,-136,156,72,151,396,108,-130,-164
-77,123,200,-23,-138,161,72,150,405,111,-138,-171
-77,131,208,-27,-142,169,74,151,413,113,-142,-180
-77,142,219,-32,-148,180,77,154,420,116,-143,-191
-78,148,226,-35,-152,187,78,158,429,118,-152,-198
-80,149,229,-34,-154,189,77,163,440,118,-165,-202
-84,153,237,-34,-160,195,78,165,447,114,-173,-207
-89,161,250,-36,-169,205,81,165,451,108,-174,-216
-96,169,265,-36,-180,217,82,164,456,105,-176,-222
-103,176,279,-36,-191,227,82,164,461,106,-182,-226
-111,185,296,-37,-203,240,80,166,463,108,-188,-233
-116,195,311,-39,-213,253,75,166,463,111,-193,-241
-115,205,320,-45,-217,262,68,160,463,112,-195,-245
-109,214,323,-52,-216,268,60,149,463,112,-195,-245
-103,226,329,-61,-216,277,56,142,461,111,-194,-241
-99,239,338,-70,-218,288,54,138,455,111,-191,-236
-93,248,341,-77,-217,294,49,129,449,114,-186,-229
-88,251,339,-81,-213,295,42,116,442,119,-178,-218
-85,255,340,-85,-212,297,34,106,432,125,-170,-207
-82,260,342,-89,-212,301,27,99,419,129,-163,-197
-80,266,346,-93,-213,306,17,92,406,131,-157,-194
-78,271,349,-96,-213,310,7,82,394,131,-149,-195
-77,273,350,-98,-213,311,1,71,384,130,-139,-191
-75,272,347,-98,-211,309,0,58,374,130,-126,-180
-68,275,343,-103,-205,309,-1,44,363,132,-116,-167
-60,278,338,-109,-199,308,-6,29,348,135,-106,-156
-57,274,331,-108,-194,302,-11,17,329,136,-94,-143
-58,265,323,-103,-190,294,-16,8,309,135,-79,-131
-54,262,316,-104,-185,289,-22,-3,292,137,-63,-118
-43,266,309,-111,-176,287,-30,-18,279,140,-48,-104
-33,269,302,-118,-167,285,-38,-30,263,141,-35,-85
-26,268,294,-121,-160,281,-48,-39,246,140,-23,-65
-21,266,287,-122,-154,276,-60,-48,228,142,-12,-49
-16,266,282,-125,-149,274,-72,-59,211,145,-3,-38
-9,272,281,-131,-145,276,-83,-67,193,146,4,-28
0,278,278,-139,-139,278,-90,-72,176,146,11,-18
7,272,265,-139,-129,268,-92,-72,162,145,18,-6
12,254,242,-133,-115,248,-91,-72,150,143,25,4
15,241,226,-128,-105,233,-93,-75,138,137,32,12
18,230,212,-124,-97,221,-96,-80,126,128,37,17
19,211,192,-115,-86,201,-96,-81,117,123,40,22
19,185,166,-102,-73,175,-93,-76,110,119,41,27
18,163,145,-90,-63,154,-89,-67,101,113,45,29
18,146,128,-82,-55,137,-84,-59,91,105,48,29
19,133,114,-76,-47,123,-77,-57,82,97,45,29
19,121,102,-70,-41,111,-70,-58,75,90,37,29
17,112,95,-64,-39,103,-65,-56,69,82,30,27
14,105,91,-59,-38,98,-63,-53,62,72,25,24
13,95,82,-54,-34,88,-62,-53,50,61,21,23
13,82,69,-47,-28,75,-63,-56,37,48,16,24
14,73,59,-43,-22,66,-62,-59,31,35,10,23
14,69,55,-41,-20,62,-59,-62,30,22,5,20
11,65,54,-38,-21,59,-54,-63,25,15,1,16
5,59,54,-32,-24,56,-49,-63,17,14,-1,10
2,56,54,-29,-26,55,-47,-62,10,13,-8,6
3,57,54,-30,-25,55,-47,-62,5,10,-16,4
4,59,55,-31,-25,57,-48,-63,2,6,-21,3
4,62,58,-33,-27,60,-48,-63,0,1,-24,3
3,63,60,-33,-28,61,-48,-60,0,0,-23,4
1,60,59,-30,-29,59,-48,-55,0,-2,-22,4
-2,53,55,-25,-28,54,-46,-51,-1,-7,-27,2
-7,43,50,-18,-28,46,-44,-48,-7,-15,-36,-2
-11,34,45,-11,-28,39,-41,-46,-10,-22,-40,-5
-13,29,42,-8,-27,35,-39,-43,-13,-27,-41,-7
-14,29,43,-7,-28,36,-37,-42,-15,-32,-46,-11
-14,32,46,-9,-30,39,-35,-43,-18,-37,-55,-17
-13,34,47,-10,-30,40,-32,-42,-19,-40,-60,-20
-13,33,46,-10,-29,39,-29,-39,-19,-42,-62,-22
-14,34,48,-10,-31,41,-27,-38,-18,-45,-64,-26
-14,37,51,-11,-32,44,-25,-38,-18,-50,-70,-32
-12,40,52,-14,-32,46,-21,-39,-19,-56,-77,-34
-9,42,51,-16,-30,46,-19,-38,-19,-61,-84,-34
-9,43,52,-17,-30,47,-20,-39,-18,-63,-89,-33
-12,43,55,-15,-33,49,-23,-39,-18,-62,-91,-33
-15,42,57,-13,-36,49,-23,-37,-19,-64,-91,-34
-18,42,60,-12,-39,51,-20,-34,-19,-70,-91,-36
-20,43,63,-11,-41,53,-18,-33,-18,-75,-94,-42
-22,43,65,-10,-43,54,-18,-33,-18,-77,-99,-50
-25,42,67,-8,-46,54,-19,-33,-18,-77,-103,-54
-28,40,68,-6,-48,54,-18,-33,-18,-77,-105,-53
-30,37,67,-3,-48,52,-19,-35,-19,-79,-109,-52
-32,35,67,-1,-49,51,-19,-38,-19,-84,-114,-52
-36,32,68,2,-52,50,-17,-39,-18,-90,-120,-54
-41,29,70,6,-55,49,-14,-39,-18,-96,-124,-57
-43,28,71,7,-57,49,-13,-38,-19,-95,-126,-58
-43,28,71,7,-57,49,-13,-38,-19,-89,-124,-57
-42,29,71,6,-56,50,-14,-39,-18,-84,-118,-59
-42,29,71,6,-56,50,-14,-39,-18,-82,-113,-61
-44,27,71,8,-57,49,-13,-38,-19,-81,-112,-63
-46,21,67,12,-56,44,-10,-35,-19,-81,-115,-63
-48,14,62,17,-55,38,-7,-32,-17,-83,-117,-61
-48,9,57,19,-52,33,-4,-29,-14,-85,-117,-59
-46,10,56,18,-51,33,-3,-28,-14,-87,-115,-56
-43,16,59,13,-51,37,-3,-29,-14,-87,-113,-54
-42,22,64,10,-53,43,-3,-28,-11,-85,-110,-51
-43,24,67,9,-55,45,-3,-25,-5,-82,-107,-48
-42,21,63,10,-52,42,-4,-21,-5,-81,-106,-47
-40,16,56,12,-48,36,-7,-19,-11,-81,-106,-47
-37,12,49,12,-43,30,-10,-19,-15,-82,-107,-48
-34,13,47,10,-40,30,-12,-22,-14,-82,-108,-47
-33,15,48,9,-40,31,-15,-24,-12,-80,-103,-48
-34,18,52,8,-43,35,-17,-24,-10,-78,-95,-48
-32,19,51,6,-41,35,-20,-22,-7,-77,-87,-46
-29,19,48,5,-38,33,-23,-19,-4,-77,-82,-44
-29,18,47,5,-38,32,-24,-18,-4,-78,-82,-42
-32,15,47,8,-39,31,-24,-18,-7,-78,-86,-40
-34,11,45,11,-39,28,-23,-20,-9,-77,-86,-36
-34,5,39,14,-36,22,-23,-23,-9,-74,-83,-30
-33,2,35,15,-34,18,-25,-24,-8,-70,-81,-27
-33,3,36,15,-34,19,-28,-23,-8,-64,-81,-28
-35,5,40,15,-37,22,-29,-25,-10,-61,-82,-29
-38,7,45,15,-41,26,-29,-27,-13,-59,-83,-29
-38,10,48,14,-43,29,-28,-29,-14,-55,-79,-27
-35,12,47,11,-41,29,-28,-29,-13,-50,-71,-25
-32,15,47,8,-39,31,-29,-28,-15,-44,-64,-22
-29,18,47,5,-38,32,-29,-28,-18,-40,-59,-20
-28,19,47,4,-37,33,-28,-30,-19,-38,-57,-17
-28,19,47,4,-37,33,-28,-32,-19,-38,-57,-15
-29,18,47,5,-38,32,-28,-35,-18,-39,-58,-12
-29,19,48,5,-38,33,-28,-37,-18,-38,-58,-9
-28,18,46,5,-37,32,-29,-40,-19,-39,-57,-8
-28,18,46,5,-37,32,-29,-42,-19,-39,-58,-8
-29,19,48,5,-38,33,-28,-43,-18,-37,-57,-8
-29,22,51,3,-40,36,-28,-42,-18,-34,-57,-8
-28,26,54,1,-41,40,-29,-44,-19,-33,-58,-10
-28,28,56,0,-42,42,-29,-47,-19,-33,-58,-12
-29,27,56,1,-42,41,-28,-48,-17,-33,-56,-14
-29,27,56,1,-42,41,-28,-48,-14,-33,-54,-14
-26,34,60,-4,-43,47,-31,-47,-13,-35,-52,-13
-21,50,71,-14,-46,60,-36,-48,-14,-38,-50,-10
-16,66,82,-25,-49,74,-40,-47,-13,-37,-44,-7
-14,80,94,-33,-54,87,-42,-47,-10,-31,-36,-4
-14,96,110,-41,-62,103,-43,-49,-7,-25,-32,-4
-14,114,128,-50,-71,121,-43,-55,-4,-20,-33,-7
-12,130,142,-59,-77,136,-41,-60,-3,-17,-33,-10
-6,142,148,-68,-77,145,-37,-63,-1,-14,-30,-10
0,150,150,-75,-75,150,-29,-60,1,-13,-27,-6
6,154,148,-80,-71,151,-18,-51,6,-10,-25,-1
12,156,144,-84,-66,150,-8,-44,11,-5,-21,1
17,159,142,-88,-62,150,0,-39,17,0,-16,3
21,164,143,-92,-61,153,-1,-38,21,7,-12,5
26,174,148,-100,-61,161,-9,-38,23,12,-9,8
33,186,153,-109,-60,169,-19,-38,24,14,-7,9
40,199,159,-119,-59,179,-33,-38,24,14,-4,9
44,209,165,-126,-60,187,-58,-41,23,12,-3,8
46,218,172,-132,-63,195,-92,-46,23,12,-4,8
51,232,181,-141,-65,206,-122,-49,24,17,-3,10
59,250,191,-154,-66,220,-148,-50,24,26,0,13
65,266,201,-165,-68,233,-178,-57,23,30,0,14
67,280,213,-173,-73,246,-210,-69,23,29,0,14
69,296,227,-182,-79,261,-237,-75,25,29,0,13
71,310,239,-190,-84,274,-256,-79,25,29,0,13
73,308,235,-190,-81,271,-270,-87,18,27,-2,14
73,292,219,-182,-73,255,-280,-100,3,21,-7,17
71,272,201,-171,-65,236,-284,-113,-12,15,-10,20
68,254,186,-161,-59,220,-284,-123,-25,10,-9,23
67,239,172,-153,-52,205,-280,-128,-31,8,-8,24
68,227,159,-147,-45,193,-275,-130,-30,8,-5,27
66,220,154,-143,-44,187,-270,-130,-27,10,0,31
66,215,149,-140,-41,182,-267,-130,-24,12,6,39
73,211,138,-142,-32,174,-270,-132,-23,15,10,47
86,205,119,-145,-16,162,-275,-135,-23,17,12,55
97,202,105,-149,-4,153,-279,-135,-25,20,16,59
104,202,98,-153,3,150,-279,-132,-27,20,22,61
110,207,97,-158,6,152,-275,-129,-30,15,23,65
115,211,96,-163,9,153,-268,-127,-32,7,20,70
118,201,83,-159,17,142,-254,-122,-35,1,17,75
121,175,54,-148,33,114,-236,-115,-38,0,15,77
122,142,20,-132,51,81,-220,-108,-39,0,12,78
124,110,-14,-117,69,48,-206,-100,-39,0,12,80
128,82,-46,-105,87,18,-191,-91,-38,0,18,85
134,63,-71,-98,102,-4,-178,-81,-36,2,29,96
137,54,-83,-95,110,-14,-173,-73,-29,6,38,108
139,55,-84,-97,111,-14,-177,-66,-18,14,44,121
144,63,-81,-103,112,-9,-182,-56,-8,24,53,131
145,73,-72,-109,108,0,-180,-41,2,35,64,136
129,81,-48,-105,88,16,-162,-23,18,42,69,132
96,83,-13,-89,54,35,-131,-4,34,44,66,120
66,79,13,-72,26,46,-102,13,41,40,56,100
43,74,31,-58,6,52,-83,21,37,32,41,77
23,73,50,-48,-13,61,-73,10,28,24,24,58
4,78,74,-41,-35,76,-69,-16,15,14,7,44
-14,86,100,-36,-57,93,-65,-42,0,0,-8,32
-32,89,121,-28,-76,105,-60,-61,-16,-16,-22,19
-44,79,123,-17,-83,101,-54,-73,-31,-31,-37,6
-48,55,103,-3,-75,79,-49,-77,-40,-40,-49,-5
-44,28,72,8,-58,50,-46,-76,-44,-44,-54,-11
-39,6,45,16,-42,25,-41,-71,-43,-43,-53,-13
-42,-4,38,23,-40,17,-34,-64,-42,-42,-54,-15
-55,-7,48,31,-51,20,-23,-59,-43,-42,-60,-21
-71,-12,59,41,-65,23,-14,-57,-42,-44,-65,-27
-83,-21,62,52,-72,20,-9,-57,-42,-46,-67,-32
-89,-25,64,57,-76,19,-10,-57,-45,-48,-68,-34
-88,-25,63,56,-75,19,-16,-57,-50,-48,-67,-31
-84,-22,62,53,-73,20,-20,-58,-54,-46,-68,-25
-79,-19,60,49,-69,20,-19,-61,-54,-44,-68,-20
-77,-18,59,47,-68,20,-18,-64,-50,-41,-65,-18
-77,-18,59,47,-68,20,-15,-64,-45,-40,-59,-19
-78,-19,59,48,-68,20,-11,-59,-40,-37,-57,-18
-78,-19,59,48,-68,20,-5,-50,-39,-34,-57,-15
-77,-18,59,47,-68,20,-3,-46,-39,-35,-58,-13
-77,-18,59,47,-68,20,-3,-46,-41,-39,-58,-13
-78,-19,59,48,-68,20,-4,-49,-44,-46,-58,-15
-78,-20,58,49,-68,19,-4,-52,-47,-52,-58,-17
-75,-15,60,45,-67,22,-4,-52,-47,-51,-56,-19
-67,-7,60,37,-63,26,-4,-49,-47,-46,-54,-19
-57,-1,56,29,-56,27,-3,-47,-49,-40,-52,-18
-50,1,51,24,-50,26,0,-45,-52,-41,-59,-21
-61,9,70,26,-65,39,10,-38,-51,-60,-84,-43
-85,25,110,30,-97,67,22,-29,-50,-95,-122,-79
-109,45,154,32,-131,99,20,-32,-59,-130,-160,-116
-125,68,193,28,-159,130,8,-49,-74,-153,-186,-145
-135,99,234,18,-184,166,2,-68,-77,-151,-200,-165
-139,130,269,4,-204,199,3,-85,-68,-126,-200,-174
-142,150,292,-4,-217,221,1,-99,-59,-95,-184,-173
-142,168,310,-13,-226,239,-12,-122,-67,-63,-153,-166
-138,214,352,-38,-245,283,-42,-172,-110,-27,-111,-153
-128,290,418,-81,-273,354,-87,-250,-183,16,-58,-132
-112,379,491,-133,-301,435,-142,-342,-258,68,10,-93
-88,464,552,-188,-320,508,-204,-433,-324,136,110,-25
-51,528,579,-238,-315,553,-268,-514,-379,228,269,84
0,572,572,-286,-286,572,-332,-582,-419,358,491,242
65,609,544,-337,-239,576,-392,-639,-430,537,758,444
137,622,485,-379,-174,553,-436,-670,-390,752,1030,660
207,574,367,-390,-80,470,-451,-648,-269,968,1249,842
272,458,186,-365,43,322,-437,-585,-99,1170,1411,988
336,301,-35,-318,185,133,-406,-528,32,1360,1557,1134
400,125,-275,-262,337,-75,-377,-500,84,1555,1715,1294
462,-50,-512,-206,487,-281,-368,-499,60,1777,1894,1459
518,-219,-737,-149,627,-478,-374,-501,-3,2002,2077,1617
563,-387,-950,-88,756,-668,-369,-467,-48,2158,2223,1751
594,-562,-1156,-16,875,-859,-344,-405,-120,2118,2267,1840
614,-755,-1369,70,991,-1062,-314,-360,-359,1719,2130,1859
624,-954,-1578,165,1101,-1266,-283,-351,-757,1001,1829,1811
619,-1124,-1743,252,1181,-1433,-248,-365,-1174,188,1467,1726
588,-1244,-1832,328,1210,-1538,-206,-390,-1529,-573,1069,1582
517,-1313,-1830,398,1173,-1571,-158,-408,-1803,-1225,587,1320
416,-1332,-1748,458,1082,-1540,-112,-416,-1983,-1724,61,972
322,-1310,-1632,494,977,-1471,-86,-421,-2064,-2048,-394,651
252,-1275,-1527,511,889,-1401,-77,-417,-2046,-2190,-707,415
208,-1272,-1480,532,844,-1376,-63,-392,-1933,-2159,-848,267
183,-1290,-1473,553,828,-1381,-45,-352,-1763,-2016,-859,182
165,-1266,-1431,550,798,-1348,-47,-322,-1597,-1863,-839,113
135,-1178,-1313,521,724,-1245,-65,-307,-1444,-1723,-833,27
75,-1049,-1124,487,599,-1086,-75,-294,-1263,-1548,-835,-94
-7,-901,-894,454,443,-897,-67,-280,-1058,-1335,-827,-229
-76,-759,-683,417,303,-721,-44,-265,-869,-1121,-786,-313
-116,-635,-519,375,201,-577,-16,-252,-715,-928,-710,-331
-129,-532,-403,330,137,-467,7,-243,-587,-766,-616,-313
-123,-446,-323,284,100,-384,23,-229,-477,-632,-518,-277
-109,-367,-258,238,74,-312,33,-201,-375,-510,-422,-234
-99,-294,-195,196,48,-244,40,-155,-278,-400,-341,-194
-96,-229,-133,162,18,-181,45,-101,-184,-312,-286,-169
-100,-174,-74,137,-13,-124,51,-46,-101,-246,-255,-158
-102,-125,-23,113,-39,-74,54,-1,-36,-188,-229,-152
-98,-84,14,91,-56,-35,56,27,6,-136,-201,-144
-95,-52,43,73,-69,-4,59,35,29,-99,-179,-137
-92,-28,64,60,-78,18,62,28,39,-75,-163,-132
-91,-9,82,50,-86,36,63,19,47,-59,-147,-129
-91,4,95,43,-93,49,62,19,59,-45,-132,-127
-91,12,103,39,-97,57,63,34,80,-30,-120,-123
-91,13,104,39,-97,58,66,58,107,-15,-114,-115
-92,13,105,39,-98,59,69,73,124,-2,-109,-108
-92,13,105,39,-98,59,71,74,130,5,-104,-103
-90,14,104,38,-97,59,74,70,131,12,-97,-102
-84,16,100,34,-92,58,77,65,131,17,-90,-105
-78,22,100,28,-89,61,78,61,130,20,-84,-108
-74,30,104,22,-89,67,78,61,129,23,-82,-111
-72,36,108,18,-90,72,76,66,133,24,-81,-112
-73,38,111,17,-92,74,74,74,141,24,-81,-111
-72,40,112,16,-92,76,72,79,150,23,-82,-113
-69,42,111,13,-90,76,72,79,155,23,-85,-116
-67,43,110,12,-88,76,74,76,154,24,-88,-117
-67,45,112,11,-89,78,77,73,148,23,-91,-117
-69,52,121,8,-95,86,77,72,144,24,-92,-117
-72,61,133,5,-102,97,77,72,145,24,-93,-117
-73,61,134,6,-103,97,79,73,147,23,-89,-115
-73,48,121,12,-97,84,84,76,149,23,-84,-110
-73,27,100,23,-86,63,88,80,152,24,-80,-103
-73,7,80,33,-76,43,88,85,155,27,-78,-97
-71,5,76,33,-73,40,84,87,156,31,-78,-97
-69,17,86,26,-77,51,79,87,156,36,-78,-100
-67,28,95,19,-81,61,77,86,155,41,-77,-101
-67,32,99,17,-83,65,78,86,155,43,-76,-101
-69,36,105,16,-87,70,75,87,157,41,-80,-105
-71,44,115,13,-93,79,67,87,160,36,-88,-115
-74,52,126,11,-100,89,59,85,161,31,-95,-129
-77,59,136,9,-106,97,54,85,161,29,-100,-142
-78,66,144,6,-111,105,52,91,161,28,-102,-147
-78,74,152,2,-115,113,53,100,163,28,-102,-146
-76,82,158,-3,-117,120,52,100,167,29,-101,-147
-73,87,160,-7,-116,123,51,94,172,32,-98,-151
-73,83,156,-5,-114,119,56,92,178,36,-95,-148
-76,68,144,4,-110,106,67,97,186,40,-90,-137
-79,45,124,17,-101,84,78,106,194,45,-83,-124
-81,23,104,29,-92,63,85,114,201,51,-77,-117
-82,19,101,31,-91,60,86,119,204,54,-81,-119
-82,34,116,24,-99,75,81,121,202,54,-94,-129
-81,52,133,14,-107,92,73,121,196,50,-109,-143
-81,67,148,7,-114,107,65,121,190,44,-119,-153
-82,78,160,2,-121,119,61,123,192,42,-122,-155
-82,84,166,-1,-124,125,62,128,203,42,-119,-149
-81,88,169,-3,-125,128,63,132,213,43,-115,-143
-81,88,169,-3,-125,128,62,135,220,42,-112,-141
-82,84,166,-1,-124,125,63,136,228,43,-111,-140
-85,74,159,5,-122,116,66,138,235,46,-111,-139
-88,59,147,14,-117,103,69,144,241,50,-111,-144
-91,45,136,23,-113,90,72,152,245,55,-111,-153
-91,44,135,23,-113,89,73,158,252,60,-112,-157
-91,56,147,17,-119,101,73,163,263,62,-114,-156
-94,69,163,12,-128,116,72,167,272,63,-119,-157
-100,78,178,11,-139,128,72,172,279,62,-125,-161
-100,85,185,7,-142,135,72,176,287,63,-125,-168
-94,90,184,2,-139,137,72,178,296,66,-122,-173
-89,94,183,-2,-136,138,73,181,308,70,-123,-175
-87,98,185,-5,-136,141,73,184,320,75,-128,-174
-86,106,192,-10,-139,149,72,185,330,79,-131,-176
-85,118,203,-16,-144,160,72,187,337,81,-131,-182
-90,135,225,-22,-157,180,75,193,346,82,-131,-187
-98,151,249,-26,-173,200,80,203,359,85,-134,-192
-104,157,261,-26,-182,209,82,213,372,89,-137,-198
-106,154,260,-24,-183,207,82,221,384,95,-141,-205
-107,148,255,-20,-181,201,81,226,395,97,-152,-212
-107,145,252,-19,-179,198,81,228,405,97,-165,-220
-106,148,254,-21,-180,201,83,229,412,96,-172,-227
-106,154,260,-24,-183,207,86,232,419,96,-173,-233
-107,155,262,-24,-184,208,87,236,429,97,-177,-233
-109,151,260,-21,-184,205,86,242,439,97,-185,-232
-116,152,268,-18,-192,210,87,244,447,94,-193,-238
-129,160,289,-15,-209,224,90,244,451,89,-200,-251
-143,168,311,-12,-227,239,92,243,455,85,-208,-264
-154,175,329,-10,-241,252,92,243,461,86,-219,-273
-154,187,341,-16,-247,264,90,245,463,88,-227,-282
-146,205,351,-29,-248,278,85,245,463,91,-232,-289
-135,222,357,-43,-246,289,78,239,462,92,-234,-293
-127,234,361,-53,-244,297,70,228,463,92,-234,-292
-125,243,368,-59,-246,305,66,220,462,91,-233,-290
-126,250,376,-62,-251,313,64,217,459,91,-230,-288
-124,255,379,-65,-251,317,59,208,456,92,-226,-285
-118,260,378,-71,-248,319,51,195,451,95,-221,-283
-116,265,381,-74,-248,323,44,185,442,98,-216,-281
-119,270,389,-75,-254,329,37,178,430,101,-211,-279
-124,276,400,-76,-262,338,29,171,417,102,-206,-276
-126,281,407,-77,-266,344,21,164,405,102,-199,-272
-124,283,407,-79,-265,345,18,157,394,101,-189,-261
-117,283,400,-83,-258,341,19,150,381,101,-176,-246
-104,283,387,-89,-245,335,17,140,367,103,-163,-231
-90,281,371,-95,-230,326,11,127,350,106,-152,-216
-85,272,357,-93,-221,314,6,116,330,106,-138,-200
-87,258,345,-85,-216,301,2,106,310,106,-120,-182
-83,250,333,-83,-208,291,-2,96,293,109,-102,-167
-72,251,323,-89,-197,287,-9,83,280,118,-85,-153
-65,254,319,-94,-192,286,-19,72,264,125,-70,-136
-65,257,322,-96,-193,289,-29,62,247,129,-55,-116
-70,258,328,-94,-199,293,-37,52,230,132,-40,-98
-73,256,329,-91,-201,292,-41,42,216,135,-26,-84
-69,247,316,-89,-192,281,-43,36,201,136,-11,-70
-58,227,285,-84,-171,256,-43,33,186,136,2,-52
-49,196,245,-73,-147,220,-42,34,173,135,15,-32
-45,163,208,-59,-126,185,-42,35,162,133,24,-15
-40,143,183,-51,-111,163,-44,30,148,127,32,-5
-32,138,170,-53,-101,154,-46,22,130,120,37,-1
-25,131,156,-53,-90,143,-48,16,113,113,39,2
-20,120,140,-50,-80,130,-48,14,99,106,39,7
-18,115,133,-48,-75,124,-47,14,84,95,38,8
-18,116,134,-49,-76,125,-44,14,69,80,36,5
-18,116,134,-49,-76,125,-40,13,56,65,29,2
-18,113,131,-47,-74,122,-35,10,46,53,19,1
-20,110,130,-45,-75,120,-33,7,39,42,9,-1
-22,105,127,-41,-74,116,-33,5,33,33,3,-6
-24,96,120,-36,-72,108,-34,1,22,24,-3,-10
-24,85,109,-30,-66,97,-34,-2,8,17,-10,-13
-23,79,102,-28,-62,90,-33,-4,1,10,-16,-14
-22,78,100,-28,-61,89,-30,-4,0,3,-21,-16
-26,76,102,-25,-64,89,-26,-4,-2,-3,-26,-22
-31,71,102,-20,-66,86,-21,-4,-10,-10,-31,-30
-35,64,99,-14,-67,81,-16,-2,-17,-17,-37,-36
-34,57,91,-11,-62,74,-11,1,-22,-25,-45,-35
-33,47,80,-7,-56,63,-5,7,-25,-31,-50,-30
-33,36,69,-1,-51,52,0,12,-27,-36,-52,-24
-35,34,69,0,-52,51,0,14,-30,-41,-53,-25
-40,45,85,-2,-62,65,-6,11,-35,-48,-58,-35
-46,61,107,-7,-76,84,-11,5,-43,-58,-69,-52
-51,75,126,-12,-88,100,-13,-2,-50,-69,-82,-68
-53,75,128,-11,-90,101,-13,-3,-53,-73,-87,-73
-53,61,114,-4,-83,87,-10,1,-53,-70,-83,-66
-52,45,97,3,-74,71,-8,6,-53,-66,-81,-60
-52,36,88,8,-70,62,-8,8,-57,-67,-84,-57
-52,32,84,10,-68,58,-9,9,-57,-69,-88,-58
-52,33,85,9,-68,59,-9,9,-54,-71,-91,-61
-53,34,87,9,-70,60,-8,8,-51,-74,-92,-65
-56,34,90,11,-73,62,-5,8,-48,-76,-95,-70
-59,33,92,13,-75,62,-2,9,-47,-79,-99,-74
-64,30,94,17,-79,62,0,9,-47,-81,-104,-77
-71,27,98,22,-84,62,0,8,-48,-81,-109,-79
-79,24,103,27,-91,63,0,8,-48,-81,-111,-81
-82,23,105,29,-93,64,1,10,-48,-83,-111,-82
-80,23,103,28,-91,63,3,12,-48,-89,-111,-84
-75,24,99,25,-87,61,3,14,-47,-94,-113,-90
-69,24,93,22,-81,58,1,14,-47,-96,-119,-98
-67,22,89,22,-78,55,0,14,-49,-97,-124,-103
-67,19,86,24,-76,52,0,14,-51,-97,-129,-102
-67,18,85,24,-76,51,0,13,-53,-96,-132,-101
-67,19,86,24,-76,52,0,12,-53,-96,-135,-101
-69,17,86,26,-77,51,0,16,-51,-97,-136,-103
-75,12,87,31,-81,49,3,24,-48,-100,-135,-106
-79,5,84,37,-81,44,4,33,-47,-103,-137,-106
-81,0,81,40,-81,40,4,38,-47,-105,-140,-106
-81,2,83,39,-82,42,3,37,-47,-108,-141,-109
-81,12,93,34,-87,52,4,29,-47,-111,-140,-117
-83,26,109,28,-96,67,3,18,-49,-112,-142,-126
-86,39,125,23,-105,82,3,10,-52,-112,-145,-134
-86,44,130,21,-108,87,4,9,-53,-112,-145,-135
-84,41,125,21,-104,83,7,15,-52,-112,-143,-129
-79,36,115,21,-97,75,10,22,-53,-111,-138,-122
-74,30,104,22,-89,67,12,27,-54,-108,-133,-115
-72,27,99,22,-85,63,16,30,-49,-105,-129,-108
-72,25,97,23,-84,61,21,33,-41,-102,-126,-100
-73,21,94,26,-83,57,26,34,-38,-101,-125,-93
-73,16,89,28,-81,52,30,35,-41,-101,-125,-87
-72,12,84,30,-78,48,25,32,-43,-102,-126,-87
-72,13,85,29,-78,49,14,26,-43,-102,-126,-93
-73,15,88,29,-80,51,4,21,-42,-100,-125,-100
-73,18,91,27,-82,54,-2,19,-43,-98,-122,-105
-72,19,91,26,-81,55,-4,18,-42,-96,-121,-106
-69,19,88,25,-78,53,-4,18,-42,-96,-121,-103
-66,18,84,24,-75,51,-4,19,-44,-97,-121,-100
-63,18,81,22,-72,49,-4,19,-46,-97,-119,-98
-62,20,82,21,-72,51,-2,17,-48,-96,-114,-94
-65,25,90,20,-77,57,0,14,-48,-93,-108,-88
-71,33,104,19,-87,68,0,13,-47,-90,-107,-86
-79,40,119,19,-99,79,-3,14,-47,-87,-110,-86
-83,42,125,20,-104,83,-4,13,-49,-86,-112,-87
-80,38,118,21,-99,78,-3,10,-51,-87,-112,-86
-74,29,103,22,-88,66,-4,7,-53,-86,-111,-87
-66,21,87,22,-76,54,-7,4,-53,-83,-108,-87
-60,17,77,21,-68,47,-10,3,-52,-79,-104,-85
-58,18,76,20,-67,47,-12,3,-52,-75,-99,-80
-58,19,77,19,-67,48,-15,5,-54,-70,-95,-76
-58,19,77,19,-67,48,-18,8,-56,-67,-93,-73
-57,18,75,19,-66,46,-19,8,-58,-69,-90,-72
-54,18,72,18,-63,45,-19,3,-58,-74,-87,-72
-51,19,70,16,-60,44,-18,-3,-57,-81,-86,-74
-48,18,66,15,-57,42,-18,-8,-57,-86,-87,-76
-47,19,66,14,-56,42,-19,-8,-58,-86,-86,-78
-47,19,66,14,-56,42,-19,-3,-58,-81,-83,-78
-48,18,66,15,-57,42,-18,2,-57,-74,-81,-77
-48,18,66,15,-57,42,-19,7,-58,-69,-79,-77
-48,19,67,14,-57,43,-18,10,-57,-67,-75,-78
-48,21,69,13,-58,45,-18,10,-57,-67,-69,-80
-47,26,73,10,-60,49,-19,6,-58,-68,-68,-83
-47,32,79,7,-63,55,-19,1,-58,-68,-71,-85
-48,34,82,7,-65,58,-18,0,-57,-67,-73,-88
-48,37,85,5,-66,61,-18,-1,-57,-67,-74,-90
-46,51,97,-2,-71,74,-20,-7,-59,-69,-83,-93
-41,73,114,-16,-77,93,-22,-16,-62,-73,-95,-96
-36,87,123,-25,-79,105,-24,-18,-62,-70,-94,-96
-34,90,124,-28,-79,107,-24,-12,-60,-62,-80,-93
-34,94,128,-30,-81,111,-23,-6,-55,-54,-68,-91
-34,102,136,-34,-85,119,-21,-4,-50,-49,-63,-91
-32,111,143,-39,-87,127,-16,-4,-46,-46,-62,-91
-27,119,146,-46,-86,132,-8,-4,-43,-44,-59,-89
-20,123,143,-51,-81,133,0,-1,-42,-41,-56,-84
-14,122,136,-54,-75,129,8,5,-40,-39,-53,-79
-14,121,135,-53,-74,128,19,12,-36,-38,-52,-78
-20,120,140,-50,-80,130,28,17,-31,-38,-55,-83
-27,124,151,-48,-89,137,26,19,-27,-40,-61,-90
-30,134,164,-52,-97,149,12,18,-24,-43,-67,-96
-24,147,171,-61,-97,159,-4,19,-22,-41,-65,-96
-10,159,169,-74,-89,164,-22,20,-20,-33,-54,-90
0,169,169,-84,-84,169,-47,16,-17,-25,-42,-83
5,178,173,-91,-84,175,-80,7,-15,-17,-33,-76
14,193,179,-103,-82,186,-111,1,-13,-9,-24,-69
27,214,187,-120,-80,200,-140,-1,-13,-2,-17,-64
39,230,191,-134,-76,210,-171,-8,-15,0,-11,-62
46,240,194,-143,-74,217,-201,-19,-18,0,-9,-62
48,247,199,-147,-75,223,-223,-27,-19,0,-8,-64
45,252,207,-148,-81,229,-238,-31,-21,0,-8,-66
40,250,210,-145,-85,230,-249,-38,-28,-1,-10,-68
36,242,206,-139,-85,224,-259,-50,-43,-8,-15,-70
32,237,205,-134,-86,221,-264,-66,-62,-20,-22,-76
29,237,208,-133,-89,222,-264,-83,-79,-33,-32,-85
28,239,211,-133,-91,225,-260,-98,-92,-43,-45,-98
29,240,211,-134,-91,225,-255,-109,-100,-47,-56,-110
28,236,208,-132,-90,222,-250,-113,-102,-47,-55,-109
27,229,202,-128,-87,215,-248,-112,-102,-44,-41,-96
33,218,185,-125,-76,201,-248,-112,-101,-41,-27,-78
46,208,162,-127,-58,185,-248,-112,-101,-39,-17,-63
57,200,143,-128,-43,171,-246,-110,-102,-38,-10,-55
65,196,131,-130,-33,163,-241,-104,-102,-37,-5,-53
70,192,122,-131,-26,157,-236,-100,-100,-40,-3,-51
75,183,108,-129,-16,145,-230,-99,-98,-46,-3,-45
79,163,84,-121,-2,123,-215,-93,-96,-48,-3,-41
81,137,56,-109,12,96,-194,-83,-96,-48,-3,-39
82,119,37,-100,22,78,-177,-73,-97,-47,-4,-38
85,111,26,-98,29,68,-168,-66,-97,-48,-5,-36
89,100,11,-94,39,55,-162,-59,-96,-47,0,-30
94,83,-11,-88,52,36,-157,-51,-94,-44,9,-19
98,63,-35,-80,66,14,-154,-45,-88,-40,16,-9
100,48,-52,-74,76,-2,-152,-38,-78,-34,21,-2
104,52,-52,-78,78,0,-149,-27,-67,-22,28,1
107,71,-36,-89,71,17,-143,-11,-55,-9,36,1
91,89,-2,-90,46,43,-124,2,-40,0,38,-3
59,97,38,-78,10,67,-94,13,-28,1,30,-15
29,94,65,-61,-18,79,-64,23,-22,-2,16,-33
10,86,76,-48,-33,81,-41,29,-25,-7,2,-54
0,78,78,-39,-39,78,-29,24,-32,-10,-8,-69
-8,72,80,-32,-44,76,-24,9,-41,-13,-14,-78
-20,62,82,-21,-51,72,-23,-8,-55,-27,-24,-85
-37,48,85,-5,-61,66,-20,-22,-73,-50,-38,-95
-57,29,86,14,-71,57,-16,-33,-88,-72,-57,-108
-75,11,86,32,-80,48,-11,-38,-99,-87,-76,-120
-85,-1,84,43,-84,41,-6,-37,-103,-93,-84,-129
-87,-5,82,46,-84,38,-2,-32,-102,-92,-82,-134
-86,0,86,43,-86,43,2,-25,-101,-91,-83,-137
-86,7,93,39,-89,50,7,-20,-102,-91,-89,-140
-86,6,92,40,-89,49,10,-18,-101,-92,-93,-141
-86,-5,81,45,-83,38,10,-18,-101,-92,-93,-140
-87,-21,66,54,-76,22,6,-19,-103,-91,-90,-141
-87,-32,55,59,-71,11,1,-22,-109,-91,-87,-144
-85,-31,54,58,-69,11,0,-25,-113,-92,-87,-146
-80,-17,63,48,-71,23,0,-28,-113,-92,-87,-145
-77,-1,76,39,-76,37,0,-29,-109,-91,-85,-146
-77,8,85,34,-81,46,0,-26,-104,-88,-80,-147
-78,6,84,36,-81,45,1,-20,-100,-84,-76,-142
-78,-5,73,41,-75,34,6,-12,-97,-80,-74,-132
-77,-21,56,49,-66,17,10,-7,-96,-76,-71,-121
-78,-34,44,56,-61,5,13,-7,-97,-73,-69,-113
-77,-41,36,59,-56,-2,14,-10,-96,-72,-67,-111
-77,-41,36,59,-56,-2,14,-13,-93,-72,-67,-114
-78,-35,43,56,-60,4,13,-14,-90,-73,-69,-118
-80,-27,53,53,-66,13,13,-13,-87,-75,-73,-122
-83,-20,63,51,-73,21,14,-14,-87,-80,-83,-130
-87,-14,73,50,-80,29,19,-15,-91,-89,-100,-144
-97,-2,95,49,-96,46,29,-11,-91,-105,-124,-168
-110,14,124,48,-117,69,40,-4,-91,-125,-151,-198
-121,32,153,44,-137,92,42,-6,-94,-144,-175,-226
-128,55,183,36,-155,119,34,-18,-102,-156,-190,-248
-133,92,225,20,-179,158,24,-39,-109,-150,-197,-264
-137,139,276,-1,-206,207,15,-65,-116,-127,-198,-274
-144,176,320,-16,-232,248,1,-88,-130,-98,-189,-280
-150,200,350,-25,-250,275,-19,-113,-158,-67,-166,-278
-148,229,377,-40,-262,303,-48,-151,-203,-27,-121,-263
-133,273,406,-70,-269,339,-86,-209,-263,23,-50,-228
-108,331,439,-111,-273,385,-138,-287,-327,81,42,-166
-74,393,467,-159,-270,430,-201,-373,-388,151,160,-76
-31,435,466,-202,-248,450,-261,-444,-432,240,309,38
23,459,436,-241,-206,447,-316,-493,-452,362,495,179
92,489,397,-290,-152,443,-373,-538,-447,529,721,356
170,516,346,-343,-88,431,-428,-573,-410,725,957,549
239,490,251,-364,-6,370,-458,-575,-333,904,1139,706
294,396,102,-345,96,249,-459,-548,-238,1055,1257,822
347,253,-94,-300,220,79,-445,-530,-180,1202,1362,942
