I,II,III,aVR,aVL,aVF,V1,V2,V3,V4,V5,V6
-107,-78,29,92,-68,-24,185,185,165,-29,-146,-165
-107,-78,29,92,-68,-24,185,185,165,-29,-146,-165
-107,-78,29,92,-68,-24,185,185,165,-29,-146,-165
-107,-78,29,92,-68,-24,185,185,165,-29,-146,-165
-122,-68,53,95,-87,-7,185,175,175,-34,-136,-165
-126,-68,58,97,-92,-4,185,175,175,-39,-136,-165
-131,-68,63,100,-97,-2,185,175,175,-43,-136,-165
-136,-68,68,102,-102,0,185,175,175,-48,-136,-165
-126,-78,48,102,-87,-14,180,170,165,-58,-151,-165
-117,-78,39,97,-78,-19,175,165,165,-58,-156,-165
-107,-78,29,92,-68,-24,170,161,165,-58,-161,-165
-97,-78,19,87,-58,-29,165,156,165,-58,-165,-165
-92,-68,24,80,-58,-21,175,156,165,-48,-165,-170
-87,-68,19,78,-53,-24,175,156,165,-48,-165,-175
-82,-68,14,75,-48,-26,175,156,165,-48,-165,-180
-78,-68,9,73,-43,-29,175,156,165,-48,-165,-185
-102,-73,29,87,-65,-21,185,156,170,-39,-156,-185
-117,-78,39,97,-78,-19,185,156,175,-39,-156,-185
-131,-82,48,107,-90,-17,185,156,180,-39,-156,-185
-146,-87,58,117,-102,-14,185,156,185,-39,-156,-185
-151,-73,78,112,-114,2,195,156,185,-53,-165,-180
-156,-68,87,112,-122,9,195,156,185,-58,-165,-175
-161,-63,97,112,-129,17,195,156,185,-63,-165,-170
-165,-58,107,112,-136,24,195,156,185,-68,-165,-165
-151,-63,87,107,-119,12,180,151,180,-78,-170,-170
-136,-68,68,102,-102,0,175,146,175,-78,-175,-175
-122,-73,48,97,-85,-12,170,141,170,-78,-180,-180
-107,-78,29,92,-68,-24,165,136,165,-78,-185,-185
-107,-68,39,87,-73,-14,175,146,170,-63,-180,-185
-107,-68,39,87,-73,-14,175,146,175,-58,-175,-185
-107,-68,39,87,-73,-14,175,146,180,-53,-170,-185
-107,-68,39,87,-73,-14,175,146,185,-48,-165,-185
-112,-63,48,87,-80,-7,180,146,195,-63,-170,-185
-117,-58,58,87,-87,0,185,146,195,-68,-175,-185
-122,-53,68,87,-95,7,190,146,195,-73,-180,-185
-126,-48,78,87,-102,14,195,146,195,-78,-185,-185
-131,-58,73,95,-102,7,190,136,195,-78,-195,-195
-136,-68,68,102,-102,0,185,136,195,-78,-195,-195
-141,-78,63,109,-102,-7,180,136,195,-78,-195,-195
-146,-87,58,117,-102,-14,175,136,195,-78,-195,-195
-156,-97,58,126,-107,-19,180,126,185,-68,-185,-185
-156,-97,58,126,-107,-19,185,126,185,-68,-185,-185
-156,-97,58,126,-107,-19,190,126,185,-68,-185,-185
-156,-97,58,126,-107,-19,195,126,185,-68,-185,-185
-146,-87,58,117,-102,-14,190,117,175,-78,-195,-195
-136,-78,58,107,-97,-9,185,117,175,-78,-195,-204
-126,-68,58,97,-92,-4,180,117,175,-78,-195,-214
-117,-58,58,87,-87,0,175,117,175,-78,-195,-224
-131,-63,68,97,-100,2,185,117,190,-92,-200,-219
-136,-68,68,102,-102,0,185,117,195,-97,-204,-214
-141,-73,68,107,-104,-2,185,117,200,-102,-209,-209
-146,-78,68,112,-107,-4,185,117,204,-107,-214,-204
-165,-87,78,126,-122,-4,185,107,190,-122,-224,-214
-175,-87,87,131,-131,0,185,107,185,-126,-224,-214
-185,-87,97,136,-141,4,185,107,180,-131,-224,-214
-195,-87,107,141,-151,9,185,107,175,-136,-224,-214
-190,-73,117,131,-153,21,185,97,185,-131,-234,-204
-185,-68,117,126,-151,24,185,97,185,-126,-234,-204
-180,-63,117,122,-148,26,185,97,185,-122,-234,-204
-175,-58,117,117,-146,29,185,97,185,-117,-234,-204
-190,-58,131,124,-161,36,200,97,190,-102,-229,-195
-195,-58,136,126,-165,39,204,97,195,-97,-224,-195
-200,-58,141,129,-170,41,209,97,200,-92,-219,-195
-204,-58,146,131,-175,43,214,97,204,-87,-214,-195
-185,-63,122,124,-153,29,204,82,195,-107,-224,-209
-175,-68,107,122,-141,19,195,68,185,-117,-234,-214
-165,-73,92,119,-129,9,185,53,175,-126,-244,-219
-156,-78,78,117,-117,0,175,39,165,-136,-253,-224
-180,-87,92,134,-136,2,190,39,175,-146,-253,-214
-195,-87,107,141,-151,9,195,39,175,-146,-253,-214
-209,-87,122,148,-165,17,200,39,175,-146,-253,-214
-224,-87,136,156,-180,24,204,39,175,-146,-253,-214
-239,-78,161,158,-200,41,195,24,175,-156,-268,-214
-244,-78,165,161,-204,43,195,19,175,-165,-273,-214
-248,-78,170,163,-209,46,195,14,175,-175,-278,-214
-253,-78,175,165,-214,48,195,9,175,-185,-283,-214
-239,-73,165,156,-202,46,204,4,175,-175,-283,-204
-234,-68,165,151,-200,48,204,0,175,-175,-283,-204
-229,-63,165,146,-197,51,204,-4,175,-175,-283,-204
-224,-58,165,141,-195,53,204,-9,175,-175,-283,-204
-229,-58,170,143,-200,56,204,-19,161,-180,-283,-204
-234,-58,175,146,-204,58,204,-29,156,-185,-283,-204
-239,-58,180,148,-209,61,204,-39,151,-190,-283,-204
-244,-58,185,151,-214,63,204,-48,146,-195,-283,-204
-253,-48,204,151,-229,78,195,-63,136,-200,-273,-200
-253,-48,204,151,-229,78,195,-68,136,-204,-273,-195
-253,-48,204,151,-229,78,195,-73,136,-209,-273,-190
-253,-48,204,151,-229,78,195,-78,136,-214,-273,-185
-253,-39,214,146,-234,87,180,-92,131,-224,-278,-185
-253,-39,214,146,-234,87,175,-107,126,-224,-283,-185
-253,-39,214,146,-234,87,170,-122,122,-224,-287,-185
-253,-39,214,146,-234,87,165,-136,117,-224,-292,-185
-244,-29,214,136,-229,92,156,-146,102,-224,-287,-170
-244,-29,214,136,-229,92,156,-156,97,-224,-283,-165
-244,-29,214,136,-229,92,156,-165,92,-224,-278,-161
-244,-29,214,136,-229,92,156,-175,87,-224,-273,-156
-239,-24,214,131,-226,95,146,-190,73,-229,-268,-146
-234,-19,214,126,-224,97,136,-195,68,-234,-263,-136
-229,-14,214,122,-222,100,126,-200,63,-239,-258,-126
-224,-9,214,117,-219,102,117,-204,58,-244,-253,-117
-219,0,219,109,-219,109,107,-214,34,-229,-239,-102
-214,0,214,107,-214,107,97,-224,19,-224,-234,-97
-209,0,209,104,-209,104,87,-234,4,-219,-229,-92
-204,0,204,102,-204,102,78,-244,-9,-214,-224,-87
-180,19,200,80,-190,109,63,-248,-14,-204,-209,-78
-165,29,195,68,-180,112,58,-253,-19,-204,-195,-68
-151,39,190,56,-170,114,53,-258,-24,-204,-180,-58
-136,48,185,43,-161,117,48,-263,-29,-204,-165,-48
-126,39,165,43,-146,102,34,-273,-43,-190,-146,-34
-126,39,165,43,-146,102,29,-273,-48,-185,-136,-29
-126,39,165,43,-146,102,24,-273,-53,-180,-126,-24
-126,39,165,43,-146,102,19,-273,-58,-175,-117,-19
-122,43,165,39,-143,104,0,-273,-73,-170,-112,-9
-117,48,165,34,-141,107,-9,-273,-78,-165,-107,-9
-112,53,165,29,-139,109,-19,-273,-82,-161,-102,-9
-107,58,165,24,-136,112,-29,-273,-87,-156,-97,-9
-92,58,151,17,-122,104,-39,-263,-78,-141,-87,-4
-78,58,136,9,-107,97,-39,-263,-78,-126,-78,0
-63,58,122,2,-92,90,-39,-263,-78,-112,-68,4
-48,58,107,-4,-78,82,-39,-263,-78,-97,-58,9
-53,58,112,-2,-82,85,-39,-248,-78,-78,-48,14
-58,58,117,0,-87,87,-39,-234,-78,-68,-39,19
-63,58,122,2,-92,90,-39,-219,-78,-58,-29,24
-68,58,126,4,-97,92,-39,-204,-78,-48,-19,29
-48,58,107,-4,-78,82,-39,-195,-68,-43,-14,29
-39,58,97,-9,-68,78,-39,-185,-68,-39,-9,29
-29,58,87,-14,-58,73,-39,-175,-68,-34,-4,29
-19,58,78,-19,-48,68,-39,-165,-68,-29,0,29
-9,48,58,-19,-34,53,-39,-146,-58,-19,0,24
-9,48,58,-19,-34,53,-39,-136,-58,-9,0,19
-9,48,58,-19,-34,53,-39,-126,-58,0,0,14
-9,48,58,-19,-34,53,-39,-117,-58,9,0,9
-24,48,73,-12,-48,61,-29,-102,-48,9,14,19
-29,48,78,-9,-53,63,-29,-87,-39,9,19,19
-34,48,82,-7,-58,65,-29,-73,-29,9,24,19
-39,48,87,-4,-63,68,-29,-58,-19,9,29,19
-29,48,78,-9,-53,63,-24,-48,-14,14,19,14
-29,48,78,-9,-53,63,-19,-39,-9,19,19,9
-29,48,78,-9,-53,63,-14,-29,-4,24,19,4
-29,48,78,-9,-53,63,-9,-19,0,29,19,0
-19,39,58,-9,-39,48,-24,-29,-14,4,4,-9
-9,29,39,-9,-24,34,-29,-29,-19,-9,0,-19
0,19,19,-9,-9,19,-34,-29,-24,-24,-4,-29
9,9,0,-9,4,4,-39,-29,-29,-39,-9,-39
0,4,4,-2,-2,4,-34,-24,-34,-24,-19,-39
0,0,0,0,0,0,-29,-19,-39,-19,-19,-39
0,-4,-4,2,2,-4,-24,-14,-43,-14,-19,-39
0,-9,-9,4,4,-9,-19,-9,-48,-9,-19,-39
9,-4,-14,-2,12,-9,-9,4,-43,0,-9,-34
9,0,-9,-4,9,-4,-9,9,-39,9,0,-29
9,4,-4,-7,7,0,-9,14,-34,19,9,-24
9,9,0,-9,4,4,-9,19,-29,29,19,-19
19,14,-4,-17,12,4,-9,19,-24,24,4,-29
29,19,-9,-24,19,4,-9,19,-19,19,0,-29
39,24,-14,-31,26,4,-9,19,-14,14,-4,-29
48,29,-19,-39,34,4,-9,19,-9,9,-9,-29
34,24,-9,-29,21,7,0,29,-19,0,0,-29
29,19,-9,-24,19,4,0,29,-19,0,0,-29
24,14,-9,-19,17,2,0,29,-19,0,0,-29
19,9,-9,-14,14,0,0,29,-19,0,0,-29
24,0,-24,-12,24,-12,0,29,-9,9,-14,-43
29,0,-29,-14,29,-14,0,29,-9,9,-19,-48
34,0,-34,-17,34,-17,0,29,-9,9,-24,-53
39,0,-39,-19,39,-19,0,29,-9,9,-29,-58
34,-9,-43,-12,39,-26,9,39,0,9,-24,-53
29,-9,-39,-9,34,-24,9,39,0,9,-19,-48
24,-9,-34,-7,29,-21,9,39,0,9,-14,-43
19,-9,-29,-4,24,-19,9,39,0,9,-9,-39
9,4,-4,-7,7,0,9,29,-9,-4,-14,-43
9,9,0,-9,4,4,9,29,-9,-9,-19,-48
9,14,4,-12,2,9,9,29,-9,-14,-24,-53
9,19,9,-14,0,14,9,29,-9,-19,-29,-58
19,14,-4,-17,12,4,0,29,-9,-29,-34,-63
19,9,-9,-14,14,0,0,29,-9,-29,-39,-68
19,4,-14,-12,17,-4,0,29,-9,-29,-43,-73
19,0,-19,-9,19,-9,0,29,-9,-29,-48,-78
24,9,-14,-17,19,-2,4,29,0,-39,-48,-73
29,9,-19,-19,24,-4,9,29,0,-39,-48,-68
34,9,-24,-21,29,-7,14,29,0,-39,-48,-63
39,9,-29,-24,34,-9,19,29,0,-39,-48,-58
19,19,0,-19,9,9,29,39,4,-29,-39,-58
9,19,9,-14,0,14,29,39,9,-19,-39,-58
0,19,19,-9,-9,19,29,39,14,-9,-39,-58
-9,19,29,-4,-19,24,29,39,19,0,-39,-58
9,34,24,-21,-7,29,29,48,29,4,-34,-68
29,39,9,-34,9,24,29,48,29,9,-29,-68
48,43,-4,-46,26,19,29,48,29,14,-24,-68
68,48,-19,-58,43,14,29,48,29,19,-19,-68
48,48,0,-48,24,24,43,63,48,24,-9,-63
29,48,19,-39,4,34,48,68,58,29,-9,-58
9,48,39,-29,-14,43,53,73,68,34,-9,-53
-9,48,58,-19,-34,53,58,78,78,39,-9,-48
-14,53,68,-19,-41,61,53,78,87,29,-9,-48
-19,58,78,-19,-48,68,48,78,87,29,-9,-48
-24,63,87,-19,-56,75,43,78,87,29,-9,-48
-29,68,97,-19,-63,82,39,78,87,29,-9,-48
-9,63,73,-26,-41,68,29,78,78,24,-14,-48
0,58,58,-29,-29,58,29,78,78,19,-19,-48
9,53,43,-31,-17,48,29,78,78,14,-24,-48
19,48,29,-34,-4,39,29,78,78,9,-29,-48
14,43,29,-29,-7,36,24,73,73,9,-29,-58
9,39,29,-24,-9,34,19,68,68,9,-29,-58
4,34,29,-19,-12,31,14,63,63,9,-29,-58
0,29,29,-14,-14,29,9,58,58,9,-29,-58
-9,19,29,-4,-19,24,9,68,48,14,-24,-53
-9,19,29,-4,-19,24,9,68,48,19,-19,-48
-9,19,29,-4,-19,24,9,68,48,24,-14,-43
-9,19,29,-4,-19,24,9,68,48,29,-9,-39
9,34,24,-21,-7,29,4,53,48,19,-19,-39
19,39,19,-29,0,29,0,48,48,19,-19,-39
29,43,14,-36,7,29,-4,43,48,19,-19,-39
39,48,9,-43,14,29,-9,39,48,19,-19,-39
19,39,19,-29,0,29,0,43,39,4,-9,-29
9,29,19,-19,-4,24,0,48,39,0,-9,-29
0,19,19,-9,-9,19,0,53,39,-4,-9,-29
-9,9,19,0,-14,14,0,58,39,-9,-9,-29
0,24,24,-12,-12,24,-4,48,39,0,-9,-43
9,29,19,-19,-4,24,-9,48,39,9,-9,-48
19,34,14,-26,2,24,-14,48,39,19,-9,-53
29,39,9,-34,9,24,-24,43,39,29,-9,-58
39,58,19,-48,9,39,-14,39,29,24,-9,-43
58,58,0,-58,29,29,-14,39,24,29,-4,-39
92,68,-24,-80,58,21,-14,39,19,29,-4,-24
97,73,-24,-85,61,24,-14,43,14,29,-4,-9
97,63,-34,-80,65,14,-24,39,19,19,0,-9
87,53,-34,-70,61,9,-24,43,24,24,4,-14
87,48,-39,-68,63,4,-19,48,24,24,4,-9
78,39,-39,-58,58,0,-19,48,24,24,9,-14
73,48,-24,-61,48,12,-9,39,24,34,19,0
63,68,4,-65,29,36,-4,48,24,34,19,0
48,78,29,-63,9,53,4,53,34,48,29,0
39,87,48,-63,-4,68,9,53,34,48,29,-4
19,68,48,-43,-14,58,24,68,43,43,24,0
4,48,43,-26,-19,46,24,73,48,34,19,-9
-34,34,68,0,-51,51,39,87,48,34,14,-9
-43,29,73,7,-58,51,58,112,48,34,9,-14
-53,14,68,19,-61,41,48,107,39,19,-4,-29
-63,-9,53,36,-58,21,48,102,34,14,-4,-34
-78,-24,53,51,-65,14,53,102,34,14,-14,-34
-78,-29,48,53,-63,9,53,97,34,9,-14,-63
-53,-9,43,31,-48,17,48,97,24,9,-19,-53
-34,-4,29,19,-31,12,48,97,19,4,-19,-53
-39,-9,29,24,-34,9,48,87,19,4,-29,-48
-43,-4,39,24,-41,17,53,87,19,4,-34,-48
-53,-4,48,29,-51,21,53,97,29,9,-29,-63
-39,0,39,19,-39,19,48,92,14,0,-39,-68
-48,4,53,21,-51,29,48,92,14,0,-39,-68
-78,9,87,34,-82,48,53,102,14,4,-34,-68
-48,14,63,17,-56,39,63,112,19,14,-19,-63
-43,4,48,19,-46,26,58,102,24,9,-19,-63
-39,4,43,17,-41,24,53,102,19,9,-14,-63
-19,14,34,2,-26,24,53,107,34,19,-9,-63
-39,19,58,9,-48,39,68,117,29,29,-9,-53
-48,14,63,17,-56,39,68,112,29,29,-9,-58
-58,9,68,24,-63,39,58,112,19,29,-14,-63
-68,9,78,29,-73,43,68,117,19,29,-14,-63
-39,19,58,9,-48,39,63,107,19,19,-19,-68
-14,19,34,-2,-24,26,58,102,14,4,-24,-73
-4,14,19,-4,-12,17,53,97,9,-4,-29,-78
9,14,4,-12,2,9,48,97,4,-14,-34,-82
14,24,9,-19,2,17,39,87,4,-14,-43,-82
19,14,-4,-17,12,4,39,82,4,-14,-43,-82
19,14,-4,-17,12,4,39,82,4,-14,-43,-78
4,19,14,-12,-4,17,48,87,9,-14,-43,-78
-4,14,19,-4,-12,17,48,97,14,0,-34,-78
-9,4,14,2,-12,9,39,87,4,0,-43,-82
-14,0,14,7,-14,7,39,82,9,-14,-43,-87
-24,-4,19,14,-21,7,39,82,14,-14,-43,-87
-29,-4,24,17,-26,9,29,87,9,-24,-53,-78
-48,0,48,24,-48,24,34,92,9,-14,-43,-73
-39,4,43,17,-41,24,34,97,9,-9,-39,-68
-34,4,39,14,-36,21,34,97,4,-9,-39,-68
-14,-9,4,12,-9,-2,43,107,4,0,-29,-73
-9,-9,0,9,-4,-4,43,107,9,4,-29,-87
0,-9,-9,4,4,-9,43,107,9,9,-29,-92
4,-9,-14,2,9,-12,43,112,9,14,-29,-92
-4,-19,-14,12,4,-17,43,122,14,14,-19,-82
-14,-24,-9,19,-2,-17,39,117,9,9,-29,-87
-14,-24,-9,19,-2,-17,34,107,9,9,-29,-97
-24,-24,0,24,-12,-12,34,107,14,4,-29,-97
-9,-19,-9,14,0,-14,29,97,0,-9,-34,-97
9,-14,-24,2,17,-19,24,92,-4,-14,-34,-102
34,-9,-43,-12,39,-26,19,78,-14,-14,-39,-112
58,-4,-63,-26,61,-34,9,58,-19,-19,-48,-117
73,4,-68,-39,70,-31,9,63,-19,-24,-58,-107
68,9,-58,-39,63,-24,9,68,-14,-29,-58,-102
68,14,-53,-41,61,-19,14,73,-14,-43,-58,-102
73,14,-58,-43,65,-21,14,82,-19,-48,-63,-102
48,29,-19,-39,34,4,48,112,19,9,-24,-73
29,29,0,-29,14,14,58,122,19,14,-29,-78
14,4,-9,-9,12,-2,68,117,4,-34,-34,-92
14,-4,-19,-4,17,-12,58,117,-19,-87,-68,-97
29,-29,-58,0,43,-43,39,117,-53,-112,-102,-112
53,-29,-82,-12,68,-56,24,122,-73,-107,-126,-126
39,-29,-68,-4,53,-48,29,161,-43,-82,-122,-126
14,-53,-68,19,41,-61,39,219,19,-53,-107,-112
58,-53,-112,-2,85,-82,39,263,48,-39,-107,-122
122,-34,-156,-43,139,-95,39,317,73,-58,-126,-126
107,-48,-156,-29,131,-102,53,380,156,-48,-122,-126
87,-48,-136,-19,112,-92,24,439,248,29,-87,-126
146,-48,-195,-48,170,-122,-19,517,331,136,-24,-112
209,-43,-253,-82,231,-148,-68,610,385,200,34,-68
224,-34,-258,-95,241,-146,-141,653,336,219,87,-29
283,-29,-312,-126,297,-170,-253,644,175,200,107,-14
414,-14,-429,-200,422,-222,-346,639,-48,161,82,-29
492,19,-473,-256,483,-226,-419,619,-239,141,73,-29
492,68,-424,-280,458,-178,-468,585,-380,200,156,34
531,151,-380,-341,456,-114,-541,527,-507,273,278,112
605,224,-380,-414,492,-78,-634,444,-653,341,395,219
678,273,-405,-475,541,-65,-751,351,-751,448,527,336
780,331,-448,-556,614,-58,-888,229,-771,585,692,458
839,370,-468,-605,653,-48,-1024,4,-771,751,873,610
883,434,-448,-658,666,-7,-1166,-341,-756,966,1093,771
941,561,-380,-751,661,90,-1298,-800,-756,1180,1327,941
893,634,-258,-763,575,187,-1376,-1293,-780,1322,1542,1112
707,668,-39,-688,373,314,-1371,-1688,-800,1410,1703,1283
536,697,161,-617,187,429,-1332,-1859,-819,1420,1815,1400
512,707,195,-610,158,451,-1322,-1917,-922,1298,1864,1464
595,756,161,-675,217,458,-1317,-1986,-1146,1054,1800,1493
624,800,175,-712,224,488,-1288,-2010,-1332,810,1673,1517
551,810,258,-680,146,534,-1210,-1932,-1381,644,1556,1532
492,819,326,-656,82,573,-1146,-1859,-1346,497,1449,1527
478,839,361,-658,58,600,-1078,-1781,-1288,405,1366,1507
434,829,395,-631,19,612,-1019,-1683,-1200,385,1312,1493
351,824,473,-588,-61,649,-961,-1590,-1112,361,1273,1498
302,795,492,-549,-95,644,-907,-1468,-1034,302,1200,1464
346,746,400,-546,-26,573,-878,-1376,-1005,190,1083,1337
366,683,317,-524,24,500,-819,-1244,-951,131,956,1205
346,595,248,-470,48,422,-717,-1073,-834,122,858,1088
341,527,185,-434,78,356,-624,-922,-751,53,697,936
292,434,141,-363,75,287,-531,-805,-697,-53,483,746
204,322,117,-263,43,219,-400,-639,-610,-161,239,556
180,253,73,-217,53,163,-307,-497,-517,-273,14,390
170,204,34,-187,68,119,-268,-419,-478,-346,-97,278
146,146,0,-146,73,73,-229,-361,-429,-375,-151,200
151,136,-14,-143,82,61,-190,-307,-395,-375,-170,141
117,126,9,-122,53,68,-165,-283,-361,-341,-180,107
29,92,63,-61,-17,78,-131,-244,-287,-297,-180,92
-19,53,73,-17,-46,63,-92,-195,-239,-278,-204,53
24,48,24,-36,0,36,-68,-170,-244,-283,-224,4
73,63,-9,-68,41,26,-58,-141,-234,-283,-244,-39
68,19,-48,-43,58,-14,-29,-92,-175,-253,-258,-78
19,-34,-53,7,36,-43,9,-43,-107,-239,-258,-117
14,-24,-39,4,26,-31,43,4,-48,-214,-234,-126
14,-9,-24,-2,19,-17,87,43,4,-180,-190,-126
-24,-39,-14,31,-4,-26,112,73,48,-146,-165,-146
-14,-39,-24,26,4,-31,117,82,43,-156,-180,-161
39,-14,-53,-12,46,-34,112,87,43,-136,-190,-161
39,-24,-63,-7,51,-43,112,97,53,-122,-190,-175
34,-29,-63,-2,48,-46,122,107,73,-107,-195,-185
34,-34,-68,0,51,-51,117,107,82,-107,-200,-195
34,-34,-68,0,51,-51,112,107,92,-102,-204,-200
4,-39,-43,17,24,-41,122,126,107,-97,-185,-190
-29,-39,-9,34,-9,-24,126,136,117,-82,-170,-190
-58,-39,19,48,-39,-9,136,141,136,-73,-156,-185
-78,-39,39,58,-58,0,141,141,131,-68,-141,-185
-53,-48,4,51,-29,-21,126,122,112,-73,-161,-190
-34,-43,-9,39,-12,-26,126,122,112,-73,-175,-190
-24,-39,-14,31,-4,-26,131,126,122,-63,-185,-190
-14,-34,-19,24,2,-26,131,136,136,-58,-190,-190
-43,-39,4,41,-24,-17,151,141,151,-63,-175,-180
-53,-39,14,46,-34,-12,151,146,170,-53,-165,-180
-58,-39,19,48,-39,-9,151,146,170,-53,-146,-175
-58,-43,14,51,-36,-14,151,136,165,-58,-141,-175
-34,-34,0,34,-17,-17,146,122,146,-82,-170,-190
-4,-34,-29,19,12,-31,131,117,122,-97,-190,-200
14,-34,-48,9,31,-41,122,112,117,-112,-204,-214
24,-29,-53,2,39,-41,117,112,112,-117,-209,-219
4,-24,-29,9,17,-26,126,117,136,-73,-190,-195
-4,-29,-24,17,9,-26,141,131,156,-68,-180,-190
-19,-39,-19,29,0,-29,146,136,161,-68,-170,-185
-29,-43,-14,36,-7,-29,151,141,165,-63,-165,-180
-9,-29,-19,19,4,-24,131,131,156,-73,-170,-204
19,-19,-39,0,29,-29,131,122,136,-73,-175,-204
39,-19,-58,-9,48,-39,126,112,117,-78,-175,-204
58,-9,-68,-24,63,-39,126,107,122,-78,-175,-200
58,-9,-68,-24,63,-39,122,107,131,-87,-180,-195
29,-19,-48,-4,39,-34,122,107,126,-92,-195,-195
-4,-34,-29,19,12,-31,122,102,122,-97,-200,-195
-19,-53,-34,36,7,-43,122,102,117,-97,-200,-195
-34,-53,-19,43,-7,-36,131,107,131,-102,-190,-190
-39,-48,-9,43,-14,-29,131,107,136,-102,-190,-195
-48,-43,4,46,-26,-19,126,97,131,-107,-200,-200
-53,-39,14,46,-34,-12,126,102,126,-117,-204,-200
-63,-34,29,48,-46,-2,136,102,141,-102,-195,-200
-68,-34,34,51,-51,0,141,117,151,-92,-190,-200
-68,-34,34,51,-51,0,151,117,156,-73,-185,-200
-63,-19,43,41,-53,12,151,117,165,-68,-185,-195
-34,-19,14,26,-24,-2,141,117,156,-68,-190,-200
-9,-9,0,9,-4,-4,131,102,141,-68,-195,-204
0,0,0,0,0,0,131,102,141,-68,-200,-209
0,9,9,-4,-4,9,136,107,165,-68,-200,-214
-14,0,14,7,-14,7,136,107,156,-78,-200,-204
-14,0,14,7,-14,7,136,107,151,-73,-200,-209
-14,0,14,7,-14,7,136,107,151,-73,-195,-209
-19,0,19,9,-19,9,136,107,151,-73,-195,-204
-29,-9,19,19,-24,4,126,102,151,-82,-195,-214
-29,-24,4,26,-17,-9,126,92,146,-87,-200,-224
-24,-34,-9,29,-7,-21,126,82,146,-97,-204,-229
-19,-43,-24,31,2,-34,126,68,151,-107,-204,-229
-29,-43,-14,36,-7,-29,136,78,165,-107,-214,-214
-43,-43,0,43,-21,-21,136,87,180,-107,-214,-209
-43,-43,0,43,-21,-21,136,87,170,-107,-214,-209
-34,-43,-9,39,-12,-26,136,78,161,-112,-229,-219
-34,-39,-4,36,-14,-21,136,73,151,-102,-219,-219
-43,-34,9,39,-26,-12,141,78,156,-102,-219,-214
-53,-34,19,43,-36,-7,156,87,156,-112,-219,-204
-63,-29,34,46,-48,2,161,92,161,-112,-229,-200
-58,-24,34,41,-46,4,156,73,156,-122,-234,-209
-48,-24,24,36,-36,0,151,63,151,-131,-239,-214
-39,-24,14,31,-26,-4,141,58,141,-141,-244,-219
-53,-24,29,39,-41,2,136,58,131,-151,-248,-219
-29,-34,-4,31,-12,-19,141,63,131,-161,-253,-209
-14,-34,-19,24,2,-26,141,63,141,-161,-253,-214
-9,-39,-29,24,9,-34,141,58,141,-165,-258,-219
-29,-39,-9,34,-9,-24,141,53,141,-165,-268,-219
-29,-29,0,29,-14,-14,156,63,161,-151,-263,-224
-53,-29,24,41,-39,-2,165,63,175,-146,-253,-214
-53,-29,24,41,-39,-2,165,63,165,-151,-239,-209
-53,-29,24,41,-39,-2,165,63,165,-146,-234,-209
-68,-24,43,46,-56,9,156,58,165,-136,-239,-219
-73,-24,48,48,-61,12,156,53,175,-141,-244,-224
-73,-24,48,48,-61,12,151,34,175,-141,-258,-239
-53,-24,29,39,-41,2,151,29,175,-141,-258,-239
-53,-24,29,39,-41,2,161,34,165,-136,-258,-229
-68,-29,39,48,-53,4,161,24,165,-141,-263,-229
-97,-34,63,65,-80,14,161,14,161,-156,-273,-229
-97,-34,63,65,-80,14,161,14,161,-156,-273,-224
-87,-19,68,53,-78,24,165,24,165,-165,-273,-214
-92,-19,73,56,-82,26,170,24,165,-170,-278,-214
-126,-24,102,75,-114,39,175,24,165,-175,-287,-219
-151,-24,126,87,-139,51,190,24,175,-180,-297,-219
-146,-34,112,90,-129,39,185,9,161,-195,-297,-234
-117,-39,78,78,-97,19,180,-9,146,-204,-302,-239
-122,-43,78,82,-100,17,180,-29,141,-214,-302,-244
-136,-43,92,90,-114,24,175,-39,136,-224,-302,-253
-122,-34,87,78,-104,26,156,-63,126,-219,-307,-239
-117,-39,78,78,-97,19,151,-73,112,-229,-317,-234
-107,-39,68,73,-87,14,151,-78,107,-224,-317,-229
-102,-29,73,65,-87,21,156,-78,107,-219,-317,-219
-126,-29,97,78,-112,34,165,-78,112,-219,-302,-214
-151,-29,122,90,-136,46,170,-82,112,-229,-307,-214
-156,-24,131,90,-143,53,175,-92,117,-224,-307,-214
-170,-24,146,97,-158,61,180,-92,122,-234,-307,-214
-156,-4,151,80,-153,73,165,-107,112,-239,-322,-214
-141,4,146,68,-143,75,156,-122,112,-239,-326,-214
-131,14,146,58,-139,80,151,-131,102,-229,-326,-214
-107,29,136,39,-122,82,141,-146,102,-229,-326,-204
-126,9,136,58,-131,73,136,-156,82,-234,-317,-195
-141,0,141,70,-141,70,136,-165,82,-244,-312,-190
-156,-9,146,82,-151,68,141,-175,78,-253,-312,-190
-156,0,156,78,-156,78,141,-190,73,-258,-312,-190
-141,9,151,65,-146,80,126,-200,78,-253,-312,-185
-131,9,141,61,-136,75,122,-214,68,-239,-307,-180
-117,19,136,48,-126,78,117,-224,58,-234,-302,-175
-92,24,117,34,-104,70,112,-239,53,-229,-302,-170
-87,29,117,29,-102,73,107,-258,34,-239,-287,-165
-78,34,112,21,-95,73,97,-263,24,-244,-278,-161
-73,43,117,14,-95,80,82,-273,14,-248,-278,-156
-68,48,117,9,-92,82,73,-283,4,-253,-273,-146
-68,48,117,9,-92,82,58,-283,-4,-258,-253,-126
-63,48,112,7,-87,80,53,-287,-4,-263,-239,-117
-48,53,102,-2,-75,78,53,-287,-19,-263,-239,-97
-48,63,112,-7,-80,87,48,-287,-29,-268,-229,-87
-63,58,122,2,-92,90,34,-297,-48,-253,-214,-68
-68,63,131,2,-100,97,19,-302,-63,-244,-204,-58
-53,63,117,-4,-85,90,9,-307,-73,-224,-195,-48
-39,58,97,-9,-68,78,4,-307,-78,-209,-185,-48
-43,73,117,-14,-80,95,14,-297,-73,-190,-170,-43
-43,78,122,-17,-82,100,4,-297,-78,-185,-156,-34
-9,87,97,-39,-53,92,-4,-307,-82,-175,-151,-29
4,87,82,-46,-39,85,-9,-307,-82,-170,-136,-24
-9,78,87,-34,-48,82,-4,-297,-82,-165,-126,-9
-19,78,97,-29,-58,87,-9,-297,-92,-161,-122,-4
-14,73,87,-29,-51,80,-24,-317,-102,-165,-117,0
-4,73,78,-34,-41,75,-29,-317,-107,-161,-107,4
14,78,63,-46,-24,70,-39,-302,-97,-126,-82,19
19,78,58,-48,-19,68,-48,-297,-87,-107,-68,19
24,78,53,-51,-14,65,-48,-283,-82,-87,-48,24
39,82,43,-61,-2,63,-48,-273,-73,-68,-39,24
87,97,9,-92,39,53,-58,-268,-82,-68,-43,9
92,102,9,-97,41,56,-68,-268,-82,-68,-43,4
131,107,-24,-119,78,41,-73,-253,-82,-63,-34,4
107,112,4,-109,51,58,-78,-234,-82,-58,-19,4
39,87,48,-63,-4,68,-58,-214,-63,-63,-14,19
58,78,19,-68,19,48,-53,-209,-63,-58,-4,24
78,63,-14,-70,46,24,-53,-190,-63,-48,-4,29
58,48,-9,-53,34,19,-53,-180,-68,-43,-4,29
68,48,-19,-58,43,14,-63,-165,-78,-43,-9,14
92,58,-34,-75,63,12,-68,-165,-82,-39,-4,9
141,73,-68,-107,104,2,-73,-170,-87,-39,-4,4
190,82,-107,-136,148,-12,-82,-165,-92,-39,-9,0
175,97,-78,-136,126,9,-63,-141,-73,-24,0,-4
156,97,-58,-126,107,19,-58,-126,-63,-19,0,-4
136,87,-48,-112,92,19,-53,-117,-53,-14,0,-4
102,82,-19,-92,61,31,-48,-87,-34,-9,4,0
92,68,-24,-80,58,21,-43,-87,-39,-9,0,-14
107,68,-39,-87,73,14,-43,-73,-39,-9,-9,-14
126,68,-58,-97,92,4,-34,-63,-29,-14,-14,-9
126,63,-63,-95,95,0,-34,-53,-29,-19,-19,-9
107,39,-68,-73,87,-14,-24,-58,-29,-9,-14,-14
92,39,-53,-65,73,-7,-19,-34,-29,4,-4,-9
92,39,-53,-65,73,-7,-9,-29,-24,9,0,-4
102,39,-63,-70,82,-12,-9,-29,-24,14,4,0
131,48,-82,-90,107,-17,-24,-39,-34,4,-9,-9
126,48,-78,-87,102,-14,-29,-39,-34,4,-14,-14
107,53,-53,-80,80,0,-34,-34,-34,4,-14,-14
102,53,-48,-78,75,2,-43,-34,-34,4,-19,-19
126,48,-78,-87,102,-14,-43,-43,-24,0,-19,-29
151,48,-102,-100,126,-26,-43,-43,-24,0,-14,-29
146,39,-107,-92,126,-34,-34,-39,-19,9,-14,-29
131,39,-92,-85,112,-26,-29,-24,-19,9,-9,-29
136,48,-87,-92,112,-19,-14,-9,-14,4,-4,-39
131,43,-87,-87,109,-21,-14,-9,-14,0,-4,-39
146,43,-102,-95,124,-29,-24,-9,-14,-4,-14,-53
165,43,-122,-104,143,-39,-24,-19,-14,-19,-19,-53
131,48,-82,-90,107,-17,-19,-9,-4,-4,-14,-39
107,58,-48,-82,78,4,-19,-4,4,4,0,-29
102,58,-43,-80,73,7,-19,-4,9,9,4,-24
92,58,-34,-75,63,12,-9,-4,14,14,0,-19
107,68,-39,-87,73,14,0,-4,14,-4,-19,-29
112,68,-43,-90,78,12,-4,0,14,-4,-24,-29
107,63,-43,-85,75,9,-4,4,14,-14,-34,-34
112,63,-48,-87,80,7,-4,9,9,-14,-34,-39
97,48,-48,-73,73,0,-4,4,9,-4,-34,-43
87,39,-48,-63,68,-4,-4,4,19,-4,-29,-43
78,29,-48,-53,63,-9,-4,9,19,-4,-29,-48
58,19,-39,-39,48,-9,-4,9,14,-4,-29,-48
78,29,-48,-53,63,-9,-4,9,14,-4,-29,-34
87,34,-53,-61,70,-9,0,9,19,-9,-29,-34
97,39,-58,-68,78,-9,0,9,19,-14,-29,-29
112,43,-68,-78,90,-12,4,9,24,-9,-29,-19
87,39,-48,-63,68,-4,9,14,24,-14,-19,-19
78,29,-48,-53,63,-9,9,14,14,-19,-24,-24
68,24,-43,-46,56,-9,9,19,14,-14,-34,-24
48,19,-29,-34,39,-4,14,24,19,-19,-34,-24
29,34,4,-31,12,19,24,29,24,0,-29,-29
14,39,24,-26,-4,31,24,29,34,9,-19,-24
19,39,19,-29,0,29,19,24,34,9,-19,-29
39,39,0,-39,19,19,14,14,24,9,-19,-43
73,63,-9,-68,41,26,-4,4,9,-4,-39,-68
78,73,-4,-75,41,34,-4,0,4,-9,-43,-82
87,82,-4,-85,46,39,-4,-4,9,-24,-48,-92
97,102,4,-100,46,53,-4,-9,9,-29,-48,-97
78,112,34,-95,21,73,9,9,14,-24,-34,-82
53,112,58,-82,-2,85,14,14,19,-9,-29,-82
24,112,87,-68,-31,100,14,24,29,-4,-29,-73
14,112,97,-63,-41,104,14,29,39,0,-34,-73
34,112,78,-73,-21,95,4,19,29,-4,-48,-92
43,112,68,-78,-12,90,4,24,29,-4,-53,-92
34,112,78,-73,-21,95,9,24,39,-9,-53,-92
34,112,78,-73,-21,95,9,19,39,-14,-58,-97
39,107,68,-73,-14,87,14,24,43,-4,-63,-92
53,107,53,-80,0,80,14,34,58,-4,-58,-87
24,107,82,-65,-29,95,24,48,78,9,-48,-78
14,102,87,-58,-36,95,29,53,82,9,-34,-73
34,112,78,-73,-21,95,39,63,92,19,-29,-63
48,112,63,-80,-7,87,39,53,82,19,-34,-63
58,112,53,-85,2,82,34,53,82,14,-29,-63
73,117,43,-95,14,80,34,63,87,14,-19,-63
53,107,53,-80,0,80,34,68,92,14,-19,-58
53,102,48,-78,2,75,34,68,87,14,-24,-58
78,102,24,-90,26,63,29,58,82,9,-29,-53
78,87,9,-82,34,48,24,58,68,4,-39,-43
68,73,4,-70,31,39,24,48,68,4,-29,-48
53,68,14,-61,19,41,24,63,68,14,-29,-48
24,63,39,-43,-7,51,19,68,73,19,-24,-39
39,68,29,-53,4,48,14,68,73,19,-24,-39
53,58,4,-56,24,31,4,68,73,19,-19,-29
48,63,14,-56,17,39,4,68,73,19,-19,-29
48,78,29,-63,9,53,4,63,73,19,-19,-29
53,82,29,-68,12,56,4,63,73,0,-19,-29
24,78,53,-51,-14,65,24,87,92,39,14,9
73,68,-4,-70,39,31,-4,58,73,19,-4,-14
122,68,-53,-95,87,7,-24,34,29,4,-29,-43
82,58,-24,-70,53,17,0,43,48,29,0,-34
9,68,58,-39,-24,63,29,68,68,48,29,-9
34,68,34,-51,0,51,14,63,63,43,14,-14
48,68,19,-58,14,43,9,58,58,39,9,-19
63,68,4,-65,29,36,4,53,53,34,4,-24
78,68,-9,-73,43,29,0,48,48,29,0,-29
78,63,-14,-70,46,24,-19,29,43,19,-14,-29
82,68,-14,-75,48,26,-24,19,34,9,-14,-29
97,63,-34,-80,65,14,-29,14,29,9,-9,-29
126,68,-58,-97,92,4,-34,9,24,4,-9,-19
117,82,-34,-100,75,24,-29,29,34,19,4,0
117,82,-34,-100,75,24,-24,39,39,19,9,4
107,82,-24,-95,65,29,-19,48,43,24,14,4
107,87,-19,-97,63,34,-9,58,43,24,14,14
82,78,-4,-80,43,36,0,68,53,34,29,19
78,78,0,-78,39,39,0,68,53,34,29,29
68,87,19,-78,24,53,4,78,53,34,29,34
53,87,34,-70,9,61,14,82,63,48,39,39
68,97,29,-82,19,63,4,73,53,39,29,24
78,92,14,-85,31,53,4,63,43,24,14,9
92,78,-14,-85,53,31,0,53,39,4,0,-9
82,68,-14,-75,48,26,9,53,29,-4,-14,-19
97,58,-39,-78,68,9,19,82,39,0,-14,-34
102,48,-53,-75,78,-2,19,82,39,0,-24,-48
97,29,-68,-63,82,-19,19,82,34,0,-19,-53
87,19,-68,-53,78,-24,24,87,34,4,-24,-53
78,9,-68,-43,73,-29,14,78,24,-9,-24,-97
92,14,-78,-53,85,-31,9,78,24,-9,-19,-102
102,14,-87,-58,95,-36,9,78,19,-14,-19,-107
87,4,-82,-46,85,-39,9,68,19,-14,-29,-107
87,9,-78,-48,82,-34,4,58,19,-14,-34,-92
92,9,-82,-51,87,-36,4,58,19,-19,-39,-92
112,14,-97,-63,104,-41,0,53,4,-29,-48,-92
107,19,-87,-63,97,-34,0,53,4,-29,-48,-87
63,19,-43,-41,53,-12,14,78,19,-14,-43,-78
73,14,-58,-43,65,-21,24,82,24,-14,-39,-63
58,4,-53,-31,56,-24,29,78,29,-19,-39,-53
43,4,-39,-24,41,-17,34,82,24,-19,-34,-43
68,0,-68,-34,68,-34,29,78,29,-14,-43,-48
68,4,-63,-36,65,-29,29,78,29,-19,-48,-53
68,0,-68,-34,68,-34,24,73,24,-24,-53,-63
68,-4,-73,-31,70,-39,9,73,9,-29,-63,-73
78,4,-73,-41,75,-34,19,68,9,-24,-48,-82
82,9,-73,-46,78,-31,19,73,14,-19,-43,-73
82,14,-68,-48,75,-26,19,73,14,-19,-39,-73
68,14,-53,-41,61,-19,19,73,14,-14,-34,-73
43,14,-29,-29,36,-7,19,78,24,-4,-29,-82
53,14,-39,-34,46,-12,19,78,24,-4,-24,-82
53,4,-48,-29,51,-21,19,73,24,-4,-19,-82
48,4,-43,-26,46,-19,19,73,24,-4,-14,-78
19,9,-9,-14,14,0,43,92,34,4,-14,-63
14,9,-4,-12,9,2,48,97,39,9,-14,-58
14,4,-9,-9,12,-2,43,92,29,9,-24,-58
14,4,-9,-9,12,-2,48,92,34,-4,-24,-58
24,4,-19,-14,21,-7,43,87,29,-14,-34,-63
29,4,-24,-17,26,-9,39,87,24,-14,-34,-68
19,9,-9,-14,14,0,39,87,24,-4,-24,-68
39,14,-24,-26,31,-4,34,87,24,0,-19,-68
43,4,-39,-24,41,-17,24,82,14,-4,-19,-73
48,0,-48,-24,48,-24,24,78,14,-4,-19,-78
48,0,-48,-24,48,-24,24,73,19,-9,-19,-92
53,0,-53,-26,53,-26,24,68,19,-14,-19,-97
68,4,-63,-36,65,-29,14,68,9,-19,-34,-97
82,9,-73,-46,78,-31,14,63,4,-24,-39,-102
97,9,-87,-53,92,-39,9,53,0,-34,-53,-112
122,14,-107,-68,114,-46,4,39,0,-39,-58,-126
112,14,-97,-63,104,-41,-4,39,4,-43,-58,-126
107,14,-92,-61,100,-39,4,43,4,-43,-58,-122
107,14,-92,-61,100,-39,4,53,4,-43,-53,-122
112,14,-97,-63,104,-41,4,53,0,-39,-53,-126
122,19,-102,-70,112,-41,0,48,0,-39,-58,-136
136,29,-107,-82,122,-39,0,48,0,-39,-58,-136
131,34,-97,-82,114,-31,0,48,4,-39,-58,-131
131,39,-92,-85,112,-26,4,48,4,-48,-58,-131
170,53,-117,-112,143,-31,14,53,9,-29,-34,-122
156,19,-136,-87,146,-58,19,63,9,-39,-34,-122
117,-29,-146,-43,131,-87,9,53,-9,-63,-58,-136
92,-53,-146,-19,119,-100,19,58,-24,-73,-73,-131
131,-34,-165,-48,148,-100,29,78,-29,-78,-87,-126
146,-9,-156,-68,151,-82,19,87,-34,-82,-102,-131
131,-29,-161,-51,146,-95,4,102,-43,-97,-117,-156
175,-19,-195,-78,185,-107,0,131,-43,-112,-131,-175
239,14,-224,-126,231,-104,0,170,-29,-102,-136,-190
185,-24,-209,-80,197,-117,9,234,39,-68,-126,-180
170,-63,-234,-53,202,-148,19,297,102,-58,-126,-195
224,-48,-273,-87,248,-161,4,351,146,-48,-141,-204
253,-48,-302,-102,278,-175,-24,419,209,0,-107,-185
322,-39,-361,-141,341,-200,-78,478,283,58,-63,-170
444,-24,-468,-209,456,-246,-165,531,287,82,-43,-175
507,-24,-531,-241,519,-278,-248,556,161,112,-9,-156
536,-9,-546,-263,541,-278,-322,566,-87,102,39,-131
580,4,-575,-292,578,-285,-375,580,-341,63,43,-117
619,29,-590,-324,605,-280,-429,561,-561,24,53,-87
619,68,-551,-344,585,-241,-507,497,-771,53,117,-14
590,112,-478,-351,534,-183,-570,439,-976,117,219,112
605,136,-468,-370,536,-165,-663,346,-1190,146,307,190
756,185,-570,-470,663,-192,-819,195,-1356,175,390,239
927,244,-683,-585,805,-219,-985,43,-1424,292,536,341
985,331,-653,-658,819,-161,-1102,-161,-1424,478,766,512
1000,424,-575,-712,788,-75,-1205,-507,-1420,683,1015,692
1029,492,-536,-761,783,-21,-1307,-966,-1449,868,1249,873
1019,585,-434,-802,727,75,-1385,-1459,-1512,971,1434,1034
941,678,-263,-810,602,207,-1400,-1854,-1561,1019,1605,1195
868,727,-141,-797,505,292,-1400,-2034,-1581,1000,1708,1312
873,756,-117,-814,495,319,-1410,-2122,-1654,858,1727,1376
839,795,-43,-817,441,375,-1395,-2210,-1781,634,1693,1424
722,810,87,-766,317,448,-1346,-2225,-1859,409,1634,1459
639,819,180,-729,229,500,-1288,-2156,-1839,263,1566,1473
590,858,268,-724,161,563,-1205,-2034,-1727,204,1517,1507
566,888,322,-727,122,605,-1107,-1908,-1571,180,1473,1556
541,897,356,-719,92,627,-1058,-1810,-1473,151,1420,1561
546,873,326,-710,109,600,-1039,-1727,-1415,87,1322,1517
536,844,307,-690,114,575,-1005,-1634,-1346,9,1220,1434
502,795,292,-649,104,544,-946,-1512,-1259,-43,1102,1317
502,732,229,-617,136,480,-858,-1342,-1127,-43,1024,1195
512,663,151,-588,180,407,-766,-1171,-1000,-53,907,1029
458,575,117,-517,170,346,-663,-1010,-888,-112,727,858
370,492,122,-431,124,307,-551,-834,-766,-190,502,678
331,390,58,-361,136,224,-439,-678,-649,-307,180,439
336,263,-73,-300,204,95,-375,-575,-585,-409,-73,244
297,175,-122,-236,209,26,-346,-497,-536,-453,-195,131
263,156,-107,-209,185,24,-297,-429,-468,-453,-248,73
229,156,-73,-192,151,41,-248,-356,-385,-434,-278,43
224,165,-58,-195,141,53,-224,-322,-341,-409,-268,29
244,151,-92,-197,168,29,-219,-302,-317,-395,-268,-24
263,131,-131,-197,197,0,-200,-273,-307,-375,-283,-63
268,107,-161,-187,214,-26,-185,-248,-283,-370,-283,-102
248,92,-156,-170,202,-31,-146,-219,-234,-341,-283,-146
234,78,-156,-156,195,-39,-87,-151,-165,-302,-287,-204
234,73,-161,-153,197,-43,-58,-102,-97,-268,-287,-234
200,34,-165,-117,183,-65,-24,-53,-48,-244,-273,-253
141,9,-131,-75,136,-61,-9,-14,-4,-209,-258,-263
92,9,-82,-51,87,-36,4,14,29,-175,-244,-273
53,-19,-73,-17,63,-46,19,24,34,-156,-229,-268
58,-34,-92,-12,75,-63,24,29,34,-136,-219,-268
73,-14,-87,-29,80,-51,34,63,68,-122,-209,-268
82,0,-82,-41,82,-41,53,78,92,-107,-204,-273
97,14,-82,-56,90,-34,58,82,107,-107,-200,-278
112,34,-78,-73,95,-21,63,87,122,-102,-195,-278
92,34,-58,-63,75,-12,63,82,126,-112,-200,-263
78,29,-48,-53,63,-9,58,87,126,-102,-200,-258
68,24,-43,-46,56,-9,58,87,136,-97,-200,-248
68,19,-48,-43,58,-14,53,82,122,-97,-200,-244
58,9,-48,-34,53,-19,58,73,122,-122,-214,-248
53,14,-39,-34,46,-12,58,73,122,-122,-224,-248
39,19,-19,-29,29,0,63,78,131,-112,-229,-248
24,24,0,-24,12,12,63,87,146,-107,-229,-248
34,43,9,-39,12,26,63,92,146,-112,-224,-253
53,48,-4,-51,29,21,63,97,161,-102,-224,-258
78,53,-24,-65,51,14,63,97,156,-102,-214,-258
107,53,-53,-80,80,0,63,87,146,-107,-219,-263
102,43,-58,-73,80,-7,73,92,136,-102,-224,-248
112,43,-68,-78,90,-12,63,87,122,-107,-229,-248
112,43,-68,-78,90,-12,58,82,126,-112,-229,-253
102,48,-53,-75,78,-2,58,82,131,-107,-219,-248
87,48,-39,-68,63,4,68,87,151,-78,-209,-248
73,39,-34,-56,53,2,82,102,165,-78,-200,-248
53,24,-29,-39,41,-2,87,107,165,-82,-190,-248
39,14,-24,-26,31,-4,92,112,165,-82,-185,-248
43,19,-24,-31,34,-2,73,102,156,-97,-204,-263
58,19,-39,-39,48,-9,73,92,146,-102,-214,-263
63,9,-53,-36,58,-21,68,82,136,-112,-219,-263
68,9,-58,-39,63,-24,68,78,151,-117,-224,-258
82,34,-48,-58,65,-7,73,87,165,-107,-229,-244
58,39,-19,-48,39,9,73,87,165,-112,-244,-244
29,39,9,-34,9,24,73,82,165,-117,-248,-244
19,34,14,-26,2,24,73,82,165,-117,-248,-244
34,39,4,-36,14,21,73,92,161,-102,-244,-258
39,39,0,-39,19,19,73,87,156,-102,-239,-263
39,39,0,-39,19,19,68,73,141,-107,-244,-268
43,39,-4,-41,24,17,68,73,126,-117,-244,-268
53,34,-19,-43,36,7,68,73,151,-117,-234,-263
48,34,-14,-41,31,9,73,87,161,-112,-229,-258
48,34,-14,-41,31,9,82,87,165,-97,-224,-253
53,48,-4,-51,29,21,82,87,175,-97,-224,-244
73,34,-39,-53,56,-2,78,78,170,-117,-239,-258
87,29,-58,-58,73,-14,63,63,151,-117,-244,-263
87,24,-63,-56,75,-19,58,63,146,-117,-248,-268
78,19,-58,-48,68,-19,58,68,165,-117,-248,-273
68,29,-39,-48,53,-4,68,58,175,-126,-258,-287
73,29,-43,-51,58,-7,68,58,170,-122,-258,-297
78,29,-48,-53,63,-9,68,58,170,-122,-253,-302
78,29,-48,-53,63,-9,68,58,170,-122,-253,-302
68,34,-34,-51,51,0,58,58,170,-122,-263,-292
68,34,-34,-51,51,0,58,53,165,-117,-268,-302
73,39,-34,-56,53,2,58,48,165,-117,-273,-307
78,43,-34,-61,56,4,58,39,170,-117,-273,-307
78,34,-43,-56,61,-4,68,43,165,-136,-283,-287
63,34,-29,-48,46,2,68,58,180,-136,-283,-278
63,34,-29,-48,46,2,68,63,170,-136,-283,-273
73,34,-39,-53,56,-2,68,58,161,-141,-297,-278
78,24,-53,-51,65,-14,68,48,170,-151,-292,-278
73,24,-48,-48,61,-12,73,48,175,-151,-287,-273
68,19,-48,-43,58,-14,87,53,175,-161,-283,-263
63,19,-43,-41,53,-12,92,53,180,-161,-287,-258
68,34,-34,-51,51,0,78,34,170,-170,-302,-273
78,34,-43,-56,61,-4,73,24,161,-170,-307,-283
87,34,-53,-61,70,-9,63,19,146,-170,-312,-292
73,34,-39,-53,56,-2,58,19,131,-170,-317,-297
78,19,-58,-48,68,-19,53,14,136,-170,-322,-297
82,14,-68,-48,75,-26,53,14,151,-170,-322,-302
78,4,-73,-41,75,-34,53,9,156,-175,-326,-307
48,0,-48,-24,48,-24,53,4,161,-175,-336,-307
53,4,-48,-29,51,-21,58,14,170,-161,-331,-302
34,9,-24,-21,29,-7,68,14,185,-156,-322,-292
39,14,-24,-26,31,-4,68,14,175,-161,-307,-287
43,19,-24,-31,34,-2,68,14,175,-156,-302,-287
43,29,-14,-36,29,7,78,14,165,-165,-307,-278
43,34,-9,-39,26,12,78,14,175,-170,-312,-283
48,39,-9,-43,29,14,73,0,175,-170,-326,-297
73,43,-29,-58,51,7,73,0,175,-170,-326,-297
68,43,-24,-56,46,9,82,0,175,-170,-317,-297
48,39,-9,-43,29,14,82,-4,175,-170,-322,-297
14,34,19,-24,-2,26,82,-9,170,-180,-331,-297
9,34,24,-21,-7,29,82,-4,170,-175,-331,-292
19,39,19,-29,0,29,82,-4,185,-161,-317,-302
14,39,24,-26,-4,31,82,-4,185,-161,-317,-312
-19,34,53,-7,-36,43,82,-4,185,-161,-322,-326
-43,34,78,4,-61,56,92,-4,195,-161,-326,-336
-48,19,68,14,-58,43,97,-9,209,-151,-336,-331
-29,19,48,4,-39,34,102,-19,204,-156,-341,-326
-43,19,63,12,-53,41,112,-29,209,-161,-341,-322
-68,24,92,21,-80,58,117,-29,214,-165,-341,-322
-58,34,92,12,-75,63,117,-39,219,-156,-331,-307
-58,29,87,14,-73,58,112,-43,209,-170,-336,-302
-53,29,82,12,-68,56,112,-43,209,-170,-331,-297
-53,39,92,7,-73,65,117,-39,214,-170,-326,-287
-73,29,102,21,-87,65,122,-39,224,-175,-336,-278
-102,29,131,36,-117,80,122,-43,219,-190,-346,-273
-112,34,146,39,-129,90,122,-53,219,-190,-351,-268
-131,34,165,48,-148,100,122,-53,219,-204,-356,-263
-170,34,204,68,-187,119,136,-53,219,-209,-356,-253
-190,34,224,78,-207,129,136,-63,219,-209,-356,-244
-214,34,248,90,-231,141,141,-68,209,-200,-351,-234
-224,39,263,92,-244,151,141,-78,209,-200,-346,-214
-214,39,253,87,-234,146,131,-87,190,-200,-356,-214
-209,39,248,85,-229,143,126,-97,190,-204,-351,-209
-204,39,244,82,-224,141,126,-107,185,-209,-351,-209
-185,58,244,63,-214,151,122,-122,180,-209,-351,-209
-165,78,244,43,-204,161,102,-131,161,-234,-351,-204
-161,78,239,41,-200,158,92,-146,146,-229,-346,-200
-151,87,239,31,-195,163,82,-156,131,-234,-341,-195
-131,92,224,19,-178,158,73,-170,122,-239,-341,-190
-151,82,234,34,-192,158,73,-175,117,-224,-326,-180
-156,82,239,36,-197,161,68,-175,112,-224,-317,-170
-165,87,253,39,-209,170,58,-180,107,-224,-317,-161
-175,87,263,43,-219,175,53,-185,102,-224,-312,-146
-161,92,253,34,-207,173,39,-190,73,-214,-287,-141
-151,97,248,26,-200,173,34,-200,73,-214,-268,-136
-131,107,239,12,-185,173,34,-204,58,-209,-263,-122
-126,122,248,2,-187,185,29,-209,48,-209,-248,-117
-151,102,253,24,-202,178,34,-209,24,-209,-244,-92
-165,102,268,31,-217,185,19,-214,14,-214,-234,-78
-161,97,258,31,-209,178,9,-219,9,-209,-224,-63
-156,87,244,34,-200,165,4,-219,9,-209,-214,-58
-190,107,297,41,-244,202,9,-219,9,-195,-195,-58
-200,117,317,41,-258,217,4,-219,0,-185,-175,-53
-175,131,307,21,-241,219,0,-229,-9,-170,-165,-53
-170,136,307,17,-239,222,0,-229,-14,-161,-146,-53
-185,131,317,26,-251,224,-4,-214,-24,-141,-126,-29
-195,126,322,34,-258,224,-9,-209,-34,-131,-112,-14
-190,117,307,36,-248,212,-24,-224,-43,-131,-97,0
-180,112,292,34,-236,202,-29,-219,-48,-122,-78,14
-161,126,287,17,-224,207,-34,-204,-43,-102,-63,29
-156,136,292,9,-224,214,-39,-200,-39,-87,-48,29
-151,146,297,2,-224,222,-34,-185,-39,-73,-29,34
-136,161,297,-12,-217,229,-29,-175,-34,-58,-19,34
-126,156,283,-14,-204,219,-43,-170,-39,-58,-19,39
-141,151,292,-4,-217,222,-48,-170,-43,-58,-24,43
-122,146,268,-12,-195,207,-48,-156,-48,-53,-19,53
-165,141,307,12,-236,224,-48,-136,-53,-48,-9,63
-200,122,322,39,-261,222,-43,-136,-43,-43,4,63
-156,117,273,19,-214,195,-43,-131,-43,-39,14,63
-112,107,219,2,-165,163,-48,-112,-43,-29,14,63
-107,97,204,4,-156,151,-53,-102,-48,-24,14,58
-141,102,244,19,-192,173,-39,-78,-39,-14,29,68
-151,117,268,17,-209,192,-29,-68,-34,0,43,68
-136,136,273,0,-204,204,-19,-63,-29,9,53,68
-122,151,273,-14,-197,212,-14,-48,-24,19,58,68
-117,151,268,-17,-192,209,-19,-39,-39,14,48,53
-117,146,263,-14,-190,204,-29,-39,-43,9,39,43
-117,131,248,-7,-183,190,-39,-43,-48,4,29,34
-131,122,253,4,-192,187,-48,-29,-43,0,24,29
-141,112,253,14,-197,183,-34,-19,-39,4,29,24
-126,107,234,9,-180,170,-34,-4,-39,9,29,24
-107,102,209,2,-158,156,-24,4,-29,9,34,29
-107,92,200,7,-153,146,-24,14,-29,9,39,29
-117,87,204,14,-161,146,-14,9,-19,24,34,29
-131,87,219,21,-175,153,-9,34,-19,34,34,29
-131,87,219,21,-175,153,0,39,-14,34,29,29
-122,87,209,17,-165,148,0,39,-14,34,24,29
-97,97,195,0,-146,146,-9,39,-24,19,9,29
-97,97,195,0,-146,146,-9,39,-24,14,4,24
-112,102,214,4,-163,158,-9,43,-24,9,4,24
-112,102,214,4,-163,158,-14,43,-24,4,0,19
-92,92,185,0,-139,139,-14,53,-14,4,4,19
-73,87,161,-7,-117,124,-14,53,-14,9,14,19
-82,73,156,4,-119,114,-4,58,-9,24,19,19
-102,68,170,17,-136,119,0,73,-9,29,29,19
-87,73,161,7,-124,117,-4,68,-14,19,34,4
-92,73,165,9,-129,119,-4,68,-14,19,34,0
-78,78,156,0,-117,117,-14,68,-14,19,24,-19
-58,82,141,-12,-100,112,-14,58,-14,9,19,-24
-82,78,161,2,-122,119,4,78,0,19,24,-34
-107,87,195,9,-151,141,9,82,14,34,39,-29
-112,87,200,12,-156,143,14,82,24,43,43,-29
-122,87,209,17,-165,148,29,82,34,53,39,-29
-97,87,185,4,-141,136,19,73,14,19,14,-14
-82,87,170,-2,-126,129,4,68,4,4,-4,-9
-78,82,161,-2,-119,122,-4,63,-4,-19,-29,-9
-63,82,146,-9,-104,114,-14,58,-19,-34,-43,-9
-73,78,151,-2,-112,114,-9,63,-29,-24,-53,-14
-78,78,156,0,-117,117,-4,63,-19,-24,-48,-14
-82,78,161,2,-122,119,0,68,-19,-24,-48,-19
-97,78,175,9,-136,126,4,68,-24,-24,-48,-19
-78,63,141,7,-109,102,-9,68,-19,-19,-43,-24
-68,63,131,2,-100,97,-9,68,-9,-19,-39,-34
-58,63,122,-2,-90,92,-14,68,-4,-19,-34,-39
-43,63,107,-9,-75,85,-14,68,4,-9,-29,-39
-34,68,102,-17,-68,85,-9,68,-4,-19,-29,-29
-19,68,87,-24,-53,78,-9,63,-14,-29,-34,-34
-4,73,78,-34,-41,75,-9,63,-14,-29,-43,-34
0,78,78,-39,-39,78,-4,63,-9,-39,-43,-34
-29,63,92,-17,-61,78,9,73,4,-29,-48,-43
-53,58,112,-2,-82,85,14,78,14,-19,-39,-34
-58,48,107,4,-82,78,14,78,14,-19,-39,-34
-48,39,87,4,-68,63,14,73,4,-19,-39,-43
-48,53,102,-2,-75,78,9,78,14,-9,-48,-43
-58,53,112,2,-85,82,14,78,14,-9,-53,-53
-63,53,117,4,-90,85,19,78,24,-19,-58,-58
-68,63,131,2,-100,97,24,78,29,-19,-58,-58
-43,73,117,-14,-80,95,24,82,39,-19,-53,-58
-34,73,107,-19,-70,90,24,82,39,-9,-48,-63
-29,73,102,-21,-65,87,19,87,43,-9,-48,-58
-4,73,78,-34,-41,75,14,87,48,-9,-53,-63
19,82,63,-51,-21,73,14,82,43,-19,-63,-63
24,82,58,-53,-17,70,14,82,39,-14,-63,-63
9,82,73,-46,-31,78,19,78,43,-14,-58,-63
4,82,78,-43,-36,80,19,68,39,-14,-58,-68
24,68,43,-46,-9,56,14,78,48,-14,-63,-78
43,68,24,-56,9,46,14,82,58,-14,-58,-78
19,68,48,-43,-14,58,24,92,73,0,-48,-73
14,63,48,-39,-17,56,29,92,73,0,-34,-73
9,73,63,-41,-26,68,24,92,63,-9,-48,-78
9,82,73,-46,-31,78,19,82,53,-9,-63,-82
4,92,87,-48,-41,90,9,82,53,-14,-68,-87
4,107,102,-56,-48,104,4,92,58,-14,-68,-92
0,112,112,-56,-56,112,9,97,73,0,-63,-92
4,112,107,-58,-51,109,14,97,78,4,-63,-97
34,117,82,-75,-24,100,14,87,82,4,-63,-97
39,107,68,-73,-14,87,14,87,78,4,-68,-92
34,92,58,-63,-12,75,19,92,82,14,-58,-78
24,87,63,-56,-19,75,24,112,87,24,-48,-68
0,82,82,-41,-41,82,24,122,97,29,-34,-48
19,87,68,-53,-24,78,24,126,102,29,-24,-39
24,63,39,-43,-7,51,4,112,82,29,-24,-43
9,63,53,-36,-21,58,4,107,73,29,-29,-48
0,73,73,-36,-36,73,4,97,63,29,-34,-53
-4,73,78,-34,-41,75,4,92,53,9,-39,-58
4,78,73,-41,-34,75,0,97,53,9,-34,-68
14,78,63,-46,-24,70,4,97,53,9,-34,-63
34,78,43,-56,-4,61,-19,82,48,4,-39,-63
43,78,34,-61,4,56,-29,82,48,0,-39,-63
39,82,43,-61,-2,63,-29,92,43,9,-39,-53
24,82,58,-53,-17,70,-29,92,43,9,-39,-53
29,87,58,-58,-14,73,-29,92,43,9,-34,-53
24,97,73,-61,-24,85,-29,87,48,14,-34,-53
14,97,82,-56,-34,90,-29,73,29,24,-29,-63
19,122,102,-70,-41,112,-19,82,39,39,-9,-43
0,117,117,-58,-58,117,-9,97,58,48,9,-9
9,92,82,-51,-36,87,-19,92,48,34,0,-19
9,78,68,-43,-29,73,-19,87,39,19,-9,-19
9,63,53,-36,-21,58,-19,82,29,4,-19,-19
9,48,39,-29,-14,43,-19,78,19,-9,-29,-19
0,63,63,-31,-31,63,-24,73,9,-9,-39,-19
4,78,73,-41,-34,75,-24,68,4,-9,-34,-19
19,82,63,-51,-21,73,-24,68,4,0,-24,-19
48,97,48,-73,0,73,-24,68,4,4,-19,-9
48,92,43,-70,2,68,-24,73,4,0,-14,0
48,92,43,-70,2,68,-24,78,9,0,-9,4
39,92,53,-65,-7,73,-24,82,14,4,-4,4
39,97,58,-68,-9,78,-19,87,14,4,-4,14
19,87,68,-53,-24,78,-24,78,4,4,-9,9
19,78,58,-48,-19,68,-29,78,4,4,-9,9
14,78,63,-46,-24,70,-29,87,4,4,-9,4
4,68,63,-36,-29,65,-24,92,14,19,0,0
4,78,73,-41,-34,75,-14,102,29,29,9,9
0,82,82,-41,-41,82,-4,102,34,34,14,9
0,78,78,-39,-39,78,0,102,43,34,19,4
-24,78,102,-26,-63,90,19,112,48,43,24,9
-34,78,112,-21,-73,95,29,122,48,34,9,0
-43,68,112,-12,-78,90,29,122,48,29,-4,-19
-63,48,112,7,-87,80,29,122,43,24,-4,-29
-87,39,126,24,-107,82,34,126,43,24,-14,-34
-82,24,107,29,-95,65,39,141,53,29,-4,-73
-63,24,87,19,-75,56,39,146,53,29,0,-73
-48,19,68,14,-58,43,43,151,48,24,0,-73
-58,4,63,26,-61,34,48,146,48,24,-9,-68
-78,4,82,36,-80,43,53,146,48,34,-4,-58
-82,0,82,41,-82,41,53,146,48,29,-9,-63
-73,0,73,36,-73,36,48,141,34,19,-19,-68
-87,0,87,43,-87,43,48,141,34,19,-19,-68
-126,4,131,61,-129,68,63,151,43,24,-24,-53
-112,4,117,53,-114,61,63,151,43,24,-19,-43
-122,0,122,61,-122,61,58,141,43,19,-19,-39
-131,4,136,63,-134,70,53,141,34,19,-14,-34
-122,4,126,58,-124,65,63,146,43,24,-19,-24
-126,14,141,56,-134,78,68,146,48,19,-19,-24
-131,14,146,58,-139,80,68,141,48,14,-19,-29
-136,14,151,61,-143,82,58,141,39,9,-24,-34
-136,14,151,61,-143,82,68,151,43,24,-19,-34
-131,9,141,61,-136,75,68,161,53,29,-14,-24
-131,4,136,63,-134,70,68,165,58,29,-9,-24
-146,-4,141,75,-143,68,68,170,63,34,-4,-24
-175,4,180,85,-178,92,82,185,73,39,0,-24
-170,4,175,82,-173,90,87,185,73,43,4,-24
-175,-4,170,90,-173,82,92,180,73,48,9,-24
-185,-4,180,95,-183,87,97,180,73,53,14,-19
-190,4,195,92,-192,100,97,175,68,43,-4,-29
-180,9,190,85,-185,100,87,165,58,39,-14,-39
-165,9,175,78,-170,92,68,146,34,29,-34,-53
-151,14,165,68,-158,90,58,131,24,4,-43,-68
-161,0,161,80,-161,80,73,141,34,9,-29,-58
-175,-4,170,90,-173,82,78,156,43,14,-24,-48
-204,-4,200,104,-202,97,87,170,58,29,-9,-34
-204,-4,200,104,-202,97,92,185,73,39,0,-19
-190,9,200,90,-195,104,97,195,73,48,14,-9
-185,9,195,87,-190,102,102,195,73,53,19,0
-185,14,200,85,-192,107,107,195,78,53,24,0
-180,19,200,80,-190,109,112,195,78,53,29,9
-170,19,190,75,-180,104,97,195,68,53,19,-4
-170,19,190,75,-180,104,92,190,63,53,19,-14
-170,14,185,78,-178,100,82,180,58,48,9,-29
-161,14,175,73,-168,95,73,165,58,48,9,-48
-165,0,165,82,-165,82,73,175,73,53,19,-43
-175,-14,161,95,-168,73,82,180,73,53,19,-34
-180,-29,151,104,-165,61,82,190,73,53,24,-29
-180,-43,136,112,-158,46,82,190,68,58,24,-29
-175,-29,146,102,-161,58,92,195,78,53,9,-14
-165,-19,146,92,-156,63,97,195,78,48,9,-9
-175,-14,161,95,-168,73,102,195,82,43,9,0
-180,-9,170,95,-175,80,112,195,82,29,9,4
-200,-24,175,112,-187,75,82,170,58,19,-24,-24
-175,9,185,82,-180,97,68,170,48,19,-34,-53
-185,19,204,82,-195,112,68,180,58,34,-19,-68
-209,-4,204,107,-207,100,78,185,63,24,-24,-82
-190,-24,165,107,-178,70,97,195,58,9,-29,-87
-165,-39,126,102,-146,43,107,214,53,4,-24,-82
-151,-39,112,95,-131,36,102,219,43,0,-39,-87
-175,-68,107,122,-141,19,107,248,43,-14,-63,-78
-161,-92,68,126,-114,-12,107,287,58,-34,-87,-82
-117,-92,24,104,-70,-34,87,312,87,-29,-97,-82
-102,-92,9,97,-56,-41,78,366,190,19,-68,-87
-68,-97,-29,82,-19,-63,82,429,283,68,-63,-97
9,-68,-78,29,43,-73,63,478,356,107,-48,-97
39,-48,-87,4,63,-68,39,546,458,185,24,-73
73,-43,-117,-14,95,-80,-9,619,512,268,82,-48
126,-63,-190,-31,158,-126,-92,634,414,297,107,-29
165,-87,-253,-39,209,-170,-175,634,156,278,136,-4
219,-63,-283,-78,251,-173,-229,658,-126,248,141,19
287,-19,-307,-134,297,-163,-283,649,-346,239,161,48
326,19,-307,-173,317,-143,-361,605,-566,248,224,92
336,34,-302,-185,319,-134,-453,536,-810,292,307,151
351,78,-273,-214,312,-97,-536,473,-1034,341,405,229
453,165,-287,-309,370,-61,-614,400,-1180,419,546,336
556,273,-283,-414,419,-4,-722,268,-1259,536,702,448
605,331,-273,-468,439,29,-849,73,-1298,722,922,600
619,405,-214,-512,417,95,-961,-214,-1293,936,1180,780
610,473,-136,-541,373,168,-1093,-624,-1312,1132,1424,951
590,517,-73,-553,331,222,-1180,-1078,-1376,1224,1649,1141
551,600,48,-575,251,324,-1224,-1464,-1454,1244,1830,1312
478,688,209,-583,134,448,-1234,-1654,-1503,1215,1952,1459
424,717,292,-570,65,505,-1224,-1751,-1595,1054,2000,1561
429,756,326,-592,51,541,-1229,-1869,-1800,722,1937,1620
409,800,390,-605,9,595,-1220,-1952,-1976,400,1830,1664
346,810,463,-578,-58,636,-1161,-1903,-1976,234,1742,1688
307,839,531,-573,-112,685,-1107,-1820,-1873,146,1654,1693
273,858,585,-566,-156,722,-1039,-1722,-1737,102,1571,1683
239,858,619,-549,-190,739,-980,-1595,-1571,102,1527,1668
234,873,639,-553,-202,756,-941,-1503,-1464,78,1488,1664
224,863,639,-544,-207,751,-907,-1400,-1376,29,1415,1620
200,805,605,-502,-202,705,-839,-1288,-1259,-14,1307,1522
170,722,551,-446,-190,636,-751,-1137,-1127,-24,1180,1390
151,624,473,-387,-161,549,-639,-966,-1000,-34,1034,1224
126,546,419,-336,-146,483,-546,-805,-878,-73,834,1044
107,444,336,-275,-114,390,-453,-658,-766,-161,570,824
48,302,253,-175,-102,278,-351,-512,-629,-248,248,585
4,214,209,-109,-102,212,-258,-380,-488,-312,24,409
-4,195,200,-95,-102,197,-200,-283,-400,-326,-39,346
-9,165,175,-78,-92,170,-161,-214,-331,-336,-92,278
-34,126,161,-46,-97,143,-141,-190,-297,-356,-170,190
-97,87,185,4,-141,136,-117,-165,-273,-341,-190,146
-107,73,180,17,-143,126,-92,-146,-248,-307,-200,102
-58,63,122,-2,-90,92,-82,-126,-229,-297,-224,53
-34,39,73,-2,-53,56,-68,-102,-204,-292,-234,24
-53,4,58,24,-56,31,-48,-73,-175,-283,-244,-9
-87,-48,39,68,-63,-4,-19,-24,-107,-253,-248,-58
-107,-82,24,95,-65,-29,19,34,-39,-219,-239,-97
-43,-43,0,43,-21,-21,63,73,19,-195,-224,-117
-4,-19,-14,12,4,-17,87,102,63,-170,-229,-156
-34,-39,-4,36,-14,-21,102,131,97,-126,-214,-175
-63,-39,24,51,-43,-7,117,151,112,-97,-190,-170
-97,-43,53,70,-75,4,131,165,131,-68,-170,-151
-107,-63,43,85,-75,-9,136,180,151,-63,-156,-141
-122,-68,53,95,-87,-7,151,195,170,-48,-156,-146
-131,-73,58,102,-95,-7,151,200,180,-48,-156,-151
-141,-73,68,107,-104,-2,151,204,190,-43,-156,-151
-131,-68,63,100,-97,-2,156,209,204,-53,-156,-156
-136,-68,68,102,-102,0,156,214,204,-43,-161,-161
-136,-68,68,102,-102,0,161,214,214,-39,-165,-161
-126,-68,58,97,-92,-4,161,209,200,-39,-170,-165
-82,-78,4,80,-43,-36,141,195,175,-68,-175,-170
-53,-73,-19,63,-17,-46,136,190,170,-73,-185,-170
-34,-68,-34,51,0,-51,136,190,175,-68,-190,-170
-14,-63,-48,39,17,-56,131,195,185,-68,-190,-170
-48,-68,-19,58,-14,-43,151,209,200,-53,-190,-170
-73,-68,4,70,-39,-31,151,214,219,-43,-185,-170
-92,-68,24,80,-58,-21,151,214,219,-43,-170,-165
-107,-73,34,90,-70,-19,151,204,214,-48,-170,-165
-78,-82,-4,80,-36,-43,151,190,200,-58,-185,-175
-53,-82,-29,68,-12,-56,141,185,180,-68,-200,-180
-39,-82,-43,61,2,-63,136,180,180,-78,-209,-190
-34,-78,-43,56,4,-61,136,180,180,-78,-209,-190
-43,-78,-34,61,-4,-56,141,180,190,-53,-214,-170
-53,-78,-24,65,-14,-51,151,190,204,-58,-209,-170
-68,-82,-14,75,-26,-48,151,190,204,-68,-204,-170
-78,-82,-4,80,-36,-43,151,190,204,-73,-204,-170
-78,-68,9,73,-43,-29,146,190,204,-68,-195,-175
-68,-68,0,68,-34,-34,151,190,195,-63,-195,-175
-68,-78,-9,73,-29,-43,151,190,185,-63,-190,-175
-68,-78,-9,73,-29,-43,156,195,200,-58,-185,-170
-53,-68,-14,61,-19,-41,161,214,224,-53,-185,-175
-68,-68,0,68,-34,-34,161,214,224,-53,-195,-175
-87,-73,14,80,-51,-29,161,209,224,-53,-195,-175
-87,-82,4,85,-46,-39,161,209,224,-48,-190,-175
-73,-87,-14,80,-29,-51,151,200,219,-48,-200,-180
-68,-87,-19,78,-24,-53,151,195,214,-53,-200,-185
-68,-87,-19,78,-24,-53,146,180,200,-63,-209,-190
-63,-87,-24,75,-19,-56,146,180,185,-78,-214,-190
-73,-102,-29,87,-21,-65,146,180,204,-78,-204,-180
-87,-102,-14,95,-36,-58,151,195,209,-73,-200,-180
-97,-102,-4,100,-46,-53,161,195,209,-58,-195,-180
-102,-87,14,95,-58,-36,161,195,214,-58,-195,-175
-82,-87,-4,85,-39,-46,156,185,204,-78,-204,-185
-68,-87,-19,78,-24,-53,141,170,190,-78,-214,-185
-68,-87,-19,78,-24,-53,136,170,190,-78,-224,-185
-78,-87,-9,82,-34,-48,136,175,214,-78,-229,-185
-97,-87,9,92,-53,-39,151,180,219,-73,-224,-175
-102,-87,14,95,-58,-36,156,185,219,-63,-219,-180
-107,-87,19,97,-63,-34,161,190,224,-58,-209,-180
-117,-87,29,102,-73,-29,165,195,229,-53,-204,-175
-102,-82,19,92,-61,-31,161,190,224,-73,-209,-185
-87,-82,4,85,-46,-39,156,180,214,-78,-219,-195
-68,-78,-9,73,-29,-43,151,170,209,-87,-229,-200
-48,-73,-24,61,-12,-48,146,156,209,-97,-234,-200
-68,-78,-9,73,-29,-43,151,161,224,-97,-229,-190
-102,-82,19,92,-61,-31,156,175,239,-87,-224,-180
-122,-87,34,104,-78,-26,161,180,229,-78,-219,-175
-131,-92,39,112,-85,-26,165,175,219,-73,-229,-180
-126,-92,34,109,-80,-29,161,175,229,-63,-219,-195
-131,-92,39,112,-85,-26,161,175,234,-63,-219,-195
-136,-97,39,117,-87,-29,170,180,234,-73,-219,-190
-141,-97,43,119,-92,-26,170,180,239,-73,-229,-190
-141,-97,43,119,-92,-26,161,165,234,-87,-234,-200
-136,-102,34,119,-85,-34,161,151,229,-92,-239,-204
-131,-107,24,119,-78,-41,156,141,219,-97,-244,-209
-151,-112,39,131,-95,-36,156,136,209,-102,-248,-209
-126,-107,19,117,-73,-43,161,141,219,-102,-244,-200
-112,-102,9,107,-61,-46,161,141,229,-102,-244,-204
-107,-102,4,104,-56,-48,161,136,229,-107,-248,-209
-126,-97,29,112,-78,-34,161,131,229,-107,-258,-209
-126,-107,19,117,-73,-43,161,126,224,-122,-273,-214
-151,-107,43,129,-97,-31,165,122,224,-126,-273,-204
-151,-107,43,129,-97,-31,161,117,200,-141,-268,-200
-151,-107,43,129,-97,-31,156,112,185,-146,-273,-200
-170,-87,82,129,-126,-2,175,131,209,-131,-253,-190
-180,-82,97,131,-139,7,185,141,234,-122,-244,-185
-185,-78,107,131,-146,14,190,136,248,-107,-244,-190
-170,-73,97,122,-134,12,200,146,263,-92,-229,-180
-185,-73,112,129,-148,19,204,146,273,-92,-219,-170
-214,-78,136,146,-175,29,209,141,273,-92,-224,-170
-258,-82,175,170,-217,46,214,136,268,-102,-234,-170
-273,-82,190,178,-231,53,219,141,268,-97,-234,-165
-244,-87,156,165,-200,34,214,126,258,-102,-239,-170
-239,-107,131,173,-185,12,209,122,253,-112,-248,-175
-263,-131,131,197,-197,0,204,117,248,-122,-263,-185
-278,-151,126,214,-202,-12,209,112,253,-131,-278,-190
-273,-141,131,207,-202,-4,219,107,253,-126,-273,-180
-244,-126,117,185,-180,-4,219,97,244,-126,-273,-180
-248,-112,136,180,-192,12,224,87,244,-126,-268,-180
-263,-92,170,178,-217,39,224,87,244,-126,-263,-185
-258,-97,161,178,-209,31,204,73,239,-131,-268,-195
-263,-107,156,185,-209,24,200,63,229,-151,-278,-195
-263,-112,151,187,-207,19,200,58,229,-156,-278,-195
-268,-107,161,187,-214,26,204,58,234,-161,-278,-190
-283,-97,185,190,-234,43,219,58,239,-151,-268,-180
-307,-97,209,202,-258,56,219,53,239,-161,-278,-175
-312,-92,219,202,-265,63,219,43,244,-156,-283,-170
-326,-92,234,209,-280,70,219,43,248,-165,-287,-165
-366,-92,273,229,-319,90,234,43,244,-165,-273,-151
-385,-92,292,239,-339,100,234,43,248,-161,-268,-146
-409,-92,317,251,-363,112,239,48,244,-146,-258,-141
-419,-87,331,253,-375,122,239,48,248,-141,-248,-126
-414,-78,336,246,-375,129,219,29,224,-156,-258,-117
-405,-78,326,241,-366,124,214,9,219,-165,-253,-112
-395,-78,317,236,-356,119,214,-9,209,-175,-253,-112
-370,-58,312,214,-341,126,209,-34,200,-180,-253,-112
-366,-58,307,212,-336,124,190,-39,195,-185,-248,-112
-366,-58,307,212,-336,124,190,-48,185,-170,-239,-102
-361,-48,312,204,-336,131,190,-53,175,-165,-229,-92
-346,-43,302,195,-324,129,190,-63,170,-161,-224,-82
-361,-43,317,202,-339,136,180,-78,170,-156,-219,-73
-361,-43,317,202,-339,136,175,-78,161,-156,-209,-63
-366,-39,326,202,-346,143,165,-82,151,-156,-209,-53
-370,-39,331,204,-351,146,161,-87,141,-156,-204,-39
-380,-29,351,204,-366,161,146,-102,122,-146,-195,-39
-375,-29,346,202,-361,158,141,-112,122,-146,-180,-29
-361,-24,336,192,-348,156,141,-117,107,-141,-180,-9
-361,-14,346,187,-353,165,136,-122,97,-141,-170,0
-351,-19,331,185,-341,156,122,-131,73,-146,-165,4
-341,-14,326,178,-334,156,107,-136,63,-146,-156,9
-312,-14,297,163,-305,141,97,-141,58,-136,-146,14
-283,-19,263,151,-273,122,92,-141,58,-131,-136,9
-307,-14,292,161,-300,139,92,-151,48,-122,-112,24
-307,-9,297,158,-302,143,82,-151,39,-117,-97,34
-273,0,273,136,-273,136,73,-161,29,-107,-92,39
-258,0,258,129,-258,129,68,-161,24,-102,-78,43
-268,9,278,129,-273,143,63,-151,14,-102,-73,58
-263,9,273,126,-268,141,58,-151,4,-92,-63,63
-244,4,248,119,-246,126,43,-170,-4,-92,-53,68
-219,4,224,107,-222,114,39,-170,-9,-82,-39,73
-219,19,239,100,-229,129,34,-146,-9,-63,-24,78
-224,19,244,102,-234,131,29,-141,-9,-48,-9,78
-229,19,248,104,-239,134,34,-126,-14,-34,9,82
-224,24,248,100,-236,136,39,-117,-14,-19,19,82
-175,24,200,75,-187,112,29,-122,-4,-19,9,73
-170,24,195,73,-183,109,19,-122,-4,-19,4,73
-131,24,156,53,-143,90,14,-107,-4,-14,9,78
-156,24,180,65,-168,102,9,-87,-4,-9,19,82
-185,29,214,78,-200,122,14,-87,-4,-4,34,78
-136,29,165,53,-151,97,14,-82,-4,0,43,73
-87,24,112,31,-100,68,9,-63,-4,9,43,68
-78,19,97,29,-87,58,4,-53,-9,14,43,58
-87,0,87,43,-87,43,-4,-39,-24,9,34,43
-82,0,82,41,-82,41,-9,-39,-24,9,34,39
-53,4,58,24,-56,31,-14,-43,-24,4,29,34
-24,4,29,9,-26,17,-24,-39,-24,0,19,29
-19,0,19,9,-19,9,-29,-24,-24,9,19,29
-19,0,19,9,-19,9,-29,-19,-24,9,19,24
-19,-9,9,14,-14,0,-29,-19,-24,9,19,19
-34,-14,19,24,-26,2,-29,0,-14,9,24,19
-53,-19,34,36,-43,7,-24,0,-9,24,24,14
-48,-19,29,34,-39,4,-24,14,-9,29,19,14
-39,-19,19,29,-29,0,-14,24,0,29,19,19
-48,-24,24,36,-36,0,-14,34,0,29,19,19
-43,-34,9,39,-26,-12,-14,29,0,29,19,0
-43,-29,14,36,-29,-7,-9,53,0,34,24,0
-29,-24,4,26,-17,-9,0,58,4,29,24,0
-4,-19,-14,12,4,-17,0,58,4,24,24,0
29,-19,-48,-4,39,-34,0,48,-9,24,0,0
29,-19,-48,-4,39,-34,0,48,-14,24,-4,-4
14,-14,-29,0,21,-21,0,53,-19,24,-4,-4
14,-14,-29,0,21,-21,-4,53,-24,24,-9,-9
14,-14,-29,0,21,-21,-4,63,-19,19,0,-14
34,-19,-53,-7,43,-36,-4,63,-14,19,4,-19
24,-34,-58,4,41,-46,4,68,-4,29,4,-24
4,-39,-43,17,24,-41,9,82,0,29,9,-29
-4,-39,-34,21,14,-36,14,87,4,19,4,-24
-14,-43,-29,29,7,-36,14,87,4,19,4,-19
-4,-43,-39,24,17,-41,4,87,4,19,-4,-29
9,-43,-53,17,31,-48,4,78,4,9,-9,-24
-9,-48,-39,29,14,-43,19,87,9,19,0,-24
-19,-39,-19,29,0,-29,19,92,14,24,9,-19
-9,-39,-29,24,9,-34,19,92,14,24,9,-19
-4,-39,-34,21,14,-36,29,92,14,24,0,-19
14,-48,-63,17,39,-56,24,87,4,14,-9,-19
24,-48,-73,12,48,-61,14,87,4,14,-14,-19
24,-53,-78,14,51,-65,9,87,4,4,-24,-24
34,-53,-87,9,61,-70,4,87,0,4,-24,-29
43,-48,-92,2,68,-70,4,87,-14,-4,-29,-34
48,-48,-97,0,73,-73,4,82,-9,-14,-29,-34
53,-48,-102,-2,78,-75,4,82,-14,-24,-34,-39
48,-48,-97,0,73,-73,4,78,-24,-34,-39,-39
39,-53,-92,7,65,-73,4,87,-9,-9,-39,-39
39,-53,-92,7,65,-73,9,87,0,0,-39,-43
39,-53,-92,7,65,-73,9,87,4,9,-39,-43
43,-53,-97,4,70,-75,14,87,14,29,-39,-39
43,-53,-97,4,70,-75,24,97,19,29,-34,-29
48,-58,-107,4,78,-82,19,92,14,19,-34,-34
53,-58,-112,2,82,-85,14,92,19,19,-39,-34
48,-58,-107,4,78,-82,14,92,29,9,-34,-34
14,-63,-78,24,46,-70,39,112,43,19,-29,-43
-14,-58,-43,36,14,-51,43,117,53,29,-19,-34
-24,-58,-34,41,4,-46,43,117,53,29,-19,-34
-19,-58,-39,39,9,-48,43,112,43,29,-19,-43
-4,-39,-34,21,14,-36,43,107,43,29,-29,-39
-9,-34,-24,21,7,-29,43,107,43,29,-34,-43
-9,-29,-19,19,4,-24,43,107,53,19,-39,-43
-9,-14,-4,12,-2,-9,43,107,58,19,-39,-39
-19,-29,-9,24,-4,-19,53,117,73,29,-29,-24
-34,-34,0,34,-17,-17,63,122,78,39,-19,-24
-53,-39,14,46,-34,-12,68,131,87,39,-14,-14
-53,-43,9,48,-31,-17,73,136,97,39,-14,-14
-24,-34,-9,29,-7,-21,68,131,82,29,-24,-34
-14,-34,-19,24,2,-26,63,131,78,34,-24,-34
-24,-34,-9,29,-7,-21,63,126,82,34,-19,-34
-24,-34,-9,29,-7,-21,58,117,78,34,-19,-39
-9,-34,-24,21,7,-29,43,117,68,24,-29,-48
14,-29,-43,7,29,-36,43,122,78,24,-29,-48
-4,-24,-19,14,7,-21,53,131,92,39,-24,-43
-4,-24,-19,14,7,-21,58,131,92,39,-14,-43
-14,-24,-9,19,-2,-17,63,136,107,53,0,-39
-29,-24,4,26,-17,-9,68,131,102,58,-4,-34
-48,-24,24,36,-36,0,68,136,107,58,0,-29
-63,-19,43,41,-53,12,73,151,117,63,9,-24
-73,-9,63,41,-68,26,78,156,136,82,14,-24
-73,-14,58,43,-65,21,82,156,136,82,14,-29
-48,-14,34,31,-41,9,82,146,136,78,14,-29
-48,-29,19,39,-34,-4,82,146,126,73,9,-24
-53,-29,24,41,-39,-2,73,146,126,73,0,-29
-63,-29,34,46,-48,2,73,161,126,82,0,-29
-87,-29,58,58,-73,14,68,165,131,87,4,-19
-68,-19,48,43,-58,14,63,165,131,87,4,-19
-48,-43,4,46,-26,-19,48,141,112,82,0,-29
-48,-43,4,46,-26,-19,43,136,102,78,0,-29
-43,-34,9,39,-26,-12,39,126,92,73,0,-29
-34,-34,0,34,-17,-17,34,122,82,48,0,-29
-48,-53,-4,51,-21,-29,34,136,92,58,14,-24
-53,-58,-4,56,-24,-31,43,136,92,58,14,-14
-48,-63,-14,56,-17,-39,24,122,87,53,9,-9
-53,-68,-14,61,-19,-41,19,122,87,48,9,-4
-34,-9,24,21,-29,7,48,141,107,68,19,34
-34,-24,9,29,-21,-7,39,131,92,68,19,24
-63,-43,19,53,-41,-12,29,141,78,78,34,14
-87,-29,58,58,-73,14,48,156,97,87,39,19
-97,-34,63,65,-80,14,39,151,87,87,34,9
-97,-39,58,68,-78,9,39,146,87,87,29,9
-97,-43,53,70,-75,4,39,141,87,87,24,9
-97,-48,48,73,-73,0,39,136,87,87,19,9
-78,-39,39,58,-58,0,24,122,82,73,9,9
-63,-29,34,46,-48,2,24,117,73,68,14,9
-39,-29,9,34,-24,-9,24,117,68,73,24,9
0,-19,-19,9,9,-19,24,117,63,73,29,19
-9,-19,-9,14,0,-14,34,122,63,82,39,34
-19,-24,-4,21,-7,-14,34,126,68,87,48,43
-39,-29,9,34,-24,-9,34,131,73,97,58,48
-48,-29,19,39,-34,-4,39,136,73,102,63,63
-58,-39,19,48,-39,-9,34,131,73,87,63,58
-58,-39,19,48,-39,-9,29,126,73,82,58,58
-63,-29,34,46,-48,2,29,131,73,78,53,53
-73,-29,43,51,-58,7,34,131,82,87,58,48
-63,-19,43,41,-53,12,39,131,73,97,58,34
-68,-24,43,46,-56,9,43,131,73,92,53,29
-68,-39,29,53,-48,-4,43,131,78,82,48,19
-92,-48,43,70,-68,-2,58,141,78,82,43,19
-92,-48,43,70,-68,-2,68,151,87,73,39,14
-92,-58,34,75,-63,-12,68,151,87,68,24,0
-102,-78,24,90,-63,-26,68,151,82,63,24,-4
-117,-87,29,102,-73,-29,73,156,82,63,14,-4
-122,-78,43,100,-82,-17,87,161,92,73,4,-24
-112,-73,39,92,-75,-17,87,165,92,78,9,-24
-107,-73,34,90,-70,-19,92,170,87,78,9,-24
-126,-82,43,104,-85,-19,97,165,87,82,0,-19
-131,-87,43,109,-87,-21,92,165,78,82,9,-29
-131,-97,34,114,-82,-31,92,165,78,78,9,-34
-117,-102,14,109,-65,-43,87,161,63,68,4,-39
-126,-107,19,117,-73,-43,87,161,63,68,9,-39
-165,-102,63,134,-114,-19,102,180,73,63,14,-29
-141,-102,39,122,-90,-31,102,180,73,63,19,-24
-141,-107,34,124,-87,-36,97,170,73,58,19,-24
-141,-102,39,122,-90,-31,92,170,63,58,24,-24
-117,-92,24,104,-70,-34,92,165,73,58,14,-24
-107,-82,24,95,-65,-29,97,165,78,58,9,-24
-97,-82,14,90,-56,-34,97,161,78,58,4,-29
-87,-82,4,85,-46,-39,87,161,68,58,-4,-34
-87,-87,0,87,-43,-43,92,161,63,48,-14,-43
-82,-87,-4,85,-39,-46,87,161,63,48,-14,-34
-82,-87,-4,85,-39,-46,82,156,58,43,-14,-34
-97,-92,4,95,-51,-43,78,151,53,43,-14,-34
-126,-102,24,114,-75,-39,82,170,63,53,-9,-29
-122,-102,19,112,-70,-41,87,175,63,53,-4,-24
-126,-112,14,119,-70,-48,92,175,63,53,0,-19
-136,-112,24,124,-80,-43,97,180,63,53,4,-9
-107,-97,9,102,-58,-43,87,165,58,43,-9,-19
-73,-97,-24,85,-24,-61,78,156,48,39,-14,-29
-34,-102,-68,68,17,-85,58,136,24,29,-29,-43
4,-102,-107,48,56,-104,48,122,14,4,-34,-58
4,-102,-107,48,56,-104,48,122,24,9,-24,-68
0,-102,-102,51,51,-102,48,126,24,14,-24,-68
-19,-97,-78,58,29,-87,53,131,29,29,-14,-63
-9,-92,-82,51,36,-87,53,136,34,39,-9,-58
-9,-92,-82,51,36,-87,53,136,24,34,-14,-58
-9,-97,-87,53,39,-92,53,136,24,34,-19,-58
-14,-97,-82,56,34,-90,53,136,29,29,-24,-68
-14,-97,-82,56,34,-90,53,136,29,24,-29,-68
0,-87,-87,43,43,-87,43,131,29,19,-39,-73
14,-87,-102,36,58,-95,43,131,24,14,-39,-73
29,-92,-122,31,75,-107,39,126,19,4,-48,-78
53,-92,-146,19,100,-119,34,117,19,0,-48,-87
34,-92,-126,29,80,-109,39,122,29,9,-39,-78
19,-92,-112,36,65,-102,53,131,34,14,-39,-73
9,-92,-102,41,56,-97,58,146,39,19,-34,-73
4,-92,-97,43,51,-95,63,151,39,29,-34,-78
9,-102,-112,46,61,-107,48,136,34,24,-48,-87
19,-97,-117,39,68,-107,48,136,29,19,-48,-87
9,-97,-107,43,58,-102,48,136,29,14,-48,-82
4,-97,-102,46,53,-100,53,136,24,0,-48,-82
43,-73,-117,14,80,-95,43,131,19,-19,-43,-82
39,-97,-136,29,87,-117,48,131,9,-29,-53,-92
39,-97,-136,29,87,-117,48,122,0,-24,-78,-97
14,-102,-117,43,65,-109,68,146,14,-14,-73,-82
-24,-122,-97,73,36,-109,87,165,19,-9,-58,-78
0,-136,-136,68,68,-136,68,156,-14,-63,-82,-112
34,-156,-190,61,112,-173,43,161,-34,-97,-107,-126
39,-156,-195,58,117,-175,39,180,-24,-73,-122,-136
53,-161,-214,53,134,-187,29,200,-39,-43,-126,-141
78,-190,-268,56,173,-229,29,224,-29,-39,-126,-151
122,-190,-312,34,217,-251,19,268,34,-39,-126,-156
156,-156,-312,0,234,-234,34,341,126,-29,-122,-156
146,-146,-292,0,219,-219,34,429,229,29,-97,-146
156,-156,-312,0,234,-234,9,507,312,97,-63,-131
209,-141,-351,-34,280,-246,-29,590,385,161,4,-97
244,-112,-356,-65,300,-234,-82,653,405,229,78,-48
283,-87,-370,-97,326,-229,-175,663,273,248,107,-14
336,-92,-429,-122,383,-261,-258,668,68,229,122,9
375,-78,-453,-148,414,-265,-312,688,-112,209,122,29
414,-19,-434,-197,424,-226,-380,653,-263,209,146,53
463,34,-429,-248,446,-197,-463,605,-409,263,229,112
488,78,-409,-283,448,-165,-556,541,-575,341,346,190
522,126,-395,-324,458,-134,-644,468,-722,429,478,297
575,175,-400,-375,488,-112,-751,375,-790,566,663,429
653,244,-409,-448,531,-82,-888,229,-790,732,863,580
736,317,-419,-527,578,-51,-1029,-78,-785,897,1054,732
814,385,-429,-600,622,-21,-1180,-507,-785,1093,1259,883
844,488,-356,-666,600,65,-1307,-1000,-800,1283,1464,1034
766,590,-175,-678,470,207,-1332,-1454,-810,1410,1654,1205
673,658,-14,-666,344,322,-1322,-1742,-829,1449,1795,1351
658,697,39,-678,309,368,-1312,-1830,-902,1405,1854,1424
595,697,102,-646,246,400,-1298,-1878,-1068,1239,1859,1493
517,692,175,-605,170,434,-1259,-1942,-1293,985,1790,1527
473,712,239,-592,117,475,-1200,-1922,-1429,751,1683,1542
434,732,297,-583,68,514,-1146,-1849,-1424,605,1576,1546
380,741,361,-561,9,551,-1078,-1771,-1346,492,1464,1546
307,732,424,-519,-58,578,-1019,-1664,-1239,434,1381,1522
302,736,434,-519,-65,585,-980,-1561,-1132,400,1342,1507
370,746,375,-558,-2,561,-946,-1488,-1073,331,1259,1464
336,707,370,-522,-17,539,-878,-1366,-1005,248,1141,1405
258,644,385,-451,-63,514,-780,-1215,-922,209,1063,1322
239,585,346,-412,-53,466,-697,-1063,-834,180,966,1215
204,478,273,-341,-34,375,-614,-932,-761,131,824,1054
146,375,229,-261,-41,302,-531,-805,-697,24,610,873
136,302,165,-219,-14,234,-439,-649,-610,-102,346,673
112,204,92,-158,9,148,-326,-478,-478,-195,112,478
43,126,82,-85,-19,104,-258,-370,-409,-248,-9,356
0,87,87,-43,-43,87,-209,-292,-380,-258,-53,278
-63,48,112,7,-87,80,-131,-219,-326,-258,-82,229
-107,29,136,39,-122,82,-87,-185,-292,-273,-122,185
-97,24,122,36,-109,73,-73,-185,-287,-268,-151,141
-87,-4,82,46,-85,39,-53,-156,-248,-248,-165,112
-73,-39,34,56,-53,-2,-48,-141,-234,-263,-185,63
-63,-53,9,58,-36,-21,-39,-122,-204,-263,-214,29
-87,-48,39,68,-63,-4,9,-53,-126,-224,-209,9
-117,-73,43,95,-80,-14,58,24,-58,-200,-200,-39
-131,-122,9,126,-70,-56,82,63,-19,-195,-204,-97
-102,-146,-43,124,-29,-95,107,82,14,-161,-190,-136
-73,-136,-63,104,-4,-100,112,92,39,-126,-175,-146
-102,-136,-34,119,-34,-85,126,112,63,-97,-161,-141
-107,-122,-14,114,-46,-68,141,126,82,-87,-170,-141
-97,-126,-29,112,-34,-78,136,151,107,-73,-165,-151
-102,-126,-24,114,-39,-75,151,165,131,-58,-165,-156
-102,-126,-24,114,-39,-75,151,170,146,-58,-165,-161
-102,-122,-19,112,-41,-70,151,175,161,-53,-165,-161
-112,-122,-9,117,-51,-65,161,190,165,-48,-146,-151
-126,-126,0,126,-63,-63,165,195,165,-34,-141,-151
-136,-131,4,134,-70,-63,175,195,175,-24,-136,-146
-136,-136,0,136,-68,-68,180,190,161,-19,-131,-146
-136,-141,-4,139,-65,-73,165,170,151,-39,-136,-151
-131,-141,-9,136,-61,-75,165,170,151,-43,-146,-151
-136,-141,-4,139,-65,-73,170,175,161,-39,-151,-151
-141,-141,0,141,-70,-70,170,185,175,-39,-151,-151
-170,-141,29,156,-100,-56,185,200,190,-43,-151,-161
-180,-146,34,163,-107,-56,190,204,209,-34,-146,-161
-185,-151,34,168,-109,-58,195,204,209,-34,-131,-156
-185,-161,24,173,-104,-68,200,195,204,-39,-131,-156
-180,-136,43,158,-112,-46,200,200,204,-34,-126,-141
-161,-122,39,141,-100,-41,190,195,190,-29,-131,-141
-151,-107,43,129,-97,-31,185,190,195,-24,-131,-146
-151,-87,63,119,-107,-12,185,190,200,-9,-122,-141
-156,-92,63,124,-109,-14,185,185,195,-4,-131,-146
-161,-107,53,134,-107,-26,190,190,204,-19,-131,-151
-170,-126,43,148,-107,-41,185,185,200,-39,-131,-156
-175,-141,34,158,-104,-53,180,180,195,-53,-136,-161
-161,-136,24,148,-92,-56,170,175,195,-48,-141,-175
-146,-136,9,141,-78,-63,170,170,185,-43,-146,-175
-141,-146,-4,143,-68,-75,165,165,175,-43,-146,-175
-136,-146,-9,141,-63,-78,165,165,190,-39,-146,-170
-117,-122,-4,119,-56,-63,185,180,204,-39,-141,-161
-136,-117,19,126,-78,-48,190,185,204,-43,-146,-156
-161,-117,43,139,-102,-36,195,185,204,-48,-141,-151
-165,-122,43,143,-104,-39,200,190,204,-48,-131,-146
-165,-141,24,153,-95,-58,190,190,214,-53,-141,-141
-165,-146,19,156,-92,-63,190,185,214,-53,-141,-146
-170,-151,19,161,-95,-65,185,170,204,-58,-151,-151
-170,-156,14,163,-92,-70,185,170,195,-68,-156,-151
-165,-151,14,158,-90,-68,195,180,209,-43,-146,-151
-165,-141,24,153,-95,-58,200,195,219,-24,-141,-151
-161,-131,29,146,-95,-51,209,195,224,4,-136,-151
-151,-107,43,129,-97,-31,209,195,234,19,-136,-146
-170,-136,34,153,-102,-51,200,185,224,4,-141,-156
-175,-146,29,161,-102,-58,190,170,209,0,-146,-165
-195,-156,39,175,-117,-58,190,170,209,-4,-151,-175
-224,-165,58,195,-141,-53,195,175,234,-9,-151,-185
-239,-151,87,195,-163,-31,200,185,244,-9,-141,-170
-239,-146,92,192,-165,-26,204,185,239,-4,-141,-170
-239,-141,97,190,-168,-21,209,185,239,-4,-136,-165
-244,-136,107,190,-175,-14,214,185,239,-4,-136,-156
-244,-136,107,190,-175,-14,204,185,229,-24,-136,-146
-234,-141,92,187,-163,-24,204,180,224,-29,-141,-156
-219,-141,78,180,-148,-31,204,175,224,-39,-146,-161
-204,-141,63,173,-134,-39,204,165,229,-48,-146,-161
-185,-141,43,163,-114,-48,200,151,229,-73,-151,-170
-190,-141,48,165,-119,-46,195,156,239,-78,-156,-170
-180,-141,39,161,-109,-51,190,151,224,-82,-161,-175
-161,-141,19,151,-90,-61,185,136,209,-92,-180,-190
-170,-141,29,156,-100,-56,185,146,214,-68,-175,-180
-200,-141,58,170,-129,-41,190,156,224,-53,-170,-175
-229,-146,82,187,-156,-31,204,170,229,-48,-165,-165
-258,-146,112,202,-185,-17,209,180,239,-34,-170,-161
-239,-151,87,195,-163,-31,200,161,229,-48,-185,-170
-214,-151,63,183,-139,-43,200,151,229,-53,-190,-175
-190,-151,39,170,-114,-56,195,146,224,-58,-195,-180
-190,-151,39,170,-114,-56,195,146,219,-63,-200,-180
-175,-141,34,158,-104,-53,209,141,219,-73,-200,-180
-170,-141,29,156,-100,-56,209,141,229,-73,-195,-185
-175,-146,29,161,-102,-58,209,136,229,-78,-195,-190
-204,-146,58,175,-131,-43,209,131,229,-78,-200,-190
-204,-146,58,175,-131,-43,204,131,234,-68,-190,-185
-229,-146,82,187,-156,-31,214,131,244,-68,-185,-175
-229,-146,82,187,-156,-31,214,131,229,-78,-175,-170
-229,-146,82,187,-156,-31,214,131,224,-78,-175,-170
-248,-151,97,200,-173,-26,229,136,229,-87,-180,-156
-268,-151,117,209,-192,-17,234,141,244,-92,-185,-156
-283,-151,131,217,-207,-9,234,131,248,-92,-200,-165
-278,-151,126,214,-202,-12,239,136,253,-92,-200,-161
-244,-151,92,197,-168,-29,219,112,234,-112,-219,-180
-234,-156,78,195,-156,-39,209,92,224,-122,-234,-190
-239,-161,78,200,-158,-41,200,73,209,-141,-253,-200
-214,-161,53,187,-134,-53,190,63,200,-146,-263,-204
-175,-141,34,158,-104,-53,200,68,214,-131,-253,-195
-170,-136,34,153,-102,-51,200,73,214,-122,-248,-195
-195,-136,58,165,-126,-39,200,78,214,-112,-248,-200
-209,-131,78,170,-143,-26,209,82,224,-102,-248,-200
-229,-151,78,190,-153,-36,219,68,224,-117,-244,-200
-214,-156,58,185,-136,-48,219,58,214,-126,-244,-200
-234,-161,73,197,-153,-43,224,48,214,-136,-239,-200
-263,-161,102,212,-183,-29,224,48,214,-146,-234,-204
-268,-170,97,219,-183,-36,204,34,209,-136,-244,-195
-273,-175,97,224,-185,-39,200,24,200,-151,-258,-195
-273,-175,97,224,-185,-39,200,19,200,-151,-263,-195
-278,-165,112,222,-195,-26,204,19,204,-151,-268,-190
-273,-161,112,217,-192,-24,214,24,195,-156,-263,-175
-278,-156,122,217,-200,-17,219,14,190,-170,-268,-175
-263,-146,117,204,-190,-14,224,0,190,-170,-268,-175
-258,-141,117,200,-187,-12,229,-4,190,-185,-268,-175
-292,-141,151,217,-222,4,229,-4,185,-180,-268,-180
-307,-141,165,224,-236,12,224,-14,190,-180,-268,-175
-326,-141,185,234,-256,21,224,-19,185,-170,-263,-170
-331,-136,195,234,-263,29,219,-29,190,-170,-258,-156
-346,-131,214,239,-280,41,219,-48,180,-170,-248,-156
-346,-126,219,236,-283,46,214,-58,180,-175,-244,-151
-346,-122,224,234,-285,51,214,-68,175,-180,-244,-151
-331,-97,234,214,-283,68,209,-82,170,-180,-244,-151
-317,-92,224,204,-270,65,190,-92,161,-204,-253,-141
-307,-97,209,202,-258,56,190,-107,146,-200,-248,-131
-292,-92,200,192,-246,53,190,-117,131,-204,-244,-122
-268,-92,175,180,-222,41,190,-131,122,-209,-244,-112
-278,-102,175,190,-226,36,161,-156,102,-204,-248,-122
-273,-102,170,187,-222,34,146,-165,92,-204,-239,-122
-273,-97,175,185,-224,39,126,-180,82,-204,-239,-122
-273,-97,175,185,-224,39,112,-195,73,-204,-234,-117
-263,-107,156,185,-209,24,117,-200,53,-204,-224,-102
-258,-107,151,183,-204,21,112,-209,53,-204,-209,-87
-244,-102,141,173,-192,19,112,-214,39,-200,-209,-63
-244,-92,151,168,-197,29,107,-219,29,-200,-200,-48
-234,-87,146,161,-190,29,102,-214,29,-190,-175,-39
-234,-73,161,153,-197,43,87,-214,24,-185,-165,-29
-214,-63,151,139,-183,43,78,-214,24,-170,-156,-19
-195,-58,136,126,-165,39,73,-209,29,-161,-146,-19
-219,-48,170,134,-195,61,78,-200,19,-151,-126,0
-229,-39,190,134,-209,75,73,-200,9,-146,-107,14
-204,-24,180,114,-192,78,68,-209,0,-136,-97,24
-200,-19,180,109,-190,80,68,-209,-4,-131,-78,34
-190,-9,180,100,-185,85,58,-219,-9,-112,-78,29
-175,-9,165,92,-170,78,48,-219,-24,-102,-73,24
-146,-14,131,80,-139,58,29,-239,-39,-102,-68,19
-112,-14,97,63,-104,41,19,-239,-48,-92,-58,14
-102,-14,87,58,-95,36,4,-239,-39,-87,-48,24
-97,-19,78,58,-87,29,-9,-239,-39,-78,-39,29
-92,-24,68,58,-80,21,-14,-229,-43,-68,-24,39
-78,-24,53,51,-65,14,-19,-224,-43,-58,-19,43
-58,-29,29,43,-43,0,-24,-219,-53,-53,-24,43
-73,-34,39,53,-56,2,-29,-219,-53,-48,-24,43
-53,-39,14,46,-34,-12,-29,-204,-53,-39,-14,48
-97,-43,53,70,-75,4,-29,-185,-53,-29,0,53
-136,-29,107,82,-122,39,-24,-165,-34,-19,9,63
-87,-19,68,53,-78,24,-24,-161,-34,-9,24,63
-39,-14,24,26,-31,4,-29,-141,-34,4,29,63
-29,-9,19,19,-24,4,-34,-131,-39,14,34,58
-63,-9,53,36,-58,21,-29,-102,-24,19,43,58
-63,-9,53,36,-58,21,-19,-87,-14,29,53,58
-39,-4,34,21,-36,14,-9,-78,-4,34,58,58
-14,-4,9,9,-12,2,-4,-58,4,39,58,58
-9,-4,4,7,-7,0,-9,-53,4,29,53,39
-9,-9,0,9,-4,-4,-9,-48,4,29,48,34
-9,-24,-14,17,2,-19,-9,-48,4,29,43,29
-24,-34,-9,29,-7,-21,-9,-29,14,29,43,29
-43,-48,-4,46,-19,-26,-4,-19,19,34,34,14
-39,-48,-9,43,-14,-29,-4,-4,19,39,29,14
-29,-48,-19,39,-4,-34,4,4,29,39,29,19
-39,-53,-14,46,-12,-34,4,14,29,39,29,19
-63,-58,4,61,-34,-26,4,19,29,48,43,19
-82,-58,24,70,-53,-17,9,43,29,63,53,19
-87,-58,29,73,-58,-14,19,48,34,68,58,19
-82,-58,24,70,-53,-17,19,48,34,73,63,19
-39,-58,-19,48,-9,-39,9,39,29,53,48,0
-29,-58,-29,43,0,-43,9,39,24,53,43,-4
-34,-53,-19,43,-7,-36,9,43,19,53,43,-4
-24,-53,-29,39,2,-41,4,43,14,53,39,-9
-19,-48,-29,34,4,-39,-4,43,14,48,39,-9
-4,-48,-43,26,19,-46,-4,43,14,48,43,-9
-19,-58,-39,39,9,-48,4,48,19,58,43,-9
-43,-58,-14,51,-14,-36,9,63,19,58,48,-9
-43,-53,-9,48,-17,-31,19,68,34,53,43,0
-53,-53,0,53,-26,-26,24,68,34,48,34,0
-43,-48,-4,46,-19,-26,19,68,34,43,14,-14
-29,-43,-14,36,-7,-29,24,58,34,29,0,-14
-29,-53,-24,41,-2,-39,19,58,24,14,-4,-24
-39,-48,-9,43,-14,-29,19,63,24,14,0,-19
-29,-53,-24,41,-2,-39,19,63,19,9,-4,-19
-24,-58,-34,41,4,-46,29,63,14,4,-19,-19
-4,-58,-53,31,24,-56,19,48,-4,4,-19,-19
4,-58,-63,26,34,-61,14,48,-4,4,-24,-19
4,-63,-68,29,36,-65,14,48,-4,-4,-34,-24
14,-63,-78,24,46,-70,14,48,-9,-4,-34,-29
9,-68,-78,29,43,-73,14,63,-4,0,-19,-34
9,-68,-78,29,43,-73,14,63,9,4,-9,-34
9,-68,-78,29,43,-73,14,68,14,9,-4,-39
0,-68,-68,34,34,-68,14,68,14,14,0,-39
-9,-73,-63,41,26,-68,19,78,29,29,0,-24
-19,-73,-53,46,17,-63,29,78,39,29,0,-24
-29,-73,-43,51,7,-58,34,78,43,29,0,-19
-34,-73,-39,53,2,-56,43,78,53,39,0,-9
-19,-68,-48,43,14,-58,43,87,53,29,-9,-24
-9,-68,-58,39,24,-63,39,82,43,19,-14,-34
0,-63,-63,31,31,-63,34,82,43,19,-24,-39
0,-58,-58,29,29,-58,34,82,48,9,-24,-43
-9,-53,-43,31,17,-48,39,82,48,24,-14,-34
-24,-48,-24,36,0,-36,43,87,53,39,0,-24
-19,-48,-29,34,4,-39,43,87,48,43,4,-24
0,-48,-48,24,24,-48,43,82,34,48,9,-34
0,-43,-43,21,21,-43,39,82,48,39,0,-29
-9,-43,-34,26,12,-39,43,87,53,39,-4,-34
-14,-43,-29,29,7,-36,48,92,68,29,-9,-34
-19,-34,-14,26,-2,-24,53,97,78,29,-9,-29
-29,-34,-4,31,-12,-19,48,97,68,29,-4,-34
-34,-34,0,34,-17,-17,53,92,68,39,0,-34
-43,-34,9,39,-26,-12,53,92,73,39,0,-24
-34,-34,0,34,-17,-17,53,87,78,39,-4,-24
-24,-34,-9,29,-7,-21,48,78,78,39,-19,-39
-24,-34,-9,29,-7,-21,43,82,78,43,-24,-43
-43,-34,9,39,-26,-12,43,82,87,43,-24,-48
-53,-34,19,43,-36,-7,39,78,87,43,-29,-58
-14,-24,-9,19,-2,-17,43,87,97,34,-24,-53
14,-19,-34,2,24,-26,43,92,107,34,-19,-48
0,-14,-14,7,7,-14,53,102,122,48,-9,-39
4,-14,-19,4,12,-17,58,102,122,48,4,-34
0,-24,-24,12,12,-24,53,92,112,39,-9,-48
0,-24,-24,12,12,-24,48,82,92,39,-24,-53
-4,-24,-19,14,7,-21,39,82,82,34,-29,-58
-4,-19,-14,12,4,-17,34,92,78,34,-29,-63
-14,-24,-9,19,-2,-17,34,87,87,43,-34,-63
-14,-34,-19,24,2,-26,34,87,87,43,-34,-68
9,-39,-48,14,29,-43,29,78,87,39,-34,-68
9,-58,-68,24,39,-63,24,78,78,34,-39,-63
4,-43,-48,19,26,-46,24,82,92,34,-34,-53
4,-39,-43,17,24,-41,24,102,97,43,-29,-48
-9,-34,-24,21,7,-29,19,112,107,48,-19,-34
19,-19,-39,0,29,-29,14,117,112,48,-14,-29
43,-24,-68,-9,56,-46,14,97,87,39,-19,-29
39,-24,-63,-7,51,-43,14,97,82,39,-19,-29
39,-14,-53,-12,46,-34,14,92,78,39,-19,-29
43,-14,-58,-14,51,-36,14,92,73,19,-19,-29
53,-9,-63,-21,58,-36,14,87,73,9,-4,-9
34,-39,-73,2,53,-56,4,78,53,9,-14,-24
43,-68,-112,12,78,-90,-24,53,19,-4,-39,-53
82,-48,-131,-17,107,-90,-29,43,19,9,-19,-53
78,-29,-107,-24,92,-68,-9,68,39,39,0,-39
68,-39,-107,-14,87,-73,-9,58,48,29,0,-29
58,-39,-97,-9,78,-68,-9,58,48,29,0,-29
48,-39,-87,-4,68,-63,-9,58,48,29,0,-29
39,-39,-78,0,58,-58,-9,58,48,29,0,-29
48,-39,-87,-4,68,-63,-24,53,39,24,-4,-29
53,-29,-82,-12,68,-56,-24,48,34,19,-4,-29
68,-29,-97,-19,82,-63,-24,48,34,24,0,-29
97,-19,-117,-39,107,-68,-24,48,34,24,0,-19
87,-24,-112,-31,100,-68,-24,53,34,29,-4,-14
87,-24,-112,-31,100,-68,-24,58,39,29,0,-14
78,-24,-102,-26,90,-63,-24,63,43,34,4,-19
78,-19,-97,-29,87,-58,-19,68,43,34,4,-14
58,-9,-68,-24,63,-39,-4,73,58,48,19,0
58,-9,-68,-24,63,-39,0,78,63,53,19,9
53,0,-53,-26,53,-26,9,92,68,58,19,14
43,0,-43,-21,43,-21,24,102,82,78,29,19
14,9,-4,-12,9,2,29,112,73,78,39,9
-9,4,14,2,-12,9,34,112,73,73,34,0
-29,-9,19,19,-24,4,34,112,78,63,29,-14
-73,-19,53,46,-63,17,48,122,78,63,24,-19
-58,-19,39,39,-48,9,63,126,68,58,9,-24
-43,-29,14,36,-29,-7,58,122,68,48,-4,-39
-39,-48,-9,43,-14,-29,53,117,63,39,-4,-43
-39,-58,-19,48,-9,-39,53,117,63,34,-14,-43
-68,-63,4,65,-36,-29,73,136,78,39,-4,-53
-82,-63,19,73,-51,-21,78,146,92,48,9,-43
-102,-68,34,85,-68,-17,87,156,102,53,19,-34
-146,-82,63,114,-104,-9,97,156,117,63,19,-19
-136,-73,63,104,-100,-4,97,141,102,58,0,-29
-122,-78,43,100,-82,-17,92,136,97,48,-9,-34
-92,-78,14,85,-53,-31,82,126,78,34,-24,-39
-87,-78,9,82,-48,-34,78,122,73,29,-29,-39
-82,-73,9,78,-46,-31,63,112,58,19,-39,-48
-34,-73,-39,53,2,-56,53,102,43,4,-39,-53
-9,-78,-68,43,29,-73,39,82,29,-14,-43,-63
14,-73,-87,29,51,-80,24,73,4,-29,-43,-73
24,-68,-92,21,58,-80,34,82,24,-19,-29,-63
19,-63,-82,21,51,-73,39,87,29,-19,-29,-63
14,-68,-82,26,48,-75,39,87,29,-19,-29,-68
9,-73,-82,31,46,-78,29,92,19,-19,-34,-73
0,-53,-53,26,26,-53,48,102,34,-4,-24,-82
4,-48,-53,21,29,-51,48,112,43,9,-24,-73
4,-43,-48,19,26,-46,48,117,48,19,-24,-73
-9,-43,-34,26,12,-39,48,122,53,34,-24,-73
-34,-48,-14,41,-9,-31,48,126,43,34,-34,-82
-24,-53,-29,39,2,-41,48,126,43,34,-34,-82
-24,-68,-43,46,9,-56,48,122,43,34,-34,-82
-29,-73,-43,51,7,-58,48,122,43,34,-34,-78
-29,-68,-39,48,4,-53,58,117,48,24,-24,-68
-24,-68,-43,46,9,-56,58,117,48,19,-24,-68
-14,-73,-58,43,21,-65,48,107,34,9,-34,-73
-4,-73,-68,39,31,-70,48,102,34,-14,-34,-78
9,-58,-68,24,39,-63,58,102,24,-14,-43,-73
9,-53,-63,21,36,-58,58,107,24,-14,-43,-68
-4,-43,-39,24,17,-41,63,112,29,-4,-34,-58
9,-34,-43,12,26,-39,63,117,34,0,-29,-48
24,-39,-63,7,43,-51,48,112,34,9,-34,-53
39,-48,-87,4,63,-68,43,107,34,14,-39,-58
48,-53,-102,2,75,-78,39,102,39,14,-43,-73
63,-58,-122,-2,92,-90,34,97,39,14,-48,-78
48,-73,-122,12,85,-97,34,112,29,4,-48,-82
34,-78,-112,21,73,-95,34,112,24,4,-48,-82
19,-87,-107,34,63,-97,29,107,19,0,-58,-87
14,-92,-107,39,61,-100,24,97,19,0,-58,-97
19,-82,-102,31,61,-92,34,107,14,0,-43,-87
19,-73,-92,26,56,-82,43,112,14,4,-39,-82
24,-63,-87,19,56,-75,43,122,14,9,-29,-82
34,-53,-87,9,61,-70,43,122,9,19,-24,-87
39,-58,-97,9,68,-78,48,112,14,4,-29,-97
48,-58,-107,4,78,-82,48,107,19,0,-29,-97
39,-63,-102,12,70,-82,48,102,29,-4,-29,-92
34,-68,-102,17,68,-85,53,97,34,-19,-29,-92
34,-63,-97,14,65,-80,43,112,-9,-39,-34,-92
29,-48,-78,9,53,-63,39,102,0,-19,-34,-82
19,-68,-87,24,53,-78,48,112,19,-4,-39,-78
-43,-112,-68,78,12,-90,58,126,34,-4,-63,-92
-73,-122,-48,97,-12,-85,58,136,39,0,-78,-107
-39,-107,-68,73,14,-87,68,156,43,-4,-73,-102
14,-87,-102,36,58,-95,63,170,14,-9,-78,-107
48,-97,-146,24,97,-122,39,180,-14,-34,-92,-117
63,-122,-185,29,124,-153,29,219,0,-43,-107,-122
107,-122,-229,7,168,-175,19,244,19,-68,-136,-141
161,-122,-283,-19,222,-202,9,268,73,-68,-146,-175
175,-136,-312,-19,244,-224,14,331,156,-19,-122,-185
175,-126,-302,-24,239,-214,-4,400,229,39,-87,-175
214,-107,-322,-53,268,-214,-29,488,312,78,-63,-161
268,-102,-370,-82,319,-236,-68,570,375,141,-4,-107
292,-92,-385,-100,339,-239,-141,605,326,190,58,-68
341,-78,-419,-131,380,-248,-244,605,156,200,97,-34
414,-53,-468,-180,441,-261,-336,629,-19,170,112,-19
453,-39,-492,-207,473,-265,-390,639,-170,151,122,0
453,0,-453,-226,453,-226,-429,614,-302,200,175,73
512,92,-419,-302,466,-163,-502,566,-439,273,278,151
575,156,-419,-366,497,-131,-585,492,-575,341,375,219
600,175,-424,-387,512,-124,-702,390,-712,419,478,297
732,224,-507,-478,619,-141,-868,239,-790,497,614,380
868,302,-566,-585,717,-131,-1034,24,-790,644,805,522
883,346,-536,-614,710,-95,-1166,-263,-736,878,1054,712
854,424,-429,-639,641,-2,-1268,-692,-678,1122,1298,912
844,527,-317,-685,580,104,-1346,-1185,-702,1293,1503,1093
805,600,-204,-702,505,197,-1371,-1639,-790,1342,1664,1244
722,658,-63,-690,392,297,-1371,-1898,-849,1312,1766,1342
697,668,-29,-683,363,319,-1371,-1966,-932,1268,1805,1405
692,707,14,-700,339,361,-1337,-2015,-1088,1141,1761,1444
595,741,146,-668,224,444,-1268,-2020,-1254,917,1683,1498
522,751,229,-636,146,490,-1200,-1971,-1351,683,1595,1512
580,780,200,-680,190,490,-1185,-1908,-1356,507,1488,1498
595,780,185,-688,204,483,-1117,-1820,-1268,434,1385,1478
512,761,248,-636,131,505,-1029,-1703,-1141,405,1342,1473
478,766,287,-622,95,527,-1010,-1620,-1112,361,1263,1449
448,727,278,-588,85,502,-976,-1546,-1083,273,1161,1376
385,658,273,-522,56,466,-897,-1415,-1005,200,1054,1298
346,605,258,-475,43,431,-810,-1244,-912,141,976,1205
375,546,170,-461,102,358,-727,-1102,-814,82,868,1098
400,468,68,-434,165,268,-644,-971,-732,24,717,966
370,395,24,-383,173,209,-570,-824,-668,-53,502,785
302,292,-9,-297,156,141,-468,-678,-590,-170,248,566
229,175,-53,-202,141,61,-375,-546,-527,-263,4,361
180,126,-53,-153,117,36,-307,-458,-468,-307,-107,248
156,87,-68,-122,112,9,-258,-380,-409,-326,-151,180
151,58,-92,-104,122,-17,-229,-336,-366,-375,-200,102
136,58,-78,-97,107,-9,-175,-292,-322,-390,-209,87
107,24,-82,-65,95,-29,-122,-244,-278,-346,-180,92
58,-14,-73,-21,65,-43,-92,-204,-248,-287,-165,43
14,-48,-63,17,39,-56,-78,-170,-244,-263,-204,-4
-4,-73,-68,39,31,-70,-48,-131,-214,-273,-244,-39
-9,-78,-68,43,29,-73,-19,-82,-136,-253,-248,-78
-19,-92,-73,56,26,-82,0,-53,-87,-239,-278,-136
24,-73,-97,24,61,-85,14,-43,-58,-224,-292,-185
82,-39,-122,-21,102,-80,68,14,4,-161,-229,-185
24,-58,-82,17,53,-70,112,73,58,-117,-165,-165
-53,-87,-34,70,-9,-61,117,92,82,-117,-161,-170
-58,-92,-34,75,-12,-63,122,117,102,-107,-180,-170
-29,-92,-63,61,17,-78,126,136,112,-97,-175,-170
-14,-87,-73,51,29,-80,141,146,131,-78,-175,-175
4,-82,-87,39,46,-85,141,146,141,-73,-175,-180
24,-73,-97,24,61,-85,141,146,151,-63,-175,-180
34,-73,-107,19,70,-90,131,141,141,-82,-180,-195
29,-78,-107,24,68,-92,126,136,136,-82,-190,-200
29,-82,-112,26,70,-97,126,126,141,-87,-200,-200
39,-87,-126,24,82,-107,122,112,122,-97,-209,-204
34,-102,-136,34,85,-119,122,112,117,-107,-200,-195
24,-102,-126,39,75,-114,126,122,122,-102,-195,-190
4,-102,-107,48,56,-104,136,136,136,-87,-185,-185
-14,-102,-87,58,36,-95,141,156,156,-78,-170,-180
-34,-107,-73,70,19,-90,141,151,170,-63,-151,-185
-43,-107,-63,75,9,-85,141,156,190,-53,-146,-190
-48,-107,-58,78,4,-82,141,156,190,-53,-131,-190
-48,-112,-63,80,7,-87,141,146,185,-58,-131,-195
-24,-102,-78,63,26,-90,141,131,165,-78,-156,-185
-4,-102,-97,53,46,-100,131,126,141,-87,-170,-190
4,-102,-107,48,56,-104,126,122,136,-97,-180,-200
4,-97,-102,46,53,-100,126,122,131,-97,-180,-200
-4,-78,-73,41,34,-75,136,126,156,-58,-175,-200
-14,-78,-63,46,24,-70,151,141,175,-58,-170,-200
-29,-82,-53,56,12,-68,156,146,180,-63,-165,-200
-39,-82,-43,61,2,-63,161,151,185,-63,-165,-200
-34,-82,-48,58,7,-65,146,146,175,-53,-170,-204
-19,-87,-68,53,24,-78,141,141,165,-53,-175,-204
-14,-102,-87,58,36,-95,131,136,156,-58,-175,-204
-9,-107,-97,58,43,-102,126,136,170,-58,-175,-200
14,-87,-102,36,58,-95,131,141,175,-68,-170,-204
0,-87,-87,43,43,-87,131,136,175,-73,-175,-204
-19,-92,-73,56,26,-82,131,126,175,-78,-170,-204
-19,-102,-82,61,31,-92,131,122,175,-78,-161,-204
-14,-107,-92,61,39,-100,131,122,185,-73,-175,-209
-9,-107,-97,58,43,-102,131,117,185,-73,-180,-214
-9,-107,-97,58,43,-102,126,102,175,-78,-195,-219
-4,-107,-102,56,48,-104,126,102,165,-87,-204,-219
-19,-102,-82,61,31,-92,126,102,175,-92,-195,-209
-29,-102,-73,65,21,-87,131,117,180,-92,-190,-209
-34,-102,-68,68,17,-85,141,117,180,-82,-185,-209
-34,-87,-53,61,9,-70,141,117,185,-87,-185,-204
-24,-92,-68,58,21,-80,146,122,195,-87,-190,-195
-9,-87,-78,48,34,-82,141,112,180,-87,-195,-195
-9,-82,-73,46,31,-78,146,117,180,-87,-200,-195
-19,-78,-58,48,19,-68,156,126,204,-87,-200,-195
-43,-82,-39,63,-2,-61,151,122,200,-82,-190,-204
-43,-87,-43,65,0,-65,146,117,190,-73,-190,-209
-43,-92,-48,68,2,-70,141,112,185,-68,-185,-209
-48,-97,-48,73,0,-73,136,107,180,-63,-185,-204
-53,-87,-34,70,-9,-61,136,97,190,-58,-185,-204
-48,-92,-43,70,-2,-68,136,92,185,-58,-190,-214
-39,-92,-53,65,7,-73,136,87,185,-63,-195,-219
-29,-92,-63,61,17,-78,136,78,190,-68,-195,-219
-43,-92,-48,68,2,-70,141,92,204,-68,-185,-204
-63,-92,-29,78,-17,-61,146,107,219,-68,-185,-200
-68,-92,-24,80,-21,-58,151,112,209,-68,-185,-200
-63,-92,-29,78,-17,-61,156,107,200,-73,-200,-209
-39,-97,-58,68,9,-78,146,82,190,-87,-209,-229
-34,-102,-68,68,17,-85,141,78,185,-102,-219,-234
-29,-112,-82,70,26,-97,146,78,175,-126,-229,-234
-24,-117,-92,70,34,-104,141,73,170,-141,-248,-239
-9,-112,-102,61,46,-107,131,63,180,-126,-244,-224
0,-112,-112,56,56,-112,131,53,180,-122,-239,-224
9,-112,-122,51,65,-117,126,48,175,-117,-234,-224
-4,-112,-107,58,51,-109,126,48,170,-112,-229,-219
-4,-122,-117,63,56,-119,136,58,175,-102,-229,-219
-14,-122,-107,68,46,-114,141,63,190,-102,-224,-224
-34,-126,-92,80,29,-109,146,63,195,-107,-224,-229
-78,-126,-48,102,-14,-87,151,63,200,-107,-229,-229
-63,-117,-53,90,-4,-85,146,53,204,-107,-239,-234
-73,-107,-34,90,-19,-70,156,53,214,-107,-234,-224
-58,-97,-39,78,-9,-68,156,53,200,-117,-224,-219
-43,-87,-43,65,0,-65,156,53,195,-117,-224,-219
-63,-97,-34,80,-14,-65,165,63,195,-117,-224,-214
-73,-102,-29,87,-21,-65,165,63,204,-122,-224,-214
-78,-107,-29,92,-24,-68,161,48,204,-122,-234,-224
-63,-112,-48,87,-7,-80,161,48,204,-122,-229,-219
-53,-102,-48,78,-2,-75,161,43,200,-136,-239,-229
-68,-107,-39,87,-14,-73,161,34,195,-141,-244,-229
-97,-112,-14,104,-41,-63,161,24,185,-156,-253,-229
-97,-112,-14,104,-41,-63,161,24,180,-156,-253,-224
-58,-92,-34,75,-12,-63,151,19,180,-161,-258,-229
-53,-87,-34,70,-9,-61,151,14,175,-161,-258,-234
-78,-87,-9,82,-34,-48,151,9,170,-161,-263,-244
-92,-82,9,87,-51,-36,161,4,175,-161,-268,-248
-107,-87,19,97,-63,-34,156,-4,161,-175,-273,-258
-87,-87,0,87,-43,-43,151,-19,146,-185,-283,-258
-102,-87,14,95,-58,-36,151,-34,141,-195,-287,-258
-126,-82,43,104,-85,-19,146,-39,136,-204,-292,-263
-122,-78,43,100,-82,-17,136,-53,141,-204,-297,-273
-126,-78,48,102,-87,-14,131,-63,131,-219,-307,-273
-126,-73,53,100,-90,-9,131,-68,131,-219,-307,-273
-131,-58,73,95,-102,7,136,-68,136,-219,-307,-268
-117,-68,48,92,-82,-9,131,-78,131,-234,-322,-273
-122,-68,53,95,-87,-7,131,-92,122,-248,-336,-273
-107,-63,43,85,-75,-9,131,-112,117,-248,-346,-273
-102,-63,39,82,-70,-12,131,-122,112,-263,-356,-273
-122,-68,53,95,-87,-7,141,-122,112,-263,-341,-278
-131,-73,58,102,-95,-7,136,-131,122,-258,-336,-273
-146,-78,68,112,-107,-4,136,-136,122,-244,-326,-268
-146,-78,68,112,-107,-4,131,-146,131,-239,-317,-253
-136,-82,53,109,-95,-14,122,-156,117,-244,-326,-244
-131,-87,43,109,-87,-21,117,-165,112,-253,-322,-239
-126,-92,34,109,-80,-29,117,-175,102,-263,-322,-239
-107,-78,29,92,-68,-24,112,-190,92,-268,-322,-239
-97,-58,39,78,-68,-9,112,-195,97,-273,-317,-214
-102,-58,43,80,-73,-7,112,-204,87,-258,-307,-200
-102,-48,53,75,-78,2,112,-209,78,-253,-297,-185
-92,-43,48,68,-70,2,112,-219,73,-248,-292,-170
-87,-53,34,70,-61,-9,97,-239,73,-244,-283,-180
-78,-53,24,65,-51,-14,87,-244,63,-244,-268,-180
-73,-48,24,61,-48,-12,73,-253,53,-244,-263,-180
-68,-48,19,58,-43,-14,63,-263,43,-244,-253,-175
-82,-48,34,65,-58,-7,68,-258,34,-239,-244,-156
-82,-48,34,65,-58,-7,63,-268,34,-234,-229,-146
-73,-43,29,58,-51,-7,63,-273,19,-224,-229,-126
-78,-34,43,56,-61,4,58,-278,9,-219,-219,-117
-68,-34,34,51,-51,0,53,-278,0,-224,-214,-97
-68,-24,43,46,-56,9,39,-283,-4,-224,-204,-87
-48,-19,29,34,-39,4,29,-287,-4,-214,-195,-78
-29,-19,9,24,-19,-4,24,-287,0,-209,-185,-78
-34,-19,14,26,-24,-2,24,-287,-9,-190,-170,-73
-34,-19,14,26,-24,-2,14,-287,-19,-185,-156,-63
0,-14,-14,7,7,-14,4,-297,-29,-175,-151,-58
14,-19,-34,2,24,-26,0,-297,-34,-170,-136,-53
0,-9,-9,4,4,-9,-9,-287,-34,-161,-131,-39
0,-9,-9,4,4,-9,-19,-287,-43,-151,-122,-34
14,-14,-29,0,21,-21,-39,-307,-53,-151,-112,-29
34,-14,-48,-9,41,-31,-48,-307,-58,-141,-97,-24
29,-9,-39,-9,34,-24,-58,-297,-68,-136,-78,-29
29,-9,-39,-9,34,-24,-68,-297,-68,-126,-68,-29
29,-9,-39,-9,34,-24,-68,-287,-73,-117,-53,-24
39,-4,-43,-17,41,-24,-68,-283,-73,-107,-48,-24
78,9,-68,-43,73,-29,-68,-268,-68,-92,-53,-14
82,14,-68,-48,75,-26,-68,-258,-63,-87,-53,-14
122,19,-102,-70,112,-41,-63,-234,-58,-78,-43,-9
97,24,-73,-61,85,-24,-58,-204,-53,-68,-29,-4
48,0,-48,-24,48,-24,-63,-204,-34,-73,-34,-4
87,-9,-97,-39,92,-53,-63,-200,-34,-68,-24,-4
126,-24,-151,-51,139,-87,-68,-180,-34,-58,-24,-4
126,-39,-165,-43,146,-102,-73,-170,-39,-53,-24,-9
97,-39,-136,-29,117,-87,-73,-151,-48,-58,-24,-4
92,-39,-131,-26,112,-85,-68,-146,-43,-48,-14,0
112,-34,-146,-39,129,-90,-63,-146,-39,-43,-9,4
131,-34,-165,-48,148,-100,-63,-136,-34,-39,-9,9
146,-29,-175,-58,161,-102,-48,-117,-34,-39,-4,9
146,-29,-175,-58,161,-102,-48,-107,-34,-39,0,4
146,-39,-185,-53,165,-112,-48,-102,-34,-39,4,0
131,-43,-175,-43,153,-109,-48,-78,-24,-39,14,0
117,-43,-161,-36,139,-102,-48,-73,-19,-29,14,-9
126,-39,-165,-43,146,-102,-53,-63,-19,-19,9,-14
141,-34,-175,-53,158,-104,-48,-58,-9,-14,9,-14
136,-34,-170,-51,153,-102,-53,-53,-9,-9,9,-19
117,-53,-170,-31,143,-112,-39,-39,-4,-14,19,-29
102,-58,-161,-21,131,-109,-29,-14,0,-4,24,-29
102,-63,-165,-19,134,-114,-14,-9,9,-4,24,-29
112,-68,-180,-21,146,-124,-9,-9,14,-4,24,-29
131,-82,-214,-24,173,-148,-24,-9,14,-4,9,-39
117,-87,-204,-14,161,-146,-29,-9,14,-4,4,-43
87,-87,-175,0,131,-131,-34,-4,14,-4,4,-43
73,-92,-165,9,119,-129,-43,-4,14,-4,0,-48
92,-78,-170,-7,131,-124,-39,0,19,-19,0,-39
122,-78,-200,-21,161,-139,-34,4,24,-19,4,-39
122,-87,-209,-17,165,-148,-19,14,34,-9,4,-39
112,-87,-200,-12,156,-143,-9,34,39,-9,9,-39
102,-78,-180,-12,141,-129,-14,29,39,-9,4,-29
82,-82,-165,0,124,-124,-14,29,34,-9,4,-29
82,-82,-165,0,124,-124,-24,29,29,-9,-4,-43
87,-82,-170,-2,129,-126,-24,19,24,-19,-9,-43
82,-78,-161,-2,122,-119,-19,19,24,-19,-9,-53
78,-68,-146,-4,112,-107,-19,24,24,-14,0,-48
92,-68,-161,-12,126,-114,-19,24,19,-14,0,-48
102,-68,-170,-17,136,-119,-9,24,14,-14,-9,-48
97,-53,-151,-21,124,-102,0,29,14,-14,-14,-39
92,-48,-141,-21,117,-95,-4,29,14,-14,-14,-39
78,-48,-126,-14,102,-87,-4,29,14,-24,-19,-43
73,-43,-117,-14,95,-80,-4,29,9,-24,-14,-48
97,-58,-156,-19,126,-107,-14,24,9,-34,-19,-68
107,-58,-165,-24,136,-112,-14,24,19,-34,-19,-73
117,-58,-175,-29,146,-117,-14,29,19,-34,-24,-82
117,-58,-175,-29,146,-117,-14,29,14,-34,-29,-87
92,-73,-165,-9,129,-119,4,39,34,-14,-14,-78
68,-73,-141,2,104,-107,19,48,48,0,0,-73
43,-73,-117,14,80,-95,29,58,58,14,14,-63
24,-73,-97,24,61,-85,43,68,73,39,29,-48
43,-78,-122,17,82,-100,34,58,58,19,19,-58
68,-87,-156,9,112,-122,19,43,43,0,4,-73
92,-92,-185,0,139,-139,4,34,39,-9,-14,-82
107,-97,-204,-4,156,-151,-4,24,39,-29,-24,-92
102,-78,-180,-12,141,-129,4,34,43,-29,-29,-82
92,-68,-161,-12,126,-114,4,39,53,-19,-19,-73
102,-63,-165,-19,134,-114,0,39,53,-19,-19,-73
126,-58,-185,-34,156,-122,-4,34,43,-19,-19,-82
146,-43,-190,-51,168,-117,-4,29,43,-19,-29,-82
146,-43,-190,-51,168,-117,-4,29,43,-19,-34,-92
151,-43,-195,-53,173,-119,-4,29,53,-29,-39,-97
156,-34,-190,-61,173,-112,-4,29,58,-29,-39,-97
151,-24,-175,-63,163,-100,9,43,58,-24,-24,-107
141,-24,-165,-58,153,-95,14,43,58,-9,-19,-112
126,-24,-151,-51,139,-87,14,48,63,-4,-19,-107
131,-24,-156,-53,143,-90,14,48,68,0,-24,-112
131,-19,-151,-56,141,-85,24,58,78,0,-19,-117
122,-24,-146,-48,134,-85,24,63,78,4,-14,-112
92,-29,-122,-31,107,-75,29,63,87,4,-4,-107
73,-34,-107,-19,90,-70,29,58,87,4,0,-107
68,-24,-92,-21,80,-58,34,63,97,14,0,-97
73,-19,-92,-26,82,-56,34,73,107,14,0,-87
34,-14,-48,-9,41,-31,43,87,122,29,4,-73
14,-14,-29,0,21,-21,48,92,122,29,14,-63
19,-9,-29,-4,24,-19,48,107,126,34,14,-73
19,-4,-24,-7,21,-14,48,102,122,39,4,-73
14,0,-14,-7,14,-7,43,107,126,39,4,-73
14,9,-4,-12,9,2,43,122,136,43,9,-73
14,4,-9,-9,12,-2,43,122,136,43,14,-82
24,-4,-29,-9,26,-17,43,117,136,43,14,-87
58,-9,-68,-24,63,-39,39,102,136,39,14,-87
68,-29,-97,-19,82,-63,34,97,126,34,9,-82
73,-43,-117,-14,95,-80,19,78,112,24,0,-78
73,-48,-122,-12,97,-85,14,92,107,34,0,-78
58,-53,-112,-2,85,-82,4,97,107,39,4,-68
87,-48,-136,-19,112,-92,-4,97,102,39,4,-68
87,-48,-136,-19,112,-92,-24,78,87,34,9,-78
78,-43,-122,-17,100,-82,-24,78,82,29,9,-78
73,-29,-102,-21,87,-65,-24,73,78,24,9,-78
73,-24,-97,-24,85,-61,-24,73,73,0,9,-78
53,-9,-63,-21,58,-36,-4,87,92,39,14,-58
73,9,-63,-41,68,-26,4,78,92,48,34,-53
112,19,-92,-65,102,-36,-4,63,58,24,19,-82
107,-9,-117,-48,112,-63,-19,58,48,9,-9,-97
92,-19,-112,-36,102,-65,-29,58,58,9,0,-97
87,-19,-107,-34,97,-63,-29,58,58,9,0,-97
82,-19,-102,-31,92,-61,-29,58,58,9,0,-97
78,-19,-97,-29,87,-58,-29,58,58,9,0,-97
73,-9,-82,-31,78,-46,-24,53,58,19,9,-82
73,0,-73,-36,73,-36,-24,48,53,19,14,-78
82,0,-82,-41,82,-41,-24,48,53,29,24,-73
107,9,-97,-58,102,-43,-24,48,53,34,29,-58
126,24,-102,-75,114,-39,-34,48,39,19,14,-63
146,24,-122,-85,134,-48,-34,48,39,9,9,-63
156,24,-131,-90,143,-53,-34,48,39,4,4,-68
175,29,-146,-102,161,-58,-29,48,34,-4,-4,-63
156,19,-136,-87,146,-58,-39,48,34,4,14,-58
146,9,-136,-78,141,-63,-39,48,34,4,19,-48
131,9,-122,-70,126,-56,-34,58,34,4,24,-43
112,0,-112,-56,112,-56,-24,63,43,19,39,-39
112,9,-102,-61,107,-46,-29,53,43,19,39,-58
107,4,-102,-56,104,-48,-24,53,43,14,34,-68
107,-9,-117,-48,112,-63,-24,53,48,4,29,-82
82,-19,-102,-31,92,-61,-9,63,48,4,24,-87
92,-14,-107,-39,100,-61,0,73,43,4,9,-92
102,-19,-122,-41,112,-70,0,73,39,0,-4,-107
102,-34,-136,-34,119,-85,0,73,29,-4,-4,-112
97,-39,-136,-29,117,-87,4,78,24,-4,-14,-112
112,-39,-151,-36,131,-95,-4,78,24,-19,-24,-136
131,-34,-165,-48,148,-100,-9,78,24,-19,-29,-131
146,-34,-180,-56,163,-107,-9,78,19,-24,-39,-126
136,-43,-180,-46,158,-112,-9,68,19,-24,-58,-117
112,-34,-146,-39,129,-90,-14,63,14,-29,-63,-136
112,-39,-151,-36,131,-95,-14,58,9,-39,-68,-151
126,-39,-165,-43,146,-102,-19,48,-9,-53,-78,-165
117,-39,-156,-39,136,-97,-19,43,-14,-58,-78,-175
92,-39,-131,-26,112,-85,-14,53,0,-48,-63,-165
122,-43,-165,-39,143,-104,-14,53,4,-43,-58,-161
126,-53,-180,-36,153,-117,-19,43,9,-43,-58,-161
131,-53,-185,-39,158,-119,-24,43,4,-39,-53,-161
146,-58,-204,-43,175,-131,-14,58,9,-29,-43,-170
146,-53,-200,-46,173,-126,-9,58,9,-29,-39,-170
146,-58,-204,-43,175,-131,-9,53,4,-29,-34,-175
146,-63,-209,-41,178,-136,-19,53,-9,-29,-34,-180
146,-53,-200,-46,173,-126,-14,43,-24,-43,-48,-180
151,-48,-200,-51,175,-124,-19,43,-24,-48,-53,-170
151,-43,-195,-53,173,-119,-24,39,-29,-58,-58,-170
136,-43,-180,-46,158,-112,-29,34,-34,-63,-63,-170
146,-34,-180,-56,163,-107,-43,34,-39,-73,-78,-170
170,-34,-204,-68,187,-119,-48,29,-43,-82,-92,-170
185,-43,-229,-70,207,-136,-53,19,-48,-92,-107,-170
195,-43,-239,-75,217,-141,-58,14,-53,-102,-122,-165
170,-39,-209,-65,190,-124,-43,29,-34,-87,-102,-151
170,-39,-209,-65,190,-124,-39,39,-29,-78,-92,-146
175,-43,-219,-65,197,-131,-43,39,-39,-73,-92,-146
180,-43,-224,-68,202,-134,-39,43,-34,-82,-82,-146
204,-34,-239,-85,222,-136,-39,34,-34,-82,-92,-161
214,-34,-248,-90,231,-141,-39,39,-34,-82,-92,-165
209,-29,-239,-90,224,-134,-34,43,-29,-73,-82,-165
234,-24,-258,-104,246,-141,-34,48,-24,-68,-78,-165
219,-34,-253,-92,236,-143,-24,39,-34,-58,-68,-165
214,-48,-263,-82,239,-156,-24,39,-34,-53,-68,-165
204,-58,-263,-73,234,-161,-24,39,-29,-53,-68,-175
200,-68,-268,-65,234,-168,-24,39,-29,-53,-68,-175
214,-53,-268,-80,241,-161,-34,43,-29,-68,-78,-170
219,-48,-268,-85,244,-158,-34,43,-34,-73,-87,-170
224,-48,-273,-87,248,-161,-39,39,-39,-82,-107,-175
239,-43,-283,-97,261,-163,-43,29,-39,-87,-117,-185
234,-43,-278,-95,256,-161,-43,19,-43,-78,-102,-195
224,-43,-268,-90,246,-156,-34,24,-43,-73,-97,-190
219,-43,-263,-87,241,-153,-34,34,-43,-68,-87,-190
219,-43,-263,-87,241,-153,-34,34,-48,-58,-82,-195
214,-43,-258,-85,236,-151,-48,39,-39,-58,-82,-204
224,-39,-263,-92,244,-151,-48,39,-39,-58,-78,-204
214,-39,-253,-87,234,-146,-48,39,-34,-58,-73,-200
209,-39,-248,-85,229,-143,-43,39,-34,-68,-68,-200
229,-53,-283,-87,256,-168,-24,53,-29,-58,-102,-170
156,-58,-214,-48,185,-136,0,82,-9,-48,-73,-131
97,-87,-185,-4,141,-136,19,92,9,-43,-58,-126
170,-73,-244,-48,207,-158,0,78,-4,-73,-82,-151
278,-34,-312,-122,295,-173,-29,58,-48,-117,-117,-175
263,-78,-341,-92,302,-209,-39,58,-82,-141,-141,-190
200,-97,-297,-51,248,-197,-14,92,-73,-126,-146,-185
195,-78,-273,-58,234,-175,9,151,-53,-102,-141,-175
200,-92,-292,-53,246,-192,9,180,-39,-112,-156,-180
214,-131,-346,-41,280,-239,-9,185,-29,-146,-195,-229
219,-141,-361,-39,290,-251,-29,209,24,-146,-204,-253
224,-136,-361,-43,292,-248,-34,273,107,-97,-170,-244
273,-126,-400,-73,336,-263,-53,331,180,-39,-146,-234
312,-117,-429,-97,370,-273,-87,400,263,48,-92,-219
366,-92,-458,-136,412,-275,-117,492,336,131,-34,-185
439,-73,-512,-183,475,-292,-190,536,278,161,-9,-165
478,-97,-575,-190,527,-336,-283,536,68,161,19,-141
512,-92,-605,-209,558,-348,-336,561,-195,151,53,-107
541,-58,-600,-241,570,-329,-361,580,-414,131,82,-68
551,-29,-580,-261,566,-305,-419,546,-614,141,146,4
600,14,-585,-307,592,-285,-512,468,-858,165,219,63
673,58,-614,-366,644,-278,-605,385,-1102,185,307,112
707,78,-629,-392,668,-275,-702,302,-1278,244,409,190
761,146,-614,-453,688,-234,-810,209,-1356,370,566,302
839,234,-605,-536,722,-185,-917,63,-1385,556,775,463
902,297,-605,-600,753,-153,-1039,-214,-1390,751,1005,624
912,346,-566,-629,739,-109,-1180,-634,-1420,936,1239,785
883,429,-453,-656,668,-12,-1278,-1098,-1464,1058,1473,966
805,522,-283,-663,544,119,-1302,-1503,-1503,1117,1664,1137
712,600,-112,-656,412,244,-1293,-1722,-1532,1117,1786,1263
658,639,-19,-649,339,309,-1293,-1830,-1595,1005,1844,1346
634,658,24,-646,305,341,-1288,-1937,-1751,761,1810,1405
585,673,87,-629,248,380,-1268,-2010,-1908,468,1722,1459
541,673,131,-607,204,402,-1229,-1971,-1956,253,1644,1483
483,712,229,-597,126,470,-1156,-1878,-1854,165,1586,1527
380,761,380,-570,0,570,-1058,-1761,-1678,141,1542,1576
317,761,444,-539,-63,602,-980,-1654,-1522,122,1498,1581
341,775,434,-558,-46,605,-961,-1590,-1434,78,1420,1566
302,766,463,-534,-80,614,-927,-1488,-1366,29,1337,1542
219,736,517,-478,-148,627,-849,-1337,-1259,-4,1239,1483
180,673,492,-427,-156,583,-761,-1185,-1137,-24,1132,1361
102,546,444,-324,-170,495,-639,-995,-980,-14,1024,1224
48,439,390,-244,-170,414,-527,-814,-839,-43,873,1073
146,366,219,-256,-36,292,-463,-707,-756,-151,610,863
185,263,78,-224,53,170,-390,-600,-658,-258,307,605
122,195,73,-158,24,134,-287,-448,-517,-312,73,409
53,146,92,-100,-19,119,-229,-341,-419,-326,-39,297
-19,78,97,-29,-58,87,-190,-273,-361,-317,-92,239
-63,68,131,-2,-97,100,-141,-209,-317,-317,-141,190
-39,78,117,-19,-78,97,-107,-185,-292,-331,-180,126
-48,43,92,2,-70,68,-92,-165,-258,-326,-200,73
-78,14,92,31,-85,53,-63,-126,-209,-287,-195,43
-102,0,102,51,-102,51,-39,-92,-156,-253,-175,24
-92,-14,78,53,-85,31,-19,-73,-126,-234,-185,-9
-68,-39,29,53,-48,-4,0,-24,-87,-214,-190,-39
-68,-53,14,61,-41,-19,39,34,-19,-180,-190,-58
-92,-63,29,78,-61,-17,82,73,29,-156,-185,-78
-131,-87,43,109,-87,-21,117,122,92,-122,-170,-107
-151,-117,34,134,-92,-41,151,161,136,-78,-136,-126
-161,-107,53,134,-107,-26,165,170,161,-48,-122,-141
-195,-112,82,153,-139,-14,190,204,190,-9,-102,-122
-204,-107,97,156,-151,-4,180,214,200,-14,-107,-131
-209,-107,102,158,-156,-2,190,224,219,0,-107,-136
-209,-107,102,158,-156,-2,185,224,229,0,-107,-141
-209,-102,107,156,-158,2,180,224,239,4,-107,-141
-219,-97,122,158,-170,12,175,229,244,14,-92,-151
-234,-97,136,165,-185,19,175,234,244,24,-92,-151
-244,-97,146,170,-195,24,180,234,253,29,-92,-146
-244,-97,146,170,-195,24,180,229,239,29,-92,-146
-214,-112,102,163,-158,-4,165,209,219,4,-107,-146
-190,-112,78,151,-134,-17,165,209,219,-4,-117,-141
-175,-112,63,143,-119,-24,170,214,229,-4,-122,-136
-161,-112,48,136,-104,-31,170,224,244,-9,-122,-131
-190,-107,82,148,-136,-12,185,234,239,-4,-122,-122
-209,-107,102,158,-156,-2,190,244,258,4,-117,-122
-224,-107,117,165,-170,4,195,248,258,4,-102,-117
-234,-112,122,173,-178,4,200,244,253,0,-102,-117
-234,-112,122,173,-178,4,200,239,253,-4,-117,-126
-219,-112,107,165,-163,-2,190,234,239,-9,-131,-131
-214,-112,102,163,-158,-4,185,229,244,-14,-141,-141
-219,-107,112,163,-165,2,185,229,248,-9,-141,-141
-190,-87,102,139,-146,7,180,219,253,9,-136,-141
-170,-87,82,129,-126,-2,190,229,263,9,-131,-141
-156,-92,63,124,-109,-14,190,229,258,4,-126,-141
-136,-92,43,114,-90,-24,190,229,253,4,-126,-141
-161,-92,68,126,-114,-12,180,214,253,0,-136,-156
-165,-97,68,131,-117,-14,180,209,244,-4,-146,-156
-180,-112,68,146,-124,-21,175,204,234,-14,-151,-156
-195,-117,78,156,-136,-19,175,204,248,-19,-156,-151
-156,-87,68,122,-112,-9,180,214,258,-14,-151,-146
-165,-87,78,126,-122,-4,180,214,253,-14,-156,-146
-180,-92,87,136,-134,-2,180,209,248,-14,-151,-146
-175,-102,73,139,-124,-14,180,209,244,-9,-141,-146
-165,-97,68,131,-117,-14,180,214,248,4,-136,-156
-165,-97,68,131,-117,-14,180,214,253,4,-131,-165
-170,-97,73,134,-122,-12,175,204,248,0,-136,-175
-170,-97,73,134,-122,-12,175,209,244,-9,-136,-180
-165,-107,58,136,-112,-24,175,204,253,-14,-146,-170
-165,-112,53,139,-109,-29,180,214,258,-14,-151,-170
-161,-117,43,139,-102,-36,190,209,258,-4,-156,-170
-151,-107,43,129,-97,-31,190,204,263,-9,-165,-165
-151,-102,48,126,-100,-26,190,214,253,-29,-170,-165
-136,-97,39,117,-87,-29,180,200,239,-29,-175,-165
-136,-92,43,114,-90,-24,180,200,239,-29,-180,-165
-146,-87,58,117,-102,-14,185,204,263,-29,-180,-165
-156,-92,63,124,-109,-14,175,195,253,-34,-190,-156
-151,-97,53,124,-102,-21,175,195,248,-34,-190,-161
-146,-102,43,124,-95,-29,175,195,248,-39,-185,-161
-146,-107,39,126,-92,-34,175,195,248,-43,-185,-156
-141,-107,34,124,-87,-36,180,200,253,-34,-175,-156
-136,-112,24,124,-80,-43,185,200,253,-29,-170,-165
-126,-112,14,119,-70,-48,190,200,258,-29,-165,-170
-117,-112,4,114,-61,-53,195,195,268,-29,-156,-170
-107,-107,0,107,-53,-53,180,180,268,-34,-161,-190
-122,-102,19,112,-70,-41,175,185,278,-29,-165,-200
-122,-97,24,109,-73,-36,170,180,263,-24,-170,-214
-112,-92,19,102,-65,-36,165,165,248,-24,-190,-239
-107,-97,9,102,-58,-43,161,156,248,-29,-200,-234
-112,-102,9,107,-61,-46,161,156,253,-34,-200,-234
-117,-112,4,114,-61,-53,170,161,253,-48,-200,-229
-122,-117,4,119,-63,-56,170,161,258,-53,-209,-229
-136,-102,34,119,-85,-34,170,156,248,-63,-219,-219
-136,-102,34,119,-85,-34,170,151,248,-63,-219,-214
-136,-102,34,119,-85,-34,165,151,244,-63,-219,-209
-161,-102,58,131,-109,-21,165,156,239,-63,-219,-200
-131,-107,24,119,-78,-41,170,161,239,-68,-234,-195
-112,-112,0,112,-56,-56,170,161,248,-73,-234,-195
-102,-122,-19,112,-41,-70,170,156,248,-82,-239,-195
-117,-126,-9,122,-53,-68,170,151,248,-87,-248,-190
-117,-122,-4,119,-56,-63,165,141,263,-78,-248,-195
-141,-117,24,129,-82,-46,175,141,273,-78,-244,-185
-141,-112,29,126,-85,-41,175,141,258,-87,-234,-180
-141,-107,34,124,-87,-36,175,141,253,-87,-234,-180
-117,-102,14,109,-65,-43,170,136,248,-97,-248,-200
-102,-102,0,102,-51,-51,165,131,253,-102,-253,-214
-82,-102,-19,92,-31,-61,156,112,248,-102,-268,-239
-43,-102,-58,73,7,-80,151,107,244,-102,-268,-248
-34,-102,-68,68,17,-85,161,112,253,-97,-268,-258
-48,-107,-58,78,4,-82,161,102,253,-102,-273,-258
-78,-112,-34,95,-21,-73,161,92,248,-117,-283,-258
-78,-112,-34,95,-21,-73,161,92,248,-117,-283,-253
-73,-102,-29,87,-21,-65,161,92,253,-122,-278,-244
-82,-107,-24,95,-29,-65,161,92,253,-122,-278,-234
-122,-117,4,119,-63,-56,161,92,253,-122,-283,-229
-151,-122,29,136,-90,-46,170,92,263,-122,-287,-219
-161,-117,43,139,-102,-36,180,92,268,-107,-283,-219
-136,-117,19,126,-78,-48,180,87,263,-107,-283,-219
-146,-117,29,131,-87,-43,185,82,268,-107,-278,-219
-165,-112,53,139,-109,-29,185,87,273,-107,-273,-224
-180,-122,58,151,-119,-31,180,82,278,-107,-278,-219
-195,-126,68,161,-131,-29,180,73,268,-122,-287,-214
-204,-126,78,165,-141,-24,185,68,268,-122,-287,-209
-219,-117,102,168,-161,-7,195,68,273,-122,-287,-200
-190,-107,82,148,-136,-12,190,63,263,-126,-297,-209
-180,-97,82,139,-131,-7,190,53,258,-141,-307,-214
-151,-82,68,117,-109,-7,190,39,258,-141,-312,-219
-131,-73,58,102,-95,-7,190,34,258,-156,-317,-224
-151,-78,73,114,-112,-2,190,24,239,-165,-326,-219
-161,-82,78,122,-119,-2,185,14,239,-170,-326,-214
-175,-87,87,131,-131,0,185,9,229,-165,-322,-209
-175,-87,87,131,-131,0,180,0,229,-170,-317,-195
-195,-102,92,148,-143,-4,161,-19,219,-170,-312,-204
-209,-107,102,158,-156,-2,156,-29,219,-175,-302,-200
-224,-112,112,168,-168,0,156,-39,214,-180,-297,-200
-224,-97,126,161,-175,14,151,-53,209,-180,-292,-200
-219,-82,136,151,-178,26,146,-43,219,-185,-297,-185
-219,-78,141,148,-180,31,151,-48,214,-170,-287,-170
-214,-63,151,139,-183,43,156,-48,209,-165,-278,-156
-200,-53,146,126,-173,46,161,-53,209,-161,-273,-141
-209,-53,156,131,-183,51,146,-73,185,-161,-273,-146
-204,-53,151,129,-178,48,136,-78,170,-165,-268,-141
-204,-48,156,126,-180,53,122,-87,156,-170,-273,-136
-204,-48,156,126,-180,53,112,-97,141,-175,-273,-126
-209,-43,165,126,-187,61,117,-102,131,-185,-253,-112
-209,-39,170,124,-190,65,112,-112,131,-185,-239,-97
-200,-29,170,114,-185,70,112,-117,117,-180,-239,-73
-204,-14,190,109,-197,87,107,-122,107,-180,-229,-58
-204,-29,175,117,-190,73,112,-112,102,-161,-204,-43
-204,-24,180,114,-192,78,97,-117,92,-156,-185,-29
-185,-24,161,104,-173,68,87,-122,87,-141,-165,-14
-165,-29,136,97,-151,53,82,-122,87,-131,-146,-9
-195,-14,180,104,-187,82,78,-122,68,-126,-136,-9
-200,-9,190,104,-195,90,63,-122,58,-126,-126,-4
-170,0,170,85,-170,85,48,-131,48,-122,-126,-4
-161,0,161,80,-161,80,39,-131,43,-122,-117,-4
-180,-9,170,95,-175,80,34,-131,43,-112,-92,0
-185,-9,175,97,-180,82,29,-131,34,-102,-82,4
-175,-14,161,95,-168,73,14,-151,24,-102,-73,9
-161,-14,146,87,-153,65,9,-151,19,-92,-58,14
-141,-4,136,73,-139,65,0,-141,4,-82,-53,19
-126,0,126,63,-126,63,-9,-141,0,-78,-48,19
-112,4,117,53,-114,61,-9,-131,-9,-73,-39,24
-87,14,102,36,-95,58,-9,-126,-14,-68,-39,24
-68,29,97,19,-82,63,-24,-131,-29,-68,-29,43
-73,34,107,19,-90,70,-29,-131,-34,-68,-24,53
-43,39,82,2,-63,61,-29,-117,-39,-63,-9,68
-78,43,122,17,-100,82,-29,-97,-43,-58,9,82
-117,29,146,43,-131,87,-9,-78,-19,-39,24,73
-78,29,107,24,-92,68,-4,-73,-14,-29,34,73
-39,24,63,7,-51,43,-4,-53,-9,-14,34,73
-39,19,58,9,-48,39,-4,-43,-9,-4,34,68
-73,-4,68,39,-70,31,4,-29,0,0,34,78
-82,-9,73,46,-78,31,9,-19,4,9,43,78
-68,-9,58,39,-63,24,14,-14,9,14,48,78
-53,-14,39,34,-46,12,14,0,14,19,48,78
-63,0,63,31,-63,31,9,24,14,24,53,63
-68,0,68,34,-68,34,9,29,14,29,58,53
-73,-9,63,41,-68,26,9,29,14,34,63,43
-92,-14,78,53,-85,31,9,48,24,39,73,39
-107,-9,97,58,-102,43,14,43,24,34,68,43
-107,-9,97,58,-102,43,14,53,19,39,58,43
-102,-9,92,56,-97,41,24,58,24,39,53,48
-117,-14,102,65,-109,43,24,63,19,39,48,48
-102,-19,82,61,-92,31,9,58,4,34,34,34
-92,-19,73,56,-82,26,9,73,0,34,34,29
-68,-19,48,43,-58,14,14,68,0,24,29,24
-34,-19,14,26,-24,-2,9,58,-4,14,24,19
-9,-29,-19,19,4,-24,4,73,0,19,24,9
-19,-29,-9,24,-4,-19,9,78,4,24,24,4
-43,-24,19,34,-31,-2,14,87,9,29,29,4
-53,-24,29,39,-41,2,14,92,14,34,29,0
-53,-29,24,41,-39,-2,24,92,14,19,19,0
-34,-29,4,31,-19,-12,24,92,14,19,24,0
-43,-39,4,41,-24,-17,34,97,19,29,24,0
-63,-39,24,51,-43,-7,39,112,19,29,29,0
-73,-39,34,56,-53,-2,43,107,34,19,24,9
-82,-43,39,63,-61,-2,43,107,34,19,24,9
-73,-43,29,58,-51,-7,34,107,34,19,14,-4
-58,-43,14,51,-36,-14,34,97,34,9,9,-4
-53,-34,19,43,-36,-7,48,117,29,24,14,-9
-48,-19,29,34,-39,4,48,122,34,34,29,-9
-24,-14,9,19,-17,-2,48,122,34,39,34,-14
-4,-9,-4,7,0,-7,58,122,34,43,29,-19
-9,-14,-4,12,-2,-9,48,126,39,39,29,-4
-14,-19,-4,17,-4,-12,43,126,43,43,34,0
-29,-29,0,29,-14,-14,43,126,48,39,34,0
-34,-34,0,34,-17,-17,43,126,48,43,43,0
-48,-43,4,46,-26,-19,34,126,43,39,29,-14
-58,-48,9,53,-34,-19,34,122,48,34,29,-14
-68,-53,14,61,-41,-19,34,122,43,29,24,-19
-87,-58,29,73,-58,-14,34,117,34,24,19,-19
-68,-53,14,61,-41,-19,24,107,34,24,0,-24
-58,-53,4,56,-31,-24,29,107,39,19,0,-34
-48,-53,-4,51,-21,-29,29,107,39,14,0,-39
-34,-53,-19,43,-7,-36,34,107,43,19,0,-39
-14,-43,-29,29,7,-36,24,97,39,9,-9,-34
0,-48,-48,24,24,-48,19,92,24,0,-14,-34
14,-48,-63,17,39,-56,14,92,19,0,-24,-29
19,-48,-68,14,43,-58,14,92,19,-9,-24,-24
0,-34,-34,17,17,-34,43,107,39,-9,-24,-34
-14,-29,-14,21,0,-21,53,117,53,0,-19,-24
-9,-29,-19,19,4,-24,58,122,58,0,-24,-24
9,-29,-39,9,24,-34,63,122,53,0,-29,-34
14,-43,-58,14,36,-51,43,117,43,4,-34,-43
0,-53,-53,26,26,-53,43,117,43,9,-34,-53
-9,-63,-53,36,21,-58,43,117,53,4,-34,-58
-19,-63,-43,41,12,-53,43,117,58,9,-29,-58
-4,-58,-53,31,24,-56,48,131,68,0,-24,-39
-4,-53,-48,29,21,-51,53,131,68,9,-19,-34
-9,-48,-39,29,14,-43,53,136,73,9,-19,-19
4,-43,-48,19,26,-46,53,136,78,9,-24,-14
-4,-34,-29,19,12,-31,68,146,82,14,-14,-14
-14,-34,-19,24,2,-26,73,151,87,24,-14,-14
-43,-34,9,39,-26,-12,82,151,102,29,-9,-14
-63,-34,29,48,-46,-2,87,146,107,34,-9,-19
-29,-34,-4,31,-12,-19,68,141,102,34,-29,-29
-4,-29,-24,17,9,-26,63,141,107,34,-29,-39
-24,-24,0,24,-12,-12,68,146,117,48,-24,-43
-24,-24,0,24,-12,-12,68,141,112,48,-14,-53
4,-24,-29,9,17,-26,63,141,112,39,-24,-53
19,-24,-43,2,31,-34,58,131,102,39,-34,-53
29,-24,-53,-2,41,-39,48,131,102,34,-34,-53
43,-19,-63,-12,53,-41,43,141,107,34,-29,-53
24,-9,-34,-7,29,-21,48,146,117,43,-14,-53
14,-14,-29,0,21,-21,53,146,117,43,-14,-58
29,-14,-43,-7,36,-29,53,136,117,39,-14,-58
19,-29,-48,4,34,-39,53,136,107,34,-19,-53
24,-29,-53,2,39,-41,48,136,112,34,-9,-48
24,-29,-53,2,39,-41,53,151,117,43,-9,-48
9,-29,-39,9,24,-34,53,156,126,48,-4,-39
39,-19,-58,-9,48,-39,53,156,131,48,-4,-39
34,-39,-73,2,53,-56,48,156,122,53,9,-29
9,-43,-53,17,31,-48,53,156,122,58,9,-29
-9,-39,-29,24,9,-34,58,151,122,63,9,-29
-24,-43,-19,34,-2,-31,63,151,122,48,9,-29
-14,-43,-29,29,7,-36,58,146,112,58,4,-34
4,-39,-43,17,24,-41,63,146,112,58,4,-34
34,-34,-68,0,51,-51,39,131,107,53,0,-39
53,-29,-82,-12,68,-56,29,131,107,48,0,-43
48,-29,-78,-9,63,-53,24,131,92,43,-4,-43
34,-34,-68,0,51,-51,19,131,82,39,-9,-43
39,-34,-73,-2,56,-53,14,131,73,34,-9,-43
34,-29,-63,-2,48,-46,9,126,68,34,-14,-43
131,-29,-161,-51,146,-95,-29,82,39,4,-39,-73
68,-63,-131,-2,100,-97,0,112,78,29,-9,-43
68,-53,-122,-7,95,-87,19,131,78,39,14,-34
68,-34,-102,-17,85,-68,29,136,87,58,43,-24
29,-39,-68,4,48,-53,39,146,87,68,48,-9
29,-29,-58,0,43,-43,29,136,78,58,43,-4
29,-29,-58,0,43,-43,29,136,78,58,39,0
29,-29,-58,0,43,-43,29,136,78,58,34,4
29,-29,-58,0,43,-43,29,136,78,58,29,9
43,-43,-87,0,65,-65,14,126,73,43,24,0
53,-39,-92,-7,73,-65,14,117,63,39,24,0
73,-43,-117,-14,95,-80,14,112,58,43,29,0
107,-39,-146,-34,126,-92,14,107,53,43,29,9
97,-34,-131,-31,114,-82,14,112,53,39,24,9
87,-34,-122,-26,104,-78,14,117,58,39,29,14
68,-34,-102,-17,85,-68,14,122,63,43,34,14
58,-29,-87,-14,73,-58,19,126,63,43,34,24
68,-29,-97,-19,82,-63,19,117,53,34,34,14
78,-29,-107,-24,92,-68,19,117,53,34,29,19
82,-19,-102,-31,92,-61,24,126,53,34,24,19
82,-19,-102,-31,92,-61,34,131,63,48,29,19
68,-9,-78,-29,73,-43,39,136,68,63,34,24
58,-14,-73,-21,65,-43,43,141,73,63,34,19
53,-29,-82,-12,68,-56,43,146,82,58,34,9
24,-39,-63,7,43,-51,58,161,87,63,34,9
9,-29,-39,9,24,-34,78,180,97,73,34,4
-4,-39,-34,21,14,-36,78,180,97,68,24,-9
-29,-58,-29,43,0,-43,78,180,92,63,29,-14
-58,-68,-9,63,-24,-39,82,185,92,63,24,-14
-53,-68,-14,61,-19,-41,82,185,82,53,9,-53
-34,-63,-29,48,-2,-46,78,185,82,48,9,-53
-19,-63,-43,41,12,-53,78,185,78,39,4,-53
-29,-73,-43,51,7,-58,78,175,78,34,-9,-48
-58,-82,-24,70,-17,-53,87,185,78,34,-4,-39
-63,-87,-24,75,-19,-56,92,185,78,29,-9,-43
-53,-87,-34,70,-9,-61,92,180,63,19,-19,-48
-68,-87,-19,78,-24,-53,97,180,63,19,-19,-48
-68,-82,-14,75,-26,-48,87,170,48,9,-29,-63
-14,-82,-68,48,26,-75,82,161,43,4,-29,-63
14,-87,-102,36,58,-95,73,141,39,-4,-34,-68
43,-82,-126,19,85,-104,63,131,24,-9,-34,-73
43,-82,-126,19,85,-104,73,141,43,9,-29,-63
29,-73,-102,21,65,-87,78,146,48,9,-29,-63
14,-73,-87,29,51,-80,78,146,48,9,-29,-68
0,-73,-73,36,36,-73,68,151,39,9,-34,-73
9,-78,-87,34,48,-82,73,146,29,9,-34,-73
14,-78,-92,31,53,-85,68,151,34,9,-34,-63
14,-78,-92,31,53,-85,63,151,34,4,-34,-63
0,-82,-82,41,41,-82,58,151,34,4,-34,-63
-24,-78,-53,51,14,-65,73,161,43,14,-24,-58
-14,-73,-58,43,21,-65,78,165,43,14,-24,-53
-14,-78,-63,46,24,-70,82,165,43,14,-24,-48
-19,-73,-53,46,17,-63,87,170,43,14,-24,-39
-34,-78,-43,56,4,-61,92,175,48,24,-24,-43
-34,-78,-43,56,4,-61,87,175,48,29,-24,-48
-29,-82,-53,56,12,-68,73,165,34,29,-34,-58
-24,-82,-58,53,17,-70,68,161,34,14,-34,-68
-14,-92,-78,53,31,-85,78,170,43,14,-34,-68
-19,-92,-73,56,26,-82,78,175,43,14,-34,-68
-39,-87,-48,63,4,-68,82,180,48,24,-24,-63
-29,-82,-53,56,12,-68,82,185,53,29,-19,-58
-24,-78,-53,51,14,-65,82,185,53,19,-19,-48
-19,-78,-58,48,19,-68,82,185,53,24,-19,-48
-19,-73,-53,46,17,-63,82,185,58,24,-19,-58
-14,-68,-53,41,19,-61,82,185,58,24,-19,-58
-4,-58,-53,31,24,-56,92,190,58,34,-14,-63
-4,-58,-53,31,24,-56,92,190,53,34,-9,-63
-4,-63,-58,34,26,-61,87,185,48,29,-14,-68
4,-63,-68,29,36,-65,82,175,48,29,-9,-78
0,-73,-73,36,36,-73,73,185,53,24,-19,-68
-9,-73,-63,41,26,-68,82,190,53,24,-19,-63
-14,-73,-58,43,21,-65,82,200,53,24,-14,-63
-14,-73,-58,43,21,-65,82,200,48,29,-14,-68
0,-73,-73,36,36,-73,78,195,39,19,-29,-63
19,-68,-87,24,53,-78,78,195,39,19,-29,-58
19,-68,-87,24,53,-78,78,195,43,19,-29,-48
24,-68,-92,21,58,-80,82,195,43,9,-29,-43
4,-82,-87,39,46,-85,82,190,48,0,-43,-53
-29,-97,-68,63,19,-82,87,190,39,-9,-43,-73
-87,-126,-39,107,-24,-82,97,200,48,4,-39,-68
-82,-112,-29,97,-26,-70,107,204,34,-4,-43,-73
-14,-112,-97,63,41,-104,97,214,19,-29,-68,-87
0,-136,-136,68,68,-136,87,224,-4,-43,-82,-102
-24,-136,-112,80,43,-124,82,239,-14,-58,-107,-107
19,-126,-146,53,82,-136,87,278,-4,-63,-112,-107
43,-131,-175,43,109,-153,97,317,39,-53,-117,-112
19,-151,-170,65,95,-161,97,361,107,-39,-117,-112
53,-151,-204,48,129,-178,117,414,209,9,-97,-117
107,-126,-234,9,170,-180,102,468,292,68,-73,-117
117,-126,-244,4,180,-185,53,517,366,126,-48,-107
165,-136,-302,-14,234,-219,0,575,429,175,-24,-102
248,-112,-361,-68,305,-236,-58,639,434,229,14,-78
273,-112,-385,-80,329,-248,-131,663,297,248,68,-39
302,-126,-429,-87,366,-278,-214,683,29,219,78,-14
336,-112,-448,-112,392,-280,-258,697,-204,190,92,0
405,-39,-444,-183,424,-241,-292,688,-385,209,161,48
483,19,-463,-251,473,-222,-370,624,-605,248,244,112
531,53,-478,-292,505,-212,-473,546,-849,292,317,161
566,87,-478,-326,522,-195,-556,492,-1044,361,424,248
639,165,-473,-402,556,-153,-653,400,-1161,478,585,366
644,195,-448,-419,546,-126,-780,258,-1200,624,771,507
663,234,-429,-448,546,-97,-907,4,-1210,810,990,668
766,346,-419,-556,592,-36,-1049,-361,-1205,1015,1220,839
824,444,-380,-634,602,31,-1180,-829,-1254,1180,1454,1000
727,507,-219,-617,473,143,-1249,-1312,-1307,1263,1668,1171
610,600,-9,-605,309,295,-1254,-1620,-1346,1312,1839,1332
575,668,92,-622,241,380,-1254,-1732,-1405,1254,1942,1459
580,688,107,-634,236,397,-1254,-1830,-1556,1044,1932,1532
527,707,180,-617,173,444,-1239,-1937,-1761,712,1849,1590
409,722,312,-566,48,517,-1171,-1932,-1859,468,1771,1644
366,771,405,-568,-19,588,-1083,-1834,-1800,351,1722,1678
356,800,444,-578,-43,622,-1029,-1742,-1668,292,1654,1683
302,800,497,-551,-97,649,-980,-1644,-1532,268,1581,1693
268,819,551,-544,-141,685,-951,-1556,-1424,248,1527,1678
263,814,551,-539,-143,683,-922,-1473,-1346,204,1459,1654
224,766,541,-495,-158,653,-868,-1351,-1259,136,1356,1600
151,717,566,-434,-207,641,-761,-1190,-1122,122,1268,1503
112,663,551,-387,-219,607,-624,-990,-961,131,1171,1381
161,585,424,-373,-131,505,-531,-839,-844,82,1005,1185
165,458,292,-312,-63,375,-488,-736,-761,-24,756,976
78,326,248,-202,-85,287,-375,-590,-649,-112,483,766
-19,234,253,-107,-136,244,-244,-405,-492,-180,219,585
-53,165,219,-56,-136,192,-190,-292,-400,-244,43,448
4,126,122,-65,-58,124,-190,-253,-380,-287,-48,346
68,107,39,-87,14,73,-170,-214,-351,-317,-122,248
-4,78,82,-36,-43,80,-122,-170,-297,-326,-161,200
-117,9,126,53,-122,68,-68,-136,-253,-302,-141,175
-136,-14,122,75,-129,53,-34,-107,-200,-268,-141,122
-107,-4,102,56,-104,48,4,-68,-161,-239,-146,82
-82,0,82,41,-82,41,19,-34,-126,-214,-146,63
-82,-14,68,48,-75,26,39,4,-78,-195,-156,19
-156,-68,87,112,-122,9,78,63,-19,-156,-151,-9
-204,-82,122,143,-163,19,126,122,29,-122,-141,-29
-209,-73,136,141,-173,31,161,141,78,-107,-146,-58
-200,-97,102,148,-151,2,175,170,112,-82,-151,-87
-170,-87,82,129,-126,-2,190,200,146,-58,-136,-97
-151,-87,63,119,-107,-12,204,209,180,-39,-122,-92
-195,-122,73,158,-134,-24,200,224,209,-29,-122,-92
-204,-117,87,161,-146,-14,195,239,224,-14,-117,-92
-209,-117,92,163,-151,-12,209,253,239,0,-117,-97
-209,-117,92,163,-151,-12,209,258,244,0,-117,-102
-209,-112,97,161,-153,-7,209,263,248,4,-117,-102
-214,-107,107,161,-161,0,224,263,248,-9,-107,-102
-224,-107,117,165,-170,4,224,263,244,-4,-102,-102
-229,-107,122,168,-175,7,229,258,248,-4,-97,-97
-224,-107,117,165,-170,4,229,248,229,-9,-92,-97
-200,-122,78,161,-139,-21,214,248,224,-9,-97,-112
-190,-122,68,156,-129,-26,214,248,229,-4,-107,-112
-190,-122,68,156,-129,-26,219,253,244,9,-112,-112
-190,-122,68,156,-129,-26,219,263,263,19,-112,-112
-214,-107,107,161,-161,0,239,268,263,24,-107,-112
-229,-107,122,168,-175,7,239,273,278,34,-107,-112
-239,-107,131,173,-185,12,239,273,273,34,-97,-107
-244,-112,131,178,-187,9,239,263,263,29,-102,-107
-244,-122,122,183,-183,0,239,263,258,34,-102,-107
-229,-122,107,175,-168,-7,229,263,248,29,-112,-112
-224,-122,102,173,-163,-9,224,263,258,24,-117,-122
-229,-117,112,173,-170,-2,224,268,268,29,-112,-122
-224,-102,122,163,-173,9,229,258,268,53,-97,-102
-229,-97,131,163,-180,17,239,268,283,48,-92,-102
-239,-97,141,168,-190,21,239,268,283,39,-87,-102
-244,-92,151,168,-197,29,239,268,283,34,-87,-102
-244,-102,141,173,-192,19,229,253,273,29,-97,-117
-234,-107,126,170,-180,9,229,248,263,24,-107,-117
-234,-122,112,178,-173,-4,224,244,253,14,-112,-117
-234,-126,107,180,-170,-9,224,244,268,9,-117,-112
-200,-102,97,151,-148,-2,229,253,273,14,-117,-117
-204,-97,107,151,-156,4,229,253,273,14,-126,-117
-214,-97,117,156,-165,9,229,248,273,14,-126,-117
-204,-102,102,153,-153,0,229,248,273,19,-122,-117
-204,-117,87,161,-146,-14,239,258,283,34,-117,-112
-204,-117,87,161,-146,-14,239,253,283,34,-112,-117
-209,-117,92,163,-151,-12,234,239,273,29,-117,-122
-209,-117,92,163,-151,-12,234,239,263,19,-117,-122
-204,-122,82,163,-143,-19,219,224,268,4,-131,-136
-204,-122,82,163,-143,-19,219,234,268,4,-131,-141
-200,-122,78,161,-139,-21,224,229,263,14,-131,-146
-190,-107,82,148,-136,-12,219,224,263,9,-136,-146
-180,-126,53,153,-117,-36,229,234,273,-9,-141,-146
-165,-126,39,146,-102,-43,219,219,258,-9,-146,-146
-165,-126,39,146,-102,-43,219,219,258,-9,-151,-146
-175,-126,48,151,-112,-39,224,224,283,-9,-151,-146
-185,-117,68,151,-126,-24,214,214,278,-9,-141,-156
-180,-117,63,148,-122,-26,214,214,268,-4,-141,-161
-175,-117,58,146,-117,-29,214,214,263,-4,-136,-161
-175,-117,58,146,-117,-29,214,214,258,-4,-136,-156
-165,-107,58,136,-112,-24,204,209,248,-24,-141,-156
-156,-112,43,134,-100,-34,204,200,244,-29,-151,-165
-141,-112,29,126,-85,-41,204,190,244,-39,-161,-170
-126,-112,14,119,-70,-48,204,175,248,-48,-165,-170
-126,-122,4,124,-65,-58,204,175,244,-48,-170,-156
-141,-122,19,131,-80,-51,204,185,258,-48,-175,-151
-141,-122,19,131,-80,-51,204,185,248,-48,-180,-151
-131,-122,9,126,-70,-56,204,175,239,-53,-200,-161
-97,-112,-14,104,-41,-63,185,161,224,-68,-204,-175
-82,-112,-29,97,-26,-70,180,156,224,-73,-209,-185
-68,-117,-48,92,-9,-82,185,156,219,-87,-214,-190
-53,-117,-63,85,4,-90,180,151,219,-92,-229,-200
-58,-102,-43,80,-7,-73,190,146,229,-82,-224,-190
-58,-102,-43,80,-7,-73,190,141,229,-82,-219,-195
-58,-102,-43,80,-7,-73,185,141,224,-82,-214,-200
-82,-102,-19,92,-31,-61,185,146,219,-82,-209,-200
-53,-92,-39,73,-7,-65,190,151,219,-82,-214,-209
-43,-92,-48,68,2,-70,190,151,229,-82,-214,-214
-43,-97,-53,70,4,-75,190,146,229,-87,-219,-219
-68,-97,-29,82,-19,-63,190,141,229,-87,-229,-219
-78,-117,-39,97,-19,-78,185,136,224,-97,-234,-214
-112,-126,-14,119,-48,-70,195,131,234,-97,-234,-204
-122,-136,-14,129,-53,-75,195,126,219,-107,-229,-200
-131,-146,-14,139,-58,-80,195,122,214,-107,-234,-200
-107,-126,-19,117,-43,-73,185,112,209,-112,-239,-200
-82,-122,-39,102,-21,-80,185,112,214,-122,-244,-204
-53,-117,-63,85,4,-90,180,97,209,-126,-258,-219
-4,-112,-107,58,51,-109,180,97,204,-131,-258,-219
-9,-122,-112,65,51,-117,180,82,200,-141,-263,-219
-39,-126,-87,82,24,-107,180,73,195,-151,-273,-219
-82,-131,-48,107,-17,-90,180,63,185,-170,-287,-219
-97,-131,-34,114,-31,-82,180,63,180,-175,-292,-214
-63,-112,-48,87,-7,-80,180,63,190,-156,-283,-214
-53,-107,-53,80,0,-80,180,63,195,-151,-278,-214
-73,-107,-34,90,-19,-70,180,63,200,-146,-278,-219
-82,-102,-19,92,-31,-61,190,63,214,-141,-278,-219
-73,-112,-39,92,-17,-75,185,53,200,-156,-292,-229
