I,II,III,aVR,aVL,aVF,V1,V2,V3,V4,V5,V6
-19,-97,-78,58,29,-87,97,78,312,-87,-283,58
-19,-97,-78,58,29,-87,97,78,312,-87,-283,58
-19,-97,-78,58,29,-87,97,78,312,-87,-283,58
-19,-97,-78,58,29,-87,97,78,312,-87,-283,58
-19,-97,-78,58,29,-87,102,87,322,-87,-273,68
-19,-97,-78,58,29,-87,107,87,322,-87,-273,68
-19,-97,-78,58,29,-87,112,87,322,-87,-273,68
-19,-97,-78,58,29,-87,117,87,322,-87,-273,68
-14,-97,-82,56,34,-90,126,87,326,-82,-268,73
-9,-97,-87,53,39,-92,126,87,331,-78,-263,78
-4,-97,-92,51,43,-95,126,87,336,-73,-258,82
0,-97,-97,48,48,-97,126,87,341,-68,-253,87
-4,-87,-82,46,39,-85,122,87,331,-78,-258,73
-9,-87,-78,48,34,-82,117,87,331,-78,-263,68
-14,-87,-73,51,29,-80,112,87,331,-78,-268,63
-19,-87,-68,53,24,-78,107,87,331,-78,-273,58
-19,-97,-78,58,29,-87,107,97,336,-73,-263,68
-19,-97,-78,58,29,-87,107,97,341,-68,-263,68
-19,-97,-78,58,29,-87,107,97,346,-63,-263,68
-19,-97,-78,58,29,-87,107,97,351,-58,-263,68
-9,-82,-73,46,31,-78,107,97,351,-58,-263,68
-9,-78,-68,43,29,-73,107,97,351,-58,-263,68
-9,-73,-63,41,26,-68,107,97,351,-58,-263,68
-9,-68,-58,39,24,-63,107,97,351,-58,-263,68
0,-68,-68,34,34,-68,107,97,361,-48,-263,58
0,-68,-68,34,34,-68,107,97,361,-48,-263,58
0,-68,-68,34,34,-68,107,97,361,-48,-263,58
0,-68,-68,34,34,-68,107,97,361,-48,-263,58
9,-58,-68,24,39,-63,107,97,370,-48,-253,68
9,-58,-68,24,39,-63,107,97,370,-48,-253,68
9,-58,-68,24,39,-63,107,97,370,-48,-253,68
9,-58,-68,24,39,-63,107,97,370,-48,-253,68
9,-58,-68,24,39,-63,107,97,370,-39,-253,58
9,-58,-68,24,39,-63,107,97,370,-39,-253,58
9,-58,-68,24,39,-63,107,97,370,-39,-253,58
9,-58,-68,24,39,-63,107,97,370,-39,-253,58
19,-48,-68,14,43,-58,117,107,385,-29,-244,73
19,-48,-68,14,43,-58,117,107,390,-29,-244,78
19,-48,-68,14,43,-58,117,107,395,-29,-244,82
19,-48,-68,14,43,-58,117,107,400,-29,-244,87
19,-39,-58,9,39,-48,107,117,409,-19,-244,82
19,-39,-58,9,39,-48,107,117,409,-19,-244,78
19,-39,-58,9,39,-48,107,117,409,-19,-244,73
19,-39,-58,9,39,-48,107,117,409,-19,-244,68
19,-29,-48,4,34,-39,107,126,414,-9,-239,78
19,-29,-48,4,34,-39,107,126,419,-9,-234,78
19,-29,-48,4,34,-39,107,126,424,-9,-229,78
19,-29,-48,4,34,-39,107,126,429,-9,-224,78
19,-19,-39,0,29,-29,117,136,434,4,-209,82
19,-19,-39,0,29,-29,117,136,439,9,-204,87
19,-19,-39,0,29,-29,117,136,444,14,-200,92
19,-19,-39,0,29,-29,117,136,448,19,-195,97
19,-9,-29,-4,24,-19,126,146,463,29,-204,107
19,-9,-29,-4,24,-19,126,146,468,29,-204,107
19,-9,-29,-4,24,-19,126,146,473,29,-204,107
19,-9,-29,-4,24,-19,126,146,478,29,-204,107
19,-9,-29,-4,24,-19,126,156,483,34,-204,97
19,-9,-29,-4,24,-19,126,156,488,39,-204,97
19,-9,-29,-4,24,-19,126,156,492,43,-204,97
19,-9,-29,-4,24,-19,126,156,497,48,-204,97
9,0,-9,-4,9,-4,126,161,517,53,-200,102
9,0,-9,-4,9,-4,126,165,527,58,-195,107
9,0,-9,-4,9,-4,126,170,536,63,-190,112
9,0,-9,-4,9,-4,126,175,546,68,-185,117
9,9,0,-9,4,4,117,185,551,73,-180,117
9,9,0,-9,4,4,117,185,556,78,-175,117
9,9,0,-9,4,4,117,185,561,82,-170,117
9,9,0,-9,4,4,117,185,566,87,-165,117
9,19,9,-14,0,14,126,185,580,97,-165,126
9,19,9,-14,0,14,126,185,585,97,-165,126
9,19,9,-14,0,14,126,185,590,97,-165,126
9,19,9,-14,0,14,126,185,595,97,-165,126
19,24,4,-21,7,14,136,190,610,102,-161,136
19,29,9,-24,4,19,136,195,614,107,-156,136
19,34,14,-26,2,24,136,200,619,112,-151,136
19,39,19,-29,0,29,136,204,624,117,-146,136
19,39,19,-29,0,29,136,204,634,126,-136,146
19,39,19,-29,0,29,136,204,634,126,-136,146
19,39,19,-29,0,29,136,204,634,126,-136,146
19,39,19,-29,0,29,136,204,634,126,-136,146
19,39,19,-29,0,29,136,214,634,117,-126,146
19,39,19,-29,0,29,136,214,634,117,-126,146
19,39,19,-29,0,29,136,214,634,117,-126,146
19,39,19,-29,0,29,136,214,634,117,-126,146
19,39,19,-29,0,29,126,204,629,112,-136,146
19,39,19,-29,0,29,126,204,624,107,-136,146
19,39,19,-29,0,29,126,204,619,102,-136,146
19,39,19,-29,0,29,126,204,614,97,-136,146
19,39,19,-29,0,29,136,204,610,82,-146,146
19,39,19,-29,0,29,136,204,605,78,-146,146
19,39,19,-29,0,29,136,204,600,73,-146,146
19,39,19,-29,0,29,136,204,595,68,-146,146
19,39,19,-29,0,29,131,195,580,53,-156,141
19,39,19,-29,0,29,126,195,575,48,-156,136
19,39,19,-29,0,29,122,195,570,43,-156,131
19,39,19,-29,0,29,117,195,566,39,-156,126
29,39,9,-34,9,24,117,185,551,24,-170,126
29,39,9,-34,9,24,117,185,546,19,-175,126
29,39,9,-34,9,24,117,185,541,14,-180,126
29,39,9,-34,9,24,117,185,536,9,-185,126
19,29,9,-24,4,19,117,175,527,4,-195,126
19,29,9,-24,4,19,117,175,517,0,-195,126
19,29,9,-24,4,19,117,175,507,-4,-195,126
19,29,9,-24,4,19,117,175,497,-9,-195,126
19,29,9,-24,4,19,112,161,478,-24,-209,122
19,29,9,-24,4,19,107,156,468,-29,-214,117
19,29,9,-24,4,19,102,151,458,-34,-219,112
19,29,9,-24,4,19,97,146,448,-39,-224,107
29,29,0,-29,14,14,87,136,429,-53,-234,97
29,29,0,-29,14,14,87,136,419,-58,-234,97
29,29,0,-29,14,14,87,136,409,-63,-234,97
29,29,0,-29,14,14,87,136,400,-68,-234,97
39,29,-9,-34,24,9,78,126,390,-78,-224,97
39,29,-9,-34,24,9,78,117,380,-78,-224,97
39,29,-9,-34,24,9,78,107,370,-78,-224,97
39,29,-9,-34,24,9,78,97,361,-78,-224,97
39,39,0,-39,19,19,68,97,346,-68,-234,97
39,39,0,-39,19,19,68,97,341,-68,-234,97
39,39,0,-39,19,19,68,97,336,-68,-234,97
39,39,0,-39,19,19,68,97,331,-68,-234,97
48,39,-9,-43,29,14,58,92,317,-68,-234,87
48,39,-9,-43,29,14,58,87,312,-68,-234,87
48,39,-9,-43,29,14,58,82,307,-68,-234,87
48,39,-9,-43,29,14,58,78,302,-68,-234,87
39,29,-9,-34,24,9,48,68,287,-78,-234,87
39,29,-9,-34,24,9,48,68,283,-78,-234,87
39,29,-9,-34,24,9,48,68,278,-78,-234,87
39,29,-9,-34,24,9,48,68,273,-78,-234,87
48,19,-29,-34,39,-4,39,68,263,-78,-224,78
48,19,-29,-34,39,-4,39,68,263,-78,-224,78
48,19,-29,-34,39,-4,39,68,263,-78,-224,78
48,19,-29,-34,39,-4,39,68,263,-78,-224,78
39,29,-9,-34,24,9,39,58,253,-78,-219,87
39,29,-9,-34,24,9,39,58,253,-78,-214,87
39,29,-9,-34,24,9,39,58,253,-78,-209,87
39,29,-9,-34,24,9,39,58,253,-78,-204,87
43,29,-14,-36,29,7,29,68,244,-78,-204,78
48,29,-19,-39,34,4,29,68,244,-78,-204,78
53,29,-24,-41,39,2,29,68,244,-78,-204,78
58,29,-29,-43,43,0,29,68,244,-78,-204,78
48,19,-29,-34,39,-4,39,68,244,-78,-195,87
48,19,-29,-34,39,-4,39,68,244,-78,-195,87
48,19,-29,-34,39,-4,39,68,244,-78,-195,87
48,19,-29,-34,39,-4,39,68,244,-78,-195,87
58,19,-39,-39,48,-9,29,68,234,-78,-204,97
58,19,-39,-39,48,-9,29,68,234,-78,-204,97
58,19,-39,-39,48,-9,29,68,234,-78,-204,97
58,19,-39,-39,48,-9,29,68,234,-78,-204,97
58,9,-48,-34,53,-19,39,68,234,-78,-195,82
58,9,-48,-34,53,-19,39,68,234,-78,-195,78
58,9,-48,-34,53,-19,39,68,234,-78,-195,73
58,9,-48,-34,53,-19,39,68,234,-78,-195,68
68,0,-68,-34,68,-34,39,68,234,-87,-200,63
68,0,-68,-34,68,-34,39,68,234,-87,-204,58
68,0,-68,-34,68,-34,39,68,234,-87,-209,53
68,0,-68,-34,68,-34,39,68,234,-87,-214,48
58,0,-58,-29,58,-29,39,78,234,-97,-224,53
58,0,-58,-29,58,-29,39,78,234,-97,-224,58
58,0,-58,-29,58,-29,39,78,234,-97,-224,63
58,0,-58,-29,58,-29,39,78,234,-97,-224,68
58,0,-58,-29,58,-29,39,68,234,-97,-234,68
58,0,-58,-29,58,-29,39,68,234,-97,-234,68
58,0,-58,-29,58,-29,39,68,234,-97,-234,68
58,0,-58,-29,58,-29,39,68,234,-97,-234,68
58,0,-58,-29,58,-29,39,68,234,-97,-234,68
58,0,-58,-29,58,-29,39,68,234,-97,-234,68
58,0,-58,-29,58,-29,39,68,234,-97,-234,68
58,0,-58,-29,58,-29,39,68,234,-97,-234,68
58,9,-48,-34,53,-19,29,68,224,-97,-244,58
58,9,-48,-34,53,-19,29,68,224,-97,-244,58
58,9,-48,-34,53,-19,29,68,224,-97,-244,58
58,9,-48,-34,53,-19,29,68,224,-97,-244,58
58,9,-48,-34,53,-19,39,58,224,-97,-244,53
58,9,-48,-34,53,-19,39,58,224,-97,-244,48
58,9,-48,-34,53,-19,39,58,224,-97,-244,43
58,9,-48,-34,53,-19,39,58,224,-97,-244,39
58,19,-39,-39,48,-9,39,68,224,-87,-244,48
58,19,-39,-39,48,-9,39,68,224,-87,-244,48
58,19,-39,-39,48,-9,39,68,224,-87,-244,48
58,19,-39,-39,48,-9,39,68,224,-87,-244,48
48,19,-29,-34,39,-4,39,58,214,-87,-234,48
48,19,-29,-34,39,-4,39,58,214,-87,-234,48
48,19,-29,-34,39,-4,39,58,214,-87,-234,48
48,19,-29,-34,39,-4,39,58,214,-87,-234,48
48,19,-29,-34,39,-4,34,48,204,-87,-234,58
48,19,-29,-34,39,-4,29,48,204,-87,-234,58
48,19,-29,-34,39,-4,24,48,204,-87,-234,58
48,19,-29,-34,39,-4,19,48,204,-87,-234,58
58,19,-39,-39,48,-9,29,48,204,-78,-219,58
58,19,-39,-39,48,-9,29,48,204,-78,-214,58
58,19,-39,-39,48,-9,29,48,204,-78,-209,58
58,19,-39,-39,48,-9,29,48,204,-78,-204,58
58,29,-29,-43,43,0,19,48,195,-78,-195,63
58,29,-29,-43,43,0,19,48,195,-78,-195,68
58,29,-29,-43,43,0,19,48,195,-78,-195,73
58,29,-29,-43,43,0,19,48,195,-78,-195,78
68,39,-29,-53,48,4,9,39,195,-68,-185,78
68,39,-29,-53,48,4,9,39,195,-68,-185,78
68,39,-29,-53,48,4,9,39,195,-68,-185,78
68,39,-29,-53,48,4,9,39,195,-68,-185,78
78,29,-48,-53,63,-9,9,39,190,-68,-170,92
78,34,-43,-56,61,-4,9,39,190,-68,-161,97
78,43,-34,-61,56,4,9,39,185,-63,-156,102
78,48,-29,-63,53,9,9,43,190,-53,-141,107
78,53,-24,-65,51,14,9,34,190,-48,-136,112
82,63,-19,-73,51,21,14,34,190,-43,-131,117
82,68,-14,-75,48,26,14,34,195,-39,-122,117
92,73,-19,-82,56,26,14,39,200,-34,-117,126
82,78,-4,-80,43,36,14,39,200,-29,-107,131
82,87,4,-85,39,46,14,43,204,-24,-97,131
82,92,9,-87,36,51,14,43,209,-19,-97,141
87,97,9,-92,39,53,14,48,209,-19,-92,141
97,102,4,-100,46,53,4,48,209,-24,-82,141
102,102,0,-102,51,51,0,48,214,-24,-82,141
102,102,0,-102,51,51,0,48,214,-19,-82,141
107,112,4,-109,51,58,0,48,219,-19,-78,146
97,117,19,-107,39,68,0,58,209,-9,-73,146
97,117,19,-107,39,68,0,63,219,-4,-68,151
102,117,14,-109,43,65,0,68,219,0,-68,151
102,117,14,-109,43,65,0,73,219,0,-68,151
102,107,4,-104,48,56,-9,73,214,0,-68,151
107,117,9,-112,48,63,-19,63,214,0,-68,151
107,131,24,-119,41,78,-24,58,214,0,-68,151
107,146,39,-126,34,92,-29,43,219,9,-63,161
112,165,53,-139,29,109,-19,39,219,14,-43,151
112,175,63,-143,24,119,-24,24,214,19,-43,161
117,190,73,-153,21,131,-39,9,214,24,-34,165
117,200,82,-158,17,141,-48,0,214,29,-29,170
112,209,97,-161,7,153,-58,-14,214,34,-34,175
122,219,97,-170,12,158,-73,-24,214,34,-29,175
122,219,97,-170,12,158,-87,-24,214,34,-24,180
126,219,92,-173,17,156,-87,-24,209,29,-24,180
141,209,68,-175,36,139,-102,-29,195,24,-43,180
141,200,58,-170,41,129,-112,-48,180,9,-48,170
141,195,53,-168,43,124,-117,-63,161,0,-63,165
141,190,48,-165,46,119,-117,-73,156,-9,-63,161
131,170,39,-151,46,104,-112,-73,156,-9,-58,161
131,161,29,-146,51,95,-102,-63,156,-14,-63,161
126,146,19,-136,53,82,-97,-63,161,-19,-68,161
126,136,9,-131,58,73,-97,-58,161,-24,-68,165
126,122,-4,-124,65,58,-97,-48,170,-24,-68,165
126,122,-4,-124,65,58,-97,-48,170,-14,-63,170
126,126,0,-126,63,63,-97,-39,185,-4,-48,180
136,126,-9,-131,73,58,-97,-34,190,0,-43,190
136,126,-9,-131,73,58,-82,-34,195,4,-43,180
136,117,-19,-126,78,48,-78,-34,195,4,-43,175
136,112,-24,-124,80,43,-78,-29,195,4,-53,170
131,102,-29,-117,80,36,-78,-29,190,-9,-53,161
117,102,-14,-109,65,43,-82,-29,185,-24,-68,156
112,78,-34,-95,73,21,-73,-29,180,-34,-78,146
102,58,-43,-80,73,7,-68,-19,180,-39,-87,136
102,48,-53,-75,78,-2,-58,-14,180,-39,-92,131
97,34,-63,-65,80,-14,-58,-14,170,-48,-102,122
87,29,-58,-58,73,-14,-53,-9,170,-53,-107,117
87,29,-58,-58,73,-14,-48,-4,170,-53,-117,102
73,24,-48,-48,61,-12,-43,-4,170,-53,-122,92
53,19,-34,-36,43,-7,-24,4,175,-48,-112,97
53,14,-39,-34,46,-12,-19,4,175,-48,-117,97
48,9,-39,-29,43,-14,-19,4,175,-48,-122,92
48,-4,-53,-21,51,-29,-14,9,175,-58,-126,87
43,-14,-58,-14,51,-36,-14,9,175,-63,-131,92
43,-14,-58,-14,51,-36,-9,14,170,-63,-131,92
39,-19,-58,-9,48,-39,-9,19,170,-58,-131,87
34,-24,-58,-4,46,-41,-9,19,170,-58,-136,87
34,-14,-48,-9,41,-31,0,29,175,-53,-146,82
34,-14,-48,-9,41,-31,4,29,175,-53,-146,78
34,-19,-53,-7,43,-36,4,29,175,-53,-146,73
34,-19,-53,-7,43,-36,4,29,170,-53,-146,68
24,-24,-48,0,36,-36,-4,24,170,-63,-136,68
24,-24,-48,0,36,-36,-4,24,170,-63,-146,68
24,-24,-48,0,36,-36,-4,24,170,-63,-146,63
24,-24,-48,0,36,-36,0,24,170,-68,-146,63
34,-29,-63,-2,48,-46,9,34,180,-63,-136,73
29,-29,-58,0,43,-43,9,43,185,-58,-136,73
29,-39,-68,4,48,-53,14,48,195,-48,-136,73
24,-39,-63,7,43,-51,14,48,200,-39,-136,68
34,-24,-58,-4,46,-41,14,48,209,-48,-151,68
43,-14,-58,-14,51,-36,4,48,229,-14,-141,78
48,-14,-63,-17,56,-39,-9,34,273,39,-107,82
53,-4,-58,-24,56,-31,-9,34,331,92,-87,87
43,9,-34,-26,39,-12,-14,34,405,156,-68,97
43,29,-14,-36,29,7,-24,24,512,234,-43,97
48,68,19,-58,14,43,-24,29,663,341,-9,107
58,122,63,-90,-2,92,-14,63,844,463,43,117
43,161,117,-102,-36,139,0,92,1034,610,82,117
43,214,170,-129,-63,192,14,107,1137,761,112,131
43,248,204,-146,-80,226,29,107,1146,873,131,146
29,263,234,-146,-102,248,43,117,1044,917,151,161
39,268,229,-153,-95,248,34,102,810,902,180,175
43,273,229,-158,-92,251,-4,-9,414,844,229,209
58,297,239,-178,-90,268,-78,-165,-58,751,312,273
97,346,248,-222,-75,297,-170,-273,-395,697,444,361
151,429,278,-290,-63,353,-278,-380,-590,727,629,488
214,546,331,-380,-58,439,-409,-527,-819,800,858,629
278,634,356,-456,-39,495,-566,-707,-1107,893,1098,814
336,692,356,-514,-9,524,-707,-883,-1385,985,1371,1034
390,780,390,-585,0,585,-839,-1107,-1708,1024,1620,1259
434,868,434,-651,0,651,-961,-1351,-2074,976,1815,1449
453,897,444,-675,4,671,-1073,-1576,-2435,849,2000,1595
473,868,395,-671,39,631,-1132,-1693,-2669,766,2244,1776
512,800,287,-656,112,544,-1171,-1703,-2752,751,2547,1971
546,707,161,-627,192,434,-1195,-1664,-2703,819,2845,2156
585,614,29,-600,278,322,-1205,-1625,-2576,927,3098,2308
590,492,-97,-541,344,197,-1171,-1551,-2415,971,3254,2396
580,375,-204,-478,392,85,-1102,-1439,-2244,946,3333,2435
585,283,-302,-434,444,-9,-1054,-1312,-2069,956,3420,2479
595,175,-419,-385,507,-122,-995,-1195,-1859,990,3474,2503
595,58,-536,-326,566,-239,-912,-1054,-1600,1049,3464,2493
580,-48,-629,-265,605,-339,-819,-907,-1342,1098,3420,2440
546,-156,-702,-195,624,-429,-712,-775,-1127,1063,3269,2303
517,-253,-771,-131,644,-512,-619,-673,-951,878,2923,2083
478,-336,-814,-70,646,-575,-551,-600,-819,527,2440,1825
414,-414,-829,0,622,-622,-473,-546,-697,200,1956,1537
356,-458,-814,51,585,-636,-385,-488,-570,82,1571,1263
278,-458,-736,90,507,-597,-317,-429,-473,14,1210,1010
190,-444,-634,126,412,-539,-253,-366,-429,-190,722,697
126,-405,-531,139,329,-468,-180,-312,-409,-395,239,380
82,-370,-453,143,268,-412,-136,-278,-400,-497,-97,146
53,-361,-414,153,234,-387,-107,-248,-361,-541,-283,19
53,-346,-400,146,226,-373,-82,-219,-322,-551,-351,-19
53,-317,-370,131,212,-344,-63,-200,-278,-512,-341,-24
53,-283,-336,114,195,-309,-68,-175,-234,-458,-331,-14
53,-253,-307,100,180,-280,-58,-151,-195,-424,-341,-24
39,-219,-258,90,148,-239,-48,-126,-161,-390,-331,-39
24,-195,-219,85,122,-207,-34,-102,-126,-361,-326,-39
24,-180,-204,78,114,-192,-19,-87,-82,-341,-331,-53
14,-161,-175,73,95,-168,-4,-68,-58,-326,-331,-68
19,-141,-161,61,90,-151,14,-58,-34,-312,-302,-53
9,-122,-131,56,70,-126,14,-43,0,-283,-297,-43
-4,-102,-97,53,46,-100,34,-9,39,-244,-307,-43
-4,-92,-87,48,41,-90,43,14,73,-200,-307,-43
-14,-78,-63,46,24,-70,43,39,102,-170,-297,-48
-14,-73,-58,43,21,-65,53,43,117,-156,-292,-48
-24,-73,-48,48,12,-61,68,48,136,-151,-273,-34
-24,-63,-39,43,7,-51,78,48,151,-151,-248,-29
-19,-58,-39,39,9,-48,78,48,151,-156,-244,-14
-19,-58,-39,39,9,-48,78,48,151,-165,-248,-24
-24,-58,-34,41,4,-46,78,58,161,-165,-248,-34
-19,-58,-39,39,9,-48,68,53,156,-156,-258,-39
-19,-58,-39,39,9,-48,73,63,170,-131,-258,-39
-19,-58,-39,39,9,-48,73,68,180,-117,-258,-39
-19,-58,-39,39,9,-48,78,78,185,-102,-253,-34
-14,-58,-43,36,14,-51,78,78,175,-107,-244,-24
-14,-58,-43,36,14,-51,78,68,175,-122,-239,-19
-14,-58,-43,36,14,-51,78,68,170,-131,-239,-19
-14,-53,-39,34,12,-46,78,68,170,-136,-239,-24
-14,-53,-39,34,12,-46,87,78,180,-131,-248,-29
-14,-53,-39,34,12,-46,87,82,190,-122,-253,-34
-19,-53,-34,36,7,-43,87,82,195,-112,-258,-34
-19,-53,-34,36,7,-43,87,82,195,-102,-263,-29
-19,-53,-34,36,7,-43,87,92,195,-107,-248,-29
-14,-48,-34,31,9,-41,87,87,200,-107,-248,-24
-14,-48,-34,31,9,-41,87,87,200,-107,-248,-24
-14,-48,-34,31,9,-41,87,87,200,-112,-248,-24
-14,-43,-29,29,7,-36,78,82,204,-112,-244,-34
-14,-43,-29,29,7,-36,78,82,204,-107,-244,-34
-14,-43,-29,29,7,-36,78,82,209,-102,-244,-34
-9,-43,-34,26,12,-39,78,87,214,-97,-244,-34
-19,-43,-24,31,2,-34,92,87,214,-97,-239,-19
-19,-39,-19,29,0,-29,92,87,214,-97,-239,-19
-19,-39,-19,29,0,-29,92,87,214,-97,-239,-19
-19,-39,-19,29,0,-29,92,87,214,-97,-239,-19
-9,-34,-24,21,7,-29,92,87,219,-97,-248,-24
-9,-34,-24,21,7,-29,92,87,224,-92,-248,-24
-9,-29,-19,19,4,-24,92,87,229,-92,-248,-24
-9,-29,-19,19,4,-24,92,92,234,-92,-248,-19
-9,-19,-9,14,0,-14,92,82,224,-87,-239,-29
-9,-14,-4,12,-2,-9,92,82,224,-87,-239,-29
-4,-9,-4,7,0,-7,92,87,224,-87,-239,-29
-4,-9,-4,7,0,-7,92,87,224,-87,-239,-29
-4,-9,-4,7,0,-7,92,87,229,-87,-239,-34
-4,-9,-4,7,0,-7,92,87,234,-87,-239,-34
-4,-9,-4,7,0,-7,92,87,234,-78,-239,-34
-4,-9,-4,7,0,-7,92,87,244,-78,-239,-34
-4,-9,-4,7,0,-7,92,97,248,-73,-234,-43
-4,-4,0,4,-2,-2,92,97,248,-73,-234,-39
-4,-4,0,4,-2,-2,92,97,248,-73,-234,-39
-4,-4,0,4,-2,-2,92,102,248,-68,-229,-39
-14,-14,0,14,-7,-7,92,92,253,-68,-239,-39
-14,-14,0,14,-7,-7,97,92,258,-63,-239,-39
-14,-14,0,14,-7,-7,97,92,258,-63,-239,-39
-14,-14,0,14,-7,-7,97,97,268,-63,-239,-39
-14,-24,-9,19,-2,-17,97,97,273,-68,-229,-39
-14,-19,-4,17,-4,-12,97,97,278,-68,-224,-39
-14,-19,-4,17,-4,-12,97,102,278,-58,-224,-34
-9,-14,-4,12,-2,-9,97,102,287,-53,-224,-34
0,-4,-4,2,2,-4,102,117,292,-48,-219,-34
0,-4,-4,2,2,-4,102,117,297,-48,-219,-29
0,0,0,0,0,0,102,117,302,-48,-214,-29
0,0,0,0,0,0,102,122,307,-48,-214,-29
-9,4,14,2,-12,9,102,112,302,-43,-214,-39
-9,4,14,2,-12,9,107,117,307,-34,-209,-34
-9,9,19,0,-14,14,107,117,312,-29,-209,-34
-9,9,19,0,-14,14,107,122,326,-24,-204,-34
0,9,9,-4,-4,9,107,126,336,-19,-204,-34
0,14,14,-7,-7,14,112,131,346,-14,-204,-39
0,14,14,-7,-7,14,112,131,351,-14,-200,-14
0,14,14,-7,-7,14,112,136,356,-14,-200,-9
0,14,14,-7,-7,14,107,136,361,-4,-190,-19
0,14,14,-7,-7,14,112,136,370,-4,-185,-14
0,19,19,-9,-9,19,112,136,380,0,-185,-14
0,19,19,-9,-9,19,112,141,385,4,-180,-4
9,29,19,-19,-4,24,122,141,390,9,-180,4
9,34,24,-21,-7,29,122,146,400,9,-175,0
9,34,24,-21,-7,29,126,146,405,9,-175,0
9,34,24,-21,-7,29,126,151,409,19,-175,0
4,29,24,-17,-9,26,131,161,419,19,-170,-4
0,29,29,-14,-14,29,131,161,424,29,-170,-4
-4,29,34,-12,-19,31,131,161,439,29,-170,-9
-9,34,43,-12,-26,39,131,165,444,29,-165,-9
-4,34,39,-14,-21,36,131,165,444,43,-165,-4
-4,34,39,-14,-21,36,136,170,448,48,-161,-4
0,39,39,-19,-19,39,136,170,453,48,-161,0
4,39,34,-21,-14,36,136,175,458,48,-156,4
4,48,43,-26,-19,46,136,185,468,53,-156,14
4,48,43,-26,-19,46,136,190,473,53,-156,14
4,53,48,-29,-21,51,136,190,473,53,-151,19
4,53,48,-29,-21,51,136,190,473,53,-151,19
14,53,39,-34,-12,46,136,180,478,43,-141,29
14,53,39,-34,-12,46,136,180,478,43,-136,29
19,53,34,-36,-7,43,136,180,478,43,-136,29
19,58,39,-39,-9,48,136,185,483,39,-136,34
4,48,43,-26,-19,46,136,185,473,34,-136,34
4,48,43,-26,-19,46,136,185,468,29,-136,29
4,48,43,-26,-19,46,136,185,468,24,-136,24
4,43,39,-24,-17,41,131,185,458,19,-141,19
-4,34,39,-14,-21,36,112,175,453,4,-151,19
-4,34,39,-14,-21,36,122,170,453,0,-156,19
-4,34,39,-14,-21,36,122,170,448,-4,-161,19
-4,34,39,-14,-21,36,122,170,444,-14,-165,19
-4,43,48,-19,-26,46,126,165,429,-9,-175,19
-4,43,48,-19,-26,46,126,165,429,-14,-180,14
-4,43,48,-19,-26,46,126,165,424,-19,-185,9
-4,43,48,-19,-26,46,126,161,419,-29,-190,9
4,43,39,-24,-17,41,112,156,395,-48,-180,9
4,43,39,-24,-17,41,107,156,390,-53,-185,9
4,43,39,-24,-17,41,107,151,380,-63,-190,0
4,39,34,-21,-14,36,107,151,370,-68,-195,0
4,48,43,-26,-19,46,107,151,370,-68,-209,-14
4,48,43,-26,-19,46,102,141,366,-68,-214,-14
4,48,43,-26,-19,46,102,136,356,-82,-219,-9
4,48,43,-26,-19,46,97,131,346,-87,-224,-9
-4,39,43,-17,-24,41,92,131,326,-107,-219,-9
-4,39,43,-17,-24,41,87,126,312,-112,-224,-9
-4,39,43,-17,-24,41,82,122,302,-122,-229,-19
-4,34,39,-14,-21,36,82,117,287,-131,-234,-24
4,34,29,-19,-12,31,78,112,283,-131,-234,-29
4,34,29,-19,-12,31,78,107,268,-136,-244,-29
4,34,29,-19,-12,31,73,102,258,-141,-244,-29
4,34,29,-19,-12,31,68,97,248,-141,-244,-29
4,34,29,-19,-12,31,68,92,239,-141,-258,-29
4,34,29,-19,-12,31,63,87,229,-151,-258,-29
4,34,29,-19,-12,31,58,82,219,-151,-258,-29
4,34,29,-19,-12,31,58,78,209,-146,-258,-29
14,34,19,-24,-2,26,53,63,190,-151,-258,-24
14,34,19,-24,-2,26,48,58,180,-151,-253,-24
14,34,19,-24,-2,26,48,53,170,-156,-253,-24
14,34,19,-24,-2,26,43,48,161,-156,-253,-19
9,24,14,-17,-2,19,34,53,165,-156,-244,-19
9,24,14,-17,-2,19,29,53,156,-156,-239,-19
14,24,9,-19,2,17,29,48,151,-156,-239,-14
14,19,4,-17,4,12,29,43,141,-156,-244,-14
24,19,-4,-21,14,7,29,43,131,-151,-253,-19
24,19,-4,-21,14,7,19,39,126,-151,-244,-24
24,19,-4,-21,14,7,19,34,122,-151,-244,-29
24,19,-4,-21,14,7,19,34,112,-151,-244,-34
24,14,-9,-19,17,2,19,24,107,-156,-244,-34
24,14,-9,-19,17,2,19,24,102,-156,-244,-29
29,14,-14,-21,21,0,14,19,102,-156,-234,-29
29,14,-14,-21,21,0,14,19,97,-156,-234,-29
39,9,-29,-24,34,-9,14,29,97,-151,-234,-24
39,9,-29,-24,34,-9,14,29,92,-151,-229,-14
39,9,-29,-24,34,-9,14,24,87,-151,-229,-9
39,9,-29,-24,34,-9,9,24,87,-151,-224,-4
39,14,-24,-26,31,-4,9,24,87,-136,-224,-19
39,14,-24,-26,31,-4,9,24,87,-136,-224,-19
43,14,-29,-29,36,-7,9,24,87,-136,-224,-24
43,19,-24,-31,34,-2,9,24,87,-136,-219,-34
29,19,-9,-24,19,4,9,19,73,-146,-229,-43
24,14,-9,-19,17,2,9,19,73,-146,-229,-43
24,14,-9,-19,17,2,9,19,73,-141,-229,-43
24,14,-9,-19,17,2,9,19,73,-141,-224,-43
24,9,-14,-17,19,-2,0,19,73,-151,-234,-34
24,4,-19,-14,21,-7,0,19,73,-151,-239,-29
24,0,-24,-12,24,-12,0,19,73,-151,-239,-24
24,-9,-34,-7,29,-21,0,19,73,-151,-244,-19
24,0,-24,-12,24,-12,0,19,73,-151,-239,-9
24,0,-24,-12,24,-12,0,19,73,-151,-234,-9
29,0,-29,-14,29,-14,0,19,78,-151,-234,-14
29,-4,-34,-12,31,-19,0,19,78,-156,-229,-14
24,0,-24,-12,24,-12,0,29,78,-156,-229,-29
24,0,-24,-12,24,-12,0,29,73,-156,-229,-34
24,0,-24,-12,24,-12,0,34,73,-156,-234,-43
24,-4,-29,-9,26,-17,4,34,78,-156,-234,-48
34,-4,-39,-14,36,-21,-4,24,68,-165,-239,-43
34,-4,-39,-14,36,-21,-4,29,68,-165,-244,-39
39,-4,-43,-17,41,-24,-4,29,73,-165,-248,-34
39,-4,-43,-17,41,-24,-4,29,73,-170,-253,-34
29,-4,-34,-12,31,-19,4,29,73,-161,-248,-48
29,-4,-34,-12,31,-19,4,29,73,-161,-248,-58
29,-4,-34,-12,31,-19,4,24,73,-161,-253,-63
29,-4,-34,-12,31,-19,9,24,73,-161,-253,-73
39,-4,-43,-17,41,-24,9,24,82,-161,-268,-68
39,-4,-43,-17,41,-24,9,29,82,-161,-268,-63
34,-4,-39,-14,36,-21,9,29,87,-156,-273,-58
34,-4,-39,-14,36,-21,9,29,87,-156,-283,-53
14,-4,-19,-4,17,-12,9,39,78,-156,-283,-63
14,-4,-19,-4,17,-12,9,39,78,-156,-278,-63
14,-4,-19,-4,17,-12,9,39,78,-156,-273,-63
14,-4,-19,-4,17,-12,9,39,82,-156,-263,-63
14,-4,-19,-4,17,-12,9,29,82,-156,-273,-63
14,-4,-19,-4,17,-12,9,29,82,-156,-278,-63
14,-4,-19,-4,17,-12,9,29,82,-156,-278,-68
14,-4,-19,-4,17,-12,4,29,78,-151,-283,-68
14,-4,-19,-4,17,-12,14,29,73,-161,-287,-82
14,-4,-19,-4,17,-12,14,29,73,-161,-287,-82
14,-4,-19,-4,17,-12,14,29,78,-161,-287,-82
9,-4,-14,-2,12,-9,14,29,78,-156,-287,-82
9,-4,-14,-2,12,-9,19,39,78,-141,-278,-82
9,0,-9,-4,9,-4,19,39,82,-141,-278,-82
9,0,-9,-4,9,-4,19,39,82,-141,-278,-82
9,0,-9,-4,9,-4,19,39,78,-141,-273,-82
9,0,-9,-4,9,-4,14,39,58,-136,-278,-82
9,0,-9,-4,9,-4,14,39,68,-136,-268,-82
14,0,-14,-7,14,-7,14,39,68,-136,-263,-78
14,0,-14,-7,14,-7,9,39,68,-131,-253,-78
14,0,-14,-7,14,-7,19,34,68,-131,-258,-87
14,4,-9,-9,12,-2,19,34,63,-126,-253,-78
14,4,-9,-9,12,-2,19,34,63,-126,-248,-78
14,4,-9,-9,12,-2,19,34,63,-126,-248,-73
19,4,-14,-12,17,-4,9,34,53,-131,-248,-73
19,9,-9,-14,14,0,9,34,58,-131,-244,-63
19,9,-9,-14,14,0,9,34,58,-126,-239,-58
19,9,-9,-14,14,0,9,34,53,-126,-234,-58
24,19,-4,-21,14,7,9,24,53,-117,-224,-53
34,19,-14,-26,24,2,9,24,53,-112,-219,-53
24,19,-4,-21,14,7,9,24,53,-107,-214,-48
24,19,-4,-21,14,7,9,24,53,-107,-209,-48
24,14,-9,-19,17,2,19,43,68,-97,-185,-39
19,19,0,-19,9,9,19,39,68,-97,-175,-29
29,19,-9,-24,19,4,19,29,58,-87,-185,-19
29,19,-9,-24,19,4,19,29,58,-87,-185,-19
29,19,-9,-24,19,4,19,29,58,-87,-185,-19
29,19,-9,-24,19,4,19,29,58,-87,-185,-19
29,24,-4,-26,17,9,9,29,63,-87,-175,-14
29,34,4,-31,12,19,9,29,63,-82,-170,-9
29,39,9,-34,9,24,9,34,73,-73,-156,-4
29,43,14,-36,7,29,9,34,73,-68,-146,4
43,43,0,-43,21,21,14,34,73,-63,-141,9
43,48,4,-46,19,26,14,34,78,-58,-131,9
53,53,0,-53,26,26,14,39,82,-53,-126,19
53,58,4,-56,24,31,14,39,92,-48,-126,24
53,78,24,-65,14,51,14,43,97,-43,-112,34
53,82,29,-68,12,56,14,43,102,-39,-107,43
58,87,29,-73,14,58,14,48,102,-39,-97,43
58,92,34,-75,12,63,14,48,102,-34,-92,43
53,82,29,-68,12,56,9,58,107,-24,-92,43
53,82,29,-68,12,56,9,58,107,-19,-92,43
58,92,34,-75,12,63,9,58,112,-19,-87,48
58,97,39,-78,9,68,9,68,112,-19,-82,48
68,97,29,-82,19,63,0,73,122,-24,-87,43
73,97,24,-85,24,61,0,78,122,-19,-87,43
73,97,24,-85,24,61,0,82,122,-19,-87,43
73,97,24,-85,24,61,-9,82,117,-19,-87,43
87,117,29,-102,29,73,-9,63,117,-19,-78,43
87,131,43,-109,21,87,-14,58,117,-19,-78,43
87,146,58,-117,14,102,-19,43,122,-9,-73,53
92,156,63,-124,14,109,-19,29,122,-4,-63,53
82,165,82,-124,0,124,-34,4,117,0,-73,63
87,180,92,-134,-2,136,-48,-9,117,4,-63,68
87,190,102,-139,-7,146,-58,-19,117,9,-58,73
92,200,107,-146,-7,153,-78,-34,117,14,-53,78
102,200,97,-151,2,148,-82,-34,117,4,-39,78
102,200,97,-151,2,148,-97,-34,117,4,-34,82
107,200,92,-153,7,146,-97,-34,112,0,-34,82
112,200,87,-156,12,143,-102,-34,107,-4,-43,82
102,190,87,-146,7,139,-112,-48,92,-19,-58,73
102,185,82,-143,9,134,-117,-58,73,-29,-73,68
102,180,78,-141,12,129,-117,-63,68,-39,-73,63
102,170,68,-136,17,119,-112,-63,68,-39,-78,63
102,151,48,-126,26,100,-92,-53,68,-34,-92,53
97,136,39,-117,29,87,-87,-53,73,-39,-97,53
97,126,29,-112,34,78,-87,-48,73,-43,-97,58
97,122,24,-109,36,73,-87,-48,73,-43,-97,58
97,131,34,-114,31,82,-87,-39,82,-34,-82,63
97,136,39,-117,29,87,-87,-29,97,-24,-68,73
107,136,29,-122,39,82,-87,-24,102,-19,-63,82
107,136,29,-122,39,82,-82,-24,107,-14,-63,82
107,126,19,-117,43,73,-78,-34,107,-24,-63,68
107,122,14,-114,46,68,-78,-29,107,-24,-73,63
102,112,9,-107,46,61,-78,-29,102,-39,-73,53
97,102,4,-100,46,53,-73,-29,97,-53,-87,48
82,68,-14,-75,48,26,-63,-29,102,-53,-97,48
73,48,-24,-61,48,12,-58,-19,102,-58,-107,39
73,39,-34,-56,53,2,-48,-14,102,-58,-112,34
58,34,-24,-46,41,4,-39,-4,102,-58,-112,34
58,34,-24,-46,41,4,-43,-9,92,-73,-126,19
58,39,-19,-48,39,9,-39,-4,92,-73,-136,4
43,39,-4,-41,24,17,-34,-4,92,-73,-141,-4
34,39,4,-36,14,21,-24,-4,87,-78,-141,-9
34,24,-9,-29,21,7,-19,0,87,-78,-146,-9
29,19,-9,-24,19,4,-19,4,87,-78,-151,-14
29,4,-24,-17,26,-9,-14,14,87,-87,-156,-19
34,-4,-39,-14,36,-21,-14,19,87,-92,-161,-24
34,-4,-39,-14,36,-21,-9,14,82,-92,-161,-24
29,-9,-39,-9,34,-24,-9,19,82,-87,-161,-29
24,-14,-39,-4,31,-26,-9,19,82,-87,-165,-29
24,-14,-39,-4,31,-26,-9,29,87,-92,-165,-29
24,-14,-39,-4,31,-26,-4,19,87,-92,-165,-24
24,-19,-43,-2,34,-31,-4,19,87,-92,-165,-19
24,-19,-43,-2,34,-31,-4,19,82,-92,-165,-14
24,-24,-48,0,36,-36,-4,14,82,-92,-165,-9
14,-24,-39,4,26,-31,-4,24,92,-92,-165,-29
14,-24,-39,4,26,-31,-4,24,92,-92,-165,-43
14,-24,-39,4,26,-31,0,24,92,-97,-165,-53
14,-29,-43,7,29,-36,0,24,92,-97,-165,-63
0,-19,-19,9,9,-19,9,34,97,-97,-175,-34
-9,-29,-19,19,4,-24,14,39,97,-92,-185,-24
-4,-29,-24,17,9,-26,14,48,112,-87,-185,-29
4,-24,-29,9,17,-26,4,39,131,-87,-180,-19
4,-24,-29,9,17,-26,-14,29,161,-53,-161,-9
9,-14,-24,2,17,-19,-29,14,214,0,-136,14
14,-14,-29,0,21,-21,-39,14,273,53,-117,19
24,9,-14,-17,19,-2,-34,14,366,126,-78,19
24,39,14,-31,4,26,-34,4,492,224,-43,29
29,87,58,-58,-14,73,-43,19,653,331,-19,19
29,141,112,-85,-41,126,-24,63,844,444,14,19
34,180,146,-107,-56,163,9,102,1015,590,34,19
24,224,200,-124,-87,212,24,107,1107,732,53,24
34,248,214,-141,-90,231,29,97,1078,824,82,39
39,253,214,-146,-87,234,34,97,946,839,112,53
39,258,219,-148,-90,239,14,63,673,805,151,58
43,273,229,-158,-92,251,-24,-58,248,756,209,102
68,297,229,-183,-80,263,-97,-224,-214,683,302,175
107,356,248,-231,-70,302,-190,-331,-531,649,453,292
170,439,268,-305,-48,353,-297,-429,-736,707,649,448
234,536,302,-385,-34,419,-448,-605,-976,780,868,629
297,614,317,-456,-9,466,-605,-795,-1273,873,1117,814
366,683,317,-524,24,500,-756,-990,-1561,966,1400,1024
409,761,351,-585,29,556,-888,-1234,-1893,985,1668,1229
453,839,385,-646,34,612,-1019,-1498,-2259,917,1873,1400
492,868,375,-680,58,622,-1112,-1712,-2601,829,2078,1576
512,839,326,-675,92,583,-1180,-1800,-2806,775,2342,1756
551,761,209,-656,170,485,-1210,-1800,-2849,790,2635,1971
595,678,82,-636,256,380,-1234,-1751,-2781,878,2932,2156
605,585,-19,-595,312,283,-1244,-1703,-2654,956,3167,2278
619,473,-146,-546,383,163,-1200,-1629,-2503,951,3284,2347
610,356,-253,-483,431,51,-1151,-1507,-2342,927,3352,2376
614,253,-361,-434,488,-53,-1102,-1381,-2166,936,3440,2410
634,146,-488,-390,561,-170,-1024,-1244,-1937,980,3484,2444
624,29,-595,-326,610,-283,-932,-1093,-1649,1039,3464,2425
610,-68,-678,-270,644,-373,-829,-927,-1390,1098,3391,2352
585,-175,-761,-204,673,-468,-722,-795,-1176,1034,3172,2196
536,-273,-810,-131,673,-541,-639,-702,-1010,780,2766,1956
488,-346,-834,-70,661,-590,-551,-629,-868,380,2264,1659
434,-405,-839,-14,636,-622,-473,-575,-756,82,1800,1361
356,-448,-805,46,580,-627,-395,-517,-629,-4,1434,1078
297,-448,-746,75,522,-597,-326,-468,-541,-92,1054,814
209,-414,-624,102,417,-519,-253,-405,-507,-297,556,502
126,-385,-512,129,319,-448,-180,-341,-488,-463,102,214
92,-341,-434,124,263,-387,-136,-307,-468,-536,-185,19
82,-331,-414,124,248,-373,-117,-268,-439,-580,-341,-87
82,-317,-400,117,241,-358,-92,-239,-400,-590,-400,-136
82,-287,-370,102,226,-329,-82,-219,-356,-541,-390,-131
73,-263,-336,95,204,-300,-87,-195,-312,-497,-380,-141
63,-244,-307,90,185,-275,-68,-170,-273,-463,-380,-151
48,-219,-268,85,158,-244,-58,-146,-219,-419,-380,-146
34,-204,-239,85,136,-222,-43,-131,-175,-400,-375,-156
24,-180,-204,78,114,-192,-19,-107,-141,-370,-361,-151
14,-151,-165,68,90,-158,-14,-87,-117,-356,-361,-156
19,-112,-131,46,75,-122,-4,-78,-92,-351,-361,-170
19,-92,-112,36,65,-102,-4,-53,-58,-322,-346,-161
4,-82,-87,39,46,-85,14,-19,-19,-283,-346,-161
-4,-73,-68,39,31,-70,24,-4,14,-248,-336,-170
4,-58,-63,26,34,-61,34,9,43,-219,-317,-156
4,-53,-58,24,31,-56,43,24,68,-195,-302,-146
14,-43,-58,14,36,-51,48,29,68,-190,-292,-141
14,-34,-48,9,31,-41,58,39,82,-190,-283,-136
19,-29,-48,4,34,-39,58,39,82,-195,-283,-122
19,-29,-48,4,34,-39,58,39,82,-204,-292,-131
14,-29,-43,7,29,-36,58,48,92,-204,-297,-141
0,-29,-29,14,14,-29,58,53,97,-190,-297,-156
0,-29,-29,14,14,-29,63,63,112,-170,-297,-156
0,-29,-29,14,14,-29,63,68,122,-161,-297,-156
0,-29,-29,14,14,-29,68,78,126,-151,-292,-151
14,-29,-43,7,29,-36,68,78,126,-151,-302,-146
14,-29,-43,7,29,-36,68,68,126,-161,-297,-136
14,-29,-43,7,29,-36,68,68,122,-165,-297,-131
14,-24,-39,4,26,-31,68,68,122,-165,-297,-131
4,-34,-39,14,21,-36,78,68,122,-165,-297,-136
4,-34,-39,14,21,-36,78,73,131,-161,-292,-141
0,-34,-34,17,17,-34,78,73,136,-156,-287,-141
0,-34,-34,17,17,-34,78,73,136,-151,-283,-136
9,-24,-34,7,21,-29,68,73,136,-156,-287,-146
14,-19,-34,2,24,-26,68,68,141,-156,-287,-141
14,-19,-34,2,24,-26,68,68,141,-156,-287,-141
14,-19,-34,2,24,-26,68,68,141,-161,-287,-141
4,-14,-19,4,12,-17,78,73,146,-151,-292,-141
4,-14,-19,4,12,-17,78,73,146,-146,-292,-141
4,-14,-19,4,12,-17,78,73,151,-141,-292,-141
9,-14,-24,2,17,-19,78,78,156,-136,-292,-141
19,-4,-24,-7,21,-14,73,78,156,-146,-278,-146
19,0,-19,-9,19,-9,73,78,156,-146,-278,-146
19,0,-19,-9,19,-9,73,78,156,-146,-278,-146
19,0,-19,-9,19,-9,73,78,156,-146,-278,-146
9,-4,-14,-2,12,-9,73,68,161,-146,-287,-151
9,-4,-14,-2,12,-9,73,68,165,-141,-287,-151
9,0,-9,-4,9,-4,73,68,170,-141,-287,-151
9,0,-9,-4,9,-4,73,73,175,-141,-287,-146
9,-9,-19,0,14,-14,73,73,175,-136,-278,-146
9,-4,-14,-2,12,-9,73,73,175,-136,-278,-146
14,0,-14,-7,14,-7,73,78,175,-136,-278,-146
14,0,-14,-7,14,-7,73,78,175,-136,-278,-146
14,9,-4,-12,9,2,82,78,180,-136,-287,-151
14,9,-4,-12,9,2,82,78,185,-136,-287,-151
14,9,-4,-12,9,2,82,78,185,-126,-287,-151
14,9,-4,-12,9,2,82,78,195,-126,-287,-151
24,0,-24,-12,24,-12,73,78,200,-131,-283,-151
24,4,-19,-14,21,-7,73,78,200,-131,-283,-146
24,4,-19,-14,21,-7,73,78,200,-131,-283,-146
24,4,-19,-14,21,-7,73,82,200,-126,-278,-146
24,14,-9,-19,17,2,73,73,195,-117,-278,-156
24,14,-9,-19,17,2,78,73,200,-112,-278,-156
24,14,-9,-19,17,2,78,73,200,-112,-278,-156
24,14,-9,-19,17,2,78,78,209,-112,-278,-156
19,14,-4,-17,12,4,68,78,224,-107,-278,-165
14,19,4,-17,4,12,68,78,229,-107,-273,-165
9,19,9,-14,0,14,68,82,229,-97,-273,-161
9,24,14,-17,-2,19,68,82,239,-92,-273,-161
9,24,14,-17,-2,19,73,87,234,-97,-258,-151
9,24,14,-17,-2,19,73,87,239,-97,-258,-146
9,29,19,-19,-4,24,73,87,244,-97,-253,-146
9,29,19,-19,-4,24,73,92,248,-97,-253,-146
9,34,24,-21,-7,29,73,82,263,-92,-258,-146
9,34,24,-21,-7,29,78,87,268,-82,-258,-141
9,39,29,-24,-9,34,78,87,273,-78,-263,-141
9,39,29,-24,-9,34,78,92,287,-73,-263,-141
9,39,29,-24,-9,34,87,97,287,-58,-253,-136
9,43,34,-26,-12,39,92,102,297,-53,-253,-146
9,43,34,-26,-12,39,92,102,302,-53,-248,-126
9,43,34,-26,-12,39,92,107,307,-53,-248,-126
19,53,34,-36,-7,43,92,117,312,-43,-248,-131
19,53,34,-36,-7,43,92,117,322,-43,-244,-131
19,58,39,-39,-9,48,87,117,331,-39,-244,-136
19,58,39,-39,-9,48,82,122,336,-34,-239,-131
14,48,34,-31,-9,41,92,122,341,-39,-248,-122
9,53,43,-31,-17,48,92,126,351,-39,-244,-126
4,53,48,-29,-21,51,97,126,356,-39,-244,-126
0,53,53,-26,-26,53,97,131,361,-29,-244,-126
-14,43,58,-14,-36,51,92,131,361,-39,-239,-131
-19,39,58,-9,-39,48,92,131,366,-29,-239,-131
-24,34,58,-4,-41,46,92,131,380,-29,-239,-136
-29,34,63,-2,-46,48,92,136,385,-29,-234,-136
-19,34,53,-7,-36,43,92,136,395,-14,-234,-122
-24,34,58,-4,-41,46,97,141,400,-9,-229,-122
-24,39,63,-7,-43,51,97,141,405,-9,-229,-117
-24,39,63,-7,-43,51,97,146,409,-9,-224,-112
-24,48,73,-12,-48,61,97,146,419,-4,-214,-122
-24,48,73,-12,-48,61,97,151,424,-4,-214,-122
-24,53,78,-14,-51,65,97,151,424,-4,-209,-117
-24,53,78,-14,-51,65,97,151,424,-4,-209,-117
-19,53,73,-17,-46,63,97,151,429,-4,-200,-117
-14,53,68,-19,-41,61,97,151,429,-4,-195,-117
-4,53,58,-24,-31,56,97,151,429,-4,-195,-117
0,58,58,-29,-29,58,97,156,434,-9,-195,-112
-14,58,73,-21,-43,65,97,146,424,-14,-204,-107
-14,58,73,-21,-43,65,97,146,419,-19,-204,-107
-14,58,73,-21,-43,65,97,146,419,-24,-204,-107
-14,53,68,-19,-41,61,92,146,409,-29,-209,-107
-4,53,58,-24,-31,56,82,146,405,-34,-214,-97
-4,53,58,-24,-31,56,92,141,405,-39,-214,-97
-4,53,58,-24,-31,56,92,141,400,-43,-214,-97
-4,53,58,-24,-31,56,92,141,395,-53,-214,-97
-4,63,68,-29,-36,65,78,126,380,-68,-224,-102
-4,63,68,-29,-36,65,78,126,380,-73,-229,-112
-4,63,68,-29,-36,65,78,126,375,-78,-234,-122
-4,63,68,-29,-36,65,78,122,370,-87,-239,-126
4,63,58,-34,-26,61,82,126,346,-87,-239,-117
4,63,58,-34,-26,61,78,126,341,-92,-244,-117
4,63,58,-34,-26,61,78,122,331,-102,-248,-126
4,58,53,-31,-24,56,78,122,322,-107,-253,-126
-4,58,63,-26,-34,61,78,122,312,-117,-258,-131
-4,58,63,-26,-34,61,73,112,307,-117,-263,-131
-4,58,63,-26,-34,61,73,107,297,-131,-268,-126
-4,58,63,-26,-34,61,68,102,287,-136,-273,-126
-14,58,73,-21,-43,65,63,102,278,-146,-268,-117
-14,58,73,-21,-43,65,58,97,263,-151,-273,-117
-14,58,73,-21,-43,65,53,92,253,-161,-278,-126
-14,53,68,-19,-41,61,53,87,239,-170,-283,-131
-29,53,82,-12,-56,68,48,82,244,-161,-273,-141
-34,53,87,-9,-61,70,48,78,229,-165,-283,-146
-39,53,92,-7,-65,73,43,73,219,-170,-283,-151
-43,53,97,-4,-70,75,39,68,209,-170,-283,-156
-43,53,97,-4,-70,75,39,63,200,-180,-297,-151
-43,53,97,-4,-70,75,34,58,190,-190,-297,-146
-43,53,97,-4,-70,75,29,53,180,-190,-297,-141
-43,53,97,-4,-70,75,29,48,170,-185,-297,-136
-43,43,87,0,-65,65,24,43,161,-190,-307,-122
-43,43,87,0,-65,65,19,39,151,-190,-302,-122
-43,43,87,0,-65,65,19,34,141,-195,-302,-122
-43,43,87,0,-65,65,14,29,131,-195,-302,-117
-58,53,112,2,-85,82,14,24,126,-185,-283,-126
-58,53,112,2,-85,82,9,24,117,-185,-278,-126
-53,53,107,0,-80,80,9,19,112,-185,-278,-122
-53,48,102,2,-78,75,9,14,102,-185,-283,-122
-53,39,92,7,-73,65,9,24,102,-180,-283,-122
-53,39,92,7,-73,65,0,19,97,-180,-273,-122
-53,39,92,7,-73,65,0,14,92,-180,-273,-122
-53,39,92,7,-73,65,0,14,82,-180,-273,-122
-63,34,97,14,-80,65,0,4,78,-175,-273,-131
-63,34,97,14,-80,65,0,4,73,-175,-273,-126
-58,34,92,12,-75,63,-4,0,73,-175,-263,-126
-58,34,92,12,-75,63,-4,0,68,-175,-263,-126
-68,29,97,19,-82,63,-14,0,68,-180,-273,-126
-68,29,97,19,-82,63,-14,0,63,-180,-268,-122
-68,29,97,19,-82,63,-14,-4,58,-180,-268,-122
-68,29,97,19,-82,63,-19,-4,58,-180,-263,-122
-68,14,82,26,-75,48,-19,-4,58,-175,-253,-122
-68,14,82,26,-75,48,-19,-4,58,-175,-253,-117
-63,14,78,24,-70,46,-19,-4,58,-175,-253,-117
-63,19,82,21,-73,51,-19,-4,58,-175,-248,-122
-58,29,87,14,-73,58,-9,0,53,-165,-248,-122
-63,24,87,19,-75,56,-9,0,53,-165,-248,-122
-63,24,87,19,-75,56,-9,0,53,-161,-248,-122
-63,24,87,19,-75,56,-9,0,53,-161,-244,-122
-63,24,87,19,-75,56,-9,0,63,-170,-244,-126
-63,24,87,19,-75,56,-9,0,63,-170,-248,-126
-63,24,87,19,-75,56,-9,0,63,-170,-248,-126
-63,19,82,21,-73,51,-9,0,63,-170,-253,-126
-63,19,82,21,-73,51,-9,0,53,-180,-253,-126
-63,19,82,21,-73,51,-9,0,53,-180,-253,-126
-58,19,78,19,-68,48,-9,0,58,-180,-258,-131
-58,14,73,21,-65,43,-9,0,58,-185,-258,-131
-53,9,63,21,-58,36,-9,0,68,-175,-258,-131
-53,9,63,21,-58,36,-9,0,63,-175,-258,-131
-53,9,63,21,-58,36,-9,4,63,-175,-263,-136
-53,4,58,24,-56,31,-4,4,68,-175,-263,-136
-63,14,78,24,-70,46,-4,4,68,-175,-263,-136
-63,14,78,24,-70,46,-4,9,68,-175,-263,-136
-58,14,73,21,-65,43,-4,9,73,-175,-263,-136
-58,14,73,21,-65,43,-4,9,73,-180,-263,-141
-58,14,73,21,-65,43,-14,9,73,-180,-278,-141
-58,14,73,21,-65,43,-14,9,73,-180,-278,-146
-58,14,73,21,-65,43,-14,4,73,-180,-283,-146
-58,14,73,21,-65,43,-9,4,73,-180,-283,-151
-48,14,63,17,-56,39,-19,4,73,-190,-287,-151
-48,14,63,17,-56,39,-19,9,73,-190,-287,-151
-53,14,68,19,-61,41,-19,9,78,-185,-292,-151
-53,14,68,19,-61,41,-19,9,78,-185,-302,-151
-53,14,68,19,-61,41,-9,9,78,-175,-297,-161
-53,14,68,19,-61,41,-9,9,78,-175,-297,-161
-53,14,68,19,-61,41,-9,9,78,-175,-297,-161
-53,14,68,19,-61,41,-9,9,82,-175,-292,-161
-63,14,78,24,-70,46,-9,9,82,-175,-302,-161
-63,14,78,24,-70,46,-9,9,82,-175,-307,-161
-63,14,78,24,-70,46,-9,9,82,-175,-307,-165
-63,14,78,24,-70,46,-14,9,78,-170,-312,-165
-73,24,97,24,-85,61,-14,9,73,-180,-307,-180
-73,24,97,24,-85,61,-14,9,73,-180,-307,-180
-73,24,97,24,-85,61,-14,9,78,-180,-307,-180
-78,24,102,26,-90,63,-14,9,78,-175,-307,-180
-78,24,102,26,-90,63,0,19,78,-161,-297,-170
-78,29,107,24,-92,68,0,19,82,-161,-297,-170
-78,29,107,24,-92,68,0,19,82,-161,-297,-170
-78,29,107,24,-92,68,0,19,78,-161,-292,-170
-87,19,107,34,-97,63,-4,9,68,-156,-297,-175
-87,19,107,34,-97,63,-4,9,78,-156,-287,-180
-82,19,102,31,-92,61,-4,9,78,-156,-283,-180
-82,19,102,31,-92,61,-9,9,78,-151,-273,-185
-82,19,102,31,-92,61,-9,14,87,-151,-273,-180
-82,24,107,29,-95,65,-9,14,82,-146,-273,-165
-82,24,107,29,-95,65,-9,14,82,-146,-273,-161
-82,24,107,29,-95,65,-9,14,82,-146,-278,-151
-78,34,112,21,-95,73,0,14,73,-131,-258,-151
-78,39,117,19,-97,78,0,14,78,-131,-253,-141
-78,39,117,19,-97,78,0,14,78,-126,-248,-136
-78,39,117,19,-97,78,0,14,73,-126,-244,-136
-73,39,112,17,-92,75,0,24,92,-126,-234,-122
-73,39,112,17,-92,75,9,24,92,-122,-229,-122
-73,39,112,17,-92,75,9,24,102,-117,-234,-117
-78,48,126,14,-102,87,0,19,97,-117,-224,-117
-68,39,107,14,-87,73,0,29,97,-107,-209,-112
-68,39,107,14,-87,73,0,29,97,-107,-204,-107
-68,39,107,14,-87,73,0,29,97,-107,-200,-102
-68,39,107,14,-87,73,0,29,97,-107,-195,-97
-58,43,102,7,-80,73,9,29,112,-97,-180,-92
-58,53,112,2,-85,82,9,29,112,-92,-180,-87
-58,58,117,0,-87,87,9,34,122,-82,-170,-82
-58,63,122,-2,-90,92,9,34,122,-78,-165,-73
-63,73,136,-4,-100,104,24,34,112,-73,-146,-58
-63,78,141,-7,-102,109,24,34,117,-68,-131,-58
-53,82,136,-14,-95,109,24,39,122,-63,-122,-48
-53,87,141,-17,-97,114,24,39,131,-58,-117,-43
-43,97,141,-26,-92,119,19,43,136,-53,-112,-43
-43,102,146,-29,-95,124,14,43,141,-48,-117,-34
-39,107,146,-34,-92,126,9,48,141,-48,-117,-34
-39,112,151,-36,-95,131,4,48,141,-43,-122,-34
-39,112,151,-36,-95,131,0,48,156,-34,-112,-24
-43,112,156,-34,-100,134,0,48,156,-29,-112,-24
-43,122,165,-39,-104,143,0,48,161,-29,-107,-19
-48,126,175,-39,-112,151,0,58,161,-29,-102,-19
-43,126,170,-41,-107,148,0,73,170,-24,-87,-4
-34,126,161,-46,-97,143,0,78,170,-19,-87,-4
-29,126,156,-48,-92,141,0,82,170,-19,-87,-4
-24,126,151,-51,-87,139,-9,82,165,-19,-87,-4
-29,146,175,-58,-102,161,-9,63,165,-19,-87,-4
-29,161,190,-65,-109,175,-14,58,165,-19,-87,-4
-29,175,204,-73,-117,190,-19,43,170,-9,-82,4
-24,185,209,-80,-117,197,-19,29,170,-4,-73,4
-14,195,209,-90,-112,202,-34,9,161,-4,-73,14
-9,209,219,-100,-114,214,-48,-9,156,-4,-63,19
-9,219,229,-104,-119,224,-58,-24,151,-4,-58,24
-4,229,234,-112,-119,231,-78,-43,146,-4,-53,29
4,248,244,-126,-119,246,-102,-53,156,-4,-58,24
4,248,244,-126,-119,246,-117,-53,156,-4,-53,24
9,248,239,-129,-114,244,-117,-53,151,-9,-53,19
14,248,234,-131,-109,241,-122,-53,146,-14,-63,14
4,234,229,-119,-112,231,-131,-68,131,-39,-68,4
4,224,219,-114,-107,222,-136,-78,112,-48,-82,0
4,214,209,-109,-102,212,-136,-82,107,-58,-82,-4
4,200,195,-102,-95,197,-131,-82,107,-58,-87,-4
4,190,185,-97,-90,187,-112,-63,107,-58,-92,-4
0,175,175,-87,-87,175,-107,-63,112,-58,-97,-4
0,165,165,-82,-82,165,-107,-58,112,-58,-97,0
0,161,161,-80,-80,161,-107,-58,112,-53,-97,0
4,165,161,-85,-78,163,-107,-48,122,-43,-92,14
9,175,165,-92,-78,170,-107,-39,136,-34,-78,24
24,180,156,-102,-65,168,-107,-34,141,-29,-73,34
29,185,156,-107,-63,170,-102,-34,146,-24,-73,34
29,165,136,-97,-53,151,-97,-43,146,-34,-73,29
29,161,131,-95,-51,146,-97,-39,146,-34,-82,24
24,151,126,-87,-51,139,-97,-39,141,-48,-82,14
19,141,122,-80,-51,131,-92,-39,136,-63,-97,9
4,107,102,-56,-48,104,-73,-34,131,-63,-107,0
-4,87,92,-41,-48,90,-68,-19,131,-68,-117,-9
-4,78,82,-36,-43,80,-58,-9,131,-68,-122,-14
-19,73,92,-26,-56,82,-48,4,131,-68,-122,-14
-19,68,87,-24,-53,78,-43,0,141,-73,-126,-9
-19,68,87,-24,-53,78,-39,4,141,-73,-136,-24
-34,63,97,-14,-65,80,-34,4,141,-73,-141,-34
-43,58,102,-7,-73,80,-24,4,136,-78,-141,-39
-43,63,107,-9,-75,85,-19,14,126,-78,-146,-48
-48,58,107,-4,-78,82,-19,14,126,-78,-151,-53
-48,43,92,2,-70,68,-14,19,126,-87,-156,-58
-43,34,78,4,-61,56,-14,19,126,-92,-161,-63
-43,34,78,4,-61,56,-9,24,131,-92,-161,-63
-48,29,78,9,-63,53,-9,29,131,-87,-161,-68
-53,24,78,14,-65,51,-9,29,131,-87,-165,-68
-53,24,78,14,-65,51,-9,39,136,-92,-165,-68
-53,19,73,17,-63,46,4,29,146,-92,-165,-68
-53,9,63,21,-58,36,4,29,146,-92,-165,-68
-53,4,58,24,-56,31,4,29,141,-92,-165,-68
-53,-4,48,29,-51,21,4,24,141,-92,-165,-68
-63,-4,58,34,-61,26,-4,34,141,-92,-175,-78
-63,-4,58,34,-61,26,-4,34,141,-92,-175,-82
-63,-4,58,34,-61,26,0,34,141,-97,-175,-82
-63,-9,53,36,-58,21,0,34,141,-97,-175,-82
-58,0,58,29,-58,29,9,34,156,-97,-156,-63
-58,0,58,29,-58,29,14,39,156,-92,-156,-73
-53,0,53,26,-53,26,14,48,170,-87,-165,-87
-43,4,48,19,-46,26,14,48,180,-68,-170,-78
-43,4,48,19,-46,26,-4,39,209,-43,-151,-58
-39,4,43,17,-41,24,-29,24,263,9,-117,-43
-34,4,39,14,-36,21,-29,24,331,63,-87,-39
-34,29,63,2,-48,46,-24,14,414,126,-78,-29
-24,68,92,-21,-58,80,-34,4,531,214,-53,-29
-19,117,136,-48,-78,126,-34,9,683,331,-39,-29
-19,151,170,-65,-95,161,-14,43,873,453,-14,-29
-24,200,224,-87,-124,212,9,82,1054,590,24,-29
-34,244,278,-104,-156,261,24,87,1146,732,63,-14
-24,278,302,-126,-163,290,29,87,1137,834,102,-9
-19,273,292,-126,-156,283,34,107,995,858,131,-4
-29,287,317,-129,-173,302,24,73,732,834,151,0
-14,312,326,-148,-170,319,-14,-48,317,775,200,43
9,346,336,-178,-163,341,-87,-204,-146,692,292,126
58,375,317,-217,-129,346,-180,-312,-483,658,434,234
122,458,336,-290,-107,397,-297,-419,-678,707,629,390
175,566,390,-370,-107,478,-448,-585,-927,790,878,580
229,634,405,-431,-87,519,-595,-766,-1224,873,1137,756
287,692,405,-490,-58,549,-736,-951,-1522,966,1410,956
341,790,448,-566,-53,619,-868,-1185,-1854,976,1649,1161
385,888,502,-636,-58,695,-1000,-1449,-2230,907,1854,1332
414,907,492,-661,-39,700,-1102,-1673,-2571,800,2069,1517
444,858,414,-651,14,636,-1171,-1771,-2786,727,2322,1708
483,780,297,-631,92,539,-1210,-1771,-2849,732,2635,1922
527,697,170,-612,178,434,-1244,-1732,-2781,819,2952,2127
536,585,48,-561,244,317,-1234,-1673,-2654,897,3206,2259
551,473,-78,-512,314,197,-1190,-1600,-2503,912,3342,2327
551,366,-185,-458,368,90,-1122,-1468,-2322,888,3411,2357
546,283,-263,-414,405,9,-1073,-1351,-2147,897,3489,2391
566,185,-380,-375,473,-97,-1015,-1224,-1917,941,3533,2425
575,68,-507,-322,541,-219,-922,-1073,-1639,1000,3503,2405
551,-48,-600,-251,575,-324,-819,-917,-1371,1039,3440,2342
517,-165,-683,-175,600,-424,-712,-785,-1156,995,3250,2215
468,-263,-732,-102,600,-497,-629,-692,-980,771,2864,1986
419,-336,-756,-41,588,-546,-551,-619,-839,400,2361,1678
375,-395,-771,9,573,-583,-473,-556,-717,92,1878,1371
297,-439,-736,70,517,-588,-405,-507,-600,-4,1493,1088
229,-429,-658,100,444,-544,-326,-458,-502,-92,1102,814
151,-405,-556,126,353,-480,-253,-385,-448,-297,585,502
68,-366,-434,148,251,-400,-190,-341,-429,-463,122,214
24,-341,-366,158,195,-353,-146,-307,-409,-527,-165,19
14,-322,-336,153,175,-329,-107,-268,-380,-570,-322,-97
4,-297,-302,146,153,-300,-82,-239,-341,-580,-380,-165
14,-258,-273,122,143,-265,-82,-219,-287,-541,-370,-190
14,-234,-248,109,131,-241,-68,-195,-244,-488,-370,-219
4,-204,-209,100,107,-207,-58,-161,-204,-463,-390,-239
9,-161,-170,75,90,-165,-48,-126,-161,-419,-380,-224
-14,-146,-131,80,58,-139,-34,-112,-117,-380,-375,-204
-24,-141,-117,82,46,-129,-19,-97,-73,-361,-370,-190
-24,-131,-107,78,41,-119,-4,-87,-48,-356,-361,-185
-39,-112,-73,75,17,-92,4,-68,-24,-341,-341,-190
-39,-82,-43,61,2,-63,14,-53,0,-312,-346,-190
-53,-63,-9,58,-21,-36,24,-29,29,-273,-346,-200
-73,-43,29,58,-51,-7,24,-4,63,-248,-346,-209
-73,-29,43,51,-58,7,34,19,102,-209,-326,-204
-63,-24,39,43,-51,7,34,24,117,-185,-312,-195
-63,-24,39,43,-51,7,48,29,136,-180,-292,-190
-53,-4,48,29,-51,21,58,29,141,-180,-283,-175
-48,0,48,24,-48,24,58,29,141,-185,-283,-161
-48,0,48,24,-48,24,58,29,141,-195,-292,-170
-53,0,53,26,-53,26,58,39,151,-195,-297,-180
-58,0,58,29,-58,29,58,43,156,-180,-307,-195
-58,0,58,29,-58,29,63,53,170,-161,-307,-195
-58,0,58,29,-58,29,63,58,180,-151,-307,-195
-58,0,58,29,-58,29,68,68,185,-141,-302,-190
-53,-9,43,31,-48,17,68,58,185,-151,-302,-190
-53,-9,43,31,-48,17,68,48,185,-161,-297,-185
-53,-9,43,31,-48,17,68,48,180,-165,-297,-185
-53,-4,48,29,-51,21,68,48,180,-165,-297,-190
-63,-4,58,34,-61,26,78,58,190,-165,-292,-185
-63,-4,58,34,-61,26,78,63,200,-161,-292,-190
-68,-4,63,36,-65,29,78,63,204,-156,-292,-190
-68,-4,63,36,-65,29,78,63,204,-151,-292,-185
-58,-4,53,31,-56,24,68,63,195,-146,-287,-185
-53,0,53,26,-53,26,68,58,200,-146,-287,-180
-53,0,53,26,-53,26,68,58,200,-146,-287,-180
-53,0,53,26,-53,26,68,58,200,-151,-287,-180
-53,4,58,24,-56,31,78,63,204,-151,-283,-190
-53,4,58,24,-56,31,78,63,204,-146,-283,-190
-53,4,58,24,-56,31,78,63,209,-141,-283,-190
-48,4,53,21,-51,29,78,68,214,-136,-283,-190
-48,14,63,17,-56,39,73,68,224,-126,-278,-175
-48,19,68,14,-58,43,73,68,224,-126,-278,-175
-48,19,68,14,-58,43,73,68,224,-126,-278,-175
-48,19,68,14,-58,43,73,68,224,-126,-278,-175
-48,14,63,17,-56,39,73,68,219,-136,-278,-180
-48,14,63,17,-56,39,73,68,224,-131,-278,-180
-48,19,68,14,-58,43,73,68,229,-131,-278,-180
-48,19,68,14,-58,43,73,73,234,-131,-278,-175
-48,9,58,19,-53,34,73,73,244,-126,-278,-175
-48,14,63,17,-56,39,73,73,244,-126,-278,-175
-43,19,63,12,-53,41,73,78,244,-126,-278,-175
-43,19,63,12,-53,41,73,78,244,-126,-278,-175
-43,29,73,7,-58,51,73,78,248,-126,-278,-180
-43,29,73,7,-58,51,73,78,253,-126,-278,-180
-43,29,73,7,-58,51,73,78,253,-117,-278,-180
-43,29,73,7,-58,51,73,78,263,-117,-278,-180
-43,19,63,12,-53,41,73,78,268,-112,-273,-190
-43,24,68,9,-56,46,73,78,268,-112,-273,-185
-43,24,68,9,-56,46,73,78,268,-112,-273,-185
-43,24,68,9,-56,46,73,82,268,-107,-268,-185
-43,34,78,4,-61,56,63,82,273,-97,-268,-175
-43,34,78,4,-61,56,68,82,278,-92,-268,-175
-43,34,78,4,-61,56,68,82,278,-92,-268,-175
-43,34,78,4,-61,56,68,87,287,-92,-268,-175
-43,34,78,4,-61,56,68,87,292,-87,-268,-175
-43,39,82,2,-63,61,68,87,297,-87,-263,-175
-43,39,82,2,-63,61,68,92,297,-78,-263,-170
-39,43,82,-2,-61,63,68,92,307,-73,-263,-170
-39,53,92,-7,-65,73,82,107,322,-78,-248,-170
-39,53,92,-7,-65,73,82,107,326,-78,-248,-165
-39,58,97,-9,-68,78,82,107,331,-78,-244,-165
-39,58,97,-9,-68,78,82,112,336,-78,-244,-165
-48,53,102,-2,-75,78,82,102,341,-73,-253,-165
-48,53,102,-2,-75,78,87,107,346,-63,-248,-161
-48,58,107,-4,-78,82,87,107,351,-58,-248,-161
-48,58,107,-4,-78,82,87,112,366,-53,-244,-161
-43,58,102,-7,-73,80,87,107,366,-39,-244,-165
-39,63,102,-12,-70,82,92,112,375,-34,-244,-175
-34,63,97,-14,-65,80,92,112,380,-34,-239,-156
-29,63,92,-17,-61,78,92,117,385,-34,-239,-156
-29,73,102,-21,-65,87,87,117,400,-34,-239,-165
-29,73,102,-21,-65,87,92,117,409,-34,-234,-161
-29,78,107,-24,-68,92,92,117,419,-29,-234,-161
-29,78,107,-24,-68,92,92,122,424,-24,-229,-151
-29,87,117,-29,-73,102,92,131,429,-9,-229,-141
-29,92,122,-31,-75,107,92,136,439,-9,-224,-146
-29,92,122,-31,-75,107,97,136,444,-9,-224,-146
-29,92,122,-31,-75,107,97,141,448,0,-224,-146
-29,97,126,-34,-78,112,102,151,458,0,-219,-131
-29,97,126,-34,-78,112,102,151,463,9,-219,-131
-29,97,126,-34,-78,112,102,151,478,9,-219,-136
-29,102,131,-36,-80,117,102,156,483,9,-214,-136
-19,102,122,-41,-70,112,102,156,492,14,-204,-131
-24,102,126,-39,-75,114,107,161,497,19,-200,-131
-24,107,131,-41,-78,119,107,161,502,19,-200,-126
-24,107,131,-41,-78,119,107,165,507,19,-195,-122
-24,117,141,-46,-82,129,107,165,517,24,-195,-122
-24,117,141,-46,-82,129,107,170,522,24,-195,-122
-24,122,146,-48,-85,134,107,170,522,24,-190,-117
-24,122,146,-48,-85,134,107,170,522,24,-190,-117
-24,122,146,-48,-85,134,107,170,527,14,-190,-117
-24,122,146,-48,-85,134,107,170,527,14,-185,-117
-19,122,141,-51,-80,131,107,170,527,14,-185,-117
-19,126,146,-53,-82,136,107,175,531,9,-185,-112
-24,117,141,-46,-82,129,107,175,531,14,-175,-107
-24,117,141,-46,-82,129,107,175,527,9,-175,-107
-24,117,141,-46,-82,129,107,175,527,4,-175,-107
-24,112,136,-43,-80,124,102,175,517,0,-180,-107
-14,112,126,-48,-70,119,92,165,502,-14,-195,-97
-14,112,126,-48,-70,119,102,161,502,-19,-195,-97
-14,112,126,-48,-70,119,102,161,497,-24,-195,-97
-14,112,126,-48,-70,119,102,161,492,-34,-195,-97
-19,112,131,-46,-75,122,87,156,488,-39,-204,-107
-24,112,136,-43,-80,124,87,156,488,-43,-209,-112
-29,112,141,-41,-85,126,87,156,483,-48,-214,-117
-34,112,146,-39,-90,129,87,151,478,-58,-219,-117
-24,112,136,-43,-80,124,82,146,463,-68,-219,-107
-24,112,136,-43,-80,124,78,146,458,-73,-224,-107
-24,112,136,-43,-80,124,78,141,448,-82,-229,-117
-24,107,131,-41,-78,119,78,141,439,-87,-234,-117
-24,107,131,-41,-78,119,87,151,419,-87,-239,-131
-24,107,131,-41,-78,119,82,141,414,-87,-244,-131
-24,107,131,-41,-78,119,82,136,405,-102,-248,-126
-24,107,131,-41,-78,119,78,131,395,-107,-253,-126
-14,117,131,-51,-73,124,73,122,385,-117,-258,-117
-14,117,131,-51,-73,124,68,117,370,-122,-263,-117
-14,117,131,-51,-73,124,63,112,361,-131,-268,-126
-14,112,126,-48,-70,119,63,107,346,-141,-273,-131
-24,112,136,-43,-80,124,58,112,341,-151,-273,-136
-24,112,136,-43,-80,124,58,107,326,-156,-283,-136
-24,112,136,-43,-80,124,53,102,317,-161,-283,-136
-24,112,136,-43,-80,124,48,97,307,-161,-283,-136
-14,102,117,-43,-65,109,39,82,287,-170,-287,-136
-14,102,117,-43,-65,109,34,78,278,-180,-287,-136
-14,102,117,-43,-65,109,29,73,268,-180,-287,-136
-14,102,117,-43,-65,109,29,68,258,-175,-287,-136
-4,112,117,-53,-61,114,34,63,258,-170,-278,-131
-4,112,117,-53,-61,114,29,58,248,-170,-273,-131
-4,112,117,-53,-61,114,29,53,239,-175,-273,-131
-4,112,117,-53,-61,114,24,48,229,-175,-273,-126
-9,112,122,-51,-65,117,19,34,214,-185,-268,-136
-9,112,122,-51,-65,117,9,34,204,-185,-268,-136
-4,112,117,-53,-61,114,4,29,200,-185,-273,-131
-4,107,112,-51,-58,109,0,24,190,-185,-283,-131
4,107,102,-56,-48,104,0,24,180,-180,-283,-141
4,107,102,-56,-48,104,-9,19,175,-180,-273,-141
4,107,102,-56,-48,104,-9,14,170,-180,-273,-141
4,107,102,-56,-48,104,-9,14,161,-180,-273,-141
4,102,97,-53,-46,100,-9,14,156,-175,-273,-141
4,102,97,-53,-46,100,-9,14,151,-175,-273,-136
9,102,92,-56,-41,97,-14,9,151,-175,-263,-136
9,102,92,-56,-41,97,-14,9,146,-175,-263,-136
9,97,87,-53,-39,92,-14,19,156,-180,-253,-136
9,97,87,-53,-39,92,-14,19,151,-180,-248,-131
9,97,87,-53,-39,92,-14,14,146,-180,-248,-131
9,97,87,-53,-39,92,-19,14,146,-180,-244,-131
19,102,82,-61,-31,92,-19,4,136,-165,-244,-141
19,102,82,-61,-31,92,-19,4,136,-165,-244,-136
24,102,78,-63,-26,90,-19,4,136,-165,-244,-136
24,107,82,-65,-29,95,-19,4,136,-165,-239,-141
29,107,78,-68,-24,92,-19,9,131,-175,-239,-131
24,102,78,-63,-26,90,-19,9,131,-175,-239,-131
24,102,78,-63,-26,90,-19,9,131,-170,-239,-131
24,102,78,-63,-26,90,-19,9,131,-170,-234,-131
24,92,68,-58,-21,80,-19,19,141,-161,-224,-126
24,92,68,-58,-21,80,-19,19,141,-161,-229,-126
24,92,68,-58,-21,80,-19,19,141,-161,-229,-126
24,87,63,-56,-19,75,-19,19,141,-161,-234,-126
34,97,63,-65,-14,80,-9,19,141,-170,-244,-126
34,97,63,-65,-14,80,-9,19,141,-170,-244,-126
39,97,58,-68,-9,78,-9,19,146,-170,-248,-131
39,92,53,-65,-7,73,-9,19,146,-175,-248,-131
43,92,48,-68,-2,70,-19,9,146,-175,-239,-131
43,97,53,-70,-4,75,-19,9,141,-175,-239,-131
43,102,58,-73,-7,80,-19,14,141,-175,-244,-136
43,102,58,-73,-7,80,-14,14,146,-175,-244,-136
43,92,48,-68,-2,70,-4,14,146,-165,-244,-126
43,92,48,-68,-2,70,-4,19,146,-165,-244,-126
48,92,43,-70,2,68,-4,19,151,-165,-244,-126
48,92,43,-70,2,68,-4,19,151,-170,-244,-131
58,102,43,-80,7,73,-14,19,151,-170,-248,-146
58,102,43,-80,7,73,-14,19,151,-170,-248,-156
58,102,43,-80,7,73,-14,14,151,-170,-253,-161
58,102,43,-80,7,73,-9,14,151,-170,-253,-170
58,112,53,-85,2,82,0,14,161,-180,-268,-180
58,112,53,-85,2,82,0,19,161,-180,-268,-180
53,112,58,-82,-2,85,0,19,165,-175,-273,-180
53,112,58,-82,-2,85,0,19,165,-175,-283,-180
53,102,48,-78,2,75,0,19,156,-165,-287,-170
53,102,48,-78,2,75,0,19,156,-165,-287,-161
53,102,48,-78,2,75,0,19,156,-165,-287,-151
53,102,48,-78,2,75,0,19,161,-165,-283,-141
53,102,48,-78,2,75,0,19,170,-175,-283,-141
53,102,48,-78,2,75,0,19,170,-175,-287,-141
53,102,48,-78,2,75,0,19,170,-175,-287,-146
53,102,48,-78,2,75,-4,19,165,-170,-292,-146
63,112,48,-87,7,80,-4,29,161,-170,-297,-165
63,112,48,-87,7,80,-4,29,161,-170,-297,-170
63,112,48,-87,7,80,-4,29,165,-170,-297,-175
58,112,53,-85,2,82,-4,29,165,-165,-297,-180
68,107,39,-87,14,73,0,19,156,-161,-297,-175
68,107,39,-87,14,73,0,19,161,-161,-297,-170
68,102,34,-85,17,68,0,19,161,-161,-297,-165
68,97,29,-82,19,63,0,19,156,-161,-292,-161
63,97,34,-80,14,65,4,29,156,-156,-297,-170
58,97,39,-78,9,68,4,29,165,-156,-287,-170
58,97,39,-78,9,68,4,29,165,-156,-283,-165
53,97,43,-75,4,70,0,29,165,-151,-273,-165
63,107,43,-85,9,75,9,24,165,-151,-278,-165
63,112,48,-87,7,80,9,24,161,-146,-273,-156
63,112,48,-87,7,80,9,24,161,-146,-268,-156
63,112,48,-87,7,80,9,24,161,-146,-268,-151
58,112,53,-85,2,82,9,34,170,-131,-248,-161
68,126,58,-97,4,92,9,39,175,-126,-234,-146
68,126,58,-97,4,92,9,29,165,-126,-224,-146
68,126,58,-97,4,92,9,29,165,-126,-224,-146
68,126,58,-97,4,92,9,29,165,-126,-224,-146
68,126,58,-97,4,92,9,29,165,-126,-224,-146
58,122,63,-90,-2,92,19,29,180,-122,-214,-131
58,131,73,-95,-7,102,19,29,180,-112,-209,-126
58,136,78,-97,-9,107,19,34,190,-97,-195,-122
58,141,82,-100,-12,112,19,34,190,-87,-185,-112
53,151,97,-102,-21,124,24,43,190,-73,-175,-92
53,156,102,-104,-24,129,24,43,195,-68,-161,-87
63,161,97,-112,-17,129,24,48,200,-63,-151,-73
63,165,102,-114,-19,134,24,48,209,-58,-146,-63
68,175,107,-122,-19,141,24,53,214,-53,-131,-53
73,180,107,-126,-17,143,24,53,219,-48,-126,-43
82,185,102,-134,-9,143,24,58,219,-48,-117,-43
87,190,102,-139,-7,146,24,58,219,-43,-112,-43
92,190,97,-141,-2,143,9,68,234,-34,-107,-34
92,190,97,-141,-2,143,9,68,234,-29,-102,-34
97,200,102,-148,-2,151,9,68,239,-29,-92,-29
97,204,107,-151,-4,156,9,78,239,-29,-82,-29
107,204,97,-156,4,151,9,82,248,-24,-68,-24
112,204,92,-158,9,148,9,87,248,-19,-68,-24
112,204,92,-158,9,148,9,92,248,-19,-68,-24
112,204,92,-158,9,148,0,92,244,-19,-68,-24
117,224,107,-170,4,165,0,82,253,-9,-58,-14
117,239,122,-178,-2,180,-4,78,253,-9,-58,-14
117,253,136,-185,-9,195,-9,63,258,0,-53,-4
122,263,141,-192,-9,202,-9,48,258,4,-43,-4
131,273,141,-202,-4,207,-14,24,244,0,-53,-4
136,287,151,-212,-7,219,-29,9,244,4,-43,0
136,297,161,-217,-12,229,-39,0,244,9,-39,4
141,307,165,-224,-12,236,-58,-14,244,14,-34,9
151,312,161,-231,-4,236,-73,-34,244,14,-29,9
151,307,156,-229,-2,231,-87,-34,244,14,-24,14
156,302,146,-229,4,224,-87,-34,239,9,-24,14
161,297,136,-229,12,217,-92,-34,234,4,-34,14
161,287,126,-224,17,207,-102,-39,219,-9,-29,14
161,283,122,-222,19,202,-107,-48,200,-19,-43,9
161,278,117,-219,21,197,-107,-53,195,-29,-43,4
161,268,107,-214,26,187,-102,-53,195,-29,-48,4
170,268,97,-219,36,183,-92,-53,195,-24,-53,4
165,253,87,-209,39,170,-87,-53,200,-29,-58,4
165,244,78,-204,43,161,-87,-48,200,-34,-58,9
165,239,73,-202,46,156,-87,-48,200,-34,-58,9
175,248,73,-212,51,161,-97,-39,200,-34,-53,14
175,253,78,-214,48,165,-97,-29,214,-24,-39,24
185,253,68,-219,58,161,-97,-24,219,-19,-34,34
185,253,68,-219,58,161,-92,-24,224,-14,-34,34
175,244,68,-209,53,156,-87,-34,224,-14,-43,19
175,239,63,-207,56,151,-87,-29,224,-14,-53,14
170,229,58,-200,56,143,-87,-29,219,-29,-53,4
165,219,53,-192,56,136,-82,-29,214,-43,-68,0
161,185,24,-173,68,104,-73,-19,209,-63,-78,0
151,165,14,-158,68,90,-68,-9,209,-68,-87,-9
151,156,4,-153,73,80,-58,-4,209,-68,-92,-14
136,151,14,-143,61,82,-48,4,209,-68,-92,-14
136,156,19,-146,58,87,-34,9,209,-73,-97,-29
136,156,19,-146,58,87,-29,14,209,-73,-107,-43
122,151,29,-136,46,90,-24,14,209,-73,-112,-53
112,146,34,-129,39,90,-14,14,204,-78,-112,-58
122,141,19,-131,51,80,-19,4,204,-68,-126,-68
117,136,19,-126,48,78,-19,4,204,-68,-131,-73
117,122,4,-119,56,63,-14,9,204,-78,-136,-78
122,112,-9,-117,65,51,-14,9,204,-82,-141,-82
112,122,9,-117,51,65,-9,14,200,-82,-141,-82
107,117,9,-112,48,63,-9,19,200,-78,-141,-87
102,112,9,-107,46,61,-9,19,200,-78,-146,-87
102,112,9,-107,46,61,-9,29,204,-82,-146,-87
107,102,-4,-104,56,48,4,39,204,-82,-146,-78
112,97,-14,-104,63,41,4,39,204,-82,-146,-78
117,97,-19,-107,68,39,4,39,200,-82,-146,-78
122,92,-29,-107,75,31,4,34,200,-82,-146,-78
112,92,-19,-102,65,36,4,34,200,-73,-146,-78
112,92,-19,-102,65,36,4,34,200,-73,-146,-82
112,92,-19,-102,65,36,9,34,200,-78,-146,-82
112,87,-24,-100,68,31,9,34,200,-78,-146,-82
117,97,-19,-107,68,39,9,34,214,-78,-156,-82
126,97,-29,-112,78,34,4,39,214,-82,-156,-73
122,87,-34,-104,78,26,14,48,229,-78,-146,-78
122,82,-39,-102,80,21,14,58,239,-68,-141,-87
131,82,-48,-107,90,17,4,48,258,-43,-141,-78
136,92,-43,-114,90,24,0,24,283,-9,-117,-73
141,102,-39,-122,90,31,-9,24,341,43,-87,-58
141,117,-24,-129,82,46,-14,24,424,107,-78,-39
141,136,-4,-139,73,65,-24,14,522,175,-53,-29
156,175,19,-165,68,97,-34,9,673,273,-9,-19
165,219,53,-192,56,136,-34,34,834,385,14,-9
151,268,117,-209,17,192,-9,82,1024,531,34,-19
141,312,170,-226,-14,241,24,97,1176,683,63,-14
131,356,224,-244,-46,290,29,78,1195,805,102,-19
136,370,234,-253,-48,302,43,87,1132,858,141,-14
136,366,229,-251,-46,297,43,102,946,844,161,9
141,380,239,-261,-48,309,24,19,580,805,200,34
165,414,248,-290,-41,331,-58,-136,97,722,273,97
224,453,229,-339,-2,341,-151,-273,-317,629,375,185
268,517,248,-392,9,383,-248,-361,-561,639,541,302
322,614,292,-468,14,453,-370,-507,-771,712,761,483
385,702,317,-544,34,509,-517,-697,-1068,795,1010,658
434,771,336,-602,48,553,-668,-863,-1356,897,1283,858
488,858,370,-673,58,614,-800,-1068,-1668,946,1551,1063
522,936,414,-729,53,675,-932,-1332,-2044,907,1786,1263
570,985,414,-778,78,700,-1044,-1576,-2405,819,1981,1439
610,976,366,-793,122,671,-1132,-1732,-2679,727,2205,1620
639,917,278,-778,180,597,-1190,-1771,-2810,692,2488,1825
683,834,151,-758,265,492,-1224,-1742,-2791,751,2806,2030
712,741,29,-727,341,385,-1244,-1693,-2684,868,3089,2191
697,639,-58,-668,378,290,-1220,-1649,-2532,922,3284,2288
707,522,-185,-614,446,168,-1151,-1546,-2361,907,3381,2327
712,419,-292,-566,502,63,-1093,-1420,-2176,897,3459,2381
722,322,-400,-522,561,-39,-1044,-1302,-1986,941,3533,2425
732,214,-517,-473,624,-151,-971,-1171,-1717,1000,3552,2444
727,97,-629,-412,678,-265,-868,-1015,-1439,1058,3518,2410
702,-19,-722,-341,712,-370,-771,-854,-1195,1054,3396,2303
673,-126,-800,-273,736,-463,-668,-741,-1000,907,3098,2103
614,-209,-824,-202,719,-517,-580,-668,-849,585,2635,1834
551,-278,-829,-136,690,-553,-492,-595,-727,209,2122,1517
492,-341,-834,-75,663,-588,-414,-546,-600,24,1688,1215
424,-361,-785,-31,605,-573,-356,-497,-492,-34,1317,941
346,-336,-683,-4,514,-509,-292,-434,-419,-180,858,649
273,-307,-580,17,427,-444,-209,-361,-380,-385,356,341
219,-283,-502,31,361,-392,-156,-317,-370,-497,-19,87
190,-253,-444,31,317,-348,-126,-287,-351,-551,-234,-68
170,-229,-400,29,285,-314,-92,-258,-312,-580,-351,-156
161,-200,-361,19,261,-280,-73,-219,-268,-561,-370,-190
170,-165,-336,-2,253,-251,-78,-204,-224,-517,-361,-180
180,-146,-326,-17,253,-236,-78,-180,-185,-483,-370,-190
175,-112,-287,-31,231,-200,-68,-146,-141,-448,-370,-195
170,-97,-268,-36,219,-183,-43,-112,-87,-409,-346,-175
151,-73,-224,-39,187,-148,-29,-97,-43,-380,-341,-180
141,-53,-195,-43,168,-124,-14,-87,-19,-356,-341,-185
136,-43,-180,-46,158,-112,4,-68,4,-341,-341,-190
117,-14,-131,-51,124,-73,14,-53,29,-322,-326,-200
112,14,-97,-63,104,-41,24,-29,58,-292,-326,-200
112,34,-78,-73,95,-21,34,-4,92,-258,-326,-200
102,39,-63,-70,82,-12,34,19,131,-229,-317,-204
112,53,-58,-82,85,-2,43,34,165,-195,-292,-185
112,53,-58,-82,85,-2,58,39,195,-170,-283,-180
102,53,-48,-78,75,2,58,48,190,-170,-253,-165
107,58,-48,-82,78,4,58,48,190,-175,-253,-151
107,58,-48,-82,78,4,58,48,190,-185,-263,-161
102,58,-43,-80,73,7,58,58,200,-185,-268,-170
97,68,-29,-82,63,19,68,63,204,-190,-278,-175
97,68,-29,-82,63,19,73,73,219,-170,-278,-175
97,68,-29,-82,63,19,73,78,229,-161,-278,-175
97,68,-29,-82,63,19,78,87,234,-151,-273,-170
107,68,-39,-87,73,14,87,87,234,-146,-263,-161
112,68,-43,-90,78,12,87,78,234,-151,-258,-156
117,68,-48,-92,82,9,87,78,229,-151,-258,-156
122,73,-48,-97,85,12,87,78,229,-146,-258,-161
112,63,-48,-87,80,7,87,78,229,-156,-263,-165
112,63,-48,-87,80,7,87,82,239,-151,-263,-170
107,63,-43,-85,75,9,87,82,244,-146,-263,-170
107,63,-43,-85,75,9,87,82,244,-141,-263,-165
107,73,-34,-90,70,19,78,82,244,-136,-258,-175
112,78,-34,-95,73,21,78,78,248,-136,-258,-170
112,78,-34,-95,73,21,78,78,248,-136,-258,-170
112,78,-34,-95,73,21,78,78,248,-141,-258,-170
102,73,-29,-87,65,21,78,82,253,-131,-263,-180
102,73,-29,-87,65,21,78,82,253,-126,-263,-180
102,73,-29,-87,65,21,78,82,258,-122,-263,-180
107,73,-34,-90,70,19,78,87,263,-117,-263,-180
107,73,-34,-90,70,19,82,87,263,-126,-248,-170
107,78,-29,-92,68,24,82,87,263,-126,-248,-165
107,78,-29,-92,68,24,82,87,263,-126,-248,-161
107,78,-29,-92,68,24,82,87,263,-126,-248,-156
107,82,-24,-95,65,29,82,87,268,-126,-248,-175
107,82,-24,-95,65,29,82,87,273,-122,-248,-180
107,87,-19,-97,63,34,82,87,278,-122,-248,-185
107,87,-19,-97,63,34,82,92,283,-122,-248,-185
117,87,-29,-102,73,29,82,92,292,-117,-248,-180
117,92,-24,-104,70,34,82,92,292,-117,-248,-175
122,97,-24,-109,73,36,82,97,292,-117,-248,-170
122,97,-24,-109,73,36,82,97,292,-117,-248,-165
112,97,-14,-104,63,41,92,97,287,-117,-248,-175
112,97,-14,-104,63,41,92,97,292,-117,-248,-180
112,97,-14,-104,63,41,92,97,292,-107,-248,-185
112,97,-14,-104,63,41,92,97,302,-107,-248,-190
112,97,-14,-104,63,41,92,87,307,-102,-253,-175
112,102,-9,-107,61,46,92,87,307,-102,-253,-165
112,102,-9,-107,61,46,92,87,307,-102,-253,-161
112,102,-9,-107,61,46,92,92,307,-97,-248,-156
102,102,0,-102,51,51,92,102,312,-97,-248,-146
102,102,0,-102,51,51,97,102,317,-92,-248,-146
102,102,0,-102,51,51,97,102,317,-92,-248,-146
102,102,0,-102,51,51,97,107,326,-92,-248,-146
112,102,-9,-107,61,46,97,107,341,-78,-239,-146
112,107,-4,-109,58,51,97,107,346,-78,-234,-146
112,107,-4,-109,58,51,97,112,346,-68,-234,-141
117,112,-4,-114,61,53,97,112,356,-63,-234,-141
107,102,-4,-104,56,48,92,117,351,-68,-239,-151
107,102,-4,-104,56,48,92,117,356,-68,-239,-146
107,107,0,-107,53,53,92,117,361,-68,-234,-146
107,107,0,-107,53,53,92,122,366,-68,-234,-146
117,117,0,-117,58,58,92,122,380,-63,-234,-156
117,122,4,-119,56,63,97,126,385,-53,-229,-151
117,131,14,-124,51,73,97,126,390,-48,-229,-151
117,136,19,-126,48,78,97,131,405,-43,-224,-151
107,126,19,-117,43,73,107,146,405,-39,-214,-146
107,131,24,-119,41,78,112,151,414,-34,-214,-156
107,131,24,-119,41,78,112,151,419,-34,-209,-136
107,131,24,-119,41,78,112,156,424,-34,-209,-136
117,131,14,-124,51,73,117,146,439,-14,-209,-146
117,131,14,-124,51,73,122,146,448,-14,-204,-141
117,136,19,-126,48,78,122,146,458,-9,-204,-141
117,136,19,-126,48,78,122,151,463,-4,-200,-131
107,146,39,-126,34,92,122,161,468,0,-200,-131
107,151,43,-129,31,97,122,165,478,0,-195,-136
107,151,43,-129,31,97,126,165,483,0,-195,-136
107,151,43,-129,31,97,126,170,488,9,-195,-136
107,146,39,-126,34,92,131,170,497,9,-190,-131
107,146,39,-126,34,92,131,170,502,19,-190,-131
107,146,39,-126,34,92,131,170,517,19,-190,-136
107,151,43,-129,31,97,131,175,522,19,-185,-136
117,161,43,-139,36,102,122,185,531,24,-185,-131
112,161,48,-136,31,104,126,190,536,29,-180,-131
112,165,53,-139,29,109,126,190,541,29,-180,-126
112,165,53,-139,29,109,126,195,546,29,-175,-122
112,156,43,-134,34,100,126,195,546,34,-175,-122
112,156,43,-134,34,100,126,200,551,34,-175,-122
112,161,48,-136,31,104,126,200,551,34,-170,-117
112,161,48,-136,31,104,126,200,551,34,-170,-117
112,170,58,-141,26,114,126,190,566,34,-170,-117
112,170,58,-141,26,114,126,190,566,34,-165,-117
117,170,53,-143,31,112,126,190,566,34,-165,-117
117,175,58,-146,29,117,126,195,570,29,-165,-112
112,175,63,-143,24,119,126,195,570,34,-156,-107
112,175,63,-143,24,119,126,195,566,29,-156,-107
112,175,63,-143,24,119,126,195,566,24,-156,-107
112,170,58,-141,26,114,122,195,556,19,-161,-107
112,170,58,-141,26,114,112,195,541,4,-175,-107
112,170,58,-141,26,114,122,190,541,0,-175,-107
112,170,58,-141,26,114,122,190,536,-4,-175,-107
112,170,58,-141,26,114,122,190,531,-14,-175,-107
102,161,58,-131,21,109,117,185,517,-29,-185,-97
102,161,58,-131,21,109,117,185,517,-34,-190,-102
102,161,58,-131,21,109,117,185,512,-39,-195,-107
102,161,58,-131,21,109,117,180,507,-48,-200,-107
92,151,58,-122,17,104,112,175,492,-48,-200,-117
92,151,58,-122,17,104,107,175,488,-53,-204,-117
92,151,58,-122,17,104,107,170,478,-63,-209,-126
92,146,53,-119,19,100,107,170,468,-68,-214,-126
92,146,53,-119,19,100,107,170,448,-78,-209,-131
92,146,53,-119,19,100,102,161,444,-78,-214,-131
92,146,53,-119,19,100,102,156,434,-92,-219,-126
92,146,53,-119,19,100,97,151,424,-97,-224,-126
102,146,43,-124,29,95,92,151,414,-117,-239,-126
102,146,43,-124,29,95,87,146,400,-122,-244,-126
102,146,43,-124,29,95,82,141,390,-131,-248,-136
102,141,39,-122,31,90,82,136,375,-141,-253,-141
92,141,48,-117,21,95,68,122,361,-131,-244,-146
92,141,48,-117,21,95,68,117,346,-136,-253,-146
92,141,48,-117,21,95,63,112,336,-141,-253,-146
92,141,48,-117,21,95,58,107,326,-141,-253,-146
102,141,39,-122,31,90,68,102,317,-151,-258,-136
102,141,39,-122,31,90,63,97,307,-161,-258,-136
102,141,39,-122,31,90,58,92,297,-161,-258,-136
102,141,39,-122,31,90,58,87,287,-156,-258,-136
112,131,19,-122,46,75,43,82,268,-161,-268,-136
112,131,19,-122,46,75,39,78,258,-161,-263,-141
112,131,19,-122,46,75,39,73,248,-165,-263,-146
112,131,19,-122,46,75,34,68,239,-165,-263,-146
107,122,14,-114,46,68,24,53,234,-165,-253,-136
107,122,14,-114,46,68,19,53,224,-165,-248,-136
112,122,9,-117,51,65,19,48,219,-165,-248,-131
112,117,4,-114,53,61,19,43,209,-165,-253,-131
102,126,24,-114,39,75,29,53,200,-161,-253,-141
102,126,24,-114,39,75,19,48,195,-161,-244,-141
102,126,24,-114,39,75,19,43,190,-161,-244,-141
102,126,24,-114,39,75,19,43,180,-161,-244,-141
107,122,14,-114,46,68,9,43,185,-165,-244,-141
112,122,9,-117,51,65,9,43,180,-165,-244,-136
122,122,0,-122,61,61,4,39,180,-165,-234,-136
126,122,-4,-124,65,58,4,39,175,-165,-234,-136
122,117,-4,-119,63,56,14,39,165,-151,-234,-146
117,117,0,-117,58,58,14,39,161,-151,-229,-141
112,117,4,-114,53,61,14,34,156,-151,-229,-141
107,117,9,-112,48,63,9,34,156,-151,-224,-141
107,112,4,-109,51,58,0,34,146,-156,-219,-141
107,112,4,-109,51,58,0,34,146,-156,-224,-136
112,112,0,-112,56,56,0,34,146,-156,-229,-136
112,117,4,-114,53,61,0,34,146,-156,-229,-141
107,107,0,-107,53,53,9,39,151,-156,-219,-141
102,102,0,-102,51,51,9,39,151,-156,-219,-141
102,102,0,-102,51,51,9,39,151,-151,-219,-141
102,102,0,-102,51,51,9,39,151,-151,-214,-141
102,102,0,-102,51,51,0,39,151,-151,-214,-136
102,102,0,-102,51,51,0,39,151,-151,-219,-136
102,102,0,-102,51,51,0,39,151,-151,-219,-136
102,97,-4,-100,53,46,0,39,151,-151,-224,-136
102,97,-4,-100,53,46,0,39,141,-151,-224,-146
102,97,-4,-100,53,46,0,39,141,-151,-224,-146
107,97,-9,-102,58,43,0,39,146,-151,-229,-151
107,92,-14,-100,61,39,0,39,146,-156,-229,-151
102,87,-14,-95,58,36,0,39,146,-165,-229,-141
102,87,-14,-95,58,36,0,39,141,-165,-229,-141
102,87,-14,-95,58,36,0,43,141,-165,-234,-146
102,82,-19,-92,61,31,4,43,146,-165,-234,-146
92,82,-9,-87,51,36,-4,34,156,-165,-244,-156
92,82,-9,-87,51,36,-4,39,156,-165,-244,-156
97,82,-14,-90,56,34,-4,39,161,-165,-244,-156
97,82,-14,-90,56,34,-4,39,161,-170,-244,-161
97,82,-14,-90,56,34,-4,29,151,-170,-248,-151
97,82,-14,-90,56,34,-4,29,151,-170,-248,-156
97,82,-14,-90,56,34,-4,24,151,-170,-253,-156
97,82,-14,-90,56,34,0,24,151,-170,-253,-161
97,82,-14,-90,56,34,9,34,151,-170,-248,-175
97,82,-14,-90,56,34,9,39,151,-170,-248,-180
92,82,-9,-87,51,36,9,39,156,-165,-253,-185
92,82,-9,-87,51,36,9,39,156,-165,-263,-190
87,92,4,-90,41,48,9,39,146,-165,-278,-190
92,92,0,-92,46,46,9,39,146,-165,-278,-190
97,92,-4,-95,51,43,9,39,146,-165,-278,-190
102,92,-9,-97,56,41,9,39,151,-165,-273,-190
92,82,-9,-87,51,36,9,39,141,-165,-273,-185
92,82,-9,-87,51,36,9,39,141,-165,-278,-180
92,82,-9,-87,51,36,9,39,141,-165,-278,-180
92,82,-9,-87,51,36,4,39,136,-161,-283,-175
92,73,-19,-82,56,26,-4,29,141,-170,-287,-170
92,73,-19,-82,56,26,-4,29,141,-170,-287,-170
92,73,-19,-82,56,26,-4,29,146,-170,-287,-170
87,73,-14,-80,51,29,-4,29,146,-165,-287,-170
87,82,-4,-85,46,39,9,39,136,-151,-278,-170
87,87,0,-87,43,43,9,39,141,-151,-278,-170
87,87,0,-87,43,43,9,39,141,-151,-278,-170
87,87,0,-87,43,43,9,39,136,-151,-273,-170
87,87,0,-87,43,43,14,29,126,-156,-273,-180
87,87,0,-87,43,43,14,29,136,-156,-268,-180
92,87,-4,-90,48,41,14,29,136,-156,-268,-175
92,87,-4,-90,48,41,9,29,136,-151,-263,-175
82,97,14,-90,34,56,9,34,136,-141,-258,-175
92,92,0,-92,46,46,19,43,151,-136,-244,-165
92,92,0,-92,46,46,19,43,151,-136,-239,-156
97,97,0,-97,48,48,19,39,146,-136,-234,-156
87,97,9,-92,39,53,19,39,146,-126,-224,-156
87,97,9,-92,39,53,19,39,146,-126,-224,-156
87,97,9,-92,39,53,19,39,146,-126,-224,-156
87,97,9,-92,39,53,19,39,146,-126,-224,-156
97,92,-4,-95,51,43,19,29,141,-117,-209,-151
97,102,4,-100,46,53,19,29,141,-112,-209,-146
97,107,9,-102,43,58,19,34,151,-102,-200,-141
97,112,14,-104,41,63,19,34,151,-97,-195,-131
102,131,29,-117,36,80,14,43,151,-92,-180,-126
102,136,34,-119,34,85,14,43,156,-87,-170,-126
112,141,29,-126,41,85,14,48,161,-82,-165,-117
112,146,34,-129,39,90,14,48,170,-78,-165,-112
122,146,24,-134,48,85,24,63,175,-63,-151,-107
122,151,29,-136,46,90,24,63,180,-58,-146,-92
126,156,29,-141,48,92,24,68,180,-58,-136,-87
126,161,34,-143,46,97,24,68,180,-53,-131,-82
122,161,39,-141,41,100,19,68,195,-43,-117,-78
122,161,39,-141,41,100,19,68,195,-39,-112,-73
126,170,43,-148,41,107,19,68,200,-39,-102,-63
126,175,48,-151,39,112,19,78,200,-39,-92,-58
136,165,29,-151,53,97,9,73,209,-34,-78,-43
141,165,24,-153,58,95,9,78,209,-29,-78,-43
141,165,24,-153,58,95,9,82,209,-29,-78,-43
141,165,24,-153,58,95,0,82,204,-29,-78,-43
136,185,48,-161,43,117,-9,63,195,-29,-68,-34
136,200,63,-168,36,131,-14,58,195,-29,-68,-34
136,214,78,-175,29,146,-19,43,200,-19,-63,-24
141,224,82,-183,29,153,-19,29,200,-14,-53,-24
141,229,87,-185,26,158,-34,4,195,-9,-53,-14
146,239,92,-192,26,165,-48,-9,195,-4,-43,-9
146,244,97,-195,24,170,-58,-19,195,0,-39,-4
151,248,97,-200,26,173,-78,-34,195,4,-34,0
161,258,97,-209,31,178,-82,-43,185,4,-29,9
161,258,97,-209,31,178,-97,-43,185,4,-24,14
165,258,92,-212,36,175,-97,-43,180,0,-24,14
170,258,87,-214,41,173,-102,-43,175,-4,-34,14
161,248,87,-204,36,168,-112,-48,161,-29,-39,4
161,244,82,-202,39,163,-117,-58,141,-39,-53,0
161,239,78,-200,41,158,-117,-63,136,-48,-53,-4
161,229,68,-195,46,148,-112,-63,136,-48,-58,-4
161,229,68,-195,46,148,-92,-53,146,-43,-63,-4
156,214,58,-185,48,136,-87,-53,151,-48,-68,-4
156,204,48,-180,53,126,-87,-48,151,-53,-68,0
156,200,43,-178,56,122,-87,-48,151,-53,-68,0
161,209,48,-185,56,129,-87,-48,161,-34,-53,4
165,214,48,-190,58,131,-87,-39,175,-24,-39,14
180,214,34,-197,73,124,-87,-34,180,-19,-34,24
185,214,29,-200,78,122,-82,-34,185,-14,-34,24
170,195,24,-183,73,109,-78,-34,180,-24,-43,9
165,190,24,-178,70,107,-78,-29,175,-24,-53,4
156,180,24,-168,65,102,-78,-29,165,-39,-53,-4
146,170,24,-158,61,97,-73,-29,156,-53,-68,-9
141,146,4,-143,68,75,-63,-19,161,-53,-78,-19
131,126,-4,-129,68,61,-58,-9,161,-58,-87,-29
131,117,-14,-124,73,51,-48,-4,161,-58,-92,-34
117,112,-4,-114,61,53,-39,4,161,-58,-92,-34
107,97,-9,-102,58,43,-24,0,161,-73,-97,-29
107,97,-9,-102,58,43,-19,4,161,-73,-107,-43
92,92,0,-92,46,46,-14,4,161,-73,-112,-53
82,87,4,-85,39,46,-4,4,156,-78,-112,-58
73,82,9,-78,31,46,-9,14,165,-68,-117,-58
68,78,9,-73,29,43,-9,14,165,-68,-122,-63
68,63,-4,-65,36,29,-4,19,165,-78,-126,-68
73,53,-19,-63,46,17,-4,19,165,-82,-131,-73
73,53,-19,-63,46,17,0,24,151,-82,-131,-82
68,48,-19,-58,43,14,0,29,151,-78,-131,-87
63,43,-19,-53,41,12,0,29,151,-78,-136,-87
63,43,-19,-53,41,12,0,39,156,-82,-136,-87
63,43,-19,-53,41,12,4,29,165,-82,-136,-87
63,39,-24,-51,43,7,4,29,165,-82,-136,-87
63,39,-24,-51,43,7,4,29,161,-82,-136,-87
63,34,-29,-48,46,2,4,24,161,-82,-136,-87
53,24,-29,-39,41,-2,4,34,161,-82,-146,-87
53,24,-29,-39,41,-2,4,34,161,-82,-146,-92
53,24,-29,-39,41,-2,9,34,161,-87,-146,-92
53,19,-34,-36,43,-7,9,34,161,-87,-146,-92
48,19,-29,-34,39,-4,19,43,165,-78,-136,-92
58,19,-39,-39,48,-9,14,48,175,-73,-146,-92
53,9,-43,-31,48,-17,24,48,180,-68,-146,-97
63,4,-58,-34,61,-26,24,48,200,-58,-141,-97
63,14,-48,-39,56,-17,14,39,229,-43,-122,-78
58,24,-34,-41,46,-4,0,34,283,0,-97,-73
73,34,-39,-53,56,-2,-9,34,351,63,-78,-58
82,58,-24,-70,53,17,-14,24,444,117,-48,-48
73,78,4,-75,34,41,-24,14,561,214,-14,-29
87,126,39,-107,24,82,-24,19,722,322,19,-9
87,170,82,-129,2,126,-14,53,912,444,43,-9
82,219,136,-151,-26,178,9,92,1083,580,63,-19
82,273,190,-178,-53,231,24,107,1176,732,102,-24
73,297,224,-185,-75,261,39,97,1166,834,131,-19
68,302,234,-185,-82,268,53,107,1034,858,161,-4
68,317,248,-192,-90,283,43,82,751,834,190,19
73,331,258,-202,-92,295,4,-58,317,775,229,53
97,356,258,-226,-80,307,-68,-224,-175,673,322,117
146,385,239,-265,-46,312,-141,-331,-522,629,463,244
209,468,258,-339,-24,363,-258,-439,-736,668,658,390
273,575,302,-424,-14,439,-409,-605,-995,732,888,570
326,663,336,-495,-4,500,-575,-805,-1302,785,1137,746
385,722,336,-553,24,529,-727,-990,-1610,868,1410,956
448,800,351,-624,48,575,-849,-1224,-1932,888,1678,1171
473,878,405,-675,34,641,-971,-1488,-2278,819,1893,1361
492,888,395,-690,48,641,-1063,-1703,-2620,722,2108,1546
541,858,317,-700,112,588,-1132,-1810,-2835,649,2361,1747
590,771,180,-680,204,475,-1171,-1800,-2898,653,2674,1971
624,688,63,-656,280,375,-1205,-1761,-2830,722,2981,2166
644,595,-48,-619,346,273,-1215,-1712,-2703,790,3235,2308
639,492,-146,-566,392,173,-1180,-1629,-2542,795,3362,2366
639,385,-253,-512,446,65,-1122,-1507,-2371,771,3440,2405
644,292,-351,-468,497,-29,-1073,-1390,-2186,780,3518,2449
653,185,-468,-419,561,-141,-1015,-1263,-1966,814,3533,2464
663,68,-595,-366,629,-263,-922,-1093,-1668,873,3494,2454
649,-39,-688,-305,668,-363,-819,-927,-1390,941,3430,2391
605,-136,-741,-234,673,-439,-722,-785,-1166,907,3230,2244
566,-214,-780,-175,673,-497,-619,-683,-990,692,2825,1986
517,-297,-814,-109,666,-556,-541,-610,-858,292,2303,1668
444,-366,-810,-39,627,-588,-463,-556,-727,-24,1810,1332
385,-409,-795,12,590,-602,-375,-507,-600,-122,1434,1049
317,-409,-727,46,522,-568,-307,-458,-502,-180,1044,766
229,-385,-614,78,422,-500,-234,-385,-448,-346,556,453
146,-346,-492,100,319,-419,-161,-331,-419,-473,122,175
92,-312,-405,109,248,-358,-117,-297,-390,-527,-156,-29
82,-292,-375,104,229,-334,-87,-258,-361,-561,-302,-146
73,-268,-341,97,207,-305,-63,-219,-312,-561,-361,-195
73,-239,-312,82,192,-275,-53,-190,-268,-522,-370,-209
73,-214,-287,70,180,-251,-48,-165,-224,-497,-370,-200
63,-195,-258,65,161,-226,-48,-151,-175,-473,-380,-209
58,-180,-239,61,148,-209,-39,-136,-131,-419,-370,-214
53,-156,-209,51,131,-183,-14,-102,-87,-380,-346,-195
43,-131,-175,43,109,-153,0,-78,-63,-351,-331,-200
34,-112,-146,39,90,-129,14,-68,-39,-326,-331,-214
29,-92,-122,31,75,-107,14,-58,-24,-322,-331,-219
9,-73,-82,31,46,-78,14,-43,9,-302,-326,-229
14,-43,-58,14,36,-51,34,-9,48,-283,-326,-239
4,-34,-39,14,21,-36,43,14,102,-248,-326,-239
-4,-19,-14,12,4,-17,53,39,131,-209,-297,-234
-4,-14,-9,9,2,-12,73,53,156,-175,-283,-214
4,-14,-19,4,12,-17,87,68,175,-161,-263,-190
4,-9,-14,2,9,-12,97,58,170,-161,-253,-190
9,-9,-19,0,14,-14,97,58,170,-165,-253,-180
9,-14,-24,2,17,-19,97,58,170,-175,-263,-195
4,-19,-24,7,14,-21,97,68,180,-175,-268,-209
4,-19,-24,7,14,-21,87,73,185,-180,-273,-224
9,-19,-29,4,19,-24,92,82,200,-161,-278,-224
14,-19,-34,2,24,-26,92,87,209,-151,-283,-224
19,-19,-39,0,29,-29,97,97,214,-141,-283,-219
24,-9,-34,-7,29,-21,107,87,214,-131,-273,-204
24,-9,-34,-7,29,-21,107,78,214,-141,-268,-195
24,-9,-34,-7,29,-21,107,78,209,-146,-268,-190
24,-4,-29,-9,26,-17,107,78,209,-146,-268,-190
24,4,-19,-14,21,-7,97,78,209,-156,-283,-204
24,4,-19,-14,21,-7,97,82,219,-151,-283,-209
19,4,-14,-12,17,-4,97,82,224,-146,-283,-209
19,4,-14,-12,17,-4,97,82,224,-141,-283,-204
19,-4,-24,-7,21,-14,97,82,214,-136,-268,-214
24,0,-24,-12,24,-12,97,78,219,-136,-268,-209
24,0,-24,-12,24,-12,97,78,219,-136,-268,-209
24,0,-24,-12,24,-12,97,78,219,-141,-268,-209
14,-4,-19,-4,17,-12,107,92,234,-136,-253,-200
14,-4,-19,-4,17,-12,107,92,234,-126,-253,-200
14,-4,-19,-4,17,-12,107,92,239,-117,-253,-200
19,-4,-24,-7,21,-14,107,97,244,-107,-253,-200
19,-14,-34,-2,26,-24,102,97,253,-117,-258,-195
19,-9,-29,-4,24,-19,102,97,253,-117,-258,-195
19,-9,-29,-4,24,-19,102,97,253,-117,-258,-195
19,-9,-29,-4,24,-19,102,97,253,-117,-258,-195
19,4,-14,-12,17,-4,102,97,248,-117,-258,-200
19,4,-14,-12,17,-4,102,97,253,-112,-258,-200
19,9,-9,-14,14,0,102,97,258,-112,-258,-200
19,9,-9,-14,14,0,102,102,263,-112,-258,-195
19,19,0,-19,9,9,112,102,273,-107,-268,-200
19,24,4,-21,7,14,112,102,273,-107,-268,-204
24,29,4,-26,9,17,112,107,273,-107,-268,-209
24,29,4,-26,9,17,112,107,273,-107,-268,-214
19,29,9,-24,4,19,102,107,273,-97,-268,-209
14,29,14,-21,0,21,102,107,273,-97,-268,-209
9,29,19,-19,-4,24,102,107,268,-87,-268,-209
4,29,24,-17,-9,26,102,107,273,-87,-268,-209
14,19,4,-17,4,12,112,107,287,-92,-263,-219
14,24,9,-19,2,17,112,107,287,-92,-263,-214
14,24,9,-19,2,17,112,107,287,-92,-263,-214
14,24,9,-19,2,17,112,112,287,-87,-258,-214
14,14,0,-14,7,7,112,122,302,-87,-248,-214
14,14,0,-14,7,7,117,122,307,-82,-248,-214
14,14,0,-14,7,7,117,122,307,-82,-248,-214
14,14,0,-14,7,7,117,126,317,-82,-248,-214
14,14,0,-14,7,7,107,126,331,-68,-248,-204
14,19,4,-17,4,12,107,126,336,-68,-244,-204
14,19,4,-17,4,12,107,131,336,-58,-244,-200
19,24,4,-21,7,14,107,131,346,-53,-244,-200
9,24,14,-17,-2,19,112,136,341,-48,-229,-209
9,24,14,-17,-2,19,112,136,346,-48,-229,-204
9,29,19,-19,-4,24,112,136,351,-48,-224,-204
9,29,19,-19,-4,24,112,141,356,-48,-224,-204
19,39,19,-29,0,29,122,141,370,-34,-234,-195
19,43,24,-31,-2,34,126,146,375,-24,-229,-190
19,53,34,-36,-7,43,126,146,380,-19,-229,-190
19,58,39,-39,-9,48,126,151,395,-14,-224,-190
9,48,39,-29,-14,43,122,146,395,-19,-224,-195
9,53,43,-31,-17,48,122,151,405,-14,-224,-204
9,53,43,-31,-17,48,117,151,409,-14,-219,-185
9,53,43,-31,-17,48,112,156,414,-14,-219,-185
19,53,34,-36,-7,43,117,161,429,4,-219,-185
19,53,34,-36,-7,43,122,165,439,4,-214,-180
19,58,39,-39,-9,48,122,170,448,9,-214,-180
19,58,39,-39,-9,48,122,180,453,14,-209,-170
14,48,34,-31,-9,41,122,180,468,29,-209,-161
9,53,43,-31,-17,48,122,185,478,29,-204,-165
4,53,48,-29,-21,51,126,185,483,29,-204,-165
0,53,53,-26,-26,53,126,190,488,39,-204,-165
9,58,48,-34,-19,53,131,190,497,39,-190,-161
9,58,48,-34,-19,53,131,190,502,48,-190,-161
9,58,48,-34,-19,53,131,190,517,48,-190,-165
9,63,53,-36,-21,58,131,195,522,48,-185,-165
19,73,53,-46,-17,63,131,204,531,53,-185,-161
14,73,58,-43,-21,65,136,209,536,58,-180,-161
14,78,63,-46,-24,70,136,209,541,58,-180,-156
14,78,63,-46,-24,70,136,214,546,58,-175,-151
14,82,68,-48,-26,75,126,204,556,63,-185,-161
14,87,73,-51,-29,80,126,209,561,63,-185,-161
14,97,82,-56,-34,90,126,209,561,63,-180,-156
14,102,87,-58,-36,95,126,209,561,63,-180,-156
14,92,78,-53,-31,85,126,219,575,63,-170,-146
14,92,78,-53,-31,85,126,219,575,63,-165,-146
19,92,73,-56,-26,82,126,219,575,63,-165,-146
19,97,78,-58,-29,87,126,224,580,58,-165,-141
14,87,73,-51,-29,80,126,214,575,63,-165,-136
14,87,73,-51,-29,80,126,214,566,58,-165,-136
14,87,73,-51,-29,80,126,214,561,53,-165,-136
14,82,68,-48,-26,75,122,214,546,48,-170,-136
14,73,58,-43,-21,65,122,214,551,53,-175,-136
14,73,58,-43,-21,65,131,209,551,48,-175,-136
14,73,58,-43,-21,65,131,209,546,43,-175,-136
14,73,58,-43,-21,65,131,209,541,34,-175,-136
4,82,78,-43,-36,80,126,214,527,19,-175,-126
4,82,78,-43,-36,80,126,214,527,14,-180,-131
4,82,78,-43,-36,80,126,214,522,9,-185,-136
4,82,78,-43,-36,80,126,209,517,0,-190,-136
4,82,78,-43,-36,80,112,195,492,-19,-195,-141
4,82,78,-43,-36,80,107,195,488,-24,-204,-146
4,82,78,-43,-36,80,107,190,478,-34,-214,-161
4,78,73,-41,-34,75,107,190,468,-39,-224,-165
-4,78,82,-36,-43,80,117,190,458,-39,-229,-170
-4,78,82,-36,-43,80,112,180,453,-39,-234,-170
-4,78,82,-36,-43,80,112,175,444,-53,-239,-165
-4,78,82,-36,-43,80,107,170,434,-58,-244,-165
4,68,63,-36,-29,65,112,170,414,-68,-248,-165
4,68,63,-36,-29,65,107,165,400,-73,-253,-165
4,68,63,-36,-29,65,102,161,390,-82,-258,-175
4,63,58,-34,-26,61,102,156,375,-92,-263,-180
-4,63,68,-29,-36,65,97,151,370,-92,-253,-185
-4,63,68,-29,-36,65,97,146,356,-97,-263,-185
-4,63,68,-29,-36,65,92,141,346,-102,-263,-185
-4,63,68,-29,-36,65,87,136,336,-102,-263,-185
4,63,58,-34,-26,61,87,131,326,-102,-268,-185
4,63,58,-34,-26,61,82,126,317,-112,-268,-185
4,63,58,-34,-26,61,78,122,307,-112,-268,-185
4,63,58,-34,-26,61,78,117,297,-107,-268,-185
4,53,48,-29,-21,51,82,112,287,-112,-258,-190
4,53,48,-29,-21,51,78,107,278,-112,-253,-190
4,53,48,-29,-21,51,78,102,268,-117,-253,-190
4,53,48,-29,-21,51,73,97,258,-117,-253,-185
9,53,43,-31,-17,48,63,92,244,-126,-248,-195
9,53,43,-31,-17,48,58,92,234,-126,-248,-195
14,53,39,-34,-12,46,58,87,229,-126,-253,-190
14,48,34,-31,-9,41,58,82,219,-126,-263,-190
4,48,43,-26,-19,46,58,73,219,-131,-253,-190
4,48,43,-26,-19,46,48,68,214,-131,-244,-190
4,48,43,-26,-19,46,48,63,209,-131,-244,-190
4,48,43,-26,-19,46,48,63,200,-131,-244,-190
14,43,29,-29,-7,36,39,63,195,-136,-253,-180
14,43,29,-29,-7,36,39,63,190,-136,-253,-175
19,43,24,-31,-2,34,34,58,190,-136,-244,-175
19,43,24,-31,-2,34,34,58,185,-136,-244,-175
19,48,29,-34,-4,39,43,68,175,-131,-244,-185
19,48,29,-34,-4,39,43,68,170,-131,-239,-180
19,48,29,-34,-4,39,43,63,165,-131,-239,-180
19,48,29,-34,-4,39,39,63,165,-131,-234,-180
19,39,19,-29,0,29,39,63,175,-126,-224,-170
19,34,14,-26,2,24,39,63,175,-126,-224,-165
24,29,4,-26,9,17,39,63,175,-126,-224,-165
24,29,4,-26,9,17,39,63,175,-126,-219,-170
19,29,9,-24,4,19,39,58,161,-126,-224,-175
14,24,9,-19,2,17,39,58,161,-126,-229,-180
14,24,9,-19,2,17,39,58,161,-122,-234,-185
14,24,9,-19,2,17,39,58,161,-122,-234,-190
14,24,9,-19,2,17,39,58,161,-122,-224,-175
14,24,9,-19,2,17,39,58,161,-122,-229,-175
14,24,9,-19,2,17,39,58,161,-122,-229,-175
14,19,4,-17,4,12,39,58,161,-122,-234,-175
14,9,-4,-12,9,2,39,58,161,-131,-234,-185
14,9,-4,-12,9,2,39,58,161,-131,-234,-185
19,9,-9,-14,14,0,39,58,165,-131,-239,-190
19,4,-14,-12,17,-4,39,58,165,-136,-239,-190
24,9,-14,-17,19,-2,39,58,165,-136,-248,-190
24,9,-14,-17,19,-2,39,58,161,-136,-248,-190
24,9,-14,-17,19,-2,39,63,161,-136,-253,-195
24,4,-19,-14,21,-7,43,63,165,-136,-253,-195
14,4,-9,-9,12,-2,53,63,165,-136,-244,-204
14,4,-9,-9,12,-2,53,68,165,-136,-244,-204
19,4,-14,-12,17,-4,53,68,170,-136,-244,-204
19,4,-14,-12,17,-4,53,68,170,-141,-244,-209
19,4,-14,-12,17,-4,53,68,170,-131,-248,-204
19,4,-14,-12,17,-4,53,68,170,-131,-248,-204
19,4,-14,-12,17,-4,53,63,170,-131,-253,-200
19,4,-14,-12,17,-4,58,63,170,-131,-253,-200
9,-4,-14,-2,12,-9,58,73,170,-141,-268,-219
9,-4,-14,-2,12,-9,58,78,170,-141,-268,-219
4,-4,-9,0,7,-7,58,78,175,-136,-273,-219
4,-4,-9,0,7,-7,58,78,175,-136,-283,-219
4,-4,-9,0,7,-7,58,68,175,-136,-278,-229
4,-4,-9,0,7,-7,58,68,175,-136,-278,-229
4,-4,-9,0,7,-7,58,68,175,-136,-278,-229
4,-4,-9,0,7,-7,58,68,180,-136,-273,-229
4,-4,-9,0,7,-7,58,78,170,-136,-273,-229
4,-4,-9,0,7,-7,58,78,170,-136,-278,-229
4,-4,-9,0,7,-7,58,78,170,-136,-278,-234
4,-4,-9,0,7,-7,53,78,165,-131,-283,-234
9,0,-9,-4,9,-4,53,78,165,-122,-283,-229
14,4,-9,-9,12,-2,53,78,170,-122,-278,-229
19,9,-9,-14,14,0,53,78,180,-122,-273,-229
19,14,-4,-17,12,4,53,78,185,-117,-268,-229
14,4,-9,-9,12,-2,58,78,175,-112,-268,-239
9,9,0,-9,4,4,58,78,180,-112,-268,-239
4,9,4,-7,0,7,58,78,180,-112,-268,-239
0,9,9,-4,-4,9,58,78,175,-112,-263,-239
0,4,4,-2,-2,4,73,78,175,-107,-268,-234
0,0,0,0,0,0,73,78,185,-107,-258,-229
4,-4,-9,0,7,-7,73,78,185,-107,-253,-219
4,-9,-14,2,9,-12,68,78,185,-102,-244,-214
-4,0,4,2,-4,2,68,82,185,-92,-239,-214
-4,4,9,0,-7,7,68,82,180,-87,-234,-204
-4,4,9,0,-7,7,68,82,180,-87,-229,-204
-4,4,9,0,-7,7,68,82,180,-87,-229,-200
0,14,14,-7,-7,14,68,92,200,-82,-229,-190
0,9,9,-4,-4,9,68,92,195,-82,-234,-190
9,9,0,-9,4,4,58,87,195,-87,-224,-165
19,9,-9,-14,14,0,68,78,185,-87,-219,-156
19,9,-9,-14,14,0,68,78,185,-87,-214,-156
19,9,-9,-14,14,0,68,78,185,-87,-209,-156
19,9,-9,-14,14,0,68,78,185,-87,-204,-156
19,14,-4,-17,12,4,68,87,190,-78,-195,-156
19,24,4,-21,7,14,68,87,190,-73,-190,-156
19,29,9,-24,4,19,68,92,200,-63,-175,-156
19,34,14,-26,2,24,68,92,200,-58,-165,-151
14,34,19,-24,-2,26,73,82,200,-53,-151,-141
14,39,24,-26,-4,31,73,82,204,-48,-141,-136
24,43,19,-34,2,31,73,87,209,-43,-136,-122
24,48,24,-36,0,36,73,87,219,-39,-136,-112
24,48,24,-36,0,36,73,102,224,-24,-122,-112
24,53,29,-39,-2,41,73,102,229,-19,-117,-102
29,58,29,-43,0,43,73,107,229,-19,-107,-102
29,63,34,-46,-2,48,73,107,229,-14,-102,-102
34,53,19,-43,7,36,78,107,234,-14,-97,-97
34,53,19,-43,7,36,78,107,234,-9,-92,-92
39,63,24,-51,7,43,78,107,239,-9,-82,-82
39,68,29,-53,4,48,78,117,239,-9,-73,-78
39,78,39,-58,0,58,68,112,248,-4,-68,-82
43,78,34,-61,4,56,68,117,248,0,-68,-82
43,78,34,-61,4,56,68,122,248,0,-68,-82
43,78,34,-61,4,56,58,122,244,0,-68,-82
48,92,43,-70,2,68,39,112,244,0,-68,-73
48,112,63,-80,-7,87,34,107,244,0,-68,-73
48,131,82,-90,-17,107,29,92,248,9,-63,-63
53,146,92,-100,-19,119,29,78,248,14,-53,-63
43,146,102,-95,-29,124,34,73,244,24,-48,-43
48,161,112,-104,-31,136,19,58,244,34,-34,-39
48,170,122,-109,-36,146,9,48,244,43,-24,-34
53,180,126,-117,-36,153,-9,34,244,53,-14,-29
63,200,136,-131,-36,168,-24,24,253,43,-19,-29
63,200,136,-131,-36,168,-39,24,253,43,-14,-24
68,200,131,-134,-31,165,-39,24,248,39,-14,-24
73,200,126,-136,-26,163,-43,24,244,34,-24,-24
82,190,107,-136,-12,148,-63,0,219,19,-29,-43
82,185,102,-134,-9,143,-68,-9,200,9,-43,-48
82,180,97,-131,-7,139,-68,-14,195,0,-43,-53
82,170,87,-126,-2,129,-63,-14,195,0,-48,-53
82,161,78,-122,2,119,-53,-4,195,4,-43,-48
78,146,68,-112,4,107,-48,-4,200,0,-48,-43
78,136,58,-107,9,97,-48,0,200,-4,-48,-34
78,131,53,-104,12,92,-48,0,200,-4,-48,-29
78,131,53,-104,12,92,-39,0,209,-4,-53,-34
78,136,58,-107,9,97,-39,9,224,4,-39,-24
87,136,48,-112,19,92,-39,14,229,9,-34,-14
87,136,48,-112,19,92,-34,14,234,14,-34,-14
87,136,48,-112,19,92,-29,14,224,24,-24,-19
87,131,43,-109,21,87,-29,19,224,24,-34,-24
82,122,39,-102,21,80,-29,19,219,9,-34,-34
78,112,34,-95,21,73,-24,19,214,-4,-48,-39
82,87,4,-85,39,46,-14,29,219,-14,-68,-58
73,68,-4,-70,39,31,-9,39,219,-19,-78,-68
73,58,-14,-65,43,21,0,43,219,-19,-82,-73
58,53,-4,-56,31,24,9,53,219,-19,-82,-73
39,48,9,-43,14,29,14,58,209,-34,-87,-68
39,48,9,-43,14,29,19,63,209,-34,-97,-82
24,43,19,-34,2,31,24,63,209,-34,-102,-92
14,39,24,-26,-4,31,34,63,204,-39,-102,-97
9,24,14,-17,-2,19,48,63,214,-29,-117,-97
0,19,19,-9,-9,19,48,63,214,-29,-122,-102
-4,4,9,0,-7,7,53,68,214,-39,-126,-107
-4,-4,0,4,-2,-2,53,68,214,-43,-131,-112
4,-4,-9,0,7,-7,53,63,209,-43,-141,-122
0,-9,-9,4,4,-9,48,68,209,-39,-141,-126
-4,-14,-9,9,2,-12,43,68,209,-39,-146,-126
-4,-14,-9,9,2,-12,39,78,214,-43,-146,-126
-4,-14,-9,9,2,-12,43,87,214,-43,-136,-117
-4,-19,-14,12,4,-17,43,87,214,-43,-136,-117
-4,-19,-14,12,4,-17,43,87,209,-43,-136,-117
-4,-24,-19,14,7,-21,43,82,209,-43,-136,-117
-4,-24,-19,14,7,-21,43,73,209,-43,-146,-126
-4,-24,-19,14,7,-21,43,73,209,-43,-146,-131
-4,-24,-19,14,7,-21,48,73,209,-48,-146,-131
-4,-29,-24,17,9,-26,48,73,209,-48,-146,-131
-9,-29,-19,19,4,-24,58,73,204,-39,-146,-131
-9,-29,-19,19,4,-24,63,87,214,-43,-136,-122
-14,-39,-24,26,4,-31,63,97,229,-39,-136,-136
-14,-34,-19,24,2,-26,63,97,239,-29,-141,-136
-4,-34,-29,19,12,-31,53,87,258,-14,-131,-126
0,-24,-24,12,12,-24,39,73,283,19,-107,-112
14,-14,-29,0,21,-21,29,63,322,73,-87,-97
24,9,-14,-17,19,-2,24,53,395,136,-68,-87
14,29,14,-21,0,21,24,53,492,214,-43,-78
19,58,39,-39,-9,48,14,58,624,331,0,-58
19,112,92,-65,-36,102,14,73,795,453,34,-58
14,170,156,-92,-70,163,39,122,976,600,63,-68
14,224,209,-119,-97,217,63,146,1117,761,102,-73
4,258,253,-131,-124,256,87,146,1156,902,151,-58
19,273,253,-146,-117,263,102,146,1093,976,190,-43
29,278,248,-153,-109,263,112,141,858,961,219,-29
24,292,268,-158,-122,280,102,78,463,883,258,4
48,326,278,-187,-114,302,48,-87,-58,761,322,68
78,366,287,-222,-104,326,-43,-253,-561,619,424,156
112,429,317,-270,-102,373,-151,-351,-873,541,570,283
156,536,380,-346,-112,458,-253,-478,-1122,527,771,434
209,634,424,-422,-107,529,-400,-649,-1439,531,990,600
268,712,444,-490,-87,578,-551,-824,-1776,527,1244,780
322,810,488,-566,-82,649,-683,-1019,-2117,507,1483,995
356,888,531,-622,-87,710,-805,-1254,-2474,400,1678,1185
385,927,541,-656,-78,734,-917,-1468,-2806,253,1854,1351
424,888,463,-656,-19,675,-995,-1605,-3050,112,2078,1542
444,800,356,-622,43,578,-1054,-1644,-3162,39,2361,1747
468,707,239,-588,114,473,-1068,-1615,-3113,68,2679,1961
488,605,117,-546,185,361,-1058,-1556,-2967,165,2952,2122
502,473,-29,-488,265,222,-1034,-1483,-2766,239,3128,2210
531,346,-185,-439,358,80,-976,-1361,-2518,292,3225,2269
536,244,-292,-390,414,-24,-946,-1254,-2293,312,3303,2322
536,146,-390,-341,463,-122,-907,-1156,-2093,317,3337,2366
546,19,-527,-283,536,-253,-844,-1034,-1834,356,3298,2357
531,-87,-619,-222,575,-353,-771,-897,-1566,424,3245,2322
497,-175,-673,-161,585,-424,-692,-756,-1342,448,3142,2215
458,-263,-722,-97,590,-492,-600,-614,-1146,370,2845,1995
409,-356,-766,-26,588,-561,-492,-502,-976,117,2381,1708
356,-434,-790,39,573,-612,-405,-419,-824,-151,1888,1390
297,-488,-785,95,541,-636,-326,-361,-668,-248,1512,1098
248,-497,-746,124,497,-622,-268,-341,-551,-258,1161,834
180,-463,-644,141,412,-553,-204,-317,-478,-356,722,551
97,-434,-531,168,314,-483,-141,-283,-429,-483,239,253
34,-409,-444,187,239,-427,-87,-248,-390,-527,-87,0
4,-390,-395,192,200,-392,-48,-209,-341,-541,-273,-146
-4,-366,-361,185,178,-363,-24,-180,-292,-561,-361,-224
4,-336,-341,165,173,-339,-14,-141,-239,-541,-370,-239
14,-302,-317,143,165,-309,-9,-117,-185,-478,-351,-239
14,-283,-297,134,156,-290,0,-92,-126,-434,-361,-239
9,-248,-258,119,134,-253,0,-58,-82,-380,-361,-244
-4,-214,-209,109,102,-212,14,-43,-48,-341,-346,-234
-24,-200,-175,112,75,-187,39,-29,-24,-302,-331,-239
-34,-180,-146,107,56,-163,53,-9,9,-278,-322,-244
-39,-161,-122,100,41,-141,63,-9,34,-273,-322,-239
-48,-131,-82,90,17,-107,73,4,58,-263,-307,-248
-43,-122,-78,82,17,-100,92,39,107,-234,-307,-248
-53,-112,-58,82,2,-85,102,63,151,-190,-307,-248
-53,-97,-43,75,-4,-70,102,87,180,-151,-287,-253
-53,-82,-29,68,-12,-56,112,102,204,-107,-273,-234
-53,-73,-19,63,-17,-46,117,97,214,-92,-263,-229
-53,-63,-9,58,-21,-36,126,97,209,-102,-244,-224
-48,-58,-9,53,-19,-34,126,97,209,-107,-244,-209
-48,-58,-9,53,-19,-34,126,97,209,-117,-253,-219
-53,-58,-4,56,-24,-31,126,107,219,-117,-258,-229
-48,-58,-9,53,-19,-34,136,112,234,-112,-258,-224
-48,-58,-9,53,-19,-34,141,122,248,-92,-258,-224
-48,-58,-9,53,-19,-34,141,126,258,-82,-258,-224
-48,-58,-9,53,-19,-34,146,136,263,-73,-253,-219
-53,-58,-4,56,-24,-31,146,126,253,-73,-244,-229
-53,-58,-4,56,-24,-31,146,117,253,-82,-239,-224
-53,-58,-4,56,-24,-31,146,117,248,-87,-239,-224
-53,-53,0,53,-26,-26,146,117,248,-87,-239,-229
-53,-53,0,53,-26,-26,141,126,258,-87,-253,-234
-53,-53,0,53,-26,-26,136,131,268,-82,-253,-239
-58,-53,4,56,-31,-24,131,131,273,-78,-253,-239
-58,-53,4,56,-31,-24,126,131,273,-73,-253,-234
-58,-43,14,51,-36,-14,117,126,268,-68,-258,-244
-53,-39,14,46,-34,-12,117,117,268,-68,-258,-239
-53,-39,14,46,-34,-12,117,112,263,-68,-258,-239
-53,-39,14,46,-34,-12,117,107,258,-73,-258,-239
-43,-43,0,43,-21,-21,122,122,273,-73,-244,-229
-43,-43,0,43,-21,-21,126,122,273,-68,-244,-229
-43,-43,0,43,-21,-21,131,122,278,-63,-244,-229
-39,-43,-4,41,-17,-24,136,126,283,-58,-244,-229
-48,-43,4,46,-26,-19,141,136,283,-48,-239,-214
-48,-39,9,43,-29,-14,141,136,283,-48,-239,-214
-48,-39,9,43,-29,-14,141,136,283,-48,-239,-214
-48,-39,9,43,-29,-14,141,136,283,-48,-239,-214
-39,-24,14,31,-26,-4,131,126,287,-48,-239,-219
-39,-24,14,31,-26,-4,131,126,292,-43,-239,-219
-39,-19,19,29,-29,0,131,126,297,-43,-239,-219
-39,-19,19,29,-29,0,131,131,302,-43,-239,-214
-39,-9,29,24,-34,9,131,131,302,-48,-229,-224
-39,-4,34,21,-36,14,131,131,302,-48,-229,-224
-34,0,34,17,-34,17,131,136,302,-48,-229,-224
-34,0,34,17,-34,17,131,136,302,-48,-229,-224
-34,0,34,17,-34,17,141,136,307,-39,-229,-219
-34,0,34,17,-34,17,141,136,312,-39,-229,-219
-34,0,34,17,-34,17,141,136,312,-29,-229,-219
-34,0,34,17,-34,17,141,136,322,-29,-229,-219
-43,-9,34,26,-39,12,131,146,326,-24,-224,-219
-43,-4,39,24,-41,17,131,146,326,-24,-224,-214
-43,-4,39,24,-41,17,131,146,326,-24,-224,-214
-43,-4,39,24,-41,17,131,151,326,-19,-219,-214
-34,-4,29,19,-31,12,131,141,331,-19,-219,-224
-34,-4,29,19,-31,12,136,141,336,-14,-219,-224
-34,-4,29,19,-31,12,136,141,336,-14,-219,-224
-34,-4,29,19,-31,12,136,146,346,-14,-219,-224
-34,-4,29,19,-31,12,126,146,351,-9,-209,-214
-34,0,34,17,-34,17,126,146,356,-9,-204,-214
-34,0,34,17,-34,17,126,151,356,0,-204,-209
-29,4,34,12,-31,19,126,151,366,4,-204,-209
-29,4,34,12,-31,19,122,156,370,9,-209,-200
-29,4,34,12,-31,19,122,156,375,9,-209,-195
-29,9,39,9,-34,24,122,156,380,9,-204,-195
-29,9,39,9,-34,24,122,161,385,9,-204,-195
-19,14,34,2,-26,24,131,151,390,14,-214,-204
-19,14,34,2,-26,24,136,156,395,24,-209,-200
-19,19,39,0,-29,29,136,156,400,29,-209,-200
-19,19,39,0,-29,29,136,161,414,34,-204,-200
-29,19,48,4,-39,34,136,165,414,39,-195,-204
-29,24,53,2,-41,39,141,170,424,43,-195,-214
-29,24,53,2,-41,39,141,170,429,43,-190,-195
-29,24,53,2,-41,39,141,175,434,43,-190,-195
-29,24,53,2,-41,39,136,175,439,53,-190,-204
-29,24,53,2,-41,39,141,175,448,53,-185,-200
-29,29,58,0,-43,43,141,175,458,58,-185,-200
-29,29,58,0,-43,43,141,180,463,63,-180,-190
-19,34,53,-7,-36,43,141,180,478,78,-180,-180
-19,43,63,-12,-41,53,141,185,488,78,-175,-185
-19,48,68,-14,-43,58,146,185,492,78,-175,-185
-19,53,73,-17,-46,63,146,190,497,87,-175,-185
-19,63,82,-21,-51,73,151,200,507,87,-170,-190
-19,68,87,-24,-53,78,151,200,512,97,-170,-190
-19,73,92,-26,-56,82,151,200,527,97,-170,-195
-19,82,102,-31,-61,92,151,204,531,97,-165,-195
-19,68,87,-24,-53,78,141,195,531,112,-156,-185
-24,63,87,-19,-56,75,146,200,536,117,-151,-180
-24,63,87,-19,-56,75,146,200,541,117,-151,-170
-24,58,82,-17,-53,70,146,204,546,117,-146,-161
-14,48,63,-17,-39,56,146,214,556,117,-146,-170
-14,48,63,-17,-39,56,146,219,561,112,-146,-170
-14,53,68,-19,-41,61,146,219,561,107,-141,-165
-14,53,68,-19,-41,61,146,219,561,102,-141,-165
-24,58,82,-17,-53,70,136,209,566,112,-151,-165
-24,63,87,-19,-56,75,136,209,566,112,-146,-165
-19,68,87,-24,-53,78,136,209,566,112,-146,-165
-19,78,97,-29,-58,87,136,214,570,107,-146,-161
-24,78,102,-26,-63,90,146,214,561,92,-146,-156
-24,78,102,-26,-63,90,146,214,556,87,-146,-156
-24,78,102,-26,-63,90,146,214,556,82,-146,-156
-24,73,97,-24,-61,85,141,214,546,78,-151,-156
-34,82,117,-24,-75,100,141,224,551,78,-165,-156
-34,82,117,-24,-75,100,151,219,551,78,-165,-156
-34,82,117,-24,-75,100,151,219,546,78,-165,-156
-34,82,117,-24,-75,100,151,219,541,73,-165,-156
-34,73,107,-19,-70,90,146,214,527,68,-165,-156
-34,73,107,-19,-70,90,146,214,527,63,-170,-161
-34,73,107,-19,-70,90,146,214,522,58,-175,-165
-34,73,107,-19,-70,90,146,209,517,48,-180,-165
-24,73,97,-24,-61,85,141,204,502,39,-180,-165
-24,73,97,-24,-61,85,136,204,497,34,-185,-165
-24,73,97,-24,-61,85,136,200,488,24,-190,-175
-24,68,92,-21,-58,80,136,200,478,19,-195,-175
-14,78,92,-31,-53,85,136,209,478,9,-200,-180
-14,78,92,-31,-53,85,131,200,473,9,-204,-180
-14,78,92,-31,-53,85,131,195,463,-4,-209,-175
-14,78,92,-31,-53,85,126,190,453,-9,-214,-175
-14,78,92,-31,-53,85,126,180,434,-19,-229,-180
-14,78,92,-31,-53,85,126,175,419,-24,-234,-185
-14,78,92,-31,-53,85,126,170,409,-34,-239,-200
-14,73,87,-29,-51,80,131,165,395,-43,-244,-209
-4,63,68,-29,-36,65,126,161,400,-43,-234,-209
-4,63,68,-29,-36,65,126,156,385,-48,-244,-204
-4,63,68,-29,-36,65,122,151,375,-53,-244,-200
-4,63,68,-29,-36,65,117,146,366,-53,-244,-195
-4,73,78,-34,-41,75,117,151,346,-53,-248,-195
-4,73,78,-34,-41,75,112,146,336,-63,-248,-195
-4,73,78,-34,-41,75,107,141,326,-63,-248,-195
-4,73,78,-34,-41,75,107,136,317,-58,-248,-195
4,73,68,-39,-31,70,102,131,307,-63,-248,-190
4,73,68,-39,-31,70,97,126,297,-63,-244,-190
4,73,68,-39,-31,70,97,122,287,-68,-244,-190
4,73,68,-39,-31,70,92,117,278,-68,-244,-185
9,82,73,-46,-31,78,92,122,283,-68,-234,-195
9,82,73,-46,-31,78,87,122,273,-68,-229,-195
14,82,68,-48,-26,75,87,117,268,-68,-229,-190
14,78,63,-46,-24,70,87,112,258,-68,-234,-190
24,68,43,-46,-9,56,87,112,268,-53,-229,-180
24,68,43,-46,-9,56,78,107,263,-53,-214,-180
24,68,43,-46,-9,56,78,102,258,-53,-209,-180
24,68,43,-46,-9,56,78,102,248,-53,-204,-180
24,53,29,-39,-2,41,87,92,244,-58,-204,-180
24,53,29,-39,-2,41,87,92,239,-58,-204,-175
29,53,24,-41,2,39,82,87,239,-58,-195,-175
29,53,24,-41,2,39,82,87,234,-58,-195,-175
29,58,29,-43,0,43,82,97,244,-53,-204,-175
29,58,29,-43,0,43,82,97,239,-53,-200,-170
29,58,29,-43,0,43,82,92,234,-53,-200,-170
29,58,29,-43,0,43,78,92,234,-53,-195,-170
39,43,4,-41,17,24,78,92,224,-48,-175,-161
39,43,4,-41,17,24,78,92,224,-48,-175,-156
43,43,0,-43,21,21,78,92,224,-48,-175,-156
43,48,4,-46,19,26,78,92,224,-48,-170,-161
39,39,0,-39,19,19,78,107,229,-48,-170,-170
34,34,0,-34,17,17,78,107,229,-48,-170,-180
34,34,0,-34,17,17,78,107,229,-43,-170,-190
34,34,0,-34,17,17,78,107,229,-43,-165,-200
43,34,-9,-39,26,12,87,97,229,-53,-170,-185
43,34,-9,-39,26,12,87,97,229,-53,-180,-175
43,34,-9,-39,26,12,87,97,229,-53,-185,-165
43,29,-14,-36,29,7,87,97,229,-53,-195,-156
34,39,4,-36,14,21,78,97,219,-63,-185,-156
34,39,4,-36,14,21,78,97,219,-63,-185,-156
39,39,0,-39,19,19,78,97,224,-63,-190,-161
39,34,-4,-36,21,14,78,97,224,-68,-190,-161
43,19,-24,-31,34,-2,78,97,234,-63,-180,-170
43,19,-24,-31,34,-2,78,97,229,-58,-180,-170
43,19,-24,-31,34,-2,78,102,229,-53,-185,-175
43,14,-29,-29,36,-7,82,102,234,-48,-185,-175
34,14,-19,-24,26,-2,92,102,234,-58,-195,-175
34,14,-19,-24,26,-2,92,107,234,-58,-195,-175
39,14,-24,-26,31,-4,92,107,239,-58,-195,-175
39,14,-24,-26,31,-4,92,107,239,-63,-195,-180
39,24,-14,-31,26,4,82,107,239,-63,-209,-190
39,24,-14,-31,26,4,82,107,239,-63,-209,-195
39,24,-14,-31,26,4,82,102,239,-63,-214,-195
39,24,-14,-31,26,4,87,102,239,-63,-214,-200
39,14,-24,-26,31,-4,87,112,239,-53,-214,-204
39,14,-24,-26,31,-4,87,117,239,-53,-209,-200
34,14,-19,-24,26,-2,87,117,244,-48,-209,-195
34,14,-19,-24,26,-2,87,117,244,-48,-214,-190
34,14,-19,-24,26,-2,87,117,244,-58,-219,-200
34,14,-19,-24,26,-2,87,117,244,-58,-219,-200
34,14,-19,-24,26,-2,87,117,244,-58,-219,-200
34,14,-19,-24,26,-2,87,117,248,-58,-214,-200
43,14,-29,-29,36,-7,87,117,239,-58,-214,-190
43,14,-29,-29,36,-7,87,117,239,-58,-219,-190
43,14,-29,-29,36,-7,87,117,239,-58,-219,-195
43,14,-29,-29,36,-7,82,117,234,-53,-224,-195
43,14,-29,-29,36,-7,82,107,239,-43,-219,-200
43,14,-29,-29,36,-7,82,107,239,-43,-219,-200
43,14,-29,-29,36,-7,82,107,244,-43,-219,-200
39,14,-24,-26,31,-4,82,107,244,-39,-219,-200
48,24,-24,-36,36,0,97,117,244,-34,-209,-190
48,29,-19,-39,34,4,97,117,248,-34,-209,-190
48,29,-19,-39,34,4,97,117,248,-34,-209,-190
48,29,-19,-39,34,4,97,117,244,-34,-204,-190
39,29,-9,-34,24,9,92,117,234,-39,-214,-200
39,29,-9,-34,24,9,92,117,244,-39,-209,-200
43,29,-14,-36,29,7,92,117,244,-39,-209,-195
43,29,-14,-36,29,7,87,117,244,-34,-204,-195
43,29,-14,-36,29,7,87,102,234,-34,-209,-195
43,34,-9,-39,26,12,87,102,229,-29,-204,-185
43,34,-9,-39,26,12,87,102,229,-29,-200,-185
43,34,-9,-39,26,12,87,102,229,-29,-200,-180
48,24,-24,-36,36,0,97,112,239,-24,-180,-170
48,29,-19,-39,34,4,97,112,244,-24,-175,-161
48,29,-19,-39,34,4,97,112,244,-19,-170,-156
48,29,-19,-39,34,4,97,112,239,-19,-165,-156
53,29,-24,-41,39,2,87,112,239,-19,-165,-141
63,29,-34,-46,48,-2,87,112,239,-14,-161,-141
53,29,-24,-41,39,2,87,112,239,-9,-156,-136
53,29,-24,-41,39,2,87,112,239,-9,-151,-136
53,34,-19,-43,36,7,87,102,244,-19,-136,-117
53,34,-19,-43,36,7,87,102,244,-14,-131,-112
58,34,-24,-46,41,4,87,102,248,-9,-122,-102
58,34,-24,-46,41,4,87,102,248,-4,-112,-97
48,39,-9,-43,29,14,82,112,229,-19,-112,-112
53,39,-14,-46,34,12,82,107,229,-14,-112,-112
48,29,-19,-39,34,4,87,107,234,-9,-107,-107
58,39,-19,-48,39,9,87,107,234,-9,-97,-102
58,39,-19,-48,39,9,87,107,234,-9,-97,-97
58,39,-19,-48,39,9,87,107,234,-9,-97,-92
58,39,-19,-48,39,9,87,107,234,-9,-97,-87
48,34,-14,-41,31,9,87,107,239,0,-87,-78
48,43,-4,-46,26,19,87,107,239,4,-82,-78
48,48,0,-48,24,24,87,112,248,14,-68,-78
48,53,4,-51,21,29,87,112,248,19,-58,-73
53,63,9,-58,21,36,92,102,239,14,-53,-68
53,68,14,-61,19,41,92,102,244,19,-43,-68
63,73,9,-68,26,41,92,107,248,24,-39,-58
63,78,14,-70,24,46,92,107,258,29,-39,-53
63,78,14,-70,24,46,82,112,253,34,-39,-53
63,82,19,-73,21,51,82,112,258,39,-39,-43
68,87,19,-78,24,53,82,117,258,39,-34,-43
68,92,24,-80,21,58,82,117,258,43,-34,-43
82,102,19,-92,31,61,78,117,263,43,-34,-34
82,102,19,-92,31,61,78,117,263,48,-34,-34
87,112,24,-100,31,68,78,117,268,48,-29,-29
87,117,29,-102,29,73,78,126,268,48,-24,-29
82,117,34,-100,24,75,87,131,287,53,-24,-34
82,117,34,-100,24,75,87,136,287,58,-29,-34
78,117,39,-97,19,78,87,141,287,58,-34,-34
73,117,43,-95,14,80,78,141,283,58,-39,-34
87,136,48,-112,19,92,58,131,283,58,-39,-43
87,151,63,-119,12,107,53,126,283,58,-39,-43
87,165,78,-126,4,122,48,112,287,68,-34,-34
92,175,82,-134,4,129,48,97,287,73,-24,-34
102,185,82,-143,9,134,53,82,292,87,-19,-24
107,200,92,-153,7,146,39,68,292,92,-4,-19
107,209,102,-158,2,156,29,58,292,97,4,-14
112,219,107,-165,2,163,9,43,292,102,14,-9
112,229,117,-170,-2,173,-4,34,292,102,9,-4
112,229,117,-170,-2,173,-19,34,292,102,14,4
117,229,112,-173,2,170,-19,34,287,97,14,9
122,229,107,-175,7,168,-24,34,283,92,4,14
131,209,78,-170,26,143,-34,9,258,78,0,-4
131,204,73,-168,29,139,-39,0,239,68,-14,-9
131,200,68,-165,31,134,-39,-4,234,58,-14,-14
131,190,58,-161,36,124,-34,-4,234,58,-19,-14
131,190,58,-161,36,124,-24,14,244,53,-34,-24
126,175,48,-151,39,112,-19,14,248,48,-39,-24
126,165,39,-146,43,102,-19,19,248,43,-39,-19
126,161,34,-143,46,97,-19,19,248,43,-39,-19
126,165,39,-146,43,102,-19,19,258,63,-24,-14
126,175,48,-151,39,112,-19,29,273,73,-9,-4
136,180,43,-158,46,112,-19,34,278,78,-4,4
136,185,48,-161,43,117,-14,34,283,82,-4,4
126,170,43,-148,41,107,-9,34,273,82,-14,9
126,161,34,-143,46,97,-9,39,273,82,-24,4
122,146,24,-134,48,85,-9,39,268,68,-24,-4
117,131,14,-124,51,73,-4,39,263,53,-39,-9
122,122,0,-122,61,61,4,39,258,43,-48,-29
112,107,-4,-109,58,51,9,48,258,39,-58,-39
112,102,-9,-107,61,46,19,53,258,39,-63,-43
97,102,4,-100,46,53,29,63,258,39,-63,-43
87,92,4,-90,41,48,34,68,258,43,-58,-39
87,87,0,-87,43,43,39,73,258,43,-68,-53
73,78,4,-75,34,41,43,73,258,43,-73,-63
63,68,4,-65,29,36,53,73,253,39,-73,-68
73,53,-19,-63,46,17,58,73,263,29,-78,-63
68,48,-19,-58,43,14,58,73,263,29,-82,-63
68,34,-34,-51,51,0,63,78,263,19,-87,-63
73,24,-48,-48,61,-12,63,78,263,14,-92,-63
73,34,-39,-53,56,-2,68,92,258,14,-92,-63
68,29,-39,-48,53,-4,68,97,258,19,-92,-68
63,24,-39,-43,51,-7,68,97,258,19,-97,-68
63,24,-39,-43,51,-7,68,107,263,14,-97,-68
63,34,-29,-48,46,2,63,97,263,14,-97,-68
63,29,-34,-46,48,-2,63,97,263,14,-97,-68
63,29,-34,-46,48,-2,63,97,258,14,-97,-68
63,24,-39,-43,51,-7,63,92,258,14,-97,-68
63,14,-48,-39,56,-17,63,92,248,14,-107,-78
63,14,-48,-39,56,-17,63,92,248,14,-107,-82
63,14,-48,-39,56,-17,68,92,248,9,-107,-82
63,9,-53,-36,58,-21,68,92,248,9,-107,-82
58,9,-48,-34,53,-19,78,112,273,19,-107,-73
48,0,-48,-24,48,-24,82,117,283,14,-107,-82
63,0,-63,-31,63,-31,82,117,297,29,-107,-87
63,4,-58,-34,61,-26,82,107,297,48,-102,-87
63,14,-48,-39,56,-17,63,87,317,102,-63,-78
68,24,-43,-46,56,-9,58,82,361,156,-29,-53
73,24,-48,-48,61,-12,58,82,419,209,-19,-39
82,48,-34,-65,58,7,53,73,502,283,0,-29
92,87,-4,-90,48,41,43,73,619,400,24,-9
87,146,58,-117,14,102,43,87,780,546,68,-9
97,209,112,-153,-7,161,63,122,971,707,102,0
102,258,156,-180,-26,207,78,161,1122,883,151,0
82,302,219,-192,-68,261,92,156,1156,1034,219,4
82,317,234,-200,-75,275,107,156,1078,1107,258,19
78,331,253,-204,-87,292,112,146,849,1073,278,24
78,346,268,-212,-95,307,102,92,478,980,297,39
92,380,287,-236,-97,334,53,-48,-24,834,346,92
117,424,307,-270,-95,366,-19,-195,-478,673,429,185
156,502,346,-329,-95,424,-122,-292,-756,600,580,302
200,605,405,-402,-102,505,-239,-419,-971,610,785,448
234,702,468,-468,-117,585,-380,-575,-1268,605,995,600
287,780,492,-534,-102,636,-536,-736,-1605,590,1234,766
346,868,522,-607,-87,695,-678,-932,-1961,546,1459,956
380,966,585,-673,-102,775,-810,-1137,-2332,439,1649,1132
414,1015,600,-714,-92,807,-912,-1342,-2669,273,1815,1293
444,985,541,-714,-48,763,-976,-1468,-2903,126,2000,1459
463,907,444,-685,9,675,-1015,-1498,-2981,63,2264,1659
502,810,307,-656,97,558,-1034,-1459,-2937,97,2566,1864
517,707,190,-612,163,448,-1039,-1420,-2801,185,2825,2010
517,575,58,-546,229,317,-1010,-1342,-2605,244,3001,2093
531,434,-97,-483,314,168,-966,-1239,-2386,258,3098,2142
531,326,-204,-429,368,61,-917,-1146,-2186,253,3167,2181
536,234,-302,-385,419,-34,-878,-1068,-2000,273,3215,2225
556,136,-419,-346,488,-141,-819,-941,-1751,317,3211,2239
556,29,-527,-292,541,-248,-736,-800,-1473,395,3191,2220
531,-78,-610,-226,570,-344,-644,-673,-1244,434,3118,2147
488,-185,-673,-151,580,-429,-536,-551,-1049,380,2869,1971
439,-302,-741,-68,590,-522,-453,-448,-893,185,2454,1722
400,-395,-795,-2,597,-595,-366,-375,-741,-39,1991,1444
336,-453,-790,58,563,-622,-287,-312,-610,-141,1615,1166
278,-468,-746,95,512,-607,-219,-283,-483,-151,1288,922
239,-429,-668,95,453,-549,-161,-263,-395,-229,878,658
170,-395,-566,112,368,-480,-107,-229,-341,-366,400,366
107,-356,-463,124,285,-409,-53,-204,-302,-444,24,107
82,-331,-414,124,248,-373,-19,-170,-263,-478,-204,-58
63,-322,-385,129,224,-353,0,-131,-224,-502,-322,-146
73,-297,-370,112,222,-334,4,-102,-185,-473,-331,-165
82,-248,-331,82,207,-290,14,-82,-141,-424,-322,-151
82,-224,-307,70,195,-265,9,-58,-107,-390,-331,-151
92,-195,-287,51,190,-241,29,-43,-58,-356,-331,-151
78,-161,-239,41,158,-200,39,-29,-4,-302,-302,-165
53,-136,-190,41,122,-163,53,-4,29,-263,-287,-195
43,-112,-156,34,100,-134,68,9,63,-224,-273,-219
34,-82,-117,24,75,-100,82,19,87,-209,-263,-214
29,-53,-82,12,56,-68,82,39,122,-195,-263,-200
39,-43,-82,2,61,-63,92,53,146,-175,-268,-180
34,-34,-68,0,51,-51,102,68,165,-146,-278,-161
43,-14,-58,-14,51,-36,112,102,209,-102,-258,-161
53,9,-43,-31,48,-17,122,126,248,-53,-219,-175
43,14,-29,-29,36,-7,131,122,263,-39,-204,-195
43,14,-29,-29,36,-7,146,126,273,-24,-195,-170
39,14,-24,-26,31,-4,146,126,268,-29,-190,-151
39,9,-29,-24,34,-9,146,126,268,-39,-195,-131
34,0,-34,-17,34,-17,146,126,268,-53,-209,-136
24,-9,-34,-7,29,-21,146,136,278,-58,-219,-141
14,-9,-24,-2,19,-17,146,141,292,-43,-219,-136
9,-9,-19,0,14,-14,151,151,307,-24,-219,-136
4,-9,-14,2,9,-12,151,156,317,-14,-219,-136
0,-9,-9,4,4,-9,156,165,322,-4,-214,-131
14,4,-9,-9,12,-2,151,156,317,-14,-219,-141
14,9,-4,-12,9,2,146,146,312,-24,-219,-136
14,14,0,-14,7,7,141,146,302,-29,-224,-136
14,24,9,-19,2,17,136,146,297,-29,-229,-141
4,14,9,-9,-2,12,146,146,297,-19,-224,-146
4,14,9,-9,-2,12,146,151,307,-14,-224,-151
0,14,14,-7,-7,14,146,151,312,-9,-224,-151
0,14,14,-7,-7,14,146,151,312,-4,-224,-146
0,4,4,-2,-2,4,156,161,322,0,-204,-141
4,9,4,-7,0,7,156,156,326,0,-200,-131
4,9,4,-7,0,7,156,156,326,0,-195,-126
4,9,4,-7,0,7,156,156,326,-4,-190,-122
-4,4,9,0,-7,7,156,151,322,-4,-190,-126
-4,4,9,0,-7,7,156,151,322,0,-195,-131
-4,4,9,0,-7,7,156,151,326,4,-200,-136
0,4,4,-2,-2,4,156,156,331,9,-204,-141
-9,14,24,-2,-17,19,151,156,341,9,-190,-126
-9,19,29,-4,-19,24,151,156,341,9,-190,-126
-9,19,29,-4,-19,24,151,156,341,9,-190,-126
-9,19,29,-4,-19,24,151,156,341,9,-190,-126
-9,24,34,-7,-21,29,151,165,336,9,-190,-141
-9,24,34,-7,-21,29,151,165,341,14,-190,-141
-9,29,39,-9,-24,34,151,165,346,14,-190,-141
-9,29,39,-9,-24,34,151,170,351,14,-190,-136
-9,29,39,-9,-24,34,151,161,351,19,-200,-146
-9,34,43,-12,-26,39,151,161,351,19,-200,-146
-4,39,43,-17,-24,41,151,165,351,19,-200,-146
-4,39,43,-17,-24,41,151,165,351,19,-200,-146
4,48,43,-26,-19,46,151,165,356,19,-190,-141
4,48,43,-26,-19,46,151,165,361,19,-190,-141
4,48,43,-26,-19,46,151,165,361,29,-190,-141
4,48,43,-26,-19,46,151,165,370,29,-190,-141
-4,43,48,-19,-26,46,151,175,385,34,-175,-131
-4,43,48,-19,-26,46,151,175,385,34,-175,-126
-4,39,43,-17,-24,41,151,175,385,34,-175,-126
-4,34,39,-14,-21,36,151,180,385,39,-170,-126
-4,34,39,-14,-21,36,161,190,390,48,-170,-126
-4,34,39,-14,-21,36,165,190,395,53,-170,-126
-4,34,39,-14,-21,36,165,190,395,53,-170,-126
-4,34,39,-14,-21,36,165,195,405,53,-170,-126
4,43,39,-24,-17,41,156,185,409,48,-161,-126
4,48,43,-26,-19,46,156,185,414,48,-156,-126
4,48,43,-26,-19,46,156,190,414,58,-156,-122
9,53,43,-31,-17,48,156,190,424,63,-156,-122
0,58,58,-29,-29,58,151,195,419,68,-161,-122
0,63,63,-31,-31,63,151,195,424,68,-161,-117
0,73,73,-36,-36,73,151,195,429,68,-156,-117
0,78,78,-39,-39,78,151,200,434,68,-156,-117
0,82,82,-41,-41,82,151,190,439,73,-165,-126
0,82,82,-41,-41,82,156,195,444,82,-161,-122
0,87,87,-43,-43,87,156,195,448,87,-161,-122
0,87,87,-43,-43,87,156,200,463,92,-156,-122
9,78,68,-43,-29,73,165,204,473,107,-156,-117
9,82,73,-46,-31,78,170,209,483,112,-156,-126
9,82,73,-46,-31,78,170,209,488,112,-151,-107
9,82,73,-46,-31,78,170,214,492,112,-151,-107
9,92,82,-51,-36,87,175,224,497,122,-141,-107
9,92,82,-51,-36,87,180,224,507,122,-136,-102
9,97,87,-53,-39,92,180,224,517,126,-136,-102
9,97,87,-53,-39,92,180,229,522,131,-131,-92
0,97,97,-48,-48,97,170,229,527,136,-141,-92
0,102,102,-51,-51,102,170,234,536,136,-136,-97
0,102,102,-51,-51,102,175,234,541,136,-136,-97
0,102,102,-51,-51,102,175,239,546,146,-136,-97
9,107,97,-58,-43,102,170,239,546,141,-141,-102
9,107,97,-58,-43,102,170,239,551,146,-141,-102
9,107,97,-58,-43,102,170,239,566,141,-141,-107
9,112,102,-61,-46,107,170,244,570,136,-136,-107
-9,97,107,-43,-58,102,170,239,570,131,-146,-112
-24,92,117,-34,-70,104,175,239,575,136,-141,-112
-34,92,126,-29,-80,109,175,234,580,136,-141,-107
-43,87,131,-21,-87,109,175,234,585,136,-136,-102
-48,73,122,-12,-85,97,170,224,590,141,-146,-107
-53,68,122,-7,-87,95,165,229,590,141,-146,-112
-58,68,126,-4,-92,97,161,229,585,141,-141,-112
-63,63,126,0,-95,95,156,229,580,141,-141,-117
-73,53,126,9,-100,90,156,229,575,131,-151,-117
-73,53,126,9,-100,90,156,229,575,131,-146,-117
-68,53,122,7,-95,87,156,229,575,131,-146,-117
-68,58,126,4,-97,92,156,234,580,126,-146,-112
-63,58,122,2,-92,90,165,234,580,122,-146,-107
-63,58,122,2,-92,90,165,234,575,117,-146,-107
-63,58,122,2,-92,90,165,234,575,112,-146,-107
-63,53,117,4,-90,85,161,234,566,107,-151,-107
-63,53,117,4,-90,85,141,234,561,102,-156,-117
-63,53,117,4,-90,85,151,229,561,97,-156,-117
-63,53,117,4,-90,85,151,229,556,92,-156,-117
-63,53,117,4,-90,85,151,229,551,82,-156,-117
-73,53,126,9,-100,90,146,224,527,68,-165,-107
-73,53,126,9,-100,90,146,224,527,63,-170,-112
-73,53,126,9,-100,90,146,224,522,58,-175,-117
-73,53,126,9,-100,90,146,219,517,48,-180,-117
-73,53,126,9,-100,90,151,204,502,29,-190,-122
-73,53,126,9,-100,90,146,204,497,24,-195,-126
-73,53,126,9,-100,90,146,200,488,14,-200,-141
-73,48,122,12,-97,85,146,200,478,9,-204,-146
-63,48,112,7,-87,80,146,209,458,0,-200,-146
-63,48,112,7,-87,80,141,200,453,0,-204,-141
-63,48,112,7,-87,80,141,195,444,-14,-209,-131
-63,48,112,7,-87,80,136,190,434,-19,-214,-126
-63,48,112,7,-87,80,141,190,434,-19,-209,-117
-63,48,112,7,-87,80,136,185,419,-24,-214,-117
-63,48,112,7,-87,80,131,180,409,-34,-219,-126
-63,43,107,9,-85,75,131,175,395,-43,-224,-131
-63,34,97,14,-80,65,126,180,390,-43,-214,-126
-63,34,97,14,-80,65,126,175,375,-48,-224,-126
-63,34,97,14,-80,65,122,170,366,-53,-224,-126
-63,34,97,14,-80,65,117,165,356,-53,-224,-126
-53,34,87,9,-70,61,107,151,346,-53,-239,-136
-53,34,87,9,-70,61,102,146,336,-63,-239,-136
-53,34,87,9,-70,61,97,141,326,-63,-239,-136
-53,34,87,9,-70,61,97,136,317,-58,-239,-136
-53,43,97,4,-75,70,92,131,317,-63,-239,-131
-53,43,97,4,-75,70,87,126,307,-63,-234,-131
-53,43,97,4,-75,70,87,122,297,-68,-234,-131
-53,43,97,4,-75,70,82,117,287,-68,-234,-126
-58,34,92,12,-75,63,82,122,273,-68,-224,-117
-58,34,92,12,-75,63,78,122,263,-68,-219,-117
-53,34,87,9,-70,61,78,117,258,-68,-219,-112
-53,29,82,12,-68,56,78,112,248,-68,-224,-112
-43,39,82,2,-63,61,68,102,258,-73,-224,-122
-43,39,82,2,-63,61,58,97,253,-73,-214,-122
-43,39,82,2,-63,61,58,92,248,-73,-214,-122
-43,39,82,2,-63,61,58,92,239,-73,-214,-122
-43,34,78,4,-61,56,68,92,234,-58,-204,-112
-43,34,78,4,-61,56,68,92,229,-58,-204,-107
-39,34,73,2,-56,53,63,87,229,-58,-195,-107
-39,34,73,2,-56,53,63,87,224,-58,-195,-107
-53,19,73,17,-63,46,73,97,234,-53,-185,-117
-58,19,78,19,-68,48,73,97,229,-53,-180,-112
-63,19,82,21,-73,51,73,92,224,-53,-180,-112
-68,19,87,24,-78,53,68,92,224,-53,-175,-112
-73,14,87,29,-80,51,68,102,224,-39,-165,-107
-78,14,92,31,-85,53,68,102,224,-39,-165,-97
-78,14,92,31,-85,53,68,102,224,-39,-165,-92
-82,19,102,31,-92,61,68,102,224,-39,-161,-92
-92,19,112,36,-102,65,78,117,224,-29,-151,-87
-102,14,117,43,-109,65,78,117,229,-29,-151,-82
-107,14,122,46,-114,68,78,117,234,-24,-151,-78
-112,14,126,48,-119,70,78,117,239,-24,-146,-73
-122,14,136,53,-129,75,87,117,239,-24,-146,-68
-122,14,136,53,-129,75,87,117,239,-24,-151,-68
-122,14,136,53,-129,75,87,117,239,-24,-151,-68
-122,9,131,56,-126,70,87,117,239,-24,-156,-68
-131,9,141,61,-136,75,97,126,239,-24,-141,-68
-131,9,141,61,-136,75,97,126,239,-24,-136,-68
-126,9,136,58,-131,73,97,126,244,-24,-136,-73
-126,4,131,61,-129,68,97,126,244,-29,-131,-73
-141,0,141,70,-141,70,97,126,244,-19,-141,-63
-141,0,141,70,-141,70,97,126,239,-19,-141,-63
-141,0,141,70,-141,70,97,131,239,-19,-146,-68
-141,-4,136,73,-139,65,102,131,244,-19,-146,-68
-141,-4,136,73,-139,65,102,131,253,-19,-146,-68
-141,-4,136,73,-139,65,102,136,253,-19,-146,-68
-136,-4,131,70,-134,63,102,136,258,-19,-146,-68
-136,-4,131,70,-134,63,102,136,258,-24,-146,-73
-141,-4,136,73,-139,65,102,146,258,-24,-151,-73
-146,-4,141,75,-143,68,102,146,258,-24,-151,-78
-151,-4,146,78,-148,70,102,141,258,-24,-156,-78
-156,-4,151,80,-153,73,107,141,258,-24,-156,-82
-165,-4,161,85,-163,78,97,131,258,-24,-151,-82
-165,-4,161,85,-163,78,97,136,258,-24,-151,-82
-170,-4,165,87,-168,80,97,136,263,-19,-156,-82
-170,-4,165,87,-168,80,97,136,263,-19,-165,-82
-175,-4,170,90,-173,82,107,136,263,-19,-161,-92
-170,-4,165,87,-168,80,107,136,263,-19,-161,-92
-165,-4,161,85,-163,78,107,136,263,-19,-161,-92
-161,-4,156,82,-158,75,107,136,268,-19,-156,-92
-165,0,165,82,-165,82,107,136,258,-9,-165,-102
-170,4,175,82,-173,90,107,136,258,-9,-170,-102
-175,9,185,82,-180,97,107,136,258,-9,-170,-107
-180,14,195,82,-187,104,102,136,253,-4,-175,-107
-180,9,190,85,-185,100,102,146,253,-4,-175,-102
-180,4,185,87,-183,95,102,146,258,-4,-170,-92
-180,0,180,90,-180,90,102,146,268,-4,-165,-82
-185,-4,180,95,-183,87,102,146,273,0,-161,-73
-175,-14,161,95,-168,73,107,136,268,-4,-161,-78
-175,-9,165,92,-170,78,107,136,268,-4,-161,-82
-175,-9,165,92,-170,78,107,136,263,-4,-161,-87
-175,-9,165,92,-170,78,107,136,253,-4,-156,-92
-165,0,165,82,-165,82,102,131,244,0,-156,-82
-156,0,156,78,-156,78,102,126,253,0,-151,-82
-141,0,141,70,-141,70,102,122,253,0,-151,-78
-131,0,131,65,-131,65,97,117,253,4,-146,-78
-112,9,122,51,-117,65,92,102,248,0,-151,-87
-102,14,117,43,-109,65,87,102,239,0,-146,-78
-92,14,107,39,-100,61,82,102,234,-4,-141,-78
-82,14,97,34,-90,56,78,102,229,-9,-141,-73
-73,4,78,34,-75,41,68,92,224,-14,-136,-87
-68,9,78,29,-73,43,68,92,224,-14,-136,-82
-63,9,73,26,-68,41,68,92,219,-9,-136,-82
-58,9,68,24,-63,39,68,92,209,-9,-136,-87
-43,9,53,17,-48,31,58,82,209,-19,-131,-82
-34,9,43,12,-39,26,58,82,209,-14,-131,-82
-43,9,53,17,-48,31,58,82,209,-9,-131,-78
-43,9,53,17,-48,31,58,82,209,-9,-131,-78
-34,4,39,14,-36,21,58,78,200,-14,-126,-78
-34,4,39,14,-36,21,58,73,195,-14,-122,-73
-29,4,34,12,-31,19,58,68,195,-14,-112,-63
-29,4,34,12,-31,19,58,63,190,-14,-102,-58
-29,0,29,14,-29,14,43,53,180,-19,-112,-58
-24,0,24,12,-24,12,43,58,180,-14,-112,-53
-24,0,24,12,-24,12,43,58,180,-14,-102,-53
-24,0,24,12,-24,12,48,58,185,-14,-92,-48
-14,4,19,4,-17,12,39,48,175,-19,-92,-58
-9,4,14,2,-12,9,39,48,175,-19,-87,-58
-4,9,14,-2,-9,12,39,48,180,-19,-87,-53
4,9,4,-7,0,7,39,48,180,-14,-87,-53
0,14,14,-7,-7,14,39,39,175,-24,-82,-48
0,14,14,-7,-7,14,39,43,175,-14,-78,-43
0,14,14,-7,-7,14,34,43,170,-14,-78,-43
0,19,19,-9,-9,19,34,43,165,-14,-78,-43
9,14,4,-12,2,9,34,43,165,-19,-73,-39
14,19,4,-17,4,12,34,43,165,-24,-78,-39
19,14,-4,-17,12,4,29,43,165,-24,-82,-39
24,9,-14,-17,19,-2,29,39,170,-29,-82,-34
34,9,-24,-21,29,-7,34,48,161,-19,-82,-43
29,9,-19,-19,24,-4,29,48,165,-19,-78,-39
29,9,-19,-19,24,-4,19,43,156,-29,-78,-39
29,9,-19,-19,24,-4,19,39,156,-29,-78,-39
29,9,-19,-19,24,-4,19,34,156,-29,-78,-39
29,9,-19,-19,24,-4,19,29,156,-29,-78,-39
29,4,-24,-17,26,-9,19,29,161,-39,-82,-39
29,14,-14,-21,21,0,19,29,161,-34,-82,-39
29,19,-9,-24,19,4,19,34,170,-24,-73,-39
29,24,-4,-26,17,9,19,34,170,-19,-68,-34
34,34,0,-34,17,17,24,34,170,-24,-68,-39
34,39,4,-36,14,21,24,34,175,-19,-63,-39
43,43,0,-43,21,21,24,39,180,-14,-63,-29
43,48,4,-46,19,26,24,39,190,-9,-68,-24
48,58,9,-53,19,34,24,34,185,-4,-68,-34
53,63,9,-58,21,36,24,34,190,0,-68,-24
63,68,4,-65,29,36,24,39,190,0,-63,-24
68,73,4,-70,31,39,24,39,190,4,-63,-24
73,73,0,-73,36,36,19,48,204,4,-63,-34
73,73,0,-73,36,36,19,48,204,9,-63,-34
78,82,4,-80,36,43,19,48,209,9,-58,-29
78,87,9,-82,34,48,19,58,209,9,-53,-29
78,97,19,-87,29,58,19,63,219,14,-58,-34
82,97,14,-90,34,56,19,68,219,19,-58,-34
82,97,14,-90,34,56,19,73,219,19,-58,-34
82,97,14,-90,34,56,9,73,214,19,-58,-34
87,97,9,-92,39,53,0,73,214,19,-58,-43
87,112,24,-100,31,68,-4,68,214,19,-58,-43
87,126,39,-107,24,82,-9,53,219,29,-53,-34
92,136,43,-114,24,90,-9,39,219,34,-43,-34
92,146,53,-119,19,100,-14,14,214,39,-48,-24
97,161,63,-129,17,112,-29,0,214,43,-43,-19
97,170,73,-134,12,122,-39,-9,214,48,-43,-14
102,180,78,-141,12,129,-58,-24,214,53,-43,-9
112,200,87,-156,12,143,-73,-34,204,63,-29,-4
112,200,87,-156,12,143,-87,-34,204,63,-24,4
117,200,82,-158,17,141,-87,-34,200,58,-24,9
122,200,78,-161,21,139,-92,-34,195,53,-34,14
122,190,68,-156,26,129,-112,-39,180,29,-43,-4
122,185,63,-153,29,124,-117,-48,161,19,-63,-9
122,180,58,-151,31,119,-117,-53,156,9,-68,-14
122,170,48,-146,36,109,-112,-53,156,9,-78,-14
131,161,29,-146,51,95,-92,-53,156,4,-78,-14
126,146,19,-136,53,82,-87,-53,161,0,-78,-14
126,136,9,-131,58,73,-87,-48,161,-4,-73,-9
126,131,4,-129,61,68,-87,-48,161,-4,-68,-9
126,131,4,-129,61,68,-87,-48,170,4,-63,-4
126,136,9,-131,58,73,-87,-39,185,14,-48,4
136,136,0,-136,68,68,-87,-34,190,19,-43,14
136,136,0,-136,68,68,-82,-34,195,24,-43,14
136,126,-9,-131,73,58,-78,-34,185,24,-43,19
136,122,-14,-129,75,53,-78,-29,185,24,-53,14
131,112,-19,-122,75,46,-78,-29,180,9,-53,4
126,102,-24,-114,75,39,-73,-29,175,-4,-68,0
122,78,-43,-100,82,17,-63,-29,170,-14,-78,-19
112,58,-53,-85,82,2,-58,-19,170,-19,-87,-29
112,48,-63,-80,87,-7,-48,-14,170,-19,-92,-34
97,43,-53,-70,75,-4,-39,-4,170,-19,-92,-34
97,39,-58,-68,78,-9,-34,-9,170,-24,-97,-29
97,39,-58,-68,78,-9,-29,-4,170,-24,-107,-43
82,34,-48,-58,65,-7,-24,-4,170,-24,-112,-53
73,29,-43,-51,58,-7,-14,-4,165,-29,-112,-58
73,14,-58,-43,65,-21,-9,4,156,-29,-117,-68
68,9,-58,-39,63,-24,-9,4,156,-29,-122,-73
68,-4,-73,-31,70,-39,-4,9,156,-39,-126,-78
73,-14,-87,-29,80,-51,-4,9,156,-43,-131,-82
63,-4,-68,-29,65,-36,0,14,161,-43,-131,-82
58,-9,-68,-24,63,-39,0,19,161,-39,-131,-87
53,-14,-68,-19,61,-41,0,19,161,-39,-136,-87
53,-14,-68,-19,61,-41,0,29,165,-43,-136,-87
63,-14,-78,-24,70,-46,-4,19,165,-53,-146,-78
63,-19,-82,-21,73,-51,-4,19,165,-53,-146,-78
63,-19,-82,-21,73,-51,-4,19,161,-53,-146,-78
