I,II,III,aVR,aVL,aVF,V1,V2,V3,V4,V5,V6
-175,-97,78,136,-126,-9,292,683,527,244,-68,-244
-175,-97,78,136,-126,-9,292,683,527,244,-68,-244
-175,-97,78,136,-126,-9,292,683,527,244,-68,-244
-175,-97,78,136,-126,-9,292,683,527,244,-68,-244
-175,-97,78,136,-126,-9,263,634,492,224,-53,-229
-175,-97,78,136,-126,-9,244,595,458,214,-48,-214
-175,-97,78,136,-126,-9,224,556,424,204,-43,-200
-175,-97,78,136,-126,-9,204,517,390,195,-39,-185
-156,-78,78,117,-117,0,185,483,361,190,-19,-165
-146,-68,78,107,-112,4,175,448,341,185,-9,-146
-136,-58,78,97,-107,9,165,414,322,180,0,-126
-126,-48,78,87,-102,14,156,380,302,175,9,-107
-136,-68,68,102,-102,0,141,346,268,156,-9,-112
-136,-78,58,107,-97,-9,126,312,244,136,-19,-117
-136,-87,48,112,-92,-19,112,278,219,117,-29,-122
-136,-97,39,117,-87,-29,97,244,195,97,-39,-126
-107,-73,34,90,-70,-19,87,234,185,102,-29,-112
-78,-48,29,63,-53,-9,87,224,185,107,-19,-97
-48,-24,24,36,-36,0,87,214,185,112,-9,-82
-19,0,19,9,-19,9,87,204,185,117,0,-68
-39,-14,24,26,-31,4,78,180,165,112,14,-58
-58,-19,39,39,-48,9,68,165,156,107,19,-48
-78,-24,53,51,-65,14,58,151,146,102,24,-39
-97,-29,68,63,-82,19,48,136,136,97,29,-29
-87,-24,63,56,-75,19,39,136,146,92,14,-34
-78,-19,58,48,-68,19,39,136,146,87,0,-39
-68,-14,53,41,-61,19,39,136,146,82,-14,-43
-58,-9,48,34,-53,19,39,136,146,78,-29,-48
-43,-24,19,34,-31,-2,29,126,141,82,-9,-58
-39,-29,9,34,-24,-9,29,117,136,87,0,-58
-34,-34,0,34,-17,-17,29,107,131,92,9,-58
-29,-39,-9,34,-9,-24,29,97,126,97,19,-58
-48,-39,9,43,-29,-14,29,102,136,107,29,-43
-58,-39,19,48,-39,-9,29,107,136,107,29,-39
-68,-39,29,53,-48,-4,29,112,136,107,29,-34
-78,-39,39,58,-58,0,29,117,136,107,29,-29
-53,-39,14,46,-34,-12,39,126,151,117,39,-14
-39,-39,0,39,-19,-19,39,126,156,117,39,-9
-24,-39,-14,31,-4,-26,39,126,161,117,39,-4
-9,-39,-29,24,9,-34,39,126,165,117,39,0
-29,-24,4,26,-17,-9,48,141,180,131,53,9
-39,-19,19,29,-29,0,48,146,185,136,58,9
-48,-14,34,31,-41,9,48,151,190,141,63,9
-58,-9,48,34,-53,19,48,156,195,146,68,9
-48,-9,39,29,-43,14,43,146,190,141,48,-4
-48,-9,39,29,-43,14,39,146,185,136,39,-19
-48,-9,39,29,-43,14,34,146,180,131,29,-34
-48,-9,39,29,-43,14,29,146,175,126,19,-48
-53,-29,24,41,-39,-2,43,156,185,136,39,-34
-58,-48,9,53,-34,-19,48,165,195,146,48,-29
-63,-68,-4,65,-29,-36,53,175,204,156,58,-24
-68,-87,-19,78,-24,-53,58,185,214,165,68,-19
-9,19,29,-4,-19,24,87,214,253,185,78,-9
0,19,19,-9,-9,19,97,214,263,214,97,-39
-19,-29,-9,24,-4,-19,87,204,244,214,107,-58
9,0,-9,-4,9,-4,68,195,234,214,126,-48
29,39,9,-34,9,24,58,195,244,224,165,9
19,78,58,-48,-19,68,87,224,283,263,195,48
9,68,58,-39,-24,63,87,244,302,244,156,58
-9,9,19,0,-14,14,87,244,292,214,87,19
19,39,19,-29,0,29,97,253,312,244,97,9
58,107,48,-82,4,78,117,263,341,302,175,39
19,97,78,-58,-29,87,136,273,351,292,195,48
-9,78,87,-34,-48,82,146,292,351,302,175,48
-9,78,87,-34,-48,82,165,292,361,331,195,68
-19,68,87,-24,-53,78,136,253,331,302,195,58
-9,48,58,-19,-34,53,107,234,302,253,136,19
19,48,29,-34,-4,39,117,253,331,263,136,19
29,68,39,-48,-4,53,136,283,380,331,224,58
39,117,78,-78,-19,97,146,292,409,400,351,136
29,126,97,-78,-34,112,126,283,390,409,370,165
29,78,48,-53,-9,63,87,244,341,322,253,117
68,68,0,-68,34,34,87,263,361,292,175,97
68,97,29,-82,19,63,117,322,409,361,224,126
39,117,78,-78,-19,97,117,331,429,400,283,136
29,146,117,-87,-43,131,107,331,439,409,302,117
29,224,195,-126,-82,209,136,351,488,439,322,136
-9,273,283,-131,-146,278,136,351,488,429,292,156
-58,253,312,-97,-185,283,107,312,458,380,244,136
-107,224,331,-58,-219,278,126,341,488,390,234,107
-126,195,322,-34,-224,258,195,448,585,458,244,68
-58,126,185,-34,-122,156,263,585,712,536,244,-9
58,0,-58,-29,58,-29,292,732,849,644,253,-87
78,-146,-224,34,151,-185,302,839,966,751,312,-107
68,-263,-331,97,200,-297,273,868,1005,810,370,-68
185,-312,-497,63,341,-405,273,888,1034,839,400,-48
302,-361,-663,29,483,-512,263,946,1102,878,400,-68
361,-448,-810,43,585,-629,244,1034,1190,946,419,-87
439,-536,-976,48,707,-756,224,1122,1259,1005,439,-97
546,-653,-1200,53,873,-927,234,1190,1317,1034,400,-204
653,-819,-1473,82,1063,-1146,244,1268,1356,1015,273,-419
683,-1044,-1727,180,1205,-1385,263,1366,1405,966,107,-692
741,-1268,-2010,263,1376,-1639,263,1415,1385,868,-126,-1005
858,-1464,-2322,302,1590,-1893,253,1454,1356,722,-400,-1356
907,-1678,-2586,385,1747,-2132,283,1522,1327,566,-692,-1727
927,-1854,-2781,463,1854,-2318,331,1600,1298,341,-1024,-2039
927,-1981,-2908,527,1917,-2444,351,1639,1239,107,-1366,-2283
888,-2078,-2967,595,1927,-2522,361,1688,1210,-68,-1629,-2488
858,-2176,-3035,658,1947,-2605,361,1727,1161,-224,-1825,-2635
868,-2244,-3113,688,1991,-2679,322,1717,1083,-400,-2010,-2723
907,-2283,-3191,688,2049,-2737,302,1717,1015,-536,-2147,-2781
995,-2293,-3289,649,2142,-2791,341,1756,995,-624,-2225,-2840
1005,-2391,-3396,692,2200,-2893,351,1766,936,-741,-2283,-2888
888,-2527,-3416,819,2152,-2971,331,1698,819,-888,-2352,-2918
858,-2557,-3416,849,2137,-2986,351,1678,712,-1034,-2400,-2908
917,-2557,-3474,819,2196,-3015,361,1688,634,-1180,-2479,-2898
976,-2557,-3533,790,2254,-3045,351,1698,556,-1288,-2537,-2879
1044,-2498,-3542,727,2293,-3020,370,1747,527,-1346,-2518,-2849
1034,-2488,-3523,727,2278,-3006,439,1834,517,-1356,-2469,-2801
936,-2605,-3542,834,2239,-3074,488,1864,429,-1444,-2498,-2801
790,-2723,-3513,966,2152,-3118,517,1825,224,-1610,-2576,-2830
741,-2742,-3484,1000,2113,-3113,556,1786,-29,-1766,-2605,-2830
790,-2713,-3503,961,2147,-3108,566,1756,-253,-1864,-2576,-2781
761,-2742,-3503,990,2132,-3123,575,1668,-458,-1912,-2508,-2713
653,-2791,-3445,1068,2049,-3118,634,1581,-614,-1981,-2518,-2644
595,-2801,-3396,1102,1995,-3098,722,1532,-751,-2098,-2635,-2654
585,-2771,-3357,1093,1971,-3064,761,1473,-858,-2166,-2693,-2674
546,-2742,-3289,1098,1917,-3015,771,1317,-985,-2166,-2625,-2615
409,-2752,-3162,1171,1786,-2957,790,1122,-1122,-2166,-2537,-2537
263,-2742,-3006,1239,1634,-2874,761,907,-1278,-2176,-2488,-2459
175,-2615,-2791,1220,1483,-2703,673,732,-1376,-2127,-2371,-2342
107,-2342,-2449,1117,1278,-2396,683,663,-1346,-1981,-2156,-2127
-19,-2147,-2127,1083,1054,-2137,692,536,-1307,-1815,-1942,-1893
-283,-2108,-1825,1195,771,-1966,644,283,-1356,-1737,-1795,-1708
-448,-1942,-1493,1195,522,-1717,614,146,-1337,-1620,-1639,-1522
-458,-1659,-1200,1058,370,-1429,644,165,-1190,-1415,-1424,-1307
-536,-1483,-946,1010,204,-1215,614,146,-1044,-1220,-1200,-1102
-575,-1307,-732,941,78,-1019,556,68,-936,-1054,-1015,-917
-458,-1044,-585,751,63,-814,478,-19,-829,-897,-849,-761
-400,-868,-468,634,34,-668,331,-136,-741,-761,-702,-634
-419,-771,-351,595,-34,-561,175,-224,-683,-653,-575,-527
-361,-605,-244,483,-58,-424,107,-273,-585,-527,-429,-400
-273,-390,-117,331,-78,-253,58,-292,-468,-370,-283,-244
-302,-253,48,278,-175,-102,29,-312,-361,-244,-156,-87
-361,-165,195,263,-278,14,19,-292,-234,-117,-29,39
-312,-39,273,175,-292,117,19,-253,-126,9,97,146
-214,68,283,73,-248,175,9,-253,-87,78,175,175
-165,126,292,19,-229,209,-9,-283,-87,78,185,175
-156,185,341,-14,-248,263,-9,-283,-68,87,204,204
-146,195,341,-24,-244,268,-19,-283,-68,87,204,219
-136,204,341,-34,-239,273,-29,-283,-68,87,204,224
-126,214,341,-43,-234,278,-39,-283,-68,87,204,229
-117,224,341,-53,-229,283,-48,-283,-68,87,204,234
-126,209,336,-41,-231,273,-63,-283,-68,92,214,234
-136,195,331,-29,-234,263,-68,-283,-68,97,214,234
-146,180,326,-17,-236,253,-73,-283,-68,102,214,234
-156,165,322,-4,-239,244,-78,-283,-68,107,214,234
-146,180,326,-17,-236,253,-87,-292,-78,97,219,244
-146,185,331,-19,-239,258,-87,-292,-78,97,224,244
-146,190,336,-21,-241,263,-87,-292,-78,97,229,244
-146,195,341,-24,-244,268,-87,-292,-78,97,234,244
-122,214,336,-46,-229,275,-82,-278,-73,102,239,258
-107,224,331,-58,-219,278,-78,-273,-68,107,244,263
-92,234,326,-70,-209,280,-73,-268,-63,112,248,268
-78,244,322,-82,-200,283,-68,-263,-58,117,253,273
-92,234,326,-70,-209,280,-73,-273,-68,107,244,273
-107,234,341,-63,-224,287,-78,-283,-78,97,234,273
-122,234,356,-56,-239,295,-82,-292,-87,87,224,273
-136,234,370,-48,-253,302,-87,-302,-97,78,214,273
-126,239,366,-56,-246,302,-78,-292,-87,87,219,278
-117,244,361,-63,-239,302,-78,-292,-87,87,224,283
-107,248,356,-70,-231,302,-78,-292,-87,87,229,287
-97,253,351,-78,-224,302,-78,-292,-87,87,234,292
-97,263,361,-82,-229,312,-92,-312,-107,73,224,287
-97,273,370,-87,-234,322,-97,-322,-117,68,224,283
-97,283,380,-92,-239,331,-102,-331,-126,63,224,278
-97,292,390,-97,-244,341,-107,-341,-136,58,224,273
-87,307,395,-109,-241,351,-97,-331,-131,63,229,297
-87,312,400,-112,-244,356,-97,-331,-126,68,234,312
-87,317,405,-114,-246,361,-97,-331,-122,73,239,326
-87,322,409,-117,-248,366,-97,-331,-117,78,244,341
-87,331,419,-122,-253,375,-107,-346,-126,73,253,341
-87,331,419,-122,-253,375,-107,-351,-136,68,253,341
-87,331,419,-122,-253,375,-107,-356,-146,63,253,341
-87,331,419,-122,-253,375,-107,-361,-156,58,253,341
-87,361,448,-136,-268,405,-117,-366,-156,58,258,361
-87,380,468,-146,-278,424,-117,-370,-156,58,263,370
-87,400,488,-156,-287,444,-117,-375,-156,58,268,380
-87,419,507,-165,-297,463,-117,-380,-156,58,273,390
-112,434,546,-161,-329,490,-122,-400,-180,43,283,400
-126,439,566,-156,-346,502,-126,-419,-195,39,283,400
-141,444,585,-151,-363,514,-131,-439,-209,34,283,400
-156,448,605,-146,-380,527,-136,-458,-224,29,283,400
-151,483,634,-165,-392,558,-146,-473,-234,34,302,434
-146,507,653,-180,-400,580,-146,-478,-234,39,312,458
-141,531,673,-195,-407,602,-146,-483,-234,43,322,483
-136,556,692,-209,-414,624,-146,-488,-234,48,331,507
-151,575,727,-212,-439,651,-156,-507,-253,34,341,522
-156,585,741,-214,-448,663,-165,-527,-273,19,341,527
-161,595,756,-217,-458,675,-175,-546,-292,4,341,531
-165,605,771,-219,-468,688,-185,-566,-312,-9,341,536
-156,619,775,-231,-466,697,-204,-600,-331,-19,331,556
-156,634,790,-239,-473,712,-214,-624,-351,-29,331,566
-156,649,805,-246,-480,727,-224,-649,-370,-39,331,575
-156,663,819,-253,-488,741,-234,-673,-390,-48,331,585
-175,697,873,-261,-524,785,-239,-702,-405,-48,361,624
-185,722,907,-268,-546,814,-244,-722,-419,-48,380,653
-195,746,941,-275,-568,844,-248,-741,-434,-48,400,683
-204,771,976,-283,-590,873,-253,-761,-448,-48,419,712
-200,824,1024,-312,-612,924,-268,-795,-478,-63,429,751
-195,868,1063,-336,-629,966,-283,-819,-497,-68,439,780
-190,912,1102,-361,-646,1007,-297,-844,-517,-73,448,810
-185,956,1141,-385,-663,1049,-312,-868,-536,-78,458,839
-214,985,1200,-385,-707,1093,-331,-907,-556,-82,483,868
-234,1005,1239,-385,-736,1122,-341,-936,-575,-87,497,888
-253,1024,1278,-385,-766,1151,-351,-966,-595,-92,512,907
-273,1044,1317,-385,-795,1180,-361,-995,-614,-97,527,927
-253,1098,1351,-422,-802,1224,-370,-1019,-629,-92,551,961
-234,1141,1376,-453,-805,1259,-380,-1044,-644,-87,566,995
-214,1185,1400,-485,-807,1293,-390,-1068,-658,-82,580,1029
-195,1229,1424,-517,-810,1327,-400,-1093,-673,-78,595,1063
-195,1259,1454,-531,-824,1356,-414,-1117,-678,-68,624,1093
-195,1288,1483,-546,-839,1385,-419,-1132,-683,-58,644,1112
-195,1317,1512,-561,-854,1415,-424,-1146,-688,-48,663,1132
-195,1346,1542,-575,-868,1444,-429,-1161,-692,-39,683,1151
-209,1346,1556,-568,-883,1451,-444,-1176,-697,-24,697,1171
-214,1346,1561,-566,-888,1454,-458,-1190,-702,-19,712,1190
-219,1346,1566,-563,-893,1456,-473,-1205,-707,-14,727,1210
-224,1346,1571,-561,-897,1459,-488,-1220,-712,-9,741,1229
-209,1385,1595,-588,-902,1490,-483,-1200,-692,14,766,1244
-195,1415,1610,-610,-902,1512,-478,-1190,-673,39,790,1259
-180,1444,1625,-631,-902,1534,-473,-1180,-653,63,814,1273
-165,1473,1639,-653,-902,1556,-468,-1171,-634,87,839,1288
-180,1454,1634,-636,-907,1544,-468,-1151,-605,117,858,1288
-185,1444,1629,-629,-907,1537,-468,-1141,-585,136,868,1288
-190,1434,1625,-622,-907,1529,-468,-1132,-566,156,878,1288
-195,1424,1620,-614,-907,1522,-468,-1122,-546,175,888,1288
-190,1405,1595,-607,-893,1500,-463,-1088,-507,204,897,1273
-185,1395,1581,-605,-883,1488,-458,-1054,-468,234,907,1268
-180,1385,1566,-602,-873,1476,-453,-1019,-429,263,917,1263
-175,1376,1551,-600,-863,1464,-448,-985,-390,292,927,1259
-161,1356,1517,-597,-839,1437,-434,-936,-351,317,941,1239
-146,1346,1493,-600,-819,1420,-419,-888,-312,341,946,1229
-131,1337,1468,-602,-800,1403,-405,-839,-273,366,951,1220
-117,1327,1444,-605,-780,1385,-390,-790,-234,390,956,1210
-97,1298,1395,-600,-746,1346,-366,-741,-190,419,946,1176
-78,1268,1346,-595,-712,1307,-351,-692,-146,439,936,1151
-58,1239,1298,-590,-678,1268,-336,-644,-102,458,927,1127
-39,1210,1249,-585,-644,1229,-322,-595,-58,478,917,1102
-39,1166,1205,-563,-622,1185,-307,-546,-14,497,902,1068
-39,1132,1171,-546,-605,1151,-292,-497,19,507,897,1044
-39,1098,1137,-529,-588,1117,-278,-448,53,517,893,1019
-39,1063,1102,-512,-570,1083,-263,-400,87,527,888,995
-19,1034,1054,-507,-536,1044,-244,-351,112,531,863,951
0,1005,1005,-502,-502,1005,-234,-312,136,536,839,917
19,976,956,-497,-468,966,-224,-273,161,541,814,883
39,946,907,-492,-434,927,-214,-234,185,546,790,849
14,893,878,-453,-431,885,-185,-190,219,536,771,819
0,839,839,-419,-419,839,-165,-146,244,536,751,790
-14,785,800,-385,-407,793,-146,-102,268,536,732,761
-29,732,761,-351,-395,746,-126,-58,292,536,712,732
-9,707,717,-348,-363,712,-117,-29,297,517,678,697
9,692,683,-351,-336,688,-107,-9,302,507,653,663
29,678,649,-353,-309,663,-97,9,307,497,629,629
48,663,614,-356,-283,639,-87,29,312,488,605,595
58,634,575,-346,-258,605,-63,48,322,473,580,570
58,605,546,-331,-244,575,-48,68,322,468,566,546
58,575,517,-317,-229,546,-34,87,322,463,551,522
58,546,488,-302,-214,517,-19,107,322,458,536,497
53,507,453,-280,-200,480,-19,107,302,434,507,468
48,468,419,-258,-185,444,-19,107,292,409,478,439
43,429,385,-236,-170,407,-19,107,283,385,448,409
39,390,351,-214,-156,370,-19,107,273,361,419,380
24,361,336,-192,-156,348,-14,102,253,336,395,356
19,341,322,-180,-151,331,-9,97,244,322,370,331
14,322,307,-168,-146,314,-4,92,234,307,346,307
9,302,292,-156,-141,297,0,87,224,292,322,283
0,278,278,-139,-139,278,9,78,214,273,302,273
0,263,263,-131,-131,263,9,78,204,263,292,263
0,248,248,-124,-124,248,9,78,195,253,283,253
0,234,234,-117,-117,234,9,78,185,244,273,244
-9,229,239,-109,-124,234,9,68,175,234,253,229
-9,224,234,-107,-122,229,9,58,165,224,244,214
-9,219,229,-104,-119,224,9,48,156,214,234,200
-9,214,224,-102,-117,219,9,39,146,204,224,185
-24,185,209,-80,-117,197,9,29,141,200,219,180
-29,165,195,-68,-112,180,9,29,136,195,214,175
-34,146,180,-56,-107,163,9,29,131,190,209,170
-39,126,165,-43,-102,146,9,29,126,185,204,165
-34,122,156,-43,-95,139,-4,9,107,165,185,146
-29,117,146,-43,-87,131,-9,0,97,156,175,136
-24,112,136,-43,-80,124,-14,-9,87,146,165,126
-19,107,126,-43,-73,117,-19,-19,78,136,156,117
-19,97,117,-39,-68,107,-19,-19,78,136,165,126
-19,97,117,-39,-68,107,-19,-19,78,136,165,126
-19,97,117,-39,-68,107,-19,-19,78,136,165,126
-19,97,117,-39,-68,107,-19,-19,78,136,165,126
-24,87,112,-31,-68,100,-19,-29,68,126,161,122
-29,87,117,-29,-73,102,-19,-29,68,126,156,117
-34,87,122,-26,-78,104,-19,-29,68,126,151,112
-39,87,126,-24,-82,107,-19,-29,68,126,146,107
-29,73,102,-21,-65,87,-29,-34,58,117,141,97
-29,58,87,-14,-58,73,-29,-39,58,117,136,97
-29,43,73,-7,-51,58,-29,-43,58,117,131,97
-29,29,58,0,-43,43,-29,-48,58,117,126,97
-19,48,68,-14,-43,58,-19,-58,48,107,122,92
-19,58,78,-19,-48,68,-19,-58,48,107,117,87
-19,68,87,-24,-53,78,-19,-58,48,107,112,82
-19,78,97,-29,-58,87,-19,-58,48,107,107,78
-34,63,97,-14,-65,80,-9,-53,53,117,112,82
-39,58,97,-9,-68,78,-9,-48,58,117,117,87
-43,53,97,-4,-70,75,-9,-43,63,117,122,92
-48,48,97,0,-73,73,-9,-39,68,117,126,97
-48,39,87,4,-68,63,-19,-48,58,107,122,92
-48,39,87,4,-68,63,-19,-48,58,107,117,87
-48,39,87,4,-68,63,-19,-48,58,107,112,82
-48,39,87,4,-68,63,-19,-48,58,107,107,78
-53,34,87,9,-70,61,-19,-58,48,97,107,68
-58,29,87,14,-73,58,-19,-58,48,97,107,68
-63,24,87,19,-75,56,-19,-58,48,97,107,68
-68,19,87,24,-78,53,-19,-58,48,97,107,68
-48,19,68,14,-58,43,-29,-68,48,87,102,63
-39,19,58,9,-48,39,-29,-68,48,87,97,58
-29,19,48,4,-39,34,-29,-68,48,87,92,53
-19,19,39,0,-29,29,-29,-68,48,87,87,48
-24,24,48,0,-36,36,-29,-63,48,78,78,39
-29,29,58,0,-43,43,-29,-58,48,78,78,39
-34,34,68,0,-51,51,-29,-53,48,78,78,39
-39,39,78,0,-58,58,-29,-48,48,78,78,39
-34,48,82,-7,-58,65,-24,-39,53,92,87,43
-29,58,87,-14,-58,73,-19,-39,58,97,87,48
-24,68,92,-21,-58,80,-14,-39,63,102,87,53
-19,78,97,-29,-58,87,-9,-39,68,107,87,58
-34,53,87,-9,-61,70,-24,-43,53,97,82,43
-39,29,68,4,-53,48,-29,-48,48,87,78,39
-43,4,48,19,-46,26,-34,-53,43,78,73,34
-48,-19,29,34,-39,4,-39,-58,39,68,68,29
-43,4,48,19,-46,26,-29,-39,58,78,82,43
-39,19,58,9,-48,39,-19,-29,68,87,87,48
-34,34,68,0,-51,51,-9,-19,78,97,92,53
-29,48,78,-9,-53,63,0,-9,87,107,97,58
-43,39,82,2,-63,61,4,-9,97,117,102,63
-48,39,87,4,-68,63,9,-9,97,117,107,68
-53,39,92,7,-73,65,14,-9,97,117,112,73
-58,39,97,9,-78,68,19,-9,97,117,117,78
-39,48,87,-4,-63,68,14,0,97,117,112,73
-29,58,87,-14,-58,73,9,0,97,117,107,68
-19,68,87,-24,-53,78,4,0,97,117,102,63
-9,78,87,-34,-48,82,0,0,97,117,97,58
-43,43,87,0,-65,65,-19,-14,82,102,82,34
-78,9,87,34,-82,48,-29,-29,68,87,68,19
-112,-24,87,68,-100,31,-39,-43,53,73,53,4
-146,-58,87,102,-117,14,-48,-58,39,58,39,-9
-122,-39,82,80,-102,21,-34,-43,58,78,48,9
-97,-19,78,58,-87,29,-19,-29,68,87,58,19
-73,0,73,36,-73,36,-4,-14,78,97,68,29
-48,19,68,14,-58,43,9,0,87,107,78,39
-48,24,73,12,-61,48,0,0,87,97,78,39
-48,29,78,9,-63,53,0,0,87,97,78,39
-48,34,82,7,-65,58,0,0,87,97,78,39
-48,39,87,4,-68,63,0,0,87,97,78,39
-58,34,92,12,-75,63,0,0,87,97,87,48
-68,29,97,19,-82,63,0,0,87,97,87,48
-78,24,102,26,-90,63,0,0,87,97,87,48
-87,19,107,34,-97,63,0,0,87,97,87,48
-68,34,102,17,-85,68,14,9,92,112,92,48
-58,48,107,4,-82,78,19,9,97,117,97,48
-48,63,112,-7,-80,87,24,9,102,122,102,48
-39,78,117,-19,-78,97,29,9,107,126,107,48
-53,68,122,-7,-87,95,19,19,117,117,102,58
-68,58,126,4,-97,92,19,19,117,117,97,58
-82,48,131,17,-107,90,19,19,117,117,92,58
-87,58,146,14,-117,102,19,19,117,136,102,68
-34,87,122,-26,-78,104,19,19,122,146,122,78
-29,112,141,-41,-85,126,29,14,131,156,131,87
-14,141,156,-63,-85,148,48,34,146,165,156,102
29,195,165,-112,-68,180,63,48,161,180,165,107
9,200,190,-104,-90,195,58,43,170,175,161,97
4,190,185,-97,-90,187,58,39,165,170,141,97
-4,185,190,-90,-97,187,53,24,161,170,151,97
-14,175,190,-80,-102,183,34,14,151,165,151,92
-39,146,185,-53,-112,165,34,19,151,161,156,102
-78,117,195,-19,-136,156,29,24,156,165,156,97
-58,126,185,-34,-122,156,14,29,165,185,161,97
-24,141,165,-58,-95,153,9,29,170,200,180,112
-29,151,180,-61,-104,165,-24,19,161,190,170,117
-29,126,156,-48,-92,141,-29,29,170,195,180,136
-4,146,151,-70,-78,148,-29,43,180,195,180,136
29,161,131,-95,-51,146,-39,34,170,195,161,117
19,175,156,-97,-68,165,-53,24,146,170,146,102
0,170,170,-85,-85,170,-73,-4,136,165,141,92
-24,146,170,-61,-97,158,-102,-24,112,141,131,82
-34,131,165,-48,-100,148,-117,-43,92,122,112,68
-14,141,156,-63,-85,148,-112,-29,97,126,117,87
-29,126,156,-48,-92,141,-107,-24,102,136,126,97
-58,117,175,-29,-117,146,-112,-43,87,131,136,102
-58,136,195,-39,-126,165,-117,-58,87,131,131,102
-68,97,165,-14,-117,131,-131,-87,63,107,87,68
-63,63,126,0,-95,95,-141,-87,53,87,68,48
-48,73,122,-12,-85,97,-146,-78,48,92,82,53
-43,58,102,-7,-73,80,-136,-68,58,107,87,48
-9,43,53,-17,-31,48,-136,-68,43,92,82,39
39,48,9,-43,14,29,-136,-82,34,73,68,29
68,87,19,-78,24,53,-112,-68,34,82,68,39
63,92,29,-78,17,61,-102,-58,34,82,68,39
4,53,48,-29,-21,51,-107,-82,24,68,58,14
-24,39,63,-7,-43,51,-102,-82,14,48,43,9
-53,43,97,4,-75,70,-73,-68,34,68,53,19
-82,43,126,19,-104,85,-58,-39,63,97,82,39
-63,48,112,7,-87,80,-43,-14,78,126,107,53
-58,48,107,4,-82,78,-9,4,107,131,122,68
-39,68,107,-14,-73,87,19,29,131,156,136,82
0,102,102,-51,-51,102,39,39,156,161,141,92
9,107,97,-58,-43,102,43,43,165,161,141,102
4,102,97,-53,-46,100,48,48,151,151,131,82
0,82,82,-41,-41,82,53,43,136,151,122,78
-14,97,112,-41,-63,104,58,48,136,156,122,73
-19,73,92,-26,-56,82,48,39,126,136,107,53
-63,24,87,19,-75,56,34,14,97,117,92,39
-97,-19,78,58,-87,29,19,-4,82,102,73,24
-122,-43,78,82,-100,17,9,-14,73,87,58,9
-102,-24,78,63,-90,26,14,0,78,97,58,9
-92,-14,78,53,-85,31,14,0,78,97,58,4
-112,-19,92,65,-102,36,9,-9,68,82,43,0
-107,-24,82,65,-95,29,4,-19,68,78,39,-14
-131,-58,73,95,-102,7,19,-4,73,87,53,-9
-151,-68,82,109,-117,7,29,9,78,92,63,0
-146,-58,87,102,-117,14,39,14,92,97,68,14
-136,-68,68,102,-102,0,43,19,97,97,73,24
-126,-53,73,90,-100,9,29,4,78,87,53,9
-117,-58,58,87,-87,0,14,-4,73,73,48,-4
-112,-53,58,82,-85,2,19,-9,73,82,48,9
-102,-34,68,68,-85,17,19,0,82,97,63,24
-107,-39,68,73,-87,14,9,0,78,92,58,9
-112,-78,34,95,-73,-21,-4,-19,58,73,39,-4
-131,-97,34,114,-82,-31,-4,-19,53,68,24,-24
-156,-107,48,131,-102,-29,4,-9,58,73,34,-19
-78,34,112,21,-95,73,68,39,112,131,112,53
-48,39,87,4,-68,63,58,19,112,122,92,53
-126,-53,73,90,-100,9,34,0,92,92,73,24
-165,-87,78,126,-122,-4,34,9,87,92,63,24
-117,-39,78,78,-97,19,19,-4,73,82,63,19
-58,0,58,29,-58,29,-4,-39,39,63,63,24
-82,-48,34,65,-58,-7,-24,-73,0,53,58,14
-136,-68,68,102,-102,0,-39,-112,-19,58,68,24
-151,-39,112,95,-131,36,-53,-146,-34,58,68,29
-102,0,102,51,-102,51,-58,-151,-9,87,102,39
-43,-9,34,26,-39,12,-58,-156,19,131,131,63
-9,0,9,4,-9,4,-102,-185,24,165,151,82
53,82,29,-68,12,56,-151,-185,58,209,190,102
102,68,-34,-85,68,17,-185,-141,126,258,214,92
87,-39,-126,-24,107,-82,-204,-68,248,341,248,97
58,-117,-175,29,117,-146,-204,0,366,439,307,126
53,-102,-156,24,104,-129,-219,-78,380,488,366,161
102,14,-87,-58,95,-36,-248,-297,234,463,395,214
185,151,-34,-168,109,58,-287,-590,-43,346,414,278
204,195,-9,-200,107,92,-336,-854,-361,180,414,336
141,161,19,-151,61,90,-395,-1146,-790,-136,341,370
53,122,68,-87,-7,95,-507,-1571,-1483,-658,151,361
19,146,126,-82,-53,136,-590,-2039,-2230,-1205,-48,370
24,239,214,-131,-95,226,-600,-2327,-2723,-1620,-200,390
63,292,229,-178,-82,261,-585,-2454,-3093,-2005,-375,370
102,263,161,-183,-29,212,-575,-2522,-3494,-2405,-585,302
151,204,53,-178,48,129,-512,-2503,-3723,-2644,-722,244
175,195,19,-185,78,107,-429,-2459,-3801,-2723,-766,234
141,146,4,-143,68,75,-395,-2522,-3947,-2864,-868,209
102,43,-58,-73,80,-7,-444,-2737,-4230,-3147,-1088,117
170,58,-112,-114,141,-26,-522,-3050,-4514,-3416,-1332,34
224,102,-122,-163,173,-9,-614,-3372,-4728,-3606,-1498,9
224,19,-204,-122,214,-92,-732,-3660,-4870,-3723,-1615,0
302,9,-292,-156,297,-141,-863,-3869,-4880,-3742,-1639,68
395,48,-346,-222,370,-148,-961,-3908,-4748,-3625,-1546,244
395,-34,-429,-180,412,-231,-1112,-3860,-4518,-3464,-1464,419
405,-141,-546,-131,475,-344,-1288,-3801,-4294,-3318,-1434,517
497,-68,-566,-214,531,-317,-1424,-3713,-4001,-3089,-1317,634
605,131,-473,-368,539,-170,-1478,-3508,-3640,-2781,-1132,800
668,244,-424,-456,546,-90,-1551,-3313,-3298,-2508,-995,883
712,273,-439,-492,575,-82,-1595,-3132,-3015,-2288,-912,858
736,366,-370,-551,553,-2,-1566,-2884,-2727,-2088,-878,814
683,492,-190,-588,436,151,-1468,-2581,-2425,-1888,-834,780
610,551,-58,-580,334,246,-1342,-2278,-2122,-1693,-814,688
546,507,-39,-527,292,234,-1210,-2000,-1859,-1522,-805,522
419,414,-4,-417,212,204,-1054,-1751,-1644,-1371,-790,361
326,385,58,-356,134,222,-902,-1532,-1444,-1215,-756,234
263,356,92,-309,85,224,-780,-1342,-1254,-1078,-736,92
180,234,53,-207,63,143,-658,-1151,-1068,-936,-697,-39
48,63,14,-56,17,39,-512,-932,-858,-780,-649,-141
-97,-43,53,70,-75,4,-385,-712,-649,-629,-590,-234
-190,-43,146,117,-168,51,-283,-527,-463,-492,-522,-292
-209,-24,185,117,-197,80,-195,-356,-302,-366,-429,-287
-204,-43,161,124,-183,58,-112,-234,-170,-248,-331,-263
-229,-82,146,156,-187,31,-68,-146,-97,-170,-273,-253
-268,-107,161,187,-214,26,-14,-87,-29,-92,-204,-224
-273,-87,185,180,-229,48,43,-14,39,-9,-122,-165
-244,-107,136,175,-190,14,82,43,112,53,-73,-126
-244,-165,78,204,-161,-43,87,87,170,97,-43,-126
-239,-165,73,202,-156,-46,122,165,253,161,9,-92
-209,-131,78,170,-143,-26,151,224,302,195,39,-73
-185,-112,73,148,-129,-19,151,229,317,200,34,-92
-165,-92,73,129,-119,-9,156,248,326,214,43,-87
-126,-48,78,87,-102,14,185,287,351,258,82,-53
-92,-39,53,65,-73,7,175,292,356,268,102,-48
-102,-58,43,80,-73,-7,170,287,356,268,117,-53
-117,-73,43,95,-80,-14,156,283,356,268,117,-63
-97,-68,29,82,-63,-19,156,287,366,268,112,-68
-102,-58,43,80,-73,-7,161,302,385,283,117,-53
-126,-63,63,95,-95,0,165,312,390,292,102,-48
-131,-63,68,97,-100,2,185,336,409,307,107,-39
-136,-53,82,95,-109,14,200,346,414,331,131,-19
-131,-73,58,102,-95,-7,190,317,390,312,112,-29
-131,-92,39,112,-85,-26,175,307,380,302,107,-39
-141,-87,53,114,-97,-17,165,307,380,292,117,-43
-151,-82,68,117,-109,-7,156,312,375,287,117,-48
-136,-73,63,104,-100,-4,165,322,385,297,126,-48
-151,-107,43,129,-97,-31,161,322,385,292,107,-48
-165,-122,43,143,-104,-39,165,326,395,287,97,-63
-136,-102,34,119,-85,-34,175,336,409,287,97,-63
-136,-97,39,117,-87,-29,195,336,409,302,107,-48
-161,-117,43,139,-102,-36,185,331,405,302,112,-48
-175,-107,68,141,-122,-19,180,326,400,302,117,-48
-151,-92,58,122,-104,-17,180,331,395,307,136,-43
-136,-78,58,107,-97,-9,175,361,414,326,151,-43
-141,-78,63,109,-102,-7,185,361,429,326,146,-43
-136,-82,53,109,-95,-14,165,351,419,312,102,-63
-141,-82,58,112,-100,-12,165,341,419,312,87,-68
-165,-78,87,122,-126,4,161,336,405,302,92,-58
-170,-82,87,126,-129,2,161,331,400,302,87,-58
-175,-78,97,126,-136,9,161,336,400,302,112,-53
-175,-87,87,131,-131,0,165,346,405,307,141,-48
-165,-92,73,129,-119,-9,156,351,419,307,136,-58
-165,-92,73,129,-119,-9,151,351,419,297,122,-63
-156,-73,82,114,-119,4,151,356,419,297,102,-63
-131,-68,63,100,-97,-2,161,375,434,287,87,-53
-112,-48,63,80,-87,7,165,375,448,292,107,-39
-122,-87,34,104,-78,-26,165,370,444,297,122,-48
-112,-58,53,85,-82,-2,170,390,458,331,156,-24
-92,-39,53,65,-73,7,175,405,468,356,185,0
-126,-78,48,102,-87,-14,185,400,458,336,170,-14
-136,-78,58,107,-97,-9,185,405,468,331,151,-14
-87,-53,34,70,-61,-9,190,429,478,326,126,-19
-87,-63,24,75,-56,-19,190,429,478,317,92,-34
-78,-68,9,73,-43,-29,185,419,458,326,92,-48
-68,-48,19,58,-43,-14,180,414,468,326,92,-58
-73,-48,24,61,-48,-12,185,424,478,331,97,-68
-82,-29,53,56,-68,12,180,434,488,336,117,-78
-82,-58,24,70,-53,-17,185,439,502,346,117,-82
-82,-68,14,75,-48,-26,180,448,512,351,112,-87
-112,-87,24,100,-68,-31,195,473,522,356,112,-92
-141,-112,29,126,-85,-41,200,483,531,356,112,-102
-156,-126,29,141,-92,-48,190,468,522,346,102,-92
-175,-131,43,153,-109,-43,185,468,517,346,102,-92
-185,-131,53,158,-119,-39,180,473,517,341,78,-97
-165,-136,29,151,-97,-53,170,483,507,336,68,-102
-146,-122,24,134,-85,-48,185,522,546,346,63,-112
-131,-122,9,126,-70,-56,219,556,575,356,78,-112
-170,-141,29,156,-100,-56,234,580,600,361,58,-117
-170,-131,39,151,-104,-46,248,595,614,370,48,-122
-170,-136,34,153,-102,-51,239,590,605,361,43,-136
-165,-131,34,148,-100,-48,229,595,605,361,43,-146
-122,-126,-4,124,-58,-65,229,614,624,375,43,-156
-102,-107,-4,104,-48,-56,229,639,634,390,63,-165
-146,-126,19,136,-82,-53,239,658,653,405,78,-161
-141,-126,14,134,-78,-56,253,688,678,419,82,-146
-92,-102,-9,97,-41,-56,268,717,717,429,92,-131
-102,-102,0,102,-51,-51,278,732,732,439,102,-131
-146,-131,14,139,-80,-58,268,741,727,434,92,-146
-156,-112,43,134,-100,-34,278,771,741,448,92,-151
-180,-112,68,146,-124,-21,287,795,771,463,92,-151
-204,-131,73,168,-139,-29,297,824,785,473,82,-156
-190,-151,39,170,-114,-56,297,849,800,468,78,-161
-156,-141,14,148,-85,-63,317,878,834,483,73,-165
-151,-117,34,134,-92,-41,322,912,863,497,73,-170
-170,-117,53,143,-112,-31,322,946,888,492,68,-185
-204,-156,48,180,-126,-53,312,946,888,478,34,-224
-185,-175,9,180,-97,-82,312,966,897,478,14,-253
-156,-156,0,156,-78,-78,326,1005,927,502,29,-248
-156,-165,-9,161,-73,-87,341,1039,946,502,19,-258
-175,-161,14,168,-95,-73,361,1083,976,536,39,-244
-156,-151,4,153,-80,-73,375,1132,1015,566,73,-229
-156,-141,14,148,-85,-63,395,1171,1054,605,92,-214
-185,-146,39,165,-112,-53,405,1200,1078,619,107,-219
-195,-146,48,170,-122,-48,405,1234,1083,614,92,-229
-195,-146,48,170,-122,-48,419,1254,1098,610,78,-229
-224,-156,68,190,-146,-43,424,1273,1117,605,68,-253
-224,-175,48,200,-136,-63,434,1293,1132,610,48,-258
-234,-180,53,207,-143,-63,453,1312,1132,605,39,-287
-234,-165,68,200,-151,-48,463,1332,1146,614,48,-287
-239,-180,58,209,-148,-61,468,1351,1151,614,34,-297
-244,-209,34,226,-139,-87,463,1361,1161,610,24,-317
-239,-195,43,217,-141,-75,468,1376,1171,624,34,-307
-239,-180,58,209,-148,-61,473,1381,1171,629,43,-307
-248,-175,73,212,-161,-51,478,1381,1171,634,34,-317
-253,-175,78,214,-165,-48,478,1385,1161,629,43,-322
-258,-175,82,217,-170,-46,478,1376,1146,629,43,-312
-278,-170,107,224,-192,-31,488,1366,1146,624,48,-307
-248,-165,82,207,-165,-41,488,1356,1137,614,53,-307
-229,-161,68,195,-148,-46,483,1337,1122,600,48,-307
-239,-156,82,197,-161,-36,463,1322,1083,566,24,-322
-248,-165,82,207,-165,-41,463,1293,1054,546,0,-331
-244,-165,78,204,-161,-43,448,1259,1019,517,-39,-346
-229,-122,107,175,-168,-7,458,1239,1010,522,-39,-326
-219,-112,107,165,-163,-2,463,1224,1005,531,9,-283
-219,-146,73,183,-146,-36,444,1180,956,512,19,-278
-258,-209,48,234,-153,-80,400,1112,893,478,14,-273
-302,-219,82,261,-192,-68,385,1068,878,453,9,-268
-253,-156,97,204,-175,-29,395,1054,849,448,-9,-268
-244,-141,102,192,-173,-19,395,1024,814,439,-9,-268
-234,-141,92,187,-163,-24,390,980,790,424,-14,-268
-204,-126,78,165,-141,-24,366,927,751,409,-14,-268
-219,-136,82,178,-151,-26,326,863,683,375,-34,-273
-229,-141,87,185,-158,-26,302,814,644,341,-39,-273
-234,-151,82,192,-158,-34,283,751,610,307,-43,-278
-239,-161,78,200,-158,-41,268,707,556,283,-43,-268
-224,-131,92,178,-158,-19,287,692,527,287,-9,-234
-200,-117,82,158,-141,-17,287,663,522,278,-4,-214
-185,-102,82,143,-134,-9,253,590,478,248,-19,-209
-170,-87,82,129,-126,-2,219,517,439,239,-19,-200
-161,-87,73,124,-117,-7,195,483,405,209,-24,-185
-156,-92,63,124,-109,-14,180,444,375,190,-29,-170
-126,-87,39,107,-82,-24,161,400,336,180,-24,-170
-112,-78,34,95,-73,-21,151,366,307,175,-24,-156
-122,-82,39,102,-80,-21,131,356,302,175,-29,-126
-146,-68,78,107,-112,4,126,322,287,170,-19,-117
-170,-53,117,112,-143,31,122,287,273,165,-9,-107
-195,-39,156,117,-175,58,122,253,258,165,0,-97
-165,-29,136,97,-151,53,112,253,248,161,-4,-97
-131,-19,112,75,-122,46,107,244,234,156,0,-87
-112,-48,63,80,-87,7,92,214,204,126,-4,-92
-102,-73,29,87,-65,-21,73,190,185,112,-19,-97
-97,-48,48,73,-73,0,48,165,180,112,4,-73
-68,-48,19,58,-43,-14,48,151,170,117,24,-63
-97,-58,39,78,-68,-9,48,146,170,126,48,-43
-122,-63,58,92,-90,-2,53,146,180,141,73,-29
-131,-63,68,97,-100,2,63,141,180,131,48,-34
-131,-68,63,100,-97,-2,58,141,175,102,9,-58
-136,-92,43,114,-90,-24,43,136,156,82,-24,-63
-141,-58,82,100,-112,12,43,136,151,82,-34,-68
-107,-34,73,70,-90,19,53,136,156,97,-9,-58
-53,-24,29,39,-41,2,53,141,156,107,19,-39
0,-14,-14,7,7,-14,53,151,156,117,48,-24
-48,-48,0,48,-24,-24,43,126,141,117,29,-24
-87,-68,19,78,-53,-24,39,102,141,107,29,-14
-87,-48,39,68,-63,-4,39,117,151,126,63,-9
-43,-4,39,24,-41,17,39,122,161,141,87,-4
-73,-24,48,48,-61,12,39,122,161,146,68,-4
-102,-43,58,73,-80,7,48,136,170,136,24,-29
-73,-29,43,51,-58,7,53,146,180,131,34,-34
-34,-14,19,24,-26,2,58,151,180,122,19,-48
-48,-29,19,39,-34,-4,58,156,180,102,0,-63
-78,-39,39,58,-58,0,58,161,185,122,0,-58
-43,-39,4,41,-24,-17,58,156,180,131,29,-48
-9,-34,-24,21,7,-29,58,151,175,141,58,-34
24,-29,-53,2,39,-41,58,146,170,146,87,-19
-48,-43,4,46,-26,-19,43,151,165,156,97,-4
-73,-39,34,56,-53,-2,39,151,185,161,97,9
-58,-24,34,41,-46,4,43,161,195,161,87,4
-78,-29,48,53,-63,9,39,161,200,146,58,-4
-78,-48,29,63,-53,-9,43,170,195,136,48,-29
-53,-58,-4,56,-24,-31,58,185,204,156,68,-24
-53,-82,-29,68,-12,-56,63,185,204,161,68,-29
-68,-87,-19,78,-24,-53,68,185,204,161,63,-34
-68,-87,-19,78,-24,-53,63,180,214,175,87,-34
-39,-48,-9,43,-14,-29,68,200,229,185,102,-34
-39,-48,-9,43,-14,-29,68,200,229,185,82,-34
-63,-87,-24,75,-19,-56,58,185,214,156,48,-58
-24,-82,-58,53,17,-70,68,195,224,136,-9,-58
24,-4,-29,-9,26,-17,92,229,248,190,58,-34
39,9,-29,-24,34,-9,97,224,253,204,68,-58
19,9,-9,-14,14,0,107,234,268,219,82,-39
9,9,0,-9,4,4,107,244,273,224,97,-29
0,9,9,-4,-4,9,107,253,278,229,112,-19
-9,9,19,0,-14,14,107,263,283,234,126,-9
-9,19,29,-4,-19,24,117,263,287,258,151,14
4,24,19,-14,-7,21,107,258,287,263,161,24
-19,24,43,-2,-31,34,107,248,292,268,170,34
-34,29,63,2,-48,46,117,263,302,273,195,48
-14,48,63,-17,-39,56,112,263,302,263,175,34
-9,63,73,-26,-41,68,122,263,312,258,165,29
0,63,63,-31,-31,63,126,263,307,253,141,24
4,68,63,-36,-29,65,126,253,302,253,146,19
4,78,73,-41,-34,75,122,239,302,268,156,14
-9,58,68,-24,-39,63,117,239,302,263,161,14
-39,29,68,4,-53,48,107,239,307,268,161,9
-9,39,48,-14,-29,43,87,239,317,287,165,9
39,63,24,-51,7,43,63,219,307,278,175,34
29,73,43,-51,-7,58,34,204,297,268,170,48
24,58,34,-41,-4,46,24,209,297,263,175,78
43,87,43,-65,0,65,19,219,297,253,170,87
58,112,53,-85,2,82,4,195,273,244,146,48
58,131,73,-95,-7,102,-9,185,258,234,141,34
48,131,82,-90,-17,107,-29,156,248,234,136,24
34,112,78,-73,-21,95,-58,136,224,214,126,14
53,78,24,-65,14,51,-68,112,200,200,122,9
73,58,-14,-65,43,21,-73,112,195,195,117,9
68,24,-43,-46,56,-9,-78,112,190,195,117,9
48,-4,-53,-21,51,-29,-92,87,165,180,117,4
34,14,-19,-24,26,-2,-97,58,156,161,112,9
19,-4,-24,-7,21,-14,-107,39,136,141,82,-4
9,-29,-39,9,24,-34,-112,39,131,126,68,-14
9,-9,-19,0,14,-14,-112,48,131,136,87,0
34,-9,-43,-12,39,-26,-92,48,141,165,102,9
48,-39,-87,-4,68,-63,-87,48,122,141,92,0
87,-39,-126,-24,107,-82,-82,34,107,122,82,-9
107,-4,-112,-51,109,-58,-53,48,102,131,87,0
82,9,-73,-46,78,-31,-34,48,112,131,73,9
63,0,-63,-31,63,-31,-34,34,112,122,63,0
63,4,-58,-34,61,-26,-24,34,102,107,48,0
63,29,-34,-46,48,-2,9,48,122,131,58,14
58,53,-4,-56,31,24,19,63,136,161,97,34
43,39,-4,-41,24,17,14,68,136,170,112,34
14,19,4,-17,4,12,29,78,151,165,126,34
0,19,19,-9,-9,19,39,92,161,180,141,34
4,24,19,-14,-7,21,39,87,170,175,126,29
0,14,14,-7,-7,14,39,87,165,165,112,24
-9,-4,4,7,-7,0,39,87,146,146,97,0
-19,-39,-19,29,0,-29,39,78,126,136,82,-9
-24,-19,4,21,-14,-7,29,63,112,136,87,-9
-4,-19,-14,12,4,-17,29,58,107,131,82,-9
-24,-43,-19,34,-2,-31,24,39,82,117,78,-14
-34,-63,-29,48,-2,-46,19,24,73,107,68,-19
-19,-48,-29,34,4,-39,24,29,78,87,53,-19
-4,-48,-43,26,19,-46,34,39,82,87,48,-19
0,-48,-48,24,24,-48,39,43,82,87,43,-24
-24,-63,-39,43,7,-51,39,39,73,73,24,-29
-34,-97,-63,65,14,-80,24,19,58,68,29,-48
-53,-117,-63,85,4,-90,24,19,58,68,29,-58
-68,-122,-53,95,-7,-87,29,29,58,73,34,-63
-58,-107,-48,82,-4,-78,34,29,68,78,34,-63
-48,-107,-58,78,4,-82,29,24,68,87,43,-58
-48,-107,-58,78,4,-82,14,9,58,78,34,-58
-48,-117,-68,82,9,-92,0,0,53,63,29,-68
-53,-117,-63,85,4,-90,4,-4,53,73,29,-48
-43,-78,-34,61,-4,-56,0,0,53,87,53,-24
-43,-48,-4,46,-19,-26,0,0,53,87,63,-24
-43,-63,-19,53,-12,-41,-14,-19,39,73,48,-34
-58,-58,0,58,-29,-29,-14,-19,39,73,39,-48
-39,-97,-58,68,9,-78,-4,-19,19,34,-14,-68
-68,-131,-63,100,-2,-97,9,-19,24,43,14,-43
-48,-126,-78,87,14,-102,19,-9,34,53,43,-14
-39,-102,-63,70,12,-82,14,0,53,63,63,-4
-39,-68,-29,53,-4,-48,14,9,68,73,53,-4
-29,-97,-68,63,19,-82,19,-4,43,53,4,-39
-68,-165,-97,117,14,-131,-4,-48,-9,4,-43,-63
-63,-126,-63,95,0,-95,-4,-73,-9,43,9,-14
29,-9,-39,-9,34,-24,9,-73,19,117,126,34
24,9,-14,-17,19,-2,-14,-117,-4,117,136,9
-34,-39,-4,36,-14,-21,-78,-180,-48,68,82,-9
43,9,-34,-26,39,-12,-97,-195,-39,92,122,53
136,68,-68,-102,102,0,-122,-195,-4,136,180,112
92,-14,-107,-39,100,-61,-170,-195,9,122,131,73
122,-78,-200,-21,161,-139,-204,-141,58,131,78,14
214,-58,-273,-78,244,-165,-224,-29,161,185,73,-19
214,-87,-302,-63,258,-195,-253,19,268,292,151,-39
239,-63,-302,-87,270,-183,-278,-68,322,409,278,24
297,43,-253,-170,275,-104,-297,-297,224,405,346,126
244,24,-219,-134,231,-97,-326,-570,-14,287,326,200
156,19,-136,-87,146,-58,-356,-805,-292,151,307,278
190,112,-78,-151,134,17,-405,-1137,-771,-175,253,322
180,131,-48,-156,114,41,-517,-1639,-1503,-678,102,322
97,156,58,-126,19,107,-580,-2049,-2113,-1078,29,380
102,317,214,-209,-56,265,-541,-2249,-2488,-1366,-43,458
161,409,248,-285,-43,329,-527,-2405,-2947,-1820,-287,419
131,283,151,-207,-9,217,-546,-2591,-3464,-2308,-585,312
92,165,73,-129,9,119,-531,-2679,-3782,-2605,-751,244
78,146,68,-112,4,107,-488,-2752,-3938,-2771,-844,195
24,97,73,-61,-24,85,-444,-2874,-4123,-2952,-985,141
24,82,58,-53,-17,70,-424,-3059,-4328,-3186,-1185,126
82,107,24,-95,29,65,-492,-3401,-4553,-3445,-1459,63
126,122,-4,-124,65,58,-634,-3801,-4767,-3635,-1712,-29
156,165,9,-161,73,87,-732,-4069,-4860,-3723,-1820,-39
253,204,-48,-229,151,78,-824,-4191,-4821,-3694,-1786,68
414,165,-248,-290,331,-41,-1019,-4211,-4699,-3586,-1722,185
580,102,-478,-341,529,-187,-1220,-4133,-4479,-3455,-1698,244
727,92,-634,-409,680,-270,-1366,-4006,-4206,-3298,-1639,302
732,87,-644,-409,688,-278,-1503,-3840,-3894,-3059,-1512,409
702,141,-561,-422,631,-209,-1586,-3606,-3542,-2771,-1366,497
814,283,-531,-549,673,-124,-1610,-3333,-3201,-2498,-1249,492
936,390,-546,-663,741,-78,-1595,-3084,-2918,-2308,-1244,400
912,424,-488,-668,700,-31,-1556,-2815,-2659,-2156,-1268,307
819,444,-375,-631,597,34,-1449,-2513,-2386,-1986,-1263,204
736,473,-263,-605,500,104,-1312,-2200,-2093,-1781,-1176,102
644,478,-165,-561,405,156,-1141,-1922,-1810,-1571,-1068,14
517,414,-102,-466,309,156,-976,-1683,-1586,-1410,-1005,-78
366,317,-48,-341,207,134,-834,-1493,-1405,-1254,-961,-175
214,209,-4,-212,109,102,-722,-1283,-1205,-1078,-893,-268
92,107,14,-100,39,61,-619,-1073,-1010,-936,-824,-351
-9,24,34,-7,-21,29,-531,-902,-868,-829,-785,-414
-87,-4,82,46,-85,39,-414,-722,-688,-668,-668,-409
-82,4,87,39,-85,46,-292,-517,-483,-473,-492,-361
-92,-24,68,58,-80,21,-214,-366,-331,-346,-370,-317
-175,-73,102,124,-139,14,-131,-263,-209,-258,-302,-263
-219,-82,136,151,-178,26,-48,-146,-97,-141,-204,-185
-190,-68,122,129,-156,26,4,-68,-19,-53,-126,-146
-136,-58,78,97,-107,9,34,-14,39,9,-112,-156
-126,-87,39,107,-82,-24,63,73,102,63,-82,-146
-117,-136,-19,126,-48,-78,58,117,141,68,-82,-146
-102,-175,-73,139,-14,-124,63,126,156,53,-107,-180
-92,-151,-58,122,-17,-104,92,165,185,87,-78,-190
-78,-131,-53,104,-12,-92,92,190,229,112,-43,-200
-78,-161,-82,119,2,-122,107,209,258,126,-14,-195
-9,-107,-97,58,43,-102,146,248,302,200,63,-161
19,-87,-107,34,63,-97,136,263,312,214,87,-131
14,-97,-112,41,63,-104,131,258,307,219,107,-122
4,-102,-107,48,56,-104,117,253,302,224,112,-117
29,-87,-117,29,73,-102,117,258,307,229,112,-107
14,-97,-112,41,63,-104,102,248,302,214,82,-112
-19,-112,-92,65,36,-102,97,244,292,204,53,-117
-34,-122,-87,78,26,-104,107,253,297,200,43,-117
-48,-122,-73,85,12,-97,112,248,287,204,53,-107
-48,-131,-82,90,17,-107,122,258,292,214,58,-97
-43,-141,-97,92,26,-119,126,268,302,224,68,-97
-48,-126,-78,87,14,-102,136,287,322,234,92,-92
-53,-112,-58,82,2,-85,146,312,336,248,107,-87
-53,-102,-48,78,-2,-75,151,312,346,248,97,-78
-73,-136,-63,104,-4,-100,141,302,336,244,78,-78
-92,-151,-58,122,-17,-104,141,297,336,239,68,-92
-68,-131,-63,100,-2,-97,146,297,341,239,68,-92
-39,-107,-68,73,14,-87,156,302,346,253,82,-78
-43,-126,-82,85,19,-104,146,302,346,253,92,-78
-39,-117,-78,78,19,-97,141,302,346,253,102,-78
4,-102,-107,48,56,-104,141,312,346,258,126,-73
9,-87,-97,39,53,-92,141,326,356,248,126,-73
4,-78,-82,36,43,-80,146,322,361,239,107,-82
9,-73,-82,31,46,-78,122,307,341,214,48,-112
4,-63,-68,29,36,-65,117,292,331,204,19,-126
-24,-82,-58,53,17,-70,136,302,341,219,24,-126
-34,-112,-78,73,21,-95,141,302,341,224,19,-126
-43,-131,-87,87,21,-109,146,312,346,229,43,-122
-48,-165,-117,107,34,-141,156,326,356,239,73,-117
-63,-175,-112,119,24,-143,146,322,346,248,97,-112
-78,-170,-92,124,7,-131,131,312,341,248,102,-112
-82,-146,-63,114,-9,-104,122,307,336,258,102,-107
-73,-136,-63,104,-4,-100,122,317,346,258,107,-92
-34,-102,-68,68,17,-85,126,312,361,244,92,-112
-34,-126,-92,80,29,-109,126,312,356,229,73,-136
-14,-82,-68,48,26,-75,131,336,370,244,73,-126
14,-48,-63,17,39,-56,136,356,380,248,68,-117
0,-92,-92,46,46,-92,126,351,370,244,68,-126
-9,-97,-87,53,39,-92,126,356,380,244,63,-122
39,-78,-117,19,78,-97,131,380,390,244,53,-122
39,-92,-131,26,85,-112,131,380,390,239,34,-131
19,-107,-126,43,73,-117,141,366,390,244,43,-131
9,-107,-117,48,63,-112,141,366,400,248,53,-126
-14,-126,-112,70,48,-119,151,380,409,258,68,-122
-43,-126,-82,85,19,-104,151,395,419,268,97,-117
-14,-117,-102,65,43,-109,141,385,424,263,73,-117
14,-97,-112,41,63,-104,131,390,424,263,63,-117
14,-87,-102,36,58,-95,141,409,424,263,58,-117
14,-82,-97,34,56,-90,141,414,424,258,53,-122
0,-102,-102,51,51,-102,141,414,434,273,63,-131
-19,-112,-92,65,36,-102,146,419,439,278,73,-131
-29,-117,-87,73,29,-102,151,429,448,278,58,-136
-9,-126,-117,68,53,-122,151,444,448,278,58,-141
-24,-141,-117,82,46,-129,141,468,478,292,73,-126
-43,-151,-107,97,31,-129,161,497,497,307,97,-122
-117,-180,-63,148,-26,-122,161,517,512,317,87,-122
-151,-180,-29,165,-61,-104,161,527,517,331,87,-122
-126,-146,-19,136,-53,-82,175,536,531,341,97,-117
-97,-122,-24,109,-36,-73,180,546,536,341,102,-117
-29,-97,-68,63,19,-82,195,570,561,356,107,-117
14,-58,-73,21,43,-65,209,600,575,370,131,-117
-24,-82,-58,53,17,-70,200,610,575,361,112,-141
-24,-87,-63,56,19,-75,204,629,590,361,92,-146
19,-68,-87,24,53,-78,209,649,619,356,78,-151
4,-73,-78,34,41,-75,209,653,624,351,63,-170
-4,-97,-92,51,43,-95,195,644,619,356,53,-190
0,-82,-82,41,41,-82,200,673,634,370,63,-190
-9,-87,-78,48,34,-82,204,697,663,385,73,-185
-19,-112,-92,65,36,-102,209,727,678,395,73,-185
-24,-136,-112,80,43,-124,224,761,712,409,87,-180
-9,-141,-131,75,61,-136,248,800,746,434,92,-175
-24,-131,-107,78,41,-119,258,844,775,458,102,-170
-63,-146,-82,104,9,-114,263,888,800,463,107,-175
-92,-156,-63,124,-14,-109,263,897,810,473,87,-200
-58,-156,-97,107,19,-126,263,917,829,478,82,-214
-14,-117,-102,65,43,-109,278,956,868,507,112,-195
0,-107,-107,53,53,-107,292,990,897,512,117,-190
19,-53,-73,17,46,-63,297,1039,927,541,126,-209
0,-97,-97,48,48,-97,302,1063,956,546,126,-204
-14,-97,-82,56,34,-90,317,1078,976,561,136,-204
-19,-97,-78,58,29,-87,322,1093,985,566,136,-204
-24,-97,-73,61,24,-85,326,1107,995,570,136,-204
-29,-97,-68,63,19,-82,331,1122,1005,575,136,-204
-53,-107,-53,80,0,-80,346,1137,1015,580,136,-209
-68,-107,-39,87,-14,-73,351,1151,1024,585,136,-214
-82,-107,-24,95,-29,-65,356,1166,1034,590,136,-219
-97,-107,-9,102,-43,-58,361,1180,1044,595,136,-224
-87,-102,-14,95,-36,-58,366,1195,1044,605,136,-234
-87,-97,-9,92,-39,-53,370,1200,1044,605,136,-234
-87,-92,-4,90,-41,-48,375,1205,1044,605,136,-234
-87,-87,0,87,-43,-43,380,1210,1044,605,136,-234
-102,-87,14,95,-58,-36,395,1200,1054,610,151,-224
-107,-87,19,97,-63,-34,400,1200,1054,614,156,-214
-112,-87,24,100,-68,-31,405,1200,1054,619,161,-204
-117,-87,29,102,-73,-29,409,1200,1054,624,165,-195
-126,-102,24,114,-75,-39,390,1171,1015,600,141,-204
-136,-107,29,122,-82,-39,370,1141,985,575,126,-214
-146,-112,34,129,-90,-39,351,1112,956,551,112,-224
-156,-117,39,136,-97,-39,331,1083,927,527,97,-234
-141,-92,48,117,-95,-21,336,1049,902,517,112,-214
-126,-68,58,97,-92,-4,341,1024,888,517,117,-204
-112,-43,68,78,-90,12,346,1000,873,517,122,-195
-97,-19,78,58,-87,29,351,976,858,517,126,-185
-97,-14,82,56,-90,34,336,927,814,488,122,-180
-97,-9,87,53,-92,39,322,888,780,468,117,-175
-97,-4,92,51,-95,43,307,849,746,448,112,-170
-97,0,97,48,-97,48,292,810,712,429,107,-165
-87,4,92,41,-90,48,268,761,673,409,97,-151
-78,9,87,34,-82,48,253,712,634,390,97,-146
-68,14,82,26,-75,48,239,663,595,370,97,-141
-58,19,78,19,-68,48,224,614,556,351,97,-136
-58,29,87,14,-73,58,209,570,522,331,87,-122
-58,29,87,14,-73,58,195,527,488,312,87,-117
-58,29,87,14,-73,58,180,483,453,292,87,-112
-58,29,87,14,-73,58,165,439,419,273,87,-107
-68,4,73,31,-70,39,141,405,385,258,78,-102
-78,-9,68,43,-73,29,126,370,361,244,78,-97
-87,-24,63,56,-75,19,112,336,336,229,78,-92
-97,-39,58,68,-78,9,97,302,312,214,78,-87
-82,-24,58,53,-70,17,82,268,283,195,68,-73
-68,-9,58,39,-63,24,78,244,263,185,68,-68
-53,4,58,24,-56,31,73,219,244,175,68,-63
-39,19,58,9,-48,39,68,195,224,165,68,-58
-34,19,53,7,-43,36,63,180,214,161,68,-43
-29,19,48,4,-39,34,58,165,204,156,68,-39
-24,19,43,2,-34,31,53,151,195,151,68,-34
-19,19,39,0,-29,29,48,136,185,146,68,-29
-14,29,43,-7,-29,36,39,122,165,136,58,-39
-9,29,39,-9,-24,34,29,107,156,126,58,-39
-4,29,34,-12,-19,31,19,92,146,117,58,-39
0,29,29,-14,-14,29,9,78,136,107,58,-39
-4,24,29,-9,-17,26,0,63,131,107,68,-24
-9,19,29,-4,-19,24,0,58,126,107,68,-19
-14,14,29,0,-21,21,0,53,122,107,68,-14
-19,9,29,4,-24,19,0,48,117,107,68,-9
0,14,14,-7,-7,14,9,39,117,117,78,-9
9,19,9,-14,0,14,9,39,117,117,78,-9
19,24,4,-21,7,14,9,39,117,117,78,-9
29,29,0,-29,14,14,9,39,117,117,78,-9
19,29,9,-24,4,19,9,39,126,117,87,-4
19,29,9,-24,4,19,9,39,126,117,87,0
19,29,9,-24,4,19,9,39,126,117,87,4
19,29,9,-24,4,19,9,39,126,117,87,9
-29,9,39,9,-34,24,0,29,117,117,87,9
0,39,39,-19,-19,39,0,39,117,126,97,9
29,48,19,-39,4,34,0,39,117,117,87,0
29,39,9,-34,9,24,0,29,107,107,78,-9
29,0,-29,-14,29,-14,-9,19,97,97,68,-9
39,9,-29,-24,34,-9,-19,0,97,107,78,0
78,58,-19,-68,48,19,-39,-9,87,117,97,29
117,78,-39,-97,78,19,-58,-19,87,126,136,58
126,58,-68,-92,97,-4,-87,-19,87,136,165,78
97,9,-87,-53,92,-39,-97,-29,87,165,195,107
58,19,-39,-39,48,-9,-97,-19,107,195,234,146
117,97,-19,-107,68,39,-87,9,146,234,283,195
214,136,-78,-175,146,29,-97,9,165,263,312,224
263,107,-156,-185,209,-24,-126,-19,156,253,322,224
253,78,-175,-165,214,-48,-126,-9,156,273,351,244
224,29,-195,-126,209,-82,-136,-9,156,273,361,244
273,0,-273,-136,273,-136,-175,-29,146,273,361,253
390,58,-331,-224,361,-136,-204,-19,156,302,409,302
585,117,-468,-351,527,-175,-234,-9,156,312,458,370
751,87,-663,-419,707,-287,-322,-48,107,273,439,390
829,-9,-839,-409,834,-424,-429,-117,39,204,400,390
907,-29,-936,-439,922,-483,-497,-165,-19,156,380,409
1044,9,-1034,-527,1039,-512,-536,-204,-78,87,322,419
1180,19,-1161,-600,1171,-570,-566,-234,-146,0,224,380
1220,-39,-1259,-590,1239,-649,-595,-234,-195,-87,107,273
1141,-117,-1259,-512,1200,-688,-566,-156,-175,-126,-9,87
985,-175,-1161,-405,1073,-668,-448,-9,-78,-117,-136,-146
819,-253,-1073,-283,946,-663,-341,156,9,-117,-292,-429
702,-331,-1034,-185,868,-683,-244,302,97,-136,-458,-741
624,-370,-995,-126,810,-683,-136,468,224,-97,-575,-1024
507,-351,-858,-78,683,-605,0,624,370,0,-595,-1200
244,-390,-634,73,439,-512,156,790,536,107,-585,-1298
-97,-448,-351,273,126,-400,341,1005,751,253,-585,-1415
-380,-429,-48,405,-165,-239,566,1307,1054,478,-546,-1473
-575,-429,146,502,-361,-141,800,1639,1395,741,-448,-1493
-722,-527,195,624,-458,-165,1015,1991,1737,976,-400,-1571
-858,-683,175,771,-517,-253,1200,2381,2137,1229,-351,-1659
-966,-800,165,883,-566,-317,1395,2791,2596,1561,-224,-1668
-1015,-839,175,927,-595,-331,1571,3172,3015,1844,-126,-1659
-1054,-839,214,946,-634,-312,1737,3435,3337,2039,-78,-1629
-1161,-829,331,995,-746,-248,1912,3669,3630,2215,-39,-1590
-1268,-790,478,1029,-873,-156,2069,3864,3894,2400,48,-1483
-1337,-692,644,1015,-990,-24,2196,4021,4089,2518,126,-1376
-1415,-575,839,995,-1127,131,2274,4040,4118,2488,136,-1278
-1503,-488,1015,995,-1259,263,2313,3933,3952,2283,39,-1190
-1522,-458,1063,990,-1293,302,2283,3699,3630,1952,-146,-1171
-1493,-458,1034,976,-1263,287,2215,3435,3250,1571,-341,-1180
-1434,-419,1015,927,-1224,297,2147,3211,2937,1307,-429,-1122
-1356,-380,976,868,-1166,297,2049,2967,2674,1141,-419,-1005
-1249,-370,878,810,-1063,253,1873,2713,2430,1005,-409,-907
-1112,-331,780,722,-946,224,1698,2537,2264,888,-409,-819
-976,-253,722,614,-849,234,1620,2498,2205,829,-380,-741
-907,-214,692,561,-800,239,1600,2508,2186,790,-370,-692
-868,-214,653,541,-761,219,1581,2498,2186,780,-341,-634
-819,-185,634,502,-727,224,1532,2449,2196,819,-253,-556
-741,-146,595,444,-668,224,1503,2371,2196,858,-165,-468
-702,-165,536,434,-619,185,1473,2342,2186,858,-117,-419
-673,-204,468,439,-570,131,1454,2352,2205,858,-78,-370
-566,-165,400,366,-483,117,1444,2352,2215,858,-48,-322
-497,-156,341,326,-419,92,1385,2313,2156,800,-58,-292
-468,-234,234,351,-351,0,1327,2313,2098,712,-78,-283
-409,-253,156,331,-283,-48,1337,2400,2127,692,-58,-273
-380,-185,195,283,-287,4,1424,2498,2137,673,-29,-234
-361,-165,195,263,-278,14,1532,2547,2020,575,-39,-214
-273,-204,68,239,-170,-68,1639,2576,1844,439,-87,-224
-273,-283,-9,278,-131,-146,1737,2566,1639,292,-146,-244
-439,-370,68,405,-253,-151,1776,2449,1356,146,-214,-263
-488,-400,87,444,-287,-156,1834,2313,1102,19,-273,-273
-439,-400,39,419,-239,-180,1903,2235,946,-58,-292,-283
-429,-419,9,424,-219,-204,1961,2127,800,-117,-302,-283
-458,-409,48,434,-253,-180,1991,1942,614,-185,-302,-273
-497,-390,107,444,-302,-141,2049,1776,468,-224,-292,-253
-546,-419,126,483,-336,-146,2078,1639,361,-263,-292,-253
-536,-458,78,497,-307,-190,2039,1434,204,-322,-312,-273
-488,-448,39,468,-263,-204,1952,1171,29,-390,-351,-292
-507,-478,29,492,-268,-224,1815,927,-117,-439,-370,-292
-527,-517,9,522,-268,-253,1610,663,-253,-458,-370,-263
-419,-409,9,414,-214,-200,1298,331,-370,-439,-312,-195
-244,-214,29,229,-136,-92,927,29,-409,-380,-204,-87
-165,-156,9,161,-87,-73,507,-195,-429,-341,-126,-19
-165,-165,0,165,-82,-82,136,-380,-458,-322,-107,-9
-117,-78,39,97,-78,-19,-58,-448,-419,-263,-58,19
-48,0,48,24,-48,24,-136,-468,-361,-204,-9,58
-48,0,48,24,-48,24,-151,-478,-351,-190,0,63
-48,0,48,24,-48,24,-165,-478,-351,-185,0,68
-48,0,48,24,-48,24,-180,-478,-351,-180,0,73
-48,0,48,24,-48,24,-195,-478,-351,-175,0,78
-39,9,48,14,-43,29,-214,-478,-361,-185,4,87
-29,9,39,9,-34,24,-224,-478,-361,-185,9,87
-19,9,29,4,-24,19,-234,-478,-361,-185,14,87
-9,9,19,0,-14,14,-244,-478,-361,-185,19,87
-24,0,24,12,-24,12,-234,-483,-351,-180,19,97
-29,0,29,14,-29,14,-234,-488,-351,-175,19,97
-34,0,34,17,-34,17,-234,-492,-351,-170,19,97
-39,0,39,19,-39,19,-234,-497,-351,-165,19,97
-39,4,43,17,-41,24,-248,-497,-366,-180,9,97
-39,9,48,14,-43,29,-253,-497,-370,-185,9,97
-39,14,53,12,-46,34,-258,-497,-375,-190,9,97
-39,19,58,9,-48,39,-263,-497,-380,-195,9,97
-24,34,58,-4,-41,46,-248,-507,-370,-190,9,107
-19,39,58,-9,-39,48,-244,-507,-370,-185,9,107
-14,43,58,-14,-36,51,-239,-507,-370,-180,9,107
-9,48,58,-19,-34,53,-234,-507,-370,-175,9,107
-24,29,53,-2,-39,41,-244,-522,-390,-195,4,107
-29,19,48,4,-39,34,-253,-527,-400,-204,0,107
-34,9,43,12,-39,26,-263,-531,-409,-214,-4,107
-39,0,39,19,-39,19,-273,-536,-419,-224,-9,107
-24,24,48,0,-36,36,-263,-541,-409,-214,-4,112
-9,48,58,-19,-34,53,-263,-546,-409,-214,0,117
4,73,68,-39,-31,70,-263,-551,-409,-214,4,122
19,97,78,-58,-29,87,-263,-556,-409,-214,9,126
19,107,87,-63,-34,97,-268,-566,-419,-219,19,131
19,117,97,-68,-39,107,-273,-566,-429,-224,19,136
19,126,107,-73,-43,117,-278,-566,-439,-229,19,141
19,136,117,-78,-48,126,-283,-566,-448,-234,19,146
-4,97,102,-46,-53,100,-287,-580,-463,-248,9,151
-19,68,87,-24,-53,78,-292,-595,-468,-253,9,156
-34,39,73,-2,-53,56,-297,-610,-473,-258,9,161
-48,9,58,19,-53,34,-302,-624,-478,-263,9,165
-39,24,63,7,-51,43,-317,-634,-492,-273,14,185
-29,39,68,-4,-48,53,-322,-644,-507,-273,19,195
-19,53,73,-17,-46,63,-326,-653,-522,-273,24,204
-9,68,78,-29,-43,73,-331,-663,-536,-273,29,214
4,87,82,-46,-39,85,-346,-678,-546,-278,43,229
19,107,87,-63,-34,97,-351,-692,-556,-283,48,244
34,126,92,-80,-29,109,-356,-707,-566,-287,53,258
48,146,97,-97,-24,122,-361,-722,-575,-292,58,273
58,156,97,-107,-19,126,-370,-751,-595,-302,68,292
68,165,97,-117,-14,131,-380,-771,-614,-302,78,312
78,175,97,-126,-9,136,-390,-790,-634,-302,87,331
87,185,97,-136,-4,141,-400,-810,-653,-302,97,351
97,204,107,-151,-4,156,-429,-839,-678,-317,102,375
107,214,107,-161,0,161,-448,-868,-702,-331,107,390
117,224,107,-170,4,165,-468,-897,-727,-346,112,405
126,234,107,-180,9,170,-488,-927,-751,-361,117,419
156,248,92,-202,31,170,-517,-961,-780,-380,131,439
175,263,87,-219,43,175,-536,-995,-810,-390,136,458
195,278,82,-236,56,180,-556,-1029,-839,-400,141,478
214,292,78,-253,68,185,-575,-1063,-868,-409,146,497
234,317,82,-275,75,200,-600,-1102,-907,-424,161,517
253,331,78,-292,87,204,-624,-1141,-936,-439,165,536
273,346,73,-309,100,209,-649,-1180,-966,-453,170,556
292,361,68,-326,112,214,-673,-1220,-995,-468,175,575
302,366,63,-334,119,214,-702,-1268,-1034,-488,180,600
302,370,68,-336,117,219,-732,-1307,-1073,-507,185,614
302,375,73,-339,114,224,-761,-1346,-1112,-527,190,629
302,380,78,-341,112,229,-790,-1385,-1151,-546,195,644
331,405,73,-368,129,239,-824,-1434,-1190,-566,195,658
351,419,68,-385,141,244,-849,-1473,-1229,-585,195,673
370,434,63,-402,153,248,-873,-1512,-1268,-605,195,688
390,448,58,-419,165,253,-897,-1551,-1307,-624,195,702
405,463,58,-434,173,261,-927,-1595,-1342,-649,185,707
419,478,58,-448,180,268,-946,-1629,-1376,-663,185,712
434,492,58,-463,187,275,-966,-1664,-1410,-678,185,717
448,507,58,-478,195,283,-985,-1698,-1444,-692,185,722
434,502,68,-468,183,285,-1019,-1732,-1483,-712,170,712
429,497,68,-463,180,283,-1044,-1766,-1512,-732,165,702
424,492,68,-458,178,280,-1068,-1800,-1542,-751,161,692
419,488,68,-453,175,278,-1093,-1834,-1571,-771,156,683
458,502,43,-480,207,273,-1112,-1849,-1586,-785,146,673
488,517,29,-502,229,273,-1122,-1864,-1600,-790,146,673
517,531,14,-524,251,273,-1132,-1878,-1615,-795,146,673
546,546,0,-546,273,273,-1141,-1893,-1629,-800,146,673
531,531,0,-531,265,265,-1151,-1893,-1634,-790,131,658
517,517,0,-517,258,258,-1161,-1893,-1639,-790,126,644
502,502,0,-502,251,251,-1171,-1893,-1644,-790,122,629
488,488,0,-488,244,244,-1180,-1893,-1649,-790,117,614
473,478,4,-475,234,241,-1176,-1869,-1629,-771,126,595
468,468,0,-468,234,234,-1171,-1854,-1610,-761,126,585
463,458,-4,-461,234,226,-1166,-1839,-1590,-751,126,575
458,448,-9,-453,234,219,-1161,-1825,-1571,-741,126,566
434,429,-4,-431,219,212,-1146,-1790,-1532,-722,126,536
419,419,0,-419,209,209,-1141,-1756,-1503,-702,126,517
405,409,4,-407,200,207,-1137,-1722,-1473,-683,126,497
390,400,9,-395,190,204,-1132,-1688,-1444,-663,126,478
380,395,14,-387,183,204,-1107,-1629,-1385,-624,131,468
380,390,9,-385,185,200,-1083,-1581,-1337,-595,136,458
380,385,4,-383,187,195,-1058,-1532,-1288,-566,141,448
380,380,0,-380,190,190,-1034,-1483,-1239,-536,146,439
361,370,9,-366,175,190,-1010,-1415,-1185,-492,161,424
341,361,19,-351,161,190,-985,-1356,-1132,-458,165,409
322,351,29,-336,146,190,-961,-1298,-1078,-424,170,395
302,341,39,-322,131,190,-936,-1239,-1024,-390,175,380
292,326,34,-309,129,180,-897,-1171,-966,-351,185,361
283,312,29,-297,126,170,-868,-1112,-907,-322,185,351
273,297,24,-285,124,161,-839,-1054,-849,-292,185,341
263,283,19,-273,122,151,-810,-995,-790,-263,185,331
253,273,19,-263,117,146,-780,-932,-736,-224,190,322
244,263,19,-253,112,141,-751,-868,-683,-195,195,312
234,253,19,-244,107,136,-722,-805,-629,-165,200,302
224,244,19,-234,102,131,-692,-741,-575,-136,204,292
214,234,19,-224,97,126,-658,-688,-531,-112,200,273
204,224,19,-214,92,122,-634,-644,-488,-97,195,253
195,214,19,-204,87,117,-610,-600,-444,-82,190,234
185,204,19,-195,82,112,-585,-556,-400,-68,185,214
185,224,39,-204,73,131,-546,-502,-356,-39,195,204
185,234,48,-209,68,141,-517,-458,-322,-19,195,204
185,244,58,-214,63,151,-488,-414,-287,0,195,204
185,253,68,-219,58,161,-458,-370,-253,19,195,204
151,214,63,-183,43,139,-434,-331,-219,34,180,190
126,175,48,-151,39,112,-409,-302,-195,39,175,175
102,136,34,-119,34,85,-385,-273,-170,43,170,161
78,97,19,-87,29,58,-361,-244,-146,48,165,146
87,107,19,-97,34,63,-341,-214,-131,53,161,141
87,107,19,-97,34,63,-322,-195,-117,58,156,136
87,107,19,-97,34,63,-302,-175,-102,63,151,131
87,107,19,-97,34,63,-283,-156,-87,68,146,126
68,92,24,-80,21,58,-253,-131,-73,73,146,117
58,87,29,-73,14,58,-234,-117,-58,78,146,117
48,82,34,-65,7,58,-214,-102,-43,82,146,117
39,78,39,-58,0,58,-195,-87,-29,87,146,117
14,58,43,-36,-14,51,-190,-87,-34,78,126,102
-9,39,48,-14,-29,43,-185,-87,-39,68,117,87
-34,19,53,7,-43,36,-180,-87,-43,58,107,73
-58,0,58,29,-58,29,-175,-87,-48,48,97,58
-39,19,58,9,-48,39,-151,-73,-29,53,107,63
-29,39,68,-4,-48,53,-136,-68,-19,58,107,68
-19,58,78,-19,-48,68,-122,-63,-9,63,107,73
-9,78,87,-34,-48,82,-107,-58,0,68,107,78
0,73,73,-36,-36,73,-87,-53,4,73,117,87
9,68,58,-39,-24,63,-78,-48,9,78,117,87
19,63,43,-41,-12,53,-68,-43,14,82,117,87
29,58,29,-43,0,43,-58,-39,19,87,117,87
39,78,39,-58,0,58,-53,-29,24,87,117,78
48,87,39,-68,4,63,-48,-29,29,87,117,78
58,97,39,-78,9,68,-43,-29,34,87,117,78
68,107,39,-87,14,73,-39,-29,39,87,117,78
43,87,43,-65,0,65,-43,-43,24,82,102,63
29,68,39,-48,-4,53,-48,-48,19,78,97,58
14,48,34,-31,-9,41,-53,-53,14,73,92,53
0,29,29,-14,-14,29,-58,-58,9,68,87,48
-9,34,43,-12,-26,39,-48,-48,14,68,97,58
-9,39,48,-14,-29,43,-48,-48,19,68,97,58
-9,43,53,-17,-31,48,-48,-48,24,68,97,58
-9,48,58,-19,-34,53,-48,-48,29,68,97,58
0,58,58,-29,-29,58,-43,-34,43,73,107,58
0,58,58,-29,-29,58,-39,-29,48,78,107,58
0,58,58,-29,-29,58,-34,-24,53,82,107,58
0,58,58,-29,-29,58,-29,-19,58,87,107,58
-9,48,58,-19,-34,53,-34,-24,53,78,97,58
-19,39,58,-9,-39,48,-39,-29,48,78,97,58
-29,29,58,0,-43,43,-43,-34,43,78,97,58
-39,19,58,9,-48,39,-48,-39,39,78,97,58
-24,29,53,-2,-39,41,-39,-29,43,87,107,58
-9,39,48,-14,-29,43,-39,-29,48,87,107,58
4,48,43,-26,-19,46,-39,-29,53,87,107,58
19,58,39,-39,-9,48,-39,-29,58,87,107,58
0,53,53,-26,-26,53,-39,-19,58,87,97,58
-9,48,58,-19,-34,53,-39,-19,58,87,97,58
-19,43,63,-12,-41,53,-39,-19,58,87,97,58
-29,39,68,-4,-48,53,-39,-19,58,87,97,58
-39,48,87,-4,-63,68,-39,-9,58,87,97,48
-48,48,97,0,-73,73,-39,-9,58,87,97,48
-58,48,107,4,-82,78,-39,-9,58,87,97,48
-68,48,117,9,-92,82,-39,-9,58,87,97,48
-78,24,102,26,-90,63,-39,-14,48,78,82,39
-78,9,87,34,-82,48,-39,-19,48,78,78,39
-78,-4,73,41,-75,34,-39,-24,48,78,73,39
-78,-19,58,48,-68,19,-39,-29,48,78,68,39
-63,-4,58,34,-61,26,-34,-24,53,87,73,39
-58,0,58,29,-58,29,-29,-19,58,87,78,39
-53,4,58,24,-56,31,-24,-14,63,87,82,39
-48,9,58,19,-53,34,-19,-9,68,87,87,39
-19,29,48,-4,-34,39,-9,0,78,92,92,53
0,48,48,-24,-24,48,-9,0,78,97,97,58
19,68,48,-43,-14,58,-9,0,78,102,102,63
39,87,48,-63,-4,68,-9,0,78,107,107,68
19,68,48,-43,-14,58,-19,-9,68,92,87,53
9,58,48,-34,-19,53,-19,-9,68,87,78,48
0,48,48,-24,-24,48,-19,-9,68,82,68,43
-9,39,48,-14,-29,43,-19,-9,68,78,58,39
-24,43,68,-9,-46,56,-9,0,78,82,78,48
-29,48,78,-9,-53,63,-9,0,78,87,87,48
-34,53,87,-9,-61,70,-9,0,78,92,97,48
-39,58,97,-9,-68,78,-9,0,78,97,107,48
-48,48,97,0,-73,73,0,0,87,87,97,39
-48,39,87,4,-68,63,0,0,87,87,97,39
-48,29,78,9,-63,53,0,0,87,87,97,39
-48,19,68,14,-58,43,0,0,87,87,97,39
-34,29,63,2,-48,46,-9,0,82,87,92,39
-29,39,68,-4,-48,53,-9,0,78,87,87,39
-24,48,73,-12,-48,61,-9,0,73,87,82,39
-19,58,78,-19,-48,68,-9,0,68,87,78,39
-9,48,58,-19,-34,53,-9,0,78,97,78,29
-9,48,58,-19,-34,53,-9,0,78,97,78,29
-9,48,58,-19,-34,53,-9,0,78,97,78,29
-9,48,58,-19,-34,53,-9,0,78,97,78,29
-19,39,58,-9,-39,48,-4,9,82,107,82,34
-19,39,58,-9,-39,48,0,9,87,107,87,39
-19,39,58,-9,-39,48,4,9,92,107,92,43
-19,39,58,-9,-39,48,9,9,97,107,97,48
-9,48,58,-19,-34,53,4,0,82,102,92,43
-9,48,58,-19,-34,53,0,0,78,97,87,39
-9,48,58,-19,-34,53,-4,0,73,92,82,34
-9,48,58,-19,-34,53,-9,0,68,87,78,29
-14,43,58,-14,-36,51,0,9,73,97,87,39
-19,39,58,-9,-39,48,0,9,78,97,87,39
-24,34,58,-4,-41,46,0,9,82,97,87,39
-29,29,58,0,-43,43,0,9,87,97,87,39
-39,39,78,0,-58,58,-9,0,78,87,82,34
-39,39,78,0,-58,58,-9,0,78,87,78,29
-39,39,78,0,-58,58,-9,0,78,87,73,24
-39,39,78,0,-58,58,-9,0,78,87,68,19
-14,39,53,-12,-34,46,0,4,82,97,82,24
0,39,39,-19,-19,39,0,9,87,97,87,29
14,39,24,-26,-4,31,0,14,92,97,92,34
29,39,9,-34,9,24,0,19,97,97,97,39
9,34,24,-21,-7,29,9,19,97,107,97,39
0,29,29,-14,-14,29,9,19,97,107,97,39
-9,24,34,-7,-21,29,9,19,97,107,97,39
-19,19,39,0,-29,29,9,19,97,107,97,39
-29,29,58,0,-43,43,19,29,107,107,97,29
-39,39,78,0,-58,58,19,29,107,107,97,29
-48,48,97,0,-73,73,19,29,107,107,97,29
-58,58,117,0,-87,87,19,29,107,107,97,29
-78,34,112,21,-95,73,14,24,92,97,82,19
-87,9,97,39,-92,53,9,19,87,97,78,19
-97,-14,82,56,-90,34,4,14,82,97,73,19
-107,-39,68,73,-87,14,0,9,78,97,68,19
-78,-14,63,46,-70,24,0,9,87,97,73,29
-48,9,58,19,-53,34,0,9,87,97,78,29
-19,34,53,-7,-36,43,0,9,87,97,82,29
9,58,48,-34,-19,53,0,9,87,97,87,29
-4,68,73,-31,-39,70,4,14,92,102,97,34
-9,68,78,-29,-43,73,9,19,97,107,97,39
-14,68,82,-26,-48,75,14,24,102,112,97,43
-19,68,87,-24,-53,78,19,29,107,117,97,48
-14,87,102,-36,-58,95,29,34,112,126,107,58
-9,97,107,-43,-58,102,29,39,117,126,107,58
-4,107,112,-51,-58,109,29,43,122,126,107,58
0,117,117,-58,-58,117,29,48,126,126,107,58
34,151,117,-92,-41,134,29,58,131,156,126,68
63,161,97,-112,-17,129,19,53,131,156,131,73
53,165,112,-109,-29,139,19,43,136,156,136,78
53,175,122,-114,-34,148,29,58,146,156,156,87
58,195,136,-126,-39,165,34,63,141,170,156,97
48,200,151,-124,-51,175,43,58,156,170,156,97
43,190,146,-117,-51,168,48,53,156,170,141,97
34,185,151,-109,-58,168,48,39,156,175,156,97
29,195,165,-112,-68,180,43,43,161,175,161,102
9,175,165,-92,-78,170,39,43,156,165,161,102
-24,146,170,-61,-97,158,29,43,156,165,156,97
0,156,156,-78,-78,156,9,43,161,180,156,97
43,170,126,-107,-41,148,-9,34,156,185,165,107
29,170,141,-100,-56,156,-34,19,151,180,161,107
19,146,126,-82,-53,136,-39,24,156,180,165,122
34,165,131,-100,-48,148,-39,34,161,175,161,117
78,180,102,-129,-12,141,-39,29,161,180,156,102
87,200,112,-143,-12,156,-48,29,151,175,161,102
87,200,112,-143,-12,156,-63,9,146,180,165,107
82,180,97,-131,-7,139,-87,0,126,165,165,112
68,175,107,-122,-19,141,-107,-24,102,141,141,102
63,175,112,-119,-24,143,-112,-24,97,136,136,97
34,161,126,-97,-46,143,-117,-24,92,136,136,92
-9,151,161,-70,-85,156,-131,-48,68,122,136,82
0,170,170,-85,-85,170,-146,-78,58,112,131,82
0,151,151,-75,-75,151,-156,-97,39,92,102,63
4,126,122,-65,-58,124,-161,-97,34,78,87,48
19,146,126,-82,-53,136,-161,-87,34,87,107,58
24,122,97,-73,-36,109,-136,-73,53,117,117,63
29,78,48,-53,-9,63,-136,-68,43,92,102,58
58,63,4,-61,26,34,-136,-78,39,73,87,53
68,82,14,-75,26,48,-112,-58,43,82,87,68
58,87,29,-73,14,58,-112,-53,34,92,92,68
43,78,34,-61,4,56,-112,-73,34,82,92,58
48,82,34,-65,7,58,-102,-78,24,68,87,58
53,107,53,-80,0,80,-68,-68,43,92,107,73
53,117,63,-85,-4,90,-48,-29,73,117,131,92
43,97,53,-70,-4,75,-43,-19,78,131,141,92
19,73,53,-46,-17,63,-19,-4,97,131,151,92
9,68,58,-39,-24,63,0,14,112,151,161,92
9,92,82,-51,-36,87,19,19,126,161,165,107
0,92,92,-46,-46,92,19,19,126,156,161,112
-14,82,97,-34,-56,90,19,19,112,141,156,97
-29,58,87,-14,-58,73,19,9,97,136,151,97
-34,78,112,-21,-73,95,24,19,107,131,141,82
-14,78,92,-31,-53,85,29,19,107,122,122,78
-34,53,87,-9,-61,70,29,4,87,102,102,68
-43,34,78,4,-61,56,29,-4,82,87,78,58
-53,19,73,17,-63,46,14,-9,78,68,63,39
-43,9,53,17,-48,31,14,-9,73,68,58,29
-43,0,43,21,-43,21,9,-14,63,68,53,14
-73,-24,48,48,-61,12,0,-29,43,53,34,0
-68,-39,29,53,-48,-4,4,-24,53,53,43,-14
-82,-48,34,65,-58,-7,4,-19,58,58,48,-19
-92,-43,48,68,-70,2,9,-4,63,68,58,-19
-78,-19,58,48,-68,19,14,0,78,78,63,-14
-39,-4,34,21,-36,14,24,4,87,82,73,-4
-29,0,29,14,-29,14,24,0,78,78,63,-9
-19,-4,14,12,-17,4,24,0,73,68,58,-24
-14,0,14,7,-14,7,43,4,73,82,58,-9
-24,-4,19,14,-21,7,34,4,68,92,63,-9
-34,0,34,17,-34,17,29,0,63,87,73,-14
-43,-39,4,41,-24,-17,9,-24,43,68,58,-29
-68,-58,9,63,-39,-24,4,-29,39,63,48,-48
-117,-87,29,102,-73,-29,-14,-39,29,63,53,-29
-136,-131,4,134,-70,-63,-9,-39,34,53,24,-43
-68,-78,-9,73,-29,-43,0,-29,34,34,-14,-43
-29,-4,24,17,-26,9,24,-9,53,43,-4,-24
-39,39,78,0,-58,58,53,19,87,73,34,4
0,29,29,-14,-14,29,68,14,92,92,63,19
29,29,0,-29,14,14,43,-9,68,82,73,4
24,19,-4,-21,14,7,14,-34,39,82,78,-4
19,19,0,-19,9,9,-9,-73,19,78,78,-4
14,29,14,-21,0,21,-34,-117,-4,68,68,9
-24,0,24,12,-24,12,-68,-170,-39,48,53,9
-53,-39,14,46,-34,-12,-107,-214,-48,63,82,14
-19,-29,-9,24,-4,-19,-122,-234,-14,136,161,53
43,-4,-48,-19,46,-26,-170,-234,29,200,219,82
131,9,-122,-70,126,-56,-214,-190,97,229,214,73
175,0,-175,-87,175,-87,-224,-87,219,263,190,39
146,-19,-165,-63,156,-92,-224,9,336,341,209,58
180,-4,-185,-87,183,-95,-239,-48,380,439,287,112
200,43,-156,-122,178,-56,-287,-307,234,414,356,156
156,73,-82,-114,119,-4,-346,-639,-63,297,375,200
136,97,-39,-117,87,29,-375,-912,-361,161,385,268
200,141,-58,-170,129,41,-414,-1185,-751,-97,322,322
229,180,-48,-204,139,65,-497,-1590,-1395,-570,170,341
214,234,19,-224,97,126,-580,-2078,-2142,-1098,-9,361
170,278,107,-224,31,192,-600,-2396,-2664,-1512,-161,380
141,322,180,-231,-19,251,-575,-2532,-3054,-1878,-326,370
180,273,92,-226,43,183,-585,-2679,-3523,-2337,-585,263
141,107,-34,-124,87,36,-580,-2796,-3908,-2703,-819,136
87,78,-9,-82,48,34,-517,-2810,-4045,-2820,-863,146
190,175,-14,-183,102,80,-444,-2864,-4152,-2913,-897,170
278,151,-126,-214,202,12,-444,-3069,-4377,-3137,-1078,97
141,0,-141,-70,141,-70,-531,-3391,-4640,-3406,-1332,-4
87,-73,-161,-7,124,-117,-663,-3772,-4865,-3625,-1546,-68
214,19,-195,-117,204,-87,-780,-4069,-4997,-3752,-1673,-58
292,87,-204,-190,248,-58,-893,-4250,-4997,-3772,-1708,9
346,58,-287,-202,317,-114,-1049,-4318,-4894,-3684,-1664,97
483,-14,-497,-234,490,-256,-1220,-4260,-4694,-3542,-1600,204
610,-43,-653,-283,631,-348,-1366,-4152,-4431,-3367,-1522,312
692,29,-663,-361,678,-317,-1464,-3977,-4079,-3089,-1376,448
751,161,-590,-456,671,-214,-1537,-3723,-3699,-2781,-1190,585
844,283,-561,-563,702,-139,-1610,-3469,-3347,-2547,-1112,639
927,351,-575,-639,751,-112,-1654,-3240,-3045,-2357,-1107,585
951,385,-566,-668,758,-90,-1634,-2971,-2776,-2176,-1093,512
936,434,-502,-685,719,-34,-1566,-2698,-2522,-2005,-1068,448
873,463,-409,-668,641,26,-1459,-2425,-2259,-1830,-1029,366
761,478,-283,-619,522,97,-1288,-2127,-1966,-1610,-951,278
634,483,-151,-558,392,165,-1083,-1839,-1693,-1400,-868,195
463,424,-39,-444,251,192,-922,-1600,-1473,-1254,-834,78
312,317,4,-314,153,161,-819,-1400,-1283,-1127,-805,-43
258,253,-4,-256,131,124,-688,-1171,-1078,-966,-746,-126
156,170,14,-163,70,92,-570,-980,-917,-858,-727,-219
-9,14,24,-2,-17,19,-483,-829,-785,-785,-727,-341
-161,-122,39,141,-100,-41,-390,-653,-629,-668,-668,-400
-219,-141,78,180,-148,-31,-273,-473,-448,-522,-556,-385
-175,-82,92,129,-134,4,-161,-331,-278,-375,-439,-351
-102,-14,87,58,-95,36,-68,-195,-156,-239,-331,-312
-73,19,92,26,-82,56,-4,-87,-48,-122,-244,-263
-117,-39,78,78,-97,19,14,-24,9,-68,-180,-224
-204,-126,78,165,-141,-24,24,14,53,-24,-131,-195
-165,-87,78,126,-122,-4,58,87,122,48,-63,-136
-24,29,53,-2,-39,41,112,175,214,122,-9,-73
-14,-14,0,14,-7,-7,131,204,244,136,-19,-92
-68,-102,-34,85,-17,-68,122,190,239,131,-43,-131
-78,-82,-4,80,-36,-43,136,209,268,165,-4,-126
-78,-87,-9,82,-34,-48,146,239,292,190,34,-131
-68,-87,-19,78,-24,-53,151,273,312,214,68,-102
-92,-107,-14,100,-39,-61,151,278,317,219,87,-92
-122,-122,0,122,-61,-61,141,283,322,224,92,-87
-117,-117,0,117,-58,-58,146,297,336,229,92,-78
-92,-102,-9,97,-41,-56,136,292,331,219,68,-97
-87,-102,-14,95,-36,-58,136,292,331,214,43,-107
-63,-97,-34,80,-14,-65,151,307,346,214,39,-112
-39,-82,-43,61,2,-63,161,307,346,224,53,-107
-29,-82,-53,56,12,-68,170,307,346,239,58,-102
-24,-92,-68,58,21,-80,165,307,351,244,68,-97
-29,-78,-48,53,9,-63,165,317,366,248,92,-87
-34,-63,-29,48,-2,-46,165,331,375,258,107,-78
-43,-78,-34,61,-4,-56,151,322,370,253,107,-73
-73,-117,-43,95,-14,-80,141,312,356,244,87,-68
-102,-136,-34,119,-34,-85,141,307,351,234,78,-78
-87,-122,-34,104,-26,-78,146,307,351,229,78,-73
-73,-97,-24,85,-24,-61,156,312,346,234,78,-78
-82,-117,-34,100,-24,-75,146,312,346,234,73,-87
-82,-107,-24,95,-29,-65,141,312,346,234,68,-97
-43,-92,-48,68,2,-70,141,322,346,239,78,-102
-34,-73,-39,53,2,-56,161,346,366,258,97,-82
-34,-58,-24,46,-4,-41,175,351,380,258,97,-73
-24,-48,-24,36,0,-36,161,346,370,244,58,-82
-24,-34,-9,29,-7,-21,165,341,370,244,48,-78
-48,-43,4,46,-26,-19,170,341,370,234,34,-87
-53,-63,-9,58,-21,-36,170,341,370,234,19,-97
-58,-73,-14,65,-21,-43,170,351,375,234,34,-102
-58,-97,-39,78,-9,-68,175,366,385,239,53,-107
-73,-112,-39,92,-17,-75,170,366,380,248,73,-102
-87,-112,-24,100,-31,-68,161,361,380,248,73,-102
-92,-92,0,92,-46,-46,156,361,380,258,68,-97
-82,-87,-4,85,-39,-46,161,375,395,258,68,-82
-63,-87,-24,75,-19,-56,165,375,405,248,68,-87
-82,-136,-53,109,-14,-95,165,370,395,239,63,-107
-82,-117,-34,100,-24,-75,170,390,405,258,78,-92
-73,-107,-34,90,-19,-70,175,405,409,268,87,-78
-87,-112,-24,100,-31,-68,165,405,409,268,102,-73
-87,-87,0,87,-43,-43,165,405,419,273,102,-63
-29,-39,-9,34,-9,-24,170,424,429,278,97,-58
-19,-24,-4,21,-7,-14,170,419,429,278,82,-63
-53,-73,-19,63,-17,-46,161,405,409,263,68,-87
-68,-87,-19,78,-24,-53,161,405,419,258,63,-97
-97,-122,-24,109,-36,-73,170,419,429,258,63,-107
-131,-136,-4,134,-63,-70,170,434,439,258,78,-117
-122,-131,-9,126,-56,-70,180,444,448,258,58,-107
-102,-117,-14,109,-43,-65,170,448,453,263,53,-107
-112,-112,0,112,-56,-56,180,468,458,268,53,-107
-122,-112,9,117,-65,-51,180,473,463,268,53,-112
-107,-112,-4,109,-51,-58,180,473,473,278,63,-102
-117,-112,4,114,-61,-53,185,478,478,287,73,-102
-117,-107,9,112,-63,-48,190,488,488,292,58,-107
-87,-107,-19,97,-34,-63,190,502,488,297,58,-112
-63,-97,-34,80,-14,-65,200,527,517,307,58,-102
-43,-92,-48,68,2,-70,219,556,536,317,78,-102
-78,-107,-29,92,-24,-68,219,575,551,322,63,-107
-73,-92,-19,82,-26,-56,219,585,556,331,58,-112
-82,-87,-4,85,-39,-46,229,595,561,341,68,-107
-87,-82,4,85,-46,-39,229,605,566,341,73,-107
-53,-78,-24,65,-14,-51,239,629,590,356,78,-107
-43,-58,-14,51,-14,-36,248,658,605,370,102,-107
-102,-107,-4,104,-48,-56,234,658,605,356,82,-126
-112,-126,-14,119,-48,-70,234,678,610,351,63,-136
-78,-122,-43,100,-17,-82,234,697,629,341,48,-146
-102,-141,-39,122,-31,-90,229,702,624,331,34,-170
-87,-82,4,85,-46,-39,268,751,688,395,82,-131
-87,-82,4,85,-46,-39,297,790,732,419,112,-92
-73,-63,9,68,-41,-26,307,814,741,424,102,-97
-87,-92,-4,90,-41,-48,287,814,727,395,43,-146
-146,-156,-9,151,-68,-82,283,839,741,400,39,-175
-141,-146,-4,143,-68,-75,297,858,756,419,58,-170
-136,-146,-9,141,-63,-78,302,878,771,429,68,-165
-131,-146,-14,139,-58,-80,307,897,785,439,78,-161
-126,-146,-19,136,-53,-82,312,917,800,448,87,-156
-141,-161,-19,151,-61,-90,326,956,829,453,73,-170
-156,-165,-9,161,-73,-87,331,985,849,458,68,-175
-170,-170,0,170,-85,-85,336,1015,868,463,63,-180
-185,-175,9,180,-97,-82,341,1044,888,468,58,-185
-165,-165,0,165,-82,-82,356,1073,917,488,73,-185
-156,-156,0,156,-78,-78,361,1102,936,507,87,-185
-146,-146,0,146,-73,-73,366,1132,956,527,102,-185
-136,-136,0,136,-68,-68,370,1161,976,546,117,-185
-151,-151,0,151,-75,-75,380,1185,1000,536,97,-209
-165,-165,0,165,-82,-82,390,1210,1015,536,78,-224
-180,-180,0,180,-90,-90,400,1234,1029,536,58,-239
-195,-195,0,195,-97,-97,409,1259,1044,536,39,-253
-161,-161,0,161,-80,-80,429,1298,1068,566,73,-239
-136,-136,0,136,-68,-68,439,1327,1093,585,97,-224
-112,-112,0,112,-56,-56,448,1356,1117,605,122,-209
-87,-87,0,87,-43,-43,458,1385,1141,624,146,-195
-117,-102,14,109,-65,-43,468,1395,1132,619,122,-200
-146,-117,29,131,-87,-43,468,1395,1132,614,107,-204
-175,-131,43,153,-109,-43,468,1395,1132,610,92,-209
-204,-146,58,175,-131,-43,468,1395,1132,605,78,-214
-209,-156,53,183,-131,-51,483,1405,1127,600,68,-234
-214,-156,58,185,-136,-48,488,1405,1122,595,68,-244
-219,-156,63,187,-141,-46,492,1405,1117,590,68,-253
-224,-156,68,190,-146,-43,497,1405,1112,585,68,-263
-239,-156,82,197,-161,-36,483,1376,1083,561,48,-268
-253,-156,97,204,-175,-29,478,1346,1063,546,39,-273
-268,-156,112,212,-190,-21,473,1317,1044,531,29,-278
-283,-156,126,219,-204,-14,468,1288,1024,517,19,-283
-263,-146,117,204,-190,-14,453,1259,990,502,39,-263
-244,-136,107,190,-175,-14,448,1229,966,497,48,-253
-224,-126,97,175,-161,-14,444,1200,941,492,58,-244
-204,-117,87,161,-146,-14,439,1171,917,488,68,-234
-224,-131,92,178,-158,-19,429,1117,878,463,53,-224
-244,-136,107,190,-175,-14,419,1073,849,448,48,-214
-263,-141,122,202,-192,-9,409,1029,819,434,43,-204
-283,-146,136,214,-209,-4,400,985,790,419,39,-195
-253,-131,122,192,-187,-4,375,936,746,400,39,-195
-234,-126,107,180,-170,-9,361,897,712,380,39,-195
-214,-122,92,168,-153,-14,346,858,678,361,39,-195
-195,-117,78,156,-136,-19,331,819,644,341,39,-195
-195,-107,87,151,-141,-9,307,761,605,312,19,-204
-195,-107,87,151,-141,-9,292,712,566,283,0,-204
-195,-107,87,151,-141,-9,278,663,527,253,-19,-204
-195,-107,87,151,-141,-9,263,614,488,224,-39,-204
-209,-122,87,165,-148,-17,244,570,453,209,-19,-190
-224,-136,87,180,-156,-24,224,527,419,204,0,-175
-239,-151,87,195,-163,-31,204,483,385,200,19,-161
-253,-165,87,209,-170,-39,185,439,351,195,39,-146
-185,-117,68,151,-126,-24,185,419,341,185,43,-117
-126,-68,58,97,-92,-4,185,400,331,185,48,-87
-68,-19,48,43,-58,14,185,380,322,185,53,-58
-9,29,39,-9,-24,34,185,361,312,185,58,-29
-29,4,34,12,-31,19,165,331,287,165,43,-48
-48,-9,39,29,-43,14,146,302,263,156,39,-58
-68,-24,43,46,-56,9,126,273,239,146,34,-68
-87,-39,48,63,-68,4,107,244,214,136,29,-78
-97,-53,43,75,-70,-4,102,224,200,131,34,-63
-97,-58,39,78,-68,-9,97,214,195,126,39,-58
-97,-63,34,80,-65,-14,92,204,190,122,43,-53
-97,-68,29,82,-63,-19,87,195,185,117,48,-48
-92,-63,29,78,-61,-17,73,185,170,126,63,-39
-87,-58,29,73,-58,-14,68,175,165,126,68,-29
-82,-53,29,68,-56,-12,63,165,161,126,73,-19
-78,-48,29,63,-53,-9,58,156,156,126,78,-9
-78,-39,39,58,-58,0,48,141,165,141,97,19
-78,-39,39,58,-58,0,48,136,165,146,107,39
-78,-39,39,58,-58,0,48,131,165,151,117,58
-78,-39,39,58,-58,0,48,126,165,156,126,78
-78,-68,9,73,-43,-29,19,117,156,146,126,117
-9,-48,-39,29,14,-43,9,117,165,156,117,97
-39,-68,-29,53,-4,-48,-9,97,175,185,156,117
-78,-68,9,73,-43,-29,0,97,185,224,234,156
19,-9,-29,-4,24,-19,29,117,214,253,302,185
117,68,-48,-92,82,9,29,136,234,283,341,214
107,78,-29,-92,68,24,0,126,224,292,361,244
97,0,-97,-48,97,-48,-39,107,204,292,370,253
156,-9,-165,-73,161,-87,-87,87,195,302,390,283
273,68,-204,-170,239,-68,-126,78,195,302,400,331
419,78,-341,-248,380,-131,-175,48,175,292,419,380
497,29,-468,-263,483,-219,-214,29,156,273,439,429
546,-9,-556,-268,551,-283,-244,9,136,244,419,448
673,-29,-702,-322,688,-366,-273,-9,117,204,341,390
751,-78,-829,-336,790,-453,-322,-48,58,136,253,312
741,-136,-878,-302,810,-507,-370,-78,0,58,165,234
800,-117,-917,-341,858,-517,-380,-78,-19,9,97,136
819,-68,-888,-375,854,-478,-341,-29,0,-9,-19,0
722,-58,-780,-331,751,-419,-273,39,29,-39,-146,-175
595,-78,-673,-258,634,-375,-185,165,126,0,-224,-370
448,-165,-614,-141,531,-390,-78,361,312,107,-273,-614
273,-331,-605,29,439,-468,58,614,536,234,-312,-897
185,-478,-663,146,424,-570,195,858,741,351,-351,-1151
175,-614,-790,219,483,-702,302,1093,946,478,-370,-1366
146,-761,-907,307,527,-834,448,1356,1180,663,-351,-1522
107,-927,-1034,409,570,-980,575,1620,1395,800,-370,-1698
9,-1122,-1132,556,570,-1127,702,1873,1590,878,-488,-1893
-117,-1317,-1200,717,541,-1259,868,2186,1864,1005,-556,-2030
-195,-1454,-1259,824,531,-1356,1034,2557,2186,1180,-546,-2088
-302,-1610,-1307,956,502,-1459,1161,2879,2459,1278,-605,-2196
-458,-1727,-1268,1093,405,-1498,1307,3181,2674,1298,-722,-2322
-536,-1678,-1141,1107,302,-1410,1483,3494,2928,1385,-732,-2352
-624,-1590,-966,1107,170,-1278,1629,3708,3132,1503,-702,-2293
-761,-1581,-819,1171,29,-1200,1698,3796,3220,1532,-702,-2215
-917,-1581,-663,1249,-126,-1122,1756,3806,3240,1483,-761,-2147
-1083,-1522,-439,1302,-322,-980,1805,3777,3201,1376,-839,-2059
-1141,-1395,-253,1268,-444,-824,1834,3660,3084,1239,-897,-1942
-1122,-1239,-117,1180,-502,-678,1815,3474,2928,1102,-897,-1815
-1200,-1141,58,1171,-629,-541,1747,3240,2693,917,-907,-1678
-1229,-1073,156,1151,-692,-458,1678,2976,2410,702,-946,-1522
-1151,-976,175,1063,-663,-400,1649,2810,2215,566,-936,-1366
-1102,-849,253,976,-678,-297,1639,2742,2137,527,-849,-1190
-1102,-722,380,912,-741,-170,1629,2703,2117,517,-741,-1044
-1044,-614,429,829,-736,-92,1590,2674,2117,517,-653,-936
-927,-497,429,712,-678,-34,1561,2674,2127,546,-556,-839
-810,-361,448,585,-629,43,1551,2713,2166,595,-439,-722
-751,-273,478,512,-614,102,1532,2771,2176,614,-341,-605
-780,-302,478,541,-629,87,1493,2791,2147,575,-292,-536
-780,-370,409,575,-595,19,1464,2820,2117,536,-253,-488
-673,-341,331,507,-502,-4,1464,2849,2108,517,-214,-419
-575,-283,292,429,-434,4,1473,2859,2030,468,-185,-370
-575,-331,244,453,-409,-43,1473,2869,1854,390,-175,-351
-556,-390,165,473,-361,-112,1434,2810,1639,292,-165,-331
-478,-351,126,414,-302,-112,1415,2762,1473,204,-214,-312
-458,-341,117,400,-287,-112,1415,2723,1307,117,-273,-302
-448,-380,68,414,-258,-156,1424,2625,1083,9,-283,-312
-400,-409,-9,405,-195,-209,1454,2518,888,-68,-263,-312
-380,-439,-58,409,-161,-248,1512,2430,751,-117,-263,-302
-361,-439,-78,400,-141,-258,1551,2332,624,-156,-253,-283
-341,-409,-68,375,-136,-239,1581,2244,527,-175,-234,-253
-351,-429,-78,390,-136,-253,1629,2176,439,-204,-234,-234
-380,-497,-117,439,-131,-307,1610,2049,312,-292,-302,-253
-429,-546,-117,488,-156,-331,1522,1844,136,-400,-390,-292
-448,-546,-97,497,-175,-322,1493,1649,9,-429,-400,-292
-439,-536,-97,488,-170,-317,1444,1366,-126,-409,-322,-253
-419,-517,-97,468,-161,-307,1288,936,-312,-448,-283,-224
-409,-468,-58,439,-175,-263,1132,585,-429,-488,-283,-195
-370,-419,-48,395,-161,-234,1093,409,-429,-458,-244,-126
-351,-439,-87,395,-131,-263,1005,253,-429,-409,-195,-78
-390,-448,-58,419,-165,-253,819,48,-478,-380,-165,-68
-390,-380,9,385,-200,-185,624,-156,-497,-351,-146,-68
-283,-244,39,263,-161,-102,400,-322,-468,-302,-97,-19
-156,-87,68,122,-112,-9,185,-419,-419,-224,-19,58
-78,48,126,14,-102,87,58,-439,-351,-126,87,126
-58,58,117,0,-87,87,-9,-439,-292,-68,156,165
-73,43,117,14,-95,80,-48,-448,-292,-82,146,175
-87,29,117,29,-102,73,-87,-458,-292,-87,136,175
-102,14,117,43,-109,65,-126,-468,-292,-92,126,175
-117,0,117,58,-117,58,-165,-478,-292,-97,117,175
-97,9,107,43,-102,58,-165,-488,-292,-92,126,190
-87,19,107,34,-97,63,-165,-488,-292,-87,136,195
-78,29,107,24,-92,68,-165,-488,-292,-82,146,200
-68,39,107,14,-87,73,-165,-488,-292,-78,156,204
-68,53,122,7,-95,87,-180,-497,-292,-73,165,214
-68,58,126,4,-97,92,-185,-497,-292,-68,175,224
-68,63,131,2,-100,97,-190,-497,-292,-63,185,234
-68,68,136,0,-102,102,-195,-497,-292,-58,195,244
-68,73,141,-2,-104,107,-185,-507,-297,-78,165,224
-68,78,146,-4,-107,112,-185,-507,-302,-87,146,214
-68,82,151,-7,-109,117,-185,-507,-307,-97,126,204
-68,87,156,-9,-112,122,-185,-507,-312,-107,107,195
-58,92,151,-17,-104,122,-190,-512,-317,-107,126,209
-48,97,146,-24,-97,122,-195,-517,-322,-107,136,224
-39,102,141,-31,-90,122,-200,-522,-326,-107,146,239
-29,107,136,-39,-82,122,-204,-527,-331,-107,156,253
-53,107,161,-26,-107,134,-224,-541,-351,-112,156,253
-78,107,185,-14,-131,146,-234,-556,-361,-117,156,253
-102,107,209,-2,-156,158,-244,-570,-370,-122,156,253
-126,107,234,9,-180,170,-253,-585,-380,-126,156,253
-107,92,200,7,-153,146,-239,-585,-380,-136,156,263
-97,87,185,4,-141,136,-234,-585,-380,-136,156,273
-87,82,170,2,-129,126,-229,-585,-380,-136,156,283
-78,78,156,0,-117,117,-224,-585,-380,-136,156,292
-63,112,175,-24,-119,143,-234,-600,-390,-136,170,302
-58,136,195,-39,-126,165,-244,-614,-400,-136,185,312
-53,161,214,-53,-134,187,-253,-629,-409,-136,200,322
-48,185,234,-68,-141,209,-263,-644,-419,-136,214,331
-34,195,229,-80,-131,212,-278,-658,-434,-151,204,351
-19,204,224,-92,-122,214,-283,-673,-448,-156,204,361
-4,214,219,-104,-112,217,-287,-688,-463,-161,204,370
9,224,214,-117,-102,219,-292,-702,-478,-165,204,380
-14,224,239,-104,-126,231,-307,-727,-488,-175,209,405
-29,224,253,-97,-141,239,-312,-741,-497,-175,214,419
-43,224,268,-90,-156,246,-317,-756,-507,-175,219,434
-58,224,283,-82,-170,253,-322,-771,-517,-175,224,448
-34,253,287,-109,-161,270,-336,-795,-536,-165,258,488
-9,273,283,-131,-146,278,-341,-810,-546,-165,283,517
14,292,278,-153,-131,285,-346,-824,-556,-165,307,546
39,312,273,-175,-117,292,-351,-839,-566,-165,331,575
53,331,278,-192,-112,305,-375,-878,-600,-185,341,595
58,351,292,-204,-117,322,-400,-907,-624,-195,341,605
63,370,307,-217,-122,339,-424,-936,-649,-204,341,614
68,390,322,-229,-126,356,-448,-966,-673,-214,341,624
87,414,326,-251,-119,370,-468,-1010,-702,-229,356,644
107,439,331,-273,-112,385,-488,-1044,-732,-244,361,663
126,463,336,-295,-104,400,-507,-1078,-761,-258,366,683
146,488,341,-317,-97,414,-527,-1112,-790,-273,370,702
136,492,356,-314,-109,424,-556,-1156,-824,-278,395,736
136,497,361,-317,-112,429,-575,-1190,-849,-283,409,771
136,502,366,-319,-114,434,-595,-1224,-873,-287,424,805
136,507,370,-322,-117,439,-614,-1259,-897,-292,439,839
161,561,400,-361,-119,480,-639,-1298,-927,-312,448,868
175,605,429,-390,-126,517,-653,-1337,-956,-322,458,888
190,649,458,-419,-134,553,-668,-1376,-985,-331,468,907
204,692,488,-448,-141,590,-683,-1415,-1015,-341,478,927
234,702,468,-468,-117,585,-712,-1454,-1054,-356,488,946
253,702,448,-478,-97,575,-741,-1493,-1083,-370,488,956
273,702,429,-488,-78,566,-771,-1532,-1112,-385,488,966
292,702,409,-497,-58,556,-800,-1571,-1141,-400,488,976
307,717,409,-512,-51,563,-814,-1620,-1180,-419,492,990
312,732,419,-522,-53,575,-829,-1659,-1210,-429,497,995
317,746,429,-531,-56,588,-844,-1698,-1239,-439,502,1000
322,761,439,-541,-58,600,-858,-1737,-1268,-448,507,1005
341,780,439,-561,-48,610,-883,-1776,-1293,-453,512,1010
351,800,448,-575,-48,624,-907,-1805,-1317,-458,517,1015
361,819,458,-590,-48,639,-932,-1834,-1342,-463,522,1019
370,839,468,-605,-48,653,-956,-1864,-1366,-468,527,1024
341,819,478,-580,-68,649,-966,-1888,-1385,-478,512,1015
322,810,488,-566,-82,649,-976,-1912,-1405,-488,507,1005
302,800,497,-551,-97,649,-985,-1937,-1424,-497,502,995
283,790,507,-536,-112,649,-995,-1961,-1444,-507,497,985
297,771,473,-534,-87,622,-1015,-1981,-1459,-512,488,966
302,761,458,-531,-78,610,-1034,-1991,-1464,-517,478,946
307,751,444,-529,-68,597,-1054,-2000,-1468,-522,468,927
312,741,429,-527,-58,585,-1073,-2010,-1473,-527,458,907
326,761,434,-544,-53,597,-1063,-1986,-1454,-502,463,888
331,771,439,-551,-53,605,-1054,-1971,-1434,-488,468,868
336,780,444,-558,-53,612,-1044,-1956,-1415,-473,473,849
341,790,448,-566,-53,619,-1034,-1942,-1395,-458,478,829
326,751,424,-539,-48,588,-1034,-1922,-1366,-444,458,795
312,712,400,-512,-43,556,-1034,-1903,-1346,-429,448,771
297,673,375,-485,-39,524,-1034,-1883,-1327,-414,439,746
283,634,351,-458,-34,492,-1034,-1864,-1307,-400,429,722
273,619,346,-446,-36,483,-1019,-1815,-1268,-375,419,692
273,614,341,-444,-34,478,-1005,-1776,-1229,-361,409,663
273,610,336,-441,-31,473,-990,-1737,-1190,-346,400,634
273,605,331,-439,-29,468,-976,-1698,-1151,-331,390,605
268,585,317,-427,-24,451,-941,-1625,-1083,-287,395,595
263,566,302,-414,-19,434,-917,-1561,-1024,-253,400,585
258,546,287,-402,-14,417,-893,-1498,-966,-219,405,575
253,527,273,-390,-9,400,-868,-1434,-907,-185,409,566
224,488,263,-356,-19,375,-849,-1366,-858,-161,395,536
204,458,253,-331,-24,356,-829,-1307,-810,-136,390,507
185,429,244,-307,-29,336,-810,-1249,-761,-112,385,478
165,400,234,-283,-34,317,-790,-1190,-712,-87,380,448
151,380,229,-265,-39,305,-761,-1112,-649,-53,390,434
146,370,224,-258,-39,297,-732,-1044,-595,-29,390,419
141,361,219,-251,-39,290,-702,-976,-541,-4,390,405
136,351,214,-244,-39,283,-673,-907,-488,19,390,390
112,326,214,-219,-51,270,-644,-849,-434,39,375,375
97,302,204,-200,-53,253,-614,-790,-390,58,370,361
82,278,195,-180,-56,236,-585,-732,-346,78,366,346
68,253,185,-161,-58,219,-556,-673,-302,97,361,331
58,244,185,-151,-63,214,-517,-610,-253,117,356,307
58,234,175,-146,-58,204,-488,-556,-214,126,351,292
58,224,165,-141,-53,195,-458,-502,-175,136,346,278
58,214,156,-136,-48,185,-429,-448,-136,146,341,263
53,200,146,-126,-46,173,-390,-395,-97,161,331,258
48,195,146,-122,-48,170,-361,-351,-68,175,331,253
43,190,146,-117,-51,168,-331,-307,-39,190,331,248
39,185,146,-112,-53,165,-302,-263,-9,204,331,244
19,165,146,-92,-63,156,-287,-234,4,195,312,224
9,156,146,-82,-68,151,-273,-204,19,195,302,204
0,146,146,-73,-73,146,-258,-175,34,195,292,185
-9,136,146,-63,-78,141,-244,-146,48,195,283,165
0,117,117,-58,-58,117,-224,-117,68,185,268,156
0,107,107,-53,-53,107,-204,-97,78,185,263,146
0,97,97,-48,-48,97,-185,-78,87,185,258,136
0,87,87,-43,-43,87,-165,-58,97,185,253,126
-24,78,102,-26,-63,90,-141,-29,117,190,263,126
-39,68,107,-14,-73,87,-117,-9,126,195,263,126
-53,58,112,-2,-82,85,-92,9,136,200,263,126
-68,48,117,9,-92,82,-68,29,146,204,263,126
-78,29,107,24,-92,68,-53,34,146,195,258,136
-87,19,107,34,-97,63,-48,39,146,195,253,136
-97,9,107,43,-102,58,-43,43,146,195,248,136
-107,0,107,53,-107,53,-39,48,146,195,244,136
-97,9,107,43,-102,58,-24,48,136,190,229,126
-97,9,107,43,-102,58,-19,48,136,185,224,117
-97,9,107,43,-102,58,-14,48,136,180,219,107
-97,9,107,43,-102,58,-9,48,136,175,214,97
-87,19,107,34,-97,63,0,48,126,165,204,97
-87,19,107,34,-97,63,0,48,126,165,204,97
-87,19,107,34,-97,63,0,48,126,165,204,97
-87,19,107,34,-97,63,0,48,126,165,204,97
-112,4,117,53,-114,61,4,58,136,165,204,92
-126,-9,117,68,-122,53,9,58,136,165,204,87
-141,-24,117,82,-129,46,14,58,136,165,204,82
-156,-39,117,97,-136,39,19,58,136,165,204,78
-146,-29,117,87,-131,43,9,53,126,156,195,87
-146,-29,117,87,-131,43,9,48,126,156,195,87
-146,-29,117,87,-131,43,9,43,126,156,195,87
-146,-29,117,87,-131,43,9,39,126,156,195,87
-146,-39,107,92,-126,34,19,29,126,146,190,82
-146,-39,107,92,-126,34,19,29,126,146,185,78
-146,-39,107,92,-126,34,19,29,126,146,180,73
-146,-39,107,92,-126,34,19,29,126,146,175,68
-122,-14,107,68,-114,46,29,39,126,146,185,73
-107,0,107,53,-107,53,29,39,126,146,185,78
-92,14,107,39,-100,61,29,39,126,146,185,82
-78,29,107,24,-92,68,29,39,126,146,185,87
-97,14,112,41,-104,63,34,48,131,151,185,87
-107,9,117,48,-112,63,39,48,136,156,185,87
-117,4,122,56,-119,63,43,48,141,161,185,87
-126,0,126,63,-126,63,48,48,146,165,185,87
-131,9,141,61,-136,75,43,39,141,156,195,87
-136,9,146,63,-141,78,39,39,136,156,195,87
-141,9,151,65,-146,80,34,39,131,156,195,87
-146,9,156,68,-151,82,29,39,126,156,195,87
-141,14,156,63,-148,85,34,48,136,165,195,87
-136,19,156,58,-146,87,39,48,136,165,195,87
-131,24,156,53,-143,90,43,48,136,165,195,87
-126,29,156,48,-141,92,48,48,136,165,195,87
-156,14,170,70,-163,92,39,48,126,161,185,78
-175,0,175,87,-175,87,39,48,126,156,185,78
-195,-14,180,104,-187,82,39,48,126,151,185,78
-214,-29,185,122,-200,78,39,48,126,146,185,78
-185,-4,180,95,-183,87,48,48,136,156,185,87
-156,9,165,73,-161,87,48,48,136,156,185,87
-126,24,151,51,-139,87,48,48,136,156,185,87
-97,39,136,29,-117,87,48,48,136,156,185,87
-117,24,141,46,-129,82,58,58,146,165,190,92
-126,19,146,53,-136,82,58,58,146,165,195,97
-136,14,151,61,-143,82,58,58,146,165,200,102
-146,9,156,68,-151,82,58,58,146,165,204,107
-126,19,146,53,-136,82,48,48,136,156,200,102
-117,29,146,43,-131,87,48,48,136,156,195,97
-107,39,146,34,-126,92,48,48,136,156,190,92
-97,48,146,24,-122,97,48,48,136,156,185,87
-131,14,146,58,-139,80,39,48,131,151,180,78
-165,-9,156,87,-161,73,39,48,126,146,175,78
-200,-34,165,117,-183,65,39,48,122,141,170,78
-234,-58,175,146,-204,58,39,48,117,136,165,78
-214,-24,190,119,-202,82,43,63,126,151,180,82
-195,0,195,97,-195,97,48,68,136,156,185,87
-175,24,200,75,-187,112,53,73,146,161,190,92
-156,48,204,53,-180,126,58,78,156,165,195,97
-165,39,204,63,-185,122,48,73,141,161,185,87
-175,29,204,73,-190,117,48,68,136,156,185,87
-185,19,204,82,-195,112,48,63,131,151,185,87
-195,9,204,92,-200,107,48,58,126,146,185,87
-185,9,195,87,-190,102,58,58,136,156,195,97
-185,9,195,87,-190,102,58,58,136,156,195,97
-185,9,195,87,-190,102,58,58,136,156,195,97
-185,9,195,87,-190,102,58,58,136,156,195,97
-209,-9,200,109,-204,95,48,58,126,151,190,87
-234,-29,204,131,-219,87,48,58,126,146,185,87
-258,-48,209,153,-234,80,48,58,126,141,180,87
-283,-68,214,175,-248,73,48,58,126,136,175,87
-244,-34,209,139,-226,87,48,58,131,146,185,97
-214,-9,204,112,-209,97,48,58,136,146,185,97
-185,14,200,85,-192,107,48,58,141,146,185,97
-156,39,195,58,-175,117,48,58,146,146,185,97
-151,48,200,51,-175,124,53,68,136,156,185,97
-146,48,195,48,-170,122,58,68,136,156,185,97
-141,48,190,46,-165,119,63,68,136,156,185,97
-136,48,185,43,-161,117,68,68,136,156,185,97
-146,39,185,53,-165,112,63,68,126,146,180,92
-156,29,185,63,-170,107,58,68,126,146,175,87
-165,19,185,73,-175,102,53,68,126,146,170,82
-175,9,185,82,-180,97,48,68,126,146,165,78
-190,9,200,90,-195,104,58,68,136,146,175,87
-195,9,204,92,-200,107,58,68,136,146,175,87
-200,9,209,95,-204,109,58,68,136,146,175,87
-204,9,214,97,-209,112,58,68,136,146,175,87
-200,24,224,87,-212,124,63,73,141,151,180,97
-195,29,224,82,-209,126,68,78,146,156,185,97
-190,34,224,78,-207,129,73,82,151,161,190,97
-185,39,224,73,-204,131,78,87,156,165,195,97
-204,9,214,97,-209,112,68,78,146,151,185,87
-224,-9,214,117,-219,102,58,68,136,146,175,78
-244,-29,214,136,-229,92,48,58,126,141,165,68
-263,-48,214,156,-239,82,39,48,117,136,156,58
-219,-14,204,117,-212,95,53,63,131,141,170,68
-185,9,195,87,-190,102,58,68,136,146,175,78
-151,34,185,58,-168,109,63,73,141,151,180,87
-117,58,175,29,-146,117,68,78,146,156,185,97
-136,43,180,46,-158,112,58,78,146,156,195,97
-156,39,195,58,-175,117,58,78,146,156,195,97
-175,34,209,70,-192,122,58,78,146,156,195,97
-195,29,224,82,-209,126,58,78,146,156,195,97
-209,19,229,95,-219,124,48,73,136,151,180,92
-214,9,224,102,-219,117,48,68,136,146,175,87
-219,0,219,109,-219,109,48,63,136,141,170,82
-224,-9,214,117,-219,102,48,58,136,136,165,78
-224,0,224,112,-224,112,63,63,141,141,170,87
-224,9,234,107,-229,122,68,68,146,146,175,87
-224,19,244,102,-234,131,73,73,151,151,180,87
-224,29,253,97,-239,141,78,78,156,156,185,87
-219,19,239,100,-229,129,68,73,151,146,175,87
-214,19,234,97,-224,126,68,68,146,146,175,87
-209,19,229,95,-219,124,68,63,141,146,175,87
-204,19,224,92,-214,122,68,58,136,146,175,87
-195,34,229,80,-212,131,68,73,141,156,185,92
-185,39,224,73,-204,131,68,78,146,156,185,97
-175,43,219,65,-197,131,68,82,151,156,185,102
-165,48,214,58,-190,131,68,87,156,156,185,107
-185,39,224,73,-204,131,82,97,161,161,190,117
-195,39,234,78,-214,136,87,97,165,165,195,117
-204,39,244,82,-224,141,92,97,170,170,200,117
-214,39,253,87,-234,146,97,97,175,175,204,117
-195,53,248,70,-222,151,107,102,180,185,214,122
-185,68,253,58,-219,161,107,107,185,185,214,126
-165,102,268,31,-217,185,107,112,190,204,229,141
-141,122,263,9,-202,192,97,112,190,204,229,151
-165,126,292,19,-229,209,107,112,195,219,234,161
-180,136,317,21,-248,226,117,126,204,224,253,175
-165,170,336,-2,-251,253,122,136,214,234,258,180
-165,190,356,-12,-261,273,131,136,234,239,263,185
-156,185,341,-14,-248,263,131,122,229,224,244,170
-151,185,336,-17,-244,261,126,107,224,224,253,165
-146,180,326,-17,-236,253,107,97,214,219,253,156
-156,156,312,0,-234,234,97,92,204,204,248,151
-190,126,317,31,-253,222,78,92,195,204,244,146
-165,136,302,14,-234,219,58,92,200,219,244,146
-126,151,278,-12,-202,214,48,87,200,229,258,161
-146,151,297,-2,-222,224,24,78,200,229,258,165
-170,122,292,24,-231,207,19,97,219,244,278,185
-170,136,307,17,-239,222,19,112,229,244,278,185
-161,146,307,7,-234,226,9,102,219,244,258,165
-175,161,336,7,-256,248,0,97,209,234,258,161
-175,170,346,2,-261,258,-9,82,204,234,268,170
-180,151,331,14,-256,241,-29,68,185,214,263,170
-170,141,312,14,-241,226,-34,53,170,200,248,165
-151,136,287,7,-219,212,-34,53,165,195,244,165
-151,126,278,12,-214,202,-29,53,165,204,253,165
-175,122,297,26,-236,209,-43,29,146,190,253,161
-170,146,317,12,-244,231,-58,9,141,180,239,151
-165,131,297,17,-231,214,-68,-9,126,161,209,131
-165,87,253,39,-209,170,-78,-14,107,131,190,112
-156,87,244,34,-200,165,-82,-9,102,136,204,117
-156,63,219,46,-187,141,-73,-4,112,151,209,112
-156,19,175,68,-165,97,-78,-9,92,122,190,97
-117,29,146,43,-131,87,-73,-9,97,107,185,92
-107,73,180,17,-143,126,-43,9,102,122,185,107
-131,82,214,24,-173,148,-29,24,107,126,185,112
-151,78,229,36,-190,153,-24,14,112,122,180,107
-165,73,239,46,-202,156,-14,14,102,117,170,102
-170,87,258,41,-214,173,19,29,122,141,185,112
-175,97,273,39,-224,185,39,58,151,175,219,131
-190,78,268,56,-229,173,43,68,156,190,229,131
-224,58,283,82,-253,170,63,82,165,185,229,126
-234,58,292,87,-263,175,78,102,180,200,239,131
-224,73,297,75,-261,185,82,107,195,195,239,131
-224,73,297,75,-261,185,78,107,195,185,229,131
-214,58,273,78,-244,165,87,92,175,170,209,107
-214,29,244,92,-229,136,87,78,156,165,200,97
-224,34,258,95,-241,146,87,73,151,165,200,87
-200,29,229,85,-214,129,87,68,146,161,190,78
-204,24,229,90,-217,126,97,63,136,156,200,87
-209,14,224,97,-217,119,97,63,141,156,195,87
-204,24,229,90,-217,126,102,73,151,156,195,87
-190,29,219,80,-204,124,112,87,161,165,204,97
-204,24,229,90,-217,126,102,87,146,156,195,87
-239,4,244,117,-241,124,97,78,131,141,180,78
-248,-14,234,131,-241,109,92,68,126,136,175,58
-268,-29,239,148,-253,104,92,68,126,136,175,48
-287,-43,244,165,-265,100,92,73,126,136,170,58
-273,-39,234,156,-253,97,92,68,136,136,170,63
-253,-53,200,153,-226,73,87,63,136,131,170,63
-253,-68,185,161,-219,58,73,48,126,117,161,58
-244,-63,180,153,-212,58,73,48,122,107,156,43
-248,-58,190,153,-219,65,82,53,122,122,156,58
-248,-39,209,143,-229,85,87,73,131,141,170,73
-248,-19,229,134,-239,104,87,78,131,146,180,73
-253,-43,209,148,-231,82,73,68,126,131,170,73
-273,-48,224,161,-248,87,73,68,126,131,165,58
-297,-43,253,170,-275,104,82,78,136,141,185,68
-283,-34,248,158,-265,107,87,78,141,141,190,82
-283,-58,224,170,-253,82,87,68,131,141,190,73
-292,-82,209,187,-251,63,73,48,102,131,170,63
-273,-48,224,161,-248,87,73,39,97,131,170,63
-195,19,214,87,-204,117,68,24,92,122,170,58
-126,58,185,34,-156,122,63,0,87,122,170,73
-170,48,219,61,-195,134,53,-14,68,122,185,82
-263,9,273,126,-268,141,58,-34,68,136,204,102
-307,-29,278,168,-292,124,43,-68,53,146,224,107
-209,9,219,100,-214,114,29,-92,68,185,258,136
-112,87,200,12,-156,143,0,-107,78,219,297,170
-126,58,185,34,-156,122,-63,-146,82,234,307,170
-180,-34,146,107,-163,56,-131,-146,126,268,307,141
-180,-107,73,143,-126,-17,-165,-73,234,326,331,131
-126,-136,-9,131,-58,-73,-175,39,366,409,375,136
-58,-107,-48,82,-4,-78,-185,48,444,497,424,156
-24,-24,0,24,-12,-12,-200,-97,400,527,492,219
-4,82,87,-39,-46,85,-219,-375,165,463,522,292
39,190,151,-114,-56,170,-258,-668,-161,317,541,375
58,214,156,-136,-48,185,-307,-932,-517,92,512,434
4,190,185,-97,-90,187,-385,-1283,-1083,-341,370,439
-63,229,292,-82,-178,261,-488,-1747,-1825,-912,170,439
-58,322,380,-131,-219,351,-522,-2117,-2425,-1381,9,458
-14,375,390,-180,-202,383,-492,-2278,-2820,-1747,-131,468
-24,312,336,-143,-180,324,-497,-2376,-3220,-2152,-346,409
-63,156,219,-46,-141,187,-488,-2454,-3591,-2522,-575,302
-82,68,151,7,-117,109,-434,-2444,-3772,-2693,-673,244
-68,107,175,-19,-122,141,-380,-2469,-3879,-2791,-736,234
-43,146,190,-51,-117,168,-356,-2571,-4065,-2971,-858,219
4,112,107,-58,-51,109,-366,-2776,-4289,-3206,-1049,175
14,29,14,-21,0,21,-463,-3089,-4523,-3445,-1254,122
-39,-82,-43,61,2,-63,-595,-3430,-4728,-3635,-1429,78
-39,-97,-58,68,9,-78,-712,-3699,-4831,-3713,-1527,87
48,-19,-68,-14,58,-43,-834,-3830,-4782,-3664,-1503,204
170,39,-131,-104,151,-46,-971,-3830,-4611,-3538,-1410,380
395,43,-351,-219,373,-153,-1132,-3772,-4392,-3376,-1356,507
502,43,-458,-273,480,-207,-1259,-3684,-4089,-3152,-1259,644
478,117,-361,-297,419,-122,-1346,-3508,-3718,-2854,-1083,819
527,239,-287,-383,407,-24,-1420,-3303,-3376,-2576,-927,927
610,331,-278,-470,444,26,-1493,-3118,-3074,-2342,-829,941
595,390,-204,-492,400,92,-1478,-2888,-2771,-2113,-746,936
580,444,-136,-512,358,153,-1410,-2630,-2503,-1932,-712,893
527,473,-53,-500,290,209,-1351,-2376,-2249,-1771,-736,780
405,512,107,-458,148,309,-1224,-2093,-1966,-1566,-697,678
302,527,224,-414,39,375,-1034,-1786,-1673,-1356,-639,570
204,424,219,-314,-7,322,-888,-1576,-1468,-1224,-644,409
102,287,185,-195,-41,236,-785,-1405,-1307,-1117,-658,224
9,200,190,-104,-90,195,-683,-1215,-1127,-990,-629,63
-53,126,180,-36,-117,153,-561,-1005,-941,-849,-590,-68
-136,53,190,41,-163,122,-414,-785,-732,-702,-531,-161
-322,-24,297,173,-309,136,-287,-585,-541,-570,-473,-224
-395,-24,370,209,-383,173,-195,-429,-385,-434,-395,-234
-239,102,341,68,-290,222,-87,-268,-214,-268,-263,-190
-224,112,336,56,-280,224,4,-126,-63,-131,-156,-146
-444,-63,380,253,-412,158,39,-68,-9,-63,-117,-165
-502,-156,346,329,-424,95,53,-29,39,-24,-97,-165
-419,-107,312,263,-366,102,102,53,126,48,-14,-117
-400,-87,312,244,-356,112,151,141,200,122,43,-78
-448,-136,312,292,-380,87,146,185,229,146,63,-78
-434,-185,248,309,-341,31,131,204,253,161,68,-82
-346,-141,204,244,-275,31,151,244,302,195,107,-63
-263,-43,219,153,-241,87,209,297,366,258,170,-24
-234,-14,219,124,-226,102,253,336,414,302,200,-9
-234,-58,175,146,-204,58,253,346,429,317,219,-4
-204,-39,165,122,-185,63,244,356,439,317,234,9
-219,-48,170,134,-195,61,239,356,434,317,244,4
-239,-53,185,146,-212,65,224,356,429,317,239,-4
-224,-39,185,131,-204,73,224,366,434,317,229,-9
-248,-48,200,148,-224,75,224,370,439,317,224,-9
-283,-63,219,173,-251,78,224,370,439,322,209,-9
-297,-73,224,185,-261,75,239,385,453,331,214,-4
-312,-73,239,192,-275,82,248,385,453,351,239,9
-307,-78,229,192,-268,75,239,366,439,341,234,0
-307,-92,214,200,-261,61,234,366,439,341,234,0
-317,-82,234,200,-275,75,234,375,448,341,248,4
-326,-73,253,200,-290,90,234,390,453,346,253,9
-307,-48,258,178,-283,104,229,400,463,346,244,9
-317,-68,248,192,-283,90,219,390,453,341,224,9
-326,-68,258,197,-292,95,219,385,453,336,214,-4
-292,-34,258,163,-275,112,224,385,458,336,214,-4
-268,-43,224,156,-246,90,234,380,458,336,214,-9
-278,-78,200,178,-239,61,224,380,453,331,209,-9
-278,-82,195,180,-236,56,219,380,448,326,204,-9
-239,-82,156,161,-197,36,219,390,444,326,214,-4
-224,-63,161,143,-192,48,234,419,468,341,239,9
-229,-58,170,143,-200,56,244,419,478,346,244,14
-224,-58,165,141,-195,53,224,409,463,336,209,0
-229,-53,175,141,-202,61,224,400,458,341,204,0
-248,-43,204,146,-226,80,229,400,468,351,209,0
-258,-53,204,156,-231,75,229,400,468,351,204,0
-268,-53,214,161,-241,80,229,409,473,351,229,4
-273,-68,204,170,-239,68,234,424,483,356,258,9
-283,-73,209,178,-246,68,244,429,497,356,253,9
-292,-73,219,183,-256,73,239,429,497,356,248,4
-292,-53,239,173,-265,92,239,434,497,366,239,4
-278,-48,229,163,-253,90,248,453,512,366,234,14
-278,-58,219,168,-248,80,244,434,507,341,219,-4
-307,-117,190,212,-248,36,234,419,492,326,209,-29
-317,-107,209,212,-263,51,229,429,497,341,219,-19
-317,-107,209,212,-263,51,224,434,497,346,224,-9
-322,-97,224,209,-273,63,229,453,512,361,234,-4
-312,-68,244,190,-278,87,234,463,527,370,239,4
-244,-14,229,129,-236,107,244,492,541,380,239,9
-224,4,229,109,-226,117,248,497,546,385,229,4
-253,-39,214,146,-234,87,258,492,536,375,224,0
-263,-48,214,156,-239,82,258,492,546,375,229,0
-287,-78,209,183,-248,65,268,507,556,380,239,0
-317,-87,229,202,-273,70,268,522,566,385,263,0
-297,-97,200,197,-248,51,263,517,570,375,248,-9
-278,-87,190,183,-234,51,248,517,570,380,239,-9
-287,-87,200,187,-244,56,253,531,570,385,234,-9
-297,-92,204,195,-251,56,248,531,570,385,229,-14
-287,-87,200,187,-244,56,248,536,585,395,239,-4
-302,-82,219,192,-261,68,253,546,595,405,248,-4
-307,-73,234,190,-270,80,258,561,610,409,234,-9
-283,-68,214,175,-248,73,258,580,614,414,234,-14
-244,-48,195,146,-219,73,258,595,629,414,244,-14
-219,-43,175,131,-197,65,278,614,644,424,263,-14
-248,-58,190,153,-219,65,278,624,653,429,248,-19
-239,-43,195,141,-217,75,278,624,653,439,244,-24
-273,-53,219,163,-246,82,287,634,668,448,244,-39
-292,-53,239,173,-265,92,287,644,673,448,248,-39
-273,-53,219,163,-246,82,297,668,697,463,253,-39
-278,-39,239,158,-258,100,307,697,712,478,278,-39
-331,-82,248,207,-290,82,302,702,712,478,268,-39
-336,-107,229,222,-283,61,302,727,727,478,258,-39
-297,-107,190,202,-244,41,302,751,756,473,253,-39
-317,-131,185,224,-251,26,297,761,761,468,248,-53
-317,-126,190,222,-253,31,307,761,766,478,248,-58
-302,-92,209,197,-256,58,317,790,780,497,258,-53
-302,-78,224,190,-263,73,326,814,810,517,268,-43
-302,-82,219,192,-261,68,336,844,824,531,268,-39
-326,-107,219,217,-273,56,351,873,849,536,258,-53
-322,-112,209,217,-265,48,375,907,883,551,248,-58
-346,-102,244,224,-295,70,385,946,912,566,244,-63
-395,-117,278,256,-336,80,390,985,936,561,234,-78
-400,-122,278,261,-339,78,395,990,951,561,209,-112
-351,-117,234,234,-292,58,400,1015,966,566,200,-136
-292,-73,219,183,-256,73,419,1058,1000,595,224,-126
-263,-58,204,161,-234,73,439,1098,1024,600,224,-131
-292,-73,219,183,-256,73,429,1122,1039,600,214,-146
-283,-82,200,183,-241,58,434,1161,1063,605,219,-151
-292,-92,200,192,-246,53,444,1190,1088,619,209,-156
-331,-117,214,224,-273,48,444,1210,1098,610,195,-180
-331,-117,214,224,-273,48,448,1234,1112,629,195,-200
-331,-117,214,224,-273,48,468,1254,1127,629,185,-200
-361,-126,234,244,-297,53,478,1273,1146,629,180,-224
-361,-146,214,253,-287,34,492,1293,1161,639,165,-229
-370,-126,244,248,-307,58,517,1322,1180,658,190,-224
-370,-97,273,234,-322,87,531,1351,1205,683,224,-200
-375,-97,278,236,-326,90,541,1381,1220,697,234,-185
-380,-112,268,246,-324,78,541,1400,1239,707,248,-180
-405,-107,297,256,-351,95,536,1400,1224,697,229,-190
-414,-102,312,258,-363,104,541,1400,1220,688,219,-200
-434,-107,326,270,-380,109,546,1395,1215,678,190,-219
-448,-117,331,283,-390,107,546,1395,1200,658,180,-234
-429,-131,297,280,-363,82,585,1424,1234,688,214,-200
-492,-190,302,341,-397,56,575,1415,1224,673,195,-209
-507,-180,326,344,-417,73,566,1405,1205,673,204,-214
-473,-151,322,312,-397,85,541,1376,1171,649,195,-229
-468,-146,322,307,-395,87,536,1356,1141,634,185,-224
-463,-141,322,302,-392,90,541,1337,1132,629,185,-219
-458,-136,322,297,-390,92,546,1327,1122,624,185,-214
-453,-131,322,292,-387,95,551,1317,1112,619,185,-209
-448,-126,322,287,-385,97,556,1307,1102,614,185,-204
-444,-107,336,275,-390,114,531,1263,1063,585,175,-204
-439,-97,341,268,-390,122,517,1229,1034,566,165,-204
-434,-87,346,261,-390,129,502,1195,1005,546,156,-204
-429,-78,351,253,-390,136,488,1161,976,527,146,-204
-444,-87,356,265,-400,134,478,1122,941,502,141,-195
-448,-97,351,273,-400,126,468,1083,907,488,136,-195
-453,-107,346,280,-400,119,458,1044,873,473,131,-195
-458,-117,341,287,-400,112,448,1005,839,458,126,-195
-444,-102,341,273,-392,119,424,961,795,434,131,-175
-429,-97,331,263,-380,117,409,917,761,419,136,-165
-414,-92,322,253,-368,114,395,873,727,405,141,-156
-400,-87,312,244,-356,112,380,829,692,390,146,-146
-385,-63,322,224,-353,129,370,790,653,375,165,-117
-380,-48,331,214,-356,141,361,751,624,370,175,-97
-375,-34,341,204,-358,153,351,712,595,366,185,-78
-370,-19,351,195,-361,165,341,673,566,361,195,-58
-361,-24,336,192,-348,156,322,634,527,331,180,-48
-361,-29,331,195,-346,151,302,595,497,302,165,-48
-361,-34,326,197,-344,146,283,556,468,273,151,-48
-361,-39,322,200,-341,141,263,517,439,244,136,-48
-341,-29,312,185,-326,141,239,473,405,239,141,-39
-331,-19,312,175,-322,146,224,439,380,234,146,-39
-322,-9,312,165,-317,151,209,405,356,229,151,-39
-312,0,312,156,-312,156,195,370,331,224,156,-39
-307,0,307,153,-307,153,185,341,317,214,165,-29
-302,0,302,151,-302,151,175,322,302,204,165,-19
-297,0,297,148,-297,148,165,302,287,195,165,-9
-292,0,292,146,-292,146,156,283,273,185,165,0
-292,-4,287,148,-290,141,141,258,258,175,156,0
-292,-9,283,151,-287,136,136,244,244,165,146,0
-292,-14,278,153,-285,131,131,229,229,156,136,0
-292,-19,273,156,-283,126,126,214,214,146,126,0
-268,-4,263,136,-265,129,117,204,224,156,151,24
-253,9,263,122,-258,136,117,204,224,165,165,39
-239,24,263,107,-251,143,117,204,224,175,180,53
-224,39,263,92,-244,151,117,204,224,185,195,68
-224,29,253,97,-239,141,107,200,219,175,185,53
-224,19,244,102,-234,131,107,195,214,165,175,48
-224,9,234,107,-229,122,107,190,209,156,165,43
-224,0,224,112,-224,112,107,185,204,146,156,39
-224,0,224,112,-224,112,87,175,204,175,214,19
-165,78,244,43,-204,161,87,185,214,175,224,39
-214,19,234,97,-224,126,68,156,185,136,175,19
-244,-19,224,131,-234,102,68,165,195,146,185,39
-214,9,224,102,-219,117,87,185,214,195,224,68
-224,19,244,102,-234,131,97,195,214,204,224,87
-253,29,283,112,-268,156,117,204,224,185,195,68
-263,39,302,112,-283,170,126,214,234,175,136,19
-224,29,253,97,-239,141,126,214,234,156,107,0
-204,-19,185,112,-195,82,117,214,234,156,117,-9
-263,-68,195,165,-229,63,117,234,263,185,156,9
-292,-58,234,175,-263,87,146,263,292,224,204,48
-273,0,273,136,-273,136,146,273,302,253,253,78
-273,-9,263,141,-268,126,126,253,292,234,253,68
-283,-68,214,175,-248,73,117,253,283,214,234,68
-273,-78,195,175,-234,58,126,253,283,234,263,78
-244,-19,224,131,-234,102,117,244,283,263,322,126
-224,39,263,92,-244,151,126,273,322,312,370,175
-204,48,253,78,-229,151,146,322,361,331,351,185
-195,19,214,87,-204,117,156,331,351,273,263,126
-234,-29,204,131,-219,87,165,331,351,244,204,87
-214,-29,185,122,-200,78,204,370,390,283,244,87
-156,29,185,63,-170,107,244,419,439,341,302,107
-185,78,263,53,-224,170,273,448,478,390,351,117
-273,97,370,87,-322,234,292,478,517,429,380,146
-302,107,409,97,-356,258,302,497,546,448,400,175
-312,175,488,68,-400,331,302,497,566,468,400,204
-322,204,527,58,-424,366,312,507,585,468,380,204
-302,214,517,43,-409,366,331,575,663,497,390,185
-224,224,448,0,-336,336,409,712,819,644,488,195
-185,126,312,29,-248,219,478,878,995,810,585,185
-195,-39,156,117,-175,58,507,1005,1141,917,624,175
-87,-78,9,82,-48,-34,517,1112,1259,1044,712,204
78,-78,-156,0,117,-117,507,1161,1337,1151,800,224
136,-195,-331,29,234,-263,517,1210,1376,1171,780,136
146,-361,-507,107,326,-434,536,1317,1473,1210,712,-29
224,-478,-702,126,463,-590,536,1454,1600,1268,644,-214
292,-624,-917,165,605,-771,527,1551,1659,1249,478,-488
331,-819,-1151,244,741,-985,556,1659,1698,1161,234,-800
370,-1034,-1405,331,888,-1220,624,1776,1737,1063,0,-1112
439,-1239,-1678,400,1058,-1459,634,1834,1698,917,-253,-1424
497,-1424,-1922,463,1210,-1673,605,1834,1600,702,-556,-1698
497,-1581,-2078,541,1288,-1830,546,1834,1512,517,-829,-1912
517,-1717,-2235,600,1376,-1976,507,1834,1415,312,-1093,-2137
585,-1815,-2400,614,1493,-2108,507,1854,1317,29,-1454,-2361
634,-1922,-2557,644,1595,-2239,527,1893,1259,-185,-1747,-2537
614,-2049,-2664,717,1639,-2357,488,1903,1239,-292,-1883,-2635
566,-2166,-2732,800,1649,-2449,429,1873,1171,-409,-1961,-2703
566,-2205,-2771,819,1668,-2488,390,1834,1063,-575,-2088,-2732
595,-2196,-2791,800,1693,-2493,390,1825,1005,-673,-2156,-2713
634,-2186,-2820,775,1727,-2503,380,1834,956,-722,-2147,-2693
673,-2205,-2879,766,1776,-2542,341,1815,897,-790,-2156,-2703
751,-2205,-2957,727,1854,-2581,312,1805,858,-858,-2176,-2693
829,-2186,-3015,678,1922,-2601,312,1825,810,-956,-2186,-2674
819,-2254,-3074,717,1947,-2664,322,1815,732,-1073,-2235,-2664
780,-2391,-3172,805,1976,-2781,322,1805,653,-1171,-2274,-2664
810,-2440,-3250,814,2030,-2845,312,1805,605,-1229,-2283,-2674
858,-2440,-3298,790,2078,-2869,322,1854,595,-1249,-2254,-2654
800,-2488,-3289,844,2044,-2888,380,1942,585,-1259,-2235,-2644
732,-2566,-3298,917,2015,-2932,448,1981,458,-1385,-2283,-2674
751,-2566,-3318,907,2034,-2942,497,1912,165,-1629,-2400,-2703
702,-2537,-3240,917,1971,-2888,556,1873,-97,-1805,-2449,-2664
556,-2615,-3172,1029,1864,-2893,605,1912,-224,-1825,-2400,-2615
488,-2693,-3181,1102,1834,-2937,605,1883,-370,-1864,-2381,-2586
497,-2664,-3162,1083,1830,-2913,683,1815,-527,-1922,-2371,-2537
400,-2644,-3045,1122,1722,-2845,800,1805,-614,-1942,-2352,-2479
351,-2625,-2976,1137,1664,-2801,858,1756,-673,-1942,-2332,-2430
331,-2537,-2869,1102,1600,-2703,907,1600,-790,-1942,-2293,-2361
48,-2518,-2566,1234,1307,-2542,976,1376,-946,-1922,-2176,-2235
-302,-2420,-2117,1361,907,-2269,995,1180,-1015,-1815,-1952,-2020
-448,-2117,-1668,1283,610,-1893,995,1044,-985,-1610,-1649,-1737
-546,-1893,-1346,1220,400,-1620,1005,966,-946,-1464,-1454,-1493
-741,-1864,-1122,1302,190,-1493,946,829,-976,-1424,-1395,-1366
-810,-1795,-985,1302,87,-1390,849,585,-1054,-1405,-1356,-1278
-741,-1600,-858,1171,58,-1229,780,380,-1044,-1317,-1259,-1171
-722,-1415,-692,1068,-14,-1054,741,322,-966,-1171,-1093,-1044
-761,-1259,-497,1010,-131,-878,692,302,-878,-1015,-907,-907
-771,-1093,-322,932,-224,-707,653,234,-780,-849,-692,-741
-732,-927,-195,829,-268,-561,585,146,-683,-702,-488,-546
-683,-732,-48,707,-317,-390,478,68,-585,-546,-322,-361
-644,-556,87,600,-366,-234,380,19,-468,-400,-185,-204
-644,-429,214,536,-429,-107,292,-48,-380,-283,-78,-87
-614,-292,322,453,-468,14,214,-126,-302,-165,39,19
-566,-136,429,351,-497,146,156,-185,-224,-48,165,126
-527,-48,478,287,-502,214,117,-234,-165,9,253,195
-478,39,517,219,-497,278,48,-263,-136,58,302,234
-400,146,546,126,-473,346,9,-283,-107,126,341,273
-341,195,536,73,-439,366,29,-273,-68,175,400,331
-351,214,566,68,-458,390,19,-263,-53,165,405,341
-351,224,575,63,-463,400,19,-263,-48,165,409,351
-351,234,585,58,-468,409,19,-263,-43,165,414,361
-351,244,595,53,-473,419,19,-263,-39,165,419,370
-336,253,590,41,-463,422,9,-253,-39,175,434,375
-331,253,585,39,-458,419,0,-253,-39,175,439,380
-326,253,580,36,-453,417,-9,-253,-39,175,444,385
-322,253,575,34,-448,414,-19,-253,-39,175,448,390
-331,253,585,39,-458,419,-19,-263,-53,161,434,380
-331,253,585,39,-458,419,-19,-273,-58,156,419,380
-331,253,585,39,-458,419,-19,-283,-63,151,405,380
-331,253,585,39,-458,419,-19,-292,-68,146,390,380
-336,239,575,48,-456,407,-34,-302,-78,146,400,375
-341,234,575,53,-458,405,-39,-302,-78,146,409,370
-346,229,575,58,-461,402,-43,-302,-78,146,419,366
-351,224,575,63,-463,400,-48,-302,-78,146,429,361
-336,263,600,36,-468,431,-43,-302,-78,156,453,385
-322,292,614,14,-468,453,-39,-302,-78,165,468,409
-307,322,629,-7,-468,475,-34,-302,-78,175,483,434
-292,351,644,-29,-468,497,-29,-302,-78,185,497,458
-307,346,653,-19,-480,500,-39,-302,-78,165,478,453
-322,341,663,-9,-492,502,-39,-302,-78,156,458,448
-336,336,673,0,-505,505,-39,-302,-78,146,439,444
-351,331,683,9,-517,507,-39,-302,-78,136,419,439
-351,341,692,4,-522,517,-48,-317,-97,146,444,458
-351,351,702,0,-527,527,-48,-331,-107,146,458,468
-351,361,712,-4,-531,536,-48,-346,-117,146,473,478
-351,370,722,-9,-536,546,-48,-361,-126,146,488,488
-375,356,732,9,-553,544,-58,-375,-141,131,473,483
-390,341,732,24,-561,536,-68,-380,-146,126,468,478
-405,326,732,39,-568,529,-78,-385,-151,122,463,473
-419,312,732,53,-575,522,-87,-390,-156,117,458,468
-390,356,746,17,-568,551,-78,-405,-165,126,473,492
-361,400,761,-19,-561,580,-78,-409,-165,126,488,507
-331,444,775,-56,-553,610,-78,-414,-165,126,502,522
-302,488,790,-92,-546,639,-78,-419,-165,126,517,536
-312,483,795,-85,-553,639,-82,-434,-185,117,502,541
-322,478,800,-78,-561,639,-87,-439,-195,107,497,546
-331,473,805,-70,-568,639,-92,-444,-204,97,492,551
-341,468,810,-63,-575,639,-97,-448,-214,87,488,556
-356,492,849,-68,-602,671,-107,-468,-234,97,517,585
-370,517,888,-73,-629,702,-107,-488,-244,97,536,605
-385,541,927,-78,-656,734,-107,-507,-253,97,556,624
-400,566,966,-82,-683,766,-107,-527,-263,97,575,644
-395,595,990,-100,-692,793,-126,-546,-283,82,580,668
-390,614,1005,-112,-697,810,-136,-566,-292,78,585,692
-385,634,1019,-124,-702,827,-146,-585,-302,73,590,717
-380,653,1034,-136,-707,844,-156,-605,-312,68,595,741
-400,683,1083,-141,-741,883,-165,-639,-331,63,605,761
-409,702,1112,-146,-761,907,-175,-663,-351,58,614,771
-419,722,1141,-151,-780,932,-185,-688,-370,53,624,780
-429,741,1171,-156,-800,956,-195,-712,-390,48,634,790
-429,771,1200,-170,-814,985,-209,-732,-405,58,663,829
-429,800,1229,-185,-829,1015,-214,-751,-419,58,683,858
-429,829,1259,-200,-844,1044,-219,-771,-434,58,702,888
-429,858,1288,-214,-858,1073,-224,-790,-448,58,722,917
-434,897,1332,-231,-883,1115,-239,-829,-468,58,746,966
-439,927,1366,-244,-902,1146,-253,-858,-488,58,771,1015
-444,956,1400,-256,-922,1178,-268,-888,-507,58,795,1063
-448,985,1434,-268,-941,1210,-283,-917,-527,58,819,1112
-434,1049,1483,-307,-958,1266,-292,-936,-536,68,844,1141
-419,1102,1522,-341,-971,1312,-292,-956,-546,68,858,1161
-405,1156,1561,-375,-983,1359,-292,-976,-556,68,873,1180
-390,1210,1600,-409,-995,1405,-292,-995,-566,68,888,1200
-414,1234,1649,-409,-1032,1442,-312,-1024,-585,78,907,1224
-429,1249,1678,-409,-1054,1464,-331,-1054,-605,78,927,1249
-444,1263,1708,-409,-1076,1485,-351,-1083,-624,78,946,1273
-458,1278,1737,-409,-1098,1507,-370,-1112,-644,78,966,1298
-444,1307,1751,-431,-1098,1529,-385,-1141,-658,92,985,1317
-439,1337,1776,-448,-1107,1556,-390,-1161,-663,97,1005,1337
-434,1366,1800,-466,-1117,1583,-395,-1180,-668,102,1024,1356
-429,1395,1825,-483,-1127,1610,-400,-1200,-673,107,1044,1376
-429,1415,1844,-492,-1137,1629,-414,-1215,-668,136,1083,1420
-429,1434,1864,-502,-1146,1649,-419,-1220,-663,156,1122,1454
-429,1454,1883,-512,-1156,1668,-424,-1224,-658,175,1161,1488
-429,1473,1903,-522,-1166,1688,-429,-1229,-653,195,1200,1522
-419,1483,1903,-531,-1161,1693,-439,-1234,-644,204,1190,1512
-409,1493,1903,-541,-1156,1698,-439,-1239,-634,214,1190,1512
-400,1503,1903,-551,-1151,1703,-439,-1244,-624,224,1190,1512
-390,1512,1903,-561,-1146,1708,-439,-1249,-614,234,1190,1512
-400,1507,1908,-553,-1154,1708,-448,-1229,-585,263,1205,1498
-400,1503,1903,-551,-1151,1703,-448,-1220,-566,283,1210,1493
-400,1498,1898,-549,-1149,1698,-448,-1210,-546,302,1215,1488
-400,1493,1893,-546,-1146,1693,-448,-1200,-527,322,1220,1483
-375,1503,1878,-563,-1127,1690,-439,-1161,-483,351,1239,1473
-361,1512,1873,-575,-1117,1693,-429,-1132,-448,380,1259,1473
-346,1522,1869,-588,-1107,1695,-419,-1102,-414,409,1278,1473
-331,1532,1864,-600,-1098,1698,-409,-1073,-380,439,1298,1473
-322,1507,1830,-592,-1076,1668,-395,-1024,-326,478,1302,1449
-312,1493,1805,-590,-1058,1649,-380,-976,-283,507,1307,1434
-302,1478,1781,-588,-1041,1629,-366,-927,-239,536,1312,1420
-292,1464,1756,-585,-1024,1610,-351,-878,-195,566,1317,1405
-302,1400,1703,-549,-1002,1551,-346,-829,-156,575,1307,1376
-302,1346,1649,-522,-976,1498,-341,-790,-126,585,1298,1346
-302,1293,1595,-495,-949,1444,-336,-751,-97,595,1288,1317
-302,1239,1542,-468,-922,1390,-331,-712,-68,605,1278,1288
-268,1229,1498,-480,-883,1363,-302,-649,-14,629,1259,1249
-244,1229,1473,-492,-858,1351,-283,-595,29,644,1239,1220
-219,1229,1449,-505,-834,1339,-263,-541,73,658,1220,1190
-195,1229,1424,-517,-810,1327,-244,-488,117,673,1200,1161
-195,1176,1371,-490,-783,1273,-234,-444,146,673,1180,1117
-195,1122,1317,-463,-756,1220,-224,-400,165,673,1161,1083
-195,1068,1263,-436,-729,1166,-214,-356,185,673,1141,1049
-195,1015,1210,-409,-702,1112,-204,-312,204,673,1122,1015
-190,985,1176,-397,-683,1080,-180,-263,234,658,1078,966
-185,956,1141,-385,-663,1049,-165,-214,263,653,1044,927
-180,927,1107,-373,-644,1017,-151,-165,292,649,1010,888
-175,897,1073,-361,-624,985,-136,-117,322,644,976,849
-170,849,1019,-339,-595,934,-122,-82,336,634,961,814
-165,810,976,-322,-570,893,-107,-48,351,634,956,790
-161,771,932,-305,-546,851,-92,-14,366,634,951,766
-156,732,888,-287,-522,810,-78,19,380,634,946,741
-146,697,844,-275,-495,771,-68,48,370,614,907,702
-136,673,810,-268,-473,741,-58,68,370,595,868,663
-126,649,775,-261,-451,712,-48,87,370,575,829,624
-117,624,741,-253,-429,683,-39,107,370,556,790,585
-131,575,707,-222,-419,641,-19,126,361,531,766,556
-136,527,663,-195,-400,595,-9,136,361,517,741,527
-141,478,619,-168,-380,549,0,146,361,502,717,497
-146,429,575,-141,-361,502,9,156,361,488,692,468
-126,395,522,-134,-324,458,19,170,341,458,644,429
-117,370,488,-126,-302,429,19,175,331,429,605,390
-107,346,453,-119,-280,400,19,180,322,400,566,351
-97,322,419,-112,-258,370,19,185,312,370,527,312
-92,336,429,-122,-261,383,29,190,312,370,531,322
-87,341,429,-126,-258,385,39,195,312,370,536,322
-82,346,429,-131,-256,387,48,200,312,370,541,322
-78,351,429,-136,-253,390,58,204,312,370,546,322
-107,297,405,-95,-256,351,53,180,283,351,522,292
-136,253,390,-58,-263,322,48,165,263,331,507,273
-165,209,375,-21,-270,292,43,151,244,312,492,253
-195,165,361,14,-278,263,39,136,224,292,478,234
-170,151,322,9,-246,236,39,131,214,287,463,214
-156,146,302,4,-229,224,39,126,214,283,448,195
-141,141,283,0,-212,212,39,122,214,278,434,175
-126,136,263,-4,-195,200,39,117,214,273,419,156
-131,122,253,4,-192,187,29,107,195,244,400,146
-136,107,244,14,-190,175,29,97,185,224,380,136
-141,92,234,24,-187,163,29,87,175,204,361,126
-146,78,224,34,-185,151,29,78,165,185,341,117
-146,87,234,29,-190,161,29,68,161,175,336,112
-146,87,234,29,-190,161,29,68,156,175,331,107
-146,87,234,29,-190,161,29,68,151,175,326,102
-146,87,234,29,-190,161,29,68,146,175,322,97
-156,78,234,39,-195,156,29,58,136,175,331,97
-156,78,234,39,-195,156,29,58,136,175,341,97
-156,78,234,39,-195,156,29,58,136,175,351,97
-156,78,234,39,-195,156,29,58,136,175,361,97
-170,53,224,58,-197,139,9,39,122,165,341,73
-175,39,214,68,-195,126,0,19,107,156,322,58
-180,24,204,78,-192,114,-9,0,92,146,302,43
-185,9,195,87,-190,102,-19,-19,78,136,283,29
-165,19,185,73,-175,102,0,-4,97,141,297,39
-146,19,165,63,-156,92,9,9,107,146,302,39
-126,19,146,53,-136,82,19,24,117,151,307,39
-107,19,126,43,-117,73,29,39,126,156,312,39
-92,39,131,26,-112,85,29,34,122,146,302,48
-87,48,136,19,-112,92,29,29,117,146,302,48
-82,58,141,12,-112,100,29,24,112,146,302,48
-78,68,146,4,-112,107,29,19,107,146,302,48
-82,53,136,14,-109,95,14,19,97,146,312,58
-87,48,136,19,-112,92,9,19,97,146,312,58
-92,43,136,24,-114,90,4,19,97,146,312,58
-97,39,136,29,-117,87,0,19,97,146,312,58
-107,29,136,39,-122,82,4,9,97,141,302,39
-117,29,146,43,-131,87,9,9,97,136,292,29
-126,29,156,48,-141,92,14,9,97,131,283,19
-136,29,165,53,-151,97,19,9,97,126,273,9
-136,9,146,63,-141,78,9,9,92,117,273,19
-136,0,136,68,-136,68,9,9,87,117,273,19
-136,-9,126,73,-131,58,9,9,82,117,273,19
-136,-19,117,78,-126,48,9,9,78,117,273,19
-131,9,141,61,-136,75,24,19,92,131,287,29
-126,29,156,48,-141,92,29,19,97,136,292,39
-122,48,170,36,-146,109,34,19,102,141,297,48
-117,68,185,24,-151,126,39,19,107,146,302,58
-126,43,170,41,-148,107,29,29,107,141,287,39
-136,19,156,58,-146,87,29,29,107,136,283,29
-146,-4,141,75,-143,68,29,29,107,131,278,19
-156,-29,126,92,-141,48,29,29,107,126,273,9
-146,-29,117,87,-131,43,29,24,102,117,273,0
-146,-29,117,87,-131,43,29,19,97,117,273,0
-146,-29,117,87,-131,43,29,14,92,117,273,0
-146,-29,117,87,-131,43,29,9,87,117,273,0
-141,-19,122,80,-131,51,24,0,78,126,287,4
-136,-9,126,73,-131,58,19,0,78,126,292,9
-131,0,131,65,-131,65,14,0,78,126,297,14
-126,9,136,58,-131,73,9,0,78,126,302,19
-126,4,131,61,-129,68,19,9,87,117,287,14
-126,0,126,63,-126,63,19,9,87,117,283,9
-126,-4,122,65,-124,58,19,9,87,117,278,4
-126,-9,117,68,-122,53,19,9,87,117,273,0
-122,-9,112,65,-117,51,14,9,87,117,263,0
-117,-9,107,63,-112,48,9,9,87,117,263,0
-112,-9,102,61,-107,46,4,9,87,117,263,0
-107,-9,97,58,-102,43,0,9,87,117,263,0
-112,-9,102,61,-107,46,4,9,78,107,268,4
-117,-9,107,63,-112,48,9,9,78,107,273,9
-122,-9,112,65,-117,51,14,9,78,107,278,14
-126,-9,117,68,-122,53,19,9,78,107,283,19
-126,0,126,63,-126,63,19,9,87,117,273,19
-126,0,126,63,-126,63,19,9,87,117,273,19
-126,0,126,63,-126,63,19,9,87,117,273,19
-126,0,126,63,-126,63,19,9,87,117,273,19
-102,14,117,43,-109,65,34,24,102,122,287,24
-87,19,107,34,-97,63,39,29,107,126,292,29
-73,24,97,24,-85,61,43,34,112,131,297,34
-58,29,87,14,-73,58,48,39,117,136,302,39
-73,19,92,26,-82,56,43,34,112,136,302,29
-87,19,107,34,-97,63,39,29,107,136,302,29
-102,19,122,41,-112,70,34,24,102,136,302,29
-117,19,136,48,-126,78,29,19,97,136,302,29
-107,9,117,48,-112,63,29,29,97,122,297,24
-107,9,117,48,-112,63,29,29,97,117,292,19
-107,9,117,48,-112,63,29,29,97,112,287,14
-107,9,117,48,-112,63,29,29,97,107,283,9
-122,14,136,53,-129,75,29,19,87,117,283,9
-126,19,146,53,-136,82,29,19,87,117,283,9
-131,24,156,53,-143,90,29,19,87,117,283,9
-136,29,165,53,-151,97,29,19,87,117,283,9
-141,19,161,61,-151,90,39,34,102,122,297,14
-146,9,156,68,-151,82,39,39,107,126,302,19
-151,0,151,75,-151,75,39,43,112,131,307,24
-156,-9,146,82,-151,68,39,48,117,136,312,29
-141,0,141,70,-141,70,34,43,102,126,292,14
-126,0,126,63,-126,63,29,39,97,117,283,9
-112,0,112,56,-112,56,24,34,92,107,273,4
-97,0,97,48,-97,48,19,29,87,97,263,0
-107,4,112,51,-109,58,19,29,92,102,268,9
-107,9,117,48,-112,63,19,29,97,107,273,9
-107,14,122,46,-114,68,19,29,102,112,278,9
-107,19,126,43,-117,73,19,29,107,117,283,9
-107,24,131,41,-119,78,19,29,107,117,283,9
-107,29,136,39,-122,82,19,29,107,117,283,9
-107,34,141,36,-124,87,19,29,107,117,283,9
-107,39,146,34,-126,92,19,29,107,117,283,9
-117,19,136,48,-126,78,34,34,117,122,287,19
-126,9,136,58,-131,73,39,39,117,126,292,19
-136,0,136,68,-136,68,43,43,117,131,297,19
-146,-9,136,78,-141,63,48,48,117,136,302,19
-126,14,141,56,-134,78,48,53,122,146,302,19
-107,29,136,39,-122,82,48,58,126,146,302,19
-78,63,141,7,-109,102,48,63,131,165,317,29
-43,82,126,-19,-85,104,39,63,131,165,317,34
-87,92,180,-2,-134,136,43,63,146,170,331,53
-122,97,219,12,-170,158,58,78,156,175,351,68
-126,126,253,0,-190,190,68,87,165,185,356,73
-146,141,287,2,-217,214,82,87,185,190,361,78
-117,156,273,-19,-195,214,87,97,195,200,351,82
-102,165,268,-31,-185,217,87,87,195,204,370,87
-87,170,258,-41,-173,214,73,82,190,204,380,87
-87,156,244,-34,-165,200,68,82,185,195,385,92
-117,136,253,-9,-185,195,58,73,175,190,375,82
-87,146,234,-29,-161,190,39,73,180,200,370,78
-43,161,204,-58,-124,183,29,68,180,204,380,87
-58,161,219,-51,-139,190,4,58,180,200,375,87
-82,122,204,-19,-143,163,4,78,200,214,395,117
-82,126,209,-21,-146,168,9,92,209,214,395,117
-73,126,200,-26,-136,163,4,82,200,214,375,97
-87,131,219,-21,-153,175,0,78,190,204,375,92
-82,151,234,-34,-158,192,-24,63,185,204,375,92
-82,141,224,-29,-153,183,-48,48,165,185,370,92
-68,141,209,-36,-139,175,-58,34,151,170,356,87
-43,146,190,-51,-117,168,-63,34,146,165,351,87
