I,II,III,aVR,aVL,aVF,V1,V2,V3,V4,V5,V6
-39,0,39,19,-39,19,14,-19,-24,-122,-87,-29
-40,0,40,20,-40,20,12,-18,-21,-116,-78,-22
-39,0,39,19,-39,19,9,-18,-19,-107,-73,-19
-36,0,36,18,-36,18,5,-19,-16,-96,-68,-16
-34,3,37,15,-35,20,4,-19,-14,-87,-63,-14
-33,10,43,11,-38,26,3,-16,-11,-79,-55,-11
-33,18,51,7,-42,34,4,-14,-9,-73,-48,-9
-33,28,61,2,-47,44,3,-11,-6,-67,-43,-6
-33,33,66,0,-49,49,3,-9,-4,-63,-39,-4
-34,32,66,1,-50,49,6,-8,-1,-57,-34,0
-34,29,63,2,-48,46,8,-8,0,-53,-29,3
-31,28,59,1,-45,43,9,-9,1,-50,-24,9
-29,29,58,0,-43,43,8,-9,3,-48,-19,13
-28,27,55,0,-41,41,10,-4,8,-41,-13,14
-28,24,52,2,-40,38,13,0,13,-34,-9,14
-29,21,50,4,-39,35,17,2,19,-28,-5,14
-29,19,48,5,-38,33,19,3,23,-24,-4,14
-28,16,44,6,-36,30,17,7,28,-19,-3,12
-28,14,42,7,-35,28,14,13,33,-14,-3,9
-29,11,40,9,-34,25,12,22,40,-6,-4,6
-29,9,38,10,-33,23,13,28,47,0,-4,4
-28,4,32,12,-30,18,18,32,56,4,-2,3
-28,0,28,14,-28,14,23,33,67,8,0,3
-28,-4,24,16,-26,10,27,36,81,14,2,4
-28,-8,20,18,-24,6,28,38,91,18,3,4
-29,-11,18,20,-23,3,29,40,96,21,4,0
-29,-13,16,21,-22,1,29,42,96,23,3,-3
-28,-16,12,22,-20,-2,27,48,98,26,4,-6
-28,-18,10,23,-19,-4,28,52,101,28,4,-8
-29,-23,6,26,-17,-8,36,54,107,29,0,-11
-29,-28,1,28,-15,-13,47,53,111,29,-3,-13
-28,-34,-6,31,-11,-20,57,51,114,28,-7,-17
-28,-38,-10,33,-9,-24,62,52,116,28,-8,-18
-31,-41,-10,36,-10,-25,63,57,120,31,-9,-18
-33,-42,-9,37,-12,-25,63,62,125,33,-8,-18
-34,-45,-11,39,-11,-28,64,68,133,36,-9,-21
-34,-47,-13,40,-10,-30,67,72,140,38,-9,-23
-32,-48,-16,40,-8,-32,73,77,148,40,-7,-24
-29,-47,-18,38,-5,-32,77,81,155,42,-8,-23
-24,-48,-24,36,0,-36,80,86,161,48,-15,-25
-23,-48,-25,35,1,-36,81,87,161,48,-23,-28
-30,-45,-15,37,-7,-30,86,79,153,33,-32,-35
-38,-43,-5,40,-16,-24,91,68,141,9,-42,-42
-43,-43,0,43,-21,-21,97,54,125,-16,-54,-47
-47,-43,4,45,-25,-19,101,39,102,-42,-67,-52
-57,-39,18,48,-37,-10,103,20,69,-70,-80,-60
-67,-34,33,50,-50,0,102,4,34,-96,-91,-67
-75,-28,47,51,-61,9,97,-7,8,-118,-101,-69
-77,-24,53,50,-65,14,92,-13,-3,-130,-102,-63
-75,-22,53,48,-64,15,87,-17,-1,-130,-88,-46
-68,-19,49,43,-58,15,78,-23,3,-117,-58,-19
-56,-11,45,33,-50,17,59,-32,3,-89,-13,15
-39,-4,35,21,-37,15,39,-24,23,-43,42,52
-17,-2,15,9,-16,6,26,14,82,23,106,88
3,-3,-6,0,4,-4,14,57,130,96,174,121
20,-3,-23,-8,21,-13,-3,75,114,161,243,155
38,-3,-41,-17,39,-22,-23,68,43,228,316,194
62,-10,-72,-26,67,-41,-42,44,-55,305,394,242
86,-28,-114,-29,100,-71,-57,14,-173,379,467,286
107,-62,-169,-22,138,-115,-71,-15,-303,435,524,316
130,-96,-226,-17,178,-161,-91,-47,-446,491,579,340
163,-116,-279,-23,221,-197,-124,-85,-596,565,647,370
194,-125,-319,-34,256,-222,-164,-130,-730,661,726,404
213,-131,-344,-41,278,-237,-201,-186,-830,770,799,435
218,-126,-344,-46,281,-235,-233,-261,-925,833,838,452
215,-101,-316,-57,265,-208,-259,-362,-1046,803,818,447
209,-68,-277,-70,243,-172,-282,-466,-1169,718,761,429
203,-41,-244,-81,223,-142,-306,-552,-1266,628,699,412
200,-24,-224,-88,212,-124,-330,-613,-1331,537,644,400
199,-15,-214,-92,206,-114,-355,-647,-1364,435,602,391
200,-18,-218,-91,209,-118,-374,-653,-1361,332,566,385
198,-35,-233,-81,215,-134,-384,-630,-1321,232,526,375
199,-67,-266,-66,232,-166,-380,-585,-1259,118,469,356
208,-109,-317,-49,262,-213,-361,-529,-1191,-25,383,324
214,-145,-359,-34,286,-252,-336,-473,-1122,-182,288,287
205,-159,-364,-23,284,-261,-310,-427,-1057,-328,202,255
185,-156,-341,-14,263,-248,-283,-395,-991,-437,118,219
156,-144,-300,-6,228,-222,-251,-375,-917,-493,24,170
122,-126,-248,2,185,-187,-214,-356,-830,-511,-66,112
84,-102,-186,9,135,-144,-173,-325,-724,-510,-140,53
48,-73,-121,12,84,-97,-131,-283,-592,-478,-184,4
20,-42,-62,11,41,-52,-90,-235,-434,-408,-191,-25
0,-14,-14,7,7,-14,-53,-180,-275,-318,-170,-38
-12,8,20,2,-16,14,-24,-123,-142,-233,-133,-39
-18,23,41,-2,-29,32,0,-68,-40,-157,-97,-34
-21,32,53,-5,-37,42,20,-23,33,-91,-73,-29
-23,34,57,-5,-40,45,38,13,86,-39,-58,-24
-31,28,59,1,-45,43,52,42,125,-5,-45,-15
-38,19,57,9,-47,38,62,62,155,13,-34,-9
-40,8,48,16,-44,28,69,73,178,25,-22,-8
-39,0,39,19,-39,19,72,81,199,33,-14,-9
-36,-3,33,19,-34,15,73,94,221,43,-10,-6
-34,-3,31,18,-32,14,73,106,238,52,-9,-4
-33,-4,29,18,-31,12,73,114,244,57,-8,-5
-34,-4,30,19,-32,13,73,116,243,58,-8,-8
-33,-1,32,17,-32,15,72,117,245,55,-10,-11
-33,0,33,16,-33,16,72,117,247,53,-13,-13
-36,-2,34,19,-35,16,76,117,247,50,-16,-16
-38,-8,30,23,-34,11,81,117,247,48,-18,-18
-39,-16,23,27,-31,3,87,116,252,44,-19,-19
-39,-23,16,31,-27,-3,91,116,257,43,-19,-18
-39,-27,12,33,-25,-7,94,119,259,44,-19,-20
-39,-28,11,33,-25,-8,96,121,258,47,-19,-23
-38,-30,8,34,-23,-11,101,123,256,50,-17,-26
-38,-33,5,35,-21,-14,106,122,253,48,-18,-28
-42,-37,5,39,-23,-16,109,118,246,39,-25,-31
-47,-42,5,44,-26,-18,111,112,239,29,-33,-33
-50,-48,2,49,-26,-23,114,106,233,20,-41,-36
-52,-52,0,52,-26,-26,116,102,229,14,-47,-38
-55,-55,0,55,-27,-27,117,101,224,9,-54,-43
-57,-57,0,57,-28,-28,116,102,219,4,-62,-47
-60,-61,-1,60,-29,-31,118,99,210,-3,-71,-51
-62,-63,-1,62,-30,-32,121,97,204,-8,-77,-52
-63,-61,2,62,-32,-29,124,96,202,-9,-79,-54
-63,-58,5,60,-34,-26,125,96,203,-8,-78,-57
-63,-57,6,60,-34,-25,126,97,203,-10,-77,-63
-63,-57,6,60,-34,-25,125,97,203,-13,-77,-67
-62,-59,3,60,-32,-28,126,96,206,-16,-77,-69
-62,-62,0,62,-31,-31,126,96,208,-18,-77,-68
-65,-68,-3,66,-31,-35,124,97,209,-21,-79,-67
-67,-72,-5,69,-31,-38,122,96,209,-23,-81,-67
-68,-72,-4,70,-32,-38,121,97,208,-24,-84,-70
-68,-68,0,68,-34,-34,121,97,208,-23,-86,-72
-67,-62,5,64,-36,-28,122,96,209,-25,-89,-73
-67,-58,9,62,-38,-24,122,96,209,-28,-91,-73
-68,-56,12,62,-40,-22,121,97,206,-31,-91,-70
-68,-57,11,62,-39,-23,121,97,204,-33,-91,-68
-67,-60,7,63,-37,-26,122,94,203,-36,-94,-67
-67,-62,5,64,-36,-28,122,92,203,-38,-96,-67
-68,-63,5,65,-36,-29,120,91,204,-41,-95,-68
-68,-62,6,65,-37,-28,117,91,204,-42,-92,-68
-67,-63,4,65,-35,-29,113,91,202,-43,-91,-67
-67,-63,4,65,-35,-29,112,91,200,-43,-91,-67
-68,-58,10,63,-39,-24,112,94,199,-41,-92,-68
-68,-53,15,60,-41,-19,112,96,199,-39,-92,-68
-65,-49,16,57,-40,-16,109,97,202,-35,-89,-67
-63,-48,15,55,-39,-16,107,97,203,-33,-87,-67
-62,-47,15,54,-38,-16,106,96,202,-36,-88,-68
-63,-47,16,55,-39,-15,106,96,200,-42,-91,-68
-60,-48,12,54,-36,-18,107,97,197,-49,-92,-65
-58,-48,10,53,-34,-19,107,97,195,-52,-92,-63
-57,-45,12,51,-34,-16,104,96,192,-51,-91,-62
-57,-43,14,50,-35,-14,102,96,190,-48,-91,-62
-58,-42,16,50,-37,-13,101,97,187,-46,-92,-63
-58,-42,16,50,-37,-13,101,97,185,-47,-92,-63
-57,-43,14,50,-35,-14,102,94,180,-52,-91,-62
-57,-43,14,50,-35,-14,102,92,175,-57,-91,-62
-58,-42,16,50,-37,-13,99,89,169,-60,-94,-65
-58,-42,16,50,-37,-13,97,87,165,-62,-96,-67
-57,-43,14,50,-35,-14,96,84,162,-65,-98,-69
-57,-43,14,50,-35,-14,96,82,161,-67,-97,-68
-58,-41,17,49,-37,-12,97,79,159,-68,-94,-65
-58,-39,19,48,-38,-10,97,78,156,-68,-92,-63
-55,-36,19,45,-37,-8,95,78,151,-65,-92,-62
-53,-34,19,43,-36,-7,92,78,146,-63,-92,-63
-52,-31,21,41,-36,-5,86,75,143,-63,-86,-62
-53,-29,24,41,-38,-2,82,73,141,-63,-78,-58
-51,-26,25,38,-38,0,83,71,138,-58,-70,-50
-48,-24,24,36,-36,0,86,72,136,-53,-63,-43
-45,-21,24,33,-34,1,85,76,133,-48,-54,-37
-43,-19,24,31,-33,2,82,78,131,-43,-48,-34
-41,-14,27,27,-34,6,79,75,129,-36,-45,-29
-39,-9,30,24,-34,10,78,73,130,-29,-43,-24
-36,-4,32,20,-34,14,77,73,134,-23,-38,-18
-34,0,34,17,-34,17,77,73,136,-19,-34,-14
-33,2,35,15,-34,18,79,68,130,-16,-34,-13
-34,3,37,15,-35,20,81,63,122,-14,-34,-14
-32,3,35,14,-33,19,82,62,115,-11,-27,-12
-29,3,32,13,-30,17,82,63,112,-9,-19,-9
-25,6,31,9,-28,18,80,60,113,-6,-12,-6
-24,8,32,8,-28,20,78,58,116,-4,-9,-4
-24,9,33,7,-28,21,75,57,118,-1,-6,-2
-24,9,33,7,-28,21,73,57,117,0,-4,0
-21,8,29,6,-25,18,70,59,112,0,-1,4
-19,8,27,5,-23,17,68,58,107,0,0,8
-18,9,27,4,-22,18,68,53,104,0,0,9
-18,9,27,4,-22,18,68,48,102,0,0,8
-19,9,28,5,-23,18,65,44,95,2,4,10
-19,9,28,5,-23,18,63,43,87,4,8,13
-18,8,26,5,-22,17,62,42,83,2,7,17
-18,8,26,5,-22,17,63,42,82,0,4,19
-19,9,28,5,-23,18,60,45,82,1,5,17
-19,9,28,5,-23,18,58,47,82,3,8,14
-15,7,22,4,-18,14,57,48,81,5,10,11
-13,4,17,4,-15,10,57,48,78,4,9,9
-17,0,17,8,-17,8,58,47,72,1,5,6
-23,-3,20,13,-21,8,58,47,68,0,0,4
-30,-11,19,20,-24,4,57,49,65,0,-7,4
-33,-18,15,25,-24,-1,57,48,63,0,-13,4
-32,-24,8,28,-20,-8,59,41,56,-5,-14,0
-29,-28,1,28,-15,-13,62,34,48,-13,-13,-3
-27,-32,-5,29,-11,-18,65,29,43,-18,-18,-7
-28,-33,-5,30,-11,-19,67,28,42,-19,-23,-8
-31,-33,-2,32,-14,-17,68,31,46,-14,-25,-9
-33,-33,0,33,-16,-16,68,33,52,-9,-24,-9
-34,-36,-2,35,-16,-19,67,36,58,-5,-23,-8
-34,-38,-4,36,-15,-21,68,38,62,-4,-23,-8
-33,-39,-6,36,-13,-22,67,43,65,-2,-24,-10
-33,-38,-5,35,-14,-21,67,47,67,0,-24,-13
-34,-40,-6,37,-14,-23,68,48,69,1,-24,-16
-34,-42,-8,38,-13,-25,68,48,72,3,-24,-18
-33,-45,-12,39,-10,-28,65,49,80,6,-23,-19
-33,-47,-14,40,-9,-30,63,52,91,8,-23,-19
-34,-48,-14,41,-10,-31,64,58,103,9,-24,-19
-34,-48,-14,41,-10,-31,67,62,111,8,-24,-19
-31,-47,-16,39,-7,-31,68,63,113,10,-21,-18
-29,-47,-18,38,-5,-32,67,62,112,13,-19,-18
-28,-50,-22,39,-3,-36,68,64,113,17,-18,-21
-28,-52,-24,40,-2,-38,68,67,116,18,-18,-23
-29,-51,-22,40,-3,-36,64,70,120,17,-21,-24
-28,-48,-20,38,-4,-34,58,72,125,14,-23,-23
-29,-47,-18,38,-5,-32,52,75,131,10,-26,-26
-29,-47,-18,38,-5,-32,48,77,135,9,-28,-28
-27,-48,-21,37,-3,-34,47,78,136,8,-29,-29
-24,-48,-24,36,0,-36,47,78,136,8,-29,-29
-21,-47,-26,34,2,-36,48,77,135,8,-28,-28
-19,-47,-28,33,4,-37,47,77,135,8,-28,-28
-18,-48,-30,33,6,-39,48,78,136,9,-31,-31
-18,-48,-30,33,6,-39,48,78,136,9,-33,-33
-18,-45,-27,31,4,-36,45,77,133,5,-34,-34
-18,-43,-25,30,3,-34,43,77,131,0,-33,-34
-20,-42,-22,31,1,-32,41,78,130,-2,-36,-33
-23,-42,-19,32,-2,-30,39,78,130,-3,-38,-33
-26,-43,-17,34,-4,-30,33,75,131,-3,-39,-34
-28,-43,-15,35,-6,-29,29,73,131,-3,-39,-34
-29,-42,-13,35,-8,-27,28,72,130,-5,-38,-33
-29,-42,-13,35,-8,-27,28,72,130,-8,-39,-33
-27,-43,-16,35,-5,-29,28,73,133,-14,-38,-34
-24,-43,-19,33,-2,-31,28,73,135,-18,-38,-34
-19,-42,-23,30,2,-32,31,72,136,-19,-40,-31
-14,-42,-28,28,7,-35,33,72,136,-19,-42,-29
-10,-43,-33,26,11,-38,34,73,133,-18,-43,-28
-9,-43,-34,26,12,-38,34,73,131,-18,-43,-28
-8,-41,-33,24,12,-37,33,72,128,-19,-42,-29
-8,-39,-31,23,11,-35,33,72,126,-19,-42,-28
-9,-36,-27,22,9,-31,35,73,125,-16,-42,-29
-9,-34,-25,21,8,-29,34,73,125,-14,-42,-29
-8,-31,-23,19,7,-27,27,72,125,-13,-43,-27
-9,-29,-20,19,5,-24,19,72,125,-14,-43,-24
-8,-26,-18,17,5,-22,14,73,127,-12,-41,-18
-8,-24,-16,16,4,-20,13,73,130,-9,-39,-14
-9,-19,-10,14,0,-14,15,72,133,-6,-36,-13
-9,-14,-5,11,-2,-9,18,72,135,-4,-34,-14
-8,-8,0,8,-4,-4,21,73,136,-3,-32,-11
-8,-4,4,6,-6,0,23,73,135,-3,-29,-9
-11,-1,10,6,-10,4,26,72,137,-4,-24,-8
-13,0,13,6,-13,6,28,72,140,-4,-19,-8
-14,1,15,6,-14,8,31,75,146,-2,-15,-9
-14,3,17,5,-15,10,33,77,150,0,-14,-9
-13,6,19,3,-16,12,34,78,152,1,-14,-6
-13,8,21,2,-17,14,34,78,151,3,-14,-4
-16,8,24,4,-20,16,33,77,150,8,-12,-2
-18,8,26,5,-22,17,33,77,150,13,-9,0
-18,12,30,3,-24,21,34,78,154,16,-5,2
-14,18,32,-2,-23,25,34,78,160,18,-4,3
-8,27,35,-9,-21,31,33,77,166,23,-4,3
-4,33,37,-14,-20,35,33,77,169,28,-4,3
-3,35,38,-16,-20,36,34,78,170,32,0,5
-3,34,37,-15,-20,35,34,78,170,33,3,8
-4,34,38,-15,-21,36,33,77,169,33,7,11
-3,34,37,-15,-20,35,33,77,169,33,8,13
-4,31,35,-13,-19,33,34,78,170,36,9,14
-4,29,33,-12,-18,31,34,78,170,38,9,14
-2,28,30,-13,-16,29,31,77,169,39,8,13
0,28,28,-14,-14,28,29,77,169,38,8,14
0,28,28,-14,-14,28,28,79,171,40,11,13
0,28,28,-14,-14,28,28,81,174,42,13,13
0,30,30,-15,-15,30,29,82,179,44,14,14
0,29,29,-14,-14,29,29,82,180,43,14,14
-3,23,26,-10,-14,24,28,80,174,39,12,10
-8,14,22,-3,-15,18,28,78,165,34,9,4
-14,5,19,4,-16,12,30,77,159,30,6,0
-18,0,18,9,-18,9,33,77,156,29,4,-3
-19,-1,18,10,-18,8,36,78,155,28,3,-4
-19,0,19,9,-19,9,38,78,155,29,3,-4
-19,1,20,9,-19,10,39,77,158,28,4,-3
-19,0,19,9,-19,9,39,77,160,28,4,-3
-17,-5,12,11,-14,3,38,78,162,30,3,-6
-14,-13,1,13,-7,-6,39,81,164,33,3,-8
-11,-22,-11,16,0,-16,38,87,167,36,4,-9
-9,-28,-19,18,5,-23,38,91,169,38,4,-9
-8,-30,-22,19,7,-26,40,92,172,39,2,-8
-9,-29,-20,19,5,-24,42,92,174,39,0,-8
-8,-28,-20,18,6,-24,44,91,175,38,0,-9
-8,-28,-20,18,6,-24,43,91,175,38,0,-9
-11,-30,-19,20,4,-24,39,92,174,40,0,-8
-13,-33,-20,23,3,-26,34,92,174,42,0,-8
-14,-36,-22,25,4,-29,30,91,176,46,0,-11
-14,-38,-24,26,5,-31,28,91,179,48,0,-13
-14,-39,-25,26,5,-32,31,92,182,45,1,-14
-14,-38,-24,26,5,-31,33,92,184,43,0,-13
-12,-40,-28,26,8,-34,34,90,184,42,-5,-14
-13,-39,-26,26,6,-32,33,87,180,39,-13,-18
-20,-32,-12,26,-4,-22,35,80,169,28,-20,-25
-28,-24,4,26,-16,-10,38,68,152,10,-28,-33
-34,-18,16,26,-25,-1,41,54,127,-12,-39,-39
-38,-14,24,26,-31,5,42,39,103,-33,-47,-42
-43,-7,36,25,-39,14,42,29,85,-43,-47,-44
-47,0,47,23,-47,23,39,24,73,-47,-43,-43
-49,6,55,21,-52,30,32,23,68,-51,-37,-37
-48,13,61,17,-54,37,24,23,72,-44,-25,-25
-41,21,62,10,-51,41,17,24,88,-13,3,-2
-29,33,62,-2,-45,47,5,24,110,39,49,31
-13,48,61,-17,-37,54,-16,24,131,107,113,74
7,62,55,-34,-24,58,-37,33,158,185,185,119
30,69,39,-49,-4,54,-51,52,194,264,255,158
51,72,21,-61,15,46,-62,67,201,341,326,192
68,77,9,-72,29,43,-79,59,146,413,401,228
85,81,-4,-83,44,38,-100,31,49,487,478,270
107,83,-24,-95,65,29,-123,-6,-56,566,553,318
129,74,-55,-101,92,9,-144,-50,-172,644,620,363
148,48,-100,-98,124,-26,-164,-96,-304,710,675,394
168,20,-148,-94,158,-64,-188,-143,-448,763,724,417
196,4,-192,-100,194,-94,-219,-190,-595,807,772,441
222,0,-222,-111,222,-111,-255,-244,-725,859,820,466
236,0,-236,-118,236,-118,-290,-312,-821,926,865,488
239,8,-231,-123,235,-111,-320,-394,-910,961,887,501
235,27,-208,-131,221,-90,-345,-485,-1022,916,871,499
229,51,-178,-140,203,-63,-368,-574,-1139,817,827,488
222,70,-152,-146,187,-41,-393,-649,-1231,705,772,476
219,81,-138,-150,178,-28,-417,-699,-1290,601,724,468
220,83,-137,-151,178,-27,-436,-716,-1313,511,697,464
223,74,-149,-148,186,-37,-447,-699,-1295,433,683,463
225,50,-175,-137,200,-62,-449,-650,-1238,359,668,459
228,11,-217,-119,222,-103,-440,-588,-1165,260,628,445
236,-36,-272,-100,254,-154,-419,-533,-1102,116,546,417
239,-79,-318,-80,278,-198,-391,-485,-1047,-47,449,386
228,-102,-330,-63,279,-216,-362,-445,-990,-196,366,362
205,-107,-312,-49,258,-209,-333,-415,-935,-315,279,329
176,-101,-277,-37,226,-189,-300,-396,-885,-400,168,268
143,-88,-231,-27,187,-159,-265,-376,-832,-459,50,190
106,-68,-174,-19,140,-121,-226,-345,-763,-498,-47,111
70,-44,-114,-13,92,-79,-182,-304,-657,-498,-113,46
41,-18,-59,-11,50,-38,-137,-258,-505,-443,-145,4
20,7,-13,-13,16,-3,-94,-207,-341,-361,-151,-17
6,27,21,-16,-7,24,-59,-153,-206,-286,-143,-29
0,42,42,-21,-21,42,-30,-100,-103,-218,-127,-33
-1,50,51,-24,-26,50,-5,-50,-23,-152,-107,-35
-3,53,56,-25,-29,54,17,-6,39,-95,-88,-34
-10,49,59,-19,-34,54,36,28,88,-57,-74,-31
-18,39,57,-10,-37,48,52,51,124,-35,-63,-29
-22,23,45,0,-33,34,63,64,148,-22,-52,-29
-23,5,28,9,-25,16,72,72,168,-14,-43,-29
-23,-7,16,15,-19,4,78,84,190,-5,-39,-26
-23,-13,10,18,-16,-1,81,96,208,3,-39,-23
-25,-15,10,20,-17,-2,84,103,212,10,-38,-27
-28,-14,14,21,-21,0,86,106,209,13,-38,-33
-31,-11,20,21,-25,4,89,107,208,14,-40,-38
-33,-9,24,21,-28,7,91,107,209,14,-42,-42
-36,-8,28,22,-32,10,94,105,206,13,-45,-46
-38,-8,30,23,-34,11,96,102,204,13,-47,-47
-39,-10,29,24,-34,9,99,99,205,14,-47,-48
-39,-13,26,26,-32,6,101,97,208,14,-47,-47
-38,-18,20,28,-29,1,101,97,210,12,-51,-49
-39,-23,16,31,-27,-3,101,97,209,9,-57,-52
-38,-29,9,33,-23,-10,104,94,206,4,-63,-55
-38,-33,5,35,-21,-14,106,92,204,0,-67,-57
-40,-34,6,37,-23,-14,105,91,203,-2,-68,-58
-42,-34,8,38,-25,-13,102,91,203,-3,-68,-58
-43,-34,9,38,-26,-12,99,91,205,-3,-67,-57
-43,-34,9,38,-26,-12,97,91,208,-3,-67,-57
-42,-32,10,37,-26,-11,96,94,211,-5,-69,-60
-42,-29,13,35,-27,-8,96,96,213,-8,-72,-62
-43,-26,17,34,-30,-4,98,97,214,-14,-75,-63
-43,-24,19,33,-31,-2,101,97,214,-18,-77,-63
-42,-21,21,31,-31,0,104,96,212,-19,-78,-62
-42,-19,23,30,-32,2,106,97,209,-18,-78,-62
-43,-19,24,31,-33,2,106,96,205,-21,-77,-65
-43,-19,24,31,-33,2,106,96,203,-23,-78,-67
-42,-16,26,29,-34,5,109,98,205,-24,-77,-68
-42,-14,28,28,-35,7,111,101,208,-24,-77,-68
-45,-12,33,28,-39,10,112,104,209,-24,-79,-67
-47,-13,34,30,-40,10,112,106,209,-24,-81,-67
-46,-16,30,31,-38,7,111,107,208,-21,-84,-70
-43,-18,25,30,-34,3,112,107,208,-19,-86,-72
-40,-19,21,29,-30,1,111,106,209,-18,-89,-73
-39,-19,20,29,-29,0,111,106,209,-18,-91,-73
-38,-18,20,28,-29,1,113,109,208,-21,-91,-72
-39,-18,21,28,-30,1,116,111,208,-23,-91,-72
-38,-21,17,29,-27,-2,119,112,210,-26,-94,-75
-38,-23,15,30,-26,-4,121,111,213,-28,-96,-77
-40,-24,16,32,-28,-4,123,113,216,-31,-97,-78
-42,-24,18,33,-30,-3,125,116,218,-33,-96,-78
-45,-23,22,34,-33,0,128,119,219,-33,-98,-77
-47,-24,23,35,-35,0,130,121,219,-33,-101,-77
-50,-23,27,36,-38,2,133,122,216,-35,-106,-79
-52,-23,29,37,-40,3,135,122,214,-38,-111,-81
-52,-26,26,39,-39,0,136,119,214,-40,-114,-83
-52,-28,24,40,-38,-2,136,117,214,-42,-116,-86
-55,-29,26,42,-40,-1,134,116,210,-46,-120,-91
-57,-29,28,43,-42,0,131,116,204,-52,-125,-96
-58,-29,29,43,-43,0,128,117,198,-58,-129,-100
-58,-29,29,43,-43,0,126,117,195,-62,-130,-101
-56,-26,30,41,-43,2,123,115,194,-63,-131,-102
-53,-24,29,38,-41,2,122,112,194,-62,-131,-101
-50,-23,27,36,-38,2,121,109,195,-64,-131,-102
-48,-24,24,36,-36,0,121,107,195,-67,-131,-102
-47,-22,25,34,-36,1,123,104,191,-72,-130,-99
-47,-19,28,33,-37,4,125,102,185,-77,-130,-97
-48,-16,32,32,-40,8,126,99,179,-79,-133,-96
-48,-14,34,31,-41,10,126,97,175,-81,-135,-96
-47,-13,34,30,-40,10,125,94,172,-86,-137,-97
-47,-14,33,30,-40,9,125,92,170,-91,-136,-97
-48,-12,36,30,-42,12,126,89,168,-95,-133,-94
-48,-9,39,28,-43,15,126,87,165,-97,-131,-92
-47,-5,42,26,-44,18,125,86,160,-94,-131,-91
-47,0,47,23,-47,23,122,87,156,-92,-131,-92
-50,4,54,23,-52,29,116,85,153,-92,-125,-91
-52,8,60,22,-56,34,112,82,151,-92,-117,-87
-53,11,64,21,-58,37,115,79,148,-88,-111,-80
-53,13,66,20,-59,39,121,78,146,-82,-107,-73
-53,15,68,19,-60,41,124,78,143,-77,-102,-67
-53,18,71,17,-62,44,122,78,141,-73,-97,-63
-51,25,76,13,-63,50,117,75,138,-68,-93,-58
-48,33,81,7,-64,57,112,73,136,-63,-87,-53
-45,41,86,2,-65,63,108,73,136,-60,-79,-47
-43,47,90,-2,-66,68,107,73,136,-58,-73,-43
-42,51,93,-4,-67,72,107,68,130,-55,-72,-42
-43,52,95,-4,-69,73,107,63,122,-53,-73,-43
-41,52,93,-5,-67,72,105,62,116,-50,-67,-41
-39,52,91,-6,-65,71,102,63,112,-48,-58,-39
-36,55,91,-9,-63,73,97,59,107,-45,-52,-36
-34,57,91,-11,-62,74,92,53,102,-43,-48,-34
-34,58,92,-12,-63,75,87,49,95,-40,-45,-32
-34,58,92,-12,-63,75,82,48,87,-39,-43,-29
-31,57,88,-13,-59,72,77,48,79,-38,-40,-23
-29,57,86,-14,-57,71,73,48,73,-38,-39,-19
-28,58,86,-15,-57,72,70,45,69,-40,-39,-18
-28,58,86,-15,-57,72,68,39,63,-39,-39,-19
-29,57,86,-14,-57,71,65,32,53,-34,-33,-17
-29,57,86,-14,-57,71,63,24,43,-29,-29,-14
-28,58,86,-15,-57,72,63,18,37,-28,-30,-11
-28,58,86,-15,-57,72,63,14,34,-28,-33,-9
-29,54,83,-12,-56,68,60,13,30,-28,-32,-8
-29,48,77,-9,-53,62,58,14,24,-28,-29,-9
-26,40,66,-7,-46,53,57,12,17,-31,-28,-8
-24,34,58,-5,-41,46,58,9,9,-33,-28,-8
-23,33,56,-5,-39,44,56,6,3,-35,-28,-11
-23,34,57,-5,-40,45,53,4,0,-34,-28,-13
-24,32,56,-4,-40,44,50,2,-1,-31,-32,-14
-24,29,53,-2,-38,41,48,0,-3,-28,-34,-14
-21,27,48,-3,-34,37,45,-2,-6,-30,-29,-14
-19,28,47,-4,-33,37,43,-3,-8,-33,-24,-14
-18,31,49,-6,-33,40,40,-2,-7,-33,-23,-11
-18,33,51,-7,-34,42,39,0,-4,-29,-24,-9
-19,33,52,-7,-35,42,38,2,-1,-24,-22,-8
-19,29,48,-5,-33,38,38,3,0,-19,-19,-8
-17,23,40,-3,-28,31,39,5,1,-16,-16,-9
-14,19,33,-2,-23,26,39,8,3,-14,-14,-9
-11,18,29,-3,-20,23,37,13,4,-9,-11,-8
-9,18,27,-4,-18,22,34,18,4,-4,-9,-8
-6,17,23,-5,-14,20,31,19,2,0,-6,-8
-4,14,18,-5,-11,16,29,19,3,3,-4,-8
-3,9,12,-3,-7,10,26,19,10,7,-3,-9
-3,4,7,0,-5,5,24,19,18,8,-3,-9
-4,2,6,1,-5,4,22,17,21,8,-4,-8
-4,0,4,2,-4,2,23,18,23,8,-4,-8
-3,-3,0,3,-1,-1,26,25,29,13,-3,-10
-3,-8,-5,5,1,-6,28,33,38,18,-3,-13
-4,-12,-8,8,2,-10,27,37,47,19,-4,-16
-4,-13,-9,8,2,-11,24,38,57,18,-4,-18
-3,-14,-11,8,4,-12,22,39,65,20,-2,-19
-3,-14,-11,8,4,-12,23,42,72,23,-3,-19
-4,-13,-9,8,2,-11,26,49,77,26,-9,-18
-4,-13,-9,8,2,-11,28,57,81,28,-13,-18
-2,-14,-12,8,5,-13,31,61,86,33,-11,-19
0,-13,-13,6,6,-13,33,62,91,38,-4,-19
0,-14,-14,7,7,-14,36,65,94,43,0,-16
0,-14,-14,7,7,-14,38,67,96,47,3,-14
0,-13,-13,6,6,-13,39,68,102,50,4,-13
0,-13,-13,6,6,-13,39,67,111,52,4,-13
0,-14,-14,7,7,-14,38,69,119,53,4,-14
0,-14,-14,7,7,-14,38,72,125,53,4,-14
0,-11,-11,5,5,-11,39,76,127,52,2,-13
0,-9,-9,4,4,-9,39,81,126,52,0,-13
0,-8,-8,4,4,-8,38,85,124,53,-2,-14
0,-8,-8,4,4,-8,38,86,125,53,-3,-14
-1,-10,-9,5,4,-9,39,85,129,52,-3,-13
-3,-13,-10,8,3,-11,39,82,135,52,-3,-13
-6,-16,-10,11,2,-13,38,79,141,55,-6,-16
-8,-18,-10,13,1,-14,38,77,145,57,-8,-18
-9,-19,-10,14,0,-14,40,80,148,58,-9,-19
-9,-19,-10,14,0,-14,42,86,150,58,-9,-19
-8,-18,-10,13,1,-14,44,92,153,57,-8,-18
-8,-18,-10,13,1,-14,47,96,155,57,-8,-18
-9,-19,-10,14,0,-14,52,97,158,57,-9,-20
-9,-19,-10,14,0,-14,57,97,160,57,-9,-23
-8,-18,-10,13,1,-14,62,96,162,58,-8,-26
-8,-18,-10,13,1,-14,67,96,164,58,-8,-28
-9,-20,-11,14,1,-15,72,98,167,56,-10,-29
-9,-23,-14,16,2,-18,77,101,169,53,-13,-29
-8,-26,-18,17,5,-22,82,104,172,50,-16,-28
-8,-28,-20,18,6,-24,86,106,174,48,-18,-28
-9,-29,-20,19,5,-24,87,107,177,47,-21,-29
-9,-29,-20,19,5,-24,87,107,179,47,-23,-29
-8,-28,-20,18,6,-24,87,106,182,48,-26,-28
-8,-28,-20,18,6,-24,87,106,184,48,-28,-28
-8,-29,-21,18,6,-25,85,107,185,46,-29,-29
-8,-29,-21,18,6,-25,82,107,185,43,-29,-29
-9,-29,-20,19,5,-24,80,106,184,40,-28,-28
-9,-29,-20,19,5,-24,78,106,184,39,-28,-28
-8,-28,-20,18,6,-24,75,106,185,38,-29,-29
-8,-28,-20,18,6,-24,73,106,185,38,-29,-29
-9,-29,-20,19,5,-24,70,107,184,39,-28,-28
-9,-29,-20,19,5,-24,68,107,184,39,-28,-28
-8,-27,-19,17,5,-23,65,106,185,37,-28,-30
-8,-24,-16,16,4,-20,63,106,185,34,-28,-33
-9,-22,-13,15,2,-17,60,107,184,31,-29,-36
-9,-19,-10,14,0,-14,58,107,184,29,-29,-38
-8,-14,-6,11,-1,-10,55,105,184,28,-28,-39
-8,-9,-1,8,-3,-5,53,102,184,28,-28,-38
-9,-5,4,7,-6,0,50,99,185,29,-29,-39
-9,0,9,4,-9,4,48,97,185,29,-29,-39
-7,7,14,0,-10,10,47,96,184,28,-27,-35
-4,17,21,-6,-12,19,47,96,184,28,-24,-29
-1,29,30,-14,-15,29,48,97,185,29,-21,-23
0,38,38,-19,-19,38,48,97,185,29,-19,-19
0,40,40,-20,-20,40,47,96,184,28,-18,-18
0,39,39,-19,-19,39,47,96,184,28,-18,-18
0,38,38,-19,-19,38,48,97,185,29,-18,-18
0,39,39,-19,-19,39,48,97,185,29,-18,-18
-1,37,38,-18,-19,37,46,96,183,27,-20,-20
-3,34,37,-15,-20,35,43,96,180,24,-23,-23
-6,31,37,-12,-21,34,40,97,177,21,-26,-26
-8,29,37,-10,-22,33,39,97,175,19,-28,-28
-9,28,37,-9,-23,32,38,95,172,16,-31,-29
-9,28,37,-9,-23,32,38,92,170,14,-33,-29
-8,29,37,-10,-22,33,39,89,167,11,-36,-28
-8,29,37,-10,-22,33,39,87,165,9,-38,-28
-9,28,37,-9,-23,32,35,83,161,6,-39,-30
-9,28,37,-9,-23,32,29,78,156,4,-39,-33
-8,29,37,-10,-22,33,23,72,150,1,-38,-36
-8,29,37,-10,-22,33,19,68,146,0,-38,-38
-9,27,36,-9,-22,31,18,67,145,0,-38,-39
-9,24,33,-7,-21,28,18,67,145,0,-38,-39
-8,21,29,-6,-18,25,19,68,145,0,-39,-39
-8,19,27,-5,-17,23,19,68,145,0,-39,-39
-9,18,27,-4,-18,22,18,68,147,1,-37,-37
-9,18,27,-4,-18,22,18,68,150,3,-34,-34
-8,19,27,-5,-17,23,19,67,153,6,-31,-31
-8,19,27,-5,-17,23,19,67,155,8,-29,-29
-8,18,26,-5,-17,22,18,69,156,11,-28,-28
-8,18,26,-5,-17,22,18,72,156,13,-28,-28
-9,19,28,-5,-18,23,19,75,155,16,-29,-29
-9,19,28,-5,-18,23,19,77,155,18,-29,-29
-8,18,26,-5,-17,22,18,79,159,21,-27,-28
-8,18,26,-5,-17,22,18,81,164,23,-24,-28
-9,19,28,-5,-18,23,19,84,170,26,-21,-29
-9,19,28,-5,-18,23,19,86,174,28,-19,-29
-8,18,26,-5,-17,22,18,87,175,29,-18,-28
-8,18,26,-5,-17,22,18,87,175,29,-18,-28
-9,19,28,-5,-18,23,18,86,174,28,-19,-29
-9,18,27,-4,-18,22,18,86,174,28,-19,-29
-8,19,27,-5,-17,23,19,87,176,32,-17,-27
-8,19,27,-5,-17,23,19,87,179,38,-14,-24
-9,18,27,-4,-18,22,18,86,182,43,-11,-21
-9,18,27,-4,-18,22,18,86,184,47,-9,-19
-7,19,26,-6,-16,22,19,87,185,48,-6,-18
-4,19,23,-7,-13,21,19,87,185,48,-4,-18
-1,18,19,-8,-10,18,18,86,184,47,-2,-19
0,18,18,-9,-9,18,18,86,184,47,0,-19
0,19,19,-9,-9,19,19,88,185,49,1,-17
0,19,19,-9,-9,19,19,91,185,52,3,-14
0,18,18,-9,-9,18,18,94,184,55,6,-11
0,18,18,-9,-9,18,18,96,184,57,8,-9
0,19,19,-9,-9,19,19,97,185,60,9,-8
0,19,19,-9,-9,19,19,97,185,62,9,-8
0,18,18,-9,-9,18,18,97,184,63,8,-8
0,18,18,-9,-9,18,18,97,184,63,9,-8
0,21,21,-10,-10,21,20,96,187,63,8,-9
0,23,23,-11,-11,23,23,96,189,63,8,-9
0,24,24,-12,-12,24,25,99,190,62,11,-6
0,24,24,-12,-12,24,28,101,190,62,13,-4
0,22,22,-11,-11,22,32,102,189,65,14,-5
0,19,19,-9,-9,19,38,102,189,67,14,-8
0,16,16,-8,-8,16,43,101,191,68,11,-11
0,14,14,-7,-7,14,47,101,194,68,9,-13
-1,11,12,-5,-6,11,50,102,199,67,8,-14
-3,9,12,-3,-7,10,52,102,203,67,8,-14
-6,6,12,0,-9,9,55,101,205,68,9,-11
-8,4,12,2,-10,8,57,101,204,67,9,-9
-9,3,12,3,-10,7,56,102,202,68,9,-8
-9,3,12,3,-10,7,53,102,200,68,9,-8
-8,4,12,2,-10,8,52,101,197,67,8,-8
-8,4,12,2,-10,8,52,101,195,67,8,-8
-9,3,12,3,-10,7,54,102,194,70,9,-10
-9,3,12,3,-10,7,53,102,194,72,9,-13
-8,4,12,2,-10,8,48,101,195,73,6,-17
-9,4,13,2,-11,8,43,101,195,73,4,-19
-8,2,10,3,-9,6,41,102,194,72,5,-17
-8,0,8,4,-8,4,42,102,194,72,8,-14
-9,-2,7,5,-8,2,44,101,195,73,9,-13
-9,-3,6,6,-7,1,47,101,195,73,9,-14
-8,-4,4,6,-6,0,52,102,193,71,8,-12
-8,-4,4,6,-6,0,57,102,190,68,8,-9
-9,-4,5,6,-7,0,61,101,186,64,11,-8
-9,-4,5,6,-7,0,62,101,184,62,13,-8
-5,-2,3,3,-4,0,63,104,186,64,14,-9
0,0,0,0,0,0,62,106,189,67,14,-9
2,2,0,-2,1,1,63,107,190,68,11,-8
3,3,0,-3,1,1,63,107,190,67,9,-8
3,2,-1,-2,2,0,61,106,189,70,8,-9
3,0,-3,-1,3,-1,58,106,189,72,8,-9
5,-1,-6,-2,5,-3,56,107,191,73,11,-7
8,0,-8,-4,8,-4,53,107,194,72,13,-4
11,3,-8,-7,9,-2,49,106,197,74,15,-1
13,8,-5,-10,9,1,43,106,199,77,18,0
14,10,-4,-12,9,3,38,107,199,79,23,1
13,13,0,-13,6,6,34,107,199,81,28,3
15,21,6,-18,4,13,31,106,202,85,31,7
18,32,14,-25,2,23,29,106,208,91,33,13
21,41,20,-31,0,30,28,107,214,99,36,19
23,47,24,-35,0,35,29,107,218,106,38,23
26,52,26,-39,0,39,27,106,219,107,40,24
28,57,29,-42,0,43,24,106,218,106,42,24
29,63,34,-46,-2,48,21,109,220,108,47,23
29,67,38,-48,-4,52,19,111,223,111,52,23
27,68,41,-47,-7,54,19,110,224,112,53,23
24,68,44,-46,-10,56,19,107,224,112,53,23
21,68,47,-44,-13,57,16,103,221,112,53,24
19,68,49,-43,-15,58,14,101,219,112,53,24
16,66,50,-41,-17,58,14,103,217,110,49,22
14,63,49,-38,-17,56,18,106,214,107,43,19
11,61,50,-36,-19,55,23,107,209,102,38,16
9,58,49,-33,-20,53,28,107,204,97,34,14
6,54,48,-30,-21,51,31,105,203,94,31,12
4,48,44,-26,-20,46,33,102,203,92,29,9
1,43,42,-22,-20,42,36,99,203,89,26,4
0,39,39,-19,-19,39,38,97,200,87,24,0
0,34,34,-17,-17,34,40,96,197,86,24,-2
0,29,29,-14,-14,29,42,97,195,86,24,-3
0,23,23,-11,-11,23,47,95,194,87,21,-6
0,19,19,-9,-9,19,52,92,195,87,19,-8
0,18,18,-9,-9,18,53,89,193,85,18,-9
0,18,18,-9,-9,18,53,87,190,82,18,-9
-1,18,19,-8,-10,18,52,84,186,79,19,-8
-3,18,21,-7,-12,19,52,82,184,78,19,-8
-4,20,24,-8,-14,22,53,81,186,78,18,-11
-4,23,27,-9,-15,25,53,81,189,78,18,-13
-4,26,30,-11,-17,28,53,82,190,75,20,-14
-4,28,32,-12,-18,30,53,82,190,73,19,-14
-2,30,32,-14,-17,31,52,81,188,72,12,-14
-3,33,36,-15,-19,34,52,78,185,68,1,-18
-9,39,48,-15,-28,43,54,71,178,58,-8,-25
-18,47,65,-14,-41,56,57,59,163,41,-17,-33
-24,52,76,-14,-50,64,62,45,140,19,-28,-39
-28,57,85,-14,-56,71,67,30,114,-1,-38,-42
-33,65,98,-16,-65,81,71,18,95,-14,-40,-44
-38,76,114,-19,-76,95,73,9,83,-22,-39,-43
-41,87,128,-23,-84,107,69,5,76,-32,-38,-38
-39,96,135,-28,-87,115,63,3,77,-34,-30,-26
-32,102,134,-35,-83,118,57,4,88,-17,-7,-4
-20,110,130,-45,-75,120,45,4,104,22,35,28
-4,123,127,-59,-65,125,23,2,120,80,99,72
16,134,118,-75,-51,126,-1,7,142,151,170,116
38,139,101,-88,-31,120,-18,28,175,225,237,153
60,140,80,-100,-10,110,-31,47,183,297,303,185
77,144,67,-110,5,105,-49,41,124,365,373,220
94,150,56,-122,19,103,-70,13,19,434,447,262
115,152,37,-133,39,94,-89,-23,-95,510,523,308
138,139,1,-138,68,70,-105,-62,-217,585,591,351
156,102,-54,-129,105,24,-119,-101,-352,647,646,379
176,57,-119,-116,147,-31,-137,-140,-501,692,691,397
204,31,-173,-117,188,-71,-167,-184,-656,724,733,417
231,19,-212,-125,221,-96,-204,-239,-794,766,778,440
245,15,-230,-130,237,-107,-238,-309,-895,838,825,465
248,17,-231,-132,239,-107,-269,-392,-986,887,853,481
245,31,-214,-138,229,-91,-295,-486,-1101,852,838,481
239,50,-189,-144,214,-69,-318,-578,-1223,755,792,469
233,66,-167,-149,200,-50,-343,-656,-1321,646,737,456
229,73,-156,-151,192,-41,-367,-711,-1384,543,688,445
227,65,-162,-146,194,-48,-386,-736,-1409,451,654,437
228,43,-185,-135,206,-71,-399,-726,-1395,363,627,430
231,6,-225,-118,228,-109,-401,-682,-1341,267,594,420
237,-41,-278,-98,257,-159,-392,-622,-1268,161,544,403
246,-91,-337,-77,291,-214,-372,-565,-1201,41,469,374
248,-132,-380,-58,314,-256,-349,-517,-1144,-96,378,340
237,-150,-387,-43,312,-268,-328,-477,-1094,-252,284,308
217,-151,-368,-33,292,-259,-309,-447,-1045,-397,188,273
194,-145,-339,-24,266,-242,-287,-427,-992,-499,90,226
165,-133,-298,-16,231,-215,-257,-408,-927,-556,-6,165
125,-112,-237,-6,181,-174,-219,-377,-842,-577,-96,94
83,-85,-168,1,125,-126,-175,-336,-733,-565,-171,27
49,-58,-107,4,78,-82,-134,-291,-599,-522,-219,-22
26,-32,-58,3,42,-45,-96,-241,-453,-454,-234,-50
12,-8,-20,-2,16,-14,-63,-185,-316,-370,-214,-59
4,11,7,-7,-1,9,-32,-129,-199,-284,-179,-58
1,26,25,-13,-12,25,-5,-81,-106,-209,-153,-59
-2,33,35,-15,-18,34,16,-43,-36,-152,-137,-62
-13,30,43,-8,-28,36,31,-12,12,-114,-123,-61
-27,20,47,3,-37,33,41,11,48,-89,-109,-58
-36,7,43,14,-39,25,50,27,79,-70,-94,-57
-39,-2,37,20,-38,17,57,41,108,-54,-83,-58
-33,-8,25,20,-29,8,62,56,136,-43,-76,-56
-25,-9,16,17,-20,3,67,71,158,-34,-73,-53
-18,-7,11,12,-14,2,70,81,168,-28,-70,-52
-14,-4,10,9,-12,3,72,86,170,-24,-68,-52
-12,0,12,6,-12,6,72,87,170,-23,-69,-52
-13,7,20,3,-16,13,72,87,170,-23,-72,-52
-16,14,30,1,-23,22,74,86,168,-24,-76,-55
-18,18,36,0,-27,27,77,87,169,-24,-77,-57
-19,17,36,1,-27,26,79,86,175,-22,-76,-58
-19,14,33,2,-26,23,78,86,184,-19,-73,-58
-18,12,30,3,-24,21,75,89,189,-14,-70,-58
-19,13,32,3,-25,22,73,91,190,-9,-68,-58
-18,15,33,1,-25,24,74,92,188,-7,-65,-56
-18,18,36,0,-27,27,77,92,185,-8,-63,-53
-21,21,42,0,-31,31,78,92,184,-11,-60,-50
-23,23,46,0,-34,34,78,92,184,-13,-58,-48
-24,24,48,0,-36,36,76,91,186,-14,-57,-47
-24,24,48,0,-36,36,73,91,189,-14,-57,-47
-23,24,47,0,-35,35,70,94,192,-13,-59,-50
-23,24,47,0,-35,35,68,96,194,-13,-62,-52
-24,23,47,0,-35,35,69,95,193,-17,-67,-53
-24,23,47,0,-35,35,72,92,190,-23,-72,-53
-23,26,49,-1,-36,37,75,89,187,-26,-75,-52
-23,28,51,-2,-37,39,77,87,185,-28,-77,-52
-25,29,54,-2,-39,41,79,86,184,-30,-78,-56
-28,28,56,0,-42,42,81,86,184,-33,-78,-62
-30,30,60,0,-45,45,86,87,187,-36,-77,-66
-33,33,66,0,-49,49,91,87,189,-38,-77,-67
-37,35,72,1,-54,53,93,85,188,-41,-80,-67
-42,34,76,4,-59,55,92,82,185,-42,-86,-67
-45,31,76,7,-60,53,91,80,182,-42,-91,-69
-47,29,76,9,-61,52,91,78,180,-42,-96,-72
-48,28,76,10,-62,52,93,74,178,-44,-100,-73
-48,28,76,10,-62,52,96,68,175,-47,-101,-73
-47,29,76,9,-61,52,99,63,170,-50,-101,-72
-47,29,76,9,-61,52,101,58,165,-52,-101,-72
-51,26,77,12,-64,51,102,55,163,-54,-104,-75
-56,24,80,16,-68,52,102,53,164,-57,-106,-77
-63,23,86,20,-74,54,102,52,165,-60,-107,-78
-67,23,90,22,-78,56,102,52,165,-62,-106,-78
-65,25,90,20,-77,57,101,53,163,-63,-108,-77
-58,28,86,15,-72,57,101,52,161,-62,-111,-77
-54,33,87,10,-70,60,104,53,158,-64,-114,-78
-53,38,91,7,-72,64,106,53,156,-67,-116,-78
-52,39,91,6,-71,65,107,52,156,-70,-117,-77
-52,39,91,6,-71,65,107,52,156,-72,-116,-77
-55,39,94,8,-74,66,106,54,152,-75,-118,-79
-57,39,96,9,-76,67,106,57,146,-81,-121,-81
-58,37,95,10,-76,66,107,58,141,-88,-125,-84
-58,34,92,12,-75,63,107,58,136,-96,-130,-86
-57,33,90,12,-73,61,104,56,133,-100,-135,-89
-57,33,90,12,-73,61,102,53,131,-101,-140,-91
-61,34,95,13,-78,64,101,51,129,-103,-143,-92
-67,34,101,16,-84,67,102,48,126,-106,-145,-92
-73,34,107,19,-90,70,100,44,120,-110,-148,-92
-77,34,111,21,-94,72,97,39,113,-115,-150,-92
-77,33,110,22,-93,71,93,34,105,-124,-151,-91
-73,33,106,20,-89,69,87,29,97,-134,-150,-91
-70,36,106,17,-88,71,82,24,92,-145,-152,-94
-68,38,106,15,-87,72,78,19,87,-154,-155,-96
-67,39,106,14,-86,72,77,18,83,-159,-156,-97
-67,39,106,14,-86,72,77,18,78,-160,-156,-97
-68,38,106,15,-87,72,78,19,74,-162,-155,-96
-68,38,106,15,-87,72,78,19,68,-164,-155,-96
-67,39,106,14,-86,72,75,17,61,-167,-156,-97
-67,39,106,14,-86,72,69,14,54,-169,-156,-97
-68,38,106,15,-87,72,61,9,46,-171,-155,-96
-68,38,106,15,-87,72,53,4,40,-174,-155,-96
-67,40,107,13,-87,73,48,1,33,-179,-157,-97
-67,42,109,12,-88,75,43,0,25,-184,-160,-97
-68,43,111,12,-89,77,37,-1,15,-188,-162,-95
-68,42,110,13,-89,76,29,-3,5,-189,-161,-92
-66,44,110,11,-88,77,24,-6,-3,-189,-158,-89
-63,47,110,8,-86,78,19,-8,-12,-189,-156,-87
-61,49,110,6,-85,79,14,-11,-21,-192,-156,-84
-58,52,110,3,-84,81,9,-13,-28,-195,-156,-82
-54,56,110,-1,-82,83,6,-16,-29,-192,-152,-80
-48,62,110,-7,-79,86,4,-18,-28,-186,-146,-78
-43,68,111,-12,-77,89,2,-21,-31,-180,-141,-73
-39,72,111,-16,-75,91,0,-23,-37,-175,-136,-68
-38,73,111,-17,-74,92,-3,-26,-44,-172,-131,-65
-38,73,111,-17,-74,92,-8,-28,-51,-170,-126,-63
-39,72,111,-16,-75,91,-11,-31,-59,-168,-121,-61
-39,72,111,-16,-75,91,-13,-33,-66,-165,-117,-58
-37,73,110,-18,-73,91,-15,-36,-73,-162,-113,-55
-34,73,107,-19,-70,90,-18,-38,-80,-161,-112,-53
-31,72,103,-20,-67,87,-25,-41,-88,-161,-112,-51
-29,72,101,-21,-65,86,-33,-42,-96,-161,-112,-48
-26,73,99,-23,-62,86,-37,-43,-99,-157,-106,-44
-24,73,97,-24,-60,85,-38,-43,-101,-151,-98,-39
-21,73,94,-26,-57,83,-39,-42,-104,-146,-91,-36
-19,73,92,-27,-55,82,-39,-43,-106,-141,-87,-34
-16,72,88,-28,-52,80,-38,-42,-107,-136,-84,-29
-14,72,86,-29,-50,79,-38,-42,-107,-131,-82,-24
-11,73,84,-31,-47,78,-40,-43,-107,-127,-79,-21
-9,73,82,-32,-45,77,-42,-43,-107,-122,-73,-19
-6,72,78,-33,-42,75,-43,-41,-105,-117,-66,-17
-4,72,76,-34,-40,74,-43,-39,-102,-112,-59,-14
-3,73,76,-35,-39,74,-42,-38,-101,-110,-52,-11
-4,73,77,-34,-40,75,-42,-38,-101,-107,-48,-9
-3,71,74,-34,-38,72,-44,-39,-102,-101,-46,-9
0,68,68,-34,-34,68,-47,-38,-102,-93,-43,-9
3,67,64,-35,-30,65,-50,-39,-100,-86,-38,-7
8,67,59,-37,-25,63,-52,-39,-97,-82,-34,-4
11,70,59,-40,-24,64,-53,-37,-94,-78,-33,-3
13,72,59,-42,-23,65,-53,-34,-92,-73,-34,-3
14,73,59,-43,-22,66,-52,-31,-91,-68,-32,-3
14,73,59,-43,-22,66,-52,-29,-91,-63,-29,-3
12,71,59,-41,-23,65,-53,-27,-91,-62,-28,-5
9,68,59,-38,-25,63,-53,-24,-91,-62,-28,-8
6,63,57,-34,-25,60,-51,-21,-92,-62,-29,-11
4,58,54,-31,-25,56,-48,-19,-92,-58,-28,-13
3,57,54,-30,-25,55,-45,-19,-87,-52,-29,-14
4,57,53,-30,-24,55,-43,-19,-79,-44,-29,-14
2,58,56,-30,-27,57,-41,-17,-69,-33,-26,-13
0,58,58,-29,-29,58,-39,-14,-59,-24,-24,-13
0,57,57,-28,-28,57,-34,-13,-50,-22,-23,-14
0,57,57,-28,-28,57,-29,-13,-43,-23,-23,-13
0,58,58,-29,-29,58,-26,-14,-39,-25,-24,-14
0,58,58,-29,-29,58,-24,-14,-34,-24,-24,-14
0,57,57,-28,-28,57,-20,-11,-29,-20,-23,-13
0,57,57,-28,-28,57,-15,-9,-24,-14,-23,-13
0,58,58,-29,-29,58,-7,-8,-22,-11,-24,-14
0,58,58,-29,-29,58,0,-9,-19,-9,-24,-14
0,56,56,-28,-28,56,2,-7,-12,-5,-22,-11
0,53,53,-26,-26,53,3,-4,-1,0,-19,-9
0,50,50,-25,-25,50,6,-2,7,4,-16,-8
0,48,48,-24,-24,48,8,0,13,8,-14,-8
-1,45,46,-22,-23,45,9,3,16,9,-13,-9
-3,43,46,-20,-24,44,8,8,18,9,-13,-9
-6,41,47,-17,-26,44,10,11,22,8,-16,-8
-8,39,47,-15,-27,43,13,13,27,8,-18,-8
-8,37,45,-14,-26,41,14,15,34,10,-17,-9
-8,34,42,-13,-25,38,14,18,41,13,-14,-9
-11,31,42,-10,-26,36,13,21,49,16,-11,-8
-13,29,42,-8,-27,35,13,23,56,18,-9,-8
-12,28,40,-8,-26,34,15,26,64,20,-8,-11
-9,28,37,-9,-23,32,18,28,72,19,-9,-13
-6,29,35,-11,-20,32,21,30,76,16,-7,-14
-4,29,33,-12,-18,31,23,33,81,13,-8,-13
-2,27,29,-12,-15,28,24,36,87,17,-14,-14
-3,28,31,-12,-17,29,23,38,95,23,-22,-18
-9,33,42,-12,-25,37,25,37,100,24,-28,-24
-17,38,55,-10,-36,46,28,30,94,12,-36,-32
-24,37,61,-6,-42,49,33,17,70,-16,-53,-42
-28,34,62,-3,-45,48,38,2,38,-48,-71,-51
-32,34,66,-1,-49,50,40,-8,16,-68,-77,-56
-37,37,74,0,-55,55,42,-17,0,-87,-84,-61
-46,44,90,1,-68,67,46,-28,-25,-123,-106,-72
-56,52,108,2,-82,80,51,-40,-53,-164,-132,-85
-62,56,118,3,-90,87,58,-53,-74,-185,-144,-90
-59,61,120,-1,-89,90,55,-62,-79,-179,-128,-77
-46,71,117,-12,-81,94,33,-64,-62,-143,-78,-40
-27,81,108,-27,-67,94,4,-55,-26,-91,-14,6
-7,83,90,-38,-48,86,-16,-33,17,-38,41,44
11,81,70,-46,-29,75,-31,-11,36,14,96,76
27,85,58,-56,-15,71,-49,-5,-5,72,166,112
44,91,47,-67,-1,69,-69,-16,-91,135,244,153
65,93,28,-79,18,60,-88,-36,-184,199,319,197
88,82,-6,-85,47,38,-104,-63,-291,269,392,240
109,46,-63,-77,86,-8,-118,-91,-426,351,471,280
131,2,-129,-66,130,-63,-136,-120,-585,427,552,319
160,-27,-187,-66,173,-107,-165,-154,-750,484,629,359
190,-38,-228,-76,209,-133,-202,-199,-896,553,703,398
214,-35,-249,-89,231,-142,-241,-261,-999,673,780,433
231,-22,-253,-104,242,-137,-277,-337,-1085,795,845,459
243,-1,-244,-121,243,-122,-306,-419,-1194,842,877,472
247,27,-220,-137,233,-96,-335,-506,-1316,804,861,469
245,66,-179,-155,212,-56,-371,-598,-1424,697,796,453
239,106,-133,-172,186,-13,-412,-680,-1506,563,710,432
238,133,-105,-185,171,14,-449,-733,-1553,446,644,416
238,138,-100,-188,169,19,-475,-744,-1552,340,593,402
238,111,-127,-174,182,-8,-481,-707,-1491,223,538,383
238,66,-172,-152,205,-53,-470,-644,-1400,84,463,352
241,21,-220,-131,230,-99,-451,-587,-1320,-74,360,309
240,-14,-254,-113,247,-134,-428,-539,-1247,-236,247,264
227,-36,-263,-95,245,-149,-401,-492,-1163,-377,150,230
204,-46,-250,-79,227,-148,-371,-450,-1066,-486,63,197
177,-50,-227,-63,202,-138,-337,-418,-962,-556,-30,148
147,-45,-192,-51,169,-118,-298,-390,-857,-588,-122,88
110,-27,-137,-41,123,-82,-258,-354,-754,-583,-188,30
73,0,-73,-36,73,-36,-216,-310,-637,-542,-225,-17
45,27,-18,-36,31,4,-174,-259,-489,-465,-233,-48
26,53,27,-39,0,40,-136,-204,-332,-371,-218,-62
15,74,59,-44,-22,66,-107,-148,-201,-287,-189,-61
9,89,80,-49,-35,84,-85,-95,-101,-215,-156,-54
7,99,92,-53,-42,95,-66,-50,-25,-153,-129,-47
4,102,98,-53,-47,100,-50,-14,30,-103,-109,-43
-1,98,99,-48,-50,98,-36,12,70,-72,-95,-40
-8,89,97,-40,-52,93,-25,31,98,-55,-83,-39
-10,76,86,-33,-48,81,-17,42,118,-44,-73,-39
-9,64,73,-27,-41,68,-10,51,137,-35,-64,-39
-8,55,63,-23,-35,59,-3,63,159,-25,-59,-37
-8,48,56,-20,-32,52,2,76,177,-15,-58,-34
-10,44,54,-17,-32,49,9,83,183,-8,-58,-33
-13,42,55,-14,-34,48,13,86,180,-4,-58,-33
-15,44,59,-14,-37,51,14,87,179,-3,-56,-33
-18,47,65,-14,-41,56,13,86,179,-3,-53,-33
-23,49,72,-13,-47,60,15,87,179,-3,-49,-35
-28,48,76,-10,-52,62,18,87,179,-3,-47,-38
-29,44,73,-7,-51,58,21,83,183,-5,-50,-40
-29,39,68,-5,-48,53,23,78,189,-8,-56,-42
-28,36,64,-4,-46,50,23,75,191,-9,-63,-45
-29,34,63,-2,-46,48,23,73,190,-9,-67,-47
-28,33,61,-2,-44,47,25,72,187,-8,-68,-48
-28,33,61,-2,-44,47,28,72,185,-8,-68,-48
-30,34,64,-2,-47,49,29,73,184,-10,-67,-47
-33,34,67,0,-50,50,28,73,184,-13,-68,-47
-34,33,67,0,-50,50,30,72,186,-14,-67,-49
-34,33,67,0,-50,50,33,72,189,-14,-67,-52
-33,34,67,0,-50,50,36,74,193,-13,-69,-57
-33,34,67,0,-50,50,38,77,195,-13,-72,-62
-34,31,65,1,-49,48,40,78,192,-16,-75,-64
-34,29,63,2,-48,46,42,78,186,-18,-77,-63
-33,28,61,2,-47,44,45,77,180,-19,-78,-62
-33,28,61,2,-47,44,47,77,175,-18,-78,-62
-34,28,62,3,-48,45,48,78,173,-20,-77,-65
-34,28,62,3,-48,45,47,78,174,-23,-78,-67
-33,31,64,1,-48,47,49,77,177,-26,-77,-68
-33,33,66,0,-49,49,52,77,179,-28,-77,-68
-36,33,69,1,-52,51,53,77,180,-31,-79,-67
-38,29,67,4,-52,48,53,77,180,-33,-81,-67
-39,24,63,7,-51,43,52,78,180,-33,-83,-69
-38,19,57,9,-47,38,52,78,180,-33,-86,-72
-39,17,56,11,-47,36,52,77,178,-36,-89,-73
-42,18,60,12,-51,39,52,77,175,-41,-91,-73
-45,20,65,12,-55,42,53,78,170,-47,-91,-72
-47,19,66,14,-56,42,53,78,165,-52,-91,-72
-48,15,63,16,-55,39,51,76,164,-55,-93,-74
-48,9,57,19,-52,33,48,73,164,-57,-96,-77
-48,6,54,21,-51,30,45,72,165,-60,-97,-78
-48,4,52,22,-50,28,43,72,165,-62,-96,-78
-47,2,49,22,-48,25,41,73,163,-63,-98,-77
-47,0,47,23,-47,23,39,72,161,-62,-101,-77
-50,0,50,25,-50,25,38,73,158,-64,-104,-78
-52,0,52,26,-52,26,38,73,155,-67,-106,-78
-53,0,53,26,-53,26,39,71,157,-68,-106,-77
-52,0,52,26,-52,26,39,68,160,-67,-106,-77
-55,0,55,27,-55,27,38,67,160,-69,-108,-79
-57,0,57,28,-57,28,38,67,156,-72,-111,-81
-57,0,57,28,-57,28,40,70,151,-77,-112,-82
-53,0,53,26,-53,26,42,72,146,-81,-112,-82
-50,1,51,24,-50,26,43,73,143,-82,-111,-81
-48,3,51,22,-49,27,43,73,141,-81,-111,-81
-47,4,51,21,-49,27,42,71,139,-83,-113,-82
-47,4,51,21,-49,27,42,68,136,-86,-116,-82
-48,3,51,22,-49,27,43,65,132,-90,-119,-81
-48,3,51,22,-49,27,43,63,126,-95,-121,-81
-48,4,52,22,-50,28,41,60,122,-101,-123,-83
-48,4,52,22,-50,28,39,58,117,-106,-125,-86
-47,3,50,22,-48,26,37,56,113,-109,-126,-87
-47,3,50,22,-48,26,34,53,107,-111,-126,-87
-48,7,55,20,-51,31,31,48,103,-112,-125,-84
-48,12,60,18,-54,36,29,43,98,-112,-125,-82
-46,18,64,14,-55,41,27,40,92,-111,-129,-81
-43,23,66,10,-54,44,24,39,87,-111,-131,-81
-42,26,68,8,-55,47,19,37,85,-112,-126,-82
-42,28,70,7,-56,49,14,34,82,-112,-118,-82
-42,30,72,6,-57,51,13,29,77,-111,-113,-80
-42,33,75,4,-58,54,13,24,69,-111,-112,-78
-43,36,79,3,-61,57,13,21,62,-112,-110,-76
-43,38,81,2,-62,59,9,19,54,-112,-107,-73
-39,41,80,-1,-59,60,5,17,45,-110,-104,-69
-34,42,76,-4,-55,59,0,14,35,-107,-102,-63
-31,42,73,-5,-52,57,-1,11,28,-106,-99,-60
-29,42,71,-6,-50,56,-3,9,24,-107,-97,-58
-28,44,72,-8,-50,58,-6,9,22,-106,-96,-57
-28,47,75,-9,-51,61,-8,9,20,-106,-96,-57
-30,48,78,-9,-54,63,-9,5,12,-110,-98,-58
-33,48,81,-7,-57,64,-9,-2,2,-115,-101,-58
-36,47,83,-5,-59,65,-8,-11,-8,-121,-104,-57
-38,47,85,-4,-61,66,-8,-18,-17,-125,-106,-57
-39,48,87,-4,-63,67,-9,-20,-26,-126,-107,-58
-39,48,87,-4,-63,67,-9,-19,-33,-126,-107,-58
-38,47,85,-4,-61,66,-8,-18,-36,-125,-104,-55
-38,47,85,-4,-61,66,-8,-18,-38,-125,-102,-53
-39,50,89,-5,-64,69,-10,-21,-42,-126,-102,-53
-39,52,91,-6,-65,71,-13,-23,-47,-126,-102,-53
-39,53,92,-7,-65,72,-16,-24,-50,-125,-99,-49
-39,52,91,-6,-65,71,-18,-23,-52,-122,-93,-43
-38,54,92,-8,-65,73,-19,-25,-54,-117,-87,-41
-38,57,95,-9,-66,76,-19,-28,-57,-112,-82,-42
-39,60,99,-10,-69,79,-18,-31,-59,-109,-80,-43
-39,62,101,-11,-70,81,-18,-33,-58,-107,-78,-42
-37,64,101,-13,-69,82,-20,-34,-53,-103,-76,-43
-34,67,101,-16,-67,84,-23,-34,-48,-98,-73,-43
-31,70,101,-19,-66,85,-26,-33,-47,-92,-70,-41
-29,72,101,-21,-65,86,-28,-33,-48,-87,-68,-39
-28,73,101,-22,-64,87,-31,-33,-46,-84,-65,-38
-28,73,101,-22,-64,87,-33,-33,-43,-82,-63,-38
-29,73,102,-22,-65,87,-34,-34,-41,-80,-61,-39
-29,73,102,-22,-65,87,-34,-34,-39,-78,-58,-39
-28,71,99,-21,-63,85,-31,-32,-37,-74,-55,-38
-28,68,96,-20,-62,82,-29,-29,-34,-68,-53,-38
-29,65,94,-18,-61,79,-30,-26,-32,-65,-52,-39
-29,63,92,-17,-60,77,-33,-24,-29,-63,-53,-39
-27,61,88,-17,-57,74,-34,-22,-25,-59,-51,-36
-24,58,82,-17,-53,70,-34,-19,-20,-54,-48,-34
-21,55,76,-17,-48,65,-32,-17,-15,-48,-47,-33
-19,53,72,-17,-45,62,-29,-14,-10,-43,-47,-34
-18,51,69,-16,-43,60,-26,-11,-4,-40,-48,-32
-18,48,66,-15,-42,57,-24,-9,2,-39,-48,-29
-19,45,64,-13,-41,54,-23,-7,9,-37,-46,-28
-19,43,62,-12,-40,52,-23,-4,17,-34,-43,-28
-18,41,59,-11,-38,50,-24,0,25,-31,-42,-30
-18,39,57,-10,-37,48,-23,3,32,-29,-42,-33
-20,37,57,-8,-38,47,-24,6,37,-29,-44,-36
-23,34,57,-5,-40,45,-24,8,42,-29,-47,-38
-26,31,57,-2,-41,44,-22,12,47,-27,-49,-39
-28,29,57,0,-42,43,-19,17,56,-24,-48,-39
-29,28,57,0,-43,42,-16,23,66,-23,-45,-36
-29,29,58,0,-43,43,-14,28,76,-24,-43,-34
-26,28,54,-1,-40,41,-13,31,82,-22,-44,-33
-24,24,48,0,-36,36,-13,33,86,-19,-47,-33
-23,19,42,2,-32,30,-13,36,88,-16,-48,-34
-23,14,37,4,-30,25,-13,38,91,-14,-48,-34
-24,13,37,5,-30,25,-14,39,95,-14,-47,-33
-23,14,37,4,-30,25,-14,39,100,-14,-47,-33
-24,12,36,6,-30,24,-12,38,106,-12,-47,-34
-24,9,33,7,-28,21,-9,38,111,-9,-47,-34
-22,8,30,7,-26,19,-8,39,114,-8,-48,-33
-19,8,27,5,-23,17,-8,42,116,-9,-48,-33
-18,8,26,5,-22,17,-9,47,120,-7,-45,-34
-19,8,27,5,-23,17,-9,52,125,-4,-43,-34
-17,10,27,3,-22,18,-8,54,128,-3,-43,-33
-14,13,27,0,-20,20,-8,53,130,-3,-47,-33
-11,16,27,-2,-19,21,-10,52,130,-4,-50,-34
-9,18,27,-4,-18,22,-13,52,130,-4,-52,-34
-8,19,27,-5,-17,23,-16,54,132,-3,-53,-33
-8,19,27,-5,-17,23,-18,57,135,-3,-53,-33
-9,18,27,-4,-18,22,-19,58,136,-5,-52,-34
-9,18,27,-4,-18,22,-19,58,135,-8,-52,-34
-8,20,28,-6,-18,24,-18,57,137,-11,-52,-33
-8,23,31,-7,-19,27,-19,58,140,-13,-52,-33
-9,26,35,-8,-22,30,-18,57,141,-16,-53,-35
-9,28,37,-9,-23,32,-18,57,141,-18,-53,-38
-8,29,37,-10,-22,33,-19,59,140,-19,-52,-39
-8,29,37,-10,-22,33,-19,62,140,-19,-52,-39
-9,28,37,-9,-23,32,-16,63,142,-18,-55,-39
-9,28,37,-9,-23,32,-14,63,145,-18,-57,-39
-8,29,37,-10,-22,33,-14,61,146,-19,-57,-37
-8,29,37,-10,-22,33,-18,58,146,-18,-53,-34
-10,28,38,-9,-24,33,-21,55,145,-19,-50,-31
-13,28,41,-7,-27,34,-23,53,145,-19,-48,-29
-14,29,43,-7,-28,36,-22,52,147,-18,-47,-30
-13,29,42,-8,-27,35,-19,52,150,-18,-48,-33
-14,28,42,-7,-28,35,-16,53,152,-20,-47,-34
-14,28,42,-7,-28,35,-14,53,151,-23,-47,-34
-11,32,43,-10,-27,37,-12,50,148,-24,-51,-33
-8,40,48,-16,-28,44,-9,44,142,-27,-56,-33
-11,53,64,-21,-37,58,-5,35,133,-37,-61,-36
-17,66,83,-24,-50,74,-1,22,116,-53,-66,-41
-23,71,94,-24,-58,82,3,6,90,-76,-75,-47
-27,72,99,-22,-63,85,8,-10,59,-98,-85,-52
-33,76,109,-21,-71,92,11,-26,33,-112,-89,-54
-38,84,122,-23,-80,103,13,-37,16,-120,-87,-53
-41,95,136,-27,-88,115,12,-42,9,-125,-83,-48
-43,105,148,-31,-95,126,9,-42,12,-120,-72,-37
-40,112,152,-36,-96,132,6,-44,22,-96,-45,-16
-31,120,151,-44,-91,135,-1,-43,42,-51,1,15
-16,130,146,-57,-81,138,-17,-36,75,16,68,58
4,139,135,-71,-65,137,-36,-15,123,98,144,103
27,143,116,-85,-44,129,-45,20,183,186,219,141
48,141,93,-94,-22,117,-51,53,219,270,287,173
66,137,71,-101,-2,104,-64,61,190,344,353,204
82,132,50,-107,16,91,-82,47,114,417,419,239
104,123,19,-113,42,71,-100,25,32,499,488,280
126,103,-23,-114,74,40,-114,-2,-62,580,550,319
145,63,-82,-104,113,-9,-124,-37,-193,640,593,343
164,17,-147,-90,155,-65,-137,-77,-350,681,623,358
191,-13,-204,-89,197,-108,-159,-122,-509,710,651,373
219,-27,-246,-96,232,-136,-192,-176,-654,745,681,391
235,-29,-264,-103,249,-146,-230,-249,-778,798,710,407
239,-21,-260,-109,249,-140,-270,-340,-898,827,720,414
236,-4,-240,-116,238,-122,-304,-440,-1041,774,686,404
230,18,-212,-124,221,-97,-334,-540,-1190,660,624,384
224,44,-180,-134,202,-68,-365,-628,-1313,538,560,366
219,64,-155,-141,187,-45,-394,-696,-1400,423,506,353
217,73,-144,-145,180,-35,-418,-734,-1454,316,465,342
218,63,-155,-140,186,-46,-436,-736,-1464,215,434,332
223,30,-193,-126,208,-81,-446,-698,-1418,118,410,325
231,-17,-248,-107,239,-132,-448,-637,-1343,15,376,315
242,-68,-310,-87,276,-189,-442,-579,-1274,-106,315,293
248,-110,-358,-69,303,-234,-427,-531,-1216,-242,236,264
239,-132,-371,-53,305,-251,-408,-490,-1160,-381,157,235
218,-140,-358,-39,288,-249,-385,-458,-1101,-501,79,203
196,-141,-337,-27,266,-239,-360,-437,-1038,-578,0,157
168,-134,-302,-17,235,-218,-329,-419,-964,-614,-79,100
126,-112,-238,-7,182,-175,-288,-388,-870,-625,-156,39
77,-80,-157,1,117,-118,-239,-346,-751,-608,-218,-14
37,-46,-83,4,60,-64,-191,-298,-604,-557,-253,-51
8,-15,-23,3,15,-19,-148,-245,-446,-481,-256,-70
-8,11,19,-1,-13,15,-116,-189,-305,-392,-231,-75
-17,34,51,-8,-34,42,-91,-133,-187,-301,-192,-73
-24,52,76,-14,-50,64,-70,-84,-93,-220,-161,-73
-32,62,94,-15,-63,78,-51,-46,-21,-156,-139,-73
-40,60,100,-10,-70,80,-37,-17,29,-117,-125,-69
-46,50,96,-2,-71,73,-26,0,65,-95,-114,-64
-49,37,86,6,-67,61,-17,12,97,-79,-103,-60
-48,26,74,11,-61,50,-10,21,125,-65,-93,-58
-44,18,62,13,-53,40,-6,33,150,-53,-86,-55
-39,14,53,12,-46,33,-4,45,167,-44,-82,-53
-36,13,49,11,-42,31,-3,53,172,-38,-79,-52
-34,13,47,10,-40,30,-3,57,170,-34,-78,-52
-33,15,48,9,-40,31,-4,59,170,-33,-78,-52
-33,18,51,7,-42,34,-4,62,174,-33,-81,-52
-35,19,54,8,-44,36,-2,65,176,-34,-84,-54
-38,19,57,9,-47,38,0,67,178,-33,-86,-57
-39,17,56,11,-47,36,2,68,185,-34,-87,-59
-39,14,53,12,-46,33,3,67,193,-34,-87,-62
-38,13,51,12,-44,32,3,69,198,-32,-87,-65
-39,13,52,13,-45,32,3,72,200,-29,-87,-67
-38,14,52,12,-45,33,5,75,198,-26,-85,-68
-38,14,52,12,-45,33,8,77,195,-24,-82,-68
-40,13,53,13,-46,33,9,79,193,-23,-80,-68
-42,14,56,14,-49,35,9,81,194,-23,-78,-68
-43,13,56,15,-49,34,9,81,197,-24,-77,-67
-43,13,56,15,-49,34,9,81,202,-24,-77,-67
-42,14,56,14,-49,35,7,83,208,-23,-79,-70
-42,14,56,14,-49,35,8,86,213,-23,-81,-72
-43,12,55,15,-49,33,14,87,216,-24,-82,-72
-43,9,52,17,-47,30,26,87,218,-24,-82,-68
-42,8,50,17,-46,29,38,86,221,-22,-80,-65
-42,8,50,17,-46,29,46,86,223,-19,-78,-62
-43,8,51,17,-47,29,48,87,224,-18,-77,-64
-43,8,51,17,-47,29,47,87,223,-18,-77,-67
-42,10,52,16,-47,31,49,86,225,-18,-77,-68
-42,13,55,14,-48,34,52,86,228,-18,-77,-68
-44,14,58,15,-51,36,52,87,229,-20,-79,-67
-47,14,61,16,-54,37,48,87,229,-23,-81,-67
-48,11,59,18,-53,35,45,86,228,-24,-83,-69
-47,9,56,19,-51,32,43,86,228,-23,-86,-72
-49,8,57,20,-53,32,42,88,229,-25,-89,-73
-52,8,60,22,-56,34,43,91,229,-28,-91,-73
-55,8,63,23,-59,35,42,92,227,-31,-92,-72
-57,8,65,24,-61,36,42,92,224,-33,-92,-73
-57,10,67,23,-62,38,45,90,222,-35,-91,-72
-53,13,66,20,-59,39,51,87,219,-38,-91,-72
-50,16,66,17,-58,41,59,86,216,-42,-93,-74
-48,18,66,15,-57,42,66,86,214,-47,-96,-77
-49,19,68,15,-58,43,69,87,213,-49,-99,-78
-52,19,71,16,-61,45,68,86,213,-48,-101,-78
-55,18,73,18,-64,45,67,87,214,-47,-103,-77
-57,18,75,19,-66,46,67,87,214,-47,-106,-77
-60,19,79,20,-69,49,68,85,210,-51,-108,-79
-62,19,81,21,-71,50,68,82,205,-56,-111,-81
-63,18,81,22,-72,49,67,80,201,-62,-113,-81
-62,18,80,22,-71,49,67,78,200,-66,-116,-81
-64,20,84,22,-74,52,68,75,198,-71,-119,-84
-67,23,90,22,-78,56,67,73,195,-76,-121,-86
-68,24,92,22,-80,58,68,72,193,-80,-122,-85
-68,23,91,22,-79,57,68,73,190,-82,-122,-82
-67,25,92,21,-79,58,67,71,187,-79,-120,-81
-67,28,95,19,-81,61,67,68,185,-74,-117,-81
-68,31,99,18,-83,65,68,65,185,-69,-116,-82
-68,33,101,17,-84,67,68,63,185,-67,-116,-81
-66,35,101,15,-83,68,66,61,182,-69,-117,-82
-63,38,101,12,-82,69,63,58,176,-72,-116,-82
-60,40,100,10,-80,70,61,55,167,-75,-117,-80
-58,42,100,8,-79,71,58,53,157,-77,-117,-78
-57,43,100,7,-78,71,55,52,152,-78,-115,-76
-57,43,100,7,-78,71,53,52,151,-78,-112,-73
-58,42,100,8,-79,71,52,53,150,-78,-110,-70
-58,42,100,8,-79,71,52,53,147,-78,-107,-68
-57,44,101,6,-79,72,53,49,140,-77,-103,-67
-57,47,104,5,-80,75,53,44,132,-77,-97,-67
-58,50,108,4,-83,79,49,38,125,-79,-94,-68
-58,52,110,3,-84,81,44,34,118,-81,-92,-68
-57,53,110,2,-83,81,38,31,112,-81,-88,-64
-57,53,110,2,-83,81,34,29,108,-78,-83,-59
-58,52,110,3,-84,81,32,27,103,-75,-79,-55
-58,52,110,3,-84,81,29,24,98,-73,-78,-53
-56,54,110,1,-83,82,26,22,91,-71,-76,-49
-53,57,110,-2,-81,83,20,19,83,-68,-73,-43
-51,60,111,-4,-81,85,13,16,75,-66,-69,-41
-48,62,110,-7,-79,86,5,14,69,-63,-64,-39
-45,63,108,-9,-76,85,0,15,65,-60,-60,-36
-43,62,105,-9,-74,83,-3,18,63,-58,-58,-30
-42,63,105,-10,-73,84,-7,19,60,-58,-57,-24
-42,63,105,-10,-73,84,-12,19,54,-58,-57,-19
-44,59,103,-7,-73,81,-19,17,47,-56,-58,-18
-47,54,101,-3,-74,77,-27,14,40,-53,-58,-19
-49,49,98,0,-73,73,-35,12,34,-52,-56,-17
-48,47,95,0,-71,71,-42,9,29,-53,-53,-14
-45,49,94,-2,-69,71,-44,7,27,-51,-51,-13
-40,52,92,-6,-66,72,-43,4,24,-48,-48,-13
-36,53,89,-8,-62,71,-42,2,20,-45,-44,-14
-34,52,86,-9,-60,69,-42,0,15,-43,-39,-14
-33,54,87,-10,-60,70,-44,-1,11,-42,-36,-12
-33,57,90,-12,-61,73,-47,-3,9,-39,-34,-9
-34,58,92,-12,-63,75,-48,-5,7,-34,-31,-6
-34,58,92,-12,-63,75,-48,-8,4,-29,-29,-4
-32,57,89,-12,-60,73,-47,-12,2,-28,-28,-3
-29,57,86,-14,-57,71,-47,-17,0,-29,-29,-3
-28,58,86,-15,-57,72,-48,-21,0,-27,-27,-4
-28,58,86,-15,-57,72,-48,-23,0,-24,-24,-4
-29,56,85,-13,-57,70,-47,-24,1,-21,-22,-3
-29,53,82,-12,-55,67,-47,-23,3,-19,-19,-3
-28,50,78,-11,-53,64,-50,-24,3,-17,-16,-4
-29,48,77,-9,-53,62,-52,-24,3,-14,-14,-4
-28,47,75,-9,-51,61,-52,-19,7,-10,-13,-3
-28,47,75,-9,-51,61,-49,-10,12,-5,-13,-3
-29,48,77,-9,-53,62,-44,-4,15,-1,-14,-4
-29,48,77,-9,-53,62,-39,0,17,0,-14,-4
-27,45,72,-9,-49,58,-36,0,24,1,-13,-3
-24,40,64,-8,-44,52,-34,0,32,3,-13,-3
-21,34,55,-6,-38,44,-31,-1,38,5,-14,-5
-19,29,48,-5,-33,38,-29,0,42,8,-14,-8
-17,28,45,-5,-31,36,-28,4,46,10,-12,-9
-14,28,42,-7,-28,35,-29,12,51,13,-9,-9
-11,29,40,-9,-25,34,-27,18,58,15,-8,-8
-9,29,38,-10,-23,33,-24,23,66,18,-8,-8
-8,27,35,-9,-21,31,-21,26,73,21,-9,-9
-8,24,32,-8,-20,28,-19,28,80,23,-8,-9
-10,21,31,-5,-20,26,-17,30,87,25,-9,-8
-13,19,32,-3,-22,25,-14,33,94,28,-9,-8
-14,18,32,-2,-23,25,-12,35,104,32,-7,-10
-14,18,32,-2,-23,25,-9,38,114,38,-4,-13
-14,19,33,-2,-23,26,-6,40,123,40,-1,-14
-14,19,33,-2,-23,26,-4,42,129,42,0,-14
-12,18,30,-3,-21,24,-3,43,133,45,-4,-14
-13,18,31,-2,-22,24,-3,43,135,47,-12,-17
-18,22,40,-2,-29,31,-3,39,135,46,-18,-24
-27,28,55,0,-41,41,-1,31,126,34,-26,-32
-33,29,62,2,-47,45,4,18,101,6,-40,-38
-37,28,65,4,-51,46,12,3,69,-27,-55,-42
-42,32,74,5,-58,53,18,-8,45,-50,-62,-43
-46,37,83,4,-64,60,23,-16,28,-67,-66,-42
-51,40,91,5,-71,65,24,-26,10,-93,-75,-44
-53,39,92,7,-72,65,24,-36,-6,-118,-82,-44
-50,35,85,7,-67,60,22,-45,-13,-124,-74,-34
-42,33,75,4,-58,54,16,-51,-11,-105,-44,-12
-27,40,67,-6,-47,53,3,-54,1,-60,7,26
-8,51,59,-21,-33,55,-11,-47,25,2,71,71
10,54,44,-32,-17,49,-17,-25,62,69,129,110
29,53,24,-41,2,38,-21,-2,77,135,187,143
46,54,8,-50,19,31,-35,-1,29,198,260,176
63,57,-6,-60,34,25,-57,-21,-69,262,345,213
84,57,-27,-70,55,15,-77,-53,-182,328,427,256
106,44,-62,-75,84,-9,-93,-88,-300,400,504,297
126,14,-112,-70,119,-49,-107,-122,-428,477,574,331
145,-21,-166,-62,155,-93,-124,-155,-568,550,641,359
171,-42,-213,-64,192,-127,-154,-195,-716,607,707,387
198,-48,-246,-75,222,-147,-190,-244,-850,668,770,417
216,-46,-262,-85,239,-154,-226,-304,-945,758,826,443
223,-37,-260,-93,241,-148,-256,-375,-1022,838,863,460
223,-18,-241,-102,232,-129,-281,-457,-1121,845,865,463
220,7,-213,-113,216,-103,-305,-540,-1232,776,828,452
214,33,-181,-123,197,-74,-332,-616,-1327,660,758,433
209,54,-155,-131,182,-50,-359,-673,-1389,528,676,413
208,62,-146,-135,177,-42,-382,-699,-1415,408,609,397
208,53,-155,-130,181,-51,-397,-690,-1400,299,558,383
208,24,-184,-116,196,-80,-401,-649,-1342,190,506,365
208,-17,-225,-95,216,-121,-393,-589,-1263,67,440,339
211,-62,-273,-74,242,-167,-375,-533,-1191,-76,344,301
211,-100,-311,-55,261,-205,-352,-484,-1124,-227,234,258
196,-119,-315,-38,255,-217,-326,-439,-1048,-359,138,219
168,-122,-290,-23,229,-206,-299,-402,-959,-459,51,177
136,-117,-253,-9,194,-185,-267,-376,-863,-518,-43,120
101,-106,-207,2,154,-156,-233,-353,-765,-540,-136,54
63,-86,-149,11,106,-117,-196,-319,-667,-533,-201,-2
27,-60,-87,16,57,-73,-160,-275,-555,-494,-231,-45
-1,-31,-30,16,14,-30,-123,-224,-410,-415,-231,-70
-20,-5,15,12,-17,5,-89,-170,-254,-319,-210,-81
-29,12,41,8,-35,26,-61,-113,-128,-238,-181,-80
-29,22,51,3,-40,36,-39,-60,-37,-175,-152,-74
-26,26,52,0,-39,39,-19,-14,28,-120,-128,-68
-23,24,47,0,-35,35,-3,21,77,-76,-110,-63
-26,19,45,3,-35,32,7,46,112,-49,-98,-60
-29,11,40,9,-34,25,13,60,136,-35,-89,-58
-25,0,25,12,-25,12,16,66,152,-29,-81,-57
-19,-11,8,15,-13,-1,18,71,165,-25,-74,-58
-20,-19,1,19,-10,-9,21,81,184,-18,-70,-57
-26,-23,3,24,-14,-10,23,94,201,-10,-68,-57
-35,-24,11,29,-23,-6,24,102,205,-5,-67,-59
-42,-24,18,33,-30,-3,24,106,201,-4,-67,-62
-43,-22,21,32,-32,0,23,107,198,-3,-69,-63
-42,-19,23,30,-32,2,23,106,199,-3,-72,-62
-44,-18,26,31,-35,4,25,107,199,-3,-75,-64
-47,-19,28,33,-37,4,28,107,199,-3,-77,-67
-48,-18,30,33,-39,6,31,105,202,-4,-78,-68
-48,-15,33,31,-40,9,33,102,207,-4,-78,-68
-47,-9,38,28,-42,14,33,102,210,-2,-77,-67
-48,-4,44,26,-46,20,33,102,209,0,-77,-67
-47,-3,44,25,-45,20,35,97,206,0,-78,-68
-47,-3,44,25,-45,20,38,89,201,-2,-77,-67
-49,-4,45,26,-47,20,39,80,197,-8,-78,-68
-52,-4,48,28,-50,22,38,74,195,-13,-78,-68
-53,-3,50,28,-51,23,39,71,196,-14,-77,-67
-53,-4,49,28,-51,22,42,72,199,-14,-77,-67
-53,-3,50,28,-51,23,44,75,202,-13,-79,-70
-53,-3,50,28,-51,23,47,77,203,-13,-81,-72
-51,-4,47,27,-49,21,49,78,204,-14,-84,-72
-48,-4,44,26,-46,20,52,78,204,-14,-86,-68
-45,-2,43,23,-44,20,55,77,204,-11,-87,-65
-43,0,43,21,-43,21,57,77,204,-9,-87,-63
-42,0,42,21,-42,21,58,78,203,-9,-85,-63
-42,0,42,21,-42,21,57,78,203,-13,-82,-63
-42,1,43,20,-42,22,59,77,205,-16,-79,-61
-42,3,45,19,-43,24,62,77,208,-18,-78,-58
-44,4,48,20,-46,26,63,78,210,-21,-78,-57
-47,4,51,21,-49,27,63,77,213,-23,-81,-57
-48,2,50,23,-49,26,62,78,216,-24,-83,-59
-47,0,47,23,-47,23,62,78,218,-23,-86,-62
-49,0,49,24,-49,24,63,77,219,-25,-90,-63
-52,0,52,26,-52,26,63,77,219,-28,-95,-63
-55,0,55,27,-55,27,62,78,217,-31,-99,-61
-57,0,57,28,-57,28,62,78,214,-33,-101,-62
-58,-1,57,29,-57,28,64,77,213,-35,-104,-67
-58,-3,55,30,-56,26,67,77,213,-38,-106,-75
-58,-4,54,31,-56,25,69,79,214,-40,-107,-82
-58,-3,55,30,-56,26,72,81,214,-42,-106,-86
-57,-5,52,31,-54,23,75,83,214,-42,-108,-87
-57,-8,49,32,-53,20,80,86,214,-42,-111,-87
-59,-9,50,34,-54,20,88,89,213,-44,-114,-86
-62,-9,53,35,-57,22,95,91,213,-47,-116,-87
-63,-8,55,35,-59,23,98,90,214,-49,-117,-86
-62,-9,53,35,-57,22,97,87,214,-52,-116,-86
-64,-8,56,36,-60,24,96,86,211,-56,-118,-88
-67,-8,59,37,-63,25,96,86,205,-61,-121,-91
-68,-10,58,39,-63,24,98,87,200,-67,-123,-92
-68,-13,55,40,-61,21,101,87,195,-72,-125,-92
-67,-14,53,40,-60,19,102,85,192,-73,-127,-91
-67,-14,53,40,-60,19,102,82,190,-72,-130,-91
-68,-13,55,40,-61,21,101,81,188,-73,-131,-92
-68,-13,55,40,-61,21,101,81,185,-77,-131,-92
-67,-14,53,40,-60,19,102,82,181,-81,-130,-91
-67,-13,54,40,-60,20,102,82,176,-85,-130,-91
-68,-14,54,41,-61,20,99,80,171,-90,-132,-93
-68,-14,54,41,-61,20,93,78,166,-95,-135,-96
-67,-13,54,40,-60,20,87,76,161,-99,-136,-97
-67,-13,54,40,-60,20,82,73,157,-101,-136,-97
-68,-15,53,41,-60,19,80,70,152,-102,-133,-95
-68,-18,50,43,-59,16,78,68,147,-102,-131,-92
-66,-21,45,43,-55,12,76,67,141,-101,-131,-91
-63,-23,40,43,-51,8,74,68,136,-101,-131,-91
-61,-24,37,42,-49,6,68,67,134,-102,-128,-92
-58,-24,34,41,-46,5,63,64,131,-102,-122,-92
-55,-24,31,39,-43,3,62,59,127,-101,-121,-90
-53,-24,29,38,-41,2,63,54,119,-101,-121,-87
-52,-22,30,37,-41,4,60,49,110,-105,-121,-85
-53,-19,34,36,-43,7,54,44,99,-110,-121,-82
-51,-16,35,33,-43,9,49,38,89,-114,-123,-80
-48,-14,34,31,-41,10,44,34,79,-116,-125,-78
-46,-14,32,30,-39,9,38,34,73,-117,-124,-77
-47,-18,29,32,-38,5,30,34,69,-117,-122,-77
-50,-21,29,35,-39,4,24,30,62,-116,-122,-79
-52,-23,29,37,-40,3,19,24,54,-116,-122,-81
-52,-24,28,38,-40,2,16,23,48,-117,-117,-81
-48,-24,24,36,-36,0,14,24,44,-117,-108,-78
-45,-22,23,33,-34,0,12,21,40,-116,-103,-75
-43,-19,24,31,-33,2,9,15,35,-116,-101,-73
-42,-18,24,30,-33,3,7,10,28,-117,-102,-71
-43,-18,25,30,-34,3,4,9,20,-117,-102,-69
-41,-19,22,30,-31,1,2,9,14,-116,-99,-64
-39,-19,20,29,-29,0,0,9,9,-116,-97,-58
-38,-18,20,28,-29,1,0,6,7,-119,-98,-57
-38,-18,20,28,-29,1,0,1,4,-121,-102,-58
-39,-19,20,29,-29,0,-1,-2,0,-120,-99,-56
-39,-19,20,29,-29,0,-3,-3,-3,-117,-93,-53
-38,-17,21,27,-29,2,-4,-4,-4,-116,-91,-50
-38,-14,24,26,-31,5,-3,-4,-4,-117,-91,-48
-39,-11,28,25,-33,8,-5,-3,-3,-114,-90,-47
-39,-9,30,24,-34,10,-8,-3,-3,-108,-87,-47
-37,-7,30,22,-33,11,-9,-4,-4,-103,-85,-47
-34,-4,30,19,-32,13,-9,-4,-3,-98,-82,-47
-33,0,33,16,-33,16,-8,-2,-3,-92,-78,-48
-33,3,36,15,-34,19,-8,0,-1,-84,-74,-48
-34,4,38,15,-36,21,-8,0,5,-72,-70,-43
-34,4,38,15,-36,21,-8,0,16,-60,-65,-35
-30,4,34,13,-32,19,-9,0,25,-53,-55,-29
-25,7,32,9,-28,19,-9,0,32,-49,-45,-25
-21,12,33,4,-27,22,-7,2,38,-43,-38,-20
-19,17,36,1,-27,26,-4,7,46,-36,-35,-15
-19,21,40,-1,-29,30,-2,12,53,-28,-30,-11
-19,23,42,-2,-30,32,0,17,60,-20,-25,-9
-17,25,42,-4,-29,33,0,22,69,-14,-22,-8
-14,28,42,-7,-28,35,0,27,78,-6,-19,-8
-13,31,44,-9,-28,37,0,32,91,4,-15,-9
-14,34,48,-10,-31,41,0,37,103,16,-10,-9
-12,31,43,-9,-27,37,0,42,114,23,-6,-8
-9,25,34,-8,-21,29,0,46,123,27,-4,-9
-8,21,29,-6,-18,25,0,52,134,32,-2,-8
-8,19,27,-5,-17,23,0,57,144,38,0,-8
-9,18,27,-4,-18,22,0,58,147,39,0,-9
-9,18,27,-4,-18,22,0,58,146,39,0,-9
-8,20,28,-6,-18,24,0,58,145,39,0,-8
-8,19,27,-5,-17,23,0,58,146,39,0,-8
-12,14,26,-1,-19,20,0,56,144,36,-3,-11
-17,6,23,5,-20,14,0,53,141,30,-11,-17
-21,0,21,10,-21,10,0,51,138,23,-19,-22
-23,-3,20,13,-21,8,0,48,136,15,-27,-27
-25,-7,18,16,-21,5,1,45,135,9,-34,-32
-28,-12,16,20,-22,2,3,43,136,2,-41,-37
-29,-18,11,23,-20,-3,5,42,134,-6,-47,-41
-29,-23,6,26,-17,-8,7,42,131,-13,-52,-42
-28,-24,4,26,-16,-10,13,43,128,-13,-53,-43
-28,-24,4,26,-16,-10,21,43,126,-9,-52,-43
-29,-23,6,26,-17,-8,30,42,124,-7,-54,-42
-28,-23,5,25,-16,-9,37,42,125,-8,-57,-42
-29,-25,4,27,-16,-10,41,44,129,-10,-59,-44
-29,-28,1,28,-15,-13,42,47,134,-13,-62,-47
-28,-31,-3,29,-12,-17,45,50,137,-15,-64,-48
-28,-33,-5,30,-11,-19,47,52,136,-18,-67,-47
-30,-34,-4,32,-13,-19,46,53,135,-20,-69,-49
-33,-34,-1,33,-16,-17,43,53,135,-23,-72,-52
-36,-33,3,34,-19,-15,41,52,136,-25,-75,-55
-38,-33,5,35,-21,-14,42,52,136,-28,-77,-57
-39,-35,4,37,-21,-15,45,53,135,-30,-76,-59
-39,-38,1,38,-20,-18,47,53,135,-32,-73,-62
-38,-40,-2,39,-18,-21,46,52,136,-37,-72,-65
-38,-42,-4,40,-17,-23,43,52,135,-42,-73,-67
-38,-43,-5,40,-16,-24,41,53,136,-42,-71,-66
-38,-43,-5,40,-16,-24,42,53,136,-40,-68,-63
-39,-43,-4,41,-17,-23,44,52,135,-36,-67,-62
-39,-43,-4,41,-17,-23,47,52,135,-34,-67,-63
-37,-42,-5,39,-16,-23,48,53,136,-34,-69,-61
-34,-39,-5,36,-14,-22,48,53,136,-38,-72,-58
-32,-36,-4,34,-14,-20,46,52,135,-41,-73,-57
-29,-34,-5,31,-12,-19,43,52,135,-42,-73,-57
-26,-33,-7,29,-9,-20,41,54,137,-42,-72,-58
-24,-33,-9,28,-7,-21,39,57,140,-42,-72,-58
-23,-34,-11,28,-6,-22,37,58,141,-44,-74,-57
-23,-33,-10,28,-6,-21,34,57,141,-47,-77,-57
-24,-34,-10,29,-7,-22,32,59,140,-46,-78,-58
-24,-34,-10,29,-7,-22,29,62,140,-43,-78,-58
-22,-32,-10,27,-6,-21,26,65,142,-42,-76,-56
-19,-29,-10,24,-4,-19,24,67,145,-42,-73,-53
-16,-26,-10,21,-3,-18,23,68,146,-43,-72,-51
-14,-24,-10,19,-2,-17,23,68,146,-43,-73,-48
-13,-23,-10,18,-1,-16,24,67,144,-42,-71,-45
-13,-23,-10,18,-1,-16,24,67,141,-42,-68,-43
-15,-24,-9,19,-3,-16,22,67,140,-43,-67,-42
-18,-27,-9,22,-4,-18,19,67,140,-43,-67,-42
-21,-32,-11,26,-5,-21,18,68,141,-41,-68,-43
-23,-38,-15,30,-4,-26,18,68,141,-39,-67,-43
-22,-39,-17,30,-2,-28,19,66,139,-38,-68,-42
-19,-39,-20,29,0,-29,19,63,136,-39,-68,-42
-18,-39,-21,28,1,-30,18,62,135,-37,-66,-43
-18,-39,-21,28,1,-30,18,63,135,-34,-63,-43
-19,-37,-18,28,0,-27,19,61,136,-33,-62,-42
-18,-34,-16,26,-1,-25,19,59,136,-33,-62,-42
-19,-31,-12,25,-3,-21,17,55,133,-34,-63,-43
-19,-29,-10,24,-4,-19,14,53,131,-34,-63,-43
-17,-28,-11,22,-3,-19,11,54,132,-30,-60,-41
-14,-28,-14,21,0,-21,9,57,135,-25,-54,-39
-11,-29,-18,20,3,-23,8,58,135,-21,-48,-37
-9,-29,-20,19,5,-24,9,58,135,-19,-44,-34
-8,-28,-20,18,6,-24,7,57,138,-15,-41,-31
-8,-28,-20,18,6,-24,4,58,144,-10,-39,-29
-9,-29,-20,19,5,-24,2,57,148,-5,-37,-29
-9,-29,-20,19,5,-24,0,57,150,-1,-34,-29
-8,-26,-18,17,5,-22,0,59,152,3,-31,-26
-8,-20,-12,14,2,-16,0,62,155,7,-29,-20
-9,-14,-5,11,-2,-9,1,63,158,12,-29,-14
-9,-10,-1,9,-4,-5,3,62,163,17,-29,-9
-8,-6,2,7,-5,-2,5,64,168,23,-25,-8
-8,-4,4,6,-6,0,8,67,173,31,-16,-8
-10,-2,8,6,-9,3,10,69,178,39,-7,-9
-13,0,13,6,-13,6,13,72,183,46,-1,-8
-14,2,16,6,-15,9,15,74,190,52,1,-9
-14,7,21,3,-17,14,18,77,197,56,3,-9
-14,12,26,1,-20,19,21,79,204,60,6,-7
-14,17,31,-1,-22,24,23,81,208,62,9,-4
-11,21,32,-5,-21,26,22,81,208,63,6,-2
-9,26,35,-8,-22,30,19,79,202,59,-1,-3
-11,35,46,-12,-28,40,18,73,192,50,-9,-6
-17,45,62,-14,-39,53,18,62,176,34,-16,-12
-22,50,72,-14,-47,61,20,46,151,13,-25,-18
-27,52,79,-12,-53,65,23,28,124,-8,-32,-22
-32,56,88,-12,-60,72,25,13,101,-23,-33,-25
-37,65,102,-14,-69,83,24,2,85,-32,-30,-24
-40,75,115,-17,-77,95,21,-4,74,-37,-26,-20
-40,84,124,-22,-82,104,15,-8,68,-33,-18,-8
-34,92,126,-29,-80,109,10,-10,70,-10,4,11
-23,99,122,-38,-72,110,0,-13,82,32,46,42
-7,109,116,-51,-61,112,-18,-14,101,90,108,81
12,119,107,-65,-47,113,-42,-8,129,158,179,124
35,123,88,-79,-26,105,-58,12,170,232,247,160
57,122,65,-89,-4,93,-69,35,193,305,311,191
72,120,48,-96,12,84,-85,37,157,372,377,221
83,118,35,-100,24,76,-105,17,71,437,446,256
97,112,15,-104,41,63,-125,-12,-25,510,518,297
116,95,-21,-105,68,37,-142,-47,-130,585,584,336
136,60,-76,-98,106,-8,-154,-84,-256,644,630,363
161,18,-143,-89,152,-62,-168,-123,-402,683,660,380
194,-6,-200,-94,197,-103,-194,-167,-556,707,685,397
226,-16,-242,-105,234,-129,-228,-221,-696,739,716,418
244,-24,-268,-110,256,-146,-261,-286,-802,809,756,437
248,-29,-277,-109,262,-153,-289,-364,-892,875,787,447
245,-23,-268,-111,256,-145,-312,-452,-1002,865,778,441
240,-8,-248,-116,244,-128,-334,-543,-1125,782,733,424
234,7,-227,-120,230,-110,-358,-627,-1235,675,675,407
229,17,-212,-123,220,-97,-383,-692,-1314,570,619,393
228,16,-212,-122,220,-98,-403,-728,-1358,474,575,381
228,0,-228,-114,228,-114,-416,-729,-1359,386,543,372
230,-34,-264,-98,247,-149,-424,-692,-1314,298,520,365
232,-81,-313,-75,272,-197,-425,-632,-1242,204,490,355
237,-132,-369,-52,303,-250,-417,-574,-1171,99,437,334
239,-175,-414,-32,326,-294,-400,-525,-1113,-25,360,305
232,-197,-429,-17,330,-313,-380,-483,-1065,-177,276,278
218,-201,-419,-8,318,-310,-358,-451,-1023,-330,190,249
202,-195,-397,-3,299,-296,-333,-429,-976,-443,104,209
180,-184,-364,2,272,-274,-302,-411,-918,-509,17,155
139,-167,-306,14,222,-236,-262,-386,-839,-541,-72,87
87,-147,-234,30,160,-190,-214,-352,-737,-545,-154,18
42,-125,-167,41,104,-146,-166,-313,-610,-519,-211,-35
10,-103,-113,46,61,-108,-123,-268,-467,-465,-234,-67
-7,-80,-73,43,33,-76,-88,-212,-325,-386,-222,-79
-16,-58,-42,37,13,-50,-60,-152,-198,-298,-193,-81
-23,-42,-19,32,-2,-30,-36,-100,-95,-219,-171,-85
-31,-35,-4,33,-13,-19,-15,-58,-18,-159,-159,-91
-39,-33,6,36,-22,-13,4,-24,36,-120,-145,-91
-46,-37,9,41,-27,-14,23,2,76,-97,-127,-87
-49,-43,6,46,-27,-18,41,22,110,-80,-109,-86
-48,-50,-2,49,-23,-26,55,38,142,-66,-95,-87
-46,-57,-11,51,-17,-34,61,54,170,-54,-86,-85
-43,-62,-19,52,-12,-40,63,69,190,-42,-82,-82
-42,-64,-22,53,-10,-43,62,80,199,-32,-80,-81
-42,-63,-21,52,-10,-42,63,86,200,-25,-78,-81
-42,-61,-19,51,-11,-40,62,87,199,-22,-78,-81
-42,-58,-16,50,-13,-37,62,87,199,-23,-81,-81
-44,-57,-13,50,-15,-35,64,87,199,-24,-84,-83
-47,-57,-10,52,-18,-33,67,87,199,-23,-86,-86
-48,-58,-10,53,-19,-34,70,85,201,-24,-87,-87
-48,-58,-10,53,-19,-34,72,82,203,-24,-87,-87
-47,-56,-9,51,-19,-32,73,81,203,-22,-86,-86
-48,-53,-5,50,-21,-29,72,81,200,-19,-86,-86
-47,-52,-5,49,-21,-28,74,82,197,-18,-87,-87
-47,-52,-5,49,-21,-28,77,82,195,-18,-86,-86
-49,-53,-4,51,-22,-28,78,82,194,-20,-87,-87
-52,-53,-1,52,-25,-27,77,82,194,-23,-87,-87
-53,-52,1,52,-27,-25,78,81,196,-24,-86,-86
-53,-53,0,53,-26,-26,81,81,199,-24,-86,-86
-53,-52,1,52,-27,-25,83,83,201,-23,-88,-88
-53,-52,1,52,-27,-25,86,86,203,-23,-91,-91
-51,-53,-2,52,-24,-27,88,87,204,-25,-92,-91
-48,-53,-5,50,-21,-29,91,87,204,-28,-92,-88
-45,-51,-6,48,-19,-28,94,86,203,-29,-90,-84
-43,-48,-5,45,-19,-26,96,86,203,-29,-87,-82
-42,-47,-5,44,-18,-26,97,88,205,-27,-86,-83
-43,-47,-4,45,-19,-25,96,91,207,-24,-86,-86
-42,-47,-5,44,-18,-26,98,94,212,-22,-87,-88
-42,-44,-2,43,-20,-23,101,96,217,-19,-87,-87
-47,-38,9,42,-28,-14,103,97,222,-17,-86,-84
-55,-31,24,43,-39,-3,106,97,227,-15,-87,-79
-62,-24,38,43,-50,7,108,96,232,-10,-86,-75
-67,-20,47,43,-57,13,111,96,237,-5,-86,-73
-68,-17,51,42,-59,17,112,98,242,-3,-87,-72
-68,-14,54,41,-61,20,112,100,246,-3,-87,-73
-67,-11,56,39,-61,22,111,104,250,-3,-85,-72
-67,-9,58,38,-62,24,111,106,252,-3,-82,-72
-68,-9,59,38,-63,25,112,105,253,-5,-83,-74
-68,-13,55,40,-61,21,111,102,253,-7,-86,-77
-67,-15,52,41,-59,18,112,101,251,-11,-87,-78
-67,-14,53,40,-60,19,112,101,248,-13,-87,-78
-68,-10,58,39,-63,24,111,101,246,-14,-86,-77
-68,-5,63,36,-65,29,111,101,247,-13,-87,-78
-67,-1,66,34,-66,32,113,104,250,-14,-86,-77
-67,0,67,33,-67,33,116,106,253,-17,-86,-77
-68,0,68,34,-68,34,117,104,250,-23,-89,-78
-68,-3,65,35,-66,31,117,98,241,-31,-95,-81
-67,-5,62,36,-64,28,117,93,232,-39,-101,-83
-67,-8,59,37,-63,25,117,88,225,-46,-105,-86
-68,-11,57,39,-62,23,115,84,221,-51,-108,-88
-68,-13,55,40,-61,21,112,79,219,-56,-111,-91
-67,-14,53,40,-60,19,109,74,215,-62,-114,-93
-67,-13,54,40,-60,20,107,69,210,-70,-120,-95
-69,-15,54,42,-61,19,106,65,206,-77,-126,-100
-72,-17,55,44,-63,19,106,63,201,-84,-133,-105
-75,-21,54,48,-64,16,107,63,194,-92,-142,-109
-77,-23,54,50,-65,15,107,63,183,-100,-149,-111
-78,-24,54,51,-66,15,106,60,173,-102,-150,-112
-78,-24,54,51,-66,15,106,54,163,-102,-146,-112
-78,-23,55,50,-66,16,107,48,154,-103,-145,-112
-78,-24,54,51,-66,15,107,43,147,-106,-145,-112
-76,-23,53,49,-64,15,103,42,145,-107,-146,-111
-73,-23,50,48,-61,13,94,42,146,-107,-145,-108
-70,-24,46,47,-58,11,86,43,143,-107,-146,-103
-68,-24,44,46,-56,10,79,43,137,-107,-146,-98
-67,-21,46,44,-56,12,74,42,133,-105,-143,-94
-67,-15,52,41,-59,18,69,39,131,-102,-137,-92
-68,-9,59,38,-63,25,65,37,129,-100,-132,-90
-68,-4,64,36,-66,30,63,34,127,-97,-127,-87
-66,-3,63,34,-64,30,63,33,123,-95,-123,-85
-63,-3,60,33,-61,28,63,33,118,-92,-122,-82
-60,-4,56,32,-58,26,60,34,113,-91,-122,-80
-58,-4,54,31,-56,25,54,34,108,-91,-122,-78
-57,-3,54,30,-55,25,48,32,102,-93,-118,-75
-57,-3,54,30,-55,25,44,29,94,-95,-109,-73
-58,-4,54,31,-56,25,41,27,86,-99,-102,-73
-58,-4,54,31,-56,25,39,24,79,-102,-97,-73
-56,-3,53,29,-54,25,37,22,74,-99,-95,-70
-53,-3,50,28,-51,23,35,19,69,-93,-93,-64
-51,-3,48,27,-49,22,30,16,64,-88,-89,-60
-48,-3,45,25,-46,21,25,14,58,-83,-83,-58
-46,-4,42,25,-44,19,20,13,57,-78,-78,-56
-43,-4,39,23,-41,17,15,14,57,-74,-74,-53
-42,-3,39,22,-40,18,10,12,57,-71,-70,-50
-42,-3,39,22,-40,18,5,9,54,-69,-68,-48
-43,-4,39,23,-41,17,2,8,48,-64,-66,-47
-43,-4,39,23,-41,17,0,8,41,-59,-64,-48
-42,-3,39,22,-40,18,-1,9,34,-56,-59,-47
-39,0,39,19,-39,19,-3,9,29,-53,-54,-44
-36,1,37,17,-36,19,-4,8,29,-50,-49,-40
-34,3,37,15,-35,20,-4,8,33,-44,-45,-35
-33,4,37,14,-35,20,-3,9,34,-39,-37,-30
-33,4,37,14,-35,20,-3,9,34,-35,-30,-25
-33,4,37,14,-35,20,-4,8,32,-32,-27,-23
-33,4,37,14,-35,20,-4,8,29,-30,-28,-23
-34,2,36,16,-35,19,-2,9,27,-25,-29,-24
-34,0,34,17,-34,17,0,9,24,-20,-29,-24
-30,0,30,15,-30,15,0,8,23,-17,-28,-22
-21,0,21,10,-21,10,0,8,23,-15,-25,-19
-14,0,14,7,-14,7,0,10,24,-10,-20,-16
-9,0,9,4,-9,4,0,13,27,-5,-15,-14
-8,0,8,4,-8,4,0,14,32,-2,-13,-13
-8,-3,5,5,-6,1,0,14,37,-3,-13,-13
-9,-6,3,7,-6,-1,-1,13,40,-5,-14,-14
-9,-8,1,8,-5,-3,-3,13,42,-4,-14,-14
-8,-9,-1,8,-3,-5,-4,15,44,0,-13,-13
-8,-9,-1,8,-3,-5,-4,18,47,6,-13,-13
-9,-9,0,9,-4,-4,-2,19,47,13,-14,-14
-9,-9,0,9,-4,-4,0,19,47,17,-14,-14
-8,-7,1,7,-4,-3,0,18,51,20,-12,-12
-8,-4,4,6,-6,0,0,19,60,23,-9,-9
-9,-2,7,5,-8,2,0,18,67,25,-7,-8
-9,0,9,4,-9,4,0,18,71,28,-4,-8
-8,0,8,4,-8,4,0,20,75,30,-1,-9
-8,0,8,4,-8,4,2,23,79,33,2,-9
-9,0,9,4,-9,4,7,24,87,35,6,-8
-9,0,9,4,-9,4,12,24,94,38,8,-8
-8,0,8,4,-8,4,16,24,99,40,9,-9
-8,3,11,2,-9,7,18,24,101,42,9,-9
-10,6,16,2,-13,11,20,23,102,44,8,-8
-13,8,21,2,-17,14,23,23,105,47,9,-8
-14,9,23,2,-18,16,25,26,111,50,8,-10
-14,8,22,3,-18,15,28,32,119,52,8,-13
-14,9,23,2,-18,16,30,37,126,52,9,-14
-14,9,23,2,-18,16,33,42,130,52,9,-13
-13,7,20,3,-16,13,35,44,132,54,5,-14
-13,4,17,4,-15,10,38,43,131,57,-1,-17
-18,5,23,6,-20,14,41,40,128,56,-7,-22
-26,8,34,9,-30,21,45,32,117,46,-14,-30
-33,9,42,12,-37,25,52,19,95,18,-30,-40
-37,8,45,14,-41,26,60,4,69,-14,-48,-50
-41,11,52,15,-46,31,67,-7,53,-37,-57,-56
-45,17,62,14,-53,39,71,-15,40,-54,-63,-60
-53,21,74,16,-63,47,75,-26,14,-87,-82,-68
-61,23,84,19,-72,53,80,-39,-19,-126,-106,-76
-64,23,87,20,-75,55,85,-49,-42,-146,-116,-75
-60,23,83,18,-71,53,85,-58,-54,-141,-102,-61
-51,26,77,12,-64,51,69,-73,-66,-118,-63,-31
-38,29,67,4,-52,48,45,-85,-77,-84,-12,3
-24,24,48,0,-36,36,28,-84,-76,-48,33,31
-8,15,23,-3,-15,19,18,-78,-87,-10,78,54
6,15,9,-10,-1,12,2,-83,-152,35,140,84
22,22,0,-22,11,11,-17,-106,-268,85,214,122
43,25,-18,-34,30,3,-36,-142,-403,135,284,163
66,16,-50,-41,58,-17,-52,-182,-541,191,351,205
85,-11,-96,-37,90,-53,-68,-216,-670,265,426,245
104,-47,-151,-28,127,-99,-88,-247,-795,343,509,284
129,-71,-200,-29,164,-135,-117,-282,-929,403,588,323
157,-78,-235,-39,196,-156,-155,-328,-1057,463,663,362
177,-72,-249,-52,213,-160,-199,-384,-1151,565,736,398
188,-55,-243,-66,215,-149,-243,-452,-1229,673,796,427
191,-29,-220,-81,205,-124,-284,-532,-1330,711,822,442
190,3,-187,-96,188,-92,-320,-613,-1441,669,808,441
188,33,-155,-110,171,-61,-350,-683,-1518,581,757,429
189,57,-132,-123,160,-37,-377,-731,-1549,477,692,413
193,69,-124,-131,158,-27,-399,-749,-1543,384,642,402
198,64,-134,-131,166,-35,-416,-734,-1501,301,607,393
201,37,-164,-119,182,-63,-420,-685,-1416,210,564,378
202,-3,-205,-99,203,-104,-413,-614,-1305,103,500,352
207,-48,-255,-79,231,-151,-398,-544,-1197,-22,409,315
210,-86,-296,-62,253,-191,-375,-482,-1099,-158,302,272
199,-114,-313,-42,256,-213,-343,-427,-1005,-290,202,230
174,-131,-305,-21,239,-218,-301,-379,-907,-400,106,183
145,-142,-287,-1,216,-214,-256,-341,-799,-470,3,121
113,-143,-256,15,184,-199,-209,-308,-687,-499,-97,51
77,-131,-208,27,142,-169,-166,-272,-588,-498,-171,-9
40,-110,-150,35,95,-130,-125,-230,-488,-467,-212,-52
10,-85,-95,37,52,-90,-83,-179,-355,-396,-223,-78
-9,-64,-55,36,23,-59,-44,-124,-206,-306,-211,-90
-21,-48,-27,34,3,-37,-17,-75,-85,-229,-185,-93
-27,-40,-13,33,-7,-26,0,-35,-2,-172,-155,-92
-30,-39,-9,34,-10,-24,12,-3,55,-125,-129,-91
-32,-42,-10,37,-11,-26,24,21,96,-87,-111,-92
-39,-44,-5,41,-17,-24,37,42,124,-63,-101,-90
-49,-46,3,47,-26,-21,49,59,142,-50,-97,-87
-57,-52,5,54,-31,-23,59,67,150,-44,-94,-86
-58,-61,-3,59,-27,-32,66,71,157,-43,-92,-86
-54,-64,-10,59,-22,-37,68,76,171,-42,-92,-88
-51,-66,-15,58,-18,-40,67,84,189,-40,-92,-91
-58,-72,-14,65,-22,-43,70,92,200,-35,-89,-91
-59,-70,-11,64,-24,-40,67,91,196,-38,-91,-96
-25,-34,-9,29,-8,-21,45,68,170,-60,-115,-119
44,34,-10,-39,27,12,3,22,125,-104,-161,-162
129,119,-10,-124,69,54,-48,-33,68,-157,-218,-217
189,179,-10,-184,99,84,-84,-74,26,-196,-259,-258
177,166,-11,-171,94,77,-73,-66,39,-188,-251,-251
106,95,-11,-100,58,42,-26,-19,95,-140,-203,-203
27,19,-8,-23,17,5,21,34,153,-87,-151,-151
-28,-32,-4,30,-12,-18,55,74,192,-47,-114,-114
-47,-50,-3,48,-22,-26,70,88,205,-30,-99,-99
-41,-45,-4,43,-18,-24,72,83,201,-28,-97,-97
-37,-41,-4,39,-16,-22,74,80,199,-28,-94,-94
-41,-42,-1,41,-20,-21,77,81,202,-24,-88,-88
-45,-42,3,43,-24,-19,78,82,205,-23,-85,-85
-47,-40,7,43,-27,-16,78,81,208,-23,-86,-86
-49,-36,13,42,-31,-11,77,83,210,-23,-88,-89
-52,-34,18,43,-35,-8,77,86,213,-23,-91,-91
-53,-33,20,43,-36,-6,78,86,214,-25,-93,-91
-53,-34,19,43,-36,-7,81,83,214,-28,-96,-88
-52,-32,20,42,-36,-6,84,80,213,-29,-97,-84
-52,-29,23,40,-37,-3,86,78,214,-28,-97,-82
-53,-27,26,40,-39,0,87,77,213,-30,-96,-83
-53,-25,28,39,-40,1,86,77,213,-32,-97,-86
-52,-20,32,36,-42,6,88,78,215,-35,-96,-87
-52,-15,37,33,-44,11,91,78,218,-38,-96,-87
-54,-12,42,33,-48,15,92,77,219,-40,-98,-86
-57,-13,44,35,-50,15,92,77,219,-42,-101,-86
-58,-15,43,36,-50,14,91,78,219,-43,-103,-88
-58,-18,40,38,-49,11,91,78,219,-42,-106,-91
-57,-20,37,38,-47,8,92,77,218,-44,-109,-92
-57,-23,34,40,-45,5,92,77,215,-47,-111,-92
-58,-25,33,41,-45,4,91,78,210,-49,-111,-91
-58,-27,31,42,-44,2,92,78,205,-51,-111,-91
-57,-32,25,44,-41,-3,91,75,200,-57,-114,-94
-57,-37,20,47,-38,-8,91,69,196,-65,-120,-100
-58,-40,18,49,-38,-11,92,65,192,-73,-123,-104
-58,-42,16,50,-37,-13,92,63,187,-80,-124,-106
-57,-44,13,50,-35,-15,91,61,180,-85,-129,-109
-57,-47,10,52,-33,-18,91,58,172,-89,-137,-114
-59,-48,11,53,-35,-18,93,56,164,-97,-146,-120
-62,-48,14,55,-38,-17,96,53,157,-104,-154,-125
-63,-47,16,55,-39,-15,97,51,155,-109,-158,-126
-62,-47,15,54,-38,-16,97,48,156,-111,-160,-125
-64,-47,17,55,-40,-15,96,47,154,-114,-163,-127
-67,-47,20,57,-43,-13,96,47,148,-119,-168,-130
-68,-48,20,58,-44,-14,97,48,140,-127,-172,-131
-68,-48,20,58,-44,-14,97,48,133,-134,-174,-131
-67,-46,21,56,-44,-12,95,46,127,-137,-176,-130
-67,-43,24,55,-45,-9,93,43,123,-139,-179,-130
-68,-43,25,55,-46,-9,90,41,119,-144,-180,-131
-68,-46,22,57,-45,-12,87,39,114,-152,-180,-131
-67,-50,17,58,-42,-16,85,37,107,-162,-179,-130
-67,-52,15,59,-41,-18,83,34,99,-172,-179,-130
-68,-53,15,60,-41,-19,79,32,92,-178,-181,-132
-68,-53,15,60,-41,-19,74,29,84,-179,-184,-135
-67,-53,14,60,-40,-19,69,27,77,-180,-185,-136
-67,-53,14,60,-40,-19,64,24,70,-180,-185,-136
-68,-51,17,59,-42,-17,60,22,64,-179,-184,-134
-68,-49,19,58,-43,-15,58,19,59,-179,-184,-131
-66,-46,20,56,-43,-13,57,18,54,-180,-187,-130
-63,-43,20,53,-41,-11,54,19,49,-180,-190,-130
-62,-41,21,51,-41,-10,47,18,46,-179,-187,-131
-62,-39,23,50,-42,-8,37,15,44,-179,-181,-131
-63,-37,26,50,-44,-5,27,10,38,-180,-177,-128
-63,-35,28,49,-45,-3,20,5,27,-180,-175,-123
-60,-32,28,46,-44,-2,16,2,16,-179,-173,-119
-54,-29,25,41,-39,-2,14,0,7,-179,-171,-117
-50,-28,22,39,-36,-3,12,-2,0,-181,-168,-116
-48,-29,19,38,-33,-5,9,-7,-7,-184,-165,-116
-47,-28,19,37,-33,-4,8,-11,-12,-185,-164,-117
-47,-25,22,36,-34,-1,8,-13,-17,-185,-164,-116
-48,-21,27,34,-37,3,9,-15,-21,-184,-165,-117
-48,-19,29,33,-38,5,9,-18,-26,-184,-165,-117
-47,-18,29,32,-38,5,7,-20,-33,-185,-164,-115
-47,-19,28,33,-37,4,5,-23,-41,-185,-164,-113
-48,-17,31,32,-39,7,2,-25,-45,-184,-164,-109
-48,-14,34,31,-41,10,0,-28,-47,-184,-164,-107
-47,-13,34,30,-40,10,0,-30,-50,-186,-165,-106
-47,-13,34,30,-40,10,0,-33,-56,-189,-165,-107
-48,-14,34,31,-41,10,0,-34,-60,-191,-164,-105
-48,-14,34,31,-41,10,0,-34,-62,-190,-162,-102
-47,-13,34,30,-40,10,0,-33,-64,-186,-157,-101
-47,-13,34,30,-40,10,0,-33,-67,-181,-152,-101
-48,-14,34,31,-41,10,0,-34,-69,-178,-149,-102
-48,-14,34,31,-41,10,0,-34,-69,-176,-147,-102
-46,-13,33,29,-39,10,0,-32,-64,-170,-143,-101
-41,-13,28,27,-34,7,0,-30,-59,-160,-137,-98
-35,-14,21,24,-28,3,0,-27,-57,-148,-132,-93
-30,-14,16,22,-23,1,0,-24,-58,-138,-127,-88
-28,-12,16,20,-22,2,-1,-23,-55,-131,-122,-84
-28,-10,18,19,-23,4,-3,-23,-49,-127,-114,-79
-29,-7,22,18,-25,7,-4,-24,-45,-124,-106,-74
-29,-4,25,16,-27,10,-4,-24,-40,-119,-99,-69
-28,-2,26,15,-27,12,-3,-22,-34,-109,-94,-66
-28,0,28,14,-28,14,-3,-19,-26,-96,-91,-67
-29,1,30,14,-29,15,-6,-17,-19,-84,-92,-68
-29,3,32,13,-30,17,-12,-15,-11,-75,-93,-68
-28,4,32,12,-30,18,-15,-11,-3,-68,-87,-65
-28,4,32,12,-30,18,-14,-5,5,-60,-76,-59
-29,3,32,13,-30,17,-12,0,15,-52,-66,-55
-29,3,32,13,-30,17,-10,3,25,-45,-59,-53
-27,4,31,11,-29,17,-6,4,34,-39,-57,-51
-25,4,29,10,-27,16,-4,4,40,-35,-57,-48
-22,4,26,9,-24,15,-3,2,47,-31,-57,-47
-19,4,23,7,-21,13,-4,2,54,-25,-54,-47
-17,3,20,7,-18,11,-2,7,64,-20,-50,-48
-14,3,17,5,-15,10,2,16,74,-15,-48,-48
-13,4,17,4,-15,10,7,23,83,-12,-47,-47
-13,4,17,4,-15,10,12,27,90,-9,-47,-47
-15,2,17,6,-16,9,15,30,93,-7,-48,-49
-18,0,18,9,-18,9,18,33,95,-4,-48,-52
-19,0,19,9,-19,9,20,35,99,-3,-46,-53
-19,0,19,9,-19,9,23,38,105,-3,-43,-53
-17,0,17,8,-17,8,24,39,109,-3,-44,-52
-14,0,14,7,-14,7,24,39,111,-1,-47,-53
-13,-1,12,7,-12,5,23,38,112,2,-48,-52
-13,-3,10,8,-11,3,24,38,112,4,-47,-52
-16,-5,11,10,-13,3,23,39,111,0,-50,-54
-21,-7,14,14,-17,3,23,38,111,-10,-55,-56
-28,-12,16,20,-22,2,25,39,112,-19,-61,-59
-33,-17,16,25,-24,0,28,39,112,-27,-66,-62
-33,-19,14,26,-23,-2,29,38,111,-31,-71,-64
-30,-19,11,24,-20,-4,29,38,111,-33,-76,-67
-28,-18,10,23,-19,-4,28,40,113,-33,-79,-69
-28,-18,10,23,-19,-4,28,42,115,-33,-81,-72
-29,-19,10,24,-19,-4,29,43,119,-35,-82,-74
-29,-19,10,24,-19,-4,29,43,121,-37,-82,-77
-28,-18,10,23,-19,-4,27,42,122,-40,-81,-79
-29,-18,11,23,-20,-3,24,42,121,-42,-81,-81
-28,-20,8,24,-18,-6,23,44,123,-42,-83,-82
-28,-22,6,25,-17,-8,23,47,125,-42,-85,-82
-29,-25,4,27,-16,-10,25,48,126,-44,-88,-82
-29,-28,1,28,-15,-13,28,48,125,-47,-91,-82
-27,-29,-2,28,-12,-15,29,47,127,-48,-92,-80
-25,-29,-4,27,-10,-16,29,48,130,-48,-92,-78
-22,-28,-6,25,-8,-17,29,47,131,-47,-91,-77
-19,-28,-9,23,-5,-18,29,47,131,-47,-92,-77
-18,-29,-11,23,-3,-20,27,49,129,-49,-91,-78
-18,-29,-11,23,-3,-20,24,52,126,-51,-91,-78
-19,-28,-9,23,-5,-18,23,53,125,-54,-93,-77
-19,-28,-9,23,-5,-18,23,53,125,-57,-96,-77
-18,-29,-11,23,-3,-20,24,52,126,-58,-97,-78
-18,-28,-10,23,-4,-19,24,52,126,-58,-97,-78
-20,-29,-9,24,-5,-19,23,53,125,-57,-96,-77
-23,-29,-6,26,-8,-17,23,53,125,-58,-96,-77
-24,-28,-4,26,-10,-16,25,52,127,-57,-97,-78
-24,-28,-4,26,-10,-16,27,52,130,-57,-97,-78
-24,-29,-5,26,-9,-17,31,53,131,-59,-96,-76
-24,-29,-5,26,-9,-17,33,53,131,-62,-96,-73
-22,-28,-6,25,-8,-17,34,52,129,-63,-99,-72
-19,-25,-6,22,-6,-15,33,49,124,-65,-105,-72
-20,-19,1,19,-10,-9,35,43,115,-73,-109,-75
-26,-11,15,18,-20,2,37,33,99,-89,-114,-79
-32,-6,26,19,-29,10,40,20,76,-111,-123,-85
-37,-2,35,19,-36,16,42,5,51,-134,-133,-90
-41,5,46,18,-43,25,43,-7,31,-149,-137,-92
-46,15,61,15,-53,38,43,-16,17,-157,-136,-92
-50,24,74,13,-62,49,42,-21,9,-166,-135,-92
-53,32,85,10,-69,58,40,-23,4,-171,-130,-89
-51,36,87,7,-69,61,36,-24,4,-160,-111,-78
-43,40,83,1,-63,61,28,-24,17,-126,-72,-55
-29,49,78,-10,-53,63,12,-20,57,-64,-13,-17
-11,60,71,-24,-41,65,-7,-5,122,19,56,27
8,64,56,-36,-24,60,-21,25,201,110,124,66
27,63,36,-45,-4,49,-30,59,260,198,189,100
43,62,19,-52,12,40,-42,74,257,278,258,133
57,63,6,-60,25,34,-60,68,200,355,333,169
74,61,-13,-67,43,24,-79,51,132,439,407,212
94,48,-46,-71,70,1,-93,29,55,526,478,254
113,16,-97,-64,105,-40,-98,0,-56,601,539,286
132,-25,-157,-53,144,-91,-100,-34,-198,659,591,308
158,-55,-213,-51,185,-134,-109,-71,-343,705,640,331
186,-67,-253,-59,219,-160,-130,-118,-479,752,689,356
204,-66,-270,-69,237,-168,-160,-186,-602,818,736,380
209,-54,-263,-77,236,-158,-193,-272,-722,873,768,397
207,-33,-240,-87,223,-136,-220,-366,-859,856,761,398
202,-6,-208,-98,205,-107,-243,-464,-1008,766,718,385
196,19,-177,-107,186,-79,-271,-564,-1149,642,657,371
191,38,-153,-114,172,-57,-301,-655,-1269,510,595,359
189,45,-144,-117,166,-49,-327,-719,-1358,386,545,350
189,37,-152,-113,170,-57,-345,-744,-1400,273,508,343
190,9,-181,-99,185,-86,-357,-719,-1379,168,478,336
193,-31,-224,-81,208,-127,-361,-662,-1317,62,442,324
198,-75,-273,-61,235,-174,-355,-603,-1258,-59,383,301
201,-114,-315,-43,258,-214,-342,-556,-1211,-198,301,269
194,-140,-334,-27,264,-237,-325,-517,-1165,-346,211,238
177,-153,-330,-12,253,-241,-308,-486,-1113,-484,117,205
157,-159,-316,1,236,-237,-289,-467,-1058,-583,21,159
133,-156,-289,11,211,-222,-264,-452,-994,-638,-73,101
99,-136,-235,18,167,-185,-229,-425,-911,-656,-159,37
61,-105,-166,22,113,-135,-186,-386,-803,-642,-227,-23
29,-71,-100,21,64,-85,-143,-342,-669,-596,-272,-69
9,-39,-48,15,28,-43,-104,-293,-519,-523,-286,-96
-2,-12,-10,7,4,-11,-73,-235,-373,-436,-266,-105
-7,11,18,-2,-12,14,-47,-173,-246,-344,-224,-103
-10,29,39,-9,-24,34,-25,-117,-142,-261,-187,-101
-12,41,53,-14,-32,47,-6,-72,-63,-195,-163,-102
-18,42,60,-12,-39,51,8,-36,-4,-148,-144,-98
-26,33,59,-3,-42,46,20,-8,42,-116,-128,-90
-30,20,50,5,-40,35,29,12,82,-91,-111,-83
-29,7,36,11,-32,21,36,28,119,-69,-96,-79
-27,0,27,13,-27,13,42,42,147,-54,-88,-76
-24,-3,21,13,-22,9,46,54,166,-45,-86,-73
-23,-4,19,13,-21,7,50,62,172,-39,-86,-72
-23,-4,19,13,-21,7,52,67,170,-34,-86,-72
-23,-2,21,12,-22,9,53,67,169,-34,-88,-72
-23,0,23,11,-23,11,52,64,169,-37,-90,-72
-25,0,25,12,-25,12,53,60,169,-40,-93,-74
-28,0,28,14,-28,14,56,58,169,-42,-96,-76
-29,-2,27,15,-28,12,59,57,172,-43,-97,-79
-29,-7,22,18,-25,7,62,57,178,-43,-97,-81
-28,-11,17,19,-22,3,63,59,181,-41,-96,-83
-29,-13,16,21,-22,1,63,61,180,-39,-96,-86
-28,-14,14,21,-21,0,63,64,178,-38,-97,-87
-28,-14,14,21,-21,0,63,66,175,-38,-96,-87
-30,-13,17,21,-23,2,61,69,174,-40,-97,-86
-33,-13,20,23,-26,3,59,72,174,-42,-97,-87
-34,-14,20,24,-27,3,56,73,176,-43,-96,-86
-34,-14,20,24,-27,3,54,72,178,-43,-96,-86
-33,-13,20,23,-26,3,50,74,181,-42,-97,-88
-33,-13,20,23,-26,3,48,77,184,-42,-100,-91
-34,-14,20,24,-27,3,48,78,185,-44,-104,-92
-34,-14,20,24,-27,3,51,78,185,-47,-110,-92
-33,-12,21,22,-27,4,55,77,185,-48,-114,-91
-33,-9,24,21,-28,7,57,77,185,-47,-116,-91
-34,-8,26,21,-30,9,58,78,184,-49,-117,-93
-34,-9,25,21,-29,8,57,78,184,-51,-117,-96
-33,-7,26,20,-29,9,59,77,186,-54,-116,-97
-33,-4,29,18,-31,12,62,77,189,-56,-116,-97
-35,-3,32,19,-33,14,63,77,189,-59,-118,-96
-38,-3,35,20,-36,16,63,77,186,-62,-121,-96
-39,-5,34,22,-36,14,62,78,182,-63,-123,-98
-38,-8,30,23,-34,11,62,78,180,-62,-125,-101
-39,-9,30,24,-34,10,63,77,179,-64,-127,-102
-41,-9,32,25,-36,11,63,77,180,-66,-130,-102
-44,-8,36,26,-40,14,62,78,178,-69,-131,-101
-47,-8,39,27,-43,15,62,78,175,-72,-131,-101
-48,-11,37,29,-42,13,64,76,174,-74,-131,-103
-48,-17,31,32,-39,7,66,73,174,-76,-131,-106
-47,-21,26,34,-36,2,69,72,175,-79,-129,-107
-48,-23,25,35,-36,1,72,72,175,-81,-126,-107
-47,-24,23,35,-35,0,74,73,174,-81,-126,-106
-47,-24,23,35,-35,0,76,72,171,-78,-129,-106
-49,-22,27,35,-38,2,80,73,167,-77,-133,-107
-52,-19,33,35,-42,7,85,73,165,-77,-135,-107
-53,-18,35,35,-44,8,87,71,166,-78,-136,-106
-52,-18,34,35,-43,8,87,68,169,-80,-135,-106
-54,-19,35,36,-44,8,86,67,169,-84,-137,-108
-57,-18,39,37,-48,10,86,67,166,-89,-139,-111
-58,-19,39,38,-48,10,87,68,162,-95,-142,-112
-58,-19,39,38,-48,10,87,68,157,-100,-144,-112
-57,-17,40,37,-48,11,85,66,154,-102,-147,-111
-57,-14,43,35,-50,14,82,64,151,-102,-150,-111
-58,-13,45,35,-51,16,81,61,149,-102,-151,-112
-58,-13,45,35,-51,16,81,58,147,-105,-151,-112
-57,-14,43,35,-50,14,82,56,143,-110,-151,-111
-57,-14,43,35,-50,14,82,53,137,-115,-151,-111
-58,-12,46,35,-52,17,81,51,133,-118,-150,-112
-58,-10,48,34,-53,19,78,48,131,-117,-147,-112
-57,-7,50,32,-53,21,76,46,129,-115,-143,-110
-57,-4,53,30,-55,24,74,43,127,-113,-137,-108
-58,-2,56,30,-57,27,71,41,123,-109,-133,-105
-58,0,58,29,-58,29,68,39,119,-104,-131,-102
-56,0,56,28,-56,28,66,38,113,-98,-131,-101
-54,2,56,26,-55,29,64,38,107,-93,-132,-102
-51,6,57,22,-54,31,59,39,107,-89,-126,-101
-49,11,60,19,-54,35,54,39,111,-84,-115,-98
-46,17,63,14,-54,40,52,37,112,-78,-107,-94
-43,22,65,10,-54,43,53,35,109,-74,-103,-88
-42,25,67,8,-54,46,51,32,102,-72,-99,-84
-43,28,71,7,-57,49,45,29,95,-73,-93,-79
-42,30,72,6,-57,51,39,27,87,-71,-89,-74
-40,33,73,3,-56,53,35,24,80,-68,-87,-69
-37,35,72,1,-54,53,32,23,75,-67,-85,-66
-34,37,71,-1,-52,54,29,20,70,-67,-83,-63
-32,41,73,-4,-52,57,27,14,62,-68,-79,-61
-30,43,73,-6,-51,58,25,6,51,-68,-75,-59
-26,41,67,-7,-46,54,22,1,43,-66,-69,-56
-21,35,56,-7,-38,45,19,0,36,-64,-64,-53
-15,31,46,-8,-30,38,18,0,29,-61,-60,-51
-10,29,39,-9,-24,34,19,0,21,-58,-58,-48
-8,28,36,-10,-22,32,17,0,15,-57,-57,-46
-8,28,36,-10,-22,32,15,0,10,-57,-57,-44
-9,29,38,-10,-23,33,12,0,6,-58,-58,-41
-9,29,38,-10,-23,33,10,0,2,-58,-58,-39
-8,26,34,-9,-21,30,6,-2,-4,-56,-56,-39
-8,20,28,-6,-18,24,1,-7,-11,-53,-54,-39
-9,17,26,-4,-17,21,-2,-10,-16,-52,-51,-37
-9,18,27,-4,-18,22,-7,-12,-17,-52,-48,-34
-8,19,27,-5,-17,23,-11,-16,-21,-52,-47,-34
-8,22,30,-7,-19,26,-16,-22,-26,-52,-48,-34
-9,27,36,-9,-22,31,-22,-24,-31,-53,-47,-31
-9,32,41,-11,-25,36,-27,-24,-33,-53,-44,-25
-8,34,42,-13,-25,38,-30,-23,-33,-50,-41,-22
-8,34,42,-13,-25,38,-33,-23,-30,-44,-39,-23
-9,33,42,-12,-25,37,-35,-24,-26,-41,-38,-24
-9,33,42,-12,-25,37,-38,-24,-21,-40,-39,-24
-7,34,41,-13,-24,37,-39,-22,-13,-35,-37,-24
-5,34,39,-14,-22,36,-39,-20,-3,-27,-35,-24
-2,34,36,-16,-19,35,-38,-17,3,-18,-32,-22
0,34,34,-17,-17,34,-38,-14,7,-11,-29,-19
1,33,32,-17,-15,32,-39,-12,11,-6,-27,-18
3,33,30,-18,-13,31,-42,-9,16,-4,-24,-18
5,34,29,-19,-12,31,-43,-7,22,-2,-22,-19
8,34,26,-21,-9,30,-43,-5,27,0,-20,-19
9,32,23,-20,-7,27,-40,-2,31,1,-17,-18
9,30,21,-19,-6,25,-35,2,33,3,-14,-18
9,27,18,-18,-4,22,-33,7,34,4,-13,-19
9,25,16,-17,-3,20,-33,12,37,3,-14,-19
7,21,14,-14,-3,17,-34,16,42,4,-12,-17
5,16,11,-10,-3,13,-34,18,49,7,-9,-14
2,10,8,-6,-3,9,-32,20,57,10,-8,-13
0,5,5,-2,-2,5,-30,22,65,13,-8,-13
0,2,2,-1,-1,2,-27,26,71,14,-10,-14
0,0,0,0,0,0,-24,31,76,14,-13,-17
0,-1,-1,0,0,-1,-23,36,80,13,-14,-22
0,-3,-3,1,1,-3,-23,41,84,13,-14,-27
0,-4,-4,2,2,-4,-24,45,91,15,-13,-29
3,-4,-7,0,5,-5,-24,47,99,18,-13,-29
4,-3,-7,0,5,-5,-24,48,105,19,-15,-28
4,-3,-7,0,5,-5,-24,47,110,18,-17,-28
2,-4,-6,1,4,-5,-23,48,113,20,-20,-29
0,-4,-4,2,2,-4,-23,51,115,23,-23,-29
0,-3,-3,1,1,-3,-24,54,119,24,-24,-27
0,-1,-1,0,0,-1,-25,57,124,23,-23,-24
0,1,1,0,0,1,-20,58,128,24,-25,-24
0,3,3,-1,-1,3,-12,58,130,27,-28,-27
-1,4,5,-1,-3,4,-4,57,131,31,-29,-30
-3,4,7,0,-5,5,2,57,130,33,-29,-33
-4,4,8,0,-6,6,5,58,131,32,-28,-34
-4,4,8,0,-6,6,7,57,134,29,-29,-34
-3,3,6,0,-4,4,11,58,137,28,-28,-33
-4,0,4,2,-4,2,17,58,140,29,-28,-33
-3,-1,2,2,-2,0,19,57,141,27,-30,-35
-3,-3,0,3,-1,-1,19,57,140,24,-33,-37
-5,-5,0,5,-2,-2,18,59,142,23,-34,-40
-7,-8,-1,7,-3,-4,18,62,144,24,-33,-42
-10,-9,1,9,-5,-4,19,63,146,23,-34,-43
-12,-9,3,10,-7,-3,19,63,146,20,-37,-43
-15,-8,7,11,-11,0,17,62,144,17,-40,-42
-18,-8,10,13,-14,1,15,62,141,14,-42,-42
-19,-9,10,14,-14,0,12,63,140,12,-44,-44
-19,-9,10,14,-14,0,9,63,141,10,-46,-46
-18,-9,9,13,-13,0,8,61,139,6,-49,-49
-18,-9,9,13,-13,0,8,58,136,1,-52,-52
-18,-8,10,13,-14,1,9,57,136,-1,-53,-53
-18,-8,10,13,-14,1,9,57,139,-3,-53,-52
-19,-9,10,14,-14,0,8,57,141,-5,-52,-54
-19,-9,10,14,-14,0,8,57,141,-8,-53,-57
-17,-7,10,12,-13,1,9,59,140,-9,-52,-58
-15,-5,10,10,-12,2,12,62,140,-9,-52,-58
-12,-2,10,7,-11,4,17,63,142,-8,-54,-57
-9,0,9,4,-9,4,22,63,145,-8,-56,-57
-8,0,8,4,-8,4,24,61,145,-10,-59,-58
-8,0,8,4,-8,4,24,59,142,-12,-61,-58
-10,0,10,5,-10,5,23,56,138,-15,-64,-57
-13,0,13,6,-13,6,23,53,136,-18,-67,-57
-14,0,14,7,-14,7,25,52,137,-19,-68,-59
-14,0,14,7,-14,7,27,52,140,-18,-68,-62
-14,0,14,7,-14,7,30,52,141,-20,-67,-63
-14,0,14,7,-14,7,33,52,141,-23,-66,-63
-13,-1,12,7,-12,5,34,53,141,-24,-71,-63
-12,-3,9,7,-10,3,33,53,141,-26,-79,-66
-17,-3,14,10,-15,5,34,50,139,-33,-85,-71
-25,0,25,12,-25,12,37,43,129,-48,-92,-78
-32,0,32,16,-32,16,40,30,105,-73,-106,-87
-37,0,37,18,-37,18,42,14,71,-102,-124,-94
-41,1,42,20,-41,21,43,1,41,-122,-137,-99
-45,6,51,19,-48,28,42,-6,20,-134,-143,-101
-51,13,64,19,-57,38,43,-11,7,-152,-150,-103
-56,21,77,17,-66,49,46,-13,1,-170,-156,-103
-57,26,83,15,-70,54,49,-14,0,-175,-149,-96
-52,30,82,11,-67,56,47,-14,9,-153,-121,-76
-39,40,79,0,-59,59,32,-13,41,-100,-66,-39
-22,54,76,-16,-49,65,8,-6,95,-21,4,6
-2,60,62,-29,-32,61,-8,14,161,64,72,46
17,62,45,-39,-14,53,-18,40,211,147,136,78
32,66,34,-49,-1,50,-33,52,210,224,208,112
46,74,28,-60,9,51,-54,45,164,298,290,151
63,81,18,-72,22,49,-74,27,108,379,375,197
83,76,-7,-79,45,34,-91,2,39,463,454,241
102,47,-55,-74,78,-4,-103,-27,-72,540,518,276
121,2,-119,-61,120,-58,-114,-62,-224,603,570,302
146,-30,-176,-58,161,-103,-135,-100,-385,649,616,326
174,-44,-218,-65,196,-131,-165,-146,-531,697,665,353
195,-51,-246,-72,220,-148,-200,-209,-652,780,722,384
206,-53,-259,-76,232,-156,-232,-287,-758,871,772,411
210,-49,-259,-80,234,-154,-258,-371,-877,896,789,424
210,-34,-244,-88,227,-139,-281,-461,-1014,840,765,422
206,-5,-211,-100,208,-108,-308,-561,-1154,732,712,411
201,29,-172,-115,186,-71,-339,-661,-1281,603,648,396
198,57,-141,-127,169,-42,-364,-737,-1379,481,594,382
198,63,-135,-130,166,-36,-383,-772,-1427,373,557,372
203,40,-163,-121,183,-61,-399,-751,-1410,271,531,368
213,-6,-219,-103,216,-112,-411,-690,-1345,164,501,364
227,-59,-286,-84,256,-172,-414,-628,-1282,45,448,351
238,-103,-341,-67,289,-222,-409,-578,-1233,-92,371,328
235,-130,-365,-52,300,-247,-397,-538,-1188,-248,284,301
221,-143,-364,-39,292,-253,-381,-506,-1142,-403,194,272
204,-148,-352,-28,278,-250,-365,-486,-1092,-519,102,234
183,-145,-328,-19,255,-236,-343,-471,-1033,-590,10,183
146,-129,-275,-8,210,-202,-307,-446,-958,-628,-84,112
97,-103,-200,3,148,-151,-259,-408,-861,-638,-172,34
54,-76,-130,11,92,-103,-211,-363,-741,-619,-239,-31
23,-50,-73,13,48,-61,-167,-314,-602,-570,-271,-72
4,-22,-26,9,15,-24,-128,-258,-454,-490,-263,-87
-5,7,12,-1,-8,9,-92,-198,-312,-391,-228,-84
-13,33,46,-10,-29,39,-58,-146,-191,-299,-198,-80
-20,49,69,-14,-44,59,-28,-103,-98,-227,-181,-81
-29,52,81,-11,-55,66,-8,-65,-33,-177,-165,-81
-36,44,80,-4,-58,62,4,-31,12,-143,-148,-78
-40,31,71,4,-55,51,15,-4,51,-114,-131,-77
-39,18,57,10,-48,37,25,16,87,-90,-116,-78
-37,8,45,14,-41,26,31,33,120,-72,-106,-76
-34,2,36,16,-35,19,33,47,147,-61,-99,-73
-33,-2,31,17,-32,14,34,59,163,-52,-93,-72
-33,-4,29,18,-31,12,34,66,169,-44,-88,-72
-33,-3,30,18,-31,13,33,68,170,-41,-87,-72
-33,0,33,16,-33,16,33,68,170,-42,-90,-72
-35,0,35,17,-35,17,34,67,169,-43,-94,-74
-38,0,38,19,-38,19,37,68,168,-43,-96,-77
-39,-1,38,20,-38,18,41,67,173,-43,-97,-78
-39,-3,36,21,-37,16,46,67,181,-43,-97,-78
-38,-4,34,21,-36,15,49,69,188,-42,-96,-77
-39,-4,35,21,-37,15,52,72,190,-40,-96,-77
-38,-3,35,20,-36,16,54,73,188,-37,-96,-78
-38,-3,35,20,-36,16,57,73,186,-34,-96,-77
-40,-4,36,22,-38,16,58,73,184,-33,-97,-78
-42,-4,38,23,-40,17,58,73,184,-33,-97,-78
-42,-2,40,22,-41,19,58,71,186,-34,-95,-77
-40,1,41,19,-40,21,58,68,188,-34,-93,-77
-37,7,44,15,-40,25,57,67,191,-33,-91,-79
-34,13,47,10,-40,30,57,67,194,-33,-91,-81
-33,12,45,10,-39,28,60,68,194,-35,-93,-82
-33,6,39,13,-36,22,69,68,191,-38,-96,-82
-34,1,35,16,-34,18,78,67,188,-39,-97,-81
-34,0,34,17,-34,17,85,67,185,-38,-96,-81
-34,-1,33,17,-33,16,87,68,184,-39,-97,-83
-34,-3,31,18,-32,14,87,68,184,-41,-100,-86
-33,-4,29,18,-31,12,87,67,186,-44,-103,-87
-33,-4,29,18,-31,12,90,68,189,-46,-105,-87
-35,-3,32,19,-33,14,93,67,190,-49,-108,-85
-38,-3,35,20,-36,16,95,67,190,-52,-110,-82
-39,-5,34,22,-36,14,98,68,190,-53,-113,-81
-38,-8,30,23,-34,11,101,68,190,-52,-115,-81
-39,-9,30,24,-34,10,102,67,189,-53,-118,-82
-41,-9,32,25,-36,11,102,67,186,-56,-121,-82
-44,-8,36,26,-40,14,101,68,181,-59,-122,-81
-47,-8,39,27,-43,15,101,68,176,-61,-121,-81
-48,-10,38,29,-43,14,101,66,174,-65,-122,-84
-48,-13,35,30,-41,11,101,63,174,-70,-125,-89
-48,-14,34,31,-41,10,102,62,175,-76,-126,-94
-48,-14,34,31,-41,10,102,62,175,-80,-125,-96
-46,-14,32,30,-39,9,100,64,174,-82,-126,-97
-43,-14,29,28,-36,7,97,66,171,-81,-129,-97
-42,-12,30,27,-36,9,96,70,167,-83,-132,-97
-42,-9,33,25,-37,12,97,72,165,-86,-135,-97
-42,-8,34,25,-38,13,96,72,166,-87,-136,-96
-42,-8,34,25,-38,13,93,69,169,-86,-135,-96
-44,-9,35,26,-39,13,90,67,169,-87,-137,-98
-47,-8,39,27,-43,15,87,67,166,-90,-140,-101
-48,-9,39,28,-43,15,86,68,162,-94,-141,-102
-48,-9,39,28,-43,15,87,68,157,-96,-141,-102
-47,-8,39,27,-43,15,86,66,154,-95,-140,-101
-47,-5,42,26,-44,18,83,64,151,-92,-140,-101
-48,-2,46,25,-47,22,80,61,149,-92,-141,-102
-48,1,49,23,-48,25,78,59,147,-95,-141,-101
-47,7,54,20,-50,30,76,56,143,-99,-140,-102
-47,12,59,17,-53,35,74,53,137,-104,-140,-102
-48,14,62,17,-55,38,71,51,134,-109,-142,-101
-48,14,62,17,-55,38,69,49,132,-111,-145,-99
-48,14,62,17,-55,38,65,45,129,-111,-146,-92
-48,17,65,15,-56,41,60,40,124,-108,-143,-84
-47,20,67,13,-57,43,54,37,118,-106,-137,-79
-47,22,69,12,-58,45,50,34,113,-106,-129,-78
-48,25,73,11,-60,49,45,32,110,-107,-122,-77
-48,28,76,10,-62,52,40,29,108,-107,-118,-78
-47,29,76,9,-61,52,36,28,103,-106,-116,-77
-47,29,76,9,-61,52,31,28,95,-106,-116,-77
-48,28,76,10,-62,52,25,29,87,-107,-117,-78
-48,28,76,10,-62,52,20,29,80,-107,-116,-78
-46,29,75,8,-60,52,18,27,75,-105,-117,-77
-44,29,73,7,-58,51,18,25,70,-102,-117,-74
-41,28,69,6,-55,48,19,22,64,-101,-115,-71
-39,28,67,5,-53,47,19,20,59,-101,-112,-68
-38,30,68,4,-53,49,18,17,56,-101,-112,-67
-38,33,71,2,-54,52,18,14,54,-101,-112,-68
-39,34,73,2,-56,53,19,14,51,-102,-109,-67
-39,34,73,2,-56,53,19,14,46,-102,-104,-64
-38,33,71,2,-54,52,18,12,38,-99,-99,-61
-38,33,71,2,-54,52,18,6,28,-94,-97,-59
-39,34,73,2,-56,53,19,1,18,-89,-96,-56
-39,33,72,3,-55,52,19,-2,11,-87,-96,-53
-38,34,72,2,-55,53,17,-5,7,-86,-96,-52
-35,34,69,0,-52,51,15,-7,5,-86,-96,-53
-32,33,65,0,-48,49,12,-10,0,-87,-97,-51
-29,33,62,-2,-45,47,10,-12,-6,-87,-97,-48
-28,34,62,-3,-45,48,6,-15,-12,-86,-94,-47
-28,37,65,-4,-46,51,1,-17,-16,-86,-89,-47
-29,40,69,-5,-49,54,-1,-20,-22,-87,-84,-48
-29,42,71,-6,-50,56,-3,-23,-27,-87,-80,-48
-27,43,70,-8,-48,56,-3,-24,-29,-85,-75,-46
-25,43,68,-9,-46,55,-3,-24,-29,-82,-69,-44
-22,43,65,-10,-43,54,-6,-23,-29,-81,-66,-41
-20,43,63,-11,-41,53,-12,-23,-29,-82,-63,-39
-17,42,59,-12,-38,50,-15,-24,-28,-80,-61,-37
-15,40,55,-12,-35,47,-14,-23,-25,-75,-58,-34
-12,37,49,-12,-30,43,-12,-24,-22,-69,-57,-33
-9,35,44,-13,-26,39,-10,-24,-19,-64,-57,-34
-8,32,40,-12,-24,36,-7,-23,-18,-61,-58,-32
-8,30,38,-11,-23,34,-4,-23,-18,-58,-58,-29
-9,27,36,-9,-22,31,-3,-24,-19,-57,-57,-28
-9,25,34,-8,-21,29,-3,-24,-20,-54,-54,-28
-8,22,30,-7,-19,26,-4,-21,-15,-50,-51,-29
-8,19,27,-5,-17,23,-4,-16,-7,-44,-48,-29
-9,18,27,-4,-18,22,-3,-11,0,-41,-47,-28
-12,15,27,-1,-19,21,-4,-9,3,-39,-47,-28
-15,10,25,2,-20,17,-3,-7,4,-37,-48,-30
-18,3,21,7,-19,12,-3,-5,4,-34,-48,-33
-19,-3,16,11,-17,6,-4,-2,4,-33,-46,-34
-19,-8,11,13,-15,1,-4,0,6,-34,-43,-34
-17,-8,9,12,-13,0,-2,1,13,-32,-42,-33
-14,-5,9,9,-11,2,1,3,24,-26,-43,-33
-13,-3,10,8,-11,3,7,5,33,-20,-41,-34
-13,-3,10,8,-11,3,12,7,40,-15,-39,-34
-14,-4,10,9,-12,3,15,10,45,-13,-39,-33
-13,-7,6,10,-9,0,17,12,50,-14,-41,-33
-14,-11,3,12,-8,-4,21,15,56,-12,-44,-34
-14,-17,-3,15,-5,-10,27,18,61,-9,-47,-33
-12,-19,-7,15,-2,-13,29,20,63,-8,-48,-34
-9,-19,-10,14,0,-14,29,22,63,-9,-48,-34
-8,-18,-10,13,1,-14,28,26,63,-8,-46,-33
-8,-18,-10,13,1,-14,28,32,65,-5,-43,-33
-9,-19,-10,14,0,-14,29,35,71,-2,-42,-34
-9,-19,-10,14,0,-14,29,34,78,0,-42,-34
-8,-18,-10,13,1,-14,27,33,85,0,-43,-33
-8,-18,-10,13,1,-14,25,33,89,2,-43,-33
-9,-19,-10,14,0,-14,23,35,94,5,-42,-34
-9,-19,-10,14,0,-14,23,40,100,8,-42,-37
-8,-18,-10,13,1,-14,25,45,103,9,-43,-40
-8,-18,-10,13,1,-14,28,47,105,9,-43,-42
-8,-19,-11,13,1,-15,29,48,108,8,-42,-42
-8,-19,-11,13,1,-15,29,48,111,8,-42,-42
-9,-19,-10,14,0,-14,29,47,112,9,-43,-44
-9,-19,-10,14,0,-14,29,47,112,9,-43,-47
-8,-18,-10,13,1,-14,26,49,111,8,-42,-48
-8,-18,-10,13,1,-14,21,51,111,8,-42,-48
-9,-19,-10,14,0,-14,16,53,113,9,-44,-47
-9,-19,-10,14,0,-14,14,53,115,9,-47,-47
-8,-18,-10,13,1,-14,12,51,117,8,-48,-48
-8,-18,-10,13,1,-14,10,49,117,5,-48,-48
-10,-19,-9,14,0,-14,7,46,116,2,-47,-47
-13,-19,-6,16,-3,-12,4,43,115,0,-47,-47
-14,-18,-4,16,-5,-11,4,42,119,0,-48,-48
-14,-18,-4,16,-5,-11,7,42,127,0,-48,-48
-14,-19,-5,16,-4,-12,10,43,135,0,-47,-46
-14,-19,-5,16,-4,-12,13,43,140,-3,-46,-44
-13,-17,-4,15,-4,-10,14,42,140,-4,-51,-42
-12,-12,0,12,-6,-6,13,41,134,-6,-59,-42
-17,-3,14,10,-15,5,14,35,125,-13,-67,-44
-25,5,30,10,-27,17,17,24,111,-28,-74,-50
-31,11,42,10,-36,26,20,11,87,-54,-83,-56
-33,12,45,10,-39,28,23,-2,56,-87,-93,-61
-35,16,51,9,-43,33,24,-16,28,-116,-98,-64
-37,25,62,6,-49,43,24,-26,9,-135,-97,-63
-40,33,73,3,-56,53,21,-30,0,-144,-95,-61
-40,40,80,0,-60,60,16,-29,0,-139,-89,-53
-35,45,80,-5,-57,62,11,-27,11,-115,-68,-38
-25,50,75,-12,-50,62,2,-25,29,-72,-28,-11
-10,57,67,-23,-38,62,-15,-21,50,-15,30,25
9,65,56,-37,-23,60,-38,-9,76,50,99,68
31,68,37,-49,-3,52,-56,16,114,122,167,106
53,64,11,-58,21,37,-67,48,144,196,233,137
72,61,-11,-66,41,25,-82,61,116,267,300,168
88,59,-29,-73,58,15,-102,48,32,336,372,205
108,54,-54,-81,81,0,-123,25,-70,412,444,248
131,40,-91,-85,111,-25,-140,-3,-179,492,513,290
150,11,-139,-80,144,-64,-151,-40,-306,564,570,322
166,-25,-191,-70,178,-108,-162,-84,-451,622,618,342
188,-50,-238,-69,213,-144,-183,-134,-607,667,663,362
214,-58,-272,-78,243,-165,-213,-190,-754,711,707,384
232,-55,-287,-88,259,-171,-246,-256,-865,770,748,406
238,-43,-281,-97,259,-162,-275,-335,-952,821,774,421
238,-19,-257,-109,247,-138,-299,-425,-1054,802,764,422
232,11,-221,-121,226,-105,-320,-519,-1175,708,717,408
223,36,-187,-129,205,-75,-344,-606,-1286,583,649,388
213,50,-163,-131,188,-56,-369,-674,-1368,456,576,365
205,52,-153,-128,179,-50,-390,-714,-1416,335,514,345
201,40,-161,-120,181,-60,-405,-721,-1422,224,467,329
198,11,-187,-104,192,-88,-411,-691,-1382,116,423,312
195,-31,-226,-82,210,-128,-409,-636,-1311,0,369,291
195,-79,-274,-58,234,-176,-397,-579,-1241,-135,287,258
193,-122,-315,-35,254,-218,-376,-530,-1182,-284,186,217
181,-145,-326,-18,253,-235,-352,-492,-1123,-424,92,180
158,-148,-306,-5,232,-227,-325,-465,-1059,-535,9,143
129,-141,-270,6,199,-205,-295,-452,-991,-610,-78,91
97,-130,-227,16,162,-178,-261,-442,-916,-645,-168,27
62,-109,-171,23,116,-140,-222,-416,-826,-644,-237,-28
27,-82,-109,27,68,-95,-180,-370,-714,-608,-276,-69
0,-50,-50,25,25,-50,-137,-316,-571,-535,-283,-92
-17,-20,-3,18,-7,-11,-98,-260,-413,-438,-265,-101
-29,2,31,13,-30,16,-65,-203,-274,-348,-236,-100
-37,18,55,9,-46,36,-39,-148,-166,-274,-203,-95
-39,29,68,5,-53,48,-16,-101,-84,-209,-175,-88
-41,34,75,3,-58,54,2,-63,-22,-155,-153,-83
-46,31,77,7,-61,54,14,-32,22,-118,-138,-80
-55,20,75,17,-65,47,18,-8,55,-98,-126,-78
-59,5,64,27,-61,34,18,7,80,-86,-115,-77
-59,-8,51,33,-55,21,18,18,101,-77,-105,-78
-56,-18,38,37,-47,10,20,30,124,-67,-99,-77
-53,-23,30,38,-41,3,22,43,144,-57,-97,-77
-52,-24,28,38,-40,2,24,52,154,-48,-96,-79
-53,-24,29,38,-41,2,24,57,152,-44,-96,-81
-51,-22,29,36,-40,3,23,58,150,-42,-97,-82
-49,-20,29,34,-39,4,23,58,150,-42,-97,-81
-47,-18,29,32,-38,5,25,57,150,-43,-96,-83
-47,-18,29,32,-38,5,27,58,149,-42,-96,-85
-48,-20,28,34,-38,4,29,57,153,-43,-97,-87
-48,-23,25,35,-36,1,29,57,161,-43,-96,-87
-48,-24,24,36,-36,0,27,59,167,-42,-97,-86
-48,-24,24,36,-36,0,24,62,170,-39,-97,-86
-47,-23,24,35,-35,0,23,62,168,-38,-96,-87
-47,-24,23,35,-35,0,24,59,166,-38,-96,-86
-49,-23,26,36,-37,1,22,56,164,-40,-97,-87
-52,-23,29,37,-40,3,20,53,164,-42,-97,-87
-53,-24,29,38,-41,2,18,52,165,-43,-96,-86
-53,-27,26,40,-39,0,18,52,168,-43,-96,-86
-52,-30,22,41,-37,-4,18,54,171,-42,-97,-88
-52,-32,20,42,-36,-6,18,56,174,-42,-100,-91
-52,-35,17,43,-34,-9,19,59,174,-44,-103,-91
-52,-38,14,45,-33,-12,22,61,171,-47,-106,-88
-53,-39,14,46,-33,-12,25,64,168,-48,-107,-84
-53,-39,14,46,-33,-12,28,67,165,-47,-107,-82
-52,-39,13,45,-32,-13,29,68,164,-48,-106,-82
-49,-39,10,44,-29,-14,28,68,164,-51,-106,-85
-46,-38,8,42,-27,-15,30,67,166,-54,-107,-87
-43,-35,8,39,-25,-13,32,67,169,-57,-106,-87
-43,-32,11,37,-27,-10,34,68,170,-58,-107,-85
-46,-29,17,37,-31,-6,34,68,170,-58,-107,-82
-48,-28,20,38,-34,-4,33,68,169,-56,-106,-81
-48,-28,20,38,-34,-4,33,68,169,-53,-106,-81
-47,-29,18,38,-32,-5,34,67,170,-53,-108,-82
-47,-29,18,38,-32,-5,34,67,170,-56,-111,-82
-48,-28,20,38,-34,-4,33,68,168,-59,-112,-81
-48,-28,20,38,-34,-4,34,68,165,-61,-111,-81
-47,-30,17,38,-32,-6,33,66,164,-64,-113,-84
-47,-32,15,39,-31,-8,33,63,164,-66,-116,-89
-48,-34,14,41,-31,-10,34,62,165,-69,-117,-94
-48,-34,14,41,-31,-10,34,62,165,-72,-116,-96
-47,-33,14,40,-30,-9,33,63,164,-73,-117,-97
-47,-30,17,38,-32,-6,33,62,165,-72,-120,-96
-49,-26,23,37,-36,-1,35,63,164,-74,-123,-97
-52,-20,32,36,-42,6,38,63,164,-76,-125,-97
-53,-18,35,35,-44,8,39,61,165,-78,-125,-95
-52,-18,34,35,-43,8,39,59,165,-78,-125,-93
-53,-19,34,36,-43,7,39,57,163,-78,-127,-91
-56,-18,38,37,-47,10,39,57,158,-80,-129,-91
-59,-19,40,39,-49,10,38,58,152,-84,-131,-92
-61,-19,42,40,-51,11,35,58,144,-90,-131,-92
-64,-17,47,40,-55,15,31,57,137,-93,-131,-91
-67,-15,52,41,-59,18,26,54,132,-92,-131,-91
-68,-13,55,40,-61,21,22,51,129,-90,-130,-92
-68,-13,55,40,-61,21,19,49,127,-88,-127,-92
-68,-14,54,41,-61,20,17,46,123,-86,-124,-91
-68,-14,54,41,-61,20,15,44,119,-86,-122,-91
-67,-13,54,40,-60,20,12,41,115,-88,-121,-92
-64,-13,51,38,-57,19,10,39,112,-90,-122,-92
-61,-14,47,37,-54,16,7,37,110,-92,-121,-91
-58,-14,44,36,-51,15,5,35,108,-92,-118,-88
-57,-13,44,35,-50,15,2,32,104,-90,-115,-85
-58,-10,48,34,-53,19,0,29,99,-88,-112,-82
-57,-7,50,32,-53,21,0,28,93,-85,-112,-81
-54,-5,49,29,-51,22,-2,28,88,-83,-113,-81
-51,-2,49,26,-50,23,-6,29,85,-81,-108,-81
-49,1,50,24,-49,25,-12,29,83,-79,-100,-79
-46,6,52,20,-49,29,-14,28,79,-76,-94,-75
-43,11,54,16,-48,32,-13,25,71,-73,-92,-70
-42,15,57,13,-49,36,-15,22,63,-72,-90,-66
-43,17,60,13,-51,38,-21,20,56,-73,-87,-63
-42,20,62,11,-52,41,-27,17,49,-71,-86,-61
-40,23,63,8,-51,43,-32,14,42,-68,-86,-59
-37,24,61,6,-49,42,-35,14,35,-68,-86,-56
-34,24,58,5,-46,41,-38,14,28,-71,-86,-53
-33,23,56,5,-44,39,-38,11,18,-74,-88,-52
-34,24,58,5,-46,41,-38,6,8,-77,-92,-53
-33,23,56,5,-44,39,-40,2,0,-78,-89,-52
-30,23,53,3,-41,38,-45,1,-5,-78,-81,-49
-27,25,52,1,-39,38,-51,-3,-14,-78,-75,-45
-24,28,52,-2,-38,40,-56,-10,-25,-78,-74,-41
-23,29,52,-3,-37,40,-59,-15,-30,-76,-70,-37
-23,28,51,-2,-37,39,-61,-17,-29,-73,-65,-34
-25,30,55,-2,-40,42,-65,-21,-28,-72,-61,-33
-28,33,61,-2,-44,47,-70,-26,-28,-73,-58,-34
-29,32,61,-1,-45,46,-75,-30,-29,-71,-56,-32
-29,26,55,1,-42,40,-79,-33,-32,-65,-54,-30
-28,21,49,3,-38,35,-86,-35,-35,-60,-51,-28
-28,19,47,4,-37,33,-94,-38,-38,-58,-48,-28
-28,18,46,5,-37,32,-96,-39,-39,-57,-47,-29
-28,18,46,5,-37,32,-90,-39,-39,-57,-47,-29
-29,19,48,5,-38,33,-83,-38,-38,-58,-48,-28
-29,19,48,5,-38,33,-79,-38,-38,-58,-48,-28
-28,18,46,5,-37,32,-77,-39,-39,-56,-47,-29
-25,15,40,5,-32,27,-77,-39,-39,-50,-44,-29
-22,12,34,5,-28,23,-78,-37,-37,-45,-41,-27
-20,9,29,5,-24,19,-78,-35,-34,-43,-39,-25
-17,8,25,4,-21,16,-77,-33,-33,-43,-37,-23
-15,9,24,3,-19,16,-77,-33,-34,-43,-35,-23
-12,7,19,2,-15,13,-78,-34,-32,-41,-32,-24
-9,5,14,2,-11,9,-78,-35,-27,-36,-29,-24
-8,3,11,2,-9,7,-77,-31,-20,-31,-28,-23
-9,3,12,3,-10,7,-74,-23,-12,-25,-28,-23
-8,4,12,2,-10,8,-71,-14,-4,-22,-28,-24
-5,4,9,0,-7,6,-68,-6,4,-19,-28,-24
-3,1,4,1,-3,2,-67,-2,13,-17,-30,-23
-3,-4,-1,3,-1,-2,-67,-3,20,-15,-32,-23
-5,-13,-8,9,1,-10,-69,-4,27,-12,-34,-25
-8,-21,-13,14,2,-17,-73,-4,32,-9,-34,-27
-9,-25,-16,17,3,-20,-71,-2,35,-8,-33,-29
-9,-24,-15,16,3,-19,-63,1,40,-9,-34,-29
-8,-23,-15,15,3,-19,-52,6,46,-7,-33,-28
-8,-23,-15,15,3,-19,-44,11,54,-5,-33,-28
-9,-24,-15,16,3,-19,-44,15,60,-3,-35,-30
-9,-24,-15,16,3,-19,-50,18,61,-4,-37,-33
-8,-23,-15,15,3,-19,-54,19,64,-3,-39,-34
-8,-23,-15,15,3,-19,-54,22,69,-1,-39,-33
-9,-24,-15,16,3,-19,-50,26,76,1,-38,-34
-9,-24,-15,16,3,-19,-45,31,83,3,-38,-37
-8,-24,-16,16,4,-20,-40,36,90,4,-39,-39
-8,-24,-16,16,4,-20,-35,41,95,4,-39,-39
-9,-23,-14,16,2,-18,-32,43,98,3,-37,-38
-9,-23,-14,16,2,-18,-30,42,100,3,-35,-38
-7,-24,-17,15,5,-20,-27,43,104,5,-33,-39
-5,-24,-19,14,7,-21,-24,46,109,8,-33,-39
-3,-23,-20,13,8,-21,-23,48,113,9,-35,-38
-3,-23,-20,13,8,-21,-23,48,116,8,-40,-38
-4,-24,-20,14,8,-22,-24,47,118,10,-45,-39
-7,-27,-20,17,6,-23,-24,47,120,13,-47,-39
-11,-30,-19,20,4,-24,-23,48,123,13,-47,-38
-16,-33,-17,24,0,-25,-20,48,125,10,-47,-38
-20,-34,-14,27,-3,-24,-17,47,127,8,-49,-39
-23,-34,-11,28,-6,-22,-15,47,129,8,-52,-42
-24,-33,-9,28,-7,-21,-12,48,132,9,-52,-43
-24,-34,-10,29,-7,-22,-10,48,134,9,-49,-43
-23,-33,-10,28,-6,-21,-7,47,137,7,-47,-42
-23,-33,-10,28,-6,-21,-5,47,140,4,-47,-42
-25,-35,-10,30,-7,-22,-2,48,141,3,-48,-43
-27,-37,-10,32,-8,-23,0,51,141,4,-51,-46
-29,-39,-10,34,-9,-24,0,54,140,3,-54,-49
-29,-39,-10,34,-9,-24,0,56,140,1,-57,-52
-28,-38,-10,33,-9,-24,0,59,140,0,-58,-53
-28,-35,-7,31,-10,-21,0,62,140,-2,-57,-53
-29,-32,-3,30,-13,-17,0,63,141,-6,-59,-52
-29,-29,0,29,-14,-14,0,63,141,-11,-61,-52
-28,-28,0,28,-14,-14,0,61,139,-16,-63,-53
-28,-28,0,28,-14,-14,0,58,136,-18,-63,-53
-29,-29,0,29,-14,-14,0,57,135,-19,-62,-52
-29,-29,0,29,-14,-14,2,57,136,-19,-62,-52
-28,-28,0,28,-14,-14,5,58,134,-18,-63,-53
-29,-25,4,27,-16,-10,8,57,132,-19,-63,-53
-28,-22,6,25,-17,-8,9,58,130,-18,-62,-52
-28,-20,8,24,-18,-6,9,58,131,-18,-62,-52
-29,-17,12,23,-20,-2,8,56,130,-19,-63,-54
-29,-15,14,22,-21,0,5,53,127,-22,-63,-56
-28,-12,16,20,-22,2,2,52,124,-25,-62,-58
-28,-9,19,18,-23,5,0,53,122,-27,-62,-58
-29,-8,21,18,-25,6,0,52,122,-30,-64,-57
-29,-8,21,18,-25,6,2,49,122,-32,-70,-57
-28,-9,19,18,-23,5,4,46,121,-35,-75,-58
-28,-9,19,18,-23,5,4,43,118,-38,-77,-58
-30,-8,22,19,-26,7,3,42,116,-39,-78,-56
-32,-5,27,18,-29,11,3,42,116,-39,-77,-53
-34,-2,32,18,-33,15,5,42,118,-38,-78,-52
-34,0,34,17,-34,17,7,42,120,-38,-79,-53
-33,0,33,16,-33,16,9,43,123,-39,-75,-52
-30,0,30,15,-30,15,9,46,125,-41,-69,-49
-26,0,26,13,-26,13,7,49,126,-44,-67,-47
-23,0,23,11,-23,11,4,49,124,-46,-71,-47
-25,1,26,12,-25,13,3,44,118,-49,-74,-49
-31,6,37,12,-34,21,3,35,108,-54,-76,-52
-35,10,45,12,-40,27,4,21,93,-62,-79,-52
-37,12,49,12,-43,30,3,7,74,-74,-83,-51
-41,15,56,13,-48,35,4,-7,50,-90,-91,-55
-46,17,63,14,-54,40,4,-19,25,-108,-101,-64
-49,19,68,15,-58,43,2,-28,4,-125,-112,-70
-48,21,69,13,-58,45,-1,-32,-5,-134,-116,-67
-46,27,73,9,-59,50,-7,-34,2,-121,-101,-54
-42,39,81,1,-61,60,-19,-33,21,-83,-64,-30
-33,57,90,-12,-61,73,-41,-35,34,-28,-8,4
-18,75,93,-28,-55,84,-67,-32,51,37,58,44
1,86,85,-43,-42,85,-85,-8,107,110,123,80
23,89,66,-56,-21,77,-96,28,183,183,183,111
43,95,52,-69,-4,73,-110,50,216,253,245,141
59,101,42,-80,8,71,-130,47,183,320,312,175
77,98,21,-87,28,59,-150,27,111,394,380,216
94,79,-15,-86,54,32,-167,-2,20,471,445,259
107,42,-65,-74,86,-11,-182,-35,-80,539,497,292
119,-1,-120,-59,119,-60,-198,-69,-194,594,539,312
147,-31,-178,-58,162,-104,-222,-105,-341,643,583,332
189,-44,-233,-72,211,-138,-252,-143,-503,698,633,354
225,-50,-275,-87,250,-162,-282,-188,-634,770,682,376
244,-52,-296,-96,270,-174,-308,-249,-739,835,717,392
246,-39,-285,-103,265,-162,-336,-345,-873,828,715,393
236,-15,-251,-110,243,-133,-365,-469,-1043,744,673,382
222,5,-217,-113,219,-106,-394,-587,-1203,630,611,367
211,18,-193,-114,202,-87,-423,-678,-1326,518,550,355
208,28,-180,-118,194,-76,-454,-736,-1403,422,511,347
209,34,-175,-121,192,-70,-484,-760,-1433,342,496,343
207,30,-177,-118,192,-73,-506,-755,-1425,271,486,336
205,9,-196,-107,200,-93,-517,-725,-1390,190,461,324
216,-33,-249,-91,232,-141,-513,-674,-1338,69,407,307
238,-88,-326,-75,282,-207,-499,-611,-1279,-84,332,290
253,-128,-381,-62,317,-254,-484,-551,-1218,-231,265,277
251,-143,-394,-54,322,-268,-468,-506,-1161,-354,204,263
231,-146,-377,-42,304,-261,-444,-483,-1115,-459,115,224
198,-143,-341,-27,269,-242,-409,-477,-1075,-547,0,161
161,-137,-298,-12,229,-217,-370,-465,-1028,-618,-108,91
125,-123,-248,-1,186,-185,-329,-437,-951,-656,-187,30
88,-96,-184,4,136,-140,-282,-397,-817,-631,-232,-18
50,-60,-110,5,80,-85,-232,-348,-641,-554,-247,-51
19,-28,-47,4,33,-37,-187,-295,-480,-474,-245,-70
-2,-5,-3,3,0,-4,-151,-241,-355,-405,-233,-79
-12,11,23,0,-17,17,-121,-185,-251,-331,-212,-83
-16,24,40,-4,-28,32,-94,-128,-158,-250,-186,-86
-23,32,55,-4,-39,43,-70,-77,-78,-182,-164,-87
-34,32,66,1,-50,49,-51,-38,-15,-136,-148,-87
-41,21,62,10,-51,41,-35,-14,27,-112,-134,-87
-40,1,41,19,-40,21,-24,-2,54,-101,-121,-87
-37,-17,20,27,-28,1,-14,12,82,-91,-113,-85
-34,-30,4,32,-19,-13,-6,30,111,-79,-108,-83
-33,-35,-2,34,-15,-18,-2,44,128,-67,-106,-81
-34,-35,-1,34,-16,-18,0,51,133,-60,-106,-81
-33,-32,1,32,-17,-15,0,54,139,-56,-108,-81
-33,-30,3,31,-18,-13,2,57,148,-53,-111,-81
-35,-28,7,31,-21,-10,5,58,151,-52,-111,-83
-40,-28,12,34,-26,-8,7,58,150,-52,-109,-85
-44,-30,14,37,-29,-8,10,57,152,-53,-104,-87
-47,-32,15,39,-31,-8,13,57,158,-53,-98,-87
-48,-34,14,41,-31,-10,14,59,162,-51,-96,-86
-48,-34,14,41,-31,-10,13,61,164,-49,-96,-86
-47,-33,14,40,-30,-9,14,63,165,-47,-97,-87
-47,-33,14,40,-30,-9,17,63,165,-47,-97,-86
-49,-34,15,41,-32,-9,20,62,164,-48,-96,-87
-51,-34,17,42,-34,-8,22,63,164,-48,-97,-87
-53,-33,20,43,-36,-6,25,62,165,-46,-96,-86
-53,-33,20,43,-36,-6,27,62,168,-44,-96,-86
-52,-34,18,43,-35,-8,30,64,171,-42,-97,-88
-52,-37,15,44,-33,-11,32,66,174,-42,-100,-90
-53,-40,13,46,-33,-13,35,68,175,-44,-103,-92
-53,-42,11,47,-32,-15,40,68,175,-47,-105,-92
-53,-42,11,47,-32,-15,44,67,174,-48,-108,-91
-53,-39,14,46,-33,-12,47,67,171,-47,-110,-91
-52,-38,14,45,-33,-12,47,68,168,-48,-113,-92
-52,-39,13,45,-32,-13,46,67,165,-51,-116,-95
-53,-38,15,45,-34,-11,50,68,165,-54,-117,-98
-55,-35,20,45,-37,-7,58,68,168,-56,-116,-100
-60,-33,27,46,-43,-3,66,67,170,-59,-117,-103
-66,-33,33,49,-49,0,71,67,169,-62,-120,-105
-68,-35,33,51,-50,-1,73,68,170,-62,-123,-108
-68,-37,31,52,-49,-3,73,71,173,-59,-124,-110
-67,-39,28,53,-47,-5,72,74,176,-57,-127,-112
-67,-39,28,53,-47,-5,72,77,179,-57,-130,-112
-68,-38,30,53,-49,-4,73,78,180,-58,-130,-110
-67,-38,29,52,-48,-4,73,78,179,-58,-127,-108
-68,-39,29,53,-48,-5,73,76,180,-57,-125,-106
-68,-42,26,55,-47,-8,73,74,183,-57,-126,-106
-67,-43,24,55,-45,-9,72,72,185,-59,-125,-107
-64,-42,22,53,-43,-10,72,72,185,-61,-122,-106
-61,-43,18,52,-39,-12,73,73,183,-63,-121,-107
-58,-44,14,51,-36,-15,73,72,181,-63,-121,-107
-57,-40,17,48,-37,-11,71,73,179,-62,-121,-105
-58,-32,26,45,-42,-3,66,73,179,-62,-119,-100
-56,-26,30,41,-43,2,59,71,180,-63,-114,-93
-54,-21,33,37,-43,6,51,68,183,-63,-108,-88
-52,-15,37,33,-44,11,45,69,186,-62,-107,-86
-53,-5,48,29,-50,21,41,74,188,-59,-110,-87
-52,5,57,23,-54,31,36,81,191,-56,-112,-86
-49,15,64,17,-56,39,31,86,194,-53,-112,-83
-47,21,68,13,-57,44,26,86,194,-52,-111,-81
-47,23,70,12,-58,46,21,83,191,-52,-111,-81
-47,24,71,11,-59,47,17,81,188,-53,-112,-82
-47,24,71,11,-59,47,14,79,186,-55,-112,-82
-49,23,72,13,-60,47,13,75,182,-61,-111,-81
-54,23,77,15,-65,50,14,67,177,-69,-111,-81
-61,24,85,18,-73,54,13,58,172,-75,-112,-82
-66,24,90,21,-78,57,10,50,167,-80,-115,-85
-68,22,90,23,-79,56,7,46,162,-83,-117,-87
-68,17,85,25,-76,51,5,43,154,-86,-117,-87
-68,11,79,28,-73,45,2,41,147,-87,-115,-85
-69,8,77,30,-73,42,0,39,139,-87,-112,-82
-65,11,76,27,-70,43,0,38,132,-85,-112,-81
-57,19,76,19,-66,47,-2,39,127,-83,-113,-81
-49,28,77,10,-63,52,-6,38,125,-81,-109,-81
-44,36,80,4,-62,58,-12,36,123,-81,-100,-79
-42,40,82,1,-62,61,-14,31,119,-83,-95,-76
-42,42,84,0,-63,63,-13,26,111,-85,-95,-70
-42,43,85,0,-63,64,-16,22,102,-87,-97,-65
-40,46,86,-3,-63,66,-24,20,91,-87,-97,-59
-37,49,86,-6,-61,67,-32,17,83,-86,-95,-57
-35,51,86,-8,-60,68,-36,11,76,-83,-90,-57
-32,54,86,-11,-59,70,-41,6,69,-80,-84,-58
-29,56,85,-13,-57,70,-46,1,61,-78,-79,-58
-28,59,87,-15,-57,73,-48,-1,55,-77,-77,-56
-28,61,89,-16,-58,75,-48,-2,50,-77,-77,-51
-29,64,93,-17,-61,78,-47,-5,45,-78,-78,-45
-29,66,95,-18,-62,80,-47,-7,41,-78,-78,-40
-28,68,96,-20,-62,82,-49,-9,36,-77,-77,-38
-28,68,96,-20,-62,82,-52,-9,31,-78,-74,-39
-29,66,95,-18,-62,80,-53,-8,26,-77,-71,-38
-29,64,93,-17,-61,78,-52,-8,21,-77,-69,-34
-28,62,90,-17,-59,76,-53,-10,16,-78,-67,-33
-28,60,88,-16,-58,74,-56,-12,11,-78,-64,-34
-29,54,83,-12,-56,68,-58,-14,5,-77,-61,-32
-29,46,75,-8,-52,60,-58,-14,-1,-75,-55,-26
-28,41,69,-6,-48,55,-57,-13,-5,-69,-50,-22
-25,42,67,-8,-46,54,-57,-13,-8,-61,-45,-20
-22,43,65,-10,-43,54,-58,-14,-9,-54,-41,-17
-20,43,63,-11,-41,53,-58,-14,-9,-49,-39,-14
-17,42,59,-12,-38,50,-57,-13,-7,-46,-38,-13
-15,42,57,-13,-36,49,-54,-13,-4,-44,-38,-14
-12,43,55,-15,-33,49,-51,-14,-4,-42,-39,-12
-9,43,52,-17,-30,47,-48,-14,-7,-40,-39,-9
-8,41,49,-16,-28,45,-48,-13,-10,-37,-38,-9
-8,36,44,-14,-26,40,-51,-13,-12,-35,-35,-12
-9,31,40,-11,-24,35,-53,-14,-15,-32,-32,-15
-9,26,35,-8,-22,30,-53,-14,-18,-30,-30,-17
-8,22,30,-7,-19,26,-52,-13,-18,-27,-28,-20
-8,20,28,-6,-18,24,-51,-10,-15,-24,-28,-22
-8,17,25,-4,-16,21,-55,-7,-12,-23,-30,-25
-8,15,23,-3,-15,19,-60,-5,-10,-24,-33,-28
-9,12,21,-1,-15,16,-63,-2,-7,-23,-33,-28
-9,10,19,0,-14,14,-63,0,-2,-20,-30,-25
-8,7,15,0,-11,11,-62,0,2,-17,-28,-23
-8,5,13,1,-10,9,-60,2,6,-14,-28,-23
-9,2,11,3,-10,6,-54,5,11,-13,-30,-24
-12,-1,11,6,-11,5,-44,7,16,-13,-32,-26
-15,-6,9,10,-12,1,-34,10,21,-14,-34,-31
-18,-11,7,14,-12,-2,-26,12,26,-14,-34,-36
-18,-15,3,16,-10,-6,-22,15,31,-12,-33,-39
-15,-18,-3,16,-6,-10,-19,18,36,-9,-33,-39
-13,-19,-6,16,-3,-12,-17,19,40,-8,-34,-38
-13,-21,-8,17,-2,-14,-15,18,41,-9,-37,-38
-15,-26,-11,20,-2,-18,-12,19,44,-8,-39,-39
-17,-34,-17,25,0,-25,-10,22,49,-5,-39,-42
-19,-42,-23,30,2,-32,-7,25,56,-3,-37,-43
-19,-47,-28,33,4,-37,-5,27,63,-4,-34,-43
-18,-47,-29,32,5,-38,-3,30,71,-3,-34,-42
-18,-44,-26,31,4,-35,-1,32,78,1,-37,-42
-20,-42,-22,31,1,-32,1,35,84,6,-39,-43
-22,-42,-20,32,-1,-31,3,37,89,12,-39,-43
-24,-42,-18,33,-3,-30,4,39,93,14,-38,-42
-24,-42,-18,33,-3,-30,3,41,95,13,-38,-42
-24,-44,-20,34,-2,-32,4,44,98,14,-38,-43
-24,-47,-23,35,0,-35,7,46,100,17,-38,-43
-22,-47,-25,34,1,-36,9,48,103,19,-39,-42
-16,-44,-28,30,6,-36,9,51,105,18,-39,-42
-12,-41,-29,26,8,-35,9,55,108,19,-38,-43
-9,-39,-30,24,10,-34,9,60,114,22,-35,-43
-8,-38,-30,23,11,-34,8,63,119,24,-32,-42
-8,-38,-30,23,11,-34,5,63,124,24,-30,-40
-9,-39,-30,24,10,-34,2,62,127,23,-27,-37
-9,-40,-31,24,11,-35,-1,62,129,23,-24,-35
-8,-36,-28,22,10,-32,-5,64,133,25,-23,-32
-8,-28,-20,18,6,-24,-8,70,138,27,-23,-30
-9,-19,-10,14,0,-14,-9,74,142,29,-24,-27
-9,-11,-2,10,-3,-6,-9,77,144,29,-24,-25
-8,-7,1,7,-4,-3,-8,78,147,28,-24,-23
-8,-8,0,8,-4,-4,-9,77,149,28,-24,-23
-9,-9,0,9,-4,-4,-8,78,151,29,-23,-24
-9,-9,0,9,-4,-4,-8,78,152,29,-23,-27
-8,-8,0,8,-4,-4,-9,76,149,27,-24,-30
-8,-8,0,8,-4,-4,-12,71,143,22,-26,-36
-9,-9,0,9,-4,-4,-14,64,139,16,-31,-41
-9,-9,0,9,-4,-4,-14,56,136,11,-36,-46
-8,-8,0,8,-4,-4,-13,51,135,7,-40,-48
-8,-8,0,8,-4,-4,-13,48,135,5,-42,-48
-9,-9,0,9,-4,-4,-14,46,136,2,-43,-47
-12,-9,3,10,-7,-3,-14,44,135,0,-46,-47
-14,-8,6,11,-10,-1,-14,42,136,0,-49,-49
-14,-5,9,9,-11,2,-14,42,136,-2,-51,-51
-13,-2,11,7,-12,4,-13,43,135,-6,-53,-53
-13,0,13,6,-13,6,-13,43,132,-11,-55,-53
-14,0,14,7,-14,7,-14,42,129,-15,-60,-53
-16,0,16,8,-16,8,-14,37,125,-19,-68,-55
-23,1,24,11,-23,12,-13,29,117,-29,-76,-61
-33,6,39,13,-36,22,-10,16,103,-46,-82,-69
-42,10,52,16,-47,31,-7,2,79,-68,-91,-75
-45,12,57,16,-51,34,-4,-11,49,-91,-102,-77
-50,16,66,17,-58,41,-3,-24,22,-109,-109,-77
-55,24,79,15,-67,51,-3,-35,2,-119,-109,-75
-58,33,91,12,-74,62,-4,-41,-7,-123,-103,-70
-56,43,99,6,-77,71,-4,-42,-8,-117,-90,-61
-49,51,100,-1,-74,75,-3,-42,1,-93,-62,-43
-37,58,95,-10,-66,76,-7,-42,18,-48,-16,-15
-20,67,87,-23,-53,77,-22,-43,37,9,43,23
1,77,76,-39,-37,76,-46,-40,57,77,113,68
25,83,58,-54,-16,70,-64,-24,88,152,182,110
50,83,33,-66,8,58,-75,0,114,228,247,144
72,80,8,-76,32,44,-89,13,94,300,313,175
90,73,-17,-81,53,28,-110,10,21,370,381,208
113,61,-52,-87,82,4,-131,-3,-73,444,451,247
138,42,-96,-90,117,-27,-148,-23,-174,524,518,288
160,14,-146,-87,153,-66,-162,-54,-289,600,576,319
178,-16,-194,-81,186,-105,-177,-93,-418,668,624,340
202,-35,-237,-83,219,-136,-203,-137,-556,728,670,360
231,-39,-270,-96,250,-154,-238,-187,-688,783,714,383
251,-38,-289,-106,270,-163,-273,-249,-796,840,751,403
258,-34,-292,-112,275,-163,-303,-324,-884,875,767,414
256,-20,-276,-118,266,-148,-327,-411,-986,840,745,409
251,1,-250,-126,250,-124,-349,-503,-1108,732,687,391
244,22,-222,-133,233,-100,-371,-587,-1218,605,616,370
237,33,-204,-135,220,-85,-396,-650,-1298,487,548,350
232,31,-201,-131,216,-85,-418,-684,-1341,381,493,333
229,14,-215,-121,222,-100,-434,-685,-1345,279,449,319
228,-14,-242,-107,235,-128,-440,-656,-1311,174,411,305
227,-54,-281,-86,254,-167,-435,-608,-1253,54,365,286
230,-98,-328,-66,279,-213,-421,-557,-1194,-86,294,258
232,-140,-372,-46,302,-256,-398,-513,-1144,-241,201,220
221,-163,-384,-29,302,-273,-373,-475,-1092,-385,110,183
193,-167,-360,-13,276,-263,-346,-445,-1033,-499,27,146
158,-161,-319,1,238,-240,-317,-427,-970,-575,-60,96
122,-150,-272,14,197,-211,-283,-415,-901,-612,-151,33
84,-130,-214,23,149,-172,-244,-391,-817,-618,-224,-24
46,-103,-149,28,97,-126,-199,-349,-709,-596,-267,-66
16,-72,-88,28,52,-80,-154,-298,-571,-539,-279,-90
-5,-42,-37,23,16,-39,-112,-244,-415,-453,-266,-100
-19,-19,0,19,-9,-9,-76,-188,-276,-365,-239,-102
-26,-2,24,14,-25,11,-47,-134,-168,-286,-206,-102
-30,8,38,11,-34,23,-23,-86,-87,-217,-177,-102
-31,14,45,8,-38,29,-1,-46,-26,-159,-155,-102
-36,11,47,12,-41,29,16,-16,19,-120,-139,-101
-44,0,44,22,-44,22,31,5,53,-99,-127,-98
-49,-17,32,33,-40,7,44,19,78,-87,-116,-96
-49,-34,15,41,-32,-9,54,28,99,-77,-106,-97
-46,-48,-2,47,-22,-25,60,39,123,-68,-99,-96
-43,-55,-12,49,-15,-33,62,52,146,-57,-97,-93
-42,-59,-17,50,-12,-38,63,61,160,-49,-96,-91
-42,-62,-20,52,-11,-41,63,66,161,-44,-96,-92
-42,-62,-20,52,-11,-41,62,69,160,-41,-97,-91
-42,-59,-17,50,-12,-38,62,71,161,-40,-97,-88
-44,-57,-13,50,-15,-35,64,74,160,-37,-97,-86
-47,-57,-10,52,-18,-33,67,77,159,-34,-97,-87
-47,-59,-12,53,-17,-35,67,78,163,-33,-96,-86
-44,-61,-17,52,-13,-39,65,77,171,-34,-96,-83
-42,-63,-21,52,-10,-42,60,78,177,-33,-97,-80
-40,-63,-23,51,-8,-43,55,80,179,-30,-97,-78
-37,-62,-25,49,-6,-43,51,83,180,-27,-96,-77
-31,-59,-28,45,-1,-43,49,85,182,-24,-93,-77
-27,-56,-29,41,1,-42,46,88,187,-23,-90,-78
-24,-54,-30,39,3,-42,41,90,192,-24,-88,-78
-23,-51,-28,37,2,-39,37,92,196,-23,-85,-76
-23,-49,-26,36,1,-37,35,95,198,-20,-80,-70
-24,-46,-22,35,-1,-34,32,99,201,-17,-76,-66
-24,-43,-19,33,-2,-31,29,104,203,-14,-73,-63
-24,-42,-18,33,-3,-30,29,107,204,-14,-73,-62
-24,-43,-19,33,-2,-31,32,107,204,-17,-76,-63
-23,-42,-19,32,-2,-30,35,106,204,-19,-78,-62
-23,-39,-16,31,-3,-27,37,107,204,-18,-78,-62
-24,-38,-14,31,-5,-26,40,106,203,-19,-78,-64
-27,-39,-12,33,-7,-25,44,103,200,-22,-80,-70
-30,-38,-8,34,-11,-23,51,101,199,-24,-82,-74
-32,-35,-3,33,-14,-19,59,99,200,-26,-85,-77
-35,-33,2,34,-18,-15,64,94,198,-31,-88,-78
-38,-33,5,35,-21,-14,63,86,193,-38,-93,-77
-39,-35,4,37,-21,-15,62,78,187,-45,-99,-78
-38,-37,1,37,-19,-18,63,70,181,-50,-104,-80
-39,-39,0,39,-19,-19,62,66,179,-54,-108,-82
-41,-39,2,40,-21,-18,59,67,180,-56,-111,-82
-44,-38,6,41,-25,-16,56,68,179,-59,-112,-81
-47,-38,9,42,-28,-14,53,68,176,-61,-111,-81
-48,-39,9,43,-28,-15,52,66,174,-64,-112,-83
-48,-39,9,43,-28,-15,52,64,174,-66,-115,-85
-47,-37,10,42,-28,-13,53,62,175,-69,-117,-87
-48,-35,13,41,-30,-11,53,62,175,-72,-116,-86
-47,-33,14,40,-30,-9,52,63,173,-73,-117,-87
-47,-34,13,40,-30,-10,52,62,168,-72,-120,-90
-49,-33,16,41,-32,-8,53,63,162,-74,-123,-93
-51,-30,21,40,-36,-4,56,63,157,-77,-125,-96
-53,-27,26,40,-39,0,58,62,155,-77,-125,-97
-52,-25,27,38,-39,1,58,59,156,-74,-123,-96
-53,-22,31,37,-42,4,57,57,154,-71,-121,-98
-56,-20,36,38,-46,8,57,57,149,-71,-121,-101
-58,-18,40,38,-49,11,58,58,143,-74,-122,-101
-58,-15,43,36,-50,14,58,58,138,-79,-122,-99
-58,-11,47,34,-52,18,57,57,134,-82,-121,-95
-58,-6,52,32,-55,23,54,54,132,-82,-121,-92
-57,-3,54,30,-55,25,52,51,130,-81,-122,-91
-54,-3,51,28,-52,24,52,49,127,-81,-122,-91
-51,-4,47,27,-49,21,53,46,124,-82,-121,-92
-48,-4,44,26,-46,20,53,44,119,-85,-121,-91
-47,-3,44,25,-45,20,52,42,114,-88,-122,-92
-47,-1,46,24,-46,22,49,40,109,-90,-122,-92
-48,0,48,24,-48,24,46,38,104,-92,-121,-91
-47,2,49,22,-48,25,44,35,100,-92,-118,-88
-48,5,53,21,-50,29,42,31,94,-91,-115,-85
-48,7,55,20,-51,31,39,26,86,-88,-112,-82
-47,10,57,18,-52,33,38,22,78,-85,-112,-81
-44,12,56,16,-50,34,36,19,70,-82,-113,-81
-42,15,57,13,-49,36,31,18,66,-82,-109,-81
-42,17,59,12,-50,38,26,16,64,-85,-101,-79
-43,20,63,11,-53,41,23,11,60,-88,-95,-75
-43,22,65,10,-54,43,24,6,52,-91,-93,-70
