I,II,III,aVR,aVL,aVF,V1,V2,V3,V4,V5,V6
-48,29,78,9,-63,53,-78,-107,-39,-19,39,136
-48,29,78,9,-63,53,-78,-107,-39,-19,39,136
-48,29,78,9,-63,53,-78,-107,-39,-19,39,136
-48,29,78,9,-63,53,-78,-107,-39,-19,39,136
-48,29,78,9,-63,53,-78,-107,-48,-19,29,126
-48,29,78,9,-63,53,-78,-107,-48,-19,29,126
-48,29,78,9,-63,53,-78,-107,-48,-19,29,126
-48,29,78,9,-63,53,-78,-107,-48,-19,29,126
-48,19,68,14,-58,43,-78,-117,-48,-19,29,136
-48,19,68,14,-58,43,-78,-117,-48,-19,29,136
-48,19,68,14,-58,43,-78,-117,-48,-19,29,136
-48,19,68,14,-58,43,-78,-117,-48,-19,29,136
-48,19,68,14,-58,43,-78,-107,-48,-29,29,136
-48,19,68,14,-58,43,-78,-107,-48,-29,29,136
-48,19,68,14,-58,43,-78,-107,-48,-29,29,136
-48,19,68,14,-58,43,-78,-107,-48,-29,29,136
-48,29,78,9,-63,53,-78,-107,-48,-29,19,126
-48,29,78,9,-63,53,-78,-107,-48,-29,19,126
-48,29,78,9,-63,53,-78,-107,-48,-29,19,126
-48,29,78,9,-63,53,-78,-107,-48,-29,19,126
-48,29,78,9,-63,53,-78,-117,-58,-29,19,126
-48,29,78,9,-63,53,-78,-117,-58,-29,19,126
-48,29,78,9,-63,53,-78,-117,-58,-29,19,126
-48,29,78,9,-63,53,-78,-117,-58,-29,19,126
-48,29,78,9,-63,53,-78,-117,-58,-29,19,117
-48,29,78,9,-63,53,-78,-117,-58,-29,19,117
-48,29,78,9,-63,53,-78,-117,-58,-29,19,117
-48,29,78,9,-63,53,-78,-117,-58,-29,19,117
-48,29,78,9,-63,53,-78,-117,-58,-39,19,117
-48,29,78,9,-63,53,-78,-117,-58,-39,19,117
-48,29,78,9,-63,53,-78,-117,-58,-39,19,117
-48,29,78,9,-63,53,-78,-117,-58,-39,19,117
-48,34,82,7,-65,58,-68,-107,-48,-34,29,117
-48,39,87,4,-68,63,-68,-107,-48,-29,29,117
-48,58,107,-4,-78,82,-68,-107,-43,-14,34,122
-48,68,117,-9,-82,92,-68,-107,-39,-4,43,122
-39,82,122,-21,-80,102,-68,-102,-24,0,48,141
-39,87,126,-24,-82,107,-68,-102,-19,4,48,146
-34,92,126,-29,-80,109,-68,-102,-19,9,53,146
-29,92,122,-31,-75,107,-68,-102,-14,9,58,146
-29,97,126,-34,-78,112,-82,-102,-14,9,68,151
-29,97,126,-34,-78,112,-82,-97,-14,14,68,151
-24,102,126,-39,-75,114,-82,-97,-9,14,68,151
-24,102,126,-39,-75,114,-82,-92,-9,19,68,151
-14,102,117,-43,-65,109,-78,-87,-9,19,68,151
-14,107,122,-46,-68,114,-78,-82,0,19,68,151
-14,107,122,-46,-68,114,-78,-78,4,29,73,151
-14,107,122,-46,-68,114,-78,-73,9,29,78,151
-14,112,126,-48,-70,119,-82,-68,19,34,68,151
-9,112,122,-51,-65,117,-82,-63,24,34,68,151
-9,112,122,-51,-65,117,-87,-58,29,34,68,161
-4,131,136,-63,-70,134,-97,-53,34,43,78,165
4,151,146,-78,-70,148,-92,-53,48,63,97,175
9,170,161,-90,-75,165,-107,-53,53,68,102,190
9,165,156,-87,-73,161,-122,-63,48,68,102,190
9,161,151,-85,-70,156,-131,-78,39,58,102,190
9,170,161,-90,-75,165,-131,-102,24,53,112,200
14,165,151,-90,-68,158,-136,-107,19,53,112,200
19,161,141,-90,-61,151,-141,-117,14,48,107,200
19,156,136,-87,-58,146,-151,-126,4,43,102,195
19,156,136,-87,-58,146,-156,-136,-14,43,102,185
19,141,122,-80,-51,131,-156,-136,-24,34,97,180
24,141,117,-82,-46,129,-156,-141,-34,19,82,175
24,141,117,-82,-46,129,-156,-141,-34,19,78,175
24,136,112,-80,-43,124,-161,-141,-43,9,78,175
29,131,102,-80,-36,117,-156,-146,-43,9,73,175
29,126,97,-78,-34,112,-156,-151,-48,0,68,170
24,117,92,-70,-34,104,-151,-156,-58,-4,68,165
19,107,87,-63,-34,97,-141,-146,-73,-19,53,156
19,102,82,-61,-31,92,-141,-146,-78,-19,48,156
19,92,73,-56,-26,82,-136,-141,-78,-24,43,146
9,87,78,-48,-34,82,-131,-136,-78,-29,39,141
9,82,73,-46,-31,78,-122,-146,-78,-29,39,136
4,68,63,-36,-29,65,-117,-146,-78,-34,34,126
-4,68,73,-31,-39,70,-112,-146,-78,-34,29,122
-9,58,68,-24,-39,63,-102,-146,-78,-34,24,117
-29,63,92,-17,-61,78,-97,-136,-82,-34,24,117
-34,58,92,-12,-63,75,-92,-136,-82,-43,19,112
-48,48,97,0,-73,73,-87,-136,-92,-43,14,102
-48,39,87,4,-68,63,-87,-136,-92,-48,9,102
-58,29,87,14,-73,58,-73,-136,-82,-43,14,102
-63,19,82,21,-73,51,-73,-136,-82,-43,9,97
-63,19,82,21,-73,51,-68,-136,-87,-48,9,92
-63,14,78,24,-70,46,-63,-136,-87,-53,4,87
-63,0,63,31,-63,31,-63,-136,-87,-63,-9,73
-63,0,63,31,-63,31,-63,-136,-92,-68,-14,73
-63,-4,58,34,-61,26,-63,-136,-97,-68,-14,68
-63,-4,58,34,-61,26,-68,-136,-97,-68,-14,68
-53,-4,48,29,-51,21,-68,-136,-107,-68,-14,78
-53,-9,43,31,-48,17,-68,-136,-107,-68,-14,78
-58,-9,48,34,-53,19,-63,-136,-107,-73,-19,78
-58,-9,48,34,-53,19,-63,-136,-107,-73,-19,78
-68,-24,43,46,-56,9,-63,-136,-102,-73,-19,63
-68,-24,43,46,-56,9,-58,-136,-102,-73,-19,63
-63,-24,39,43,-51,7,-58,-136,-102,-73,-19,63
-63,-24,39,43,-51,7,-58,-136,-107,-73,-19,63
-68,-29,39,48,-53,4,-58,-136,-107,-68,-19,63
-68,-29,39,48,-53,4,-58,-136,-107,-68,-14,58
-68,-29,39,48,-53,4,-58,-136,-107,-68,-14,58
-68,-34,34,51,-51,0,-58,-131,-102,-68,-14,58
-73,-34,39,53,-56,2,-53,-131,-102,-78,-24,58
-73,-34,39,53,-56,2,-53,-131,-102,-78,-24,58
-73,-34,39,53,-56,2,-58,-131,-102,-73,-29,58
-73,-34,39,53,-56,2,-58,-131,-102,-73,-29,58
-63,-24,39,43,-51,7,-53,-126,-92,-63,-19,48
-63,-29,34,46,-48,2,-53,-126,-92,-63,-19,48
-63,-29,34,46,-48,2,-53,-126,-92,-63,-19,48
-63,-24,39,43,-51,7,-53,-122,-92,-63,-19,48
-63,-34,29,48,-46,-2,-53,-122,-87,-53,-9,58
-73,-34,39,53,-56,2,-53,-122,-87,-63,-14,58
-68,-34,34,51,-51,0,-48,-112,-82,-63,-14,58
-68,-24,43,46,-56,9,-53,-107,-73,-53,-9,58
-68,-24,43,46,-56,9,-39,-97,-58,-39,-9,48
-68,-24,43,46,-56,9,-43,-87,-43,-24,-14,58
-73,-24,48,48,-61,12,-39,-73,-24,-4,0,53
-73,-24,48,48,-61,12,-29,-58,9,24,19,53
-73,-14,58,43,-65,21,0,-19,58,68,48,63
-82,-19,63,51,-73,21,4,-4,92,112,82,63
-92,-39,53,65,-73,7,9,-4,107,151,107,73
-87,-48,39,68,-63,-4,19,9,141,185,126,68
-87,-48,39,68,-63,-4,19,24,214,273,185,102
-73,-48,24,61,-48,-12,9,53,307,385,278,141
-48,-58,-9,53,-19,-34,0,58,346,473,361,195
-34,-53,-19,43,-7,-36,-24,24,356,536,453,253
0,-39,-39,19,19,-39,-48,-19,346,600,570,341
39,-19,-58,-9,48,-39,-92,-68,268,624,692,434
92,14,-78,-53,85,-31,-146,-170,107,634,810,531
141,68,-73,-104,107,-2,-239,-322,-97,614,951,663
190,131,-58,-161,124,36,-361,-522,-361,566,1093,810
244,185,-58,-214,151,63,-492,-766,-683,478,1220,951
317,224,-92,-270,204,65,-653,-1019,-1034,361,1337,1112
380,248,-131,-314,256,58,-800,-1244,-1420,219,1464,1268
463,273,-190,-368,326,41,-912,-1415,-1756,63,1590,1424
541,292,-248,-417,395,21,-1019,-1551,-2020,-73,1698,1576
595,317,-278,-456,436,19,-1122,-1708,-2278,-229,1756,1708
634,336,-297,-485,466,19,-1185,-1839,-2440,-346,1742,1771
649,346,-302,-497,475,21,-1210,-1873,-2474,-395,1659,1756
649,326,-322,-488,485,2,-1234,-1893,-2464,-434,1517,1698
649,297,-351,-473,500,-26,-1254,-1878,-2459,-478,1342,1590
629,292,-336,-461,483,-21,-1254,-1844,-2420,-556,1117,1439
590,273,-317,-431,453,-21,-1215,-1790,-2361,-663,858,1254
551,200,-351,-375,451,-75,-1141,-1668,-2259,-771,600,1073
502,82,-419,-292,461,-168,-1039,-1478,-2098,-873,322,863
439,-53,-492,-192,466,-273,-917,-1273,-1927,-995,0,624
370,-175,-546,-97,458,-361,-785,-1127,-1781,-1112,-302,361
283,-278,-561,-2,422,-419,-663,-990,-1649,-1200,-570,122
180,-258,-439,39,309,-348,-541,-873,-1488,-1220,-717,-4
63,-170,-234,53,148,-202,-414,-741,-1268,-1102,-663,-14
-9,-112,-102,61,46,-107,-307,-566,-1000,-878,-527,4
-14,-131,-117,73,51,-124,-239,-361,-751,-668,-424,-9
-19,-141,-122,80,51,-131,-175,-214,-566,-527,-351,-4
-43,-126,-82,85,19,-104,-131,-131,-434,-424,-287,14
-53,-87,-34,70,-9,-61,-117,-87,-331,-346,-229,24
-58,-48,9,53,-34,-19,-97,-82,-268,-278,-204,14
-73,-39,34,56,-53,-2,-63,-63,-195,-209,-161,14
-78,-53,24,65,-51,-14,-29,-34,-131,-151,-122,19
-82,-53,29,68,-56,-12,-19,-9,-73,-107,-107,19
-82,-34,48,58,-65,7,-4,4,-34,-73,-97,24
-92,-29,63,61,-78,17,0,29,9,-43,-87,14
-102,-39,63,70,-82,12,14,58,43,-29,-78,14
-92,-34,58,63,-75,12,14,68,63,-19,-68,24
-92,-19,73,56,-82,26,19,63,73,-14,-58,29
-92,-19,73,56,-82,26,19,63,73,0,-53,29
-87,-19,68,53,-78,24,24,63,73,9,-53,29
-87,-19,68,53,-78,24,24,63,82,9,-58,24
-92,-24,68,58,-80,21,24,63,82,9,-68,14
-97,-24,73,61,-85,24,29,63,92,9,-68,9
-97,-24,73,61,-85,24,29,63,97,14,-68,9
-97,-24,73,61,-85,24,29,58,97,24,-68,9
-97,-29,68,63,-82,19,29,68,117,24,-53,19
-97,-29,68,63,-82,19,29,68,122,34,-48,19
-97,-29,68,63,-82,19,29,63,122,34,-48,19
-92,-29,63,61,-78,17,34,58,122,34,-48,19
-92,-29,63,61,-78,17,34,68,117,39,-48,19
-92,-29,63,61,-78,17,34,68,122,39,-48,19
-97,-29,68,63,-82,19,34,68,126,43,-48,19
-97,-29,68,63,-82,19,34,68,126,48,-43,14
-97,-9,87,53,-92,39,29,58,141,48,-43,14
-97,-9,87,53,-92,39,29,58,146,53,-43,14
-97,-14,82,56,-90,34,39,58,146,58,-43,14
-97,-14,82,56,-90,34,39,63,146,63,-43,14
-87,-24,63,56,-75,19,39,73,156,73,-39,14
-87,-19,68,53,-78,24,39,73,165,73,-39,9
-87,-14,73,51,-80,29,43,73,165,73,-39,9
-87,-14,73,51,-80,29,43,73,170,73,-39,9
-87,-14,73,51,-80,29,48,73,165,78,-29,19
-87,-14,73,51,-80,29,48,73,170,82,-29,14
-87,-14,73,51,-80,29,48,78,170,82,-29,14
-87,-14,73,51,-80,29,48,78,170,87,-29,14
-97,-24,73,61,-85,24,53,87,175,87,-29,4
-97,-24,73,61,-85,24,53,87,180,92,-29,4
-97,-29,68,63,-82,19,58,92,185,97,-29,4
-97,-29,68,63,-82,19,58,97,190,102,-29,4
-97,-19,78,58,-87,29,48,97,204,107,-29,0
-97,-19,78,58,-87,29,48,97,209,107,-29,0
-97,-19,78,58,-87,29,48,97,214,112,-29,0
-102,-19,82,61,-92,31,48,102,219,117,-29,0
-102,-14,87,58,-95,36,53,112,229,122,-24,-4
-102,-14,87,58,-95,36,58,117,234,126,-24,-4
-102,-14,87,58,-95,36,63,117,239,131,-24,-4
-102,-19,82,61,-92,31,68,126,244,136,-19,-4
-102,-19,82,61,-92,31,58,117,239,141,-19,-9
-102,-19,82,61,-92,31,58,122,248,141,-24,-14
-107,-19,87,63,-97,34,63,126,258,146,-29,-14
-107,-19,87,63,-97,34,63,131,263,151,-34,-14
-102,-9,92,56,-97,41,68,146,278,161,-43,-24
-102,-9,92,56,-97,41,68,151,283,165,-39,-29
-102,-9,92,56,-97,41,68,151,292,170,-39,-29
-102,-9,92,56,-97,41,73,156,302,180,-39,-29
-102,-9,92,56,-97,41,73,170,317,185,-39,-29
-102,-9,92,56,-97,41,73,175,326,190,-39,-29
-102,-4,97,53,-100,46,78,180,336,200,-39,-29
-102,-4,97,53,-100,46,78,185,346,204,-34,-29
-97,0,97,48,-97,48,73,180,351,219,-34,-29
-97,0,97,48,-97,48,73,195,361,229,-34,-29
-97,0,97,48,-97,48,73,200,370,234,-29,-34
-97,0,97,48,-97,48,78,204,385,244,-29,-34
-107,-9,97,58,-102,43,92,229,400,253,-14,-24
-107,-9,97,58,-102,43,97,234,414,263,-14,-24
-107,-9,97,58,-102,43,97,239,429,273,-4,-24
-107,-9,97,58,-102,43,97,253,444,283,0,-29
-107,-19,87,63,-97,34,112,263,468,307,0,-29
-107,-19,87,63,-97,34,112,273,483,317,4,-29
-107,-19,87,63,-97,34,117,283,497,336,9,-29
-107,-19,87,63,-97,34,117,292,512,351,14,-29
-107,-19,87,63,-97,34,112,297,517,366,19,-29
-107,-14,92,61,-100,39,117,307,536,366,24,-24
-102,-14,87,58,-95,36,122,317,551,380,29,-24
-102,-14,87,58,-95,36,122,326,570,390,34,-24
-92,-4,87,48,-90,41,126,346,585,405,29,-14
-92,-4,87,48,-90,41,131,356,605,419,39,-14
-92,-4,87,48,-90,41,131,366,619,434,48,-14
-92,-4,87,48,-90,41,131,375,634,444,48,-14
-92,-14,78,53,-85,31,136,385,639,448,63,-19
-92,-14,78,53,-85,31,136,395,649,463,68,-24
-92,-9,82,51,-87,36,141,405,663,478,73,-24
-92,-9,82,51,-87,36,141,409,678,492,82,-29
-92,-19,73,56,-82,26,146,419,688,497,78,-19
-87,-19,68,53,-78,24,146,429,702,517,87,-19
-87,-19,68,53,-78,24,151,439,712,527,92,-19
-82,-19,63,51,-73,21,151,444,722,536,102,-14
-87,-14,73,51,-80,29,151,453,732,556,117,-14
-87,-14,73,51,-80,29,151,453,736,570,126,-14
-82,-14,68,48,-75,26,151,463,751,580,131,-9
-82,-14,68,48,-75,26,151,468,761,590,141,0
-82,-14,68,48,-75,26,151,468,766,595,141,-9
-78,-14,63,46,-70,24,156,473,771,605,151,-9
-78,-14,63,46,-70,24,156,478,780,614,156,-9
-78,-14,63,46,-70,24,156,478,785,619,165,-4
-73,-14,58,43,-65,21,151,483,795,624,161,0
-68,-4,63,36,-65,29,151,483,800,634,170,0
-68,-4,63,36,-65,29,146,483,800,634,175,9
-63,-4,58,34,-61,26,146,488,800,639,185,14
-63,-4,58,34,-61,26,136,488,790,644,200,29
-53,-4,48,29,-51,21,136,483,790,644,200,29
-48,-4,43,26,-46,19,136,478,780,644,204,34
-43,-4,39,24,-41,17,136,478,775,644,209,39
-43,-9,34,26,-39,12,141,473,775,649,224,48
-39,0,39,19,-39,19,131,458,756,644,229,53
-39,0,39,19,-39,19,126,448,741,644,234,58
-39,0,39,19,-39,19,122,434,727,634,234,63
-29,14,43,7,-36,29,117,419,717,619,239,68
-29,14,43,7,-36,29,112,400,692,600,239,78
-24,14,39,4,-31,26,102,385,668,590,239,87
-19,19,39,0,-29,29,97,370,634,566,239,92
-24,24,48,0,-36,36,82,351,600,546,239,102
-19,24,43,-2,-31,34,73,322,566,527,239,112
-19,24,43,-2,-31,34,63,297,527,507,239,122
-19,29,48,-4,-34,39,53,268,497,483,224,131
-14,29,43,-7,-29,36,43,244,453,448,209,126
-14,29,43,-7,-29,36,34,219,414,419,204,126
-9,34,43,-12,-26,39,24,195,380,385,195,126
-9,34,43,-12,-26,39,19,175,341,356,185,126
-9,29,39,-9,-24,34,9,146,307,336,165,117
-9,29,39,-9,-24,34,0,131,283,312,156,122
-14,29,43,-7,-29,36,-4,112,248,283,146,122
-14,29,43,-7,-29,36,-9,97,214,253,126,117
-4,14,19,-4,-12,17,-14,78,190,219,122,126
-4,14,19,-4,-12,17,-14,63,165,200,117,126
-9,14,24,-2,-17,19,-19,48,146,170,107,122
-9,14,24,-2,-17,19,-24,34,126,146,102,122
-9,14,24,-2,-17,19,-29,9,97,117,82,126
-9,14,24,-2,-17,19,-29,4,78,102,73,117
-9,14,24,-2,-17,19,-34,-9,58,87,63,112
-14,14,29,0,-21,21,-39,-14,43,68,48,112
-24,24,48,0,-36,36,-39,-29,24,48,39,97
-24,19,43,2,-34,31,-39,-39,9,29,29,87
-24,19,43,2,-34,31,-39,-39,0,19,19,82
-29,14,43,7,-36,29,-39,-43,-4,19,14,82
-29,14,43,7,-36,29,-43,-53,-19,0,9,92
-24,14,39,4,-31,26,-43,-53,-29,-9,4,92
-24,14,39,4,-31,26,-43,-58,-29,-14,0,92
-29,14,43,7,-36,29,-43,-58,-39,-19,-4,92
-29,9,39,9,-34,24,-53,-58,-34,-29,-4,87
-29,4,34,12,-31,19,-48,-63,-39,-29,-4,87
-34,0,34,17,-34,17,-48,-63,-39,-34,-9,87
-34,-4,29,19,-31,12,-48,-63,-43,-34,-9,87
-24,4,29,9,-26,17,-48,-63,-53,-39,-24,73
-24,0,24,12,-24,12,-48,-68,-58,-39,-24,73
-24,0,24,12,-24,12,-48,-68,-58,-43,-19,73
-24,0,24,12,-24,12,-48,-68,-63,-43,-19,68
-34,-14,19,24,-26,2,-39,-73,-63,-43,-19,68
-34,-14,19,24,-26,2,-43,-73,-63,-43,-19,73
-34,-14,19,24,-26,2,-43,-73,-63,-48,-24,73
-34,-14,19,24,-26,2,-39,-73,-63,-48,-24,68
-34,-19,14,26,-24,-2,-39,-73,-63,-39,-9,78
-34,-19,14,26,-24,-2,-39,-78,-63,-39,-9,78
-34,-19,14,26,-24,-2,-39,-78,-63,-34,-9,78
-34,-19,14,26,-24,-2,-39,-78,-63,-34,-14,78
-34,-19,14,26,-24,-2,-48,-78,-63,-39,-14,78
-34,-19,14,26,-24,-2,-48,-78,-58,-39,-9,78
-34,-19,14,26,-24,-2,-43,-73,-58,-39,-9,82
-34,-19,14,26,-24,-2,-43,-73,-58,-39,-9,82
-34,-24,9,29,-21,-7,-43,-73,-58,-39,-9,73
-34,-24,9,29,-21,-7,-43,-73,-58,-39,-9,73
-34,-19,14,26,-24,-2,-43,-73,-58,-39,-9,73
-29,-19,9,24,-19,-4,-43,-73,-58,-39,-9,78
-29,-19,9,24,-19,-4,-43,-68,-53,-43,-19,73
-29,-19,9,24,-19,-4,-43,-68,-53,-43,-19,68
-29,-14,14,21,-21,0,-43,-68,-53,-43,-19,63
-29,-14,14,21,-21,0,-43,-68,-53,-43,-19,53
-29,-14,14,21,-21,0,-43,-68,-53,-34,-19,63
-29,-14,14,21,-21,0,-43,-68,-53,-34,-19,63
-29,-14,14,21,-21,0,-43,-63,-53,-34,-14,63
-29,-14,14,21,-21,0,-43,-63,-48,-34,-14,63
-29,-24,4,26,-17,-9,-34,-53,-48,-34,-14,73
-29,-24,4,26,-17,-9,-34,-53,-48,-34,-14,73
-29,-29,0,29,-14,-14,-34,-53,-48,-34,-14,78
-29,-29,0,29,-14,-14,-34,-53,-43,-29,-14,78
-29,-19,9,24,-19,-4,-43,-63,-43,-29,-14,78
-29,-19,9,24,-19,-4,-43,-53,-43,-29,-14,78
-29,-19,9,24,-19,-4,-43,-53,-43,-29,-14,78
-29,-19,9,24,-19,-4,-43,-53,-39,-24,-14,78
-29,-19,9,24,-19,-4,-43,-53,-39,-29,-14,78
-29,-19,9,24,-19,-4,-43,-53,-39,-29,-14,78
-29,-19,9,24,-19,-4,-43,-53,-39,-29,-14,78
-29,-19,9,24,-19,-4,-43,-53,-34,-29,-14,78
-29,-19,9,24,-19,-4,-43,-43,-34,-19,-4,87
-34,-19,14,26,-24,-2,-43,-43,-34,-14,-4,87
-34,-19,14,26,-24,-2,-43,-43,-29,-14,-4,87
-29,-19,9,24,-19,-4,-43,-43,-29,-14,-9,87
-19,-19,0,19,-9,-9,-34,-39,-29,-14,-19,82
-24,-19,4,21,-14,-7,-34,-39,-29,-14,-14,78
-24,-19,4,21,-14,-7,-34,-39,-24,-9,-14,73
-19,-19,0,19,-9,-9,-34,-39,-24,-9,-14,68
-29,-19,9,24,-19,-4,-34,-34,-24,-9,-14,68
-29,-14,14,21,-21,0,-34,-34,-24,-9,-14,68
-29,-14,14,21,-21,0,-34,-34,-24,-14,-14,68
-29,-19,9,24,-19,-4,-34,-39,-24,-14,-14,68
-29,-19,9,24,-19,-4,-34,-39,-24,-14,-4,73
-29,-19,9,24,-19,-4,-34,-39,-24,-14,-4,78
-29,-19,9,24,-19,-4,-34,-34,-24,-14,-4,82
-29,-14,14,21,-21,0,-34,-34,-24,-14,-4,87
-19,-14,4,17,-12,-4,-34,-34,-34,-14,-14,87
-19,-14,4,17,-12,-4,-34,-34,-34,-14,-14,87
-24,-14,9,19,-17,-2,-29,-34,-34,-14,-14,87
-24,-14,9,19,-17,-2,-29,-34,-34,-14,-14,87
-14,-4,9,9,-12,2,-34,-34,-24,-14,-14,87
-14,-4,9,9,-12,2,-34,-34,-24,-14,-14,92
-14,-4,9,9,-12,2,-34,-39,-24,-14,-14,92
-14,-4,9,9,-12,2,-34,-39,-24,-14,-9,92
-14,-4,9,9,-12,2,-34,-48,-29,-4,-4,92
-14,-4,9,9,-12,2,-34,-48,-29,-4,-4,92
-14,-4,9,9,-12,2,-34,-48,-29,-4,-4,92
-19,-9,9,14,-14,0,-34,-48,-29,-4,-4,92
-29,-19,9,24,-19,-4,-34,-48,-39,-4,4,97
-29,-19,9,24,-19,-4,-34,-48,-39,-9,4,97
-29,-19,9,24,-19,-4,-34,-48,-39,-9,0,92
-29,-19,9,24,-19,-4,-34,-48,-39,-9,0,92
-29,-19,9,24,-19,-4,-34,-48,-48,-14,-14,78
-29,-19,9,24,-19,-4,-34,-53,-48,-19,-19,73
-29,-19,9,24,-19,-4,-34,-53,-58,-24,-24,63
-29,-19,9,24,-19,-4,-34,-53,-58,-29,-29,58
-29,-19,9,24,-19,-4,-34,-58,-48,-19,-14,63
-29,-19,9,24,-19,-4,-34,-58,-48,-19,-9,68
-29,-19,9,24,-19,-4,-34,-58,-53,-24,-4,73
-29,-19,9,24,-19,-4,-34,-58,-53,-24,0,82
-29,-29,0,29,-14,-14,-34,-53,-53,-24,4,87
-24,-29,-4,26,-9,-17,-34,-58,-53,-24,9,92
-24,-29,-4,26,-9,-17,-39,-58,-58,-29,14,97
-29,-29,0,29,-14,-14,-39,-58,-58,-29,19,102
-29,-29,0,29,-14,-14,-43,-68,-68,-34,14,92
-29,-29,0,29,-14,-14,-43,-68,-68,-34,4,92
-29,-29,0,29,-14,-14,-43,-68,-73,-39,0,92
-29,-29,0,29,-14,-14,-43,-68,-73,-39,-4,92
-24,-29,-4,26,-9,-17,-43,-68,-78,-39,-4,82
-24,-29,-4,26,-9,-17,-43,-68,-78,-39,-4,82
-29,-29,0,29,-14,-14,-43,-68,-78,-43,-4,82
-29,-29,0,29,-14,-14,-43,-73,-78,-43,0,82
-29,-24,4,26,-17,-9,-43,-68,-82,-53,-9,82
-29,-24,4,26,-17,-9,-43,-68,-82,-53,-14,82
-24,-19,4,21,-14,-7,-43,-68,-82,-53,-14,82
-24,-19,4,21,-14,-7,-43,-68,-82,-58,-14,82
-24,-19,4,21,-14,-7,-53,-78,-92,-58,-24,73
-29,-19,9,24,-19,-4,-53,-78,-92,-58,-24,73
-29,-19,9,24,-19,-4,-58,-78,-97,-63,-24,68
-29,-19,9,24,-19,-4,-58,-78,-97,-63,-29,68
-39,-19,19,29,-29,0,-48,-73,-92,-63,-24,78
-39,-19,19,29,-29,0,-43,-78,-92,-63,-24,78
-39,-19,19,29,-29,0,-43,-78,-92,-68,-24,78
-34,-19,14,26,-24,-2,-48,-78,-92,-68,-24,78
-34,-19,14,26,-24,-2,-58,-87,-102,-68,-24,78
-34,-19,14,26,-24,-2,-58,-87,-102,-68,-24,78
-39,-19,19,29,-29,0,-58,-87,-102,-68,-24,78
-39,-19,19,29,-29,0,-58,-87,-102,-68,-24,78
-29,-19,9,24,-19,-4,-58,-87,-102,-78,-34,78
-29,-19,9,24,-19,-4,-58,-87,-107,-78,-39,73
-29,-19,9,24,-19,-4,-58,-87,-107,-82,-39,68
-34,-19,14,26,-24,-2,-58,-87,-107,-82,-39,68
-43,-19,24,31,-34,2,-58,-87,-102,-73,-39,68
-39,-19,19,29,-29,0,-58,-87,-102,-78,-39,68
-39,-19,19,29,-29,0,-58,-87,-102,-78,-39,63
-39,-19,19,29,-29,0,-58,-87,-102,-78,-39,63
-29,-19,9,24,-19,-4,-58,-87,-112,-87,-43,68
-29,-19,9,24,-19,-4,-58,-87,-112,-87,-43,68
-29,-19,9,24,-19,-4,-58,-87,-112,-87,-43,68
-29,-19,9,24,-19,-4,-58,-87,-107,-87,-39,68
-29,-19,9,24,-19,-4,-58,-78,-107,-78,-39,68
-29,-19,9,24,-19,-4,-58,-82,-107,-82,-39,68
-29,-19,9,24,-19,-4,-58,-92,-117,-82,-48,58
-29,-19,9,24,-19,-4,-58,-92,-117,-82,-48,48
-29,-9,19,19,-24,4,-58,-87,-107,-78,-58,48
-29,0,29,14,-29,14,-58,-87,-107,-68,-48,48
-29,0,29,14,-29,14,-58,-87,-107,-68,-48,48
-29,0,29,14,-29,14,-58,-87,-107,-68,-48,48
-29,0,29,14,-29,14,-58,-87,-107,-68,-48,48
-29,24,53,2,-41,39,-58,-87,-92,-68,-34,63
-29,29,58,0,-43,43,-58,-87,-87,-63,-24,63
-19,34,53,-7,-36,43,-58,-82,-82,-58,-19,73
-19,39,58,-9,-39,48,-58,-82,-78,-53,-19,78
-24,43,68,-9,-46,56,-58,-82,-78,-48,-4,82
-19,43,63,-12,-41,53,-58,-82,-73,-48,0,87
-19,48,68,-14,-43,58,-63,-82,-73,-48,0,97
-19,48,68,-14,-43,58,-63,-78,-73,-43,0,102
-4,53,58,-24,-31,56,-53,-78,-68,-53,0,102
-4,53,58,-24,-31,56,-53,-73,-68,-48,0,102
-4,53,58,-24,-31,56,-48,-68,-68,-48,0,102
-4,58,63,-26,-34,61,-48,-63,-58,-48,0,102
-4,58,63,-26,-34,61,-48,-58,-43,-29,-4,92
-4,58,63,-26,-34,61,-48,-53,-39,-29,0,92
-4,63,68,-29,-36,65,-53,-53,-39,-24,0,92
0,63,63,-31,-31,63,-53,-53,-34,-24,0,92
-9,73,82,-31,-46,78,-58,-53,-39,-24,9,112
-4,92,97,-43,-51,95,-68,-53,-34,-14,19,117
4,117,112,-61,-53,114,-73,-58,-24,-4,39,126
9,141,131,-75,-61,136,-87,-63,-24,0,43,141
14,151,136,-82,-61,143,-112,-78,-34,-9,39,131
19,151,131,-85,-56,141,-122,-97,-48,-19,34,131
24,151,126,-87,-51,139,-122,-117,-53,-24,29,131
34,146,112,-90,-39,129,-126,-117,-58,-24,24,131
39,131,92,-85,-26,112,-122,-122,-63,-19,19,131
39,126,87,-82,-24,107,-131,-126,-73,-24,14,126
39,126,87,-82,-24,107,-136,-136,-92,-34,14,126
39,112,73,-75,-17,92,-136,-136,-102,-43,9,122
43,102,58,-73,-7,80,-136,-141,-112,-58,0,126
43,102,58,-73,-7,80,-136,-141,-112,-58,0,126
43,97,53,-70,-4,75,-131,-136,-112,-58,4,126
48,92,43,-70,2,68,-126,-136,-112,-58,4,126
48,78,29,-63,9,53,-126,-136,-117,-68,0,112
43,68,24,-56,9,46,-122,-136,-126,-73,0,107
39,58,19,-48,9,39,-122,-136,-131,-78,-4,107
39,53,14,-46,12,34,-122,-136,-136,-78,-9,107
29,43,14,-36,7,29,-117,-131,-146,-82,-24,97
19,39,19,-29,0,29,-112,-126,-146,-87,-29,92
9,34,24,-21,-7,29,-102,-126,-146,-87,-29,87
4,19,14,-12,-4,17,-97,-126,-146,-92,-34,78
-14,29,43,-7,-29,36,-82,-126,-136,-82,-29,82
-19,19,39,0,-29,29,-73,-126,-136,-82,-34,78
-29,14,43,7,-36,29,-68,-126,-141,-82,-34,78
-34,9,43,12,-39,26,-63,-126,-141,-92,-39,73
-43,0,43,21,-43,21,-68,-126,-151,-102,-43,53
-39,-9,29,24,-34,9,-68,-126,-151,-107,-48,53
-34,-19,14,26,-24,-2,-63,-126,-151,-112,-53,53
-34,-29,4,31,-19,-12,-63,-126,-151,-112,-58,48
-43,-29,14,36,-29,-7,-68,-126,-165,-117,-68,34
-43,-34,9,39,-26,-12,-63,-126,-165,-122,-73,29
-43,-39,4,41,-24,-17,-63,-126,-165,-122,-78,24
-43,-39,4,41,-24,-17,-63,-126,-170,-126,-82,24
-34,-43,-9,39,-12,-26,-63,-126,-165,-117,-73,24
-34,-43,-9,39,-12,-26,-68,-126,-165,-117,-73,29
-34,-43,-9,39,-12,-26,-68,-126,-165,-117,-73,34
-34,-48,-14,41,-9,-31,-68,-126,-165,-117,-73,39
-29,-48,-19,39,-4,-34,-53,-117,-165,-122,-78,39
-29,-48,-19,39,-4,-34,-53,-117,-165,-122,-78,39
-29,-53,-24,41,-2,-39,-53,-117,-161,-122,-78,34
-29,-53,-24,41,-2,-39,-48,-117,-161,-122,-78,34
-34,-63,-29,48,-2,-46,-58,-117,-161,-131,-87,24
-34,-63,-29,48,-2,-46,-58,-117,-165,-131,-87,24
-39,-68,-29,53,-4,-48,-58,-117,-165,-126,-87,24
-39,-68,-29,53,-4,-48,-58,-117,-165,-126,-82,19
-48,-68,-19,58,-14,-43,-58,-117,-165,-126,-92,19
-48,-73,-24,61,-12,-48,-58,-112,-161,-126,-92,19
-53,-73,-19,63,-17,-46,-53,-112,-161,-126,-92,19
-53,-73,-19,63,-17,-46,-53,-112,-161,-126,-92,19
-43,-63,-19,53,-12,-41,-48,-112,-151,-122,-87,29
-43,-63,-19,53,-12,-41,-48,-112,-151,-122,-87,29
-43,-63,-19,53,-12,-41,-43,-107,-151,-122,-87,29
-43,-68,-24,56,-9,-46,-43,-107,-151,-122,-87,29
-53,-58,-4,56,-24,-31,-53,-107,-161,-122,-87,19
-53,-53,0,53,-26,-26,-53,-102,-161,-122,-87,19
-53,-53,0,53,-26,-26,-53,-102,-156,-122,-87,19
-53,-53,0,53,-26,-26,-53,-102,-146,-122,-82,19
-48,-53,-4,51,-21,-29,-39,-82,-131,-102,-73,19
-48,-63,-14,56,-17,-39,-34,-68,-112,-82,-68,19
-48,-63,-14,56,-17,-39,-29,-68,-87,-58,-48,19
-48,-63,-14,56,-17,-39,-14,-48,-63,-24,-34,19
-53,-63,-9,58,-21,-36,-9,-24,-24,4,-9,24
-53,-73,-19,63,-17,-46,9,0,19,53,19,24
-53,-82,-29,68,-12,-56,9,0,39,97,39,34
-63,-97,-34,80,-14,-65,4,4,53,122,53,24
-53,-107,-53,80,0,-80,19,24,107,180,97,34
-58,-107,-48,82,-4,-78,19,48,190,283,175,58
-48,-117,-68,82,9,-92,19,63,253,390,253,92
-14,-117,-102,65,43,-109,-9,53,278,463,336,151
19,-107,-126,43,73,-117,-39,29,268,522,448,234
53,-102,-156,24,104,-129,-63,4,239,585,570,312
87,-87,-175,0,131,-131,-97,-39,170,610,688,400
126,-48,-175,-39,151,-112,-161,-136,34,624,839,512
170,14,-156,-92,163,-70,-244,-248,-136,634,995,649
219,87,-131,-153,175,-21,-356,-409,-380,595,1137,790
278,151,-126,-214,202,12,-497,-619,-683,527,1268,936
351,195,-156,-273,253,19,-658,-834,-1015,458,1434,1107
424,234,-190,-329,307,21,-800,-1019,-1337,380,1610,1298
497,278,-219,-387,358,29,-917,-1166,-1625,297,1786,1473
551,302,-248,-427,400,26,-1000,-1278,-1854,151,1883,1620
600,331,-268,-466,434,31,-1088,-1395,-2059,14,1932,1722
634,375,-258,-505,446,58,-1132,-1473,-2171,-82,1903,1766
634,375,-258,-505,446,58,-1146,-1498,-2215,-141,1800,1742
619,356,-263,-488,441,46,-1161,-1522,-2249,-209,1649,1668
610,336,-273,-473,441,31,-1176,-1551,-2298,-307,1439,1551
580,317,-263,-448,422,26,-1176,-1556,-2303,-439,1185,1395
522,273,-248,-397,385,12,-1137,-1512,-2264,-566,932,1244
473,165,-307,-319,390,-70,-1058,-1400,-2147,-683,644,1049
424,24,-400,-224,412,-187,-946,-1259,-2015,-829,287,780
366,-122,-488,-122,427,-305,-834,-1098,-1873,-1000,-107,502
302,-239,-541,-31,422,-390,-712,-951,-1742,-1151,-448,234
195,-273,-468,39,331,-370,-580,-824,-1586,-1249,-692,29
68,-200,-268,65,168,-234,-448,-727,-1395,-1200,-727,-34
-24,-122,-97,73,36,-109,-346,-600,-1185,-1034,-619,-34
-34,-131,-97,82,31,-114,-268,-439,-966,-829,-517,-43
-29,-190,-161,109,65,-175,-190,-283,-766,-673,-458,-53
-34,-180,-146,107,56,-163,-151,-175,-614,-551,-395,-48
-39,-141,-102,90,31,-122,-126,-107,-488,-458,-331,-53
-43,-117,-73,80,14,-95,-92,-43,-375,-375,-287,-53
-43,-117,-73,80,14,-95,-58,-9,-283,-297,-239,-53
-58,-117,-58,87,0,-87,-39,4,-219,-229,-195,-53
-53,-107,-53,80,0,-80,-14,14,-156,-180,-170,-43
-58,-102,-43,80,-7,-73,0,43,-112,-141,-141,-39
-63,-92,-29,78,-17,-61,9,58,-73,-107,-136,-29
-63,-82,-19,73,-21,-51,14,73,-43,-82,-126,-34
-73,-78,-4,75,-34,-41,19,68,-19,-73,-117,-24
-63,-78,-14,70,-24,-46,14,68,-4,-68,-117,-24
-63,-82,-19,73,-21,-51,24,68,-4,-58,-107,-24
-63,-78,-14,70,-24,-46,19,63,4,-63,-107,-19
-63,-78,-14,70,-24,-46,19,63,4,-48,-102,-19
-58,-78,-19,68,-19,-48,24,63,4,-39,-102,-19
-58,-78,-19,68,-19,-48,24,63,14,-39,-107,-24
-63,-63,0,63,-31,-31,14,58,24,-29,-97,-34
-68,-63,4,65,-36,-29,19,63,34,-29,-97,-39
-68,-63,4,65,-36,-29,19,68,39,-24,-97,-39
-68,-63,4,65,-36,-29,19,68,39,-14,-97,-39
-68,-68,0,68,-34,-34,19,68,48,-14,-82,-39
-68,-68,0,68,-34,-34,19,68,53,-4,-78,-39
-68,-68,0,68,-34,-34,19,63,53,-4,-78,-39
-63,-68,-4,65,-29,-36,24,58,53,-4,-78,-39
-63,-68,-4,65,-29,-36,24,68,48,-9,-87,-39
-63,-68,-4,65,-29,-36,24,68,53,-9,-87,-39
-68,-68,0,68,-34,-34,24,68,58,-4,-87,-39
-68,-68,0,68,-34,-34,24,68,58,0,-82,-43
-68,-68,0,68,-34,-34,19,58,63,0,-73,-43
-68,-68,0,68,-34,-34,19,58,68,4,-73,-43
-68,-73,-4,70,-31,-39,29,58,68,9,-73,-43
-68,-73,-4,70,-31,-39,29,63,68,14,-73,-43
-68,-82,-14,75,-26,-48,29,63,68,24,-68,-34
-68,-78,-9,73,-29,-43,29,63,78,24,-68,-39
-68,-73,-4,70,-31,-39,34,63,78,24,-68,-39
-68,-73,-4,70,-31,-39,34,63,82,24,-68,-39
-58,-63,-4,61,-26,-34,29,53,87,19,-78,-39
-58,-63,-4,61,-26,-34,29,53,92,24,-78,-43
-58,-63,-4,61,-26,-34,29,58,92,24,-78,-43
-58,-63,-4,61,-26,-34,29,58,92,29,-78,-43
-68,-53,14,61,-41,-19,34,58,107,39,-68,-48
-68,-53,14,61,-41,-19,34,58,112,43,-68,-53
-68,-58,9,63,-39,-24,39,63,117,48,-68,-58
-68,-58,9,63,-39,-24,39,68,122,53,-68,-63
-58,-48,9,53,-34,-19,29,68,117,53,-78,-68
-58,-48,9,53,-34,-19,29,68,122,48,-78,-68
-58,-48,9,53,-34,-19,29,68,126,48,-78,-68
-63,-48,14,56,-39,-17,29,73,131,48,-78,-68
-63,-53,9,58,-36,-21,39,73,131,53,-73,-73
-63,-53,9,58,-36,-21,39,78,136,58,-73,-73
-63,-53,9,58,-36,-21,39,78,141,63,-73,-73
-63,-58,4,61,-34,-26,39,87,146,68,-68,-73
-63,-58,4,61,-34,-26,39,87,151,82,-53,-68
-63,-58,4,61,-34,-26,39,92,161,82,-53,-73
-68,-58,9,63,-39,-24,43,97,170,87,-53,-73
-68,-58,9,63,-39,-24,43,102,175,92,-53,-73
-63,-58,4,61,-34,-26,48,107,190,102,-63,-73
-63,-58,4,61,-34,-26,48,112,195,107,-58,-78
-63,-58,4,61,-34,-26,48,112,204,112,-58,-78
-63,-58,4,61,-34,-26,53,117,214,122,-58,-78
-63,-58,4,61,-34,-26,43,131,219,126,-53,-73
-63,-58,4,61,-34,-26,43,136,229,131,-48,-68
-63,-53,9,58,-36,-21,48,141,239,141,-43,-63
-63,-53,9,58,-36,-21,48,146,248,146,-34,-58
-68,-58,9,63,-39,-24,53,146,253,161,-24,-63
-68,-58,9,63,-39,-24,53,156,263,170,-24,-68
-68,-58,9,63,-39,-24,53,156,273,175,-19,-78
-68,-58,9,63,-39,-24,58,156,287,185,-19,-82
-68,-58,9,63,-39,-24,63,170,302,195,-24,-82
-68,-58,9,63,-39,-24,68,175,317,204,-24,-82
-68,-58,9,63,-39,-24,68,180,331,214,-14,-82
-68,-58,9,63,-39,-24,68,195,346,224,-9,-87
-58,-58,0,58,-29,-29,73,195,361,239,-9,-78
-58,-58,0,58,-29,-29,73,204,375,248,-4,-78
-58,-58,0,58,-29,-29,78,214,390,268,0,-78
-58,-58,0,58,-29,-29,78,224,405,283,4,-78
-48,-58,-9,53,-19,-34,82,229,409,292,19,-68
-48,-53,-4,51,-21,-29,87,239,429,297,24,-63
-43,-53,-9,48,-17,-31,92,248,444,317,29,-63
-43,-53,-9,48,-17,-31,92,258,463,331,34,-63
-43,-43,0,43,-21,-21,87,258,468,346,48,-73
-43,-43,0,43,-21,-21,92,268,488,361,58,-73
-43,-43,0,43,-21,-21,92,278,502,375,68,-73
-43,-43,0,43,-21,-21,92,287,517,385,68,-73
-34,-43,-9,39,-12,-26,107,297,531,400,73,-63
-34,-43,-9,39,-12,-26,107,307,541,414,78,-63
-34,-39,-4,36,-14,-21,112,317,556,429,82,-58
-34,-39,-4,36,-14,-21,112,322,570,444,92,-58
-43,-48,-4,46,-19,-26,107,322,570,439,97,-58
-39,-48,-9,43,-14,-29,107,331,585,458,107,-58
-39,-48,-9,43,-14,-29,112,341,595,468,112,-58
-34,-48,-14,41,-9,-31,112,346,605,478,122,-53
-29,-43,-14,36,-7,-29,112,346,614,488,126,-53
-29,-43,-14,36,-7,-29,112,346,619,502,136,-53
-24,-43,-19,34,-2,-31,112,356,634,512,141,-48
-24,-43,-19,34,-2,-31,112,361,644,522,151,-39
-24,-34,-9,29,-7,-21,112,361,639,527,161,-39
-19,-34,-14,26,-2,-24,117,366,644,536,170,-39
-19,-34,-14,26,-2,-24,117,370,653,546,175,-39
-19,-34,-14,26,-2,-24,117,370,658,551,185,-34
-4,-34,-29,19,12,-31,112,375,658,556,180,-29
0,-24,-24,12,12,-24,112,375,663,566,190,-29
0,-24,-24,12,12,-24,107,375,663,566,195,-19
4,-24,-29,9,17,-26,107,380,663,570,204,-14
-4,-14,-9,9,2,-12,97,380,663,575,209,-9
4,-14,-19,4,12,-17,97,375,663,575,209,-9
9,-14,-24,2,17,-19,97,370,653,575,214,-4
14,-14,-29,0,21,-21,97,370,649,575,219,0
29,4,-24,-17,26,-9,102,366,644,570,234,14
39,19,-19,-29,29,0,92,351,619,566,239,24
43,24,-19,-34,31,2,87,341,600,566,244,34
48,29,-19,-39,34,4,82,326,580,556,244,43
63,43,-19,-53,41,12,78,317,570,541,248,48
68,43,-24,-56,46,9,73,302,546,522,248,58
78,43,-34,-61,56,4,63,292,522,512,248,68
87,48,-39,-68,63,4,58,283,488,488,248,73
87,63,-24,-75,56,19,53,263,444,453,248,68
87,63,-24,-75,56,19,43,234,409,429,248,73
82,63,-19,-73,51,21,34,209,370,405,248,78
78,68,-9,-73,43,29,24,180,341,375,234,82
92,68,-24,-80,58,21,14,170,312,366,219,82
92,68,-24,-80,58,21,4,151,278,341,214,87
97,73,-24,-85,61,24,-4,131,248,312,204,92
97,73,-24,-85,61,24,-9,117,214,287,195,97
107,78,-29,-92,68,24,-9,97,170,253,175,87
107,78,-29,-92,68,24,-19,82,146,224,165,92
102,78,-24,-90,63,26,-24,63,112,190,156,92
102,78,-24,-90,63,26,-29,48,78,156,136,87
97,73,-24,-85,61,24,-34,34,68,136,117,78
92,73,-19,-82,56,26,-34,24,48,122,107,78
82,73,-9,-78,46,31,-39,14,34,97,92,73
78,73,-4,-75,41,34,-43,4,19,78,82,73
87,73,-14,-80,51,29,-48,-9,-9,48,73,68
87,73,-14,-80,51,29,-48,-14,-29,34,63,58
87,73,-14,-80,51,29,-53,-29,-48,19,53,53
82,73,-9,-78,46,31,-58,-34,-63,0,39,53
82,73,-9,-78,46,31,-58,-29,-63,0,29,48
82,68,-14,-75,48,26,-58,-39,-78,-19,19,39
82,68,-14,-75,48,26,-58,-39,-87,-29,9,34
78,63,-14,-70,46,24,-58,-43,-92,-29,4,34
78,63,-14,-70,46,24,-53,-53,-97,-39,0,34
82,63,-19,-73,51,21,-53,-53,-107,-48,-4,34
82,63,-19,-73,51,21,-53,-58,-107,-53,-9,34
78,63,-14,-70,46,24,-53,-58,-117,-58,-14,34
78,63,-14,-70,46,24,-63,-58,-112,-58,-14,19
78,63,-14,-70,46,24,-58,-63,-117,-58,-14,19
73,63,-9,-68,41,26,-58,-63,-117,-63,-19,19
73,63,-9,-68,41,26,-58,-63,-122,-63,-19,19
73,58,-14,-65,43,21,-58,-53,-112,-58,-14,19
73,48,-24,-61,48,12,-58,-58,-117,-58,-14,24
73,43,-29,-58,51,7,-58,-58,-117,-63,-9,29
73,39,-34,-56,53,2,-58,-58,-122,-63,-9,29
73,39,-34,-56,53,2,-58,-73,-131,-73,-9,29
73,43,-29,-58,51,7,-63,-73,-131,-73,-9,34
73,48,-24,-61,48,12,-63,-73,-131,-78,-14,34
73,53,-19,-63,46,17,-58,-73,-131,-78,-14,29
73,58,-14,-65,43,21,-68,-73,-131,-78,-19,14
73,58,-14,-65,43,21,-68,-78,-131,-78,-19,9
73,58,-14,-65,43,21,-68,-78,-131,-73,-19,4
73,58,-14,-65,43,21,-68,-78,-131,-73,-24,0
73,43,-29,-58,51,7,-68,-68,-131,-78,-24,9
73,39,-34,-56,53,2,-68,-68,-126,-78,-19,9
73,34,-39,-53,56,-2,-63,-63,-126,-78,-19,14
73,29,-43,-51,58,-7,-63,-63,-126,-78,-19,14
73,34,-39,-53,56,-2,-63,-63,-136,-78,-9,19
73,34,-39,-53,56,-2,-63,-63,-136,-78,-9,24
73,39,-34,-56,53,2,-63,-63,-136,-78,-9,29
78,39,-39,-58,58,0,-63,-63,-136,-78,-9,39
78,29,-48,-53,63,-9,-53,-58,-122,-63,-9,39
78,29,-48,-53,63,-9,-53,-58,-122,-63,-9,39
78,34,-43,-56,61,-4,-53,-58,-122,-63,-9,39
78,34,-43,-56,61,-4,-53,-58,-122,-63,-9,34
78,34,-43,-56,61,-4,-53,-58,-112,-63,0,34
78,34,-43,-56,61,-4,-53,-58,-112,-63,0,34
78,34,-43,-56,61,-4,-53,-53,-112,-63,4,34
78,34,-43,-56,61,-4,-53,-53,-107,-63,4,34
78,43,-34,-61,56,4,-63,-53,-107,-63,0,24
78,43,-34,-61,56,4,-63,-53,-107,-63,-4,24
78,39,-39,-58,58,0,-63,-53,-107,-63,-9,29
78,39,-39,-58,58,0,-63,-53,-102,-58,-14,29
78,39,-39,-58,58,0,-63,-53,-112,-58,-4,29
78,39,-39,-58,58,0,-63,-43,-112,-58,-4,29
78,39,-39,-58,58,0,-63,-43,-112,-58,-4,29
78,39,-39,-58,58,0,-63,-43,-107,-53,-4,29
87,39,-48,-63,68,-4,-63,-43,-107,-58,4,39
87,39,-48,-63,68,-4,-63,-43,-107,-58,4,39
87,39,-48,-63,68,-4,-63,-43,-107,-58,4,39
87,39,-48,-63,68,-4,-63,-43,-102,-58,4,39
78,29,-48,-53,63,-9,-53,-43,-102,-48,4,29
73,29,-43,-51,58,-7,-53,-43,-102,-43,4,29
73,29,-43,-51,58,-7,-53,-43,-97,-43,4,29
78,29,-48,-53,63,-9,-53,-43,-97,-43,0,29
78,39,-39,-58,58,0,-63,-39,-97,-43,0,29
73,39,-34,-56,53,2,-63,-39,-97,-43,4,29
73,39,-34,-56,53,2,-63,-39,-92,-39,4,29
78,39,-39,-58,58,0,-63,-39,-92,-39,4,29
87,29,-58,-58,73,-14,-63,-43,-92,-39,4,39
87,34,-53,-61,70,-9,-63,-43,-92,-39,4,39
87,34,-53,-61,70,-9,-63,-43,-92,-43,4,39
87,29,-58,-58,73,-14,-63,-48,-92,-43,4,39
87,29,-58,-58,73,-14,-73,-48,-92,-34,14,39
87,29,-58,-58,73,-14,-73,-48,-92,-34,14,39
87,29,-58,-58,73,-14,-73,-43,-92,-34,14,39
87,34,-53,-61,70,-9,-73,-43,-92,-34,14,39
87,34,-53,-61,70,-9,-73,-43,-102,-34,14,39
87,34,-53,-61,70,-9,-73,-43,-102,-34,14,39
82,34,-48,-58,65,-7,-68,-43,-102,-34,14,39
82,34,-48,-58,65,-7,-68,-43,-102,-34,14,39
82,34,-48,-58,65,-7,-63,-53,-102,-34,14,39
82,34,-48,-58,65,-7,-63,-53,-102,-34,14,43
82,34,-48,-58,65,-7,-63,-58,-102,-34,14,43
82,34,-48,-58,65,-7,-63,-58,-102,-34,19,43
82,43,-39,-63,61,2,-63,-58,-107,-34,14,43
82,43,-39,-63,61,2,-63,-58,-107,-34,14,43
82,43,-39,-63,61,2,-63,-58,-107,-34,14,43
78,39,-39,-58,58,0,-63,-58,-107,-34,14,43
78,39,-39,-58,58,0,-73,-58,-117,-34,4,48
78,39,-39,-58,58,0,-73,-58,-117,-39,4,48
78,39,-39,-58,58,0,-73,-58,-117,-39,0,43
78,39,-39,-58,58,0,-73,-58,-117,-39,0,43
78,48,-29,-63,53,9,-82,-58,-117,-48,0,34
78,48,-29,-63,53,9,-82,-63,-117,-48,0,34
78,48,-29,-63,53,9,-82,-63,-126,-48,0,29
78,48,-29,-63,53,9,-82,-63,-126,-48,0,29
78,48,-29,-63,53,9,-73,-68,-126,-58,0,29
78,48,-29,-63,53,9,-73,-68,-126,-58,0,29
78,48,-29,-63,53,9,-73,-68,-131,-63,0,29
78,48,-29,-63,53,9,-73,-68,-131,-63,0,34
78,48,-29,-63,53,9,-82,-63,-141,-63,0,34
82,48,-34,-65,58,7,-82,-68,-141,-63,0,34
82,48,-34,-65,58,7,-87,-68,-146,-68,0,34
78,48,-29,-63,53,9,-87,-68,-146,-68,0,34
68,48,-19,-58,43,14,-82,-68,-146,-73,0,34
68,48,-19,-58,43,14,-82,-68,-146,-73,-4,34
68,48,-19,-58,43,14,-82,-68,-151,-78,-4,34
68,48,-19,-58,43,14,-82,-68,-151,-78,-4,34
73,48,-24,-61,48,12,-82,-68,-146,-78,-4,34
73,48,-24,-61,48,12,-82,-68,-146,-78,-4,34
68,48,-19,-58,43,14,-82,-68,-146,-82,-4,34
68,48,-19,-58,43,14,-82,-73,-146,-82,0,34
68,43,-24,-56,46,9,-82,-78,-151,-82,9,43
68,43,-24,-56,46,9,-82,-78,-151,-82,4,43
73,48,-24,-61,48,12,-82,-78,-151,-82,4,43
73,48,-24,-61,48,12,-82,-78,-151,-87,4,43
73,39,-34,-56,53,2,-82,-78,-161,-87,-4,34
68,39,-29,-53,48,4,-82,-78,-161,-87,-4,34
68,39,-29,-53,48,4,-87,-78,-165,-92,-4,29
68,39,-29,-53,48,4,-87,-78,-165,-92,-9,29
58,39,-19,-48,39,9,-87,-82,-170,-92,-14,29
58,39,-19,-48,39,9,-82,-87,-170,-92,-14,29
58,39,-19,-48,39,9,-82,-87,-170,-97,-14,29
63,39,-24,-51,43,7,-87,-87,-170,-97,-14,29
73,39,-34,-56,53,2,-87,-78,-170,-97,-24,29
73,39,-34,-56,53,2,-87,-78,-170,-97,-24,29
68,39,-29,-53,48,4,-87,-78,-170,-97,-24,29
68,39,-29,-53,48,4,-87,-78,-170,-97,-24,29
68,39,-29,-53,48,4,-87,-87,-170,-97,-24,29
68,39,-29,-53,48,4,-87,-87,-175,-97,-29,24
68,39,-29,-53,48,4,-87,-87,-175,-102,-29,19
63,39,-24,-51,43,7,-87,-87,-175,-102,-29,19
63,39,-24,-51,43,7,-87,-87,-180,-102,-19,19
68,39,-29,-53,48,4,-87,-87,-180,-107,-19,19
68,39,-29,-53,48,4,-87,-87,-180,-107,-19,14
68,39,-29,-53,48,4,-87,-87,-180,-107,-19,14
58,39,-19,-48,39,9,-87,-87,-180,-107,-24,19
58,39,-19,-48,39,9,-87,-87,-180,-107,-24,19
58,39,-19,-48,39,9,-87,-87,-180,-107,-24,19
58,39,-19,-48,39,9,-87,-87,-175,-107,-19,19
58,39,-19,-48,39,9,-97,-87,-185,-107,-29,19
58,39,-19,-48,39,9,-97,-92,-185,-102,-29,19
58,39,-19,-48,39,9,-97,-97,-185,-107,-29,19
58,43,-14,-51,36,14,-97,-87,-175,-97,-19,29
58,48,-9,-53,34,19,-97,-87,-175,-97,-19,29
58,53,-4,-56,31,24,-97,-87,-175,-97,-19,29
58,58,0,-58,29,29,-97,-87,-175,-97,-19,29
58,78,19,-68,19,48,-87,-97,-161,-87,-14,34
58,87,29,-73,14,58,-87,-97,-156,-82,-4,34
68,97,29,-82,19,63,-87,-92,-151,-78,0,43
68,107,39,-87,14,73,-87,-92,-146,-73,0,48
63,112,48,-87,7,80,-97,-92,-156,-68,4,39
68,112,43,-90,12,78,-97,-92,-151,-68,9,39
68,117,48,-92,9,82,-102,-92,-151,-68,9,43
68,117,48,-92,9,82,-102,-87,-151,-63,9,43
73,122,48,-97,12,85,-102,-87,-146,-73,0,43
73,122,48,-97,12,85,-102,-82,-146,-68,0,43
73,122,48,-97,12,85,-97,-78,-146,-68,0,43
73,126,53,-100,9,90,-97,-73,-136,-68,0,43
73,126,53,-100,9,90,-87,-78,-131,-68,4,43
73,126,53,-100,9,90,-87,-73,-126,-68,9,43
73,131,58,-102,7,95,-92,-73,-126,-63,9,43
78,131,53,-104,12,92,-92,-73,-122,-63,9,43
78,141,63,-109,7,102,-107,-73,-117,-53,9,43
82,161,78,-122,2,119,-117,-73,-112,-43,19,48
92,185,92,-139,0,139,-122,-78,-102,-34,39,58
97,209,112,-153,-7,161,-136,-82,-102,-29,43,73
97,209,112,-153,-7,161,-151,-87,-122,-29,53,82
97,209,112,-153,-7,161,-161,-107,-136,-39,53,82
97,209,112,-153,-7,161,-161,-126,-141,-43,53,82
102,204,102,-153,0,153,-165,-126,-146,-43,53,82
107,200,92,-153,7,146,-170,-141,-151,-48,48,82
107,195,87,-151,9,141,-180,-146,-161,-53,43,78
107,195,87,-151,9,141,-185,-156,-180,-63,43,78
107,180,73,-143,17,126,-185,-156,-190,-73,39,73
112,170,58,-141,26,114,-185,-161,-200,-87,24,68
112,170,58,-141,26,114,-185,-161,-200,-87,19,68
112,165,53,-139,29,109,-180,-156,-200,-87,19,68
117,161,43,-139,36,102,-175,-156,-200,-87,14,68
107,146,39,-126,34,92,-175,-146,-195,-87,9,53
102,136,34,-119,34,85,-170,-146,-204,-92,9,48
97,126,29,-112,34,78,-170,-146,-209,-97,4,48
97,122,24,-109,36,73,-170,-146,-214,-97,0,48
97,112,14,-104,41,63,-156,-141,-204,-92,4,48
87,107,19,-97,34,63,-151,-136,-204,-97,0,43
78,102,24,-90,26,63,-141,-136,-204,-97,0,39
73,87,14,-80,29,51,-136,-136,-204,-102,-4,29
53,87,34,-70,9,61,-131,-136,-204,-112,-9,24
48,78,29,-63,9,53,-122,-136,-204,-112,-14,19
39,73,34,-56,2,53,-117,-136,-209,-112,-14,19
34,68,34,-51,0,51,-112,-136,-209,-122,-19,14
29,48,19,-39,4,34,-107,-146,-219,-122,-24,14
29,39,9,-34,9,24,-107,-146,-219,-126,-29,14
29,29,0,-29,14,14,-102,-146,-219,-131,-34,14
24,19,-4,-21,14,7,-102,-146,-219,-131,-39,9
24,29,4,-26,9,17,-107,-146,-224,-126,-39,-4
24,24,0,-24,12,12,-102,-146,-224,-131,-43,-9
24,19,-4,-21,14,7,-102,-146,-224,-131,-48,-14
24,19,-4,-21,14,7,-102,-146,-229,-136,-53,-14
24,14,-9,-19,17,2,-102,-146,-234,-146,-53,-9
24,14,-9,-19,17,2,-107,-146,-234,-146,-53,-9
24,14,-9,-19,17,2,-107,-146,-234,-146,-53,-9
24,9,-14,-17,19,-2,-107,-146,-234,-146,-53,-9
29,9,-19,-19,24,-4,-102,-136,-234,-141,-58,-9
29,9,-19,-19,24,-4,-102,-136,-234,-141,-58,-9
29,4,-24,-17,26,-9,-102,-136,-229,-141,-58,-14
29,4,-24,-17,26,-9,-97,-136,-229,-141,-58,-14
34,4,-29,-19,31,-12,-107,-146,-229,-151,-58,-14
34,4,-29,-19,31,-12,-107,-146,-234,-151,-58,-14
29,0,-29,-14,29,-14,-107,-146,-234,-146,-58,-14
29,0,-29,-14,29,-14,-107,-146,-234,-146,-53,-19
19,0,-19,-9,19,-9,-107,-146,-234,-146,-53,-9
19,-4,-24,-7,21,-14,-107,-141,-229,-146,-53,-9
14,-4,-19,-4,17,-12,-102,-141,-229,-146,-53,-9
14,-4,-19,-4,17,-12,-102,-141,-229,-146,-53,-9
24,-4,-29,-9,26,-17,-107,-141,-229,-141,-58,-9
24,-4,-29,-9,26,-17,-107,-141,-229,-141,-58,-9
24,-4,-29,-9,26,-17,-102,-136,-229,-141,-58,-9
24,-9,-34,-7,29,-21,-102,-136,-229,-141,-58,-9
24,0,-24,-12,24,-12,-102,-146,-229,-141,-58,-19
24,4,-19,-14,21,-7,-102,-141,-229,-141,-58,-19
24,4,-19,-14,21,-7,-102,-141,-224,-141,-58,-19
24,4,-19,-14,21,-7,-102,-141,-214,-141,-53,-19
19,4,-14,-12,17,-4,-97,-131,-200,-122,-43,-9
19,4,-14,-12,17,-4,-92,-117,-180,-102,-39,-9
19,4,-14,-12,17,-4,-87,-97,-165,-87,-29,-9
9,4,-4,-7,7,0,-82,-87,-141,-63,-14,-9
14,4,-9,-9,12,-2,-68,-63,-102,-24,0,-14
14,-4,-19,-4,17,-12,-58,-58,-68,24,29,-14
4,-14,-19,4,12,-17,-58,-48,-48,48,39,-24
4,-29,-34,12,19,-31,-43,-43,-24,82,63,-24
4,-29,-34,12,19,-31,-48,-24,29,151,107,-14
19,-29,-48,4,34,-39,-48,0,122,263,185,29
29,-39,-68,4,48,-53,-58,4,175,351,283,73
53,-39,-92,-7,73,-65,-78,-14,180,414,375,122
78,-19,-97,-29,87,-58,-107,-39,170,483,497,204
112,-4,-117,-53,114,-61,-141,-73,122,536,610,292
146,19,-126,-82,136,-53,-185,-136,14,561,727,390
195,58,-136,-126,165,-39,-248,-234,-131,585,868,502
239,122,-117,-180,178,2,-351,-356,-331,585,1024,639
278,185,-92,-231,185,46,-473,-536,-605,546,1166,771
346,248,-97,-297,222,75,-624,-736,-897,488,1317,927
409,292,-117,-351,263,87,-785,-932,-1220,429,1493,1107
473,331,-141,-402,307,95,-907,-1088,-1522,380,1688,1298
536,375,-161,-456,348,107,-995,-1205,-1761,297,1873,1464
590,400,-190,-495,390,104,-1098,-1307,-1981,170,1971,1610
639,419,-219,-529,429,100,-1166,-1415,-2156,63,2020,1703
653,444,-209,-549,431,117,-1210,-1473,-2249,-4,2000,1737
653,434,-219,-544,436,107,-1215,-1507,-2283,-63,1908,1712
649,405,-244,-527,446,80,-1239,-1522,-2308,-122,1766,1649
629,375,-253,-502,441,61,-1244,-1522,-2318,-219,1556,1522
590,366,-224,-478,407,70,-1224,-1507,-2303,-351,1293,1366
551,322,-229,-436,390,46,-1176,-1444,-2244,-488,1029,1205
512,204,-307,-358,409,-51,-1098,-1332,-2137,-624,732,1010
453,63,-390,-258,422,-163,-985,-1180,-1995,-790,366,771
405,-92,-497,-156,451,-295,-863,-1029,-1864,-961,-19,502
331,-200,-531,-65,431,-366,-741,-912,-1742,-1112,-380,234
224,-195,-419,-14,322,-307,-619,-814,-1605,-1210,-624,58
97,-112,-209,7,153,-161,-497,-727,-1415,-1171,-639,4
24,-53,-78,14,51,-65,-385,-590,-1195,-995,-531,-14
24,-82,-107,29,65,-95,-307,-429,-976,-800,-448,-43
19,-112,-131,46,75,-122,-239,-283,-775,-653,-380,-53
14,-92,-107,39,61,-100,-190,-185,-624,-541,-326,-48
19,-63,-82,21,51,-73,-165,-126,-517,-448,-283,-53
14,-48,-63,17,39,-56,-141,-82,-424,-366,-248,-63
4,-39,-43,17,24,-41,-117,-68,-351,-297,-200,-63
0,-39,-39,19,19,-39,-87,-53,-278,-239,-156,-63
4,-29,-34,12,19,-31,-63,-24,-204,-190,-131,-63
0,-24,-24,12,12,-24,-39,4,-161,-141,-102,-48
-4,-14,-9,9,2,-12,-29,19,-122,-117,-97,-48
-14,-4,9,9,-12,2,-24,24,-92,-102,-87,-43
-14,0,14,7,-14,7,-29,29,-78,-92,-87,-43
-14,0,14,7,-14,7,-24,29,-73,-87,-87,-34
-14,4,19,4,-17,12,-24,29,-63,-78,-78,-34
-14,0,14,7,-14,7,-29,24,-53,-73,-78,-39
-14,0,14,7,-14,7,-29,24,-53,-58,-73,-39
-9,0,9,4,-9,4,-24,24,-53,-48,-73,-39
-9,0,9,4,-9,4,-24,24,-43,-48,-78,-43
-14,4,19,4,-17,12,-24,29,-34,-48,-78,-43
-19,4,24,7,-21,14,-19,34,-24,-48,-78,-48
-19,4,24,7,-21,14,-19,39,-19,-43,-78,-48
-19,4,24,7,-21,14,-19,39,-19,-34,-78,-48
-9,0,9,4,-9,4,-19,39,-9,-34,-73,-48
-9,0,9,4,-9,4,-19,39,-4,-24,-68,-48
-9,0,9,4,-9,4,-19,34,-4,-24,-68,-48
-4,0,4,2,-4,2,-14,29,-4,-24,-68,-48
-14,0,14,7,-14,7,-14,29,0,-29,-68,-48
-14,0,14,7,-14,7,-14,29,4,-29,-68,-48
-19,0,19,9,-19,9,-14,29,9,-24,-68,-48
-19,0,19,9,-19,9,-14,29,9,-19,-63,-53
-19,9,29,4,-24,19,-19,19,14,-19,-63,-53
-19,9,29,4,-24,19,-19,19,19,-14,-63,-53
-19,4,24,7,-21,14,-9,19,19,-9,-63,-53
-19,4,24,7,-21,14,-9,24,19,-4,-63,-53
-19,4,24,7,-21,14,-19,14,19,4,-68,-53
-19,9,29,4,-24,19,-19,14,29,4,-68,-58
-19,14,34,2,-26,24,-14,14,29,4,-68,-58
-19,14,34,2,-26,24,-14,14,34,4,-68,-58
-19,14,34,2,-26,24,-19,14,39,0,-58,-58
-19,14,34,2,-26,24,-19,14,43,4,-58,-63
-19,14,34,2,-26,24,-19,19,43,4,-58,-63
-19,14,34,2,-26,24,-19,19,43,9,-58,-63
-29,14,43,7,-36,29,-14,9,39,9,-58,-73
-29,14,43,7,-36,29,-14,9,43,14,-58,-73
-29,9,39,9,-34,24,-9,14,48,19,-58,-73
-29,9,39,9,-34,24,-9,19,53,24,-58,-73
-19,19,39,0,-29,29,-9,19,58,29,-58,-78
-19,19,39,0,-29,29,-9,19,63,29,-58,-78
-19,19,39,0,-29,29,-9,19,68,34,-58,-78
-24,19,43,2,-34,31,-9,24,73,39,-58,-78
-34,24,58,4,-46,41,-9,24,82,43,-53,-82
-34,24,58,4,-46,41,-9,29,87,48,-53,-82
-34,24,58,4,-46,41,-9,29,92,53,-53,-82
-34,19,53,7,-43,36,-9,39,97,58,-48,-82
-24,19,43,2,-34,31,0,39,102,63,-43,-78
-24,19,43,2,-34,31,0,43,112,63,-43,-82
-29,19,48,4,-39,34,4,48,122,68,-43,-82
-29,19,48,4,-39,34,4,53,126,73,-43,-82
-34,19,53,7,-43,36,9,58,141,82,-43,-82
-34,19,53,7,-43,36,9,63,146,87,-39,-87
-34,19,53,7,-43,36,9,63,156,92,-39,-87
-34,19,53,7,-43,36,14,68,165,102,-39,-87
-43,19,63,12,-53,41,14,73,170,117,-48,-97
-43,19,63,12,-53,41,14,78,180,122,-48,-97
-43,24,68,9,-56,46,19,82,190,131,-48,-97
-43,24,68,9,-56,46,19,87,200,136,-43,-97
-39,29,68,4,-53,48,14,92,214,141,-43,-87
-39,29,68,4,-53,48,14,107,224,151,-43,-87
-39,29,68,4,-53,48,14,112,234,156,-39,-92
-39,29,68,4,-53,48,19,117,248,165,-39,-92
-39,29,68,4,-53,48,24,122,253,175,-24,-92
-39,29,68,4,-53,48,29,126,268,185,-24,-92
-39,29,68,4,-53,48,29,131,283,195,-14,-92
-39,29,68,4,-53,48,29,146,297,204,-9,-97
-39,29,68,4,-53,48,43,156,322,219,-19,-97
-39,29,68,4,-53,48,43,165,336,229,-14,-97
-39,29,68,4,-53,48,48,175,351,248,-9,-97
-39,29,68,4,-53,48,48,185,366,263,-4,-97
-39,29,68,4,-53,48,43,190,380,283,0,-107
-39,34,73,2,-56,53,48,200,400,287,4,-102
-34,34,68,0,-51,51,53,209,414,307,9,-102
-34,34,68,0,-51,51,53,219,434,322,14,-102
-34,24,58,4,-46,41,58,229,448,336,29,-92
-34,24,58,4,-46,41,63,239,468,351,39,-92
-34,24,58,4,-46,41,63,248,483,366,48,-92
-34,24,58,4,-46,41,63,258,497,375,48,-92
-34,24,58,4,-46,41,78,268,502,380,63,-102
-34,24,58,4,-46,41,78,278,512,395,68,-102
-34,29,63,2,-48,46,82,287,527,409,73,-97
-34,29,63,2,-48,46,82,292,541,424,82,-97
-34,29,63,2,-48,46,78,302,551,429,78,-87
-29,29,58,0,-43,43,78,312,566,448,87,-87
-29,29,58,0,-43,43,82,322,575,458,92,-87
-24,29,53,-2,-39,41,82,326,585,468,102,-82
-29,34,63,-2,-46,48,92,336,595,478,107,-82
-29,34,63,-2,-46,48,92,336,600,492,117,-82
-24,34,58,-4,-41,46,92,346,614,502,122,-78
-24,34,58,-4,-41,46,92,351,624,512,131,-68
-24,34,58,-4,-41,46,92,351,629,517,131,-68
-19,34,53,-7,-36,43,97,356,634,527,141,-68
-19,34,53,-7,-36,43,97,361,644,536,146,-68
-19,34,53,-7,-36,43,97,361,649,541,156,-63
-14,34,48,-9,-31,41,92,366,649,536,161,-58
-9,43,53,-17,-31,48,92,366,653,546,170,-58
-9,43,53,-17,-31,48,87,366,653,546,175,-48
-4,43,48,-19,-26,46,87,370,653,551,185,-43
-4,43,48,-19,-26,46,87,370,644,556,190,-39
4,43,39,-24,-17,41,87,366,644,556,190,-39
9,43,34,-26,-12,39,87,361,634,556,195,-34
14,43,29,-29,-7,36,87,361,629,556,200,-29
14,48,34,-31,-9,41,73,346,614,551,195,-19
19,58,39,-39,-9,48,63,331,590,546,200,-14
19,58,39,-39,-9,48,58,322,570,546,204,-9
19,58,39,-39,-9,48,53,307,551,536,204,-4
19,63,43,-41,-12,53,48,292,522,512,219,0
19,63,43,-41,-12,53,43,273,497,492,219,9
24,63,39,-43,-7,51,34,258,473,483,219,19
29,68,39,-48,-4,53,29,244,439,458,219,24
24,73,48,-48,-12,61,14,219,395,434,214,29
29,73,43,-51,-7,58,4,195,361,409,209,34
29,73,43,-51,-7,58,-4,175,322,385,204,39
29,78,48,-53,-9,63,-14,151,292,356,185,43
34,78,43,-56,-4,61,-24,126,268,341,170,43
34,78,43,-56,-4,61,-34,102,229,312,165,48
39,82,43,-61,-2,63,-43,78,195,278,156,53
39,82,43,-61,-2,63,-48,58,156,248,146,58
39,78,39,-58,0,58,-48,48,126,229,136,58
39,78,39,-58,0,58,-58,34,107,204,126,63
34,78,43,-56,-4,61,-63,14,78,175,117,63
34,78,43,-56,-4,61,-68,0,48,146,97,58
34,73,39,-53,-2,56,-82,-19,24,131,87,48
34,73,39,-53,-2,56,-82,-34,0,112,78,48
29,73,43,-51,-7,58,-87,-48,-19,82,63,43
29,73,43,-51,-7,58,-92,-63,-39,58,53,43
29,63,34,-46,-2,48,-87,-68,-53,48,43,48
29,63,34,-46,-2,48,-87,-73,-68,34,34,39
29,63,34,-46,-2,48,-92,-87,-82,19,24,34
24,63,39,-43,-7,51,-97,-92,-92,0,9,34
14,73,58,-43,-21,65,-97,-97,-102,0,9,29
14,68,53,-41,-19,61,-97,-107,-117,-19,0,19
14,68,53,-41,-19,61,-97,-107,-126,-29,-9,14
9,63,53,-36,-21,58,-97,-112,-131,-29,-14,14
9,53,43,-31,-17,48,-102,-112,-126,-39,-9,14
14,53,39,-34,-12,46,-102,-112,-136,-48,-14,14
14,53,39,-34,-12,46,-102,-117,-136,-53,-19,14
9,53,43,-31,-17,48,-102,-117,-146,-58,-24,14
9,53,43,-31,-17,48,-102,-117,-151,-58,-24,0
9,53,43,-31,-17,48,-97,-122,-156,-58,-24,0
4,53,48,-29,-21,51,-97,-122,-156,-63,-29,0
4,53,48,-29,-21,51,-97,-122,-161,-63,-29,0
14,53,39,-34,-12,46,-97,-122,-151,-68,-34,4
14,48,34,-31,-9,41,-97,-126,-156,-68,-34,4
14,48,34,-31,-9,41,-97,-126,-156,-73,-29,4
14,48,34,-31,-9,41,-97,-126,-161,-73,-29,0
4,43,39,-24,-17,41,-97,-122,-161,-73,-29,0
4,43,39,-24,-17,41,-102,-122,-161,-73,-29,4
4,43,39,-24,-17,41,-102,-122,-161,-78,-34,4
4,43,39,-24,-17,41,-97,-122,-161,-78,-34,0
4,39,34,-21,-14,36,-97,-122,-161,-78,-29,0
4,39,34,-21,-14,36,-97,-126,-161,-78,-29,0
4,39,34,-21,-14,36,-97,-126,-161,-73,-29,0
4,39,34,-21,-14,36,-97,-126,-161,-73,-34,0
4,29,24,-17,-9,26,-97,-126,-161,-68,-34,9
4,29,24,-17,-9,26,-97,-126,-156,-68,-29,9
4,29,24,-17,-9,26,-92,-122,-156,-68,-29,14
4,29,24,-17,-9,26,-92,-122,-156,-68,-29,14
4,24,19,-14,-7,21,-92,-112,-156,-68,-29,14
4,24,19,-14,-7,21,-92,-112,-156,-68,-29,14
4,29,24,-17,-9,26,-92,-112,-156,-68,-29,14
9,29,19,-19,-4,24,-92,-112,-156,-68,-29,19
0,19,19,-9,-9,19,-92,-107,-151,-63,-29,9
0,19,19,-9,-9,19,-92,-107,-151,-63,-29,9
0,24,24,-12,-12,24,-92,-107,-151,-63,-29,9
0,24,24,-12,-12,24,-92,-107,-151,-63,-29,4
0,24,24,-12,-12,24,-92,-107,-141,-63,-29,4
0,24,24,-12,-12,24,-92,-107,-141,-63,-29,4
0,24,24,-12,-12,24,-92,-102,-141,-63,-24,4
0,24,24,-12,-12,24,-92,-102,-136,-63,-24,4
0,24,24,-12,-12,24,-92,-112,-146,-63,-24,4
0,24,24,-12,-12,24,-92,-112,-146,-63,-24,4
0,19,19,-9,-9,19,-92,-112,-146,-63,-24,9
0,19,19,-9,-9,19,-92,-112,-141,-58,-24,9
9,19,9,-14,0,14,-92,-112,-131,-48,-24,9
9,19,9,-14,0,14,-92,-102,-131,-48,-24,9
9,19,9,-14,0,14,-92,-102,-131,-48,-24,9
9,19,9,-14,0,14,-92,-102,-126,-43,-24,9
9,19,9,-14,0,14,-82,-92,-126,-48,-24,9
9,19,9,-14,0,14,-82,-92,-126,-48,-24,9
9,19,9,-14,0,14,-82,-92,-126,-48,-24,9
9,19,9,-14,0,14,-82,-92,-122,-48,-24,9
0,19,19,-9,-9,19,-82,-92,-122,-48,-24,9
-4,19,24,-7,-14,21,-82,-92,-122,-43,-24,9
-4,19,24,-7,-14,21,-82,-92,-117,-43,-24,9
0,19,19,-9,-9,19,-82,-92,-117,-43,-29,9
9,19,9,-14,0,14,-82,-87,-117,-43,-29,9
4,19,14,-12,-4,17,-82,-87,-117,-43,-24,9
4,19,14,-12,-4,17,-82,-87,-112,-39,-24,9
9,19,9,-14,0,14,-82,-87,-112,-39,-24,9
0,19,19,-9,-9,19,-82,-82,-112,-29,-24,19
0,24,24,-12,-12,24,-82,-82,-112,-29,-24,19
0,24,24,-12,-12,24,-82,-82,-112,-34,-24,19
0,19,19,-9,-9,19,-82,-87,-112,-34,-24,19
0,19,19,-9,-9,19,-92,-87,-112,-24,-14,9
0,19,19,-9,-9,19,-92,-87,-112,-24,-14,9
0,19,19,-9,-9,19,-92,-82,-112,-24,-14,9
0,24,24,-12,-12,24,-92,-82,-112,-24,-14,9
0,24,24,-12,-12,24,-82,-82,-102,-24,-14,19
0,24,24,-12,-12,24,-82,-82,-102,-24,-14,19
-4,24,29,-9,-17,26,-78,-82,-102,-24,-14,19
-4,24,29,-9,-17,26,-78,-82,-102,-24,-14,19
4,24,19,-14,-7,21,-82,-92,-102,-24,-14,9
4,24,19,-14,-7,21,-82,-92,-102,-24,-14,14
4,24,19,-14,-7,21,-82,-97,-102,-24,-14,14
4,24,19,-14,-7,21,-82,-97,-102,-24,-9,14
-4,24,29,-9,-17,26,-82,-87,-107,-24,-4,24
-4,24,29,-9,-17,26,-82,-87,-107,-24,-4,24
-4,24,29,-9,-17,26,-82,-87,-107,-24,-4,24
-9,19,29,-4,-19,24,-82,-87,-107,-24,-4,24
0,29,29,-14,-14,29,-82,-97,-107,-24,-4,19
0,29,29,-14,-14,29,-82,-97,-107,-29,-4,19
0,29,29,-14,-14,29,-82,-97,-107,-29,-9,14
0,29,29,-14,-14,29,-82,-97,-107,-29,-9,14
0,29,29,-14,-14,29,-82,-97,-107,-29,-9,24
0,29,29,-14,-14,29,-82,-102,-107,-29,-9,24
0,29,29,-14,-14,29,-82,-102,-117,-29,-9,19
0,29,29,-14,-14,29,-82,-102,-117,-29,-9,19
-9,29,39,-9,-24,34,-82,-107,-126,-29,-19,19
-9,29,39,-9,-24,34,-82,-107,-126,-29,-19,19
-9,29,39,-9,-24,34,-82,-107,-131,-34,-19,19
-9,29,39,-9,-24,34,-82,-107,-131,-34,-19,24
-9,29,39,-9,-24,34,-82,-102,-122,-34,-9,24
-4,29,34,-12,-19,31,-82,-107,-122,-34,-9,24
-4,29,34,-12,-19,31,-87,-107,-126,-39,-9,24
-9,29,39,-9,-24,34,-87,-107,-126,-39,-9,24
-9,29,39,-9,-24,34,-82,-107,-126,-43,-9,24
-9,29,39,-9,-24,34,-82,-107,-126,-43,-14,24
-9,29,39,-9,-24,34,-82,-107,-131,-48,-14,24
-9,29,39,-9,-24,34,-82,-107,-131,-48,-14,24
-4,29,34,-12,-19,31,-82,-107,-136,-48,-24,14
-4,29,34,-12,-19,31,-82,-107,-136,-48,-24,14
-9,29,39,-9,-24,34,-82,-107,-136,-53,-24,14
-9,29,39,-9,-24,34,-82,-112,-136,-53,-19,14
-9,14,24,-2,-17,19,-82,-107,-141,-53,-19,14
-9,14,24,-2,-17,19,-82,-107,-141,-53,-24,14
-4,19,24,-7,-14,21,-82,-107,-141,-53,-24,14
-4,19,24,-7,-14,21,-82,-107,-141,-58,-24,14
-4,19,24,-7,-14,21,-82,-107,-141,-58,-24,14
-9,19,29,-4,-19,24,-82,-107,-141,-58,-24,14
-9,19,29,-4,-19,24,-87,-107,-146,-63,-24,9
-9,19,29,-4,-19,24,-87,-107,-146,-63,-29,9
-9,29,39,-9,-24,34,-87,-112,-151,-53,-24,9
-9,29,39,-9,-24,34,-82,-117,-151,-53,-24,9
-9,29,39,-9,-24,34,-82,-117,-151,-58,-24,9
-4,29,34,-12,-19,31,-87,-117,-151,-58,-24,9
-14,19,34,-2,-24,26,-87,-117,-151,-58,-34,9
-14,19,34,-2,-24,26,-87,-117,-151,-58,-34,9
-19,19,39,0,-29,29,-87,-117,-151,-58,-34,9
-19,19,39,0,-29,29,-87,-117,-151,-58,-34,9
-9,19,29,-4,-19,24,-87,-117,-151,-58,-34,19
-9,19,29,-4,-19,24,-87,-117,-156,-58,-39,14
-9,19,29,-4,-19,24,-87,-117,-156,-63,-39,9
-14,19,34,-2,-24,26,-87,-117,-156,-63,-39,9
-24,19,43,2,-34,31,-78,-117,-161,-63,-39,9
-19,19,39,0,-29,29,-78,-117,-161,-68,-39,9
-19,19,39,0,-29,29,-78,-117,-161,-68,-39,4
-19,19,39,0,-29,29,-78,-117,-161,-68,-39,4
-9,19,29,-4,-19,24,-87,-126,-161,-68,-43,9
-9,19,29,-4,-19,24,-87,-126,-161,-68,-43,9
-9,19,29,-4,-19,24,-87,-126,-161,-68,-43,9
-9,19,29,-4,-19,24,-87,-126,-156,-68,-39,9
-19,19,39,0,-29,29,-87,-117,-156,-78,-39,9
-19,19,39,0,-29,29,-87,-122,-156,-73,-39,9
-19,19,39,0,-29,29,-87,-122,-156,-73,-39,9
-19,19,39,0,-29,29,-87,-122,-156,-73,-39,9
-19,24,43,-2,-31,34,-87,-131,-161,-73,-43,4
-24,24,48,0,-36,36,-82,-126,-161,-73,-43,4
-24,24,48,0,-36,36,-82,-126,-161,-73,-43,4
-19,24,43,-2,-31,34,-82,-126,-161,-68,-43,4
-19,24,43,-2,-31,34,-82,-126,-156,-68,-43,14
-19,29,48,-4,-34,39,-82,-126,-161,-68,-39,14
-19,19,39,0,-29,29,-78,-117,-156,-58,-29,9
-9,29,39,-9,-24,34,-68,-117,-151,-58,-19,19
-9,29,39,-9,-24,34,-68,-117,-146,-58,-19,19
-9,29,39,-9,-24,34,-68,-117,-141,-58,-19,19
-9,29,39,-9,-24,34,-68,-117,-136,-58,-19,19
0,58,58,-29,-29,58,-68,-107,-122,-39,-14,34
0,68,68,-34,-34,68,-68,-107,-117,-34,-4,34
9,78,68,-43,-29,73,-68,-102,-112,-29,0,43
9,87,78,-48,-34,82,-68,-102,-107,-24,0,48
14,102,87,-58,-36,95,-68,-102,-97,-9,14,48
19,102,82,-61,-31,92,-68,-102,-92,-9,19,48
19,107,87,-63,-34,97,-73,-102,-92,-9,19,53
19,107,87,-63,-34,97,-73,-97,-92,-4,19,53
24,112,87,-68,-31,100,-73,-97,-87,-14,19,53
24,112,87,-68,-31,100,-73,-92,-87,-9,19,53
24,112,87,-68,-31,100,-68,-87,-87,-9,19,53
24,117,92,-70,-34,104,-68,-82,-78,-9,19,53
24,117,92,-70,-34,104,-68,-78,-73,0,14,53
24,117,92,-70,-34,104,-68,-73,-68,0,19,53
24,122,97,-73,-36,109,-73,-73,-68,4,19,53
29,122,92,-75,-31,107,-73,-73,-63,4,19,53
29,122,92,-75,-31,107,-78,-73,-58,4,29,63
34,141,107,-87,-36,124,-87,-73,-53,14,39,68
43,165,122,-104,-39,143,-92,-78,-43,24,58,78
48,190,141,-119,-46,165,-107,-82,-43,29,63,92
48,190,141,-119,-46,165,-122,-107,-63,29,53,92
48,190,141,-119,-46,165,-131,-126,-78,19,53,92
48,190,141,-119,-46,165,-131,-146,-82,14,53,92
53,185,131,-119,-39,158,-136,-146,-87,14,53,92
58,180,122,-119,-31,151,-141,-141,-82,9,48,92
58,175,117,-117,-29,146,-151,-146,-92,4,43,87
58,175,117,-117,-29,146,-156,-156,-112,-4,43,87
58,161,102,-109,-21,131,-156,-156,-122,-14,39,82
53,161,107,-107,-26,134,-165,-170,-131,-29,24,78
53,161,107,-107,-26,134,-165,-170,-131,-29,19,78
53,156,102,-104,-24,129,-161,-165,-131,-29,19,78
58,151,92,-104,-17,122,-156,-165,-131,-29,14,78
68,146,78,-107,-4,112,-146,-165,-136,-39,9,73
63,136,73,-100,-4,104,-141,-165,-146,-43,9,68
58,126,68,-92,-4,97,-141,-165,-151,-48,4,68
58,122,63,-90,-2,92,-141,-165,-156,-48,0,68
58,112,53,-85,2,82,-136,-161,-165,-43,4,58
48,107,58,-78,-4,82,-131,-156,-165,-48,0,53
39,102,63,-70,-12,82,-122,-156,-165,-48,0,48
34,87,53,-61,-9,70,-117,-156,-165,-53,-4,39
24,87,63,-56,-19,75,-112,-156,-165,-63,-19,43
19,78,58,-48,-19,68,-102,-156,-165,-63,-24,39
9,73,63,-41,-26,68,-97,-156,-170,-63,-24,39
4,68,63,-36,-29,65,-92,-156,-170,-73,-29,34
-19,58,78,-19,-48,68,-78,-156,-180,-63,-24,14
-19,48,68,-14,-43,58,-78,-156,-180,-68,-29,14
-19,39,58,-9,-39,48,-73,-156,-180,-73,-34,14
-24,29,53,-2,-39,41,-73,-156,-180,-73,-39,9
-24,29,53,-2,-39,41,-78,-146,-175,-78,-39,4
-24,24,48,0,-36,36,-73,-146,-175,-82,-43,0
-24,19,43,2,-34,31,-73,-146,-175,-82,-48,-4
-24,19,43,2,-34,31,-73,-146,-180,-87,-53,-4
-24,14,39,4,-31,26,-63,-146,-195,-97,-63,-9
-24,14,39,4,-31,26,-68,-146,-195,-97,-63,-9
-24,14,39,4,-31,26,-68,-146,-195,-97,-63,-9
-24,9,34,7,-29,21,-68,-146,-195,-97,-63,-9
-29,0,29,14,-29,14,-63,-146,-195,-92,-58,-9
-29,0,29,14,-29,14,-63,-146,-195,-92,-58,-9
-29,-4,24,17,-26,9,-63,-146,-190,-92,-58,-14
-29,-4,24,17,-26,9,-58,-146,-190,-92,-58,-14
-24,-4,19,14,-21,7,-58,-146,-180,-102,-68,-14
-24,-4,19,14,-21,7,-58,-146,-185,-102,-68,-14
-29,-9,19,19,-24,4,-58,-146,-185,-97,-68,-14
-29,-9,19,19,-24,4,-58,-146,-185,-97,-63,-19
-29,-9,19,19,-24,4,-68,-146,-185,-87,-63,-9
-29,-14,14,21,-21,0,-68,-141,-180,-87,-63,-9
-34,-14,19,24,-26,2,-63,-141,-180,-87,-63,-9
-34,-14,19,24,-26,2,-63,-141,-180,-87,-63,-9
-34,-14,19,24,-26,2,-58,-131,-180,-82,-68,-9
-34,-14,19,24,-26,2,-58,-131,-180,-82,-68,-9
-34,-14,19,24,-26,2,-53,-126,-180,-82,-68,-9
-34,-19,14,26,-24,-2,-53,-126,-180,-82,-68,-9
-34,-19,14,26,-24,-2,-53,-136,-170,-82,-68,-9
-34,-14,19,24,-26,2,-53,-131,-170,-82,-68,-9
-34,-14,19,24,-26,2,-53,-131,-165,-82,-68,-9
-34,-14,19,24,-26,2,-53,-131,-156,-82,-63,-9
-39,-14,24,26,-31,4,-48,-122,-151,-73,-63,-9
-39,-14,24,26,-31,4,-43,-117,-141,-63,-58,-9
-39,-14,24,26,-31,4,-39,-97,-126,-48,-48,-9
-39,-14,24,26,-31,4,-34,-87,-102,-24,-43,-9
-43,-14,29,29,-36,7,-29,-73,-82,-14,-39,-14
-43,-4,39,24,-41,17,-9,-58,-39,24,-19,-14
-43,-14,29,29,-36,7,0,-29,0,68,0,-14
-53,-9,43,31,-48,17,4,-24,14,102,24,-24
-53,-29,24,41,-39,-2,19,-14,48,131,39,-24
-58,-29,29,43,-43,0,19,9,112,204,78,-9
-48,-29,19,39,-34,-4,19,24,195,312,156,24
-34,-29,4,31,-19,-12,9,34,248,414,248,73
-9,-29,-19,19,4,-24,-9,0,248,473,351,136
14,-14,-29,0,21,-21,-43,-53,219,527,473,214
58,19,-39,-39,48,-9,-87,-107,151,570,590,302
97,48,-48,-73,73,0,-141,-204,4,585,712,405
141,92,-48,-117,95,21,-224,-326,-175,595,849,522
180,156,-24,-168,102,65,-326,-488,-419,585,1010,663
229,209,-19,-219,124,95,-468,-717,-732,517,1151,800
302,253,-48,-278,175,102,-619,-951,-1073,419,1288,961
375,273,-102,-324,239,85,-761,-1166,-1434,292,1424,1122
439,297,-141,-368,290,78,-878,-1342,-1771,170,1581,1288
502,312,-190,-407,346,61,-990,-1483,-2039,63,1737,1464
561,341,-219,-451,390,61,-1098,-1639,-2303,-73,1844,1615
605,366,-239,-485,422,63,-1171,-1786,-2513,-200,1903,1717
624,366,-258,-495,441,53,-1205,-1839,-2576,-258,1898,1761
639,356,-283,-497,461,36,-1229,-1834,-2581,-278,1825,1747
649,346,-302,-497,475,21,-1263,-1815,-2571,-297,1693,1678
639,336,-302,-488,470,17,-1263,-1761,-2518,-331,1517,1561
610,322,-287,-466,448,17,-1234,-1708,-2440,-419,1273,1420
580,263,-317,-422,448,-26,-1166,-1595,-2342,-536,1005,1244
541,151,-390,-346,466,-119,-1073,-1424,-2191,-644,717,1054
492,34,-458,-263,475,-212,-961,-1234,-2010,-775,380,814
419,-82,-502,-168,461,-292,-839,-1098,-1869,-936,0,546
351,-204,-556,-73,453,-380,-697,-971,-1742,-1063,-331,273
263,-258,-522,-2,392,-390,-585,-844,-1610,-1161,-590,63
151,-190,-341,19,246,-265,-463,-736,-1429,-1141,-658,-4
43,-92,-136,24,90,-114,-356,-595,-1171,-956,-546,4
19,-73,-92,26,56,-82,-278,-419,-902,-722,-429,4
24,-92,-117,34,70,-104,-219,-253,-683,-551,-356,-9
9,-82,-92,36,51,-87,-165,-165,-527,-448,-302,-24
-14,-48,-34,31,9,-41,-141,-141,-424,-366,-258,-24
-24,-29,-4,26,-9,-17,-107,-126,-351,-297,-219,-34
-29,-19,9,24,-19,-4,-78,-102,-278,-239,-185,-43
-34,-19,14,26,-24,-2,-43,-73,-214,-170,-151,-43
-39,-24,14,31,-26,-4,-29,-53,-161,-122,-131,-48
-53,-24,29,39,-41,2,-9,-29,-112,-87,-117,-48
-53,-24,29,39,-41,2,4,14,-53,-53,-97,-34
-53,-19,34,36,-43,7,19,58,-9,-34,-87,-34
-63,-19,43,41,-53,12,24,68,14,-19,-87,-43
-63,-14,48,39,-56,17,24,68,24,-9,-78,-43
-63,-9,53,36,-58,21,29,58,29,-14,-78,-39
-63,-9,53,36,-58,21,29,53,24,0,-73,-39
-58,-9,48,34,-53,19,34,48,19,9,-73,-39
-58,-9,48,34,-53,19,34,43,24,9,-78,-43
-53,-14,39,34,-46,12,34,39,43,19,-78,-43
-58,-14,43,36,-51,14,39,43,53,19,-78,-48
-58,-14,43,36,-51,14,39,48,58,24,-78,-48
-58,-14,43,36,-51,14,39,48,58,34,-78,-48
-68,-9,58,39,-63,24,39,58,68,24,-73,-48
-68,-9,58,39,-63,24,39,58,73,34,-68,-48
-68,-9,58,39,-63,24,39,53,73,34,-68,-48
-63,-9,53,36,-58,21,43,48,73,34,-68,-48
-53,-9,43,31,-48,17,43,58,78,48,-68,-48
-53,-9,43,31,-48,17,43,58,82,48,-68,-48
-58,-9,48,34,-53,19,43,58,87,53,-68,-48
-58,-9,48,34,-53,19,43,58,87,58,-63,-53
-58,-9,48,34,-53,19,48,58,92,58,-53,-43
-58,-9,48,34,-53,19,48,58,97,63,-53,-43
-58,-14,43,36,-51,14,58,58,97,68,-53,-43
-58,-14,43,36,-51,14,58,63,97,73,-53,-43
-58,-14,43,36,-51,14,48,63,107,82,-48,-43
-58,-9,48,34,-53,19,48,63,117,82,-48,-48
-58,-4,53,31,-56,24,53,63,117,82,-48,-48
-58,-4,53,31,-56,24,53,63,122,82,-48,-48
-58,4,63,26,-61,34,58,63,126,87,-48,-48
-58,4,63,26,-61,34,58,63,131,92,-48,-53
-58,4,63,26,-61,34,58,68,131,92,-48,-53
-58,4,63,26,-61,34,58,68,131,97,-48,-53
-58,4,63,26,-61,34,53,68,136,97,-48,-63
-58,4,63,26,-61,34,53,68,141,102,-48,-63
-58,0,58,29,-58,29,58,73,146,107,-48,-63
-58,0,58,29,-58,29,58,78,151,112,-48,-63
-58,0,58,29,-58,29,58,87,156,117,-39,-58
-58,0,58,29,-58,29,58,87,161,117,-39,-58
-58,0,58,29,-58,29,58,87,165,122,-39,-58
-63,0,63,31,-63,31,58,92,170,126,-39,-58
-63,4,68,29,-65,36,68,102,190,141,-43,-63
-63,4,68,29,-65,36,68,107,195,146,-43,-63
-63,4,68,29,-65,36,68,107,200,151,-43,-63
-63,0,63,31,-63,31,68,117,204,156,-39,-63
-63,9,73,26,-68,41,68,117,209,161,-34,-68
-63,9,73,26,-68,41,68,122,219,161,-34,-73
-68,9,78,29,-73,43,73,126,229,165,-34,-73
-68,9,78,29,-73,43,73,131,234,170,-34,-73
-63,9,73,26,-68,41,78,146,258,190,-34,-73
-63,9,73,26,-68,41,78,151,263,195,-29,-78
-63,9,73,26,-68,41,78,151,273,200,-29,-78
-63,9,73,26,-68,41,82,156,283,209,-29,-78
-73,0,73,36,-73,36,82,161,297,214,-19,-78
-73,0,73,36,-73,36,82,165,307,219,-19,-78
-73,4,78,34,-75,41,87,170,317,229,-19,-78
-73,4,78,34,-75,41,87,175,326,234,-14,-78
-68,9,78,29,-73,43,102,190,351,258,-14,-78
-68,9,78,29,-73,43,102,204,361,268,-14,-78
-68,9,78,29,-73,43,102,209,370,273,-9,-82
-68,9,78,29,-73,43,107,214,385,283,-9,-82
-78,19,97,29,-87,58,112,229,400,292,-4,-82
-78,19,97,29,-87,58,117,234,414,302,-4,-82
-78,19,97,29,-87,58,117,239,429,312,4,-82
-78,19,97,29,-87,58,117,253,444,322,9,-87
-68,19,87,24,-78,53,122,263,458,346,0,-87
-68,19,87,24,-78,53,122,273,473,356,4,-87
-68,19,87,24,-78,53,126,283,488,375,9,-87
-68,19,87,24,-78,53,126,292,502,390,14,-87
-78,19,97,29,-87,58,131,307,517,400,19,-97
-78,24,102,26,-90,63,136,317,536,405,24,-92
-73,24,97,24,-85,61,141,326,551,424,29,-92
-73,24,97,24,-85,61,141,336,570,439,34,-92
-73,24,97,24,-85,61,146,346,595,453,48,-92
-73,24,97,24,-85,61,151,356,614,468,58,-92
-73,24,97,24,-85,61,151,366,629,483,68,-92
-73,24,97,24,-85,61,151,375,644,492,68,-92
-63,24,87,19,-75,56,165,395,649,507,73,-102
-63,24,87,19,-75,56,165,405,658,522,78,-102
-63,29,92,17,-78,61,170,414,673,536,82,-97
-63,29,92,17,-78,61,170,419,688,551,92,-97
-63,39,102,12,-82,70,165,429,707,566,107,-87
-58,39,97,9,-78,68,165,439,722,585,117,-87
-58,39,97,9,-78,68,170,448,732,595,122,-87
-53,39,92,7,-73,65,170,453,741,605,131,-82
-48,43,92,2,-70,68,170,463,751,614,136,-82
-48,43,92,2,-70,68,170,463,756,629,146,-82
-43,43,87,0,-65,65,170,473,771,639,151,-78
-43,43,87,0,-65,65,170,478,780,649,161,-68
-43,43,87,0,-65,65,170,478,785,653,170,-68
-39,43,82,-2,-61,63,175,483,790,663,180,-68
-39,43,82,-2,-61,63,175,488,800,673,185,-68
-39,43,82,-2,-61,63,175,488,805,678,195,-63
-34,43,78,-4,-56,61,170,502,805,692,190,-58
-29,53,82,-12,-56,68,170,502,810,702,200,-58
-29,53,82,-12,-56,68,165,502,810,702,204,-48
-24,53,78,-14,-51,65,165,507,810,707,214,-43
-24,53,78,-14,-51,65,165,497,810,702,229,-39
-14,53,68,-19,-41,61,165,492,810,702,229,-39
-9,53,63,-21,-36,58,165,488,800,702,234,-34
-4,53,58,-24,-31,56,165,488,795,702,239,-29
-14,48,63,-17,-39,56,161,483,790,697,244,-9
-9,58,68,-24,-39,63,151,468,766,692,248,-4
-9,58,68,-24,-39,63,146,458,746,692,253,0
-9,58,68,-24,-39,63,141,444,727,683,253,4
0,63,63,-31,-31,63,136,424,697,668,258,9
0,63,63,-31,-31,63,131,400,673,649,258,19
4,63,58,-34,-26,61,122,380,649,639,258,29
9,68,58,-39,-24,63,117,361,614,614,258,34
4,73,68,-39,-31,70,102,336,570,580,248,39
9,73,63,-41,-26,68,92,312,536,556,248,43
9,73,63,-41,-26,68,82,292,497,531,248,48
9,78,68,-43,-29,73,73,268,468,502,234,53
24,68,43,-46,-9,56,53,234,424,478,229,53
24,68,43,-46,-9,56,43,209,385,448,224,58
29,73,43,-51,-7,58,34,185,351,414,214,63
29,73,43,-51,-7,58,29,165,312,385,204,68
29,78,48,-53,-9,63,29,136,268,346,185,68
29,78,48,-53,-9,63,19,122,244,322,175,73
24,78,53,-51,-14,65,14,102,209,292,165,73
24,78,53,-51,-14,65,9,87,175,263,146,68
24,63,39,-43,-7,51,-4,68,151,239,136,68
24,63,39,-43,-7,51,-4,53,126,219,126,68
19,63,43,-41,-12,53,-9,39,107,190,112,63
19,63,43,-41,-12,53,-14,24,87,165,102,63
19,63,43,-41,-12,53,-19,0,78,136,82,58
19,63,43,-41,-12,53,-19,-4,58,122,73,48
19,63,43,-41,-12,53,-24,-19,39,107,63,43
14,63,48,-39,-17,56,-29,-24,24,87,48,43
14,63,48,-39,-17,56,-29,-29,4,78,43,48
14,58,43,-36,-14,51,-29,-39,-9,58,39,39
14,58,43,-36,-14,51,-29,-39,-19,48,34,34
9,53,43,-31,-17,48,-29,-43,-24,48,34,34
9,53,43,-31,-17,48,-34,-53,-29,29,19,34
14,53,39,-34,-12,46,-34,-53,-39,19,14,34
14,53,39,-34,-12,46,-34,-58,-39,14,9,34
9,53,43,-31,-17,48,-34,-58,-48,9,4,34
9,53,43,-31,-17,48,-34,-68,-53,9,4,29
9,53,43,-31,-17,48,-29,-73,-58,9,4,29
4,53,48,-29,-21,51,-29,-73,-58,4,0,29
4,53,48,-29,-21,51,-29,-73,-63,4,0,29
4,53,48,-29,-21,51,-29,-73,-63,-9,-4,24
4,48,43,-26,-19,46,-29,-78,-68,-9,-4,24
4,48,43,-26,-19,46,-29,-78,-68,-14,0,24
4,48,43,-26,-19,46,-29,-78,-73,-14,0,19
4,43,39,-24,-17,41,-29,-82,-82,-14,0,19
4,43,39,-24,-17,41,-34,-82,-82,-14,0,24
4,43,39,-24,-17,41,-34,-82,-82,-19,-4,24
4,43,39,-24,-17,41,-29,-82,-82,-19,-4,19
4,39,34,-21,-14,36,-39,-82,-82,-19,-9,19
4,39,34,-21,-14,36,-39,-87,-82,-19,-9,19
4,39,34,-21,-14,36,-39,-87,-82,-14,-9,19
4,39,34,-21,-14,36,-39,-87,-82,-14,-14,19
4,39,34,-21,-14,36,-39,-87,-82,-9,-4,19
4,39,34,-21,-14,36,-39,-87,-78,-9,0,19
4,39,34,-21,-14,36,-34,-82,-78,-9,0,24
4,39,34,-21,-14,36,-34,-82,-78,-9,0,24
4,34,29,-19,-12,31,-34,-82,-78,-9,0,24
4,34,29,-19,-12,31,-34,-82,-78,-9,0,24
4,39,34,-21,-14,36,-34,-82,-78,-9,0,24
9,39,29,-24,-9,34,-34,-82,-78,-9,0,29
9,39,29,-24,-9,34,-43,-78,-82,-14,0,29
9,39,29,-24,-9,34,-43,-78,-82,-14,0,29
9,43,34,-26,-12,39,-43,-78,-82,-14,0,29
9,43,34,-26,-12,39,-43,-78,-82,-14,0,24
9,43,34,-26,-12,39,-34,-78,-73,-4,0,24
9,43,34,-26,-12,39,-34,-78,-73,-4,0,24
9,43,34,-26,-12,39,-34,-73,-73,-4,4,24
9,43,34,-26,-12,39,-34,-73,-68,-4,4,24
9,43,34,-26,-12,39,-34,-73,-68,-14,-4,24
9,43,34,-26,-12,39,-34,-73,-68,-14,-4,24
9,39,29,-24,-9,34,-34,-73,-68,-14,-4,29
9,39,29,-24,-9,34,-34,-73,-63,-9,-4,29
9,39,29,-24,-9,34,-34,-82,-63,-9,-4,29
9,39,29,-24,-9,34,-34,-73,-63,-9,-4,29
9,39,29,-24,-9,34,-34,-73,-63,-9,-4,29
9,39,29,-24,-9,34,-34,-73,-58,-4,-4,29
0,29,29,-14,-14,29,-34,-63,-58,0,-4,29
0,29,29,-14,-14,29,-34,-63,-58,0,-4,29
0,29,29,-14,-14,29,-34,-63,-58,0,-4,29
0,29,29,-14,-14,29,-34,-63,-53,0,-4,29
9,29,19,-19,-4,24,-34,-53,-53,0,-4,29
4,29,24,-17,-9,26,-34,-53,-53,4,-4,29
4,29,24,-17,-9,26,-34,-53,-48,4,-4,29
9,29,19,-19,-4,24,-34,-53,-48,4,-9,29
9,29,19,-19,-4,24,-24,-48,-48,4,-9,29
4,29,24,-17,-9,26,-24,-48,-48,4,-4,29
4,29,24,-17,-9,26,-24,-48,-43,9,-4,29
9,29,19,-19,-4,24,-24,-48,-43,9,-4,29
0,29,29,-14,-14,29,-24,-53,-43,9,-4,29
0,34,34,-17,-17,34,-24,-53,-43,9,-4,29
0,34,34,-17,-17,34,-24,-53,-43,4,-4,29
0,29,29,-14,-14,29,-24,-58,-43,4,-4,29
0,39,39,-19,-19,39,-24,-58,-34,14,-4,29
0,39,39,-19,-19,39,-24,-58,-34,14,-4,29
0,39,39,-19,-19,39,-24,-53,-34,14,-4,29
0,43,43,-21,-21,43,-24,-53,-34,14,-4,29
0,34,34,-17,-17,34,-24,-53,-34,14,-4,19
0,34,34,-17,-17,34,-24,-53,-34,14,-4,19
-4,34,39,-14,-21,36,-19,-53,-34,14,-4,19
-4,34,39,-14,-21,36,-19,-53,-34,14,-4,19
-4,34,39,-14,-21,36,-24,-53,-34,14,-4,19
-4,34,39,-14,-21,36,-24,-53,-34,14,-4,24
-4,34,39,-14,-21,36,-24,-58,-34,14,-4,24
-4,34,39,-14,-21,36,-24,-58,-34,14,0,24
-4,34,39,-14,-21,36,-24,-48,-39,4,-4,24
-4,34,39,-14,-21,36,-24,-48,-39,4,-4,24
-4,34,39,-14,-21,36,-24,-48,-39,4,-4,24
-9,29,39,-9,-24,34,-24,-48,-39,4,-4,24
-9,29,39,-9,-24,34,-14,-48,-39,14,4,39
-9,29,39,-9,-24,34,-14,-48,-39,9,4,39
-9,29,39,-9,-24,34,-14,-48,-39,9,0,34
-9,29,39,-9,-24,34,-14,-48,-39,9,0,34
-9,39,48,-14,-29,43,-24,-58,-39,0,0,34
-9,39,48,-14,-29,43,-24,-63,-39,0,0,34
-9,39,48,-14,-29,43,-24,-63,-48,0,0,29
-9,39,48,-14,-29,43,-24,-63,-48,0,0,29
-9,39,48,-14,-29,43,-24,-68,-48,9,9,29
-9,39,48,-14,-29,43,-24,-68,-48,9,9,29
-9,39,48,-14,-29,43,-24,-68,-53,4,9,29
-9,39,48,-14,-29,43,-24,-68,-53,4,9,34
-19,39,58,-9,-39,48,-24,-73,-53,-4,0,34
-14,39,53,-12,-34,46,-24,-78,-53,-4,0,34
-14,39,53,-12,-34,46,-29,-78,-58,-9,0,34
-19,39,58,-9,-39,48,-29,-78,-58,-9,0,34
-9,39,48,-14,-29,43,-24,-78,-58,-4,0,34
-9,39,48,-14,-29,43,-24,-78,-58,-4,-4,34
-9,39,48,-14,-29,43,-24,-78,-63,-9,-4,34
-9,39,48,-14,-29,43,-24,-78,-63,-9,-4,34
-14,29,43,-7,-29,36,-24,-78,-68,-9,-4,34
-14,29,43,-7,-29,36,-24,-78,-68,-9,-4,34
-19,29,48,-4,-34,39,-24,-78,-68,-14,-4,34
-19,29,48,-4,-34,39,-24,-82,-68,-14,0,34
-19,34,53,-7,-36,43,-34,-87,-82,-14,0,34
-19,34,53,-7,-36,43,-34,-87,-82,-14,-4,34
-14,39,53,-12,-34,46,-34,-87,-82,-14,-4,34
-14,39,53,-12,-34,46,-34,-87,-82,-19,-4,34
-4,29,34,-12,-19,31,-34,-87,-82,-19,-4,34
-9,29,39,-9,-24,34,-34,-87,-82,-19,-4,34
-9,29,39,-9,-24,34,-39,-87,-87,-24,-4,29
-9,29,39,-9,-24,34,-39,-87,-87,-24,-9,29
-19,29,48,-4,-34,39,-29,-82,-92,-34,-4,29
-19,29,48,-4,-34,39,-24,-87,-92,-34,-4,29
-19,29,48,-4,-34,39,-24,-87,-92,-39,-4,29
-14,29,43,-7,-29,36,-29,-87,-92,-39,-4,29
-14,29,43,-7,-29,36,-29,-87,-92,-29,-14,29
-14,29,43,-7,-29,36,-29,-87,-92,-29,-14,29
-19,29,48,-4,-34,39,-29,-87,-92,-29,-14,29
-19,29,48,-4,-34,39,-29,-87,-92,-29,-14,29
-19,39,58,-9,-39,48,-39,-97,-92,-39,-14,29
-19,39,58,-9,-39,48,-39,-97,-97,-39,-19,24
-19,39,58,-9,-39,48,-39,-97,-97,-43,-19,19
-24,39,63,-7,-43,51,-39,-97,-97,-43,-19,19
-24,39,63,-7,-43,51,-39,-107,-102,-43,-19,19
-19,39,58,-9,-39,48,-39,-107,-102,-48,-19,19
-19,39,58,-9,-39,48,-39,-107,-102,-48,-19,14
-19,39,58,-9,-39,48,-39,-107,-102,-48,-19,14
-19,39,58,-9,-39,48,-39,-107,-102,-58,-24,19
-19,39,58,-9,-39,48,-39,-107,-102,-58,-24,19
-19,39,58,-9,-39,48,-39,-107,-102,-58,-24,19
-19,39,58,-9,-39,48,-39,-107,-97,-58,-19,19
-29,39,68,-4,-48,53,-39,-107,-107,-58,-19,9
-29,39,68,-4,-48,53,-39,-112,-107,-53,-19,9
-29,39,68,-4,-48,53,-39,-112,-107,-53,-19,9
-29,39,68,-4,-48,53,-39,-112,-107,-53,-19,9
-29,34,63,-2,-46,48,-48,-112,-102,-53,-24,14
-34,34,68,0,-51,51,-43,-107,-102,-53,-24,14
-34,34,68,0,-51,51,-43,-107,-102,-53,-24,14
-29,34,63,-2,-46,48,-43,-107,-102,-48,-24,14
-29,29,58,0,-43,43,-43,-107,-107,-58,-24,14
-29,39,68,-4,-48,53,-43,-107,-102,-58,-19,14
-29,39,68,-4,-48,53,-43,-102,-102,-53,-14,19
-24,34,58,-4,-41,46,-43,-102,-97,-43,-14,19
-24,24,48,0,-36,36,-39,-112,-97,-43,-24,19
-24,29,53,-2,-39,41,-39,-112,-97,-43,-24,19
-24,43,68,-9,-46,56,-39,-112,-97,-48,-14,19
-19,48,68,-14,-43,58,-34,-112,-92,-53,-14,14
-19,34,53,-7,-36,43,-43,-102,-107,-53,-19,14
-29,39,68,-4,-48,53,-39,-107,-107,-48,-19,19
-19,48,68,-14,-43,58,-39,-107,-97,-39,-19,19
-19,48,68,-14,-43,58,-39,-107,-97,-39,-19,19
-19,48,68,-14,-43,58,-39,-107,-97,-39,-19,19
-19,48,68,-14,-43,58,-39,-107,-97,-39,-19,19
-19,73,92,-26,-56,82,-29,-97,-82,-29,-4,24
-19,78,97,-29,-58,87,-29,-97,-78,-24,4,24
-9,82,92,-36,-51,87,-29,-92,-73,-19,9,34
-9,87,97,-39,-53,92,-29,-92,-68,-14,9,39
-14,102,117,-43,-65,109,-29,-82,-58,-9,24,48
-9,102,112,-46,-61,107,-29,-82,-53,-9,29,48
-9,107,117,-48,-63,112,-34,-82,-53,-9,29,53
-9,107,117,-48,-63,112,-34,-78,-53,-4,29,53
-4,112,117,-53,-61,114,-43,-78,-48,-4,29,53
-4,112,117,-53,-61,114,-43,-73,-48,0,29,53
-4,112,117,-53,-61,114,-39,-68,-48,0,29,53
-4,117,122,-56,-63,119,-39,-63,-39,0,29,53
4,117,112,-61,-53,114,-39,-58,-34,9,24,53
4,117,112,-61,-53,114,-39,-53,-29,9,29,53
4,122,117,-63,-56,119,-43,-53,-29,14,29,53
9,122,112,-65,-51,117,-43,-53,-24,14,29,53
0,112,112,-56,-56,112,-39,-43,-19,14,39,63
4,131,126,-68,-61,129,-48,-43,-14,24,48,68
14,156,141,-85,-63,148,-53,-48,-4,34,68,78
19,180,161,-100,-70,170,-68,-53,-4,39,73,92
29,190,161,-109,-65,175,-82,-78,-14,39,73,92
29,190,161,-109,-65,175,-92,-97,-29,29,73,92
29,190,161,-109,-65,175,-92,-117,-34,24,73,92
34,185,151,-109,-58,168,-97,-117,-39,24,73,92
39,180,141,-109,-51,161,-102,-131,-43,19,58,92
39,175,136,-107,-48,156,-112,-136,-53,14,53,87
39,175,136,-107,-48,156,-117,-146,-73,4,53,87
39,161,122,-100,-41,141,-117,-146,-82,-4,48,82
34,151,117,-92,-41,134,-126,-141,-92,-19,34,78
34,151,117,-92,-41,134,-126,-141,-92,-19,29,78
34,146,112,-90,-39,129,-122,-136,-92,-19,29,78
39,141,102,-90,-31,122,-117,-136,-92,-19,24,78
39,136,97,-87,-29,117,-117,-141,-107,-39,19,73
34,126,92,-80,-29,109,-112,-146,-117,-43,19,68
29,117,87,-73,-29,102,-112,-151,-122,-48,14,68
29,112,82,-70,-26,97,-112,-156,-126,-48,9,68
39,112,73,-75,-17,92,-107,-151,-126,-43,4,58
29,107,78,-68,-24,92,-102,-146,-126,-48,0,53
19,102,82,-61,-31,92,-92,-146,-126,-48,0,48
14,87,73,-51,-29,80,-87,-146,-126,-53,-4,39
4,87,82,-46,-39,85,-82,-146,-126,-63,-19,34
0,78,78,-39,-39,78,-73,-146,-126,-63,-24,29
-9,73,82,-31,-46,78,-68,-146,-131,-63,-24,29
-14,68,82,-26,-48,75,-63,-146,-131,-73,-29,24
-39,58,97,-9,-68,78,-48,-146,-141,-73,-34,4
-39,48,87,-4,-63,68,-48,-146,-141,-78,-39,4
-39,39,78,0,-58,58,-43,-146,-141,-82,-43,4
-43,29,73,7,-58,51,-43,-146,-141,-82,-48,0
-43,29,73,7,-58,51,-39,-146,-146,-87,-39,-4
-43,24,68,9,-56,46,-34,-146,-146,-92,-43,-9
-43,19,63,12,-53,41,-34,-146,-146,-92,-48,-14
-43,19,63,12,-53,41,-34,-146,-151,-97,-53,-14
-53,4,58,24,-56,31,-34,-136,-156,-97,-53,-9
-53,4,58,24,-56,31,-39,-136,-156,-97,-53,-9
-53,4,58,24,-56,31,-39,-136,-156,-97,-53,-9
-53,0,53,26,-53,26,-39,-136,-156,-97,-53,-9
-58,9,68,24,-63,39,-43,-146,-156,-102,-68,-19
-58,9,68,24,-63,39,-43,-146,-156,-102,-68,-19
-58,4,63,26,-61,34,-43,-146,-151,-102,-68,-24
-58,4,63,26,-61,34,-39,-146,-151,-102,-68,-24
-53,4,58,24,-56,31,-39,-146,-151,-102,-58,-19
-53,4,58,24,-56,31,-39,-146,-156,-102,-58,-14
-58,0,58,29,-58,29,-39,-146,-156,-97,-58,-9
-58,0,58,29,-58,29,-39,-146,-156,-97,-53,-9
-58,0,58,29,-58,29,-29,-136,-146,-97,-53,-9
-58,-4,53,31,-56,24,-29,-131,-141,-97,-53,-9
-63,-4,58,34,-61,26,-24,-131,-141,-97,-53,-9
-63,-4,58,34,-61,26,-24,-131,-141,-97,-53,-9
-53,-4,48,29,-51,21,-29,-131,-141,-92,-58,-9
-53,-4,48,29,-51,21,-29,-131,-141,-92,-58,-9
-53,-4,48,29,-51,21,-24,-126,-141,-92,-58,-9
-53,-9,43,31,-48,17,-24,-126,-141,-92,-58,-9
-63,0,63,31,-63,31,-24,-126,-141,-92,-58,-19
-63,4,68,29,-65,36,-24,-122,-141,-92,-58,-19
-63,4,68,29,-65,36,-24,-122,-136,-92,-58,-19
-63,4,68,29,-65,36,-24,-122,-126,-92,-53,-19
-58,-4,53,31,-56,24,-19,-122,-131,-82,-53,-29
-48,4,53,21,-51,29,-14,-117,-122,-73,-48,-29
-58,4,63,26,-61,34,-9,-107,-107,-58,-39,-19
-58,-4,53,31,-56,24,-4,-87,-73,-43,-24,-9
-63,4,68,29,-65,36,9,-73,-53,-14,-19,-14
-73,4,78,34,-75,41,19,-58,-29,14,-9,-14
-73,4,78,34,-75,41,29,-29,9,58,9,-14
-73,0,73,36,-73,36,34,-24,34,92,43,-4
-73,0,73,36,-73,36,39,-14,58,122,58,-4
-68,-9,58,39,-63,24,48,0,112,175,87,-9
-68,-9,58,39,-63,24,48,24,195,273,146,24
-53,-9,43,31,-48,17,39,34,278,375,239,73
-39,-19,19,29,-29,0,19,29,307,453,331,126
-14,-14,0,14,-7,-7,-4,-24,297,507,434,195
29,19,-9,-24,19,4,-39,-68,258,570,551,283
68,39,-29,-53,48,4,-82,-136,151,585,663,385
102,73,-29,-87,65,21,-156,-248,-19,595,800,483
161,126,-34,-143,97,46,-258,-409,-234,575,941,614
219,200,-19,-209,119,90,-380,-629,-527,517,1083,761
273,253,-19,-263,146,117,-531,-883,-858,419,1210,912
346,273,-73,-309,209,100,-673,-1117,-1210,302,1327,1063
409,287,-122,-348,265,82,-810,-1332,-1586,161,1464,1229
483,302,-180,-392,331,61,-922,-1483,-1893,24,1610,1395
561,331,-229,-446,395,51,-1029,-1629,-2156,-112,1717,1556
614,356,-258,-485,436,48,-1132,-1805,-2405,-258,1766,1668
644,375,-268,-509,456,53,-1185,-1908,-2527,-346,1751,1722
658,366,-292,-512,475,36,-1220,-1932,-2542,-395,1668,1708
668,346,-322,-507,495,12,-1234,-1932,-2532,-424,1537,1639
658,326,-331,-492,495,-2,-1254,-1908,-2508,-458,1361,1522
639,322,-317,-480,478,2,-1234,-1844,-2449,-527,1137,1381
590,283,-307,-436,448,-12,-1185,-1771,-2371,-634,868,1205
561,200,-361,-380,461,-80,-1093,-1629,-2249,-751,610,1024
522,73,-448,-297,485,-187,-1000,-1420,-2088,-854,302,795
458,-53,-512,-202,485,-283,-878,-1244,-1937,-995,-29,536
380,-165,-546,-107,463,-356,-746,-1107,-1790,-1122,-351,263
292,-239,-531,-26,412,-385,-624,-980,-1659,-1210,-619,24
190,-209,-400,9,295,-305,-502,-863,-1498,-1220,-736,-73
73,-122,-195,24,134,-158,-375,-702,-1249,-1073,-653,-63
0,-92,-92,46,46,-92,-268,-517,-971,-839,-497,-34
-4,-112,-107,58,51,-109,-200,-331,-741,-639,-405,-39
0,-92,-92,46,46,-92,-156,-204,-566,-517,-361,-53
-14,-58,-43,36,14,-51,-122,-141,-453,-424,-317,-43
-24,-29,-4,26,-9,-17,-97,-117,-361,-346,-268,-43
-29,-19,9,24,-19,-4,-58,-102,-297,-287,-224,-43
-53,-9,43,31,-48,17,-34,-82,-224,-219,-180,-43
-68,-14,53,41,-61,19,0,-53,-161,-161,-151,-39
-73,-4,68,39,-70,31,19,-29,-102,-117,-126,-39
-73,-4,68,39,-70,31,34,4,-53,-82,-107,-24
-73,0,73,36,-73,36,39,48,-9,-63,-97,-24
-73,0,73,36,-73,36,43,68,24,-39,-97,-34
-73,4,78,34,-75,41,53,68,34,-29,-87,-34
-73,0,73,36,-73,36,58,53,34,-34,-78,-29
-73,0,73,36,-73,36,58,53,34,-19,-73,-29
-68,0,68,34,-68,34,63,53,34,-9,-73,-29
-68,0,68,34,-68,34,63,53,43,-9,-78,-34
-73,4,78,34,-75,41,63,48,53,-9,-87,-24
-78,4,82,36,-80,43,68,53,63,-9,-87,-29
-78,4,82,36,-80,43,68,58,68,-4,-87,-29
-78,4,82,36,-80,43,68,58,68,4,-87,-29
-78,9,87,34,-82,48,58,68,87,4,-82,-39
-78,9,87,34,-82,48,58,68,92,14,-78,-39
-78,9,87,34,-82,48,58,63,92,14,-78,-39
-73,9,82,31,-78,46,63,58,92,14,-78,-39
-73,9,82,31,-78,46,63,58,97,19,-68,-39
-73,9,82,31,-78,46,63,58,102,19,-68,-39
-78,9,87,34,-82,48,63,58,107,24,-68,-39
-78,9,87,34,-82,48,63,58,107,29,-63,-43
-68,9,78,29,-73,43,58,58,112,29,-63,-43
-68,9,78,29,-73,43,58,58,117,34,-63,-43
-68,4,73,31,-70,39,68,58,117,39,-63,-43
-68,4,73,31,-70,39,68,63,117,43,-63,-43
-78,4,82,36,-80,43,78,73,117,43,-58,-43
-78,9,87,34,-82,48,78,73,126,43,-58,-48
-78,14,92,31,-85,53,82,73,126,43,-58,-48
-78,14,92,31,-85,53,82,73,131,43,-58,-48
-68,14,82,26,-75,48,78,73,136,58,-68,-48
-68,14,82,26,-75,48,78,73,141,63,-68,-53
-68,14,82,26,-75,48,78,78,141,63,-68,-53
-68,14,82,26,-75,48,78,78,141,68,-68,-53
-78,14,92,31,-85,53,73,78,146,68,-68,-53
-78,14,92,31,-85,53,73,78,151,73,-68,-53
-78,9,87,34,-82,48,78,82,156,78,-68,-53
-78,9,87,34,-82,48,78,87,161,82,-68,-53
-78,19,97,29,-87,58,78,87,175,87,-58,-68
-78,19,97,29,-87,58,78,87,180,87,-58,-68
-78,19,97,29,-87,58,78,87,185,92,-58,-68
-82,19,102,31,-92,61,78,92,190,97,-58,-68
-82,14,97,34,-90,56,87,102,200,102,-63,-63
-82,14,97,34,-90,56,87,107,204,107,-63,-63
-82,14,97,34,-90,56,87,107,209,112,-63,-63
-82,9,92,36,-87,51,87,117,214,117,-58,-63
-82,9,92,36,-87,51,87,126,219,122,-53,-68
-82,9,92,36,-87,51,87,131,229,122,-53,-73
-87,9,97,39,-92,53,92,136,239,126,-53,-73
-87,9,97,39,-92,53,92,141,244,131,-53,-73
-82,19,102,31,-92,61,97,156,258,141,-53,-63
-82,19,102,31,-92,61,97,161,263,146,-48,-68
-82,19,102,31,-92,61,97,161,273,151,-48,-68
-82,19,102,31,-92,61,102,165,283,161,-48,-68
-92,19,112,36,-102,65,102,161,297,175,-48,-78
-92,19,112,36,-102,65,102,165,307,180,-48,-78
-92,24,117,34,-104,70,107,170,317,190,-48,-78
-92,24,117,34,-104,70,107,175,326,195,-43,-78
-87,19,107,34,-97,63,112,190,341,200,-43,-87
-87,19,107,34,-97,63,112,204,351,209,-43,-87
-87,19,107,34,-97,63,112,209,361,214,-39,-92
-87,19,107,34,-97,63,117,214,375,224,-39,-92
-87,19,107,34,-97,63,122,239,390,244,-43,-92
-87,19,107,34,-97,63,126,244,405,253,-43,-92
-87,19,107,34,-97,63,126,248,419,263,-34,-92
-87,19,107,34,-97,63,126,263,434,273,-29,-97
-87,19,107,34,-97,63,131,273,448,278,-29,-92
-87,19,107,34,-97,63,131,283,463,287,-24,-87
-87,19,107,34,-97,63,136,292,478,307,-19,-82
-87,19,107,34,-97,63,136,302,492,322,-14,-78
-87,19,107,34,-97,63,141,317,507,331,-9,-78
-87,24,112,31,-100,68,146,326,527,336,-4,-73
-82,24,107,29,-95,65,151,336,541,356,0,-73
-82,24,107,29,-95,65,151,346,561,370,4,-73
-82,24,107,29,-95,65,165,356,566,385,9,-82
-82,24,107,29,-95,65,170,366,585,400,19,-82
-82,24,107,29,-95,65,170,375,600,414,29,-82
-82,24,107,29,-95,65,170,385,614,424,29,-82
-82,14,97,34,-90,56,165,395,629,439,39,-82
-82,14,97,34,-90,56,165,405,639,453,39,-82
-82,19,102,31,-92,61,170,414,653,468,39,-78
-82,19,102,31,-92,61,170,419,668,483,43,-78
-82,19,102,31,-92,61,175,429,678,488,58,-78
-78,19,97,29,-87,58,175,439,692,507,68,-78
-78,19,97,29,-87,58,180,448,702,517,73,-78
-73,19,92,26,-82,56,180,453,712,527,82,-73
-68,34,102,17,-85,68,180,463,722,536,97,-73
-68,34,102,17,-85,68,180,463,727,551,107,-73
-63,34,97,14,-80,65,180,473,741,561,112,-68
-63,34,97,14,-80,65,180,478,751,570,122,-58
-63,34,97,14,-80,65,180,478,756,575,122,-58
-58,34,92,12,-75,63,185,483,761,585,131,-58
-58,34,92,12,-75,63,185,488,771,595,136,-58
-58,34,92,12,-75,63,185,488,775,600,146,-53
-43,34,78,4,-61,56,180,502,785,614,141,-48
-39,43,82,-2,-61,63,180,502,790,624,151,-48
-39,43,82,-2,-61,63,175,502,790,624,156,-39
-34,43,78,-4,-56,61,175,507,790,629,165,-34
-43,43,87,0,-65,65,165,497,790,634,170,-19
-34,43,78,-4,-56,61,165,492,790,634,170,-19
-29,43,73,-7,-51,58,165,488,780,634,175,-14
-24,43,68,-9,-46,56,165,488,775,634,180,-9
-24,39,63,-7,-43,51,170,483,780,629,195,0
-19,48,68,-14,-43,58,161,468,756,624,200,4
-19,48,68,-14,-43,58,156,458,736,624,204,9
-19,48,68,-14,-43,58,151,444,717,614,204,14
-19,53,73,-17,-46,63,146,429,707,610,209,19
-19,53,73,-17,-46,63,141,409,683,590,209,29
-14,53,68,-19,-41,61,131,395,658,580,209,39
-9,58,68,-24,-39,63,126,380,624,556,209,43
-14,53,68,-19,-41,61,112,356,580,531,204,39
-9,53,63,-21,-36,58,102,331,546,507,200,43
-9,53,63,-21,-36,58,92,312,507,483,195,48
-9,58,68,-24,-39,63,82,287,478,453,175,53
4,58,53,-31,-24,56,73,253,453,439,180,53
4,58,53,-31,-24,56,63,229,414,409,175,58
9,63,53,-36,-21,58,53,204,380,375,165,63
9,63,53,-36,-21,58,48,185,341,346,156,68
9,58,48,-34,-19,53,48,156,297,307,136,68
9,58,48,-34,-19,53,39,141,273,283,126,73
4,58,53,-31,-24,56,34,122,239,253,117,73
4,58,53,-31,-24,56,29,107,204,224,97,68
4,53,48,-29,-21,51,14,78,170,200,87,68
4,53,48,-29,-21,51,14,63,146,180,78,68
0,53,53,-26,-26,53,9,48,126,151,63,63
0,53,53,-26,-26,53,4,34,107,126,53,63
0,43,43,-21,-21,43,-9,19,82,97,43,68
0,43,43,-21,-21,43,-9,14,58,82,34,58
0,43,43,-21,-21,43,-14,0,34,68,24,53
-4,43,48,-19,-26,46,-19,-4,14,48,9,53
-4,34,39,-14,-21,36,-19,-19,4,29,9,63
-4,29,34,-12,-19,31,-19,-29,-9,9,0,58
-4,29,34,-12,-19,31,-19,-29,-19,0,-9,58
-9,24,34,-7,-21,29,-19,-34,-24,0,-14,63
-9,34,43,-12,-26,39,-24,-43,-29,-19,-19,58
-4,34,39,-14,-21,36,-24,-43,-39,-29,-24,53
-4,34,39,-14,-21,36,-24,-48,-39,-34,-29,48
-9,34,43,-12,-26,39,-24,-48,-48,-39,-34,43
-9,24,34,-7,-21,29,-24,-58,-53,-39,-43,29
-9,24,34,-7,-21,29,-19,-63,-58,-39,-43,29
-14,24,39,-4,-26,31,-19,-63,-58,-43,-48,29
-14,24,39,-4,-26,31,-19,-63,-63,-43,-48,29
-14,14,29,0,-21,21,-19,-53,-63,-58,-53,34
-14,9,24,2,-19,17,-19,-58,-68,-58,-53,34
-14,9,24,2,-19,17,-19,-58,-68,-63,-48,34
-14,9,24,2,-19,17,-19,-58,-73,-63,-48,29
-24,4,29,9,-26,17,-19,-73,-82,-63,-48,39
-24,4,29,9,-26,17,-24,-73,-82,-63,-48,43
-24,4,29,9,-26,17,-24,-73,-82,-68,-53,43
-24,4,29,9,-26,17,-19,-73,-82,-68,-53,39
-14,9,24,2,-19,17,-19,-73,-82,-78,-53,34
-14,9,24,2,-19,17,-19,-78,-82,-78,-58,29
-14,9,24,2,-19,17,-19,-78,-82,-73,-63,24
-14,9,24,2,-19,17,-19,-78,-82,-73,-73,19
-24,9,34,7,-29,21,-19,-68,-92,-68,-63,19
-24,9,34,7,-29,21,-19,-68,-87,-68,-58,19
-24,9,34,7,-29,21,-14,-63,-87,-68,-58,24
-24,9,34,7,-29,21,-14,-63,-87,-68,-58,24
-24,-4,19,14,-21,7,-14,-63,-78,-68,-48,34
-24,-4,19,14,-21,7,-14,-63,-78,-68,-48,34
-24,0,24,12,-24,12,-14,-63,-78,-68,-48,34
-19,0,19,9,-19,9,-14,-63,-78,-68,-48,39
-19,-9,9,14,-14,0,-14,-58,-82,-63,-39,48
-19,-9,9,14,-14,0,-14,-58,-82,-63,-39,48
-19,-4,14,12,-17,4,-14,-58,-82,-63,-39,48
-19,-4,14,12,-17,4,-14,-58,-82,-63,-39,43
-19,-4,14,12,-17,4,-14,-58,-73,-63,-48,34
-19,-4,14,12,-17,4,-14,-58,-73,-63,-48,34
-19,-4,14,12,-17,4,-14,-53,-73,-63,-43,34
-19,-4,14,12,-17,4,-14,-53,-68,-63,-43,34
-19,-4,14,12,-17,4,-14,-53,-68,-63,-53,24
-19,-4,14,12,-17,4,-14,-53,-68,-63,-53,24
-19,-9,9,14,-14,0,-14,-53,-68,-63,-53,29
-19,-9,9,14,-14,0,-14,-53,-63,-58,-53,29
-19,-9,9,14,-14,0,-14,-53,-63,-58,-53,39
-19,-9,9,14,-14,0,-14,-43,-63,-58,-53,39
-19,-9,9,14,-14,0,-14,-43,-63,-58,-53,39
-19,-9,9,14,-14,0,-14,-43,-58,-53,-53,39
-19,-9,9,14,-14,0,-4,-43,-48,-58,-53,39
-19,-9,9,14,-14,0,-4,-43,-48,-58,-53,39
-19,-9,9,14,-14,0,-4,-43,-48,-58,-53,39
-19,-9,9,14,-14,0,-4,-43,-43,-58,-53,39
-19,-9,9,14,-14,0,-4,-34,-53,-58,-53,39
-24,-9,14,17,-19,2,-4,-34,-53,-53,-53,39
-24,-9,14,17,-19,2,-4,-34,-48,-53,-53,39
-19,-9,9,14,-14,0,-4,-34,-48,-53,-58,39
-19,-9,9,14,-14,0,-14,-39,-48,-53,-58,39
-24,-9,14,17,-19,2,-14,-39,-48,-53,-53,39
-24,-9,14,17,-19,2,-14,-39,-43,-48,-53,39
-19,-9,9,14,-14,0,-14,-39,-43,-48,-53,39
-19,-9,9,14,-14,0,-14,-43,-43,-48,-53,48
-19,-4,14,12,-17,4,-14,-43,-43,-48,-53,48
-19,-4,14,12,-17,4,-14,-43,-43,-53,-53,48
-19,-9,9,14,-14,0,-14,-48,-43,-53,-53,48
-19,-9,9,14,-14,0,-4,-39,-34,-43,-63,39
-19,-9,9,14,-14,0,-4,-39,-34,-43,-63,39
-19,-9,9,14,-14,0,-4,-34,-34,-43,-63,39
-19,-4,14,12,-17,4,-4,-34,-34,-43,-63,39
-29,-4,24,17,-26,9,-4,-34,-43,-53,-63,39
-29,-4,24,17,-26,9,-4,-34,-43,-53,-63,39
-34,-4,29,19,-31,12,0,-34,-43,-53,-63,39
-34,-4,29,19,-31,12,0,-34,-43,-53,-63,39
-24,-4,19,14,-21,7,-4,-34,-43,-43,-53,39
-24,-4,19,14,-21,7,-4,-34,-43,-43,-53,43
-24,-4,19,14,-21,7,-4,-39,-43,-43,-53,43
-24,-4,19,14,-21,7,-4,-39,-43,-43,-48,43
-24,-4,19,14,-21,7,-14,-39,-48,-43,-53,43
-24,-4,19,14,-21,7,-14,-39,-48,-43,-53,43
-24,-4,19,14,-21,7,-14,-39,-48,-43,-53,43
-29,-9,19,19,-24,4,-14,-39,-48,-43,-53,43
-29,0,29,14,-29,14,-14,-39,-48,-53,-53,48
-29,0,29,14,-29,14,-14,-39,-48,-58,-53,48
-29,0,29,14,-29,14,-14,-39,-48,-58,-58,43
-29,0,29,14,-29,14,-14,-39,-48,-58,-58,43
-29,0,29,14,-29,14,-4,-39,-48,-58,-58,53
-29,0,29,14,-29,14,-4,-43,-48,-58,-58,53
-29,0,29,14,-29,14,-4,-43,-58,-58,-58,48
-29,0,29,14,-29,14,-4,-43,-58,-58,-58,48
-19,0,19,9,-19,9,-14,-48,-68,-58,-68,39
-19,0,19,9,-19,9,-14,-48,-68,-58,-68,39
-19,0,19,9,-19,9,-14,-48,-73,-63,-68,39
-19,0,19,9,-19,9,-14,-48,-73,-63,-68,43
-29,9,39,9,-34,24,-24,-53,-73,-63,-63,43
-24,9,34,7,-29,21,-24,-58,-73,-63,-58,43
-24,9,34,7,-29,21,-29,-58,-78,-68,-53,43
-29,9,39,9,-34,24,-29,-58,-78,-68,-48,43
-19,0,19,9,-19,9,-14,-68,-78,-73,-48,53
-19,0,19,9,-19,9,-14,-68,-78,-73,-53,53
-19,0,19,9,-19,9,-14,-68,-82,-78,-53,53
-19,0,19,9,-19,9,-14,-68,-82,-78,-53,53
-14,0,14,7,-14,7,-14,-58,-78,-68,-63,53
-14,0,14,7,-14,7,-14,-58,-78,-68,-63,53
-19,0,19,9,-19,9,-14,-58,-78,-73,-63,53
-19,0,19,9,-19,9,-14,-63,-78,-73,-58,53
-19,4,24,7,-21,14,-14,-68,-92,-82,-58,53
-19,4,24,7,-21,14,-14,-68,-92,-82,-63,53
-14,9,24,2,-19,17,-14,-68,-92,-82,-63,53
-14,9,24,2,-19,17,-14,-68,-92,-87,-63,53
-14,9,24,2,-19,17,-14,-78,-92,-78,-53,63
-19,9,29,4,-24,19,-14,-78,-92,-78,-53,63
-19,9,29,4,-24,19,-19,-78,-97,-82,-53,58
-19,9,29,4,-24,19,-19,-78,-97,-82,-58,58
-19,9,29,4,-24,19,-29,-73,-102,-92,-63,58
-19,9,29,4,-24,19,-24,-78,-102,-92,-63,58
-19,9,29,4,-24,19,-24,-78,-102,-97,-63,58
-14,9,24,2,-19,17,-29,-78,-102,-97,-63,58
-14,9,24,2,-19,17,-19,-78,-102,-97,-73,48
-14,9,24,2,-19,17,-19,-78,-102,-97,-73,48
-19,9,29,4,-24,19,-19,-78,-102,-97,-73,48
-19,9,29,4,-24,19,-19,-78,-102,-97,-73,48
-19,0,19,9,-19,9,-19,-78,-112,-97,-63,58
-19,0,19,9,-19,9,-19,-78,-117,-97,-68,53
-19,0,19,9,-19,9,-19,-78,-117,-102,-68,48
-24,0,24,12,-24,12,-19,-78,-117,-102,-68,48
-14,0,14,7,-14,7,-29,-78,-117,-92,-78,58
-9,0,9,4,-9,4,-29,-78,-112,-97,-78,58
-9,0,9,4,-9,4,-29,-78,-107,-97,-78,53
-9,0,9,4,-9,4,-29,-78,-102,-97,-78,53
-19,0,19,9,-19,9,-29,-78,-112,-107,-92,48
-19,0,19,9,-19,9,-29,-78,-112,-107,-92,48
-19,0,19,9,-19,9,-29,-78,-112,-107,-92,48
-19,0,19,9,-19,9,-29,-78,-107,-107,-87,48
-19,9,29,4,-24,19,-29,-78,-117,-107,-78,48
-19,9,29,4,-24,19,-29,-82,-117,-102,-78,48
-19,9,29,4,-24,19,-29,-82,-117,-102,-78,48
-19,9,29,4,-24,19,-29,-82,-117,-102,-78,48
-9,9,19,0,-14,14,-19,-82,-112,-112,-73,43
-14,4,19,4,-17,12,-14,-78,-112,-112,-73,43
-14,0,14,7,-14,7,-14,-78,-112,-112,-73,43
-9,-4,4,7,-7,0,-14,-78,-112,-107,-73,43
-19,0,19,9,-19,9,-14,-78,-112,-117,-82,43
-19,9,29,4,-24,19,-14,-78,-112,-117,-78,43
-19,9,29,4,-24,19,-14,-73,-117,-112,-73,48
-14,4,19,4,-17,12,-14,-73,-117,-102,-73,48
-14,0,14,7,-14,7,-29,-73,-122,-107,-82,48
-14,0,14,7,-14,7,-29,-73,-117,-102,-82,48
-14,9,24,2,-19,17,-29,-73,-112,-102,-73,48
-9,9,19,0,-14,14,-24,-73,-102,-102,-73,43
-9,4,14,2,-12,9,-14,-82,-107,-102,-68,43
-19,0,19,9,-19,9,-19,-82,-117,-102,-78,43
-9,4,14,2,-12,9,-19,-78,-117,-107,-78,43
-19,9,29,4,-24,19,-19,-78,-122,-107,-78,43
-19,9,29,4,-24,19,-19,-87,-117,-117,-78,48
-9,14,24,-2,-17,19,-19,-78,-107,-112,-68,58
-9,19,29,-4,-19,24,-19,-78,-107,-107,-68,58
-9,24,34,-7,-21,29,-19,-78,-107,-102,-68,58
-9,29,39,-9,-24,34,-19,-78,-107,-97,-68,58
-9,43,53,-17,-31,48,-9,-68,-92,-78,-53,73
-9,48,58,-19,-34,53,-9,-68,-87,-73,-43,73
0,53,53,-26,-26,53,-9,-63,-82,-68,-39,82
0,58,58,-29,-29,58,-9,-63,-78,-63,-39,87
-4,63,68,-29,-36,65,-19,-63,-78,-68,-43,78
0,63,63,-31,-31,63,-19,-63,-73,-68,-39,78
0,68,68,-34,-34,68,-24,-63,-73,-68,-39,82
0,68,68,-34,-34,68,-24,-58,-73,-63,-39,82
14,73,58,-43,-21,65,-24,-58,-68,-73,-29,82
14,73,58,-43,-21,65,-24,-53,-68,-68,-29,82
14,73,58,-43,-21,65,-19,-48,-68,-68,-29,82
14,78,63,-46,-24,70,-19,-43,-58,-68,-29,82
4,78,73,-41,-34,75,-19,-39,-53,-48,-34,82
4,78,73,-41,-34,75,-19,-34,-48,-48,-29,82
4,82,78,-43,-36,80,-24,-34,-48,-43,-29,82
9,82,73,-46,-31,78,-24,-34,-43,-43,-29,82
9,78,68,-43,-29,73,-29,-34,-39,-43,-19,102
14,92,78,-53,-31,85,-39,-34,-34,-34,-9,107
24,112,87,-68,-31,100,-43,-39,-24,-24,9,117
29,131,102,-80,-36,117,-58,-43,-24,-19,14,131
29,136,107,-82,-39,122,-63,-58,-43,-29,4,122
29,141,112,-85,-41,126,-73,-78,-58,-39,4,122
29,146,117,-87,-43,131,-73,-97,-63,-43,4,122
34,146,112,-90,-39,129,-78,-97,-68,-43,4,122
48,131,82,-90,-17,107,-82,-102,-63,-48,0,122
48,126,78,-87,-14,102,-92,-107,-73,-53,-4,117
48,126,78,-87,-14,102,-97,-117,-92,-63,-4,117
48,112,63,-80,-7,87,-97,-117,-102,-73,-9,112
43,102,58,-73,-7,80,-97,-122,-112,-87,-24,107
43,102,58,-73,-7,80,-97,-122,-112,-87,-29,107
43,97,53,-70,-4,75,-92,-117,-112,-87,-29,107
48,92,43,-70,2,68,-87,-117,-112,-87,-34,107
58,97,39,-78,9,68,-87,-117,-117,-87,-39,97
53,87,34,-70,9,61,-82,-117,-126,-92,-39,87
48,78,29,-63,9,53,-82,-117,-131,-97,-43,82
48,73,24,-61,12,48,-82,-117,-136,-97,-48,78
39,53,14,-46,12,34,-78,-112,-136,-112,-63,68
29,48,19,-39,4,34,-73,-107,-136,-117,-68,63
19,43,24,-31,-2,34,-63,-107,-136,-117,-68,58
14,29,14,-21,0,21,-58,-107,-136,-122,-73,48
4,29,24,-17,-9,26,-43,-107,-136,-112,-68,48
0,19,19,-9,-9,19,-34,-107,-136,-112,-73,48
-9,14,24,-2,-17,19,-29,-107,-141,-112,-73,53
-14,9,24,2,-19,17,-24,-107,-141,-122,-78,53
-19,0,19,9,-19,9,-29,-107,-151,-131,-82,43
-19,-9,9,14,-14,0,-29,-107,-151,-136,-87,43
-19,-19,0,19,-9,-9,-24,-107,-151,-141,-92,43
-24,-29,-4,26,-9,-17,-24,-107,-151,-141,-97,39
-34,-29,4,31,-19,-12,-19,-97,-156,-146,-107,34
-34,-34,0,34,-17,-17,-14,-97,-156,-151,-112,29
-34,-39,-4,36,-14,-21,-14,-97,-156,-151,-117,24
-34,-39,-4,36,-14,-21,-14,-97,-161,-156,-122,24
-24,-34,-9,29,-7,-21,-14,-107,-165,-156,-122,19
-24,-34,-9,29,-7,-21,-19,-107,-165,-156,-122,19
-24,-34,-9,29,-7,-21,-19,-107,-165,-156,-122,19
-24,-39,-14,31,-4,-26,-19,-107,-165,-156,-122,19
-29,-48,-19,39,-4,-34,-24,-107,-165,-151,-122,19
-29,-48,-19,39,-4,-34,-24,-107,-165,-151,-117,19
-29,-53,-24,41,-2,-39,-24,-107,-161,-151,-112,14
-29,-53,-24,41,-2,-39,-19,-107,-161,-151,-107,14
-24,-43,-19,34,-2,-31,-9,-97,-161,-151,-112,14
-24,-43,-19,34,-2,-31,-9,-97,-165,-151,-117,14
-29,-48,-19,39,-4,-34,-9,-97,-165,-146,-122,14
-29,-48,-19,39,-4,-34,-9,-97,-165,-146,-122,9
-29,-48,-19,39,-4,-34,-19,-107,-165,-156,-122,9
-29,-53,-24,41,-2,-39,-19,-102,-161,-156,-122,9
-34,-53,-19,43,-7,-36,-14,-102,-161,-156,-122,9
-34,-53,-19,43,-7,-36,-14,-102,-161,-156,-122,9
-34,-53,-19,43,-7,-36,-19,-92,-151,-141,-122,19
-34,-53,-19,43,-7,-36,-19,-92,-151,-141,-117,19
-34,-53,-19,43,-7,-36,-14,-87,-151,-141,-112,19
-34,-58,-24,46,-4,-41,-14,-87,-151,-141,-107,19
-24,-68,-43,46,9,-56,-14,-87,-151,-141,-107,19
-24,-63,-39,43,7,-51,-14,-82,-151,-141,-107,19
-24,-63,-39,43,7,-51,-14,-82,-146,-141,-107,19
-24,-63,-39,43,7,-51,-14,-82,-136,-141,-102,19
-29,-53,-24,41,-2,-39,-9,-73,-131,-122,-112,19
-29,-53,-24,41,-2,-39,-4,-58,-112,-112,-97,9
-29,-53,-24,41,-2,-39,0,-48,-97,-97,-97,9
-29,-53,-24,41,-2,-39,24,-29,-63,-63,-82,9
-34,-53,-19,43,-7,-36,29,-4,-24,-34,-58,14
-43,-63,-19,53,-12,-41,39,19,19,14,-29,24
-34,-63,-29,48,-2,-46,58,29,39,68,0,24
-43,-78,-34,61,-4,-56,63,34,63,102,24,24
-43,-97,-53,70,4,-75,68,43,107,151,58,34
-29,-97,-68,63,19,-82,58,68,190,253,136,68
-19,-97,-78,58,29,-87,48,82,263,351,214,102
-4,-117,-112,61,53,-114,39,73,278,414,287,141
19,-117,-136,48,78,-126,9,39,258,473,390,204
53,-92,-146,19,100,-119,-24,4,239,527,492,273
87,-68,-156,-9,122,-112,-48,-39,161,570,619,370
136,-39,-175,-48,156,-107,-112,-117,34,595,761,483
180,24,-156,-102,168,-65,-204,-239,-146,605,927,619
229,87,-141,-158,185,-26,-317,-400,-400,566,1078,771
297,151,-146,-224,222,2,-468,-619,-702,507,1220,917
361,204,-156,-283,258,24,-629,-834,-1015,439,1385,1098
434,253,-180,-344,307,36,-771,-1019,-1337,361,1571,1278
507,297,-209,-402,358,43,-878,-1166,-1615,278,1756,1473
570,322,-248,-446,409,36,-971,-1278,-1854,161,1873,1629
619,331,-287,-475,453,21,-1058,-1395,-2069,34,1932,1742
634,356,-278,-495,456,39,-1102,-1483,-2191,-53,1922,1786
644,366,-278,-505,461,43,-1117,-1507,-2235,-112,1849,1781
649,356,-292,-502,470,31,-1132,-1532,-2259,-180,1708,1717
629,346,-283,-488,456,31,-1156,-1551,-2288,-268,1517,1600
600,336,-263,-468,431,36,-1166,-1546,-2293,-380,1273,1454
570,302,-268,-436,419,17,-1127,-1512,-2244,-527,1010,1293
522,204,-317,-363,419,-56,-1049,-1410,-2156,-644,722,1098
473,43,-429,-258,451,-192,-927,-1249,-2015,-780,375,858
405,-122,-527,-141,466,-324,-805,-1078,-1873,-951,-9,580
331,-248,-580,-41,456,-414,-692,-941,-1742,-1112,-390,292
234,-292,-527,29,380,-409,-561,-814,-1595,-1229,-692,68
97,-229,-326,65,212,-278,-419,-707,-1424,-1239,-775,-24
4,-151,-156,73,80,-153,-307,-590,-1195,-1083,-668,-24
-14,-141,-126,78,56,-134,-229,-429,-976,-868,-556,-34
-9,-180,-170,95,80,-175,-151,-263,-766,-702,-497,-53
-4,-180,-175,92,85,-178,-102,-146,-605,-580,-424,-48
-19,-151,-131,85,56,-141,-78,-78,-478,-478,-361,-34
-24,-126,-102,75,39,-114,-53,-24,-385,-405,-317,-34
-34,-126,-92,80,29,-109,-19,9,-302,-326,-268,-34
-29,-117,-87,73,29,-102,9,24,-219,-258,-234,-34
-34,-107,-73,70,19,-90,34,43,-156,-200,-200,-34
-39,-92,-53,65,7,-73,48,73,-102,-161,-190,-29
-43,-82,-39,63,-2,-61,68,87,-63,-136,-175,-29
-53,-73,-19,63,-17,-46,73,92,-24,-112,-175,-34
-53,-68,-14,61,-19,-41,68,97,-9,-102,-165,-34
-53,-68,-14,61,-19,-41,63,87,-4,-97,-165,-34
-43,-63,-19,53,-12,-41,63,97,14,-87,-156,-24
-43,-68,-24,56,-9,-46,68,92,24,-82,-156,-19
-43,-68,-24,56,-9,-46,68,92,24,-68,-151,-19
-39,-68,-29,53,-4,-48,73,92,24,-58,-151,-19
-39,-68,-29,53,-4,-48,73,92,34,-58,-156,-24
-43,-53,-9,48,-17,-31,73,87,34,-58,-156,-34
-48,-53,-4,51,-21,-29,78,92,43,-58,-156,-39
-48,-53,-4,51,-21,-29,78,97,48,-53,-156,-39
-48,-53,-4,51,-21,-29,78,97,48,-43,-156,-39
-48,-58,-9,53,-19,-34,68,97,58,-43,-141,-39
-48,-58,-9,53,-19,-34,68,97,63,-34,-136,-39
-48,-58,-9,53,-19,-34,68,92,63,-34,-136,-39
-43,-58,-14,51,-14,-36,73,87,63,-34,-136,-39
-43,-58,-14,51,-14,-36,73,87,68,-29,-136,-39
-43,-58,-14,51,-14,-36,73,87,73,-29,-136,-39
-48,-58,-9,53,-19,-34,73,87,78,-24,-136,-39
-48,-58,-9,53,-19,-34,73,87,78,-19,-131,-43
-39,-53,-14,46,-12,-34,78,87,92,-19,-131,-43
-39,-58,-19,48,-9,-39,78,87,97,-14,-131,-43
-39,-68,-29,53,-4,-48,87,87,97,-9,-131,-43
-39,-73,-34,56,-2,-53,87,92,97,-4,-131,-43
-39,-63,-24,51,-7,-43,78,92,87,-14,-136,-43
-39,-58,-19,48,-9,-39,78,92,97,-14,-136,-48
-39,-53,-14,46,-12,-34,82,92,97,-14,-136,-48
-39,-53,-14,46,-12,-34,82,92,102,-14,-136,-48
-39,-53,-14,46,-12,-34,87,82,107,0,-126,-48
-39,-53,-14,46,-12,-34,87,82,112,4,-126,-53
-39,-53,-14,46,-12,-34,87,87,112,4,-126,-53
-39,-53,-14,46,-12,-34,87,87,112,9,-126,-53
-39,-43,-4,41,-17,-24,92,97,117,19,-117,-43
-39,-43,-4,41,-17,-24,92,97,122,24,-117,-43
-39,-48,-9,43,-14,-29,97,102,126,29,-117,-43
-39,-48,-9,43,-14,-29,97,107,131,34,-117,-43
-29,-48,-19,39,-4,-34,87,107,136,29,-107,-39
-29,-48,-19,39,-4,-34,87,107,141,29,-107,-39
-29,-48,-19,39,-4,-34,87,107,146,34,-107,-39
-34,-48,-14,41,-9,-31,87,112,151,39,-107,-39
-24,-43,-19,34,-2,-31,92,112,161,34,-107,-53
-24,-43,-19,34,-2,-31,97,117,165,39,-112,-53
-24,-43,-19,34,-2,-31,102,117,170,43,-117,-53
-24,-48,-24,36,0,-36,107,126,175,48,-117,-53
-24,-48,-24,36,0,-36,97,117,170,53,-122,-58
-24,-48,-24,36,0,-36,97,122,180,53,-122,-63
-29,-48,-19,39,-4,-34,102,126,190,58,-122,-63
-29,-48,-19,39,-4,-34,102,131,195,63,-122,-63
-24,-39,-14,31,-4,-26,107,136,209,73,-112,-53
-24,-39,-14,31,-4,-26,107,141,214,78,-107,-58
-24,-39,-14,31,-4,-26,107,141,224,82,-107,-58
-24,-39,-14,31,-4,-26,112,146,234,92,-107,-58
-24,-39,-14,31,-4,-26,112,161,239,97,-107,-58
-24,-39,-14,31,-4,-26,112,165,248,102,-107,-58
-24,-34,-9,29,-7,-21,117,170,258,112,-107,-58
-24,-34,-9,29,-7,-21,117,175,268,117,-102,-58
-24,-29,-4,26,-9,-17,131,170,292,131,-97,-48
-19,-29,-9,24,-4,-19,131,185,302,141,-92,-48
-14,-29,-14,21,0,-21,131,190,312,146,-82,-53
-9,-29,-19,19,4,-24,136,195,326,156,-78,-53
0,-19,-19,9,9,-19,141,219,331,175,-73,-63
0,-19,-19,9,9,-19,146,224,346,185,-73,-63
0,-19,-19,9,9,-19,146,229,361,195,-63,-63
0,-19,-19,9,9,-19,146,244,375,204,-58,-68
9,-9,-19,0,14,-14,151,244,400,219,-68,-68
9,-9,-19,0,14,-14,151,253,414,229,-63,-68
9,-9,-19,0,14,-14,156,263,429,248,-58,-68
9,-9,-19,0,14,-14,156,273,444,263,-53,-68
19,-9,-29,-4,24,-19,161,278,448,273,-43,-53
19,-4,-24,-7,21,-14,165,287,468,278,-34,-43
24,-4,-29,-9,26,-17,170,297,483,297,-24,-39
24,-4,-29,-9,26,-17,170,307,502,312,-14,-34
34,4,-29,-19,31,-12,165,307,507,317,-19,-34
34,4,-29,-19,31,-12,170,317,527,331,-9,-34
34,4,-29,-19,31,-12,170,326,541,346,0,-34
34,4,-29,-19,31,-12,170,336,556,356,0,-34
34,-4,-39,-14,36,-21,175,346,570,380,24,-34
34,-4,-39,-14,36,-21,175,356,580,395,29,-34
34,0,-34,-17,34,-17,180,366,595,409,34,-29
34,0,-34,-17,34,-17,180,370,610,424,43,-29
43,9,-34,-26,39,-12,185,390,619,439,58,-29
48,9,-39,-29,43,-14,185,400,634,458,68,-29
48,9,-39,-29,43,-14,190,409,644,468,73,-29
53,9,-43,-31,48,-17,190,414,653,478,82,-24
48,24,-24,-36,36,0,200,419,663,478,87,-24
48,24,-24,-36,36,0,200,414,668,492,97,-24
53,24,-29,-39,41,-2,200,419,683,502,102,-19
53,24,-29,-39,41,-2,200,419,692,512,112,-9
63,24,-39,-43,51,-7,190,419,697,517,112,-9
68,24,-43,-46,56,-9,195,424,702,527,122,-9
68,24,-43,-46,56,-9,195,429,712,536,126,-9
68,24,-43,-46,56,-9,195,429,717,541,136,-4
63,14,-48,-39,56,-17,200,444,717,546,141,0
68,24,-43,-46,56,-9,200,444,722,556,151,0
68,24,-43,-46,56,-9,195,444,722,556,156,9
73,24,-48,-48,61,-12,195,448,722,561,165,14
82,34,-48,-58,65,-7,185,439,732,575,161,19
92,34,-58,-63,75,-12,185,434,732,575,161,19
97,34,-63,-65,80,-14,185,429,722,575,165,24
102,34,-68,-68,85,-17,185,429,717,575,170,29
102,39,-63,-70,82,-12,190,434,712,561,185,39
107,48,-58,-78,82,-4,180,419,688,556,190,43
107,48,-58,-78,82,-4,175,409,668,556,195,48
107,48,-58,-78,82,-4,170,395,649,546,195,53
107,53,-53,-80,80,0,165,390,639,536,209,68
107,53,-53,-80,80,0,161,370,614,522,209,78
112,53,-58,-82,85,-2,151,356,590,517,209,87
117,58,-58,-87,87,0,146,341,556,497,209,92
122,63,-58,-92,90,2,131,326,522,473,204,92
126,63,-63,-95,95,0,122,302,488,448,200,92
126,63,-63,-95,95,0,112,283,448,424,195,92
126,68,-58,-97,92,4,102,258,419,395,175,92
131,68,-63,-100,97,2,102,244,385,370,161,82
131,68,-63,-100,97,2,92,219,346,341,156,87
136,73,-63,-104,100,4,82,195,312,307,146,92
136,73,-63,-104,100,4,78,175,273,278,136,97
136,78,-58,-107,97,9,68,165,248,248,126,107
136,78,-58,-107,97,9,58,151,224,224,117,112
131,78,-53,-104,92,12,53,131,190,195,107,112
131,78,-53,-104,92,12,48,117,156,165,87,107
131,63,-68,-97,100,-2,43,107,141,141,87,107
131,63,-68,-97,100,-2,43,92,117,122,78,107
126,63,-63,-95,95,0,39,78,97,92,63,102
126,63,-63,-95,95,0,34,63,78,68,53,102
126,63,-63,-95,95,0,19,58,48,58,34,97
126,63,-63,-95,95,0,19,53,29,43,24,87
126,63,-63,-95,95,0,14,39,9,29,14,82
122,63,-58,-92,90,2,9,34,-4,9,0,82
112,53,-58,-82,85,-2,19,19,-4,-9,-9,87
112,48,-63,-80,87,-7,19,9,-19,-29,-19,78
112,48,-63,-80,87,-7,19,9,-29,-39,-29,73
107,43,-63,-75,85,-9,19,4,-34,-39,-34,73
107,43,-63,-75,85,-9,14,-4,-48,-58,-48,63
112,43,-68,-78,90,-12,14,-4,-58,-68,-53,63
112,43,-68,-78,90,-12,14,-9,-58,-73,-58,63
107,43,-63,-75,85,-9,14,-9,-68,-78,-63,63
107,43,-63,-75,85,-9,4,-9,-73,-78,-63,48
107,43,-63,-75,85,-9,9,-14,-78,-78,-63,48
102,43,-58,-73,80,-7,9,-14,-78,-82,-68,48
102,43,-58,-73,80,-7,9,-14,-82,-82,-68,48
92,43,-48,-68,70,-2,9,-14,-82,-87,-73,53
92,39,-53,-65,73,-7,9,-19,-87,-87,-73,53
92,39,-53,-65,73,-7,9,-19,-87,-92,-68,53
92,39,-53,-65,73,-7,9,-19,-92,-92,-68,48
102,24,-78,-63,90,-26,9,-14,-92,-92,-68,48
102,24,-78,-63,90,-26,4,-14,-92,-92,-68,53
102,24,-78,-63,90,-26,4,-14,-92,-97,-73,53
102,24,-78,-63,90,-26,9,-14,-92,-97,-73,48
102,29,-73,-65,87,-21,19,-14,-82,-97,-68,48
102,29,-73,-65,87,-21,19,-19,-82,-97,-68,48
102,29,-73,-65,87,-21,19,-19,-82,-92,-68,48
102,29,-73,-65,87,-21,19,-19,-82,-92,-73,48
102,29,-73,-65,87,-21,9,-19,-92,-97,-73,48
102,29,-73,-65,87,-21,9,-19,-87,-97,-68,48
102,29,-73,-65,87,-21,14,-14,-87,-97,-68,53
102,29,-73,-65,87,-21,14,-14,-87,-97,-68,53
102,24,-78,-63,90,-26,14,-14,-87,-97,-68,43
102,24,-78,-63,90,-26,14,-14,-87,-97,-68,43
102,29,-73,-65,87,-21,14,-14,-87,-97,-68,43
107,29,-78,-68,92,-24,14,-14,-87,-97,-68,48
102,19,-82,-61,92,-31,14,-9,-82,-102,-68,48
97,19,-78,-58,87,-29,14,-9,-82,-102,-68,48
92,24,-68,-58,80,-21,14,-9,-82,-102,-68,48
87,24,-63,-56,75,-19,14,-9,-82,-102,-68,43
87,19,-68,-53,78,-24,14,-9,-73,-92,-68,53
87,14,-73,-51,80,-29,14,-9,-73,-92,-68,53
87,9,-78,-48,82,-34,14,-4,-73,-92,-63,53
87,4,-82,-46,85,-39,14,-4,-68,-92,-63,53
92,14,-78,-53,85,-31,14,-4,-78,-92,-73,43
97,14,-82,-56,90,-34,14,-4,-78,-92,-73,43
102,9,-92,-56,97,-41,14,-4,-78,-92,-73,48
107,9,-97,-58,102,-43,14,-4,-73,-87,-73,48
97,9,-87,-53,92,-39,24,-4,-73,-87,-73,48
97,9,-87,-53,92,-39,24,4,-73,-87,-73,48
97,9,-87,-53,92,-39,24,4,-73,-87,-73,48
97,9,-87,-53,92,-39,24,4,-68,-82,-73,48
97,0,-97,-48,97,-48,14,4,-68,-78,-68,58
97,0,-97,-48,97,-48,14,4,-68,-78,-63,58
97,0,-97,-48,97,-48,14,4,-68,-78,-58,58
97,0,-97,-48,97,-48,14,4,-63,-78,-53,58
97,9,-87,-53,92,-39,14,4,-63,-78,-63,58
92,9,-82,-51,87,-36,14,4,-63,-73,-63,58
92,9,-82,-51,87,-36,14,4,-58,-73,-63,58
97,9,-87,-53,92,-39,14,4,-58,-73,-68,58
107,9,-97,-58,102,-43,14,9,-58,-63,-68,58
102,9,-92,-56,97,-41,14,9,-58,-63,-63,58
102,9,-92,-56,97,-41,14,9,-53,-58,-63,58
107,9,-97,-58,102,-43,14,9,-53,-58,-63,58
97,9,-87,-53,92,-39,24,14,-53,-58,-53,58
97,14,-82,-56,90,-34,24,14,-53,-58,-53,58
97,14,-82,-56,90,-34,24,14,-53,-63,-53,58
97,9,-87,-53,92,-39,24,9,-53,-63,-53,58
97,9,-87,-53,92,-39,14,9,-53,-53,-53,58
97,9,-87,-53,92,-39,14,9,-53,-53,-53,58
97,9,-87,-53,92,-39,14,14,-53,-53,-53,58
97,14,-82,-56,90,-34,14,14,-53,-53,-53,58
107,14,-92,-61,100,-39,24,14,-53,-53,-53,58
107,14,-92,-61,100,-39,24,14,-53,-53,-53,58
102,14,-87,-58,95,-36,29,14,-53,-53,-53,58
102,14,-87,-58,95,-36,29,14,-53,-53,-53,58
102,14,-87,-58,95,-36,24,14,-53,-63,-63,58
102,14,-87,-58,95,-36,24,14,-53,-63,-63,63
102,14,-87,-58,95,-36,24,9,-53,-63,-63,63
102,14,-87,-58,95,-36,24,9,-53,-63,-58,63
102,24,-78,-63,90,-26,14,0,-58,-63,-63,53
102,24,-78,-63,90,-26,14,0,-58,-63,-63,53
102,24,-78,-63,90,-26,14,0,-58,-63,-63,53
97,19,-78,-58,87,-29,14,0,-58,-63,-63,53
87,19,-68,-53,78,-24,14,9,-58,-53,-58,68
87,19,-68,-53,78,-24,14,9,-58,-58,-53,68
87,19,-68,-53,78,-24,14,9,-58,-58,-53,63
87,19,-68,-53,78,-24,14,9,-58,-58,-48,63
97,19,-78,-58,87,-29,4,0,-68,-68,-48,63
97,19,-78,-58,87,-29,4,-4,-68,-68,-48,63
97,19,-78,-58,87,-29,4,-4,-78,-68,-48,58
97,19,-78,-58,87,-29,4,-4,-78,-68,-48,58
97,19,-78,-58,87,-29,4,-9,-78,-68,-48,48
97,19,-78,-58,87,-29,4,-9,-78,-68,-48,48
97,19,-78,-58,87,-29,4,-9,-82,-73,-48,48
97,19,-78,-58,87,-29,4,-9,-82,-73,-48,53
87,19,-68,-53,78,-24,14,-4,-82,-73,-58,53
92,19,-73,-56,82,-26,14,-9,-82,-73,-58,53
92,19,-73,-56,82,-26,9,-9,-87,-78,-58,53
87,19,-68,-53,78,-24,9,-9,-87,-78,-58,53
87,9,-78,-48,82,-34,14,-9,-97,-82,-58,53
87,9,-78,-48,82,-34,14,-9,-97,-82,-63,53
87,9,-78,-48,82,-34,14,-9,-102,-87,-63,53
87,9,-78,-48,82,-34,14,-9,-102,-87,-63,53
92,19,-73,-56,82,-26,4,-9,-97,-97,-68,43
92,19,-73,-56,82,-26,4,-9,-97,-97,-73,43
87,19,-68,-53,78,-24,4,-9,-97,-102,-78,43
87,19,-68,-53,78,-24,4,-14,-97,-102,-78,43
87,14,-73,-51,80,-29,4,-19,-102,-102,-68,34
87,14,-73,-51,80,-29,4,-19,-102,-102,-73,34
92,19,-73,-56,82,-26,4,-19,-102,-102,-73,34
92,19,-73,-56,82,-26,4,-19,-102,-107,-73,34
92,19,-73,-56,82,-26,4,-19,-102,-107,-82,43
87,19,-68,-53,78,-24,4,-19,-102,-107,-82,43
87,19,-68,-53,78,-24,0,-19,-107,-112,-82,39
87,19,-68,-53,78,-24,0,-19,-107,-112,-87,39
87,19,-68,-53,78,-24,0,-14,-112,-112,-92,39
87,19,-68,-53,78,-24,4,-19,-112,-112,-92,39
87,19,-68,-53,78,-24,4,-19,-112,-117,-92,39
92,19,-73,-56,82,-26,0,-19,-112,-117,-92,39
92,19,-73,-56,82,-26,0,-19,-122,-117,-92,29
92,19,-73,-56,82,-26,0,-19,-122,-117,-92,29
87,19,-68,-53,78,-24,0,-19,-122,-117,-92,29
87,19,-68,-53,78,-24,0,-19,-122,-117,-92,29
97,19,-78,-58,87,-29,0,-19,-112,-117,-87,39
97,19,-78,-58,87,-29,0,-19,-117,-117,-87,34
97,19,-78,-58,87,-29,0,-19,-117,-122,-82,29
92,19,-73,-56,82,-26,0,-19,-117,-122,-78,29
92,19,-73,-56,82,-26,0,-29,-122,-112,-87,39
97,19,-78,-58,87,-29,0,-29,-122,-117,-87,39
97,19,-78,-58,87,-29,0,-29,-122,-117,-87,34
97,19,-78,-58,87,-29,0,-29,-122,-117,-87,34
87,29,-58,-58,73,-14,0,-29,-122,-126,-92,39
87,29,-58,-58,73,-14,0,-29,-122,-126,-92,39
87,29,-58,-58,73,-14,0,-29,-122,-126,-92,39
87,29,-58,-58,73,-14,0,-29,-117,-126,-87,39
87,19,-68,-53,78,-24,0,-29,-126,-136,-97,29
87,19,-68,-53,78,-24,0,-34,-126,-131,-97,29
97,29,-68,-63,82,-19,0,-34,-126,-131,-107,29
97,29,-68,-63,82,-19,0,-39,-126,-126,-107,29
87,34,-53,-61,70,-9,0,-29,-122,-117,-102,29
87,39,-48,-63,68,-4,0,-29,-117,-117,-97,29
87,43,-43,-65,65,0,0,-29,-112,-117,-92,29
87,48,-39,-68,63,4,0,-29,-107,-117,-87,29
87,73,-14,-80,51,29,9,-29,-102,-107,-82,34
87,78,-9,-82,48,34,9,-29,-97,-102,-73,34
97,82,-14,-90,56,34,9,-24,-92,-97,-68,43
97,87,-9,-92,53,39,9,-24,-87,-92,-68,48
102,92,-9,-97,56,41,0,-24,-87,-87,-63,58
107,92,-14,-100,61,39,0,-24,-82,-87,-58,58
107,97,-9,-102,58,43,-4,-24,-82,-87,-58,63
107,97,-9,-102,58,43,-4,-19,-82,-82,-58,63
112,102,-9,-107,61,46,-4,-19,-78,-82,-58,63
112,102,-9,-107,61,46,-4,-14,-78,-78,-58,63
112,102,-9,-107,61,46,0,-9,-78,-78,-58,63
112,107,-4,-109,58,51,0,-4,-68,-78,-58,63
112,107,-4,-109,58,51,0,-9,-63,-78,-53,63
112,107,-4,-109,58,51,0,-4,-58,-78,-48,63
112,112,0,-112,56,56,-4,-4,-58,-73,-48,63
117,112,-4,-114,61,53,-4,-4,-53,-73,-48,63
107,117,9,-112,48,63,-19,-14,-48,-63,-39,73
112,141,29,-126,41,85,-29,-14,-43,-53,-29,78
122,170,48,-146,36,109,-34,-19,-34,-43,-9,87
126,200,73,-163,26,136,-48,-24,-34,-39,-4,102
126,190,63,-158,31,126,-53,-39,-53,-48,-9,92
126,190,63,-158,31,126,-63,-58,-68,-58,-14,92
126,190,63,-158,31,126,-63,-78,-73,-63,-19,92
131,185,53,-158,39,119,-68,-78,-78,-63,-24,92
136,180,43,-158,46,112,-73,-82,-92,-78,-39,82
136,175,39,-156,48,107,-82,-87,-102,-82,-43,78
136,175,39,-156,48,107,-87,-97,-122,-92,-43,78
136,161,24,-148,56,92,-87,-97,-131,-102,-48,73
141,151,9,-146,65,80,-87,-92,-136,-107,-53,78
141,151,9,-146,65,80,-87,-92,-131,-107,-58,78
141,146,4,-143,68,75,-82,-87,-126,-107,-58,78
146,141,-4,-143,75,68,-78,-87,-122,-107,-63,78
146,131,-14,-139,80,58,-78,-78,-126,-107,-58,73
141,117,-24,-129,82,46,-73,-78,-136,-112,-58,68
136,102,-34,-119,85,34,-73,-78,-141,-117,-63,68
136,92,-43,-114,90,24,-73,-78,-146,-117,-68,68
126,92,-34,-109,80,29,-58,-82,-136,-122,-73,58
117,87,-29,-102,73,29,-53,-78,-136,-126,-78,53
107,82,-24,-95,65,29,-43,-78,-136,-126,-78,48
102,68,-34,-85,68,17,-39,-78,-136,-131,-82,39
92,68,-24,-80,58,21,-43,-78,-136,-131,-87,34
87,58,-29,-73,58,14,-34,-78,-136,-131,-92,29
78,53,-24,-65,51,14,-29,-78,-141,-131,-92,29
73,48,-24,-61,48,12,-24,-78,-141,-141,-97,24
68,48,-19,-58,43,14,-19,-78,-161,-151,-112,14
68,39,-29,-53,48,4,-19,-78,-161,-156,-117,14
68,29,-39,-48,53,-4,-14,-78,-161,-161,-122,14
63,19,-43,-41,53,-12,-14,-78,-161,-161,-126,9
63,19,-43,-41,53,-12,-19,-78,-165,-156,-117,4
63,14,-48,-39,56,-17,-14,-78,-165,-161,-122,0
63,9,-53,-36,58,-21,-14,-78,-165,-161,-126,-4
63,9,-53,-36,58,-21,-14,-78,-170,-165,-131,-4
53,-4,-58,-24,56,-31,-4,-78,-165,-165,-141,-9
53,-4,-58,-24,56,-31,-9,-78,-165,-165,-141,-9
53,-4,-58,-24,56,-31,-9,-78,-165,-165,-141,-9
53,-9,-63,-21,58,-36,-9,-78,-165,-165,-141,-9
58,0,-58,-29,58,-29,-14,-78,-175,-170,-136,-9
58,0,-58,-29,58,-29,-14,-78,-175,-170,-136,-9
58,-4,-63,-26,61,-34,-14,-78,-170,-170,-136,-14
58,-4,-63,-26,61,-34,-9,-78,-170,-170,-136,-14
63,4,-58,-34,61,-26,-9,-78,-161,-170,-146,-14
63,4,-58,-34,61,-26,-9,-78,-165,-170,-146,-14
58,0,-58,-29,58,-29,-9,-78,-165,-165,-146,-14
58,0,-58,-29,58,-29,-9,-78,-165,-165,-141,-19
58,0,-58,-29,58,-29,-9,-78,-175,-165,-141,-19
58,-4,-63,-26,61,-34,-9,-73,-170,-165,-141,-19
53,-4,-58,-24,56,-31,-4,-73,-170,-165,-141,-19
53,-4,-58,-24,56,-31,-4,-73,-170,-165,-141,-19
53,-4,-58,-24,56,-31,-9,-73,-161,-161,-136,-9
53,-4,-58,-24,56,-31,-9,-73,-161,-161,-136,-9
53,-4,-58,-24,56,-31,-4,-68,-161,-161,-136,-9
53,-9,-63,-21,58,-36,-4,-68,-161,-161,-136,-9
53,-9,-63,-21,58,-36,-4,-78,-161,-161,-136,-19
53,-4,-58,-24,56,-31,-4,-73,-161,-161,-136,-19
53,-4,-58,-24,56,-31,-4,-73,-156,-161,-136,-19
53,-4,-58,-24,56,-31,-4,-73,-146,-161,-131,-19
58,4,-53,-31,56,-24,0,-63,-122,-141,-122,-19
58,4,-53,-31,56,-24,4,-48,-102,-112,-117,-19
39,4,-34,-21,36,-14,9,-29,-87,-97,-107,-19
29,4,-24,-17,26,-9,24,-9,-53,-63,-92,-19
34,-4,-39,-14,36,-21,39,14,-14,-14,-68,-24
34,-4,-39,-14,36,-21,39,19,9,24,-48,-24
34,-14,-48,-9,41,-31,48,29,29,48,-39,-24
34,-29,-63,-2,48,-46,53,43,73,92,-14,-24
43,-29,-73,-7,58,-51,48,53,156,180,48,4
58,-39,-97,-9,78,-68,48,78,229,283,146,48
68,-48,-117,-9,92,-82,29,63,263,361,234,92
92,-29,-122,-31,107,-75,0,34,239,424,346,151
126,-19,-146,-53,136,-82,-29,9,219,492,458,234
161,4,-156,-82,158,-75,-63,-34,141,536,570,322
204,39,-165,-122,185,-63,-126,-117,4,551,688,419
244,97,-146,-170,195,-24,-200,-224,-170,575,849,541
287,161,-126,-224,207,17,-312,-375,-400,556,995,688
346,224,-122,-285,234,51,-453,-575,-692,507,1137,839
405,278,-126,-341,265,75,-605,-775,-995,448,1298,995
478,322,-156,-400,317,82,-756,-961,-1317,390,1493,1176
551,361,-190,-456,370,85,-878,-1098,-1590,322,1688,1366
614,395,-219,-505,417,87,-976,-1205,-1820,239,1834,1522
658,419,-239,-539,448,90,-1068,-1317,-2039,112,1912,1649
678,448,-229,-563,453,109,-1117,-1415,-2186,24,1942,1712
692,453,-239,-573,466,107,-1141,-1454,-2230,-24,1903,1727
692,444,-248,-568,470,97,-1156,-1468,-2254,-73,1781,1683
688,414,-273,-551,480,70,-1171,-1473,-2269,-151,1620,1590
668,395,-273,-531,470,61,-1166,-1473,-2259,-268,1390,1454
629,366,-263,-497,446,51,-1146,-1439,-2225,-409,1127,1298
600,292,-307,-446,453,-7,-1078,-1346,-2137,-536,844,1127
551,156,-395,-353,473,-119,-971,-1205,-2010,-683,507,912
502,14,-488,-258,495,-236,-849,-1044,-1869,-849,122,663
424,-122,-546,-151,485,-334,-727,-902,-1747,-1019,-253,385
341,-200,-541,-70,441,-370,-605,-795,-1615,-1171,-585,146
214,-156,-370,-29,292,-263,-483,-707,-1459,-1229,-732,19
97,-73,-170,-12,134,-122,-361,-610,-1268,-1122,-678,-4
53,-53,-107,0,80,-80,-268,-463,-1029,-927,-570,-24
73,-82,-156,4,114,-119,-190,-302,-819,-741,-497,-43
68,-82,-151,7,109,-117,-131,-175,-639,-605,-439,-43
53,-53,-107,0,80,-80,-92,-97,-507,-512,-385,-48
58,-34,-92,-12,75,-63,-68,-39,-409,-429,-351,-63
43,-29,-73,-7,58,-51,-43,-14,-326,-366,-307,-63
34,-19,-53,-7,43,-36,-9,-9,-253,-297,-278,-73
29,-19,-48,-4,39,-34,9,14,-190,-239,-244,-73
24,-9,-34,-7,29,-21,34,43,-136,-200,-219,-63
29,4,-24,-17,26,-9,48,63,-82,-161,-200,-58
24,14,-9,-19,17,2,58,68,-43,-126,-195,-58
24,14,-9,-19,17,2,53,82,-24,-112,-185,-63
24,19,-4,-21,14,7,58,87,-9,-112,-185,-63
24,19,-4,-21,14,7,53,78,-14,-107,-185,-53
24,24,0,-24,12,12,53,78,-4,-97,-175,-53
24,19,-4,-21,14,7,58,82,4,-97,-165,-58
24,19,-4,-21,14,7,58,82,4,-87,-161,-58
29,19,-9,-24,19,4,63,82,4,-82,-161,-58
29,19,-9,-24,19,4,63,82,14,-87,-165,-63
24,34,9,-29,7,21,53,82,24,-87,-175,-73
19,34,14,-26,2,24,58,82,34,-87,-175,-78
19,34,14,-26,2,24,58,82,39,-82,-175,-78
19,34,14,-26,2,24,58,78,39,-73,-175,-78
19,39,19,-29,0,29,58,78,39,-73,-170,-78
19,39,19,-29,0,29,58,78,43,-63,-165,-78
19,39,19,-29,0,29,58,73,43,-63,-165,-78
24,39,14,-31,4,26,63,68,43,-63,-165,-78
24,48,24,-36,0,36,63,68,48,-58,-165,-78
24,48,24,-36,0,36,63,68,53,-58,-165,-78
19,48,29,-34,-4,39,63,68,58,-53,-165,-78
19,48,29,-34,-4,39,63,68,58,-48,-161,-82
19,58,39,-39,-9,48,58,58,63,-58,-161,-82
19,58,39,-39,-9,48,58,58,68,-53,-161,-82
19,53,34,-36,-7,43,68,58,68,-48,-161,-82
19,53,34,-36,-7,43,68,63,68,-43,-161,-82
9,53,43,-31,-17,48,58,53,68,-34,-156,-82
9,58,48,-34,-19,53,58,53,78,-34,-156,-87
9,63,53,-36,-21,58,63,53,78,-34,-156,-87
9,63,53,-36,-21,58,63,53,82,-34,-156,-87
9,63,53,-36,-21,58,58,53,78,-29,-165,-87
9,63,53,-36,-21,58,58,53,82,-24,-165,-92
9,63,53,-36,-21,58,58,58,82,-24,-165,-92
9,63,53,-36,-21,58,58,58,82,-19,-165,-92
0,63,63,-31,-31,63,63,58,87,-29,-156,-92
0,63,63,-31,-31,63,63,58,92,-24,-156,-92
0,58,58,-29,-29,58,68,63,97,-19,-156,-92
0,58,58,-29,-29,58,68,68,102,-14,-156,-92
0,68,68,-34,-34,68,58,58,97,-19,-156,-107
0,68,68,-34,-34,68,58,58,102,-19,-156,-107
0,68,68,-34,-34,68,58,58,107,-14,-156,-107
-4,68,73,-31,-39,70,58,63,112,-9,-156,-107
-4,63,68,-29,-36,65,68,73,122,-4,-161,-112
-4,63,68,-29,-36,65,68,78,126,0,-161,-112
-4,63,68,-29,-36,65,68,78,131,4,-161,-112
-4,58,63,-26,-34,61,68,87,136,9,-156,-112
-4,58,63,-26,-34,61,68,78,151,24,-151,-107
-4,58,63,-26,-34,61,68,82,161,24,-151,-112
-9,58,68,-24,-39,63,73,87,170,29,-151,-112
-9,58,68,-24,-39,63,73,92,175,34,-151,-112
-14,58,73,-21,-43,65,78,97,190,43,-151,-112
-14,58,73,-21,-43,65,78,102,195,48,-146,-117
-14,58,73,-21,-43,65,78,102,204,53,-146,-117
-14,58,73,-21,-43,65,82,107,214,63,-146,-117
-14,58,73,-21,-43,65,82,112,219,68,-136,-117
-14,58,73,-21,-43,65,82,117,229,73,-136,-117
-14,63,78,-24,-46,70,87,122,239,82,-136,-117
-14,63,78,-24,-46,70,87,126,248,87,-131,-117
-9,58,68,-24,-39,63,92,122,263,102,-141,-117
-9,58,68,-24,-39,63,92,136,273,112,-141,-117
-9,58,68,-24,-39,63,92,141,283,117,-136,-122
-9,58,68,-24,-39,63,97,146,297,126,-136,-122
-9,58,68,-24,-39,63,102,161,312,136,-131,-131
-9,58,68,-24,-39,63,107,165,326,146,-131,-131
-9,58,68,-24,-39,63,107,170,341,156,-122,-131
-9,58,68,-24,-39,63,107,185,356,165,-117,-136
-19,58,78,-19,-48,68,112,195,370,180,-107,-136
-19,58,78,-19,-48,68,112,204,385,190,-102,-136
-19,58,78,-19,-48,68,117,214,400,209,-97,-136
-19,58,78,-19,-48,68,117,224,414,224,-92,-136
-19,58,78,-19,-48,68,122,229,429,234,-97,-136
-19,63,82,-21,-51,73,126,239,448,239,-92,-131
-14,63,78,-24,-46,70,131,248,463,258,-87,-131
-14,63,78,-24,-46,70,131,258,483,273,-82,-131
-14,63,78,-24,-46,70,136,268,488,287,-78,-131
-14,63,78,-24,-46,70,141,278,507,302,-68,-131
-14,63,78,-24,-46,70,141,287,522,317,-58,-131
-14,63,78,-24,-46,70,141,297,536,326,-58,-131
-4,63,68,-29,-36,65,146,297,551,331,-43,-131
-4,63,68,-29,-36,65,146,307,561,346,-39,-131
-4,68,73,-31,-39,70,151,317,575,361,-34,-126
-4,68,73,-31,-39,70,151,322,590,375,-24,-126
-14,58,73,-21,-43,65,156,341,610,390,-19,-136
-9,58,68,-24,-39,63,156,351,624,409,-9,-136
-9,58,68,-24,-39,63,161,361,634,419,-4,-136
-4,58,63,-26,-34,61,161,366,644,429,4,-131
0,73,73,-36,-36,73,161,366,644,429,0,-131
0,73,73,-36,-36,73,161,366,649,444,9,-131
4,73,68,-39,-31,70,161,375,663,453,14,-126
4,73,68,-39,-31,70,161,380,673,463,24,-117
4,73,68,-39,-31,70,151,380,678,468,24,-126
9,73,63,-41,-26,68,156,385,683,478,34,-126
9,73,63,-41,-26,68,156,390,692,488,39,-126
9,73,63,-41,-26,68,156,390,697,492,48,-122
14,73,58,-43,-21,65,161,395,688,488,53,-107
19,82,63,-51,-21,73,161,395,692,497,63,-107
19,82,63,-51,-21,73,156,395,692,497,68,-97
24,82,58,-53,-17,70,156,400,692,502,78,-92
14,92,78,-53,-31,85,146,390,692,507,82,-87
24,92,68,-58,-21,80,146,385,692,507,82,-87
29,92,63,-61,-17,78,146,380,683,507,87,-82
34,92,58,-63,-12,75,146,380,678,507,92,-78
43,97,53,-70,-4,75,131,366,668,497,87,-68
48,107,58,-78,-4,82,122,351,639,488,92,-63
48,107,58,-78,-4,82,117,341,614,483,97,-58
48,107,58,-78,-4,82,112,326,590,468,97,-53
48,112,63,-80,-7,87,107,312,561,453,92,-58
48,112,63,-80,-7,87,102,292,536,434,92,-48
53,112,58,-82,-2,85,92,278,512,424,92,-39
58,117,58,-87,0,87,87,263,478,400,92,-34
63,122,58,-92,2,90,82,239,434,375,82,-29
68,122,53,-95,7,87,73,214,400,351,82,-24
68,122,53,-95,7,87,63,195,361,326,82,-19
68,126,58,-97,4,92,53,170,331,297,68,-14
63,126,63,-95,0,95,43,156,297,283,63,-24
63,126,63,-95,0,95,34,131,258,253,58,-19
68,131,63,-100,2,97,24,107,224,219,48,-14
68,131,63,-100,2,97,19,87,185,190,39,-9
68,126,58,-97,4,92,9,68,161,161,19,-9
68,126,58,-97,4,92,0,53,136,136,9,-4
63,126,63,-95,0,95,-4,34,102,107,0,-4
63,126,63,-95,0,95,-9,19,68,78,-19,-9
63,122,58,-92,2,90,-24,9,53,63,-19,-9
63,122,58,-92,2,90,-24,-4,29,43,-29,-9
58,122,63,-90,-2,92,-29,-19,9,14,-43,-14
58,122,63,-90,-2,92,-34,-34,-9,-9,-53,-14
48,112,63,-80,-7,87,-29,-39,-24,-19,-63,-19
48,112,63,-80,-7,87,-29,-43,-39,-34,-73,-29
48,112,63,-80,-7,87,-34,-58,-53,-48,-82,-34
43,112,68,-78,-12,90,-39,-63,-63,-68,-97,-34
43,112,68,-78,-12,90,-48,-68,-73,-73,-107,-29
43,107,63,-75,-9,85,-48,-78,-87,-87,-117,-39
43,107,63,-75,-9,85,-48,-78,-97,-92,-126,-43
39,102,63,-70,-12,82,-48,-82,-102,-87,-131,-43
39,102,63,-70,-12,82,-43,-82,-97,-97,-126,-43
43,102,58,-73,-7,80,-43,-82,-107,-107,-131,-43
43,102,58,-73,-7,80,-43,-87,-107,-112,-136,-43
39,102,63,-70,-12,82,-43,-87,-117,-117,-141,-43
39,92,53,-65,-7,73,-43,-97,-112,-126,-131,-58
39,92,53,-65,-7,73,-39,-102,-117,-126,-131,-58
34,92,58,-63,-12,75,-39,-102,-117,-131,-136,-58
34,92,58,-63,-12,75,-39,-102,-122,-131,-136,-58
34,92,58,-63,-12,75,-48,-92,-122,-126,-141,-53
34,87,53,-61,-9,70,-48,-97,-126,-126,-141,-53
34,87,53,-61,-9,70,-48,-97,-126,-131,-136,-53
34,87,53,-61,-9,70,-48,-97,-131,-131,-136,-58
43,82,39,-63,2,61,-39,-102,-131,-141,-136,-58
43,82,39,-63,2,61,-43,-102,-131,-141,-136,-53
43,82,39,-63,2,61,-43,-102,-131,-146,-141,-53
43,82,39,-63,2,61,-39,-102,-131,-146,-141,-58
34,78,43,-56,-4,61,-39,-102,-131,-136,-136,-58
34,78,43,-56,-4,61,-39,-107,-131,-136,-136,-58
34,78,43,-56,-4,61,-39,-107,-131,-131,-136,-58
34,78,43,-56,-4,61,-39,-107,-131,-131,-141,-58
34,78,43,-56,-4,61,-39,-107,-131,-136,-141,-58
34,78,43,-56,-4,61,-39,-107,-126,-136,-136,-58
34,78,43,-56,-4,61,-34,-102,-126,-136,-136,-53
34,78,43,-56,-4,61,-34,-102,-126,-136,-136,-53
34,73,39,-53,-2,56,-43,-92,-126,-136,-136,-53
34,73,39,-53,-2,56,-43,-92,-126,-136,-136,-53
34,78,43,-56,-4,61,-43,-92,-126,-136,-136,-53
39,78,39,-58,0,58,-43,-92,-126,-136,-136,-48
39,68,29,-53,4,48,-43,-97,-122,-122,-136,-48
39,68,29,-53,4,48,-43,-97,-122,-122,-136,-48
39,73,34,-56,2,53,-43,-97,-122,-122,-136,-48
39,73,34,-56,2,53,-43,-97,-122,-122,-136,-53
39,73,34,-56,2,53,-34,-87,-122,-122,-136,-53
39,73,34,-56,2,53,-34,-87,-122,-122,-136,-53
39,73,34,-56,2,53,-34,-82,-122,-122,-131,-53
39,73,34,-56,2,53,-34,-82,-117,-122,-131,-53
39,73,34,-56,2,53,-34,-82,-117,-122,-131,-53
39,73,34,-56,2,53,-34,-82,-117,-122,-131,-53
39,68,29,-53,4,48,-34,-82,-117,-122,-131,-48
39,68,29,-53,4,48,-34,-82,-112,-117,-131,-48
39,68,29,-53,4,48,-34,-92,-112,-117,-131,-48
39,68,29,-53,4,48,-34,-82,-112,-117,-131,-48
39,68,29,-53,4,48,-34,-82,-112,-117,-131,-48
39,68,29,-53,4,48,-34,-82,-107,-112,-131,-48
39,68,29,-53,4,48,-34,-82,-107,-117,-131,-58
39,68,29,-53,4,48,-34,-82,-107,-117,-131,-58
39,68,29,-53,4,48,-34,-82,-107,-117,-131,-58
39,68,29,-53,4,48,-34,-82,-102,-117,-131,-58
39,68,29,-53,4,48,-34,-82,-102,-117,-141,-58
34,68,34,-51,0,51,-34,-82,-102,-112,-141,-58
34,68,34,-51,0,51,-34,-82,-97,-112,-141,-58
39,68,29,-53,4,48,-34,-82,-97,-112,-146,-58
39,68,29,-53,4,48,-34,-78,-87,-112,-146,-48
34,68,34,-51,0,51,-34,-78,-87,-112,-141,-48
34,68,34,-51,0,51,-34,-78,-82,-107,-141,-48
39,68,29,-53,4,48,-34,-78,-82,-107,-141,-48
39,68,29,-53,4,48,-34,-73,-92,-97,-141,-48
39,73,34,-56,2,53,-34,-73,-92,-97,-141,-48
39,73,34,-56,2,53,-34,-73,-92,-102,-141,-48
39,68,29,-53,4,48,-34,-78,-92,-102,-141,-48
39,68,29,-53,4,48,-34,-68,-82,-92,-131,-48
39,68,29,-53,4,48,-34,-68,-82,-92,-131,-48
39,68,29,-53,4,48,-34,-63,-82,-92,-131,-48
39,73,34,-56,2,53,-34,-63,-82,-92,-131,-48
39,73,34,-56,2,53,-34,-73,-82,-92,-131,-48
39,73,34,-56,2,53,-34,-73,-82,-92,-131,-48
34,73,39,-53,-2,56,-29,-73,-82,-92,-131,-48
34,73,39,-53,-2,56,-29,-73,-82,-92,-131,-48
