I,II,III,aVR,aVL,aVF,V1,V2,V3,V4,V5,V6
87,117,29,-102,29,73,-351,87,-29,-19,9,29
87,117,29,-102,29,73,-351,87,-29,-19,9,29
87,117,29,-102,29,73,-351,87,-29,-19,9,29
87,117,29,-102,29,73,-351,87,-29,-19,9,29
87,126,39,-107,24,82,-341,87,-39,-29,9,39
87,126,39,-107,24,82,-341,87,-39,-29,9,39
87,126,39,-107,24,82,-341,87,-39,-29,9,39
87,126,39,-107,24,82,-341,87,-39,-29,9,39
97,126,29,-112,34,78,-351,82,-43,-29,9,39
97,126,29,-112,34,78,-351,78,-48,-29,9,39
97,126,29,-112,34,78,-351,73,-53,-29,9,39
97,126,29,-112,34,78,-351,68,-58,-29,9,39
97,136,39,-117,29,87,-346,68,-48,-19,24,53
97,136,39,-117,29,87,-341,68,-48,-19,29,58
97,136,39,-117,29,87,-336,68,-48,-19,34,63
97,136,39,-117,29,87,-331,68,-48,-19,39,68
87,136,48,-112,19,92,-317,82,-34,-4,53,78
87,136,48,-112,19,92,-312,87,-29,0,58,78
87,136,48,-112,19,92,-307,92,-24,4,63,78
87,136,48,-112,19,92,-302,97,-19,9,68,78
78,136,58,-107,9,97,-278,112,-9,14,78,87
78,136,58,-107,9,97,-263,117,0,19,78,87
78,136,58,-107,9,97,-248,122,9,24,78,87
78,136,58,-107,9,97,-234,126,19,29,78,87
68,126,58,-97,4,92,-214,141,34,34,78,78
68,126,58,-97,4,92,-204,146,39,39,78,78
68,126,58,-97,4,92,-195,151,43,43,78,78
68,126,58,-97,4,92,-185,156,48,48,78,78
53,117,63,-85,-4,90,-161,156,53,58,87,68
48,117,68,-82,-9,92,-146,156,58,58,87,68
43,117,73,-80,-14,95,-131,156,63,58,87,68
39,117,78,-78,-19,97,-117,156,68,58,87,68
48,112,63,-80,-7,87,-97,146,68,58,78,58
48,107,58,-78,-4,82,-87,136,68,58,78,58
48,102,53,-75,-2,78,-78,126,68,58,78,58
48,97,48,-73,0,73,-68,117,68,58,78,58
43,92,48,-68,-2,70,-58,97,58,53,68,58
39,87,48,-63,-4,68,-58,87,58,48,68,58
34,82,48,-58,-7,65,-58,78,58,43,68,58
29,78,48,-53,-9,63,-58,68,58,39,68,58
14,63,48,-39,-17,56,-58,53,43,34,63,53
9,58,48,-34,-19,53,-58,39,39,29,58,48
4,53,48,-29,-21,51,-58,24,34,24,53,43
0,48,48,-24,-24,48,-58,9,29,19,48,39
9,48,39,-29,-14,43,-58,-4,19,9,39,39
9,48,39,-29,-14,43,-58,-9,19,9,39,39
9,48,39,-29,-14,43,-58,-14,19,9,39,39
9,48,39,-29,-14,43,-58,-19,19,9,39,39
9,48,39,-29,-14,43,-68,-24,14,9,29,34
9,48,39,-29,-14,43,-68,-29,9,9,29,29
9,48,39,-29,-14,43,-68,-34,4,9,29,24
9,48,39,-29,-14,43,-68,-39,0,9,29,19
9,39,29,-24,-9,34,-78,-48,-14,-4,19,9
9,39,29,-24,-9,34,-78,-58,-19,-9,19,9
9,39,29,-24,-9,34,-78,-68,-24,-14,19,9
9,39,29,-24,-9,34,-78,-78,-29,-19,19,9
9,48,39,-29,-14,43,-87,-78,-19,-19,9,9
9,48,39,-29,-14,43,-87,-78,-19,-19,9,9
9,48,39,-29,-14,43,-87,-78,-19,-19,9,9
9,48,39,-29,-14,43,-87,-78,-19,-19,9,9
19,48,29,-34,-4,39,-97,-82,-24,-29,0,9
19,48,29,-34,-4,39,-97,-87,-29,-29,0,9
19,48,29,-34,-4,39,-97,-92,-34,-29,0,9
19,48,29,-34,-4,39,-97,-97,-39,-29,0,9
19,39,19,-29,0,29,-87,-97,-29,-19,9,19
19,39,19,-29,0,29,-87,-97,-29,-19,9,19
19,39,19,-29,0,29,-87,-97,-29,-19,9,19
19,39,19,-29,0,29,-87,-97,-29,-19,9,19
29,39,9,-34,9,24,-78,-87,-19,-9,9,29
29,39,9,-34,9,24,-78,-87,-19,-9,9,29
29,39,9,-34,9,24,-78,-87,-19,-9,9,29
29,39,9,-34,9,24,-78,-87,-19,-9,9,29
19,39,19,-29,0,29,-78,-87,-24,-14,0,19
19,39,19,-29,0,29,-78,-87,-29,-19,0,19
19,39,19,-29,0,29,-78,-87,-34,-24,0,19
19,39,19,-29,0,29,-78,-87,-39,-29,0,19
19,39,19,-29,0,29,-68,-87,-29,-24,9,19
19,39,19,-29,0,29,-68,-87,-29,-19,9,19
19,39,19,-29,0,29,-68,-87,-29,-14,9,19
19,39,19,-29,0,29,-68,-87,-29,-9,9,19
19,39,19,-29,0,29,-68,-87,-29,-19,0,19
19,39,19,-29,0,29,-68,-87,-29,-19,0,19
19,39,19,-29,0,29,-68,-87,-29,-19,0,19
19,39,19,-29,0,29,-68,-87,-29,-19,0,19
19,48,29,-34,-4,39,-68,-78,-29,-9,0,9
19,48,29,-34,-4,39,-68,-78,-29,-9,0,9
19,48,29,-34,-4,39,-68,-78,-29,-9,0,9
19,48,29,-34,-4,39,-68,-78,-29,-9,0,9
29,39,9,-34,9,24,-78,-87,-39,-19,0,19
29,39,9,-34,9,24,-78,-87,-39,-19,0,19
29,39,9,-34,9,24,-78,-87,-39,-19,0,19
29,39,9,-34,9,24,-78,-87,-39,-19,0,19
19,39,19,-29,0,29,-78,-78,-29,-9,0,19
19,39,19,-29,0,29,-78,-78,-29,-9,0,19
19,39,19,-29,0,29,-78,-78,-29,-9,0,19
19,39,19,-29,0,29,-78,-78,-29,-9,0,19
24,48,24,-36,0,36,-73,-68,-29,-19,0,19
29,48,19,-39,4,34,-68,-68,-29,-19,0,19
34,48,14,-41,9,31,-63,-68,-29,-19,0,19
39,48,9,-43,14,29,-58,-68,-29,-19,0,19
29,39,9,-34,9,24,-68,-73,-29,-19,-9,9
29,39,9,-34,9,24,-68,-78,-29,-19,-9,9
29,39,9,-34,9,24,-68,-82,-29,-19,-9,9
29,39,9,-34,9,24,-68,-87,-29,-19,-9,9
19,48,29,-34,-4,39,-68,-78,-29,-19,0,19
19,48,29,-34,-4,39,-68,-78,-29,-19,0,19
19,48,29,-34,-4,39,-68,-78,-29,-19,0,19
19,48,29,-34,-4,39,-68,-78,-29,-19,0,19
24,48,24,-36,0,36,-78,-87,-39,-19,-9,19
29,48,19,-39,4,34,-78,-87,-39,-19,-9,19
34,48,14,-41,9,31,-78,-87,-39,-19,-9,19
39,48,9,-43,14,29,-78,-87,-39,-19,-9,19
34,39,4,-36,14,21,-68,-87,-39,-29,-9,9
29,39,9,-34,9,24,-68,-87,-39,-29,-9,9
24,39,14,-31,4,26,-68,-87,-39,-29,-9,9
19,39,19,-29,0,29,-68,-87,-39,-29,-9,9
29,39,9,-34,9,24,-78,-87,-48,-19,-9,19
29,39,9,-34,9,24,-78,-87,-48,-19,-9,19
29,39,9,-34,9,24,-78,-87,-48,-19,-9,19
29,39,9,-34,9,24,-78,-87,-48,-19,-9,19
39,48,9,-43,14,29,-78,-87,-48,-29,0,9
39,48,9,-43,14,29,-78,-87,-48,-29,0,9
39,48,9,-43,14,29,-78,-87,-48,-29,0,9
39,48,9,-43,14,29,-78,-87,-48,-29,0,9
29,48,19,-39,4,34,-78,-87,-48,-19,9,19
29,48,19,-39,4,34,-78,-87,-48,-19,9,19
29,48,19,-39,4,34,-78,-87,-48,-19,9,19
29,48,19,-39,4,34,-78,-87,-48,-19,9,19
39,48,9,-43,14,29,-78,-78,-48,-29,0,9
39,48,9,-43,14,29,-78,-78,-48,-29,0,9
39,48,9,-43,14,29,-78,-78,-48,-29,0,9
39,48,9,-43,14,29,-78,-78,-48,-29,0,9
34,43,9,-39,12,26,-87,-87,-48,-19,0,9
29,39,9,-34,9,24,-87,-87,-48,-19,0,9
24,34,9,-29,7,21,-87,-87,-48,-19,0,9
19,29,9,-24,4,19,-87,-87,-48,-19,0,9
29,29,0,-29,14,14,-87,-78,-48,-19,0,0
29,29,0,-29,14,14,-87,-78,-48,-19,0,0
29,29,0,-29,14,14,-87,-78,-48,-19,0,0
29,29,0,-29,14,14,-87,-78,-48,-19,0,0
29,39,9,-34,9,24,-87,-87,-48,-19,0,0
29,39,9,-34,9,24,-87,-87,-48,-19,0,0
29,39,9,-34,9,24,-87,-87,-48,-19,0,0
29,39,9,-34,9,24,-87,-87,-48,-19,0,0
39,48,9,-43,14,29,-78,-78,-48,-9,0,9
39,48,9,-43,14,29,-78,-78,-48,-9,0,9
39,48,9,-43,14,29,-78,-78,-48,-9,0,9
39,48,9,-43,14,29,-78,-78,-48,-9,0,9
48,58,9,-53,19,34,-73,-73,-34,0,9,14
48,58,9,-53,19,34,-68,-68,-29,0,9,19
48,58,9,-53,19,34,-63,-63,-24,0,9,24
48,58,9,-53,19,34,-58,-58,-19,0,9,29
58,68,9,-63,24,39,-53,-48,-14,4,24,34
58,68,9,-63,24,39,-48,-39,-9,9,29,39
58,68,9,-63,24,39,-43,-29,-4,14,34,43
58,68,9,-63,24,39,-39,-19,0,19,39,48
68,78,9,-73,29,43,-29,-4,14,24,53,58
78,78,0,-78,39,39,-29,0,19,29,58,58
87,78,-9,-82,48,34,-29,4,24,34,63,58
97,78,-19,-87,58,29,-29,9,29,39,68,58
102,82,-19,-92,61,31,-19,14,39,53,78,68
107,87,-19,-97,63,34,-19,19,48,58,78,68
112,92,-19,-102,65,36,-19,24,58,63,78,68
117,97,-19,-107,68,39,-19,29,68,68,78,68
112,97,-14,-104,63,41,-4,43,78,68,87,73
107,97,-9,-102,58,43,0,48,78,68,87,78
102,97,-4,-100,53,46,4,53,78,68,87,82
97,97,0,-97,48,48,9,58,78,68,87,87
112,107,-4,-109,58,51,-4,68,87,78,92,97
126,107,-19,-117,73,43,-9,68,87,78,97,97
141,107,-34,-124,87,36,-14,68,87,78,102,97
156,107,-48,-131,102,29,-19,68,87,78,107,97
146,102,-43,-124,95,29,-34,43,68,68,92,87
146,97,-48,-122,97,24,-48,29,58,58,87,87
146,92,-53,-119,100,19,-63,14,48,48,82,87
146,87,-58,-117,102,14,-78,0,39,39,78,87
146,92,-53,-119,100,19,-97,-29,24,29,68,78
146,97,-48,-122,97,24,-117,-48,9,19,68,78
146,102,-43,-124,95,29,-136,-68,-4,9,68,78
146,107,-39,-126,92,34,-156,-87,-19,0,68,78
161,117,-43,-139,102,36,-146,-92,-34,-9,53,68
165,117,-48,-141,107,34,-146,-97,-39,-9,48,68
170,117,-53,-143,112,31,-146,-102,-43,-9,43,68
175,117,-58,-146,117,29,-146,-107,-48,-9,39,68
165,107,-58,-136,112,24,-141,-97,-39,-4,43,78
165,107,-58,-136,112,24,-136,-97,-39,0,48,78
165,107,-58,-136,112,24,-131,-97,-39,4,53,78
165,107,-58,-136,112,24,-126,-97,-39,9,58,78
170,97,-73,-134,122,12,-117,-87,-29,14,63,82
175,97,-78,-136,126,9,-117,-78,-19,19,68,87
180,97,-82,-139,131,7,-117,-68,-9,24,73,92
185,97,-87,-141,136,4,-117,-58,0,29,78,97
175,107,-68,-141,122,19,-107,-63,-4,14,68,97
165,107,-58,-136,112,24,-107,-68,-9,9,68,97
141,107,-34,-124,87,36,-107,-82,-24,-4,53,82
126,107,-19,-117,73,43,-107,-97,-34,-14,48,82
126,107,-19,-117,73,43,-107,-102,-43,-9,48,78
107,97,-9,-102,58,43,-107,-117,-53,-14,34,73
82,87,4,-85,39,46,-102,-117,-53,-24,34,58
82,97,14,-90,34,56,-87,-107,-53,-14,34,58
82,97,14,-90,34,56,-92,-117,-58,-24,24,53
63,82,19,-73,21,51,-87,-117,-58,-24,19,43
39,68,29,-53,4,48,-87,-117,-68,-34,14,29
24,48,24,-36,0,36,-87,-122,-68,-39,0,9
24,48,24,-36,0,36,-78,-112,-58,-34,4,9
24,48,24,-36,0,36,-78,-117,-68,-39,4,9
24,48,24,-36,0,36,-78,-126,-73,-39,0,4
24,48,24,-36,0,36,-82,-126,-78,-39,-4,4
34,39,4,-36,14,21,-73,-131,-87,-48,-19,4
34,39,4,-36,14,21,-73,-131,-92,-53,-24,-4
29,39,9,-34,9,24,-73,-131,-92,-53,-24,-4
29,39,9,-34,9,24,-73,-136,-92,-53,-19,-4
19,43,24,-31,-2,34,-73,-126,-87,-48,-19,4
19,43,24,-31,-2,34,-73,-126,-87,-48,-19,9
14,43,29,-29,-7,36,-73,-126,-87,-48,-19,9
9,43,34,-26,-12,39,-73,-126,-87,-48,-19,9
14,48,34,-31,-9,41,-73,-126,-78,-39,-9,4
24,48,24,-36,0,36,-68,-126,-78,-39,-9,4
29,53,24,-41,2,39,-63,-122,-78,-39,-9,9
34,53,19,-43,7,36,-63,-122,-78,-39,-9,9
39,43,4,-41,17,24,-53,-122,-73,-34,-9,9
39,43,4,-41,17,24,-53,-122,-73,-34,-9,9
39,43,4,-41,17,24,-53,-122,-73,-34,-4,9
39,48,9,-43,14,29,-53,-122,-73,-34,-4,9
29,58,29,-43,0,43,-63,-131,-82,-29,-4,0
29,53,24,-41,2,39,-63,-126,-82,-29,-4,0
29,53,24,-41,2,39,-58,-126,-82,-29,-4,0
24,53,29,-39,-2,41,-58,-126,-82,-29,-4,0
34,43,9,-39,12,26,-68,-126,-82,-34,-9,0
34,48,14,-41,9,31,-68,-126,-78,-34,-9,4
34,48,14,-41,9,31,-68,-126,-78,-34,-9,4
34,48,14,-41,9,31,-68,-126,-78,-34,-9,4
24,39,14,-31,4,26,-58,-117,-68,-34,0,4
24,39,14,-31,4,26,-58,-117,-68,-34,-4,0
24,39,14,-31,4,26,-58,-117,-68,-34,-4,0
24,39,14,-31,4,26,-58,-122,-68,-34,-4,0
43,48,4,-46,19,26,-58,-122,-73,-34,-14,0
34,48,14,-41,9,31,-48,-122,-73,-24,-14,0
34,63,29,-48,2,46,-43,-117,-68,-24,-9,9
9,63,53,-36,-21,58,-43,-122,-73,-24,-9,9
4,48,43,-26,-19,46,-43,-146,-92,-39,-24,-4
9,58,48,-34,-19,53,-43,-165,-112,-58,-29,-9
4,68,63,-36,-29,65,-34,-175,-122,-48,-29,-9
-4,78,82,-36,-43,80,-34,-214,-136,-48,-34,-9
-24,63,87,-19,-56,75,-58,-273,-170,-78,-48,-9
-53,43,97,4,-75,70,-97,-366,-224,-107,-63,-19
-43,78,122,-17,-82,100,-117,-448,-278,-122,-68,0
-34,97,131,-31,-82,114,-161,-541,-346,-146,-78,4
-58,68,126,-4,-92,97,-214,-629,-419,-180,-87,4
-39,73,112,-17,-75,92,-258,-702,-473,-200,-97,9
-4,73,78,-34,-41,75,-287,-756,-527,-219,-102,0
4,34,29,-19,-12,31,-317,-800,-580,-253,-122,-9
19,19,0,-19,9,9,-331,-849,-629,-287,-126,-9
29,19,-9,-24,19,4,-356,-888,-678,-322,-146,-19
43,19,-24,-31,34,-2,-375,-912,-707,-341,-161,-19
39,39,0,-39,19,19,-380,-932,-732,-351,-185,-14
39,63,24,-51,7,43,-390,-917,-727,-336,-195,4
68,112,43,-90,12,78,-400,-873,-688,-312,-175,48
102,146,43,-124,29,95,-390,-810,-658,-292,-146,78
97,151,53,-124,21,102,-375,-727,-644,-283,-146,92
102,170,68,-136,17,119,-341,-639,-590,-239,-122,126
131,219,87,-175,21,153,-302,-541,-527,-209,-102,156
141,283,141,-212,0,212,-248,-473,-463,-190,-102,170
131,346,214,-239,-41,280,-180,-414,-400,-146,-92,204
107,429,322,-268,-107,375,-126,-380,-331,-97,-58,253
107,536,429,-322,-161,483,-112,-346,-268,-39,-29,307
126,570,444,-348,-158,507,-92,-283,-190,-9,-34,317
126,512,385,-319,-129,448,-34,-161,-73,0,-87,263
146,424,278,-285,-65,351,58,24,87,34,-126,185
170,346,175,-258,-2,261,156,258,273,92,-126,141
151,268,117,-209,17,192,239,497,434,146,-107,131
141,214,73,-178,34,143,317,678,522,165,-87,126
136,170,34,-153,51,102,385,819,610,204,-73,117
97,131,34,-114,31,82,473,946,741,253,-58,87
58,92,34,-75,12,63,541,1063,873,292,-78,48
4,39,34,-21,-14,36,595,1112,966,317,-73,4
-19,4,24,7,-21,14,634,1098,1005,346,-39,-34
-29,-19,9,24,-19,-4,678,1117,1029,351,-39,-63
-82,-63,19,73,-51,-21,756,1190,1117,390,-24,-92
-131,-78,53,104,-92,-12,858,1307,1307,502,34,-97
-141,-73,68,107,-104,-2,961,1381,1473,614,107,-107
-185,-112,73,148,-129,-19,1049,1468,1586,639,107,-136
-219,-156,63,187,-141,-46,1156,1576,1678,649,78,-190
-224,-156,68,190,-146,-43,1254,1644,1781,673,82,-209
-239,-141,97,190,-168,-21,1342,1664,1849,697,97,-204
-248,-131,117,190,-183,-7,1429,1610,1888,707,117,-204
-263,-141,122,202,-192,-9,1512,1459,1859,683,112,-190
-297,-136,161,217,-229,12,1600,1210,1659,580,48,-214
-346,-151,195,248,-270,21,1698,912,1268,370,-87,-278
-405,-190,214,297,-309,12,1795,629,819,122,-258,-361
-429,-209,219,319,-324,4,1903,409,502,-63,-380,-414
-409,-204,204,307,-307,0,1976,219,278,-180,-439,-434
-424,-214,209,319,-317,-2,2020,29,34,-283,-478,-448
-429,-234,195,331,-312,-19,2093,-122,-204,-370,-517,-473
-439,-234,204,336,-322,-14,2181,-180,-307,-414,-546,-473
-458,-219,239,339,-348,9,2254,-161,-283,-405,-546,-473
-444,-209,234,326,-339,12,2264,-122,-239,-385,-536,-463
-409,-214,195,312,-302,-9,2161,-126,-253,-380,-522,-448
-370,-200,170,285,-270,-14,1976,-185,-283,-370,-483,-419
-322,-165,156,244,-239,-4,1815,-219,-287,-336,-419,-370
-292,-146,146,219,-219,0,1664,-219,-287,-297,-366,-326
-268,-126,141,197,-204,7,1449,-180,-268,-258,-307,-283
-214,-102,112,158,-163,4,1195,-112,-209,-204,-253,-234
-165,-92,73,129,-119,-9,966,-48,-151,-161,-190,-175
-107,-63,43,85,-75,-9,775,-14,-97,-117,-136,-131
-73,-34,39,53,-56,2,575,-4,-63,-78,-97,-87
-43,-14,29,29,-36,7,361,-4,-34,-53,-73,-68
-4,9,14,-2,-9,12,229,19,-4,-29,-43,-43
29,14,-14,-21,21,0,185,58,14,-19,-19,-39
19,9,-9,-14,14,0,141,68,9,-9,-9,-29
39,39,0,-39,19,19,112,78,24,4,9,-19
58,58,0,-58,29,29,87,87,39,19,29,9
68,53,-14,-61,41,19,78,87,48,29,39,19
87,63,-24,-75,56,19,73,97,63,29,39,29
112,58,-53,-85,82,2,58,92,63,19,29,19
92,39,-53,-65,73,-7,39,87,58,9,29,9
58,43,-14,-51,36,14,29,97,58,9,39,9
63,53,-9,-58,36,21,24,102,53,19,48,19
82,53,-29,-68,56,12,-9,102,43,29,58,24
73,48,-24,-61,48,12,-39,97,39,19,48,24
78,53,-24,-65,51,14,-48,97,48,29,48,34
78,53,-24,-65,51,14,-53,92,48,29,53,39
78,53,-24,-65,51,14,-58,87,48,29,53,39
82,53,-29,-68,56,12,-63,82,43,24,43,29
92,53,-39,-73,65,7,-68,82,43,14,43,29
92,53,-39,-73,65,7,-73,87,43,9,43,34
92,53,-39,-73,65,7,-78,87,43,4,48,34
97,63,-34,-80,65,14,-92,87,43,9,58,34
102,63,-39,-82,70,12,-97,92,48,14,58,34
107,78,-29,-92,68,24,-97,97,48,19,63,34
122,78,-43,-100,82,17,-102,97,48,24,63,39
112,73,-39,-92,75,17,-102,92,48,9,53,29
112,63,-48,-87,80,7,-107,92,43,4,53,29
117,63,-53,-90,85,4,-107,97,43,4,48,29
117,68,-48,-92,82,9,-112,97,43,9,48,29
97,78,-19,-87,58,29,-117,107,53,19,53,34
97,78,-19,-87,58,29,-117,112,53,19,58,39
107,82,-24,-95,65,29,-117,112,58,19,63,43
107,82,-24,-95,65,29,-122,112,58,19,68,48
107,68,-39,-87,73,14,-117,112,63,14,58,43
107,68,-39,-87,73,14,-122,117,63,14,68,43
107,68,-39,-87,73,14,-122,117,63,14,68,43
107,68,-39,-87,73,14,-122,122,63,14,63,43
117,58,-58,-87,87,0,-126,112,53,4,53,34
117,58,-58,-87,87,0,-131,117,58,9,53,34
122,58,-63,-90,92,-2,-146,117,58,9,53,34
122,58,-63,-90,92,-2,-151,117,58,4,53,34
122,63,-58,-92,90,2,-151,126,48,4,48,39
122,68,-53,-95,87,7,-151,122,48,0,48,39
126,73,-53,-100,90,9,-146,122,48,0,48,39
126,73,-53,-100,90,9,-141,122,48,0,48,39
126,63,-63,-95,95,0,-146,122,48,0,48,29
126,63,-63,-95,95,0,-156,122,43,0,48,29
126,63,-63,-95,95,0,-165,122,43,0,48,29
126,68,-58,-97,92,4,-170,131,43,4,48,29
117,63,-53,-90,85,4,-170,131,48,4,48,29
117,63,-53,-90,85,4,-180,131,48,4,43,29
126,58,-68,-92,97,-4,-185,131,43,-4,39,24
117,53,-63,-85,90,-4,-190,131,43,-4,39,24
122,68,-53,-95,87,7,-195,131,43,4,39,34
131,78,-53,-104,92,12,-200,131,43,4,39,34
136,82,-53,-109,95,14,-204,131,43,4,39,34
141,87,-53,-114,97,17,-209,136,43,9,39,34
131,78,-53,-104,92,12,-204,136,53,0,43,34
131,82,-48,-107,90,17,-204,136,53,-9,39,34
141,87,-53,-114,97,17,-219,136,43,-9,34,34
146,87,-58,-117,102,14,-219,136,39,-9,34,34
156,92,-63,-124,109,14,-234,126,29,-14,24,34
156,97,-58,-126,107,19,-239,126,29,-14,24,34
156,97,-58,-126,107,19,-244,126,24,-14,19,34
151,97,-53,-124,102,21,-248,131,24,-14,19,34
151,107,-43,-129,97,31,-253,141,24,-14,24,34
151,112,-39,-131,95,36,-258,141,24,-24,24,34
156,112,-43,-134,100,34,-263,141,14,-24,24,34
156,117,-39,-136,97,39,-273,141,14,-24,24,34
165,131,-34,-148,100,48,-283,141,14,-24,29,34
165,136,-29,-151,97,53,-283,141,14,-24,29,34
165,136,-29,-151,97,53,-287,141,14,-24,29,34
165,146,-19,-156,92,63,-297,141,9,-24,29,34
161,141,-19,-151,90,61,-312,131,19,-24,29,39
161,146,-14,-153,87,65,-312,136,14,-24,29,43
161,151,-9,-156,85,70,-312,136,14,-24,29,43
165,156,-9,-161,87,73,-322,136,19,-19,34,43
175,151,-24,-163,100,63,-317,136,9,-29,24,39
180,156,-24,-168,102,65,-317,136,4,-29,24,39
185,165,-19,-175,102,73,-322,136,0,-29,24,43
190,175,-14,-183,102,80,-322,136,-4,-34,24,43
185,185,0,-185,92,92,-317,146,4,-24,29,58
175,185,9,-180,82,97,-317,146,4,-24,34,63
170,175,4,-173,82,90,-307,136,0,-24,39,68
170,185,14,-178,78,100,-307,136,0,-19,48,78
165,180,14,-173,75,97,-317,126,-4,-19,48,68
165,175,9,-170,78,92,-317,122,-9,-19,43,68
165,170,4,-168,80,87,-317,122,-9,-19,43,73
165,170,4,-168,80,87,-317,122,-9,-19,43,82
156,185,29,-170,63,107,-312,136,-19,-9,58,87
156,185,29,-170,63,107,-307,136,-14,-4,63,87
161,185,24,-173,68,104,-302,136,-14,-4,68,92
161,185,24,-173,68,104,-292,136,-9,9,73,92
165,190,24,-178,70,107,-278,141,0,9,78,92
161,190,29,-175,65,109,-268,146,9,9,82,92
165,190,24,-178,70,107,-253,151,14,19,87,97
165,190,24,-178,70,107,-239,161,19,24,87,102
156,200,43,-178,56,122,-224,180,29,29,102,107
151,190,39,-170,56,114,-219,185,39,43,107,112
146,190,43,-168,51,117,-200,190,48,43,112,117
146,190,43,-168,51,117,-180,190,58,48,117,126
146,185,39,-165,53,112,-165,204,78,48,107,122
136,165,29,-151,53,97,-151,209,78,48,107,112
136,161,24,-148,56,92,-131,209,82,63,112,107
136,156,19,-146,58,87,-112,209,97,63,117,102
107,146,39,-126,34,92,-97,209,87,63,126,102
107,146,39,-126,34,92,-87,200,87,63,126,102
107,146,39,-126,34,92,-68,195,92,68,126,102
102,136,34,-119,34,85,-53,190,92,68,126,102
107,136,29,-122,39,82,-53,165,92,68,112,97
107,126,19,-117,43,73,-48,156,92,63,107,92
102,126,24,-114,39,75,-39,141,92,63,107,87
97,126,29,-112,34,78,-34,131,87,63,107,87
97,126,29,-112,34,78,-19,131,82,63,112,78
97,117,19,-107,39,68,-19,112,82,58,102,73
92,112,19,-102,36,65,-19,97,78,53,102,68
82,112,29,-97,26,70,-19,87,68,53,97,68
82,112,29,-97,26,70,-29,82,63,43,92,78
78,107,29,-92,24,68,-29,63,58,39,87,73
78,107,29,-92,24,68,-34,48,53,29,87,73
82,107,24,-95,29,65,-34,39,48,29,87,73
92,107,14,-100,39,61,-34,19,34,24,82,63
87,97,9,-92,39,53,-39,9,24,19,78,53
87,102,14,-95,36,58,-43,0,19,14,73,53
87,107,19,-97,34,63,-43,-9,19,9,73,53
78,97,19,-87,29,58,-48,-9,24,0,58,53
78,92,14,-85,31,53,-48,-14,19,0,58,53
73,92,19,-82,26,56,-48,-19,14,0,58,53
73,97,24,-85,24,61,-48,-24,9,-4,58,43
73,92,19,-82,26,56,-53,-39,4,-9,53,43
78,87,9,-82,34,48,-53,-43,4,-9,53,43
78,82,4,-80,36,43,-53,-48,0,-9,48,43
73,73,0,-73,36,36,-58,-48,0,-14,43,43
58,73,14,-65,21,43,-48,-39,0,-4,53,43
58,73,14,-65,21,43,-48,-39,-4,-4,53,43
53,68,14,-61,19,41,-48,-39,-4,-4,53,43
43,68,24,-56,9,46,-48,-48,-4,0,53,43
48,78,29,-63,9,53,-53,-58,-14,-9,53,43
58,78,19,-68,19,48,-53,-58,-14,-9,48,39
63,78,14,-70,24,46,-53,-63,-19,-14,48,39
68,78,9,-73,29,43,-53,-63,-19,-19,48,39
73,87,14,-80,29,51,-63,-58,-19,-9,48,39
73,78,4,-75,34,41,-68,-58,-24,-9,48,39
73,78,4,-75,34,41,-68,-58,-24,-9,43,39
78,78,0,-78,39,39,-68,-58,-24,-9,39,39
68,78,9,-73,29,43,-58,-68,-14,-9,48,39
68,78,9,-73,29,43,-58,-63,-14,-9,48,43
68,78,9,-73,29,43,-58,-63,-9,-9,53,43
68,78,9,-73,29,43,-58,-63,-9,-9,58,43
73,87,14,-80,29,51,-58,-63,-19,-14,48,43
73,87,14,-80,29,51,-58,-63,-19,-14,48,43
78,87,9,-82,34,48,-58,-63,-19,-14,48,43
78,78,0,-78,39,39,-58,-63,-19,-14,43,43
63,68,4,-65,29,36,-48,-63,-19,-14,43,39
68,73,4,-70,31,39,-43,-63,-19,-19,43,39
63,82,19,-73,21,51,-43,-63,-19,-19,43,39
58,82,24,-70,17,53,-43,-63,-24,-19,43,39
58,87,29,-73,14,58,-53,-68,-14,-9,43,39
63,87,24,-75,19,56,-53,-68,-14,-9,43,39
73,87,14,-80,29,51,-53,-63,-14,-9,43,39
78,87,9,-82,34,48,-53,-63,-14,-9,39,39
87,73,-14,-80,51,29,-58,-68,-29,-9,39,39
87,68,-19,-78,53,24,-58,-68,-29,-9,43,39
82,68,-14,-75,48,26,-58,-68,-24,-9,43,39
82,82,0,-82,41,41,-58,-68,-24,-9,43,39
78,73,-4,-75,41,34,-43,-58,-19,-9,39,39
73,73,0,-73,36,36,-43,-58,-19,-9,39,39
68,73,4,-70,31,39,-43,-58,-14,-9,39,39
63,73,9,-68,26,41,-43,-53,-4,-9,39,39
73,73,0,-73,36,36,-53,-63,-14,-9,39,39
78,73,-4,-75,41,34,-53,-63,-19,-9,39,39
78,73,-4,-75,41,34,-53,-63,-24,-9,39,39
73,68,-4,-70,39,31,-53,-68,-24,-9,39,34
73,68,-4,-70,39,31,-53,-68,-24,-19,39,34
73,73,0,-73,36,36,-53,-68,-24,-19,39,34
73,73,0,-73,36,36,-53,-63,-24,-19,39,34
73,73,0,-73,36,36,-53,-63,-24,-19,39,34
73,68,-4,-70,39,31,-58,-63,-24,-9,34,34
73,68,-4,-70,39,31,-58,-63,-24,-9,34,34
73,68,-4,-70,39,31,-58,-63,-24,-9,34,39
73,63,-9,-68,41,26,-58,-73,-29,-9,34,39
68,73,4,-70,31,39,-58,-73,-29,-9,34,48
68,78,9,-73,29,43,-58,-73,-29,-9,34,48
68,78,9,-73,29,43,-53,-73,-24,-9,34,48
68,78,9,-73,29,43,-53,-73,-24,-14,34,48
63,73,9,-68,26,41,-68,-73,-34,-14,43,39
63,73,9,-68,26,41,-73,-78,-34,-14,43,34
68,73,4,-70,31,39,-73,-78,-29,-9,43,34
68,73,4,-70,31,39,-73,-82,-29,-9,39,34
58,73,14,-65,21,43,-73,-92,-43,-19,29,34
58,73,14,-65,21,43,-78,-92,-43,-24,34,34
58,73,14,-65,21,43,-78,-87,-48,-29,34,34
68,73,4,-70,31,39,-78,-87,-48,-34,34,34
68,63,-4,-65,36,29,-78,-87,-48,-34,34,29
63,58,-4,-61,34,26,-78,-97,-53,-29,34,29
63,58,-4,-61,34,26,-78,-97,-53,-24,34,29
63,63,0,-63,31,31,-82,-97,-53,-19,34,34
63,63,0,-63,31,31,-73,-87,-43,-29,43,43
68,63,-4,-65,36,29,-73,-87,-43,-29,43,43
68,63,-4,-65,36,29,-73,-87,-43,-29,43,39
63,63,0,-63,31,31,-73,-87,-43,-29,43,39
63,63,0,-63,31,31,-82,-87,-48,-24,43,39
68,63,-4,-65,36,29,-82,-82,-48,-24,43,34
82,63,-19,-73,51,21,-82,-82,-48,-24,43,29
78,63,-14,-70,46,24,-87,-87,-53,-24,43,19
73,63,-9,-68,41,26,-87,-87,-53,-29,34,29
73,63,-9,-68,41,26,-82,-87,-53,-29,39,29
68,63,-4,-65,36,29,-82,-92,-53,-29,39,29
63,58,-4,-61,34,26,-87,-92,-58,-29,39,29
63,58,-4,-61,34,26,-87,-92,-48,-19,43,29
63,58,-4,-61,34,26,-87,-87,-48,-14,43,24
63,58,-4,-61,34,26,-92,-87,-48,-14,43,24
58,58,0,-58,29,29,-92,-87,-48,-14,43,24
73,68,-4,-70,39,31,-92,-97,-53,-14,48,29
82,78,-4,-80,43,36,-92,-97,-53,-14,53,29
87,78,-9,-82,48,34,-92,-92,-58,-14,53,29
97,73,-24,-85,61,24,-92,-92,-58,-9,53,29
97,73,-24,-85,61,24,-102,-92,-58,-19,43,29
87,78,-9,-82,48,34,-97,-87,-48,-19,43,29
97,78,-19,-87,58,29,-92,-82,-48,-19,43,29
97,78,-19,-87,58,29,-92,-82,-43,-19,39,29
78,63,-14,-70,46,24,-97,-82,-43,-19,39,29
63,63,0,-63,31,31,-102,-82,-43,-19,39,29
73,78,4,-75,34,41,-102,-82,-48,-19,39,34
68,78,9,-73,29,43,-97,-82,-48,-14,43,34
78,82,4,-80,36,43,-92,-68,-34,-9,48,34
78,82,4,-80,36,43,-87,-63,-24,-4,53,34
78,82,4,-80,36,43,-78,-53,-19,-4,58,39
82,92,9,-87,36,51,-68,-48,-14,0,73,43
97,97,0,-97,48,48,-48,-34,4,14,73,58
97,97,0,-97,48,48,-48,-24,9,24,73,58
102,92,-9,-97,56,41,-48,-19,14,34,78,58
102,92,-9,-97,56,41,-43,-9,19,39,82,58
117,112,-4,-114,61,53,-43,9,29,39,97,58
122,112,-9,-117,65,51,-34,14,34,43,97,63
117,112,-4,-114,61,53,-34,29,43,48,102,68
131,112,-19,-122,75,46,-34,29,48,53,107,73
131,122,-9,-126,70,56,-34,39,48,48,117,87
141,112,-29,-126,85,41,-34,39,53,58,126,87
151,112,-39,-131,95,36,-34,39,58,63,131,87
156,112,-43,-134,100,34,-29,48,63,63,131,97
156,107,-48,-131,102,29,-19,48,58,63,126,92
161,107,-53,-134,107,26,-14,53,68,73,136,92
165,112,-53,-139,109,29,-14,58,73,73,136,102
170,112,-58,-141,114,26,-19,68,78,73,136,102
190,117,-73,-153,131,21,-29,68,78,73,146,102
200,122,-78,-161,139,21,-34,68,78,68,146,102
200,122,-78,-161,139,21,-39,68,87,68,151,102
200,126,-73,-163,136,26,-39,63,87,68,151,102
190,126,-63,-158,126,31,-58,43,63,53,136,92
190,126,-63,-158,126,31,-78,19,48,39,131,92
190,112,-78,-151,134,17,-92,4,43,34,117,87
200,112,-87,-156,143,12,-117,-4,29,24,112,87
190,117,-73,-153,131,21,-136,-24,14,4,112,87
195,122,-73,-158,134,24,-161,-68,-14,-4,102,78
195,131,-63,-163,129,34,-190,-92,-34,-14,97,78
195,136,-58,-165,126,39,-209,-117,-43,-14,97,78
195,131,-63,-163,129,34,-209,-117,-43,-24,92,68
190,126,-63,-158,126,31,-195,-131,-58,-29,78,63
190,122,-68,-156,129,26,-180,-126,-58,-29,73,63
190,117,-73,-153,131,21,-165,-136,-73,-39,68,63
204,131,-73,-168,139,29,-161,-122,-63,-24,78,73
204,131,-73,-168,139,29,-161,-122,-58,-19,78,78
204,126,-78,-165,141,24,-156,-117,-53,-24,82,68
209,126,-82,-168,146,21,-151,-112,-43,-4,92,87
229,151,-78,-190,153,36,-117,-63,4,34,131,117
204,136,-68,-170,136,34,-126,-58,0,29,136,117
200,131,-68,-165,134,31,-126,-63,-4,24,131,107
195,126,-68,-161,131,29,-126,-68,-9,19,126,107
190,122,-68,-156,129,26,-126,-73,-14,14,122,107
185,117,-68,-151,126,24,-126,-78,-19,9,117,107
170,126,-43,-148,107,41,-126,-97,-34,-9,92,82
165,126,-39,-146,102,43,-126,-107,-43,-14,87,82
156,126,-29,-141,92,48,-126,-112,-58,-19,78,78
136,117,-19,-126,78,48,-126,-126,-73,-24,63,73
112,97,-14,-104,63,41,-112,-136,-63,-34,73,58
112,107,-4,-109,58,51,-97,-126,-63,-24,73,58
112,107,-4,-109,58,51,-92,-126,-58,-24,73,58
92,92,0,-92,46,46,-87,-126,-58,-24,68,53
78,78,0,-78,39,39,-92,-136,-78,-43,53,34
63,58,-4,-61,34,26,-97,-141,-78,-48,39,19
63,58,-4,-61,34,26,-92,-141,-78,-53,34,9
63,58,-4,-61,34,26,-97,-146,-87,-58,34,9
58,58,0,-58,29,29,-87,-146,-82,-48,39,14
53,58,4,-56,24,31,-92,-146,-87,-48,34,14
48,48,0,-48,24,24,-92,-141,-87,-48,29,14
43,48,4,-46,19,26,-92,-141,-92,-53,24,4
48,58,9,-53,19,34,-92,-141,-97,-53,24,-4
48,58,9,-53,19,34,-92,-146,-102,-53,29,-4
48,63,14,-56,17,39,-92,-146,-102,-48,29,-4
48,63,14,-56,17,39,-92,-146,-107,-48,29,0
53,53,0,-53,26,26,-92,-136,-97,-48,29,9
48,53,4,-51,21,29,-92,-136,-97,-48,29,9
48,48,0,-48,24,24,-92,-136,-97,-48,29,4
53,48,-4,-51,29,21,-87,-136,-97,-48,29,4
43,53,9,-48,17,31,-92,-131,-97,-48,29,0
43,53,9,-48,17,31,-92,-131,-97,-48,29,0
48,53,4,-51,21,29,-92,-131,-92,-43,29,0
48,53,4,-51,21,29,-92,-131,-92,-43,29,0
58,63,4,-61,26,34,-82,-131,-82,-34,24,0
58,68,9,-63,24,39,-82,-131,-82,-34,24,0
58,68,9,-63,24,39,-82,-131,-82,-29,24,0
58,63,4,-61,26,34,-82,-126,-82,-29,24,0
48,53,4,-51,21,29,-78,-126,-82,-29,34,0
43,53,9,-48,17,31,-78,-126,-82,-29,34,0
43,53,9,-48,17,31,-78,-126,-82,-24,39,0
43,58,14,-51,14,36,-78,-126,-78,-24,39,4
53,58,4,-56,24,31,-87,-136,-87,-34,29,4
53,58,4,-56,24,31,-87,-136,-87,-34,29,4
53,58,4,-56,24,31,-87,-136,-87,-34,29,4
53,58,4,-56,24,31,-87,-136,-87,-34,24,0
73,48,-24,-61,48,12,-87,-146,-97,-43,24,0
53,48,-4,-51,29,21,-78,-141,-87,-34,34,0
53,48,-4,-51,29,21,-78,-141,-102,-34,34,0
24,39,14,-31,4,26,-78,-141,-102,-34,24,-9
4,34,29,-19,-12,31,-73,-136,-97,-34,19,-9
29,63,34,-46,-2,48,-63,-151,-102,-43,9,0
43,78,34,-61,4,56,-63,-165,-112,-48,4,-4
29,68,39,-48,-4,53,-63,-185,-131,-58,0,-19
14,48,34,-31,-9,41,-73,-224,-151,-68,-9,-29
4,58,53,-31,-24,56,-82,-253,-175,-68,-14,-19
-4,63,68,-29,-36,65,-87,-302,-200,-68,-9,-19
-14,73,87,-29,-51,80,-117,-375,-244,-97,-14,-19
-14,87,102,-36,-58,95,-146,-458,-297,-122,-19,-9
-14,97,112,-41,-63,104,-180,-561,-366,-146,-39,4
-19,87,107,-34,-63,97,-234,-658,-439,-190,-58,-4
-9,73,82,-31,-46,78,-287,-741,-512,-229,-87,-19
-4,53,58,-24,-31,56,-336,-805,-575,-258,-92,-19
24,43,19,-34,2,31,-356,-849,-619,-283,-92,-9
78,39,-39,-58,58,0,-390,-878,-658,-297,-107,-19
87,19,-68,-53,78,-24,-405,-927,-707,-341,-146,-29
53,9,-43,-31,48,-17,-414,-941,-736,-361,-180,-39
39,29,-9,-34,24,9,-409,-951,-751,-361,-185,-24
29,63,34,-46,-2,48,-429,-936,-736,-336,-156,14
48,122,73,-85,-12,97,-419,-883,-688,-292,-126,58
92,165,73,-129,9,119,-409,-829,-668,-283,-107,78
107,180,73,-143,17,126,-395,-756,-644,-273,-107,102
141,209,68,-175,36,139,-361,-649,-590,-239,-82,136
161,248,87,-204,36,168,-312,-541,-527,-209,-73,156
151,283,131,-217,9,207,-248,-473,-473,-200,-82,161
151,356,204,-253,-26,280,-200,-434,-419,-165,-73,195
156,458,302,-307,-73,380,-146,-400,-361,-107,-39,244
136,536,400,-336,-131,468,-141,-375,-297,-68,-19,278
126,541,414,-334,-143,478,-112,-312,-229,-58,-43,268
126,492,366,-309,-119,429,-43,-161,-102,-39,-87,214
136,434,297,-285,-80,366,58,53,78,14,-107,175
151,356,204,-253,-26,280,165,307,273,82,-97,141
141,278,136,-209,2,207,248,546,424,107,-97,122
122,214,92,-168,14,153,326,727,502,117,-87,107
107,161,53,-134,26,107,385,829,570,146,-73,87
87,112,24,-100,31,68,444,936,692,185,-68,58
58,92,34,-75,12,63,512,1044,814,214,-78,19
14,58,43,-36,-14,51,585,1093,907,258,-53,-14
-48,4,53,21,-51,29,634,1117,956,297,-19,-24
-58,-29,29,43,-43,0,688,1166,1010,312,0,-43
-82,-43,39,63,-61,-2,766,1278,1127,380,24,-82
-131,-78,53,104,-92,-12,878,1395,1317,483,82,-107
-170,-112,58,141,-114,-26,961,1478,1434,556,107,-136
-175,-141,34,158,-104,-53,1039,1546,1507,561,87,-185
-190,-165,24,178,-107,-70,1146,1634,1600,570,68,-229
-214,-165,48,190,-131,-58,1254,1703,1703,595,82,-239
-248,-170,78,209,-163,-46,1351,1712,1781,629,107,-224
-258,-161,97,209,-178,-31,1439,1668,1820,639,126,-204
-302,-170,131,236,-217,-19,1532,1507,1771,605,102,-209
-346,-195,151,270,-248,-21,1610,1220,1551,483,19,-253
-375,-209,165,292,-270,-21,1688,873,1151,263,-136,-326
-385,-229,156,307,-270,-36,1795,590,722,34,-287,-400
-400,-239,161,319,-280,-39,1883,390,414,-131,-390,-453
-419,-244,175,331,-297,-34,1956,219,200,-219,-429,-463
-453,-263,190,358,-322,-36,2020,58,-24,-312,-458,-478
-488,-292,195,390,-341,-48,2113,-43,-234,-400,-497,-483
-488,-292,195,390,-341,-48,2210,-82,-297,-424,-517,-483
-478,-268,209,373,-344,-29,2264,-73,-263,-385,-517,-483
-434,-239,195,336,-314,-21,2205,-73,-248,-375,-507,-463
-390,-224,165,307,-278,-29,2034,-126,-273,-370,-473,-439
-361,-209,151,285,-256,-29,1869,-195,-302,-341,-414,-409
-312,-175,136,244,-224,-19,1717,-239,-317,-317,-351,-361
-263,-136,126,200,-195,-4,1537,-229,-307,-287,-297,-317
-209,-117,92,163,-151,-12,1293,-180,-278,-239,-239,-263
-165,-102,63,134,-114,-19,1049,-102,-200,-185,-185,-214
-136,-92,43,114,-90,-24,829,-39,-141,-131,-141,-175
-107,-73,34,90,-70,-19,629,-24,-107,-97,-97,-131
-53,-43,9,48,-31,-17,419,-24,-73,-68,-48,-87
-4,-14,-9,9,2,-12,234,-34,-53,-43,-14,-68
24,0,-24,-12,24,-12,141,-19,-34,-29,4,-53
39,4,-34,-21,36,-14,117,9,-24,-19,19,-39
39,9,-29,-24,34,-9,82,19,-19,-19,29,-29
58,9,-48,-34,53,-19,63,48,4,4,48,-19
48,19,-29,-34,39,-4,58,78,19,19,48,-9
29,14,-14,-21,21,0,48,97,29,29,58,0
58,24,-34,-41,46,-4,34,78,34,29,68,9
82,39,-43,-61,63,-2,9,63,24,29,68,9
82,39,-43,-61,63,-2,-19,48,9,19,68,9
87,34,-53,-61,70,-9,-39,39,0,9,68,0
82,24,-58,-53,70,-17,-63,34,-4,0,68,0
82,34,-48,-58,65,-7,-78,43,-4,9,78,4
92,48,-43,-70,68,2,-82,48,9,19,78,14
97,53,-43,-75,70,4,-87,58,19,29,78,24
97,53,-43,-75,70,4,-87,63,19,29,82,29
97,53,-43,-75,70,4,-87,68,19,29,82,29
102,53,-48,-78,75,2,-102,53,14,19,82,29
112,53,-58,-82,85,-2,-107,53,14,14,82,29
112,53,-58,-82,85,-2,-112,58,14,14,82,34
112,53,-58,-82,85,-2,-117,58,14,14,87,34
112,63,-48,-87,80,7,-122,68,24,24,97,34
112,63,-48,-87,80,7,-126,73,29,24,97,34
112,78,-34,-95,73,21,-126,78,29,24,102,34
122,78,-43,-100,82,17,-131,78,29,24,102,39
112,68,-43,-90,78,12,-141,63,24,19,92,29
112,53,-58,-82,85,-2,-146,63,14,14,92,29
117,48,-68,-82,92,-9,-146,68,9,14,87,29
117,48,-68,-82,92,-9,-151,68,4,19,87,29
117,53,-63,-85,90,-4,-156,68,14,9,87,29
117,58,-58,-87,87,0,-156,73,14,9,87,29
126,68,-58,-97,92,4,-156,73,19,9,87,29
126,73,-53,-100,90,9,-161,73,19,9,87,29
126,68,-58,-97,92,4,-156,63,14,4,78,34
126,68,-58,-97,92,4,-161,68,14,4,87,34
126,68,-58,-97,92,4,-161,68,14,4,87,34
126,68,-58,-97,92,4,-161,73,14,4,82,34
117,58,-58,-87,87,0,-165,73,4,-4,73,29
117,58,-58,-87,87,0,-170,78,9,0,73,24
122,58,-63,-90,92,-2,-185,78,9,0,73,19
122,58,-63,-90,92,-2,-190,78,9,-4,73,14
136,68,-68,-102,102,0,-185,78,9,4,78,19
141,68,-73,-104,107,-2,-190,73,9,0,78,19
151,68,-82,-109,117,-7,-190,73,9,0,78,19
156,63,-92,-109,124,-14,-190,73,9,0,78,19
151,63,-87,-107,119,-12,-200,82,19,0,78,29
146,63,-82,-104,114,-9,-204,82,14,0,78,29
141,63,-78,-102,109,-7,-209,82,14,0,78,29
136,68,-68,-102,102,0,-209,92,14,4,78,29
136,78,-58,-107,97,9,-204,102,19,14,78,29
136,82,-53,-109,95,14,-209,102,19,14,73,29
146,82,-63,-114,104,9,-209,102,14,4,68,24
136,82,-53,-109,95,14,-209,102,14,4,68,24
126,78,-48,-102,87,14,-224,102,14,-4,68,24
131,78,-53,-104,92,12,-229,102,14,-4,68,24
131,73,-58,-102,95,7,-234,102,14,-4,68,24
131,68,-63,-100,97,2,-239,107,14,0,68,24
131,68,-63,-100,97,2,-244,107,4,-9,63,14
131,73,-58,-102,95,7,-244,107,4,-19,58,14
141,78,-63,-109,102,7,-258,107,-4,-19,53,14
146,78,-68,-112,107,4,-258,107,-9,-19,53,14
161,92,-68,-126,114,12,-273,97,-9,-24,53,4
165,97,-68,-131,117,14,-278,97,-9,-24,53,4
170,97,-73,-134,122,12,-283,97,-14,-24,48,4
170,97,-73,-134,122,12,-287,102,-14,-24,48,4
161,87,-73,-124,117,7,-283,112,-4,-14,53,14
151,92,-58,-122,104,17,-287,112,-4,-24,53,14
146,92,-53,-119,100,19,-292,112,-14,-24,53,14
136,97,-39,-117,87,29,-302,112,-14,-24,53,14
146,112,-34,-129,90,39,-312,112,-14,-24,39,24
146,117,-29,-131,87,43,-312,112,-14,-24,39,24
146,117,-29,-131,87,43,-317,112,-14,-24,39,24
146,126,-19,-136,82,53,-326,112,-19,-24,39,24
156,122,-34,-139,95,43,-331,112,-19,-24,48,29
161,126,-34,-143,97,46,-331,117,-24,-24,48,34
165,131,-34,-148,100,48,-331,117,-24,-24,48,34
175,136,-39,-156,107,48,-341,117,-19,-19,53,34
180,151,-29,-165,104,61,-336,107,-29,-19,53,39
180,156,-24,-168,102,65,-336,107,-34,-19,53,39
180,165,-14,-173,97,75,-341,107,-39,-19,53,43
180,175,-4,-178,92,85,-341,107,-43,-24,53,43
180,175,-4,-178,92,85,-346,107,-34,-24,53,53
175,175,0,-175,87,87,-346,107,-34,-24,53,53
175,165,-9,-170,92,78,-336,97,-39,-24,53,53
180,175,-4,-178,92,85,-336,97,-39,-19,58,58
180,175,-4,-178,92,85,-336,87,-43,-9,63,58
175,175,0,-175,87,87,-336,82,-48,-9,63,58
170,175,4,-173,82,90,-336,82,-48,-9,68,63
165,180,14,-173,75,97,-336,82,-48,-9,73,73
165,195,29,-180,68,112,-331,97,-48,-19,68,68
165,195,29,-180,68,112,-326,97,-43,-14,73,68
170,195,24,-183,73,109,-322,97,-43,-14,78,73
170,195,24,-183,73,109,-312,97,-39,0,82,73
175,200,24,-187,75,112,-307,112,-29,9,97,78
170,200,29,-185,70,114,-297,117,-19,9,102,82
175,200,24,-187,75,112,-283,122,-14,19,107,92
175,200,24,-187,75,112,-268,131,-9,24,107,102
161,195,34,-178,63,114,-263,141,-9,24,112,97
151,180,29,-165,61,104,-258,146,0,34,117,92
141,175,34,-158,53,104,-239,151,9,29,122,87
136,170,34,-153,51,102,-219,151,19,29,126,87
136,180,43,-158,46,112,-204,146,29,39,117,87
126,165,39,-146,43,102,-190,151,29,39,117,82
126,165,39,-146,43,102,-170,151,34,53,122,82
126,165,39,-146,43,102,-151,151,48,53,126,82
117,156,39,-136,39,97,-146,151,39,43,117,73
117,156,39,-136,39,97,-136,141,39,43,117,73
117,156,39,-136,39,97,-117,136,43,48,117,73
112,146,34,-129,39,90,-102,131,43,48,117,73
107,136,29,-122,39,82,-102,126,53,48,122,68
107,126,19,-117,43,73,-97,117,53,43,117,63
102,126,24,-114,39,75,-87,102,53,43,117,58
97,126,29,-112,34,78,-82,92,48,43,117,58
97,136,39,-117,29,87,-87,82,34,34,112,58
97,126,29,-112,34,78,-87,63,34,29,102,53
92,122,29,-107,31,75,-87,48,29,24,102,48
82,122,39,-102,21,80,-87,39,19,24,97,48
82,117,34,-100,24,75,-78,24,14,24,92,48
78,107,29,-92,24,68,-78,4,9,19,87,43
78,102,24,-90,26,63,-82,-9,4,9,87,43
82,97,14,-90,34,56,-82,-19,0,9,87,43
92,97,4,-95,43,51,-82,-24,4,4,82,53
87,87,0,-87,43,43,-87,-29,-4,0,78,43
87,92,4,-90,41,48,-92,-34,-9,-4,73,43
87,97,9,-92,39,53,-92,-39,-9,-9,73,43
87,97,9,-92,39,53,-87,-58,-14,-9,58,34
87,92,4,-90,41,48,-87,-63,-19,-9,58,34
82,92,9,-87,36,51,-87,-68,-24,-9,58,34
82,97,14,-90,34,56,-87,-73,-29,-14,58,24
82,97,14,-90,34,56,-92,-68,-34,-19,63,24
87,97,9,-92,39,53,-92,-73,-34,-19,63,24
87,97,9,-92,39,53,-92,-78,-39,-19,58,24
82,92,9,-87,36,51,-97,-78,-39,-24,53,24
82,92,9,-87,36,51,-97,-78,-29,-24,53,24
87,92,4,-90,41,48,-97,-78,-34,-24,53,24
87,87,0,-87,43,43,-97,-78,-34,-24,53,24
82,87,4,-85,39,46,-97,-87,-34,-19,53,24
73,82,9,-78,31,46,-102,-97,-43,-19,43,24
78,78,0,-78,39,39,-102,-97,-43,-19,39,19
78,73,-4,-75,41,34,-102,-102,-48,-24,39,19
78,68,-9,-73,43,29,-102,-102,-48,-29,39,19
73,82,9,-78,31,46,-97,-102,-43,-19,48,29
73,78,4,-75,34,41,-97,-97,-43,-19,48,29
73,82,9,-78,31,46,-92,-92,-39,-19,43,29
78,87,9,-82,34,48,-87,-87,-34,-19,39,29
78,87,9,-82,34,48,-97,-97,-43,-19,39,29
78,87,9,-82,34,48,-97,-92,-43,-19,39,34
78,87,9,-82,34,48,-97,-92,-39,-19,43,34
78,87,9,-82,34,48,-97,-92,-39,-19,48,34
82,87,4,-85,39,46,-97,-92,-39,-24,48,24
82,87,4,-85,39,46,-97,-92,-39,-24,48,24
87,87,0,-87,43,43,-97,-92,-39,-24,48,24
87,78,-9,-82,48,34,-97,-92,-39,-24,43,24
78,68,-9,-73,43,29,-97,-92,-48,-24,34,19
87,73,-14,-80,51,29,-92,-92,-48,-29,34,19
87,82,-4,-85,46,39,-92,-92,-48,-29,34,19
87,82,-4,-85,46,39,-92,-92,-53,-29,34,19
92,78,-14,-85,53,31,-92,-97,-43,-29,34,19
92,78,-14,-85,53,31,-92,-97,-43,-29,34,19
97,78,-19,-87,58,29,-92,-92,-43,-29,34,19
97,78,-19,-87,58,29,-92,-92,-43,-29,29,19
107,78,-29,-92,68,24,-87,-92,-39,-19,39,19
107,78,-29,-92,68,24,-87,-87,-39,-19,43,19
102,82,-19,-92,61,31,-87,-82,-34,-19,43,19
102,102,0,-102,51,51,-87,-78,-34,-19,43,19
97,87,-9,-92,53,39,-92,-87,-48,-29,29,9
92,82,-9,-87,51,36,-92,-87,-48,-29,29,9
87,78,-9,-82,48,34,-92,-87,-43,-29,29,9
82,73,-9,-78,46,31,-92,-82,-34,-29,29,9
73,63,-9,-68,41,26,-82,-82,-34,-19,29,19
78,63,-14,-70,46,24,-82,-82,-39,-19,29,19
78,63,-14,-70,46,24,-82,-82,-43,-19,29,19
73,58,-14,-65,43,21,-82,-87,-43,-19,29,14
73,58,-14,-65,43,21,-92,-97,-43,-29,19,24
73,63,-9,-68,41,26,-92,-97,-43,-29,19,24
73,63,-9,-68,41,26,-92,-92,-43,-29,19,24
73,63,-9,-68,41,26,-92,-92,-43,-29,19,24
82,68,-14,-75,48,26,-87,-82,-43,-29,14,14
82,68,-14,-75,48,26,-87,-82,-43,-29,14,14
82,68,-14,-75,48,26,-87,-82,-43,-29,14,19
82,63,-19,-73,51,21,-87,-92,-48,-29,14,19
68,58,-9,-63,39,24,-87,-82,-39,-19,14,19
68,58,-9,-63,39,24,-87,-82,-39,-19,14,19
68,53,-14,-61,41,19,-82,-82,-34,-19,14,19
68,48,-19,-58,43,14,-82,-82,-34,-24,14,19
73,48,-24,-61,48,12,-87,-82,-53,-24,14,19
73,53,-19,-63,46,17,-92,-87,-53,-24,14,14
78,58,-19,-68,48,19,-92,-87,-48,-19,14,14
78,63,-14,-70,46,24,-92,-92,-48,-19,9,14
78,53,-24,-65,51,14,-92,-92,-53,-34,9,14
78,53,-24,-65,51,14,-97,-92,-53,-34,14,14
78,53,-24,-65,51,14,-97,-87,-58,-34,14,14
87,53,-34,-70,61,9,-97,-87,-58,-34,14,14
78,53,-24,-65,51,14,-97,-97,-48,-29,4,9
73,48,-24,-61,48,12,-97,-107,-53,-29,4,9
73,48,-24,-61,48,12,-97,-107,-53,-29,4,9
73,53,-19,-63,46,17,-102,-107,-53,-29,4,14
73,63,-9,-68,41,26,-102,-107,-53,-29,14,14
78,63,-14,-70,46,24,-102,-107,-53,-29,14,14
78,63,-14,-70,46,24,-102,-107,-53,-29,14,9
73,63,-9,-68,41,26,-102,-107,-53,-29,14,9
68,53,-14,-61,41,19,-102,-117,-58,-24,14,14
68,53,-14,-61,41,19,-102,-112,-58,-24,14,14
78,53,-24,-65,51,14,-102,-112,-58,-24,14,14
68,53,-14,-61,41,19,-107,-117,-63,-24,14,9
68,53,-14,-61,41,19,-107,-107,-53,-29,24,19
73,53,-19,-63,46,17,-102,-107,-53,-29,29,19
73,53,-19,-63,46,17,-102,-112,-53,-29,29,19
73,48,-24,-61,48,12,-107,-112,-58,-29,29,19
73,48,-24,-61,48,12,-107,-112,-68,-29,14,9
73,48,-24,-61,48,12,-107,-107,-68,-24,14,4
73,48,-24,-61,48,12,-112,-107,-68,-24,14,4
68,48,-19,-58,43,14,-112,-107,-68,-24,14,4
68,48,-19,-58,43,14,-112,-97,-53,-24,9,9
73,58,-14,-65,43,21,-112,-97,-53,-24,14,9
73,58,-14,-65,43,21,-112,-92,-58,-24,14,9
78,53,-24,-65,51,14,-112,-92,-58,-19,14,9
87,63,-24,-75,56,19,-112,-102,-58,-19,14,9
78,68,-9,-73,43,29,-107,-97,-48,-19,14,9
87,68,-19,-78,53,24,-102,-92,-48,-19,14,9
87,68,-19,-78,53,24,-102,-92,-43,-19,9,9
82,53,-29,-68,56,12,-107,-92,-43,-19,9,9
73,53,-19,-63,46,17,-112,-92,-43,-19,9,9
87,68,-19,-78,53,24,-112,-92,-48,-19,9,14
87,68,-19,-78,53,24,-107,-92,-48,-14,14,14
78,53,-24,-65,51,14,-112,-87,-53,-14,4,4
78,53,-24,-65,51,14,-117,-92,-53,-14,4,4
78,53,-24,-65,51,14,-117,-92,-58,-19,4,9
82,63,-19,-73,51,21,-117,-97,-63,-19,14,14
92,78,-14,-85,53,31,-107,-92,-43,-9,24,29
87,78,-9,-82,48,34,-107,-82,-39,-4,24,29
87,73,-14,-80,51,29,-107,-78,-34,0,29,29
82,73,-9,-78,46,31,-102,-68,-29,0,34,29
102,92,-9,-97,56,41,-82,-58,-19,0,48,29
102,92,-9,-97,56,41,-73,-53,-14,4,48,34
92,92,0,-92,46,46,-73,-39,-4,9,53,39
102,92,-9,-97,56,41,-73,-39,0,14,58,43
102,102,0,-102,51,51,-53,-34,9,19,58,48
112,92,-19,-102,65,36,-53,-29,14,29,68,48
122,92,-29,-107,75,31,-53,-24,19,34,73,48
126,92,-34,-109,80,29,-48,-9,24,34,73,58
136,107,-29,-122,82,39,-48,0,19,34,78,63
141,107,-34,-124,87,36,-43,4,29,43,87,63
146,112,-34,-129,90,39,-43,9,34,43,87,73
151,112,-39,-131,95,36,-48,19,39,43,87,73
151,117,-34,-134,92,41,-43,24,43,58,97,82
161,122,-39,-141,100,41,-43,29,48,58,97,82
161,122,-39,-141,100,41,-43,34,63,63,102,82
161,126,-34,-143,97,46,-39,34,68,68,102,82
165,126,-39,-146,102,43,-29,48,73,68,112,82
170,126,-43,-148,107,41,-29,39,68,58,112,82
175,112,-63,-143,119,24,-24,39,73,58,102,78
190,112,-78,-151,134,17,-29,43,68,53,102,78
200,107,-92,-153,146,7,-43,48,78,53,92,78
204,102,-102,-153,153,0,-63,19,53,43,82,68
204,102,-102,-153,153,0,-87,9,39,34,78,68
204,97,-107,-151,156,-4,-102,0,34,34,78,68
204,107,-97,-156,151,4,-122,-24,24,24,87,82
200,107,-92,-153,146,7,-126,-43,9,19,78,82
200,107,-92,-153,146,7,-131,-43,9,19,78,87
200,107,-92,-153,146,7,-136,-58,-4,9,78,92
190,102,-87,-146,139,7,-146,-73,-14,-4,58,82
185,102,-82,-143,134,9,-161,-92,-29,-9,48,78
180,97,-82,-139,131,7,-170,-107,-43,-24,43,58
180,97,-82,-139,131,7,-180,-122,-53,-14,43,68
180,112,-68,-146,124,21,-156,-122,-53,-14,34,58
180,112,-68,-146,124,21,-156,-117,-53,-14,34,58
180,107,-73,-143,126,17,-156,-117,-48,-14,43,63
180,107,-73,-143,126,17,-146,-117,-43,0,53,73
200,136,-63,-168,131,36,-156,-102,-39,0,63,82
209,136,-73,-173,141,31,-146,-102,-29,4,68,87
239,146,-92,-192,165,26,-131,-73,-4,24,82,97
224,136,-87,-180,156,24,-131,-63,4,34,97,102
195,107,-87,-151,141,9,-136,-68,0,19,87,97
185,97,-87,-141,136,4,-126,-73,-4,9,78,97
185,97,-87,-141,136,4,-126,-78,-9,9,78,97
185,97,-87,-141,136,4,-126,-82,-14,9,78,97
185,97,-87,-141,136,4,-126,-87,-19,9,78,97
161,107,-53,-134,107,26,-126,-107,-39,-9,63,73
156,107,-48,-131,102,29,-126,-117,-43,-14,58,73
146,107,-39,-126,92,34,-126,-122,-53,-19,48,68
126,97,-29,-112,78,34,-126,-136,-63,-24,34,63
112,92,-19,-102,65,36,-112,-131,-53,-24,34,48
112,107,-4,-109,58,51,-97,-117,-53,-14,34,48
112,112,0,-112,56,56,-92,-112,-48,-14,34,48
92,102,9,-97,41,56,-87,-107,-48,-14,29,43
68,82,14,-75,26,48,-78,-117,-68,-34,24,24
53,58,4,-56,24,31,-78,-122,-68,-39,9,9
53,53,0,-53,26,26,-68,-122,-68,-43,4,0
53,48,-4,-51,29,21,-68,-126,-78,-48,4,0
53,48,-4,-51,29,21,-82,-146,-92,-48,9,4
53,48,-4,-51,29,21,-92,-146,-97,-48,4,4
53,39,-14,-46,34,12,-97,-141,-97,-48,0,4
53,39,-14,-46,34,12,-102,-141,-102,-53,-4,-4
39,48,9,-43,14,29,-102,-141,-92,-53,-14,-4
39,48,9,-43,14,29,-102,-146,-92,-53,-9,-4
39,53,14,-46,12,34,-102,-146,-87,-48,-9,-4
39,53,14,-46,12,34,-102,-146,-87,-48,-9,0
48,43,-4,-46,26,19,-102,-136,-97,-58,-19,0
48,43,-4,-46,26,19,-102,-136,-97,-58,-19,0
53,39,-14,-46,34,12,-102,-136,-97,-58,-19,-4
63,39,-24,-51,43,7,-97,-136,-97,-58,-19,-4
53,53,0,-53,26,26,-82,-131,-87,-48,-9,0
53,53,0,-53,26,26,-82,-131,-87,-48,-9,0
58,53,-4,-56,31,24,-82,-131,-82,-43,-9,0
58,53,-4,-56,31,24,-82,-131,-82,-43,-9,0
53,48,-4,-51,29,21,-82,-131,-82,-43,-4,0
48,48,0,-48,24,24,-82,-131,-82,-43,-4,0
43,43,0,-43,21,21,-82,-131,-82,-39,-4,0
39,34,-4,-36,21,14,-82,-126,-82,-39,-4,0
39,34,-4,-36,21,14,-68,-117,-73,-29,-4,0
34,34,0,-34,17,17,-68,-117,-73,-29,-4,0
34,34,0,-34,17,17,-68,-117,-73,-24,0,0
34,39,4,-36,14,21,-68,-117,-68,-24,0,4
43,48,4,-46,19,26,-68,-126,-78,-24,0,14
43,48,4,-46,19,26,-68,-126,-78,-24,0,14
43,48,4,-46,19,26,-68,-126,-78,-24,0,14
43,48,4,-46,19,26,-68,-126,-78,-24,-4,9
34,48,14,-41,9,31,-78,-126,-87,-34,-4,9
43,48,4,-46,19,26,-78,-131,-78,-34,-4,9
24,39,14,-31,4,26,-78,-131,-73,-24,-4,9
34,39,4,-36,14,21,-68,-131,-73,-24,-4,0
24,34,9,-29,7,21,-63,-136,-87,-34,-19,0
19,24,4,-21,7,14,-63,-141,-102,-43,-29,0
24,39,14,-31,4,26,-53,-156,-112,-48,-34,-4
29,58,29,-43,0,43,-53,-175,-122,-58,-39,-9
14,48,34,-31,-9,41,-63,-185,-122,-48,-39,-9
-4,48,53,-21,-29,51,-82,-234,-146,-48,-34,-9
-14,53,68,-19,-41,61,-97,-302,-190,-87,-48,-9
-4,73,78,-34,-41,75,-117,-375,-234,-97,-53,0
-14,78,92,-31,-53,85,-146,-458,-287,-112,-58,0
-14,68,82,-26,-48,75,-190,-561,-356,-156,-78,4
-9,68,78,-29,-43,73,-234,-639,-429,-180,-87,4
-9,63,73,-26,-41,68,-268,-712,-502,-209,-107,-9
-14,34,48,-9,-31,41,-307,-775,-556,-239,-122,-9
14,34,19,-24,-2,26,-336,-819,-590,-253,-122,0
39,19,-19,-29,29,0,-361,-858,-629,-287,-136,-9
58,9,-48,-34,53,-19,-385,-897,-678,-322,-165,-19
63,9,-53,-36,58,-21,-405,-922,-717,-351,-200,-29
48,9,-39,-29,43,-14,-419,-932,-741,-361,-204,-14
58,53,-4,-56,31,24,-419,-907,-717,-326,-185,14
97,102,4,-100,46,53,-409,-854,-678,-283,-146,68
112,126,14,-119,48,70,-400,-800,-649,-273,-136,87
126,161,34,-143,46,97,-375,-717,-614,-253,-126,112
151,200,48,-175,51,124,-331,-610,-551,-219,-102,146
151,219,68,-185,41,143,-302,-512,-497,-200,-102,165
151,273,122,-212,14,197,-248,-453,-453,-180,-102,180
170,356,185,-263,-7,270,-180,-424,-380,-146,-82,224
165,468,302,-317,-68,385,-136,-380,-312,-78,-29,283
126,536,409,-331,-141,473,-131,-346,-248,-29,-9,317
78,512,434,-295,-178,473,-102,-263,-161,-9,-34,307
117,463,346,-290,-114,405,-24,-112,-24,9,-87,234
156,405,248,-280,-46,326,68,92,136,53,-126,165
141,307,165,-224,-12,236,146,317,312,102,-126,141
141,239,97,-190,21,168,239,556,453,136,-107,141
151,204,53,-178,48,129,307,727,541,146,-97,126
136,161,24,-148,56,92,375,849,629,175,-82,107
117,122,4,-119,56,63,453,976,761,234,-68,87
78,82,4,-80,36,43,531,1073,873,273,-78,48
14,19,4,-17,4,12,585,1112,956,317,-53,4
-29,-14,14,21,-21,0,634,1107,995,346,-29,-14
-48,-39,9,43,-29,-14,668,1146,1029,341,-19,-43
-82,-63,19,73,-51,-21,756,1259,1146,400,4,-73
-122,-68,53,95,-87,-7,858,1376,1346,522,63,-87
-161,-102,58,131,-109,-21,932,1439,1483,585,87,-117
-185,-141,43,163,-114,-48,1049,1537,1576,600,68,-175
-190,-146,43,168,-117,-51,1166,1654,1668,619,68,-200
-214,-156,58,185,-136,-48,1263,1712,1781,663,73,-209
-248,-151,97,200,-173,-26,1351,1722,1859,688,97,-195
-278,-161,117,219,-197,-21,1429,1659,1878,688,107,-195
-312,-180,131,246,-222,-24,1503,1478,1830,644,82,-200
-326,-175,151,251,-239,-12,1581,1210,1600,512,0,-234
-336,-190,146,263,-241,-21,1688,893,1190,292,-146,-297
-385,-239,146,312,-265,-46,1805,619,780,73,-297,-380
-409,-239,170,324,-290,-34,1912,409,492,-73,-390,-414
-419,-234,185,326,-302,-24,1986,229,268,-170,-429,-434
-434,-244,190,339,-312,-26,2030,58,24,-273,-468,-439
-458,-263,195,361,-326,-34,2113,-73,-195,-370,-507,-453
-468,-273,195,370,-331,-39,2191,-122,-268,-414,-546,-473
-458,-258,200,358,-329,-29,2244,-112,-244,-395,-556,-483
-444,-248,195,346,-319,-26,2205,-92,-219,-375,-536,-473
-429,-244,185,336,-307,-29,2074,-117,-244,-361,-492,-429
-380,-219,161,300,-270,-29,1908,-165,-253,-331,-434,-380
-331,-204,126,268,-229,-39,1766,-219,-278,-307,-380,-341
-283,-175,107,229,-195,-34,1605,-209,-278,-268,-326,-297
-200,-117,82,158,-141,-17,1381,-151,-239,-229,-268,-244
-165,-82,82,124,-124,0,1117,-73,-170,-175,-214,-195
-136,-82,53,109,-95,-14,888,-9,-122,-141,-180,-156
-97,-63,34,80,-65,-14,688,4,-87,-117,-146,-122
-73,-63,9,68,-41,-26,468,-4,-63,-87,-107,-97
-34,-43,-9,39,-12,-26,283,4,-34,-53,-63,-68
14,-9,-24,-2,19,-17,200,39,-4,-19,-24,-34
19,-14,-34,-2,26,-24,165,58,14,0,-9,-29
29,-19,-48,-4,39,-34,131,78,19,9,9,-9
48,9,-39,-29,43,-14,102,78,24,14,19,-9
58,29,-29,-43,43,0,78,87,29,9,19,0
68,34,-34,-51,51,0,58,87,39,19,29,9
39,14,-24,-26,31,-4,34,87,34,9,29,9
14,-9,-24,-2,19,-17,29,73,24,9,39,9
43,0,-43,-21,43,-21,29,78,39,29,48,29
97,24,-73,-61,85,-24,9,78,39,29,58,29
102,34,-68,-68,85,-17,-4,82,34,29,58,19
102,34,-68,-68,85,-17,-29,82,34,29,48,24
97,39,-58,-68,78,-9,-48,82,39,19,48,24
97,43,-53,-70,75,-4,-58,87,48,29,48,34
92,43,-48,-68,70,-2,-63,87,48,29,53,39
87,43,-43,-65,65,0,-68,87,48,29,53,39
92,34,-58,-63,75,-12,-63,82,43,29,63,39
102,34,-68,-68,85,-17,-68,82,43,24,63,39
102,34,-68,-68,85,-17,-73,87,43,24,63,43
102,34,-68,-68,85,-17,-78,87,43,24,68,43
102,34,-68,-68,85,-17,-97,78,34,24,58,43
102,34,-68,-68,85,-17,-107,82,39,24,58,43
102,48,-53,-75,78,-2,-112,87,39,24,63,43
112,48,-63,-80,87,-7,-122,87,39,24,63,48
112,53,-58,-82,85,-2,-112,92,48,19,63,48
112,43,-68,-78,90,-12,-117,92,43,14,63,48
117,43,-73,-80,95,-14,-117,97,43,14,58,48
117,48,-68,-82,92,-9,-122,97,43,19,58,48
117,39,-78,-78,97,-19,-136,97,34,14,58,48
117,39,-78,-78,97,-19,-136,102,34,9,58,48
126,43,-82,-85,104,-19,-136,102,39,4,58,48
126,43,-82,-85,104,-19,-141,102,39,0,58,48
122,39,-82,-80,102,-21,-136,102,34,4,48,43
117,39,-78,-78,97,-19,-141,107,34,4,58,43
112,39,-73,-75,92,-17,-141,107,34,4,58,43
107,39,-68,-73,87,-14,-141,112,34,4,53,43
107,39,-68,-73,87,-14,-131,112,43,14,63,43
107,39,-68,-73,87,-14,-131,117,48,19,63,43
112,39,-73,-75,92,-17,-141,117,48,19,63,43
112,39,-73,-75,92,-17,-141,117,48,14,63,43
122,39,-82,-80,102,-21,-156,117,48,14,48,29
122,39,-82,-80,102,-21,-161,112,48,9,48,29
126,39,-87,-82,107,-24,-161,112,48,9,48,29
126,34,-92,-80,109,-29,-161,112,48,9,48,29
117,34,-82,-75,100,-24,-161,122,48,9,39,39
117,34,-82,-75,100,-24,-165,122,43,9,39,39
117,34,-82,-75,100,-24,-170,122,43,9,39,39
117,39,-78,-78,97,-19,-170,131,43,14,39,39
117,39,-78,-78,97,-19,-170,131,48,14,48,29
117,43,-73,-80,95,-14,-180,131,48,14,43,29
126,43,-82,-85,104,-19,-185,131,43,4,39,24
117,43,-73,-80,95,-14,-190,131,43,4,39,24
126,53,-73,-90,100,-9,-195,122,34,-4,39,24
131,58,-73,-95,102,-7,-200,122,34,-4,39,24
131,58,-73,-95,102,-7,-204,122,34,-4,39,24
131,58,-73,-95,102,-7,-209,126,34,0,39,24
126,48,-78,-87,102,-14,-214,126,34,0,34,34
122,53,-68,-87,95,-7,-214,126,34,-9,29,34
126,58,-68,-92,97,-4,-229,126,24,-9,24,34
126,58,-68,-92,97,-4,-229,126,19,-9,24,34
131,73,-58,-102,95,7,-244,126,19,-14,14,34
136,78,-58,-107,97,9,-248,126,19,-14,14,34
141,78,-63,-109,102,7,-253,126,14,-14,9,34
141,78,-63,-109,102,7,-258,131,14,-14,9,34
131,78,-53,-104,92,12,-258,141,24,-9,24,43
131,82,-48,-107,90,17,-258,141,24,-14,24,43
136,82,-53,-109,95,14,-258,141,14,-9,24,43
136,87,-48,-112,92,19,-263,141,14,-4,24,43
136,92,-43,-114,90,24,-283,141,4,-9,19,34
136,97,-39,-117,87,29,-283,141,4,-14,19,34
136,97,-39,-117,87,29,-287,141,4,-19,19,34
136,107,-29,-122,82,39,-297,141,0,-24,19,34
151,112,-39,-131,95,36,-302,141,9,-14,29,48
151,117,-34,-134,92,41,-302,146,4,-14,29,53
151,122,-29,-136,90,46,-302,146,4,-14,29,53
156,126,-29,-141,92,48,-312,146,9,-9,34,53
161,126,-34,-143,97,46,-317,136,0,-14,29,48
161,126,-34,-143,97,46,-317,136,-4,-19,24,48
161,131,-29,-146,95,51,-322,136,-9,-24,19,53
161,136,-24,-148,92,56,-322,136,-14,-34,14,53
170,141,-29,-156,100,56,-326,136,-14,-24,24,53
165,146,-19,-156,92,63,-326,136,-14,-24,24,53
165,141,-24,-153,95,58,-317,126,-19,-24,24,53
170,156,-14,-163,92,70,-317,126,-19,-19,29,58
165,146,-19,-156,92,63,-326,126,-24,-9,34,68
165,146,-19,-156,92,63,-326,122,-29,-9,34,68
165,146,-19,-156,92,63,-326,122,-29,-9,39,73
165,151,-14,-158,90,68,-326,122,-29,-9,43,82
156,146,-9,-151,82,68,-317,131,-24,0,58,97
156,146,-9,-151,82,68,-307,136,-14,4,63,97
161,146,-14,-153,87,65,-297,141,-9,4,68,102
161,146,-14,-153,87,65,-283,146,0,19,73,102
170,151,-19,-161,95,65,-287,151,-9,9,68,92
161,151,-9,-156,85,70,-278,156,0,9,73,92
161,151,-9,-156,85,70,-263,161,4,19,78,97
156,151,-4,-153,80,73,-248,170,9,24,78,102
146,141,-4,-143,75,68,-224,180,19,29,82,112
141,131,-9,-136,75,61,-219,185,29,43,87,112
136,131,-4,-134,70,63,-200,190,39,43,92,112
136,131,-4,-134,70,63,-180,190,48,48,97,117
126,141,14,-134,56,78,-165,200,68,58,107,126
117,126,9,-122,53,68,-151,209,68,58,107,122
117,126,9,-122,53,68,-131,214,73,73,112,122
117,126,9,-122,53,68,-112,219,87,73,117,122
112,126,14,-119,48,70,-97,219,87,82,117,112
117,126,9,-122,53,68,-87,209,87,82,117,112
122,126,4,-124,58,65,-68,204,92,87,117,112
122,117,-4,-119,63,56,-53,200,92,87,117,112
107,107,0,-107,53,53,-53,175,92,82,112,107
107,97,-9,-102,58,43,-48,165,92,73,107,102
102,97,-4,-100,53,46,-39,151,92,68,107,97
97,97,0,-97,48,48,-34,141,87,63,107,97
87,87,0,-87,43,43,-29,131,73,53,92,78
87,78,-9,-82,48,34,-29,112,73,48,82,73
82,73,-9,-78,46,31,-29,97,68,43,82,68
73,73,0,-73,36,36,-29,87,58,43,78,68
63,78,14,-70,24,46,-19,92,58,53,82,78
58,78,19,-68,19,48,-19,73,58,48,78,73
58,82,24,-70,17,53,-24,58,58,39,78,73
63,87,24,-75,19,56,-24,48,58,39,78,73
53,78,24,-65,14,51,-34,29,43,34,73,73
48,58,9,-53,19,34,-39,19,34,29,68,63
48,53,4,-51,21,29,-43,9,29,24,63,63
48,48,0,-48,24,24,-43,0,29,19,63,63
63,53,-9,-58,36,21,-48,0,24,9,48,63
68,53,-14,-61,41,19,-48,-4,19,9,48,63
68,58,-9,-63,39,24,-48,-9,14,9,48,63
73,68,-4,-70,39,31,-48,-14,9,4,48,53
68,58,-9,-63,39,24,-43,-19,14,9,53,63
68,58,-9,-63,39,24,-43,-24,14,9,53,63
63,58,-4,-61,34,26,-43,-29,9,9,48,63
53,53,0,-53,26,26,-48,-29,9,4,43,63
63,63,0,-63,31,31,-48,-39,0,-4,34,53
68,63,-4,-65,36,29,-48,-39,-4,-4,34,53
68,58,-9,-63,39,24,-48,-39,-4,-4,34,53
63,58,-4,-61,34,26,-48,-48,-4,0,34,53
53,48,-4,-51,29,21,-43,-39,-4,9,43,53
58,48,-9,-53,34,19,-43,-39,-4,9,39,48
58,48,-9,-53,34,19,-43,-43,-9,4,39,48
58,48,-9,-53,34,19,-43,-43,-9,0,39,48
63,48,-14,-56,39,17,-53,-58,-19,-9,29,39
63,39,-24,-51,43,7,-58,-58,-24,-9,29,39
63,39,-24,-51,43,7,-58,-58,-24,-9,24,39
68,39,-29,-53,48,4,-58,-58,-24,-9,19,39
63,48,-14,-56,39,17,-53,-48,-14,-4,24,43
58,48,-9,-53,34,19,-48,-43,-14,0,29,53
53,48,-4,-51,29,21,-43,-43,-9,4,39,58
48,48,0,-48,24,24,-39,-43,-9,9,48,63
48,48,0,-48,24,24,-48,-53,-19,0,43,58
53,48,-4,-51,29,21,-48,-53,-19,-4,39,53
63,48,-14,-56,39,17,-48,-53,-19,-9,34,48
68,39,-29,-53,48,4,-48,-53,-19,-14,24,43
53,29,-24,-41,39,2,-48,-53,-9,-9,29,43
58,34,-24,-46,41,4,-43,-53,-9,-9,34,48
53,43,-9,-48,31,17,-43,-53,-9,-4,39,53
48,43,-4,-46,26,19,-43,-53,-14,0,43,58
48,48,0,-48,24,24,-43,-58,-14,0,34,48
53,48,-4,-51,29,21,-43,-58,-14,0,34,48
63,48,-14,-56,39,17,-43,-53,-14,0,34,48
68,48,-19,-58,43,14,-43,-53,-14,0,29,48
68,43,-24,-56,46,9,-48,-48,-9,0,39,48
68,39,-29,-53,48,4,-48,-48,-9,0,43,48
63,39,-24,-51,43,7,-48,-48,-4,0,43,48
63,53,-9,-58,36,21,-48,-48,-4,0,43,48
63,53,-9,-58,36,21,-43,-58,-19,0,39,48
63,53,-9,-58,36,21,-43,-58,-19,0,39,48
63,53,-9,-58,36,21,-43,-58,-14,0,39,48
63,53,-9,-58,36,21,-43,-53,-4,0,39,48
58,48,-9,-53,34,19,-43,-53,-4,0,39,48
58,43,-14,-51,36,14,-43,-53,-9,0,39,48
53,39,-14,-46,34,12,-43,-53,-14,0,39,48
43,29,-14,-36,29,7,-43,-58,-14,0,39,43
58,34,-24,-46,41,4,-43,-48,-14,9,39,53
63,43,-19,-53,41,12,-43,-48,-14,9,39,53
68,48,-19,-58,43,14,-43,-43,-14,9,39,53
73,53,-19,-63,46,17,-43,-43,-14,9,39,53
68,39,-29,-53,48,4,-48,-48,-14,0,34,43
63,39,-24,-51,43,7,-48,-53,-14,0,34,43
58,39,-19,-48,39,9,-48,-58,-14,0,34,48
53,34,-19,-43,36,7,-48,-73,-19,0,34,48
58,24,-34,-41,46,-4,-58,-63,-29,-9,24,39
58,29,-29,-43,43,0,-58,-63,-29,-9,24,39
58,29,-29,-43,43,0,-53,-63,-24,-9,24,39
58,29,-29,-43,43,0,-53,-63,-24,-14,24,39
48,24,-24,-36,36,0,-48,-63,-24,-4,24,48
43,24,-19,-34,31,2,-53,-68,-24,-4,24,43
43,24,-19,-34,31,2,-53,-68,-19,0,24,43
39,24,-14,-31,26,4,-53,-73,-19,0,19,43
43,29,-14,-36,29,7,-43,-63,-14,4,24,53
48,34,-14,-41,31,9,-48,-63,-14,4,34,53
53,39,-14,-46,34,12,-48,-58,-19,4,39,53
68,43,-24,-56,46,9,-48,-58,-19,4,43,53
58,34,-24,-46,41,4,-58,-63,-29,-4,39,39
53,29,-24,-41,39,2,-58,-78,-34,-9,34,39
53,29,-24,-41,39,2,-58,-82,-34,-14,29,39
53,34,-19,-43,36,7,-63,-87,-34,-19,24,43
63,34,-29,-48,46,2,-63,-87,-34,-9,24,34
68,34,-34,-51,51,0,-63,-87,-34,-9,24,34
68,34,-34,-51,51,0,-63,-87,-34,-9,24,29
63,34,-29,-48,46,2,-63,-87,-34,-9,24,29
48,34,-14,-41,31,9,-53,-78,-29,-4,34,43
48,34,-14,-41,31,9,-53,-73,-29,-4,34,43
58,34,-24,-46,41,4,-53,-73,-29,-4,34,43
48,34,-14,-41,31,9,-58,-78,-34,-4,34,39
39,24,-14,-31,26,4,-68,-78,-34,-9,34,39
43,24,-19,-34,31,2,-63,-78,-34,-9,39,39
43,24,-19,-34,31,2,-63,-82,-34,-9,39,39
43,19,-24,-31,34,-2,-68,-82,-39,-9,39,39
53,29,-24,-41,39,2,-68,-82,-48,-9,34,39
53,29,-24,-41,39,2,-68,-78,-48,-4,34,34
53,29,-24,-41,39,2,-73,-78,-48,-4,34,34
48,29,-19,-39,34,4,-73,-78,-48,-4,34,34
48,29,-19,-39,34,4,-73,-78,-34,-14,29,39
53,39,-14,-46,34,12,-73,-78,-34,-14,34,39
53,39,-14,-46,34,12,-73,-73,-39,-14,34,39
58,34,-24,-46,41,4,-73,-73,-39,-9,34,39
58,24,-34,-41,46,-4,-73,-73,-48,0,34,39
48,29,-19,-39,34,4,-68,-68,-39,0,34,39
58,29,-29,-43,43,0,-63,-63,-39,0,34,39
58,29,-29,-43,43,0,-63,-63,-34,0,29,39
63,29,-34,-46,48,-2,-68,-53,-24,-9,39,48
53,34,-19,-43,36,7,-73,-53,-24,-9,39,48
68,53,-14,-61,41,19,-73,-53,-29,-9,39,53
68,58,-9,-63,39,24,-68,-53,-29,-4,43,53
68,43,-24,-56,46,9,-68,-53,-29,0,43,43
68,43,-24,-56,46,9,-68,-53,-24,4,43,43
68,43,-24,-56,46,9,-63,-48,-24,4,43,48
73,53,-19,-63,46,17,-58,-48,-24,9,53,53
82,58,-24,-70,53,17,-48,-43,-4,19,53,58
78,58,-19,-68,48,19,-48,-34,0,24,53,58
78,53,-24,-65,51,14,-48,-29,4,29,58,58
73,53,-19,-63,46,17,-43,-19,9,29,63,58
92,73,-19,-82,56,26,-29,-4,29,39,87,68
92,73,-19,-82,56,26,-14,4,34,43,87,73
82,73,-9,-78,46,31,-9,24,43,48,92,78
92,73,-19,-82,56,26,-4,29,48,53,97,82
92,82,-9,-87,51,36,0,39,48,48,102,87
102,73,-29,-87,65,21,-4,39,53,58,107,87
112,73,-39,-92,75,17,-9,39,58,63,107,87
117,73,-43,-95,80,14,-9,48,63,63,102,97
117,78,-39,-97,78,19,0,48,68,63,117,102
122,78,-43,-100,82,17,4,53,78,73,126,102
126,82,-43,-104,85,19,4,58,82,73,126,112
131,82,-48,-107,90,17,0,68,87,73,126,112
131,78,-53,-104,92,12,0,78,87,82,126,112
141,82,-58,-112,100,12,-4,78,87,78,126,112
141,82,-58,-112,100,12,-9,78,97,78,131,112
141,87,-53,-114,97,17,-9,73,97,78,131,112
146,78,-68,-112,107,4,-24,73,97,78,131,112
151,78,-73,-114,112,2,-29,58,87,68,131,112
156,63,-92,-109,124,-14,-29,53,87,68,122,107
170,63,-107,-117,139,-21,-39,53,78,63,122,107
165,68,-97,-117,131,-14,-68,29,73,43,112,117
165,73,-92,-119,129,-9,-92,-9,43,34,102,107
161,82,-78,-122,119,2,-122,-29,24,24,97,107
156,87,-68,-122,112,9,-141,-48,14,24,97,107
165,92,-73,-129,119,9,-156,-73,-4,4,87,97
161,97,-63,-129,112,17,-156,-92,-19,0,78,92
161,102,-58,-131,109,21,-156,-92,-19,0,78,92
161,107,-53,-134,107,26,-156,-107,-34,-9,78,92
175,102,-73,-139,124,14,-151,-97,-34,-9,73,87
175,102,-73,-139,124,14,-151,-102,-39,-9,68,87
175,97,-78,-136,126,9,-146,-102,-43,-19,68,73
180,97,-82,-139,131,7,-141,-102,-43,-4,73,87
161,92,-68,-126,114,12,-126,-92,-34,-4,73,97
141,73,-68,-107,104,2,-126,-78,-24,14,92,97
161,87,-73,-124,117,7,-117,-58,9,34,112,112
180,97,-82,-139,131,7,-107,-48,24,39,112,122
175,97,-78,-136,126,9,-107,-39,29,48,126,136
165,87,-78,-126,122,4,-107,-43,24,39,117,126
165,87,-78,-126,122,4,-107,-48,19,39,117,126
165,87,-78,-126,122,4,-107,-53,14,39,117,126
165,87,-78,-126,122,4,-107,-58,9,39,117,126
146,87,-58,-117,102,14,-107,-73,-4,24,102,102
136,87,-48,-112,92,19,-107,-87,-14,14,97,102
122,87,-34,-104,78,26,-107,-97,-29,4,87,97
97,78,-19,-87,58,29,-107,-117,-43,-4,73,92
73,58,-14,-65,43,21,-102,-117,-43,-24,63,68
73,68,-4,-70,39,31,-87,-107,-43,-14,63,68
73,68,-4,-70,39,31,-82,-107,-39,-14,63,68
53,53,0,-53,26,26,-78,-107,-39,-14,58,63
34,48,14,-41,9,31,-78,-107,-58,-24,53,53
24,29,4,-26,9,17,-78,-112,-58,-29,39,39
29,29,0,-29,14,14,-68,-112,-58,-34,34,29
34,29,-4,-31,19,12,-68,-117,-68,-39,34,29
24,19,-4,-21,14,7,-68,-126,-73,-39,29,24
24,19,-4,-21,14,7,-73,-126,-78,-39,24,24
24,9,-14,-17,19,-2,-73,-122,-78,-39,19,24
24,9,-14,-17,19,-2,-73,-122,-82,-43,14,14
19,9,-9,-14,14,0,-73,-112,-82,-43,14,14
19,9,-9,-14,14,0,-73,-117,-82,-43,19,14
19,14,-4,-17,12,4,-73,-117,-78,-39,19,14
19,14,-4,-17,12,4,-73,-117,-78,-39,19,19
9,9,0,-9,4,4,-82,-126,-78,-39,19,19
0,4,4,-2,-2,4,-82,-126,-78,-39,19,19
-4,-4,0,4,-2,-2,-82,-126,-78,-39,19,14
-4,-9,-4,7,0,-7,-78,-126,-78,-39,19,14
9,0,-9,-4,9,-4,-73,-122,-78,-29,19,9
14,4,-9,-9,12,-2,-73,-122,-78,-29,19,9
24,9,-14,-17,19,-2,-73,-122,-73,-24,19,9
29,14,-14,-21,21,0,-73,-122,-73,-24,19,9
19,14,-4,-17,12,4,-63,-122,-73,-24,34,19
19,19,0,-19,9,9,-63,-122,-73,-24,34,19
19,19,0,-19,9,9,-63,-122,-73,-19,34,19
19,14,-4,-17,12,4,-63,-117,-73,-19,34,19
9,14,4,-12,2,9,-58,-107,-63,-19,24,9
4,14,9,-9,-2,12,-58,-107,-63,-19,24,9
4,14,9,-9,-2,12,-58,-107,-63,-14,29,9
4,19,14,-12,-4,17,-58,-107,-58,-14,29,14
14,19,4,-17,4,12,-58,-117,-58,-24,29,24
14,19,4,-17,4,12,-58,-117,-58,-24,29,24
14,19,4,-17,4,12,-58,-117,-58,-24,29,24
14,19,4,-17,4,12,-58,-117,-58,-24,24,19
4,9,4,-7,0,7,-48,-117,-58,-14,24,19
14,9,-4,-12,9,2,-58,-122,-68,-24,24,9
14,19,4,-17,4,12,-58,-122,-73,-24,14,9
-4,19,24,-7,-14,21,-48,-122,-63,-24,24,19
-24,14,39,4,-31,26,-43,-126,-68,-24,29,9
-9,24,34,-7,-21,29,-43,-122,-73,-24,19,9
4,39,34,-21,-14,36,-43,-136,-92,-39,14,4
-9,19,29,-4,-19,24,-53,-165,-122,-48,0,-9
-24,9,34,7,-29,21,-53,-195,-141,-58,-9,-9
-24,29,53,-2,-39,41,-63,-234,-146,-58,-14,-9
-34,34,68,0,-51,51,-78,-302,-180,-68,-19,-9
-43,43,87,0,-65,65,-107,-366,-234,-87,-24,0
-63,68,131,-2,-97,100,-126,-448,-287,-102,-19,19
-53,58,112,-2,-82,85,-170,-541,-356,-136,-29,14
-48,48,97,0,-73,73,-214,-629,-419,-170,-39,14
-48,34,82,7,-65,58,-258,-702,-483,-200,-58,19
-43,24,68,9,-56,46,-287,-756,-546,-239,-73,19
-24,4,29,9,-26,17,-307,-800,-590,-253,-82,19
-19,-19,0,19,-9,-9,-341,-858,-639,-278,-97,9
-9,-39,-29,24,9,-34,-375,-897,-688,-322,-136,-19
4,-29,-34,12,19,-31,-395,-932,-736,-351,-170,-29
19,0,-19,-9,19,-9,-409,-932,-751,-361,-175,-4
48,53,4,-51,21,29,-409,-907,-717,-326,-146,34
68,102,34,-85,17,68,-400,-854,-668,-283,-107,78
63,107,43,-85,9,75,-390,-790,-649,-283,-97,97
68,131,63,-100,2,97,-356,-717,-624,-263,-97,112
102,170,68,-136,17,119,-312,-619,-570,-219,-82,146
92,209,117,-151,-12,163,-283,-522,-527,-200,-73,175
82,263,180,-173,-48,222,-239,-453,-463,-190,-73,190
92,326,234,-209,-70,280,-180,-424,-400,-156,-63,214
87,400,312,-244,-112,356,-156,-390,-341,-97,-29,253
107,517,409,-312,-151,463,-122,-346,-258,-39,9,317
117,551,434,-334,-158,492,-73,-253,-161,0,4,317
78,453,375,-265,-148,414,-4,-122,-43,9,-58,244
58,356,297,-207,-119,326,78,63,107,43,-107,175
102,317,214,-209,-56,265,195,317,302,122,-97,151
141,268,126,-204,7,197,278,556,444,156,-78,141
122,195,73,-158,24,134,326,717,522,146,-68,117
68,112,43,-90,12,78,395,839,619,185,-53,107
29,63,34,-46,-2,48,473,966,771,234,-29,87
-9,34,43,-12,-26,39,551,1063,893,273,-39,58
-53,9,63,21,-58,36,624,1112,976,326,-14,24
-78,-24,53,51,-65,14,673,1107,1005,356,9,-4
-97,-58,39,78,-68,-9,707,1127,1029,351,-9,-43
-122,-73,48,97,-85,-12,785,1229,1146,409,14,-82
-161,-87,73,124,-117,-7,888,1346,1346,531,92,-97
-200,-131,68,165,-134,-31,971,1429,1493,605,136,-117
-234,-180,53,207,-143,-63,1058,1517,1576,610,117,-165
-258,-204,53,231,-156,-75,1176,1615,1668,619,107,-209
-283,-214,68,248,-175,-73,1283,1654,1761,653,112,-209
-297,-200,97,248,-197,-51,1381,1664,1839,688,136,-195
-307,-180,126,244,-217,-26,1468,1590,1859,688,136,-195
-341,-200,141,270,-241,-29,1551,1420,1790,644,102,-200
-356,-204,151,280,-253,-26,1629,1132,1551,512,9,-234
-375,-229,146,302,-261,-41,1717,814,1132,283,-136,-317
-424,-258,165,341,-295,-46,1825,551,702,53,-268,-390
-468,-268,200,368,-334,-34,1942,351,424,-102,-351,-424
-488,-273,214,380,-351,-29,1995,151,200,-209,-409,-444
-483,-283,200,383,-341,-41,2049,-19,-43,-312,-458,-448
-488,-273,214,380,-351,-29,2142,-122,-253,-390,-488,-453
-497,-283,214,390,-356,-34,2230,-151,-317,-424,-517,-473
-497,-278,219,387,-358,-29,2264,-131,-283,-405,-527,-483
-483,-278,204,380,-344,-36,2215,-112,-258,-385,-517,-473
-448,-263,185,356,-317,-39,2064,-126,-263,-370,-473,-429
-400,-239,161,319,-280,-39,1888,-185,-283,-341,-414,-380
-361,-214,146,287,-253,-34,1747,-229,-297,-307,-351,-331
-331,-204,126,268,-229,-39,1586,-219,-297,-278,-297,-287
-287,-156,131,222,-209,-12,1361,-170,-258,-239,-229,-244
-234,-112,122,173,-178,4,1107,-92,-190,-165,-175,-195
-185,-92,92,139,-139,0,888,-29,-131,-112,-131,-146
-136,-82,53,109,-95,-14,678,-4,-87,-87,-97,-112
-102,-73,29,87,-65,-21,439,-14,-63,-68,-58,-87
-53,-53,0,53,-26,-26,253,-4,-34,-43,-24,-58
-24,-39,-14,31,-4,-26,180,29,-4,-19,14,-24
-19,-34,-14,26,-2,-24,156,58,14,-9,39,-19
0,-19,-19,9,9,-19,131,68,19,9,48,-9
0,-9,-9,4,4,-9,102,78,24,14,48,-9
0,0,0,0,0,0,87,87,29,29,58,0
9,14,4,-12,2,9,68,97,39,39,68,9
9,4,-4,-7,7,0,53,97,43,39,78,9
24,-9,-34,-7,29,-21,29,82,43,29,78,19
43,0,-43,-21,43,-21,19,87,39,19,97,29
48,4,-43,-26,46,-19,0,87,29,19,97,29
53,4,-48,-29,51,-21,-14,82,34,19,97,29
43,14,-29,-29,36,-7,-29,82,34,29,87,34
43,19,-24,-31,34,-2,-48,82,29,19,87,29
48,24,-24,-36,36,0,-58,87,39,29,87,34
48,24,-24,-36,36,0,-63,87,39,29,92,34
48,24,-24,-36,36,0,-68,87,39,29,92,29
53,24,-29,-39,41,-2,-78,82,34,29,92,39
63,24,-39,-43,51,-7,-87,82,34,24,92,39
63,24,-39,-43,51,-7,-97,87,34,24,92,43
63,24,-39,-43,51,-7,-107,87,34,24,97,43
73,24,-48,-48,61,-12,-117,78,34,24,87,43
73,24,-48,-48,61,-12,-117,82,39,24,87,43
73,39,-34,-56,53,2,-112,87,39,24,92,43
82,39,-43,-61,63,-2,-112,87,39,24,92,48
82,34,-48,-58,65,-7,-122,92,39,19,92,39
82,24,-58,-53,70,-17,-126,92,34,14,92,39
87,24,-63,-56,75,-19,-126,97,34,14,87,39
87,29,-58,-58,73,-14,-131,97,34,19,87,39
78,19,-58,-48,68,-19,-136,87,24,9,87,39
78,19,-58,-48,68,-19,-136,92,24,9,87,39
87,24,-63,-56,75,-19,-136,92,29,9,87,39
87,24,-63,-56,75,-19,-141,92,29,9,87,39
87,29,-58,-58,73,-14,-146,102,34,14,87,43
87,29,-58,-58,73,-14,-151,107,34,14,97,43
87,29,-58,-58,73,-14,-151,107,34,14,97,43
87,29,-58,-58,73,-14,-151,112,34,14,92,43
87,29,-58,-58,73,-14,-141,112,34,24,102,43
87,29,-58,-58,73,-14,-141,117,39,29,102,43
92,29,-63,-61,78,-17,-151,117,39,29,102,43
92,29,-63,-61,78,-17,-151,117,39,24,102,43
87,19,-68,-53,78,-24,-165,117,39,24,87,39
82,19,-63,-51,73,-21,-170,112,39,19,87,39
82,19,-63,-51,73,-21,-170,112,39,19,87,39
78,14,-63,-46,70,-24,-170,112,39,19,87,39
87,14,-73,-51,80,-29,-161,122,39,9,87,39
87,14,-73,-51,80,-29,-165,122,34,9,87,39
87,14,-73,-51,80,-29,-170,122,34,9,87,39
87,19,-68,-53,78,-24,-170,131,34,14,87,39
97,19,-78,-58,87,-29,-180,122,39,14,87,29
97,24,-73,-61,85,-24,-190,122,39,14,82,29
107,24,-82,-65,95,-29,-195,122,34,4,78,24
97,24,-73,-61,85,-24,-200,122,34,4,78,24
97,34,-63,-65,80,-14,-204,122,24,4,68,34
102,39,-63,-70,82,-12,-209,122,24,4,68,34
102,39,-63,-70,82,-12,-214,122,24,4,68,34
102,39,-63,-70,82,-12,-219,126,24,9,68,34
92,39,-53,-65,73,-7,-214,136,34,9,68,34
92,43,-48,-68,70,-2,-214,136,34,0,68,34
102,48,-53,-75,78,-2,-229,136,24,0,68,34
107,48,-58,-78,82,-4,-229,136,19,0,73,34
107,53,-53,-80,80,0,-244,136,19,-4,73,34
107,58,-48,-82,78,4,-248,136,19,-4,73,34
107,58,-48,-82,78,4,-253,136,14,-4,68,34
102,58,-43,-80,73,7,-258,141,14,-4,68,34
107,58,-48,-82,78,4,-263,141,4,-4,68,24
112,63,-48,-87,80,7,-268,141,4,-14,63,24
122,63,-58,-92,90,2,-273,141,-4,-14,58,24
126,68,-58,-97,92,4,-283,141,-4,-14,53,24
122,68,-53,-95,87,7,-292,141,-4,-14,58,34
117,68,-48,-92,82,9,-292,141,-4,-14,58,34
112,63,-48,-87,80,7,-297,141,-4,-14,58,34
107,68,-39,-87,73,14,-307,141,-9,-14,58,34
122,87,-34,-104,78,26,-302,151,-4,-4,58,39
122,97,-24,-109,73,36,-302,156,-4,-4,58,43
122,107,-14,-114,68,46,-302,156,0,-4,58,43
126,117,-9,-122,68,53,-312,156,9,0,63,43
131,112,-19,-122,75,46,-317,146,0,-9,73,58
131,117,-14,-124,73,51,-317,146,-4,-9,73,58
131,126,-4,-129,68,61,-322,146,-9,-9,73,63
131,136,4,-134,63,70,-322,146,-14,-14,73,63
131,126,-4,-129,68,61,-326,136,-14,-14,63,63
126,126,0,-126,63,63,-326,136,-14,-14,63,63
126,117,-9,-122,68,53,-317,126,-19,-14,63,63
131,126,-4,-129,68,61,-317,126,-19,-9,68,68
146,136,-9,-141,78,63,-326,136,-24,-9,73,68
146,136,-9,-141,78,63,-326,131,-29,-9,73,68
146,136,-9,-141,78,63,-326,131,-29,-9,78,73
146,141,-4,-143,75,68,-326,131,-29,-9,82,82
136,146,9,-141,63,78,-312,136,-29,0,87,87
136,146,9,-141,63,78,-307,136,-24,4,92,87
141,146,4,-143,68,75,-302,136,-24,4,97,92
141,146,4,-143,68,75,-292,136,-19,19,102,92
151,146,-4,-148,78,70,-287,151,-9,19,117,102
141,151,9,-146,65,80,-278,156,0,19,122,102
141,156,14,-148,63,85,-263,161,4,29,126,107
136,161,24,-148,56,92,-248,170,9,34,126,112
122,156,34,-139,43,95,-234,185,9,29,122,102
112,141,29,-126,41,85,-229,185,19,43,126,102
102,136,34,-119,34,85,-209,185,29,43,131,102
97,131,34,-114,31,82,-190,180,39,48,136,107
107,131,24,-119,41,78,-175,195,39,48,136,107
97,117,19,-107,39,68,-161,200,39,48,136,102
97,117,19,-107,39,68,-141,200,43,63,141,102
97,117,19,-107,39,68,-122,200,58,63,146,102
73,97,24,-85,24,61,-107,190,68,63,146,92
68,97,29,-82,19,63,-97,180,68,63,146,92
63,97,34,-80,14,65,-78,175,73,68,146,92
53,87,34,-70,9,61,-63,170,73,68,146,92
53,97,43,-75,4,70,-73,156,63,68,141,97
58,87,29,-73,14,58,-68,146,63,63,136,92
58,87,29,-73,14,58,-58,131,63,63,136,87
58,87,29,-73,14,58,-53,122,58,63,136,87
58,87,29,-73,14,58,-39,112,53,53,131,78
58,78,19,-68,19,48,-39,92,53,48,122,73
53,73,19,-63,17,46,-39,78,48,43,122,68
43,73,29,-58,7,51,-39,68,39,43,117,68
48,73,24,-61,12,48,-48,63,34,34,112,58
48,68,19,-58,14,43,-48,43,29,29,107,53
53,68,14,-61,19,41,-53,29,24,19,107,53
63,68,4,-65,29,36,-53,19,19,19,107,53
58,63,4,-61,26,34,-53,9,14,24,102,53
48,48,0,-48,24,24,-58,0,4,19,97,43
43,48,4,-46,19,26,-63,-9,0,14,92,43
39,48,9,-43,14,29,-63,-19,0,9,92,43
39,48,9,-43,14,29,-68,-29,-4,0,87,43
39,43,4,-41,17,24,-68,-34,-9,0,87,43
34,43,9,-39,12,26,-68,-39,-14,0,87,43
34,48,14,-41,9,31,-68,-43,-19,-4,87,34
43,58,14,-51,14,36,-73,-48,-24,-9,82,43
48,58,9,-53,19,34,-73,-53,-24,-9,82,43
48,58,9,-53,19,34,-73,-58,-29,-9,78,43
43,53,9,-48,17,31,-78,-58,-29,-14,73,43
34,53,19,-43,7,36,-78,-68,-29,-14,73,34
39,53,14,-46,12,34,-78,-68,-34,-14,73,34
39,48,9,-43,14,29,-78,-68,-34,-14,73,34
34,48,14,-41,9,31,-78,-78,-34,-9,73,34
39,58,19,-48,9,39,-82,-68,-43,-19,63,34
48,58,9,-53,19,34,-82,-68,-43,-19,58,29
53,58,4,-56,24,31,-82,-73,-48,-24,58,29
58,58,0,-58,29,29,-82,-73,-48,-29,58,29
39,53,14,-46,12,34,-82,-87,-39,-19,58,19
34,39,4,-36,14,21,-87,-87,-43,-19,58,19
29,34,4,-31,12,19,-87,-87,-43,-19,53,19
29,29,0,-29,14,14,-87,-87,-43,-19,48,19
19,39,19,-29,0,29,-78,-78,-34,-9,53,29
19,39,19,-29,0,29,-78,-73,-34,-9,58,34
19,39,19,-29,0,29,-78,-73,-29,-9,68,34
19,39,19,-29,0,29,-78,-73,-29,-9,78,34
24,39,14,-31,4,26,-78,-73,-29,-4,68,34
24,39,14,-31,4,26,-78,-73,-29,-4,68,34
29,39,9,-34,9,24,-78,-73,-29,-4,68,34
29,29,0,-29,14,14,-78,-73,-29,-4,63,34
19,29,9,-24,4,19,-87,-73,-39,-14,53,29
29,34,4,-31,12,19,-82,-73,-39,-19,53,29
29,43,14,-36,7,29,-82,-73,-39,-19,53,29
29,43,14,-36,7,29,-82,-73,-43,-19,53,29
34,39,4,-36,14,21,-82,-78,-43,-9,63,39
34,39,4,-36,14,21,-82,-78,-43,-9,63,39
39,39,0,-39,19,19,-82,-73,-43,-9,63,39
39,39,0,-39,19,19,-82,-73,-43,-9,58,39
39,34,-4,-36,21,14,-78,-78,-48,-19,48,29
39,29,-9,-34,24,9,-78,-78,-48,-19,53,29
34,29,-4,-31,19,12,-78,-78,-43,-19,53,29
34,43,9,-39,12,26,-78,-78,-43,-19,53,29
34,43,9,-39,12,26,-73,-78,-48,-19,48,29
34,43,9,-39,12,26,-73,-78,-48,-19,48,29
34,43,9,-39,12,26,-73,-78,-43,-19,48,29
34,43,9,-39,12,26,-73,-73,-34,-19,48,29
34,43,9,-39,12,26,-73,-73,-43,-19,48,29
39,43,4,-41,17,24,-73,-73,-48,-19,48,29
39,43,4,-41,17,24,-73,-73,-53,-19,48,29
34,39,4,-36,14,21,-73,-78,-53,-19,48,24
34,39,4,-36,14,21,-73,-78,-48,-19,39,24
34,43,9,-39,12,26,-73,-78,-43,-19,39,24
34,43,9,-39,12,26,-73,-73,-39,-19,39,24
34,43,9,-39,12,26,-73,-73,-34,-19,39,24
24,29,4,-26,9,17,-78,-73,-43,-19,43,24
24,29,4,-26,9,17,-78,-73,-43,-19,43,24
24,29,4,-26,9,17,-78,-73,-43,-19,43,29
24,24,0,-24,12,12,-78,-82,-48,-19,43,29
24,34,9,-29,7,21,-78,-82,-48,-19,43,19
29,39,9,-34,9,24,-78,-82,-48,-19,43,19
34,39,4,-36,14,21,-73,-82,-43,-19,43,19
39,39,0,-39,19,19,-73,-82,-43,-24,43,19
34,34,0,-34,17,17,-78,-82,-43,-14,43,24
34,34,0,-34,17,17,-82,-87,-43,-14,43,24
39,34,-4,-36,21,14,-82,-87,-39,-9,43,29
39,34,-4,-36,21,14,-82,-92,-39,-9,39,34
34,34,0,-34,17,17,-82,-92,-53,-24,29,24
29,34,4,-31,12,19,-87,-92,-53,-24,34,24
24,34,9,-29,7,21,-87,-87,-58,-24,34,24
29,34,4,-31,12,19,-87,-87,-58,-24,34,24
34,43,9,-39,12,26,-97,-97,-58,-29,34,19
34,39,4,-36,14,21,-97,-107,-63,-29,34,19
39,39,0,-39,19,19,-97,-107,-63,-29,34,19
43,43,0,-43,21,21,-102,-107,-63,-29,34,24
34,34,0,-34,17,17,-92,-97,-53,-29,43,24
39,34,-4,-36,21,14,-92,-97,-53,-29,43,24
39,34,-4,-36,21,14,-92,-97,-53,-29,43,19
34,34,0,-34,17,17,-92,-97,-53,-29,43,19
19,24,4,-21,7,14,-82,-97,-48,-14,53,34
19,24,4,-21,7,14,-82,-92,-48,-14,53,34
29,24,-4,-26,17,9,-82,-92,-48,-14,53,34
19,24,4,-21,7,14,-87,-97,-53,-14,53,29
24,24,0,-24,12,12,-97,-97,-53,-29,48,19
34,24,-9,-29,21,7,-92,-97,-53,-29,48,19
39,24,-14,-31,26,4,-92,-102,-53,-29,43,19
43,19,-24,-31,34,-2,-97,-102,-58,-29,39,19
43,19,-24,-31,34,-2,-87,-92,-68,-39,43,19
43,19,-24,-31,34,-2,-87,-87,-68,-34,43,14
43,19,-24,-31,34,-2,-92,-87,-68,-34,43,14
39,19,-19,-29,29,0,-92,-87,-68,-34,43,14
29,19,-9,-24,19,4,-102,-97,-63,-24,39,19
34,29,-4,-31,19,12,-102,-97,-63,-24,43,19
34,29,-4,-31,19,12,-102,-92,-68,-24,43,19
39,24,-14,-31,26,4,-102,-92,-68,-19,43,19
48,34,-14,-41,31,9,-92,-82,-58,-9,53,29
39,39,0,-39,19,19,-87,-78,-48,-9,53,29
48,39,-9,-43,29,14,-82,-73,-48,-9,53,29
48,39,-9,-43,29,14,-82,-73,-43,-9,48,29
34,34,0,-34,17,17,-87,-82,-43,-9,43,19
24,34,9,-29,7,21,-92,-82,-43,-9,39,19
39,48,9,-43,14,29,-92,-82,-48,-9,34,24
39,48,9,-43,14,29,-87,-82,-48,-4,34,24
48,43,-4,-46,26,19,-97,-82,-48,-4,43,24
48,43,-4,-46,26,19,-97,-82,-43,-4,43,24
48,43,-4,-46,26,19,-92,-78,-43,-9,43,29
53,53,0,-53,26,26,-87,-78,-43,-9,53,34
63,58,-4,-61,34,26,-82,-78,-39,-19,43,34
58,58,0,-58,29,29,-87,-73,-39,-14,43,29
58,53,-4,-56,31,24,-92,-73,-39,-9,48,24
53,53,0,-53,26,26,-92,-68,-39,-9,53,19
63,63,0,-63,31,31,-82,-68,-39,-9,58,29
63,63,0,-63,31,31,-73,-63,-34,-4,58,34
53,63,9,-58,21,36,-73,-48,-24,0,63,39
63,63,0,-63,31,31,-73,-48,-19,4,68,43
63,73,9,-68,26,41,-58,-24,-9,19,68,39
73,63,-9,-68,41,26,-53,-19,-4,29,78,39
82,63,-19,-73,51,21,-48,-14,0,34,82,39
87,63,-24,-75,56,19,-39,0,4,34,82,48
97,78,-19,-87,58,29,-29,9,14,34,87,63
102,78,-24,-90,63,26,-24,14,29,43,97,63
107,82,-24,-95,65,29,-24,19,39,43,97,73
112,82,-29,-97,70,26,-29,29,48,43,97,73
122,78,-43,-100,82,17,-29,29,48,48,107,82
131,82,-48,-107,90,17,-34,29,48,48,107,82
131,82,-48,-107,90,17,-39,29,58,53,112,82
131,87,-43,-109,87,21,-39,24,58,58,112,82
126,78,-48,-102,87,14,-29,34,58,68,112,82
122,78,-43,-100,82,17,-29,29,58,58,112,82
117,63,-53,-90,85,4,-24,34,68,58,102,78
122,63,-58,-92,90,2,-29,43,68,53,102,78
131,68,-63,-100,97,2,-24,53,78,53,112,82
136,73,-63,-104,100,4,-34,39,63,53,112,78
136,82,-53,-109,95,14,-48,43,58,53,117,82
136,87,-48,-112,92,19,-53,48,63,63,126,87
146,82,-63,-114,104,9,-87,19,48,39,122,78
141,78,-63,-109,102,7,-97,-4,29,29,107,73
141,73,-68,-107,104,2,-107,-9,24,24,102,73
141,68,-73,-104,107,-2,-117,-29,4,9,97,73
136,82,-53,-109,95,14,-136,-43,-9,4,87,68
136,82,-53,-109,95,14,-151,-63,-19,0,78,68
136,78,-58,-107,97,9,-161,-78,-29,-14,73,53
141,78,-63,-109,102,7,-170,-92,-34,-4,73,68
151,82,-68,-117,109,7,-165,-107,-43,-9,68,63
151,82,-68,-117,109,7,-165,-107,-53,-14,63,58
151,78,-73,-114,112,2,-165,-112,-58,-19,68,58
151,78,-73,-114,112,2,-156,-117,-63,-9,73,63
151,78,-73,-114,112,2,-151,-102,-43,0,73,73
151,87,-63,-119,107,12,-146,-102,-39,-4,68,68
151,87,-63,-119,107,12,-136,-102,-39,-14,63,68
146,87,-58,-117,102,14,-131,-102,-43,-14,58,63
161,97,-63,-129,112,17,-122,-73,-4,24,102,92
165,78,-87,-122,126,-4,-126,-68,0,29,97,97
165,78,-87,-122,126,-4,-126,-78,-4,24,87,87
165,78,-87,-122,126,-4,-126,-78,-9,19,87,87
165,78,-87,-122,126,-4,-126,-78,-14,14,87,87
165,78,-87,-122,126,-4,-126,-78,-19,9,87,87
146,68,-78,-107,112,-4,-126,-97,-39,-9,73,63
136,68,-68,-102,102,0,-126,-107,-43,-14,68,63
122,68,-53,-95,87,7,-126,-112,-53,-19,58,58
97,58,-39,-78,68,9,-126,-126,-63,-24,43,53
73,58,-14,-65,43,21,-122,-126,-73,-34,43,48
73,68,-4,-70,39,31,-107,-117,-73,-24,43,48
73,68,-4,-70,39,31,-102,-117,-68,-24,43,48
53,53,0,-53,26,26,-97,-117,-68,-24,39,43
34,48,14,-41,9,31,-87,-117,-78,-34,43,34
24,29,4,-26,9,17,-87,-122,-78,-39,29,19
29,29,0,-29,14,14,-78,-122,-78,-43,24,9
34,29,-4,-31,19,12,-78,-126,-87,-48,24,9
29,29,0,-29,14,14,-87,-136,-92,-58,9,-4
24,29,4,-26,9,17,-92,-136,-97,-58,4,-4
19,19,0,-19,9,9,-92,-131,-97,-58,0,-4
14,19,4,-17,4,12,-92,-131,-102,-63,-4,-14
19,29,9,-24,4,19,-92,-131,-92,-58,4,-9
19,29,9,-24,4,19,-92,-136,-92,-53,9,-4
19,34,14,-26,2,24,-92,-136,-87,-43,9,0
19,34,14,-26,2,24,-92,-136,-87,-39,9,9
14,34,19,-24,-2,26,-92,-146,-97,-43,4,4
9,34,24,-21,-7,29,-92,-146,-97,-48,0,0
9,29,19,-19,-4,24,-92,-146,-97,-53,-4,-9
14,29,14,-21,0,21,-87,-146,-97,-58,-9,-14
9,43,34,-26,-12,39,-73,-136,-87,-53,-4,0
4,43,39,-24,-17,41,-73,-131,-87,-48,0,0
4,43,39,-24,-17,41,-73,-126,-82,-39,4,0
0,43,43,-21,-21,43,-73,-122,-82,-34,9,0
4,43,39,-24,-17,41,-82,-122,-82,-43,4,0
9,48,39,-29,-14,43,-82,-122,-82,-43,4,0
14,48,34,-31,-9,41,-82,-122,-82,-39,4,0
19,43,24,-31,-2,34,-82,-117,-82,-39,4,0
29,43,14,-36,7,29,-82,-122,-92,-48,-4,0
24,43,19,-34,2,31,-87,-126,-92,-48,-4,0
24,43,19,-34,2,31,-92,-131,-92,-43,0,0
24,48,24,-36,0,36,-97,-136,-87,-43,0,4
19,39,19,-29,0,29,-87,-136,-97,-43,0,-4
14,39,24,-26,-4,31,-87,-136,-97,-43,0,-4
9,39,29,-24,-9,34,-87,-136,-97,-43,0,-4
4,39,34,-21,-14,36,-87,-136,-97,-43,-4,-9
4,39,34,-21,-14,36,-87,-136,-97,-43,-4,0
14,48,34,-31,-9,41,-87,-141,-97,-43,-4,0
4,48,43,-26,-19,46,-87,-141,-102,-43,-4,-9
4,48,43,-26,-19,46,-68,-141,-92,-34,-4,0
4,53,48,-29,-21,51,-63,-146,-97,-34,0,0
-9,43,53,-17,-31,48,-63,-151,-102,-43,-9,-19
-14,48,63,-17,-39,56,-73,-165,-112,-48,-24,-24
-19,48,68,-14,-43,58,-63,-175,-122,-58,-39,-39
-34,39,73,-2,-53,56,-73,-204,-151,-68,-39,-39
-34,48,82,-7,-58,65,-82,-234,-165,-68,-34,-29
-24,73,97,-24,-61,85,-97,-292,-190,-68,-39,-19
-34,73,107,-19,-70,90,-126,-375,-234,-87,-43,-9
-43,78,122,-17,-82,100,-146,-458,-287,-122,-58,-9
-63,78,141,-7,-102,109,-190,-561,-356,-156,-68,-4
-58,68,126,-4,-92,97,-234,-649,-419,-180,-87,-4
-29,73,102,-21,-65,87,-278,-722,-483,-209,-107,-9
-14,43,58,-14,-36,51,-317,-775,-536,-239,-122,-19
-4,4,9,0,-7,7,-356,-810,-590,-263,-122,-19
0,-9,-9,4,4,-9,-380,-858,-639,-287,-136,-19
0,-19,-19,9,9,-19,-395,-907,-688,-322,-165,-29
24,9,-14,-17,19,-2,-405,-922,-707,-331,-180,-19
29,39,9,-34,9,24,-400,-932,-732,-351,-195,-4
39,73,34,-56,2,53,-409,-927,-707,-336,-185,14
68,122,53,-95,7,87,-409,-863,-658,-283,-136,58
73,146,73,-109,0,109,-400,-790,-629,-263,-117,97
68,151,82,-109,-7,117,-375,-727,-614,-263,-117,112
102,190,87,-146,7,139,-341,-619,-561,-229,-92,146
122,239,117,-180,2,178,-312,-522,-507,-190,-92,165
102,263,161,-183,-29,212,-258,-463,-453,-180,-102,180
102,326,224,-214,-61,275,-200,-434,-400,-156,-92,204
117,429,312,-273,-97,370,-146,-409,-322,-87,-58,253
117,527,409,-322,-146,468,-112,-356,-239,-19,-9,317
87,531,444,-309,-178,488,-92,-283,-151,0,-24,307
78,453,375,-265,-148,414,-34,-131,-34,0,-87,234
117,414,297,-265,-90,356,68,73,126,43,-117,185
161,356,195,-258,-17,275,165,326,302,102,-117,161
151,268,117,-209,17,192,239,556,444,136,-97,151
131,214,82,-173,24,148,307,727,531,165,-78,136
87,151,63,-119,12,107,375,839,619,185,-73,117
29,82,53,-56,-12,68,453,956,741,224,-87,78
0,53,53,-26,-26,53,531,1063,873,263,-87,39
-43,19,63,12,-53,41,605,1122,966,307,-53,4
-78,-24,53,51,-65,14,644,1137,1005,326,-29,-14
-78,-39,39,58,-58,0,688,1166,1029,331,-29,-43
-92,-53,39,73,-65,-7,766,1268,1137,390,-14,-73
-131,-68,63,100,-97,-2,868,1385,1337,512,53,-78
-180,-82,97,131,-139,7,971,1478,1493,595,107,-97
-234,-161,73,197,-153,-43,1049,1556,1556,590,87,-165
-268,-204,63,236,-165,-70,1146,1654,1649,610,58,-229
-283,-195,87,239,-185,-53,1254,1742,1771,644,73,-229
-287,-180,107,234,-197,-36,1351,1781,1859,668,87,-214
-297,-170,126,234,-212,-21,1439,1727,1888,658,97,-204
-322,-170,151,246,-236,-9,1522,1566,1839,634,82,-200
-356,-175,180,265,-268,2,1610,1288,1629,522,0,-234
-385,-190,195,287,-290,2,1688,941,1229,312,-136,-297
-434,-219,214,326,-324,-2,1795,658,810,92,-287,-370
-458,-229,229,344,-344,0,1903,458,522,-73,-390,-424
-458,-244,214,351,-336,-14,1966,278,287,-180,-448,-453
-473,-263,209,368,-341,-26,2020,126,53,-273,-478,-458
-488,-263,224,375,-356,-19,2122,-4,-156,-361,-507,-473
-497,-263,234,380,-366,-14,2210,-63,-248,-395,-536,-473
-497,-258,239,378,-368,-9,2254,-82,-253,-385,-546,-473
-473,-248,224,361,-348,-12,2225,-82,-239,-366,-536,-463
-429,-234,195,331,-312,-19,2074,-126,-253,-361,-502,-439
-390,-219,170,305,-280,-24,1888,-185,-263,-351,-453,-400
-351,-185,165,268,-258,-9,1756,-219,-278,-317,-390,-361
-322,-165,156,244,-239,-4,1595,-219,-278,-287,-346,-317
-278,-136,141,207,-209,2,1361,-170,-258,-248,-297,-273
-214,-102,112,158,-163,4,1107,-92,-200,-185,-234,-214
-175,-82,92,129,-134,4,878,-29,-141,-141,-170,-156
-126,-63,63,95,-95,0,678,-14,-107,-107,-136,-122
-82,-43,39,63,-61,-2,468,-14,-82,-78,-97,-87
-53,-24,29,39,-41,2,273,-14,-53,-53,-63,-68
-24,-19,4,21,-14,-7,170,9,-24,-39,-34,-53
-19,-4,14,12,-17,4,146,29,4,-29,-19,-48
-29,0,29,14,-29,14,131,58,19,-19,-9,-39
0,19,19,-9,-9,19,102,87,14,4,0,-9
9,39,29,-24,-9,34,87,97,19,9,9,0
19,34,14,-26,2,24,58,97,29,19,29,19
29,24,-4,-26,17,9,34,78,34,19,29,9
24,19,-4,-21,14,7,19,63,24,0,19,0
43,29,-14,-36,29,7,9,58,19,-9,19,-9
48,24,-24,-36,36,0,-9,58,19,-9,19,0
34,14,-19,-24,26,-2,-24,63,14,-9,19,0
43,34,-9,-39,26,12,-39,73,14,0,29,14
48,43,-4,-46,26,19,-58,73,19,9,34,24
58,53,-4,-56,31,24,-68,78,29,19,39,34
63,58,-4,-61,34,26,-73,78,29,19,48,39
68,63,-4,-65,36,29,-78,78,29,19,53,39
73,58,-14,-65,43,21,-82,73,24,19,43,34
82,53,-29,-68,56,12,-87,73,24,14,43,29
82,48,-34,-65,58,7,-92,78,24,14,43,29
82,43,-39,-63,61,2,-97,78,24,14,48,24
82,43,-39,-63,61,2,-102,78,24,14,48,34
82,43,-39,-63,61,2,-107,82,29,14,48,34
82,58,-24,-70,53,17,-107,87,29,14,53,34
92,58,-34,-75,63,12,-112,87,29,14,53,39
82,43,-39,-63,61,2,-112,92,29,9,53,39
82,34,-48,-58,65,-7,-117,92,24,4,53,39
87,34,-53,-61,70,-9,-117,97,24,4,48,39
87,39,-48,-63,68,-4,-122,97,24,9,48,39
87,48,-39,-68,63,4,-126,97,34,0,48,39
87,48,-39,-68,63,4,-126,102,34,0,48,39
97,53,-43,-75,70,4,-126,102,39,0,48,39
97,53,-43,-75,70,4,-131,102,39,0,48,39
87,39,-48,-63,68,-4,-136,92,24,-4,39,24
87,39,-48,-63,68,-4,-141,97,24,-4,48,24
87,39,-48,-63,68,-4,-141,97,24,-4,48,24
87,39,-48,-63,68,-4,-141,102,24,-4,43,24
87,29,-58,-58,73,-14,-151,102,14,-4,34,24
87,29,-58,-58,73,-14,-151,107,19,0,34,24
92,29,-63,-61,78,-17,-161,107,19,0,34,24
92,29,-63,-61,78,-17,-161,107,19,-4,34,24
92,39,-53,-65,73,-7,-156,107,29,4,39,19
92,39,-53,-65,73,-7,-161,102,29,0,39,19
97,39,-58,-68,78,-9,-161,102,29,0,39,19
97,34,-63,-65,80,-14,-161,102,29,0,39,19
97,24,-73,-61,85,-24,-161,112,29,0,39,19
97,24,-73,-61,85,-24,-165,112,24,0,39,19
97,24,-73,-61,85,-24,-170,112,24,0,39,19
97,29,-68,-63,82,-19,-170,122,24,4,39,19
87,29,-58,-58,73,-14,-170,122,29,4,39,19
87,34,-53,-61,70,-9,-180,122,29,4,34,19
97,34,-63,-65,80,-14,-185,122,24,-4,29,14
87,34,-53,-61,70,-9,-190,122,24,-4,29,14
97,43,-53,-70,75,-4,-195,131,24,4,29,24
102,48,-53,-75,78,-2,-200,131,24,4,29,24
102,48,-53,-75,78,-2,-204,131,24,4,29,24
102,48,-53,-75,78,-2,-209,136,24,9,29,24
102,48,-53,-75,78,-2,-214,126,24,0,14,14
102,53,-48,-78,75,2,-214,126,24,-9,9,14
112,58,-53,-85,82,2,-229,126,14,-9,4,14
117,58,-58,-87,87,0,-229,126,9,-9,4,14
107,53,-53,-80,80,0,-224,126,9,-24,14,14
107,58,-48,-82,78,4,-229,126,9,-24,14,14
107,58,-48,-82,78,4,-234,126,4,-24,9,14
102,58,-43,-80,73,7,-239,131,4,-24,9,14
112,63,-48,-87,80,7,-253,131,4,-14,4,24
112,73,-39,-92,75,17,-258,131,4,-24,4,24
117,78,-39,-97,78,19,-263,131,-4,-24,4,24
117,87,-29,-102,73,29,-273,131,-4,-24,4,24
107,82,-24,-95,65,29,-283,131,-4,-34,0,24
107,87,-19,-97,63,34,-283,131,-4,-34,0,24
107,87,-19,-97,63,34,-287,131,-4,-34,0,24
107,97,-9,-102,58,43,-297,131,-9,-34,0,24
117,112,-4,-114,61,53,-302,131,-9,-24,9,39
122,117,-4,-119,63,56,-302,136,-14,-24,9,43
126,122,-4,-124,65,58,-302,136,-14,-24,9,43
136,126,-9,-131,73,58,-312,136,-9,-19,14,43
141,126,-14,-134,78,56,-307,136,0,-19,14,39
141,126,-14,-134,78,56,-307,136,-4,-19,14,39
141,131,-9,-136,75,61,-312,136,-9,-19,14,43
141,136,-4,-139,73,65,-312,136,-14,-24,14,43
131,136,4,-134,63,70,-326,136,-24,-24,4,53
126,136,9,-131,58,73,-326,136,-24,-24,4,53
126,126,0,-126,63,63,-317,126,-29,-24,4,53
131,136,4,-134,63,70,-317,126,-29,-19,9,58
126,146,19,-136,53,82,-317,126,-34,-29,14,48
126,146,19,-136,53,82,-317,122,-39,-29,14,48
126,146,19,-136,53,82,-317,122,-39,-29,19,53
126,151,24,-139,51,87,-317,122,-39,-29,24,63
131,156,24,-143,53,90,-302,126,-39,-29,19,78
136,156,19,-146,58,87,-297,126,-34,-24,24,78
146,156,9,-151,68,82,-292,126,-34,-24,29,82
151,156,4,-153,73,80,-283,126,-29,-9,34,82
136,141,4,-139,65,73,-283,131,-39,-9,39,73
122,141,19,-131,51,80,-278,136,-29,-9,43,73
117,141,24,-129,46,82,-268,141,-24,0,48,78
107,141,34,-124,36,87,-258,151,-19,4,48,82
112,146,34,-129,39,90,-239,180,-4,14,58,87
112,141,29,-126,41,85,-229,185,9,34,68,92
112,146,34,-129,39,90,-204,190,24,39,78,97
117,151,34,-134,41,92,-180,190,39,48,87,107
112,141,29,-126,41,85,-165,204,48,39,87,97
97,126,29,-112,34,78,-151,209,48,39,87,92
92,126,34,-109,29,80,-131,209,53,53,92,92
87,126,39,-107,24,82,-112,209,68,53,97,92
68,117,48,-92,9,82,-97,200,68,53,87,92
68,117,48,-92,9,82,-87,190,68,53,87,92
68,117,48,-92,9,82,-68,185,73,58,87,92
63,107,43,-85,9,75,-53,180,73,58,87,92
68,107,39,-87,14,73,-63,170,73,68,92,87
68,97,29,-82,19,63,-58,165,73,63,87,82
63,97,34,-80,14,65,-48,156,73,63,87,78
58,97,39,-78,9,68,-43,151,68,63,87,78
48,92,43,-70,2,68,-29,136,63,43,73,68
48,78,29,-63,9,53,-29,112,63,39,63,63
43,68,24,-56,9,46,-29,92,58,34,63,58
34,63,29,-48,2,46,-29,78,48,34,58,58
43,63,19,-53,12,41,-29,73,43,43,63,58
39,58,19,-48,9,39,-29,53,39,39,58,53
39,58,19,-48,9,39,-34,39,34,29,58,53
43,58,14,-51,14,36,-34,29,29,29,58,53
43,63,19,-53,12,41,-24,29,34,34,53,53
39,48,9,-43,14,29,-29,19,24,29,48,43
39,48,9,-43,14,29,-34,9,19,24,43,43
39,48,9,-43,14,29,-34,0,19,19,43,43
29,39,9,-34,9,24,-48,-14,4,9,39,43
29,34,4,-31,12,19,-48,-24,0,9,39,43
24,34,9,-29,7,21,-48,-34,-4,9,39,43
24,39,14,-31,4,26,-48,-43,-9,4,39,34
34,39,4,-36,14,21,-53,-48,-14,-9,24,34
39,39,0,-39,19,19,-53,-53,-14,-9,24,34
39,39,0,-39,19,19,-53,-58,-19,-9,19,34
34,34,0,-34,17,17,-58,-58,-19,-14,14,34
29,34,4,-31,12,19,-48,-48,-19,-4,24,34
29,34,4,-31,12,19,-48,-48,-24,-4,24,34
24,29,4,-26,9,17,-48,-48,-24,-4,24,34
14,29,14,-21,0,21,-48,-58,-24,0,24,34
29,34,4,-31,12,19,-53,-58,-24,-9,14,34
39,39,0,-39,19,19,-53,-58,-24,-9,9,29
43,43,0,-43,21,21,-53,-63,-29,-14,9,29
48,48,0,-48,24,24,-53,-63,-29,-19,9,29
39,48,9,-43,14,29,-43,-58,-19,-9,19,29
34,39,4,-36,14,21,-48,-58,-24,-9,19,29
29,39,9,-34,9,24,-48,-58,-24,-9,14,29
29,39,9,-34,9,24,-48,-58,-24,-9,9,29
29,39,9,-34,9,24,-48,-58,-24,0,9,29
29,39,9,-34,9,24,-48,-53,-24,0,9,34
29,39,9,-34,9,24,-48,-53,-19,0,14,34
29,39,9,-34,9,24,-48,-53,-19,0,19,34
24,29,4,-26,9,17,-58,-58,-24,0,9,24
24,29,4,-26,9,17,-58,-63,-29,-4,9,24
29,29,0,-29,14,14,-58,-68,-34,-9,9,24
29,19,-9,-24,19,4,-58,-73,-39,-14,4,24
19,9,-9,-14,14,0,-48,-63,-29,-4,14,24
29,14,-14,-21,21,0,-43,-63,-29,-9,14,29
29,24,-4,-26,17,9,-43,-63,-29,-9,14,34
29,24,-4,-26,17,9,-43,-63,-34,-9,14,39
34,29,-4,-31,19,12,-43,-68,-34,-9,14,39
34,29,-4,-31,19,12,-43,-68,-34,-9,14,39
39,29,-9,-34,24,9,-43,-63,-34,-9,14,39
39,29,-9,-34,24,9,-43,-63,-34,-9,9,39
29,34,4,-31,12,19,-48,-58,-29,-9,19,39
29,29,0,-29,14,14,-48,-58,-29,-9,24,39
24,29,4,-26,9,17,-48,-58,-24,-9,24,39
24,43,19,-34,2,31,-48,-58,-24,-9,24,39
24,24,0,-24,12,12,-43,-58,-29,-9,19,39
24,24,0,-24,12,12,-43,-58,-29,-9,19,39
24,24,0,-24,12,12,-43,-58,-24,-9,19,39
24,24,0,-24,12,12,-43,-53,-14,-9,19,39
24,24,0,-24,12,12,-53,-63,-24,-9,9,39
29,24,-4,-26,17,9,-53,-63,-29,-9,9,39
29,24,-4,-26,17,9,-53,-63,-34,-9,9,39
24,19,-4,-21,14,7,-53,-68,-34,-9,9,34
24,19,-4,-21,14,7,-43,-58,-24,0,19,34
24,24,0,-24,12,12,-43,-58,-24,0,19,34
24,24,0,-24,12,12,-43,-53,-24,0,19,34
24,24,0,-24,12,12,-43,-53,-24,0,19,34
14,9,-4,-12,9,2,-48,-58,-34,-9,4,24
14,9,-4,-12,9,2,-48,-63,-34,-9,4,24
14,9,-4,-12,9,2,-48,-68,-34,-9,4,29
14,4,-9,-9,12,-2,-48,-82,-39,-9,4,29
14,9,-4,-12,9,2,-48,-78,-39,-9,14,39
19,19,0,-19,9,9,-48,-73,-39,-9,14,39
24,24,0,-24,12,12,-43,-68,-34,-9,14,39
29,29,0,-29,14,14,-43,-63,-34,-14,14,39
14,14,0,-14,7,7,-58,-73,-43,-14,14,29
14,14,0,-14,7,7,-63,-78,-43,-14,14,24
19,14,-4,-17,12,4,-63,-78,-39,-9,14,24
19,14,-4,-17,12,4,-63,-82,-39,-9,9,24
9,4,-4,-7,7,0,-63,-82,-43,-14,0,24
9,4,-4,-7,7,0,-68,-82,-43,-14,4,24
9,4,-4,-7,7,0,-68,-78,-48,-14,4,24
19,4,-14,-12,17,-4,-68,-78,-48,-14,4,24
29,14,-14,-21,21,0,-58,-68,-48,-9,14,29
24,9,-14,-17,19,-2,-58,-78,-53,-9,14,29
24,9,-14,-17,19,-2,-58,-78,-53,-9,14,29
24,14,-9,-19,17,2,-63,-78,-53,-9,14,34
14,9,-4,-12,9,2,-73,-78,-53,-14,4,24
19,4,-14,-12,17,-4,-73,-78,-53,-19,4,24
19,0,-19,-9,19,-9,-73,-78,-53,-24,4,19
14,-4,-19,-4,17,-12,-73,-78,-53,-29,4,19
14,4,-9,-9,12,-2,-63,-87,-48,-14,14,14
19,4,-14,-12,17,-4,-63,-82,-48,-14,14,14
34,4,-29,-19,31,-12,-63,-82,-48,-14,14,14
29,4,-24,-17,26,-9,-68,-87,-53,-14,14,9
29,4,-24,-17,26,-9,-68,-78,-43,-9,14,19
34,4,-29,-19,31,-12,-63,-78,-43,-9,19,19
34,4,-29,-19,31,-12,-63,-82,-43,-9,19,19
34,0,-34,-17,34,-17,-68,-82,-48,-9,19,19
24,0,-24,-12,24,-12,-68,-82,-58,-19,4,19
24,0,-24,-12,24,-12,-68,-78,-58,-14,4,14
24,0,-24,-12,24,-12,-73,-78,-58,-14,4,14
19,0,-19,-9,19,-9,-73,-78,-58,-14,4,14
9,0,-9,-4,9,-4,-73,-78,-43,-4,9,19
14,9,-4,-12,9,2,-73,-78,-43,-4,14,19
14,9,-4,-12,9,2,-73,-73,-48,-4,14,19
19,4,-14,-12,17,-4,-73,-73,-48,0,14,19
19,4,-14,-12,17,-4,-73,-73,-48,0,14,29
9,9,0,-9,4,4,-68,-68,-39,0,14,29
19,9,-9,-14,14,0,-63,-63,-39,0,14,29
19,9,-9,-14,14,0,-63,-63,-34,0,9,29
19,-4,-24,-7,21,-14,-68,-73,-43,-9,9,24
14,-4,-19,-4,17,-12,-73,-73,-43,-9,9,19
34,9,-24,-21,29,-7,-73,-73,-48,-9,9,19
39,9,-29,-24,34,-9,-68,-73,-48,-4,14,14
34,4,-29,-19,31,-12,-78,-63,-48,-9,14,24
29,4,-24,-17,26,-9,-78,-63,-43,-4,14,24
24,4,-19,-14,21,-7,-73,-58,-43,-4,14,29
24,14,-9,-19,17,2,-68,-58,-43,0,24,34
39,19,-19,-29,29,0,-68,-58,-34,-9,24,29
39,19,-19,-29,29,0,-68,-53,-29,-4,24,29
43,14,-29,-29,36,-7,-68,-53,-24,0,29,29
43,14,-29,-29,36,-7,-63,-48,-19,0,34,29
63,34,-29,-48,46,2,-43,-39,-19,19,39,39
63,34,-29,-48,46,2,-34,-34,-14,24,39,43
53,34,-19,-43,36,7,-34,-19,-4,29,43,48
63,34,-29,-48,46,2,-34,-19,0,34,48,53
53,43,-9,-48,31,17,-24,-4,19,39,68,58
63,34,-29,-48,46,2,-24,0,24,48,78,58
73,34,-39,-53,56,-2,-24,4,29,53,82,58
78,34,-43,-56,61,-4,-19,19,34,53,82,68
87,43,-43,-65,65,0,-19,29,39,63,87,73
92,48,-43,-70,68,2,-14,34,48,73,97,73
97,58,-39,-78,68,9,-14,39,53,73,97,82
102,63,-39,-82,70,12,-19,48,58,73,97,82
107,63,-43,-85,75,9,-14,39,58,73,87,82
112,63,-48,-87,80,7,-14,39,58,68,87,82
107,58,-48,-82,78,4,-14,39,68,68,92,82
102,58,-43,-80,73,7,-9,34,68,68,92,82
112,58,-53,-85,82,2,-4,53,68,73,107,87
112,58,-53,-85,82,2,-9,48,68,68,112,92
112,43,-68,-78,90,-12,-9,53,78,73,107,92
122,43,-78,-82,100,-17,-19,63,78,73,112,97
122,53,-68,-87,95,-7,-43,43,68,53,102,97
126,53,-73,-90,100,-9,-63,9,43,43,92,87
126,58,-68,-92,97,-4,-87,-4,29,34,87,87
126,58,-68,-92,97,-4,-102,-19,24,34,87,87
136,68,-68,-102,102,0,-126,-48,9,14,78,78
131,68,-63,-100,97,2,-136,-73,-9,9,68,73
131,68,-63,-100,97,2,-146,-78,-14,9,68,73
131,68,-63,-100,97,2,-156,-97,-34,0,68,73
126,63,-63,-95,95,0,-146,-102,-43,-9,53,73
126,63,-63,-95,95,0,-151,-112,-48,-9,48,68
126,58,-68,-92,97,-4,-151,-117,-53,-19,48,48
131,58,-73,-95,102,-7,-151,-122,-53,-4,53,58
131,63,-68,-97,100,-2,-126,-117,-43,-4,53,68
131,63,-68,-97,100,-2,-126,-107,-43,-4,53,68
131,58,-73,-95,102,-7,-126,-102,-39,-4,63,73
131,58,-73,-95,102,-7,-117,-97,-34,9,73,82
141,68,-73,-104,107,-2,-117,-73,-9,19,82,92
156,68,-87,-112,122,-9,-126,-68,-9,29,87,97
146,58,-87,-102,117,-14,-117,-68,-9,29,87,97
146,58,-87,-102,117,-14,-117,-68,-9,29,87,97
146,58,-87,-102,117,-14,-117,-68,-9,29,87,97
146,58,-87,-102,117,-14,-117,-68,-9,29,87,97
117,58,-58,-87,87,0,-117,-82,-24,14,73,82
107,58,-48,-82,78,4,-117,-97,-34,4,68,82
92,58,-34,-75,63,12,-117,-107,-48,-4,58,78
68,48,-19,-58,43,14,-117,-126,-63,-14,43,73
53,43,-9,-48,31,17,-112,-126,-63,-24,53,58
53,58,4,-56,24,31,-97,-117,-63,-14,53,58
53,63,9,-58,21,36,-92,-117,-58,-14,53,58
34,53,19,-43,7,36,-87,-117,-58,-14,48,53
9,34,24,-21,-7,29,-87,-117,-78,-34,34,34
-4,9,14,-2,-9,12,-87,-122,-78,-39,19,19
-4,4,9,0,-7,7,-78,-122,-78,-43,14,9
-4,0,4,2,-4,2,-78,-126,-87,-48,14,9
-4,9,14,-2,-9,12,-78,-136,-82,-39,9,4
-4,9,14,-2,-9,12,-82,-136,-87,-39,4,4
-4,0,4,2,-4,2,-82,-131,-87,-39,0,4
-4,0,4,2,-4,2,-82,-131,-92,-43,-4,-4
-19,-9,9,14,-14,0,-82,-141,-102,-53,4,-4
-19,-9,9,14,-14,0,-82,-146,-102,-53,9,-4
-19,-4,14,12,-17,4,-82,-146,-97,-48,9,-4
-19,-4,14,12,-17,4,-82,-146,-97,-48,9,0
-34,-4,29,19,-31,12,-82,-141,-87,-39,0,0
-39,-4,34,21,-36,14,-82,-136,-87,-39,0,0
-39,-9,29,24,-34,9,-82,-131,-87,-39,0,-4
-34,-9,24,21,-29,7,-78,-126,-87,-39,0,-4
-19,4,24,7,-21,14,-82,-126,-97,-39,9,0
-14,4,19,4,-17,12,-82,-131,-97,-39,9,0
-4,4,9,0,-7,7,-82,-136,-92,-34,9,0
0,4,4,-2,-2,4,-82,-141,-92,-34,9,0
-9,4,14,2,-12,9,-73,-131,-82,-34,4,0
-9,9,19,0,-14,14,-73,-131,-82,-34,4,0
-9,9,19,0,-14,14,-73,-131,-82,-29,4,0
-9,4,14,2,-12,9,-73,-126,-82,-29,4,0
0,4,4,-2,-2,4,-58,-126,-82,-29,14,9
-4,4,9,0,-7,7,-58,-126,-82,-29,14,9
-4,4,9,0,-7,7,-58,-126,-82,-24,19,9
-4,9,14,-2,-9,12,-58,-126,-78,-24,19,14
-9,0,9,4,-9,4,-68,-136,-87,-24,9,9
-14,0,14,7,-14,7,-68,-136,-87,-24,9,4
-19,0,19,9,-19,9,-68,-136,-87,-24,9,0
-24,0,24,12,-24,12,-68,-136,-87,-24,4,-9
-14,0,14,7,-14,7,-68,-126,-87,-24,4,0
-34,0,34,17,-34,17,-68,-122,-78,-24,4,0
-43,-9,34,26,-39,12,-68,-122,-82,-24,4,-9
-34,-9,24,21,-29,7,-78,-131,-92,-34,-4,-9
-14,-4,9,9,-12,2,-73,-146,-97,-34,-9,-19
-9,4,14,2,-12,9,-63,-151,-102,-34,-9,-19
-14,9,24,2,-19,17,-53,-156,-112,-29,-14,-14
-58,0,58,29,-58,29,-53,-175,-131,-48,-19,-19
-73,0,73,36,-73,36,-53,-195,-141,-48,-29,-19
-73,9,82,31,-78,46,-63,-234,-156,-58,-24,-29
-63,24,87,19,-75,56,-87,-292,-190,-68,-39,-29
-53,43,97,4,-75,70,-107,-366,-234,-87,-43,-19
-53,58,112,-2,-82,85,-136,-448,-278,-102,-48,-9
-63,48,112,7,-87,80,-170,-541,-346,-136,-58,-4
-78,29,107,24,-92,68,-214,-639,-429,-180,-78,-4
-87,14,102,36,-95,58,-278,-732,-522,-229,-107,-19
-63,14,78,24,-70,46,-317,-795,-585,-258,-122,-19
-34,4,39,14,-36,21,-336,-839,-619,-273,-122,-9
-58,-39,19,48,-39,-9,-370,-878,-658,-297,-136,-19
-48,-58,-9,53,-19,-34,-395,-917,-697,-322,-165,-39
-4,-39,-34,21,14,-36,-405,-941,-736,-351,-190,-39
0,-29,-29,14,14,-29,-419,-961,-771,-370,-204,-34
-9,4,14,2,-12,9,-419,-956,-766,-366,-195,-14
0,53,53,-26,-26,53,-409,-902,-717,-312,-156,29
24,97,73,-61,-24,85,-409,-839,-688,-292,-136,68
39,112,73,-75,-17,92,-395,-766,-663,-292,-136,92
53,131,78,-92,-12,104,-361,-668,-610,-268,-122,107
63,161,97,-112,-17,129,-322,-570,-556,-219,-102,136
73,214,141,-143,-34,178,-268,-492,-492,-200,-112,151
82,278,195,-180,-56,236,-209,-453,-439,-175,-112,165
87,370,283,-229,-97,326,-165,-429,-380,-126,-78,214
97,488,390,-292,-146,439,-131,-385,-307,-58,-39,278
87,541,453,-314,-183,497,-112,-331,-239,-29,-43,287
87,473,385,-280,-148,429,-63,-209,-131,-29,-87,234
78,375,297,-226,-109,336,29,-14,39,4,-136,165
92,297,204,-195,-56,251,126,219,234,73,-146,122
112,229,117,-170,-2,173,229,468,395,126,-126,102
82,165,82,-124,0,124,307,678,502,146,-117,97
48,112,63,-80,-7,87,375,800,580,175,-92,97
39,73,34,-56,2,53,444,907,692,214,-87,68
0,34,34,-17,-17,34,512,1015,814,244,-97,19
-53,-9,43,31,-48,17,575,1073,907,287,-73,-14
-87,-43,43,65,-65,0,624,1078,956,317,-39,-43
-107,-87,19,97,-63,-34,649,1088,990,322,-39,-82
-151,-122,29,136,-90,-46,736,1180,1088,370,-24,-112
-190,-136,53,163,-122,-41,849,1307,1278,492,43,-117
-219,-151,68,185,-143,-41,941,1381,1434,585,87,-136
-253,-170,82,212,-168,-43,1049,1468,1537,619,107,-156
-278,-175,102,226,-190,-36,1146,1576,1629,629,97,-200
-283,-185,97,234,-190,-43,1244,1644,1732,653,92,-219
-297,-200,97,248,-197,-51,1322,1654,1810,678,117,-224
-356,-219,136,287,-246,-41,1410,1600,1830,668,107,-234
-380,-229,151,305,-265,-39,1483,1459,1800,644,92,-229
-366,-224,141,295,-253,-41,1581,1220,1639,561,39,-244
-405,-248,156,326,-280,-46,1678,902,1259,361,-107,-307
-444,-287,156,366,-300,-65,1776,610,810,102,-268,-390
-468,-297,170,383,-319,-63,1893,390,473,-73,-390,-434
-478,-292,185,385,-331,-53,1956,200,229,-190,-448,-463
-483,-292,190,387,-336,-51,2000,29,-4,-292,-468,-478
-488,-292,195,390,-341,-48,2083,-112,-224,-380,-497,-483
-517,-302,214,409,-366,-43,2181,-170,-326,-424,-536,-502
-527,-307,219,417,-373,-43,2244,-151,-302,-414,-556,-502
-522,-307,214,414,-368,-46,2244,-131,-258,-395,-556,-492
-478,-302,175,390,-326,-63,2122,-136,-273,-390,-531,-478
-429,-278,151,353,-290,-63,1947,-195,-302,-361,-473,-439
-400,-244,156,322,-278,-43,1805,-239,-317,-336,-400,-380
-361,-224,136,292,-248,-43,1634,-239,-326,-307,-346,-336
-317,-204,112,261,-214,-46,1410,-209,-297,-268,-287,-292
-283,-180,102,231,-192,-39,1146,-141,-239,-214,-244,-253
-224,-141,82,183,-153,-29,927,-68,-161,-141,-180,-195
-175,-112,63,143,-119,-24,736,-34,-107,-107,-136,-151
-161,-112,48,136,-104,-31,517,-34,-82,-78,-97,-117
-112,-92,19,102,-65,-36,312,-34,-63,-53,-63,-87
-63,-68,-4,65,-29,-36,190,-9,-43,-39,-24,-73
-48,-53,-4,51,-21,-29,146,19,-34,-29,-9,-58
-29,-48,-19,39,-4,-34,131,39,-9,-9,9,-39
-19,-39,-19,29,0,-29,102,58,4,24,29,-29
-9,-29,-19,19,4,-24,87,78,19,29,39,-19
9,-14,-24,2,17,-19,68,87,39,29,39,-9
0,-24,-24,12,12,-24,43,78,43,29,39,-9
-4,-39,-34,21,14,-36,29,63,34,19,48,-9
24,-19,-43,-2,34,-31,19,68,19,19,48,-9
39,-24,-63,-7,51,-43,0,58,9,9,48,-9
34,-24,-58,-4,46,-41,-24,53,4,9,48,-9
34,-24,-58,-4,46,-41,-29,53,4,9,58,-4
29,-29,-58,0,43,-43,-48,63,19,9,58,-4
29,-24,-53,-2,41,-39,-58,68,29,19,58,4
24,-24,-48,0,36,-36,-63,68,29,19,63,9
19,-24,-43,2,31,-34,-68,68,29,19,63,9
34,-19,-53,-7,43,-36,-82,63,24,29,73,19
43,-14,-58,-14,51,-36,-87,63,24,24,73,19
43,-9,-53,-17,48,-31,-92,68,24,24,73,24
43,-4,-48,-19,46,-26,-97,68,24,24,78,24
43,-14,-58,-14,51,-36,-112,68,24,24,68,14
43,-14,-58,-14,51,-36,-117,73,29,24,68,14
43,0,-43,-21,43,-21,-117,78,29,24,73,14
53,0,-53,-26,53,-26,-122,78,29,24,73,19
43,-4,-48,-19,46,-26,-122,73,19,19,73,19
43,-14,-58,-14,51,-36,-126,73,14,14,73,19
48,-14,-63,-17,56,-39,-126,78,14,14,68,19
48,-9,-58,-19,53,-34,-131,78,14,19,68,19
43,0,-43,-21,43,-21,-126,87,24,19,78,29
48,0,-48,-24,48,-24,-126,92,24,19,78,29
63,4,-58,-34,61,-26,-126,92,29,19,78,29
68,4,-63,-36,65,-29,-131,92,29,19,78,29
58,-4,-63,-26,61,-34,-141,87,14,4,58,19
58,-9,-68,-24,63,-39,-151,87,14,4,68,14
58,-14,-73,-21,65,-43,-156,82,14,4,68,9
58,-19,-78,-19,68,-48,-161,82,14,4,63,4
48,-9,-58,-19,53,-34,-151,82,14,14,63,14
48,-9,-58,-19,53,-34,-151,87,19,19,63,14
53,-9,-63,-21,58,-36,-161,87,19,19,63,14
53,-9,-63,-21,58,-36,-161,87,19,14,63,14
53,-9,-63,-21,58,-36,-165,97,19,14,58,9
53,-9,-63,-21,58,-36,-170,92,19,9,58,9
58,-9,-68,-24,63,-39,-170,92,19,9,58,9
58,-14,-73,-21,65,-43,-170,92,19,9,58,9
63,-9,-73,-26,68,-41,-170,92,19,9,58,9
68,-4,-73,-31,70,-39,-175,92,14,9,58,9
73,0,-73,-36,73,-36,-180,92,14,9,58,9
78,9,-68,-43,73,-29,-180,102,14,14,58,9
68,4,-63,-36,65,-29,-180,102,19,4,58,9
68,4,-63,-36,65,-29,-190,102,19,4,53,9
78,0,-78,-39,78,-39,-195,102,14,-4,48,4
68,-4,-73,-31,70,-39,-200,102,14,-4,48,4
58,4,-53,-31,56,-24,-204,112,14,4,48,4
63,9,-53,-36,58,-21,-209,112,14,4,48,4
63,9,-53,-36,58,-21,-214,112,14,4,48,4
63,9,-53,-36,58,-21,-219,117,14,9,48,4
73,9,-63,-41,68,-26,-224,117,14,9,43,4
73,14,-58,-43,65,-21,-224,117,14,0,39,4
82,19,-63,-51,73,-21,-239,117,4,0,34,4
87,19,-68,-53,78,-24,-239,117,0,0,34,4
87,24,-63,-56,75,-19,-234,117,0,-4,43,4
87,29,-58,-58,73,-14,-239,117,0,-4,43,4
87,29,-58,-58,73,-14,-244,117,-4,-4,39,4
82,29,-53,-56,68,-12,-248,122,-4,-4,39,4
87,39,-48,-63,68,-4,-263,122,-4,-4,34,4
92,43,-48,-68,70,-2,-268,122,-4,-14,34,4
102,43,-58,-73,80,-7,-273,122,-14,-14,34,4
107,48,-58,-78,82,-4,-283,122,-14,-14,34,4
102,43,-58,-73,80,-7,-292,122,-14,-14,29,4
97,48,-48,-73,73,0,-292,122,-14,-14,29,4
92,48,-43,-70,68,2,-297,122,-14,-14,29,4
87,58,-29,-73,58,14,-307,122,-19,-14,29,4
92,63,-29,-78,61,17,-302,131,-9,-14,29,9
92,68,-24,-80,58,21,-302,136,-14,-14,29,14
92,73,-19,-82,56,26,-302,136,-14,-14,29,14
97,78,-19,-87,58,29,-312,136,-9,-9,34,14
102,82,-19,-92,61,31,-317,126,-9,-9,43,19
102,87,-14,-95,58,36,-317,126,-14,-9,43,19
102,97,-4,-100,53,46,-322,126,-19,-9,43,24
102,107,4,-104,48,56,-322,126,-24,-14,43,24
112,107,-4,-109,58,51,-336,126,-34,-14,43,34
107,107,0,-107,53,53,-336,126,-34,-14,43,34
107,97,-9,-102,58,43,-326,117,-39,-14,43,34
112,107,-4,-109,58,51,-326,117,-39,-9,48,39
107,107,0,-107,53,53,-326,117,-43,-9,43,39
107,107,0,-107,53,53,-326,112,-48,-9,43,39
107,107,0,-107,53,53,-326,112,-48,-9,48,43
107,112,4,-109,51,58,-326,112,-48,-9,53,53
112,126,14,-119,48,70,-322,117,-48,-9,58,58
117,126,9,-122,53,68,-317,117,-43,-4,63,58
126,126,0,-126,63,63,-312,117,-43,-4,68,63
131,126,-4,-129,68,61,-302,117,-39,9,73,63
117,112,-4,-114,61,53,-297,122,-39,0,68,53
102,112,9,-107,46,61,-287,126,-29,0,73,53
97,112,14,-104,41,63,-273,131,-24,9,78,58
87,112,24,-100,31,68,-258,141,-19,14,78,63
87,112,24,-100,31,68,-244,151,-9,19,82,63
92,102,9,-97,41,56,-239,156,0,34,87,63
97,102,4,-100,46,53,-219,161,9,34,92,63
107,102,-4,-104,56,48,-200,161,19,39,97,68
97,112,14,-104,41,63,-185,165,19,39,97,68
87,97,9,-92,39,53,-170,170,19,39,97,63
87,97,9,-92,39,53,-151,170,24,53,102,63
87,97,9,-92,39,53,-131,170,39,53,107,63
63,78,14,-70,24,46,-126,180,48,63,117,73
58,78,19,-68,19,48,-117,170,48,63,117,73
53,78,24,-65,14,51,-97,165,53,68,117,73
43,68,24,-56,9,46,-82,161,53,68,117,73
48,68,19,-58,14,43,-73,136,53,58,112,68
48,58,9,-53,19,34,-68,126,53,53,107,63
43,58,14,-51,14,36,-58,112,53,53,107,58
39,58,19,-48,9,39,-53,102,48,53,107,58
39,58,19,-48,9,39,-58,92,34,43,102,48
39,48,9,-43,14,29,-58,73,34,39,92,43
34,43,9,-39,12,26,-58,58,29,34,92,39
24,43,19,-34,2,31,-58,48,19,34,87,39
19,34,14,-26,2,24,-48,43,14,24,82,29
9,29,19,-19,-4,24,-48,24,9,19,78,24
4,29,24,-17,-9,26,-53,9,4,9,78,24
4,29,24,-17,-9,26,-53,0,0,9,78,24
14,24,9,-19,2,17,-63,-9,-4,14,73,24
9,9,0,-9,4,4,-68,-19,-14,9,68,14
9,9,0,-9,4,4,-73,-29,-19,4,63,14
9,9,0,-9,4,4,-73,-39,-19,0,63,14
9,19,9,-14,0,14,-78,-58,-24,-9,48,14
9,14,4,-12,2,9,-78,-63,-29,-9,48,14
4,14,9,-9,-2,12,-78,-68,-34,-9,48,14
4,19,14,-12,-4,17,-78,-73,-39,-14,48,4
9,29,19,-19,-4,24,-92,-78,-43,-9,43,14
19,29,9,-24,4,19,-92,-82,-43,-9,43,14
24,29,4,-26,9,17,-92,-87,-48,-9,39,14
24,24,0,-24,12,12,-97,-87,-48,-14,34,14
14,14,0,-14,7,7,-87,-87,-48,-14,34,14
19,14,-4,-17,12,4,-87,-87,-53,-14,34,14
19,9,-9,-14,14,0,-87,-87,-53,-14,34,14
14,9,-4,-12,9,2,-87,-97,-53,-9,34,14
4,9,4,-7,0,7,-82,-97,-53,-19,43,14
9,9,0,-9,4,4,-82,-97,-53,-19,39,9
9,9,0,-9,4,4,-82,-102,-58,-24,39,9
9,9,0,-9,4,4,-82,-102,-58,-29,39,9
14,9,-4,-12,9,2,-92,-97,-58,-29,29,0
14,0,-14,-7,14,-7,-97,-97,-63,-29,29,0
14,0,-14,-7,14,-7,-97,-97,-63,-29,24,0
19,0,-19,-9,19,-9,-97,-97,-63,-29,19,0
19,9,-9,-14,14,0,-87,-102,-63,-29,29,0
19,9,-9,-14,14,0,-87,-102,-63,-29,29,4
19,9,-9,-14,14,0,-87,-107,-58,-29,34,4
19,9,-9,-14,14,0,-87,-112,-58,-29,39,4
4,0,-4,-2,4,-2,-97,-112,-68,-24,29,-4
4,0,-4,-2,4,-2,-97,-112,-68,-24,29,-4
9,0,-9,-4,9,-4,-97,-112,-68,-24,29,-4
9,-9,-19,0,14,-14,-97,-112,-68,-24,24,-4
9,-4,-14,-2,12,-9,-87,-102,-58,-19,34,0
19,4,-14,-12,17,-4,-82,-102,-58,-19,34,0
19,19,0,-19,9,9,-82,-102,-58,-14,34,0
19,24,4,-21,7,14,-82,-102,-63,-9,34,0
9,4,-4,-7,7,0,-87,-107,-73,-14,29,-9
4,0,-4,-2,4,-2,-92,-107,-73,-19,24,-9
4,-4,-9,0,7,-7,-97,-102,-73,-24,19,-9
0,-9,-9,4,4,-9,-102,-102,-73,-29,9,-9
9,-4,-14,-2,12,-9,-102,-107,-78,-29,19,0
9,-9,-19,0,14,-14,-97,-107,-78,-29,24,0
4,-9,-14,2,9,-12,-92,-107,-73,-29,24,0
4,4,0,-4,2,2,-87,-107,-73,-29,24,0
-4,-14,-9,9,2,-12,-92,-107,-78,-19,19,-9
-4,-14,-9,9,2,-12,-92,-107,-78,-19,19,-9
-4,-14,-9,9,2,-12,-92,-107,-73,-19,19,-9
-4,-14,-9,9,2,-12,-92,-102,-63,-19,19,-9
4,-4,-9,0,7,-7,-102,-112,-73,-19,9,-9
9,-4,-14,-2,12,-9,-102,-112,-78,-19,9,-9
9,-4,-14,-2,12,-9,-102,-112,-82,-19,9,-9
4,-9,-14,2,9,-12,-102,-117,-82,-19,9,-14
4,-19,-24,7,14,-21,-102,-126,-82,-29,0,-14
4,-14,-19,4,12,-17,-102,-126,-82,-29,0,-14
4,-14,-19,4,12,-17,-102,-122,-82,-29,0,-14
4,-14,-19,4,12,-17,-102,-122,-82,-29,0,-14
14,-9,-24,-2,19,-17,-107,-122,-82,-29,-4,-14
14,-9,-24,-2,19,-17,-107,-122,-82,-29,-4,-14
14,-9,-24,-2,19,-17,-107,-122,-82,-29,-4,-9
14,-14,-29,0,21,-21,-107,-131,-87,-29,-4,-9
0,-14,-14,7,7,-14,-107,-126,-78,-29,-4,-9
0,-9,-9,4,4,-9,-107,-122,-78,-29,-4,-9
0,-9,-9,4,4,-9,-102,-117,-73,-29,-4,-9
0,-9,-9,4,4,-9,-102,-112,-73,-34,-4,-9
-14,-4,9,9,-12,2,-107,-122,-82,-24,-4,-9
-14,-4,9,9,-12,2,-112,-126,-82,-24,-4,-14
-9,-4,4,7,-7,0,-112,-126,-78,-19,-4,-14
-9,-4,4,7,-7,0,-112,-131,-78,-19,-9,-14
0,-4,-4,2,2,-4,-102,-131,-82,-34,-9,-24
0,-4,-4,2,2,-4,-107,-131,-82,-34,-4,-24
0,-4,-4,2,2,-4,-107,-126,-87,-34,-4,-24
9,-4,-14,-2,12,-9,-107,-126,-87,-34,-4,-24
9,-14,-24,2,17,-19,-107,-136,-97,-39,-14,-29
4,-19,-24,7,14,-21,-107,-146,-102,-39,-14,-29
4,-19,-24,7,14,-21,-107,-146,-102,-39,-14,-29
4,-14,-19,4,12,-17,-112,-146,-102,-39,-14,-24
14,-14,-29,0,21,-21,-122,-146,-102,-39,-4,-14
19,-14,-34,-2,26,-24,-122,-146,-102,-39,-4,-14
19,-14,-34,-2,26,-24,-122,-146,-102,-39,-4,-19
14,-14,-29,0,21,-21,-122,-146,-102,-39,-4,-19
9,-14,-24,2,17,-19,-122,-146,-97,-43,-4,-24
9,-14,-24,2,17,-19,-122,-141,-97,-43,-4,-24
19,-14,-34,-2,26,-24,-122,-141,-97,-43,-4,-24
9,-14,-24,2,17,-19,-126,-146,-102,-43,-4,-29
4,-4,-9,0,7,-7,-117,-136,-92,-39,-4,-19
4,-4,-9,0,7,-7,-112,-136,-92,-39,0,-19
0,-4,-4,2,2,-4,-112,-141,-92,-39,0,-19
-4,-9,-4,7,0,-7,-117,-141,-97,-39,0,-19
4,-9,-14,2,9,-12,-117,-141,-97,-39,-4,-19
4,-9,-14,2,9,-12,-117,-136,-97,-34,-4,-24
4,-9,-14,2,9,-12,-122,-136,-97,-34,-4,-24
0,-9,-9,4,4,-9,-122,-136,-97,-34,-4,-24
0,-19,-19,9,9,-19,-122,-136,-92,-34,-9,-29
4,-9,-14,2,9,-12,-122,-136,-92,-34,-4,-29
4,-9,-14,2,9,-12,-122,-131,-97,-34,-4,-29
9,-14,-24,2,17,-19,-122,-131,-97,-29,-4,-29
19,-14,-34,-2,26,-24,-122,-131,-107,-39,-4,-29
9,-9,-19,0,14,-14,-117,-126,-97,-39,-4,-29
19,-9,-29,-4,24,-19,-112,-122,-97,-39,-4,-29
19,-9,-29,-4,24,-19,-112,-122,-92,-39,-9,-29
4,-24,-29,9,17,-26,-117,-122,-92,-29,-9,-19
-4,-24,-19,14,7,-21,-122,-122,-92,-29,-9,-19
9,-9,-19,0,14,-14,-122,-122,-97,-29,-9,-14
9,-9,-19,0,14,-14,-117,-122,-97,-24,-4,-14
0,-14,-14,7,7,-14,-126,-122,-97,-29,-4,-14
0,-14,-14,7,7,-14,-126,-122,-92,-24,-4,-14
0,-14,-14,7,7,-14,-122,-117,-92,-24,-4,-9
4,-4,-9,0,7,-7,-117,-117,-92,-19,4,-4
29,9,-19,-19,24,-4,-112,-117,-82,-19,-4,-4
29,9,-19,-19,24,-4,-117,-112,-78,-14,-4,-9
34,4,-29,-19,31,-12,-122,-112,-73,-9,0,-14
34,4,-29,-19,31,-12,-122,-107,-68,-9,4,-19
39,9,-29,-24,34,-9,-102,-107,-58,-9,9,-9
34,4,-29,-19,31,-12,-92,-102,-53,-4,9,-4
19,0,-19,-9,19,-9,-92,-87,-43,0,14,0
24,-4,-29,-9,26,-17,-92,-87,-39,4,19,4
29,24,-4,-26,17,9,-73,-63,-29,9,19,9
43,14,-29,-29,36,-7,-73,-58,-24,19,29,9
58,14,-43,-36,51,-14,-73,-53,-19,24,34,9
68,14,-53,-41,61,-19,-68,-39,-14,24,34,19
68,19,-48,-43,58,-14,-58,-29,0,34,48,24
73,19,-53,-46,63,-17,-53,-24,9,43,58,24
78,24,-53,-51,65,-14,-53,-19,14,43,58,34
82,24,-58,-53,70,-17,-58,-9,19,43,58,34
87,19,-68,-53,78,-24,-48,-4,19,53,68,39
92,24,-68,-58,80,-21,-53,0,19,48,68,43
87,24,-63,-56,75,-19,-58,4,29,48,73,48
82,29,-53,-56,68,-12,-58,4,29,48,73,53
73,39,-34,-56,53,2,-48,19,34,58,73,43
73,39,-34,-56,53,2,-48,9,29,48,73,43
73,24,-48,-48,61,-12,-43,9,34,48,63,39
82,24,-58,-53,70,-17,-48,14,29,43,63,39
92,24,-68,-58,80,-21,-58,19,39,48,63,43
107,24,-82,-65,95,-29,-73,0,24,43,63,39
117,29,-87,-73,102,-29,-92,0,19,39,68,43
126,29,-97,-78,112,-34,-102,0,24,43,78,48
117,39,-78,-78,97,-19,-131,-29,9,29,73,39
112,39,-73,-75,92,-17,-136,-53,-9,19,58,34
112,39,-73,-75,92,-17,-141,-58,-14,14,53,34
112,39,-73,-75,92,-17,-146,-78,-34,0,48,34
117,43,-73,-80,95,-14,-165,-92,-48,-9,34,39
117,43,-73,-80,95,-14,-180,-112,-58,-9,29,39
117,39,-78,-78,97,-19,-190,-126,-68,-19,29,24
122,39,-82,-80,102,-21,-200,-141,-73,-4,34,39
122,34,-87,-78,104,-26,-175,-151,-78,-19,29,24
122,34,-87,-78,104,-26,-175,-146,-82,-24,24,19
122,29,-92,-75,107,-31,-175,-146,-82,-29,29,19
122,29,-92,-75,107,-31,-165,-146,-82,-19,34,24
122,39,-82,-80,102,-21,-165,-151,-78,-29,24,34
131,58,-73,-95,102,-7,-156,-131,-68,-14,39,48
131,48,-82,-90,107,-17,-151,-131,-53,-4,43,48
126,39,-87,-82,107,-24,-161,-122,-53,4,48,53
126,39,-87,-82,107,-24,-156,-117,-48,9,58,58
126,29,-97,-78,112,-34,-156,-117,-58,9,58,48
126,29,-97,-78,112,-34,-156,-117,-58,9,58,48
126,29,-97,-78,112,-34,-156,-117,-58,9,58,48
126,29,-97,-78,112,-34,-156,-117,-58,9,58,48
102,29,-73,-65,87,-21,-146,-136,-68,-4,34,34
97,29,-68,-63,82,-19,-146,-146,-73,-14,29,34
87,29,-58,-58,73,-14,-146,-151,-82,-24,19,29
68,19,-48,-43,58,-14,-146,-165,-92,-34,4,24
43,9,-34,-26,39,-12,-141,-165,-102,-43,4,9
43,19,-24,-31,34,-2,-126,-156,-102,-34,4,9
43,19,-24,-31,34,-2,-122,-156,-97,-34,4,9
24,4,-19,-14,21,-7,-117,-156,-97,-34,0,4
-9,-9,0,9,-4,-4,-107,-146,-97,-34,-4,-4
-24,-29,-4,26,-9,-17,-107,-151,-97,-39,-19,-19
-24,-29,-4,26,-9,-17,-97,-151,-97,-43,-24,-29
-24,-29,-4,26,-9,-17,-97,-156,-107,-48,-24,-29
-19,-29,-9,24,-4,-19,-107,-165,-122,-58,-29,-34
-14,-29,-14,21,0,-21,-112,-165,-126,-58,-34,-34
-9,-39,-29,24,9,-34,-112,-161,-126,-58,-39,-34
-4,-39,-34,21,14,-36,-112,-161,-131,-63,-43,-43
-19,-48,-29,34,4,-39,-112,-161,-131,-63,-53,-53
-19,-48,-29,34,4,-39,-112,-165,-131,-63,-48,-53
-19,-43,-24,31,2,-34,-112,-165,-126,-58,-48,-53
-19,-43,-24,31,2,-34,-112,-165,-126,-58,-48,-48
-14,-39,-24,26,4,-31,-112,-165,-126,-48,-39,-48
-19,-34,-14,26,-2,-24,-112,-165,-126,-48,-39,-48
-19,-34,-14,26,-2,-24,-112,-165,-126,-48,-39,-53
-14,-29,-14,21,0,-21,-107,-165,-126,-48,-39,-53
-19,-24,-4,21,-7,-14,-112,-170,-117,-48,-39,-48
-24,-24,0,24,-12,-12,-112,-170,-117,-48,-39,-48
-24,-24,0,24,-12,-12,-112,-170,-112,-43,-39,-48
-29,-24,4,26,-17,-9,-112,-170,-112,-43,-39,-48
-24,-24,0,24,-12,-12,-102,-170,-122,-43,-34,-43
-19,-19,0,19,-9,-9,-102,-170,-122,-43,-34,-39
-14,-19,-4,17,-4,-12,-102,-170,-122,-39,-34,-34
-9,-24,-14,17,2,-19,-102,-165,-122,-39,-34,-29
-14,-34,-19,24,2,-26,-97,-156,-112,-39,-24,-29
-24,-34,-9,29,-7,-21,-97,-156,-112,-39,-24,-29
-29,-34,-4,31,-12,-19,-97,-156,-112,-34,-19,-29
-34,-29,4,31,-19,-12,-97,-156,-107,-34,-19,-24
-24,-19,4,21,-14,-7,-87,-156,-107,-34,-29,-34
-24,-19,4,21,-14,-7,-87,-156,-107,-34,-29,-34
-24,-19,4,21,-14,-7,-87,-156,-107,-34,-29,-34
-24,-19,4,21,-14,-7,-87,-156,-107,-34,-34,-39
-34,-19,14,26,-24,-2,-87,-156,-117,-43,-43,-39
-14,-19,-4,17,-4,-12,-97,-151,-107,-34,-43,-39
-4,-19,-14,12,4,-17,-87,-151,-102,-34,-43,-39
-24,-19,4,21,-14,-7,-87,-161,-112,-43,-53,-58
-24,-14,9,19,-17,-2,-92,-175,-117,-43,-58,-58
-9,-14,-4,12,-2,-9,-82,-180,-112,-34,-58,-58
-14,-19,-4,17,-4,-12,-73,-185,-122,-48,-53,-53
-29,-19,9,24,-19,-4,-73,-204,-141,-58,-58,-58
-53,-19,34,36,-43,7,-73,-224,-151,-58,-68,-58
-73,-29,43,51,-58,7,-92,-253,-165,-68,-73,-58
-82,-14,68,48,-75,26,-107,-312,-200,-68,-78,-48
-102,-4,97,53,-100,46,-126,-405,-253,-97,-82,-48
-102,0,102,51,-102,51,-146,-488,-307,-122,-97,-48
-82,19,102,31,-92,61,-180,-570,-375,-136,-97,-34
-87,0,87,43,-87,43,-234,-668,-439,-180,-117,-34
-87,-24,63,56,-75,19,-297,-751,-522,-219,-136,-39
-43,-4,39,24,-41,17,-326,-805,-575,-248,-141,-39
-14,-4,9,9,-12,2,-366,-839,-610,-263,-151,-39
-9,-19,-9,14,0,-14,-380,-888,-639,-287,-156,-39
-19,-48,-29,34,4,-39,-395,-927,-697,-312,-195,-68
-43,-87,-43,65,0,-65,-414,-971,-746,-351,-239,-78
-19,-58,-39,39,9,-48,-429,-990,-761,-361,-244,-63
9,-4,-14,-2,12,-9,-429,-956,-746,-336,-214,-24
19,34,14,-26,2,24,-429,-893,-688,-292,-185,9
53,78,24,-65,14,51,-419,-829,-658,-273,-165,48
68,102,34,-85,17,68,-405,-756,-634,-273,-165,73
73,112,39,-92,17,75,-370,-649,-580,-248,-151,97
82,161,78,-122,2,119,-312,-551,-517,-209,-131,126
82,204,122,-143,-19,163,-268,-483,-473,-180,-141,131
73,258,185,-165,-56,222,-209,-453,-419,-146,-131,156
68,341,273,-204,-102,307,-165,-429,-361,-97,-97,214
39,439,400,-239,-180,419,-141,-385,-278,-39,-68,278
48,483,434,-265,-192,458,-102,-292,-180,0,-63,278
78,444,366,-261,-143,405,-43,-141,-53,9,-117,214
87,356,268,-222,-90,312,39,53,97,34,-156,146
92,297,204,-195,-56,251,146,297,292,102,-136,122
112,239,126,-175,-7,183,229,536,444,156,-107,112
102,165,63,-134,19,114,287,688,502,156,-117,87
78,92,14,-85,31,53,366,810,570,146,-131,68
29,53,24,-41,2,39,434,936,712,195,-126,48
-9,14,24,-2,-17,19,502,1054,854,244,-117,19
-53,-29,24,41,-39,-2,575,1122,946,287,-92,-24
-97,-63,34,80,-65,-14,614,1127,985,317,-68,-53
-97,-78,19,87,-58,-29,668,1166,1010,322,-48,-73
-141,-112,29,126,-85,-41,746,1249,1117,380,-43,-112
-209,-156,53,183,-131,-51,858,1356,1288,483,4,-146
-229,-180,48,204,-139,-65,941,1429,1444,566,48,-175
-234,-219,14,226,-124,-102,1039,1527,1527,580,39,-214
-268,-253,14,261,-141,-119,1127,1634,1620,590,9,-258
-292,-244,48,268,-170,-97,1224,1722,1742,614,24,-258
-297,-219,78,258,-187,-70,1322,1751,1820,649,39,-253
-317,-219,97,268,-207,-61,1410,1698,1839,649,48,-244
-331,-219,112,275,-222,-53,1493,1546,1810,624,34,-248
-366,-234,131,300,-248,-51,1581,1268,1610,502,-48,-292
-405,-258,146,331,-275,-56,1668,932,1220,302,-185,-356
-473,-287,185,380,-329,-51,1776,649,810,92,-326,-409
-517,-317,200,417,-358,-58,1883,448,502,-63,-429,-453
-507,-312,195,409,-351,-58,1947,278,287,-170,-468,-473
-492,-312,180,402,-336,-65,2000,117,53,-273,-507,-478
-527,-331,195,429,-361,-68,2083,-4,-165,-361,-546,-502
-546,-331,214,439,-380,-58,2181,-73,-258,-405,-585,-512
-536,-317,219,427,-378,-48,2235,-92,-253,-385,-575,-512
-512,-307,204,409,-358,-51,2205,-102,-239,-375,-566,-492
-468,-292,175,380,-322,-58,2064,-146,-263,-370,-531,-468
-419,-278,141,348,-280,-68,1878,-204,-292,-361,-473,-439
-380,-253,126,317,-253,-63,1737,-239,-297,-326,-419,-390
-341,-224,117,283,-229,-53,1586,-219,-297,-278,-366,-346
-297,-195,102,246,-200,-46,1351,-170,-258,-239,-326,-302
-244,-170,73,207,-158,-48,1107,-92,-190,-175,-253,-244
-204,-161,43,183,-124,-58,888,-39,-141,-141,-200,-195
-165,-151,14,158,-90,-68,688,-34,-117,-126,-175,-170
-102,-92,9,97,-56,-41,468,-34,-102,-97,-136,-126
-73,-73,0,73,-36,-36,273,-34,-73,-73,-82,-87
-53,-87,-34,70,-9,-61,170,-19,-53,-48,-63,-73
-29,-73,-43,51,7,-58,136,19,-24,-19,-39,-58
-48,-78,-29,63,-9,-53,92,39,-9,-9,-39,-58
-78,-97,-19,87,-29,-58,53,48,-24,-24,-48,-68
-48,-68,-19,58,-14,-43,48,58,-19,-19,-39,-48
-9,-34,-24,21,7,-29,39,68,0,0,-9,-29
9,-24,-34,7,21,-29,34,58,14,9,9,-19
14,-29,-43,7,29,-36,19,43,14,9,9,-29
4,-48,-53,21,29,-51,-9,29,0,9,0,-29
19,-34,-53,7,36,-43,-29,29,0,19,9,-19
34,-14,-48,-9,41,-31,-43,43,4,19,9,-9
24,-34,-58,4,41,-46,-58,53,-4,0,0,-14
24,-19,-43,-2,34,-31,-68,43,0,9,9,-24
29,-14,-43,-7,36,-29,-78,48,9,19,9,-14
29,-14,-43,-7,36,-29,-82,48,9,19,14,-9
29,-14,-43,-7,36,-29,-87,48,9,19,14,-9
43,-14,-58,-14,51,-36,-92,43,-4,9,14,0
53,-14,-68,-19,61,-41,-97,43,-4,4,14,0
53,-14,-68,-19,61,-41,-102,48,-4,4,14,4
53,-14,-68,-19,61,-41,-107,48,-4,4,19,4
43,-14,-58,-14,51,-36,-122,58,4,14,19,4
43,-14,-58,-14,51,-36,-126,63,9,14,19,4
43,0,-43,-21,43,-21,-126,68,9,14,24,4
53,0,-53,-26,53,-26,-131,68,9,14,24,9
53,-14,-68,-19,61,-41,-131,53,9,9,24,9
53,-24,-78,-14,65,-51,-136,53,4,4,24,9
58,-24,-82,-17,70,-53,-136,58,4,4,19,9
58,-19,-78,-19,68,-48,-141,58,4,9,19,9
48,-19,-68,-14,58,-43,-146,68,4,9,19,9
48,-19,-68,-14,58,-43,-146,73,4,9,19,9
58,-14,-73,-21,65,-43,-146,73,9,9,19,9
58,-14,-73,-21,65,-43,-151,73,9,9,19,9
48,-29,-78,-9,63,-53,-165,63,4,-4,9,-4
48,-29,-78,-9,63,-53,-170,68,4,-4,19,-4
48,-29,-78,-9,63,-53,-170,68,4,-4,19,-4
48,-29,-78,-9,63,-53,-170,73,4,-4,14,-4
53,-19,-73,-17,63,-46,-161,73,4,4,24,4
58,-19,-78,-19,68,-48,-161,78,9,9,24,4
68,-19,-87,-24,78,-53,-170,78,9,9,24,4
73,-19,-92,-26,82,-56,-170,78,9,4,24,4
63,-19,-82,-21,73,-51,-165,87,0,-4,9,-9
63,-19,-82,-21,73,-51,-170,82,0,-9,9,-9
68,-19,-87,-24,78,-53,-170,82,0,-9,9,-9
68,-24,-92,-21,80,-58,-170,82,0,-9,9,-9
58,-24,-82,-17,70,-53,-180,82,9,0,9,0
58,-24,-82,-17,70,-53,-185,82,4,0,9,0
58,-24,-82,-17,70,-53,-190,82,4,0,9,0
58,-19,-78,-19,68,-48,-190,92,4,4,9,0
68,-9,-78,-29,73,-43,-180,102,9,4,19,0
68,-4,-73,-31,70,-39,-190,102,9,4,14,0
78,-4,-82,-36,80,-43,-195,102,4,-4,9,-4
68,-4,-73,-31,70,-39,-200,102,4,-4,9,-4
68,-14,-82,-26,75,-48,-204,102,-4,-4,0,-4
73,-9,-82,-31,78,-46,-209,102,-4,-4,0,-4
73,-9,-82,-31,78,-46,-214,102,-4,-4,0,-4
73,-9,-82,-31,78,-46,-219,107,-4,0,0,-4
73,0,-73,-36,73,-36,-234,97,-4,-9,-4,-4
73,4,-68,-39,70,-31,-234,97,-4,-19,-9,-4
82,9,-73,-46,78,-31,-248,97,-14,-19,-14,-4
87,9,-78,-48,82,-34,-248,97,-19,-19,-14,-4
97,9,-87,-53,92,-39,-253,97,-9,-24,-24,-14
97,9,-87,-53,92,-39,-258,97,-9,-24,-24,-14
97,4,-92,-51,95,-43,-263,97,-14,-24,-29,-14
92,0,-92,-46,92,-46,-268,102,-14,-24,-29,-14
82,4,-78,-43,80,-36,-273,102,-14,-14,-24,-14
82,14,-68,-48,75,-26,-278,102,-14,-24,-24,-14
87,19,-68,-53,78,-24,-283,102,-24,-24,-24,-14
87,29,-58,-58,73,-14,-292,102,-24,-24,-24,-14
97,34,-63,-65,80,-14,-302,112,-14,-34,-19,-9
97,39,-58,-68,78,-9,-302,112,-14,-34,-19,-4
97,39,-58,-68,78,-9,-307,112,-14,-34,-19,0
97,48,-48,-73,73,0,-317,112,-19,-34,-19,4
97,43,-53,-70,75,-4,-312,112,-29,-24,-19,9
92,48,-43,-70,68,2,-312,117,-34,-24,-19,14
87,53,-34,-70,61,9,-312,117,-34,-24,-19,14
87,58,-29,-73,58,14,-322,117,-29,-19,-14,14
92,53,-39,-73,65,7,-326,117,-29,-29,-24,9
92,58,-34,-75,63,12,-326,117,-34,-29,-24,9
92,68,-24,-80,58,21,-331,117,-39,-29,-24,14
92,78,-14,-85,53,31,-331,117,-43,-34,-24,14
102,87,-14,-95,58,36,-336,117,-34,-24,-14,24
97,87,-9,-92,53,39,-336,117,-34,-24,-14,24
97,78,-19,-87,58,29,-326,107,-39,-24,-14,24
102,87,-14,-95,58,36,-326,107,-39,-19,-9,29
117,92,-24,-104,70,34,-326,107,-43,-19,-4,34
117,97,-19,-107,68,39,-326,102,-48,-19,-4,39
117,102,-14,-109,65,43,-326,102,-48,-19,0,48
117,112,-4,-114,61,53,-326,102,-48,-19,4,63
107,112,4,-109,51,58,-322,107,-48,-19,0,63
107,107,0,-107,53,53,-317,107,-43,-14,4,58
112,102,-9,-107,61,46,-312,107,-43,-14,9,58
112,97,-14,-104,63,41,-302,107,-39,0,14,53
112,92,-19,-102,65,36,-307,112,-48,0,19,53
102,92,-9,-97,56,41,-297,117,-39,0,24,53
102,92,-9,-97,56,41,-283,122,-34,9,29,58
97,92,-4,-95,51,43,-268,131,-29,14,29,63
87,102,14,-95,36,58,-253,151,-19,9,43,73
82,92,9,-87,36,51,-248,156,-9,24,48,73
78,92,14,-85,31,53,-229,161,0,24,53,73
78,92,14,-85,31,53,-209,161,9,29,58,78
87,102,14,-95,36,58,-195,175,19,39,58,78
78,87,9,-82,34,48,-180,180,19,39,58,73
78,87,9,-82,34,48,-161,180,24,53,63,73
78,87,9,-82,34,48,-141,180,39,53,68,73
68,87,19,-78,24,53,-126,180,43,53,78,73
68,87,19,-78,24,53,-117,170,48,53,78,73
68,87,19,-78,24,53,-97,165,58,58,78,73
63,78,14,-70,24,46,-82,161,63,58,78,73
53,73,19,-63,17,46,-82,136,58,48,68,63
48,58,9,-53,19,34,-78,126,53,43,58,53
39,53,14,-46,12,34,-68,112,48,43,53,43
29,48,19,-39,4,34,-63,102,39,43,48,39
34,48,14,-41,9,31,-58,102,43,43,53,39
39,39,0,-39,19,19,-58,82,43,39,43,34
39,34,-4,-36,21,14,-58,68,39,34,43,29
34,34,0,-34,17,17,-58,58,29,34,39,29
24,34,9,-29,7,21,-48,53,24,43,34,29
19,29,9,-24,4,19,-48,34,19,39,29,24
19,29,9,-24,4,19,-53,19,14,29,29,24
24,29,4,-26,9,17,-53,9,9,29,29,24
34,29,-4,-31,19,12,-53,-9,4,24,24,34
29,19,-9,-24,19,4,-58,-19,-4,19,19,24
29,24,-4,-26,17,9,-63,-29,-9,14,14,24
29,29,0,-29,14,14,-63,-39,-9,9,14,24
19,19,0,-19,9,9,-68,-48,-24,0,9,14
19,14,-4,-17,12,4,-68,-53,-29,0,9,14
14,14,0,-14,7,7,-68,-58,-34,0,9,14
14,19,4,-17,4,12,-68,-63,-39,-4,9,4
4,9,4,-7,0,7,-63,-58,-34,0,4,4
9,9,0,-9,4,4,-63,-63,-34,0,4,4
9,9,0,-9,4,4,-63,-68,-39,0,0,4
4,4,0,-4,2,2,-68,-68,-39,-4,-4,4
14,14,0,-14,7,7,-58,-68,-39,-4,0,14
19,14,-4,-17,12,4,-58,-68,-43,-4,4,14
19,9,-9,-14,14,0,-58,-68,-43,-4,9,14
14,9,-4,-12,9,2,-58,-78,-43,0,14,14
14,0,-14,-7,14,-7,-63,-87,-53,-9,4,24
19,0,-19,-9,19,-9,-63,-87,-53,-9,0,19
19,0,-19,-9,19,-9,-63,-92,-58,-14,0,19
19,0,-19,-9,19,-9,-63,-92,-58,-19,0,19
4,9,4,-7,0,7,-63,-87,-48,-9,0,9
4,0,-4,-2,4,-2,-68,-87,-53,-9,0,9
4,0,-4,-2,4,-2,-68,-87,-53,-9,-4,9
9,0,-9,-4,9,-4,-68,-87,-53,-9,-9,9
19,0,-19,-9,19,-9,-68,-97,-53,-9,-9,9
19,0,-19,-9,19,-9,-68,-92,-53,-9,-9,14
19,0,-19,-9,19,-9,-68,-92,-48,-9,-4,14
19,0,-19,-9,19,-9,-68,-92,-48,-9,0,14
24,4,-19,-14,21,-7,-68,-82,-48,-14,-9,4
24,9,-14,-17,19,-2,-68,-82,-48,-14,-9,4
29,14,-14,-21,21,0,-68,-82,-48,-14,-9,4
29,9,-19,-19,24,-4,-68,-82,-48,-14,-14,4
19,4,-14,-12,17,-4,-78,-82,-48,-14,-14,9
29,4,-24,-17,26,-9,-73,-82,-48,-19,-14,9
29,9,-19,-19,24,-4,-73,-82,-48,-19,-14,9
29,4,-24,-17,26,-9,-73,-82,-53,-19,-14,9
14,-9,-24,-2,19,-17,-63,-97,-63,-9,-4,9
14,-9,-24,-2,19,-17,-63,-97,-63,-9,-4,9
19,-9,-29,-4,24,-19,-63,-92,-63,-9,-4,9
19,-9,-29,-4,24,-19,-63,-92,-63,-9,-9,9
19,-4,-24,-7,21,-14,-58,-87,-58,-19,-19,9
19,-9,-29,-4,24,-19,-58,-87,-58,-19,-14,9
14,-9,-24,-2,19,-17,-58,-87,-53,-19,-14,9
14,4,-9,-9,12,-2,-58,-87,-53,-19,-14,9
24,4,-19,-14,21,-7,-58,-97,-68,-19,-9,9
24,4,-19,-14,21,-7,-63,-97,-68,-19,-9,9
24,4,-19,-14,21,-7,-68,-97,-63,-19,-9,9
24,4,-19,-14,21,-7,-73,-92,-53,-19,-9,9
24,14,-9,-19,17,2,-63,-82,-53,-9,0,19
29,14,-14,-21,21,0,-63,-82,-58,-9,0,19
29,14,-14,-21,21,0,-63,-82,-63,-9,0,19
24,9,-14,-17,19,-2,-63,-87,-63,-9,0,14
19,4,-14,-12,17,-4,-63,-87,-53,-9,-9,14
14,4,-9,-9,12,-2,-63,-87,-53,-9,-9,14
9,0,-9,-4,9,-4,-63,-82,-53,-9,-9,14
4,-4,-9,0,7,-7,-63,-82,-53,-9,-9,14
14,0,-14,-7,14,-7,-58,-82,-53,-9,-14,4
14,0,-14,-7,14,-7,-58,-82,-53,-9,-14,4
14,0,-14,-7,14,-7,-58,-82,-53,-9,-14,9
14,-4,-19,-4,17,-12,-58,-92,-58,-9,-14,9
0,-14,-14,7,7,-14,-63,-92,-68,-19,-24,9
0,-9,-9,4,4,-9,-68,-92,-68,-19,-24,9
0,-9,-9,4,4,-9,-68,-92,-63,-19,-24,9
0,-9,-9,4,4,-9,-73,-92,-63,-24,-24,9
4,-4,-9,0,7,-7,-68,-92,-73,-24,-24,9
4,-4,-9,0,7,-7,-73,-97,-73,-24,-24,4
9,-4,-14,-2,12,-9,-73,-97,-68,-19,-24,4
9,-4,-14,-2,12,-9,-73,-102,-68,-19,-29,4
19,4,-14,-12,17,-4,-63,-102,-63,-14,-19,14
19,4,-14,-12,17,-4,-68,-102,-63,-14,-14,14
19,4,-14,-12,17,-4,-68,-97,-68,-14,-14,14
29,4,-24,-17,26,-9,-68,-97,-68,-14,-14,14
19,4,-14,-12,17,-4,-68,-87,-68,-19,-14,9
14,0,-14,-7,14,-7,-68,-97,-73,-19,-14,9
14,0,-14,-7,14,-7,-68,-97,-73,-19,-14,9
14,4,-9,-9,12,-2,-73,-97,-73,-19,-14,14
4,-4,-9,0,7,-7,-82,-107,-82,-19,-14,4
