I,II,III,aVR,aVL,aVF,V1,V2,V3,V4,V5,V6
-331,-146,185,239,-258,19,536,927,312,-380,-653,-634
-331,-146,185,239,-258,19,536,927,312,-380,-653,-634
-331,-146,185,239,-258,19,536,927,312,-380,-653,-634
-331,-146,185,239,-258,19,536,927,312,-380,-653,-634
-331,-161,170,246,-251,4,575,951,283,-405,-663,-644
-331,-165,165,248,-248,0,614,976,263,-419,-663,-644
-331,-170,161,251,-246,-4,653,1000,244,-434,-663,-644
-331,-175,156,253,-244,-9,692,1024,224,-448,-663,-644
-341,-195,146,268,-244,-24,732,985,161,-468,-658,-629
-341,-214,126,278,-234,-43,771,956,107,-488,-653,-614
-341,-234,107,287,-224,-63,810,927,53,-507,-649,-600
-341,-253,87,297,-214,-82,849,897,0,-527,-644,-585
-346,-263,82,305,-214,-90,878,814,-58,-551,-653,-570
-351,-263,87,307,-219,-87,897,732,-117,-566,-653,-566
-356,-263,92,309,-224,-85,917,649,-175,-580,-653,-561
-361,-263,97,312,-229,-82,936,566,-234,-595,-653,-556
-366,-273,92,319,-229,-90,946,497,-253,-575,-634,-531
-370,-273,97,322,-234,-87,956,439,-263,-566,-614,-517
-375,-273,102,324,-239,-85,966,380,-273,-556,-595,-502
-380,-273,107,326,-244,-82,976,322,-283,-546,-575,-488
-366,-268,97,317,-231,-85,966,268,-307,-546,-561,-478
-361,-263,97,312,-229,-82,956,214,-322,-546,-556,-468
-356,-258,97,307,-226,-80,946,161,-336,-546,-551,-458
-351,-253,97,302,-224,-78,936,107,-351,-546,-546,-448
-341,-239,102,290,-222,-68,893,82,-346,-527,-522,-429
-331,-234,97,283,-214,-68,858,58,-341,-507,-497,-409
-322,-229,92,275,-207,-68,824,34,-336,-488,-473,-390
-312,-224,87,268,-200,-68,790,9,-331,-468,-448,-370
-283,-204,78,244,-180,-63,688,-24,-326,-444,-419,-341
-253,-195,58,224,-156,-68,595,-58,-322,-419,-390,-322
-224,-185,39,204,-131,-73,502,-92,-317,-395,-361,-302
-195,-175,19,185,-107,-78,409,-126,-312,-370,-331,-283
-161,-146,14,153,-87,-65,292,-141,-283,-336,-307,-258
-136,-126,9,131,-73,-58,185,-156,-263,-312,-283,-234
-112,-107,4,109,-58,-51,78,-170,-244,-287,-258,-209
-87,-87,0,87,-43,-43,-29,-185,-224,-263,-234,-185
-78,-63,14,70,-46,-24,-63,-180,-200,-234,-204,-165
-68,-48,19,58,-43,-14,-97,-175,-185,-214,-185,-146
-58,-34,24,46,-41,-4,-131,-170,-170,-195,-165,-126
-48,-19,29,34,-39,4,-165,-165,-156,-175,-146,-107
-43,-9,34,26,-39,12,-200,-185,-161,-175,-141,-102
-39,-9,29,24,-34,9,-224,-195,-165,-175,-136,-97
-34,-9,24,21,-29,7,-248,-204,-170,-175,-131,-92
-29,-9,19,19,-24,4,-273,-214,-175,-175,-126,-87
-39,-19,19,29,-29,0,-287,-219,-180,-185,-136,-97
-39,-19,19,29,-29,0,-292,-224,-185,-185,-136,-97
-39,-19,19,29,-29,0,-297,-229,-190,-185,-136,-97
-39,-19,19,29,-29,0,-302,-234,-195,-185,-136,-97
-29,-29,0,29,-14,-14,-312,-234,-195,-185,-126,-82
-29,-29,0,29,-14,-14,-322,-234,-195,-185,-126,-78
-29,-29,0,29,-14,-14,-331,-234,-195,-185,-126,-73
-29,-29,0,29,-14,-14,-341,-234,-195,-185,-126,-68
-14,-39,-24,26,4,-31,-341,-234,-195,-175,-136,-73
-9,-39,-29,24,9,-34,-341,-234,-195,-175,-136,-78
-4,-39,-34,21,14,-36,-341,-234,-195,-175,-136,-82
0,-39,-39,19,19,-39,-341,-234,-195,-175,-136,-87
0,-29,-29,14,14,-29,-351,-244,-200,-180,-131,-82
0,-29,-29,14,14,-29,-351,-244,-204,-185,-126,-78
0,-29,-29,14,14,-29,-351,-244,-209,-190,-122,-73
0,-29,-29,14,14,-29,-351,-244,-214,-195,-117,-68
0,-43,-43,21,21,-43,-341,-253,-224,-200,-122,-78
0,-48,-48,24,24,-48,-341,-253,-224,-204,-126,-78
0,-53,-53,26,26,-53,-341,-253,-224,-209,-131,-78
0,-58,-58,29,29,-58,-341,-253,-224,-214,-136,-78
0,-58,-58,29,29,-58,-351,-263,-234,-214,-146,-87
0,-58,-58,29,29,-58,-351,-263,-234,-214,-146,-87
0,-58,-58,29,29,-58,-351,-263,-234,-214,-146,-87
0,-58,-58,29,29,-58,-351,-263,-234,-214,-146,-87
-14,-53,-39,34,12,-46,-351,-263,-244,-204,-131,-68
-19,-48,-29,34,4,-39,-351,-263,-244,-204,-126,-58
-24,-43,-19,34,-2,-31,-351,-263,-244,-204,-122,-48
-29,-39,-9,34,-9,-24,-351,-263,-244,-204,-117,-39
-14,-39,-24,26,4,-31,-356,-278,-253,-224,-131,-53
-9,-39,-29,24,9,-34,-361,-283,-263,-234,-146,-68
-4,-39,-34,21,14,-36,-366,-287,-273,-244,-161,-82
0,-39,-39,19,19,-39,-370,-292,-283,-253,-175,-97
-9,-43,-34,26,12,-39,-361,-292,-283,-248,-161,-97
-9,-48,-39,29,14,-43,-361,-292,-283,-244,-156,-97
-9,-53,-43,31,17,-48,-361,-292,-283,-239,-151,-97
-9,-58,-48,34,19,-53,-361,-292,-283,-234,-146,-97
0,-48,-48,24,24,-48,-351,-302,-297,-244,-151,-92
0,-48,-48,24,24,-48,-351,-302,-302,-253,-156,-87
0,-48,-48,24,24,-48,-351,-302,-307,-263,-161,-82
0,-48,-48,24,24,-48,-351,-302,-312,-273,-165,-78
0,-58,-58,29,29,-58,-341,-312,-322,-273,-156,-68
0,-58,-58,29,29,-58,-341,-312,-322,-273,-156,-68
0,-58,-58,29,29,-58,-341,-312,-322,-273,-156,-68
0,-58,-58,29,29,-58,-341,-312,-322,-273,-156,-68
-4,-48,-43,26,19,-46,-336,-302,-322,-263,-146,-63
-9,-48,-39,29,14,-43,-331,-302,-322,-263,-146,-58
-14,-48,-34,31,9,-41,-326,-302,-322,-263,-146,-53
-19,-48,-29,34,4,-39,-322,-302,-322,-263,-146,-48
-9,-48,-39,29,14,-43,-331,-312,-312,-258,-136,-39
0,-48,-48,24,24,-48,-331,-312,-312,-253,-126,-39
9,-48,-58,19,34,-53,-331,-312,-312,-248,-117,-39
19,-48,-68,14,43,-58,-331,-312,-312,-244,-107,-39
29,-39,-68,4,48,-53,-322,-302,-322,-253,-107,-24
29,-39,-68,4,48,-53,-322,-302,-322,-253,-107,-19
29,-39,-68,4,48,-53,-322,-302,-322,-253,-107,-14
29,-39,-68,4,48,-53,-322,-302,-322,-253,-107,-9
19,-39,-58,9,39,-48,-317,-302,-326,-258,-97,-4
19,-39,-58,9,39,-48,-312,-302,-331,-263,-97,0
19,-39,-58,9,39,-48,-307,-302,-336,-268,-97,4
19,-39,-58,9,39,-48,-302,-302,-341,-273,-97,9
29,-39,-68,4,48,-53,-292,-297,-336,-253,-82,24
39,-39,-78,0,58,-58,-292,-292,-331,-244,-68,29
48,-39,-87,-4,68,-63,-292,-287,-326,-234,-53,34
58,-39,-97,-9,78,-68,-292,-283,-322,-224,-39,39
63,-24,-87,-19,75,-56,-287,-273,-317,-214,-19,53
68,-9,-78,-29,73,-43,-283,-273,-312,-204,-9,68
73,4,-68,-39,70,-31,-278,-273,-307,-195,0,82
78,19,-58,-48,68,-19,-273,-273,-302,-185,9,97
87,29,-58,-58,73,-14,-292,-273,-297,-170,24,102
87,29,-58,-58,73,-14,-302,-273,-292,-165,29,107
87,29,-58,-58,73,-14,-312,-273,-287,-161,34,112
87,29,-58,-58,73,-14,-322,-273,-283,-156,39,117
92,43,-48,-68,70,-2,-366,-292,-283,-146,58,136
97,48,-48,-73,73,0,-400,-302,-283,-136,68,146
102,53,-48,-78,75,2,-434,-312,-283,-126,78,156
107,58,-48,-82,78,4,-468,-322,-283,-117,87,165
107,58,-48,-82,78,4,-492,-351,-292,-131,82,165
107,58,-48,-82,78,4,-507,-370,-302,-136,78,165
107,58,-48,-82,78,4,-522,-390,-312,-141,73,165
107,58,-48,-82,78,4,-536,-409,-322,-146,68,165
107,68,-39,-87,73,14,-556,-414,-312,-141,87,175
107,68,-39,-87,73,14,-566,-419,-312,-136,97,185
107,68,-39,-87,73,14,-575,-424,-312,-131,107,195
107,68,-39,-87,73,14,-585,-429,-312,-126,117,204
107,78,-29,-92,68,24,-600,-424,-302,-107,122,195
107,78,-29,-92,68,24,-605,-419,-292,-97,126,195
107,78,-29,-92,68,24,-610,-414,-283,-87,131,195
107,78,-29,-92,68,24,-614,-409,-273,-78,136,195
117,68,-48,-92,82,9,-605,-395,-268,-73,136,185
117,68,-48,-92,82,9,-605,-390,-263,-68,136,185
117,68,-48,-92,82,9,-605,-385,-258,-63,136,185
117,68,-48,-92,82,9,-605,-380,-253,-58,136,185
117,68,-48,-92,82,9,-600,-370,-234,-39,151,190
117,68,-48,-92,82,9,-595,-361,-224,-29,156,195
117,68,-48,-92,82,9,-590,-351,-214,-19,161,200
117,68,-48,-92,82,9,-585,-341,-204,-9,165,204
102,68,-34,-85,68,17,-580,-331,-190,-9,151,195
97,68,-29,-82,63,19,-575,-322,-185,-9,146,185
92,68,-24,-80,58,21,-570,-312,-180,-9,141,175
87,68,-19,-78,53,24,-566,-302,-175,-9,136,165
87,58,-29,-73,58,14,-546,-287,-165,-29,112,141
87,58,-29,-73,58,14,-527,-283,-165,-39,97,126
87,58,-29,-73,58,14,-507,-278,-165,-48,82,112
87,58,-29,-73,58,14,-488,-273,-165,-58,68,97
78,43,-34,-61,56,4,-448,-258,-156,-53,58,87
68,39,-29,-53,48,4,-419,-244,-146,-48,58,87
58,34,-24,-46,41,4,-390,-229,-136,-43,58,87
48,29,-19,-39,34,4,-361,-214,-126,-39,58,87
39,39,0,-39,19,19,-346,-204,-117,-29,48,78
39,39,0,-39,19,19,-341,-195,-107,-19,48,68
39,39,0,-39,19,19,-336,-185,-97,-9,48,58
39,39,0,-39,19,19,-331,-175,-87,0,48,48
29,39,9,-34,9,24,-317,-161,-92,-24,19,34
29,39,9,-34,9,24,-302,-156,-97,-39,0,19
29,39,9,-34,9,24,-287,-151,-102,-53,-19,4
29,39,9,-34,9,24,-273,-146,-107,-68,-39,-9
24,24,0,-24,12,12,-263,-126,-87,-53,-29,-19
19,19,0,-19,9,9,-253,-117,-78,-48,-29,-19
14,14,0,-14,7,7,-244,-107,-68,-43,-29,-19
9,9,0,-9,4,4,-234,-97,-58,-39,-29,-19
4,9,4,-7,0,7,-214,-82,-48,-53,-39,-19
0,9,9,-4,-4,9,-195,-78,-48,-58,-48,-19
-4,9,14,-2,-9,12,-175,-73,-48,-63,-58,-19
-9,9,19,0,-14,14,-156,-68,-48,-68,-68,-19
-19,0,19,9,-19,9,-151,-53,-58,-78,-87,-34
-19,0,19,9,-19,9,-146,-48,-58,-87,-97,-48
-19,0,19,9,-19,9,-141,-43,-58,-97,-107,-63
-19,0,19,9,-19,9,-136,-39,-58,-107,-117,-78
-19,-14,4,17,-12,-4,-122,-24,-53,-102,-107,-87
-19,-19,0,19,-9,-9,-107,-19,-48,-97,-107,-87
-19,-24,-4,21,-7,-14,-92,-14,-43,-92,-107,-87
-19,-29,-9,24,-4,-19,-78,-9,-39,-87,-107,-87
-19,-24,-4,21,-7,-14,-68,-19,-43,-97,-117,-78
-19,-19,0,19,-9,-9,-68,-19,-48,-97,-117,-78
-19,-14,4,17,-12,-4,-68,-19,-53,-97,-117,-78
-19,-9,9,14,-14,0,-68,-19,-58,-97,-117,-78
-19,0,19,9,-19,9,-63,-9,-48,-107,-117,-87
-19,9,29,4,-24,19,-58,-9,-48,-107,-117,-87
-19,19,39,0,-29,29,-53,-9,-48,-107,-117,-87
-19,29,48,-4,-34,39,-48,-9,-48,-107,-117,-87
-29,19,48,4,-39,34,-29,-4,-39,-92,-102,-73
-29,9,39,9,-34,24,-19,0,-39,-87,-97,-68
-29,0,29,14,-29,14,-9,4,-39,-82,-92,-63
-29,-9,19,19,-24,4,0,9,-39,-78,-87,-58
-29,-9,19,19,-24,4,9,19,-34,-63,-78,-48
-29,-9,19,19,-24,4,19,19,-29,-58,-68,-39
-29,-9,19,19,-24,4,29,19,-24,-53,-58,-29
-29,-9,19,19,-24,4,39,19,-19,-48,-48,-19
-14,-19,-4,17,-4,-12,39,34,-14,-39,-43,-29
-9,-19,-9,14,0,-14,39,39,-9,-29,-39,-29
-4,-19,-14,12,4,-17,39,43,-4,-19,-34,-29
0,-19,-19,9,9,-19,39,48,0,-9,-29,-29
4,-9,-14,2,9,-12,24,43,0,-19,-19,-19
9,-9,-19,0,14,-14,9,39,0,-19,-19,-19
14,-9,-24,-2,19,-17,-4,34,0,-19,-19,-19
19,-9,-29,-4,24,-19,-19,29,0,-19,-19,-19
19,-4,-24,-7,21,-14,-43,4,-24,-39,-34,-19
19,0,-19,-9,19,-9,-68,-19,-39,-48,-39,-19
19,4,-14,-12,17,-4,-92,-43,-53,-58,-43,-19
19,9,-9,-14,14,0,-117,-68,-68,-68,-48,-19
9,9,0,-9,4,4,-131,-78,-63,-53,-39,-9
9,9,0,-9,4,4,-146,-87,-58,-39,-29,-9
9,9,0,-9,4,4,-161,-97,-53,-24,-19,-9
9,9,0,-9,4,4,-175,-107,-48,-9,-9,-9
9,0,-9,-4,9,-4,-185,-117,-58,-9,-4,0
9,0,-9,-4,9,-4,-195,-117,-58,-9,0,9
9,0,-9,-4,9,-4,-204,-117,-58,-9,4,19
9,0,-9,-4,9,-4,-214,-117,-58,-9,9,29
9,19,9,-14,0,14,-229,-131,-58,0,19,29
9,29,19,-19,-4,24,-234,-136,-58,0,19,29
9,39,29,-24,-9,34,-239,-141,-58,0,19,29
9,48,39,-29,-14,43,-244,-146,-58,0,19,29
0,48,48,-24,-24,48,-253,-156,-78,-29,-9,0
0,58,58,-29,-29,58,-244,-156,-68,0,9,9
0,58,58,-29,-29,58,-234,-146,-48,19,39,29
0,48,48,-24,-24,48,-214,-136,-39,29,39,39
9,29,19,-19,-4,24,-195,-117,-19,58,68,58
19,19,0,-19,9,9,-175,-87,29,117,117,87
29,39,9,-34,9,24,-136,-58,78,175,165,117
29,29,0,-29,14,14,-97,-19,97,165,156,107
39,0,-39,-19,39,-19,-78,29,126,165,156,87
48,-29,-78,-9,63,-53,-48,87,185,224,195,107
58,-68,-126,4,92,-97,-9,146,224,244,224,126
68,-126,-195,29,131,-161,29,195,234,214,195,117
78,-195,-273,58,175,-234,58,253,244,185,156,78
97,-253,-351,78,224,-302,78,322,302,234,185,87
126,-312,-439,92,283,-375,107,409,380,322,253,117
146,-370,-517,112,331,-444,136,488,439,380,302,136
165,-400,-566,117,366,-483,126,527,448,409,341,146
195,-409,-605,107,400,-507,107,556,458,429,361,156
224,-429,-653,102,439,-541,107,595,478,439,370,156
253,-448,-702,97,478,-575,107,624,497,478,390,156
273,-488,-761,107,517,-624,78,634,488,458,390,165
283,-546,-829,131,556,-688,48,644,429,419,380,165
302,-595,-897,146,600,-746,29,653,390,400,390,175
331,-644,-976,156,653,-810,9,673,380,390,400,175
351,-683,-1034,165,692,-858,-19,663,312,351,400,165
400,-722,-1122,161,761,-922,-87,634,224,273,400,165
448,-771,-1220,161,834,-995,-146,614,146,204,390,175
497,-829,-1327,165,912,-1078,-204,585,78,107,361,195
536,-868,-1405,165,971,-1137,-273,536,-48,-29,331,214
556,-917,-1473,180,1015,-1195,-322,497,-185,-175,302,244
605,-956,-1561,175,1083,-1259,-361,458,-302,-292,273,283
653,-995,-1649,170,1151,-1322,-419,400,-439,-429,234,312
663,-1034,-1698,185,1180,-1366,-478,302,-624,-624,146,331
663,-1083,-1747,209,1205,-1415,-527,185,-819,-839,48,322
702,-1112,-1815,204,1259,-1464,-575,87,-956,-976,-9,322
722,-1141,-1864,209,1293,-1503,-614,0,-1054,-1063,-29,341
732,-1151,-1883,209,1307,-1517,-673,-126,-1161,-1151,-58,361
751,-1161,-1912,204,1332,-1537,-741,-292,-1307,-1268,-107,370
751,-1180,-1932,214,1342,-1556,-780,-429,-1454,-1385,-175,400
741,-1190,-1932,224,1337,-1561,-790,-527,-1571,-1512,-263,409
741,-1190,-1932,224,1337,-1561,-790,-595,-1659,-1659,-400,390
751,-1200,-1952,224,1351,-1576,-810,-663,-1766,-1795,-546,341
751,-1210,-1961,229,1356,-1586,-810,-732,-1864,-1893,-644,331
741,-1210,-1952,234,1346,-1581,-780,-751,-1932,-1981,-741,322
732,-1210,-1942,239,1337,-1576,-751,-771,-1991,-2078,-858,273
712,-1210,-1922,248,1317,-1566,-741,-810,-2059,-2176,-985,214
702,-1180,-1883,239,1293,-1532,-722,-819,-2049,-2205,-1063,165
702,-1171,-1873,234,1288,-1522,-692,-800,-1981,-2147,-1083,146
683,-1151,-1834,234,1259,-1493,-653,-790,-1942,-2108,-1093,136
663,-1112,-1776,224,1220,-1444,-644,-800,-1932,-2108,-1122,126
653,-1063,-1717,204,1185,-1390,-644,-800,-1873,-2049,-1132,97
644,-1024,-1668,190,1156,-1346,-614,-800,-1795,-1952,-1132,58
614,-1005,-1620,195,1117,-1312,-585,-810,-1737,-1893,-1151,-19
575,-956,-1532,190,1054,-1244,-566,-839,-1678,-1834,-1132,-97
546,-917,-1464,185,1005,-1190,-556,-849,-1600,-1747,-1093,-136
536,-888,-1424,175,980,-1156,-556,-858,-1532,-1649,-1034,-136
517,-849,-1366,165,941,-1107,-566,-878,-1464,-1542,-946,-136
478,-800,-1278,161,878,-1039,-595,-897,-1454,-1483,-927,-165
448,-761,-1210,156,829,-985,-624,-917,-1444,-1473,-946,-234
439,-732,-1171,146,805,-951,-644,-917,-1385,-1434,-956,-322
419,-712,-1132,146,775,-922,-644,-907,-1317,-1366,-946,-400
390,-702,-1093,156,741,-897,-653,-897,-1268,-1307,-946,-488
361,-683,-1044,161,702,-863,-644,-888,-1210,-1259,-946,-556
331,-653,-985,161,658,-819,-624,-868,-1141,-1190,-927,-605
312,-644,-956,165,634,-800,-585,-829,-1073,-1112,-897,-644
273,-644,-917,185,595,-780,-546,-800,-1044,-1054,-888,-683
224,-624,-849,200,536,-736,-517,-771,-985,-1015,-888,-702
204,-585,-790,190,497,-688,-507,-732,-936,-985,-878,-712
185,-546,-732,180,458,-639,-488,-702,-888,-956,-878,-712
165,-527,-692,180,429,-610,-478,-663,-839,-917,-858,-722
126,-497,-624,185,375,-561,-468,-634,-780,-858,-839,-741
107,-478,-585,185,346,-531,-458,-595,-722,-819,-829,-751
107,-458,-566,175,336,-512,-439,-566,-673,-771,-819,-751
107,-439,-546,165,326,-492,-409,-527,-634,-732,-800,-732
78,-409,-488,165,283,-448,-390,-488,-595,-683,-761,-702
48,-361,-409,156,229,-385,-380,-458,-527,-605,-702,-663
48,-302,-351,126,200,-326,-370,-419,-468,-527,-624,-605
39,-263,-302,112,170,-283,-351,-390,-409,-458,-556,-546
29,-234,-263,102,146,-248,-331,-351,-361,-409,-517,-517
19,-214,-234,97,126,-224,-322,-331,-331,-390,-507,-507
0,-195,-195,97,97,-195,-292,-312,-312,-380,-517,-497
-19,-165,-146,92,63,-156,-253,-283,-273,-341,-488,-478
-39,-126,-87,82,24,-107,-234,-253,-224,-292,-448,-439
-68,-78,-9,73,-29,-43,-224,-224,-195,-253,-400,-409
-87,-48,39,68,-63,-4,-204,-204,-156,-214,-361,-380
-97,-29,68,63,-82,19,-185,-175,-107,-146,-312,-351
-107,0,107,53,-107,53,-165,-156,-68,-97,-283,-322
-112,9,122,51,-117,65,-151,-151,-53,-92,-268,-307
-117,19,136,48,-126,78,-146,-146,-48,-87,-263,-302
-122,29,151,46,-136,90,-141,-141,-43,-82,-258,-297
-126,39,165,43,-146,102,-136,-136,-39,-78,-253,-292
-141,53,195,43,-168,124,-117,-126,-19,-68,-234,-273
-146,68,214,39,-180,141,-107,-117,-9,-58,-224,-253
-151,82,234,34,-192,158,-97,-107,0,-48,-214,-234
-156,97,253,29,-204,175,-87,-97,9,-39,-204,-214
-165,112,278,26,-222,195,-82,-87,34,-9,-180,-200
-165,126,292,19,-229,209,-78,-87,48,9,-165,-185
-165,141,307,12,-236,224,-73,-87,63,29,-151,-170
-165,156,322,4,-244,239,-68,-87,78,48,-136,-156
-170,170,341,0,-256,256,-53,-78,82,58,-126,-141
-175,185,361,-4,-268,273,-48,-78,87,68,-117,-136
-180,200,380,-9,-280,290,-43,-78,92,78,-107,-131
-185,214,400,-14,-292,307,-39,-78,97,87,-97,-126
-195,229,424,-17,-309,326,-29,-78,102,87,-97,-136
-195,234,429,-19,-312,331,-19,-78,107,87,-97,-136
-195,239,434,-21,-314,336,-9,-78,112,87,-97,-136
-195,244,439,-24,-317,341,0,-78,117,87,-97,-136
-200,258,458,-29,-329,358,19,-78,126,92,-97,-136
-204,263,468,-29,-336,366,29,-78,126,97,-97,-136
-209,268,478,-29,-344,373,39,-78,126,102,-97,-136
-214,273,488,-29,-351,380,48,-78,126,107,-97,-136
-224,292,517,-34,-370,405,58,-87,126,102,-102,-141
-224,302,527,-39,-375,414,68,-87,126,97,-107,-146
-224,312,536,-43,-380,424,78,-87,126,92,-112,-151
-224,322,546,-48,-385,434,87,-87,126,87,-117,-156
-229,322,551,-46,-390,436,102,-87,131,102,-107,-146
-234,322,556,-43,-395,439,117,-87,136,107,-107,-146
-239,322,561,-41,-400,441,131,-87,141,112,-107,-146
-244,322,566,-39,-405,444,146,-87,146,117,-107,-146
-258,336,595,-39,-427,466,170,-82,161,122,-107,-146
-263,341,605,-39,-434,473,185,-78,165,126,-107,-146
-268,346,614,-39,-441,480,200,-73,170,131,-107,-146
-273,351,624,-39,-448,488,214,-68,175,136,-107,-146
-278,361,639,-41,-458,500,234,-58,190,146,-112,-151
-283,370,653,-43,-468,512,253,-48,195,146,-117,-156
-287,380,668,-46,-478,524,273,-39,200,146,-122,-161
-292,390,683,-48,-488,536,292,-29,204,146,-126,-165
-302,400,702,-48,-502,551,317,-9,219,156,-122,-175
-302,400,702,-48,-502,551,331,0,234,165,-117,-175
-302,400,702,-48,-502,551,346,9,248,175,-112,-175
-302,400,702,-48,-502,551,361,19,263,185,-107,-175
-312,405,717,-46,-514,561,375,43,287,209,-97,-161
-312,409,722,-48,-517,566,390,58,302,224,-87,-156
-312,414,727,-51,-519,570,405,73,317,239,-78,-151
-312,419,732,-53,-522,575,419,87,331,253,-68,-146
-326,424,751,-48,-539,588,434,102,356,263,-58,-146
-331,429,761,-48,-546,595,448,117,370,273,-58,-146
-336,434,771,-48,-553,602,463,131,385,283,-58,-146
-341,439,780,-48,-561,610,478,146,400,292,-58,-146
-331,453,785,-61,-558,619,488,165,419,307,-39,-146
-331,458,790,-63,-561,624,488,185,439,322,-29,-146
-331,463,795,-65,-563,629,488,204,458,336,-19,-146
-331,468,800,-68,-566,634,488,224,478,351,-9,-146
-341,488,829,-73,-585,658,468,224,497,385,14,-131
-341,497,839,-78,-590,668,448,224,517,409,29,-117
-341,507,849,-82,-595,678,429,224,536,434,43,-102
-341,517,858,-87,-600,688,409,224,556,458,58,-87
-346,531,878,-92,-612,705,395,224,566,473,73,-73
-351,536,888,-92,-619,712,390,224,575,488,87,-68
-356,541,897,-92,-627,719,385,224,585,502,102,-63
-361,546,907,-92,-634,727,380,224,595,517,117,-58
-366,551,917,-92,-641,734,390,244,624,541,131,-48
-370,556,927,-92,-649,741,390,253,644,566,146,-48
-375,561,936,-92,-656,749,390,263,663,590,161,-48
-380,566,946,-92,-663,756,390,273,683,614,175,-48
-390,570,961,-90,-675,766,400,292,707,649,200,-29
-390,575,966,-92,-678,771,400,302,722,673,224,-19
-390,580,971,-95,-680,775,400,312,736,697,248,-9
-390,585,976,-97,-683,780,400,322,751,722,273,0
-390,590,980,-100,-685,785,409,336,775,756,297,29
-390,595,985,-102,-688,790,409,351,800,780,322,48
-390,600,990,-104,-690,795,409,366,824,805,346,68
-390,605,995,-107,-692,800,409,380,849,829,370,87
-385,614,1000,-114,-692,807,419,390,868,849,400,107
-380,614,995,-117,-688,805,419,400,878,868,419,117
-375,614,990,-119,-683,802,419,409,888,888,439,126
-370,614,985,-122,-678,800,419,419,897,907,458,136
-366,605,971,-119,-668,788,419,429,912,932,497,165
-361,605,966,-122,-663,785,419,439,927,956,527,185
-356,605,961,-124,-658,783,419,448,941,980,556,204
-351,605,956,-126,-653,780,419,458,956,1005,585,224
-336,614,951,-139,-644,783,414,468,966,1029,610,244
-331,614,946,-141,-639,780,409,478,976,1044,634,263
-326,614,941,-143,-634,778,405,488,985,1058,658,283
-322,614,936,-146,-629,775,400,497,995,1073,683,302
-307,614,922,-153,-614,768,390,497,1005,1088,707,322
-302,614,917,-156,-610,766,390,497,1005,1102,732,341
-297,614,912,-158,-605,763,390,497,1005,1117,756,361
-292,614,907,-161,-600,761,390,497,1005,1132,780,380
-283,624,907,-170,-595,766,380,488,1005,1141,800,400
-273,624,897,-175,-585,761,370,488,1005,1141,819,419
-263,624,888,-180,-575,756,361,488,1005,1141,839,439
-253,624,878,-185,-566,751,351,488,1005,1141,858,458
-234,619,854,-192,-544,736,336,483,995,1137,863,473
-224,614,839,-195,-531,727,331,478,985,1132,868,478
-214,610,824,-197,-519,717,326,473,976,1127,873,483
-204,605,810,-200,-507,707,322,468,966,1122,878,488
-190,595,785,-202,-488,690,312,458,941,1107,878,507
-185,585,771,-200,-478,678,302,448,927,1093,878,517
-180,575,756,-197,-468,666,292,439,912,1078,878,527
-175,566,741,-195,-458,653,283,429,897,1063,878,536
-165,551,717,-192,-441,634,268,414,868,1034,863,541
-156,546,702,-195,-429,624,263,400,849,1015,858,546
-146,541,688,-197,-417,614,258,385,829,995,854,551
-136,536,673,-200,-405,605,253,370,810,976,849,556
-122,522,644,-200,-383,583,234,351,785,961,834,546
-117,517,634,-200,-375,575,224,341,771,946,829,546
-112,512,624,-200,-368,568,214,331,756,932,824,546
-107,507,614,-200,-361,561,204,322,741,917,819,546
-92,497,590,-202,-341,544,195,307,712,883,790,531
-87,488,575,-200,-331,531,195,292,683,849,771,527
-82,478,561,-197,-322,519,195,278,653,814,751,522
-78,468,546,-195,-312,507,195,263,624,780,732,517
-68,453,522,-192,-295,488,190,253,605,751,702,502
-68,439,507,-185,-287,473,185,244,585,732,683,497
-68,424,492,-178,-280,458,180,234,566,712,663,492
-68,409,478,-170,-273,444,175,224,546,692,644,488
-63,395,458,-165,-261,427,165,214,522,663,624,468
-58,380,439,-161,-248,409,165,204,507,644,605,458
-53,366,419,-156,-236,392,165,195,492,624,585,448
-48,351,400,-151,-224,375,165,185,478,605,566,439
-39,331,370,-146,-204,351,170,175,453,580,541,419
-39,322,361,-141,-200,341,175,175,439,556,517,400
-39,312,351,-136,-195,331,180,175,424,531,492,380
-39,302,341,-131,-190,322,185,175,409,507,468,361
-39,292,331,-126,-185,312,200,170,395,483,444,341
-39,283,322,-122,-180,302,204,165,380,468,429,331
-39,273,312,-117,-175,292,209,161,366,453,414,322
-39,263,302,-112,-170,283,214,156,351,439,400,312
-29,244,273,-107,-151,258,229,156,331,409,370,292
-29,234,263,-102,-146,248,234,156,322,390,351,273
-29,224,253,-97,-141,239,239,156,312,370,331,253
-29,214,244,-92,-136,229,244,156,302,351,312,234
-29,200,229,-85,-129,214,248,151,283,326,292,219
-29,195,224,-82,-126,209,253,146,273,312,273,204
-29,190,219,-80,-124,204,258,141,263,297,253,190
-29,185,214,-78,-122,200,263,136,253,283,234,175
-29,175,204,-73,-117,190,273,126,239,263,214,161
-29,175,204,-73,-117,190,273,126,234,253,204,156
-29,175,204,-73,-117,190,273,126,229,244,195,151
-29,175,204,-73,-117,190,273,126,224,234,185,146
-19,170,190,-75,-104,180,258,122,209,214,165,136
-19,165,185,-73,-102,175,244,117,204,204,156,126
-19,161,180,-70,-100,170,229,112,200,195,146,117
-19,156,175,-68,-97,165,214,107,195,185,136,107
-29,151,180,-61,-104,165,190,78,175,165,117,87
-29,146,175,-58,-102,161,165,58,156,156,107,78
-29,141,170,-56,-100,156,141,39,136,146,97,68
-29,136,165,-53,-97,151,117,19,117,136,87,58
-34,126,161,-46,-97,143,112,4,102,117,68,48
-39,126,165,-43,-102,146,107,0,97,107,58,39
-43,126,170,-41,-107,148,102,-4,92,97,48,29
-48,126,175,-39,-112,151,97,-9,87,87,39,19
-48,117,165,-34,-107,141,92,-19,73,73,29,14
-48,107,156,-29,-102,131,87,-19,68,68,19,9
-48,97,146,-24,-97,122,82,-19,63,63,9,4
-48,87,136,-19,-92,112,78,-19,58,58,0,0
-39,78,117,-19,-78,97,87,-29,53,53,-9,-9
-39,78,117,-19,-78,97,87,-29,48,48,-9,-9
-39,78,117,-19,-78,97,87,-29,43,43,-9,-9
-39,78,117,-19,-78,97,87,-29,39,39,-9,-9
-39,68,107,-14,-73,87,97,-29,34,29,-14,-24
-39,68,107,-14,-73,87,97,-29,29,19,-19,-29
-39,68,107,-14,-73,87,97,-29,24,9,-24,-34
-39,68,107,-14,-73,87,97,-29,19,0,-29,-39
-48,63,112,-7,-80,87,87,-29,14,-4,-43,-48
-48,58,107,-4,-78,82,87,-29,9,-9,-48,-48
-48,53,102,-2,-75,78,87,-29,4,-14,-53,-48
-48,48,97,0,-73,73,87,-29,0,-19,-58,-48
-39,39,78,0,-58,58,78,-39,0,-29,-58,-48
-39,39,78,0,-58,58,78,-39,0,-29,-58,-48
-39,39,78,0,-58,58,78,-39,0,-29,-58,-48
-39,39,78,0,-58,58,78,-39,0,-29,-58,-48
-29,39,68,-4,-48,53,87,-48,-4,-39,-63,-58
-29,39,68,-4,-48,53,87,-48,-9,-39,-68,-58
-29,39,68,-4,-48,53,87,-48,-14,-39,-73,-58
-29,39,68,-4,-48,53,87,-48,-19,-39,-78,-58
-29,34,63,-2,-46,48,87,-58,-24,-43,-87,-68
-29,29,58,0,-43,43,87,-58,-29,-48,-87,-68
-29,24,53,2,-41,39,87,-58,-34,-53,-87,-68
-29,19,48,4,-39,34,87,-58,-39,-58,-87,-68
-29,9,39,9,-34,24,87,-68,-48,-68,-87,-68
-29,9,39,9,-34,24,87,-68,-48,-68,-87,-68
-29,9,39,9,-34,24,87,-68,-48,-68,-87,-68
-29,9,39,9,-34,24,87,-68,-48,-68,-87,-68
-19,9,29,4,-24,19,87,-78,-58,-78,-92,-78
-19,9,29,4,-24,19,87,-78,-58,-78,-97,-78
-19,9,29,4,-24,19,87,-78,-58,-78,-102,-78
-19,9,29,4,-24,19,87,-78,-58,-78,-107,-78
-9,9,19,0,-14,14,92,-78,-68,-87,-117,-87
-9,9,19,0,-14,14,97,-78,-68,-87,-117,-87
-9,9,19,0,-14,14,102,-78,-68,-87,-117,-87
-9,9,19,0,-14,14,107,-78,-68,-87,-117,-87
0,0,0,0,0,0,112,-68,-68,-97,-107,-87
0,0,0,0,0,0,117,-68,-68,-97,-107,-87
0,0,0,0,0,0,122,-68,-68,-97,-107,-87
0,0,0,0,0,0,126,-68,-68,-97,-107,-87
0,-9,-9,4,4,-9,136,-78,-68,-97,-107,-87
0,-9,-9,4,4,-9,136,-78,-68,-97,-107,-87
0,-9,-9,4,4,-9,136,-78,-68,-97,-107,-87
0,-9,-9,4,4,-9,136,-78,-68,-97,-107,-87
0,-9,-9,4,4,-9,141,-78,-78,-107,-112,-97
0,-9,-9,4,4,-9,146,-78,-78,-107,-117,-97
0,-9,-9,4,4,-9,151,-78,-78,-107,-122,-97
0,-9,-9,4,4,-9,156,-78,-78,-107,-126,-97
0,-19,-19,9,9,-19,156,-78,-87,-107,-126,-107
0,-19,-19,9,9,-19,156,-78,-87,-107,-126,-107
0,-19,-19,9,9,-19,156,-78,-87,-107,-126,-107
0,-19,-19,9,9,-19,156,-78,-87,-107,-126,-107
-9,-19,-9,14,0,-14,161,-78,-78,-107,-126,-97
-9,-19,-9,14,0,-14,165,-78,-78,-107,-126,-97
-9,-19,-9,14,0,-14,170,-78,-78,-107,-126,-97
-9,-19,-9,14,0,-14,175,-78,-78,-107,-126,-97
-9,-14,-4,12,-2,-9,180,-68,-78,-107,-126,-97
-9,-9,0,9,-4,-4,185,-68,-78,-107,-126,-97
-9,-4,4,7,-7,0,190,-68,-78,-107,-126,-97
-9,0,9,4,-9,4,195,-68,-78,-107,-126,-97
-19,0,19,9,-19,9,200,-58,-68,-97,-117,-97
-19,0,19,9,-19,9,204,-58,-68,-97,-117,-97
-19,0,19,9,-19,9,209,-58,-68,-97,-117,-97
-19,0,19,9,-19,9,214,-58,-68,-97,-117,-97
-29,-9,19,19,-24,4,224,-48,-58,-97,-117,-97
-29,-9,19,19,-24,4,234,-48,-58,-97,-117,-97
-29,-9,19,19,-24,4,244,-48,-58,-97,-117,-97
-29,-9,19,19,-24,4,253,-48,-58,-97,-117,-97
-39,-4,34,21,-36,14,268,-39,-58,-97,-117,-97
-39,0,39,19,-39,19,273,-39,-58,-97,-117,-97
-39,4,43,17,-41,24,278,-39,-58,-97,-117,-97
-39,9,48,14,-43,29,283,-39,-58,-97,-117,-97
-48,9,58,19,-53,34,287,-29,-58,-97,-117,-107
-48,9,58,19,-53,34,292,-29,-58,-97,-117,-107
-48,9,58,19,-53,34,297,-29,-58,-97,-117,-107
-48,9,58,19,-53,34,302,-29,-58,-97,-117,-107
-48,9,58,19,-53,34,317,-19,-58,-97,-126,-107
-48,9,58,19,-53,34,322,-19,-58,-97,-126,-107
-48,9,58,19,-53,34,326,-19,-58,-97,-126,-107
-48,9,58,19,-53,34,331,-19,-58,-97,-126,-107
-39,0,39,19,-39,19,346,-14,-58,-97,-136,-117
-39,0,39,19,-39,19,351,-9,-58,-97,-136,-117
-39,0,39,19,-39,19,356,-4,-58,-97,-136,-117
-39,0,39,19,-39,19,361,0,-58,-97,-136,-117
-39,0,39,19,-39,19,366,4,-48,-97,-126,-117
-39,0,39,19,-39,19,370,9,-48,-97,-126,-117
-39,0,39,19,-39,19,375,14,-48,-97,-126,-117
-39,0,39,19,-39,19,380,19,-48,-97,-126,-117
-29,4,34,12,-31,19,370,19,-43,-92,-122,-112
-29,9,39,9,-34,24,361,19,-39,-87,-117,-107
-29,14,43,7,-36,29,351,19,-34,-82,-112,-102
-29,19,48,4,-39,34,341,19,-29,-78,-107,-97
-19,29,48,-4,-34,39,317,4,-39,-87,-117,-107
-19,29,48,-4,-34,39,292,0,-39,-87,-117,-107
-19,29,48,-4,-34,39,268,-4,-39,-87,-117,-107
-19,29,48,-4,-34,39,244,-9,-39,-87,-117,-107
-19,19,39,0,-29,29,209,-34,-48,-102,-122,-107
-19,19,39,0,-29,29,185,-48,-58,-107,-126,-107
-19,19,39,0,-29,29,161,-63,-68,-112,-131,-107
-19,19,39,0,-29,29,136,-78,-78,-117,-136,-107
-19,4,24,7,-21,14,122,-87,-87,-126,-136,-107
-19,0,19,9,-19,9,117,-87,-87,-126,-136,-107
-19,-4,14,12,-17,4,112,-87,-87,-126,-136,-107
-19,-9,9,14,-14,0,107,-87,-87,-126,-136,-107
-29,-19,9,24,-19,-4,97,-97,-97,-126,-141,-117
-29,-19,9,24,-19,-4,97,-97,-97,-126,-146,-117
-29,-19,9,24,-19,-4,97,-97,-97,-126,-151,-117
-29,-19,9,24,-19,-4,97,-97,-97,-126,-156,-117
-19,-19,0,19,-9,-9,97,-97,-97,-136,-146,-126
-19,-19,0,19,-9,-9,97,-97,-97,-136,-146,-126
-19,-19,0,19,-9,-9,97,-97,-97,-136,-146,-126
-19,-19,0,19,-9,-9,97,-97,-97,-136,-146,-126
-9,-19,-9,14,0,-14,92,-97,-97,-126,-146,-126
-9,-19,-9,14,0,-14,87,-97,-97,-126,-146,-126
-9,-19,-9,14,0,-14,82,-97,-97,-126,-146,-126
-9,-19,-9,14,0,-14,78,-97,-97,-126,-146,-126
-9,-9,0,9,-4,-4,78,-97,-97,-126,-136,-126
-9,-9,0,9,-4,-4,78,-97,-97,-126,-136,-126
-9,-9,0,9,-4,-4,78,-97,-97,-126,-136,-126
-9,-9,0,9,-4,-4,78,-97,-97,-126,-136,-126
-9,-9,0,9,-4,-4,87,-97,-107,-126,-146,-117
-9,-9,0,9,-4,-4,87,-97,-107,-126,-146,-117
-9,-9,0,9,-4,-4,87,-97,-107,-126,-146,-117
-9,-9,0,9,-4,-4,87,-97,-107,-126,-146,-117
-9,-19,-9,14,0,-14,102,-97,-97,-126,-136,-117
-9,-19,-9,14,0,-14,107,-97,-97,-126,-136,-117
-9,-19,-9,14,0,-14,112,-97,-97,-126,-136,-117
-9,-19,-9,14,0,-14,117,-97,-97,-126,-136,-117
-9,-9,0,9,-4,-4,126,-97,-87,-117,-126,-117
-9,-9,0,9,-4,-4,126,-97,-87,-117,-126,-117
-9,-9,0,9,-4,-4,126,-97,-87,-117,-126,-117
-9,-9,0,9,-4,-4,126,-97,-87,-117,-126,-117
-9,0,9,4,-9,4,117,-87,-97,-117,-126,-117
-9,0,9,4,-9,4,117,-87,-97,-117,-126,-117
-9,0,9,4,-9,4,117,-87,-87,-117,-126,-122
-9,0,9,4,-9,4,126,-87,-78,-117,-131,-122
-19,4,24,7,-21,14,117,-97,-87,-122,-131,-122
-19,0,19,9,-19,9,117,-97,-92,-122,-136,-117
-19,0,19,9,-19,9,117,-92,-92,-122,-136,-112
-19,0,19,9,-19,9,117,-87,-78,-122,-136,-102
-19,-4,14,12,-17,4,112,-82,-97,-122,-126,-112
-19,-4,14,12,-17,4,112,-87,-102,-126,-136,-112
-19,-4,14,12,-17,4,107,-92,-102,-131,-136,-112
-24,0,24,12,-24,12,97,-102,-97,-131,-136,-107
-34,0,34,17,-34,17,102,-92,-87,-122,-131,-107
-34,0,34,17,-34,17,102,-92,-92,-122,-131,-112
-34,0,34,17,-34,17,102,-92,-92,-122,-136,-122
-34,0,34,17,-34,17,97,-92,-92,-126,-141,-126
-24,-9,14,17,-19,2,107,-97,-107,-126,-151,-126
-24,-9,14,17,-19,2,107,-102,-107,-131,-151,-126
-24,-9,14,17,-19,2,107,-102,-107,-141,-156,-131
-24,-14,9,19,-17,-2,107,-97,-107,-141,-156,-131
-34,-19,14,26,-24,-2,107,-87,-102,-141,-146,-131
-34,-19,14,26,-24,-2,102,-82,-97,-136,-151,-131
-34,-14,19,24,-26,2,102,-82,-107,-136,-151,-136
-34,-14,19,24,-26,2,107,-82,-102,-136,-146,-136
-24,-14,9,19,-17,-2,107,-82,-92,-136,-151,-136
-29,-14,14,21,-21,0,117,-78,-87,-136,-146,-131
-29,-14,14,21,-21,0,122,-73,-87,-136,-146,-131
-29,-14,14,21,-21,0,122,-68,-92,-136,-146,-131
-39,-9,29,24,-34,9,126,-58,-87,-122,-146,-131
-34,-9,24,21,-29,7,131,-58,-82,-122,-146,-126
-34,-9,24,21,-29,7,141,-58,-78,-126,-146,-126
-29,-9,19,19,-24,4,156,-58,-82,-136,-146,-126
-29,-9,19,19,-24,4,161,-48,-73,-126,-136,-126
-29,-9,19,19,-24,4,165,-48,-73,-126,-136,-122
-34,-9,24,21,-29,7,175,-43,-73,-122,-131,-122
-34,-9,24,21,-29,7,180,-43,-78,-122,-131,-122
-39,-14,24,26,-31,4,185,-43,-78,-122,-141,-131
-39,-14,24,26,-31,4,195,-43,-78,-122,-141,-131
-39,-14,24,26,-31,4,209,-34,-73,-122,-141,-131
-34,-14,19,24,-26,2,229,-29,-73,-122,-141,-131
-43,-24,19,34,-31,-2,239,-24,-73,-126,-151,-141
-43,-24,19,34,-31,-2,239,-29,-73,-126,-151,-141
-43,-24,19,34,-31,-2,239,-29,-73,-131,-146,-141
-43,-24,19,34,-31,-2,239,-24,-73,-126,-146,-136
-39,-14,24,26,-31,4,224,-34,-68,-126,-136,-126
-34,-14,19,24,-26,2,214,-34,-68,-136,-141,-136
-29,-19,9,24,-19,-4,204,-29,-68,-126,-141,-136
-24,-19,4,21,-14,-7,190,-24,-63,-126,-136,-136
-24,-14,9,19,-17,-2,156,-34,-78,-131,-136,-131
-24,-9,14,17,-19,2,131,-43,-82,-131,-136,-126
-29,-4,24,17,-26,9,112,-53,-82,-131,-136,-122
-29,0,29,14,-29,14,82,-68,-87,-126,-136,-117
-19,-4,14,12,-17,4,58,-82,-97,-131,-146,-126
-14,-9,4,12,-9,-2,48,-82,-97,-131,-146,-122
-14,-14,0,14,-7,-7,43,-92,-102,-136,-146,-122
-14,-19,-4,17,-4,-12,39,-102,-107,-141,-151,-131
-4,-19,-14,12,4,-17,19,-97,-112,-151,-151,-122
-4,-19,-14,12,4,-17,14,-97,-102,-151,-151,-122
-4,-24,-19,14,7,-21,9,-97,-102,-146,-146,-122
-4,-24,-19,14,7,-21,0,-102,-102,-146,-146,-117
4,-24,-29,9,17,-26,-9,-102,-97,-141,-141,-107
0,-24,-24,12,12,-24,-14,-102,-97,-136,-141,-107
0,-24,-24,12,12,-24,-24,-102,-97,-131,-141,-112
0,-19,-19,9,9,-19,-34,-102,-92,-126,-136,-126
9,-29,-39,9,24,-34,-24,-97,-82,-122,-131,-112
9,-29,-39,9,24,-34,-19,-92,-82,-126,-126,-112
4,-24,-29,9,17,-26,-19,-87,-82,-126,-122,-112
4,-24,-29,9,17,-26,-19,-87,-82,-122,-122,-112
4,-24,-29,9,17,-26,-24,-78,-78,-112,-117,-112
4,-19,-24,7,14,-21,-24,-78,-78,-112,-126,-107
4,-19,-24,7,14,-21,-24,-78,-78,-112,-126,-102
4,-24,-29,9,17,-26,-24,-78,-78,-112,-102,-97
19,-14,-34,-2,26,-24,-29,-78,-78,-102,-102,-107
19,-14,-34,-2,26,-24,-29,-78,-73,-102,-107,-107
19,-14,-34,-2,26,-24,-24,-78,-73,-102,-107,-102
9,-19,-29,4,19,-24,-19,-78,-73,-107,-112,-97
0,-19,-19,9,9,-19,-24,-68,-68,-107,-112,-97
4,-14,-19,4,12,-17,-24,-68,-68,-107,-112,-97
4,-14,-19,4,12,-17,-19,-68,-68,-107,-112,-102
9,-14,-24,2,17,-19,-19,-68,-68,-97,-112,-102
0,-14,-14,7,7,-14,-14,-78,-68,-107,-112,-92
0,-14,-14,7,7,-14,-14,-78,-73,-107,-107,-92
0,-14,-14,7,7,-14,-14,-82,-73,-112,-107,-92
0,-14,-14,7,7,-14,-19,-82,-73,-112,-107,-92
4,4,0,-4,2,2,-29,-78,-73,-102,-97,-78
14,14,0,-14,7,7,-29,-87,-63,-78,-58,-48
14,14,0,-14,7,7,-34,-87,-29,-34,-19,-19
24,34,9,-29,7,21,-43,-87,-9,4,29,34
43,48,4,-46,19,26,-63,-97,4,53,92,92
58,68,9,-63,24,39,-63,-97,48,122,180,170
78,87,9,-82,34,48,-68,-87,97,195,292,278
97,112,14,-104,41,63,-87,-97,141,283,414,385
117,131,14,-124,51,73,-107,-87,185,370,531,492
136,136,0,-136,68,68,-117,-73,244,468,663,610
161,151,-9,-156,85,70,-131,-63,312,580,814,761
185,170,-14,-178,100,78,-146,-48,390,712,990,922
229,190,-39,-209,134,75,-170,-24,463,839,1171,1068
268,195,-73,-231,170,61,-180,9,556,985,1371,1244
307,209,-97,-258,202,56,-175,53,653,1137,1561,1410
346,224,-122,-285,234,51,-175,92,751,1268,1756,1556
395,239,-156,-317,275,41,-200,122,829,1415,1952,1712
439,253,-185,-346,312,34,-224,146,902,1546,2156,1883
478,263,-214,-370,346,24,-224,170,951,1629,2313,2015
483,263,-219,-373,351,21,-200,214,995,1693,2391,2064
492,253,-239,-373,366,7,-185,278,1058,1732,2396,2025
502,248,-253,-375,378,-2,-170,331,1088,1712,2332,1937
502,229,-273,-366,387,-21,-141,356,1068,1629,2176,1781
488,204,-283,-346,385,-39,-97,405,1058,1532,1991,1566
473,175,-297,-324,385,-61,-68,444,1058,1464,1815,1346
444,151,-292,-297,368,-70,-29,473,1058,1390,1629,1102
405,112,-292,-258,348,-90,19,517,1058,1332,1410,839
322,78,-244,-200,283,-82,87,585,1078,1273,1180,536
234,29,-204,-131,219,-87,161,634,1088,1205,941,234
170,14,-156,-92,163,-70,204,653,1063,1112,727,9
102,-4,-107,-48,104,-56,258,673,1029,1005,527,-170
19,-34,-53,7,36,-43,312,683,980,888,326,-336
-58,-63,-4,61,-26,-34,366,692,941,771,112,-497
-131,-73,58,102,-95,-7,414,707,932,683,-68,-614
-190,-87,102,139,-146,7,488,751,951,649,-170,-673
-219,-107,112,163,-165,2,556,795,980,634,-229,-697
-248,-136,112,192,-180,-12,624,849,990,575,-297,-727
-292,-156,136,224,-214,-9,683,897,956,424,-439,-775
-331,-156,175,244,-253,9,722,912,834,170,-614,-819
-361,-156,204,258,-283,24,741,902,673,-107,-751,-844
-356,-161,195,258,-275,17,741,883,551,-278,-795,-839
-361,-151,209,256,-285,29,732,858,492,-326,-790,-829
-351,-156,195,253,-273,19,727,829,429,-351,-790,-819
-331,-146,185,239,-258,19,712,810,380,-380,-790,-810
-326,-131,195,229,-261,31,697,800,370,-380,-771,-775
-331,-117,214,224,-273,48,668,800,346,-385,-746,-741
-312,-102,209,207,-261,53,653,819,326,-395,-746,-727
-292,-102,190,197,-241,43,634,849,322,-409,-722,-697
-287,-102,185,195,-236,41,624,888,326,-395,-697,-663
-287,-112,175,200,-231,31,614,902,336,-390,-688,-668
-283,-112,170,197,-226,29,619,922,341,-385,-673,-658
-273,-112,161,192,-217,24,634,961,346,-375,-658,-634
-283,-122,161,202,-222,19,663,990,317,-385,-649,-624
-302,-122,180,212,-241,29,683,980,273,-400,-649,-624
-302,-122,180,212,-241,29,707,990,214,-429,-653,-614
-283,-136,146,209,-214,4,741,985,165,-448,-653,-605
-283,-151,131,217,-207,-9,761,966,107,-473,-649,-585
-287,-165,122,226,-204,-21,775,946,39,-502,-649,-590
-287,-180,107,234,-197,-36,805,902,-34,-536,-658,-600
-283,-200,82,241,-183,-58,814,834,-97,-556,-668,-595
-273,-195,78,234,-175,-58,805,741,-175,-570,-658,-570
-278,-204,73,241,-175,-65,795,653,-219,-570,-639,-551
-287,-204,82,246,-185,-61,795,585,-239,-570,-624,-536
-287,-209,78,248,-183,-65,814,546,-263,-570,-614,-527
-287,-204,82,246,-185,-61,814,488,-273,-570,-605,-512
-287,-214,73,251,-180,-70,800,424,-287,-561,-585,-488
-283,-214,68,248,-175,-73,800,375,-307,-561,-570,-478
-287,-234,53,261,-170,-90,795,336,-322,-551,-556,-468
-278,-234,43,256,-161,-95,775,283,-341,-546,-541,-448
-263,-214,48,239,-156,-82,741,200,-366,-541,-522,-429
-258,-214,43,236,-151,-85,697,151,-356,-531,-517,-424
-253,-204,48,229,-151,-78,668,141,-346,-507,-497,-405
-234,-185,48,209,-141,-68,605,97,-341,-478,-468,-385
-214,-180,34,197,-124,-73,546,39,-341,-473,-439,-361
-209,-170,39,190,-124,-65,492,0,-341,-453,-409,-336
-195,-170,24,183,-109,-73,419,-39,-361,-439,-395,-326
-170,-165,4,168,-87,-80,326,-92,-366,-429,-380,-312
-146,-156,-9,151,-68,-82,214,-161,-366,-405,-351,-278
-126,-136,-9,131,-58,-73,97,-219,-361,-370,-322,-244
-97,-112,-14,104,-41,-63,-4,-239,-341,-341,-287,-214
-73,-92,-19,82,-26,-56,-68,-239,-302,-292,-248,-195
-43,-68,-24,56,-9,-46,-112,-209,-248,-258,-209,-165
-43,-58,-14,51,-14,-36,-136,-175,-209,-229,-180,-146
-34,-58,-24,46,-4,-41,-156,-165,-200,-219,-180,-136
-24,-58,-34,41,4,-46,-161,-165,-190,-219,-170,-131
-24,-48,-24,36,0,-36,-156,-175,-190,-214,-161,-131
-24,-53,-29,39,2,-41,-170,-180,-200,-200,-170,-131
-24,-53,-29,39,2,-41,-180,-195,-204,-200,-170,-131
-24,-53,-29,39,2,-41,-190,-195,-204,-200,-165,-131
-14,-48,-34,31,9,-41,-200,-195,-195,-195,-151,-131
-14,-48,-34,31,9,-41,-190,-195,-204,-195,-146,-131
-14,-53,-39,34,12,-46,-190,-190,-204,-190,-146,-117
-19,-58,-39,39,9,-48,-190,-190,-200,-190,-151,-117
-19,-63,-43,41,12,-53,-190,-190,-200,-195,-156,-117
-24,-63,-39,43,7,-51,-200,-200,-209,-204,-156,-117
-19,-63,-43,41,12,-53,-209,-200,-209,-200,-156,-117
-14,-58,-43,36,14,-51,-209,-204,-209,-195,-151,-117
-4,-58,-53,31,24,-56,-209,-204,-209,-185,-146,-107
-4,-68,-63,36,29,-65,-204,-195,-200,-185,-156,-107
-4,-63,-58,34,26,-61,-209,-190,-200,-185,-156,-112
-4,-63,-58,34,26,-61,-204,-190,-200,-185,-141,-117
-4,-63,-58,34,26,-61,-200,-190,-200,-185,-141,-112
-9,-68,-58,39,24,-63,-195,-185,-200,-185,-141,-102
-9,-68,-58,39,24,-63,-195,-190,-204,-190,-141,-102
-9,-73,-63,41,26,-68,-200,-190,-204,-190,-141,-102
-4,-78,-73,41,34,-75,-185,-190,-204,-185,-141,-97
-4,-78,-73,41,34,-75,-185,-185,-204,-195,-131,-107
-4,-78,-73,41,34,-75,-190,-185,-204,-190,-131,-107
-4,-68,-63,36,29,-65,-195,-185,-209,-185,-131,-112
4,-68,-73,31,39,-70,-195,-185,-209,-185,-131,-112
4,-73,-78,34,41,-75,-190,-175,-200,-190,-126,-102
4,-73,-78,34,41,-75,-190,-175,-190,-190,-126,-97
4,-73,-78,34,41,-75,-195,-180,-190,-190,-131,-97
4,-73,-78,34,41,-75,-200,-185,-209,-195,-131,-97
-4,-63,-58,34,26,-61,-190,-195,-224,-195,-131,-97
-4,-63,-58,34,26,-61,-190,-200,-224,-195,-131,-92
0,-63,-63,31,31,-63,-185,-204,-224,-200,-131,-92
0,-58,-58,29,29,-58,-175,-224,-229,-209,-131,-92
0,-58,-58,29,29,-58,-170,-229,-234,-209,-131,-92
0,-58,-58,29,29,-58,-161,-229,-239,-219,-131,-92
9,-53,-63,21,36,-58,-175,-224,-244,-219,-131,-92
9,-53,-63,21,36,-58,-165,-219,-244,-214,-126,-92
9,-63,-73,26,41,-68,-136,-219,-244,-214,-136,-82
4,-63,-68,29,36,-65,-131,-229,-248,-214,-136,-78
4,-63,-68,29,36,-65,-131,-229,-248,-214,-136,-68
4,-63,-68,29,36,-65,-131,-224,-248,-214,-131,-63
9,-53,-63,21,36,-58,-122,-214,-239,-219,-126,-63
14,-48,-63,17,39,-56,-122,-214,-239,-219,-126,-63
19,-48,-68,14,43,-58,-122,-214,-248,-219,-122,-63
19,-53,-73,17,46,-63,-117,-214,-253,-219,-122,-63
34,-43,-78,4,56,-61,-107,-209,-253,-214,-122,-58
39,-39,-78,0,58,-58,-107,-204,-248,-209,-117,-53
39,-34,-73,-2,56,-53,-107,-200,-253,-204,-117,-43
43,-29,-73,-7,58,-51,-117,-195,-248,-200,-107,-43
48,-19,-68,-14,58,-43,-131,-195,-244,-185,-92,-29
48,-14,-63,-17,56,-39,-161,-190,-239,-185,-82,-24
53,-9,-63,-21,58,-36,-170,-190,-239,-190,-82,-19
53,-4,-58,-24,56,-31,-175,-195,-239,-190,-78,-14
63,0,-63,-31,63,-31,-219,-209,-248,-200,-78,-9
63,0,-63,-31,63,-31,-248,-224,-253,-204,-73,-9
68,0,-68,-34,68,-34,-283,-244,-263,-209,-73,-9
68,4,-63,-36,65,-29,-312,-258,-273,-209,-73,-9
68,-4,-73,-31,70,-39,-326,-297,-292,-224,-78,-14
68,-4,-73,-31,70,-39,-346,-322,-317,-239,-82,-14
63,0,-63,-31,63,-31,-366,-346,-336,-263,-87,-14
58,0,-58,-29,58,-29,-380,-375,-356,-263,-87,-9
48,-14,-63,-17,56,-39,-395,-395,-370,-273,-92,-14
53,-19,-73,-17,63,-46,-400,-400,-380,-278,-92,-9
58,-24,-82,-17,70,-53,-405,-400,-385,-283,-92,0
63,-24,-87,-19,75,-56,-409,-405,-390,-283,-92,4
53,-34,-87,-9,70,-61,-405,-409,-395,-283,-87,4
58,-29,-87,-14,73,-58,-414,-414,-405,-287,-87,9
68,-29,-97,-19,82,-63,-419,-419,-409,-283,-87,14
68,-24,-92,-21,80,-58,-429,-424,-414,-283,-82,24
78,-29,-107,-24,92,-68,-434,-444,-424,-292,-87,19
68,-29,-97,-19,82,-63,-439,-444,-429,-292,-78,24
68,-29,-97,-19,82,-63,-439,-444,-434,-287,-73,29
82,-19,-102,-31,92,-61,-453,-444,-434,-292,-68,34
87,-9,-97,-39,92,-53,-458,-453,-444,-302,-68,48
92,-14,-107,-39,100,-61,-463,-458,-444,-302,-68,48
97,-19,-117,-39,107,-68,-468,-463,-439,-287,-53,53
102,-19,-122,-41,112,-70,-473,-468,-439,-278,-43,58
102,-24,-126,-39,114,-75,-473,-473,-444,-278,-39,73
102,-19,-122,-41,112,-70,-473,-473,-444,-278,-34,78
102,-14,-117,-43,109,-65,-468,-473,-434,-278,-24,87
102,-14,-117,-43,109,-65,-463,-473,-439,-283,-19,87
112,-4,-117,-53,114,-61,-458,-468,-444,-273,-9,97
112,0,-112,-56,112,-56,-458,-468,-434,-268,-4,97
112,4,-107,-58,109,-51,-448,-463,-419,-253,0,97
112,4,-107,-58,109,-51,-444,-458,-419,-248,0,97
122,14,-107,-68,114,-46,-453,-453,-429,-234,4,112
122,14,-107,-68,114,-46,-453,-448,-405,-229,14,117
122,14,-107,-68,114,-46,-448,-434,-400,-224,19,112
117,9,-107,-63,112,-48,-448,-429,-385,-219,24,117
122,9,-112,-65,117,-51,-448,-429,-380,-200,39,122
117,9,-107,-63,112,-48,-448,-419,-366,-190,43,126
117,14,-102,-65,109,-43,-439,-409,-346,-180,53,122
112,14,-97,-63,104,-41,-439,-395,-336,-175,58,126
107,24,-82,-65,95,-29,-434,-385,-331,-165,63,131
112,29,-82,-70,97,-26,-439,-375,-317,-161,68,126
117,29,-87,-73,102,-29,-429,-366,-312,-161,63,131
112,29,-82,-70,97,-26,-429,-356,-312,-156,63,136
117,29,-87,-73,102,-29,-434,-361,-302,-151,68,126
117,24,-92,-70,104,-34,-429,-346,-297,-151,68,117
117,24,-92,-70,104,-34,-424,-331,-292,-146,68,112
117,19,-97,-68,107,-39,-409,-317,-283,-141,63,107
122,29,-92,-75,107,-31,-400,-312,-263,-126,73,107
112,24,-87,-68,100,-31,-395,-297,-253,-126,73,102
102,24,-78,-63,90,-26,-400,-283,-244,-126,73,92
92,24,-68,-58,80,-21,-400,-273,-234,-122,58,73
92,14,-78,-53,85,-31,-380,-258,-214,-107,58,73
87,14,-73,-51,80,-29,-366,-244,-209,-107,58,73
87,14,-73,-51,80,-29,-361,-234,-204,-102,53,68
78,14,-63,-46,70,-24,-356,-229,-200,-97,34,63
82,19,-63,-51,73,-21,-336,-214,-185,-87,34,68
82,14,-68,-48,75,-26,-326,-204,-170,-87,43,68
78,14,-63,-46,70,-24,-322,-195,-156,-78,43,63
78,14,-63,-46,70,-24,-312,-185,-146,-82,39,48
68,14,-53,-41,61,-19,-297,-165,-136,-78,39,43
63,4,-58,-34,61,-26,-287,-161,-136,-82,29,24
63,0,-63,-31,63,-31,-278,-156,-131,-78,14,24
58,0,-58,-29,58,-29,-263,-151,-131,-78,4,14
53,0,-53,-26,53,-26,-248,-131,-122,-78,0,0
53,0,-53,-26,53,-26,-239,-122,-117,-78,-9,-4
48,-4,-53,-21,51,-29,-229,-117,-112,-78,-19,-14
39,-14,-53,-12,46,-34,-214,-112,-107,-87,-29,-24
29,4,-24,-17,26,-9,-195,-73,-78,-73,-19,-24
19,0,-19,-9,19,-9,-175,-48,-78,-87,-39,-39
9,-4,-14,-2,12,-9,-165,-43,-68,-87,-53,-43
9,-9,-19,0,14,-14,-156,-39,-68,-87,-58,-48
9,-14,-24,2,17,-19,-146,-34,-68,-87,-63,-53
9,-19,-29,4,19,-24,-136,-29,-68,-87,-68,-58
4,-19,-24,7,14,-21,-112,-19,-58,-87,-78,-68
0,-19,-19,9,9,-19,-87,-9,-48,-87,-82,-73
-4,-24,-19,14,7,-21,-73,0,-48,-92,-92,-82
-9,-29,-19,19,4,-24,-58,9,-53,-92,-97,-87
-9,-24,-14,17,2,-19,-39,19,-39,-92,-87,-87
-9,-19,-9,14,0,-14,-29,29,-19,-92,-87,-82
-9,-19,-9,14,0,-14,-19,43,-24,-92,-87,-82
-9,-14,-4,12,-2,-9,-4,48,-24,-97,-97,-82
-9,-24,-14,17,2,-19,9,63,-34,-102,-102,-97
-14,-19,-4,17,-4,-12,19,63,-29,-102,-107,-97
-14,-19,-4,17,-4,-12,29,68,-29,-92,-102,-97
-14,-19,-4,17,-4,-12,43,73,-34,-92,-102,-102
-14,-29,-14,21,0,-21,53,82,-24,-87,-102,-107
-14,-29,-14,21,0,-21,48,92,-14,-87,-102,-107
-14,-29,-14,21,0,-21,48,92,-9,-82,-102,-107
-14,-29,-14,21,0,-21,48,92,0,-82,-102,-107
-24,-14,9,19,-17,-2,24,78,-4,-82,-97,-102
-24,-14,9,19,-17,-2,9,78,-9,-82,-97,-102
-24,-14,9,19,-17,-2,-19,82,-14,-82,-97,-102
-24,-9,14,17,-19,2,-43,82,-19,-78,-102,-102
-24,-14,9,19,-17,-2,-68,53,-48,-82,-102,-107
-24,-14,9,19,-17,-2,-87,24,-53,-87,-97,-107
-24,-14,9,19,-17,-2,-107,-14,-58,-102,-92,-107
-29,-14,14,21,-21,0,-117,-39,-58,-107,-87,-102
-39,-4,34,21,-36,14,-122,-53,-68,-117,-97,-112
-39,-4,34,21,-36,14,-131,-68,-82,-117,-97,-112
-39,-9,29,24,-34,9,-141,-82,-92,-112,-97,-112
-34,-9,24,21,-29,7,-151,-97,-102,-112,-97,-107
-24,-9,14,17,-19,2,-165,-102,-102,-107,-87,-97
-19,-9,9,14,-14,0,-165,-107,-112,-117,-87,-97
-19,-9,9,14,-14,0,-175,-112,-102,-117,-87,-97
-19,-9,9,14,-14,0,-185,-117,-102,-117,-87,-92
-14,-14,0,14,-7,-7,-170,-117,-112,-107,-73,-82
-14,-19,-4,17,-4,-12,-170,-122,-117,-102,-73,-82
-9,-19,-9,14,0,-14,-180,-126,-117,-97,-73,-82
-9,-24,-14,17,2,-19,-185,-131,-117,-92,-73,-82
-19,-14,4,17,-12,-4,-190,-136,-112,-92,-68,-73
-14,-14,0,14,-7,-7,-190,-136,-112,-92,-63,-73
-14,-14,0,14,-7,-7,-195,-141,-122,-92,-58,-73
-14,-14,0,14,-7,-7,-200,-156,-122,-87,-53,-73
-4,-19,-14,12,4,-17,-209,-156,-122,-87,-48,-73
-4,-24,-19,14,7,-21,-209,-151,-122,-78,-48,-68
-4,-29,-24,17,9,-26,-209,-146,-117,-78,-48,-68
-4,-34,-29,19,12,-31,-204,-141,-117,-87,-53,-78
-4,-39,-34,21,14,-36,-200,-146,-107,-73,-48,-73
-4,-39,-34,21,14,-36,-200,-141,-102,-68,-39,-68
-4,-39,-34,21,14,-36,-195,-136,-102,-58,-34,-63
-4,-39,-34,21,14,-36,-190,-131,-102,-53,-29,-58
0,-39,-39,19,19,-39,-190,-136,-97,-53,-19,-58
0,-39,-39,19,19,-39,-190,-136,-97,-48,-19,-58
0,-39,-39,19,19,-39,-195,-131,-92,-48,-19,-58
4,-39,-43,17,24,-41,-195,-122,-87,-43,-19,-53
14,-29,-43,7,29,-36,-190,-126,-97,-53,-19,-43
14,-29,-43,7,29,-36,-185,-131,-97,-53,-24,-53
14,-29,-43,7,29,-36,-185,-126,-92,-53,-24,-53
14,-29,-43,7,29,-36,-180,-126,-82,-53,-24,-53
24,-24,-48,0,36,-36,-175,-112,-73,-43,-14,-48
24,-24,-48,0,36,-36,-175,-112,-73,-39,-9,-39
24,-24,-48,0,36,-36,-175,-112,-68,-34,-4,-34
19,-24,-43,2,31,-34,-170,-112,-68,-29,-4,-29
24,-14,-39,-4,31,-26,-175,-112,-78,-29,-9,-34
29,-9,-39,-9,34,-24,-180,-112,-73,-29,-9,-48
34,-9,-43,-12,39,-26,-185,-107,-73,-34,-9,-34
39,-9,-48,-14,43,-29,-185,-102,-73,-39,-9,-34
34,4,-29,-19,31,-12,-195,-107,-73,-39,-9,-34
34,4,-29,-19,31,-12,-195,-107,-73,-34,-14,-34
34,4,-29,-19,31,-12,-200,-107,-68,-34,-19,-48
34,9,-24,-21,29,-7,-200,-107,-68,-34,-29,-48
24,-9,-34,-7,29,-21,-185,-102,-58,-34,-39,-39
24,-24,-48,0,36,-36,-180,-97,-58,-34,-14,-39
29,-34,-63,2,46,-48,-170,-92,-58,-34,-14,-39
29,-43,-73,7,51,-58,-165,-87,-53,-34,-19,-39
29,-39,-68,4,48,-53,-161,-73,-48,-29,-9,-39
19,-39,-58,9,39,-48,-156,-68,-43,-29,-14,-39
19,-34,-53,7,36,-43,-151,-63,-43,-34,-14,-43
24,-24,-48,0,36,-36,-151,-58,-39,-29,-14,-48
19,-19,-39,0,29,-29,-131,-48,-29,-29,-14,-43
19,-14,-34,-2,26,-24,-126,-48,-29,-19,-14,-43
14,-9,-24,-2,19,-17,-126,-48,-29,-19,-14,-43
9,-4,-14,-2,12,-9,-122,-48,-34,-19,-9,-43
9,-14,-24,2,17,-19,-112,-43,-14,-14,-19,-53
9,-24,-34,7,21,-29,-97,-34,-24,-43,-48,-63
-4,-34,-29,19,12,-31,-87,-29,-34,-43,-48,-58
4,-34,-39,14,21,-36,-87,-29,-14,-9,-9,-48
24,-4,-29,-9,26,-17,-92,-29,9,34,29,-29
34,14,-19,-24,26,-2,-92,-39,19,63,58,-4
53,29,-24,-41,39,2,-102,-48,24,63,92,43
68,29,-39,-48,53,-4,-122,-39,48,92,151,102
87,39,-48,-63,68,-4,-117,-39,107,185,244,200
117,63,-53,-90,85,4,-117,-19,170,292,375,307
146,82,-63,-114,104,9,-117,0,244,400,512,424
165,87,-78,-126,122,4,-126,14,302,497,634,531
190,82,-107,-136,148,-12,-141,34,361,590,756,644
224,92,-131,-158,178,-19,-136,58,448,722,922,775
248,112,-136,-180,192,-12,-141,82,522,849,1102,922
278,136,-141,-207,209,-2,-161,97,575,946,1254,1058
326,151,-175,-239,251,-12,-175,131,663,1078,1444,1215
375,165,-209,-270,292,-21,-175,180,800,1268,1678,1390
414,170,-244,-292,329,-36,-170,229,917,1434,1864,1517
468,185,-283,-326,375,-48,-175,263,1000,1566,2039,1629
507,204,-302,-356,405,-48,-195,307,1068,1688,2215,1742
541,204,-336,-373,439,-65,-209,341,1122,1771,2361,1830
570,214,-356,-392,463,-70,-214,385,1156,1810,2425,1859
580,219,-361,-400,470,-70,-209,429,1205,1820,2430,1820
580,200,-380,-390,480,-90,-219,453,1205,1776,2342,1722
566,165,-400,-366,483,-117,-224,463,1166,1659,2156,1576
561,146,-414,-353,488,-134,-214,492,1156,1571,1942,1376
541,131,-409,-336,475,-139,-185,522,1146,1498,1737,1151
492,122,-370,-307,431,-124,-156,546,1127,1400,1507,917
419,97,-322,-258,370,-112,-117,575,1098,1283,1239,644
331,48,-283,-190,307,-117,-43,624,1107,1185,971,341
229,4,-224,-117,226,-109,48,683,1112,1122,707,58
151,-24,-175,-63,163,-100,112,722,1098,1034,497,-141
78,-43,-122,-17,100,-82,146,732,1078,946,307,-287
0,-53,-53,26,26,-53,190,761,1058,868,122,-419
-73,-63,9,68,-41,-26,239,766,1029,771,-68,-556
-161,-58,102,109,-131,21,292,800,1010,678,-219,-634
-219,-68,151,143,-185,41,341,824,1010,605,-307,-678
-248,-78,170,163,-209,46,380,849,1000,556,-366,-717
-273,-87,185,180,-229,48,448,907,995,483,-439,-766
-331,-117,214,224,-273,48,527,951,922,297,-566,-819
-390,-156,234,273,-312,39,585,951,741,-9,-732,-863
-395,-151,244,273,-319,46,605,922,531,-287,-844,-868
-380,-161,219,270,-300,29,605,907,424,-405,-849,-829
-390,-165,224,278,-307,29,600,897,400,-390,-810,-800
-390,-175,214,283,-302,19,595,878,370,-390,-800,-780
-385,-170,214,278,-300,21,590,868,331,-419,-780,-766
-380,-156,224,268,-302,34,600,878,297,-434,-766,-722
-380,-122,258,251,-319,68,595,878,268,-424,-736,-688
-380,-102,278,241,-329,87,595,897,273,-400,-702,-658
-366,-102,263,234,-314,80,605,917,258,-405,-678,-644
-356,-112,244,234,-300,65,634,932,219,-439,-688,-639
-351,-131,219,241,-285,43,668,980,244,-424,-673,-639
-331,-141,190,236,-261,24,702,1049,297,-385,-649,-644
-331,-161,170,246,-251,4,741,1068,287,-385,-639,-634
-331,-170,161,251,-246,-4,780,1058,234,-409,-649,-614
-322,-170,151,246,-236,-9,805,1039,185,-419,-644,-614
-322,-175,146,248,-234,-14,829,1015,126,-439,-634,-595
-322,-170,151,246,-236,-9,858,985,58,-463,-619,-566
-317,-165,151,241,-234,-7,873,936,0,-483,-610,-551
-326,-170,156,248,-241,-7,902,873,-82,-517,-629,-551
-341,-180,161,261,-251,-9,941,795,-156,-556,-639,-556
-341,-195,146,268,-244,-24,951,702,-195,-561,-629,-551
-346,-204,141,275,-244,-31,941,575,-239,-561,-619,-551
-356,-224,131,290,-244,-46,941,458,-287,-570,-614,-536
-366,-239,126,302,-246,-56,961,390,-322,-570,-605,-536
-366,-244,122,305,-244,-61,971,322,-341,-561,-595,-512
-346,-244,102,295,-224,-70,956,268,-346,-570,-585,-497
-351,-253,97,302,-224,-78,956,229,-346,-561,-570,-488
-366,-263,102,314,-234,-80,961,190,-351,-551,-556,-488
-366,-263,102,314,-234,-80,922,136,-370,-536,-541,-488
-341,-263,78,302,-209,-92,878,63,-375,-522,-522,-458
-317,-253,63,285,-190,-95,844,14,-385,-512,-488,-414
-302,-253,48,278,-175,-102,814,4,-405,-517,-488,-395
-292,-263,29,278,-161,-117,790,-19,-409,-517,-478,-395
-283,-258,24,270,-153,-117,732,-58,-400,-492,-458,-380
-258,-239,19,248,-139,-109,668,-78,-370,-444,-409,-346
-253,-229,24,241,-139,-102,614,-107,-351,-409,-375,-317
-239,-234,4,236,-122,-114,522,-151,-366,-400,-361,-312
-214,-214,0,214,-107,-107,390,-200,-385,-395,-351,-297
-175,-185,-9,180,-82,-97,263,-239,-370,-370,-322,-263
-156,-161,-4,158,-75,-82,170,-258,-351,-351,-297,-234
-151,-141,9,146,-80,-65,87,-268,-331,-331,-268,-214
-122,-126,-4,124,-58,-65,14,-239,-287,-278,-229,-195
-82,-97,-14,90,-34,-56,-29,-185,-239,-229,-200,-175
-53,-78,-24,65,-14,-51,-48,-146,-200,-209,-180,-156
-53,-78,-24,65,-14,-51,-63,-136,-170,-180,-161,-141
-53,-87,-34,70,-9,-61,-78,-136,-161,-156,-151,-131
-53,-92,-39,73,-7,-65,-68,-131,-165,-165,-151,-122
-53,-92,-39,73,-7,-65,-73,-146,-175,-170,-151,-122
-53,-92,-39,73,-7,-65,-78,-146,-180,-175,-146,-122
-43,-87,-43,65,0,-65,-82,-146,-175,-175,-131,-122
-43,-73,-29,58,-7,-51,-73,-141,-170,-151,-122,-122
-43,-73,-29,58,-7,-51,-73,-131,-165,-141,-117,-107
-48,-73,-24,61,-12,-48,-73,-126,-156,-136,-117,-107
-48,-73,-24,61,-12,-48,-73,-122,-151,-136,-117,-107
-43,-58,-14,51,-14,-36,-63,-122,-161,-141,-126,-107
-39,-53,-14,46,-12,-34,-73,-122,-161,-141,-126,-107
-34,-43,-9,39,-12,-26,-73,-126,-161,-141,-122,-107
-24,-39,-14,31,-4,-26,-73,-126,-161,-136,-117,-97
-29,-39,-9,34,-9,-24,-82,-117,-156,-126,-107,-107
-24,-34,-9,29,-7,-21,-92,-112,-151,-126,-107,-112
-19,-34,-14,26,-2,-24,-92,-112,-146,-126,-92,-117
-14,-34,-19,24,2,-26,-92,-112,-141,-126,-92,-112
-4,-43,-39,24,17,-41,-122,-122,-151,-126,-82,-102
0,-39,-39,19,19,-39,-156,-131,-156,-131,-82,-92
4,-39,-43,17,24,-41,-195,-136,-156,-131,-82,-82
14,-39,-53,12,34,-46,-214,-141,-156,-126,-82,-68
4,-39,-43,17,24,-41,-224,-165,-165,-141,-87,-68
4,-39,-43,17,24,-41,-239,-185,-175,-141,-92,-68
4,-29,-34,12,19,-31,-253,-204,-190,-141,-97,-73
14,-29,-43,7,29,-36,-263,-224,-200,-146,-102,-73
14,-19,-34,2,24,-26,-273,-214,-195,-136,-87,-68
14,-14,-29,0,21,-21,-287,-214,-180,-131,-78,-58
14,-9,-24,-2,19,-17,-307,-219,-175,-126,-73,-53
14,-4,-19,-4,17,-12,-326,-224,-190,-126,-63,-48
24,-14,-39,-4,31,-26,-336,-224,-195,-136,-73,-39
24,-14,-39,-4,31,-26,-346,-229,-195,-136,-73,-34
29,-14,-43,-7,36,-29,-351,-234,-195,-141,-73,-34
29,-9,-39,-9,34,-24,-351,-253,-200,-151,-73,-34
19,-9,-29,-4,24,-19,-366,-244,-185,-122,-53,-14
29,0,-29,-14,29,-14,-370,-244,-195,-126,-48,-19
39,14,-24,-26,31,-4,-361,-239,-185,-122,-39,-9
39,19,-19,-29,29,0,-361,-234,-185,-117,-39,-9
39,24,-14,-31,26,4,-361,-229,-185,-112,-39,-9
39,29,-9,-34,24,9,-361,-224,-185,-107,-39,-9
29,29,0,-29,14,14,-366,-234,-190,-112,-29,-14
29,29,0,-29,14,14,-361,-234,-185,-117,-34,-14
29,24,-4,-26,17,9,-366,-234,-190,-126,-43,-19
29,19,-9,-24,19,4,-370,-234,-200,-131,-48,-19
39,19,-19,-29,29,0,-375,-244,-200,-112,-34,-9
39,19,-19,-29,29,0,-380,-244,-185,-102,-19,4
39,14,-24,-26,31,-4,-385,-239,-195,-92,-4,14
39,14,-24,-26,31,-4,-385,-244,-200,-87,0,24
53,24,-29,-39,41,-2,-400,-258,-204,-92,4,34
53,29,-24,-41,39,2,-409,-268,-204,-92,9,48
58,29,-29,-43,43,0,-419,-273,-209,-82,24,63
63,29,-34,-46,48,-2,-424,-278,-219,-82,34,73
63,29,-34,-46,48,-2,-424,-287,-219,-73,39,73
63,29,-34,-46,48,-2,-429,-287,-219,-78,43,78
63,29,-34,-46,48,-2,-429,-297,-224,-78,48,82
63,29,-34,-46,48,-2,-429,-307,-224,-82,53,87
68,34,-34,-51,51,0,-409,-322,-229,-87,53,97
73,34,-39,-53,56,-2,-400,-322,-234,-82,58,102
78,34,-43,-56,61,-4,-405,-317,-239,-78,63,107
82,39,-43,-61,63,-2,-405,-317,-244,-68,63,112
87,43,-43,-65,65,0,-385,-331,-248,-68,53,117
92,43,-48,-68,70,-2,-361,-336,-248,-68,58,117
97,43,-53,-70,75,-4,-336,-351,-248,-78,63,117
97,43,-53,-70,75,-4,-302,-351,-244,-78,68,122
107,39,-68,-73,87,-14,-302,-351,-244,-68,78,126
107,34,-73,-70,90,-19,-307,-351,-248,-68,87,131
107,24,-82,-65,95,-29,-312,-351,-248,-63,97,136
112,19,-92,-65,102,-36,-317,-351,-248,-63,107,146
122,19,-102,-70,112,-41,-326,-356,-248,-53,117,161
126,19,-107,-73,117,-43,-322,-361,-258,-58,126,165
126,19,-107,-73,117,-43,-326,-366,-248,-53,136,170
126,19,-107,-73,117,-43,-331,-370,-248,-48,146,180
131,34,-97,-82,114,-31,-326,-356,-244,-29,165,185
131,39,-92,-85,112,-26,-326,-356,-244,-24,170,190
136,48,-87,-92,112,-19,-336,-356,-239,-19,175,195
136,53,-82,-95,109,-14,-341,-356,-234,-14,180,200
136,48,-87,-92,112,-19,-341,-336,-214,-4,180,209
141,43,-97,-92,119,-26,-336,-331,-209,-4,180,209
141,39,-102,-90,122,-31,-336,-331,-214,-4,180,209
141,34,-107,-87,124,-36,-336,-341,-209,0,180,209
141,43,-97,-92,119,-26,-326,-336,-195,19,195,219
141,43,-97,-92,119,-26,-326,-326,-190,39,204,234
141,43,-97,-92,119,-26,-326,-317,-180,48,214,244
141,43,-97,-92,119,-26,-322,-307,-175,48,219,244
141,39,-102,-90,122,-31,-302,-297,-161,48,209,234
141,39,-102,-90,122,-31,-297,-287,-151,48,214,234
141,39,-102,-90,122,-31,-287,-278,-146,53,214,234
141,39,-102,-90,122,-31,-278,-268,-141,53,214,234
136,29,-107,-82,122,-39,-263,-253,-126,58,214,219
136,29,-107,-82,122,-39,-258,-244,-126,68,214,214
136,29,-107,-82,122,-39,-258,-229,-122,73,214,209
141,29,-112,-85,126,-41,-253,-209,-117,82,214,209
141,39,-102,-90,122,-31,-239,-200,-107,92,214,200
141,39,-102,-90,122,-31,-224,-190,-97,92,209,190
141,39,-102,-90,122,-31,-214,-170,-82,92,209,190
141,39,-102,-90,122,-31,-200,-156,-63,92,209,190
136,43,-92,-90,114,-24,-175,-131,-58,92,204,185
131,43,-87,-87,109,-21,-165,-122,-53,87,195,185
126,43,-82,-85,104,-19,-156,-112,-43,82,185,180
117,43,-73,-80,95,-14,-141,-102,-39,78,170,175
117,58,-58,-87,87,0,-165,-92,-29,92,156,161
117,68,-48,-92,82,9,-180,-82,-14,97,156,136
117,73,-43,-95,80,14,-195,-68,-4,97,156,141
117,78,-39,-97,78,19,-204,-53,4,97,156,131
107,82,-24,-95,65,29,-224,-63,-4,92,146,122
102,82,-19,-92,61,31,-244,-78,-4,92,141,122
97,82,-14,-90,56,34,-268,-92,0,87,136,107
92,87,-4,-90,48,41,-287,-107,0,82,126,107
87,78,-9,-82,48,34,-278,-107,0,68,107,92
82,73,-9,-78,46,31,-278,-107,0,63,122,87
82,73,-9,-78,46,31,-273,-107,0,58,112,82
78,73,-4,-75,41,34,-273,-107,4,53,97,78
73,63,-9,-68,41,26,-263,-97,0,34,68,63
58,58,0,-58,29,29,-253,-87,-4,19,43,48
53,58,4,-56,24,31,-244,-78,-14,0,24,29
53,63,9,-58,21,36,-239,-68,-19,-9,4,9
43,53,9,-48,17,31,-224,-63,-4,4,9,-4
39,53,14,-46,12,34,-214,-58,0,19,14,-4
29,53,24,-41,2,39,-209,-53,4,24,19,-4
19,53,34,-36,-7,43,-200,-48,4,29,29,-4
9,53,43,-31,-17,48,-170,-43,4,4,0,-14
0,43,43,-21,-21,43,-175,-43,-14,-24,-29,-34
4,34,29,-19,-12,31,-175,-58,-53,-82,-68,-58
14,43,29,-29,-7,36,-165,-58,-43,-58,-48,-29
14,53,39,-34,-12,46,-161,-58,-9,4,9,9
14,43,29,-29,-7,36,-170,-68,0,24,48,43
14,39,24,-26,-4,31,-170,-78,-4,53,82,73
29,39,9,-34,9,24,-170,-78,0,92,131,112
48,29,-19,-39,34,4,-175,-87,29,107,175,161
87,34,-53,-61,70,-9,-195,-87,73,165,248,229
117,53,-63,-85,90,-4,-214,-78,146,302,405,356
156,97,-58,-126,107,19,-234,-82,185,400,556,492
200,122,-78,-161,139,21,-248,-102,185,424,658,605
244,131,-112,-187,178,9,-263,-87,234,527,814,746
297,131,-165,-214,231,-17,-278,-63,336,692,1005,902
326,126,-200,-226,263,-36,-278,-48,409,819,1195,1068
346,131,-214,-239,280,-41,-283,-24,468,922,1376,1224
405,117,-287,-261,346,-85,-292,24,575,1073,1571,1361
444,112,-331,-278,387,-109,-307,73,692,1229,1786,1478
488,117,-370,-302,429,-126,-312,107,766,1342,1952,1610
536,107,-429,-322,483,-161,-322,122,785,1376,2049,1712
580,97,-483,-339,531,-192,-336,146,839,1439,2127,1751
600,87,-512,-344,556,-212,-331,200,883,1449,2103,1703
590,82,-507,-336,549,-212,-307,234,873,1381,1971,1576
570,73,-497,-322,534,-212,-268,268,854,1298,1825,1420
566,68,-497,-317,531,-214,-224,317,883,1259,1678,1234
531,68,-463,-300,497,-197,-195,366,912,1239,1522,1034
512,53,-458,-283,485,-202,-156,405,922,1185,1346,819
492,24,-468,-258,480,-222,-107,448,951,1166,1185,585
458,-29,-488,-214,473,-258,-39,527,1049,1234,1054,331
380,-78,-458,-151,419,-268,34,595,1088,1205,873,58
287,-131,-419,-78,353,-275,97,614,1015,1005,570,-195
219,-180,-400,-19,309,-290,141,614,922,810,273,-395
185,-209,-395,12,290,-302,175,634,902,712,73,-541
107,-209,-317,51,212,-263,229,663,893,653,-102,-653
14,-209,-224,97,119,-217,297,697,893,595,-234,-741
-53,-224,-170,139,58,-197,351,722,902,561,-326,-800
-112,-214,-102,163,-4,-158,400,756,922,497,-405,-814
-180,-234,-53,207,-63,-143,468,790,854,331,-512,-814
-244,-273,-29,258,-107,-151,546,810,683,34,-683,-863
-283,-292,-9,287,-136,-151,595,824,512,-268,-839,-907
-312,-263,48,287,-180,-107,634,854,419,-439,-936,-922
-346,-229,117,287,-231,-56,673,863,395,-483,-961,-927
-361,-219,141,290,-251,-39,702,868,375,-483,-956,-927
-361,-214,146,287,-253,-34,707,858,361,-468,-927,-897
-370,-214,156,292,-263,-29,712,839,341,-448,-858,-839
-385,-239,146,312,-265,-46,727,829,292,-448,-819,-795
-380,-253,126,317,-253,-63,746,839,258,-492,-834,-790
-370,-248,122,309,-246,-63,761,858,239,-531,-854,-805
-351,-229,122,290,-236,-53,751,888,244,-517,-819,-785
-326,-219,107,273,-217,-56,761,917,278,-453,-756,-732
-297,-219,78,258,-187,-70,771,951,297,-409,-707,-678
-292,-239,53,265,-173,-92,795,971,283,-434,-712,-668
-312,-248,63,280,-187,-92,858,1019,258,-444,-717,-663
-322,-239,82,280,-202,-78,927,1088,248,-444,-697,-653
-312,-209,102,261,-207,-53,966,1117,214,-448,-688,-653
-292,-200,92,246,-192,-53,990,1098,126,-507,-702,-653
-302,-204,97,253,-200,-53,1005,1044,39,-546,-702,-624
-302,-200,102,251,-202,-48,1054,1034,9,-531,-668,-585
-287,-204,82,246,-185,-61,1088,1044,0,-522,-649,-570
-287,-219,68,253,-178,-75,1088,990,-43,-527,-639,-561
-283,-229,53,256,-168,-87,1068,912,-87,-507,-629,-536
-263,-214,48,239,-156,-82,1049,839,-117,-492,-590,-502
-258,-224,34,241,-146,-95,1039,751,-151,-492,-570,-483
-278,-234,43,256,-161,-95,1010,653,-190,-492,-575,-497
-278,-229,48,253,-163,-90,1000,575,-224,-492,-556,-488
-278,-224,53,251,-165,-85,980,488,-253,-483,-527,-463
-287,-224,63,256,-175,-80,936,395,-287,-492,-517,-448
-292,-214,78,253,-185,-68,888,317,-297,-492,-522,-439
-287,-214,73,251,-180,-70,854,258,-302,-492,-517,-429
-278,-224,53,251,-165,-85,834,214,-322,-517,-522,-429
-253,-214,39,234,-146,-87,819,170,-326,-492,-502,-400
-248,-214,34,231,-141,-90,766,122,-317,-444,-439,-366
-253,-214,39,234,-146,-87,707,73,-317,-409,-390,-326
-234,-204,29,219,-131,-87,644,19,-322,-370,-351,-297
-214,-180,34,197,-124,-73,556,-39,-331,-356,-331,-273
-209,-180,29,195,-119,-75,444,-97,-361,-395,-361,-268
-195,-161,34,178,-114,-63,341,-156,-370,-400,-356,-278
-161,-126,34,143,-97,-46,258,-190,-346,-331,-312,-244
-136,-97,39,117,-87,-29,185,-209,-326,-297,-263,-200
-107,-87,19,97,-63,-34,97,-229,-312,-273,-244,-175
-78,-63,14,70,-46,-24,24,-239,-283,-234,-209,-165
-73,-43,29,58,-51,-7,-19,-248,-263,-234,-200,-146
-63,-48,14,56,-39,-17,-53,-248,-268,-248,-200,-136
-43,-39,4,41,-24,-17,-87,-234,-229,-190,-170,-117
-43,-29,14,36,-29,-7,-97,-224,-180,-141,-131,-97
-43,-29,14,36,-29,-7,-102,-214,-170,-141,-122,-92
-43,-29,14,36,-29,-7,-107,-204,-170,-146,-122,-73
-43,-19,24,31,-34,2,-117,-209,-175,-151,-122,-68
-43,-14,29,29,-36,7,-131,-224,-185,-151,-122,-63
-43,-9,34,26,-39,12,-146,-224,-190,-151,-117,-58
-34,0,34,17,-34,17,-161,-224,-185,-146,-102,-53
-34,4,39,14,-36,21,-151,-229,-195,-146,-97,-58
-34,4,39,14,-36,21,-151,-229,-195,-141,-97,-48
-39,4,43,17,-41,24,-151,-234,-190,-141,-102,-53
-39,4,43,17,-41,24,-151,-239,-190,-146,-107,-58
-43,-4,39,24,-41,17,-151,-234,-185,-136,-117,-68
-39,-4,34,21,-36,14,-161,-229,-180,-131,-117,-68
-34,0,34,17,-34,17,-161,-229,-175,-126,-112,-68
-24,0,24,12,-24,12,-161,-224,-170,-117,-107,-58
-29,-9,19,19,-24,4,-161,-239,-185,-126,-97,-53
-24,-4,19,14,-21,7,-170,-239,-190,-126,-97,-53
-19,-4,14,12,-17,4,-170,-244,-195,-126,-82,-53
-14,-4,9,9,-12,2,-170,-248,-200,-126,-82,-43
-19,-4,14,12,-17,4,-180,-244,-200,-126,-92,-34
-19,0,19,9,-19,9,-185,-248,-204,-131,-92,-34
-19,0,19,9,-19,9,-195,-248,-204,-131,-92,-34
-14,0,14,7,-14,7,-185,-248,-204,-126,-92,-29
-19,-14,4,17,-12,-4,-180,-244,-204,-131,-102,-34
-24,-19,4,21,-14,-7,-180,-244,-204,-131,-102,-39
-29,-14,14,21,-21,0,-180,-244,-209,-131,-102,-48
-24,-19,4,21,-14,-7,-175,-244,-209,-136,-102,-53
-34,-19,14,26,-24,-2,-175,-248,-209,-122,-92,-43
-34,-14,19,24,-26,2,-180,-253,-200,-122,-87,-39
-34,-9,24,21,-29,7,-190,-263,-200,-122,-87,-39
-34,-4,29,19,-31,12,-200,-273,-219,-126,-82,-39
-34,4,39,14,-36,21,-190,-268,-214,-126,-82,-24
-34,4,39,14,-36,21,-200,-268,-214,-126,-82,-14
-29,4,34,12,-31,19,-204,-268,-214,-131,-82,-9
-29,9,39,9,-34,24,-204,-283,-219,-141,-82,-4
-19,0,19,9,-19,9,-200,-287,-224,-136,-73,-4
-19,0,19,9,-19,9,-200,-287,-229,-141,-73,-4
-9,4,14,2,-12,9,-224,-283,-234,-136,-73,-4
-9,4,14,2,-12,9,-224,-278,-234,-126,-68,-4
-9,4,14,2,-12,9,-219,-273,-229,-122,-53,19
-14,4,19,4,-17,12,-219,-287,-229,-117,-48,29
-14,4,19,4,-17,12,-224,-292,-224,-112,-43,43
-14,4,19,4,-17,12,-229,-292,-219,-107,-34,53
0,14,14,-7,-7,14,-229,-292,-214,-97,-19,63
4,19,14,-12,-4,17,-229,-292,-209,-92,-9,73
9,19,9,-14,0,14,-229,-292,-214,-87,4,82
9,14,4,-12,2,9,-224,-292,-214,-82,14,92
24,24,0,-24,12,12,-214,-297,-229,-82,24,102
29,29,0,-29,14,14,-214,-302,-229,-82,29,112
29,34,4,-31,12,19,-214,-307,-239,-82,29,126
34,39,4,-36,14,21,-224,-312,-239,-82,39,131
29,58,29,-43,0,43,-209,-312,-229,-58,58,146
29,63,34,-46,-2,48,-229,-307,-219,-48,73,151
34,68,34,-51,0,51,-229,-307,-214,-43,78,156
34,73,39,-53,-2,56,-224,-312,-209,-34,87,161
53,78,24,-65,14,51,-224,-312,-200,-14,102,180
53,78,24,-65,14,51,-219,-312,-195,-9,122,195
58,78,19,-68,19,48,-219,-317,-195,-4,136,209
58,82,24,-70,17,53,-214,-317,-195,4,151,224
63,92,29,-78,17,61,-214,-312,-180,29,165,244
68,102,34,-85,17,68,-219,-312,-180,34,170,248
68,117,48,-92,9,82,-224,-312,-175,29,175,253
68,126,58,-97,4,92,-224,-317,-170,48,185,263
78,136,58,-107,9,97,-229,-312,-161,68,214,278
82,146,63,-114,9,104,-234,-302,-146,82,229,292
87,156,68,-122,9,112,-239,-287,-126,97,244,312
92,170,78,-131,7,124,-244,-278,-107,117,258,326
102,170,68,-136,17,119,-287,-283,-107,122,258,322
107,175,68,-141,19,122,-326,-287,-112,122,263,322
117,175,58,-146,29,117,-361,-292,-112,131,268,322
117,180,63,-148,26,122,-400,-297,-112,136,278,326
126,185,58,-156,34,122,-424,-336,-112,141,273,322
117,185,68,-151,24,126,-448,-356,-117,146,283,326
117,185,68,-151,24,126,-468,-375,-122,156,287,331
131,195,63,-163,34,129,-502,-395,-122,156,292,336
126,195,68,-161,29,131,-507,-419,-136,136,287,341
122,190,68,-156,26,129,-512,-429,-141,126,283,341
117,185,68,-151,24,126,-517,-439,-141,131,292,346
112,185,73,-148,19,129,-522,-448,-146,131,297,351
102,180,78,-141,12,129,-536,-439,-126,156,297,341
102,185,82,-143,9,134,-541,-434,-122,161,297,341
102,190,87,-146,7,139,-541,-429,-107,165,302,346
102,190,87,-146,7,139,-541,-424,-107,165,302,341
102,175,73,-139,14,124,-536,-414,-117,141,283,317
102,175,73,-139,14,124,-536,-409,-112,131,268,302
102,175,73,-139,14,124,-527,-400,-102,131,253,287
102,170,68,-136,17,119,-522,-390,-107,122,234,273
92,165,73,-129,9,119,-507,-380,-107,136,234,268
92,161,68,-126,12,114,-502,-370,-82,141,239,263
92,156,63,-124,14,109,-492,-351,-78,146,239,248
87,146,58,-117,14,102,-488,-341,-63,151,239,244
82,141,58,-112,12,100,-492,-322,-63,136,214,224
78,136,58,-107,9,97,-488,-312,-53,131,200,214
78,136,58,-107,9,97,-473,-302,-39,126,190,195
73,131,58,-102,7,95,-468,-287,-34,117,175,185
53,122,68,-87,-7,95,-439,-283,-34,112,165,175
53,117,63,-85,-4,90,-439,-268,-24,112,156,156
53,107,53,-80,0,80,-424,-253,-24,107,136,146
43,97,53,-70,-4,75,-419,-239,-29,107,122,136
43,87,43,-65,0,65,-419,-234,-34,97,97,122
48,82,34,-65,7,58,-409,-219,-34,82,87,107
53,82,29,-68,12,56,-400,-204,-34,73,78,97
58,78,19,-68,19,48,-380,-190,-29,63,63,87
53,68,14,-61,19,41,-356,-180,-34,58,48,73
43,63,19,-53,12,41,-346,-170,-29,48,43,63
34,63,29,-48,2,46,-346,-161,-24,39,39,48
24,63,39,-43,-7,51,-341,-156,-19,34,19,24
24,53,29,-39,-2,41,-322,-136,-24,19,-4,4
19,43,24,-31,-2,34,-307,-126,-24,9,-9,-4
19,34,14,-26,2,24,-302,-122,-24,4,-19,-19
9,24,14,-17,-2,19,-297,-122,-24,0,-43,-34
4,9,4,-7,0,7,-278,-122,-24,0,-48,-19
4,4,0,-4,2,2,-268,-117,-24,-9,-43,-19
0,4,4,-2,-2,4,-263,-112,-24,-9,-48,-24
0,4,4,-2,-2,4,-253,-107,-29,-24,-58,-39
-4,14,19,-4,-12,17,-253,-92,-34,-29,-58,-39
-4,4,9,0,-7,7,-248,-92,-39,-43,-68,-53
0,0,0,0,0,0,-244,-92,-39,-48,-82,-48
0,0,0,0,0,0,-234,-92,-43,-58,-92,-53
-14,-9,4,12,-9,-2,-219,-78,-53,-73,-107,-63
-14,-9,4,12,-9,-2,-209,-73,-58,-78,-117,-73
-19,-14,4,17,-12,-4,-200,-73,-63,-82,-126,-87
-29,-24,4,26,-17,-9,-185,-73,-68,-97,-136,-102
-19,-29,-9,24,-4,-19,-175,-68,-58,-87,-136,-102
-19,-29,-9,24,-4,-19,-175,-63,-58,-92,-131,-97
-19,-29,-9,24,-4,-19,-170,-58,-58,-92,-126,-97
-24,-29,-4,26,-9,-17,-170,-48,-58,-87,-122,-92
-29,-29,0,29,-14,-14,-161,-34,-58,-82,-112,-78
-34,-24,9,29,-21,-7,-161,-34,-58,-82,-112,-73
-29,-14,14,21,-21,0,-146,-39,-58,-82,-112,-73
-29,-9,19,19,-24,4,-131,-39,-58,-82,-117,-73
-29,-9,19,19,-24,4,-131,-29,-48,-82,-102,-73
-24,-14,9,19,-17,-2,-131,-29,-53,-82,-112,-73
-24,-14,9,19,-17,-2,-126,-29,-58,-97,-112,-68
-29,-14,14,21,-21,0,-117,-29,-58,-92,-107,-63
-29,-4,24,17,-26,9,-102,-14,-53,-78,-97,-63
-29,-4,24,17,-26,9,-92,-9,-53,-73,-97,-68
-39,-4,34,21,-36,14,-87,0,-48,-68,-97,-68
-39,-9,29,24,-34,9,-78,4,-43,-63,-97,-68
-39,-9,29,24,-34,9,-73,9,-39,-58,-92,-68
-39,-4,34,21,-36,14,-68,9,-39,-58,-82,-63
-34,-4,29,19,-31,12,-68,9,-34,-63,-78,-53
-34,-4,29,19,-31,12,-68,14,-24,-48,-78,-39
-29,4,34,12,-31,19,-53,19,-14,-39,-82,-39
-29,4,34,12,-31,19,-48,24,-14,-39,-78,-39
-24,4,29,9,-26,17,-43,24,-14,-39,-73,-34
-24,4,29,9,-26,17,-58,24,-19,-34,-68,-34
-24,9,34,7,-29,21,-39,34,-19,-39,-82,-48
-29,9,39,9,-34,24,-29,34,-19,-43,-82,-43
-29,4,34,12,-31,19,-14,34,-14,-48,-78,-43
-29,4,34,12,-31,19,-4,34,-9,-53,-73,-43
-29,4,34,12,-31,19,-19,39,-9,-43,-68,-53
-24,4,29,9,-26,17,-34,34,-9,-43,-73,-53
-24,4,29,9,-26,17,-43,29,-9,-43,-78,-58
-24,9,34,7,-29,21,-53,24,-9,-43,-82,-63
-14,9,24,2,-19,17,-136,-9,-29,-43,-82,-58
-4,14,19,-4,-12,17,-185,-34,-34,-53,-82,-48
-9,29,39,-9,-24,34,-214,-58,-39,-58,-87,-39
-9,29,39,-9,-24,34,-224,-68,-53,-63,-97,-48
-9,29,39,-9,-24,34,-234,-78,-58,-68,-97,-48
-9,29,39,-9,-24,34,-244,-87,-63,-73,-97,-48
-9,29,39,-9,-24,34,-253,-97,-68,-78,-97,-48
-19,29,48,-4,-34,39,-268,-102,-73,-87,-97,-58
-19,29,48,-4,-34,39,-263,-107,-68,-87,-102,-63
-19,24,43,-2,-31,34,-268,-112,-73,-92,-112,-73
-19,19,39,0,-29,29,-273,-117,-82,-92,-117,-78
-19,14,34,2,-26,24,-283,-112,-82,-82,-112,-68
-19,9,29,4,-24,19,-283,-107,-68,-82,-107,-63
-19,0,19,9,-19,9,-283,-97,-78,-82,-102,-63
-19,-4,14,12,-17,4,-278,-97,-82,-87,-107,-63
-19,4,24,7,-21,14,-278,-97,-82,-92,-112,-68
-24,9,34,7,-29,21,-283,-102,-78,-92,-117,-68
-24,9,34,7,-29,21,-287,-102,-78,-82,-112,-68
-24,9,34,7,-29,21,-287,-102,-82,-82,-112,-73
-19,0,19,9,-19,9,-283,-92,-82,-82,-112,-87
-14,0,14,7,-14,7,-283,-92,-82,-87,-112,-87
-9,0,9,4,-9,4,-278,-102,-87,-87,-112,-87
-4,0,4,2,-4,2,-273,-112,-87,-92,-112,-87
-14,9,24,2,-19,17,-253,-112,-87,-102,-126,-82
-14,4,19,4,-17,12,-244,-107,-87,-102,-126,-82
-14,0,14,7,-14,7,-248,-97,-87,-102,-126,-82
-14,0,14,7,-14,7,-248,-92,-87,-97,-131,-82
-14,-4,9,9,-12,2,-244,-92,-87,-87,-122,-87
-14,-4,9,9,-12,2,-234,-92,-82,-87,-117,-87
-14,-4,9,9,-12,2,-224,-102,-78,-97,-112,-87
-19,-4,14,12,-17,4,-204,-97,-68,-97,-107,-82
-19,-4,14,12,-17,4,-209,-82,-68,-107,-112,-92
-19,-4,14,12,-17,4,-209,-78,-73,-107,-117,-92
-19,-9,9,14,-14,0,-209,-73,-73,-102,-122,-92
-14,-9,4,12,-9,-2,-209,-68,-73,-102,-126,-87
-14,-19,-4,17,-4,-12,-195,-68,-73,-97,-136,-92
-9,-19,-9,14,0,-14,-185,-68,-82,-107,-136,-97
-9,-19,-9,14,0,-14,-185,-68,-73,-107,-136,-102
-9,-19,-9,14,0,-14,-185,-68,-73,-107,-136,-102
-14,-9,4,12,-9,-2,-180,-63,-63,-102,-131,-92
-14,-9,4,12,-9,-2,-180,-63,-68,-102,-131,-92
-9,-4,4,7,-7,0,-190,-63,-68,-102,-131,-92
-9,-4,4,7,-7,0,-195,-63,-68,-102,-131,-92
-19,-4,14,12,-17,4,-190,-43,-63,-102,-131,-92
-14,-4,9,9,-12,2,-180,-39,-63,-102,-131,-92
-14,-4,9,9,-12,2,-175,-39,-73,-102,-131,-92
-14,-4,9,9,-12,2,-170,-48,-73,-97,-131,-92
-24,4,29,9,-26,17,-161,-48,-63,-97,-136,-92
-24,4,29,9,-26,17,-161,-43,-63,-87,-136,-87
-24,4,29,9,-26,17,-161,-39,-58,-87,-136,-87
-24,4,29,9,-26,17,-156,-34,-58,-97,-141,-97
-24,-9,14,17,-19,2,-141,-39,-68,-97,-131,-97
-24,-9,14,17,-19,2,-141,-34,-63,-97,-126,-97
-24,-9,14,17,-19,2,-136,-29,-63,-92,-126,-97
-24,-9,14,17,-19,2,-131,-24,-63,-92,-126,-97
-29,0,29,14,-29,14,-112,-29,-58,-102,-136,-107
-29,0,29,14,-29,14,-112,-29,-58,-97,-136,-107
-29,0,29,14,-29,14,-117,-24,-53,-97,-136,-107
-24,0,24,12,-24,12,-117,-14,-48,-92,-136,-102
-34,0,34,17,-34,17,-102,-24,-53,-102,-146,-92
-34,0,34,17,-34,17,-97,-24,-58,-102,-151,-102
-34,0,34,17,-34,17,-97,-14,-58,-102,-151,-102
-34,0,34,17,-34,17,-92,-9,-53,-102,-151,-102
-34,4,39,14,-36,21,-82,-4,-53,-87,-141,-102
-34,4,39,14,-36,21,-78,-4,-53,-87,-136,-97
-34,4,39,14,-36,21,-73,-4,-48,-87,-131,-97
-39,4,43,17,-41,24,-63,-4,-48,-87,-131,-97
-39,4,43,17,-41,24,-48,-14,-58,-87,-136,-92
-39,9,48,14,-43,29,-43,-14,-53,-87,-136,-107
-39,9,48,14,-43,29,-39,-9,-53,-92,-136,-92
-39,9,48,14,-43,29,-29,-4,-53,-97,-136,-92
-43,4,48,19,-46,26,-24,0,-53,-107,-146,-92
-43,4,48,19,-46,26,-19,0,-53,-102,-151,-92
-43,4,48,19,-46,26,-19,0,-48,-102,-156,-107
-43,9,53,17,-48,31,-14,0,-48,-102,-165,-107
-53,0,53,26,-53,26,9,9,-58,-92,-156,-97
-53,-4,48,29,-51,21,24,9,-58,-92,-131,-97
-48,-4,43,26,-46,19,43,9,-58,-92,-131,-97
-48,-4,43,26,-46,19,58,9,-53,-92,-136,-97
-39,0,39,19,-39,19,73,0,-53,-102,-146,-97
-48,0,48,24,-48,24,78,0,-53,-107,-151,-97
-48,4,53,21,-51,29,82,0,-58,-117,-151,-102
-43,14,58,14,-51,36,82,0,-58,-117,-151,-107
-34,24,58,4,-46,41,73,-9,-58,-117,-151,-112
-29,24,53,2,-41,39,58,-9,-58,-107,-151,-112
-29,24,53,2,-41,39,39,-9,-58,-107,-151,-112
-29,24,53,2,-41,39,24,-9,-63,-107,-146,-112
-29,24,53,2,-41,39,-34,-73,-92,-112,-136,-102
-29,34,63,-2,-46,48,-58,-92,-92,-122,-136,-102
-24,43,68,-9,-46,56,-58,-107,-92,-102,-117,-78
-24,53,78,-14,-51,65,-68,-117,-82,-78,-87,-39
-14,43,58,-14,-36,51,-82,-117,-68,-43,-68,-19
-4,53,58,-24,-31,56,-82,-117,-48,-14,-9,24
24,78,53,-51,-14,65,-102,-117,-24,34,63,92
39,97,58,-68,-9,78,-122,-117,19,112,161,180
58,117,58,-87,0,87,-146,-117,58,195,273,287
87,141,53,-114,17,97,-175,-126,112,283,395,405
126,170,43,-148,41,107,-195,-126,165,370,512,531
156,185,29,-170,63,107,-204,-112,224,468,644,649
180,190,9,-185,85,100,-219,-102,283,561,795,780
204,200,-4,-202,104,97,-224,-78,341,673,941,922
239,209,-29,-224,134,90,-229,-53,414,790,1122,1068
287,214,-73,-251,180,70,-248,-29,497,936,1322,1244
326,229,-97,-278,212,65,-263,-4,595,1078,1522,1400
375,244,-131,-309,253,56,-283,34,683,1220,1698,1546
424,248,-175,-336,300,36,-297,63,761,1356,1893,1683
468,263,-204,-366,336,29,-302,97,834,1488,2088,1844
488,263,-224,-375,356,19,-292,122,883,1561,2235,1966
512,263,-248,-387,380,7,-287,165,917,1595,2303,1995
522,253,-268,-387,395,-7,-263,229,980,1644,2318,1966
531,239,-292,-385,412,-26,-229,273,1000,1625,2254,1888
522,229,-292,-375,407,-31,-200,297,980,1542,2098,1722
527,204,-322,-366,424,-58,-185,336,980,1464,1912,1517
512,185,-326,-348,419,-70,-146,375,990,1405,1737,1298
473,170,-302,-322,387,-65,-107,405,980,1332,1542,1093
414,151,-263,-283,339,-56,-48,439,971,1254,1342,829
322,107,-214,-214,268,-53,19,497,990,1195,1112,527
234,58,-175,-146,204,-58,102,566,1010,1137,902,244
170,43,-126,-107,148,-41,156,595,995,1073,717,39
112,43,-68,-78,90,-12,190,605,971,995,536,-122
39,34,-4,-36,21,14,234,614,941,907,336,-278
-29,24,53,2,-41,39,278,624,922,810,122,-419
-102,24,126,39,-114,75,346,658,922,732,-48,-527
-170,9,180,80,-175,95,409,692,922,688,-151,-585
-219,-19,200,119,-209,90,458,717,932,644,-209,-619
-248,-58,190,153,-219,65,507,780,961,605,-287,-668
-273,-97,175,185,-224,39,595,849,946,492,-400,-727
-312,-117,195,214,-253,39,653,873,854,268,-556,-780
-341,-117,224,229,-283,53,673,863,692,-19,-712,-814
-346,-122,224,234,-285,51,663,834,541,-229,-805,-819
-331,-141,190,236,-261,24,663,810,453,-317,-819,-810
-351,-136,214,244,-283,39,668,780,390,-361,-819,-800
-361,-136,224,248,-292,43,653,751,331,-409,-829,-780
-356,-141,214,248,-285,36,649,741,312,-419,-819,-766
-341,-136,204,239,-273,34,658,741,287,-424,-795,-751
-341,-131,209,236,-275,39,673,761,268,-434,-775,-727
-322,-131,190,226,-256,29,683,800,263,-419,-751,-697
-317,-131,185,224,-251,26,692,839,268,-414,-727,-673
-307,-131,175,219,-241,21,722,873,268,-409,-717,-649
-302,-131,170,217,-236,19,766,932,292,-395,-692,-629
-302,-141,161,222,-231,9,819,1000,317,-366,-668,-624
-302,-141,161,222,-231,9,849,1019,317,-375,-668,-624
-302,-151,151,226,-226,0,888,1029,273,-409,-688,-624
-302,-151,151,226,-226,0,922,1029,234,-419,-673,-614
-302,-165,136,234,-219,-14,956,1024,175,-439,-663,-595
-292,-180,112,236,-202,-34,976,1015,117,-473,-668,-585
-297,-185,112,241,-204,-36,1000,985,48,-492,-668,-580
-297,-190,107,244,-202,-41,1029,951,-14,-507,-668,-580
-302,-209,92,256,-197,-58,1058,883,-78,-527,-668,-575
-302,-214,87,258,-195,-63,1078,800,-136,-561,-678,-570
-307,-224,82,265,-195,-70,1088,712,-200,-570,-678,-561
-297,-224,73,261,-185,-75,1088,634,-239,-580,-653,-536
-307,-229,78,268,-192,-75,1098,556,-263,-570,-634,-517
-317,-234,82,275,-200,-75,1107,507,-273,-551,-624,-512
-317,-234,82,275,-200,-75,1112,463,-287,-551,-605,-507
-322,-244,78,283,-200,-82,1122,405,-297,-551,-600,-488
-317,-244,73,280,-195,-85,1117,356,-322,-561,-595,-478
-326,-253,73,290,-200,-90,1117,292,-351,-556,-590,-478
-322,-263,58,292,-190,-102,1093,229,-366,-551,-580,-458
-317,-253,63,285,-190,-95,1078,170,-375,-541,-566,-444
-312,-244,68,278,-190,-87,1049,141,-375,-527,-546,-424
-302,-244,58,273,-180,-92,1015,136,-361,-507,-527,-414
-283,-239,43,261,-163,-97,976,107,-361,-492,-517,-400
-268,-219,48,244,-158,-85,902,58,-351,-473,-488,-375
-244,-190,53,217,-148,-68,839,29,-351,-448,-453,-346
-229,-175,53,202,-141,-61,746,-14,-346,-429,-429,-331
-204,-165,39,185,-122,-63,614,-82,-356,-405,-400,-307
-175,-156,19,165,-97,-68,468,-151,-361,-390,-370,-273
-146,-122,24,134,-85,-48,326,-200,-351,-361,-336,-244
-122,-102,19,112,-70,-41,195,-229,-331,-322,-307,-214
-102,-97,4,100,-53,-46,102,-229,-297,-297,-278,-185
-73,-68,4,70,-39,-31,29,-204,-258,-258,-248,-175
-53,-48,4,51,-29,-21,-9,-185,-229,-229,-219,-156
-43,-39,4,41,-24,-17,-24,-185,-219,-219,-200,-141
-34,-29,4,31,-19,-12,-39,-195,-209,-214,-200,-131
-34,-34,0,34,-17,-17,-48,-190,-219,-209,-190,-126
-34,-34,0,34,-17,-17,-63,-204,-224,-209,-190,-122
-34,-34,0,34,-17,-17,-78,-204,-224,-209,-185,-117
-24,-29,-4,26,-9,-17,-92,-204,-214,-204,-170,-112
-14,-34,-19,24,2,-26,-112,-209,-214,-204,-165,-107
-14,-34,-19,24,2,-26,-122,-209,-214,-200,-165,-97
-19,-34,-14,26,-2,-24,-131,-214,-209,-200,-170,-102
-19,-34,-14,26,-2,-24,-141,-219,-209,-204,-175,-107
-24,-34,-9,29,-7,-21,-141,-229,-219,-204,-175,-97
-19,-34,-14,26,-2,-24,-151,-229,-219,-200,-175,-97
-14,-29,-14,21,0,-21,-151,-234,-219,-195,-170,-97
-4,-29,-24,17,9,-26,-151,-234,-219,-185,-165,-87
-4,-29,-24,17,9,-26,-151,-234,-219,-195,-165,-92
-4,-24,-19,14,7,-21,-161,-229,-219,-195,-165,-92
-4,-24,-19,14,7,-21,-161,-229,-219,-195,-151,-92
-4,-24,-19,14,7,-21,-161,-229,-219,-195,-151,-82
0,-14,-14,7,7,-14,-151,-224,-219,-185,-151,-82
0,-9,-9,4,4,-9,-156,-229,-224,-190,-151,-82
0,-9,-9,4,4,-9,-165,-229,-224,-190,-151,-82
4,-9,-14,2,9,-12,-156,-229,-224,-185,-151,-78
-4,-9,-4,7,0,-7,-165,-234,-234,-195,-151,-68
-4,-9,-4,7,0,-7,-170,-234,-234,-190,-151,-68
-4,0,4,2,-4,2,-175,-234,-239,-185,-151,-73
4,0,-4,-2,4,-2,-175,-234,-239,-185,-151,-73
-4,0,4,2,-4,2,-170,-234,-239,-190,-141,-63
-4,4,9,0,-7,7,-170,-234,-229,-190,-136,-58
-4,9,14,-2,-9,12,-175,-239,-229,-190,-136,-58
-4,14,19,-4,-12,17,-180,-244,-248,-195,-131,-58
-4,14,19,-4,-12,17,-165,-234,-248,-185,-131,-58
-4,14,19,-4,-12,17,-170,-239,-244,-185,-131,-53
0,14,14,-7,-7,14,-170,-244,-239,-190,-131,-53
0,19,19,-9,-9,19,-165,-263,-239,-200,-131,-53
0,9,9,-4,-4,9,-170,-263,-244,-190,-131,-43
0,9,9,-4,-4,9,-170,-268,-248,-200,-131,-43
9,14,4,-12,2,9,-195,-268,-253,-200,-131,-43
9,14,4,-12,2,9,-195,-268,-253,-195,-126,-43
19,14,-4,-17,12,4,-190,-273,-258,-200,-126,-39
14,14,0,-14,7,7,-190,-287,-268,-204,-126,-39
14,14,0,-14,7,7,-195,-292,-273,-209,-126,-34
14,14,0,-14,7,7,-200,-292,-278,-214,-122,-34
19,19,0,-19,9,9,-195,-297,-283,-214,-122,-39
24,19,-4,-21,14,7,-200,-302,-287,-219,-126,-34
29,14,-14,-21,21,0,-204,-307,-302,-224,-126,-29
29,4,-24,-17,26,-9,-204,-312,-312,-229,-131,-24
34,4,-29,-19,31,-12,-204,-312,-307,-239,-131,-29
39,9,-29,-24,34,-9,-204,-312,-307,-239,-126,-24
39,14,-24,-26,31,-4,-204,-312,-317,-239,-126,-14
43,19,-24,-31,34,-2,-214,-312,-317,-239,-117,-14
39,14,-24,-26,31,-4,-200,-317,-317,-234,-122,-9
39,14,-24,-26,31,-4,-219,-317,-317,-234,-112,-4
43,14,-29,-29,36,-7,-219,-322,-322,-239,-112,0
43,14,-29,-29,36,-7,-214,-331,-326,-239,-107,4
43,19,-24,-31,34,-2,-214,-322,-331,-244,-102,4
43,19,-24,-31,34,-2,-209,-322,-331,-244,-92,9
48,19,-29,-34,39,-4,-209,-326,-336,-244,-87,14
48,24,-24,-36,36,0,-204,-326,-341,-239,-82,19
53,14,-39,-34,46,-12,-200,-326,-331,-229,-78,39
58,14,-43,-36,51,-14,-200,-331,-336,-229,-73,43
58,19,-39,-39,48,-9,-200,-336,-336,-239,-68,48
58,19,-39,-39,48,-9,-195,-346,-336,-224,-58,58
58,29,-29,-43,43,0,-185,-341,-346,-229,-58,63
63,29,-34,-46,48,-2,-185,-341,-351,-229,-53,68
68,29,-39,-48,53,-4,-185,-336,-351,-229,-48,78
73,34,-39,-53,56,-2,-185,-336,-351,-224,-43,82
82,34,-48,-58,65,-7,-185,-336,-341,-219,-34,82
87,39,-48,-63,68,-4,-190,-336,-346,-219,-29,87
97,39,-58,-68,78,-9,-190,-336,-346,-209,-24,92
97,43,-53,-70,75,-4,-195,-336,-346,-204,-14,102
107,39,-68,-73,87,-14,-185,-331,-341,-209,-9,117
97,39,-58,-68,78,-9,-185,-326,-341,-204,0,122
97,39,-58,-68,78,-9,-180,-322,-341,-195,4,126
112,48,-63,-80,87,-7,-190,-317,-336,-195,9,131
117,53,-63,-85,90,-4,-209,-312,-331,-190,24,146
122,53,-68,-87,95,-7,-219,-312,-326,-185,29,146
126,53,-73,-90,100,-9,-229,-312,-317,-165,48,151
131,58,-73,-95,102,-7,-239,-312,-312,-151,63,156
131,63,-68,-97,100,-2,-273,-317,-307,-141,58,170
131,68,-63,-100,97,2,-297,-326,-307,-141,63,175
131,73,-58,-102,95,7,-317,-336,-297,-141,73,185
131,73,-58,-102,95,7,-336,-346,-302,-146,78,185
131,63,-68,-97,100,-2,-356,-351,-312,-146,78,185
131,68,-63,-100,97,2,-370,-370,-307,-141,82,185
131,73,-58,-102,95,7,-375,-385,-297,-126,87,185
131,73,-58,-102,95,7,-385,-400,-302,-122,87,185
122,73,-48,-97,85,12,-390,-405,-307,-117,97,195
122,73,-48,-97,85,12,-395,-400,-287,-112,102,195
122,73,-48,-97,85,12,-395,-385,-287,-107,102,185
117,68,-48,-92,82,9,-400,-380,-278,-102,102,185
122,78,-43,-100,82,17,-409,-380,-273,-82,112,185
117,78,-39,-97,78,19,-409,-370,-258,-73,112,185
117,82,-34,-100,75,24,-400,-361,-239,-63,117,175
112,82,-29,-97,70,26,-400,-346,-229,-58,117,175
112,92,-19,-102,65,36,-390,-341,-229,-48,117,175
112,97,-14,-104,63,41,-390,-326,-209,-43,117,165
112,97,-14,-104,63,41,-375,-312,-200,-43,107,165
102,97,-4,-100,53,46,-370,-297,-195,-39,102,165
97,97,0,-97,48,48,-351,-292,-175,-34,102,161
97,92,-4,-95,51,43,-341,-278,-170,-34,97,146
97,92,-4,-95,51,43,-331,-263,-165,-29,92,136
97,87,-9,-92,53,39,-312,-248,-156,-24,82,126
92,92,0,-92,46,46,-297,-234,-136,-19,82,117
82,92,9,-87,36,51,-287,-219,-126,-19,82,112
73,97,24,-85,24,61,-287,-204,-117,-19,82,102
63,102,39,-82,12,70,-283,-195,-107,-14,68,82
63,92,29,-78,17,61,-263,-170,-92,-9,63,78
58,92,34,-75,12,63,-248,-156,-82,-9,58,73
58,92,34,-75,12,63,-244,-146,-73,-4,48,63
48,92,43,-70,2,68,-239,-141,-63,0,24,53
43,87,43,-65,0,65,-224,-141,-63,-9,4,48
43,82,39,-63,2,61,-209,-136,-63,-19,4,39
39,82,43,-61,-2,63,-200,-131,-63,-19,-4,24
39,82,43,-61,-2,63,-185,-126,-68,-34,-19,0
29,82,53,-56,-12,68,-175,-112,-68,-43,-39,-14
24,73,48,-48,-12,61,-170,-112,-68,-53,-48,-34
24,68,43,-46,-9,56,-165,-112,-63,-53,-63,-34
19,68,48,-43,-14,58,-156,-112,-63,-58,-73,-43
4,68,63,-36,-29,65,-141,-102,-63,-58,-73,-39
4,68,63,-36,-29,65,-131,-92,-58,-58,-78,-43
0,63,63,-31,-31,63,-122,-87,-53,-58,-82,-53
-9,53,63,-21,-36,58,-107,-82,-48,-68,-87,-63
-9,63,73,-26,-41,68,-97,-73,-39,-73,-87,-53
0,68,68,-34,-34,68,-97,-63,-48,-73,-102,-68
0,53,53,-26,-26,53,-82,-63,-48,-78,-107,-78
-4,48,53,-21,-29,51,-73,-58,-39,-78,-112,-73
-9,48,58,-19,-34,53,-68,-58,-39,-78,-117,-87
-19,39,58,-9,-39,48,-53,-48,-48,-87,-126,-97
-19,39,58,-9,-39,48,-48,-48,-48,-87,-126,-97
-19,39,58,-9,-39,48,-43,-48,-48,-87,-126,-97
-19,39,58,-9,-39,48,-39,-48,-48,-87,-126,-97
-29,39,68,-4,-48,53,-24,-39,-53,-92,-136,-112
-29,39,68,-4,-48,53,-9,-39,-48,-97,-141,-112
-29,34,63,-2,-46,48,-4,-39,-53,-107,-151,-117
-29,29,58,0,-43,43,0,-39,-63,-112,-156,-117
-29,19,48,4,-39,34,14,-43,-73,-117,-156,-117
-29,19,48,4,-39,34,19,-39,-58,-122,-156,-112
-29,14,43,7,-36,29,24,-29,-68,-126,-156,-112
-29,14,43,7,-36,29,34,-29,-73,-136,-165,-112
-29,4,34,12,-31,19,48,-29,-73,-131,-156,-122
-34,9,43,12,-39,26,48,-34,-68,-131,-156,-117
-34,9,43,12,-39,26,48,-34,-68,-122,-146,-112
-34,9,43,12,-39,26,53,-34,-73,-122,-141,-112
-43,9,53,17,-48,31,63,-29,-73,-122,-151,-107
-43,9,53,17,-48,31,68,-24,-73,-126,-151,-107
-43,9,53,17,-48,31,78,-29,-78,-126,-151,-107
-43,9,53,17,-48,31,87,-34,-78,-131,-151,-107
-34,9,43,12,-39,26,97,-34,-78,-126,-151,-102
-34,4,39,14,-36,21,107,-29,-78,-122,-146,-102
-34,0,34,17,-34,17,102,-19,-78,-117,-141,-102
-34,0,34,17,-34,17,102,-14,-78,-107,-141,-102
-34,4,39,14,-36,21,112,-4,-87,-97,-131,-97
-34,4,39,14,-36,21,126,-4,-82,-97,-126,-97
-34,4,39,14,-36,21,141,-14,-78,-107,-122,-97
-39,4,43,17,-41,24,165,-9,-68,-107,-117,-92
-29,4,34,12,-31,19,170,4,-58,-97,-107,-82
-29,4,34,12,-31,19,170,9,-63,-97,-107,-82
-29,0,29,14,-29,14,170,14,-63,-92,-107,-82
-24,0,24,12,-24,12,170,19,-63,-92,-107,-78
-24,4,29,9,-26,17,151,4,-73,-82,-102,-68
-19,9,29,4,-24,19,136,0,-82,-87,-97,-68
-19,14,34,2,-26,24,112,-4,-73,-82,-92,-68
-19,19,39,0,-29,29,87,-9,-73,-78,-87,-63
-24,19,43,2,-34,31,58,-39,-87,-78,-92,-63
-24,19,43,2,-34,31,34,-63,-97,-82,-92,-63
-19,24,43,-2,-31,34,0,-87,-102,-87,-92,-63
-19,24,43,-2,-31,34,-29,-112,-107,-92,-92,-63
-19,14,34,2,-26,24,-43,-122,-107,-102,-92,-63
-14,14,29,0,-21,21,-43,-126,-112,-102,-92,-63
-14,14,29,0,-21,21,-48,-136,-126,-102,-92,-63
-14,14,29,0,-21,21,-53,-156,-131,-97,-92,-63
-4,14,19,-4,-12,17,-63,-170,-141,-107,-97,-63
-4,14,19,-4,-12,17,-73,-170,-141,-97,-97,-58
-4,14,19,-4,-12,17,-82,-170,-136,-97,-97,-58
-4,14,19,-4,-12,17,-87,-170,-136,-107,-102,-68
-14,19,34,-2,-24,26,-87,-175,-146,-107,-102,-58
-14,19,34,-2,-24,26,-92,-170,-141,-107,-97,-58
-14,19,34,-2,-24,26,-92,-165,-141,-102,-97,-58
-14,19,34,-2,-24,26,-92,-161,-141,-102,-97,-58
-9,9,19,0,-14,14,-92,-165,-146,-102,-97,-68
-9,9,19,0,-14,14,-92,-165,-146,-97,-97,-68
-9,9,19,0,-14,14,-97,-161,-141,-97,-97,-68
-4,9,14,-2,-9,12,-97,-151,-136,-92,-97,-63
-14,9,24,2,-19,17,-92,-151,-126,-92,-87,-63
-14,9,24,2,-19,17,-87,-151,-126,-92,-92,-73
-14,9,24,2,-19,17,-87,-141,-122,-92,-92,-73
-14,9,24,2,-19,17,-82,-136,-112,-92,-92,-73
-14,14,29,0,-21,21,-78,-122,-112,-87,-87,-73
-14,14,29,0,-21,21,-78,-122,-112,-87,-87,-68
-14,14,29,0,-21,21,-78,-122,-107,-87,-87,-68
-19,14,34,2,-26,24,-73,-122,-107,-87,-92,-68
-19,24,43,-2,-31,34,-63,-112,-97,-82,-87,-63
-19,29,48,-4,-34,39,-63,-112,-92,-78,-87,-78
-19,29,48,-4,-34,39,-63,-107,-92,-78,-87,-63
-19,29,48,-4,-34,39,-58,-102,-92,-78,-87,-63
-14,24,39,-4,-26,31,-68,-102,-102,-87,-87,-63
-14,24,39,-4,-26,31,-68,-107,-102,-82,-92,-63
-14,24,39,-4,-26,31,-73,-112,-97,-82,-97,-78
-14,29,43,-7,-29,36,-73,-117,-97,-82,-107,-78
-14,19,34,-2,-24,26,-73,-117,-107,-92,-117,-78
-14,14,29,0,-21,21,-73,-117,-107,-92,-92,-78
-9,14,24,-2,-17,19,-68,-117,-107,-92,-92,-78
-9,14,24,-2,-17,19,-68,-117,-102,-92,-97,-78
-9,24,34,-7,-21,29,-53,-112,-92,-82,-107,-82
-19,19,39,0,-29,29,-48,-107,-92,-87,-112,-78
-19,19,39,0,-29,29,-43,-102,-97,-97,-112,-78
-14,24,39,-4,-26,31,-43,-97,-97,-97,-112,-78
-14,24,39,-4,-26,31,-29,-97,-97,-97,-112,-82
-9,24,34,-7,-21,29,-29,-97,-97,-87,-112,-82
-9,24,34,-7,-21,29,-34,-97,-97,-87,-112,-82
-9,24,34,-7,-21,29,-34,-97,-102,-87,-107,-82
-9,14,24,-2,-17,19,-24,-92,-102,-102,-107,-82
-9,24,34,-7,-21,29,-19,-82,-92,-102,-117,-82
-4,14,19,-4,-12,17,-19,-87,-92,-102,-117,-87
-4,14,19,-4,-12,17,-19,-87,-92,-97,-107,-78
-4,24,29,-9,-17,26,-14,-78,-78,-73,-68,-58
4,34,29,-19,-12,31,-14,-78,-48,-24,-9,-14
14,48,34,-31,-9,41,-14,-78,-14,24,43,43
29,68,39,-48,-4,53,-24,-78,19,82,112,112
48,87,39,-68,4,63,-39,-68,58,156,204,200
68,112,43,-90,12,78,-48,-68,112,253,326,317
87,141,53,-114,17,97,-58,-68,165,351,463,434
107,156,48,-131,29,102,-68,-53,214,448,585,541
131,190,58,-161,36,124,-73,-43,273,541,727,653
165,209,43,-187,61,126,-68,-19,351,653,883,805
180,219,39,-200,70,129,-63,4,424,780,1054,971
209,224,14,-217,97,119,-73,19,497,917,1234,1117
248,248,0,-248,124,124,-87,53,595,1068,1444,1293
297,263,-34,-280,165,114,-87,102,702,1239,1659,1468
336,278,-58,-307,197,109,-82,141,800,1385,1844,1615
370,283,-87,-326,229,97,-87,175,883,1517,2039,1756
409,302,-107,-356,258,97,-87,200,961,1668,2244,1917
444,312,-131,-378,287,90,-73,234,1024,1771,2420,2074
463,322,-141,-392,302,90,-58,287,1078,1839,2532,2152
473,326,-146,-400,309,90,-34,351,1156,1888,2566,2142
483,317,-165,-400,324,75,-4,395,1185,1883,2527,2064
488,312,-175,-400,331,68,9,424,1176,1805,2400,1927
492,292,-200,-392,346,46,19,463,1156,1727,2225,1747
473,268,-204,-370,339,31,19,502,1156,1644,2020,1522
453,248,-204,-351,329,21,9,517,1137,1546,1800,1268
409,224,-185,-317,297,19,29,527,1107,1439,1551,976
322,175,-146,-248,234,14,82,575,1098,1342,1273,653
229,131,-97,-180,163,17,156,624,1102,1249,1000,312
141,82,-58,-112,100,12,209,653,1088,1161,751,34
68,53,-14,-61,41,19,234,653,1058,1054,522,-180
-9,43,53,-17,-31,48,268,663,1019,936,297,-361
-82,34,117,24,-100,75,307,678,980,819,68,-517
-161,29,190,65,-175,109,351,702,961,707,-151,-653
-209,19,229,95,-219,124,380,727,961,644,-278,-717
-229,-9,219,119,-224,104,409,761,971,605,-336,-736
-253,-48,204,151,-229,78,468,819,976,551,-390,-756
-302,-78,224,190,-263,73,517,854,941,414,-517,-790
-351,-87,263,219,-307,87,546,854,819,165,-673,-854
-375,-82,292,229,-334,104,566,814,619,-131,-814,-878
-380,-82,297,231,-339,107,566,790,463,-336,-878,-878
-380,-87,292,234,-336,102,551,771,380,-409,-888,-868
-380,-87,292,234,-336,102,546,751,331,-448,-888,-858
-375,-82,292,229,-334,104,541,741,292,-478,-888,-834
-380,-78,302,229,-341,112,541,741,278,-473,-854,-800
-380,-82,297,231,-339,107,546,751,268,-463,-834,-775
-370,-82,287,226,-329,102,556,771,263,-468,-819,-756
-356,-82,273,219,-314,95,566,800,258,-473,-795,-732
-356,-82,273,219,-314,95,585,834,248,-468,-766,-707
-351,-82,268,217,-309,92,610,863,244,-453,-741,-688
-341,-82,258,212,-300,87,653,932,278,-424,-717,-683
-331,-92,239,212,-285,73,683,990,307,-395,-688,-653
-331,-92,239,212,-285,73,722,1010,283,-400,-678,-634
-331,-92,239,212,-285,73,756,1019,253,-429,-692,-634
-331,-107,224,219,-278,58,780,1024,204,-448,-683,-624
-331,-122,209,226,-270,43,810,1024,146,-473,-678,-605
-326,-136,190,231,-258,26,834,1015,78,-492,-678,-600
-326,-141,185,234,-256,21,863,990,14,-507,-688,-600
-341,-151,190,246,-265,19,893,951,-48,-546,-697,-595
-331,-165,165,248,-248,0,922,897,-107,-570,-697,-600
-326,-185,141,256,-234,-21,922,810,-170,-590,-688,-580
-326,-185,141,256,-234,-21,912,702,-229,-590,-673,-566
-326,-190,136,258,-231,-26,912,624,-263,-590,-663,-556
-317,-195,122,256,-219,-36,912,566,-283,-590,-653,-541
-307,-204,102,256,-204,-51,907,492,-307,-580,-634,-517
-312,-204,107,258,-209,-48,907,453,-317,-580,-610,-497
-317,-214,102,265,-209,-56,893,414,-331,-580,-605,-488
-307,-224,82,265,-195,-70,883,370,-351,-575,-590,-488
-292,-224,68,258,-180,-78,849,307,-356,-561,-570,-478
-287,-214,73,251,-180,-70,805,239,-375,-551,-566,-453
-283,-214,68,248,-175,-73,756,190,-375,-546,-556,-444
-263,-214,48,239,-156,-82,732,165,-361,-536,-536,-434
-253,-200,53,226,-153,-73,673,117,-361,-512,-517,-400
-239,-180,58,209,-148,-61,619,58,-361,-483,-488,-366
-224,-170,53,197,-139,-58,566,19,-361,-458,-444,-346
-219,-165,53,192,-136,-56,492,-34,-375,-448,-419,-341
-195,-156,39,175,-117,-58,409,-92,-385,-444,-400,-317
-165,-136,29,151,-97,-53,302,-141,-390,-429,-380,-292
-146,-122,24,134,-85,-48,180,-200,-390,-390,-356,-273
-122,-102,19,112,-70,-41,68,-248,-370,-351,-317,-244
-92,-78,14,85,-53,-31,-14,-248,-326,-297,-268,-195
-63,-48,14,56,-39,-17,-68,-214,-278,-248,-219,-156
-53,-29,24,41,-39,-2,-97,-185,-239,-209,-180,-126
-53,-9,43,31,-48,17,-112,-165,-209,-190,-161,-122
-43,0,43,21,-43,21,-117,-165,-209,-185,-161,-122
-34,14,48,9,-41,31,-122,-170,-209,-190,-165,-122
-34,14,48,9,-41,31,-131,-185,-214,-190,-170,-122
-34,14,48,9,-41,31,-141,-185,-214,-190,-170,-122
-24,19,43,2,-34,31,-151,-185,-204,-185,-161,-122
-34,14,48,9,-41,31,-146,-185,-195,-175,-161,-112
-34,14,48,9,-41,31,-141,-180,-195,-170,-156,-97
-39,14,53,12,-46,34,-136,-180,-190,-170,-156,-97
-39,14,53,12,-46,34,-131,-180,-190,-175,-156,-97
-34,14,48,9,-41,31,-126,-175,-180,-175,-146,-107
-29,14,43,7,-36,29,-131,-170,-180,-170,-146,-107
-24,19,43,2,-34,31,-126,-170,-180,-165,-141,-107
-14,19,34,-2,-24,26,-122,-165,-180,-156,-136,-97
-24,9,34,7,-29,21,-107,-156,-170,-156,-136,-82
-24,14,39,4,-31,26,-112,-151,-170,-156,-136,-82
-24,14,39,4,-31,26,-107,-151,-170,-156,-122,-82
-24,14,39,4,-31,26,-102,-151,-170,-156,-122,-73
-19,14,34,2,-26,24,-87,-151,-170,-156,-122,-82
-19,19,39,0,-29,29,-87,-151,-175,-161,-122,-82
-19,19,39,0,-29,29,-92,-146,-175,-161,-122,-82
-14,19,34,-2,-24,26,-78,-141,-175,-156,-122,-78
-14,9,24,2,-19,17,-78,-126,-170,-156,-112,-73
-14,9,24,2,-19,17,-82,-126,-165,-151,-112,-68
-14,19,34,-2,-24,26,-87,-126,-165,-146,-112,-68
-4,19,24,-7,-14,21,-87,-126,-161,-146,-112,-63
0,29,29,-14,-14,29,-102,-136,-170,-141,-102,-63
4,34,29,-19,-12,31,-122,-136,-161,-141,-97,-58
9,39,29,-24,-9,34,-146,-141,-161,-141,-97,-58
14,43,29,-29,-7,36,-170,-146,-180,-146,-92,-58
14,48,34,-31,-9,41,-195,-161,-195,-146,-92,-48
14,53,39,-34,-12,46,-229,-180,-195,-146,-92,-43
19,58,39,-39,-9,48,-258,-200,-195,-151,-92,-43
19,68,48,-43,-14,58,-283,-234,-200,-161,-92,-43
9,68,58,-39,-24,63,-297,-248,-209,-161,-92,-34
9,68,58,-39,-24,63,-297,-258,-219,-170,-92,-34
19,73,53,-46,-17,63,-322,-263,-229,-170,-92,-34
19,73,53,-46,-17,63,-322,-268,-234,-165,-87,-34
19,73,53,-46,-17,63,-322,-273,-234,-156,-78,-34
14,73,58,-43,-21,65,-326,-287,-239,-156,-78,-29
14,73,58,-43,-21,65,-336,-292,-239,-156,-78,-19
14,73,58,-43,-21,65,-346,-292,-239,-156,-73,-14
19,92,73,-56,-26,82,-351,-297,-239,-151,-58,0
24,97,73,-61,-24,85,-356,-302,-239,-151,-58,4
29,97,68,-63,-19,82,-361,-307,-248,-151,-53,9
29,92,63,-61,-17,78,-361,-312,-253,-151,-53,14
34,97,63,-65,-14,80,-366,-317,-258,-161,-43,19
39,97,58,-68,-9,78,-370,-322,-258,-161,-39,24
39,97,58,-68,-9,78,-375,-326,-268,-161,-39,34
43,97,53,-70,-4,75,-390,-331,-268,-161,-29,34
48,97,48,-73,0,73,-380,-336,-268,-146,-34,39
48,92,43,-70,2,68,-405,-336,-268,-146,-24,43
53,87,34,-70,9,61,-409,-341,-273,-151,-24,48
53,82,29,-68,12,56,-409,-351,-278,-151,-19,53
53,78,24,-65,14,51,-414,-366,-287,-151,-24,53
53,78,24,-65,14,51,-414,-370,-292,-156,-14,58
58,78,19,-68,19,48,-419,-380,-302,-161,-9,63
58,82,24,-70,17,53,-419,-385,-312,-161,-4,68
73,73,0,-73,36,36,-429,-385,-312,-151,9,78
78,73,-4,-75,41,34,-434,-390,-317,-151,14,82
78,78,0,-78,39,39,-439,-395,-317,-161,19,87
78,78,0,-78,39,39,-439,-405,-317,-146,29,97
82,73,-9,-78,46,31,-444,-414,-326,-151,29,102
92,68,-24,-80,58,21,-448,-419,-331,-151,34,107
102,63,-39,-82,70,12,-453,-419,-331,-151,39,117
112,63,-48,-87,80,7,-458,-424,-331,-146,43,122
112,73,-39,-92,75,17,-463,-434,-331,-141,53,131
117,78,-39,-97,78,19,-473,-434,-336,-141,58,136
126,78,-48,-102,87,14,-478,-434,-336,-131,63,141
126,82,-43,-104,85,19,-488,-434,-336,-126,73,151
126,78,-48,-102,87,14,-488,-434,-331,-131,68,146
117,78,-39,-97,78,19,-488,-434,-331,-126,78,151
117,78,-39,-97,78,19,-483,-434,-331,-117,82,156
131,87,-43,-109,87,21,-492,-434,-326,-117,87,161
136,78,-58,-107,97,9,-488,-429,-322,-102,102,175
141,73,-68,-107,104,2,-492,-429,-317,-97,107,175
146,68,-78,-107,112,-4,-497,-429,-307,-78,126,180
151,68,-82,-109,117,-7,-502,-429,-302,-63,141,185
161,73,-87,-117,124,-7,-497,-414,-283,-48,136,190
161,78,-82,-119,122,-2,-502,-414,-278,-43,141,195
161,82,-78,-122,119,2,-502,-414,-263,-39,151,204
161,82,-78,-122,119,2,-502,-414,-263,-39,156,204
151,73,-78,-112,114,-2,-488,-385,-253,-29,156,204
151,78,-73,-114,112,2,-488,-380,-239,-24,161,204
151,82,-68,-117,109,7,-478,-370,-219,-9,165,204
151,82,-68,-117,109,7,-473,-361,-214,-4,165,204
141,92,-48,-117,95,21,-463,-341,-204,9,175,214
141,92,-48,-117,95,21,-453,-331,-180,14,180,214
141,92,-48,-117,95,21,-439,-312,-175,19,180,204
136,87,-48,-112,92,19,-429,-302,-161,24,180,204
131,87,-43,-109,87,21,-414,-292,-151,19,170,200
126,87,-39,-107,82,24,-409,-283,-141,24,170,195
126,92,-34,-109,80,29,-395,-273,-126,29,175,180
122,92,-29,-107,75,31,-390,-258,-122,29,175,175
122,97,-24,-109,73,36,-356,-244,-122,39,161,170
122,107,-14,-114,68,46,-351,-229,-102,43,156,156
122,112,-9,-117,65,51,-331,-214,-92,43,141,151
112,117,4,-114,53,61,-322,-200,-87,48,131,146
97,117,19,-107,39,68,-297,-190,-78,48,131,141
97,112,14,-104,41,63,-283,-170,-73,43,126,126
97,112,14,-104,41,63,-268,-151,-68,43,122,117
97,107,9,-102,43,58,-244,-131,-58,43,112,107
82,117,34,-100,24,75,-209,-102,-29,68,112,97
73,122,48,-97,12,85,-190,-82,-9,78,112,92
63,131,68,-97,-2,100,-180,-63,9,87,112,82
53,141,87,-97,-17,114,-165,-48,29,102,97,63
53,141,87,-97,-17,114,-151,-34,24,82,78,43
48,141,92,-95,-21,117,-131,-19,24,68,68,34
48,141,92,-95,-21,117,-122,-9,24,58,53,19
39,141,102,-90,-31,122,-112,-4,24,48,24,4
43,117,73,-80,-14,95,-73,29,43,48,24,-4
29,107,78,-68,-24,92,-29,48,58,68,19,0
19,97,78,-58,-29,87,-24,63,68,63,9,-9
19,97,78,-58,-29,87,-19,68,68,58,9,-9
19,97,78,-58,-29,87,-14,73,68,53,9,-9
19,97,78,-58,-29,87,-9,78,68,48,9,-9
19,112,92,-65,-36,102,-24,68,73,34,-4,-19
19,117,97,-68,-39,107,-29,68,78,29,-14,-24
19,117,97,-68,-39,107,-43,68,73,19,-29,-34
19,117,97,-68,-39,107,-58,68,63,14,-39,-39
14,117,102,-65,-43,109,-82,43,48,0,-43,-53
9,117,107,-63,-48,112,-97,29,48,-4,-48,-53
4,112,107,-58,-51,109,-112,19,24,-9,-53,-58
0,112,112,-56,-56,112,-122,0,4,-19,-68,-63
-9,97,107,-43,-58,102,-141,-19,-9,-43,-78,-73
-14,97,112,-41,-63,104,-156,-43,-19,-53,-87,-78
-14,92,107,-39,-61,100,-170,-63,-34,-53,-87,-82
-14,87,102,-36,-58,95,-180,-82,-53,-63,-92,-92
-14,87,102,-36,-58,95,-190,-97,-58,-68,-97,-107
-14,87,102,-36,-58,95,-195,-102,-63,-78,-102,-107
-14,87,102,-36,-58,95,-195,-117,-73,-82,-107,-107
-14,87,102,-36,-58,95,-195,-131,-78,-92,-112,-107
-24,78,102,-26,-63,90,-185,-136,-87,-117,-122,-117
-24,73,97,-24,-61,85,-185,-136,-97,-122,-126,-122
-24,68,92,-21,-58,80,-200,-131,-107,-126,-131,-126
-24,68,92,-21,-58,80,-209,-131,-117,-126,-141,-131
-34,63,97,-14,-65,80,-209,-136,-141,-136,-146,-126
-34,63,97,-14,-65,80,-204,-141,-141,-136,-146,-126
-34,63,97,-14,-65,80,-200,-156,-141,-146,-146,-126
-39,63,102,-12,-70,82,-185,-156,-136,-146,-146,-122
-29,63,92,-17,-61,78,-180,-165,-141,-151,-146,-122
-29,63,92,-17,-61,78,-180,-165,-151,-156,-146,-122
-29,58,87,-14,-58,73,-180,-165,-156,-156,-146,-122
-24,58,82,-17,-53,70,-180,-165,-161,-161,-146,-117
-29,43,73,-7,-51,58,-175,-156,-161,-156,-156,-122
-29,39,68,-4,-48,53,-165,-156,-170,-165,-156,-126
-34,34,68,0,-51,51,-165,-156,-161,-165,-156,-131
-39,29,68,4,-53,48,-165,-156,-161,-165,-156,-131
-43,19,63,12,-53,41,-161,-151,-151,-151,-141,-131
-43,9,53,17,-48,31,-161,-151,-156,-151,-141,-131
-39,4,43,17,-41,24,-170,-151,-156,-151,-141,-131
-39,-4,34,21,-36,14,-175,-151,-156,-151,-141,-131
-34,-4,29,19,-31,12,-175,-151,-151,-151,-141,-122
-24,-4,19,14,-21,7,-170,-146,-151,-151,-141,-122
-19,-4,14,12,-17,4,-170,-146,-161,-151,-141,-122
-14,-4,9,9,-12,2,-170,-156,-161,-146,-141,-122
-14,4,19,4,-17,12,-170,-156,-151,-136,-136,-122
-14,4,19,4,-17,12,-170,-151,-151,-126,-136,-117
-14,4,19,4,-17,12,-170,-146,-146,-126,-136,-117
-14,4,19,4,-17,12,-165,-141,-146,-136,-141,-126
-4,-9,-4,7,0,-7,-161,-131,-136,-126,-131,-117
-4,-9,-4,7,0,-7,-161,-122,-131,-126,-126,-117
-4,-9,-4,7,0,-7,-156,-112,-131,-122,-126,-117
-4,-9,-4,7,0,-7,-151,-102,-131,-122,-126,-117
-19,-9,9,14,-14,0,-131,-107,-122,-112,-122,-112
-19,-9,9,14,-14,0,-131,-107,-117,-107,-117,-107
-19,-9,9,14,-14,0,-136,-102,-107,-107,-112,-102
-14,-9,4,12,-9,-2,-136,-92,-97,-102,-107,-92
-14,-19,-4,17,-4,-12,-141,-82,-107,-102,-117,-97
-14,-19,-4,17,-4,-12,-136,-82,-107,-102,-122,-112
-14,-19,-4,17,-4,-12,-136,-73,-102,-102,-122,-117
-14,-19,-4,17,-4,-12,-131,-68,-92,-102,-122,-122
-14,-24,-9,19,-2,-17,-136,-73,-102,-107,-107,-122
-14,-24,-9,19,-2,-17,-136,-73,-102,-107,-107,-117
-14,-24,-9,19,-2,-17,-136,-73,-97,-107,-107,-117
-19,-24,-4,21,-7,-14,-131,-73,-97,-107,-112,-117
-19,-19,0,19,-9,-9,-131,-73,-107,-117,-126,-122
-19,-9,9,14,-14,0,-131,-73,-102,-117,-126,-136
-19,-4,14,12,-17,4,-131,-68,-102,-122,-126,-122
-19,0,19,9,-19,9,-126,-63,-102,-126,-126,-122
-34,-9,24,21,-29,7,-117,-48,-97,-117,-136,-131
-34,-14,19,24,-26,2,-107,-48,-92,-112,-141,-131
-34,-19,14,26,-24,-2,-102,-48,-82,-112,-146,-146
-34,-19,14,26,-24,-2,-92,-48,-78,-112,-156,-146
-34,-19,14,26,-24,-2,-102,-48,-82,-122,-156,-136
-34,-24,9,29,-21,-7,-102,-48,-87,-122,-131,-136
-29,-24,4,26,-17,-9,-97,-48,-92,-122,-131,-136
-29,-24,4,26,-17,-9,-97,-48,-92,-122,-136,-136
-29,-9,19,19,-24,4,-102,-53,-92,-122,-146,-136
-39,-9,29,24,-34,9,-97,-58,-92,-126,-151,-136
-39,-4,34,21,-36,14,-92,-63,-97,-136,-151,-141
-34,4,39,14,-36,21,-92,-68,-97,-136,-151,-146
-43,14,58,14,-51,36,-78,-58,-87,-131,-146,-136
-39,14,53,12,-46,34,-78,-58,-87,-117,-141,-131
-39,14,53,12,-46,34,-82,-58,-87,-112,-136,-126
-39,14,53,12,-46,34,-82,-58,-92,-107,-126,-122
-29,14,43,7,-36,29,-82,-53,-92,-122,-126,-122
-19,14,34,2,-26,24,-78,-53,-92,-122,-126,-131
-14,14,29,0,-21,21,-68,-48,-82,-102,-107,-117
-14,34,48,-9,-31,41,-78,-48,-63,-68,-78,-87
-4,34,39,-14,-21,36,-92,-48,-39,-24,-29,-58
14,43,29,-29,-7,36,-102,-48,-9,24,19,-14
43,68,24,-56,9,46,-102,-48,24,82,92,53
58,78,19,-68,19,48,-112,-39,68,141,170,131
78,97,19,-87,29,58,-117,-29,107,204,263,219
97,122,24,-109,36,73,-117,-19,161,283,375,326
117,161,43,-139,36,102,-126,-9,224,400,522,444
136,185,48,-161,43,117,-126,4,283,497,644,561
170,200,29,-185,70,114,-131,14,341,590,775,673
224,209,-14,-217,119,97,-136,29,419,722,941,814
268,229,-39,-248,153,95,-151,63,512,868,1122,961
317,244,-73,-280,195,85,-161,87,605,995,1302,1107
346,258,-87,-302,217,85,-156,122,692,1117,1483,1254
375,263,-112,-319,244,75,-146,161,780,1249,1649,1371
414,268,-146,-341,280,61,-131,219,878,1405,1834,1488
448,273,-175,-361,312,48,-136,263,1000,1576,2039,1620
478,273,-204,-375,341,34,-136,297,1058,1688,2215,1732
512,263,-248,-387,380,7,-131,331,1083,1722,2313,1790
541,273,-268,-407,405,2,-117,385,1137,1761,2357,1810
561,278,-283,-419,422,-2,-82,448,1195,1781,2332,1751
561,268,-292,-414,427,-12,-63,463,1166,1698,2215,1634
556,244,-312,-400,434,-34,-48,483,1117,1571,2010,1459
531,224,-307,-378,419,-41,-29,522,1107,1483,1786,1239
492,219,-273,-356,383,-26,0,561,1107,1410,1590,1034
444,209,-234,-326,339,-12,29,585,1078,1322,1381,819
370,185,-185,-278,278,0,68,624,1058,1224,1132,556
283,146,-136,-214,209,4,102,673,1078,1156,883,263
209,112,-97,-161,153,7,126,692,1073,1083,658,19
141,102,-39,-122,90,31,131,692,1039,995,458,-141
48,82,34,-65,7,58,165,683,1000,907,268,-287
-39,63,102,-12,-70,82,200,683,961,800,63,-429
-131,53,185,39,-158,119,248,688,922,673,-146,-556
-190,58,248,65,-219,153,292,712,922,610,-268,-624
-239,39,278,100,-258,158,331,756,961,614,-287,-639
-268,0,268,134,-268,134,370,790,971,585,-317,-668
-283,-29,253,156,-268,112,439,839,927,463,-429,-727
-331,-58,273,195,-302,107,507,873,844,239,-575,-771
-380,-68,312,224,-346,122,556,873,673,-39,-732,-814
-385,-63,322,224,-353,129,556,844,502,-278,-824,-829
-380,-82,297,231,-339,107,546,829,405,-375,-819,-819
-380,-97,283,239,-331,92,541,810,361,-380,-800,-800
-390,-107,283,248,-336,87,536,790,302,-419,-819,-800
-385,-102,283,244,-334,90,522,771,244,-478,-849,-805
-361,-107,253,234,-307,73,522,771,219,-483,-824,-780
-351,-102,248,226,-300,73,536,780,209,-463,-775,-746
-351,-102,248,226,-300,73,536,810,204,-458,-751,-717
-336,-102,234,219,-285,65,536,839,209,-444,-736,-692
-326,-102,224,214,-275,61,556,873,200,-439,-707,-668
-331,-102,229,217,-280,63,590,912,214,-424,-683,-649
-331,-112,219,222,-275,53,624,971,268,-385,-658,-624
-331,-112,219,222,-275,53,653,1019,268,-366,-639,-605
-322,-92,229,207,-275,68,692,1010,224,-390,-639,-605
-331,-112,219,222,-275,53,727,1000,185,-419,-644,-605
-341,-136,204,239,-273,34,771,985,136,-429,-634,-595
-331,-141,190,236,-261,24,810,956,87,-444,-639,-575
-326,-146,180,236,-253,17,824,946,9,-483,-649,-590
-336,-161,175,248,-256,7,854,893,-53,-536,-668,-590
-351,-180,170,265,-261,-4,883,814,-126,-575,-678,-595
-351,-195,156,273,-253,-19,902,732,-185,-570,-668,-590
-356,-214,141,285,-248,-36,902,624,-239,-570,-649,-570
-346,-224,122,285,-234,-51,893,488,-287,-580,-644,-556
-346,-229,117,287,-231,-56,893,390,-322,-580,-634,-536
-356,-224,131,290,-244,-46,902,331,-331,-561,-614,-522
-356,-224,131,290,-244,-46,897,287,-336,-541,-585,-497
-361,-224,136,292,-248,-43,888,229,-356,-551,-570,-488
-366,-214,151,290,-258,-31,873,180,-380,-551,-566,-488
-356,-214,141,285,-248,-36,805,107,-400,-556,-561,-478
-331,-214,117,273,-224,-48,702,43,-414,-551,-551,-458
-317,-195,122,256,-219,-36,639,-4,-424,-551,-536,-453
-312,-195,117,253,-214,-39,619,-34,-424,-527,-527,-424
-312,-195,117,253,-214,-39,585,-39,-409,-507,-488,-395
-302,-200,102,251,-202,-48,546,-48,-409,-492,-478,-380
-278,-200,78,239,-178,-61,483,-87,-419,-492,-478,-385
-253,-180,73,217,-163,-53,429,-126,-419,-468,-444,-366
-229,-165,63,197,-146,-51,356,-170,-405,-429,-409,-331
-224,-165,58,195,-141,-53,253,-209,-405,-424,-390,-317
-195,-156,39,175,-117,-58,126,-248,-400,-400,-370,-302
-156,-122,34,139,-95,-43,14,-287,-390,-370,-346,-273
-122,-82,39,102,-80,-21,-87,-307,-380,-341,-307,-234
-112,-48,63,80,-87,7,-200,-297,-336,-297,-258,-185
-92,-19,73,56,-82,26,-263,-263,-287,-258,-219,-156
-73,-9,63,41,-68,26,-292,-214,-248,-229,-200,-136
-53,-9,43,31,-48,17,-297,-175,-219,-209,-190,-141
-43,-19,24,31,-34,2,-331,-175,-200,-185,-180,-151
-34,-14,19,24,-26,2,-326,-170,-190,-175,-170,-151
-34,-14,19,24,-26,2,-336,-185,-195,-170,-170,-151
-34,-14,19,24,-26,2,-346,-185,-195,-165,-165,-151
-24,-9,14,17,-19,2,-356,-185,-185,-156,-151,-151
-19,-4,14,12,-17,4,-356,-195,-195,-156,-131,-136
-14,-4,9,9,-12,2,-356,-190,-195,-151,-126,-117
-14,-4,9,9,-12,2,-356,-190,-190,-151,-126,-112
-9,-4,4,7,-7,0,-356,-190,-190,-156,-126,-107
-9,-4,4,7,-7,0,-341,-190,-200,-170,-131,-97
-9,-4,4,7,-7,0,-346,-190,-200,-170,-136,-97
-9,0,9,4,-9,4,-341,-195,-200,-170,-136,-97
-4,0,4,2,-4,2,-336,-195,-200,-165,-136,-87
-4,4,9,0,-7,7,-326,-204,-200,-165,-146,-87
-4,14,19,-4,-12,17,-336,-200,-200,-165,-146,-92
-4,19,24,-7,-14,21,-336,-200,-200,-165,-131,-97
-4,24,29,-9,-17,26,-336,-200,-200,-165,-131,-92
-9,24,34,-7,-21,29,-312,-195,-195,-161,-126,-82
-9,29,39,-9,-24,34,-302,-190,-195,-161,-122,-82
-9,29,39,-9,-24,34,-297,-180,-190,-156,-117,-82
-4,29,34,-12,-19,31,-273,-170,-185,-146,-112,-78
-4,9,14,-2,-9,12,-248,-151,-180,-146,-112,-68
-4,0,4,2,-4,2,-239,-146,-175,-141,-112,-68
-4,0,4,2,-4,2,-229,-141,-175,-136,-112,-73
4,-9,-14,2,9,-12,-214,-136,-170,-136,-112,-73
-4,-9,-4,7,0,-7,-204,-126,-170,-131,-102,-82
-4,-4,0,4,-2,-2,-200,-126,-161,-131,-97,-78
-4,0,4,2,-4,2,-200,-131,-161,-131,-97,-78
-4,4,9,0,-7,7,-200,-136,-180,-136,-92,-78
4,19,14,-12,-4,17,-209,-146,-175,-131,-87,-63
4,34,29,-19,-12,31,-219,-151,-175,-126,-82,-53
9,48,39,-29,-14,43,-224,-156,-175,-126,-78,-48
9,68,58,-39,-24,63,-224,-175,-180,-131,-73,-43
9,68,58,-39,-24,63,-248,-165,-165,-112,-73,-34
9,39,29,-24,-9,34,-287,-190,-200,-141,-92,-43
19,19,0,-19,9,9,-331,-214,-234,-175,-107,-58
29,29,0,-29,14,14,-346,-234,-234,-170,-97,-43
29,29,0,-29,14,14,-361,-244,-234,-165,-87,-39
29,29,0,-29,14,14,-375,-253,-234,-161,-78,-34
29,29,0,-29,14,14,-390,-263,-234,-156,-68,-29
39,39,0,-39,19,19,-414,-278,-239,-146,-63,-19
39,48,9,-43,14,29,-419,-283,-234,-146,-63,-14
39,53,14,-46,12,34,-434,-287,-239,-151,-68,-14
39,58,19,-48,9,39,-448,-292,-248,-151,-68,-9
48,58,9,-53,19,34,-463,-302,-263,-141,-53,-4
48,58,9,-53,19,34,-468,-302,-253,-141,-48,4
48,53,4,-51,21,29,-473,-297,-268,-141,-43,9
48,53,4,-51,21,29,-473,-302,-278,-146,-48,14
53,48,-4,-51,29,21,-483,-312,-287,-161,-53,14
53,48,-4,-51,29,21,-497,-326,-292,-170,-58,19
58,43,-14,-51,36,14,-512,-336,-302,-170,-53,24
63,39,-24,-51,43,7,-522,-346,-317,-180,-53,24
78,24,-53,-51,65,-14,-527,-356,-317,-175,-39,24
82,19,-63,-51,73,-21,-536,-356,-317,-175,-34,29
87,14,-73,-51,80,-29,-541,-366,-322,-170,-29,34
92,9,-82,-51,87,-36,-546,-375,-322,-170,-24,39
102,24,-78,-63,90,-26,-556,-380,-312,-170,-14,48
102,24,-78,-63,90,-26,-556,-380,-312,-161,0,63
102,24,-78,-63,90,-26,-570,-375,-312,-151,14,78
102,29,-73,-65,87,-21,-580,-375,-312,-136,24,92
112,39,-73,-75,92,-17,-590,-390,-326,-136,29,97
122,43,-78,-82,100,-17,-595,-395,-326,-136,39,107
131,48,-82,-90,107,-17,-600,-409,-326,-146,48,117
136,53,-82,-95,109,-14,-595,-409,-322,-146,58,131
136,43,-92,-90,114,-24,-595,-419,-322,-136,73,146
136,43,-92,-90,114,-24,-600,-419,-326,-126,78,151
136,39,-97,-87,117,-29,-605,-419,-326,-112,82,156
141,39,-102,-90,122,-31,-610,-419,-326,-102,87,165
136,43,-92,-90,114,-24,-619,-429,-326,-102,97,175
136,48,-87,-92,112,-19,-614,-429,-336,-107,97,175
131,53,-78,-92,104,-12,-619,-429,-326,-102,97,175
126,58,-68,-92,97,-4,-624,-429,-326,-97,97,180
136,58,-78,-97,107,-9,-624,-434,-317,-92,112,190
141,58,-82,-100,112,-12,-629,-434,-322,-92,112,190
151,63,-87,-107,119,-12,-644,-434,-322,-92,112,190
156,63,-92,-109,124,-14,-653,-434,-322,-92,112,190
165,73,-92,-119,129,-9,-653,-414,-302,-73,131,204
170,73,-97,-122,134,-12,-649,-409,-297,-63,141,209
170,73,-97,-122,134,-12,-649,-409,-302,-53,151,214
170,73,-97,-122,134,-12,-649,-419,-297,-39,161,219
161,82,-78,-122,119,2,-634,-400,-273,-19,180,229
161,82,-78,-122,119,2,-629,-385,-258,0,185,234
161,82,-78,-122,119,2,-624,-370,-239,9,190,234
161,82,-78,-122,119,2,-614,-356,-224,9,190,224
151,78,-73,-114,112,2,-605,-336,-219,9,185,209
151,78,-73,-114,112,2,-600,-326,-209,9,185,204
151,78,-73,-114,112,2,-590,-317,-204,14,180,200
151,78,-73,-114,112,2,-580,-307,-200,14,175,195
141,87,-53,-114,97,17,-556,-283,-185,24,175,204
136,87,-48,-112,92,19,-551,-273,-175,29,175,204
131,87,-43,-109,87,21,-551,-258,-161,29,175,204
131,87,-43,-109,87,21,-546,-239,-146,34,175,209
126,87,-39,-107,82,24,-527,-219,-131,43,170,195
122,87,-34,-104,78,26,-507,-209,-117,53,161,170
117,87,-29,-102,73,29,-492,-190,-97,63,156,156
112,87,-24,-100,68,31,-473,-175,-73,73,151,141
102,78,-24,-90,63,26,-439,-146,-63,92,156,141
102,73,-29,-87,65,21,-419,-131,-53,97,156,146
102,68,-34,-85,68,17,-400,-117,-39,102,156,146
97,63,-34,-80,65,14,-375,-102,-29,107,151,146
87,73,-14,-80,51,29,-346,-82,-24,97,131,122
87,78,-9,-82,48,34,-326,-73,-14,87,117,97
87,78,-9,-82,48,34,-307,-58,-9,73,102,102
87,78,-9,-82,48,34,-283,-43,-4,58,87,92
78,92,14,-85,31,53,-273,-19,4,63,78,87
73,92,19,-82,26,56,-263,-9,14,73,73,82
68,92,24,-80,21,58,-258,0,29,78,68,63
63,97,34,-80,14,65,-248,9,39,82,58,58
53,97,43,-75,4,70,-258,9,34,73,43,39
53,92,39,-73,7,65,-258,9,29,63,53,29
58,92,34,-75,12,63,-253,9,24,53,39,19
58,92,34,-75,12,63,-253,9,24,43,19,9
39,87,48,-63,-4,68,-263,-4,19,29,0,4
19,78,58,-48,-19,68,-263,-9,14,19,-14,0
9,73,63,-41,-26,68,-263,-14,4,4,-24,-9
4,73,68,-39,-31,70,-268,-19,0,0,-34,-19
-4,63,68,-29,-36,65,-278,-34,-14,-9,-53,-43
0,53,53,-26,-26,53,-292,-39,-19,-9,-63,-53
0,43,43,-21,-21,43,-312,-43,-24,-19,-73,-63
0,34,34,-17,-17,34,-326,-48,-34,-29,-78,-73
0,43,43,-21,-21,43,-336,-63,-43,-43,-68,-53
9,43,34,-26,-12,39,-341,-73,-43,-34,-68,-63
4,43,39,-24,-17,41,-341,-87,-53,-53,-87,-78
4,53,48,-29,-21,51,-331,-78,-53,-48,-97,-68
14,73,58,-43,-21,65,-326,-68,-39,-34,-78,-39
4,73,68,-39,-31,70,-326,-78,0,24,-19,-4
24,87,63,-56,-19,75,-336,-78,43,102,73,63
58,97,39,-78,9,68,-356,-87,39,131,131,122
78,97,19,-87,29,58,-370,-97,19,107,165,180
107,92,-14,-100,61,39,-380,-87,24,136,229,239
136,92,-43,-114,90,24,-380,-68,97,244,336,326
146,97,-48,-122,97,24,-380,-73,156,361,478,444
170,102,-68,-136,119,17,-385,-73,195,444,619,575
224,102,-122,-163,173,-9,-409,-58,253,536,775,717
278,102,-175,-190,226,-36,-434,-34,346,683,985,883
326,117,-209,-222,268,-46,-453,-9,439,849,1215,1058
356,141,-214,-248,285,-36,-448,24,536,1010,1424,1224
405,146,-258,-275,331,-56,-448,63,634,1151,1600,1332
453,161,-292,-307,373,-65,-473,102,722,1288,1795,1459
507,175,-331,-341,419,-78,-478,136,795,1390,1961,1600
556,175,-380,-366,468,-102,-478,170,844,1454,2078,1712
580,146,-434,-363,507,-143,-473,204,868,1478,2137,1761
580,107,-473,-344,527,-183,-439,248,873,1439,2074,1683
570,82,-488,-326,529,-202,-405,292,902,1400,1952,1527
580,82,-497,-331,539,-207,-385,346,951,1395,1825,1361
575,87,-488,-331,531,-200,-351,375,971,1366,1668,1146
541,68,-473,-305,507,-202,-312,414,951,1259,1464,927
512,43,-468,-278,490,-212,-273,453,971,1224,1298,702
483,14,-468,-248,475,-226,-224,507,1039,1254,1156,468
448,-19,-468,-214,458,-244,-165,566,1058,1195,946,195
380,-78,-458,-151,419,-268,-102,605,1039,1078,697,-58
297,-122,-419,-87,358,-270,-58,644,1015,995,483,-253
239,-141,-380,-48,309,-261,-4,663,990,897,263,-414
175,-170,-346,-2,261,-258,58,673,941,751,43,-551
97,-200,-297,51,197,-248,122,712,922,663,-141,-673
24,-229,-253,102,139,-241,180,736,932,634,-253,-751
-43,-244,-200,143,78,-222,244,761,932,580,-346,-800
-122,-234,-112,178,-4,-173,312,785,873,409,-473,-824
-170,-234,-63,202,-53,-148,380,819,766,156,-639,-854
-214,-234,-19,224,-97,-126,439,839,634,-82,-771,-893
-253,-224,29,239,-141,-97,507,873,541,-248,-858,-927
-292,-195,97,244,-195,-48,536,893,478,-361,-927,-941
-336,-180,156,258,-246,-12,566,912,453,-405,-941,-936
-351,-180,170,265,-261,-4,575,936,473,-385,-888,-897
-341,-165,175,253,-258,4,580,927,448,-370,-839,-839
-341,-146,195,244,-268,24,585,888,390,-400,-829,-800
-336,-131,204,234,-270,36,580,878,331,-429,-819,-785
-341,-126,214,234,-278,43,580,868,317,-434,-814,-761
-331,-122,209,226,-270,43,605,907,346,-405,-795,-736
-302,-131,170,217,-236,19,624,956,390,-361,-732,-707
-297,-161,136,229,-217,-12,644,976,405,-326,-678,-653
-326,-170,156,248,-241,-7,653,980,366,-341,-658,-629
-322,-161,161,241,-241,0,678,1010,302,-395,-692,-639
-322,-151,170,236,-246,9,732,1078,258,-444,-717,-653
-302,-161,141,231,-222,-9,790,1117,229,-453,-717,-653
-302,-170,131,236,-217,-19,839,1107,165,-468,-717,-644
-312,-180,131,246,-222,-24,883,1088,97,-488,-712,-634
-312,-185,126,248,-219,-29,936,1102,68,-497,-692,-634
-292,-180,112,236,-202,-34,976,1093,48,-473,-668,-614
-287,-185,102,236,-195,-41,980,1024,-9,-473,-639,-580
-297,-209,87,253,-192,-61,1010,961,-82,-517,-658,-580
-322,-248,73,285,-197,-87,1058,893,-136,-527,-678,-595
-331,-273,58,302,-195,-107,1058,800,-165,-531,-649,-570
-336,-283,53,309,-195,-114,1058,722,-209,-531,-619,-541
-326,-273,53,300,-190,-109,1058,663,-248,-531,-605,-536
-307,-239,68,273,-187,-85,1039,585,-263,-541,-614,-536
-297,-204,92,251,-195,-56,990,517,-263,-522,-595,-522
-297,-185,112,241,-204,-36,917,453,-258,-473,-546,-458
-283,-185,97,234,-190,-43,868,395,-268,-463,-522,-419
-268,-185,82,226,-175,-51,824,356,-273,-453,-497,-400
-258,-175,82,217,-170,-46,775,292,-253,-400,-453,-370
-253,-165,87,209,-170,-39,712,200,-268,-385,-424,-351
-239,-165,73,202,-156,-46,590,92,-346,-434,-448,-346
-204,-165,39,185,-122,-63,444,-4,-385,-439,-448,-346
-175,-146,29,161,-102,-58,312,-78,-370,-400,-409,-336
-175,-131,43,153,-109,-43,214,-126,-370,-375,-370,-302
-161,-131,29,146,-95,-51,122,-156,-361,-346,-331,-258
-126,-122,4,124,-65,-58,29,-185,-341,-312,-297,-229
-102,-97,4,100,-53,-46,-24,-190,-317,-292,-273,-195
-97,-58,39,78,-68,-9,-58,-209,-297,-268,-253,-180
-78,-29,48,53,-63,9,-117,-229,-273,-234,-234,-165
-58,-4,53,31,-56,24,-161,-239,-234,-185,-180,-136
-43,14,58,14,-51,36,-185,-219,-204,-136,-131,-107
-43,9,53,17,-48,31,-190,-209,-209,-141,-131,-97
-34,19,53,7,-43,36,-204,-214,-219,-161,-141,-107
-34,19,53,7,-43,36,-214,-214,-209,-170,-161,-117
-34,29,63,2,-48,46,-219,-214,-209,-180,-170,-112
-24,29,53,-2,-39,41,-234,-224,-209,-175,-151,-102
-14,39,53,-12,-34,46,-248,-239,-209,-161,-146,-97
-14,43,58,-14,-36,51,-258,-253,-214,-151,-141,-92
-14,48,63,-17,-39,56,-268,-253,-214,-141,-131,-87
-4,58,63,-26,-34,61,-278,-253,-204,-126,-112,-82
-14,53,68,-19,-41,61,-273,-244,-214,-131,-117,-78
-14,53,68,-19,-41,61,-268,-239,-214,-131,-117,-68
-19,53,73,-17,-46,63,-263,-239,-209,-136,-122,-73
-19,53,73,-17,-46,63,-258,-239,-209,-146,-126,-78
-24,43,68,-9,-46,56,-258,-239,-200,-136,-126,-78
-19,43,63,-12,-41,53,-268,-239,-200,-131,-126,-78
-14,48,63,-17,-39,56,-268,-244,-200,-126,-122,-78
-4,48,53,-21,-29,51,-268,-244,-200,-117,-117,-68
-4,48,53,-21,-29,51,-258,-253,-200,-117,-107,-63
-4,53,58,-24,-31,56,-268,-248,-200,-117,-107,-63
-4,53,58,-24,-31,56,-268,-248,-200,-117,-92,-63
-4,53,58,-24,-31,56,-268,-248,-200,-117,-92,-53
0,43,43,-21,-21,43,-263,-248,-190,-112,-87,-39
0,39,39,-19,-19,39,-263,-248,-195,-112,-82,-34
0,29,29,-14,-14,29,-268,-244,-195,-107,-78,-29
4,19,14,-12,-4,17,-253,-239,-195,-97,-73,-19
4,19,14,-12,-4,17,-244,-244,-195,-97,-68,-9
4,19,14,-12,-4,17,-248,-244,-195,-92,-63,-9
4,29,24,-17,-9,26,-253,-244,-200,-87,-58,-14
14,29,14,-21,0,21,-253,-244,-200,-87,-53,-14
14,34,19,-24,-2,26,-244,-244,-190,-73,-43,-9
14,43,29,-29,-7,36,-248,-244,-180,-73,-39,0
14,53,39,-34,-12,46,-258,-248,-180,-73,-39,4
14,63,48,-39,-17,56,-268,-253,-200,-78,-34,9
4,53,48,-29,-21,51,-258,-244,-204,-87,-39,9
4,53,48,-29,-21,51,-268,-248,-204,-87,-43,14
9,53,43,-31,-17,48,-273,-253,-204,-92,-48,14
9,58,48,-34,-19,53,-273,-273,-209,-102,-53,14
0,48,48,-24,-24,48,-273,-268,-209,-87,-48,19
0,48,48,-24,-24,48,-268,-268,-209,-92,-43,24
9,53,43,-31,-17,48,-287,-263,-209,-87,-39,29
9,53,43,-31,-17,48,-283,-258,-204,-78,-29,34
9,43,34,-26,-12,39,-258,-253,-204,-68,-14,43
4,43,39,-24,-17,41,-258,-268,-209,-68,-9,48
4,43,39,-24,-17,41,-263,-273,-209,-68,-4,58
4,43,39,-24,-17,41,-268,-273,-209,-68,4,63
0,63,63,-31,-31,63,-273,-278,-204,-53,19,82
4,68,63,-36,-29,65,-278,-283,-200,-43,29,92
9,68,58,-39,-24,63,-283,-287,-204,-34,43,102
9,63,53,-36,-21,58,-283,-292,-204,-24,53,112
19,73,53,-46,-17,63,-278,-297,-200,-14,58,122
29,78,48,-53,-9,63,-283,-302,-200,-14,68,131
34,82,48,-58,-7,65,-287,-307,-209,-14,73,146
43,87,43,-65,0,65,-302,-312,-209,-14,87,151
48,82,34,-65,7,58,-287,-326,-219,-9,82,165
48,82,34,-65,7,58,-307,-326,-219,-9,92,170
53,82,29,-68,12,56,-307,-331,-224,-14,92,175
53,82,29,-68,12,56,-302,-341,-229,-14,97,180
53,87,34,-70,9,61,-302,-336,-229,0,112,180
53,87,34,-70,9,61,-297,-341,-224,0,122,185
58,87,29,-73,14,58,-297,-351,-224,0,126,190
58,92,34,-75,12,63,-292,-356,-224,4,131,195
53,102,48,-78,2,75,-283,-351,-219,19,146,214
58,102,43,-80,7,73,-278,-351,-219,24,151,219
58,107,48,-82,4,78,-273,-351,-214,19,156,224
58,107,48,-82,4,78,-263,-356,-209,39,165,234
68,117,48,-92,9,82,-263,-351,-200,53,190,248
73,117,43,-95,14,80,-263,-351,-195,63,200,253
78,117,39,-97,19,78,-263,-346,-185,73,209,263
82,122,39,-102,21,80,-263,-346,-175,87,219,268
82,131,48,-107,17,90,-253,-336,-170,92,219,268
87,136,48,-112,19,92,-258,-336,-170,92,224,273
97,136,39,-117,29,87,-258,-336,-165,102,229,278
97,141,43,-119,26,92,-263,-336,-161,107,239,287
97,156,58,-126,19,107,-258,-326,-136,131,258,292
87,156,68,-122,9,112,-253,-317,-126,146,273,297
87,156,68,-122,9,112,-244,-307,-117,165,283,302
102,165,63,-134,19,114,-248,-297,-102,175,292,307
107,175,68,-141,19,122,-273,-297,-107,165,283,307
112,180,68,-146,21,124,-287,-292,-102,156,273,302
117,185,68,-151,24,126,-302,-287,-92,161,278,302
122,195,73,-158,24,134,-317,-283,-87,161,278,302
122,195,73,-158,24,134,-346,-292,-87,165,268,302
122,195,73,-158,24,134,-366,-307,-92,161,268,302
122,195,73,-158,24,134,-380,-322,-87,156,273,307
122,190,68,-156,26,129,-395,-336,-97,146,273,302
117,175,58,-146,29,117,-395,-331,-97,131,253,287
112,175,63,-143,24,119,-400,-341,-92,131,248,273
107,175,68,-141,19,122,-395,-346,-82,141,244,258
102,170,68,-136,17,119,-395,-351,-87,141,234,244
102,170,68,-136,17,119,-409,-356,-107,131,209,224
102,170,68,-136,17,119,-414,-351,-92,122,200,214
102,170,68,-136,17,119,-414,-336,-97,112,185,195
97,165,68,-131,14,117,-419,-331,-92,102,170,185
92,151,58,-122,17,104,-414,-322,-87,102,156,180
87,146,58,-117,14,102,-409,-312,-82,102,151,175
87,146,58,-117,14,102,-395,-302,-73,102,151,161
82,141,58,-112,12,100,-390,-287,-73,97,146,156
63,126,63,-95,0,95,-375,-273,-78,92,136,146
63,126,63,-95,0,95,-380,-258,-63,92,126,126
63,122,58,-92,2,90,-370,-244,-58,87,107,117
53,117,63,-85,-4,90,-370,-229,-58,87,92,107
39,112,73,-75,-17,92,-370,-234,-68,63,63,97
39,102,63,-70,-12,82,-361,-219,-73,43,48,78
39,97,58,-68,-9,78,-351,-204,-78,29,34,63
39,87,48,-63,-4,68,-331,-190,-78,14,14,48
39,78,39,-58,0,58,-326,-190,-82,0,4,29
34,73,39,-53,-2,56,-317,-180,-78,-9,-4,14
29,73,43,-51,-7,58,-317,-170,-73,-19,-14,-4
24,73,48,-48,-12,61,-312,-165,-68,-24,-39,-34
14,58,43,-36,-14,51,-292,-156,-63,-14,-48,-34
9,53,43,-31,-17,48,-278,-146,-63,-19,-48,-34
9,48,39,-29,-14,43,-273,-141,-63,-19,-53,-39
0,43,43,-21,-21,43,-268,-141,-63,-19,-73,-43
4,48,43,-26,-19,46,-268,-136,-53,-14,-68,-29
4,43,39,-24,-17,41,-258,-126,-53,-19,-63,-29
0,43,43,-21,-21,43,-253,-117,-53,-14,-68,-34
0,43,43,-21,-21,43,-244,-107,-58,-24,-78,-48
0,53,53,-26,-26,53,-244,-92,-63,-39,-87,-58
-4,43,48,-19,-26,46,-239,-92,-68,-53,-97,-73
-4,39,43,-17,-24,41,-234,-92,-68,-58,-112,-68
-9,39,48,-14,-29,43,-224,-92,-73,-68,-122,-73
-4,34,39,-14,-21,36,-204,-82,-68,-73,-117,-73
-4,29,34,-12,-19,31,-200,-73,-68,-68,-117,-73
-9,19,29,-4,-19,24,-195,-68,-68,-63,-117,-78
-19,4,24,7,-21,14,-185,-63,-68,-68,-117,-82
-19,4,24,7,-21,14,-165,-63,-68,-63,-122,-87
