I,II,III,aVR,aVL,aVF,V1,V2,V3,V4,V5,V6
78,87,9,-82,34,48,48,204,234,185,68,156
78,87,9,-82,34,48,48,204,234,185,68,156
78,87,9,-82,34,48,48,204,234,185,68,156
78,87,9,-82,34,48,48,204,234,185,68,156
82,92,9,-87,36,51,34,204,248,195,68,156
87,97,9,-92,39,53,29,204,253,195,68,156
92,102,9,-97,41,56,24,204,258,195,68,156
97,107,9,-102,43,58,19,204,263,195,68,156
102,131,29,-117,36,80,9,195,273,185,78,146
107,146,39,-126,34,92,9,195,273,185,78,146
112,161,48,-136,31,104,9,195,273,185,78,146
117,175,58,-146,29,117,9,195,273,185,78,146
117,170,53,-143,31,112,0,185,258,180,63,141
117,165,48,-141,34,107,0,185,253,175,58,136
117,161,43,-139,36,102,0,185,248,170,53,131
117,156,39,-136,39,97,0,185,244,165,48,126
126,151,24,-139,51,87,9,175,234,161,39,117
126,146,19,-136,53,82,9,175,234,156,39,117
126,141,14,-134,56,78,9,175,234,151,39,117
126,136,9,-131,58,73,9,175,234,146,39,117
136,146,9,-141,63,78,9,165,224,141,39,117
146,146,0,-146,73,73,9,165,224,136,39,117
156,146,-9,-151,82,68,9,165,224,131,39,117
165,146,-19,-156,92,63,9,165,224,126,39,117
146,136,-9,-141,78,63,0,156,209,122,34,102
136,126,-9,-131,73,58,0,156,204,117,29,97
126,117,-9,-122,68,53,0,156,200,112,24,92
117,107,-9,-112,63,48,0,156,195,107,19,87
122,97,-24,-109,73,36,4,161,204,117,34,92
126,87,-39,-107,82,24,9,165,204,126,39,97
131,78,-53,-104,92,12,14,170,204,136,43,102
136,68,-68,-102,102,0,19,175,200,136,48,107
151,97,-53,-124,102,21,4,165,190,117,39,92
156,112,-43,-134,100,34,-9,156,185,112,19,82
161,126,-34,-143,97,46,-14,146,180,107,14,78
175,141,-34,-158,104,53,-9,146,180,102,9,73
175,161,-14,-168,95,73,-9,131,175,82,0,53
175,161,-14,-168,95,73,-19,126,161,78,-4,53
175,156,-19,-165,97,68,-19,122,156,73,-4,53
170,136,-34,-153,102,51,-19,112,146,68,-4,53
170,136,-34,-153,102,51,-29,117,141,58,-4,48
180,136,-43,-158,112,46,-19,117,141,58,-4,43
180,126,-53,-153,117,36,-19,117,141,68,0,39
170,112,-58,-141,114,26,-14,112,136,68,0,39
175,122,-53,-148,114,34,-19,97,131,53,-14,39
185,122,-63,-153,124,29,-24,97,126,48,-24,34
190,122,-68,-156,129,26,-29,102,122,39,-29,29
200,131,-68,-165,134,31,-39,102,117,34,-34,24
195,126,-68,-161,131,29,-43,112,122,39,-34,29
209,136,-73,-173,141,31,-24,107,126,34,-39,29
195,131,-63,-163,129,34,-19,97,122,29,-39,29
185,122,-63,-153,124,29,-14,112,126,34,-39,29
204,112,-92,-158,148,9,-29,107,112,34,-29,19
214,107,-107,-161,161,0,-34,102,112,29,-29,14
195,87,-107,-141,151,-9,-34,97,112,29,-29,14
185,87,-97,-136,141,-4,-39,92,112,29,-29,14
195,92,-102,-143,148,-4,-24,102,112,24,-48,9
190,97,-92,-143,141,2,-19,97,112,24,-48,9
190,107,-82,-148,136,12,-14,97,112,24,-43,9
209,131,-78,-170,143,26,-19,92,102,24,-43,9
200,117,-82,-158,141,17,-19,92,102,24,-34,0
200,107,-92,-153,146,7,-19,92,102,29,-34,-4
200,97,-102,-148,151,-2,-19,92,107,29,-34,-4
195,68,-126,-131,161,-29,-19,97,107,24,-34,-9
185,78,-107,-131,146,-14,-19,97,107,14,-39,0
200,78,-122,-139,161,-21,-19,87,97,14,-43,-4
209,102,-107,-156,158,-2,-19,82,92,14,-53,-9
209,102,-107,-156,158,-2,-14,82,92,14,-63,-19
219,102,-117,-161,168,-7,-19,82,102,9,-48,-19
229,102,-126,-165,178,-12,-24,87,107,14,-39,-9
239,126,-112,-183,175,7,-29,87,107,19,-34,-9
253,156,-97,-204,175,29,-39,87,107,24,-34,-14
253,131,-122,-192,187,4,-29,87,92,14,-48,-24
244,122,-122,-183,183,0,-29,87,92,14,-39,-24
244,117,-126,-180,185,-4,-29,87,87,14,-43,-24
234,112,-122,-173,178,-4,-29,82,87,14,-58,-24
214,112,-102,-163,158,4,9,87,97,4,-63,-63
214,112,-102,-163,158,4,0,78,92,-4,-68,-58
214,117,-97,-165,156,9,-9,68,82,-9,-73,-63
2176,2054,-122,-2115,1149,966,375,414,331,112,82,161
-24,-424,-400,224,187,-412,483,102,-624,-1849,-1566,-1005
-131,-732,-600,431,234,-666,751,92,-966,-2840,-2318,-1449
312,244,-68,-278,190,87,-214,63,439,761,605,453
556,839,283,-697,136,561,-775,58,1146,2840,2249,1464
278,361,82,-319,97,222,-209,19,219,585,429,248
175,248,73,-212,51,161,-29,-48,-107,-263,-219,-165
229,424,195,-326,17,309,-224,-68,195,536,444,283
170,292,122,-231,24,207,-117,-58,68,253,219,156
136,219,82,-178,26,151,-19,-73,-82,-165,-102,-43
175,312,136,-244,19,224,-112,-92,0,48,82,82
190,317,126,-253,31,222,-112,-82,14,73,102,102
200,258,58,-229,70,158,-53,-34,24,-34,-4,19
239,248,9,-244,114,129,-53,19,136,39,34,29
268,214,-53,-241,161,80,-39,97,263,117,63,39
287,175,-112,-231,200,31,-4,175,361,131,9,-9
283,131,-151,-207,217,-9,19,239,483,180,9,-14
287,78,-209,-183,248,-65,24,273,561,200,19,-14
297,43,-253,-170,275,-104,24,278,570,170,19,0
317,0,-317,-158,317,-158,14,283,556,126,14,9
336,-92,-429,-122,383,-261,14,326,590,87,53,34
351,-214,-566,-68,458,-390,43,385,639,24,87,53
356,-268,-624,-43,490,-446,53,444,673,-78,39,24
370,-239,-610,-65,490,-424,34,468,658,-185,-43,-68
375,-253,-629,-61,502,-441,4,492,629,-234,-92,-107
385,-346,-732,-19,558,-539,4,541,610,-283,-117,-92
429,-356,-785,-36,607,-570,4,590,556,-439,-209,-151
478,-341,-819,-68,649,-580,24,653,522,-653,-331,-219
497,-405,-902,-46,700,-653,29,775,536,-824,-419,-219
517,-507,-1024,-4,771,-766,29,927,546,-1019,-492,-209
575,-590,-1166,7,871,-878,29,1088,536,-1263,-600,-224
639,-683,-1322,21,980,-1002,29,1220,488,-1507,-697,-224
688,-780,-1468,46,1078,-1124,9,1337,405,-1742,-771,-190
736,-873,-1610,68,1173,-1241,19,1473,351,-1986,-844,-180
795,-971,-1766,87,1281,-1368,34,1546,283,-2191,-946,-190
834,-1088,-1922,126,1378,-1505,43,1522,126,-2435,-1068,-219
873,-1151,-2025,139,1449,-1588,24,1483,-78,-2776,-1190,-248
917,-1210,-2127,146,1522,-1668,4,1434,-361,-3108,-1337,-292
971,-1293,-2264,161,1617,-1778,-24,1327,-697,-3352,-1503,-346
1019,-1371,-2391,175,1705,-1881,-34,1161,-1063,-3552,-1620,-395
1024,-1468,-2493,222,1759,-1981,-34,941,-1459,-3733,-1688,-444
1049,-1561,-2610,256,1830,-2086,-24,756,-1854,-3860,-1727,-512
1102,-1664,-2766,280,1934,-2215,-24,619,-2259,-3952,-1747,-580
1171,-1781,-2952,305,2061,-2366,-48,356,-2723,-4089,-1844,-683
1249,-1864,-3113,307,2181,-2488,-107,-53,-3176,-4255,-1971,-810
1293,-1932,-3225,319,2259,-2579,-141,-473,-3557,-4328,-2015,-902
1312,-1995,-3308,341,2310,-2652,-170,-854,-3894,-4323,-2000,-951
1312,-1995,-3308,341,2310,-2652,-180,-1220,-4177,-4313,-1947,-980
1293,-1917,-3211,312,2252,-2564,-161,-1581,-4294,-4240,-1873,-956
1268,-1883,-3152,307,2210,-2518,-151,-1942,-4387,-4118,-1790,-893
1244,-1864,-3108,309,2176,-2486,-180,-2371,-4518,-3986,-1742,-873
1205,-1820,-3025,307,2115,-2422,-214,-2806,-4596,-3840,-1722,-888
1166,-1732,-2898,283,2032,-2315,-258,-3181,-4577,-3650,-1668,-858
1156,-1615,-2771,229,1964,-2193,-361,-3459,-4523,-3440,-1566,-824
1132,-1512,-2644,190,1888,-2078,-444,-3528,-4367,-3220,-1503,-814
1112,-1439,-2552,163,1832,-1995,-522,-3557,-4196,-3084,-1532,-834
1127,-1385,-2513,129,1820,-1949,-634,-3703,-4148,-3108,-1654,-863
1141,-1376,-2518,117,1830,-1947,-722,-3855,-4157,-3157,-1756,-917
1122,-1346,-2469,112,1795,-1908,-732,-3864,-4069,-3069,-1786,-990
1102,-1254,-2357,75,1729,-1805,-722,-3728,-3884,-2903,-1717,-985
1098,-1112,-2210,7,1654,-1661,-722,-3513,-3625,-2693,-1561,-854
1044,-995,-2039,-24,1542,-1517,-707,-3264,-3333,-2410,-1366,-692
1000,-849,-1849,-75,1424,-1349,-692,-3015,-3010,-2117,-1171,-585
1024,-673,-1698,-175,1361,-1185,-683,-2781,-2732,-1893,-1063,-517
1054,-541,-1595,-256,1324,-1068,-658,-2562,-2493,-1742,-1010,-483
1054,-492,-1546,-280,1300,-1019,-634,-2366,-2283,-1629,-995,-483
1019,-468,-1488,-275,1254,-978,-619,-2220,-2113,-1542,-966,-473
995,-473,-1468,-261,1232,-971,-614,-2093,-1971,-1478,-951,-468
1024,-473,-1498,-275,1261,-985,-610,-1976,-1859,-1449,-1000,-507
1024,-458,-1483,-283,1254,-971,-590,-1830,-1756,-1420,-1073,-590
985,-453,-1439,-265,1212,-946,-546,-1688,-1639,-1376,-1117,-678
956,-492,-1449,-231,1202,-971,-507,-1556,-1542,-1322,-1132,-717
922,-507,-1429,-207,1176,-968,-478,-1459,-1449,-1288,-1151,-746
883,-448,-1332,-217,1107,-890,-478,-1415,-1390,-1273,-1185,-785
863,-405,-1268,-229,1066,-836,-488,-1366,-1346,-1293,-1234,-834
873,-424,-1298,-224,1085,-861,-468,-1312,-1273,-1263,-1229,-824
873,-448,-1322,-212,1098,-885,-439,-1229,-1190,-1185,-1200,-795
854,-434,-1288,-209,1071,-861,-419,-1166,-1127,-1132,-1185,-785
849,-434,-1283,-207,1066,-858,-414,-1102,-1093,-1098,-1171,-795
834,-419,-1254,-207,1044,-836,-444,-1078,-1073,-1083,-1132,-775
790,-351,-1141,-219,966,-746,-453,-1044,-1044,-1088,-1117,-780
746,-278,-1024,-234,885,-651,-414,-976,-976,-1054,-1117,-810
736,-224,-961,-256,849,-592,-370,-902,-878,-951,-1088,-819
697,-200,-897,-248,797,-549,-351,-839,-810,-868,-1034,-805
649,-151,-800,-248,724,-475,-312,-756,-717,-800,-980,-790
610,-87,-697,-261,653,-392,-268,-649,-590,-678,-873,-736
546,-19,-566,-263,556,-292,-229,-507,-439,-497,-712,-619
478,34,-444,-256,461,-204,-175,-375,-302,-341,-566,-512
429,68,-361,-248,395,-146,-131,-297,-219,-239,-458,-473
361,92,-268,-226,314,-87,-102,-239,-141,-151,-390,-429
297,141,-156,-219,226,-7,-48,-165,-53,-63,-307,-356
263,195,-68,-229,165,63,0,-112,19,9,-253,-312
214,200,-14,-207,114,92,24,-87,73,53,-204,-268
161,195,34,-178,63,114,43,-48,122,107,-146,-214
151,234,82,-192,34,158,48,14,180,180,-73,-175
131,273,141,-202,-4,207,34,39,190,209,-39,-156
102,278,175,-190,-36,226,29,39,180,214,-24,-146
102,283,180,-192,-39,231,58,43,204,248,0,-126
102,283,180,-192,-39,231,73,53,214,263,19,-102
112,302,190,-207,-39,246,92,58,229,268,29,-97
112,312,200,-212,-43,256,107,63,239,278,39,-87
107,322,214,-214,-53,268,117,73,248,287,43,-78
92,317,224,-204,-65,270,112,78,239,302,53,-87
82,317,234,-200,-75,275,107,78,239,312,63,-87
68,317,248,-192,-90,283,102,78,239,326,73,-73
63,326,263,-195,-100,295,87,73,239,326,82,-58
68,341,273,-204,-102,307,87,73,248,346,82,-53
58,351,292,-204,-117,322,92,73,253,346,82,-48
53,356,302,-204,-124,329,92,73,258,346,82,-48
68,361,292,-214,-112,326,92,68,268,346,102,-48
58,361,302,-209,-122,331,102,78,278,346,117,-39
58,370,312,-214,-126,341,107,82,273,351,107,-48
53,370,317,-212,-131,344,112,82,273,366,107,-48
53,370,317,-212,-131,344,117,82,273,380,117,-34
58,370,312,-214,-126,341,112,68,273,370,117,-29
58,370,312,-214,-126,341,107,63,268,370,126,-29
48,375,326,-212,-139,351,92,58,268,385,136,-24
48,385,336,-217,-143,361,87,43,263,385,136,-24
43,424,380,-234,-168,402,87,48,273,400,131,-39
39,429,390,-234,-175,409,92,53,273,409,136,-43
39,434,395,-236,-178,414,92,58,273,419,136,-43
34,439,405,-236,-185,422,97,63,273,424,136,-48
14,429,414,-222,-200,422,92,58,268,424,151,-48
9,429,419,-219,-204,424,97,58,268,439,161,-34
9,448,439,-229,-214,444,97,53,268,439,161,-34
4,473,468,-239,-231,470,87,39,278,444,165,-34
-9,478,488,-234,-248,483,87,48,287,453,175,-9
-9,473,483,-231,-246,478,92,48,287,473,190,0
-14,468,483,-226,-248,475,97,48,292,497,214,9
-19,483,502,-231,-261,492,97,48,292,507,229,14
-14,502,517,-244,-265,509,107,58,307,512,224,0
-24,502,527,-239,-275,514,112,58,312,527,229,9
-29,517,546,-244,-287,531,112,58,317,536,244,19
-29,541,570,-256,-300,556,112,58,317,546,253,24
-43,546,590,-251,-317,568,102,63,336,570,253,29
-48,541,590,-246,-319,566,102,63,341,590,273,34
-53,546,600,-246,-326,573,102,63,341,600,278,29
-53,556,610,-251,-331,583,102,58,346,619,278,29
-43,575,619,-265,-331,597,92,58,341,634,292,29
-58,595,653,-268,-356,624,97,68,356,649,317,39
-58,610,668,-275,-363,639,102,73,366,658,336,58
-58,639,697,-290,-378,668,102,73,375,663,341,58
-78,663,741,-292,-409,702,107,78,375,673,351,48
-87,678,766,-295,-427,722,126,78,390,692,366,53
-97,678,775,-290,-436,727,146,78,400,717,375,53
-107,688,795,-290,-451,741,131,73,405,727,380,43
-102,707,810,-302,-456,758,122,78,414,756,390,43
-97,727,824,-314,-461,775,131,97,439,780,409,63
-102,727,829,-312,-466,778,136,112,473,800,429,78
-107,741,849,-317,-478,795,141,117,488,824,439,87
-122,741,863,-309,-492,802,146,146,512,863,453,97
-131,746,878,-307,-505,812,151,161,531,883,492,107
-141,780,922,-319,-531,851,151,170,546,902,507,112
-151,790,941,-319,-546,866,156,175,575,932,527,122
-151,785,936,-317,-544,861,161,195,600,956,536,136
-165,805,971,-319,-568,888,165,209,619,985,561,151
-170,824,995,-326,-583,910,175,209,639,1005,580,170
-180,834,1015,-326,-597,924,180,234,658,1034,595,185
-195,849,1044,-326,-619,946,195,258,697,1068,610,180
-204,873,1078,-334,-641,976,209,283,732,1107,634,190
-214,878,1093,-331,-653,985,224,317,775,1141,653,209
-234,883,1117,-324,-675,1000,234,341,810,1176,668,209
-253,936,1190,-341,-722,1063,229,351,824,1195,668,200
-263,956,1220,-346,-741,1088,224,375,868,1220,683,204
-283,976,1259,-346,-771,1117,229,405,912,1244,707,209
-292,995,1288,-351,-790,1141,244,439,946,1283,732,209
-307,1000,1307,-346,-807,1154,263,483,995,1337,766,234
-312,1010,1322,-348,-817,1166,273,517,1034,1376,805,253
-312,1015,1327,-351,-819,1171,292,556,1083,1410,834,268
-322,1019,1342,-348,-832,1180,307,600,1132,1459,868,297
-326,1058,1385,-366,-856,1222,307,614,1156,1488,893,292
-326,1078,1405,-375,-866,1241,307,653,1190,1512,902,287
-336,1088,1424,-375,-880,1256,307,697,1234,1546,927,302
-356,1102,1459,-373,-907,1281,312,722,1273,1576,941,307
-356,1117,1473,-380,-915,1295,336,761,1322,1615,980,317
-356,1127,1483,-385,-919,1305,346,810,1376,1654,1005,336
-361,1127,1488,-383,-924,1307,366,858,1429,1688,1039,351
-361,1127,1488,-383,-924,1307,380,902,1473,1727,1068,361
-370,1127,1498,-378,-934,1312,385,927,1512,1761,1112,385
-375,1122,1498,-373,-936,1310,395,966,1551,1790,1137,405
-380,1112,1493,-366,-936,1302,409,1005,1590,1825,1166,414
-390,1098,1488,-353,-939,1293,419,1044,1629,1869,1200,424
-380,1117,1498,-368,-939,1307,434,1088,1673,1903,1215,409
-380,1127,1507,-373,-944,1317,439,1132,1712,1917,1224,414
-380,1146,1527,-383,-954,1337,444,1151,1751,1927,1234,414
-380,1156,1537,-387,-958,1346,453,1185,1786,1952,1249,414
-385,1141,1527,-378,-956,1334,473,1215,1815,1971,1283,424
-385,1117,1503,-366,-944,1310,478,1254,1849,2000,1302,448
-380,1107,1488,-363,-934,1298,478,1278,1869,2015,1322,463
-370,1098,1468,-363,-919,1283,478,1302,1883,2020,1322,468
-366,1112,1478,-373,-922,1295,468,1327,1903,2020,1317,458
-366,1102,1468,-368,-917,1285,478,1361,1917,2025,1327,468
-361,1088,1449,-363,-905,1268,478,1381,1922,2030,1332,463
-356,1078,1434,-361,-895,1256,483,1381,1927,2010,1327,458
-366,1068,1434,-351,-900,1251,488,1405,1932,2005,1332,463
-356,1058,1415,-351,-885,1237,497,1424,1932,1995,1337,463
-341,1049,1390,-353,-866,1220,502,1429,1932,1966,1337,458
-341,1029,1371,-344,-856,1200,502,1444,1922,1942,1327,453
-346,995,1342,-324,-844,1168,488,1439,1908,1932,1317,458
-326,956,1283,-314,-805,1119,483,1439,1893,1903,1317,458
-312,917,1229,-302,-771,1073,473,1439,1873,1869,1312,458
-297,893,1190,-297,-744,1041,468,1434,1844,1830,1298,453
-273,868,1141,-297,-707,1005,468,1429,1820,1800,1293,458
-258,839,1098,-290,-678,968,468,1415,1790,1781,1278,458
-244,810,1054,-283,-649,932,468,1395,1747,1761,1273,453
-219,785,1005,-283,-612,895,463,1371,1712,1722,1254,444
-209,766,976,-278,-592,871,468,1337,1664,1668,1224,419
-195,746,941,-275,-568,844,468,1312,1610,1610,1185,400
-175,736,912,-280,-544,824,468,1288,1566,1532,1161,375
-165,727,893,-280,-529,810,463,1249,1517,1468,1132,356
-165,717,883,-275,-524,800,448,1195,1449,1424,1093,351
-156,712,868,-278,-512,790,439,1151,1400,1371,1058,331
-151,683,834,-265,-492,758,419,1112,1346,1307,1015,326
-136,668,805,-265,-470,736,390,1078,1283,1249,976,322
-112,639,751,-263,-431,695,370,1039,1215,1185,932,302
-102,610,712,-253,-407,661,370,980,1151,1127,893,283
-78,580,658,-251,-368,619,361,927,1098,1063,844,263
-58,561,619,-251,-339,590,341,878,1034,1005,805,234
-39,541,580,-251,-309,561,346,839,971,936,751,200
-19,527,546,-253,-283,536,341,795,922,883,717,180
-4,507,512,-251,-258,509,331,756,873,839,673,156
0,488,488,-244,-244,488,326,712,819,785,639,131
19,463,444,-241,-212,453,322,673,771,741,614,122
34,424,390,-229,-178,407,307,639,727,688,580,112
53,390,336,-222,-141,363,297,595,678,634,546,97
68,380,312,-224,-122,346,292,551,634,590,512,68
78,366,287,-222,-104,326,302,507,605,566,488,63
92,346,253,-219,-80,300,302,483,575,531,458,58
87,312,224,-200,-68,268,297,439,541,497,424,43
87,297,209,-192,-61,253,297,405,497,458,390,39
112,292,180,-202,-34,236,297,366,463,424,361,24
122,287,165,-204,-21,226,287,336,419,385,341,0
126,283,156,-204,-14,219,268,302,385,351,312,-29
131,273,141,-202,-4,207,258,278,346,317,292,-48
131,248,117,-190,7,183,273,263,322,297,273,-48
136,229,92,-183,21,161,273,234,307,278,258,-63
141,224,82,-183,29,153,268,204,292,263,239,-78
146,219,73,-183,36,146,273,170,278,244,219,-92
141,214,73,-178,34,143,258,151,263,224,200,-112
146,204,58,-175,43,131,244,136,244,204,180,-131
156,204,48,-180,53,126,204,122,209,185,151,-161
156,204,48,-180,53,126,185,107,195,165,126,-185
165,195,29,-180,68,112,209,92,180,156,117,-180
180,175,-4,-178,92,85,219,82,175,151,102,-180
180,170,-9,-175,95,80,239,68,161,136,78,-185
175,165,-9,-170,92,78,248,48,146,122,53,-200
185,180,-4,-183,95,87,248,48,146,117,48,-209
185,175,-9,-180,97,82,248,48,141,107,39,-214
180,170,-9,-175,95,80,248,53,136,102,29,-214
180,175,-4,-178,92,85,234,63,141,102,29,-214
180,165,-14,-173,97,75,219,68,151,92,29,-200
180,165,-14,-173,97,75,219,68,151,87,24,-195
180,151,-29,-165,104,61,224,63,151,87,19,-190
180,151,-29,-165,104,61,234,58,151,87,19,-185
180,161,-19,-170,100,70,239,68,156,87,29,-200
175,165,-9,-170,92,78,234,68,156,87,9,-219
175,165,-9,-170,92,78,239,68,156,92,19,-224
170,156,-14,-163,92,70,248,63,156,97,29,-234
180,175,-4,-178,92,85,239,68,156,87,9,-224
185,175,-9,-180,97,82,229,68,156,82,4,-224
195,170,-24,-183,109,73,229,73,165,78,4,-224
204,170,-34,-187,119,68,234,87,170,78,0,-224
190,156,-34,-173,112,61,248,87,175,68,9,-219
180,151,-29,-165,104,61,258,97,175,78,9,-209
170,141,-29,-156,100,56,268,107,185,78,9,-204
165,126,-39,-146,102,43,278,107,185,78,9,-200
175,141,-34,-158,104,53,263,117,185,92,14,-190
180,117,-63,-148,122,26,263,126,195,97,14,-185
180,107,-73,-143,126,17,258,126,195,112,14,-180
180,141,-39,-161,109,51,244,126,195,102,9,-180
185,156,-29,-170,107,63,248,117,185,87,0,-195
190,161,-29,-175,109,65,253,117,190,78,-4,-200
190,175,-14,-183,102,80,244,122,185,73,-14,-200
195,185,-9,-190,102,87,248,131,185,63,-19,-200
190,195,4,-192,92,100,263,126,200,68,-24,-204
180,175,-4,-178,92,85,278,131,204,78,-19,-200
165,175,9,-170,78,92,292,136,209,82,-19,-200
161,180,19,-170,70,100,297,141,219,87,-24,-200
161,180,19,-170,70,100,283,146,224,107,-19,-190
161,185,24,-173,68,104,273,151,229,107,-14,-190
151,185,34,-168,58,109,273,161,224,112,-9,-190
151,185,34,-168,58,109,244,165,214,112,-4,-190
161,180,19,-170,70,100,244,156,204,92,-19,-204
161,180,19,-170,70,100,248,146,200,78,-34,-214
161,180,19,-170,70,100,253,146,200,68,-39,-219
161,180,19,-170,70,100,258,146,209,63,-53,-209
175,180,4,-178,85,92,263,161,219,82,-34,-195
175,175,0,-175,87,87,268,170,229,97,-34,-185
175,175,0,-175,87,87,273,180,244,107,-14,-185
175,190,14,-183,80,102,292,190,253,112,9,-175
180,180,0,-180,90,90,283,180,248,97,9,-185
180,170,-9,-175,95,80,278,175,248,97,9,-180
175,170,-4,-173,90,82,268,180,244,97,9,-175
170,170,0,-170,85,85,253,175,239,92,9,-175
165,146,-19,-156,92,63,263,175,239,97,9,-175
165,122,-43,-143,104,39,273,185,253,102,14,-170
165,107,-58,-136,112,24,283,185,253,102,14,-170
161,73,-87,-117,124,-7,278,185,244,92,14,-175
170,92,-78,-131,124,7,283,195,244,92,24,-170
175,87,-87,-131,131,0,287,190,244,97,43,-165
180,107,-73,-143,126,17,283,190,239,97,29,-170
185,141,-43,-163,114,48,287,190,239,102,29,-165
190,180,-9,-185,100,85,278,180,219,92,14,-175
190,209,19,-200,85,114,263,165,209,82,19,-180
195,234,39,-214,78,136,244,141,200,63,0,-190
195,248,53,-222,70,151,229,126,180,39,-19,-200
195,234,39,-214,78,136,234,131,175,39,-14,-204
195,219,24,-207,85,122,244,131,175,43,-4,-200
200,209,9,-204,95,109,248,136,175,43,-19,-204
200,200,0,-200,100,100,258,136,170,43,-29,-219
200,190,-9,-195,104,90,258,136,170,43,-19,-229
204,175,-29,-190,117,73,253,136,170,39,-24,-224
204,161,-43,-183,124,58,253,136,165,34,-39,-224
200,131,-68,-165,134,31,253,131,165,19,-48,-234
190,136,-53,-163,122,41,253,117,151,4,-34,-229
200,151,-48,-175,124,51,239,112,146,4,-29,-219
200,165,-34,-183,117,65,239,107,131,0,-39,-209
200,170,-29,-185,114,70,248,107,117,0,-43,-200
200,141,-58,-170,129,41,239,107,126,0,-34,-214
204,136,-68,-170,136,34,239,107,136,4,-29,-214
204,136,-68,-170,136,34,234,112,146,4,-24,-214
214,136,-78,-175,146,29,234,112,156,4,-19,-214
234,146,-87,-190,161,29,244,107,131,14,-19,-195
253,146,-107,-200,180,19,244,97,126,-9,-29,-204
244,136,-107,-190,175,14,244,97,126,-19,-39,-214
229,126,-102,-178,165,12,253,97,126,-19,-48,-224
224,126,-97,-175,161,14,253,97,126,-19,-48,-224
219,126,-92,-173,156,17,253,97,126,-19,-48,-224
214,126,-87,-170,151,19,253,97,126,-19,-48,-224
214,112,-102,-163,158,4,244,87,112,-19,-48,-234
224,102,-122,-163,173,-9,234,87,112,-24,-53,-234
224,87,-136,-156,180,-24,224,78,107,-24,-68,-239
224,73,-151,-148,187,-39,224,68,102,-24,-68,-239
234,78,-156,-156,195,-39,229,73,112,-34,-78,-244
234,92,-141,-163,187,-24,224,78,112,-43,-78,-258
234,97,-136,-165,185,-19,209,82,102,-48,-82,-263
234,97,-136,-165,185,-19,204,87,102,-53,-82,-268
219,92,-126,-156,173,-17,214,82,97,-48,-73,-253
219,107,-112,-163,165,-2,224,78,92,-48,-73,-253
229,122,-107,-175,168,7,244,78,92,-48,-73,-253
229,126,-102,-178,165,12,253,78,92,-39,-68,-253
209,122,-87,-165,148,17,248,73,87,-43,-68,-253
209,122,-87,-165,148,17,248,68,87,-48,-78,-248
214,112,-102,-163,158,4,248,68,87,-53,-82,-248
214,102,-112,-158,163,-4,248,73,87,-63,-82,-248
224,102,-122,-163,173,-9,253,73,87,-58,-73,-248
234,102,-131,-168,183,-14,244,73,87,-53,-73,-244
253,117,-136,-185,195,-9,258,68,87,-58,-78,-244
244,117,-126,-180,185,-4,258,58,78,-63,-78,-244
229,97,-131,-163,180,-17,263,58,68,-68,-78,-239
244,92,-151,-168,197,-29,258,53,63,-73,-78,-234
248,82,-165,-165,207,-41,263,48,63,-82,-78,-234
224,58,-165,-141,195,-53,273,43,63,-87,-78,-229
224,68,-156,-146,190,-43,268,43,63,-82,-68,-224
224,68,-156,-146,190,-43,263,43,63,-82,-78,-224
219,68,-151,-143,185,-41,258,39,63,-78,-78,-219
219,73,-146,-146,183,-36,253,39,63,-73,-73,-214
229,87,-141,-158,185,-26,248,43,43,-78,-87,-234
229,87,-141,-158,185,-26,263,43,43,-82,-92,-248
229,82,-146,-156,187,-31,268,43,43,-82,-97,-258
229,78,-151,-153,190,-36,273,43,48,-87,-102,-263
234,78,-156,-156,195,-39,263,39,48,-92,-112,-273
224,87,-136,-156,180,-24,248,39,48,-92,-112,-273
239,97,-141,-168,190,-21,234,29,39,-92,-112,-278
248,131,-117,-190,183,7,219,24,34,-92,-117,-283
248,136,-112,-192,180,12,234,34,43,-82,-117,-283
248,126,-122,-187,185,2,239,34,43,-92,-112,-263
248,117,-131,-183,190,-7,244,39,48,-92,-102,-244
248,131,-117,-190,183,7,248,39,48,-92,-97,-234
244,126,-117,-185,180,4,253,34,39,-82,-92,-239
234,107,-126,-170,180,-9,263,29,34,-82,-102,-239
214,92,-122,-153,168,-14,273,24,34,-82,-87,-239
204,82,-122,-143,163,-19,283,19,29,-82,-87,-239
214,122,-92,-168,153,14,253,43,39,-92,-107,-248
253,131,-122,-192,187,4,244,48,48,-102,-122,-248
1278,1078,-200,-1178,739,439,-351,-624,-678,-961,-946,-1015
1078,541,-536,-810,807,2,1771,1127,527,-766,-585,-195
-73,-780,-707,427,317,-744,1054,156,-727,-2742,-2410,-1698
287,336,48,-312,119,192,102,-43,253,483,453,214
483,966,483,-724,0,724,-468,-141,771,2469,2161,1283
224,273,48,-248,87,161,107,-43,126,488,419,92
156,78,-78,-117,117,0,307,-39,-102,-292,-219,-312
258,380,122,-319,68,251,82,-97,102,419,439,131
244,317,73,-280,85,195,156,-97,0,136,200,-19
219,219,0,-219,109,109,273,-87,-107,-253,-141,-234
229,292,63,-261,82,178,234,-107,-39,-48,34,-126
195,258,63,-226,65,161,244,-92,-14,-9,24,-141
175,185,9,-180,82,97,278,-63,-9,-126,-102,-209
190,170,-19,-180,104,75,258,-43,43,-73,-73,-180
219,141,-78,-180,148,31,239,-4,112,-24,-43,-185
248,63,-185,-156,217,-61,239,68,195,-19,-63,-214
278,19,-258,-148,268,-119,244,117,302,39,-43,-185
297,29,-268,-163,283,-119,248,146,380,82,-19,-165
292,34,-258,-163,275,-112,283,170,414,82,-19,-161
278,-9,-287,-134,283,-148,297,185,424,73,0,-141
287,-43,-331,-122,309,-187,297,200,453,63,39,-117
326,-68,-395,-129,361,-231,287,244,497,39,63,-107
346,-112,-458,-117,402,-285,278,287,561,-9,43,-131
331,-175,-507,-78,419,-341,278,326,600,-102,0,-151
366,-209,-575,-78,470,-392,268,346,605,-175,-19,-180
429,-248,-678,-90,553,-463,268,361,590,-224,-4,-195
463,-331,-795,-65,629,-563,278,405,580,-253,4,-185
473,-405,-878,-34,675,-641,278,473,590,-341,-58,-209
497,-463,-961,-17,729,-712,287,551,605,-527,-161,-239
507,-517,-1024,4,766,-771,317,634,610,-722,-263,-239
517,-580,-1098,31,807,-839,331,736,585,-922,-322,-190
546,-683,-1229,68,888,-956,341,858,575,-1146,-375,-170
595,-785,-1381,95,988,-1083,331,961,507,-1351,-444,-165
658,-849,-1507,95,1083,-1178,312,1054,419,-1546,-492,-136
717,-917,-1634,100,1176,-1276,292,1220,424,-1732,-556,-112
785,-1039,-1825,126,1305,-1432,283,1366,439,-1908,-678,-131
814,-1176,-1991,180,1403,-1583,287,1390,322,-2064,-800,-131
814,-1332,-2147,258,1481,-1739,336,1376,175,-2278,-883,-73
844,-1454,-2298,305,1571,-1876,375,1356,-9,-2591,-1024,-73
907,-1493,-2400,292,1654,-1947,366,1268,-283,-2874,-1200,-165
980,-1449,-2430,234,1705,-1939,287,1112,-580,-3030,-1337,-287
1019,-1468,-2488,224,1754,-1978,239,936,-907,-3172,-1405,-395
1044,-1576,-2620,265,1832,-2098,239,756,-1263,-3294,-1405,-463
1088,-1708,-2796,309,1942,-2252,248,629,-1629,-3440,-1444,-541
1151,-1839,-2991,344,2071,-2415,239,541,-2044,-3669,-1600,-668
1220,-1917,-3137,348,2178,-2527,214,326,-2459,-3864,-1698,-780
1239,-1971,-3211,366,2225,-2591,165,-53,-2815,-3952,-1629,-780
1263,-1991,-3254,363,2259,-2623,112,-444,-3137,-3977,-1498,-727
1273,-1956,-3230,341,2252,-2593,102,-756,-3435,-4001,-1405,-658
1273,-1849,-3123,287,2198,-2486,112,-1005,-3611,-4001,-1361,-610
1254,-1742,-2996,244,2125,-2369,131,-1317,-3738,-3938,-1346,-605
1220,-1717,-2937,248,2078,-2327,141,-1727,-3899,-3874,-1361,-600
1176,-1717,-2893,270,2034,-2305,131,-2108,-4050,-3791,-1351,-629
1117,-1693,-2810,287,1964,-2252,107,-2435,-4167,-3713,-1400,-712
1098,-1644,-2742,273,1920,-2193,34,-2791,-4226,-3630,-1415,-741
1117,-1527,-2644,204,1881,-2086,-48,-3069,-4182,-3479,-1410,-727
1122,-1415,-2537,146,1830,-1976,-131,-3157,-4035,-3337,-1483,-756
1102,-1371,-2474,134,1788,-1922,-219,-3225,-3952,-3298,-1600,-795
1068,-1395,-2464,163,1766,-1930,-292,-3391,-3952,-3264,-1654,-824
1063,-1376,-2440,156,1751,-1908,-312,-3542,-3923,-3176,-1639,-829
1054,-1307,-2361,126,1708,-1834,-312,-3591,-3864,-3098,-1620,-814
1015,-1224,-2239,104,1627,-1732,-292,-3503,-3738,-2962,-1542,-761
980,-1161,-2142,90,1561,-1651,-292,-3308,-3489,-2713,-1376,-668
966,-1034,-2000,34,1483,-1517,-326,-3059,-3206,-2440,-1229,-585
951,-878,-1830,-36,1390,-1354,-341,-2820,-2913,-2196,-1132,-536
897,-790,-1688,-53,1293,-1239,-312,-2576,-2644,-2000,-1054,-488
878,-727,-1605,-75,1241,-1166,-258,-2366,-2386,-1810,-980,-434
917,-590,-1507,-163,1212,-1049,-224,-2191,-2176,-1688,-946,-414
941,-507,-1449,-217,1195,-978,-200,-2054,-2054,-1639,-985,-444
907,-512,-1420,-197,1163,-966,-185,-1927,-1942,-1605,-1049,-527
878,-492,-1371,-192,1124,-932,-170,-1771,-1790,-1537,-1098,-595
888,-429,-1317,-229,1102,-873,-151,-1615,-1649,-1468,-1122,-678
888,-434,-1322,-226,1105,-878,-146,-1483,-1532,-1395,-1127,-736
868,-483,-1351,-192,1110,-917,-107,-1390,-1424,-1312,-1122,-756
844,-429,-1273,-207,1058,-851,-97,-1332,-1371,-1298,-1171,-805
834,-351,-1185,-241,1010,-768,-107,-1317,-1351,-1342,-1254,-893
814,-375,-1190,-219,1002,-783,-97,-1278,-1307,-1332,-1283,-922
775,-414,-1190,-180,983,-802,-78,-1234,-1244,-1283,-1268,-912
756,-361,-1117,-197,936,-739,-87,-1190,-1220,-1254,-1288,-922
746,-287,-1034,-229,890,-661,-97,-1146,-1176,-1229,-1273,-902
741,-268,-1010,-236,875,-639,-82,-1063,-1112,-1176,-1220,-883
697,-273,-971,-212,834,-622,-53,-990,-1024,-1112,-1180,-902
653,-283,-936,-185,795,-610,-14,-917,-946,-1049,-1166,-927
629,-278,-907,-175,768,-592,34,-839,-858,-966,-1107,-936
590,-244,-834,-173,712,-539,58,-766,-771,-873,-1019,-888
570,-180,-751,-195,661,-466,78,-692,-683,-790,-946,-834
541,-122,-663,-209,602,-392,107,-590,-570,-644,-834,-780
502,-58,-561,-222,531,-309,170,-434,-424,-473,-678,-697
448,0,-448,-224,448,-224,219,-331,-312,-361,-566,-619
370,14,-356,-192,363,-170,253,-287,-253,-302,-507,-580
302,29,-273,-165,287,-122,278,-239,-190,-229,-448,-541
244,53,-190,-148,217,-68,297,-190,-122,-141,-361,-478
229,102,-126,-165,178,-12,312,-156,-53,-73,-258,-395
234,156,-78,-195,156,39,361,-112,9,9,-156,-312
234,219,-14,-226,124,102,405,-58,82,92,-87,-248
170,253,82,-212,43,168,414,-39,102,117,-78,-234
112,253,141,-183,-14,197,409,-24,82,112,-73,-253
122,253,131,-187,-4,192,405,-9,82,112,-68,-263
131,278,146,-204,-7,212,390,0,102,126,-53,-244
92,263,170,-178,-39,217,380,-4,107,141,-39,-214
87,283,195,-185,-53,239,380,-4,107,141,-29,-214
92,302,209,-197,-58,256,395,-9,112,141,-19,-214
87,312,224,-200,-68,268,405,-14,112,146,-9,-209
78,322,244,-200,-82,283,409,-14,112,151,-4,-204
78,322,244,-200,-82,283,414,0,122,151,4,-204
73,317,244,-195,-85,280,419,0,122,156,14,-204
63,312,248,-187,-92,280,424,0,122,165,24,-190
63,317,253,-190,-95,285,419,-4,122,161,34,-175
73,317,244,-195,-85,280,419,-14,117,180,43,-161
58,322,263,-190,-102,292,424,-14,117,180,43,-156
48,322,273,-185,-112,297,424,-14,117,180,43,-156
58,322,263,-190,-102,292,424,-19,122,180,63,-156
48,336,287,-192,-119,312,414,-19,122,190,68,-161
48,351,302,-200,-126,326,409,-14,117,195,58,-175
43,356,312,-200,-134,334,405,-14,117,209,58,-180
43,361,317,-202,-136,339,400,-14,117,224,68,-170
48,370,322,-209,-136,346,405,-4,122,214,78,-151
48,370,322,-209,-136,346,409,-4,122,214,87,-146
39,375,336,-207,-148,356,405,-4,126,229,97,-136
39,385,346,-212,-153,366,409,-14,126,229,97,-131
24,385,361,-204,-168,373,409,-4,126,244,112,-126
19,370,351,-195,-165,361,414,-4,126,253,117,-122
19,356,336,-187,-158,346,414,-4,126,263,117,-112
14,341,326,-178,-156,334,419,-4,126,268,117,-107
4,356,351,-180,-173,353,414,-9,122,273,126,-107
0,370,370,-185,-185,370,419,-9,122,283,141,-92
0,405,405,-202,-202,405,419,-14,122,278,146,-92
-4,444,448,-219,-226,446,409,-29,131,278,156,-92
-4,463,468,-229,-236,466,400,-29,131,283,156,-87
0,473,473,-236,-236,473,405,-29,131,297,161,-87
0,483,483,-241,-241,483,409,-29,136,317,175,-87
0,512,512,-256,-256,512,409,-29,136,322,180,-92
-4,507,512,-251,-258,509,419,-29,131,317,190,-97
-14,502,517,-244,-265,509,424,-29,136,331,200,-78
-19,512,531,-246,-275,522,424,-29,141,341,219,-58
-19,531,551,-256,-285,541,424,-29,141,351,234,-43
-39,541,580,-251,-309,561,419,-24,151,380,253,-24
-48,541,590,-246,-319,566,414,-24,156,395,273,-14
-58,551,610,-246,-334,580,409,-24,156,400,278,-14
-63,566,629,-251,-346,597,405,-29,161,414,278,-9
-53,575,629,-261,-341,602,414,-29,165,434,292,-9
-68,595,663,-263,-366,629,419,-19,180,453,317,0
-68,610,678,-270,-373,644,424,-14,190,468,336,19
-68,639,707,-285,-387,673,424,-14,200,478,341,19
-73,663,736,-295,-405,700,419,-4,219,502,361,29
-78,678,756,-300,-417,717,429,0,234,527,385,43
-82,678,761,-297,-422,719,439,4,244,556,405,53
-87,688,775,-300,-431,732,414,4,248,570,419,53
-97,707,805,-305,-451,756,424,0,248,580,414,43
-97,727,824,-314,-461,775,434,9,263,605,429,63
-107,727,834,-309,-470,780,439,14,287,624,444,78
-117,741,858,-312,-488,800,444,9,292,649,448,87
-126,746,873,-309,-500,810,453,19,317,683,463,97
-131,756,888,-312,-509,822,453,34,336,707,502,107
-136,795,932,-329,-534,863,448,43,351,732,517,112
-141,810,951,-334,-546,880,448,48,380,766,536,122
-165,819,985,-326,-575,902,448,73,409,800,570,141
-185,844,1029,-329,-607,936,448,92,434,829,600,161
-195,868,1063,-336,-629,966,453,97,458,849,624,185
-209,883,1093,-336,-651,988,453,126,483,878,644,204
-229,912,1141,-341,-685,1027,458,141,497,907,653,190
-234,951,1185,-358,-710,1068,463,156,527,941,673,190
-239,971,1210,-366,-724,1090,468,180,566,971,688,200
-253,990,1244,-368,-749,1117,468,195,595,1000,697,190
-253,1024,1278,-385,-766,1151,468,214,624,1044,727,195
-253,1034,1288,-390,-771,1161,468,239,673,1073,751,214
-263,1044,1307,-390,-785,1176,478,268,722,1102,785,234
-263,1054,1317,-395,-790,1185,497,302,761,1146,819,248
-287,1063,1351,-387,-819,1207,497,336,795,1190,849,263
-302,1078,1381,-387,-841,1229,497,361,829,1229,883,273
-312,1088,1400,-387,-856,1244,507,390,873,1263,907,278
-331,1098,1429,-383,-880,1263,512,424,917,1312,936,297
-326,1117,1444,-395,-885,1281,517,444,961,1342,961,302
-326,1127,1454,-400,-890,1290,522,488,1005,1376,980,307
-336,1127,1464,-395,-900,1295,527,536,1058,1420,1015,331
-356,1132,1488,-387,-922,1310,536,566,1107,1459,1039,346
-356,1156,1512,-400,-934,1334,546,600,1151,1503,1088,366
-356,1166,1522,-405,-939,1344,551,644,1200,1546,1122,395
-361,1166,1527,-402,-944,1346,566,688,1249,1586,1166,419
-361,1166,1527,-402,-944,1346,575,727,1288,1629,1205,439
-370,1166,1537,-397,-954,1351,575,751,1346,1673,1234,453
-375,1171,1546,-397,-961,1359,580,790,1385,1703,1254,473
-380,1171,1551,-395,-966,1361,590,829,1424,1737,1278,483
-390,1166,1556,-387,-973,1361,595,868,1464,1781,1307,492
-400,1156,1556,-378,-978,1356,610,888,1488,1795,1317,488
-400,1156,1556,-378,-978,1356,614,927,1527,1810,1332,492
-400,1166,1566,-383,-983,1366,619,941,1566,1820,1346,492
-400,1166,1566,-383,-983,1366,629,971,1600,1844,1366,492
-395,1171,1566,-387,-980,1368,624,1015,1634,1864,1381,497
-395,1156,1551,-380,-973,1354,624,1058,1673,1893,1400,517
-390,1156,1546,-383,-968,1351,619,1088,1698,1908,1420,527
-380,1156,1537,-387,-958,1346,614,1117,1717,1912,1420,527
-375,1151,1527,-387,-951,1339,614,1156,1747,1927,1429,536
-375,1132,1507,-378,-941,1320,624,1195,1771,1937,1444,556
-370,1107,1478,-368,-924,1293,624,1220,1786,1947,1454,561
-366,1088,1454,-361,-910,1271,629,1224,1800,1932,1454,566
-361,1083,1444,-361,-902,1263,644,1239,1795,1922,1459,566
-346,1068,1415,-361,-880,1241,653,1259,1795,1917,1464,570
-326,1054,1381,-363,-854,1217,658,1263,1795,1893,1464,570
-322,1029,1351,-353,-836,1190,658,1278,1786,1873,1454,570
-307,995,1302,-344,-805,1149,653,1283,1761,1844,1424,556
-287,966,1254,-339,-771,1110,649,1283,1747,1815,1415,546
-273,936,1210,-331,-741,1073,639,1283,1727,1781,1400,536
-258,922,1180,-331,-719,1051,634,1278,1698,1742,1376,522
-248,897,1146,-324,-697,1022,614,1268,1683,1698,1356,527
-248,868,1117,-309,-683,993,605,1259,1654,1664,1327,527
-248,839,1088,-295,-668,963,595,1244,1610,1629,1307,522
-239,814,1054,-287,-646,934,580,1224,1576,1576,1273,512
-219,771,990,-275,-605,880,590,1215,1546,1527,1244,507
-195,746,941,-275,-568,844,585,1195,1493,1473,1205,497
-165,732,897,-283,-531,814,580,1176,1449,1400,1180,483
-146,717,863,-285,-505,790,570,1141,1400,1342,1151,473
-136,692,829,-278,-483,761,561,1098,1342,1278,1102,453
-126,673,800,-273,-463,736,556,1054,1293,1224,1058,429
-122,629,751,-253,-436,690,541,1015,1239,1161,1005,419
-107,600,707,-246,-407,653,517,980,1176,1102,956,409
-78,570,649,-246,-363,610,512,961,1127,1054,922,390
-73,531,605,-229,-339,568,517,912,1073,1000,883,370
-53,492,546,-219,-300,519,512,868,1029,941,834,351
-39,463,502,-212,-270,483,497,829,976,888,795,322
-29,458,488,-214,-258,473,492,810,932,829,756,312
-9,448,458,-219,-234,453,488,766,883,775,727,297
4,434,429,-219,-212,431,478,727,834,732,688,278
9,419,409,-214,-200,414,473,683,780,678,658,258
14,419,405,-217,-195,412,458,634,727,624,605,234
24,395,370,-209,-173,383,444,600,678,570,561,219
39,375,336,-207,-148,356,434,556,624,517,517,200
48,380,331,-214,-141,356,429,512,575,473,473,165
53,361,307,-207,-126,334,439,488,536,424,434,131
73,346,273,-209,-100,309,429,463,497,385,400,117
73,317,244,-195,-85,280,414,419,453,346,361,92
78,307,229,-192,-75,268,405,385,400,302,322,78
102,302,200,-202,-48,251,405,366,370,278,307,87
112,287,175,-200,-31,231,395,336,331,248,292,78
117,273,156,-195,-19,214,375,302,302,224,268,63
122,253,131,-187,-4,192,366,278,268,200,253,58
126,219,92,-173,17,156,356,263,229,165,219,34
126,200,73,-163,26,136,351,234,209,141,200,14
126,195,68,-161,29,131,341,204,190,122,175,-4
126,190,63,-158,31,126,341,170,170,97,151,-24
131,185,53,-158,39,119,361,156,151,92,151,-9
136,175,39,-156,48,107,361,146,136,78,141,-14
146,175,29,-161,58,102,336,136,107,63,122,-29
146,175,29,-161,58,102,331,126,97,48,107,-39
146,180,34,-163,56,107,331,102,87,39,102,-29
161,165,4,-163,78,85,326,92,78,34,92,-34
161,165,4,-163,78,85,331,78,58,19,73,-43
156,165,9,-161,73,87,326,58,39,4,53,-63
156,175,19,-165,68,97,326,39,19,-4,39,-82
156,165,9,-161,73,87,326,19,4,-19,29,-87
151,156,4,-153,73,80,326,4,-9,-29,19,-87
151,156,4,-153,73,80,312,-4,-14,-34,19,-87
161,151,-9,-156,85,70,307,-9,-14,-29,34,-73
161,146,-14,-153,87,65,307,-9,-14,-29,34,-68
161,126,-34,-143,97,46,312,-14,-14,-24,34,-63
161,122,-39,-141,100,41,322,-19,-14,-19,39,-58
175,136,-39,-156,107,48,322,-29,-19,-24,43,-48
175,146,-29,-161,102,58,312,-29,-19,-29,19,-53
180,151,-29,-165,104,61,312,-29,-19,-29,24,-43
180,146,-34,-163,107,56,317,-34,-19,-29,29,-39
165,146,-19,-156,92,63,326,-39,-24,-43,19,-43
156,146,-9,-151,82,68,317,-48,-29,-43,14,-48
151,141,-9,-146,80,65,317,-53,-24,-43,14,-53
146,141,-4,-143,75,68,322,-48,-24,-39,9,-58
131,112,-19,-122,75,46,317,-39,0,-24,24,-39
122,92,-29,-107,75,31,317,-19,9,-9,29,-24
112,68,-43,-90,78,12,317,0,29,-4,34,-14
107,39,-68,-73,87,-14,317,9,39,0,39,-4
112,92,-19,-102,65,36,302,0,34,-4,29,-9
122,107,-14,-114,68,46,302,0,39,-9,24,-19
126,136,9,-131,58,73,297,-9,34,-4,19,-29
131,209,78,-170,26,143,283,-19,29,-24,9,-43
141,219,78,-180,31,148,297,-19,24,-19,-4,-39
141,219,78,-180,31,148,312,-19,34,-19,-4,-43
136,229,92,-183,21,161,312,-14,34,-14,-9,-43
136,234,97,-185,19,165,326,-4,39,-14,-9,-43
146,214,68,-180,39,141,317,4,48,-9,0,-34
141,185,43,-163,48,114,317,14,58,0,9,-24
131,175,43,-153,43,109,317,24,68,4,14,-19
131,170,39,-151,46,104,307,34,82,9,14,-14
131,175,43,-153,43,109,307,29,82,14,9,-24
122,185,63,-153,29,124,312,34,92,9,4,-24
102,190,87,-146,7,139,326,43,92,9,0,-24
92,195,102,-143,-4,148,312,48,87,4,-4,-24
92,190,97,-141,-2,143,307,58,87,14,4,-9
92,190,97,-141,-2,143,317,58,92,9,4,-9
92,190,97,-141,-2,143,326,68,102,9,14,-4
92,190,97,-141,-2,143,336,78,122,14,14,14
107,190,82,-148,12,136,336,82,131,24,9,29
107,185,78,-146,14,131,336,82,131,29,-4,29
107,185,78,-146,14,131,336,82,136,29,0,19
107,200,92,-153,7,146,351,82,136,24,9,19
112,200,87,-156,12,143,346,87,136,34,19,9
112,190,78,-151,17,134,346,87,141,39,19,14
107,190,82,-148,12,136,341,97,141,43,19,19
102,190,87,-146,7,139,331,97,141,43,19,19
112,175,63,-143,24,119,326,102,151,39,19,24
117,151,34,-134,41,92,322,117,165,43,24,34
122,136,14,-129,53,75,317,122,165,43,24,39
122,102,-19,-112,70,41,297,126,156,34,24,39
117,131,14,-124,51,73,297,117,146,19,14,29
117,136,19,-126,48,78,297,112,146,19,24,29
117,165,48,-141,34,107,287,112,141,14,0,19
117,209,92,-163,12,151,287,112,141,14,-9,19
112,195,82,-153,14,139,302,117,151,19,0,19
112,190,78,-151,17,134,302,117,151,24,9,14
117,180,63,-148,26,122,297,107,151,19,-4,4
117,161,43,-139,36,102,297,107,141,9,-19,-4
122,161,39,-141,41,100,287,92,131,4,-4,9
126,161,34,-143,46,97,292,92,126,4,4,24
136,165,29,-151,53,97,292,97,122,0,-9,29
141,170,29,-156,56,100,297,97,112,-4,-19,24
151,180,29,-165,61,104,307,97,122,-4,-4,34
156,185,29,-170,63,107,302,97,122,-9,-4,39
156,190,34,-173,61,112,302,97,117,-14,-14,39
151,180,29,-165,61,104,302,92,117,-29,-19,29
141,161,19,-151,61,90,302,97,112,-24,-19,19
151,161,9,-156,70,85,287,92,107,-24,-19,14
151,161,9,-156,70,85,287,87,92,-29,-34,9
151,151,0,-151,75,75,297,87,78,-29,-43,4
190,180,-9,-185,100,85,307,82,107,-34,-39,9
165,165,0,-165,82,82,297,68,87,-34,-39,0
156,165,9,-161,73,87,283,58,87,-39,-39,0
146,156,9,-151,68,82,273,73,87,-53,-48,-9
146,136,-9,-141,78,63,283,78,68,-58,-58,-19
146,131,-14,-139,80,58,287,68,78,-68,-68,-9
146,126,-19,-136,82,53,292,68,78,-68,-68,-9
146,122,-24,-134,85,48,297,68,78,-68,-68,-9
146,117,-29,-131,87,43,302,68,78,-68,-68,-9
161,126,-34,-143,97,46,292,63,68,-78,-58,-14
175,131,-43,-153,109,43,283,58,63,-82,-63,-19
180,131,-48,-156,114,41,273,43,53,-82,-78,-29
185,131,-53,-158,119,39,273,29,43,-82,-78,-34
185,122,-63,-153,124,29,287,34,53,-82,-78,-29
175,131,-43,-153,109,43,292,39,53,-92,-78,-34
165,131,-34,-148,100,48,287,43,43,-97,-82,-29
156,126,-29,-141,92,48,292,48,43,-102,-82,-24
151,97,-53,-124,102,21,283,43,39,-107,-87,-24
151,107,-43,-129,97,31,273,39,34,-107,-92,-29
161,117,-43,-139,102,36,273,39,34,-107,-97,-34
161,117,-43,-139,102,36,263,39,34,-97,-97,-39
151,102,-48,-126,100,26,273,34,29,-97,-97,-48
151,102,-48,-126,100,26,278,29,29,-97,-107,-43
156,92,-63,-124,109,14,283,29,29,-97,-112,-43
156,82,-73,-119,114,4,287,34,29,-102,-112,-43
146,73,-73,-109,109,0,292,24,29,-102,-102,-34
146,73,-73,-109,109,0,283,24,29,-102,-102,-29
156,87,-68,-122,112,9,297,19,29,-112,-107,-29
136,87,-48,-112,92,19,297,9,19,-122,-107,-29
136,78,-58,-107,97,9,297,24,19,-122,-107,-39
156,73,-82,-114,119,-4,287,24,14,-122,-107,-39
165,63,-102,-114,134,-19,287,24,14,-126,-107,-43
146,39,-107,-92,126,-34,292,24,14,-126,-107,-43
141,34,-107,-87,124,-36,307,34,19,-112,-102,-39
146,29,-117,-87,131,-43,312,34,24,-112,-107,-39
146,24,-122,-85,134,-48,317,29,29,-107,-102,-34
151,24,-126,-87,139,-51,322,29,34,-102,-92,-29
170,63,-107,-117,139,-21,297,19,19,-112,-107,-39
170,87,-82,-129,126,2,292,14,14,-122,-112,-43
170,107,-63,-139,117,21,278,9,9,-126,-117,-43
170,126,-43,-148,107,41,263,4,9,-136,-122,-39
175,122,-53,-148,114,34,273,9,9,-131,-131,-39
165,126,-39,-146,102,43,268,9,9,-131,-131,-39
180,131,-48,-156,114,41,263,0,0,-131,-131,-43
190,161,-29,-175,109,65,258,-4,-4,-131,-136,-48
180,141,-39,-161,109,51,263,4,4,-131,-136,-48
170,117,-53,-143,112,31,268,4,4,-141,-131,-39
161,92,-68,-126,114,12,273,9,9,-141,-122,-29
151,92,-58,-122,104,17,278,9,9,-141,-117,-29
146,102,-43,-124,95,29,273,0,0,-141,-131,-48
146,87,-58,-117,102,14,273,0,-4,-141,-141,-53
136,78,-58,-107,97,9,273,0,-4,-141,-126,-58
136,73,-63,-104,100,4,273,0,-9,-141,-126,-63
146,73,-73,-109,109,0,263,4,0,-141,-117,-53
156,112,-43,-134,100,34,253,-9,-9,-141,-131,-63
2152,2069,-82,-2110,1117,993,649,317,253,0,24,161
-9,-439,-429,224,209,-434,751,78,-531,-1844,-1615,-1029
-141,-790,-649,466,253,-719,1034,136,-785,-2859,-2469,-1532
229,278,48,-253,90,163,73,-43,214,434,424,370
444,966,522,-705,-39,744,-497,-161,751,2508,2200,1468
204,351,146,-278,29,248,97,-73,97,497,429,268
117,117,0,-117,58,58,317,-68,-131,-341,-278,-146
190,400,209,-295,-9,305,82,-126,63,380,370,307
156,346,190,-251,-17,268,136,-136,-48,97,151,136
92,239,146,-165,-26,192,244,-146,-175,-312,-209,-78
102,302,200,-202,-48,251,195,-165,-117,-107,-34,68
97,287,190,-192,-46,239,204,-122,-82,-68,-4,73
97,214,117,-156,-9,165,248,-92,-68,-185,-112,-4
141,200,58,-170,41,129,229,-73,4,-122,-82,14
170,170,0,-170,85,85,239,-14,92,-43,-43,19
151,82,-68,-117,109,7,268,48,185,-29,-82,-9
161,29,-131,-95,146,-51,273,107,273,29,-63,0
161,0,-161,-80,161,-80,258,136,341,63,-48,0
175,-24,-200,-75,187,-112,244,151,375,53,-39,4
209,-48,-258,-80,234,-153,248,175,395,43,-9,24
248,-73,-322,-87,285,-197,239,190,414,24,29,58
258,-107,-366,-75,312,-236,248,214,448,-29,34,58
287,-122,-409,-82,348,-265,268,258,512,-97,4,53
322,-156,-478,-82,400,-317,278,297,561,-170,-29,43
326,-219,-546,-53,436,-383,268,326,575,-214,-39,14
322,-317,-639,-2,480,-478,258,370,570,-234,-34,-29
326,-400,-727,36,527,-563,268,434,570,-263,-43,-48
336,-473,-810,68,573,-641,287,502,570,-380,-97,-53
370,-522,-893,75,631,-707,307,580,595,-575,-209,-63
409,-575,-985,82,697,-780,307,653,570,-790,-322,-73
448,-678,-1127,114,788,-902,302,756,546,-990,-400,-73
497,-790,-1288,146,893,-1039,302,888,536,-1215,-463,-43
556,-883,-1439,163,997,-1161,283,1000,478,-1410,-512,-9
619,-936,-1556,158,1088,-1246,273,1112,409,-1615,-551,19
668,-1015,-1683,173,1176,-1349,283,1278,405,-1810,-634,24
727,-1098,-1825,185,1276,-1461,283,1366,351,-2005,-775,-4
785,-1117,-1903,165,1344,-1510,239,1322,175,-2249,-917,-34
805,-1107,-1912,151,1359,-1510,219,1278,-9,-2562,-1068,-53
795,-1210,-2005,207,1400,-1607,229,1249,-214,-2893,-1239,-63
829,-1356,-2186,263,1507,-1771,248,1200,-458,-3118,-1385,-107
902,-1468,-2371,283,1637,-1920,258,1093,-727,-3245,-1464,-190
951,-1566,-2518,307,1734,-2042,248,927,-1073,-3396,-1512,-268
985,-1654,-2640,334,1812,-2147,219,717,-1468,-3538,-1522,-336
1039,-1747,-2786,353,1912,-2266,200,590,-1873,-3703,-1600,-444
1093,-1888,-2981,397,2037,-2435,200,463,-2298,-3913,-1756,-570
1132,-2025,-3157,446,2144,-2591,165,209,-2693,-4060,-1815,-644
1161,-2069,-3230,453,2196,-2649,107,-161,-3059,-4138,-1737,-644
1185,-2049,-3235,431,2210,-2642,92,-492,-3372,-4152,-1625,-610
1185,-2044,-3230,429,2208,-2637,92,-766,-3620,-4148,-1561,-570
1156,-1976,-3132,409,2144,-2554,92,-1063,-3796,-4138,-1517,-531
1117,-1878,-2996,380,2056,-2437,63,-1444,-3952,-4084,-1493,-527
1112,-1805,-2918,346,2015,-2361,24,-1893,-4143,-3991,-1507,-541
1107,-1756,-2864,324,1986,-2310,-4,-2283,-4294,-3879,-1517,-561
1088,-1703,-2791,307,1939,-2247,-39,-2649,-4382,-3762,-1498,-575
1039,-1644,-2684,302,1861,-2164,-82,-3006,-4372,-3601,-1454,-585
1000,-1586,-2586,292,1793,-2086,-136,-3215,-4279,-3430,-1468,-600
1015,-1493,-2508,239,1761,-2000,-219,-3284,-4143,-3328,-1551,-629
1034,-1429,-2464,197,1749,-1947,-317,-3381,-4089,-3308,-1668,-697
1019,-1434,-2454,207,1737,-1944,-409,-3538,-4069,-3254,-1712,-756
1005,-1424,-2430,209,1717,-1927,-458,-3630,-4030,-3157,-1688,-771
956,-1376,-2332,209,1644,-1854,-468,-3620,-3933,-3050,-1629,-736
936,-1283,-2220,173,1578,-1751,-448,-3494,-3757,-2864,-1542,-644
922,-1190,-2113,134,1517,-1651,-439,-3289,-3479,-2615,-1395,-541
936,-1044,-1981,53,1459,-1512,-453,-3050,-3186,-2361,-1259,-429
922,-849,-1771,-36,1346,-1310,-448,-2830,-2913,-2147,-1141,-341
897,-683,-1581,-107,1239,-1132,-409,-2605,-2644,-1961,-1073,-331
897,-570,-1468,-163,1183,-1019,-375,-2376,-2386,-1790,-1000,-326
897,-492,-1390,-202,1144,-941,-370,-2200,-2196,-1688,-956,-297
873,-497,-1371,-187,1122,-934,-375,-2103,-2093,-1659,-1015,-336
878,-522,-1400,-178,1139,-961,-361,-1986,-1991,-1634,-1117,-429
858,-531,-1390,-163,1124,-961,-326,-1830,-1849,-1556,-1176,-517
800,-527,-1327,-136,1063,-927,-307,-1673,-1708,-1488,-1180,-590
751,-522,-1273,-114,1012,-897,-292,-1571,-1610,-1444,-1195,-629
741,-512,-1254,-114,997,-883,-263,-1468,-1512,-1390,-1200,-658
756,-507,-1263,-124,1010,-885,-224,-1400,-1429,-1376,-1239,-688
746,-507,-1254,-119,1000,-880,-214,-1356,-1390,-1381,-1283,-746
746,-453,-1200,-146,973,-827,-224,-1307,-1346,-1361,-1302,-766
746,-375,-1122,-185,934,-749,-244,-1263,-1293,-1322,-1288,-766
736,-351,-1088,-192,912,-719,-244,-1229,-1249,-1283,-1298,-766
727,-326,-1054,-200,890,-690,-234,-1185,-1205,-1249,-1263,-746
692,-307,-1000,-192,846,-653,-229,-1122,-1151,-1205,-1239,-736
629,-322,-951,-153,790,-636,-200,-1049,-1093,-1161,-1220,-746
575,-331,-907,-122,741,-619,-161,-976,-1015,-1117,-1195,-780
531,-307,-839,-112,685,-573,-112,-888,-917,-1034,-1156,-780
502,-273,-775,-114,639,-524,-87,-805,-819,-941,-1078,-751
483,-229,-712,-126,597,-470,-48,-722,-722,-839,-985,-707
473,-151,-624,-161,549,-387,0,-610,-590,-692,-863,-624
405,-87,-492,-158,448,-290,43,-483,-463,-531,-717,-531
322,-68,-390,-126,356,-229,92,-390,-351,-409,-585,-444
263,-53,-317,-104,290,-185,146,-326,-273,-331,-507,-375
214,9,-204,-112,209,-97,190,-268,-200,-258,-429,-336
175,82,-92,-129,134,-4,209,-209,-122,-170,-351,-273
131,112,-19,-122,75,46,224,-156,-53,-92,-258,-219
97,117,19,-107,39,68,263,-102,9,-19,-195,-165
48,161,112,-104,-31,136,307,-58,53,43,-146,-102
4,175,170,-90,-82,173,317,-29,82,97,-107,-48
-43,156,200,-56,-122,178,302,-24,82,112,-73,-39
-43,146,190,-51,-117,168,297,-19,82,122,-58,-39
-24,161,185,-68,-104,173,312,-9,102,136,-34,-9
-24,195,219,-85,-122,207,331,4,126,151,-19,9
-34,224,258,-95,-146,241,322,0,117,156,-24,4
-24,263,287,-119,-156,275,326,-9,122,151,-19,0
-24,292,317,-134,-170,305,326,-19,122,151,-14,0
-29,322,351,-146,-190,336,322,-24,122,151,-14,0
-19,312,331,-146,-175,322,336,0,131,175,0,14
-24,307,331,-141,-178,319,341,0,131,185,14,19
-34,302,336,-134,-185,319,346,0,131,200,29,39
-34,307,341,-136,-187,324,341,-4,131,200,43,58
-43,297,341,-126,-192,319,326,-24,131,204,34,48
-58,302,361,-122,-209,331,326,-24,126,200,34,48
-68,302,370,-117,-219,336,322,-24,122,195,34,43
-58,302,361,-122,-209,331,317,-29,122,190,53,39
-58,312,370,-126,-214,341,326,-19,122,209,58,43
-58,331,390,-136,-224,361,331,-14,117,214,48,39
-63,341,405,-139,-234,373,336,-14,117,229,48,43
-63,351,414,-143,-239,383,341,-14,117,244,58,63
-53,346,400,-146,-226,373,331,0,136,248,82,82
-48,341,390,-146,-219,366,331,4,141,253,97,87
-53,341,395,-143,-224,368,322,9,151,273,112,97
-48,346,395,-148,-222,370,322,4,156,278,117,102
-48,390,439,-170,-244,414,341,0,141,273,122,112
-48,400,448,-175,-248,424,346,-4,136,283,126,112
-43,409,453,-183,-248,431,346,-9,131,292,126,117
-43,419,463,-187,-253,441,351,-14,126,297,126,117
-63,405,468,-170,-265,436,356,-24,141,307,141,126
-68,400,468,-165,-268,434,361,-19,141,322,151,141
-68,414,483,-173,-275,448,361,-19,141,322,151,141
-73,434,507,-180,-290,470,351,-29,151,326,156,141
-78,458,536,-190,-307,497,341,-39,141,331,161,151
-78,463,541,-192,-309,502,346,-39,141,346,170,156
-82,468,551,-192,-317,509,351,-39,146,366,190,161
-87,492,580,-202,-334,536,351,-39,146,370,200,161
-102,512,614,-204,-358,563,351,-29,151,385,214,161
-112,512,624,-200,-368,568,356,-29,156,400,219,175
-117,527,644,-204,-380,585,356,-29,161,409,234,190
-117,551,668,-217,-392,610,356,-29,161,419,244,200
-122,556,678,-217,-400,617,366,-34,170,429,244,219
-126,551,678,-212,-402,614,366,-34,175,444,263,229
-131,556,688,-212,-409,622,366,-34,175,448,268,229
-131,566,697,-217,-414,631,366,-39,180,463,268,234
-126,580,707,-226,-417,644,356,-29,195,488,283,234
-136,595,732,-229,-434,663,361,-19,209,512,307,244
-131,605,736,-236,-434,671,366,-14,219,531,326,263
-126,629,756,-251,-441,692,366,-14,229,546,331,263
-141,619,761,-239,-451,690,370,9,253,575,356,273
-156,610,766,-226,-461,688,390,19,273,605,385,297
-170,585,756,-207,-463,671,409,29,287,639,409,317
-185,570,756,-192,-470,663,395,34,297,658,429,326
-209,629,839,-209,-524,734,390,29,292,673,434,312
-214,688,902,-236,-558,795,395,39,312,692,448,326
-229,727,956,-248,-592,841,395,43,341,707,463,336
-244,780,1024,-268,-634,902,395,39,351,727,468,341
-239,790,1029,-275,-634,910,395,48,356,746,478,351
-239,805,1044,-283,-641,924,395,63,375,766,512,361
-239,849,1088,-305,-663,968,390,73,390,785,522,366
-239,868,1107,-314,-673,988,390,78,419,814,536,375
-253,863,1117,-305,-685,990,405,107,448,858,566,366
-273,883,1156,-305,-714,1019,409,122,473,888,590,375
-283,902,1185,-309,-734,1044,419,122,497,907,610,390
-297,912,1210,-307,-753,1061,424,146,522,936,624,400
-302,941,1244,-319,-773,1093,424,165,561,980,644,409
-302,971,1273,-334,-788,1122,424,185,595,1019,673,424
-302,980,1283,-339,-793,1132,424,214,639,1054,697,448
-312,990,1302,-339,-807,1146,419,234,673,1088,717,453
-326,1015,1342,-344,-834,1178,434,258,712,1137,736,468
-331,1015,1346,-341,-839,1180,439,287,761,1171,761,488
-346,1015,1361,-334,-854,1188,453,322,810,1205,795,507
-351,1015,1366,-331,-858,1190,478,361,849,1254,829,522
-361,1034,1395,-336,-878,1215,488,409,897,1302,854,536
-370,1058,1429,-344,-900,1244,488,439,936,1337,883,546
-375,1078,1454,-351,-915,1266,497,473,985,1366,902,551
-390,1098,1488,-353,-939,1293,502,512,1034,1410,927,570
-400,1112,1512,-356,-956,1312,527,551,1083,1439,961,585
-405,1117,1522,-356,-963,1320,541,595,1122,1473,980,590
-419,1112,1532,-346,-976,1322,556,644,1171,1517,1015,614
-444,1112,1556,-334,-1000,1334,575,673,1215,1556,1039,629
-448,1137,1586,-344,-1017,1361,566,707,1268,1595,1068,649
-453,1146,1600,-346,-1027,1373,561,751,1317,1634,1093,668
-463,1146,1610,-341,-1037,1378,566,795,1366,1668,1127,683
-468,1146,1615,-339,-1041,1381,566,834,1405,1708,1156,692
-458,1151,1610,-346,-1034,1381,575,873,1459,1751,1185,707
-463,1151,1615,-344,-1039,1383,580,917,1503,1781,1205,727
-468,1146,1615,-339,-1041,1381,590,961,1546,1815,1229,736
-478,1137,1615,-329,-1046,1376,595,1005,1590,1859,1259,746
-483,1122,1605,-319,-1044,1363,619,1049,1634,1893,1288,751
-488,1117,1605,-314,-1046,1361,624,1093,1673,1908,1302,766
-492,1122,1615,-314,-1054,1368,629,1112,1712,1917,1317,775
-497,1117,1615,-309,-1056,1366,639,1146,1747,1942,1337,785
-502,1127,1629,-312,-1066,1378,644,1171,1766,1947,1346,785
-502,1117,1620,-307,-1061,1368,644,1215,1800,1971,1361,800
-497,1122,1620,-312,-1058,1371,639,1244,1820,1981,1376,805
-488,1127,1615,-319,-1051,1371,634,1273,1834,1981,1371,800
-478,1112,1590,-317,-1034,1351,624,1293,1849,1976,1381,814
-473,1093,1566,-309,-1019,1329,634,1332,1869,1986,1395,829
-463,1068,1532,-302,-997,1300,634,1356,1878,1995,1405,829
-453,1049,1503,-297,-978,1276,639,1361,1888,1981,1405,829
-463,1049,1512,-292,-988,1281,624,1376,1888,1966,1395,834
-453,1039,1493,-292,-973,1266,624,1395,1883,1956,1395,834
-439,1029,1468,-295,-954,1249,619,1400,1878,1927,1390,829
-439,1010,1449,-285,-944,1229,610,1415,1864,1903,1376,824
-439,971,1410,-265,-924,1190,624,1415,1844,1873,1351,834
-424,936,1361,-256,-893,1149,629,1410,1825,1844,1346,829
-414,902,1317,-244,-866,1110,629,1405,1800,1810,1337,824
-405,883,1288,-239,-846,1085,634,1395,1766,1771,1317,814
-370,873,1244,-251,-807,1058,610,1390,1732,1722,1293,800
-356,849,1205,-246,-780,1027,605,1376,1703,1693,1268,800
-341,824,1166,-241,-753,995,600,1356,1659,1664,1254,795
-317,805,1122,-244,-719,963,590,1332,1625,1615,1224,785
-312,751,1063,-219,-688,907,595,1298,1586,1566,1190,761
-292,717,1010,-212,-651,863,595,1273,1532,1512,1146,751
-268,692,961,-212,-614,827,595,1249,1488,1439,1117,736
-253,668,922,-207,-588,795,590,1210,1439,1381,1083,727
-229,658,888,-214,-558,773,566,1151,1371,1312,1034,692
-214,644,858,-214,-536,751,556,1102,1312,1254,990,663
-204,605,810,-200,-507,707,536,1058,1249,1185,936,649
-185,580,766,-197,-475,673,507,1019,1176,1122,888,634
-175,580,756,-202,-466,668,507,990,1127,1068,858,634
-170,561,732,-195,-451,646,507,941,1073,1019,824,614
-151,541,692,-195,-422,617,497,897,1029,966,780,595
-136,531,668,-197,-402,600,478,858,976,917,746,566
-141,497,639,-178,-390,568,468,819,917,849,697,541
-126,478,605,-175,-366,541,458,766,863,795,668,522
-117,453,570,-168,-344,512,444,717,810,751,629,497
-117,429,546,-156,-331,488,434,663,751,697,600,473
-102,405,507,-151,-305,456,434,629,712,653,570,453
-92,375,468,-141,-280,422,424,600,668,600,531,444
-78,351,429,-136,-253,390,419,561,619,546,492,429
-68,351,419,-141,-244,385,419,522,575,502,453,400
-53,341,395,-143,-224,368,429,492,541,468,434,380
-34,326,361,-146,-197,344,419,473,507,434,400,370
-34,297,331,-131,-183,314,405,434,468,400,361,351
-29,287,317,-129,-173,302,395,405,419,361,322,341
-4,268,273,-131,-139,270,390,366,385,331,302,326
4,248,244,-126,-119,246,385,336,341,297,283,312
9,229,219,-119,-104,224,370,302,307,268,253,292
14,204,190,-109,-87,197,366,278,268,239,234,283
9,195,185,-102,-87,190,375,253,229,224,209,278
9,180,170,-95,-80,175,370,224,209,200,190,258
9,180,170,-95,-80,175,361,195,190,180,165,239
9,180,170,-95,-80,175,361,161,170,156,141,219
14,175,161,-95,-73,168,361,151,156,151,141,229
19,165,146,-92,-63,156,351,136,136,136,131,219
29,165,136,-97,-53,151,317,122,102,122,112,200
29,165,136,-97,-53,151,302,107,87,107,97,185
39,170,131,-104,-46,151,302,78,68,87,92,175
53,156,102,-104,-24,129,297,63,58,82,82,170
53,156,102,-104,-24,129,302,43,39,68,63,161
48,156,107,-102,-29,131,297,19,19,53,43,141
39,156,117,-97,-39,136,302,9,14,39,48,136
39,146,107,-92,-34,126,307,0,4,29,39,136
34,136,102,-85,-34,119,312,-4,-4,24,29,141
34,136,102,-85,-34,119,302,-4,-4,24,29,146
34,151,117,-92,-41,134,312,-19,-4,39,34,156
34,156,122,-95,-43,139,317,-19,-4,39,34,156
34,146,112,-90,-39,129,326,-24,-4,43,34,156
34,151,117,-92,-41,134,341,-29,-4,48,39,156
43,151,107,-97,-31,129,326,-34,-19,34,39,156
48,156,107,-102,-29,131,312,-39,-19,29,9,141
58,156,97,-107,-19,126,307,-43,-19,29,9,141
63,146,82,-104,-9,114,307,-53,-19,29,9,136
73,146,73,-109,0,109,317,-43,-9,34,9,146
68,146,78,-107,-4,112,307,-48,-9,34,14,146
68,141,73,-104,-2,107,307,-48,0,34,24,146
68,141,73,-104,-2,107,312,-39,4,39,29,146
63,151,87,-107,-12,119,317,-48,9,48,39,146
53,151,97,-102,-21,124,317,-39,9,58,39,151
43,146,102,-95,-29,124,317,-29,19,58,39,151
39,136,97,-87,-29,117,317,-29,19,58,39,151
34,126,92,-80,-29,109,322,-14,29,73,48,170
34,87,53,-61,-9,70,331,0,48,78,53,175
29,63,34,-46,-2,48,336,4,58,92,58,180
24,82,58,-53,-17,70,331,9,68,82,58,180
39,117,78,-78,-19,97,331,9,68,68,53,165
43,131,87,-87,-21,109,331,9,73,68,53,161
43,156,112,-100,-34,134,317,14,68,73,48,161
48,175,126,-112,-39,151,317,24,68,73,48,161
43,185,141,-114,-48,163,317,19,73,63,48,156
34,165,131,-100,-48,148,317,24,78,68,48,161
19,165,146,-92,-63,156,317,29,82,68,43,161
14,170,156,-92,-70,163,307,34,92,68,34,161
29,180,151,-104,-61,165,297,29,97,73,19,151
34,195,161,-114,-63,178,302,34,102,68,14,151
29,204,175,-117,-73,190,317,43,97,68,9,151
34,214,180,-124,-73,197,302,48,87,63,4,151
43,209,165,-126,-61,187,302,53,97,78,9,156
43,209,165,-126,-61,187,307,58,102,78,14,156
43,209,165,-126,-61,187,312,73,112,82,29,161
43,209,165,-126,-61,187,317,87,131,92,34,180
34,200,165,-117,-65,183,326,92,141,87,34,175
29,185,156,-107,-63,170,326,92,141,87,14,175
24,175,151,-100,-63,163,326,92,146,82,14,165
19,180,161,-100,-70,170,341,92,146,73,19,165
34,180,146,-107,-56,163,341,102,146,82,24,170
34,170,136,-102,-51,153,346,107,151,87,29,180
29,170,141,-100,-56,156,346,122,151,92,34,190
24,170,146,-97,-61,158,341,126,151,92,39,195
29,161,131,-95,-51,146,351,126,156,97,29,195
39,141,102,-90,-31,122,351,136,175,102,34,200
48,131,82,-90,-17,107,351,136,180,102,34,200
53,102,48,-78,2,75,336,136,175,92,34,195
48,126,78,-87,-14,102,331,131,165,82,19,180
48,126,78,-87,-14,102,326,122,156,78,24,175
48,151,102,-100,-26,126,312,117,141,68,-4,161
48,190,141,-119,-46,165,307,112,131,63,-19,156
43,170,126,-107,-41,148,317,131,136,78,-9,165
43,161,117,-102,-36,139,322,136,141,82,9,170
48,146,97,-97,-24,122,322,131,146,78,4,170
48,122,73,-85,-12,97,326,136,141,68,0,170
48,131,82,-90,-17,107,326,122,136,63,9,165
48,131,82,-90,-17,107,331,122,136,63,14,170
53,136,82,-95,-14,109,331,126,136,58,-4,165
53,141,87,-97,-17,114,336,126,131,53,-19,151
48,146,97,-97,-24,122,346,117,122,43,0,141
48,146,97,-97,-24,122,341,117,122,39,-4,146
43,146,102,-95,-29,124,341,117,117,34,-19,146
34,131,97,-82,-31,114,341,112,117,19,-29,136
48,112,63,-80,-7,87,341,112,117,19,-24,131
63,122,58,-92,2,90,326,112,117,24,-19,131
68,131,63,-100,2,97,326,112,107,24,-29,131
73,131,58,-102,7,95,336,117,97,29,-34,131
82,141,58,-112,12,100,346,92,87,4,-39,97
48,117,68,-82,-9,92,366,97,87,4,-39,117
58,107,48,-82,4,78,370,97,107,9,-48,136
58,97,39,-78,9,68,370,107,97,0,-39,126
58,97,39,-78,9,68,370,107,97,0,-39,126
58,97,39,-78,9,68,370,107,97,0,-39,126
58,97,39,-78,9,68,370,107,97,0,-39,126
58,92,34,-75,12,63,361,97,82,-9,-39,117
68,92,24,-80,21,58,341,97,82,-14,-43,107
68,87,19,-78,24,53,322,87,78,-14,-58,92
68,82,14,-75,26,48,312,78,73,-14,-58,82
68,73,4,-70,31,39,341,87,82,-14,-48,82
68,82,14,-75,26,48,351,87,82,-24,-48,73
68,82,14,-75,26,48,351,87,73,-29,-53,73
68,78,9,-73,29,43,361,87,73,-34,-53,73
68,58,-9,-63,39,24,351,82,58,-39,-68,63
73,68,-4,-70,39,31,351,78,53,-39,-73,58
87,78,-9,-82,48,34,361,78,53,-39,-78,53
92,78,-14,-85,53,31,361,78,53,-29,-78,48
87,78,-9,-82,48,34,356,63,48,-43,-73,48
92,82,-9,-87,51,36,356,58,48,-48,-78,53
102,78,-24,-90,63,26,356,58,48,-53,-78,53
107,73,-34,-90,70,19,356,63,48,-63,-73,53
97,53,-43,-75,70,4,366,73,58,-48,-82,43
87,43,-43,-65,65,0,361,73,58,-43,-82,48
87,48,-39,-68,63,4,380,68,58,-48,-87,48
58,39,-19,-48,39,9,385,58,48,-53,-87,48
48,43,-4,-46,26,19,395,68,48,-63,-87,39
68,53,-14,-61,41,19,385,63,43,-63,-87,39
78,58,-19,-68,48,19,385,58,43,-68,-87,34
58,48,-9,-53,34,19,390,53,43,-68,-87,34
68,48,-19,-58,43,14,370,53,34,-58,-87,24
78,48,-29,-63,53,9,361,53,34,-63,-97,19
82,48,-34,-65,58,7,351,48,34,-63,-97,19
92,53,-39,-73,65,7,341,48,34,-63,-92,19
87,58,-29,-73,58,14,341,53,34,-63,-92,29
73,58,-14,-65,43,21,361,53,34,-63,-92,24
58,53,-4,-56,31,24,370,53,34,-58,-92,24
43,48,4,-46,19,26,380,53,39,-58,-92,29
53,14,-39,-34,46,-12,385,58,39,-53,-82,34
48,9,-39,-29,43,-14,385,58,39,-53,-82,39
68,4,-63,-36,65,-29,385,48,29,-53,-82,39
82,24,-58,-53,70,-17,385,43,24,-53,-87,39
73,34,-39,-53,56,-2,370,39,19,-58,-102,14
73,29,-43,-51,58,-7,366,34,14,-73,-102,19
73,24,-48,-48,61,-12,361,34,14,-78,-97,24
73,43,-29,-58,51,7,356,29,9,-82,-97,19
73,53,-19,-63,46,17,361,34,14,-82,-92,14
68,39,-29,-53,48,4,361,39,14,-82,-102,14
53,29,-24,-41,39,2,361,43,19,-82,-87,14
48,24,-24,-36,36,0,361,48,19,-82,-87,14
58,4,-53,-31,56,-24,312,34,19,-82,-97,34
58,14,-43,-36,51,-14,322,39,9,-73,-92,43
68,34,-34,-51,51,0,361,29,4,-82,-107,9
68,39,-29,-53,48,4,370,29,4,-97,-122,-24
2030,1986,-43,-2008,1037,971,746,356,253,43,43,239
-170,-444,-273,307,51,-358,844,24,-702,-1839,-1537,-878
-278,-732,-453,505,87,-592,1141,34,-1063,-2928,-2386,-1420
146,224,78,-185,34,151,185,4,283,468,390,385
380,819,439,-600,-29,629,-414,-19,1029,2674,2152,1483
102,244,141,-173,-19,192,170,-29,170,575,448,346
-19,53,73,-17,-46,63,380,-58,-146,-322,-268,-97
82,307,224,-195,-70,265,146,-87,126,458,385,351
53,244,190,-148,-68,217,214,-117,-9,204,200,253
-9,141,151,-65,-80,146,331,-122,-180,-234,-131,43
9,204,195,-107,-92,200,287,-122,-87,-39,34,151
24,200,175,-112,-75,187,307,-102,-53,4,53,151
14,131,117,-73,-51,124,346,-73,-53,-112,-73,68
14,82,68,-48,-26,75,346,-29,39,-58,-73,68
24,39,14,-31,4,26,331,29,156,19,-53,68
34,-19,-53,-7,43,-36,336,97,244,34,-48,58
58,-34,-92,-12,75,-63,331,161,366,82,-29,73
73,-58,-131,-7,102,-95,326,224,463,112,-19,82
73,-112,-185,19,129,-148,336,248,492,102,-19,87
102,-146,-248,21,175,-197,336,273,488,78,-14,97
161,-170,-331,4,246,-251,336,307,531,48,14,112
195,-224,-419,14,307,-322,346,336,551,-24,0,102
200,-278,-478,39,339,-378,356,366,566,-165,-68,53
195,-326,-522,65,358,-424,346,400,561,-263,-122,9
200,-400,-600,100,400,-500,356,453,570,-273,-122,9
239,-541,-780,151,509,-661,385,541,590,-283,-107,43
263,-658,-922,197,592,-790,414,639,585,-380,-141,24
253,-663,-917,204,585,-790,424,722,561,-566,-263,-34
273,-678,-951,202,612,-814,429,795,546,-785,-390,-73
322,-683,-1005,180,663,-844,400,888,497,-1029,-522,-112
370,-668,-1039,148,705,-854,351,1010,448,-1302,-658,-146
424,-751,-1176,163,800,-963,341,1141,409,-1527,-736,-136
463,-897,-1361,217,912,-1129,341,1268,346,-1742,-780,-102
522,-971,-1493,224,1007,-1232,322,1405,302,-1966,-844,-82
600,-1039,-1639,219,1119,-1339,317,1488,253,-2161,-927,-82
668,-1176,-1844,253,1256,-1510,317,1483,117,-2425,-1058,-112
697,-1259,-1956,280,1327,-1607,326,1473,-68,-2786,-1190,-122
712,-1307,-2020,297,1366,-1664,326,1454,-331,-3118,-1337,-136
717,-1410,-2127,346,1422,-1769,326,1346,-658,-3381,-1512,-190
766,-1556,-2322,395,1544,-1939,297,1171,-1034,-3591,-1620,-248
829,-1644,-2474,407,1651,-2059,268,932,-1468,-3752,-1668,-307
873,-1698,-2571,412,1722,-2135,258,736,-1883,-3869,-1708,-366
917,-1781,-2698,431,1808,-2239,268,610,-2288,-3972,-1727,-434
985,-1898,-2884,456,1934,-2391,253,366,-2752,-4108,-1805,-517
1054,-2010,-3064,478,2059,-2537,214,-34,-3206,-4265,-1922,-644
1088,-2098,-3186,505,2137,-2642,190,-444,-3596,-4338,-1976,-736
1107,-2161,-3269,527,2188,-2715,180,-795,-3933,-4352,-1942,-775
1107,-2152,-3259,522,2183,-2705,180,-1161,-4206,-4333,-1908,-805
1088,-2074,-3162,492,2125,-2618,180,-1561,-4362,-4260,-1854,-810
1054,-2010,-3064,478,2059,-2537,161,-1981,-4494,-4167,-1761,-795
1049,-1942,-2991,446,2020,-2466,92,-2430,-4655,-4065,-1722,-766
1029,-1849,-2879,409,1954,-2364,39,-2864,-4733,-3918,-1722,-771
990,-1761,-2752,385,1871,-2257,-4,-3259,-4704,-3718,-1639,-761
961,-1693,-2654,366,1808,-2174,-78,-3518,-4631,-3489,-1517,-707
946,-1629,-2576,341,1761,-2103,-151,-3596,-4465,-3269,-1473,-668
946,-1556,-2503,305,1725,-2030,-229,-3625,-4294,-3132,-1512,-688
951,-1512,-2464,280,1708,-1988,-312,-3762,-4255,-3147,-1634,-736
927,-1542,-2469,307,1698,-2005,-390,-3884,-4245,-3157,-1737,-810
888,-1512,-2400,312,1644,-1956,-400,-3874,-4138,-3079,-1756,-863
858,-1361,-2220,251,1539,-1790,-390,-3747,-3962,-2932,-1678,-829
854,-1220,-2074,183,1464,-1647,-400,-3552,-3713,-2732,-1542,-707
849,-1102,-1952,126,1400,-1527,-414,-3323,-3420,-2469,-1376,-585
824,-1005,-1830,90,1327,-1417,-390,-3093,-3118,-2186,-1210,-478
810,-897,-1708,43,1259,-1302,-351,-2869,-2849,-1952,-1083,-380
829,-795,-1625,-17,1227,-1210,-356,-2630,-2581,-1800,-1019,-317
829,-688,-1517,-70,1173,-1102,-341,-2415,-2352,-1688,-976,-307
814,-605,-1420,-104,1117,-1012,-326,-2259,-2181,-1571,-976,-317
810,-580,-1390,-114,1100,-985,-331,-2142,-2059,-1527,-1000,-341
829,-580,-1410,-124,1119,-995,-326,-2034,-1966,-1517,-1029,-409
819,-595,-1415,-112,1117,-1005,-278,-1898,-1864,-1478,-1093,-483
790,-610,-1400,-90,1095,-1005,-224,-1747,-1737,-1424,-1166,-561
761,-629,-1390,-65,1076,-1010,-204,-1625,-1629,-1400,-1220,-639
717,-634,-1351,-41,1034,-993,-204,-1537,-1546,-1376,-1229,-649
697,-614,-1312,-41,1005,-963,-175,-1464,-1468,-1332,-1224,-629
707,-600,-1307,-53,1007,-954,-175,-1415,-1405,-1312,-1244,-697
697,-580,-1278,-58,988,-929,-185,-1371,-1361,-1312,-1298,-775
658,-566,-1224,-46,941,-895,-185,-1288,-1288,-1263,-1239,-736
649,-531,-1180,-58,915,-856,-165,-1234,-1244,-1229,-1205,-707
653,-492,-1146,-80,900,-819,-170,-1220,-1249,-1224,-1249,-736
639,-448,-1088,-95,863,-768,-170,-1185,-1220,-1210,-1268,-717
585,-409,-995,-87,790,-702,-151,-1132,-1161,-1166,-1224,-702
522,-444,-966,-39,744,-705,-131,-1054,-1073,-1112,-1205,-722
463,-468,-932,2,697,-700,-97,-971,-976,-1039,-1156,-732
424,-424,-849,0,636,-636,-48,-878,-878,-946,-1093,-717
385,-385,-771,0,578,-578,-9,-785,-785,-868,-1029,-712
356,-351,-707,-2,531,-529,24,-697,-688,-756,-932,-649
322,-283,-605,-19,463,-444,73,-575,-556,-585,-790,-522
273,-209,-483,-31,378,-346,136,-434,-409,-409,-653,-424
244,-165,-409,-39,326,-287,200,-336,-297,-287,-536,-366
195,-131,-326,-31,261,-229,239,-278,-219,-209,-429,-312
112,-92,-204,-9,158,-148,273,-214,-122,-122,-356,-239
48,-29,-78,-9,63,-53,292,-161,-39,-58,-292,-175
19,43,24,-31,-2,34,287,-126,4,-14,-244,-141
-24,78,102,-26,-63,90,278,-97,34,19,-185,-117
-63,87,151,-12,-107,119,302,-53,63,82,-141,-97
-82,87,170,-2,-126,129,346,-19,82,141,-117,-68
-112,82,195,14,-153,139,370,-9,102,165,-92,-29
-141,68,209,36,-175,139,380,-4,117,161,-68,-19
-151,97,248,26,-200,173,375,0,136,175,-48,0
-141,126,268,7,-204,197,385,0,151,180,-39,0
-141,146,287,-2,-214,217,390,0,161,190,-29,4
-146,165,312,-9,-229,239,390,4,170,200,-24,9
-156,161,317,-2,-236,239,380,24,151,204,-24,9
-161,151,312,4,-236,231,380,29,141,214,-14,9
-170,141,312,14,-241,226,380,34,131,229,-4,24
-170,141,312,14,-241,226,370,34,122,229,4,39
-165,141,307,12,-236,224,375,24,151,258,9,53
-175,146,322,14,-248,234,385,24,165,268,14,58
-180,146,326,17,-253,236,390,24,180,278,19,58
-165,146,312,9,-239,229,395,19,200,287,43,58
-156,165,322,-4,-239,244,400,14,190,283,58,58
-156,185,341,-14,-248,263,400,14,185,283,48,48
-161,195,356,-17,-258,275,400,9,185,292,48,48
-161,204,366,-21,-263,285,400,4,185,302,58,63
-156,224,380,-34,-268,302,380,4,180,302,53,63
-156,234,390,-39,-273,312,370,4,180,302,58,58
-165,248,414,-41,-290,331,351,4,185,317,63,58
-165,268,434,-51,-300,351,341,-4,185,317,58,53
-170,287,458,-58,-314,373,366,-4,195,331,68,58
-175,283,458,-53,-317,370,375,-4,195,341,78,63
-175,278,453,-51,-314,366,380,-4,195,351,82,73
-180,273,453,-46,-317,363,390,-4,195,356,87,78
-200,263,463,-31,-331,363,385,-4,200,375,97,87
-204,263,468,-29,-336,366,390,0,200,390,112,102
-204,283,488,-39,-346,385,390,0,200,390,117,102
-209,307,517,-48,-363,412,380,-9,209,395,126,102
-224,302,527,-39,-375,414,380,0,209,400,136,112
-224,297,522,-36,-373,409,385,0,209,414,141,117
-229,292,522,-31,-375,407,390,0,214,434,156,122
-234,307,541,-36,-387,424,390,0,214,439,161,122
-239,307,546,-34,-392,427,390,0,209,439,161,102
-248,307,556,-29,-402,431,395,0,214,448,161,117
-253,322,575,-34,-414,448,395,0,219,453,170,131
-253,346,600,-46,-427,473,395,0,219,458,175,141
-258,366,624,-53,-441,495,395,4,234,492,195,161
-263,366,629,-51,-446,497,395,4,244,512,214,170
-268,375,644,-53,-456,509,395,4,248,522,219,170
-268,390,658,-61,-463,524,395,0,258,541,219,175
-268,385,653,-58,-461,519,409,9,263,556,224,165
-283,400,683,-58,-483,541,419,19,278,570,248,175
-283,409,692,-63,-488,551,429,24,287,580,268,195
-283,434,717,-75,-500,575,434,24,297,585,273,195
-292,439,732,-73,-512,585,434,34,317,614,278,200
-302,453,756,-75,-529,605,448,39,331,634,297,219
-312,453,766,-70,-539,610,463,43,341,658,312,234
-322,463,785,-70,-553,624,444,43,346,668,322,239
-331,483,814,-75,-573,649,434,53,351,688,331,239
-331,502,834,-85,-583,668,444,68,370,712,351,258
-341,502,844,-80,-592,673,448,78,400,732,370,273
-351,517,868,-82,-610,692,453,78,409,756,380,283
-361,536,897,-87,-629,717,444,92,414,780,380,278
-366,561,927,-97,-646,744,444,102,434,795,414,283
-370,614,985,-122,-678,800,439,107,448,810,424,283
-375,644,1019,-134,-697,832,439,107,478,834,439,287
-380,639,1019,-129,-700,829,453,136,497,863,453,287
-400,658,1058,-129,-729,858,458,151,522,888,473,297
-409,678,1088,-134,-749,883,468,151,546,902,488,312
-424,688,1112,-131,-768,900,473,175,570,927,497,322
-419,717,1137,-148,-778,927,473,209,610,961,507,317
-419,746,1166,-163,-793,956,483,234,644,1000,536,326
-419,756,1176,-168,-797,966,492,268,688,1034,561,346
-429,766,1195,-168,-812,980,497,292,722,1068,580,346
-448,785,1234,-168,-841,1010,512,317,751,1112,605,356
-458,780,1239,-161,-849,1010,517,346,800,1141,624,380
-478,775,1254,-148,-866,1015,531,380,849,1171,653,405
-488,771,1259,-141,-873,1015,556,419,888,1215,683,424
-517,795,1312,-139,-915,1054,541,453,917,1239,697,434
-527,814,1342,-143,-934,1078,536,478,946,1268,717,439
-531,829,1361,-148,-946,1095,541,507,985,1293,727,439
-546,844,1390,-148,-968,1117,541,541,1024,1332,741,453
-536,878,1415,-170,-976,1146,551,580,1073,1381,785,468
-531,893,1424,-180,-978,1159,561,624,1112,1415,805,473
-536,897,1434,-180,-985,1166,570,673,1161,1459,839,497
-551,907,1459,-178,-1005,1183,585,702,1205,1498,863,512
-561,922,1483,-180,-1022,1202,605,736,1239,1522,883,522
-570,932,1503,-180,-1037,1217,610,780,1288,1556,907,541
-585,932,1517,-173,-1051,1224,624,824,1337,1586,941,556
-595,932,1527,-168,-1061,1229,634,863,1376,1620,971,566
-585,951,1537,-183,-1061,1244,619,888,1434,1644,995,575
-590,966,1556,-187,-1073,1261,619,927,1473,1673,1010,590
-595,976,1571,-190,-1083,1273,624,966,1512,1708,1029,595
-605,980,1586,-187,-1095,1283,624,1005,1551,1751,1054,600
-614,976,1590,-180,-1102,1283,639,1049,1576,1781,1078,600
-614,971,1586,-178,-1100,1278,644,1093,1615,1800,1098,610
-614,976,1590,-180,-1102,1283,649,1112,1654,1815,1117,614
-614,971,1586,-178,-1100,1278,658,1146,1688,1844,1141,619
-629,961,1590,-165,-1110,1276,673,1190,1722,1864,1156,619
-629,941,1571,-156,-1100,1256,683,1234,1761,1893,1176,634
-624,936,1561,-156,-1093,1249,688,1263,1786,1908,1195,639
-614,932,1546,-158,-1080,1239,692,1293,1805,1912,1195,634
-610,922,1532,-156,-1071,1227,692,1312,1820,1927,1215,639
-610,897,1507,-143,-1058,1202,702,1351,1839,1937,1229,653
-605,868,1473,-131,-1039,1171,702,1376,1849,1947,1239,653
-600,844,1444,-122,-1022,1144,707,1381,1859,1932,1239,653
-595,834,1429,-119,-1012,1132,702,1405,1864,1932,1249,663
-580,824,1405,-122,-993,1115,702,1424,1864,1927,1259,668
-561,814,1376,-126,-968,1095,697,1429,1864,1903,1263,668
-556,795,1351,-119,-954,1073,688,1444,1854,1883,1259,668
-556,761,1317,-102,-936,1039,688,1449,1830,1869,1249,668
-541,732,1273,-95,-907,1002,688,1449,1815,1844,1249,663
-531,702,1234,-85,-883,968,683,1449,1795,1815,1244,658
-522,688,1210,-82,-866,949,683,1444,1766,1781,1229,649
-512,663,1176,-75,-844,919,678,1420,1751,1747,1224,644
-512,634,1146,-61,-829,890,673,1405,1722,1722,1210,644
-512,605,1117,-46,-814,861,668,1385,1678,1698,1205,639
-502,580,1083,-39,-793,832,658,1361,1644,1654,1185,629
-488,561,1049,-36,-768,805,644,1322,1595,1600,1156,610
-468,551,1019,-41,-744,785,634,1293,1542,1551,1117,595
-444,551,995,-53,-719,773,624,1263,1498,1483,1093,575
-429,551,980,-61,-705,766,610,1220,1449,1429,1063,561
-419,517,936,-48,-678,727,610,1185,1390,1385,1034,556
-409,488,897,-39,-653,692,614,1141,1342,1342,1010,536
-405,434,839,-14,-622,636,610,1102,1288,1288,976,531
-390,395,785,-2,-588,590,595,1068,1224,1239,946,527
-370,385,756,-7,-563,570,570,1029,1161,1171,902,512
-366,366,732,0,-549,549,566,971,1102,1117,863,488
-346,346,692,0,-519,519,551,917,1054,1058,814,463
-331,336,668,-2,-500,502,527,868,995,1005,775,429
-312,326,639,-7,-475,483,502,829,941,956,751,419
-283,312,595,-14,-439,453,488,785,893,902,727,405
-258,292,551,-17,-405,422,468,746,844,858,692,385
-244,273,517,-14,-380,395,453,702,790,805,668,366
-239,234,473,2,-356,353,463,653,746,771,629,351
-229,190,419,19,-324,305,463,619,697,717,590,346
-214,151,366,31,-290,258,468,575,644,663,551,336
-204,136,341,34,-273,239,478,531,595,619,512,312
-200,146,346,26,-273,246,463,488,561,590,488,287
-180,141,322,19,-251,231,448,463,527,551,458,273
-180,122,302,29,-241,212,429,419,488,512,424,248
-175,122,297,26,-236,209,414,385,439,468,390,234
-161,102,263,29,-212,183,414,346,409,424,361,224
-151,82,234,34,-192,158,414,317,370,385,331,204
-146,63,209,41,-178,136,405,283,341,351,292,180
-141,39,180,51,-161,109,405,258,307,317,263,165
-131,19,151,56,-141,85,400,234,268,292,239,146
-126,4,131,61,-129,68,390,204,248,268,219,122
-122,4,126,58,-124,65,375,175,229,248,195,97
-117,4,122,56,-119,63,370,141,209,224,170,73
-112,0,112,56,-112,56,375,122,195,209,151,73
-107,-9,97,58,-102,43,370,107,175,185,131,63
-97,-9,87,53,-92,39,341,92,141,161,102,43
-97,-9,87,53,-92,39,331,78,126,136,78,29
-102,-29,73,65,-87,21,356,63,131,136,78,24
-92,-48,43,70,-68,-2,356,53,126,131,73,14
-97,-53,43,75,-70,-4,366,39,112,117,58,0
-107,-58,48,82,-78,-4,366,19,97,102,43,-24
-97,-53,43,75,-70,-4,351,19,92,97,29,-39
-87,-58,29,73,-58,-14,336,9,82,87,19,-48
-82,-63,19,73,-51,-21,322,4,73,82,9,-53
-73,-58,14,65,-43,-21,292,4,73,82,9,-58
-82,-82,0,82,-41,-41,302,4,78,87,19,-58
-82,-97,-14,90,-34,-56,317,9,82,87,24,-58
-82,-126,-43,104,-19,-85,336,9,87,92,29,-58
-82,-141,-58,112,-12,-100,361,9,92,97,39,-58
-82,-117,-34,100,-24,-75,356,9,78,82,34,-63
-87,-107,-19,97,-34,-63,341,9,78,78,0,-82
-87,-102,-14,95,-36,-58,336,9,78,78,-4,-87
-92,-107,-14,100,-39,-61,336,4,78,78,-9,-97
-92,-87,4,90,-48,-41,331,4,68,68,-24,-112
-97,-78,19,87,-58,-29,317,0,68,63,-24,-117
-97,-73,24,85,-61,-24,312,0,78,58,-19,-122
-97,-63,34,80,-65,-14,312,9,82,58,-19,-126
-97,-63,34,80,-65,-14,326,9,87,58,-29,-136
-102,-63,39,82,-70,-12,326,19,87,68,-29,-131
-107,-68,39,87,-73,-14,326,29,97,68,-29,-131
-107,-78,29,92,-68,-24,326,29,97,68,-29,-131
-107,-53,53,80,-80,0,341,39,97,68,-24,-131
-102,-78,24,90,-63,-26,351,48,107,68,-24,-136
-102,-87,14,95,-58,-36,356,48,107,78,-24,-141
-102,-53,48,78,-75,-2,351,48,107,63,-29,-151
-102,-58,43,80,-73,-7,346,53,122,68,-29,-151
-102,-63,39,82,-70,-12,341,58,131,68,-24,-151
-107,-58,48,82,-78,-4,322,68,131,73,-24,-146
-107,-58,48,82,-78,-4,317,82,136,73,-19,-141
-117,-63,53,90,-85,-4,317,78,131,73,-24,-146
-122,-87,34,104,-78,-26,326,82,136,78,-19,-141
-131,-92,39,112,-85,-26,336,87,141,78,-19,-141
-131,-92,39,112,-85,-26,336,92,151,78,-24,-141
-112,-82,29,97,-70,-26,341,97,151,82,-14,-151
-112,-78,34,95,-73,-21,351,102,161,78,-14,-151
-122,-78,43,100,-82,-17,370,112,161,78,-14,-151
-122,-78,43,100,-82,-17,361,117,156,73,-14,-151
-122,-87,34,104,-78,-26,351,117,156,78,-24,-141
-122,-92,29,107,-75,-31,356,117,161,78,-24,-146
-122,-97,24,109,-73,-36,361,126,170,82,-14,-146
-122,-102,19,112,-70,-41,366,136,190,92,-14,-131
-131,-117,14,124,-73,-51,366,136,180,87,-14,-131
-136,-136,0,136,-68,-68,366,131,170,87,-34,-136
-141,-151,-9,146,-65,-80,366,126,165,82,-34,-151
-146,-151,-4,148,-70,-78,380,122,156,73,-29,-156
-141,-136,4,139,-73,-65,380,117,161,78,-19,-161
-141,-131,9,136,-75,-61,375,117,170,87,-19,-161
-146,-117,29,131,-87,-43,366,126,175,97,-19,-161
-151,-102,48,126,-100,-26,351,126,180,102,-19,-165
-141,-92,48,117,-95,-21,356,126,180,102,-19,-165
-136,-92,43,114,-90,-24,361,136,195,102,-14,-161
-131,-82,48,107,-90,-17,366,136,195,97,-14,-161
-131,-92,39,112,-85,-26,356,136,185,82,-14,-165
-136,-82,53,109,-95,-14,366,136,185,87,-19,-165
-136,-97,39,117,-87,-29,366,131,185,87,-4,-165
-136,-87,48,112,-92,-19,356,131,180,82,-24,-175
-136,-63,73,100,-104,4,356,131,180,82,-29,-175
-136,-78,58,107,-97,-9,351,136,170,73,-24,-161
-141,-82,58,112,-100,-12,351,136,170,73,-9,-161
-141,-92,48,117,-95,-21,346,126,170,63,-19,-165
-146,-112,34,129,-90,-39,346,126,161,48,-29,-170
-126,-102,24,114,-75,-39,346,122,165,53,-24,-170
-117,-102,14,109,-65,-43,351,122,165,63,-14,-161
-102,-97,4,100,-53,-46,351,126,165,68,-29,-161
-92,-92,0,92,-46,-46,356,126,161,73,-39,-170
-97,-112,-14,104,-41,-63,366,141,175,87,-4,-165
-97,-136,-39,117,-29,-87,370,146,180,87,4,-156
-102,-161,-58,131,-21,-109,380,151,180,87,4,-151
-112,-200,-87,156,-12,-143,390,151,185,78,9,-156
-117,-185,-68,151,-24,-126,380,136,161,58,0,-170
-112,-161,-48,136,-31,-104,356,122,146,53,-9,-180
-117,-136,-19,126,-48,-78,346,107,122,43,-34,-190
-122,-122,0,122,-61,-61,346,97,97,39,-53,-200
-126,-151,-24,139,-51,-87,351,92,107,24,-48,-204
-126,-156,-29,141,-48,-92,356,87,107,24,-48,-204
-131,-156,-24,143,-53,-90,356,87,107,19,-48,-204
-126,-156,-29,141,-48,-92,361,82,107,14,-48,-204
-136,-97,39,117,-87,-29,331,68,92,14,-68,-234
-126,-97,29,112,-78,-34,302,68,97,9,-68,-244
-107,-131,-24,119,-41,-78,307,68,117,19,-58,-224
-97,-117,-19,107,-39,-68,336,68,117,19,-63,-214
-87,-97,-9,92,-39,-53,341,68,107,0,-58,-214
-97,-102,-4,100,-46,-53,341,58,92,-4,-68,-219
-97,-107,-9,102,-43,-58,341,58,87,-9,-68,-224
-97,-112,-14,104,-41,-63,341,58,82,-14,-68,-229
-97,-117,-19,107,-39,-68,341,58,78,-19,-68,-234
-102,-131,-29,117,-36,-80,356,58,82,-14,-63,-234
-97,-141,-43,119,-26,-92,351,58,82,-14,-63,-234
-102,-156,-53,129,-24,-104,346,48,78,-9,-73,-239
-107,-170,-63,139,-21,-117,351,39,73,-4,-68,-239
-107,-180,-73,143,-17,-126,356,48,73,-4,-58,-229
-107,-170,-63,139,-21,-117,351,48,73,-14,-58,-239
-107,-170,-63,139,-21,-117,336,48,63,-19,-63,-239
-107,-175,-68,141,-19,-122,331,48,63,-24,-63,-239
-102,-195,-92,148,-4,-143,322,39,53,-43,-73,-253
-102,-185,-82,143,-9,-134,322,29,43,-48,-82,-263
-92,-175,-82,134,-4,-129,331,24,39,-53,-92,-273
-92,-175,-82,134,-4,-129,331,19,34,-48,-97,-283
-112,-180,-68,146,-21,-124,336,24,39,-48,-92,-278
-112,-180,-68,146,-21,-124,336,19,39,-48,-97,-268
-107,-190,-82,148,-12,-136,336,19,39,-48,-97,-263
-107,-200,-92,153,-7,-146,336,24,39,-53,-92,-258
-112,-200,-87,156,-12,-143,336,29,48,-43,-92,-263
-107,-200,-92,153,-7,-146,331,34,48,-43,-92,-263
-92,-185,-92,139,0,-139,351,34,48,-53,-97,-268
-107,-185,-78,146,-14,-131,356,29,39,-63,-97,-273
-112,-175,-63,143,-24,-119,351,29,29,-63,-107,-278
-87,-170,-82,129,-2,-126,336,24,24,-63,-107,-283
-73,-170,-97,122,12,-134,331,19,24,-68,-107,-292
-87,-185,-97,136,4,-141,331,14,24,-68,-107,-297
-87,-195,-107,141,9,-151,341,24,34,-68,-97,-287
-87,-195,-107,141,9,-151,341,24,34,-73,-107,-292
-92,-195,-102,143,4,-148,341,19,34,-73,-107,-292
-92,-190,-97,141,2,-143,341,19,34,-73,-102,-292
-78,-180,-102,129,12,-141,341,24,24,-68,-87,-278
-82,-185,-102,134,9,-143,351,24,24,-63,-82,-278
-87,-195,-107,141,9,-151,351,24,24,-53,-78,-273
-92,-204,-112,148,9,-158,351,24,29,-48,-73,-263
-107,-224,-117,165,4,-170,336,24,24,-68,-87,-268
-117,-224,-107,170,-4,-165,317,19,19,-73,-92,-273
-102,-224,-122,163,9,-173,297,4,4,-78,-97,-283
-92,-200,-107,146,7,-153,278,-4,-4,-82,-107,-292
-97,-200,-102,148,2,-151,263,4,0,-78,-112,-312
-102,-214,-112,158,4,-163,258,4,4,-82,-112,-302
-107,-229,-122,168,7,-175,253,9,14,-78,-107,-292
-112,-219,-107,165,-2,-163,248,9,19,-73,-107,-292
-97,-204,-107,151,4,-156,248,14,29,-63,-107,-287
-87,-214,-126,151,19,-170,253,19,24,-63,-112,-278
-87,-219,-131,153,21,-175,258,24,24,-63,-92,-268
-78,-219,-141,148,31,-180,263,29,19,-63,-87,-258
-48,-209,-161,129,56,-185,234,-4,-9,-82,-136,-297
-78,-209,-131,143,26,-170,214,-9,-19,-92,-151,-317
-87,-180,-92,134,2,-136,214,0,-4,-73,-107,-283
-107,-185,-78,146,-14,-131,234,19,4,-58,-102,-268
854,732,-122,-793,488,305,-370,-673,-766,-985,-985,-1083
-356,-756,-400,556,21,-578,766,-24,-761,-1995,-1664,-1298
556,14,-541,-285,549,-263,1976,976,-34,-1820,-1317,-673
19,78,58,-48,-19,68,-58,-24,400,819,624,268
234,624,390,-429,-78,507,-570,-29,1029,2693,2142,1180
-53,-9,43,31,-48,17,43,-48,122,458,351,-4
-136,-161,-24,148,-56,-92,204,-97,-146,-263,-209,-341
-43,102,146,-29,-95,124,-29,-136,126,488,414,58
-112,19,131,46,-122,75,58,-146,-29,146,151,-87
-156,-73,82,114,-119,4,165,-161,-170,-234,-141,-248
-136,-19,117,78,-126,48,131,-161,-87,-9,34,-131
-151,-43,107,97,-129,31,122,-151,-82,-4,24,-151
-151,-92,58,122,-104,-17,131,-112,-73,-112,-82,-224
-122,-112,9,117,-65,-51,122,-68,39,-39,-43,-224
-112,-175,-63,143,-24,-119,136,-9,146,29,-34,-234
-82,-244,-161,163,39,-202,151,58,244,34,-87,-263
-39,-248,-209,143,85,-229,146,112,366,82,-78,-258
-34,-292,-258,163,112,-275,161,165,453,112,-58,-258
-34,-326,-292,180,129,-309,180,190,473,92,-48,-244
-4,-341,-336,173,165,-339,170,214,468,48,-34,-234
34,-385,-419,175,226,-402,141,229,483,9,-24,-219
39,-448,-488,204,263,-468,102,268,512,-73,-29,-219
43,-463,-507,209,275,-485,102,336,546,-185,-68,-248
48,-492,-541,222,295,-517,122,400,551,-263,-112,-273
73,-605,-678,265,375,-641,131,444,541,-302,-131,-292
112,-717,-829,302,470,-773,131,492,512,-380,-175,-336
107,-775,-883,334,495,-829,131,561,478,-536,-268,-385
87,-810,-897,361,492,-854,141,634,453,-741,-400,-434
107,-824,-932,358,519,-878,146,727,458,-941,-536,-473
195,-849,-1044,326,619,-946,146,868,448,-1166,-649,-492
273,-922,-1195,324,734,-1058,146,1029,439,-1410,-717,-478
297,-1054,-1351,378,824,-1202,146,1171,390,-1634,-775,-458
326,-1171,-1498,422,912,-1334,146,1317,317,-1859,-839,-424
405,-1254,-1659,424,1032,-1456,126,1454,273,-2083,-912,-395
473,-1312,-1786,419,1129,-1549,92,1478,175,-2298,-1024,-424
522,-1381,-1903,429,1212,-1642,82,1424,0,-2562,-1176,-473
561,-1464,-2025,451,1293,-1744,92,1405,-195,-2893,-1307,-483
595,-1532,-2127,468,1361,-1830,82,1366,-458,-3215,-1464,-507
629,-1625,-2254,497,1442,-1939,63,1259,-795,-3440,-1629,-561
668,-1751,-2420,541,1544,-2086,63,1102,-1161,-3630,-1727,-610
722,-1869,-2591,573,1656,-2230,53,902,-1556,-3801,-1776,-668
775,-1922,-2698,573,1737,-2310,34,707,-1971,-3947,-1825,-746
829,-1976,-2806,573,1817,-2391,24,531,-2386,-4050,-1883,-844
868,-2113,-2981,622,1925,-2547,19,248,-2840,-4196,-1981,-956
917,-2283,-3201,683,2059,-2742,-9,-170,-3274,-4343,-2078,-1063
932,-2361,-3294,714,2113,-2827,-43,-580,-3655,-4396,-2103,-1127
961,-2386,-3347,712,2154,-2867,-82,-951,-3991,-4372,-2039,-1146
971,-2366,-3337,697,2154,-2852,-112,-1327,-4265,-4362,-1995,-1176
951,-2269,-3220,658,2086,-2745,-131,-1708,-4421,-4318,-1961,-1190
936,-2186,-3123,624,2030,-2654,-141,-2069,-4523,-4216,-1908,-1146
941,-2166,-3108,612,2025,-2637,-161,-2469,-4636,-4094,-1859,-1127
922,-2113,-3035,595,1978,-2574,-185,-2874,-4694,-3967,-1839,-1132
863,-2034,-2898,585,1881,-2466,-229,-3259,-4665,-3767,-1766,-1093
805,-1927,-2732,561,1769,-2330,-322,-3518,-4582,-3547,-1654,-1049
800,-1825,-2625,512,1712,-2225,-405,-3596,-4435,-3318,-1581,-1029
800,-1771,-2571,485,1686,-2171,-492,-3645,-4294,-3191,-1620,-1058
775,-1776,-2552,500,1664,-2164,-614,-3791,-4265,-3206,-1732,-1117
800,-1747,-2547,473,1673,-2147,-702,-3894,-4245,-3225,-1815,-1171
839,-1649,-2488,405,1664,-2069,-722,-3894,-4138,-3128,-1815,-1185
810,-1546,-2357,368,1583,-1952,-722,-3767,-3952,-2971,-1747,-1171
746,-1434,-2181,344,1464,-1808,-712,-3572,-3703,-2762,-1620,-1088
732,-1288,-2020,278,1376,-1654,-697,-3313,-3401,-2488,-1444,-946
736,-1132,-1869,197,1302,-1500,-673,-3064,-3089,-2186,-1259,-819
712,-985,-1698,136,1205,-1342,-634,-2840,-2810,-1961,-1122,-712
673,-912,-1586,119,1129,-1249,-610,-2610,-2571,-1800,-1049,-658
683,-883,-1566,100,1124,-1224,-614,-2415,-2361,-1698,-1024,-658
688,-819,-1507,65,1098,-1163,-629,-2269,-2191,-1620,-1024,-668
663,-795,-1459,65,1061,-1127,-624,-2142,-2049,-1576,-1039,-683
653,-814,-1468,80,1061,-1141,-610,-2025,-1927,-1537,-1078,-732
673,-790,-1464,58,1068,-1127,-570,-1888,-1834,-1517,-1151,-824
663,-736,-1400,36,1032,-1068,-536,-1756,-1737,-1464,-1195,-912
614,-756,-1371,70,993,-1063,-497,-1644,-1639,-1400,-1220,-941
570,-819,-1390,124,980,-1105,-468,-1546,-1537,-1327,-1190,-922
551,-858,-1410,153,980,-1134,-448,-1454,-1429,-1273,-1166,-922
551,-844,-1395,146,973,-1119,-439,-1385,-1366,-1273,-1195,-990
551,-795,-1346,122,949,-1071,-458,-1332,-1312,-1263,-1229,-1019
541,-732,-1273,95,907,-1002,-478,-1298,-1268,-1244,-1229,-1010
512,-678,-1190,82,851,-934,-468,-1273,-1254,-1239,-1254,-1049
478,-649,-1127,85,802,-888,-473,-1249,-1239,-1224,-1268,-1068
473,-614,-1088,70,780,-851,-483,-1205,-1210,-1190,-1259,-1039
488,-575,-1063,43,775,-819,-483,-1141,-1161,-1146,-1215,-1024
434,-570,-1005,68,719,-788,-453,-1063,-1083,-1093,-1185,-1034
346,-585,-932,119,639,-758,-400,-980,-966,-1010,-1137,-1034
307,-551,-858,122,583,-705,-361,-888,-849,-917,-1063,-1010
278,-512,-790,117,534,-651,-331,-785,-746,-819,-1000,-985
219,-458,-678,119,448,-568,-287,-678,-639,-688,-893,-912
175,-400,-575,112,375,-488,-229,-556,-497,-517,-722,-814
136,-346,-483,104,309,-414,-175,-444,-370,-361,-585,-746
87,-312,-400,112,244,-356,-122,-356,-287,-268,-507,-668
19,-287,-307,134,163,-297,-92,-297,-209,-190,-429,-585
-34,-229,-195,131,80,-212,-58,-224,-122,-102,-346,-512
-78,-175,-97,126,9,-136,-29,-180,-58,-19,-283,-468
-107,-131,-24,119,-41,-78,-24,-146,-4,24,-224,-424
-161,-117,43,139,-102,-36,-14,-97,63,78,-165,-390
-190,-126,63,158,-126,-31,39,-43,112,141,-102,-361
-180,-107,73,143,-126,-17,63,-19,131,170,-68,-331
-180,-43,136,112,-158,46,48,-19,122,185,-73,-331
-209,-58,151,134,-180,46,48,-14,117,200,-68,-312
-224,-58,165,141,-195,53,58,-9,136,219,-48,-292
-219,-39,180,129,-200,70,73,-9,151,219,-39,-292
-224,-29,195,126,-209,82,82,-9,161,224,-29,-287
-234,-19,214,126,-224,97,87,-4,170,229,-24,-283
-248,-19,229,134,-239,104,78,9,170,248,0,-273
-258,-24,234,141,-246,104,78,9,170,263,14,-273
-273,-29,244,151,-258,107,78,9,170,283,29,-258
-278,-24,253,151,-265,114,68,4,170,287,43,-244
-273,-14,258,143,-265,122,53,-9,165,292,39,-244
-283,0,283,141,-283,141,53,-14,165,287,34,-244
-287,9,297,139,-292,153,48,-19,165,283,29,-248
-273,19,292,126,-283,156,43,-29,170,278,43,-253
-283,34,317,124,-300,175,43,-24,180,297,53,-253
-283,48,331,117,-307,190,48,-14,175,302,39,-263
-287,53,341,117,-314,197,53,-9,175,317,34,-263
-287,58,346,114,-317,202,58,-4,175,331,39,-248
-292,48,341,122,-317,195,68,-4,180,341,53,-229
-292,48,341,122,-317,195,68,-4,180,341,68,-224
-302,53,356,124,-329,204,58,-4,185,356,82,-214
-302,63,366,119,-334,214,58,-14,185,356,87,-209
-297,73,370,112,-334,222,63,-14,190,370,97,-209
-302,68,370,117,-336,219,63,-14,195,380,107,-209
-302,63,366,119,-334,214,58,-14,200,390,112,-204
-307,58,366,124,-336,212,58,-14,204,395,117,-204
-317,48,366,134,-341,207,73,-9,209,405,122,-200
-322,48,370,136,-346,209,78,0,209,419,131,-190
-322,68,390,126,-356,229,78,4,209,419,131,-195
-326,92,419,117,-373,256,68,0,219,424,136,-200
-326,112,439,107,-383,275,58,-4,214,424,131,-204
-322,122,444,100,-383,283,53,-9,209,434,131,-204
-322,131,453,95,-387,292,48,-14,209,448,141,-204
-322,161,483,80,-402,322,39,-19,204,448,141,-209
-341,161,502,90,-422,331,58,-9,214,463,151,-214
-356,151,507,102,-431,329,73,-9,224,478,161,-195
-366,156,522,104,-444,339,82,-9,234,488,180,-175
-370,170,541,100,-456,356,92,-9,239,497,195,-161
-366,185,551,90,-458,368,92,-4,248,517,204,-161
-370,190,561,90,-466,375,92,-4,253,531,224,-151
-375,204,580,85,-478,392,92,-4,253,536,229,-151
-375,224,600,75,-488,412,92,-9,258,551,229,-146
-375,244,619,65,-497,431,78,-9,263,561,229,-156
-390,263,653,63,-522,458,78,0,278,580,248,-146
-390,278,668,56,-529,473,78,4,287,595,263,-126
-390,307,697,41,-544,502,73,4,297,605,263,-126
-390,312,702,39,-546,507,73,14,307,614,283,-117
-400,317,717,41,-558,517,87,19,322,634,307,-102
-409,307,717,51,-563,512,102,24,331,658,326,-92
-419,307,727,56,-573,517,82,24,336,668,341,-92
-434,322,756,56,-595,539,87,29,351,702,356,-82
-439,346,785,46,-612,566,102,48,370,732,380,-63
-453,351,805,51,-629,578,112,63,400,756,405,-48
-468,370,839,48,-653,605,122,68,409,785,419,-39
-478,366,844,56,-661,605,131,97,429,805,429,-39
-483,366,849,58,-666,607,131,112,453,824,463,-29
-488,395,883,46,-685,639,126,122,473,844,473,-24
-492,400,893,46,-692,646,126,126,507,873,488,-14
-517,414,932,51,-724,673,122,131,517,902,492,-34
-536,453,990,41,-763,722,117,141,531,927,502,-34
-546,492,1039,26,-793,766,117,136,546,941,507,-29
-561,522,1083,19,-822,802,112,156,561,966,507,-29
-556,546,1102,4,-829,824,122,180,590,990,517,-14
-556,580,1137,-12,-846,858,131,204,624,1029,546,-4
-556,595,1151,-19,-854,873,141,239,668,1063,570,14
-566,610,1176,-21,-871,893,146,263,702,1098,590,14
-590,624,1215,-17,-902,919,136,287,732,1137,624,29
-595,624,1220,-14,-907,922,136,317,780,1171,653,58
-610,624,1234,-7,-922,929,146,351,829,1205,692,87
-614,624,1239,-4,-927,932,165,390,868,1254,732,112
-619,649,1268,-14,-944,958,156,424,893,1288,751,122
-624,678,1302,-26,-963,990,156,448,927,1317,775,126
-624,702,1327,-39,-976,1015,165,478,971,1342,790,126
-634,727,1361,-46,-997,1044,170,512,1015,1381,810,141
-629,751,1381,-61,-1005,1066,180,541,1054,1429,844,141
-629,756,1385,-63,-1007,1071,190,585,1093,1464,863,141
-639,751,1390,-56,-1015,1071,200,634,1141,1507,897,161
-658,751,1410,-46,-1034,1080,214,663,1185,1546,922,170
-673,775,1449,-51,-1061,1112,224,692,1224,1561,951,180
-678,785,1464,-53,-1071,1124,229,732,1268,1595,976,200
-688,785,1473,-48,-1080,1129,244,771,1312,1625,1010,214
-692,785,1478,-46,-1085,1132,253,805,1346,1659,1039,224
-702,790,1493,-43,-1098,1141,263,834,1390,1703,1078,239
-707,790,1498,-41,-1102,1144,268,868,1424,1732,1098,258
-712,785,1498,-36,-1105,1141,278,902,1459,1766,1122,268
-722,775,1498,-26,-1110,1137,283,936,1493,1810,1151,278
-722,775,1498,-26,-1110,1137,292,980,1537,1830,1161,268
-722,775,1498,-26,-1110,1137,292,1024,1576,1839,1176,278
-722,785,1507,-31,-1115,1146,292,1044,1615,1844,1190,283
-722,785,1507,-31,-1115,1146,297,1078,1649,1864,1210,287
-727,795,1522,-34,-1124,1159,292,1107,1678,1893,1244,302
-727,785,1512,-29,-1119,1149,292,1146,1712,1922,1263,322
-722,790,1512,-34,-1117,1151,287,1171,1732,1937,1283,331
-712,795,1507,-41,-1110,1151,283,1195,1747,1942,1283,331
-697,790,1488,-46,-1093,1139,292,1224,1771,1956,1298,341
-697,771,1468,-36,-1083,1119,302,1263,1790,1966,1317,361
-692,746,1439,-26,-1066,1093,302,1288,1800,1976,1332,366
-688,727,1415,-19,-1051,1071,307,1293,1810,1961,1337,370
-688,717,1405,-14,-1046,1061,307,1307,1805,1956,1337,366
-678,707,1385,-14,-1032,1046,312,1327,1805,1947,1337,366
-663,697,1361,-17,-1012,1029,312,1332,1805,1917,1332,361
-663,678,1342,-7,-1002,1010,307,1346,1795,1893,1317,356
-663,649,1312,7,-988,980,297,1342,1776,1883,1302,341
-649,614,1263,17,-956,939,297,1342,1756,1854,1298,331
-639,580,1220,29,-929,900,292,1342,1732,1820,1288,322
-629,561,1190,34,-910,875,292,1337,1698,1781,1268,307
-624,546,1171,39,-897,858,268,1317,1664,1727,1244,312
-619,517,1137,51,-878,827,263,1298,1634,1693,1220,312
-614,488,1102,63,-858,795,258,1273,1590,1659,1205,307
-600,463,1063,68,-832,763,248,1244,1556,1605,1176,297
-570,439,1010,65,-790,724,248,1229,1532,1576,1180,302
-546,414,961,65,-753,688,244,1215,1483,1542,1156,312
-517,400,917,58,-717,658,239,1200,1444,1488,1146,317
-497,385,883,56,-690,634,229,1171,1400,1449,1132,326
-492,356,849,68,-671,602,224,1117,1342,1390,1093,297
-478,341,819,68,-649,580,224,1073,1293,1332,1058,263
-468,302,771,82,-619,536,214,1034,1239,1263,1015,244
-448,278,727,85,-588,502,195,1000,1176,1200,976,224
-439,248,688,95,-563,468,180,956,1117,1151,932,219
-434,219,653,107,-544,436,175,902,1054,1098,893,204
-414,190,605,112,-509,397,161,854,1000,1039,844,190
-400,170,570,114,-485,370,136,810,936,985,805,165
-380,156,536,112,-458,346,141,771,893,917,756,136
-361,146,507,107,-434,326,136,727,844,863,727,122
-346,131,478,107,-412,305,126,688,795,819,688,102
-341,117,458,112,-400,287,122,644,741,766,658,82
-322,102,424,109,-373,263,112,595,688,722,610,68
-307,73,380,117,-344,226,92,561,639,668,570,63
-287,48,336,119,-312,192,78,517,585,614,531,53
-273,48,322,112,-297,185,68,473,536,570,492,29
-258,29,287,114,-273,158,82,439,512,522,463,0
-239,14,253,112,-246,134,78,414,478,483,429,-19
-239,-14,224,126,-231,104,68,370,439,444,390,-48
-234,-24,209,129,-222,92,63,336,390,400,351,-68
-219,-39,180,129,-200,70,58,307,366,375,331,-53
-209,-53,156,131,-183,51,53,278,331,346,312,-58
-204,-68,136,136,-170,34,39,244,307,322,283,-68
-200,-87,112,143,-156,12,34,219,278,297,263,-68
-195,-107,87,151,-141,-9,14,195,248,268,239,-73
-195,-122,73,158,-134,-24,0,165,229,239,219,-92
-195,-122,73,158,-134,-24,-19,136,209,214,195,-112
-195,-122,73,158,-134,-24,-29,102,190,185,170,-131
-185,-126,58,156,-122,-34,-19,97,170,190,165,-131
-175,-126,48,151,-112,-39,-19,87,156,175,151,-141
-161,-117,43,139,-102,-36,-43,78,126,161,126,-161
-156,-107,48,131,-102,-29,-48,68,117,146,107,-175
-151,-126,24,139,-87,-51,-34,63,117,136,102,-185
-141,-146,-4,143,-68,-75,-34,53,117,131,92,-190
-146,-151,-4,148,-70,-78,-24,39,107,117,73,-200
-156,-156,0,156,-78,-78,-24,19,97,102,53,-219
-165,-156,9,161,-87,-73,-24,24,102,92,34,-229
-165,-165,0,165,-82,-82,-24,19,92,78,19,-234
-170,-175,-4,173,-82,-90,-24,19,82,68,4,-234
-170,-175,-4,173,-82,-90,-39,24,82,63,0,-234
-161,-175,-14,168,-73,-95,-48,29,82,63,4,-224
-161,-175,-14,168,-73,-95,-53,29,82,58,4,-214
-161,-190,-29,175,-65,-109,-53,24,82,58,4,-204
-161,-190,-29,175,-65,-109,-48,19,82,58,9,-195
-146,-180,-34,163,-56,-107,-34,29,82,63,0,-209
-146,-175,-29,161,-58,-102,-39,29,87,58,-29,-229
-141,-175,-34,158,-53,-104,-34,29,92,58,-29,-234
-141,-185,-43,163,-48,-114,-24,24,97,58,-29,-244
-126,-175,-48,151,-39,-112,-14,29,107,63,-24,-239
-126,-175,-48,151,-39,-112,-24,29,107,63,-24,-234
-122,-180,-58,151,-31,-119,-24,34,117,63,-19,-229
-117,-180,-63,148,-26,-122,-19,48,122,68,-19,-224
-126,-165,-39,146,-43,-102,-19,43,122,63,-24,-239
-131,-161,-29,146,-51,-95,-24,48,117,68,-29,-239
-136,-161,-24,148,-56,-92,-29,53,122,63,-34,-244
-136,-165,-29,151,-53,-97,-34,48,117,58,-39,-248
-146,-151,-4,148,-70,-78,-43,58,117,58,-39,-234
-141,-175,-34,158,-53,-104,-39,68,126,58,-34,-234
-141,-185,-43,163,-48,-114,-39,68,126,68,-29,-234
-141,-151,-9,146,-65,-80,-48,68,126,53,-29,-239
-146,-161,-14,153,-65,-87,-39,68,126,39,-34,-253
-151,-170,-19,161,-65,-95,-39,68,131,39,-34,-268
-161,-170,-9,165,-75,-90,-53,73,126,43,-39,-278
-165,-175,-9,170,-78,-92,-53,82,126,43,-39,-287
-161,-170,-9,165,-75,-90,-34,82,122,39,-53,-287
-161,-185,-24,173,-68,-104,-24,82,126,39,-58,-287
-165,-180,-14,173,-75,-97,-14,82,131,34,-68,-292
-161,-170,-9,165,-75,-90,-14,82,141,29,-82,-297
-146,-180,-34,163,-56,-107,-19,102,161,53,-63,-278
-141,-175,-34,158,-53,-104,-19,112,170,58,-53,-268
-146,-175,-29,161,-58,-102,-9,126,170,68,-43,-258
-141,-175,-34,158,-53,-104,-29,136,165,73,-34,-248
-146,-161,-14,153,-65,-87,-34,126,151,63,-48,-258
-151,-161,-9,156,-70,-85,-34,117,151,58,-53,-273
-156,-161,-4,158,-75,-82,-34,117,156,58,-48,-283
-161,-161,0,161,-80,-80,-34,117,170,63,-53,-278
-156,-156,0,156,-78,-78,-43,122,165,53,-53,-268
-156,-156,0,156,-78,-78,-43,122,161,58,-73,-263
-156,-151,4,153,-80,-73,-43,122,161,58,-73,-268
-156,-131,24,143,-90,-53,-29,122,156,53,-68,-263
-141,-136,4,139,-73,-65,-19,117,161,68,-53,-248
-141,-151,-9,146,-65,-80,-14,117,170,78,-48,-239
-146,-156,-9,151,-68,-82,-14,126,175,87,-43,-229
-151,-161,-9,156,-70,-85,-19,126,180,92,-39,-224
-151,-151,0,151,-75,-75,-29,122,165,82,-48,-239
-146,-151,-4,148,-70,-78,-29,126,175,82,-43,-239
-141,-141,0,141,-70,-70,-29,122,170,78,-43,-244
-141,-151,-9,146,-65,-80,-43,117,156,63,-43,-253
-136,-161,-24,148,-56,-92,-53,126,165,68,-48,-258
-136,-175,-39,156,-48,-107,-53,122,165,68,-34,-263
-136,-165,-29,151,-53,-97,-63,122,161,63,-53,-278
-136,-141,-4,139,-65,-73,-63,122,161,63,-58,-283
-131,-151,-19,141,-56,-85,-48,126,161,68,-48,-258
-131,-151,-19,141,-56,-85,-39,126,161,73,-29,-239
-126,-156,-29,141,-48,-92,-34,117,161,68,-34,-224
-126,-170,-43,148,-41,-107,-24,117,151,58,-39,-209
-126,-175,-48,151,-39,-112,-24,112,156,48,-34,-200
-126,-180,-53,153,-36,-117,-19,112,156,53,-24,-190
-122,-180,-58,151,-31,-119,-19,117,156,53,-39,-190
-122,-180,-58,151,-31,-119,-14,117,151,53,-48,-200
-122,-156,-34,139,-43,-95,-29,112,146,53,-29,-209
-117,-146,-29,131,-43,-87,-39,107,141,48,-34,-204
-117,-136,-19,126,-48,-78,-43,102,131,43,-48,-204
-122,-141,-19,131,-51,-80,-48,92,126,29,-58,-214
-112,-156,-43,134,-34,-100,-63,92,126,34,-53,-214
-102,-151,-48,126,-26,-100,-82,92,126,34,-48,-209
-102,-146,-43,124,-29,-95,-87,92,117,29,-58,-204
-102,-151,-48,126,-26,-100,-82,97,107,29,-63,-200
-97,-170,-73,134,-12,-122,-73,87,97,4,-58,-214
-87,-175,-87,131,0,-131,-73,78,97,4,-58,-214
-82,-175,-92,129,4,-134,-78,73,97,0,-58,-214
-68,-175,-107,122,19,-141,-78,63,97,-4,-58,-214
-73,-185,-112,129,19,-148,-63,68,92,4,-63,-219
-78,-185,-107,131,14,-146,-58,68,87,0,-58,-224
-92,-190,-97,141,2,-143,-48,68,87,0,-53,-209
-97,-195,-97,146,0,-146,-43,68,87,0,-53,-195
-126,-214,-87,170,-19,-151,-63,68,73,-34,-82,-214
-107,-204,-97,156,-4,-151,-78,68,78,-24,-82,-219
-97,-224,-126,161,14,-175,-78,68,97,-9,-78,-185
-102,-214,-112,158,4,-163,-73,58,82,-19,-78,-190
-107,-214,-107,161,0,-161,-68,58,78,-19,-78,-195
-112,-214,-102,163,-4,-158,-63,58,73,-19,-78,-200
-117,-214,-97,165,-9,-156,-58,58,68,-19,-78,-204
-107,-224,-117,165,4,-170,-58,48,73,-29,-68,-214
-87,-219,-131,153,21,-175,-68,48,73,-34,-73,-214
-78,-219,-141,148,31,-180,-78,39,68,-34,-87,-219
-68,-219,-151,143,41,-185,-78,29,63,-34,-87,-219
-63,-209,-146,136,41,-178,-63,19,53,-39,-102,-224
-68,-200,-131,134,31,-165,-58,19,43,-53,-107,-239
-73,-200,-126,136,26,-163,-63,19,24,-63,-117,-244
-78,-204,-126,141,24,-165,-58,19,14,-73,-122,-248
-73,-214,-141,143,34,-178,-63,14,24,-68,-117,-244
-73,-204,-131,139,29,-168,-68,9,24,-68,-112,-244
-63,-195,-131,129,34,-163,-63,9,29,-68,-107,-244
-63,-195,-131,129,34,-163,-68,9,34,-58,-97,-244
-82,-214,-131,148,24,-173,-53,14,29,-68,-97,-234
-82,-219,-136,151,26,-178,-53,9,29,-68,-107,-229
-78,-234,-156,156,39,-195,-53,9,29,-68,-112,-229
-78,-248,-170,163,46,-209,-53,14,29,-73,-112,-229
-73,-244,-170,158,48,-207,-48,29,19,-73,-122,-244
-68,-239,-170,153,51,-204,-58,34,19,-73,-122,-244
-53,-219,-165,136,56,-192,-43,34,19,-82,-126,-248
-68,-214,-146,141,39,-180,-43,29,9,-92,-126,-253
-78,-214,-136,146,29,-175,-43,53,9,-82,-117,-244
-58,-209,-151,134,46,-180,-53,53,4,-82,-117,-244
-48,-209,-161,129,56,-185,-53,53,4,-87,-117,-248
-68,-224,-156,146,43,-190,-48,53,4,-87,-117,-248
-92,-234,-141,163,24,-187,-48,63,4,-97,-107,-239
-97,-244,-146,170,24,-195,-48,63,4,-102,-117,-244
-107,-253,-146,180,19,-200,-48,58,4,-102,-117,-244
-112,-258,-146,185,17,-202,-48,58,4,-102,-112,-244
-78,-229,-151,153,36,-190,-53,58,4,-92,-122,-244
-73,-214,-141,143,34,-178,-39,63,4,-92,-122,-248
-68,-204,-136,136,34,-170,-34,68,4,-87,-122,-248
-63,-195,-131,129,34,-163,-29,73,9,-87,-122,-244
-63,-229,-165,146,51,-197,-34,73,9,-92,-112,-229
-68,-234,-165,151,48,-200,-43,68,9,-92,-112,-224
-48,-239,-190,143,70,-214,-53,53,0,-92,-112,-224
-34,-219,-185,126,75,-202,-63,43,-4,-92,-117,-224
-48,-219,-170,134,61,-195,-58,34,-14,-92,-131,-239
-53,-234,-180,143,63,-207,-53,34,-14,-102,-131,-234
-58,-248,-190,153,65,-219,-48,39,-9,-102,-126,-229
-63,-239,-175,151,56,-207,-43,39,-9,-102,-126,-234
-58,-214,-156,136,48,-185,-43,43,0,-92,-131,-248
-58,-224,-165,141,53,-195,-39,48,-4,-92,-141,-248
-68,-229,-161,148,46,-195,-34,53,-4,-92,-126,-248
-68,-229,-161,148,46,-195,-29,58,-9,-92,-126,-248
-58,-200,-141,129,41,-170,-48,63,0,-102,-146,-219
-58,-200,-141,129,41,-170,-39,58,0,-112,-151,-219
1878,1659,-219,-1769,1049,719,395,385,244,-58,-53,-53
-322,-907,-585,614,131,-746,566,136,-580,-2039,-1849,-1342
-356,-1044,-688,700,165,-866,673,126,-688,-2508,-2225,-1532
63,161,97,-112,-17,129,-366,-102,351,1010,912,536
209,595,385,-402,-87,490,-732,-180,673,2342,2064,1215
-39,-117,-78,78,19,-97,-107,-53,29,234,195,-53
-87,-214,-126,151,19,-170,-4,-68,-82,-204,-161,-244
-24,97,122,-36,-73,109,-239,-146,63,448,429,151
-78,-4,73,41,-75,34,-136,-136,-68,58,82,-78
-141,-131,9,136,-75,-61,-48,-117,-146,-234,-161,-214
-112,-48,63,80,-87,7,-107,-136,-78,-19,24,-68
-78,-43,34,61,-56,-4,-87,-131,-63,-58,-14,-92
-87,-126,-39,107,-24,-82,-34,-92,-48,-156,-122,-161
-102,-170,-68,136,-17,-119,-43,-63,14,-82,-92,-151
-82,-200,-117,141,17,-158,-34,-4,102,-24,-73,-146
-53,-229,-175,141,61,-202,-14,48,185,9,-92,-175
-24,-253,-229,139,102,-241,-19,97,283,87,-63,-175
-14,-322,-307,168,146,-314,-14,136,361,141,-29,-146
-9,-366,-356,187,173,-361,-19,151,385,122,-9,-122
-4,-390,-385,197,190,-387,-24,136,385,82,-29,-122
4,-414,-419,204,212,-417,-24,141,395,43,-9,-97
24,-439,-463,207,244,-451,-14,185,448,9,24,-87
34,-453,-488,209,261,-470,-4,239,512,-68,-4,-102
39,-488,-527,224,283,-507,-4,287,551,-161,-58,-122
53,-561,-614,253,334,-588,-24,326,566,-195,-48,-122
107,-649,-756,270,431,-702,-43,370,570,-195,-4,-97
180,-741,-922,280,551,-832,-24,424,580,-195,14,-68
190,-785,-976,297,583,-880,-24,473,570,-312,-29,-92
185,-785,-971,300,578,-878,-24,522,566,-536,-170,-161
214,-800,-1015,292,614,-907,4,595,551,-761,-312,-190
263,-883,-1146,309,705,-1015,19,697,536,-971,-400,-170
292,-995,-1288,351,790,-1141,9,839,527,-1205,-463,-161
331,-1098,-1429,383,880,-1263,-29,932,458,-1420,-541,-165
395,-1161,-1556,383,976,-1359,-48,1024,361,-1615,-600,-165
473,-1229,-1703,378,1088,-1466,-39,1190,366,-1790,-663,-122
541,-1342,-1883,400,1212,-1612,-29,1307,341,-1947,-766,-102
561,-1449,-2010,444,1285,-1729,-34,1293,195,-2132,-897,-112
570,-1498,-2069,463,1320,-1783,-34,1239,29,-2405,-1039,-122
580,-1551,-2132,485,1356,-1842,-34,1210,-165,-2727,-1200,-141
614,-1649,-2264,517,1439,-1956,-34,1151,-419,-2962,-1346,-204
668,-1790,-2459,561,1564,-2125,-34,1044,-668,-3079,-1424,-287
707,-1917,-2625,605,1666,-2271,-34,907,-976,-3201,-1483,-375
732,-2005,-2737,636,1734,-2371,-53,717,-1342,-3342,-1493,-434
795,-2078,-2874,641,1834,-2476,-73,570,-1756,-3528,-1590,-541
888,-2200,-3089,656,1988,-2644,-92,463,-2171,-3747,-1766,-678
946,-2318,-3264,685,2105,-2791,-136,239,-2547,-3913,-1815,-741
976,-2361,-3337,692,2156,-2849,-185,-131,-2884,-3982,-1688,-732
1010,-2332,-3342,661,2176,-2837,-219,-522,-3215,-4026,-1566,-697
1010,-2269,-3279,629,2144,-2774,-219,-824,-3494,-4050,-1493,-658
971,-2200,-3172,614,2071,-2686,-190,-1063,-3669,-4021,-1449,-600
932,-2171,-3103,619,2017,-2637,-180,-1385,-3796,-3957,-1434,-595
917,-2166,-3084,624,2000,-2625,-180,-1766,-3947,-3864,-1449,-600
922,-2127,-3050,602,1986,-2588,-200,-2127,-4099,-3782,-1449,-610
893,-2025,-2918,566,1905,-2471,-244,-2474,-4196,-3713,-1459,-653
854,-1917,-2771,531,1812,-2344,-317,-2849,-4265,-3640,-1493,-722
824,-1800,-2625,488,1725,-2213,-409,-3137,-4221,-3508,-1537,-785
800,-1747,-2547,473,1673,-2147,-512,-3215,-4084,-3386,-1590,-805
800,-1761,-2562,480,1681,-2161,-619,-3274,-4011,-3328,-1678,-844
814,-1727,-2542,456,1678,-2135,-712,-3450,-4001,-3284,-1722,-893
800,-1688,-2488,444,1644,-2088,-751,-3601,-4001,-3215,-1708,-907
771,-1668,-2440,448,1605,-2054,-722,-3640,-3943,-3118,-1668,-873
751,-1586,-2337,417,1544,-1961,-702,-3542,-3786,-2962,-1600,-800
746,-1444,-2191,348,1468,-1817,-722,-3376,-3538,-2723,-1464,-727
732,-1298,-2030,283,1381,-1664,-756,-3137,-3254,-2479,-1327,-634
697,-1151,-1849,226,1273,-1500,-732,-2879,-2971,-2264,-1220,-556
653,-1034,-1688,190,1171,-1361,-663,-2625,-2693,-2049,-1132,-507
644,-932,-1576,143,1110,-1254,-629,-2386,-2435,-1859,-1029,-444
644,-863,-1507,109,1076,-1185,-624,-2210,-2235,-1717,-985,-414
649,-829,-1478,90,1063,-1154,-610,-2074,-2103,-1639,-1024,-473
663,-805,-1468,70,1066,-1137,-585,-1937,-1971,-1595,-1107,-595
653,-795,-1449,70,1051,-1122,-561,-1800,-1820,-1546,-1176,-692
614,-810,-1424,97,1019,-1117,-531,-1664,-1688,-1488,-1200,-746
585,-805,-1390,109,988,-1098,-507,-1542,-1581,-1415,-1195,-766
566,-795,-1361,114,963,-1078,-488,-1449,-1483,-1342,-1171,-766
541,-800,-1342,129,941,-1071,-478,-1390,-1439,-1307,-1210,-805
512,-780,-1293,134,902,-1037,-488,-1346,-1410,-1332,-1273,-873
512,-727,-1239,107,875,-983,-488,-1298,-1356,-1322,-1293,-893
512,-707,-1220,97,866,-963,-468,-1234,-1273,-1273,-1268,-873
492,-732,-1224,119,858,-978,-439,-1171,-1210,-1215,-1239,-844
473,-736,-1210,131,841,-973,-429,-1107,-1137,-1171,-1185,-795
458,-629,-1088,85,773,-858,-463,-1102,-1122,-1156,-1200,-824
453,-517,-971,31,712,-744,-492,-1078,-1102,-1132,-1239,-961
429,-517,-946,43,688,-732,-453,-985,-1015,-1049,-1205,-985
366,-541,-907,87,636,-724,-375,-888,-917,-956,-1107,-927
297,-517,-814,109,556,-666,-331,-805,-839,-883,-1029,-897
268,-502,-771,117,519,-636,-283,-722,-741,-771,-966,-863
219,-473,-692,126,456,-583,-234,-600,-600,-614,-834,-751
141,-400,-541,129,341,-470,-190,-463,-453,-463,-688,-658
107,-331,-439,112,273,-385,-190,-400,-351,-351,-595,-610
87,-278,-366,95,226,-322,-195,-356,-292,-292,-527,-580
68,-214,-283,73,175,-248,-170,-297,-229,-229,-439,-522
29,-151,-180,61,104,-165,-102,-229,-151,-131,-341,-429
-24,-102,-78,63,26,-90,-39,-165,-92,-43,-258,-346
-78,-87,-9,82,-34,-48,0,-122,-48,19,-195,-283
-117,-82,34,100,-75,-24,24,-78,14,82,-126,-219
-141,-107,34,124,-87,-36,53,-39,73,156,-78,-165
-151,-136,14,143,-82,-61,39,-24,92,170,-53,-156
-151,-97,53,124,-102,-21,14,-39,82,151,-48,-175
-161,-24,136,92,-148,56,19,-39,73,146,-43,-185
-200,-48,151,124,-175,51,29,-34,78,161,-29,-165
-190,-48,141,119,-165,46,24,-34,78,170,-24,-165
-180,-29,151,104,-165,61,34,-39,82,170,-19,-165
-180,-19,161,100,-170,70,39,-43,82,175,-14,-161
-185,-9,175,97,-180,82,39,-43,82,180,-14,-156
-185,4,190,90,-187,97,39,-34,82,195,-9,-165
-190,14,204,87,-197,109,39,-39,82,204,-4,-165
-200,24,224,87,-212,124,39,-43,82,219,0,-151
-200,43,244,78,-222,143,29,-53,82,219,4,-136
-209,29,239,90,-224,134,29,-58,78,229,19,-117
-224,29,253,97,-239,141,34,-53,78,229,24,-107
-234,24,258,104,-246,141,34,-48,78,229,29,-102
-224,19,244,102,-234,131,34,-48,82,229,53,-97
-224,34,258,95,-241,146,29,-48,82,239,78,-87
-224,58,283,82,-253,170,29,-43,78,244,68,-87
-229,73,302,78,-265,187,29,-43,78,258,68,-78
-229,87,317,70,-273,202,29,-43,78,273,78,-53
-224,87,312,68,-268,200,34,-43,82,273,87,-53
-224,87,312,68,-268,200,39,-43,82,273,97,-58
-234,92,326,70,-280,209,34,-43,87,287,107,-58
-234,102,336,65,-285,219,39,-53,87,287,107,-63
-234,112,346,61,-290,229,43,-53,78,283,107,-73
-234,107,341,63,-287,224,43,-53,78,292,107,-73
-229,102,331,63,-280,217,39,-53,78,302,102,-68
-229,97,326,65,-278,212,39,-53,78,307,97,-68
-229,102,331,63,-280,217,43,-53,82,312,117,-53
-234,107,341,63,-287,224,48,-48,82,322,131,-34
-234,131,366,51,-300,248,48,-48,82,317,136,-29
-239,161,400,39,-319,280,39,-58,92,317,146,-24
-258,161,419,48,-339,290,39,-58,102,336,161,-14
-263,161,424,51,-344,292,43,-58,102,356,170,-9
-273,161,434,56,-353,297,48,-58,107,380,190,-4
-283,180,463,51,-373,322,48,-58,107,390,200,-4
-297,195,492,51,-395,344,43,-68,107,390,195,-29
-307,200,507,53,-407,353,43,-68,107,400,200,-19
-312,219,531,46,-422,375,39,-68,107,405,214,-9
-312,248,561,31,-436,405,34,-68,102,409,224,-4
-307,253,561,26,-434,407,48,-73,112,429,234,14
-312,248,561,31,-436,405,53,-73,117,444,253,24
-317,253,570,31,-444,412,58,-73,117,448,258,24
-317,263,580,26,-448,422,63,-78,122,463,258,29
-307,278,585,14,-446,431,53,-68,136,497,273,43
-322,292,614,14,-468,453,58,-58,151,522,307,58
-322,302,624,9,-473,463,63,-53,161,541,336,82
-322,326,649,-2,-485,488,63,-53,170,556,351,87
-331,356,688,-12,-509,522,48,-53,170,561,361,87
-341,375,717,-17,-529,546,58,-48,185,575,375,102
-351,380,732,-14,-541,556,68,-43,195,595,385,112
-361,395,756,-17,-558,575,43,-43,200,600,390,112
-370,414,785,-21,-578,600,53,-43,195,624,400,107
-370,434,805,-31,-588,619,63,-29,214,653,419,122
-380,434,814,-26,-597,624,68,-19,244,678,439,131
-390,448,839,-29,-614,644,73,-19,253,707,448,136
-395,468,863,-36,-629,666,63,-4,268,727,468,151
-395,483,878,-43,-636,680,63,4,287,746,502,165
-395,527,922,-65,-658,724,58,9,302,766,512,175
-395,546,941,-75,-668,744,58,9,331,795,527,190
-419,541,961,-61,-690,751,68,43,370,839,551,185
-448,561,1010,-56,-729,785,78,63,395,878,580,190
-468,580,1049,-56,-758,814,92,68,419,907,605,200
-492,590,1083,-48,-788,836,102,97,444,946,624,204
-492,600,1093,-53,-793,846,117,117,473,976,653,214
-488,629,1117,-70,-802,873,131,136,507,1010,683,229
-483,639,1122,-78,-802,880,146,165,551,1039,707,253
-488,649,1137,-80,-812,893,156,185,585,1068,727,258
-502,697,1200,-97,-851,949,141,200,610,1107,741,253
-507,712,1220,-102,-863,966,136,219,653,1141,761,273
-522,727,1249,-102,-885,988,141,244,697,1176,790,292
-527,741,1268,-107,-897,1005,156,273,732,1224,819,307
-541,766,1307,-112,-924,1037,146,302,775,1254,854,322
-546,785,1332,-119,-939,1058,146,331,810,1288,883,331
-546,800,1346,-126,-946,1073,156,366,854,1317,902,336
-556,814,1371,-129,-963,1093,161,405,897,1361,927,356
-551,844,1395,-146,-973,1119,180,434,946,1415,976,375
-551,854,1405,-151,-978,1129,190,478,985,1454,1000,385
-561,854,1415,-146,-988,1134,200,527,1034,1503,1039,414
-580,858,1439,-139,-1010,1149,214,556,1078,1546,1068,434
-600,868,1468,-134,-1034,1168,234,580,1122,1566,1102,444
-610,873,1483,-131,-1046,1178,239,624,1171,1605,1132,463
-624,868,1493,-122,-1058,1180,253,668,1220,1639,1171,478
-634,863,1498,-114,-1066,1180,263,707,1259,1678,1205,488
-629,888,1517,-129,-1073,1202,253,732,1317,1722,1234,492
-629,897,1527,-134,-1078,1212,248,771,1356,1751,1254,512
-629,902,1532,-136,-1080,1217,248,810,1395,1786,1278,522
-634,902,1537,-134,-1085,1220,244,849,1434,1830,1307,531
-624,897,1522,-136,-1073,1210,258,893,1473,1864,1332,536
-624,893,1517,-134,-1071,1205,263,936,1517,1878,1351,551
-624,897,1522,-136,-1073,1210,268,956,1561,1888,1371,561
-624,893,1517,-134,-1071,1205,278,990,1600,1912,1395,570
-639,873,1512,-117,-1076,1193,283,1015,1629,1932,1415,575
-639,854,1493,-107,-1066,1173,283,1058,1664,1961,1429,595
-634,849,1483,-107,-1058,1166,278,1088,1683,1976,1444,605
-624,844,1468,-109,-1046,1156,273,1117,1698,1981,1439,605
-614,863,1478,-124,-1046,1171,283,1141,1712,1981,1439,600
-610,858,1468,-124,-1039,1163,292,1176,1732,1986,1454,614
-600,849,1449,-124,-1024,1149,292,1195,1742,1991,1464,614
-590,844,1434,-126,-1012,1139,297,1195,1751,1971,1464,614
-580,819,1400,-119,-990,1110,307,1215,1766,1971,1468,629
-570,805,1376,-117,-973,1090,312,1239,1766,1966,1473,639
-556,790,1346,-117,-951,1068,312,1249,1766,1942,1473,644
-556,766,1322,-104,-939,1044,307,1268,1756,1922,1464,649
-561,741,1302,-90,-932,1022,297,1273,1742,1898,1444,639
-541,712,1254,-85,-897,983,297,1273,1727,1864,1434,634
-527,683,1210,-78,-868,946,292,1273,1708,1825,1420,629
-512,668,1180,-78,-846,924,292,1268,1678,1781,1395,619
-488,634,1122,-73,-805,878,283,1254,1649,1737,1361,610
-483,595,1078,-56,-780,836,283,1239,1615,1703,1327,605
-478,556,1034,-39,-756,795,283,1220,1566,1668,1302,595
-463,522,985,-29,-724,753,278,1195,1527,1615,1263,580
-463,463,927,0,-695,695,287,1185,1503,1571,1244,570
-448,424,873,12,-661,649,283,1166,1454,1522,1205,566
-429,395,824,17,-627,610,278,1146,1415,1454,1180,556
-419,366,785,26,-602,575,268,1112,1371,1400,1151,551
-400,385,785,7,-592,585,248,1058,1298,1337,1098,507
-380,400,780,-9,-580,590,234,1015,1244,1273,1049,468
-366,390,756,-12,-561,573,209,976,1185,1200,990,444
-341,395,736,-26,-539,566,175,941,1117,1132,936,419
-322,361,683,-19,-502,522,175,917,1073,1063,897,414
-317,326,644,-4,-480,485,175,863,1015,1010,854,400
-297,292,590,2,-444,441,165,814,966,951,800,385
-283,268,551,7,-417,409,146,771,907,897,756,361
-273,234,507,19,-390,370,151,746,863,849,727,341
-253,214,468,19,-361,341,146,707,814,795,697,326
-239,190,429,24,-334,309,136,673,766,751,658,307
-234,165,400,34,-317,283,131,634,712,697,629,287
-229,156,385,36,-307,270,136,595,668,653,590,258
-219,131,351,43,-285,241,122,561,619,600,551,248
-204,112,317,46,-261,214,112,517,566,546,512,234
-195,117,312,39,-253,214,107,473,517,502,473,204
-185,92,278,46,-231,185,112,439,473,453,434,170
-170,63,234,53,-202,148,107,414,439,414,400,156
-175,19,195,78,-185,107,97,370,400,375,361,131
-175,-4,170,90,-173,82,92,336,351,331,322,117
-170,0,170,85,-170,85,82,322,331,307,302,112
-161,-4,156,82,-158,75,73,297,292,278,283,97
-156,-9,146,82,-151,68,53,268,263,253,253,78
-151,-19,131,85,-141,56,43,248,229,229,234,68
-126,-34,92,80,-109,29,34,224,180,200,200,48
-117,-43,73,80,-95,14,29,195,161,170,180,24
-107,-39,68,73,-87,14,19,165,141,146,156,0
-97,-34,63,65,-80,14,19,131,122,117,131,-24
-92,-48,43,70,-68,-2,29,112,97,112,136,-9
-87,-58,29,73,-58,-14,29,97,78,97,122,-14
-78,-58,19,68,-48,-19,4,82,43,82,97,-29
-78,-58,19,68,-48,-19,0,68,29,68,78,-39
-68,-68,0,68,-34,-34,4,43,24,48,78,-29
-53,-87,-34,70,-9,-61,4,34,19,43,73,-34
-53,-92,-39,73,-7,-65,14,19,4,29,58,-43
-58,-97,-39,78,-9,-68,14,0,-9,14,43,-63
-63,-92,-29,78,-17,-61,0,-19,-19,19,39,-73
-68,-97,-29,82,-19,-63,-4,-29,-34,9,29,-78
-78,-102,-24,90,-26,-63,-9,-34,-48,4,19,-78
-82,-97,-14,90,-34,-56,-29,-34,-53,4,19,-78
-73,-87,-14,80,-29,-51,-29,-43,-53,4,24,-68
-73,-87,-14,80,-29,-51,-24,-48,-53,0,24,-68
-73,-102,-29,87,-21,-65,-14,-58,-53,0,24,-68
-73,-102,-29,87,-21,-65,0,-68,-53,0,29,-68
-68,-97,-29,82,-19,-63,9,-78,-68,4,39,-53
-68,-97,-29,82,-19,-63,0,-78,-68,0,9,-63
-63,-102,-39,82,-12,-70,0,-78,-68,0,9,-58
-63,-117,-53,90,-4,-85,4,-82,-68,0,9,-58
-68,-107,-39,87,-14,-73,9,-73,-58,4,14,-48
-78,-107,-29,92,-24,-68,4,-78,-58,4,14,-48
-82,-112,-29,97,-26,-70,9,-78,-48,4,19,-48
-87,-112,-24,100,-31,-68,19,-68,-43,9,19,-48
-78,-97,-19,87,-29,-58,9,-73,-39,9,29,-48
-73,-92,-19,82,-26,-56,4,-68,-39,19,29,-43
-68,-92,-24,80,-21,-58,0,-63,-29,19,29,-43
-58,-97,-39,78,-9,-68,-4,-68,-29,19,29,-43
-63,-68,-4,65,-29,-36,4,-68,-19,19,14,-29
-63,-87,-24,75,-19,-56,9,-58,-9,19,14,-29
-68,-92,-24,80,-21,-58,9,-58,-9,29,14,-29
-73,-53,19,63,-46,-17,0,-58,-9,14,9,-34
-78,-53,24,65,-51,-14,-9,-53,4,24,19,-24
-82,-63,19,73,-51,-21,-9,-48,14,29,24,-24
-92,-63,29,78,-61,-17,-24,-39,14,39,24,-19
-97,-68,29,82,-63,-19,-24,-24,19,43,29,-14
-82,-78,4,80,-43,-36,-14,-19,34,34,19,-14
-82,-97,-14,90,-34,-56,-4,-14,39,39,19,-14
-87,-97,-9,92,-39,-53,4,-9,43,39,14,-19
-82,-92,-9,87,-36,-51,4,-4,53,39,4,-24
-78,-87,-9,82,-34,-48,9,-9,58,48,4,-24
-82,-78,4,80,-43,-36,19,-4,63,48,4,-24
-97,-73,24,85,-61,-24,39,4,58,53,4,-24
-102,-68,34,85,-68,-17,29,9,48,53,4,-24
-102,-73,29,87,-65,-21,9,14,58,53,14,-19
-102,-73,29,87,-65,-21,4,19,63,48,14,-19
-102,-73,29,87,-65,-21,0,34,73,48,24,-14
-102,-73,29,87,-65,-21,-4,48,92,53,24,4
-92,-63,29,78,-61,-17,-14,39,87,43,4,-4
-87,-68,19,78,-53,-24,-14,34,82,48,-14,-9
-82,-68,14,75,-48,-26,-14,29,82,48,-14,-24
-78,-53,24,65,-51,-14,0,24,78,43,-9,-29
-73,-43,29,58,-51,-7,19,34,82,48,4,-14
-73,-53,19,63,-46,-17,24,39,92,58,9,-4
-78,-53,24,65,-51,-14,24,53,97,68,14,4
-82,-53,29,68,-56,-12,19,58,102,73,19,9
-97,-58,39,78,-68,-9,29,68,102,78,9,9
-97,-73,24,85,-61,-24,29,78,117,82,14,14
-97,-78,19,87,-58,-29,29,78,117,82,14,14
-102,-102,0,102,-51,-51,14,78,107,73,14,9
-87,-87,0,87,-43,-43,14,78,97,58,14,9
-87,-97,-9,92,-39,-53,14,73,97,58,24,9
-87,-82,4,85,-46,-39,4,73,92,53,0,0
-87,-53,34,70,-61,-9,4,73,92,53,-9,0
-73,-68,4,70,-39,-31,19,87,107,58,-4,9
-63,-73,-9,68,-26,-41,29,87,112,63,9,14
-48,-82,-34,65,-7,-58,34,78,117,58,0,14
-39,-102,-63,70,12,-82,43,78,112,48,-9,14
-53,-97,-43,75,-4,-70,34,73,102,43,0,9
-58,-92,-34,75,-12,-63,29,73,97,43,4,14
-58,-82,-24,70,-17,-53,19,78,92,39,-14,9
-63,-73,-9,68,-26,-41,14,78,82,34,-29,-4
-53,-78,-24,65,-14,-51,14,68,82,34,-14,0
-48,-78,-29,63,-9,-53,9,68,82,29,-14,9
-48,-78,-29,63,-9,-53,9,68,78,24,-24,14
-53,-92,-39,73,-7,-65,9,63,78,9,-29,9
-63,-102,-39,82,-12,-70,9,63,78,9,-14,9
-53,-92,-39,73,-7,-65,-4,63,78,14,-9,14
-53,-82,-29,68,-12,-56,-4,63,68,14,-19,19
-53,-82,-29,68,-12,-56,4,68,58,19,-24,24
-48,-92,-43,70,-2,-68,4,53,58,-4,-34,4
-39,-97,-58,68,9,-78,4,48,58,-4,-39,0
-34,-97,-63,65,14,-80,0,48,58,-9,-43,-4
-19,-97,-78,58,29,-87,0,43,58,-14,-48,-9
-19,-78,-58,48,19,-68,9,39,43,-4,-48,-9
-29,-87,-58,58,14,-73,19,39,39,-9,-58,-19
-39,-102,-63,70,12,-82,24,39,39,-19,-58,-9
-39,-107,-68,73,14,-87,29,39,39,-9,-68,-9
-29,-117,-87,73,29,-102,14,34,34,-24,-68,-14
-29,-117,-87,73,29,-102,9,29,29,-29,-68,-19
-29,-117,-87,73,29,-102,4,24,24,-34,-68,-24
-29,-117,-87,73,29,-102,0,19,19,-39,-68,-29
-39,-131,-92,85,26,-112,4,29,19,-34,-58,-19
-29,-131,-102,80,36,-117,0,29,24,-34,-63,-19
-29,-136,-107,82,39,-122,-4,19,24,-29,-78,-24
-29,-141,-112,85,41,-126,0,9,24,-24,-78,-24
-24,-141,-117,82,46,-129,24,9,14,-34,-78,-34
-29,-131,-102,80,36,-117,29,9,14,-43,-78,-43
-34,-131,-97,82,31,-114,24,9,4,-48,-82,-43
-39,-136,-97,87,29,-117,29,9,4,-53,-82,-43
-34,-151,-117,92,41,-134,9,-4,0,-68,-87,-53
-34,-136,-102,85,34,-119,0,-9,-4,-68,-92,-58
-24,-122,-97,73,36,-109,0,-9,-4,-68,-97,-63
-24,-117,-92,70,34,-104,-9,-9,-4,-58,-97,-68
-19,-117,-97,68,39,-107,-4,-4,-9,-68,-87,-63
-14,-112,-97,63,41,-104,-4,-9,-9,-68,-97,-53
-4,-117,-112,61,53,-114,-4,-9,-9,-68,-102,-48
0,-122,-122,61,61,-122,-4,-4,-9,-73,-102,-43
-4,-131,-126,68,61,-129,9,-4,-9,-63,-102,-53
-9,-131,-122,70,56,-126,9,-4,-9,-63,-102,-48
-4,-117,-112,61,53,-114,34,-9,-9,-73,-107,-48
-29,-117,-87,73,29,-102,43,-19,-19,-82,-107,-48
-48,-131,-82,90,17,-107,29,-14,-19,-82,-107,-58
-29,-141,-112,85,41,-126,14,-14,-24,-82,-107,-58
-19,-156,-136,87,58,-146,9,-14,-24,-87,-107,-63
-39,-185,-146,112,53,-165,9,-14,-24,-87,-107,-63
-39,-170,-131,104,46,-151,-4,-19,-34,-87,-107,-63
-39,-156,-117,97,39,-136,-9,-24,-34,-92,-117,-68
-43,-141,-97,92,26,-119,-14,-34,-34,-92,-117,-68
-43,-122,-78,82,17,-100,-19,-39,-34,-92,-112,-68
-34,-112,-78,73,21,-95,-24,-39,-39,-82,-102,-58
-34,-117,-82,75,24,-100,-9,-34,-34,-82,-102,-63
-34,-126,-92,80,29,-109,-4,-29,-29,-78,-102,-63
-34,-136,-102,85,34,-119,0,-24,-19,-78,-102,-58
-29,-151,-122,90,46,-136,14,-19,-19,-82,-112,-58
-39,-146,-107,92,34,-126,14,-19,-19,-82,-112,-58
-24,-141,-117,82,46,-129,14,-29,-29,-82,-112,-63
-14,-112,-97,63,41,-104,14,-34,-34,-82,-117,-68
-14,-102,-87,58,36,-95,14,-43,-43,-92,-112,-87
-14,-117,-102,65,43,-109,14,-43,-43,-102,-112,-78
-14,-131,-117,73,51,-124,14,-39,-39,-102,-107,-68
-14,-122,-107,68,46,-114,14,-39,-39,-102,-107,-68
-19,-122,-102,70,41,-112,4,-39,-29,-92,-122,-73
-19,-136,-117,78,48,-126,0,-39,-34,-92,-131,-73
-29,-146,-117,87,43,-131,-4,-39,-34,-92,-117,-73
-29,-151,-122,90,46,-136,-9,-39,-39,-92,-117,-73
0,-112,-112,56,56,-112,0,-24,-19,-82,-97,-63
0,-131,-131,65,65,-131,19,-19,-19,-92,-82,-63
1976,1825,-151,-1900,1063,836,346,297,292,224,219,258
-68,-283,-214,175,73,-248,136,-19,-180,-488,-444,-287
-278,-800,-522,539,122,-661,673,19,-814,-2352,-2000,-1278
-307,-824,-517,566,104,-671,668,4,-800,-2464,-2074,-1278
131,302,170,-217,-19,236,-439,-102,497,1395,1185,834
244,585,341,-414,-48,463,-673,-122,732,2371,1981,1283
-9,-48,-39,29,14,-43,-43,-97,-73,87,53,9
-53,-58,-4,56,-24,-31,-24,-136,-151,-185,-146,-92
19,190,170,-104,-75,180,-224,-165,48,458,414,283
-4,92,97,-43,-51,95,-97,-165,-117,9,53,48
-43,29,73,7,-58,51,-39,-175,-204,-224,-151,-68
-68,73,141,-2,-104,107,-78,-200,-122,0,53,82
-78,39,117,19,-97,78,-34,-180,-107,-48,14,43
-53,-4,48,29,-51,21,-4,-131,-82,-122,-63,-14
-24,-24,0,24,-12,-12,-14,-82,4,-24,-14,0
-14,-82,-68,48,26,-75,-4,-29,87,19,-34,-19
14,-156,-170,70,92,-163,0,29,175,19,-73,-58
53,-185,-239,65,146,-212,-14,87,283,92,-48,-48
48,-209,-258,80,153,-234,-19,122,356,122,-29,-34
14,-253,-268,119,141,-261,-14,136,375,102,-39,-24
-4,-287,-283,146,139,-285,-4,151,385,73,-9,-19
34,-331,-366,148,200,-348,-4,175,409,48,24,19
92,-366,-458,136,275,-412,4,219,453,-9,24,43
126,-409,-536,141,331,-473,34,278,512,-92,-9,4
141,-473,-614,165,378,-544,34,326,546,-175,-39,-14
126,-551,-678,212,402,-614,34,351,541,-224,-63,-19
151,-605,-756,226,453,-680,34,395,522,-253,-92,-58
209,-658,-868,224,539,-763,14,453,512,-341,-146,-92
234,-697,-932,231,583,-814,24,512,488,-527,-248,-122
263,-722,-985,229,624,-854,43,605,492,-732,-361,-151
292,-766,-1058,236,675,-912,29,707,488,-912,-448,-161
302,-858,-1161,278,732,-1010,0,829,468,-1146,-531,-141
341,-932,-1273,295,807,-1102,-9,961,419,-1381,-619,-136
414,-1015,-1429,300,922,-1222,-19,1073,341,-1615,-678,-126
502,-1112,-1615,305,1058,-1363,-19,1220,317,-1820,-732,-92
561,-1224,-1786,331,1173,-1505,0,1356,312,-1995,-824,-82
