I,II,III,aVR,aVL,aVF,V1,V2,V3,V4,V5,V6
0,614,614,-307,-307,614,-897,-1668,-2410,-1737,-380,507
0,614,614,-307,-307,614,-897,-1668,-2410,-1737,-380,507
0,614,614,-307,-307,614,-897,-1668,-2410,-1737,-380,507
0,614,614,-307,-307,614,-897,-1668,-2410,-1737,-380,507
0,614,614,-307,-307,614,-873,-1615,-2337,-1683,-356,517
0,614,614,-307,-307,614,-858,-1571,-2264,-1629,-341,527
0,614,614,-307,-307,614,-844,-1527,-2191,-1576,-326,536
0,614,614,-307,-307,614,-829,-1483,-2117,-1522,-312,546
-9,590,600,-290,-305,595,-795,-1410,-2030,-1473,-287,566
-9,566,575,-278,-292,570,-771,-1346,-1942,-1424,-263,575
-9,541,551,-265,-280,546,-746,-1283,-1854,-1376,-239,585
-9,517,527,-253,-268,522,-722,-1220,-1766,-1327,-214,595
-9,483,492,-236,-251,488,-683,-1156,-1678,-1254,-170,624
-9,458,468,-224,-239,463,-653,-1093,-1590,-1190,-136,644
-9,434,444,-212,-226,439,-624,-1029,-1503,-1127,-102,663
-9,409,419,-200,-214,414,-595,-966,-1415,-1063,-68,683
-9,380,390,-185,-200,385,-570,-897,-1327,-1010,-48,678
-9,361,370,-175,-190,366,-546,-839,-1249,-966,-39,673
-9,341,351,-165,-180,346,-522,-780,-1171,-922,-29,668
-9,322,331,-156,-170,326,-497,-722,-1093,-878,-19,663
-9,307,317,-148,-163,312,-468,-673,-1015,-839,-29,624
-9,292,302,-141,-156,297,-439,-624,-946,-800,-39,585
-9,278,287,-134,-148,283,-409,-575,-878,-761,-48,546
-9,263,273,-126,-141,268,-380,-527,-810,-722,-58,507
-9,239,248,-114,-129,244,-351,-468,-736,-673,-87,453
-9,224,234,-107,-122,229,-322,-419,-663,-634,-107,400
-9,209,219,-100,-114,214,-292,-370,-590,-595,-126,346
-9,195,204,-92,-107,200,-263,-322,-517,-556,-146,292
-9,170,180,-80,-95,175,-224,-268,-439,-497,-156,234
-9,146,156,-68,-82,151,-185,-214,-361,-439,-165,175
-9,122,131,-56,-70,126,-146,-161,-283,-380,-175,117
-9,97,107,-43,-58,102,-107,-107,-204,-322,-185,58
-19,87,107,-34,-63,97,-73,-63,-126,-253,-170,19
-19,87,107,-34,-63,97,-48,-19,-58,-195,-156,-9
-19,87,107,-34,-63,97,-24,24,9,-136,-141,-39
-19,87,107,-34,-63,97,0,68,78,-78,-126,-68
-9,63,73,-26,-41,68,24,112,126,-39,-112,-82
-9,48,58,-19,-34,53,48,146,175,0,-97,-97
-9,34,43,-12,-26,39,73,180,224,39,-82,-112
-9,19,29,-4,-19,24,97,214,273,78,-68,-126
-19,14,34,2,-26,24,112,229,297,102,-58,-136
-19,9,29,4,-24,19,117,244,322,126,-48,-136
-19,4,24,7,-21,14,122,258,346,151,-39,-136
-19,0,19,9,-19,9,126,273,370,175,-29,-136
-19,9,29,4,-24,19,136,283,385,185,-39,-151
-19,19,39,0,-29,29,136,283,390,185,-39,-156
-19,29,48,-4,-34,39,136,283,395,185,-39,-161
-19,39,58,-9,-39,48,136,283,400,185,-39,-165
-19,29,48,-4,-34,39,136,287,405,195,-29,-165
-19,29,48,-4,-34,39,136,292,409,195,-29,-165
-19,29,48,-4,-34,39,136,297,414,195,-29,-165
-19,29,48,-4,-34,39,136,302,419,195,-29,-165
-19,29,48,-4,-34,39,141,317,429,209,-24,-156
-19,29,48,-4,-34,39,146,322,439,214,-19,-156
-19,29,48,-4,-34,39,151,326,448,219,-14,-156
-19,29,48,-4,-34,39,156,331,458,224,-9,-156
-19,29,48,-4,-34,39,156,341,463,229,-9,-165
-19,29,48,-4,-34,39,156,341,468,234,-9,-165
-19,29,48,-4,-34,39,156,341,473,239,-9,-165
-19,29,48,-4,-34,39,156,341,478,244,-9,-165
-9,39,48,-14,-29,43,156,341,488,244,-19,-175
-9,39,48,-14,-29,43,156,341,488,244,-19,-175
-9,39,48,-14,-29,43,156,341,488,244,-19,-175
-9,39,48,-14,-29,43,156,341,488,244,-19,-175
-9,29,39,-9,-24,34,165,356,497,258,-4,-165
-9,19,29,-4,-19,24,165,361,507,263,0,-165
-9,9,19,0,-14,14,165,366,517,268,4,-165
-9,0,9,4,-9,4,165,370,527,273,9,-165
0,-9,-9,4,4,-9,170,380,536,278,19,-156
0,-9,-9,4,4,-9,175,380,536,283,19,-156
0,-9,-9,4,4,-9,180,380,536,287,19,-156
0,-9,-9,4,4,-9,185,380,536,292,19,-156
0,0,0,0,0,0,175,370,546,292,9,-161
0,9,9,-4,-4,9,175,370,546,292,9,-165
0,19,19,-9,-9,19,175,370,546,292,9,-170
0,29,29,-14,-14,29,175,370,546,292,9,-175
0,39,39,-19,-19,39,175,375,561,307,9,-175
0,39,39,-19,-19,39,175,380,566,312,9,-175
0,39,39,-19,-19,39,175,385,570,317,9,-175
0,39,39,-19,-19,39,175,390,575,322,9,-175
9,39,29,-24,-9,34,175,400,580,331,19,-185
9,39,29,-24,-9,34,175,400,585,331,19,-185
9,39,29,-24,-9,34,175,400,590,331,19,-185
9,39,29,-24,-9,34,175,400,595,331,19,-185
9,29,19,-19,-4,24,185,409,600,336,29,-175
9,29,19,-19,-4,24,185,409,605,341,29,-175
9,29,19,-19,-4,24,185,409,610,346,29,-175
9,29,19,-19,-4,24,185,409,614,351,29,-175
9,29,19,-19,-4,24,195,414,629,356,39,-175
9,29,19,-19,-4,24,195,419,634,361,39,-175
9,29,19,-19,-4,24,195,424,639,366,39,-175
9,29,19,-19,-4,24,195,429,644,370,39,-175
9,29,19,-19,-4,24,195,439,653,380,39,-175
9,29,19,-19,-4,24,195,439,653,380,39,-175
9,29,19,-19,-4,24,195,439,653,380,39,-175
9,29,19,-19,-4,24,195,439,653,380,39,-175
19,29,9,-24,4,19,204,448,658,390,48,-175
19,29,9,-24,4,19,204,448,663,390,48,-175
19,29,9,-24,4,19,204,448,668,390,48,-175
19,29,9,-24,4,19,204,448,673,390,48,-175
19,34,14,-26,2,24,195,448,683,400,48,-175
19,39,19,-29,0,29,195,448,683,400,48,-175
19,43,24,-31,-2,34,195,448,683,400,48,-175
19,48,29,-34,-4,39,195,448,683,400,48,-175
19,58,39,-39,-9,48,195,448,688,405,48,-175
19,58,39,-39,-9,48,195,448,692,409,48,-175
19,58,39,-39,-9,48,195,448,697,414,48,-175
19,58,39,-39,-9,48,195,448,702,419,48,-175
29,58,29,-43,0,43,195,458,712,429,48,-185
29,58,29,-43,0,43,195,458,712,429,48,-185
29,58,29,-43,0,43,195,458,712,429,48,-185
29,58,29,-43,0,43,195,458,712,429,48,-185
19,68,48,-43,-14,58,195,458,712,439,58,-175
19,68,48,-43,-14,58,195,458,712,439,58,-175
19,68,48,-43,-14,58,195,458,712,439,58,-175
19,68,48,-43,-14,58,195,458,712,439,58,-175
19,58,39,-39,-9,48,195,458,717,448,68,-165
19,58,39,-39,-9,48,195,458,722,448,68,-165
19,58,39,-39,-9,48,195,458,727,448,68,-165
19,58,39,-39,-9,48,195,458,732,448,68,-165
9,58,48,-34,-19,53,195,468,732,458,78,-165
9,58,48,-34,-19,53,195,468,732,458,78,-165
9,58,48,-34,-19,53,195,468,732,458,78,-165
9,58,48,-34,-19,53,195,468,732,458,78,-165
0,78,78,-39,-39,78,185,458,732,458,87,-165
0,87,87,-43,-43,87,185,458,732,458,87,-165
0,97,97,-48,-48,97,185,458,732,458,87,-165
0,107,107,-53,-53,107,185,458,732,458,87,-165
-9,97,107,-43,-58,102,175,448,722,468,87,-156
-9,97,107,-43,-58,102,175,448,722,468,87,-156
-9,97,107,-43,-58,102,175,448,722,468,87,-156
-9,97,107,-43,-58,102,175,448,722,468,87,-156
-9,97,107,-43,-58,102,175,448,712,458,97,-146
-9,97,107,-43,-58,102,175,448,712,458,97,-146
-9,97,107,-43,-58,102,175,448,712,458,97,-146
-9,97,107,-43,-58,102,175,448,712,458,97,-146
-9,107,117,-48,-63,112,165,444,702,458,97,-146
-9,107,117,-48,-63,112,165,439,702,458,97,-146
-9,107,117,-48,-63,112,165,434,702,458,97,-146
-9,107,117,-48,-63,112,165,429,702,458,97,-146
-19,107,126,-43,-73,117,165,419,688,453,97,-136
-19,107,126,-43,-73,117,165,419,683,448,97,-136
-19,107,126,-43,-73,117,165,419,678,444,97,-136
-19,107,126,-43,-73,117,165,419,673,439,97,-136
-9,102,112,-46,-61,107,156,414,658,434,102,-122
-9,97,107,-43,-58,102,156,409,653,429,107,-117
-9,92,102,-41,-56,97,156,405,649,424,112,-112
-9,87,97,-39,-53,92,156,400,644,419,117,-107
0,87,87,-43,-43,87,151,385,634,414,112,-107
0,87,87,-43,-43,87,146,380,624,409,107,-107
0,87,87,-43,-43,87,141,375,614,405,102,-107
0,87,87,-43,-43,87,136,370,605,400,97,-107
0,97,97,-48,-48,97,122,361,590,390,87,-107
0,107,107,-53,-53,107,117,351,575,380,87,-107
0,117,117,-58,-58,117,112,341,561,370,87,-107
0,126,126,-63,-63,126,107,331,546,361,87,-107
0,131,131,-65,-65,131,102,312,531,351,78,-97
0,136,136,-68,-68,136,97,302,517,341,78,-97
0,141,141,-70,-70,141,92,292,502,331,78,-97
0,146,146,-73,-73,146,87,283,488,322,78,-97
0,141,141,-70,-70,141,78,268,468,307,78,-92
0,136,136,-68,-68,136,78,263,458,302,78,-87
0,131,131,-65,-65,131,78,258,448,297,78,-82
0,126,126,-63,-63,126,78,253,439,292,78,-78
0,136,136,-68,-68,136,63,234,414,273,73,-68
0,136,136,-68,-68,136,58,224,400,263,68,-68
0,136,136,-68,-68,136,53,214,385,253,63,-68
0,136,136,-68,-68,136,48,204,370,244,58,-68
-9,146,156,-68,-82,151,43,195,356,234,48,-58
-9,146,156,-68,-82,151,39,185,341,224,48,-58
-9,146,156,-68,-82,151,34,175,326,214,48,-58
-9,146,156,-68,-82,151,29,165,312,204,48,-58
-9,146,156,-68,-82,151,24,151,292,195,39,-48
-9,146,156,-68,-82,151,19,146,283,185,39,-48
-9,146,156,-68,-82,151,14,141,273,175,39,-48
-9,146,156,-68,-82,151,9,136,263,165,39,-48
-9,136,146,-63,-78,141,0,122,244,146,29,-39
-9,126,136,-58,-73,131,0,117,234,136,29,-39
-9,117,126,-53,-68,122,0,112,224,126,29,-39
-9,107,117,-48,-63,112,0,107,214,117,29,-39
-9,117,126,-53,-68,122,-9,92,195,102,24,-48
-9,117,126,-53,-68,122,-9,87,185,97,19,-48
-9,117,126,-53,-68,122,-9,82,175,92,14,-48
-9,117,126,-53,-68,122,-9,78,165,87,9,-48
0,122,122,-61,-61,122,-14,68,151,73,0,-58
0,126,126,-63,-63,126,-19,58,136,58,-9,-58
0,131,131,-65,-65,131,-24,48,122,43,-19,-58
0,136,136,-68,-68,136,-29,39,107,29,-29,-58
0,146,146,-73,-73,146,-39,34,92,14,-34,-63
0,146,146,-73,-73,146,-39,29,87,9,-39,-68
0,146,146,-73,-73,146,-39,24,82,4,-43,-73
0,146,146,-73,-73,146,-39,19,78,0,-48,-78
0,136,136,-68,-68,136,-39,9,73,-4,-53,-87
0,136,136,-68,-68,136,-39,9,68,-9,-58,-87
0,136,136,-68,-68,136,-39,9,63,-14,-63,-87
0,136,136,-68,-68,136,-39,9,58,-19,-68,-87
9,126,117,-68,-53,122,-48,0,53,-29,-78,-87
9,126,117,-68,-53,122,-48,0,48,-29,-78,-87
9,126,117,-68,-53,122,-48,0,43,-29,-78,-87
9,126,117,-68,-53,122,-48,0,39,-29,-78,-87
0,136,136,-68,-68,136,-48,0,48,-29,-78,-87
0,136,136,-68,-68,136,-48,0,48,-29,-78,-87
0,136,136,-68,-68,136,-48,0,48,-29,-78,-87
0,136,136,-68,-68,136,-48,0,48,-29,-78,-87
-9,151,161,-70,-85,156,-48,0,48,-29,-78,-92
-9,156,165,-73,-87,161,-48,0,48,-29,-78,-97
-9,161,170,-75,-90,165,-48,0,48,-29,-78,-102
-9,165,175,-78,-92,170,-48,0,48,-29,-78,-107
0,156,156,-78,-78,156,-39,0,48,-39,-78,-107
0,146,146,-73,-73,146,-39,0,48,-39,-78,-107
0,136,136,-68,-68,136,-39,0,48,-39,-78,-107
0,126,126,-63,-63,126,-39,0,48,-39,-78,-107
9,136,126,-73,-58,131,-48,-9,39,-48,-87,-117
9,136,126,-73,-58,131,-48,-9,39,-48,-87,-117
9,136,126,-73,-58,131,-48,-9,39,-48,-87,-117
9,136,126,-73,-58,131,-48,-9,39,-48,-87,-117
19,146,126,-82,-53,136,-39,-4,43,-43,-78,-107
19,146,126,-82,-53,136,-39,0,48,-39,-78,-107
19,146,126,-82,-53,136,-39,4,53,-34,-78,-107
19,146,126,-82,-53,136,-39,9,58,-29,-78,-107
9,141,131,-75,-61,136,-43,0,48,-24,-73,-102
9,136,126,-73,-58,131,-48,0,48,-19,-68,-97
9,131,122,-70,-56,126,-53,0,48,-14,-63,-92
9,126,117,-68,-53,122,-58,0,48,-9,-58,-87
19,131,112,-75,-46,122,-63,-9,34,-14,-63,-92
19,136,117,-78,-48,126,-68,-19,29,-19,-68,-97
19,141,122,-80,-51,131,-73,-29,24,-24,-73,-102
19,146,126,-82,-53,136,-78,-39,19,-29,-78,-107
19,146,126,-82,-53,136,-87,-34,29,-19,-68,-107
19,146,126,-82,-53,136,-87,-29,29,-19,-68,-107
19,146,126,-82,-53,136,-87,-24,29,-19,-68,-107
19,146,126,-82,-53,136,-87,-19,29,-19,-68,-107
19,136,117,-78,-48,126,-87,-9,39,-14,-63,-92
19,136,117,-78,-48,126,-87,-9,39,-9,-58,-87
19,136,117,-78,-48,126,-87,-9,39,-4,-53,-82
19,136,117,-78,-48,126,-87,-9,39,0,-48,-78
19,117,97,-68,-39,107,-82,0,48,0,-39,-68
19,107,87,-63,-34,97,-78,0,48,0,-39,-68
19,97,78,-58,-29,87,-73,0,48,0,-39,-68
19,87,68,-53,-24,78,-68,0,48,0,-39,-68
9,78,68,-43,-29,73,-58,0,43,-14,-43,-82
9,78,68,-43,-29,73,-58,0,39,-19,-48,-87
9,78,68,-43,-29,73,-58,0,34,-24,-53,-92
9,78,68,-43,-29,73,-58,0,29,-29,-58,-97
0,68,68,-34,-34,68,-53,0,19,-29,-63,-102
0,58,58,-29,-29,58,-48,0,19,-29,-68,-107
0,48,48,-24,-24,48,-43,0,19,-29,-73,-112
0,39,39,-19,-19,39,-39,0,19,-29,-78,-117
0,29,29,-14,-14,29,-39,-4,14,-39,-92,-122
0,29,29,-14,-14,29,-39,-9,9,-48,-97,-126
0,29,29,-14,-14,29,-39,-14,4,-58,-102,-131
0,29,29,-14,-14,29,-39,-19,0,-68,-107,-136
0,19,19,-9,-9,19,-48,-29,-9,-68,-107,-146
0,19,19,-9,-9,19,-48,-29,-9,-68,-107,-146
0,19,19,-9,-9,19,-48,-29,-9,-68,-107,-146
0,19,19,-9,-9,19,-48,-29,-9,-68,-107,-146
9,9,0,-9,4,4,-39,-29,-9,-68,-107,-146
9,0,-9,-4,9,-4,-39,-29,-9,-68,-107,-146
9,-9,-19,0,14,-14,-39,-29,-9,-68,-107,-146
9,-19,-29,4,19,-24,-39,-29,-9,-68,-107,-146
9,-19,-29,4,19,-24,-48,-29,-19,-68,-107,-146
9,-19,-29,4,19,-24,-48,-29,-19,-68,-107,-146
9,-19,-29,4,19,-24,-48,-29,-19,-68,-107,-146
9,-19,-29,4,19,-24,-48,-29,-19,-68,-107,-146
0,-19,-19,9,9,-19,-48,-39,-29,-73,-112,-156
0,-19,-19,9,9,-19,-48,-39,-29,-78,-117,-156
0,-19,-19,9,9,-19,-48,-39,-29,-82,-122,-156
0,-19,-19,9,9,-19,-48,-39,-29,-87,-126,-156
-9,-29,-19,19,4,-24,-48,-39,-39,-97,-136,-156
-9,-29,-19,19,4,-24,-48,-39,-39,-97,-136,-156
-9,-29,-19,19,4,-24,-48,-39,-39,-97,-136,-156
-9,-29,-19,19,4,-24,-48,-39,-39,-97,-136,-156
-9,-34,-24,21,7,-29,-58,-48,-48,-107,-136,-156
-9,-39,-29,24,9,-34,-58,-48,-48,-107,-136,-156
-9,-43,-34,26,12,-39,-58,-48,-48,-107,-136,-156
-9,-48,-39,29,14,-43,-58,-48,-48,-107,-136,-156
-9,-58,-48,34,19,-53,-58,-58,-58,-107,-136,-156
-9,-58,-48,34,19,-53,-58,-58,-58,-107,-136,-156
-9,-58,-48,34,19,-53,-58,-58,-58,-107,-136,-156
-9,-58,-48,34,19,-53,-58,-58,-58,-107,-136,-156
-9,-58,-48,34,19,-53,-68,-58,-58,-97,-131,-151
-9,-58,-48,34,19,-53,-68,-58,-58,-97,-126,-146
-9,-58,-48,34,19,-53,-68,-58,-58,-97,-122,-141
-9,-58,-48,34,19,-53,-68,-58,-58,-97,-117,-136
-9,-73,-63,41,26,-68,-63,-48,-48,-107,-117,-126
-9,-87,-78,48,34,-82,-58,-48,-48,-107,-117,-126
-9,-102,-92,56,41,-97,-53,-48,-48,-107,-117,-126
-9,-117,-107,63,48,-112,-48,-48,-48,-107,-117,-126
-19,-92,-73,56,26,-82,-58,-63,-58,-117,-126,-136
-14,-92,-78,53,31,-85,-68,-68,-68,-126,-136,-146
-14,-78,-63,46,24,-70,-73,-68,-78,-136,-146,-156
-19,-58,-39,39,9,-48,-82,-73,-87,-146,-161,-165
-14,-63,-48,39,17,-56,-82,-78,-82,-141,-151,-156
-14,-68,-53,41,19,-61,-82,-78,-82,-141,-146,-156
-14,-73,-58,43,21,-65,-87,-78,-82,-141,-146,-156
-14,-78,-63,46,24,-70,-87,-78,-82,-141,-146,-156
-14,-78,-63,46,24,-70,-82,-78,-82,-136,-146,-146
-9,-78,-68,43,29,-73,-82,-78,-82,-136,-146,-146
-9,-78,-68,43,29,-73,-82,-78,-82,-136,-146,-146
-9,-78,-68,43,29,-73,-82,-78,-82,-136,-146,-146
-19,-82,-63,51,21,-73,-73,-78,-82,-136,-146,-146
-19,-87,-68,53,24,-78,-73,-78,-82,-136,-146,-146
-19,-97,-78,58,29,-87,-73,-78,-82,-136,-146,-146
-19,-102,-82,61,31,-92,-73,-78,-82,-136,-146,-146
-19,-117,-97,68,39,-107,-68,-63,-73,-126,-146,-146
-19,-126,-107,73,43,-117,-68,-63,-78,-131,-151,-146
-19,-136,-117,78,48,-126,-68,-68,-78,-131,-151,-151
-19,-146,-126,82,53,-136,-68,-68,-73,-131,-151,-151
-9,-165,-156,87,73,-161,-68,-63,-73,-131,-136,-141
-9,-165,-156,87,73,-161,-68,-63,-73,-131,-136,-141
-9,-151,-141,80,65,-146,-68,-68,-73,-131,-136,-146
-9,-141,-131,75,61,-136,-73,-73,-73,-136,-141,-151
0,-141,-141,70,70,-141,-82,-82,-78,-146,-151,-161
0,-156,-156,78,78,-156,-78,-78,-78,-136,-146,-156
4,-156,-161,75,82,-158,-78,-78,-82,-136,-146,-151
4,-151,-156,73,80,-153,-78,-82,-92,-136,-141,-151
-4,-146,-141,75,68,-143,-87,-82,-92,-146,-146,-156
-4,-141,-136,73,65,-139,-87,-82,-92,-151,-151,-161
-4,-146,-141,75,68,-143,-87,-82,-92,-151,-156,-165
-4,-141,-136,73,65,-139,-87,-82,-87,-151,-161,-170
-4,-117,-112,61,53,-114,-92,-92,-92,-156,-161,-170
-4,-107,-102,56,48,-104,-92,-92,-97,-156,-161,-170
-4,-107,-102,56,48,-104,-97,-82,-102,-156,-161,-170
-4,-112,-107,58,51,-109,-102,-82,-107,-156,-161,-170
-4,-112,-107,58,51,-109,-102,-87,-97,-146,-161,-170
-4,-102,-97,53,46,-100,-102,-87,-97,-156,-161,-170
-4,-112,-107,58,51,-109,-102,-87,-97,-156,-161,-170
-9,-136,-126,73,58,-131,-102,-87,-97,-151,-161,-170
0,-161,-161,80,80,-161,-97,-78,-87,-146,-151,-161
0,-170,-170,85,85,-170,-92,-78,-87,-146,-151,-161
4,-180,-185,87,95,-183,-87,-78,-87,-146,-151,-156
4,-185,-190,90,97,-187,-82,-78,-87,-146,-156,-156
4,-170,-175,82,90,-173,-87,-82,-92,-146,-156,-165
4,-156,-161,75,82,-158,-92,-87,-97,-146,-151,-165
4,-131,-136,63,70,-134,-97,-92,-102,-146,-151,-161
4,-126,-131,61,68,-129,-107,-97,-107,-146,-151,-161
14,-136,-151,61,82,-143,-97,-87,-97,-146,-161,-165
14,-136,-151,61,82,-143,-92,-82,-92,-146,-156,-165
14,-141,-156,63,85,-148,-92,-82,-92,-141,-156,-161
14,-141,-156,63,85,-148,-92,-82,-92,-136,-156,-161
14,-141,-156,63,85,-148,-102,-92,-102,-141,-156,-175
14,-141,-156,63,85,-148,-102,-92,-102,-146,-156,-175
14,-141,-156,63,85,-148,-102,-92,-102,-156,-161,-175
14,-136,-151,61,82,-143,-102,-92,-102,-161,-161,-175
14,-151,-165,68,90,-158,-92,-82,-102,-156,-151,-165
19,-165,-185,73,102,-175,-92,-82,-102,-156,-151,-170
19,-161,-180,70,100,-170,-92,-82,-102,-156,-151,-170
19,-165,-185,73,102,-175,-92,-82,-102,-151,-151,-170
9,-170,-180,80,95,-175,-82,-73,-92,-151,-151,-165
4,-170,-175,82,90,-173,-82,-73,-92,-156,-151,-165
0,-165,-165,82,82,-165,-82,-73,-92,-161,-151,-165
-4,-165,-161,85,78,-163,-87,-78,-92,-165,-151,-165
-4,-224,-219,114,107,-222,-58,-48,-63,-117,-112,-126
0,-204,-204,102,102,-204,-68,-58,-73,-107,-112,-131
0,-112,-112,56,56,-112,-107,-87,-102,-146,-151,-170
0,-122,-122,61,61,-122,-97,-78,-92,-141,-146,-165
-9,-165,-156,87,73,-161,-87,-53,-53,-122,-126,-146
-9,-156,-146,82,68,-151,-87,-39,-29,-117,-126,-151
-9,-136,-126,73,58,-131,-82,0,19,-92,-117,-151
0,-136,-136,68,68,-136,-58,53,87,-48,-82,-131
-9,-136,-126,73,58,-131,-39,102,165,-4,-63,-126
-9,-126,-117,68,53,-122,-19,175,239,29,-48,-126
-9,-112,-102,61,46,-107,4,234,312,78,-29,-117
0,-107,-107,53,53,-107,9,248,322,97,-9,-102
-9,-107,-97,58,43,-102,4,195,253,78,0,-78
-14,-102,-87,58,36,-95,-19,102,165,58,4,-58
-4,-58,-53,31,24,-56,-58,34,97,39,14,-53
-4,-34,-29,19,12,-31,-97,-63,-14,4,19,-39
-4,-53,-48,29,21,-51,-141,-195,-185,-39,19,-14
-9,-68,-58,39,24,-63,-185,-356,-400,-97,29,4
-9,-53,-43,31,17,-48,-248,-536,-644,-175,19,19
-4,-19,-14,12,4,-17,-312,-727,-917,-283,-4,39
-4,-4,0,4,-2,-2,-366,-873,-1127,-361,-9,63
-4,19,24,-7,-14,21,-400,-995,-1283,-414,-14,82
-4,68,73,-31,-39,70,-458,-1132,-1449,-483,-14,112
4,107,102,-56,-48,104,-512,-1254,-1625,-551,-29,126
4,161,156,-82,-75,158,-566,-1371,-1781,-610,-29,146
4,214,209,-109,-102,212,-610,-1483,-1908,-658,-9,170
4,258,253,-131,-124,256,-663,-1590,-2030,-688,4,200
4,278,273,-141,-134,275,-707,-1712,-2142,-712,29,244
4,302,297,-153,-146,300,-780,-1844,-2274,-751,53,292
4,322,317,-163,-156,319,-834,-1952,-2425,-849,43,326
0,341,341,-170,-170,341,-878,-2064,-2571,-951,14,341
0,356,356,-178,-178,356,-932,-2161,-2703,-1054,-19,356
4,419,414,-212,-204,417,-995,-2259,-2825,-1137,-34,370
4,492,488,-248,-241,490,-1058,-2366,-2937,-1190,-58,385
0,546,546,-273,-273,546,-1078,-2435,-3020,-1249,-92,390
0,570,570,-285,-285,570,-1073,-2454,-3050,-1307,-117,395
0,580,580,-290,-290,580,-1088,-2464,-3093,-1405,-156,405
0,561,561,-280,-280,561,-1098,-2483,-3162,-1561,-229,395
-9,546,556,-268,-283,551,-1088,-2464,-3191,-1698,-297,380
-9,536,546,-263,-278,541,-1083,-2405,-3176,-1800,-366,390
-9,531,541,-261,-275,536,-1083,-2361,-3162,-1898,-424,390
-9,512,522,-251,-265,517,-1088,-2303,-3118,-1952,-458,390
-9,512,522,-251,-265,517,-1088,-2249,-3069,-1976,-483,400
-9,536,546,-263,-278,541,-1107,-2200,-3030,-2039,-536,380
-9,517,527,-253,-268,522,-1088,-2122,-2967,-2093,-590,361
-9,458,468,-224,-239,463,-1058,-2025,-2840,-2044,-570,380
-9,419,429,-204,-219,424,-1015,-1932,-2713,-1956,-522,419
-9,429,439,-209,-224,434,-990,-1878,-2625,-1903,-497,444
-14,448,463,-217,-239,456,-980,-1854,-2586,-1873,-492,448
-4,453,458,-224,-231,456,-976,-1834,-2532,-1834,-483,453
-4,453,458,-224,-231,456,-946,-1751,-2415,-1737,-448,463
-4,429,434,-212,-219,431,-907,-1654,-2274,-1644,-405,463
-4,409,414,-202,-209,412,-888,-1586,-2186,-1586,-370,473
-4,380,385,-187,-195,383,-858,-1527,-2108,-1546,-351,483
-14,326,341,-156,-178,334,-810,-1434,-2010,-1512,-351,483
-14,287,302,-136,-158,295,-756,-1351,-1898,-1483,-351,463
-4,268,273,-131,-139,270,-732,-1263,-1771,-1385,-287,483
-4,239,244,-117,-124,241,-692,-1176,-1654,-1273,-200,522
-14,204,219,-95,-117,212,-649,-1098,-1546,-1185,-165,522
-14,180,195,-82,-104,187,-624,-1024,-1449,-1102,-136,522
-14,170,185,-78,-100,178,-605,-932,-1322,-990,-78,527
-14,156,170,-70,-92,163,-561,-854,-1210,-922,-53,527
-9,117,126,-53,-68,122,-517,-795,-1122,-868,-43,512
-9,92,102,-41,-56,97,-478,-717,-1029,-805,-29,497
-9,78,87,-34,-48,82,-434,-649,-936,-741,-19,473
0,73,73,-36,-36,73,-414,-600,-868,-707,-43,424
0,63,63,-31,-31,63,-390,-561,-805,-683,-73,361
0,34,34,-17,-17,34,-375,-502,-741,-658,-112,302
0,4,4,-2,-2,4,-356,-458,-683,-634,-146,244
4,-19,-24,7,14,-21,-322,-419,-619,-605,-175,195
4,-39,-43,17,24,-41,-287,-351,-536,-566,-180,151
-4,-92,-87,48,41,-90,-229,-273,-424,-512,-190,112
0,-170,-170,85,85,-170,-180,-209,-336,-453,-190,73
0,-126,-126,63,63,-126,-170,-180,-292,-414,-224,4
0,-68,-68,34,34,-68,-161,-156,-248,-370,-248,-68
-9,-117,-107,63,48,-112,-126,-112,-185,-307,-229,-97
-9,-136,-126,73,58,-131,-102,-73,-122,-244,-209,-122
-9,-97,-87,53,39,-92,-82,-43,-68,-195,-190,-136
-9,-97,-87,53,39,-92,-58,9,4,-136,-161,-141
-9,-107,-97,58,43,-102,-29,58,78,-78,-146,-136
-9,-87,-78,48,34,-82,-4,107,136,-34,-122,-146
-9,-92,-82,51,36,-87,14,146,195,-4,-107,-151
-9,-136,-126,73,58,-131,34,170,219,14,-102,-165
-9,-175,-165,92,78,-170,58,200,234,29,-97,-175
-9,-219,-209,114,100,-214,73,224,273,58,-68,-175
-19,-244,-224,131,102,-234,78,244,302,87,-53,-165
-19,-239,-219,129,100,-229,78,258,317,87,-58,-175
-19,-234,-214,126,97,-224,87,263,331,97,-53,-175
-19,-224,-204,122,92,-214,92,273,331,107,-53,-175
-19,-200,-180,109,80,-190,97,278,336,107,-53,-180
-14,-165,-151,90,68,-158,97,273,331,126,-53,-190
-14,-151,-136,82,61,-143,92,268,336,126,-53,-200
-14,-136,-122,75,53,-129,87,268,351,131,-48,-200
-14,-126,-112,70,48,-119,82,263,351,141,-48,-200
-14,-141,-126,78,56,-134,92,268,361,141,-58,-209
-9,-146,-136,78,63,-141,92,273,366,141,-53,-209
-9,-161,-151,85,70,-156,97,283,375,151,-53,-209
-9,-180,-170,95,80,-175,102,292,385,161,-43,-204
-4,-195,-190,100,92,-192,117,307,400,156,-43,-195
-4,-224,-219,114,107,-222,122,312,405,165,-43,-190
-4,-239,-234,122,114,-236,122,317,409,161,-39,-190
-4,-248,-244,126,119,-246,117,317,409,156,-39,-195
-4,-219,-214,112,104,-217,112,307,414,165,-34,-190
-4,-200,-195,102,95,-197,112,307,419,175,-29,-190
-4,-180,-175,92,85,-178,107,317,429,185,-14,-185
-4,-165,-161,85,78,-163,102,322,444,200,-9,-185
-4,-165,-161,85,78,-163,112,331,448,204,-19,-185
-4,-165,-161,85,78,-163,122,336,448,204,-19,-185
-9,-161,-151,85,70,-156,122,341,453,209,-19,-185
-9,-161,-151,85,70,-156,126,346,458,214,-14,-185
-4,-175,-170,90,82,-173,136,356,473,204,-14,-175
-4,-175,-170,90,82,-173,131,356,473,209,-19,-185
-4,-180,-175,92,85,-178,131,361,473,214,-19,-185
-4,-190,-185,97,90,-187,136,361,483,214,-14,-185
4,-185,-190,90,97,-187,141,370,497,229,-14,-180
4,-185,-190,90,97,-187,141,370,502,234,-9,-180
0,-185,-185,92,92,-185,141,370,502,239,-9,-180
0,-185,-185,92,92,-185,141,370,517,244,-9,-180
-9,-195,-185,102,87,-190,136,370,507,248,-19,-185
-4,-195,-190,100,92,-192,141,375,517,253,-14,-190
-4,-195,-190,100,92,-192,141,375,522,253,-14,-195
-4,-190,-185,97,90,-187,141,375,522,258,-14,-200
4,-195,-200,95,102,-197,141,395,536,263,-24,-200
4,-204,-209,100,107,-207,146,400,546,263,-14,-200
4,-209,-214,102,109,-212,146,400,551,268,-14,-200
4,-214,-219,104,112,-217,146,395,556,263,-14,-200
-4,-214,-209,109,102,-212,156,405,556,263,-9,-200
-4,-214,-209,109,102,-212,161,405,561,268,-9,-200
-4,-209,-204,107,100,-207,161,409,570,278,-9,-200
-4,-200,-195,102,95,-197,161,419,590,283,0,-200
-4,-180,-175,92,85,-178,156,409,585,292,9,-200
-4,-175,-170,90,82,-173,156,409,580,297,9,-195
-4,-175,-170,90,82,-173,161,419,585,307,19,-195
-4,-170,-165,87,80,-168,165,434,590,317,24,-195
-4,-165,-161,85,78,-163,156,429,600,317,14,-195
-4,-161,-156,82,75,-158,156,424,600,322,19,-195
-9,-161,-151,85,70,-156,156,429,605,336,19,-190
-9,-161,-151,85,70,-156,156,424,619,346,19,-190
-9,-165,-156,87,73,-161,165,429,624,346,24,-180
-9,-165,-156,87,73,-161,165,434,629,346,29,-180
-9,-170,-161,90,75,-165,161,444,639,346,34,-180
-9,-170,-161,90,75,-165,161,453,649,356,39,-180
-19,-165,-146,92,63,-156,170,453,653,361,43,-190
-19,-161,-141,90,61,-151,165,453,653,356,39,-190
-14,-156,-141,85,63,-148,165,458,658,351,34,-190
-14,-151,-136,82,61,-143,165,458,663,346,29,-190
-14,-146,-131,80,58,-139,170,453,653,341,19,-200
-14,-161,-146,87,65,-153,175,453,658,341,19,-200
-14,-180,-165,97,75,-173,180,458,668,341,24,-190
-14,-175,-161,95,73,-168,180,473,678,346,29,-190
-14,-161,-146,87,65,-153,175,468,673,356,39,-190
-14,-136,-122,75,53,-129,165,463,678,366,39,-195
-14,-112,-97,63,41,-104,161,458,678,375,39,-195
-14,-117,-102,65,43,-109,161,453,678,385,48,-185
-14,-122,-107,68,46,-114,170,463,683,390,53,-185
-14,-107,-92,61,39,-100,170,463,688,395,53,-185
-14,-102,-87,58,36,-95,170,463,688,400,48,-185
-14,-92,-78,53,31,-85,170,458,688,405,48,-185
-14,-112,-97,63,41,-104,170,458,692,409,63,-185
-14,-126,-112,70,48,-119,170,463,697,414,68,-180
-14,-156,-141,85,63,-148,170,468,707,424,78,-170
-14,-175,-161,95,73,-168,175,478,722,429,87,-165
-4,-161,-156,82,75,-158,175,468,717,419,78,-165
-4,-151,-146,78,70,-148,170,468,712,429,73,-170
-4,-141,-136,73,65,-139,170,473,707,424,73,-175
-4,-136,-131,70,63,-134,170,473,702,419,68,-180
-4,-126,-122,65,58,-124,170,463,702,400,63,-170
-4,-131,-126,68,61,-129,170,463,702,400,63,-170
-4,-131,-126,68,61,-129,170,463,697,400,63,-165
-4,-131,-126,68,61,-129,170,463,697,405,63,-161
-4,-112,-107,58,51,-109,161,458,697,414,78,-161
-4,-97,-92,51,43,-95,161,458,697,424,82,-165
-4,-87,-82,46,39,-85,156,453,697,434,82,-165
-4,-82,-78,43,36,-80,156,439,697,444,87,-165
-4,-97,-92,51,43,-95,161,439,688,429,87,-156
-9,-102,-92,56,41,-97,161,448,697,429,87,-151
-9,-107,-97,58,43,-102,161,458,697,424,92,-146
-9,-112,-102,61,46,-107,156,448,692,419,92,-146
-9,-122,-112,65,51,-117,161,453,688,429,92,-141
-9,-131,-122,70,56,-126,161,453,692,429,97,-131
-9,-141,-131,75,61,-136,161,453,688,429,102,-122
-9,-151,-141,80,65,-146,161,453,692,429,107,-112
-19,-122,-102,70,41,-112,151,439,673,429,107,-122
-19,-112,-92,65,36,-102,146,439,673,429,117,-117
-19,-102,-82,61,31,-92,146,439,668,424,117,-117
-14,-87,-73,51,29,-80,141,429,663,414,117,-117
-14,-78,-63,46,24,-70,146,429,649,409,102,-122
-14,-82,-68,48,26,-75,146,424,644,405,102,-122
-14,-92,-78,53,31,-85,146,424,644,405,107,-112
-14,-78,-63,46,24,-70,141,424,634,405,107,-112
-4,-73,-68,39,31,-70,141,419,624,400,117,-102
-9,-97,-87,53,39,-92,136,409,614,390,117,-102
-9,-112,-102,61,46,-107,131,405,605,385,117,-97
-9,-122,-112,65,51,-117,131,390,600,385,117,-87
0,-102,-102,51,51,-102,117,370,585,385,112,-87
0,-92,-92,46,46,-92,112,361,570,375,112,-87
0,-82,-82,41,41,-82,107,356,566,361,112,-78
0,-68,-68,34,34,-68,97,346,541,356,112,-78
0,-78,-78,39,39,-78,92,331,522,326,97,-82
0,-78,-78,39,39,-78,92,326,507,317,97,-82
0,-78,-78,39,39,-78,92,322,488,302,102,-73
0,-78,-78,39,39,-78,92,312,478,297,102,-68
-9,-53,-43,31,17,-48,82,292,468,292,87,-73
-9,-39,-29,24,9,-34,68,283,448,283,87,-73
-9,-29,-19,19,4,-24,63,273,429,278,87,-78
-4,-19,-14,12,4,-17,48,258,409,273,87,-73
-4,4,9,0,-7,7,48,248,395,258,82,-73
-4,-4,0,4,-2,-2,34,229,366,248,68,-78
-4,-4,0,4,-2,-2,39,219,356,234,68,-78
-4,-9,-4,7,0,-7,48,219,361,224,73,-63
4,-19,-24,7,14,-21,39,219,346,200,63,-58
4,-14,-19,4,12,-17,34,204,326,190,63,-58
9,-24,-34,7,21,-29,24,190,302,165,48,-63
9,-34,-43,12,26,-39,19,185,283,156,43,-63
19,-24,-43,2,31,-34,29,170,283,156,43,-63
19,-29,-48,4,34,-39,24,161,258,141,39,-53
19,-34,-53,7,36,-43,19,156,258,131,34,-53
19,-34,-53,7,36,-43,14,156,248,117,34,-53
19,-24,-43,2,31,-34,19,146,229,117,39,-34
19,-19,-39,0,29,-29,14,141,219,112,39,-29
19,-24,-43,2,31,-34,9,126,200,107,43,-29
19,-19,-39,0,29,-29,4,117,185,97,43,-29
14,-4,-19,-4,17,-12,-9,112,185,92,39,-29
9,4,-4,-7,7,0,-9,102,180,97,34,-29
9,9,0,-9,4,4,-9,102,161,87,29,-29
4,24,19,-14,-7,21,-14,92,151,78,24,-29
4,9,4,-7,0,7,-4,82,131,73,4,-39
4,-4,-9,0,7,-7,-9,82,131,58,4,-39
4,-9,-14,2,9,-12,-9,78,122,48,0,-39
4,-9,-14,2,9,-12,-19,68,107,34,-9,-43
14,-9,-24,-2,19,-17,-9,68,102,29,-9,-48
14,-29,-43,7,29,-36,-9,63,92,19,-19,-58
9,-48,-58,19,34,-53,-9,63,87,4,-24,-58
4,-63,-68,29,36,-65,-9,58,87,-4,-24,-58
14,-53,-68,19,41,-61,-19,53,73,-4,-24,-58
14,-39,-53,12,34,-46,-19,43,68,-4,-34,-63
14,-9,-24,-2,19,-17,-19,39,68,-4,-34,-63
14,-9,-24,-2,19,-17,-14,39,68,0,-29,-63
14,-43,-58,14,36,-51,-9,43,78,0,-24,-53
14,-58,-73,21,43,-65,-4,53,78,0,-19,-48
9,-68,-78,29,43,-73,0,68,82,0,-19,-48
9,-82,-92,36,51,-87,4,78,87,0,-14,-48
0,-78,-78,39,39,-78,4,63,82,4,-24,-63
0,-73,-73,36,36,-73,4,63,78,-4,-29,-68
0,-68,-68,34,34,-68,4,63,78,-9,-29,-68
0,-63,-63,31,31,-63,4,63,78,-9,-34,-68
0,-34,-34,17,17,-34,4,53,68,-19,-43,-73
0,-24,-24,12,12,-24,4,53,68,-14,-43,-73
0,-14,-14,7,7,-14,4,53,68,-14,-48,-73
0,-4,-4,2,2,-4,4,53,68,-14,-48,-73
-9,-14,-4,12,-2,-9,14,53,73,-19,-43,-82
-9,-24,-14,17,2,-19,14,63,73,-14,-43,-82
-9,-34,-24,21,7,-29,19,68,82,-9,-43,-73
-9,-63,-53,36,21,-58,19,68,82,-9,-43,-73
-9,-53,-43,31,17,-48,29,68,87,-29,-48,-73
-9,-58,-48,34,19,-53,24,73,82,-29,-48,-82
-4,-63,-58,34,26,-61,24,68,73,-14,-43,-73
-4,-73,-68,39,31,-70,34,87,87,-9,-43,-73
4,-78,-82,36,43,-80,34,97,107,9,-39,-73
4,-92,-97,43,51,-95,34,97,102,14,-34,-68
4,-87,-92,41,48,-90,29,92,102,14,-29,-68
4,-78,-82,36,43,-80,24,92,107,19,-19,-63
0,-58,-58,29,29,-58,14,78,97,9,-29,-58
0,-43,-43,21,21,-43,4,73,97,24,-24,-58
4,-24,-29,9,17,-26,-4,68,97,34,-24,-58
4,4,0,-4,2,2,-29,53,92,34,-24,-58
4,4,0,-4,2,2,-29,48,78,29,-34,-68
9,-4,-14,-2,12,-9,-29,43,73,19,-29,-68
14,-4,-19,-4,17,-12,-29,39,68,9,-34,-68
19,4,-14,-12,17,-4,-29,34,63,0,-34,-68
19,24,4,-21,7,14,-34,43,58,4,-24,-58
19,24,4,-21,7,14,-34,43,58,14,-19,-48
19,14,-4,-17,12,4,-34,48,58,19,-19,-48
19,14,-4,-17,12,4,-34,48,68,24,-19,-48
24,14,-9,-19,17,2,-34,53,73,9,-19,-53
24,-4,-29,-9,26,-17,-34,58,78,9,-19,-48
24,-14,-39,-4,31,-26,-29,63,78,9,-14,-43
24,-39,-63,7,43,-51,-29,68,82,19,-14,-39
24,-48,-73,12,48,-61,-19,78,92,29,4,-43
24,-53,-78,14,51,-65,-14,73,87,34,4,-43
24,-63,-87,19,56,-75,-9,68,82,29,-9,-48
24,-78,-102,26,63,-90,-9,68,68,34,-9,-58
14,-73,-87,29,51,-80,0,78,68,29,-9,-68
14,-87,-102,36,58,-95,4,82,73,29,-14,-68
14,-87,-102,36,58,-95,4,68,73,24,-24,-73
14,-82,-97,34,56,-90,0,63,68,14,-34,-78
14,-87,-102,36,58,-95,4,63,53,-4,-39,-87
14,-87,-102,36,58,-95,4,58,48,-14,-48,-92
14,-92,-107,39,61,-100,4,53,48,-24,-53,-97
14,-102,-117,43,65,-109,9,53,48,-29,-53,-97
24,-122,-146,48,85,-134,29,58,48,-14,-43,-97
24,-126,-151,51,87,-139,29,58,48,-19,-48,-102
24,-126,-151,51,87,-139,29,53,43,-24,-63,-107
24,-126,-151,51,87,-139,39,48,43,-19,-63,-117
14,-126,-141,56,78,-134,34,53,53,-14,-63,-112
14,-136,-151,61,82,-143,34,53,48,-19,-68,-117
14,-146,-161,65,87,-153,24,53,43,-19,-68,-117
14,-151,-165,68,90,-158,24,53,43,-19,-68,-117
4,-156,-161,75,82,-158,43,63,58,0,-58,-112
4,-165,-170,80,87,-168,43,68,53,4,-48,-107
4,-156,-161,75,82,-158,43,73,48,0,-48,-112
4,-156,-161,75,82,-158,39,63,48,0,-43,-112
4,-141,-146,68,75,-143,29,58,43,-19,-58,-117
4,-151,-156,73,80,-153,29,58,43,-24,-58,-117
4,-146,-151,70,78,-148,29,58,39,-29,-58,-117
9,-131,-141,61,75,-136,29,53,34,-39,-58,-117
9,-131,-141,61,75,-136,29,53,34,-29,-73,-131
9,-141,-151,65,80,-146,29,53,34,-24,-73,-131
9,-146,-156,68,82,-151,29,58,34,-24,-68,-126
9,-146,-156,68,82,-151,29,58,34,-24,-68,-126
9,-136,-146,63,78,-141,19,43,29,-43,-78,-117
4,-122,-126,58,65,-124,19,39,24,-43,-78,-117
4,-122,-126,58,65,-124,19,39,14,-43,-78,-117
4,-122,-126,58,65,-124,19,48,14,-48,-78,-117
4,-131,-136,63,70,-134,29,48,19,-43,-78,-122
4,-136,-141,65,73,-139,29,43,14,-43,-78,-122
4,-141,-146,68,75,-143,29,43,14,-48,-73,-122
4,-146,-151,70,78,-148,34,43,14,-43,-68,-122
-4,-141,-136,73,65,-139,29,43,19,-34,-68,-117
-4,-131,-126,68,61,-129,29,43,19,-34,-68,-117
-4,-126,-122,65,58,-124,24,39,14,-34,-68,-117
-4,-117,-112,61,53,-114,19,39,14,-34,-68,-117
-4,-117,-112,61,53,-114,19,48,14,-34,-58,-107
-4,-131,-126,68,61,-129,19,48,4,-48,-68,-107
-4,-102,-97,53,46,-100,19,48,4,-48,-73,-107
0,-87,-87,43,43,-87,19,39,19,-19,-48,-97
0,-107,-107,53,53,-107,24,43,19,-39,-63,-102
0,-126,-126,63,63,-126,29,48,19,-48,-68,-107
0,-146,-146,73,73,-146,34,53,19,-58,-73,-112
0,-165,-165,82,82,-165,39,58,19,-68,-78,-117
4,-175,-180,85,92,-178,29,48,9,-53,-73,-107
4,-170,-175,82,90,-173,34,53,9,-48,-68,-107
0,-161,-161,80,80,-161,34,53,9,-43,-68,-107
-4,-156,-151,80,73,-153,34,48,4,-43,-63,-107
4,-136,-141,65,73,-139,19,34,-4,-53,-63,-112
4,-126,-131,61,68,-129,9,29,-4,-53,-68,-117
4,-117,-122,56,63,-119,4,24,-4,-53,-73,-122
4,-107,-112,51,58,-109,4,19,-4,-48,-78,-126
9,-117,-126,53,68,-122,14,24,-4,-58,-78,-117
9,-117,-126,53,68,-122,14,29,-4,-58,-78,-117
9,-117,-126,53,68,-122,14,34,-4,-58,-78,-117
9,-117,-126,53,68,-122,14,39,-4,-58,-78,-117
9,-122,-131,56,70,-126,24,39,-4,-58,-78,-107
9,-131,-141,61,75,-136,24,39,-4,-58,-78,-107
9,-136,-146,63,78,-141,24,39,-4,-58,-78,-107
9,-136,-146,63,78,-141,19,43,-4,-58,-78,-107
0,-136,-136,68,68,-136,24,53,-4,-63,-82,-107
0,-136,-136,68,68,-136,29,48,0,-63,-82,-112
0,-136,-136,68,68,-136,34,48,9,-63,-82,-112
0,-146,-146,73,73,-146,39,53,14,-63,-78,-102
0,-136,-136,68,68,-136,24,48,9,-58,-78,-112
0,-112,-112,56,56,-112,19,39,4,-53,-78,-117
0,-92,-92,46,46,-92,9,29,0,-53,-82,-122
0,-82,-82,41,41,-82,4,24,-4,-48,-82,-122
9,-117,-126,53,68,-122,19,39,0,-48,-78,-126
14,-126,-141,56,78,-134,19,39,0,-48,-78,-122
14,-131,-146,58,80,-139,19,34,-4,-48,-73,-122
14,-141,-156,63,85,-148,19,34,-4,-48,-73,-122
4,-136,-141,65,73,-139,19,43,-4,-63,-73,-117
4,-141,-146,68,75,-143,19,43,-4,-63,-73,-112
4,-136,-141,65,73,-139,19,43,0,-63,-73,-107
4,-117,-122,56,63,-119,19,43,0,-58,-73,-102
4,-107,-112,51,58,-109,34,43,9,-53,-63,-92
4,-117,-122,56,63,-119,34,53,9,-48,-63,-92
4,-131,-136,63,70,-134,34,53,9,-43,-63,-92
4,-122,-126,58,65,-124,34,48,9,-39,-63,-92
-4,-117,-112,61,53,-114,43,48,9,-58,-73,-97
-4,-122,-117,63,56,-119,43,48,9,-58,-73,-102
-9,-141,-131,75,61,-136,43,48,9,-53,-73,-107
-9,-151,-141,80,65,-146,43,48,9,-48,-73,-112
-9,-146,-136,78,63,-141,34,58,9,-48,-73,-107
-4,-141,-136,73,65,-139,34,58,9,-48,-73,-97
-4,-131,-126,68,61,-129,34,58,9,-48,-78,-92
-4,-126,-122,65,58,-124,34,58,9,-48,-78,-87
-14,-117,-102,65,43,-109,43,48,9,-48,-73,-97
-14,-107,-92,61,39,-100,43,48,9,-48,-73,-92
-14,-117,-102,65,43,-109,39,48,9,-48,-73,-92
-14,-117,-102,65,43,-109,39,48,9,-48,-73,-97
-4,-102,-97,53,46,-100,39,43,14,-43,-68,-107
-4,-102,-97,53,46,-100,34,43,14,-34,-68,-102
-4,-97,-92,51,43,-95,29,43,14,-24,-68,-102
-4,-92,-87,48,41,-90,24,43,14,-19,-68,-107
-4,-112,-107,58,51,-109,39,58,24,-24,-58,-97
-4,-131,-126,68,61,-129,43,63,24,-34,-63,-97
-4,-146,-141,75,68,-143,48,68,24,-39,-63,-97
-4,-165,-161,85,78,-163,53,73,24,-43,-63,-97
-9,-161,-151,85,70,-156,43,68,14,-48,-73,-92
-9,-136,-126,73,58,-131,43,63,14,-53,-73,-92
-9,-122,-112,65,51,-117,43,58,14,-53,-73,-92
-14,-112,-97,63,41,-104,43,53,14,-48,-73,-87
-14,-97,-82,56,34,-90,43,53,14,-39,-63,-87
-14,-87,-73,51,29,-80,43,53,14,-39,-63,-87
-14,-82,-68,48,26,-75,39,48,14,-39,-63,-87
-14,-78,-63,46,24,-70,39,48,14,-39,-63,-87
-9,-136,-126,73,58,-131,58,78,43,19,-24,-63
-9,-112,-102,61,46,-107,39,58,24,0,-43,-82
-9,-34,-24,21,7,-29,0,39,4,-43,-78,-117
-9,-78,-68,43,29,-73,19,63,24,-34,-68,-97
0,-126,-126,63,63,-126,48,97,68,-19,-48,-82
0,-107,-107,53,53,-107,53,126,107,-4,-39,-82
9,-107,-117,48,63,-112,68,170,165,39,-14,-63
9,-107,-117,48,63,-112,78,219,234,82,14,-48
9,-58,-68,24,39,-63,87,273,297,107,19,-58
9,-24,-34,7,21,-29,112,341,390,136,29,-58
9,-29,-39,9,24,-34,126,375,439,156,48,-43
9,-29,-39,9,24,-34,112,331,380,136,48,-29
14,-24,-39,4,26,-31,97,239,283,126,63,-19
24,0,-24,-12,24,-12,78,180,214,165,112,24
14,4,-9,-9,12,-2,48,112,131,161,136,48
14,-4,-19,-4,17,-12,4,-9,-39,87,107,63
9,-9,-19,0,14,-14,-39,-170,-253,-19,78,63
9,4,-4,-7,7,0,-92,-341,-478,-117,48,68
14,29,14,-21,0,21,-156,-522,-741,-214,34,78
14,43,29,-29,-7,36,-209,-688,-971,-322,19,92
14,78,63,-46,-24,70,-253,-800,-1137,-375,24,112
24,117,92,-70,-34,104,-312,-927,-1302,-424,24,131
24,156,131,-90,-53,143,-366,-1068,-1498,-502,19,165
24,190,165,-107,-70,178,-409,-1185,-1683,-600,0,195
14,234,219,-124,-102,226,-453,-1288,-1830,-717,-19,219
14,268,253,-141,-119,261,-488,-1356,-1932,-775,-14,239
14,307,292,-161,-139,300,-522,-1449,-2015,-780,19,273
4,331,326,-168,-161,329,-575,-1561,-2137,-810,43,312
4,370,366,-187,-180,368,-658,-1698,-2298,-917,24,346
9,409,400,-209,-195,405,-722,-1830,-2474,-1039,-24,341
9,434,424,-222,-207,429,-766,-1947,-2635,-1171,-87,346
4,478,473,-241,-234,475,-819,-2044,-2786,-1283,-122,370
4,522,517,-263,-256,519,-893,-2132,-2888,-1356,-136,405
0,566,566,-283,-283,566,-922,-2200,-2962,-1415,-170,409
0,610,610,-305,-305,610,-927,-2239,-3001,-1512,-234,395
0,658,658,-329,-329,658,-941,-2269,-3035,-1610,-292,375
0,668,668,-334,-334,668,-951,-2288,-3084,-1698,-346,375
0,653,653,-326,-326,653,-971,-2288,-3113,-1795,-405,370
0,653,653,-326,-326,653,-976,-2259,-3108,-1888,-463,361
0,688,688,-344,-344,688,-976,-2225,-3084,-1966,-531,351
0,707,707,-353,-353,707,-990,-2176,-3069,-2039,-595,351
0,707,707,-353,-353,707,-1000,-2122,-3020,-2083,-629,351
0,683,683,-341,-341,683,-990,-2054,-2962,-2127,-673,361
0,634,634,-317,-317,634,-990,-1995,-2898,-2191,-727,341
0,614,614,-307,-307,614,-961,-1908,-2810,-2191,-746,331
0,614,614,-307,-307,614,-936,-1825,-2674,-2103,-717,370
0,605,605,-302,-302,605,-912,-1761,-2557,-1991,-673,395
4,605,600,-305,-297,602,-902,-1727,-2498,-1942,-658,400
4,590,585,-297,-290,588,-878,-1698,-2464,-1922,-639,414
4,541,536,-273,-265,539,-849,-1625,-2366,-1854,-595,424
4,497,492,-251,-244,495,-810,-1517,-2225,-1771,-570,424
4,468,463,-236,-229,466,-771,-1429,-2117,-1712,-546,414
4,448,444,-226,-219,446,-741,-1371,-2020,-1644,-517,414
-4,414,419,-204,-212,417,-702,-1298,-1912,-1561,-488,414
4,375,370,-190,-183,373,-668,-1215,-1800,-1503,-488,395
14,356,341,-185,-163,348,-624,-1127,-1683,-1395,-414,414
4,336,331,-170,-163,334,-585,-1049,-1566,-1263,-317,463
-4,302,307,-148,-156,305,-551,-980,-1478,-1205,-283,463
-4,268,273,-131,-139,270,-507,-897,-1381,-1141,-263,463
-4,239,244,-117,-124,241,-468,-795,-1234,-1019,-195,478
-4,195,200,-95,-102,197,-434,-707,-1102,-922,-131,497
0,107,107,-53,-53,107,-390,-619,-995,-849,-112,483
0,82,82,-41,-41,82,-341,-551,-893,-785,-107,448
0,175,175,-87,-87,175,-346,-531,-839,-732,-117,395
-9,190,200,-90,-104,195,-317,-492,-771,-668,-112,356
-9,73,82,-31,-46,78,-263,-414,-678,-605,-102,351
-9,14,24,-2,-17,19,-229,-346,-605,-570,-112,322
-9,24,34,-7,-21,29,-209,-302,-556,-566,-136,263
-4,29,34,-12,-19,31,-185,-253,-492,-546,-165,204
-4,9,14,-2,-9,12,-151,-204,-419,-507,-190,141
-4,4,9,0,-7,7,-122,-146,-326,-444,-190,92
0,4,4,-2,-2,4,-102,-112,-258,-366,-209,34
-9,0,9,4,-9,4,-73,-82,-204,-326,-214,-4
-9,-29,-19,19,4,-24,-34,-29,-141,-273,-209,-39
-9,-58,-48,34,19,-53,0,14,-87,-219,-190,-58
-9,-58,-48,34,19,-53,4,43,-34,-175,-170,-73
-9,-29,-19,19,4,-24,4,73,19,-126,-161,-87
-19,-39,-19,29,0,-29,29,117,92,-68,-131,-102
-19,-58,-39,39,9,-48,58,165,165,-9,-107,-107
-19,-58,-39,39,9,-48,82,204,224,34,-82,-107
-19,-53,-34,36,7,-43,112,234,263,73,-78,-122
-9,-68,-58,39,24,-63,131,248,287,112,-63,-126
-9,-87,-78,48,34,-82,146,268,302,126,-58,-136
-9,-82,-73,46,31,-78,151,283,331,146,-48,-136
-9,-97,-87,53,39,-92,165,312,361,165,-24,-126
-9,-107,-97,58,43,-102,165,331,385,190,-19,-117
-9,-117,-107,63,48,-112,175,341,409,204,-4,-117
-9,-122,-112,65,51,-117,180,356,419,219,4,-117
-9,-112,-102,61,46,-107,185,366,434,224,14,-122
-4,-117,-112,61,53,-114,190,356,429,234,4,-112
-4,-122,-117,63,56,-119,190,356,434,234,4,-122
-4,-126,-122,65,58,-124,190,361,448,239,9,-122
-4,-136,-131,70,63,-134,190,361,448,248,9,-122
-14,-126,-112,70,48,-119,180,356,448,239,0,-131
-9,-107,-97,58,43,-102,180,361,453,239,4,-131
-9,-97,-87,53,39,-92,185,370,463,248,4,-131
-9,-92,-82,51,36,-87,190,380,473,258,14,-126
-14,-82,-68,48,26,-75,195,375,478,258,14,-126
-14,-97,-82,56,34,-90,200,380,483,273,14,-122
-14,-97,-82,56,34,-90,200,385,488,273,19,-122
-14,-92,-78,53,31,-85,195,385,488,273,19,-126
-14,-97,-82,56,34,-90,200,390,497,287,29,-122
-14,-102,-87,58,36,-95,209,395,507,292,29,-122
-14,-107,-92,61,39,-100,214,409,522,297,39,-117
-14,-117,-102,65,43,-109,219,419,541,307,39,-117
-14,-131,-117,73,51,-124,219,419,546,302,39,-117
-14,-136,-122,75,53,-129,229,424,546,302,39,-117
-19,-136,-117,78,48,-126,229,429,551,307,39,-117
-19,-141,-122,80,51,-131,234,434,556,312,43,-117
-14,-126,-112,70,48,-119,234,434,570,322,43,-117
-14,-117,-102,65,43,-109,229,434,570,326,39,-126
-14,-112,-97,63,41,-104,229,439,570,331,39,-126
-14,-112,-97,63,41,-104,234,439,580,331,43,-126
-14,-102,-87,58,36,-95,239,448,590,326,43,-122
-14,-97,-82,56,34,-90,239,448,590,331,48,-122
-19,-92,-73,56,26,-82,239,448,585,336,48,-122
-19,-87,-68,53,24,-78,239,448,595,341,48,-122
-19,-97,-78,58,29,-87,244,458,605,346,48,-122
-14,-97,-82,56,34,-90,248,463,614,351,53,-122
-14,-97,-82,56,34,-90,248,463,619,351,53,-122
-14,-92,-78,53,31,-85,248,463,619,356,53,-122
-4,-102,-97,53,46,-100,239,473,624,366,43,-131
-4,-107,-102,56,48,-104,244,478,634,370,53,-131
-4,-107,-102,56,48,-104,244,478,639,380,53,-131
-4,-107,-102,56,48,-104,244,473,644,380,53,-131
-4,-107,-102,56,48,-104,244,483,634,370,58,-131
-4,-107,-102,56,48,-104,248,483,639,375,58,-131
-4,-102,-97,53,46,-100,248,488,649,385,58,-131
-4,-92,-87,48,41,-90,248,497,668,390,68,-131
4,-78,-82,36,43,-80,263,497,678,395,68,-131
4,-78,-82,36,43,-80,263,497,678,405,68,-126
4,-82,-87,39,46,-85,268,507,688,419,78,-126
4,-82,-87,39,46,-85,273,522,697,434,82,-126
14,-92,-107,39,61,-100,273,522,707,424,82,-117
14,-92,-107,39,61,-100,273,522,707,429,87,-117
9,-97,-107,43,58,-102,273,531,712,444,87,-112
9,-102,-112,46,61,-107,273,531,727,453,87,-112
9,-82,-92,36,51,-87,268,527,717,448,78,-117
9,-68,-78,29,43,-73,263,522,717,444,78,-122
9,-58,-68,24,39,-63,253,522,722,439,78,-126
9,-43,-53,17,31,-48,248,522,727,444,78,-131
19,-43,-63,12,41,-53,258,512,732,463,87,-131
19,-43,-63,12,41,-53,253,512,732,463,87,-131
24,-43,-68,9,46,-56,253,517,736,463,87,-131
24,-43,-68,9,46,-56,253,517,741,463,87,-131
14,-34,-48,9,31,-41,248,507,732,468,87,-131
14,-43,-58,14,36,-51,253,512,736,468,87,-131
14,-58,-73,21,43,-65,258,522,746,468,92,-122
14,-48,-63,17,39,-56,258,541,756,473,97,-122
4,-53,-58,24,31,-56,268,541,766,492,102,-112
4,-39,-43,17,24,-41,263,541,775,502,107,-117
4,-24,-29,9,17,-26,263,541,780,512,112,-117
4,-39,-43,17,24,-41,268,541,785,522,126,-107
4,-43,-48,19,26,-46,268,541,780,512,122,-107
4,-29,-34,12,19,-31,268,541,785,512,122,-107
4,-24,-29,9,17,-26,268,541,785,512,117,-107
4,-14,-19,4,12,-17,268,536,785,512,117,-107
4,0,-4,-2,4,-2,258,531,775,522,117,-112
4,0,-4,-2,4,-2,258,531,775,522,117,-112
4,-14,-19,4,12,-17,258,531,780,527,122,-107
4,-19,-24,7,14,-21,263,536,790,527,126,-107
-4,-29,-24,17,9,-26,273,546,800,522,131,-92
-4,-24,-19,14,7,-21,268,546,800,536,131,-92
-4,-19,-14,12,4,-17,268,551,800,536,136,-92
-4,-19,-14,12,4,-17,268,551,800,536,136,-92
-4,-4,0,4,-2,-2,268,541,800,527,131,-102
-4,-4,0,4,-2,-2,268,541,800,527,131,-102
-4,0,4,2,-4,2,268,541,795,527,131,-97
-4,4,9,0,-7,7,268,541,795,531,131,-92
-14,9,24,2,-19,17,278,556,805,536,141,-87
-14,9,24,2,-19,17,278,556,805,541,151,-87
-14,4,19,4,-17,12,273,551,805,546,156,-82
-14,-4,9,9,-12,2,273,536,805,551,165,-78
-14,0,14,7,-14,7,258,517,790,541,161,-87
-19,4,24,7,-21,14,258,527,795,546,156,-82
-19,9,29,4,-24,19,258,536,790,546,156,-78
-19,14,34,2,-26,24,253,527,780,546,151,-78
-19,34,53,-7,-36,43,253,517,771,536,156,-78
-19,34,53,-7,-36,43,248,512,771,536,156,-73
-19,34,53,-7,-36,43,244,507,761,536,156,-68
-19,34,53,-7,-36,43,239,502,761,536,156,-63
-9,29,39,-9,-24,34,234,492,761,546,165,-53
-9,24,34,-7,-21,29,234,497,761,546,175,-48
-9,19,29,-4,-19,24,239,502,756,541,175,-48
-4,19,24,-7,-14,21,239,497,751,531,175,-48
-4,34,39,-14,-21,36,234,488,727,527,161,-43
-4,34,39,-14,-21,36,234,483,722,522,161,-43
-4,29,34,-12,-19,31,234,483,722,522,165,-34
-4,48,53,-21,-29,51,229,483,712,522,165,-34
4,68,63,-36,-29,65,219,468,707,507,156,-43
0,58,58,-29,-29,58,214,458,692,497,156,-43
0,58,58,-29,-29,58,209,453,678,492,156,-39
0,63,63,-31,-31,63,209,439,668,492,156,-29
0,53,53,-26,-26,53,204,429,649,483,156,-19
0,53,53,-26,-26,53,200,419,639,473,161,-19
0,53,53,-26,-26,53,195,414,639,458,165,-9
0,58,58,-29,-29,58,185,405,619,453,170,-9
-9,68,78,-29,-43,73,180,390,600,439,156,-4
-9,68,78,-29,-43,73,180,385,585,434,156,-4
-9,68,78,-29,-43,73,180,380,566,424,161,4
-9,68,78,-29,-43,73,180,370,556,424,161,9
-9,73,82,-31,-46,78,175,356,541,400,146,0
-9,78,87,-34,-48,82,165,351,527,390,146,4
-9,78,87,-34,-48,82,165,346,512,385,146,4
-4,78,82,-36,-43,80,156,336,497,380,146,14
-14,78,92,-31,-53,85,156,331,488,370,146,19
-14,63,78,-24,-46,70,141,317,463,366,136,19
-14,58,73,-21,-43,65,146,312,458,356,141,24
-14,48,63,-17,-39,56,156,317,468,351,151,43
-14,58,73,-21,-43,65,151,317,448,326,141,39
-14,82,97,-34,-56,90,141,292,424,317,141,39
-9,92,102,-41,-56,97,126,268,395,292,126,34
-9,102,112,-46,-61,107,117,253,370,283,122,34
0,107,107,-53,-53,107,107,239,370,283,122,24
0,107,107,-53,-53,107,102,229,346,268,117,34
0,107,107,-53,-53,107,97,224,346,258,112,34
0,112,112,-56,-56,112,92,224,336,244,112,34
-9,131,141,-61,-75,136,87,209,322,239,112,34
-9,136,146,-63,-78,141,82,200,307,229,107,39
-9,131,141,-61,-75,136,78,180,283,219,107,39
-9,136,146,-63,-78,141,73,165,263,204,102,39
-9,136,146,-63,-78,141,78,165,263,204,97,48
-9,131,141,-61,-75,136,78,161,258,204,92,48
-4,122,126,-58,-65,124,78,165,239,190,87,48
-4,122,126,-58,-65,124,73,161,229,175,82,48
-14,122,136,-53,-75,129,73,141,209,165,73,48
-14,112,126,-48,-70,119,68,141,209,156,73,48
-14,112,126,-48,-70,119,68,136,200,151,68,48
-14,117,131,-51,-73,124,58,126,185,141,58,43
-14,122,136,-53,-75,129,58,126,180,126,58,43
-14,107,122,-46,-68,114,58,122,170,117,48,39
-19,92,112,-36,-65,102,58,122,165,102,43,43
-24,82,107,-29,-65,95,58,117,165,92,43,48
-14,73,87,-29,-51,80,58,112,151,82,39,48
-14,78,92,-31,-53,85,58,102,146,82,24,43
-14,97,112,-41,-63,104,58,97,146,82,19,43
-14,87,102,-36,-58,95,63,97,146,87,19,43
-4,78,82,-36,-43,80,53,92,141,82,19,43
-4,78,82,-36,-43,80,53,92,136,78,19,39
-9,82,92,-36,-51,87,53,97,136,73,14,29
-9,82,92,-36,-51,87,53,97,136,68,14,19
-9,92,102,-41,-56,97,53,92,122,73,4,14
-9,102,112,-46,-61,107,53,92,117,63,0,9
-9,112,122,-51,-65,117,53,92,117,58,0,9
-9,122,131,-56,-70,126,53,92,117,58,-4,9
0,122,122,-61,-61,122,53,82,117,48,-4,4
0,122,122,-61,-61,122,53,82,117,53,-4,4
0,122,122,-61,-61,122,53,82,117,53,-9,4
0,122,122,-61,-61,122,53,82,117,53,-9,4
0,117,117,-58,-58,117,53,82,112,43,-14,-4
0,112,112,-56,-56,112,53,92,112,43,-14,-4
0,107,107,-53,-53,107,58,97,122,43,-14,4
0,82,82,-41,-41,82,58,97,122,39,-14,4
-9,87,97,-39,-53,92,63,102,122,39,-9,4
-9,87,97,-39,-53,92,63,102,122,39,-9,-4
-4,87,92,-41,-48,90,68,92,117,53,-4,4
-4,82,87,-39,-46,85,82,107,136,58,-4,4
-4,73,78,-34,-41,75,82,117,161,63,-4,9
-4,63,68,-29,-36,65,82,117,151,63,-4,9
-4,73,78,-34,-41,75,78,112,146,58,-4,4
-4,87,92,-41,-48,90,73,112,146,58,0,4
-9,97,107,-43,-58,102,63,102,136,48,0,0
-9,102,112,-46,-61,107,63,102,136,63,4,0
-4,112,117,-53,-61,114,63,102,136,73,4,0
-4,131,136,-63,-70,134,48,92,131,73,4,0
-9,131,141,-61,-75,136,48,92,131,78,9,4
-9,122,131,-56,-70,126,48,92,131,78,19,9
-9,122,131,-56,-70,126,48,92,131,78,19,14
-9,131,141,-61,-75,136,48,92,131,78,24,19
-9,126,136,-58,-73,131,53,102,131,78,24,19
-9,122,131,-56,-70,126,53,102,136,82,29,29
-9,107,117,-48,-63,112,53,107,141,82,29,29
-9,102,112,-46,-61,107,53,107,156,82,29,29
-4,117,122,-56,-63,119,58,117,156,82,34,34
-4,102,107,-48,-56,104,53,117,156,87,39,39
-4,97,102,-46,-53,100,53,117,151,92,48,43
-4,78,82,-36,-43,80,48,117,151,107,53,48
4,87,82,-46,-39,85,48,117,151,107,58,48
4,102,97,-53,-46,100,43,112,146,102,53,43
4,112,107,-58,-51,109,39,107,141,87,34,34
4,117,112,-61,-53,114,29,107,126,82,29,19
14,107,92,-61,-39,100,48,117,126,78,24,9
14,87,73,-51,-29,80,53,122,131,78,24,9
14,82,68,-48,-26,75,53,107,131,73,19,4
14,82,68,-48,-26,75,48,102,126,63,14,0
4,78,73,-41,-34,75,48,112,122,58,9,-14
4,78,73,-41,-34,75,53,107,117,53,0,-14
4,73,68,-39,-31,70,58,102,117,48,-4,-14
4,63,58,-34,-26,61,68,102,117,48,-4,-9
4,53,48,-29,-21,51,78,97,107,58,4,-19
4,48,43,-26,-19,46,78,97,107,48,0,-24
4,48,43,-26,-19,46,78,92,102,39,-14,-29
4,48,43,-26,-19,46,87,87,102,39,-14,-39
4,58,53,-31,-24,56,82,82,102,34,-14,-43
4,48,43,-26,-19,46,82,82,97,29,-19,-48
4,39,34,-21,-14,36,73,82,92,29,-19,-48
4,34,29,-19,-12,31,73,82,92,29,-19,-48
-4,24,29,-9,-17,26,92,92,107,34,-9,-43
-4,9,14,-2,-9,12,92,97,102,34,-9,-39
-4,14,19,-4,-12,17,92,102,97,24,-19,-43
-4,9,14,-2,-9,12,87,92,97,19,-24,-43
-4,19,24,-7,-14,21,97,97,107,19,-24,-43
-4,4,9,0,-7,7,97,97,112,24,-19,-39
-4,4,9,0,-7,7,97,97,112,29,-14,-34
0,14,14,-7,-7,14,97,92,112,29,-9,-29
-9,24,34,-7,-21,29,87,82,107,19,-24,-43
-9,14,24,-2,-17,19,87,82,102,24,-24,-43
-9,9,19,0,-14,14,87,87,97,24,-19,-39
-9,9,19,0,-14,14,87,87,92,24,-19,-39
-9,4,14,2,-12,9,87,92,97,24,-9,-39
-14,14,29,0,-21,21,87,87,92,24,-9,-39
-14,9,24,2,-19,17,87,87,82,24,-9,-39
-14,4,19,4,-17,12,87,97,82,19,-9,-39
-4,9,14,-2,-9,12,87,87,87,29,-14,-34
-4,9,14,-2,-9,12,87,82,82,24,-19,-34
-4,9,14,-2,-9,12,87,82,82,14,-19,-34
-4,9,14,-2,-9,12,92,82,82,14,-19,-34
-14,4,19,4,-17,12,87,82,87,14,-19,-29
-14,4,19,4,-17,12,87,82,87,14,-19,-29
-14,0,14,7,-14,7,82,78,82,14,-19,-29
-14,0,14,7,-14,7,78,78,82,14,-19,-29
-4,29,34,-12,-19,31,87,78,73,-4,-19,-29
-4,4,9,0,-7,7,87,87,73,9,-9,-29
-4,-24,-19,14,7,-21,97,97,82,19,-4,-19
-9,-29,-19,19,4,-24,97,97,87,19,-9,-29
-19,-14,4,17,-12,-4,87,92,82,19,-9,-29
-19,-9,9,14,-14,0,87,87,78,19,-9,-29
-19,-4,14,12,-17,4,87,82,73,19,-9,-29
-19,0,19,9,-19,9,87,78,68,19,-9,-29
-4,0,4,2,-4,2,78,68,68,9,-19,-39
-4,4,9,0,-7,7,82,73,68,9,-19,-39
-9,14,24,-2,-17,19,82,73,68,9,-24,-39
-14,19,34,-2,-24,26,82,68,63,4,-24,-39
-14,19,34,-2,-24,26,82,78,63,4,-19,-39
-14,19,34,-2,-24,26,78,78,63,4,-19,-39
-14,19,34,-2,-24,26,78,78,63,4,-19,-39
-14,19,34,-2,-24,26,82,78,63,9,-19,-39
-9,19,29,-4,-19,24,82,78,63,9,-19,-29
-9,19,29,-4,-19,24,82,78,63,9,-19,-29
-9,19,29,-4,-19,24,82,78,63,9,-19,-29
-9,19,29,-4,-19,24,82,78,63,9,-19,-29
-9,9,19,0,-14,14,92,87,73,9,-9,-29
-9,4,14,2,-12,9,92,87,73,9,-9,-29
-9,4,14,2,-12,9,92,87,73,9,-9,-29
-9,9,19,0,-14,14,87,92,73,9,-9,-29
-9,9,19,0,-14,14,87,92,78,14,-14,-19
-9,9,19,0,-14,14,87,87,78,14,-14,-24
-9,9,19,0,-14,14,87,87,82,14,-14,-24
-9,0,9,4,-9,4,87,92,82,14,-9,-14
0,9,9,-4,-4,9,87,82,78,14,-19,-24
0,24,24,-12,-12,24,87,78,73,14,-19,-29
0,34,34,-17,-17,34,82,73,68,9,-24,-34
0,34,34,-17,-17,34,82,73,63,9,-24,-34
0,29,29,-14,-14,29,78,78,68,14,-29,-39
4,29,24,-17,-9,26,78,78,68,9,-29,-34
4,34,29,-19,-12,31,78,73,63,4,-24,-34
4,34,29,-19,-12,31,78,73,63,0,-24,-34
-4,39,43,-17,-24,41,78,73,53,-4,-34,-34
-4,34,39,-14,-21,36,78,73,53,-4,-34,-34
-4,39,43,-17,-24,41,78,73,58,-4,-34,-34
-4,58,63,-26,-34,61,78,73,58,0,-34,-34
-4,53,58,-24,-31,56,82,73,68,0,-29,-24
-4,39,43,-17,-24,41,82,82,68,0,-24,-24
-4,19,24,-7,-14,21,82,82,68,0,-19,-24
-4,24,29,-9,-17,26,82,78,68,0,-14,-24
4,53,48,-29,-21,51,82,78,68,0,-24,-34
4,53,48,-29,-21,51,82,78,68,0,-24,-34
0,39,39,-19,-19,39,82,78,68,4,-24,-34
0,34,34,-17,-17,34,82,78,68,9,-24,-34
0,29,29,-14,-14,29,82,87,78,9,-14,-24
4,24,19,-14,-7,21,82,87,78,9,-14,-19
4,24,19,-14,-7,21,82,87,78,9,-19,-19
4,19,14,-12,-4,17,82,87,78,9,-19,-19
4,19,14,-12,-4,17,92,87,78,9,-14,-29
4,29,24,-17,-9,26,92,87,78,9,-14,-24
4,19,14,-12,-4,17,87,87,78,9,-14,-24
4,19,14,-12,-4,17,87,87,78,9,-14,-29
4,9,4,-7,0,7,92,92,82,9,-9,-19
4,4,0,-4,2,2,92,92,82,14,-9,-14
4,4,0,-4,2,2,92,92,82,19,-9,-14
4,4,0,-4,2,2,92,92,82,19,-9,-19
4,14,9,-9,-2,12,82,82,82,19,-9,-29
4,14,9,-9,-2,12,82,82,82,14,-14,-29
4,19,14,-12,-4,17,82,82,82,14,-14,-29
4,19,14,-12,-4,17,82,82,82,14,-14,-29
0,9,9,-4,-4,9,92,82,82,19,-4,-24
0,19,19,-9,-9,19,92,82,82,14,-4,-24
0,19,19,-9,-9,19,92,82,82,14,-4,-24
-4,14,19,-4,-12,17,92,82,82,19,-4,-19
-4,14,19,-4,-12,17,92,82,82,19,-4,-19
-4,19,24,-7,-14,21,92,82,82,19,-4,-19
-4,19,24,-7,-14,21,87,78,82,19,-4,-19
-4,19,24,-7,-14,21,87,78,82,19,-4,-19
-9,19,29,-4,-19,24,97,97,92,19,-4,-14
-9,4,14,2,-12,9,107,97,102,29,4,-14
-9,4,14,2,-12,9,107,97,102,43,9,0
-9,19,29,-4,-19,24,97,102,112,43,9,0
-9,29,39,-9,-24,34,97,117,126,58,19,-4
-9,39,48,-14,-29,43,102,146,175,82,29,4
-9,29,39,-9,-24,34,107,190,234,117,63,14
0,39,39,-19,-19,39,117,229,302,151,82,29
9,48,39,-29,-14,43,136,283,375,195,97,29
9,43,34,-26,-12,39,170,341,468,234,117,39
9,39,29,-24,-9,34,195,385,517,263,136,53
19,48,29,-34,-4,39,190,370,488,273,146,68
14,63,48,-39,-17,56,165,297,400,253,151,78
14,68,53,-41,-19,61,126,219,312,244,170,92
14,82,68,-48,-26,75,87,151,229,239,195,117
14,92,78,-53,-31,85,53,48,97,204,204,141
19,107,87,-63,-34,97,19,-82,-87,136,195,161
19,131,112,-75,-46,122,-34,-234,-302,48,185,165
14,165,151,-90,-68,158,-107,-405,-566,-58,170,175
14,190,175,-102,-80,183,-161,-561,-805,-156,146,180
14,195,180,-104,-82,187,-204,-683,-990,-229,141,209
4,214,209,-109,-102,212,-253,-810,-1156,-297,141,239
4,263,258,-134,-126,261,-317,-922,-1332,-375,126,263
4,297,292,-151,-143,295,-370,-1019,-1488,-453,126,292
4,312,307,-158,-151,309,-405,-1112,-1615,-512,136,326
4,346,341,-175,-168,344,-439,-1220,-1737,-561,141,346
-4,405,409,-200,-207,407,-483,-1332,-1849,-605,165,370
4,458,453,-231,-224,456,-546,-1444,-1981,-644,190,409
4,497,492,-251,-244,495,-619,-1561,-2122,-702,200,453
0,527,527,-263,-263,527,-673,-1664,-2259,-795,190,478
0,551,551,-275,-275,551,-717,-1742,-2371,-888,156,492
-4,575,580,-285,-292,578,-780,-1820,-2483,-971,141,517
-4,619,624,-307,-314,622,-834,-1917,-2596,-1044,126,551
-9,673,683,-331,-346,678,-873,-2015,-2708,-1132,92,566
-9,717,727,-353,-368,722,-888,-2054,-2766,-1220,48,551
-9,736,746,-363,-378,741,-883,-2064,-2791,-1307,0,551
-9,736,746,-363,-378,741,-893,-2083,-2840,-1415,-53,541
-9,732,741,-361,-375,736,-902,-2093,-2888,-1532,-112,536
-9,712,722,-351,-366,717,-907,-2054,-2874,-1615,-170,536
0,658,658,-329,-329,658,-888,-1991,-2820,-1673,-200,556
0,639,639,-319,-319,639,-893,-1942,-2786,-1747,-253,546
0,727,727,-363,-363,727,-922,-1927,-2776,-1820,-317,517
0,712,712,-356,-356,712,-912,-1878,-2727,-1834,-351,527
0,614,614,-307,-307,614,-873,-1790,-2644,-1849,-375,536
0,605,605,-302,-302,605,-854,-1712,-2547,-1849,-405,517
0,653,653,-326,-326,653,-849,-1649,-2440,-1790,-395,527
0,624,624,-312,-312,624,-824,-1586,-2332,-1717,-370,551
-4,585,590,-290,-297,588,-795,-1532,-2264,-1678,-356,566
-4,580,585,-287,-295,583,-771,-1512,-2210,-1639,-346,590
-4,580,585,-287,-295,583,-751,-1459,-2132,-1581,-322,600
-4,546,551,-270,-278,549,-712,-1381,-2010,-1498,-297,600
-4,527,531,-261,-268,529,-692,-1302,-1903,-1420,-263,619
4,517,512,-261,-253,514,-683,-1254,-1844,-1381,-244,629
4,512,507,-258,-251,509,-663,-1210,-1786,-1346,-234,619
4,492,488,-248,-241,490,-639,-1166,-1722,-1346,-253,600
4,463,458,-234,-226,461,-614,-1088,-1634,-1298,-229,610
4,434,429,-219,-212,431,-575,-1010,-1517,-1185,-131,678
4,390,385,-197,-190,387,-541,-941,-1420,-1098,-58,717
4,346,341,-175,-168,344,-517,-888,-1342,-1054,-48,717
4,326,322,-165,-158,324,-488,-814,-1244,-971,-9,732
4,322,317,-163,-156,319,-453,-746,-1141,-893,34,741
9,312,302,-161,-146,307,-439,-697,-1083,-858,34,736
19,287,268,-153,-124,278,-419,-658,-1029,-844,29,712
19,253,234,-136,-107,244,-385,-600,-956,-800,29,688
19,229,209,-124,-95,219,-346,-541,-868,-746,24,658
19,209,190,-114,-85,200,-302,-483,-775,-692,24,624
9,190,180,-100,-85,185,-268,-424,-692,-639,14,585
0,161,161,-80,-80,161,-248,-380,-634,-605,-9,536
-4,136,141,-65,-73,139,-224,-331,-570,-575,-39,478
-4,136,141,-65,-73,139,-200,-292,-507,-527,-73,405
4,131,126,-68,-61,129,-170,-244,-424,-473,-92,336
0,122,122,-61,-61,122,-131,-190,-346,-424,-102,278
0,78,78,-39,-39,78,-82,-131,-263,-366,-97,239
0,29,29,-14,-14,29,-43,-68,-180,-312,-92,185
0,0,0,0,0,0,0,-24,-107,-248,-102,136
0,-9,-9,4,4,-9,24,14,-34,-195,-102,92
0,9,9,-4,-4,9,43,53,39,-126,-102,39
0,19,19,-9,-9,19,68,97,102,-68,-92,14
0,19,19,-9,-9,19,97,146,165,-9,-68,0
0,29,29,-14,-14,29,112,185,214,43,-43,-9
0,34,34,-17,-17,34,122,204,253,73,-39,-34
0,0,0,0,0,0,141,229,297,102,-24,-58
0,-19,-19,9,9,-19,175,258,341,126,0,-58
0,-24,-24,12,12,-24,190,283,370,165,9,-68
0,-48,-48,24,24,-48,204,312,409,204,14,-68
0,-63,-63,31,31,-63,204,331,439,219,24,-58
0,-68,-68,34,34,-68,214,341,458,234,34,-58
0,-68,-68,34,34,-68,219,356,463,248,39,-58
0,-53,-53,26,26,-53,224,366,473,253,43,-63
-4,-48,-43,26,19,-46,239,366,478,253,48,-63
-4,-53,-48,29,21,-51,239,366,483,253,53,-73
-4,-58,-53,31,24,-56,239,370,497,258,63,-73
-4,-68,-63,36,29,-65,239,370,497,268,68,-73
-14,-73,-58,43,21,-65,239,375,497,278,63,-82
-9,-68,-58,39,24,-63,239,380,502,278,63,-82
-9,-73,-63,41,26,-68,244,390,512,287,58,-82
-9,-82,-73,46,31,-78,248,400,522,297,63,-78
-4,-73,-68,39,31,-70,253,395,536,297,73,-87
-4,-87,-82,46,39,-85,258,400,541,312,73,-82
-4,-87,-82,46,39,-85,258,405,546,312,78,-82
-4,-82,-78,43,36,-80,253,405,546,312,78,-87
4,-68,-73,31,39,-70,253,405,551,307,68,-92
4,-63,-68,29,36,-65,258,405,556,312,68,-92
4,-58,-63,26,34,-61,258,414,566,317,78,-87
4,-58,-63,26,34,-61,258,419,580,326,78,-87
4,-78,-82,36,43,-80,258,419,585,341,78,-78
4,-78,-82,36,43,-80,268,424,585,341,78,-78
0,-73,-73,36,36,-73,268,429,590,346,78,-78
0,-73,-73,36,36,-73,273,434,595,351,82,-78
4,-68,-73,31,39,-70,263,424,600,341,82,-78
4,-58,-63,26,34,-61,258,424,600,346,78,-87
4,-53,-58,24,31,-56,258,429,600,351,78,-87
4,-53,-58,24,31,-56,263,429,610,351,82,-87
14,-53,-68,19,41,-61,268,439,614,356,73,-92
14,-48,-63,17,39,-56,268,439,619,361,78,-92
9,-43,-53,17,31,-48,268,439,619,366,78,-92
9,-39,-48,14,29,-43,268,439,634,370,78,-92
0,-29,-29,14,14,-29,263,448,634,366,78,-92
4,-29,-34,12,19,-31,268,453,644,370,82,-92
4,-29,-34,12,19,-31,268,453,649,370,82,-92
4,-24,-29,9,17,-26,268,453,649,375,82,-92
4,-34,-39,14,21,-36,278,463,653,395,92,-82
4,-39,-43,17,24,-41,283,468,663,400,102,-82
4,-39,-43,17,24,-41,283,468,668,409,102,-82
4,-39,-43,17,24,-41,283,463,673,409,102,-82
4,-43,-48,19,26,-46,292,468,683,419,117,-82
4,-48,-53,21,29,-51,297,473,688,424,117,-82
4,-48,-53,21,29,-51,297,483,697,434,117,-82
4,-43,-48,19,26,-46,297,497,717,439,126,-82
-4,-39,-34,21,14,-36,292,488,707,439,117,-82
-4,-39,-34,21,14,-36,292,488,707,444,117,-78
-4,-43,-39,24,17,-41,297,497,717,453,126,-78
-4,-43,-39,24,17,-41,302,512,727,463,131,-78
-4,-48,-43,26,19,-46,302,512,746,453,122,-78
-4,-43,-39,24,17,-41,302,512,746,458,126,-78
-9,-43,-34,26,12,-39,302,522,751,473,126,-73
-9,-43,-34,26,12,-39,302,522,766,483,126,-73
-9,-39,-29,24,9,-34,302,512,756,473,126,-82
-9,-39,-29,24,9,-34,302,512,756,473,126,-82
-9,-43,-34,26,12,-39,297,517,761,473,126,-82
-9,-43,-34,26,12,-39,297,522,766,483,126,-82
-9,-34,-24,21,7,-29,307,531,780,502,146,-73
-9,-34,-24,21,7,-29,302,531,780,502,146,-73
-4,-34,-29,19,12,-31,302,536,785,502,146,-73
-4,-34,-29,19,12,-31,302,536,790,502,146,-73
-4,-34,-29,19,12,-31,307,531,790,517,156,-73
-4,-43,-39,24,17,-41,312,531,795,517,156,-73
-4,-58,-53,31,24,-56,317,536,805,517,161,-63
-4,-48,-43,26,19,-46,317,551,814,522,165,-63
-4,-53,-48,29,21,-51,317,551,810,527,156,-73
-4,-39,-34,21,14,-36,312,551,814,531,156,-78
-4,-24,-19,14,7,-21,312,551,814,536,156,-78
-4,-39,-34,21,14,-36,317,551,814,541,165,-68
-14,-48,-34,31,9,-41,317,561,819,536,161,-68
-14,-39,-24,26,4,-31,317,561,824,541,161,-68
-14,-39,-24,26,4,-31,317,561,824,546,156,-68
-14,-34,-19,24,2,-26,317,556,824,551,156,-68
-14,-24,-9,19,-2,-17,317,551,824,541,165,-73
-14,-19,-4,17,-4,-12,317,551,824,541,165,-73
-14,-29,-14,21,0,-21,317,551,829,546,170,-68
-14,-29,-14,21,0,-21,322,556,839,546,175,-68
-14,-29,-14,21,0,-21,312,556,839,551,170,-73
-14,-24,-9,19,-2,-17,307,556,839,566,170,-73
-14,-19,-4,17,-4,-12,307,561,839,566,175,-73
-14,-19,-4,17,-4,-12,307,561,839,566,175,-73
-14,-29,-14,21,0,-21,307,551,849,566,180,-63
-14,-34,-19,24,2,-26,307,551,849,566,180,-63
-14,-34,-19,24,2,-26,307,551,844,566,180,-58
-14,-34,-19,24,2,-26,307,551,844,570,180,-53
-14,-14,0,14,-7,-7,297,546,834,570,175,-63
-14,0,14,7,-14,7,297,546,834,570,180,-68
-14,9,24,2,-19,17,292,541,834,570,180,-68
-14,14,29,0,-21,21,292,527,834,570,185,-68
-4,0,4,2,-4,2,292,522,824,570,195,-58
-9,-4,4,7,-7,0,297,536,834,575,195,-53
-9,-9,0,9,-4,-4,302,551,834,575,200,-48
-9,-14,-4,12,-2,-9,302,546,829,575,200,-48
-9,14,24,-2,-17,19,287,531,814,561,190,-63
-9,24,34,-7,-21,29,278,522,810,556,185,-63
-9,34,43,-12,-26,39,268,512,795,551,180,-63
-9,43,53,-17,-31,48,258,502,790,546,175,-63
-9,53,63,-21,-36,58,253,497,780,536,165,-73
-9,53,63,-21,-36,58,253,497,780,536,175,-68
-9,53,63,-21,-36,58,258,497,775,531,175,-68
-4,58,63,-26,-34,61,258,488,771,522,175,-68
-4,48,53,-21,-29,51,253,488,766,531,175,-53
-4,43,48,-19,-26,46,253,483,761,531,180,-53
-4,34,39,-14,-21,36,253,483,761,536,190,-43
-4,48,53,-21,-29,51,248,483,751,541,195,-43
-4,63,68,-29,-36,65,248,478,746,527,195,-34
-9,48,58,-19,-34,53,244,468,732,517,195,-34
-9,43,53,-17,-31,48,239,463,717,512,195,-29
-9,43,53,-17,-31,48,239,448,707,512,195,-19
-9,53,63,-21,-36,58,234,439,688,492,190,-29
-9,53,63,-21,-36,58,229,429,678,483,190,-29
-9,53,63,-21,-36,58,224,424,678,468,190,-19
-9,58,68,-24,-39,63,214,414,658,463,190,-19
0,58,58,-29,-29,58,209,409,649,458,175,-24
0,58,58,-29,-29,58,209,405,634,453,175,-24
0,58,58,-29,-29,58,209,400,614,444,180,-14
0,58,58,-29,-29,58,209,390,605,444,180,-9
0,63,63,-31,-31,63,195,370,595,419,165,-9
0,68,68,-34,-34,68,185,361,575,409,165,-4
0,68,68,-34,-34,68,185,351,556,405,165,-4
4,68,63,-36,-29,65,175,336,536,400,165,4
-4,73,78,-34,-41,75,180,322,522,385,170,4
-4,63,68,-29,-36,65,161,307,492,375,156,0
-4,63,68,-29,-36,65,161,302,483,361,156,0
-4,58,63,-26,-34,61,165,307,488,351,161,14
-4,68,73,-31,-39,70,156,302,473,336,161,19
-4,82,87,-39,-46,85,151,283,453,326,161,19
0,82,82,-41,-41,82,141,263,429,302,146,14
0,82,82,-41,-41,82,136,253,409,292,141,14
-9,78,87,-34,-48,82,136,234,409,297,151,24
-9,68,78,-29,-43,73,131,229,385,287,146,34
-9,58,68,-24,-39,63,126,229,385,283,141,34
-9,53,63,-21,-36,58,122,234,375,273,141,34
-9,68,78,-29,-43,73,117,224,361,258,141,34
-9,68,78,-29,-43,73,112,219,346,248,136,39
-9,58,68,-24,-39,63,107,204,322,239,136,39
-9,58,68,-24,-39,63,102,195,302,224,131,39
-9,78,87,-34,-48,82,87,180,292,204,117,29
-9,82,92,-36,-51,87,87,170,287,204,112,29
-4,82,87,-39,-46,85,87,170,268,190,107,29
-4,92,97,-43,-51,95,82,161,258,175,102,29
-4,82,87,-39,-46,85,82,141,229,170,82,29
-4,73,78,-34,-41,75,78,141,229,156,82,29
-4,73,78,-34,-41,75,78,136,219,146,78,29
-4,78,82,-36,-43,80,68,126,204,131,68,24
4,87,82,-46,-39,85,58,126,200,126,78,19
4,78,73,-41,-34,75,58,122,190,117,68,9
0,68,68,-34,-34,68,58,122,185,102,63,9
-4,63,68,-29,-36,65,58,117,185,92,63,9
-4,53,58,-24,-31,56,58,112,170,87,58,9
-4,58,63,-26,-34,61,58,102,165,82,43,4
-4,78,82,-36,-43,80,58,97,165,78,39,4
-4,68,73,-31,-39,70,63,97,165,78,39,4
-4,48,53,-21,-29,51,63,92,151,82,39,9
-4,48,53,-21,-29,51,63,92,146,78,39,9
-9,53,63,-21,-36,58,63,97,146,73,34,4
-9,53,63,-21,-36,58,63,97,146,68,34,0
0,58,58,-29,-29,58,53,82,141,73,24,-4
0,63,63,-31,-31,63,53,82,136,63,19,-9
0,68,68,-34,-34,68,53,82,136,58,19,-9
0,73,73,-36,-36,73,53,82,136,58,14,-9
0,82,82,-41,-41,82,53,82,136,53,14,-14
0,82,82,-41,-41,82,53,82,136,53,14,-14
0,82,82,-41,-41,82,53,82,136,48,9,-14
0,82,82,-41,-41,82,53,82,136,43,9,-14
0,102,102,-51,-51,102,39,58,117,29,0,-29
0,112,112,-56,-56,112,34,63,112,24,-4,-34
0,122,122,-61,-61,122,34,63,117,19,-9,-29
0,112,112,-56,-56,112,29,58,112,9,-14,-34
0,122,122,-61,-61,122,34,58,112,14,-9,-34
0,117,117,-58,-58,117,34,63,112,19,-9,-43
4,112,107,-58,-51,109,39,58,107,39,-4,-34
4,102,97,-53,-46,100,53,78,126,48,-4,-34
-4,112,117,-53,-61,114,53,78,141,53,4,-29
-4,102,107,-48,-56,104,53,78,131,53,4,-29
-4,112,117,-53,-61,114,48,73,126,48,4,-34
-4,126,131,-61,-68,129,43,73,126,48,9,-34
-9,126,136,-58,-73,131,39,63,126,43,0,-29
-9,122,131,-56,-70,126,34,63,126,53,4,-29
-4,122,126,-58,-65,124,29,63,126,58,4,-29
-4,131,136,-63,-70,134,9,53,122,53,4,-29
-19,122,141,-51,-80,131,9,63,122,48,0,-29
-19,112,131,-46,-75,122,9,63,122,48,9,-29
-19,112,131,-46,-75,122,9,63,122,48,9,-29
-19,122,141,-51,-80,131,9,63,122,48,14,-29
-19,117,136,-48,-78,126,14,63,117,39,4,-29
-19,112,131,-46,-75,122,14,63,117,43,9,-19
-19,97,117,-39,-68,107,14,68,117,43,9,-19
-19,92,112,-36,-65,102,14,68,126,43,9,-19
-14,102,117,-43,-65,109,19,78,126,43,14,-24
-14,92,107,-39,-61,100,14,78,126,48,19,-19
-14,92,107,-39,-61,100,14,78,122,53,29,-14
-14,78,92,-31,-53,85,9,78,122,68,34,-9
-14,78,92,-31,-53,85,14,82,126,82,53,0
-14,82,97,-34,-56,90,14,82,126,82,53,4
-14,82,97,-34,-56,90,14,82,126,73,39,4
-14,78,92,-31,-53,85,9,87,117,73,39,0
-14,78,92,-31,-53,85,24,97,117,68,39,-4
-14,58,73,-21,-43,65,34,102,122,68,34,-9
-14,53,68,-19,-41,61,39,87,122,63,24,-19
-14,53,68,-19,-41,61,39,82,117,53,14,-29
-4,43,48,-19,-26,46,39,92,112,48,19,-34
-4,39,43,-17,-24,41,43,87,107,43,9,-34
-4,29,34,-12,-19,31,48,82,107,39,4,-34
-4,14,19,-4,-12,17,58,82,107,39,4,-29
-4,0,4,2,-4,2,63,82,102,29,0,-39
-4,0,4,2,-4,2,58,78,97,19,-9,-53
-4,4,9,0,-7,7,53,68,87,9,-29,-68
-4,9,14,-2,-9,12,58,58,82,9,-34,-87
4,19,14,-12,-4,17,63,53,82,4,-24,-82
4,9,4,-7,0,7,63,53,78,0,-29,-87
4,0,-4,-2,4,-2,53,53,73,0,-29,-87
4,-4,-9,0,7,-7,53,53,73,0,-29,-87
4,-9,-14,2,9,-12,63,58,82,4,-29,-78
4,-19,-24,7,14,-21,63,58,73,4,-29,-78
4,-9,-14,2,9,-12,63,58,63,-4,-39,-87
4,-9,-14,2,9,-12,58,43,58,-9,-43,-92
14,-19,-34,2,24,-26,58,48,58,-4,-39,-87
14,-34,-48,9,31,-41,58,48,63,-4,-39,-87
14,-34,-48,9,31,-41,58,48,63,-4,-39,-87
19,-24,-43,2,31,-34,58,43,63,-9,-39,-87
9,-14,-24,2,17,-19,58,53,63,-9,-43,-92
9,-24,-34,7,21,-29,58,53,63,-4,-43,-92
9,-29,-39,9,24,-34,58,58,63,-4,-39,-87
9,-29,-39,9,24,-34,58,58,63,-4,-39,-87
19,-14,-34,-2,26,-24,53,48,48,-24,-48,-97
14,4,-9,-9,12,-2,48,39,43,-24,-48,-97
14,9,-4,-12,9,2,43,34,34,-24,-48,-97
14,14,0,-14,7,7,39,39,34,-29,-48,-97
14,14,0,-14,7,7,39,39,34,-19,-43,-92
14,9,-4,-12,9,2,39,34,34,-24,-48,-92
14,4,-9,-9,12,-2,39,34,39,-34,-48,-92
14,0,-14,-7,14,-7,43,34,43,-34,-48,-92
4,0,-4,-2,4,-2,39,24,43,-43,-53,-97
4,4,0,-4,2,2,39,24,39,-43,-58,-97
4,4,0,-4,2,2,34,19,29,-43,-63,-97
4,9,4,-7,0,7,29,19,24,-43,-68,-97
4,-19,-24,7,14,-21,39,29,34,-34,-58,-97
4,-53,-58,24,31,-56,58,39,53,-19,-39,-78
4,-14,-19,4,12,-17,48,29,43,-29,-53,-97
0,87,87,-43,-43,87,9,0,9,-68,-87,-126
0,73,73,-36,-36,73,14,4,19,-63,-82,-122
0,58,58,-29,-29,58,19,9,19,-58,-78,-117
0,43,43,-21,-21,43,24,14,19,-53,-73,-112
0,29,29,-14,-14,29,29,19,19,-48,-68,-107
4,14,9,-9,-2,12,29,19,19,-48,-68,-107
4,14,9,-9,-2,12,34,24,19,-48,-68,-107
0,19,19,-9,-9,19,34,24,19,-48,-73,-107
-4,19,24,-7,-14,21,34,19,14,-53,-73,-107
-4,19,24,-7,-14,21,34,19,14,-53,-68,-97
-4,19,24,-7,-14,21,29,19,14,-53,-68,-97
-4,19,24,-7,-14,21,29,19,14,-53,-68,-97
-4,19,24,-7,-14,21,34,19,14,-48,-68,-97
0,9,9,-4,-4,9,34,29,24,-48,-58,-97
0,9,9,-4,-4,9,34,29,24,-48,-58,-97
0,9,9,-4,-4,9,34,29,24,-48,-58,-97
0,9,9,-4,-4,9,34,29,24,-48,-58,-97
0,19,19,-9,-9,19,29,24,19,-58,-63,-107
0,14,14,-7,-7,14,24,19,14,-58,-68,-107
0,14,14,-7,-7,14,19,14,9,-58,-73,-107
0,19,19,-9,-9,19,9,14,4,-58,-78,-107
9,9,0,-9,4,4,19,14,0,-63,-73,-107
9,9,0,-9,4,4,19,9,0,-63,-73,-112
9,9,0,-9,4,4,19,9,4,-63,-73,-112
9,0,-9,-4,9,-4,19,14,4,-63,-68,-102
9,9,0,-9,4,4,19,14,4,-63,-78,-102
9,24,14,-17,-2,19,19,9,4,-63,-78,-107
9,34,24,-21,-7,29,14,4,4,-68,-82,-112
9,34,24,-21,-7,29,14,4,4,-68,-82,-112
0,9,9,-4,-4,9,29,19,9,-58,-78,-107
4,9,4,-7,0,7,29,19,9,-58,-78,-102
4,14,9,-9,-2,12,29,14,4,-58,-73,-102
4,14,9,-9,-2,12,29,14,4,-58,-73,-102
4,4,0,-4,2,2,29,24,14,-53,-63,-92
4,-4,-9,0,7,-7,29,24,14,-53,-63,-92
4,-4,-9,0,7,-7,29,24,19,-53,-63,-92
4,9,4,-7,0,7,29,24,19,-48,-63,-92
-4,-4,0,4,-2,-2,34,14,19,-48,-63,-92
-4,-19,-14,12,4,-17,34,24,19,-48,-63,-92
-4,-39,-34,21,14,-36,34,24,19,-48,-63,-92
-4,-34,-29,19,12,-31,34,19,19,-48,-63,-92
-4,-9,-4,7,0,-7,24,19,19,-48,-63,-92
-4,-4,0,4,-2,-2,24,19,19,-48,-63,-92
-9,-14,-4,12,-2,-9,24,19,19,-43,-63,-92
-9,-14,-4,12,-2,-9,24,19,19,-39,-63,-92
-9,-4,4,7,-7,0,34,29,19,-39,-63,-92
-4,-4,0,4,-2,-2,34,29,19,-39,-63,-87
-4,0,4,2,-4,2,34,29,19,-39,-68,-87
-4,0,4,2,-4,2,34,29,19,-39,-68,-87
-4,-14,-9,9,2,-12,43,29,19,-39,-53,-87
-4,-9,-4,7,0,-7,43,29,19,-39,-53,-82
-4,-24,-19,14,7,-21,39,29,19,-39,-53,-82
-4,-29,-24,17,9,-26,39,29,19,-39,-53,-87
-4,-24,-19,14,7,-21,34,34,24,-48,-58,-87
-4,-24,-19,14,7,-21,34,34,24,-43,-58,-82
-4,-19,-14,12,4,-17,34,34,24,-39,-58,-82
-4,-14,-9,9,2,-12,34,34,24,-39,-58,-87
4,-29,-34,12,19,-31,34,34,34,-29,-48,-78
4,-34,-39,14,21,-36,34,34,34,-34,-53,-78
4,-34,-39,14,21,-36,34,34,34,-34,-53,-78
4,-39,-43,17,24,-41,34,34,34,-34,-53,-78
9,-29,-39,9,24,-34,19,19,19,-43,-68,-97
9,0,-9,-4,9,-4,14,14,14,-53,-73,-102
9,19,9,-14,0,14,9,9,9,-58,-78,-107
4,34,29,-19,-12,31,4,4,4,-58,-82,-107
4,24,19,-14,-7,21,4,4,4,-68,-82,-107
4,29,24,-17,-9,26,4,4,4,-68,-82,-107
4,29,24,-17,-9,26,0,0,4,-68,-82,-107
4,29,24,-17,-9,26,0,0,4,-68,-82,-107
0,39,39,-19,-19,39,9,9,4,-68,-73,-112
0,4,4,-2,-2,4,19,29,24,-39,-53,-92
0,14,14,-7,-7,14,19,29,24,-43,-58,-97
0,19,19,-9,-9,19,19,24,34,-34,-58,-87
0,29,29,-14,-14,29,19,39,48,-19,-48,-92
0,48,48,-24,-24,48,14,58,78,-4,-39,-92
0,58,58,-29,-29,58,19,92,146,39,-24,-82
0,39,39,-19,-19,39,39,141,224,82,4,-68
-9,19,29,-4,-19,24,68,204,297,126,29,-58
-9,14,24,-2,-17,19,102,273,380,156,48,-48
-9,29,39,-9,-24,34,107,317,429,185,58,-43
0,29,29,-14,-14,29,112,302,409,195,78,-19
-4,24,29,-9,-17,26,87,239,331,175,82,-9
4,58,53,-31,-24,56,58,161,253,165,102,4
4,73,68,-39,-31,70,29,102,180,170,126,39
-4,82,87,-39,-46,85,-14,0,48,126,136,53
0,87,87,-43,-43,87,-68,-141,-146,58,136,63
0,112,112,-56,-56,112,-122,-292,-361,-19,126,78
4,126,122,-65,-58,124,-185,-453,-595,-117,112,97
-4,131,136,-63,-70,134,-239,-610,-844,-204,87,112
-4,156,161,-75,-82,158,-273,-741,-1039,-278,82,131
-4,195,200,-95,-102,197,-322,-858,-1195,-346,73,151
-4,234,239,-114,-122,236,-375,-980,-1371,-424,68,175
-4,268,273,-131,-139,270,-439,-1088,-1537,-502,58,195
-4,302,307,-148,-156,305,-492,-1200,-1673,-561,58,219
-4,326,331,-161,-168,329,-527,-1298,-1805,-610,73,248
-4,366,370,-180,-187,368,-570,-1410,-1917,-644,107,283
-4,400,405,-197,-204,402,-624,-1522,-2039,-673,131,331
-4,429,434,-212,-219,431,-688,-1629,-2171,-732,151,375
-9,478,488,-234,-248,483,-732,-1732,-2308,-814,141,409
-9,522,531,-256,-270,527,-775,-1820,-2430,-897,117,424
-4,546,551,-270,-278,549,-839,-1908,-2532,-990,102,439
-4,580,585,-287,-295,583,-902,-2005,-2654,-1083,87,463
-9,624,634,-307,-322,629,-941,-2103,-2766,-1161,73,488
0,658,658,-329,-329,658,-956,-2142,-2815,-1220,48,512
9,688,678,-348,-334,683,-961,-2152,-2849,-1298,0,502
0,697,697,-348,-348,697,-961,-2161,-2908,-1415,-73,492
0,692,692,-346,-346,692,-971,-2171,-2947,-1542,-141,488
0,683,683,-341,-341,683,-966,-2142,-2932,-1634,-200,478
0,668,668,-334,-334,668,-976,-2098,-2908,-1712,-258,468
9,668,658,-339,-324,663,-971,-2059,-2893,-1795,-312,468
9,668,658,-339,-324,663,-971,-1995,-2835,-1830,-326,468
9,624,614,-317,-302,619,-971,-1937,-2776,-1854,-341,478
9,575,566,-292,-278,570,-951,-1878,-2723,-1878,-395,458
9,546,536,-278,-263,541,-932,-1790,-2625,-1869,-424,458
9,566,556,-287,-273,561,-907,-1717,-2508,-1810,-414,488
9,566,556,-287,-273,561,-883,-1664,-2410,-1766,-409,492
4,566,561,-285,-278,563,-873,-1629,-2352,-1727,-405,497
4,570,566,-287,-280,568,-858,-1600,-2298,-1698,-385,522
4,570,566,-287,-280,568,-839,-1556,-2220,-1629,-341,541
4,527,522,-265,-258,524,-800,-1468,-2098,-1537,-307,551
4,458,453,-231,-224,456,-761,-1371,-1971,-1449,-263,570
4,429,424,-217,-209,427,-741,-1312,-1893,-1390,-234,600
-4,424,429,-209,-217,427,-722,-1259,-1834,-1356,-234,600
-4,414,419,-204,-212,417,-697,-1215,-1761,-1346,-253,580
-4,385,390,-190,-197,387,-653,-1146,-1683,-1307,-229,590
-4,375,380,-185,-192,378,-634,-1078,-1576,-1215,-151,639
-4,370,375,-183,-190,373,-619,-1029,-1488,-1146,-87,658
-4,336,341,-165,-173,339,-595,-966,-1429,-1102,-78,668
-4,297,302,-146,-153,300,-556,-902,-1322,-1029,-39,683
-4,263,268,-129,-136,265,-531,-834,-1239,-941,4,702
0,244,244,-122,-122,244,-507,-766,-1161,-907,4,697
-9,239,248,-114,-129,244,-478,-717,-1098,-893,-19,673
0,224,224,-112,-112,224,-453,-668,-1034,-868,-29,639
0,190,190,-95,-95,190,-414,-619,-956,-814,-24,610
0,170,170,-85,-85,170,-380,-561,-863,-761,-24,585
-9,161,170,-75,-90,165,-356,-512,-780,-697,-34,536
0,141,141,-70,-70,141,-336,-458,-712,-663,-48,488
-4,136,141,-65,-73,139,-322,-409,-658,-634,-78,429
-4,117,122,-56,-63,119,-278,-361,-595,-595,-102,366
-14,63,78,-24,-46,70,-229,-302,-502,-531,-122,307
-9,82,92,-36,-51,87,-209,-258,-424,-502,-151,239
-9,107,117,-48,-63,112,-180,-219,-361,-463,-175,170
-9,48,58,-19,-34,53,-131,-156,-268,-400,-170,117
-9,68,78,-29,-43,73,-107,-122,-224,-366,-190,39
-9,87,97,-39,-53,92,-92,-92,-161,-312,-200,-24
-9,39,48,-14,-29,43,-53,-34,-68,-204,-170,-39
-9,9,19,0,-14,14,-9,19,14,-136,-151,-53
-9,9,19,0,-14,14,9,68,68,-87,-146,-78
-9,19,29,-4,-19,24,34,107,136,-43,-112,-87
-9,24,34,-7,-21,29,53,146,185,4,-87,-92
-9,19,29,-4,-19,24,73,170,229,24,-73,-117
-9,9,19,0,-14,14,87,190,253,39,-68,-146
-19,-4,14,12,-17,4,102,204,292,78,-58,-165
-19,-9,9,14,-14,0,117,234,322,117,-53,-165
-19,-24,-4,21,-7,-14,117,248,341,131,-53,-165
-19,-29,-9,24,-4,-19,126,253,361,146,-43,-165
-19,-29,-9,24,-4,-19,131,263,366,161,-39,-165
-19,-14,4,17,-12,-4,136,268,375,165,-34,-170
-14,-24,-9,19,-2,-17,151,278,390,165,-24,-165
-14,-34,-19,24,2,-26,151,278,395,165,-24,-170
-14,-43,-29,29,7,-36,151,283,409,170,-19,-165
-14,-58,-43,36,14,-51,151,283,409,180,-19,-161
-14,-68,-53,41,19,-61,151,297,409,185,-19,-161
-9,-58,-48,34,19,-53,151,302,414,190,-14,-161
-9,-58,-48,34,19,-53,156,312,424,204,-14,-161
-9,-63,-53,36,21,-58,161,322,434,219,-4,-156
-14,-68,-53,41,19,-61,175,326,458,219,4,-156
-14,-87,-73,51,29,-80,180,331,463,234,4,-151
-14,-92,-78,53,31,-85,180,336,468,234,9,-151
-14,-92,-78,53,31,-85,175,336,468,234,9,-156
-14,-78,-63,46,24,-70,165,326,463,239,0,-161
-14,-73,-58,43,21,-65,170,326,468,244,0,-161
-14,-68,-53,41,19,-61,170,336,478,248,9,-156
-14,-68,-53,41,19,-61,170,341,492,258,9,-156
-4,-73,-68,39,31,-70,161,331,488,253,0,-165
-4,-68,-63,36,29,-65,170,336,488,253,0,-165
-9,-58,-48,34,19,-53,170,341,492,258,0,-165
-9,-53,-43,31,17,-48,175,346,497,263,4,-165
-4,-63,-58,34,26,-61,185,356,512,263,14,-156
-4,-58,-53,31,24,-56,180,356,512,268,9,-165
-4,-58,-53,31,24,-56,180,361,512,273,9,-165
-4,-63,-58,34,26,-61,185,361,522,273,14,-165
-4,-68,-63,36,29,-65,180,370,527,278,4,-165
-4,-68,-63,36,29,-65,180,370,531,283,9,-170
-9,-68,-58,39,24,-63,180,370,531,287,9,-175
-9,-68,-58,39,24,-63,180,370,546,292,9,-180
0,-73,-73,36,36,-73,175,370,536,287,0,-180
4,-78,-82,36,43,-80,180,375,546,292,4,-180
4,-82,-87,39,46,-85,180,375,551,292,4,-180
4,-82,-87,39,46,-85,180,375,551,297,4,-180
14,-82,-97,34,56,-90,180,375,556,297,4,-170
14,-87,-102,36,58,-95,185,380,566,302,14,-170
14,-87,-102,36,58,-95,185,380,570,312,14,-170
14,-87,-102,36,58,-95,185,375,575,312,14,-170
4,-82,-87,39,46,-85,185,380,585,322,29,-170
4,-87,-92,41,48,-90,190,385,590,326,29,-170
4,-87,-92,41,48,-90,190,395,600,336,29,-170
4,-82,-87,39,46,-85,190,409,619,341,39,-170
-4,-87,-82,46,39,-85,195,400,610,341,34,-180
-4,-87,-82,46,39,-85,195,400,610,346,29,-175
-4,-92,-87,48,41,-90,200,409,619,356,34,-175
-4,-92,-87,48,41,-90,204,424,629,366,34,-175
-4,-78,-73,41,34,-75,204,419,634,361,34,-185
-4,-73,-68,39,31,-70,204,414,629,361,39,-185
-9,-73,-63,41,26,-68,204,419,629,370,39,-180
-9,-73,-63,41,26,-68,204,414,639,375,39,-180
-9,-78,-68,43,29,-73,195,424,649,375,39,-180
-9,-78,-68,43,29,-73,195,424,649,375,39,-180
-9,-82,-73,46,31,-78,190,429,653,375,39,-180
-9,-82,-73,46,31,-78,190,434,658,385,39,-180
0,-82,-82,41,41,-82,200,434,663,395,48,-180
0,-82,-82,41,41,-82,195,434,663,395,48,-180
4,-82,-87,39,46,-85,195,439,668,395,48,-180
4,-82,-87,39,46,-85,195,439,673,395,48,-180
4,-63,-68,29,36,-65,190,434,673,409,48,-185
4,-73,-78,34,41,-75,195,434,678,409,48,-190
4,-87,-92,41,48,-90,200,439,688,409,53,-185
4,-78,-82,36,43,-80,200,453,697,414,58,-190
14,-87,-102,36,58,-95,200,458,692,419,58,-190
14,-78,-92,31,53,-85,195,453,697,424,58,-195
14,-68,-82,26,48,-75,195,448,697,429,58,-195
14,-87,-102,36,58,-95,200,444,697,434,68,-185
14,-97,-112,41,63,-104,209,453,712,439,82,-175
14,-87,-102,36,58,-95,209,453,717,444,82,-175
14,-87,-102,36,58,-95,209,453,717,448,78,-175
14,-82,-97,34,56,-90,209,448,717,453,78,-175
14,-58,-73,21,43,-65,204,434,712,448,73,-190
14,-48,-63,17,39,-56,200,434,707,444,68,-190
14,-53,-68,19,41,-61,195,434,707,444,68,-185
14,-48,-63,17,39,-56,195,439,712,439,68,-185
4,-39,-43,17,24,-41,195,439,712,444,73,-180
4,-34,-39,14,21,-36,190,439,712,458,73,-180
4,-29,-34,12,19,-31,190,444,712,458,78,-180
4,-29,-34,12,19,-31,190,444,712,458,78,-180
4,-29,-34,12,19,-31,200,444,722,458,82,-170
4,-34,-39,14,21,-36,200,444,722,458,82,-170
4,-34,-39,14,21,-36,200,444,717,458,82,-165
4,-34,-39,14,21,-36,200,444,717,463,82,-161
4,-19,-24,7,14,-21,190,439,717,463,78,-170
4,-9,-14,2,9,-12,190,439,717,463,82,-175
4,-4,-9,0,7,-7,185,434,717,463,82,-175
4,-4,-9,0,7,-7,185,419,717,463,87,-175
-4,-14,-9,9,2,-12,170,419,697,453,78,-175
-9,-14,-4,12,-2,-9,170,429,707,458,78,-170
-9,-14,-4,12,-2,-9,170,439,707,458,82,-165
-9,-14,-4,12,-2,-9,165,429,702,458,82,-165
-9,-9,0,9,-4,-4,170,439,697,468,82,-165
-9,-14,-4,12,-2,-9,170,434,702,468,87,-161
-9,-19,-9,14,0,-14,170,429,697,468,92,-156
-9,-24,-14,17,2,-19,170,424,702,468,97,-151
-9,-14,-4,12,-2,-9,165,419,692,458,97,-151
-9,-14,-4,12,-2,-9,165,419,692,458,107,-146
-9,-14,-4,12,-2,-9,170,419,688,453,107,-146
-4,-9,-4,7,0,-7,170,409,683,444,107,-146
-14,-4,9,9,-12,2,165,400,668,448,102,-141
-14,-4,9,9,-12,2,165,395,663,444,102,-141
-14,-9,4,12,-9,-2,165,395,663,444,107,-131
-14,9,24,2,-19,17,161,395,653,444,107,-131
-14,24,39,-4,-26,31,151,390,649,429,97,-131
-19,9,29,4,-24,19,146,380,634,419,97,-131
-19,4,24,7,-21,14,141,375,619,414,97,-126
-19,4,24,7,-21,14,141,361,610,414,97,-117
-9,0,9,4,-9,4,136,351,590,405,102,-117
-9,-4,4,7,-7,0,131,341,580,395,102,-117
-9,-9,0,9,-4,-4,126,336,580,380,102,-107
-9,-9,0,9,-4,-4,117,326,561,375,102,-107
-9,-4,4,7,-7,0,112,322,546,370,87,-112
-9,0,9,4,-9,4,112,317,536,366,87,-112
-9,4,14,2,-12,9,112,312,522,356,92,-102
-9,9,19,0,-14,14,112,302,517,356,92,-97
-19,4,24,7,-21,14,117,297,502,341,97,-97
-19,9,29,4,-24,19,107,292,488,331,97,-92
-19,9,29,4,-24,19,107,287,473,326,97,-92
-14,9,24,2,-19,17,97,278,458,322,97,-82
-14,19,34,-2,-24,26,102,263,453,317,97,-78
-14,4,19,4,-17,12,82,248,424,307,87,-78
-14,0,14,7,-14,7,82,244,414,292,92,-73
-14,-9,4,12,-9,-2,87,248,419,283,102,-53
-4,4,9,0,-7,7,73,239,400,258,87,-53
-4,34,39,-14,-21,36,63,214,375,248,82,-58
0,48,48,-24,-24,48,48,190,346,224,63,-68
0,63,63,-31,-31,63,39,175,322,214,53,-73
0,58,58,-29,-29,58,39,156,312,204,53,-73
0,48,48,-24,-24,48,34,151,287,190,48,-63
0,39,39,-19,-19,39,29,151,287,180,43,-63
0,34,34,-17,-17,34,24,156,278,165,43,-63
9,39,29,-24,-9,34,29,146,278,165,53,-53
9,39,29,-24,-9,34,24,141,268,161,48,-48
9,29,19,-19,-4,24,19,126,248,156,48,-48
9,29,19,-19,-4,24,14,117,234,146,43,-48
9,43,34,-26,-12,39,9,112,214,126,39,-48
9,53,43,-31,-17,48,9,102,209,126,34,-48
14,58,43,-36,-14,51,9,102,190,112,29,-48
14,73,58,-43,-21,65,4,92,180,97,24,-48
4,53,48,-29,-21,51,4,73,161,87,14,-48
4,34,29,-19,-12,31,0,73,161,78,14,-48
4,24,19,-14,-7,21,0,68,151,73,9,-48
4,19,14,-12,-4,17,-9,58,136,63,0,-53
4,48,43,-26,-19,46,-19,48,112,39,-9,-58
4,48,43,-26,-19,46,-19,43,102,29,-19,-68
0,48,48,-24,-24,48,-19,43,97,14,-24,-68
-4,53,58,-24,-31,56,-19,39,97,4,-24,-68
4,48,43,-26,-19,46,-19,43,82,-4,-19,-58
4,48,43,-26,-19,46,-19,34,78,-4,-34,-63
4,63,58,-34,-26,61,-19,29,78,-4,-39,-63
4,48,43,-26,-19,46,-14,29,78,0,-39,-63
-4,43,48,-19,-26,46,-24,14,63,0,-43,-63
-4,48,53,-21,-29,51,-24,14,58,-9,-48,-68
-9,58,68,-24,-39,63,-24,19,58,-19,-58,-78
-9,63,73,-26,-41,68,-24,19,58,-29,-63,-87
-9,48,58,-19,-34,53,-14,24,63,-29,-68,-87
-9,43,53,-17,-31,48,-14,24,58,-34,-68,-87
-9,39,48,-14,-29,43,-14,24,58,-34,-63,-82
-9,34,43,-12,-26,39,-14,24,58,-29,-63,-78
-9,39,48,-14,-29,43,-14,14,58,-29,-53,-73
-9,34,43,-12,-26,39,-14,14,58,-24,-53,-73
-9,29,39,-9,-24,34,-14,14,58,-24,-58,-73
-9,24,34,-7,-21,29,-14,14,58,-24,-58,-73
-9,39,48,-14,-29,43,-14,4,53,-24,-53,-82
-9,43,53,-17,-31,48,-14,14,53,-24,-53,-82
-9,48,58,-19,-34,53,-9,19,63,-24,-53,-73
-9,34,43,-12,-26,39,-9,19,63,-29,-53,-73
-9,43,53,-17,-31,48,0,14,68,-29,-58,-82
-9,39,48,-14,-29,43,-4,14,63,-29,-58,-92
-4,34,39,-14,-21,36,-4,4,53,-14,-53,-82
-4,24,29,-9,-17,26,4,19,68,-9,-53,-82
-4,24,29,-9,-17,26,-4,19,78,-9,-63,-87
-4,14,19,-4,-12,17,-4,19,63,-14,-63,-87
-4,24,29,-9,-17,26,-9,14,53,-24,-63,-92
-4,39,43,-17,-24,41,-14,14,48,-29,-58,-92
-9,29,39,-9,-24,34,-9,24,53,-29,-58,-87
-9,24,34,-7,-21,29,-4,24,58,-14,-53,-87
-4,24,29,-9,-17,26,0,24,63,-4,-53,-87
-4,34,39,-14,-21,36,-9,14,63,-4,-53,-87
-9,34,43,-12,-26,39,0,19,68,9,-39,-78
-9,24,34,-7,-21,29,0,24,73,9,-29,-78
-9,24,34,-7,-21,29,0,29,78,9,-29,-78
-9,34,43,-12,-26,39,0,34,82,9,-24,-78
-9,53,63,-21,-36,58,-9,24,68,9,-34,-78
-9,53,63,-21,-36,58,-14,24,68,14,-29,-68
-9,43,53,-17,-31,48,-19,29,68,14,-29,-68
-9,43,53,-17,-31,48,-24,29,78,14,-29,-68
-4,63,68,-29,-36,65,-39,24,73,4,-34,-78
-4,53,58,-24,-31,56,-43,19,68,0,-39,-78
-4,53,58,-24,-31,56,-43,14,58,-4,-39,-78
-4,39,43,-17,-24,41,-48,9,53,0,-43,-78
4,39,34,-21,-14,36,-43,19,63,4,-29,-63
4,43,39,-24,-17,41,-43,14,58,4,-24,-63
4,43,39,-24,-17,41,-43,9,53,-4,-34,-68
4,39,34,-21,-14,36,-48,9,39,-4,-29,-78
4,39,34,-21,-14,36,-39,34,53,0,-19,-63
4,29,24,-17,-9,26,-34,43,63,9,-14,-58
4,34,29,-19,-12,31,-34,34,68,14,-14,-58
4,43,39,-24,-17,41,-39,34,68,14,-14,-58
-4,43,48,-19,-26,46,-39,43,73,14,-14,-53
-4,48,53,-21,-29,51,-34,39,68,14,-19,-53
-4,48,53,-21,-29,51,-29,34,68,14,-19,-53
-4,43,48,-19,-26,46,-19,34,68,19,-14,-48
-4,34,39,-14,-21,36,-19,39,58,19,-14,-58
-4,29,34,-12,-19,31,-19,39,58,9,-19,-63
-4,29,34,-12,-19,31,-19,34,53,0,-34,-68
-4,29,34,-12,-19,31,-9,29,53,0,-34,-78
-4,34,39,-14,-21,36,4,24,43,-9,-43,-82
-4,19,24,-7,-14,21,4,24,39,-19,-48,-87
-4,4,9,0,-7,7,-4,24,34,-24,-48,-87
-4,-4,0,4,-2,-2,-4,24,34,-29,-48,-87
-14,-9,4,12,-9,-2,4,19,34,-34,-58,-97
-14,-19,-4,17,-4,-12,4,19,24,-34,-58,-97
-14,-9,4,12,-9,-2,4,19,14,-43,-68,-107
-14,-9,4,12,-9,-2,0,4,9,-48,-73,-112
-14,-14,0,14,-7,-7,9,9,9,-53,-68,-117
-14,-34,-19,24,2,-26,9,9,14,-53,-68,-117
-14,-39,-24,26,4,-31,9,9,14,-53,-68,-117
-9,-34,-24,21,7,-29,9,4,14,-58,-68,-117
-9,-24,-14,17,2,-19,9,14,14,-48,-73,-122
-9,-34,-24,21,7,-29,9,14,14,-43,-73,-122
-9,-39,-29,24,9,-34,9,19,14,-43,-68,-117
-9,-39,-29,24,9,-34,9,19,14,-43,-68,-117
-9,-34,-24,21,7,-29,4,9,0,-63,-73,-126
-14,-14,0,14,-7,-7,0,0,-4,-63,-78,-126
-14,-9,4,12,-9,-2,-4,-4,-14,-63,-82,-126
-14,-4,9,9,-12,2,-9,0,-14,-68,-87,-126
-14,0,14,7,-14,7,-9,0,-9,-58,-82,-122
-14,0,14,7,-14,7,-9,-4,-14,-63,-87,-122
-14,0,14,7,-14,7,-9,-4,-14,-73,-87,-122
-14,0,14,7,-14,7,-4,-4,-14,-73,-87,-122
-14,-14,0,14,-7,-7,0,4,-9,-73,-87,-126
-14,-14,0,14,-7,-7,0,4,-9,-73,-87,-126
-14,-19,-4,17,-4,-12,-4,0,-14,-73,-87,-126
-14,-19,-4,17,-4,-12,-9,0,-14,-73,-87,-126
-14,0,14,7,-14,7,-9,-9,-14,-82,-87,-126
-14,14,29,0,-21,21,-9,-9,-14,-87,-87,-126
-14,14,29,0,-21,21,-9,-9,-14,-87,-92,-126
-14,14,29,0,-21,21,-9,-9,-19,-82,-92,-126
-14,4,19,4,-17,12,-9,-9,-24,-87,-92,-126
-14,0,14,7,-14,7,-9,-9,-24,-92,-92,-126
-9,-19,-9,14,0,-14,-9,-14,-24,-97,-92,-126
-9,-24,-14,17,2,-19,-9,-19,-24,-107,-92,-131
-19,-29,-9,24,-4,-19,0,-4,-14,-92,-87,-117
-19,-29,-9,24,-4,-19,0,-4,-24,-87,-87,-117
-9,-9,0,9,-4,-4,0,-9,-19,-87,-97,-117
-9,-19,-9,14,0,-14,0,-9,-29,-87,-97,-117
-9,-19,-9,14,0,-14,0,-9,-29,-87,-97,-117
-9,-19,-9,14,0,-14,0,-9,-29,-87,-97,-117
-9,-19,-9,14,0,-14,0,-9,-29,-87,-97,-117
-4,-34,-29,19,12,-31,0,-9,-19,-87,-87,-117
-4,-34,-29,19,12,-31,4,-4,-19,-87,-87,-117
-9,-29,-19,19,4,-24,4,-4,-19,-87,-92,-117
-14,-29,-14,21,0,-21,4,-9,-24,-92,-92,-117
-14,-19,-4,17,-4,-12,-4,-9,-34,-102,-97,-117
-14,-19,-4,17,-4,-12,-9,-9,-34,-102,-97,-117
-14,-19,-4,17,-4,-12,-9,-9,-34,-102,-97,-117
-14,-19,-4,17,-4,-12,-4,-9,-34,-97,-97,-117
-9,-19,-9,14,0,-14,-14,-19,-34,-97,-87,-117
-9,-19,-9,14,0,-14,-14,-19,-34,-97,-87,-117
-9,-19,-9,14,0,-14,-14,-19,-34,-97,-87,-117
-9,-19,-9,14,0,-14,-14,-19,-34,-97,-87,-117
-9,-29,-19,19,4,-24,-4,-9,-24,-97,-87,-117
-9,-34,-24,21,7,-29,-4,-9,-24,-97,-87,-117
-9,-34,-24,21,7,-29,-4,-9,-24,-97,-87,-117
-9,-29,-19,19,4,-24,-9,-4,-24,-97,-87,-117
0,-19,-19,9,9,-19,-9,-14,-39,-92,-102,-117
0,-19,-19,9,9,-19,-9,-19,-39,-92,-102,-122
0,-19,-19,9,9,-19,-9,-19,-34,-92,-102,-122
0,-29,-29,14,14,-29,-9,-14,-34,-92,-97,-112
-9,-39,-29,24,9,-34,0,-4,-24,-92,-87,-112
-9,-24,-14,17,2,-19,0,-9,-24,-92,-87,-117
-9,-14,-4,12,-2,-9,-4,-14,-24,-97,-92,-122
-9,-14,-4,12,-2,-9,-4,-14,-24,-97,-92,-122
-19,-29,-9,24,-4,-19,0,0,-19,-87,-87,-107
-14,-29,-14,21,0,-21,0,0,-19,-87,-87,-102
-14,-24,-9,19,-2,-17,0,-4,-24,-87,-82,-102
-14,-24,-9,19,-2,-17,0,-4,-24,-87,-82,-102
-14,-14,0,14,-7,-7,0,-4,-24,-92,-82,-112
-14,-24,-9,19,-2,-17,0,-4,-24,-92,-82,-112
-14,-24,-9,19,-2,-17,0,-4,-19,-92,-82,-112
-14,-9,4,12,-9,-2,0,-4,-19,-87,-82,-112
-14,-9,4,12,-9,-2,-4,-14,-19,-87,-82,-102
-14,-19,-4,17,-4,-12,-4,-4,-19,-87,-82,-102
-14,-34,-19,24,2,-26,-4,-4,-19,-87,-82,-102
-14,-24,-9,19,-2,-17,-4,-9,-19,-87,-82,-102
-14,-9,4,12,-9,-2,0,0,-19,-92,-73,-102
-14,-14,0,14,-7,-7,4,0,-19,-87,-73,-102
-19,-34,-14,26,-2,-24,9,0,-19,-78,-73,-102
-19,-43,-24,31,2,-34,14,0,-19,-68,-73,-102
-19,-43,-24,31,2,-34,4,0,-9,-78,-73,-102
-14,-43,-29,29,7,-36,4,0,-9,-78,-73,-97
-14,-39,-24,26,4,-31,4,0,-9,-78,-78,-97
-14,-39,-24,26,4,-31,4,0,-9,-78,-78,-97
-4,-39,-34,21,14,-36,14,9,-9,-78,-82,-107
-4,-29,-24,17,9,-26,14,9,-9,-78,-82,-102
-4,-39,-34,21,14,-36,9,9,-9,-78,-82,-102
-4,-39,-34,21,14,-36,9,9,-9,-78,-82,-107
4,-29,-34,12,19,-31,9,9,-9,-82,-82,-117
4,-34,-39,14,21,-36,4,4,-14,-82,-87,-112
4,-34,-39,14,21,-36,0,0,-19,-82,-92,-112
4,-34,-39,14,21,-36,-4,-4,-24,-87,-97,-117
4,-34,-39,14,21,-36,-4,-4,-14,-87,-92,-107
4,-34,-39,14,21,-36,-4,-4,-14,-92,-92,-107
4,-29,-34,12,19,-31,-4,-4,-14,-92,-87,-107
4,-29,-34,12,19,-31,-4,-4,-14,-92,-82,-107
19,-39,-58,9,39,-48,-4,-4,-14,-92,-82,-112
19,-29,-48,4,34,-39,-4,-4,-14,-92,-82,-112
19,-29,-48,4,34,-39,-4,-4,-14,-87,-82,-112
14,-34,-48,9,31,-41,-4,-4,-14,-78,-82,-107
14,-34,-48,9,31,-41,-4,-4,-14,-87,-82,-117
14,-29,-43,7,29,-36,-4,-4,-14,-87,-82,-117
14,-29,-43,7,29,-36,-9,-9,-14,-87,-82,-117
14,-29,-43,7,29,-36,-9,-9,-14,-87,-82,-117
19,-39,-58,9,39,-48,0,-9,-14,-78,-92,-112
19,-34,-53,7,36,-43,0,0,-4,-68,-82,-112
9,-53,-63,21,36,-58,0,0,-4,-73,-78,-107
0,-48,-48,24,24,-48,0,4,4,-63,-68,-107
9,-39,-48,14,29,-43,0,29,39,-39,-48,-92
0,-78,-78,39,39,-78,24,78,107,14,-9,-63
0,-87,-87,43,43,-87,39,122,175,48,4,-53
0,19,19,-9,-9,19,19,131,204,53,-14,-87
0,58,58,-29,-29,58,39,175,268,78,-9,-87
0,4,4,-2,-2,4,92,263,361,126,29,-68
0,-19,-19,9,9,-19,107,297,409,156,48,-53
0,-9,-9,4,4,-9,92,273,380,156,68,-29
-4,14,19,-4,-12,17,58,209,302,146,82,-9
-4,19,24,-7,-14,21,29,141,234,146,102,4
-4,4,9,0,-7,7,9,82,170,161,126,48
-4,14,19,-4,-12,17,-24,-29,19,117,136,63
-9,78,87,-34,-48,82,-97,-190,-204,29,117,63
-9,141,151,-65,-80,146,-170,-361,-439,-58,97,58
-4,165,170,-80,-87,168,-234,-531,-692,-165,73,68
-4,170,175,-82,-90,173,-278,-678,-922,-253,78,92
-4,185,190,-90,-97,187,-331,-810,-1117,-326,63,112
-4,204,209,-100,-107,207,-390,-927,-1273,-395,53,141
-4,234,239,-114,-122,236,-434,-1039,-1429,-463,58,165
-4,258,263,-126,-134,261,-478,-1137,-1586,-522,58,204
-4,292,297,-143,-151,295,-522,-1239,-1732,-580,68,229
-4,336,341,-165,-173,339,-546,-1356,-1854,-629,63,248
-4,385,390,-190,-197,387,-610,-1478,-1976,-673,87,273
-4,419,424,-207,-214,422,-673,-1590,-2098,-712,112,322
-4,448,453,-222,-229,451,-727,-1698,-2230,-761,141,366
-9,468,478,-229,-244,473,-771,-1781,-2357,-844,131,400
-9,492,502,-241,-256,497,-834,-1869,-2469,-936,107,414
-4,536,541,-265,-273,539,-888,-1956,-2581,-1019,92,448
-4,590,595,-292,-300,592,-941,-2074,-2713,-1102,68,473
-9,644,653,-317,-331,649,-980,-2161,-2815,-1180,34,478
0,688,688,-344,-344,688,-985,-2191,-2864,-1259,0,473
0,707,707,-353,-353,707,-1000,-2200,-2898,-1356,-48,463
0,688,688,-344,-344,688,-1010,-2220,-2957,-1473,-112,463
9,653,644,-331,-317,649,-1019,-2210,-2976,-1581,-161,468
9,634,624,-322,-307,629,-1005,-2161,-2942,-1654,-209,468
9,629,619,-319,-305,624,-995,-2108,-2918,-1742,-268,468
9,619,610,-314,-300,614,-1000,-2069,-2903,-1815,-322,458
9,610,600,-309,-295,605,-1000,-2015,-2864,-1849,-346,458
9,595,585,-302,-287,590,-1000,-1966,-2796,-1873,-380,458
9,566,556,-287,-273,561,-980,-1898,-2732,-1898,-414,448
9,527,517,-268,-253,522,-951,-1810,-2625,-1869,-424,458
0,507,507,-253,-253,507,-917,-1727,-2498,-1800,-395,478
9,507,497,-258,-244,502,-893,-1664,-2400,-1747,-380,502
14,507,492,-261,-239,500,-873,-1629,-2342,-1708,-375,517
4,522,517,-263,-256,519,-868,-1600,-2298,-1668,-356,522
4,522,517,-263,-256,519,-849,-1556,-2210,-1600,-331,531
4,488,483,-246,-239,485,-810,-1468,-2088,-1517,-297,541
4,448,444,-226,-219,446,-790,-1390,-1981,-1449,-263,570
-4,429,434,-212,-219,431,-761,-1332,-1912,-1390,-234,590
-4,414,419,-204,-212,417,-732,-1278,-1834,-1356,-214,600
-4,375,380,-185,-192,378,-707,-1215,-1761,-1346,-224,590
-4,336,341,-165,-173,339,-673,-1146,-1664,-1298,-200,600
-4,326,331,-161,-168,329,-644,-1078,-1566,-1205,-122,649
-4,312,317,-153,-161,314,-619,-1029,-1488,-1137,-78,668
-4,287,292,-141,-148,290,-595,-976,-1429,-1093,-78,668
4,258,253,-131,-124,256,-566,-902,-1332,-1029,-39,683
4,234,229,-119,-112,231,-541,-834,-1239,-951,-4,692
0,214,214,-107,-107,214,-517,-785,-1180,-936,-14,678
0,190,190,-95,-95,190,-497,-736,-1117,-912,-29,653
0,165,165,-82,-82,165,-463,-678,-1034,-868,-29,629
0,161,161,-80,-80,161,-424,-619,-946,-814,-24,600
0,151,151,-75,-75,151,-390,-570,-863,-771,-34,566
-9,122,131,-56,-70,126,-366,-522,-800,-727,-53,517
0,102,102,-51,-51,102,-336,-478,-741,-702,-78,468
4,97,92,-51,-43,95,-322,-439,-688,-673,-107,409
-4,87,92,-41,-48,90,-287,-390,-614,-624,-131,346
-4,82,87,-39,-46,85,-258,-331,-522,-570,-141,287
0,63,63,-31,-31,63,-219,-268,-444,-512,-161,219
0,29,29,-14,-14,29,-170,-209,-361,-463,-175,161
0,0,0,0,0,0,-141,-165,-287,-429,-190,97
0,-9,-9,4,4,-9,-107,-131,-224,-366,-209,29
0,-19,-19,9,9,-19,-73,-92,-151,-292,-190,-4
9,-39,-48,14,29,-43,-43,-34,-68,-214,-180,-39
9,-58,-68,24,39,-63,-29,9,4,-146,-161,-73
9,-48,-58,19,34,-53,-9,58,68,-87,-136,-87
9,-29,-39,9,24,-34,24,97,136,-34,-102,-97
9,-43,-53,17,31,-48,53,146,195,14,-87,-112
9,-68,-78,29,43,-73,73,170,219,24,-82,-136
9,-117,-126,53,68,-122,107,200,253,58,-68,-146
9,-102,-112,46,61,-107,131,224,292,87,-48,-146
9,-9,-19,0,14,-14,107,214,302,97,-63,-165
0,-24,-24,12,12,-24,97,229,312,117,-63,-165
0,-29,-29,14,14,-29,107,234,331,126,-53,-165
0,-29,-29,14,14,-29,112,244,336,136,-48,-165
0,-14,-14,7,7,-14,117,248,346,136,-43,-170
4,-9,-14,2,9,-12,131,258,361,146,-43,-170
4,-14,-19,4,12,-17,131,258,366,146,-43,-180
4,-19,-24,7,14,-21,131,263,380,151,-39,-180
4,-29,-34,12,19,-31,131,263,380,161,-39,-180
4,-34,-39,14,21,-36,131,268,380,170,-39,-180
9,-29,-39,9,24,-34,131,273,385,170,-34,-180
9,-34,-43,12,26,-39,136,283,395,180,-34,-180
9,-43,-53,17,31,-48,141,292,405,190,-24,-175
4,-39,-43,17,24,-41,146,287,419,190,-24,-175
4,-58,-63,26,34,-61,151,292,424,204,-24,-170
4,-63,-68,29,36,-65,151,297,429,204,-19,-170
4,-63,-68,29,36,-65,146,297,429,204,-19,-175
4,-53,-58,24,31,-56,156,307,444,209,-19,-170
4,-53,-58,24,31,-56,161,307,448,214,-19,-170
4,-53,-58,24,31,-56,161,317,458,219,-9,-165
4,-58,-63,26,34,-61,161,322,473,229,-9,-165
4,-68,-73,31,39,-70,151,322,468,234,-9,-175
4,-68,-73,31,39,-70,161,326,468,234,-9,-175
0,-63,-63,31,31,-63,161,331,473,239,-9,-175
0,-63,-63,31,31,-63,165,336,478,244,-4,-175
-4,-68,-63,36,29,-65,175,336,492,253,4,-175
-4,-68,-63,36,29,-65,170,336,492,258,0,-185
-4,-73,-68,39,31,-70,170,341,492,263,0,-185
-4,-82,-78,43,36,-80,175,341,502,263,4,-185
-4,-97,-92,51,43,-95,180,361,517,268,4,-170
-4,-97,-92,51,43,-95,180,361,522,273,9,-170
-9,-97,-87,53,39,-92,180,361,522,278,9,-170
-9,-97,-87,53,39,-92,180,361,536,283,9,-170
-9,-87,-78,48,34,-82,175,361,536,287,9,-170
-4,-87,-82,46,39,-85,180,366,546,292,14,-170
-4,-87,-82,46,39,-85,180,366,551,292,14,-170
-4,-82,-78,43,36,-80,180,366,551,297,14,-170
-4,-78,-73,41,34,-75,190,375,556,307,24,-170
-4,-78,-73,41,34,-75,195,380,566,312,34,-170
-4,-73,-68,39,31,-70,195,380,570,322,34,-170
-4,-68,-63,36,29,-65,195,375,575,322,34,-170
4,-87,-92,41,48,-90,185,375,566,317,34,-180
4,-97,-102,46,53,-100,190,375,570,317,29,-180
4,-102,-107,48,56,-104,190,380,580,322,24,-180
4,-102,-107,48,56,-104,190,390,600,322,29,-180
14,-107,-122,46,68,-114,195,390,590,312,24,-190
14,-107,-122,46,68,-114,195,390,590,317,19,-185
14,-112,-126,48,70,-119,200,400,600,326,24,-185
14,-112,-126,48,70,-119,204,414,610,336,24,-185
4,-102,-107,48,56,-104,195,405,619,336,24,-185
4,-92,-97,43,51,-95,195,405,619,341,29,-185
0,-87,-87,43,43,-87,195,414,624,356,29,-180
0,-82,-82,41,41,-82,195,414,639,366,29,-180
0,-87,-87,43,43,-87,195,414,639,366,39,-190
0,-87,-87,43,43,-87,195,414,639,366,39,-190
0,-92,-92,46,46,-92,190,419,644,366,39,-190
0,-92,-92,46,46,-92,190,424,649,375,39,-190
-9,-102,-92,56,41,-97,195,434,663,385,48,-180
-9,-102,-92,56,41,-97,195,434,663,385,48,-180
-4,-102,-97,53,46,-100,200,439,668,385,48,-180
-4,-102,-97,53,46,-100,204,439,673,385,48,-180
-4,-82,-78,43,36,-80,200,434,663,390,58,-170
-4,-92,-87,48,41,-90,204,434,668,390,58,-170
-4,-107,-102,56,48,-104,209,439,678,390,63,-161
-4,-97,-92,51,43,-95,209,453,688,395,68,-161
-4,-87,-82,46,39,-85,204,453,688,390,63,-165
-4,-68,-63,36,29,-65,195,444,688,395,58,-175
-4,-48,-43,26,19,-46,190,434,683,400,53,-180
-4,-58,-53,31,24,-56,190,424,678,405,58,-175
4,-73,-78,34,41,-75,190,434,683,400,63,-185
4,-68,-73,31,39,-70,190,434,688,405,63,-185
4,-73,-78,34,41,-75,190,434,688,409,58,-185
4,-73,-78,34,41,-75,190,429,688,414,58,-185
4,-58,-63,26,34,-61,190,424,688,405,48,-190
4,-58,-63,26,34,-61,190,424,688,405,48,-190
4,-73,-78,34,41,-75,190,424,692,409,53,-185
4,-78,-82,36,43,-80,195,429,702,409,58,-185
14,-82,-97,34,56,-90,195,439,702,405,63,-180
14,-82,-97,34,56,-90,190,439,702,419,63,-180
14,-82,-97,34,56,-90,190,444,702,419,68,-180
14,-87,-102,36,58,-95,190,444,702,419,68,-180
14,-102,-117,43,65,-109,200,444,712,419,73,-180
14,-112,-126,48,70,-119,200,444,712,419,73,-180
14,-117,-131,51,73,-124,200,444,707,419,73,-175
14,-122,-136,53,75,-129,200,444,707,424,73,-170
14,-92,-107,39,61,-100,195,444,697,424,68,-170
14,-78,-92,31,53,-85,190,439,697,424,73,-175
14,-68,-82,26,48,-75,180,429,697,424,73,-175
14,-63,-78,24,46,-70,175,409,697,424,78,-175
14,-53,-68,19,41,-61,161,400,678,414,73,-185
9,-43,-53,17,31,-48,161,409,688,419,68,-180
9,-34,-43,12,26,-39,161,419,688,419,68,-175
9,-24,-34,7,21,-29,156,409,683,419,63,-175
0,-29,-29,14,14,-29,156,409,683,409,58,-185
0,-34,-34,17,17,-34,151,405,683,409,58,-180
0,-39,-39,19,19,-39,146,400,673,409,58,-175
0,-43,-43,21,21,-43,141,395,673,409,58,-170
0,-48,-48,24,24,-48,146,385,663,409,68,-161
0,-53,-53,26,26,-53,146,390,663,409,78,-156
0,-58,-58,29,29,-58,151,395,658,405,78,-156
4,-58,-63,26,34,-61,151,390,653,395,78,-156
4,-68,-73,31,39,-70,136,380,639,390,73,-151
4,-73,-78,34,41,-75,136,375,634,385,73,-151
4,-82,-87,39,46,-85,136,375,634,385,78,-141
4,-68,-73,31,39,-70,131,375,624,385,78,-141
-4,-53,-48,29,21,-51,131,361,619,380,78,-141
-9,-68,-58,39,24,-63,126,351,605,370,78,-141
-9,-73,-63,41,26,-68,122,346,590,366,78,-136
-9,-73,-63,41,26,-68,122,331,580,366,78,-126
-9,-73,-63,41,26,-68,117,331,570,356,73,-126
-9,-73,-63,41,26,-68,112,322,561,346,73,-126
-9,-73,-63,41,26,-68,107,317,561,331,73,-117
-9,-68,-58,39,24,-63,97,307,541,326,73,-117
-9,-68,-58,39,24,-63,87,292,522,312,68,-122
-9,-68,-58,39,24,-63,82,287,507,307,68,-122
-9,-68,-58,39,24,-63,78,283,488,297,73,-112
-9,-68,-58,39,24,-63,73,273,478,297,73,-107
-19,-78,-58,48,19,-68,68,258,463,283,58,-107
-19,-78,-58,48,19,-68,58,253,448,273,58,-102
-19,-82,-63,51,21,-73,58,248,434,268,58,-102
-14,-87,-73,51,29,-80,48,239,419,263,58,-92
-14,-63,-48,39,17,-56,43,219,405,248,53,-92
-14,-73,-58,43,21,-65,24,200,375,239,39,-97
-14,-73,-58,43,21,-65,24,190,366,224,39,-97
-14,-78,-63,46,24,-70,29,190,370,214,43,-82
-14,-82,-68,48,26,-75,29,190,356,209,48,-73
-14,-73,-58,43,21,-65,24,175,336,200,53,-68
-9,-78,-68,43,29,-73,14,161,312,175,43,-68
-9,-82,-73,46,31,-78,9,156,292,165,43,-63
-19,-87,-68,53,24,-78,9,131,283,165,43,-63
-19,-97,-78,58,29,-87,4,122,258,151,39,-53
-19,-107,-87,63,34,-97,0,117,258,141,34,-53
-19,-112,-92,65,36,-102,-4,117,248,126,34,-53
-9,-102,-92,56,41,-97,-9,107,229,122,34,-43
-9,-97,-87,53,39,-92,-14,102,219,112,29,-39
-9,-102,-92,56,41,-97,-19,87,200,102,29,-39
-9,-97,-87,53,39,-92,-24,78,185,87,24,-39
-19,-92,-73,56,26,-82,-39,73,175,68,19,-39
-19,-92,-73,56,26,-82,-39,63,170,68,14,-39
-14,-97,-82,56,34,-90,-39,63,151,53,9,-39
-14,-92,-78,53,31,-85,-43,53,141,39,4,-39
-14,-102,-87,58,36,-95,-34,34,112,34,-14,-48
-14,-112,-97,63,41,-104,-39,34,112,19,-14,-48
-14,-112,-97,63,41,-104,-39,29,102,9,-19,-48
-14,-107,-92,61,39,-100,-48,19,87,-4,-29,-53
-9,-87,-78,48,34,-82,-58,9,73,-9,-39,-58
-4,-97,-92,51,43,-95,-58,4,63,-19,-48,-68
-4,-107,-102,56,48,-104,-58,4,58,-34,-53,-68
-4,-112,-107,58,51,-109,-58,0,58,-43,-53,-68
4,-126,-131,61,68,-129,-58,4,43,-53,-48,-58
4,-126,-131,61,68,-129,-58,-4,39,-53,-63,-63
4,-112,-117,53,61,-114,-58,-9,39,-53,-68,-63
4,-126,-131,61,68,-129,-53,-9,39,-48,-68,-63
4,-122,-126,58,65,-124,-63,-24,24,-43,-68,-63
4,-117,-122,56,63,-119,-63,-24,19,-48,-68,-68
0,-107,-107,53,53,-107,-63,-19,19,-53,-73,-78
0,-102,-102,51,51,-102,-63,-19,19,-58,-73,-87
0,-112,-112,56,56,-112,-53,-24,4,-63,-82,-82
0,-112,-112,56,56,-112,-53,-24,0,-73,-87,-87
0,-112,-112,56,56,-112,-53,-24,0,-78,-87,-87
0,-112,-112,56,56,-112,-53,-24,0,-78,-92,-87
-9,-112,-102,61,46,-107,-43,-14,4,-78,-87,-82
-9,-122,-112,65,51,-117,-43,-14,9,-73,-82,-82
-9,-131,-122,70,56,-126,-43,-14,14,-73,-82,-82
-9,-141,-131,75,61,-136,-43,-14,19,-73,-78,-82
-9,-117,-107,63,48,-112,-43,-24,14,-82,-82,-102
-9,-112,-102,61,46,-107,-43,-14,14,-82,-82,-102
-9,-107,-97,58,43,-102,-39,-9,24,-82,-82,-92
-9,-122,-112,65,51,-117,-39,-9,24,-87,-82,-92
-9,-117,-107,63,48,-112,-39,-4,29,-87,-78,-92
-9,-117,-107,63,48,-112,-43,-4,24,-87,-78,-102
-4,-117,-112,61,53,-114,-43,-14,14,-73,-73,-92
-4,-122,-117,63,56,-119,-34,0,29,-68,-73,-92
4,-122,-126,58,65,-124,-43,4,34,-63,-82,-97
4,-131,-136,63,70,-134,-43,0,24,-63,-82,-97
4,-122,-126,58,65,-124,-48,-9,19,-68,-82,-102
4,-107,-112,51,58,-109,-53,-14,19,-68,-78,-102
0,-107,-107,53,53,-107,-43,-4,19,-78,-82,-107
0,-112,-112,56,56,-112,-43,-4,19,-63,-82,-107
4,-112,-117,53,61,-114,-43,-4,19,-53,-87,-107
4,-102,-107,48,56,-104,-58,-14,14,-53,-92,-107
0,-97,-97,48,48,-97,-48,-14,19,-39,-82,-102
0,-102,-102,51,51,-102,-48,-14,24,-39,-68,-97
0,-97,-97,48,48,-97,-48,-14,29,-39,-63,-92
0,-82,-82,41,41,-82,-48,-14,34,-39,-53,-87
-9,-78,-68,43,29,-73,-58,-24,29,-39,-53,-97
-9,-82,-73,46,31,-78,-63,-24,29,-34,-48,-87
-9,-97,-87,53,39,-92,-68,-19,29,-34,-48,-87
-9,-102,-92,56,41,-97,-73,-19,39,-34,-48,-87
-4,-82,-78,43,36,-80,-68,-19,34,-39,-39,-82
-4,-92,-87,48,41,-90,-73,-19,29,-39,-39,-78
-4,-92,-87,48,41,-90,-73,-19,19,-39,-34,-73
-4,-107,-102,56,48,-104,-78,-19,14,-29,-34,-68
-4,-87,-82,46,39,-85,-78,-9,19,-14,-24,-63
-4,-73,-68,39,31,-70,-82,-14,19,-14,-24,-63
-4,-63,-58,34,26,-61,-87,-19,19,-24,-39,-68
-4,-58,-53,31,24,-56,-97,-19,9,-24,-39,-78
-4,-78,-73,41,34,-75,-78,-4,29,-14,-29,-63
-4,-97,-92,51,43,-95,-73,4,34,-9,-24,-58
-4,-102,-97,53,46,-100,-73,-4,34,-9,-24,-58
-4,-102,-97,53,46,-100,-78,-4,29,-14,-24,-58
-4,-107,-102,56,48,-104,-78,4,24,-19,-19,-63
-4,-107,-102,56,48,-104,-73,0,19,-24,-29,-63
-4,-112,-107,58,51,-109,-68,-4,19,-29,-34,-63
-4,-122,-117,63,56,-119,-58,-4,19,-29,-34,-58
-4,-131,-126,68,61,-129,-48,0,9,-34,-43,-63
-4,-136,-131,70,63,-134,-48,0,9,-48,-48,-73
-4,-136,-131,70,63,-134,-48,-4,4,-63,-63,-82
-4,-136,-131,70,63,-134,-39,-9,4,-68,-63,-97
-4,-136,-131,70,63,-134,-34,-14,4,-63,-63,-112
-4,-146,-141,75,68,-143,-34,-14,0,-68,-68,-117
-4,-156,-151,80,73,-153,-43,-14,-4,-68,-68,-117
-4,-161,-156,82,75,-158,-43,-14,-4,-68,-68,-117
-4,-151,-146,78,70,-148,-43,-24,-14,-73,-73,-126
-4,-156,-151,80,73,-153,-43,-29,-24,-73,-78,-126
-4,-141,-136,73,65,-139,-43,-34,-34,-82,-92,-136
-4,-136,-131,70,63,-134,-48,-53,-39,-87,-102,-141
-4,-141,-136,73,65,-139,-43,-43,-34,-87,-102,-136
-4,-161,-156,82,75,-158,-39,-39,-24,-82,-97,-136
-4,-165,-161,85,78,-163,-34,-34,-19,-78,-92,-136
0,-161,-161,80,80,-161,-29,-34,-14,-78,-87,-136
0,-170,-170,85,85,-170,-29,-24,-14,-78,-87,-136
0,-180,-180,90,90,-180,-29,-24,-14,-73,-82,-131
0,-185,-185,92,92,-185,-29,-19,-14,-73,-73,-122
0,-185,-185,92,92,-185,-29,-19,-14,-73,-68,-117
0,-180,-180,90,90,-180,-39,-29,-24,-87,-82,-122
-4,-161,-156,82,75,-158,-39,-39,-34,-92,-87,-126
-4,-156,-151,80,73,-153,-39,-43,-48,-97,-92,-131
-4,-151,-146,78,70,-148,-39,-39,-53,-107,-97,-136
-14,-146,-131,80,58,-139,-29,-29,-53,-107,-102,-151
-14,-146,-131,80,58,-139,-29,-34,-53,-112,-107,-151
-14,-146,-131,80,58,-139,-29,-34,-48,-122,-107,-151
-14,-146,-131,80,58,-139,-24,-34,-43,-122,-107,-151
-14,-165,-151,90,68,-158,-19,-24,-39,-122,-107,-136
-14,-170,-156,92,70,-163,-19,-24,-39,-122,-107,-136
-14,-180,-165,97,75,-173,-24,-29,-43,-122,-107,-136
-14,-185,-170,100,78,-178,-29,-29,-43,-122,-107,-136
-14,-175,-161,95,73,-168,-29,-29,-43,-112,-97,-126
-14,-161,-146,87,65,-153,-29,-29,-43,-117,-97,-126
-14,-161,-146,87,65,-153,-29,-29,-43,-117,-102,-126
-14,-161,-146,87,65,-153,-29,-29,-48,-112,-102,-126
-14,-141,-126,78,56,-134,-29,-39,-53,-112,-92,-126
-14,-136,-122,75,53,-129,-29,-39,-53,-112,-92,-126
-9,-146,-136,78,63,-141,-29,-43,-53,-112,-92,-126
-9,-141,-131,75,61,-136,-29,-48,-53,-117,-92,-131
-9,-117,-107,63,48,-112,-39,-43,-53,-122,-97,-136
-9,-126,-117,68,53,-122,-39,-43,-63,-136,-107,-136
-9,-146,-136,78,63,-141,-29,-39,-48,-126,-107,-136
-9,-156,-146,82,68,-151,-29,-34,-39,-122,-97,-126
-9,-156,-146,82,68,-151,-29,-29,-39,-117,-97,-126
-9,-156,-146,82,68,-151,-29,-24,-39,-112,-97,-126
-9,-156,-146,82,68,-151,-29,-19,-39,-107,-97,-126
-4,-151,-146,78,70,-148,-34,-34,-53,-112,-107,-136
-4,-141,-136,73,65,-139,-34,-34,-58,-117,-107,-136
-9,-126,-117,68,53,-122,-39,-39,-63,-122,-112,-136
-14,-117,-102,65,43,-109,-43,-48,-73,-131,-112,-136
-4,-131,-126,68,61,-129,-39,-43,-68,-131,-107,-136
-4,-136,-131,70,63,-134,-39,-39,-63,-131,-107,-136
-4,-141,-136,73,65,-139,-34,-34,-58,-131,-107,-136
-4,-146,-141,75,68,-143,-24,-29,-53,-126,-107,-136
-9,-151,-141,80,65,-146,-24,-29,-53,-117,-97,-136
-9,-156,-146,82,68,-151,-24,-29,-53,-117,-97,-136
-9,-161,-151,85,70,-156,-24,-29,-53,-117,-97,-136
-9,-165,-156,87,73,-161,-24,-29,-53,-117,-97,-136
-9,-161,-151,85,70,-156,-24,-29,-43,-107,-97,-126
-9,-161,-151,85,70,-156,-24,-29,-43,-107,-97,-126
-9,-156,-146,82,68,-151,-24,-29,-43,-107,-97,-126
-9,-146,-136,78,63,-141,-29,-24,-43,-107,-97,-126
-9,-136,-126,73,58,-131,-29,-24,-58,-117,-112,-136
-9,-136,-126,73,58,-131,-29,-29,-58,-122,-112,-141
-9,-136,-126,73,58,-131,-29,-29,-53,-126,-112,-141
-9,-146,-136,78,63,-141,-29,-24,-53,-131,-107,-131
-9,-146,-136,78,63,-141,-29,-14,-53,-131,-107,-122
-9,-131,-122,70,56,-126,-29,-19,-53,-131,-107,-126
-9,-122,-112,65,51,-117,-34,-24,-53,-136,-112,-131
-9,-122,-112,65,51,-117,-34,-24,-53,-136,-112,-131
-9,-131,-122,70,56,-126,-29,-19,-39,-122,-102,-126
-4,-126,-122,65,58,-124,-29,-19,-39,-117,-97,-122
-4,-117,-112,61,53,-114,-29,-24,-43,-112,-87,-122
-4,-112,-107,58,51,-109,-29,-24,-43,-107,-82,-122
-14,-122,-107,68,46,-114,-19,-14,-53,-122,-92,-122
-14,-131,-117,73,51,-124,-19,-14,-53,-122,-92,-122
-14,-131,-117,73,51,-124,-19,-14,-48,-122,-92,-122
-14,-117,-102,65,43,-109,-19,-14,-48,-117,-92,-122
-14,-131,-117,73,51,-124,-14,-24,-48,-126,-102,-122
-14,-146,-131,80,58,-139,-14,-14,-48,-126,-102,-122
-14,-165,-151,90,68,-158,-14,-14,-48,-126,-102,-122
-14,-161,-146,87,65,-153,-14,-19,-48,-126,-102,-122
-14,-126,-112,70,48,-119,-24,-29,-58,-136,-112,-131
-14,-122,-107,68,46,-114,-24,-29,-58,-136,-112,-131
-19,-131,-112,75,46,-122,-24,-29,-58,-131,-112,-131
-19,-131,-112,75,46,-122,-24,-29,-58,-126,-112,-131
-19,-126,-107,73,43,-117,-24,-19,-48,-136,-102,-141
-14,-122,-107,68,46,-114,-24,-19,-48,-136,-102,-136
-14,-112,-97,63,41,-104,-24,-19,-48,-136,-107,-136
-14,-107,-92,61,39,-100,-24,-19,-48,-136,-107,-136
-14,-117,-102,65,43,-109,-24,-9,-39,-126,-97,-126
-14,-107,-92,61,39,-100,-24,-9,-39,-117,-92,-122
-14,-117,-102,65,43,-109,-29,-9,-39,-107,-87,-122
-14,-117,-102,65,43,-109,-29,-9,-39,-97,-82,-126
-14,-117,-102,65,43,-109,-24,-14,-34,-102,-82,-117
-14,-122,-107,68,46,-114,-24,-14,-34,-102,-87,-112
-14,-122,-107,68,46,-114,-24,-14,-34,-102,-92,-112
-14,-122,-107,68,46,-114,-24,-14,-34,-107,-97,-117
-14,-117,-102,65,43,-109,-24,-24,-39,-117,-107,-122
-14,-112,-97,63,41,-104,-24,-24,-43,-122,-112,-126
-14,-102,-87,58,36,-95,-24,-24,-48,-122,-112,-131
-14,-97,-82,56,34,-90,-24,-24,-53,-122,-112,-136
-19,-117,-97,68,39,-107,-24,-14,-43,-126,-112,-131
-19,-107,-87,63,34,-97,-24,-14,-43,-131,-112,-131
-19,-107,-87,63,34,-97,-24,-14,-43,-131,-112,-131
-24,-112,-87,68,31,-100,-24,-14,-43,-126,-112,-126
-24,-112,-87,68,31,-100,-14,-4,-34,-117,-107,-126
-24,-107,-82,65,29,-95,-14,-4,-34,-117,-102,-126
-24,-107,-82,65,29,-95,-19,-9,-34,-117,-97,-126
-24,-107,-82,65,29,-95,-19,-9,-34,-117,-92,-126
-19,-97,-78,58,29,-87,-19,-9,-24,-87,-82,-112
-9,-112,-102,61,46,-107,-9,0,-24,-87,-82,-102
-9,-102,-92,56,41,-97,-9,0,-14,-82,-78,-107
-19,-97,-78,58,29,-87,-9,14,-4,-82,-78,-107
-19,-107,-87,63,34,-97,-9,29,19,-78,-78,-102
-19,-126,-107,73,43,-117,4,78,78,-63,-58,-92
-19,-136,-117,78,48,-126,9,122,136,-29,-53,-102
-9,-117,-107,63,48,-112,19,170,195,14,-34,-97
-9,-78,-68,43,29,-73,48,244,297,68,9,-78
0,-43,-43,21,21,-43,63,312,380,126,39,-58
0,-29,-29,14,14,-29,68,297,370,126,48,-53
0,-39,-39,19,19,-39,53,224,283,78,29,-58
4,-34,-39,14,21,-36,19,141,175,29,14,-58
4,-29,-34,12,19,-31,0,73,97,9,14,-43
4,-34,-39,14,21,-36,-19,-14,-4,-14,29,-29
4,-43,-48,19,26,-46,-53,-136,-165,-68,29,-4
0,-58,-58,29,29,-58,-97,-287,-370,-126,19,14
0,-43,-43,21,21,-43,-161,-468,-605,-214,9,19
4,-29,-34,12,19,-31,-224,-668,-868,-302,-4,39
4,-4,-9,0,7,-7,-278,-814,-1078,-361,9,73
4,39,34,-21,-14,36,-322,-946,-1244,-424,4,102
14,126,112,-70,-48,119,-390,-1093,-1439,-502,-14,122
14,224,209,-119,-97,217,-453,-1234,-1634,-580,-39,146
14,268,253,-141,-119,261,-517,-1342,-1790,-658,-48,156
4,283,278,-143,-136,280,-551,-1434,-1917,-727,-48,170
14,287,273,-151,-129,280,-575,-1522,-2010,-775,-24,190
14,287,273,-151,-129,280,-619,-1625,-2103,-790,0,244
4,312,307,-158,-151,309,-683,-1756,-2244,-819,34,302
4,341,336,-173,-165,339,-746,-1893,-2396,-897,34,346
0,380,380,-190,-190,380,-800,-1995,-2562,-1019,-14,361
9,414,405,-212,-197,409,-854,-2113,-2723,-1171,-87,356
4,468,463,-236,-229,466,-917,-2210,-2864,-1263,-112,361
4,541,536,-273,-265,539,-980,-2298,-2947,-1327,-126,375
0,614,614,-307,-307,614,-1010,-2376,-3010,-1385,-170,370
0,639,639,-319,-319,639,-1015,-2405,-3050,-1444,-214,366
0,649,649,-324,-324,649,-1019,-2425,-3084,-1503,-234,385
-9,639,649,-314,-329,644,-1029,-2435,-3142,-1610,-268,414
-9,644,653,-317,-331,649,-1039,-2435,-3172,-1717,-336,400
-9,653,663,-322,-336,658,-1034,-2396,-3167,-1820,-424,370
-9,658,668,-324,-339,663,-1054,-2352,-3162,-1956,-512,341
-9,629,639,-309,-324,634,-1058,-2303,-3137,-2049,-585,331
-9,600,610,-295,-309,605,-1049,-2230,-3059,-2083,-600,341
-9,575,585,-283,-297,580,-1039,-2152,-3001,-2127,-634,341
-9,546,556,-268,-283,551,-1029,-2074,-2937,-2161,-668,341
-19,507,527,-244,-273,517,-1010,-1986,-2820,-2113,-658,361
-19,507,527,-244,-273,517,-976,-1912,-2713,-2034,-619,380
-19,536,556,-258,-287,546,-961,-1878,-2644,-1991,-605,385
-14,566,580,-275,-297,573,-951,-1844,-2596,-1961,-600,400
-14,570,585,-278,-300,578,-936,-1815,-2542,-1932,-580,414
-14,531,546,-258,-280,539,-917,-1732,-2425,-1864,-556,414
-14,507,522,-246,-268,514,-868,-1615,-2274,-1751,-512,434
-14,478,492,-231,-253,485,-829,-1527,-2156,-1654,-458,444
-4,439,444,-217,-224,441,-800,-1468,-2069,-1576,-419,444
-4,395,400,-195,-202,397,-761,-1395,-1971,-1542,-409,424
-4,356,361,-175,-183,358,-717,-1302,-1859,-1493,-400,424
-4,317,322,-156,-163,319,-673,-1215,-1732,-1376,-326,463
4,278,273,-141,-134,275,-644,-1127,-1615,-1263,-248,502
4,263,258,-134,-126,261,-600,-1058,-1517,-1195,-224,492
4,229,224,-117,-109,226,-566,-966,-1400,-1122,-185,492
14,190,175,-102,-80,183,-527,-873,-1273,-1000,-117,497
14,165,151,-90,-68,158,-502,-785,-1161,-912,-82,497
9,146,136,-78,-63,141,-468,-717,-1063,-849,-73,483
9,112,102,-61,-46,107,-429,-658,-980,-805,-68,458
19,78,58,-48,-19,68,-385,-590,-897,-771,-78,414
19,63,43,-41,-12,53,-336,-541,-829,-756,-102,366
19,34,14,-26,2,24,-302,-483,-746,-722,-131,322
9,-24,-34,7,21,-29,-287,-414,-673,-678,-151,273
19,-43,-63,12,41,-53,-268,-370,-614,-644,-175,224
14,-29,-43,7,29,-36,-253,-331,-551,-595,-185,175
14,-19,-34,2,24,-26,-229,-292,-478,-536,-200,112
4,-14,-19,4,12,-17,-200,-244,-405,-473,-209,63
9,-14,-24,2,17,-19,-151,-180,-317,-414,-209,24
0,-29,-29,14,14,-29,-112,-131,-253,-366,-214,-14
0,-68,-68,34,34,-68,-92,-97,-200,-341,-229,-68
0,-107,-107,53,53,-107,-58,-43,-136,-307,-229,-107
0,-97,-97,48,48,-97,-24,-4,-63,-234,-209,-112
0,-68,-68,34,34,-68,-14,24,0,-156,-170,-126
0,-58,-58,29,29,-58,0,68,73,-68,-131,-131
0,-78,-78,39,39,-78,19,117,136,-9,-97,-126
0,-117,-117,58,58,-117,43,156,185,-4,-92,-136
-9,-151,-141,80,65,-146,73,195,214,-4,-87,-141
0,-156,-156,78,78,-156,92,219,239,14,-82,-146
-9,-165,-156,87,73,-161,117,229,263,39,-78,-156
-9,-170,-161,90,75,-165,131,253,302,87,-58,-165
-9,-185,-175,97,82,-180,146,283,341,136,-34,-156
-9,-175,-165,92,78,-170,141,297,351,146,-34,-156
-9,-175,-165,92,78,-170,146,302,370,156,-24,-156
-9,-170,-161,90,75,-165,146,312,375,165,-19,-156
-9,-151,-141,80,65,-146,146,317,385,165,-14,-161
-14,-141,-126,78,56,-134,151,307,385,165,-19,-161
-14,-141,-126,78,56,-134,151,307,385,156,-24,-170
-14,-141,-126,78,56,-134,151,312,395,151,-24,-170
-14,-146,-131,80,58,-139,151,312,390,151,-29,-170
-24,-165,-141,95,58,-153,151,322,405,161,-14,-161
-19,-165,-146,92,63,-156,151,331,414,170,-4,-161
-19,-175,-156,97,68,-165,156,346,429,190,0,-161
-19,-190,-170,104,75,-180,161,361,444,209,14,-156
-14,-180,-165,97,75,-173,156,351,444,200,9,-165
-14,-185,-170,100,78,-178,161,351,444,214,4,-161
-14,-175,-161,95,73,-168,161,351,444,214,4,-161
-14,-161,-146,87,65,-153,156,346,439,214,0,-165
-24,-156,-131,90,53,-143,165,356,453,209,-9,-170
-24,-151,-126,87,51,-139,170,356,458,214,-9,-170
-24,-146,-122,85,48,-134,170,366,468,219,0,-165
-24,-146,-122,85,48,-134,170,370,483,229,0,-165
-14,-165,-151,90,68,-158,170,380,488,229,0,-165
-14,-165,-151,90,68,-158,180,385,488,224,0,-165
-19,-161,-141,90,61,-151,180,390,492,224,0,-165
-19,-161,-141,90,61,-151,185,395,497,224,4,-165
-4,-170,-165,87,80,-168,195,395,512,229,14,-156
-4,-165,-161,85,78,-163,190,395,512,239,9,-165
-4,-165,-161,85,78,-163,190,400,512,248,9,-165
-4,-170,-165,87,80,-168,195,400,522,253,14,-165
4,-170,-175,82,90,-173,190,409,527,268,24,-170
4,-165,-170,80,87,-168,190,409,531,273,29,-170
0,-161,-161,80,80,-161,190,409,531,278,29,-170
0,-156,-156,78,78,-156,190,409,546,283,29,-170
-9,-136,-126,73,58,-131,185,414,536,278,14,-180
-4,-126,-122,65,58,-124,190,414,546,273,14,-180
-4,-117,-112,61,53,-114,190,409,551,263,9,-180
-4,-102,-97,53,46,-100,190,405,551,258,4,-180
-4,-117,-112,61,53,-114,195,429,561,273,14,-170
-4,-136,-131,70,63,-134,204,439,575,283,24,-170
-4,-151,-146,78,70,-148,209,444,585,297,24,-170
-4,-165,-161,85,78,-163,214,444,595,302,24,-170
-4,-180,-175,92,85,-178,214,453,605,307,34,-161
-4,-185,-180,95,87,-183,219,453,610,317,39,-161
-4,-185,-180,95,87,-183,219,458,619,331,43,-161
-4,-180,-175,92,85,-178,219,468,639,341,58,-161
-4,-161,-156,82,75,-158,214,458,629,336,53,-170
-4,-156,-151,80,73,-153,214,458,629,336,48,-165
-4,-156,-151,80,73,-153,219,468,639,341,53,-165
-4,-151,-146,78,70,-148,224,483,649,346,53,-165
-4,-141,-136,73,65,-139,214,478,649,356,53,-165
-4,-131,-126,68,61,-129,214,473,649,361,58,-165
-9,-126,-117,68,53,-122,214,478,653,375,58,-161
-9,-122,-112,65,51,-117,214,473,668,385,58,-161
-9,-126,-117,68,53,-122,224,483,668,380,58,-161
-9,-126,-117,68,53,-122,224,483,668,375,58,-161
-9,-131,-122,70,56,-126,219,488,673,370,58,-161
-9,-131,-122,70,56,-126,219,492,678,375,58,-161
-9,-122,-112,65,51,-117,219,492,692,390,78,-161
-9,-122,-112,65,51,-117,214,492,692,395,78,-161
-4,-122,-117,63,56,-119,214,497,697,400,78,-161
-4,-122,-117,63,56,-119,214,497,702,405,78,-161
-4,-117,-112,61,53,-114,229,488,702,400,78,-161
-4,-131,-126,68,61,-129,234,492,707,400,78,-161
-4,-151,-146,78,70,-148,239,502,717,400,82,-151
-4,-146,-141,75,68,-143,239,522,727,405,87,-151
-4,-151,-146,78,70,-148,229,527,727,400,82,-161
-4,-136,-131,70,63,-134,224,522,727,405,78,-165
-4,-122,-117,63,56,-119,224,517,722,409,73,-165
-4,-136,-131,70,63,-134,229,512,717,414,78,-156
4,-131,-136,63,70,-134,239,502,732,424,87,-156
4,-117,-122,56,63,-119,239,502,736,434,92,-156
4,-112,-117,53,61,-114,239,502,736,444,92,-156
4,-102,-107,48,56,-104,239,497,736,453,97,-156
14,-92,-107,39,61,-100,224,492,732,439,92,-170
14,-87,-102,36,58,-95,219,492,727,434,87,-170
14,-97,-112,41,63,-104,214,492,727,434,87,-165
14,-97,-112,41,63,-104,214,497,732,429,87,-165
14,-102,-117,43,65,-109,224,497,741,448,107,-156
14,-102,-117,43,65,-109,219,497,741,468,112,-151
14,-102,-117,43,65,-109,219,502,741,473,122,-146
14,-107,-122,46,68,-114,219,502,741,478,126,-141
4,-97,-102,46,53,-100,219,502,732,463,117,-151
4,-102,-107,48,56,-104,219,502,732,458,112,-151
4,-102,-107,48,56,-104,219,502,727,453,107,-146
4,-102,-107,48,56,-104,219,502,727,453,102,-141
4,-97,-102,46,53,-100,219,507,736,444,107,-141
4,-87,-92,41,48,-90,219,507,736,444,112,-146
4,-82,-87,39,46,-85,214,502,736,444,112,-146
4,-82,-87,39,46,-85,214,488,736,444,117,-146
-4,-82,-78,43,36,-80,209,488,727,448,122,-131
-9,-82,-73,46,31,-78,209,497,736,458,126,-122
-9,-82,-73,46,31,-78,209,507,736,463,136,-112
-9,-82,-73,46,31,-78,204,497,732,468,141,-107
-9,-58,-48,34,19,-53,204,492,712,458,136,-117
-9,-53,-43,31,17,-48,200,483,712,458,136,-112
-9,-48,-39,29,14,-43,195,473,702,458,136,-107
-9,-43,-34,26,12,-39,190,463,702,458,136,-102
-9,-58,-48,34,19,-53,195,463,702,448,126,-102
-9,-73,-63,41,26,-68,195,468,702,448,136,-97
-9,-87,-78,48,34,-82,200,473,697,444,136,-97
-4,-97,-92,51,43,-95,200,468,692,434,136,-97
-4,-82,-78,43,36,-80,185,463,668,439,141,-102
-4,-82,-78,43,36,-80,185,453,663,434,141,-102
-4,-87,-82,46,39,-85,185,448,663,434,146,-92
-4,-68,-63,36,29,-65,180,444,653,434,146,-92
-4,-34,-29,19,12,-31,170,419,629,419,136,-102
-9,-29,-19,19,4,-24,165,409,614,409,136,-102
-9,-14,-4,12,-2,-9,161,405,600,405,136,-97
-9,4,14,2,-12,9,161,390,590,405,136,-87
-19,-9,9,14,-14,0,165,395,590,390,131,-78
-19,-24,-4,21,-7,-14,161,390,580,375,131,-78
-19,-39,-19,29,0,-29,156,390,580,356,131,-68
-19,-48,-29,34,4,-39,146,385,561,346,131,-68
-9,-43,-34,26,12,-39,131,361,541,341,126,-63
-9,-39,-29,24,9,-34,131,356,527,336,126,-63
-9,-34,-24,21,7,-29,131,351,507,326,131,-53
-9,-29,-19,19,4,-24,131,341,497,326,131,-48
-9,-24,-14,17,2,-19,126,322,483,322,126,-58
-9,-19,-9,14,0,-14,117,312,468,312,126,-53
-9,-19,-9,14,0,-14,117,302,453,307,126,-53
-4,-19,-14,12,4,-17,107,287,439,302,126,-43
4,9,4,-7,0,7,102,278,419,287,112,-53
4,4,0,-4,2,2,82,258,385,278,97,-58
4,9,4,-7,0,7,82,248,370,263,97,-58
4,9,4,-7,0,7,87,248,370,253,102,-43
14,9,-4,-12,9,2,78,253,356,229,92,-39
14,24,9,-19,2,17,73,234,336,219,92,-39
19,24,4,-21,7,14,63,214,312,195,78,-43
19,24,4,-21,7,14,58,204,292,185,73,-43
9,14,4,-12,2,9,58,190,292,185,82,-43
9,9,0,-9,4,4,53,180,268,170,78,-34
9,4,-4,-7,7,0,48,175,268,161,73,-34
9,4,-4,-7,7,0,43,175,258,146,73,-34
9,-4,-14,-2,12,-9,53,170,258,151,82,-14
9,-9,-19,0,14,-14,53,170,248,141,78,-9
9,-24,-34,7,21,-29,53,161,229,131,78,-9
9,-29,-39,9,24,-34,53,156,214,117,73,-9
0,-14,-14,7,7,-14,39,146,200,107,68,-19
0,-4,-4,2,2,-4,39,131,190,107,63,-19
4,0,-4,-2,4,-2,39,126,165,92,58,-19
4,14,9,-9,-2,12,34,112,151,78,53,-19
-4,19,24,-7,-14,21,24,92,141,82,43,-24
-4,14,19,-4,-12,17,19,92,141,78,43,-29
-4,19,24,-7,-14,21,19,87,131,78,39,-34
-4,29,34,-12,-19,31,9,78,117,73,29,-43
-4,24,29,-9,-17,26,19,87,92,39,19,-39
-4,9,14,-2,-9,12,19,82,82,19,0,-48
-9,-4,4,7,-7,0,19,82,78,-4,-14,-48
-14,-14,0,14,-7,-7,19,78,78,-24,-24,-48
-4,-24,-19,14,7,-21,24,87,78,-24,-14,-43
-4,-29,-24,17,9,-26,29,82,78,-24,-24,-43
-4,-19,-14,12,4,-17,34,82,82,-24,-24,-39
-4,-39,-34,21,14,-36,43,87,87,-19,-19,-34
-4,-34,-29,19,12,-31,39,82,82,4,-9,-39
-4,-29,-24,17,9,-26,34,82,78,9,-9,-39
-9,-19,-9,14,0,-14,29,87,78,14,-14,-43
-9,-14,-4,12,-2,-9,24,87,78,19,-14,-48
-9,0,9,4,-9,4,14,73,68,4,-29,-63
-9,4,14,2,-12,9,14,73,58,-14,-39,-68
-9,9,19,0,-14,14,14,73,53,-29,-43,-68
-9,14,24,-2,-17,19,14,73,48,-39,-53,-68
-9,9,19,0,-14,14,19,82,63,-24,-39,-68
-9,4,14,2,-12,9,24,82,68,-14,-34,-63
-9,0,9,4,-9,4,29,82,73,-9,-34,-58
-9,-4,4,7,-7,0,34,82,78,-4,-29,-53
-9,0,9,4,-9,4,43,82,73,-24,-39,-73
-9,-4,4,7,-7,0,43,92,73,-34,-43,-73
-9,-9,0,9,-4,-4,48,97,82,-43,-48,-63
-9,-34,-24,21,7,-29,48,97,82,-58,-53,-63
0,4,4,-2,-2,4,43,78,73,-53,-58,-82
0,19,19,-9,-9,19,34,73,63,-48,-58,-92
4,34,29,-19,-12,31,29,58,48,-29,-53,-82
4,43,39,-24,-17,41,34,68,58,-19,-53,-82
4,29,24,-17,-9,26,39,82,82,-24,-43,-78
4,4,0,-4,2,2,43,87,73,-24,-43,-78
4,0,-4,-2,4,-2,43,87,68,-29,-43,-82
4,0,-4,-2,4,-2,43,92,68,-29,-39,-82
0,-9,-9,4,4,-9,58,107,87,-24,-29,-82
0,-24,-24,12,12,-24,63,112,97,-4,-24,-78
4,-34,-39,14,21,-36,68,117,107,9,-24,-73
4,-34,-39,14,21,-36,58,112,112,14,-24,-68
0,-24,-24,12,12,-24,43,107,102,14,-24,-68
0,-24,-24,12,12,-24,39,102,102,9,-19,-68
0,-14,-14,7,7,-14,34,97,102,4,-24,-68
0,4,4,-2,-2,4,29,92,102,0,-24,-68
0,24,24,-12,-12,24,14,82,92,-9,-24,-68
0,24,24,-12,-12,24,14,82,87,-4,-19,-58
0,14,14,-7,-7,14,14,87,82,-4,-19,-58
0,14,14,-7,-7,14,14,87,87,-4,-19,-58
-4,24,29,-9,-17,26,14,97,97,4,-14,-53
-4,4,9,0,-7,7,14,97,97,9,-9,-48
-4,-4,0,4,-2,-2,19,97,92,14,0,-43
-4,-29,-24,17,9,-26,19,97,92,29,4,-39
-4,-9,-4,7,0,-7,19,97,102,29,4,-34
-4,4,9,0,-7,7,14,92,97,24,4,-34
-4,14,19,-4,-12,17,9,87,92,9,-9,-39
-4,19,24,-7,-14,21,0,87,78,4,-9,-48
-4,14,19,-4,-12,17,19,92,78,14,4,-39
-4,0,4,2,-4,2,24,102,82,19,4,-39
-4,0,4,2,-4,2,24,92,82,19,0,-43
-4,4,9,0,-7,7,19,92,78,14,-4,-48
-4,-14,-9,9,2,-12,29,97,82,19,0,-53
-4,-19,-14,12,4,-17,34,97,78,14,-9,-53
-4,-29,-24,17,9,-26,39,97,78,9,-14,-53
-4,-43,-39,24,17,-41,48,102,78,9,-14,-48
-4,-63,-58,34,26,-61,48,97,68,-4,-19,-63
-4,-68,-63,36,29,-65,48,97,68,-19,-29,-73
-4,-68,-63,36,29,-65,48,92,63,-34,-48,-82
-4,-68,-63,36,29,-65,58,87,63,-39,-53,-97
-4,-48,-43,26,19,-46,63,92,53,-34,-43,-97
-4,-58,-53,31,24,-56,63,92,48,-39,-48,-97
-4,-68,-63,36,29,-65,53,92,43,-39,-48,-92
-4,-73,-68,39,31,-70,53,92,43,-39,-48,-87
-4,-78,-73,41,34,-75,63,87,48,-29,-39,-78
-4,-87,-82,46,39,-85,63,87,43,-24,-39,-78
-4,-78,-73,41,34,-75,63,87,39,-29,-48,-87
-4,-78,-73,41,34,-75,58,73,39,-29,-53,-92
-4,-58,-53,31,24,-56,48,68,34,-34,-58,-102
-4,-63,-58,34,26,-61,48,68,34,-34,-58,-107
-4,-53,-48,29,21,-51,48,68,29,-34,-58,-112
0,-34,-34,17,17,-34,48,63,24,-39,-58,-117
0,-39,-39,19,19,-39,58,73,34,-53,-73,-112
0,-53,-53,26,26,-53,58,73,34,-53,-73,-112
0,-63,-63,31,31,-63,58,78,34,-58,-68,-107
0,-68,-68,34,34,-68,58,78,34,-63,-68,-107
0,-78,-78,39,39,-78,58,73,39,-58,-68,-107
-4,-63,-58,34,26,-61,58,68,34,-53,-68,-107
-4,-63,-58,34,26,-61,58,68,24,-48,-68,-107
-4,-63,-58,34,26,-61,58,78,24,-48,-68,-107
-4,-48,-43,26,19,-46,53,63,14,-53,-78,-122
-4,-39,-34,21,14,-36,48,53,4,-63,-87,-122
-4,-29,-24,17,9,-26,43,48,0,-78,-92,-122
-4,-19,-14,12,4,-17,43,43,-4,-82,-97,-122
-4,-39,-34,21,14,-36,48,53,0,-82,-87,-117
-4,-43,-39,24,17,-41,48,53,0,-82,-87,-117
-4,-53,-48,29,21,-51,43,48,-4,-82,-87,-117
-4,-58,-53,31,24,-56,39,48,-4,-82,-87,-117
-4,-48,-43,26,19,-46,39,39,-4,-82,-87,-107
-4,-34,-29,19,12,-31,39,39,-4,-87,-87,-107
-4,-34,-29,19,12,-31,39,39,-4,-87,-92,-107
-4,-34,-29,19,12,-31,39,39,-9,-82,-92,-107
4,-39,-43,17,24,-41,29,39,-14,-92,-92,-117
4,-39,-43,17,24,-41,29,39,-14,-82,-92,-117
0,-24,-24,12,12,-24,29,43,-4,-82,-82,-117
0,-24,-24,12,12,-24,29,39,-4,-87,-82,-112
0,-29,-29,14,14,-29,29,39,-9,-87,-97,-117
0,-39,-39,19,19,-39,39,43,0,-82,-87,-107
0,-39,-39,19,19,-39,39,48,0,-78,-87,-107
0,-39,-39,19,19,-39,39,53,0,-73,-87,-107
0,-39,-39,19,19,-39,39,58,0,-68,-87,-107
-4,-39,-34,21,14,-36,29,53,0,-73,-97,-117
-4,-34,-29,19,12,-31,34,53,0,-78,-97,-117
-9,-24,-14,17,2,-19,34,48,0,-82,-102,-117
-14,-19,-4,17,-4,-12,34,39,-4,-92,-102,-117
-14,-24,-9,19,-2,-17,43,48,4,-82,-92,-107
-14,-29,-14,21,0,-21,39,48,4,-82,-87,-107
-14,-34,-19,24,2,-26,39,48,4,-82,-82,-107
-14,-39,-24,26,4,-31,43,48,4,-78,-78,-107
-19,-29,-9,24,-4,-19,43,58,4,-78,-87,-107
-19,-29,-9,24,-4,-19,43,58,4,-78,-87,-107
-19,-29,-9,24,-4,-19,43,58,4,-78,-87,-107
