I,II,III,aVR,aVL,aVF,V1,V2,V3,V4,V5,V6
141,73,-68,-107,104,2,53,73,102,39,34,39
140,73,-67,-106,103,3,51,69,81,44,40,36
150,73,-77,-111,113,-2,43,63,63,39,39,34
162,72,-90,-117,126,-9,31,54,46,27,32,31
165,72,-93,-118,129,-10,19,43,34,14,24,29
151,73,-78,-112,114,-2,9,28,25,1,17,28
131,73,-58,-102,94,7,0,14,23,-8,14,28
116,68,-48,-92,82,10,-10,1,29,-16,12,29
111,63,-48,-87,79,7,-18,-8,33,-19,13,29
117,59,-58,-88,87,0,-22,-18,32,-13,18,26
125,58,-67,-91,96,-4,-23,-23,29,-4,23,24
128,57,-71,-92,99,-7,-28,-25,29,2,30,23
126,57,-69,-91,97,-6,-33,-24,29,4,33,24
123,57,-66,-90,94,-4,-39,-22,23,-1,34,23
122,57,-65,-89,93,-4,-42,-19,14,-8,33,23
122,58,-64,-90,93,-3,-42,-10,4,-14,36,28
122,58,-64,-90,93,-3,-42,-4,0,-14,42,33
118,54,-64,-86,91,-5,-49,-8,3,-6,50,37
116,52,-64,-84,90,-6,-57,-23,13,0,57,38
122,57,-65,-89,93,-4,-62,-44,26,0,63,38
130,62,-68,-96,99,-3,-62,-53,33,-3,67,38
137,64,-73,-100,105,-4,-62,-37,29,-3,73,40
145,63,-82,-104,113,-9,-62,-14,19,-3,77,42
159,63,-96,-111,127,-16,-63,0,9,-8,79,43
169,63,-106,-116,137,-21,-63,0,4,-13,81,43
171,60,-111,-115,141,-25,-58,-8,2,-17,87,42
165,58,-107,-111,136,-24,-53,-18,3,-19,91,42
156,57,-99,-106,127,-21,-49,-25,8,-17,92,45
151,57,-94,-104,122,-18,-47,-28,13,-14,91,47
149,57,-92,-103,120,-17,-48,-29,18,-11,94,48
146,57,-89,-101,117,-16,-48,-29,23,-9,96,47
136,59,-77,-97,106,-9,-42,-28,29,-6,97,49
126,58,-68,-92,97,-5,-34,-24,33,-4,97,48
122,51,-71,-86,96,-10,-27,-14,33,-2,95,41
121,43,-78,-82,99,-17,-24,-4,29,-3,92,34
122,35,-87,-78,104,-26,-23,2,20,-9,84,32
121,29,-92,-75,106,-31,-24,4,14,-13,78,29
122,21,-101,-71,111,-40,-22,0,15,-14,75,18
125,14,-111,-69,118,-48,-19,-8,18,-14,73,4
132,6,-126,-69,129,-60,-16,-16,19,-13,67,-8
136,0,-136,-68,136,-68,-14,-19,18,-13,63,-13
129,-2,-131,-63,130,-66,-11,-12,20,-13,62,-11
117,-3,-120,-57,118,-61,-9,-8,23,-13,63,-4
104,-6,-110,-49,107,-58,-6,-18,27,-14,60,3
97,-8,-105,-44,101,-56,-4,-28,29,-14,58,8
96,-9,-105,-43,100,-57,-3,-27,24,-12,57,9
97,-9,-106,-44,101,-57,-3,-19,19,-13,57,9
94,-8,-102,-43,98,-55,-4,-13,17,-19,57,8
92,-8,-100,-42,96,-54,-4,-9,18,-23,57,8
93,-9,-102,-42,97,-55,-2,-3,22,-20,60,9
96,-9,-105,-43,100,-57,0,3,28,-14,62,9
98,-8,-106,-45,102,-57,0,10,35,-12,64,8
101,-8,-109,-46,105,-58,0,13,39,-13,63,8
109,-9,-118,-50,113,-63,-1,14,34,-14,58,8
121,-9,-130,-56,125,-69,-3,14,24,-13,53,8
137,-8,-145,-64,141,-76,-6,13,12,-14,47,9
145,-8,-153,-68,149,-80,-8,13,8,-14,43,9
139,-9,-148,-65,143,-78,-9,14,19,-9,40,8
122,-9,-131,-56,126,-70,-9,13,38,-4,39,8
103,-7,-110,-48,106,-58,-8,14,55,1,39,9
92,-8,-100,-42,96,-54,-8,14,62,3,39,9
94,-18,-112,-38,103,-65,-9,13,56,3,37,7
101,-28,-129,-36,115,-78,-9,13,43,0,34,4
106,-33,-139,-36,122,-86,-7,16,32,-5,28,0
107,-34,-141,-36,124,-87,-4,18,28,-8,24,-3
104,-31,-135,-36,119,-83,-1,17,35,-7,23,-4
102,-29,-131,-36,116,-80,0,14,47,-4,24,-3
100,-27,-127,-36,113,-77,-1,10,58,-3,23,-5
101,-28,-129,-36,115,-78,-3,8,63,-3,23,-8
106,-34,-140,-36,123,-87,-4,13,57,-4,28,-12
111,-42,-153,-34,132,-97,-4,18,48,-4,33,-13
114,-50,-164,-32,139,-107,-3,22,42,-3,34,-14
112,-53,-165,-29,138,-109,-3,19,39,-4,33,-13
104,-46,-150,-29,127,-98,-6,9,36,-3,35,-14
92,-39,-131,-26,111,-85,-8,0,38,-3,34,-18
78,-37,-115,-20,96,-76,-8,1,48,-4,25,-27
72,-38,-110,-17,91,-74,-4,18,62,-4,14,-42
84,-39,-123,-22,103,-81,1,50,76,0,4,-63
101,-39,-140,-31,120,-89,8,86,91,3,-3,-86
113,-36,-149,-38,131,-92,15,111,110,6,-11,-107
117,-34,-151,-41,134,-92,18,117,121,8,-18,-121
115,-33,-148,-41,131,-90,16,99,114,11,-21,-127
116,-33,-149,-41,132,-91,9,73,97,18,-9,-117
130,-33,-163,-48,146,-98,-1,55,82,34,26,-85
155,-24,-179,-65,167,-101,-23,48,81,67,85,-30
186,2,-184,-94,185,-91,-59,50,102,123,165,48
218,38,-180,-128,199,-71,-96,53,140,198,261,139
246,76,-170,-161,208,-47,-120,49,186,285,368,233
277,116,-161,-196,219,-22,-140,47,228,368,476,334
318,159,-159,-238,238,0,-169,52,254,432,575,444
360,208,-152,-284,256,28,-208,39,248,472,671,563
392,262,-130,-327,261,66,-256,-20,194,486,773,691
423,329,-94,-376,258,117,-310,-147,71,468,894,850
463,414,-49,-438,256,182,-369,-348,-130,417,1045,1061
501,510,9,-505,246,259,-427,-571,-352,366,1225,1312
524,606,82,-565,221,344,-483,-758,-536,340,1420,1575
531,690,159,-610,186,424,-526,-909,-703,288,1583,1801
525,747,222,-636,151,484,-549,-1029,-882,161,1669,1943
517,766,249,-641,134,507,-551,-1115,-1046,0,1678,1991
511,743,232,-627,139,487,-533,-1163,-1161,-148,1624,1952
488,697,209,-592,139,453,-489,-1189,-1232,-284,1538,1874
427,652,225,-539,101,438,-415,-1208,-1270,-418,1449,1803
337,610,273,-473,32,441,-327,-1210,-1273,-533,1344,1728
236,568,332,-402,-48,450,-242,-1178,-1239,-614,1206,1622
133,508,375,-320,-121,441,-162,-1108,-1181,-667,1032,1448
36,420,384,-228,-174,402,-88,-1004,-1116,-707,828,1188
-41,323,364,-141,-202,343,-25,-898,-1055,-745,609,898
-92,241,333,-74,-212,287,26,-817,-1000,-783,391,633
-125,162,287,-18,-206,224,85,-729,-928,-795,161,357
-152,74,226,39,-189,150,164,-603,-821,-760,-88,36
-174,-2,172,88,-173,85,232,-485,-713,-708,-317,-247
-187,-49,138,118,-162,44,259,-424,-644,-671,-479,-409
-180,-72,108,126,-144,18,258,-400,-591,-635,-550,-462
-147,-87,60,117,-103,-13,247,-380,-522,-577,-525,-448
-107,-96,11,101,-59,-42,229,-351,-445,-508,-459,-405
-81,-101,-20,91,-30,-60,201,-309,-373,-442,-407,-368
-63,-97,-34,80,-14,-65,165,-254,-298,-371,-357,-331
-43,-82,-39,62,-2,-60,127,-189,-217,-287,-289,-288
-24,-68,-44,46,10,-56,87,-132,-142,-210,-220,-248
-12,-66,-54,39,21,-60,51,-97,-90,-159,-172,-226
0,-72,-72,36,36,-72,24,-68,-53,-126,-141,-214
17,-78,-95,30,56,-86,10,-29,-22,-99,-117,-201
33,-81,-114,24,73,-97,4,13,8,-73,-97,-190
40,-82,-122,21,81,-102,0,46,41,-49,-79,-185
42,-82,-124,20,83,-103,-3,67,72,-29,-68,-180
45,-80,-125,17,85,-102,-3,77,92,-16,-68,-167
47,-78,-125,15,86,-101,0,81,101,-9,-72,-156
48,-74,-122,13,85,-98,4,88,101,-6,-74,-153
47,-72,-119,12,83,-95,8,92,97,-4,-73,-155
49,-74,-123,12,86,-98,10,88,97,0,-72,-158
52,-77,-129,12,90,-103,9,82,101,3,-72,-160
55,-79,-134,12,94,-106,6,79,109,4,-73,-162
57,-78,-135,10,96,-106,4,81,116,4,-73,-164
59,-73,-132,7,95,-102,4,87,119,3,-69,-168
58,-68,-126,5,92,-97,8,91,121,3,-63,-170
51,-65,-116,7,83,-90,16,93,126,7,-56,-166
47,-63,-110,8,78,-86,19,92,130,13,-53,-161
54,-60,-114,3,84,-87,10,90,131,19,-53,-159
62,-58,-120,-2,91,-89,-3,87,131,23,-57,-160
64,-57,-121,-3,92,-89,-15,81,130,26,-64,-161
63,-57,-120,-3,91,-88,-19,78,130,28,-68,-161
62,-60,-122,-1,92,-91,-11,80,132,32,-63,-158
62,-62,-124,0,93,-93,3,86,135,38,-53,-156
63,-63,-126,0,94,-94,17,93,141,47,-43,-153
63,-62,-125,0,94,-93,23,96,145,52,-39,-151
62,-64,-126,1,94,-95,18,97,146,49,-41,-148
62,-67,-129,2,95,-98,9,96,146,39,-47,-146
63,-71,-134,4,98,-102,3,99,146,29,-53,-144
63,-72,-135,4,99,-103,0,101,146,24,-57,-145
63,-72,-135,4,99,-103,-2,102,144,25,-60,-150
63,-72,-135,4,99,-103,-4,102,141,28,-62,-155
62,-75,-137,6,99,-106,-2,100,138,30,-65,-161
62,-77,-139,7,100,-108,0,101,136,29,-67,-164
63,-79,-142,8,102,-110,0,110,135,27,-70,-165
63,-81,-144,9,103,-112,0,121,135,28,-72,-165
62,-84,-146,11,104,-115,0,131,136,37,-74,-165
62,-86,-148,12,105,-117,0,135,135,42,-73,-165
65,-87,-152,11,108,-119,1,132,136,37,-68,-163
67,-86,-153,9,110,-119,3,126,136,29,-63,-161
69,-87,-156,9,112,-121,4,123,135,26,-59,-160
68,-87,-155,9,111,-121,4,125,135,28,-58,-161
61,-84,-145,11,103,-114,3,133,138,34,-57,-160
53,-82,-135,14,94,-108,3,136,140,38,-57,-160
45,-80,-125,17,85,-102,4,125,141,39,-58,-165
39,-81,-120,21,79,-100,4,112,141,39,-57,-169
32,-85,-117,26,74,-101,3,108,139,39,-58,-171
24,-91,-115,33,69,-103,3,111,140,42,-58,-170
14,-100,-114,43,64,-107,4,115,148,48,-57,-168
9,-106,-115,48,62,-110,4,112,155,52,-57,-169
11,-108,-119,48,65,-113,2,98,158,50,-59,-174
18,-107,-125,44,71,-116,3,82,156,43,-62,-179
27,-105,-132,39,79,-118,9,72,151,35,-66,-184
33,-102,-135,34,84,-118,13,72,146,29,-68,-185
32,-95,-127,31,79,-111,10,81,142,24,-66,-180
24,-87,-111,31,67,-99,4,91,141,23,-63,-175
11,-78,-89,33,50,-83,3,94,140,26,-60,-174
4,-73,-77,34,40,-75,4,92,141,28,-62,-179
10,-74,-84,32,47,-79,1,90,139,27,-70,-188
23,-81,-104,29,63,-92,-3,91,136,24,-77,-194
35,-92,-127,28,81,-109,-9,96,129,22,-81,-196
39,-101,-140,31,89,-120,-13,97,125,23,-81,-195
33,-103,-136,35,84,-119,-15,90,131,29,-83,-195
24,-102,-126,39,75,-114,-14,82,140,38,-82,-195
19,-101,-120,41,69,-110,-11,81,147,50,-75,-190
19,-101,-120,41,69,-110,-9,86,150,57,-68,-185
18,-102,-120,42,69,-111,-6,96,149,54,-64,-184
18,-102,-120,42,69,-111,-4,106,146,48,-63,-184
21,-101,-122,40,71,-111,-1,113,142,47,-62,-184
23,-101,-124,39,73,-112,0,116,141,48,-62,-184
24,-107,-131,41,77,-119,0,115,140,42,-65,-187
24,-116,-140,46,82,-128,0,112,141,34,-67,-189
24,-127,-151,51,87,-139,0,109,140,27,-69,-191
24,-131,-155,53,89,-143,0,107,140,24,-72,-194
22,-121,-143,49,82,-132,0,105,143,23,-79,-201
23,-102,-125,39,74,-113,-3,102,145,23,-86,-208
32,-82,-114,25,73,-98,-9,97,143,25,-93,-214
38,-73,-111,17,74,-92,-13,92,136,24,-96,-218
36,-80,-116,22,76,-98,-12,89,126,19,-98,-221
29,-96,-125,33,77,-110,-9,91,121,14,-101,-223
26,-107,-133,40,79,-120,-7,98,129,13,-109,-226
28,-111,-139,41,83,-125,-8,102,136,14,-116,-228
34,-110,-144,38,89,-127,-13,94,126,11,-118,-231
42,-107,-149,32,95,-128,-18,82,112,9,-117,-233
52,-103,-155,25,103,-129,-22,73,107,8,-117,-233
57,-101,-158,22,107,-129,-23,72,107,8,-121,-233
53,-103,-156,25,104,-129,-25,83,100,8,-130,-236
43,-106,-149,31,96,-127,-24,101,92,4,-140,-238
33,-108,-141,37,87,-124,-19,116,87,-4,-148,-238
28,-107,-135,39,81,-121,-14,122,91,-13,-155,-238
35,-102,-137,33,86,-119,-11,112,104,-16,-165,-244
47,-97,-144,25,95,-120,-13,97,112,-14,-174,-252
58,-96,-154,19,106,-125,-21,88,100,-10,-182,-259
62,-96,-158,17,110,-127,-28,82,82,-13,-189,-262
59,-96,-155,18,107,-125,-30,75,72,-29,-198,-263
53,-96,-149,21,101,-122,-29,68,68,-47,-208,-263
49,-101,-150,26,99,-125,-26,63,61,-57,-217,-263
43,-106,-149,31,96,-127,-24,58,53,-62,-223,-263
31,-108,-139,38,85,-123,-23,50,46,-70,-228,-261
19,-107,-126,44,72,-116,-23,39,43,-77,-233,-258
12,-104,-116,46,64,-110,-25,29,44,-81,-240,-253
9,-106,-115,48,62,-110,-28,28,43,-82,-247,-248
6,-119,-125,56,65,-122,-32,43,33,-81,-252,-245
4,-130,-134,63,69,-132,-34,62,19,-81,-257,-244
1,-129,-130,64,65,-129,-31,72,6,-86,-263,-242
0,-122,-122,61,61,-122,-29,73,-3,-96,-267,-239
-1,-120,-119,60,59,-119,-30,68,-10,-110,-268,-234
-3,-121,-118,62,57,-119,-33,63,-18,-125,-267,-229
-7,-122,-115,64,54,-118,-37,59,-29,-137,-269,-224
-13,-121,-108,67,47,-114,-38,57,-38,-141,-268,-219
-23,-122,-99,72,38,-110,-38,59,-39,-135,-261,-212
-33,-122,-89,77,28,-105,-38,58,-38,-130,-253,-204
-40,-119,-79,79,19,-99,-42,50,-44,-136,-249,-195
-42,-117,-75,79,16,-96,-47,39,-52,-145,-248,-185
-43,-116,-73,79,15,-94,-51,31,-57,-149,-247,-175
-43,-116,-73,79,15,-94,-52,29,-62,-150,-244,-165
-42,-117,-75,79,16,-96,-54,29,-70,-155,-238,-154
-42,-117,-75,79,16,-96,-57,29,-77,-160,-229,-141
-45,-116,-71,80,13,-93,-64,23,-81,-163,-218,-125
-47,-116,-69,81,11,-92,-72,14,-86,-164,-209,-112
-49,-119,-70,84,10,-94,-81,7,-99,-167,-202,-108
-48,-121,-73,84,12,-97,-86,0,-111,-169,-195,-107
-45,-123,-78,84,16,-100,-85,-7,-114,-170,-182,-102
-43,-122,-79,82,18,-100,-82,-18,-116,-170,-170,-92
-43,-117,-74,80,15,-95,-79,-31,-125,-167,-163,-79
-43,-112,-69,77,13,-90,-78,-42,-135,-165,-156,-68
-39,-110,-71,74,16,-90,-75,-48,-137,-163,-141,-62
-34,-111,-77,72,21,-94,-73,-52,-136,-161,-126,-58
-30,-113,-83,71,26,-98,-70,-61,-136,-158,-117,-49
-29,-112,-83,70,27,-97,-68,-67,-136,-151,-107,-39
-27,-107,-80,67,26,-93,-65,-64,-128,-139,-87,-32
-28,-102,-74,65,23,-88,-63,-53,-117,-126,-64,-29
-34,-100,-66,67,16,-83,-62,-40,-106,-115,-46,-26
-38,-101,-63,69,12,-82,-62,-29,-101,-107,-34,-24
-38,-103,-65,70,13,-84,-65,-22,-106,-101,-25,-21
-34,-102,-68,68,17,-85,-67,-19,-111,-97,-19,-19
-31,-96,-65,63,17,-80,-68,-19,-111,-92,-15,-16
-29,-92,-63,60,17,-77,-68,-23,-107,-87,-14,-14
-27,-95,-68,61,20,-81,-67,-30,-102,-82,-13,-13
-24,-97,-73,60,24,-85,-67,-42,-97,-81,-13,-13
-18,-88,-70,53,26,-79,-67,-59,-89,-87,-14,-14
-14,-78,-64,46,25,-71,-67,-72,-82,-91,-14,-14
-13,-77,-64,45,25,-70,-68,-70,-78,-87,-9,-13
-13,-81,-68,47,27,-74,-68,-63,-77,-78,-4,-13
-13,-86,-73,49,30,-79,-66,-60,-80,-72,-1,-14
-13,-91,-78,52,32,-84,-63,-53,-81,-68,3,-14
-17,-99,-82,58,32,-90,-59,-33,-80,-65,14,-10
-23,-106,-83,64,30,-94,-53,-10,-78,-63,28,-4
-29,-109,-80,69,25,-94,-46,2,-75,-62,38,0
-33,-107,-74,70,20,-90,-42,4,-68,-58,42,0
-33,-102,-69,67,18,-85,-46,-1,-54,-48,40,-7
-29,-97,-68,63,19,-82,-52,-8,-39,-39,34,-18
-23,-93,-70,58,23,-81,-54,-11,-33,-36,30,-25
-19,-92,-73,55,27,-82,-53,-9,-33,-34,28,-28
-15,-91,-76,53,30,-83,-51,-4,-33,-24,30,-28
-9,-91,-82,50,36,-86,-52,0,-29,-14,33,-28
1,-92,-93,45,47,-92,-59,2,-19,-12,35,-32
8,-92,-100,42,54,-96,-63,3,-9,-14,34,-34
2,-89,-91,43,46,-90,-55,4,-5,-10,31,-29
-13,-87,-74,50,30,-80,-43,4,-4,0,29,-19
-30,-88,-58,59,14,-73,-36,2,-1,11,30,-8
-42,-91,-49,66,3,-70,-34,3,3,18,33,-3
-45,-92,-47,68,1,-69,-33,8,11,13,34,-9
-43,-91,-48,67,2,-69,-34,13,18,0,34,-18
-41,-93,-52,67,5,-72,-33,15,22,-9,33,-21
-39,-96,-57,67,9,-76,-33,18,23,-9,33,-19
-35,-99,-64,67,14,-81,-35,29,25,3,37,-16
-29,-101,-72,65,21,-86,-38,38,28,18,42,-14
-20,-104,-84,62,32,-94,-40,35,34,24,45,-11
-18,-106,-88,62,35,-97,-39,29,38,24,47,-9
-30,-107,-77,68,23,-92,-33,32,40,23,49,-7
-47,-107,-60,77,6,-83,-29,38,39,23,48,-8
-56,-105,-49,80,-3,-77,-32,40,37,26,41,-15
-53,-102,-49,77,-2,-75,-38,39,38,28,34,-23
-38,-98,-60,68,11,-79,-40,38,43,29,32,-29
-19,-92,-73,55,27,-82,-39,38,47,29,33,-33
-7,-83,-76,45,34,-79,-39,40,48,27,34,-36
-3,-78,-75,40,36,-76,-39,39,47,28,34,-38
-9,-80,-71,44,31,-75,-35,33,51,36,34,-39
-18,-86,-68,52,25,-77,-29,24,57,42,34,-39
-25,-89,-64,57,19,-76,-24,16,62,40,32,-37
-28,-91,-63,59,17,-77,-23,9,63,34,29,-38
-29,-98,-69,63,20,-83,-28,4,59,32,24,-45
-28,-106,-78,67,25,-92,-33,0,53,33,19,-52
-30,-109,-79,69,24,-94,-35,-1,49,36,13,-56
-33,-107,-74,70,20,-90,-34,7,47,38,9,-57
-38,-99,-61,68,11,-80,-33,35,50,40,9,-59
-42,-92,-50,67,4,-71,-33,62,52,42,13,-58
-44,-88,-44,66,0,-66,-33,65,53,44,18,-53
-43,-87,-44,65,0,-65,-33,58,52,47,23,-48
-39,-84,-45,61,3,-64,-34,56,54,51,27,-47
-34,-86,-52,60,9,-69,-34,57,57,53,28,-48
-28,-99,-71,63,21,-85,-31,56,60,50,29,-45
-24,-107,-83,65,29,-95,-29,53,62,48,29,-43
-20,-96,-76,58,28,-86,-28,49,67,47,28,-42
-19,-82,-63,50,22,-72,-28,43,72,48,28,-43
-18,-84,-66,51,24,-75,-30,34,76,45,28,-42
-18,-91,-73,54,27,-82,-29,29,78,43,28,-42
-21,-89,-68,55,23,-78,-24,33,76,43,29,-47
-23,-82,-59,52,18,-70,-14,42,73,43,29,-52
-25,-78,-53,51,14,-65,-3,46,71,40,28,-56
-28,-81,-53,54,12,-67,3,43,72,42,28,-57
-32,-90,-58,61,13,-74,0,36,77,54,31,-58
-34,-96,-62,65,14,-79,-8,33,81,63,33,-58
-28,-91,-63,59,17,-77,-14,43,79,53,36,-58
-24,-82,-58,53,17,-70,-18,52,73,39,38,-58
-27,-80,-53,53,13,-66,-23,46,67,39,42,-57
-33,-81,-48,57,7,-64,-28,34,63,47,47,-57
-35,-81,-46,58,5,-63,-35,31,60,50,52,-60
-34,-81,-47,57,6,-64,-38,33,58,48,53,-62
-35,-88,-53,61,9,-70,-35,34,54,41,48,-63
-38,-96,-58,67,10,-77,-29,29,48,34,43,-63
-43,-98,-55,70,6,-76,-24,20,39,30,40,-62
-47,-97,-50,72,1,-73,-23,14,29,29,39,-62
-49,-96,-47,72,-1,-71,-28,19,19,28,35,-64
-48,-96,-48,72,0,-72,-33,33,14,33,33,-63
-45,-99,-54,72,4,-76,-34,46,17,44,36,-57
-39,-101,-62,70,11,-81,-33,53,28,52,39,-53
-28,-103,-75,65,23,-89,-35,47,42,48,34,-54
-14,-102,-88,58,37,-95,-38,34,52,39,24,-57
-4,-98,-94,51,45,-96,-40,22,49,34,15,-56
3,-92,-95,44,49,-93,-42,10,39,29,9,-53
10,-86,-96,38,53,-91,-45,-5,30,20,8,-52
18,-78,-96,30,57,-87,-43,-14,24,14,9,-53
27,-68,-95,20,61,-81,-33,-5,20,17,7,-51
33,-58,-91,12,62,-74,-24,8,18,23,4,-48
34,-52,-86,9,60,-69,-25,13,20,24,2,-45
33,-48,-81,7,57,-64,-33,13,23,23,3,-43
35,-43,-78,4,56,-60,-42,16,26,25,6,-41
38,-39,-77,0,57,-58,-47,18,28,28,8,-39
39,-38,-77,0,58,-57,-45,19,31,29,9,-36
39,-38,-77,0,58,-57,-39,19,33,29,9,-34
38,-39,-77,0,57,-58,-33,18,36,27,7,-31
38,-38,-76,0,57,-57,-29,19,38,28,8,-29
41,-39,-80,-1,60,-59,-27,18,39,33,14,-28
47,-39,-86,-4,66,-62,-28,18,38,38,18,-28
55,-36,-91,-9,73,-63,-30,20,40,39,17,-30
62,-34,-96,-14,79,-65,-33,23,42,38,14,-33
68,-33,-101,-17,84,-67,-37,28,43,40,14,-38
77,-33,-110,-22,93,-71,-42,33,47,39,14,-42
90,-34,-124,-28,107,-79,-49,35,56,33,8,-46
101,-34,-135,-33,118,-84,-53,34,62,28,3,-47
101,-33,-134,-34,117,-83,-49,28,57,34,8,-48
97,-33,-130,-32,113,-81,-43,19,48,42,13,-47
98,-34,-132,-32,115,-83,-42,7,45,41,11,-48
97,-34,-131,-31,114,-82,-47,-3,43,34,4,-48
82,-33,-115,-24,98,-74,-54,-10,34,27,0,-44
59,-33,-92,-13,75,-62,-62,-13,24,24,0,-39
41,-38,-79,-1,60,-58,-70,-15,23,25,1,-33
34,-42,-76,4,55,-59,-77,-18,24,28,3,-29
38,-41,-79,1,58,-60,-81,-26,18,30,4,-28
47,-34,-81,-6,64,-57,-86,-33,9,29,4,-29
52,-25,-77,-13,64,-51,-94,-35,2,26,3,-27
48,-19,-67,-14,57,-43,-101,-34,0,24,3,-24
32,-17,-49,-7,40,-33,-104,-34,2,24,6,-20
10,-18,-28,4,19,-23,-102,-34,8,28,13,-14
-8,-18,-10,13,1,-14,-96,-29,14,34,23,-6
-23,-18,5,20,-14,-6,-92,-24,18,42,33,3
-34,-22,12,28,-23,-5,-91,-21,19,50,38,11
-42,-24,18,33,-30,-3,-92,-23,18,53,39,18
-44,-19,25,31,-34,3,-87,-29,21,48,38,24
-43,-14,29,28,-36,7,-82,-34,23,43,38,28
-39,-12,27,25,-33,7,-80,-30,24,46,41,32
-29,-13,16,21,-22,1,-81,-28,24,52,42,33
-14,-13,1,13,-7,-6,-83,-39,24,53,42,34
-4,-13,-9,8,2,-11,-82,-48,24,52,42,33
-9,-16,-7,12,-1,-11,-76,-37,23,55,49,35
-27,-18,9,22,-18,-4,-68,-11,23,62,57,38
-47,-19,28,33,-37,4,-62,17,27,72,61,43
-62,-19,43,40,-52,12,-58,38,33,81,62,47
-66,-19,47,42,-56,14,-54,42,40,85,65,48
-67,-19,48,43,-57,14,-48,39,47,86,67,47
-75,-17,58,46,-66,20,-37,38,55,89,68,49
-86,-18,68,52,-77,25,-24,42,62,91,68,48
-91,-24,67,57,-79,21,-17,51,68,93,66,41
-92,-33,59,62,-75,13,-14,62,72,92,63,34
-91,-41,50,66,-70,4,-13,70,73,87,55,31
-91,-47,44,69,-67,-1,-14,73,72,82,48,29
-96,-52,44,74,-70,-4,-12,68,75,81,45,22
-101,-57,44,79,-72,-6,-9,58,77,81,43,14
-104,-62,42,83,-73,-10,-6,48,78,82,38,8
-106,-67,39,86,-72,-14,-4,47,78,82,34,4
-110,-70,40,90,-75,-15,-3,62,77,82,33,1
-116,-72,44,94,-80,-14,-3,80,77,82,34,0
-122,-75,47,98,-84,-14,-4,87,78,81,31,0
-125,-77,48,101,-86,-14,-4,87,78,81,29,0
-126,-81,45,103,-85,-18,-3,86,73,84,28,0
-125,-86,39,105,-82,-23,-3,86,68,87,28,0
-128,-93,35,110,-81,-29,-4,86,66,84,28,0
-130,-96,34,113,-82,-31,-4,86,67,81,28,0
-128,-94,34,111,-81,-30,-2,89,71,85,31,0
-122,-87,35,104,-78,-26,0,91,77,91,33,0
-116,-81,35,98,-75,-23,0,92,83,93,34,0
-112,-78,34,95,-73,-22,0,92,86,92,34,0
-111,-77,34,94,-72,-21,0,91,87,89,31,0
-112,-77,35,94,-73,-21,0,91,87,87,29,0
-110,-77,33,93,-71,-22,0,92,87,84,27,0
-107,-77,30,92,-68,-23,0,92,87,82,24,0
-104,-81,23,92,-63,-29,0,88,84,81,19,-1
-102,-86,16,94,-59,-35,0,82,78,82,14,-3
-101,-92,9,96,-55,-41,0,76,69,81,10,-7
-101,-96,5,98,-53,-45,0,73,63,81,8,-9
-105,-99,6,102,-55,-46,0,74,64,86,10,-7
-111,-97,14,104,-62,-41,0,81,72,91,13,-4
-118,-90,28,104,-73,-31,1,89,80,94,14,-3
-125,-82,43,103,-84,-19,3,96,86,96,14,-3
-129,-78,51,103,-90,-13,5,98,90,99,12,-3
-130,-78,52,104,-91,-13,4,97,91,101,9,-3
-131,-76,55,103,-93,-10,0,96,92,102,6,-5
-131,-77,54,104,-92,-11,-3,96,91,102,4,-8
-130,-83,47,106,-88,-18,-3,98,93,101,4,-11
-130,-91,39,110,-84,-26,0,97,96,102,4,-13
-134,-97,37,115,-85,-30,1,91,102,101,0,-14
-140,-101,39,120,-89,-31,3,87,106,101,-3,-14
-148,-104,44,126,-96,-30,8,92,106,104,-2,-12
-159,-111,48,135,-103,-31,17,109,106,106,0,-13
-173,-124,49,148,-111,-37,31,139,116,108,-4,-20
-180,-135,45,157,-112,-45,42,172,129,111,-13,-32
-168,-134,34,151,-101,-50,45,197,140,117,-22,-50
-147,-126,21,136,-84,-52,43,213,150,121,-32,-71
-131,-119,12,125,-71,-53,40,220,160,122,-44,-91
-125,-112,13,118,-69,-49,38,215,169,125,-48,-101
-130,-101,29,115,-79,-36,40,195,176,138,-35,-92
-135,-88,47,111,-91,-20,42,171,184,162,0,-61
-129,-73,56,101,-92,-8,42,155,196,196,59,-10
-109,-55,54,82,-81,0,26,146,208,239,138,60
-78,-27,51,52,-64,12,-12,141,215,294,230,149
-45,5,50,20,-47,27,-59,136,227,367,335,248
-19,41,60,-11,-39,50,-93,130,254,459,456,352
10,82,72,-46,-31,77,-119,118,277,540,575,462
57,134,77,-95,-10,105,-148,94,270,578,676,581
112,194,82,-153,15,138,-186,41,220,576,771,709
159,260,101,-209,29,180,-232,-61,121,550,875,850
196,334,138,-265,29,236,-286,-213,-31,502,993,1012
226,414,188,-320,19,301,-344,-403,-236,435,1127,1207
246,503,257,-374,-5,380,-403,-601,-454,374,1282,1432
253,597,344,-425,-45,470,-461,-775,-643,335,1458,1675
248,677,429,-462,-90,553,-504,-911,-809,276,1605,1887
235,720,485,-477,-125,602,-519,-1002,-966,147,1669,2012
220,719,499,-469,-139,609,-509,-1047,-1097,-18,1649,2040
206,676,470,-441,-132,573,-477,-1051,-1181,-174,1565,1985
179,615,436,-397,-128,525,-424,-1043,-1230,-313,1450,1883
119,563,444,-341,-162,503,-353,-1053,-1259,-444,1329,1771
32,520,488,-276,-228,504,-270,-1058,-1260,-557,1194,1646
-68,477,545,-204,-306,511,-188,-1029,-1223,-637,1023,1490
-170,416,586,-123,-378,501,-109,-959,-1157,-685,824,1281
-259,323,582,-32,-420,452,-35,-854,-1079,-704,609,1007
-326,218,544,54,-435,381,28,-745,-1001,-711,382,701
-365,124,489,120,-427,306,83,-657,-930,-718,146,406
-388,41,429,173,-408,235,140,-570,-848,-709,-86,123
-407,-36,371,221,-389,167,208,-456,-739,-666,-297,-150
-422,-97,325,259,-373,114,264,-353,-632,-609,-465,-361
-428,-128,300,278,-364,86,280,-306,-561,-565,-569,-451
-416,-140,276,278,-346,68,269,-293,-507,-521,-600,-454
-383,-147,236,265,-309,44,253,-273,-439,-460,-560,-427
-344,-150,194,247,-269,22,231,-238,-363,-387,-485,-388
-317,-147,170,232,-243,11,197,-189,-291,-314,-414,-348
-298,-137,161,217,-229,12,159,-131,-216,-241,-351,-306
-280,-122,158,201,-219,18,128,-73,-130,-164,-288,-262
-264,-112,152,188,-208,20,104,-27,-46,-97,-233,-226
-255,-114,141,184,-198,13,81,-2,18,-56,-196,-206
-245,-121,124,183,-184,1,64,16,60,-31,-171,-196
-226,-122,104,174,-165,-9,55,51,80,-7,-152,-184
-205,-117,88,161,-146,-14,53,93,90,16,-137,-175
-194,-109,85,151,-139,-12,52,125,104,38,-125,-173
-190,-102,88,146,-139,-7,53,144,120,56,-117,-170
-187,-101,86,144,-136,-7,52,153,136,69,-112,-157
-185,-102,83,143,-134,-9,52,155,145,77,-107,-142
-185,-100,85,142,-135,-7,55,158,143,79,-99,-135
-185,-101,84,143,-134,-8,57,160,136,81,-92,-135
-183,-110,73,146,-128,-18,57,160,135,88,-90,-138
-180,-124,56,152,-118,-34,53,160,140,96,-91,-140
-178,-139,39,158,-108,-50,48,165,148,100,-92,-142
-175,-146,29,160,-102,-58,43,169,155,102,-92,-145
-168,-138,30,153,-99,-54,38,169,158,101,-91,-152
-161,-123,38,142,-99,-42,34,162,160,101,-91,-160
-157,-109,48,133,-102,-30,31,148,164,105,-93,-163
-156,-102,54,129,-105,-24,29,140,169,111,-92,-161
-154,-102,52,128,-103,-25,27,151,174,115,-85,-155
-155,-106,49,130,-102,-28,28,172,179,116,-74,-146
-162,-111,51,136,-106,-30,33,192,184,117,-64,-137
-169,-116,53,142,-111,-31,38,203,189,117,-58,-131
-169,-122,47,145,-108,-37,41,202,192,116,-56,-129
-165,-130,35,147,-100,-47,42,195,194,116,-57,-130
-162,-137,25,149,-93,-56,43,189,199,119,-58,-131
-161,-140,21,150,-91,-59,43,185,203,121,-58,-131
-158,-138,20,148,-89,-59,41,183,204,122,-57,-130
-156,-131,25,143,-90,-53,39,184,204,122,-58,-130
-153,-126,27,139,-90,-49,38,187,203,121,-57,-133
-151,-122,29,136,-90,-46,39,189,203,121,-57,-135
-148,-119,29,133,-88,-45,38,190,203,123,-58,-136
-146,-117,29,131,-87,-44,38,189,203,125,-58,-136
-144,-116,28,130,-86,-44,43,190,204,127,-56,-135
-141,-116,25,128,-83,-45,47,190,204,126,-57,-135
-137,-118,19,127,-78,-49,47,185,202,119,-63,-135
-131,-121,10,126,-70,-55,43,176,200,112,-72,-135
-125,-124,1,124,-63,-61,40,164,197,111,-78,-136
-122,-125,-3,123,-59,-64,38,156,195,112,-81,-136
-122,-126,-4,124,-59,-65,40,155,194,106,-82,-133
-125,-125,0,125,-62,-62,42,160,194,97,-81,-131
-130,-126,4,128,-67,-61,43,165,195,93,-84,-130
-135,-126,9,130,-72,-58,43,173,194,96,-86,-131
-138,-122,16,130,-77,-53,42,186,195,105,-87,-130
-140,-117,23,128,-81,-47,42,194,195,116,-87,-130
-143,-113,30,128,-86,-41,43,190,193,123,-86,-135
-145,-112,33,128,-89,-39,43,180,190,125,-86,-140
-146,-111,35,128,-90,-38,42,177,184,124,-87,-142
-146,-111,35,128,-90,-38,42,179,180,122,-87,-141
-145,-114,31,129,-88,-41,43,181,181,121,-87,-140
-145,-116,29,130,-87,-43,43,180,184,121,-87,-140
-147,-117,30,132,-88,-43,41,176,186,123,-86,-141
-150,-117,33,133,-91,-42,42,174,185,125,-86,-141
-152,-114,38,133,-95,-38,48,180,180,127,-87,-138
-151,-112,39,131,-95,-36,52,189,175,126,-87,-136
-146,-111,35,128,-90,-38,49,193,173,120,-85,-136
-141,-111,30,126,-85,-40,43,190,174,112,-82,-140
-140,-112,28,126,-84,-42,41,181,176,108,-79,-148
-140,-112,28,126,-84,-42,42,170,179,107,-81,-159
-141,-111,30,126,-85,-40,42,164,182,104,-90,-170
-140,-111,29,125,-84,-41,39,161,184,102,-100,-179
-141,-116,25,128,-83,-45,36,158,184,101,-108,-183
-145,-121,24,133,-84,-48,34,156,184,101,-111,-184
-152,-124,28,138,-90,-48,34,153,190,103,-113,-185
-160,-125,35,142,-97,-45,38,155,199,106,-112,-185
-164,-128,36,146,-100,-46,43,164,206,112,-105,-180
-165,-130,35,147,-100,-47,47,174,209,116,-97,-175
-164,-131,33,147,-98,-49,48,174,206,114,-93,-172
-161,-130,31,145,-96,-49,48,166,200,112,-92,-170
-156,-131,25,143,-90,-53,47,153,194,114,-91,-167
-151,-131,20,141,-85,-55,47,146,190,117,-91,-165
-150,-128,22,139,-86,-53,48,151,189,112,-92,-166
-150,-122,28,136,-89,-47,48,163,189,102,-92,-169
-150,-115,35,132,-92,-40,47,175,189,95,-91,-171
-150,-112,38,131,-94,-37,47,184,189,92,-91,-174
-154,-114,40,134,-97,-37,50,190,192,92,-94,-179
-156,-121,35,138,-95,-43,52,194,194,96,-96,-184
-150,-126,24,138,-87,-51,53,198,193,100,-97,-187
-145,-130,15,137,-80,-57,53,199,186,102,-97,-189
-151,-135,16,143,-83,-59,53,199,175,97,-97,-192
-163,-140,23,151,-93,-58,53,199,169,92,-101,-194
-172,-142,30,157,-101,-56,51,205,176,91,-108,-196
-175,-141,34,158,-104,-53,48,209,184,92,-116,-199
-171,-137,34,154,-102,-51,44,202,179,87,-120,-203
-165,-131,34,148,-99,-48,39,191,170,78,-121,-208
-159,-126,33,142,-96,-46,35,183,171,71,-124,-211
-156,-122,34,139,-95,-44,34,180,174,67,-130,-213
-155,-121,34,138,-94,-43,34,180,170,70,-139,-216
-155,-122,33,138,-94,-44,38,180,161,73,-149,-218
-155,-120,35,137,-95,-42,45,176,156,69,-157,-219
-155,-117,38,136,-96,-39,52,170,159,63,-164,-218
-157,-113,44,135,-100,-34,55,164,171,61,-172,-219
-160,-111,49,135,-104,-31,53,161,180,62,-179,-219
-165,-113,52,139,-108,-30,46,160,170,65,-183,-216
-169,-116,53,142,-111,-31,39,160,152,63,-189,-213
-171,-118,53,144,-112,-32,37,160,140,50,-199,-216
-170,-121,49,145,-109,-36,38,160,131,35,-212,-223
-168,-129,39,148,-103,-45,41,163,123,28,-224,-229
-169,-135,34,152,-101,-50,43,165,113,24,-233,-233
-174,-133,41,153,-107,-46,40,161,102,14,-239,-234
-179,-123,56,151,-117,-33,34,156,92,1,-246,-234
-178,-110,68,144,-123,-21,27,154,86,-8,-257,-232
-175,-106,69,140,-122,-18,19,155,82,-13,-267,-229
-174,-118,56,146,-115,-31,13,158,77,-14,-271,-224
-174,-134,40,154,-107,-47,9,156,73,-13,-272,-219
-175,-137,38,156,-106,-49,8,145,69,-17,-274,-215
-175,-131,44,153,-109,-43,8,132,63,-27,-277,-209
-174,-129,45,151,-109,-42,9,127,52,-41,-280,-201
-174,-130,44,152,-109,-43,9,130,36,-56,-282,-191
-177,-131,46,154,-111,-42,9,133,16,-67,-285,-180
-179,-130,49,154,-114,-40,9,135,1,-72,-287,-170
-179,-131,48,155,-113,-41,7,136,-4,-71,-283,-165
-175,-131,44,153,-109,-43,4,131,-8,-72,-278,-161
-168,-128,40,148,-104,-44,-1,121,-19,-82,-277,-154
-161,-126,35,143,-98,-45,-8,108,-32,-95,-277,-146
-159,-126,33,142,-96,-46,-11,99,-38,-100,-277,-140
-160,-130,30,145,-95,-50,-13,96,-42,-101,-273,-136
-161,-134,27,147,-94,-53,-16,98,-50,-105,-266,-131
-161,-136,25,148,-93,-55,-18,97,-57,-111,-258,-123
-159,-131,28,145,-93,-51,-19,88,-58,-114,-252,-109
-156,-123,33,139,-94,-45,-19,74,-57,-116,-248,-97
-153,-115,38,134,-95,-38,-17,61,-64,-119,-247,-94
-147,-111,36,129,-91,-37,-18,49,-72,-121,-244,-96
-135,-115,20,125,-77,-47,-25,36,-73,-122,-233,-96
-119,-121,-2,120,-58,-61,-37,21,-72,-122,-220,-92
-102,-123,-21,112,-40,-72,-50,1,-78,-120,-213,-86
-92,-122,-30,107,-31,-76,-57,-13,-86,-117,-205,-78
-96,-122,-26,109,-35,-74,-54,-10,-88,-114,-187,-72
-110,-125,-15,117,-47,-70,-44,2,-87,-112,-163,-64
-126,-129,-3,127,-61,-66,-34,13,-87,-109,-143,-52
-135,-131,4,133,-69,-63,-29,18,-87,-103,-127,-40
-132,-128,4,130,-68,-62,-29,19,-85,-92,-113,-33
-122,-126,-4,124,-59,-65,-33,18,-82,-79,-102,-29
-118,-127,-9,122,-54,-68,-38,22,-81,-67,-96,-26
-117,-130,-13,123,-52,-71,-42,28,-81,-58,-92,-24
-113,-132,-19,122,-47,-75,-45,31,-83,-56,-86,-25
-107,-131,-24,119,-41,-77,-47,29,-82,-57,-82,-28
-100,-125,-25,112,-37,-75,-48,21,-76,-60,-82,-32
-97,-121,-24,109,-36,-72,-48,14,-68,-58,-82,-34
-100,-127,-27,113,-36,-77,-46,13,-63,-50,-77,-30
-106,-135,-29,120,-38,-82,-43,14,-58,-39,-69,-24
-110,-134,-24,122,-43,-79,-40,8,-51,-35,-60,-19
-111,-126,-15,118,-48,-70,-39,4,-43,-34,-53,-14
-113,-121,-8,117,-52,-64,-37,8,-39,-31,-48,-9
-116,-117,-1,116,-57,-59,-34,17,-38,-29,-43,-4
-119,-113,6,116,-62,-53,-29,24,-40,-28,-38,0
-121,-111,10,116,-65,-50,-24,32,-42,-28,-34,3
-122,-114,8,118,-65,-53,-23,46,-44,-28,-30,2
-122,-117,5,119,-63,-56,-23,61,-47,-28,-28,-3
-122,-113,9,117,-65,-52,-24,67,-51,-30,-30,-10
-122,-107,15,114,-68,-46,-23,64,-49,-29,-33,-18
-121,-103,18,112,-69,-42,-24,51,-32,-20,-34,-22
-117,-102,15,109,-66,-43,-24,35,-11,-9,-34,-24
-110,-101,9,105,-59,-46,-20,22,0,-7,-32,-22
-106,-101,5,103,-55,-48,-14,18,3,-4,-29,-19
-112,-103,9,107,-60,-47,-11,29,4,6,-26,-17
-121,-106,15,113,-68,-45,-13,50,8,22,-24,-18
-125,-109,16,117,-70,-46,-19,70,17,31,-22,-21
-126,-111,15,118,-70,-48,-24,81,27,34,-23,-23
-125,-112,13,118,-69,-49,-19,78,34,32,-28,-23
-125,-116,9,120,-67,-53,-9,64,38,29,-33,-19
-128,-124,4,126,-66,-60,-4,50,44,28,-34,-14
-130,-130,0,130,-65,-65,-4,43,52,28,-33,-13
-130,-127,3,128,-66,-62,-4,47,58,30,-35,-20
-126,-118,8,122,-67,-55,-4,57,62,33,-38,-28
-121,-110,11,115,-66,-49,-3,62,64,38,-41,-30
-117,-107,10,112,-63,-48,-3,66,63,46,-42,-29
-116,-108,8,112,-62,-50,-5,77,60,56,-44,-28
-117,-111,6,114,-61,-52,-8,86,58,62,-47,-28
-115,-114,1,114,-58,-56,-10,84,57,60,-53,-29
-116,-116,0,116,-58,-58,-9,78,57,53,-58,-29
-126,-117,9,121,-67,-54,-4,79,58,50,-52,-28
-139,-117,22,128,-80,-47,0,86,58,52,-43,-28
-146,-114,32,130,-89,-41,-2,89,57,56,-39,-33
-142,-112,30,127,-86,-41,-8,87,57,58,-42,-41
-125,-110,15,117,-70,-47,-13,78,62,55,-50,-51
-104,-107,-3,105,-50,-55,-18,65,67,48,-61,-61
-88,-101,-13,94,-37,-57,-25,49,68,41,-73,-71
-82,-96,-14,89,-34,-55,-29,39,68,38,-81,-77
-86,-101,-15,93,-35,-58,-24,43,68,43,-82,-76
-95,-111,-16,103,-39,-63,-15,56,68,48,-81,-69
-103,-116,-13,109,-45,-64,-7,69,66,43,-84,-61
-107,-121,-14,114,-46,-67,-3,77,63,34,-86,-58
-104,-131,-27,117,-38,-79,-7,75,62,31,-84,-60
-97,-144,-47,120,-25,-95,-13,68,62,33,-78,-63
-92,-154,-62,123,-15,-108,-15,67,64,35,-72,-59
-91,-156,-65,123,-13,-110,-14,75,67,38,-68,-57
-97,-148,-51,122,-23,-99,-13,94,70,42,-67,-66
-106,-137,-31,121,-37,-84,-13,107,72,47,-67,-80
-110,-130,-20,120,-45,-75,-13,95,73,52,-67,-90
-111,-126,-15,118,-48,-70,-13,78,72,57,-63,-96
-115,-123,-8,119,-53,-65,-14,82,74,61,-56,-98
-121,-124,-3,122,-59,-63,-14,99,77,63,-48,-97
-127,-136,-9,131,-59,-72,-11,114,80,61,-42,-94
-130,-146,-16,138,-57,-81,-9,121,81,58,-39,-92
-129,-137,-8,133,-60,-72,-8,120,81,57,-38,-91
-126,-123,3,124,-64,-60,-8,113,78,58,-38,-91
-125,-122,3,123,-64,-59,-8,104,73,56,-39,-91
-125,-130,-5,127,-60,-67,-8,97,68,53,-39,-91
-126,-132,-6,129,-60,-69,-9,96,65,51,-37,-94
-126,-131,-5,128,-60,-68,-9,97,63,48,-34,-96
-125,-132,-7,128,-59,-69,-6,92,61,43,-31,-97
-125,-139,-14,132,-55,-76,-4,83,62,42,-29,-97
-126,-149,-23,137,-51,-86,-5,74,70,53,-28,-96
-122,-155,-33,138,-44,-94,-8,72,80,62,-28,-96
-113,-150,-37,131,-38,-93,-9,82,85,54,-28,-97
-102,-141,-39,121,-31,-90,-9,91,82,40,-28,-97
-99,-139,-40,119,-29,-89,-8,83,76,37,-30,-96
-97,-140,-43,118,-27,-91,-8,65,69,42,-33,-96
-90,-141,-51,115,-19,-96,-9,53,62,43,-38,-99
-82,-140,-58,111,-12,-99,-9,52,58,39,-42,-101
-81,-142,-61,111,-10,-101,-8,60,57,34,-43,-102
-86,-141,-55,113,-15,-98,-8,71,58,29,-43,-102
-91,-135,-44,113,-23,-89,-10,78,55,28,-41,-102
-96,-126,-30,111,-33,-78,-13,81,49,28,-39,-102
-101,-122,-21,111,-40,-71,-18,82,40,29,-34,-99
-106,-121,-15,113,-45,-68,-23,82,34,33,-25,-93
-108,-122,-14,115,-47,-68,-25,81,35,42,-11,-82
-107,-122,-15,114,-46,-68,-24,81,45,52,0,-73
-104,-118,-14,111,-45,-66,-21,83,66,53,-2,-74
-102,-108,-6,105,-48,-57,-19,82,85,48,-12,-81
-101,-93,8,97,-54,-42,-17,75,89,44,-21,-84
-101,-79,22,90,-61,-28,-14,68,83,43,-24,-82
-104,-76,28,90,-66,-24,-8,68,77,43,-20,-78
-110,-81,29,95,-69,-26,-1,72,73,47,-14,-73
-119,-86,33,102,-76,-26,5,76,70,52,-10,-70
-125,-87,38,106,-81,-24,8,77,68,57,-9,-68
-124,-82,42,103,-83,-20,9,78,67,58,-8,-66
-117,-74,43,95,-80,-15,9,78,67,58,-8,-63
-111,-66,45,88,-78,-10,9,77,68,57,-9,-60
-107,-59,48,83,-77,-5,9,77,68,58,-8,-58
-104,-49,55,76,-79,3,7,79,67,57,-9,-58
-102,-39,63,70,-82,12,4,81,67,57,-9,-58
-99,-36,63,67,-81,13,1,85,70,59,-8,-55
-97,-34,63,65,-80,14,0,91,72,62,-8,-53
-97,-30,67,63,-82,18,0,96,74,65,-10,-52
-97,-28,69,62,-83,20,0,101,77,67,-13,-48
-94,-34,60,64,-77,13,0,104,84,71,-15,-39
-92,-42,50,67,-71,4,3,102,91,76,-14,-29
-93,-44,49,68,-71,2,8,95,91,84,-10,-28
-96,-43,53,69,-74,5,13,83,91,91,-8,-33
-96,-42,54,69,-75,6,14,69,98,92,-13,-37
-96,-42,54,69,-75,6,9,54,102,83,-22,-38
-102,-45,57,73,-79,6,2,43,90,66,-29,-39
-111,-51,60,81,-85,4,-7,35,70,45,-33,-39
-114,-62,52,88,-83,-5,-18,27,58,29,-34,-38
-112,-72,40,92,-76,-16,-27,20,53,19,-33,-38
-107,-71,36,89,-71,-17,-33,11,47,17,-35,-40
-102,-64,38,83,-70,-13,-38,4,40,19,-38,-42
-102,-55,47,78,-74,-4,-44,3,33,17,-41,-43
-106,-48,58,77,-82,5,-51,4,29,14,-42,-43
-109,-45,64,77,-86,9,-58,1,26,14,-42,-42
-111,-43,68,77,-89,12,-62,-3,24,18,-39,-39
-112,-40,72,76,-92,16,-62,-5,21,25,-32,-32
-112,-39,73,75,-92,17,-62,-4,19,32,-24,-24
-110,-39,71,74,-90,16,-66,-1,16,39,-20,-20
-103,-39,64,71,-83,12,-72,0,14,39,-19,-19
-89,-32,57,60,-73,12,-74,-3,12,32,-19,-19
-74,-24,50,49,-62,13,-73,-4,13,24,-19,-19
-66,-22,44,44,-55,11,-72,4,17,26,-18,-17
-59,-23,36,41,-47,6,-72,17,22,33,-18,-14
-47,-23,24,35,-35,0,-73,22,30,36,-21,-13
-35,-23,12,29,-23,-5,-73,19,34,34,-24,-13
-30,-27,3,28,-16,-12,-69,12,30,31,-20,-16
-33,-33,0,33,-16,-16,-63,4,24,29,-14,-18
-38,-36,2,37,-20,-17,-59,0,22,30,-13,-19
-42,-38,4,40,-23,-17,-57,0,23,33,-14,-19
-44,-40,4,42,-24,-18,-60,2,24,36,-12,-19
-47,-42,5,44,-26,-18,-62,8,24,38,-9,-19
-56,-44,12,50,-34,-16,-60,14,22,40,-8,-17
-66,-47,19,56,-42,-14,-54,22,23,42,-9,-18
-72,-53,19,62,-45,-17,-47,30,28,44,-8,-24
-73,-61,12,67,-42,-24,-43,38,33,43,-8,-33
-72,-70,2,71,-37,-34,-42,42,34,39,-13,-36
-72,-77,-5,74,-33,-41,-43,43,33,34,-18,-38
-73,-82,-9,77,-32,-45,-40,38,38,32,-19,-43
-73,-86,-13,79,-30,-49,-34,30,46,33,-18,-51
-70,-91,-21,80,-24,-56,-28,21,54,35,-20,-58
-68,-96,-28,82,-20,-62,-24,18,58,34,-23,-62
-67,-97,-30,82,-18,-63,-23,27,55,29,-24,-64
-67,-97,-30,82,-18,-63,-23,38,48,20,-23,-63
-67,-96,-29,81,-19,-62,-24,36,43,9,-25,-60
-67,-96,-29,81,-19,-62,-24,29,39,3,-28,-58
-69,-97,-28,83,-20,-62,-23,29,34,8,-29,-57
-72,-97,-25,84,-23,-61,-23,33,29,17,-29,-57
-77,-96,-19,86,-29,-57,-24,36,27,22,-29,-58
-81,-96,-15,88,-33,-55,-24,38,28,23,-29,-58
-82,-98,-16,90,-33,-57,-23,40,32,28,-26,-57
-82,-101,-19,91,-31,-60,-23,42,38,33,-24,-57
-81,-104,-23,92,-29,-63,-26,43,43,35,-24,-58
-81,-106,-25,93,-28,-65,-28,43,47,34,-24,-58
-83,-107,-24,95,-29,-65,-29,41,48,33,-21,-57
-86,-107,-21,96,-32,-64,-29,39,48,33,-15,-57
-87,-107,-20,97,-33,-63,-29,37,48,34,-8,-58
-87,-107,-20,97,-33,-63,-29,34,48,34,-4,-58
-84,-105,-21,94,-31,-63,-27,30,46,30,-5,-57
-82,-102,-20,92,-31,-61,-24,24,43,25,-8,-57
-81,-98,-17,89,-32,-57,-21,19,38,18,-9,-58
-81,-96,-15,88,-33,-55,-19,14,34,14,-9,-58
-81,-102,-21,91,-30,-61,-18,12,33,15,-8,-55
-81,-111,-30,96,-25,-70,-19,13,33,18,-8,-53
-83,-113,-30,98,-26,-71,-17,15,35,18,-11,-52
-86,-111,-25,98,-30,-68,-14,18,38,18,-13,-52
-90,-114,-24,102,-33,-69,-10,21,44,22,-14,-52
-96,-120,-24,108,-36,-72,-8,23,51,28,-14,-52
-100,-129,-29,114,-35,-79,-10,25,58,32,-13,-54
-102,-135,-33,118,-34,-84,-13,28,62,33,-13,-57
-98,-135,-37,116,-30,-86,-14,33,63,34,-16,-62
-92,-131,-39,111,-26,-85,-14,38,62,33,-22,-67
-90,-126,-36,108,-27,-81,-13,40,65,34,-32,-70
-91,-122,-31,106,-30,-76,-13,39,68,34,-42,-72
-93,-120,-27,106,-33,-73,-14,37,65,29,-44,-76
-96,-121,-25,108,-35,-73,-14,41,62,20,-46,-84
-100,-127,-27,113,-36,-77,-10,57,68,8,-57,-101
-102,-135,-33,118,-34,-84,-4,82,79,3,-71,-119
-96,-137,-41,116,-27,-89,1,109,93,14,-78,-133
-87,-136,-49,111,-19,-92,7,132,109,35,-81,-144
-85,-135,-50,110,-17,-92,15,147,127,54,-86,-155
-86,-132,-46,109,-20,-89,19,147,140,66,-87,-161
-86,-122,-36,104,-25,-79,14,128,139,73,-77,-151
-80,-109,-29,94,-25,-69,2,100,132,80,-49,-123
-61,-95,-34,78,-13,-64,-13,81,127,95,1,-73
-33,-76,-43,54,5,-59,-37,69,129,128,73,-3
-1,-49,-48,25,23,-48,-74,61,140,186,162,84
29,-14,-43,-7,36,-28,-111,54,164,267,265,183
56,21,-35,-38,45,-7,-137,45,204,367,381,286
86,61,-25,-73,55,18,-157,32,236,456,498,395
126,107,-19,-116,72,44,-182,6,230,506,605,515
168,160,-8,-164,88,76,-217,-49,177,517,709,649
203,220,17,-211,93,118,-261,-154,77,505,824,800
233,289,56,-261,88,172,-313,-307,-76,467,946,962
268,372,104,-320,82,238,-369,-496,-284,399,1066,1133
302,466,164,-384,69,315,-429,-692,-511,326,1196,1318
323,567,244,-445,39,405,-487,-862,-711,276,1348,1523
327,652,325,-489,1,488,-531,-999,-885,215,1481,1711
311,694,383,-502,-36,538,-548,-1103,-1043,94,1545,1833
286,688,402,-487,-58,545,-539,-1169,-1173,-61,1531,1867
263,639,376,-451,-56,507,-508,-1194,-1256,-208,1450,1810
231,571,340,-401,-54,455,-457,-1199,-1305,-343,1332,1705
172,512,340,-342,-84,426,-390,-1205,-1339,-482,1207,1605
88,461,373,-274,-142,417,-314,-1203,-1352,-610,1065,1502
-11,408,419,-198,-215,413,-238,-1167,-1329,-708,884,1365
-114,343,457,-114,-285,400,-163,-1093,-1271,-768,682,1177
-205,258,463,-26,-334,360,-90,-985,-1187,-794,486,931
-274,165,439,54,-356,302,-23,-871,-1093,-803,295,658
-315,83,398,116,-356,240,31,-777,-1004,-814,95,398
-337,8,345,164,-341,176,86,-685,-913,-809,-111,141
-355,-68,287,211,-321,109,153,-564,-808,-762,-317,-130
-368,-133,235,250,-301,51,208,-448,-714,-693,-493,-358
-372,-166,206,269,-289,20,223,-387,-657,-636,-605,-465
-360,-178,182,269,-271,2,211,-364,-610,-584,-640,-475
-327,-189,138,258,-232,-25,198,-337,-529,-518,-599,-449
-288,-202,86,245,-187,-58,183,-295,-423,-442,-516,-411
-261,-210,51,235,-156,-79,156,-240,-318,-364,-435,-370
-242,-206,36,224,-139,-85,122,-176,-223,-286,-366,-329
-220,-185,35,202,-127,-75,93,-109,-141,-207,-306,-286
-198,-159,39,178,-118,-60,71,-50,-76,-140,-259,-252
-182,-144,38,163,-110,-53,51,-12,-31,-96,-229,-233
-168,-140,28,154,-98,-56,35,14,0,-71,-211,-225
-145,-144,1,144,-73,-71,27,42,24,-53,-196,-216
-120,-150,-30,135,-45,-90,24,69,48,-40,-182,-209
-102,-152,-50,127,-26,-101,24,86,74,-31,-171,-209
-93,-151,-58,122,-17,-104,24,96,98,-21,-165,-209
-88,-149,-61,118,-13,-105,22,100,116,-7,-163,-199
-87,-146,-59,116,-14,-102,19,101,125,6,-161,-186
-87,-143,-56,115,-15,-99,18,102,124,16,-156,-181
-87,-141,-54,114,-16,-97,19,102,117,23,-151,-184
-85,-140,-55,112,-15,-97,17,101,114,28,-149,-187
-82,-141,-59,111,-11,-100,14,101,116,33,-150,-189
-80,-139,-59,109,-10,-99,9,104,121,34,-152,-191
-78,-136,-58,107,-10,-97,4,110,125,33,-151,-194
-73,-133,-60,103,-6,-96,1,121,126,35,-143,-196
-68,-131,-63,99,-2,-97,0,133,125,41,-128,-195
-67,-131,-64,99,-1,-97,0,145,127,52,-113,-188
-68,-131,-63,99,-2,-97,0,150,130,62,-102,-180
-66,-129,-63,97,-1,-96,0,147,131,60,-101,-178
-67,-126,-59,96,-4,-92,0,137,131,50,-105,-179
-74,-124,-50,99,-12,-87,3,126,131,38,-111,-180
-81,-125,-44,103,-18,-84,8,117,131,29,-116,-179
-80,-128,-48,104,-16,-88,11,115,128,26,-119,-181
-74,-130,-56,102,-9,-93,13,116,122,28,-121,-184
-67,-131,-64,99,-1,-97,15,117,118,31,-123,-187
-63,-131,-68,97,2,-99,14,117,116,34,-125,-189
-64,-130,-66,97,1,-98,9,116,119,31,-126,-191
-67,-130,-63,98,-2,-96,1,116,124,25,-126,-194
-68,-131,-63,99,-2,-97,-5,117,131,17,-126,-200
-71,-131,-60,101,-5,-95,-8,121,135,13,-126,-204
-82,-129,-47,105,-17,-88,-7,128,136,18,-124,-199
-98,-126,-28,112,-35,-77,-1,138,136,27,-122,-187
-117,-125,-8,121,-54,-66,8,151,135,35,-119,-174
-130,-125,5,127,-67,-60,18,160,135,38,-117,-165
-128,-127,1,127,-64,-63,20,158,135,38,-118,-166
-118,-130,-12,124,-53,-71,19,148,135,38,-121,-173
-109,-133,-24,121,-42,-78,19,136,136,45,-122,-180
-103,-135,-32,119,-35,-83,19,127,136,52,-122,-184
-96,-136,-40,116,-28,-88,16,121,133,49,-121,-185
-88,-135,-47,111,-20,-91,10,117,127,40,-121,-184
-80,-136,-56,108,-12,-96,2,114,120,36,-124,-187
-77,-136,-59,106,-9,-97,-3,115,116,38,-126,-190
-83,-134,-51,108,-16,-92,-2,126,122,44,-123,-186
-94,-131,-37,112,-28,-84,2,135,133,51,-118,-180
-107,-130,-23,118,-42,-76,9,132,144,56,-111,-178
-116,-130,-14,123,-51,-72,13,122,150,58,-107,-179
-115,-130,-15,122,-50,-72,14,122,150,56,-109,-180
-108,-130,-22,119,-43,-76,14,129,150,53,-115,-180
-101,-133,-32,117,-34,-82,14,138,156,52,-121,-179
-97,-135,-38,116,-29,-86,14,141,163,52,-125,-179
-96,-135,-39,115,-28,-87,11,131,167,54,-126,-180
-97,-131,-34,114,-31,-82,8,114,165,57,-126,-180
-96,-126,-30,111,-33,-78,11,103,162,59,-126,-178
-92,-122,-30,107,-31,-76,14,101,157,58,-126,-175
-87,-120,-33,103,-27,-76,10,106,150,52,-124,-173
-82,-121,-39,101,-21,-80,4,111,142,44,-122,-174
-81,-123,-42,102,-19,-82,2,109,135,40,-120,-179
-81,-122,-41,101,-20,-81,3,103,131,39,-121,-188
-82,-114,-32,98,-25,-73,3,97,129,37,-125,-198
-81,-103,-22,92,-29,-62,0,92,126,34,-130,-207
-82,-95,-13,88,-34,-54,-2,89,120,33,-131,-212
-85,-92,-7,88,-39,-49,-3,87,116,33,-130,-213
-93,-91,2,92,-47,-44,-3,85,123,35,-131,-214
-100,-91,9,95,-54,-41,0,86,138,38,-131,-214
-104,-91,13,97,-58,-39,4,94,152,43,-125,-209
-106,-91,15,98,-60,-38,8,105,160,47,-118,-204
-110,-93,17,101,-63,-38,9,112,159,47,-113,-203
-115,-96,19,105,-67,-38,9,116,152,47,-112,-203
-121,-99,22,110,-71,-38,9,118,145,53,-110,-203
-122,-101,21,111,-71,-40,9,117,141,58,-111,-203
-114,-102,12,108,-63,-45,6,110,138,51,-116,-207
-100,-102,-2,101,-49,-52,1,99,136,36,-124,-213
-83,-102,-19,92,-32,-60,-4,87,133,23,-132,-217
-73,-102,-29,87,-22,-65,-8,78,131,14,-139,-222
-75,-100,-25,87,-25,-62,-9,76,131,12,-147,-229
-81,-97,-16,89,-32,-56,-8,77,131,13,-154,-237
-80,-93,-13,86,-33,-53,-11,76,126,14,-160,-243
-77,-91,-14,84,-31,-52,-13,73,118,14,-164,-247
-82,-95,-13,88,-34,-54,-12,71,110,12,-166,-250
-90,-101,-11,95,-39,-56,-9,72,110,13,-169,-252
-95,-104,-9,99,-43,-56,-7,76,123,19,-175,-254
-96,-102,-6,99,-45,-54,-8,81,135,24,-183,-257
-97,-97,0,97,-48,-48,-11,82,130,17,-187,-260
-97,-88,9,92,-53,-39,-13,81,118,2,-189,-262
-96,-78,18,87,-57,-30,-14,84,116,-11,-193,-263
-96,-72,24,84,-60,-24,-13,90,117,-18,-198,-262
-97,-77,20,87,-58,-28,-14,96,106,-15,-205,-263
-97,-89,8,93,-52,-40,-14,101,85,-9,-212,-263
-96,-101,-5,98,-45,-53,-11,103,67,-9,-218,-260
-96,-106,-10,101,-43,-58,-5,102,61,-13,-223,-258
-101,-103,-2,102,-49,-52,1,100,77,-14,-227,-257
-109,-97,12,103,-60,-42,8,101,99,-10,-228,-258
-121,-96,25,108,-73,-35,11,106,104,-3,-228,-256
-130,-97,33,113,-81,-32,9,111,94,-2,-228,-253
-130,-95,35,112,-82,-30,3,110,82,-15,-235,-252
-123,-92,31,107,-77,-30,-6,107,70,-31,-245,-252
-115,-93,22,104,-68,-35,-17,106,57,-38,-255,-253
-111,-96,15,103,-63,-40,-23,107,44,-41,-262,-252
-117,-98,19,107,-68,-39,-21,103,36,-53,-265,-253
-129,-97,32,113,-80,-32,-15,97,34,-69,-267,-253
-136,-95,41,115,-88,-27,-9,94,34,-83,-271,-251
-136,-96,40,116,-88,-28,-8,96,34,-91,-276,-248
-130,-103,27,116,-78,-38,-12,101,27,-92,-283,-247
-119,-107,12,113,-65,-47,-18,106,16,-91,-290,-247
-107,-98,9,102,-58,-44,-19,104,5,-95,-299,-248
-98,-83,15,90,-56,-34,-18,94,-2,-105,-306,-248
-93,-78,15,85,-54,-31,-20,81,-9,-115,-308,-245
-91,-81,10,86,-50,-35,-23,65,-17,-124,-307,-240
-92,-83,9,87,-50,-37,-26,50,-27,-129,-306,-234
-92,-82,10,87,-51,-36,-28,39,-37,-130,-307,-229
-87,-79,8,83,-47,-35,-30,39,-42,-131,-305,-225
-75,-74,1,74,-38,-36,-33,42,-46,-138,-306,-220
-58,-65,-7,61,-25,-36,-39,39,-57,-156,-312,-213
-44,-58,-14,51,-15,-36,-46,30,-71,-173,-316,-205
-43,-58,-15,50,-14,-36,-50,23,-77,-174,-312,-195
-51,-62,-11,56,-20,-36,-52,19,-80,-166,-299,-182
-58,-65,-7,61,-25,-36,-54,19,-88,-161,-285,-168
-62,-67,-5,64,-28,-36,-57,19,-96,-160,-270,-154
-62,-67,-5,64,-28,-36,-60,16,-97,-161,-257,-137
-59,-67,-8,63,-25,-37,-62,10,-96,-161,-245,-123
-52,-69,-17,60,-17,-43,-65,4,-102,-160,-236,-118
-48,-72,-24,60,-12,-48,-67,0,-111,-160,-226,-117
-49,-74,-25,61,-12,-49,-69,0,-112,-161,-213,-114
-56,-73,-17,64,-19,-45,-72,0,-111,-161,-201,-108
-65,-68,-3,66,-31,-35,-75,0,-116,-159,-194,-98
-72,-63,9,67,-40,-27,-77,-3,-124,-156,-186,-88
-70,-64,6,67,-38,-29,-78,-7,-130,-154,-173,-84
-64,-71,-7,67,-28,-39,-78,-12,-134,-151,-158,-82
-60,-78,-18,69,-21,-48,-78,-20,-141,-147,-147,-77
-58,-82,-24,70,-17,-53,-78,-27,-146,-141,-138,-69
-55,-79,-24,67,-15,-51,-76,-32,-141,-137,-125,-62
-53,-73,-20,63,-16,-46,-73,-34,-132,-136,-113,-58
-54,-71,-17,62,-18,-44,-72,-32,-125,-136,-106,-55
-57,-72,-15,64,-21,-43,-72,-29,-122,-136,-102,-53
-58,-74,-16,66,-21,-45,-73,-29,-119,-131,-97,-51
-58,-73,-15,65,-21,-44,-73,-36,-113,-123,-92,-48
-58,-67,-9,62,-24,-38,-71,-50,-100,-116,-91,-45
-58,-62,-4,60,-27,-33,-68,-62,-88,-108,-92,-43
-56,-70,-14,63,-21,-42,-66,-61,-86,-98,-89,-44
-53,-84,-31,68,-11,-57,-63,-53,-91,-88,-83,-47
-48,-91,-43,69,-2,-67,-59,-52,-93,-83,-77,-50
-43,-88,-45,65,1,-66,-57,-53,-92,-82,-73,-52
-40,-80,-40,60,0,-60,-60,-48,-92,-80,-72,-53
-39,-70,-31,54,-4,-50,-66,-40,-95,-78,-72,-53
-36,-59,-23,47,-6,-41,-71,-33,-104,-77,-74,-53
-34,-53,-19,43,-7,-36,-72,-25,-111,-78,-73,-53
-33,-54,-21,43,-6,-37,-73,-14,-108,-77,-69,-52
-34,-57,-23,45,-5,-40,-73,-5,-98,-77,-63,-52
-33,-55,-22,44,-5,-38,-72,-4,-90,-79,-61,-54
-33,-49,-16,41,-8,-32,-72,-11,-80,-79,-62,-57
-37,-44,-7,40,-15,-25,-73,-23,-65,-70,-63,-59
-42,-43,-1,42,-20,-22,-73,-36,-50,-59,-63,-58
-45,-42,3,43,-24,-19,-69,-46,-42,-55,-62,-54
-47,-42,5,44,-26,-18,-64,-49,-42,-53,-58,-48
-50,-42,8,46,-29,-17,-59,-37,-44,-45,-52,-45
-52,-42,10,47,-31,-16,-57,-18,-43,-35,-44,-43
-51,-43,8,47,-29,-17,-60,1,-37,-32,-37,-42
-48,-43,5,45,-26,-19,-63,13,-29,-33,-33,-42
-46,-41,5,43,-25,-18,-58,12,-27,-33,-36,-43
-47,-39,8,43,-27,-15,-49,2,-28,-30,-42,-43
-50,-40,10,45,-30,-15,-43,-8,-28,-23,-43,-41
-52,-42,10,47,-31,-16,-42,-13,-25,-18,-43,-42
-52,-43,9,47,-30,-17,-44,-10,-19,-22,-44,-50
-48,-42,6,45,-27,-18,-47,-4,-14,-32,-47,-61
-43,-44,-1,43,-21,-22,-50,-2,-13,-40,-51,-67
-39,-47,-8,43,-15,-27,-52,-1,-14,-40,-53,-68
-38,-50,-12,44,-13,-31,-54,8,-10,-27,-51,-67
-39,-52,-13,45,-13,-32,-57,18,-1,-11,-48,-67
-38,-55,-17,46,-10,-36,-59,17,8,-4,-48,-68
-38,-57,-19,47,-9,-38,-58,10,17,-3,-48,-68
-43,-58,-15,50,-14,-36,-53,7,23,-2,-45,-63
-47,-58,-11,52,-18,-34,-48,9,28,2,-42,-58
-44,-55,-11,49,-16,-33,-51,7,33,11,-46,-58
-36,-53,-17,44,-9,-35,-57,1,38,18,-52,-62
-26,-53,-27,39,0,-40,-56,-6,39,14,-54,-64
-19,-53,-34,36,7,-43,-49,-16,35,0,-53,-63
-18,-50,-32,34,7,-41,-43,-30,27,-18,-53,-60
-22,-48,-26,35,2,-37,-39,-38,19,-29,-53,-58
-29,-49,-20,39,-4,-34,-36,-32,17,-20,-49,-57
-37,-52,-15,44,-11,-33,-34,-13,18,-2,-44,-58
-44,-53,-9,48,-17,-31,-32,6,17,5,-39,-56
-47,-52,-5,49,-21,-28,-33,18,14,4,-38,-57
-46,-53,-7,49,-19,-30,-38,14,11,0,-41,-63
-43,-53,-10,48,-16,-31,-46,2,9,-3,-46,-71
-42,-47,-5,44,-18,-26,-51,-4,8,-6,-51,-75
-42,-40,2,41,-22,-19,-52,-1,8,-8,-56,-77
-44,-37,7,40,-25,-15,-53,8,10,-9,-63,-81
-43,-41,2,42,-22,-19,-52,11,13,-8,-71,-86
-38,-49,-11,43,-13,-30,-53,-10,14,-9,-79,-87
-34,-57,-23,45,-5,-40,-53,-36,14,-9,-82,-87
-36,-58,-22,47,-7,-40,-52,-32,13,-6,-75,-87
-45,-61,-16,53,-14,-38,-48,-5,13,-4,-61,-87
-56,-74,-18,65,-19,-46,-43,19,14,-5,-47,-85
-63,-86,-23,74,-20,-54,-39,33,14,-8,-39,-82
-57,-79,-22,68,-17,-50,-40,30,12,-9,-41,-81
-45,-64,-19,54,-13,-41,-46,17,9,-8,-50,-82
-34,-63,-29,48,-2,-46,-53,1,5,-10,-61,-81
-29,-71,-42,50,6,-56,-57,-8,0,-13,-67,-81
-32,-73,-41,52,4,-57,-54,-7,-1,-14,-64,-85
-41,-68,-27,54,-7,-47,-45,-1,-3,-13,-55,-90
-50,-67,-17,58,-16,-42,-32,1,-5,-15,-45,-94
-56,-71,-15,63,-20,-43,-24,-2,-5,-15,-39,-96
-60,-80,-20,70,-20,-50,-27,-12,2,-5,-40,-97
-59,-86,-27,72,-16,-56,-37,-19,12,3,-46,-97
-51,-82,-31,66,-10,-56,-44,-13,16,-3,-53,-97
-43,-74,-31,58,-6,-52,-47,-4,14,-17,-57,-97
-45,-71,-26,58,-9,-48,-46,-9,13,-18,-58,-96
-51,-72,-21,61,-15,-46,-43,-21,13,-10,-57,-96
-55,-73,-18,64,-18,-45,-41,-27,15,-5,-59,-98
-53,-72,-19,62,-17,-45,-39,-25,18,-7,-62,-101
-49,-73,-24,61,-12,-48,-37,-18,20,-14,-63,-102
-43,-73,-30,58,-6,-51,-38,-10,19,-22,-63,-101
-40,-68,-28,54,-6,-48,-43,-5,12,-26,-61,-102
-39,-59,-20,49,-9,-39,-47,-4,4,-24,-58,-102
-37,-53,-16,45,-10,-34,-44,-3,3,-20,-55,-96
-34,-48,-14,41,-10,-31,-35,0,8,-14,-53,-88
-30,-44,-14,37,-8,-29,-29,4,11,-11,-53,-82
-28,-39,-11,33,-8,-25,-24,8,13,-9,-53,-78
-32,-38,-6,35,-13,-22,-20,7,13,-7,-49,-74
-40,-38,2,39,-21,-18,-14,1,13,-4,-44,-69
-50,-39,11,44,-30,-14,-11,-5,15,-2,-40,-63
-57,-39,18,48,-37,-10,-9,-9,18,0,-39,-58
-56,-36,20,46,-38,-8,-8,-3,21,1,-38,-57
-49,-30,19,39,-34,-5,-8,10,23,3,-38,-57
-43,-24,19,33,-31,-2,-8,26,24,5,-39,-58
-39,-19,20,29,-29,0,-8,37,27,8,-39,-58
-38,-18,20,28,-29,1,-9,39,36,11,-36,-56
-38,-19,19,28,-28,0,-9,34,46,13,-30,-53
-39,-17,22,28,-30,2,-7,32,48,15,-24,-49
-39,-14,25,26,-32,5,-4,33,47,18,-19,-44
-38,-11,27,24,-32,8,-3,34,53,21,-18,-38
-38,-9,29,23,-33,10,-4,34,55,27,-15,-34
-39,-6,33,22,-36,13,-3,31,36,35,-5,-35
-39,-4,35,21,-37,15,-3,29,12,42,3,-38
-37,-3,34,20,-35,15,-6,29,6,42,0,-39
-38,-4,34,21,-36,15,-12,29,13,36,-11,-39
-43,-3,40,23,-41,18,-19,25,11,24,-24,-39
-51,-3,48,27,-49,22,-27,16,5,11,-32,-39
-55,-7,48,31,-51,20,-36,2,3,3,-35,-37
-54,-13,41,33,-47,14,-46,-15,4,0,-34,-34
-47,-15,32,31,-39,8,-52,-31,0,0,-35,-33
-40,-14,26,27,-33,6,-56,-41,-7,0,-38,-33
-37,-11,26,24,-31,7,-63,-43,-14,-2,-39,-33
-38,-9,29,23,-33,10,-71,-42,-18,-7,-39,-33
-40,-8,32,24,-36,12,-77,-46,-19,-12,-37,-34
-42,-8,34,25,-38,13,-81,-52,-19,-14,-34,-34
-43,-8,35,25,-39,13,-81,-51,-18,-11,-30,-30
-42,-8,34,25,-38,13,-81,-44,-18,-5,-25,-25
-43,-10,33,26,-38,11,-84,-36,-20,0,-21,-20
-40,-9,31,24,-35,11,-90,-33,-23,-2,-19,-19
-29,-2,27,15,-28,12,-96,-41,-24,-12,-19,-19
-16,7,23,4,-19,15,-100,-52,-24,-22,-19,-19
-8,12,20,-2,-14,16,-106,-50,-23,-22,-17,-17
-1,13,14,-6,-7,13,-111,-40,-24,-15,-14,-14
9,14,5,-11,2,9,-113,-36,-23,-12,-14,-11
21,14,-7,-17,14,3,-112,-38,-23,-13,-14,-9
27,12,-15,-19,21,-1,-109,-43,-25,-15,-10,-7
25,9,-16,-17,20,-3,-103,-47,-25,-14,-5,-4
16,8,-8,-12,12,0,-96,-46,-17,-8,-1,0
5,8,3,-6,1,5,-88,-40,-5,1,2,3
-1,8,9,-3,-5,8,-81,-31,0,11,10,6
-7,8,15,0,-11,11,-74,-20,3,17,17,8
-16,9,25,3,-20,17,-65,-13,7,21,20,10
-27,9,36,9,-31,22,-54,-5,16,23,19,9
-33,5,38,14,-35,21,-47,3,31,26,18,4
-34,-2,32,18,-33,15,-43,12,42,25,15,-2
-32,-10,22,21,-27,6,-42,16,35,14,6,-6
-29,-17,12,23,-20,-2,-43,11,13,-4,-6,-8
-28,-23,5,25,-16,-9,-41,-2,-6,-23,-15,-13
-28,-27,1,27,-14,-13,-39,-16,-18,-33,-18,-22
-28,-33,-5,30,-11,-19,-39,-20,-17,-28,-17,-29
-28,-38,-10,33,-9,-24,-41,-8,-10,-12,-10,-33
-29,-39,-10,34,-9,-24,-47,16,-4,2,-2,-34
-29,-39,-10,34,-9,-24,-52,37,0,12,3,-34
-26,-38,-12,32,-7,-25,-51,33,2,15,1,-33
-20,-38,-18,29,-1,-28,-44,13,3,14,-7,-33
-13,-39,-26,26,6,-32,-38,-1,2,14,-14,-35
-9,-39,-30,24,10,-34,-34,-8,0,14,-18,-38
-10,-38,-28,24,9,-33,-33,-10,0,9,-19,-39
-13,-38,-25,25,6,-31,-34,-9,0,4,-19,-39
-14,-40,-26,27,6,-33,-32,-6,2,6,-17,-39
-14,-42,-28,28,7,-35,-29,-4,7,12,-14,-39
-14,-45,-31,29,8,-38,-26,-3,15,15,-10,-37
-17,-47,-30,32,6,-38,-24,-4,22,14,-5,-34
-23,-48,-25,35,1,-36,-21,-3,27,14,0,-31
-28,-48,-20,38,-4,-34,-19,-3,28,14,3,-29
-30,-45,-15,37,-7,-30,-18,-6,29,11,2,-28
-29,-40,-11,34,-9,-25,-18,-12,29,5,-2,-28
-27,-34,-7,30,-10,-20,-19,-19,29,0,-10,-28
-24,-29,-5,26,-9,-17,-19,-23,29,-3,-17,-28
-20,-27,-7,23,-6,-17,-18,-21,28,-2,-21,-29
-15,-28,-13,21,-1,-20,-18,-15,28,2,-19,-29
-8,-33,-25,20,8,-29,-19,-9,30,10,-15,-27
-3,-41,-38,22,17,-39,-19,-4,33,18,-10,-24
-7,-46,-39,26,16,-42,-17,-1,35,19,-6,-23
-16,-47,-31,31,7,-39,-14,0,38,18,-4,-24
-25,-48,-23,36,-1,-35,-11,0,41,21,-3,-23
-32,-48,-16,40,-8,-32,-12,0,43,24,-3,-23
-40,-47,-7,43,-16,-27,-21,0,38,18,-5,-26
-50,-47,3,48,-26,-22,-35,0,26,6,-8,-32
-59,-49,10,54,-34,-19,-47,3,13,-4,-10,-38
-63,-52,11,57,-37,-20,-52,8,4,-12,-13,-42
-57,-55,2,56,-29,-26,-50,8,4,-15,-17,-43
-43,-57,-14,50,-14,-35,-44,2,8,-14,-23,-43
-25,-58,-33,41,4,-45,-37,-7,8,-14,-25,-43
-14,-61,-47,37,16,-54,-30,-10,7,-14,-27,-46
-21,-68,-47,44,13,-57,-21,4,17,-11,-34,-52
-38,-76,-38,57,0,-57,-11,34,34,-2,-41,-60
-53,-79,-26,66,-13,-52,-1,70,52,11,-45,-71
-58,-78,-20,68,-19,-49,7,101,68,22,-50,-87
-52,-77,-25,64,-13,-51,14,119,87,22,-65,-111
-41,-74,-33,57,-4,-53,19,119,100,15,-83,-132
-31,-66,-35,48,2,-50,15,102,100,14,-90,-137
-21,-55,-34,38,6,-44,6,78,93,24,-78,-122
-8,-44,-36,26,14,-40,-6,59,90,48,-44,-90
12,-28,-40,8,26,-34,-27,49,95,86,9,-42
42,-3,-45,-19,43,-24,-62,44,105,137,77,21
75,30,-45,-52,60,-7,-100,46,131,208,165,101
101,67,-34,-84,67,16,-123,55,182,307,280,195
124,106,-18,-115,71,44,-137,66,241,409,406,300
156,153,-3,-154,79,75,-157,66,278,479,519,413
194,206,12,-200,91,109,-190,30,269,513,621,529
234,262,28,-248,103,145,-238,-68,192,519,721,646
273,325,52,-299,110,188,-297,-229,46,497,827,776
314,399,85,-356,114,242,-360,-430,-157,448,948,935
349,488,139,-418,105,313,-423,-647,-383,404,1102,1136
370,593,223,-481,73,408,-488,-851,-589,402,1309,1383
375,692,317,-533,29,504,-541,-1030,-779,402,1516,1625
369,757,388,-563,-9,572,-570,-1179,-973,335,1646,1792
358,774,416,-566,-29,595,-569,-1285,-1150,205,1678,1861
346,741,395,-543,-24,568,-544,-1333,-1275,49,1627,1839
321,681,360,-501,-19,520,-496,-1344,-1349,-106,1530,1765
267,629,362,-448,-47,495,-432,-1351,-1388,-246,1432,1691
183,588,405,-385,-111,496,-358,-1349,-1397,-371,1317,1615
81,549,468,-315,-193,508,-282,-1321,-1373,-491,1147,1512
-24,495,519,-235,-271,507,-207,-1258,-1325,-603,935,1361
-118,408,526,-145,-322,467,-134,-1163,-1266,-705,713,1147
-190,302,492,-56,-341,397,-67,-1053,-1201,-785,491,891
-236,204,440,16,-338,322,-8,-953,-1129,-833,267,623
-262,116,378,73,-320,247,51,-847,-1040,-839,43,342
-284,32,316,126,-300,174,125,-712,-922,-799,-175,40
-303,-39,264,171,-283,112,190,-576,-802,-736,-367,-225
-315,-86,229,200,-272,71,213,-491,-723,-682,-501,-375
-315,-115,200,215,-257,42,206,-447,-667,-636,-565,-421
-293,-141,152,217,-222,5,196,-408,-594,-577,-557,-419
-260,-161,99,210,-179,-31,184,-362,-504,-505,-506,-393
-231,-168,63,199,-147,-52,158,-309,-414,-429,-448,-355
-206,-156,50,181,-128,-53,124,-245,-327,-350,-393,-312
-179,-127,52,153,-115,-37,94,-172,-239,-267,-334,-269
-155,-93,62,124,-108,-15,68,-104,-157,-193,-279,-235
-140,-73,67,106,-103,-3,45,-62,-94,-147,-239,-215
-129,-68,61,98,-95,-3,27,-35,-48,-122,-213,-206
-111,-69,42,90,-76,-13,17,-4,-11,-99,-194,-196
-91,-72,19,81,-55,-26,14,31,21,-74,-178,-186
-77,-73,4,75,-40,-34,14,61,52,-48,-164,-181
-69,-73,-4,71,-32,-38,14,83,80,-24,-152,-177
-60,-72,-12,66,-24,-42,10,95,103,-4,-146,-164
-49,-73,-24,61,-12,-48,8,101,115,7,-142,-148
-43,-72,-29,57,-7,-50,14,102,115,11,-135,-141
-39,-72,-33,55,-3,-52,26,102,108,13,-127,-140
-35,-74,-39,54,2,-56,37,101,104,17,-123,-140
-33,-77,-44,55,5,-60,42,101,106,23,-122,-140
-37,-78,-41,57,2,-59,40,104,110,25,-121,-142
-45,-78,-33,61,-6,-55,35,110,115,24,-118,-145
-54,-75,-21,64,-16,-48,31,116,119,23,-111,-147
-58,-73,-15,65,-21,-44,29,121,121,23,-103,-146
-53,-72,-19,62,-17,-45,26,122,124,25,-97,-141
-42,-73,-31,57,-5,-52,20,121,125,28,-92,-136
-29,-71,-42,50,6,-56,13,123,124,29,-89,-136
-20,-68,-48,44,14,-58,9,125,122,29,-87,-140
-18,-67,-49,42,15,-58,11,126,121,29,-86,-141
-19,-67,-48,43,14,-57,17,126,121,29,-86,-141
-13,-69,-56,41,21,-62,21,125,122,28,-87,-140
-4,-72,-68,38,32,-70,23,125,125,28,-87,-140
-6,-73,-67,39,30,-70,24,127,130,33,-86,-141
-16,-73,-57,44,20,-65,24,130,135,41,-86,-141
-27,-72,-45,49,9,-58,22,132,136,48,-87,-139
-37,-72,-35,54,-1,-53,19,134,135,52,-87,-136
-42,-73,-31,57,-5,-52,18,140,138,53,-86,-135
-42,-73,-31,57,-5,-52,19,148,144,52,-86,-135
-43,-71,-28,57,-7,-49,18,157,150,54,-87,-136
-43,-68,-25,55,-9,-46,18,161,155,57,-87,-136
-42,-64,-22,53,-10,-43,22,157,156,57,-86,-136
-42,-59,-17,50,-12,-38,27,148,156,54,-86,-136
-43,-54,-11,48,-16,-32,30,141,156,49,-88,-135
-43,-52,-9,47,-17,-30,29,136,156,47,-91,-135
-42,-54,-12,48,-15,-33,25,133,153,54,-92,-137
-39,-57,-18,48,-10,-37,20,127,147,62,-92,-140
-35,-57,-22,46,-6,-39,16,118,141,59,-91,-142
-29,-57,-28,43,0,-42,14,108,136,50,-91,-145
-27,-62,-35,44,4,-48,13,103,133,43,-92,-148
-28,-71,-43,49,7,-57,13,105,131,42,-92,-150
-30,-77,-47,53,8,-62,14,114,130,45,-90,-150
-33,-81,-48,57,7,-64,13,124,130,47,-87,-150
-34,-82,-48,58,7,-65,14,125,131,46,-86,-154
-34,-82,-48,58,7,-65,14,122,131,41,-86,-160
-32,-81,-49,56,8,-65,13,124,129,31,-87,-162
-29,-81,-52,55,11,-66,13,129,129,24,-87,-161
-28,-82,-54,55,13,-68,15,133,137,26,-85,-160
-28,-82,-54,55,13,-68,18,131,148,36,-82,-160
-29,-80,-51,54,11,-65,20,126,155,47,-79,-161
-32,-78,-46,55,7,-62,22,122,156,56,-78,-161
-40,-75,-35,57,-2,-55,28,123,152,62,-78,-158
-50,-73,-23,61,-13,-48,33,129,147,63,-78,-152
-58,-72,-14,65,-22,-43,31,133,143,59,-76,-147
-62,-73,-11,67,-25,-42,25,132,141,54,-73,-145
-61,-71,-10,66,-25,-40,22,124,140,50,-73,-149
-54,-68,-14,61,-20,-41,23,114,141,48,-79,-158
-47,-64,-17,55,-15,-40,22,106,140,46,-90,-167
-40,-62,-22,51,-9,-42,19,102,137,43,-100,-174
-36,-66,-30,51,-3,-48,16,101,130,41,-103,-175
-37,-71,-34,54,-1,-52,14,101,126,39,-102,-175
-43,-74,-31,58,-6,-52,13,102,129,37,-102,-175
-51,-73,-22,62,-14,-47,13,105,138,38,-103,-175
-56,-72,-16,64,-20,-44,15,113,146,42,-95,-171
-57,-72,-15,64,-21,-43,18,123,150,47,-84,-165
-58,-72,-14,65,-22,-43,19,131,151,47,-77,-163
-58,-72,-14,65,-22,-43,19,135,151,46,-73,-164
-56,-74,-18,65,-19,-46,18,134,149,54,-69,-164
-53,-77,-24,65,-14,-50,18,127,146,66,-64,-164
-52,-79,-27,65,-12,-53,19,120,143,70,-60,-166
-52,-81,-29,66,-11,-55,19,113,141,65,-58,-169
-52,-82,-30,67,-11,-56,18,108,140,54,-58,-171
-52,-82,-30,67,-11,-56,18,107,140,42,-61,-174
-54,-82,-28,68,-13,-55,20,107,141,31,-67,-178
-54,-82,-28,68,-13,-55,23,107,141,24,-75,-183
-47,-81,-34,64,-6,-57,24,105,137,23,-84,-187
-39,-81,-42,60,1,-61,23,102,128,24,-94,-189
-40,-85,-45,62,2,-65,25,100,117,20,-104,-191
-46,-91,-45,68,0,-68,28,101,111,14,-114,-194
-49,-91,-42,70,-3,-66,30,105,120,15,-122,-196
-48,-88,-40,68,-4,-64,29,107,134,22,-125,-199
-47,-83,-36,65,-5,-59,25,102,135,27,-124,-203
-47,-79,-32,63,-7,-55,20,93,127,28,-122,-207
-48,-75,-27,61,-10,-51,16,89,125,29,-123,-211
-48,-73,-25,60,-11,-49,14,91,126,29,-128,-213
-48,-72,-24,60,-12,-48,12,95,122,28,-138,-216
-48,-73,-25,60,-11,-49,12,100,113,25,-148,-218
-47,-72,-25,59,-11,-48,19,105,108,18,-155,-219
-47,-69,-22,58,-12,-45,31,110,109,14,-156,-219
-49,-63,-14,56,-17,-38,40,115,122,17,-153,-219
-52,-58,-6,55,-23,-32,43,120,131,23,-151,-219
-54,-56,-2,55,-26,-29,35,126,119,21,-152,-217
-53,-57,-4,55,-24,-30,22,130,93,9,-161,-214
-49,-58,-9,53,-20,-33,12,129,71,-14,-177,-213
-44,-61,-17,52,-13,-39,9,123,59,-38,-195,-213
-40,-68,-28,54,-6,-48,10,117,54,-49,-210,-215
-41,-76,-35,58,-3,-55,13,109,53,-51,-221,-218
-49,-79,-30,64,-9,-54,14,98,52,-58,-230,-221
-60,-78,-18,69,-21,-48,14,88,52,-67,-237,-223
-66,-76,-10,71,-28,-43,12,84,55,-66,-240,-222
-68,-76,-8,72,-30,-42,10,86,58,-56,-239,-219
-67,-84,-17,75,-25,-50,5,90,53,-42,-236,-217
-67,-91,-24,79,-21,-57,0,95,42,-33,-234,-214
-68,-86,-18,77,-25,-52,0,101,28,-41,-235,-211
-68,-75,-7,71,-30,-41,0,109,16,-61,-238,-205
-67,-70,-3,68,-32,-36,0,121,8,-85,-239,-198
-67,-72,-5,69,-31,-38,-3,130,2,-103,-238,-191
-71,-73,-2,72,-34,-37,-6,124,-7,-112,-240,-185
-79,-73,6,76,-42,-33,-8,106,-17,-112,-243,-181
-88,-73,15,80,-51,-29,-10,90,-21,-110,-242,-176
-92,-73,19,82,-55,-27,-12,76,-26,-110,-239,-171
-85,-71,14,78,-49,-28,-19,62,-40,-118,-238,-165
-71,-68,3,69,-37,-32,-27,50,-58,-129,-238,-158
-59,-66,-7,62,-26,-36,-31,42,-71,-132,-238,-148
-53,-63,-10,58,-21,-36,-33,39,-79,-131,-235,-138
-52,-60,-8,56,-22,-34,-35,39,-88,-132,-227,-129
-52,-58,-6,55,-23,-32,-38,39,-96,-135,-213,-120
-52,-57,-5,54,-23,-31,-39,34,-97,-135,-195,-106
-49,-57,-8,53,-20,-32,-39,25,-96,-132,-178,-94
-42,-59,-17,50,-12,-38,-38,21,-102,-128,-167,-88
-31,-62,-31,46,0,-46,-38,22,-110,-123,-158,-87
-21,-64,-43,42,11,-53,-39,28,-112,-117,-146,-84
-14,-64,-50,39,18,-57,-42,30,-111,-112,-133,-76
-16,-58,-42,37,13,-50,-46,20,-116,-112,-127,-62
-22,-49,-27,35,2,-38,-51,3,-124,-115,-123,-50
-25,-44,-19,34,-3,-31,-55,-7,-128,-119,-114,-44
-24,-43,-19,33,-2,-31,-57,-13,-126,-122,-100,-43
-21,-42,-21,31,0,-31,-58,-16,-123,-120,-89,-38
-19,-40,-21,29,1,-30,-58,-18,-118,-114,-80,-30
-18,-33,-15,25,-1,-24,-56,-19,-111,-104,-68,-24
-18,-25,-7,21,-5,-16,-53,-19,-103,-94,-55,-20
-18,-20,-2,19,-8,-11,-51,-18,-100,-87,-47,-15
-15,-19,-4,17,-5,-11,-52,-18,-101,-86,-44,-10
-7,-18,-11,12,2,-14,-55,-21,-103,-91,-39,-5
0,-15,-15,7,7,-15,-58,-27,-103,-96,-31,-1
-3,-8,-5,5,1,-6,-53,-31,-95,-94,-21,4
-15,-3,12,9,-13,4,-42,-30,-84,-82,-8,12
-27,-8,19,17,-23,5,-28,-20,-76,-62,8,18
-33,-17,16,25,-24,0,-16,-6,-70,-42,25,23
-31,-20,11,25,-21,-4,-10,0,-59,-34,36,26
-25,-19,6,22,-15,-6,-8,2,-46,-34,42,28
-22,-20,2,21,-12,-9,-9,8,-33,-30,44,31
-23,-23,0,23,-11,-11,-9,14,-25,-21,43,33
-24,-23,1,23,-12,-11,-7,9,-23,-9,41,34
-23,-23,0,23,-11,-11,-4,3,-24,4,41,33
-24,-29,-5,26,-9,-17,-3,9,-21,20,48,35
-24,-38,-14,31,-5,-26,-3,21,-18,29,56,35
-21,-37,-16,29,-2,-26,-5,26,-22,20,58,27
-18,-27,-9,22,-4,-18,-8,21,-28,0,54,12
-21,-14,7,17,-14,-3,-11,11,-27,-13,48,0
-24,-4,20,14,-22,8,-13,2,-20,-18,43,-8
-19,-6,13,12,-16,3,-12,-4,-15,-19,41,-7
-7,-16,-9,11,1,-12,-9,-8,-13,-15,39,-1
5,-26,-31,10,18,-28,-8,-10,-14,-7,37,1
16,-32,-48,8,32,-40,-12,-12,-14,2,34,0
23,-35,-58,6,40,-46,-19,-18,-9,6,31,-1
28,-34,-62,3,45,-48,-24,-26,-1,4,26,-3
30,-30,-60,0,45,-45,-20,-36,1,1,15,-4
30,-25,-55,-2,42,-40,-11,-43,2,0,5,-4
23,-21,-44,-1,33,-32,-5,-36,10,4,6,-1
12,-19,-31,3,21,-25,-4,-16,24,15,16,0
1,-16,-17,7,9,-16,-3,12,40,29,25,-2
-3,-14,-11,8,4,-12,-3,35,51,41,32,-7
0,-14,-14,7,7,-14,-3,39,51,44,36,-10
7,-17,-24,5,15,-20,-3,30,41,43,41,-9
12,-21,-33,4,22,-27,-4,28,31,43,49,-8
17,-23,-40,3,28,-31,-7,29,24,43,57,-8
26,-23,-49,-1,37,-36,-15,23,23,37,55,-9
39,-20,-59,-9,49,-39,-26,11,24,26,45,-9
51,-14,-65,-18,58,-39,-34,4,22,18,37,-7
57,-9,-66,-24,61,-37,-38,0,19,14,30,-7
54,-10,-64,-22,59,-37,-39,-3,17,15,22,-14
45,-17,-62,-14,53,-39,-35,-8,18,18,15,-22
36,-23,-59,-6,47,-41,-28,-10,22,19,12,-25
33,-25,-58,-4,45,-41,-20,-9,28,19,13,-24
39,-17,-56,-11,47,-36,-17,-6,29,19,14,-24
50,-9,-59,-20,54,-34,-18,-1,29,22,13,-27
58,-12,-70,-23,64,-41,-17,3,29,30,14,-34
59,-21,-80,-19,69,-50,-14,7,29,38,14,-39
52,-27,-79,-12,65,-53,-12,12,27,35,12,-35
41,-28,-69,-6,55,-48,-13,17,24,26,9,-25
33,-32,-65,0,49,-48,-17,20,23,21,8,-21
29,-37,-66,4,47,-51,-23,19,23,23,9,-22
26,-40,-66,7,46,-53,-23,15,25,26,7,-28
24,-39,-63,7,43,-51,-20,13,28,28,2,-36
22,-36,-58,7,40,-47,-16,19,31,29,-6,-46
23,-30,-53,3,38,-41,-14,21,33,29,-13,-56
27,-24,-51,-1,39,-37,-13,3,34,28,-12,-59
32,-16,-48,-8,40,-32,-14,-23,34,28,-5,-58
35,-5,-40,-15,37,-22,-13,-32,33,28,0,-57
34,-1,-35,-16,34,-18,-10,-19,33,25,3,-58
33,-19,-52,-7,42,-35,-5,3,34,16,3,-56
33,-47,-80,7,56,-63,0,28,34,6,0,-53
35,-58,-93,11,64,-75,1,44,32,0,0,-52
38,-54,-92,8,65,-73,0,45,30,0,0,-53
39,-51,-90,6,64,-70,-1,30,25,-1,0,-52
39,-49,-88,5,63,-68,-6,12,20,-3,0,-52
38,-42,-80,2,59,-61,-16,7,16,-3,0,-56
38,-35,-73,-1,55,-54,-23,12,14,-3,0,-62
39,-34,-73,-2,56,-53,-19,15,13,-5,0,-63
39,-40,-79,0,59,-59,-7,11,16,-5,0,-59
37,-50,-87,6,62,-68,3,1,27,4,0,-53
40,-57,-97,8,68,-77,8,-4,40,13,0,-48
54,-56,-110,1,82,-83,6,2,45,7,-1,-49
74,-53,-127,-10,100,-90,-1,12,43,-6,-3,-56
83,-56,-139,-13,111,-97,-9,10,41,-9,-5,-62
82,-62,-144,-10,113,-103,-13,0,40,-1,-8,-66
81,-61,-142,-10,111,-101,-12,-9,34,2,-11,-70
81,-54,-135,-13,108,-94,-9,-13,26,1,-13,-72
82,-49,-131,-16,106,-90,-8,-14,18,-3,-14,-73
79,-45,-124,-17,101,-84,-8,-14,10,-8,-14,-73
71,-34,-105,-18,88,-69,-8,-13,5,-9,-12,-73
60,-22,-82,-19,71,-52,-8,-13,0,-6,-9,-73
54,-13,-67,-20,60,-40,-11,-15,-2,2,-6,-71
53,-9,-62,-22,57,-35,-14,-14,-3,12,-4,-68
52,-7,-59,-22,55,-33,-11,-8,-3,15,-3,-66
52,-4,-56,-24,54,-30,-3,4,-1,13,-1,-63
54,-2,-56,-26,55,-29,8,22,3,16,3,-60
57,0,-57,-28,57,-28,17,37,8,19,8,-58
59,0,-59,-29,59,-29,19,36,9,14,8,-57
62,0,-62,-31,62,-31,15,23,9,3,5,-57
64,0,-64,-32,64,-32,11,8,8,-9,1,-58
67,0,-67,-33,67,-33,9,0,9,-18,0,-57
70,0,-70,-35,70,-35,9,6,8,-17,0,-58
72,0,-72,-36,72,-36,9,20,8,-10,0,-58
73,2,-71,-37,72,-34,7,28,10,-5,0,-56
73,7,-66,-40,69,-29,4,32,13,-1,0,-53
72,12,-60,-42,66,-24,3,40,14,3,0,-52
72,17,-55,-44,63,-19,3,47,17,7,0,-49
73,24,-49,-48,61,-12,3,44,25,11,0,-41
73,32,-41,-52,57,-4,3,36,33,16,2,-31
69,35,-34,-52,51,0,4,31,30,25,8,-25
64,34,-30,-49,47,2,4,29,21,33,13,-24
61,33,-28,-47,44,2,0,24,16,32,10,-22
59,34,-25,-46,42,4,-6,16,15,26,4,-19
52,32,-20,-42,36,6,-14,10,8,19,5,-17
41,26,-15,-33,28,5,-21,8,1,18,15,-14
34,15,-19,-24,26,-2,-29,11,0,22,29,-11
33,5,-28,-19,30,-11,-37,11,3,28,41,-9
38,4,-34,-21,36,-15,-42,-1,3,27,43,-10
46,11,-35,-28,40,-12,-46,-23,0,21,39,-13
49,20,-29,-34,39,-4,-52,-40,0,12,38,-13
48,27,-21,-37,34,3,-60,-50,0,5,35,-13
47,32,-15,-39,31,8,-67,-57,0,2,25,-16
47,37,-10,-42,28,13,-72,-62,0,3,8,-22
49,43,-6,-46,27,18,-73,-64,1,7,-6,-26
52,47,-5,-49,28,21,-72,-63,1,12,-13,-25
53,45,-8,-49,30,18,-75,-59,-5,15,-10,-17
55,39,-16,-47,35,11,-80,-53,-15,11,0,-6
66,39,-27,-52,46,6,-83,-53,-26,0,10,2
79,42,-37,-60,58,2,-82,-53,-32,-12,17,7
86,43,-43,-64,64,0,-79,-48,-35,-12,21,11
90,43,-47,-66,68,-2,-74,-43,-34,-5,23,13
98,42,-56,-70,77,-7,-68,-47,-33,-2,23,14
109,42,-67,-75,88,-12,-63,-56,-33,-3,23,14
114,43,-71,-78,92,-14,-62,-59,-33,-3,27,13
113,46,-67,-79,90,-10,-66,-54,-30,1,33,13
108,53,-55,-80,81,-1,-72,-48,-23,11,34,15
103,58,-45,-80,74,6,-77,-41,-15,21,33,18
99,52,-47,-75,73,2,-75,-32,-12,26,37,19
94,38,-56,-66,75,-9,-66,-22,-13,28,45,18
83,23,-60,-53,71,-18,-52,-9,-14,31,54,20
70,11,-59,-40,64,-24,-37,1,-14,34,58,20
63,5,-58,-34,60,-26,-28,5,-12,29,52,11
62,4,-58,-33,60,-27,-24,2,-12,14,35,-4
63,2,-61,-32,62,-29,-23,-5,-18,-6,11,-18
63,0,-63,-31,63,-31,-24,-12,-24,-23,-7,-27
60,-1,-61,-29,60,-31,-22,-14,-19,-16,-2,-30
54,-3,-57,-25,55,-30,-20,-10,-7,9,21,-29
50,-6,-56,-22,53,-31,-16,-5,2,40,46,-26
48,-8,-56,-20,52,-32,-14,-1,8,61,61,-24
47,-8,-55,-19,51,-31,-14,2,9,57,60,-23
48,-4,-52,-22,50,-28,-17,0,8,36,47,-24
47,-2,-49,-22,48,-25,-21,-16,9,12,31,-22
47,0,-47,-23,47,-23,-23,-35,9,-2,20,-19
51,1,-50,-26,50,-24,-24,-39,4,-3,21,-18
60,3,-57,-31,58,-27,-23,-31,-5,2,30,-18
69,5,-64,-37,66,-29,-24,-24,-16,3,40,-19
73,8,-65,-40,69,-28,-24,-20,-20,2,46,-19
68,11,-57,-39,62,-23,-19,-15,-9,10,50,-18
56,17,-39,-36,47,-11,-11,-10,15,24,52,-18
44,23,-21,-33,32,1,-4,-6,44,36,53,-19
35,28,-7,-31,21,10,0,-4,65,42,53,-19
30,27,-3,-28,16,12,0,-3,64,41,50,-18
29,21,-8,-25,18,6,0,-3,45,35,44,-18
28,14,-14,-21,21,0,0,-4,24,29,39,-19
28,9,-19,-18,23,-5,0,-4,10,24,35,-19
29,8,-21,-18,25,-6,0,-2,10,23,31,-17
29,8,-21,-18,25,-6,0,2,20,23,29,-14
27,10,-17,-18,22,-3,0,8,30,23,27,-12
24,9,-15,-16,19,-3,0,13,34,23,28,-9
23,4,-19,-13,21,-7,0,11,27,25,32,-6
24,-2,-26,-11,25,-14,0,2,13,28,37,-4
22,-5,-27,-8,24,-16,0,-6,0,28,41,-3
19,-4,-23,-7,21,-13,3,-9,-8,28,42,-4
17,-2,-19,-7,18,-10,6,-2,-6,31,44,-2
14,0,-14,-7,14,-7,9,13,1,37,47,0
12,0,-12,-6,12,-6,7,30,7,41,50,0
12,0,-12,-6,12,-6,4,44,12,42,52,0
18,-2,-20,-8,19,-11,5,55,20,43,53,-1
26,-7,-33,-9,29,-20,11,65,33,42,53,-3
32,-11,-43,-10,37,-27,18,74,52,43,50,-3
33,-13,-46,-10,39,-29,23,79,66,43,45,-3
34,-13,-47,-10,40,-30,22,70,65,40,36,-6
34,-13,-47,-10,40,-30,19,55,55,35,23,-15
32,-18,-50,-7,41,-34,18,51,52,29,5,-28
33,-27,-60,-3,46,-43,22,62,59,24,-17,-46
38,-30,-68,-4,53,-49,28,84,72,24,-38,-68
46,-29,-75,-8,60,-52,36,110,87,24,-60,-94
50,-28,-78,-11,64,-53,43,127,103,20,-86,-119
49,-25,-74,-12,61,-49,47,128,118,17,-105,-138
43,-18,-61,-12,52,-39,45,114,127,27,-100,-139
38,-7,-45,-15,41,-26,37,92,133,49,-67,-117
43,3,-40,-23,41,-18,24,76,144,80,-10,-73
60,17,-43,-38,51,-13,4,68,158,120,63,-11
87,42,-45,-64,66,-1,-29,68,164,177,144,60
117,76,-41,-96,79,17,-68,71,171,252,233,140
143,112,-31,-127,87,40,-95,75,189,342,336,224
170,151,-19,-160,94,66,-115,71,213,433,445,316
207,198,-9,-202,108,94,-141,52,226,503,548,418
251,251,0,-251,125,125,-177,7,212,544,644,533
286,308,22,-297,132,165,-221,-79,154,557,741,659
316,376,60,-346,128,218,-274,-221,33,544,856,804
352,461,109,-406,121,285,-336,-432,-167,508,1004,978
390,562,172,-476,109,367,-407,-682,-408,470,1188,1179
416,671,255,-543,80,463,-478,-913,-623,455,1394,1397
424,767,343,-595,40,555,-535,-1100,-808,432,1581,1604
416,824,408,-620,4,616,-555,-1232,-989,343,1692,1760
399,834,435,-616,-18,634,-540,-1315,-1156,209,1721,1838
385,801,416,-593,-15,608,-501,-1359,-1282,91,1687,1823
362,744,382,-553,-10,563,-447,-1380,-1363,-21,1607,1750
310,690,380,-500,-35,535,-384,-1392,-1409,-176,1492,1678
228,646,418,-437,-95,532,-317,-1390,-1422,-357,1344,1610
129,604,475,-366,-173,539,-250,-1360,-1400,-510,1161,1515
26,549,523,-287,-248,536,-182,-1292,-1348,-616,956,1366
-68,462,530,-197,-299,496,-108,-1182,-1272,-676,749,1144
-143,354,497,-105,-320,425,-34,-1058,-1189,-711,542,883
-190,254,444,-32,-317,349,28,-956,-1115,-750,328,637
-217,166,383,25,-300,274,87,-859,-1035,-776,107,394
-239,82,321,78,-280,201,155,-725,-921,-749,-116,105
-261,8,269,126,-265,138,216,-578,-794,-686,-315,-176
-278,-37,241,157,-259,102,240,-479,-699,-633,-454,-347
-275,-58,217,166,-246,79,233,-429,-631,-590,-518,-403
-236,-72,164,154,-200,46,220,-396,-555,-533,-505,-394
-174,-83,91,128,-132,4,206,-359,-470,-461,-448,-358
-118,-92,26,105,-72,-33,179,-309,-386,-388,-391,-320
-80,-90,-10,85,-35,-50,145,-245,-304,-315,-342,-284
-61,-72,-11,66,-25,-41,118,-172,-216,-238,-285,-245
-57,-45,12,51,-34,-16,101,-100,-130,-168,-228,-208
-60,-28,32,44,-46,2,87,-46,-62,-121,-189,-187
-60,-23,37,41,-48,7,75,-9,-15,-94,-166,-177
-46,-26,20,36,-33,-3,69,19,16,-70,-147,-167
-24,-32,-8,28,-8,-20,67,42,40,-45,-130,-157
-10,-35,-25,22,7,-30,69,56,66,-24,-118,-154
-4,-35,-31,19,13,-33,72,64,94,-6,-110,-153
-2,-30,-28,16,13,-29,71,77,117,14,-98,-142
0,-22,-22,11,11,-22,68,96,132,36,-80,-125
0,-11,-11,5,5,-11,67,114,139,57,-55,-116
0,-4,-4,2,2,-4,67,128,137,71,-36,-116
0,-7,-7,3,3,-7,67,132,130,71,-38,-118
3,-20,-23,8,13,-21,64,131,120,58,-59,-121
6,-31,-37,12,21,-34,59,132,111,40,-84,-123
8,-38,-46,15,27,-42,54,138,106,26,-100,-125
8,-38,-46,15,27,-42,50,145,110,23,-97,-127
2,-34,-36,16,19,-35,48,150,121,30,-79,-127
-8,-33,-25,20,8,-29,48,151,136,41,-59,-121
-17,-34,-17,25,0,-25,48,150,148,50,-45,-113
-17,-32,-15,24,-1,-23,45,152,153,55,-39,-110
-10,-29,-19,19,4,-24,40,155,151,57,-38,-111
-9,-28,-19,18,5,-23,37,156,150,58,-38,-112
-13,-28,-15,20,1,-21,38,155,150,58,-38,-112
-12,-29,-17,20,2,-23,39,157,150,54,-39,-112
-5,-29,-24,17,9,-26,39,162,150,45,-42,-112
0,-27,-27,13,13,-27,37,170,152,37,-44,-111
2,-24,-26,11,14,-25,34,175,155,33,-47,-111
6,-23,-29,8,17,-26,31,170,156,36,-50,-113
11,-23,-34,6,22,-28,29,159,156,45,-55,-119
19,-24,-43,2,31,-33,28,148,156,54,-62,-128
24,-24,-48,0,36,-36,28,142,156,61,-67,-135
19,-22,-41,1,30,-31,30,140,154,65,-65,-134
5,-19,-24,7,14,-21,36,140,151,67,-56,-128
-10,-18,-8,14,-1,-13,46,140,149,68,-46,-122
-22,-18,4,20,-13,-7,55,140,146,68,-39,-117
-23,-20,3,21,-13,-8,59,144,144,66,-39,-115
-16,-23,-7,19,-4,-15,58,153,141,66,-42,-112
-9,-26,-17,17,4,-21,57,161,138,73,-43,-110
-5,-28,-23,16,9,-25,57,165,136,81,-43,-107
-1,-29,-28,15,13,-28,59,159,135,76,-43,-106
2,-29,-31,13,16,-30,62,145,136,62,-46,-106
6,-29,-35,11,20,-32,63,131,135,50,-51,-109
8,-29,-37,10,22,-33,63,124,135,47,-56,-111
7,-27,-34,10,20,-30,62,134,138,53,-60,-110
4,-24,-28,10,16,-26,62,152,144,64,-62,-107
2,-23,-25,10,13,-24,63,157,148,73,-64,-107
0,-23,-23,11,11,-23,63,152,150,77,-67,-111
-1,-23,-22,12,10,-22,62,149,151,77,-68,-112
-3,-23,-20,13,8,-21,62,150,154,74,-67,-112
-4,-25,-21,14,8,-23,63,152,161,71,-68,-111
-7,-27,-20,17,6,-23,63,151,171,71,-68,-111
-14,-31,-17,22,1,-24,62,147,182,77,-65,-112
-25,-33,-8,29,-8,-20,62,141,192,88,-59,-112
-35,-34,1,34,-18,-16,66,142,200,99,-54,-110
-42,-33,9,37,-25,-12,72,148,204,106,-49,-108
-42,-35,7,38,-24,-14,70,156,200,105,-45,-104
-39,-37,2,38,-20,-17,64,163,192,102,-43,-102
-39,-41,-2,40,-18,-21,61,165,185,103,-41,-103
-42,-42,0,42,-21,-21,62,162,180,107,-41,-109
-42,-42,0,42,-21,-21,63,157,178,103,-47,-117
-39,-42,-3,40,-18,-22,63,152,176,94,-55,-124
-37,-46,-9,41,-14,-27,62,149,171,87,-60,-127
-38,-52,-14,45,-12,-33,63,147,166,82,-62,-126
-42,-52,-10,47,-16,-31,62,140,164,80,-64,-126
-46,-49,-3,47,-21,-26,62,132,165,78,-64,-126
-48,-46,2,47,-25,-22,64,130,163,77,-58,-123
-48,-44,4,46,-26,-20,67,134,161,77,-50,-118
-48,-38,10,43,-29,-14,69,140,162,79,-44,-116
-48,-28,20,38,-34,-4,72,144,167,84,-43,-116
-45,-14,31,29,-38,8,74,147,174,95,-42,-116
-43,-4,39,23,-41,17,77,146,179,105,-42,-116
-44,-7,37,25,-40,15,78,144,180,104,-44,-118
-50,-19,31,34,-40,6,78,141,180,95,-47,-121
-57,-33,24,45,-40,-4,77,138,179,87,-49,-123
-62,-42,20,52,-41,-11,77,136,179,83,-51,-125
-62,-41,21,51,-41,-10,78,136,180,79,-57,-127
-56,-32,24,44,-40,-4,78,136,180,74,-65,-130
-43,-21,22,32,-32,0,76,133,176,69,-72,-131
-30,-14,16,22,-23,1,73,131,167,63,-76,-130
-30,-16,14,23,-22,-1,73,133,159,62,-79,-132
-37,-22,15,29,-26,-3,77,141,158,65,-84,-135
-39,-25,14,32,-26,-5,79,155,170,73,-94,-137
-38,-24,14,31,-26,-5,78,168,184,81,-104,-140
-41,-23,18,32,-29,-2,75,169,178,79,-107,-143
-49,-23,26,36,-37,1,69,162,160,70,-103,-145
-59,-24,35,41,-47,5,65,159,150,63,-99,-146
-67,-23,44,45,-55,10,63,160,147,58,-99,-145
-66,-24,42,45,-54,9,62,162,140,57,-109,-147
-60,-24,36,42,-48,6,62,164,129,54,-125,-150
-53,-22,31,37,-42,4,65,164,120,47,-140,-150
-49,-20,29,34,-39,4,71,161,119,36,-152,-150
-46,-16,30,31,-38,7,75,159,130,29,-162,-154
-47,-14,33,30,-40,9,74,159,140,25,-172,-162
-50,-15,35,32,-42,10,68,164,134,21,-180,-169
-53,-18,35,35,-44,8,59,169,116,16,-187,-173
-49,-20,29,34,-39,4,56,168,108,8,-195,-177
-38,-22,16,30,-27,-3,57,162,110,0,-205,-182
-23,-28,-5,25,-9,-16,59,158,113,0,-215,-190
-13,-37,-24,25,5,-30,62,156,113,3,-223,-195
-22,-40,-18,31,-2,-29,64,154,108,1,-222,-191
-45,-39,6,42,-25,-16,67,151,102,-6,-216,-179
-65,-37,28,51,-46,-4,69,151,102,-12,-210,-165
-76,-37,39,56,-57,1,68,154,103,-13,-208,-153
-76,-44,32,60,-54,-6,64,160,96,-14,-210,-147
-70,-52,18,61,-44,-17,59,164,82,-17,-212,-146
-63,-48,15,55,-39,-16,57,162,68,-24,-216,-144
-59,-36,23,47,-41,-6,57,153,56,-34,-218,-141
-55,-31,24,43,-39,-3,57,146,48,-47,-219,-139
-53,-33,20,43,-36,-6,54,141,41,-59,-218,-136
-52,-34,18,43,-35,-8,50,140,32,-68,-219,-134
-52,-34,18,43,-35,-8,48,138,21,-72,-219,-131
-53,-34,19,43,-36,-7,47,126,14,-71,-215,-128
-53,-34,19,43,-36,-7,44,102,7,-71,-209,-123
-49,-32,17,40,-33,-7,38,66,-5,-80,-209,-117
-44,-29,15,36,-29,-7,30,34,-19,-94,-209,-109
-41,-27,14,34,-27,-6,26,28,-29,-96,-203,-100
-42,-24,18,33,-30,-3,24,45,-36,-89,-190,-90
-43,-22,21,32,-32,0,22,68,-46,-83,-173,-79
-43,-19,24,31,-33,2,19,84,-56,-82,-156,-67
-41,-17,24,29,-32,3,17,86,-58,-81,-141,-53
-36,-14,22,25,-29,4,14,76,-57,-82,-129,-41
-28,-13,15,20,-21,1,12,66,-62,-81,-119,-37
-21,-13,8,17,-14,-2,9,60,-70,-81,-110,-39
-15,-14,1,14,-8,-6,7,53,-75,-82,-100,-36
-14,-14,0,14,-7,-7,4,46,-79,-82,-93,-27
-14,-10,4,12,-9,-3,2,35,-90,-80,-90,-14
-14,-5,9,9,-11,2,0,25,-104,-78,-88,-2
-11,-2,9,6,-10,3,0,22,-106,-77,-80,2
-5,-3,2,4,-3,0,0,23,-99,-77,-66,3
-2,-4,-2,3,0,-3,0,23,-92,-77,-57,7
0,-4,-4,2,2,-4,0,20,-88,-74,-50,16
1,-1,-2,0,1,-1,0,17,-83,-67,-40,23
3,2,-1,-2,2,0,-2,18,-75,-56,-27,27
2,5,3,-3,0,4,-7,22,-67,-46,-19,30
0,4,4,-2,-2,4,-13,27,-63,-40,-15,33
0,1,1,0,0,1,-14,30,-65,-37,-10,35
2,0,-2,-1,2,-1,-10,26,-71,-38,-5,38
5,1,-4,-3,4,-1,-5,16,-72,-40,-3,40
8,4,-4,-6,6,0,-1,5,-69,-40,-3,42
10,0,-10,-5,10,-5,1,3,-66,-35,-4,42
12,-7,-19,-2,15,-13,3,8,-63,-29,-4,39
17,-7,-24,-5,20,-15,6,8,-60,-30,-3,37
23,-1,-24,-11,23,-12,8,4,-55,-33,-3,35
23,2,-21,-12,22,-9,7,3,-48,-30,-4,31
20,3,-17,-11,18,-7,1,4,-43,-22,-7,26
16,4,-12,-10,14,-4,-2,3,-43,-14,-11,19
14,5,-9,-9,11,-2,-4,2,-43,-9,-14,14
12,0,-12,-6,12,-6,-2,8,-38,-8,-10,13
9,-7,-16,-1,12,-11,2,14,-28,-8,-2,14
7,-10,-17,1,12,-13,8,9,-15,-10,3,12
5,-9,-14,2,9,-11,13,-1,-3,-10,4,9
1,-7,-8,3,4,-7,14,-6,4,-3,2,7
-2,-4,-2,3,0,-3,13,-2,5,6,0,8
-6,-3,3,4,-4,0,17,5,-1,11,0,12
-8,-3,5,5,-6,1,22,15,-11,12,0,17
-8,-3,5,5,-6,1,23,24,-16,20,1,20
-5,-3,2,4,-3,0,17,31,-15,31,3,19
0,-4,-4,2,2,-4,6,37,-9,36,4,17
7,-4,-11,-1,9,-7,-2,42,-1,35,4,14
10,0,-10,-5,10,-5,-1,43,2,31,2,14
9,6,-3,-7,6,1,6,43,3,29,0,17
6,11,5,-8,0,8,12,41,6,28,0,21
4,13,9,-8,-2,11,13,41,11,28,3,24
4,14,10,-9,-3,12,15,47,18,29,4,20
7,14,7,-10,0,10,17,55,23,32,4,15
12,13,1,-12,5,7,21,61,24,37,3,14
17,10,-7,-13,12,1,23,65,23,44,3,17
19,5,-14,-12,16,-4,23,75,25,54,5,19
19,-1,-20,-9,19,-10,19,85,31,61,8,19
19,-10,-29,-4,24,-19,17,85,39,61,9,18
19,-17,-36,-1,27,-26,18,79,46,55,8,18
16,-18,-34,1,25,-26,21,77,49,48,9,20
13,-11,-24,-1,18,-17,24,78,48,44,9,20
16,-4,-20,-6,18,-12,20,76,47,41,5,14
28,2,-26,-15,27,-12,11,70,47,39,-2,6
47,6,-41,-26,44,-17,6,63,50,37,-5,1
70,11,-59,-40,64,-24,4,55,56,35,-4,0
89,20,-69,-54,79,-24,2,48,59,31,-3,0
100,28,-72,-64,86,-22,0,41,58,28,-3,0
102,26,-76,-64,89,-25,0,34,55,32,-6,-1
98,17,-81,-57,89,-32,3,26,50,38,-11,-3
95,9,-86,-52,90,-38,5,18,42,35,-19,-4
96,5,-91,-50,93,-43,5,10,35,26,-27,-7
98,0,-98,-49,98,-49,0,6,32,21,-30,-13
101,-7,-108,-47,104,-57,-6,7,33,22,-29,-21
102,-10,-112,-46,107,-61,-11,13,35,26,-28,-26
102,-10,-112,-46,107,-61,-13,23,38,28,-28,-28
101,-6,-107,-47,104,-56,-14,39,40,29,-29,-32
101,-1,-102,-50,101,-51,-14,49,42,28,-29,-37
105,1,-104,-53,104,-51,-14,36,43,29,-27,-39
111,0,-111,-55,111,-55,-14,13,43,29,-24,-39
110,-2,-112,-54,111,-57,-13,9,39,26,-23,-39
104,-12,-116,-46,110,-64,-10,23,32,18,-23,-39
97,-35,-132,-31,114,-83,-5,37,22,4,-25,-37
92,-56,-148,-18,120,-102,-1,43,14,-6,-28,-34
92,-51,-143,-20,117,-97,0,37,15,-8,-29,-33
95,-29,-124,-33,109,-76,0,21,21,-2,-29,-33
98,-20,-118,-39,108,-69,0,-1,27,2,-29,-33
97,-23,-120,-37,108,-71,0,-18,29,3,-29,-33
94,-20,-114,-37,104,-67,0,-11,28,4,-27,-36
88,-8,-96,-40,92,-52,2,14,25,4,-24,-41
83,3,-80,-43,81,-38,7,40,22,2,-22,-45
79,6,-73,-42,76,-33,13,53,22,1,-20,-47
76,-6,-82,-35,79,-44,13,45,29,11,-16,-48
79,-27,-106,-26,92,-66,10,28,40,23,-10,-47
89,-40,-129,-24,109,-84,8,21,45,18,-5,-48
100,-43,-143,-28,121,-93,8,24,43,3,-1,-48
100,-42,-142,-29,121,-92,9,19,41,0,2,-45
93,-42,-135,-25,114,-88,9,7,39,10,7,-40
90,-43,-133,-23,111,-88,8,0,37,18,11,-36
91,-43,-134,-24,112,-88,8,2,38,19,13,-34
91,-40,-131,-25,111,-85,9,7,42,15,13,-33
88,-33,-121,-27,104,-77,9,12,47,9,13,-33
84,-18,-102,-33,93,-60,6,15,46,9,15,-34
79,-3,-82,-38,80,-42,1,14,43,13,18,-34
74,2,-72,-38,73,-35,0,11,45,14,19,-32
69,0,-69,-34,69,-34,2,3,53,13,18,-29
64,0,-64,-32,64,-32,7,-8,65,15,20,-28
59,0,-59,-29,59,-29,12,-18,73,18,23,-29
57,0,-57,-28,57,-28,16,-14,67,19,25,-28
57,-2,-59,-27,58,-30,21,2,49,19,27,-25
58,-6,-64,-26,61,-35,29,21,31,18,31,-21
58,-9,-67,-24,62,-38,36,35,19,18,37,-19
55,-6,-61,-24,58,-33,41,41,22,21,42,-18
50,0,-50,-25,50,-25,42,39,34,26,46,-18
44,9,-35,-26,39,-13,44,38,46,32,50,-19
39,17,-22,-28,30,-2,47,38,55,37,56,-19
38,20,-18,-29,28,1,48,40,60,40,61,-18
38,19,-19,-28,28,0,48,42,62,42,66,-15
39,16,-23,-27,31,-3,47,42,65,43,68,-10
39,14,-25,-26,32,-5,47,42,70,43,68,-2
39,14,-25,-26,32,-5,49,44,77,43,68,5
39,14,-25,-26,32,-5,52,47,82,43,71,12
38,10,-28,-24,33,-9,54,46,78,42,76,16
38,4,-34,-21,36,-15,53,41,70,42,81,18
41,5,-36,-23,38,-15,50,33,66,43,81,20
46,14,-32,-30,39,-9,42,23,64,44,79,22
48,26,-22,-37,35,2,31,8,56,38,75,25
45,34,-11,-39,28,11,21,-8,44,30,73,28
38,28,-10,-33,24,9,16,-23,44,27,72,29
30,14,-16,-22,23,-1,17,-35,51,31,73,29
27,1,-26,-14,26,-12,23,-45,53,40,72,27
28,-3,-31,-12,29,-17,29,-51,49,47,69,24
29,-3,-32,-13,30,-17,23,-53,44,44,65,23
29,0,-29,-14,29,-14,6,-52,40,33,59,24
27,0,-27,-13,27,-13,-10,-55,37,21,55,23
24,0,-24,-12,24,-12,-21,-61,38,14,52,23
24,0,-24,-12,24,-12,-24,-63,41,17,55,27
27,0,-27,-13,27,-13,-23,-59,46,29,60,36
31,0,-31,-15,31,-15,-26,-54,50,40,66,43
35,-1,-36,-17,35,-18,-32,-52,53,44,68,47
46,4,-42,-25,44,-19,-35,-57,50,36,65,48
59,12,-47,-35,53,-17,-34,-63,45,25,59,47
67,15,-52,-41,59,-18,-33,-57,39,25,56,49
73,14,-59,-43,66,-22,-33,-43,35,32,54,52
90,13,-77,-51,83,-32,-35,-32,32,33,49,53
114,14,-100,-64,107,-43,-38,-25,30,27,44,53
132,12,-120,-72,126,-54,-38,-20,26,18,42,53
140,9,-131,-74,135,-61,-34,-17,24,14,43,53
140,8,-132,-74,136,-62,-33,-24,25,16,40,51
136,8,-128,-72,132,-60,-33,-37,28,22,32,45
136,8,-128,-72,132,-60,-35,-50,28,26,23,37
137,8,-129,-72,133,-60,-35,-57,25,27,18,30
131,10,-121,-70,126,-55,-29,-55,20,32,21,28
120,13,-107,-66,113,-47,-21,-46,15,39,30,29
113,12,-101,-62,107,-44,-15,-37,13,48,39,25
111,6,-105,-58,108,-49,-14,-28,13,53,43,16
113,0,-113,-56,113,-56,-14,-15,14,47,39,11
116,-6,-122,-55,119,-64,-14,0,13,33,31,9
117,-12,-129,-52,123,-70,-13,10,14,21,27,5
116,-17,-133,-49,124,-75,-10,11,17,15,28,-1
118,-22,-140,-48,129,-81,-6,0,22,13,27,-8
120,-27,-147,-46,133,-87,-1,-15,30,13,24,-12
123,-30,-153,-46,138,-91,1,-20,39,14,23,-14
125,-29,-154,-48,139,-91,3,-18,46,14,24,-14
126,-26,-152,-50,139,-89,4,-22,47,13,22,-13
126,-21,-147,-52,136,-84,4,-31,42,13,19,-13
126,-15,-141,-55,133,-78,4,-37,32,15,18,-15
126,-10,-136,-58,131,-73,4,-38,22,15,18,-18
124,-8,-132,-58,128,-70,3,-39,13,8,20,-19
122,-8,-130,-57,126,-69,3,-39,6,-1,22,-19
121,-9,-130,-56,125,-69,5,-37,0,-5,26,-19
122,-12,-134,-55,128,-73,8,-34,-1,-4,32,-19
121,-19,-140,-51,130,-79,9,-34,4,-3,36,-17
118,-30,-148,-44,133,-89,9,-37,15,-3,41,-15
113,-40,-153,-36,133,-96,9,-40,23,-4,46,-12
108,-46,-154,-31,131,-100,9,-42,27,-4,51,-9
105,-48,-153,-28,129,-100,7,-43,31,-3,55,-8
106,-48,-154,-29,130,-101,2,-43,36,-4,57,-8
108,-48,-156,-30,132,-102,-3,-42,43,-3,58,-9
111,-48,-159,-31,135,-103,-8,-42,48,-3,58,-8
112,-45,-157,-33,134,-101,-9,-44,44,-4,57,-9
112,-42,-154,-35,133,-98,-9,-46,33,-4,57,-9
111,-45,-156,-33,133,-100,-9,-50,22,-2,60,-7
111,-51,-162,-30,136,-106,-9,-52,15,0,66,-4
113,-54,-167,-29,140,-110,-7,-52,14,0,69,-3
119,-53,-172,-33,145,-112,-4,-49,17,0,68,-3
126,-50,-176,-38,151,-113,-2,-46,20,1,66,-4
131,-48,-179,-41,155,-113,-2,-47,22,3,63,-4
126,-49,-175,-38,150,-112,-7,-50,26,4,62,-3
112,-55,-167,-28,139,-111,-12,-52,31,3,62,-1
99,-63,-162,-18,130,-112,-14,-51,38,4,64,2
92,-71,-163,-10,127,-117,-14,-48,42,4,64,4
95,-74,-169,-10,132,-121,-13,-49,40,0,57,0
106,-73,-179,-16,142,-126,-14,-54,29,-9,46,-9
121,-72,-193,-24,157,-132,-13,-64,12,-22,38,-22
130,-72,-202,-29,166,-137,-10,-69,0,-32,32,-35
127,-73,-200,-27,163,-136,-4,-60,7,-32,21,-43
115,-70,-185,-22,150,-127,5,-38,32,-23,8,-50
108,-60,-168,-24,138,-114,15,-13,59,-10,-2,-59
107,-49,-156,-29,131,-102,25,10,83,1,-10,-75
104,-50,-154,-27,129,-102,36,32,104,6,-21,-94
96,-59,-155,-18,125,-107,45,46,119,7,-32,-109
84,-66,-150,-9,117,-108,49,44,121,14,-32,-110
76,-65,-141,-5,108,-103,46,30,114,30,-15,-90
86,-57,-143,-14,114,-100,35,15,109,55,22,-49
113,-42,-155,-35,134,-98,14,5,109,90,80,11
149,-17,-166,-66,157,-91,-18,3,118,140,156,90
187,15,-172,-101,179,-78,-55,7,138,208,248,182
218,52,-166,-135,192,-57,-84,11,177,296,357,281
245,94,-151,-169,198,-28,-107,11,222,386,471,384
282,143,-139,-212,210,2,-135,0,243,448,574,492
325,197,-128,-261,226,34,-173,-37,226,475,666,607
364,256,-108,-310,236,74,-219,-122,162,475,766,734
400,323,-77,-361,238,123,-271,-261,42,450,880,883
438,402,-36,-420,237,183,-328,-447,-141,398,1011,1063
473,494,21,-483,226,257,-387,-653,-357,343,1167,1278
492,594,102,-543,195,348,-444,-838,-550,325,1355,1519
494,685,191,-589,151,438,-490,-987,-714,314,1537,1749
484,743,259,-613,112,501,-511,-1103,-879,239,1647,1910
468,757,289,-612,89,523,-505,-1185,-1037,100,1666,1979
453,728,275,-590,89,501,-476,-1225,-1157,-50,1614,1955
429,673,244,-551,92,458,-427,-1233,-1230,-189,1521,1873
376,622,246,-499,65,434,-361,-1233,-1269,-317,1419,1786
294,582,288,-438,3,435,-282,-1226,-1274,-431,1305,1701
193,550,357,-371,-82,453,-204,-1201,-1245,-522,1153,1588
89,509,420,-299,-165,464,-129,-1149,-1187,-592,966,1424
-2,440,442,-219,-222,441,-57,-1064,-1113,-645,769,1194
-75,344,419,-134,-247,381,10,-960,-1037,-687,566,921
-125,245,370,-60,-247,307,71,-862,-967,-724,352,654
-158,148,306,5,-232,227,134,-761,-892,-741,130,394
-188,52,240,68,-214,146,209,-630,-790,-710,-86,113
-213,-30,183,121,-198,76,279,-493,-678,-646,-277,-148
-222,-78,144,150,-183,33,309,-408,-602,-593,-413,-309
-210,-97,113,153,-161,8,302,-374,-555,-553,-478,-365
-175,-110,65,142,-120,-22,289,-350,-495,-501,-468,-365
-131,-122,9,126,-70,-56,275,-317,-416,-435,-409,-339
-99,-129,-30,114,-34,-79,249,-273,-334,-365,-349,-301
-79,-123,-44,101,-17,-83,213,-218,-254,-295,-297,-260
-60,-99,-39,79,-10,-69,179,-153,-173,-220,-242,-217
-40,-67,-27,53,-6,-47,151,-91,-97,-151,-187,-179
-25,-49,-24,37,0,-36,124,-52,-39,-107,-147,-159
-14,-49,-35,31,10,-42,99,-31,1,-87,-123,-152
2,-59,-61,28,31,-60,82,-8,32,-72,-106,-146
22,-70,-92,24,57,-81,74,19,58,-55,-91,-138
35,-74,-109,19,72,-91,72,41,83,-35,-81,-134
41,-73,-114,16,77,-93,73,52,105,-15,-77,-133
47,-72,-119,12,83,-95,71,49,119,-1,-79,-124
55,-73,-128,9,91,-100,68,42,125,6,-82,-111
61,-71,-132,5,96,-101,67,51,124,11,-77,-103
66,-68,-134,1,100,-101,68,75,118,16,-67,-101
70,-67,-137,-1,103,-102,67,104,114,23,-57,-102
72,-67,-139,-2,105,-103,64,126,115,31,-53,-102
71,-68,-139,-1,105,-103,61,134,121,36,-53,-102
68,-68,-136,0,102,-102,58,132,132,38,-53,-102
67,-66,-133,0,100,-99,57,130,141,39,-50,-101
67,-63,-130,-2,98,-96,57,130,148,41,-45,-99
68,-62,-130,-3,99,-96,58,130,156,45,-39,-92
67,-63,-130,-2,98,-96,57,130,166,51,-35,-84
68,-61,-129,-3,98,-95,58,132,175,55,-31,-80
68,-58,-126,-5,97,-92,58,135,180,57,-29,-81
67,-57,-124,-5,95,-90,57,136,177,59,-28,-83
66,-57,-123,-4,94,-90,54,135,168,62,-28,-85
71,-59,-130,-6,100,-94,49,136,160,64,-28,-88
79,-62,-141,-8,110,-101,43,136,156,67,-28,-91
83,-63,-146,-10,114,-104,44,132,157,69,-30,-92
82,-63,-145,-9,113,-104,50,122,160,72,-32,-92
80,-63,-143,-8,111,-103,55,108,160,73,-35,-90
78,-63,-141,-7,109,-102,57,97,156,73,-37,-87
76,-61,-137,-7,106,-99,58,101,155,71,-41,-86
73,-56,-129,-8,101,-92,58,115,155,68,-45,-86
72,-46,-118,-13,95,-82,57,130,155,67,-51,-87
72,-39,-111,-16,91,-75,57,139,155,67,-56,-87
72,-42,-114,-15,93,-78,60,141,157,68,-58,-86
72,-56,-128,-8,100,-92,66,141,162,68,-57,-86
73,-74,-147,0,110,-110,69,141,168,66,-59,-86
73,-88,-161,7,117,-124,68,144,173,65,-62,-86
69,-93,-162,12,115,-127,66,147,175,75,-62,-87
61,-89,-150,14,105,-119,63,146,175,92,-59,-87
53,-83,-136,15,94,-109,62,143,174,100,-55,-86
48,-78,-126,15,87,-102,62,138,174,99,-53,-86
49,-77,-126,14,87,-101,63,133,174,93,-54,-88
55,-78,-133,11,94,-105,63,133,174,88,-57,-91
60,-76,-136,8,98,-106,62,143,175,86,-58,-91
63,-73,-136,5,99,-104,62,155,178,86,-58,-91
61,-72,-133,5,97,-102,63,150,183,87,-57,-94
58,-72,-130,7,94,-101,63,133,191,87,-57,-100
57,-72,-129,7,93,-100,62,117,200,85,-58,-103
57,-72,-129,7,93,-100,62,111,207,82,-58,-102
58,-74,-132,8,95,-103,63,115,209,81,-56,-101
58,-77,-135,9,96,-106,63,123,206,81,-54,-101
56,-78,-134,11,95,-106,62,128,199,83,-51,-102
54,-78,-132,12,93,-105,61,130,189,85,-48,-102
51,-76,-127,12,89,-101,66,133,176,89,-47,-100
51,-73,-124,11,87,-98,72,139,158,92,-48,-97
55,-72,-127,8,91,-99,71,142,138,89,-47,-96
61,-72,-133,5,97,-102,64,141,123,83,-44,-96
63,-73,-136,5,99,-104,61,138,125,80,-39,-99
63,-73,-136,5,99,-104,62,136,143,78,-35,-104
63,-72,-135,4,99,-103,62,137,162,76,-33,-110
66,-72,-138,3,102,-105,59,140,173,73,-34,-115
69,-75,-144,3,106,-109,54,140,172,72,-31,-117
69,-80,-149,5,109,-114,49,137,165,72,-26,-117
63,-82,-145,9,104,-113,45,135,167,74,-20,-117
55,-82,-137,13,96,-109,43,135,176,76,-16,-117
50,-81,-131,15,90,-106,42,136,182,79,-9,-115
48,-81,-129,16,88,-105,43,136,181,81,-2,-112
46,-82,-128,18,87,-105,41,133,177,81,2,-112
46,-82,-128,18,87,-105,39,127,171,78,4,-115
54,-81,-135,13,94,-108,38,125,167,77,3,-120
70,-81,-151,5,110,-116,38,125,163,75,-1,-127
88,-82,-170,-3,129,-126,39,125,157,64,-9,-138
100,-82,-182,-9,141,-132,38,123,151,48,-18,-149
100,-81,-181,-9,140,-131,39,118,152,37,-16,-150
91,-81,-172,-5,131,-126,41,110,158,34,-7,-143
80,-82,-162,1,121,-122,46,102,165,33,0,-137
73,-82,-155,4,114,-118,51,97,169,33,0,-135
73,-81,-154,4,113,-117,53,97,168,35,-1,-136
75,-81,-156,3,115,-118,52,100,160,38,-3,-139
65,-84,-149,9,107,-116,53,104,148,38,-4,-142
51,-90,-141,19,96,-115,56,109,140,34,-6,-145
48,-93,-141,22,94,-117,59,116,148,33,-14,-147
58,-92,-150,17,104,-121,58,124,165,34,-25,-149
69,-90,-159,10,114,-124,55,126,172,32,-31,-153
76,-88,-164,6,120,-126,49,123,167,29,-33,-159
80,-85,-165,2,122,-125,45,120,162,28,-36,-163
84,-82,-166,-1,125,-124,43,120,158,28,-43,-168
91,-81,-172,-5,131,-126,42,124,149,29,-55,-173
96,-81,-177,-7,136,-129,42,129,135,26,-68,-178
94,-82,-176,-6,135,-129,44,131,125,18,-78,-180
86,-82,-168,-2,127,-125,47,131,123,7,-85,-180
76,-80,-156,2,116,-118,48,130,132,1,-89,-180
66,-78,-144,6,105,-111,45,130,141,2,-91,-180
56,-77,-133,10,94,-105,38,132,134,7,-92,-178
46,-77,-123,15,84,-100,31,132,114,10,-94,-175
37,-78,-115,20,76,-96,27,125,98,3,-103,-174
33,-80,-113,23,73,-96,28,114,89,-9,-116,-174
37,-84,-121,23,79,-102,30,112,82,-18,-129,-175
45,-87,-132,21,88,-109,33,118,75,-22,-138,-174
48,-84,-132,18,90,-108,34,125,68,-27,-143,-175
44,-79,-123,17,83,-101,34,127,63,-35,-147,-175
40,-78,-118,19,79,-98,33,122,63,-43,-158,-173
39,-86,-125,23,82,-105,30,114,64,-50,-173,-171
38,-103,-141,32,89,-122,25,109,57,-56,-188,-168
38,-119,-157,40,97,-138,20,107,44,-60,-200,-165
38,-119,-157,40,97,-138,18,105,31,-66,-207,-163
38,-106,-144,34,91,-125,19,102,21,-74,-209,-162
39,-99,-138,30,88,-118,17,101,16,-84,-208,-158
39,-101,-140,31,89,-120,15,102,11,-93,-208,-153
37,-101,-138,32,87,-119,13,100,3,-100,-210,-145
35,-98,-133,31,84,-115,13,97,-6,-102,-213,-135
32,-95,-127,31,79,-111,15,97,-11,-100,-212,-124
32,-92,-124,30,78,-108,15,95,-15,-99,-209,-114
37,-90,-127,26,82,-108,10,81,-27,-109,-210,-109
45,-88,-133,21,89,-110,2,57,-46,-125,-216,-107
50,-85,-135,17,92,-110,-1,35,-61,-136,-221,-104
52,-82,-134,15,93,-108,-2,21,-70,-139,-224,-99
52,-82,-134,15,93,-108,-7,18,-76,-143,-222,-92
52,-84,-136,16,94,-110,-15,19,-78,-149,-217,-82
53,-90,-143,18,98,-116,-23,15,-74,-151,-208,-69
56,-96,-152,20,104,-124,-28,7,-68,-151,-198,-56
59,-95,-154,18,106,-124,-29,0,-70,-150,-190,-49
62,-86,-148,12,105,-117,-28,0,-79,-150,-183,-48
63,-75,-138,6,100,-106,-30,0,-82,-151,-174,-46
63,-65,-128,1,95,-96,-33,1,-81,-151,-164,-38
62,-60,-122,-1,92,-91,-34,-3,-85,-149,-156,-24
62,-61,-123,0,92,-92,-34,-11,-94,-147,-149,-8
65,-65,-130,0,97,-97,-32,-15,-97,-144,-138,0
70,-70,-140,0,105,-105,-29,-14,-96,-142,-123,2
75,-76,-151,0,113,-113,-27,-14,-99,-137,-108,8
80,-80,-160,0,120,-120,-25,-18,-108,-130,-93,19
84,-83,-167,0,125,-125,-21,-19,-116,-119,-75,29
87,-83,-170,-2,128,-126,-15,-19,-121,-106,-58,37
84,-78,-162,-3,123,-120,-12,-19,-120,-96,-48,40
79,-67,-146,-6,112,-106,-13,-21,-114,-88,-44,42
76,-55,-131,-10,103,-93,-15,-29,-109,-85,-39,44
77,-45,-122,-16,99,-83,-18,-37,-104,-85,-32,47
78,-41,-119,-18,98,-80,-19,-37,-97,-89,-24,48
77,-47,-124,-15,100,-85,-19,-26,-89,-92,-17,48
78,-64,-142,-7,110,-103,-17,-4,-84,-88,-7,46
80,-83,-163,1,121,-123,-14,18,-80,-80,4,43
85,-85,-170,0,127,-127,-13,25,-73,-75,16,42
90,-73,-163,-8,126,-118,-13,17,-62,-74,25,42
92,-61,-153,-15,122,-107,-15,10,-52,-69,32,43
92,-54,-146,-19,119,-100,-18,6,-44,-61,34,43
91,-51,-142,-20,116,-96,-18,-1,-42,-52,33,42
91,-51,-142,-20,116,-96,-15,-11,-42,-45,33,42
91,-57,-148,-17,119,-102,-13,-13,-42,-40,36,43
91,-65,-156,-13,123,-110,-13,-7,-40,-39,44,43
92,-69,-161,-11,126,-115,-14,0,-37,-38,52,42
92,-69,-161,-11,126,-115,-13,7,-32,-33,60,39
89,-66,-155,-11,122,-110,-14,10,-20,-19,66,38
83,-63,-146,-10,114,-104,-14,9,-4,-3,71,38
80,-62,-142,-9,111,-102,-11,8,4,0,74,41
78,-62,-140,-8,109,-101,-6,8,4,-6,77,46
77,-62,-139,-7,108,-100,-2,10,3,-9,79,49
77,-62,-139,-7,108,-100,-2,13,2,-5,81,49
80,-63,-143,-8,111,-103,-7,14,6,-2,82,45
85,-63,-148,-11,116,-105,-13,14,12,-3,82,40
88,-60,-148,-14,118,-104,-11,14,14,-5,79,36
87,-54,-141,-16,114,-97,-3,14,13,-8,74,34
85,-51,-136,-17,110,-93,2,12,15,-9,71,34
82,-48,-130,-17,106,-89,4,9,21,-9,68,35
81,-46,-127,-17,104,-86,3,10,27,-8,66,30
81,-43,-124,-19,102,-83,3,16,32,-5,64,21
81,-43,-124,-19,102,-83,4,21,34,-1,61,17
79,-46,-125,-16,102,-85,4,25,34,5,58,18
74,-49,-123,-12,98,-86,3,35,33,14,57,19
68,-51,-119,-8,93,-85,0,45,33,22,57,19
69,-54,-123,-7,96,-88,-1,47,35,22,57,17
76,-57,-133,-9,104,-95,-1,41,38,16,57,14
78,-58,-136,-10,107,-97,3,38,39,12,58,13
77,-58,-135,-9,106,-96,8,39,39,12,59,10
80,-56,-136,-12,108,-96,7,36,39,15,54,5
87,-54,-141,-16,114,-97,1,31,41,18,45,-1
98,-50,-148,-24,123,-99,-1,26,46,19,41,-5
109,-46,-155,-31,132,-100,0,27,55,18,42,-4
113,-37,-150,-38,131,-93,0,33,61,20,43,-2
110,-29,-139,-40,124,-84,2,43,65,25,43,0
101,-31,-132,-35,116,-81,6,55,71,35,43,0
90,-39,-129,-25,109,-84,12,65,77,46,43,0
82,-46,-128,-18,105,-87,15,69,77,46,42,2
78,-50,-128,-14,103,-89,15,69,74,37,39,7
77,-57,-134,-10,105,-95,11,65,72,31,38,8
78,-65,-143,-6,110,-104,5,60,72,32,38,5
76,-70,-146,-3,111,-108,3,53,72,35,39,2
74,-69,-143,-2,108,-106,3,48,69,38,39,1
72,-64,-136,-4,104,-100,4,49,65,38,37,-2
72,-59,-131,-6,101,-95,4,51,62,38,34,-7
74,-57,-131,-8,102,-94,3,37,66,41,33,-10
77,-57,-134,-10,105,-95,3,14,76,49,33,-12
77,-57,-134,-10,105,-95,4,9,89,57,33,-15
74,-59,-133,-7,103,-96,7,24,99,62,33,-18
71,-71,-142,0,106,-106,12,47,103,60,34,-18
68,-85,-153,8,110,-119,17,66,102,54,37,-14
67,-82,-149,7,108,-115,20,79,101,53,41,-13
67,-67,-134,0,100,-100,19,78,98,57,46,-13
67,-62,-129,-2,98,-95,18,59,92,57,48,-13
67,-70,-137,1,102,-103,15,29,84,53,48,-13
68,-74,-142,3,105,-108,10,8,79,53,47,-16
68,-73,-141,2,104,-107,5,1,75,53,47,-21
65,-73,-138,4,101,-105,3,10,68,49,48,-26
57,-78,-135,10,96,-106,4,27,60,43,48,-28
47,-87,-134,20,90,-110,3,40,57,46,47,-29
42,-96,-138,27,90,-117,0,48,60,53,47,-30
48,-94,-142,23,95,-118,0,60,67,47,50,-26
60,-85,-145,12,102,-115,2,71,74,32,58,-17
62,-80,-142,9,102,-111,6,70,82,28,68,-8
55,-81,-136,13,95,-108,12,58,86,35,76,-1
51,-82,-133,15,92,-107,16,48,85,41,77,0
52,-81,-133,14,92,-107,18,43,77,40,74,-3
52,-82,-134,15,93,-108,19,42,67,35,72,-4
49,-82,-131,16,90,-106,19,41,59,30,72,-3
45,-79,-124,17,84,-101,17,45,59,28,72,-5
43,-74,-117,15,80,-95,11,53,65,28,69,-11
43,-73,-116,15,79,-94,4,64,71,29,64,-18
46,-76,-122,15,84,-99,-2,72,73,31,59,-23
50,-79,-129,14,89,-104,-5,69,71,39,56,-21
56,-81,-137,12,96,-109,-4,58,68,50,54,-15
60,-82,-142,11,101,-112,-2,46,69,52,49,-13
62,-82,-144,10,103,-113,0,39,72,45,41,-14
63,-79,-142,8,102,-110,1,40,70,40,37,-11
62,-75,-137,6,99,-106,3,41,61,39,37,-5
63,-70,-133,3,98,-101,3,31,53,37,41,-2
63,-68,-131,2,97,-99,3,16,48,31,46,-3
61,-67,-128,3,94,-97,5,17,48,25,48,-4
56,-65,-121,4,88,-93,11,37,54,22,47,-4
47,-57,-104,5,75,-80,17,60,64,28,49,-1
40,-46,-86,3,63,-66,23,75,75,39,52,2
39,-40,-79,0,59,-59,23,75,79,45,53,4
45,-41,-86,-2,65,-63,20,63,78,44,52,4
51,-43,-94,-4,72,-68,18,51,78,41,53,4
56,-43,-99,-6,77,-71,18,43,80,41,56,7
58,-40,-98,-9,78,-69,20,44,83,45,59,11
58,-35,-93,-11,75,-64,22,53,85,53,61,16
57,-31,-88,-13,72,-59,25,65,89,65,65,22
57,-29,-86,-14,71,-57,28,75,95,75,67,28
59,-28,-87,-15,73,-57,29,77,97,77,66,27
61,-28,-89,-16,75,-58,29,71,97,71,61,22
64,-29,-93,-17,78,-61,28,63,96,63,53,14
67,-29,-96,-19,81,-62,29,58,96,58,48,9
68,-27,-95,-20,81,-61,28,57,97,58,50,9
68,-25,-93,-21,80,-59,28,60,100,61,59,12
66,-22,-88,-22,77,-55,30,66,104,66,65,16
64,-20,-84,-22,74,-52,32,74,108,71,67,21
61,-17,-78,-22,69,-47,35,81,117,74,68,28
59,-14,-73,-22,66,-43,37,88,124,78,71,36
54,-13,-67,-20,60,-40,40,97,124,88,76,40
49,-13,-62,-18,55,-37,43,105,119,99,81,39
47,-14,-61,-16,54,-37,40,105,115,102,81,38
48,-14,-62,-17,55,-38,33,97,114,96,75,38
45,-13,-58,-16,51,-35,23,83,106,84,69,38
38,-12,-50,-13,44,-31,12,69,95,72,63,38
27,-17,-44,-5,35,-30,4,55,90,64,63,40
17,-25,-42,4,29,-33,0,43,92,62,66,42
10,-32,-42,11,26,-37,0,33,89,64,68,43
8,-34,-42,13,25,-38,1,25,81,67,68,43
11,-32,-43,10,27,-37,-4,23,73,67,66,43
20,-29,-49,4,34,-39,-17,24,69,64,64,43
28,-28,-56,0,42,-42,-31,22,67,62,62,42
34,-28,-62,-3,48,-45,-40,16,67,62,62,42
30,-28,-58,-1,44,-43,-43,10,68,64,65,45
19,-28,-47,4,33,-37,-42,5,68,67,70,50
6,-29,-35,11,20,-32,-45,2,66,68,75,55
0,-30,-30,15,15,-30,-51,-1,63,66,78,57
4,-26,-30,11,17,-28,-54,-8,62,56,76,57
18,-20,-38,1,28,-29,-53,-14,62,45,73,57
29,-19,-48,-5,38,-33,-52,-9,62,43,72,59
35,-22,-57,-6,46,-39,-53,3,62,50,72,62
45,-24,-69,-10,57,-46,-52,14,64,54,72,63
58,-23,-81,-17,69,-52,-50,18,70,53,72,63
65,-25,-90,-20,77,-57,-44,19,76,52,75,62
64,-28,-92,-18,78,-60,-36,19,80,52,80,62
59,-29,-88,-15,73,-58,-31,18,82,55,83,64
54,-29,-83,-12,68,-56,-29,18,80,60,85,67
51,-29,-80,-11,65,-54,-28,21,73,64,89,68
50,-29,-79,-10,64,-54,-26,27,65,67,95,67
43,-28,-71,-7,57,-49,-20,30,61,69,97,68
32,-28,-60,-2,46,-44,-11,29,61,71,97,69
26,-31,-57,2,41,-44,-6,28,65,74,96,64
24,-39,-63,7,43,-51,-4,30,71,74,94,55
23,-47,-70,12,46,-58,-3,40,74,70,87,51
20,-55,-75,17,47,-65,-4,53,76,64,76,49
16,-60,-76,22,46,-68,-3,61,80,61,70,44
10,-65,-75,27,42,-70,-1,60,84,62,68,36
7,-71,-78,32,42,-74,2,54,89,64,66,32
4,-79,-83,37,43,-81,7,51,94,66,63,32
2,-84,-86,41,44,-85,10,59,100,69,62,36
0,-86,-86,43,43,-86,12,74,105,71,62,41
0,-87,-87,43,43,-87,16,78,108,75,63,45
0,-86,-86,43,43,-86,21,70,108,82,66,47
0,-87,-87,43,43,-87,27,66,104,93,71,48
0,-87,-87,43,43,-87,33,67,99,101,77,48
0,-85,-85,42,42,-85,32,68,93,97,76,47
0,-83,-83,41,41,-83,26,67,88,83,70,47
0,-81,-81,40,40,-81,21,69,85,73,65,48
3,-81,-84,39,43,-82,19,72,85,72,63,48
4,-83,-87,39,45,-85,18,73,89,73,61,46
4,-86,-90,41,47,-88,18,73,95,73,59,44
3,-87,-90,42,46,-88,19,72,97,72,56,41
1,-86,-87,42,44,-86,18,72,97,72,53,39
-3,-88,-85,45,41,-86,19,73,96,72,52,38
-10,-94,-84,52,37,-89,19,73,96,72,53,38
-18,-100,-82,59,32,-91,18,72,97,73,51,39
-24,-106,-82,65,29,-94,18,72,97,73,49,39
-20,-106,-86,63,33,-96,20,73,95,72,46,38
-9,-105,-96,57,43,-100,22,73,93,72,46,38
2,-111,-113,54,57,-112,25,72,91,74,50,40
11,-120,-131,54,71,-125,27,72,91,77,55,42
15,-121,-136,53,75,-128,30,74,93,78,60,43
14,-112,-126,49,70,-119,32,77,95,77,62,43
13,-100,-113,43,63,-106,35,78,98,79,63,43
14,-89,-103,37,58,-96,35,78,101,81,63,43
13,-85,-98,36,55,-91,30,77,102,81,62,42
12,-85,-97,36,54,-91,22,77,102,76,62,40
16,-88,-104,36,60,-96,16,80,101,68,63,37
22,-91,-113,34,67,-102,14,85,101,63,63,34
23,-92,-115,34,69,-103,13,88,103,65,62,34
17,-92,-109,37,63,-100,13,88,106,76,62,37
10,-90,-100,40,55,-95,14,84,106,89,64,40
5,-90,-95,42,50,-92,16,83,105,99,68,40
2,-95,-97,46,49,-96,22,96,112,102,65,34
2,-104,-106,51,54,-105,30,125,128,101,59,21
7,-108,-115,50,61,-111,38,161,145,104,57,4
16,-107,-123,45,69,-115,44,193,162,110,56,-14
20,-108,-128,44,74,-118,52,211,180,113,44,-36
20,-111,-131,45,75,-121,57,210,196,114,25,-54
17,-110,-127,46,72,-118,56,191,200,122,14,-57
16,-105,-121,44,68,-113,47,163,193,137,22,-41
25,-97,-122,36,73,-109,36,138,187,156,55,-8
45,-85,-130,20,87,-107,19,122,187,181,110,41
75,-64,-139,-5,107,-101,-8,111,195,216,182,105
108,-34,-142,-37,125,-88,-44,106,214,272,270,186
136,0,-136,-68,136,-68,-71,110,252,358,382,288
161,39,-122,-100,141,-41,-92,117,297,458,507,407
195,83,-112,-139,153,-14,-117,111,321,534,623,533
236,136,-100,-186,168,18,-152,78,308,571,726,662
270,193,-77,-231,173,58,-193,8,245,569,828,797
296,259,-37,-277,166,111,-240,-104,123,532,939,948
321,337,16,-329,152,176,-291,-263,-63,469,1069,1128
346,428,82,-387,132,255,-345,-448,-282,401,1224,1346
364,529,165,-446,99,347,-400,-628,-476,363,1405,1595
368,624,256,-496,56,440,-445,-784,-634,329,1577,1843
358,687,329,-522,14,508,-464,-907,-787,232,1677,2029
341,707,366,-524,-12,536,-457,-992,-939,72,1689,2120
333,683,350,-508,-8,516,-433,-1041,-1066,-93,1638,2105
326,633,307,-479,9,470,-396,-1065,-1159,-242,1550,2016
295,584,289,-439,3,436,-343,-1082,-1219,-385,1453,1920
229,546,317,-387,-44,431,-276,-1089,-1242,-511,1343,1829
133,510,377,-321,-122,443,-202,-1061,-1221,-596,1192,1706
23,460,437,-241,-207,448,-125,-988,-1164,-639,1002,1525
-77,379,456,-151,-266,417,-51,-872,-1089,-657,800,1279
-157,274,431,-58,-294,352,15,-744,-1012,-672,593,989
-211,177,388,17,-299,282,73,-652,-943,-701,371,701
-245,97,342,74,-293,219,128,-589,-872,-730,135,419
-273,21,294,126,-283,157,193,-502,-776,-717,-100,114
-298,-48,250,173,-274,101,258,-395,-666,-661,-309,-175
-314,-96,218,205,-266,61,289,-322,-583,-603,-457,-352
-317,-125,192,221,-254,33,287,-293,-528,-552,-528,-404
-299,-148,151,223,-225,1,277,-278,-462,-490,-526,-396
-267,-168,99,217,-183,-34,266,-258,-376,-415,-474,-364
-236,-180,56,208,-146,-62,244,-220,-287,-337,-406,-321
-208,-180,28,194,-118,-76,213,-165,-200,-260,-339,-274
-178,-163,15,170,-96,-74,184,-98,-111,-178,-265,-226
-149,-136,13,142,-81,-61,161,-35,-26,-100,-195,-183
-134,-117,17,125,-75,-50,138,3,32,-47,-146,-158
-129,-111,18,120,-73,-46,118,18,64,-19,-120,-149
-119,-114,5,116,-62,-54,107,31,81,3,-102,-140
-103,-119,-16,111,-43,-67,103,54,97,28,-85,-129
-92,-123,-31,107,-30,-77,99,88,121,51,-68,-122
-88,-125,-37,106,-25,-81,91,129,149,70,-53,-116
-84,-127,-43,105,-20,-85,80,163,171,85,-42,-102
-79,-130,-51,104,-14,-90,69,184,182,94,-36,-84
-77,-131,-54,104,-11,-92,69,192,185,99,-30,-74
-79,-130,-51,104,-14,-90,80,191,184,104,-25,-76
-85,-131,-46,108,-19,-88,93,188,186,111,-22,-79
-90,-134,-44,112,-23,-89,101,189,192,119,-22,-81
-92,-136,-44,114,-24,-90,98,191,198,123,-26,-83
-88,-136,-48,112,-20,-92,87,196,202,122,-32,-85
-84,-134,-50,109,-17,-92,76,203,205,121,-35,-88
-80,-131,-51,105,-14,-91,69,209,207,121,-34,-88
-74,-131,-57,102,-8,-94,67,206,210,122,-32,-83
-67,-134,-67,100,0,-100,67,195,213,122,-29,-75
-57,-136,-79,96,11,-107,68,183,213,120,-28,-71
-48,-136,-88,92,20,-112,67,175,210,117,-28,-71
-50,-135,-85,92,17,-110,68,176,208,118,-29,-74
-59,-135,-76,97,8,-105,68,185,208,123,-29,-76
-64,-137,-73,100,4,-105,66,195,209,129,-28,-79
-63,-140,-77,101,7,-108,63,202,211,134,-28,-81
-62,-141,-79,101,8,-110,64,204,217,137,-29,-82
-62,-141,-79,101,8,-110,70,204,226,140,-29,-82
-64,-140,-76,102,6,-108,75,203,231,141,-29,-80
-66,-140,-74,103,4,-107,77,204,233,141,-29,-78
-69,-141,-72,105,1,-106,78,203,235,140,-28,-77
-72,-141,-69,106,-1,-105,78,201,241,140,-28,-77
-73,-139,-66,106,-3,-102,77,197,247,142,-29,-78
-72,-137,-65,104,-3,-101,77,191,251,144,-29,-78
-73,-135,-62,104,-5,-98,80,189,253,146,-28,-77
-76,-135,-59,105,-8,-97,85,189,253,146,-28,-77
-79,-137,-58,108,-10,-97,88,190,253,144,-30,-78
-81,-139,-58,110,-11,-98,87,193,253,143,-32,-78
-82,-141,-59,111,-11,-100,86,198,251,152,-34,-76
-82,-141,-59,111,-11,-100,86,205,246,169,-34,-71
-81,-139,-58,110,-11,-98,88,211,240,178,-33,-63
-79,-136,-57,107,-11,-96,91,214,235,177,-33,-58
-74,-135,-61,104,-6,-98,90,212,232,171,-35,-60
-66,-136,-70,101,2,-103,85,212,233,166,-40,-69
-58,-134,-76,96,9,-105,78,219,235,164,-45,-76
-53,-131,-78,92,12,-104,74,230,238,164,-47,-80
-53,-132,-79,92,13,-105,72,234,239,165,-48,-84
-56,-137,-81,96,12,-109,72,230,239,165,-48,-90
-58,-144,-86,101,14,-115,72,230,238,164,-47,-92
-58,-149,-91,103,16,-120,72,236,237,162,-47,-92
-57,-152,-95,104,19,-123,74,240,242,159,-48,-91
-57,-155,-98,106,20,-126,79,240,250,156,-48,-91
-59,-156,-97,107,19,-126,84,235,254,155,-47,-92
-61,-156,-95,108,17,-125,89,230,254,155,-47,-92
-64,-153,-89,108,12,-121,95,229,251,157,-48,-90
-64,-148,-84,106,10,-116,101,232,248,157,-48,-88
-60,-143,-83,101,11,-113,100,234,247,152,-46,-86
-54,-141,-87,97,16,-114,94,231,247,143,-44,-86
-54,-140,-86,97,16,-113,91,224,248,140,-41,-88
-60,-141,-81,100,10,-111,91,213,248,143,-41,-94
-65,-140,-75,102,5,-107,91,204,247,148,-45,-100
-67,-140,-73,103,3,-106,88,200,246,150,-51,-105
-67,-143,-76,105,4,-109,86,201,240,151,-53,-107
-66,-149,-83,107,8,-116,86,209,234,150,-53,-107
-71,-151,-80,111,4,-115,88,220,236,151,-53,-107
-78,-150,-72,114,-3,-111,90,230,244,154,-53,-107
-84,-152,-68,118,-8,-110,93,236,250,158,-51,-105
-86,-158,-72,122,-7,-115,95,235,249,160,-48,-102
-87,-164,-77,125,-5,-120,98,231,245,159,-48,-102
-88,-168,-80,128,-4,-124,98,225,240,156,-50,-105
-84,-170,-86,127,1,-128,94,223,238,156,-56,-107
-76,-170,-94,123,9,-132,86,223,238,157,-63,-106
-69,-170,-101,119,16,-135,77,223,239,150,-73,-107
-64,-170,-106,117,21,-138,70,220,239,136,-83,-110
-60,-168,-108,114,24,-138,66,217,238,126,-88,-113
-55,-166,-111,110,28,-138,67,215,238,123,-90,-115
-49,-164,-115,106,33,-139,68,212,239,120,-95,-119
-43,-162,-119,102,38,-140,71,212,239,120,-103,-124
-45,-157,-112,101,33,-134,75,216,238,126,-108,-126
-57,-149,-92,103,17,-120,82,224,236,139,-108,-123
-83,-142,-59,112,-12,-100,92,233,231,151,-105,-120
-110,-140,-30,125,-40,-85,103,242,227,159,-104,-117
-117,-142,-25,129,-46,-83,109,255,233,162,-113,-117
-104,-148,-44,126,-30,-96,108,271,245,161,-129,-120
-89,-153,-64,121,-12,-108,104,283,246,159,-142,-124
-80,-156,-76,118,-2,-116,99,287,237,157,-148,-128
-76,-154,-78,115,1,-116,95,284,232,154,-153,-133
-77,-151,-74,114,-1,-112,92,276,234,152,-158,-138
-78,-151,-73,114,-2,-112,91,270,231,149,-165,-143
-78,-151,-73,114,-2,-112,91,268,223,144,-174,-148
-76,-148,-72,112,-2,-110,94,268,214,135,-185,-152
-73,-140,-67,106,-3,-103,99,268,212,125,-196,-155
-72,-130,-58,101,-7,-94,104,267,218,120,-203,-156
-72,-119,-47,95,-12,-83,104,266,228,122,-207,-159
-73,-115,-42,94,-15,-78,96,270,224,119,-211,-164
-70,-116,-46,93,-12,-81,83,276,207,107,-221,-173
-63,-117,-54,90,-4,-85,72,276,193,81,-239,-188
-54,-119,-65,86,5,-92,67,270,187,51,-261,-201
-54,-127,-73,90,9,-100,70,266,181,40,-271,-202
-68,-140,-72,104,2,-106,77,264,173,51,-267,-191
-91,-150,-59,120,-16,-104,85,260,166,64,-257,-178
-114,-155,-41,134,-36,-98,91,255,161,69,-248,-168
-124,-156,-32,140,-46,-94,91,251,161,63,-250,-163
-120,-160,-40,140,-40,-100,89,251,162,49,-262,-161
-113,-173,-60,143,-26,-116,84,256,157,36,-273,-159
-109,-188,-79,148,-15,-133,80,262,143,27,-280,-156
-103,-184,-81,143,-11,-132,75,259,126,19,-284,-155
-96,-161,-65,128,-15,-113,71,245,109,9,-286,-156
-87,-141,-54,114,-16,-97,63,232,94,-2,-287,-155
-79,-132,-53,105,-13,-92,55,222,83,-14,-286,-152
-77,-130,-53,103,-12,-91,52,215,71,-22,-287,-148
-80,-130,-50,105,-15,-90,55,210,61,-24,-287,-143
-83,-131,-48,107,-17,-89,60,207,55,-22,-284,-138
-83,-131,-48,107,-17,-89,63,203,51,-21,-279,-133
-79,-130,-51,104,-14,-90,60,194,42,-30,-277,-128
-74,-130,-56,102,-9,-93,51,180,29,-46,-277,-124
-72,-131,-59,101,-6,-95,45,170,19,-57,-277,-118
-72,-131,-59,101,-6,-95,43,165,15,-61,-275,-111
-73,-130,-57,101,-8,-93,41,164,11,-66,-270,-101
-73,-130,-57,101,-8,-93,39,163,8,-74,-262,-89
-72,-131,-59,101,-6,-95,38,157,12,-80,-251,-73
-69,-134,-65,101,-2,-99,39,146,18,-81,-239,-58
-65,-137,-72,101,3,-104,38,134,15,-81,-228,-49
-60,-139,-79,99,9,-109,35,122,1,-81,-218,-48
-55,-141,-86,98,15,-113,31,111,-8,-82,-207,-46
-53,-142,-89,97,18,-115,26,101,-11,-82,-195,-39
-53,-138,-85,95,16,-111,21,91,-17,-80,-184,-25
-53,-133,-80,93,13,-106,19,81,-26,-75,-172,-6
-50,-129,-79,89,14,-104,18,75,-30,-70,-155,5
-44,-130,-86,87,21,-108,18,74,-29,-65,-134,10
-43,-131,-88,87,22,-109,18,71,-28,-60,-118,19
-49,-131,-82,90,16,-106,18,65,-29,-56,-107,32
-57,-128,-71,92,7,-99,20,60,-27,-48,-94,45
-65,-123,-58,94,-3,-90,22,57,-24,-38,-78,55
-69,-120,-51,94,-9,-85,24,59,-24,-29,-68,58
-69,-121,-52,95,-8,-86,24,65,-26,-24,-64,55
-65,-123,-58,94,-3,-90,22,69,-31,-24,-59,50
-59,-123,-64,91,2,-93,19,69,-34,-27,-52,48
-57,-118,-61,87,2,-89,19,65,-31,-30,-43,48
-57,-112,-55,84,-1,-83,21,61,-22,-31,-34,51
-57,-114,-57,85,0,-85,26,67,-16,-24,-21,53
-55,-123,-68,89,6,-95,31,79,-11,-13,-6,52
-50,-126,-76,88,13,-101,36,80,-4,-5,5,53
-45,-123,-78,84,16,-100,38,69,7,0,12,56
-41,-121,-80,81,19,-100,39,56,20,9,15,59
-41,-121,-80,81,19,-100,38,46,31,23,15,62
-45,-121,-76,83,15,-98,39,40,35,33,12,63
-53,-120,-67,86,7,-93,42,39,34,37,9,63
-63,-125,-62,94,0,-93,43,49,34,39,10,63
-72,-133,-61,102,-5,-97,42,66,38,39,16,63
-70,-136,-66,103,-2,-101,43,76,38,37,21,62
-59,-133,-74,96,7,-103,46,76,37,37,23,59
-47,-128,-81,87,17,-104,49,68,42,43,23,56
-42,-123,-81,82,19,-102,51,59,52,54,23,56
-46,-121,-75,83,14,-98,55,59,63,60,25,61
-56,-121,-65,88,4,-93,60,67,70,61,31,69
-69,-122,-53,95,-8,-87,64,78,75,67,36,75
-77,-121,-44,99,-16,-82,65,88,79,77,40,78
-76,-122,-46,99,-15,-84,58,95,85,84,45,76
-70,-122,-52,96,-9,-87,50,102,93,86,51,74
-67,-119,-52,93,-7,-85,48,112,99,87,54,72
-68,-114,-46,91,-11,-80,54,121,101,87,54,72
-65,-111,-46,88,-9,-78,60,119,102,86,51,73
-57,-111,-54,84,-1,-82,62,107,102,86,45,71
-47,-112,-65,79,9,-88,62,97,101,87,40,62
-37,-111,-74,74,18,-92,62,95,101,90,35,51
-31,-112,-81,71,25,-96,64,99,103,94,32,46
-29,-115,-86,72,28,-100,66,109,109,102,32,47
-28,-118,-90,73,31,-104,68,126,114,112,35,48
-28,-120,-92,74,32,-106,68,142,120,120,38,48
-30,-123,-93,76,31,-108,67,145,123,120,37,47
-34,-125,-91,79,28,-108,66,139,125,111,32,47
-44,-126,-82,85,19,-104,70,134,125,103,25,48
-55,-126,-71,90,8,-98,76,136,125,101,20,49
-57,-125,-68,91,5,-96,76,134,127,103,18,44
-48,-123,-75,85,13,-99,70,128,131,105,20,37
-37,-120,-83,78,23,-101,66,124,141,107,28,32
-27,-115,-88,71,30,-101,67,125,152,107,39,32
-21,-107,-86,64,32,-96,68,126,157,107,44,35
-21,-98,-77,59,28,-87,67,126,156,109,43,38
-27,-98,-71,62,22,-84,69,125,156,116,42,39
-35,-107,-72,71,18,-89,72,124,156,124,43,38
-41,-115,-74,78,16,-94,73,129,154,124,41,39
-40,-119,-79,79,19,-99,70,140,148,115,36,40
-36,-125,-89,80,26,-107,64,150,143,110,31,35
-30,-133,-103,81,36,-118,55,155,141,110,29,27
-29,-137,-108,83,39,-122,51,154,140,113,29,21
-32,-137,-105,84,36,-121,52,150,140,116,29,20
-34,-133,-99,83,32,-116,53,154,141,117,27,16
-34,-127,-93,80,29,-110,53,159,141,117,25,11
-33,-125,-92,79,29,-108,52,144,141,116,23,8
-33,-126,-93,79,30,-109,52,113,141,117,23,8
-36,-125,-89,80,26,-107,53,97,140,116,24,8
-41,-126,-85,83,22,-105,55,104,140,114,24,8
-43,-140,-97,91,27,-118,60,119,141,108,22,10
-43,-163,-120,103,38,-141,66,129,144,99,20,12
-42,-171,-129,106,43,-150,68,129,147,95,18,14
-40,-164,-124,102,42,-144,68,119,147,96,18,14
-37,-161,-124,99,43,-142,68,103,143,96,19,14
-31,-166,-135,98,52,-150,68,89,138,96,19,14
-25,-171,-146,98,60,-158,66,88,134,98,18,12
-20,-171,-151,95,65,-161,63,97,132,101,18,7
-18,-168,-150,93,66,-159,62,104,128,100,19,0
-18,-165,-147,91,64,-156,63,104,122,99,18,-5
-19,-165,-146,92,63,-155,62,98,123,108,19,-12
-17,-166,-149,91,66,-157,59,92,128,121,19,-18
-9,-162,-153,85,72,-157,56,93,132,115,18,-17
1,-154,-155,76,78,-154,53,95,132,92,18,-12
3,-149,-152,73,77,-150,52,82,129,75,19,-5
-1,-149,-148,75,73,-148,52,60,126,74,19,-1
-5,-152,-147,78,71,-149,54,51,125,82,17,0
-4,-157,-153,80,74,-155,57,63,125,92,15,2
-4,-164,-160,84,78,-162,58,82,126,101,13,6
-6,-169,-163,87,78,-166,57,97,126,106,13,12
-11,-167,-156,89,72,-161,58,104,124,105,13,13
-16,-159,-143,87,63,-151,61,103,120,100,11,7
-20,-154,-134,87,57,-144,63,101,112,93,6,0
-20,-155,-135,87,57,-145,63,101,103,90,0,-3
-16,-156,-140,86,62,-148,62,102,103,96,1,-3
-11,-153,-142,82,65,-147,61,101,111,108,6,1
-7,-147,-140,77,66,-143,65,102,122,111,10,6
-5,-139,-134,72,64,-136,71,104,129,105,9,8
-2,-132,-130,67,64,-131,72,110,130,100,7,8
4,-128,-132,62,68,-130,66,117,127,100,5,5
15,-123,-138,54,76,-130,60,126,125,103,2,2
26,-118,-144,46,85,-131,57,133,125,106,0,0
27,-116,-143,44,85,-129,60,138,127,107,1,1
15,-116,-131,50,73,-123,68,143,129,107,6,6
3,-117,-120,57,61,-118,77,148,132,105,11,12
-5,-116,-111,60,53,-113,84,154,134,105,15,17
-12,-117,-105,64,46,-111,88,156,138,111,23,19
-18,-117,-99,67,40,-108,88,155,143,122,31,19
-18,-116,-98,67,40,-107,85,157,147,127,35,17
-15,-113,-98,64,41,-105,82,162,150,126,34,15
-14,-110,-96,62,41,-103,81,167,151,127,34,13
-15,-108,-93,61,39,-100,81,172,154,131,34,12
-10,-105,-95,57,42,-100,81,177,158,128,31,15
-1,-102,-101,51,50,-101,81,179,161,119,25,19
8,-101,-109,46,58,-105,82,179,158,117,24,16
17,-101,-118,42,67,-109,82,176,149,121,28,8
32,-102,-134,35,83,-118,79,173,144,119,27,0
46,-102,-148,28,97,-125,72,167,143,107,18,-7
43,-101,-144,29,93,-122,63,150,136,97,10,-8
24,-100,-124,38,74,-112,53,122,125,95,4,-3
4,-104,-108,50,56,-106,42,91,121,100,3,3
-4,-110,-106,57,51,-108,33,65,123,106,4,8
1,-110,-111,54,56,-110,25,55,117,104,1,8
19,-102,-121,41,70,-111,17,61,101,93,-4,5
36,-90,-126,27,81,-108,9,76,83,79,-13,3
45,-80,-125,17,85,-102,0,89,71,67,-20,4
50,-78,-128,14,89,-103,-7,89,66,59,-27,3
54,-83,-137,14,95,-110,-13,75,66,57,-32,0
61,-90,-151,14,106,-120,-13,62,69,58,-34,0
70,-95,-165,12,117,-130,-12,55,69,61,-34,2
74,-98,-172,12,123,-135,-16,51,65,63,-33,4
75,-98,-173,11,124,-135,-25,47,57,61,-33,4
82,-93,-175,5,128,-134,-31,36,49,52,-35,2
94,-85,-179,-4,136,-132,-32,25,44,38,-38,0
109,-80,-189,-14,149,-134,-36,27,41,32,-39,0
125,-81,-206,-22,165,-143,-43,41,36,33,-38,0
147,-82,-229,-32,188,-155,-53,52,30,32,-40,0
170,-81,-251,-44,210,-166,-61,52,25,26,-43,-2
185,-82,-267,-51,226,-174,-62,41,25,22,-41,-4
189,-85,-274,-52,231,-179,-56,23,32,22,-35,-4
190,-87,-277,-51,233,-182,-50,5,46,26,-33,-2
190,-87,-277,-51,233,-182,-48,-6,59,31,-34,0
189,-87,-276,-51,232,-181,-47,-8,62,35,-31,0
187,-87,-274,-50,230,-180,-45,-3,54,38,-23,0
180,-86,-266,-47,223,-176,-39,2,42,39,-15,0
169,-85,-254,-42,211,-169,-29,8,34,41,-10,0
161,-89,-250,-36,205,-169,-18,21,36,45,-7,-2
157,-97,-254,-30,205,-175,-8,41,47,51,-7,-7
154,-106,-260,-24,207,-183,0,63,56,53,-11,-9
152,-113,-265,-19,208,-189,3,79,61,53,-17,-8
149,-119,-268,-15,208,-193,3,78,64,52,-19,-11
146,-123,-269,-11,207,-196,0,60,67,53,-18,-19
145,-128,-273,-8,209,-200,-7,36,68,52,-20,-27
146,-133,-279,-6,212,-206,-13,19,68,52,-23,-32
145,-137,-282,-4,213,-209,-12,24,67,55,-22,-34
142,-140,-282,-1,212,-211,-4,47,67,63,-17,-34
139,-141,-280,1,209,-210,4,65,68,72,-11,-32
136,-144,-280,4,208,-212,11,69,68,80,-8,-29
135,-148,-283,6,209,-215,15,64,65,80,-11,-30
135,-153,-288,9,211,-220,14,54,60,70,-18,-35
135,-158,-293,11,214,-225,13,41,56,54,-29,-42
133,-163,-296,15,214,-229,12,30,56,38,-37,-47
127,-166,-293,19,210,-229,16,30,59,34,-38,-46
117,-168,-285,25,201,-226,21,38,65,40,-35,-41
107,-171,-278,32,192,-224,25,45,70,43,-34,-36
98,-174,-272,38,185,-223,27,49,75,41,-35,-32
84,-174,-258,45,171,-216,31,57,80,48,-28,-25
64,-171,-235,53,149,-203,38,72,84,66,-11,-14
42,-168,-210,63,126,-189,47,91,88,89,11,-3
24,-165,-189,70,106,-177,55,107,93,107,29,5
16,-164,-180,74,98,-172,59,112,101,112,33,10
18,-165,-183,73,100,-174,58,106,111,103,24,9
18,-164,-182,73,100,-173,57,98,122,91,14,8
15,-163,-178,74,96,-170,57,93,130,83,9,8
13,-168,-181,77,97,-174,57,90,128,82,10,10
14,-176,-190,81,102,-183,57,87,115,85,16,12
13,-181,-194,84,103,-187,58,86,98,87,21,14
10,-181,-191,85,100,-186,60,87,86,86,23,14
7,-178,-185,85,96,-181,65,86,92,88,24,14
4,-176,-180,86,92,-178,71,83,116,94,24,14
3,-174,-177,85,90,-175,73,80,144,99,23,13
3,-174,-177,85,90,-175,73,77,166,101,23,10
5,-176,-181,85,93,-178,72,79,167,102,24,7
8,-178,-186,85,97,-182,72,84,151,102,24,4
8,-180,-188,86,98,-184,72,87,132,101,21,3
5,-180,-185,87,95,-182,72,87,120,101,16,3
3,-179,-182,88,92,-180,73,86,114,102,12,5
4,-178,-182,87,93,-180,75,90,114,102,11,8
2,-183,-185,90,93,-184,80,106,121,101,5,9
1,-191,-192,95,96,-191,87,131,133,101,-6,3
9,-196,-205,93,107,-200,95,159,147,103,-21,-15
25,-196,-221,85,123,-208,103,184,161,109,-35,-46
40,-193,-233,76,136,-213,110,202,178,113,-50,-78
48,-191,-239,71,143,-215,115,208,195,116,-63,-103
44,-188,-232,72,138,-210,116,195,200,117,-70,-116
33,-182,-215,74,124,-198,111,166,194,119,-67,-111
27,-177,-204,75,115,-190,102,137,187,126,-43,-87
36,-168,-204,66,120,-186,86,118,186,145,5,-41
63,-151,-214,44,138,-182,56,121,195,190,75,26
102,-126,-228,12,165,-177,17,143,215,262,165,112
138,-97,-235,-20,186,-166,-13,166,243,352,272,207
171,-66,-237,-52,204,-151,-33,180,277,446,384,305
209,-28,-237,-90,223,-132,-52,186,316,519,485,402
252,15,-237,-133,244,-111,-77,174,346,559,570,499
289,61,-228,-175,258,-83,-107,127,343,573,656,600
318,118,-200,-218,259,-41,-147,26,275,562,756,723
354,199,-155,-276,254,22,-205,-145,111,524,886,896
395,306,-89,-350,242,108,-278,-366,-120,475,1051,1121
426,422,-4,-424,215,209,-351,-572,-337,449,1238,1370
441,529,88,-485,176,308,-414,-739,-517,427,1421,1608
443,608,165,-525,139,386,-456,-878,-702,341,1551,1804
440,646,206,-543,117,426,-476,-990,-893,186,1608,1929
438,640,202,-539,118,421,-474,-1064,-1048,29,1595,1967
432,602,170,-517,131,386,-451,-1105,-1153,-107,1531,1933
397,560,163,-478,117,361,-401,-1138,-1228,-253,1444,1873
330,526,196,-428,67,361,-330,-1168,-1278,-406,1341,1809
244,499,255,-371,-5,377,-257,-1174,-1297,-534,1210,1728
151,461,310,-306,-79,385,-187,-1141,-1281,-624,1047,1601
56,386,330,-221,-137,358,-116,-1063,-1229,-683,854,1385
-27,276,303,-124,-165,289,-46,-960,-1155,-728,640,1096
-88,170,258,-41,-173,214,12,-875,-1085,-774,422,816
-124,80,204,22,-164,142,64,-805,-1019,-811,200,552
-144,-11,133,77,-138,61,133,-694,-926,-801,-42,241
-157,-105,52,131,-104,-26,212,-549,-812,-747,-291,-96
-162,-175,-13,168,-74,-94,262,-437,-724,-694,-493,-347
-155,-216,-61,185,-47,-138,272,-383,-667,-656,-613,-468
-119,-237,-118,178,0,-177,260,-361,-607,-608,-639,-495
-60,-248,-188,154,64,-218,236,-349,-531,-545,-597,-470
-3,-256,-253,129,125,-254,199,-329,-458,-482,-550,-440
38,-258,-296,110,167,-277,155,-291,-388,-419,-515,-417
62,-243,-305,90,183,-274,121,-231,-301,-337,-462,-377
71,-216,-287,72,179,-251,100,-161,-200,-244,-387,-319
72,-196,-268,62,170,-232,83,-109,-111,-166,-323,-271
73,-189,-262,58,167,-225,68,-76,-47,-115,-283,-243
85,-191,-276,53,180,-233,60,-37,-7,-82,-255,-226
107,-197,-304,45,205,-250,60,12,17,-59,-233,-216
122,-201,-323,39,222,-262,66,61,41,-37,-215,-213
128,-200,-328,36,228,-264,72,96,68,-17,-200,-212
133,-199,-332,33,232,-265,70,110,92,-2,-190,-203
141,-196,-337,27,239,-266,59,103,108,6,-184,-186
149,-193,-342,22,245,-267,47,91,112,10,-175,-176
154,-190,-344,18,249,-267,40,83,108,12,-165,-174
157,-190,-347,16,252,-268,39,82,106,16,-158,-175
159,-193,-352,17,255,-272,41,87,109,22,-156,-175
162,-196,-358,17,260,-277,43,96,114,23,-155,-174
165,-196,-361,15,263,-278,42,106,121,22,-153,-174
162,-193,-355,15,258,-274,43,117,129,28,-147,-174
153,-187,-340,17,246,-263,48,126,139,48,-137,-173
138,-183,-321,22,229,-252,57,134,152,77,-125,-165
122,-181,-303,29,212,-242,66,139,165,104,-115,-155
113,-178,-291,32,202,-234,67,142,171,112,-109,-149
110,-176,-286,33,198,-231,61,145,171,98,-107,-149
101,-174,-275,36,188,-224,56,146,169,77,-107,-151
87,-174,-261,43,174,-217,56,146,169,61,-108,-152
79,-176,-255,48,167,-215,59,145,170,58,-104,-149
80,-178,-258,49,169,-218,61,145,172,66,-96,-144
82,-180,-262,49,172,-221,63,146,177,78,-87,-138
82,-180,-262,49,172,-221,64,146,183,88,-80,-133
82,-179,-261,48,171,-220,61,145,184,93,-77,-129
82,-179,-261,48,171,-220,55,145,181,92,-77,-126
80,-180,-260,50,170,-220,51,146,178,91,-77,-125
79,-180,-259,50,169,-219,49,149,176,91,-77,-125
87,-179,-266,46,176,-222,46,152,173,92,-79,-127
105,-179,-284,37,194,-231,43,157,168,92,-84,-132
127,-180,-307,26,217,-243,43,163,161,91,-89,-138
145,-183,-328,19,236,-255,46,168,156,88,-94,-144
153,-186,-339,16,246,-262,48,169,156,85,-98,-146
151,-188,-339,18,245,-263,48,165,161,84,-101,-146
151,-191,-342,20,246,-266,47,156,167,90,-102,-146
152,-194,-346,21,249,-270,46,148,172,99,-103,-146
147,-195,-342,24,244,-268,50,145,176,101,-100,-144
134,-195,-329,30,231,-262,58,148,178,95,-94,-138
118,-195,-313,38,215,-254,66,153,180,90,-90,-134
103,-195,-298,46,200,-246,71,159,183,93,-87,-132
93,-193,-286,50,189,-239,74,170,187,101,-86,-129
88,-191,-279,51,183,-235,76,182,192,111,-86,-126
85,-189,-274,52,179,-231,78,183,197,120,-87,-126
80,-190,-270,55,175,-230,80,174,199,125,-87,-129
76,-189,-265,56,170,-227,83,168,199,125,-86,-131
73,-186,-259,56,166,-222,88,171,198,123,-86,-131
72,-184,-256,56,164,-220,95,177,202,121,-87,-130
69,-184,-253,57,161,-218,101,180,210,121,-87,-131
65,-185,-250,60,157,-217,100,177,215,122,-85,-130
60,-185,-245,62,152,-215,94,171,215,122,-81,-128
55,-183,-238,64,146,-210,91,170,211,121,-74,-123
52,-180,-232,64,142,-206,92,176,206,119,-69,-119
54,-180,-234,63,144,-207,90,181,202,113,-68,-115
60,-182,-242,61,151,-212,84,179,200,105,-73,-115
63,-186,-249,61,156,-217,80,169,199,99,-81,-119
63,-189,-252,63,157,-220,81,157,199,97,-89,-126
63,-189,-252,63,157,-220,82,147,200,95,-93,-135
66,-189,-255,61,160,-222,85,142,203,93,-93,-143
69,-191,-260,61,164,-225,88,140,204,91,-89,-146
69,-197,-266,64,167,-231,92,137,204,91,-84,-146
65,-200,-265,67,165,-232,90,133,204,92,-80,-146
57,-200,-257,71,157,-228,82,130,204,94,-77,-147
50,-199,-249,74,149,-224,74,133,203,99,-66,-143
47,-199,-246,76,146,-222,69,142,200,105,-52,-137
48,-200,-248,76,148,-224,67,147,199,106,-47,-137
53,-202,-255,74,154,-228,67,147,199,102,-56,-145
62,-205,-267,71,164,-236,68,143,199,102,-68,-155
71,-208,-279,68,175,-243,68,138,199,106,-79,-162
71,-209,-280,69,175,-244,68,134,200,105,-82,-165
