I,II,III,aVR,aVL,aVF,V1,V2,V3,V4,V5,V6
-29,-195,-165,112,68,-180,9,58,48,0,97,68
-29,-195,-165,112,68,-180,9,58,48,0,97,68
-29,-195,-165,112,68,-180,9,58,48,0,97,68
-29,-195,-165,112,68,-180,9,58,48,0,97,68
-19,-195,-175,107,78,-185,9,58,48,0,97,68
-19,-195,-175,107,78,-185,9,58,48,0,97,68
-19,-195,-175,107,78,-185,9,58,48,0,97,68
-19,-195,-175,107,78,-185,9,58,48,0,97,68
-29,-200,-170,114,70,-185,9,68,53,0,87,68
-29,-204,-175,117,73,-190,9,68,58,0,87,68
-29,-209,-180,119,75,-195,9,68,63,0,87,68
-29,-214,-185,122,78,-200,9,68,68,0,87,68
-29,-214,-185,122,78,-200,9,68,68,9,97,68
-29,-214,-185,122,78,-200,9,68,68,9,97,68
-29,-214,-185,122,78,-200,9,68,68,9,97,68
-29,-214,-185,122,78,-200,9,68,68,9,97,68
-29,-214,-185,122,78,-200,9,58,68,9,87,68
-29,-214,-185,122,78,-200,9,58,68,9,87,68
-29,-214,-185,122,78,-200,9,58,68,9,87,68
-29,-214,-185,122,78,-200,9,58,68,9,87,68
-29,-214,-185,122,78,-200,19,68,68,19,87,78
-29,-214,-185,122,78,-200,19,68,68,19,87,78
-29,-214,-185,122,78,-200,19,68,68,19,87,78
-29,-214,-185,122,78,-200,19,68,68,19,87,78
-29,-214,-185,122,78,-200,9,68,68,19,78,78
-29,-214,-185,122,78,-200,9,68,68,19,78,78
-29,-214,-185,122,78,-200,9,68,68,19,78,78
-29,-214,-185,122,78,-200,9,68,68,19,78,78
-29,-214,-185,122,78,-200,9,68,68,19,78,78
-29,-214,-185,122,78,-200,9,68,68,19,78,78
-29,-214,-185,122,78,-200,9,68,68,19,78,78
-29,-214,-185,122,78,-200,9,68,68,19,78,78
-29,-214,-185,122,78,-200,19,68,68,24,87,87
-29,-214,-185,122,78,-200,19,68,68,29,87,87
-29,-214,-185,122,78,-200,19,68,68,34,87,87
-29,-214,-185,122,78,-200,19,68,68,39,87,87
-29,-214,-185,122,78,-200,19,78,78,43,87,87
-29,-214,-185,122,78,-200,19,78,78,48,87,87
-29,-214,-185,122,78,-200,19,78,78,53,87,87
-29,-214,-185,122,78,-200,19,78,78,58,87,87
-29,-209,-180,119,75,-195,9,82,92,73,97,92
-29,-204,-175,117,73,-190,9,87,97,78,97,97
-29,-200,-170,114,70,-185,9,92,102,82,97,102
-29,-195,-165,112,68,-180,9,97,107,87,97,107
-19,-190,-170,104,75,-180,0,87,122,97,112,122
-19,-185,-165,102,73,-175,0,87,126,107,117,126
-19,-180,-161,100,70,-170,0,87,131,117,122,131
-19,-175,-156,97,68,-165,0,87,136,126,126,136
-19,-161,-141,90,61,-151,-9,87,141,131,136,136
-19,-156,-136,87,58,-146,-9,87,146,136,136,136
-19,-151,-131,85,56,-141,-9,87,151,141,136,136
-19,-146,-126,82,53,-136,-9,87,156,146,136,136
-9,-146,-136,78,63,-141,-24,102,161,146,136,136
-9,-146,-136,78,63,-141,-29,107,165,146,136,136
-9,-146,-136,78,63,-141,-34,112,170,146,136,136
-9,-146,-136,78,63,-141,-39,117,175,146,136,136
4,-146,-151,70,78,-148,-53,117,161,146,131,136
4,-146,-151,70,78,-148,-68,112,156,146,131,136
4,-141,-146,68,75,-143,-73,102,151,146,131,136
4,-141,-146,68,75,-143,-82,92,136,146,136,141
14,-141,-156,63,85,-148,-92,73,126,151,146,151
14,-141,-156,63,85,-148,-92,63,112,146,146,151
14,-141,-156,63,85,-148,-87,58,107,146,146,151
4,-151,-156,73,80,-153,-87,58,97,141,136,151
0,-156,-156,78,78,-156,-78,53,82,131,146,161
-4,-156,-151,80,73,-153,-78,48,73,131,146,161
-4,-156,-151,80,73,-153,-82,43,63,131,146,156
-9,-156,-146,82,68,-151,-82,39,53,131,146,151
0,-161,-161,80,80,-161,-92,34,43,107,131,136
0,-161,-161,80,80,-161,-87,34,34,102,126,136
0,-156,-156,78,78,-156,-87,29,24,97,122,136
0,-156,-156,78,78,-156,-87,24,14,92,117,136
0,-146,-146,73,73,-146,-78,24,0,97,117,146
0,-161,-161,80,80,-161,-78,24,-4,97,117,146
0,-161,-161,80,80,-161,-78,24,-4,102,117,146
4,-165,-170,80,87,-168,-73,24,-9,107,117,146
14,-161,-175,73,95,-168,-73,24,-4,92,112,141
14,-165,-180,75,97,-173,-68,24,-9,82,112,136
14,-180,-195,82,104,-187,-58,24,-14,73,112,131
14,-185,-200,85,107,-192,-53,24,-19,73,117,126
9,-200,-209,95,109,-204,-48,29,-19,82,131,122
4,-200,-204,97,104,-202,-43,29,-14,92,131,122
0,-200,-200,100,100,-200,-39,29,-4,97,151,122
0,-200,-200,100,100,-200,-34,34,0,97,165,117
-4,-209,-204,107,100,-207,-24,34,-4,97,175,117
-9,-214,-204,112,97,-209,-19,39,0,97,175,117
-9,-214,-204,112,97,-209,-14,43,4,97,175,107
-14,-219,-204,117,95,-212,0,48,9,97,175,107
-24,-214,-190,119,82,-202,9,48,29,92,170,92
-39,-219,-180,129,70,-200,19,53,29,92,156,87
-43,-224,-180,134,68,-202,19,53,29,92,146,82
-48,-229,-180,139,65,-204,24,53,29,92,141,78
-53,-234,-180,143,63,-207,29,63,29,102,146,73
-53,-234,-180,143,63,-207,39,63,29,102,151,73
-53,-234,-180,143,63,-207,39,63,29,112,156,73
-53,-234,-180,143,63,-207,39,63,29,112,165,73
-53,-248,-195,151,70,-222,48,73,29,112,165,87
-53,-258,-204,156,75,-231,48,73,29,112,165,87
-53,-263,-209,158,78,-236,48,73,29,117,165,87
-53,-268,-214,161,80,-241,48,73,29,117,165,87
-63,-268,-204,165,70,-236,48,63,29,107,165,87
-63,-268,-204,165,70,-236,53,63,24,102,161,82
-63,-273,-209,168,73,-241,53,63,24,102,161,82
-63,-273,-209,168,73,-241,53,63,29,102,161,82
-58,-263,-204,161,73,-234,48,73,29,117,151,82
-58,-263,-204,161,73,-234,48,73,29,117,151,82
-58,-263,-204,161,73,-234,48,73,29,117,151,82
-58,-263,-204,161,73,-234,53,73,29,117,156,82
-58,-253,-195,156,68,-224,53,73,29,122,146,82
-58,-253,-195,156,68,-224,53,73,29,122,146,82
-58,-253,-195,156,68,-224,53,73,29,122,146,82
-58,-253,-195,156,68,-224,53,78,29,122,146,82
-58,-263,-204,161,73,-234,53,78,29,117,136,82
-58,-263,-204,161,73,-234,53,78,29,117,136,82
-58,-263,-204,161,73,-234,53,73,29,117,136,82
-58,-263,-204,161,73,-234,58,73,29,117,136,82
-58,-263,-204,161,73,-234,58,73,14,117,136,82
-58,-263,-204,161,73,-234,53,73,14,117,136,82
-58,-263,-204,161,73,-234,53,73,14,117,136,82
-58,-268,-209,163,75,-239,53,73,19,117,136,82
-58,-268,-209,163,75,-239,43,73,19,126,136,92
-58,-263,-204,161,73,-234,43,73,29,126,126,82
-58,-263,-204,161,73,-234,53,82,29,131,126,92
-68,-263,-195,165,63,-229,53,87,34,131,126,92
-78,-263,-185,170,53,-224,58,87,48,141,117,78
-68,-263,-195,165,63,-229,63,97,68,146,117,73
-68,-273,-204,170,68,-239,78,131,102,146,126,68
-68,-287,-219,178,75,-253,87,156,136,161,126,43
-73,-278,-204,175,65,-241,92,170,175,170,131,34
-78,-273,-195,175,58,-234,97,180,200,200,156,43
-87,-278,-190,183,51,-234,117,190,234,229,190,68
-87,-273,-185,180,48,-229,117,200,263,273,239,117
-87,-239,-151,163,31,-195,112,190,263,312,283,175
-73,-219,-146,146,36,-183,92,165,234,312,326,244
-48,-200,-151,124,51,-175,68,146,204,292,356,312
-39,-180,-141,109,51,-161,43,141,190,302,400,380
-14,-156,-141,85,63,-148,19,122,180,317,458,458
19,-122,-141,51,80,-131,-9,122,190,336,517,531
68,-112,-180,21,124,-146,-43,141,214,346,551,610
126,-112,-239,-7,183,-175,-87,170,234,346,561,668
190,-112,-302,-39,246,-207,-117,195,244,322,546,688
253,-117,-370,-68,312,-244,-146,224,234,292,502,678
322,-117,-439,-102,380,-278,-170,224,180,263,458,678
385,-107,-492,-139,439,-300,-204,214,131,244,429,639
400,-107,-507,-146,453,-307,-239,190,102,234,380,570
409,-107,-517,-151,463,-312,-253,117,58,253,356,492
390,-102,-492,-143,441,-297,-248,29,-4,292,341,429
356,-126,-483,-114,419,-305,-214,-34,-63,297,297,336
302,-219,-522,-41,412,-370,-161,-68,-126,253,180,170
253,-312,-566,29,409,-439,-102,-117,-229,195,48,-14
175,-366,-541,95,358,-453,-39,-209,-375,117,-53,-136
82,-405,-488,161,285,-446,19,-307,-478,39,-136,-214
34,-444,-478,204,256,-461,58,-331,-531,-53,-234,-278
-29,-473,-444,251,207,-458,92,-341,-624,-165,-346,-336
-112,-478,-366,295,126,-422,136,-395,-785,-258,-395,-331
-200,-473,-273,336,36,-373,185,-439,-907,-302,-395,-312
-248,-473,-224,361,-12,-348,209,-429,-976,-326,-419,-331
-273,-492,-219,383,-26,-356,219,-405,-1005,-366,-448,-361
-287,-473,-185,380,-51,-329,219,-400,-990,-370,-424,-336
-278,-453,-175,366,-51,-314,224,-385,-956,-346,-366,-302
-258,-473,-214,366,-21,-344,224,-317,-883,-336,-326,-273
-224,-483,-258,353,17,-370,190,-248,-775,-322,-283,-248
-195,-453,-258,324,31,-356,151,-224,-697,-268,-209,-200
-156,-405,-248,280,46,-326,122,-209,-614,-195,-136,-136
-117,-385,-268,251,75,-326,78,-165,-492,-141,-87,-97
-82,-375,-292,229,104,-334,48,-87,-361,-68,-39,-58
-63,-346,-283,204,109,-314,39,-34,-244,19,14,-19
-53,-307,-253,180,100,-280,39,-19,-151,78,63,24
-63,-283,-219,173,78,-251,48,-9,-87,97,82,58
-73,-273,-200,173,63,-236,58,-4,-43,107,87,58
-73,-273,-200,173,63,-236,58,9,-34,107,102,58
-68,-273,-204,170,68,-239,63,29,-34,107,102,68
-58,-273,-214,165,78,-244,78,43,-24,112,102,68
-58,-273,-214,165,78,-244,78,48,-14,122,102,68
-58,-273,-214,165,78,-244,78,48,-4,131,102,68
-58,-273,-214,165,78,-244,78,48,4,131,102,68
-58,-273,-214,165,78,-244,68,48,9,136,117,68
-58,-273,-214,165,78,-244,68,53,14,131,117,73
-63,-273,-209,168,73,-241,68,53,14,136,122,73
-63,-273,-209,168,73,-241,68,53,14,146,122,73
-73,-283,-209,178,68,-246,78,63,9,156,122,73
-73,-283,-209,178,68,-246,78,63,9,161,122,73
-68,-278,-209,173,70,-244,78,58,14,161,126,73
-68,-278,-209,173,70,-244,78,58,14,161,126,78
-68,-278,-209,173,70,-244,78,68,19,156,126,68
-73,-283,-209,178,68,-246,78,73,19,156,126,68
-73,-287,-214,180,70,-251,78,73,19,156,126,68
-68,-287,-219,178,75,-253,78,73,19,156,131,68
-68,-287,-219,178,75,-253,87,73,19,165,122,78
-68,-287,-219,178,75,-253,87,78,19,165,122,78
-68,-287,-219,178,75,-253,87,82,19,170,122,78
-68,-287,-219,178,75,-253,87,82,24,175,126,78
-58,-283,-224,170,82,-253,87,73,34,175,126,78
-58,-283,-224,170,82,-253,82,73,34,175,126,78
-58,-283,-224,170,82,-253,82,73,34,170,122,78
-58,-278,-219,168,80,-248,87,73,34,170,122,78
-58,-278,-219,168,80,-248,78,82,34,165,126,82
-58,-278,-219,168,80,-248,78,82,39,165,131,82
-58,-278,-219,168,80,-248,73,82,39,165,136,82
-63,-278,-214,170,75,-246,73,82,34,170,136,82
-63,-268,-204,165,70,-236,73,82,24,165,146,82
-63,-268,-204,165,70,-236,73,87,24,165,146,82
-63,-273,-209,168,73,-241,78,87,24,165,146,82
-63,-273,-209,168,73,-241,78,87,24,165,146,82
-63,-283,-219,173,78,-251,78,87,34,175,146,82
-63,-283,-219,173,78,-251,78,87,34,175,141,82
-63,-283,-219,173,78,-251,78,87,29,175,141,82
-63,-283,-219,173,78,-251,78,87,29,175,141,82
-73,-283,-209,178,68,-246,68,87,34,175,131,92
-73,-287,-214,180,70,-251,68,87,34,175,131,92
-68,-287,-219,178,75,-253,68,87,34,180,131,92
-68,-287,-219,178,75,-253,68,87,34,185,136,92
-68,-278,-209,173,70,-244,68,78,24,175,136,82
-68,-278,-209,173,70,-244,68,78,29,175,136,87
-68,-278,-209,173,70,-244,68,78,34,175,136,87
-68,-278,-209,173,70,-244,68,82,34,175,136,87
-58,-292,-234,175,87,-263,78,82,39,185,141,92
-58,-292,-234,175,87,-263,78,82,39,185,146,92
-58,-292,-234,175,87,-263,78,82,39,190,151,97
-58,-292,-234,175,87,-263,78,82,48,190,156,97
-68,-292,-224,180,78,-258,78,82,48,185,151,87
-68,-297,-229,183,80,-263,78,82,43,180,141,87
-68,-297,-229,183,80,-263,78,82,43,180,136,87
-68,-297,-229,183,80,-263,82,82,43,180,131,87
-68,-297,-229,183,80,-263,82,92,34,180,131,87
-68,-297,-229,183,80,-263,82,92,34,180,126,87
-73,-297,-224,185,75,-261,82,92,34,180,126,87
-73,-297,-224,185,75,-261,82,92,34,180,126,87
-68,-297,-229,183,80,-263,82,82,39,185,131,97
-68,-302,-234,185,82,-268,82,82,39,185,141,97
-68,-302,-234,185,82,-268,82,82,39,185,151,97
-68,-302,-234,185,82,-268,82,87,39,185,156,97
-58,-307,-248,183,95,-278,92,97,48,195,151,97
-58,-322,-263,190,102,-292,97,97,48,195,151,92
-58,-331,-273,195,107,-302,97,102,53,195,151,92
-58,-336,-278,197,109,-307,97,102,53,200,146,97
-63,-346,-283,204,109,-314,97,112,63,204,161,112
-63,-356,-292,209,114,-324,97,112,63,209,165,112
-63,-370,-307,217,122,-339,97,112,68,214,170,112
-58,-380,-322,219,131,-351,97,112,68,209,170,117
-68,-385,-317,226,124,-351,107,122,78,200,170,131
-68,-390,-322,229,126,-356,107,122,78,204,180,131
-68,-390,-322,229,126,-356,107,126,78,209,190,131
-68,-395,-326,231,129,-361,107,126,78,214,190,131
-68,-405,-336,236,134,-370,122,131,78,224,200,122
-68,-409,-341,239,136,-375,122,131,78,224,200,122
-68,-405,-336,236,134,-370,122,131,82,219,200,122
-68,-409,-341,239,136,-375,122,131,82,219,200,122
-58,-414,-356,236,148,-385,126,131,82,224,204,131
-63,-419,-356,241,146,-387,126,136,82,219,209,126
-63,-424,-361,244,148,-392,126,136,82,219,214,126
-58,-434,-375,246,158,-405,122,136,78,219,214,126
-68,-434,-366,251,148,-400,122,136,87,219,204,126
-68,-434,-366,251,148,-400,122,136,87,219,204,126
-68,-434,-366,251,148,-400,122,131,87,219,204,126
-68,-434,-366,251,148,-400,122,131,92,219,195,126
-58,-439,-380,248,161,-409,117,136,92,234,204,126
-58,-439,-380,248,161,-409,117,136,92,234,209,126
-58,-444,-385,251,163,-414,117,136,92,229,209,126
-63,-444,-380,253,158,-412,122,136,92,224,204,126
-53,-448,-395,251,170,-422,122,146,92,229,219,131
-53,-453,-400,253,173,-427,122,146,92,239,219,136
-53,-458,-405,256,175,-431,122,146,92,248,224,141
-53,-458,-405,256,175,-431,126,146,92,258,229,146
-63,-448,-385,256,161,-417,126,156,92,258,214,141
-63,-448,-385,256,161,-417,126,156,97,258,209,136
-63,-448,-385,256,161,-417,122,156,102,258,204,131
-63,-448,-385,256,161,-417,122,156,102,258,204,126
-73,-458,-385,265,156,-422,131,156,102,253,204,136
-68,-458,-390,263,161,-424,131,156,102,258,209,131
-68,-458,-390,263,161,-424,131,151,97,263,214,131
-68,-458,-390,263,161,-424,131,151,92,268,214,131
-63,-468,-405,265,170,-436,131,161,102,273,219,136
-63,-468,-405,265,170,-436,131,161,107,273,229,141
-63,-463,-400,263,168,-431,131,161,112,273,234,146
-63,-463,-400,263,168,-431,136,161,112,273,239,151
-58,-473,-414,265,178,-444,126,156,102,283,239,141
-58,-468,-409,263,175,-439,122,156,102,283,229,146
-58,-463,-405,261,173,-434,122,156,107,283,229,146
-58,-463,-405,261,173,-434,122,161,107,283,224,146
-48,-473,-424,261,187,-448,122,170,97,283,234,141
-48,-473,-424,261,187,-448,126,170,97,278,234,141
-48,-468,-419,258,185,-444,131,170,97,278,234,136
-48,-468,-419,258,185,-444,131,170,97,278,234,136
-48,-468,-419,258,185,-444,136,170,97,283,229,141
-48,-468,-419,258,185,-444,136,170,102,283,229,141
-48,-468,-419,258,185,-444,136,170,107,287,234,141
-48,-468,-419,258,185,-444,131,170,112,287,234,141
-48,-468,-419,258,185,-444,131,170,112,292,229,141
-48,-468,-419,258,185,-444,131,165,112,283,224,141
-48,-468,-419,258,185,-444,131,165,112,278,219,141
-48,-463,-414,256,183,-439,131,165,112,278,214,141
-48,-478,-429,263,190,-453,141,175,102,287,219,151
-48,-478,-429,263,190,-453,141,180,102,287,224,141
-43,-478,-434,261,195,-456,141,180,107,283,229,141
-39,-478,-439,258,200,-458,141,180,112,283,234,141
-39,-473,-434,256,197,-453,131,175,112,287,239,146
-39,-473,-434,256,197,-453,131,175,112,292,239,146
-39,-473,-434,256,197,-453,131,180,112,297,239,146
-39,-473,-434,256,197,-453,131,180,107,302,244,146
-29,-473,-444,251,207,-458,141,180,107,287,229,136
-29,-473,-444,251,207,-458,141,175,107,287,224,136
-29,-473,-444,251,207,-458,141,175,107,287,219,136
-24,-478,-453,251,214,-466,141,175,107,287,214,136
-24,-473,-448,248,212,-461,141,175,107,297,224,136
-24,-478,-453,251,214,-466,141,175,107,292,219,131
-24,-478,-453,251,214,-466,141,175,112,292,219,131
-24,-478,-453,251,214,-466,141,175,112,292,219,131
-29,-468,-439,248,204,-453,131,180,102,297,209,131
-29,-468,-439,248,204,-453,131,180,97,302,204,122
-29,-468,-439,248,204,-453,131,180,97,307,204,122
-29,-468,-439,248,204,-453,131,180,97,312,204,122
-29,-473,-444,251,207,-458,141,190,107,326,204,122
-29,-478,-448,253,209,-463,141,185,97,331,204,122
-24,-478,-453,251,214,-466,141,185,97,331,204,122
-24,-478,-453,251,214,-466,141,180,92,336,200,122
-24,-488,-463,256,219,-475,141,180,102,346,200,126
-24,-497,-473,261,224,-485,141,180,92,341,200,126
-24,-497,-473,261,224,-485,141,180,87,341,200,126
-29,-502,-473,265,222,-488,141,180,87,341,195,122
-19,-497,-478,258,229,-488,141,180,78,331,190,112
-19,-488,-468,253,224,-478,141,180,78,322,190,112
-19,-483,-463,251,222,-473,141,175,73,317,190,112
-19,-478,-458,248,219,-468,146,170,68,317,185,107
-19,-478,-458,248,219,-468,136,170,63,287,180,107
-19,-478,-458,248,219,-468,136,170,63,268,180,107
-19,-478,-458,248,219,-468,131,170,58,253,175,107
-19,-473,-453,246,217,-463,131,161,58,234,175,102
-19,-478,-458,248,219,-468,131,161,53,209,185,112
-19,-473,-453,246,217,-463,131,161,53,195,185,112
-19,-473,-453,246,217,-463,131,156,48,175,180,112
-19,-473,-453,246,217,-463,126,151,39,165,175,112
-9,-483,-473,246,231,-478,126,156,48,146,185,122
-9,-478,-468,244,229,-473,131,156,43,141,185,122
-14,-478,-463,246,224,-470,141,156,39,136,185,122
-14,-478,-463,246,224,-470,146,151,39,131,185,122
-14,-478,-463,246,224,-470,141,146,34,117,170,122
-14,-478,-463,246,224,-470,141,141,29,112,165,122
-14,-478,-463,246,224,-470,141,141,29,107,161,122
-14,-478,-463,246,224,-470,141,141,24,102,156,122
-14,-473,-458,244,222,-466,136,141,14,82,141,112
-14,-473,-458,244,222,-466,136,136,9,82,136,112
-14,-473,-458,244,222,-466,136,136,9,82,131,112
-14,-473,-458,244,222,-466,136,136,0,82,126,112
-14,-458,-444,236,214,-451,136,126,9,78,126,122
-14,-458,-444,236,214,-451,131,126,4,68,126,122
-14,-458,-444,236,214,-451,126,126,4,63,126,126
-14,-458,-444,236,214,-451,126,126,0,53,126,126
-14,-453,-439,234,212,-446,126,126,0,53,126,136
-9,-453,-444,231,217,-448,126,126,0,53,126,141
-9,-453,-444,231,217,-448,126,122,0,53,131,141
-9,-448,-439,229,214,-444,126,122,0,53,131,146
-9,-448,-439,229,214,-444,122,131,0,53,126,146
-9,-444,-434,226,212,-439,122,126,0,53,131,151
-9,-444,-434,226,212,-439,126,126,0,53,131,156
-9,-444,-434,226,212,-439,126,126,0,53,131,161
0,-448,-448,224,224,-448,136,131,9,53,136,161
0,-448,-448,224,224,-448,136,131,9,58,136,165
0,-453,-453,226,226,-453,131,131,14,58,141,170
0,-468,-468,234,234,-468,131,131,19,58,146,170
-9,-468,-458,239,224,-463,131,131,34,63,156,180
-4,-463,-458,234,226,-461,131,131,34,63,165,180
-4,-463,-458,234,226,-461,131,136,34,63,170,185
-4,-463,-458,234,226,-461,131,136,39,68,170,190
4,-473,-478,234,241,-475,141,146,53,82,175,190
4,-468,-473,231,239,-470,141,146,53,82,180,190
4,-468,-473,231,239,-470,136,146,58,87,180,190
4,-468,-473,231,239,-470,136,151,68,87,185,195
9,-473,-483,231,246,-478,136,156,73,82,195,204
9,-473,-483,231,246,-478,136,156,78,82,200,209
9,-473,-483,231,246,-478,136,156,82,92,200,209
9,-473,-483,231,246,-478,136,156,87,92,200,214
14,-483,-497,234,256,-490,146,170,92,87,204,214
14,-483,-497,234,256,-490,146,170,102,92,214,214
14,-483,-497,234,256,-490,141,175,107,102,219,214
14,-488,-502,236,258,-495,141,175,122,107,224,214
24,-468,-492,222,258,-480,126,175,122,102,224,204
24,-444,-468,209,246,-456,122,170,126,92,219,200
24,-424,-448,200,236,-436,117,165,122,87,214,195
29,-400,-429,185,229,-414,112,161,112,87,219,190
19,-380,-400,180,209,-390,97,146,102,73,209,185
19,-361,-380,170,200,-370,92,146,107,68,200,180
24,-336,-361,156,192,-348,82,141,107,63,190,175
24,-317,-341,146,183,-329,78,136,112,58,185,170
24,-302,-326,139,175,-314,78,126,112,48,185,165
24,-297,-322,136,173,-309,78,131,122,48,185,161
24,-292,-317,134,170,-305,78,131,122,48,185,156
24,-287,-312,131,168,-300,78,136,122,48,185,151
24,-283,-307,129,165,-295,68,136,126,43,185,151
24,-283,-307,129,165,-295,68,136,126,43,185,151
29,-278,-307,124,168,-292,63,141,131,48,185,151
29,-273,-302,122,165,-287,63,141,131,48,190,151
29,-283,-312,126,170,-297,73,141,136,48,190,151
29,-283,-312,126,170,-297,73,141,141,48,190,151
29,-283,-312,126,170,-297,73,141,151,48,190,151
34,-283,-317,124,175,-300,73,141,156,48,190,151
34,-283,-317,124,175,-300,73,141,156,43,180,151
34,-283,-317,124,175,-300,73,141,161,43,180,151
34,-283,-317,124,175,-300,73,141,161,39,180,151
34,-283,-317,124,175,-300,73,141,161,39,180,151
29,-283,-312,126,170,-297,63,136,165,48,180,141
29,-278,-307,124,168,-292,63,136,170,48,175,141
29,-273,-302,122,165,-287,63,136,175,48,170,141
29,-268,-297,119,163,-283,63,136,180,48,165,141
29,-268,-297,119,163,-283,68,141,180,63,161,141
29,-268,-297,119,163,-283,68,141,185,63,161,141
34,-268,-302,117,168,-285,68,141,185,63,156,141
34,-268,-302,117,168,-285,68,136,180,58,156,141
34,-263,-297,114,165,-280,58,136,190,58,156,131
39,-258,-297,109,168,-278,58,141,190,63,151,131
39,-258,-297,109,168,-278,58,141,190,68,151,131
34,-253,-287,109,161,-270,58,141,190,78,146,131
34,-248,-283,107,158,-265,58,141,190,73,156,131
34,-248,-283,107,158,-265,58,141,190,73,161,131
34,-248,-283,107,158,-265,58,141,185,73,161,131
34,-248,-283,107,158,-265,58,136,185,73,161,131
34,-239,-273,102,153,-256,48,136,190,73,161,131
34,-239,-273,102,153,-256,48,136,190,68,161,131
34,-239,-273,102,153,-256,48,136,190,63,161,131
34,-248,-283,107,158,-265,48,141,190,68,165,131
34,-209,-244,87,139,-226,34,131,180,58,156,122
43,-175,-219,65,131,-197,29,117,170,48,146,112
43,-136,-180,46,112,-158,19,107,161,39,136,102
43,-97,-141,26,92,-119,14,92,151,29,126,92
34,-63,-97,14,65,-80,0,73,136,24,112,78
34,-39,-73,2,53,-56,-9,68,126,14,102,68
34,-4,-39,-14,36,-21,-19,63,122,4,92,58
34,19,-14,-26,24,2,-34,58,112,0,82,48
43,24,-19,-34,31,2,-43,48,102,-9,68,43
43,34,-9,-39,26,12,-43,43,107,-14,63,39
43,48,4,-46,19,26,-43,39,107,-19,58,34
43,58,14,-51,14,36,-43,34,107,-19,53,29
34,63,29,-48,2,46,-43,24,107,-29,43,29
34,68,34,-51,0,51,-43,24,107,-29,43,29
34,73,39,-53,-2,56,-43,24,102,-39,43,29
34,82,48,-58,-7,65,-43,24,102,-39,43,24
43,97,53,-70,-4,75,-48,19,102,-29,39,14
43,97,53,-70,-4,75,-48,19,102,-29,39,14
43,97,53,-70,-4,75,-48,19,97,-29,34,14
43,97,53,-70,-4,75,-43,19,97,-39,34,19
43,112,68,-78,-12,90,-53,9,97,-29,34,19
43,112,68,-78,-12,90,-53,9,97,-29,34,19
43,112,68,-78,-12,90,-53,9,97,-34,34,19
43,112,68,-78,-12,90,-58,9,97,-39,34,19
43,122,78,-82,-17,100,-58,9,97,-39,34,19
43,126,82,-85,-19,104,-58,9,97,-39,34,14
43,136,92,-90,-24,114,-58,4,97,-43,34,9
43,141,97,-92,-26,119,-58,4,92,-43,34,4
43,136,92,-90,-24,114,-58,14,97,-29,34,14
43,131,87,-87,-21,109,-53,14,102,-24,29,14
43,126,82,-85,-19,104,-48,14,107,-19,29,9
43,122,78,-82,-17,100,-43,14,112,-19,29,9
43,112,68,-78,-12,90,-53,14,102,-19,19,19
43,112,68,-78,-12,90,-53,14,107,-19,19,19
43,112,68,-78,-12,90,-53,14,107,-19,19,14
43,112,68,-78,-12,90,-53,14,107,-19,14,14
43,122,78,-82,-17,100,-53,4,107,-29,0,9
39,122,82,-80,-21,102,-53,4,112,-29,0,9
39,122,82,-80,-21,102,-53,4,112,-29,4,9
39,122,82,-80,-21,102,-53,4,107,-29,4,9
39,131,92,-85,-26,112,-53,4,97,-14,4,19
39,131,92,-85,-26,112,-53,4,97,-14,4,19
39,131,92,-85,-26,112,-53,4,97,-14,4,14
39,131,92,-85,-26,112,-53,4,97,-14,4,14
43,141,97,-92,-26,119,-43,4,107,-4,4,4
43,141,97,-92,-26,119,-43,4,107,-4,4,4
43,141,97,-92,-26,119,-43,4,107,-4,4,4
43,136,92,-90,-24,114,-43,4,107,-4,4,4
43,136,92,-90,-24,114,-43,-4,107,4,4,-4
43,136,92,-90,-24,114,-43,-4,107,0,4,-4
43,136,92,-90,-24,114,-43,-4,107,0,0,-4
43,136,92,-90,-24,114,-43,-4,112,0,0,-4
39,146,107,-92,-34,126,-53,-4,102,0,0,-4
39,146,107,-92,-34,126,-53,-4,102,4,0,-4
39,146,107,-92,-34,126,-53,-4,102,9,0,-4
39,146,107,-92,-34,126,-53,-4,102,9,0,-4
39,146,107,-92,-34,126,-43,0,102,9,0,-4
39,146,107,-92,-34,126,-43,0,102,14,0,-4
39,146,107,-92,-34,126,-43,4,102,14,0,-4
39,146,107,-92,-34,126,-43,4,102,14,0,-4
48,136,87,-92,-19,112,-43,4,107,19,0,-4
43,136,92,-90,-24,114,-43,4,107,19,0,-4
43,136,92,-90,-24,114,-43,4,112,24,0,-4
43,136,92,-90,-24,114,-43,4,112,24,0,-4
34,146,112,-90,-39,129,-43,4,112,24,0,-4
34,146,112,-90,-39,129,-39,4,112,24,0,-4
34,146,112,-90,-39,129,-39,4,112,19,0,-4
39,146,107,-92,-34,126,-39,4,112,19,0,-4
43,141,97,-92,-26,119,-39,4,112,24,-9,-4
43,141,97,-92,-26,119,-39,4,112,24,-9,-4
39,141,102,-90,-31,122,-39,4,112,19,-9,-4
34,141,107,-87,-36,124,-39,4,112,14,-9,-4
43,141,97,-92,-26,119,-39,4,112,24,-19,-4
43,141,97,-92,-26,119,-43,4,112,24,-24,-4
43,141,97,-92,-26,119,-43,4,112,29,-24,-4
43,141,97,-92,-26,119,-43,4,112,39,-24,-4
43,141,97,-92,-26,119,-34,4,112,43,-39,-9
43,146,102,-95,-29,124,-34,4,112,48,-39,-9
43,146,102,-95,-29,124,-34,4,112,53,-34,-9
43,146,102,-95,-29,124,-34,4,112,48,-34,-9
43,141,97,-92,-26,119,-34,4,107,48,-34,-9
43,141,97,-92,-26,119,-34,4,107,48,-34,-9
43,146,102,-95,-29,124,-34,4,107,43,-34,-9
43,146,102,-95,-29,124,-39,0,107,43,-34,-9
43,136,92,-90,-24,114,-39,4,107,43,-34,-19
43,136,92,-90,-24,114,-39,4,107,43,-34,-19
43,136,92,-90,-24,114,-39,9,107,43,-34,-19
43,136,92,-90,-24,114,-39,9,107,48,-39,-19
43,126,82,-85,-19,104,-29,19,122,53,-29,-9
43,122,78,-82,-17,100,-29,19,122,53,-29,-9
43,112,68,-78,-12,90,-29,19,117,39,-29,-9
48,102,53,-75,-2,78,-29,19,117,34,-29,-9
39,102,63,-70,-12,82,-29,19,117,39,-29,-9
39,102,63,-70,-12,82,-24,19,122,48,-29,-9
39,102,63,-70,-12,82,-24,19,122,58,-29,-9
39,102,63,-70,-12,82,-24,19,122,63,-29,-9
48,117,68,-82,-9,92,-24,19,122,43,-29,-9
39,117,78,-78,-19,97,-19,29,126,58,-19,0
39,117,78,-78,-19,97,-19,29,126,58,-19,-9
39,117,78,-78,-19,97,-19,29,126,58,-19,-9
39,117,78,-78,-19,97,-19,29,126,58,-19,-9
39,117,78,-78,-19,97,-19,29,126,58,-19,-9
39,107,68,-73,-14,87,-19,29,126,58,-9,0
39,107,68,-73,-14,87,-19,29,126,58,-9,0
39,107,68,-73,-14,87,-19,29,126,58,-9,0
39,107,68,-73,-14,87,-19,29,126,58,-9,0
39,117,78,-78,-19,97,-29,29,117,58,-19,0
39,117,78,-78,-19,97,-29,29,117,58,-19,0
39,117,78,-78,-19,97,-29,29,117,58,-19,0
39,117,78,-78,-19,97,-29,29,117,58,-19,0
39,107,68,-73,-14,87,-19,29,126,58,-19,0
39,107,68,-73,-14,87,-19,29,126,58,-19,0
39,107,68,-73,-14,87,-19,29,126,58,-19,0
39,107,68,-73,-14,87,-19,29,126,58,-19,0
39,102,63,-70,-12,82,-19,39,126,68,-9,0
39,97,58,-68,-9,78,-19,39,126,68,-9,0
39,92,53,-65,-7,73,-19,39,126,68,-9,0
39,87,48,-63,-4,68,-19,39,126,68,-9,0
39,87,48,-63,-4,68,-19,39,136,78,0,0
39,87,48,-63,-4,68,-19,39,136,78,0,0
39,87,48,-63,-4,68,-19,39,136,78,0,0
39,87,48,-63,-4,68,-19,39,136,78,0,0
39,87,48,-63,-4,68,-9,39,126,78,0,0
39,87,48,-63,-4,68,-9,39,126,78,0,0
39,87,48,-63,-4,68,-9,39,126,78,0,0
39,87,48,-63,-4,68,-9,39,126,78,0,0
48,87,39,-68,4,63,-9,48,126,87,9,0
48,87,39,-68,4,63,-9,48,126,87,9,0
48,87,39,-68,4,63,-9,48,126,87,9,0
48,87,39,-68,4,63,-9,48,126,87,9,0
48,97,48,-73,0,73,-9,48,126,78,9,0
48,97,48,-73,0,73,-9,48,126,78,9,0
48,97,48,-73,0,73,-9,48,126,78,9,0
48,97,48,-73,0,73,-9,48,126,78,9,0
48,97,48,-73,0,73,-9,39,117,78,0,0
48,97,48,-73,0,73,-9,39,117,78,0,0
48,97,48,-73,0,73,-9,39,117,78,0,0
48,97,48,-73,0,73,-9,39,117,78,0,0
48,107,58,-78,-4,82,-19,39,126,78,-9,0
48,107,58,-78,-4,82,-19,39,126,78,-9,0
48,107,58,-78,-4,82,-19,39,126,78,-9,0
48,107,58,-78,-4,82,-19,39,126,78,-9,0
48,107,58,-78,-4,82,-19,48,126,87,0,-9
48,107,58,-78,-4,82,-19,48,126,87,0,-9
48,107,58,-78,-4,82,-19,48,126,87,0,-9
48,107,58,-78,-4,82,-19,48,126,87,0,-9
58,117,58,-87,0,87,-19,58,141,102,9,4
58,117,58,-87,0,87,-19,58,146,107,9,9
58,117,58,-87,0,87,-19,58,151,112,9,14
58,117,58,-87,0,87,-19,58,156,117,9,19
58,126,68,-92,-4,97,-19,58,170,131,14,29
58,126,68,-92,-4,97,-19,58,175,136,19,29
58,126,68,-92,-4,97,-19,58,180,141,24,29
58,126,68,-92,-4,97,-19,58,185,146,29,29
58,136,78,-97,-9,107,-19,58,195,156,39,34
58,146,87,-102,-14,117,-19,58,195,156,39,39
58,156,97,-107,-19,126,-19,58,195,156,39,43
58,165,107,-112,-24,136,-19,58,195,156,39,48
68,165,97,-117,-14,131,-24,63,200,165,48,39
68,165,97,-117,-14,131,-29,68,204,165,48,39
68,165,97,-117,-14,131,-34,73,209,165,48,39
68,165,97,-117,-14,131,-39,78,214,165,48,39
78,165,87,-122,-4,126,-43,68,209,165,48,43
82,165,82,-124,0,124,-58,68,200,165,53,48
82,165,82,-124,0,124,-73,63,190,165,53,53
82,170,87,-126,-2,129,-78,53,180,165,53,58
82,170,87,-126,-2,129,-73,43,156,156,58,53
82,170,87,-126,-2,129,-73,34,146,151,58,53
82,170,87,-126,-2,129,-73,24,131,146,58,53
82,170,87,-126,-2,129,-68,19,126,146,58,53
73,161,87,-117,-7,124,-68,19,117,131,39,43
73,156,82,-114,-4,119,-68,14,102,117,34,43
73,156,82,-114,-4,119,-68,9,92,112,29,43
78,156,78,-117,0,117,-73,4,82,107,24,39
78,146,68,-112,4,107,-73,9,73,102,19,43
78,141,63,-109,7,102,-73,4,63,87,14,39
78,141,63,-109,7,102,-68,4,53,82,9,39
78,146,68,-112,4,107,-68,0,43,78,4,39
78,156,78,-117,0,117,-68,-14,43,73,0,29
78,156,78,-117,0,117,-58,-14,39,73,0,29
78,141,63,-109,7,102,-58,-14,34,68,0,29
78,141,63,-109,7,102,-58,-14,34,68,0,29
82,146,63,-114,9,104,-43,-4,19,68,9,39
92,141,48,-117,21,95,-43,-4,14,63,0,34
92,136,43,-114,24,90,-39,-4,9,53,-4,29
92,122,29,-107,31,75,-29,-4,4,43,-9,24
92,107,14,-100,39,61,-34,-4,4,53,-9,19
87,102,14,-95,36,58,-29,0,9,53,-14,14
82,102,19,-92,31,61,-24,0,19,63,-24,14
78,102,24,-90,26,63,-19,0,34,68,-14,14
68,102,34,-85,17,68,-14,-4,34,68,0,9
63,92,29,-78,17,61,-4,4,34,68,0,9
58,87,29,-73,14,58,0,9,34,68,0,9
58,87,29,-73,14,58,4,14,34,68,0,0
53,82,29,-68,12,56,29,29,39,68,0,0
43,78,34,-61,4,56,39,29,48,73,0,-4
29,73,43,-51,-7,58,48,34,48,73,-9,-9
24,68,43,-46,-9,56,48,34,48,73,-14,-14
19,73,53,-46,-17,63,43,24,39,63,-14,-19
14,68,53,-41,-19,61,48,24,39,63,-14,-24
14,68,53,-41,-19,61,58,24,39,63,-14,-24
14,68,53,-41,-19,61,58,24,39,73,-14,-24
14,68,53,-41,-19,61,48,14,29,63,-9,-34
14,68,53,-41,-19,61,48,14,29,63,-9,-29
14,63,48,-39,-17,56,48,14,29,63,-9,-29
14,63,48,-39,-17,56,48,14,29,68,-9,-29
24,58,34,-41,-4,46,58,14,39,68,-9,-19
24,53,29,-39,-2,41,58,14,39,68,-9,-19
24,48,24,-36,0,36,63,14,34,63,-14,-24
24,39,14,-31,4,26,63,14,34,63,-14,-24
24,48,24,-36,0,36,73,24,39,63,-14,-24
19,48,29,-34,-4,39,68,24,39,68,-14,-24
19,48,29,-34,-4,39,68,24,39,68,-14,-24
19,48,29,-34,-4,39,68,24,39,68,-14,-24
19,48,29,-34,-4,39,68,24,39,68,-19,-34
19,48,29,-34,-4,39,63,24,39,73,-19,-34
19,48,29,-34,-4,39,58,24,39,73,-19,-34
19,48,29,-34,-4,39,53,24,39,73,-19,-34
19,43,24,-31,-2,34,63,29,48,73,-9,-24
19,39,19,-29,0,29,63,29,48,78,-9,-24
19,34,14,-26,2,24,63,29,48,78,-9,-24
19,29,9,-24,4,19,63,24,48,78,-9,-24
19,29,9,-24,4,19,68,24,48,78,-9,-34
19,29,9,-24,4,19,68,24,43,78,-9,-34
19,29,9,-24,4,19,63,24,43,78,-9,-34
19,29,9,-24,4,19,63,24,43,78,-9,-34
19,24,4,-21,7,14,63,34,48,78,-9,-24
19,24,4,-21,7,14,63,34,48,78,-9,-24
19,29,9,-24,4,19,63,34,48,78,-9,-24
19,29,9,-24,4,19,63,34,58,82,-9,-24
19,29,9,-24,4,19,82,39,73,82,-9,-34
9,19,9,-14,0,14,87,48,78,82,-9,-48
0,9,9,-4,-4,9,92,78,117,97,-9,-63
0,0,0,0,0,0,107,112,161,117,-9,-68
-9,4,14,2,-12,9,126,136,204,151,9,-63
-14,14,29,0,-21,21,131,141,234,180,24,-53
-19,19,39,0,-29,29,126,151,268,200,48,-43
-19,24,43,-2,-31,34,126,151,283,229,92,0
-19,58,78,-19,-48,68,107,122,263,244,141,68
0,82,82,-41,-41,82,82,92,224,244,185,136
14,102,87,-58,-36,95,53,78,195,244,219,185
39,112,73,-75,-17,92,39,68,185,244,258,263
68,141,73,-104,-2,107,14,53,180,253,302,341
92,165,73,-129,9,119,-19,63,209,278,341,419
136,180,43,-158,46,112,-48,82,239,297,380,483
195,180,-14,-187,104,82,-82,122,273,297,395,551
273,170,-102,-222,187,34,-117,161,292,278,375,580
336,170,-165,-253,251,2,-146,195,253,234,331,570
409,175,-234,-292,322,-29,-185,204,175,195,287,561
468,175,-292,-322,380,-58,-219,204,102,185,244,522
492,185,-307,-339,400,-61,-234,175,43,175,204,453
488,185,-302,-336,395,-58,-248,122,-53,185,175,375
468,185,-283,-326,375,-48,-234,39,-156,195,131,297
429,151,-278,-290,353,-63,-200,-19,-239,165,39,175
385,68,-317,-226,351,-124,-146,-53,-326,82,-112,-14
341,-24,-366,-158,353,-195,-102,-107,-448,-9,-258,-190
263,-78,-341,-92,302,-209,-53,-224,-590,-97,-351,-307
175,-112,-287,-31,231,-200,-9,-307,-668,-195,-434,-370
122,-151,-273,14,197,-212,39,-326,-722,-292,-536,-429
63,-180,-244,58,153,-212,78,-351,-834,-424,-634,-463
-39,-180,-141,109,51,-161,122,-409,-985,-507,-678,-453
-131,-175,-43,153,-43,-109,165,-444,-1078,-541,-678,-439
-170,-180,-9,175,-80,-95,185,-429,-1112,-546,-688,-478
-180,-190,-9,185,-85,-100,190,-390,-1112,-541,-683,-488
-185,-180,4,183,-95,-87,200,-375,-1083,-512,-624,-458
-190,-170,19,180,-104,-75,190,-351,-1019,-478,-561,-424
-170,-190,-19,180,-75,-104,195,-278,-897,-453,-522,-400
-131,-190,-58,161,-36,-124,175,-219,-775,-424,-483,-361
-107,-151,-43,129,-31,-97,131,-209,-697,-361,-419,-307
-78,-112,-34,95,-21,-73,73,-204,-600,-297,-366,-248
-39,-92,-53,65,7,-73,43,-151,-468,-214,-302,-204
0,-82,-82,41,41,-82,29,-78,-317,-131,-244,-165
14,-43,-58,14,36,-51,19,-48,-214,-48,-175,-126
14,-14,-29,0,21,-21,19,-43,-136,-9,-131,-97
14,-4,-19,-4,17,-12,39,-39,-73,9,-92,-73
4,0,-4,-2,4,-2,48,-29,-39,19,-82,-48
4,9,4,-7,0,7,48,-24,-24,19,-78,-48
4,0,-4,-2,4,-2,48,-9,-14,29,-82,-48
9,0,-9,-4,9,-4,53,9,-4,39,-73,-58
9,9,0,-9,4,4,58,14,-4,43,-82,-58
9,9,0,-9,4,4,58,19,4,53,-82,-58
9,9,0,-9,4,4,58,19,14,63,-82,-58
9,9,0,-9,4,4,58,19,24,63,-82,-58
0,0,0,0,0,0,58,19,29,63,-68,-48
0,0,0,0,0,0,58,24,34,53,-68,-43
-4,0,4,2,-4,2,58,24,34,53,-63,-43
-4,0,4,2,-4,2,58,24,34,58,-63,-43
-4,0,4,2,-4,2,58,34,29,68,-63,-43
-4,0,4,2,-4,2,58,34,29,73,-63,-43
0,4,4,-2,-2,4,58,29,34,73,-58,-43
0,4,4,-2,-2,4,58,29,34,73,-58,-39
0,4,4,-2,-2,4,58,29,39,68,-58,-39
-4,0,4,2,-4,2,58,34,39,68,-58,-39
-4,-4,0,4,-2,-2,58,34,39,68,-58,-39
0,-4,-4,2,2,-4,58,34,39,68,-53,-39
0,4,4,-2,-2,4,48,24,39,68,-63,-39
0,4,4,-2,-2,4,48,29,39,68,-63,-39
0,4,4,-2,-2,4,48,34,39,73,-63,-39
0,4,4,-2,-2,4,48,34,43,78,-58,-39
0,0,0,0,0,0,58,34,43,78,-58,-39
0,0,0,0,0,0,53,34,43,78,-58,-39
0,0,0,0,0,0,53,34,43,73,-63,-39
0,4,4,-2,-2,4,58,34,43,73,-63,-39
0,4,4,-2,-2,4,58,43,43,68,-48,-43
0,4,4,-2,-2,4,58,43,48,68,-43,-43
0,4,4,-2,-2,4,53,43,48,68,-39,-43
-4,4,9,0,-7,7,53,43,43,73,-39,-43
4,4,0,-4,2,2,53,34,43,78,-39,-43
4,4,0,-4,2,2,53,39,43,78,-39,-43
4,0,-4,-2,4,-2,58,39,43,78,-39,-43
4,0,-4,-2,4,-2,58,39,43,78,-39,-43
4,0,-4,-2,4,-2,58,48,43,68,-39,-43
4,0,-4,-2,4,-2,58,48,43,68,-43,-43
4,0,-4,-2,4,-2,58,48,39,68,-43,-43
4,0,-4,-2,4,-2,58,48,39,68,-43,-43
4,9,4,-7,0,7,48,39,43,68,-43,-53
4,4,0,-4,2,2,48,39,43,68,-43,-53
9,4,-4,-7,7,0,48,39,43,73,-43,-53
9,4,-4,-7,7,0,48,39,43,78,-39,-53
0,-4,-4,2,2,-4,48,39,34,78,-39,-53
0,-4,-4,2,2,-4,48,39,39,78,-39,-48
0,-4,-4,2,2,-4,48,39,43,78,-39,-48
0,-4,-4,2,2,-4,48,43,43,78,-39,-48
0,-19,-19,9,9,-19,58,43,48,87,-29,-39
0,-19,-19,9,9,-19,58,43,48,87,-29,-43
0,-19,-19,9,9,-19,58,43,48,92,-29,-43
0,-19,-19,9,9,-19,58,43,58,92,-29,-48
0,-29,-29,14,14,-29,68,43,48,97,-29,-39
0,-34,-34,17,17,-34,68,43,43,92,-34,-39
0,-34,-34,17,17,-34,68,43,43,92,-34,-39
0,-34,-34,17,17,-34,73,43,43,92,-34,-39
0,-24,-24,12,12,-24,63,43,53,92,-34,-48
0,-24,-24,12,12,-24,63,43,53,92,-39,-48
-4,-24,-19,14,7,-21,63,43,53,92,-39,-48
-4,-24,-19,14,7,-21,63,43,53,92,-39,-48
0,-24,-24,12,12,-24,63,34,58,87,-48,-48
0,-29,-29,14,14,-29,63,34,58,87,-43,-48
0,-29,-29,14,14,-29,63,34,58,87,-39,-48
0,-29,-29,14,14,-29,63,39,58,87,-39,-48
0,-29,-29,14,14,-29,63,39,58,87,-43,-48
0,-39,-39,19,19,-39,68,39,58,87,-43,-53
0,-43,-43,21,21,-43,68,43,63,87,-43,-53
0,-43,-43,21,21,-43,68,43,63,92,-48,-48
-4,-39,-34,21,14,-36,68,43,53,92,-48,-48
-4,-34,-29,19,12,-31,68,43,53,92,-48,-53
-4,-34,-29,19,12,-31,68,43,58,92,-48,-58
0,-29,-29,14,14,-29,68,43,58,82,-53,-58
0,-19,-19,9,9,-19,68,34,48,73,-73,-63
0,-19,-19,9,9,-19,68,34,48,78,-63,-63
0,-14,-14,7,7,-14,68,39,48,82,-53,-63
0,-14,-14,7,7,-14,68,39,48,87,-53,-63
-9,-19,-9,14,0,-14,63,43,48,87,-63,-63
-9,-19,-9,14,0,-14,63,43,48,87,-63,-63
-9,-9,0,9,-4,-4,63,43,53,82,-63,-63
-9,-9,0,9,-4,-4,63,43,53,82,-63,-63
0,-19,-19,9,9,-19,58,34,63,78,-73,-63
-4,-19,-14,12,4,-17,58,39,63,73,-73,-68
-4,-19,-14,12,4,-17,58,39,63,73,-73,-68
0,-24,-24,12,12,-24,53,39,58,73,-78,-68
0,-24,-24,12,12,-24,63,39,58,73,-78,-78
0,-24,-24,12,12,-24,63,39,58,73,-78,-78
0,-24,-24,12,12,-24,63,34,58,73,-78,-78
0,-24,-24,12,12,-24,63,34,63,73,-87,-78
0,-19,-19,9,9,-19,58,39,63,78,-97,-78
0,-19,-19,9,9,-19,58,39,63,78,-92,-78
0,-24,-24,12,12,-24,58,39,63,73,-92,-78
-4,-24,-19,14,7,-21,63,39,63,68,-97,-78
-4,-24,-19,14,7,-21,53,39,63,73,-87,-78
-4,-24,-19,14,7,-21,53,39,63,73,-92,-78
-4,-24,-19,14,7,-21,53,39,63,73,-92,-78
-4,-19,-14,12,4,-17,58,39,63,73,-92,-78
-4,-19,-14,12,4,-17,58,48,53,73,-82,-78
-4,-19,-14,12,4,-17,58,48,58,73,-82,-78
-4,-19,-14,12,4,-17,53,48,63,73,-82,-78
-4,-19,-14,12,4,-17,53,48,63,73,-78,-78
4,-9,-14,2,9,-12,53,48,63,68,-82,-78
9,-9,-19,0,14,-14,53,48,63,73,-82,-82
9,-9,-19,0,14,-14,53,43,58,78,-82,-82
9,-9,-19,0,14,-14,53,43,53,82,-87,-82
4,-34,-39,14,21,-36,58,48,68,87,-78,-78
4,-48,-53,21,29,-51,63,53,78,87,-73,-73
4,-58,-63,26,34,-61,68,58,87,87,-73,-68
4,-73,-78,34,41,-75,78,63,92,87,-73,-63
9,-92,-102,41,56,-97,87,73,102,92,-68,-58
9,-97,-107,43,58,-102,82,78,102,97,-73,-48
9,-102,-112,46,61,-107,82,82,107,102,-68,-43
9,-112,-122,51,65,-117,82,92,107,107,-68,-39
9,-112,-122,51,65,-117,73,92,107,117,-68,-43
9,-112,-122,51,65,-117,78,92,107,112,-68,-43
9,-107,-117,48,63,-112,82,92,107,112,-68,-48
9,-107,-117,48,63,-112,82,92,107,112,-68,-48
0,-107,-107,53,53,-107,78,82,102,107,-63,-43
0,-107,-107,53,53,-107,78,82,102,107,-63,-43
0,-107,-107,53,53,-107,78,82,102,112,-58,-43
0,-107,-107,53,53,-107,73,82,102,112,-58,-43
9,-107,-117,48,63,-112,73,82,102,107,-58,-43
9,-107,-117,48,63,-112,73,78,102,97,-58,-43
9,-107,-117,48,63,-112,73,78,102,92,-58,-43
9,-102,-112,46,61,-107,73,78,102,92,-58,-43
0,-112,-112,56,56,-112,73,78,92,102,-68,-43
0,-107,-107,53,53,-107,73,82,92,102,-68,-53
4,-102,-107,48,56,-104,73,82,97,97,-68,-53
9,-97,-107,43,58,-102,73,82,102,97,-68,-53
0,-102,-102,51,51,-102,73,87,102,92,-63,-48
0,-102,-102,51,51,-102,73,87,102,87,-63,-48
0,-102,-102,51,51,-102,73,92,102,82,-63,-48
0,-102,-102,51,51,-102,73,92,97,78,-58,-48
0,-92,-92,46,46,-92,82,82,97,48,-68,-48
0,-92,-92,46,46,-92,82,78,97,34,-68,-48
0,-92,-92,46,46,-92,82,78,97,19,-68,-48
4,-97,-102,46,53,-100,82,78,97,4,-68,-48
4,-92,-97,43,51,-95,73,87,92,-9,-68,-48
4,-97,-102,46,53,-100,73,87,87,-19,-73,-53
4,-97,-102,46,53,-100,73,87,87,-24,-73,-53
4,-97,-102,46,53,-100,73,87,82,-29,-73,-53
0,-97,-97,48,48,-97,73,82,82,-43,-68,-53
0,-97,-97,48,48,-97,73,82,78,-48,-68,-63
0,-97,-97,48,48,-97,73,82,78,-53,-63,-63
0,-97,-97,48,48,-97,73,82,78,-58,-58,-63
0,-97,-97,48,48,-97,73,73,78,-63,-58,-63
0,-97,-97,48,48,-97,73,68,68,-68,-58,-63
4,-92,-97,43,51,-95,73,68,68,-78,-58,-63
4,-87,-92,41,48,-90,73,63,63,-82,-63,-63
-4,-78,-73,41,34,-75,63,63,63,-87,-63,-68
-4,-87,-82,46,39,-85,63,63,53,-97,-63,-68
-4,-87,-82,46,39,-85,63,63,48,-102,-63,-68
-9,-92,-82,51,36,-87,63,63,48,-107,-68,-73
0,-92,-92,46,46,-92,63,53,39,-107,-73,-73
0,-87,-87,43,43,-87,63,53,39,-117,-73,-73
0,-87,-87,43,43,-87,63,48,34,-122,-73,-73
0,-87,-87,43,43,-87,68,43,29,-122,-78,-78
-9,-97,-87,53,39,-92,68,53,34,-117,-73,-68
-9,-97,-87,53,39,-92,68,53,34,-122,-73,-68
-9,-97,-87,53,39,-92,63,53,29,-122,-78,-68
-9,-92,-82,51,36,-87,63,43,29,-126,-78,-73
-9,-87,-78,48,34,-82,63,43,24,-131,-68,-82
-9,-82,-73,46,31,-78,63,43,24,-136,-68,-82
-9,-82,-73,46,31,-78,63,39,19,-146,-73,-82
-9,-82,-73,46,31,-78,58,34,9,-146,-78,-82
-9,-82,-73,46,31,-78,53,29,9,-151,-68,-73
-9,-78,-68,43,29,-73,53,29,4,-151,-68,-73
-14,-78,-63,46,24,-70,58,29,0,-151,-68,-73
-14,-78,-63,46,24,-70,58,24,0,-151,-68,-73
-14,-92,-78,53,31,-85,63,29,-4,-151,-63,-73
-14,-97,-82,56,34,-90,63,24,-9,-151,-58,-73
-14,-102,-87,58,36,-95,63,24,-9,-151,-53,-73
-14,-107,-92,61,39,-100,63,24,-14,-151,-48,-73
-14,-92,-78,53,31,-85,68,14,-14,-151,-39,-63
-14,-92,-78,53,31,-85,68,9,-19,-151,-39,-63
-14,-92,-78,53,31,-85,68,9,-19,-151,-39,-63
-14,-92,-78,53,31,-85,68,9,-29,-151,-39,-63
-14,-78,-63,46,24,-70,68,9,-29,-151,-39,-63
-14,-78,-63,46,24,-70,63,9,-34,-156,-39,-63
-14,-78,-63,46,24,-70,58,9,-34,-156,-39,-58
-14,-78,-63,46,24,-70,58,9,-39,-161,-39,-58
-14,-82,-68,48,26,-75,58,9,-39,-161,-39,-58
-9,-82,-73,46,31,-78,58,9,-39,-161,-39,-53
-9,-82,-73,46,31,-78,58,4,-39,-161,-34,-53
-9,-78,-68,43,29,-73,58,4,-39,-161,-34,-48
-9,-78,-68,43,29,-73,53,-4,-39,-161,-39,-48
-9,-73,-63,41,26,-68,53,-9,-39,-161,-34,-43
-9,-73,-63,41,26,-68,58,-9,-39,-161,-34,-39
-9,-73,-63,41,26,-68,58,-9,-39,-161,-34,-34
0,-73,-73,36,36,-73,48,-4,-39,-165,-34,-34
0,-68,-68,34,34,-68,48,-4,-39,-165,-39,-29
0,-68,-68,34,34,-68,43,-4,-34,-170,-39,-24
0,-78,-78,39,39,-78,43,-4,-29,-175,-39,-24
-9,-78,-68,43,29,-73,53,4,-24,-170,-39,-14
-4,-73,-68,39,31,-70,53,4,-24,-170,-29,-14
-4,-73,-68,39,31,-70,53,9,-24,-170,-24,-9
-4,-73,-68,39,31,-70,53,9,-19,-165,-24,-4
-4,-63,-58,34,26,-61,43,0,-14,-170,-19,-4
-4,-58,-53,31,24,-56,43,0,-14,-170,-14,-4
-4,-58,-53,31,24,-56,39,0,-9,-165,-14,-4
-4,-58,-53,31,24,-56,39,4,0,-165,-9,0
0,-53,-53,26,26,-53,39,9,-4,-170,-9,-9
0,-53,-53,26,26,-53,39,9,0,-170,-4,-4
0,-53,-53,26,26,-53,39,9,4,-161,-4,-4
0,-53,-53,26,26,-53,39,9,9,-161,-4,0
4,-43,-48,19,26,-46,39,14,9,-161,-4,0
4,-43,-48,19,26,-46,39,14,14,-161,0,0
4,-43,-48,19,26,-46,34,19,14,-156,0,0
4,-48,-53,21,29,-51,34,19,24,-156,0,0
4,-53,-58,24,31,-56,43,34,29,-146,14,14
4,-53,-58,24,31,-56,43,34,39,-151,14,14
4,-58,-63,26,34,-61,43,34,39,-151,14,14
9,-58,-68,24,39,-63,43,34,34,-146,24,14
9,-68,-78,29,43,-73,43,43,43,-146,24,14
9,-68,-78,29,43,-73,43,48,48,-146,24,14
14,-63,-78,24,46,-70,39,48,48,-146,24,14
14,-63,-78,24,46,-70,39,48,53,-146,29,14
14,-53,-68,19,41,-61,39,39,43,-146,19,4
14,-53,-68,19,41,-61,39,43,53,-146,19,4
14,-53,-68,19,41,-61,39,43,53,-146,19,4
14,-53,-68,19,41,-61,39,48,53,-146,19,4
14,-58,-73,21,43,-65,48,48,58,-141,29,14
14,-68,-82,26,48,-75,48,48,58,-141,29,14
19,-73,-92,26,56,-82,43,53,63,-136,29,14
19,-78,-97,29,58,-87,43,53,63,-136,34,14
29,-87,-117,29,73,-102,43,63,73,-136,24,14
29,-87,-117,29,73,-102,43,63,73,-136,24,14
29,-87,-117,29,73,-102,43,63,78,-136,24,14
34,-87,-122,26,78,-104,43,63,78,-136,24,14
24,-78,-102,26,63,-90,43,63,68,-131,34,14
24,-78,-102,26,63,-90,43,63,73,-131,34,14
24,-78,-102,26,63,-90,43,63,73,-136,34,14
24,-78,-102,26,63,-90,43,63,73,-136,34,14
19,-92,-112,36,65,-102,43,68,73,-136,39,14
19,-92,-112,36,65,-102,43,68,73,-136,39,14
19,-92,-112,36,65,-102,43,68,73,-136,39,14
19,-92,-112,36,65,-102,43,68,73,-136,39,14
19,-102,-122,41,70,-112,48,73,73,-131,43,14
19,-102,-122,41,70,-112,48,73,78,-131,43,14
24,-102,-126,39,75,-114,48,73,78,-131,39,14
24,-102,-126,39,75,-114,48,68,73,-136,39,14
24,-102,-126,39,75,-114,58,68,82,-146,39,14
29,-102,-131,36,80,-117,58,73,82,-141,34,14
29,-107,-136,39,82,-122,58,73,82,-136,34,14
24,-107,-131,41,78,-119,58,73,82,-126,29,14
24,-102,-126,39,75,-114,58,73,82,-131,29,14
24,-102,-126,39,75,-114,58,73,82,-131,34,14
24,-102,-126,39,75,-114,58,73,78,-131,34,14
24,-102,-126,39,75,-114,58,68,78,-131,34,14
24,-102,-126,39,75,-114,58,68,82,-136,43,14
24,-102,-126,39,75,-114,58,68,82,-136,43,14
24,-102,-126,39,75,-114,58,68,82,-136,43,14
24,-112,-136,43,80,-124,58,73,82,-126,48,14
14,-112,-126,48,70,-119,48,73,82,-126,39,14
24,-107,-131,41,78,-119,48,68,82,-126,39,14
24,-97,-122,36,73,-109,43,68,82,-126,39,14
24,-87,-112,31,68,-100,43,63,82,-126,39,14
24,-92,-117,34,70,-104,48,68,82,-122,39,19
24,-97,-122,36,73,-109,48,68,78,-122,43,19
24,-92,-117,34,70,-104,48,68,78,-122,48,19
24,-97,-122,36,73,-109,43,68,73,-117,53,19
24,-112,-136,43,80,-124,53,63,73,-112,53,19
24,-112,-136,43,80,-124,53,63,78,-112,53,19
24,-107,-131,41,78,-119,53,63,78,-112,53,19
24,-107,-131,41,78,-119,53,63,78,-107,53,19
24,-112,-136,43,80,-124,53,63,78,-97,53,29
24,-117,-141,46,82,-129,53,63,78,-97,53,29
24,-122,-146,48,85,-134,53,63,73,-107,53,29
24,-122,-146,48,85,-134,53,63,73,-107,53,24
24,-107,-131,41,78,-119,48,58,73,-97,53,24
24,-107,-131,41,78,-119,48,58,73,-97,58,24
24,-107,-131,41,78,-119,48,58,68,-97,58,24
24,-107,-131,41,78,-119,53,58,68,-107,63,29
14,-107,-122,46,68,-114,53,68,68,-102,63,29
14,-112,-126,48,70,-119,53,68,68,-97,63,29
14,-117,-131,51,73,-124,53,68,68,-97,63,29
14,-122,-136,53,75,-129,48,68,68,-97,63,29
24,-107,-131,41,78,-119,48,68,68,-92,53,24
24,-107,-131,41,78,-119,48,68,68,-87,53,24
24,-102,-126,39,75,-114,48,63,68,-87,53,24
24,-102,-126,39,75,-114,48,63,63,-82,53,24
24,-102,-126,39,75,-114,53,53,63,-78,53,34
24,-102,-126,39,75,-114,53,53,63,-73,48,34
24,-102,-126,39,75,-114,53,53,63,-68,48,29
24,-102,-126,39,75,-114,53,53,63,-68,48,29
14,-102,-117,43,65,-109,43,53,53,-68,48,29
14,-102,-117,43,65,-109,43,53,58,-68,48,29
14,-102,-117,43,65,-109,43,53,58,-68,48,24
14,-102,-117,43,65,-109,43,53,58,-68,43,24
24,-87,-112,31,68,-100,34,43,48,-68,39,19
19,-82,-102,31,61,-92,34,43,53,-68,39,19
19,-78,-97,29,58,-87,34,43,53,-68,43,19
19,-73,-92,26,56,-82,34,43,48,-68,43,19
19,-63,-82,21,51,-73,24,43,48,-63,39,19
19,-63,-82,21,51,-73,24,43,48,-63,34,19
19,-63,-82,21,51,-73,24,43,48,-63,29,14
19,-63,-82,21,51,-73,24,43,48,-63,24,14
14,-63,-78,24,46,-70,24,43,48,-53,34,14
14,-63,-78,24,46,-70,24,43,48,-53,34,14
14,-63,-78,24,46,-70,24,43,48,-53,34,14
14,-68,-82,26,48,-75,24,43,48,-53,34,14
24,-58,-82,17,53,-70,24,34,39,-43,34,14
24,-58,-82,17,53,-70,24,34,39,-48,34,14
24,-58,-82,17,53,-70,24,34,39,-48,29,14
24,-58,-82,17,53,-70,24,34,43,-48,29,14
19,-58,-78,19,48,-68,34,34,43,-48,29,4
19,-58,-78,19,48,-68,34,34,43,-43,29,4
19,-58,-78,19,48,-68,34,34,43,-39,29,4
19,-58,-78,19,48,-68,34,34,43,-39,29,4
19,-58,-78,19,48,-68,34,29,43,-48,29,14
19,-58,-78,19,48,-68,34,29,43,-43,29,14
19,-58,-78,19,48,-68,34,34,43,-43,29,14
19,-58,-78,19,48,-68,34,34,43,-43,29,14
29,-48,-78,9,53,-63,34,34,29,-48,19,4
24,-48,-73,12,48,-61,34,34,29,-48,19,4
24,-48,-73,12,48,-61,34,34,34,-43,19,4
24,-48,-73,12,48,-61,34,34,34,-43,19,4
24,-58,-82,17,53,-70,43,43,43,-34,29,4
24,-58,-82,17,53,-70,48,43,43,-34,29,4
24,-58,-82,17,53,-70,48,43,43,-39,29,4
29,-58,-87,14,58,-73,48,43,43,-39,29,4
24,-63,-87,19,56,-75,39,53,43,-24,39,14
24,-63,-87,19,56,-75,39,53,43,-24,39,14
19,-63,-82,21,51,-73,39,53,43,-29,39,14
14,-63,-78,24,46,-70,39,53,43,-34,39,14
14,-63,-78,24,46,-70,39,43,43,-34,29,4
14,-63,-78,24,46,-70,34,43,43,-34,24,4
14,-63,-78,24,46,-70,34,43,43,-29,24,4
14,-63,-78,24,46,-70,34,43,43,-19,24,4
14,-34,-48,9,31,-41,19,29,34,-29,14,-4
14,-9,-24,-2,19,-17,14,24,24,-29,9,-9
14,9,-4,-12,9,2,9,19,14,-29,9,-14
14,29,14,-21,0,21,4,14,4,-39,4,-19
24,48,24,-36,0,36,-4,4,0,-43,0,-24
24,53,29,-39,-2,41,-4,4,0,-48,-4,-29
24,63,39,-43,-7,51,-4,4,0,-58,-9,-34
24,68,43,-46,-9,56,-9,0,0,-63,-14,-39
14,73,58,-43,-21,65,-19,-4,0,-63,-14,-48
14,78,63,-46,-24,70,-19,-4,0,-63,-14,-48
14,82,68,-48,-26,75,-19,0,0,-63,-14,-48
14,87,73,-51,-29,80,-19,0,0,-58,-19,-48
14,92,78,-53,-31,85,-19,-9,-4,-58,-29,-48
14,92,78,-53,-31,85,-19,-9,-4,-63,-29,-48
14,87,73,-51,-29,80,-19,-9,-9,-82,-29,-48
19,82,63,-51,-21,73,-19,-9,-9,-92,-29,-48
19,82,63,-51,-21,73,-29,-9,-9,-87,-29,-48
19,82,63,-51,-21,73,-24,-9,-4,-78,-29,-48
19,82,63,-51,-21,73,-24,-9,-4,-68,-29,-48
19,82,63,-51,-21,73,-24,-9,-4,-63,-29,-48
19,87,68,-53,-24,78,-24,-9,-4,-63,-29,-48
19,87,68,-53,-24,78,-19,-9,0,-68,-29,-48
19,87,68,-53,-24,78,-29,-9,-9,-68,-39,-48
19,87,68,-53,-24,78,-29,-9,-9,-68,-39,-48
19,87,68,-53,-24,78,-29,-9,-9,-68,-39,-48
19,87,68,-53,-24,78,-29,-9,-9,-68,-39,-48
19,97,78,-58,-29,87,-29,-9,-9,-58,-29,-48
19,97,78,-58,-29,87,-29,-9,-9,-58,-29,-48
19,97,78,-58,-29,87,-29,-9,-9,-58,-29,-48
19,97,78,-58,-29,87,-29,-9,-9,-58,-29,-48
19,97,78,-58,-29,87,-29,-19,-9,-58,-29,-58
19,97,78,-58,-29,87,-29,-19,-9,-58,-29,-58
19,97,78,-58,-29,87,-29,-19,-9,-58,-29,-58
19,97,78,-58,-29,87,-29,-19,-9,-58,-29,-58
19,97,78,-58,-29,87,-29,-19,-9,-58,-19,-48
19,97,78,-58,-29,87,-29,-19,-9,-58,-19,-48
19,97,78,-58,-29,87,-29,-19,-9,-58,-19,-48
19,97,78,-58,-29,87,-29,-19,-9,-58,-19,-48
19,97,78,-58,-29,87,-29,-19,-9,-58,-29,-48
19,97,78,-58,-29,87,-29,-19,-9,-58,-29,-48
19,97,78,-58,-29,87,-29,-19,-9,-58,-29,-48
19,97,78,-58,-29,87,-29,-19,-9,-58,-29,-48
19,97,78,-58,-29,87,-29,-19,-9,-48,-29,-48
19,97,78,-58,-29,87,-29,-19,-9,-48,-29,-48
19,97,78,-58,-29,87,-29,-19,-9,-48,-29,-48
19,97,78,-58,-29,87,-29,-19,-9,-48,-29,-48
19,97,78,-58,-29,87,-19,-19,-9,-48,-19,-48
19,97,78,-58,-29,87,-19,-19,-9,-48,-19,-48
19,97,78,-58,-29,87,-19,-19,-9,-48,-19,-48
19,97,78,-58,-29,87,-19,-19,-9,-48,-19,-48
19,92,73,-56,-26,82,-9,-19,-9,-48,-9,-39
19,87,68,-53,-24,78,-9,-19,-9,-48,-9,-39
19,82,63,-51,-21,73,-9,-19,-9,-48,-9,-39
19,78,58,-48,-19,68,-9,-19,-9,-48,-9,-39
19,87,68,-53,-24,78,0,-19,-9,-39,-9,-39
19,87,68,-53,-24,78,0,-19,-9,-39,-9,-39
19,87,68,-53,-24,78,0,-19,-9,-39,-9,-39
19,87,68,-53,-24,78,0,-19,-9,-39,-9,-39
9,87,78,-48,-34,82,-9,-19,0,-48,-9,-39
9,87,78,-48,-34,82,-9,-19,0,-48,-9,-39
9,87,78,-48,-34,82,-9,-19,0,-48,-9,-39
9,87,78,-48,-34,82,-9,-19,0,-48,-9,-39
19,87,68,-53,-24,78,-9,-19,0,-39,4,-29
19,87,68,-53,-24,78,-9,-19,0,-39,9,-29
19,87,68,-53,-24,78,-9,-19,0,-39,14,-29
19,87,68,-53,-24,78,-9,-19,0,-39,19,-29
19,97,78,-58,-29,87,-9,-9,9,-29,29,-19
19,97,78,-58,-29,87,-9,-9,9,-29,29,-19
19,97,78,-58,-29,87,-9,-9,9,-29,29,-19
19,97,78,-58,-29,87,-9,-9,9,-29,29,-19
29,107,78,-68,-24,92,-14,-9,24,-24,34,-19
29,117,87,-73,-29,102,-19,-9,29,-19,39,-19
29,126,97,-78,-34,112,-24,-9,34,-14,43,-19
29,136,107,-82,-39,122,-29,-9,39,-9,48,-19
29,151,122,-90,-46,136,-39,-9,43,-4,53,-14
29,156,126,-92,-48,141,-39,-9,48,0,58,-9
29,161,131,-95,-51,146,-39,-9,53,4,63,-4
29,165,136,-97,-53,151,-39,-9,58,9,68,0
39,156,117,-97,-39,136,-39,0,73,24,82,4
39,156,117,-97,-39,136,-39,0,78,29,87,9
39,156,117,-97,-39,136,-39,0,82,34,92,14
39,156,117,-97,-39,136,-39,0,87,39,97,19
43,165,122,-104,-39,143,-58,4,97,48,97,29
48,165,117,-107,-34,141,-68,9,97,48,97,29
53,165,112,-109,-29,139,-78,14,97,48,97,29
63,165,102,-114,-19,134,-97,19,92,48,102,29
63,165,102,-114,-19,134,-112,4,78,39,97,29
63,170,107,-117,-21,139,-117,-4,73,39,92,29
63,170,107,-117,-21,139,-126,-14,58,39,92,34
63,170,107,-117,-21,139,-131,-24,48,34,87,34
63,170,107,-117,-21,139,-122,-24,34,29,97,34
63,170,107,-117,-21,139,-117,-29,29,29,97,34
53,161,107,-107,-26,134,-117,-29,19,24,87,34
53,156,102,-104,-24,129,-117,-34,4,9,82,34
43,146,102,-95,-29,124,-117,-29,-4,4,68,34
48,146,97,-97,-24,122,-122,-34,-14,0,63,29
48,146,97,-97,-24,122,-122,-39,-24,-4,58,24
48,141,92,-95,-21,117,-122,-43,-34,-19,53,19
48,136,87,-92,-19,112,-126,-53,-43,-14,48,9
48,136,87,-92,-19,112,-126,-58,-53,-19,43,9
48,131,82,-90,-17,107,-126,-63,-63,-24,39,9
48,126,78,-87,-14,102,-117,-63,-68,-24,39,9
48,126,78,-87,-14,102,-117,-63,-73,-39,29,19
48,131,82,-90,-17,107,-117,-63,-73,-39,29,19
53,131,78,-92,-12,104,-112,-63,-78,-39,29,19
63,131,68,-97,-2,100,-112,-63,-82,-43,19,14
53,117,63,-85,-4,90,-107,-53,-78,-53,24,9
53,102,48,-78,2,75,-97,-53,-82,-63,19,4
53,97,43,-75,4,70,-92,-53,-87,-63,19,0
48,92,43,-70,2,68,-87,-48,-87,-63,14,-4
53,92,39,-73,7,65,-82,-48,-82,-63,4,-4
48,92,43,-70,2,68,-78,-48,-73,-58,14,-4
48,92,43,-70,2,68,-73,-43,-68,-58,19,-9
43,82,39,-63,2,61,-63,-34,-63,-58,19,-9
39,87,48,-63,-4,68,-58,-39,-58,-58,9,-9
39,87,48,-63,-4,68,-53,-34,-53,-58,9,-19
34,82,48,-58,-7,65,-39,-29,-48,-58,9,-19
24,78,53,-51,-14,65,-29,-29,-39,-53,9,-24
9,63,53,-36,-21,58,-9,-24,-39,-53,-9,-29
4,58,53,-31,-24,56,-9,-24,-39,-53,-14,-34
0,53,53,-26,-26,53,-4,-24,-39,-53,-14,-39
-4,48,53,-21,-29,51,0,-24,-39,-53,-14,-43
-4,48,53,-21,-29,51,0,-34,-48,-63,-14,-43
-4,48,53,-21,-29,51,0,-34,-48,-53,-14,-43
-4,48,53,-21,-29,51,0,-34,-48,-53,-9,-43
-4,48,53,-21,-29,51,0,-34,-48,-53,-9,-39
-4,53,58,-24,-31,56,0,-24,-58,-53,-19,-48
-4,53,58,-24,-31,56,0,-24,-58,-48,-19,-48
-4,53,58,-24,-31,56,0,-24,-58,-48,-19,-48
-4,53,58,-24,-31,56,0,-24,-58,-48,-19,-48
-4,63,68,-29,-36,65,-4,-24,-63,-53,-14,-43
-4,58,63,-26,-34,61,-4,-24,-63,-53,-14,-43
-4,58,63,-26,-34,61,-4,-24,-58,-53,-14,-43
-9,58,68,-24,-39,63,-9,-24,-58,-48,-14,-43
-19,68,87,-24,-53,78,-9,-24,-58,-58,-29,-53
-19,68,87,-24,-53,78,-9,-24,-58,-58,-34,-53
-19,68,87,-24,-53,78,-4,-24,-58,-58,-34,-53
-19,68,87,-24,-53,78,-4,-24,-58,-53,-39,-53
-19,53,73,-17,-46,63,-14,-14,-48,-53,-48,-43
-19,48,68,-14,-43,58,-14,-14,-48,-53,-48,-43
-19,43,63,-12,-41,53,-14,-9,-48,-53,-48,-43
-19,39,58,-9,-39,48,-14,-9,-48,-48,-48,-43
-19,39,58,-9,-39,48,-4,-9,-48,-48,-48,-43
-19,39,58,-9,-39,48,-4,-14,-48,-48,-48,-43
-19,39,58,-9,-39,48,0,-14,-48,-48,-48,-43
-19,39,58,-9,-39,48,0,-14,-53,-48,-48,-43
-9,43,53,-17,-31,48,-4,-14,-43,-48,-58,-43
-9,48,58,-19,-34,53,-4,-14,-43,-48,-58,-43
-9,48,58,-19,-34,53,-4,-14,-39,-48,-58,-43
-9,53,63,-21,-36,58,-4,-14,-39,-48,-58,-43
-9,58,68,-24,-39,63,-4,-14,-39,-48,-58,-43
-19,48,68,-14,-43,58,4,-14,-39,-43,-58,-43
-19,48,68,-14,-43,58,4,-9,-24,-34,-58,-43
-19,58,78,-19,-48,68,0,0,0,-34,-58,-48
-29,39,68,-4,-48,53,14,19,19,-19,-48,-63
-29,29,58,0,-43,43,29,43,43,-9,-48,-78
-29,24,53,2,-41,39,39,68,78,4,-48,-92
-34,34,68,0,-51,51,43,82,107,34,-34,-73
-39,39,78,0,-58,58,58,92,151,73,9,-53
-48,43,92,2,-70,68,68,112,185,112,43,-29
-48,68,117,-9,-82,92,58,112,204,136,73,9
-39,92,131,-26,-85,112,43,92,195,146,126,78
-24,102,126,-39,-75,114,24,68,165,146,170,156
-9,112,122,-51,-65,117,0,48,136,136,190,204
19,141,122,-80,-51,131,-34,34,122,136,234,273
53,175,122,-114,-34,148,-78,24,122,151,292,351
87,190,102,-139,-7,146,-97,34,141,170,322,414
126,200,73,-163,26,136,-131,63,175,190,336,483
195,200,4,-197,95,102,-156,102,204,180,346,531
258,180,-78,-219,168,51,-185,146,214,156,312,541
331,165,-165,-248,248,0,-214,165,165,97,248,522
390,156,-234,-273,312,-39,-248,165,102,58,204,502
444,165,-278,-305,361,-56,-283,146,53,48,165,453
468,165,-302,-317,385,-68,-307,102,4,68,126,385
458,165,-292,-312,375,-63,-312,9,-68,97,102,317
429,151,-278,-290,353,-63,-287,-68,-151,107,78,234
395,107,-287,-251,341,-90,-244,-112,-219,73,-4,102
351,14,-336,-183,344,-161,-190,-146,-302,9,-161,-92
292,-68,-361,-112,326,-214,-141,-214,-424,-78,-283,-239
204,-122,-326,-41,265,-224,-78,-326,-570,-175,-366,-341
131,-161,-292,14,212,-226,-39,-395,-663,-263,-448,-409
82,-200,-283,58,183,-241,0,-400,-736,-366,-556,-463
19,-219,-239,100,129,-229,43,-429,-888,-478,-639,-483
-92,-204,-112,148,9,-158,87,-492,-1039,-551,-658,-458
-190,-180,9,185,-100,-85,126,-527,-1112,-566,-649,-458
-229,-190,39,209,-134,-75,141,-507,-1141,-600,-663,-488
-224,-190,34,207,-129,-78,141,-473,-1141,-610,-663,-497
-239,-161,78,200,-158,-41,131,-458,-1107,-585,-610,-463
-239,-161,78,200,-158,-41,136,-424,-1034,-561,-561,-419
-200,-190,9,195,-104,-90,126,-356,-932,-541,-531,-400
-165,-180,-14,173,-75,-97,102,-297,-824,-507,-488,-366
-126,-141,-14,134,-56,-78,53,-292,-736,-453,-434,-307
-87,-102,-14,95,-36,-58,4,-278,-634,-380,-370,-253
-58,-73,-14,65,-21,-43,-29,-204,-502,-297,-312,-214
-34,-34,0,34,-17,-17,-48,-126,-351,-214,-234,-165
-24,4,29,9,-26,17,-58,-102,-253,-156,-170,-117
-34,34,68,0,-51,51,-58,-97,-190,-107,-141,-82
-34,39,73,-2,-53,56,-39,-78,-136,-87,-112,-68
-24,29,53,-2,-39,41,-19,-73,-112,-78,-97,-58
-24,19,43,2,-34,31,-19,-68,-102,-78,-92,-48
-19,9,29,4,-24,19,-4,-48,-92,-78,-82,-48
-29,0,29,14,-29,14,0,-34,-82,-63,-73,-48
-29,0,29,14,-29,14,0,-29,-73,-53,-73,-48
-29,0,29,14,-29,14,0,-29,-63,-43,-73,-48
-29,0,29,14,-29,14,0,-29,-53,-43,-73,-48
-29,9,39,9,-34,24,-9,-29,-48,-43,-68,-48
-29,9,39,9,-34,24,-9,-24,-43,-53,-68,-43
-34,9,43,12,-39,26,-9,-24,-43,-53,-63,-43
-34,9,43,12,-39,26,-9,-24,-43,-48,-63,-43
-24,19,43,2,-34,31,-9,-14,-48,-39,-63,-34
-24,19,43,2,-34,31,-9,-14,-48,-34,-63,-34
-19,24,43,-2,-31,34,-9,-19,-43,-34,-58,-34
-19,24,43,-2,-31,34,-9,-19,-43,-34,-58,-29
-29,24,53,2,-41,39,-19,-19,-39,-29,-58,-29
-34,19,53,7,-43,36,-19,-14,-39,-29,-58,-29
-34,14,48,9,-41,31,-19,-14,-39,-29,-58,-29
-29,14,43,7,-36,29,-19,-14,-39,-29,-53,-29
-29,14,43,7,-36,29,-19,-14,-29,-39,-53,-29
-29,14,43,7,-36,29,-19,-9,-29,-39,-53,-29
-29,14,43,7,-36,29,-19,-4,-29,-34,-53,-29
-29,14,43,7,-36,29,-19,-4,-24,-29,-48,-29
-19,19,39,0,-29,29,-19,-14,-34,-39,-43,-29
-19,19,39,0,-29,29,-24,-14,-34,-39,-39,-29
-19,19,39,0,-29,29,-24,-14,-34,-43,-39,-29
-19,24,43,-2,-31,34,-19,-14,-34,-43,-34,-29
-29,14,43,7,-36,29,-19,-4,-43,-39,-29,-24
-29,14,43,7,-36,29,-19,-4,-39,-39,-24,-24
-29,14,43,7,-36,29,-24,-4,-39,-39,-19,-24
-34,14,48,9,-41,31,-24,-4,-43,-34,-19,-24
-24,4,29,9,-26,17,-14,-4,-34,-29,-19,-14
-24,4,29,9,-26,17,-14,0,-34,-29,-19,-14
-24,0,24,12,-24,12,-9,0,-34,-29,-19,-14
-24,0,24,12,-24,12,-9,0,-34,-29,-19,-14
-24,0,24,12,-24,12,-19,-9,-24,-29,-19,-14
-24,0,24,12,-24,12,-19,-9,-24,-29,-24,-14
-24,0,24,12,-24,12,-19,-9,-29,-29,-24,-14
-24,0,24,12,-24,12,-19,-9,-29,-29,-24,-14
-34,9,43,12,-39,26,-19,0,-34,-39,-24,-14
-34,4,39,14,-36,21,-19,0,-34,-39,-24,-14
-29,4,34,12,-31,19,-19,0,-34,-34,-24,-14
-29,4,34,12,-31,19,-19,0,-34,-29,-19,-14
-29,4,34,12,-31,19,-19,-9,-43,-29,-19,-14
-29,4,34,12,-31,19,-19,-9,-39,-29,-19,-9
-29,4,34,12,-31,19,-19,-9,-34,-29,-19,-9
-29,4,34,12,-31,19,-19,-4,-34,-29,-19,-9
-29,0,29,14,-29,14,-19,-4,-39,-19,-14,0
-29,0,29,14,-29,14,-19,-4,-39,-19,-9,-4
-29,0,29,14,-29,14,-19,-4,-39,-14,-4,-4
-29,0,29,14,-29,14,-19,-4,-29,-14,0,-9
-29,0,29,14,-29,14,-19,-4,-19,-19,-9,-9
-29,-4,24,17,-26,9,-19,-4,-24,-24,-14,-9
-29,-4,24,17,-26,9,-19,-4,-24,-24,-14,-9
-29,-4,24,17,-26,9,-14,-4,-24,-24,-14,-9
-29,-14,14,21,-21,0,-14,4,-24,-24,-4,-9
-29,-14,14,21,-21,0,-14,4,-24,-24,-9,-9
-34,-14,19,24,-26,2,-14,4,-24,-24,-9,-9
-34,-14,19,24,-26,2,-14,4,-24,-24,-9,-9
-19,-19,0,19,-9,-9,-4,14,-9,-19,-9,-9
-19,-29,-9,24,-4,-19,-4,14,-9,-19,-4,-9
-19,-34,-14,26,-2,-24,-4,14,-9,-19,0,-9
-19,-39,-19,29,0,-29,-4,19,-9,-19,0,-9
-29,-48,-19,39,-4,-34,0,24,0,-4,4,4
-29,-68,-39,48,4,-53,9,29,0,0,4,4
-29,-82,-53,56,12,-68,14,39,4,4,4,9
-29,-92,-63,61,17,-78,19,43,4,14,0,19
-24,-92,-68,58,21,-80,9,34,4,4,9,29
-24,-92,-68,58,21,-80,9,34,4,4,9,24
-24,-97,-73,61,24,-85,9,34,9,4,9,19
-19,-97,-78,58,29,-87,9,34,9,-4,4,19
-29,-97,-68,63,19,-82,9,34,9,-4,-4,14
-29,-97,-68,63,19,-82,9,34,9,0,4,14
-29,-92,-63,61,17,-78,9,39,9,4,14,14
-29,-92,-63,61,17,-78,9,39,9,9,14,14
-29,-87,-58,58,14,-73,14,24,0,0,4,14
-29,-87,-58,58,14,-73,14,24,0,0,4,14
-29,-78,-48,53,9,-63,14,24,4,-4,4,14
-29,-78,-48,53,9,-63,14,24,4,-4,4,14
-29,-68,-39,48,4,-53,0,14,0,-9,4,4
-34,-58,-24,46,-4,-41,0,19,-4,-14,4,0
-34,-48,-14,41,-9,-31,0,19,-9,-14,4,0
-29,-43,-14,36,-7,-29,-4,19,-19,-14,0,0
-19,-29,-9,24,-4,-19,-14,9,-29,-14,-9,0
-19,-24,-4,21,-7,-14,-14,9,-29,-14,-9,0
-19,-19,0,19,-9,-9,-14,4,-29,-14,-9,0
-19,-14,4,17,-12,-4,-14,4,-24,-14,-19,0
-29,-19,9,24,-19,-4,-9,19,-24,-19,-29,-9
-29,-19,9,24,-19,-4,-9,19,-24,-19,-24,-9
-29,-24,4,26,-17,-9,-9,19,-24,-24,-24,-9
-34,-24,9,29,-21,-7,-4,19,-24,-29,-29,-9
-24,-19,4,21,-14,-7,-14,14,-34,-24,-39,-9
-24,-14,9,19,-17,-2,-14,9,-34,-24,-43,-9
-24,-9,14,17,-19,2,-14,4,-34,-24,-43,-9
-24,0,24,12,-24,12,-9,0,-34,-24,-43,-9
-34,9,43,12,-39,26,-19,0,-43,-24,-39,-19
-34,9,43,12,-39,26,-19,0,-39,-24,-34,-19
-34,9,43,12,-39,26,-24,0,-34,-24,-29,-19
-34,9,43,12,-39,26,-24,0,-34,-24,-19,-19
-34,19,53,7,-43,36,-24,0,-24,-34,-29,-19
-29,19,48,4,-39,34,-24,0,-24,-34,-24,-24
-29,19,48,4,-39,34,-24,-4,-29,-34,-19,-24
-29,19,48,4,-39,34,-24,-4,-34,-34,-19,-24
-34,19,53,7,-43,36,-24,4,-34,-43,-34,-24
-34,19,53,7,-43,36,-24,4,-29,-48,-34,-24
-34,24,58,4,-46,41,-24,4,-24,-53,-39,-24
-34,24,58,4,-46,41,-19,4,-24,-58,-43,-24
-29,34,63,-2,-46,48,-19,4,-29,-48,-29,-34
-29,39,68,-4,-48,53,-24,0,-34,-48,-34,-29
-29,43,73,-7,-51,58,-24,-4,-34,-48,-29,-29
-29,43,73,-7,-51,58,-24,-4,-39,-48,-29,-29
-29,48,78,-9,-53,63,-34,-4,-48,-58,-43,-34
-29,53,82,-12,-56,68,-29,-4,-48,-63,-48,-34
-29,63,92,-17,-61,78,-24,-4,-48,-63,-53,-39
-29,68,97,-19,-63,82,-24,-4,-48,-63,-58,-39
-19,63,82,-21,-51,73,-29,-4,-43,-58,-68,-43
-19,58,78,-19,-48,68,-29,-4,-43,-58,-73,-43
-19,53,73,-17,-46,63,-29,-4,-43,-53,-73,-43
-19,48,68,-14,-43,58,-34,-4,-43,-53,-78,-43
-19,58,78,-19,-48,68,-24,-4,-43,-63,-68,-34
-19,58,78,-19,-48,68,-24,-9,-43,-78,-68,-34
-19,58,78,-19,-48,68,-24,-9,-43,-87,-68,-34
-19,63,82,-21,-51,73,-24,-9,-43,-92,-68,-34
-29,63,92,-17,-61,78,-34,-9,-48,-102,-68,-34
-29,68,97,-19,-63,82,-34,-4,-53,-112,-68,-43
-24,73,97,-24,-61,85,-34,-4,-53,-126,-68,-43
-19,78,97,-29,-58,87,-34,-4,-53,-136,-68,-43
-19,78,97,-29,-58,87,-34,-9,-63,-151,-82,-48
-19,73,92,-26,-56,82,-34,-9,-63,-165,-82,-48
-19,68,87,-24,-53,78,-34,-4,-63,-180,-82,-48
-19,63,82,-21,-51,73,-34,-4,-68,-195,-78,-48
-19,73,92,-26,-56,82,-24,-4,-68,-204,-78,-48
-19,73,92,-26,-56,82,-24,-9,-68,-209,-78,-48
-19,73,92,-26,-56,82,-24,-9,-68,-214,-78,-48
-14,68,82,-26,-48,75,-24,-9,-68,-219,-78,-48
-24,68,92,-21,-58,80,-34,-9,-73,-234,-78,-48
-24,68,92,-21,-58,80,-34,-9,-78,-244,-82,-53
-24,73,97,-24,-61,85,-34,-9,-78,-248,-82,-53
-24,78,102,-26,-63,90,-34,-9,-82,-253,-82,-53
-19,68,87,-24,-53,78,-34,-4,-73,-258,-82,-53
-19,68,87,-24,-53,78,-34,-4,-78,-263,-87,-63
-19,68,87,-24,-53,78,-34,-4,-78,-268,-87,-63
-19,68,87,-24,-53,78,-34,-4,-78,-273,-87,-63
-29,68,97,-19,-63,82,-34,-4,-78,-273,-78,-53
-29,68,97,-19,-63,82,-34,-9,-87,-273,-78,-53
-24,73,97,-24,-61,85,-34,-9,-87,-278,-78,-53
-24,78,102,-26,-63,90,-34,-14,-92,-278,-82,-53
-24,87,112,-31,-68,100,-43,-24,-92,-287,-82,-58
-24,78,102,-26,-63,90,-43,-24,-102,-292,-82,-58
-24,78,102,-26,-63,90,-43,-24,-107,-292,-82,-58
-29,73,102,-21,-65,87,-43,-24,-107,-292,-87,-63
-29,73,102,-21,-65,87,-34,-24,-107,-302,-92,-73
-29,78,107,-24,-68,92,-34,-24,-107,-312,-92,-73
-29,78,107,-24,-68,92,-34,-29,-112,-317,-92,-73
-29,78,107,-24,-68,92,-29,-34,-117,-317,-97,-78
-19,87,107,-34,-63,97,-39,-34,-122,-312,-92,-78
-19,87,107,-34,-63,97,-39,-34,-122,-317,-92,-78
-19,87,107,-34,-63,97,-43,-34,-126,-317,-97,-78
-19,92,112,-36,-65,102,-43,-43,-126,-322,-97,-82
-29,92,122,-31,-75,107,-43,-34,-141,-336,-107,-82
-29,92,122,-31,-75,107,-43,-34,-141,-341,-107,-82
-29,87,117,-29,-73,102,-43,-39,-146,-351,-112,-82
-29,82,112,-26,-70,97,-48,-43,-156,-351,-117,-82
-29,87,117,-29,-73,102,-53,-58,-165,-346,-107,-82
-29,97,126,-34,-78,112,-53,-58,-170,-346,-107,-82
-34,102,136,-34,-85,119,-48,-58,-175,-346,-107,-82
-34,107,141,-36,-87,124,-48,-63,-175,-346,-107,-82
-34,107,141,-36,-87,124,-53,-68,-180,-366,-117,-82
-34,107,141,-36,-87,124,-53,-73,-185,-366,-117,-82
-34,107,141,-36,-87,124,-53,-73,-185,-366,-117,-82
-34,107,141,-36,-87,124,-53,-73,-190,-366,-117,-82
-34,102,136,-34,-85,119,-48,-82,-180,-370,-112,-82
-34,102,136,-34,-85,119,-48,-87,-185,-366,-107,-82
-34,102,136,-34,-85,119,-48,-87,-185,-361,-102,-82
-34,102,136,-34,-85,119,-48,-87,-195,-356,-97,-82
-34,112,146,-39,-90,129,-48,-87,-204,-356,-102,-82
-34,117,151,-41,-92,134,-53,-87,-209,-361,-97,-82
-34,122,156,-43,-95,139,-58,-87,-209,-361,-92,-78
-34,126,161,-46,-97,143,-58,-87,-214,-366,-87,-78
-34,131,165,-48,-100,148,-58,-97,-224,-366,-97,-78
-29,131,161,-51,-95,146,-58,-97,-224,-366,-97,-73
-29,131,161,-51,-95,146,-58,-102,-224,-366,-92,-73
-29,136,165,-53,-97,151,-58,-102,-224,-366,-92,-68
-29,136,165,-53,-97,151,-63,-102,-224,-356,-82,-58
-29,141,170,-56,-100,156,-63,-107,-224,-356,-73,-53
-29,141,170,-56,-100,156,-58,-107,-224,-356,-68,-48
-29,141,170,-56,-100,156,-58,-107,-224,-356,-63,-43
-29,131,161,-51,-95,146,-58,-102,-224,-346,-68,-43
-29,136,165,-53,-97,151,-58,-102,-224,-341,-68,-39
-29,136,165,-53,-97,151,-63,-102,-219,-341,-63,-34
-29,126,156,-48,-92,141,-63,-102,-214,-341,-58,-34
-29,126,156,-48,-92,141,-53,-92,-200,-336,-63,-34
-24,131,156,-53,-90,143,-53,-92,-200,-336,-58,-34
-24,131,156,-53,-90,143,-53,-87,-200,-336,-58,-29
-24,131,156,-53,-90,143,-53,-87,-195,-331,-63,-24
-24,131,156,-53,-90,143,-53,-97,-200,-317,-53,-14
-24,136,161,-56,-92,148,-53,-97,-200,-317,-43,-14
-24,136,161,-56,-92,148,-58,-97,-195,-312,-39,-14
-24,136,161,-56,-92,148,-58,-92,-185,-312,-29,-9
-9,131,141,-61,-75,136,-58,-87,-180,-297,-9,-9
-9,131,141,-61,-75,136,-58,-87,-175,-297,-4,-4
-9,131,141,-61,-75,136,-58,-87,-170,-287,-4,-4
-9,131,141,-61,-75,136,-58,-87,-165,-287,-4,0
-14,131,146,-58,-80,139,-58,-82,-156,-292,-4,0
-14,131,146,-58,-80,139,-58,-82,-151,-287,0,0
-14,131,146,-58,-80,139,-63,-78,-151,-278,0,0
-14,126,141,-56,-78,134,-63,-78,-141,-273,0,0
-14,126,141,-56,-78,134,-63,-63,-136,-263,0,4
-14,131,146,-58,-80,139,-63,-63,-126,-268,-4,4
-14,131,146,-58,-80,139,-63,-63,-126,-268,-9,4
-9,136,146,-63,-78,141,-63,-63,-131,-263,-4,4
-9,126,136,-58,-73,131,-63,-63,-122,-253,0,14
-9,126,136,-58,-73,131,-63,-58,-117,-253,4,14
-4,131,136,-63,-70,134,-68,-58,-117,-253,9,14
-4,131,136,-63,-70,134,-68,-58,-112,-253,19,14
-4,122,126,-58,-65,124,-68,-48,-112,-244,29,14
-4,122,126,-58,-65,124,-68,-43,-102,-244,29,14
-4,122,126,-58,-65,124,-68,-43,-102,-244,29,14
-4,122,126,-58,-65,124,-68,-39,-102,-244,29,14
-4,131,136,-63,-70,134,-68,-48,-97,-229,19,4
-4,126,131,-61,-68,129,-68,-48,-97,-229,19,4
0,126,126,-63,-63,126,-73,-43,-92,-224,19,4
0,126,126,-63,-63,126,-73,-43,-92,-224,24,4
0,126,126,-63,-63,126,-73,-53,-102,-234,24,14
0,126,126,-63,-63,126,-73,-53,-102,-234,24,14
0,126,126,-63,-63,126,-73,-53,-97,-234,24,14
4,126,122,-65,-58,124,-73,-53,-97,-234,24,14
-4,126,131,-61,-68,129,-73,-43,-87,-219,34,14
-4,126,131,-61,-68,129,-73,-43,-82,-219,34,14
-4,126,131,-61,-68,129,-73,-43,-82,-224,34,14
-4,126,131,-61,-68,129,-73,-43,-82,-224,34,14
-9,117,126,-53,-68,122,-63,-29,-82,-214,48,24
-9,112,122,-51,-65,117,-63,-29,-82,-214,48,24
-9,107,117,-48,-63,112,-63,-29,-82,-214,48,24
-9,102,112,-46,-61,107,-63,-29,-82,-214,48,24
0,112,112,-56,-56,112,-68,-34,-82,-219,53,24
0,112,112,-56,-56,112,-68,-34,-78,-219,53,24
4,112,107,-58,-51,109,-68,-34,-78,-219,48,24
4,112,107,-58,-51,109,-68,-39,-82,-224,48,24
-4,112,117,-53,-61,114,-78,-39,-73,-200,48,14
0,112,112,-56,-56,112,-78,-34,-73,-170,43,14
0,107,107,-53,-53,107,-78,-34,-73,-141,43,14
-4,107,112,-51,-58,109,-78,-34,-73,-107,39,14
-4,102,107,-48,-56,104,-78,-34,-73,-58,39,14
-4,102,107,-48,-56,104,-78,-34,-73,-14,43,14
-4,102,107,-48,-56,104,-78,-34,-78,29,43,14
-4,102,107,-48,-56,104,-78,-39,-78,73,43,14
-4,102,107,-48,-56,104,-78,-39,-82,102,43,19
-4,102,107,-48,-56,104,-78,-39,-82,126,43,24
-4,102,107,-48,-56,104,-78,-39,-82,151,43,29
-4,92,97,-43,-51,95,-78,-34,-82,185,48,34
-4,87,92,-41,-48,90,-68,-24,-73,200,53,34
4,87,82,-46,-39,85,-68,-29,-73,214,58,34
4,92,87,-48,-41,90,-73,-29,-73,229,63,34
4,97,92,-51,-43,95,-73,-34,-73,244,68,34
-4,92,97,-43,-51,95,-68,-29,-73,263,63,39
-4,87,92,-41,-48,90,-68,-29,-78,268,63,39
-4,92,97,-43,-51,95,-68,-29,-78,273,63,39
-4,87,92,-41,-48,90,-73,-29,-82,283,63,39
-4,82,87,-39,-46,85,-63,-34,-78,297,63,39
-4,82,87,-39,-46,85,-63,-34,-68,297,63,39
-4,87,92,-41,-48,90,-63,-34,-63,297,63,39
-4,87,92,-41,-48,90,-63,-34,-58,302,63,39
4,78,73,-41,-34,75,-63,-24,-48,307,63,39
4,68,63,-36,-29,65,-63,-24,-48,312,63,39
4,58,53,-31,-24,56,-63,-24,-53,307,63,39
4,53,48,-29,-21,51,-63,-24,-53,312,63,34
4,53,48,-29,-21,51,-58,-19,-53,317,63,43
4,48,43,-26,-19,46,-58,-19,-53,322,68,43
4,43,39,-24,-17,41,-58,-19,-58,326,68,43
4,39,34,-21,-14,36,-53,-19,-58,322,73,48
-4,34,39,-14,-21,36,-53,-19,-58,331,73,48
-4,34,39,-14,-21,36,-53,-19,-58,331,73,48
-4,34,39,-14,-21,36,-53,-19,-58,326,73,48
-4,34,39,-14,-21,36,-58,-19,-58,322,73,48
-4,39,43,-17,-24,41,-58,-19,-53,322,63,53
-4,39,43,-17,-24,41,-58,-19,-48,322,63,53
-4,43,48,-19,-26,46,-58,-24,-43,317,63,53
-4,43,48,-19,-26,46,-58,-24,-43,317,63,53
4,34,29,-19,-12,31,-63,-24,-53,322,73,53
4,34,29,-19,-12,31,-63,-24,-53,326,68,53
4,34,29,-19,-12,31,-63,-24,-53,331,68,48
4,34,29,-19,-12,31,-63,-24,-53,331,68,48
4,34,29,-19,-12,31,-63,-24,-43,341,78,53
4,34,29,-19,-12,31,-63,-24,-39,341,78,58
4,34,29,-19,-12,31,-63,-24,-39,341,78,58
4,34,29,-19,-12,31,-63,-24,-39,341,73,63
4,29,24,-17,-9,26,-63,-14,-39,331,58,58
0,24,24,-12,-12,24,-63,-14,-34,331,58,58
0,19,19,-9,-9,19,-63,-14,-34,331,63,58
0,14,14,-7,-7,14,-63,-14,-39,331,63,58
0,14,14,-7,-7,14,-63,-14,-39,336,63,58
0,14,14,-7,-7,14,-63,-14,-39,336,63,58
0,14,14,-7,-7,14,-63,-14,-39,336,63,53
0,14,14,-7,-7,14,-63,-14,-39,336,63,53
-4,4,9,0,-7,7,-53,-9,-29,341,73,58
-4,4,9,0,-7,7,-53,-4,-29,346,73,63
-4,4,9,0,-7,7,-53,0,-29,351,73,68
-4,0,4,2,-4,2,-53,4,-29,356,73,73
-4,-9,-4,7,0,-7,-53,4,-29,356,68,73
-4,-9,-4,7,0,-7,-53,4,-29,351,63,73
-4,-9,-4,7,0,-7,-53,4,-29,351,53,73
-4,-9,-4,7,0,-7,-53,4,-24,351,48,73
0,0,0,0,0,0,-53,-4,-24,351,48,63
0,0,0,0,0,0,-53,-4,-24,356,48,63
0,0,0,0,0,0,-53,-4,-24,361,48,63
0,0,0,0,0,0,-53,-4,-24,361,48,63
0,-9,-9,4,4,-9,-63,0,-24,370,53,73
0,-9,-9,4,4,-9,-63,0,-24,375,58,73
0,-9,-9,4,4,-9,-63,4,-24,375,63,73
0,-9,-9,4,4,-9,-63,4,-24,375,68,73
0,-9,-9,4,4,-9,-53,4,-29,370,68,73
-4,-9,-4,7,0,-7,-53,4,-29,370,68,73
-4,-9,-4,7,0,-7,-53,4,-24,375,68,73
-4,-9,-4,7,0,-7,-53,4,-24,375,68,73
4,-9,-14,2,9,-12,-53,4,-24,366,58,73
4,-9,-14,2,9,-12,-48,4,-24,366,58,73
4,-9,-14,2,9,-12,-48,4,-24,361,58,73
9,-9,-19,0,14,-14,-48,4,-24,361,58,73
9,-24,-34,7,21,-29,-48,14,-14,366,58,82
4,-24,-29,9,17,-26,-48,14,-14,366,58,82
-4,-24,-19,14,7,-21,-48,14,-14,361,58,82
-14,-24,-9,19,-2,-17,-48,14,-14,356,58,82
-4,-24,-19,14,7,-21,-48,4,-4,356,48,73
-4,-24,-19,14,7,-21,-53,4,-4,356,43,73
-4,-24,-19,14,7,-21,-53,4,-4,361,43,73
-4,-24,-19,14,7,-21,-53,4,-4,370,43,73
-4,-34,-29,19,12,-31,-53,4,-14,370,48,78
-4,-29,-24,17,9,-26,-53,4,-14,370,48,78
-4,-29,-24,17,9,-26,-53,4,-14,370,53,78
-4,-29,-24,17,9,-26,-53,4,-14,361,53,78
-4,-24,-19,14,7,-21,-53,4,-19,370,63,78
-4,-24,-19,14,7,-21,-53,4,-19,370,63,78
-4,-19,-14,12,4,-17,-53,4,-19,366,63,78
-4,-19,-14,12,4,-17,-58,0,-19,366,63,78
-4,-19,-14,12,4,-17,-58,4,-19,366,63,87
-4,-19,-14,12,4,-17,-58,4,-19,366,63,87
-4,-19,-14,12,4,-17,-58,9,-19,366,63,87
-4,-19,-14,12,4,-17,-58,9,-19,370,58,87
-4,-4,0,4,-2,-2,-58,0,-14,370,48,78
-4,-4,0,4,-2,-2,-58,0,-14,366,48,78
-4,-9,-4,7,0,-7,-58,0,-19,346,48,78
0,-14,-14,7,7,-14,-58,0,-19,336,48,78
0,-29,-29,14,14,-29,-48,4,-9,346,39,87
0,-34,-34,17,17,-34,-43,9,-4,351,39,87
0,-39,-39,19,19,-39,-43,14,-4,356,39,87
0,-43,-43,21,21,-43,-43,19,-4,356,39,87
0,-58,-58,29,29,-58,-43,29,4,366,58,87
-9,-58,-48,34,19,-53,-39,19,0,361,58,97
0,-58,-58,29,29,-58,-39,19,0,351,58,97
0,-58,-58,29,29,-58,-39,19,0,351,58,97
0,-58,-58,29,29,-58,-39,19,0,351,58,97
0,-58,-58,29,29,-58,-39,19,0,351,58,97
0,-53,-53,26,26,-53,-48,19,-9,341,48,87
0,-48,-48,24,24,-48,-48,19,-9,341,48,87
0,-43,-43,21,21,-43,-48,19,-9,341,48,87
0,-39,-39,19,19,-39,-48,19,-9,341,48,87
-9,-39,-29,24,9,-34,-39,19,-9,331,58,87
-9,-39,-29,24,9,-34,-39,19,-9,331,58,87
-9,-39,-29,24,9,-34,-39,19,-9,331,58,87
-9,-39,-29,24,9,-34,-39,19,-9,331,58,87
-9,-39,-29,24,9,-34,-39,29,0,341,63,97
-9,-39,-29,24,9,-34,-39,29,0,341,68,97
-9,-39,-29,24,9,-34,-39,29,0,341,73,97
-9,-39,-29,24,9,-34,-39,29,0,341,78,97
0,-48,-48,24,24,-48,-39,29,9,331,73,97
0,-48,-48,24,24,-48,-39,29,9,331,68,97
0,-48,-48,24,24,-48,-39,29,9,331,63,97
0,-48,-48,24,24,-48,-39,29,9,331,58,97
-9,-48,-39,29,14,-43,-39,29,0,322,48,97
-9,-48,-39,29,14,-43,-39,29,0,322,48,97
-9,-48,-39,29,14,-43,-39,29,0,322,48,97
-9,-48,-39,29,14,-43,-39,29,0,322,48,97
-9,-39,-29,24,9,-34,-29,29,0,322,53,107
-9,-39,-29,24,9,-34,-29,29,0,322,58,107
-9,-39,-29,24,9,-34,-29,29,0,322,63,107
-9,-39,-29,24,9,-34,-29,29,0,322,68,107
-9,-48,-39,29,14,-43,-39,29,9,312,68,97
-9,-48,-39,29,14,-43,-39,29,9,312,68,97
-9,-48,-39,29,14,-43,-39,29,9,312,68,97
-9,-48,-39,29,14,-43,-39,29,9,312,68,97
-9,-48,-39,29,14,-43,-29,39,9,312,58,97
-9,-48,-39,29,14,-43,-29,39,9,312,58,97
-9,-48,-39,29,14,-43,-29,39,9,312,58,97
-9,-48,-39,29,14,-43,-29,39,9,312,58,97
-4,-39,-34,21,14,-36,-39,29,0,302,48,102
0,-39,-39,19,19,-39,-39,29,0,302,48,107
4,-39,-43,17,24,-41,-39,29,0,302,48,112
9,-39,-48,14,29,-43,-39,29,0,302,48,117
0,-34,-34,17,17,-34,-39,39,14,307,58,117
0,-29,-29,14,14,-29,-39,39,19,312,58,117
0,-24,-24,12,12,-24,-39,39,24,317,58,117
0,-19,-19,9,9,-19,-39,39,29,322,58,117
9,-4,-14,-2,12,-9,-43,39,34,331,58,126
9,0,-9,-4,9,-4,-48,39,39,331,58,126
9,4,-4,-7,7,0,-53,39,43,331,58,126
9,9,0,-9,4,4,-58,39,48,331,58,126
0,19,19,-9,-9,19,-48,39,53,336,68,131
0,19,19,-9,-9,19,-48,39,58,341,78,136
0,19,19,-9,-9,19,-48,39,63,346,87,141
0,19,19,-9,-9,19,-48,39,68,351,97,146
9,14,4,-12,2,9,-58,53,78,361,102,151
9,9,0,-9,4,4,-58,58,87,361,107,156
9,4,-4,-7,7,0,-58,63,97,361,112,161
9,0,-9,-4,9,-4,-58,68,107,361,117,165
24,9,-14,-17,19,-2,-78,68,107,370,117,175
34,9,-24,-21,29,-7,-97,68,102,370,122,175
39,9,-29,-24,34,-9,-117,63,97,370,122,175
43,14,-29,-29,36,-7,-126,53,92,370,122,175
34,24,-9,-29,21,7,-131,53,78,361,117,185
34,24,-9,-29,21,7,-131,43,68,356,117,190
34,24,-9,-29,21,7,-131,34,53,351,117,195
34,24,-9,-29,21,7,-126,29,48,351,117,200
34,4,-29,-19,31,-12,-117,19,48,336,102,195
34,0,-34,-17,34,-17,-117,14,34,322,92,190
34,0,-34,-17,34,-17,-117,9,24,317,82,185
39,0,-39,-19,39,-19,-122,4,14,312,73,175
29,0,-29,-14,29,-14,-122,0,-4,307,78,170
29,-4,-34,-12,31,-19,-122,-4,-14,292,73,165
29,-4,-34,-12,31,-19,-117,-4,-24,287,68,165
29,0,-29,-14,29,-14,-117,-9,-34,283,63,165
29,0,-29,-14,29,-14,-126,-14,-43,268,48,175
29,0,-29,-14,29,-14,-117,-14,-48,268,48,175
29,-14,-43,-7,36,-29,-117,-14,-53,263,48,175
29,-14,-43,-7,36,-29,-117,-14,-53,263,48,175
24,-14,-39,-4,31,-26,-112,-14,-58,253,48,165
34,-14,-48,-9,41,-31,-112,-14,-63,248,39,161
34,-14,-48,-9,41,-31,-107,-14,-68,239,34,156
34,-24,-58,-4,46,-41,-97,-14,-73,229,29,151
43,-39,-82,-2,63,-61,-92,-14,-68,229,29,146
39,-43,-82,2,61,-63,-87,-9,-68,229,24,141
34,-43,-78,4,56,-61,-82,-9,-63,239,14,141
29,-43,-73,7,51,-58,-78,-9,-53,244,24,141
39,-53,-92,7,65,-73,-73,-4,-48,234,19,136
34,-63,-97,14,65,-80,-63,4,-43,234,19,136
29,-68,-97,19,63,-82,-58,9,-39,234,19,136
29,-68,-97,19,63,-82,-53,14,-34,234,19,126
24,-73,-97,24,61,-85,-48,19,-39,224,19,126
14,-78,-92,31,53,-85,-39,19,-29,229,19,122
0,-82,-82,41,41,-82,-29,24,-29,229,9,117
-4,-87,-82,46,39,-85,-29,24,-29,229,4,112
-9,-82,-73,46,31,-78,-14,24,-29,229,-4,107
-14,-87,-73,51,29,-80,-9,24,-29,229,-4,102
-14,-87,-73,51,29,-80,0,24,-29,229,-4,102
-14,-87,-73,51,29,-80,0,24,-29,239,-4,102
-24,-78,-53,51,14,-65,0,24,-29,234,0,92
-24,-78,-53,51,14,-65,0,24,-29,229,0,97
-24,-82,-58,53,17,-70,0,24,-29,224,0,97
-24,-82,-58,53,17,-70,0,24,-29,224,0,97
-14,-73,-58,43,21,-65,-4,14,-39,214,0,97
-14,-73,-58,43,21,-65,-9,14,-39,214,0,97
-14,-73,-58,43,21,-65,-9,14,-43,209,-4,92
-14,-78,-63,46,24,-70,-14,14,-43,209,-4,92
-24,-78,-53,51,14,-65,-4,14,-29,209,4,92
-29,-78,-48,53,9,-63,-9,14,-29,214,4,92
-29,-78,-48,53,9,-63,-9,14,-29,214,4,92
-29,-78,-48,53,9,-63,-9,14,-29,214,4,92
-29,-92,-63,61,17,-78,0,19,-19,214,9,102
-29,-97,-68,63,19,-82,4,24,-19,219,9,102
-29,-102,-73,65,21,-87,9,29,-19,219,9,102
-29,-107,-78,68,24,-92,14,34,-19,219,9,102
-29,-97,-68,63,19,-82,4,29,-19,209,19,102
-29,-97,-68,63,19,-82,4,29,-19,214,19,102
-29,-97,-68,63,19,-82,4,29,-19,214,19,102
-29,-97,-68,63,19,-82,4,24,-19,214,19,102
-19,-87,-68,53,24,-78,9,24,-19,214,19,102
-19,-87,-68,53,24,-78,9,24,-24,214,19,102
-19,-87,-68,53,24,-78,4,24,-24,214,19,102
-19,-87,-68,53,24,-78,4,24,-24,214,19,102
-29,-92,-63,61,17,-78,14,34,-19,209,19,92
-29,-92,-63,61,17,-78,14,34,-19,204,19,92
-29,-87,-58,58,14,-73,14,34,-19,200,19,92
-29,-87,-58,58,14,-73,14,34,-9,200,19,92
-29,-87,-58,58,14,-73,14,29,4,209,9,82
-29,-87,-58,58,14,-73,19,29,9,209,0,78
-29,-87,-58,58,14,-73,24,48,19,214,0,73
-19,-97,-78,58,29,-87,39,73,53,224,9,68
-29,-112,-82,70,26,-97,48,97,87,229,9,53
-53,-122,-68,87,7,-95,53,122,126,248,14,53
-58,-117,-58,87,0,-87,58,131,170,278,39,63
-48,-112,-63,80,7,-87,68,141,214,317,82,68
-48,-107,-58,78,4,-82,68,161,234,341,112,97
-48,-82,-34,65,-7,-58,53,141,234,361,156,156
-43,-53,-9,48,-17,-31,43,117,214,370,200,234
-29,-24,4,26,-17,-9,19,107,185,361,239,312
0,-14,-14,7,7,-14,-4,102,161,361,273,380
24,0,-24,-12,24,-12,-29,82,151,375,322,468
48,34,-14,-41,31,9,-58,73,161,395,361,541
97,53,-43,-75,70,4,-92,82,195,414,405,610
146,63,-82,-104,114,-9,-126,112,224,414,424,678
209,63,-146,-136,178,-41,-156,146,244,390,409,697
273,58,-214,-165,244,-78,-185,175,234,351,366,707
331,48,-283,-190,307,-117,-209,185,190,322,322,697
385,58,-326,-222,356,-134,-253,175,131,292,283,678
429,58,-370,-244,400,-156,-278,151,92,292,244,619
439,68,-370,-253,405,-151,-292,78,39,312,229,551
419,73,-346,-246,383,-136,-287,0,-24,351,224,478
385,48,-336,-217,361,-143,-263,-63,-92,346,180,385
341,-24,-366,-158,353,-195,-219,-107,-156,302,53,209
292,-107,-400,-92,346,-253,-151,-156,-248,244,-87,24
214,-161,-375,-26,295,-268,-97,-248,-366,175,-200,-107
122,-200,-322,39,222,-261,-48,-336,-478,87,-273,-185
53,-239,-292,92,173,-265,0,-361,-531,-4,-361,-248
0,-278,-278,139,139,-278,34,-361,-605,-117,-463,-287
-73,-273,-200,173,63,-236,68,-414,-746,-219,-522,-292
-161,-258,-97,209,-31,-178,117,-468,-878,-283,-531,-292
-209,-268,-58,239,-75,-163,141,-468,-956,-326,-556,-322
-234,-297,-63,265,-85,-180,151,-444,-995,-366,-585,-351
-239,-287,-48,263,-95,-168,161,-429,-980,-361,-570,-356
-248,-258,-9,253,-119,-134,156,-414,-946,-326,-512,-322
-239,-268,-29,253,-104,-148,156,-366,-883,-317,-483,-292
-195,-297,-102,246,-46,-200,131,-297,-785,-312,-448,-268
-165,-287,-122,226,-21,-204,92,-253,-697,-278,-375,-209
-126,-258,-131,192,2,-195,53,-248,-614,-214,-302,-136
-87,-248,-161,168,36,-204,29,-204,-483,-141,-253,-87
-53,-239,-185,146,65,-212,9,-126,-331,-68,-195,-58
-24,-200,-175,112,75,-187,-9,-73,-204,9,-131,-19
-24,-151,-126,87,51,-139,-19,-58,-122,78,-82,14
-24,-126,-102,75,39,-114,-9,-58,-68,107,-63,39
-34,-117,-82,75,24,-100,-9,-34,-24,117,-39,48
-34,-126,-92,80,29,-109,0,-19,-4,126,-24,68
-29,-136,-107,82,39,-122,4,-9,14,117,-24,68
-29,-126,-97,78,34,-112,19,14,24,122,-24,68
-29,-126,-97,78,34,-112,19,19,34,131,-24,68
-29,-126,-97,78,34,-112,19,19,43,141,-24,68
-29,-126,-97,78,34,-112,19,19,53,141,-24,68
-29,-117,-87,73,29,-102,19,19,68,151,-19,63
-29,-117,-87,73,29,-102,19,24,73,141,-19,63
-34,-117,-82,75,24,-100,19,24,73,141,-14,58
-34,-117,-82,75,24,-100,19,24,73,146,-14,53
-43,-122,-78,82,17,-100,19,43,87,151,-14,63
-43,-126,-82,85,19,-104,19,43,87,151,-14,63
-39,-126,-87,82,24,-107,19,39,92,146,-9,63
-39,-131,-92,85,26,-112,19,39,92,141,-9,68
-29,-122,-92,75,31,-107,19,39,107,146,0,58
-34,-126,-92,80,29,-109,19,43,107,146,0,58
-34,-131,-97,82,31,-114,19,43,107,146,0,58
-29,-131,-102,80,36,-117,19,43,107,146,4,58
-39,-131,-92,85,26,-112,29,43,117,146,-4,68
-39,-131,-92,85,26,-112,29,48,117,146,-4,68
-39,-131,-92,85,26,-112,29,53,117,151,-4,68
-39,-131,-92,85,26,-112,29,53,122,156,0,68
-39,-126,-87,82,24,-107,29,43,131,146,0,58
-39,-126,-87,82,24,-107,24,43,131,146,0,58
-39,-126,-87,82,24,-107,24,43,131,141,-4,58
-39,-122,-82,80,21,-102,29,43,131,141,-4,58
-29,-131,-102,80,36,-117,39,43,131,146,0,63
-29,-131,-102,80,36,-117,39,43,136,146,4,63
-29,-131,-102,80,36,-117,34,43,136,146,9,63
-34,-131,-97,82,31,-114,34,43,131,151,9,63
-34,-122,-87,78,26,-104,24,43,131,151,9,53
-34,-122,-87,78,26,-104,24,48,131,146,9,53
-34,-126,-92,80,29,-109,29,48,131,141,9,53
-34,-126,-92,80,29,-109,29,48,131,136,9,53
-43,-126,-82,85,19,-104,29,48,141,136,19,53
-43,-126,-82,85,19,-104,29,48,141,136,14,53
-43,-126,-82,85,19,-104,29,48,136,136,14,53
-43,-126,-82,85,19,-104,29,48,136,136,14,53
-34,-136,-102,85,34,-119,39,48,146,146,14,53
-34,-141,-107,87,36,-124,39,48,151,146,14,53
-29,-141,-112,85,41,-126,39,48,156,151,14,53
-29,-141,-112,85,41,-126,39,48,161,156,19,53
-29,-151,-122,90,46,-136,48,48,161,146,9,53
-29,-151,-122,90,46,-136,48,48,165,146,9,58
-29,-151,-122,90,46,-136,48,48,170,146,9,58
-29,-151,-122,90,46,-136,48,53,170,146,9,58
-29,-151,-122,90,46,-136,39,53,156,146,0,48
-29,-146,-117,87,43,-131,39,53,156,146,0,43
-29,-141,-112,85,41,-126,39,53,156,151,0,43
-29,-136,-107,82,39,-122,39,53,165,151,0,39
-39,-141,-102,90,31,-122,48,63,165,156,9,48
-39,-151,-112,95,36,-131,48,63,161,151,4,48
-39,-156,-117,97,39,-136,48,63,161,151,4,48
-39,-161,-122,100,41,-141,53,63,161,151,4,48
-29,-165,-136,97,53,-151,53,73,165,151,4,58
-29,-170,-141,100,56,-156,53,73,170,151,0,58
-34,-175,-141,104,53,-158,53,73,175,151,0,58
-34,-180,-146,107,56,-163,53,73,180,151,0,58
-29,-180,-151,104,61,-165,53,63,185,146,-9,58
-29,-185,-156,107,63,-170,53,63,185,146,-4,58
-29,-185,-156,107,63,-170,53,63,185,146,0,58
-29,-185,-156,107,63,-170,53,68,185,146,0,58
-29,-175,-146,102,58,-161,53,68,185,146,-14,58
-29,-185,-156,107,63,-170,58,68,185,146,-14,53
-29,-190,-161,109,65,-175,58,73,190,146,-14,53
-29,-190,-161,109,65,-175,58,73,190,151,-19,58
-43,-190,-146,117,51,-168,68,82,190,151,-19,58
-43,-190,-146,117,51,-168,68,82,190,151,-19,53
-43,-195,-151,119,53,-173,68,82,195,151,-19,48
-39,-195,-156,117,58,-175,68,82,195,141,-24,48
-29,-190,-161,109,65,-175,58,78,185,136,-43,43
-29,-185,-156,107,63,-170,58,73,185,136,-34,43
-29,-175,-146,102,58,-161,58,73,185,136,-24,43
-29,-170,-141,100,56,-156,58,68,185,136,-24,43
-39,-170,-131,104,46,-151,53,63,175,136,-29,34
-39,-165,-126,102,43,-146,53,63,175,136,-34,34
-39,-151,-112,95,36,-131,53,63,180,131,-39,34
-39,-146,-107,92,34,-126,53,63,180,131,-43,34
-29,-146,-117,87,43,-131,58,53,180,136,-53,24
-34,-146,-112,90,39,-129,58,58,180,131,-53,19
-34,-146,-112,90,39,-129,58,58,180,131,-53,19
-29,-151,-122,90,46,-136,53,58,175,131,-58,19
-39,-151,-112,95,36,-131,53,68,185,122,-48,19
-39,-151,-112,95,36,-131,53,68,185,122,-48,19
-39,-151,-112,95,36,-131,53,63,185,122,-48,19
-39,-151,-112,95,36,-131,53,63,190,122,-58,19
-29,-146,-117,87,43,-131,48,68,180,117,-68,19
-29,-146,-117,87,43,-131,48,68,180,117,-63,19
-29,-151,-122,90,46,-136,48,68,180,112,-63,19
-34,-151,-117,92,41,-134,53,68,180,107,-68,19
-34,-151,-117,92,41,-134,53,68,190,112,-58,19
-34,-151,-117,92,41,-134,53,68,190,112,-63,19
-34,-151,-117,92,41,-134,53,68,190,112,-63,19
-34,-146,-112,90,39,-129,58,68,190,112,-63,19
-34,-122,-87,78,26,-104,53,63,175,97,-68,4
-34,-107,-73,70,19,-90,48,58,175,92,-73,0
-34,-92,-58,63,12,-75,39,53,175,87,-78,-4
-34,-78,-43,56,4,-61,34,48,170,82,-78,-9
-34,-63,-29,48,-2,-46,29,43,165,73,-87,-14
-29,-48,-19,39,-4,-34,24,39,161,73,-82,-24
-29,-34,-4,31,-12,-19,19,29,151,73,-78,-29
-29,-19,9,24,-19,-4,14,24,141,73,-78,-34
-34,-9,24,21,-29,7,14,24,141,68,-82,-34
-34,-9,24,21,-29,7,14,24,146,68,-82,-34
-34,-4,29,19,-31,12,14,24,151,68,-87,-34
-34,-4,29,19,-31,12,19,24,151,68,-92,-34
-29,-4,24,17,-26,9,19,29,141,58,-82,-43
-29,0,29,14,-29,14,14,29,141,58,-92,-39
-29,4,34,12,-31,19,14,29,146,58,-92,-39
-29,4,34,12,-31,19,14,34,146,58,-97,-39
-29,0,29,14,-29,14,14,34,146,63,-87,-24
-29,-4,24,17,-26,9,19,34,146,63,-87,-24
-29,-4,24,17,-26,9,24,34,146,68,-87,-29
-29,-9,19,19,-24,4,24,34,146,73,-87,-29
-29,0,29,14,-29,14,29,24,141,58,-92,-34
-29,0,29,14,-29,14,29,24,141,58,-92,-34
-29,0,29,14,-29,14,29,24,141,63,-87,-34
-29,0,29,14,-29,14,24,24,141,63,-87,-34
-29,9,39,9,-34,24,14,34,141,58,-97,-43
-29,9,39,9,-34,24,14,29,141,48,-97,-43
-29,9,39,9,-34,24,14,29,141,43,-97,-43
-29,14,43,7,-36,29,14,29,141,43,-97,-43
-29,4,34,12,-31,19,24,29,131,53,-87,-39
-29,9,39,9,-34,24,24,34,131,53,-87,-43
-24,14,39,4,-31,26,24,34,136,48,-87,-39
-19,19,39,0,-29,29,24,34,141,48,-87,-34
-19,34,53,-7,-36,43,34,19,131,48,-92,-48
-19,34,53,-7,-36,43,34,19,131,48,-92,-48
-19,34,53,-7,-36,43,34,24,131,48,-92,-48
-19,34,53,-7,-36,43,34,24,126,48,-87,-48
-29,34,63,-2,-46,48,24,34,126,43,-97,-48
-29,34,63,-2,-46,48,24,29,126,43,-97,-48
-29,34,63,-2,-46,48,24,29,126,43,-97,-48
-24,29,53,-2,-39,41,24,29,126,43,-97,-48
-24,29,53,-2,-39,41,24,24,122,43,-97,-48
-24,29,53,-2,-39,41,24,19,117,39,-102,-53
-24,34,58,-4,-41,46,24,14,117,39,-102,-53
-24,39,63,-7,-43,51,24,9,112,39,-102,-53
-29,39,68,-4,-48,53,24,14,112,29,-92,-53
-29,39,68,-4,-48,53,24,14,107,29,-97,-63
-29,39,68,-4,-48,53,24,14,107,29,-97,-63
-29,39,68,-4,-48,53,24,14,107,29,-97,-63
-19,29,48,-4,-34,39,24,14,107,39,-107,-63
-19,29,48,-4,-34,39,24,9,97,39,-107,-63
-14,34,48,-9,-31,41,24,9,97,34,-107,-63
-14,39,53,-12,-34,46,24,4,92,34,-112,-63
-24,48,73,-12,-48,61,34,4,102,24,-112,-68
-24,39,63,-7,-43,51,34,4,92,19,-112,-68
-24,39,63,-7,-43,51,34,4,87,19,-112,-68
-29,34,63,-2,-46,48,34,4,87,19,-117,-73
-29,43,73,-7,-51,58,24,-4,87,29,-122,-73
-29,48,78,-9,-53,63,24,-4,87,19,-122,-73
-29,48,78,-9,-53,63,24,-9,82,14,-122,-73
-29,48,78,-9,-53,63,29,-14,78,14,-126,-78
-29,48,78,-9,-53,63,29,-14,73,9,-122,-87
-29,48,78,-9,-53,63,29,-14,73,4,-122,-87
-29,48,78,-9,-53,63,24,-14,68,4,-126,-87
-29,53,82,-12,-56,68,24,-24,68,0,-126,-92
-29,68,97,-19,-63,82,14,-24,53,4,-126,-82
-29,73,102,-21,-65,87,14,-24,53,0,-126,-82
-29,73,102,-21,-65,87,14,-29,48,-9,-131,-82
-29,73,102,-21,-65,87,9,-34,39,-9,-136,-82
-19,82,102,-31,-61,92,14,-39,29,-14,-146,-92
-19,87,107,-34,-63,97,14,-39,24,-14,-146,-92
-24,87,112,-31,-68,100,19,-39,19,-14,-146,-92
-24,87,112,-31,-68,100,19,-43,19,-14,-146,-92
-24,87,112,-31,-68,100,14,-48,14,-14,-156,-82
-24,87,112,-31,-68,100,14,-53,9,-14,-156,-82
-24,87,112,-31,-68,100,14,-53,9,-14,-156,-82
-24,87,112,-31,-68,100,14,-53,4,-14,-156,-82
-24,92,117,-34,-70,104,9,-53,4,-24,-165,-82
-24,92,117,-34,-70,104,9,-58,0,-24,-165,-82
-24,92,117,-34,-70,104,9,-58,0,-24,-165,-82
-24,92,117,-34,-70,104,9,-58,-9,-24,-165,-82
-24,112,136,-43,-80,124,9,-78,-19,-34,-175,-92
-24,117,141,-46,-82,129,4,-78,-24,-39,-175,-92
-24,122,146,-48,-85,134,0,-78,-24,-39,-175,-87
-24,126,151,-51,-87,139,0,-78,-29,-43,-175,-87
-24,131,156,-53,-90,143,9,-78,-39,-34,-165,-97
-19,131,151,-56,-85,141,9,-78,-39,-34,-165,-92
-19,131,151,-56,-85,141,9,-82,-39,-34,-161,-92
-19,136,156,-58,-87,146,9,-82,-39,-34,-161,-87
-29,136,165,-53,-97,151,-4,-82,-48,-34,-156,-87
-29,141,170,-56,-100,156,-4,-87,-48,-34,-151,-82
-29,141,170,-56,-100,156,0,-87,-48,-34,-151,-78
-29,141,170,-56,-100,156,0,-87,-48,-34,-151,-73
-19,151,170,-65,-95,161,0,-92,-48,-24,-136,-73
-19,156,175,-68,-97,165,0,-92,-48,-19,-136,-68
-19,156,175,-68,-97,165,-4,-92,-43,-19,-131,-63
-19,146,165,-63,-92,156,-4,-92,-39,-19,-126,-63
-19,156,175,-68,-97,165,-4,-92,-34,-14,-136,-53
-14,161,175,-73,-95,168,-4,-92,-34,-14,-126,-53
-14,161,175,-73,-95,168,-4,-87,-34,-14,-122,-48
-14,161,175,-73,-95,168,-4,-87,-29,-9,-122,-43
-14,161,175,-73,-95,168,-4,-97,-34,-4,-107,-43
-14,165,180,-75,-97,173,-4,-97,-34,-4,-102,-43
-14,165,180,-75,-97,173,-9,-97,-29,0,-102,-43
-14,165,180,-75,-97,173,-9,-92,-19,0,-97,-39
-19,161,180,-70,-100,170,-9,-78,-14,4,-78,-39
-19,161,180,-70,-100,170,-9,-78,-9,4,-73,-34
-19,161,180,-70,-100,170,-9,-78,-4,14,-73,-34
-19,161,180,-70,-100,170,-9,-78,0,14,-73,-29
-14,161,175,-73,-95,168,-9,-73,0,9,-63,-19
-14,161,175,-73,-95,168,-9,-73,4,14,-58,-19
-14,161,175,-73,-95,168,-14,-68,4,24,-58,-19
-14,156,170,-70,-92,163,-14,-68,14,29,-58,-19
-14,165,180,-75,-97,173,-4,-63,9,29,-58,-24
-14,170,185,-78,-100,178,-4,-63,19,24,-63,-24
-14,170,185,-78,-100,178,-4,-63,19,24,-68,-24
-9,175,185,-82,-97,180,-4,-63,14,29,-63,-24
0,170,170,-85,-85,170,4,-53,14,29,-63,-24
0,165,165,-82,-82,165,4,-48,19,29,-63,-24
4,165,161,-85,-78,163,0,-48,19,29,-63,-24
4,161,156,-82,-75,158,0,-48,24,29,-58,-24
4,151,146,-78,-70,148,0,-48,24,39,-48,-14
4,151,146,-78,-70,148,0,-43,34,39,-48,-14
4,151,146,-78,-70,148,0,-43,34,39,-48,-14
4,151,146,-78,-70,148,0,-39,34,39,-48,-14
4,161,156,-82,-75,158,9,-39,39,43,-39,-14
4,156,151,-80,-73,153,9,-39,39,43,-39,-14
9,156,146,-82,-68,151,4,-34,43,48,-39,-14
9,156,146,-82,-68,151,4,-34,43,48,-34,-14
9,156,146,-82,-68,151,4,-34,34,39,-24,-24
9,156,146,-82,-68,151,4,-34,34,39,-24,-24
9,156,146,-82,-68,151,4,-34,39,39,-24,-24
14,156,141,-85,-63,148,4,-34,39,39,-24,-24
4,151,146,-78,-70,148,14,-34,39,43,-14,-14
4,146,141,-75,-68,143,14,-34,43,43,-14,-14
4,141,136,-73,-65,139,14,-34,43,39,-14,-14
4,136,131,-70,-63,134,14,-34,43,39,-14,-14
9,122,112,-65,-51,117,14,-19,43,39,0,-14
9,122,112,-65,-51,117,14,-19,43,39,0,-14
9,122,112,-65,-51,117,14,-19,43,39,0,-14
9,122,112,-65,-51,117,14,-19,43,39,0,-14
9,131,122,-70,-56,126,0,-24,43,34,-4,-24
9,131,122,-70,-56,126,0,-24,48,34,-4,-24
14,131,117,-73,-51,124,0,-24,48,34,-9,-24
14,131,117,-73,-51,124,0,-29,43,29,-9,-24
4,122,117,-63,-56,119,9,-19,43,19,0,-14
9,122,112,-65,-51,117,9,-14,43,24,-4,-14
9,117,107,-63,-48,112,9,-14,43,29,-4,-14
4,117,112,-61,-53,114,9,-14,43,39,-9,-14
4,131,126,-68,-61,129,9,-24,43,34,-9,-14
4,131,126,-68,-61,129,9,-24,43,34,-4,-14
4,131,126,-68,-61,129,9,-24,39,34,-4,-14
4,131,126,-68,-61,129,9,-29,39,34,-4,-14
14,131,117,-73,-51,124,9,-29,34,34,-4,-14
14,131,117,-73,-51,124,9,-29,34,29,-4,-14
14,131,117,-73,-51,124,9,-29,34,24,-4,-14
14,122,107,-68,-46,114,9,-24,34,29,0,-14
-4,107,112,-51,-58,109,19,-14,43,29,9,-4
4,107,102,-56,-48,104,19,-19,43,29,9,-4
4,112,107,-58,-51,109,14,-19,43,29,9,-4
4,117,112,-61,-53,114,14,-24,43,29,9,-4
4,107,102,-56,-48,104,9,-29,43,24,4,-9
4,107,102,-56,-48,104,9,-29,39,24,4,-9
4,117,112,-61,-53,114,9,-29,39,24,4,-9
4,117,112,-61,-53,114,4,-29,34,29,4,-9
4,112,107,-58,-51,109,14,-24,24,29,14,-9
4,112,107,-58,-51,109,14,-24,29,24,14,-9
4,117,112,-61,-53,114,14,-24,29,19,14,-9
4,117,112,-61,-53,114,14,-24,29,19,14,-9
4,107,102,-56,-48,104,14,-24,29,19,24,-9
4,107,102,-56,-48,104,14,-24,29,19,24,-9
4,107,102,-56,-48,104,14,-24,24,9,24,-9
4,112,107,-58,-51,109,14,-24,24,9,24,-14
4,107,102,-56,-48,104,19,-29,24,9,19,-14
4,107,102,-56,-48,104,19,-29,24,9,19,-14
4,107,102,-56,-48,104,19,-29,19,9,14,-14
4,107,102,-56,-48,104,24,-29,19,0,14,-9
4,102,97,-53,-46,100,24,-29,19,9,19,-9
4,102,97,-53,-46,100,24,-29,19,9,24,-9
4,102,97,-53,-46,100,24,-29,19,4,29,-9
4,102,97,-53,-46,100,19,-29,19,0,34,-9
4,107,102,-56,-48,104,19,-29,19,9,34,-14
4,107,102,-56,-48,104,19,-29,19,9,34,-14
4,112,107,-58,-51,109,19,-34,19,4,34,-14
4,112,107,-58,-51,109,19,-34,14,4,34,-14
4,112,107,-58,-51,109,14,-34,14,4,24,-24
4,112,107,-58,-51,109,14,-34,14,4,19,-24
4,112,107,-58,-51,109,14,-34,14,4,19,-29
4,112,107,-58,-51,109,14,-34,14,0,19,-29
4,102,97,-53,-46,100,24,-24,14,0,29,-19
4,102,97,-53,-46,100,24,-24,19,0,29,-19
4,102,97,-53,-46,100,24,-24,19,0,29,-24
4,102,97,-53,-46,100,24,-24,19,0,24,-24
4,82,78,-43,-36,80,34,-14,29,4,34,-14
0,73,73,-36,-36,73,34,-14,34,9,39,-9
0,63,63,-31,-31,63,34,-14,34,14,48,-4
0,53,53,-26,-26,53,34,-14,29,19,53,0
0,53,53,-26,-26,53,43,-14,29,14,53,0
0,53,53,-26,-26,53,43,-14,29,14,53,0
0,53,53,-26,-26,53,43,-14,29,14,53,-4
0,53,53,-26,-26,53,43,-14,29,14,53,-4
4,63,58,-34,-26,61,34,-24,19,14,53,-4
4,63,58,-34,-26,61,34,-24,19,14,53,-4
4,63,58,-34,-26,61,34,-24,19,14,53,-4
4,58,53,-31,-24,56,34,-24,19,14,53,-4
4,48,43,-26,-19,46,34,-14,29,14,43,-4
4,48,43,-26,-19,46,34,-14,29,9,43,-4
4,48,43,-26,-19,46,34,-14,29,9,39,-4
4,48,43,-26,-19,46,34,-14,34,9,39,-4
0,39,39,-19,-19,39,43,-14,24,19,48,4
0,39,39,-19,-19,39,43,-14,24,24,48,4
0,39,39,-19,-19,39,43,-14,24,29,48,4
0,39,39,-19,-19,39,43,-14,24,29,48,4
0,48,48,-24,-24,48,34,-19,24,24,39,14
0,48,48,-24,-24,48,34,-19,24,24,39,14
0,48,48,-24,-24,48,34,-14,24,19,39,14
0,48,48,-24,-24,48,34,-14,24,14,39,14
0,58,58,-29,-29,58,34,-14,19,19,39,14
-4,58,63,-26,-34,61,34,-14,19,19,39,14
-4,58,63,-26,-34,61,34,-14,24,24,39,14
-4,58,63,-26,-34,61,34,-14,24,24,39,14
4,48,43,-26,-19,46,34,-14,24,24,39,14
4,48,43,-26,-19,46,39,-14,24,24,39,14
4,48,43,-26,-19,46,39,-14,24,19,39,14
9,48,39,-29,-14,43,39,-14,24,19,39,14
9,53,43,-31,-17,48,39,-14,24,34,39,14
4,53,48,-29,-21,51,39,-14,24,34,39,14
-4,53,58,-24,-31,56,39,-14,24,29,39,14
-14,53,68,-19,-41,61,39,-14,24,24,39,14
-4,43,48,-19,-26,46,48,-14,24,39,39,4
-4,43,48,-19,-26,46,43,-14,24,43,34,4
-4,43,48,-19,-26,46,43,-14,24,53,34,4
-4,43,48,-19,-26,46,43,-14,24,68,34,4
-4,53,58,-24,-31,56,43,-14,24,63,39,9
-4,58,63,-26,-34,61,43,-14,24,68,39,9
-4,58,63,-26,-34,61,43,-14,24,73,43,9
-4,58,63,-26,-34,61,43,-14,24,68,43,9
-4,58,63,-26,-34,61,43,-14,19,68,34,0
-4,53,58,-24,-31,56,43,-14,19,68,34,0
-4,53,58,-24,-31,56,43,-14,19,63,34,0
-4,48,53,-21,-29,51,39,-19,19,63,34,0
-4,39,43,-17,-24,41,48,-24,19,63,34,0
-4,39,43,-17,-24,41,48,-24,19,63,34,0
-4,39,43,-17,-24,41,48,-19,19,63,34,0
-4,39,43,-17,-24,41,48,-19,19,68,29,0
-4,48,53,-21,-29,51,39,-19,14,68,19,0
-4,53,58,-24,-31,56,39,-19,14,63,19,0
-4,53,58,-24,-31,56,39,-19,9,43,19,0
0,53,53,-26,-26,53,39,-19,9,34,19,0
0,53,53,-26,-26,53,48,-19,9,39,19,9
0,53,53,-26,-26,53,53,-19,14,48,19,9
0,53,53,-26,-26,53,53,-19,14,58,19,9
0,53,53,-26,-26,53,53,-19,14,63,19,9
0,48,48,-24,-24,48,53,-9,14,63,19,29
-9,39,48,-14,-29,43,58,-9,19,68,19,29
0,39,39,-19,-19,39,48,-9,19,68,19,39
0,39,39,-19,-19,39,48,-9,19,68,19,39
0,39,39,-19,-19,39,48,-9,19,68,19,39
0,39,39,-19,-19,39,48,-9,19,68,19,39
0,29,29,-14,-14,29,58,-9,19,68,19,29
0,29,29,-14,-14,29,58,-9,19,68,19,29
0,29,29,-14,-14,29,58,-9,19,68,19,29
0,29,29,-14,-14,29,58,-9,19,68,19,29
-9,29,39,-9,-24,34,58,-9,19,53,19,19
-9,29,39,-9,-24,34,58,-9,19,48,19,19
-9,29,39,-9,-24,34,58,-9,19,43,19,19
-9,29,39,-9,-24,34,58,-9,19,39,19,19
-9,39,48,-14,-29,43,58,-9,19,19,29,9
-9,39,48,-14,-29,43,58,-9,19,9,29,9
-9,39,48,-14,-29,43,58,-9,19,0,29,9
-9,39,48,-14,-29,43,58,-9,19,-9,29,9
-9,29,39,-9,-24,34,58,-9,19,-24,39,9
-9,29,39,-9,-24,34,58,-9,19,-29,39,9
-9,29,39,-9,-24,34,58,-9,19,-34,39,9
-9,29,39,-9,-24,34,58,-9,19,-39,39,9
0,39,39,-19,-19,39,58,-9,19,-48,48,9
0,39,39,-19,-19,39,58,-9,19,-48,48,9
0,39,39,-19,-19,39,58,-9,19,-48,48,9
0,39,39,-19,-19,39,58,-9,19,-48,48,9
0,39,39,-19,-19,39,48,-9,19,-58,58,9
0,39,39,-19,-19,39,48,-9,19,-58,58,9
0,39,39,-19,-19,39,48,-9,19,-58,58,9
0,39,39,-19,-19,39,48,-9,19,-58,58,9
-9,39,48,-14,-29,43,48,-9,19,-63,68,0
-9,39,48,-14,-29,43,48,-9,19,-68,68,0
-9,39,48,-14,-29,43,48,-9,19,-73,68,0
-9,39,48,-14,-29,43,48,-9,19,-78,68,0
-9,29,39,-9,-24,34,58,-9,29,-87,63,0
-9,29,39,-9,-24,34,58,-9,29,-87,58,0
-9,29,39,-9,-24,34,58,-9,29,-87,53,0
-9,29,39,-9,-24,34,58,-9,29,-87,48,0
-9,39,48,-14,-29,43,48,-9,19,-97,39,-9
-9,39,48,-14,-29,43,48,-9,19,-97,39,-9
-9,39,48,-14,-29,43,48,-9,19,-97,39,-9
-9,39,48,-14,-29,43,48,-9,19,-97,39,-9
0,39,39,-19,-19,39,58,0,29,-97,39,-9
0,39,39,-19,-19,39,58,0,29,-97,39,-9
0,39,39,-19,-19,39,58,0,29,-97,39,-9
0,39,39,-19,-19,39,58,0,29,-97,39,-9
0,39,39,-19,-19,39,48,9,39,-92,39,0
0,39,39,-19,-19,39,48,9,39,-87,39,0
0,39,39,-19,-19,39,48,9,39,-82,39,0
0,39,39,-19,-19,39,48,9,39,-78,39,0
9,48,39,-29,-14,43,48,0,48,-73,43,9
9,58,48,-34,-19,53,48,0,48,-68,48,9
9,68,58,-39,-24,63,48,0,48,-63,53,9
9,78,68,-43,-29,73,48,0,48,-58,58,9
9,78,68,-43,-29,73,39,9,63,-43,73,14
9,78,68,-43,-29,73,39,9,68,-39,78,19
9,78,68,-43,-29,73,39,9,73,-34,82,24
9,78,68,-43,-29,73,39,9,78,-29,87,29
9,78,68,-43,-29,73,39,19,87,-19,92,34
9,78,68,-43,-29,73,39,19,97,-19,97,39
9,78,68,-43,-29,73,39,19,107,-19,102,43
9,78,68,-43,-29,73,39,19,117,-19,107,48
14,87,73,-51,-29,80,24,24,126,-34,117,48
19,87,68,-53,-24,78,19,29,126,-39,117,48
24,87,63,-56,-19,75,14,34,126,-43,117,48
29,87,58,-58,-14,73,9,39,126,-48,117,48
39,97,58,-68,-9,78,0,48,126,-48,126,58
43,97,53,-70,-4,75,-19,48,122,-48,131,58
43,97,53,-70,-4,75,-39,43,117,-48,131,58
43,102,58,-73,-7,80,-48,34,112,-48,131,58
43,92,48,-68,-2,70,-53,14,87,-48,126,63
43,92,48,-68,-2,70,-53,4,78,-53,126,63
43,92,48,-68,-2,70,-53,-4,63,-58,126,63
43,92,48,-68,-2,70,-48,-9,58,-58,126,63
34,82,48,-58,-7,65,-48,0,39,-63,107,58
34,78,43,-56,-4,61,-48,-4,24,-78,102,53
34,78,43,-56,-4,61,-48,-9,14,-82,97,48
39,78,39,-58,0,58,-53,-14,4,-87,92,39
29,68,39,-48,-4,53,-43,-19,4,-82,87,43
29,63,34,-46,-2,48,-43,-24,-4,-97,82,39
29,63,34,-46,-2,48,-39,-24,-14,-102,78,39
29,68,39,-48,-4,53,-39,-29,-24,-107,73,39
39,73,34,-56,2,53,-48,-43,-34,-112,68,39
39,78,39,-58,0,58,-39,-43,-39,-112,68,39
39,68,29,-53,4,48,-39,-43,-43,-117,68,39
39,73,34,-56,2,53,-39,-43,-43,-117,68,39
53,78,24,-65,14,51,-34,-43,-39,-126,58,29
63,73,9,-68,26,41,-34,-43,-43,-131,48,24
63,68,4,-65,29,36,-29,-43,-48,-141,43,19
63,53,-9,-58,36,21,-19,-43,-53,-151,39,14
53,48,-4,-51,29,21,-14,-43,-58,-141,29,9
48,43,-4,-46,26,19,-9,-39,-58,-141,24,4
43,43,0,-43,21,21,-4,-39,-53,-131,14,4
39,43,4,-41,17,24,0,-39,-43,-126,24,4
39,53,14,-46,12,34,4,-34,-48,-117,19,0
34,43,9,-39,12,26,14,-24,-43,-117,19,0
29,39,9,-34,9,24,19,-19,-39,-117,19,0
29,39,9,-34,9,24,24,-14,-34,-117,19,-9
34,34,0,-34,17,17,39,0,-29,-112,19,-9
24,29,4,-26,9,17,48,0,-19,-102,19,-14
9,24,14,-17,-2,19,58,4,-19,-97,9,-19
4,19,14,-12,-4,17,58,4,-19,-92,4,-24
-9,14,24,-2,-17,19,53,-4,-9,-78,4,-29
-14,9,24,2,-19,17,58,-4,-9,-73,4,-34
-14,9,24,2,-19,17,68,-4,-9,-68,4,-34
-14,9,24,2,-19,17,68,-4,-9,-53,4,-34
-4,9,14,-2,-9,12,68,-4,-19,-43,19,-43
-4,9,14,-2,-9,12,68,-4,-19,-43,19,-39
-4,4,9,0,-7,7,68,-4,-19,-43,19,-39
-4,4,9,0,-7,7,68,-4,-19,-39,19,-39
-4,4,9,0,-7,7,68,-4,-9,-43,19,-48
-4,4,9,0,-7,7,68,-4,-9,-48,19,-48
-4,4,9,0,-7,7,73,-4,-14,-58,14,-53
-4,0,4,2,-4,2,73,-4,-14,-63,14,-53
-4,-9,-4,7,0,-7,82,4,-9,-63,24,-48
-9,-9,0,9,-4,-4,78,4,-9,-58,24,-43
-9,-9,0,9,-4,-4,78,4,-9,-58,24,-39
-9,-9,0,9,-4,-4,78,4,-9,-58,24,-34
-9,-9,0,9,-4,-4,73,4,-9,-48,39,-43
-9,-9,0,9,-4,-4,73,4,-9,-43,39,-43
-9,-9,0,9,-4,-4,73,4,-9,-43,39,-43
-9,-9,0,9,-4,-4,73,4,-9,-43,39,-43
-9,0,9,4,-9,4,73,0,-9,-39,29,-43
-9,0,9,4,-9,4,73,0,-9,-29,29,-43
-9,0,9,4,-9,4,73,0,-9,-24,29,-43
-9,0,9,4,-9,4,73,-4,-9,-19,29,-43
-9,-9,0,9,-4,-4,78,-4,-9,-19,39,-34
-9,-9,0,9,-4,-4,78,-4,-14,-19,39,-34
-9,-9,0,9,-4,-4,73,-4,-14,-19,39,-34
-9,-9,0,9,-4,-4,73,-4,-14,-19,39,-34
-9,-4,4,7,-7,0,82,4,-9,-29,39,-43
-9,-4,4,7,-7,0,82,4,-9,-29,39,-43
-9,0,9,4,-9,4,82,4,-9,-29,39,-43
-9,0,9,4,-9,4,82,4,0,-24,39,-43
-9,-9,0,9,-4,-4,102,9,14,-24,48,-43
-19,-19,0,19,-9,-9,107,19,39,-14,39,-58
-19,-19,0,19,-9,-9,112,39,68,-19,29,-73
-19,-19,0,19,-9,-9,126,73,102,-9,39,-78
-19,-14,4,17,-12,-4,136,87,146,-4,58,-73
-34,-14,19,24,-26,2,141,92,175,14,82,-63
-29,-9,19,19,-24,4,136,102,209,43,107,-53
-29,4,34,12,-31,19,136,112,234,82,141,-19
-39,39,78,0,-58,58,126,102,224,107,200,39
-29,63,92,-17,-61,78,112,63,185,107,244,117
-4,82,87,-39,-46,85,92,48,156,97,278,185
29,102,73,-65,-21,87,68,39,136,97,307,253
48,122,73,-85,-12,97,43,34,131,87,351,322
82,146,63,-114,9,104,0,24,151,82,380,390
126,151,24,-139,51,87,-39,43,180,82,400,453
185,161,-24,-173,104,68,-73,82,204,82,405,502
244,161,-82,-202,163,39,-97,122,224,63,385,522
307,151,-156,-229,231,-2,-126,146,195,39,331,512
380,146,-234,-263,307,-43,-165,156,117,0,287,502
439,156,-283,-297,361,-63,-190,156,53,-29,253,473
463,156,-307,-309,385,-75,-214,146,-4,-39,214,414
488,156,-331,-322,409,-87,-229,73,-92,-39,195,356
458,146,-312,-302,385,-82,-224,0,-185,-39,170,278
409,112,-297,-261,353,-92,-190,-58,-268,-78,97,146
375,29,-346,-202,361,-158,-136,-92,-356,-151,-63,-43
331,-63,-395,-134,363,-229,-82,-156,-478,-234,-209,-229
253,-136,-390,-58,322,-263,-34,-263,-619,-331,-322,-346
175,-170,-346,-2,261,-258,19,-346,-707,-429,-414,-419
122,-209,-331,43,226,-270,68,-366,-761,-527,-517,-478
63,-239,-302,87,183,-270,97,-380,-873,-658,-605,-512
-39,-229,-190,134,75,-209,141,-419,-1015,-751,-639,-492
-151,-214,-63,183,-43,-139,195,-463,-1117,-775,-629,-478
-209,-229,-19,219,-95,-124,224,-448,-1151,-780,-639,-497
-209,-248,-39,229,-85,-143,219,-409,-1151,-775,-624,-517
-204,-219,-14,212,-95,-117,219,-395,-1122,-746,-575,-497
-209,-200,9,204,-109,-95,229,-370,-1058,-702,-512,-453
-190,-209,-19,200,-85,-114,214,-307,-936,-658,-473,-409
-141,-229,-87,185,-26,-158,195,-248,-814,-629,-424,-370
-117,-200,-82,158,-17,-141,151,-239,-736,-585,-370,-317
-97,-161,-63,129,-17,-112,112,-224,-639,-512,-297,-268
-58,-151,-92,104,17,-122,73,-170,-497,-439,-224,-234
-29,-122,-92,75,31,-107,48,-97,-356,-356,-165,-204
-4,-73,-68,39,31,-70,39,-68,-253,-273,-117,-165
-4,-34,-29,19,12,-31,39,-73,-175,-214,-63,-126
-4,-14,-9,9,2,-12,48,-68,-122,-195,-43,-92
-14,-9,4,12,-9,-2,58,-48,-78,-185,-24,-68
-14,0,14,7,-14,7,58,-53,-63,-195,-19,-58
-4,0,4,2,-4,2,78,-39,-53,-204,-24,-58
-9,-9,0,9,-4,-4,82,-29,-53,-195,-24,-68
-19,0,19,9,-19,9,78,-24,-43,-190,-19,-78
-19,0,19,9,-19,9,78,-19,-34,-180,-14,-78
-19,0,19,9,-19,9,78,-19,-24,-170,-9,-78
-19,0,19,9,-19,9,78,-19,-14,-170,-4,-78
-9,-9,0,9,-4,-4,68,-19,-9,-165,-9,-78
-9,-9,0,9,-4,-4,68,-14,-4,-170,-9,-73
-14,-9,4,12,-9,-2,68,-14,-4,-165,-4,-73
-14,-9,4,12,-9,-2,68,-14,-4,-156,-4,-73
-14,0,14,7,-14,7,68,-4,-9,-136,4,-73
-14,0,14,7,-14,7,68,-4,-9,-131,4,-73
-9,4,14,2,-12,9,68,-9,-4,-131,9,-73
-9,4,14,2,-12,9,68,-9,-4,-131,9,-68
-9,4,14,2,-12,9,68,-9,9,-122,9,-68
-14,0,14,7,-14,7,68,-4,9,-117,9,-68
-14,-4,9,9,-12,2,68,-4,9,-112,9,-68
-9,-4,4,7,-7,0,68,-4,9,-107,14,-68
-9,4,14,2,-12,9,68,-4,0,-107,4,-68
-9,4,14,2,-12,9,68,0,0,-107,4,-68
-9,4,14,2,-12,9,68,4,0,-102,4,-68
-9,4,14,2,-12,9,68,4,4,-97,9,-68
-9,0,9,4,-9,4,68,-4,4,-97,9,-68
-9,0,9,4,-9,4,63,-4,4,-97,9,-68
-9,0,9,4,-9,4,63,-4,4,-102,4,-68
-9,4,14,2,-12,9,68,-4,4,-102,4,-68
-9,-4,4,7,-7,0,68,4,14,-107,0,-53
-9,-4,4,7,-7,0,68,4,19,-107,4,-53
-9,-4,4,7,-7,0,63,4,19,-107,9,-53
-14,-4,9,9,-12,2,63,4,14,-102,9,-53
-4,-4,0,4,-2,-2,63,4,14,-82,0,-63
-4,-4,0,4,-2,-2,63,9,14,-78,0,-63
-4,-9,-4,7,0,-7,68,9,14,-73,0,-63
-4,-9,-4,7,0,-7,68,9,14,-68,0,-63
-14,0,14,7,-14,7,68,0,14,-63,0,-63
-14,0,14,7,-14,7,68,0,14,-58,-4,-63
-14,0,14,7,-14,7,68,0,9,-53,-4,-63
-14,0,14,7,-14,7,68,0,9,-48,-4,-63
-14,-9,4,12,-9,-2,68,0,14,-39,-4,-63
-14,-14,0,14,-7,-7,68,0,14,-39,-4,-63
-9,-14,-4,12,-2,-9,68,0,14,-34,-4,-63
-9,-14,-4,12,-2,-9,68,0,14,-29,0,-63
-9,-24,-14,17,2,-19,68,9,14,-29,9,-63
-9,-24,-14,17,2,-19,68,9,19,-29,9,-58
-9,-24,-14,17,2,-19,68,9,24,-29,9,-58
-9,-24,-14,17,2,-19,68,14,24,-29,9,-58
-9,-19,-9,14,0,-14,68,14,19,-39,9,-58
-9,-19,-9,14,0,-14,68,14,19,-39,9,-63
-9,-19,-9,14,0,-14,68,14,19,-34,9,-63
-9,-19,-9,14,0,-14,68,14,29,-34,9,-68
-9,-14,-4,12,-2,-9,58,4,19,-43,9,-78
-9,-14,-4,12,-2,-9,58,4,14,-53,4,-78
-9,-9,0,9,-4,-4,58,4,14,-58,4,-78
-9,-4,4,7,-7,0,63,4,14,-63,4,-78
-9,-4,4,7,-7,0,63,4,14,-58,4,-68
-9,-4,4,7,-7,0,63,4,14,-53,0,-68
-14,-4,9,9,-12,2,63,4,14,-48,0,-68
-14,-4,9,9,-12,2,63,4,14,-43,0,-68
-9,4,14,2,-12,9,63,14,9,-43,-9,-78
-9,0,9,4,-9,4,63,14,9,-39,-4,-78
-9,0,9,4,-9,4,63,14,9,-34,0,-78
-9,0,9,4,-9,4,63,19,9,-29,0,-78
-9,9,19,0,-14,14,53,9,9,-29,-14,-78
-9,0,9,4,-9,4,58,9,9,-29,-14,-82
-9,-4,4,7,-7,0,58,14,14,-29,-14,-82
-9,-4,4,7,-7,0,58,14,14,-24,-19,-78
-14,4,19,4,-17,12,58,14,14,-14,-19,-78
-14,4,19,4,-17,12,58,14,14,-14,-19,-82
-14,0,14,7,-14,7,58,14,19,-14,-19,-87
-9,0,9,4,-9,4,58,14,19,-24,-24,-87
-9,0,9,4,-9,4,58,14,19,-39,-24,-92
-9,0,9,4,-9,4,58,14,19,-39,-14,-92
-9,4,14,2,-12,9,58,19,19,-39,-4,-92
-9,4,14,2,-12,9,58,19,19,-39,-4,-92
-9,-9,0,9,-4,-4,53,14,19,-48,-14,-82
-9,-9,0,9,-4,-4,53,14,19,-48,-14,-82
-9,0,9,4,-9,4,53,14,24,-53,-14,-82
-9,0,9,4,-9,4,53,14,24,-53,-14,-82
-9,0,9,4,-9,4,58,14,24,-58,-14,-82
-14,0,14,7,-14,7,58,19,24,-63,-14,-87
-14,0,14,7,-14,7,58,19,24,-63,-14,-87
-9,-4,4,7,-7,0,53,19,19,-63,-19,-87
-19,9,29,4,-24,19,43,9,9,-63,-29,-97
-19,14,34,2,-26,24,43,9,9,-63,-29,-97
-19,19,39,0,-29,29,43,4,9,-63,-29,-97
-19,24,43,-2,-31,34,43,4,14,-63,-39,-97
-9,29,39,-9,-24,34,39,9,24,-58,-29,-107
-9,29,39,-9,-24,34,39,9,24,-58,-24,-107
-9,24,34,-7,-21,29,39,9,24,-63,-24,-107
-14,24,39,-4,-26,31,43,9,24,-68,-29,-107
-4,34,39,-14,-21,36,34,9,24,-87,-29,-107
-4,34,39,-14,-21,36,34,9,24,-92,-34,-107
-4,34,39,-14,-21,36,34,9,24,-97,-34,-107
-4,39,43,-17,-24,41,39,9,24,-102,-34,-107
-14,43,58,-14,-36,51,48,9,24,-112,-24,-97
-14,39,53,-12,-34,46,48,9,29,-122,-24,-97
-14,34,48,-9,-31,41,43,9,34,-131,-24,-97
-14,29,43,-7,-29,36,43,9,34,-141,-19,-97
-14,24,39,-4,-26,31,43,19,34,-156,-29,-97
-9,19,29,-4,-19,24,43,19,34,-161,-24,-102
-9,14,24,-2,-17,19,43,14,29,-165,-19,-102
-9,9,19,0,-14,14,43,14,24,-170,-19,-102
-4,19,24,-7,-14,21,43,24,24,-180,-19,-102
-4,19,24,-7,-14,21,43,24,29,-185,-14,-102
-4,24,29,-9,-17,26,43,24,34,-190,-14,-102
-4,24,29,-9,-17,26,48,24,34,-195,-14,-102
-9,14,24,-2,-17,19,48,19,34,-204,-4,-102
-9,19,29,-4,-19,24,43,19,34,-204,-14,-97
-9,24,34,-7,-21,29,43,19,39,-204,-14,-97
-9,24,34,-7,-21,29,43,24,39,-204,-19,-97
-9,24,34,-7,-21,29,34,14,39,-195,-9,-92
-9,24,34,-7,-21,29,39,14,39,-200,-9,-92
-9,29,39,-9,-24,34,43,14,39,-200,-9,-97
-9,29,39,-9,-24,34,43,14,39,-200,-9,-97
0,39,39,-19,-19,39,39,24,34,-204,-14,-102
0,39,39,-19,-19,39,39,24,34,-204,-14,-102
0,39,39,-19,-19,39,39,24,34,-200,-9,-102
0,39,39,-19,-19,39,34,24,34,-200,-9,-102
-9,39,48,-14,-29,43,34,24,34,-195,-9,-102
-9,39,48,-14,-29,43,34,19,34,-204,-9,-102
-9,39,48,-14,-29,43,34,19,34,-209,-9,-102
-9,43,53,-17,-31,48,34,19,34,-209,-9,-102
-9,29,39,-9,-24,34,43,9,34,-200,-9,-92
-9,29,39,-9,-24,34,43,14,34,-200,-9,-102
-4,29,34,-12,-19,31,43,14,39,-204,-9,-102
0,29,29,-14,-14,29,43,14,43,-204,-9,-102
0,24,24,-12,-12,24,43,19,34,-204,-4,-97
0,24,24,-12,-12,24,43,19,34,-204,-4,-97
0,24,24,-12,-12,24,43,24,34,-204,-4,-97
0,24,24,-12,-12,24,43,24,29,-204,0,-97
-9,24,34,-7,-21,29,34,24,29,-204,0,-97
-9,24,34,-7,-21,29,34,19,29,-200,0,-97
-9,24,34,-7,-21,29,34,19,29,-195,0,-97
-4,19,24,-7,-14,21,34,19,29,-190,0,-97
-4,19,24,-7,-14,21,34,9,34,-180,0,-97
-4,19,24,-7,-14,21,34,9,29,-175,-4,-102
-4,24,29,-9,-17,26,34,9,29,-165,-4,-102
-4,29,34,-12,-19,31,34,9,24,-156,-4,-102
0,39,39,-19,-19,39,34,4,24,-146,-4,-102
0,39,39,-19,-19,39,34,4,19,-146,-9,-112
0,39,39,-19,-19,39,34,4,19,-146,-9,-112
0,39,39,-19,-19,39,34,4,19,-146,-9,-112
-9,39,48,-14,-29,43,24,4,9,-136,-9,-117
-9,39,48,-14,-29,43,24,0,0,-136,-9,-122
-4,43,48,-19,-26,46,24,0,0,-141,-9,-126
-4,48,53,-21,-29,51,24,-4,-4,-141,-14,-131
-4,48,53,-21,-29,51,24,-4,4,-131,-14,-126
-4,39,43,-17,-24,41,24,-4,-4,-136,-14,-126
-4,39,43,-17,-24,41,24,-4,-9,-136,-14,-126
-9,34,43,-12,-26,39,24,-4,-9,-136,-19,-131
-9,24,34,-7,-21,29,24,-4,-9,-131,-14,-122
-9,29,39,-9,-24,34,24,-4,-9,-136,-14,-122
-9,29,39,-9,-24,34,24,-9,-14,-136,-14,-122
-9,29,39,-9,-24,34,29,-14,-19,-131,-19,-126
-19,39,58,-9,-39,48,29,-24,-24,-126,-24,-136
-19,39,58,-9,-39,48,29,-24,-24,-122,-24,-136
-19,39,58,-9,-39,48,24,-24,-29,-112,-29,-136
-19,43,63,-12,-41,53,24,-34,-29,-107,-29,-141
-19,39,58,-9,-39,48,24,-34,-34,-97,-43,-141
-19,43,63,-12,-41,53,24,-34,-34,-87,-48,-141
-19,43,63,-12,-41,53,24,-39,-39,-82,-58,-141
-19,43,63,-12,-41,53,19,-43,-48,-68,-68,-141
-19,43,63,-12,-41,53,24,-39,-48,-63,-78,-141
-19,48,68,-14,-43,58,24,-39,-53,-53,-78,-141
-24,48,73,-12,-48,61,29,-39,-58,-43,-78,-141
-24,48,73,-12,-48,61,29,-43,-58,-34,-78,-141
-24,58,82,-17,-53,70,14,-48,-63,-34,-87,-141
-24,58,82,-17,-53,70,14,-53,-68,-34,-87,-141
-24,58,82,-17,-53,70,14,-53,-68,-34,-87,-141
-24,58,82,-17,-53,70,14,-53,-73,-34,-87,-141
-14,53,68,-19,-41,61,19,-53,-73,-43,-97,-141
-14,53,68,-19,-41,61,19,-58,-78,-43,-97,-141
-14,53,68,-19,-41,61,19,-58,-78,-43,-97,-141
-14,53,68,-19,-41,61,19,-58,-87,-43,-97,-141
-14,58,73,-21,-43,65,19,-68,-87,-58,-102,-131
-14,58,73,-21,-43,65,14,-68,-92,-68,-97,-131
-14,58,73,-21,-43,65,9,-68,-92,-73,-92,-126
-14,58,73,-21,-43,65,9,-68,-97,-82,-87,-126
-24,73,97,-24,-61,85,9,-68,-97,-78,-87,-136
-19,73,92,-26,-56,82,9,-68,-97,-73,-87,-131
-19,73,92,-26,-56,82,9,-73,-97,-68,-82,-131
-19,78,97,-29,-58,87,9,-73,-97,-63,-82,-126
-9,68,78,-29,-43,73,4,-82,-97,-58,-78,-126
-9,73,82,-31,-46,78,4,-87,-97,-53,-73,-122
-9,73,82,-31,-46,78,9,-87,-97,-48,-73,-117
-9,73,82,-31,-46,78,9,-87,-97,-43,-73,-112
-9,82,92,-36,-51,87,9,-73,-87,-39,-58,-102
-9,87,97,-39,-53,92,9,-73,-87,-29,-58,-97
-9,87,97,-39,-53,92,4,-73,-82,-24,-53,-92
-9,78,87,-34,-48,82,4,-73,-78,-19,-48,-92
-9,78,87,-34,-48,82,4,-82,-73,-14,-58,-92
-4,82,87,-39,-46,85,4,-82,-73,-14,-48,-92
-4,82,87,-39,-46,85,4,-78,-73,-14,-43,-87
-4,82,87,-39,-46,85,4,-78,-68,-9,-43,-82
-4,82,87,-39,-46,85,4,-68,-63,-9,-39,-82
-4,87,92,-41,-48,90,4,-68,-63,-14,-34,-82
-4,87,92,-41,-48,90,0,-68,-58,-14,-34,-82
-4,87,92,-41,-48,90,0,-63,-48,-19,-29,-78
0,92,92,-46,-46,92,9,-68,-43,-19,-29,-78
0,92,92,-46,-46,92,9,-68,-39,-24,-24,-73
0,92,92,-46,-46,92,9,-68,-34,-19,-24,-73
0,92,92,-46,-46,92,9,-68,-29,-24,-24,-68
4,87,82,-46,-39,85,0,-58,-29,-29,-14,-68
4,82,78,-43,-36,80,0,-53,-24,-24,-9,-68
4,78,73,-41,-34,75,-4,-43,-24,-14,-9,-68
4,68,63,-36,-29,65,-4,-39,-14,-9,-9,-68
4,68,63,-36,-29,65,4,-43,0,4,4,-58
4,73,68,-39,-31,70,4,-43,9,4,4,-53
4,73,68,-39,-31,70,4,-43,9,9,4,-48
9,78,68,-43,-29,73,4,-43,4,19,14,-43
9,87,78,-48,-34,82,-4,-43,4,4,4,-43
9,87,78,-48,-34,82,-4,-39,9,0,4,-43
14,92,78,-53,-31,85,-9,-39,9,-4,4,-43
14,92,78,-53,-31,85,-9,-39,14,-9,9,-43
14,82,68,-48,-26,75,-9,-39,14,-19,0,-53
14,82,68,-48,-26,75,-9,-34,24,-29,0,-53
14,82,68,-48,-26,75,-9,-34,24,-39,0,-53
14,82,68,-48,-26,75,-9,-29,24,-48,0,-53
14,78,63,-46,-24,70,0,-29,19,-58,0,-53
14,68,53,-41,-19,61,0,-29,19,-63,0,-53
19,63,43,-41,-12,53,-4,-24,24,-63,0,-53
19,58,39,-39,-9,48,-4,-24,24,-68,4,-53
19,58,39,-39,-9,48,-4,-14,24,-73,9,-43
19,58,39,-39,-9,48,-4,-14,24,-78,14,-43
19,58,39,-39,-9,48,-4,-14,29,-82,19,-43
24,58,34,-41,-4,46,-4,-14,29,-87,24,-43
24,58,34,-41,-4,46,-4,-14,29,-87,24,-34
24,58,34,-41,-4,46,-4,-14,34,-92,24,-34
24,58,34,-41,-4,46,-4,-14,34,-102,24,-34
24,58,34,-41,-4,46,-4,-14,34,-107,24,-34
19,53,34,-36,-7,43,-14,-19,24,-107,19,-43
19,53,34,-36,-7,43,-14,-19,24,-107,19,-43
19,53,34,-36,-7,43,-14,-19,24,-107,19,-43
19,53,34,-36,-7,43,-14,-19,24,-107,19,-43
29,63,34,-46,-2,48,-9,-14,24,-102,34,-43
29,63,34,-46,-2,48,-9,-14,29,-102,34,-43
34,63,29,-48,2,46,-9,-14,29,-102,29,-43
34,63,29,-48,2,46,-9,-19,24,-107,29,-43
24,63,39,-43,-7,51,-19,-29,24,-117,39,-43
29,63,34,-46,-2,48,-19,-24,24,-112,34,-43
29,58,29,-43,0,43,-19,-24,24,-107,34,-43
24,58,34,-41,-4,46,-19,-24,24,-97,29,-43
34,63,29,-48,2,46,-19,-14,24,-112,19,-43
34,63,29,-48,2,46,-19,-14,24,-112,24,-43
34,63,29,-48,2,46,-19,-14,19,-112,24,-43
34,63,29,-48,2,46,-19,-19,19,-112,24,-43
34,73,39,-53,-2,56,-19,-19,24,-112,24,-43
34,73,39,-53,-2,56,-19,-19,24,-117,24,-43
34,73,39,-53,-2,56,-19,-19,24,-122,24,-43
34,63,29,-48,2,46,-19,-14,24,-117,29,-43
24,63,39,-43,-7,51,-19,-24,14,-126,29,-43
34,68,34,-51,0,51,-19,-29,14,-126,29,-43
34,78,43,-56,-4,61,-24,-29,14,-126,29,-43
34,87,53,-61,-9,70,-24,-34,14,-126,29,-43
24,82,58,-53,-17,70,-29,-29,24,-112,24,-39
24,78,53,-51,-14,65,-29,-29,19,-112,24,-39
24,82,58,-53,-17,70,-29,-29,19,-112,24,-39
24,78,53,-51,-14,65,-34,-29,14,-107,24,-39
14,63,48,-39,-17,56,-24,-24,14,-102,24,-29
14,63,48,-39,-17,56,-24,-24,19,-102,24,-29
14,68,53,-41,-19,61,-24,-24,19,-102,24,-29
14,68,53,-41,-19,61,-24,-24,19,-97,24,-29
24,78,53,-51,-14,65,-34,-34,9,-97,24,-34
24,78,53,-51,-14,65,-34,-34,9,-97,24,-39
24,78,53,-51,-14,65,-34,-34,4,-107,24,-43
24,82,58,-53,-17,70,-34,-34,4,-107,24,-53
24,87,63,-56,-19,75,-39,-39,4,-102,19,-43
24,87,63,-56,-19,75,-39,-39,4,-97,19,-43
24,87,63,-56,-19,75,-39,-39,0,-92,14,-43
24,87,63,-56,-19,75,-34,-39,0,-97,14,-39
24,82,58,-53,-17,70,-34,-39,9,-97,24,-29
24,82,58,-53,-17,70,-34,-39,9,-97,24,-29
24,82,58,-53,-17,70,-34,-39,9,-102,24,-29
24,82,58,-53,-17,70,-39,-39,9,-107,24,-29
24,87,63,-56,-19,75,-39,-48,0,-92,24,-34
24,87,63,-56,-19,75,-39,-48,0,-87,24,-34
24,92,68,-58,-21,80,-39,-53,0,-87,24,-34
24,92,68,-58,-21,80,-39,-53,-4,-82,24,-34
24,102,78,-63,-26,90,-34,-53,-4,-73,19,-34
24,102,78,-63,-26,90,-34,-53,-4,-63,9,-34
24,102,78,-63,-26,90,-34,-53,-4,-53,4,-39
24,102,78,-63,-26,90,-34,-53,-4,-48,0,-39
24,107,82,-65,-29,95,-43,-53,-14,-39,-9,-39
24,112,87,-68,-31,100,-43,-53,-9,-29,-9,-39
24,117,92,-70,-34,104,-43,-53,-9,-19,-9,-43
24,122,97,-73,-36,109,-43,-53,-9,-9,-14,-43
24,122,97,-73,-36,109,-43,-53,-19,-4,-9,-39
19,122,102,-70,-41,112,-43,-53,-14,0,-9,-39
19,122,102,-70,-41,112,-43,-53,-14,4,-4,-39
19,122,102,-70,-41,112,-43,-53,-19,9,-4,-39
19,122,102,-70,-41,112,-53,-63,-19,14,-4,-48
19,122,102,-70,-41,112,-53,-63,-19,14,-4,-48
19,122,102,-70,-41,112,-53,-63,-19,14,-4,-53
19,122,102,-70,-41,112,-53,-63,-19,14,-4,-53
24,131,107,-78,-41,119,-53,-63,-19,4,-4,-53
24,131,107,-78,-41,119,-53,-63,-19,4,-4,-53
24,131,107,-78,-41,119,-53,-63,-19,4,-4,-53
24,126,102,-75,-39,114,-53,-63,-19,4,-4,-53
24,126,102,-75,-39,114,-53,-63,-19,0,-4,-53
24,126,102,-75,-39,114,-53,-63,-19,-9,-4,-53
24,126,102,-75,-39,114,-53,-63,-19,-14,-9,-53
24,126,102,-75,-39,114,-53,-63,-14,-19,-9,-53
9,136,126,-73,-58,131,-53,-63,-14,-14,0,-53
9,136,126,-73,-58,131,-53,-63,-14,-4,0,-53
9,136,126,-73,-58,131,-53,-63,-14,4,0,-53
9,136,126,-73,-58,131,-53,-63,-14,9,0,-53
19,136,117,-78,-48,126,-63,-78,-24,19,0,-53
19,136,117,-78,-48,126,-63,-78,-24,24,0,-53
19,136,117,-78,-48,126,-63,-73,-24,24,0,-53
19,136,117,-78,-48,126,-63,-73,-24,24,0,-53
9,146,136,-78,-63,141,-63,-73,-29,19,-4,-63
4,146,141,-75,-68,143,-63,-73,-29,19,-9,-63
4,146,141,-75,-68,143,-63,-73,-24,24,-14,-63
4,146,141,-75,-68,143,-63,-73,-24,24,-19,-63
14,131,117,-73,-51,124,-63,-63,-14,14,-9,-58
14,126,112,-70,-48,119,-58,-63,-14,14,-9,-53
14,122,107,-68,-46,114,-58,-63,-14,9,-9,-48
19,117,97,-68,-39,107,-58,-63,-14,9,-9,-43
24,112,87,-68,-31,100,-58,-63,-14,9,0,-43
24,112,87,-68,-31,100,-58,-63,-14,4,0,-43
19,112,92,-65,-36,102,-58,-63,-14,-4,0,-43
14,112,97,-63,-41,104,-58,-63,-14,-14,0,-43
4,122,117,-63,-56,119,-58,-63,-14,-9,-9,-43
4,122,117,-63,-56,119,-63,-63,-14,-14,-14,-43
4,122,117,-63,-56,119,-63,-63,-14,-14,-14,-43
4,122,117,-63,-56,119,-63,-63,-14,-9,-14,-43
4,112,107,-58,-51,109,-63,-63,-24,-14,-24,-58
4,117,112,-61,-53,114,-63,-63,-24,-9,-29,-58
4,117,112,-61,-53,114,-63,-63,-24,-4,-29,-58
4,117,112,-61,-53,114,-63,-63,-24,-9,-34,-58
4,122,117,-63,-56,119,-63,-63,-29,-4,-29,-48
4,122,117,-63,-56,119,-63,-63,-29,0,-24,-48
4,126,122,-65,-58,124,-63,-63,-29,0,-19,-48
4,126,122,-65,-58,124,-68,-68,-29,4,-14,-48
4,126,122,-65,-58,124,-68,-63,-19,-4,-14,-48
4,126,122,-65,-58,124,-68,-63,-19,-4,-14,-48
4,126,122,-65,-58,124,-68,-58,-19,-4,-14,-48
4,126,122,-65,-58,124,-68,-58,-19,0,-19,-48
4,131,126,-68,-61,129,-68,-68,-24,-14,-29,-48
4,131,126,-68,-61,129,-68,-68,-24,-34,-29,-48
4,126,122,-65,-58,124,-68,-68,-29,-68,-29,-48
9,122,112,-65,-51,117,-68,-68,-29,-92,-29,-48
9,131,122,-70,-56,126,-68,-68,-19,-107,-34,-58
9,131,122,-70,-56,126,-63,-68,-14,-107,-39,-58
9,131,122,-70,-56,126,-63,-68,-14,-107,-43,-58
9,131,122,-70,-56,126,-63,-68,-14,-112,-48,-58
9,126,117,-68,-53,122,-63,-68,-14,-131,-48,-58
9,126,117,-68,-53,122,-68,-68,-19,-136,-48,-58
9,136,126,-73,-58,131,-68,-68,-29,-136,-43,-58
9,136,126,-73,-58,131,-68,-68,-29,-136,-39,-58
9,136,126,-73,-58,131,-68,-68,-29,-136,-34,-58
9,136,126,-73,-58,131,-68,-68,-29,-136,-29,-58
9,136,126,-73,-58,131,-68,-78,-19,-146,-19,-48
9,136,126,-73,-58,131,-68,-78,-19,-146,-19,-48
9,136,126,-73,-58,131,-68,-78,-19,-146,-19,-48
9,136,126,-73,-58,131,-68,-78,-19,-146,-19,-48
9,146,136,-78,-63,141,-78,-68,-19,-156,-24,-39
9,146,136,-78,-63,141,-78,-68,-19,-156,-29,-39
9,146,136,-78,-63,141,-78,-68,-19,-156,-34,-39
9,146,136,-78,-63,141,-78,-68,-19,-156,-39,-39
9,136,126,-73,-58,131,-78,-68,-29,-156,-29,-39
9,136,126,-73,-58,131,-78,-68,-29,-156,-29,-39
9,136,126,-73,-58,131,-78,-68,-29,-156,-29,-39
9,136,126,-73,-58,131,-78,-68,-29,-156,-29,-39
0,136,136,-68,-68,136,-78,-68,-19,-165,-29,-29
0,136,136,-68,-68,136,-78,-68,-19,-165,-29,-29
0,136,136,-68,-68,136,-78,-68,-19,-165,-29,-29
0,136,136,-68,-68,136,-78,-68,-19,-165,-29,-29
9,136,126,-73,-58,131,-78,-58,-9,-165,-39,-39
9,136,126,-73,-58,131,-78,-58,-9,-165,-39,-39
9,136,126,-73,-58,131,-78,-58,-9,-165,-39,-39
9,136,126,-73,-58,131,-78,-58,-9,-165,-39,-39
9,131,122,-70,-56,126,-68,-48,-9,-161,-39,-39
9,126,117,-68,-53,122,-68,-48,-9,-156,-39,-39
9,122,112,-65,-51,117,-68,-48,-9,-151,-39,-39
9,117,107,-63,-48,112,-68,-48,-9,-146,-39,-39
9,117,107,-63,-48,112,-68,-48,-19,-136,-29,-29
9,117,107,-63,-48,112,-68,-48,-19,-136,-29,-29
9,117,107,-63,-48,112,-68,-48,-19,-136,-29,-29
9,117,107,-63,-48,112,-68,-48,-19,-136,-29,-29
9,117,107,-63,-48,112,-68,-48,-9,-126,-19,-19
9,117,107,-63,-48,112,-68,-48,-9,-126,-19,-19
9,117,107,-63,-48,112,-68,-48,-9,-126,-19,-19
9,117,107,-63,-48,112,-68,-48,-9,-126,-19,-19
9,126,117,-68,-53,122,-68,-39,0,-126,-19,-19
9,126,117,-68,-53,122,-68,-39,0,-126,-19,-19
9,126,117,-68,-53,122,-68,-39,0,-126,-19,-19
9,126,117,-68,-53,122,-68,-39,0,-126,-19,-19
19,117,97,-68,-39,107,-68,-39,9,-126,-19,-19
19,117,97,-68,-39,107,-68,-39,9,-126,-19,-19
19,117,97,-68,-39,107,-68,-39,9,-126,-19,-19
19,117,97,-68,-39,107,-68,-39,9,-126,-19,-19
19,122,102,-70,-41,112,-68,-29,14,-117,-9,-14
19,126,107,-73,-43,117,-68,-29,19,-107,-9,-9
19,131,112,-75,-46,122,-68,-29,24,-97,-9,-4
19,136,117,-78,-48,126,-68,-29,29,-87,-9,0
29,146,117,-87,-43,131,-73,-29,43,-63,0,14
29,156,126,-92,-48,141,-78,-29,48,-48,9,19
29,165,136,-97,-53,151,-82,-29,53,-34,19,24
29,175,146,-102,-58,161,-87,-29,58,-19,29,29
29,180,151,-104,-61,165,-87,-19,73,-9,39,29
29,185,156,-107,-63,170,-87,-19,78,0,39,29
29,190,161,-109,-65,175,-87,-19,82,9,39,29
29,195,165,-112,-68,180,-87,-19,87,19,39,29
34,185,151,-109,-58,168,-102,-14,97,19,39,29
39,185,146,-112,-53,165,-107,-9,97,19,39,29
43,185,141,-114,-48,163,-112,-4,97,19,39,29
53,185,131,-119,-39,158,-126,0,92,19,43,29
53,195,141,-124,-43,168,-141,4,87,24,53,39
53,200,146,-126,-46,173,-146,-4,82,29,53,39
53,200,146,-126,-46,173,-156,-14,68,34,58,43
53,200,146,-126,-46,173,-161,-24,58,34,58,43
53,195,141,-124,-43,168,-161,-34,53,39,68,48
53,190,136,-122,-41,163,-156,-39,48,48,68,53
43,175,131,-109,-43,153,-156,-39,39,53,58,58
43,165,122,-104,-39,143,-156,-43,24,48,53,63
43,170,126,-107,-41,148,-165,-58,9,48,48,53
48,175,126,-112,-39,151,-170,-63,-4,48,43,48
48,180,131,-114,-41,156,-170,-68,-19,48,39,43
48,180,131,-114,-41,156,-170,-73,-34,39,34,39
48,180,131,-114,-41,156,-165,-73,-34,39,19,39
48,185,136,-117,-43,161,-165,-78,-43,39,14,39
48,185,136,-117,-43,161,-165,-82,-53,39,9,39
48,185,136,-117,-43,161,-156,-82,-58,43,9,39
48,161,112,-104,-31,136,-146,-73,-63,29,19,39
48,161,112,-104,-31,136,-146,-73,-63,29,19,39
53,156,102,-104,-24,129,-141,-73,-68,29,19,39
63,151,87,-107,-12,119,-141,-73,-73,24,9,34
63,156,92,-109,-14,124,-136,-63,-68,4,14,34
63,141,78,-102,-7,109,-126,-63,-73,-4,9,34
63,136,73,-100,-4,104,-122,-63,-78,-4,9,34
58,131,73,-95,-7,102,-117,-58,-78,-4,4,34
53,122,68,-87,-7,95,-122,-68,-78,-14,-14,43
48,122,73,-85,-12,97,-117,-68,-73,-19,-4,43
48,122,73,-85,-12,97,-112,-63,-73,-29,0,39
43,112,68,-78,-12,90,-102,-53,-73,-39,0,39
39,107,68,-73,-14,87,-87,-48,-58,-34,0,29
39,107,68,-73,-14,87,-82,-43,-53,-29,0,19
34,102,68,-68,-17,85,-68,-39,-48,-24,0,19
24,97,73,-61,-24,85,-58,-39,-39,-14,0,14
14,92,78,-53,-31,85,-58,-24,-39,-14,-9,14
14,87,73,-51,-29,80,-58,-24,-39,-14,-14,14
14,82,68,-48,-26,75,-53,-24,-39,-14,-14,14
14,78,63,-46,-24,70,-48,-24,-39,-14,-14,14
9,78,68,-43,-29,73,-29,-24,-39,-14,-14,14
4,78,73,-41,-34,75,-29,-24,-39,-4,-14,14
0,78,78,-39,-39,78,-29,-24,-39,-4,-9,14
-4,78,82,-36,-43,80,-29,-24,-39,-4,-9,19
-4,73,78,-34,-41,75,-29,-24,-39,-14,0,19
-4,73,78,-34,-41,75,-29,-24,-39,-9,0,19
-4,73,78,-34,-41,75,-29,-24,-39,-9,0,19
-4,73,78,-34,-41,75,-29,-24,-39,-9,0,19
4,82,78,-43,-36,80,-24,-24,-43,-29,-4,14
4,78,73,-41,-34,75,-24,-24,-43,-34,-4,14
4,78,73,-41,-34,75,-24,-24,-39,-39,-4,14
0,78,78,-39,-39,78,-29,-24,-39,-39,-4,14
-9,87,97,-39,-53,92,-39,-24,-48,-53,-14,4
-9,87,97,-39,-53,92,-39,-24,-48,-68,-14,4
-9,87,97,-39,-53,92,-34,-24,-48,-82,-9,4
-9,87,97,-39,-53,92,-34,-24,-48,-92,-9,4
-9,78,87,-34,-48,82,-24,-24,-39,-102,-9,4
-9,78,87,-34,-48,82,-24,-24,-39,-112,-9,4
-9,78,87,-34,-48,82,-24,-19,-39,-122,-9,4
-9,78,87,-34,-48,82,-24,-19,-39,-126,-9,4
-9,73,82,-31,-46,78,-24,-19,-39,-141,0,14
-9,68,78,-29,-43,73,-24,-24,-39,-146,0,14
-9,63,73,-26,-41,68,-19,-24,-39,-151,0,14
-9,58,68,-24,-39,63,-19,-24,-43,-156,0,14
-9,68,78,-29,-43,73,-24,-24,-53,-156,9,14
-9,68,78,-29,-43,73,-24,-24,-53,-156,9,14
-9,63,73,-26,-41,68,-24,-24,-48,-156,9,14
-9,63,73,-26,-41,68,-24,-24,-48,-156,9,14
-9,87,97,-39,-53,92,-24,-24,-39,-165,19,24
-9,78,87,-34,-48,82,-24,-24,-29,-180,19,24
-9,78,87,-34,-48,82,-24,-29,-24,-180,19,14
-19,78,97,-29,-58,87,-19,-19,-19,-170,19,19
-19,78,97,-29,-58,87,-4,-9,0,-165,9,14
-19,78,97,-29,-58,87,0,14,24,-165,0,0
-29,63,92,-17,-61,78,9,39,48,-161,-9,-14
-24,63,87,-19,-56,75,14,63,78,-151,-4,-34
-29,68,97,-19,-63,82,29,82,112,-112,19,-24
-39,63,102,-12,-70,82,39,92,156,-82,53,0
-39,68,107,-14,-73,87,39,102,175,-39,102,29
-29,82,112,-26,-70,97,34,92,195,-9,156,87
-34,102,136,-34,-85,119,24,68,175,0,200,165
-19,112,131,-46,-75,122,0,58,146,0,229,234
9,131,122,-70,-56,126,-14,53,122,9,253,302
43,165,122,-104,-39,143,-48,34,112,14,292,370
68,190,122,-129,-26,156,-78,24,112,24,322,434
107,209,102,-158,2,156,-122,43,136,43,356,502
156,219,63,-187,46,141,-156,82,165,43,375,570
229,219,-9,-224,119,104,-185,117,185,29,370,610
302,214,-87,-258,195,63,-214,136,175,-9,336,610
361,204,-156,-283,258,24,-248,146,131,-48,283,600
414,204,-209,-309,312,-2,-292,126,73,-68,244,570
458,214,-244,-336,351,-14,-307,102,53,-68,204,512
468,214,-253,-341,361,-19,-322,39,19,-48,180,434
458,229,-229,-344,344,0,-326,-58,-53,-19,175,351
414,224,-190,-319,302,17,-302,-131,-112,-14,141,258
370,161,-209,-265,290,-24,-248,-175,-156,-48,43,112
322,58,-263,-190,292,-102,-190,-224,-239,-97,-97,-73
244,-24,-268,-109,256,-146,-136,-307,-385,-156,-200,-204
161,-63,-224,-48,192,-143,-87,-405,-507,-234,-283,-283
92,-92,-185,0,139,-139,-48,-448,-590,-307,-380,-346
39,-122,-161,41,100,-141,-4,-458,-673,-419,-483,-395
-43,-136,-92,90,24,-114,39,-492,-814,-522,-541,-400
-151,-112,39,131,-95,-36,87,-536,-956,-566,-561,-390
-219,-112,107,165,-163,-2,122,-566,-1044,-600,-585,-409
-234,-131,102,183,-168,-14,131,-551,-1083,-639,-595,-439
-239,-122,117,180,-178,-2,131,-517,-1078,-624,-561,-414
-239,-102,136,170,-187,17,136,-502,-1054,-610,-512,-380
-229,-112,117,170,-173,2,136,-453,-990,-610,-483,-351
-195,-141,53,168,-124,-43,122,-366,-883,-595,-458,-326
-156,-131,24,143,-90,-53,92,-322,-785,-551,-405,-278
-126,-102,24,114,-75,-39,43,-317,-702,-478,-331,-224
-87,-73,14,80,-51,-29,9,-283,-590,-414,-253,-175
-43,-43,0,43,-21,-21,-19,-204,-439,-351,-185,-136
-24,-14,9,19,-17,-2,-39,-141,-312,-273,-131,-87
-14,4,19,4,-17,12,-48,-126,-239,-195,-82,-43
-14,39,53,-12,-34,46,-39,-107,-185,-146,-43,-19
-24,58,82,-17,-53,70,-29,-92,-151,-117,-19,0
-24,58,82,-17,-53,70,-29,-78,-131,-107,-14,0
-19,58,78,-19,-48,68,-24,-68,-122,-107,-14,0
-19,58,78,-19,-48,68,-9,-53,-112,-92,-24,0
-19,58,78,-19,-48,68,-9,-48,-102,-82,-24,0
-19,58,78,-19,-48,68,-9,-48,-92,-73,-24,0
-19,58,78,-19,-48,68,-9,-48,-82,-73,-24,0
-19,58,78,-19,-48,68,-9,-39,-68,-53,-19,0
-19,58,78,-19,-48,68,-9,-34,-63,-53,-19,4
-24,58,82,-17,-53,70,-9,-34,-63,-43,-14,4
-24,58,82,-17,-53,70,-9,-34,-63,-29,-14,4
-14,58,73,-21,-43,65,-9,-24,-68,-24,-24,-4
-14,58,73,-21,-43,65,-9,-24,-68,-24,-24,-4
