I,II,III,aVR,aVL,aVF,V1,V2,V3,V4,V5,V6
897,1434,536,-1166,180,985,-2440,-1220,907,1698,1717,1620
897,1434,536,-1166,180,985,-2440,-1220,907,1698,1717,1620
897,1434,536,-1166,180,985,-2440,-1220,907,1698,1717,1620
897,1434,536,-1166,180,985,-2440,-1220,907,1698,1717,1620
888,1420,531,-1154,178,976,-2483,-1332,858,1732,1771,1678
888,1405,517,-1146,185,961,-2518,-1444,810,1756,1815,1727
888,1390,502,-1139,192,946,-2552,-1556,761,1781,1859,1776
888,1376,488,-1132,200,932,-2586,-1668,712,1805,1903,1825
863,1385,522,-1124,170,954,-2576,-1786,585,1771,1922,1864
849,1395,546,-1122,151,971,-2566,-1893,468,1737,1932,1893
834,1405,570,-1119,131,988,-2557,-2000,351,1703,1942,1922
819,1415,595,-1117,112,1005,-2547,-2108,234,1668,1952,1952
795,1444,649,-1119,73,1046,-2518,-2215,92,1595,1947,1986
771,1464,692,-1117,39,1078,-2488,-2322,-48,1532,1942,2010
746,1483,736,-1115,4,1110,-2459,-2430,-190,1468,1937,2034
722,1503,780,-1112,-29,1141,-2430,-2537,-331,1405,1932,2059
692,1483,790,-1088,-48,1137,-2361,-2552,-434,1346,1917,2074
673,1473,800,-1073,-63,1137,-2293,-2566,-527,1288,1903,2078
653,1464,810,-1058,-78,1137,-2225,-2581,-619,1229,1888,2083
634,1454,819,-1044,-92,1137,-2156,-2596,-712,1171,1873,2088
575,1429,854,-1002,-139,1141,-2044,-2532,-756,1098,1825,2074
517,1405,888,-961,-185,1146,-1942,-2479,-800,1024,1786,2059
458,1381,922,-919,-231,1151,-1839,-2425,-844,951,1747,2044
400,1356,956,-878,-278,1156,-1737,-2371,-888,878,1708,2030
366,1298,932,-832,-283,1115,-1629,-2239,-888,800,1654,2000
331,1239,907,-785,-287,1073,-1522,-2117,-888,732,1610,1981
297,1180,883,-739,-292,1032,-1415,-1995,-888,663,1566,1961
263,1122,858,-692,-297,990,-1307,-1873,-888,595,1522,1942
234,1039,805,-636,-285,922,-1200,-1751,-858,531,1449,1883
214,956,741,-585,-263,849,-1093,-1629,-839,468,1376,1825
195,873,678,-534,-241,775,-985,-1507,-819,405,1302,1766
175,790,614,-483,-219,702,-878,-1385,-800,341,1229,1708
170,697,527,-434,-178,612,-795,-1259,-756,297,1151,1649
165,605,439,-385,-136,522,-712,-1132,-712,253,1083,1590
161,512,351,-336,-95,431,-629,-1005,-668,209,1015,1532
156,419,263,-287,-53,341,-546,-878,-624,165,946,1473
170,326,156,-248,7,241,-468,-746,-551,165,907,1420
175,234,58,-204,58,146,-400,-624,-478,165,868,1366
180,141,-39,-161,109,51,-331,-502,-405,165,829,1312
185,48,-136,-117,161,-43,-263,-380,-331,165,790,1259
180,-4,-185,-87,183,-95,-195,-283,-283,141,707,1151
175,-58,-234,-58,204,-146,-136,-185,-234,117,624,1054
170,-112,-283,-29,226,-197,-78,-87,-185,92,541,956
165,-165,-331,0,248,-248,-19,9,-136,68,458,858
136,-209,-346,36,241,-278,34,73,-107,34,366,736
117,-244,-361,63,239,-302,87,126,-78,0,273,624
97,-278,-375,90,236,-326,141,180,-48,-34,180,512
78,-312,-390,117,234,-351,195,234,-19,-68,87,400
43,-322,-366,139,204,-344,248,278,-9,-107,-9,287
19,-322,-341,151,180,-331,292,312,0,-146,-97,175
-4,-322,-317,163,156,-319,336,346,9,-185,-185,63
-29,-322,-292,175,131,-307,380,380,19,-224,-273,-48
-39,-346,-307,192,134,-326,414,414,39,-239,-307,-102
-48,-361,-312,204,131,-336,439,439,48,-244,-331,-146
-58,-375,-317,217,129,-346,463,463,58,-248,-356,-190
-68,-390,-322,229,126,-356,488,488,68,-253,-380,-234
-68,-390,-322,229,126,-356,502,502,78,-244,-400,-258
-68,-390,-322,229,126,-356,517,517,87,-244,-409,-273
-68,-390,-322,229,126,-356,531,531,97,-244,-419,-287
-68,-390,-322,229,126,-356,546,546,107,-244,-429,-302
-78,-400,-322,239,122,-361,556,561,97,-258,-444,-317
-87,-409,-322,248,117,-366,566,566,97,-263,-448,-322
-97,-419,-322,258,112,-370,575,570,97,-268,-453,-326
-107,-429,-322,268,107,-375,585,575,97,-273,-458,-331
-97,-439,-341,268,122,-390,605,600,112,-283,-463,-336
-87,-439,-351,263,131,-395,624,614,117,-283,-468,-341
-78,-439,-361,258,141,-400,644,629,122,-283,-473,-346
-68,-439,-370,253,151,-405,663,644,126,-283,-478,-351
-82,-448,-366,265,141,-407,683,663,136,-273,-478,-356
-87,-448,-361,268,136,-405,702,683,146,-273,-478,-361
-92,-448,-356,270,131,-402,722,702,156,-273,-478,-366
-97,-448,-351,273,126,-400,741,722,165,-273,-478,-370
-112,-453,-341,283,114,-397,761,736,165,-292,-497,-395
-117,-458,-341,287,112,-400,780,751,165,-302,-517,-409
-122,-463,-341,292,109,-402,800,766,165,-312,-536,-424
-126,-468,-341,297,107,-405,819,780,165,-322,-556,-439
-126,-483,-356,305,114,-419,844,805,170,-336,-570,-448
-126,-497,-370,312,122,-434,858,819,175,-341,-575,-458
-126,-512,-385,319,129,-448,873,834,180,-346,-580,-468
-126,-527,-400,326,136,-463,888,849,185,-351,-585,-478
-141,-541,-400,341,129,-470,922,868,185,-366,-610,-507
-146,-546,-400,346,126,-473,946,888,185,-380,-634,-527
-151,-551,-400,351,124,-475,971,907,185,-395,-658,-546
-156,-556,-400,356,122,-478,995,927,185,-409,-683,-566
-161,-575,-414,368,126,-495,1019,946,200,-419,-692,-575
-165,-595,-429,380,131,-512,1034,966,204,-419,-692,-575
-170,-614,-444,392,136,-529,1049,985,209,-419,-692,-575
-175,-634,-458,405,141,-546,1063,1005,214,-419,-692,-575
-175,-644,-468,409,146,-556,1078,1029,234,-419,-707,-590
-175,-653,-478,414,151,-566,1093,1044,244,-419,-722,-605
-175,-663,-488,419,156,-575,1107,1058,253,-419,-736,-619
-175,-673,-497,424,161,-585,1122,1073,263,-419,-751,-634
-180,-683,-502,431,161,-592,1127,1093,278,-424,-761,-658
-185,-683,-497,434,156,-590,1132,1102,283,-429,-771,-673
-190,-683,-492,436,151,-588,1137,1112,287,-434,-780,-688
-195,-683,-488,439,146,-585,1141,1122,292,-439,-790,-702
-190,-673,-483,431,146,-578,1146,1137,317,-434,-805,-717
-185,-673,-488,429,151,-580,1151,1151,331,-429,-810,-732
-180,-673,-492,427,156,-583,1156,1166,346,-424,-814,-746
-175,-673,-497,424,161,-585,1161,1180,361,-419,-819,-761
-165,-683,-517,424,175,-600,1151,1185,375,-405,-814,-771
-165,-683,-517,424,175,-600,1141,1190,390,-390,-810,-771
-165,-683,-517,424,175,-600,1132,1195,405,-375,-805,-771
-165,-683,-517,424,175,-600,1122,1200,419,-361,-800,-771
-165,-673,-507,419,170,-590,1102,1200,444,-341,-775,-756
-165,-673,-507,419,170,-590,1093,1200,458,-322,-761,-751
-165,-673,-507,419,170,-590,1083,1200,473,-302,-746,-746
-165,-673,-507,419,170,-590,1073,1200,488,-283,-732,-741
-151,-658,-507,405,178,-583,1058,1185,507,-248,-707,-722
-146,-653,-507,400,180,-580,1044,1171,517,-224,-683,-702
-141,-649,-507,395,183,-578,1029,1156,527,-200,-658,-683
-136,-644,-507,390,185,-575,1015,1141,536,-175,-634,-663
-117,-610,-492,363,187,-551,985,1107,527,-156,-610,-639
-107,-585,-478,346,185,-531,956,1083,527,-136,-585,-624
-97,-561,-463,329,183,-512,927,1058,527,-117,-561,-610
-87,-536,-448,312,180,-492,897,1034,527,-97,-536,-595
-82,-517,-434,300,175,-475,863,995,517,-78,-497,-556
-78,-507,-429,292,175,-468,829,966,517,-58,-468,-527
-73,-497,-424,285,175,-461,795,936,517,-39,-439,-497
-68,-488,-419,278,175,-453,761,907,517,-19,-409,-468
-58,-458,-400,258,170,-429,722,873,497,-4,-385,-434
-58,-439,-380,248,161,-409,692,839,488,9,-361,-409
-58,-419,-361,239,151,-390,663,805,478,24,-336,-385
-58,-400,-341,229,141,-370,634,771,468,39,-312,-361
-43,-361,-317,202,136,-339,590,722,444,53,-292,-331
-29,-331,-302,180,136,-317,556,683,429,58,-273,-302
-14,-302,-287,158,136,-295,522,644,414,63,-253,-273
0,-273,-273,136,136,-273,488,605,400,68,-234,-244
4,-244,-248,119,126,-246,453,570,370,58,-209,-224
9,-224,-234,107,122,-229,429,536,351,58,-195,-204
14,-204,-219,95,117,-212,405,502,331,58,-180,-185
19,-185,-204,82,112,-195,380,468,312,58,-165,-165
24,-165,-190,70,107,-178,341,434,292,58,-146,-146
29,-146,-175,58,102,-161,312,400,273,58,-136,-126
34,-126,-161,46,97,-143,283,366,253,58,-126,-107
39,-107,-146,34,92,-126,253,331,234,58,-117,-87
43,-92,-136,24,90,-114,234,297,204,43,-112,-78
48,-78,-126,14,87,-102,214,273,185,39,-107,-68
53,-63,-117,4,85,-90,195,248,165,34,-102,-58
58,-48,-107,-4,82,-78,175,224,146,29,-97,-48
58,-39,-97,-9,78,-68,161,200,131,14,-92,-39
58,-29,-87,-14,73,-58,146,175,117,9,-87,-29
58,-19,-78,-19,68,-48,131,151,102,4,-82,-19
58,-9,-68,-24,63,-39,117,126,87,0,-78,-9
68,9,-58,-39,63,-24,107,117,73,0,-68,0
68,29,-39,-48,53,-4,107,107,68,0,-68,9
68,48,-19,-58,43,14,107,97,63,0,-68,19
73,82,9,-78,31,46,107,78,48,-4,-63,34
73,78,4,-75,34,41,102,68,39,-4,-53,48
73,82,9,-78,31,46,97,58,34,-9,-53,58
73,97,24,-85,24,61,97,48,24,-14,-48,68
78,92,14,-85,31,53,92,48,14,-19,-48,73
87,97,9,-92,39,53,82,39,9,-34,-53,68
82,102,19,-92,31,61,73,24,-9,-43,-68,68
82,117,34,-100,24,75,73,9,-24,-53,-82,63
82,136,53,-109,14,95,73,0,-34,-53,-87,63
82,131,48,-107,17,90,82,0,-34,-48,-78,82
78,131,53,-104,12,92,73,-4,-39,-58,-73,87
78,136,58,-107,9,97,73,0,-34,-63,-63,92
82,141,58,-112,12,100,73,-4,-34,-63,-58,97
102,146,43,-124,29,95,68,-14,-43,-58,-78,97
117,151,34,-134,41,92,63,-19,-48,-63,-82,92
131,156,24,-143,53,90,48,-19,-53,-63,-82,87
136,161,24,-148,56,92,39,-29,-58,-73,-87,82
122,175,53,-148,34,114,19,-39,-53,-82,-87,87
112,175,63,-143,24,119,14,-43,-63,-82,-87,87
107,175,68,-141,19,122,4,-43,-68,-87,-87,82
102,175,73,-139,14,124,4,-48,-68,-87,-87,82
107,161,53,-134,26,107,4,-48,-63,-78,-87,92
107,156,48,-131,29,102,4,-43,-63,-78,-92,87
107,151,43,-129,31,97,4,-43,-63,-82,-92,87
107,146,39,-126,34,92,-4,-53,-73,-92,-92,78
97,151,53,-124,21,102,-9,-53,-73,-92,-92,87
102,151,48,-126,26,100,-24,-58,-78,-97,-92,87
107,141,34,-124,36,87,-29,-58,-78,-97,-92,87
107,141,34,-124,36,87,-29,-58,-73,-97,-92,87
97,151,53,-124,21,102,-39,-58,-63,-97,-102,73
97,151,53,-124,21,102,-24,-48,-53,-97,-107,73
97,151,53,-124,21,102,-24,-43,-48,-87,-107,73
97,151,53,-124,21,102,-14,-24,-29,-73,-102,73
97,156,58,-126,19,107,-9,-14,-24,-78,-92,68
97,141,43,-119,26,92,0,-4,-29,-82,-107,63
82,131,48,-107,17,90,4,-4,-34,-87,-112,58
82,126,43,-104,19,85,9,0,-34,-92,-117,48
87,136,48,-112,19,92,4,4,-29,-87,-122,43
73,122,48,-97,12,85,9,9,-19,-78,-122,43
73,112,39,-92,17,75,14,19,-14,-78,-122,43
68,102,34,-85,17,68,14,19,-14,-87,-131,39
58,87,29,-73,14,58,29,9,-14,-82,-141,9
53,58,4,-56,24,31,34,14,-14,-87,-141,0
43,39,-4,-41,24,17,48,19,-9,-87,-146,-4
48,19,-29,-34,39,-4,53,24,-9,-87,-161,-14
63,4,-58,-34,61,-26,53,34,-9,-92,-175,-34
63,-9,-73,-26,68,-41,53,34,-9,-107,-185,-48
63,-34,-97,-14,80,-65,58,34,-9,-112,-195,-63
73,-39,-112,-17,92,-75,68,43,-4,-117,-195,-68
63,-48,-112,-7,87,-80,82,58,14,-112,-195,-73
53,-63,-117,4,85,-90,82,63,14,-97,-195,-73
48,-63,-112,7,80,-87,82,68,14,-92,-195,-78
39,-82,-122,21,80,-102,82,68,14,-87,-195,-78
19,-102,-122,41,70,-112,87,48,9,-102,-200,-78
9,-112,-122,51,65,-117,87,48,4,-107,-204,-78
4,-117,-122,56,63,-119,87,48,4,-112,-209,-78
-4,-126,-122,65,58,-124,73,48,0,-117,-214,-78
-14,-136,-122,75,53,-129,68,48,0,-117,-214,-82
-14,-146,-131,80,58,-139,63,48,0,-117,-214,-87
-4,-146,-141,75,68,-143,58,48,0,-112,-209,-92
-4,-146,-141,75,68,-143,48,48,0,-107,-200,-92
4,-141,-146,68,75,-143,48,58,14,-97,-185,-73
14,-126,-141,56,78,-134,53,48,14,-87,-180,-73
24,-122,-146,48,85,-134,48,43,9,-87,-180,-73
29,-122,-151,46,90,-136,48,43,9,-87,-180,-73
-9,-161,-151,85,70,-156,39,43,14,-87,-180,-68
0,-141,-141,70,70,-141,43,53,24,-73,-170,-63
24,-136,-161,56,92,-148,43,63,48,-48,-156,-68
34,-112,-146,39,90,-129,43,92,78,-34,-126,-48
58,-92,-151,17,104,-122,58,131,102,0,-92,-24
68,-82,-151,7,109,-117,87,190,126,24,-82,-9
53,-82,-136,14,95,-109,141,268,175,43,-73,-14
73,-73,-146,0,109,-109,214,375,214,73,-43,9
112,-68,-180,-21,146,-124,263,429,234,97,-19,34
122,-68,-190,-26,156,-129,287,429,268,126,4,39
122,-63,-185,-29,153,-124,283,390,287,156,29,48
107,-73,-180,-17,143,-126,263,341,287,165,34,53
82,-92,-175,4,129,-134,190,248,273,175,48,63
53,-107,-161,26,107,-134,73,97,244,180,68,87
53,-78,-131,12,92,-104,-58,-53,224,190,82,122
82,-19,-102,-31,92,-61,-214,-195,209,204,117,151
122,29,-92,-75,107,-31,-458,-351,180,234,141,180
165,82,-82,-124,124,0,-775,-522,165,258,180,224
263,239,-24,-251,143,107,-1161,-707,161,341,268,302
356,444,87,-400,134,265,-1542,-883,195,458,409,434
424,639,214,-531,104,427,-1786,-1000,263,600,566,566
468,849,380,-658,43,614,-1888,-1049,380,766,736,697
522,1034,512,-778,4,773,-1966,-1098,502,922,897,854
624,1185,561,-905,31,873,-2093,-1146,600,1078,1058,995
746,1263,517,-1005,114,890,-2215,-1156,692,1215,1185,1127
800,1293,492,-1046,153,893,-2288,-1151,751,1327,1298,1215
839,1351,512,-1095,163,932,-2322,-1151,805,1434,1410,1293
912,1439,527,-1176,192,983,-2381,-1185,854,1551,1532,1390
932,1449,517,-1190,207,983,-2435,-1229,883,1629,1625,1483
932,1439,507,-1185,212,973,-2479,-1307,878,1678,1698,1546
966,1449,483,-1207,241,966,-2532,-1420,839,1708,1747,1600
995,1439,444,-1217,275,941,-2571,-1542,771,1703,1776,1644
995,1395,400,-1195,297,897,-2591,-1664,707,1703,1795,1688
995,1376,380,-1185,307,878,-2601,-1751,629,1712,1834,1727
985,1390,405,-1188,290,897,-2601,-1839,546,1712,1869,1766
932,1390,458,-1161,236,924,-2586,-1937,419,1688,1883,1790
878,1381,502,-1129,187,941,-2547,-2049,292,1629,1873,1815
873,1415,541,-1144,165,978,-2527,-2142,175,1590,1883,1854
873,1459,585,-1166,143,1022,-2508,-2254,73,1551,1893,1898
873,1503,629,-1188,122,1066,-2488,-2366,-68,1488,1883,1922
863,1517,653,-1190,104,1085,-2444,-2474,-214,1415,1873,1942
819,1498,678,-1159,70,1088,-2415,-2547,-361,1356,1883,1961
780,1464,683,-1122,48,1073,-2376,-2625,-502,1288,1878,1991
771,1444,673,-1107,48,1058,-2313,-2649,-629,1224,1854,2010
746,1439,692,-1093,26,1066,-2235,-2625,-722,1151,1825,2010
707,1434,727,-1071,-9,1080,-2142,-2601,-800,1073,1800,2010
624,1390,766,-1007,-70,1078,-2044,-2596,-873,1005,1771,2015
541,1332,790,-936,-124,1061,-1952,-2562,-922,936,1737,2005
531,1322,790,-927,-129,1056,-1830,-2483,-922,883,1703,2000
522,1327,805,-924,-141,1066,-1708,-2391,-932,819,1664,1995
468,1302,834,-885,-183,1068,-1590,-2278,-951,751,1625,1966
395,1244,849,-819,-226,1046,-1503,-2171,-956,678,1566,1937
380,1210,829,-795,-224,1019,-1424,-2083,-995,575,1507,1922
380,1190,810,-785,-214,1000,-1337,-1981,-1024,478,1429,1898
366,1132,766,-749,-200,949,-1249,-1869,-1015,414,1366,1859
312,1029,717,-671,-202,873,-1161,-1742,-980,366,1312,1830
273,936,663,-605,-195,800,-1049,-1610,-927,331,1273,1781
248,849,600,-549,-175,724,-956,-1493,-902,287,1205,1727
244,751,507,-497,-131,629,-858,-1381,-897,204,1112,1639
234,658,424,-446,-95,541,-761,-1259,-883,117,1010,1556
219,580,361,-400,-70,470,-678,-1146,-844,73,936,1483
195,522,326,-358,-65,424,-600,-1015,-775,58,873,1434
195,434,239,-314,-21,336,-517,-858,-683,48,824,1390
214,326,112,-270,51,219,-439,-722,-600,48,775,1322
224,224,0,-224,112,112,-370,-605,-531,48,736,1259
214,146,-68,-180,141,39,-278,-468,-448,68,702,1185
209,73,-136,-141,173,-31,-190,-341,-366,68,653,1107
219,-9,-229,-104,224,-119,-126,-248,-326,34,561,980
229,-68,-297,-80,263,-183,-73,-161,-297,-29,429,844
229,-73,-302,-78,265,-187,0,-63,-234,-39,361,761
219,-97,-317,-61,268,-207,63,29,-170,-48,297,678
161,-151,-312,-4,236,-231,102,82,-151,-87,185,546
117,-175,-292,29,204,-234,165,122,-126,-141,63,409
82,-190,-273,53,178,-231,224,161,-126,-195,-53,268
53,-219,-273,82,163,-246,263,185,-131,-244,-165,107
39,-214,-253,87,146,-234,307,214,-136,-292,-263,-9
24,-224,-248,100,136,-236,336,248,-122,-312,-317,-78
0,-244,-244,122,122,-244,370,283,-102,-331,-356,-146
-9,-253,-244,131,117,-248,400,336,-78,-336,-400,-209
-14,-248,-234,131,109,-241,439,380,-48,-336,-429,-248
-34,-273,-239,153,102,-256,463,400,-43,-351,-453,-287
-39,-302,-263,170,112,-283,492,424,-29,-346,-478,-317
-53,-322,-268,187,107,-295,497,434,-24,-341,-483,-351
-58,-312,-253,185,97,-283,507,444,-14,-341,-497,-361
-63,-307,-244,185,90,-275,522,453,-14,-341,-502,-370
-63,-312,-248,187,92,-280,536,468,-9,-341,-502,-370
-78,-322,-244,200,82,-283,541,478,-4,-346,-502,-361
-87,-326,-239,207,75,-283,556,492,0,-346,-502,-366
-102,-336,-234,219,65,-285,570,512,4,-351,-512,-370
-112,-346,-234,229,61,-290,585,522,9,-361,-517,-385
-102,-341,-239,222,68,-290,600,522,9,-361,-531,-405
-97,-346,-248,222,75,-297,619,527,14,-361,-541,-409
-97,-361,-263,229,82,-312,644,546,24,-361,-541,-414
-97,-366,-268,231,85,-317,663,561,24,-375,-546,-429
-87,-366,-278,226,95,-322,673,580,14,-375,-561,-434
-87,-361,-273,224,92,-317,692,600,24,-375,-566,-439
-87,-361,-273,224,92,-317,717,624,24,-380,-570,-439
-92,-366,-273,229,90,-319,736,634,29,-385,-570,-444
-112,-390,-278,251,82,-334,761,663,43,-380,-575,-458
-117,-400,-283,258,82,-341,785,683,53,-385,-595,-473
-131,-419,-287,275,78,-353,810,702,63,-390,-605,-488
-146,-429,-283,287,68,-356,839,732,68,-395,-619,-502
-136,-424,-287,280,75,-356,858,741,63,-409,-624,-512
-151,-419,-268,285,58,-344,878,756,63,-419,-644,-522
-156,-419,-263,287,53,-341,897,771,63,-439,-663,-531
-161,-439,-278,300,58,-358,917,795,63,-453,-683,-551
-161,-453,-292,307,65,-373,936,795,63,-448,-688,-556
-161,-463,-302,312,70,-383,956,814,63,-458,-702,-570
-161,-478,-317,319,78,-397,980,834,68,-473,-717,-585
-165,-492,-326,329,80,-409,1000,854,68,-483,-732,-605
-170,-497,-326,334,78,-412,1005,863,78,-492,-751,-619
-175,-497,-322,336,73,-409,1019,873,73,-507,-775,-639
-185,-507,-322,346,68,-414,1039,897,73,-517,-785,-658
-180,-512,-331,346,75,-422,1054,912,87,-517,-800,-673
-175,-531,-356,353,90,-444,1078,932,92,-522,-810,-683
-175,-536,-361,356,92,-448,1093,941,107,-531,-819,-697
-175,-536,-361,356,92,-448,1107,961,112,-536,-834,-707
-180,-551,-370,366,95,-461,1107,980,126,-541,-839,-722
-200,-580,-380,390,90,-480,1112,995,141,-541,-858,-741
-204,-590,-385,397,90,-488,1117,1010,151,-541,-868,-756
-204,-590,-385,397,90,-488,1122,1029,161,-541,-873,-766
-209,-595,-385,402,87,-490,1127,1049,175,-536,-878,-780
-219,-614,-395,417,87,-505,1137,1063,185,-527,-878,-785
-219,-619,-400,419,90,-509,1141,1083,209,-517,-878,-795
-219,-624,-405,422,92,-514,1141,1093,229,-507,-888,-805
-219,-629,-409,424,95,-519,1141,1102,244,-497,-888,-814
-229,-619,-390,424,80,-505,1151,1127,268,-473,-883,-814
-224,-624,-400,424,87,-512,1137,1132,283,-458,-878,-819
-219,-624,-405,422,92,-514,1132,1141,302,-444,-863,-819
-219,-624,-405,422,92,-514,1127,1146,326,-419,-844,-814
-219,-644,-424,431,102,-534,1117,1146,356,-414,-839,-805
-219,-644,-424,431,102,-534,1107,1146,366,-395,-829,-800
-214,-634,-419,424,102,-527,1088,1146,375,-375,-810,-795
-204,-624,-419,414,107,-522,1068,1137,385,-351,-800,-790
-200,-605,-405,402,102,-505,1049,1132,405,-322,-766,-780
-195,-580,-385,387,95,-483,1024,1117,414,-302,-741,-766
-175,-580,-405,378,114,-492,1005,1112,424,-268,-717,-746
-170,-566,-395,368,112,-480,980,1098,434,-244,-692,-732
-161,-556,-395,358,117,-475,966,1078,439,-229,-673,-702
-156,-536,-380,346,112,-458,932,1058,448,-214,-653,-673
-151,-522,-370,336,109,-446,902,1029,453,-190,-619,-649
-156,-507,-351,331,97,-429,873,1000,453,-165,-600,-619
-146,-483,-336,314,95,-409,849,980,458,-146,-556,-590
-131,-458,-326,295,97,-392,819,956,458,-122,-531,-566
-117,-444,-326,280,104,-385,785,922,453,-97,-502,-536
-112,-419,-307,265,97,-363,766,888,448,-73,-468,-502
-107,-400,-292,253,92,-346,727,849,434,-63,-448,-473
-82,-370,-287,226,102,-329,678,810,424,-53,-419,-444
-63,-341,-278,202,107,-309,649,775,414,-39,-395,-414
-48,-312,-263,180,107,-287,605,736,405,-29,-375,-385
-39,-278,-239,158,100,-258,561,688,375,-14,-341,-346
-19,-258,-239,139,109,-248,527,649,366,0,-317,-317
-14,-234,-219,124,102,-226,502,614,346,9,-287,-297
-14,-219,-204,117,95,-212,468,580,331,19,-258,-263
-19,-214,-195,117,87,-204,424,541,307,4,-263,-248
-14,-185,-170,100,78,-178,400,507,287,9,-248,-229
-19,-170,-151,95,65,-161,375,478,283,9,-229,-214
-24,-175,-151,100,63,-163,346,444,268,9,-219,-195
0,-151,-151,75,75,-151,331,419,248,19,-190,-156
4,-131,-136,63,70,-134,307,395,219,14,-175,-126
14,-107,-122,46,68,-114,283,356,200,9,-165,-107
19,-87,-107,34,63,-97,258,326,170,0,-156,-82
24,-82,-107,29,65,-95,234,302,156,0,-161,-78
24,-68,-92,21,58,-80,224,273,141,0,-151,-63
29,-58,-87,14,58,-73,200,244,126,0,-141,-53
29,-48,-78,9,53,-63,185,219,107,-4,-136,-48
48,-24,-73,-12,61,-48,180,219,112,-4,-131,-29
19,-34,-53,7,36,-43,156,185,78,-14,-126,-24
4,-48,-53,21,29,-51,141,170,63,-19,-122,-14
19,-29,-48,4,34,-39,146,165,58,-19,-107,0
34,-19,-53,-7,43,-36,136,161,53,-29,-107,-9
39,-9,-48,-14,43,-29,136,156,48,-29,-107,-9
43,0,-43,-21,43,-21,136,151,43,-29,-107,-9
48,9,-39,-29,43,-14,136,146,39,-29,-107,-9
43,34,-9,-39,26,12,146,126,29,-24,-92,9
43,53,9,-48,17,31,146,117,19,-24,-92,24
43,73,29,-58,7,51,146,107,14,-29,-92,34
43,102,58,-73,-7,80,151,97,4,-34,-87,43
48,97,48,-73,0,73,141,97,4,-29,-82,48
48,92,43,-70,2,68,141,92,4,-34,-78,58
43,87,43,-65,0,65,131,82,-9,-43,-82,63
43,92,48,-68,-2,70,131,73,-19,-53,-87,63
43,107,63,-75,-9,85,122,58,-29,-63,-97,63
43,107,63,-75,-9,85,122,53,-39,-68,-102,68
39,112,73,-75,-17,92,112,43,-53,-78,-102,68
39,122,82,-80,-21,102,112,43,-58,-82,-97,68
43,131,87,-87,-21,109,107,34,-63,-92,-87,68
48,131,82,-90,-17,107,97,34,-63,-97,-97,73
58,131,73,-95,-7,102,87,29,-68,-102,-102,73
68,131,63,-100,2,97,68,29,-73,-102,-102,73
63,117,53,-90,4,85,63,29,-68,-107,-107,82
58,117,58,-87,0,87,48,19,-73,-112,-112,78
48,112,63,-80,-7,87,48,14,-82,-107,-117,78
43,107,63,-75,-9,85,43,14,-87,-107,-122,73
48,112,63,-80,-7,87,43,0,-97,-112,-136,68
48,117,68,-82,-9,92,43,0,-92,-117,-136,63
53,122,68,-87,-7,95,43,4,-92,-122,-141,53
58,126,68,-92,-4,97,43,4,-92,-131,-141,48
43,126,82,-85,-19,104,34,-14,-102,-151,-146,29
39,131,92,-85,-26,112,29,-14,-102,-151,-161,29
39,131,92,-85,-26,112,14,-19,-107,-156,-165,29
39,122,82,-80,-21,102,9,-19,-107,-156,-170,29
53,122,68,-87,-7,95,14,-9,-92,-146,-165,39
58,122,63,-90,-2,92,19,-9,-92,-146,-161,34
63,122,58,-92,2,90,39,0,-82,-146,-161,34
68,122,53,-95,7,87,43,4,-78,-136,-156,34
63,112,48,-87,7,80,43,19,-68,-131,-161,34
58,107,48,-82,4,78,48,24,-58,-131,-146,34
53,92,39,-73,7,65,58,29,-58,-131,-156,34
34,82,48,-58,-7,65,63,24,-58,-131,-156,34
34,68,34,-51,0,51,68,39,-53,-131,-156,29
29,68,39,-48,-4,53,73,43,-48,-126,-161,19
14,53,39,-34,-12,46,78,48,-39,-117,-161,14
14,43,29,-29,-7,36,82,58,-34,-117,-161,9
19,34,14,-26,2,24,82,63,-24,-122,-161,0
4,19,14,-12,-4,17,87,68,-24,-122,-180,-19
-4,-9,-4,7,0,-7,92,78,-24,-122,-180,-29
-19,-29,-9,24,-4,-19,107,87,-19,-117,-185,-34
-34,-58,-24,46,-4,-41,122,92,-29,-122,-209,-53
-43,-87,-43,65,0,-65,122,102,-29,-126,-214,-73
-58,-107,-48,82,-4,-78,122,102,-29,-141,-224,-87
-73,-136,-63,104,-4,-100,126,102,-29,-146,-234,-102
-63,-131,-68,97,2,-100,131,102,-24,-146,-244,-107
-53,-136,-82,95,14,-109,131,107,-14,-146,-244,-112
-43,-146,-102,95,29,-124,126,112,-14,-136,-244,-112
-29,-141,-112,85,41,-126,122,117,-14,-136,-244,-117
-29,-161,-131,95,51,-146,122,107,-24,-146,-244,-107
-39,-161,-122,100,41,-141,117,97,-24,-146,-244,-107
-39,-161,-122,100,41,-141,117,97,-24,-146,-244,-107
-34,-156,-122,95,43,-139,117,97,-19,-146,-244,-107
-24,-151,-126,87,51,-139,102,107,-9,-141,-234,-107
-24,-146,-122,85,48,-134,102,107,-9,-136,-234,-107
-24,-151,-126,87,51,-139,102,107,-9,-131,-234,-107
-14,-146,-131,80,58,-139,102,107,-9,-122,-229,-107
-24,-151,-126,87,51,-139,97,107,-19,-117,-219,-102
-24,-156,-131,90,53,-143,92,107,-14,-117,-214,-92
-24,-151,-126,87,51,-139,92,97,-14,-107,-209,-92
-24,-156,-131,90,53,-143,82,92,-19,-107,-209,-92
-58,-180,-122,119,31,-151,78,92,-19,-107,-219,-92
-48,-170,-122,109,36,-146,78,92,-14,-107,-209,-87
-39,-151,-112,95,36,-131,63,92,-14,-102,-209,-82
-53,-136,-82,95,14,-109,53,102,0,-87,-185,-68
-43,-131,-87,87,21,-109,63,141,39,-43,-146,-39
-9,-131,-122,70,56,-126,87,190,63,-9,-112,-24
9,-112,-122,51,65,-117,126,258,97,14,-92,-9
4,-102,-107,48,56,-104,200,366,156,53,-63,14
-14,-122,-107,68,46,-114,283,463,224,82,-43,29
-34,-136,-102,85,34,-119,331,497,253,97,-48,24
-14,-117,-102,65,43,-109,336,478,248,107,-43,29
-4,-131,-126,68,61,-129,322,448,258,117,-29,39
-19,-180,-161,100,70,-170,292,400,258,136,-14,53
-14,-180,-165,97,75,-173,190,287,234,136,0,53
14,-126,-141,56,78,-134,43,136,195,141,19,78
-4,-97,-92,51,43,-95,-97,-14,165,131,24,82
-24,-87,-63,56,19,-75,-283,-175,131,126,29,82
24,-19,-43,-2,34,-31,-536,-312,131,165,73,131
117,92,-24,-104,70,34,-854,-444,146,248,170,214
204,248,43,-226,80,146,-1259,-649,161,351,268,322
297,453,156,-375,70,305,-1600,-824,195,458,400,453
385,678,292,-531,46,485,-1756,-893,302,610,566,595
448,858,409,-653,19,634,-1839,-932,419,775,736,736
522,1015,492,-768,14,753,-1986,-1010,512,922,888,863
595,1127,531,-861,31,829,-2142,-1049,610,1068,1029,995
688,1215,527,-951,80,871,-2254,-1049,722,1224,1185,1127
780,1302,522,-1041,129,912,-2308,-1044,800,1346,1307,1234
829,1371,541,-1100,143,956,-2361,-1063,844,1444,1410,1322
854,1390,536,-1122,158,963,-2410,-1098,873,1532,1503,1410
912,1390,478,-1151,217,934,-2425,-1122,912,1620,1605,1493
961,1400,439,-1180,261,919,-2440,-1171,907,1678,1668,1566
946,1390,444,-1168,251,917,-2474,-1293,868,1688,1708,1600
936,1361,424,-1149,256,893,-2513,-1415,800,1693,1727,1625
936,1327,390,-1132,273,858,-2552,-1537,727,1673,1737,1649
936,1307,370,-1122,283,839,-2581,-1644,649,1664,1776,1688
917,1312,395,-1115,261,854,-2581,-1732,566,1664,1800,1747
902,1322,419,-1112,241,871,-2547,-1820,458,1639,1805,1781
907,1342,434,-1124,236,888,-2508,-1912,331,1581,1795,1786
893,1356,463,-1124,214,910,-2488,-1995,234,1551,1805,1805
883,1371,488,-1127,197,929,-2469,-2098,122,1522,1825,1839
854,1385,531,-1119,161,958,-2440,-2210,-19,1449,1815,1864
805,1371,566,-1088,119,968,-2396,-2308,-156,1376,1805,1893
771,1390,619,-1080,75,1005,-2357,-2381,-302,1317,1805,1932
751,1395,644,-1073,53,1019,-2308,-2449,-463,1229,1781,1952
722,1366,644,-1044,39,1005,-2244,-2483,-610,1127,1747,1942
688,1312,624,-1000,31,968,-2156,-2459,-683,1054,1717,1932
649,1298,649,-973,0,973,-2054,-2425,-751,995,1703,1932
585,1302,717,-944,-65,1010,-1966,-2430,-824,936,1683,1937
522,1273,751,-897,-114,1012,-1883,-2415,-883,868,1639,1937
463,1234,771,-849,-153,1002,-1800,-2396,-922,795,1595,1922
434,1259,824,-846,-195,1041,-1698,-2342,-951,732,1556,1908
429,1254,824,-841,-197,1039,-1581,-2210,-932,702,1537,1908
424,1234,810,-829,-192,1022,-1464,-2064,-888,688,1537,1917
390,1190,800,-790,-204,995,-1356,-1976,-917,624,1498,1903
322,1132,810,-727,-244,971,-1288,-1893,-956,536,1429,1878
268,1054,785,-661,-258,919,-1220,-1790,-956,483,1385,1859
263,1000,736,-631,-236,868,-1132,-1673,-912,453,1351,1839
244,946,702,-595,-229,824,-1049,-1571,-878,409,1312,1810
219,878,658,-549,-219,768,-985,-1493,-873,346,1234,1756
204,790,585,-497,-190,688,-897,-1381,-868,263,1151,1698
195,697,502,-446,-153,600,-810,-1259,-844,204,1078,1634
200,619,419,-409,-109,519,-727,-1137,-805,170,1015,1581
204,561,356,-383,-75,458,-629,-976,-746,146,961,1522
204,473,268,-339,-31,370,-536,-829,-653,146,902,1459
185,346,161,-265,12,253,-458,-702,-580,136,854,1381
156,214,58,-185,48,136,-390,-575,-492,146,805,1327
136,107,-29,-122,82,39,-326,-448,-409,146,741,1234
161,63,-97,-112,129,-17,-239,-331,-346,117,663,1127
180,29,-151,-104,165,-61,-146,-239,-307,63,541,1000
161,-39,-200,-61,180,-119,-73,-131,-278,9,429,863
131,-82,-214,-24,173,-148,9,-34,-234,-19,331,741
131,-107,-239,-12,185,-173,92,68,-180,-39,239,610
102,-141,-244,19,173,-192,151,131,-151,-68,136,478
19,-185,-204,82,112,-195,195,170,-146,-122,14,351
-24,-219,-195,122,85,-207,244,219,-126,-175,-92,209
14,-219,-234,102,124,-226,312,263,-112,-224,-185,97
19,-214,-234,97,126,-224,336,283,-117,-253,-253,0
-43,-253,-209,148,82,-231,366,317,-112,-283,-307,-68
-87,-283,-195,185,53,-239,400,370,-92,-292,-356,-136
-87,-302,-214,195,63,-258,448,405,-68,-297,-400,-209
-92,-317,-224,204,65,-270,478,419,-58,-307,-448,-278
-112,-322,-209,217,48,-265,502,448,-53,-312,-473,-317
-146,-322,-175,234,14,-248,522,473,-29,-317,-468,-336
-141,-351,-209,246,34,-280,546,488,-14,-322,-483,-356
-136,-351,-214,244,39,-283,556,502,-4,-322,-497,-361
-131,-356,-224,244,46,-290,570,517,-4,-322,-502,-366
-122,-370,-248,246,63,-309,585,536,0,-322,-502,-361
-141,-370,-229,256,43,-300,610,556,4,-307,-502,-370
-146,-366,-219,256,36,-292,624,570,9,-307,-502,-375
-156,-366,-209,261,26,-287,639,590,14,-312,-512,-380
-161,-366,-204,263,21,-285,653,600,19,-322,-517,-395
-165,-366,-200,265,17,-283,653,600,19,-322,-522,-405
-165,-375,-209,270,21,-292,668,605,24,-322,-531,-409
-170,-395,-224,283,26,-309,688,624,34,-322,-531,-414
-175,-405,-229,290,26,-317,702,639,34,-336,-536,-429
-190,-409,-219,300,14,-314,722,658,34,-336,-541,-434
-195,-409,-214,302,9,-312,741,678,43,-336,-546,-439
-200,-414,-214,307,7,-314,766,702,43,-341,-551,-439
-209,-424,-214,317,2,-319,785,712,48,-346,-551,-444
-204,-429,-224,317,9,-326,805,736,48,-361,-561,-458
-195,-429,-234,312,19,-331,824,751,53,-366,-585,-473
-195,-439,-244,317,24,-341,844,766,58,-370,-600,-488
-195,-439,-244,317,24,-341,868,790,58,-375,-619,-502
-195,-444,-248,319,26,-346,888,810,73,-380,-610,-502
-209,-448,-239,329,14,-344,907,824,73,-380,-624,-512
-214,-458,-244,336,14,-351,927,839,73,-390,-639,-522
-219,-488,-268,353,24,-378,946,863,73,-395,-653,-541
-234,-507,-273,370,19,-390,976,883,78,-400,-668,-556
-239,-512,-273,375,17,-392,995,902,82,-409,-683,-570
-244,-522,-278,383,17,-400,1019,922,92,-424,-697,-585
-253,-531,-278,392,12,-405,1039,941,97,-434,-712,-605
-258,-536,-278,397,9,-407,1049,971,107,-434,-722,-610
-263,-536,-273,400,4,-405,1058,980,102,-448,-746,-629
-273,-546,-273,409,0,-409,1073,1005,102,-458,-756,-649
-268,-551,-283,409,7,-417,1083,1019,117,-458,-771,-663
-268,-575,-307,422,19,-441,1102,1044,131,-453,-771,-683
-263,-585,-322,424,29,-453,1122,1058,146,-463,-780,-697
-258,-590,-331,424,36,-461,1141,1083,151,-468,-795,-707
-258,-610,-351,434,46,-480,1146,1107,165,-473,-800,-722
-287,-653,-366,470,39,-509,1156,1117,161,-483,-829,-741
-302,-668,-366,485,31,-517,1156,1127,170,-483,-839,-756
-312,-673,-361,492,24,-517,1156,1141,180,-483,-844,-766
-326,-683,-356,505,14,-519,1156,1156,195,-478,-849,-780
-312,-673,-361,492,24,-517,1166,1171,224,-468,-844,-780
-297,-658,-361,478,31,-509,1171,1190,248,-458,-839,-785
-283,-644,-361,463,39,-502,1171,1200,268,-448,-844,-790
-268,-629,-361,448,46,-495,1171,1210,283,-439,-839,-795
-273,-649,-375,461,51,-512,1171,1234,312,-434,-839,-805
-263,-663,-400,463,68,-531,1156,1239,322,-419,-839,-810
-253,-673,-419,463,82,-546,1151,1249,336,-405,-829,-810
-248,-683,-434,466,92,-558,1146,1254,356,-380,-814,-805
-248,-688,-439,468,95,-563,1127,1263,390,-356,-790,-795
-248,-683,-434,466,92,-558,1117,1263,405,-326,-780,-790
-244,-668,-424,456,90,-546,1098,1263,419,-297,-761,-785
-234,-653,-419,444,92,-536,1078,1254,434,-263,-751,-780
-244,-639,-395,441,75,-517,1068,1259,453,-253,-717,-766
-244,-610,-366,427,61,-488,1044,1244,463,-234,-692,-746
-229,-605,-375,417,73,-490,1024,1239,473,-200,-668,-722
-229,-585,-356,407,63,-470,1000,1224,483,-175,-644,-702
-204,-580,-375,392,85,-478,966,1185,483,-161,-624,-688
-195,-566,-370,380,87,-468,932,1166,488,-146,-605,-663
-185,-556,-370,370,92,-463,902,1137,488,-122,-570,-644
-185,-546,-361,366,87,-453,873,1107,483,-97,-551,-619
-156,-512,-356,334,100,-434,844,1088,488,-87,-517,-590
-141,-488,-346,314,102,-417,810,1063,488,-63,-492,-566
-126,-473,-346,300,109,-409,771,1029,483,-39,-463,-536
-122,-448,-326,285,102,-387,746,995,478,-14,-429,-502
-126,-429,-302,278,87,-366,712,976,483,4,-400,-483
-112,-409,-297,261,92,-353,668,936,473,14,-370,-453
-102,-390,-287,246,92,-339,644,902,463,29,-346,-424
-97,-370,-273,234,87,-322,605,863,453,39,-326,-395
-107,-331,-224,219,58,-278,570,824,424,43,-312,-356
-87,-307,-219,197,65,-263,536,785,414,58,-287,-326
-82,-278,-195,180,56,-236,512,751,395,68,-258,-307
-82,-258,-175,170,46,-217,478,717,380,78,-229,-273
-68,-248,-180,158,56,-214,453,688,366,68,-229,-253
-53,-214,-161,134,53,-187,429,653,346,78,-209,-229
-48,-195,-146,122,48,-170,405,624,341,82,-185,-209
-43,-195,-151,119,53,-173,375,590,326,87,-170,-185
-43,-190,-146,117,51,-168,341,546,307,87,-151,-151
-43,-180,-136,112,46,-158,317,522,278,82,-136,-126
-39,-165,-126,102,43,-146,292,483,258,78,-126,-112
-39,-156,-117,97,39,-136,268,453,229,68,-117,-92
-19,-136,-117,78,48,-126,258,434,224,78,-112,-73
-14,-117,-102,65,43,-109,253,409,209,78,-102,-53
-4,-102,-97,53,46,-100,234,385,195,78,-92,-39
0,-87,-87,43,43,-87,224,366,175,73,-87,-29
-9,-87,-78,48,34,-82,200,326,151,73,-82,-19
-9,-92,-82,51,36,-87,175,312,136,63,-78,-4
-14,-82,-68,48,26,-75,170,297,122,58,-73,4
-14,-78,-63,46,24,-70,161,278,117,58,-63,14
-9,-82,-73,46,31,-78,151,268,102,29,-78,19
-14,-97,-82,56,34,-90,141,258,102,29,-73,29
-19,-87,-68,53,24,-78,136,244,87,29,-78,29
-19,-68,-48,43,14,-58,126,234,73,19,-78,34
-19,-58,-39,39,9,-48,126,224,68,19,-78,39
-19,-48,-29,34,4,-39,126,214,63,19,-78,43
-19,-39,-19,29,0,-29,126,204,58,19,-78,48
-9,-9,0,9,-4,-4,131,200,58,14,-68,58
-4,4,9,0,-7,7,136,195,48,14,-63,73
0,19,19,-9,-9,19,141,190,43,9,-58,82
4,43,39,-24,-17,41,151,185,34,4,-48,92
4,34,29,-19,-12,31,151,195,34,9,-58,87
0,34,34,-17,-17,34,151,190,34,4,-58,87
-9,34,43,-12,-26,39,141,180,19,-4,-68,82
-14,43,58,-14,-36,51,141,170,9,-14,-78,73
-19,58,78,-19,-48,68,141,161,-4,-24,-68,73
-24,58,82,-17,-53,70,141,151,-9,-29,-73,78
-34,63,97,-14,-65,80,131,136,-19,-39,-73,78
-39,73,112,-17,-75,92,131,131,-19,-43,-68,78
-14,92,107,-39,-61,100,141,131,-14,-34,-68,78
0,102,102,-51,-51,102,136,131,-14,-39,-78,82
19,112,92,-65,-36,102,131,126,-19,-43,-82,82
39,122,82,-80,-21,102,117,126,-24,-43,-82,82
34,107,73,-70,-19,90,97,117,-39,-53,-87,82
29,107,78,-68,-24,92,78,107,-43,-63,-92,78
19,102,82,-61,-31,92,73,102,-53,-63,-97,78
14,97,82,-56,-34,90,63,102,-58,-68,-102,73
4,87,82,-46,-39,85,73,97,-48,-78,-117,63
0,87,87,-43,-43,87,73,97,-43,-78,-117,63
0,87,87,-43,-43,87,73,102,-43,-78,-122,58
0,87,87,-43,-43,87,73,102,-43,-82,-122,58
9,87,78,-48,-34,82,58,82,-63,-102,-126,48
9,92,82,-51,-36,87,48,82,-63,-102,-141,48
14,92,78,-53,-31,85,29,78,-68,-107,-146,48
19,82,63,-51,-21,73,19,78,-68,-107,-151,48
9,78,68,-43,-29,73,29,87,-53,-97,-141,58
9,73,63,-41,-26,68,29,87,-53,-97,-141,53
9,68,58,-39,-24,63,43,97,-43,-97,-146,53
9,63,53,-36,-21,58,43,102,-39,-87,-146,53
9,63,53,-36,-21,58,43,112,-29,-63,-131,53
9,58,48,-34,-19,53,48,122,-19,-63,-117,53
9,43,34,-26,-12,39,58,131,-19,-63,-126,53
-4,34,39,-14,-21,36,63,131,-19,-63,-126,53
-14,19,34,-2,-24,26,58,141,-4,-63,-126,48
-19,19,39,0,-29,29,63,151,0,-58,-131,39
-34,4,39,14,-36,21,68,161,9,-48,-131,34
-34,-4,29,19,-31,12,73,175,14,-48,-131,29
-29,-9,19,19,-24,4,73,170,4,-58,-141,9
-43,-19,24,31,-34,2,78,165,4,-63,-161,-9
-53,-43,9,48,-31,-17,82,165,4,-68,-161,-19
-68,-58,9,63,-39,-24,97,165,9,-68,-165,-24
-68,-68,0,68,-34,-34,102,170,19,-68,-180,-34
-73,-97,-24,85,-24,-61,102,180,19,-68,-185,-53
-82,-117,-34,100,-24,-75,102,180,19,-78,-195,-68
-92,-146,-53,119,-19,-100,107,180,19,-78,-204,-82
-82,-151,-68,117,-7,-109,107,200,24,-68,-200,-78
-82,-156,-73,119,-4,-114,112,204,34,-68,-195,-82
-82,-165,-82,124,0,-124,112,209,34,-58,-190,-82
-78,-161,-82,119,2,-122,112,214,34,-58,-185,-87
-82,-190,-107,136,12,-148,112,224,34,-58,-185,-78
-97,-190,-92,143,-2,-141,107,214,34,-58,-185,-78
-102,-190,-87,146,-7,-139,107,214,34,-58,-185,-78
-102,-185,-82,143,-9,-134,107,214,39,-58,-185,-78
-92,-195,-102,143,4,-148,92,209,39,-48,-175,-68
-82,-195,-112,139,14,-153,92,204,39,-48,-175,-68
-73,-204,-131,139,29,-168,92,200,39,-48,-175,-68
-53,-204,-151,129,48,-178,92,195,39,-43,-170,-68
-63,-195,-131,129,34,-163,78,185,39,-39,-170,-73
-73,-195,-122,134,24,-158,73,185,43,-39,-165,-63
-82,-185,-102,134,9,-143,73,175,43,-29,-161,-63
-92,-185,-92,139,0,-139,63,170,39,-29,-161,-63
-87,-180,-92,134,2,-136,68,190,39,-39,-161,-53
-58,-170,-112,114,26,-141,58,180,34,-48,-170,-58
-48,-161,-112,104,31,-136,63,180,34,-43,-161,-43
-53,-126,-73,90,9,-100,73,209,68,-9,-126,-19
-73,-122,-48,97,-12,-85,82,239,97,24,-97,9
-58,-131,-73,95,7,-102,78,268,122,48,-82,14
-9,-92,-82,51,36,-87,107,336,165,63,-73,19
14,-63,-78,24,46,-70,170,424,224,112,-53,24
-34,-122,-87,78,26,-104,244,512,244,122,-53,19
-63,-136,-73,100,4,-104,302,556,263,126,-48,14
-34,-97,-63,65,14,-80,336,546,287,146,-14,39
-24,-73,-48,48,12,-61,322,517,307,175,0,48
-48,-92,-43,70,-2,-68,273,458,307,195,14,53
-53,-122,-68,87,7,-95,161,346,253,165,9,63
-24,-107,-82,65,29,-95,24,165,175,131,0,58
-4,-68,-63,36,29,-65,-107,14,146,131,14,63
-14,-58,-43,36,14,-51,-263,-107,151,165,48,92
-14,-39,-24,26,4,-31,-517,-244,151,214,92,131
68,63,-4,-65,36,29,-854,-405,136,258,161,214
214,239,24,-226,95,131,-1249,-590,151,341,268,322
307,424,117,-366,95,270,-1581,-746,214,478,400,463
356,580,224,-468,65,402,-1776,-824,302,619,566,595
419,771,351,-595,34,561,-1878,-863,419,775,717,736
512,976,463,-744,24,719,-2005,-922,512,932,868,863
624,1098,473,-861,75,785,-2152,-951,629,1088,1029,1005
746,1166,419,-956,163,793,-2254,-922,761,1244,1195,1137
810,1234,424,-1022,192,829,-2288,-888,858,1385,1327,1244
868,1302,434,-1085,217,868,-2342,-907,922,1493,1439,1361
941,1351,409,-1146,265,880,-2410,-951,932,1561,1532,1459
951,1371,419,-1161,265,895,-2454,-1005,922,1610,1605,1512
941,1351,409,-1146,265,880,-2469,-1083,917,1649,1659,1566
936,1332,395,-1134,270,863,-2513,-1176,897,1688,1698,1610
936,1293,356,-1115,290,824,-2552,-1288,858,1712,1727,1644
946,1268,322,-1107,312,795,-2581,-1420,775,1693,1747,1659
946,1278,331,-1112,307,805,-2610,-1546,678,1673,1756,1688
917,1283,366,-1100,275,824,-2601,-1634,585,1673,1781,1737
893,1263,370,-1078,261,817,-2547,-1722,488,1649,1805,1781
858,1283,424,-1071,217,854,-2518,-1815,380,1600,1815,1815
854,1337,483,-1095,185,910,-2498,-1898,302,1590,1834,1864
854,1381,527,-1117,163,954,-2488,-2000,219,1571,1864,1898
844,1395,551,-1119,146,973,-2469,-2103,97,1517,1864,1922
844,1410,566,-1127,139,988,-2435,-2181,-19,1483,1883,1961
810,1420,610,-1115,100,1015,-2405,-2254,-146,1434,1883,1991
751,1405,653,-1078,48,1029,-2366,-2322,-278,1366,1859,2000
732,1376,644,-1054,43,1010,-2283,-2327,-375,1312,1844,2020
707,1332,624,-1019,41,978,-2196,-2293,-439,1259,1825,2030
658,1288,629,-973,14,958,-2122,-2288,-527,1171,1771,2010
614,1293,678,-954,-31,985,-2034,-2274,-580,1112,1761,2025
561,1302,741,-932,-90,1022,-1922,-2249,-590,1093,1766,2034
512,1273,761,-893,-124,1017,-1820,-2210,-610,1058,1751,2030
483,1259,775,-871,-146,1017,-1708,-2156,-629,1024,1732,2034
448,1254,805,-851,-178,1029,-1590,-2034,-610,1015,1732,2054
375,1215,839,-795,-231,1027,-1483,-1937,-605,1000,1712,2044
331,1190,858,-761,-263,1024,-1405,-1878,-653,917,1664,2030
331,1171,839,-751,-253,1005,-1327,-1786,-702,829,1615,2015
317,1102,785,-710,-234,944,-1249,-1673,-702,775,1571,1986
283,1039,756,-661,-236,897,-1151,-1546,-668,746,1537,1937
273,966,692,-619,-209,829,-1049,-1424,-595,741,1517,1898
268,868,600,-568,-165,734,-946,-1307,-551,736,1498,1883
224,771,546,-497,-161,658,-849,-1185,-527,692,1444,1834
165,658,492,-412,-163,575,-771,-1063,-522,634,1361,1761
141,561,419,-351,-139,490,-668,-922,-483,600,1307,1717
126,483,356,-305,-114,419,-580,-780,-424,556,1244,1659
117,395,278,-256,-80,336,-497,-644,-370,497,1156,1576
146,317,170,-231,-12,244,-419,-527,-326,448,1078,1498
165,234,68,-200,48,151,-351,-400,-268,439,1029,1434
165,126,-39,-146,102,43,-278,-273,-195,439,976,1351
151,43,-107,-97,129,-31,-200,-175,-151,409,897,1263
151,-19,-170,-65,161,-95,-126,-102,-151,336,766,1137
122,-78,-200,-21,161,-139,-73,-34,-151,234,624,990
92,-122,-214,14,153,-168,0,53,-126,185,517,868
92,-156,-248,31,170,-202,63,146,-82,146,414,746
82,-180,-263,48,173,-222,112,209,-73,68,273,605
29,-204,-234,87,131,-219,165,248,-87,-14,141,458
-34,-229,-195,131,80,-212,234,278,-87,-68,24,326
-43,-268,-224,156,90,-246,273,302,-82,-117,-87,175
-39,-283,-244,161,102,-263,307,331,-78,-156,-175,78
-53,-292,-239,173,92,-265,356,356,-73,-185,-239,9
-78,-312,-234,195,78,-273,400,390,-73,-214,-287,-68
-107,-331,-224,219,58,-278,439,434,-48,-229,-341,-151
-131,-336,-204,234,36,-270,458,488,-9,-229,-380,-209
-161,-351,-190,256,14,-270,473,507,4,-244,-424,-258
-165,-390,-224,278,29,-307,512,522,-19,-278,-458,-297
-175,-429,-253,302,39,-341,531,536,-4,-273,-463,-322
-185,-429,-244,307,29,-336,546,551,4,-273,-478,-331
-195,-434,-239,314,21,-336,566,566,4,-273,-483,-341
-200,-448,-248,324,24,-348,585,585,9,-273,-483,-341
-190,-429,-239,309,24,-334,590,595,19,-258,-483,-341
-185,-414,-229,300,21,-322,605,610,29,-258,-483,-346
-185,-405,-219,295,17,-312,619,629,39,-263,-492,-351
-180,-395,-214,287,17,-305,634,639,48,-273,-497,-366
-185,-414,-229,300,21,-322,653,653,48,-268,-502,-375
-185,-424,-239,305,26,-331,668,663,53,-263,-512,-380
-190,-444,-253,317,31,-348,688,688,63,-258,-512,-385
-195,-453,-258,324,31,-356,702,707,63,-268,-517,-400
-185,-444,-258,314,36,-351,732,722,63,-278,-522,-414
-185,-439,-253,312,34,-346,751,736,73,-278,-527,-419
-185,-439,-253,312,34,-346,775,756,73,-283,-531,-419
-190,-444,-253,317,31,-348,795,761,78,-287,-531,-424
-195,-468,-273,331,39,-370,810,795,87,-287,-531,-414
-195,-478,-283,336,43,-380,824,810,92,-287,-546,-424
-204,-497,-292,351,43,-395,839,824,97,-287,-551,-434
-214,-507,-292,361,39,-400,858,849,97,-287,-561,-444
-219,-522,-302,370,41,-412,888,858,92,-312,-575,-458
-239,-536,-297,387,29,-417,907,873,92,-322,-595,-473
-248,-556,-307,402,29,-431,927,888,92,-341,-614,-488
-258,-595,-336,427,39,-466,946,912,92,-356,-634,-512
-258,-590,-331,424,36,-461,951,907,82,-375,-658,-546
-258,-580,-322,419,31,-451,966,922,82,-390,-683,-570
-258,-575,-317,417,29,-446,985,936,87,-409,-707,-595
-263,-570,-307,417,21,-439,1000,951,87,-424,-732,-624
-283,-600,-317,441,17,-458,1024,971,97,-424,-741,-634
-292,-614,-322,453,14,-468,1039,980,92,-439,-766,-649
-307,-639,-331,473,12,-485,1058,1005,92,-448,-775,-663
-307,-658,-351,483,21,-505,1073,1019,107,-448,-790,-673
-312,-673,-361,492,24,-517,1078,1039,102,-448,-790,-683
-312,-683,-370,497,29,-527,1093,1049,117,-453,-800,-697
-312,-688,-375,500,31,-531,1107,1068,122,-453,-814,-707
-317,-707,-390,512,36,-549,1107,1088,136,-453,-819,-722
-322,-732,-409,527,43,-570,1137,1102,136,-468,-849,-751
-322,-736,-414,529,46,-575,1146,1117,141,-473,-858,-766
-317,-732,-414,524,48,-573,1156,1137,146,-478,-863,-775
-317,-732,-414,524,48,-573,1166,1156,156,-478,-868,-790
-317,-746,-429,531,56,-588,1171,1180,175,-478,-868,-805
-317,-746,-429,531,56,-588,1171,1200,200,-468,-868,-814
-317,-746,-429,531,56,-588,1166,1210,219,-458,-878,-824
-317,-746,-429,531,56,-588,1161,1220,234,-448,-878,-834
-317,-736,-419,527,51,-578,1151,1224,258,-434,-878,-844
-312,-741,-429,527,58,-585,1137,1229,273,-419,-878,-849
-307,-741,-434,524,63,-588,1132,1239,292,-405,-868,-849
-307,-741,-434,524,63,-588,1127,1244,317,-380,-854,-844
-307,-741,-434,524,63,-588,1127,1244,346,-366,-834,-829
-307,-741,-434,524,63,-588,1117,1244,356,-346,-819,-819
-302,-732,-429,517,63,-580,1098,1244,366,-326,-795,-810
-292,-722,-429,507,68,-575,1078,1234,375,-302,-780,-800
-287,-717,-429,502,70,-573,1058,1229,395,-292,-766,-790
-283,-697,-414,490,65,-556,1034,1215,405,-273,-741,-775
-263,-702,-439,483,87,-570,1015,1210,414,-239,-717,-756
-258,-692,-434,475,87,-563,990,1195,424,-214,-692,-741
-244,-653,-409,448,82,-531,966,1166,419,-200,-673,-727
-234,-624,-390,429,78,-507,932,1146,429,-185,-653,-702
-224,-600,-375,412,75,-488,902,1117,434,-161,-619,-683
-224,-575,-351,400,63,-463,873,1088,434,-136,-600,-658
-224,-556,-331,390,53,-444,834,1049,434,-122,-556,-624
-219,-546,-326,383,53,-436,800,1024,439,-92,-531,-595
-214,-546,-331,380,58,-439,761,990,439,-63,-502,-561
-219,-536,-317,378,48,-427,736,956,439,-34,-468,-522
-200,-502,-302,351,51,-402,702,927,429,-29,-444,-502
-170,-458,-287,314,58,-373,658,888,414,-24,-419,-483
-146,-414,-268,280,61,-341,634,854,400,-14,-400,-463
-126,-370,-244,248,58,-307,595,814,385,-9,-385,-444
-126,-361,-234,244,53,-297,561,785,375,-4,-351,-405
-107,-346,-239,226,65,-292,527,746,366,9,-326,-366
-102,-326,-224,214,61,-275,502,712,346,19,-297,-336
-102,-317,-214,209,56,-265,468,678,331,29,-268,-292
-97,-297,-200,197,51,-248,439,649,312,34,-258,-263
-82,-263,-180,173,48,-222,419,614,297,48,-239,-239
-78,-244,-165,161,43,-204,400,585,297,58,-214,-219
-73,-244,-170,158,48,-207,375,551,287,68,-200,-195
-63,-224,-161,143,48,-192,341,517,278,78,-180,-180
-63,-209,-146,136,41,-178,317,492,258,73,-165,-156
-58,-190,-131,124,36,-161,292,453,248,68,-156,-141
-58,-175,-117,117,29,-146,268,424,229,58,-146,-122
-63,-170,-107,117,21,-139,244,385,195,53,-141,-117
-63,-156,-92,109,14,-124,234,351,170,48,-131,-102
-58,-146,-87,102,14,-117,209,317,146,43,-122,-92
-58,-136,-78,97,9,-107,195,287,117,34,-117,-87
-68,-136,-68,102,0,-102,190,273,112,39,-107,-68
-68,-141,-73,104,2,-107,175,263,107,34,-97,-43
-73,-131,-58,102,-7,-95,180,253,102,34,-87,-24
-73,-126,-53,100,-9,-90,180,239,107,39,-73,-4
-68,-131,-63,100,-2,-97,170,219,82,39,-39,39
-68,-126,-58,97,-4,-92,165,204,68,39,-29,48
-58,-122,-63,90,2,-92,161,195,58,39,-39,39
-48,-117,-68,82,9,-92,156,185,58,39,-39,39
-39,-112,-73,75,17,-92,151,175,58,39,-39,39
-29,-107,-78,68,24,-92,146,165,58,39,-39,39
-24,-68,-43,46,9,-56,151,156,39,24,-43,34
-24,-43,-19,34,-2,-31,156,146,29,14,-53,43
-24,-19,4,21,-14,-7,161,136,24,0,-63,48
-24,14,39,4,-31,26,170,126,14,-14,-68,53
-19,9,29,4,-24,19,161,117,4,-9,-68,48
-19,4,24,7,-21,14,161,112,4,-14,-68,48
-24,0,24,12,-24,12,151,102,-9,-24,-78,43
-24,4,29,9,-26,17,151,92,-19,-34,-87,34
-39,9,48,14,-43,29,151,92,-19,-24,-87,34
-43,0,43,21,-43,21,151,92,-19,-29,-92,39
-53,-4,48,29,-51,21,141,87,-24,-39,-92,39
-58,-4,53,31,-56,24,141,92,-19,-43,-87,39
-63,-4,58,34,-61,26,156,92,-34,-53,-82,53
-58,-4,53,31,-56,24,156,92,-34,-58,-87,63
-48,-4,43,26,-46,19,156,87,-39,-63,-87,68
-39,-4,34,21,-36,14,146,87,-43,-63,-82,73
-34,4,39,14,-36,21,136,73,-53,-82,-112,58
-29,9,39,9,-34,24,117,58,-63,-102,-131,39
-29,9,39,9,-34,24,112,48,-78,-112,-151,24
-24,9,34,7,-29,21,102,43,-87,-126,-170,4
-43,0,43,21,-43,21,97,48,-82,-112,-161,14
-58,0,58,29,-58,29,92,48,-73,-107,-146,24
-68,0,68,34,-68,34,87,53,-68,-102,-136,29
-78,0,78,39,-78,39,82,53,-63,-102,-122,39
-63,14,78,24,-70,46,82,43,-63,-107,-117,34
-48,24,73,12,-61,48,78,43,-63,-102,-122,39
-29,29,58,0,-43,43,63,39,-68,-102,-117,43
-9,24,34,-7,-21,29,58,39,-68,-97,-112,48
-24,14,39,4,-31,26,68,39,-53,-92,-122,43
-29,14,43,7,-36,29,68,39,-53,-87,-122,34
-34,14,48,9,-41,31,82,48,-43,-82,-126,29
-39,14,53,12,-46,34,82,53,-39,-68,-126,24
-29,4,34,12,-31,19,78,68,-29,-58,-131,14
-29,0,29,14,-29,14,78,73,-19,-63,-117,14
-29,-14,14,21,-21,0,82,78,-19,-68,-126,14
-43,-24,19,34,-31,-2,82,73,-19,-73,-126,14
-34,-24,9,29,-21,-7,87,78,-19,-82,-126,0
-39,-19,19,29,-29,0,92,82,-19,-78,-131,-9
-53,-29,24,41,-39,-2,97,87,-14,-68,-131,-14
-53,-34,19,43,-36,-7,102,97,-14,-68,-131,-19
-53,-34,19,43,-36,-7,92,97,-4,-78,-146,-43
-63,-48,14,56,-39,-17,97,97,-4,-82,-170,-68
-68,-78,-9,73,-29,-43,102,102,-4,-87,-175,-82
-78,-97,-19,87,-29,-58,117,107,0,-87,-185,-92
-87,-122,-34,104,-26,-78,112,102,-4,-92,-209,-92
-102,-156,-53,129,-24,-104,112,112,-9,-97,-214,-112
-122,-180,-58,151,-31,-119,112,112,-14,-112,-224,-126
-141,-214,-73,178,-34,-143,117,112,-19,-117,-234,-141
-131,-234,-102,183,-14,-168,122,112,-9,-112,-219,-141
-131,-253,-122,192,-4,-187,122,117,4,-107,-214,-141
-131,-278,-146,204,7,-212,117,122,9,-92,-209,-136
-126,-287,-161,207,17,-224,112,126,14,-87,-204,-136
-112,-287,-175,200,31,-231,112,122,9,-102,-214,-146
-117,-278,-161,197,21,-219,107,107,4,-107,-224,-156
-112,-268,-156,190,21,-212,107,102,0,-112,-234,-165
-102,-253,-151,178,24,-202,107,97,0,-117,-244,-175
-102,-244,-141,173,19,-192,102,102,14,-102,-229,-165
-102,-244,-141,173,19,-192,102,107,19,-97,-224,-165
-102,-253,-151,178,24,-202,102,112,24,-92,-219,-165
-92,-253,-161,173,34,-207,102,117,29,-82,-209,-165
-92,-273,-180,183,43,-226,87,112,14,-82,-200,-161
-92,-283,-190,187,48,-236,82,107,14,-87,-195,-151
-92,-283,-190,187,48,-236,82,92,9,-82,-190,-151
-92,-292,-200,192,53,-246,73,82,0,-87,-190,-151
-58,-258,-200,158,70,-229,87,92,29,-68,-170,-141
-58,-258,-200,158,70,-229,78,82,34,-68,-170,-146
-68,-248,-180,158,56,-214,82,82,24,-73,-170,-141
-63,-214,-151,139,43,-183,92,112,48,-39,-146,-117
-24,-180,-156,102,65,-168,82,141,78,-4,-117,-97
-19,-180,-161,100,70,-170,87,161,73,-9,-131,-112
-58,-190,-131,124,36,-161,97,180,58,-43,-151,-117
-73,-229,-156,151,41,-192,122,248,97,-14,-131,-102
-43,-239,-195,141,75,-217,195,366,175,53,-82,-68
-14,-234,-219,124,102,-226,263,458,244,97,-29,-43
4,-214,-219,104,112,-217,287,468,287,136,-4,-29
24,-219,-244,97,134,-231,273,419,278,146,9,-9
19,-248,-268,114,143,-258,244,351,268,156,14,-4
4,-268,-273,131,139,-270,200,278,244,146,9,4
-4,-234,-229,119,112,-231,141,146,204,141,9,9
-24,-185,-161,104,68,-173,39,4,165,141,14,24
-43,-165,-122,104,39,-143,-107,-146,161,146,29,24
-53,-165,-112,109,29,-139,-331,-292,141,156,43,34
-9,-102,-92,56,41,-97,-619,-434,136,190,92,87
87,34,-53,-61,70,-9,-956,-580,151,273,209,195
209,209,0,-209,104,104,-1317,-736,185,390,361,346
307,385,78,-346,114,231,-1620,-873,234,522,497,468
370,575,204,-473,82,390,-1781,-951,322,668,639,590
414,780,366,-597,24,573,-1878,-990,463,844,800,717
488,961,473,-724,7,717,-1986,-1049,561,980,941,849
580,1088,507,-834,36,797,-2108,-1098,624,1078,1058,961
653,1137,483,-895,85,810,-2210,-1093,722,1210,1200,1078
712,1185,473,-949,119,829,-2264,-1073,795,1337,1322,1185
756,1283,527,-1019,114,905,-2293,-1098,824,1454,1434,1263
814,1351,536,-1083,139,944,-2337,-1151,854,1551,1546,1356
863,1390,527,-1127,168,958,-2400,-1220,868,1629,1629,1439
888,1410,522,-1149,183,966,-2464,-1332,829,1659,1698,1512
868,1361,492,-1115,187,927,-2522,-1464,780,1673,1737,1566
849,1317,468,-1083,190,893,-2571,-1605,717,1683,1776,1610
878,1327,448,-1102,214,888,-2581,-1732,639,1683,1805,1659
888,1342,453,-1115,217,897,-2581,-1810,585,1703,1878,1737
873,1342,468,-1107,202,905,-2576,-1888,488,1698,1912,1790
829,1342,512,-1085,158,927,-2566,-2020,312,1629,1893,1795
795,1337,541,-1066,126,939,-2527,-2152,165,1561,1873,1805
805,1381,575,-1093,114,978,-2498,-2254,53,1532,1893,1839
795,1434,639,-1115,78,1037,-2479,-2366,-68,1488,1883,1864
766,1449,683,-1107,41,1066,-2454,-2464,-185,1424,1883,1883
722,1449,727,-1085,-2,1088,-2435,-2547,-322,1346,1864,1903
644,1415,771,-1029,-63,1093,-2415,-2644,-492,1249,1849,1922
585,1395,810,-990,-112,1102,-2371,-2698,-619,1195,1854,1961
580,1400,819,-990,-119,1110,-2283,-2664,-673,1171,1864,1991
570,1376,805,-973,-117,1090,-2171,-2620,-741,1122,1839,1991
527,1371,844,-949,-158,1107,-2064,-2596,-824,1054,1820,1986
473,1381,907,-927,-217,1144,-1961,-2552,-863,995,1795,1995
405,1312,907,-858,-251,1110,-1859,-2503,-902,912,1742,1961
336,1220,883,-778,-273,1051,-1756,-2440,-932,819,1673,1927
312,1224,912,-768,-300,1068,-1620,-2308,-902,771,1644,1917
287,1244,956,-766,-334,1100,-1483,-2152,-868,746,1615,1917
253,1210,956,-732,-351,1083,-1376,-2034,-888,673,1566,1883
204,1102,897,-653,-346,1000,-1288,-1922,-907,585,1498,1849
170,985,814,-578,-322,900,-1190,-1790,-897,531,1464,1830
136,922,785,-529,-324,854,-1093,-1673,-883,483,1410,1781
97,849,751,-473,-326,800,-990,-1561,-849,419,1332,1722
63,741,678,-402,-307,710,-878,-1444,-814,356,1254,1659
58,624,566,-341,-253,595,-800,-1322,-780,292,1171,1590
58,512,453,-285,-197,483,-732,-1180,-727,244,1098,1527
53,444,390,-248,-168,417,-629,-1049,-688,200,1034,1464
58,395,336,-226,-139,366,-551,-936,-668,165,961,1395
58,326,268,-192,-104,297,-497,-839,-644,117,902,1342
78,229,151,-153,-36,190,-439,-722,-580,97,844,1273
97,126,29,-112,34,78,-370,-595,-483,107,814,1220
97,29,-68,-63,82,-19,-287,-468,-380,136,790,1166
102,-53,-156,-24,129,-104,-229,-341,-297,136,732,1098
102,-117,-219,7,161,-168,-165,-239,-287,73,629,980
102,-185,-287,41,195,-236,-82,-151,-278,0,488,854
102,-258,-361,78,231,-309,0,-53,-234,-29,380,741
82,-292,-375,104,229,-334,43,19,-190,-48,317,639
53,-307,-361,126,207,-334,92,73,-170,-78,234,517
39,-292,-331,126,185,-312,156,122,-126,-102,151,400
34,-278,-312,122,173,-295,214,170,-97,-146,43,278
24,-297,-322,136,173,-309,263,204,-102,-224,-78,146
0,-331,-331,165,165,-331,326,244,-78,-263,-185,19
-43,-351,-307,197,131,-329,356,287,-34,-263,-258,-87
-68,-361,-292,214,112,-326,390,322,-53,-302,-346,-185
-68,-351,-283,209,107,-317,458,375,-48,-326,-390,-248
-43,-317,-273,180,114,-295,517,439,0,-297,-390,-287
-82,-361,-278,222,97,-319,512,448,24,-292,-414,-336
-165,-468,-302,317,68,-385,492,424,9,-317,-448,-395
-161,-488,-326,324,82,-407,507,444,24,-322,-463,-419
-165,-488,-322,326,78,-405,517,453,34,-322,-478,-429
-170,-492,-322,331,75,-407,531,463,34,-322,-483,-439
-170,-507,-336,339,82,-422,546,478,39,-322,-483,-439
-175,-488,-312,331,68,-400,561,507,53,-307,-492,-439
-175,-473,-297,324,61,-385,575,522,58,-307,-492,-444
-180,-463,-283,322,51,-373,590,541,63,-312,-502,-448
-180,-453,-273,317,46,-363,605,551,68,-322,-507,-463
-185,-478,-292,331,53,-385,610,551,63,-326,-507,-458
-185,-492,-307,339,61,-400,619,556,63,-331,-512,-458
-190,-517,-326,353,68,-422,634,575,68,-336,-507,-458
-195,-531,-336,363,70,-434,644,590,63,-356,-507,-468
-200,-531,-331,366,65,-431,673,600,63,-346,-531,-478
-204,-527,-322,366,58,-424,692,619,73,-346,-536,-488
-209,-527,-317,368,53,-422,717,644,73,-351,-541,-492
-219,-531,-312,375,46,-422,736,653,78,-356,-541,-502
-224,-556,-331,390,53,-444,771,688,97,-361,-536,-507
-224,-566,-341,395,58,-453,795,702,102,-366,-556,-522
-234,-585,-351,409,58,-468,819,717,107,-370,-566,-536
-244,-595,-351,419,53,-473,849,741,107,-375,-580,-551
-234,-605,-370,419,68,-488,868,761,122,-385,-590,-561
-248,-605,-356,427,53,-480,878,775,122,-390,-605,-570
-253,-610,-356,431,51,-483,888,790,122,-405,-619,-580
-258,-634,-375,446,58,-505,897,814,122,-414,-634,-600
-258,-629,-370,444,56,-500,932,834,136,-419,-649,-614
-258,-629,-370,444,56,-500,956,854,141,-429,-663,-629
-258,-634,-375,446,58,-505,985,873,151,-444,-678,-644
-263,-639,-375,451,56,-507,1010,893,156,-453,-692,-663
-253,-644,-390,448,68,-517,1010,897,146,-473,-722,-683
-253,-644,-390,448,68,-517,1019,902,141,-488,-746,-707
-258,-653,-395,456,68,-524,1034,922,141,-497,-756,-732
-248,-658,-409,453,80,-534,1044,932,156,-497,-771,-751
-253,-678,-424,466,85,-551,1058,961,156,-502,-771,-756
-253,-683,-429,468,87,-556,1073,971,165,-512,-780,-766
-253,-683,-429,468,87,-556,1088,990,165,-517,-795,-771
-258,-697,-439,478,90,-568,1088,1010,175,-522,-800,-780
-273,-717,-444,495,85,-580,1117,1024,190,-531,-834,-810
-273,-727,-453,500,90,-590,1127,1039,200,-531,-849,-824
-268,-727,-458,497,95,-592,1137,1058,209,-531,-858,-834
-268,-732,-463,500,97,-597,1146,1078,224,-527,-868,-849
-283,-751,-468,517,92,-610,1161,1098,244,-522,-858,-844
-287,-756,-468,522,90,-612,1171,1122,268,-507,-849,-854
-292,-761,-468,527,87,-614,1176,1137,287,-492,-849,-863
-297,-766,-468,531,85,-617,1180,1151,302,-478,-839,-873
-302,-766,-463,534,80,-614,1171,1161,331,-463,-849,-873
-292,-771,-478,531,92,-624,1156,1161,341,-448,-849,-878
-283,-771,-488,527,102,-629,1151,1166,356,-434,-839,-878
-278,-771,-492,524,107,-631,1146,1166,375,-409,-824,-873
-287,-766,-478,527,95,-622,1146,1161,395,-400,-819,-878
-287,-761,-473,524,92,-617,1137,1156,405,-385,-810,-878
-283,-746,-463,514,90,-605,1117,1151,414,-370,-790,-878
-273,-732,-458,502,92,-595,1098,1137,424,-351,-780,-878
-268,-741,-473,505,102,-607,1068,1132,439,-322,-766,-858
-263,-727,-463,495,100,-595,1044,1117,453,-302,-741,-844
-244,-736,-492,490,124,-614,1024,1112,468,-268,-717,-824
-239,-732,-492,485,126,-612,1000,1098,483,-244,-692,-810
-214,-697,-483,456,134,-590,990,1078,478,-219,-658,-775
-204,-673,-468,439,131,-570,961,1058,488,-204,-634,-751
-195,-653,-458,424,131,-556,936,1029,492,-180,-595,-732
-195,-634,-439,414,122,-536,912,1000,492,-156,-570,-707
-190,-595,-405,392,107,-500,878,956,473,-161,-546,-692
-180,-566,-385,373,102,-475,839,927,468,-141,-531,-673
-170,-546,-375,358,102,-461,795,888,458,-122,-512,-649
-170,-517,-346,344,87,-431,766,849,448,-102,-488,-619
-165,-507,-341,336,87,-424,741,834,448,-78,-444,-580
-141,-488,-346,314,102,-417,697,800,444,-63,-409,-551
-122,-468,-346,295,112,-407,673,771,439,-43,-380,-522
-107,-448,-341,278,117,-395,634,736,434,-29,-356,-492
-112,-429,-317,270,102,-373,610,688,414,-34,-336,-478
-97,-414,-317,256,109,-366,575,649,405,-19,-317,-453
-97,-395,-297,246,100,-346,551,614,385,-9,-292,-439
-102,-385,-283,244,90,-334,517,580,370,0,-268,-409
-97,-361,-263,229,82,-312,473,531,336,0,-248,-370
-82,-322,-239,202,78,-280,448,497,317,9,-229,-346
-78,-297,-219,187,70,-258,424,468,312,14,-204,-326
-73,-292,-219,183,73,-256,395,434,297,19,-190,-302
-73,-283,-209,178,68,-246,366,400,283,19,-180,-287
-73,-268,-195,170,61,-231,336,375,258,14,-165,-263
-68,-248,-180,158,56,-214,307,336,244,9,-156,-248
-68,-234,-165,151,48,-200,278,307,219,0,-146,-229
-53,-229,-175,141,61,-202,273,292,209,9,-136,-209
-53,-214,-161,134,53,-187,263,263,190,9,-122,-190
-48,-204,-156,126,53,-180,239,234,170,9,-107,-175
-48,-195,-146,122,48,-170,224,209,146,4,-97,-165
-48,-200,-151,124,51,-175,190,180,122,-14,-102,-165
-39,-180,-141,109,51,-161,165,156,97,-24,-107,-161
-34,-146,-112,90,39,-129,161,151,102,-9,-92,-151
-19,-126,-107,73,43,-117,165,136,97,-9,-87,-126
-29,-122,-92,75,31,-107,161,122,82,-19,-82,-122
-29,-117,-87,73,29,-102,156,117,78,-19,-78,-117
-29,-112,-82,70,26,-97,151,112,73,-19,-73,-112
-29,-107,-78,68,24,-92,146,107,68,-19,-68,-107
-39,-87,-48,63,4,-68,126,78,48,-39,-73,-107
-43,-73,-29,58,-7,-51,117,58,29,-43,-73,-102
-48,-58,-9,53,-19,-34,107,39,14,-53,-73,-102
-53,-34,19,43,-36,-7,102,19,-4,-63,-68,-102
-34,-29,4,31,-19,-12,117,19,-14,-58,-58,-92
-29,-24,4,26,-17,-9,122,14,-14,-63,-58,-87
-29,-19,9,24,-19,-4,117,4,-29,-73,-68,-87
-24,-4,19,14,-21,7,122,-4,-39,-82,-78,-92
-24,4,29,9,-26,17,117,-9,-34,-92,-87,-97
-24,0,24,12,-24,12,112,-14,-39,-97,-92,-97
-29,0,29,14,-29,14,97,-24,-48,-107,-92,-102
-29,4,34,12,-31,19,92,-24,-48,-112,-87,-107
-24,9,34,7,-29,21,97,-24,-43,-102,-82,-102
-19,4,24,7,-21,14,97,-24,-43,-107,-87,-92
-9,0,9,4,-9,4,97,-29,-48,-112,-87,-87
0,-4,-4,2,2,-4,87,-29,-53,-112,-82,-82
0,9,9,-4,-4,9,68,-43,-63,-131,-97,-82
0,19,19,-9,-9,19,48,-58,-73,-141,-102,-87
-4,24,29,-9,-17,26,43,-68,-87,-141,-107,-87
-4,29,34,-12,-19,31,34,-73,-97,-146,-112,-92
4,19,14,-12,-4,17,24,-87,-107,-151,-117,-92
0,19,19,-9,-9,19,24,-87,-102,-156,-117,-92
0,19,19,-9,-9,19,24,-82,-102,-161,-122,-97
0,19,19,-9,-9,19,24,-82,-102,-170,-122,-97
4,34,29,-19,-12,31,24,-87,-97,-165,-117,-92
9,43,34,-26,-12,39,19,-82,-92,-161,-122,-87
19,48,29,-34,-4,39,4,-82,-92,-161,-117,-82
29,43,14,-36,7,29,0,-78,-87,-156,-112,-78
24,39,14,-31,4,26,-9,-82,-92,-165,-122,-82
19,34,14,-26,2,24,-9,-87,-92,-165,-122,-92
14,29,14,-21,0,21,4,-82,-82,-165,-126,-97
9,24,14,-17,-2,19,4,-82,-78,-156,-126,-102
9,34,24,-21,-7,29,14,-63,-58,-131,-122,-92
9,39,29,-24,-9,34,19,-53,-48,-131,-107,-92
9,34,24,-21,-7,29,29,-43,-48,-131,-117,-92
-4,34,39,-14,-21,36,34,-43,-48,-131,-117,-92
9,39,29,-24,-9,34,48,-48,-43,-141,-126,-102
9,39,29,-24,-9,34,53,-43,-39,-136,-131,-117
0,24,24,-12,-12,24,58,-39,-29,-126,-131,-126
4,14,9,-9,-2,12,63,-29,-24,-126,-131,-136
-4,9,14,-2,-9,12,53,-29,-34,-126,-141,-146
-24,0,24,12,-24,12,58,-29,-34,-131,-161,-165
-39,-24,14,31,-26,-4,63,-24,-34,-136,-161,-175
-58,-39,19,48,-39,-9,78,-19,-29,-136,-165,-180
-73,-78,-4,75,-34,-41,82,-14,-19,-136,-170,-180
-82,-117,-34,100,-24,-75,82,-4,-19,-136,-175,-200
-97,-146,-48,122,-24,-97,82,-4,-19,-146,-185,-214
-112,-185,-73,148,-19,-129,87,-4,-19,-146,-195,-229
-122,-195,-73,158,-24,-134,102,14,-14,-151,-200,-244
-122,-204,-82,163,-19,-143,112,19,-4,-156,-204,-248
-122,-219,-97,170,-12,-158,117,24,-4,-151,-209,-248
-117,-219,-102,168,-7,-161,122,29,-4,-156,-214,-253
-107,-239,-131,173,12,-185,112,39,0,-151,-204,-263
-117,-239,-122,178,2,-180,107,29,4,-146,-204,-263
-117,-239,-122,178,2,-180,107,29,9,-141,-204,-263
-112,-234,-122,173,4,-178,107,29,19,-136,-204,-263
-107,-229,-122,168,7,-175,102,19,4,-141,-209,-268
-102,-224,-122,163,9,-173,102,19,0,-146,-214,-273
-97,-229,-131,163,17,-180,102,19,-4,-151,-219,-278
-82,-224,-141,153,29,-183,102,19,-9,-151,-219,-283
-82,-239,-156,161,36,-197,107,29,-4,-136,-200,-268
-82,-244,-161,163,39,-202,102,29,4,-136,-195,-258
-82,-239,-156,161,36,-197,102,19,9,-126,-190,-258
-82,-244,-161,163,39,-202,92,14,9,-126,-190,-258
-87,-229,-141,158,26,-185,97,14,29,-126,-180,-248
-97,-229,-131,163,17,-180,87,14,14,-126,-180,-253
-97,-248,-151,173,26,-200,73,14,14,-122,-170,-248
-63,-244,-180,153,58,-212,73,34,29,-107,-156,-244
-53,-219,-165,136,56,-192,73,53,58,-73,-126,-224
-78,-209,-131,143,26,-170,68,73,73,-39,-112,-200
-78,-248,-170,163,46,-209,87,102,87,-43,-102,-195
-53,-248,-195,151,70,-222,131,180,136,-24,-82,-190
-14,-200,-185,107,85,-192,204,297,204,24,-43,-165
-4,-185,-180,95,87,-183,263,400,263,68,-19,-151
-24,-204,-180,114,78,-192,307,419,287,87,-4,-146
-24,-209,-185,117,80,-197,302,370,287,107,0,-146
0,-200,-200,100,100,-200,283,302,258,97,-4,-141
-4,-200,-195,102,95,-197,219,229,234,87,-9,-151
-34,-195,-161,114,63,-178,112,97,204,92,0,-136
-24,-146,-122,85,48,-134,-9,-63,195,112,24,-102
-4,-136,-131,70,63,-134,-156,-185,180,146,58,-82
-14,-136,-122,75,53,-129,-361,-312,170,165,92,-53
29,-43,-73,7,51,-58,-629,-444,175,209,151,0
117,122,4,-119,56,63,-966,-610,190,283,248,97
209,268,58,-239,75,163,-1346,-795,214,390,380,229
268,424,156,-346,56,290,-1629,-941,273,522,527,370
312,624,312,-468,0,468,-1761,-1000,380,688,678,502
375,819,444,-597,-34,631,-1839,-1049,483,834,829,639
448,990,541,-719,-46,766,-1976,-1117,570,980,980,761
541,1107,566,-824,-12,836,-2127,-1156,644,1117,1117,863
624,1156,531,-890,46,844,-2220,-1151,732,1239,1249,971
683,1205,522,-944,80,863,-2274,-1132,805,1346,1361,1078
717,1273,556,-995,80,915,-2332,-1166,844,1454,1483,1195
756,1302,546,-1029,104,924,-2396,-1210,873,1551,1595,1298
775,1283,507,-1029,134,895,-2440,-1278,878,1629,1678,1381
810,1293,483,-1051,163,888,-2483,-1371,858,1668,1747,1434
868,1342,473,-1105,197,907,-2513,-1483,829,1712,1805,1498
888,1337,448,-1112,219,893,-2552,-1595,775,1732,1844,1542
849,1298,448,-1073,200,873,-2601,-1722,678,1712,1854,1551
810,1283,473,-1046,168,878,-2630,-1849,566,1683,1869,1581
785,1293,507,-1039,139,900,-2615,-1947,468,1668,1883,1625
771,1312,541,-1041,114,927,-2566,-2059,341,1620,1883,1649
775,1346,570,-1061,102,958,-2527,-2161,204,1561,1873,1678
785,1390,605,-1088,90,997,-2498,-2244,112,1542,1903,1722
756,1376,619,-1066,68,997,-2479,-2347,-9,1488,1912,1766
717,1381,663,-1049,26,1022,-2454,-2454,-156,1424,1903,1786
692,1410,717,-1051,-12,1063,-2454,-2547,-292,1356,1903,1805
683,1434,751,-1058,-34,1093,-2425,-2635,-444,1307,1898,1834
673,1424,751,-1049,-39,1088,-2352,-2679,-570,1244,1893,1864
649,1390,741,-1019,-46,1066,-2254,-2674,-663,1180,1883,1873
580,1337,756,-958,-87,1046,-2161,-2649,-741,1112,1849,1854
527,1302,775,-915,-124,1039,-2074,-2635,-834,1024,1820,1859
483,1293,810,-888,-163,1051,-1981,-2620,-893,956,1786,1869
414,1273,858,-844,-222,1066,-1888,-2562,-922,893,1742,1854
366,1259,893,-812,-263,1076,-1776,-2488,-941,810,1693,1830
341,1224,883,-783,-270,1054,-1659,-2396,-961,741,1644,1800
307,1195,888,-751,-290,1041,-1542,-2259,-936,707,1615,1790
283,1171,888,-727,-302,1029,-1434,-2132,-936,653,1566,1776
253,1122,868,-688,-307,995,-1337,-2039,-985,546,1498,1742
200,1034,834,-617,-317,934,-1239,-1937,-1015,444,1434,1693
146,922,775,-534,-314,849,-1151,-1810,-1000,375,1361,1654
136,868,732,-502,-297,800,-1049,-1678,-956,322,1293,1595
151,810,658,-480,-253,734,-966,-1571,-912,268,1215,1532
146,741,595,-444,-224,668,-878,-1468,-897,204,1132,1464
87,629,541,-358,-226,585,-771,-1337,-873,146,1049,1410
43,483,439,-263,-197,461,-668,-1195,-814,102,985,1346
68,385,317,-226,-124,351,-561,-1054,-756,78,932,1298
87,326,239,-207,-75,283,-468,-897,-673,68,883,1254
87,239,151,-163,-31,195,-390,-751,-590,58,844,1195
78,146,68,-112,4,107,-331,-634,-522,58,785,1132
58,58,0,-58,29,29,-268,-517,-448,68,741,1078
43,-4,-48,-19,46,-26,-200,-409,-375,78,692,1000
53,-68,-122,7,87,-95,-146,-317,-336,34,600,883
73,-117,-190,21,131,-153,-82,-248,-317,-29,478,746
63,-161,-224,48,143,-192,-9,-161,-283,-78,380,634
43,-204,-248,80,146,-226,43,-78,-239,-97,297,541
34,-258,-292,112,163,-275,102,4,-190,-117,224,419
19,-263,-283,122,151,-273,156,73,-156,-151,122,302
4,-248,-253,122,129,-251,204,122,-126,-195,24,190
-14,-258,-244,136,114,-251,263,165,-112,-234,-87,58
-48,-292,-244,170,97,-268,297,185,-117,-302,-204,-87
-102,-302,-200,202,48,-251,326,209,-122,-341,-297,-204
-146,-341,-195,244,24,-268,361,244,-102,-361,-356,-283
-175,-370,-195,273,9,-283,400,278,-87,-375,-400,-356
-170,-356,-185,263,7,-270,439,312,-68,-375,-429,-414
-170,-351,-180,261,4,-265,473,351,-53,-361,-444,-434
-175,-370,-195,273,9,-283,492,375,-48,-366,-468,-453
-190,-390,-200,290,4,-295,507,385,-34,-380,-478,-483
-195,-390,-195,292,0,-292,517,395,-24,-380,-497,-497
-200,-395,-195,297,-2,-295,531,405,-24,-380,-507,-512
-200,-409,-209,305,4,-309,546,419,-19,-380,-512,-517
-200,-409,-209,305,4,-309,561,439,-14,-385,-512,-527
-195,-405,-209,300,7,-307,575,453,-9,-385,-512,-531
-195,-405,-209,300,7,-307,590,473,-4,-390,-522,-536
-190,-405,-214,297,12,-309,605,483,0,-400,-527,-551
-195,-409,-214,302,9,-312,624,492,0,-390,-531,-556
-195,-414,-219,305,12,-317,639,497,4,-390,-541,-556
-200,-429,-229,314,14,-329,658,517,14,-390,-541,-556
-204,-434,-229,319,12,-331,673,531,14,-405,-546,-566
-204,-424,-219,314,7,-322,692,551,14,-405,-561,-580
-204,-419,-214,312,4,-317,712,570,24,-405,-566,-585
-204,-419,-214,312,4,-317,736,595,24,-409,-570,-585
-209,-424,-214,317,2,-319,756,605,29,-414,-570,-590
-204,-444,-239,324,17,-341,785,634,39,-419,-566,-585
-204,-458,-253,331,24,-356,805,653,43,-424,-585,-600
-214,-483,-268,348,26,-375,824,673,48,-429,-595,-614
-224,-497,-273,361,24,-385,849,702,48,-434,-610,-629
-234,-492,-258,363,12,-375,868,712,63,-434,-619,-639
-248,-488,-239,368,-4,-363,888,727,63,-439,-634,-649
-253,-488,-234,370,-9,-361,907,741,63,-453,-649,-658
-258,-507,-248,383,-4,-378,927,766,63,-463,-663,-678
-263,-531,-268,397,2,-400,946,775,63,-468,-668,-683
-268,-541,-273,405,2,-407,966,795,63,-478,-683,-697
-273,-556,-283,414,4,-419,990,814,68,-492,-697,-712
-283,-570,-287,427,2,-429,1010,834,68,-502,-712,-732
-292,-590,-297,441,2,-444,1034,854,78,-512,-722,-746
-302,-595,-292,448,-4,-444,1049,863,73,-527,-746,-766
-317,-610,-292,463,-12,-451,1068,888,73,-536,-756,-785
-317,-619,-302,468,-7,-461,1083,902,87,-536,-771,-800
-317,-624,-307,470,-4,-466,1098,922,87,-551,-785,-810
-312,-624,-312,468,0,-468,1112,932,97,-561,-800,-824
-307,-619,-312,463,2,-466,1127,951,97,-566,-819,-834
-307,-629,-322,468,7,-475,1127,971,107,-570,-829,-849
-331,-658,-326,495,-2,-492,1146,985,122,-561,-839,-878
-331,-668,-336,500,2,-502,1156,1000,131,-561,-849,-893
-326,-668,-341,497,7,-505,1166,1019,141,-561,-854,-902
-326,-673,-346,500,9,-509,1176,1039,156,-556,-858,-917
-351,-697,-346,524,-2,-522,1180,1054,165,-566,-868,-912
-356,-697,-341,527,-7,-519,1180,1073,190,-556,-868,-922
-361,-697,-336,529,-12,-517,1176,1083,209,-546,-878,-932
-366,-697,-331,531,-17,-514,1171,1093,224,-536,-878,-941
-346,-688,-341,517,-2,-514,1180,1107,253,-531,-878,-946
-331,-692,-361,512,14,-527,1166,1112,263,-517,-878,-956
-317,-692,-375,505,29,-534,1161,1122,278,-502,-868,-961
-307,-692,-385,500,39,-539,1156,1127,297,-478,-854,-961
-297,-697,-400,497,51,-549,1151,1146,341,-458,-834,-946
-297,-692,-395,495,48,-544,1146,1146,356,-434,-819,-936
-292,-678,-385,485,46,-531,1132,1146,370,-409,-795,-927
-283,-663,-380,473,48,-522,1117,1137,385,-380,-780,-917
-292,-663,-370,478,39,-517,1088,1127,385,-361,-761,-917
-292,-639,-346,466,26,-492,1063,1107,395,-341,-741,-902
-278,-639,-361,458,41,-500,1044,1098,405,-307,-722,-883
-278,-624,-346,451,34,-485,1019,1078,414,-283,-702,-868
-273,-610,-336,441,31,-473,1005,1054,409,-268,-673,-844
-263,-595,-331,429,34,-463,971,1039,419,-253,-653,-819
-253,-585,-331,419,39,-458,941,1015,424,-229,-619,-800
-253,-575,-322,414,34,-448,912,990,424,-204,-600,-775
-224,-536,-312,380,43,-424,893,966,424,-190,-556,-736
-209,-507,-297,358,43,-402,858,946,429,-161,-531,-712
-195,-488,-292,341,48,-390,819,917,429,-131,-502,-683
-190,-458,-268,324,39,-363,795,888,429,-102,-468,-649
-190,-458,-268,324,39,-363,761,849,414,-92,-448,-619
-170,-439,-268,305,48,-353,717,810,405,-82,-419,-590
-156,-419,-263,287,53,-341,692,775,395,-68,-395,-561
-146,-400,-253,273,53,-326,653,736,385,-58,-375,-531
-151,-375,-224,263,36,-300,610,688,356,-63,-361,-507
-136,-356,-219,246,41,-287,575,649,346,-48,-336,-483
-136,-331,-195,234,29,-263,551,614,326,-39,-307,-468
-141,-317,-175,229,17,-246,517,580,312,-29,-278,-439
-131,-297,-165,214,17,-231,483,551,297,-19,-258,-409
-112,-263,-151,187,19,-207,458,517,278,-9,-239,-385
-102,-244,-141,173,19,-192,434,488,273,-4,-214,-366
-92,-244,-151,168,29,-197,405,453,258,0,-200,-341
-87,-229,-141,158,26,-185,370,414,239,-4,-185,-322
-92,-209,-117,151,12,-163,346,385,209,-14,-175,-302
-92,-185,-92,139,0,-139,322,341,190,-24,-170,-292
-97,-165,-68,131,-14,-117,297,307,161,-39,-165,-278
-102,-156,-53,129,-24,-104,292,287,156,-34,-156,-263
-102,-146,-43,124,-29,-95,283,263,141,-29,-141,-239
-97,-141,-43,119,-26,-92,258,239,126,-24,-126,-219
-97,-136,-39,117,-29,-87,244,219,107,-24,-117,-204
-78,-122,-43,100,-17,-82,229,190,102,-24,-102,-185
-58,-122,-63,90,2,-92,195,156,68,-34,-107,-180
-73,-126,-53,100,-9,-90,170,131,43,-48,-112,-180
-87,-107,-19,97,-34,-63,165,117,29,-58,-97,-165
-82,-92,-9,87,-36,-51,165,112,24,-58,-87,-151
-78,-78,0,78,-39,-39,165,107,19,-58,-87,-146
-73,-63,9,68,-41,-26,165,102,14,-58,-87,-141
-68,-48,19,58,-43,-14,165,97,9,-58,-87,-136
-63,-24,39,43,-51,7,156,87,9,-63,-73,-122
-63,-14,48,39,-56,17,156,78,0,-63,-73,-112
-63,-4,58,34,-61,26,156,68,-4,-68,-73,-107
-63,14,78,24,-70,46,161,58,-14,-73,-68,-102
-63,14,78,24,-70,46,170,58,-24,-68,-58,-97
-68,14,82,26,-75,48,170,53,-24,-73,-58,-87
-78,14,92,31,-85,53,161,43,-39,-82,-68,-82
-82,24,107,29,-95,65,161,34,-48,-92,-78,-82
-78,39,117,19,-97,78,161,29,-53,-92,-78,-73
-73,39,112,17,-92,75,161,24,-58,-97,-82,-68
-73,43,117,14,-95,80,151,14,-68,-107,-82,-68
-68,53,122,7,-95,87,151,14,-68,-112,-78,-68
-73,53,126,9,-100,90,146,0,-82,-122,-78,-78
-68,53,122,7,-95,87,136,-4,-82,-126,-87,-73
-58,53,112,2,-85,82,126,-14,-87,-131,-92,-73
-48,53,102,-2,-75,78,107,-19,-92,-131,-92,-73
-39,63,102,-12,-70,82,107,-29,-107,-141,-107,-73
-39,68,107,-14,-73,87,87,-39,-112,-151,-112,-78
-43,68,112,-12,-78,90,82,-43,-122,-151,-117,-78
-43,68,112,-12,-78,90,73,-43,-126,-156,-122,-82
-39,78,117,-19,-78,97,73,-39,-117,-156,-117,-78
-39,78,117,-19,-78,97,73,-39,-112,-156,-117,-73
-34,78,112,-21,-73,95,73,-34,-112,-156,-122,-73
-29,78,107,-24,-68,92,73,-34,-112,-161,-122,-68
-34,73,107,-19,-70,90,63,-48,-126,-175,-136,-82
-39,73,112,-17,-75,92,58,-53,-131,-180,-151,-87
-39,68,107,-14,-73,87,43,-63,-141,-190,-156,-92
-39,53,92,-7,-65,73,39,-68,-146,-195,-161,-97
-48,58,107,-4,-78,82,48,-58,-131,-185,-161,-97
-48,63,112,-7,-80,87,48,-58,-131,-185,-161,-102
-48,68,117,-9,-82,92,63,-48,-122,-185,-165,-102
-48,73,122,-12,-85,97,63,-43,-117,-175,-165,-102
-48,63,112,-7,-80,87,82,-14,-97,-151,-170,-102
-48,58,107,-4,-78,82,87,-4,-87,-151,-156,-102
-48,43,92,2,-70,68,97,4,-87,-151,-165,-102
-63,34,97,14,-80,65,102,4,-87,-151,-165,-102
-63,24,87,19,-75,56,117,9,-73,-161,-165,-117
-68,19,87,24,-78,53,122,14,-68,-156,-170,-126
-82,0,82,41,-82,41,126,19,-58,-146,-170,-131
-82,-14,68,48,-75,26,131,29,-53,-146,-170,-136
-92,-19,73,56,-82,26,131,39,-53,-146,-170,-136
-112,-29,82,70,-97,26,136,39,-53,-151,-190,-156
-126,-53,73,90,-100,9,141,43,-53,-156,-190,-165
-146,-68,78,107,-112,4,156,48,-48,-156,-195,-170
-146,-78,68,112,-107,-4,161,43,-58,-165,-219,-180
-151,-107,43,129,-97,-31,161,53,-58,-165,-224,-200
-161,-126,34,143,-97,-46,161,53,-58,-175,-234,-214
-170,-156,14,163,-92,-70,165,53,-58,-175,-244,-229
-170,-175,-4,173,-82,-90,185,68,-43,-165,-234,-224
-170,-185,-14,178,-78,-100,190,78,-34,-165,-234,-229
-170,-200,-29,185,-70,-114,190,87,-34,-156,-234,-229
-165,-200,-34,183,-65,-117,190,97,-34,-156,-234,-234
-175,-224,-48,200,-63,-136,200,107,-24,-151,-224,-224
-185,-229,-43,207,-70,-136,195,97,-24,-146,-224,-224
-185,-234,-48,209,-68,-141,195,97,-24,-141,-224,-224
-180,-234,-53,207,-63,-143,195,97,-19,-136,-224,-224
-190,-229,-39,209,-75,-134,175,82,-34,-151,-239,-239
-190,-224,-34,207,-78,-129,170,78,-39,-156,-244,-244
-190,-229,-39,209,-75,-134,165,73,-43,-161,-248,-248
-180,-224,-43,202,-68,-134,161,68,-48,-161,-248,-253
-161,-219,-58,190,-51,-139,161,73,-43,-141,-234,-239
-151,-214,-63,183,-43,-139,161,78,-34,-136,-224,-229
-141,-200,-58,170,-41,-129,165,73,-29,-122,-214,-229
-131,-195,-63,163,-34,-129,161,73,-29,-117,-209,-229
-146,-200,-53,173,-46,-126,156,63,-29,-126,-200,-219
-175,-209,-34,192,-70,-122,136,53,-34,-126,-209,-224
-175,-209,-34,192,-70,-122,131,53,-24,-131,-209,-229
-141,-185,-43,163,-48,-114,131,82,-9,-107,-204,-214
-122,-141,-19,131,-51,-80,141,112,9,-73,-175,-195
-117,-151,-34,134,-41,-92,146,141,34,-48,-151,-180
-117,-170,-53,143,-31,-112,165,190,68,-34,-141,-165
-92,-161,-68,126,-12,-114,229,287,126,-4,-112,-151
-63,-141,-78,102,7,-109,312,405,185,43,-82,-146
-73,-126,-53,100,-9,-90,380,468,234,68,-58,-131
-102,-136,-34,119,-34,-85,405,468,258,87,-43,-117
-122,-151,-29,136,-46,-90,380,429,258,97,-39,-107
-117,-190,-73,153,-21,-131,341,370,239,107,-43,-102
-131,-219,-87,175,-21,-153,258,287,224,117,-29,-92
-141,-224,-82,183,-29,-153,122,146,195,122,-9,-78
-141,-204,-63,173,-39,-134,-9,-4,156,122,-4,-63
-102,-146,-43,124,-29,-95,-165,-146,131,126,9,-53
-53,-78,-24,65,-14,-51,-400,-292,122,146,53,-24
0,24,24,-12,-12,24,-707,-434,117,190,122,29
58,161,102,-109,-21,131,-1102,-639,102,263,209,117
131,326,195,-229,-31,261,-1493,-844,126,370,331,248
200,522,322,-361,-61,422,-1708,-961,214,522,488,390
273,712,439,-492,-82,575,-1800,-990,351,697,668,541
356,907,551,-631,-97,729,-1908,-1049,453,854,819,678
448,1049,600,-749,-75,824,-2064,-1107,541,990,961,800
541,1137,595,-839,-26,866,-2186,-1098,653,1146,1117,932
614,1215,600,-915,7,907,-2249,-1073,751,1288,1268,1039
683,1293,610,-988,36,951,-2293,-1073,805,1385,1371,1127
736,1322,585,-1029,75,954,-2342,-1098,844,1483,1473,1234
766,1312,546,-1039,109,929,-2366,-1141,893,1581,1566,1327
766,1302,536,-1034,114,919,-2400,-1200,888,1639,1629,1390
761,1283,522,-1022,119,902,-2425,-1293,868,1659,1668,1424
771,1254,483,-1012,143,868,-2454,-1415,819,1673,1698,1459
771,1229,458,-1000,156,844,-2474,-1537,746,1673,1717,1493
761,1220,458,-990,151,839,-2493,-1644,668,1664,1756,1532
761,1244,483,-1002,139,863,-2503,-1722,595,1673,1800,1590
766,1283,517,-1024,124,900,-2488,-1790,507,1659,1834,1634
732,1293,561,-1012,85,927,-2469,-1903,370,1600,1825,1649
697,1288,590,-993,53,939,-2449,-2025,244,1542,1815,1659
707,1312,605,-1010,51,958,-2410,-2127,141,1512,1815,1703
727,1346,619,-1037,53,983,-2371,-2230,29,1478,1825,1747
688,1342,653,-1015,17,997,-2337,-2327,-117,1405,1805,1766
673,1361,688,-1017,-7,1024,-2298,-2400,-263,1337,1815,1786
683,1385,702,-1034,-9,1044,-2259,-2459,-424,1259,1800,1805
644,1356,712,-1000,-34,1034,-2205,-2503,-570,1166,1776,1805
570,1283,712,-927,-70,997,-2127,-2488,-663,1093,1756,1795
531,1259,727,-895,-97,993,-2034,-2454,-722,1034,1722,1805
507,1263,756,-885,-124,1010,-1947,-2459,-795,956,1673,1800
463,1254,790,-858,-163,1022,-1864,-2474,-863,888,1639,1790
395,1205,810,-800,-207,1007,-1771,-2444,-902,814,1595,1776
356,1190,834,-773,-239,1012,-1678,-2381,-941,751,1566,1771
322,1205,883,-763,-280,1044,-1561,-2269,-932,722,1556,1771
278,1185,907,-732,-314,1046,-1454,-2132,-888,707,1537,1781
224,1132,907,-678,-341,1019,-1366,-2025,-907,644,1498,1766
224,1112,888,-668,-331,1000,-1288,-1952,-956,546,1429,1742
239,1093,854,-666,-307,973,-1220,-1859,-966,483,1385,1722
204,1019,814,-612,-305,917,-1132,-1751,-932,434,1342,1703
146,927,780,-536,-317,854,-1049,-1649,-897,390,1283,1664
112,849,736,-480,-312,793,-956,-1542,-873,356,1234,1629
97,741,644,-419,-273,692,-868,-1420,-849,302,1171,1590
87,658,570,-373,-241,614,-790,-1288,-834,234,1098,1527
92,619,527,-356,-217,573,-697,-1166,-805,190,1044,1473
87,541,453,-314,-183,497,-619,-1054,-775,156,971,1424
78,424,346,-251,-134,385,-556,-936,-712,117,902,1342
78,346,268,-212,-95,307,-468,-800,-619,107,844,1273
78,273,195,-175,-58,234,-380,-663,-531,117,805,1220
68,175,107,-122,-19,141,-297,-517,-439,136,771,1146
63,82,19,-73,21,51,-209,-390,-366,126,702,1058
43,9,-34,-26,39,-12,-126,-278,-317,82,590,922
14,-68,-82,26,48,-75,-43,-180,-297,19,468,785
-14,-141,-126,78,56,-134,39,-73,-244,0,370,673
-34,-185,-151,109,58,-168,112,19,-180,-9,297,570
-73,-229,-156,151,41,-192,170,82,-151,-58,185,419
-97,-253,-156,175,29,-204,214,122,-156,-122,53,273
-112,-258,-146,185,17,-202,263,151,-136,-185,-63,131
-151,-268,-117,209,-17,-192,331,195,-122,-234,-165,0
-195,-302,-107,248,-43,-204,375,234,-126,-263,-244,-97
-190,-312,-122,251,-34,-217,395,258,-131,-283,-297,-175
-195,-312,-117,253,-39,-214,439,302,-112,-292,-346,-244
-244,-312,-68,278,-87,-190,478,356,-97,-297,-390,-317
-278,-336,-58,307,-109,-197,507,390,-68,-307,-419,-366
-268,-370,-102,319,-82,-236,541,419,-53,-302,-444,-395
-283,-390,-107,336,-87,-248,561,434,-39,-317,-478,-444
-287,-414,-126,351,-80,-270,575,453,-34,-331,-492,-483
-292,-409,-117,351,-87,-263,585,463,-24,-331,-507,-497
-297,-409,-112,353,-92,-261,600,473,-24,-331,-512,-512
-297,-419,-122,358,-87,-270,614,488,-19,-331,-512,-517
-287,-400,-112,344,-87,-256,639,507,-14,-326,-512,-507
-283,-385,-102,334,-90,-244,653,522,-9,-326,-512,-512
-283,-375,-92,329,-95,-234,668,541,-4,-331,-522,-517
-278,-366,-87,322,-95,-226,683,551,0,-341,-527,-531
-283,-380,-97,331,-92,-239,692,570,0,-331,-541,-541
-283,-395,-112,339,-85,-253,707,575,4,-331,-551,-546
-287,-419,-131,353,-78,-275,727,595,14,-331,-551,-551
-292,-434,-141,363,-75,-287,741,610,14,-346,-556,-566
-297,-448,-151,373,-73,-300,756,619,24,-346,-561,-561
-302,-448,-146,375,-78,-297,771,639,34,-346,-566,-566
-307,-453,-146,380,-80,-300,790,663,34,-351,-570,-566
-317,-463,-146,390,-85,-305,805,673,39,-356,-570,-570
-326,-478,-151,402,-87,-314,829,697,39,-370,-585,-580
-331,-488,-156,409,-87,-322,854,712,43,-375,-605,-600
-346,-507,-161,427,-92,-334,878,727,48,-380,-614,-619
-361,-517,-156,439,-102,-336,907,751,48,-385,-629,-639
-356,-502,-146,429,-104,-324,927,766,63,-385,-619,-639
-366,-497,-131,431,-117,-314,946,785,63,-390,-634,-649
-366,-497,-131,431,-117,-314,966,805,63,-405,-649,-658
-366,-517,-151,441,-107,-334,985,834,63,-414,-663,-678
-356,-536,-180,446,-87,-358,995,834,58,-419,-688,-702
-356,-541,-185,448,-85,-363,1015,854,63,-429,-702,-717
-356,-551,-195,453,-80,-373,1039,873,73,-444,-717,-732
-361,-561,-200,461,-80,-380,1058,893,78,-453,-732,-751
-361,-570,-209,466,-75,-390,1083,917,82,-448,-746,-761
-370,-575,-204,473,-82,-390,1098,932,82,-458,-766,-775
-385,-590,-204,488,-90,-397,1117,961,87,-463,-771,-790
-385,-600,-214,492,-85,-407,1132,980,107,-458,-780,-800
-395,-614,-219,505,-87,-417,1146,1010,112,-463,-790,-810
-400,-624,-224,512,-87,-424,1161,1019,126,-473,-800,-824
-405,-629,-224,517,-90,-427,1176,1039,131,-478,-814,-834
-414,-649,-234,531,-90,-441,1176,1058,146,-483,-819,-849
-419,-668,-248,544,-85,-458,1176,1068,141,-492,-849,-868
-419,-678,-258,549,-80,-468,1176,1078,151,-492,-858,-883
-414,-678,-263,546,-75,-470,1176,1093,161,-492,-863,-893
-414,-683,-268,549,-73,-475,1176,1107,175,-488,-868,-907
-409,-688,-278,549,-65,-483,1190,1127,200,-478,-854,-907
-405,-688,-283,546,-61,-485,1200,1151,229,-468,-849,-912
-400,-688,-287,544,-56,-488,1205,1166,253,-458,-854,-917
-395,-688,-292,541,-51,-490,1210,1180,273,-448,-849,-922
-405,-692,-287,549,-58,-490,1200,1195,292,-434,-858,-927
-409,-702,-292,556,-58,-497,1185,1200,302,-419,-858,-936
-414,-707,-292,561,-61,-500,1180,1210,317,-405,-849,-941
-424,-712,-287,568,-68,-500,1176,1215,336,-380,-834,-941
-414,-732,-317,573,-48,-524,1171,1234,370,-366,-810,-932
-414,-732,-317,573,-48,-524,1166,1234,385,-346,-800,-927
-409,-722,-312,566,-48,-517,1151,1234,400,-326,-780,-922
-400,-712,-312,556,-43,-512,1137,1224,414,-302,-771,-917
-395,-692,-297,544,-48,-495,1117,1220,434,-273,-746,-897
-390,-668,-278,529,-56,-473,1093,1205,444,-253,-722,-883
-370,-668,-297,519,-36,-483,1073,1200,453,-219,-697,-863
-366,-653,-287,509,-39,-470,1049,1185,463,-195,-673,-849
-341,-649,-307,495,-17,-478,1024,1156,458,-175,-653,-824
-331,-634,-302,483,-14,-468,990,1137,468,-165,-634,-800
-322,-624,-302,473,-9,-463,961,1107,473,-146,-600,-780
-322,-614,-292,468,-14,-453,932,1078,473,-126,-580,-756
-312,-575,-263,444,-24,-419,907,1063,473,-112,-546,-727
-297,-546,-248,422,-24,-397,878,1044,478,-82,-522,-702
-283,-527,-244,405,-19,-385,844,1015,478,-53,-492,-673
-278,-497,-219,387,-29,-358,824,985,478,-24,-458,-639
-263,-483,-219,373,-21,-351,780,946,473,-14,-439,-614
-239,-458,-219,348,-9,-339,736,907,463,-4,-409,-590
-219,-434,-214,326,-2,-324,712,873,453,9,-385,-566
-204,-409,-204,307,0,-307,673,834,444,19,-366,-541
-195,-380,-185,287,-4,-283,639,805,434,39,-336,-502
-175,-356,-180,265,2,-268,605,766,424,58,-307,-473
-170,-326,-156,248,-7,-241,580,732,405,73,-273,-453
-170,-307,-136,239,-17,-222,546,697,390,87,-239,-419
-180,-302,-122,241,-29,-212,502,668,366,73,-244,-395
-170,-273,-102,222,-34,-187,478,634,346,78,-229,-375
-170,-258,-87,214,-41,-173,453,605,341,78,-209,-361
-170,-263,-92,217,-39,-178,424,570,326,78,-200,-341
-170,-239,-68,204,-51,-153,405,536,312,87,-170,-307
-170,-219,-48,195,-61,-134,385,512,287,82,-156,-283
-165,-195,-29,180,-68,-112,366,473,273,78,-146,-268
-165,-175,-9,170,-78,-92,346,444,248,68,-136,-248
-151,-175,-24,163,-63,-100,326,414,229,68,-131,-234
-151,-165,-14,158,-68,-90,312,380,209,68,-122,-209
-146,-161,-14,153,-65,-87,283,346,190,68,-112,-190
-146,-156,-9,151,-68,-82,263,317,165,63,-107,-175
-146,-141,4,143,-75,-68,258,297,161,53,-112,-175
-146,-141,4,143,-75,-68,234,283,146,43,-107,-161
-151,-126,24,139,-87,-51,229,268,131,39,-102,-151
-151,-117,34,134,-92,-41,219,248,126,39,-92,-141
-136,-92,43,114,-90,-24,200,219,92,19,-107,-146
-122,-78,43,100,-82,-17,190,200,82,19,-102,-136
-117,-78,39,97,-78,-19,204,204,87,29,-78,-117
-122,-73,48,97,-85,-12,200,200,82,29,-78,-107
-126,-68,58,97,-92,-4,195,195,78,29,-78,-107
-131,-63,68,97,-100,2,190,190,73,29,-78,-107
-136,-58,78,97,-107,9,185,185,68,29,-78,-107
-136,-34,102,85,-119,34,185,165,53,19,-78,-102
-141,-24,117,82,-129,46,185,156,39,14,-82,-92
-146,-14,131,80,-139,58,185,146,29,4,-87,-87
-151,4,156,73,-153,80,190,136,14,-4,-87,-82
-131,-4,126,68,-129,61,190,136,14,-9,-78,-73
-126,-4,122,65,-124,58,190,131,14,-14,-78,-68
-126,-4,122,65,-124,58,180,122,0,-24,-87,-68
-122,4,126,58,-124,65,180,112,-9,-34,-97,-73
-117,29,146,43,-131,87,180,117,-14,-24,-97,-73
-112,29,141,41,-126,85,180,112,-19,-29,-102,-68
-112,34,146,39,-129,90,170,102,-29,-39,-102,-68
-107,43,151,31,-129,97,170,102,-29,-43,-97,-68
-112,53,165,29,-139,109,161,92,-24,-53,-107,-73
-117,53,170,31,-143,112,156,92,-24,-58,-117,-73
-117,53,170,31,-143,112,151,87,-29,-63,-122,-78
-117,53,170,31,-143,112,136,87,-34,-63,-122,-82
-117,63,180,26,-148,122,136,78,-48,-63,-126,-82
-117,78,195,19,-156,136,117,68,-53,-73,-131,-87
-122,87,209,17,-165,148,112,63,-63,-73,-136,-87
-122,97,219,12,-170,158,102,63,-68,-78,-141,-92
-117,82,200,17,-158,141,92,48,-68,-87,-156,-97
-117,78,195,19,-156,136,92,48,-63,-87,-156,-102
-112,73,185,19,-148,129,92,53,-63,-87,-161,-112
-107,68,175,19,-141,122,92,53,-63,-92,-161,-117
-122,58,180,31,-151,119,73,53,-73,-102,-170,-126
-126,63,190,31,-158,126,68,53,-73,-102,-180,-126
-126,63,190,31,-158,126,53,48,-78,-107,-180,-126
-126,53,180,36,-153,117,48,48,-78,-107,-180,-126
-122,63,185,29,-153,124,58,43,-87,-122,-185,-131
-117,73,190,21,-153,131,58,39,-92,-126,-190,-141
-112,82,195,14,-153,139,73,43,-87,-131,-200,-146
-107,92,200,7,-153,146,73,43,-87,-126,-204,-151
-122,82,204,19,-163,143,73,68,-63,-107,-190,-141
-126,68,195,29,-161,131,78,82,-48,-102,-175,-141
-131,43,175,43,-153,109,87,97,-43,-97,-185,-141
-151,24,175,63,-163,100,92,102,-39,-92,-185,-141
-136,19,156,58,-146,87,97,107,-43,-102,-185,-146
-136,19,156,58,-146,87,102,112,-39,-97,-190,-156
-146,4,151,70,-148,78,107,117,-29,-87,-190,-161
-141,-4,136,73,-139,65,112,126,-24,-87,-190,-165
-156,-29,126,92,-141,48,117,136,-24,-87,-185,-165
-170,-48,122,109,-146,36,126,136,-24,-92,-200,-175
-180,-82,97,131,-139,7,136,141,-24,-97,-195,-175
-195,-107,87,151,-141,-9,156,146,-19,-97,-195,-170
-185,-131,53,158,-119,-39,161,141,-14,-82,-204,-170
-190,-165,24,178,-107,-70,161,151,-9,-78,-204,-190
-200,-190,9,195,-104,-90,161,151,-4,-82,-209,-204
-209,-224,-14,217,-97,-119,165,151,0,-78,-214,-219
-219,-244,-24,231,-97,-134,170,161,-4,-82,-224,-229
-219,-253,-34,236,-92,-143,170,165,4,-87,-224,-239
-219,-268,-48,244,-85,-158,165,170,4,-82,-224,-244
-214,-268,-53,241,-80,-161,161,175,4,-87,-224,-253
-224,-283,-58,253,-82,-170,156,161,-4,-97,-224,-248
-234,-278,-43,256,-95,-161,146,146,-4,-97,-224,-244
-234,-273,-39,253,-97,-156,141,141,-4,-97,-224,-239
-229,-263,-34,246,-97,-148,136,136,0,-97,-224,-234
-229,-253,-24,241,-102,-139,126,151,14,-82,-209,-224
-229,-253,-24,241,-102,-139,131,156,19,-78,-204,-224
-229,-263,-34,246,-97,-148,136,161,24,-73,-200,-224
-219,-263,-43,241,-87,-153,141,165,29,-63,-190,-224
-209,-273,-63,241,-73,-168,131,161,24,-68,-185,-219
-209,-273,-63,241,-73,-168,122,156,24,-68,-185,-209
-209,-263,-53,236,-78,-158,117,141,19,-58,-185,-209
-209,-263,-53,236,-78,-158,102,131,9,-58,-190,-209
-185,-268,-82,226,-51,-175,107,141,29,-48,-161,-209
-165,-258,-92,212,-36,-175,126,170,63,-9,-131,-185
-165,-239,-73,202,-46,-156,122,170,53,-14,-141,-180
-170,-234,-63,202,-53,-148,112,180,58,-9,-146,-185
-170,-239,-68,204,-51,-153,102,209,68,4,-136,-165
-156,-219,-63,187,-46,-141,126,248,102,29,-112,-151
-146,-200,-53,173,-46,-126,185,336,165,73,-92,-146
-131,-209,-78,170,-26,-143,258,434,214,92,-73,-141
-102,-209,-107,156,2,-158,322,512,244,112,-63,-136
-112,-204,-92,158,-9,-148,361,536,253,117,-39,-122
-122,-185,-63,153,-29,-124,356,517,278,146,-14,-107
-112,-190,-78,151,-17,-134,341,488,297,165,0,-97
-107,-219,-112,163,2,-165,273,400,278,175,4,-92
-131,-239,-107,185,-12,-173,141,239,244,175,9,-73
-170,-224,-53,197,-58,-139,14,78,204,180,19,-58
-151,-195,-43,173,-53,-119,-117,-63,175,190,43,-34
-112,-156,-43,134,-34,-100,-312,-185,161,204,87,4
-53,-68,-14,61,-19,-41,-605,-312,170,253,141,53
39,82,43,-61,-2,63,-971,-463,175,317,219,146
146,268,122,-207,12,195,-1346,-629,170,400,317,253
239,434,195,-336,21,314,-1581,-727,244,517,448,375
326,629,302,-478,12,466,-1688,-766,380,688,605,517
409,829,419,-619,-4,624,-1781,-795,507,854,775,658
512,1015,502,-763,4,758,-1908,-824,619,1019,946,805
634,1127,492,-880,70,810,-2015,-814,756,1195,1107,927
717,1205,488,-961,114,846,-2078,-756,878,1332,1244,1049
741,1263,522,-1002,109,893,-2122,-741,946,1444,1356,1146
761,1302,541,-1032,109,922,-2205,-771,971,1532,1449,1234
805,1293,488,-1049,158,890,-2283,-814,990,1600,1532,1312
854,1293,439,-1073,207,866,-2347,-878,990,1649,1595,1376
893,1302,409,-1098,241,856,-2430,-995,976,1698,1659,1439
917,1322,405,-1119,256,863,-2503,-1137,946,1717,1708,1483
927,1312,385,-1119,270,849,-2532,-1259,897,1732,1737,1527
897,1298,400,-1098,248,849,-2552,-1381,844,1732,1766,1561
888,1317,429,-1102,229,873,-2571,-1488,756,1722,1786,1600
858,1332,473,-1095,192,902,-2552,-1566,653,1712,1810,1649
805,1322,517,-1063,143,919,-2537,-1683,536,1678,1815,1683
790,1342,551,-1066,119,946,-2518,-1805,439,1649,1825,1717
805,1385,580,-1095,112,983,-2498,-1908,370,1639,1864,1776
775,1381,605,-1078,85,993,-2469,-2010,287,1629,1893,1820
746,1376,629,-1061,58,1002,-2449,-2113,214,1615,1932,1854
756,1429,673,-1093,41,1051,-2415,-2200,126,1600,1961,1903
751,1468,717,-1110,17,1093,-2376,-2264,-9,1542,1971,1932
692,1424,732,-1058,-19,1078,-2337,-2332,-170,1454,1937,1932
644,1395,751,-1019,-53,1073,-2254,-2327,-278,1390,1893,1922
619,1390,771,-1005,-75,1080,-2147,-2293,-341,1317,1854,1912
561,1376,814,-968,-126,1095,-2054,-2318,-439,1249,1820,1912
488,1371,883,-929,-197,1127,-1966,-2322,-502,1180,1800,1908
444,1351,907,-897,-231,1129,-1864,-2308,-541,1132,1776,1898
375,1312,936,-844,-280,1124,-1771,-2278,-580,1068,1742,1893
307,1278,971,-793,-331,1124,-1659,-2196,-580,1044,1742,1898
283,1283,1000,-783,-358,1141,-1522,-2064,-561,1044,1742,1908
219,1234,1015,-727,-397,1124,-1405,-1956,-595,990,1712,1898
165,1151,985,-658,-409,1068,-1317,-1878,-653,907,1673,1883
146,1093,946,-619,-400,1019,-1249,-1795,-692,839,1634,1878
141,1024,883,-583,-370,954,-1161,-1683,-683,805,1600,1849
87,912,824,-500,-368,868,-1044,-1566,-639,775,1556,1810
58,800,741,-429,-341,771,-941,-1444,-595,732,1507,1771
73,741,668,-407,-297,705,-849,-1317,-580,658,1429,1708
48,634,585,-341,-268,610,-741,-1166,-575,585,1337,1629
9,502,492,-256,-241,497,-624,-1015,-541,527,1263,1566
34,414,380,-224,-173,397,-522,-863,-492,502,1210,1532
68,356,287,-212,-109,322,-444,-722,-434,458,1146,1473
48,248,200,-148,-75,224,-400,-624,-400,409,1068,1400
19,141,122,-80,-51,131,-351,-536,-356,361,1000,1322
9,58,48,-34,-19,53,-253,-429,-278,351,932,1249
29,0,-29,-14,29,-14,-180,-312,-224,322,849,1146
24,-82,-107,29,65,-95,-151,-234,-239,234,702,1000
-4,-175,-170,90,82,-173,-87,-151,-278,102,531,834
14,-195,-209,90,112,-202,4,-34,-239,58,439,727
24,-200,-224,87,124,-212,68,73,-165,68,370,644
-14,-253,-239,134,112,-246,122,126,-122,29,278,522
-43,-297,-253,170,104,-275,190,170,-112,-29,165,390
-68,-302,-234,185,82,-268,244,200,-107,-102,34,244
-131,-346,-214,239,41,-280,263,209,-117,-185,-112,63
-170,-356,-185,263,7,-270,312,234,-122,-244,-234,-87
-156,-341,-185,248,14,-263,385,302,-107,-253,-283,-156
-161,-361,-200,261,19,-280,434,366,-82,-253,-317,-204
-175,-390,-214,283,19,-302,478,419,-73,-263,-366,-273
-204,-409,-204,307,0,-307,488,434,-68,-287,-419,-346
-258,-434,-175,346,-41,-305,488,429,-68,-317,-478,-424
-297,-458,-161,378,-68,-309,502,419,-53,-331,-522,-492
-283,-448,-165,366,-58,-307,541,444,-39,-346,-536,-522
-297,-478,-180,387,-58,-329,566,463,-34,-341,-531,-541
-302,-478,-175,390,-63,-326,575,483,-24,-341,-546,-546
-307,-483,-175,395,-65,-329,590,502,-24,-341,-551,-551
-307,-497,-190,402,-58,-344,605,527,-19,-341,-551,-546
-302,-473,-170,387,-65,-322,619,556,-4,-326,-536,-531
-292,-463,-170,378,-61,-317,634,570,9,-317,-531,-531
-287,-458,-170,373,-58,-314,649,590,24,-312,-536,-531
-278,-453,-175,366,-51,-314,663,600,39,-312,-536,-541
-287,-473,-185,380,-51,-329,683,610,24,-326,-556,-556
-292,-492,-200,392,-46,-346,697,614,24,-331,-570,-566
-302,-522,-219,412,-41,-370,717,634,29,-336,-575,-575
-312,-541,-229,427,-41,-385,732,649,24,-356,-585,-595
-317,-527,-209,422,-53,-368,746,663,14,-366,-605,-610
-322,-517,-195,419,-63,-356,761,678,24,-366,-614,-614
-326,-512,-185,419,-70,-348,780,697,24,-370,-624,-614
-336,-512,-175,424,-80,-344,795,702,29,-375,-629,-619
-322,-507,-185,414,-68,-346,824,727,39,-380,-624,-614
-312,-507,-195,409,-58,-351,844,741,43,-385,-644,-629
-312,-517,-204,414,-53,-361,863,756,48,-390,-653,-644
-312,-517,-204,414,-53,-361,888,780,48,-395,-668,-658
-302,-531,-229,417,-36,-380,922,805,58,-395,-658,-658
-317,-536,-219,427,-48,-378,946,824,63,-390,-663,-658
-322,-546,-224,434,-48,-385,971,844,68,-395,-668,-658
-326,-575,-248,451,-39,-412,995,873,73,-395,-673,-668
-336,-575,-239,456,-48,-407,1005,873,87,-405,-702,-697
-336,-580,-244,458,-46,-412,1024,893,92,-419,-722,-717
-336,-590,-253,463,-41,-422,1049,912,102,-439,-741,-736
-341,-600,-258,470,-41,-429,1068,932,107,-453,-761,-761
-351,-610,-258,480,-46,-434,1078,946,92,-463,-771,-766
-361,-614,-253,488,-53,-434,1088,951,82,-478,-795,-785
-375,-629,-253,502,-61,-441,1102,971,78,-488,-805,-805
-375,-639,-263,507,-56,-451,1112,980,87,-488,-819,-819
-390,-653,-263,522,-63,-458,1137,1000,102,-502,-834,-844
-390,-663,-273,527,-58,-468,1151,1010,117,-512,-849,-863
-390,-668,-278,529,-56,-473,1166,1029,122,-517,-868,-878
-395,-688,-292,541,-51,-490,1166,1049,136,-522,-878,-897
-405,-717,-312,561,-46,-514,1190,1063,131,-512,-893,-912
-400,-727,-326,563,-36,-527,1195,1078,141,-512,-897,-922
-390,-727,-336,558,-26,-531,1200,1098,151,-512,-897,-927
-385,-732,-346,558,-19,-539,1205,1117,165,-507,-897,-936
-395,-741,-346,568,-24,-544,1205,1112,180,-517,-917,-956
-395,-736,-341,566,-26,-539,1200,1122,200,-517,-927,-971
-395,-732,-336,563,-29,-534,1190,1122,214,-517,-946,-985
-395,-727,-331,561,-31,-529,1180,1122,224,-517,-956,-1000
-400,-727,-326,563,-36,-527,1190,1151,244,-497,-936,-995
-390,-732,-341,561,-24,-536,1176,1161,253,-478,-927,-995
-380,-732,-351,556,-14,-541,1171,1176,268,-458,-907,-990
-375,-732,-356,553,-9,-544,1166,1185,287,-429,-883,-980
-375,-732,-356,553,-9,-544,1146,1190,336,-400,-854,-966
-375,-732,-356,553,-9,-544,1137,1185,356,-375,-839,-956
-370,-722,-351,546,-9,-536,1117,1180,375,-351,-814,-946
-361,-712,-351,536,-4,-531,1098,1166,395,-322,-800,-936
-351,-712,-361,531,4,-536,1073,1156,390,-322,-790,-946
-351,-688,-336,519,-7,-512,1044,1137,385,-312,-780,-941
-336,-688,-351,512,7,-519,1019,1127,380,-287,-771,-932
-336,-673,-336,505,0,-505,990,1107,375,-273,-761,-927
-331,-663,-331,497,0,-497,976,1068,390,-234,-722,-883
-322,-644,-322,483,0,-483,941,1049,409,-214,-692,-849
-312,-629,-317,470,2,-473,912,1019,424,-185,-649,-819
-312,-614,-302,463,-4,-458,883,990,434,-156,-619,-785
-283,-566,-283,424,0,-424,863,961,414,-161,-595,-771
-268,-536,-268,402,0,-402,829,936,409,-141,-580,-751
-253,-517,-263,385,4,-390,790,902,400,-122,-561,-727
-248,-488,-239,368,-4,-363,766,868,390,-102,-536,-697
-239,-468,-229,353,-4,-348,741,849,400,-73,-492,-644
-219,-448,-229,334,4,-339,697,810,395,-53,-448,-600
-204,-429,-224,317,9,-326,673,775,390,-29,-409,-556
-195,-409,-214,302,9,-312,634,736,385,-9,-375,-512
-200,-385,-185,292,-7,-285,595,692,356,-14,-361,-492
-185,-366,-180,275,-2,-273,556,649,336,-9,-346,-473
-185,-341,-156,263,-14,-248,527,610,307,-9,-326,-463
-190,-326,-136,258,-26,-231,488,570,283,-9,-307,-439
-175,-297,-122,236,-26,-209,453,531,268,0,-283,-405
-161,-263,-102,212,-29,-183,429,497,248,9,-258,-375
-156,-244,-87,200,-34,-165,405,468,244,14,-229,-351
-151,-244,-92,197,-29,-168,375,434,229,19,-209,-322
-151,-234,-82,192,-34,-158,361,405,219,34,-180,-297
-151,-219,-68,185,-41,-143,336,385,200,34,-165,-273
-146,-200,-53,173,-46,-126,312,351,190,34,-156,-258
-146,-185,-39,165,-53,-112,287,326,170,29,-146,-239
-151,-170,-19,161,-65,-95,263,292,161,24,-146,-244
-151,-156,-4,153,-73,-80,253,263,141,19,-141,-229
-146,-146,0,146,-73,-73,229,234,122,14,-136,-219
-146,-136,9,141,-78,-63,214,209,97,4,-136,-214
-107,-102,4,104,-56,-48,219,200,112,24,-131,-204
-126,-122,4,124,-65,-58,204,165,48,-4,-136,-200
-122,-117,4,119,-63,-56,190,151,14,-19,-141,-180
-107,-97,9,102,-58,-43,165,136,19,-29,-136,-175
-117,-87,29,102,-73,-29,165,131,29,-24,-122,-170
-126,-87,39,107,-82,-24,165,126,29,-19,-117,-165
-136,-87,48,112,-92,-19,165,122,29,-14,-112,-161
-146,-87,58,117,-102,-14,165,117,29,-9,-107,-156
-126,-68,58,97,-92,-4,175,102,4,-19,-112,-151
-122,-53,68,87,-95,7,175,87,-9,-24,-112,-141
-117,-39,78,78,-97,19,175,73,-19,-34,-112,-136
-112,-14,97,63,-104,41,180,58,-34,-43,-107,-131
-107,-4,102,56,-104,48,190,68,-29,-43,-102,-117
-107,-4,102,56,-104,48,190,63,-24,-43,-97,-107
-112,-4,107,58,-109,51,180,53,-34,-48,-102,-102
-112,4,117,53,-114,61,180,43,-39,-53,-107,-102
-117,14,131,51,-124,73,170,29,-53,-58,-107,-117
-122,9,131,56,-126,70,170,24,-58,-68,-112,-117
-131,9,141,61,-136,75,161,14,-68,-82,-112,-122
-136,14,151,61,-143,82,161,14,-68,-92,-107,-126
-131,24,156,53,-143,90,170,19,-63,-87,-107,-117
-126,24,151,51,-139,87,175,24,-63,-87,-117,-112
-117,24,141,46,-129,82,180,24,-68,-87,-122,-112
-107,24,131,41,-119,78,175,29,-73,-82,-122,-112
-107,14,122,46,-114,68,161,9,-87,-97,-136,-122
-107,19,126,43,-117,73,136,0,-92,-112,-141,-126
-112,19,131,46,-122,75,126,-4,-102,-117,-146,-126
-112,19,131,46,-122,75,112,-4,-107,-126,-151,-131
-122,39,161,41,-141,100,97,-14,-117,-126,-165,-136
-126,48,175,39,-151,112,92,-19,-112,-126,-165,-141
-126,58,185,34,-156,122,87,-19,-112,-126,-170,-151
-126,68,195,29,-161,131,82,-24,-112,-131,-170,-156
-122,53,175,34,-148,114,78,-34,-122,-151,-170,-156
-117,53,170,31,-143,112,78,-34,-122,-151,-180,-156
-107,48,156,29,-131,102,68,-39,-126,-156,-180,-156
-97,34,131,31,-114,82,68,-39,-126,-156,-180,-156
-107,24,131,41,-119,78,68,-34,-107,-146,-161,-136
-107,24,131,41,-119,78,68,-29,-102,-136,-151,-131
-107,24,131,41,-119,78,82,-14,-87,-126,-146,-122
-107,24,131,41,-119,78,82,-4,-78,-107,-136,-112
-107,34,141,36,-124,87,87,0,-68,-97,-141,-126
-107,29,136,39,-122,82,87,4,-58,-102,-136,-131
-107,14,122,46,-114,68,92,9,-58,-107,-156,-136
-122,4,126,58,-124,65,92,4,-58,-112,-165,-141
-122,0,122,61,-122,61,97,9,-63,-122,-175,-165
-126,0,126,63,-126,63,102,14,-58,-117,-180,-185
-141,-14,126,78,-134,56,107,19,-48,-107,-180,-200
-141,-24,117,82,-129,46,112,29,-43,-107,-180,-214
-151,-43,107,97,-129,31,122,39,-34,-107,-185,-209
-170,-68,102,119,-136,17,126,39,-34,-112,-200,-224
-185,-107,78,146,-131,-14,131,43,-34,-117,-195,-229
-204,-136,68,170,-136,-34,146,48,-29,-117,-195,-229
-195,-146,48,170,-122,-48,141,53,-19,-107,-200,-239
-200,-175,24,187,-112,-75,141,63,-19,-107,-204,-258
-209,-195,14,202,-112,-90,141,63,-19,-117,-214,-273
-219,-224,-4,222,-107,-114,146,63,-19,-117,-224,-287
-209,-224,-14,217,-97,-119,165,68,-19,-131,-239,-302
-200,-224,-24,212,-87,-124,170,68,-14,-136,-244,-307
-190,-229,-39,209,-75,-134,170,68,-19,-131,-248,-307
-175,-219,-43,197,-65,-131,170,68,-24,-136,-253,-312
-180,-234,-53,207,-63,-143,156,68,-24,-146,-253,-322
-195,-229,-34,212,-80,-131,146,58,-24,-146,-253,-322
-200,-224,-24,212,-87,-124,141,58,-24,-146,-253,-322
-200,-214,-14,207,-92,-114,136,58,-19,-146,-253,-322
-209,-234,-24,222,-92,-129,136,68,-9,-131,-248,-317
-219,-244,-24,231,-97,-134,141,68,-9,-126,-244,-312
-229,-263,-34,246,-97,-148,146,68,-9,-122,-239,-307
-229,-273,-43,251,-92,-158,151,68,-9,-112,-229,-302
-224,-278,-53,251,-85,-165,146,68,-19,-117,-219,-307
-219,-283,-63,251,-78,-173,141,68,-14,-117,-214,-297
-214,-278,-63,246,-75,-170,141,58,-14,-107,-209,-297
-209,-283,-73,246,-68,-178,131,53,-19,-107,-209,-297
-185,-268,-82,226,-51,-175,126,34,-19,-97,-209,-287
-146,-229,-82,187,-31,-156,146,43,4,-78,-200,-283
-165,-209,-43,187,-61,-126,131,43,4,-73,-200,-297
-170,-185,-14,178,-78,-100,112,53,9,-87,-204,-312
-151,-151,0,151,-75,-75,112,92,19,-82,-195,-302
-126,-161,-34,143,-46,-97,126,141,34,-58,-151,-278
-126,-190,-63,158,-31,-126,146,200,68,-24,-122,-253
-131,-200,-68,165,-31,-134,200,297,136,34,-73,-219
-122,-209,-87,165,-17,-148,273,395,204,73,-43,-195
-122,-214,-92,168,-14,-153,331,419,224,87,-48,-190
-131,-234,-102,183,-14,-168,346,390,239,107,-34,-175
-131,-239,-107,185,-12,-173,331,341,248,126,-19,-175
-107,-219,-112,163,2,-165,292,283,219,126,-14,-170
-92,-200,-107,146,7,-153,209,170,185,117,0,-161
-112,-195,-82,153,-14,-139,73,9,156,122,9,-146
-161,-185,-24,173,-68,-104,-68,-122,156,151,43,-131
-170,-146,24,158,-97,-61,-253,-263,161,185,87,-102
-122,-78,43,100,-82,-17,-517,-419,161,224,131,-43
-39,43,82,-2,-61,63,-834,-570,156,278,209,48
78,200,122,-139,-21,161,-1200,-736,161,361,326,156
190,356,165,-273,12,261,-1522,-893,195,478,429,258
278,541,263,-409,7,402,-1727,-1000,273,600,556,351
341,741,400,-541,-29,570,-1849,-1049,390,746,697,453
434,927,492,-680,-29,710,-1966,-1117,473,883,829,570
536,1058,522,-797,7,790,-2083,-1205,522,990,961,702
629,1137,507,-883,61,822,-2205,-1215,595,1127,1107,834
712,1234,522,-973,95,878,-2269,-1180,722,1298,1268,961
780,1342,561,-1061,109,951,-2293,-1161,824,1454,1410,1088
805,1390,585,-1098,109,988,-2361,-1215,854,1551,1512,1166
805,1390,585,-1098,109,988,-2435,-1298,824,1581,1566,1210
814,1371,556,-1093,129,963,-2498,-1395,761,1590,1600,1254
849,1371,522,-1110,163,946,-2542,-1527,722,1620,1668,1317
868,1351,483,-1110,192,917,-2581,-1668,683,1673,1737,1371
849,1298,448,-1073,200,873,-2601,-1800,600,1673,1776,1424
839,1278,439,-1058,200,858,-2601,-1898,512,1673,1815,1483
829,1312,483,-1071,173,897,-2601,-1976,419,1664,1849,1542
795,1322,527,-1058,134,924,-2586,-2103,244,1571,1825,1556
771,1351,580,-1061,95,966,-2566,-2225,87,1493,1805,1571
766,1395,629,-1080,68,1012,-2527,-2318,9,1493,1844,1629
766,1429,663,-1098,51,1046,-2488,-2420,-102,1464,1873,1673
736,1454,717,-1095,9,1085,-2459,-2552,-283,1371,1834,1678
727,1498,771,-1112,-21,1134,-2425,-2640,-439,1298,1805,1678
692,1468,775,-1080,-41,1122,-2405,-2713,-556,1249,1805,1708
605,1385,780,-995,-87,1083,-2366,-2762,-678,1180,1800,1727
556,1356,800,-956,-122,1078,-2274,-2747,-785,1107,1786,1737
531,1351,819,-941,-143,1085,-2176,-2693,-858,1054,1766,1737
463,1288,824,-875,-180,1056,-2074,-2669,-936,976,1742,1727
400,1254,854,-827,-226,1054,-1986,-2654,-1000,897,1703,1712
385,1254,868,-819,-241,1061,-1873,-2591,-1010,839,1659,1703
366,1244,878,-805,-256,1061,-1751,-2503,-1010,795,1634,1698
297,1200,902,-749,-302,1051,-1620,-2400,-1019,741,1605,1693
244,1195,951,-719,-353,1073,-1503,-2259,-990,692,1566,1683
239,1195,956,-717,-358,1076,-1385,-2142,-995,619,1517,1673
234,1141,907,-688,-336,1024,-1288,-2034,-1044,497,1449,1649
214,1034,819,-624,-302,927,-1190,-1903,-1034,429,1400,1625
200,966,766,-583,-283,866,-1102,-1761,-985,395,1346,1566
165,922,756,-544,-295,839,-1015,-1654,-941,336,1263,1478
126,819,692,-473,-283,756,-932,-1561,-927,263,1166,1400
122,683,561,-402,-219,622,-829,-1454,-912,190,1058,1317
117,575,458,-346,-170,517,-741,-1322,-868,136,985,1268
87,492,405,-290,-158,448,-653,-1190,-834,87,932,1244
92,424,331,-258,-119,378,-570,-1078,-824,34,868,1210
117,366,248,-241,-65,307,-492,-917,-736,29,834,1161
117,239,122,-178,-2,180,-419,-771,-634,29,785,1078
117,92,-24,-104,70,34,-361,-673,-590,9,707,980
117,19,-97,-68,107,-39,-283,-566,-502,19,678,917
117,-19,-136,-48,126,-78,-200,-448,-409,48,663,873
112,-82,-195,-14,153,-139,-151,-361,-385,9,575,775
112,-175,-287,31,200,-231,-97,-268,-356,-43,453,658
112,-253,-366,70,239,-309,-14,-151,-287,-58,380,570
112,-278,-390,82,251,-334,58,-43,-204,-39,331,497
73,-302,-375,114,224,-339,102,19,-180,-78,248,366
43,-317,-361,136,202,-339,141,53,-190,-156,107,214
39,-312,-351,136,195,-331,185,82,-195,-229,-34,58
34,-297,-331,131,183,-314,224,102,-185,-283,-151,-92
4,-297,-302,146,153,-300,263,117,-180,-322,-263,-204
-39,-322,-283,180,122,-302,326,165,-175,-341,-331,-292
-63,-361,-297,212,117,-329,395,239,-131,-341,-356,-351
-78,-380,-302,229,112,-341,429,292,-92,-351,-395,-429
-107,-400,-292,253,92,-346,448,317,-107,-385,-458,-502
-122,-405,-283,263,80,-344,468,341,-97,-405,-497,-561
-102,-380,-278,241,87,-329,502,380,-53,-380,-502,-590
-126,-390,-263,258,68,-326,531,395,-39,-375,-517,-600
-146,-444,-297,295,75,-370,541,400,-43,-370,-512,-614
-165,-458,-292,312,63,-375,546,405,-34,-370,-527,-614
-185,-478,-292,331,53,-385,556,409,-34,-370,-531,-614
-200,-507,-307,353,53,-407,566,419,-29,-370,-531,-605
-195,-488,-292,341,48,-390,570,434,-29,-385,-546,-614
-195,-483,-287,339,46,-385,575,444,-29,-395,-551,-629
-200,-483,-283,341,41,-383,580,458,-29,-409,-566,-644
-200,-483,-283,341,41,-383,585,463,-29,-429,-575,-668
-190,-488,-297,339,53,-392,605,463,-29,-424,-590,-668
-185,-492,-307,339,61,-400,619,468,-24,-419,-600,-673
-185,-507,-322,346,68,-414,639,488,-14,-414,-600,-678
-185,-512,-326,348,70,-419,653,502,-14,-424,-605,-692
-195,-512,-317,353,61,-414,678,531,-9,-414,-614,-688
-195,-507,-312,351,58,-409,702,561,4,-414,-614,-692
-195,-507,-312,351,58,-409,732,595,9,-419,-614,-692
-200,-512,-312,356,56,-412,756,614,19,-424,-610,-697
-200,-536,-336,368,68,-436,785,629,19,-439,-619,-712
-195,-546,-351,370,78,-448,805,634,24,-444,-644,-727
-200,-566,-366,383,82,-466,824,639,29,-448,-658,-741
-204,-575,-370,390,82,-473,849,653,29,-453,-678,-756
-200,-566,-366,383,82,-466,873,668,34,-463,-668,-756
-209,-566,-356,387,73,-461,888,688,34,-468,-683,-766
-209,-570,-361,390,75,-466,902,707,34,-483,-697,-775
-209,-595,-385,402,87,-490,917,736,34,-492,-712,-795
-219,-605,-385,412,82,-495,951,756,48,-497,-727,-819
-219,-610,-390,414,85,-500,976,775,53,-507,-741,-834
-219,-619,-400,419,90,-509,1005,795,63,-522,-756,-849
-224,-629,-405,427,90,-517,1029,814,68,-531,-771,-868
-219,-624,-405,422,92,-514,1044,839,68,-531,-780,-873
-224,-624,-400,424,87,-512,1058,854,63,-546,-805,-893
-234,-634,-400,434,82,-517,1078,883,63,-556,-814,-912
-229,-639,-409,434,90,-524,1093,902,78,-556,-829,-927
-244,-658,-414,451,85,-536,1098,917,92,-570,-849,-941
-253,-673,-419,463,82,-546,1112,922,107,-580,-858,-961
-263,-683,-419,473,78,-551,1127,936,112,-585,-873,-976
-278,-707,-429,492,75,-568,1127,951,126,-590,-878,-995
-292,-746,-453,519,80,-600,1132,956,122,-580,-893,-1000
-292,-756,-463,524,85,-610,1137,971,131,-580,-897,-1010
-287,-756,-468,522,90,-612,1141,990,141,-580,-897,-1015
-287,-761,-473,524,92,-617,1146,1010,156,-575,-897,-1024
-287,-775,-488,531,100,-631,1166,1034,180,-570,-907,-1039
-287,-775,-488,531,100,-631,1171,1054,209,-556,-907,-1049
-287,-775,-488,531,100,-631,1171,1063,234,-541,-917,-1058
-287,-775,-488,531,100,-631,1171,1073,253,-527,-917,-1068
-287,-775,-488,531,100,-631,1161,1083,258,-517,-917,-1068
-283,-780,-497,531,107,-639,1146,1083,263,-507,-917,-1073
-278,-780,-502,529,112,-641,1141,1088,273,-497,-907,-1073
-278,-780,-502,529,112,-641,1137,1088,287,-478,-893,-1068
-287,-775,-488,531,100,-631,1117,1083,312,-463,-888,-1068
-287,-771,-483,529,97,-627,1107,1078,326,-444,-878,-1063
-283,-756,-473,519,95,-614,1088,1073,341,-424,-858,-1058
-273,-741,-468,507,97,-605,1068,1058,356,-400,-849,-1054
-273,-741,-468,507,97,-605,1049,1044,356,-390,-814,-1039
-273,-717,-444,495,85,-580,1024,1029,366,-370,-790,-1019
-258,-717,-458,488,100,-588,1005,1024,375,-336,-766,-995
-258,-702,-444,480,92,-573,980,1010,385,-312,-741,-976
-239,-673,-434,456,97,-553,966,990,400,-278,-702,-946
-224,-653,-429,439,102,-541,932,971,409,-263,-683,-917
-209,-639,-429,424,109,-534,902,941,414,-239,-649,-893
-204,-624,-419,414,107,-522,873,912,414,-214,-629,-863
-180,-580,-400,380,109,-490,849,883,409,-195,-595,-834
-161,-546,-385,353,112,-466,819,858,409,-170,-570,-810
-141,-522,-380,331,119,-451,785,824,405,-146,-541,-780
-131,-488,-356,309,112,-422,766,790,400,-122,-507,-746
-146,-488,-341,317,97,-414,727,756,390,-117,-483,-732
-141,-468,-326,305,92,-397,678,712,375,-112,-458,-707
-141,-448,-307,295,82,-378,649,673,361,-102,-439,-683
-146,-429,-283,287,68,-356,605,629,346,-97,-424,-658
-136,-395,-258,265,61,-326,575,595,336,-78,-390,-614
-117,-375,-258,246,70,-317,546,561,326,-58,-356,-580
-112,-351,-239,231,63,-295,527,531,307,-43,-317,-556
-112,-336,-224,224,56,-280,497,502,292,-29,-278,-517
-117,-317,-200,217,41,-258,458,458,263,-43,-283,-497
-102,-283,-180,192,39,-231,429,419,239,-39,-268,-473
-97,-263,-165,180,34,-214,400,385,229,-39,-248,-453
-92,-263,-170,178,39,-217,366,346,209,-39,-239,-429
-87,-268,-180,178,46,-224,351,302,190,-39,-219,-405
-92,-258,-165,175,36,-212,326,278,161,-43,-204,-380
-92,-244,-151,168,29,-197,302,239,141,-48,-195,-366
-97,-234,-136,165,19,-185,278,209,112,-58,-185,-346
-73,-214,-141,143,34,-178,253,190,97,-68,-190,-341
-63,-195,-131,129,34,-163,244,165,82,-68,-180,-326
-48,-180,-131,114,41,-156,219,141,68,-68,-170,-317
-39,-165,-126,102,43,-146,204,122,48,-73,-165,-312
-58,-170,-112,114,26,-141,190,112,63,-63,-151,-273
-78,-190,-112,134,17,-151,165,78,19,-82,-156,-258
-63,-165,-102,114,19,-134,161,63,-4,-97,-141,-258
-48,-146,-97,97,24,-122,146,48,-9,-97,-126,-244
-39,-131,-92,85,26,-112,136,39,-19,-87,-117,-239
-39,-126,-87,82,24,-107,136,29,-19,-87,-117,-234
-39,-122,-82,80,21,-102,136,19,-19,-87,-117,-229
-39,-117,-78,78,19,-97,136,9,-19,-87,-117,-224
-39,-92,-53,65,7,-73,126,-9,-39,-97,-122,-219
-43,-82,-39,63,-2,-61,126,-19,-48,-102,-122,-209
-48,-73,-24,61,-12,-48,126,-29,-53,-112,-122,-204
-53,-53,0,53,-26,-26,131,-39,-63,-122,-117,-200
-58,-43,14,51,-36,-14,141,-29,-63,-122,-117,-200
-58,-43,14,51,-36,-14,141,-34,-63,-122,-117,-195
-63,-43,19,53,-41,-12,131,-43,-78,-126,-126,-195
-63,-34,29,48,-46,-2,131,-53,-87,-131,-136,-200
-53,-9,43,31,-48,17,122,-58,-102,-146,-146,-209
-53,-9,43,31,-48,17,122,-63,-107,-156,-151,-204
-58,-4,53,31,-56,24,112,-73,-117,-170,-151,-204
-58,4,63,26,-61,34,112,-73,-117,-180,-146,-204
-53,4,58,24,-56,31,112,-73,-112,-175,-136,-200
-48,4,53,21,-51,29,107,-73,-112,-175,-146,-190
-39,4,43,17,-41,24,102,-78,-117,-175,-151,-185
-29,4,34,12,-31,19,87,-78,-122,-170,-151,-180
-14,9,24,2,-19,17,78,-87,-122,-170,-151,-180
-9,19,29,-4,-19,24,58,-97,-122,-180,-151,-185
-9,24,34,-7,-21,29,53,-102,-126,-180,-151,-185
-4,29,34,-12,-19,31,43,-102,-126,-185,-151,-190
-14,19,34,-2,-24,26,43,-107,-136,-185,-146,-185
-19,19,39,0,-29,29,43,-107,-131,-185,-146,-180
-19,19,39,0,-29,29,43,-102,-131,-185,-151,-180
-19,19,39,0,-29,29,43,-102,-131,-190,-151,-175
-19,19,39,0,-29,29,39,-107,-136,-190,-161,-185
-19,24,43,-2,-31,34,39,-102,-131,-190,-170,-185
-14,24,39,-4,-26,31,29,-102,-131,-195,-170,-185
-9,14,24,-2,-17,19,29,-97,-126,-195,-170,-185
-19,14,34,2,-26,24,24,-107,-126,-195,-170,-195
-19,14,34,2,-26,24,19,-107,-131,-195,-170,-200
-19,14,34,2,-26,24,29,-97,-126,-195,-175,-200
-19,14,34,2,-26,24,24,-92,-126,-185,-175,-200
-19,24,43,-2,-31,34,43,-63,-102,-161,-161,-195
-19,19,39,0,-29,29,48,-53,-87,-161,-146,-190
-19,4,24,7,-21,14,58,-43,-82,-161,-156,-185
-34,-4,29,19,-31,12,63,-43,-78,-161,-156,-180
-24,0,24,12,-24,12,68,-48,-82,-170,-156,-175
-29,0,29,14,-29,14,73,-43,-78,-165,-161,-185
-43,-14,29,29,-36,7,78,-39,-68,-156,-161,-190
-43,-24,19,34,-31,-2,82,-29,-63,-156,-161,-195
-58,-34,24,46,-41,-4,82,-19,-73,-165,-180,-209
-73,-48,24,61,-48,-12,87,-19,-73,-170,-200,-234
-82,-78,4,80,-43,-36,92,-14,-73,-175,-200,-248
-97,-97,0,97,-48,-48,107,-9,-68,-175,-204,-258
-112,-122,-9,117,-51,-65,102,-4,-58,-185,-219,-278
-122,-156,-34,139,-43,-95,102,4,-58,-185,-224,-297
-136,-180,-43,158,-46,-112,102,4,-58,-195,-234,-312
-151,-214,-63,183,-43,-139,107,4,-58,-195,-244,-326
-131,-209,-78,170,-26,-143,122,14,-53,-185,-253,-331
-122,-214,-92,168,-14,-153,131,19,-43,-185,-253,-336
-112,-224,-112,168,0,-168,136,24,-43,-175,-253,-336
-97,-219,-122,158,12,-170,141,29,-43,-175,-253,-341
-117,-248,-131,183,7,-190,141,39,-43,-185,-263,-341
-136,-258,-122,197,-7,-190,136,29,-43,-185,-263,-341
-146,-268,-122,207,-12,-195,136,29,-43,-185,-263,-341
-151,-273,-122,212,-14,-197,136,29,-39,-185,-263,-341
-141,-273,-131,207,-4,-202,126,29,-48,-185,-253,-341
-141,-273,-131,207,-4,-202,131,29,-48,-185,-253,-341
-141,-283,-141,212,0,-212,136,29,-48,-185,-253,-341
-131,-283,-151,207,9,-217,141,29,-48,-180,-248,-341
-141,-283,-141,212,0,-212,136,34,-43,-165,-239,-346
-141,-283,-141,212,0,-212,131,39,-34,-165,-234,-336
-141,-273,-131,207,-4,-202,131,34,-29,-156,-229,-336
-141,-273,-131,207,-4,-202,122,34,-29,-156,-229,-336
-146,-287,-141,217,-2,-214,117,24,-39,-165,-229,-336
-156,-287,-131,222,-12,-209,97,14,-34,-165,-229,-331
-146,-287,-141,217,-2,-214,102,24,-24,-141,-219,-317
-131,-292,-161,212,14,-226,102,43,0,-126,-204,-312
-102,-268,-165,185,31,-217,92,63,0,-122,-204,-312
-97,-239,-141,168,21,-190,97,82,14,-107,-190,-297
-107,-229,-122,168,7,-175,126,141,48,-73,-161,-273
-112,-239,-126,175,7,-183,180,219,97,-43,-131,-248
-92,-239,-146,165,26,-192,253,317,156,-14,-112,-244
-73,-244,-170,158,48,-207,302,390,185,9,-87,-229
-82,-244,-161,163,39,-202,336,390,200,29,-82,-224
-92,-239,-146,165,26,-192,341,341,219,39,-58,-204
-87,-248,-161,168,36,-204,331,312,219,58,-43,-190
-92,-268,-175,180,41,-222,268,239,214,68,-29,-170
-73,-234,-161,153,43,-197,151,97,185,82,-19,-165
-34,-156,-122,95,43,-139,19,-53,165,102,4,-141
-24,-126,-102,75,39,-114,-126,-214,131,107,29,-122
-43,-126,-82,85,19,-104,-351,-380,102,117,53,-102
-19,-63,-43,41,12,-53,-619,-522,126,170,122,-48
48,63,14,-56,17,39,-995,-678,151,273,209,39
122,248,126,-185,-2,187,-1385,-883,136,341,312,141
209,463,253,-336,-21,358,-1659,-1019,175,444,439,253
292,663,370,-478,-39,517,-1781,-1049,302,619,610,405
375,868,492,-622,-58,680,-1869,-1078,434,795,780,551
458,1039,580,-749,-61,810,-1995,-1156,512,932,922,673
541,1146,605,-844,-31,875,-2117,-1176,605,1078,1068,795
634,1185,551,-910,41,868,-2191,-1141,722,1239,1220,922
702,1244,541,-973,80,893,-2225,-1122,795,1356,1342,1029
727,1322,595,-1024,65,958,-2283,-1166,814,1444,1444,1117
756,1322,566,-1039,95,944,-2357,-1210,844,1532,1537,1200
805,1312,507,-1058,148,910,-2400,-1268,858,1600,1620,1293
819,1312,492,-1066,163,902,-2435,-1361,849,1649,1698,1356
790,1293,502,-1041,143,897,-2474,-1483,790,1673,1737,1400
761,1268,507,-1015,126,888,-2522,-1625,717,1664,1756,1415
800,1259,458,-1029,170,858,-2552,-1761,629,1664,1776,1454
829,1293,463,-1061,183,878,-2552,-1849,556,1673,1820,1512
795,1293,497,-1044,148,895,-2527,-1927,468,1649,1844,1556
722,1273,551,-997,85,912,-2518,-2039,312,1581,1834,1561
668,1278,610,-973,29,944,-2498,-2161,165,1522,1815,1581
668,1302,634,-985,17,968,-2488,-2264,43,1483,1825,1625
658,1307,649,-983,4,978,-2469,-2376,-97,1439,1825,1659
639,1322,683,-980,-21,1002,-2444,-2483,-234,1376,1825,1678
634,1361,727,-997,-46,1044,-2415,-2566,-361,1327,1834,1698
624,1376,751,-1000,-63,1063,-2376,-2644,-492,1259,1820,1727
575,1327,751,-951,-87,1039,-2303,-2679,-629,1185,1805,1727
522,1273,751,-897,-114,1012,-2215,-2644,-712,1122,1795,1747
483,1268,785,-875,-151,1027,-2122,-2610,-780,1063,1771,1756
448,1283,834,-866,-192,1058,-2025,-2605,-873,985,1751,1761
424,1283,858,-854,-217,1071,-1932,-2581,-932,917,1727,1761
366,1234,868,-800,-251,1051,-1839,-2542,-980,844,1664,1737
307,1180,873,-744,-283,1027,-1747,-2498,-1019,751,1595,1703
263,1176,912,-719,-324,1044,-1639,-2386,-1029,673,1556,1683
209,1156,946,-683,-368,1051,-1522,-2249,-1005,629,1517,1683
165,1122,956,-644,-395,1039,-1415,-2152,-1015,546,1468,1659
146,1063,917,-605,-385,990,-1327,-2059,-1073,439,1400,1625
141,1005,863,-573,-361,934,-1220,-1937,-1093,366,1346,1605
107,902,795,-505,-344,849,-1122,-1810,-1058,326,1312,1576
58,780,722,-419,-331,751,-1029,-1688,-1024,283,1244,1517
53,722,668,-387,-307,695,-946,-1600,-1000,219,1156,1454
78,673,595,-375,-258,634,-868,-1478,-966,156,1073,1385
58,561,502,-309,-222,531,-771,-1346,-922,87,980,1312
43,463,419,-253,-187,441,-668,-1205,-883,34,907,1249
19,395,375,-207,-178,385,-580,-1083,-844,0,844,1200
0,297,297,-148,-148,297,-488,-946,-790,-29,785,1137
9,209,200,-109,-95,204,-409,-810,-707,-29,736,1078
48,156,107,-102,-29,131,-331,-683,-610,-9,717,1024
58,68,9,-63,24,39,-258,-556,-517,9,683,951
43,-34,-78,-4,61,-56,-190,-429,-434,19,634,873
34,-107,-141,36,87,-124,-117,-326,-385,-4,531,756
14,-175,-190,80,102,-183,-63,-229,-356,-58,409,629
14,-239,-253,112,134,-246,9,-141,-312,-97,322,527
14,-283,-297,134,156,-290,73,-48,-268,-117,248,434
-24,-307,-283,165,129,-295,141,24,-229,-136,165,312
-48,-312,-263,180,107,-287,185,82,-204,-180,63,175
-63,-297,-234,180,85,-265,244,122,-185,-234,-43,43
-102,-317,-214,209,56,-265,292,146,-170,-283,-165,-97
-146,-341,-195,244,24,-268,326,165,-185,-351,-292,-234
-151,-331,-180,241,14,-256,356,200,-180,-380,-366,-331
-146,-341,-195,244,24,-268,400,253,-151,-390,-405,-390
-165,-380,-214,273,24,-297,448,297,-126,-405,-448,-453
-180,-414,-234,297,26,-324,478,331,-107,-405,-488,-512
-190,-409,-219,300,14,-314,492,351,-102,-409,-512,-561
-214,-419,-204,317,-4,-312,502,366,-97,-405,-527,-590
-234,-448,-214,341,-9,-331,522,380,-87,-409,-541,-614
-244,-448,-204,346,-19,-326,536,395,-73,-409,-556,-624
-253,-453,-200,353,-26,-326,556,409,-68,-409,-561,-634
-258,-468,-209,363,-24,-339,575,429,-58,-409,-561,-634
-268,-463,-195,366,-36,-329,590,448,-53,-405,-561,-634
-273,-463,-190,368,-41,-326,605,463,-48,-405,-561,-639
-283,-468,-185,375,-48,-326,619,483,-43,-409,-570,-644
-287,-473,-185,380,-51,-329,634,492,-39,-419,-575,-658
-278,-478,-200,378,-39,-339,644,502,-39,-409,-580,-668
-273,-483,-209,378,-31,-346,658,507,-34,-409,-590,-673
-273,-497,-224,385,-24,-361,678,527,-24,-409,-590,-678
-273,-502,-229,387,-21,-366,692,541,-24,-424,-595,-692
-278,-512,-234,395,-21,-373,722,551,-24,-434,-619,-697
-283,-517,-234,400,-24,-375,741,570,-14,-434,-624,-702
-287,-527,-239,407,-24,-383,766,595,-14,-439,-629,-702
-297,-541,-244,419,-26,-392,785,605,-9,-444,-629,-707
-292,-546,-253,419,-19,-400,795,629,-9,-448,-634,-722
-292,-546,-253,419,-19,-400,814,644,-4,-453,-653,-736
-302,-556,-253,429,-24,-405,834,658,0,-458,-663,-751
-312,-556,-244,434,-34,-400,858,683,0,-463,-678,-766
-302,-541,-239,422,-31,-390,893,697,14,-473,-678,-766
-307,-536,-229,422,-39,-383,917,717,14,-478,-692,-775
-302,-536,-234,419,-34,-385,941,736,14,-492,-707,-785
-297,-556,-258,427,-19,-407,966,766,14,-502,-722,-805
-312,-566,-253,439,-29,-409,976,766,9,-507,-736,-819
-317,-570,-253,444,-31,-412,995,785,14,-517,-751,-834
-322,-580,-258,451,-31,-419,1019,805,24,-531,-766,-849
-331,-590,-258,461,-36,-424,1039,824,29,-541,-780,-868
-351,-619,-268,485,-41,-444,1054,854,39,-541,-795,-873
-361,-634,-273,497,-43,-453,1068,863,34,-556,-814,-893
-375,-658,-283,517,-46,-470,1088,888,34,-566,-819,-912
-375,-678,-302,527,-36,-490,1102,902,48,-566,-829,-927
-370,-692,-322,531,-24,-507,1107,912,43,-570,-849,-941
-370,-702,-331,536,-19,-517,1122,922,58,-580,-858,-961
-370,-707,-336,539,-17,-522,1137,941,63,-585,-873,-976
-375,-727,-351,551,-12,-539,1137,961,78,-590,-878,-995
-400,-746,-346,573,-26,-546,1161,976,73,-600,-907,-1015
-400,-746,-346,573,-26,-546,1166,990,82,-600,-917,-1029
-395,-736,-341,566,-26,-539,1171,1010,92,-600,-922,-1039
-395,-732,-336,563,-29,-534,1176,1029,107,-595,-927,-1054
-400,-756,-356,578,-21,-556,1195,1054,136,-585,-927,-1049
-395,-756,-361,575,-17,-558,1200,1073,161,-575,-927,-1058
-390,-756,-366,573,-12,-561,1200,1083,180,-566,-936,-1068
-385,-756,-370,570,-7,-563,1200,1093,195,-556,-936,-1078
-380,-756,-375,568,-2,-566,1210,1117,219,-531,-932,-1068
-370,-761,-390,566,9,-575,1195,1122,234,-517,-927,-1073
-361,-761,-400,561,19,-580,1190,1132,253,-502,-912,-1073
-356,-761,-405,558,24,-583,1185,1137,278,-478,-893,-1068
-370,-766,-395,568,12,-580,1166,1137,307,-468,-883,-1063
-375,-761,-385,568,4,-573,1156,1137,317,-453,-878,-1063
-375,-746,-370,561,-2,-558,1137,1137,326,-439,-863,-1063
-370,-732,-361,551,-4,-546,1117,1127,336,-419,-858,-1063
-361,-736,-375,549,7,-556,1102,1122,356,-395,-824,-1044
-361,-717,-356,539,-2,-536,1083,1107,366,-370,-800,-1029
-346,-722,-375,534,14,-549,1068,1102,375,-331,-775,-1010
-346,-712,-366,529,9,-539,1049,1088,385,-302,-751,-995
-322,-683,-361,502,19,-522,1015,1068,400,-278,-722,-961
-312,-653,-341,483,14,-497,980,1049,409,-263,-702,-936
-302,-629,-326,466,12,-478,951,1019,414,-239,-668,-917
-302,-605,-302,453,0,-453,922,990,414,-214,-649,-893
-292,-575,-283,434,-4,-429,907,966,419,-200,-605,-854
-278,-556,-278,417,0,-417,878,946,419,-170,-580,-829
-263,-546,-283,405,9,-414,844,917,414,-141,-551,-800
-258,-527,-268,392,4,-397,824,888,409,-112,-517,-766
-263,-517,-253,390,-4,-385,780,849,405,-97,-488,-746
-248,-497,-248,373,0,-373,736,810,395,-92,-458,-717
-239,-478,-239,358,0,-358,712,775,385,-82,-434,-688
-234,-458,-224,346,-4,-341,673,736,375,-78,-414,-658
-244,-429,-185,336,-29,-307,639,697,346,-82,-395,-639
-224,-405,-180,314,-21,-292,605,658,336,-68,-375,-610
-219,-375,-156,297,-31,-265,580,624,317,-58,-351,-590
-219,-356,-136,287,-41,-246,546,590,302,-48,-326,-556
-224,-351,-126,287,-48,-239,502,551,278,-48,-317,-527
-209,-322,-112,265,-48,-217,478,517,258,-39,-297,-502
-204,-307,-102,256,-51,-204,453,488,253,-34,-273,-483
-200,-312,-112,256,-43,-212,424,453,239,-29,-258,-458
-185,-302,-117,244,-34,-209,409,419,224,-19,-229,-424
-180,-287,-107,234,-36,-197,385,395,200,-24,-214,-400
-170,-268,-97,219,-36,-183,361,356,185,-29,-204,-385
-165,-253,-87,209,-39,-170,336,326,161,-39,-195,-366
-151,-239,-87,195,-31,-163,317,292,131,-48,-195,-361
-151,-224,-73,187,-39,-148,302,263,112,-48,-190,-346
-146,-214,-68,180,-39,-141,273,234,92,-48,-185,-336
-146,-204,-58,175,-43,-131,253,209,68,-53,-185,-331
-107,-190,-82,148,-12,-136,200,161,43,-63,-180,-331
-117,-170,-53,143,-31,-112,195,156,39,-63,-165,-307
-126,-156,-29,141,-48,-92,195,146,39,-58,-146,-283
-136,-141,-4,139,-65,-73,200,146,39,-53,-131,-263
-136,-136,0,136,-68,-68,204,146,39,-48,-126,-253
-136,-131,4,134,-70,-63,209,146,39,-43,-122,-244
-136,-126,9,131,-73,-58,214,146,39,-39,-117,-234
-136,-112,24,124,-80,-43,209,122,24,-53,-122,-229
-141,-102,39,122,-90,-31,204,107,9,-53,-122,-219
-146,-92,53,119,-100,-19,200,92,0,-58,-122,-214
-151,-73,78,112,-114,2,200,78,-14,-63,-117,-209
-131,-63,68,97,-100,2,200,87,-14,-58,-107,-204
-126,-53,73,90,-100,9,200,82,-14,-63,-107,-195
-126,-43,82,85,-104,19,190,73,-29,-73,-117,-190
-122,-24,97,73,-109,36,190,63,-39,-82,-126,-190
-122,0,122,61,-122,61,185,43,-53,-92,-117,-190
-122,0,122,61,-122,61,180,34,-58,-97,-122,-185
-126,4,131,61,-129,68,165,19,-68,-107,-122,-185
-126,14,141,56,-134,78,161,14,-68,-112,-117,-185
-122,19,141,51,-131,80,156,4,-78,-122,-126,-185
-117,14,131,51,-124,73,146,4,-82,-126,-136,-180
