I,II,III,aVR,aVL,aVF,V1,V2,V3,V4,V5,V6
-361,-244,117,302,-239,-63,732,1093,1259,-126,-1483,-1376
-361,-244,117,302,-239,-63,732,1093,1259,-126,-1483,-1376
-361,-244,117,302,-239,-63,732,1093,1259,-126,-1483,-1376
-361,-244,117,302,-239,-63,732,1093,1259,-126,-1483,-1376
-346,-234,112,290,-229,-61,722,1073,1224,-156,-1361,-1249
-341,-224,117,283,-229,-53,722,1063,1200,-185,-1239,-1132
-336,-214,122,275,-229,-46,722,1054,1176,-214,-1117,-1015
-331,-204,126,268,-229,-39,722,1044,1151,-244,-995,-897
-302,-190,112,246,-207,-39,673,961,1068,-292,-941,-839
-283,-175,107,229,-195,-34,624,888,995,-341,-897,-780
-263,-161,102,212,-183,-29,575,814,922,-390,-854,-722
-244,-146,97,195,-170,-24,527,741,849,-439,-810,-663
-258,-146,112,202,-185,-17,536,722,814,-468,-766,-610
-263,-146,117,204,-190,-14,536,702,790,-497,-732,-566
-268,-146,122,207,-195,-12,536,683,766,-527,-697,-522
-273,-146,126,209,-200,-9,536,663,741,-556,-663,-478
-263,-141,122,202,-192,-9,585,688,717,-566,-639,-453
-263,-136,126,200,-195,-4,624,712,692,-575,-614,-439
-263,-131,131,197,-197,0,663,736,668,-585,-590,-424
-263,-126,136,195,-200,4,702,761,644,-595,-566,-409
-273,-131,141,202,-207,4,732,741,546,-619,-546,-375
-273,-136,136,204,-204,0,751,732,458,-644,-527,-351
-273,-141,131,207,-202,-4,771,722,370,-668,-507,-326
-273,-146,126,209,-200,-9,790,712,283,-692,-488,-302
-263,-161,102,212,-183,-29,805,688,190,-702,-468,-292
-263,-175,87,219,-175,-43,819,663,107,-712,-458,-283
-263,-190,73,226,-168,-58,834,639,24,-722,-448,-273
-263,-204,58,234,-161,-73,849,614,-58,-732,-439,-263
-248,-224,24,236,-136,-100,790,575,-117,-722,-409,-234
-244,-234,9,239,-126,-112,732,536,-165,-712,-380,-204
-239,-244,-4,241,-117,-124,673,497,-214,-702,-351,-175
-234,-253,-19,244,-107,-136,614,458,-263,-692,-322,-146
-209,-234,-24,222,-92,-129,527,366,-283,-644,-268,-112
-185,-214,-29,200,-78,-122,439,283,-302,-605,-224,-78
-161,-195,-34,178,-63,-114,351,200,-322,-566,-180,-43
-136,-175,-39,156,-48,-107,263,117,-341,-527,-136,-9
-122,-146,-24,134,-48,-85,180,39,-331,-488,-97,19
-107,-117,-9,112,-48,-63,107,-29,-322,-458,-58,48
-92,-87,4,90,-48,-41,34,-97,-312,-429,-19,78
-78,-58,19,68,-48,-19,-39,-165,-302,-400,19,107
-68,-48,19,58,-43,-14,-58,-175,-297,-370,48,131
-58,-39,19,48,-39,-9,-78,-185,-292,-351,68,146
-48,-29,19,39,-34,-4,-97,-195,-287,-331,87,161
-39,-19,19,29,-29,0,-117,-204,-283,-312,107,175
-24,-9,14,17,-19,2,-126,-204,-273,-302,122,190
-19,0,19,9,-19,9,-126,-204,-273,-302,126,195
-14,9,24,2,-19,17,-126,-204,-273,-302,131,200
-9,19,29,-4,-19,24,-126,-204,-273,-302,136,204
-29,4,34,12,-31,19,-146,-224,-287,-317,136,195
-39,0,39,19,-39,19,-156,-244,-302,-322,136,195
-48,-4,43,26,-46,19,-165,-263,-317,-326,136,195
-58,-9,48,34,-53,19,-175,-283,-331,-331,136,195
-58,-4,53,31,-56,24,-175,-283,-331,-322,136,204
-58,0,58,29,-58,29,-175,-283,-331,-322,136,204
-58,4,63,26,-61,34,-175,-283,-331,-322,136,204
-58,9,68,24,-63,39,-175,-283,-331,-322,136,204
-53,14,68,19,-61,41,-190,-287,-341,-331,151,204
-48,19,68,14,-58,43,-195,-292,-351,-331,156,204
-43,24,68,9,-56,46,-200,-297,-361,-331,161,204
-39,29,68,4,-53,48,-204,-302,-370,-331,165,204
-34,39,73,-2,-53,56,-195,-292,-366,-322,165,214
-29,39,68,-4,-48,53,-185,-283,-361,-322,165,214
-24,39,63,-7,-43,51,-175,-273,-356,-322,165,214
-19,39,58,-9,-39,48,-165,-263,-351,-322,165,214
-29,29,58,0,-43,43,-165,-263,-356,-331,180,214
-29,29,58,0,-43,43,-165,-263,-361,-331,185,214
-29,29,58,0,-43,43,-165,-263,-366,-331,190,214
-29,29,58,0,-43,43,-165,-263,-370,-331,195,214
-19,39,58,-9,-39,48,-170,-258,-370,-331,195,209
-19,39,58,-9,-39,48,-175,-253,-370,-331,195,204
-19,39,58,-9,-39,48,-180,-248,-370,-331,195,200
-19,39,58,-9,-39,48,-185,-244,-370,-331,195,195
-29,34,63,-2,-46,48,-209,-258,-390,-346,190,185
-29,29,58,0,-43,43,-234,-273,-400,-351,185,185
-29,24,53,2,-41,39,-258,-287,-409,-356,180,185
-29,19,48,4,-39,34,-283,-302,-419,-361,175,185
-39,9,48,14,-43,29,-292,-326,-439,-375,170,180
-39,0,39,19,-39,19,-302,-351,-458,-390,165,175
-39,-9,29,24,-34,9,-312,-375,-478,-405,161,170
-39,-19,19,29,-29,0,-322,-400,-497,-419,156,165
-34,-9,24,21,-29,7,-312,-409,-517,-434,165,165
-29,-9,19,19,-24,4,-312,-409,-527,-439,165,165
-24,-9,14,17,-19,2,-312,-409,-536,-444,165,165
-19,-9,9,14,-14,0,-312,-409,-546,-448,165,165
-29,-24,4,26,-17,-9,-302,-419,-556,-463,161,161
-29,-29,0,29,-14,-14,-302,-419,-556,-468,156,156
-29,-34,-4,31,-12,-19,-302,-419,-556,-473,151,151
-29,-39,-9,34,-9,-24,-302,-419,-556,-478,146,146
-24,-29,-4,26,-9,-17,-302,-419,-561,-483,146,146
-19,-19,0,19,-9,-9,-302,-419,-566,-488,146,146
-14,-9,4,12,-9,-2,-302,-419,-570,-492,146,146
-9,0,9,4,-9,4,-302,-419,-575,-497,146,146
-9,0,9,4,-9,4,-287,-419,-566,-488,151,146
-9,0,9,4,-9,4,-283,-419,-566,-488,156,146
-9,0,9,4,-9,4,-278,-419,-566,-488,161,146
-9,0,9,4,-9,4,-273,-419,-566,-488,165,146
0,-9,-9,4,4,-9,-263,-409,-570,-492,170,156
0,-9,-9,4,4,-9,-263,-409,-575,-497,175,165
0,-9,-9,4,4,-9,-263,-409,-580,-502,180,175
0,-9,-9,4,4,-9,-263,-409,-585,-507,185,185
9,-4,-14,-2,12,-9,-273,-419,-590,-522,175,175
9,0,-9,-4,9,-4,-273,-419,-595,-527,175,175
9,4,-4,-7,7,0,-273,-419,-600,-531,175,175
9,9,0,-9,4,4,-273,-419,-605,-536,175,175
9,0,-9,-4,9,-4,-268,-419,-605,-541,175,185
9,-9,-19,0,14,-14,-263,-419,-605,-546,175,185
9,-19,-29,4,19,-24,-258,-419,-605,-551,175,185
9,-29,-39,9,24,-34,-253,-419,-605,-556,175,185
9,-19,-29,4,19,-24,-248,-409,-600,-546,185,190
9,-19,-29,4,19,-24,-244,-409,-595,-546,185,195
9,-19,-29,4,19,-24,-239,-409,-590,-546,185,200
9,-19,-29,4,19,-24,-234,-409,-585,-546,185,204
0,-34,-34,17,17,-34,-224,-400,-575,-536,185,219
0,-39,-39,19,19,-39,-224,-400,-575,-536,185,224
0,-43,-43,21,21,-43,-224,-400,-575,-536,185,229
0,-48,-48,24,24,-48,-224,-400,-575,-536,185,234
9,-29,-39,9,24,-34,-224,-395,-556,-527,200,253
9,-19,-29,4,19,-24,-224,-390,-546,-517,204,263
9,-9,-19,0,14,-14,-224,-385,-536,-507,209,273
9,0,-9,-4,9,-4,-224,-380,-527,-497,214,283
19,9,-9,-14,14,0,-229,-370,-512,-483,224,302
29,19,-9,-24,19,4,-234,-361,-497,-478,224,312
39,29,-9,-34,24,9,-239,-351,-483,-473,224,322
48,39,-9,-43,29,14,-244,-341,-468,-468,224,331
43,29,-14,-36,29,7,-253,-336,-448,-458,234,336
39,29,-9,-34,24,9,-263,-331,-439,-448,234,341
34,29,-4,-31,19,12,-273,-326,-429,-439,234,346
29,29,0,-29,14,14,-283,-322,-419,-429,234,351
29,39,9,-34,9,24,-287,-302,-400,-419,234,356
29,48,19,-39,4,34,-292,-292,-380,-409,234,361
29,58,29,-43,0,43,-297,-283,-361,-400,234,366
29,68,39,-48,-4,53,-302,-273,-341,-390,234,370
29,58,29,-43,0,43,-292,-268,-322,-370,244,380
29,58,29,-43,0,43,-292,-263,-312,-361,244,380
29,58,29,-43,0,43,-292,-258,-302,-351,244,380
29,58,29,-43,0,43,-292,-253,-292,-341,244,380
34,63,29,-48,2,46,-283,-234,-278,-331,253,385
39,68,29,-53,4,48,-273,-224,-263,-322,253,390
43,73,29,-58,7,51,-263,-214,-248,-312,253,395
48,78,29,-63,9,53,-253,-204,-234,-302,253,400
43,68,24,-56,9,46,-239,-195,-209,-283,268,414
39,68,29,-53,4,48,-234,-195,-195,-273,273,419
34,68,34,-51,0,51,-229,-195,-180,-263,278,424
29,68,39,-48,-4,53,-224,-195,-165,-253,283,429
39,78,39,-58,0,58,-234,-190,-156,-244,292,434
39,78,39,-58,0,58,-234,-185,-146,-234,292,439
39,78,39,-58,0,58,-234,-180,-136,-224,292,444
39,78,39,-58,0,58,-234,-175,-126,-214,292,448
48,87,39,-68,4,63,-224,-156,-107,-200,297,463
48,87,39,-68,4,63,-214,-136,-87,-185,302,468
48,87,39,-68,4,63,-204,-117,-68,-170,307,473
48,87,39,-68,4,63,-195,-97,-48,-156,312,478
58,78,19,-68,19,48,-180,-82,-34,-141,307,468
58,78,19,-68,19,48,-165,-78,-29,-136,302,458
58,78,19,-68,19,48,-151,-73,-24,-131,297,448
58,78,19,-68,19,48,-136,-68,-19,-126,292,439
43,78,34,-61,4,56,-122,-53,4,-117,287,434
39,78,39,-58,0,58,-107,-39,19,-107,283,429
34,78,43,-56,-4,61,-92,-24,34,-97,278,424
29,78,48,-53,-9,63,-78,-9,48,-87,273,419
24,58,34,-41,-4,46,-63,9,68,-73,263,405
19,48,29,-34,-4,39,-58,19,78,-68,253,390
14,39,24,-26,-4,31,-53,29,87,-63,244,375
9,29,19,-19,-4,24,-48,39,97,-58,234,361
4,24,19,-14,-7,21,-34,53,117,-48,224,341
0,19,19,-9,-9,19,-29,58,126,-48,214,331
-4,14,19,-4,-12,17,-24,63,136,-48,204,322
-9,9,19,0,-14,14,-19,68,146,-48,195,312
-9,24,34,-7,-21,29,-14,82,161,-48,190,292
-9,29,39,-9,-24,34,-9,87,165,-48,185,283
-9,34,43,-12,-26,39,-4,92,170,-48,180,273
-9,39,48,-14,-29,43,0,97,175,-48,175,263
-9,29,39,-9,-24,34,0,87,165,-53,161,248
-9,29,39,-9,-24,34,0,87,156,-58,156,244
-9,29,39,-9,-24,34,0,87,146,-63,151,239
-9,29,39,-9,-24,34,0,87,136,-68,146,234
0,34,34,-17,-17,34,14,78,117,-73,131,219
0,39,39,-19,-19,39,19,78,107,-78,126,214
0,43,43,-21,-21,43,24,78,97,-82,122,209
0,48,48,-24,-24,48,29,78,87,-87,117,204
-9,63,73,-26,-41,68,39,73,68,-92,112,200
-9,68,78,-29,-43,73,39,68,58,-97,107,195
-9,73,82,-31,-46,78,39,63,48,-102,102,190
-9,78,87,-34,-48,82,39,58,39,-107,97,185
-14,68,82,-26,-48,75,29,48,19,-122,92,165
-19,68,87,-24,-53,78,19,39,9,-126,87,156
-24,68,92,-21,-58,80,9,29,0,-131,82,146
-29,68,97,-19,-63,82,0,19,-9,-136,78,136
-34,68,102,-17,-68,85,0,14,-14,-141,68,131
-39,68,107,-14,-73,87,0,9,-19,-146,68,126
-43,68,112,-12,-78,90,0,4,-24,-151,68,122
-48,68,117,-9,-82,92,0,0,-29,-156,68,117
-63,68,131,-2,-97,100,4,0,-19,-156,58,107
-68,68,136,0,-102,102,9,0,-19,-156,58,107
-73,68,141,2,-107,104,14,0,-19,-156,58,107
-78,68,146,4,-112,107,19,0,-19,-156,58,107
-63,73,136,-4,-100,104,9,0,-19,-161,53,92
-58,78,136,-9,-97,107,9,0,-19,-165,48,87
-53,82,136,-14,-95,109,9,0,-19,-170,43,82
-48,87,136,-19,-92,112,9,0,-19,-175,39,78
-58,87,146,-14,-102,117,9,0,-29,-175,39,78
-58,87,146,-14,-102,117,9,0,-29,-175,39,78
-58,87,146,-14,-102,117,9,0,-29,-175,39,78
-58,87,146,-14,-102,117,9,0,-29,-175,39,78
-48,78,126,-14,-87,102,19,9,-14,-175,43,87
-48,78,126,-14,-87,102,19,9,-9,-175,48,87
-48,78,126,-14,-87,102,19,9,-4,-175,53,87
-48,78,126,-14,-87,102,19,9,0,-175,58,87
-48,78,126,-14,-87,102,29,19,4,-165,63,92
-48,78,126,-14,-87,102,29,19,9,-165,68,97
-48,78,126,-14,-87,102,29,19,14,-165,73,102
-48,78,126,-14,-87,102,29,19,19,-165,78,107
-48,68,117,-9,-82,92,29,9,9,-170,68,117
-48,58,107,-4,-78,82,29,9,9,-175,68,117
-48,48,97,0,-73,73,29,9,9,-180,68,117
-48,39,87,4,-68,63,29,9,9,-185,68,117
-48,29,78,9,-63,53,43,19,19,-180,58,122
-48,29,78,9,-63,53,48,19,19,-175,58,126
-48,29,78,9,-63,53,53,19,19,-170,58,131
-48,29,78,9,-63,53,58,19,19,-165,58,136
-39,34,73,2,-56,53,58,29,29,-156,63,141
-39,39,78,0,-58,58,58,29,29,-156,68,146
-39,43,82,-2,-61,63,58,29,29,-156,73,151
-39,48,87,-4,-63,68,58,29,29,-156,78,156
-29,39,68,-4,-48,53,53,39,29,-146,92,165
-29,39,68,-4,-48,53,48,39,29,-146,97,175
-29,39,68,-4,-48,53,43,39,29,-146,102,185
-29,39,68,-4,-48,53,39,39,29,-146,107,195
-34,29,63,2,-48,46,29,29,24,-156,107,204
-39,29,68,4,-53,48,19,29,19,-156,107,204
-43,29,73,7,-58,51,9,29,14,-156,107,204
-48,29,78,9,-63,53,0,29,9,-156,107,204
-34,43,78,-4,-56,61,9,19,24,-151,117,209
-29,48,78,-9,-53,63,19,19,29,-146,117,214
-24,53,78,-14,-51,65,29,19,34,-141,117,219
-19,58,78,-19,-48,68,39,19,39,-136,117,224
-29,48,78,-9,-53,63,43,29,48,-141,117,224
-39,39,78,0,-58,58,48,29,48,-146,117,224
-48,29,78,9,-63,53,53,29,48,-151,117,224
-58,19,78,19,-68,48,58,29,48,-156,117,224
-48,19,68,14,-58,43,48,29,43,-170,102,214
-48,19,68,14,-58,43,48,29,39,-175,97,214
-48,19,68,14,-58,43,48,29,34,-180,92,214
-48,19,68,14,-58,43,48,29,29,-185,87,214
-48,34,82,7,-65,58,58,24,29,-175,78,214
-48,39,87,4,-68,63,58,19,29,-175,78,214
-48,43,92,2,-70,68,58,14,29,-175,78,214
-48,48,97,0,-73,73,58,9,29,-175,78,214
-53,58,112,-2,-82,85,58,-4,14,-185,68,214
-58,58,117,0,-87,87,58,-9,9,-185,68,214
-63,58,122,2,-92,90,58,-14,4,-185,68,214
-68,58,126,4,-97,92,58,-19,0,-185,68,214
-78,58,136,9,-107,97,58,-29,-14,-190,63,204
-78,58,136,9,-107,97,58,-29,-19,-195,58,195
-78,58,136,9,-107,97,58,-29,-24,-200,53,185
-78,58,136,9,-107,97,58,-29,-29,-204,48,175
-68,58,126,4,-97,92,48,-14,-29,-204,48,175
-68,58,126,4,-97,92,48,-9,-29,-204,48,175
-68,58,126,4,-97,92,48,-4,-29,-204,48,175
-68,58,126,4,-97,92,48,0,-29,-204,48,175
-68,48,117,9,-92,82,48,4,-19,-214,43,165
-68,48,117,9,-92,82,48,9,-19,-214,39,165
-68,48,117,9,-92,82,48,14,-19,-214,34,165
-68,48,117,9,-92,82,48,19,-19,-214,29,165
-68,53,122,7,-95,87,58,19,-29,-229,19,156
-68,58,126,4,-97,92,58,19,-29,-234,19,156
-68,63,131,2,-100,97,58,19,-29,-239,19,156
-68,68,136,0,-102,102,58,19,-29,-244,19,156
-73,58,131,7,-102,95,68,24,-39,-248,9,146
-78,48,126,14,-102,87,68,29,-39,-253,0,136
-82,39,122,21,-102,80,68,34,-39,-258,-9,126
-87,29,117,29,-102,73,68,39,-39,-263,-19,117
-92,9,102,41,-97,56,73,48,-39,-273,-29,126
-97,0,97,48,-97,48,78,48,-39,-273,-29,126
-102,-9,92,56,-97,41,82,48,-39,-273,-29,126
-107,-19,87,63,-97,34,87,48,-39,-273,-29,126
-102,-14,87,58,-95,36,97,53,-39,-283,-39,122
-97,-9,87,53,-92,39,97,58,-39,-283,-39,117
-92,-4,87,48,-90,41,97,63,-39,-283,-39,112
-87,0,87,43,-87,43,97,68,-39,-283,-39,107
-97,4,102,46,-100,53,107,78,-39,-283,-39,107
-97,9,107,43,-102,58,107,78,-39,-283,-39,107
-97,14,112,41,-104,63,107,78,-39,-283,-39,107
-97,19,117,39,-107,68,107,78,-39,-283,-39,107
-87,14,102,36,-95,58,107,78,-39,-283,-39,107
-87,9,97,39,-92,53,107,78,-39,-283,-39,107
-87,4,92,41,-90,48,107,78,-39,-283,-39,107
-87,0,87,43,-87,43,107,78,-39,-283,-39,107
-82,0,82,41,-82,41,107,87,-29,-283,-39,107
-78,0,78,39,-78,39,107,87,-29,-283,-39,107
-73,0,73,36,-73,36,107,87,-29,-283,-39,107
-68,0,68,34,-68,34,107,87,-29,-283,-39,107
-68,-9,58,39,-63,24,87,78,-19,-292,-48,97
-68,-9,58,39,-63,24,78,78,-19,-292,-48,97
-68,-9,58,39,-63,24,68,78,-19,-292,-48,97
-68,-9,58,39,-63,24,58,78,-19,-292,-48,97
-78,0,78,39,-78,39,48,68,-19,-287,-48,97
-78,0,78,39,-78,39,39,68,-19,-283,-48,97
-78,0,78,39,-78,39,29,68,-19,-278,-48,97
-78,0,78,39,-78,39,19,68,-19,-273,-48,97
-78,-4,73,41,-75,34,19,78,-19,-273,-48,87
-78,-9,68,43,-73,29,19,78,-19,-273,-48,87
-78,-14,63,46,-70,24,19,78,-19,-273,-48,87
-78,-19,58,48,-68,19,19,78,-19,-273,-48,87
-73,-9,63,41,-68,26,9,63,-19,-273,-48,87
-68,-9,58,39,-63,24,9,58,-19,-273,-48,87
-63,-9,53,36,-58,21,9,53,-19,-273,-48,87
-58,-9,48,34,-53,19,9,48,-19,-273,-48,87
-63,-24,39,43,-51,7,9,34,-29,-278,-58,87
-68,-29,39,48,-53,4,9,29,-29,-283,-58,87
-73,-34,39,53,-56,2,9,24,-29,-287,-58,87
-78,-39,39,58,-58,0,9,19,-29,-292,-58,87
-82,-48,34,65,-58,-7,19,29,-34,-292,-68,82
-87,-48,39,68,-63,-4,19,29,-39,-292,-68,78
-92,-48,43,70,-68,-2,19,29,-43,-292,-68,73
-97,-48,48,73,-73,0,19,29,-48,-292,-68,68
-92,-34,58,63,-75,12,29,34,-43,-287,-58,78
-87,-29,58,58,-73,14,39,39,-39,-283,-58,78
-82,-24,58,53,-70,17,48,43,-34,-278,-58,78
-78,-19,58,48,-68,19,58,48,-29,-273,-58,78
-82,-19,63,51,-73,21,63,48,-29,-283,-58,78
-87,-19,68,53,-78,24,68,48,-29,-283,-58,78
-92,-19,73,56,-82,26,73,48,-29,-283,-58,78
-97,-19,78,58,-87,29,78,48,-29,-283,-58,78
-97,-9,87,53,-92,39,87,48,-39,-273,-48,68
-97,-9,87,53,-92,39,87,48,-39,-273,-48,68
-92,-4,87,48,-90,41,87,53,-39,-268,-43,73
-92,-4,87,48,-90,41,87,53,-34,-268,-39,73
-107,-19,87,63,-97,34,87,53,-43,-283,-43,63
-107,-19,87,63,-97,34,82,53,-39,-283,-53,63
-97,-9,87,53,-92,39,82,53,-39,-283,-58,68
-97,-9,87,53,-92,39,82,53,-39,-278,-63,68
-92,-4,87,48,-90,41,92,58,-29,-273,-58,82
-87,0,87,43,-87,43,92,63,-29,-268,-53,82
-82,9,92,36,-87,51,97,63,-29,-263,-43,82
-87,14,102,36,-95,58,97,68,-29,-258,-39,87
-82,14,97,34,-90,56,82,78,-34,-263,-43,78
-68,9,78,29,-73,43,68,68,-34,-268,-48,78
-63,9,73,26,-68,41,63,68,-34,-273,-48,78
-63,4,68,29,-65,36,63,68,-29,-273,-48,68
-82,-9,73,46,-78,31,58,53,-39,-273,-48,68
-87,-14,73,51,-80,29,43,48,-48,-278,-48,68
-87,-14,73,51,-80,29,39,39,-48,-278,-53,68
-92,-19,73,56,-82,26,34,34,-43,-273,-53,68
-97,-29,68,63,-82,19,24,29,-48,-283,-58,58
-97,-34,63,65,-80,14,24,24,-58,-287,-63,58
-102,-39,63,70,-82,12,24,19,-63,-302,-68,58
-117,-43,73,80,-95,14,24,14,-68,-307,-73,58
-107,-24,82,65,-95,29,39,19,-63,-297,-63,68
-92,-14,78,53,-85,31,43,19,-58,-292,-63,68
-78,-4,73,41,-75,34,43,24,-53,-287,-63,68
-53,9,63,21,-58,36,48,24,-43,-283,-58,73
-63,4,68,29,-65,36,39,14,-43,-292,-68,73
-68,0,68,34,-68,34,39,14,-43,-302,-68,73
-73,0,73,36,-73,36,39,14,-43,-302,-68,73
-73,-4,68,39,-70,31,39,14,-43,-302,-68,73
-58,-4,53,31,-56,24,34,24,-34,-292,-63,73
-63,-4,58,34,-61,26,39,24,-34,-292,-58,78
-58,-4,53,31,-56,24,39,24,-34,-292,-53,78
-53,-4,48,29,-51,21,39,24,-34,-292,-53,73
-63,4,68,29,-65,36,48,24,-34,-283,-43,73
-58,19,78,19,-68,48,58,24,-34,-283,-43,73
-48,19,68,14,-58,43,58,24,-34,-283,-43,73
-63,4,68,29,-65,36,53,24,-34,-287,-48,68
-78,-14,63,46,-70,24,53,14,-43,-297,-58,68
-87,-14,73,51,-80,29,53,14,-43,-297,-58,68
-92,0,92,46,-92,46,63,29,-29,-278,-48,78
-97,4,102,46,-100,53,63,29,-24,-278,-48,78
-87,19,107,34,-97,63,73,34,-14,-278,-43,92
-82,24,107,29,-95,65,68,34,-14,-273,-39,92
-78,34,112,21,-95,73,73,34,-19,-273,-39,97
-63,43,107,9,-85,75,78,34,-24,-268,-34,102
-53,48,102,2,-78,75,82,34,-34,-268,-43,102
-53,48,102,2,-78,75,82,34,-29,-268,-43,97
-53,39,92,7,-73,65,82,34,-29,-268,-39,87
-63,34,97,14,-80,65,82,34,-29,-268,-39,82
-82,19,102,31,-92,61,82,48,-14,-258,-34,78
-92,9,102,41,-97,56,82,53,-9,-258,-34,78
-97,4,102,46,-100,53,82,48,0,-258,-39,78
-107,0,107,53,-107,53,82,53,4,-258,-39,78
-107,0,107,53,-107,53,73,39,-4,-263,-43,68
-102,0,102,51,-102,51,78,39,-4,-263,-48,63
-97,0,97,48,-97,48,78,43,-4,-263,-53,63
-92,0,92,46,-92,46,82,43,-4,-263,-58,58
-102,-4,97,53,-100,46,78,34,-4,-263,-58,58
-102,-4,97,53,-100,46,78,34,-4,-263,-58,58
-92,0,92,46,-92,46,73,34,-9,-268,-58,58
-92,4,97,43,-95,51,73,34,-9,-268,-58,58
-78,14,92,31,-85,53,63,34,0,-263,-48,63
-78,14,92,31,-85,53,58,39,0,-263,-58,63
-82,14,97,34,-90,56,53,43,0,-258,-58,63
-78,24,102,26,-90,63,48,48,0,-248,-53,63
-39,58,97,-9,-68,78,29,58,0,-244,-39,73
-24,73,97,-24,-61,85,9,48,-9,-248,-39,73
-78,29,107,24,-92,68,-9,39,-19,-258,-34,78
-97,0,97,48,-97,48,-19,43,-14,-239,14,97
-63,14,78,24,-70,46,-19,53,4,-200,78,126
-53,29,82,12,-68,56,4,68,24,-161,161,151
-63,4,68,29,-65,36,24,82,43,-126,234,170
-73,-34,39,53,-56,2,34,92,63,-73,322,214
-63,-24,39,43,-51,7,39,112,107,34,453,273
-53,24,78,14,-65,51,43,126,146,126,575,361
-43,87,131,-21,-87,109,29,102,146,175,702,463
-43,117,161,-36,-102,139,0,63,136,204,790,570
-58,107,165,-24,-112,136,-19,34,136,234,814,653
-87,97,185,-4,-136,141,-43,4,151,253,819,702
-78,126,204,-24,-141,165,-63,-4,175,268,775,751
-4,214,219,-104,-112,217,-68,0,204,278,712,834
73,273,200,-173,-63,236,-73,14,219,263,629,912
73,234,161,-153,-43,197,-92,24,219,234,517,966
58,141,82,-100,-12,112,-78,63,263,248,468,1039
63,48,-14,-56,39,17,-48,136,351,326,527,1190
102,-39,-141,-31,122,-90,-9,229,453,409,614,1322
151,-92,-244,-29,197,-168,19,297,551,497,702,1405
156,-161,-317,2,236,-239,48,366,658,610,819,1498
165,-204,-370,19,268,-287,102,468,790,756,897,1503
185,-219,-405,17,295,-312,175,605,971,917,893,1342
170,-268,-439,48,305,-353,244,736,1132,1054,756,1058
126,-336,-463,104,295,-400,302,854,1249,1088,488,688
68,-400,-468,165,268,-434,351,927,1317,1029,131,283
-9,-434,-424,222,207,-429,385,966,1322,917,-244,-92
-87,-448,-361,268,136,-405,424,985,1298,746,-644,-497
-156,-468,-312,312,78,-390,478,985,1268,551,-1049,-1000
-204,-434,-229,319,12,-331,546,985,1239,390,-1342,-1390
-209,-341,-131,275,-39,-236,610,985,1200,229,-1512,-1556
-239,-302,-63,270,-87,-183,683,985,1190,102,-1644,-1654
-331,-326,4,329,-168,-161,756,1000,1215,14,-1771,-1751
-380,-331,48,356,-214,-141,839,1073,1298,-43,-1854,-1790
-370,-287,82,329,-226,-102,893,1146,1381,-68,-1854,-1742
-370,-239,131,305,-251,-53,922,1180,1439,-112,-1781,-1654
-375,-229,146,302,-261,-41,946,1185,1415,-224,-1722,-1561
-385,-248,136,317,-261,-56,990,1195,1376,-302,-1625,-1483
-380,-287,92,334,-236,-97,1019,1229,1376,-307,-1454,-1371
-361,-278,82,319,-222,-97,995,1229,1346,-312,-1327,-1249
-317,-234,82,275,-200,-75,936,1161,1263,-341,-1220,-1117
-302,-234,68,268,-185,-82,844,1073,1161,-361,-1127,-1010
-307,-239,68,273,-187,-85,775,995,1078,-414,-1063,-946
-297,-200,97,248,-197,-51,732,917,995,-478,-1029,-893
-278,-165,112,222,-195,-26,697,858,927,-512,-980,-849
-268,-165,102,217,-185,-31,668,805,873,-541,-927,-800
-273,-165,107,219,-190,-29,639,771,854,-575,-893,-766
-292,-156,136,224,-214,-9,644,751,824,-595,-839,-722
-317,-195,122,256,-219,-36,658,732,780,-634,-805,-702
-326,-224,102,275,-214,-61,692,751,756,-644,-775,-663
-317,-195,122,256,-219,-36,736,775,775,-629,-732,-614
-287,-141,146,214,-217,2,800,810,790,-634,-692,-575
-273,-112,161,192,-217,24,839,868,771,-678,-688,-570
-258,-112,146,185,-202,17,858,893,697,-727,-692,-570
-258,-117,141,187,-200,12,878,854,595,-766,-678,-551
-253,-122,131,187,-192,4,883,824,483,-795,-663,-527
-253,-146,107,200,-180,-19,902,795,424,-805,-634,-502
-263,-156,107,209,-185,-24,936,790,385,-800,-610,-463
-278,-156,122,217,-200,-17,966,795,317,-800,-580,-434
-268,-170,97,219,-183,-36,985,775,234,-800,-566,-424
-268,-190,78,229,-173,-56,995,751,175,-810,-546,-409
-287,-200,87,244,-187,-56,1005,727,112,-814,-546,-409
-317,-219,97,268,-207,-61,980,688,48,-795,-522,-400
-302,-234,68,268,-185,-82,878,644,-4,-771,-502,-375
-268,-239,29,253,-148,-104,761,614,-53,-751,-453,-336
-263,-239,24,251,-143,-107,697,575,-78,-722,-414,-312
-287,-263,24,275,-156,-119,624,492,-87,-683,-356,-283
-263,-244,19,253,-141,-112,527,380,-107,-639,-312,-239
-180,-175,4,178,-92,-85,439,292,-107,-575,-248,-190
-112,-92,19,102,-65,-36,380,229,-87,-517,-195,-141
-117,-73,43,95,-80,-14,297,156,-82,-483,-170,-117
-141,-78,63,109,-102,-7,185,39,-97,-468,-141,-102
-136,-43,92,90,-114,24,97,-34,-97,-429,-97,-73
-92,0,92,46,-92,46,63,-39,-63,-395,-53,-48
-73,-4,68,39,-70,31,43,-43,-68,-395,-43,-43
-78,-24,53,51,-65,14,14,-68,-82,-390,-29,-39
-53,-29,24,41,-39,-2,-4,-82,-92,-375,-19,-29
-53,-39,14,46,-34,-12,-9,-92,-87,-370,-29,-29
-97,-43,53,70,-75,4,-4,-92,-68,-351,-24,-29
-126,-43,82,85,-104,19,0,-87,-58,-331,0,-19
-117,-29,87,73,-102,29,-24,-92,-58,-326,0,-19
-78,-19,58,48,-68,19,-53,-122,-78,-341,-4,-19
-78,-29,48,53,-63,9,-73,-146,-107,-346,4,-19
-82,-24,58,53,-70,17,-92,-151,-122,-346,14,-19
-87,-29,58,58,-73,14,-97,-161,-126,-346,14,-19
-92,-34,58,63,-75,12,-107,-161,-126,-351,9,-19
-92,-43,48,68,-70,2,-122,-165,-136,-351,0,-19
-92,-43,48,68,-70,2,-122,-165,-141,-351,0,-19
-82,-43,39,63,-61,-2,-126,-170,-146,-351,14,-19
-73,-39,34,56,-53,-2,-131,-170,-151,-356,19,-14
-63,-34,29,48,-46,-2,-141,-180,-156,-356,34,0
-48,-19,29,34,-39,4,-146,-180,-161,-351,39,0
-39,-14,24,26,-31,4,-151,-180,-165,-351,39,-4
-39,-14,24,26,-31,4,-156,-180,-165,-361,39,-4
-29,-24,4,26,-17,-9,-146,-180,-175,-341,39,0
-9,-14,-4,12,-2,-9,-141,-175,-170,-341,48,0
-19,-14,4,17,-12,-4,-136,-175,-170,-341,53,4
-29,-24,4,26,-17,-9,-136,-180,-180,-351,53,4
-39,-43,-4,41,-17,-24,-146,-190,-185,-356,53,4
-43,-43,0,43,-21,-21,-146,-195,-190,-361,53,-4
-48,-43,4,46,-26,-19,-146,-190,-190,-366,53,-4
-58,-43,14,51,-36,-14,-146,-185,-195,-366,48,-9
-58,-53,4,56,-31,-24,-136,-185,-190,-356,48,-19
-53,-43,9,48,-31,-17,-136,-185,-195,-356,53,-19
-48,-53,-4,51,-21,-29,-146,-185,-209,-356,53,-19
-48,-58,-9,53,-19,-34,-156,-190,-214,-361,53,-19
-58,-78,-19,68,-19,-48,-146,-195,-219,-366,58,-24
-63,-87,-24,75,-19,-56,-146,-200,-229,-375,58,-24
-63,-92,-29,78,-17,-61,-146,-200,-229,-375,63,-29
-63,-68,-4,65,-29,-36,-146,-195,-224,-375,63,-34
-43,-53,-9,48,-17,-31,-146,-185,-214,-375,78,-19
-43,-43,0,43,-21,-21,-146,-185,-219,-370,87,-19
-43,-39,4,41,-24,-17,-146,-185,-219,-366,92,-14
-19,-24,-4,21,-7,-14,-151,-190,-224,-361,97,-9
-9,-29,-19,19,4,-24,-156,-190,-234,-356,107,-4
-24,-29,-4,26,-9,-17,-161,-190,-244,-356,117,-4
-34,-29,4,31,-19,-12,-165,-195,-248,-356,117,-9
-39,-29,9,34,-24,-9,-175,-195,-258,-366,112,-9
-43,-24,19,34,-31,-2,-185,-200,-263,-366,122,4
-39,-19,19,29,-29,0,-180,-200,-263,-366,122,4
-39,-14,24,26,-31,4,-180,-209,-268,-370,117,4
-39,-14,24,26,-31,4,-180,-209,-273,-370,112,-4
-29,-19,9,24,-19,-4,-185,-214,-273,-395,107,-14
-39,-29,9,34,-24,-9,-195,-224,-273,-400,97,-19
-39,-29,9,34,-24,-9,-200,-234,-287,-409,92,-19
-34,-24,9,29,-21,-7,-209,-244,-292,-409,87,-19
-43,-29,14,36,-29,-7,-204,-239,-292,-429,87,-9
-43,-43,0,43,-21,-21,-204,-244,-292,-434,78,-9
-43,-53,-9,48,-17,-31,-204,-239,-297,-439,78,-9
-39,-58,-19,48,-9,-39,-204,-234,-297,-439,82,-9
-24,-43,-19,34,-2,-31,-190,-229,-287,-439,92,-4
-19,-34,-14,26,-2,-24,-180,-224,-292,-439,97,0
-14,-24,-9,19,-2,-17,-170,-219,-297,-439,102,0
-4,-14,-9,9,2,-12,-165,-219,-297,-444,102,4
-4,-9,-4,7,0,-7,-146,-229,-287,-439,112,9
-19,-14,4,17,-12,-4,-141,-234,-292,-439,112,19
-19,-9,9,14,-14,0,-136,-234,-292,-439,112,24
-9,0,9,4,-9,4,-131,-239,-297,-439,112,34
-19,0,19,9,-19,9,-131,-248,-302,-444,112,34
-24,0,24,12,-24,12,-131,-263,-302,-444,117,48
-34,-9,24,21,-29,7,-136,-278,-307,-448,122,58
-39,-9,29,24,-34,9,-151,-287,-307,-453,117,58
-39,-19,19,29,-29,0,-156,-297,-317,-463,117,68
-34,-14,19,24,-26,2,-161,-297,-326,-463,112,78
-29,-14,14,21,-21,0,-165,-297,-331,-458,107,82
-14,-4,9,9,-12,2,-165,-287,-331,-453,107,92
0,-4,-4,2,2,-4,-165,-287,-326,-458,107,97
0,-4,-4,2,2,-4,-170,-287,-326,-458,102,97
-14,-4,9,9,-12,2,-170,-287,-317,-458,102,102
-19,-4,14,12,-17,4,-170,-287,-317,-448,112,117
-24,-19,4,21,-14,-7,-180,-273,-312,-444,117,117
-29,-19,9,24,-19,-4,-185,-273,-307,-444,117,122
-29,-19,9,24,-19,-4,-185,-263,-302,-434,117,131
-34,-14,19,24,-26,2,-185,-258,-292,-429,117,141
-14,-9,4,12,-9,-2,-200,-244,-268,-429,126,131
-14,0,14,7,-14,7,-204,-239,-263,-414,136,146
-9,9,19,0,-14,14,-200,-234,-244,-405,146,161
-9,9,19,0,-14,14,-204,-229,-229,-395,146,175
4,4,0,-4,2,2,-224,-234,-214,-395,141,175
4,0,-4,-2,4,-2,-234,-229,-209,-385,141,180
9,4,-4,-7,7,0,-234,-224,-195,-375,141,175
24,4,-19,-14,21,-7,-244,-214,-180,-366,141,185
24,14,-9,-19,17,2,-253,-200,-161,-356,156,200
24,14,-9,-19,17,2,-258,-195,-151,-346,161,214
19,14,-4,-17,12,4,-263,-180,-131,-341,161,224
24,24,0,-24,12,12,-268,-170,-112,-331,161,239
34,43,9,-39,12,26,-273,-161,-97,-302,161,248
34,43,9,-39,12,26,-273,-161,-78,-297,161,253
34,34,0,-34,17,17,-268,-141,-58,-287,170,253
14,34,19,-24,-2,26,-258,-126,-39,-268,170,263
9,24,14,-17,-2,19,-263,-131,-34,-263,170,258
19,39,19,-29,0,29,-253,-122,-9,-239,175,268
14,29,14,-21,0,21,-248,-117,9,-239,180,268
4,9,4,-7,0,7,-244,-107,19,-234,185,273
0,0,0,0,0,0,-229,-87,43,-224,190,283
9,9,0,-9,4,4,-214,-78,63,-204,190,292
4,19,14,-12,-4,17,-200,-68,82,-185,200,312
-4,4,9,0,-7,7,-185,-48,107,-170,200,312
4,34,29,-19,-12,31,-165,-29,131,-151,204,326
14,48,34,-31,-9,41,-156,-19,146,-136,224,331
24,53,29,-39,-2,41,-141,-14,161,-131,229,336
34,58,24,-46,4,41,-126,-4,180,-117,239,341
29,58,29,-43,0,43,-117,9,204,-92,239,341
24,63,39,-43,-7,51,-112,19,214,-78,239,341
19,63,43,-41,-12,53,-102,34,229,-73,244,341
4,63,58,-34,-26,61,-87,48,244,-53,244,336
4,63,58,-34,-26,61,-82,63,268,-53,239,326
14,63,48,-39,-17,56,-73,73,283,-34,239,322
14,73,58,-43,-21,65,-63,82,297,-19,224,317
14,78,63,-46,-24,70,-63,97,302,-14,224,312
29,97,68,-63,-19,82,-63,107,312,0,234,302
39,107,68,-73,-14,87,-53,117,326,0,229,283
43,107,63,-75,-9,85,-53,122,326,4,219,278
29,97,68,-63,-19,82,-58,117,317,19,204,258
14,78,63,-46,-24,70,-53,126,326,29,204,248
4,73,68,-39,-31,70,-53,126,331,29,204,248
-4,73,78,-34,-41,75,-34,126,336,34,180,234
-14,73,87,-29,-51,80,-19,126,346,39,165,229
-14,68,82,-26,-48,75,-24,131,341,29,156,214
-19,68,87,-24,-53,78,-19,131,351,29,151,209
-29,68,97,-19,-63,82,-19,126,336,29,146,195
-29,68,97,-19,-63,82,-24,122,331,24,131,190
-34,58,92,-12,-63,75,-19,107,322,14,126,185
-29,58,87,-14,-58,73,-24,102,302,9,122,170
-34,48,82,-7,-58,65,-29,92,292,-4,107,156
-53,39,92,7,-73,65,-34,92,287,-4,97,151
-43,39,82,2,-63,61,-39,87,273,-19,82,141
-43,34,78,4,-61,56,-39,82,263,-24,73,126
-53,29,82,12,-68,56,-39,78,253,-39,63,112
-53,29,82,12,-68,56,-29,73,244,-53,58,112
-43,29,73,7,-58,51,-29,73,239,-48,48,107
-39,29,68,4,-53,48,-29,73,229,-58,43,102
-39,19,58,9,-48,39,-19,73,219,-58,39,102
-48,14,63,17,-56,39,-19,68,219,-63,29,92
-58,19,78,19,-68,48,-9,78,219,-73,19,78
-53,19,73,17,-63,46,-4,78,214,-78,19,73
-53,24,78,14,-65,51,0,78,204,-78,24,78
-39,24,63,7,-51,43,14,78,219,-78,34,87
-39,24,63,7,-51,43,9,78,219,-82,19,73
-53,9,63,21,-58,36,4,82,204,-87,4,68
-73,4,78,34,-75,41,0,82,190,-92,0,63
-73,4,78,34,-75,41,-4,82,185,-97,-4,53
-73,19,92,26,-82,56,-4,82,200,-97,4,58
-73,19,92,26,-82,56,-4,82,200,-107,0,48
-73,14,87,29,-80,51,0,82,200,-107,-4,43
-73,14,87,29,-80,51,0,87,200,-102,-4,39
-63,19,82,21,-73,51,-9,97,209,-92,-4,34
-58,34,92,12,-75,63,-4,97,209,-92,-4,29
-43,43,87,0,-65,65,4,97,214,-97,-4,29
-39,34,73,2,-56,53,4,97,214,-97,-4,19
-48,29,78,9,-63,53,0,97,214,-97,-4,19
-58,34,92,12,-75,63,14,102,214,-97,0,19
-58,39,97,9,-78,68,19,112,209,-92,0,19
-58,43,102,7,-80,73,19,112,209,-92,0,19
-63,43,107,9,-85,75,29,122,209,-92,-4,14
-58,48,107,4,-82,78,39,122,209,-87,-9,9
-63,43,107,9,-85,75,48,122,209,-87,-14,0
-68,39,107,14,-87,73,58,122,209,-87,-19,-4
-73,19,92,26,-82,56,63,102,195,-92,-14,-9
-78,9,87,34,-82,48,68,97,185,-112,-19,-14
-82,4,87,39,-85,46,68,92,175,-117,-24,-19
-97,0,97,48,-97,48,73,82,170,-117,-24,-19
-112,-9,102,61,-107,46,82,68,161,-117,-34,-19
-112,-9,102,61,-107,46,82,58,161,-117,-29,-14
-107,-19,87,63,-97,34,82,58,165,-117,-24,-9
-97,-4,92,51,-95,43,82,58,165,-122,-19,0
-82,4,87,39,-85,46,92,63,165,-112,-14,14
-78,9,87,34,-82,48,87,63,165,-107,-9,24
-73,24,97,24,-85,61,87,53,161,-97,0,34
-63,34,97,14,-80,65,87,53,161,-87,9,48
-48,48,97,0,-73,73,68,58,151,-87,24,63
-63,48,112,7,-87,80,58,58,151,-87,24,68
-82,29,112,26,-97,70,48,58,146,-97,24,68
-82,29,112,26,-97,70,39,53,141,-107,24,78
-63,24,87,19,-75,56,19,34,117,-117,24,82
-58,24,82,17,-70,53,14,29,117,-112,34,87
-48,24,73,12,-61,48,0,24,117,-107,34,87
-43,24,68,9,-56,46,-4,19,112,-107,34,92
-53,24,78,14,-65,51,-4,24,112,-97,34,107
-48,29,78,9,-63,53,-9,24,107,-97,34,112
-63,24,87,19,-75,56,-14,24,107,-97,39,122
-82,19,102,31,-92,61,-14,24,112,-87,39,131
-78,19,97,29,-87,58,-29,14,112,-92,39,122
-63,19,82,21,-73,51,-34,14,107,-87,39,131
-58,29,87,14,-73,58,-34,24,107,-82,43,146
-58,29,87,14,-73,58,-39,14,102,-87,43,146
-63,9,73,26,-68,41,-48,19,87,-92,43,131
-63,9,73,26,-68,41,-53,19,78,-92,43,131
-63,9,73,26,-68,41,-53,24,68,-92,43,141
-73,9,82,31,-78,46,-58,29,68,-92,43,151
-63,19,82,21,-73,51,-58,19,73,-82,48,151
-63,19,82,21,-73,51,-48,19,78,-73,48,151
-58,24,82,17,-70,53,-43,19,82,-73,48,151
-58,24,82,17,-70,53,-39,24,92,-73,48,151
-63,24,87,19,-75,56,-43,24,107,-78,58,161
-63,34,97,14,-80,65,-39,34,107,-82,58,165
-53,48,102,2,-78,75,-39,39,112,-78,63,175
-58,48,107,4,-82,78,-39,43,112,-73,63,175
-63,39,102,12,-82,70,-39,43,107,-68,73,180
-58,43,102,7,-80,73,-39,43,112,-68,73,180
-53,53,107,0,-80,80,-43,43,112,-58,63,180
-48,58,107,-4,-78,82,-48,43,112,-48,58,180
-53,58,112,-2,-82,85,-53,53,117,-43,63,185
-58,58,117,0,-87,87,-63,58,122,-43,63,190
-58,58,117,0,-87,87,-73,63,122,-43,58,195
-63,58,122,2,-92,90,-78,68,126,-43,58,195
-48,63,112,-7,-80,87,-63,73,126,-48,58,195
-48,63,112,-7,-80,87,-58,78,131,-48,58,195
-53,63,117,-4,-85,90,-48,82,141,-48,58,185
-58,58,117,0,-87,87,-43,87,146,-48,58,175
-68,63,131,2,-100,97,-24,97,146,-48,63,170
-63,68,131,-2,-97,100,-24,97,141,-43,63,170
-63,73,136,-4,-100,104,-14,87,136,-39,58,165
-63,78,141,-7,-102,109,-4,78,126,-48,53,161
-63,68,131,-2,-97,100,0,58,112,-63,34,146
-63,63,126,0,-95,95,4,53,107,-68,24,146
-68,58,126,4,-97,92,14,48,102,-68,24,151
-78,48,126,14,-102,87,24,48,97,-68,19,151
-63,53,117,4,-90,85,24,43,82,-78,19,151
-48,58,107,-4,-78,82,34,34,78,-87,19,141
-39,63,102,-12,-70,82,43,24,73,-107,14,136
-34,73,107,-19,-70,90,53,14,68,-112,14,131
-43,68,112,-12,-78,90,68,4,58,-112,14,136
-68,58,126,4,-97,92,68,14,58,-112,14,131
-73,48,122,12,-97,85,73,14,58,-122,9,131
-78,43,122,17,-100,82,78,14,53,-131,9,126
-97,24,122,36,-109,73,68,14,53,-126,4,117
-107,19,126,43,-117,73,58,19,53,-122,0,117
-112,19,131,46,-122,75,58,19,53,-126,0,117
-107,19,126,43,-117,73,68,9,39,-122,0,117
-92,24,117,34,-104,70,53,14,48,-112,-4,122
-82,39,122,21,-102,80,48,19,48,-122,-4,122
-68,53,122,7,-95,87,43,34,58,-122,-4,122
-58,48,107,4,-82,78,39,39,63,-122,-4,117
-68,39,107,14,-87,73,29,39,48,-126,-9,107
-73,34,107,19,-90,70,29,39,43,-131,-9,97
-78,29,107,24,-92,68,29,34,48,-146,-14,97
-82,34,117,24,-100,75,29,34,53,-151,-14,92
-73,19,92,26,-82,56,9,39,39,-141,-24,102
-73,14,87,29,-80,51,4,34,14,-151,-29,102
-82,0,82,41,-82,41,0,29,9,-156,-29,102
-82,-4,78,43,-80,36,-4,24,4,-161,-34,102
-68,4,73,31,-70,39,-14,29,14,-161,-29,97
-58,9,68,24,-63,39,-14,29,19,-161,-29,97
-48,14,63,17,-56,39,-4,29,19,-156,-29,97
-43,9,53,17,-48,31,4,29,24,-151,-34,97
-58,4,63,26,-61,34,4,39,19,-165,-34,82
-63,0,63,31,-63,31,4,39,19,-165,-34,78
-68,-4,63,36,-65,29,4,39,14,-170,-39,73
-78,-9,68,43,-73,29,4,39,14,-180,-43,73
-78,-19,58,48,-68,19,0,29,4,-190,-53,73
-78,-19,58,48,-68,19,4,34,4,-195,-58,68
-63,-19,43,41,-53,12,9,43,-4,-209,-63,68
-48,-19,29,34,-39,4,14,53,-14,-224,-68,68
-53,-14,39,34,-46,12,4,58,-9,-214,-68,63
-53,-19,34,36,-43,7,0,58,-14,-209,-68,58
-63,-34,29,48,-46,-2,0,58,-14,-209,-73,58
-63,-34,29,48,-46,-2,0,58,-14,-204,-73,58
-58,-39,19,48,-39,-9,0,58,-4,-204,-73,58
-53,-29,24,41,-39,-2,4,82,-4,-195,-63,68
-58,-19,39,39,-48,9,9,87,0,-185,-48,78
-73,-29,43,51,-58,7,19,87,-9,-185,-58,68
-78,-29,48,53,-63,9,19,87,-9,-185,-58,68
-82,-29,53,56,-68,12,19,87,-9,-185,-58,68
-87,-29,58,58,-73,14,19,87,-9,-185,-58,68
-82,-34,48,58,-65,7,39,97,-9,-175,-43,82
-82,-34,48,58,-65,7,48,102,-4,-170,-39,82
-87,-39,48,63,-68,4,58,107,-4,-170,-39,73
-87,-39,48,63,-68,4,63,112,0,-165,-43,73
-68,-24,43,46,-56,9,68,112,9,-156,-34,78
-68,-19,48,43,-58,14,73,112,9,-151,-34,78
-68,-14,53,41,-61,19,78,112,9,-151,-34,82
-68,-9,58,39,-63,24,82,112,9,-151,-34,82
-82,4,87,39,-85,46,78,107,19,-136,-24,92
-97,4,102,46,-100,53,78,107,19,-131,-19,97
-102,4,107,48,-104,56,68,107,4,-131,-19,97
-97,0,97,48,-97,48,58,97,4,-131,-19,97
-82,0,82,41,-82,41,34,82,-14,-151,-29,87
-82,-4,78,43,-80,36,14,68,-19,-156,-29,78
-82,-4,78,43,-80,36,-9,53,-29,-161,-29,78
-78,-4,73,41,-75,34,-43,39,-48,-170,-29,78
-78,4,82,36,-80,43,-58,34,-58,-170,-24,82
-82,9,92,36,-87,51,-63,34,-53,-165,-24,87
-87,14,102,36,-95,58,-68,34,-53,-161,-24,92
-87,14,102,36,-95,58,-73,34,-58,-161,-24,97
-82,0,82,41,-82,41,-73,29,-63,-180,-29,92
-87,-4,82,46,-85,39,-73,24,-68,-180,-34,87
-87,-4,82,46,-85,39,-73,24,-73,-180,-39,82
-82,-4,78,43,-80,36,-73,19,-78,-175,-43,78
-73,4,78,34,-75,41,-73,34,-78,-161,-53,87
-63,9,73,26,-68,41,-68,34,-73,-156,-48,92
-58,9,68,24,-63,39,-63,34,-73,-156,-48,92
-58,9,68,24,-63,39,-58,34,-73,-165,-48,92
-48,4,53,21,-51,29,-68,34,-82,-175,-48,92
-43,4,48,19,-46,26,-68,34,-82,-175,-48,92
-43,-4,39,24,-41,17,-63,34,-82,-175,-48,92
-53,-4,48,29,-51,21,-58,34,-82,-175,-48,97
-43,0,43,21,-43,21,-68,39,-78,-161,-43,102
-43,4,48,19,-46,26,-68,43,-73,-156,-43,102
-43,9,53,17,-48,31,-68,48,-68,-151,-39,107
-39,29,68,4,-53,48,-58,53,-63,-146,-34,112
-29,39,68,-4,-48,53,-58,43,-53,-136,-24,102
-43,24,68,9,-56,46,-63,43,-53,-141,-29,97
-43,14,58,14,-51,36,-63,43,-63,-141,-29,97
-48,14,63,17,-56,39,-63,43,-63,-141,-29,97
-63,14,78,24,-70,46,-53,53,-58,-136,-24,102
-68,14,82,26,-75,48,-53,48,-63,-141,-29,97
-68,9,78,29,-73,43,-58,39,-73,-151,-34,92
-73,4,78,34,-75,41,-68,34,-82,-156,-39,82
-82,4,87,39,-85,46,-63,43,-87,-161,-53,82
-73,4,78,34,-75,41,-58,43,-92,-161,-53,82
-73,4,78,34,-75,41,-48,43,-92,-161,-53,87
-73,0,73,36,-73,36,-43,43,-87,-161,-53,87
-68,-4,63,36,-65,29,-34,43,-97,-170,-58,82
-73,-4,68,39,-70,31,-34,43,-97,-170,-58,82
-78,0,78,39,-78,39,-34,43,-97,-170,-63,78
-73,0,73,36,-73,36,-34,43,-97,-170,-63,78
-82,-14,68,48,-75,26,-24,43,-92,-170,-78,78
-87,-19,68,53,-78,24,-24,43,-92,-170,-78,78
-97,-24,73,61,-85,24,-24,39,-92,-175,-78,73
-102,-29,73,65,-87,21,-19,39,-92,-175,-78,73
-97,-24,73,61,-85,24,-9,48,-97,-170,-68,87
-92,-19,73,56,-82,26,-4,53,-102,-165,-68,87
-87,-19,68,53,-78,24,0,58,-107,-161,-68,87
-82,-14,68,48,-75,26,0,63,-112,-156,-68,87
-63,0,63,31,-63,31,9,63,-117,-165,-78,82
-63,4,68,29,-65,36,14,63,-117,-170,-78,78
-63,4,68,29,-65,36,14,58,-117,-175,-78,68
-68,4,73,31,-70,39,19,58,-117,-185,-87,63
-97,-4,92,51,-95,43,48,68,-126,-185,-97,53
-107,34,141,36,-124,87,68,87,-117,-161,-73,63
-87,58,146,14,-117,102,58,87,-117,-156,-48,73
-73,63,136,4,-104,100,48,68,-117,-161,-39,73
-48,68,117,-9,-82,92,39,68,-107,-131,4,97
-58,68,126,-4,-92,97,39,63,-82,-92,92,136
-63,34,97,14,-80,65,48,73,-73,-53,175,185
-73,19,92,26,-82,56,63,97,-43,4,278,258
-63,24,87,19,-75,56,82,131,14,107,419,346
-43,53,97,-4,-70,75,92,161,63,209,585,458
-34,82,117,-24,-75,100,58,141,68,268,736,605
-53,102,156,-24,-104,129,24,117,68,322,907,810
-24,156,180,-65,-102,168,19,112,87,390,1063,1019
-4,175,180,-85,-92,178,0,112,107,439,1161,1205
0,195,195,-97,-97,195,-48,92,97,448,1205,1376
39,224,185,-131,-73,204,-73,82,102,458,1200,1522
78,244,165,-161,-43,204,-102,73,97,453,1146,1639
102,224,122,-163,-9,173,-126,58,87,414,1073,1742
102,175,73,-139,14,124,-151,53,82,380,1000,1800
63,97,34,-80,14,65,-141,102,122,419,985,1873
78,4,-73,-41,75,-34,-117,180,204,483,1034,1976
161,-58,-219,-51,190,-139,-87,263,292,541,1073,2020
219,-87,-307,-65,263,-197,-58,346,375,624,1132,2034
219,-131,-351,-43,285,-241,-29,453,483,751,1171,2000
214,-180,-395,-17,305,-287,39,590,629,883,1151,1820
214,-224,-439,4,326,-331,112,732,810,1039,1073,1512
175,-268,-444,46,309,-356,204,888,990,1171,932,1127
112,-336,-448,112,280,-392,302,1039,1122,1210,678,678
78,-385,-463,153,270,-424,370,1146,1220,1185,361,219
68,-409,-478,170,273,-444,409,1210,1229,1078,14,-195
19,-434,-453,207,236,-444,453,1229,1195,907,-409,-688
-68,-458,-390,263,161,-424,502,1239,1151,727,-839,-1229
-126,-458,-331,292,102,-395,556,1249,1132,590,-1107,-1566
-185,-414,-229,300,21,-322,595,1229,1093,448,-1283,-1693
-268,-370,-102,319,-82,-236,649,1190,1083,336,-1454,-1790
-366,-331,34,348,-200,-148,732,1210,1112,258,-1586,-1869
-429,-326,102,378,-265,-112,814,1263,1156,200,-1673,-1869
-458,-331,126,395,-292,-102,849,1317,1210,131,-1717,-1810
-468,-297,170,383,-319,-63,854,1332,1205,39,-1727,-1722
-448,-248,200,348,-324,-24,873,1346,1176,-82,-1664,-1595
-434,-219,214,326,-324,-2,917,1351,1161,-136,-1537,-1464
-405,-200,204,302,-305,2,941,1381,1190,-117,-1361,-1327
-370,-190,180,280,-275,-4,922,1405,1190,-131,-1229,-1205
-380,-190,190,285,-285,0,878,1366,1132,-165,-1141,-1112
-395,-204,190,300,-292,-7,810,1288,1029,-195,-1054,-1029
-370,-195,175,283,-273,-9,736,1190,936,-244,-990,-961
-307,-161,146,234,-226,-7,688,1122,863,-287,-956,-907
-278,-122,156,200,-217,17,673,1063,819,-312,-912,-834
-258,-78,180,168,-219,51,649,1024,800,-336,-854,-761
-268,-78,190,173,-229,56,629,1000,775,-385,-829,-722
-302,-107,195,204,-248,43,639,966,736,-419,-785,-678
-312,-126,185,219,-248,29,673,966,717,-429,-732,-653
-287,-117,170,202,-229,26,717,985,722,-419,-707,-634
-248,-87,161,168,-204,36,761,1005,736,-409,-678,-624
-248,-68,180,158,-214,56,795,1039,717,-424,-653,-605
-287,-92,195,190,-241,51,819,1073,673,-468,-663,-595
-292,-112,180,202,-236,34,829,1083,585,-522,-668,-570
-268,-102,165,185,-217,31,819,1049,473,-551,-644,-522
-278,-107,170,192,-224,31,839,1000,351,-590,-619,-483
-322,-122,200,222,-261,39,873,961,239,-629,-595,-468
-351,-126,224,239,-287,48,902,912,151,-639,-585,-463
-331,-126,204,229,-268,39,927,888,43,-653,-570,-463
-297,-126,170,212,-234,21,946,873,-63,-673,-570,-453
-297,-131,165,214,-231,17,956,834,-156,-683,-566,-434
-317,-151,165,234,-241,7,936,780,-214,-692,-556,-419
-336,-180,156,258,-246,-12,888,746,-268,-688,-536,-390
-278,-190,87,234,-183,-51,785,697,-312,-668,-492,-351
-224,-185,39,204,-131,-73,692,653,-366,-653,-453,-317
-229,-209,19,219,-124,-95,634,605,-405,-644,-414,-297
-234,-200,34,217,-134,-82,551,517,-429,-605,-366,-263
-200,-165,34,183,-117,-65,439,414,-448,-546,-326,-224
-185,-146,39,165,-112,-53,331,302,-488,-512,-292,-200
-180,-126,53,153,-117,-36,253,204,-488,-488,-268,-180
-151,-82,68,117,-109,-7,185,131,-458,-448,-224,-131
-126,-43,82,85,-104,19,92,58,-444,-405,-170,-78
-122,-29,92,75,-107,31,9,9,-439,-370,-122,-53
-107,-4,102,56,-104,48,-29,-4,-419,-341,-87,-24
-102,19,122,41,-112,70,-43,-9,-405,-307,-53,-9
-92,24,117,34,-104,70,-63,-34,-419,-297,-53,-14
-87,14,102,36,-95,58,-73,-39,-424,-292,-58,-19
-102,19,122,41,-112,70,-63,-24,-414,-278,-48,-9
-102,19,122,41,-112,70,-68,-34,-409,-283,-58,-9
-78,4,82,36,-80,43,-73,-34,-419,-302,-63,-9
-78,14,92,31,-85,53,-78,-29,-409,-292,-48,0
-97,0,97,48,-97,48,-82,-34,-409,-287,-29,9
-97,-19,78,58,-87,29,-92,-53,-439,-292,-24,0
-78,-4,73,41,-75,34,-97,-68,-458,-302,-19,0
-73,4,78,34,-75,41,-112,-73,-473,-297,-14,0
-68,4,73,31,-70,39,-112,-82,-478,-292,-19,0
-63,4,68,29,-65,36,-117,-82,-478,-292,-29,0
-78,-4,73,41,-75,34,-136,-78,-478,-302,-39,-9
-82,-14,68,48,-75,26,-141,-78,-483,-302,-39,-9
-78,-24,53,51,-65,14,-151,-82,-488,-302,-24,-9
-73,-29,43,51,-58,7,-161,-82,-492,-307,-19,-4
-68,-14,53,41,-61,19,-175,-97,-507,-307,-4,9
-58,0,58,29,-58,29,-195,-102,-512,-302,0,9
-53,4,58,24,-56,31,-214,-107,-517,-302,0,4
-58,4,63,26,-61,34,-234,-112,-517,-312,0,4
-58,9,68,24,-63,39,-258,-122,-517,-312,0,0
-39,24,63,7,-51,43,-268,-117,-512,-312,9,0
-48,29,78,9,-63,53,-278,-117,-512,-312,14,4
-58,24,82,17,-70,53,-292,-122,-522,-322,14,4
-58,14,73,21,-65,43,-307,-146,-546,-336,14,4
-53,14,68,19,-61,41,-312,-156,-561,-341,14,-4
-48,14,63,17,-56,39,-317,-156,-570,-346,14,-4
-48,14,63,17,-56,39,-322,-156,-585,-346,9,-9
-63,9,73,26,-68,41,-312,-146,-575,-346,9,-19
-63,14,78,24,-70,46,-302,-146,-575,-346,14,-19
-63,0,63,31,-63,31,-302,-146,-585,-346,14,-19
-68,-9,58,39,-63,24,-302,-151,-585,-351,14,-19
-63,-4,58,34,-61,26,-292,-165,-590,-366,9,-24
-53,0,53,26,-53,26,-292,-170,-600,-375,9,-24
-39,9,48,14,-43,29,-292,-170,-600,-375,14,-29
-24,48,73,-12,-48,61,-292,-165,-595,-375,14,-34
-34,43,78,-4,-56,61,-273,-175,-595,-370,14,-34
-53,34,87,9,-70,61,-263,-175,-600,-370,19,-39
-73,19,92,26,-82,56,-253,-175,-600,-370,19,-39
-68,14,82,26,-75,48,-248,-180,-605,-370,19,-39
-63,4,68,29,-65,36,-234,-185,-619,-375,29,-34
-73,0,73,36,-73,36,-229,-190,-624,-375,39,-34
-78,-4,73,41,-75,34,-224,-200,-624,-375,39,-39
-78,-9,68,43,-73,29,-224,-204,-629,-385,34,-39
-63,4,68,29,-65,36,-209,-190,-634,-395,24,-34
-58,9,68,24,-63,39,-200,-190,-634,-395,24,-34
-58,14,73,21,-65,43,-195,-200,-639,-400,19,-34
-58,14,73,21,-65,43,-190,-200,-644,-400,14,-43
-58,19,78,19,-68,48,-175,-200,-658,-424,14,-53
-68,9,78,29,-73,43,-175,-204,-663,-429,9,-58
-68,9,78,29,-73,43,-170,-209,-683,-439,9,-58
-63,14,78,24,-70,46,-170,-214,-692,-439,9,-58
-78,0,78,39,-78,39,-170,-224,-712,-453,0,-68
-82,-14,68,48,-75,26,-165,-234,-712,-463,-9,-68
-87,-24,63,56,-75,19,-161,-234,-717,-473,-9,-68
-87,-29,58,58,-73,14,-156,-234,-717,-478,-4,-68
-73,-14,58,43,-65,21,-151,-244,-722,-483,0,-63
-68,-14,53,41,-61,19,-151,-244,-732,-488,0,-58
-63,-14,48,39,-56,17,-151,-244,-741,-492,0,-58
-53,-14,39,34,-46,12,-156,-248,-746,-502,-4,-53
-63,-24,39,43,-51,7,-161,-248,-736,-502,0,-43
-78,-34,43,56,-61,4,-170,-253,-741,-497,4,-39
-78,-34,43,56,-61,4,-180,-253,-741,-492,9,-39
-68,-29,39,48,-53,4,-190,-258,-746,-488,14,-34
-53,-29,24,41,-39,-2,-195,-268,-751,-497,14,-29
-53,-29,24,41,-39,-2,-200,-273,-751,-492,19,-19
-58,-39,19,48,-39,-9,-209,-278,-756,-492,24,-14
-58,-39,19,48,-39,-9,-229,-278,-756,-492,19,-19
-48,-29,19,39,-34,-4,-244,-278,-761,-483,24,0
-43,-24,19,34,-31,-2,-248,-278,-766,-483,24,9
-39,-24,14,31,-26,-4,-253,-278,-766,-478,24,14
-24,-14,9,19,-17,-2,-253,-268,-761,-473,29,24
-29,-19,9,24,-19,-4,-258,-268,-756,-468,34,48
-29,-24,4,26,-17,-9,-268,-268,-756,-468,34,48
-43,-29,14,36,-29,-7,-273,-268,-746,-468,39,53
-48,-34,14,41,-31,-9,-278,-268,-746,-458,53,68
-39,-39,0,39,-19,-19,-292,-253,-741,-448,63,87
-39,-39,0,39,-19,-19,-312,-253,-736,-444,68,92
-34,-39,-4,36,-14,-21,-326,-244,-732,-429,73,102
-34,-34,0,34,-17,-17,-341,-239,-722,-419,78,112
-9,-24,-14,17,2,-19,-351,-219,-697,-405,82,117
-4,-9,-4,7,0,-7,-351,-209,-683,-385,97,136
4,4,0,-4,2,2,-341,-200,-653,-370,112,156
9,9,0,-9,4,4,-341,-190,-629,-356,117,175
9,0,-9,-4,9,-4,-341,-185,-605,-346,117,180
4,0,-4,-2,4,-2,-341,-180,-600,-336,122,190
4,9,4,-7,0,7,-331,-175,-585,-326,126,190
14,14,0,-14,7,7,-331,-165,-570,-317,131,204
14,29,14,-21,0,21,-322,-165,-551,-297,146,224
14,34,19,-24,-2,26,-307,-165,-541,-287,151,234
9,39,29,-24,-9,34,-292,-156,-522,-283,151,239
14,53,39,-34,-12,46,-278,-151,-502,-273,151,248
0,58,58,-29,-29,58,-263,-136,-488,-253,141,239
-4,53,58,-24,-31,56,-263,-131,-468,-248,141,244
-9,39,48,-14,-29,43,-258,-107,-448,-239,151,244
-34,34,68,0,-51,51,-248,-87,-429,-219,151,253
-34,34,68,0,-51,51,-234,-78,-414,-204,141,248
-19,58,78,-19,-48,68,-214,-63,-390,-180,146,258
-19,58,78,-19,-48,68,-200,-53,-370,-180,151,258
-24,48,73,-12,-48,61,-185,-39,-361,-175,156,263
-34,43,78,-4,-56,61,-175,-24,-336,-156,170,263
-19,48,68,-14,-43,58,-165,-9,-317,-136,170,273
-19,53,73,-17,-46,63,-156,4,-297,-117,180,292
-24,34,58,-4,-41,46,-146,29,-273,-102,180,292
-24,43,68,-9,-46,56,-126,48,-258,-82,175,287
-24,48,73,-12,-48,61,-117,58,-244,-68,185,292
-24,43,68,-9,-46,56,-102,63,-229,-63,180,297
-24,39,63,-7,-43,51,-87,73,-209,-48,180,302
-19,48,68,-14,-43,58,-68,87,-185,-24,180,292
-14,63,78,-24,-46,70,-63,97,-175,-9,180,292
-9,73,82,-31,-46,78,-53,112,-161,-4,185,292
-14,82,97,-34,-56,90,-39,126,-146,14,185,287
-29,82,112,-26,-70,97,-24,126,-141,19,170,278
-24,82,107,-29,-65,95,-14,131,-126,34,170,263
-29,92,122,-31,-75,107,-4,136,-112,43,156,248
-34,97,131,-31,-82,114,-4,146,-107,43,156,234
-24,102,126,-39,-75,114,9,146,-97,53,156,224
-19,107,126,-43,-73,117,24,156,-82,48,151,204
-19,102,122,-41,-70,112,29,161,-82,48,141,200
-39,87,126,-24,-82,107,29,156,-92,58,126,180
-48,78,126,-14,-87,102,19,146,-78,48,117,165
-53,73,126,-9,-90,100,4,146,-78,48,117,161
-58,73,131,-7,-95,102,9,146,-78,53,92,141
-63,73,136,-4,-100,104,9,146,-73,58,78,131
-63,68,131,-2,-97,100,-14,151,-78,48,78,117
-68,68,136,0,-102,102,-19,151,-68,48,73,112
-78,68,146,4,-112,107,-29,146,-82,48,68,97
-78,68,146,4,-112,107,-43,141,-87,43,53,92
-68,68,136,0,-102,102,-48,141,-92,53,39,78
-58,68,126,-4,-92,97,-53,141,-107,48,34,63
-58,58,117,0,-87,87,-58,136,-112,34,19,48
-73,48,122,12,-97,85,-63,141,-112,34,9,43
-63,43,107,9,-85,75,-68,151,-112,14,4,34
-63,34,97,14,-80,65,-68,151,-117,14,-4,19
-73,24,97,24,-85,61,-68,151,-122,4,-14,4
-73,19,92,26,-82,56,-58,151,-126,-4,-19,4
-63,24,87,19,-75,56,-68,161,-136,-9,-19,-9
-58,29,87,14,-73,58,-68,161,-151,-19,-24,-14
-58,24,82,17,-70,53,-58,161,-165,-19,-29,-14
-68,24,92,21,-80,58,-58,156,-170,-24,-39,-24
-73,29,102,21,-87,65,-78,146,-190,-39,-58,-34
-73,29,102,21,-87,65,-82,136,-195,-48,-58,-43
-78,34,112,21,-95,73,-87,126,-204,-53,-53,-43
-68,34,102,17,-85,68,-82,117,-190,-58,-43,-39
-78,34,112,21,-95,73,-73,117,-190,-48,-53,-43
-92,19,112,36,-102,65,-73,122,-204,-48,-63,-48
-112,14,126,48,-119,70,-73,122,-219,-48,-63,-53
-112,14,126,48,-119,70,-73,122,-224,-48,-63,-63
-122,19,141,51,-131,80,-68,131,-219,-48,-63,-68
-122,19,141,51,-131,80,-63,131,-219,-58,-68,-78
-122,14,136,53,-129,75,-53,131,-219,-58,-73,-82
-122,14,136,53,-129,75,-48,136,-219,-53,-73,-87
-97,0,97,48,-97,48,-48,117,-239,-73,-73,-92
-87,29,117,29,-102,73,-29,126,-234,-68,-58,-78
-87,39,126,24,-107,82,-19,117,-234,-78,-68,-78
-87,39,126,24,-107,82,-19,117,-234,-78,-68,-78
-87,39,126,24,-107,82,-19,117,-234,-78,-68,-78
-87,39,126,24,-107,82,-19,117,-234,-78,-68,-78
-97,43,141,26,-119,92,-9,131,-219,-68,-58,-63
-102,43,146,29,-124,95,0,131,-200,-63,-48,-63
-112,39,151,36,-131,95,9,131,-185,-63,-43,-73
-117,39,156,39,-136,97,14,131,-165,-58,-43,-73
-117,43,161,36,-139,102,29,122,-141,-68,-53,-68
-117,39,156,39,-136,97,34,122,-126,-63,-53,-68
-117,34,151,41,-134,92,39,122,-112,-63,-53,-63
-117,29,146,43,-131,87,43,122,-97,-63,-53,-63
-107,39,146,34,-126,92,63,107,-92,-63,-39,-53
-117,43,161,36,-139,102,68,107,-87,-63,-39,-48
-117,48,165,34,-141,107,63,107,-97,-68,-43,-48
-107,48,156,29,-131,102,58,97,-92,-73,-48,-48
-117,43,161,36,-139,102,73,97,-92,-78,-48,-39
-122,34,156,43,-139,95,82,97,-87,-78,-48,-48
-126,29,156,48,-141,92,87,97,-87,-78,-48,-48
-126,24,151,51,-139,87,82,97,-97,-82,-48,-48
-112,43,156,34,-134,100,92,107,-92,-73,-48,-43
-102,48,151,26,-126,100,92,112,-82,-68,-43,-39
-92,53,146,19,-119,100,92,117,-78,-63,-39,-34
-78,53,131,12,-104,92,92,122,-78,-63,-34,-29
-92,39,131,26,-112,85,82,122,-68,-73,-34,-24
-107,34,141,36,-124,87,73,122,-68,-73,-34,-19
-117,34,151,41,-134,92,63,126,-68,-73,-34,-14
-122,34,156,43,-139,95,53,126,-68,-68,-34,-9
-117,39,156,39,-136,97,43,122,-68,-63,-24,-4
-102,48,151,26,-126,100,39,122,-63,-58,-19,4
-92,53,146,19,-119,100,34,122,-63,-58,-19,9
-87,58,146,14,-117,102,29,122,-63,-68,-19,14
-92,63,156,14,-124,109,24,131,-63,-63,-14,19
-92,63,156,14,-124,109,19,131,-63,-58,-9,24
-97,53,151,21,-124,102,19,131,-63,-53,-4,29
-112,53,165,29,-139,109,19,131,-63,-48,0,39
-107,63,170,21,-139,117,4,126,-63,-48,0,48
-102,63,165,19,-134,114,0,122,-63,-48,-4,43
-97,63,161,17,-129,112,-4,117,-63,-48,-4,43
-87,78,165,4,-126,122,0,112,-63,-48,-4,43
-87,68,156,9,-122,112,-9,92,-68,-58,-9,43
-102,53,156,24,-129,104,-24,82,-73,-63,-19,39
-102,43,146,29,-124,95,-34,73,-87,-63,-24,39
-107,43,151,31,-129,97,-43,63,-92,-63,-29,39
-117,53,170,31,-143,112,-19,68,-78,-43,-19,58
-117,53,170,31,-143,112,-14,68,-73,-43,-19,58
-112,48,161,31,-136,104,-14,63,-73,-48,-19,58
-112,43,156,34,-134,100,-19,63,-73,-48,-19,53
-97,63,161,17,-129,112,-19,68,-68,-63,-29,48
-82,73,156,4,-119,114,-19,73,-73,-63,-34,43
-78,82,161,-2,-119,122,-14,78,-73,-63,-39,43
-73,87,161,-7,-117,124,-14,82,-68,-63,-43,39
-73,68,141,2,-107,104,-4,92,-58,-53,-39,43
-82,63,146,9,-114,104,4,92,-48,-53,-39,43
-92,63,156,14,-124,109,14,92,-39,-53,-43,39
-92,58,151,17,-122,104,24,92,-29,-53,-43,39
-87,43,131,21,-109,87,24,82,-9,-68,-63,24
-87,39,126,24,-107,82,24,82,-4,-73,-68,19
-92,34,126,29,-109,80,24,78,0,-82,-73,9
-92,29,122,31,-107,75,29,78,4,-87,-78,4
-92,24,117,34,-104,70,34,92,9,-87,-87,9
-92,19,112,36,-102,65,43,92,14,-87,-87,9
-92,9,102,41,-97,56,53,92,19,-87,-87,9
-92,4,97,43,-95,51,58,92,24,-87,-87,9
-92,9,102,41,-97,56,43,82,29,-97,-87,0
-92,14,107,39,-100,61,43,82,29,-102,-87,0
-92,14,107,39,-100,61,39,78,29,-107,-87,-4
-97,14,112,41,-104,63,39,78,29,-117,-97,-4
-126,34,161,46,-143,97,58,97,78,-97,-78,4
-87,53,141,17,-114,97,68,107,97,-92,-73,4
-68,29,97,19,-82,63,48,87,87,-107,-78,-4
-82,34,117,24,-100,75,39,87,78,-102,-58,-4
-68,87,156,-9,-112,122,48,107,87,-92,-14,29
-58,107,165,-24,-112,136,48,122,92,-63,34,68
-82,82,165,0,-124,124,48,112,102,-43,97,97
-92,68,161,12,-126,114,43,107,112,-4,170,122
-82,63,146,9,-114,104,53,131,131,39,253,151
-102,34,136,34,-119,85,43,141,170,112,370,204
-122,24,146,48,-134,85,39,141,204,200,522,273
-92,63,156,14,-124,109,14,117,204,263,644,351
-43,136,180,-46,-112,158,-19,63,175,292,741,453
-63,195,258,-65,-161,226,-48,14,165,322,819,561
-97,204,302,-53,-200,253,-68,-14,165,351,834,624
-87,234,322,-73,-204,278,-82,-24,180,380,819,683
-58,283,341,-112,-200,312,-112,-43,195,375,756,751
-53,322,375,-134,-214,348,-136,-58,195,346,653,814
-34,331,366,-148,-200,348,-151,-63,200,312,541,873
-34,312,346,-139,-190,329,-161,-43,200,263,400,907
-39,248,287,-104,-163,268,-146,-4,244,258,351,1000
4,165,161,-85,-78,163,-136,58,302,307,390,1161
43,68,24,-56,9,46,-117,122,366,361,458,1293
63,-4,-68,-29,65,-36,-87,200,453,448,536,1395
126,-24,-151,-51,139,-87,-19,317,610,619,673,1507
214,-19,-234,-97,224,-126,73,458,810,824,771,1512
195,-82,-278,-56,236,-180,165,595,1010,1015,736,1293
102,-200,-302,48,202,-251,244,727,1171,1132,551,941
68,-278,-346,104,207,-312,331,854,1317,1176,253,541
78,-292,-370,107,224,-331,419,946,1385,1107,-112,126
19,-307,-326,143,173,-317,463,976,1371,956,-507,-258
-97,-341,-244,219,73,-292,512,985,1346,775,-917,-683
-185,-361,-175,273,-4,-268,575,1005,1327,610,-1263,-1146
-234,-366,-131,300,-51,-248,614,995,1278,429,-1517,-1517
-278,-361,-82,319,-97,-222,658,956,1220,248,-1708,-1732
-326,-341,-14,334,-156,-178,732,985,1249,151,-1830,-1859
-370,-356,14,363,-192,-170,814,1068,1351,112,-1917,-1966
-419,-370,48,395,-234,-161,888,1141,1434,82,-1991,-1995
-478,-356,122,417,-300,-117,941,1176,1488,58,-1961,-1908
-478,-317,161,397,-319,-78,951,1180,1488,-14,-1878,-1800
-463,-317,146,390,-305,-85,966,1166,1424,-156,-1810,-1717
-473,-336,136,405,-305,-100,1029,1205,1415,-244,-1693,-1600
-478,-336,141,407,-309,-97,1049,1249,1454,-219,-1522,-1459
-429,-307,122,368,-275,-92,995,1220,1424,-234,-1366,-1327
-385,-292,92,339,-239,-100,907,1102,1273,-341,-1278,-1224
-361,-263,97,312,-229,-82,854,1005,1132,-419,-1195,-1127
-326,-209,117,268,-222,-46,805,927,1039,-463,-1141,-1054
-307,-180,126,244,-217,-26,741,829,936,-517,-1107,-1010
-356,-204,151,280,-253,-26,707,761,849,-580,-1078,-966
-356,-175,180,265,-268,2,697,736,844,-580,-1015,-907
-292,-107,185,200,-239,39,688,722,844,-566,-951,-854
-283,-126,156,204,-219,14,683,712,795,-614,-927,-839
-336,-185,151,261,-244,-17,707,712,732,-673,-893,-810
-336,-185,151,261,-244,-17,751,732,697,-692,-844,-761
-307,-165,141,236,-224,-12,766,736,668,-697,-810,-732
-317,-151,165,234,-241,7,790,761,614,-732,-810,-722
-341,-141,200,241,-270,29,819,780,566,-785,-814,-717
-346,-131,214,239,-280,41,829,756,492,-824,-819,-707
-326,-117,209,222,-268,46,819,697,380,-854,-795,-688
-331,-112,219,222,-275,53,844,668,297,-854,-751,-644
-341,-117,224,229,-283,53,873,649,239,-854,-722,-610
-331,-117,214,224,-273,48,907,644,190,-839,-688,-590
-326,-126,200,226,-263,36,946,658,131,-819,-639,-570
-336,-151,185,244,-261,17,976,639,58,-810,-624,-551
-336,-190,146,263,-241,-21,976,614,-9,-819,-644,-556
-317,-200,117,258,-217,-41,966,580,-73,-824,-653,-566
-297,-200,97,248,-197,-51,932,561,-117,-814,-639,-556
-292,-214,78,253,-185,-68,849,536,-141,-790,-590,-522
-258,-229,29,244,-143,-100,751,517,-161,-751,-531,-473
-234,-229,4,231,-119,-112,678,468,-195,-722,-473,-419
-239,-234,4,236,-122,-114,595,385,-214,-683,-414,-370
-244,-204,39,224,-141,-82,497,283,-234,-629,-370,-336
-209,-175,34,192,-122,-70,390,185,-244,-575,-336,-307
-170,-180,-9,175,-80,-95,273,92,-253,-536,-302,-287
-156,-180,-24,168,-65,-102,170,-9,-268,-502,-278,-273
-161,-165,-4,163,-78,-85,78,-107,-263,-468,-239,-248
-136,-122,14,129,-75,-53,0,-131,-244,-429,-185,-200
-92,-58,34,75,-63,-12,-24,-117,-200,-395,-112,-146
-92,-24,68,58,-80,21,-34,-122,-185,-375,-82,-112
-107,-34,73,70,-90,19,-53,-156,-209,-380,-78,-117
-102,-48,53,75,-78,2,-73,-161,-209,-366,-78,-117
-102,-48,53,75,-78,2,-68,-151,-204,-351,-78,-117
-97,-43,53,70,-75,4,-53,-131,-195,-331,-82,-136
-78,-24,53,51,-65,14,-39,-107,-175,-322,-58,-126
-78,-9,68,43,-73,29,-24,-102,-165,-317,-39,-107
-107,-39,68,73,-87,14,-34,-131,-175,-331,-34,-97
-107,-48,58,78,-82,4,-39,-161,-195,-331,-24,-78
-112,-43,68,78,-90,12,-53,-170,-209,-326,-14,-78
-117,-48,68,82,-92,9,-53,-185,-214,-322,-14,-78
-122,-53,68,87,-95,7,-58,-190,-214,-322,-19,-78
-122,-53,68,87,-95,7,-48,-185,-209,-312,-29,-87
-122,-53,68,87,-95,7,-43,-185,-209,-312,-29,-87
-112,-53,58,82,-85,2,-43,-190,-209,-312,-14,-87
-102,-48,53,75,-78,2,-43,-190,-209,-317,-9,-82
-102,-43,58,73,-80,7,-39,-195,-204,-317,0,-63
-97,-29,68,63,-82,19,-39,-200,-209,-312,9,-58
-97,-24,73,61,-85,24,-39,-204,-214,-312,14,-58
-107,-24,82,65,-95,29,-39,-209,-214,-322,19,-53
-87,-14,73,51,-80,29,-48,-209,-204,-302,19,-58
-58,-4,53,31,-56,24,-43,-204,-200,-302,29,-58
-58,-4,53,31,-56,24,-39,-204,-200,-302,34,-53
-58,-14,43,36,-51,14,-39,-209,-209,-312,34,-53
-68,-34,34,51,-51,0,-53,-224,-214,-317,34,-53
-73,-34,39,53,-56,2,-58,-234,-219,-322,34,-63
-78,-34,43,56,-61,4,-63,-234,-219,-326,34,-63
-87,-34,53,61,-70,9,-68,-234,-224,-326,29,-68
-87,-43,43,65,-65,0,-68,-219,-224,-317,29,-58
-82,-34,48,58,-65,7,-68,-214,-224,-317,34,-58
-78,-43,34,61,-56,-4,-78,-209,-234,-317,34,-58
-78,-48,29,63,-53,-9,-87,-209,-234,-322,34,-58
-82,-39,43,61,-63,2,-87,-214,-239,-317,48,-63
-82,-39,43,61,-63,2,-87,-219,-248,-326,48,-63
-78,-34,43,56,-61,4,-87,-219,-248,-326,53,-68
-73,0,73,36,-73,36,-87,-214,-244,-326,53,-73
-58,9,68,24,-63,39,-87,-204,-244,-331,63,-63
-63,4,68,29,-65,36,-87,-204,-248,-331,68,-68
-68,-4,63,36,-65,29,-87,-204,-248,-331,68,-68
-48,-4,43,26,-46,19,-92,-209,-253,-331,68,-68
-34,-4,29,19,-31,12,-97,-209,-253,-331,78,-63
-43,-9,34,26,-39,12,-102,-209,-253,-326,87,-63
-48,-14,34,31,-41,9,-107,-214,-248,-322,87,-68
-48,-19,29,34,-39,4,-117,-214,-248,-326,82,-68
-58,-24,34,41,-46,4,-126,-224,-258,-336,92,-63
-58,-29,29,43,-43,0,-131,-229,-263,-336,92,-63
-63,-34,29,48,-46,-2,-141,-244,-273,-341,87,-63
-68,-43,24,56,-46,-9,-151,-248,-283,-341,82,-73
-53,-43,9,48,-31,-17,-161,-239,-278,-341,97,-58
-58,-48,9,53,-34,-19,-165,-244,-273,-341,97,-58
-53,-43,9,48,-31,-17,-165,-248,-283,-346,102,-53
-43,-34,9,39,-26,-12,-170,-253,-283,-341,107,-48
-34,-29,4,31,-19,-12,-165,-273,-297,-361,102,-58
-34,-34,0,34,-17,-17,-165,-292,-302,-366,87,-58
-34,-34,0,34,-17,-17,-165,-302,-312,-370,82,-58
-29,-29,0,29,-14,-14,-165,-312,-317,-370,82,-58
-34,-43,-9,39,-12,-26,-156,-326,-317,-375,78,-43
-39,-53,-14,46,-12,-34,-151,-331,-322,-380,78,-39
-43,-63,-19,53,-12,-41,-146,-336,-326,-385,78,-39
-43,-73,-29,58,-7,-51,-146,-346,-326,-395,73,-34
-53,-68,-14,61,-19,-41,-131,-346,-326,-390,82,-24
-68,-73,-4,70,-31,-39,-131,-351,-331,-390,82,-19
-68,-68,0,68,-34,-34,-131,-351,-331,-390,82,-19
-58,-58,0,58,-29,-29,-131,-356,-336,-390,82,-14
-43,-63,-19,53,-12,-41,-151,-361,-341,-390,78,-14
-43,-68,-24,56,-9,-46,-161,-370,-341,-385,87,0
-48,-82,-34,65,-7,-58,-175,-380,-346,-385,97,9
-48,-87,-39,68,-4,-63,-200,-385,-346,-385,97,9
-48,-97,-48,73,0,-73,-195,-385,-341,-395,92,29
-43,-92,-48,68,2,-70,-200,-385,-346,-395,92,39
-39,-92,-53,65,7,-73,-204,-385,-346,-390,92,43
-24,-82,-58,53,17,-70,-204,-375,-341,-385,97,53
-14,-73,-58,43,21,-65,-209,-366,-331,-380,97,68
-9,-73,-63,41,26,-68,-219,-366,-326,-380,92,68
-19,-73,-53,46,17,-63,-224,-366,-312,-380,92,73
-19,-73,-53,46,17,-63,-229,-366,-307,-370,102,87
-24,-68,-43,46,9,-56,-224,-361,-297,-356,107,97
-29,-68,-39,48,4,-53,-224,-361,-287,-356,107,102
-29,-68,-39,48,4,-53,-219,-351,-278,-346,107,112
-34,-63,-29,48,-2,-46,-214,-346,-263,-341,107,122
-19,-53,-34,36,7,-43,-204,-326,-244,-331,107,131
-14,-39,-24,26,4,-31,-204,-317,-234,-317,117,146
-4,-24,-19,14,7,-21,-195,-307,-209,-307,126,161
0,-19,-19,9,9,-19,-195,-297,-190,-297,126,175
9,-29,-39,9,24,-34,-185,-283,-161,-283,126,180
4,-29,-34,12,19,-31,-185,-278,-151,-268,131,190
4,-19,-24,7,14,-21,-175,-273,-131,-253,136,190
14,-14,-29,0,21,-21,-175,-263,-112,-239,141,204
4,-4,-9,0,7,-7,-190,-268,-102,-219,131,209
4,-4,-9,0,7,-7,-190,-263,-92,-209,131,214
0,-4,-4,2,2,-4,-190,-248,-73,-204,126,214
4,4,0,-4,2,2,-190,-239,-53,-195,122,219
4,19,14,-12,-4,17,-175,-219,-43,-165,126,219
4,24,19,-14,-7,21,-175,-219,-29,-161,131,224
4,19,14,-12,-4,17,-170,-200,-14,-151,146,224
-14,24,39,-4,-26,31,-161,-185,0,-131,151,234
-14,24,39,-4,-26,31,-161,-190,4,-131,146,224
0,48,48,-24,-24,48,-156,-180,29,-112,146,229
0,48,48,-24,-24,48,-156,-175,48,-117,146,224
-4,39,43,-17,-24,41,-156,-165,58,-117,146,224
-14,43,58,-14,-36,51,-161,-161,68,-117,146,209
0,58,58,-29,-29,58,-156,-156,73,-97,141,214
0,73,73,-36,-36,73,-151,-151,78,-78,146,229
-4,63,68,-29,-36,65,-146,-136,87,-63,141,224
-9,68,78,-29,-43,73,-146,-122,97,-63,122,214
-4,78,82,-36,-43,80,-146,-117,107,-58,126,204
0,78,78,-39,-39,78,-141,-117,117,-63,117,195
4,78,73,-41,-34,75,-136,-112,131,-58,112,185
-4,68,73,-31,-39,70,-122,-97,146,-53,107,165
-14,73,87,-29,-51,80,-112,-87,156,-39,102,156
-24,73,97,-24,-61,85,-97,-73,170,-34,102,146
-43,73,117,-14,-80,95,-78,-58,185,-14,97,131
-43,73,117,-14,-80,95,-68,-58,185,-24,78,112
-34,73,107,-19,-70,90,-53,-53,195,-14,73,97
-34,82,117,-24,-75,100,-39,-48,204,-9,53,82
-34,87,122,-26,-78,104,-34,-39,204,-14,48,68
-39,92,131,-26,-85,112,-34,-39,195,-19,39,53
-39,97,136,-29,-87,117,-24,-39,200,-29,24,29
-43,92,136,-24,-90,114,-24,-43,190,-34,4,19
-68,78,146,-4,-107,112,-29,-58,170,-29,-19,-4
-58,58,117,0,-87,87,-39,-63,170,-48,-29,-19
-63,53,117,4,-90,85,-53,-68,165,-58,-29,-24
-68,53,122,7,-95,87,-48,-73,161,-63,-53,-43
-73,53,126,9,-100,90,-48,-78,161,-68,-68,-53
-68,63,131,2,-100,97,-43,-68,175,-78,-63,-48
-68,68,136,0,-102,102,-29,-63,185,-78,-63,-53
-73,73,146,0,-109,109,-19,-63,170,-78,-63,-68
-68,78,146,-4,-107,112,-14,-63,165,-82,-73,-73
-82,68,151,7,-117,109,-14,-63,161,-92,-68,-78
-78,68,146,4,-112,107,-14,-63,146,-97,-73,-92
-82,58,141,12,-112,100,-14,-68,141,-112,-87,-107
-102,48,151,26,-126,100,-14,-63,141,-112,-97,-112
-97,48,146,24,-122,97,-9,-73,126,-122,-112,-117
-92,43,136,24,-114,90,-9,-73,117,-122,-122,-126
-97,39,136,29,-117,87,-9,-73,107,-131,-131,-136
-92,39,131,26,-112,85,0,-73,97,-141,-136,-131
-82,48,131,17,-107,90,0,-78,102,-136,-141,-131
-68,58,126,4,-97,92,0,-82,92,-146,-141,-131
-58,58,117,0,-87,87,9,-87,82,-146,-141,-126
-58,63,122,-2,-90,92,9,-97,82,-151,-146,-131
-73,48,122,12,-97,85,-4,-92,87,-161,-156,-146
-73,48,122,12,-97,85,-4,-97,87,-165,-156,-151
-78,53,131,12,-104,92,-4,-102,82,-165,-151,-146
-68,53,122,7,-95,87,4,-107,102,-165,-141,-136
-63,53,117,4,-90,85,4,-97,136,-165,-141,-146
-73,39,112,17,-92,75,4,-92,146,-165,-151,-146
-87,34,122,26,-104,78,4,-92,156,-165,-151,-146
-82,34,117,24,-100,75,4,-92,175,-165,-151,-151
-82,24,107,29,-95,65,14,-82,204,-156,-151,-146
-82,19,102,31,-92,61,14,-82,219,-165,-156,-156
-82,9,92,36,-87,51,19,-82,234,-165,-161,-161
-82,4,87,39,-85,46,19,-78,248,-161,-161,-165
-92,4,97,43,-95,51,29,-78,263,-170,-161,-165
-97,14,112,41,-104,63,34,-78,268,-170,-161,-165
-92,19,112,36,-102,65,43,-78,278,-175,-161,-161
-97,4,102,46,-100,53,43,-78,283,-175,-161,-165
-102,4,107,48,-104,56,43,-82,283,-175,-170,-161
-107,14,122,46,-114,68,53,-82,283,-175,-165,-156
-102,24,126,39,-114,75,53,-78,278,-170,-165,-151
-97,34,131,31,-114,82,48,-82,278,-170,-165,-146
-87,29,117,29,-102,73,39,-112,268,-180,-156,-146
-78,39,117,19,-97,78,29,-131,258,-185,-156,-146
-78,39,117,19,-97,78,19,-151,248,-195,-156,-151
-78,39,117,19,-97,78,9,-170,239,-204,-156,-151
-92,19,112,36,-102,65,-19,-195,229,-204,-151,-146
-97,9,107,43,-102,58,-29,-204,224,-219,-156,-141
-102,4,107,48,-104,56,-43,-214,219,-219,-161,-136
-117,0,117,58,-117,58,-53,-229,219,-214,-161,-126
-112,19,131,46,-122,75,-68,-224,229,-204,-151,-117
-102,29,131,36,-117,80,-73,-224,229,-204,-146,-112
-87,29,117,29,-102,73,-78,-214,234,-204,-141,-107
-68,53,122,7,-95,87,-82,-204,234,-209,-136,-97
-78,43,122,17,-100,82,-97,-200,239,-209,-146,-97
-78,39,117,19,-97,78,-107,-200,244,-204,-146,-92
-78,43,122,17,-100,82,-112,-209,244,-195,-141,-87
-73,43,117,14,-95,80,-117,-209,248,-185,-136,-78
-48,39,87,4,-68,63,-117,-200,258,-195,-136,-78
-63,39,102,12,-82,70,-117,-195,258,-195,-141,-78
-82,19,102,31,-92,61,-117,-190,253,-204,-146,-82
-82,19,102,31,-92,61,-117,-190,248,-214,-151,-78
-87,24,112,31,-100,68,-107,-185,244,-200,-161,-73
-87,24,112,31,-100,68,-102,-175,253,-190,-151,-68
-82,24,107,29,-95,65,-107,-165,263,-180,-151,-68
-82,24,107,29,-95,65,-102,-156,268,-175,-151,-63
-68,19,87,24,-78,53,-97,-151,268,-185,-156,-63
-48,29,78,9,-63,53,-97,-151,263,-185,-161,-63
-48,29,78,9,-63,53,-97,-151,263,-185,-161,-58
-53,29,82,12,-68,56,-92,-151,268,-175,-165,-53
-53,19,73,17,-63,46,-97,-146,273,-185,-156,-58
-43,19,63,12,-53,41,-92,-141,273,-175,-156,-53
-43,29,73,7,-58,51,-82,-126,278,-165,-151,-43
-48,29,78,9,-63,53,-78,-131,278,-165,-151,-48
-73,9,82,31,-78,46,-78,-131,287,-161,-141,-63
-73,9,82,31,-78,46,-73,-126,283,-161,-141,-63
-73,9,82,31,-78,46,-63,-117,278,-161,-141,-53
-82,9,92,36,-87,51,-58,-107,283,-161,-141,-43
-68,24,92,21,-80,58,-63,-97,287,-161,-141,-48
-63,29,92,17,-78,61,-58,-97,292,-151,-146,-53
-53,39,92,7,-73,65,-58,-97,297,-151,-151,-58
-48,43,92,2,-70,68,-58,-92,307,-151,-156,-63
-39,24,63,7,-51,43,-68,-102,302,-151,-156,-73
-34,34,68,0,-51,51,-58,-92,302,-161,-156,-68
-19,48,68,-14,-43,58,-53,-87,307,-161,-151,-58
-19,48,68,-14,-43,58,-48,-82,307,-161,-151,-58
-29,34,63,-2,-46,48,-34,-73,312,-156,-141,-63
-29,34,63,-2,-46,48,-29,-73,317,-156,-141,-63
-29,39,68,-4,-48,53,-29,-73,317,-146,-151,-63
-29,39,68,-4,-48,53,-29,-73,317,-136,-156,-63
-39,29,68,4,-53,48,-24,-58,317,-141,-156,-63
-39,29,68,4,-53,48,-24,-58,317,-141,-151,-63
-34,29,63,2,-48,46,-24,-58,312,-141,-151,-63
-34,29,63,2,-48,46,-19,-58,312,-141,-146,-68
-29,34,63,-2,-46,48,-24,-68,297,-156,-156,-68
-29,34,63,-2,-46,48,-29,-68,297,-156,-156,-68
-34,34,68,0,-51,51,-29,-68,302,-156,-156,-78
-39,29,68,4,-53,48,-34,-68,302,-156,-156,-87
-48,29,78,9,-63,53,-48,-68,302,-151,-156,-87
-43,29,73,7,-58,51,-63,-68,297,-151,-151,-82
-43,29,73,7,-58,51,-68,-78,292,-151,-151,-82
-43,29,73,7,-58,51,-73,-87,283,-165,-151,-82
-53,34,87,9,-70,61,-78,-102,278,-170,-151,-82
-53,34,87,9,-70,61,-82,-112,273,-175,-161,-78
-58,34,92,12,-75,63,-82,-122,268,-175,-161,-68
-68,29,97,19,-82,63,-82,-126,263,-175,-165,-63
-68,34,102,17,-85,68,-87,-136,258,-180,-165,-53
-58,39,97,9,-78,68,-82,-141,253,-185,-165,-63
-53,43,97,4,-75,70,-78,-146,248,-200,-170,-68
-53,53,107,0,-80,80,-73,-151,244,-200,-170,-73
-53,58,112,-2,-82,85,-78,-156,234,-200,-170,-68
-68,58,126,4,-97,92,-78,-151,234,-200,-170,-73
-63,58,122,2,-92,90,-73,-156,234,-209,-175,-73
-58,63,122,-2,-90,92,-68,-161,229,-219,-175,-78
-68,53,122,7,-95,87,-78,-170,219,-209,-180,-87
-78,48,126,14,-102,87,-87,-175,219,-209,-185,-87
-82,48,131,17,-107,90,-87,-185,219,-219,-185,-87
-78,48,126,14,-102,87,-78,-204,204,-219,-185,-87
-82,43,126,19,-104,85,-97,-204,204,-200,-180,-92
-82,48,131,17,-107,90,-97,-204,204,-209,-180,-92
-78,53,131,12,-104,92,-97,-195,214,-209,-180,-92
-78,39,117,19,-97,78,-97,-195,219,-209,-180,-97
-78,43,122,17,-100,82,-97,-200,219,-209,-185,-92
-73,43,117,14,-95,80,-97,-195,219,-209,-185,-97
-68,43,112,12,-90,78,-97,-195,229,-219,-190,-92
-63,53,117,4,-90,85,-97,-190,239,-219,-190,-92
-58,43,102,7,-80,73,-102,-180,239,-209,-190,-102
-63,34,97,14,-80,65,-102,-180,219,-219,-195,-102
-78,14,92,31,-85,53,-102,-180,219,-224,-195,-102
-82,4,87,39,-85,46,-102,-180,219,-229,-200,-102
-73,9,82,31,-78,46,-112,-180,214,-234,-214,-107
-68,9,78,29,-73,43,-112,-185,214,-239,-214,-107
-63,9,73,26,-68,41,-102,-190,209,-239,-214,-107
-63,0,63,31,-63,31,-92,-195,209,-239,-219,-107
-82,4,87,39,-85,46,-87,-190,224,-229,-214,-107
-82,9,92,36,-87,51,-82,-185,224,-224,-209,-107
-82,14,97,34,-90,56,-78,-180,219,-224,-209,-107
-87,19,107,34,-97,63,-73,-175,219,-229,-209,-102
-82,9,92,36,-87,51,-73,-165,224,-229,-214,-102
-78,9,87,34,-82,48,-63,-161,229,-224,-214,-107
-58,9,68,24,-63,39,-53,-151,224,-229,-214,-107
-39,9,48,14,-43,29,-43,-141,219,-234,-214,-107
-34,19,53,7,-43,36,-53,-141,224,-229,-224,-117
-34,19,53,7,-43,36,-58,-146,219,-229,-224,-126
-43,9,53,17,-48,31,-58,-151,219,-234,-229,-131
-43,14,58,14,-51,36,-58,-156,219,-234,-229,-136
-43,9,53,17,-48,31,-53,-151,234,-229,-224,-126
-43,19,63,12,-53,41,-53,-141,239,-224,-219,-126
-48,9,58,19,-53,34,-48,-136,244,-224,-219,-122
-53,4,58,24,-56,31,-29,-126,248,-219,-214,-112
-53,-9,43,31,-48,17,-39,-131,248,-229,-229,-126
-68,-24,43,46,-56,9,-43,-136,244,-234,-234,-141
-68,-14,53,41,-61,19,-43,-136,244,-229,-239,-146
-63,-19,43,41,-53,12,-43,-136,244,-229,-239,-141
-58,-19,39,39,-48,9,-43,-136,248,-234,-234,-131
-63,-24,39,43,-51,7,-48,-126,248,-234,-229,-131
-73,-29,43,51,-58,7,-53,-117,248,-234,-224,-131
-58,-4,53,31,-56,24,-53,-117,244,-234,-219,-136
-48,0,48,24,-48,24,-58,-112,258,-219,-219,-126
-58,-4,53,31,-56,24,-58,-112,263,-214,-214,-117
-63,0,63,31,-63,31,-48,-112,268,-214,-214,-117
-63,14,78,24,-70,46,-48,-112,273,-214,-214,-117
-43,24,68,9,-56,46,-63,-117,268,-219,-219,-117
-24,34,58,-4,-41,46,-82,-117,268,-200,-214,-117
-34,34,68,0,-51,51,-102,-122,263,-204,-214,-122
-39,19,58,9,-48,39,-122,-131,248,-209,-214,-141
-43,9,53,17,-48,31,-126,-122,248,-219,-204,-146
-43,19,63,12,-53,41,-131,-126,253,-219,-195,-141
-29,34,63,-2,-46,48,-136,-126,263,-219,-195,-126
-24,34,58,-4,-41,46,-151,-131,268,-224,-204,-117
-34,34,68,0,-51,51,-156,-126,268,-214,-204,-102
-43,34,78,4,-61,56,-151,-122,268,-209,-200,-102
-53,29,82,12,-68,56,-146,-117,268,-209,-195,-107
-29,24,53,2,-41,39,-141,-112,268,-214,-195,-112
-39,29,68,4,-53,48,-126,-112,273,-209,-190,-112
-48,34,82,7,-65,58,-126,-122,278,-209,-195,-112
-39,34,73,2,-56,53,-126,-122,283,-214,-200,-117
-39,29,68,4,-53,48,-122,-126,283,-219,-200,-117
-43,19,63,12,-53,41,-131,-126,273,-214,-209,-112
-43,19,63,12,-53,41,-131,-126,283,-214,-200,-112
-34,19,53,7,-43,36,-131,-126,283,-214,-195,-112
-34,19,53,7,-43,36,-131,-126,273,-214,-195,-112
-39,-4,34,21,-36,14,-131,-131,263,-214,-214,-122
-39,-4,34,21,-36,14,-122,-146,253,-214,-204,-122
-34,4,39,14,-36,21,-112,-151,253,-214,-200,-122
-19,9,29,4,-24,19,-107,-156,253,-214,-190,-122
-39,-4,34,21,-36,14,-112,-165,244,-224,-209,-131
-63,-9,53,36,-58,21,-107,-175,239,-234,-219,-131
-73,-24,48,48,-61,12,-102,-175,239,-234,-219,-131
-73,-14,58,43,-65,21,-97,-175,239,-229,-219,-136
-63,0,63,31,-63,31,-107,-190,234,-239,-224,-126
-68,4,73,31,-70,39,-112,-200,224,-239,-224,-131
-78,4,82,36,-80,43,-112,-214,214,-244,-229,-136
-78,4,82,36,-80,43,-112,-219,209,-244,-229,-136
-63,14,78,24,-70,46,-102,-209,219,-244,-219,-131
-48,34,82,7,-65,58,-97,-204,214,-244,-219,-122
-39,34,73,2,-56,53,-97,-200,209,-244,-224,-131
-34,29,63,2,-48,46,-92,-195,209,-248,-234,-136
-48,0,48,24,-48,24,-102,-195,219,-248,-224,-136
-53,19,73,17,-63,46,-92,-185,229,-234,-209,-131
-48,29,78,9,-63,53,-87,-170,219,-219,-209,-126
-48,19,68,14,-58,43,-87,-165,224,-214,-204,-126
-48,14,63,17,-56,39,-97,-175,219,-229,-209,-136
-48,9,58,19,-53,34,-97,-175,214,-234,-214,-136
-48,4,53,21,-51,29,-97,-175,209,-239,-219,-136
-48,0,48,24,-48,24,-97,-175,204,-244,-224,-136
-58,0,58,29,-58,29,-102,-170,209,-239,-219,-126
-58,0,58,29,-58,29,-107,-165,214,-234,-214,-126
-58,0,58,29,-58,29,-112,-161,219,-229,-209,-126
-58,0,58,29,-58,29,-117,-156,224,-224,-204,-126
-58,9,68,24,-63,39,-131,-156,224,-224,-214,-117
-58,9,68,24,-63,39,-136,-156,224,-224,-214,-117
-58,9,68,24,-63,39,-141,-156,224,-224,-214,-117
-58,9,68,24,-63,39,-146,-156,224,-224,-214,-117
-53,9,63,21,-58,36,-156,-161,224,-224,-214,-126
-48,9,58,19,-53,34,-156,-165,224,-224,-214,-126
-43,9,53,17,-48,31,-156,-170,224,-224,-214,-126
-39,9,48,14,-43,29,-156,-175,224,-224,-214,-126
-48,0,48,24,-48,24,-165,-180,209,-224,-214,-136
-48,0,48,24,-48,24,-165,-185,204,-224,-214,-136
-48,0,48,24,-48,24,-165,-190,200,-224,-214,-136
-48,0,48,24,-48,24,-165,-195,195,-224,-214,-136
-48,0,48,24,-48,24,-161,-180,200,-214,-214,-136
-48,0,48,24,-48,24,-156,-175,204,-214,-214,-136
-48,0,48,24,-48,24,-151,-170,209,-214,-214,-136
-48,0,48,24,-48,24,-146,-165,214,-214,-214,-136
-39,14,53,12,-46,34,-136,-161,219,-214,-209,-136
-39,19,58,9,-48,39,-126,-156,224,-214,-204,-136
-39,24,63,7,-51,43,-117,-151,229,-214,-200,-136
-39,29,68,4,-53,48,-107,-146,234,-214,-195,-136
-48,29,78,9,-63,53,-107,-141,239,-209,-190,-131
-48,29,78,9,-63,53,-107,-136,244,-204,-185,-126
-48,29,78,9,-63,53,-107,-131,248,-200,-180,-122
-48,29,78,9,-63,53,-107,-126,253,-195,-175,-117
-48,39,87,4,-68,63,-92,-126,253,-185,-175,-126
-48,39,87,4,-68,63,-87,-126,253,-185,-175,-126
-48,39,87,4,-68,63,-82,-126,253,-185,-175,-126
-48,39,87,4,-68,63,-78,-126,253,-185,-175,-126
-48,29,78,9,-63,53,-63,-136,253,-185,-175,-126
-48,29,78,9,-63,53,-58,-136,253,-185,-175,-126
-48,29,78,9,-63,53,-53,-136,253,-185,-175,-126
-48,29,78,9,-63,53,-48,-136,253,-185,-175,-126
-58,24,82,17,-70,53,-48,-136,244,-195,-185,-136
-58,19,78,19,-68,48,-48,-136,244,-195,-185,-136
-58,14,73,21,-65,43,-48,-136,244,-195,-185,-136
-58,9,68,24,-63,39,-48,-136,244,-195,-185,-136
-53,24,78,14,-65,51,-43,-131,248,-180,-180,-131
-48,29,78,9,-63,53,-39,-126,253,-175,-175,-126
-43,34,78,4,-61,56,-34,-122,258,-170,-170,-122
-39,39,78,0,-58,58,-29,-117,263,-165,-165,-117
-48,34,82,7,-65,58,-29,-117,263,-170,-175,-117
-48,29,78,9,-63,53,-29,-117,263,-175,-175,-117
-48,24,73,12,-61,48,-29,-117,263,-180,-175,-117
-48,19,68,14,-58,43,-29,-117,263,-185,-175,-117
-48,9,58,19,-53,34,-39,-107,273,-175,-175,-117
-48,9,58,19,-53,34,-39,-107,273,-175,-175,-117
-48,9,58,19,-53,34,-39,-107,273,-175,-175,-117
-48,9,58,19,-53,34,-39,-107,273,-175,-175,-117
-34,9,43,12,-39,26,-43,-97,283,-165,-165,-107
-29,9,39,9,-34,24,-48,-97,283,-165,-165,-107
-24,9,34,7,-29,21,-53,-97,283,-165,-165,-107
-19,9,29,4,-24,19,-58,-97,283,-165,-165,-107
-19,0,19,9,-19,9,-68,-97,273,-175,-165,-97
-19,0,19,9,-19,9,-78,-97,273,-175,-165,-97
-19,0,19,9,-19,9,-87,-97,273,-175,-165,-97
-19,0,19,9,-19,9,-97,-97,273,-175,-165,-97
-4,14,19,-4,-12,17,-112,-107,263,-175,-156,-97
0,19,19,-9,-9,19,-117,-107,263,-175,-156,-97
4,24,19,-14,-7,21,-122,-107,263,-175,-156,-97
9,29,19,-19,-4,24,-126,-107,263,-175,-156,-97
0,19,19,-9,-9,19,-126,-117,248,-175,-165,-107
0,19,19,-9,-9,19,-126,-126,244,-175,-165,-107
0,19,19,-9,-9,19,-126,-136,239,-175,-165,-107
0,19,19,-9,-9,19,-126,-146,234,-175,-165,-107
-9,9,19,0,-14,14,-126,-146,234,-185,-165,-107
-9,9,19,0,-14,14,-126,-146,234,-185,-165,-107
-9,9,19,0,-14,14,-126,-146,234,-185,-165,-107
-9,9,19,0,-14,14,-126,-146,234,-185,-165,-107
0,14,14,-7,-7,14,-117,-146,224,-195,-175,-112
0,19,19,-9,-9,19,-117,-146,224,-195,-175,-117
0,24,24,-12,-12,24,-117,-146,224,-195,-175,-122
0,29,29,-14,-14,29,-117,-146,224,-195,-175,-126
-14,19,34,-2,-24,26,-117,-156,214,-195,-185,-117
-19,19,39,0,-29,29,-117,-156,214,-195,-185,-117
-24,19,43,2,-34,31,-117,-156,214,-195,-185,-117
-29,19,48,4,-39,34,-117,-156,214,-195,-185,-117
-14,29,43,-7,-29,36,-102,-165,224,-185,-175,-112
-9,39,48,-14,-29,43,-97,-165,224,-185,-175,-107
-4,48,53,-21,-29,51,-92,-165,224,-185,-175,-102
0,58,58,-29,-29,58,-87,-165,224,-185,-175,-97
0,58,58,-29,-29,58,-82,-161,234,-175,-170,-107
0,58,58,-29,-29,58,-78,-156,234,-175,-165,-107
0,58,58,-29,-29,58,-73,-151,234,-175,-161,-107
0,58,58,-29,-29,58,-68,-146,234,-175,-156,-107
-4,48,53,-21,-29,51,-53,-141,234,-175,-146,-107
-9,48,58,-19,-34,53,-48,-136,234,-175,-146,-107
-14,48,63,-17,-39,56,-43,-131,234,-175,-146,-107
-19,48,68,-14,-43,58,-39,-126,234,-175,-146,-107
-24,48,73,-12,-48,61,-34,-117,239,-161,-136,-102
-29,48,78,-9,-53,63,-29,-117,244,-156,-136,-97
-34,48,82,-7,-58,65,-24,-117,248,-151,-136,-92
-39,48,87,-4,-63,68,-19,-117,253,-146,-136,-87
-34,53,87,-9,-61,70,-14,-112,263,-146,-131,-78
-29,58,87,-14,-58,73,-9,-107,263,-146,-126,-78
-24,63,87,-19,-56,75,-4,-102,263,-146,-122,-78
-19,68,87,-24,-53,78,0,-97,263,-146,-117,-78
-19,78,97,-29,-58,87,9,-92,273,-136,-117,-78
-19,78,97,-29,-58,87,9,-87,273,-136,-117,-78
-19,78,97,-29,-58,87,9,-82,273,-136,-117,-78
-19,78,97,-29,-58,87,9,-78,273,-136,-117,-78
-29,73,102,-21,-65,87,14,-78,273,-146,-117,-78
-29,68,97,-19,-63,82,19,-78,273,-146,-117,-78
-29,63,92,-17,-61,78,24,-78,273,-146,-117,-78
-29,58,87,-14,-58,73,29,-78,273,-146,-117,-78
-14,68,82,-26,-48,75,24,-78,263,-146,-126,-87
-9,68,78,-29,-43,73,19,-78,263,-146,-126,-87
-4,68,73,-31,-39,70,14,-78,263,-146,-126,-87
0,68,68,-34,-34,68,9,-78,263,-146,-126,-87
0,68,68,-34,-34,68,-14,-82,263,-136,-126,-78
0,68,68,-34,-34,68,-29,-87,263,-136,-126,-78
0,68,68,-34,-34,68,-43,-92,263,-136,-126,-78
0,68,68,-34,-34,68,-58,-97,263,-136,-126,-78
9,58,48,-34,-19,53,-87,-102,248,-136,-126,-78
9,58,48,-34,-19,53,-107,-107,244,-136,-126,-78
9,58,48,-34,-19,53,-126,-112,239,-136,-126,-78
9,58,48,-34,-19,53,-146,-117,234,-136,-126,-78
14,53,39,-34,-12,46,-156,-117,219,-151,-136,-87
19,48,29,-34,-4,39,-156,-117,214,-156,-136,-87
24,43,19,-34,2,31,-156,-117,209,-161,-136,-87
29,39,9,-34,9,24,-156,-117,204,-165,-136,-87
19,34,14,-26,2,24,-165,-122,200,-175,-146,-97
19,29,9,-24,4,19,-175,-126,195,-175,-146,-97
19,24,4,-21,7,14,-185,-131,190,-175,-146,-97
19,19,0,-19,9,9,-195,-136,185,-175,-146,-97
9,9,0,-9,4,4,-180,-146,180,-175,-146,-97
9,9,0,-9,4,4,-175,-146,175,-175,-146,-97
9,9,0,-9,4,4,-170,-146,170,-175,-146,-97
9,9,0,-9,4,4,-165,-146,165,-175,-146,-97
0,14,14,-7,-7,14,-156,-131,180,-165,-136,-87
0,19,19,-9,-9,19,-146,-126,185,-165,-136,-87
0,24,24,-12,-12,24,-136,-122,190,-165,-136,-87
0,29,29,-14,-14,29,-126,-117,195,-165,-136,-87
0,24,24,-12,-12,24,-107,-122,185,-170,-141,-92
0,19,19,-9,-9,19,-97,-126,185,-175,-146,-97
0,14,14,-7,-7,14,-87,-131,185,-180,-151,-102
0,9,9,-4,-4,9,-78,-136,185,-185,-156,-107
-14,0,14,7,-14,7,-73,-151,180,-190,-165,-117
-19,0,19,9,-19,9,-68,-156,175,-195,-165,-117
-24,0,24,12,-24,12,-63,-161,170,-200,-165,-117
-29,0,29,14,-29,14,-58,-165,165,-204,-165,-117
-29,-9,19,19,-24,4,-68,-175,161,-209,-175,-117
-29,-9,19,19,-24,4,-68,-175,156,-214,-175,-117
-29,-9,19,19,-24,4,-68,-175,151,-219,-175,-117
-29,-9,19,19,-24,4,-68,-175,146,-224,-175,-117
-39,-19,19,29,-29,0,-58,-165,146,-214,-175,-107
-39,-19,19,29,-29,0,-58,-165,146,-214,-175,-107
-39,-19,19,29,-29,0,-58,-165,146,-214,-175,-107
-39,-19,19,29,-29,0,-58,-165,146,-214,-175,-107
-29,-9,19,19,-24,4,-48,-151,151,-204,-170,-97
-19,0,19,9,-19,9,-48,-146,156,-204,-165,-97
-9,9,19,0,-14,14,-48,-141,161,-204,-161,-97
0,19,19,-9,-9,19,-48,-136,165,-204,-156,-97
-4,29,34,-12,-19,31,-48,-126,175,-200,-151,-87
-9,29,39,-9,-24,34,-48,-126,175,-195,-146,-87
-14,29,43,-7,-29,36,-48,-126,175,-190,-141,-87
-19,29,48,-4,-34,39,-48,-126,175,-185,-136,-87
-4,34,39,-14,-21,36,-58,-136,165,-185,-136,-87
0,39,39,-19,-19,39,-58,-136,165,-185,-136,-87
4,43,39,-24,-17,41,-58,-136,165,-185,-136,-87
9,48,39,-29,-14,43,-58,-136,165,-185,-136,-87
4,53,48,-29,-21,51,-53,-122,170,-180,-122,-82
0,58,58,-29,-29,58,-48,-117,175,-175,-117,-78
-4,63,68,-29,-36,65,-43,-112,180,-170,-112,-73
-9,68,78,-29,-43,73,-39,-107,185,-165,-107,-68
-4,73,78,-34,-41,75,-39,-97,185,-156,-107,-68
0,78,78,-39,-39,78,-39,-97,185,-156,-107,-68
4,82,78,-43,-36,80,-39,-97,185,-156,-107,-68
9,87,78,-48,-34,82,-39,-97,185,-156,-107,-68
4,78,73,-41,-34,75,-29,-97,195,-156,-107,-68
0,78,78,-39,-39,78,-29,-97,195,-156,-107,-68
-4,78,82,-36,-43,80,-29,-97,195,-156,-107,-68
-9,78,87,-34,-48,82,-29,-97,195,-156,-107,-68
-9,68,78,-29,-43,73,-48,-112,180,-161,-117,-78
-9,58,68,-24,-39,63,-58,-117,175,-165,-117,-78
-9,48,58,-19,-34,53,-68,-122,170,-170,-117,-78
-9,39,48,-14,-29,43,-78,-126,165,-175,-117,-78
-19,39,58,-9,-39,48,-92,-126,165,-165,-107,-68
-19,39,58,-9,-39,48,-97,-126,165,-165,-107,-68
-19,39,58,-9,-39,48,-102,-126,165,-165,-107,-68
-19,39,58,-9,-39,48,-107,-126,165,-165,-107,-68
-19,48,68,-14,-43,58,-122,-117,170,-156,-107,-68
-19,48,68,-14,-43,58,-126,-117,175,-156,-107,-68
-19,48,68,-14,-43,58,-131,-117,180,-156,-107,-68
-19,48,68,-14,-43,58,-136,-117,185,-156,-107,-68
-9,53,63,-21,-36,58,-141,-107,175,-146,-107,-68
0,58,58,-29,-29,58,-146,-107,175,-146,-107,-68
9,63,53,-36,-21,58,-151,-107,175,-146,-107,-68
19,68,48,-43,-14,58,-156,-107,175,-146,-107,-68
9,63,53,-36,-21,58,-151,-97,175,-146,-107,-58
9,58,48,-34,-19,53,-146,-97,175,-146,-107,-58
9,53,43,-31,-17,48,-141,-97,175,-146,-107,-58
9,48,39,-29,-14,43,-136,-97,175,-146,-107,-58
0,43,43,-21,-21,43,-126,-107,185,-146,-117,-58
0,39,39,-19,-19,39,-126,-107,185,-146,-117,-58
0,34,34,-17,-17,34,-126,-107,185,-146,-117,-58
0,29,29,-14,-14,29,-126,-107,185,-146,-117,-58
9,29,19,-19,-4,24,-112,-102,190,-156,-107,-58
9,29,19,-19,-4,24,-107,-97,195,-156,-107,-58
9,29,19,-19,-4,24,-102,-92,200,-156,-107,-58
9,29,19,-19,-4,24,-97,-87,204,-156,-107,-58
24,43,19,-34,2,31,-82,-82,214,-146,-102,-58
29,48,19,-39,4,34,-78,-78,214,-146,-97,-58
34,53,19,-43,7,36,-73,-73,214,-146,-92,-58
39,58,19,-48,9,39,-68,-68,214,-146,-87,-58
34,48,14,-41,9,31,-63,-58,224,-146,-87,-58
29,48,19,-39,4,34,-58,-58,224,-146,-87,-58
24,48,24,-36,0,36,-53,-58,224,-146,-87,-58
19,48,29,-34,-4,39,-48,-58,224,-146,-87,-58
9,34,24,-21,-7,29,-58,-68,219,-156,-97,-58
9,29,19,-19,-4,24,-58,-68,214,-156,-97,-58
9,24,14,-17,-2,19,-58,-68,209,-156,-97,-58
9,19,9,-14,0,14,-58,-68,204,-156,-97,-58
19,24,4,-21,7,14,-68,-78,195,-156,-107,-48
19,29,9,-24,4,19,-68,-78,195,-156,-107,-48
19,34,14,-26,2,24,-68,-78,195,-156,-107,-48
19,39,19,-29,0,29,-68,-78,195,-156,-107,-48
9,24,14,-17,-2,19,-82,-82,180,-165,-117,-53
9,19,9,-14,0,14,-87,-87,175,-165,-117,-58
9,14,4,-12,2,9,-92,-92,170,-165,-117,-63
9,9,0,-9,4,4,-97,-97,165,-165,-117,-68
24,14,-9,-19,17,2,-102,-107,161,-175,-117,-78
29,19,-9,-24,19,4,-107,-107,156,-175,-117,-78
34,24,-9,-29,21,7,-112,-107,151,-175,-117,-78
39,29,-9,-34,24,9,-117,-107,146,-175,-117,-78
24,29,4,-26,9,17,-117,-97,146,-170,-112,-63
19,29,9,-24,4,19,-117,-97,146,-165,-107,-58
14,29,14,-21,0,21,-117,-97,146,-161,-102,-53
9,29,19,-19,-4,24,-117,-97,146,-156,-97,-48
19,34,14,-26,2,24,-117,-97,156,-165,-97,-58
19,39,19,-29,0,29,-117,-97,156,-165,-97,-58
19,43,24,-31,-2,34,-117,-97,156,-165,-97,-58
19,48,29,-34,-4,39,-117,-97,156,-165,-97,-58
14,48,34,-31,-9,41,-97,-97,165,-156,-97,-48
9,48,39,-29,-14,43,-87,-97,165,-156,-97,-48
4,48,43,-26,-19,46,-78,-97,165,-156,-97,-48
0,48,48,-24,-24,48,-68,-97,165,-156,-97,-48
9,63,53,-36,-21,58,-68,-107,156,-156,-97,-58
9,68,58,-39,-24,63,-68,-117,156,-156,-97,-58
9,73,63,-41,-26,68,-68,-126,156,-156,-97,-58
9,78,68,-43,-29,73,-68,-136,156,-156,-97,-58
4,68,63,-36,-29,65,-78,-146,141,-161,-107,-63
0,58,58,-29,-29,58,-78,-146,136,-165,-107,-68
-4,48,53,-21,-29,51,-78,-146,131,-170,-107,-73
-9,39,48,-14,-29,43,-78,-146,126,-175,-107,-78
-9,29,39,-9,-24,34,-92,-156,126,-180,-117,-78
-9,29,39,-9,-24,34,-97,-156,126,-185,-117,-78
-9,29,39,-9,-24,34,-102,-156,126,-190,-117,-78
-9,29,39,-9,-24,34,-107,-156,126,-195,-117,-78
-4,34,39,-14,-21,36,-107,-151,117,-190,-107,-78
0,39,39,-19,-19,39,-107,-146,117,-185,-107,-78
4,43,39,-24,-17,41,-107,-141,117,-180,-107,-78
9,48,39,-29,-14,43,-107,-136,117,-175,-107,-78
19,58,39,-39,-9,48,-97,-131,126,-165,-97,-78
19,58,39,-39,-9,48,-97,-126,126,-165,-97,-78
19,58,39,-39,-9,48,-97,-122,126,-165,-97,-78
19,58,39,-39,-9,48,-97,-117,126,-165,-97,-78
19,63,43,-41,-12,53,-82,-102,131,-161,-92,-73
19,68,48,-43,-14,58,-78,-97,136,-156,-87,-68
19,73,53,-46,-17,63,-73,-92,141,-151,-82,-63
19,78,58,-48,-19,68,-68,-87,146,-146,-78,-58
29,78,48,-53,-9,63,-58,-82,156,-136,-78,-58
29,78,48,-53,-9,63,-58,-78,156,-136,-78,-58
29,78,48,-53,-9,63,-58,-73,156,-136,-78,-58
29,78,48,-53,-9,63,-58,-68,156,-136,-78,-58
19,68,48,-43,-14,58,-58,-78,146,-146,-87,-68
19,58,39,-39,-9,48,-58,-78,146,-146,-87,-68
19,48,29,-34,-4,39,-58,-78,146,-146,-87,-68
19,39,19,-29,0,29,-58,-78,146,-146,-87,-68
24,48,24,-36,0,36,-53,-73,146,-136,-87,-58
29,48,19,-39,4,34,-48,-68,146,-136,-87,-58
34,48,14,-41,9,31,-43,-63,146,-136,-87,-58
39,48,9,-43,14,29,-39,-58,146,-136,-87,-58
48,58,9,-53,19,34,-48,-73,141,-146,-87,-58
48,58,9,-53,19,34,-48,-78,136,-146,-87,-58
48,58,9,-53,19,34,-48,-82,131,-146,-87,-58
48,58,9,-53,19,34,-48,-87,126,-146,-87,-58
34,53,19,-43,7,36,-68,-97,112,-146,-87,-48
29,48,19,-39,4,34,-87,-97,107,-146,-87,-48
24,43,19,-34,2,31,-107,-97,102,-146,-87,-48
19,39,19,-29,0,29,-126,-97,97,-146,-87,-48
34,39,4,-36,14,21,-131,-107,87,-151,-97,-58
39,39,0,-39,19,19,-136,-107,87,-156,-97,-58
43,39,-4,-41,24,17,-141,-107,87,-161,-97,-58
48,39,-9,-43,29,14,-146,-107,87,-165,-97,-58
34,29,-4,-31,19,12,-146,-102,92,-161,-92,-48
29,29,0,-29,14,14,-146,-97,97,-156,-87,-48
24,29,4,-26,9,17,-146,-92,102,-151,-82,-48
19,29,9,-24,4,19,-146,-87,107,-146,-78,-48
19,39,19,-29,0,29,-146,-97,107,-151,-87,-48
19,39,19,-29,0,29,-146,-97,107,-156,-87,-48
19,39,19,-29,0,29,-146,-97,107,-161,-87,-48
19,39,19,-29,0,29,-146,-97,107,-165,-87,-48
19,39,19,-29,0,29,-156,-102,102,-175,-97,-58
19,39,19,-29,0,29,-156,-107,97,-175,-97,-58
19,39,19,-29,0,29,-156,-112,92,-175,-97,-58
19,39,19,-29,0,29,-156,-117,87,-175,-97,-58
34,48,14,-41,9,31,-146,-117,82,-170,-102,-53
34,53,19,-43,7,36,-146,-122,82,-170,-97,-53
29,53,24,-41,2,39,-146,-126,78,-175,-97,-63
29,58,29,-43,0,43,-151,-131,78,-175,-102,-63
48,82,34,-65,7,58,-141,-122,68,-170,-97,-48
48,87,39,-68,4,63,-141,-122,68,-161,-92,-48
48,92,43,-70,2,68,-141,-122,68,-156,-87,-43
48,97,48,-73,0,73,-141,-122,68,-151,-82,-43
34,87,53,-61,-9,70,-141,-141,63,-161,-92,-48
19,82,63,-51,-21,73,-146,-146,58,-161,-97,-48
14,78,63,-46,-24,70,-161,-151,39,-165,-107,-53
19,68,48,-43,-14,58,-175,-165,34,-170,-117,-58
34,82,48,-58,-7,65,-161,-161,43,-165,-112,-53
34,82,48,-58,-7,65,-151,-156,48,-165,-107,-58
34,87,53,-61,-9,70,-146,-151,48,-165,-102,-53
39,92,53,-65,-7,73,-151,-146,39,-170,-97,-48
43,97,53,-70,-4,75,-141,-141,43,-170,-102,-48
43,97,53,-70,-4,75,-141,-141,53,-165,-102,-48
43,97,53,-70,-4,75,-141,-141,58,-161,-102,-48
48,92,43,-70,2,68,-141,-141,58,-161,-102,-48
43,78,34,-61,4,56,-131,-141,48,-161,-102,-48
29,73,43,-51,-7,58,-131,-141,48,-161,-102,-48
19,73,53,-46,-17,63,-131,-136,48,-161,-102,-48
14,73,58,-43,-21,65,-131,-136,48,-156,-102,-48
14,68,53,-41,-19,61,-126,-122,48,-156,-102,-48
24,68,43,-46,-9,56,-126,-122,53,-156,-97,-43
29,63,34,-46,-2,48,-126,-122,53,-161,-97,-43
29,58,29,-43,0,43,-126,-122,53,-175,-97,-43
39,78,39,-58,0,58,-117,-122,53,-170,-97,-43
43,82,39,-63,2,61,-117,-122,53,-165,-97,-43
43,78,34,-61,4,56,-112,-122,53,-161,-97,-43
34,82,48,-58,-7,65,-107,-122,53,-156,-97,-39
39,82,43,-61,-2,63,-107,-112,43,-165,-102,-48
43,82,39,-63,2,61,-107,-112,43,-165,-112,-53
48,82,34,-65,7,58,-107,-112,43,-165,-117,-53
58,97,39,-78,9,68,-97,-112,43,-165,-122,-53
63,107,43,-85,9,75,-107,-112,43,-165,-126,-53
43,92,48,-68,-2,70,-112,-112,43,-170,-136,-58
39,82,43,-61,-2,63,-112,-112,34,-170,-141,-58
29,82,53,-56,-12,68,-112,-112,34,-170,-146,-58
39,87,48,-63,-4,68,-117,-107,34,-156,-146,-58
39,92,53,-65,-7,73,-122,-107,34,-161,-146,-58
43,92,48,-68,-2,70,-131,-112,29,-170,-146,-58
43,92,48,-68,-2,70,-146,-112,24,-175,-146,-63
34,102,68,-68,-17,85,-146,-112,34,-175,-141,-58
43,112,68,-78,-12,90,-146,-112,34,-170,-141,-53
43,122,78,-82,-17,100,-141,-112,39,-165,-141,-43
43,126,82,-85,-19,104,-141,-112,48,-161,-141,-39
39,112,73,-75,-17,92,-131,-112,58,-161,-126,-43
24,102,78,-63,-26,90,-131,-112,58,-161,-126,-43
9,97,87,-53,-39,92,-131,-112,58,-161,-131,-48
4,87,82,-46,-39,85,-131,-112,58,-161,-131,-48
24,92,68,-58,-21,80,-131,-122,53,-165,-136,-39
29,97,68,-63,-19,82,-131,-122,53,-170,-136,-39
29,102,73,-65,-21,87,-131,-126,53,-180,-136,-43
34,107,73,-70,-19,90,-126,-126,53,-185,-136,-43
19,87,68,-53,-24,78,-126,-131,43,-185,-146,-48
14,78,63,-46,-24,70,-122,-131,43,-185,-146,-48
9,63,53,-36,-21,58,-117,-131,43,-185,-146,-48
4,53,48,-29,-21,51,-117,-131,43,-185,-146,-48
14,48,34,-31,-9,41,-122,-122,48,-180,-136,-48
14,53,39,-34,-12,46,-122,-122,48,-180,-136,-48
14,53,39,-34,-12,46,-126,-126,48,-180,-136,-53
9,53,43,-31,-17,48,-126,-126,48,-185,-146,-53
19,53,34,-36,-7,43,-117,-126,48,-185,-146,-63
29,73,43,-51,-7,58,-117,-126,58,-170,-131,-53
58,117,58,-87,0,87,-97,-107,68,-146,-97,-24
73,131,58,-102,7,95,-97,-97,78,-131,-58,4
48,126,78,-87,-14,102,-87,-97,87,-112,-14,19
39,117,78,-78,-19,97,-87,-102,92,-73,53,58
73,102,29,-87,21,65,-87,-92,112,-34,146,107
102,87,-14,-95,58,36,-82,-87,141,34,278,180
73,82,9,-78,31,46,-73,-63,190,136,448,297
34,102,68,-68,-17,85,-73,-63,229,239,624,429
53,161,107,-107,-26,134,-97,-92,224,287,766,595
63,209,146,-136,-41,178,-131,-136,204,322,907,800
53,204,151,-129,-48,178,-175,-170,204,361,1005,990
63,214,151,-139,-43,183,-224,-209,195,361,1034,1137
107,283,175,-195,-34,229,-253,-239,175,322,1010,1259
146,331,185,-239,-19,258,-258,-239,180,292,936,1366
146,322,175,-234,-14,248,-268,-229,195,297,893,1483
141,253,112,-197,14,183,-292,-204,195,268,829,1556
170,204,34,-187,68,119,-287,-161,219,263,785,1625
229,185,-43,-207,136,70,-239,-73,297,331,819,1727
273,122,-151,-197,212,-14,-185,34,400,424,897,1820
297,48,-248,-173,273,-100,-146,117,488,512,956,1873
317,-19,-336,-148,326,-178,-107,209,590,614,1015,1888
317,-82,-400,-117,358,-241,-58,326,736,732,1024,1766
302,-141,-444,-80,373,-292,9,473,902,863,966,1478
273,-185,-458,-43,366,-322,92,624,1073,1000,858,1112
253,-229,-483,-12,368,-356,195,780,1244,1093,658,678
219,-287,-507,34,363,-397,273,912,1356,1093,366,190
185,-336,-522,75,353,-429,302,990,1395,1029,39,-239
156,-322,-478,82,317,-400,312,1005,1376,902,-326,-673
87,-317,-405,114,246,-361,346,1015,1351,732,-751,-1215
-19,-341,-322,180,151,-331,405,1015,1337,570,-1112,-1698
-126,-361,-234,244,53,-297,448,1005,1298,444,-1322,-1927
-195,-336,-141,265,-26,-239,497,985,1259,302,-1498,-2005
-258,-302,-43,280,-107,-173,561,985,1259,180,-1668,-2083
-297,-292,4,295,-151,-143,624,1044,1317,122,-1781,-2093
-302,-268,34,285,-168,-117,678,1117,1390,92,-1800,-2005
-302,-204,97,253,-200,-53,732,1151,1434,14,-1805,-1888
-331,-170,161,251,-246,-4,746,1137,1420,-87,-1786,-1781
-351,-170,180,261,-265,4,766,1102,1381,-180,-1703,-1673
-356,-180,175,268,-265,-2,790,1098,1356,-214,-1556,-1561
-336,-151,185,244,-261,17,775,1117,1376,-175,-1390,-1444
-253,-92,161,173,-207,34,717,1102,1356,-161,-1259,-1312
-204,-92,112,148,-158,9,653,1024,1259,-224,-1161,-1210
-239,-126,112,183,-175,-7,614,946,1156,-302,-1112,-1146
-234,-117,117,175,-175,0,590,868,1093,-341,-1078,-1088
-219,-92,126,156,-173,17,551,780,1029,-395,-1044,-1024
-219,-92,126,156,-173,17,507,702,966,-448,-1029,-971
-229,-68,161,148,-195,46,492,663,946,-473,-990,-946
-219,-19,200,119,-209,90,502,668,951,-483,-936,-888
-214,-19,195,117,-204,87,522,673,902,-517,-883,-844
-224,-68,156,146,-190,43,556,692,854,-566,-858,-829
-219,-78,141,148,-180,31,610,712,819,-585,-844,-810
-209,-68,141,139,-175,36,663,751,805,-595,-834,-800
-190,-58,131,124,-161,36,717,795,766,-619,-839,-780
-200,-73,126,136,-163,26,751,819,683,-663,-849,-771
-224,-82,141,153,-183,29,761,800,575,-688,-834,-746
-219,-73,146,146,-183,36,761,756,453,-707,-800,-727
-200,-68,131,134,-165,31,771,727,361,-727,-766,-688
-204,-73,131,139,-168,29,805,717,307,-707,-712,-653
-204,-87,117,146,-161,14,824,717,239,-697,-683,-639
-204,-126,78,165,-141,-24,829,702,141,-712,-678,-639
-200,-156,43,178,-122,-56,819,658,53,-712,-688,-619
-209,-161,48,185,-129,-56,810,619,0,-712,-683,-610
-219,-170,48,195,-134,-61,751,585,-48,-702,-673,-595
-180,-170,9,175,-95,-80,644,541,-112,-717,-653,-595
-151,-161,-9,156,-70,-85,551,492,-156,-707,-619,-566
-136,-146,-9,141,-63,-78,517,478,-161,-663,-551,-512
-102,-141,-39,122,-31,-90,458,409,-170,-605,-473,-463
-68,-131,-63,100,-2,-97,366,292,-195,-566,-434,-429
-92,-117,-24,104,-34,-70,292,190,-214,-527,-414,-400
-87,-107,-19,97,-34,-63,253,117,-204,-492,-400,-375
-73,-78,-4,75,-34,-41,165,39,-195,-458,-375,-356
-63,-43,19,53,-41,-12,78,-53,-195,-429,-331,-317
-58,-14,43,36,-51,14,-4,-107,-190,-395,-278,-273
-53,-19,34,36,-43,7,-48,-126,-195,-380,-239,-248
-48,-24,24,36,-36,0,-78,-131,-204,-370,-204,-239
-34,-39,-4,36,-14,-21,-102,-146,-209,-356,-200,-234
-14,-24,-9,19,-2,-17,-82,-141,-185,-336,-190,-229
9,24,14,-17,-2,19,-63,-117,-151,-312,-175,-214
24,48,24,-36,0,36,-82,-112,-141,-297,-175,-204
24,29,4,-26,9,17,-126,-141,-156,-312,-185,-214
0,14,14,-7,-7,14,-170,-170,-185,-331,-190,-214
-9,14,24,-2,-17,19,-214,-195,-214,-341,-175,-214
0,29,29,-14,-14,29,-239,-239,-234,-356,-156,-204
29,48,19,-39,4,34,-239,-258,-253,-351,-151,-195
19,39,19,-29,0,29,-234,-273,-253,-351,-146,-195
14,43,29,-29,-7,36,-239,-278,-258,-346,-141,-195
9,39,29,-24,-9,34,-229,-287,-253,-341,-146,-195
4,34,29,-19,-12,31,-224,-287,-244,-341,-156,-195
4,29,24,-17,-9,26,-224,-287,-248,-351,-165,-200
4,24,19,-14,-7,21,-219,-292,-258,-351,-165,-204
14,19,4,-17,4,12,-219,-302,-268,-351,-151,-209
24,19,-4,-21,14,7,-219,-307,-278,-356,-146,-209
9,14,4,-12,2,9,-209,-302,-273,-351,-131,-195
9,19,9,-14,0,14,-204,-297,-268,-341,-126,-195
4,14,9,-9,-2,12,-200,-292,-263,-336,-126,-200
-9,4,14,2,-12,9,-195,-287,-253,-341,-126,-200
14,19,4,-17,4,12,-185,-287,-258,-336,-136,-204
39,34,-4,-36,21,14,-180,-283,-258,-341,-126,-204
34,39,4,-36,14,21,-175,-283,-263,-346,-122,-200
29,34,4,-31,12,19,-175,-287,-278,-361,-122,-200
14,14,0,-14,7,7,-175,-297,-283,-356,-131,-209
14,14,0,-14,7,7,-175,-302,-287,-361,-131,-219
14,14,0,-14,7,7,-175,-297,-287,-366,-131,-219
9,14,4,-12,2,9,-175,-292,-292,-366,-136,-224
24,19,-4,-21,14,7,-180,-287,-287,-375,-126,-214
34,34,0,-34,17,17,-185,-283,-292,-375,-122,-214
43,29,-14,-36,29,7,-200,-278,-307,-375,-122,-214
48,29,-19,-39,34,4,-214,-278,-312,-380,-122,-214
39,14,-24,-26,31,-4,-214,-273,-322,-375,-126,-219
34,9,-24,-21,29,-7,-214,-278,-326,-385,-126,-219
34,9,-24,-21,29,-7,-214,-278,-322,-385,-122,-224
34,39,4,-36,14,21,-214,-273,-312,-385,-122,-229
34,34,0,-34,17,17,-214,-273,-317,-400,-136,-239
24,24,0,-24,12,12,-214,-273,-326,-400,-136,-244
14,9,-4,-12,9,2,-214,-273,-331,-400,-141,-244
29,4,-24,-17,26,-9,-219,-278,-341,-400,-146,-244
34,19,-14,-26,24,2,-214,-268,-346,-409,-156,-248
24,19,-4,-21,14,7,-209,-268,-351,-414,-146,-248
19,19,0,-19,9,9,-204,-273,-351,-419,-146,-253
19,19,0,-19,9,9,-204,-273,-356,-434,-151,-253
19,9,-9,-14,14,0,-200,-263,-351,-424,-161,-248
19,9,-9,-14,14,0,-190,-258,-351,-424,-161,-248
14,9,-4,-12,9,2,-185,-263,-356,-429,-165,-248
9,4,-4,-7,7,0,-180,-258,-361,-429,-170,-258
19,0,-19,-9,19,-9,-165,-258,-361,-444,-170,-258
9,-9,-19,0,14,-14,-165,-263,-361,-448,-175,-263
9,-9,-19,0,14,-14,-161,-268,-375,-458,-175,-263
14,-4,-19,-4,17,-12,-161,-273,-380,-458,-175,-263
24,0,-24,-12,24,-12,-151,-253,-380,-463,-185,-263
24,-4,-29,-9,26,-17,-146,-253,-370,-463,-195,-263
24,-4,-29,-9,26,-17,-141,-244,-366,-463,-195,-263
29,0,-29,-14,29,-14,-136,-234,-356,-458,-190,-263
29,0,-29,-14,29,-14,-151,-234,-356,-473,-190,-273
29,-4,-34,-12,31,-19,-161,-234,-361,-478,-195,-273
29,-9,-39,-9,34,-24,-170,-234,-366,-483,-200,-278
34,-14,-48,-9,41,-31,-185,-239,-366,-492,-209,-278
39,-14,-53,-12,46,-34,-204,-239,-370,-507,-214,-287
29,-24,-53,-2,41,-39,-219,-244,-380,-507,-219,-283
34,-24,-58,-4,46,-41,-234,-244,-385,-507,-224,-283
48,-19,-68,-14,58,-43,-248,-248,-395,-507,-229,-278
58,-29,-87,-14,73,-58,-268,-273,-414,-517,-234,-278
63,-29,-92,-17,78,-61,-278,-292,-419,-522,-234,-273
63,-39,-102,-12,82,-70,-292,-312,-429,-531,-234,-273
68,-39,-107,-14,87,-73,-317,-326,-434,-541,-244,-283
48,-48,-97,0,73,-73,-302,-341,-434,-546,-253,-273
43,-43,-87,0,65,-65,-297,-346,-444,-551,-258,-263
39,-43,-82,2,61,-63,-292,-351,-448,-551,-263,-258
43,-34,-78,-4,61,-56,-283,-346,-448,-551,-263,-248
48,-24,-73,-12,61,-48,-268,-351,-448,-546,-253,-234
48,-24,-73,-12,61,-48,-258,-356,-444,-546,-258,-234
34,-24,-58,-4,46,-41,-244,-361,-429,-546,-258,-229
29,-24,-53,-2,41,-39,-229,-366,-424,-536,-248,-214
39,-24,-63,-7,51,-43,-219,-351,-429,-541,-253,-204
39,-19,-58,-9,48,-39,-224,-351,-424,-541,-253,-200
43,-14,-58,-14,51,-36,-224,-341,-419,-531,-253,-190
43,-4,-48,-19,46,-26,-224,-336,-409,-527,-253,-180
43,-9,-53,-17,48,-31,-224,-341,-409,-527,-253,-180
43,0,-43,-21,43,-21,-224,-336,-409,-512,-244,-165
48,9,-39,-29,43,-14,-214,-331,-395,-502,-234,-151
48,9,-39,-29,43,-14,-214,-326,-385,-492,-234,-136
43,19,-24,-31,34,-2,-214,-322,-356,-483,-234,-131
34,19,-14,-26,24,2,-214,-317,-346,-473,-229,-122
29,29,0,-29,14,14,-204,-312,-326,-463,-224,-122
34,34,0,-34,17,17,-204,-302,-307,-453,-219,-107
48,39,-9,-43,29,14,-224,-307,-287,-439,-204,-87
63,43,-19,-53,41,12,-229,-302,-278,-424,-200,-78
73,48,-24,-61,48,12,-234,-287,-258,-414,-200,-73
92,63,-29,-78,61,17,-239,-278,-239,-400,-200,-63
82,58,-24,-70,53,17,-234,-278,-239,-390,-190,-58
82,53,-29,-68,56,12,-234,-278,-224,-385,-190,-48
82,39,-43,-61,63,-2,-229,-258,-209,-375,-180,-43
63,34,-29,-48,46,2,-219,-244,-195,-356,-180,-29
63,43,-19,-53,41,12,-219,-248,-190,-341,-170,-34
78,68,-9,-73,43,29,-214,-239,-165,-317,-165,-24
78,68,-9,-73,43,29,-214,-234,-146,-317,-161,-24
73,58,-14,-65,43,21,-214,-224,-136,-312,-156,-19
82,63,-19,-73,51,21,-209,-204,-112,-292,-146,-4
97,78,-19,-87,58,29,-204,-195,-92,-273,-141,9
97,92,-4,-95,51,43,-200,-185,-73,-253,-126,34
92,82,-9,-87,51,36,-195,-165,-48,-239,-122,39
73,82,9,-78,31,46,-175,-146,-24,-219,-122,34
73,87,14,-80,29,51,-175,-136,-9,-204,-107,39
73,82,9,-78,31,46,-170,-131,4,-200,-107,43
73,78,4,-75,34,41,-165,-122,24,-185,-102,48
82,82,0,-82,41,41,-146,-107,43,-165,-87,58
82,92,9,-87,36,51,-141,-97,58,-146,-82,68
82,97,14,-90,34,56,-131,-82,78,-136,-73,78
73,102,29,-87,21,65,-117,-68,97,-112,-68,82
82,112,29,-97,26,70,-107,-58,102,-107,-63,87
92,112,19,-102,36,65,-92,-53,117,-92,-63,87
92,122,29,-107,31,75,-78,-48,131,-82,-78,87
92,126,34,-109,29,80,-73,-39,136,-82,-78,87
92,122,29,-107,31,75,-68,-24,161,-63,-58,107
97,126,29,-112,34,78,-53,-9,180,-58,-53,97
97,122,24,-109,36,73,-48,0,185,-48,-53,102
78,107,29,-92,24,68,-48,0,180,-29,-58,92
82,112,29,-97,26,70,-63,9,190,-29,-48,87
82,112,29,-97,26,70,-73,19,195,-29,-39,92
82,117,34,-100,24,75,-63,29,200,-24,-53,82
82,122,39,-102,21,80,-58,39,209,-19,-58,82
73,126,53,-100,9,90,-82,43,204,-14,-58,82
68,126,58,-97,4,92,-97,43,214,-9,-53,82
58,126,68,-92,-4,97,-117,39,200,-4,-48,73
58,126,68,-92,-4,97,-141,34,195,-4,-53,73
68,141,73,-104,-2,107,-131,9,175,-4,-53,58
78,146,68,-112,4,107,-131,-4,156,-9,-53,43
78,141,63,-109,7,102,-131,-24,146,-24,-63,29
63,136,73,-100,-4,104,-131,-34,141,-24,-68,24
63,131,68,-97,-2,100,-122,-34,131,-19,-63,4
63,122,58,-92,2,90,-117,-34,126,-14,-73,-9
53,112,58,-82,-2,85,-112,-34,122,-19,-82,-24
53,107,53,-80,0,80,-97,-34,117,-24,-87,-24
43,97,53,-70,-4,75,-82,-34,117,-24,-92,-39
48,97,48,-73,0,73,-78,-34,112,-29,-92,-43
48,87,39,-68,4,63,-63,-34,107,-24,-92,-43
39,82,43,-61,-2,63,-58,-39,112,-24,-97,-53
48,92,43,-70,2,68,-48,-53,102,-24,-126,-82
53,97,43,-75,4,70,-43,-58,97,-29,-126,-92
53,107,53,-80,0,80,-39,-63,87,-29,-122,-92
68,112,43,-90,12,78,-24,-68,102,-29,-112,-87
58,107,48,-82,4,78,-14,-68,92,-29,-126,-102
43,87,43,-65,0,65,-14,-63,78,-29,-141,-107
24,78,53,-51,-14,65,-14,-63,63,-29,-146,-112
24,73,48,-48,-12,61,-14,-63,58,-29,-151,-122
34,68,34,-51,0,51,-9,-63,63,-39,-141,-126
34,68,34,-51,0,51,-4,-63,63,-48,-146,-136
34,63,29,-48,2,46,4,-63,63,-48,-151,-141
34,63,29,-48,2,46,9,-58,63,-43,-151,-146
48,73,24,-61,12,48,9,-68,53,-43,-151,-156
48,92,43,-70,2,68,14,-68,53,-43,-151,-165
58,107,48,-82,4,78,24,-68,58,-48,-151,-170
58,102,43,-80,7,73,24,-68,58,-48,-151,-185
48,102,53,-75,-2,78,4,-78,58,-48,-146,-185
39,102,63,-70,-12,82,14,-82,58,-48,-136,-185
39,102,63,-70,-12,82,14,-82,53,-43,-131,-185
39,102,63,-70,-12,82,9,-92,53,-43,-126,-185
24,107,82,-65,-29,95,0,-97,63,-29,-117,-190
29,117,87,-73,-29,102,0,-102,63,-19,-117,-195
24,117,92,-70,-34,104,0,-107,63,-14,-117,-204
19,117,97,-68,-39,107,0,-112,63,-9,-117,-209
19,122,102,-70,-41,112,-19,-117,68,0,-97,-204
19,117,97,-68,-39,107,-19,-117,68,-14,-97,-200
19,117,97,-68,-39,107,-24,-117,68,-14,-97,-195
9,117,107,-63,-48,112,-24,-122,73,-9,-92,-185
14,126,112,-70,-48,119,-24,-112,78,4,-82,-190
14,136,122,-75,-53,129,-24,-117,82,9,-78,-190
19,136,117,-78,-48,126,-24,-112,92,14,-73,-190
29,161,131,-95,-51,146,-24,-107,97,14,-68,-185
14,156,141,-85,-63,148,-24,-92,87,4,-68,-195
9,156,146,-82,-68,151,-29,-92,87,9,-68,-200
4,165,161,-85,-78,163,-29,-102,82,19,-63,-204
4,170,165,-87,-80,168,-29,-102,82,29,-58,-204
29,185,156,-107,-63,170,-29,-122,73,39,-43,-190
14,195,180,-104,-82,187,-29,-126,73,39,-43,-185
-4,185,190,-90,-97,187,-29,-131,68,29,-43,-185
-4,195,200,-95,-102,197,-29,-141,63,19,-43,-175
14,209,195,-112,-90,202,-48,-165,39,9,-43,-175
19,209,190,-114,-85,200,-53,-185,29,14,-34,-175
29,209,180,-119,-75,195,-68,-204,19,19,-34,-180
34,209,175,-122,-70,192,-73,-224,4,19,-34,-180
29,224,195,-126,-82,209,-97,-234,0,29,-29,-170
48,234,185,-141,-68,209,-107,-239,-9,29,-24,-161
48,234,185,-141,-68,209,-117,-244,-14,29,-14,-146
43,234,190,-139,-73,212,-122,-248,-14,39,-9,-131
58,253,195,-156,-68,224,-151,-253,-24,29,-19,-146
73,263,190,-168,-58,226,-161,-258,-29,29,-19,-141
78,283,204,-180,-63,244,-165,-253,-29,29,-14,-131
78,292,214,-185,-68,253,-175,-268,-34,19,-14,-136
53,287,234,-170,-90,261,-190,-268,-34,14,-24,-146
53,292,239,-173,-92,265,-190,-263,-39,14,-24,-151
53,297,244,-175,-95,270,-185,-253,-43,14,-24,-146
43,302,258,-173,-107,280,-185,-244,-39,14,-24,-141
53,287,234,-170,-90,261,-185,-239,-29,24,-14,-126
53,283,229,-168,-87,256,-175,-234,-19,34,-9,-122
58,283,224,-170,-82,253,-170,-229,-9,34,-4,-117
58,278,219,-168,-80,248,-165,-219,4,34,0,-112
63,263,200,-163,-68,231,-161,-219,9,39,9,-112
73,268,195,-170,-61,231,-146,-209,9,34,19,-107
92,278,185,-185,-46,231,-136,-204,14,39,34,-97
97,273,175,-185,-39,224,-126,-200,14,43,43,-97
78,239,161,-158,-41,200,-112,-195,4,29,53,-92
78,229,151,-153,-36,190,-107,-190,4,29,53,-92
78,224,146,-151,-34,185,-107,-185,0,39,43,-92
78,214,136,-146,-29,175,-107,-180,-4,48,39,-92
63,185,122,-124,-29,153,-97,-165,-9,39,34,-82
58,165,107,-112,-24,136,-92,-165,-14,34,34,-82
58,146,87,-102,-14,117,-87,-165,-24,29,29,-82
53,126,73,-90,-9,100,-78,-165,-29,24,29,-87
58,141,82,-100,-12,112,-63,-165,-19,14,24,-87
58,151,92,-104,-17,122,-58,-165,-14,9,19,-87
53,161,107,-107,-26,134,-48,-165,-4,4,14,-97
48,165,117,-107,-34,141,-43,-165,0,0,9,-107
63,151,87,-107,-12,119,-34,-146,14,-4,9,-97
73,146,73,-109,0,109,-34,-136,24,-4,14,-92
78,141,63,-109,7,102,-24,-136,34,-4,14,-92
82,136,53,-109,14,95,-14,-136,39,-19,14,-92
68,136,68,-102,0,102,-4,-131,34,-34,0,-102
63,131,68,-97,-2,100,-4,-131,29,-39,-14,-107
53,126,73,-90,-9,100,0,-131,24,-39,-19,-107
39,117,78,-78,-19,97,4,-126,19,-39,-29,-112
43,107,63,-75,-9,85,14,-112,0,-43,-43,-122
48,97,48,-73,0,73,24,-112,-9,-48,-48,-131
48,87,39,-68,4,63,34,-112,-19,-63,-58,-136
43,82,39,-63,2,61,43,-112,-29,-63,-63,-141
53,97,43,-75,4,70,43,-102,-34,-63,-63,-146
39,97,58,-68,-9,78,39,-92,-39,-63,-63,-151
43,97,53,-70,-4,75,39,-92,-43,-73,-68,-151
48,102,53,-75,-2,78,39,-92,-53,-82,-68,-156
43,73,29,-58,7,51,24,-87,-68,-73,-82,-156
39,58,19,-48,9,39,9,-78,-73,-73,-87,-156
39,48,9,-43,14,29,4,-73,-78,-82,-87,-156
48,39,-9,-43,29,14,9,-78,-97,-82,-87,-156
43,53,9,-48,17,31,-34,-82,-73,-87,-107,-161
43,68,24,-56,9,46,-58,-87,-48,-102,-112,-170
48,82,34,-65,7,58,-82,-82,-14,-107,-117,-180
48,78,29,-63,9,53,-107,-87,14,-112,-122,-195
63,87,24,-75,19,56,-126,-102,39,-122,-117,-185
73,92,19,-82,26,56,-136,-107,53,-122,-117,-185
82,97,14,-90,34,56,-146,-117,78,-131,-122,-175
92,112,19,-102,36,65,-156,-122,102,-131,-122,-170
102,131,29,-117,36,80,-141,-112,112,-122,-112,-165
102,141,39,-122,31,90,-122,-112,92,-131,-117,-161
92,141,48,-117,21,95,-102,-112,92,-136,-117,-156
92,151,58,-122,17,104,-82,-112,92,-141,-122,-151
73,165,92,-119,-9,129,-87,-122,102,-151,-141,-170
68,165,97,-117,-14,131,-92,-126,107,-161,-146,-175
63,165,102,-114,-19,134,-87,-131,107,-165,-151,-180
53,156,102,-104,-24,129,-82,-136,112,-170,-161,-185
34,161,126,-97,-46,143,-78,-161,107,-190,-175,-200
34,165,131,-100,-48,148,-73,-175,97,-195,-180,-204
34,170,136,-102,-51,153,-68,-190,82,-204,-190,-209
29,175,146,-102,-58,161,-63,-204,73,-219,-200,-209
24,175,151,-100,-63,163,-43,-195,82,-224,-209,-214
19,175,156,-97,-68,165,-24,-190,82,-224,-214,-224
29,175,146,-102,-58,161,-4,-180,73,-234,-219,-229
39,175,136,-107,-48,156,14,-170,63,-244,-224,-234
19,151,131,-85,-56,141,-4,-165,43,-253,-229,-239
4,136,131,-70,-63,134,-9,-165,14,-258,-234,-244
-19,112,131,-46,-75,122,-9,-165,-9,-268,-244,-244
-34,102,136,-34,-85,119,-9,-165,-34,-273,-248,-244
-9,112,122,-51,-65,117,-9,-156,-48,-278,-253,-258
4,126,122,-65,-58,124,-14,-151,-53,-283,-258,-263
14,122,107,-68,-46,114,-14,-151,-58,-292,-268,-263
24,122,97,-73,-36,109,0,-146,-63,-297,-273,-258
24,136,112,-80,-43,124,-4,-136,-78,-292,-268,-248
9,131,122,-70,-56,126,-4,-136,-87,-292,-263,-258
9,151,141,-80,-65,146,0,-131,-92,-283,-258,-258
14,156,141,-85,-63,148,4,-126,-97,-278,-248,-248
14,141,126,-78,-56,134,14,-126,-107,-287,-253,-253
4,131,126,-68,-61,129,9,-117,-122,-292,-258,-258
-9,122,131,-56,-70,126,4,-107,-136,-297,-263,-263
0,141,141,-70,-70,141,4,-107,-156,-302,-268,-273
4,117,112,-61,-53,114,0,-117,-170,-312,-273,-278
0,102,102,-51,-51,102,0,-122,-175,-312,-273,-273
0,97,97,-48,-48,97,9,-126,-180,-317,-278,-278
4,102,97,-53,-46,100,9,-131,-185,-322,-283,-283
14,117,102,-65,-43,109,19,-117,-170,-312,-273,-258
34,131,97,-82,-31,114,24,-107,-161,-287,-263,-253
24,136,112,-80,-43,124,29,-102,-156,-287,-258,-253
19,126,107,-73,-43,117,34,-102,-161,-287,-253,-268
0,107,107,-53,-53,107,34,-92,-175,-287,-258,-268
-4,107,112,-51,-58,109,34,-97,-175,-287,-253,-268
4,112,107,-58,-51,109,34,-97,-170,-287,-258,-258
4,102,97,-53,-46,100,24,-102,-170,-292,-273,-253
14,112,97,-63,-41,104,29,-97,-190,-283,-273,-248
14,112,97,-63,-41,104,34,-92,-190,-278,-268,-248
14,107,92,-61,-39,100,39,-87,-190,-278,-263,-253
48,102,53,-75,-2,78,43,-82,-190,-283,-263,-258
24,92,68,-58,-21,80,53,-73,-204,-287,-268,-263
9,92,82,-51,-36,87,48,-82,-209,-287,-273,-258
14,87,73,-51,-29,80,43,-82,-214,-292,-278,-258
9,78,68,-43,-29,73,43,-87,-224,-297,-278,-253
4,68,63,-36,-29,65,39,-87,-244,-292,-287,-244
4,68,63,-36,-29,65,34,-87,-234,-292,-278,-248
14,68,53,-41,-19,61,29,-87,-234,-292,-273,-253
14,68,53,-41,-19,61,24,-87,-244,-292,-273,-258
9,48,39,-29,-14,43,4,-87,-253,-302,-283,-248
9,43,34,-26,-12,39,-4,-97,-273,-302,-273,-248
14,48,34,-31,-9,41,-14,-97,-283,-302,-268,-248
29,48,19,-39,4,34,-29,-97,-292,-302,-258,-248
43,63,19,-53,12,41,-68,-107,-307,-292,-258,-239
34,68,34,-51,0,51,-87,-117,-317,-302,-268,-239
39,63,24,-51,7,43,-107,-117,-322,-302,-268,-239
53,82,29,-68,12,56,-126,-117,-326,-297,-268,-244
48,68,19,-58,14,43,-136,-126,-341,-307,-273,-239
39,63,24,-51,7,43,-151,-131,-351,-307,-273,-239
24,53,29,-39,-2,41,-161,-141,-361,-312,-278,-239
19,43,24,-31,-2,34,-170,-141,-366,-312,-278,-234
9,53,43,-31,-17,48,-165,-146,-380,-297,-268,-219
19,73,53,-46,-17,63,-156,-156,-390,-292,-268,-209
24,73,48,-48,-12,61,-151,-165,-400,-287,-273,-219
24,68,43,-46,-9,56,-141,-175,-405,-287,-283,-224
-9,58,68,-24,-39,63,-122,-156,-414,-268,-263,-224
14,68,53,-41,-19,61,-122,-146,-405,-263,-258,-209
58,117,58,-87,0,87,-107,-141,-366,-248,-248,-195
48,117,68,-82,-9,92,-97,-146,-312,-244,-244,-195
34,102,68,-68,-17,85,-107,-156,-283,-244,-234,-195
19,97,78,-58,-29,87,-107,-156,-253,-244,-234,-195
4,92,87,-48,-41,90,-107,-156,-224,-244,-234,-195
-9,87,97,-39,-53,92,-107,-156,-195,-244,-234,-195
14,112,97,-63,-41,104,-97,-146,-165,-239,-224,-190
29,126,97,-78,-34,112,-97,-146,-146,-234,-224,-185
43,141,97,-92,-26,119,-97,-146,-126,-229,-224,-180
58,156,97,-107,-19,126,-97,-146,-107,-224,-224,-175
43,146,102,-95,-29,124,-82,-136,-87,-219,-219,-170
39,146,107,-92,-34,126,-78,-136,-78,-214,-214,-165
34,146,112,-90,-39,129,-73,-136,-68,-209,-209,-161
29,146,117,-87,-43,131,-68,-136,-58,-204,-204,-156
29,146,117,-87,-43,131,-58,-151,-43,-204,-204,-156
29,146,117,-87,-43,131,-48,-156,-39,-204,-204,-156
29,146,117,-87,-43,131,-39,-161,-34,-204,-204,-156
29,146,117,-87,-43,131,-29,-165,-29,-204,-204,-156
29,131,102,-80,-36,117,-14,-165,-29,-214,-214,-156
29,126,97,-78,-34,112,-9,-165,-29,-214,-214,-156
29,122,92,-75,-31,107,-4,-165,-29,-214,-214,-156
29,117,87,-73,-29,102,0,-165,-29,-214,-214,-156
29,102,73,-65,-21,87,0,-175,-29,-214,-224,-156
29,97,68,-63,-19,82,0,-175,-29,-214,-224,-156
29,92,63,-61,-17,78,0,-175,-29,-214,-224,-156
29,87,58,-58,-14,73,0,-175,-29,-214,-224,-156
19,73,53,-46,-17,63,0,-180,-19,-214,-229,-165
19,68,48,-43,-14,58,0,-185,-19,-214,-234,-165
19,63,43,-41,-12,53,0,-190,-19,-214,-239,-165
19,58,39,-39,-9,48,0,-195,-19,-214,-244,-165
9,53,43,-31,-17,48,4,-185,-9,-214,-234,-165
9,48,39,-29,-14,43,9,-185,0,-214,-234,-165
9,43,34,-26,-12,39,14,-185,9,-214,-234,-165
9,39,29,-24,-9,34,19,-185,19,-214,-234,-165
19,39,19,-29,0,29,9,-175,34,-200,-224,-156
29,39,9,-34,9,24,9,-175,39,-195,-224,-156
39,39,0,-39,19,19,9,-175,43,-190,-224,-156
48,39,-9,-43,29,14,9,-175,48,-185,-224,-156
39,34,-4,-36,21,14,-4,-175,58,-195,-224,-165
39,29,-9,-34,24,9,-9,-175,58,-195,-224,-165
39,24,-14,-31,26,4,-14,-175,58,-195,-224,-165
39,19,-19,-29,29,0,-19,-175,58,-195,-224,-165
34,0,-34,-17,34,-17,-39,-175,68,-195,-224,-156
29,-9,-39,-9,34,-24,-48,-175,68,-195,-224,-156
24,-19,-43,-2,34,-31,-58,-175,68,-195,-224,-156
19,-29,-48,4,34,-39,-68,-175,68,-195,-224,-156
34,-29,-63,-2,48,-46,-78,-170,68,-190,-219,-146
39,-29,-68,-4,53,-48,-87,-165,68,-185,-214,-146
43,-29,-73,-7,58,-51,-97,-161,68,-180,-209,-146
48,-29,-78,-9,63,-53,-107,-156,68,-175,-204,-146
58,-19,-78,-19,68,-48,-126,-165,58,-165,-204,-136
68,-19,-87,-24,78,-53,-136,-165,58,-165,-204,-136
78,-19,-97,-29,87,-58,-146,-165,58,-165,-204,-136
87,-19,-107,-34,97,-63,-156,-165,58,-165,-204,-136
73,-39,-112,-17,92,-75,-165,-185,53,-175,-219,-141
58,-48,-107,-4,82,-78,-165,-195,48,-185,-224,-146
43,-58,-102,7,73,-80,-165,-204,43,-195,-229,-151
29,-68,-97,19,63,-82,-165,-214,39,-204,-234,-156
34,-73,-107,19,70,-90,-156,-224,34,-214,-234,-156
39,-78,-117,19,78,-97,-156,-224,29,-214,-234,-156
43,-82,-126,19,85,-104,-156,-224,24,-214,-234,-156
48,-87,-136,19,92,-112,-156,-224,19,-214,-234,-156
39,-78,-117,19,78,-97,-151,-229,29,-200,-224,-151
39,-68,-107,14,73,-87,-146,-234,29,-195,-224,-146
39,-58,-97,9,68,-78,-141,-239,29,-190,-224,-141
39,-48,-87,4,63,-68,-136,-244,29,-185,-224,-136
48,-29,-78,-9,63,-53,-126,-244,39,-175,-214,-136
48,-19,-68,-14,58,-43,-117,-244,48,-175,-214,-136
48,-9,-58,-19,53,-34,-107,-244,58,-175,-214,-136
48,0,-48,-24,48,-24,-97,-244,68,-175,-214,-136
48,0,-48,-24,48,-24,-87,-253,78,-175,-214,-146
48,0,-48,-24,48,-24,-78,-253,78,-175,-214,-146
48,0,-48,-24,48,-24,-68,-253,78,-175,-214,-146
48,0,-48,-24,48,-24,-58,-253,78,-175,-214,-146
39,4,-34,-21,36,-14,-43,-244,92,-165,-214,-136
39,9,-29,-24,34,-9,-39,-244,97,-165,-214,-136
39,14,-24,-26,31,-4,-34,-244,102,-165,-214,-136
39,19,-19,-29,29,0,-29,-244,107,-165,-214,-136
34,9,-24,-21,29,-7,-24,-244,117,-165,-214,-136
29,9,-19,-19,24,-4,-19,-244,117,-165,-214,-136
29,14,-14,-21,21,0,-14,-239,117,-161,-209,-131
24,14,-9,-19,17,2,-9,-239,122,-161,-204,-131
29,24,-4,-26,17,9,-9,-229,131,-165,-200,-131
29,29,0,-29,14,14,-14,-229,136,-165,-200,-131
39,43,4,-41,17,24,-14,-229,136,-165,-195,-126
39,48,9,-43,14,29,-14,-229,136,-161,-190,-126
39,48,9,-43,14,29,-14,-219,136,-151,-195,-131
39,48,9,-43,14,29,-14,-219,136,-151,-200,-131
39,53,14,-46,12,34,-9,-224,136,-151,-200,-131
29,53,24,-41,2,39,-9,-224,136,-151,-204,-126
34,58,24,-46,4,41,-19,-214,126,-146,-200,-126
48,58,9,-53,19,34,-29,-224,131,-151,-204,-126
53,63,9,-58,21,36,-29,-224,136,-156,-204,-126
53,63,9,-58,21,36,-24,-224,146,-156,-204,-136
39,53,14,-46,12,34,-29,-214,136,-156,-195,-136
39,53,14,-46,12,34,-43,-214,126,-161,-195,-136
43,58,14,-51,14,36,-48,-219,126,-161,-200,-136
43,58,14,-51,14,36,-53,-219,131,-156,-200,-136
39,39,0,-39,19,19,-68,-219,126,-161,-209,-146
39,24,-14,-31,26,4,-73,-219,117,-161,-209,-146
34,9,-24,-21,29,-7,-78,-219,112,-170,-209,-146
19,-4,-24,-7,21,-14,-82,-219,107,-170,-209,-146
34,0,-34,-17,34,-17,-102,-214,97,-170,-200,-141
43,4,-39,-24,41,-17,-112,-214,97,-165,-200,-136
53,9,-43,-31,48,-17,-126,-209,97,-161,-200,-131
73,19,-53,-46,63,-17,-136,-209,102,-156,-195,-122
68,19,-48,-43,58,-14,-156,-219,82,-161,-200,-126
68,19,-48,-43,58,-14,-175,-229,73,-175,-204,-131
68,24,-43,-46,56,-9,-195,-239,63,-180,-209,-136
73,24,-48,-48,61,-12,-214,-248,53,-185,-214,-141
68,4,-63,-36,65,-29,-214,-263,39,-190,-219,-151
53,-4,-58,-24,56,-31,-214,-268,34,-195,-224,-146
48,-14,-63,-17,56,-39,-219,-273,29,-200,-229,-146
43,-24,-68,-9,56,-46,-224,-278,24,-204,-239,-151
39,-29,-68,-4,53,-48,-224,-287,19,-214,-239,-161
39,-19,-58,-9,48,-39,-214,-287,14,-214,-239,-161
43,-24,-68,-9,56,-46,-214,-287,9,-214,-239,-161
24,-43,-68,9,46,-56,-219,-287,4,-219,-244,-165
14,-63,-78,24,46,-70,-209,-287,4,-224,-253,-175
9,-63,-73,26,41,-68,-209,-287,4,-229,-253,-175
9,-48,-58,19,34,-53,-200,-273,19,-214,-244,-165
9,-43,-53,17,31,-48,-200,-273,24,-219,-244,-165
24,-34,-58,4,41,-46,-190,-268,29,-209,-234,-156
24,-24,-48,0,36,-36,-195,-268,34,-204,-234,-161
24,-9,-34,-7,29,-21,-190,-268,34,-204,-239,-161
34,4,-29,-19,31,-12,-185,-268,34,-200,-239,-161
34,14,-19,-24,26,-2,-156,-278,43,-200,-229,-151
34,19,-14,-26,24,2,-141,-278,48,-200,-229,-146
34,14,-19,-24,26,-2,-126,-278,48,-200,-224,-146
24,14,-9,-19,17,2,-112,-278,48,-200,-224,-141
0,14,14,-7,-7,14,-107,-268,48,-195,-219,-136
-4,9,14,-2,-9,12,-102,-268,48,-190,-219,-136
-4,9,14,-2,-9,12,-97,-278,53,-185,-224,-136
-9,9,19,0,-14,14,-92,-278,53,-180,-224,-136
-9,24,34,-7,-21,29,-102,-283,53,-195,-224,-151
-4,29,34,-12,-19,31,-97,-283,53,-195,-224,-151
0,34,34,-17,-17,34,-97,-278,53,-195,-224,-146
4,39,34,-21,-14,36,-92,-278,53,-195,-224,-146
-4,24,29,-9,-17,26,-87,-268,58,-180,-214,-146
-4,24,29,-9,-17,26,-87,-268,63,-175,-214,-146
4,29,24,-17,-9,26,-92,-268,63,-175,-214,-146
4,34,29,-19,-12,31,-92,-268,68,-170,-214,-146
4,34,29,-19,-12,31,-107,-283,68,-180,-204,-151
0,34,34,-17,-17,34,-107,-283,68,-185,-214,-151
-9,34,43,-12,-26,39,-107,-283,68,-185,-214,-151
-9,43,53,-17,-31,48,-107,-283,68,-180,-209,-151
-29,39,68,-4,-48,53,-97,-283,68,-175,-195,-141
-34,43,78,-4,-56,61,-97,-273,68,-161,-165,-122
0,68,68,-34,-34,68,-97,-263,78,-141,-122,-107
19,78,58,-48,-19,68,-87,-248,102,-112,-43,-68
24,73,48,-48,-12,61,-78,-229,112,-73,48,-39
34,29,-4,-31,19,12,-73,-224,122,-34,122,-14
34,4,-29,-19,31,-12,-53,-209,161,39,234,34
14,34,19,-24,-2,26,-34,-170,239,161,400,126
-4,73,78,-34,-41,75,-39,-170,263,239,522,214
24,122,97,-73,-36,109,-73,-214,244,263,605,312
53,185,131,-119,-39,158,-107,-248,234,312,692,424
24,175,151,-100,-63,163,-136,-278,234,351,741,512
9,165,156,-87,-73,161,-185,-297,224,361,736,575
29,224,195,-126,-82,209,-209,-317,219,351,673,624
58,292,234,-175,-87,263,-239,-317,224,317,580,692
73,273,200,-173,-63,236,-253,-302,224,287,478,756
73,214,141,-143,-34,178,-268,-278,248,273,385,805
102,156,53,-129,24,104,-278,-229,287,292,361,888
165,82,-82,-124,124,0,-273,-161,370,356,409,1029
209,9,-200,-109,204,-95,-253,-68,468,444,507,1151
219,-58,-278,-80,248,-168,-244,14,551,546,605,1254
229,-122,-351,-53,290,-236,-214,102,658,663,732,1356
224,-180,-405,-21,314,-292,-165,219,814,814,800,1351
224,-224,-448,0,336,-336,-102,341,985,971,771,1151
244,-239,-483,-2,363,-361,-39,478,1156,1102,639,854
239,-268,-507,14,373,-387,39,610,1307,1161,385,492
204,-317,-522,56,363,-419,107,697,1385,1117,48,92
156,-351,-507,97,331,-429,146,741,1385,1000,-307,-273
87,-356,-444,134,265,-400,190,771,1361,849,-683,-658
0,-390,-390,195,195,-390,229,780,1317,658,-1093,-1161
-78,-390,-312,234,117,-351,263,761,1268,463,-1420,-1586
-117,-346,-229,231,56,-287,312,741,1229,302,-1615,-1781
-161,-302,-141,231,-9,-222,385,741,1210,161,-1776,-1878
-209,-302,-92,256,-58,-197,458,761,1239,73,-1898,-1966
-224,-297,-73,261,-75,-185,541,844,1332,43,-1966,-1995
-273,-312,-39,292,-117,-175,585,927,1424,34,-1952,-1937
-312,-336,-24,324,-143,-180,600,932,1439,-29,-1912,-1859
-322,-336,-14,329,-153,-175,610,917,1390,-151,-1869,-1781
-326,-346,-19,336,-153,-183,663,941,1366,-224,-1761,-1688
-307,-346,-39,326,-134,-192,707,980,1376,-224,-1595,-1561
-234,-326,-92,280,-70,-209,697,985,1366,-219,-1454,-1429
-185,-287,-102,236,-41,-195,634,917,1298,-253,-1337,-1298
-170,-253,-82,212,-43,-168,585,839,1215,-273,-1229,-1195
-204,-263,-58,234,-73,-161,561,780,1141,-322,-1176,-1137
-229,-268,-39,248,-95,-153,541,712,1058,-385,-1151,-1112
-209,-239,-29,224,-90,-134,517,653,985,-429,-1107,-1058
-170,-195,-24,183,-73,-109,492,605,946,-463,-1058,-1005
-151,-156,-4,153,-73,-80,502,590,941,-473,-1005,-956
-165,-146,19,156,-92,-63,531,575,922,-488,-941,-902
-175,-175,0,175,-87,-87,566,566,893,-527,-927,-878
-190,-214,-24,202,-82,-119,600,585,878,-556,-912,-849
-190,-195,-4,192,-92,-100,663,614,883,-556,-883,-829
-180,-165,14,173,-97,-75,707,629,854,-570,-868,-819
-200,-180,19,190,-109,-80,732,644,800,-624,-888,-819
-244,-209,34,226,-139,-87,771,634,702,-688,-883,-814
-248,-219,29,234,-139,-95,790,629,590,-717,-858,-785
-219,-204,14,212,-117,-95,800,600,517,-736,-824,-766
-195,-209,-14,202,-90,-112,824,580,453,-746,-790,-732
-224,-204,19,214,-122,-92,873,580,375,-746,-761,-707
-234,-214,19,224,-126,-97,888,575,287,-741,-746,-697
-219,-224,-4,222,-107,-114,897,551,190,-751,-756,-707
-219,-258,-39,239,-90,-148,907,522,97,-751,-761,-688
-239,-287,-48,263,-95,-168,907,488,19,-761,-741,-683
-268,-307,-39,287,-114,-173,868,453,-24,-736,-702,-653
-248,-297,-48,273,-100,-173,785,434,-48,-697,-639,-595
-175,-283,-107,229,-34,-195,692,400,-63,-673,-590,-541
-112,-268,-156,190,21,-212,624,361,-92,-644,-551,-512
-97,-258,-161,178,31,-209,541,273,-107,-595,-502,-478
-102,-234,-131,168,14,-183,439,161,-117,-546,-453,-429
-87,-175,-87,131,0,-131,331,68,-126,-483,-400,-395
-82,-146,-63,114,-9,-104,253,19,-126,-429,-366,-366
-82,-131,-48,107,-17,-90,175,-43,-117,-400,-322,-346
-48,-112,-63,80,7,-87,63,-136,-122,-375,-278,-312
-24,-97,-73,61,24,-85,-39,-185,-117,-341,-229,-278
-9,-73,-63,41,26,-68,-87,-209,-97,-322,-195,-248
-4,-48,-43,26,19,-46,-122,-224,-82,-297,-180,-234
-4,-43,-39,24,17,-41,-151,-239,-78,-278,-161,-229
0,-53,-53,26,26,-53,-180,-244,-82,-263,-165,-234
14,-39,-53,12,34,-46,-200,-258,-92,-258,-165,-244
34,-19,-53,-7,43,-36,-195,-239,-78,-234,-146,-224
19,-24,-43,2,31,-34,-200,-229,-68,-224,-122,-204
-9,-63,-53,36,21,-58,-224,-244,-87,-244,-117,-204
-9,-68,-58,39,24,-63,-239,-268,-97,-248,-117,-204
9,-58,-68,24,39,-63,-258,-278,-97,-253,-102,-195
14,-43,-58,14,36,-51,-273,-283,-112,-253,-102,-195
14,-34,-48,9,31,-41,-287,-287,-122,-248,-92,-195
14,-34,-48,9,31,-41,-287,-297,-122,-244,-92,-195
14,-34,-48,9,31,-41,-292,-297,-117,-244,-97,-195
14,-34,-48,9,31,-41,-287,-283,-126,-234,-92,-190
24,-34,-58,4,41,-46,-287,-283,-131,-234,-87,-185
43,-34,-78,-4,61,-56,-292,-287,-136,-234,-68,-180
63,-29,-92,-17,78,-61,-297,-287,-141,-239,-58,-170
63,-39,-102,-12,82,-70,-302,-312,-146,-248,-58,-175
68,-29,-97,-19,82,-63,-312,-317,-151,-244,-58,-175
68,-29,-97,-19,82,-63,-322,-322,-156,-244,-63,-180
58,-34,-92,-12,75,-63,-331,-326,-156,-253,-68,-180
58,-48,-107,-4,82,-78,-341,-336,-165,-253,-68,-185
78,-43,-122,-17,100,-82,-336,-331,-161,-253,-58,-185
68,-48,-117,-9,92,-82,-331,-331,-161,-253,-53,-180
58,-63,-122,2,90,-92,-331,-336,-170,-263,-53,-180
43,-82,-126,19,85,-104,-331,-341,-175,-258,-43,-180
43,-82,-126,19,85,-104,-331,-351,-180,-263,-43,-190
43,-82,-126,19,85,-104,-331,-351,-180,-268,-43,-190
39,-82,-122,21,80,-102,-331,-351,-185,-268,-48,-195
39,-78,-117,19,78,-97,-312,-351,-185,-268,-48,-195
43,-63,-107,9,75,-85,-302,-351,-185,-268,-43,-195
48,-68,-117,9,82,-92,-302,-351,-195,-268,-43,-195
48,-68,-117,9,82,-92,-302,-356,-195,-273,-43,-195
29,-58,-87,14,58,-73,-283,-346,-200,-273,-29,-180
24,-58,-82,17,53,-70,-263,-346,-200,-278,-29,-180
24,-53,-78,14,51,-65,-244,-341,-190,-273,-24,-185
24,-19,-43,-2,34,-31,-224,-331,-175,-268,-24,-190
24,-29,-53,2,39,-41,-214,-331,-175,-273,-24,-200
14,-34,-48,9,31,-41,-214,-331,-180,-273,-19,-204
4,-43,-48,19,26,-46,-214,-331,-180,-273,-19,-204
19,-43,-63,12,41,-53,-219,-336,-185,-273,-19,-204
34,-39,-73,2,53,-56,-204,-326,-180,-278,-9,-190
24,-39,-63,7,43,-51,-200,-326,-185,-278,0,-190
19,-39,-58,9,39,-48,-195,-331,-185,-278,0,-195
19,-39,-58,9,39,-48,-195,-331,-190,-287,-4,-195
14,-48,-63,17,39,-56,-200,-336,-204,-297,-14,-200
19,-48,-68,14,43,-58,-200,-336,-204,-297,-14,-200
19,-48,-68,14,43,-58,-204,-346,-209,-302,-19,-200
19,-53,-73,17,46,-63,-209,-346,-214,-302,-24,-209
29,-53,-82,12,56,-68,-224,-346,-214,-307,-14,-200
29,-58,-87,14,58,-73,-234,-351,-214,-312,-19,-204
39,-53,-92,7,65,-73,-239,-356,-229,-322,-19,-204
53,-43,-97,-4,75,-70,-248,-361,-234,-322,-19,-204
43,-58,-102,7,73,-80,-253,-366,-253,-341,-29,-204
34,-73,-107,19,70,-90,-253,-380,-253,-346,-39,-204
24,-82,-107,29,65,-95,-253,-385,-258,-351,-39,-204
19,-87,-107,34,63,-97,-253,-390,-258,-351,-34,-204
39,-92,-131,26,85,-112,-253,-400,-263,-361,-43,-214
39,-92,-131,26,85,-112,-258,-400,-273,-370,-48,-214
39,-92,-131,26,85,-112,-263,-400,-283,-380,-53,-219
43,-92,-136,24,90,-114,-273,-405,-287,-395,-63,-219
48,-82,-131,17,90,-107,-273,-405,-287,-409,-63,-229
39,-92,-131,26,85,-112,-278,-409,-292,-409,-63,-224
43,-92,-136,24,90,-114,-283,-409,-292,-409,-63,-224
58,-87,-146,14,102,-117,-287,-414,-297,-409,-63,-219
53,-87,-141,17,97,-114,-297,-400,-297,-419,-68,-219
53,-87,-141,17,97,-114,-297,-400,-292,-414,-58,-204
48,-97,-146,24,97,-122,-302,-400,-292,-414,-48,-195
48,-97,-146,24,97,-122,-317,-395,-287,-414,-48,-195
53,-87,-141,17,97,-114,-331,-390,-268,-405,-43,-185
63,-82,-146,9,104,-114,-336,-385,-268,-405,-43,-175
73,-82,-156,4,114,-119,-341,-380,-263,-400,-43,-170
92,-73,-165,-9,129,-119,-341,-366,-253,-395,-39,-161
97,-82,-180,-7,139,-131,-361,-380,-258,-400,-39,-156
97,-82,-180,-7,139,-131,-375,-385,-258,-400,-43,-156
82,-82,-165,0,124,-124,-385,-390,-248,-400,-43,-151
78,-82,-161,2,119,-122,-395,-395,-248,-390,-34,-136
87,-87,-175,0,131,-131,-385,-400,-248,-400,-39,-126
87,-87,-175,0,131,-131,-390,-409,-248,-405,-39,-122
92,-87,-180,-2,136,-134,-390,-409,-248,-400,-39,-112
92,-82,-175,-4,134,-129,-390,-414,-244,-400,-39,-102
97,-68,-165,-14,131,-117,-370,-405,-229,-380,-34,-92
92,-58,-151,-17,122,-104,-361,-395,-224,-366,-19,-78
92,-48,-141,-21,117,-95,-341,-385,-204,-356,-4,-63
