I,II,III,aVR,aVL,aVF,V1,V2,V3,V4,V5,V6
97,68,-29,-82,63,19,-9,341,527,448,302,117
97,68,-29,-82,63,19,-9,341,527,448,302,117
97,68,-29,-82,63,19,-9,341,527,448,302,117
97,68,-29,-82,63,19,-9,341,527,448,302,117
87,78,-9,-82,48,34,-9,331,512,439,292,107
78,78,0,-78,39,39,-9,331,507,439,292,107
68,78,9,-73,29,43,-9,331,502,439,292,107
58,78,19,-68,19,48,-9,331,497,439,292,107
48,68,19,-58,14,43,0,317,483,429,283,107
48,68,19,-58,14,43,0,312,478,419,283,107
48,68,19,-58,14,43,0,307,473,409,283,107
48,68,19,-58,14,43,0,302,468,400,283,107
48,53,4,-51,21,29,-4,287,444,380,263,92
48,48,0,-48,24,24,-9,273,419,361,253,87
48,43,-4,-46,26,19,-14,258,395,341,244,82
48,39,-9,-43,29,14,-19,244,370,322,234,78
58,39,-19,-48,39,9,-29,219,351,302,214,68
68,39,-29,-53,48,4,-29,204,331,283,204,58
78,39,-39,-58,58,0,-29,190,312,263,195,48
87,39,-48,-63,68,-4,-29,175,292,244,185,39
58,39,-19,-48,39,9,-19,165,273,229,170,39
39,39,0,-39,19,19,-9,156,253,214,165,39
19,39,19,-29,0,29,0,146,234,200,161,39
0,39,39,-19,-19,39,9,136,214,185,156,39
-24,29,53,-2,-39,41,19,126,200,170,141,29
-39,19,58,9,-48,39,19,117,185,156,136,29
-53,9,63,21,-58,36,19,107,170,141,131,29
-68,0,68,34,-68,34,19,97,156,126,126,29
-58,-4,53,31,-56,24,9,78,136,102,112,9
-58,-9,48,34,-53,19,9,68,117,87,97,0
-58,-14,43,36,-51,14,9,58,97,73,82,-9
-58,-19,39,39,-48,9,9,48,78,58,68,-19
-53,-29,24,41,-39,-2,19,39,58,43,58,-34
-48,-29,19,39,-34,-4,19,29,48,29,48,-39
-43,-29,14,36,-29,-7,19,19,39,14,39,-43
-39,-29,9,34,-24,-9,19,9,29,0,29,-48
-39,-29,9,34,-24,-9,29,0,9,-14,24,-58
-39,-29,9,34,-24,-9,29,0,0,-19,19,-58
-39,-29,9,34,-24,-9,29,0,-9,-24,14,-58
-39,-29,9,34,-24,-9,29,0,-19,-29,9,-58
-43,-39,4,41,-24,-17,29,-4,-29,-34,-4,-63
-48,-39,9,43,-29,-14,29,-9,-29,-39,-9,-68
-53,-39,14,46,-34,-12,29,-14,-29,-43,-14,-73
-58,-39,19,48,-39,-9,29,-19,-29,-48,-19,-78
-53,-43,9,48,-31,-17,29,-19,-34,-53,-19,-78
-48,-48,0,48,-24,-24,29,-19,-39,-58,-19,-78
-43,-53,-9,48,-17,-31,29,-19,-43,-63,-19,-78
-39,-58,-19,48,-9,-39,29,-19,-48,-68,-19,-78
-29,-48,-19,39,-4,-34,19,-29,-48,-68,-29,-87
-29,-48,-19,39,-4,-34,19,-29,-48,-68,-29,-87
-29,-48,-19,39,-4,-34,19,-29,-48,-68,-29,-87
-29,-48,-19,39,-4,-34,19,-29,-48,-68,-29,-87
-39,-58,-19,48,-9,-39,24,-24,-39,-63,-24,-82
-48,-58,-9,53,-19,-34,29,-19,-39,-58,-19,-78
-58,-58,0,58,-29,-29,34,-14,-39,-53,-14,-73
-68,-58,9,63,-39,-24,39,-9,-39,-48,-9,-68
-78,-48,29,63,-53,-9,39,0,-29,-39,0,-68
-78,-48,29,63,-53,-9,39,0,-29,-39,0,-68
-78,-48,29,63,-53,-9,39,0,-29,-39,0,-68
-78,-48,29,63,-53,-9,39,0,-29,-39,0,-68
-63,-58,4,61,-34,-26,29,0,-29,-39,0,-68
-58,-58,0,58,-29,-29,29,0,-29,-39,0,-68
-53,-58,-4,56,-24,-31,29,0,-29,-39,0,-68
-48,-58,-9,53,-19,-34,29,0,-29,-39,0,-68
-53,-63,-9,58,-21,-36,19,-9,-29,-39,-9,-73
-58,-68,-9,63,-24,-39,19,-9,-29,-39,-9,-78
-63,-73,-9,68,-26,-41,19,-9,-29,-39,-9,-82
-68,-78,-9,73,-29,-43,19,-9,-29,-39,-9,-87
-63,-78,-14,70,-24,-46,19,0,-19,-29,0,-78
-58,-78,-19,68,-19,-48,19,0,-19,-29,0,-78
-53,-78,-24,65,-14,-51,19,0,-19,-29,0,-78
-48,-78,-29,63,-9,-53,19,0,-19,-29,0,-78
-43,-63,-19,53,-12,-41,29,9,-9,-24,9,-73
-39,-58,-19,48,-9,-39,29,9,-9,-19,9,-68
-34,-53,-19,43,-7,-36,29,9,-9,-14,9,-63
-29,-48,-19,39,-4,-34,29,9,-9,-9,9,-58
-39,-58,-19,48,-9,-39,19,0,-19,-19,9,-68
-29,-58,-29,43,0,-43,19,-4,-19,-24,9,-68
-29,-58,-29,43,0,-43,19,-4,-19,-24,9,-68
-29,-58,-29,43,0,-43,19,0,-19,-19,9,-68
-29,-53,-24,41,-2,-39,14,0,-19,-14,14,-68
-34,-53,-19,43,-7,-36,14,0,-19,-14,14,-68
-34,-53,-19,43,-7,-36,4,-9,-24,-24,4,-78
-19,-53,-34,36,7,-43,-4,-9,-29,-29,0,-78
-19,-48,-29,34,4,-39,-4,-9,-29,-29,0,-73
-24,-48,-24,36,0,-36,-9,-9,-29,-19,4,-73
-24,-48,-24,36,0,-36,-9,-9,-29,-19,9,-68
-24,-43,-19,34,-2,-31,-9,-9,-24,-19,9,-68
-29,-53,-24,41,-2,-39,-19,-19,-34,-24,9,-68
-19,-53,-34,36,7,-43,-14,-14,-34,-24,4,-73
-9,-53,-43,31,17,-48,-14,-14,-29,-29,0,-78
0,-43,-43,21,21,-43,0,-9,-24,-29,0,-82
14,-39,-53,12,34,-46,19,4,-14,-24,14,-68
14,-34,-48,9,31,-41,24,4,-4,-9,24,-63
24,-24,-48,0,36,-36,29,14,9,-4,24,-58
39,-19,-58,-9,48,-39,39,19,24,4,24,-43
24,-19,-43,-2,34,-31,48,29,34,24,34,-34
9,-19,-29,4,19,-24,58,39,34,24,39,-34
-4,-19,-14,12,4,-17,78,48,43,24,43,-34
-19,-19,0,19,-9,-9,92,53,43,29,48,-34
-24,4,29,9,-26,17,87,48,43,29,63,-29
-24,9,34,7,-29,21,82,39,43,24,63,-24
-19,24,43,-2,-31,34,68,24,39,24,63,-14
-19,34,53,-7,-36,43,39,4,29,14,68,-4
-4,34,39,-14,-21,36,-4,-14,14,4,68,-14
9,29,19,-19,-4,24,-58,-24,-4,0,68,-9
39,19,-19,-29,29,0,-107,-29,-29,-9,58,-9
48,4,-43,-26,46,-19,-131,-29,-39,-9,58,-9
58,-19,-78,-19,68,-48,-126,-43,-53,-29,43,-29
63,-34,-97,-14,80,-65,-122,-48,-68,-34,34,-39
73,-48,-122,-12,97,-85,-102,-48,-78,-43,14,-58
73,-53,-126,-9,100,-90,-82,-43,-82,-53,0,-73
92,-58,-151,-17,122,-104,-82,-58,-92,-73,-14,-87
117,-53,-170,-31,143,-112,-82,-63,-97,-78,-19,-92
141,-48,-190,-46,165,-119,-78,-68,-102,-82,-24,-92
156,-34,-190,-61,173,-112,-82,-73,-102,-87,-29,-87
97,-34,-131,-31,114,-82,-58,-58,-78,-63,-4,-58
48,-43,-92,-2,70,-68,-39,-53,-73,-48,4,-43
-14,-53,-39,34,12,-46,-19,-39,-58,-39,19,-39
-73,-58,14,65,-43,-21,14,-24,-48,-29,29,-29
-92,-73,19,82,-56,-26,39,-24,-48,-43,19,-39
-117,-78,39,97,-78,-19,48,-24,-48,-48,14,-48
-141,-87,53,114,-97,-17,58,-24,-48,-53,4,-53
-165,-97,68,131,-117,-14,58,-24,-48,-53,0,-63
-146,-102,43,124,-95,-29,58,-39,-63,-73,-14,-73
-126,-107,19,117,-73,-43,48,-48,-82,-82,-24,-87
-117,-112,4,114,-61,-53,39,-58,-92,-97,-39,-102
-102,-122,-19,112,-41,-70,29,-63,-97,-102,-43,-117
-92,-122,-29,107,-31,-75,29,-53,-97,-97,-43,-117
-92,-126,-34,109,-29,-80,29,-53,-97,-102,-48,-117
-87,-126,-39,107,-24,-82,29,-53,-97,-102,-48,-117
-87,-122,-34,104,-26,-78,29,-53,-97,-102,-48,-112
-73,-131,-58,102,-7,-95,29,-63,-112,-112,-48,-122
-73,-131,-58,102,-7,-95,29,-63,-112,-112,-48,-126
-73,-136,-63,104,-4,-100,29,-63,-107,-112,-48,-126
-87,-141,-53,114,-17,-97,29,-63,-107,-112,-53,-126
-87,-136,-48,112,-19,-92,34,-63,-112,-112,-63,-117
-78,-136,-58,107,-9,-97,34,-63,-112,-117,-63,-126
-73,-131,-58,102,-7,-95,34,-63,-112,-117,-63,-117
-68,-131,-63,100,-2,-97,34,-58,-112,-112,-63,-117
-68,-131,-63,100,-2,-97,24,-68,-112,-112,-73,-122
-82,-131,-48,107,-17,-90,29,-68,-112,-112,-68,-126
-87,-136,-48,112,-19,-92,29,-68,-107,-107,-68,-122
-87,-136,-48,112,-19,-92,29,-63,-102,-107,-63,-126
-82,-126,-43,104,-19,-85,39,-63,-102,-107,-63,-136
-82,-131,-48,107,-17,-90,39,-63,-102,-112,-63,-136
-78,-131,-53,104,-12,-92,39,-63,-102,-112,-63,-131
-73,-126,-53,100,-9,-90,39,-63,-102,-107,-63,-131
-73,-131,-58,102,-7,-95,39,-58,-102,-107,-53,-126
-78,-136,-58,107,-9,-97,39,-58,-102,-107,-58,-131
-82,-141,-58,112,-12,-100,39,-58,-102,-107,-58,-131
-87,-141,-53,114,-17,-97,39,-58,-102,-107,-58,-131
-58,-112,-53,85,-2,-82,48,-48,-102,-107,-58,-131
-68,-122,-53,95,-7,-87,48,-48,-102,-102,-58,-126
-87,-151,-63,119,-12,-107,39,-48,-92,-102,-58,-131
-92,-161,-68,126,-12,-114,48,-34,-78,-92,-48,-122
-73,-165,-92,119,9,-129,58,-9,-73,-87,-58,-131
-58,-170,-112,114,26,-141,53,4,-53,-87,-68,-146
-53,-185,-131,119,39,-158,73,34,-14,-68,-68,-161
-63,-185,-122,124,29,-153,102,102,68,-9,-43,-161
-82,-185,-102,134,9,-143,131,175,175,82,-9,-156
-43,-165,-122,104,39,-143,146,253,287,195,48,-131
19,-131,-151,56,85,-141,161,322,400,322,151,-82
14,-126,-141,56,78,-134,161,375,488,458,244,-24
9,-112,-122,51,65,-117,122,380,522,570,361,34
92,-34,-126,-29,109,-80,34,351,556,727,507,136
195,63,-131,-129,163,-34,-53,317,600,902,688,278
248,175,-73,-212,161,51,-107,244,585,1019,844,414
297,312,14,-305,141,163,-161,58,400,1015,927,512
346,444,97,-395,124,270,-268,-214,82,922,980,610
361,536,175,-448,92,356,-429,-527,-297,771,1019,707
361,644,283,-502,39,463,-566,-805,-649,624,1039,800
322,746,424,-534,-51,585,-619,-1010,-912,419,956,819
239,795,556,-517,-158,675,-644,-1224,-1215,82,766,771
156,805,649,-480,-246,727,-702,-1517,-1595,-351,512,697
58,790,732,-424,-336,761,-751,-1786,-1956,-780,224,575
-24,746,771,-361,-397,758,-780,-1956,-2225,-1171,-34,458
-73,634,707,-280,-390,671,-756,-2000,-2386,-1439,-244,336
-92,478,570,-192,-331,524,-712,-1961,-2435,-1566,-395,195
-97,400,497,-151,-297,448,-732,-1898,-2386,-1566,-463,102
-122,361,483,-119,-302,422,-795,-1834,-2264,-1483,-473,48
-190,263,453,-36,-322,358,-780,-1683,-2059,-1346,-448,4
-239,146,385,46,-312,265,-649,-1468,-1800,-1190,-409,-43
-239,82,322,78,-280,202,-541,-1278,-1546,-1034,-390,-87
-224,58,283,82,-253,170,-458,-1088,-1302,-883,-346,-107
-229,48,278,90,-253,163,-346,-868,-1024,-697,-283,-102
-229,34,263,97,-246,148,-244,-668,-766,-522,-224,-102
-165,9,175,78,-170,92,-170,-473,-546,-370,-170,-112
-112,-39,73,75,-92,17,-107,-331,-375,-258,-131,-131
-87,-63,24,75,-56,-19,-48,-239,-278,-209,-92,-131
-78,-78,0,78,-39,-39,-14,-190,-219,-170,-63,-112
-82,-92,-9,87,-36,-51,9,-136,-161,-131,-34,-97
-87,-87,0,87,-43,-43,24,-92,-122,-107,-24,-87
-87,-78,9,82,-48,-34,14,-78,-102,-92,-24,-97
-92,-87,4,90,-48,-41,14,-53,-78,-73,-39,-102
-97,-112,-14,104,-41,-63,24,-43,-48,-48,-39,-107
-92,-117,-24,104,-34,-70,48,-19,-19,-34,-24,-102
-82,-122,-39,102,-21,-80,63,-4,-14,-39,-24,-112
-73,-126,-53,100,-9,-90,68,0,-14,-39,-19,-112
-68,-136,-68,102,0,-102,68,4,-19,-43,-19,-112
-63,-136,-73,100,4,-104,68,9,-19,-43,-19,-107
-68,-136,-68,102,0,-102,63,14,0,-34,-19,-117
-63,-131,-68,97,2,-100,58,19,14,-24,-19,-122
-63,-131,-68,97,2,-100,53,29,29,-9,-24,-126
-68,-131,-63,100,-2,-97,48,39,39,-4,-24,-131
-58,-122,-63,90,2,-92,68,53,43,4,-9,-122
-58,-122,-63,90,2,-92,68,53,43,4,-9,-122
-48,-122,-73,85,12,-97,68,53,34,4,0,-117
-48,-112,-63,80,7,-87,68,58,43,4,4,-117
-63,-122,-58,92,-2,-90,63,53,34,4,-9,-117
-63,-136,-73,100,4,-104,53,58,48,4,-14,-122
-63,-151,-87,107,12,-119,48,63,53,9,-14,-122
-63,-161,-97,112,17,-129,48,63,63,14,-14,-126
-53,-156,-102,104,24,-129,58,68,73,24,-4,-117
-48,-146,-97,97,24,-122,63,73,73,24,0,-117
-43,-136,-92,90,24,-114,68,82,73,24,4,-117
-34,-122,-87,78,26,-104,73,92,73,29,9,-117
-34,-117,-82,75,24,-100,73,82,78,29,4,-117
-34,-117,-82,75,24,-100,68,87,87,29,4,-112
-29,-117,-87,73,29,-102,68,97,97,43,9,-112
-29,-112,-82,70,26,-97,68,107,102,53,14,-112
-39,-122,-82,80,21,-102,63,102,112,43,14,-122
-43,-131,-87,87,21,-109,63,102,112,48,14,-122
-48,-141,-92,95,21,-117,68,102,112,53,14,-122
-48,-151,-102,100,26,-126,68,102,122,58,19,-117
-9,-136,-126,73,58,-131,63,102,117,48,9,-126
24,-131,-156,53,90,-143,53,117,117,53,9,-126
43,-122,-165,39,104,-143,48,122,126,63,19,-126
58,-117,-175,29,117,-146,43,126,131,68,19,-126
29,-117,-146,43,87,-131,53,146,146,92,39,-117
9,-117,-126,53,68,-122,63,156,161,107,53,-102
4,-112,-117,53,61,-114,73,161,175,117,63,-87
-24,-112,-87,68,31,-100,82,170,190,126,73,-73
-19,-112,-92,65,36,-102,63,161,190,131,68,-82
-29,-112,-82,70,26,-97,73,170,200,141,73,-78
-29,-107,-78,68,24,-92,73,180,209,146,78,-73
-24,-102,-78,63,26,-90,73,185,209,156,82,-68
-24,-102,-78,63,26,-90,82,204,224,175,97,-58
-29,-97,-68,63,19,-82,78,204,234,180,102,-53
-34,-97,-63,65,14,-80,78,209,244,185,107,-48
-24,-107,-82,65,29,-95,78,214,253,195,112,-43
-19,-97,-78,58,29,-87,78,219,263,190,107,-43
-19,-92,-73,56,26,-82,73,224,268,200,112,-43
-19,-92,-73,56,26,-82,73,229,283,209,122,-43
-4,-92,-87,48,41,-90,73,239,287,224,122,-43
4,-92,-97,43,51,-95,68,234,292,224,122,-48
14,-82,-97,34,56,-90,63,244,307,239,131,-39
19,-82,-102,31,61,-92,58,248,317,248,141,-43
29,-78,-107,24,68,-92,53,263,326,258,151,-39
39,-73,-112,17,75,-92,29,268,341,263,141,-39
63,-63,-126,0,95,-95,29,268,351,268,146,-34
78,-58,-136,-9,107,-97,34,283,361,283,156,-29
87,-48,-136,-19,112,-92,34,283,375,292,170,-24
87,-53,-141,-17,114,-97,34,283,380,302,161,-24
87,-53,-141,-17,114,-97,24,297,400,322,175,-19
97,-58,-156,-19,126,-107,19,297,405,326,185,-19
112,-63,-175,-24,143,-119,19,312,424,341,195,-14
97,-48,-146,-24,122,-97,24,331,444,361,209,9
78,-34,-112,-21,95,-73,29,346,463,375,224,19
58,-29,-87,-14,73,-58,34,351,483,395,248,29
39,-19,-58,-9,48,-39,34,370,507,414,268,39
63,-9,-73,-26,68,-41,34,375,507,414,278,43
68,0,-68,-34,68,-34,34,380,522,424,278,48
73,4,-68,-39,70,-31,24,385,531,434,283,53
78,4,-73,-41,75,-34,24,385,531,439,278,58
82,9,-73,-46,78,-31,19,375,531,444,283,48
87,9,-78,-48,82,-34,14,380,536,448,287,48
87,9,-78,-48,82,-34,14,385,541,453,287,58
82,4,-78,-43,80,-36,9,385,541,458,292,63
92,4,-87,-48,90,-41,9,385,531,453,292,68
97,9,-87,-53,92,-39,9,385,536,453,297,68
107,9,-97,-58,102,-43,9,380,536,453,302,73
107,9,-97,-58,102,-43,9,380,541,458,302,73
102,19,-82,-61,92,-31,4,380,551,463,302,73
102,24,-78,-63,90,-26,0,380,551,463,307,78
112,29,-82,-70,97,-26,0,375,551,463,307,78
122,29,-92,-75,107,-31,-4,370,546,458,307,78
122,29,-92,-75,107,-31,4,370,541,468,317,87
117,29,-87,-73,102,-29,4,370,541,463,317,87
107,29,-78,-68,92,-24,0,370,536,463,317,87
107,29,-78,-68,92,-24,0,361,531,458,312,87
97,19,-78,-58,87,-29,-9,356,522,448,307,82
97,19,-78,-58,87,-29,-14,351,512,439,302,82
97,19,-78,-58,87,-29,-14,336,497,429,297,78
107,14,-92,-61,100,-39,-14,331,473,414,287,73
126,24,-102,-75,114,-39,-19,322,463,405,278,68
141,24,-117,-82,129,-46,-24,312,448,390,268,58
156,24,-131,-90,143,-53,-29,287,434,370,263,48
161,24,-136,-92,148,-56,-39,273,409,356,253,43
131,34,-97,-82,114,-31,-34,268,409,351,248,58
107,34,-73,-70,90,-19,-24,263,400,341,248,63
73,29,-43,-51,58,-7,-19,248,375,331,244,58
63,29,-34,-46,48,-2,-14,244,356,317,239,58
58,19,-39,-39,48,-9,-9,219,326,292,219,53
63,9,-53,-36,58,-21,-9,204,302,268,204,48
43,4,-39,-24,41,-17,-9,195,283,248,190,39
34,0,-34,-17,34,-17,-9,180,263,234,185,29
39,9,-29,-24,34,-9,0,175,244,219,170,34
34,0,-34,-17,34,-17,0,161,224,200,165,29
29,0,-29,-14,29,-14,0,146,214,180,156,19
43,0,-43,-21,43,-21,0,136,200,161,146,14
34,-9,-43,-12,39,-26,-4,112,170,156,131,0
29,-19,-48,-4,39,-34,-4,97,151,141,122,-14
24,-24,-48,0,36,-36,-4,87,136,122,112,-19
24,-34,-58,4,41,-46,-4,73,112,102,102,-29
9,-48,-58,19,34,-53,0,63,107,78,78,-34
9,-53,-63,21,36,-58,4,58,92,63,68,-43
0,-58,-58,29,29,-58,4,48,78,53,58,-48
-4,-63,-58,34,26,-61,4,39,63,39,53,-53
4,-58,-63,26,34,-61,14,29,48,34,48,-63
4,-58,-63,26,34,-61,14,24,34,19,34,-68
0,-63,-63,31,31,-63,24,24,29,14,34,-73
-4,-58,-53,31,24,-56,29,19,19,9,24,-73
0,-68,-68,34,34,-68,19,4,9,0,19,-82
-14,-68,-53,41,19,-61,24,4,9,0,19,-78
-19,-73,-53,46,17,-63,24,0,9,0,14,-78
-34,-78,-43,56,4,-61,24,-4,0,-9,14,-87
-19,-73,-53,46,17,-63,24,4,0,-19,9,-87
-14,-73,-58,43,21,-65,29,0,-4,-19,4,-87
-9,-68,-58,39,24,-63,29,0,-9,-19,0,-97
-4,-63,-58,34,26,-61,29,-4,-14,-19,-4,-102
-4,-68,-63,36,29,-65,29,-4,-14,-24,0,-102
-4,-68,-63,36,29,-65,29,-4,-14,-24,4,-97
-4,-68,-63,36,29,-65,29,0,-14,-24,9,-87
-4,-68,-63,36,29,-65,29,0,-14,-34,14,-82
-14,-68,-53,41,19,-61,29,0,-14,-24,4,-82
-9,-68,-58,39,24,-63,29,0,-14,-24,4,-82
-9,-68,-58,39,24,-63,29,0,-14,-19,4,-92
-4,-73,-68,39,31,-70,29,0,-14,-19,4,-92
-9,-63,-53,36,21,-58,29,9,-4,-14,14,-82
-14,-63,-48,39,17,-56,29,14,-4,-14,9,-87
-14,-63,-48,39,17,-56,29,14,-9,-14,9,-87
-9,-68,-58,39,24,-63,29,0,-14,-14,9,-82
4,-68,-73,31,39,-70,29,9,-14,-24,4,-92
0,-68,-68,34,34,-68,29,9,-9,-14,4,-87
4,-68,-73,31,39,-70,24,9,-9,-14,9,-87
9,-63,-73,26,41,-68,19,9,-4,-9,9,-87
24,-48,-73,12,48,-61,9,9,-14,-9,0,-87
34,-48,-82,7,58,-65,19,4,-9,-14,4,-92
39,-48,-87,4,63,-68,19,4,-9,-14,9,-97
43,-48,-92,2,68,-70,19,4,-9,-19,14,-102
24,-48,-73,12,48,-61,19,9,0,-9,14,-87
19,-53,-73,17,46,-63,19,9,0,-9,14,-87
14,-58,-73,21,43,-65,19,9,4,-9,14,-87
19,-58,-78,19,48,-68,19,9,4,-9,19,-78
14,-58,-73,21,43,-65,19,9,4,-9,19,-87
14,-58,-73,21,43,-65,14,9,4,-9,19,-87
14,-58,-73,21,43,-65,14,14,-4,-14,9,-87
19,-58,-78,19,48,-68,14,14,-4,-14,19,-87
48,-48,-97,0,73,-73,14,14,-4,0,19,-87
34,-63,-97,14,65,-80,14,14,-4,-9,19,-87
14,-58,-73,21,43,-65,9,14,0,0,24,-78
24,-48,-73,12,48,-61,19,4,0,4,24,-78
48,-58,-107,4,78,-82,9,0,0,-9,19,-87
39,-68,-107,14,73,-87,19,4,9,0,29,-82
29,-68,-97,19,63,-82,19,9,9,0,29,-78
19,-68,-87,24,53,-78,19,14,9,0,29,-73
9,-68,-78,29,43,-73,19,19,9,0,29,-68
0,-78,-78,39,39,-78,19,4,9,-4,29,-68
-9,-78,-68,43,29,-73,19,4,9,-4,29,-68
-19,-78,-58,48,19,-68,19,9,9,0,29,-68
-29,-73,-43,51,7,-58,24,9,9,4,34,-68
-4,-73,-68,39,31,-70,9,4,0,0,19,-78
14,-73,-87,29,51,-80,-4,-9,-14,-14,4,-97
48,-73,-122,12,85,-97,-19,-14,-29,-24,-4,-107
68,-68,-136,0,102,-102,-24,-19,-39,-29,-9,-112
53,-48,-102,-2,78,-75,-14,-4,-19,-4,19,-87
43,-29,-73,-7,58,-51,0,9,0,9,39,-68
34,-4,-39,-14,36,-21,14,24,24,24,53,-53
9,14,4,-12,2,9,29,39,43,39,73,-34
0,-4,-4,2,2,-4,29,39,39,29,68,-43
-9,-14,-4,12,-2,-9,24,34,39,24,63,-43
-19,-14,4,17,-12,-4,34,34,39,24,63,-43
-24,-19,4,21,-14,-7,39,34,39,19,63,-34
-9,-24,-14,17,2,-19,34,24,39,29,68,-39
14,-14,-29,0,21,-21,39,34,43,29,63,-43
43,-9,-53,-17,48,-31,48,39,48,34,58,-39
58,-9,-68,-24,63,-39,53,43,43,43,58,-43
43,0,-43,-21,43,-21,63,58,53,43,68,-43
39,0,-39,-19,39,-19,82,63,63,43,68,-43
34,0,-34,-17,34,-17,97,63,63,48,68,-43
34,14,-19,-24,26,-2,102,63,63,48,73,-43
53,29,-24,-41,39,2,82,48,53,39,68,-43
68,43,-24,-56,46,9,53,29,39,34,63,-39
78,53,-24,-65,51,14,9,4,19,19,63,-34
97,58,-39,-78,68,9,-39,-24,0,14,58,-34
102,48,-53,-75,78,-2,-73,-19,-4,9,58,-29
122,34,-87,-78,104,-26,-112,-19,-24,0,48,-29
122,14,-107,-68,114,-46,-126,-14,-29,0,48,-29
117,-9,-126,-53,122,-68,-131,-14,-39,-14,43,-29
112,-14,-126,-48,119,-70,-122,-29,-58,-24,39,-43
112,-29,-141,-41,126,-85,-97,-29,-63,-29,24,-58
102,-34,-136,-34,119,-85,-73,-24,-63,-34,14,-68
97,-43,-141,-26,119,-92,-53,-24,-68,-39,9,-78
92,-34,-126,-29,109,-80,-53,-34,-58,-39,19,-78
87,-34,-122,-26,104,-78,-39,-34,-58,-39,19,-73
73,-24,-97,-24,85,-61,-34,-34,-53,-39,19,-63
58,-24,-82,-17,70,-53,-29,-34,-53,-39,19,-53
53,-43,-97,-4,75,-70,-19,-34,-63,-39,14,-58
34,-53,-87,9,61,-70,-19,-34,-63,-43,14,-73
19,-58,-78,19,48,-68,-4,-34,-68,-48,9,-82
4,-68,-73,31,39,-70,9,-34,-68,-53,0,-97
-4,-58,-53,31,24,-56,9,-43,-78,-68,-4,-97
-14,-63,-48,39,17,-56,19,-43,-78,-73,-14,-102
-24,-68,-43,46,9,-56,19,-43,-78,-73,-19,-112
-19,-73,-53,46,17,-63,29,-53,-87,-87,-29,-112
-14,-68,-53,41,19,-61,29,-48,-92,-82,-34,-117
-19,-73,-53,46,17,-63,29,-53,-97,-92,-43,-122
-19,-82,-63,51,21,-73,29,-53,-97,-92,-43,-126
-14,-87,-73,51,29,-80,29,-53,-97,-97,-43,-131
-24,-97,-73,61,24,-85,29,-53,-97,-92,-48,-136
-19,-102,-82,61,31,-92,29,-53,-97,-92,-48,-141
-19,-102,-82,61,31,-92,29,-53,-97,-92,-48,-141
-14,-97,-82,56,34,-90,29,-53,-102,-92,-58,-141
-24,-102,-78,63,26,-90,29,-63,-102,-102,-58,-136
-24,-102,-78,63,26,-90,29,-63,-97,-102,-58,-136
-39,-102,-63,70,12,-82,29,-63,-97,-102,-63,-136
-39,-107,-68,73,14,-87,34,-63,-102,-102,-63,-136
-29,-117,-87,73,29,-102,34,-63,-102,-107,-53,-156
-24,-112,-87,68,31,-100,34,-63,-102,-107,-53,-146
-19,-112,-92,65,36,-102,34,-58,-102,-102,-53,-146
-19,-112,-92,65,36,-102,34,-58,-102,-102,-53,-146
-29,-102,-73,65,21,-87,29,-58,-102,-112,-53,-156
-29,-107,-78,68,24,-92,29,-58,-97,-107,-58,-146
-24,-107,-82,65,29,-95,29,-53,-92,-107,-58,-146
-19,-107,-87,63,34,-97,29,-53,-92,-107,-63,-156
-29,-112,-82,70,26,-97,39,-53,-92,-102,-53,-146
-34,-112,-78,73,21,-95,39,-53,-92,-102,-53,-141
-39,-107,-68,73,14,-87,39,-53,-92,-97,-53,-141
-29,-107,-78,68,24,-92,39,-58,-92,-97,-53,-146
-19,-107,-87,63,34,-97,39,-58,-102,-107,-58,-161
-19,-107,-87,63,34,-97,39,-58,-102,-107,-58,-161
-19,-102,-82,61,31,-92,39,-58,-102,-107,-58,-161
-19,-102,-82,61,31,-92,39,-58,-102,-107,-58,-161
-19,-102,-82,61,31,-92,29,-58,-92,-102,-68,-165
0,-92,-92,46,46,-92,29,-48,-92,-102,-68,-170
4,-102,-107,48,56,-104,29,-43,-87,-92,-68,-180
34,-107,-141,36,87,-124,29,-29,-82,-97,-78,-190
39,-122,-161,41,100,-141,34,-4,-53,-87,-78,-195
-14,-117,-102,65,43,-109,63,43,4,-48,-58,-200
-43,-117,-73,80,14,-95,112,141,126,39,-24,-190
-53,-126,-73,90,9,-100,151,244,253,151,19,-165
-53,-136,-82,95,14,-109,156,322,356,263,78,-141
-39,-131,-92,85,26,-112,170,370,458,390,170,-92
14,-97,-112,41,63,-104,151,405,527,507,273,-24
107,-24,-131,-41,119,-78,92,380,531,629,409,53
229,73,-156,-151,192,-41,4,341,575,814,595,185
302,180,-122,-241,212,29,-63,326,619,990,795,326
326,283,-43,-305,185,119,-107,214,536,1049,902,434
336,380,43,-358,146,212,-170,-39,273,956,936,502
356,483,126,-419,114,305,-297,-370,-122,824,951,590
390,624,234,-507,78,429,-448,-712,-522,683,980,688
380,741,361,-561,9,551,-575,-980,-824,517,971,751
331,824,492,-578,-80,658,-629,-1176,-1088,273,858,751
268,863,595,-566,-163,729,-673,-1429,-1429,-102,658,702
175,863,688,-519,-256,775,-722,-1732,-1790,-536,395,610
68,839,771,-453,-351,805,-771,-1961,-2103,-956,117,478
4,775,771,-390,-383,773,-780,-2074,-2322,-1288,-131,351
-24,653,678,-314,-351,666,-736,-2069,-2435,-1507,-322,219
-53,546,600,-246,-326,573,-722,-2030,-2454,-1586,-453,87
-78,478,556,-200,-317,517,-771,-1976,-2376,-1546,-492,14
-122,409,531,-143,-326,470,-805,-1864,-2205,-1434,-473,-9
-170,302,473,-65,-322,387,-741,-1683,-1961,-1278,-439,-53
-190,185,375,2,-283,280,-619,-1468,-1703,-1132,-409,-92
-200,92,292,53,-246,192,-522,-1249,-1439,-976,-370,-126
-185,58,244,63,-214,151,-419,-1029,-1185,-805,-326,-146
-151,58,209,46,-180,134,-317,-800,-907,-629,-273,-151
-122,63,185,29,-153,124,-224,-580,-658,-453,-214,-151
-87,58,146,14,-117,102,-131,-395,-439,-312,-161,-151
-53,39,92,7,-73,65,-68,-283,-307,-209,-112,-151
-48,4,53,21,-51,29,-29,-219,-239,-170,-82,-141
-39,-19,19,29,-29,0,-4,-170,-190,-141,-53,-122
-14,-34,-19,24,2,-26,19,-107,-141,-122,-34,-107
-29,-48,-19,39,-4,-34,24,-82,-112,-97,-24,-107
-48,-78,-29,63,-9,-53,24,-58,-82,-92,-43,-126
-43,-97,-53,70,4,-75,24,-34,-48,-73,-58,-131
-29,-92,-63,61,17,-78,53,-14,-19,-39,-48,-126
-14,-78,-63,46,24,-70,78,0,0,-14,-24,-122
-19,-87,-68,53,24,-78,78,9,0,-14,-24,-122
-14,-97,-82,56,34,-90,78,9,-4,-19,-19,-122
-14,-112,-97,63,41,-104,73,9,-14,-29,-19,-122
-14,-117,-102,65,43,-109,68,9,-19,-34,-19,-117
-14,-117,-102,65,43,-109,68,29,9,-24,-19,-126
-14,-112,-97,63,41,-104,68,39,24,-14,-19,-131
-19,-112,-92,65,36,-102,68,53,39,0,-24,-136
-29,-112,-82,70,26,-97,68,68,48,4,-24,-141
-39,-112,-73,75,17,-92,87,63,43,4,-19,-151
-39,-112,-73,75,17,-92,87,63,43,4,-19,-151
-29,-112,-82,70,26,-97,87,63,34,4,-9,-146
-29,-102,-73,65,21,-87,87,68,43,4,-4,-146
-19,-92,-73,56,26,-82,82,68,43,0,-9,-141
-4,-97,-92,51,43,-95,73,78,58,4,-14,-141
9,-102,-112,46,61,-107,68,87,63,14,-14,-136
24,-102,-126,39,75,-114,68,92,73,24,-14,-136
19,-112,-131,46,75,-122,73,87,73,24,-9,-136
19,-117,-136,48,78,-126,73,82,73,24,-9,-136
19,-122,-141,51,80,-131,73,82,73,24,-9,-136
24,-122,-146,48,85,-134,73,82,73,29,-9,-136
9,-117,-126,53,68,-122,78,97,82,34,4,-136
-4,-117,-112,61,53,-114,78,107,97,39,4,-131
-14,-117,-102,65,43,-109,82,122,112,58,9,-131
-29,-112,-82,70,26,-97,87,136,122,73,14,-131
-39,-102,-63,70,12,-82,82,131,131,73,14,-131
-43,-102,-58,73,7,-80,82,131,131,78,14,-131
-48,-102,-53,75,2,-78,87,131,131,82,14,-131
-48,-102,-53,75,2,-78,87,131,141,87,19,-126
-14,-87,-73,51,29,-80,78,131,131,78,19,-122
14,-82,-97,34,56,-90,73,146,136,82,19,-117
29,-73,-102,21,65,-87,73,151,151,92,29,-112
39,-68,-107,14,73,-87,73,156,161,97,29,-107
34,-78,-112,21,73,-95,78,170,175,112,39,-97
29,-78,-107,24,68,-92,82,175,180,126,53,-92
39,-73,-112,17,75,-92,87,175,185,136,63,-87
24,-73,-97,24,61,-85,92,180,190,146,73,-82
29,-78,-107,24,68,-92,73,175,185,146,63,-97
19,-82,-102,31,61,-92,82,180,200,151,63,-97
19,-82,-102,31,61,-92,82,185,214,151,63,-97
24,-82,-107,29,65,-95,82,185,219,156,63,-97
34,-82,-117,24,75,-100,78,195,224,156,58,-97
39,-78,-117,19,78,-97,68,195,234,161,63,-92
43,-78,-122,17,82,-100,63,200,244,165,68,-87
63,-87,-151,12,107,-119,58,204,253,175,73,-82
78,-87,-165,4,122,-126,58,214,253,190,82,-82
78,-82,-161,2,119,-122,53,224,258,200,92,-82
78,-82,-161,2,119,-122,53,234,273,209,107,-82
92,-82,-175,-4,134,-129,53,248,278,224,112,-82
68,-68,-136,0,102,-102,58,253,307,239,131,-73
53,-53,-107,0,80,-80,63,263,326,258,141,-58
34,-48,-82,7,58,-65,68,268,341,273,151,-58
19,-39,-58,9,39,-48,73,283,356,287,161,-48
24,-34,-58,4,41,-46,58,297,370,297,151,-39
43,-24,-68,-9,56,-46,58,297,380,297,156,-34
53,-19,-73,-17,63,-46,63,312,390,307,165,-29
58,-9,-68,-24,63,-39,63,312,405,312,180,-24
63,-14,-78,-24,70,-46,53,312,409,322,170,-14
68,-14,-82,-26,75,-48,43,326,429,341,185,-9
82,-19,-102,-31,92,-61,39,326,434,346,195,-9
102,-24,-126,-39,114,-75,39,341,453,361,204,-4
97,-24,-122,-36,109,-73,39,356,463,385,219,-4
97,-14,-112,-41,104,-63,39,366,473,395,224,0
97,-14,-112,-41,104,-63,39,366,483,409,239,4
97,-9,-107,-43,102,-58,34,380,497,424,248,9
107,0,-107,-53,107,-53,34,375,497,419,248,4
107,9,-97,-58,102,-43,34,380,512,424,248,9
107,14,-92,-61,100,-39,24,385,522,429,253,14
107,14,-92,-61,100,-39,24,385,522,429,248,19
112,19,-92,-65,102,-36,29,385,531,444,263,29
117,19,-97,-68,107,-39,24,390,536,448,268,29
117,19,-97,-68,107,-39,24,395,541,453,268,39
112,14,-97,-63,104,-41,19,395,541,458,273,43
117,24,-92,-70,104,-34,19,385,536,453,273,39
126,29,-97,-78,112,-34,19,385,536,453,278,39
141,29,-112,-85,126,-41,19,380,531,453,283,43
146,29,-117,-87,131,-43,19,380,531,458,283,43
170,48,-122,-109,146,-36,0,370,522,453,283,43
190,53,-136,-122,163,-41,-9,370,522,453,287,48
219,58,-161,-139,190,-51,-14,366,522,453,287,48
248,58,-190,-153,219,-65,-24,361,517,448,287,48
219,53,-165,-136,192,-56,-14,366,527,458,297,58
195,48,-146,-122,170,-48,-4,370,531,453,297,68
165,43,-122,-104,143,-39,0,375,531,453,297,78
146,39,-107,-92,126,-34,9,370,531,448,292,87
122,34,-87,-78,104,-26,14,375,536,458,302,97
97,29,-68,-63,82,-19,14,370,531,458,312,102
73,24,-48,-48,61,-12,19,356,522,458,322,102
58,14,-43,-36,51,-14,24,351,502,453,326,102
68,19,-48,-43,58,-14,19,341,488,434,307,92
73,24,-48,-48,61,-12,14,331,468,409,287,78
78,29,-48,-53,63,-9,9,307,448,380,273,63
73,34,-39,-53,56,-2,0,292,419,356,253,53
73,43,-29,-58,51,7,0,273,400,346,234,43
68,53,-14,-61,41,19,4,263,390,331,229,43
53,58,4,-56,24,31,4,244,366,317,219,34
63,68,4,-65,29,36,4,234,346,297,209,29
82,63,-19,-73,51,21,0,219,326,292,209,29
102,48,-53,-75,78,-2,0,204,302,268,195,29
97,39,-58,-68,78,-9,0,195,283,248,180,24
102,29,-73,-65,87,-21,0,180,263,234,175,19
78,19,-58,-48,68,-19,9,165,248,219,165,14
63,9,-53,-36,58,-21,9,151,224,200,156,9
48,9,-39,-29,43,-14,9,136,209,180,141,0
53,9,-43,-31,48,-17,9,126,190,161,126,-4
63,19,-43,-41,53,-12,14,112,170,146,112,-9
58,9,-48,-34,53,-19,14,97,151,131,102,-24
53,4,-48,-29,51,-21,14,87,136,112,92,-29
53,-4,-58,-24,56,-31,14,73,112,92,82,-39
48,-19,-68,-14,58,-43,9,53,87,73,63,-53
48,-24,-73,-12,61,-48,14,48,73,53,48,-63
39,-29,-68,-4,53,-48,14,39,58,39,34,-68
34,-34,-68,0,51,-51,14,29,43,19,24,-73
63,-43,-107,-9,85,-75,0,4,24,0,9,-92
82,-48,-131,-17,107,-90,-4,-4,4,-19,-14,-107
97,-58,-156,-19,126,-107,0,-9,-4,-29,-24,-122
112,-58,-170,-26,141,-114,0,-19,-19,-39,-43,-131
73,-43,-117,-14,95,-80,19,-4,-14,-34,-24,-112
34,-29,-63,-2,48,-46,34,4,0,-19,-9,-97
4,-19,-24,7,14,-21,43,9,14,-4,0,-87
-34,-9,24,21,-29,7,53,14,19,0,14,-87
-53,-14,39,34,-46,12,63,19,29,0,24,-78
-63,-24,39,43,-51,7,68,19,24,0,24,-68
-73,-29,43,51,-58,7,68,24,19,0,24,-68
-82,-34,48,58,-65,7,68,24,14,0,24,-63
-73,-43,29,58,-51,-7,58,19,9,-9,19,-73
-63,-48,14,56,-39,-17,58,14,4,-14,14,-78
-53,-53,0,53,-26,-26,58,14,0,-19,9,-78
-43,-58,-14,51,-14,-36,58,9,-4,-34,4,-82
-39,-48,-9,43,-14,-29,48,19,4,-24,-4,-78
-29,-48,-19,39,-4,-34,48,19,4,-24,-4,-73
-24,-48,-24,36,0,-36,48,19,4,-19,-4,-78
-14,-53,-39,34,12,-46,48,19,4,-19,-4,-73
-24,-63,-39,43,7,-51,48,14,-4,-34,-9,-87
-24,-63,-39,43,7,-51,48,14,-4,-34,-19,-97
-19,-63,-43,41,12,-53,48,9,-9,-34,-24,-102
-9,-68,-58,39,24,-63,48,-9,-14,-34,-29,-102
0,-63,-63,31,31,-63,58,4,-4,-34,-29,-92
-9,-58,-48,34,19,-53,58,9,0,-24,-24,-87
-9,-53,-43,31,17,-48,53,14,0,-24,-14,-87
-9,-43,-34,26,12,-39,48,19,4,-19,-9,-87
4,-48,-53,21,29,-51,39,14,-4,-14,0,-82
4,-48,-53,21,29,-51,48,14,0,-14,4,-82
0,-48,-48,24,24,-48,48,19,0,-9,9,-82
-4,-48,-43,26,19,-46,48,24,0,-9,14,-82
-9,-43,-34,26,12,-39,39,19,9,0,4,-78
-9,-43,-34,26,12,-39,39,19,9,0,4,-78
-9,-43,-34,26,12,-39,39,19,14,0,4,-78
0,-39,-39,19,19,-39,39,19,14,0,9,-68
-4,-34,-29,19,12,-31,39,19,14,-9,0,-78
-4,-29,-24,17,9,-26,34,19,14,-9,0,-78
-4,-24,-19,14,7,-21,34,24,4,-14,-9,-78
0,-19,-19,9,9,-19,34,24,4,-14,0,-78
0,-24,-24,12,12,-24,43,24,4,-19,-9,-87
-4,-34,-29,19,12,-31,43,24,4,-9,-9,-97
-4,-43,-39,24,17,-41,48,24,9,-9,-4,-97
-4,-48,-43,26,19,-46,48,24,9,-4,-4,-97
-4,-48,-43,26,19,-46,43,24,9,-4,4,-87
-4,-43,-39,24,17,-41,43,24,4,-4,4,-82
-4,-43,-39,24,17,-41,43,24,4,-9,4,-78
-4,-53,-48,29,21,-51,43,24,4,-14,4,-68
9,-48,-58,19,34,-53,48,29,14,-9,14,-58
14,-48,-63,17,39,-56,53,29,14,0,14,-58
14,-53,-68,19,41,-61,58,34,19,4,14,-58
9,-58,-68,24,39,-63,58,34,19,9,14,-53
4,-48,-53,21,29,-51,48,24,9,0,9,-58
0,-43,-43,21,21,-43,48,19,4,-4,4,-68
0,-34,-34,17,17,-34,48,14,-4,-9,4,-78
-4,-19,-14,12,4,-17,48,9,-9,-14,4,-92
0,-29,-29,14,14,-29,39,0,-9,-19,-4,-92
0,-24,-24,12,12,-24,39,0,-9,-24,-9,-87
4,-24,-29,9,17,-26,39,0,-9,-24,-9,-87
9,-24,-34,7,21,-29,39,0,-9,-24,-9,-82
0,-39,-39,19,19,-39,58,19,0,4,14,-63
-9,-39,-29,24,9,-34,68,29,9,0,19,-58
-9,-48,-39,29,14,-43,63,24,-4,-14,9,-63
-9,-58,-48,34,19,-53,58,19,-9,-19,0,-68
-9,-68,-58,39,24,-63,53,14,-14,-24,-9,-73
-9,-78,-68,43,29,-73,48,9,-19,-29,-19,-78
4,-78,-82,36,43,-80,39,0,-29,-34,-19,-82
9,-78,-87,34,48,-82,39,-4,-29,-34,-19,-87
14,-78,-92,31,53,-85,39,-4,-29,-29,-19,-92
19,-73,-92,26,56,-82,43,-9,-29,-24,-14,-97
29,-68,-97,19,63,-82,34,-19,-39,-39,-29,-102
34,-63,-97,14,65,-80,24,-29,-43,-53,-43,-117
53,-58,-112,2,82,-85,14,-29,-48,-63,-53,-122
58,-48,-107,-4,82,-78,14,-29,-48,-68,-58,-122
24,-48,-73,12,48,-61,19,-19,-34,-43,-43,-112
-4,-48,-43,26,19,-46,29,-9,-29,-39,-29,-97
-34,-43,-9,39,-12,-26,39,0,-19,-34,-19,-87
-78,-43,34,61,-56,-4,48,9,-14,-29,-4,-73
-68,-53,14,61,-41,-19,43,14,-24,-24,-4,-63
-58,-53,4,56,-31,-24,43,14,-19,-24,-4,-63
-48,-43,4,46,-26,-19,58,19,-14,-19,0,-63
-34,-39,-4,36,-14,-21,68,24,-9,-19,4,-53
-34,-43,-9,39,-12,-26,73,14,4,-9,24,-43
-24,-34,-9,29,-7,-21,78,24,14,-9,24,-43
-9,-29,-19,19,4,-24,87,29,24,-4,24,-34
-9,-29,-19,19,4,-24,92,34,24,4,29,-34
-9,-19,-9,14,0,-14,97,39,24,14,29,-34
-9,-19,-9,14,0,-14,112,43,34,14,29,-34
-9,-19,-9,14,0,-14,122,43,34,19,29,-34
-4,-4,0,4,-2,-2,122,43,34,19,34,-34
9,0,-9,-4,9,-4,122,39,24,9,19,-39
19,14,-4,-17,12,4,112,29,19,4,14,-39
24,24,0,-24,12,12,87,14,9,-9,14,-39
39,29,-9,-34,24,9,58,-4,0,-14,9,-43
43,19,-24,-31,34,-2,14,-14,-4,-14,14,-39
63,14,-48,-39,56,-17,-24,-19,-24,-19,9,-39
63,4,-58,-34,61,-26,-39,-19,-29,-14,14,-39
58,-9,-68,-24,63,-39,-43,-24,-39,-24,14,-39
53,-9,-63,-21,58,-36,-58,-19,-48,-24,24,-34
53,-19,-73,-17,63,-46,-48,-19,-53,-29,14,-39
43,-19,-63,-12,53,-41,-39,-14,-53,-34,9,-39
39,-24,-63,-7,51,-43,-34,-14,-58,-39,9,-39
48,-34,-82,-7,65,-58,-24,-14,-48,-29,0,-53
48,-34,-82,-7,65,-58,-9,-14,-48,-29,0,-53
39,-24,-63,-7,51,-43,-4,-14,-43,-29,0,-48
29,-24,-53,-2,41,-39,0,-14,-43,-29,0,-43
19,-43,-63,12,41,-53,4,-24,-53,-43,-4,-34
4,-53,-58,24,31,-56,9,-24,-53,-53,-4,-43
-4,-58,-53,31,24,-56,29,-24,-58,-63,-9,-48
-14,-68,-53,41,19,-61,48,-24,-58,-73,-19,-58
-19,-78,-58,48,19,-68,48,-24,-58,-68,-24,-58
-34,-82,-48,58,7,-65,58,-24,-58,-73,-34,-63
-48,-87,-39,68,-4,-63,58,-24,-58,-73,-39,-73
-48,-92,-43,70,-2,-68,68,-34,-68,-87,-48,-73
-58,-97,-39,78,-9,-68,58,-39,-92,-82,-48,-78
-68,-102,-34,85,-17,-68,58,-43,-97,-92,-53,-82
-73,-112,-39,92,-17,-75,58,-43,-97,-92,-48,-87
-73,-117,-43,95,-14,-80,58,-43,-97,-97,-43,-92
-53,-117,-63,85,4,-90,48,-53,-107,-112,-53,-107
-39,-122,-82,80,21,-102,48,-53,-107,-112,-58,-112
-29,-122,-92,75,31,-107,48,-53,-107,-112,-63,-112
-14,-117,-102,65,43,-109,48,-53,-112,-112,-78,-112
-29,-122,-92,75,31,-107,48,-53,-112,-112,-87,-131
-34,-122,-87,78,26,-104,48,-53,-107,-112,-87,-136
-53,-122,-68,87,7,-95,48,-53,-107,-112,-92,-141
-58,-126,-68,92,4,-97,53,-53,-112,-112,-92,-146
-73,-122,-48,97,-12,-85,63,-48,-97,-112,-87,-136
-92,-112,-19,102,-36,-65,73,-43,-92,-107,-82,-117
-112,-107,4,109,-58,-51,82,-34,-87,-97,-78,-107
-136,-102,34,119,-85,-34,92,-29,-82,-92,-73,-97
-136,-92,43,114,-90,-24,87,-19,-82,-82,-58,-107
-126,-97,29,112,-78,-34,87,-19,-78,-78,-58,-97
-112,-97,14,104,-63,-41,87,-14,-73,-78,-53,-97
-97,-97,0,97,-48,-48,87,-14,-73,-78,-53,-107
-97,-107,-9,102,-43,-58,87,-24,-73,-92,-53,-102
-92,-112,-19,102,-36,-65,87,-24,-73,-92,-53,-92
-87,-112,-24,100,-31,-68,87,-24,-73,-87,-53,-87
-68,-117,-48,92,-9,-82,87,-29,-73,-87,-53,-87
-73,-117,-43,95,-14,-80,78,-29,-82,-92,-68,-102
-78,-117,-39,97,-19,-78,78,-29,-82,-97,-68,-102
-82,-112,-29,97,-26,-70,78,-29,-82,-102,-68,-102
-87,-112,-24,100,-31,-68,78,-29,-82,-107,-68,-102
-68,-92,-24,80,-21,-58,78,-29,-82,-102,-68,-87
-68,-102,-34,85,-17,-68,78,-29,-82,-102,-68,-92
-82,-122,-39,102,-21,-80,87,-14,-78,-92,-68,-102
-63,-126,-63,95,0,-95,87,0,-73,-78,-58,-112
-58,-131,-73,95,7,-102,92,14,-43,-68,-58,-126
-53,-126,-73,90,9,-100,102,53,4,-48,-58,-141
-63,-126,-63,95,0,-95,122,122,87,9,-43,-131
-82,-136,-53,109,-14,-95,141,185,195,92,-19,-126
-73,-156,-82,114,4,-119,175,253,297,195,29,-102
-9,-151,-141,80,65,-146,190,322,409,331,131,-53
73,-117,-190,21,131,-153,190,366,517,478,244,-4
136,-82,-219,-26,178,-151,151,380,570,610,351,43
170,-14,-185,-78,178,-100,73,351,595,756,507,146
195,92,-102,-143,148,-4,-4,356,668,961,727,307
209,234,24,-222,92,129,-68,322,702,1127,912,463
229,361,131,-295,48,246,-122,175,566,1141,1005,561
248,463,214,-356,17,339,-200,-58,268,1039,1029,649
283,556,273,-419,4,414,-322,-341,-102,907,1068,756
292,673,380,-483,-43,527,-478,-619,-434,790,1117,868
292,785,492,-539,-100,639,-561,-824,-688,614,1083,927
248,844,595,-546,-173,719,-585,-1010,-971,317,922,897
156,844,688,-500,-265,766,-614,-1263,-1342,-107,668,805
39,810,771,-424,-366,790,-663,-1551,-1732,-575,370,692
-53,785,839,-366,-446,812,-702,-1751,-2049,-1015,73,556
-82,761,844,-339,-463,802,-707,-1834,-2269,-1361,-175,424
-102,634,736,-265,-419,685,-663,-1815,-2357,-1527,-346,302
-136,488,624,-175,-380,556,-624,-1751,-2327,-1546,-453,180
-151,429,580,-139,-366,505,-668,-1708,-2235,-1493,-483,107
-180,370,551,-95,-366,461,-722,-1615,-2069,-1395,-488,53
-239,244,483,-2,-361,363,-639,-1439,-1859,-1268,-468,-4
-258,112,370,73,-314,241,-522,-1249,-1634,-1132,-448,-58
-234,58,292,87,-263,175,-448,-1078,-1410,-980,-385,-58
-219,48,268,85,-244,158,-356,-897,-1151,-805,-331,-73
-200,43,244,78,-222,143,-244,-697,-883,-619,-273,-82
-185,39,224,73,-204,131,-161,-531,-644,-448,-219,-82
-151,9,161,70,-156,85,-97,-370,-444,-317,-170,-92
-117,-34,82,75,-100,24,-29,-248,-297,-229,-131,-92
-117,-68,48,92,-82,-9,24,-180,-219,-170,-92,-73
-112,-82,29,97,-70,-26,48,-126,-170,-141,-53,-58
-97,-78,19,87,-58,-29,53,-73,-131,-117,-24,-39
-87,-68,19,78,-53,-24,53,-39,-102,-82,-14,-39
-82,-68,14,75,-48,-26,53,-24,-68,-63,-9,-53
-68,-63,4,65,-36,-29,53,-14,-39,-39,-19,-68
-63,-58,4,61,-34,-26,58,-9,-19,-24,-34,-73
-68,-73,-4,70,-31,-39,73,-4,-4,-29,-24,-63
-63,-78,-14,70,-24,-46,78,0,-4,-29,-19,-63
-63,-87,-24,75,-19,-56,78,4,-9,-34,-19,-63
-63,-87,-24,75,-19,-56,78,9,-9,-34,-19,-58
-48,-112,-63,80,7,-87,87,34,4,-48,-29,-63
-34,-122,-87,78,26,-104,87,39,14,-43,-39,-73
-24,-136,-112,80,43,-124,87,48,24,-34,-53,-82
-19,-151,-131,85,56,-141,87,58,29,-34,-63,-92
-24,-161,-136,92,56,-148,107,73,39,-19,-43,-87
-29,-161,-131,95,51,-146,107,73,43,-14,-39,-82
-24,-161,-136,92,56,-148,107,73,39,-9,-24,-73
-29,-151,-122,90,46,-136,107,78,53,-4,-14,-68
-58,-141,-82,100,12,-112,112,87,68,4,-9,-53
-73,-136,-63,104,-4,-100,112,97,87,14,-4,-53
-87,-131,-43,109,-21,-87,117,107,97,29,4,-48
-102,-122,-19,112,-41,-70,126,112,112,43,14,-48
-107,-117,-9,112,-48,-63,126,102,107,34,14,-53
-107,-117,-9,112,-48,-63,122,102,102,34,9,-58
-107,-117,-9,112,-48,-63,117,107,97,34,4,-63
-102,-112,-9,107,-46,-61,112,112,92,39,0,-68
-87,-107,-19,97,-34,-63,122,112,107,43,14,-68
-82,-107,-24,95,-29,-65,117,117,117,48,14,-63
-73,-107,-34,90,-19,-70,117,126,126,68,19,-63
-68,-102,-34,85,-17,-68,117,136,131,82,24,-63
-58,-112,-53,85,-2,-82,117,131,131,82,34,-58
-43,-112,-68,78,12,-90,112,131,131,87,34,-53
-29,-112,-82,70,26,-97,112,131,131,92,34,-48
-9,-112,-102,61,46,-107,107,131,141,97,39,-39
9,-117,-126,53,68,-122,102,122,131,92,29,-43
24,-122,-146,48,85,-134,92,136,136,92,29,-48
24,-122,-146,48,85,-134,87,141,151,97,39,-53
19,-126,-146,53,82,-136,82,146,161,97,39,-58
9,-117,-126,53,68,-122,87,151,165,102,39,-48
9,-117,-126,53,68,-122,92,156,170,107,43,-43
24,-112,-136,43,80,-124,97,156,175,107,43,-39
14,-112,-126,48,70,-119,102,161,180,107,43,-34
0,-97,-97,48,48,-97,102,170,195,117,53,-24
-9,-92,-82,51,36,-87,112,180,209,131,63,-19
-9,-82,-73,46,31,-78,112,190,224,141,73,-14
-4,-73,-68,39,31,-70,112,195,229,156,82,-9
-34,-78,-43,56,4,-61,117,209,248,175,97,4
-68,-78,-9,73,-29,-43,117,214,263,190,112,14
-102,-82,19,92,-61,-31,122,224,278,204,126,24
-122,-97,24,109,-73,-36,126,234,292,224,141,34
-92,-78,14,85,-53,-31,122,234,297,219,131,29
-78,-73,4,75,-41,-34,112,234,297,219,131,24
-63,-73,-9,68,-26,-41,107,234,307,219,136,19
-34,-73,-39,53,2,-56,102,239,307,224,131,14
-29,-53,-24,41,-2,-39,92,234,322,244,141,14
-24,-43,-19,34,-2,-31,92,244,336,258,151,29
-24,-43,-19,34,-2,-31,92,248,346,268,161,29
-19,-39,-19,29,0,-29,92,263,356,278,170,39
-14,-48,-34,31,9,-41,78,268,361,283,161,39
4,-43,-48,19,26,-46,78,268,370,287,165,34
14,-43,-58,14,36,-51,82,283,380,302,175,29
19,-39,-58,9,39,-48,82,283,395,312,190,24
29,-29,-58,0,43,-43,92,292,419,322,180,48
29,-24,-53,-2,41,-39,82,307,439,341,195,58
39,-24,-63,-7,51,-43,78,307,444,346,204,63
53,-24,-78,-14,65,-51,78,322,463,361,214,73
53,-29,-82,-12,68,-56,87,336,473,375,224,87
48,-24,-73,-12,61,-48,87,346,483,385,234,97
43,-29,-73,-7,58,-51,87,346,492,400,253,107
39,-29,-68,-4,53,-48,82,361,507,414,268,117
48,-19,-68,-14,58,-43,73,356,527,429,292,122
48,-9,-58,-19,53,-34,73,361,541,444,297,126
48,-4,-53,-21,51,-29,63,366,551,458,307,131
48,-4,-53,-21,51,-29,63,366,551,468,307,136
58,9,-48,-34,53,-19,58,375,561,473,322,136
68,19,-48,-43,58,-14,53,380,566,478,326,136
73,29,-43,-51,58,-7,53,385,570,483,326,146
73,34,-39,-53,56,-2,48,385,570,488,331,151
68,34,-34,-51,51,0,39,375,561,488,326,141
68,39,-29,-53,48,4,39,375,566,483,326,136
73,39,-34,-56,53,2,39,370,566,478,326,136
68,39,-29,-53,48,4,39,370,570,478,322,131
68,48,-19,-58,43,14,34,361,561,473,326,131
73,53,-19,-63,46,17,29,361,561,473,326,136
87,58,-29,-73,58,14,29,356,561,473,322,136
102,58,-43,-80,73,7,24,351,556,468,317,136
97,53,-43,-75,70,4,29,361,551,468,317,146
87,48,-39,-68,63,4,34,361,551,463,317,146
73,43,-29,-58,51,7,34,361,546,463,317,146
68,39,-29,-53,48,4,39,351,541,458,312,146
58,48,-9,-53,34,19,29,336,546,463,312,151
58,48,-9,-53,34,19,24,331,541,458,312,151
58,48,-9,-53,34,19,24,317,531,453,312,146
68,43,-24,-56,46,9,24,312,512,444,307,141
63,53,-9,-58,36,21,34,322,512,444,302,146
63,53,-9,-58,36,21,34,322,497,429,297,146
63,53,-9,-58,36,21,34,307,483,409,297,146
53,53,0,-53,26,26,29,302,458,395,292,151
48,53,4,-51,21,29,19,287,439,385,273,141
39,53,14,-46,12,34,24,273,429,370,268,141
19,48,29,-34,-4,39,24,248,405,356,258,131
24,48,24,-36,0,36,24,234,385,336,248,126
39,48,9,-43,14,29,19,224,375,322,248,131
53,39,-14,-46,34,12,19,214,351,297,234,126
43,34,-9,-39,26,12,19,209,331,278,219,117
43,29,-14,-36,29,7,19,200,312,263,214,107
34,24,-9,-29,21,7,19,175,283,239,195,102
24,9,-14,-17,19,-2,19,161,253,219,185,97
14,4,-9,-9,12,-2,19,146,234,200,170,87
24,0,-24,-12,24,-12,19,136,209,180,156,82
58,4,-53,-31,56,-24,4,112,170,151,126,53
87,0,-87,-43,87,-43,-4,87,141,122,102,24
117,0,-117,-58,117,-58,-14,68,117,87,78,4
151,-4,-156,-73,153,-80,-24,43,82,53,53,-19
78,-9,-87,-34,82,-48,0,53,97,58,58,0
19,-14,-34,-2,26,-24,24,68,102,63,68,14
-48,-19,29,34,-39,4,43,78,107,73,78,34
-112,-24,87,68,-100,31,63,87,112,78,92,53
-112,-34,78,73,-95,21,63,68,97,63,87,43
-112,-39,73,75,-92,17,63,63,82,48,73,39
-117,-48,68,82,-92,9,73,63,78,43,73,34
-122,-48,73,85,-97,12,78,58,68,39,63,34
-97,-43,53,70,-75,4,73,43,43,14,43,24
-92,-39,53,65,-73,7,73,43,39,9,39,19
-78,-39,39,58,-58,0,68,39,34,4,29,9
-73,-39,34,56,-53,-2,63,34,19,-9,24,-9
-73,-39,34,56,-53,-2,53,34,19,-9,29,-9
-73,-43,29,58,-51,-7,58,29,14,-9,24,-9
-73,-43,29,58,-51,-7,58,29,9,-9,19,-19
-73,-43,29,58,-51,-7,58,24,4,-9,14,-24
-68,-39,29,53,-48,-4,48,19,0,-19,9,-39
-63,-39,24,51,-43,-7,48,14,-4,-24,4,-39
-58,-39,19,48,-39,-9,48,14,-9,-29,0,-34
-53,-39,14,46,-34,-12,48,9,-14,-43,-4,-34
-53,-43,9,48,-31,-17,48,9,-14,-43,-4,-29
-48,-48,0,48,-24,-24,48,9,-14,-43,-4,-24
-48,-53,-4,51,-21,-29,48,9,-14,-39,-4,-29
-43,-63,-19,53,-12,-41,48,9,-14,-39,-4,-24
-29,-63,-34,46,2,-48,48,9,-24,-48,-9,-34
-24,-63,-39,43,7,-51,48,14,-24,-53,-19,-39
-14,-63,-48,39,17,-56,48,14,-29,-58,-24,-39
0,-68,-68,34,34,-68,48,0,-34,-63,-29,-34
14,-68,-82,26,48,-75,34,4,-39,-82,-39,-43
19,-68,-87,24,53,-78,29,0,-39,-73,-43,-48
34,-68,-102,17,68,-85,19,-4,-43,-73,-43,-58
48,-63,-112,7,80,-87,9,-9,-43,-68,-48,-68
19,-48,-68,14,43,-58,24,14,-19,-48,-24,-43
-14,-48,-34,31,9,-41,48,24,0,-34,-4,-24
-53,-48,4,51,-29,-21,63,39,14,-14,14,-4
-92,-48,43,70,-68,-2,78,53,29,0,34,14
-102,-43,58,73,-80,7,68,48,29,9,34,9
-107,-43,63,75,-85,9,68,48,29,9,34,9
-112,-43,68,78,-90,12,68,48,34,9,34,9
-107,-39,68,73,-87,14,68,48,34,9,39,19
-87,-39,48,63,-68,4,63,43,29,0,34,9
-73,-39,34,56,-53,-2,53,39,24,0,29,0
-58,-39,19,48,-39,-9,48,39,9,-4,14,-9
-39,-39,0,39,-19,-19,43,34,4,-4,19,-19
-48,-39,9,43,-29,-14,43,34,9,-9,19,-4
-53,-43,9,48,-31,-17,43,34,14,0,19,-9
-53,-48,4,51,-29,-21,48,34,24,0,24,-4
-53,-48,4,51,-29,-21,48,34,29,4,24,0
-39,-48,-9,43,-14,-29,53,43,19,4,24,-4
-34,-43,-9,39,-12,-26,53,43,14,4,24,-4
-29,-43,-14,36,-7,-29,53,43,14,0,24,-4
-24,-53,-29,39,2,-41,53,43,14,-4,24,0
-34,-43,-9,39,-12,-26,43,29,14,-4,24,-4
-34,-39,-4,36,-14,-21,43,29,14,0,24,-9
-39,-39,0,39,-19,-19,43,34,19,0,24,-14
-48,-39,9,43,-29,-14,39,34,19,0,24,-14
-39,-39,0,39,-19,-19,48,39,24,-4,14,-19
-39,-43,-4,41,-17,-24,48,39,24,-4,14,-19
-34,-43,-9,39,-12,-26,48,39,19,-4,19,-19
-34,-39,-4,36,-14,-21,48,39,19,-4,24,-24
4,-19,-24,7,14,-21,39,29,19,-19,14,-14
29,-24,-53,-2,41,-39,29,29,9,-14,9,-19
29,-29,-58,0,43,-43,19,29,0,-19,9,-29
19,-43,-63,12,41,-53,29,19,0,-19,9,-24
9,-48,-58,19,34,-53,29,19,0,-19,9,-19
0,-53,-53,26,26,-53,29,19,0,-19,9,-14
-9,-58,-48,34,19,-53,29,19,0,-19,9,-9
-14,-53,-39,34,12,-46,39,19,9,-14,19,-9
-29,-48,-19,39,-4,-34,39,24,9,-14,19,-9
-43,-43,0,43,-21,-21,39,34,9,-9,19,-9
-58,-34,24,46,-41,-4,43,39,9,-4,24,-9
-63,-34,29,48,-46,-2,43,29,9,-4,34,-9
-63,-34,29,48,-46,-2,34,19,4,-14,24,-19
-48,-34,14,41,-31,-9,24,19,0,-19,19,-19
-48,-29,19,39,-34,-4,24,19,0,-19,19,-14
-43,-34,9,39,-26,-12,19,19,-4,-14,9,-19
-43,-39,4,41,-24,-17,19,19,-9,-19,9,-19
-43,-39,4,41,-24,-17,19,19,-9,-24,4,-24
-58,-43,14,51,-36,-14,19,19,-14,-29,4,-24
-53,-53,0,53,-26,-26,19,19,-14,-24,-4,-24
-48,-53,-4,51,-21,-29,14,14,-9,-24,-4,-24
-43,-43,0,43,-21,-21,24,14,-4,-19,0,-24
-34,-39,-4,36,-14,-21,29,14,0,-19,4,-14
-43,-34,9,39,-26,-12,34,24,0,-19,14,-24
-34,-24,9,29,-21,-7,39,34,4,-19,14,-24
-19,-19,0,19,-9,-9,48,39,9,-14,14,-14
-19,-19,0,19,-9,-9,53,43,4,-4,19,-14
-9,-9,0,9,-4,-4,63,48,19,4,29,-9
-9,-9,0,9,-4,-4,82,53,34,4,29,-4
-9,-9,0,9,-4,-4,97,53,39,9,29,0
-4,4,9,0,-7,7,102,53,43,9,34,4
-14,0,14,7,-14,7,107,58,34,4,34,-4
-9,14,24,-2,-17,19,102,48,29,4,34,0
-9,24,34,-7,-21,29,82,34,19,-4,39,4
0,29,29,-14,-14,29,58,14,9,-4,39,4
19,39,19,-29,0,29,0,0,-4,-19,29,0
53,43,-9,-48,31,17,-43,-9,-24,-29,19,0
68,43,-24,-56,46,9,-63,-14,-29,-29,19,0
78,39,-39,-58,58,0,-73,-24,-39,-43,14,0
63,9,-53,-36,58,-21,-87,-29,-58,-34,24,9
63,-9,-73,-26,68,-41,-78,-29,-63,-39,14,0
53,-19,-73,-17,63,-46,-68,-24,-63,-43,9,-4
48,-34,-82,-7,65,-58,-63,-24,-68,-48,9,-9
24,-43,-68,9,46,-56,-48,-19,-63,-39,19,-9
9,-43,-53,17,31,-48,-29,-14,-58,-39,19,-4
-14,-34,-19,24,2,-26,-19,-9,-48,-39,19,4
-39,-34,4,36,-21,-14,-9,-4,-43,-39,19,14
-29,-29,0,29,-14,-14,-9,-24,-63,-48,4,14
-34,-34,0,34,-17,-17,-9,-24,-63,-53,4,4
-34,-34,0,34,-17,-17,4,-24,-68,-58,0,0
-34,-39,-4,36,-14,-21,19,-24,-68,-63,-9,-9
-43,-39,4,41,-24,-17,19,-24,-58,-68,-14,-29
-53,-43,9,48,-31,-17,29,-24,-58,-73,-24,-34
-63,-48,14,56,-39,-17,29,-24,-58,-73,-29,-43
-58,-53,4,56,-31,-24,39,-34,-68,-87,-39,-43
-68,-68,0,68,-34,-34,39,-48,-92,-92,-53,-53
-78,-73,4,75,-41,-34,39,-53,-97,-102,-63,-63
-82,-82,0,82,-41,-41,39,-53,-97,-102,-63,-73
-82,-87,-4,85,-39,-46,39,-53,-97,-107,-63,-82
-87,-107,-19,97,-34,-63,39,-43,-107,-112,-58,-78
-87,-112,-24,100,-31,-68,39,-43,-107,-112,-58,-82
-92,-112,-19,102,-36,-65,39,-43,-107,-112,-58,-82
-92,-107,-14,100,-39,-61,39,-43,-112,-112,-68,-82
-78,-92,-14,85,-31,-53,48,-43,-112,-122,-78,-97
-73,-92,-19,82,-26,-56,48,-43,-107,-122,-78,-97
-82,-92,-9,87,-36,-51,48,-43,-107,-122,-82,-97
-78,-97,-19,87,-29,-58,53,-43,-112,-122,-82,-97
-39,-107,-68,73,14,-87,29,-58,-131,-146,-97,-122
-4,-112,-107,58,51,-109,14,-73,-141,-156,-112,-126
29,-122,-151,46,90,-136,0,-82,-151,-161,-126,-141
58,-131,-190,36,124,-161,-14,-97,-161,-170,-141,-156
-9,-117,-107,63,48,-112,9,-73,-141,-146,-117,-136
-58,-117,-58,87,0,-87,29,-58,-117,-126,-97,-107
-102,-112,-9,107,-46,-61,48,-39,-92,-112,-73,-87
-146,-107,39,126,-92,-34,68,-24,-73,-97,-53,-78
-151,-97,53,124,-102,-21,58,-24,-82,-102,-63,-78
-151,-92,58,122,-104,-17,58,-24,-82,-102,-63,-73
-151,-82,68,117,-109,-7,58,-24,-82,-97,-63,-73
-136,-78,58,107,-97,-9,58,-29,-82,-97,-63,-78
-126,-87,39,107,-82,-24,58,-39,-82,-107,-68,-92
-126,-97,29,112,-78,-34,58,-39,-82,-107,-68,-92
-126,-102,24,114,-75,-39,58,-39,-82,-107,-68,-92
-126,-112,14,119,-70,-48,58,-39,-82,-107,-68,-92
-136,-122,14,129,-75,-53,48,-39,-82,-112,-68,-97
-126,-102,24,114,-75,-39,48,-29,-82,-102,-68,-92
-102,-82,19,92,-61,-31,58,-24,-68,-92,-58,-82
-82,-87,-4,85,-39,-46,58,-19,-63,-87,-58,-92
-97,-131,-34,114,-31,-82,53,-4,-53,-87,-68,-107
-102,-146,-43,124,-29,-95,63,34,-24,-68,-78,-112
-82,-146,-63,114,-9,-104,92,82,39,-29,-63,-122
-63,-126,-63,95,0,-95,131,146,136,43,-29,-126
-53,-126,-73,90,9,-100,156,224,248,136,19,-102
-48,-122,-73,85,12,-97,161,273,341,244,92,-73
-24,-107,-82,65,29,-95,161,326,439,361,175,-24
29,-73,-102,21,65,-87,161,370,522,483,273,43
92,-14,-107,-39,100,-61,122,370,556,629,400,126
146,43,-102,-95,124,-29,24,336,580,795,590,248
170,117,-53,-143,112,31,-58,302,624,961,766,375
200,234,34,-217,82,134,-102,214,556,1024,888,492
248,385,136,-317,56,261,-151,19,336,961,951,590
273,507,234,-390,19,370,-273,-263,4,839,990,697
263,614,351,-439,-43,483,-429,-580,-375,702,1010,790
253,736,483,-495,-114,610,-551,-844,-697,536,985,849
209,834,624,-522,-207,729,-595,-1039,-980,268,854,849
136,854,717,-495,-290,785,-614,-1273,-1322,-107,629,766
68,829,761,-448,-346,795,-653,-1551,-1712,-556,331,644
-14,805,819,-395,-417,812,-692,-1781,-2049,-1005,34,507
-82,732,814,-324,-448,773,-707,-1903,-2288,-1371,-224,375
-141,595,736,-226,-439,666,-673,-1893,-2386,-1576,-405,263
-185,448,634,-131,-409,541,-614,-1830,-2366,-1605,-512,141
-219,380,600,-80,-409,490,-639,-1795,-2303,-1571,-561,58
-239,341,580,-51,-409,461,-702,-1732,-2176,-1483,-546,14
-248,263,512,-7,-380,387,-688,-1566,-1966,-1337,-527,-34
-239,131,370,53,-305,251,-580,-1366,-1732,-1200,-517,-107
-224,29,253,97,-239,141,-497,-1185,-1527,-1078,-492,-156
-239,0,239,119,-239,119,-424,-1015,-1278,-922,-439,-161
-248,4,253,122,-251,129,-312,-805,-1000,-736,-351,-151
-224,19,244,102,-234,131,-209,-610,-741,-546,-268,-122
-161,19,180,70,-170,100,-126,-429,-512,-385,-200,-102
-97,14,112,41,-104,63,-58,-307,-356,-268,-151,-112
-87,-19,68,53,-78,24,-34,-239,-268,-209,-131,-102
-92,-53,39,73,-65,-7,-9,-185,-219,-170,-102,-87
-87,-48,39,68,-63,-4,24,-122,-161,-136,-73,-68
-107,-58,48,82,-78,-4,34,-78,-122,-122,-53,-68
-122,-78,43,100,-82,-17,34,-53,-97,-112,-58,-73
-126,-92,34,109,-80,-29,34,-43,-68,-97,-58,-78
-131,-97,34,114,-82,-31,39,-39,-48,-82,-63,-92
-122,-92,29,107,-75,-31,63,-14,-39,-73,-63,-82
-112,-97,14,104,-63,-41,68,-9,-34,-68,-58,-82
-107,-107,0,107,-53,-53,68,-4,-34,-68,-58,-82
-102,-107,-4,104,-48,-56,68,0,-29,-63,-58,-78
-87,-102,-14,95,-36,-58,68,14,-19,-63,-48,-78
-82,-102,-19,92,-31,-61,68,19,-4,-53,-48,-82
-82,-107,-24,95,-29,-65,68,29,9,-39,-53,-87
-87,-112,-24,100,-31,-68,68,39,19,-34,-53,-92
-73,-112,-39,92,-17,-75,68,39,34,-34,-53,-102
-68,-112,-43,90,-12,-78,68,34,34,-34,-58,-102
-53,-112,-58,82,2,-85,68,29,24,-34,-53,-97
-48,-102,-53,75,2,-78,68,29,34,-34,-53,-97
-34,-107,-73,70,19,-90,53,19,24,-43,-58,-102
-14,-117,-102,65,43,-109,43,29,29,-43,-63,-112
4,-126,-131,61,68,-129,39,39,24,-39,-63,-117
24,-131,-156,53,90,-143,39,43,24,-34,-63,-126
-14,-126,-112,70,48,-119,53,48,43,-24,-43,-117
-48,-126,-78,87,14,-102,63,53,53,-14,-39,-107
-82,-126,-43,104,-19,-85,73,63,63,-4,-34,-97
-112,-122,-9,117,-51,-65,82,73,73,9,-29,-87
-112,-107,4,109,-58,-51,87,87,87,14,-19,-82
-122,-107,14,114,-68,-46,87,97,97,19,-14,-73
-126,-107,19,117,-73,-43,92,112,107,39,-4,-68
-136,-102,34,119,-85,-34,97,126,112,53,4,-63
-117,-112,4,114,-61,-53,97,117,117,39,0,-68
-102,-112,-9,107,-46,-61,92,112,112,39,-4,-73
-87,-112,-24,100,-31,-68,92,107,107,39,-9,-78
-68,-112,-43,90,-12,-78,87,102,112,39,-9,-78
-63,-112,-48,87,-7,-80,97,112,122,43,-4,-68
-53,-112,-58,82,2,-85,92,126,126,53,0,-68
-58,-107,-48,82,-4,-78,92,131,141,68,14,-68
-68,-107,-39,87,-14,-73,92,136,151,78,19,-68
-63,-117,-53,90,-4,-85,87,136,151,73,9,-78
-58,-117,-58,87,0,-87,82,136,151,78,14,-73
-39,-112,-73,75,17,-92,78,131,151,78,14,-68
-43,-112,-68,78,12,-90,73,131,151,78,14,-63
-43,-107,-63,75,9,-85,73,141,165,92,19,-73
-48,-102,-53,75,2,-78,82,151,180,102,24,-68
-43,-92,-48,68,2,-70,82,161,195,107,29,-63
-34,-82,-48,58,7,-65,82,165,200,117,34,-58
-19,-82,-63,51,21,-73,73,175,204,126,39,-58
-19,-78,-58,48,19,-68,68,175,214,131,43,-53
-19,-78,-58,48,19,-68,68,180,224,136,48,-48
-4,-87,-82,46,39,-85,68,185,234,146,53,-43
4,-87,-92,41,48,-90,58,180,239,146,53,-53
9,-82,-92,36,51,-87,53,185,239,151,53,-53
14,-82,-97,34,56,-90,53,190,248,156,58,-53
34,-82,-117,24,75,-100,53,200,248,165,53,-53
14,-73,-87,29,51,-80,63,204,273,185,68,-48
4,-63,-68,29,36,-65,63,214,287,200,82,-29
-9,-63,-53,36,21,-58,63,219,297,209,97,-24
-19,-58,-39,39,9,-48,63,234,307,219,112,-9
-34,-58,-24,46,-4,-41,58,244,331,244,117,0
-24,-53,-29,39,2,-41,58,248,341,248,126,4
-24,-53,-29,39,2,-41,63,268,351,263,141,9
-29,-48,-19,39,-4,-34,63,273,366,273,161,14
-9,-48,-39,29,14,-43,58,278,375,278,146,19
0,-43,-43,21,21,-43,43,287,390,292,156,19
19,-43,-63,12,41,-53,34,283,390,292,161,14
43,-43,-87,0,65,-65,29,292,405,302,165,14
43,-43,-87,0,65,-65,39,297,414,317,170,24
39,-34,-73,-2,56,-53,39,307,424,326,175,29
34,-34,-68,0,51,-51,39,307,434,341,190,34
29,-29,-58,0,43,-43,34,322,448,356,200,39
43,-9,-53,-17,48,-31,34,336,463,375,224,53
48,0,-48,-24,48,-24,34,341,483,385,229,58
53,4,-48,-29,51,-21,24,346,497,395,239,63
58,4,-53,-31,56,-24,24,346,502,400,239,68
53,9,-43,-31,48,-17,19,346,502,405,244,58
58,9,-48,-34,53,-19,14,351,507,409,248,58
58,9,-48,-34,53,-19,14,356,512,414,248,68
53,4,-48,-29,51,-21,9,356,512,419,253,73
53,14,-39,-34,46,-12,19,366,522,424,263,87
58,19,-39,-39,48,-9,19,366,527,424,268,87
68,19,-48,-43,58,-14,19,361,527,424,273,92
68,19,-48,-43,58,-14,19,361,531,429,273,92
73,29,-43,-51,58,-7,4,351,522,434,278,97
73,34,-39,-53,56,-2,0,351,522,434,278,97
82,39,-43,-61,63,-2,0,346,522,434,273,92
92,39,-53,-65,73,-7,-4,341,517,429,268,87
82,48,-34,-65,58,7,-4,341,512,419,268,87
78,48,-29,-63,53,9,-4,341,512,414,268,87
68,48,-19,-58,43,14,-9,341,507,414,268,87
68,48,-19,-58,43,14,-9,331,502,409,263,87
78,48,-29,-63,53,9,-19,317,492,395,258,82
87,48,-39,-68,63,4,-24,312,483,390,253,82
97,48,-48,-73,73,0,-24,297,468,385,248,78
117,43,-73,-80,95,-14,-24,292,444,375,239,73
136,34,-102,-85,119,-34,-29,278,444,356,229,63
141,34,-107,-87,124,-36,-34,273,429,341,219,58
146,34,-112,-90,129,-39,-39,253,414,322,214,53
141,34,-107,-87,124,-36,-48,244,390,307,204,53
92,43,-48,-68,70,-2,-29,253,400,322,209,68
48,43,-4,-46,26,19,-14,253,400,322,219,82
-4,39,43,-17,-24,41,-4,244,385,322,224,87
-34,39,73,-2,-53,56,4,244,375,317,229,97
-19,39,58,-9,-39,48,0,219,346,292,219,92
-4,29,34,-12,-19,31,0,204,322,268,204,87
-14,24,39,-4,-26,31,0,195,302,248,190,78
-14,19,34,-2,-24,26,0,180,283,234,185,68
-14,4,19,4,-17,12,-9,156,258,209,161,48
-14,-9,4,12,-9,-2,-9,141,234,190,146,39
-14,-14,0,14,-7,-7,-9,126,219,170,126,24
4,-19,-24,7,14,-21,-9,117,200,151,107,14
4,-4,-9,0,7,-7,-4,102,180,126,92,19
0,-9,-9,4,4,-9,-4,87,161,112,82,4
-4,-9,-4,7,0,-7,-4,78,146,92,73,0
-4,-14,-9,9,2,-12,-4,63,122,73,63,-9
0,-24,-24,12,12,-24,-4,48,97,53,34,-29
9,-34,-43,12,26,-39,-4,39,73,34,19,-43
9,-43,-53,17,31,-48,-9,24,48,19,4,-53
14,-53,-68,19,41,-61,-14,9,24,0,-4,-63
39,-43,-82,2,61,-63,-19,-9,9,-24,-14,-78
53,-48,-102,-2,78,-75,-24,-14,-4,-39,-34,-87
63,-58,-122,-2,92,-90,-19,-14,-9,-43,-39,-97
73,-58,-131,-7,102,-95,-19,-19,-19,-48,-53,-102
24,-48,-73,12,48,-61,-4,-14,-9,-39,-34,-78
-34,-48,-14,41,-9,-31,14,-4,0,-29,-19,-58
-82,-53,29,68,-56,-12,29,0,9,-19,-9,-43
-141,-58,82,100,-112,12,43,4,9,-19,4,-39
-122,-68,53,95,-87,-7,34,4,4,-39,-9,-48
-112,-73,39,92,-75,-17,39,0,-4,-39,-14,-48
-102,-73,29,87,-65,-21,39,0,-14,-39,-19,-58
-92,-73,19,82,-56,-26,39,-4,-24,-39,-24,-63
-87,-58,29,73,-58,-14,39,-14,-24,-43,-34,-78
-82,-58,24,70,-53,-17,39,-14,-24,-43,-34,-78
-78,-58,19,68,-48,-19,39,-9,-24,-43,-34,-73
-73,-58,14,65,-43,-21,39,-9,-24,-53,-34,-73
-78,-63,14,70,-46,-24,29,-9,-24,-53,-34,-63
-78,-68,9,73,-43,-29,29,-9,-24,-53,-34,-63
-82,-73,9,78,-46,-31,29,-9,-24,-48,-34,-73
-82,-82,0,82,-41,-41,29,-9,-24,-48,-34,-73
-63,-73,-9,68,-26,-41,29,-19,-34,-63,-43,-82
-53,-73,-19,63,-17,-46,29,-14,-34,-63,-48,-87
-39,-73,-34,56,-2,-53,29,-14,-39,-63,-48,-87
-19,-78,-58,48,19,-68,29,-29,-43,-63,-48,-82
-34,-82,-48,58,7,-65,29,-19,-43,-82,-53,-92
-58,-87,-29,73,-14,-58,29,-19,-39,-73,-53,-87
-73,-92,-19,82,-26,-56,24,-19,-39,-73,-48,-87
-87,-92,-4,90,-41,-48,19,-19,-34,-68,-48,-87
-68,-87,-19,78,-24,-53,9,-24,-34,-63,-58,-92
-53,-87,-34,70,-9,-61,19,-24,-29,-63,-53,-92
-43,-87,-43,65,0,-65,19,-19,-29,-58,-48,-92
-34,-87,-53,61,9,-70,19,-14,-29,-58,-43,-92
-29,-78,-48,53,9,-63,24,-4,-19,-53,-34,-78
-29,-73,-43,51,7,-58,29,0,-19,-48,-34,-78
-29,-68,-39,48,4,-53,34,4,-14,-43,-34,-78
-19,-58,-39,39,9,-48,39,9,-14,-39,-29,-68
-19,-68,-48,43,14,-58,29,0,-14,-39,-29,-78
-24,-68,-43,46,9,-56,24,0,-14,-39,-29,-78
-29,-68,-39,48,4,-53,24,4,-24,-43,-39,-78
-29,-68,-39,48,4,-53,24,4,-24,-43,-29,-78
-29,-68,-39,48,4,-53,14,-4,-14,-48,-29,-68
-34,-73,-39,53,2,-56,14,-4,-14,-39,-29,-78
-34,-78,-43,56,4,-61,19,-4,-9,-39,-24,-78
-34,-78,-43,56,4,-61,19,-4,-9,-34,-24,-78
-34,-68,-34,51,0,-51,14,-4,-9,-34,-24,-73
-34,-63,-29,48,-2,-46,14,-4,-14,-34,-24,-73
-34,-63,-29,48,-2,-46,14,-4,-14,-39,-24,-73
-34,-73,-39,53,2,-56,14,-4,-14,-43,-24,-68
-29,-73,-43,51,7,-58,24,0,-14,-34,-24,-68
-24,-68,-43,46,9,-56,24,0,-14,-29,-24,-68
-24,-68,-43,46,9,-56,24,4,-9,-29,-24,-68
-29,-68,-39,48,4,-53,19,4,-9,-29,-24,-63
-19,-78,-58,48,19,-68,9,-9,-24,-29,-29,-63
-19,-82,-63,51,21,-73,9,-9,-24,-34,-34,-68
-14,-82,-68,48,26,-75,9,-9,-29,-39,-34,-73
-14,-78,-63,46,24,-70,9,-9,-29,-43,-34,-82
-24,-87,-63,56,19,-75,9,-19,-29,-48,-43,-82
-19,-82,-63,51,21,-73,9,-19,-29,-63,-48,-87
-9,-53,-43,31,17,-48,9,-9,-19,-53,-39,-78
-29,-58,-29,43,0,-43,19,0,-19,-39,-29,-68
-24,-63,-39,43,7,-51,9,-4,-24,-43,-34,-82
-19,-68,-48,43,14,-58,9,-9,-29,-48,-39,-87
-14,-73,-58,43,21,-65,9,-14,-34,-53,-43,-92
-9,-78,-68,43,29,-73,9,-19,-39,-58,-48,-97
-9,-78,-68,43,29,-73,9,-24,-39,-63,-39,-87
-19,-78,-58,48,19,-68,9,-24,-39,-63,-39,-87
-29,-78,-48,53,9,-63,9,-19,-39,-58,-39,-87
-39,-73,-34,56,-2,-53,14,-19,-39,-53,-34,-87
-53,-73,-19,63,-17,-46,19,-14,-29,-43,-34,-82
-53,-73,-19,63,-17,-46,14,-19,-34,-53,-43,-87
-39,-73,-34,56,-2,-53,9,-14,-39,-58,-48,-82
-39,-68,-29,53,-4,-48,14,-9,-39,-58,-48,-73
-19,-68,-48,43,14,-58,0,-14,-53,-63,-48,-87
-4,-68,-63,36,29,-65,-9,-19,-58,-68,-48,-87
9,-63,-73,26,41,-68,-19,-24,-58,-73,-53,-92
9,-63,-73,26,41,-68,-29,-29,-63,-78,-53,-92
-4,-63,-58,34,26,-61,-19,-24,-53,-63,-43,-82
-9,-63,-53,36,21,-58,-14,-24,-48,-63,-43,-82
-14,-53,-39,34,12,-46,4,-19,-43,-58,-39,-82
-14,-48,-34,31,9,-41,19,-14,-39,-58,-34,-73
-29,-34,-4,31,-12,-19,39,-9,-19,-43,-19,-68
-34,-24,9,29,-21,-7,48,4,-4,-39,-14,-63
-34,-19,14,26,-24,-2,63,14,9,-29,-9,-48
-48,-19,29,34,-39,4,73,24,14,-14,0,-43
-48,-24,24,36,-36,0,68,39,4,-14,-9,-53
-48,-29,19,39,-34,-4,82,43,14,-14,-9,-53
-48,-34,14,41,-31,-9,92,43,14,-9,-9,-53
-43,-24,19,34,-31,-2,92,43,14,-9,-4,-53
-34,-14,19,24,-26,2,82,29,14,-14,4,-43
-19,4,24,7,-21,14,73,19,9,-14,4,-39
-9,19,29,-4,-19,24,48,4,0,-24,9,-34
9,29,19,-19,-4,24,19,-14,-9,-24,9,-34
19,24,4,-21,7,14,-34,-24,-34,-39,0,-34
43,14,-29,-29,36,-7,-82,-29,-53,-48,-9,-39
48,0,-48,-24,48,-24,-107,-29,-58,-48,-9,-43
48,-19,-68,-14,58,-43,-122,-34,-68,-63,-14,-48
53,-24,-78,-14,65,-51,-117,-39,-68,-63,-14,-39
53,-39,-92,-7,73,-65,-97,-39,-73,-68,-24,-48
43,-43,-87,0,65,-65,-78,-34,-73,-73,-29,-53
39,-53,-92,7,65,-73,-63,-34,-78,-78,-29,-58
48,-63,-112,7,80,-87,-63,-39,-87,-87,-39,-68
48,-63,-112,7,80,-87,-48,-43,-87,-87,-39,-73
39,-53,-92,7,65,-73,-43,-48,-82,-87,-39,-73
29,-53,-82,12,56,-68,-39,-53,-82,-87,-39,-73
19,-53,-73,17,46,-63,-48,-63,-92,-87,-43,-73
4,-63,-68,29,36,-65,-48,-63,-92,-92,-43,-82
-4,-68,-63,36,29,-65,-34,-63,-97,-97,-48,-87
-14,-78,-63,46,24,-70,-19,-63,-97,-102,-58,-97
-29,-78,-48,53,9,-63,0,-63,-87,-97,-58,-97
-43,-82,-39,63,-2,-61,9,-63,-87,-102,-63,-102
-58,-87,-29,73,-14,-58,9,-63,-87,-102,-63,-112
-58,-92,-34,75,-12,-63,19,-73,-97,-117,-68,-112
-63,-87,-24,75,-19,-56,19,-73,-112,-112,-82,-117
-78,-92,-14,85,-31,-53,19,-73,-117,-122,-92,-122
-87,-102,-14,95,-36,-58,19,-68,-117,-122,-92,-126
-92,-107,-14,100,-39,-61,19,-63,-117,-126,-92,-131
-82,-126,-43,104,-19,-85,19,-73,-126,-141,-97,-126
-78,-131,-53,104,-12,-92,19,-73,-126,-141,-97,-131
-78,-131,-53,104,-12,-92,19,-73,-126,-141,-97,-131
-73,-126,-53,100,-9,-90,19,-73,-131,-141,-107,-131
-73,-117,-43,95,-14,-80,29,-63,-122,-131,-97,-136
-73,-112,-39,92,-17,-75,29,-63,-117,-131,-97,-136
-87,-107,-19,97,-34,-63,29,-63,-117,-131,-102,-136
-87,-107,-19,97,-34,-63,34,-63,-122,-131,-102,-136
-73,-107,-34,90,-19,-70,24,-73,-122,-136,-112,-146
-63,-102,-39,82,-12,-70,24,-73,-122,-136,-112,-136
-53,-102,-48,78,-2,-75,24,-68,-122,-131,-112,-136
-48,-102,-53,75,2,-78,24,-68,-122,-131,-112,-136
-73,-102,-29,87,-21,-65,29,-68,-122,-141,-107,-146
-78,-107,-29,92,-24,-68,29,-68,-117,-136,-107,-136
-78,-107,-29,92,-24,-68,29,-63,-112,-136,-102,-136
-78,-107,-29,92,-24,-68,29,-63,-112,-136,-102,-146
-73,-122,-48,97,-12,-85,19,-63,-122,-141,-102,-156
-73,-122,-48,97,-12,-85,19,-63,-122,-141,-102,-151
-73,-117,-43,95,-14,-80,19,-63,-122,-136,-102,-151
-58,-117,-58,87,0,-87,19,-68,-122,-136,-102,-156
-68,-117,-48,92,-9,-82,29,-68,-112,-136,-107,-151
-68,-117,-48,92,-9,-82,29,-68,-112,-136,-107,-151
-68,-112,-43,90,-12,-78,29,-68,-112,-136,-107,-151
-68,-112,-43,90,-12,-78,29,-68,-112,-136,-107,-151
-78,-131,-53,104,-12,-92,19,-68,-112,-141,-107,-165
-58,-122,-63,90,2,-92,19,-58,-112,-131,-107,-161
-43,-131,-87,87,21,-109,19,-53,-117,-131,-117,-170
-34,-136,-102,85,34,-119,19,-29,-102,-126,-117,-170
-29,-141,-112,85,41,-126,34,4,-53,-117,-117,-175
-14,-146,-131,80,58,-139,63,53,4,-68,-107,-180
-24,-146,-122,85,48,-134,102,131,107,9,-82,-170
-34,-136,-102,85,34,-119,141,214,234,112,-29,-165
-14,-126,-112,70,48,-119,156,302,366,253,68,-122
19,-112,-131,46,75,-122,161,370,468,380,170,-63
43,-87,-131,21,87,-109,141,395,517,497,263,-14
97,-34,-131,-31,114,-82,82,370,531,610,370,73
161,43,-117,-102,139,-36,-4,341,566,775,546,204
195,122,-73,-158,134,24,-73,317,619,941,727,336
200,204,4,-202,97,104,-126,214,546,1019,844,444
219,302,82,-261,68,192,-190,-19,302,966,897,531
258,424,165,-341,46,295,-297,-322,-53,844,941,619
322,575,253,-448,34,414,-458,-634,-434,712,1000,727
351,722,370,-536,-9,546,-566,-893,-746,566,1000,810
302,805,502,-553,-100,653,-619,-1098,-1029,312,888,819
229,834,605,-531,-187,719,-653,-1342,-1361,-63,668,761
156,854,697,-505,-270,775,-712,-1644,-1732,-507,395,678
78,839,761,-458,-341,800,-751,-1893,-2054,-927,107,546
-24,746,771,-361,-397,758,-771,-2034,-2303,-1307,-151,400
-92,595,688,-251,-390,641,-756,-2059,-2444,-1546,-351,268
-112,468,580,-178,-346,524,-712,-1991,-2454,-1615,-463,146
-126,409,536,-141,-331,473,-741,-1927,-2386,-1566,-512,73
-180,361,541,-90,-361,451,-805,-1844,-2244,-1473,-492,39
-229,273,502,-21,-366,387,-751,-1673,-2010,-1337,-468,-4
-239,165,405,36,-322,285,-619,-1459,-1751,-1180,-458,-53
-229,92,322,68,-275,207,-531,-1268,-1507,-1034,-429,-107
-214,58,273,78,-244,165,-439,-1068,-1244,-873,-385,-136
-190,29,219,80,-204,124,-336,-849,-966,-688,-331,-151
-151,24,175,63,-163,100,-234,-629,-717,-512,-263,-141
-117,19,136,48,-126,78,-161,-424,-497,-361,-190,-141
-102,0,102,51,-102,51,-87,-292,-336,-258,-151,-141
-78,-34,43,56,-61,4,-39,-239,-258,-209,-131,-141
-29,-48,-19,39,-4,-34,-14,-190,-219,-190,-102,-122
-14,-73,-58,43,21,-65,-9,-156,-190,-180,-92,-126
0,-78,-78,39,39,-78,-14,-131,-161,-165,-102,-136
29,-78,-107,24,68,-92,-14,-107,-131,-141,-112,-156
24,-97,-122,36,73,-109,-24,-82,-107,-122,-126,-170
9,-112,-122,51,65,-117,-14,-63,-78,-97,-117,-165
24,-87,-112,31,68,-100,19,-29,-48,-73,-92,-161
-9,-82,-73,46,31,-78,39,-14,-39,-58,-78,-151
-24,-87,-63,56,19,-75,48,-9,-34,-58,-68,-141
-43,-97,-53,70,4,-75,53,-4,-34,-63,-63,-131
-63,-97,-34,80,-14,-65,58,0,-29,-63,-58,-117
-78,-97,-19,87,-29,-58,68,19,4,-53,-53,-112
-82,-92,-9,87,-36,-51,68,29,24,-34,-48,-112
-92,-92,0,92,-46,-46,68,43,43,-9,-48,-112
-107,-92,14,100,-61,-39,68,58,58,4,-43,-112
-102,-102,0,102,-51,-51,78,53,58,0,-39,-122
-97,-102,-4,100,-46,-53,78,53,53,-4,-39,-122
-82,-102,-19,92,-31,-61,78,53,39,-9,-29,-117
-78,-92,-14,85,-31,-53,78,58,43,-14,-24,-117
-82,-97,-14,90,-34,-56,78,58,43,0,-34,-122
-82,-107,-24,95,-29,-65,73,68,58,4,-34,-122
-82,-117,-34,100,-24,-75,73,78,63,14,-29,-117
-82,-122,-39,102,-21,-80,78,82,73,24,-24,-117
-78,-126,-48,102,-14,-87,73,82,73,24,-29,-126
-78,-126,-48,102,-14,-87,73,82,73,24,-29,-126
-78,-126,-48,102,-14,-87,73,87,73,24,-29,-126
-73,-122,-48,97,-12,-85,73,92,73,29,-29,-126
-43,-117,-73,80,14,-95,68,87,68,14,-29,-131
-34,-117,-82,75,24,-100,58,87,78,9,-34,-131
-19,-117,-97,68,39,-107,53,92,87,19,-34,-136
-9,-112,-102,61,46,-107,48,97,92,24,-34,-141
-19,-102,-82,61,31,-92,58,112,112,29,-29,-126
-24,-102,-78,63,26,-90,63,112,112,39,-24,-122
-29,-102,-73,65,21,-87,73,112,112,48,-19,-117
-29,-102,-73,65,21,-87,78,112,122,58,-9,-107
-19,-112,-92,65,36,-102,68,112,122,48,-9,-117
-4,-112,-107,58,51,-109,63,126,126,53,-9,-117
-4,-107,-102,56,48,-104,63,131,141,63,0,-117
-9,-107,-97,58,43,-102,63,136,151,68,0,-117
-9,-97,-87,53,39,-92,73,151,165,78,4,-107
-9,-97,-87,53,39,-92,73,156,170,87,14,-102
4,-92,-97,43,51,-95,73,156,175,92,19,-97
-4,-92,-87,48,41,-90,73,161,180,97,24,-92
0,-102,-102,51,51,-102,53,161,175,102,19,-102
-9,-102,-92,56,41,-97,63,170,190,112,24,-97
-9,-97,-87,53,39,-92,63,180,204,117,29,-92
-4,-92,-87,48,41,-90,63,185,209,126,34,-87
9,-82,-92,36,51,-87,73,195,214,136,39,-97
9,-78,-87,34,48,-82,68,195,224,141,43,-92
9,-78,-87,34,48,-82,68,200,234,146,48,-87
24,-87,-112,31,68,-100,68,204,244,156,53,-82
24,-87,-112,31,68,-100,58,209,253,161,58,-73
19,-82,-102,31,61,-92,53,214,258,170,63,-73
14,-82,-97,34,56,-90,53,219,273,180,73,-73
24,-82,-107,29,65,-95,53,229,278,195,73,-73
34,-73,-107,19,70,-90,53,234,292,204,82,-73
34,-63,-97,14,65,-80,53,244,307,219,92,-58
29,-63,-92,17,61,-78,53,248,317,229,102,-58
29,-58,-87,14,58,-73,53,263,326,239,112,-48
29,-58,-87,14,58,-73,48,278,341,253,122,-39
43,-53,-97,4,70,-75,48,278,351,258,126,-34
48,-53,-102,2,75,-78,53,292,361,273,136,-29
48,-48,-97,0,73,-73,53,292,375,283,151,-24
58,-29,-87,-14,73,-58,53,302,400,302,141,-14
58,-24,-82,-17,70,-53,43,317,419,322,156,-9
68,-24,-92,-21,80,-58,39,317,424,326,165,-9
82,-24,-107,-29,95,-65,39,331,444,341,175,-4
78,-24,-102,-26,90,-63,39,336,453,346,185,4
78,-14,-92,-31,85,-53,39,346,463,356,195,9
78,-14,-92,-31,85,-53,39,346,473,370,214,14
78,-9,-87,-34,82,-48,34,361,488,385,229,19
92,9,-82,-51,87,-36,24,375,497,395,239,24
97,19,-78,-58,87,-29,24,380,512,405,239,29
102,24,-78,-63,90,-26,14,385,522,414,244,34
107,24,-82,-65,95,-29,14,385,522,419,239,39
126,29,-97,-78,112,-34,4,370,517,419,239,24
146,29,-117,-87,131,-43,-4,370,517,419,239,19
161,29,-131,-95,146,-51,-9,370,517,419,234,24
170,24,-146,-97,158,-61,-19,366,512,419,234,24
156,34,-122,-95,139,-43,-9,370,517,434,239,39
156,39,-117,-97,136,-39,-9,375,527,434,248,39
161,39,-122,-100,141,-41,-9,375,531,434,258,43
156,39,-117,-97,136,-39,-9,380,541,439,263,43
117,48,-68,-82,92,-9,0,395,556,458,287,63
92,53,-39,-73,65,7,0,400,561,463,297,78
78,58,-19,-68,48,19,4,400,566,468,302,87
63,58,-4,-61,34,26,4,400,566,468,307,97
73,58,-14,-65,43,21,4,390,551,468,297,97
78,58,-19,-68,48,19,4,390,551,463,297,97
78,58,-19,-68,48,19,0,390,546,463,297,97
87,58,-29,-73,58,14,0,380,541,458,292,97
87,68,-19,-78,53,24,0,385,536,453,292,102
87,68,-19,-78,53,24,-4,380,531,448,292,102
87,68,-19,-78,53,24,-4,366,522,444,292,97
97,63,-34,-80,65,14,-4,361,502,434,287,92
107,53,-53,-80,80,0,-14,346,492,424,278,92
112,53,-58,-82,85,-2,-14,341,478,409,268,87
117,53,-63,-85,90,-4,-14,322,463,390,263,82
112,53,-58,-82,85,-2,-19,312,439,375,253,82
117,43,-73,-80,95,-14,-29,297,419,361,244,73
107,43,-63,-75,85,-9,-24,283,409,341,239,73
87,39,-48,-63,68,-4,-24,258,385,322,229,63
92,39,-53,-65,73,-7,-24,244,366,297,219,58
92,43,-48,-68,70,-2,-19,239,346,283,200,43
102,39,-63,-70,82,-12,-19,224,322,258,185,39
87,39,-48,-63,68,-4,-19,214,302,239,170,29
82,39,-43,-61,63,-2,-19,200,283,224,165,19
63,29,-34,-46,48,-2,-19,170,248,200,146,4
53,19,-34,-36,43,-7,-19,151,224,180,136,0
43,19,-24,-31,34,-2,-19,131,209,161,122,-9
53,19,-34,-36,43,-7,-19,117,190,141,107,-14
53,19,-34,-36,43,-7,-4,107,180,136,102,-9
48,9,-39,-29,43,-14,-4,97,161,122,92,-24
43,4,-39,-24,41,-17,-4,92,146,102,82,-29
43,-4,-48,-19,46,-26,-4,82,122,82,73,-39
48,0,-48,-24,48,-24,-9,68,97,63,48,-53
58,-4,-63,-26,61,-34,-4,58,82,43,39,-63
58,-9,-68,-24,63,-39,-4,43,68,29,29,-68
63,-14,-78,-24,70,-46,-4,29,53,9,24,-73
58,-4,-63,-26,61,-34,-4,19,39,0,9,-82
53,-9,-63,-21,58,-36,-4,14,24,-9,-4,-87
43,-19,-63,-12,53,-41,4,14,19,-9,-4,-92
34,-19,-53,-7,43,-36,9,9,9,-9,-14,-92
9,-19,-29,4,19,-24,19,14,4,-9,-14,-82
-14,-19,-4,17,-4,-12,24,14,9,-9,-9,-78
-29,-24,4,26,-17,-9,24,9,14,-9,-9,-78
-53,-29,24,41,-39,-2,24,4,9,-19,-4,-87
-39,-39,0,39,-19,-19,24,-4,0,-39,-19,-97
-34,-43,-9,39,-12,-26,29,-9,-4,-39,-24,-97
-29,-43,-14,36,-7,-29,29,-9,-9,-39,-29,-107
-24,-43,-19,34,-2,-31,29,-14,-14,-39,-34,-112
-14,-39,-24,26,4,-31,29,-4,-14,-34,-24,-107
-14,-39,-24,26,4,-31,29,-4,-14,-34,-24,-107
-14,-39,-24,26,4,-31,29,0,-14,-34,-24,-102
-14,-39,-24,26,4,-31,29,0,-14,-43,-24,-102
-4,-48,-43,26,19,-46,24,-4,-19,-58,-29,-117
9,-48,-58,19,34,-53,19,-9,-24,-63,-34,-122
19,-48,-68,14,43,-58,14,-14,-29,-63,-39,-136
34,-53,-87,9,61,-70,9,-19,-34,-68,-43,-141
19,-39,-58,9,39,-48,19,-14,-29,-68,-34,-136
4,-34,-39,14,21,-36,19,-4,-24,-63,-39,-136
-4,-29,-24,17,9,-26,19,0,-24,-58,-39,-131
-9,-29,-19,19,4,-24,19,-9,-24,-53,-39,-122
-29,-29,0,29,-14,-14,24,9,-19,-58,-34,-122
-48,-29,19,39,-34,-4,29,9,-9,-43,-34,-117
-58,-29,29,43,-43,0,29,9,-4,-39,-29,-117
-68,-24,43,46,-56,9,29,9,4,-29,-29,-117
-48,-19,29,34,-39,4,24,0,-9,-39,-34,-126
-34,-19,14,26,-24,-2,29,-4,-9,-43,-34,-131
-24,-19,4,21,-14,-7,24,-4,-14,-43,-34,-136
-14,-19,-4,17,-4,-12,19,-4,-19,-48,-34,-141
-9,-14,-4,12,-2,-9,9,0,-9,-39,-34,-126
-9,-14,-4,12,-2,-9,9,0,-9,-39,-34,-126
-9,-14,-4,12,-2,-9,9,0,-4,-39,-34,-126
0,-9,-9,4,4,-9,9,0,-4,-39,-29,-117
19,-4,-24,-7,21,-14,9,-9,-4,-39,-29,-126
24,0,-24,-12,24,-12,4,-9,-4,-39,-29,-126
29,4,-24,-17,26,-9,4,-4,-14,-43,-39,-126
39,9,-29,-24,34,-9,4,-4,-14,-43,-29,-126
29,0,-29,-14,29,-14,4,4,-4,-39,-29,-112
24,-4,-29,-9,26,-17,4,4,-4,-29,-29,-117
24,-9,-34,-7,29,-21,9,4,0,-29,-24,-112
24,-9,-34,-7,29,-21,9,4,0,-24,-24,-107
24,-19,-43,-2,34,-31,4,-4,0,-34,-24,-102
24,-14,-39,-4,31,-26,4,-4,-4,-34,-24,-102
24,-14,-39,-4,31,-26,4,-4,-4,-39,-24,-102
24,-24,-48,0,36,-36,4,-4,-4,-43,-24,-97
24,-19,-43,-2,34,-31,14,0,-4,-34,-24,-107
24,-19,-43,-2,34,-31,14,0,-4,-29,-24,-107
19,-24,-43,2,31,-34,14,4,0,-29,-24,-107
9,-29,-39,9,24,-34,9,4,0,-29,-24,-102
0,-39,-39,19,19,-39,29,9,-4,-24,-14,-97
9,-34,-43,12,26,-39,19,9,-4,-24,-14,-87
14,-43,-58,14,36,-51,19,19,0,-24,-9,-87
14,-48,-63,17,39,-56,19,9,-9,-24,-14,-82
29,-48,-78,9,53,-63,9,0,-9,-29,-29,-97
43,-48,-92,2,68,-70,9,-9,-19,-39,-39,-107
48,-48,-97,0,73,-73,9,-9,-19,-39,-39,-107
53,-48,-102,-2,78,-75,9,-9,-19,-39,-39,-107
58,-48,-107,-4,82,-78,9,-9,-19,-39,-39,-107
53,-48,-102,-2,78,-75,14,-9,-19,-43,-29,-97
39,-48,-87,4,63,-68,19,-4,-19,-43,-29,-97
24,-48,-73,12,48,-61,24,4,-19,-39,-29,-97
9,-43,-53,17,31,-48,34,9,-19,-34,-24,-97
-4,-53,-48,29,21,-51,24,0,-19,-34,-14,-87
-14,-53,-39,34,12,-46,14,-9,-24,-43,-24,-97
-9,-53,-43,31,17,-48,4,-9,-29,-48,-29,-97
-19,-48,-29,34,4,-39,4,-9,-29,-48,-29,-92
0,-34,-34,17,17,-34,0,0,-19,-29,-14,-82
14,-29,-43,7,29,-36,0,0,-19,-29,-9,-78
29,-19,-48,-4,39,-34,0,0,-14,-29,-9,-78
29,-14,-43,-7,36,-29,0,0,-14,-29,-4,-73
19,-19,-39,0,29,-29,4,4,-14,-24,-4,-63
19,-24,-43,2,31,-34,4,4,-9,-24,-4,-63
19,-19,-39,0,29,-29,19,9,-4,-19,0,-63
24,-19,-43,-2,34,-31,29,14,0,-19,4,-53
9,-24,-34,7,21,-29,34,4,-4,-19,9,-68
14,-14,-29,0,21,-21,39,14,4,-19,4,-73
24,-9,-34,-7,29,-21,48,19,14,-14,0,-68
19,-9,-29,-4,24,-19,53,24,14,-4,0,-73
39,-4,-43,-17,41,-24,48,29,14,-14,-9,-73
48,0,-48,-24,48,-24,63,34,24,-14,-9,-73
58,4,-53,-31,56,-24,73,34,24,-9,-9,-73
73,24,-48,-48,61,-12,73,34,24,-9,-4,-73
68,24,-43,-46,56,-9,78,39,24,-9,0,-63
68,34,-34,-51,51,0,73,29,19,-4,4,-58
63,39,-24,-51,43,7,53,14,9,-9,14,-53
68,39,-29,-53,48,4,29,-4,0,-4,19,-53
73,43,-29,-58,51,7,-29,-24,-14,-19,9,-58
92,43,-48,-68,70,-2,-73,-29,-34,-29,0,-58
92,39,-53,-65,73,-7,-92,-29,-39,-29,0,-58
87,29,-58,-58,73,-14,-102,-34,-48,-43,-4,-58
78,14,-63,-46,70,-24,-102,-39,-58,-43,-4,-53
73,0,-73,-36,73,-36,-87,-39,-63,-48,-14,-58
58,-4,-63,-26,61,-34,-73,-34,-63,-53,-19,-58
48,-14,-63,-17,56,-39,-63,-34,-68,-58,-19,-58
63,-19,-82,-21,73,-51,-43,-24,-58,-48,-9,-63
68,-24,-92,-21,80,-58,-29,-24,-58,-48,-9,-63
63,-19,-82,-21,73,-51,-24,-24,-53,-48,-9,-58
58,-24,-82,-17,70,-53,-19,-24,-53,-48,-9,-53
58,-39,-97,-9,78,-68,-29,-34,-73,-48,-14,-53
43,-53,-97,4,70,-75,-29,-34,-73,-53,-14,-63
34,-63,-97,14,65,-80,-14,-34,-78,-58,-19,-68
24,-78,-102,26,63,-90,0,-34,-78,-63,-29,-78
19,-68,-87,24,53,-78,9,-34,-78,-68,-34,-97
4,-63,-68,29,36,-65,19,-34,-78,-73,-43,-102
-9,-58,-48,34,19,-53,19,-34,-78,-73,-48,-112
-9,-53,-43,31,17,-48,29,-43,-87,-87,-58,-112
-14,-68,-53,41,19,-61,39,-58,-102,-102,-73,-126
-29,-73,-43,51,7,-58,39,-63,-107,-112,-82,-131
-39,-82,-43,61,2,-63,39,-63,-107,-112,-82,-136
-43,-87,-43,65,0,-65,39,-63,-107,-117,-82,-141
-34,-87,-53,61,9,-70,34,-73,-112,-126,-92,-156
-29,-92,-63,61,17,-78,29,-73,-117,-131,-97,-161
-29,-92,-63,61,17,-78,24,-73,-122,-136,-102,-161
-24,-87,-63,56,19,-75,19,-73,-131,-141,-117,-161
-19,-73,-53,46,17,-63,29,-63,-122,-131,-107,-165
-14,-73,-58,43,21,-65,29,-63,-117,-131,-107,-165
-24,-73,-48,48,12,-61,29,-63,-117,-131,-112,-165
-19,-78,-58,48,19,-68,34,-63,-122,-131,-112,-165
-24,-87,-63,56,19,-75,24,-63,-112,-126,-112,-165
-24,-82,-58,53,17,-70,24,-63,-112,-126,-112,-156
-24,-82,-58,53,17,-70,24,-58,-112,-122,-112,-156
-29,-82,-53,56,12,-68,24,-58,-112,-122,-112,-156
-43,-82,-39,63,-2,-61,39,-68,-112,-122,-97,-146
-48,-87,-39,68,-4,-63,39,-68,-107,-117,-97,-136
-48,-87,-39,68,-4,-63,39,-63,-102,-117,-92,-136
-48,-87,-39,68,-4,-63,39,-63,-102,-117,-92,-146
-58,-102,-43,80,-7,-73,48,-58,-92,-117,-82,-141
-63,-102,-39,82,-12,-70,48,-53,-92,-112,-82,-131
-68,-97,-29,82,-19,-63,48,-48,-92,-102,-82,-126
-58,-97,-39,78,-9,-68,48,-48,-92,-97,-82,-126
-58,-107,-48,82,-4,-78,58,-48,-82,-97,-82,-141
-58,-107,-48,82,-4,-78,58,-48,-82,-97,-78,-141
-58,-102,-43,80,-7,-73,58,-48,-82,-97,-73,-141
-58,-102,-43,80,-7,-73,58,-48,-82,-97,-68,-141
-58,-92,-34,75,-12,-63,48,-48,-92,-112,-78,-136
-58,-92,-34,75,-12,-63,39,-48,-92,-112,-87,-131
-43,-92,-48,68,2,-70,39,-43,-97,-112,-97,-141
-34,-107,-73,70,19,-90,48,-29,-73,-107,-97,-151
-29,-131,-102,80,36,-117,63,4,-43,-97,-97,-146
-34,-126,-92,80,29,-109,92,43,-4,-58,-87,-131
-34,-136,-102,85,34,-119,112,102,68,-9,-63,-131
-43,-156,-112,100,34,-134,131,165,156,53,-39,-156
-14,-126,-112,70,48,-119,146,244,268,156,0,-151
58,-73,-131,7,95,-102,141,312,370,283,92,-112
122,-68,-190,-26,156,-129,131,375,478,419,185,-63
156,-73,-229,-41,192,-151,112,390,541,551,283,-4
161,-4,-165,-78,163,-85,63,370,556,697,439,107
195,102,-92,-148,143,4,-24,346,600,883,639,248
258,204,-53,-231,156,75,-78,302,634,1039,814,385
307,312,4,-309,151,158,-131,146,497,1054,907,473
346,424,78,-385,134,251,-209,-117,200,961,941,541
370,556,185,-463,92,370,-351,-429,-170,829,990,649
380,692,312,-536,34,502,-507,-717,-531,702,1029,780
351,785,434,-568,-41,610,-590,-951,-805,546,1015,858
287,844,556,-566,-134,700,-614,-1146,-1068,258,873,849
214,873,658,-544,-222,766,-653,-1420,-1439,-156,619,775
107,868,761,-488,-326,814,-692,-1717,-1820,-614,331,663
-4,824,829,-409,-417,827,-732,-1927,-2108,-1034,63,527
-53,751,805,-348,-429,778,-736,-2020,-2318,-1361,-175,405
-53,634,688,-290,-370,661,-692,-2000,-2415,-1537,-356,283
-58,527,585,-234,-322,556,-683,-1947,-2405,-1586,-473,151
-82,458,541,-187,-312,500,-746,-1883,-2313,-1532,-502,68
-131,400,531,-134,-331,466,-800,-1781,-2147,-1415,-497,24
-180,302,483,-61,-331,392,-707,-1595,-1908,-1278,-468,-24
-190,200,390,-4,-290,295,-570,-1376,-1654,-1122,-439,-78
-185,136,322,24,-253,229,-488,-1185,-1420,-971,-395,-107
-170,107,278,31,-224,192,-385,-985,-1151,-795,-351,-122
-131,102,234,14,-183,168,-283,-756,-883,-619,-292,-112
-107,78,185,14,-146,131,-200,-561,-634,-458,-229,-112
-102,39,141,31,-122,90,-117,-380,-434,-317,-170,-112
-87,4,92,41,-90,48,-39,-258,-287,-229,-131,-112
-78,-29,48,53,-63,9,14,-180,-200,-161,-82,-82
-82,-82,0,82,-41,-41,39,-126,-151,-131,-43,-58
-87,-97,-9,92,-39,-53,43,-102,-131,-117,-34,-58
-107,-97,9,102,-58,-43,53,-68,-102,-92,-24,-58
-102,-97,4,100,-53,-46,53,-43,-58,-73,-29,-63
-78,-92,-14,85,-31,-53,53,-24,-39,-58,-48,-78
-73,-78,-4,75,-34,-41,48,-9,-19,-53,-53,-92
-73,-73,0,73,-36,-36,63,0,-24,-48,-53,-97
-63,-78,-14,70,-24,-46,68,0,-24,-48,-48,-102
-58,-87,-29,73,-14,-58,68,0,-29,-53,-48,-107
-53,-87,-34,70,-9,-61,68,0,-29,-53,-48,-107
-39,-92,-53,65,7,-73,78,14,-19,-63,-53,-112
-34,-92,-58,63,12,-75,78,19,-4,-53,-58,-122
-34,-97,-63,65,14,-80,78,29,9,-39,-68,-131
-39,-102,-63,70,12,-82,78,39,19,-34,-73,-141
-48,-92,-43,70,-2,-68,87,53,29,-34,-78,-151
-48,-92,-43,70,-2,-68,87,53,34,-34,-78,-151
-39,-92,-53,65,7,-73,87,53,29,-34,-68,-146
-39,-82,-43,61,2,-63,87,58,43,-34,-63,-146
-53,-73,-19,63,-17,-46,78,58,43,-24,-58,-126
-53,-78,-24,65,-14,-51,73,68,58,-14,-53,-122
-53,-82,-29,68,-12,-56,73,78,63,0,-43,-112
-53,-82,-29,68,-12,-56,78,82,73,14,-34,-107
-48,-102,-53,75,2,-78,82,82,92,24,-24,-97
-48,-107,-58,78,4,-82,82,82,92,24,-19,-97
-48,-112,-63,80,7,-87,82,87,92,24,-14,-97
-43,-112,-68,78,12,-90,82,92,92,29,-9,-97
-24,-97,-73,61,24,-85,87,92,87,19,-9,-87
-24,-97,-73,61,24,-85,87,97,97,19,-14,-82
-19,-97,-78,58,29,-87,92,107,107,34,-14,-82
-19,-92,-73,56,26,-82,97,117,112,43,-14,-82
-24,-97,-73,61,24,-85,97,112,117,39,-24,-87
-24,-102,-78,63,26,-90,92,112,112,39,-24,-92
-24,-107,-82,65,29,-95,92,112,107,39,-24,-97
-19,-112,-92,65,36,-102,87,112,112,39,-19,-97
-19,-112,-92,65,36,-102,97,122,117,43,-9,-102
-4,-112,-107,58,51,-109,92,136,126,53,-9,-107
-4,-107,-102,56,48,-104,92,141,146,68,0,-112
-9,-107,-97,58,43,-102,92,146,161,78,0,-117
0,-92,-92,46,46,-92,87,141,161,73,0,-117
0,-87,-87,43,43,-87,82,146,161,78,4,-112
14,-78,-92,31,53,-85,78,146,161,78,4,-107
4,-73,-78,34,41,-75,73,151,161,78,4,-102
-9,-63,-53,36,21,-58,78,161,170,92,14,-87
-29,-63,-34,46,2,-48,92,170,190,112,24,-78
-39,-58,-19,48,-9,-39,97,180,209,126,34,-68
-43,-53,-9,48,-17,-31,102,185,219,146,43,-58
-29,-53,-24,41,-2,-39,97,195,224,156,58,-68
-19,-48,-29,34,4,-39,87,195,234,161,63,-63
-9,-48,-39,29,14,-43,82,200,244,165,68,-58
14,-58,-73,21,43,-65,78,204,253,175,73,-53
14,-48,-63,17,39,-56,78,200,253,165,68,-63
9,-43,-53,17,31,-48,73,204,258,170,63,-63
4,-43,-48,19,26,-46,73,209,273,175,63,-63
14,-43,-58,14,36,-51,73,219,278,185,53,-63
14,-43,-58,14,36,-51,82,224,292,200,68,-58
14,-34,-48,9,31,-41,82,234,307,219,82,-39
9,-34,-43,12,26,-39,82,239,317,234,97,-34
9,-29,-39,9,24,-34,82,253,326,248,112,-19
19,-34,-53,7,36,-43,78,263,351,263,117,-9
34,-34,-68,0,51,-51,78,268,361,268,126,-4
39,-39,-78,0,58,-58,82,287,370,283,141,0
39,-39,-78,0,58,-58,82,292,385,292,161,4
48,-29,-78,-9,63,-53,78,287,385,297,156,0
58,-24,-82,-17,70,-53,63,297,400,312,165,0
78,-24,-102,-26,90,-63,53,292,400,312,170,-4
102,-24,-126,-39,114,-75,48,302,414,322,175,-4
97,-19,-117,-39,107,-68,48,317,439,341,185,9
87,-4,-92,-41,90,-48,48,326,453,356,195,19
78,0,-78,-39,78,-39,48,326,468,375,214,29
68,9,-58,-39,63,-24,43,341,488,395,229,39
63,9,-53,-36,58,-21,58,361,502,419,248,53
48,19,-29,-34,39,-4,63,370,522,434,258,68
34,24,-9,-29,21,7,58,380,536,448,273,82
19,24,4,-21,7,14,63,385,541,458,278,97
39,24,-14,-31,26,4,53,370,536,453,268,82
48,29,-19,-39,34,4,43,370,536,448,268,78
53,34,-19,-43,36,7,39,370,536,444,263,82
53,34,-19,-43,36,7,29,366,531,439,263,82
53,29,-24,-41,39,2,39,375,541,444,253,97
58,29,-29,-43,43,0,39,375,546,444,258,97
68,24,-43,-46,56,-9,39,370,546,444,263,102
68,19,-48,-43,58,-14,39,370,551,448,263,102
73,39,-34,-56,53,2,43,370,541,458,278,102
73,43,-29,-58,51,7,39,370,541,463,287,107
82,48,-34,-65,58,7,39,366,541,468,292,107
92,48,-43,-70,68,2,34,361,536,468,297,107
102,58,-43,-80,73,7,24,361,541,463,292,97
97,68,-29,-82,63,19,24,361,541,453,287,97
87,78,-9,-82,48,34,19,361,536,448,283,97
87,87,0,-87,43,43,19,351,531,439,273,97
82,78,-4,-80,43,36,29,346,536,444,283,112
78,68,-9,-73,43,29,24,341,531,439,283,112
73,58,-14,-65,43,21,24,326,522,434,283,107
78,43,-34,-61,56,4,24,322,502,424,278,102
112,34,-78,-73,95,-21,19,307,488,414,268,97
131,24,-107,-78,119,-41,14,302,468,400,258,87
151,14,-136,-82,143,-61,9,283,448,380,253,78
161,4,-156,-82,158,-75,0,273,419,366,244,73
126,19,-107,-73,117,-43,0,273,419,356,248,82
97,34,-63,-65,80,-14,4,263,409,341,248,92
58,43,-14,-51,36,14,4,244,385,326,244,92
43,58,14,-51,14,36,4,234,366,307,239,97
39,58,19,-48,9,39,19,224,351,297,229,107
43,48,4,-46,19,26,19,214,331,278,214,107
24,43,19,-34,2,31,19,209,317,263,200,102
14,39,24,-26,-4,31,19,200,302,253,195,97
0,29,29,-14,-14,29,24,195,278,219,170,87
-14,19,34,-2,-24,26,29,180,253,200,156,78
-29,19,48,4,-39,34,34,165,239,180,136,63
-24,19,43,2,-34,31,39,156,219,161,117,53
-39,14,53,12,-46,34,34,136,190,136,102,34
-48,0,48,24,-48,24,34,117,170,122,92,14
-58,-9,48,34,-53,19,34,102,156,102,82,4
-63,-24,39,43,-51,7,34,82,131,82,73,-9
-48,-39,9,43,-29,-14,39,82,117,68,58,-9
-39,-43,-4,41,-17,-24,43,78,102,53,48,-14
-39,-48,-9,43,-14,-29,43,68,87,43,39,-14
-34,-53,-19,43,-7,-36,43,58,73,29,34,-14
-34,-48,-14,41,-9,-31,43,39,68,19,39,-24
-34,-48,-14,41,-9,-31,43,34,53,9,24,-29
-39,-53,-14,46,-12,-34,53,34,48,9,24,-34
-43,-48,-4,46,-19,-26,58,29,39,9,14,-34
-29,-34,-4,31,-12,-19,53,24,19,-9,9,-43
-34,-29,4,31,-19,-12,53,24,19,-9,9,-39
-29,-29,0,29,-14,-14,48,19,19,-9,4,-39
-34,-29,4,31,-19,-12,43,14,9,-19,4,-48
-14,-43,-29,29,7,-36,39,9,0,-39,-9,-58
-4,-53,-48,29,21,-51,39,0,-14,-48,-24,-58
4,-58,-63,26,34,-61,34,-4,-29,-58,-39,-68
14,-63,-78,24,46,-70,29,-14,-43,-68,-53,-73
-9,-63,-53,36,21,-58,39,0,-34,-68,-39,-68
-34,-68,-34,51,0,-51,48,4,-24,-63,-34,-58
-58,-73,-14,65,-21,-43,58,14,-14,-58,-29,-43
-82,-78,4,80,-43,-36,68,19,-4,-63,-24,-34
-92,-63,29,78,-61,-17,73,29,4,-58,-19,-24
-87,-58,29,73,-58,-14,78,29,4,-53,-14,-24
-87,-53,34,70,-61,-9,82,29,4,-43,-9,-34
-82,-53,29,68,-56,-12,87,29,4,-39,-4,-34
-73,-53,19,63,-46,-17,82,19,-4,-43,-9,-48
-73,-53,19,63,-46,-17,78,24,-4,-43,-19,-58
-68,-53,14,61,-41,-19,73,24,-9,-43,-24,-63
-58,-58,0,58,-29,-29,68,9,-14,-43,-29,-63
-58,-58,0,58,-29,-29,68,29,-4,-43,-19,-48
-68,-58,9,63,-39,-24,68,29,0,-34,-14,-39
-68,-58,9,63,-39,-24,63,29,0,-34,-4,-34
-68,-53,14,61,-41,-19,58,29,4,-29,0,-29
-58,-53,4,56,-31,-24,58,34,-4,-34,-4,-29
-53,-58,-4,56,-24,-31,68,34,0,-34,-4,-34
-53,-63,-9,58,-21,-36,68,39,0,-29,-4,-39
-53,-68,-14,61,-19,-41,68,43,0,-29,-4,-43
-43,-73,-29,58,-7,-51,58,43,-9,-34,-19,-48
-39,-73,-34,56,-2,-53,58,39,-9,-39,-24,-48
-34,-73,-39,53,2,-56,58,34,-4,-43,-29,-48
-19,-68,-48,43,14,-58,58,29,-4,-48,-29,-39
-29,-58,-29,43,0,-43,68,29,4,-43,-14,-29
-34,-58,-24,46,-4,-41,63,29,4,-39,-9,-29
-39,-58,-19,48,-9,-39,63,34,-4,-39,-14,-29
-39,-58,-19,48,-9,-39,63,34,-4,-34,0,-29
-39,-48,-9,43,-14,-29,53,34,0,-29,9,-24
-43,-53,-9,48,-17,-31,53,34,4,-19,9,-29
-43,-58,-14,51,-14,-36,58,34,14,-19,14,-24
-43,-58,-14,51,-14,-36,58,34,19,-14,14,-19
-29,-58,-29,43,0,-43,48,34,9,-24,4,-29
-14,-53,-39,34,12,-46,43,34,4,-24,4,-34
0,-53,-53,26,26,-53,39,34,4,-29,4,-39
14,-63,-78,24,46,-70,34,34,4,-34,4,-39
-4,-53,-48,29,21,-51,48,29,14,-29,14,-48
-14,-48,-34,31,9,-41,53,29,14,-19,14,-48
-29,-48,-19,39,-4,-34,58,34,19,-14,14,-48
-48,-48,0,48,-24,-24,58,34,19,-9,14,-43
-63,-39,24,51,-43,-7,48,29,9,-9,0,-39
-68,-43,24,56,-46,-9,48,29,4,-14,-4,-39
-68,-43,24,56,-46,-9,48,29,-4,-19,-4,-39
-73,-39,34,56,-53,-2,48,29,-9,-24,-4,-43
-82,-58,24,70,-53,-17,68,48,9,-19,4,-24
-48,-58,-9,53,-19,-34,68,48,19,-9,9,0
-48,-63,-14,56,-17,-39,68,43,9,-14,9,9
-48,-68,-19,58,-14,-43,68,39,9,-19,9,9
-48,-73,-24,61,-12,-48,68,34,9,-24,9,9
-48,-78,-29,63,-9,-53,68,29,9,-29,9,9
-43,-78,-34,61,-4,-56,68,34,9,-29,14,9
-48,-78,-29,63,-9,-53,68,34,9,-24,19,9
-53,-78,-24,65,-14,-51,68,39,9,-14,24,9
-58,-73,-14,65,-21,-43,73,39,9,-4,34,9
-53,-73,-19,63,-17,-46,63,34,-4,-14,14,0
-43,-73,-29,58,-7,-51,53,19,-14,-34,-4,-19
-19,-73,-53,46,17,-63,43,14,-24,-48,-19,-29
-9,-68,-58,39,24,-63,43,9,-29,-58,-29,-34
14,-82,-97,34,56,-90,24,4,-43,-63,-39,-48
34,-87,-122,26,78,-104,19,0,-48,-68,-39,-48
53,-87,-141,17,97,-114,14,-4,-48,-73,-43,-53
58,-92,-151,17,104,-122,9,-9,-53,-78,-43,-53
19,-87,-107,34,63,-97,29,4,-34,-53,-24,-39
-19,-82,-63,51,21,-73,34,14,-19,-43,-14,-34
-58,-68,-9,63,-24,-39,53,29,-4,-29,0,-29
-92,-58,34,75,-63,-12,68,43,9,-19,14,-14
-92,-43,48,68,-70,2,73,43,14,-9,24,-4
-82,-34,48,58,-65,7,78,53,24,-9,24,-4
-68,-29,39,48,-53,4,87,58,34,-4,24,4
-68,-29,39,48,-53,4,92,63,34,4,29,4
-63,-34,29,48,-46,-2,87,68,34,4,29,14
-58,-39,19,48,-39,-9,102,73,43,4,29,14
-53,-43,9,48,-31,-17,112,73,43,9,29,14
-43,-34,9,39,-26,-12,112,73,43,9,34,14
-43,-29,14,36,-29,-7,126,78,43,9,43,14
-39,-14,24,26,-31,4,122,68,39,14,43,19
-39,-4,34,21,-36,14,102,53,29,9,48,24
-29,0,29,14,-29,14,78,34,19,14,48,24
-14,14,29,0,-21,21,19,19,4,-4,43,24
14,14,0,-14,7,7,-24,9,-14,-19,29,19
24,9,-14,-17,19,-2,-43,4,-19,-24,24,14
29,0,-29,-14,29,-14,-53,-4,-29,-43,14,9
29,-14,-43,-7,36,-29,-58,-4,-39,-34,24,19
34,-29,-63,-2,48,-46,-48,0,-43,-39,14,9
29,-34,-63,2,46,-48,-39,9,-43,-43,9,4
29,-43,-73,7,51,-58,-34,14,-48,-48,9,0
19,-58,-78,19,48,-68,-24,4,-48,-39,0,4
19,-63,-82,21,51,-73,-9,4,-48,-39,0,4
9,-58,-68,24,39,-63,-4,4,-43,-39,0,9
0,-63,-63,31,31,-63,0,4,-43,-39,0,14
19,-63,-82,21,51,-73,-14,-9,-58,-53,-14,0
14,-63,-78,24,46,-70,-19,-14,-63,-63,-14,-14
14,-58,-73,21,43,-65,-9,-19,-73,-73,-19,-24
14,-58,-73,21,43,-65,0,-24,-78,-82,-29,-39
-9,-58,-48,34,19,-53,24,-9,-68,-73,-19,-29
-34,-63,-29,48,-2,-46,39,-4,-58,-73,-24,-24
-58,-68,-9,63,-24,-39,43,0,-48,-68,-24,-24
-68,-73,-4,70,-31,-39,58,-4,-48,-78,-29,-14
-73,-68,4,70,-39,-31,68,0,-73,-82,-34,-29
-87,-73,14,80,-51,-29,68,-4,-78,-92,-43,-34
-97,-82,14,90,-56,-34,68,-4,-78,-92,-43,-39
-102,-87,14,95,-58,-36,68,-4,-78,-97,-43,-43
-87,-97,-9,92,-39,-53,58,-9,-78,-112,-53,-53
-78,-102,-24,90,-26,-63,58,-14,-78,-112,-58,-63
-73,-102,-29,87,-21,-65,58,-19,-78,-112,-63,-68
-63,-97,-34,80,-14,-65,58,-24,-82,-112,-78,-73
-68,-102,-34,85,-17,-68,58,-34,-87,-122,-87,-87
-73,-102,-29,87,-21,-65,58,-34,-87,-122,-87,-87
-92,-102,-9,97,-41,-56,58,-34,-92,-122,-92,-87
-97,-107,-9,102,-43,-58,63,-34,-102,-122,-92,-87
-97,-112,-14,104,-41,-63,53,-24,-92,-117,-87,-92
-92,-112,-19,102,-36,-65,53,-24,-92,-117,-82,-78
-87,-117,-29,102,-29,-73,53,-19,-92,-112,-78,-73
-87,-122,-34,104,-26,-78,53,-19,-92,-112,-73,-68
-92,-131,-39,112,-26,-85,58,-19,-92,-112,-68,-58
-97,-136,-39,117,-29,-87,58,-19,-87,-107,-68,-48
-97,-136,-39,117,-29,-87,58,-14,-82,-107,-63,-48
-97,-136,-39,117,-29,-87,58,-14,-82,-107,-63,-58
-92,-131,-39,112,-26,-85,63,-14,-82,-112,-63,-58
-92,-131,-39,112,-26,-85,68,-14,-82,-112,-63,-53
-92,-126,-34,109,-29,-80,73,-14,-82,-107,-63,-53
-78,-126,-48,102,-14,-87,78,-19,-82,-107,-63,-58
-78,-117,-39,97,-19,-78,68,-19,-82,-117,-78,-73
-78,-117,-39,97,-19,-78,68,-19,-82,-117,-78,-73
-78,-112,-34,95,-21,-73,68,-19,-82,-117,-78,-73
-78,-112,-34,95,-21,-73,68,-19,-82,-117,-78,-73
-117,-92,24,104,-70,-34,58,-19,-92,-112,-78,-87
-97,-112,-14,104,-41,-63,58,-9,-82,-102,-78,-92
-53,-102,-48,78,-2,-75,58,-14,-78,-112,-87,-102
-14,-107,-92,61,39,-100,48,-19,-73,-107,-87,-102
-9,-131,-122,70,56,-126,63,14,-53,-97,-87,-107
-34,-146,-112,90,39,-129,82,63,-4,-68,-68,-102
-63,-146,-82,104,9,-114,112,122,68,-9,-43,-102
-63,-156,-92,109,14,-124,141,185,175,73,-19,-97
-53,-146,-92,100,19,-119,165,263,297,185,48,-73
-48,-131,-82,90,17,-107,180,331,419,331,151,-24
-14,-107,-92,61,39,-100,180,385,536,468,253,34
39,-63,-102,12,70,-82,170,409,610,619,370,112
73,14,-58,-43,65,-21,122,400,653,775,556,244
107,102,-4,-104,56,48,24,375,688,951,746,385
190,204,14,-197,87,109,-58,312,692,1068,893,502
258,322,63,-290,97,192,-131,175,556,1083,976,580
268,453,185,-361,41,319,-200,-48,287,1019,1029,678
263,546,283,-405,-9,414,-322,-312,-53,907,1078,785
273,663,390,-468,-58,527,-478,-590,-405,771,1107,878
273,766,492,-519,-109,629,-570,-805,-678,595,1063,927
239,844,605,-541,-183,724,-595,-1000,-961,297,912,907
175,873,697,-524,-261,785,-624,-1244,-1332,-126,649,824
68,858,790,-463,-361,824,-673,-1512,-1722,-614,341,702
-14,834,849,-409,-431,841,-692,-1712,-2059,-1073,14,546
-63,751,814,-344,-439,783,-697,-1805,-2288,-1429,-244,424
-92,605,697,-256,-395,651,-663,-1776,-2357,-1576,-414,292
-117,448,566,-165,-341,507,-614,-1693,-2308,-1586,-502,161
-112,370,483,-129,-297,427,-649,-1659,-2225,-1532,-531,78
-102,322,424,-109,-263,373,-712,-1595,-2088,-1434,-527,24
-131,244,375,-56,-253,309,-678,-1449,-1898,-1317,-527,-43
-122,141,263,-9,-192,202,-580,-1278,-1693,-1200,-507,-107
-117,87,204,14,-161,146,-507,-1117,-1468,-1058,-453,-117
-190,68,258,61,-224,163,-405,-927,-1210,-873,-380,-92
-239,63,302,87,-270,183,-273,-707,-912,-668,-312,-73
-195,39,234,78,-214,136,-190,-531,-683,-497,-248,-73
-151,9,161,70,-156,85,-117,-370,-473,-356,-190,-63
-136,-14,122,75,-129,53,-48,-258,-317,-248,-131,-53
-136,-29,107,82,-122,39,4,-180,-229,-180,-73,-34
-122,-63,58,92,-90,-2,39,-126,-170,-151,-34,-9
-136,-68,68,102,-102,0,63,-73,-122,-126,-14,0
-136,-68,68,102,-102,0,63,-39,-92,-112,-14,0
-112,-78,34,95,-73,-21,53,-14,-68,-102,-29,-14
-107,-92,14,100,-61,-39,53,4,-39,-78,-39,-29
-102,-87,14,95,-58,-36,78,19,-9,-43,-43,-34
-102,-97,4,100,-53,-46,82,19,-4,-48,-43,-48
-92,-107,-14,100,-39,-61,87,19,-4,-48,-39,-53
-87,-122,-34,104,-26,-78,87,19,-9,-53,-39,-58
-82,-126,-43,104,-19,-85,87,19,-9,-53,-39,-58
-68,-122,-53,95,-7,-87,82,34,0,-53,-39,-58
-63,-112,-48,87,-7,-80,78,39,14,-43,-39,-63
-63,-107,-43,85,-9,-75,73,48,29,-29,-43,-68
-68,-102,-34,85,-17,-68,68,58,39,-24,-43,-73
-78,-107,-29,92,-24,-68,82,73,48,-9,-34,-63
-78,-112,-34,95,-21,-73,87,73,53,-4,-29,-63
-68,-117,-48,92,-9,-82,92,73,48,0,-14,-58
-68,-112,-43,90,-12,-78,97,78,63,4,-4,-58
-68,-107,-39,87,-14,-73,87,78,58,-4,-14,-53
-63,-107,-43,85,-9,-75,82,87,68,-4,-14,-53
-58,-107,-48,82,-4,-78,82,97,68,0,-9,-48
-53,-102,-48,78,-2,-75,87,102,73,4,-4,-48
-58,-107,-48,82,-4,-78,92,92,92,9,0,-48
-58,-107,-48,82,-4,-78,92,92,92,14,0,-48
-58,-107,-48,82,-4,-78,92,97,92,19,0,-48
-53,-102,-48,78,-2,-75,92,102,92,29,0,-48
-43,-97,-53,70,4,-75,92,92,87,19,4,-58
-43,-97,-53,70,4,-75,87,97,97,19,4,-53
-39,-97,-58,68,9,-78,87,107,107,34,9,-53
-39,-92,-53,65,7,-73,87,117,112,43,14,-53
-53,-97,-43,75,-4,-70,92,122,122,34,4,-53
-53,-102,-48,78,-2,-75,92,122,122,39,4,-53
-53,-107,-53,80,0,-80,97,122,122,43,4,-53
-48,-112,-63,80,7,-87,97,122,131,48,9,-48
-29,-112,-82,70,26,-97,97,131,131,58,19,-39
-14,-112,-97,63,41,-104,92,146,136,63,19,-39
-14,-107,-92,61,39,-100,92,151,151,73,29,-39
-19,-107,-87,63,34,-97,92,156,161,78,29,-39
-9,-107,-97,58,43,-102,82,156,156,82,29,-43
-9,-107,-97,58,43,-102,82,156,161,87,34,-43
4,-102,-107,48,56,-104,82,151,165,87,34,-43
-4,-102,-97,53,46,-100,82,151,170,87,34,-43
-24,-112,-87,68,31,-100,82,161,185,97,48,-34
-39,-112,-73,75,17,-92,92,170,200,112,53,-29
-43,-107,-63,75,9,-85,92,180,214,122,58,-24
-43,-102,-58,73,7,-80,92,185,219,136,63,-19
-19,-92,-73,56,26,-82,82,195,224,146,68,-19
-9,-87,-78,48,34,-82,78,195,234,151,73,-14
0,-87,-87,43,43,-87,78,200,244,156,78,-9
24,-97,-122,36,73,-109,78,204,253,165,82,-4
9,-78,-87,34,48,-82,82,209,273,175,102,9
0,-73,-73,36,36,-73,82,214,278,190,112,14
-9,-73,-63,41,26,-68,87,219,292,204,126,19
-4,-73,-68,39,31,-70,92,229,297,224,131,24
14,-63,-78,24,46,-70,82,229,297,214,131,9
34,-53,-87,9,61,-70,73,234,307,219,131,19
48,-53,-102,2,75,-78,63,234,312,219,131,14
68,-48,-117,-9,92,-82,53,244,317,219,131,19
53,-48,-102,-2,78,-75,48,253,336,244,136,39
53,-43,-97,-4,75,-70,58,258,351,258,146,43
43,-43,-87,0,65,-65,73,278,366,283,161,48
29,-39,-68,4,48,-53,82,283,385,302,180,53
14,-29,-43,7,29,-36,92,302,405,322,190,68
0,-24,-24,12,12,-24,82,317,429,341,204,78
-4,-24,-19,14,7,-21,78,317,439,346,214,82
-4,-24,-19,14,7,-21,78,331,463,361,224,92
9,-34,-43,12,26,-39,68,336,463,366,229,97
19,-24,-43,2,31,-34,68,346,473,375,234,97
29,-24,-53,-2,41,-39,68,346,483,390,248,97
39,-19,-58,-9,48,-39,63,361,497,405,258,97
39,-19,-58,-9,48,-39,63,356,507,414,263,102
39,-9,-48,-14,43,-29,63,361,522,424,268,107
39,-4,-43,-17,41,-24,53,366,531,434,278,112
39,-4,-43,-17,41,-24,53,366,531,439,278,117
48,4,-43,-26,46,-19,39,366,541,444,283,117
58,9,-48,-34,53,-19,34,370,546,448,287,117
63,14,-48,-39,56,-17,34,375,551,453,287,126
63,14,-48,-39,56,-17,29,375,551,458,292,131
68,29,-39,-48,53,-4,29,385,561,463,302,126
78,39,-39,-58,58,0,29,385,566,463,307,126
92,43,-48,-68,70,-2,29,380,566,463,312,131
97,48,-48,-73,73,0,29,380,570,468,312,131
92,48,-43,-70,68,2,24,370,561,473,312,141
92,53,-39,-73,65,7,19,370,561,473,317,146
102,58,-43,-80,73,7,19,366,561,473,317,146
112,58,-53,-85,82,2,14,361,556,468,317,146
97,53,-43,-75,70,4,24,370,561,478,326,146
87,48,-39,-68,63,4,24,370,561,473,326,146
73,43,-29,-58,51,7,19,370,556,473,326,146
68,39,-29,-53,48,4,19,361,551,468,322,146
78,43,-34,-61,56,4,19,356,546,453,312,151
78,48,-29,-63,53,9,14,351,541,448,312,151
78,53,-24,-65,51,14,14,336,531,444,312,146
87,53,-34,-70,61,9,14,331,512,434,307,141
82,43,-39,-63,61,2,9,317,502,424,297,151
82,43,-39,-63,61,2,4,312,488,409,287,146
82,43,-39,-63,61,2,0,292,473,390,283,141
73,43,-29,-58,51,7,-9,283,448,375,273,141
73,43,-29,-58,51,7,0,283,439,366,273,151
58,43,-14,-51,36,14,4,273,429,351,268,151
34,39,4,-36,14,21,4,253,405,336,258,141
34,39,4,-36,14,21,4,244,385,317,248,136
53,29,-24,-41,39,2,4,229,356,292,229,117
63,19,-43,-41,53,-12,0,214,331,268,214,107
48,14,-34,-31,41,-9,-4,204,312,248,200,92
43,9,-34,-26,39,-12,-9,190,292,234,195,78
48,19,-29,-34,39,-4,4,175,278,214,180,78
43,19,-24,-31,34,-2,9,161,253,200,175,78
39,29,-9,-34,24,9,14,146,239,185,165,73
53,39,-14,-46,34,12,19,136,219,170,156,73
34,24,-9,-29,21,7,24,131,209,156,141,68
19,9,-9,-14,14,0,24,117,190,141,131,53
4,0,-4,-2,4,-2,24,107,175,122,122,48
-4,-14,-9,9,2,-12,24,92,151,102,112,39
0,-9,-9,4,4,-9,19,82,126,78,87,24
0,-14,-14,7,7,-14,24,78,112,63,78,14
-9,-19,-9,14,0,-14,24,68,97,53,68,9
-14,-24,-9,19,-2,-17,24,58,82,39,63,4
-14,-34,-19,24,2,-26,24,39,68,24,48,-4
-14,-39,-24,26,4,-31,24,34,53,9,34,-9
-19,-48,-29,34,4,-39,34,34,48,4,34,-14
-24,-48,-24,36,0,-36,39,29,39,0,24,-14
-14,-48,-34,31,9,-41,34,19,14,-24,14,-19
-24,-48,-24,36,0,-36,34,14,9,-29,9,-19
-24,-53,-29,39,2,-41,29,4,4,-34,0,-24
-34,-58,-24,46,-4,-41,24,-4,-9,-48,-4,-39
-43,-58,-14,51,-14,-36,29,4,0,-48,-4,-34
-43,-63,-19,53,-12,-41,39,0,-4,-48,-4,-29
-43,-63,-19,53,-12,-41,43,0,-9,-48,-4,-34
-43,-63,-19,53,-12,-41,48,-4,-14,-48,-4,-34
-53,-58,-4,56,-24,-31,48,-4,-24,-63,-14,-43
-53,-58,-4,56,-24,-31,48,-4,-24,-63,-14,-48
-53,-58,-4,56,-24,-31,48,0,-24,-63,-14,-48
-53,-58,-4,56,-24,-31,48,0,-24,-73,-14,-53
-48,-58,-9,53,-19,-34,48,-9,-34,-73,-24,-43
-39,-58,-19,48,-9,-39,48,-9,-34,-73,-24,-43
-34,-58,-24,46,-4,-41,48,-9,-34,-68,-24,-53
-24,-63,-39,43,7,-51,48,-9,-34,-68,-24,-53
-34,-73,-39,53,2,-56,39,-19,-34,-82,-34,-63
-34,-73,-39,53,2,-56,39,-14,-34,-82,-39,-68
-29,-73,-43,51,7,-58,39,-14,-39,-82,-39,-68
-19,-78,-58,48,19,-68,39,-29,-43,-82,-39,-63
-29,-78,-48,53,9,-63,39,-9,-43,-82,-34,-53
-39,-78,-39,58,0,-58,39,-9,-39,-73,-34,-48
-39,-78,-39,58,0,-58,34,-9,-39,-73,-29,-48
-39,-73,-34,56,-2,-53,29,-9,-34,-68,-29,-48
-43,-68,-24,56,-9,-46,34,4,-29,-53,-24,-34
-43,-68,-24,56,-9,-46,48,4,-19,-53,-14,-34
-48,-68,-19,58,-14,-43,53,9,-14,-48,-4,-34
-53,-68,-14,61,-19,-41,58,14,-9,-48,4,-34
-48,-73,-24,61,-12,-48,53,14,-19,-48,0,-34
-39,-73,-34,56,-2,-53,48,9,-19,-48,-4,-39
-29,-73,-43,51,7,-58,43,4,-14,-48,-9,-43
-9,-68,-58,39,24,-63,39,0,-14,-48,-9,-39
-19,-73,-53,46,17,-63,48,9,4,-43,0,-29
-24,-78,-53,51,14,-65,43,9,4,-39,0,-29
-29,-82,-53,56,12,-68,43,14,-4,-39,-9,-29
-29,-87,-58,58,14,-73,43,14,-4,-34,0,-29
-19,-82,-63,51,21,-73,34,14,-4,-39,0,-29
-24,-82,-58,53,17,-70,34,14,-4,-29,0,-39
-24,-82,-58,53,17,-70,39,14,0,-29,4,-39
-24,-78,-53,51,14,-65,39,14,0,-24,4,-39
-14,-73,-58,43,21,-65,34,14,9,-34,-4,-43
-14,-63,-48,39,17,-56,34,14,4,-34,-4,-43
-14,-58,-43,36,14,-51,34,14,4,-39,-4,-43
-14,-63,-48,39,17,-56,34,14,4,-43,-4,-39
-24,-63,-39,43,7,-51,43,14,14,-29,9,-34
-24,-58,-34,41,4,-46,43,19,14,-19,14,-29
-29,-58,-29,43,0,-43,43,29,19,-14,19,-24
-39,-58,-19,48,-9,-39,39,34,19,-9,24,-14
-29,-58,-29,43,0,-43,39,29,14,-14,14,-19
-29,-63,-34,46,2,-48,39,29,14,-14,14,-19
-24,-63,-39,43,7,-51,39,29,9,-14,19,-19
-24,-58,-34,41,4,-46,39,29,9,-14,24,-24
-14,-68,-53,41,19,-61,29,19,9,-19,14,-34
-48,-87,-39,68,-4,-63,39,19,9,-19,9,-29
-39,-78,-39,58,0,-58,39,19,0,-19,9,-29
-39,-78,-39,58,0,-58,39,19,0,-19,9,-29
-39,-78,-39,58,0,-58,39,19,0,-19,9,-29
-39,-78,-39,58,0,-58,39,19,0,-19,9,-29
-19,-78,-58,48,19,-68,39,14,0,-29,0,-39
-19,-78,-58,48,19,-68,39,14,0,-34,0,-39
-19,-78,-58,48,19,-68,39,19,0,-34,0,-39
-19,-73,-53,46,17,-63,43,19,0,-34,4,-39
0,-82,-82,41,41,-82,39,14,-4,-43,-9,-53
14,-82,-97,34,56,-90,24,0,-14,-53,-24,-68
43,-82,-126,19,85,-104,9,-4,-24,-58,-34,-73
58,-78,-136,9,97,-107,4,-9,-29,-58,-39,-73
24,-87,-112,31,68,-100,4,-4,-19,-39,-29,-58
4,-87,-92,41,48,-90,9,0,-19,-39,-19,-48
-14,-82,-68,48,26,-75,14,4,-14,-39,-14,-43
-48,-82,-34,65,-7,-58,19,9,-14,-39,-4,-34
-63,-78,-14,70,-24,-46,29,24,-9,-29,9,-29
-68,-73,-4,70,-31,-39,34,24,0,-24,14,-24
-73,-58,14,65,-43,-21,53,29,9,-14,24,-19
-73,-48,24,61,-48,-12,68,34,19,-9,34,-4
-63,-53,9,58,-36,-21,63,24,14,-9,29,-9
-43,-43,0,43,-21,-21,68,34,24,-9,24,-14
-19,-39,-19,29,0,-29,78,39,34,-4,19,-9
-9,-39,-29,24,9,-34,82,43,34,4,19,-14
-9,-39,-29,24,9,-34,78,48,34,4,24,-14
-9,-39,-29,24,9,-34,92,53,43,4,29,-14
-9,-39,-29,24,9,-34,102,53,43,9,34,-14
-4,-24,-19,14,7,-21,102,53,43,9,43,-14
0,-9,-9,4,4,-9,102,39,34,-4,39,-14
9,4,-4,-7,7,0,92,29,29,-4,34,-9
14,14,0,-14,7,7,68,14,19,-14,34,-4
29,19,-9,-24,19,4,39,-4,9,-14,29,-4
29,19,-9,-24,19,4,-9,-4,4,-9,39,0
53,14,-39,-34,46,-12,-53,-9,-14,-19,29,0
58,4,-53,-31,56,-24,-73,-9,-19,-19,29,0
58,-9,-68,-24,63,-39,-82,-14,-29,-34,24,0
58,-34,-92,-12,75,-63,-82,-19,-48,-34,24,-9
63,-48,-112,-7,87,-80,-68,-19,-53,-39,14,-19
58,-53,-112,-2,85,-82,-53,-14,-53,-43,9,-24
58,-63,-122,2,90,-92,-43,-14,-58,-48,9,-29
48,-73,-122,12,85,-97,-43,-14,-58,-58,0,-24
48,-73,-122,12,85,-97,-29,-14,-58,-58,0,-24
39,-63,-102,12,70,-82,-24,-14,-53,-58,0,-19
29,-63,-92,17,61,-78,-19,-14,-53,-58,0,-14
39,-73,-112,17,75,-92,-19,-34,-63,-68,-14,-19
34,-82,-117,24,75,-100,-19,-34,-63,-73,-14,-34
34,-87,-122,26,78,-104,-4,-34,-68,-78,-19,-43
34,-97,-131,31,82,-114,9,-34,-68,-82,-29,-58
14,-87,-102,36,58,-95,29,-34,-68,-78,-24,-63
-4,-92,-87,48,41,-90,39,-34,-68,-82,-34,-63
-24,-97,-73,61,24,-85,39,-34,-68,-82,-39,-68
-29,-102,-73,65,21,-87,48,-43,-78,-97,-48,-63
-43,-117,-73,80,14,-95,48,-39,-87,-92,-53,-78
-58,-122,-63,90,2,-92,48,-43,-87,-102,-63,-82
-68,-131,-63,100,-2,-97,48,-43,-82,-102,-63,-87
-73,-136,-63,104,-4,-100,48,-43,-78,-107,-63,-92
-82,-136,-53,109,-14,-95,58,-34,-87,-102,-58,-92
-78,-141,-63,109,-7,-102,58,-34,-87,-102,-58,-92
-78,-141,-63,109,-7,-102,58,-34,-87,-102,-58,-87
-73,-136,-63,104,-4,-100,58,-34,-92,-102,-68,-82
-63,-141,-78,102,7,-109,53,-43,-92,-112,-68,-97
-63,-141,-78,102,7,-109,48,-43,-87,-112,-68,-97
-78,-141,-63,109,-7,-102,43,-43,-87,-112,-73,-97
-78,-146,-68,112,-4,-107,43,-43,-92,-112,-73,-97
-58,-146,-87,102,14,-117,53,-43,-92,-117,-82,-107
-53,-141,-87,97,17,-114,53,-43,-92,-117,-82,-97
-48,-141,-92,95,21,-117,53,-39,-92,-112,-82,-97
-48,-141,-92,95,21,-117,53,-39,-92,-112,-82,-97
-73,-151,-78,112,2,-114,58,-39,-102,-122,-78,-107
-78,-156,-78,117,0,-117,58,-39,-97,-117,-78,-97
-78,-156,-78,117,0,-117,58,-34,-92,-117,-73,-97
-78,-156,-78,117,0,-117,58,-34,-92,-117,-73,-107
-73,-161,-87,117,7,-124,48,-43,-92,-122,-73,-117
-73,-161,-87,117,7,-124,48,-43,-92,-122,-73,-112
-73,-156,-82,114,4,-119,48,-43,-92,-117,-73,-112
-58,-156,-97,107,19,-126,48,-48,-92,-117,-73,-117
-48,-141,-92,95,21,-117,53,-39,-82,-107,-68,-117
-48,-136,-87,92,19,-112,58,-39,-82,-107,-68,-112
-48,-126,-78,87,14,-102,63,-39,-82,-107,-68,-107
-48,-122,-73,85,12,-97,68,-39,-82,-107,-68,-102
-58,-131,-73,95,7,-102,58,-39,-82,-102,-68,-97
-39,-131,-92,85,26,-112,68,-19,-73,-102,-58,-102
-53,-151,-97,102,21,-124,78,-14,-58,-92,-58,-102
-34,-156,-122,95,43,-139,78,0,-53,-87,-68,-102
-29,-151,-122,90,46,-136,82,24,-34,-78,-68,-117
-53,-185,-131,119,39,-158,92,63,4,-58,-78,-131
-73,-204,-131,139,29,-168,112,122,87,-9,-63,-141
-73,-195,-122,134,24,-158,151,195,195,82,-19,-126
-34,-175,-141,104,53,-158,175,283,326,214,68,-92
19,-151,-170,65,95,-161,190,361,448,351,161,-34
43,-136,-180,46,112,-158,180,405,527,468,253,14
68,-122,-190,26,129,-156,131,400,551,580,351,73
141,-34,-175,-53,158,-104,34,370,566,736,507,185
234,92,-141,-163,187,-24,-34,346,619,922,707,336
287,214,-73,-251,180,70,-87,263,595,1029,863,463
297,322,24,-309,136,173,-141,58,400,995,936,561
317,434,117,-375,100,275,-239,-214,82,902,990,658
351,556,204,-453,73,380,-390,-517,-297,780,1029,775
351,663,312,-507,19,488,-536,-795,-639,624,1029,839
312,736,424,-524,-56,580,-600,-1010,-912,390,936,849
248,775,527,-512,-139,651,-634,-1224,-1244,34,727,800
156,785,629,-470,-236,707,-692,-1527,-1634,-419,453,707
68,790,722,-429,-326,756,-732,-1786,-1986,-849,165,585
14,766,751,-390,-368,758,-751,-1947,-2235,-1229,-92,468
-24,644,668,-309,-346,656,-727,-1991,-2386,-1488,-292,336
-24,488,512,-231,-268,500,-683,-1942,-2415,-1595,-444,195
-19,390,409,-185,-214,400,-722,-1888,-2376,-1595,-522,92
-63,331,395,-134,-229,363,-795,-1825,-2264,-1512,-522,39
-131,253,385,-61,-258,319,-771,-1673,-2049,-1385,-497,-4
-161,146,307,7,-234,226,-649,-1459,-1800,-1229,-488,-63
-170,63,234,53,-202,148,-541,-1268,-1566,-1083,-458,-97
-195,39,234,78,-214,136,-429,-1068,-1293,-893,-375,-87
-209,29,239,90,-224,134,-307,-849,-995,-688,-302,-82
-170,24,195,73,-183,109,-224,-649,-746,-522,-234,-82
-97,0,97,48,-97,48,-161,-463,-527,-380,-180,-92
-82,-29,53,56,-68,12,-78,-302,-356,-268,-131,-92
-87,-43,43,65,-65,0,-19,-209,-248,-200,-102,-82
-97,-58,39,78,-68,-9,14,-151,-200,-161,-63,-63
-131,-92,39,112,-85,-26,48,-97,-141,-122,-34,-39
-117,-97,19,107,-68,-39,53,-73,-112,-107,-34,-39
-48,-97,-48,73,0,-73,43,-58,-82,-92,-43,-68
-24,-107,-82,65,29,-95,34,-43,-58,-73,-48,-82
-68,-112,-43,90,-12,-78,53,-14,-19,-48,-48,-78
-112,-117,-4,114,-53,-61,78,9,0,-24,-24,-63
-102,-107,-4,104,-48,-56,82,14,-4,-34,-19,-68
-82,-107,-24,95,-29,-65,87,19,-4,-39,-19,-73
-68,-112,-43,90,-12,-78,87,24,-9,-48,-24,-78
-53,-107,-53,80,0,-80,87,29,-9,-53,-29,-78
-48,-117,-68,82,9,-92,78,34,19,-48,-39,-78
-43,-122,-78,82,17,-100,78,39,34,-34,-39,-82
-43,-131,-87,87,21,-109,78,48,48,-14,-43,-87
-48,-141,-92,95,21,-117,78,58,58,-4,-43,-92
-43,-151,-107,97,31,-129,78,63,58,-4,-48,-102
-39,-151,-112,95,36,-131,78,63,53,-4,-48,-102
-24,-151,-126,87,51,-139,78,63,39,-4,-39,-97
-19,-141,-122,80,51,-131,78,68,43,-4,-34,-97
-29,-136,-107,82,39,-122,82,78,48,9,-24,-82
-34,-136,-102,85,34,-119,82,87,68,14,-24,-82
-39,-136,-97,87,29,-117,87,97,78,24,-19,-78
-43,-131,-87,87,21,-109,97,102,92,34,-14,-78
-58,-146,-87,102,14,-117,102,102,102,34,0,-68
-58,-146,-87,102,14,-117,102,102,102,34,0,-68
-58,-146,-87,102,14,-117,102,107,102,34,0,-68
-53,-141,-87,97,17,-114,102,112,102,39,0,-68
-29,-136,-107,82,39,-122,97,107,97,29,0,-73
-24,-136,-112,80,43,-124,87,107,107,29,-4,-73
-14,-136,-122,75,53,-129,82,112,117,43,-4,-78
-9,-131,-122,70,56,-126,78,117,122,53,-4,-82
-24,-131,-107,78,41,-119,87,131,131,63,4,-78
-24,-131,-107,78,41,-119,92,131,131,68,4,-73
-24,-131,-107,78,41,-119,102,131,131,73,4,-68
-19,-131,-112,75,46,-122,107,131,141,78,9,-58
0,-122,-122,61,61,-122,102,131,131,68,9,-63
14,-122,-136,53,75,-129,92,146,136,73,9,-68
14,-117,-131,51,73,-124,87,151,151,82,19,-73
9,-117,-126,53,68,-122,82,156,161,87,19,-78
-4,-126,-122,65,58,-124,92,161,175,97,24,-68
-9,-126,-117,68,53,-122,92,165,180,107,34,-63
0,-122,-122,61,61,-122,92,165,185,112,39,-58
-14,-122,-107,68,46,-114,92,170,190,117,43,-53
0,-112,-112,56,56,-112,82,161,185,112,39,-63
0,-112,-112,56,56,-112,92,170,200,122,43,-58
9,-107,-117,48,63,-112,92,180,214,126,48,-53
24,-102,-126,39,75,-114,92,185,219,136,53,-48
24,-107,-131,41,78,-119,92,204,224,156,58,-58
19,-107,-126,43,73,-117,87,204,234,161,63,-53
14,-112,-126,48,70,-119,87,209,244,165,68,-48
24,-126,-151,51,87,-139,87,214,253,175,73,-43
29,-117,-146,43,87,-131,78,219,263,180,87,-34
29,-112,-141,41,85,-126,73,224,268,190,92,-34
29,-112,-141,41,85,-126,73,229,283,200,102,-34
43,-112,-156,34,100,-134,73,239,287,214,102,-34
48,-97,-146,24,97,-122,82,244,312,234,112,-24
53,-82,-136,14,95,-109,82,253,326,248,122,-9
53,-78,-131,12,92,-104,82,258,336,258,131,-9
58,-68,-126,4,92,-97,82,273,346,268,141,0
58,-78,-136,9,97,-107,68,287,361,273,141,0
73,-73,-146,0,109,-109,68,287,370,278,146,4
78,-73,-151,-2,114,-112,73,302,380,292,156,9
78,-68,-146,-4,112,-107,73,302,395,302,170,14
78,-68,-146,-4,112,-107,73,312,409,312,161,24
78,-63,-141,-7,109,-102,63,326,429,331,175,29
87,-63,-151,-12,119,-107,58,326,434,336,185,29
102,-63,-165,-19,134,-114,58,341,453,351,195,34
122,-63,-185,-29,153,-124,53,336,458,356,190,29
136,-53,-190,-41,163,-122,48,346,463,366,195,29
151,-53,-204,-48,178,-129,43,346,468,380,209,29
165,-48,-214,-58,190,-131,34,361,478,395,219,29
146,-39,-185,-53,165,-112,48,380,497,414,248,43
117,-29,-146,-43,131,-87,53,390,522,434,258,58
87,-24,-112,-31,100,-68,48,400,541,453,273,73
58,-24,-82,-17,70,-53,53,405,551,468,278,87
68,-14,-82,-26,75,-48,48,395,551,463,283,97
78,-9,-87,-34,82,-48,43,400,556,468,287,97
82,-4,-87,-39,85,-46,43,405,561,473,287,107
82,-4,-87,-39,85,-46,39,405,561,478,292,112
87,-4,-92,-41,90,-48,29,414,570,483,292,117
97,0,-97,-48,97,-48,29,414,575,483,297,117
112,0,-112,-56,112,-56,29,409,575,483,302,122
117,0,-117,-58,117,-58,29,409,580,488,302,122
102,9,-92,-56,97,-41,24,409,570,492,302,122
102,14,-87,-58,95,-36,19,409,570,492,307,126
112,19,-92,-65,102,-36,19,405,570,492,307,126
122,19,-102,-70,112,-41,14,400,566,488,307,126
136,19,-117,-78,126,-48,4,395,551,483,297,117
136,19,-117,-78,126,-48,4,390,551,473,297,117
131,19,-112,-75,122,-46,0,385,546,468,297,117
136,19,-117,-78,126,-48,0,370,541,458,292,117
126,9,-117,-68,122,-53,9,375,546,463,302,122
126,9,-117,-68,122,-53,4,370,541,458,302,122
126,9,-117,-68,122,-53,4,356,531,453,302,117
136,4,-131,-70,134,-63,4,351,512,444,297,112
131,14,-117,-73,124,-51,4,346,512,444,297,122
131,14,-117,-73,124,-51,4,341,497,429,287,117
131,14,-117,-73,124,-51,4,322,483,409,283,112
122,14,-107,-68,114,-46,0,312,458,395,273,112
126,14,-112,-70,119,-48,-9,292,444,375,253,102
117,14,-102,-65,109,-43,-4,283,429,361,248,102
97,9,-87,-53,92,-39,-4,263,400,346,239,92
102,9,-92,-56,97,-41,-4,253,375,326,229,87
117,9,-107,-63,112,-48,0,229,356,302,209,73
131,0,-131,-65,131,-65,0,214,331,278,195,68
122,-4,-126,-58,124,-65,0,204,312,258,180,58
122,-9,-131,-56,126,-70,0,190,292,244,175,48
102,-14,-117,-43,109,-65,9,175,268,229,165,53
82,-29,-112,-26,97,-70,9,161,244,209,156,48
63,-34,-97,-14,80,-65,9,146,229,190,141,39
63,-39,-102,-12,82,-70,9,136,209,170,126,34
48,-29,-78,-9,63,-53,19,136,195,161,117,34
39,-39,-78,0,58,-58,24,126,180,151,112,24
29,-43,-73,7,51,-58,29,122,170,136,107,24
24,-53,-78,14,51,-65,34,112,151,122,102,19
19,-48,-68,14,43,-58,29,92,136,97,87,14
19,-53,-73,17,46,-63,34,87,122,82,78,4
9,-58,-68,24,39,-63,34,78,107,73,68,0
4,-63,-68,29,36,-65,34,68,92,58,63,-4
14,-73,-87,29,51,-80,34,48,78,53,58,-24
14,-78,-92,31,53,-85,34,43,63,39,43,-29
9,-87,-97,39,53,-92,43,43,58,34,43,-34
4,-87,-92,41,48,-90,48,39,48,29,34,-34
14,-78,-92,31,53,-85,39,34,39,14,19,-43
4,-78,-82,36,43,-80,43,34,39,9,19,-39
4,-82,-87,39,46,-85,43,29,39,4,14,-39
-4,-87,-82,46,39,-85,43,24,29,-9,14,-48
-4,-92,-87,48,41,-90,43,14,19,-19,9,-58
-4,-102,-97,53,46,-100,48,9,14,-19,4,-58
-4,-107,-102,56,48,-104,48,9,9,-19,0,-68
-4,-112,-107,58,51,-109,48,4,4,-19,-4,-73
0,-102,-102,51,51,-102,48,4,-4,-24,-4,-68
4,-97,-102,46,53,-100,48,4,-4,-24,-4,-68
9,-92,-102,41,56,-97,48,9,-4,-24,-4,-63
14,-87,-102,36,58,-95,48,9,-4,-34,-4,-63
14,-87,-102,36,58,-95,48,19,4,-34,-4,-53
19,-87,-107,34,63,-97,48,19,4,-34,-4,-53
19,-87,-107,34,63,-97,48,19,4,-29,-4,-63
24,-92,-117,34,70,-104,48,19,4,-29,-4,-63
14,-97,-112,41,63,-104,48,9,4,-34,-4,-63
4,-102,-107,48,56,-104,48,14,4,-34,-9,-68
0,-107,-107,53,53,-107,48,14,0,-34,-9,-68
0,-117,-117,58,58,-117,48,0,-4,-34,-9,-63
19,-107,-126,43,73,-117,39,9,-14,-43,-24,-68
19,-107,-126,43,73,-117,39,9,-9,-34,-24,-68
29,-107,-136,39,82,-122,34,9,-9,-34,-19,-73
39,-102,-141,31,90,-122,29,9,-4,-29,-19,-78
63,-97,-161,17,112,-129,19,4,-14,-29,-24,-78
73,-97,-170,12,122,-134,29,4,-9,-34,-24,-82
78,-97,-175,9,126,-136,29,9,-9,-34,-24,-87
82,-97,-180,7,131,-139,29,14,-9,-39,-24,-92
53,-82,-136,14,95,-109,34,24,4,-29,-14,-73
29,-82,-112,26,70,-97,39,29,9,-19,-4,-68
4,-82,-87,39,46,-85,43,34,19,-9,4,-63
-9,-78,-68,43,29,-73,48,39,24,0,19,-48
-14,-92,-78,53,31,-85,58,39,34,9,29,-48
-24,-97,-73,61,24,-85,53,39,34,9,29,-48
-34,-102,-68,68,17,-85,53,43,24,4,19,-48
-39,-107,-68,73,14,-87,53,43,24,4,29,-48
-29,-102,-73,65,21,-87,43,34,14,4,24,-48
-24,-102,-78,63,26,-90,43,34,14,9,19,-58
-14,-102,-87,58,36,-95,48,34,19,4,19,-58
-4,-97,-92,51,43,-95,48,34,19,4,14,-58
4,-97,-102,46,53,-100,43,24,19,-4,4,-63
14,-92,-107,39,61,-100,43,24,14,-4,4,-63
24,-92,-117,34,70,-104,43,24,14,-9,4,-63
34,-102,-136,34,85,-119,43,24,14,-14,4,-58
39,-102,-141,31,90,-122,34,19,4,-14,4,-68
43,-97,-141,26,92,-119,34,19,4,-9,4,-68
43,-97,-141,26,92,-119,34,24,9,-9,4,-68
39,-97,-136,29,87,-117,29,24,9,-9,4,-63
68,-87,-156,9,112,-122,29,19,4,-14,-4,-68
39,-92,-131,26,85,-112,39,19,4,-14,-4,-68
4,-102,-107,48,56,-104,48,29,9,-4,0,-58
-14,-87,-73,51,29,-80,58,39,29,4,24,-43
-19,-78,-58,48,19,-68,68,48,39,9,29,-29
-9,-82,-73,46,31,-78,63,43,34,0,19,-39
-9,-87,-78,48,34,-82,58,39,29,0,19,-39
-9,-92,-82,51,36,-87,53,34,24,0,19,-39
-9,-97,-87,53,39,-92,48,29,19,0,19,-39
9,-87,-97,39,53,-92,48,24,9,-14,9,-43
9,-87,-97,39,53,-92,48,24,9,-14,9,-48
9,-87,-97,39,53,-92,48,29,9,-9,9,-53
9,-82,-92,36,51,-87,53,29,9,-4,14,-58
14,-92,-107,39,61,-100,53,29,0,-14,4,-48
14,-92,-107,39,61,-100,43,19,-4,-24,-4,-58
29,-92,-122,31,75,-107,34,19,-9,-29,-9,-58
29,-87,-117,29,73,-102,34,19,-9,-29,-9,-53
14,-97,-112,41,63,-104,19,9,-9,-19,-4,-58
14,-97,-112,41,63,-104,19,9,-9,-19,0,-58
14,-92,-107,39,61,-100,19,9,-4,-19,0,-63
0,-92,-92,46,46,-92,19,9,-4,-19,4,-63
4,-92,-97,43,51,-95,19,4,-9,-19,0,-73
9,-92,-102,41,56,-97,14,4,-9,-24,-4,-73
14,-82,-97,34,56,-90,24,9,-9,-24,-4,-73
24,-78,-102,26,63,-90,29,14,-9,-29,-4,-63
14,-63,-78,24,46,-70,39,19,0,-14,14,-53
24,-53,-78,14,51,-65,48,34,14,-9,14,-53
39,-48,-87,4,63,-68,63,43,29,0,14,-43
39,-48,-87,4,63,-68,73,53,34,14,19,-43
43,-48,-92,2,68,-70,87,58,43,14,29,-34
48,-48,-97,0,73,-73,102,63,53,14,29,-34
53,-48,-102,-2,78,-75,112,63,53,19,29,-34
63,-34,-97,-14,80,-65,112,63,53,19,34,-34
48,-34,-82,-7,65,-58,102,58,43,14,24,-43
48,-24,-73,-12,61,-48,92,48,39,14,24,-39
43,-19,-63,-12,53,-41,68,34,29,4,29,-34
48,-19,-68,-14,58,-43,39,14,19,4,29,-34
58,-19,-78,-19,68,-48,-9,-4,4,0,39,-19
82,-24,-107,-29,95,-65,-53,-9,-14,-9,29,-19
87,-34,-122,-26,104,-78,-73,-9,-19,-9,29,-19
87,-48,-136,-19,112,-92,-82,-14,-29,-24,24,-19
87,-53,-141,-17,114,-97,-92,-19,-39,-24,14,-29
92,-68,-161,-12,126,-114,-78,-19,-43,-29,4,-39
87,-73,-161,-7,124,-117,-63,-14,-43,-34,0,-43
87,-82,-170,-2,129,-126,-53,-14,-48,-39,0,-48
92,-82,-175,-4,134,-129,-34,-4,-48,-39,0,-43
97,-82,-180,-7,139,-131,-19,-4,-48,-39,0,-43
92,-73,-165,-9,129,-119,-14,-4,-43,-39,0,-39
87,-73,-161,-7,124,-117,-9,-4,-43,-39,0,-34
82,-82,-165,0,124,-124,-14,-24,-53,-39,-4,-43
63,-92,-156,14,109,-124,-19,-24,-53,-43,-4,-53
48,-97,-146,24,97,-122,-9,-24,-58,-48,-9,-58
34,-107,-141,36,87,-124,0,-24,-58,-53,-19,-68
4,-117,-122,56,63,-119,14,-14,-58,-48,-14,-68
-14,-122,-107,68,46,-114,29,-14,-58,-53,-24,-73
-34,-126,-92,80,29,-109,34,-14,-58,-53,-29,-82
-39,-131,-92,85,26,-112,48,-24,-68,-68,-39,-82
-34,-131,-97,82,31,-114,39,-39,-73,-82,-53,-87
-39,-131,-92,85,26,-112,39,-43,-78,-92,-63,-92
-39,-136,-97,87,29,-117,39,-43,-78,-92,-63,-97
-34,-136,-102,85,34,-119,39,-43,-78,-97,-63,-102
-43,-156,-112,100,34,-134,48,-34,-87,-102,-68,-117
-39,-161,-122,100,41,-141,48,-34,-87,-102,-68,-122
-39,-161,-122,100,41,-141,48,-34,-87,-102,-68,-122
-34,-156,-122,95,43,-139,48,-34,-92,-102,-78,-122
-34,-161,-126,97,46,-143,48,-34,-92,-102,-68,-126
-34,-161,-126,97,46,-143,48,-34,-87,-102,-68,-126
-48,-161,-112,104,31,-136,48,-34,-87,-102,-73,-126
-48,-165,-117,107,34,-141,53,-34,-92,-102,-73,-126
-29,-156,-126,92,48,-141,53,-34,-102,-107,-73,-136
-24,-151,-126,87,51,-139,53,-34,-102,-107,-73,-126
-19,-151,-131,85,56,-141,53,-29,-102,-102,-73,-126
-19,-151,-131,85,56,-141,53,-29,-102,-102,-73,-126
-19,-136,-117,78,48,-126,68,-29,-97,-92,-68,-117
-19,-136,-117,78,48,-126,68,-29,-87,-87,-68,-107
-14,-131,-117,73,51,-124,68,-24,-78,-87,-63,-107
-9,-126,-117,68,53,-122,68,-24,-73,-87,-63,-117
-4,-141,-136,73,65,-139,53,-39,-87,-107,-78,-131
-4,-151,-146,78,70,-148,48,-43,-92,-112,-82,-131
-4,-156,-151,80,73,-153,43,-48,-97,-112,-87,-136
9,-165,-175,78,92,-170,39,-58,-102,-117,-92,-146
24,-165,-190,70,107,-178,29,-68,-112,-126,-97,-161
29,-165,-195,68,112,-180,29,-68,-112,-126,-97,-161
34,-161,-195,63,114,-178,29,-68,-112,-126,-97,-161
39,-161,-200,61,119,-180,29,-68,-112,-126,-97,-161
29,-141,-170,56,100,-156,39,-48,-102,-122,-97,-156
68,-141,-209,36,139,-175,19,-68,-122,-131,-117,-180
92,-141,-234,24,163,-187,19,-63,-117,-131,-117,-190
43,-156,-200,56,122,-178,48,-19,-82,-107,-97,-170
-39,-161,-122,100,41,-141,73,24,-34,-68,-68,-136
-112,-146,-34,129,-39,-90,122,92,43,-9,-19,-92
-170,-156,14,163,-92,-70,170,170,146,58,14,-82
-151,-175,-24,163,-63,-100,190,224,234,122,29,-97
-102,-175,-73,139,-14,-124,185,302,326,214,68,-102
-39,-151,-112,95,36,-131,190,370,439,341,141,-63
14,-126,-141,56,78,-134,190,424,517,468,234,-14
29,-122,-151,46,90,-136,170,439,561,580,331,43
82,-73,-156,-4,119,-114,92,390,566,707,458,126
175,4,-170,-90,173,-82,-14,356,600,873,629,239
248,107,-141,-178,195,-17,-78,312,614,1010,795,366
297,234,-63,-265,180,85,-122,156,478,1034,897,473
326,366,39,-346,143,202,-200,-117,190,951,951,580
341,478,136,-409,102,307,-331,-458,-219,800,980,678
370,605,234,-488,68,419,-497,-785,-610,653,1010,771
380,707,326,-544,26,517,-600,-1010,-893,488,966,810
336,766,429,-551,-46,597,-634,-1205,-1166,209,824,790
244,785,541,-514,-148,663,-663,-1468,-1507,-185,600,727
146,780,634,-463,-244,707,-712,-1766,-1869,-634,322,614
53,766,712,-409,-329,739,-751,-1986,-2156,-1044,53,497
14,702,688,-358,-336,695,-756,-2088,-2357,-1371,-185,375
-14,575,590,-280,-302,583,-722,-2078,-2454,-1546,-366,253
-58,439,497,-190,-278,468,-702,-2005,-2435,-1576,-453,141
-102,361,463,-129,-283,412,-756,-1932,-2332,-1503,-483,78
-151,312,463,-80,-307,387,-790,-1800,-2156,-1385,-458,34
-190,214,405,-12,-297,309,-697,-1595,-1898,-1249,-439,-34
-190,122,312,34,-251,217,-570,-1385,-1644,-1102,-419,-97
-156,68,224,43,-190,146,-488,-1195,-1381,-951,-395,-146
-131,58,190,36,-161,124,-395,-985,-1122,-785,-351,-161
-131,43,175,43,-153,109,-283,-766,-854,-600,-292,-161
-136,29,165,53,-151,97,-190,-541,-614,-429,-219,-141
-102,9,112,46,-107,61,-97,-361,-405,-278,-151,-141
-68,-24,43,46,-56,9,-39,-248,-278,-190,-122,-141
-48,-58,-9,53,-19,-34,-4,-200,-209,-161,-92,-141
-43,-92,-48,68,2,-70,9,-136,-161,-131,-63,-117
-29,-97,-68,63,19,-82,14,-92,-122,-107,-53,-97
0,-87,-87,43,43,-87,4,-78,-102,-112,-63,-107
4,-78,-82,36,43,-80,4,-63,-68,-92,-68,-122
-29,-82,-53,56,12,-68,24,-34,-29,-48,-48,-117
-53,-87,-34,70,-9,-61,48,0,0,-24,-43,-102
-43,-97,-53,70,4,-75,73,4,-4,-29,-43,-112
-34,-107,-73,70,19,-90,78,9,-4,-29,-39,-112
-29,-122,-92,75,31,-107,78,14,-9,-34,-39,-112
-24,-126,-102,75,39,-114,78,19,-9,-34,-39,-107
-9,-146,-136,78,63,-141,68,34,9,-34,-39,-107
-4,-151,-146,78,70,-148,68,39,24,-24,-39,-112
-4,-161,-156,82,75,-158,68,48,39,-9,-43,-117
-9,-170,-161,90,75,-165,68,58,48,-4,-43,-122
-19,-170,-151,95,65,-161,87,73,63,4,-39,-112
-19,-170,-151,95,65,-161,87,73,63,4,-39,-112
-9,-170,-161,90,75,-165,87,73,53,4,-29,-107
-9,-161,-151,85,70,-156,87,78,63,4,-24,-107
-4,-161,-156,82,75,-158,87,78,53,4,-34,-112
-4,-165,-161,85,78,-163,82,87,68,4,-34,-112
-4,-170,-165,87,80,-168,82,97,73,9,-29,-107
-4,-170,-165,87,80,-168,87,102,82,14,-24,-107
0,-170,-170,85,85,-170,92,112,92,19,-9,-107
0,-165,-165,82,82,-165,92,112,92,24,-9,-107
0,-161,-161,80,80,-161,92,117,92,29,-9,-107
4,-151,-156,73,80,-153,92,122,92,39,-9,-107
4,-156,-161,75,82,-158,102,112,97,39,-4,-97
4,-156,-161,75,82,-158,97,117,107,39,-4,-92
9,-156,-165,73,87,-161,97,126,117,53,0,-92
9,-151,-161,70,85,-156,97,136,122,63,4,-92
14,-151,-165,68,90,-158,92,141,131,63,4,-107
14,-151,-165,68,90,-158,92,141,131,68,4,-112
14,-151,-165,68,90,-158,97,141,131,73,4,-117
19,-151,-170,65,95,-161,97,141,141,78,9,-117
19,-141,-161,61,90,-151,97,141,141,78,9,-107
34,-141,-175,53,104,-158,92,156,146,82,9,-107
34,-136,-170,51,102,-153,92,161,161,92,19,-107
29,-136,-165,53,97,-151,92,165,170,97,19,-107
19,-141,-161,61,90,-151,82,170,175,107,24,-102
19,-146,-165,63,92,-156,82,175,180,117,34,-92
34,-146,-180,56,107,-163,82,175,185,122,39,-82
24,-151,-175,63,100,-163,82,180,190,126,43,-73
24,-161,-185,68,104,-173,73,170,190,126,43,-82
19,-161,-180,70,100,-170,82,180,200,131,43,-78
24,-156,-180,65,102,-168,82,190,209,131,43,-73
34,-151,-185,58,109,-168,82,195,209,136,43,-68
48,-131,-180,41,114,-156,92,214,219,151,58,-58
48,-117,-165,34,107,-141,87,214,234,161,63,-53
48,-107,-156,29,102,-131,87,219,248,170,68,-48
63,-107,-170,21,117,-139,87,224,263,185,73,-43
58,-107,-165,24,112,-136,87,229,273,190,78,-53
48,-102,-151,26,100,-126,82,234,278,200,82,-53
39,-102,-141,31,90,-122,82,239,292,209,92,-53
43,-102,-146,29,95,-124,82,248,297,224,92,-53
53,-102,-156,24,104,-129,73,253,302,224,97,-63
53,-92,-146,19,100,-119,73,263,317,239,102,-48
48,-92,-141,21,95,-117,73,268,326,248,107,-48
48,-87,-136,19,92,-112,73,283,336,258,112,-39
39,-97,-136,29,87,-117,68,292,356,283,126,-14
53,-92,-146,19,100,-119,68,297,370,287,136,-4
58,-92,-151,17,104,-122,73,317,385,302,151,4
58,-87,-146,14,102,-117,73,322,405,312,170,14
63,-78,-141,7,102,-109,73,322,414,322,170,19
68,-73,-141,2,104,-107,63,336,429,341,185,19
82,-73,-156,-4,119,-114,58,336,429,346,195,14
102,-73,-175,-14,139,-124,58,351,444,361,204,14
117,-68,-185,-24,151,-126,48,356,453,366,195,19
117,-53,-170,-31,143,-112,48,366,463,375,195,19
117,-48,-165,-34,141,-107,48,366,473,390,204,19
117,-39,-156,-39,136,-97,43,380,488,405,209,19
136,-34,-170,-51,153,-102,43,375,488,414,214,14
136,-29,-165,-53,151,-97,43,380,502,424,219,19
136,-29,-165,-53,151,-97,34,385,512,434,229,24
136,-34,-170,-51,153,-102,34,385,512,439,229,29
131,-24,-156,-53,143,-90,39,390,527,453,248,43
126,-19,-146,-53,136,-82,34,400,536,458,258,48
117,-14,-131,-51,124,-73,34,409,546,463,263,63
102,-14,-117,-43,109,-65,29,414,551,468,273,73
102,-19,-122,-41,112,-70,39,424,561,483,283,82
107,-19,-126,-43,117,-73,39,424,566,483,287,87
117,-24,-141,-46,129,-82,39,419,566,483,292,97
117,-29,-146,-43,131,-87,39,419,570,488,292,102
126,-4,-131,-61,129,-68,24,409,561,492,302,107
131,4,-126,-68,129,-61,19,409,561,492,307,107
146,14,-131,-80,139,-58,19,405,561,492,307,102
161,19,-141,-90,151,-61,14,400,556,488,307,97
151,19,-131,-85,141,-56,14,390,561,488,297,107
146,19,-126,-82,136,-53,14,390,561,483,297,107
136,19,-117,-78,126,-48,9,390,556,483,297,107
136,19,-117,-78,126,-48,9,380,551,478,292,107
136,19,-117,-78,126,-48,9,380,546,473,302,122
136,19,-117,-78,126,-48,4,380,541,468,302,122
136,19,-117,-78,126,-48,4,370,531,463,302,117
146,14,-131,-80,139,-58,4,370,512,453,297,112
146,24,-122,-85,134,-48,14,356,512,448,297,112
141,24,-117,-82,129,-46,14,351,497,439,287,107
136,24,-112,-80,124,-43,14,331,483,424,283,102
122,24,-97,-73,109,-36,9,322,458,414,273,102
117,14,-102,-65,109,-43,9,312,448,405,273,92
107,14,-92,-61,100,-39,14,302,439,390,268,92
87,9,-78,-48,82,-34,14,283,414,375,258,82
92,9,-82,-51,87,-36,14,273,395,356,248,78
92,14,-78,-53,85,-31,9,248,375,331,234,63
102,9,-92,-56,97,-41,9,234,351,307,214,58
87,9,-78,-48,82,-34,9,224,331,287,195,48
82,9,-73,-46,78,-31,9,209,312,273,185,39
63,4,-58,-34,61,-26,19,204,287,239,156,39
53,-9,-63,-21,58,-36,19,190,263,219,146,39
43,-14,-58,-14,51,-36,19,175,248,200,131,34
53,-19,-73,-17,63,-46,19,165,229,180,117,34
63,-24,-87,-19,75,-56,24,141,209,175,107,29
58,-39,-97,-9,78,-68,24,126,190,161,102,14
53,-48,-102,-2,78,-75,24,117,175,141,97,9
53,-63,-117,4,85,-90,24,102,151,122,92,0
53,-68,-122,7,87,-95,29,92,136,97,68,4
58,-73,-131,7,95,-102,34,87,122,82,58,-4
53,-78,-131,12,92,-104,34,78,107,73,48,-9
53,-82,-136,14,95,-109,34,68,92,58,43,-14
39,-78,-117,19,78,-97,34,58,78,53,48,-24
34,-78,-112,21,73,-95,34,53,63,39,34,-29
24,-82,-107,29,65,-95,43,53,58,34,34,-34
14,-78,-92,31,53,-85,48,48,48,29,24,-34
0,-87,-87,43,43,-87,58,53,39,19,19,-34
-24,-87,-63,56,19,-75,63,53,39,19,19,-29
-39,-92,-53,65,7,-73,63,48,39,19,14,-29
-63,-97,-34,80,-14,-65,63,43,29,9,14,-39
-58,-107,-48,82,-4,-78,53,39,19,-9,0,-53
-53,-112,-58,82,2,-85,58,29,14,-9,-4,-58
-48,-112,-63,80,7,-87,58,24,9,-9,-9,-73
-43,-112,-68,78,12,-90,58,14,4,-9,-14,-82
-39,-102,-63,70,12,-82,58,14,4,-24,-4,-82
-34,-97,-63,65,14,-80,58,14,4,-24,-4,-78
-29,-92,-63,61,17,-78,58,19,4,-24,-4,-68
-24,-87,-63,56,19,-75,58,19,4,-34,-4,-63
-34,-102,-68,68,17,-85,48,19,-4,-43,-14,-53
-29,-107,-78,68,24,-92,48,19,-4,-43,-14,-53
-29,-112,-82,70,26,-97,48,19,-4,-39,-14,-63
-24,-122,-97,73,36,-109,48,19,-4,-39,-14,-63
-14,-131,-117,73,51,-124,48,9,-4,-34,-14,-73
-14,-131,-117,73,51,-124,48,14,-4,-34,-19,-78
-9,-131,-122,70,56,-126,48,14,-9,-34,-19,-78
0,-136,-136,68,68,-136,48,0,-14,-34,-19,-73
-9,-126,-117,68,53,-122,58,9,-14,-43,-34,-82
-19,-117,-97,68,39,-107,58,9,-9,-34,-34,-78
-19,-107,-87,63,34,-97,53,9,-9,-34,-29,-78
-19,-92,-73,56,26,-82,48,9,-4,-29,-29,-78
-24,-82,-58,53,17,-70,48,24,4,-24,-19,-73
-24,-78,-53,51,14,-65,58,24,9,-24,-14,-73
-29,-73,-43,51,7,-58,58,29,9,-19,-9,-73
-34,-68,-34,51,0,-51,58,34,9,-19,-4,-73
-39,-68,-29,53,-4,-48,68,48,19,-9,-14,-58
-39,-73,-34,56,-2,-53,68,48,19,-9,-14,-58
-39,-78,-39,58,0,-58,68,48,24,-9,-14,-58
-29,-78,-48,53,9,-63,68,48,24,-9,-9,-48
-24,-82,-58,53,17,-70,58,43,24,-19,-19,-58
-24,-87,-63,56,19,-75,53,39,24,-19,-19,-58
-24,-92,-68,58,21,-80,53,39,14,-24,-29,-58
-19,-97,-78,58,29,-87,53,34,14,-24,-19,-58
-19,-97,-78,58,29,-87,43,24,14,-19,-9,-53
-24,-102,-78,63,26,-90,43,24,14,-9,-9,-58
-24,-107,-82,65,29,-95,48,24,19,-9,-4,-53
-24,-107,-82,65,29,-95,48,24,19,-4,-4,-48
-19,-97,-78,58,29,-87,53,24,9,-4,-4,-58
-14,-92,-78,53,31,-85,53,24,4,-4,-4,-63
-9,-92,-82,51,36,-87,53,24,4,-9,-4,-68
-4,-102,-97,53,46,-100,53,24,4,-14,-4,-68
24,-92,-117,34,70,-104,39,9,-4,-19,-19,-82
43,-87,-131,21,87,-109,34,9,-4,-19,-24,-87
58,-87,-146,14,102,-117,29,14,0,-24,-29,-92
68,-87,-156,9,112,-122,19,14,0,-29,-34,-92
0,-78,-78,39,39,-78,58,39,14,-4,4,-48
-78,-82,-4,80,-36,-43,78,48,24,14,14,-39
-112,-92,19,102,-65,-36,87,58,29,24,19,-29
-112,-97,14,104,-63,-41,87,58,48,34,24,-34
-97,-87,9,92,-53,-39,78,48,39,19,19,-29
