I,II,III,aVR,aVL,aVF,V1,V2,V3,V4,V5,V6
-302,-366,-64,334,-119,-215,-82,-146,-92,-175,-253,-244
-296,-369,-73,332,-111,-221,-80,-143,-86,-174,-251,-243
-292,-384,-92,338,-100,-238,-78,-141,-82,-174,-252,-243
-287,-401,-114,344,-86,-257,-75,-138,-79,-175,-254,-244
-283,-409,-126,346,-78,-267,-73,-136,-78,-175,-253,-244
-277,-399,-122,338,-77,-260,-72,-135,-78,-171,-246,-241
-273,-380,-107,326,-83,-243,-72,-135,-78,-165,-239,-239
-270,-359,-89,314,-90,-224,-73,-136,-75,-157,-233,-236
-268,-346,-78,307,-95,-212,-73,-136,-73,-151,-229,-234
-265,-343,-78,304,-93,-210,-72,-133,-70,-149,-225,-231
-263,-345,-82,304,-90,-213,-73,-131,-68,-150,-224,-229
-261,-346,-85,303,-88,-215,-72,-128,-65,-153,-224,-228
-258,-345,-87,301,-85,-216,-72,-126,-63,-155,-224,-229
-251,-347,-96,299,-77,-221,-73,-121,-62,-156,-220,-227
-244,-350,-106,297,-69,-228,-73,-117,-62,-156,-214,-224
-238,-355,-117,296,-60,-236,-72,-113,-63,-153,-206,-216
-234,-356,-122,295,-56,-239,-72,-112,-63,-151,-200,-209
-231,-350,-119,290,-56,-234,-76,-111,-62,-150,-198,-205
-229,-341,-112,285,-58,-226,-81,-111,-62,-151,-199,-204
-226,-331,-105,278,-60,-218,-87,-112,-63,-149,-200,-203
-224,-326,-102,275,-61,-214,-91,-112,-63,-146,-200,-204
-221,-324,-103,272,-59,-213,-94,-109,-60,-139,-196,-203
-219,-325,-106,272,-56,-215,-96,-107,-58,-131,-190,-200
-218,-326,-108,272,-55,-217,-99,-107,-55,-122,-181,-194
-218,-326,-108,272,-55,-217,-101,-107,-53,-117,-175,-190
-219,-322,-103,270,-58,-212,-102,-104,-50,-116,-174,-189
-219,-317,-98,268,-60,-207,-102,-102,-48,-116,-175,-190
-219,-311,-92,265,-63,-201,-102,-102,-45,-116,-172,-188
-219,-307,-88,263,-65,-197,-102,-102,-43,-116,-170,-185
-218,-306,-88,262,-65,-197,-99,-97,-40,-119,-169,-182
-218,-306,-88,262,-65,-197,-97,-92,-39,-121,-169,-180
-219,-306,-87,262,-66,-196,-94,-87,-36,-121,-171,-176
-219,-306,-87,262,-66,-196,-92,-82,-34,-121,-174,-174
-214,-309,-95,261,-59,-202,-90,-71,-28,-124,-180,-178
-209,-316,-107,262,-51,-211,-87,-58,-19,-126,-184,-184
-204,-329,-125,266,-39,-227,-80,-43,-3,-123,-185,-193
-200,-340,-140,270,-30,-240,-73,-29,13,-117,-185,-199
-194,-347,-153,270,-20,-250,-67,-14,28,-109,-184,-202
-190,-350,-160,270,-15,-255,-63,-4,38,-97,-180,-203
-187,-352,-165,269,-11,-258,-58,0,47,-78,-169,-204
-185,-351,-166,268,-9,-258,-57,-3,57,-53,-151,-204
-180,-342,-162,261,-9,-252,-64,-12,70,-20,-125,-198
-175,-331,-156,253,-9,-243,-77,-28,77,13,-92,-185
-169,-318,-149,243,-10,-233,-96,-55,77,48,-50,-160
-161,-302,-141,231,-10,-221,-116,-81,91,96,0,-126
-146,-277,-131,211,-7,-204,-136,-97,137,168,59,-84
-131,-244,-113,187,-9,-178,-155,-116,174,247,130,-34
-117,-204,-87,160,-15,-145,-179,-156,163,317,216,27
-102,-156,-54,129,-24,-105,-213,-213,126,399,334,120
-79,-98,-19,88,-30,-58,-264,-283,90,511,496,259
-53,-34,19,43,-36,-7,-325,-365,34,623,676,417
-27,28,55,0,-41,41,-386,-460,-78,686,842,566
-9,91,100,-41,-54,95,-447,-583,-318,650,974,710
0,153,153,-76,-76,153,-506,-740,-717,486,1068,860
8,218,210,-113,-101,214,-560,-895,-1133,280,1154,1022
23,288,265,-155,-121,276,-607,-1012,-1419,117,1264,1193
19,360,341,-189,-161,350,-643,-1092,-1613,-7,1374,1354
-27,428,455,-200,-241,441,-667,-1149,-1783,-124,1459,1486
-91,496,587,-202,-339,541,-687,-1204,-1950,-232,1526,1598
-143,566,709,-211,-426,637,-710,-1271,-2113,-332,1585,1699
-179,628,807,-224,-493,717,-731,-1336,-2257,-432,1619,1770
-203,672,875,-234,-539,773,-744,-1378,-2362,-545,1613,1796
-213,701,914,-244,-563,807,-750,-1399,-2429,-666,1576,1790
-213,715,928,-251,-570,821,-753,-1400,-2460,-793,1502,1757
-223,697,920,-237,-571,808,-732,-1366,-2444,-938,1297,1636
-260,632,892,-186,-576,762,-674,-1287,-2371,-1109,883,1376
-306,532,838,-113,-572,685,-596,-1181,-2250,-1275,358,1033
-340,414,754,-37,-547,584,-519,-1068,-2096,-1403,-145,681
-360,284,644,38,-502,464,-445,-947,-1914,-1467,-531,355
-368,150,518,109,-443,334,-371,-817,-1713,-1457,-743,76
-370,25,395,172,-382,210,-302,-689,-1514,-1400,-842,-138
-368,-76,292,222,-330,108,-243,-578,-1337,-1326,-905,-280
-356,-150,206,253,-281,28,-195,-479,-1173,-1230,-922,-355
-329,-197,132,263,-230,-32,-161,-386,-1009,-1109,-873,-377
-302,-228,74,265,-188,-77,-141,-307,-856,-981,-796,-375
-288,-256,32,272,-160,-112,-132,-254,-726,-869,-732,-374
-278,-282,-4,280,-137,-143,-126,-219,-615,-772,-678,-375
-259,-307,-48,283,-105,-177,-112,-195,-516,-683,-624,-371
-239,-325,-86,282,-76,-205,-97,-175,-425,-596,-570,-361
-225,-333,-108,279,-58,-220,-85,-152,-340,-504,-519,-342
-214,-331,-117,272,-48,-224,-78,-126,-259,-415,-473,-322
-199,-323,-124,261,-37,-223,-73,-99,-179,-337,-432,-307
-185,-317,-132,251,-26,-224,-68,-73,-108,-273,-395,-297
-175,-317,-142,246,-16,-229,-56,-49,-51,-227,-361,-287
-170,-317,-147,243,-11,-232,-43,-29,-9,-190,-331,-278
-166,-310,-144,238,-11,-227,-32,-13,19,-156,-307,-269
-164,-302,-138,233,-13,-220,-24,0,38,-126,-287,-263
-165,-299,-134,232,-15,-216,-16,11,52,-101,-269,-259
-165,-297,-132,231,-16,-214,-9,18,62,-87,-258,-258
-159,-290,-131,224,-14,-210,-2,17,72,-84,-256,-255
-151,-283,-132,217,-9,-207,3,14,81,-86,-257,-253
-144,-277,-133,210,-5,-205,9,14,92,-86,-256,-252
-141,-273,-132,207,-4,-202,13,18,101,-82,-253,-253
-140,-270,-130,205,-5,-200,16,23,105,-75,-248,-251
-140,-268,-128,204,-6,-198,18,28,106,-68,-244,-248
-141,-266,-125,203,-8,-195,21,33,108,-62,-242,-245
-140,-263,-123,201,-8,-193,23,34,111,-58,-239,-244
-141,-258,-117,199,-12,-187,24,27,120,-55,-232,-243
-141,-253,-112,197,-14,-182,23,19,130,-53,-224,-244
-138,-249,-111,193,-13,-180,25,15,141,-51,-218,-243
-136,-248,-112,192,-12,-180,28,18,150,-48,-214,-243
-134,-246,-112,190,-11,-179,31,31,157,-42,-209,-246
-135,-244,-109,189,-13,-176,33,47,160,-34,-204,-247
-138,-239,-101,188,-18,-170,36,60,163,-24,-198,-246
-136,-234,-98,185,-19,-166,38,67,164,-19,-195,-244
-126,-231,-105,178,-10,-168,39,69,166,-22,-194,-243
-117,-229,-112,173,-2,-170,39,68,169,-28,-194,-243
-117,-225,-108,171,-4,-166,38,67,174,-30,-195,-244
-121,-223,-102,172,-9,-162,39,68,179,-29,-195,-244
-122,-226,-104,174,-9,-165,38,67,186,-28,-190,-242
-121,-228,-107,174,-7,-167,38,67,194,-24,-185,-239
-123,-228,-105,175,-9,-166,40,70,202,-13,-179,-233
-122,-224,-102,173,-10,-163,42,72,208,-4,-175,-229
-112,-219,-107,165,-2,-163,43,73,212,-2,-172,-227
-102,-214,-112,158,5,-163,43,72,213,-4,-170,-228
-99,-209,-110,154,5,-159,42,74,216,-1,-167,-231
-101,-204,-103,152,1,-153,43,77,223,3,-165,-233
-102,-196,-94,149,-4,-145,42,83,235,9,-164,-234
-102,-190,-88,146,-7,-139,42,86,247,13,-165,-233
-99,-186,-87,142,-6,-136,44,86,253,16,-163,-235
-97,-185,-88,141,-4,-136,47,86,257,18,-161,-234
-94,-182,-88,138,-3,-135,50,91,265,23,-158,-228
-92,-180,-88,136,-2,-134,52,96,272,28,-156,-224
-89,-177,-88,133,0,-132,53,96,278,32,-155,-227
-87,-175,-88,131,0,-131,53,96,282,33,-156,-233
-84,-172,-88,128,2,-130,52,103,290,34,-154,-237
-82,-170,-88,126,3,-129,52,111,301,38,-151,-238
-79,-167,-88,123,4,-127,53,118,315,52,-148,-241
-78,-165,-87,121,4,-126,53,121,325,67,-146,-243
-77,-160,-83,118,3,-121,52,122,329,76,-145,-244
-77,-156,-79,116,1,-117,52,122,330,78,-145,-244
-78,-153,-75,115,-1,-114,53,121,337,76,-145,-243
-78,-151,-73,114,-2,-112,53,121,345,77,-145,-247
-77,-149,-72,113,-2,-110,51,124,353,85,-146,-257
-77,-150,-73,113,-2,-111,48,125,360,96,-146,-267
-78,-155,-77,116,0,-116,45,126,370,107,-144,-272
-78,-160,-82,119,2,-121,43,125,379,116,-141,-273
-75,-161,-86,118,5,-123,42,127,388,124,-138,-272
-73,-161,-88,117,7,-124,42,130,394,130,-136,-272
-72,-161,-89,116,8,-125,43,135,400,136,-134,-276
-72,-161,-89,116,8,-125,43,140,408,140,-135,-282
-73,-160,-87,116,7,-123,42,147,420,145,-139,-289
-73,-160,-87,116,7,-123,42,155,433,150,-145,-296
-73,-166,-93,119,10,-129,45,163,445,157,-151,-303
-73,-174,-101,123,14,-137,47,169,452,164,-151,-306
-72,-182,-110,127,19,-146,47,175,456,173,-142,-307
-72,-185,-113,128,20,-149,47,179,462,184,-131,-307
-73,-179,-106,126,16,-142,50,183,476,199,-124,-307
-73,-170,-97,121,12,-133,52,185,487,208,-122,-307
-68,-164,-96,116,14,-130,51,183,484,207,-121,-304
-63,-161,-98,112,17,-129,48,180,473,200,-121,-302
-59,-158,-99,108,20,-128,47,176,463,196,-124,-301
-58,-156,-98,107,20,-127,47,175,458,195,-125,-301
-57,-155,-98,106,20,-126,48,174,456,194,-126,-302
-57,-155,-98,106,20,-126,48,174,457,194,-126,-302
-58,-156,-98,107,20,-127,47,175,459,196,-125,-301
-58,-156,-98,107,20,-127,47,175,458,195,-125,-301
-57,-155,-98,106,20,-126,48,175,449,188,-126,-301
-57,-155,-98,106,20,-126,48,175,439,180,-126,-301
-58,-156,-98,107,20,-127,47,174,432,174,-124,-302
-58,-156,-98,107,20,-127,47,174,429,170,-122,-302
-57,-155,-98,106,20,-126,48,175,424,165,-120,-301
-57,-155,-98,106,20,-126,48,175,419,161,-117,-301
-58,-156,-98,107,20,-127,45,170,411,156,-109,-303
-58,-156,-98,107,20,-127,43,165,400,151,-106,-302
-57,-155,-98,106,20,-126,42,162,384,143,-118,-295
-57,-155,-98,106,20,-126,42,161,366,136,-135,-287
-58,-156,-98,107,20,-127,43,158,349,134,-147,-283
-58,-156,-98,107,20,-127,43,151,336,135,-151,-282
-57,-155,-98,106,20,-126,41,139,328,138,-145,-283
-57,-155,-98,106,20,-126,39,126,322,140,-136,-283
-59,-156,-97,107,19,-126,37,117,313,140,-129,-282
-62,-156,-94,109,16,-125,34,107,302,136,-126,-278
-65,-154,-89,109,12,-121,27,91,291,127,-125,-268
-67,-151,-84,109,8,-117,19,73,278,117,-126,-258
-68,-145,-77,106,4,-111,10,58,263,111,-124,-250
-68,-141,-73,104,2,-107,4,48,248,107,-122,-244
-67,-140,-73,103,3,-106,0,41,235,102,-122,-236
-67,-141,-74,104,3,-107,-3,34,224,97,-122,-229
-68,-138,-70,103,1,-104,-9,21,213,93,-119,-222
-68,-136,-68,102,0,-102,-13,9,200,87,-117,-219
-68,-137,-69,102,0,-103,-14,3,181,75,-118,-218
-68,-140,-72,104,2,-106,-14,0,161,58,-121,-218
-67,-141,-74,104,3,-107,-14,-4,145,39,-124,-219
-67,-141,-74,104,3,-107,-14,-8,136,24,-125,-219
-68,-140,-72,104,2,-106,-12,-9,132,17,-126,-214
-68,-141,-73,104,2,-107,-9,-9,131,14,-126,-209
-67,-140,-73,103,3,-106,-4,-8,128,10,-125,-204
-67,-140,-73,103,3,-106,0,-8,122,4,-125,-200
-70,-142,-72,106,1,-107,2,-9,109,-3,-127,-197
-72,-145,-73,108,0,-109,3,-9,97,-13,-130,-195
-74,-148,-74,111,0,-111,6,-8,90,-23,-136,-194
-73,-150,-77,111,2,-113,8,-8,87,-28,-140,-194
-70,-151,-81,110,5,-116,11,-9,82,-26,-142,-195
-68,-150,-82,109,7,-116,13,-9,78,-19,-141,-195
-67,-151,-84,109,8,-117,14,-8,75,-13,-140,-191
-68,-151,-83,109,7,-117,14,-8,73,-9,-140,-189
-66,-146,-80,106,7,-113,13,-10,71,-7,-143,-193
-63,-141,-78,102,7,-109,13,-13,68,-8,-145,-199
-57,-137,-80,97,11,-108,14,-16,63,-13,-146,-205
-53,-135,-82,94,14,-108,14,-18,58,-18,-146,-208
-51,-137,-86,94,17,-111,13,-19,54,-23,-145,-206
-52,-140,-88,96,18,-114,13,-18,53,-28,-145,-200
-56,-142,-86,99,15,-114,14,-19,52,-35,-146,-191
-57,-141,-84,99,13,-112,14,-19,52,-39,-146,-185
-56,-136,-80,96,12,-108,13,-17,53,-34,-145,-183
-53,-131,-78,92,12,-104,13,-14,53,-24,-145,-184
-50,-127,-77,88,13,-102,14,-11,50,-13,-146,-185
-48,-126,-78,87,15,-102,14,-9,48,-8,-146,-185
-45,-126,-81,85,18,-103,13,-6,48,-14,-141,-184
-43,-126,-83,84,20,-104,13,-4,52,-23,-136,-184
-42,-124,-82,83,20,-103,14,-1,58,-30,-133,-186
-43,-122,-79,82,18,-100,14,0,62,-33,-131,-185
-41,-119,-78,80,18,-98,12,0,63,-34,-125,-178
-39,-117,-78,78,19,-97,9,0,63,-33,-117,-170
-36,-114,-78,75,21,-96,6,0,62,-36,-110,-163
-34,-112,-78,73,22,-95,4,0,62,-38,-107,-161
-31,-109,-78,70,23,-93,2,3,63,-39,-106,-161
-29,-107,-78,68,24,-92,0,8,63,-39,-107,-161
-29,-104,-75,66,23,-89,-1,12,62,-37,-104,-156
-29,-102,-73,65,22,-87,-3,13,62,-34,-102,-151
-26,-99,-73,62,23,-86,-6,14,63,-30,-101,-147
-24,-97,-73,60,24,-85,-8,14,63,-24,-101,-146
-21,-95,-74,58,26,-84,-11,13,62,-16,-102,-145
-19,-92,-73,55,27,-82,-13,13,62,-9,-102,-145
-14,-87,-73,50,29,-80,-16,14,63,-7,-100,-146
-9,-82,-73,45,32,-77,-18,14,63,-8,-97,-146
-6,-77,-71,41,32,-74,-21,11,62,-9,-91,-143
-4,-73,-69,38,32,-71,-23,9,62,-9,-87,-141
0,-68,-68,34,34,-68,-24,10,63,-5,-86,-139
3,-63,-66,30,34,-64,-24,13,63,0,-87,-136
9,-57,-66,24,37,-61,-23,14,62,6,-84,-130
13,-53,-66,20,39,-59,-23,14,62,9,-82,-126
15,-52,-67,18,41,-59,-24,14,63,2,-81,-125
14,-52,-66,19,40,-59,-24,14,63,-8,-81,-125
12,-53,-65,20,38,-59,-23,12,62,-17,-83,-126
13,-53,-66,20,39,-59,-23,13,62,-23,-86,-126
20,-49,-69,14,44,-59,-24,21,65,-26,-90,-125
28,-47,-75,9,51,-61,-24,33,72,-24,-92,-125
35,-51,-86,8,60,-68,-20,45,85,-17,-90,-127
42,-57,-99,7,70,-78,-14,57,101,-9,-87,-130
50,-63,-113,6,81,-88,-8,69,114,-1,-84,-133
57,-67,-124,5,90,-95,-4,77,125,8,-78,-135
63,-69,-132,3,97,-100,0,78,134,25,-64,-137
67,-68,-135,0,101,-101,0,73,145,51,-44,-136
72,-62,-134,-5,103,-98,-3,66,160,87,-19,-128
77,-53,-130,-12,103,-91,-13,53,174,128,12,-113
83,-43,-126,-20,104,-84,-28,30,183,172,53,-86
91,-29,-120,-31,105,-74,-47,5,198,221,104,-50
101,-7,-108,-47,104,-57,-67,-15,228,280,163,-4
111,22,-89,-66,100,-33,-90,-41,244,342,235,50
119,58,-61,-88,90,-1,-117,-87,217,401,322,116
130,104,-26,-117,78,39,-153,-152,159,464,437,212
149,161,12,-155,68,86,-204,-233,86,539,586,353
173,225,52,-199,60,138,-264,-330,-17,602,752,513
197,290,93,-243,52,191,-326,-444,-180,618,908,665
213,352,139,-282,37,245,-386,-577,-450,547,1029,811
215,411,196,-313,9,303,-445,-727,-846,367,1102,961
213,469,256,-341,-21,362,-499,-866,-1249,146,1162,1123
217,533,316,-375,-49,424,-547,-969,-1532,-35,1246,1297
205,601,396,-403,-95,498,-583,-1040,-1723,-178,1333,1456
156,672,516,-414,-180,594,-604,-1094,-1888,-302,1393,1574
90,746,656,-418,-283,701,-618,-1147,-2050,-418,1432,1663
36,823,787,-429,-375,805,-634,-1212,-2211,-528,1461,1742
-2,890,892,-444,-447,891,-652,-1275,-2350,-633,1473,1798
-30,934,964,-452,-497,949,-664,-1317,-2444,-735,1456,1811
-47,959,1006,-456,-526,982,-672,-1336,-2496,-842,1408,1791
-55,971,1026,-458,-540,998,-673,-1333,-2515,-962,1318,1743
-67,953,1020,-443,-543,986,-654,-1300,-2486,-1090,1113,1615
-92,887,979,-397,-535,933,-605,-1230,-2393,-1220,736,1358
-120,786,906,-333,-513,846,-539,-1137,-2247,-1331,260,1019
-138,665,803,-263,-470,734,-475,-1037,-2068,-1406,-203,664
-145,534,679,-194,-412,606,-408,-923,-1865,-1429,-560,338
-148,401,549,-126,-348,475,-335,-789,-1650,-1394,-748,72
-146,279,425,-66,-285,352,-261,-651,-1440,-1317,-821,-122
-138,178,316,-20,-227,247,-198,-530,-1248,-1216,-853,-243
-123,105,228,9,-175,166,-148,-424,-1072,-1099,-846,-304
-97,58,155,19,-126,106,-111,-328,-907,-970,-785,-327
-73,30,103,21,-88,66,-87,-247,-758,-840,-701,-330
-62,7,69,27,-65,38,-78,-191,-632,-722,-626,-333
-53,-17,36,35,-44,9,-68,-152,-522,-619,-564,-335
-37,-48,-11,42,-13,-29,-47,-122,-421,-533,-508,-333
-19,-76,-57,47,19,-66,-20,-93,-327,-452,-455,-322
-9,-93,-84,51,37,-88,3,-62,-238,-366,-404,-304
0,-97,-97,48,48,-97,18,-30,-155,-282,-358,-284
11,-90,-101,39,56,-95,24,0,-78,-211,-320,-268
23,-82,-105,29,64,-93,28,32,-12,-158,-288,-258
29,-81,-110,26,69,-95,39,62,38,-122,-261,-249
33,-82,-115,24,74,-98,52,86,76,-93,-235,-239
40,-78,-118,19,79,-98,59,95,102,-61,-210,-225
47,-73,-120,13,83,-96,62,97,121,-30,-186,-209
53,-72,-125,9,89,-98,64,97,133,-6,-165,-196
57,-73,-130,8,93,-101,67,97,140,8,-151,-190
59,-68,-127,4,93,-97,72,96,145,13,-148,-191
58,-63,-121,2,89,-92,77,96,150,13,-150,-199
54,-60,-114,3,84,-87,80,101,156,17,-150,-209
52,-58,-110,3,81,-84,81,106,160,23,-146,-214
58,-53,-111,-2,84,-82,82,110,163,29,-140,-208
67,-48,-115,-9,91,-81,81,111,164,33,-136,-195
76,-43,-119,-16,97,-81,82,113,166,36,-133,-183
81,-39,-120,-21,100,-79,82,112,169,38,-131,-175
82,-34,-116,-24,99,-75,80,107,174,39,-126,-173
81,-29,-110,-26,95,-69,78,102,179,39,-122,-174
83,-25,-108,-29,95,-66,77,102,184,37,-119,-175
86,-24,-110,-31,98,-67,78,106,189,38,-117,-175
88,-24,-112,-32,100,-68,76,112,195,45,-114,-173
87,-24,-111,-31,99,-67,73,116,199,57,-112,-170
84,-22,-106,-31,95,-64,70,117,202,69,-109,-163
86,-19,-105,-33,95,-62,68,116,203,77,-107,-156
98,-16,-114,-41,106,-65,67,118,203,78,-104,-154
111,-14,-125,-48,118,-69,67,121,203,77,-102,-155
114,-11,-125,-51,119,-68,68,124,206,82,-99,-156
112,-9,-121,-51,116,-65,68,125,208,86,-97,-155
113,-9,-122,-52,117,-65,65,125,209,86,-94,-156
116,-9,-125,-53,120,-67,63,125,209,86,-92,-156
118,-4,-122,-57,120,-63,62,128,207,93,-89,-153
121,0,-121,-60,121,-60,62,130,208,101,-87,-151
127,1,-126,-64,126,-62,63,131,216,102,-83,-149
130,0,-130,-65,130,-65,62,130,228,101,-78,-150
127,0,-127,-63,127,-63,63,132,240,105,-72,-154
122,0,-122,-61,122,-61,63,135,252,111,-68,-156
120,2,-118,-61,119,-58,60,141,262,117,-67,-150
121,3,-118,-62,119,-57,58,145,267,121,-68,-141
123,2,-121,-62,122,-59,57,145,268,124,-66,-133
125,0,-125,-62,125,-62,57,145,267,125,-63,-126
131,0,-131,-65,131,-65,58,152,272,128,-60,-119
140,0,-140,-70,140,-70,58,160,277,130,-58,-116
149,0,-149,-74,149,-74,55,163,280,131,-57,-120
155,0,-155,-77,155,-77,53,164,282,131,-58,-125
157,1,-156,-79,156,-77,52,171,289,130,-56,-127
156,3,-153,-79,154,-75,52,179,301,135,-53,-126
154,6,-148,-80,151,-71,53,185,314,147,-50,-125
155,8,-147,-81,151,-69,52,189,325,163,-48,-125
161,9,-152,-85,156,-71,53,194,333,178,-47,-126
169,9,-160,-89,164,-75,53,199,340,189,-47,-126
178,6,-172,-92,175,-83,52,203,351,196,-48,-126
184,4,-180,-94,182,-88,52,208,365,203,-47,-130
186,4,-182,-95,184,-89,56,215,378,214,-48,-140
185,4,-181,-94,183,-88,62,223,393,228,-48,-150
184,0,-184,-92,184,-92,67,229,411,240,-46,-155
185,-3,-188,-91,186,-95,72,233,428,252,-43,-156
183,-4,-187,-89,185,-95,78,239,439,262,-37,-155
180,-4,-184,-88,182,-94,86,247,447,272,-29,-155
174,-4,-178,-85,176,-91,95,257,456,280,-22,-159
170,-4,-174,-83,172,-89,101,267,467,286,-19,-164
169,-3,-172,-83,170,-87,102,275,478,291,-18,-170
169,-3,-172,-83,170,-87,101,282,491,296,-19,-174
170,-8,-178,-81,174,-93,104,289,502,303,-17,-177
170,-18,-188,-76,179,-103,106,296,511,311,-14,-179
169,-29,-198,-70,183,-113,107,302,516,317,-12,-182
169,-38,-207,-65,188,-122,106,306,521,321,-13,-184
170,-40,-210,-65,190,-125,109,307,530,323,-18,-187
170,-39,-209,-65,189,-124,111,306,540,325,-23,-189
169,-37,-206,-66,187,-121,112,309,545,333,-26,-192
169,-34,-203,-67,186,-118,112,311,546,340,-24,-194
172,-29,-201,-71,186,-115,111,310,544,342,-16,-198
174,-24,-198,-75,186,-111,111,307,541,341,-9,-200
176,-22,-198,-77,187,-110,112,306,538,340,-7,-197
175,-23,-198,-76,186,-110,112,306,536,341,-8,-195
171,-28,-199,-71,185,-113,109,307,533,340,-11,-194
169,-29,-198,-70,183,-113,107,307,527,336,-13,-195
174,-21,-195,-76,184,-108,108,302,517,329,-14,-192
184,-9,-193,-87,188,-101,107,297,503,317,-14,-190
194,0,-194,-97,194,-97,98,292,486,303,-14,-188
199,4,-195,-101,197,-95,87,287,473,292,-14,-185
197,0,-197,-98,197,-98,84,280,467,288,-13,-177
190,-8,-198,-91,194,-103,86,273,463,287,-13,-165
182,-11,-193,-85,187,-102,90,269,455,280,-16,-154
175,-9,-184,-83,179,-96,92,263,444,268,-18,-146
170,-3,-173,-83,171,-88,86,249,431,257,-19,-144
165,3,-162,-84,163,-79,78,230,419,248,-19,-145
160,11,-149,-85,154,-69,72,212,410,241,-18,-147
156,18,-138,-87,147,-60,68,196,400,234,-18,-146
155,23,-132,-89,143,-54,63,180,386,227,-19,-140
155,28,-127,-91,141,-49,58,166,371,219,-19,-131
156,34,-122,-95,139,-44,53,151,357,212,-18,-123
156,38,-118,-97,137,-40,48,137,342,204,-18,-117
155,39,-116,-97,135,-38,41,123,323,195,-21,-114
155,39,-116,-97,135,-38,34,112,303,185,-23,-112
156,38,-118,-97,137,-40,28,104,287,177,-23,-107
156,38,-118,-97,137,-40,24,97,273,170,-23,-102
155,38,-117,-96,136,-39,21,90,261,163,-26,-99
155,38,-117,-96,136,-39,19,82,245,156,-28,-97
157,39,-118,-98,137,-39,16,74,224,150,-28,-92
156,39,-117,-97,136,-39,14,68,205,141,-28,-87
150,37,-113,-93,131,-38,15,65,192,129,-35,-82
141,34,-107,-87,124,-36,18,63,185,117,-42,-78
132,31,-101,-81,116,-35,21,59,178,111,-44,-76
126,29,-97,-77,111,-34,23,53,170,107,-43,-77
123,28,-95,-75,109,-33,26,46,160,101,-44,-82
122,28,-94,-75,108,-33,28,39,147,92,-47,-86
118,29,-89,-73,103,-30,32,34,131,81,-51,-89
112,29,-83,-70,97,-27,33,29,117,69,-57,-91
106,24,-82,-65,94,-29,32,22,111,54,-66,-96
102,19,-83,-60,92,-32,29,14,107,40,-77,-106
98,15,-83,-56,90,-34,26,10,100,27,-86,-119
97,14,-83,-55,90,-34,24,8,92,19,-91,-126
96,13,-83,-54,89,-35,23,9,86,17,-93,-116
96,13,-83,-54,89,-35,23,9,82,18,-92,-98
97,16,-81,-56,89,-32,24,5,78,19,-89,-81
97,18,-79,-57,88,-30,24,0,73,19,-87,-73
96,17,-79,-56,87,-31,21,-2,65,17,-88,-76
96,14,-82,-55,89,-34,19,-3,58,14,-91,-86
97,13,-84,-55,90,-35,17,-6,56,9,-94,-95
97,14,-83,-55,90,-34,14,-8,57,4,-96,-101
96,12,-84,-54,90,-36,9,-9,60,1,-99,-103
96,9,-87,-52,91,-39,4,-9,62,0,-101,-102
97,6,-91,-51,94,-42,1,-9,64,-1,-104,-101
97,4,-93,-50,95,-44,0,-9,63,-3,-106,-101
94,2,-92,-48,93,-45,-3,-7,57,-4,-110,-103
92,0,-92,-46,92,-46,-8,-4,53,-4,-116,-106
92,-2,-94,-45,93,-48,-14,-1,54,-2,-125,-112
92,-3,-95,-44,93,-49,-18,0,57,0,-131,-116
89,-4,-93,-42,91,-48,-17,0,58,0,-125,-114
82,-4,-86,-39,84,-45,-14,0,57,0,-113,-107
73,-3,-76,-35,74,-39,-13,0,59,0,-101,-98
68,-4,-72,-32,70,-38,-13,0,62,0,-92,-92
71,-3,-74,-34,72,-38,-14,1,65,4,-87,-90
81,-3,-84,-39,82,-43,-14,3,67,8,-82,-91
92,-5,-97,-43,94,-51,-13,5,68,9,-75,-92
101,-8,-109,-46,105,-58,-13,8,67,9,-68,-91
104,-13,-117,-45,110,-65,-14,13,69,8,-66,-92
102,-18,-120,-42,111,-69,-14,18,72,9,-67,-92
99,-22,-121,-38,110,-71,-13,24,77,8,-68,-90
97,-23,-120,-37,108,-71,-13,28,81,8,-68,-87
96,-23,-119,-36,107,-71,-15,31,83,10,-67,-84
97,-23,-120,-37,108,-71,-18,33,82,13,-67,-82
96,-26,-122,-35,109,-74,-21,36,80,16,-68,-80
96,-28,-124,-34,110,-76,-23,38,78,18,-68,-78
99,-29,-128,-35,113,-78,-24,39,77,19,-65,-75
101,-29,-130,-36,115,-79,-24,39,77,18,-63,-73
102,-26,-128,-38,115,-77,-23,39,79,19,-62,-70
102,-24,-126,-39,114,-75,-23,39,81,23,-63,-68
101,-21,-122,-40,111,-71,-23,37,82,31,-60,-65
101,-19,-120,-41,110,-69,-23,34,82,42,-58,-63
101,-15,-116,-43,108,-65,-24,30,82,52,-57,-62
101,-14,-115,-43,108,-64,-24,28,82,58,-57,-62
102,-15,-117,-43,109,-66,-22,32,80,52,-58,-64
102,-18,-120,-42,111,-69,-19,38,78,43,-58,-63
99,-21,-120,-39,109,-70,-16,41,75,38,-55,-58
97,-23,-120,-37,108,-71,-14,42,73,34,-53,-53
96,-27,-123,-34,109,-75,-11,43,72,29,-54,-51
96,-33,-129,-31,112,-81,-9,43,72,24,-57,-52
96,-38,-134,-29,115,-86,-6,42,72,21,-60,-54
96,-42,-138,-27,117,-90,-4,42,72,19,-62,-57
99,-43,-142,-28,120,-92,-3,45,74,13,-64,-62
101,-43,-144,-29,122,-93,-3,47,77,4,-63,-67
102,-43,-145,-29,123,-94,-4,47,80,-4,-59,-71
102,-43,-145,-29,123,-94,-4,47,81,-8,-57,-72
101,-41,-142,-30,121,-91,-2,53,82,-5,-63,-73
101,-39,-140,-31,120,-89,0,62,82,3,-72,-73
102,-36,-138,-33,120,-87,1,68,81,13,-79,-70
102,-34,-136,-34,119,-85,3,72,81,19,-82,-68
102,-33,-135,-34,118,-84,7,74,82,14,-76,-67
102,-33,-135,-34,118,-84,13,73,81,4,-64,-68
101,-33,-134,-34,117,-83,19,71,82,-1,-51,-66
101,-33,-134,-34,117,-83,23,72,82,-3,-47,-67
102,-35,-137,-33,119,-86,25,81,82,-5,-58,-76
102,-42,-144,-30,123,-93,28,95,86,-4,-76,-90
100,-54,-154,-23,127,-104,34,109,96,1,-89,-106
101,-67,-168,-17,134,-117,42,124,110,8,-96,-120
109,-74,-183,-17,146,-128,48,141,123,13,-101,-129
120,-77,-197,-21,158,-137,52,155,135,22,-102,-135
130,-78,-208,-26,169,-143,56,161,145,40,-94,-140
135,-78,-213,-28,174,-145,58,161,155,61,-83,-145
136,-76,-212,-30,174,-144,55,155,163,76,-72,-147
136,-73,-209,-31,172,-141,48,142,165,86,-59,-142
136,-68,-204,-34,170,-136,37,119,157,95,-37,-125
140,-59,-199,-40,169,-129,20,94,166,121,-3,-99
150,-41,-191,-54,170,-116,0,73,218,181,42,-68
163,-16,-179,-73,171,-97,-26,46,270,252,101,-32
174,13,-161,-93,167,-74,-55,0,271,309,171,12
188,53,-135,-120,161,-41,-92,-61,246,380,274,91
211,106,-105,-158,158,0,-143,-130,232,499,427,226
241,168,-73,-204,157,47,-203,-206,216,632,606,389
271,232,-39,-251,155,96,-264,-295,154,723,776,542
291,291,0,-291,145,145,-325,-415,-47,706,907,687
293,344,51,-318,121,197,-387,-577,-459,536,983,840
291,395,104,-343,93,249,-447,-746,-930,299,1038,1002
298,448,150,-373,74,299,-502,-878,-1275,104,1111,1174
286,510,224,-398,31,367,-543,-969,-1507,-44,1201,1340
225,586,361,-405,-68,473,-563,-1028,-1699,-175,1291,1488
139,669,530,-404,-195,599,-574,-1077,-1880,-300,1369,1617
64,751,687,-407,-311,719,-586,-1137,-2059,-421,1428,1730
8,827,819,-417,-405,823,-603,-1203,-2224,-531,1478,1822
-34,894,928,-430,-481,911,-624,-1262,-2356,-620,1529,1887
-65,951,1016,-443,-540,983,-646,-1308,-2455,-699,1577,1933
-88,993,1081,-452,-584,1037,-664,-1333,-2522,-786,1591,1956
-113,1001,1114,-444,-613,1057,-656,-1321,-2534,-899,1464,1884
-154,957,1111,-401,-632,1034,-603,-1254,-2469,-1043,1097,1648
-199,876,1075,-338,-637,975,-524,-1156,-2346,-1187,595,1312
-236,781,1017,-272,-626,899,-447,-1052,-2191,-1290,117,970
-261,666,927,-202,-594,796,-373,-939,-2010,-1340,-261,645
-274,521,795,-123,-534,658,-299,-807,-1802,-1337,-509,338
-282,370,652,-44,-467,511,-230,-675,-1590,-1298,-665,75
-287,241,528,23,-407,384,-171,-561,-1402,-1237,-780,-114
-279,148,427,65,-353,287,-121,-458,-1227,-1151,-833,-222
-249,91,340,79,-294,215,-78,-351,-1049,-1031,-794,-255
-212,56,268,78,-240,162,-45,-252,-878,-900,-710,-248
-186,25,211,80,-198,118,-24,-177,-731,-783,-640,-245
-171,-5,166,88,-168,80,-10,-125,-606,-682,-585,-247
-159,-38,121,98,-140,41,3,-94,-495,-590,-526,-248
-151,-65,86,108,-118,10,17,-70,-394,-501,-464,-244
-149,-82,67,115,-108,-7,29,-43,-301,-408,-405,-233
-146,-87,59,116,-102,-14,38,-12,-209,-315,-351,-215
-136,-81,55,108,-95,-13,42,22,-114,-231,-299,-194
-123,-73,50,98,-86,-11,47,59,-22,-162,-249,-172
-114,-72,42,93,-78,-15,58,94,54,-109,-200,-150
-112,-73,39,92,-75,-17,71,123,112,-67,-159,-132
-112,-67,45,89,-78,-11,80,142,149,-25,-132,-122
-116,-58,58,87,-87,0,86,154,172,15,-113,-117
-121,-54,67,87,-94,6,91,166,192,50,-96,-114
-125,-53,72,89,-98,9,96,174,207,76,-82,-112
-126,-50,76,88,-101,13,100,174,218,86,-78,-109
-125,-48,77,86,-101,14,101,170,228,91,-78,-107
-127,-47,80,87,-103,16,102,170,238,100,-75,-107
-130,-48,82,89,-106,17,102,174,247,111,-68,-107
-133,-46,87,89,-110,20,101,179,253,118,-61,-100
-135,-43,92,89,-113,24,101,184,257,121,-53,-88
-138,-40,98,89,-118,29,102,188,262,123,-47,-76
-140,-39,101,89,-120,31,102,190,267,125,-43,-68
-143,-38,105,90,-124,33,99,187,272,128,-40,-66
-145,-38,107,91,-126,34,97,185,277,130,-38,-67
-145,-40,105,92,-125,32,96,187,281,132,-39,-68
-145,-42,103,93,-124,30,96,194,286,135,-39,-68
-149,-43,106,96,-127,31,98,201,291,141,-33,-67
-155,-43,112,99,-133,34,101,208,296,149,-25,-63
-162,-41,121,101,-141,40,104,212,300,159,-15,-55
-165,-39,126,102,-145,43,106,213,301,164,-9,-48
-158,-35,123,96,-140,44,107,214,301,162,-7,-46
-151,-29,122,90,-136,46,107,214,301,156,-8,-47
-153,-22,131,87,-142,54,106,213,303,155,-9,-48
-160,-18,142,89,-151,62,106,213,306,155,-9,-48
-162,-22,140,92,-151,59,108,216,309,155,-5,-46
-161,-28,133,94,-147,52,111,223,311,155,0,-43
-161,-30,131,95,-146,50,116,231,314,161,4,-38
-161,-29,132,95,-146,51,121,238,316,169,8,-34
-156,-26,130,91,-143,52,124,240,319,172,9,-32
-151,-24,127,87,-139,51,125,239,321,174,9,-33
-153,-21,132,87,-142,55,128,239,324,180,8,-36
-160,-19,141,89,-150,61,130,243,330,189,9,-38
-165,-15,150,90,-157,67,132,250,338,195,8,-37
-169,-13,156,91,-162,71,135,257,345,199,8,-34
-172,-15,157,93,-164,71,139,259,345,201,10,-32
-174,-18,156,96,-165,69,145,262,345,203,13,-29
-175,-19,156,97,-165,68,150,271,353,209,16,-23
-175,-19,156,97,-165,68,155,282,364,218,18,-19
-173,-18,155,95,-164,68,158,287,373,225,19,-22
-174,-18,156,96,-165,69,160,291,379,228,18,-28
-179,-22,157,100,-168,67,162,298,384,227,20,-30
-188,-28,160,108,-174,66,164,306,389,228,23,-29
-198,-35,163,116,-180,64,166,311,396,237,26,-29
-204,-39,165,121,-184,63,169,316,404,251,28,-29
-199,-34,165,116,-182,65,175,322,410,263,31,-27
-186,-24,162,105,-174,69,183,330,417,272,33,-24
-172,-18,154,95,-163,68,192,337,429,277,36,-22
-165,-14,151,89,-158,68,199,345,442,282,38,-23
-170,-12,158,91,-164,73,201,354,452,288,39,-30
-183,-13,170,98,-176,78,200,364,461,296,38,-38
-197,-19,178,108,-187,79,199,374,474,303,39,-40
-203,-23,180,113,-191,78,199,379,486,311,42,-39
-198,-21,177,109,-187,78,201,378,495,320,47,-38
-186,-14,172,100,-179,79,203,375,501,329,52,-38
-175,-9,166,92,-170,78,206,374,507,338,56,-41
-170,-4,166,87,-168,81,208,375,515,345,57,-47
-172,2,174,85,-173,88,208,372,526,352,58,-54
-179,8,187,85,-183,97,208,366,539,359,57,-62
-185,11,196,87,-190,103,211,360,551,369,59,-68
-189,9,198,90,-193,103,213,356,560,379,62,-72
-190,3,193,93,-191,98,214,355,564,386,67,-73
-190,0,190,95,-190,95,213,356,568,393,72,-73
-190,4,194,93,-192,99,215,353,581,404,74,-72
-190,13,203,88,-196,108,218,350,594,413,73,-72
-187,16,203,85,-195,109,220,354,597,415,70,-75
-185,18,203,83,-194,110,223,360,595,413,68,-81
-184,23,207,80,-195,115,228,365,594,416,67,-90
-184,28,212,78,-198,120,233,369,594,418,67,-96
-185,28,213,78,-199,120,236,372,595,416,68,-94
-185,24,209,80,-197,116,238,374,595,409,68,-87
-185,21,206,82,-195,113,241,377,595,403,67,-82
-185,19,204,83,-194,111,243,379,595,400,68,-78
-184,18,202,83,-193,110,246,381,594,400,67,-75
-180,18,198,81,-189,108,247,380,590,400,67,-73
-172,21,193,75,-182,107,247,375,583,396,68,-70
-162,23,185,69,-173,104,247,370,575,390,68,-68
-154,25,179,64,-166,102,250,367,572,386,67,-67
-147,28,175,59,-161,101,252,362,567,380,67,-67
-134,33,167,50,-150,100,251,347,550,371,70,-69
-118,38,156,40,-137,97,248,332,529,357,68,-68
-103,41,144,31,-123,92,247,326,513,343,58,-63
-88,42,130,23,-109,86,247,326,503,331,44,-58
-73,44,117,14,-95,80,248,323,493,326,36,-56
-59,47,106,6,-82,76,248,317,484,322,33,-57
-49,51,100,-1,-74,75,244,308,473,316,35,-58
-43,57,100,-7,-71,78,239,298,459,308,38,-58
-39,62,101,-11,-70,81,234,290,444,297,40,-56
-34,67,101,-16,-67,84,229,283,430,284,39,-53
-24,70,94,-23,-59,82,224,275,421,271,36,-46
-10,72,82,-31,-46,77,219,268,414,259,34,-39
4,76,72,-40,-34,74,214,264,406,250,33,-34
17,81,64,-49,-23,72,209,263,396,244,33,-29
26,87,61,-56,-17,74,205,261,384,241,35,-20
33,95,62,-64,-14,78,200,258,371,239,38,-10
39,107,68,-73,-14,87,195,252,359,237,43,-1
47,116,69,-81,-11,92,190,244,347,234,47,3
54,118,64,-86,-5,91,187,237,335,230,48,6
62,117,55,-89,3,86,185,229,326,224,48,8
70,118,48,-94,11,83,183,221,323,217,47,10
77,121,44,-99,16,82,180,214,322,209,47,13
82,122,40,-102,21,81,175,211,318,202,48,19
86,122,36,-104,25,79,170,209,312,195,48,28
90,121,31,-105,29,76,167,206,305,188,47,35
96,121,25,-108,35,73,165,204,298,180,47,42
102,122,20,-112,41,71,163,203,289,174,48,47
110,122,12,-116,49,67,161,203,283,170,48,52
120,121,1,-120,59,61,159,204,283,167,46,56
130,121,-9,-125,69,56,156,204,283,165,43,57
136,124,-12,-130,74,56,152,202,276,161,41,57
140,130,-10,-135,75,60,146,200,264,156,39,57
143,136,-7,-139,75,64,138,197,254,150,37,60
145,140,-5,-142,75,67,131,195,248,146,34,62
149,142,-7,-145,78,67,129,194,247,145,31,61
155,141,-14,-148,84,63,130,194,247,146,29,58
162,139,-23,-150,92,58,131,194,247,142,28,55
169,136,-33,-152,101,51,130,194,244,136,28,53
173,133,-40,-153,106,46,132,196,241,133,29,52
174,131,-43,-152,108,44,135,199,239,131,28,52
175,130,-45,-152,110,42,138,202,238,129,29,55
174,130,-44,-152,109,43,140,203,238,126,29,57
175,131,-44,-153,109,43,141,204,239,122,27,58
175,131,-44,-153,109,43,141,204,239,117,24,58
173,128,-45,-150,109,41,140,203,237,112,20,57
174,126,-48,-150,111,39,140,203,234,107,18,57
180,125,-55,-152,117,35,140,203,231,105,20,57
188,125,-63,-156,125,31,140,203,229,106,23,57
195,127,-68,-161,131,29,141,204,228,109,24,58
199,130,-69,-164,134,30,141,204,229,111,24,58
200,133,-67,-166,133,33,139,202,227,111,24,56
200,135,-65,-167,132,35,136,200,224,107,24,53
199,138,-61,-168,130,38,133,196,221,102,22,48
199,140,-59,-169,129,40,131,194,219,97,19,43
203,139,-64,-171,133,37,130,198,218,95,18,41
208,136,-72,-172,140,32,130,203,218,96,18,42
212,133,-79,-172,145,27,130,206,219,99,20,47
213,131,-82,-172,147,24,130,208,219,101,23,52
214,130,-84,-172,149,23,132,211,219,103,26,54
214,130,-84,-172,149,23,135,213,219,106,28,53
213,131,-82,-172,147,24,138,216,218,111,31,50
213,131,-82,-172,147,24,140,218,218,116,33,48
216,130,-86,-173,151,22,141,221,220,117,33,47
218,130,-88,-174,153,21,141,223,223,117,33,47
218,131,-87,-174,152,22,140,224,226,116,36,50
218,131,-87,-174,152,22,140,224,228,116,38,52
221,131,-90,-176,155,20,141,224,229,116,39,52
228,131,-97,-179,162,17,140,224,229,116,38,52
234,130,-104,-182,169,13,141,222,228,117,40,55
238,130,-108,-184,173,11,141,219,229,117,42,58
236,131,-105,-183,170,13,140,215,228,114,43,55
229,131,-98,-180,163,16,140,209,228,112,43,48
223,130,-93,-176,158,18,141,204,229,111,42,43
219,130,-89,-174,154,20,141,200,229,112,39,39
218,132,-86,-175,152,23,138,199,225,111,34,37
219,131,-88,-175,153,21,136,199,223,111,29,34
218,125,-93,-171,155,16,137,200,228,116,27,29
218,117,-101,-167,159,8,140,203,237,124,28,24
222,111,-111,-166,166,0,143,209,247,134,34,23
228,107,-121,-167,174,-7,145,213,256,148,46,24
231,104,-127,-167,179,-11,148,211,265,169,63,23
233,106,-127,-169,180,-10,146,201,272,195,88,27
238,115,-123,-176,180,-4,137,185,278,228,120,44
246,129,-117,-187,181,6,119,160,282,263,159,73
256,142,-114,-199,185,14,97,125,285,299,205,109
266,161,-105,-213,185,28,71,87,286,343,263,157
277,191,-86,-234,181,52,43,49,286,403,341,221
290,232,-58,-261,174,87,13,3,268,473,438,300
303,281,-22,-292,162,129,-20,-62,211,542,554,392
315,333,18,-324,148,175,-61,-144,121,605,687,504
326,388,62,-357,132,225,-112,-235,5,660,835,645
339,445,106,-392,116,275,-171,-340,-153,687,989,802
353,504,151,-428,101,327,-234,-466,-382,666,1136,958
361,562,201,-461,80,381,-294,-605,-685,578,1255,1103
353,616,263,-484,45,439,-344,-740,-1046,419,1331,1233
337,670,333,-503,2,501,-385,-854,-1385,237,1394,1365
326,730,404,-528,-39,567,-418,-935,-1614,87,1483,1514
306,792,486,-549,-90,639,-445,-989,-1762,-32,1571,1652
263,846,583,-554,-160,714,-462,-1029,-1895,-147,1619,1741
210,899,689,-554,-239,794,-475,-1071,-2030,-258,1641,1798
167,955,788,-561,-310,871,-492,-1124,-2166,-359,1663,1847
134,1004,870,-569,-368,937,-505,-1174,-2276,-458,1655,1870
108,1032,924,-570,-408,978,-507,-1199,-2331,-568,1574,1834
88,1039,951,-563,-431,995,-498,-1197,-2334,-693,1424,1747
79,1030,951,-554,-436,990,-483,-1172,-2300,-832,1223,1622
70,997,927,-533,-428,962,-453,-1121,-2232,-971,955,1449
49,927,878,-488,-414,902,-402,-1039,-2129,-1091,603,1210
26,821,795,-423,-384,808,-335,-932,-1989,-1180,194,916
13,690,677,-351,-332,683,-266,-814,-1806,-1232,-219,593
9,554,545,-281,-268,549,-199,-690,-1600,-1245,-551,290
7,434,427,-220,-210,430,-134,-566,-1395,-1218,-717,58
8,337,329,-172,-160,333,-75,-449,-1201,-1156,-755,-88
15,263,248,-139,-116,255,-26,-347,-1024,-1068,-742,-157
30,206,176,-118,-73,191,14,-256,-860,-961,-704,-178
57,163,106,-110,-24,134,45,-171,-710,-846,-647,-186
84,130,46,-107,19,88,66,-100,-577,-732,-583,-190
99,103,4,-101,47,53,74,-54,-468,-628,-524,-186
110,81,-29,-95,69,26,77,-27,-373,-538,-470,-180
128,59,-69,-93,98,-5,84,-5,-281,-461,-417,-177
148,44,-104,-96,126,-30,95,15,-192,-390,-363,-171
162,40,-122,-101,142,-41,103,39,-109,-315,-310,-156
173,46,-127,-109,150,-40,107,64,-34,-239,-263,-138
187,55,-132,-121,159,-38,104,89,33,-170,-227,-124
202,62,-140,-132,171,-39,101,113,90,-113,-198,-113
212,62,-150,-137,181,-44,105,136,131,-74,-171,-102
218,62,-156,-140,187,-47,111,154,161,-46,-148,-93
221,68,-153,-144,187,-42,115,162,183,-22,-132,-86
223,77,-146,-150,184,-34,116,164,198,-2,-123,-82
224,80,-144,-152,184,-32,116,165,205,11,-116,-81
223,81,-142,-152,182,-30,116,165,208,18,-112,-81
224,84,-140,-154,182,-28,119,164,211,19,-111,-83
224,86,-138,-155,181,-26,121,164,213,19,-112,-86
222,86,-136,-154,179,-25,122,169,216,20,-110,-91
219,86,-133,-152,176,-23,122,174,218,23,-107,-96
216,90,-126,-153,171,-18,121,176,221,28,-102,-96
214,96,-118,-155,166,-11,121,175,223,33,-97,-92
211,102,-109,-156,160,-3,122,173,226,36,-94,-89
209,106,-103,-157,156,1,122,170,228,38,-92,-87
206,108,-98,-157,152,5,119,163,231,39,-91,-86
204,107,-97,-155,150,5,117,156,233,39,-91,-86
203,105,-98,-154,150,3,116,153,236,39,-94,-86
203,102,-101,-152,152,0,116,155,238,39,-96,-86
204,99,-105,-151,154,-3,117,160,241,37,-97,-87
204,97,-107,-150,155,-5,116,164,243,34,-97,-87
202,96,-106,-149,154,-5,117,165,244,31,-96,-83
203,96,-107,-149,155,-5,117,165,244,29,-96,-78
211,96,-115,-153,163,-9,115,164,243,30,-96,-77
218,96,-122,-157,170,-13,112,164,243,37,-96,-77
216,98,-118,-157,167,-10,109,164,245,49,-97,-77
209,97,-112,-153,160,-7,107,164,247,57,-97,-77
206,91,-115,-148,160,-12,106,166,248,55,-95,-79
204,82,-122,-143,163,-20,106,169,248,48,-92,-81
201,79,-122,-140,161,-21,109,174,247,48,-89,-82
199,78,-121,-138,160,-21,111,179,247,52,-87,-82
204,76,-128,-140,166,-26,112,182,251,53,-86,-81
208,73,-135,-140,171,-31,112,184,257,52,-86,-81
206,70,-136,-138,171,-33,111,187,263,56,-86,-84
200,68,-132,-134,166,-32,112,193,271,62,-86,-86
196,68,-128,-132,162,-30,111,202,281,67,-87,-87
195,68,-127,-131,161,-29,111,212,291,72,-87,-87
195,64,-131,-129,163,-33,113,219,294,75,-85,-86
195,58,-137,-126,166,-39,116,223,296,77,-82,-86
193,56,-137,-124,165,-40,117,225,300,79,-80,-88
190,57,-133,-123,161,-38,117,224,306,81,-81,-95
187,58,-129,-122,158,-35,114,219,309,82,-84,-110
185,58,-127,-121,156,-34,112,214,311,82,-86,-124
184,56,-128,-120,156,-36,111,214,315,80,-85,-125
184,53,-131,-118,157,-39,111,218,320,81,-82,-118
185,50,-135,-117,160,-42,113,220,328,90,-80,-111
185,48,-137,-116,161,-44,112,219,335,104,-78,-107
183,47,-136,-115,159,-44,107,214,339,119,-73,-103
180,48,-132,-114,156,-42,98,205,344,133,-64,-97
177,46,-131,-111,154,-42,88,195,353,146,-54,-91
175,43,-132,-109,153,-44,82,190,364,155,-48,-91
174,40,-134,-107,154,-47,84,192,373,157,-51,-102
174,35,-139,-104,156,-52,90,199,383,156,-61,-119
174,25,-149,-99,161,-62,97,202,395,154,-69,-131
174,15,-159,-94,166,-72,101,203,407,155,-72,-135
175,9,-166,-92,170,-78,104,205,416,161,-71,-135
175,4,-171,-89,173,-83,106,208,422,168,-68,-135
173,-1,-174,-86,173,-87,109,213,430,174,-67,-139
170,-4,-174,-83,172,-89,111,218,437,179,-67,-145
169,2,-167,-85,168,-82,113,222,444,187,-67,-150
169,12,-157,-90,163,-72,116,227,451,201,-63,-155
170,17,-153,-93,161,-68,120,236,459,221,-56,-159
170,14,-156,-92,163,-71,125,243,467,237,-48,-161
166,8,-158,-87,162,-75,128,240,472,240,-44,-159
161,1,-160,-81,160,-79,130,230,477,234,-43,-156
158,-4,-162,-77,160,-83,133,220,483,232,-41,-155
156,-8,-164,-74,160,-86,135,214,487,233,-39,-155
155,-12,-167,-71,161,-89,136,212,485,234,-38,-156
155,-17,-172,-69,163,-94,136,213,479,234,-38,-156
156,-25,-181,-65,168,-103,135,214,473,234,-38,-155
156,-29,-185,-63,170,-107,135,214,468,234,-38,-155
155,-24,-179,-65,167,-101,136,210,464,232,-39,-155
155,-15,-170,-70,162,-92,136,204,459,229,-39,-155
156,-8,-164,-74,160,-86,133,199,451,226,-36,-156
156,-4,-160,-76,158,-82,131,195,444,224,-34,-156
156,-1,-157,-77,156,-79,131,193,441,222,-34,-155
156,0,-156,-78,156,-78,131,190,435,219,-34,-155
155,0,-155,-77,155,-77,127,183,420,216,-30,-157
155,0,-155,-77,155,-77,122,175,402,210,-28,-156
156,2,-154,-79,155,-76,120,173,390,200,-33,-146
156,8,-148,-82,152,-70,121,174,385,191,-42,-132
155,14,-141,-84,148,-63,122,174,381,187,-45,-122
155,18,-137,-86,146,-59,122,170,376,185,-43,-117
156,19,-137,-87,146,-59,118,164,366,180,-39,-114
156,19,-137,-87,146,-59,112,156,353,171,-34,-112
154,18,-136,-86,145,-59,107,152,337,159,-30,-108
151,18,-133,-84,142,-57,102,147,323,147,-28,-103
150,21,-129,-85,139,-54,97,137,314,139,-30,-95
150,27,-123,-88,136,-48,92,127,308,136,-33,-87
153,35,-118,-94,135,-41,87,120,299,136,-34,-83
155,42,-113,-98,134,-35,82,117,288,136,-34,-78
156,45,-111,-100,133,-33,78,115,278,131,-34,-72
156,47,-109,-101,132,-31,73,112,269,123,-34,-64
155,52,-103,-103,129,-25,68,106,260,114,-31,-57
156,57,-99,-106,127,-21,63,98,250,107,-29,-53
155,58,-97,-106,126,-19,62,92,235,104,-28,-52
155,57,-98,-106,126,-20,62,87,221,102,-28,-52
156,60,-96,-108,126,-18,63,82,210,99,-28,-53
156,62,-94,-109,125,-16,63,78,204,93,-28,-53
152,60,-92,-106,122,-16,60,77,200,84,-30,-52
146,54,-92,-100,119,-19,58,77,195,74,-33,-52
141,47,-94,-94,117,-23,57,78,189,63,-36,-53
136,43,-93,-89,114,-25,57,78,181,54,-38,-53
133,42,-91,-87,112,-24,58,76,171,47,-39,-51
131,42,-89,-86,110,-23,58,73,162,43,-38,-48
130,43,-87,-86,108,-22,57,70,158,41,-40,-46
130,43,-87,-86,108,-22,57,68,156,39,-42,-47
131,42,-89,-86,110,-23,60,67,152,35,-45,-50
131,42,-89,-86,110,-23,62,67,146,29,-47,-52
129,43,-86,-86,107,-21,63,68,143,24,-49,-52
126,43,-83,-84,104,-20,63,68,141,19,-52,-52
122,42,-80,-82,101,-19,62,67,137,15,-58,-56
117,39,-78,-78,97,-19,62,67,132,10,-66,-62
114,35,-79,-74,96,-22,63,67,124,0,-73,-67
112,29,-83,-70,97,-27,63,67,117,-8,-77,-72
112,25,-87,-68,99,-31,62,68,113,-10,-79,-77
112,24,-88,-68,100,-32,62,68,112,-9,-81,-81
110,24,-86,-67,98,-31,63,67,111,-7,-83,-84
107,24,-83,-65,95,-29,62,67,111,-8,-86,-86
106,21,-85,-63,95,-32,63,69,112,-12,-88,-88
106,15,-91,-60,98,-38,63,72,112,-17,-91,-91
106,6,-100,-56,103,-47,62,75,110,-23,-94,-94
106,0,-106,-53,106,-53,62,77,107,-28,-97,-96
108,1,-107,-54,107,-53,63,78,106,-30,-95,-97
111,7,-104,-59,107,-48,63,78,106,-29,-92,-96
112,16,-96,-64,104,-40,62,77,108,-27,-92,-97
112,23,-89,-67,100,-33,62,77,111,-24,-92,-97
110,24,-86,-67,98,-31,64,80,114,-21,-88,-94
107,24,-83,-65,95,-29,67,86,116,-19,-82,-92
104,24,-80,-64,92,-28,70,91,119,-18,-79,-91
102,24,-78,-63,90,-27,72,96,121,-18,-78,-91
103,19,-84,-61,93,-32,73,101,122,-19,-78,-91
106,10,-96,-58,101,-43,73,106,122,-19,-78,-87
107,2,-105,-54,106,-51,72,109,121,-17,-76,-80
107,-3,-110,-52,108,-56,72,111,121,-14,-73,-73
106,-4,-110,-51,108,-57,74,112,122,-12,-70,-71
106,-4,-110,-51,108,-57,77,112,122,-9,-68,-72
107,-4,-111,-51,109,-57,80,111,121,-5,-65,-75
107,-4,-111,-51,109,-57,81,111,121,0,-63,-77
105,-1,-106,-52,105,-53,82,112,123,2,-61,-77
102,3,-99,-52,100,-48,82,112,125,3,-58,-73
97,8,-89,-52,93,-40,81,109,128,6,-53,-68
92,13,-79,-52,85,-33,81,107,130,8,-48,-63
91,14,-77,-52,84,-31,81,106,131,9,-47,-62
91,14,-77,-52,84,-31,81,106,131,9,-48,-63
92,13,-79,-52,85,-33,82,106,131,9,-46,-61
92,13,-79,-52,85,-33,82,102,131,9,-43,-58
91,14,-77,-52,84,-31,80,95,129,6,-42,-57
91,14,-77,-52,84,-31,78,84,126,4,-42,-58
92,13,-79,-52,85,-33,75,71,124,4,-43,-57
91,13,-78,-52,84,-32,73,63,122,4,-47,-57
92,14,-78,-53,85,-32,71,67,120,0,-53,-62
92,14,-78,-53,85,-32,72,79,121,-3,-61,-71
91,9,-82,-50,86,-36,75,92,128,-3,-66,-81
91,1,-90,-46,90,-44,81,104,138,0,-68,-90
92,-8,-100,-42,96,-54,86,116,150,3,-66,-95
92,-17,-109,-37,100,-63,91,125,159,11,-59,-96
89,-24,-113,-32,101,-68,95,126,166,26,-45,-97
86,-28,-114,-29,100,-71,97,122,173,48,-27,-97
89,-29,-118,-30,103,-73,93,118,185,76,-9,-94
95,-29,-124,-33,109,-76,84,109,194,106,9,-84
102,-27,-129,-37,115,-78,70,90,193,136,38,-64
110,-21,-131,-44,120,-76,51,66,203,175,78,-34
119,-5,-124,-57,121,-64,28,46,247,237,130,0
129,19,-110,-74,119,-45,1,20,293,306,192,40
137,49,-88,-93,112,-19,-30,-23,292,362,266,91
148,88,-60,-118,104,14,-69,-84,259,431,371,171
166,142,-24,-154,95,59,-122,-159,224,545,526,298
190,207,17,-198,86,112,-183,-246,176,676,709,451
214,273,59,-243,77,166,-247,-346,81,767,882,595
232,335,103,-283,64,219,-310,-471,-129,761,1023,735
237,392,155,-314,41,273,-375,-631,-513,617,1123,888
238,447,209,-342,14,328,-437,-797,-951,405,1207,1056
244,507,263,-375,-9,385,-493,-928,-1271,230,1311,1236
238,572,334,-405,-48,453,-539,-1020,-1484,99,1425,1406
196,643,447,-419,-125,545,-571,-1086,-1664,-17,1520,1546
136,718,582,-427,-223,650,-595,-1144,-1838,-127,1597,1659
85,793,708,-439,-311,750,-622,-1213,-2009,-228,1663,1759
48,862,814,-455,-383,838,-648,-1286,-2166,-327,1711,1838
19,917,898,-468,-439,907,-669,-1344,-2290,-434,1730,1884
-1,959,960,-479,-480,959,-685,-1384,-2378,-549,1724,1901
-11,987,998,-488,-504,992,-696,-1404,-2432,-667,1691,1895
-24,985,1009,-480,-516,997,-687,-1391,-2439,-805,1538,1810
-55,935,990,-440,-522,962,-645,-1335,-2386,-978,1158,1582
-95,847,942,-376,-518,894,-581,-1250,-2281,-1160,633,1256
-126,740,866,-307,-496,803,-519,-1159,-2144,-1307,113,916
-143,618,761,-237,-452,689,-456,-1055,-1975,-1392,-302,591
-151,481,632,-165,-391,556,-380,-922,-1774,-1401,-557,294
-151,344,495,-96,-323,419,-300,-780,-1563,-1356,-693,46
-146,229,375,-41,-260,302,-230,-655,-1373,-1292,-787,-127
-134,143,277,-4,-205,210,-173,-546,-1201,-1208,-833,-228
-110,85,195,12,-152,140,-130,-437,-1030,-1094,-800,-266
-85,45,130,20,-107,87,-101,-337,-866,-967,-721,-272
-72,10,82,31,-77,46,-83,-260,-724,-854,-652,-278
-65,-23,42,44,-53,9,-70,-207,-604,-757,-599,-286
-48,-55,-7,51,-20,-31,-54,-172,-500,-668,-546,-287
-27,-82,-55,54,14,-68,-37,-145,-406,-582,-492,-280
-12,-100,-88,56,38,-94,-21,-116,-319,-491,-441,-265
-1,-107,-106,54,52,-106,-10,-84,-234,-401,-393,-247
10,-101,-111,45,60,-106,-5,-51,-148,-315,-348,-232
22,-93,-115,35,68,-104,-1,-19,-66,-240,-304,-220
29,-91,-120,31,74,-105,9,10,0,-182,-263,-210
33,-92,-125,29,79,-108,22,35,50,-138,-229,-201
36,-88,-124,26,80,-106,30,52,83,-102,-206,-192
38,-82,-120,22,79,-101,33,65,103,-72,-192,-185
38,-81,-119,21,78,-100,35,78,118,-47,-180,-182
38,-82,-120,22,79,-101,38,86,129,-30,-170,-180
41,-80,-121,19,81,-100,41,85,135,-26,-168,-177
47,-78,-125,15,86,-101,42,78,140,-28,-169,-175
50,-77,-127,13,88,-102,42,75,145,-29,-169,-174
52,-78,-130,13,91,-104,42,77,150,-25,-165,-175
53,-76,-129,11,91,-102,47,82,153,-16,-161,-173
52,-73,-125,10,88,-99,56,90,155,-5,-156,-170
53,-70,-123,8,88,-96,65,98,157,2,-154,-167
53,-68,-121,7,87,-94,72,102,160,8,-151,-165
51,-67,-118,8,84,-92,72,98,162,10,-147,-164
48,-67,-115,9,81,-91,68,92,164,9,-141,-164
47,-69,-116,11,81,-92,67,91,166,7,-138,-164
47,-72,-119,12,83,-95,67,95,169,8,-136,-164
48,-73,-121,12,84,-97,68,103,172,13,-134,-165
48,-73,-121,12,84,-97,68,110,174,22,-131,-165
46,-71,-117,12,81,-94,67,114,174,32,-128,-161
46,-68,-114,11,80,-91,67,116,174,38,-126,-156
56,-66,-122,5,89,-94,68,118,177,36,-125,-155
66,-63,-129,-1,97,-96,68,121,183,29,-125,-155
68,-59,-127,-4,97,-93,67,123,191,27,-126,-155
63,-57,-120,-3,91,-88,67,125,199,28,-126,-155
62,-61,-123,0,92,-92,69,128,201,28,-124,-157
62,-67,-129,2,95,-98,72,134,200,28,-122,-160
62,-69,-131,3,96,-100,76,142,199,34,-119,-161
62,-68,-130,3,96,-99,81,150,199,42,-117,-161
67,-66,-133,0,100,-99,84,152,201,43,-116,-160
72,-63,-135,-4,103,-99,86,151,203,42,-116,-160
70,-60,-130,-5,100,-95,89,151,206,45,-117,-162
63,-58,-121,-2,92,-89,91,154,212,51,-116,-164
61,-56,-117,-2,89,-86,93,163,222,59,-117,-165
62,-57,-119,-2,90,-88,96,173,232,66,-117,-164
65,-62,-127,-1,96,-94,100,179,236,72,-115,-165
67,-67,-134,0,100,-100,105,183,238,77,-112,-165
68,-68,-136,0,102,-102,111,191,243,80,-109,-162
68,-68,-136,0,102,-102,116,199,251,81,-107,-160
67,-68,-135,0,101,-101,119,201,257,82,-106,-165
67,-68,-135,0,101,-101,121,203,261,82,-106,-173
68,-66,-134,-1,101,-100,123,208,269,80,-107,-178
68,-63,-131,-2,99,-97,125,217,280,80,-107,-179
67,-61,-128,-3,97,-94,128,224,294,90,-106,-182
67,-58,-125,-4,96,-91,130,228,305,104,-106,-184
68,-55,-123,-6,95,-89,131,229,310,116,-107,-185
68,-53,-121,-7,94,-87,130,229,311,124,-107,-185
67,-53,-120,-7,93,-86,131,229,316,130,-106,-185
67,-53,-120,-7,93,-86,131,229,324,135,-106,-188
69,-48,-117,-10,93,-82,128,226,331,139,-108,-197
72,-40,-112,-16,92,-76,123,220,339,145,-111,-207
75,-35,-110,-20,92,-72,116,211,348,149,-112,-212
77,-34,-111,-21,94,-72,112,204,359,154,-112,-213
78,-33,-111,-22,94,-72,112,203,367,161,-111,-215
78,-33,-111,-22,94,-72,116,207,373,168,-111,-218
75,-35,-110,-20,92,-72,119,213,380,174,-113,-224
73,-34,-107,-19,90,-70,121,218,388,179,-116,-232
74,-29,-103,-22,88,-66,122,222,398,183,-118,-241
80,-24,-104,-28,92,-64,121,227,411,188,-117,-251
87,-26,-113,-30,100,-69,123,235,425,197,-113,-260
91,-33,-124,-29,107,-78,125,243,437,207,-107,-267
90,-34,-124,-28,107,-79,127,245,442,213,-105,-267
87,-33,-120,-27,103,-76,130,244,443,217,-106,-263
86,-36,-122,-25,104,-79,133,244,445,225,-107,-262
86,-39,-125,-23,105,-82,135,244,447,233,-107,-262
87,-33,-120,-27,103,-76,136,240,448,235,-106,-263
87,-21,-108,-33,97,-64,136,235,447,234,-106,-263
86,-10,-96,-38,91,-53,136,230,448,234,-107,-262
86,-1,-87,-42,86,-44,136,225,448,234,-107,-262
89,4,-85,-46,87,-40,134,218,443,228,-107,-262
91,8,-83,-49,87,-37,131,210,435,220,-107,-262
92,10,-82,-51,87,-36,127,202,427,215,-106,-263
91,13,-78,-52,84,-32,122,196,420,214,-106,-263
93,17,-76,-55,84,-29,118,190,415,211,-107,-262
96,23,-73,-59,84,-25,113,182,407,209,-107,-262
97,26,-71,-61,84,-22,103,169,391,209,-106,-264
97,28,-69,-62,83,-20,93,157,372,209,-106,-263
96,32,-64,-64,80,-16,88,152,361,203,-109,-256
97,37,-60,-67,78,-11,87,151,356,195,-112,-245
96,43,-53,-69,74,-5,85,148,352,194,-109,-238
96,47,-49,-71,72,-1,82,142,347,195,-103,-234
98,50,-48,-74,73,1,77,134,339,191,-98,-233
101,52,-49,-76,75,1,69,127,328,182,-97,-233
102,55,-47,-78,74,4,61,122,315,170,-96,-233
102,57,-45,-79,73,6,54,118,303,158,-96,-230
101,57,-44,-79,72,6,50,111,296,148,-97,-220
101,57,-44,-79,72,6,48,103,292,141,-97,-206
103,59,-44,-81,73,7,46,98,287,138,-94,-194
106,62,-44,-84,75,9,43,97,279,136,-92,-186
107,63,-44,-85,75,9,39,95,270,134,-91,-180
107,62,-45,-84,76,8,35,92,259,131,-92,-175
106,64,-42,-85,74,11,29,86,250,129,-90,-172
106,67,-39,-86,72,14,24,79,241,126,-87,-170
106,69,-37,-87,71,16,23,73,228,123,-84,-167
106,72,-34,-89,70,19,23,68,215,118,-82,-165
107,76,-31,-91,69,22,24,64,208,111,-80,-163
107,81,-26,-94,66,27,24,59,204,103,-78,-161
105,82,-23,-93,64,29,22,54,199,97,-77,-157
102,82,-20,-92,61,31,19,49,191,92,-77,-152
99,82,-17,-90,58,32,18,43,182,89,-78,-146
97,82,-15,-89,56,33,18,39,172,83,-78,-141
94,80,-14,-87,54,33,19,39,161,73,-77,-138
92,78,-14,-85,53,32,19,42,152,60,-77,-136
90,75,-15,-82,52,30,18,45,148,48,-79,-135
91,73,-18,-82,54,27,18,47,146,40,-81,-136
95,71,-24,-83,59,23,20,48,140,34,-82,-134
100,68,-32,-84,66,18,23,48,132,30,-82,-131
105,65,-40,-85,72,12,24,47,125,23,-81,-127
106,63,-43,-84,74,10,24,47,122,18,-81,-122
106,62,-44,-84,75,9,24,48,121,23,-83,-121
106,63,-43,-84,74,10,24,48,122,32,-86,-121
108,61,-47,-84,77,7,23,47,120,38,-87,-122
111,58,-53,-84,82,2,23,47,117,39,-87,-121
114,55,-59,-84,86,-2,27,50,114,36,-86,-122
116,53,-63,-84,89,-5,32,56,112,30,-86,-122
117,52,-65,-84,91,-6,38,62,111,24,-87,-120
117,52,-65,-84,91,-6,42,67,111,19,-87,-117
117,53,-64,-85,90,-5,43,68,113,18,-86,-116
117,53,-64,-85,90,-5,43,68,116,18,-86,-116
116,51,-65,-83,90,-7,42,67,117,19,-87,-117
116,48,-68,-82,92,-10,42,67,117,19,-87,-117
118,47,-71,-82,94,-12,43,69,116,17,-86,-116
121,47,-74,-84,97,-13,43,72,116,14,-86,-116
122,50,-72,-86,97,-11,42,75,118,13,-89,-117
121,52,-69,-86,95,-8,42,77,121,13,-91,-117
123,53,-70,-88,96,-8,46,79,122,14,-90,-115
125,53,-72,-89,98,-9,51,81,122,14,-87,-112
127,52,-75,-89,101,-11,57,83,121,12,-86,-111
130,52,-78,-91,104,-13,62,85,121,9,-87,-111
133,54,-79,-93,106,-12,65,92,124,8,-86,-111
135,57,-78,-96,106,-10,67,100,129,8,-82,-108
136,60,-76,-98,106,-8,70,106,135,10,-78,-101
136,62,-74,-99,105,-6,72,111,140,13,-73,-93
135,63,-72,-99,103,-4,73,115,141,17,-71,-88
136,63,-73,-99,104,-5,73,120,141,22,-72,-87
135,62,-73,-98,104,-5,72,125,140,30,-74,-86
135,62,-73,-98,104,-5,72,129,140,37,-73,-86
137,63,-74,-100,105,-5,73,135,143,42,-68,-87
140,63,-77,-101,108,-7,73,140,149,47,-60,-87
141,62,-79,-101,110,-8,72,143,155,52,-49,-85
141,62,-79,-101,110,-8,73,145,160,57,-40,-82
141,66,-75,-103,108,-4,72,148,161,60,-36,-81
141,71,-70,-106,105,0,72,150,161,62,-34,-81
140,77,-63,-108,101,7,73,151,160,65,-30,-81
140,81,-59,-110,99,11,73,151,160,67,-25,-78
143,82,-61,-112,102,10,72,150,161,66,-21,-73
149,82,-67,-115,108,7,72,150,160,63,-19,-65
155,81,-74,-118,114,3,73,151,161,63,-17,-55
160,81,-79,-120,119,1,73,151,161,63,-18,-48
161,84,-77,-122,119,3,70,149,160,59,-22,-49
161,86,-75,-123,118,5,68,146,163,53,-28,-56
161,84,-77,-122,119,3,68,144,173,52,-30,-64
161,79,-82,-120,121,-1,72,145,187,56,-29,-71
158,73,-85,-115,121,-6,75,150,198,63,-28,-75
152,68,-84,-110,118,-8,77,155,207,74,-25,-77
143,66,-77,-104,110,-5,79,152,214,92,-16,-79
136,67,-69,-101,102,-1,78,143,222,116,0,-78
140,73,-67,-106,103,3,72,132,231,145,23,-72
153,84,-69,-118,111,7,61,116,238,178,55,-57
165,97,-68,-131,116,14,44,90,239,211,94,-33
177,112,-65,-144,121,23,23,58,244,252,144,0
189,134,-55,-161,122,39,0,34,268,310,204,46
201,163,-38,-182,119,62,-27,7,287,380,278,103
212,198,-14,-205,113,92,-58,-35,266,447,370,170
225,242,17,-233,104,129,-97,-100,209,512,484,261
245,297,52,-271,96,174,-148,-186,134,581,623,396
271,360,89,-315,91,224,-210,-292,32,636,777,555
300,426,126,-363,87,276,-273,-413,-123,650,923,709
320,488,168,-404,76,328,-337,-552,-375,588,1042,856
319,547,228,-433,45,387,-400,-708,-759,421,1120,1004
308,605,297,-456,5,451,-460,-859,-1175,201,1180,1163
303,669,366,-486,-31,517,-515,-976,-1482,11,1259,1336
289,736,447,-512,-79,591,-558,-1058,-1684,-136,1348,1501
244,803,559,-523,-157,681,-583,-1117,-1850,-259,1418,1624
178,872,694,-525,-258,783,-597,-1171,-2009,-367,1468,1714
121,943,822,-532,-350,882,-611,-1237,-2168,-469,1508,1793
80,1007,927,-543,-423,967,-629,-1304,-2310,-568,1531,1851
53,1050,997,-551,-472,1023,-648,-1351,-2411,-668,1521,1867
40,1074,1034,-557,-497,1054,-664,-1373,-2470,-775,1477,1846
37,1083,1046,-560,-504,1064,-676,-1375,-2496,-892,1396,1798
32,1066,1034,-549,-501,1050,-669,-1348,-2476,-1019,1217,1683
7,1008,1001,-507,-497,1004,-626,-1281,-2391,-1154,865,1451
-27,912,939,-442,-483,925,-561,-1187,-2247,-1278,394,1129
-52,793,845,-370,-448,819,-494,-1086,-2065,-1370,-81,783
-66,663,729,-298,-397,696,-428,-973,-1861,-1410,-464,456
-71,529,600,-229,-335,564,-358,-837,-1649,-1383,-677,178
-69,404,473,-167,-271,438,-287,-693,-1443,-1304,-757,-31
-61,300,361,-119,-211,330,-225,-563,-1254,-1199,-786,-167
-47,222,269,-87,-158,245,-174,-451,-1080,-1081,-781,-238
-24,170,194,-73,-109,182,-133,-352,-915,-955,-733,-265
-3,137,140,-67,-71,138,-102,-268,-762,-831,-660,-268
6,110,104,-58,-49,107,-83,-208,-631,-716,-592,-267
11,84,73,-47,-31,78,-70,-168,-520,-615,-534,-267
25,53,28,-39,-1,40,-55,-138,-419,-528,-479,-268
44,24,-20,-34,32,2,-37,-112,-326,-447,-425,-264
57,6,-51,-31,54,-22,-21,-85,-240,-362,-373,-253
65,0,-65,-32,65,-32,-10,-55,-158,-276,-326,-237
77,1,-76,-39,76,-37,-5,-20,-79,-198,-286,-223
89,4,-85,-46,87,-40,-1,15,-5,-134,-251,-211
97,0,-97,-48,97,-48,8,52,54,-85,-219,-201
101,-3,-104,-49,102,-53,21,82,99,-49,-190,-192
104,-2,-106,-51,105,-54,31,98,129,-20,-166,-183
106,3,-103,-54,104,-50,37,105,147,4,-145,-176
107,5,-102,-56,104,-48,42,111,159,23,-126,-172
107,4,-103,-55,105,-49,47,116,168,37,-113,-170
104,4,-100,-54,102,-48,50,118,175,43,-110,-167
98,4,-94,-51,96,-45,52,121,183,46,-111,-165
89,2,-87,-45,88,-42,53,127,191,54,-110,-164
82,0,-82,-41,82,-41,53,134,198,61,-107,-165
83,0,-83,-41,83,-41,52,139,202,63,-105,-164
90,3,-87,-46,88,-42,53,140,203,59,-106,-161
97,6,-91,-51,94,-42,52,142,205,53,-109,-158
101,8,-93,-54,97,-42,52,141,208,48,-111,-156
100,9,-91,-54,95,-41,54,137,209,47,-110,-155
97,9,-88,-53,92,-39,57,131,209,48,-107,-155
96,7,-89,-51,92,-41,61,130,208,46,-106,-155
96,4,-92,-50,94,-44,67,134,208,46,-107,-155
97,2,-95,-49,96,-46,70,142,212,56,-104,-156
97,0,-97,-48,97,-48,72,149,217,73,-98,-156
95,0,-95,-47,95,-47,75,153,221,92,-92,-152
96,0,-96,-48,96,-48,77,155,223,105,-87,-146
101,0,-101,-50,101,-50,78,157,224,105,-86,-144
107,0,-107,-53,107,-53,78,160,223,98,-86,-145
102,0,-102,-51,102,-51,77,162,225,96,-87,-146
93,0,-93,-46,93,-46,78,164,228,97,-87,-146
90,-1,-91,-44,90,-46,77,166,232,93,-85,-146
91,-3,-94,-44,92,-48,77,169,237,87,-82,-146
91,-2,-93,-44,92,-47,78,173,242,86,-80,-144
91,0,-91,-45,91,-45,81,178,246,90,-78,-141
94,0,-94,-47,94,-47,85,185,254,99,-74,-138
97,0,-97,-48,97,-48,90,192,265,113,-69,-136
92,0,-92,-46,92,-46,96,202,277,132,-63,-135
83,0,-83,-41,83,-41,101,212,289,148,-58,-135
79,0,-79,-39,79,-39,102,219,299,153,-57,-135
81,0,-81,-40,81,-40,102,223,306,147,-58,-135
84,-3,-87,-40,85,-45,102,223,306,140,-56,-136
86,-8,-94,-39,90,-51,106,223,306,136,-53,-136
87,-9,-96,-39,91,-52,110,229,312,137,-50,-132
87,-9,-96,-39,91,-52,116,237,323,140,-48,-130
86,-8,-94,-39,90,-51,119,241,332,141,-47,-135
86,-8,-94,-39,90,-51,121,243,339,140,-48,-144
89,-9,-98,-40,93,-53,123,246,346,143,-46,-147
95,-9,-104,-43,99,-56,125,251,353,152,-43,-146
102,-8,-110,-47,106,-59,128,256,363,170,-40,-145
106,-8,-114,-49,110,-61,130,257,373,190,-38,-146
103,-9,-112,-47,107,-60,131,256,378,205,-41,-144
94,-12,-106,-41,100,-59,130,253,383,212,-46,-141
84,-18,-102,-33,93,-60,131,250,391,217,-53,-139
78,-23,-101,-27,89,-62,131,248,402,222,-57,-139
79,-24,-103,-27,91,-63,128,247,412,229,-56,-146
85,-23,-108,-31,96,-65,123,244,421,237,-49,-154
91,-27,-118,-32,104,-72,117,239,433,243,-42,-157
96,-33,-129,-31,112,-81,112,234,445,250,-35,-156
98,-35,-133,-31,115,-84,112,234,454,261,-30,-155
97,-34,-131,-31,114,-82,116,237,461,275,-29,-155
94,-33,-127,-30,110,-80,119,242,467,286,-29,-158
92,-34,-126,-29,109,-80,121,246,475,295,-29,-163
91,-33,-124,-29,107,-78,121,251,486,300,-27,-169
91,-33,-124,-29,107,-78,121,256,498,305,-24,-174
92,-38,-130,-27,111,-84,123,261,511,312,-20,-177
92,-45,-137,-23,114,-91,125,266,520,320,-15,-179
92,-53,-145,-19,118,-99,125,272,524,325,-9,-180
92,-58,-150,-17,121,-104,122,277,525,326,-4,-180
91,-54,-145,-18,118,-99,121,279,532,324,-2,-180
91,-48,-139,-21,115,-93,121,278,540,324,-3,-180
93,-47,-140,-23,116,-93,122,274,540,332,-5,-178
95,-47,-142,-24,118,-94,122,265,533,343,-4,-175
101,-46,-147,-27,124,-96,121,253,523,350,0,-173
106,-43,-149,-31,127,-96,121,241,513,351,7,-170
108,-40,-148,-34,128,-94,122,235,507,346,10,-166
107,-39,-146,-34,126,-92,122,234,503,338,9,-161
104,-39,-143,-32,123,-91,119,233,496,328,6,-158
102,-39,-141,-31,121,-90,117,230,489,318,4,-156
101,-35,-136,-33,118,-85,117,223,483,312,3,-154
101,-30,-131,-35,116,-80,117,215,479,308,3,-151
102,-25,-127,-38,114,-76,111,208,473,301,4,-149
101,-23,-124,-39,112,-73,99,201,465,293,3,-146
102,-25,-127,-38,114,-76,89,193,455,288,4,-142
102,-25,-127,-38,114,-76,80,186,442,284,4,-137
100,-16,-116,-42,108,-66,71,182,426,278,2,-131
97,-9,-106,-44,101,-57,64,180,411,270,0,-126
96,-15,-111,-40,103,-63,61,175,405,259,0,-125
96,-27,-123,-34,109,-75,58,164,401,249,0,-126
97,-29,-126,-34,111,-77,52,148,389,244,0,-123
97,-21,-118,-38,107,-69,44,133,370,240,0,-118
95,-12,-107,-41,101,-59,38,126,353,230,-1,-112
92,-5,-97,-43,94,-51,34,125,339,217,-3,-107
89,0,-89,-44,89,-44,30,126,325,204,-5,-105
87,3,-84,-45,85,-40,25,123,310,193,-8,-103
85,4,-81,-44,83,-38,21,115,294,178,-10,-96
82,3,-79,-42,80,-38,19,104,277,160,-13,-88
80,5,-75,-42,77,-35,19,94,260,141,-16,-82
78,8,-70,-43,74,-31,19,88,246,127,-18,-78
77,9,-68,-43,72,-29,17,84,237,127,-19,-76
77,9,-68,-43,72,-29,14,82,230,137,-19,-73
78,8,-70,-43,74,-31,11,80,223,149,-18,-70
78,8,-70,-43,74,-31,9,78,215,156,-18,-68
77,9,-68,-43,72,-29,7,78,210,151,-18,-67
77,8,-69,-42,73,-30,4,78,205,139,-18,-67
78,9,-69,-43,73,-30,2,75,196,127,-19,-67
78,9,-69,-43,73,-30,0,69,183,118,-19,-67
77,8,-69,-42,73,-30,-1,63,170,111,-18,-68
77,8,-69,-42,73,-30,-3,59,158,104,-18,-68
78,10,-68,-44,73,-29,-4,55,149,94,-23,-63
78,13,-65,-45,71,-26,-4,52,142,83,-31,-58
77,16,-61,-46,69,-22,-2,54,136,77,-39,-59
77,18,-59,-47,68,-20,0,57,131,74,-46,-66
78,19,-59,-48,68,-20,0,58,131,67,-52,-73
78,19,-59,-48,68,-20,0,58,131,56,-57,-77
76,18,-58,-47,67,-20,0,58,127,39,-58,-77
73,18,-55,-45,64,-18,0,58,119,22,-57,-74
72,18,-54,-45,63,-18,0,55,111,11,-59,-69
72,18,-54,-45,63,-18,0,52,107,8,-62,-67
74,19,-55,-46,64,-18,0,56,109,10,-63,-71
77,19,-58,-48,67,-19,3,65,115,9,-63,-79
78,17,-61,-47,69,-22,7,74,119,3,-63,-87
78,14,-64,-46,71,-25,12,81,121,0,-63,-92
77,12,-65,-44,71,-26,17,82,122,8,-61,-89
77,9,-68,-43,72,-29,22,81,122,28,-58,-80
78,5,-73,-41,75,-34,27,83,119,48,-57,-70
78,0,-78,-39,78,-39,32,86,116,61,-57,-63
78,0,-78,-39,78,-39,38,86,120,62,-58,-64
78,3,-75,-40,76,-36,42,86,128,54,-57,-71
77,4,-73,-40,75,-34,43,90,136,49,-58,-76
77,4,-73,-40,75,-34,43,95,140,47,-58,-78
78,3,-75,-40,76,-36,42,99,141,49,-56,-76
78,4,-74,-41,76,-35,42,101,137,52,-53,-73
76,3,-73,-39,74,-35,44,104,130,53,-51,-71
73,3,-70,-38,71,-33,47,110,125,52,-49,-69
72,5,-67,-38,69,-31,49,118,132,55,-42,-63
72,8,-64,-40,68,-28,52,128,147,61,-32,-55
74,11,-63,-42,68,-26,56,137,159,69,-18,-46
77,13,-64,-45,70,-25,62,144,164,76,-6,-40
78,14,-64,-46,71,-25,64,148,165,79,-1,-36
78,14,-64,-46,71,-25,63,150,164,78,-3,-34
78,14,-64,-46,71,-25,62,153,166,78,-6,-33
78,14,-64,-46,71,-25,62,155,169,78,-9,-33
76,12,-64,-44,70,-26,64,156,169,75,-6,-33
74,9,-65,-41,69,-28,67,156,165,73,-1,-33
69,6,-63,-37,66,-28,70,155,162,73,4,-34
64,3,-61,-33,62,-29,72,156,160,77,8,-34
60,6,-54,-33,57,-24,73,155,162,79,9,-29
58,12,-46,-35,52,-17,72,155,168,81,9,-21
57,18,-39,-37,48,-10,73,157,175,84,8,-13
58,23,-35,-40,46,-6,73,156,180,86,9,-9
57,24,-33,-40,45,-4,70,150,175,87,8,-8
57,23,-34,-40,45,-5,64,138,164,87,8,-8
59,25,-34,-42,46,-4,58,128,153,86,10,-8
62,28,-34,-45,48,-3,53,119,146,86,13,-8
63,31,-32,-47,47,0,50,111,146,87,14,-10
62,33,-29,-47,45,2,48,103,150,87,13,-13
63,34,-29,-48,46,2,45,96,152,85,15,-14
63,34,-29,-48,46,2,43,88,151,82,18,-14
59,32,-27,-45,43,2,42,83,146,80,19,-13
54,30,-24,-42,39,3,42,81,138,78,19,-13
50,25,-25,-37,37,0,43,83,129,77,19,-14
48,20,-28,-34,38,-4,43,86,123,77,19,-14
47,16,-31,-31,39,-7,42,87,119,79,18,-10
47,14,-33,-30,40,-9,42,87,117,81,15,-5
48,13,-35,-30,41,-11,43,85,115,82,10,-1
48,13,-35,-30,41,-11,43,82,112,82,5,-2
47,14,-33,-30,40,-9,42,78,108,81,2,-8
47,14,-33,-30,40,-9,42,73,103,78,0,-16
50,14,-36,-32,43,-11,43,71,99,74,-1,-24
52,14,-38,-33,45,-12,43,68,97,69,-3,-28
52,13,-39,-32,45,-13,42,64,96,64,-3,-27
48,13,-35,-30,41,-11,42,59,97,59,0,-24
45,14,-31,-29,38,-8,43,55,95,53,0,-23
43,14,-29,-28,36,-7,43,53,92,48,0,-24
42,12,-30,-27,36,-9,42,51,88,46,0,-22
42,9,-33,-25,37,-12,39,48,83,43,-3,-19
43,6,-37,-24,40,-15,36,46,77,39,-7,-18
43,4,-39,-23,41,-17,34,43,73,34,-12,-18
42,3,-39,-22,40,-18,33,41,72,33,-16,-18
42,4,-38,-23,40,-17,34,41,72,33,-18,-18
43,3,-40,-23,41,-18,33,48,74,33,-21,-22
43,-1,-44,-21,43,-22,33,59,79,33,-27,-30
41,-13,-54,-14,47,-33,36,72,91,36,-35,-44
39,-26,-65,-6,52,-45,41,84,107,41,-45,-59
40,-33,-73,-3,56,-53,44,93,122,48,-54,-70
42,-37,-79,-2,60,-58,47,100,133,56,-58,-76
43,-45,-88,1,65,-66,51,105,143,62,-50,-82
42,-55,-97,6,69,-76,57,107,153,70,-30,-83
43,-61,-104,9,73,-82,57,104,163,83,-2,-73
46,-59,-105,6,75,-82,51,95,172,104,26,-57
52,-51,-103,0,77,-77,36,77,182,136,52,-41
60,-34,-94,-13,77,-64,15,53,198,181,81,-21
71,-9,-80,-31,75,-44,-9,32,225,240,128,12
83,21,-62,-52,72,-20,-35,8,253,308,194,59
95,49,-46,-72,70,1,-63,-30,262,375,276,115
108,78,-30,-93,69,24,-96,-85,249,444,378,193
125,116,-9,-120,67,53,-139,-151,220,518,505,307
148,165,17,-156,65,91,-193,-232,156,589,651,451
178,223,45,-200,66,134,-256,-339,30,638,805,607
204,286,82,-245,61,184,-323,-469,-186,628,938,761
212,345,133,-278,39,239,-387,-616,-518,519,1024,905
209,406,197,-307,6,301,-444,-757,-897,338,1087,1057
209,476,267,-342,-29,371,-494,-868,-1219,144,1174,1241
201,548,347,-374,-73,447,-533,-945,-1469,-36,1268,1430
164,610,446,-387,-141,528,-555,-997,-1679,-201,1327,1572
103,672,569,-387,-233,620,-570,-1046,-1872,-339,1370,1679
40,755,715,-397,-337,735,-592,-1120,-2062,-443,1439,1791
-15,843,858,-414,-436,850,-618,-1202,-2231,-525,1510,1890
-62,904,966,-421,-514,935,-634,-1256,-2351,-607,1528,1932
-95,939,1034,-422,-564,986,-642,-1280,-2421,-703,1495,1923
-113,962,1075,-424,-594,1018,-648,-1285,-2461,-819,1438,1891
-126,968,1094,-421,-610,1031,-644,-1268,-2469,-946,1325,1817
-150,943,1093,-396,-621,1018,-612,-1219,-2431,-1070,1095,1660
-182,872,1054,-345,-618,963,-554,-1138,-2335,-1183,726,1393
-207,746,953,-269,-580,849,-478,-1028,-2168,-1276,226,1008
-225,591,816,-183,-520,703,-396,-902,-1959,-1335,-279,582
-237,447,684,-105,-460,565,-320,-774,-1751,-1339,-617,227
-243,326,569,-41,-406,447,-251,-651,-1554,-1292,-775,-16
-240,222,462,9,-351,342,-186,-530,-1362,-1207,-818,-154
-224,136,360,44,-292,248,-126,-411,-1175,-1101,-796,-221
-198,69,267,64,-232,168,-77,-296,-995,-995,-747,-264
-170,19,189,75,-179,104,-44,-199,-833,-891,-689,-293
-153,-14,139,83,-146,62,-31,-139,-699,-784,-626,-298
-140,-41,99,90,-119,29,-30,-108,-588,-679,-566,-289
-120,-67,53,93,-86,-7,-22,-84,-485,-583,-511,-283
-97,-92,5,94,-51,-43,-7,-56,-383,-492,-458,-276
-81,-105,-24,93,-28,-64,5,-21,-279,-399,-400,-257
-70,-107,-37,88,-16,-72,16,18,-177,-309,-340,-230
-59,-105,-46,82,-6,-75,24,57,-81,-232,-289,-208
-46,-102,-56,74,5,-79,31,92,0,-170,-248,-193
-33,-102,-69,67,18,-85,40,125,62,-119,-214,-181
-22,-102,-80,62,29,-91,50,150,107,-74,-186,-172
-10,-99,-89,54,39,-94,57,165,140,-33,-165,-163
-1,-93,-92,47,45,-92,62,173,165,1,-149,-157
1,-88,-89,43,45,-88,64,180,179,25,-136,-153
0,-83,-83,41,41,-83,67,188,188,39,-124,-151
0,-75,-75,37,37,-75,70,193,195,50,-116,-148
0,-68,-68,34,34,-68,72,194,202,56,-112,-146
-2,-70,-68,36,33,-69,73,195,209,60,-110,-145
-7,-79,-72,43,32,-75,73,194,216,62,-107,-146
-11,-88,-77,49,33,-82,72,195,225,66,-103,-144
-13,-92,-79,52,33,-85,72,195,232,71,-98,-141
-13,-88,-75,50,31,-81,73,192,234,75,-94,-138
-13,-80,-67,46,27,-73,73,187,230,77,-92,-136
-15,-72,-57,43,21,-64,71,178,224,78,-89,-135
-18,-68,-50,43,16,-59,69,168,219,78,-87,-135
-18,-67,-49,42,15,-58,64,155,217,77,-86,-135
-15,-68,-53,41,19,-60,59,143,218,77,-87,-135
-11,-66,-55,38,22,-60,53,134,221,82,-85,-136
-9,-63,-54,36,22,-58,49,127,224,89,-82,-136
-9,-60,-51,34,21,-55,45,122,221,96,-80,-132
-9,-58,-49,33,20,-53,43,118,215,98,-78,-127
-4,-57,-53,30,24,-55,41,113,209,90,-77,-124
2,-57,-59,27,30,-58,39,108,204,79,-77,-125
4,-58,-62,27,33,-60,38,104,203,76,-78,-126
3,-61,-64,29,33,-62,38,102,203,77,-78,-126
7,-68,-75,30,41,-71,38,99,203,78,-76,-126
13,-76,-89,31,51,-82,38,97,201,77,-73,-126
14,-79,-93,32,53,-86,40,98,196,80,-72,-124
13,-78,-91,32,52,-84,42,101,191,82,-72,-122
17,-77,-94,30,55,-85,43,103,187,78,-74,-121
23,-77,-100,27,61,-88,42,102,185,73,-77,-121
21,-78,-99,28,60,-88,44,99,185,74,-79,-123
15,-78,-93,31,54,-85,47,97,188,80,-81,-125
12,-76,-88,32,50,-82,50,97,194,86,-84,-125
13,-76,-89,31,51,-82,52,97,199,91,-86,-125
14,-83,-97,34,55,-90,54,94,200,92,-86,-129
14,-94,-108,40,61,-101,57,92,199,92,-83,-135
12,-102,-114,45,63,-108,60,93,203,91,-78,-136
9,-106,-115,48,62,-110,62,96,208,92,-77,-135
8,-108,-116,50,62,-112,62,95,208,91,-82,-138
8,-111,-119,51,63,-115,58,92,205,88,-93,-144
9,-114,-123,52,66,-118,55,92,202,83,-105,-147
9,-116,-125,53,67,-120,53,95,202,80,-111,-146
8,-117,-125,54,66,-121,51,99,209,89,-108,-143
8,-117,-125,54,66,-121,48,101,217,103,-99,-137
9,-116,-125,53,67,-120,45,102,221,113,-91,-130
9,-116,-125,53,67,-120,43,102,223,116,-87,-126
8,-119,-127,55,67,-123,42,101,228,116,-86,-128
8,-124,-132,58,70,-128,42,101,236,116,-86,-137
9,-127,-136,59,72,-131,43,105,243,119,-86,-150
9,-130,-139,60,74,-134,43,110,250,124,-86,-162
8,-134,-142,63,75,-138,42,114,259,129,-88,-167
8,-140,-148,66,78,-144,42,116,270,134,-91,-165
9,-141,-150,66,79,-145,44,118,278,141,-94,-163
9,-141,-150,66,79,-145,47,121,285,149,-96,-163
7,-140,-147,66,77,-143,50,125,291,153,-97,-170
4,-141,-145,68,74,-143,52,129,299,155,-97,-181
3,-140,-143,68,73,-141,52,134,309,157,-96,-193
3,-140,-143,68,73,-141,52,139,322,159,-96,-202
5,-145,-150,70,77,-147,54,147,335,165,-98,-207
8,-153,-161,72,84,-157,57,157,348,172,-101,-208
11,-160,-171,74,91,-165,58,169,356,181,-102,-208
13,-164,-177,75,95,-170,57,178,363,188,-102,-208
14,-166,-180,76,97,-173,59,180,372,191,-101,-211
14,-169,-183,77,98,-176,62,179,382,193,-101,-217
13,-172,-185,79,99,-178,63,182,390,199,-103,-223
13,-175,-188,81,100,-181,63,188,394,207,-103,-228
16,-172,-188,78,102,-180,62,191,395,212,-97,-230
22,-166,-188,72,105,-177,62,190,394,213,-88,-229
27,-161,-188,67,107,-174,63,189,396,214,-85,-227
29,-157,-186,64,107,-171,63,189,399,214,-86,-224
27,-151,-178,62,102,-164,60,190,401,212,-89,-222
24,-146,-170,61,97,-158,58,190,400,209,-91,-219
23,-145,-168,61,95,-156,58,189,397,207,-92,-216
23,-146,-169,61,96,-157,59,189,391,204,-92,-214
24,-142,-166,59,95,-154,51,190,385,201,-91,-213
24,-137,-161,56,92,-149,41,190,380,196,-91,-214
23,-134,-157,55,90,-145,36,186,378,192,-92,-213
23,-135,-158,56,90,-146,38,180,376,190,-92,-210
24,-136,-160,56,92,-148,40,179,370,190,-91,-205
27,-135,-162,54,94,-148,42,180,363,190,-88,-201
33,-136,-169,51,101,-152,43,178,356,186,-83,-197
38,-136,-174,49,106,-155,43,175,352,181,-78,-195
36,-132,-168,48,102,-150,42,176,347,178,-77,-193
27,-126,-153,49,90,-139,42,179,342,175,-77,-190
16,-125,-141,54,78,-133,45,178,335,171,-78,-189
9,-123,-132,57,70,-127,51,175,327,166,-78,-186
10,-113,-123,51,66,-118,55,174,321,164,-75,-178
16,-100,-116,42,66,-108,57,175,317,164,-69,-167
23,-92,-115,34,69,-103,57,172,314,164,-63,-161
28,-88,-116,30,72,-102,54,166,309,162,-58,-157
29,-81,-110,26,69,-95,47,161,298,157,-57,-150
29,-71,-100,21,64,-85,36,157,286,151,-58,-142
28,-60,-88,16,58,-74,27,152,276,150,-56,-138
28,-50,-78,11,53,-64,23,147,270,150,-53,-136
29,-42,-71,6,50,-56,27,143,261,150,-51,-133
29,-36,-65,3,47,-50,33,141,251,147,-48,-127
29,-28,-57,0,43,-42,32,138,240,141,-45,-121
29,-20,-49,-4,39,-34,25,136,231,133,-43,-117
28,-14,-42,-7,35,-28,20,137,223,125,-42,-116
28,-10,-38,-9,33,-24,18,140,215,118,-42,-117
29,-6,-35,-11,32,-20,20,142,210,114,-43,-114
29,-4,-33,-12,31,-18,23,141,205,112,-43,-108
28,-3,-31,-12,29,-17,26,138,200,109,-42,-103
28,-3,-31,-12,29,-17,28,136,196,103,-42,-98
32,-5,-37,-13,34,-21,30,137,191,98,-44,-93
37,-8,-45,-14,41,-26,29,140,186,93,-47,-88
40,-9,-49,-15,44,-29,25,140,180,88,-48,-84
39,-9,-48,-15,43,-28,20,136,176,86,-48,-82
38,-8,-46,-15,42,-27,17,133,173,89,-46,-80
39,-8,-47,-15,43,-27,18,128,171,92,-43,-78
38,-12,-50,-13,44,-31,20,116,165,87,-42,-75
38,-17,-55,-10,46,-36,23,101,158,79,-42,-69
41,-20,-61,-10,51,-40,25,88,151,77,-42,-63
46,-19,-65,-13,55,-42,24,79,147,78,-42,-58
50,-15,-65,-17,57,-40,20,73,142,74,-44,-57
52,-10,-62,-21,57,-36,15,69,137,65,-47,-57
54,-7,-61,-23,57,-34,12,65,134,55,-48,-58
57,-7,-64,-25,60,-35,13,63,132,48,-48,-58
58,-13,-71,-22,64,-42,15,63,127,48,-47,-58
58,-21,-79,-18,68,-50,18,63,119,52,-47,-58
57,-29,-86,-14,71,-57,20,59,110,52,-48,-57
57,-33,-90,-12,73,-61,23,54,103,48,-48,-54
58,-31,-89,-13,73,-60,27,51,99,46,-47,-47
58,-25,-83,-16,70,-54,32,52,97,43,-47,-40
57,-21,-78,-18,67,-49,37,54,96,39,-48,-37
57,-19,-76,-19,66,-47,42,56,96,34,-48,-38
60,-19,-79,-20,69,-49,43,61,99,33,-47,-40
65,-19,-84,-23,74,-51,43,66,105,33,-47,-42
73,-17,-90,-28,81,-53,43,69,110,34,-48,-42
80,-14,-94,-33,87,-54,43,68,112,34,-48,-39
84,-11,-95,-36,89,-53,41,64,109,32,-46,-37
86,-9,-95,-38,90,-52,39,59,103,29,-43,-34
88,-7,-95,-40,91,-51,39,55,99,27,-42,-31
91,-8,-99,-41,95,-53,42,53,97,28,-43,-29
93,-11,-104,-41,98,-57,45,52,96,32,-40,-28
92,-17,-109,-37,100,-63,47,52,97,40,-35,-28
89,-22,-111,-33,100,-66,48,54,96,47,-30,-28
87,-24,-111,-31,99,-67,47,56,96,52,-25,-25
89,-22,-111,-33,100,-66,49,61,98,53,-20,-17
94,-19,-113,-37,103,-66,52,66,101,52,-15,-6
101,-18,-119,-41,110,-68,55,72,104,54,-12,1
106,-18,-124,-44,115,-71,57,77,106,57,-9,7
107,-19,-126,-44,116,-72,58,78,107,58,-6,11
107,-18,-125,-44,116,-71,58,78,107,58,-1,13
106,-19,-125,-43,115,-72,57,77,106,57,3,15
106,-19,-125,-43,115,-72,57,77,106,57,8,18
108,-17,-125,-45,116,-71,58,78,107,59,9,20
111,-14,-125,-48,118,-69,58,78,107,62,9,23
113,-12,-125,-50,119,-68,58,77,106,65,8,25
116,-9,-125,-53,120,-67,58,77,106,67,8,28
118,-7,-125,-55,121,-66,57,78,107,68,10,30
121,-4,-125,-58,123,-64,57,81,107,68,13,33
123,-2,-125,-60,124,-63,58,84,106,67,16,36
125,0,-125,-62,125,-62,58,86,106,67,18,38
126,1,-125,-63,125,-62,56,87,107,67,19,39
126,3,-123,-64,124,-60,53,87,107,67,19,38
125,5,-120,-65,122,-57,50,86,106,68,18,39
125,8,-117,-66,121,-54,48,86,106,68,18,39
127,10,-117,-68,122,-53,47,87,107,66,19,36
130,13,-117,-71,123,-52,47,87,107,63,19,31
132,15,-117,-73,124,-51,48,86,106,60,18,24
135,18,-117,-76,126,-49,47,86,106,58,18,19
137,20,-117,-78,127,-48,48,87,107,57,19,20
140,23,-117,-81,128,-47,48,87,107,57,19,26
142,26,-116,-84,129,-45,47,86,106,58,18,33
145,28,-117,-86,131,-44,47,86,106,57,18,38
147,29,-118,-88,132,-44,50,89,108,58,19,39
150,28,-122,-89,136,-47,56,95,111,58,19,39
153,29,-124,-91,138,-47,61,100,113,57,18,38
155,29,-126,-92,140,-48,66,105,115,57,18,38
156,25,-131,-90,143,-53,70,111,120,60,19,39
156,19,-137,-87,146,-59,72,116,125,62,19,39
155,19,-136,-87,145,-58,73,116,124,61,18,36
155,23,-132,-89,143,-54,73,112,118,58,18,30
156,24,-132,-90,144,-54,73,111,114,57,20,26
156,26,-130,-91,143,-52,73,111,112,54,19,24
156,36,-120,-96,138,-42,72,111,112,45,14,22
156,49,-107,-102,131,-29,72,111,112,35,6,19
155,57,-98,-106,126,-20,74,113,110,34,0,18
155,58,-97,-106,126,-19,77,116,107,40,-2,18
156,58,-98,-107,127,-20,77,116,107,45,-6,18
156,58,-98,-107,127,-20,77,116,111,44,-9,18
154,56,-98,-105,126,-21,81,119,113,36,-6,20
151,54,-97,-102,124,-21,89,124,116,25,-1,23
150,50,-100,-100,125,-25,98,127,119,22,2,26
150,48,-102,-99,126,-27,105,129,124,27,3,28
152,48,-104,-100,128,-28,107,134,129,33,4,29
155,48,-107,-101,131,-29,106,143,134,38,4,28
156,46,-110,-101,133,-32,108,152,138,39,3,30
156,43,-113,-99,134,-35,111,160,140,38,3,33
154,44,-110,-99,132,-33,112,160,141,41,5,34
151,47,-104,-99,127,-28,112,156,141,46,8,34
148,48,-100,-98,124,-26,111,155,138,51,9,34
146,47,-99,-96,122,-26,111,156,136,53,9,34
145,49,-96,-97,120,-23,113,154,137,51,7,32
145,52,-93,-98,119,-20,116,151,140,48,4,29
145,53,-92,-99,118,-19,116,152,141,47,2,28
145,53,-92,-99,118,-19,113,155,141,48,0,28
146,52,-94,-99,120,-21,109,156,141,47,0,30
146,52,-94,-99,120,-21,107,155,141,44,0,33
143,53,-90,-98,116,-18,107,157,138,39,0,36
141,53,-88,-97,114,-17,107,160,136,35,0,38
142,52,-90,-97,116,-19,105,160,137,31,-1,39
148,52,-96,-100,122,-22,102,157,140,29,-3,39
157,52,-105,-104,131,-26,101,152,140,28,-4,38
164,52,-112,-108,138,-30,102,147,137,28,-3,38
164,53,-111,-108,137,-29,100,142,133,28,-4,39
158,53,-105,-105,131,-26,97,137,131,28,-7,39
151,52,-99,-101,125,-23,95,133,130,29,-12,37
146,52,-94,-99,120,-21,93,127,131,29,-17,34
146,53,-93,-99,119,-20,88,120,129,25,-19,33
150,53,-97,-101,123,-22,83,110,126,20,-19,33
152,52,-100,-102,126,-24,78,99,124,17,-18,34
151,52,-99,-101,125,-23,74,89,122,18,-18,33
147,56,-91,-101,119,-17,69,84,119,19,-19,34
142,64,-78,-103,110,-7,64,82,113,18,-19,34
138,75,-63,-106,100,6,58,80,108,19,-18,32
136,82,-54,-109,95,14,53,78,103,19,-18,29
135,77,-58,-106,96,9,52,77,98,15,-23,28
135,62,-73,-98,104,-5,52,77,93,6,-31,28
137,47,-90,-92,113,-21,53,78,89,-2,-38,29
140,39,-101,-89,120,-31,53,78,87,-8,-42,29
141,42,-99,-91,120,-28,52,74,87,-8,-43,26
141,54,-87,-97,114,-16,52,65,87,-5,-43,20
141,65,-76,-103,108,-5,53,57,85,-2,-41,16
141,71,-70,-106,105,0,53,50,82,-3,-39,14
139,74,-65,-106,102,4,52,43,80,-6,-40,12
136,73,-63,-104,99,5,52,39,78,-12,-45,10
135,71,-64,-103,99,3,53,38,76,-16,-52,6
136,69,-67,-102,101,1,53,39,74,-18,-57,4
134,64,-70,-99,102,-3,50,37,70,-17,-57,5
131,59,-72,-95,101,-6,44,31,64,-14,-54,8
129,55,-74,-92,101,-9,39,23,59,-12,-51,8
126,53,-73,-89,99,-10,34,15,54,-12,-51,5
124,51,-73,-87,98,-11,33,12,50,-18,-56,0
122,48,-74,-85,98,-13,33,13,48,-29,-65,-6
121,45,-76,-83,98,-15,34,16,47,-44,-74,-13
121,43,-78,-82,99,-17,34,19,48,-56,-81,-18
122,42,-80,-82,101,-19,32,16,47,-56,-81,-18
121,42,-79,-81,100,-18,29,10,44,-46,-78,-14
122,43,-79,-82,100,-18,27,6,39,-35,-77,-13
122,43,-79,-82,100,-18,24,4,34,-29,-77,-13
120,42,-78,-81,99,-18,21,3,33,-30,-77,-14
117,43,-74,-80,95,-15,16,3,33,-36,-77,-17
114,42,-72,-78,93,-15,9,4,34,-44,-79,-22
112,42,-70,-77,91,-14,4,4,33,-51,-81,-28
111,43,-68,-77,89,-12,5,2,34,-53,-83,-29
111,43,-68,-77,89,-12,11,2,37,-53,-85,-28
112,41,-71,-76,91,-15,17,8,42,-53,-90,-31
112,36,-76,-74,94,-20,22,19,49,-53,-95,-39
111,25,-86,-68,98,-30,27,33,61,-49,-98,-51
111,12,-99,-61,105,-43,32,48,77,-41,-97,-64
114,3,-111,-58,112,-54,36,61,91,-33,-95,-73
120,0,-120,-60,120,-60,38,71,103,-23,-90,-77
124,-1,-125,-61,124,-63,40,73,114,-7,-77,-79
129,0,-129,-64,129,-64,40,70,126,15,-59,-79
135,3,-132,-69,133,-64,34,62,140,44,-37,-71
143,14,-129,-78,136,-57,23,49,152,79,-8,-51
150,30,-120,-90,135,-45,8,26,162,122,36,-20
157,53,-104,-105,130,-25,-11,0,176,178,98,22
168,86,-82,-127,125,2,-36,-26,208,251,177,78
181,123,-58,-152,119,32,-63,-55,237,331,269,145
191,160,-31,-175,111,64,-93,-100,225,404,374,225
200,199,-1,-199,100,99,-127,-162,176,473,496,328
215,248,33,-231,91,140,-173,-236,109,550,644,471
236,306,70,-271,83,188,-228,-323,16,624,811,641
260,368,108,-314,76,238,-289,-431,-132,669,986,810
276,432,156,-354,60,294,-350,-559,-373,647,1143,972
274,495,221,-384,26,358,-409,-705,-739,521,1257,1132
261,559,298,-410,-18,428,-462,-848,-1147,329,1342,1293
254,625,371,-439,-58,498,-508,-957,-1456,151,1436,1456
243,691,448,-467,-102,569,-543,-1030,-1655,10,1533,1604
201,752,551,-476,-175,651,-562,-1081,-1812,-106,1607,1711
137,809,672,-473,-267,740,-571,-1125,-1961,-211,1656,1784
79,870,791,-474,-356,830,-583,-1178,-2111,-312,1688,1845
35,926,891,-480,-428,908,-596,-1231,-2243,-412,1698,1881
3,961,958,-482,-477,959,-602,-1260,-2330,-509,1665,1864
-19,968,987,-474,-503,977,-598,-1259,-2364,-614,1581,1798
-31,952,983,-460,-507,967,-583,-1233,-2355,-741,1437,1703
-42,906,948,-432,-495,927,-548,-1176,-2302,-887,1196,1553
-64,819,883,-377,-473,851,-483,-1084,-2195,-1036,808,1296
-93,700,793,-303,-443,746,-397,-966,-2042,-1166,323,959
-114,567,681,-226,-397,624,-315,-845,-1861,-1252,-143,608
-124,432,556,-154,-340,494,-242,-723,-1665,-1284,-503,296
-127,304,431,-88,-279,367,-171,-595,-1464,-1262,-691,56
-127,192,319,-32,-223,255,-106,-470,-1270,-1194,-743,-103
-121,105,226,8,-173,165,-51,-366,-1091,-1098,-746,-197
-108,44,152,32,-130,98,-10,-283,-928,-984,-729,-241
-83,3,86,40,-84,44,18,-207,-774,-865,-679,-253
-55,-22,33,38,-44,5,35,-140,-632,-751,-608,-250
-39,-41,-2,40,-18,-21,41,-89,-509,-650,-540,-243
-31,-58,-27,44,-2,-42,42,-52,-403,-562,-481,-236
-19,-72,-53,45,17,-62,47,-24,-302,-483,-426,-229
-1,-84,-83,42,41,-83,59,0,-208,-405,-372,-218
13,-89,-102,38,57,-95,69,27,-126,-324,-322,-201
25,-88,-113,31,69,-100,76,54,-55,-243,-276,-181
37,-81,-118,22,77,-99,79,79,7,-173,-238,-164
50,-74,-124,12,87,-99,80,103,62,-120,-208,-153
56,-72,-128,8,92,-100,87,128,106,-84,-184,-145
58,-73,-131,7,94,-102,98,150,138,-59,-165,-138
57,-70,-127,6,92,-98,107,162,157,-40,-154,-131
57,-64,-121,3,89,-92,111,165,167,-23,-148,-127
58,-62,-120,2,89,-91,111,164,174,-10,-140,-124
58,-62,-120,2,89,-91,107,162,178,-1,-132,-122
57,-62,-119,2,88,-90,105,156,182,1,-130,-120
57,-59,-116,1,86,-87,103,148,184,0,-130,-117
58,-55,-113,-1,85,-84,98,140,186,0,-129,-116
61,-50,-111,-5,86,-80,89,133,189,2,-124,-117
67,-42,-109,-12,88,-75,81,126,192,7,-116,-115
72,-35,-107,-18,89,-71,74,119,194,12,-108,-113
71,-33,-104,-19,87,-68,72,112,194,16,-104,-109
65,-37,-102,-14,83,-69,73,105,191,18,-102,-107
57,-42,-99,-7,78,-70,71,93,186,20,-100,-106
49,-46,-95,-1,72,-70,68,80,181,19,-97,-106
46,-50,-96,2,71,-73,67,75,178,15,-96,-106
47,-52,-99,2,73,-75,67,76,179,10,-97,-106
48,-53,-101,2,74,-77,67,81,182,8,-95,-107
48,-53,-101,2,74,-77,67,86,184,11,-92,-107
45,-52,-97,3,71,-74,69,87,183,19,-91,-105
42,-52,-94,5,68,-73,71,87,177,27,-91,-102
46,-54,-100,4,73,-77,75,86,170,28,-93,-102
52,-57,-109,2,80,-83,77,86,165,21,-95,-106
50,-57,-107,3,78,-82,78,86,165,14,-99,-107
44,-57,-101,6,72,-79,78,86,168,6,-101,-107
42,-60,-102,9,72,-81,78,87,171,-1,-102,-106
43,-66,-109,11,76,-87,78,87,171,-8,-101,-106
39,-69,-108,15,73,-88,77,84,165,-7,-102,-107
31,-68,-99,18,65,-83,74,76,154,-1,-105,-110
26,-67,-93,20,59,-80,69,65,144,0,-110,-115
25,-67,-92,21,58,-79,64,55,137,-2,-115,-120
19,-69,-88,25,53,-78,62,50,134,-5,-119,-124
11,-72,-83,30,47,-77,62,51,135,-8,-121,-125
6,-73,-79,33,42,-76,63,55,138,-11,-123,-125
4,-75,-79,35,41,-77,62,58,140,-13,-125,-125
3,-84,-87,40,45,-85,63,56,139,-13,-127,-126
1,-97,-98,48,49,-97,66,53,136,-10,-130,-127
-3,-109,-106,56,51,-107,70,54,137,-6,-132,-122
-7,-116,-109,61,51,-112,73,58,140,-4,-135,-116
-9,-115,-106,62,48,-110,70,54,139,-4,-136,-121
-9,-109,-100,59,45,-104,65,45,133,-7,-136,-132
-8,-103,-95,55,43,-99,59,39,127,-12,-134,-140
-8,-98,-90,53,41,-94,54,38,125,-14,-131,-144
-9,-94,-85,51,38,-89,51,40,127,-9,-130,-149
-9,-89,-80,49,35,-84,48,42,130,0,-130,-157
-8,-82,-74,45,33,-78,46,43,129,8,-132,-167
-8,-77,-69,42,30,-73,43,43,125,9,-135,-174
-9,-82,-73,45,32,-77,42,43,128,6,-136,-173
-9,-93,-84,51,37,-88,42,46,137,1,-136,-166
-8,-102,-94,55,43,-98,43,52,146,-1,-136,-163
-8,-109,-101,58,46,-105,43,60,153,0,-136,-164
-10,-116,-106,63,48,-111,42,65,159,0,-135,-165
-13,-124,-111,68,49,-117,42,67,163,2,-132,-165
-15,-128,-113,71,49,-120,44,69,167,7,-128,-164
-18,-130,-112,74,47,-121,47,71,169,12,-125,-164
-20,-131,-111,75,45,-121,48,75,171,16,-128,-167
-23,-131,-108,77,42,-119,48,80,173,18,-133,-173
-24,-130,-106,77,41,-118,45,85,178,20,-139,-177
-23,-129,-106,76,41,-117,43,90,186,23,-144,-182
-25,-134,-109,79,42,-121,44,95,196,25,-149,-191
-27,-143,-116,85,44,-129,47,100,206,28,-154,-204
-31,-150,-119,90,44,-134,48,105,211,30,-158,-217
-33,-154,-121,93,44,-137,47,110,216,33,-160,-227
-34,-158,-124,96,45,-141,49,113,227,36,-160,-230
-34,-163,-129,98,47,-146,52,115,242,40,-160,-229
-34,-168,-134,101,50,-151,53,121,256,48,-162,-228
-34,-173,-139,103,52,-156,53,128,266,59,-162,-228
-32,-175,-143,103,55,-159,52,133,270,69,-155,-230
-29,-175,-146,102,58,-160,52,135,272,78,-144,-233
-27,-175,-148,101,60,-161,53,137,275,88,-137,-234
-28,-175,-147,101,59,-161,53,140,281,95,-135,-234
-31,-171,-140,101,54,-155,52,141,286,98,-137,-233
-37,-166,-129,101,46,-147,52,141,290,97,-140,-233
-41,-165,-124,103,41,-144,55,140,293,97,-141,-234
-42,-165,-123,103,40,-144,58,140,293,97,-141,-233
-43,-160,-117,101,37,-138,52,141,288,95,-139,-234
-43,-149,-106,96,31,-127,41,141,280,92,-137,-234
-42,-139,-97,90,27,-118,36,137,273,91,-133,-233
-42,-135,-93,88,25,-114,37,131,268,91,-131,-230
-43,-139,-96,91,26,-117,41,131,267,91,-130,-224
-43,-151,-108,97,32,-129,46,134,271,88,-131,-216
-41,-164,-123,102,41,-143,50,136,277,81,-129,-209
-39,-174,-135,106,48,-154,53,136,282,74,-126,-204
-38,-172,-134,105,48,-153,50,135,279,72,-124,-204
-38,-163,-125,100,43,-144,44,132,267,76,-122,-207
-38,-157,-119,97,40,-138,41,125,253,79,-120,-212
-38,-152,-114,95,38,-133,42,118,241,79,-117,-214
-39,-145,-106,92,33,-125,45,117,236,74,-116,-210
-42,-137,-95,89,26,-116,47,121,237,66,-116,-205
-44,-134,-90,89,23,-112,47,121,240,55,-117,-204
-47,-135,-88,91,20,-111,44,118,240,45,-116,-205
-48,-136,-88,92,20,-112,39,114,233,40,-117,-198
-48,-136,-88,92,20,-112,35,112,222,41,-117,-184
-47,-136,-89,91,21,-112,32,110,213,45,-116,-173
-47,-136,-89,91,21,-112,32,108,209,51,-113,-166
-48,-135,-87,91,19,-111,37,104,208,56,-109,-161
-48,-132,-84,90,18,-108,43,99,209,58,-103,-157
-47,-128,-81,87,17,-104,39,91,207,55,-98,-153
-47,-123,-76,85,14,-99,30,83,202,49,-93,-148
-48,-118,-70,83,11,-94,28,81,195,46,-88,-141
-48,-113,-65,80,8,-89,32,85,187,47,-83,-133
-47,-109,-62,78,7,-85,36,89,180,48,-78,-125
-47,-107,-60,77,6,-83,38,92,176,48,-74,-118
-48,-106,-58,77,5,-82,39,89,173,45,-70,-114
-48,-106,-58,77,5,-82,39,84,170,41,-68,-112
-47,-106,-59,76,6,-82,38,78,168,35,-67,-110
-47,-106,-59,76,6,-82,38,77,165,30,-67,-107
-48,-108,-60,78,6,-84,39,81,164,28,-68,-105
-48,-110,-62,79,7,-86,39,88,164,28,-68,-102
-47,-113,-66,80,9,-89,38,97,164,29,-67,-100
-47,-116,-69,81,11,-92,38,105,164,28,-68,-97
-48,-117,-69,82,10,-93,39,109,165,29,-67,-96
-48,-117,-69,82,10,-93,39,108,165,29,-67,-96
-47,-116,-69,81,11,-92,37,103,161,27,-68,-96
-47,-116,-69,81,11,-92,35,94,154,24,-68,-96
-48,-118,-70,83,11,-94,32,87,145,24,-67,-97
-48,-121,-73,84,12,-97,29,80,137,24,-66,-97
-47,-122,-75,84,14,-98,27,73,134,20,-72,-93
-47,-122,-75,84,14,-98,25,66,132,15,-79,-88
-49,-120,-71,84,11,-95,20,56,127,14,-83,-87
-52,-117,-65,84,6,-91,12,44,122,17,-82,-90
-54,-116,-62,85,4,-89,1,28,122,19,-80,-93
-57,-116,-59,86,1,-87,-7,12,122,16,-77,-95
-59,-117,-58,88,0,-87,-9,4,117,6,-79,-99
-62,-117,-55,89,-3,-86,-5,1,106,-6,-84,-105
-63,-116,-53,89,-5,-84,-1,-4,95,-11,-91,-110
-62,-116,-54,89,-4,-85,0,-11,88,-9,-99,-115
-63,-118,-55,90,-4,-86,0,-16,85,-8,-105,-120
-66,-123,-57,94,-4,-90,0,-18,82,-11,-110,-124
-71,-131,-60,101,-5,-95,0,-20,79,-19,-115,-128
-76,-139,-63,107,-6,-101,2,-23,74,-27,-120,-130
-78,-140,-62,109,-8,-101,6,-25,70,-30,-123,-131
-78,-137,-59,107,-9,-98,11,-24,65,-29,-124,-131
-77,-135,-58,106,-9,-96,17,-21,57,-29,-129,-130
-77,-135,-58,106,-9,-96,22,-18,49,-32,-135,-130
-78,-135,-57,106,-10,-96,25,-23,46,-36,-134,-132
-78,-135,-57,106,-10,-96,24,-35,47,-38,-128,-135
-78,-137,-59,107,-9,-98,21,-43,46,-39,-122,-136
-78,-140,-62,109,-8,-101,15,-47,43,-39,-117,-136
-77,-141,-64,109,-6,-102,11,-49,42,-38,-116,-134
-77,-141,-64,109,-6,-102,9,-52,40,-38,-116,-132
-79,-140,-61,109,-9,-100,9,-53,35,-40,-117,-129
-81,-140,-59,110,-11,-99,9,-53,29,-42,-117,-126
-82,-140,-58,111,-12,-99,6,-51,30,-42,-115,-124
-82,-140,-58,111,-12,-99,1,-48,37,-40,-109,-122
-80,-141,-61,110,-9,-101,-2,-47,40,-35,-101,-120
-78,-141,-63,109,-7,-102,-3,-48,39,-30,-93,-118
-76,-138,-62,107,-7,-100,-4,-46,37,-27,-90,-115
-73,-133,-60,103,-6,-96,-4,-44,34,-24,-90,-112
-71,-127,-56,99,-7,-91,-3,-41,33,-22,-94,-111
-68,-122,-54,95,-7,-88,-3,-39,33,-19,-97,-112
-66,-121,-55,93,-5,-88,-4,-37,34,-19,-95,-110
-63,-121,-58,92,-2,-89,-4,-35,34,-19,-89,-107
-62,-122,-60,92,-1,-91,-3,-32,33,-16,-83,-105
-62,-122,-60,92,-1,-91,-3,-29,33,-10,-79,-103
-64,-121,-57,92,-3,-89,-4,-28,33,-7,-76,-99
-67,-121,-54,94,-6,-87,-4,-28,33,-8,-73,-93
-68,-122,-54,95,-7,-88,-3,-29,34,-9,-71,-89
-68,-122,-54,95,-7,-88,-4,-29,34,-9,-68,-87
-65,-121,-56,93,-4,-88,-3,-26,33,-7,-67,-86
-60,-118,-58,89,-1,-88,-3,-21,33,-4,-68,-86
-52,-113,-61,82,4,-87,-4,-15,35,-2,-66,-86
-44,-108,-64,76,10,-86,-4,-10,37,0,-63,-86
-41,-104,-63,72,11,-83,-3,-8,40,1,-62,-87
-42,-102,-60,72,9,-81,-3,-8,42,3,-63,-87
-43,-102,-59,72,8,-80,-4,-9,43,4,-61,-85
-43,-102,-59,72,8,-80,-4,-8,43,4,-58,-82
-41,-99,-58,70,8,-78,-3,-9,42,2,-57,-81
-36,-93,-57,64,10,-75,-3,-9,42,0,-57,-81
-28,-89,-61,58,16,-75,-4,-6,43,0,-58,-82
-20,-87,-67,53,23,-77,-4,-1,43,0,-58,-82
-17,-85,-68,51,25,-76,-3,3,42,1,-56,-79
-18,-83,-65,50,23,-74,0,7,42,3,-53,-74
-19,-79,-60,49,20,-69,1,11,43,4,-52,-72
-19,-74,-55,46,18,-64,3,13,43,3,-52,-72
-18,-69,-51,43,16,-60,4,13,42,5,-53,-72
-15,-64,-49,39,17,-56,4,13,42,8,-53,-69
-10,-59,-49,34,19,-54,3,15,44,9,-52,-64
-5,-54,-49,29,22,-51,3,18,46,9,-52,-59
-2,-52,-50,27,24,-51,4,19,49,7,-53,-57
-3,-52,-49,27,23,-50,4,18,52,5,-56,-61
-4,-53,-49,28,22,-51,3,20,53,2,-61,-67
-4,-53,-49,28,22,-51,3,22,53,0,-66,-72
-2,-51,-49,26,23,-50,4,25,52,0,-68,-72
2,-48,-50,23,26,-49,4,27,52,0,-67,-68
7,-46,-53,19,30,-49,3,31,53,-1,-69,-67
12,-44,-56,16,34,-50,3,33,53,-3,-71,-67
15,-40,-55,12,35,-47,5,33,52,-4,-74,-67
18,-35,-53,8,35,-44,8,33,52,-3,-76,-67
20,-32,-52,6,36,-42,10,37,54,-4,-80,-70
23,-32,-55,4,39,-43,12,48,59,-4,-85,-78
25,-38,-63,6,44,-50,18,61,71,-1,-87,-90
27,-45,-72,9,49,-58,26,73,86,6,-87,-103
32,-49,-81,8,56,-65,33,84,100,13,-86,-111
40,-48,-88,4,64,-68,37,90,112,23,-81,-115
47,-47,-94,0,70,-70,40,92,124,40,-68,-118
54,-45,-99,-4,76,-72,40,89,136,66,-48,-118
64,-37,-101,-13,82,-69,34,82,148,99,-21,-110
74,-24,-98,-25,86,-61,24,69,161,136,10,-91
82,-9,-91,-36,86,-50,8,47,171,176,50,-63
89,10,-79,-49,84,-34,-10,19,186,222,102,-25
98,37,-61,-67,79,-12,-34,-7,214,285,172,24
111,72,-39,-91,75,16,-62,-34,243,358,258,86
127,114,-13,-120,70,50,-92,-75,244,426,351,159
147,163,16,-155,65,89,-129,-132,215,490,456,253
172,224,52,-198,60,138,-177,-199,169,565,589,386
202,291,89,-246,56,190,-235,-281,94,635,742,548
232,358,126,-295,53,242,-297,-386,-40,664,893,712
254,421,167,-337,43,294,-358,-514,-269,618,1018,866
257,482,225,-369,16,353,-415,-658,-620,466,1098,1014
249,544,295,-396,-23,419,-469,-801,-1022,249,1152,1167
247,615,368,-431,-60,491,-519,-918,-1342,49,1226,1340
242,690,448,-466,-103,569,-562,-1003,-1561,-108,1314,1514
207,759,552,-483,-172,655,-591,-1066,-1737,-245,1376,1650
148,824,676,-486,-264,750,-608,-1119,-1901,-368,1412,1745
91,891,800,-491,-354,845,-624,-1180,-2060,-473,1445,1824
47,953,906,-500,-429,929,-639,-1241,-2198,-566,1466,1879
14,991,977,-502,-481,984,-648,-1278,-2289,-658,1441,1884
-7,1004,1011,-498,-509,1007,-646,-1286,-2330,-759,1364,1837
-23,1002,1025,-489,-524,1013,-635,-1269,-2339,-874,1251,1750
-39,978,1017,-469,-528,997,-607,-1225,-2314,-1000,1063,1601
-67,917,984,-425,-525,950,-549,-1145,-2239,-1128,738,1353
-101,818,919,-358,-510,868,-470,-1038,-2112,-1242,299,1019
-124,695,819,-285,-471,757,-388,-920,-1944,-1324,-160,648
-134,564,698,-215,-416,631,-313,-797,-1751,-1361,-545,292
-137,440,577,-151,-357,508,-243,-670,-1555,-1343,-762,3
-136,332,468,-98,-302,400,-178,-545,-1365,-1277,-828,-196
-133,242,375,-54,-254,308,-120,-434,-1187,-1180,-836,-307
-123,172,295,-24,-209,233,-72,-336,-1021,-1067,-819,-349
-102,121,223,-9,-162,172,-37,-245,-862,-950,-770,-360
-76,88,164,-6,-120,126,-14,-165,-717,-835,-700,-358
-58,62,120,-2,-89,91,-3,-108,-592,-729,-629,-351
-47,41,88,3,-67,64,1,-73,-485,-633,-564,-343
-31,21,52,5,-41,36,11,-46,-386,-546,-503,-336
-10,4,14,3,-12,9,28,-19,-292,-461,-445,-327
4,-3,-7,0,5,-5,41,8,-203,-371,-389,-309
15,-2,-17,-6,16,-9,50,37,-120,-280,-339,-286
26,4,-22,-15,24,-9,55,65,-46,-199,-296,-266
39,12,-27,-25,33,-7,60,92,18,-135,-260,-252
47,14,-33,-30,40,-9,68,118,69,-91,-228,-241
51,13,-38,-32,44,-12,78,139,106,-62,-199,-232
54,16,-38,-35,46,-11,87,152,131,-38,-176,-223
57,22,-35,-39,46,-6,92,156,146,-16,-160,-216
58,24,-34,-41,46,-5,88,154,156,1,-149,-210
58,23,-35,-40,46,-6,77,149,162,15,-142,-205
57,25,-32,-41,44,-3,64,139,168,23,-140,-200
58,28,-30,-43,44,-1,54,128,173,27,-141,-196
57,29,-28,-43,42,0,53,123,176,30,-138,-194
57,28,-29,-42,43,0,60,122,179,32,-129,-194
59,30,-29,-44,44,0,66,120,181,36,-119,-194
62,33,-29,-47,45,2,71,117,183,41,-109,-191
63,34,-29,-48,46,2,75,115,186,45,-104,-185
63,34,-29,-48,46,2,77,113,189,47,-102,-177
61,32,-29,-46,45,1,77,108,190,48,-100,-170
58,30,-28,-44,43,1,77,100,190,48,-97,-166
57,26,-31,-41,44,-2,79,92,187,47,-96,-164
57,20,-37,-38,47,-8,84,87,181,47,-97,-164
58,16,-42,-37,50,-13,91,86,177,51,-96,-166
58,13,-45,-35,51,-16,96,87,175,59,-93,-166
56,15,-41,-35,48,-13,94,86,174,69,-88,-161
56,18,-38,-37,47,-10,85,83,175,76,-83,-153
62,19,-43,-40,52,-12,76,80,174,76,-79,-148
71,18,-53,-44,62,-17,69,78,174,70,-78,-146
72,20,-52,-46,62,-16,67,77,176,64,-78,-145
68,23,-45,-45,56,-11,67,77,179,60,-78,-145
68,23,-45,-45,56,-11,68,77,180,52,-77,-146
72,19,-53,-45,62,-17,68,77,180,47,-74,-146
73,18,-55,-45,64,-18,68,78,178,53,-70,-144
72,18,-54,-45,63,-18,68,78,175,68,-68,-141
75,19,-56,-47,65,-18,66,76,174,77,-67,-140
80,19,-61,-49,70,-21,64,73,174,81,-68,-140
81,18,-63,-49,72,-22,61,73,176,84,-66,-141
78,18,-60,-48,69,-21,59,76,182,89,-64,-141
78,19,-59,-48,68,-20,56,81,190,95,-61,-139
80,19,-61,-49,70,-21,53,86,198,100,-59,-136
84,18,-66,-51,75,-24,52,85,200,103,-55,-135
86,18,-68,-52,77,-25,52,82,199,106,-50,-132
86,21,-65,-53,75,-22,53,82,202,108,-44,-126
86,27,-59,-56,72,-16,53,86,207,111,-39,-118
89,31,-58,-60,73,-13,52,87,209,112,-38,-117
94,33,-61,-63,77,-14,52,86,209,112,-39,-121
100,35,-65,-67,82,-15,53,89,209,111,-38,-121
105,38,-67,-71,86,-14,53,94,212,110,-35,-118
107,39,-68,-73,87,-14,52,99,217,115,-31,-115
107,39,-68,-73,87,-14,52,101,222,121,-29,-112
106,38,-68,-72,87,-15,53,102,224,121,-29,-110
106,39,-67,-72,86,-14,53,101,223,117,-29,-107
109,38,-71,-73,90,-16,52,102,227,118,-26,-105
114,38,-76,-76,95,-19,52,104,235,126,-21,-105
120,40,-80,-80,100,-20,53,111,243,139,-15,-110
124,42,-82,-83,103,-20,53,119,250,152,-10,-115
126,42,-84,-84,105,-21,52,124,257,159,-6,-117
126,39,-87,-82,106,-24,52,125,265,163,-1,-113
125,39,-86,-82,105,-23,54,126,271,168,3,-109
125,41,-84,-83,104,-21,57,129,276,177,7,-107
126,44,-82,-85,104,-19,58,133,281,183,9,-107
129,46,-83,-87,106,-18,58,138,288,188,9,-110
134,50,-84,-92,109,-17,56,144,298,192,8,-113
140,53,-87,-96,113,-17,53,148,311,197,8,-115
138,50,-88,-94,113,-19,53,154,326,204,9,-118
130,42,-88,-86,109,-23,57,161,341,214,12,-121
119,34,-85,-76,102,-25,58,170,352,226,17,-122
112,29,-83,-70,97,-27,57,178,362,236,22,-121
114,29,-85,-71,99,-28,59,180,373,241,25,-122
125,32,-93,-78,109,-30,62,179,385,245,24,-125
139,36,-103,-87,121,-33,63,182,396,253,23,-127
149,38,-111,-93,130,-36,62,188,403,264,23,-129
149,39,-110,-94,129,-35,63,191,405,271,26,-132
140,39,-101,-89,120,-31,66,190,405,272,32,-135
128,38,-90,-83,109,-26,70,189,405,273,34,-136
118,38,-80,-78,99,-21,72,189,408,273,31,-136
117,41,-76,-79,96,-17,71,190,409,271,24,-135
126,46,-80,-86,103,-17,68,190,409,268,16,-136
138,48,-90,-93,114,-21,68,189,407,266,10,-135
149,47,-102,-98,125,-27,69,189,402,264,5,-135
150,51,-99,-100,124,-24,63,190,395,259,2,-137
143,59,-84,-101,113,-12,55,190,387,250,0,-140
137,66,-71,-101,104,-2,52,187,381,244,0,-141
132,68,-64,-100,98,2,56,181,376,240,-2,-141
128,65,-63,-96,95,1,60,179,371,236,-5,-140
123,56,-67,-89,95,-5,62,180,367,231,-8,-140
119,47,-72,-83,95,-12,63,178,364,223,-9,-142
117,39,-78,-78,97,-19,63,175,362,212,-8,-145
116,40,-76,-78,96,-18,61,176,357,205,-9,-145
116,45,-71,-80,93,-13,58,179,349,201,-12,-142
117,49,-68,-83,92,-9,58,179,339,196,-15,-139
117,51,-66,-84,91,-7,62,176,329,188,-18,-136
115,56,-59,-85,87,-1,63,172,322,180,-20,-134
113,61,-52,-87,82,4,60,167,318,173,-23,-134
110,62,-48,-86,79,7,53,159,315,164,-25,-139
107,59,-48,-83,77,5,45,149,310,154,-27,-145
105,57,-48,-81,76,4,40,143,300,146,-30,-143
103,57,-46,-80,74,5,39,141,290,141,-33,-134
100,58,-42,-79,71,8,39,140,283,140,-33,-127
97,58,-39,-77,68,9,41,137,280,141,-33,-126
96,57,-39,-76,67,9,46,133,273,139,-35,-126
96,54,-42,-75,69,6,52,128,262,133,-40,-126
97,50,-47,-73,72,1,51,122,251,125,-46,-125
97,47,-50,-72,73,-1,45,117,242,115,-51,-125
96,50,-46,-73,71,2,39,117,233,106,-53,-126
96,55,-41,-75,68,7,35,120,226,99,-53,-126
97,60,-37,-78,67,11,33,123,220,94,-52,-123
97,62,-35,-79,66,13,33,123,216,92,-53,-118
95,63,-32,-79,63,15,35,119,210,90,-52,-114
92,63,-29,-77,60,17,38,113,203,87,-52,-112
92,61,-31,-76,61,15,40,110,195,86,-54,-110
96,58,-38,-77,67,10,39,111,187,83,-56,-108
97,57,-40,-77,68,8,36,112,181,77,-59,-105
97,57,-40,-77,68,8,30,112,176,70,-62,-103
97,58,-39,-77,68,9,27,110,172,66,-63,-100
97,58,-39,-77,68,9,27,107,170,64,-63,-97
94,55,-39,-74,66,8,31,105,170,58,-62,-96
88,49,-39,-68,63,5,37,106,173,50,-62,-96
85,46,-39,-65,62,3,40,109,178,46,-62,-97
86,46,-40,-66,63,3,42,115,184,47,-62,-97
87,51,-36,-69,61,7,43,119,184,48,-63,-96
87,56,-31,-71,59,12,46,121,181,48,-63,-96
86,58,-28,-72,57,15,52,123,179,47,-61,-97
86,58,-28,-72,57,15,60,128,180,47,-58,-97
87,58,-29,-72,58,14,65,135,179,50,-57,-96
87,61,-26,-74,56,17,67,143,176,56,-57,-93
86,66,-20,-76,53,23,69,148,173,58,-58,-89
86,71,-15,-78,50,28,71,150,170,57,-58,-84
87,73,-14,-80,50,29,75,152,169,59,-56,-78
87,70,-17,-78,52,26,79,154,169,62,-54,-73
86,64,-22,-75,54,21,85,158,170,63,-51,-73
86,59,-27,-72,56,16,90,162,173,62,-49,-76
87,56,-31,-71,59,12,94,169,177,64,-45,-79
90,57,-33,-73,61,12,99,177,182,70,-41,-79
94,59,-35,-76,64,12,106,182,187,77,-35,-75
100,61,-39,-80,69,11,111,185,190,81,-30,-69
104,64,-40,-84,72,12,109,184,187,79,-26,-66
106,67,-39,-86,72,14,103,183,182,71,-24,-67
108,68,-40,-88,74,14,101,188,177,62,-24,-68
110,67,-43,-88,76,12,102,191,175,57,-24,-68
113,68,-45,-90,79,11,99,182,174,61,-20,-67
116,71,-45,-93,80,13,90,163,174,72,-12,-64
117,76,-41,-96,79,17,81,145,175,84,-3,-60
116,81,-35,-98,75,23,72,131,175,91,2,-54
117,81,-36,-99,76,22,61,117,172,90,4,-50
120,78,-42,-99,81,18,48,103,167,84,3,-48
123,77,-46,-100,84,15,34,87,162,79,5,-48
125,77,-48,-101,86,14,22,72,158,78,8,-48
126,78,-48,-102,87,15,16,62,151,76,9,-45
126,78,-48,-102,87,15,14,55,140,74,9,-37
125,77,-48,-101,86,14,12,48,129,71,8,-28
125,77,-48,-101,86,14,9,41,120,68,8,-20
126,78,-48,-102,87,15,8,36,113,67,9,-17
126,80,-46,-103,86,17,8,34,108,67,9,-18
125,83,-42,-104,83,20,9,32,103,68,8,-19
125,86,-39,-105,82,23,9,29,98,68,8,-19
128,87,-41,-107,84,23,9,28,96,66,9,-16
133,87,-46,-110,89,20,9,28,96,64,9,-11
139,86,-53,-112,96,16,8,29,97,61,8,-5
144,86,-58,-115,101,14,8,29,97,58,8,-1
146,87,-59,-116,102,14,10,28,96,57,8,0
146,87,-59,-116,102,14,12,28,96,57,8,0
145,86,-59,-115,102,13,15,29,97,58,9,0
145,86,-59,-115,102,13,18,29,97,58,9,0
146,86,-60,-116,103,13,19,28,96,55,8,0
146,86,-60,-116,103,13,19,28,96,50,8,-2
145,87,-58,-116,101,14,18,28,97,44,9,-5
145,87,-58,-116,101,14,18,28,97,40,9,-8
146,86,-60,-116,103,13,19,29,95,38,8,-10
146,86,-60,-116,103,13,19,29,93,38,8,-12
146,87,-59,-116,102,14,18,28,90,39,9,-15
146,87,-59,-116,102,14,18,28,88,39,9,-18
145,85,-60,-115,102,12,19,29,84,37,7,-19
145,83,-62,-114,103,10,19,29,80,35,2,-19
146,80,-66,-113,106,7,18,28,74,32,-3,-18
146,78,-68,-112,107,5,18,28,69,29,-7,-18
145,77,-68,-111,106,4,20,30,67,28,-9,-20
145,77,-68,-111,106,4,22,32,67,28,-9,-22
146,78,-68,-112,107,5,25,35,67,28,-8,-25
146,78,-68,-112,107,5,28,38,67,28,-8,-28
144,78,-66,-111,105,6,30,40,68,29,-10,-29
138,78,-60,-108,99,9,32,42,71,32,-12,-29
132,77,-55,-104,93,11,35,44,74,35,-15,-28
127,77,-50,-102,88,13,38,46,77,38,-18,-28
125,78,-47,-101,86,15,40,49,78,39,-19,-29
125,80,-45,-102,85,17,42,51,78,38,-19,-29
125,83,-42,-104,83,20,44,54,77,40,-18,-28
125,86,-39,-105,82,23,47,57,77,40,-18,-28
128,87,-41,-107,84,23,48,58,78,34,-20,-29
137,87,-50,-112,93,18,48,58,78,20,-22,-29
146,86,-60,-116,103,13,47,57,77,4,-25,-28
154,86,-68,-120,111,9,47,57,77,-7,-28,-28
157,87,-70,-122,113,8,49,59,78,-7,-29,-29
156,87,-69,-121,112,9,51,61,78,3,-29,-29
155,86,-69,-120,112,8,54,64,77,16,-28,-28
155,86,-69,-120,112,8,57,67,77,26,-28,-28
158,89,-69,-123,113,10,58,69,78,30,-29,-29
163,95,-68,-129,115,13,57,71,80,29,-29,-29
166,98,-68,-132,117,15,58,75,84,28,-28,-28
169,100,-69,-134,119,15,61,79,89,28,-28,-28
171,104,-67,-137,119,18,64,85,95,29,-29,-29
174,110,-64,-142,119,23,66,90,101,29,-29,-32
174,114,-60,-144,117,27,69,93,101,27,-28,-36
174,116,-58,-145,116,29,72,96,98,25,-28,-39
176,118,-58,-147,117,30,73,98,95,22,-31,-36
182,120,-62,-151,122,29,73,101,92,22,-37,-30
188,123,-65,-155,126,29,72,102,91,28,-39,-27
193,125,-68,-159,130,28,72,102,91,36,-36,-28
196,127,-69,-161,132,29,74,101,94,40,-30,-29
195,129,-66,-162,130,31,79,101,100,36,-22,-29
193,132,-61,-162,127,35,85,103,103,29,-14,-27
190,135,-55,-162,122,40,90,106,105,21,-9,-25
191,137,-54,-164,122,41,92,107,109,17,-9,-22
196,139,-57,-167,126,41,92,106,114,17,-12,-19
204,144,-60,-174,132,42,91,108,119,21,-14,-18
212,149,-63,-180,137,43,91,114,121,26,-14,-19
215,151,-64,-183,139,43,93,120,122,32,-14,-17
214,150,-64,-182,139,43,95,124,124,39,-14,-15
213,152,-61,-182,137,45,98,126,128,47,-12,-13
213,155,-58,-184,135,48,101,126,131,55,-9,-13
214,156,-58,-185,136,49,102,125,128,60,-8,-16
214,155,-59,-184,136,48,102,123,123,62,-8,-21
213,156,-57,-184,135,49,101,119,121,63,-9,-27
213,159,-54,-186,133,52,102,117,124,63,-9,-33
213,162,-51,-187,132,55,101,118,128,61,-7,-33
213,164,-49,-188,131,57,101,123,133,59,-5,-30
214,166,-48,-190,131,59,103,129,138,56,-2,-27
214,169,-45,-191,129,62,106,134,141,53,0,-25
213,170,-43,-191,128,63,107,137,139,52,1,-22
213,170,-43,-191,128,63,107,140,136,52,3,-19
214,169,-45,-191,129,62,106,142,137,53,4,-18
217,168,-49,-192,133,59,106,144,143,56,3,-19
222,173,-49,-197,135,62,108,148,147,61,4,-18
230,181,-49,-205,139,66,111,153,149,69,7,-15
238,189,-49,-213,143,70,112,159,153,77,11,-10
242,197,-45,-219,143,76,112,163,158,84,13,-5
244,203,-41,-223,142,81,111,166,162,88,13,-3
244,207,-37,-225,140,85,111,168,164,88,10,-3
244,211,-33,-227,138,89,112,171,165,84,8,-4
246,213,-33,-229,139,90,112,174,165,79,8,-4
249,213,-36,-231,142,88,111,175,164,77,9,-3
252,210,-42,-231,147,84,111,175,164,77,9,-1
252,207,-45,-229,148,81,112,175,166,78,8,2
252,207,-45,-229,148,81,112,175,168,78,8,7
254,211,-43,-232,148,84,109,173,170,78,9,9
260,216,-44,-238,152,86,100,171,170,78,9,9
266,221,-45,-243,155,88,91,168,168,77,8,8
271,223,-48,-247,159,87,84,166,165,77,8,8
275,224,-51,-249,163,86,80,161,165,79,11,10
277,227,-50,-252,163,88,78,154,168,84,17,12
277,231,-46,-254,161,92,76,146,173,91,20,15
277,237,-40,-257,158,98,73,138,178,99,22,17
280,240,-40,-260,160,100,72,133,180,103,27,20
288,243,-45,-265,166,99,72,131,180,102,35,23
297,245,-52,-271,174,96,73,129,179,100,43,24
305,247,-58,-276,181,94,73,126,179,97,47,24
307,247,-60,-277,183,93,72,126,179,96,46,23
304,245,-59,-274,181,93,72,129,179,96,41,23
298,242,-56,-270,177,93,73,132,180,98,36,26
293,239,-54,-266,173,92,73,131,180,101,34,32
291,237,-54,-264,172,91,72,128,177,101,33,35
291,235,-56,-263,173,89,72,124,172,98,33,34
292,232,-60,-262,176,86,73,119,166,96,34,33
291,229,-62,-260,176,83,73,114,162,97,34,30
292,228,-64,-260,178,82,70,108,159,96,32,26
292,228,-64,-260,178,82,65,100,156,93,29,20
290,229,-61,-259,175,84,59,90,154,90,29,17
287,229,-58,-258,172,85,55,81,152,88,29,14
286,228,-58,-257,172,85,50,75,148,84,26,12
286,228,-58,-257,172,85,45,74,143,80,21,9
287,229,-58,-258,172,85,39,70,137,74,17,8
287,229,-58,-258,172,85,35,64,132,69,15,8
286,228,-58,-257,172,85,33,62,129,65,11,8
286,228,-58,-257,172,85,33,62,126,63,6,8
286,229,-57,-257,171,86,33,62,124,63,0,9
286,229,-57,-257,171,86,33,61,122,63,-6,10
287,226,-61,-256,174,82,35,67,122,60,-12,4
287,218,-69,-252,178,74,39,80,127,57,-17,-7
286,206,-80,-246,183,63,48,95,138,60,-19,-23
286,191,-95,-238,190,48,59,110,154,67,-18,-38
289,177,-112,-233,200,32,67,126,169,65,-21,-46
294,165,-129,-229,211,18,71,141,180,56,-24,-48
298,155,-143,-226,220,6,74,149,189,50,-20,-47
300,147,-153,-223,226,-3,77,151,198,55,-9,-47
304,146,-158,-225,231,-6,78,149,212,78,2,-48
309,149,-160,-229,234,-5,75,142,225,114,16,-46
315,152,-163,-233,239,-5,67,124,230,151,36,-35
322,159,-163,-240,242,-2,54,101,237,191,68,-13
332,177,-155,-254,243,11,37,82,272,249,117,22
345,208,-137,-276,241,35,18,64,319,317,182,69
357,246,-111,-301,234,67,-3,31,329,378,258,123
368,290,-78,-329,223,106,-31,-20,299,441,357,200
385,342,-43,-363,214,149,-75,-87,263,538,502,327
408,399,-9,-403,208,195,-133,-166,224,658,684,495
432,456,24,-444,204,240,-196,-257,153,756,868,663
452,514,62,-483,195,288,-256,-370,-16,772,1022,820
460,578,118,-519,171,348,-317,-515,-374,641,1122,979
461,650,189,-555,136,419,-375,-677,-848,402,1185,1149
468,726,258,-597,105,492,-430,-811,-1243,176,1261,1336
468,805,337,-636,65,571,-474,-905,-1505,5,1356,1519
429,881,452,-655,-11,666,-500,-968,-1700,-134,1437,1667
355,956,601,-655,-123,778,-512,-1019,-1872,-259,1496,1777
282,1034,752,-658,-235,893,-524,-1080,-2046,-380,1540,1873
226,1109,883,-667,-328,996,-539,-1146,-2210,-495,1572,1953
191,1165,974,-678,-391,1069,-553,-1194,-2327,-593,1587,1991
173,1199,1026,-686,-426,1112,-565,-1216,-2392,-678,1584,1988
167,1221,1054,-694,-443,1137,-575,-1218,-2424,-771,1555,1965
162,1220,1058,-691,-448,1139,-569,-1194,-2418,-880,1438,1884
143,1168,1025,-655,-441,1096,-524,-1128,-2345,-1001,1131,1666
113,1065,952,-589,-419,1008,-444,-1026,-2207,-1118,658,1320
90,933,843,-511,-376,888,-355,-910,-2026,-1204,152,930
80,792,712,-436,-316,752,-273,-788,-1820,-1243,-272,560
76,656,580,-366,-252,618,-196,-656,-1604,-1228,-529,260
79,535,456,-307,-188,495,-125,-523,-1391,-1165,-630,45
87,433,346,-260,-129,389,-62,-402,-1193,-1071,-665,-94
102,353,251,-227,-74,302,-10,-296,-1012,-959,-669,-171
126,297,171,-211,-22,234,29,-198,-839,-838,-630,-201
154,258,104,-206,25,181,55,-112,-678,-718,-559,-203
174,226,52,-200,61,139,68,-50,-538,-606,-488,-196
185,196,11,-190,87,103,74,-10,-418,-507,-429,-191
197,171,-26,-184,111,72,84,21,-310,-420,-374,-187
213,151,-62,-182,137,44,100,53,-208,-338,-320,-180
224,142,-82,-183,153,30,114,87,-111,-253,-267,-165
230,143,-87,-186,158,28,123,121,-21,-166,-219,-144
240,151,-89,-195,164,31,127,152,56,-90,-178,-127
253,161,-92,-207,172,34,129,178,121,-30,-144,-116
262,167,-95,-214,178,36,135,204,173,13,-114,-106
266,168,-98,-217,182,35,146,226,211,43,-87,-96
269,172,-97,-220,183,37,155,240,236,62,-68,-87
272,178,-94,-225,183,42,159,246,249,71,-56,-80
273,180,-93,-226,183,43,162,250,255,72,-49,-76
272,179,-93,-225,182,43,164,253,257,69,-44,-73
274,181,-93,-227,183,44,163,251,259,67,-42,-71
277,184,-93,-230,185,45,159,245,261,67,-42,-68
278,185,-93,-231,185,46,151,243,264,68,-42,-67
278,184,-94,-231,186,45,143,243,267,70,-40,-68
277,185,-92,-231,184,46,138,243,268,78,-37,-67
277,188,-89,-232,183,49,136,240,268,91,-34,-64
278,191,-87,-234,182,52,135,237,267,103,-33,-61
278,194,-84,-236,181,55,132,232,267,113,-34,-58
276,195,-81,-235,178,57,127,221,268,120,-32,-57
273,195,-78,-234,175,58,120,206,268,127,-29,-58
272,193,-79,-232,175,57,113,193,267,135,-28,-57
272,191,-81,-231,176,55,108,186,267,144,-29,-57
272,188,-84,-230,178,52,106,183,268,146,-28,-60
269,185,-84,-227,176,50,106,181,268,142,-25,-66
265,184,-81,-224,173,51,107,176,267,139,-22,-69
262,184,-78,-223,170,53,107,167,264,137,-19,-68
266,184,-82,-225,174,51,106,163,260,133,-19,-67
275,184,-91,-229,183,46,107,164,255,127,-22,-67
277,185,-92,-231,184,46,106,165,251,125,-25,-67
271,186,-85,-228,178,50,106,165,248,126,-28,-67
263,181,-82,-222,172,49,107,164,246,122,-29,-68
256,173,-83,-214,169,45,110,164,244,114,-29,-68
247,167,-80,-207,163,43,114,166,242,111,-28,-66
240,165,-75,-202,157,45,120,169,240,112,-28,-64
240,164,-76,-202,158,44,123,168,236,109,-29,-62
246,164,-82,-205,164,41,125,163,231,104,-29,-62
247,165,-82,-206,164,41,127,158,226,101,-28,-63
241,165,-76,-203,158,44,130,156,223,101,-27,-66
237,164,-73,-200,155,45,131,155,225,101,-32,-70
237,162,-75,-199,156,43,130,153,228,99,-43,-75
241,157,-84,-199,162,36,132,146,227,93,-53,-81
244,149,-95,-196,169,27,134,138,221,88,-61,-86
241,141,-100,-191,170,20,136,134,217,87,-63,-85
233,134,-99,-183,166,17,136,132,215,90,-62,-79
223,126,-97,-174,160,14,134,127,211,93,-64,-78
216,119,-97,-167,156,11,131,118,205,92,-67,-83
211,114,-97,-162,154,8,130,117,202,90,-67,-90
209,112,-97,-160,153,7,130,123,202,89,-64,-98
207,110,-97,-158,152,6,131,128,205,97,-61,-107
205,107,-98,-156,151,4,131,130,208,111,-58,-115
202,106,-96,-154,149,5,129,130,208,121,-57,-116
201,107,-94,-154,147,6,127,127,204,122,-57,-110
198,105,-93,-151,145,6,124,124,204,120,-58,-103
195,102,-93,-148,144,4,122,121,207,117,-57,-100
194,101,-93,-147,143,4,120,123,211,116,-58,-105
194,102,-92,-148,143,5,118,128,216,116,-58,-113
195,99,-96,-147,145,1,115,133,223,116,-57,-119
194,94,-100,-144,147,-3,113,135,231,116,-54,-118
195,90,-105,-142,150,-7,109,136,235,118,-51,-114
195,87,-108,-141,151,-10,104,135,234,123,-48,-108
194,85,-109,-139,151,-12,98,136,232,128,-47,-105
191,82,-109,-136,150,-13,93,139,232,130,-47,-105
187,81,-106,-134,146,-12,89,143,237,130,-49,-109
182,79,-103,-130,142,-12,87,148,248,127,-52,-114
176,74,-102,-125,139,-14,86,153,258,124,-53,-118
171,63,-108,-117,139,-22,87,158,265,124,-53,-121
169,51,-118,-110,143,-33,85,165,270,129,-52,-123
169,41,-128,-105,148,-43,82,172,275,137,-52,-125
170,38,-132,-104,151,-47,81,176,282,143,-55,-126
170,39,-131,-104,150,-46,81,178,291,147,-60,-129
168,37,-131,-102,149,-47,82,183,303,156,-64,-134
165,31,-134,-98,149,-51,82,191,313,170,-64,-141
164,26,-138,-95,151,-56,81,197,319,179,-59,-151
164,23,-141,-93,152,-59,81,199,323,183,-51,-159
165,24,-141,-94,153,-58,82,201,330,187,-45,-160
165,27,-138,-96,151,-55,82,206,341,193,-43,-157
164,29,-135,-96,149,-53,81,212,350,195,-43,-154
162,29,-133,-95,147,-52,78,217,355,194,-43,-155
159,28,-131,-93,145,-51,77,219,356,197,-41,-157
156,28,-128,-92,142,-50,77,219,355,204,-36,-159
155,29,-126,-92,140,-48,77,219,356,214,-32,-162
155,29,-126,-92,140,-48,77,222,359,221,-29,-165
156,28,-128,-92,142,-50,78,226,362,225,-27,-163
155,25,-130,-90,142,-52,80,231,364,224,-25,-158
156,22,-134,-89,145,-56,83,237,367,223,-22,-152
156,19,-137,-87,146,-59,86,242,369,223,-19,-147
155,18,-137,-86,146,-59,87,245,370,224,-18,-145
152,18,-134,-85,143,-58,87,247,370,224,-18,-146
149,18,-131,-83,140,-56,86,248,369,222,-19,-144
146,18,-128,-82,137,-55,86,251,369,219,-18,-142
145,19,-126,-82,135,-53,88,255,371,218,-19,-140
145,22,-123,-83,134,-50,91,261,375,219,-19,-140
146,25,-121,-85,133,-48,92,263,372,217,-18,-140
146,27,-119,-86,132,-46,92,263,365,212,-17,-137
145,30,-115,-87,130,-42,91,263,356,203,-22,-133
145,32,-113,-88,129,-40,91,266,349,193,-30,-127
146,35,-111,-90,128,-38,91,268,342,187,-35,-125
146,38,-108,-92,127,-35,91,268,337,185,-35,-125
145,38,-107,-91,126,-34,92,266,334,185,-32,-126
142,35,-107,-88,124,-36,95,263,332,185,-29,-126
138,32,-106,-85,122,-37,99,264,329,183,-28,-125
132,29,-103,-80,117,-37,102,265,324,178,-28,-123
129,28,-101,-78,115,-36,98,256,318,170,-30,-120
129,28,-101,-78,115,-36,85,237,311,160,-33,-117
132,30,-102,-81,117,-36,69,220,301,152,-34,-117
135,32,-103,-83,119,-35,56,208,291,147,-34,-118
134,35,-99,-84,116,-32,51,199,282,144,-34,-112
129,37,-92,-83,110,-27,51,190,275,141,-34,-98
122,41,-81,-81,101,-20,53,178,269,139,-32,-85
118,46,-72,-82,95,-13,53,163,262,137,-29,-75
116,48,-68,-82,92,-10,51,147,250,133,-28,-70
116,47,-69,-81,92,-11,45,130,235,128,-28,-68
117,49,-68,-83,92,-9,39,111,223,122,-29,-66
117,52,-65,-84,91,-6,35,92,216,115,-29,-64
115,51,-64,-83,89,-6,33,83,210,108,-29,-61
113,46,-67,-79,90,-10,33,81,203,100,-29,-59
110,39,-71,-74,90,-16,35,81,195,92,-28,-56
108,35,-73,-71,90,-19,38,78,184,85,-28,-53
105,33,-72,-69,88,-19,39,77,174,78,-29,-52
102,33,-69,-67,85,-18,39,77,166,74,-32,-52
101,34,-67,-67,84,-16,38,78,164,71,-36,-53
101,34,-67,-67,84,-16,37,78,165,69,-41,-56
102,33,-69,-67,85,-18,41,77,162,66,-44,-59
102,33,-69,-67,85,-18,49,74,154,64,-47,-62
101,34,-67,-67,84,-16,56,71,147,61,-48,-63
98,34,-64,-66,81,-15,61,69,142,59,-50,-62
94,33,-61,-63,77,-14,63,66,139,55,-56,-63
89,30,-59,-59,74,-14,63,64,137,48,-64,-66
84,26,-58,-55,71,-16,62,61,133,35,-71,-69
82,21,-61,-51,71,-20,62,59,128,23,-76,-71
81,16,-65,-48,73,-24,63,55,122,16,-79,-74
82,10,-72,-46,77,-31,63,50,115,17,-81,-77
81,7,-74,-44,77,-33,62,45,108,19,-82,-78
78,5,-73,-41,75,-34,62,41,103,19,-85,-77
77,2,-75,-39,76,-36,63,35,100,17,-89,-79
77,-1,-78,-38,77,-39,63,28,98,15,-94,-84
78,-7,-85,-35,81,-46,62,18,94,12,-100,-89
78,-15,-93,-31,85,-54,62,10,88,9,-105,-94
76,-22,-98,-27,87,-60,63,9,85,8,-107,-99
71,-27,-98,-22,84,-62,66,15,86,8,-106,-104
63,-30,-93,-16,78,-61,69,22,88,10,-108,-110
55,-32,-87,-11,71,-59,72,27,91,12,-111,-115
50,-35,-85,-7,67,-60,73,29,92,14,-112,-117
48,-38,-86,-5,67,-62,72,29,92,14,-111,-116
46,-39,-85,-3,65,-62,73,29,92,12,-112,-117
43,-41,-84,-1,63,-62,74,29,92,10,-115,-120
43,-45,-88,1,65,-66,69,27,91,8,-117,-123
46,-53,-99,3,72,-76,58,22,88,8,-117,-123
48,-62,-110,7,79,-86,46,14,85,10,-115,-119
48,-70,-118,11,83,-94,37,6,82,13,-112,-114
46,-75,-121,14,83,-98,31,2,81,14,-111,-110
41,-77,-118,18,79,-97,29,3,81,13,-111,-110
35,-78,-113,21,74,-95,27,4,81,15,-112,-113
30,-80,-110,25,70,-95,25,3,81,17,-112,-116
28,-83,-111,27,69,-97,22,5,82,19,-110,-116
28,-85,-113,28,70,-99,20,8,85,19,-105,-114
28,-88,-116,30,72,-102,17,9,88,18,-97,-109
25,-91,-116,33,70,-103,15,8,91,18,-90,-103
22,-92,-114,35,68,-103,11,10,92,20,-84,-100
19,-92,-111,36,65,-101,6,12,92,25,-80,-98
18,-91,-109,36,63,-100,1,14,91,33,-74,-94
15,-91,-106,38,60,-98,-2,14,91,38,-66,-89
11,-92,-103,40,57,-97,-6,14,92,36,-60,-85
3,-95,-98,46,50,-96,-11,14,92,28,-58,-83
-4,-98,-94,51,45,-96,-16,13,91,20,-57,-80
-11,-100,-89,55,39,-94,-21,12,91,15,-56,-77
-15,-103,-88,59,36,-95,-26,17,92,12,-60,-79
-17,-108,-91,62,37,-99,-28,28,97,12,-66,-87
-20,-117,-97,68,38,-107,-28,39,108,17,-68,-97
-23,-129,-106,76,41,-117,-25,51,123,25,-67,-108
-23,-143,-120,83,48,-131,-22,66,138,31,-70,-114
-20,-158,-138,89,59,-148,-19,81,150,35,-76,-116
-18,-172,-154,95,68,-163,-18,90,161,45,-77,-116
-19,-183,-164,101,72,-173,-18,92,170,62,-69,-116
-17,-183,-166,100,74,-174,-20,90,180,85,-54,-118
-12,-175,-163,93,75,-169,-28,81,185,110,-32,-119
-5,-163,-158,84,76,-160,-41,60,180,134,-1,-111
1,-151,-152,75,76,-151,-59,33,178,164,37,-91
5,-139,-144,67,74,-141,-76,17,215,212,81,-60
4,-125,-129,60,66,-127,-93,8,273,272,130,-21
2,-105,-107,51,54,-106,-112,-15,296,319,187,25
2,-76,-78,37,40,-77,-138,-61,275,369,269,92
8,-32,-40,12,24,-36,-179,-117,254,471,403,209
21,24,3,-22,9,13,-231,-180,238,616,580,366
37,84,47,-60,-5,65,-286,-253,195,743,759,524
47,142,95,-94,-24,118,-342,-348,54,785,909,670
43,200,157,-121,-57,178,-401,-489,-283,680,1014,821
29,258,229,-143,-100,243,-461,-657,-755,463,1086,985
20,319,299,-169,-139,309,-515,-801,-1155,254,1168,1161
7,384,377,-195,-185,380,-558,-900,-1418,100,1268,1337
-39,459,498,-210,-268,478,-589,-968,-1617,-23,1366,1491
-117,543,660,-213,-388,601,-609,-1022,-1801,-135,1452,1618
-194,630,824,-218,-509,727,-629,-1081,-1983,-237,1523,1729
-254,712,966,-229,-610,839,-652,-1149,-2157,-337,1580,1824
-300,776,1076,-238,-688,926,-674,-1210,-2296,-438,1616,1887
-333,821,1154,-244,-743,987,-693,-1257,-2391,-543,1632,1918
-357,854,1211,-248,-784,1032,-709,-1284,-2453,-653,1629,1931
-377,865,1242,-244,-809,1053,-711,-1283,-2474,-776,1539,1886
-406,826,1232,-210,-819,1029,-682,-1238,-2433,-925,1241,1702
-442,739,1181,-148,-811,960,-628,-1156,-2332,-1085,753,1385
-471,628,1099,-78,-785,863,-570,-1063,-2193,-1221,228,1030
-489,503,992,-7,-740,747,-514,-962,-2025,-1304,-217,689
-504,364,868,70,-686,616,-443,-839,-1820,-1322,-510,379
-516,220,736,148,-626,478,-360,-702,-1594,-1284,-660,116
-526,93,619,216,-572,356,-283,-576,-1379,-1216,-750,-77
-527,-5,522,266,-524,258,-220,-469,-1188,-1131,-802,-196
-511,-76,435,293,-473,179,-171,-363,-1011,-1023,-786,-248
-484,-125,359,304,-421,117,-134,-261,-846,-901,-712,-258
-465,-167,298,316,-381,65,-111,-179,-703,-786,-636,-259
-457,-206,251,331,-354,22,-95,-122,-580,-688,-577,-266
-446,-241,205,343,-325,-18,-76,-84,-471,-597,-521,-267
-430,-268,162,349,-296,-53,-53,-59,-371,-507,-462,-259
-419,-285,134,352,-276,-75,-32,-34,-279,-414,-403,-243
-412,-292,120,352,-266,-86,-15,-6,-192,-321,-349,-223
-403,-289,114,346,-258,-87,-4,26,-106,-233,-302,-205
-390,-280,110,335,-250,-85,3,61,-22,-157,-262,-194
-380,-276,104,328,-242,-86,16,95,49,-96,-224,-185
-376,-277,99,326,-237,-89,33,124,105,-51,-189,-176
-373,-277,96,325,-234,-90,52,144,143,-16,-161,-162
-370,-276,94,323,-232,-91,69,156,166,11,-140,-144
-369,-280,89,324,-229,-95,86,165,183,35,-121,-127
-369,-286,83,327,-226,-101,101,173,195,53,-106,-115
-370,-284,86,327,-228,-99,111,173,202,60,-100,-109
-373,-273,100,323,-236,-86,115,167,203,58,-101,-107
-377,-262,115,319,-246,-73,117,163,204,58,-101,-107
-382,-254,128,318,-255,-63,119,163,207,60,-99,-107
-387,-253,134,320,-260,-59,125,167,211,65,-94,-106
-392,-256,136,324,-264,-60,135,172,216,70,-89,-103
-397,-259,138,328,-267,-60,146,177,221,74,-85,-100
-402,-261,141,331,-271,-60,157,180,226,77,-83,-98
-406,-264,142,335,-274,-61,163,178,230,78,-80,-95
-408,-269,139,338,-273,-65,167,175,233,78,-78,-93
-408,-277,131,342,-269,-73,173,175,234,77,-78,-90
-408,-284,124,346,-266,-80,181,181,237,77,-78,-87
-410,-288,122,349,-266,-83,187,189,241,80,-76,-86
-415,-287,128,351,-271,-79,189,197,245,87,-71,-84
-423,-286,137,354,-280,-74,191,202,249,97,-64,-78
-430,-284,146,357,-288,-69,194,203,252,105,-59,-70
-422,-280,142,351,-282,-69,195,204,252,105,-57,-66
-403,-275,128,339,-265,-73,195,203,252,99,-57,-67
-389,-269,120,329,-254,-74,195,204,254,95,-58,-68
-386,-264,122,325,-254,-71,195,204,257,96,-58,-68
-382,-261,121,321,-251,-70,193,203,257,96,-57,-68
-377,-259,118,318,-247,-70,187,200,254,95,-54,-68
-373,-254,119,313,-246,-67,182,200,251,100,-51,-66
-370,-246,124,308,-247,-61,180,200,248,110,-48,-64
-358,-242,116,300,-237,-63,179,198,247,110,-48,-62
-338,-243,95,290,-216,-74,179,192,245,101,-51,-62
-325,-244,81,284,-203,-81,180,187,242,93,-54,-64
-319,-244,75,281,-197,-84,180,184,242,91,-57,-67
-313,-243,70,278,-191,-86,178,187,247,94,-58,-68
-302,-242,60,272,-181,-91,176,192,255,99,-58,-67
-290,-246,44,268,-167,-101,174,195,258,103,-57,-68
-278,-251,27,264,-152,-112,174,194,257,106,-54,-69
-267,-252,15,259,-141,-118,175,196,259,108,-51,-65
-257,-247,10,252,-133,-118,175,199,265,110,-48,-59
-247,-241,6,244,-126,-117,174,199,269,112,-47,-59
-238,-236,2,237,-120,-117,171,195,271,112,-48,-65
-230,-230,0,230,-115,-115,168,196,274,110,-46,-69
-225,-223,2,224,-113,-110,166,201,279,109,-41,-68
-221,-214,7,217,-114,-103,163,205,286,116,-35,-68
-216,-206,10,211,-113,-98,161,208,294,129,-30,-68
-210,-202,8,206,-109,-97,160,210,298,140,-28,-66
-203,-202,1,202,-102,-100,160,212,300,145,-28,-60
-196,-206,-10,201,-93,-108,161,215,304,145,-29,-55
-189,-210,-21,199,-84,-115,161,217,312,144,-29,-52
-179,-203,-24,191,-77,-113,159,221,320,149,-27,-55
-167,-184,-17,175,-75,-100,154,226,327,162,-22,-61
-154,-166,-12,160,-71,-89,147,230,335,177,-15,-63
-141,-154,-13,147,-64,-83,142,233,345,189,-7,-60
-131,-149,-18,140,-56,-83,141,235,357,199,-1,-55
-126,-150,-24,138,-51,-87,144,237,369,206,2,-53
-125,-151,-26,138,-49,-88,147,240,380,211,5,-53
-124,-151,-27,137,-48,-89,150,244,392,216,7,-56
-117,-149,-32,133,-42,-90,151,252,408,222,10,-59
-104,-146,-42,125,-31,-94,150,262,428,229,12,-62
-89,-147,-58,118,-15,-102,152,273,448,238,15,-63
-76,-152,-76,114,0,-114,155,282,465,247,20,-63
-71,-158,-87,114,8,-122,156,291,479,259,28,-62
-71,-161,-90,116,9,-125,155,299,490,272,38,-59
-74,-158,-84,116,5,-121,157,303,504,282,46,-56
-74,-150,-76,112,1,-113,160,304,522,291,51,-53
-68,-142,-74,105,3,-108,159,311,538,304,54,-52
-55,-134,-79,94,12,-106,150,324,551,322,58,-52
-39,-126,-87,82,24,-106,141,336,560,338,68,-53
-24,-116,-92,70,34,-104,133,343,566,347,81,-53
-14,-107,-93,60,39,-100,129,347,573,353,90,-51
-10,-100,-90,55,40,-95,127,349,581,355,92,-48
-8,-94,-86,51,39,-90,123,352,588,356,91,-47
-5,-89,-84,47,39,-86,118,355,594,356,91,-48
-1,-84,-83,42,41,-83,116,356,594,355,92,-47
5,-80,-85,37,45,-82,114,355,588,352,92,-44
13,-75,-88,31,50,-81,106,357,580,348,91,-41
21,-72,-93,25,57,-82,93,358,573,343,91,-40
25,-74,-99,24,62,-86,82,350,567,337,92,-37
25,-77,-102,26,63,-89,78,333,563,330,92,-32
22,-76,-98,27,60,-87,77,320,557,321,91,-25
19,-69,-88,25,53,-78,75,311,550,312,88,-20
19,-67,-86,24,52,-76,69,300,541,301,84,-18
22,-69,-91,23,56,-80,60,286,532,290,80,-19
25,-64,-89,19,57,-76,44,270,520,285,75,-17
27,-53,-80,13,53,-66,28,254,505,284,70,-14
30,-44,-74,7,52,-59,23,241,489,280,65,-14
32,-40,-72,4,52,-56,30,229,474,272,60,-17
35,-36,-71,0,53,-53,36,218,462,263,55,-19
38,-30,-68,-4,53,-49,38,206,453,254,50,-18
39,-28,-67,-5,53,-47,38,193,442,239,44,-21
39,-28,-67,-5,53,-47,38,180,427,219,35,-27
38,-29,-67,-4,52,-48,39,171,409,199,22,-29
38,-29,-67,-4,52,-48,42,167,389,185,8,-26
39,-29,-68,-5,53,-48,42,162,372,176,1,-22
38,-29,-67,-4,52,-48,42,154,358,172,0,-19
39,-28,-67,-5,53,-47,44,147,342,166,0,-18
39,-28,-67,-5,53,-47,50,139,325,157,-1,-18
38,-31,-69,-3,53,-50,54,132,309,143,-6,-19
38,-36,-74,-1,56,-55,56,125,294,126,-14,-22
39,-40,-79,0,59,-59,59,118,279,107,-23,-25
39,-40,-79,0,59,-59,62,110,264,92,-31,-28
37,-37,-74,0,55,-55,63,103,251,84,-35,-27
31,-34,-65,1,48,-49,62,95,240,82,-34,-22
27,-34,-61,3,44,-47,63,88,227,80,-33,-16
24,-38,-62,7,43,-50,66,81,211,73,-36,-13
23,-38,-61,7,42,-49,69,74,196,61,-43,-15
23,-32,-55,4,39,-43,71,67,182,47,-55,-20
25,-24,-49,0,37,-36,74,58,167,30,-70,-28
28,-19,-47,-4,37,-33,77,50,151,14,-82,-35
28,-21,-49,-3,38,-35,78,46,142,5,-88,-40
25,-32,-57,3,41,-44,78,47,137,1,-88,-42
22,-45,-67,11,44,-56,77,48,133,-1,-86,-43
19,-55,-74,18,46,-64,77,48,128,-6,-85,-46
18,-59,-77,20,47,-68,78,48,123,-10,-89,-50
18,-58,-76,20,47,-67,78,48,118,-12,-94,-55
19,-57,-76,19,47,-66,77,46,115,-15,-98,-60
19,-57,-76,19,47,-66,77,43,112,-17,-100,-65
18,-58,-76,20,47,-67,78,43,111,-20,-103,-70
18,-58,-76,20,47,-67,78,44,109,-22,-106,-75
19,-57,-76,19,47,-66,76,39,102,-25,-106,-81
19,-57,-76,19,47,-66,73,31,91,-31,-105,-86
18,-58,-76,20,47,-67,73,29,83,-37,-110,-85
18,-58,-76,20,47,-67,76,35,79,-42,-118,-80
19,-57,-76,19,47,-66,79,41,76,-42,-123,-76
19,-57,-76,19,47,-66,81,43,73,-39,-123,-76
18,-58,-76,20,47,-67,81,42,72,-39,-120,-79
16,-58,-74,21,45,-66,79,39,73,-43,-118,-84
11,-57,-68,23,39,-62,76,38,71,-53,-116,-89
6,-57,-63,25,34,-60,73,39,69,-63,-116,-91
2,-58,-60,28,31,-59,72,37,67,-70,-118,-91
2,-58,-60,28,31,-59,72,34,68,-69,-120,-88
5,-56,-61,25,33,-58,73,34,67,-65,-122,-86
8,-53,-61,22,34,-57,73,37,64,-59,-122,-87
8,-53,-61,22,34,-57,72,40,61,-57,-122,-86
5,-56,-61,25,33,-58,72,42,58,-57,-122,-83
2,-58,-60,28,31,-59,73,42,57,-58,-120,-81
0,-58,-58,29,29,-58,73,40,55,-58,-118,-81
0,-58,-58,29,29,-58,72,37,49,-57,-116,-82
0,-58,-58,29,29,-58,72,32,42,-57,-116,-85
0,-56,-56,28,28,-56,73,25,37,-58,-117,-88
0,-53,-53,26,26,-53,73,19,37,-61,-117,-91
-1,-54,-53,27,26,-53,71,20,41,-64,-116,-91
-6,-63,-57,34,25,-60,65,28,48,-66,-116,-88
-11,-72,-61,41,25,-66,61,38,56,-69,-117,-85
-16,-79,-63,47,23,-71,58,46,62,-71,-117,-83
-20,-82,-62,51,21,-72,56,47,61,-73,-115,-80
-23,-82,-59,52,18,-70,54,42,54,-73,-113,-78
-24,-82,-58,53,17,-70,51,35,53,-71,-111,-77
-24,-82,-58,53,17,-70,49,30,57,-69,-111,-77
-22,-80,-58,51,18,-69,47,28,56,-67,-112,-78
-20,-72,-52,46,16,-62,44,28,51,-67,-112,-81
