I,II,III,aVR,aVL,aVF,V1,V2,V3,V4,V5,V6
0,19,19,-9,-9,19,29,-9,-9,19,-29,-48
0,19,19,-9,-9,19,29,-9,-9,19,-29,-48
0,19,19,-9,-9,19,29,-9,-9,19,-29,-48
0,19,19,-9,-9,19,29,-9,-9,19,-29,-48
-9,4,14,2,-12,9,19,-14,-9,9,-34,-63
-19,0,19,9,-19,9,19,-19,-9,9,-39,-68
-29,-4,24,17,-26,9,19,-24,-9,9,-43,-73
-39,-9,29,24,-34,9,19,-29,-9,9,-48,-78
-29,0,29,14,-29,14,24,-24,-14,4,-48,-73
-29,0,29,14,-29,14,29,-19,-19,0,-48,-68
-29,0,29,14,-29,14,34,-14,-24,-4,-48,-63
-29,0,29,14,-29,14,39,-9,-29,-9,-48,-58
-29,4,34,12,-31,19,29,-14,-19,0,-48,-73
-29,9,39,9,-34,24,29,-19,-19,0,-48,-78
-29,14,43,7,-36,29,29,-24,-19,0,-48,-82
-29,19,48,4,-39,34,29,-29,-19,0,-48,-87
-24,19,43,2,-34,31,39,-24,-29,-9,-58,-82
-19,19,39,0,-29,29,39,-19,-29,-9,-58,-78
-14,19,34,-2,-24,26,39,-14,-29,-9,-58,-73
-9,19,29,-4,-19,24,39,-9,-29,-9,-58,-68
-24,4,29,9,-26,17,29,-14,-29,-14,-63,-78
-29,0,29,14,-29,14,29,-19,-29,-19,-68,-87
-34,-4,29,19,-31,12,29,-24,-29,-24,-73,-97
-39,-9,29,24,-34,9,29,-29,-29,-29,-78,-107
-48,-14,34,31,-41,9,19,-29,-39,-29,-68,-102
-48,-19,29,34,-39,4,19,-29,-39,-29,-68,-97
-48,-24,24,36,-36,0,19,-29,-39,-29,-68,-92
-48,-29,19,39,-34,-4,19,-29,-39,-29,-68,-87
-43,-24,19,34,-31,-2,29,-29,-29,-39,-78,-78
-39,-19,19,29,-29,0,29,-29,-29,-39,-78,-78
-34,-14,19,24,-26,2,29,-29,-29,-39,-78,-78
-29,-9,19,19,-24,4,29,-29,-29,-39,-78,-78
-19,-9,9,14,-14,0,39,-19,-29,-24,-68,-87
-19,-9,9,14,-14,0,39,-19,-29,-19,-68,-87
-19,-9,9,14,-14,0,39,-19,-29,-14,-68,-87
-19,-9,9,14,-14,0,39,-19,-29,-9,-68,-87
-29,-4,24,17,-26,9,29,-29,-39,-14,-78,-97
-29,0,29,14,-29,14,29,-29,-39,-19,-78,-97
-29,4,34,12,-31,19,29,-29,-39,-24,-78,-97
-29,9,39,9,-34,24,29,-29,-39,-29,-78,-97
-29,-4,24,17,-26,9,29,-39,-39,-34,-78,-107
-34,-19,14,26,-24,-2,29,-34,-39,-39,-82,-107
-43,-19,24,31,-34,2,19,-34,-39,-43,-87,-107
-43,-19,24,31,-34,2,19,-34,-43,-43,-87,-107
-29,-4,24,17,-26,9,34,-34,-43,-39,-82,-97
-29,-19,9,24,-19,-4,34,-34,-43,-34,-82,-92
-29,-19,9,24,-19,-4,34,-34,-43,-34,-82,-87
-29,-9,19,19,-24,4,39,-29,-43,-34,-82,-82
-19,4,24,7,-21,14,29,-39,-48,-43,-92,-87
-14,-4,9,9,-12,2,29,-39,-48,-43,-92,-87
-14,-9,4,12,-9,-2,29,-43,-48,-43,-92,-97
-9,9,19,0,-14,14,24,-48,-48,-43,-92,-97
-14,0,14,7,-14,7,24,-39,-43,-34,-82,-97
-19,-9,9,14,-14,0,24,-34,-39,-34,-82,-97
-29,-9,19,19,-24,4,24,-34,-34,-34,-82,-97
-34,-9,24,21,-29,7,24,-34,-29,-34,-78,-97
-19,4,24,7,-21,14,19,-34,-43,-39,-87,-102
-19,9,29,4,-24,19,19,-34,-43,-39,-87,-102
-14,9,24,2,-19,17,24,-34,-43,-34,-87,-92
-14,9,24,2,-19,17,24,-34,-39,-34,-87,-92
-24,0,24,12,-24,12,14,-34,-39,-34,-78,-102
-34,-9,24,21,-29,7,19,-34,-39,-34,-82,-112
-48,-24,24,36,-36,0,19,-34,-48,-43,-87,-112
-68,-34,34,51,-51,0,9,-34,-48,-43,-87,-112
-53,-14,39,34,-46,12,0,-48,-39,-29,-73,-92
-43,-4,39,24,-41,17,4,-48,-39,-24,-68,-87
-34,4,39,14,-36,21,4,-43,-39,-24,-68,-78
-29,14,43,7,-36,29,4,-43,-39,-24,-78,-73
-24,0,24,12,-24,12,14,-34,-39,-39,-87,-82
-24,-4,19,14,-21,7,14,-39,-43,-43,-82,-82
-24,-4,19,14,-21,7,14,-39,-48,-53,-82,-82
-9,9,19,0,-14,14,14,-39,-53,-58,-82,-82
-9,14,24,-2,-17,19,9,-34,-48,-43,-73,-92
-9,14,24,-2,-17,19,9,-34,-43,-34,-73,-92
-14,0,14,7,-14,7,9,-34,-39,-19,-73,-97
-48,-19,29,34,-39,4,0,-39,-43,-29,-78,-107
-39,-29,9,34,-24,-9,4,-39,-48,-48,-82,-117
-29,-19,9,24,-19,-4,14,-39,-48,-43,-82,-107
-29,-19,9,24,-19,-4,24,-39,-53,-43,-87,-107
-34,-9,24,21,-29,7,29,-39,-58,-43,-92,-107
-39,-9,29,24,-34,9,9,-43,-53,-34,-82,-97
-39,-9,29,24,-34,9,19,-43,-53,-34,-82,-97
-39,-9,29,24,-34,9,19,-43,-53,-34,-82,-97
-34,-4,29,19,-31,12,14,-43,-53,-34,-82,-97
-34,-14,19,24,-26,2,14,-53,-63,-39,-78,-82
-34,-14,19,24,-26,2,14,-53,-63,-39,-78,-82
-39,-14,24,26,-31,4,14,-53,-63,-48,-82,-87
-39,-14,24,26,-31,4,19,-53,-63,-48,-82,-87
-29,-4,24,17,-26,9,29,-53,-58,-29,-82,-87
-29,-4,24,17,-26,9,29,-53,-58,-29,-78,-92
-29,-4,24,17,-26,9,29,-53,-63,-34,-78,-102
-34,-4,29,19,-31,12,24,-58,-63,-34,-82,-107
-34,0,34,17,-34,17,24,-53,-73,-48,-92,-97
-19,4,24,7,-21,14,24,-43,-68,-53,-87,-92
-14,4,19,4,-17,12,29,-39,-68,-53,-87,-82
-14,4,19,4,-17,12,29,-34,-68,-53,-87,-82
-24,-9,14,17,-19,2,29,-43,-58,-53,-97,-102
-24,-9,14,17,-19,2,24,-43,-58,-58,-102,-102
-19,4,24,7,-21,14,24,-43,-58,-58,-102,-102
-14,4,19,4,-17,12,24,-43,-58,-58,-107,-107
-29,-14,14,21,-21,0,24,-39,-63,-58,-102,-122
-39,-34,4,36,-21,-14,19,-39,-63,-53,-97,-122
-48,-39,9,43,-29,-14,19,-39,-63,-48,-92,-117
-53,-39,14,46,-34,-12,24,-29,-53,-39,-87,-112
-39,-14,24,26,-31,4,14,-39,-53,-43,-92,-102
-34,-4,29,19,-31,12,9,-48,-53,-48,-97,-102
-29,4,34,12,-31,19,9,-48,-53,-53,-97,-102
-24,14,39,4,-31,26,9,-48,-53,-58,-102,-102
-24,-4,19,14,-21,7,19,-43,-63,-58,-92,-92
-34,-19,14,26,-24,-2,24,-39,-63,-58,-92,-92
-34,-29,4,31,-19,-12,24,-34,-63,-58,-92,-92
-34,-48,-14,41,-9,-31,29,-29,-63,-63,-102,-87
-39,-24,14,31,-26,-4,24,-29,-48,-53,-92,-92
-39,-19,19,29,-29,0,19,-34,-48,-43,-87,-97
-43,-19,24,31,-34,2,9,-43,-58,-43,-87,-102
-43,-14,29,29,-36,7,4,-48,-58,-43,-87,-107
-19,0,19,9,-19,9,9,-39,-43,-43,-78,-107
0,24,24,-12,-12,24,9,-34,-34,-29,-68,-97
14,39,24,-26,-4,31,4,-34,-34,-24,-63,-97
0,29,29,-14,-14,29,4,-34,-34,-24,-58,-87
-43,-39,4,41,-24,-17,24,-24,-43,-53,-58,-63
-43,-58,-14,51,-14,-36,19,-24,-29,-24,-34,-34
-43,-73,-29,58,-7,-51,19,-24,-24,4,-9,-24
-24,-73,-48,48,12,-61,19,4,0,53,53,9
24,-29,-53,2,39,-41,29,43,63,161,141,58
73,14,-58,-43,65,-21,9,58,151,287,263,107
87,63,-24,-75,56,19,-9,53,224,419,395,175
97,136,39,-117,29,87,-24,39,287,546,575,317
126,234,107,-180,9,170,-63,0,326,653,746,458
131,317,185,-224,-26,251,-102,-34,380,775,912,600
146,400,253,-273,-53,326,-136,-39,473,961,1107,771
175,497,322,-336,-73,409,-156,-34,595,1171,1342,966
185,575,390,-380,-102,483,-200,-68,692,1322,1542,1176
200,668,468,-434,-134,568,-278,-117,727,1390,1708,1449
258,795,536,-527,-139,666,-346,-180,717,1400,1873,1790
287,873,585,-580,-148,729,-405,-239,639,1346,2005,2137
317,927,610,-622,-146,768,-444,-312,522,1205,2059,2435
346,995,649,-671,-151,822,-492,-390,405,1010,2064,2727
322,1044,722,-683,-200,883,-556,-502,239,810,2078,3025
273,1122,849,-697,-287,985,-605,-624,63,580,2108,3323
253,1215,961,-734,-353,1088,-634,-717,-53,405,2196,3684
175,1356,1180,-766,-502,1268,-668,-785,-68,380,2405,4138
34,1512,1478,-773,-722,1495,-688,-858,-43,400,2640,4557
-122,1664,1786,-771,-954,1725,-678,-907,-43,336,2727,4758
-263,1761,2025,-749,-1144,1893,-658,-966,-78,190,2610,4601
-380,1781,2161,-700,-1271,1971,-649,-1015,-141,43,2352,4157
-439,1747,2186,-653,-1312,1966,-605,-1044,-219,-151,2000,3635
-463,1644,2108,-590,-1285,1876,-551,-1039,-380,-439,1507,3015
-478,1429,1908,-475,-1193,1668,-497,-1029,-580,-736,912,2152
-488,1137,1625,-324,-1056,1381,-409,-971,-722,-990,248,1224
-483,814,1298,-165,-890,1056,-302,-854,-805,-1215,-448,390
-492,546,1039,-26,-766,793,-190,-736,-868,-1434,-1176,-429
-492,341,834,75,-663,588,-112,-649,-907,-1561,-1751,-1083
-483,175,658,153,-570,417,-58,-566,-936,-1590,-1844,-1239
-463,58,522,202,-492,290,-34,-512,-976,-1542,-1615,-1068
-429,-24,405,226,-417,190,19,-468,-980,-1473,-1507,-990
-395,-126,268,261,-331,70,78,-385,-946,-1410,-1468,-1015
-351,-234,117,292,-234,-58,112,-297,-897,-1327,-1346,-951
-292,-283,9,287,-151,-136,136,-214,-834,-1205,-1185,-844
-253,-292,-39,273,-107,-165,131,-175,-736,-1024,-1029,-785
-229,-302,-73,265,-78,-187,141,-136,-649,-849,-863,-697
-180,-307,-126,244,-26,-217,170,-68,-551,-736,-736,-595
-151,-287,-136,219,-7,-212,170,-4,-458,-629,-644,-512
-151,-283,-131,217,-9,-207,141,0,-375,-531,-570,-468
-126,-263,-136,195,4,-200,122,-9,-317,-434,-488,-434
-73,-195,-122,134,24,-158,112,-9,-248,-351,-409,-375
-39,-112,-73,75,17,-92,87,-24,-209,-287,-346,-336
-34,-92,-58,63,12,-75,73,-34,-195,-248,-297,-312
-73,-141,-68,107,-2,-104,73,-43,-170,-219,-258,-302
-92,-170,-78,131,-7,-124,73,-24,-141,-180,-234,-283
-73,-131,-58,102,-7,-95,78,-14,-112,-151,-204,-253
-43,-82,-39,63,-2,-61,78,-4,-92,-136,-195,-248
-24,-82,-58,53,17,-70,73,4,-73,-112,-180,-239
-24,-82,-58,53,17,-70,73,4,-73,-107,-175,-239
-29,-82,-53,56,12,-68,73,0,-73,-102,-175,-239
-39,-102,-63,70,12,-82,68,-4,-78,-92,-180,-239
-48,-122,-73,85,12,-97,68,-4,-87,-97,-180,-239
-53,-141,-87,97,17,-114,73,-4,-82,-87,-170,-239
-43,-141,-97,92,26,-119,73,9,-68,-78,-156,-239
-48,-151,-102,100,26,-126,78,14,-53,-73,-156,-239
-48,-136,-87,92,19,-112,87,14,-73,-97,-165,-248
-43,-131,-87,87,21,-109,87,14,-73,-107,-170,-248
-43,-117,-73,80,14,-95,92,14,-78,-117,-180,-244
-43,-112,-68,78,12,-90,92,9,-78,-122,-185,-244
-29,-107,-78,68,24,-92,82,0,-78,-102,-170,-234
-24,-97,-73,61,24,-85,78,0,-73,-87,-165,-234
-9,-87,-78,48,34,-82,73,4,-63,-78,-156,-234
-4,-82,-78,43,36,-80,73,14,-58,-73,-151,-229
-14,-92,-78,53,31,-85,82,4,-43,-68,-141,-219
-29,-97,-68,63,19,-82,78,4,-43,-68,-141,-224
-39,-97,-58,68,9,-78,78,0,-53,-73,-151,-224
-48,-97,-48,73,0,-73,78,0,-58,-78,-151,-229
-43,-112,-68,78,12,-90,87,4,-63,-87,-156,-234
-39,-131,-92,85,26,-112,87,9,-63,-87,-156,-234
-34,-136,-102,85,34,-119,87,19,-58,-87,-146,-229
-19,-136,-117,78,48,-126,92,24,-48,-78,-146,-229
-29,-117,-87,73,29,-102,82,14,-39,-68,-156,-248
-29,-112,-82,70,26,-97,82,19,-39,-73,-156,-253
-29,-102,-73,65,21,-87,82,19,-39,-78,-165,-258
-29,-97,-68,63,19,-82,82,14,-48,-92,-170,-273
-29,-112,-82,70,26,-97,82,14,-48,-92,-161,-258
-19,-117,-97,68,39,-107,82,9,-48,-82,-161,-258
-19,-122,-102,70,41,-112,87,9,-48,-82,-161,-253
-19,-131,-112,75,46,-122,87,14,-39,-73,-161,-248
-24,-122,-97,73,36,-109,82,24,-48,-63,-161,-248
-24,-122,-97,73,36,-109,78,24,-48,-63,-161,-248
-29,-122,-92,75,31,-107,78,24,-53,-73,-165,-253
-43,-122,-78,82,17,-100,73,24,-58,-78,-165,-258
-29,-122,-92,75,31,-107,78,34,-53,-87,-165,-253
-14,-122,-107,68,46,-114,82,34,-53,-87,-165,-253
-9,-122,-112,65,51,-117,87,34,-43,-78,-161,-248
-4,-122,-117,63,56,-119,97,34,-43,-68,-161,-248
-14,-141,-126,78,56,-134,87,29,-43,-63,-156,-268
-24,-146,-122,85,48,-134,87,24,-43,-58,-161,-273
-39,-146,-107,92,34,-126,87,24,-48,-63,-165,-278
-48,-141,-92,95,21,-117,87,19,-48,-73,-170,-278
-34,-141,-107,87,36,-124,87,24,-53,-87,-180,-283
-29,-151,-122,90,46,-136,87,24,-68,-107,-195,-287
-24,-156,-131,90,53,-143,92,24,-73,-122,-209,-287
-19,-156,-136,87,58,-146,92,29,-73,-136,-219,-287
-39,-170,-131,104,46,-151,102,34,-68,-112,-209,-283
-39,-180,-141,109,51,-161,107,39,-63,-92,-204,-287
-39,-170,-131,104,46,-151,107,39,-58,-73,-195,-292
-29,-161,-131,95,51,-146,112,39,-53,-58,-185,-297
-39,-170,-131,104,46,-151,102,34,-63,-82,-195,-312
-43,-170,-126,107,41,-148,102,34,-82,-122,-224,-326
-43,-180,-136,112,46,-158,102,34,-92,-151,-234,-336
-34,-180,-146,107,56,-163,112,43,-97,-161,-244,-346
-43,-185,-141,114,48,-163,122,53,-87,-141,-234,-336
-43,-200,-156,122,56,-178,122,48,-82,-131,-239,-336
-63,-209,-146,136,41,-178,122,48,-78,-122,-244,-331
-48,-214,-165,131,58,-190,122,53,-73,-117,-244,-331
-43,-204,-161,124,58,-183,117,43,-82,-126,-234,-336
-43,-200,-156,122,56,-178,117,43,-87,-141,-239,-336
-48,-200,-151,124,51,-175,117,43,-92,-141,-244,-336
-24,-180,-156,102,65,-168,117,43,-97,-146,-244,-336
-24,-190,-165,107,70,-178,122,53,-87,-146,-258,-346
-29,-190,-161,109,65,-175,122,53,-78,-146,-263,-351
-29,-195,-165,112,68,-180,131,58,-78,-146,-263,-351
-19,-200,-180,109,80,-190,131,58,-78,-141,-263,-356
-39,-219,-180,129,70,-200,122,53,-82,-151,-268,-361
-43,-248,-204,146,80,-226,122,53,-87,-161,-268,-366
-43,-263,-219,153,87,-241,126,53,-97,-161,-273,-370
-48,-273,-224,161,87,-248,126,53,-102,-161,-273,-370
-48,-268,-219,158,85,-244,141,53,-92,-151,-287,-380
-53,-268,-214,161,80,-241,141,58,-92,-156,-292,-390
-53,-268,-214,161,80,-241,141,58,-92,-170,-307,-405
-48,-268,-219,158,85,-244,141,58,-92,-170,-307,-409
-29,-258,-229,143,100,-244,136,68,-92,-175,-297,-405
-19,-253,-234,136,107,-244,136,68,-92,-175,-292,-405
-29,-253,-224,141,97,-239,136,68,-92,-180,-292,-405
-29,-258,-229,143,100,-244,136,68,-92,-180,-302,-414
-19,-268,-248,143,114,-258,126,68,-102,-180,-317,-409
-24,-258,-234,141,104,-246,131,68,-102,-180,-317,-405
-29,-258,-229,143,100,-244,131,73,-102,-180,-317,-400
-29,-268,-239,148,104,-253,131,73,-107,-190,-326,-405
-19,-263,-244,141,112,-253,136,63,-112,-204,-331,-395
-19,-258,-239,139,109,-248,136,63,-117,-209,-336,-390
-29,-268,-239,148,104,-253,136,63,-126,-219,-336,-380
-19,-268,-248,143,114,-258,136,63,-131,-224,-336,-375
-29,-278,-248,153,109,-263,126,58,-117,-214,-317,-361
-24,-278,-253,151,114,-265,126,58,-117,-204,-312,-356
-24,-278,-253,151,114,-265,126,53,-117,-195,-312,-351
-24,-278,-253,151,114,-265,131,48,-117,-180,-307,-346
-19,-273,-253,146,117,-263,122,48,-126,-185,-317,-326
-14,-268,-253,141,119,-261,122,48,-131,-204,-317,-322
-9,-263,-253,136,122,-258,117,43,-131,-209,-317,-292
-4,-263,-258,134,126,-261,112,43,-141,-214,-317,-278
-9,-263,-253,136,122,-258,107,34,-131,-209,-302,-258
-9,-258,-248,134,119,-253,107,29,-126,-209,-292,-244
-4,-258,-253,131,124,-256,102,24,-126,-204,-283,-224
-9,-253,-244,131,117,-248,92,19,-131,-200,-278,-204
-24,-239,-214,131,95,-226,78,0,-146,-200,-258,-180
-24,-244,-219,134,97,-231,78,-9,-146,-200,-248,-151
-24,-229,-204,126,90,-217,78,-9,-146,-200,-239,-122
-24,-214,-190,119,82,-202,63,-19,-146,-200,-224,-87
-14,-190,-175,102,80,-183,48,-19,-156,-204,-209,-58
-4,-170,-165,87,80,-168,48,-24,-156,-204,-204,-34
0,-161,-161,80,80,-161,39,-39,-165,-204,-209,-19
4,-151,-156,73,80,-153,34,-48,-165,-204,-200,4
4,-151,-156,73,80,-153,39,-48,-156,-175,-170,43
4,-156,-161,75,82,-158,34,-53,-151,-165,-146,78
4,-146,-151,70,78,-148,34,-53,-146,-156,-122,117
4,-141,-146,68,75,-143,29,-68,-141,-146,-97,161
-9,-126,-117,68,53,-122,4,-87,-151,-151,-92,185
-4,-102,-97,53,46,-100,-4,-102,-151,-146,-78,209
0,-78,-78,39,39,-78,-4,-107,-151,-136,-58,234
-14,-68,-53,41,19,-61,-14,-122,-151,-131,-53,258
-14,-68,-53,41,19,-61,-24,-126,-146,-112,-29,273
-14,-63,-48,39,17,-56,-29,-131,-141,-102,-9,297
-14,-53,-39,34,12,-46,-39,-131,-136,-87,14,317
-9,-53,-43,31,17,-48,-43,-131,-126,-73,39,341
0,-29,-29,14,14,-29,-48,-136,-122,-53,58,351
4,-4,-9,0,7,-7,-53,-141,-117,-34,82,351
4,19,14,-12,-4,17,-58,-141,-117,-29,92,356
14,39,24,-26,-4,31,-53,-136,-102,-29,117,361
24,53,29,-39,-2,41,-43,-136,-73,19,131,356
9,58,48,-34,-19,53,-58,-141,-53,34,141,341
0,53,53,-26,-26,53,-63,-146,-39,53,156,326
14,68,53,-41,-19,61,-63,-131,-24,63,170,322
9,63,53,-36,-21,58,-63,-122,-14,68,165,307
0,53,53,-26,-26,53,-68,-126,-14,68,156,287
-4,53,58,-24,-31,56,-63,-126,-14,87,161,273
-9,58,68,-24,-39,63,-58,-126,-4,107,165,244
4,63,58,-34,-26,61,-43,-122,4,122,165,224
14,82,68,-48,-26,75,-39,-112,19,131,165,209
24,87,63,-56,-19,75,-29,-97,29,141,165,195
29,92,63,-61,-17,78,-24,-92,39,141,161,180
9,78,68,-43,-29,73,-29,-92,29,122,146,141
0,63,63,-31,-31,63,-34,-92,19,112,122,122
-9,48,58,-19,-34,53,-39,-87,9,102,102,102
-29,34,63,-2,-46,48,-43,-87,0,92,78,73
-29,43,73,-7,-51,58,-39,-87,9,97,73,53
-24,48,73,-12,-48,61,-29,-82,14,102,78,48
-24,48,73,-12,-48,61,-24,-78,19,102,73,39
-34,43,78,-4,-56,61,-14,-73,14,97,58,39
-29,39,68,-4,-48,53,-4,-63,4,92,48,39
-14,39,53,-12,-34,46,0,-58,9,82,48,29
-4,43,48,-19,-26,46,0,-53,14,78,43,24
9,43,34,-26,-12,39,4,-43,14,68,29,14
-9,9,19,0,-14,14,-4,-48,4,78,34,0
-29,-14,14,21,-21,0,-4,-53,0,68,24,-19
-34,-19,14,26,-24,-2,-4,-58,-4,58,14,-24
-34,-14,19,24,-26,2,0,-53,-4,53,9,-24
-24,-4,19,14,-21,7,0,-43,9,39,-9,-24
-24,0,24,12,-24,12,0,-43,9,39,-9,-34
-24,0,24,12,-24,12,0,-43,9,39,-9,-39
-19,0,19,9,-19,9,0,-43,9,34,-14,-39
-19,4,24,7,-21,14,-4,-48,14,39,-9,-34
-19,4,24,7,-21,14,-4,-53,9,39,-14,-39
-29,-4,24,17,-26,9,-4,-58,4,34,-19,-43
-29,0,29,14,-29,14,-4,-63,4,39,-19,-43
-29,19,48,4,-39,34,-4,-53,-4,29,-24,-53
-43,-4,39,24,-41,17,-4,-53,-4,24,-34,-68
-43,-4,39,24,-41,17,-4,-53,-9,19,-43,-82
-29,4,34,12,-31,19,-4,-53,-9,19,-53,-92
-29,0,29,14,-29,14,0,-43,-4,29,-53,-87
-39,-19,19,29,-29,0,4,-43,0,29,-48,-82
-39,-14,24,26,-31,4,9,-43,4,29,-43,-73
-39,-19,19,29,-29,0,19,-39,9,39,-39,-58
-19,-14,4,17,-12,-4,14,-29,-4,24,-53,-63
-19,-9,9,14,-14,0,14,-29,-4,19,-53,-68
-29,-4,24,17,-26,9,9,-34,-9,14,-63,-82
-29,0,29,14,-29,14,9,-34,-9,9,-68,-92
-24,0,24,12,-24,12,0,-39,-9,9,-68,-92
-24,0,24,12,-24,12,4,-39,-4,9,-73,-97
-29,-9,19,19,-24,4,4,-43,-4,4,-73,-102
-29,-9,19,19,-24,4,4,-48,-14,0,-78,-112
-24,-4,19,14,-21,7,4,-48,-29,-9,-87,-112
-24,0,24,12,-24,12,9,-48,-29,-4,-87,-112
-34,0,34,17,-34,17,9,-48,-24,-4,-97,-112
-34,-4,29,19,-31,12,9,-48,-24,-4,-97,-112
-34,-14,19,24,-26,2,0,-58,-24,-4,-92,-117
-34,-14,19,24,-26,2,0,-58,-19,-4,-92,-122
-24,-14,9,19,-17,-2,4,-53,-14,-14,-97,-122
-24,-14,9,19,-17,-2,4,-53,-9,-14,-102,-126
-39,-19,19,29,-29,0,4,-53,-19,-14,-112,-131
-39,-19,19,29,-29,0,4,-53,-19,-24,-112,-136
-39,-24,14,31,-26,-4,4,-53,-19,-14,-112,-136
-34,-24,9,29,-21,-7,4,-53,-19,-14,-112,-131
-9,-9,0,9,-4,-4,9,-53,-19,-4,-107,-136
-9,0,9,4,-9,4,9,-48,-19,-4,-102,-141
-24,9,34,7,-29,21,9,-48,-19,-4,-97,-151
-34,0,34,17,-34,17,4,-48,-19,-9,-97,-161
-39,-24,14,31,-26,-4,14,-58,-19,0,-87,-151
-39,-14,24,26,-31,4,19,-48,-19,0,-87,-146
-39,-9,29,24,-34,9,19,-48,-19,0,-87,-141
-39,-29,9,34,-24,-9,19,-48,-19,0,-87,-141
-48,-29,19,39,-34,-4,14,-58,-24,-4,-82,-126
-39,-19,19,29,-29,0,9,-53,-29,-9,-78,-122
-39,-19,19,29,-29,0,9,-53,-34,-14,-73,-112
-39,-19,19,29,-29,0,4,-48,-34,-19,-68,-102
-19,-19,0,19,-9,-9,14,-48,-29,-14,-53,-82
-19,-9,9,14,-14,0,14,-48,-29,-14,-53,-78
-29,-24,4,26,-17,-9,19,-48,-29,-14,-53,-82
-29,-39,-9,34,-9,-24,19,-48,-29,-14,-53,-78
-34,-29,4,31,-19,-12,9,-48,-29,-4,-43,-82
-34,-19,14,26,-24,-2,9,-48,-29,0,-39,-82
-39,-19,19,29,-29,0,9,-48,-29,0,-29,-82
-43,-19,24,31,-34,2,9,-48,-29,0,-24,-82
-39,-19,19,29,-29,0,14,-48,-29,14,-19,-68
-29,-14,14,21,-21,0,14,-48,-29,14,-19,-58
-24,-14,9,19,-17,-2,14,-48,-14,19,-9,-53
-24,-14,9,19,-17,-2,14,-43,-14,29,-4,-43
-34,-4,29,19,-31,12,4,-34,-24,24,-14,-48
-24,-4,19,14,-21,7,9,-34,-24,19,-14,-53
-24,-4,19,14,-21,7,9,-34,-24,14,-14,-58
-24,-9,14,17,-19,2,9,-34,-19,19,-4,-53
-24,-24,0,24,-12,-12,19,-34,-9,9,-14,-34
-24,-24,0,24,-12,-12,19,-34,-19,4,-14,-29
-19,-24,-4,21,-7,-14,14,-34,-19,4,-4,-24
-19,-29,-9,24,-4,-19,14,-34,-4,14,0,-14
-19,-14,4,17,-12,-4,9,-39,4,29,4,-19
-19,-9,9,14,-14,0,9,-39,4,29,4,-19
-19,-4,14,12,-17,4,4,-39,-4,29,4,-19
-19,4,24,7,-21,14,4,-39,-4,39,14,-9
-9,4,14,2,-12,9,14,-34,4,29,4,-9
-4,4,9,0,-7,7,14,-34,4,24,4,-9
4,9,4,-7,0,7,14,-34,4,24,4,-4
19,19,0,-19,9,9,14,-34,9,24,14,4
0,-9,-9,4,4,-9,4,-48,0,19,9,-4
-29,-9,19,19,-24,4,0,-48,-4,14,4,-4
-29,0,29,14,-29,14,-4,-43,-9,19,9,0
-24,0,24,12,-24,12,-4,-43,-14,19,4,4
-34,-9,24,21,-29,7,-14,-53,4,29,14,0
-39,-4,34,21,-36,14,-19,-43,9,29,14,0
-48,-4,43,26,-46,19,-19,-43,9,29,14,0
-53,-14,39,34,-46,12,-19,-53,14,29,14,-4
-39,-4,34,21,-36,14,-24,-53,4,24,14,-4
-34,4,39,14,-36,21,-24,-53,4,24,14,0
-19,14,34,2,-26,24,-19,-53,4,24,14,4
-9,24,34,-7,-21,29,-9,-53,9,24,9,9
-9,19,29,-4,-19,24,0,-43,19,19,0,0
-24,4,29,9,-26,17,-4,-43,19,19,-9,-4
-24,0,24,12,-24,12,-9,-43,19,19,-9,-9
-19,-4,14,12,-17,4,-9,-43,14,24,-9,-14
-19,14,34,2,-26,24,-9,-53,14,34,-9,-19
-19,24,43,-2,-31,34,-9,-53,19,34,-9,-19
-19,29,48,-4,-34,39,-9,-53,19,34,-9,-19
-24,29,53,-2,-39,41,-9,-53,14,24,-19,-24
-14,24,39,-4,-26,31,-9,-43,14,9,-24,-29
-19,19,39,0,-29,29,-9,-43,14,9,-24,-29
-19,19,39,0,-29,29,-9,-39,19,9,-19,-24
-19,19,39,0,-29,29,-9,-39,19,9,-14,-24
-9,19,29,-4,-19,24,-4,-43,19,4,-14,-9
-19,9,29,4,-24,19,-4,-43,19,4,-29,-9
-19,0,19,9,-19,9,-4,-43,19,9,-29,-14
-29,9,39,9,-34,24,-4,-48,19,9,-34,-24
-34,0,34,17,-34,17,0,-39,19,0,-34,-43
-34,0,34,17,-34,17,0,-39,19,4,-34,-43
-29,0,29,14,-29,14,0,-39,14,9,-29,-43
-24,0,24,12,-24,12,0,-39,14,14,-24,-34
-34,0,34,17,-34,17,-9,-39,14,4,-34,-43
-34,4,39,14,-36,21,-9,-39,14,4,-34,-43
-29,4,34,12,-31,19,-9,-39,9,-4,-39,-43
-24,9,34,7,-29,21,-4,-39,9,-4,-39,-43
-24,0,24,12,-24,12,9,-48,9,-4,-43,-58
-34,4,39,14,-36,21,9,-43,9,-4,-48,-58
-43,4,48,19,-46,26,4,-43,9,-9,-48,-58
-48,-19,29,34,-39,4,0,-48,9,-19,-53,-63
-53,-9,43,31,-48,17,9,-39,0,-19,-53,-63
-34,4,39,14,-36,21,24,-34,0,-19,-48,-68
-24,4,29,9,-26,17,14,-34,4,-14,-48,-68
-14,4,19,4,-17,12,4,-34,4,-9,-53,-63
0,29,29,-14,-14,29,14,-39,-4,-9,-53,-53
9,19,9,-14,0,14,14,-39,-4,-9,-53,-43
-19,0,19,9,-19,9,14,-43,-4,-14,-58,-58
-29,0,29,14,-29,14,14,-43,-4,-19,-63,-63
-29,-19,9,24,-19,-4,4,-53,-9,-24,-68,-78
-29,-24,4,26,-17,-9,0,-53,-14,-29,-73,-82
-39,-24,14,31,-26,-4,0,-53,-19,-34,-82,-87
-48,-29,19,39,-34,-4,-4,-53,-34,-48,-87,-92
-43,-24,19,34,-31,-2,-4,-48,-34,-48,-87,-82
-53,-34,19,43,-36,-7,-4,-53,-34,-53,-92,-92
-53,-29,24,41,-39,-2,0,-53,-29,-58,-102,-92
-48,-24,24,36,-36,0,14,-48,-29,-58,-92,-92
-39,-43,-4,41,-17,-24,14,-39,-24,-43,-82,-92
-39,-43,-4,41,-17,-24,19,-39,-19,-34,-78,-87
-34,-39,-4,36,-14,-21,19,-34,-9,-34,-73,-102
-34,-29,4,31,-19,-12,19,-29,0,-34,-73,-107
-34,-24,9,29,-21,-7,19,-29,0,-34,-73,-112
-34,-19,14,26,-24,-2,14,-29,-14,-34,-78,-112
-29,-9,19,19,-24,4,14,-29,-14,-29,-78,-92
-29,-4,24,17,-26,9,14,-29,-9,-29,-73,-78
-43,-24,19,34,-31,-2,14,-29,-9,-43,-78,-78
-53,-34,19,43,-36,-7,14,-29,-9,-48,-78,-82
-43,-39,4,41,-24,-17,14,-34,-9,-43,-82,-87
-34,-29,4,31,-19,-12,14,-34,-14,-48,-87,-92
-29,-14,14,21,-21,0,9,-48,-19,-48,-82,-92
-39,-14,24,26,-31,4,9,-48,-19,-48,-92,-92
-34,-19,14,26,-24,-2,9,-53,-19,-43,-92,-87
-34,-4,29,19,-31,12,9,-53,-14,-39,-87,-82
-39,-14,24,26,-31,4,9,-39,-19,-48,-87,-87
-34,-14,19,24,-26,2,9,-39,-19,-48,-87,-87
-34,-9,24,21,-29,7,9,-39,-4,-43,-87,-82
-39,-9,29,24,-34,9,14,-39,0,-43,-87,-78
-34,-14,19,24,-26,2,14,-48,-9,-39,-87,-87
-34,-14,19,24,-26,2,9,-53,-19,-43,-92,-92
-43,-19,24,31,-34,2,9,-53,-19,-43,-92,-97
-43,-34,9,39,-26,-12,9,-53,-24,-39,-92,-97
-34,-29,4,31,-19,-12,9,-39,-24,-34,-78,-82
-34,-24,9,29,-21,-7,9,-39,-19,-29,-78,-82
-34,-19,14,26,-24,-2,9,-39,-9,-24,-78,-78
-34,-14,19,24,-26,2,9,-39,-4,-19,-78,-78
-39,-19,19,29,-29,0,9,-39,-14,-39,-87,-87
-48,-24,24,36,-36,0,9,-48,-14,-43,-97,-92
-53,-34,19,43,-36,-7,4,-48,-14,-43,-102,-97
-58,-39,19,48,-39,-9,4,-43,-14,-48,-102,-107
-53,-34,19,43,-36,-7,9,-43,-9,-34,-87,-102
-48,-29,19,39,-34,-4,9,-39,-9,-39,-87,-102
-43,-24,19,34,-31,-2,9,-39,-4,-34,-82,-97
-39,-14,24,26,-31,4,14,-39,0,-24,-73,-87
-34,-24,9,29,-21,-7,4,-39,-9,-29,-82,-97
-34,-24,9,29,-21,-7,4,-39,-14,-34,-82,-97
-34,-24,9,29,-21,-7,4,-43,-14,-39,-82,-97
-29,-19,9,24,-19,-4,4,-43,-14,-39,-82,-97
-39,-14,24,26,-31,4,-9,-53,-14,-29,-82,-82
-39,-14,24,26,-31,4,-9,-53,-14,-34,-82,-82
-39,-14,24,26,-31,4,-9,-53,-14,-34,-82,-82
-48,-19,29,34,-39,4,-9,-53,-19,-34,-82,-78
-43,-14,29,29,-36,7,-4,-53,-9,-39,-82,-78
-39,-29,9,34,-24,-9,-9,-48,-19,-48,-87,-87
-39,-29,9,34,-24,-9,0,-48,-19,-39,-87,-97
-39,-29,9,34,-24,-9,0,-48,-19,-39,-87,-97
-39,-29,9,34,-24,-9,0,-48,-19,-39,-87,-97
-39,-29,9,34,-24,-9,0,-48,-19,-39,-87,-97
-29,-19,9,24,-19,-4,4,-39,-19,-43,-97,-97
-34,-29,4,31,-19,-12,9,-34,-19,-48,-102,-97
-43,-24,19,34,-31,-2,4,-34,-19,-53,-107,-97
-43,-19,24,31,-34,2,9,-34,-24,-53,-107,-97
-39,-9,29,24,-34,9,4,-43,-24,-58,-102,-102
-39,-29,9,34,-24,-9,4,-43,-24,-53,-102,-102
-39,-34,4,36,-21,-14,4,-43,-24,-53,-102,-102
-39,-29,9,34,-24,-9,9,-39,-24,-53,-102,-102
-34,-9,24,21,-29,7,19,-39,-19,-53,-92,-97
-34,-24,9,29,-21,-7,19,-39,-19,-53,-92,-97
-39,-34,4,36,-21,-14,19,-43,-19,-53,-92,-107
-39,-19,19,29,-29,0,14,-48,-19,-53,-92,-107
-29,-9,19,19,-24,4,24,-39,-29,-53,-102,-117
-29,-19,9,24,-19,-4,24,-34,-29,-53,-102,-117
-34,-19,14,26,-24,-2,24,-34,-29,-53,-102,-117
-34,-19,14,26,-24,-2,24,-34,-29,-53,-97,-117
-34,-19,14,26,-24,-2,9,-43,-34,-63,-107,-112
-39,-19,19,29,-29,0,9,-43,-34,-68,-107,-112
-39,-24,14,31,-26,-4,14,-43,-34,-68,-107,-102
-43,-29,14,36,-29,-7,14,-43,-29,-73,-107,-102
-39,-24,14,31,-26,-4,14,-43,-24,-58,-97,-112
-34,-19,14,26,-24,-2,19,-43,-19,-53,-102,-122
-34,-19,14,26,-24,-2,19,-43,-24,-58,-107,-122
-39,-14,24,26,-31,4,9,-43,-19,-53,-107,-122
-43,-29,14,36,-29,-7,9,-43,-24,-53,-112,-107
-43,-34,9,39,-26,-12,14,-39,-29,-53,-107,-107
-43,-39,4,41,-24,-17,14,-29,-34,-58,-107,-102
-48,-43,4,46,-26,-19,14,-24,-39,-63,-117,-102
-53,-48,4,51,-29,-21,14,-24,-29,-58,-107,-92
-53,-53,0,53,-26,-26,14,-29,-24,-53,-102,-92
-53,-53,0,53,-26,-26,14,-29,-19,-53,-102,-92
-39,-39,0,39,-19,-19,14,-29,-14,-48,-102,-92
-24,-19,4,21,-14,-7,19,-24,-4,-39,-92,-97
-19,-14,4,17,-12,-4,19,-24,-4,-34,-92,-102
-19,-24,-4,21,-7,-14,19,-24,-4,-24,-92,-112
-48,-39,9,43,-29,-14,9,-29,-14,-39,-97,-126
-48,-48,0,48,-24,-24,0,-34,-24,-58,-107,-122
-39,-39,0,39,-19,-19,4,-39,-19,-53,-102,-107
-39,-39,0,39,-19,-19,9,-43,-19,-53,-102,-102
-43,-29,14,36,-29,-7,9,-48,-19,-53,-102,-97
-58,-39,19,48,-39,-9,9,-34,-14,-43,-92,-97
-58,-39,19,48,-39,-9,19,-34,-14,-43,-92,-97
-58,-39,19,48,-39,-9,19,-34,-14,-43,-92,-97
-53,-34,19,43,-36,-7,14,-34,-14,-43,-92,-97
-43,-34,9,39,-26,-12,4,-43,-14,-39,-87,-102
-43,-34,9,39,-26,-12,4,-43,-14,-39,-87,-102
-48,-34,14,41,-31,-9,4,-43,-14,-48,-92,-107
-48,-34,14,41,-31,-9,9,-43,-14,-48,-92,-107
-39,-24,14,31,-26,-4,0,-34,0,-39,-92,-92
-39,-24,14,31,-26,-4,0,-34,0,-39,-87,-92
-39,-24,14,31,-26,-4,0,-34,-4,-43,-87,-97
-43,-24,19,34,-31,-2,-4,-39,-4,-43,-92,-97
-39,-14,24,26,-31,4,-4,-48,-4,-39,-82,-97
-19,-4,14,12,-17,4,-4,-43,0,-34,-78,-92
-9,0,9,4,-9,4,0,-43,0,-24,-78,-82
-4,4,9,0,-7,7,0,-43,0,-14,-78,-82
-39,-19,19,29,-29,0,-9,-53,-9,-19,-92,-82
-43,-19,24,31,-34,2,-14,-53,-9,-29,-92,-82
-43,-4,39,24,-41,17,-14,-53,-9,-34,-87,-82
-43,-4,39,24,-41,17,-14,-53,-9,-39,-87,-87
-29,-9,19,19,-24,4,-9,-53,-4,-34,-87,-102
-29,-24,4,26,-17,-9,-9,-48,-4,-34,-87,-102
-29,-24,4,26,-17,-9,-4,-43,-4,-34,-87,-97
-24,-19,4,21,-14,-7,4,-29,4,-29,-87,-92
-29,-9,19,19,-24,4,-4,-34,0,-39,-87,-102
-34,-14,19,24,-26,2,-9,-48,-4,-39,-87,-102
-39,-19,19,29,-29,0,-9,-53,-9,-39,-82,-102
-43,-24,19,34,-31,-2,-9,-58,-14,-39,-82,-102
-39,-24,14,31,-26,-4,-4,-53,-4,-29,-82,-92
-43,-29,14,36,-29,-7,-4,-48,-4,-29,-82,-92
-39,-29,9,34,-24,-9,-9,-43,-4,-29,-82,-92
-34,-39,-4,36,-14,-21,-9,-39,-4,-34,-92,-87
-29,-29,0,29,-14,-14,-4,-34,9,-34,-73,-78
-29,-29,0,29,-14,-14,0,-34,9,-24,-68,-78
-34,-34,0,34,-17,-17,0,-39,0,-24,-68,-78
-34,-34,0,34,-17,-17,4,-39,0,-24,-68,-78
-39,-43,-4,41,-17,-24,9,-29,-4,-24,-78,-82
-29,-24,4,26,-17,-9,9,-24,4,-9,-68,-78
-24,-14,9,19,-17,-2,4,-24,4,-4,-63,-82
-48,-29,19,39,-34,-4,4,-24,4,-4,-58,-78
-4,0,4,2,-4,2,4,-24,4,-4,-39,-73
-14,-9,4,12,-9,-2,0,-24,0,-4,-34,-53
-24,-24,0,24,-12,-12,0,-24,14,24,-9,-34
4,-24,-29,9,17,-26,19,14,48,73,43,0
24,-19,-43,-2,34,-31,29,43,92,141,122,29
34,-24,-58,-4,46,-41,29,58,141,229,204,48
39,-14,-53,-12,46,-34,9,63,195,351,317,107
48,39,-9,-43,29,14,-24,48,268,478,488,229
68,126,58,-97,4,92,-53,9,346,634,678,380
102,248,146,-175,-21,197,-102,-24,429,805,873,531
146,370,224,-258,-39,297,-146,-48,541,980,1078,712
165,468,302,-317,-68,385,-195,-53,634,1141,1283,907
165,546,380,-356,-107,463,-239,-78,702,1273,1464,1117
190,639,448,-414,-129,544,-287,-107,736,1351,1649,1381
229,727,497,-478,-134,612,-326,-151,727,1351,1825,1712
248,834,585,-541,-168,710,-395,-239,649,1268,1947,2030
258,917,658,-588,-200,788,-463,-341,541,1117,2000,2327
268,995,727,-631,-229,861,-512,-448,405,912,2005,2640
273,1102,829,-688,-278,966,-566,-570,239,712,2049,2976
263,1200,936,-732,-336,1068,-614,-673,73,522,2127,3303
244,1254,1010,-749,-383,1132,-653,-727,-43,366,2215,3645
185,1327,1141,-756,-478,1234,-678,-805,-117,273,2357,4060
34,1434,1400,-734,-683,1417,-697,-868,-131,234,2542,4479
-122,1595,1717,-736,-919,1656,-688,-936,-122,200,2679,4748
-263,1771,2034,-753,-1149,1903,-688,-1015,-146,102,2620,4699
-380,1849,2230,-734,-1305,2039,-678,-1063,-209,-73,2361,4304
-458,1825,2283,-683,-1371,2054,-653,-1102,-287,-278,2010,3782
-492,1732,2225,-619,-1359,1978,-619,-1127,-409,-497,1615,3240
-497,1566,2064,-534,-1281,1815,-575,-1127,-600,-746,1107,2503
-488,1293,1781,-402,-1134,1537,-497,-1058,-771,-1019,453,1586
-483,941,1424,-229,-954,1183,-380,-932,-893,-1273,-273,702
-502,614,1117,-56,-810,866,-268,-805,-966,-1493,-1000,-117
-502,361,863,70,-683,612,-170,-688,-1024,-1678,-1673,-868
-473,195,668,139,-570,431,-87,-575,-1044,-1747,-1952,-1210
-424,78,502,173,-463,290,-43,-502,-1034,-1649,-1722,-1078
-409,-34,375,222,-392,170,-19,-458,-1019,-1532,-1507,-941
-405,-156,248,280,-326,46,19,-375,-985,-1468,-1468,-956
-351,-234,117,292,-234,-58,73,-268,-907,-1346,-1346,-922
-302,-263,39,283,-170,-112,107,-204,-805,-1176,-1156,-824
-273,-292,-19,283,-126,-156,112,-175,-727,-1044,-1039,-756
-239,-312,-73,275,-82,-192,112,-126,-649,-907,-912,-688
-190,-297,-107,244,-41,-202,122,-58,-531,-727,-736,-595
-151,-268,-117,209,-17,-192,112,-14,-400,-561,-595,-502
-92,-195,-102,143,4,-148,102,9,-287,-434,-492,-419
-58,-146,-87,102,14,-117,82,9,-200,-346,-409,-366
-102,-156,-53,129,-24,-104,53,-19,-170,-302,-370,-336
-117,-161,-43,139,-36,-102,39,-34,-151,-278,-336,-317
-82,-122,-39,102,-21,-80,53,-24,-136,-248,-297,-292
-53,-102,-48,78,-2,-75,53,-14,-112,-200,-268,-273
-53,-112,-58,82,2,-85,43,-4,-82,-161,-234,-263
-63,-112,-48,87,-7,-80,39,4,-53,-122,-195,-244
-63,-102,-39,82,-12,-70,39,14,-34,-87,-165,-229
-43,-92,-48,68,2,-70,34,24,-24,-87,-170,-219
-43,-92,-48,68,2,-70,34,24,-24,-87,-165,-219
-48,-92,-43,70,-2,-68,34,19,-24,-87,-165,-219
-58,-112,-53,85,-2,-82,29,14,-29,-82,-170,-219
-53,-102,-48,78,-2,-75,39,14,-34,-92,-170,-229
-53,-112,-58,82,2,-85,43,14,-34,-78,-161,-229
-39,-102,-63,70,12,-82,43,29,-24,-63,-146,-229
-39,-102,-63,70,12,-82,48,34,-14,-53,-146,-229
-39,-112,-73,75,17,-92,48,34,-9,-48,-131,-219
-34,-112,-78,73,21,-95,48,34,-4,-48,-131,-219
-34,-102,-68,68,17,-85,53,34,-4,-48,-136,-214
-34,-102,-68,68,17,-85,53,29,0,-43,-136,-214
-24,-97,-73,61,24,-85,53,29,-4,-43,-146,-224
-24,-97,-73,61,24,-85,58,29,-4,-39,-146,-224
-14,-97,-82,56,34,-90,63,34,0,-39,-141,-224
-14,-102,-87,58,36,-95,73,43,0,-43,-141,-219
-19,-117,-97,68,39,-107,73,43,-4,-48,-141,-229
-29,-117,-87,73,29,-102,68,43,-4,-48,-141,-234
-34,-112,-78,73,21,-95,68,39,-14,-53,-151,-234
-39,-107,-68,73,14,-87,68,39,-19,-58,-151,-239
-39,-117,-78,78,19,-97,58,29,-24,-68,-165,-244
-39,-131,-92,85,26,-112,58,29,-24,-68,-165,-244
-39,-131,-92,85,26,-112,58,34,-19,-68,-156,-239
-29,-126,-97,78,34,-112,63,34,-9,-58,-156,-239
-39,-126,-87,82,24,-107,73,43,-9,-53,-146,-234
-39,-131,-92,85,26,-112,73,48,-9,-53,-146,-234
-39,-131,-92,85,26,-112,73,48,-9,-53,-156,-234
-39,-136,-97,87,29,-117,73,43,-19,-63,-161,-244
-39,-136,-97,87,29,-117,73,43,-29,-78,-170,-244
-29,-136,-107,82,39,-122,73,39,-29,-73,-170,-248
-29,-136,-107,82,39,-122,78,39,-29,-78,-170,-248
-29,-141,-112,85,41,-126,78,43,-19,-73,-170,-248
-39,-151,-112,95,36,-131,68,43,-14,-63,-170,-258
-34,-151,-117,92,41,-134,68,43,-9,-63,-170,-258
-34,-151,-117,92,41,-134,73,43,-9,-73,-175,-263
-43,-151,-107,97,31,-129,73,43,-9,-78,-175,-268
-53,-151,-97,102,21,-124,73,48,-14,-78,-185,-273
-43,-151,-107,97,31,-129,73,53,-14,-78,-185,-273
-43,-151,-107,97,31,-129,73,58,-4,-68,-180,-268
-43,-151,-107,97,31,-129,78,63,-4,-58,-180,-268
-39,-156,-117,97,39,-136,87,63,-4,-68,-175,-268
-34,-156,-122,95,43,-139,87,63,-4,-68,-180,-273
-34,-151,-117,92,41,-134,87,68,-9,-78,-185,-278
-29,-141,-112,85,41,-126,87,68,-9,-92,-190,-278
-29,-136,-107,82,39,-122,78,63,0,-82,-190,-273
-29,-141,-112,85,41,-126,78,63,-9,-87,-195,-278
-29,-141,-112,85,41,-126,82,63,-9,-87,-200,-278
-29,-136,-107,82,39,-122,82,68,-4,-87,-200,-278
-39,-161,-122,100,41,-141,92,73,-4,-87,-209,-283
-39,-170,-131,104,46,-151,97,78,-4,-82,-214,-287
-39,-161,-122,100,41,-141,97,78,-4,-78,-214,-292
-29,-151,-122,90,46,-136,102,78,-4,-78,-214,-297
-34,-156,-122,95,43,-139,97,78,-14,-82,-204,-307
-43,-161,-117,102,36,-139,92,73,-24,-102,-224,-317
-48,-175,-126,112,39,-151,87,68,-24,-112,-224,-322
-43,-180,-136,112,46,-158,92,73,-19,-102,-224,-326
-39,-165,-126,102,43,-146,102,82,-4,-92,-214,-322
-34,-170,-136,102,51,-153,102,78,-4,-92,-219,-326
-48,-170,-122,109,36,-146,102,78,-4,-92,-224,-326
-29,-165,-136,97,53,-151,102,82,-4,-97,-224,-331
-29,-175,-146,102,58,-161,107,92,-4,-97,-234,-326
-34,-180,-146,107,56,-163,107,92,-9,-112,-239,-326
-43,-190,-146,117,51,-168,107,92,-14,-112,-244,-326
-24,-180,-156,102,65,-168,107,92,-19,-117,-244,-326
-39,-185,-146,112,53,-165,92,87,-19,-117,-248,-346
-48,-190,-141,119,46,-165,92,82,-9,-117,-253,-351
-53,-200,-146,126,46,-173,102,82,-9,-117,-253,-351
-48,-209,-161,129,56,-185,102,78,-9,-112,-253,-356
-58,-200,-141,129,41,-170,112,82,-19,-102,-258,-361
-53,-209,-156,131,51,-183,112,82,-19,-112,-258,-366
-43,-204,-161,124,58,-183,117,82,-24,-112,-263,-370
-39,-195,-156,117,58,-175,117,82,-24,-112,-263,-370
-29,-204,-175,117,73,-190,112,87,-24,-117,-278,-375
-34,-209,-175,122,70,-192,112,97,-24,-126,-283,-380
-34,-214,-180,124,73,-197,112,102,-24,-146,-297,-390
-29,-219,-190,124,80,-204,112,107,-24,-151,-297,-390
-19,-219,-200,119,90,-209,126,107,-34,-136,-287,-385
-19,-224,-204,122,92,-214,126,107,-34,-136,-283,-385
-39,-234,-195,136,78,-214,126,107,-34,-141,-283,-385
-48,-248,-200,148,75,-224,126,107,-34,-141,-292,-395
-34,-248,-214,141,90,-231,126,117,-24,-151,-307,-395
-34,-239,-204,136,85,-222,131,117,-24,-151,-307,-395
-34,-239,-204,136,85,-222,131,122,-24,-151,-307,-395
-29,-248,-219,139,95,-234,131,122,-29,-161,-317,-405
-29,-248,-219,139,95,-234,136,122,-39,-161,-322,-419
-29,-248,-219,139,95,-234,136,122,-39,-161,-326,-419
-39,-263,-224,151,92,-244,136,122,-43,-165,-326,-414
-29,-268,-239,148,104,-253,136,122,-43,-165,-326,-414
-29,-278,-248,153,109,-263,146,122,-48,-175,-331,-414
-24,-278,-253,151,114,-265,146,126,-48,-175,-331,-414
-24,-278,-253,151,114,-265,146,126,-48,-175,-336,-414
-24,-278,-253,151,114,-265,151,126,-48,-170,-336,-414
-24,-287,-263,156,119,-275,151,126,-48,-170,-326,-405
-24,-287,-263,156,119,-275,151,126,-53,-185,-326,-400
-24,-287,-263,156,119,-275,146,122,-53,-185,-326,-370
-24,-292,-268,158,122,-280,141,122,-63,-185,-326,-356
-14,-283,-268,148,126,-275,141,107,-63,-180,-331,-341
-9,-278,-268,143,129,-273,146,107,-58,-180,-322,-331
0,-278,-278,139,139,-278,146,107,-58,-175,-312,-317
0,-273,-273,136,136,-273,141,107,-63,-170,-307,-302
-19,-273,-253,146,117,-263,126,87,-68,-170,-292,-278
-24,-283,-258,153,117,-270,126,78,-68,-170,-287,-258
-29,-273,-244,151,107,-258,126,78,-68,-170,-283,-239
-34,-263,-229,148,97,-246,112,68,-68,-170,-273,-214
-19,-248,-229,134,104,-239,97,68,-58,-165,-253,-195
-14,-229,-214,122,100,-222,97,63,-58,-165,-244,-170
-14,-219,-204,117,95,-212,87,48,-68,-165,-244,-156
-14,-209,-195,112,90,-202,82,39,-68,-165,-229,-131
-24,-204,-180,114,78,-192,78,39,-63,-141,-209,-112
-24,-204,-180,114,78,-192,73,34,-63,-136,-195,-87
-24,-190,-165,107,70,-178,73,34,-63,-131,-180,-58
-24,-180,-156,102,65,-168,68,19,-63,-126,-165,-24
-19,-161,-141,90,61,-151,63,14,-53,-122,-141,9
-4,-131,-126,68,61,-129,53,4,-53,-117,-126,34
9,-102,-112,46,61,-107,53,4,-53,-107,-107,58
4,-87,-92,41,48,-90,43,-4,-53,-102,-102,82
-4,-82,-78,43,36,-80,24,-14,-43,-78,-82,112
-4,-73,-68,39,31,-70,19,-24,-43,-73,-68,141
-4,-58,-53,31,24,-56,9,-29,-43,-63,-48,165
0,-53,-53,26,26,-53,4,-34,-39,-53,-29,195
-4,-48,-43,26,19,-46,-14,-43,-24,-34,0,209
-4,-24,-19,14,7,-21,-24,-53,-19,-14,24,224
-9,0,9,4,-9,4,-34,-58,-19,-9,34,244
-4,19,24,-7,-14,21,-34,-58,-4,-9,58,263
14,39,24,-26,-4,31,-24,-53,9,34,92,268
0,48,48,-24,-24,48,-39,-63,24,43,102,263
-9,48,58,-19,-34,53,-43,-73,34,58,117,258
4,68,63,-36,-29,65,-43,-63,43,63,131,263
14,73,58,-43,-21,65,-39,-53,58,87,136,253
9,73,63,-41,-26,68,-48,-58,63,87,136,248
9,82,73,-46,-31,78,-48,-58,68,107,151,248
9,97,87,-53,-39,92,-48,-58,82,126,165,234
0,92,92,-46,-46,92,-48,-48,87,122,161,224
4,102,97,-53,-46,100,-48,-43,97,131,156,209
9,97,87,-53,-39,92,-43,-34,102,141,151,195
9,92,82,-51,-36,87,-43,-34,107,141,141,180
9,92,82,-51,-36,87,-43,-34,97,141,141,151
9,92,82,-51,-36,87,-43,-34,97,141,131,141
9,92,82,-51,-36,87,-43,-29,97,141,126,131
0,92,92,-46,-46,92,-43,-29,97,141,117,112
-9,78,87,-34,-48,82,-34,-29,102,131,97,97
-4,78,82,-36,-43,80,-29,-24,102,131,97,87
-4,73,78,-34,-41,75,-29,-19,102,126,87,73
-14,63,78,-24,-46,70,-24,-14,92,117,68,68
-24,68,92,-21,-58,80,-34,-19,87,117,78,58
-14,68,82,-26,-48,75,-29,-19,87,112,78,48
-9,73,82,-31,-46,78,-29,-19,87,112,73,43
0,73,73,-36,-36,73,-24,-14,82,107,58,34
0,58,58,-29,-29,58,-24,-4,73,107,53,39
-9,43,53,-17,-31,48,-24,-4,68,97,43,19
-4,48,53,-21,-29,51,-24,-4,63,87,34,14
4,63,58,-34,-26,61,-19,4,63,82,29,14
-4,53,58,-24,-31,56,-9,-4,78,87,24,14
-4,58,63,-26,-34,61,-9,-4,78,87,29,4
-4,58,63,-26,-34,61,-9,-4,78,87,34,0
0,58,58,-29,-29,58,-9,-4,78,82,34,0
-4,53,58,-24,-31,56,-4,-4,63,78,24,-4
-9,43,53,-17,-31,48,-4,-4,58,68,14,-9
-24,24,48,0,-36,36,-4,-4,53,53,4,-14
-29,19,48,4,-39,34,-4,-4,53,48,0,-14
-24,43,68,-9,-46,56,4,4,43,48,0,-14
-34,24,58,4,-46,41,4,4,43,43,-4,-19
-29,29,58,0,-43,43,4,4,39,39,-9,-24
-9,43,53,-17,-31,48,4,4,39,39,-14,-24
-9,39,48,-14,-29,43,-4,-4,39,39,-19,-39
-19,19,39,0,-29,29,-4,-4,39,39,-19,-43
-19,24,43,-2,-31,34,-4,-4,39,39,-19,-43
-19,19,39,0,-29,29,0,0,39,48,-19,-39
-9,19,29,-4,-19,24,14,9,43,43,-24,-48
-9,19,29,-4,-19,24,14,9,43,39,-24,-48
-19,19,39,0,-29,29,9,4,39,34,-34,-58
-19,19,39,0,-29,29,9,4,39,29,-39,-63
-24,9,34,7,-29,21,0,-4,34,19,-29,-63
-24,9,34,7,-29,21,4,0,34,19,-34,-68
-29,0,29,14,-29,14,4,0,29,14,-34,-73
-29,0,29,14,-29,14,4,0,14,9,-39,-82
-14,14,29,0,-21,21,14,9,14,19,-48,-92
-14,19,34,-2,-24,26,19,9,19,24,-48,-92
-24,19,43,2,-34,31,19,9,29,24,-58,-92
-24,14,39,4,-31,26,19,9,34,24,-58,-92
-24,-4,19,14,-21,7,9,19,29,14,-63,-92
-24,-4,19,14,-21,7,9,19,29,14,-63,-92
-14,-4,9,9,-12,2,14,24,29,4,-68,-87
-14,-4,9,9,-12,2,14,24,29,4,-73,-87
-19,4,24,7,-21,14,24,14,34,9,-68,-82
-19,9,29,4,-24,19,24,14,39,4,-63,-87
-19,9,29,4,-24,19,24,14,43,19,-58,-87
-14,14,29,0,-21,21,24,14,48,24,-53,-82
0,19,19,-9,-9,19,19,14,39,24,-63,-92
0,19,19,-9,-9,19,19,19,39,24,-63,-92
-14,19,34,-2,-24,26,19,19,39,24,-63,-97
-24,0,24,12,-24,12,14,19,39,19,-68,-102
-19,-9,9,14,-14,0,14,19,48,29,-58,-97
-19,4,24,7,-21,14,19,29,48,29,-58,-97
-19,14,34,2,-26,24,19,29,48,29,-58,-97
-19,0,19,9,-19,9,19,29,48,29,-58,-102
-29,-9,19,19,-24,4,9,24,39,19,-58,-92
-19,0,19,9,-19,9,9,24,39,19,-58,-92
-19,0,19,9,-19,9,14,19,39,19,-58,-87
-19,0,19,9,-19,9,14,19,43,19,-58,-82
0,0,0,0,0,0,14,29,58,34,-48,-78
0,9,9,-4,-4,9,14,29,58,34,-43,-78
-9,-4,4,7,-7,0,19,29,58,34,-39,-87
-9,-19,-9,14,0,-14,19,29,58,34,-34,-87
0,-4,-4,2,2,-4,19,19,58,39,-24,-78
4,9,4,-7,0,7,19,19,58,48,-19,-73
4,14,9,-9,-2,12,19,19,58,53,-9,-68
4,19,14,-12,-4,17,19,19,58,58,-4,-63
0,4,4,-2,-2,4,14,19,58,53,0,-53
0,4,4,-2,-2,4,14,19,58,53,0,-48
-4,0,4,2,-4,2,14,19,73,58,9,-48
-14,-4,9,9,-12,2,14,24,73,68,14,-43
-14,-4,9,9,-12,2,4,24,73,68,24,-39
-4,-4,0,4,-2,-2,9,24,73,68,24,-34
-4,-4,0,4,-2,-2,9,24,73,68,24,-29
-4,-9,-4,7,0,-7,9,24,78,78,34,-14
4,0,-4,-2,4,-2,19,34,78,87,34,0
4,4,0,-4,2,2,19,34,68,82,34,0
9,9,0,-9,4,4,14,34,68,82,43,0
9,9,0,-9,4,4,14,34,82,92,48,4
9,19,9,-14,0,14,9,29,82,97,53,0
9,19,9,-14,0,14,9,29,82,97,53,0
9,19,9,-14,0,14,4,29,73,97,53,0
9,24,14,-17,-2,19,4,29,73,107,63,9
0,9,9,-4,-4,9,14,34,82,107,63,9
-4,4,9,0,-7,7,14,34,82,102,63,9
-4,4,9,0,-7,7,14,34,82,102,63,14
0,9,9,-4,-4,9,14,34,87,102,73,24
0,-14,-14,7,7,-14,9,19,87,97,58,19
-19,-9,9,14,-14,0,9,19,82,92,53,14
-9,4,14,2,-12,9,9,24,78,97,58,14
4,9,4,-7,0,7,14,24,73,97,53,14
19,9,-9,-14,14,0,24,19,78,97,63,9
19,14,-4,-17,12,4,19,34,78,97,63,9
14,14,0,-14,7,7,19,39,73,97,63,9
14,4,-9,-9,12,-2,19,34,73,97,63,4
0,-4,-4,2,2,-4,19,34,63,82,63,4
-4,-4,0,4,-2,-2,14,34,63,82,63,9
0,-4,-4,2,2,-4,14,34,63,82,63,14
0,-4,-4,2,2,-4,19,34,68,82,58,19
0,-4,-4,2,2,-4,19,24,58,68,48,19
-14,-14,0,14,-7,-7,14,24,58,68,39,14
-14,-14,0,14,-7,-7,9,24,58,68,39,9
-9,-14,-4,12,-2,-9,9,24,53,73,39,4
9,-14,-24,2,17,-19,29,34,53,73,39,0
9,-4,-14,-2,12,-9,29,34,58,73,39,0
9,0,-9,-4,9,-4,29,34,58,73,39,0
4,0,-4,-2,4,-2,29,34,53,63,29,-4
14,0,-14,-7,14,-7,19,34,63,68,34,0
9,0,-9,-4,9,-4,19,34,63,68,34,0
9,4,-4,-7,7,0,19,39,68,68,39,4
9,9,0,-9,4,4,19,39,68,68,43,4
9,9,0,-9,4,4,24,24,68,73,43,0
0,0,0,0,0,0,24,24,68,73,29,0
0,-9,-9,4,4,-9,24,24,68,78,29,-4
-9,0,9,4,-9,4,24,19,68,78,24,-14
-4,0,4,2,-4,2,19,29,68,73,24,-19
-4,0,4,2,-4,2,19,29,68,73,24,-14
0,0,0,0,0,0,19,29,63,73,29,-9
4,0,-4,-2,4,-2,19,29,63,73,34,4
0,0,0,0,0,0,19,29,63,73,24,0
-4,4,9,0,-7,7,19,29,63,73,24,-4
-4,4,9,0,-7,7,19,29,58,63,19,-9
-4,9,14,-2,-9,12,24,29,58,63,19,-14
14,9,-4,-12,9,2,19,29,58,63,14,-9
4,14,9,-9,-2,12,19,34,58,63,9,-9
-4,14,19,-4,-12,17,14,34,58,58,9,-9
-9,-9,0,9,-4,-4,9,29,58,48,4,-14
-9,0,9,4,-9,4,19,19,58,58,14,-14
4,14,9,-9,-2,12,34,24,58,58,19,-19
9,14,4,-12,2,9,24,24,63,63,19,-19
14,14,0,-14,7,7,14,24,63,68,14,-14
19,39,19,-29,0,29,24,29,73,68,14,-14
29,29,0,-29,14,14,24,29,73,68,14,-4
0,9,9,-4,-4,9,24,24,73,63,9,-19
-9,9,19,0,-14,14,24,24,73,58,4,-24
-9,0,9,4,-9,4,29,34,63,68,4,-14
0,4,4,-2,-2,4,29,34,63,68,4,-14
0,14,14,-7,-7,14,34,34,63,68,0,-14
0,19,19,-9,-9,19,34,34,53,58,0,-14
-14,9,24,2,-19,17,29,29,63,58,0,-24
-24,-4,19,14,-21,7,24,24,63,53,-4,-34
-24,-4,19,14,-21,7,24,24,68,48,-14,-34
-19,-4,14,12,-17,4,34,29,68,48,-4,-34
-9,-4,4,7,-7,0,24,29,58,43,-4,-29
-9,-4,4,7,-7,0,29,29,58,53,0,-19
-4,0,4,2,-4,2,29,34,63,53,4,-29
-4,9,14,-2,-9,12,29,39,68,53,4,-29
4,0,-4,-2,4,-2,29,39,78,43,-4,-34
4,0,-4,-2,4,-2,24,39,63,43,-9,-43
9,4,-4,-7,7,0,24,39,63,48,-9,-34
9,4,-4,-7,7,0,24,39,68,48,-4,-29
0,-9,-9,4,4,-9,24,29,68,39,-14,-34
-14,-14,0,14,-7,-7,24,29,68,39,-9,-34
-9,-14,-4,12,-2,-9,24,24,68,48,-9,-34
-4,0,4,2,-4,2,24,24,63,48,-9,-34
4,-9,-14,2,9,-12,19,19,63,39,-4,-39
-9,-14,-4,12,-2,-9,19,19,58,39,-14,-43
-9,-24,-14,17,2,-19,19,14,53,43,-14,-43
-14,-14,0,14,-7,-7,19,14,53,48,-9,-43
-24,-24,0,24,-12,-12,29,19,43,34,-14,-58
-14,-24,-9,19,-2,-17,29,19,39,29,-19,-58
-9,-19,-9,14,0,-14,29,19,48,29,-24,-53
-9,-19,-9,14,0,-14,34,19,48,24,-29,-48
-4,-29,-24,17,9,-26,43,29,48,29,-19,-39
-4,-24,-19,14,7,-21,39,24,39,24,-24,-43
-14,-24,-9,19,-2,-17,39,24,39,24,-24,-48
-14,-34,-19,24,2,-26,39,24,34,29,-24,-48
-4,-29,-24,17,9,-26,29,19,39,19,-29,-53
-4,-24,-19,14,7,-21,29,19,39,19,-29,-53
-4,-19,-14,12,4,-17,29,19,43,19,-29,-48
-4,-14,-9,9,2,-12,29,19,43,19,-29,-48
-4,-24,-19,14,7,-21,39,29,34,14,-34,-53
-9,-24,-14,17,2,-19,39,19,34,14,-39,-53
-9,-29,-19,19,4,-24,34,19,34,19,-39,-53
-9,-29,-19,19,4,-24,34,24,34,19,-34,-58
0,-19,-19,9,9,-19,29,14,34,19,-34,-48
0,-19,-19,9,9,-19,29,19,29,9,-39,-53
0,-19,-19,9,9,-19,29,19,29,9,-39,-53
0,-14,-14,7,7,-14,34,19,29,14,-34,-48
4,-4,-9,0,7,-7,34,29,39,14,-34,-58
4,-4,-9,0,7,-7,34,29,34,14,-34,-58
4,-4,-9,0,7,-7,34,24,34,14,-34,-58
9,0,-9,-4,9,-4,34,24,34,19,-34,-58
4,0,-4,-2,4,-2,29,14,34,19,-34,-53
0,-4,-4,2,2,-4,29,14,34,14,-34,-53
-4,-9,-4,7,0,-7,29,14,34,14,-34,-53
-19,-19,0,19,-9,-9,29,14,29,14,-34,-48
-14,-14,0,14,-7,-7,24,24,48,29,-24,-48
-29,-19,9,24,-19,-4,29,19,39,19,-29,-68
-19,-9,9,14,-14,0,29,29,48,29,-29,-58
-19,-9,9,14,-14,0,29,29,48,29,-29,-58
-19,-9,9,14,-14,0,29,29,48,29,-29,-58
-19,-9,9,14,-14,0,29,29,48,29,-29,-58
-9,-9,0,9,-4,-4,39,19,48,29,-29,-48
-9,-9,0,9,-4,-4,39,19,48,29,-29,-48
-9,-9,0,9,-4,-4,39,19,48,29,-29,-48
-9,-9,0,9,-4,-4,39,19,48,29,-29,-48
0,0,0,0,0,0,39,19,48,29,-29,-48
0,0,0,0,0,0,39,19,48,29,-29,-48
0,0,0,0,0,0,39,19,48,29,-29,-48
0,0,0,0,0,0,39,19,48,29,-29,-48
-9,-9,0,9,-4,-4,29,19,48,29,-29,-58
-9,-9,0,9,-4,-4,29,19,48,29,-29,-58
-9,-9,0,9,-4,-4,29,19,48,29,-29,-58
-9,-9,0,9,-4,-4,29,19,48,29,-29,-58
-19,0,19,9,-19,9,19,19,39,19,-39,-58
-19,0,19,9,-19,9,19,19,39,19,-39,-58
-19,0,19,9,-19,9,19,19,39,19,-39,-58
-19,0,19,9,-19,9,19,19,39,19,-39,-58
-9,0,9,4,-9,4,19,19,48,19,-29,-58
-9,0,9,4,-9,4,19,19,48,19,-29,-58
-9,0,9,4,-9,4,19,19,48,19,-29,-58
-9,0,9,4,-9,4,19,19,48,19,-29,-58
-9,0,9,4,-9,4,29,19,48,19,-29,-58
-9,0,9,4,-9,4,29,19,48,19,-29,-58
-9,0,9,4,-9,4,29,19,48,19,-29,-58
-9,0,9,4,-9,4,29,19,48,19,-29,-58
-19,-4,14,12,-17,4,29,9,39,14,-39,-68
-24,-19,4,21,-14,-7,29,14,39,9,-43,-68
-34,-19,14,26,-24,-2,19,14,39,4,-48,-68
-34,-19,14,26,-24,-2,19,14,34,4,-48,-68
-19,-4,14,12,-17,4,24,14,43,19,-43,-63
-19,-19,0,19,-9,-9,24,14,43,24,-43,-63
-19,-19,0,19,-9,-9,24,14,43,24,-43,-63
-19,-9,9,14,-14,0,29,19,43,24,-43,-63
-4,0,4,2,-4,2,19,29,39,14,-43,-58
-4,-14,-9,9,2,-12,19,29,39,14,-43,-58
-9,-24,-14,17,2,-19,19,24,39,14,-43,-68
-9,-9,0,9,-4,-4,14,19,39,14,-43,-68
-19,-14,4,17,-12,-4,24,19,39,14,-43,-68
-19,-29,-9,24,-4,-19,24,24,39,14,-43,-68
-24,-34,-9,29,-7,-21,24,24,39,14,-43,-68
-24,-39,-14,31,-4,-26,24,24,39,14,-39,-68
-9,-29,-19,19,4,-24,29,24,34,9,-48,-82
-9,-19,-9,14,0,-14,29,24,34,9,-48,-82
-4,-14,-9,9,2,-12,34,24,34,14,-48,-73
-4,-9,-4,7,0,-7,34,24,39,14,-48,-73
-14,-24,-9,19,-2,-17,34,24,39,14,-39,-63
-14,-29,-14,21,0,-21,39,24,39,14,-43,-73
-19,-39,-19,29,0,-29,39,24,29,4,-48,-73
-29,-43,-14,36,-7,-29,29,24,29,4,-48,-73
-24,-34,-9,29,-7,-21,29,19,29,19,-43,-68
-14,-24,-9,19,-2,-17,34,19,29,24,-39,-68
-4,-14,-9,9,2,-12,34,24,29,24,-39,-63
0,-4,-4,2,2,-4,34,24,29,24,-48,-63
-9,-14,-4,12,-2,-9,24,24,24,14,-48,-73
-14,-24,-9,19,-2,-17,24,19,24,14,-43,-73
-19,-29,-9,24,-4,-19,24,19,24,9,-43,-73
-9,-19,-9,14,0,-14,24,19,24,9,-43,-73
-4,4,9,0,-7,7,39,24,34,9,-43,-63
0,4,4,-2,-2,4,39,24,34,14,-43,-63
0,-9,-9,4,4,-9,39,24,34,24,-43,-68
-29,-29,0,29,-14,-14,29,19,24,9,-48,-78
-19,-29,-9,24,-4,-19,19,19,34,4,-39,-68
-9,-19,-9,14,0,-14,24,19,39,14,-34,-58
-9,-19,-9,14,0,-14,29,19,39,19,-34,-58
-14,-9,4,12,-9,-2,29,19,39,24,-34,-58
-29,-29,0,29,-14,-14,19,24,34,24,-34,-68
-29,-29,0,29,-14,-14,29,24,34,24,-34,-68
-29,-29,0,29,-14,-14,29,24,34,24,-34,-68
-24,-24,0,24,-12,-12,24,24,34,24,-34,-68
-19,-9,9,14,-14,0,24,24,43,29,-29,-53
-14,-4,9,9,-12,2,24,24,43,29,-29,-53
-14,0,14,7,-14,7,24,24,43,19,-34,-58
-9,4,14,2,-12,9,29,24,43,19,-34,-58
-9,-4,4,7,-7,0,29,14,48,29,-34,-53
-9,-4,4,7,-7,0,29,14,48,29,-29,-53
-9,-4,4,7,-7,0,29,14,43,24,-29,-58
-14,-4,9,9,-12,2,24,9,43,24,-34,-58
-4,0,4,2,-4,2,24,14,43,24,-34,-58
9,4,-4,-7,7,0,24,24,48,24,-29,-53
14,4,-9,-9,12,-2,29,29,48,29,-29,-43
14,4,-9,-9,12,-2,29,34,48,34,-29,-43
4,-4,-9,0,7,-7,39,34,48,34,-24,-43
4,0,-4,-2,4,-2,34,34,48,29,-24,-43
9,19,9,-14,0,14,34,34,48,29,-19,-43
14,24,9,-19,2,17,34,34,48,29,-19,-48
0,4,4,-2,-2,4,24,19,43,24,-29,-63
-9,-14,-4,12,-2,-9,19,19,43,24,-29,-63
-19,-19,0,19,-9,-9,19,19,43,24,-29,-58
-24,-19,4,21,-14,-7,24,29,53,29,-29,-53
-24,4,29,9,-26,17,14,29,43,19,-34,-63
-24,4,29,9,-26,17,9,19,43,19,-39,-63
-24,4,29,9,-26,17,9,19,43,19,-39,-63
-24,4,29,9,-26,17,9,19,43,19,-43,-63
-14,9,24,2,-19,17,24,29,53,29,-39,-53
-14,9,24,2,-19,17,24,29,53,29,-34,-53
-4,14,19,-4,-12,17,19,29,53,29,-29,-53
4,9,4,-7,0,7,19,29,53,24,-34,-48
0,9,9,-4,-4,9,9,24,48,14,-29,-58
-9,0,9,4,-9,4,9,24,48,24,-29,-58
-24,-14,9,19,-17,-2,4,19,39,24,-34,-58
-34,-24,9,29,-21,-7,4,19,39,24,-39,-58
-19,-14,4,17,-12,-4,14,19,43,24,-39,-58
0,4,4,-2,-2,4,19,24,53,39,-29,-48
14,14,0,-14,7,7,19,24,53,43,-24,-48
0,0,0,0,0,0,24,24,53,43,-19,-39
4,9,4,-7,0,7,14,24,43,43,-9,-34
14,9,-4,-12,9,2,9,34,48,63,14,-14
4,-14,-19,4,12,-17,19,43,63,73,29,-4
24,-4,-29,-9,26,-17,29,73,97,112,63,9
53,0,-53,-26,53,-26,39,102,151,200,141,39
82,4,-78,-43,80,-36,48,136,219,307,234,68
97,14,-82,-56,90,-34,48,151,292,429,366,126
97,78,-19,-87,58,29,14,126,356,566,527,239
107,185,78,-146,14,131,-34,78,414,722,707,380
170,307,136,-239,17,222,-73,63,517,893,912,551
224,429,204,-326,9,317,-117,48,649,1078,1127,732
204,488,283,-346,-39,385,-185,-4,732,1239,1322,936
165,536,370,-351,-102,453,-248,-58,771,1332,1493,1146
200,649,448,-424,-124,549,-297,-97,785,1351,1678,1410
248,785,536,-517,-143,661,-326,-151,775,1332,1854,1742
258,912,653,-585,-197,783,-395,-248,697,1249,1986,2069
278,1015,736,-646,-229,875,-483,-390,541,1058,2049,2386
297,1112,814,-705,-258,963,-541,-536,346,814,2064,2718
283,1171,888,-727,-302,1029,-585,-639,161,566,2088,3045
244,1200,956,-722,-356,1078,-614,-702,24,385,2156,3323
234,1263,1029,-749,-397,1146,-653,-746,-82,258,2264,3645
195,1395,1200,-795,-502,1298,-678,-805,-156,165,2415,4069
102,1571,1468,-836,-683,1520,-688,-888,-209,97,2601,4528
-34,1771,1805,-868,-919,1788,-688,-985,-239,53,2727,4826
-263,1878,2142,-807,-1202,2010,-707,-1093,-292,-63,2630,4777
-478,1878,2357,-700,-1417,2117,-707,-1161,-375,-258,2332,4372
-536,1864,2400,-663,-1468,2132,-673,-1190,-492,-444,2030,3889
-522,1810,2332,-644,-1427,2071,-629,-1195,-634,-614,1693,3435
-507,1605,2113,-549,-1310,1859,-595,-1166,-824,-893,1146,2727
-497,1302,1800,-402,-1149,1551,-536,-1078,-995,-1176,424,1790
-483,951,1434,-234,-958,1193,-429,-932,-1088,-1390,-273,907
-473,624,1098,-75,-785,861,-287,-766,-1141,-1571,-951,97
-453,361,814,46,-634,588,-170,-619,-1190,-1766,-1605,-644
-434,146,580,143,-507,363,-78,-527,-1200,-1825,-1893,-1015
-395,0,395,197,-395,197,-14,-424,-1141,-1678,-1664,-932
-341,-102,239,222,-290,68,39,-322,-1078,-1512,-1410,-795
-326,-204,122,265,-224,-41,78,-229,-995,-1410,-1351,-810
-312,-263,48,287,-180,-107,102,-180,-888,-1249,-1220,-785
-263,-273,-9,268,-126,-141,107,-136,-775,-1068,-1039,-688
-214,-263,-48,239,-82,-156,92,-87,-678,-917,-902,-610
-180,-263,-82,222,-48,-173,82,-58,-561,-771,-785,-561
-151,-248,-97,200,-26,-173,82,-29,-444,-619,-639,-478
-122,-219,-97,170,-12,-158,82,4,-322,-473,-517,-405
-92,-165,-73,129,-9,-119,92,19,-219,-356,-414,-331
-58,-117,-58,87,0,-87,82,19,-161,-287,-341,-287
-43,-87,-43,65,0,-65,73,29,-122,-234,-292,-248
-39,-82,-43,61,2,-63,68,43,-92,-190,-258,-219
-24,-82,-58,53,17,-70,53,43,-58,-141,-229,-214
-14,-73,-58,43,21,-65,63,53,-24,-102,-190,-195
-34,-73,-39,53,2,-56,63,53,-4,-73,-175,-185
-34,-73,-39,53,2,-56,48,43,-4,-63,-156,-175
-14,-73,-58,43,21,-65,58,53,14,-39,-146,-170
-4,-53,-48,29,21,-51,63,73,24,-29,-131,-161
-4,-53,-48,29,21,-51,63,73,24,-29,-126,-161
-9,-53,-43,31,17,-48,63,68,24,-29,-126,-161
-19,-73,-53,46,17,-63,58,63,19,-24,-131,-161
-24,-82,-58,53,17,-70,58,73,19,-34,-131,-165
-24,-92,-68,58,21,-80,63,73,24,-19,-122,-170
-9,-82,-73,46,31,-78,63,87,39,-4,-107,-175
-9,-82,-73,46,31,-78,68,92,53,4,-107,-180
-19,-92,-73,56,26,-82,68,92,43,4,-112,-170
-14,-92,-78,53,31,-85,68,92,43,0,-112,-170
-14,-82,-68,48,26,-75,73,92,39,-4,-117,-165
-14,-82,-68,48,26,-75,73,87,39,-4,-117,-165
-14,-87,-73,51,29,-80,68,87,39,0,-107,-175
-14,-87,-73,51,29,-80,68,87,43,9,-107,-175
-4,-87,-82,46,39,-85,68,92,53,14,-102,-175
-4,-92,-87,48,41,-90,73,102,58,14,-102,-170
-4,-87,-82,46,39,-85,73,102,58,9,-102,-170
-9,-87,-78,48,34,-82,68,102,53,9,-102,-175
-9,-82,-73,46,31,-78,68,97,39,4,-112,-175
-9,-78,-68,43,29,-73,68,97,29,0,-112,-180
-19,-82,-63,51,21,-73,68,97,29,0,-117,-185
-19,-102,-82,61,31,-92,68,97,34,0,-117,-185
-19,-107,-87,63,34,-97,68,102,43,0,-107,-180
-9,-107,-97,58,43,-102,73,102,58,9,-107,-180
-9,-97,-87,53,39,-92,73,92,48,9,-107,-195
-9,-102,-92,56,41,-97,73,97,48,4,-107,-195
-9,-102,-92,56,41,-97,73,97,48,0,-117,-195
-9,-107,-97,58,43,-102,73,92,39,-14,-122,-204
-19,-107,-87,63,34,-97,82,102,39,-14,-122,-195
-9,-107,-97,58,43,-102,82,97,39,-4,-122,-200
-9,-107,-97,58,43,-102,87,97,39,-4,-122,-200
-9,-112,-102,61,46,-107,87,102,48,4,-122,-200
-9,-112,-102,61,46,-107,87,112,48,4,-131,-209
-4,-112,-107,58,51,-109,87,112,48,4,-131,-209
-4,-112,-107,58,51,-109,92,112,43,-4,-136,-214
-14,-112,-97,63,41,-104,92,112,39,-9,-136,-219
-4,-122,-117,63,56,-119,92,122,43,-19,-136,-224
4,-122,-126,58,65,-124,92,122,43,-19,-136,-224
4,-122,-126,58,65,-124,92,122,53,-9,-131,-219
4,-122,-126,58,65,-124,97,122,53,0,-131,-219
4,-122,-126,58,65,-124,97,112,48,-9,-146,-229
4,-126,-131,61,68,-129,97,112,43,-9,-151,-234
0,-126,-126,63,63,-126,97,117,34,-19,-156,-239
0,-122,-122,61,61,-122,97,117,29,-34,-161,-239
-14,-126,-112,70,48,-119,97,112,39,-24,-161,-253
-19,-141,-122,80,51,-131,97,112,29,-29,-165,-258
-24,-151,-126,87,51,-139,102,112,29,-29,-170,-258
-29,-156,-126,92,48,-141,102,117,34,-29,-170,-258
-29,-165,-136,97,53,-151,92,112,34,-39,-170,-253
-29,-170,-141,100,56,-156,97,117,34,-34,-175,-258
-29,-156,-126,92,48,-141,97,117,34,-29,-175,-263
-19,-141,-122,80,51,-131,102,117,34,-29,-175,-268
-14,-141,-126,78,56,-134,107,126,43,-29,-165,-273
-14,-141,-126,78,56,-134,112,131,34,-43,-185,-278
-9,-151,-141,80,65,-146,117,136,34,-48,-185,-278
4,-151,-156,73,80,-153,131,151,39,-34,-185,-278
14,-141,-156,63,85,-148,131,151,43,-34,-185,-273
14,-151,-165,68,90,-158,131,146,43,-34,-190,-278
-4,-156,-151,80,73,-153,131,146,43,-34,-195,-278
9,-156,-165,73,87,-161,131,151,43,-39,-195,-283
-4,-170,-165,87,80,-168,126,141,43,-39,-204,-297
-14,-180,-165,97,75,-173,126,141,39,-53,-209,-297
-29,-195,-165,112,68,-180,126,141,34,-53,-214,-297
-14,-190,-175,102,80,-183,126,141,29,-58,-214,-297
-4,-180,-175,92,85,-178,131,151,39,-48,-214,-297
-9,-180,-170,95,80,-175,131,151,48,-48,-214,-302
-9,-185,-175,97,82,-180,141,156,48,-48,-209,-302
0,-190,-190,95,95,-190,141,156,48,-43,-204,-307
-4,-185,-180,95,87,-183,141,161,48,-43,-219,-322
-4,-200,-195,102,95,-197,141,161,48,-53,-219,-326
0,-200,-200,100,100,-200,146,161,43,-53,-224,-331
0,-195,-195,97,97,-195,146,161,43,-53,-224,-331
0,-204,-204,102,102,-204,141,161,43,-43,-219,-336
-4,-209,-204,107,100,-207,141,165,43,-48,-224,-341
-4,-214,-209,109,102,-212,141,165,43,-63,-239,-351
0,-219,-219,109,109,-219,141,165,43,-63,-239,-351
9,-219,-229,104,119,-224,146,175,43,-68,-244,-356
9,-224,-234,107,122,-229,146,175,43,-68,-244,-356
-9,-234,-224,122,107,-229,146,175,43,-73,-248,-356
-19,-248,-229,134,104,-239,146,175,43,-73,-263,-366
-14,-258,-244,136,114,-251,156,175,53,-63,-268,-375
-14,-248,-234,131,109,-241,161,175,53,-63,-268,-375
-14,-248,-234,131,109,-241,161,180,53,-63,-268,-375
-9,-258,-248,134,119,-253,161,180,48,-73,-278,-385
-9,-258,-248,134,119,-253,165,180,58,-63,-273,-390
-9,-258,-248,134,119,-253,165,180,58,-63,-278,-390
-19,-273,-253,146,117,-263,165,180,53,-68,-278,-385
-9,-278,-268,143,129,-273,165,180,53,-68,-278,-385
-9,-283,-273,146,131,-278,156,170,53,-78,-283,-385
-4,-287,-283,146,139,-285,156,175,48,-78,-283,-385
-4,-292,-287,148,141,-290,156,175,43,-78,-287,-385
-4,-297,-292,151,143,-295,161,175,39,-73,-287,-385
0,-292,-292,146,146,-292,170,180,48,-68,-278,-380
4,-287,-292,141,148,-290,170,185,43,-78,-278,-380
9,-283,-292,136,151,-287,165,185,43,-73,-278,-356
14,-283,-297,134,156,-290,161,190,34,-68,-278,-346
9,-287,-297,139,153,-292,151,175,34,-73,-273,-341
9,-287,-297,139,153,-292,156,175,39,-73,-263,-331
14,-292,-307,139,161,-300,156,175,39,-68,-253,-317
9,-292,-302,141,156,-297,151,175,34,-63,-248,-302
4,-283,-287,139,146,-285,156,175,29,-53,-234,-278
4,-292,-297,143,151,-295,156,165,29,-53,-229,-258
4,-283,-287,139,146,-285,156,165,29,-53,-224,-239
4,-273,-278,134,141,-275,141,156,29,-53,-214,-214
9,-263,-273,126,141,-268,136,156,39,-39,-185,-195
14,-248,-263,117,139,-256,136,151,39,-39,-175,-170
14,-244,-258,114,136,-251,126,136,29,-39,-175,-156
14,-239,-253,112,134,-246,122,126,29,-39,-161,-131
24,-219,-244,97,134,-231,117,117,34,-14,-136,-102
24,-214,-239,95,131,-226,112,112,34,-9,-117,-78
24,-195,-219,85,122,-207,112,112,34,-4,-97,-48
24,-180,-204,78,114,-192,107,97,34,0,-78,-14
24,-165,-190,70,107,-178,82,82,34,4,-73,9
34,-141,-175,53,104,-158,73,73,34,9,-58,34
43,-117,-161,36,102,-139,73,73,34,19,-39,58
34,-107,-141,36,87,-124,63,63,34,24,-34,82
14,-117,-131,51,73,-124,43,43,29,34,-14,112
4,-112,-117,53,61,-114,39,34,24,34,0,141
-4,-102,-97,53,46,-100,29,29,19,39,19,165
-9,-102,-92,56,41,-97,24,24,19,43,39,195
4,-73,-78,34,41,-75,24,4,24,63,68,209
14,-43,-58,14,36,-51,14,-4,29,82,92,224
19,-14,-34,-2,26,-24,4,-9,29,87,102,244
34,9,-24,-21,29,-7,4,-9,43,87,126,263
34,19,-14,-26,24,2,-4,-4,63,131,151,283
19,29,9,-24,4,19,-19,-14,73,141,161,283
9,29,19,-19,-4,24,-24,-24,78,156,175,283
24,48,24,-36,0,36,-24,-14,82,161,190,292
29,58,29,-43,0,43,-19,-14,97,165,185,283
29,63,34,-46,-2,48,-29,-19,102,165,185,278
34,78,43,-56,-4,61,-29,-19,107,185,200,278
39,97,58,-68,-9,78,-29,-19,122,204,214,263
29,87,58,-58,-14,73,-39,-19,117,204,209,248
34,102,68,-68,-17,85,-39,-14,126,209,204,239
39,102,63,-70,-12,82,-34,-4,131,214,200,229
39,102,63,-70,-12,82,-34,-4,136,209,190,219
48,112,63,-80,-7,87,-24,-4,136,200,190,204
48,112,63,-80,-7,87,-24,-4,136,200,180,200
48,112,63,-80,-7,87,-24,0,136,200,175,195
39,112,73,-75,-17,92,-24,0,136,200,165,180
29,107,78,-68,-24,92,-24,-9,136,195,146,156
34,107,73,-70,-19,90,-19,-4,131,190,146,146
34,102,68,-68,-17,85,-19,0,126,180,136,131
24,92,68,-58,-21,80,-14,4,112,165,117,126
14,87,73,-51,-29,80,-14,9,112,165,107,126
24,87,63,-56,-19,75,-9,9,117,161,107,117
29,92,63,-61,-17,78,-9,9,122,161,102,112
39,92,53,-65,-7,73,-4,14,122,156,87,102
24,82,58,-53,-17,70,-14,14,112,146,92,87
9,63,53,-36,-21,58,-14,14,107,136,82,68
9,63,53,-36,-21,58,-14,14,102,126,73,63
14,73,58,-43,-21,65,-9,24,102,122,68,63
19,82,63,-51,-21,73,-9,14,97,126,58,68
24,87,63,-56,-19,75,-9,14,97,126,58,63
29,87,58,-58,-14,73,-9,14,97,126,58,63
39,87,48,-63,-4,68,-9,14,97,122,53,68
39,92,53,-65,-7,73,4,24,92,112,58,53
39,92,53,-65,-7,73,4,24,87,107,53,48
29,82,53,-56,-12,68,4,24,82,97,48,43
29,87,58,-58,-14,73,4,24,82,97,48,43
19,82,63,-51,-21,73,-4,14,73,97,39,34
-4,43,48,-19,-26,46,-4,14,73,92,34,29
-14,29,43,-7,-29,36,-4,14,68,87,29,24
-9,24,34,-7,-21,29,-4,14,68,87,24,24
-4,29,34,-12,-19,31,-4,14,58,78,29,29
-9,19,29,-4,-19,24,-4,14,58,78,29,24
-4,34,39,-14,-21,36,-4,14,58,78,29,24
0,39,39,-19,-19,39,0,19,58,87,29,29
19,48,29,-34,-4,39,4,29,58,82,24,29
19,48,29,-34,-4,39,4,29,63,78,24,29
9,48,39,-29,-14,43,0,24,63,73,14,19
9,48,39,-29,-14,43,0,24,68,68,9,14
14,48,34,-31,-9,41,9,24,58,68,9,14
14,48,34,-31,-9,41,14,29,63,68,4,9
9,39,29,-24,-9,34,14,29,63,63,4,4
9,39,29,-24,-9,34,14,29,53,58,0,-4
14,34,19,-24,-2,26,14,29,48,58,0,-4
14,39,24,-26,-4,31,19,29,48,63,0,-4
4,39,34,-21,-14,36,19,29,53,63,-9,-4
4,34,29,-19,-12,31,19,29,53,63,-9,-4
14,39,24,-26,-4,31,9,19,58,63,-4,-9
14,43,29,-29,-7,36,9,19,58,63,-4,-14
24,48,24,-36,0,36,14,24,58,53,-9,-14
24,53,29,-39,-2,41,14,24,58,53,-14,-19
19,43,24,-31,-2,34,24,34,58,63,-4,-24
19,48,29,-34,-4,39,24,34,58,53,-4,-29
19,48,29,-34,-4,39,24,34,58,63,-4,-29
24,53,29,-39,-2,41,24,34,58,63,-4,-24
29,48,19,-39,4,34,29,34,68,63,-9,-24
29,48,19,-39,4,34,29,39,68,63,-14,-24
14,48,34,-31,-9,41,29,39,68,63,-19,-29
4,29,24,-17,-9,26,24,39,68,58,-29,-34
9,19,9,-14,0,14,14,39,68,58,-39,-43
9,34,24,-21,-7,29,19,48,68,58,-39,-48
9,43,34,-26,-12,39,19,48,68,58,-39,-53
9,29,19,-19,-4,24,19,48,68,58,-39,-63
9,19,9,-14,0,14,29,48,78,68,-29,-63
19,29,9,-24,4,19,29,53,78,68,-29,-63
19,29,9,-24,4,19,34,53,78,68,-29,-58
19,29,9,-24,4,19,34,58,82,68,-29,-53
39,34,-4,-36,21,14,34,58,97,82,-24,-48
39,48,9,-43,14,29,34,58,97,82,-24,-48
29,39,9,-34,9,24,39,58,97,82,-24,-58
29,29,0,-29,14,14,39,58,97,82,-24,-58
14,14,0,-14,7,7,29,48,97,73,-24,-63
14,19,4,-17,4,12,29,48,97,78,-29,-63
9,14,4,-12,2,9,29,48,97,78,-29,-63
4,9,4,-7,0,7,29,48,97,78,-34,-63
9,19,9,-14,0,14,34,53,107,87,-24,-58
19,24,4,-21,7,14,34,58,107,92,-19,-48
24,24,0,-24,12,12,34,63,122,102,-4,-43
24,24,0,-24,12,12,34,73,122,117,4,-34
14,24,9,-19,2,17,24,63,112,107,-4,-39
24,24,0,-24,12,12,29,63,112,107,-4,-43
24,24,0,-24,12,12,29,63,112,107,-4,-48
24,19,-4,-21,14,7,29,63,117,117,4,-43
24,19,-4,-21,14,7,29,63,117,117,4,-39
24,24,0,-24,12,12,29,63,107,112,4,-39
29,29,0,-29,14,14,24,63,107,112,14,-39
29,29,0,-29,14,14,24,63,122,122,19,-34
29,29,0,-29,14,14,29,68,131,126,24,-19
29,29,0,-29,14,14,29,68,131,126,24,-19
29,29,0,-29,14,14,24,68,122,126,24,-19
29,34,4,-31,12,19,24,68,122,136,34,-9
34,34,0,-34,17,17,24,73,131,136,43,-9
34,34,0,-34,17,17,24,73,131,131,43,-9
39,39,0,-39,19,19,24,73,131,131,43,-4
48,48,0,-48,24,24,24,73,136,131,53,4
39,19,-19,-29,29,0,19,58,136,131,53,4
19,19,0,-19,9,9,19,58,131,131,53,4
29,29,0,-29,14,14,19,63,126,141,63,9
43,29,-14,-36,29,7,24,63,122,146,63,14
53,29,-24,-41,39,2,24,63,126,136,53,19
48,34,-14,-41,31,9,19,73,126,136,53,19
39,34,-4,-36,21,14,19,73,122,136,53,19
34,24,-9,-29,21,7,19,63,122,136,53,14
24,24,0,-24,12,12,9,53,112,122,48,4
24,24,0,-24,12,12,4,53,112,122,53,9
34,24,-9,-29,21,7,4,53,112,122,58,14
39,24,-14,-31,26,4,9,53,117,122,58,19
48,34,-14,-41,31,9,19,63,117,126,68,14
34,24,-9,-29,21,7,14,63,117,126,58,14
34,24,-9,-29,21,7,9,63,117,126,58,14
39,24,-14,-31,26,4,9,63,112,131,58,14
39,29,-9,-34,24,9,19,63,102,122,58,19
39,34,-4,-36,21,14,19,63,107,122,58,19
39,34,-4,-36,21,14,19,63,107,122,58,19
34,29,-4,-31,19,12,19,63,102,112,48,14
48,34,-14,-41,31,9,29,63,102,117,43,19
48,39,-9,-43,29,14,29,63,102,117,43,19
53,48,-4,-51,29,21,29,68,107,117,48,24
58,58,0,-58,29,29,29,68,107,117,53,24
53,43,-9,-48,31,17,19,53,97,102,53,19
39,29,-9,-34,24,9,14,53,97,102,39,19
34,14,-19,-24,26,-2,9,53,97,107,39,14
19,19,0,-19,9,9,4,48,97,107,34,4
14,19,4,-17,4,12,19,48,87,102,34,4
14,19,4,-17,4,12,19,48,87,102,34,4
19,19,0,-19,9,9,19,48,82,102,39,4
24,19,-4,-21,14,7,19,48,82,102,43,14
29,24,-4,-26,17,9,24,58,92,102,43,14
34,34,0,-34,17,17,29,58,92,102,43,14
43,39,-4,-41,24,17,34,58,87,92,39,14
53,48,-4,-51,29,21,43,58,87,92,39,14
58,43,-14,-51,36,14,34,48,78,82,24,0
43,43,0,-43,21,21,29,53,78,82,19,0
29,39,9,-34,9,24,19,53,78,78,19,0
19,9,-9,-14,14,0,9,48,78,68,14,-4
19,19,0,-19,9,9,14,48,73,73,24,4
34,34,0,-34,17,17,34,53,78,78,29,0
39,34,-4,-36,21,14,29,53,87,87,29,0
43,34,-9,-39,26,12,24,53,92,97,24,4
58,58,0,-58,29,29,24,58,92,97,24,4
68,48,-19,-58,43,14,24,58,92,97,24,14
39,29,-9,-34,24,9,24,53,92,92,19,0
29,29,0,-29,14,14,24,53,92,87,14,-4
34,24,-9,-29,21,7,29,53,92,97,24,-4
39,24,-14,-31,26,4,29,53,92,97,24,-4
34,29,-4,-31,19,12,34,53,92,97,19,-4
29,29,0,-29,14,14,34,53,82,87,19,-4
34,39,4,-36,14,21,29,48,82,78,19,-4
24,24,0,-24,12,12,24,43,82,73,14,-14
24,24,0,-24,12,12,24,43,87,68,4,-14
29,24,-4,-26,17,9,34,48,87,68,14,-14
29,24,-4,-26,17,9,24,48,87,73,14,-9
29,24,-4,-26,17,9,29,48,87,82,19,0
34,29,-4,-31,19,12,29,53,92,82,24,-9
34,39,4,-36,14,21,29,58,97,82,24,-9
24,34,9,-29,7,21,19,48,87,73,14,-14
24,29,4,-26,9,17,14,48,73,73,9,-24
29,29,0,-29,14,14,14,48,73,78,9,-14
29,24,-4,-26,17,9,14,48,78,78,14,-9
39,19,-19,-29,29,0,24,58,92,87,24,4
34,24,-9,-29,21,7,24,58,97,87,29,4
48,34,-14,-41,31,9,24,53,102,97,29,4
63,58,-4,-61,34,26,24,53,102,97,29,4
48,43,-4,-46,26,19,9,39,82,78,19,-4
29,34,4,-31,12,19,9,39,78,68,4,-14
24,19,-4,-21,14,7,9,34,73,63,0,-19
14,24,9,-19,2,17,9,34,73,58,0,-24
4,19,14,-12,-4,17,19,48,68,68,9,-19
14,14,0,-14,7,7,19,48,68,68,9,-19
19,14,-4,-17,12,4,19,48,82,73,9,-14
19,9,-9,-14,14,0,24,48,87,73,9,-9
39,24,-14,-31,26,4,24,58,87,68,9,-9
43,34,-9,-39,26,12,19,53,78,63,4,-14
39,39,0,-39,19,19,19,53,78,63,4,-19
43,34,-9,-39,26,12,19,53,73,68,4,-19
39,19,-19,-29,29,0,9,53,68,58,0,-19
34,14,-19,-24,26,-2,9,48,68,58,0,-24
29,9,-19,-19,24,-4,9,43,73,58,0,-24
24,4,-19,-14,21,-7,9,39,73,58,0,-29
29,9,-19,-19,24,-4,14,43,73,63,4,-29
29,14,-14,-21,21,0,19,39,73,63,0,-24
34,14,-19,-24,26,-2,19,43,73,68,0,-19
39,19,-19,-29,29,0,24,53,73,68,4,-19
34,14,-19,-24,26,-2,29,43,73,68,-4,-19
29,9,-19,-19,24,-4,29,48,68,58,-9,-24
24,4,-19,-14,21,-7,29,48,68,58,-9,-24
19,4,-14,-12,17,-4,34,48,68,63,-4,-19
24,14,-9,-19,17,2,24,48,68,53,4,-19
24,14,-9,-19,17,2,24,48,63,53,4,-19
24,14,-9,-19,17,2,24,43,63,53,4,-19
29,19,-9,-24,19,4,24,43,63,58,4,-19
39,34,-4,-36,21,14,29,43,63,58,-4,-24
39,34,-4,-36,21,14,29,43,63,53,-4,-24
39,34,-4,-36,21,14,29,43,63,53,-4,-24
29,29,0,-29,14,14,29,43,58,53,-4,-19
34,34,0,-34,17,17,34,53,58,58,-4,-19
58,39,-19,-48,39,9,48,68,78,68,19,0
43,24,-19,-34,31,2,43,58,73,63,14,-4
39,19,-19,-29,29,0,39,58,68,58,9,-9
34,14,-19,-24,26,-2,34,58,63,53,4,-14
29,9,-19,-19,24,-4,29,58,58,48,0,-19
19,4,-14,-12,17,-4,39,48,58,39,-4,-29
19,0,-19,-9,19,-9,39,48,58,39,-9,-29
19,-4,-24,-7,21,-14,39,48,58,39,-14,-29
19,-9,-29,-4,24,-19,39,48,58,39,-19,-29
24,4,-19,-14,21,-7,39,58,58,39,-9,-29
29,9,-19,-19,24,-4,39,58,58,39,-9,-29
34,14,-19,-24,26,-2,39,58,58,39,-9,-29
39,19,-19,-29,29,0,39,58,58,39,-9,-29
29,9,-19,-19,24,-4,48,58,68,48,-9,-29
29,9,-19,-19,24,-4,48,58,68,48,-9,-29
29,9,-19,-19,24,-4,48,58,68,48,-9,-29
29,9,-19,-19,24,-4,48,58,68,48,-9,-29
19,0,-19,-9,19,-9,39,58,68,48,-9,-29
19,0,-19,-9,19,-9,39,58,68,48,-9,-29
19,0,-19,-9,19,-9,39,58,68,48,-9,-29
19,0,-19,-9,19,-9,39,58,68,48,-9,-29
29,4,-24,-17,26,-9,39,58,68,58,-9,-29
29,9,-19,-19,24,-4,39,58,68,58,-9,-29
29,14,-14,-21,21,0,39,58,68,58,-9,-29
29,19,-9,-24,19,4,39,58,68,58,-9,-29
24,4,-19,-14,21,-7,48,48,68,58,-9,-29
19,0,-19,-9,19,-9,48,48,68,58,-9,-29
14,-4,-19,-4,17,-12,48,48,68,58,-9,-29
9,-9,-19,0,14,-14,48,48,68,58,-9,-29
19,0,-19,-9,19,-9,48,58,68,48,-9,-39
19,0,-19,-9,19,-9,48,58,68,48,-9,-39
19,0,-19,-9,19,-9,48,58,68,48,-9,-39
19,0,-19,-9,19,-9,48,58,68,48,-9,-39
29,4,-24,-17,26,-9,48,48,68,48,-19,-29
29,9,-19,-19,24,-4,48,48,68,48,-19,-29
29,14,-14,-21,21,0,48,48,68,48,-19,-29
29,19,-9,-24,19,4,48,48,68,48,-19,-29
24,4,-19,-14,21,-7,39,48,58,43,-29,-34
19,0,-19,-9,19,-9,39,48,58,39,-29,-39
14,-4,-19,-4,17,-12,39,48,58,34,-29,-43
9,-9,-19,0,14,-14,39,48,58,29,-29,-48
14,-4,-19,-4,17,-12,48,48,68,34,-19,-39
19,0,-19,-9,19,-9,48,48,68,39,-19,-39
24,4,-19,-14,21,-7,48,48,68,43,-19,-39
29,4,-24,-17,26,-9,48,48,68,43,-19,-39
34,0,-34,-17,34,-17,48,63,58,48,-24,-39
24,0,-24,-12,24,-12,39,63,58,43,-29,-39
24,0,-24,-12,24,-12,39,63,53,43,-29,-39
29,14,-14,-21,21,0,43,63,53,48,-24,-34
39,0,-39,-19,39,-19,43,63,63,43,-24,-34
39,0,-39,-19,39,-19,43,63,63,43,-24,-34
39,9,-29,-24,34,-9,48,68,63,43,-24,-34
43,19,-24,-31,34,-2,48,68,68,43,-24,-29
39,-4,-43,-17,41,-24,39,63,68,43,-24,-29
29,-14,-43,-7,36,-29,39,53,68,43,-24,-39
24,0,-24,-12,24,-12,34,43,68,43,-24,-39
19,0,-19,-9,19,-9,34,39,68,43,-24,-39
29,-9,-39,-9,34,-24,34,43,68,53,-24,-39
24,-9,-34,-7,29,-21,34,43,68,53,-24,-39
24,-9,-34,-7,29,-21,34,43,68,53,-19,-39
29,-4,-34,-12,31,-19,29,43,63,48,-19,-43
24,0,-24,-12,24,-12,39,43,53,39,-29,-53
24,0,-24,-12,24,-12,43,43,53,43,-29,-43
19,0,-19,-9,19,-9,43,43,58,43,-29,-43
14,0,-14,-7,14,-7,43,43,58,43,-29,-43
29,4,-24,-17,26,-9,48,43,68,53,-29,-43
29,4,-24,-17,26,-9,48,43,58,43,-29,-43
24,9,-14,-17,19,-2,39,43,58,43,-24,-43
29,14,-14,-21,21,0,39,39,58,48,-14,-39
29,4,-24,-17,26,-9,43,39,58,43,-19,-48
29,4,-24,-17,26,-9,43,43,58,43,-19,-43
24,4,-19,-14,21,-7,43,43,58,43,-29,-43
14,0,-14,-7,14,-7,43,43,63,43,-29,-43
24,0,-24,-12,24,-12,53,39,63,53,-24,-43
24,4,-19,-14,21,-7,53,39,63,48,-24,-43
39,24,-14,-31,26,4,53,39,63,48,-24,-43
43,43,0,-43,21,21,58,43,63,48,-24,-43
34,34,0,-34,17,17,48,43,53,43,-24,-43
29,9,-19,-19,24,-4,48,43,53,53,-24,-48
-4,-19,-14,12,4,-17,39,39,43,39,-29,-58
-9,-29,-19,19,4,-24,39,39,43,24,-29,-58
9,-14,-24,2,17,-19,43,48,48,34,-34,-48
9,-9,-19,0,14,-14,48,48,48,39,-34,-48
4,4,0,-4,2,2,48,48,48,43,-34,-48
0,0,0,0,0,0,39,53,53,43,-34,-48
4,9,4,-7,0,7,48,43,63,53,-24,-48
9,9,0,-9,4,4,48,43,63,53,-24,-48
19,14,-4,-17,12,4,43,43,63,53,-24,-48
24,14,-9,-19,17,2,43,43,63,58,-19,-43
24,24,0,-24,12,12,48,53,63,58,-19,-43
19,24,4,-21,7,14,53,53,63,48,-24,-48
19,24,4,-21,7,14,63,53,63,48,-24,-48
29,24,-4,-26,17,9,68,53,68,58,-24,-43
19,14,-4,-17,12,4,63,53,68,48,-19,-43
19,4,-14,-12,17,-4,58,53,63,43,-19,-48
14,-4,-19,-4,17,-12,48,48,63,43,-24,-48
14,-9,-24,-2,19,-17,43,48,63,43,-24,-48
29,0,-29,-14,29,-14,43,53,78,48,-9,-43
34,4,-29,-19,31,-12,48,53,78,58,-9,-34
34,9,-24,-21,29,-7,48,53,78,68,-9,-34
14,0,-14,-7,14,-7,48,53,78,73,-14,-43
4,-4,-9,0,7,-7,34,43,78,58,-24,-43
9,4,-4,-7,7,0,34,43,78,58,-19,-43
14,0,-14,-7,14,-7,34,43,78,58,-19,-48
14,-9,-24,-2,19,-17,34,39,73,53,-19,-53
9,-9,-19,0,14,-14,39,39,63,48,-29,-58
4,-4,-9,0,7,-7,39,39,63,43,-29,-58
4,4,0,-4,2,2,43,48,73,43,-29,-58
14,24,9,-19,2,17,43,48,73,39,-29,-63
24,14,-9,-19,17,2,39,39,63,48,-29,-53
24,14,-9,-19,17,2,39,39,63,48,-24,-53
24,14,-9,-19,17,2,39,39,63,48,-24,-53
24,14,-9,-19,17,2,43,39,63,48,-24,-53
14,9,-4,-12,9,2,34,39,73,58,-14,-53
14,9,-4,-12,9,2,29,39,73,58,-14,-53
14,0,-14,-7,14,-7,29,39,73,53,-24,-48
19,9,-9,-14,14,0,29,43,78,53,-14,-48
14,9,-4,-12,9,2,39,34,68,53,-19,-39
4,4,0,-4,2,2,34,29,58,53,-19,-39
0,4,4,-2,-2,4,34,29,58,53,-19,-39
4,4,0,-4,2,2,39,29,63,53,-19,-39
29,14,-14,-21,21,0,48,43,73,78,0,-29
39,14,-24,-26,31,-4,34,34,73,82,-4,-39
39,19,-19,-29,29,0,34,43,82,102,9,-29
14,9,-4,-12,9,2,43,43,73,92,19,-24
14,0,-14,-7,14,-7,39,53,58,82,14,-14
34,14,-19,-24,26,-2,39,53,73,82,19,-4
43,24,-19,-34,31,2,39,63,97,102,43,9
53,19,-34,-36,43,-7,39,82,131,161,92,29
82,24,-58,-53,70,-17,48,107,180,239,175,58
107,34,-73,-70,90,-19,39,131,224,351,268,78
126,58,-68,-92,97,-4,34,146,307,497,419,161
146,126,-19,-136,82,53,4,126,395,663,610,292
151,219,68,-185,41,143,-34,82,468,805,795,434
165,331,165,-248,0,248,-78,48,551,961,961,605
214,458,244,-336,-14,351,-126,24,673,1151,1176,790
244,566,322,-405,-39,444,-180,0,780,1312,1395,1010
248,649,400,-448,-75,524,-229,-39,805,1381,1581,1254
258,727,468,-492,-104,597,-297,-102,785,1390,1737,1537
297,844,546,-570,-124,695,-346,-170,766,1366,1908,1864
326,946,619,-636,-146,783,-405,-263,697,1283,2039,2191
336,1044,707,-690,-185,875,-473,-390,561,1098,2074,2513
331,1122,790,-727,-229,956,-546,-541,366,858,2098,2840
292,1171,878,-732,-292,1024,-595,-663,170,639,2127,3157
283,1215,932,-749,-324,1073,-634,-736,34,444,2186,3459
273,1307,1034,-790,-380,1171,-649,-775,-48,302,2308,3835
200,1434,1234,-817,-517,1334,-678,-829,-112,224,2474,4294
53,1576,1522,-814,-734,1549,-707,-936,-161,180,2649,4709
-136,1742,1878,-802,-1007,1810,-707,-1034,-185,141,2737,4923
-302,1878,2181,-788,-1241,2030,-688,-1083,-209,53,2615,4811
-400,1922,2322,-761,-1361,2122,-653,-1102,-268,-92,2342,4387
-453,1859,2313,-702,-1383,2086,-639,-1146,-409,-283,2034,3894
-497,1722,2220,-612,-1359,1971,-624,-1176,-610,-541,1615,3333
-478,1537,2015,-529,-1246,1776,-566,-1137,-819,-873,980,2503
-444,1234,1678,-395,-1061,1456,-478,-1039,-971,-1146,263,1561
-434,858,1293,-212,-863,1076,-346,-893,-1034,-1346,-414,702
-453,497,951,-21,-702,724,-229,-736,-1083,-1522,-1098,-117
-453,244,697,104,-575,470,-126,-595,-1122,-1678,-1678,-810
-414,87,502,163,-458,295,-43,-483,-1122,-1668,-1790,-1019
-390,-43,346,217,-368,151,9,-390,-1098,-1561,-1537,-873
-366,-156,209,261,-287,26,48,-307,-1044,-1459,-1371,-819
-302,-204,97,253,-200,-53,92,-229,-936,-1317,-1298,-844
-273,-244,29,258,-151,-107,126,-175,-814,-1137,-1137,-756
-263,-283,-19,273,-122,-151,141,-146,-746,-1005,-990,-668
-219,-292,-73,256,-73,-183,141,-78,-658,-858,-863,-610
-170,-278,-107,224,-31,-192,141,-19,-522,-678,-717,-527
-131,-248,-117,190,-7,-183,122,14,-390,-522,-575,-444
-92,-214,-122,153,14,-168,122,39,-278,-395,-463,-380
-78,-165,-87,122,4,-126,112,39,-190,-307,-380,-336
-63,-126,-63,95,0,-95,102,29,-151,-263,-331,-307
-39,-112,-73,75,17,-92,107,43,-122,-219,-297,-287
-24,-92,-68,58,21,-80,112,43,-78,-161,-248,-273
-4,-63,-58,34,26,-61,92,43,-43,-112,-200,-244
-4,-53,-48,29,21,-51,92,53,-24,-63,-165,-214
-14,-82,-68,48,26,-75,97,82,4,-34,-146,-195
-14,-102,-87,58,36,-95,87,92,14,-19,-126,-190
9,-73,-82,31,46,-78,102,92,34,-14,-122,-190
14,-63,-78,24,46,-70,102,92,34,-19,-117,-190
14,-53,-68,19,41,-61,102,87,34,-24,-117,-190
9,-63,-73,26,41,-68,97,82,29,-24,-122,-190
-9,-73,-63,41,26,-68,92,73,19,-19,-122,-190
-14,-92,-78,53,31,-85,92,73,24,0,-112,-190
-4,-92,-87,48,41,-90,87,87,39,19,-97,-190
-9,-102,-92,56,41,-97,87,92,53,34,-97,-190
-9,-92,-82,51,36,-87,87,82,34,19,-102,-200
-4,-92,-87,48,41,-90,87,82,34,9,-102,-200
-4,-82,-78,43,36,-80,92,82,29,0,-107,-195
-4,-82,-78,43,36,-80,92,78,29,-4,-107,-195
4,-97,-102,46,53,-100,97,87,39,4,-97,-185
4,-97,-102,46,53,-100,97,87,43,19,-97,-185
14,-97,-112,41,63,-104,97,92,53,29,-92,-185
14,-102,-117,43,65,-109,102,102,58,34,-92,-180
4,-97,-102,46,53,-100,92,102,53,29,-82,-190
0,-97,-97,48,48,-97,87,102,53,29,-82,-195
0,-92,-92,46,46,-92,87,97,43,24,-92,-195
0,-87,-87,43,43,-87,87,97,39,19,-92,-200
9,-78,-87,34,48,-82,97,87,34,19,-107,-214
9,-92,-102,41,56,-97,97,87,34,19,-107,-214
9,-92,-102,41,56,-97,97,92,39,19,-97,-209
19,-87,-107,34,63,-97,102,92,48,29,-97,-209
9,-92,-102,41,56,-97,102,97,48,29,-97,-209
9,-102,-112,46,61,-107,102,107,48,24,-97,-204
9,-107,-117,48,63,-112,102,112,48,19,-107,-200
9,-117,-126,53,68,-122,102,112,39,4,-112,-204
-9,-117,-107,63,48,-112,102,102,39,4,-112,-214
0,-117,-117,58,58,-117,102,97,39,14,-112,-219
0,-117,-117,58,58,-117,107,97,39,14,-112,-219
0,-122,-122,61,61,-122,107,102,48,24,-112,-219
0,-122,-122,61,61,-122,107,122,39,34,-102,-229
4,-122,-126,58,65,-124,107,122,39,34,-102,-229
4,-122,-126,58,65,-124,112,122,34,24,-107,-234
-4,-122,-117,63,56,-119,112,122,29,19,-107,-239
4,-112,-117,53,61,-114,112,112,29,9,-117,-244
14,-112,-126,48,70,-119,112,112,34,9,-117,-244
14,-112,-126,48,70,-119,112,112,48,19,-112,-239
14,-112,-126,48,70,-119,117,112,53,29,-112,-239
4,-131,-136,63,70,-134,117,122,48,29,-117,-239
4,-136,-141,65,73,-139,117,122,43,29,-122,-244
0,-136,-136,68,68,-136,117,126,34,19,-126,-248
0,-131,-131,65,65,-131,117,126,29,4,-131,-248
9,-131,-141,61,75,-136,126,112,29,-4,-131,-244
9,-141,-151,65,80,-146,126,112,19,-9,-136,-248
9,-146,-156,68,82,-151,131,112,19,-9,-141,-248
9,-146,-156,68,82,-151,131,117,24,-9,-141,-248
-4,-170,-165,87,80,-168,122,122,14,-14,-156,-268
-9,-180,-170,95,80,-175,126,126,14,-14,-165,-278
-14,-170,-156,92,70,-163,126,126,14,-14,-170,-287
-9,-161,-151,85,70,-156,131,126,14,-19,-175,-297
0,-170,-170,85,85,-170,131,131,19,-14,-170,-292
-4,-170,-165,87,80,-168,131,131,14,-34,-185,-297
-4,-180,-175,92,85,-178,131,131,19,-43,-180,-297
4,-180,-185,87,95,-183,141,141,29,-34,-175,-297
4,-170,-175,82,90,-173,141,141,24,-14,-175,-302
4,-180,-185,87,95,-183,141,136,24,-14,-180,-307
-14,-185,-170,100,78,-178,141,136,24,-14,-185,-307
0,-185,-185,92,92,-185,141,141,24,-19,-185,-312
0,-185,-185,92,92,-185,146,141,34,-19,-185,-326
-4,-190,-185,97,90,-187,146,141,29,-34,-190,-326
-14,-200,-185,107,85,-192,146,141,24,-34,-195,-326
4,-190,-195,92,100,-192,146,141,19,-39,-195,-326
4,-180,-185,87,95,-183,151,151,29,-29,-190,-326
0,-180,-180,90,90,-180,151,151,39,-29,-195,-331
0,-185,-185,92,92,-185,161,156,39,-29,-195,-331
9,-190,-200,90,104,-195,161,156,39,-24,-195,-336
-4,-195,-190,100,92,-192,156,156,29,-34,-209,-346
-4,-209,-204,107,100,-207,151,151,29,-43,-209,-356
0,-209,-209,104,104,-209,151,146,24,-43,-214,-366
0,-204,-204,102,102,-204,146,141,24,-43,-214,-370
4,-195,-200,95,102,-197,161,146,34,-39,-209,-370
4,-200,-204,97,104,-202,161,156,34,-39,-214,-370
9,-204,-214,97,112,-209,161,161,34,-48,-229,-375
19,-209,-229,95,124,-219,161,165,34,-43,-229,-370
14,-224,-239,104,126,-231,156,170,29,-53,-234,-380
9,-234,-244,112,126,-239,156,165,24,-58,-234,-385
-14,-248,-234,131,109,-241,156,161,19,-68,-239,-390
-29,-268,-239,148,104,-253,156,156,14,-73,-253,-405
-24,-268,-244,146,109,-256,156,156,24,-63,-248,-395
-24,-258,-234,141,104,-246,161,156,24,-63,-248,-395
-24,-258,-234,141,104,-246,161,161,24,-63,-248,-395
-19,-268,-248,143,114,-258,161,161,19,-73,-258,-405
-9,-268,-258,139,124,-263,156,161,29,-63,-253,-419
-9,-268,-258,139,124,-263,156,161,29,-63,-258,-419
-19,-283,-263,151,122,-273,156,161,24,-68,-258,-414
-9,-287,-278,148,134,-283,156,161,24,-68,-258,-414
-4,-273,-268,139,131,-270,165,170,19,-68,-253,-414
4,-268,-273,131,139,-270,165,175,19,-68,-253,-414
9,-263,-273,126,141,-268,165,175,19,-68,-258,-414
14,-258,-273,122,143,-265,170,175,19,-63,-258,-414
0,-273,-273,136,136,-273,161,175,19,-63,-263,-414
-4,-278,-273,141,134,-275,161,175,14,-78,-268,-419
-9,-283,-273,146,131,-278,156,170,14,-78,-273,-400
-14,-292,-278,153,131,-285,151,170,4,-78,-278,-395
0,-283,-283,141,141,-283,156,175,14,-68,-263,-361
9,-278,-287,134,148,-283,165,175,19,-63,-244,-341
24,-278,-302,126,163,-290,170,175,19,-53,-224,-317
29,-273,-302,122,165,-287,170,175,14,-43,-209,-292
14,-273,-287,129,151,-280,156,156,14,-34,-204,-283
14,-283,-297,134,156,-290,156,146,19,-34,-200,-268
14,-273,-287,129,151,-280,156,146,24,-34,-195,-253
14,-263,-278,124,146,-270,141,136,29,-34,-185,-234
14,-263,-278,124,146,-270,136,136,24,-39,-170,-234
14,-248,-263,117,139,-256,136,131,19,-39,-165,-219
9,-244,-253,117,131,-248,126,117,4,-39,-170,-214
4,-239,-244,117,124,-241,122,107,0,-39,-161,-200
4,-229,-234,112,119,-231,126,107,4,-34,-131,-151
4,-234,-239,114,122,-236,122,102,4,-29,-117,-117
4,-224,-229,109,117,-226,122,102,4,-24,-102,-78
4,-219,-224,107,114,-222,117,87,4,-19,-87,-34
9,-214,-224,102,117,-219,112,78,-4,-4,-63,0
24,-190,-214,82,119,-202,102,73,-4,0,-48,24
39,-165,-204,63,122,-185,102,78,-4,9,-29,48
34,-156,-190,61,112,-173,92,73,-4,14,-24,73
24,-141,-165,58,95,-153,82,53,-4,14,-19,87
24,-131,-156,53,90,-143,78,43,-4,14,-9,112
24,-117,-141,46,82,-129,68,39,-4,19,4,131
29,-112,-141,41,85,-126,63,34,0,24,19,156
19,-87,-107,34,63,-97,43,14,4,43,43,190
24,-63,-87,19,56,-75,34,4,9,63,73,204
24,-39,-63,7,43,-51,24,0,9,68,87,224
34,-19,-53,-7,43,-36,24,0,24,68,117,244
43,-9,-53,-17,48,-31,24,-4,29,102,131,244
29,0,-29,-14,29,-14,9,-14,34,112,141,244
19,0,-19,-9,19,-9,4,-24,34,126,156,244
34,19,-14,-26,24,2,4,-14,34,131,170,253
24,24,0,-24,12,12,0,-14,48,141,165,263
19,24,4,-21,7,14,-9,-19,53,136,165,258
19,34,14,-26,2,24,-9,-19,58,151,180,258
19,48,29,-34,-4,39,-9,-19,73,165,195,244
24,53,29,-39,-2,41,-9,-29,68,161,195,229
34,73,39,-53,-2,56,-9,-24,78,170,195,219
43,78,34,-61,4,56,-4,-14,82,180,195,209
48,82,34,-65,7,58,-4,-14,87,180,190,200
34,68,34,-51,0,51,-14,-14,78,170,180,190
29,63,34,-46,-2,48,-14,-14,78,170,170,180
24,58,34,-41,-4,46,-14,-9,78,170,165,170
9,53,43,-31,-17,48,-14,-9,78,170,156,151
19,63,43,-41,-12,53,-24,-19,82,161,136,122
24,68,43,-46,-9,56,-19,-14,82,161,136,107
24,68,43,-46,-9,56,-19,-9,82,156,126,87
14,63,48,-39,-17,56,-14,-4,73,146,107,78
19,68,48,-43,-14,58,-9,4,78,151,117,82
34,68,34,-51,0,51,0,9,87,151,117,78
43,73,29,-58,7,51,4,14,97,156,112,78
58,73,14,-65,21,43,14,24,102,156,97,73
34,48,14,-41,9,31,4,9,78,141,87,53
9,24,14,-17,-2,19,4,4,68,126,73,29
0,19,19,-9,-9,19,4,0,58,112,58,19
-4,24,29,-9,-17,26,9,4,53,102,48,14
0,24,24,-12,-12,24,0,4,58,97,39,4
4,29,24,-17,-9,26,0,4,58,97,39,-4
9,29,19,-19,-4,24,0,4,58,97,39,-9
19,29,9,-24,4,19,0,4,58,92,34,-9
29,39,9,-34,9,24,4,4,43,82,29,-4
29,43,14,-36,7,29,4,4,39,78,24,-9
19,39,19,-29,0,29,4,4,34,68,19,-14
19,48,29,-34,-4,39,4,4,34,68,19,-14
19,48,29,-34,-4,39,4,-4,34,73,29,-14
4,14,9,-9,-2,12,4,-4,34,73,24,-19
4,4,0,-4,2,2,4,-4,29,73,19,-24
19,4,-14,-12,17,-4,4,-4,29,78,14,-24
19,14,-4,-17,12,4,-4,-4,29,73,9,-34
9,9,0,-9,4,4,-4,-4,29,68,9,-43
9,29,19,-19,-4,24,-4,-4,29,63,9,-48
9,39,29,-24,-9,34,0,0,29,68,9,-48
19,29,9,-24,4,19,14,0,34,63,14,-43
19,29,9,-24,4,19,14,0,34,58,14,-39
9,29,19,-19,-4,24,9,-4,29,53,4,-43
9,29,19,-19,-4,24,9,-4,29,48,0,-43
4,19,14,-12,-4,17,14,0,29,53,9,-29
4,19,14,-12,-4,17,24,9,34,58,4,-29
0,9,9,-4,-4,9,29,14,34,58,4,-29
0,9,9,-4,-4,9,34,19,24,58,0,-34
14,24,9,-19,2,17,24,9,29,53,-9,-43
14,29,14,-21,0,21,29,9,29,53,-9,-53
4,29,24,-17,-9,26,29,9,34,48,-19,-63
4,24,19,-14,-7,21,29,9,34,43,-19,-73
-4,0,4,2,-4,2,19,9,24,39,-34,-68
-4,-4,0,4,-2,-2,19,9,19,34,-34,-73
4,-9,-14,2,9,-12,24,14,14,19,-39,-73
4,-14,-19,4,12,-17,24,14,9,14,-43,-78
4,-4,-9,0,7,-7,34,14,9,19,-43,-92
9,9,0,-9,4,4,34,14,9,14,-43,-97
14,19,4,-17,4,12,34,14,9,29,-43,-97
24,34,9,-29,7,21,34,14,9,34,-43,-92
29,19,-9,-24,19,4,48,14,9,29,-53,-87
19,9,-9,-14,14,0,48,19,9,24,-53,-82
-4,0,4,2,-4,2,48,19,9,19,-53,-82
-24,-29,-4,26,-9,-17,43,19,9,9,-58,-82
-14,-34,-19,24,2,-26,34,0,19,24,-58,-102
-9,-14,-4,12,-2,-9,39,9,19,29,-58,-107
-4,0,4,2,-4,2,39,9,19,34,-58,-112
0,-9,-9,4,4,-9,39,9,19,39,-58,-122
-9,-19,-9,14,0,-14,39,19,19,34,-68,-122
0,-9,-9,4,4,-9,39,24,19,29,-68,-122
0,-9,-9,4,4,-9,43,24,19,24,-68,-117
0,-9,-9,4,4,-9,43,29,24,19,-68,-112
0,-19,-19,9,9,-19,53,29,29,24,-68,-126
0,-9,-9,4,4,-9,53,29,29,24,-73,-136
-9,-24,-14,17,2,-19,58,29,29,24,-78,-156
-9,-39,-29,24,9,-34,58,29,29,24,-82,-165
0,-24,-24,12,12,-24,58,39,34,34,-68,-146
4,-9,-14,2,9,-12,58,39,39,39,-68,-141
4,-4,-9,0,7,-7,58,39,43,39,-63,-136
4,0,-4,-2,4,-2,58,39,48,39,-63,-131
0,-19,-19,9,9,-19,53,29,43,39,-63,-141
0,-24,-24,12,12,-24,53,29,39,34,-68,-136
-4,-34,-29,19,12,-31,53,29,48,34,-63,-136
-14,-43,-29,29,7,-36,53,34,43,39,-63,-131
-14,-34,-19,24,2,-26,53,34,53,48,-58,-117
-4,-34,-29,19,12,-31,58,34,53,48,-53,-112
-4,-34,-29,19,12,-31,58,34,53,48,-48,-107
-4,-39,-34,21,14,-36,58,34,58,58,-34,-92
0,-24,-24,12,12,-24,53,24,68,58,-43,-97
4,-14,-19,4,12,-17,48,24,58,53,-43,-97
14,-4,-19,-4,17,-12,39,24,58,53,-34,-97
19,0,-19,-9,19,-9,34,24,73,63,-29,-92
14,-9,-24,-2,19,-17,48,29,73,58,-34,-92
9,-19,-29,4,19,-24,48,29,73,58,-34,-97
4,-29,-34,12,19,-31,43,29,63,58,-34,-102
0,-34,-34,17,17,-34,43,29,63,68,-24,-97
14,-19,-34,2,24,-26,43,34,73,78,-14,-97
14,-14,-29,0,21,-21,43,34,73,73,-14,-97
19,-4,-24,-7,21,-14,43,34,73,73,-14,-92
29,9,-19,-19,24,-4,43,34,78,73,-4,-82
29,-9,-39,-9,34,-24,29,29,82,78,9,-68
9,-9,-19,0,14,-14,29,29,82,82,14,-63
19,0,-19,-9,19,-9,29,34,82,97,29,-53
34,0,-34,-17,34,-17,34,34,82,107,34,-43
34,0,-34,-17,34,-17,43,24,78,102,24,-39
29,4,-24,-17,26,-9,39,34,78,97,24,-39
19,4,-14,-12,17,-4,39,34,73,92,24,-39
14,-4,-19,-4,17,-12,39,24,73,87,24,-43
4,-4,-9,0,7,-7,29,14,82,87,19,-43
4,-4,-9,0,7,-7,24,14,82,92,24,-39
14,-4,-19,-4,17,-12,24,14,82,97,29,-34
19,-4,-24,-7,21,-14,29,14,87,102,29,-29
19,4,-14,-12,17,-4,39,14,82,87,24,-39
4,-4,-9,0,7,-7,34,14,78,78,9,-43
4,-4,-9,0,7,-7,29,14,73,68,4,-48
9,-4,-14,-2,12,-9,29,14,63,63,0,-53
19,0,-19,-9,19,-9,39,24,63,73,4,-48
19,4,-14,-12,17,-4,39,24,68,73,9,-48
19,4,-14,-12,17,-4,39,24,68,73,14,-48
14,0,-14,-7,14,-7,39,24,63,63,9,-53
14,-4,-19,-4,17,-12,48,24,53,68,14,-53
9,-9,-19,0,14,-14,48,24,53,68,14,-48
9,-9,-19,0,14,-14,48,29,58,68,19,-39
9,-9,-19,0,14,-14,48,29,58,68,24,-34
19,-19,-39,0,29,-29,43,14,39,58,14,-29
9,-29,-39,9,24,-34,43,14,39,53,0,-29
9,-39,-48,14,29,-43,43,14,39,53,0,-34
0,-29,-29,14,14,-29,43,9,39,48,-4,-43
0,-19,-19,9,9,-19,48,19,39,43,-4,-63
4,-9,-14,2,9,-12,48,19,39,43,-4,-63
14,0,-14,-7,14,-7,48,19,34,43,0,-63
24,9,-14,-17,19,-2,48,19,34,43,4,-53
14,9,-4,-12,9,2,43,4,24,43,0,-63
14,14,0,-14,7,7,39,0,24,43,-4,-63
19,14,-4,-17,12,4,34,-4,19,34,-14,-63
24,19,-4,-21,14,7,34,-9,19,34,-19,-63
34,4,-29,-19,31,-12,48,-4,19,34,-14,-63
24,4,-19,-14,21,-7,48,4,19,34,-19,-58
14,0,-14,-7,14,-7,43,9,19,29,-19,-53
9,-29,-39,9,24,-34,39,9,19,19,-24,-53
-4,-19,-14,12,4,-17,39,0,0,14,-34,-63
4,-4,-9,0,7,-7,53,4,0,9,-29,-78
4,-4,-9,0,7,-7,43,4,4,9,-29,-87
4,-4,-9,0,7,-7,34,4,4,9,-34,-92
9,-4,-14,-2,12,-9,48,14,14,14,-29,-82
19,-19,-39,0,29,-29,53,19,14,19,-24,-63
-9,-43,-34,26,12,-39,58,19,14,19,-24,-68
-19,-48,-29,34,4,-39,63,24,14,19,-24,-63
-4,-39,-34,21,14,-36,48,19,24,24,-14,-63
9,-24,-34,7,21,-29,48,14,24,29,-14,-63
14,-4,-19,-4,17,-12,53,9,24,34,-19,-63
19,9,-9,-14,14,0,53,4,14,29,-19,-63
14,4,-9,-9,12,-2,39,9,9,24,-29,-73
4,-14,-19,4,12,-17,34,4,4,14,-34,-82
4,-19,-24,7,14,-21,34,4,4,4,-43,-82
9,-24,-34,7,21,-29,43,9,0,0,-34,-82
9,-24,-34,7,21,-29,43,4,4,4,-34,-68
9,-24,-34,7,21,-29,48,0,9,14,-29,-58
14,-19,-34,2,24,-26,48,0,19,14,-24,-68
14,-9,-24,-2,19,-17,48,0,29,14,-24,-68
9,-14,-24,2,17,-19,48,0,24,0,-43,-97
4,-19,-24,7,14,-21,43,0,4,-4,-48,-112
4,-19,-24,7,14,-21,43,0,0,-4,-48,-107
0,-24,-24,12,12,-24,43,0,0,-9,-43,-107
0,-48,-48,24,24,-48,53,9,9,4,-29,-82
-4,-53,-48,29,21,-51,53,9,19,19,-19,-73
9,-53,-63,21,36,-58,53,4,29,43,-14,-63
24,-39,-63,7,43,-51,53,4,34,58,-9,-53
34,-24,-58,-4,46,-41,48,9,24,34,-24,-58
19,-24,-43,2,31,-34,48,9,19,19,-34,-63
19,-29,-48,4,34,-39,48,4,14,9,-34,-63
14,-14,-29,0,21,-21,48,4,14,0,-29,-63
9,-24,-34,7,21,-29,43,4,4,0,-39,-73
14,-24,-39,4,26,-31,39,0,0,0,-39,-78
14,-19,-34,2,24,-26,34,-4,9,4,-39,-78
9,-19,-29,4,19,-24,34,-9,9,4,-39,-78
24,-9,-34,-7,29,-21,34,-19,14,4,-34,-78
24,4,-19,-14,21,-7,29,-24,9,4,-34,-82
14,14,0,-14,7,7,29,-24,14,9,-29,-87
14,14,0,-14,7,7,29,-24,14,19,-24,-87
4,4,0,-4,2,2,39,-14,0,14,-29,-82
4,-4,-9,0,7,-7,39,-9,0,9,-29,-82
4,-14,-19,4,12,-17,39,-4,4,4,-29,-78
4,-24,-29,9,17,-26,39,0,4,0,-29,-78
-4,-34,-29,19,12,-31,39,-9,14,0,-29,-68
-9,-34,-24,21,7,-29,39,-19,14,4,-29,-63
-9,-39,-29,24,9,-34,34,-19,14,14,-24,-58
-9,-39,-29,24,9,-34,34,-14,14,19,-14,-58
-4,-29,-24,17,9,-26,48,-9,14,29,-24,-73
0,-19,-19,9,9,-19,48,0,9,19,-29,-82
4,-9,-14,2,9,-12,48,4,9,19,-29,-87
9,4,-4,-7,7,0,53,9,9,24,-24,-87
9,-9,-19,0,14,-14,48,4,0,9,-34,-82
4,-14,-19,4,12,-17,43,0,-4,4,-34,-78
0,-19,-19,9,9,-19,39,-9,-4,0,-34,-73
0,-19,-19,9,9,-19,34,-14,-4,0,-34,-68
4,-9,-14,2,9,-12,39,-14,4,0,-34,-78
9,-4,-14,-2,12,-9,39,-14,4,-4,-34,-82
14,0,-14,-7,14,-7,39,-14,4,-4,-34,-87
9,0,-9,-4,9,-4,39,-14,0,-4,-34,-87
-4,-53,-48,29,21,-51,53,-4,0,-39,-43,-97
-9,-29,-19,19,4,-24,48,-9,0,-19,-48,-97
-9,-19,-9,14,0,-14,39,-19,-9,-14,-43,-82
-9,-19,-9,14,0,-14,39,-19,-9,-9,-39,-78
-9,-19,-9,14,0,-14,39,-19,-9,-4,-34,-73
-9,-19,-9,14,0,-14,39,-19,-9,0,-29,-68
-19,-29,-9,24,-4,-19,39,-9,-9,-9,-39,-82
-19,-39,-19,29,0,-29,39,-9,-9,-9,-39,-87
-19,-48,-29,34,4,-39,39,-9,-9,-9,-39,-92
-19,-58,-39,39,9,-48,39,-9,-9,-9,-39,-97
-4,-39,-34,21,14,-36,48,-19,-9,-9,-48,-97
0,-29,-29,14,14,-29,48,-19,-9,-9,-48,-97
4,-19,-24,7,14,-21,48,-19,-9,-9,-48,-97
9,-9,-19,0,14,-14,48,-19,-9,-9,-48,-97
4,-24,-29,9,17,-26,53,-9,-19,-24,-58,-107
0,-39,-39,19,19,-39,58,-9,-19,-29,-58,-107
-4,-53,-48,29,21,-51,63,-9,-19,-34,-58,-107
-9,-68,-58,39,24,-63,68,-9,-19,-39,-58,-107
0,-48,-48,24,24,-48,53,-14,-9,-19,-53,-102
0,-39,-39,19,19,-39,48,-19,-9,-9,-48,-97
0,-29,-29,14,14,-29,43,-24,-9,0,-43,-92
0,-19,-19,9,9,-19,39,-29,-9,9,-39,-87
-9,-39,-29,24,9,-34,43,-24,-19,4,-48,-97
-9,-48,-39,29,14,-43,48,-19,-19,0,-48,-97
-9,-58,-48,34,19,-53,53,-14,-19,-4,-48,-97
-9,-68,-58,39,24,-63,58,-9,-19,-9,-48,-97
-9,-63,-53,36,21,-58,53,-19,-29,-14,-53,-107
-9,-58,-48,34,19,-53,48,-19,-29,-19,-58,-107
-9,-53,-43,31,17,-48,43,-19,-29,-24,-63,-107
-9,-48,-39,29,14,-43,39,-19,-29,-29,-68,-107
0,-48,-48,24,24,-48,39,-29,-24,-24,-63,-107
0,-48,-48,24,24,-48,39,-29,-19,-19,-58,-107
0,-48,-48,24,24,-48,39,-29,-14,-14,-53,-107
0,-48,-48,24,24,-48,39,-29,-9,-9,-48,-107
-9,-63,-53,36,21,-58,48,-19,-14,-14,-58,-112
-9,-68,-58,39,24,-63,48,-19,-19,-19,-58,-117
-9,-73,-63,41,26,-68,48,-19,-24,-24,-58,-122
-9,-78,-68,43,29,-73,48,-19,-29,-29,-58,-126
0,-68,-68,34,34,-68,48,-19,-19,-24,-48,-122
0,-58,-58,29,29,-58,48,-19,-19,-19,-48,-117
0,-48,-48,24,24,-48,48,-19,-19,-14,-48,-112
0,-39,-39,19,19,-39,48,-19,-19,-9,-48,-107
9,-48,-58,19,34,-53,43,-19,-19,0,-39,-92
9,-48,-58,19,34,-53,39,-19,-19,0,-39,-87
9,-48,-58,19,34,-53,34,-19,-19,0,-39,-82
9,-48,-58,19,34,-53,29,-19,-19,0,-39,-78
0,-39,-39,19,19,-39,39,-29,-14,9,-29,-82
0,-43,-43,21,21,-43,39,-29,-9,4,-29,-87
-4,-58,-53,31,24,-56,39,-24,-4,0,-34,-92
-14,-58,-43,36,14,-51,29,-24,0,-4,-39,-97
-14,-48,-34,31,9,-41,19,-29,-14,-14,-48,-102
-9,-34,-24,21,7,-29,24,-34,-14,-9,-43,-102
-9,-48,-39,29,14,-43,24,-39,-14,-4,-43,-107
-9,-48,-39,29,14,-43,24,-43,-14,-4,-43,-112
0,-39,-39,19,19,-39,39,-34,-14,-14,-34,-97
4,-29,-34,12,19,-31,39,-29,-9,-14,-34,-87
4,-43,-48,19,26,-46,39,-24,-9,-14,-34,-82
0,-53,-53,26,26,-53,39,-24,-9,-14,-34,-87
-9,-29,-19,19,4,-24,24,-29,-9,-9,-34,-87
-9,-29,-19,19,4,-24,24,-29,-9,-4,-34,-87
-9,-39,-29,24,9,-34,24,-24,-9,0,-34,-87
-14,-39,-24,26,4,-31,24,-24,-9,4,-34,-87
-24,-53,-29,39,2,-41,29,-24,-9,4,-39,-92
-19,-53,-34,36,7,-43,29,-24,-14,0,-39,-102
-19,-53,-34,36,7,-43,34,-24,-14,0,-39,-107
-14,-58,-43,36,14,-51,43,-24,-14,4,-39,-102
-4,-48,-43,26,19,-46,43,-24,-9,0,-39,-102
4,-39,-43,17,24,-41,43,-24,-9,-4,-39,-102
14,-29,-43,7,29,-36,48,-24,-9,-9,-43,-112
19,-24,-43,2,31,-34,48,-24,-19,-24,-48,-112
-4,-43,-39,24,17,-41,34,-39,-19,-19,-39,-102
-19,-53,-34,36,7,-43,29,-48,-19,-9,-34,-97
-29,-63,-34,46,2,-48,29,-53,-19,0,-29,-97
-39,-73,-34,56,-2,-53,24,-53,-19,4,-29,-92
-24,-58,-34,41,4,-46,34,-43,-19,0,-48,-102
-24,-58,-34,41,4,-46,34,-43,-14,-4,-48,-102
-19,-58,-39,39,9,-48,34,-48,-14,-9,-43,-102
-14,-53,-39,34,12,-46,34,-48,-14,-19,-43,-102
-4,-53,-48,29,21,-51,39,-43,-24,-29,-43,-92
-4,-53,-48,29,21,-51,48,-34,-24,-29,-43,-92
-4,-68,-63,36,29,-65,53,-29,-24,-24,-43,-92
-9,-97,-87,53,39,-92,58,-24,-24,-14,-43,-97
-29,-97,-68,63,19,-82,43,-34,-24,-24,-48,-117
-29,-78,-48,53,9,-63,39,-39,-24,-34,-48,-117
-19,-48,-29,34,4,-39,39,-43,-19,-19,-43,-107
-19,-29,-9,24,-4,-19,39,-48,-19,-9,-43,-107
-14,-39,-24,26,4,-31,48,-39,-9,0,-34,-97
-19,-58,-39,39,9,-48,39,-34,-4,4,-34,-97
-19,-68,-48,43,14,-58,48,-34,-4,9,-34,-97
-19,-78,-58,48,19,-68,48,-34,-4,14,-34,-97
-24,-73,-48,48,12,-61,34,-34,-14,4,-39,-97
-24,-73,-48,48,12,-61,34,-34,-14,0,-39,-92
-24,-73,-48,48,12,-61,34,-34,-14,-9,-43,-92
-29,-73,-43,51,7,-58,34,-34,-14,-29,-53,-97
-19,-68,-48,43,14,-58,29,-43,-4,-19,-43,-107
-9,-63,-53,36,21,-58,29,-43,0,0,-43,-102
-9,-58,-48,34,19,-53,29,-43,0,9,-39,-102
-9,-53,-43,31,17,-48,29,-43,-4,14,-39,-107
-19,-68,-48,43,14,-58,24,-39,-9,4,-53,-107
-24,-68,-43,46,9,-56,24,-39,-14,-4,-53,-107
-14,-68,-53,41,19,-61,24,-34,-14,-14,-48,-102
-14,-73,-58,43,21,-65,29,-34,-19,-19,-48,-92
-14,-73,-58,43,21,-65,39,-34,-14,0,-39,-102
-34,-87,-53,61,9,-70,39,-34,-9,4,-43,-112
-34,-87,-53,61,9,-70,34,-34,-4,4,-43,-112
-29,-73,-43,51,7,-58,34,-34,0,9,-39,-112
-19,-58,-39,39,9,-48,34,-34,0,19,-24,-112
-14,-58,-43,36,14,-51,34,-39,-4,14,-19,-112
-14,-68,-53,41,19,-61,29,-39,-4,14,-14,-107
-14,-63,-48,39,17,-56,29,-39,-4,14,-9,-97
-4,-58,-53,31,24,-56,24,-39,-4,14,-19,-92
4,-43,-48,19,26,-46,24,-39,-4,9,-29,-92
4,-43,-48,19,26,-46,19,-48,-4,4,-39,-92
4,-43,-48,19,26,-46,19,-48,-4,0,-43,-92
-9,-53,-43,31,17,-48,9,-58,-14,-4,-43,-97
-14,-53,-39,34,12,-46,14,-58,-14,-9,-43,-102
-29,-58,-29,43,0,-43,14,-58,-14,-14,-43,-107
-34,-58,-24,46,-4,-41,9,-58,-14,-19,-43,-112
-29,-58,-29,43,0,-43,9,-48,-14,-9,-48,-92
-19,-48,-29,34,4,-39,9,-43,-9,-4,-34,-87
-14,-48,-34,31,9,-41,9,-43,-9,9,-24,-82
-14,-53,-39,34,12,-46,4,-48,-19,14,-19,-78
-24,-53,-29,39,2,-41,14,-48,-9,9,-29,-82
-14,-53,-39,34,12,-46,19,-48,-4,4,-29,-87
0,-34,-34,17,17,-34,19,-43,4,14,-19,-82
9,-24,-34,7,21,-29,14,-43,4,14,-14,-87
0,-9,-9,4,4,-9,4,-43,14,43,19,-58
4,-39,-43,17,24,-41,4,-34,14,63,29,-53
14,-48,-63,17,39,-56,19,-24,19,63,53,-34
14,-53,-68,19,41,-61,29,4,34,82,68,-4
14,-73,-87,29,51,-80,39,14,68,122,122,39
34,-107,-141,36,87,-124,39,34,112,209,209,68
82,-43,-126,-19,104,-85,29,68,190,336,331,107
117,73,-43,-95,80,14,0,63,273,488,502,195
107,165,58,-136,24,112,-34,19,326,634,683,326
107,204,97,-156,4,151,-63,-9,375,761,854,478
131,258,126,-195,2,192,-102,-34,439,902,1029,649
156,341,185,-248,-14,263,-136,-48,541,1068,1234,858
175,439,263,-307,-43,351,-175,-53,653,1220,1429,1054
224,536,312,-380,-43,424,-219,-78,732,1361,1629,1283
278,649,370,-463,-46,509,-287,-107,756,1439,1844,1586
307,756,448,-531,-70,602,-346,-180,697,1420,2020,1917
307,863,556,-585,-124,710,-395,-278,590,1298,2093,2215
356,966,610,-661,-126,788,-453,-361,473,1127,2088,2483
395,1063,668,-729,-136,866,-522,-448,317,902,2083,2786
322,1102,780,-712,-229,941,-575,-580,141,683,2127,3103
214,1102,888,-658,-336,995,-634,-692,-4,512,2205,3411
156,1176,1019,-666,-431,1098,-663,-775,-102,405,2342,3791
107,1327,1220,-717,-556,1273,-668,-834,-117,351,2552,4245
-4,1483,1488,-739,-746,1485,-658,-888,-82,331,2766,4626
-151,1644,1795,-746,-973,1720,-658,-946,-82,278,2815,4738
-283,1751,2034,-734,-1159,1893,-649,-1005,-146,131,2630,4484
-400,1722,2122,-661,-1261,1922,-629,-1054,-239,-82,2283,3962
-468,1639,2108,-585,-1288,1873,-595,-1083,-326,-336,1854,3411
-463,1556,2020,-546,-1241,1788,-551,-1078,-458,-556,1420,2781
-458,1371,1830,-456,-1144,1600,-497,-1068,-639,-785,863,1937
-468,1068,1537,-300,-1002,1302,-419,-990,-771,-1058,161,1029
-444,756,1200,-156,-822,978,-312,-854,-834,-1283,-566,214
-444,488,932,-21,-688,710,-200,-727,-868,-1454,-1273,-556
-492,234,727,129,-610,480,-122,-639,-917,-1610,-1820,-1180
-483,78,561,202,-522,319,-58,-566,-956,-1610,-1834,-1268
-434,0,434,217,-434,217,-4,-512,-966,-1522,-1576,-1049
-409,-102,307,256,-358,102,39,-439,-971,-1483,-1488,-1000
-385,-234,151,309,-268,-41,87,-346,-917,-1400,-1429,-1015
-341,-312,29,326,-185,-141,112,-268,-839,-1249,-1249,-932
-283,-322,-39,302,-122,-180,107,-214,-756,-1098,-1078,-834
-253,-331,-78,292,-87,-204,112,-165,-668,-936,-932,-756
-209,-351,-141,280,-34,-246,131,-117,-580,-771,-766,-658
-161,-346,-185,253,12,-265,151,-48,-483,-629,-629,-566
-122,-326,-204,224,41,-265,141,-14,-370,-531,-546,-512
-112,-283,-170,197,29,-226,122,-9,-287,-434,-473,-458
-87,-234,-146,161,29,-190,112,-9,-219,-346,-400,-395
-73,-175,-102,124,14,-139,82,-19,-180,-283,-341,-356
-58,-141,-82,100,12,-112,58,-34,-151,-258,-287,-317
-43,-141,-97,92,26,-119,63,-34,-136,-209,-229,-283
-4,-122,-117,63,56,-119,63,-4,-112,-151,-180,-253
24,-92,-117,34,70,-104,63,14,-73,-122,-165,-244
-24,-141,-117,82,46,-129,58,4,-63,-112,-165,-244
-73,-200,-126,136,26,-163,58,-4,-43,-87,-165,-248
-53,-175,-122,114,34,-148,63,4,-34,-78,-156,-239
-43,-161,-117,102,36,-139,63,4,-34,-78,-146,-239
-39,-146,-107,92,34,-126,63,0,-34,-78,-141,-239
-39,-151,-112,95,36,-131,58,-4,-39,-73,-141,-239
-43,-141,-97,92,26,-119,48,-4,-43,-82,-141,-248
-43,-151,-107,97,31,-129,53,-4,-43,-68,-131,-248
-29,-141,-112,85,41,-126,53,9,-34,-53,-117,-248
-29,-141,-112,85,41,-126,58,14,-24,-43,-117,-248
-19,-136,-117,78,48,-126,48,14,-29,-43,-122,-234
-14,-131,-117,73,51,-124,48,14,-24,-48,-122,-229
-14,-117,-102,65,43,-109,53,14,-24,-53,-126,-219
-14,-112,-97,63,41,-104,53,9,-19,-53,-126,-214
-24,-126,-102,75,39,-114,48,9,-24,-58,-117,-219
-24,-126,-102,75,39,-114,48,9,-24,-48,-117,-224
-14,-126,-112,70,48,-119,48,14,-19,-43,-112,-229
-14,-131,-117,73,51,-124,53,24,-19,-43,-112,-229
-14,-151,-136,82,61,-143,58,34,-9,-34,-92,-214
-19,-156,-136,87,58,-146,58,34,-4,-29,-92,-214
-19,-156,-136,87,58,-146,63,29,-9,-29,-102,-209
-19,-156,-136,87,58,-146,68,29,-9,-29,-102,-209
-19,-151,-131,85,56,-141,63,24,-19,-34,-117,-219
-19,-161,-141,90,61,-151,58,19,-24,-39,-117,-224
-19,-156,-136,87,58,-146,53,19,-24,-43,-107,-224
-9,-146,-136,78,63,-141,53,14,-19,-39,-107,-229
-4,-136,-131,70,63,-134,63,19,-14,-39,-107,-224
0,-131,-131,65,65,-131,63,29,-9,-43,-107,-224
4,-122,-126,58,65,-124,63,34,-4,-48,-117,-224
9,-117,-126,53,68,-122,63,34,-9,-63,-122,-234
-14,-131,-117,73,51,-124,63,24,-14,-63,-112,-244
-9,-146,-136,78,63,-141,63,19,-19,-53,-112,-248
-14,-161,-146,87,65,-153,68,19,-24,-53,-112,-248
-19,-180,-161,100,70,-170,68,24,-19,-43,-112,-248
-24,-175,-151,100,63,-163,78,34,-9,-53,-117,-239
-24,-170,-146,97,61,-158,78,34,-9,-53,-122,-239
-29,-165,-136,97,53,-151,82,34,-14,-63,-131,-244
-43,-161,-117,102,36,-139,82,34,-19,-68,-136,-248
-34,-161,-126,97,46,-143,73,24,-29,-87,-146,-263
-24,-161,-136,92,56,-148,73,24,-34,-87,-146,-263
-24,-161,-136,92,56,-148,73,24,-29,-78,-141,-258
-24,-161,-136,92,56,-148,78,24,-34,-68,-141,-258
-14,-161,-146,87,65,-153,87,34,-24,-58,-146,-268
-14,-165,-151,90,68,-158,87,34,-24,-58,-151,-273
-19,-165,-146,92,63,-156,87,39,-29,-68,-156,-278
-19,-161,-141,90,61,-151,87,39,-29,-82,-161,-278
-19,-161,-141,90,61,-151,87,34,-39,-92,-161,-283
-19,-170,-151,95,65,-161,87,34,-48,-97,-165,-287
-19,-175,-156,97,68,-165,92,34,-48,-97,-170,-287
-19,-175,-156,97,68,-165,92,39,-43,-97,-170,-287
-34,-195,-161,114,63,-178,82,43,-34,-87,-180,-292
-39,-209,-170,124,65,-190,87,48,-34,-82,-185,-297
-43,-204,-161,124,58,-183,87,48,-34,-78,-185,-302
-39,-200,-161,119,61,-180,92,48,-34,-78,-185,-307
-29,-190,-161,109,65,-175,102,53,-24,-82,-180,-302
-34,-190,-156,112,61,-173,102,53,-34,-102,-195,-307
-34,-200,-165,117,65,-183,102,53,-34,-112,-190,-307
-24,-200,-175,112,75,-187,112,63,-29,-102,-185,-307
-19,-200,-180,109,80,-190,107,63,-24,-82,-175,-312
-14,-209,-195,112,90,-202,102,58,-24,-82,-180,-317
-29,-214,-185,122,78,-200,97,58,-24,-82,-185,-317
-9,-214,-204,112,97,-209,92,63,-24,-87,-185,-322
-9,-214,-204,112,97,-209,107,63,-24,-92,-190,-336
-14,-219,-204,117,95,-212,107,63,-29,-112,-200,-336
-24,-229,-204,126,90,-217,107,63,-34,-117,-209,-336
-4,-219,-214,112,104,-217,107,63,-39,-126,-214,-336
-9,-209,-200,109,95,-204,92,63,-43,-126,-219,-346
-19,-209,-190,114,85,-200,92,63,-39,-126,-224,-351
-24,-214,-190,119,82,-202,102,68,-43,-126,-224,-351
-19,-219,-200,119,90,-209,102,68,-48,-122,-224,-356
-14,-219,-204,117,95,-212,117,78,-43,-117,-214,-351
-4,-229,-224,117,109,-226,122,82,-39,-122,-209,-346
9,-224,-234,107,122,-229,131,87,-39,-117,-209,-341
19,-214,-234,97,126,-224,136,92,-34,-112,-204,-331
4,-229,-234,112,119,-231,131,78,-39,-126,-224,-351
-14,-239,-224,126,104,-231,122,78,-43,-136,-234,-361
-29,-248,-219,139,95,-234,112,73,-48,-156,-253,-375
-39,-258,-219,148,90,-239,102,68,-53,-161,-258,-380
-19,-248,-229,134,104,-239,117,78,-48,-151,-253,-380
-19,-253,-234,136,107,-244,117,78,-43,-146,-244,-375
-39,-263,-224,151,92,-244,117,78,-39,-146,-239,-370
-48,-278,-229,163,90,-253,117,78,-34,-141,-244,-375
-19,-263,-244,141,112,-253,117,87,-39,-151,-248,-375
-14,-248,-234,131,109,-241,122,87,-43,-151,-248,-375
-9,-244,-234,126,112,-239,122,92,-48,-151,-248,-375
0,-248,-248,124,124,-248,122,92,-58,-161,-258,-385
-4,-263,-258,134,126,-261,117,82,-58,-161,-263,-390
-9,-268,-258,139,124,-263,117,82,-58,-161,-268,-390
-24,-287,-263,156,119,-275,117,82,-63,-165,-268,-385
-19,-297,-278,158,129,-287,117,82,-63,-165,-268,-385
-14,-287,-273,151,129,-280,117,82,-58,-156,-263,-380
-4,-287,-283,146,139,-285,117,87,-58,-156,-263,-375
0,-287,-287,143,143,-287,117,87,-58,-156,-268,-370
4,-287,-292,141,148,-290,122,87,-58,-151,-268,-366
-9,-307,-297,158,143,-302,122,78,-63,-161,-278,-361
-14,-307,-292,161,139,-300,122,78,-73,-185,-278,-361
-19,-307,-287,163,134,-297,117,73,-78,-195,-278,-336
-24,-312,-287,168,131,-300,112,73,-92,-204,-278,-326
-14,-302,-287,158,136,-295,102,68,-92,-195,-263,-302
-9,-297,-287,153,139,-292,107,68,-87,-190,-253,-292
0,-297,-297,148,148,-297,107,68,-87,-180,-244,-278
0,-292,-292,146,146,-292,102,68,-92,-170,-239,-263
-24,-287,-263,156,119,-275,107,58,-107,-185,-244,-248
-24,-292,-268,158,122,-280,107,48,-107,-190,-239,-229
-24,-278,-253,151,114,-265,107,48,-107,-195,-234,-209
-24,-263,-239,143,107,-251,92,39,-107,-200,-224,-185
-14,-263,-248,139,117,-256,87,39,-97,-190,-204,-151
-4,-248,-244,126,119,-246,87,34,-97,-185,-195,-122
0,-244,-244,122,122,-244,78,19,-107,-180,-195,-102
4,-239,-244,117,124,-241,73,9,-107,-175,-180,-73
-4,-214,-209,109,102,-212,68,0,-112,-165,-170,-48
-4,-214,-209,109,102,-212,63,-4,-112,-165,-156,-29
-4,-200,-195,102,95,-197,63,-4,-112,-165,-141,-4
-4,-190,-185,97,90,-187,58,-19,-112,-165,-126,24
4,-180,-185,87,95,-183,43,-24,-112,-151,-102,48
14,-151,-165,68,90,-158,34,-34,-112,-146,-87,73
24,-122,-146,48,85,-134,34,-34,-112,-136,-68,97
14,-107,-122,46,68,-114,24,-43,-112,-131,-63,122
4,-117,-122,56,63,-119,24,-53,-102,-131,-58,131
4,-112,-117,53,61,-114,19,-63,-102,-131,-48,161
4,-102,-107,48,56,-104,9,-68,-102,-126,-34,185
9,-102,-112,46,61,-107,4,-73,-97,-122,-19,214
19,-82,-102,31,61,-92,-14,-82,-92,-107,9,239
24,-53,-78,14,51,-65,-24,-92,-87,-82,34,253
24,-24,-48,0,36,-36,-34,-97,-87,-73,43,273
34,0,-34,-17,34,-17,-34,-97,-73,-68,68,292
39,14,-24,-26,31,-4,-34,-92,-53,-29,92,297
19,19,0,-19,9,9,-48,-102,-43,-14,102,292
4,14,9,-9,-2,12,-53,-112,-39,4,117,287
14,29,14,-21,0,21,-53,-102,-34,14,131,292
4,34,29,-19,-12,31,-58,-112,-19,39,136,278
0,34,34,-17,-17,34,-68,-117,-14,39,136,268
0,43,43,-21,-21,43,-68,-117,-9,58,151,263
0,58,58,-29,-29,58,-68,-117,4,78,165,244
9,53,43,-31,-17,48,-58,-112,19,73,161,229
14,63,48,-39,-17,56,-58,-102,29,82,156,219
19,58,39,-39,-9,48,-53,-87,34,92,151,209
19,53,34,-36,-7,43,-53,-82,39,92,141,200
29,63,34,-46,-2,48,-53,-82,53,102,146,175
29,63,34,-46,-2,48,-53,-82,58,112,141,161
29,63,34,-46,-2,48,-53,-78,63,122,141,146
19,63,43,-41,-12,53,-53,-78,68,131,136,122
19,53,34,-36,-7,43,-53,-68,63,122,126,97
24,58,34,-41,-4,46,-48,-63,63,122,126,87
24,58,34,-41,-4,46,-48,-58,63,117,117,73
14,53,39,-34,-12,46,-43,-53,53,107,97,68
4,58,53,-31,-24,56,-43,-48,63,117,97,58
14,58,43,-36,-14,51,-39,-48,68,112,97,48
19,63,43,-41,-12,53,-39,-48,73,112,92,43
29,63,34,-46,-2,48,-34,-43,73,107,78,34
24,43,19,-34,2,31,-34,-34,73,112,78,39
9,24,14,-17,-2,19,-34,-34,68,107,73,19
9,24,14,-17,-2,19,-34,-34,63,102,68,14
14,34,19,-24,-2,26,-29,-24,63,102,68,14
14,34,19,-24,-2,26,-29,-24,58,92,48,4
14,39,24,-26,-4,31,-29,-24,58,87,48,-4
14,39,24,-26,-4,31,-29,-24,58,82,48,-9
19,39,19,-29,0,29,-29,-24,58,73,43,-9
9,39,29,-24,-9,34,-24,-24,63,82,39,-24
9,34,24,-21,-7,29,-24,-24,58,78,34,-29
0,19,19,-9,-9,19,-24,-24,53,68,29,-34
0,19,19,-9,-9,19,-24,-24,53,68,29,-34
0,24,24,-12,-12,24,-24,-24,43,68,19,-24
-14,-4,9,9,-12,2,-24,-24,43,63,14,-29
-14,-9,4,12,-9,-2,-24,-24,39,58,9,-34
0,-4,-4,2,2,-4,-24,-24,39,58,4,-34
4,4,0,-4,2,2,-24,-24,39,58,0,-43
0,0,0,0,0,0,-24,-24,39,58,0,-53
4,19,14,-12,-4,17,-24,-24,39,58,0,-58
9,29,19,-19,-4,24,-19,-19,39,68,0,-58
19,19,0,-19,9,9,-4,-9,39,53,-4,-48
19,19,0,-19,9,9,-4,-9,43,48,-4,-48
9,19,9,-14,0,14,-9,-14,43,43,-14,-58
9,19,9,-14,0,14,-9,-14,48,39,-19,-63
0,0,0,0,0,0,-9,-14,43,29,-24,-73
-4,-9,-4,7,0,-7,-4,-9,43,29,-34,-78
-14,-29,-14,21,0,-21,-4,-9,39,24,-39,-82
-19,-39,-19,29,0,-29,-4,-9,24,19,-48,-92
-9,-29,-19,19,4,-24,-4,-9,19,9,-58,-97
-4,-19,-14,12,4,-17,0,-9,19,14,-58,-102
-9,-14,-4,12,-2,-9,0,-9,24,14,-68,-107
-4,-14,-9,9,2,-12,0,-9,24,14,-68,-112
-4,-24,-19,14,7,-21,9,0,29,4,-63,-107
-4,-24,-19,14,7,-21,9,0,29,4,-63,-112
4,-24,-29,9,17,-26,14,4,29,-4,-68,-112
4,-24,-29,9,17,-26,14,4,29,-4,-73,-117
0,-14,-14,7,7,-14,4,-4,24,-14,-78,-126
0,-9,-9,4,4,-9,4,-4,19,-24,-82,-136
0,-9,-9,4,4,-9,4,-4,14,-14,-87,-141
4,-4,-9,0,7,-7,4,-4,9,-14,-92,-141
9,-4,-14,-2,12,-9,9,-14,9,-14,-82,-131
9,-9,-19,0,14,-14,9,-9,9,-14,-82,-131
-4,-14,-9,9,2,-12,9,-9,9,-14,-82,-136
-14,-39,-24,26,4,-31,4,-9,9,-19,-87,-141
-9,-48,-39,29,14,-43,14,-19,9,-14,-82,-136
-9,-34,-24,21,7,-29,19,-9,9,-9,-78,-136
-9,-24,-14,17,2,-19,19,-9,9,-4,-73,-136
-9,-39,-29,24,9,-34,19,-9,9,0,-68,-141
-9,-29,-19,19,4,-24,9,-9,0,-4,-68,-141
0,-19,-19,9,9,-19,9,-4,0,-9,-68,-141
0,-19,-19,9,9,-19,14,-4,0,-14,-68,-136
0,-19,-19,9,9,-19,14,0,4,-19,-68,-131
19,-4,-24,-7,21,-14,14,0,19,-9,-58,-122
19,9,-9,-14,14,0,14,0,19,-4,-53,-117
9,0,-9,-4,9,-4,19,0,19,0,-48,-122
9,-9,-19,0,14,-14,19,0,19,4,-43,-117
-4,-24,-19,14,7,-21,9,-9,9,-4,-29,-102
-4,-19,-14,12,4,-17,9,-9,9,0,-29,-102
-9,-24,-14,17,2,-19,9,-9,9,0,-24,-102
-14,-29,-14,21,0,-21,9,-9,9,0,-24,-102
-4,-19,-14,12,4,-17,14,-9,9,14,-9,-92
0,-14,-14,7,7,-14,14,-9,9,14,-9,-78
0,-14,-14,7,7,-14,14,-9,24,19,0,-68
-4,-14,-9,9,2,-12,14,-4,24,29,4,-53
-4,-14,-9,9,2,-12,9,-4,24,39,9,-63
4,-14,-19,4,12,-17,9,-4,24,39,14,-63
4,-14,-19,4,12,-17,4,-4,24,39,19,-63
4,-19,-24,7,14,-21,0,-4,29,48,34,-53
-4,-9,-4,7,0,-7,0,-9,29,43,29,-48
-4,-4,0,4,-2,-2,0,-14,19,34,24,-48
0,0,0,0,0,0,-4,-19,19,29,29,-48
0,0,0,0,0,0,-4,-24,34,34,29,-43
4,9,4,-7,0,7,9,-9,43,39,43,-34
9,9,0,-9,4,4,9,-9,43,39,43,-29
14,9,-4,-12,9,2,4,-9,34,39,43,-24
19,14,-4,-17,12,4,4,-9,34,48,53,-9
24,14,-9,-19,17,2,4,-4,34,58,53,-9
24,14,-9,-19,17,2,4,-4,34,53,53,-9
29,19,-9,-24,19,4,4,-4,34,53,53,-4
39,29,-9,-34,24,9,4,-4,39,53,63,4
14,0,-14,-7,14,-7,-9,-9,34,43,58,-9
-9,0,9,4,-9,4,-9,-9,34,43,53,-14
-4,9,14,-2,-9,12,-9,-4,34,53,58,-14
4,9,4,-7,0,7,-4,-4,34,58,53,-14
4,4,0,-4,2,2,-4,-14,39,48,53,-4
0,4,4,-2,-2,4,-9,-4,39,48,53,0
-9,0,9,4,-9,4,-9,-4,34,48,53,4
-14,-14,0,14,-7,-7,-9,-14,34,48,53,4
-9,0,9,4,-9,4,-9,-14,43,48,48,-4
-4,4,9,0,-7,7,-14,-14,43,53,53,0
9,9,0,-9,4,4,-14,-14,43,58,58,4
19,14,-4,-17,12,4,-9,-14,48,63,58,9
9,24,14,-17,-2,19,0,-14,48,48,58,9
-4,14,19,-4,-12,17,-4,-14,48,48,48,4
-4,14,19,-4,-12,17,-9,-14,48,48,48,0
0,14,14,-7,-7,14,-9,-14,43,53,48,-4
0,9,9,-4,-4,9,9,-4,43,53,39,-19
0,14,14,-7,-7,14,9,-4,48,53,39,-19
0,14,14,-7,-7,14,9,-4,48,53,39,-19
-4,9,14,-2,-9,12,9,-4,43,43,29,-24
4,4,0,-4,2,2,9,-14,43,39,34,-19
0,0,0,0,0,0,9,-14,43,39,34,-19
0,0,0,0,0,0,9,-9,48,39,39,-14
0,0,0,0,0,0,9,-9,48,39,43,-14
0,-9,-9,4,4,-9,14,-4,29,29,29,-14
-9,-19,-9,14,0,-14,14,-4,29,24,9,-19
-9,-29,-19,19,4,-24,14,-4,29,24,4,-29
-19,-19,0,19,-9,-9,14,-9,29,19,-4,-43
-19,-4,14,12,-17,4,19,-9,29,9,-9,-43
-14,0,14,7,-14,7,19,-9,29,14,-4,-43
-4,4,9,0,-7,7,19,-9,24,19,4,-43
4,9,4,-7,0,7,19,-9,24,24,14,-34
14,9,-4,-12,9,2,19,0,29,34,4,-34
14,14,0,-14,7,7,19,0,34,34,4,-34
19,14,-4,-17,12,4,19,0,34,24,0,-34
24,19,-4,-21,14,7,24,0,39,24,0,-34
19,9,-9,-14,14,0,19,-9,29,24,4,-39
4,4,0,-4,2,2,19,-4,29,24,0,-39
-9,-4,4,7,-7,0,14,-4,29,19,0,-39
-19,-39,-19,29,0,-29,9,-9,29,9,-4,-43
-24,-29,-4,26,-9,-17,9,-9,19,4,-9,-53
-4,-14,-9,9,2,-12,24,-4,19,0,-9,-58
4,-14,-19,4,12,-17,14,-4,24,0,-14,-58
14,-14,-29,0,21,-21,4,-4,24,0,-24,-53
24,0,-24,-12,24,-12,9,0,34,4,-19,-53
29,-9,-39,-9,34,-24,14,0,34,9,-14,-43
-4,-29,-24,17,9,-26,19,-4,34,9,-14,-58
-19,-29,-9,24,-4,-19,24,-4,34,9,-14,-63
-4,-19,-14,12,4,-17,19,4,34,0,-24,-73
9,-14,-24,2,17,-19,19,4,34,0,-24,-73
14,-4,-19,-4,17,-12,24,4,34,0,-29,-73
19,0,-19,-9,19,-9,24,4,24,-9,-29,-73
4,-9,-14,2,9,-12,19,-9,34,4,-24,-68
-4,-24,-19,14,7,-21,14,-14,34,4,-24,-73
-4,-24,-19,14,7,-21,14,-14,39,4,-29,-68
0,-24,-24,12,12,-24,24,-9,39,9,-14,-63
9,-19,-29,4,19,-24,19,-9,29,4,-24,-68
9,-14,-24,2,17,-19,19,-9,29,14,-19,-58
14,-4,-19,-4,17,-12,14,-4,34,14,-14,-68
14,9,-4,-12,9,2,9,0,39,14,-14,-68
24,19,-4,-21,14,7,19,9,48,14,-14,-78
24,19,-4,-21,14,7,14,9,34,14,-19,-82
29,24,-4,-26,17,9,14,9,34,19,-19,-68
29,24,-4,-26,17,9,14,9,39,19,-14,-58
14,0,-14,-7,14,-7,4,4,39,14,-24,-68
-4,-14,-9,9,2,-12,4,0,39,9,-19,-73
-4,-24,-19,14,7,-21,4,-9,39,14,-19,-78
-4,-19,-14,12,4,-17,4,-14,34,9,-19,-82
4,-14,-19,4,12,-17,0,-14,29,0,-14,-82
-9,-14,-4,12,-2,-9,0,-9,29,0,-24,-82
-9,-19,-9,14,0,-14,0,-9,29,4,-24,-78
-14,-4,9,9,-12,2,0,-4,34,9,-19,-73
-9,4,14,2,-12,9,9,0,29,9,-19,-68
4,4,0,-4,2,2,9,0,29,9,-19,-68
14,9,-4,-12,9,2,9,0,43,14,-19,-63
19,9,-9,-14,14,0,14,0,48,14,-19,-58
19,4,-14,-12,17,-4,4,0,39,9,-29,-58
14,4,-9,-9,12,-2,0,-4,29,4,-34,-63
0,0,0,0,0,0,0,-4,29,4,-34,-68
-4,-14,-9,9,2,-12,0,-4,24,9,-34,-68
4,-9,-14,2,9,-12,0,-9,19,9,-19,-68
4,-4,-9,0,7,-7,0,-9,19,9,-19,-73
4,0,-4,-2,4,-2,0,-9,24,9,-19,-73
4,4,0,-4,2,2,0,-9,24,9,-19,-78
-4,4,9,0,-7,7,0,0,14,-4,-34,-73
-9,4,14,2,-12,9,0,-9,14,-4,-39,-73
-9,0,9,4,-9,4,-4,-9,14,0,-39,-73
-9,0,9,4,-9,4,-4,-4,14,0,-34,-78
-4,9,14,-2,-9,12,9,-4,14,0,-34,-78
0,9,9,-4,-4,9,9,0,9,-9,-39,-82
4,9,4,-7,0,7,9,0,9,-9,-39,-82
9,14,4,-12,2,9,14,0,9,-4,-34,-78
9,9,0,-9,4,4,14,0,9,-4,-39,-82
4,4,0,-4,2,2,14,0,4,-4,-43,-87
0,0,0,0,0,0,14,-4,4,-4,-48,-92
0,0,0,0,0,0,14,-4,4,0,-53,-97
14,9,-4,-12,9,2,19,4,9,9,-48,-82
19,14,-4,-17,12,4,19,4,14,4,-43,-82
24,19,-4,-21,14,7,19,4,19,4,-39,-82
19,19,0,-19,9,9,19,4,19,4,-34,-78
4,4,0,-4,2,2,14,-4,0,-19,-53,-97
-19,-29,-9,24,-4,-19,9,-9,0,-29,-58,-97
-14,-24,-9,19,-2,-17,19,-9,0,-19,-58,-107
-9,-19,-9,14,0,-14,19,-9,0,-19,-58,-107
-4,-14,-9,9,2,-12,19,-9,0,-19,-58,-107
0,-9,-9,4,4,-9,19,-9,0,-19,-58,-107
0,0,0,0,0,0,9,-9,9,-19,-48,-107
0,0,0,0,0,0,9,-9,9,-19,-48,-107
0,0,0,0,0,0,9,-9,9,-19,-48,-107
0,0,0,0,0,0,9,-9,9,-19,-48,-107
0,-4,-4,2,2,-4,19,0,0,-29,-58,-97
0,-9,-9,4,4,-9,19,0,0,-29,-58,-97
0,-14,-14,7,7,-14,19,0,0,-29,-58,-97
0,-19,-19,9,9,-19,19,0,0,-29,-58,-97
9,-9,-19,0,14,-14,19,0,4,-14,-48,-87
9,-9,-19,0,14,-14,19,0,9,-9,-48,-87
9,-9,-19,0,14,-14,19,0,14,-4,-48,-87
9,-9,-19,0,14,-14,19,0,19,0,-48,-87
19,-4,-24,-7,21,-14,9,9,19,-9,-48,-97
19,0,-19,-9,19,-9,9,9,19,-9,-48,-97
19,4,-14,-12,17,-4,9,9,19,-9,-48,-97
19,9,-9,-14,14,0,9,9,19,-9,-48,-97
19,9,-9,-14,14,0,9,0,19,-9,-48,-87
19,9,-9,-14,14,0,9,0,19,-9,-48,-87
19,9,-9,-14,14,0,9,0,19,-9,-48,-87
19,9,-9,-14,14,0,9,0,19,-9,-48,-87
19,19,0,-19,9,9,9,9,19,0,-39,-87
19,19,0,-19,9,9,9,9,19,0,-39,-87
19,19,0,-19,9,9,9,9,19,0,-39,-87
19,19,0,-19,9,9,9,9,19,0,-39,-87
29,29,0,-29,14,14,0,0,29,0,-39,-78
29,29,0,-29,14,14,0,0,29,0,-39,-78
29,29,0,-29,14,14,0,0,29,0,-39,-78
29,29,0,-29,14,14,0,0,29,0,-39,-78
19,14,-4,-17,12,4,0,-9,19,0,-39,-87
9,9,0,-9,4,4,0,-9,19,0,-39,-87
0,4,4,-2,-2,4,0,-9,19,0,-39,-87
-9,0,9,4,-9,4,0,-9,19,0,-39,-87
4,14,9,-9,-2,12,0,0,19,-9,-48,-87
9,19,9,-14,0,14,0,0,19,-9,-48,-87
14,24,9,-19,2,17,0,0,19,-9,-48,-87
19,29,9,-24,4,19,0,0,19,-9,-48,-87
29,29,0,-29,14,14,0,9,29,0,-39,-87
29,29,0,-29,14,14,0,9,29,0,-39,-87
29,29,0,-29,14,14,0,9,29,0,-39,-87
29,29,0,-29,14,14,0,9,29,0,-39,-87
19,29,9,-24,4,19,-9,0,19,0,-39,-78
19,29,9,-24,4,19,-9,0,19,0,-39,-78
19,29,9,-24,4,19,-9,0,19,0,-39,-78
19,29,9,-24,4,19,-9,0,19,0,-39,-78
14,19,4,-17,4,12,-9,-9,19,0,-48,-82
9,19,9,-14,0,14,-9,-9,19,0,-48,-87
4,19,14,-12,-4,17,-9,-9,19,0,-48,-92
0,19,19,-9,-9,19,-9,-9,19,0,-48,-97
4,29,24,-17,-9,26,0,0,29,0,-39,-87
9,29,19,-19,-4,24,0,0,29,0,-39,-87
14,29,14,-21,0,21,0,0,29,0,-39,-87
19,29,9,-24,4,19,0,0,29,0,-39,-87
9,19,9,-14,0,14,9,0,19,0,-48,-97
9,19,9,-14,0,14,9,0,19,0,-48,-97
9,19,9,-14,0,14,9,0,19,0,-48,-97
9,19,9,-14,0,14,9,0,19,0,-48,-97
0,9,9,-4,-4,9,9,9,9,-9,-48,-97
0,9,9,-4,-4,9,9,9,9,-9,-48,-97
0,9,9,-4,-4,9,9,9,9,-9,-48,-97
0,9,9,-4,-4,9,9,9,9,-9,-48,-97
4,14,9,-9,-2,12,9,0,9,-9,-58,-107
9,19,9,-14,0,14,9,0,9,-9,-58,-107
14,24,9,-19,2,17,9,0,9,-9,-58,-107
19,29,9,-24,4,19,9,0,9,-9,-58,-107
19,19,0,-19,9,9,19,0,0,-9,-48,-97
19,19,0,-19,9,9,19,0,0,-9,-48,-97
19,19,0,-19,9,9,19,0,0,-9,-48,-97
19,19,0,-19,9,9,19,0,0,-9,-48,-97
19,19,0,-19,9,9,19,9,0,-9,-53,-97
19,19,0,-19,9,9,19,9,0,-9,-58,-97
19,19,0,-19,9,9,19,9,0,-9,-63,-97
19,19,0,-19,9,9,19,9,0,-9,-68,-97
4,4,0,-4,2,2,9,4,-9,-14,-68,-112
0,0,0,0,0,0,9,0,-9,-19,-68,-117
-4,-4,0,4,-2,-2,9,-4,-9,-24,-68,-122
-9,-9,0,9,-4,-4,9,-9,-9,-29,-68,-126
-4,-4,0,4,-2,-2,19,-4,0,-29,-68,-122
0,0,0,0,0,0,19,0,0,-29,-68,-117
4,4,0,-4,2,2,19,4,0,-29,-68,-112
9,9,0,-9,4,4,19,9,0,-29,-68,-107
9,0,-9,-4,9,-4,19,9,9,-24,-58,-107
9,0,-9,-4,9,-4,19,9,9,-19,-58,-107
9,0,-9,-4,9,-4,19,9,9,-14,-58,-107
9,0,-9,-4,9,-4,19,9,9,-9,-58,-107
24,14,-9,-19,17,2,19,9,9,-19,-58,-97
29,19,-9,-24,19,4,19,9,9,-19,-58,-97
34,24,-9,-29,21,7,19,9,9,-19,-58,-97
39,29,-9,-34,24,9,19,9,9,-19,-58,-97
24,19,-4,-21,14,7,19,9,9,-14,-58,-107
14,0,-14,-7,14,-7,19,14,9,-19,-63,-107
0,-4,-4,2,2,-4,9,14,9,-24,-68,-107
-4,-9,-4,7,0,-7,9,14,4,-24,-68,-107
9,9,0,-9,4,4,14,14,14,-9,-58,-92
9,0,-9,-4,9,-4,14,14,14,-4,-53,-92
9,4,-4,-7,7,0,14,14,14,-4,-48,-92
9,19,9,-14,0,14,19,19,14,-4,-43,-92
24,39,14,-31,4,26,9,19,19,-4,-43,-97
24,24,0,-24,12,12,9,19,19,-4,-43,-97
19,14,-4,-17,12,4,9,14,19,-4,-43,-107
19,29,9,-24,4,19,4,9,19,-4,-43,-107
4,19,14,-12,-4,17,14,0,19,-4,-53,-107
0,9,9,-4,-4,9,14,4,19,-4,-53,-107
-9,9,19,0,-14,14,14,4,19,-4,-53,-107
-14,9,24,2,-19,17,14,4,19,-4,-48,-107
4,19,14,-12,-4,17,0,-4,14,-9,-48,-112
9,29,19,-19,-4,24,0,-4,14,-9,-48,-112
19,34,14,-26,2,24,4,-4,14,-4,-48,-102
24,39,14,-31,4,26,4,-4,19,-4,-48,-102
24,39,14,-31,4,26,14,4,29,4,-39,-97
24,39,14,-31,4,26,19,4,29,4,-43,-102
19,34,14,-26,2,24,19,4,19,-4,-48,-97
9,34,24,-21,-7,29,9,4,19,-4,-48,-92
0,24,24,-12,-12,24,4,0,19,0,-43,-97
4,24,19,-14,-7,21,4,0,19,4,-39,-97
9,24,14,-17,-2,19,0,4,19,4,-39,-92
9,24,14,-17,-2,19,-4,4,19,4,-48,-92
14,24,9,-19,2,17,4,14,24,4,-39,-82
14,24,9,-19,2,17,4,9,24,4,-34,-82
14,29,14,-21,0,21,4,9,24,0,-34,-82
29,48,19,-39,4,34,4,9,24,0,-34,-82
39,68,29,-53,4,48,9,14,24,0,-43,-73
48,73,24,-61,12,48,9,14,24,4,-43,-73
53,63,9,-58,21,36,9,14,24,14,-43,-78
29,48,19,-39,4,34,0,9,14,0,-48,-87
19,29,9,-24,4,19,0,0,4,-24,-53,-102
19,29,9,-24,4,19,4,0,9,-14,-53,-97
9,19,9,-14,0,14,9,0,9,-9,-58,-102
-4,19,24,-7,-14,21,9,0,9,-4,-63,-107
-4,19,24,-7,-14,21,0,4,14,-4,-53,-107
0,19,19,-9,-9,19,9,4,14,-4,-53,-107
4,19,14,-12,-4,17,9,4,14,-4,-53,-107
14,24,9,-19,2,17,4,4,14,-4,-53,-107
4,24,19,-14,-7,21,-4,-4,4,0,-48,-92
4,24,19,-14,-7,21,-4,-4,4,0,-48,-92
0,24,24,-12,-12,24,-4,-4,4,-9,-53,-97
0,24,24,-12,-12,24,0,-4,4,-9,-53,-97
9,14,4,-12,2,9,0,-4,9,0,-63,-92
9,14,4,-12,2,9,0,-4,9,0,-58,-92
9,14,4,-12,2,9,0,-4,4,-4,-58,-97
4,14,9,-9,-2,12,-4,-9,4,-4,-63,-97
4,19,14,-12,-4,17,4,0,4,-14,-53,-107
19,24,4,-21,7,14,4,4,9,-14,-48,-102
24,24,0,-24,12,12,9,4,9,-9,-48,-92
24,24,0,-24,12,12,9,4,9,-4,-48,-92
14,24,9,-19,2,17,19,4,9,-4,-53,-102
24,29,4,-26,9,17,14,4,9,-9,-53,-102
39,48,9,-43,14,29,14,4,9,-9,-48,-102
53,53,0,-53,26,26,14,4,9,-9,-48,-107
34,39,4,-36,14,21,9,-9,-4,-14,-58,-112
19,14,-4,-17,12,4,0,-9,-4,-14,-58,-112
4,4,0,-4,2,2,-4,-9,-4,-14,-58,-107
-4,0,4,2,-4,2,-4,0,4,-9,-58,-102
19,14,-4,-17,12,4,9,4,14,-9,-48,-92
24,14,-9,-19,17,2,9,0,14,-9,-48,-92
29,14,-14,-21,21,0,14,4,14,-9,-43,-92
34,14,-19,-24,26,-2,19,9,14,-9,-43,-92
29,24,-4,-26,17,9,19,0,4,-9,-53,-102
14,19,4,-17,4,12,14,0,4,-9,-53,-102
9,19,9,-14,0,14,4,0,4,-9,-53,-102
4,9,4,-7,0,7,0,0,4,-14,-63,-97
9,29,19,-19,-4,24,0,4,19,-14,-43,-87
9,29,19,-19,-4,24,0,4,19,-4,-39,-87
4,24,19,-14,-7,21,-4,0,9,-4,-39,-87
4,24,19,-14,-7,21,-4,0,9,-4,-39,-87
14,24,9,-19,2,17,0,0,24,4,-39,-87
29,43,14,-36,7,29,0,4,34,19,-29,-78
39,53,14,-46,12,34,-4,4,34,24,-24,-78
19,39,19,-29,0,29,-4,4,34,24,-19,-68
24,39,14,-31,4,26,4,24,53,34,9,-43
34,48,14,-41,9,31,9,14,58,43,24,-24
43,34,-9,-39,26,12,9,14,63,53,39,-24
34,14,-19,-24,26,-2,19,34,68,73,53,-19
53,29,-24,-41,39,2,19,53,102,131,102,0
82,43,-39,-63,61,2,9,87,151,229,175,19
117,53,-63,-85,90,-4,9,122,234,341,287,78
136,97,-39,-117,87,29,-4,117,307,488,448,180
136,185,48,-161,43,117,-34,78,375,634,639,322
161,278,117,-219,21,197,-73,53,458,805,834,473
185,380,195,-283,-4,287,-117,19,561,961,1019,624
204,488,283,-346,-39,385,-175,-14,653,1122,1215,800
224,585,361,-405,-68,473,-229,-48,741,1263,1395,1000
268,688,419,-478,-75,553,-268,-68,785,1342,1590,1244
326,824,497,-575,-85,661,-326,-112,785,1361,1776,1556
385,980,595,-683,-104,788,-385,-180,756,1337,1947,1922
356,1044,688,-700,-165,866,-453,-292,649,1185,2020,2220
278,1034,756,-656,-239,895,-551,-448,453,932,2005,2483
273,1093,819,-683,-273,956,-605,-590,239,683,2010,2801
292,1190,897,-741,-302,1044,-624,-673,82,473,2069,3128
253,1244,990,-749,-368,1117,-644,-727,-24,317,2127,3420
195,1298,1102,-746,-453,1200,-678,-795,-107,214,2239,3786
122,1444,1322,-783,-600,1383,-717,-858,-151,156,2415,4255
14,1644,1629,-829,-807,1637,-727,-946,-190,102,2581,4660
-107,1849,1956,-871,-1032,1903,-727,-1034,-224,43,2649,4845
-273,1947,2220,-836,-1246,2083,-717,-1102,-268,-82,2498,4645
-409,1922,2332,-756,-1371,2127,-702,-1132,-346,-297,2176,4162
-473,1859,2332,-692,-1403,2095,-668,-1166,-497,-507,1839,3669
-488,1722,2210,-617,-1349,1966,-624,-1176,-668,-727,1429,3098
-478,1498,1976,-509,-1227,1737,-575,-1137,-849,-1000,824,2259
-395,1234,1629,-419,-1012,1432,-458,-1000,-971,-1215,146,1337
-287,985,1273,-348,-780,1129,-307,-824,-985,-1356,-483,546
-375,605,980,-114,-678,793,-209,-697,-1063,-1561,-1176,-273
-561,165,727,197,-644,446,-175,-644,-1180,-1805,-1805,-976
-522,-19,502,270,-512,241,-112,-541,-1190,-1795,-1859,-1127
-341,-4,336,173,-339,165,-9,-409,-1098,-1600,-1537,-922
-317,-107,209,212,-263,51,48,-317,-1044,-1478,-1381,-858
-331,-244,87,287,-209,-78,82,-239,-966,-1366,-1327,-883
-283,-253,29,268,-156,-112,107,-185,-834,-1185,-1146,-795
-234,-224,9,229,-122,-107,102,-156,-727,-1015,-980,-688
-219,-253,-34,236,-92,-143,102,-107,-649,-868,-873,-629
-170,-258,-87,214,-41,-173,92,-68,-561,-736,-746,-575
-112,-219,-107,165,-2,-163,92,-34,-439,-600,-614,-512
-73,-175,-102,124,14,-139,102,9,-326,-473,-492,-439
-58,-156,-97,107,19,-126,92,19,-248,-375,-409,-385
-53,-136,-82,95,14,-109,92,19,-190,-312,-351,-346
-48,-112,-63,80,7,-87,87,24,-151,-258,-317,-317
-24,-82,-58,53,17,-70,73,24,-117,-200,-268,-273
4,-43,-48,19,26,-46,63,24,-82,-151,-219,-244
24,-24,-48,0,36,-36,63,34,-53,-112,-195,-234
14,-43,-58,14,36,-51,48,34,-43,-102,-185,-244
4,-63,-68,29,36,-65,48,43,-34,-97,-175,-248
4,-53,-58,24,31,-56,58,53,-14,-87,-161,-239
4,-53,-58,24,31,-56,63,53,-14,-87,-156,-239
0,-53,-53,26,26,-53,68,48,-14,-87,-156,-239
-9,-73,-63,41,26,-68,68,43,-19,-82,-161,-239
0,-58,-58,29,29,-58,68,43,-9,-78,-151,-234
4,-63,-68,29,36,-65,73,43,-4,-58,-141,-229
24,-48,-73,12,48,-61,73,58,9,-39,-126,-224
29,-43,-73,7,51,-58,78,63,24,-24,-126,-219
14,-48,-63,17,39,-56,68,73,14,-43,-122,-224
14,-53,-68,19,41,-61,68,73,14,-48,-122,-229
9,-48,-58,19,34,-53,73,73,9,-53,-126,-229
4,-53,-58,24,31,-56,73,68,9,-53,-126,-234
4,-53,-58,24,31,-56,68,58,9,-39,-117,-229
4,-48,-53,21,29,-51,68,58,14,-29,-117,-224
14,-43,-58,14,36,-51,68,63,24,-24,-112,-219
14,-43,-58,14,36,-51,73,73,29,-24,-112,-209
24,-48,-73,12,48,-61,73,82,34,-29,-112,-219
19,-48,-68,14,43,-58,68,82,34,-29,-112,-224
19,-43,-63,12,41,-53,68,78,24,-34,-122,-224
19,-39,-58,9,39,-48,68,78,19,-39,-122,-229
19,-29,-48,4,34,-39,78,68,24,-29,-117,-234
19,-43,-63,12,41,-53,78,68,24,-29,-117,-234
19,-43,-63,12,41,-53,78,73,29,-29,-107,-229
29,-39,-68,4,48,-53,82,73,39,-19,-107,-229
19,-48,-68,14,43,-58,73,73,39,-19,-107,-234
19,-53,-73,17,46,-63,73,78,39,-24,-107,-234
19,-53,-73,17,46,-63,73,78,39,-29,-117,-234
19,-58,-78,19,48,-68,73,73,29,-43,-122,-244
4,-58,-63,26,34,-61,63,73,29,-43,-131,-244
9,-58,-68,24,39,-63,63,68,29,-34,-131,-248
4,-58,-63,26,34,-61,68,68,29,-34,-131,-248
0,-63,-63,31,31,-63,68,73,39,-24,-131,-248
14,-53,-68,19,41,-61,68,82,39,-14,-126,-244
24,-53,-78,14,51,-65,68,82,39,-14,-122,-239
29,-53,-82,12,56,-68,73,82,34,-24,-122,-239
24,-53,-78,14,51,-65,73,82,29,-29,-117,-239
9,-63,-73,26,41,-68,63,73,14,-48,-136,-253
14,-63,-78,24,46,-70,63,73,14,-48,-136,-253
9,-63,-73,26,41,-68,63,73,24,-39,-131,-248
4,-63,-68,29,36,-65,68,73,24,-29,-131,-248
14,-73,-87,29,51,-80,78,82,24,-29,-136,-258
14,-78,-92,31,53,-85,78,82,24,-29,-141,-263
9,-78,-87,34,48,-82,78,87,19,-39,-146,-268
9,-73,-82,31,46,-78,78,87,19,-53,-151,-268
0,-82,-82,41,41,-82,78,82,19,-53,-161,-283
0,-92,-92,46,46,-92,78,82,9,-58,-165,-287
0,-97,-97,48,48,-97,82,82,9,-58,-170,-287
0,-97,-97,48,48,-97,82,87,14,-58,-170,-287
4,-97,-102,46,53,-100,92,102,14,-58,-161,-283
9,-102,-112,46,61,-107,97,107,14,-53,-165,-287
14,-87,-102,36,58,-95,97,107,14,-48,-165,-292
29,-73,-102,21,65,-87,102,107,14,-48,-165,-297
29,-82,-112,26,70,-97,102,102,24,-43,-165,-302
24,-82,-107,29,65,-95,102,102,14,-63,-185,-307
24,-92,-117,34,70,-104,102,102,14,-73,-185,-307
34,-92,-126,29,80,-109,112,112,19,-63,-185,-307
29,-97,-126,34,78,-112,112,112,19,-58,-185,-322
24,-112,-136,43,80,-124,112,107,14,-63,-190,-326
0,-122,-122,61,61,-122,112,107,9,-68,-195,-326
9,-126,-136,58,73,-131,112,112,4,-78,-195,-331
19,-126,-146,53,82,-136,117,112,4,-68,-195,-336
14,-131,-146,58,80,-139,117,112,0,-82,-200,-336
4,-141,-146,68,75,-143,117,112,-4,-82,-204,-336
24,-131,-156,53,90,-143,117,112,-9,-87,-204,-336
9,-141,-151,65,80,-146,112,112,-19,-97,-214,-356
0,-141,-141,70,70,-141,112,112,-9,-97,-224,-361
-4,-146,-141,75,68,-143,122,117,-9,-97,-229,-361
0,-151,-151,75,75,-151,122,117,-9,-92,-234,-366
-9,-165,-156,87,73,-161,122,122,-9,-97,-239,-370
-4,-180,-175,92,85,-178,122,122,-9,-112,-239,-375
4,-180,-185,87,95,-183,126,122,-14,-117,-244,-380
9,-175,-185,82,97,-180,126,122,-14,-122,-244,-380
0,-165,-165,82,82,-165,131,131,-4,-117,-239,-385
-4,-170,-165,87,80,-168,131,136,-4,-117,-244,-390
-4,-175,-170,90,82,-173,131,136,-4,-126,-258,-400
0,-180,-180,90,90,-180,131,136,-4,-122,-258,-400
19,-170,-190,75,104,-180,146,146,-4,-117,-268,-395
19,-175,-195,78,107,-185,146,146,-4,-117,-263,-395
0,-185,-185,92,92,-185,146,146,-4,-122,-263,-395
-9,-200,-190,104,90,-195,146,146,-4,-122,-273,-405
14,-195,-209,90,112,-202,146,146,4,-117,-273,-395
14,-180,-195,82,104,-187,151,146,4,-112,-268,-395
14,-175,-190,80,102,-183,151,151,4,-107,-263,-395
19,-180,-200,80,109,-190,151,151,0,-112,-268,-405
4,-190,-195,92,100,-192,146,151,0,-122,-283,-419
0,-200,-200,100,100,-200,146,151,0,-122,-287,-419
-14,-224,-209,119,97,-217,146,151,-4,-126,-287,-414
-9,-239,-229,124,109,-234,146,151,-4,-126,-287,-414
-9,-229,-219,119,104,-224,146,141,-9,-136,-292,-424
-4,-229,-224,117,109,-226,146,146,-9,-136,-292,-424
-4,-229,-224,117,109,-226,146,146,-9,-136,-297,-424
-4,-229,-224,117,109,-226,151,146,-9,-131,-297,-424
-4,-239,-234,122,114,-236,161,156,0,-122,-287,-429
-4,-239,-234,122,114,-236,161,156,-4,-136,-287,-429
-4,-239,-234,122,114,-236,156,151,-4,-136,-287,-405
-4,-244,-239,124,117,-241,151,151,-14,-136,-287,-395
4,-234,-239,114,122,-236,151,156,-9,-122,-283,-390
19,-219,-239,100,129,-229,156,156,0,-122,-273,-380
39,-209,-248,85,143,-229,156,156,4,-117,-263,-366
48,-195,-244,73,146,-219,151,156,4,-112,-258,-351
24,-209,-234,92,129,-222,136,136,-9,-122,-253,-346
14,-234,-248,109,131,-241,136,126,-9,-122,-248,-326
4,-239,-244,117,124,-241,136,126,-9,-122,-244,-307
-4,-244,-239,124,117,-241,122,117,-9,-122,-234,-283
-9,-244,-234,126,112,-239,117,117,-9,-117,-224,-263
-4,-229,-224,117,109,-226,117,112,-9,-117,-214,-239
-4,-224,-219,114,107,-222,107,97,-19,-117,-214,-224
-4,-219,-214,112,104,-217,102,87,-19,-117,-200,-200
9,-190,-200,90,104,-195,102,92,-9,-87,-175,-170
24,-175,-200,75,112,-187,102,92,-4,-78,-156,-146
39,-146,-185,53,112,-165,107,97,0,-68,-136,-117
53,-122,-175,34,114,-148,107,87,4,-58,-117,-82
34,-146,-180,56,107,-163,87,68,-4,-63,-117,-68
24,-141,-165,58,95,-153,73,53,-14,-68,-107,-53
14,-136,-151,61,82,-143,68,48,-24,-68,-92,-39
-14,-146,-131,80,58,-139,53,34,-34,-73,-92,-24
-14,-136,-122,75,53,-129,53,34,-29,-58,-63,0
-4,-122,-117,63,56,-119,48,24,-24,-53,-48,34
4,-102,-107,48,56,-104,39,19,-19,-43,-29,63
19,-92,-112,36,65,-102,34,14,-9,-34,-9,97
34,-73,-107,19,70,-90,24,4,-4,-24,9,126
43,-43,-87,0,65,-65,14,-4,0,-4,34,146
48,-14,-63,-17,56,-39,4,-9,0,0,43,170
63,9,-53,-36,58,-21,4,-9,14,0,68,195
58,19,-39,-39,48,-9,4,-24,19,24,82,219
