I,II,III,aVR,aVL,aVF,V1,V2,V3,V4,V5,V6
58,-29,-87,-14,73,-58,165,165,165,-97,-136,-48
58,-29,-87,-14,73,-58,165,165,165,-97,-136,-48
58,-29,-87,-14,73,-58,165,165,165,-97,-136,-48
58,-29,-87,-14,73,-58,165,165,165,-97,-136,-48
68,-34,-102,-17,85,-68,156,175,165,-87,-126,-48
68,-39,-107,-14,87,-73,156,175,165,-87,-126,-48
68,-43,-112,-12,90,-78,156,175,165,-87,-126,-48
68,-48,-117,-9,92,-82,156,175,165,-87,-126,-48
68,-43,-112,-12,90,-78,156,175,165,-87,-136,-58
68,-39,-107,-14,87,-73,156,175,165,-87,-136,-68
68,-34,-102,-17,85,-68,156,175,165,-87,-136,-78
68,-29,-97,-19,82,-63,156,175,165,-87,-136,-87
68,-29,-97,-19,82,-63,146,165,161,-78,-136,-87
68,-29,-97,-19,82,-63,146,165,156,-78,-136,-87
68,-29,-97,-19,82,-63,146,165,151,-78,-136,-87
68,-29,-97,-19,82,-63,146,165,146,-78,-136,-87
58,-29,-87,-14,73,-58,146,175,156,-73,-131,-82
58,-29,-87,-14,73,-58,146,175,156,-68,-126,-78
58,-29,-87,-14,73,-58,146,175,156,-63,-122,-73
58,-29,-87,-14,73,-58,146,175,156,-58,-117,-68
58,-29,-87,-14,73,-58,146,165,146,-48,-107,-63
58,-29,-87,-14,73,-58,146,165,146,-48,-107,-58
58,-29,-87,-14,73,-58,146,165,146,-48,-107,-53
58,-29,-87,-14,73,-58,146,165,146,-48,-107,-48
63,-19,-82,-21,73,-51,141,156,141,-48,-112,-48
68,-19,-87,-24,78,-53,136,156,136,-48,-117,-48
73,-19,-92,-26,82,-56,131,156,131,-48,-122,-48
78,-19,-97,-29,87,-58,126,156,126,-48,-126,-48
78,-9,-87,-34,82,-48,126,156,117,-39,-117,-39
78,-9,-87,-34,82,-48,126,156,117,-39,-117,-39
78,-9,-87,-34,82,-48,126,156,117,-39,-117,-39
78,-9,-87,-34,82,-48,126,156,117,-39,-117,-39
87,0,-87,-43,87,-43,117,151,107,-34,-107,-24
87,0,-87,-43,87,-43,117,146,107,-29,-97,-19
87,0,-87,-43,87,-43,117,141,107,-24,-87,-14
87,0,-87,-43,87,-43,117,136,107,-19,-78,-9
87,14,-73,-51,80,-29,112,131,102,-29,-78,-9
87,19,-68,-53,78,-24,107,126,97,-29,-78,-9
87,24,-63,-56,75,-19,102,122,92,-29,-78,-9
87,29,-58,-58,73,-14,97,117,87,-29,-78,-9
92,34,-58,-63,75,-12,92,107,82,-19,-73,-4
97,39,-58,-68,78,-9,87,107,78,-19,-68,0
102,43,-58,-73,80,-7,82,107,73,-19,-63,4
107,48,-58,-78,82,-4,78,107,68,-19,-58,9
107,63,-43,-85,75,9,68,102,63,-19,-53,14
107,68,-39,-87,73,14,68,97,58,-19,-48,19
107,73,-34,-90,70,19,68,92,53,-19,-43,24
107,78,-29,-92,68,24,68,87,48,-19,-39,29
117,97,-19,-107,68,39,53,73,48,-14,-34,39
117,107,-9,-112,63,48,48,68,48,-9,-29,48
117,117,0,-117,58,58,43,63,48,-4,-24,58
117,126,9,-122,53,68,39,58,48,0,-19,68
126,146,19,-136,53,82,34,48,39,0,-4,73
126,156,29,-141,48,92,29,48,39,0,0,78
126,165,39,-146,43,102,24,48,39,0,4,82
126,175,48,-151,39,112,19,48,39,0,9,87
126,180,53,-153,36,117,9,43,29,9,19,92
126,185,58,-156,34,122,9,39,29,9,19,97
126,190,63,-158,31,126,9,34,29,9,19,102
126,195,68,-161,29,131,9,29,29,9,19,107
117,204,87,-161,14,146,0,24,29,0,29,107
117,209,92,-163,12,151,-4,14,24,-4,29,107
117,214,97,-165,9,156,-4,4,19,-4,34,107
117,214,97,-165,9,156,-9,-4,14,-9,34,107
117,219,102,-168,7,161,-9,-4,0,-14,24,102
117,219,102,-168,7,161,-9,0,-4,-14,24,107
117,219,102,-168,7,161,-9,4,-4,-14,24,107
122,224,102,-173,9,163,-14,9,-4,-24,24,107
122,224,102,-173,9,163,-24,0,4,-24,24,107
126,224,97,-175,14,161,-24,0,-4,-29,19,107
126,224,97,-175,14,161,-24,0,-9,-34,19,107
126,219,92,-173,17,156,-24,-4,-9,-39,19,107
126,224,97,-175,14,161,-14,4,-4,-39,29,117
126,224,97,-175,14,161,-14,4,-9,-43,29,117
126,234,107,-180,9,170,-19,4,-14,-48,19,122
126,234,107,-180,9,170,-24,-4,-14,-48,19,122
136,239,102,-187,17,170,-24,-9,-24,-43,29,136
136,239,102,-187,17,170,-34,-9,-24,-48,29,136
136,244,107,-190,14,175,-34,-14,-34,-53,34,136
146,244,97,-195,24,170,-39,-19,-34,-53,34,141
165,253,87,-209,39,170,-43,-29,-24,-58,24,151
170,258,87,-214,41,173,-48,-29,-24,-63,24,156
175,258,82,-217,46,170,-48,-29,-24,-68,29,161
180,263,82,-222,48,173,-53,-19,-19,-78,29,161
180,263,82,-222,48,173,-53,-29,-29,-73,39,165
185,258,73,-222,56,165,-53,-24,-29,-73,39,170
190,258,68,-224,61,163,-48,-24,-29,-73,43,175
200,258,58,-229,70,158,-48,-14,-14,-78,43,180
200,248,48,-224,75,148,-53,-4,-14,-87,43,185
204,244,39,-224,82,141,-53,4,-14,-87,39,190
204,239,34,-222,85,136,-53,4,-9,-87,34,190
204,239,34,-222,85,136,-43,4,-9,-87,29,190
209,229,19,-219,95,124,-29,19,9,-92,34,175
200,224,24,-212,87,124,-24,19,14,-92,39,170
185,214,29,-200,78,122,-9,29,19,-92,39,170
161,204,43,-183,58,124,4,34,24,-97,29,151
136,195,58,-165,39,126,19,43,39,-102,29,146
122,185,63,-153,29,124,29,48,39,-102,19,131
107,161,53,-134,26,107,39,53,39,-102,4,131
97,151,53,-124,21,102,48,58,39,-107,-4,122
97,141,43,-119,26,92,58,63,34,-117,-24,122
87,141,53,-114,17,97,73,68,34,-122,-34,117
87,131,43,-109,21,87,78,68,39,-126,-34,112
87,122,34,-104,26,78,92,73,39,-126,-39,102
82,122,39,-102,21,80,78,68,29,-131,-58,97
82,112,29,-97,26,70,78,68,34,-131,-58,87
78,102,24,-90,26,63,78,73,43,-136,-68,68
78,92,14,-85,31,53,78,78,43,-136,-68,58
82,102,19,-92,31,61,97,82,39,-141,-78,68
82,102,19,-92,31,61,97,87,39,-146,-82,68
82,102,19,-92,31,61,97,92,39,-156,-82,68
82,97,14,-90,34,56,102,92,39,-161,-82,63
87,107,19,-97,34,63,97,92,43,-165,-82,63
87,107,19,-97,34,63,92,97,43,-161,-82,63
92,102,9,-97,41,56,97,97,48,-161,-82,63
92,102,9,-97,41,56,92,97,48,-161,-82,63
102,112,9,-107,46,61,102,92,53,-161,-92,58
102,112,9,-107,46,61,102,92,58,-161,-92,48
102,107,4,-104,48,56,102,92,58,-156,-92,43
102,107,4,-104,48,56,107,97,63,-156,-92,39
102,117,14,-109,43,65,112,102,73,-151,-92,43
102,117,14,-109,43,65,117,107,73,-151,-92,43
107,117,9,-112,48,63,117,112,73,-151,-92,48
107,112,4,-109,51,58,122,117,78,-146,-87,53
117,102,-14,-109,65,43,112,117,68,-146,-78,68
117,102,-14,-109,65,43,117,117,68,-146,-78,68
117,102,-14,-109,65,43,122,122,78,-136,-78,68
117,102,-14,-109,65,43,122,122,78,-136,-78,68
107,112,4,-109,51,58,122,117,78,-146,-78,58
102,112,9,-107,46,61,122,112,82,-141,-78,53
102,112,9,-107,46,61,122,112,82,-141,-78,53
107,112,4,-109,51,58,122,107,87,-136,-78,53
107,122,14,-114,46,68,112,117,87,-126,-73,53
107,122,14,-114,46,68,112,117,82,-126,-73,58
107,126,19,-117,43,73,112,117,82,-122,-73,58
107,126,19,-117,43,73,107,117,87,-122,-73,58
107,126,19,-117,43,73,117,117,97,-126,-82,68
117,126,9,-122,53,68,117,126,97,-126,-82,68
126,117,-9,-122,68,53,126,126,97,-122,-78,78
136,117,-19,-126,78,48,126,126,107,-107,-63,78
136,117,-19,-126,78,48,126,136,117,-102,-58,73
136,112,-24,-124,80,43,126,141,141,-87,-53,73
141,112,-29,-126,85,41,136,156,165,-68,-39,73
141,112,-29,-126,85,41,146,165,204,-29,-19,73
151,117,-34,-134,92,41,161,180,268,19,-9,73
151,117,-34,-134,92,41,161,204,356,87,9,73
151,131,-19,-141,85,56,170,244,483,185,43,73
170,156,-14,-163,92,70,190,287,644,326,107,82
165,175,9,-170,78,92,209,326,819,483,165,97
156,190,34,-173,61,112,219,346,932,629,239,122
156,209,53,-183,51,131,209,346,990,780,326,146
165,253,87,-209,39,170,190,326,985,922,405,170
185,302,117,-244,34,209,180,312,966,1039,488,214
200,370,170,-285,14,270,151,287,966,1205,590,278
248,444,195,-346,26,319,82,244,941,1376,722,361
302,546,244,-424,29,395,0,180,883,1586,883,463
356,644,287,-500,34,466,-92,112,819,1810,1068,570
395,746,351,-570,21,549,-200,29,736,2015,1249,668
439,839,400,-639,19,619,-302,-48,649,2200,1429,780
473,941,468,-707,2,705,-395,-117,580,2425,1629,873
497,1049,551,-773,-26,800,-478,-214,434,2566,1800,966
478,1171,692,-824,-107,932,-570,-356,146,2532,1859,1049
429,1288,858,-858,-214,1073,-639,-536,-234,2376,1844,1102
370,1351,980,-861,-305,1166,-688,-697,-653,2088,1776,1127
322,1395,1073,-858,-375,1234,-732,-844,-1098,1586,1605,1137
263,1415,1151,-839,-444,1283,-756,-951,-1517,814,1307,1107
200,1366,1166,-783,-483,1266,-756,-1010,-1878,-112,902,1034
151,1254,1102,-702,-475,1178,-702,-990,-2078,-878,507,917
122,1024,902,-573,-390,963,-590,-888,-2059,-1307,190,771
117,727,610,-422,-246,668,-444,-707,-1908,-1522,-73,580
97,527,429,-312,-165,478,-322,-566,-1737,-1634,-283,439
73,444,370,-258,-148,407,-258,-473,-1527,-1576,-380,375
92,390,297,-241,-102,344,-190,-375,-1268,-1366,-341,336
131,331,200,-231,-34,265,-146,-263,-1019,-1180,-297,312
131,307,175,-219,-21,241,-97,-170,-805,-1005,-287,268
122,268,146,-195,-12,207,-43,-82,-580,-834,-292,180
107,224,117,-165,-4,170,19,-9,-370,-658,-292,87
102,204,102,-153,0,153,68,39,-209,-512,-263,29
102,195,92,-148,4,143,92,68,-112,-395,-224,9
117,195,78,-156,19,136,82,73,-63,-317,-195,14
117,195,78,-156,19,136,87,73,-24,-278,-170,14
117,190,73,-153,21,131,92,82,4,-253,-161,19
117,190,73,-153,21,131,112,107,34,-248,-151,29
122,185,63,-153,29,124,122,117,53,-244,-151,34
136,185,48,-161,43,117,117,117,78,-234,-141,53
151,175,24,-163,63,100,107,126,82,-209,-131,53
165,175,9,-170,78,92,107,122,92,-200,-122,34
170,175,4,-173,82,90,102,117,82,-190,-122,34
165,165,0,-165,82,82,112,117,102,-170,-107,34
161,165,4,-163,78,85,117,126,112,-165,-107,34
156,165,9,-161,73,87,122,136,117,-165,-107,34
151,165,14,-158,68,90,122,136,122,-165,-102,34
141,175,34,-158,53,104,122,126,136,-151,-97,34
141,175,34,-158,53,104,122,126,136,-151,-92,39
141,175,34,-158,53,104,117,126,136,-151,-87,39
141,175,34,-158,53,104,117,131,136,-146,-78,39
156,185,29,-170,63,107,117,141,141,-126,-82,39
156,180,24,-168,65,102,117,141,141,-126,-82,39
156,180,24,-168,65,102,117,146,146,-126,-82,39
156,180,24,-168,65,102,122,146,151,-122,-87,39
151,180,29,-165,61,104,131,146,151,-122,-92,48
146,180,34,-163,56,107,131,146,151,-117,-92,48
141,180,39,-161,51,109,126,146,151,-117,-92,53
141,180,39,-161,51,109,126,146,151,-112,-87,53
151,180,29,-165,61,104,126,146,151,-112,-97,43
151,180,29,-165,61,104,126,146,151,-107,-97,43
151,180,29,-165,61,104,126,151,156,-107,-97,43
151,180,29,-165,61,104,126,151,156,-107,-97,43
165,190,24,-178,70,107,126,146,156,-107,-97,43
170,185,14,-178,78,100,126,146,156,-107,-97,34
170,185,14,-178,78,100,126,146,156,-107,-92,34
170,185,14,-178,78,100,126,151,156,-107,-92,34
170,185,14,-178,78,100,126,151,146,-107,-97,34
170,185,14,-178,78,100,126,151,146,-102,-97,34
170,185,14,-178,78,100,126,151,146,-102,-97,29
170,185,14,-178,78,100,126,151,151,-102,-102,29
180,185,4,-183,87,95,117,151,151,-92,-92,19
185,185,0,-185,92,92,117,151,151,-92,-87,19
185,185,0,-185,92,92,117,151,151,-87,-87,14
180,185,4,-183,87,95,117,151,151,-82,-87,9
151,156,4,-153,73,80,107,141,141,-97,-92,-9
117,126,9,-122,53,68,92,131,131,-102,-102,-19
87,92,4,-90,41,48,78,122,122,-112,-117,-29
58,58,0,-58,29,29,63,112,112,-117,-126,-39
24,19,-4,-21,14,7,53,97,92,-136,-141,-63
-4,-14,-9,9,2,-12,43,87,82,-136,-151,-73
-39,-43,-4,41,-17,-24,34,82,73,-146,-161,-82
-78,-73,4,75,-41,-34,24,68,63,-151,-170,-97
-87,-82,4,85,-46,-39,24,68,63,-151,-161,-87
-82,-82,0,82,-41,-41,24,68,63,-151,-161,-92
-78,-82,-4,80,-36,-43,24,68,63,-146,-161,-102
-78,-82,-4,80,-36,-43,24,68,63,-141,-161,-102
-82,-92,-9,87,-36,-51,14,68,53,-131,-161,-112
-82,-92,-9,87,-36,-51,14,68,53,-131,-161,-112
-82,-97,-14,90,-34,-56,14,68,53,-126,-161,-112
-82,-97,-14,90,-34,-56,14,68,53,-122,-161,-112
-82,-87,-4,85,-39,-46,14,68,53,-117,-151,-112
-82,-82,0,82,-41,-41,14,63,53,-112,-151,-112
-82,-82,0,82,-41,-41,14,63,53,-107,-146,-112
-82,-82,0,82,-41,-41,14,63,48,-107,-141,-112
-87,-82,4,85,-46,-39,4,58,48,-92,-141,-112
-87,-78,9,82,-48,-34,4,58,39,-87,-141,-112
-82,-78,4,80,-43,-36,4,53,39,-87,-136,-107
-82,-78,4,80,-43,-36,0,53,39,-82,-131,-107
-82,-78,4,80,-43,-36,0,53,29,-78,-141,-117
-82,-78,4,80,-43,-36,-4,48,29,-73,-141,-112
-82,-73,9,78,-46,-31,-9,39,29,-68,-136,-102
-82,-68,14,75,-48,-26,-19,39,19,-63,-136,-102
-73,-53,19,63,-46,-17,-19,29,24,-73,-136,-92
-73,-53,19,63,-46,-17,-19,29,19,-68,-131,-92
-73,-48,24,61,-48,-12,-19,29,19,-68,-131,-92
-73,-48,24,61,-48,-12,-24,19,19,-73,-131,-92
-73,-43,29,58,-51,-7,-29,24,4,-68,-122,-97
-73,-39,34,56,-53,-2,-29,19,4,-63,-122,-87
-73,-34,39,53,-56,2,-34,14,0,-58,-117,-87
-68,-34,34,51,-51,0,-34,14,0,-58,-117,-87
-58,-19,39,39,-48,9,-34,4,-4,-68,-117,-87
-58,-14,43,36,-51,14,-39,0,-9,-68,-107,-78
-58,-9,48,34,-53,19,-43,0,-14,-68,-107,-73
-58,-4,53,31,-56,24,-48,-4,-14,-73,-107,-68
-68,-4,63,36,-65,29,-58,-9,-29,-73,-117,-68
-63,0,63,31,-63,31,-63,-14,-29,-68,-107,-68
-63,4,68,29,-65,36,-68,-19,-34,-63,-102,-68
-63,14,78,24,-70,46,-73,-24,-34,-58,-97,-68
-58,14,73,21,-65,43,-73,-19,-39,-53,-82,-73
-58,34,92,12,-75,63,-78,-29,-43,-48,-73,-63
-58,39,97,9,-78,68,-78,-34,-48,-53,-73,-53
-58,53,112,2,-85,82,-82,-48,-48,-58,-63,-48
-53,68,122,-7,-87,95,-97,-53,-53,-48,-68,-53
-53,78,131,-12,-92,104,-97,-53,-58,-48,-68,-43
-48,82,131,-17,-90,107,-97,-53,-58,-48,-73,-43
-48,92,141,-21,-95,117,-97,-58,-53,-48,-73,-39
-48,97,146,-24,-97,122,-112,-63,-53,-48,-78,-39
-48,107,156,-29,-102,131,-107,-68,-53,-48,-63,-34
-58,112,170,-26,-114,141,-102,-68,-58,-48,-63,-24
-58,117,175,-29,-117,146,-107,-78,-68,-48,-58,-19
-58,131,190,-36,-124,161,-117,-87,-68,-53,-68,-29
-58,136,195,-39,-126,165,-117,-87,-68,-58,-68,-29
-58,141,200,-41,-129,170,-117,-87,-68,-63,-68,-29
-58,146,204,-43,-131,175,-117,-87,-68,-68,-68,-29
-48,151,200,-51,-124,175,-112,-92,-73,-73,-68,-29
-48,156,204,-53,-126,180,-112,-97,-78,-73,-63,-29
-48,156,204,-53,-126,180,-117,-102,-82,-78,-63,-29
-48,161,209,-56,-129,185,-117,-107,-87,-82,-63,-24
-48,161,209,-56,-129,185,-126,-107,-82,-82,-73,-29
-48,161,209,-56,-129,185,-126,-107,-82,-82,-73,-29
-43,165,209,-61,-126,187,-131,-107,-82,-92,-73,-29
-43,165,209,-61,-126,187,-131,-107,-82,-92,-73,-29
-48,156,204,-53,-126,180,-122,-107,-92,-107,-87,-39
-48,156,204,-53,-126,180,-122,-107,-97,-112,-87,-39
-48,151,200,-51,-124,175,-122,-112,-97,-117,-87,-39
-48,146,195,-48,-122,170,-122,-112,-102,-126,-87,-39
-39,136,175,-48,-107,156,-112,-102,-107,-131,-78,-48
-39,146,185,-53,-112,165,-117,-102,-112,-136,-87,-43
-39,146,185,-53,-112,165,-122,-112,-112,-136,-87,-43
-39,151,190,-56,-114,170,-122,-117,-112,-141,-87,-39
-48,151,200,-51,-124,175,-141,-117,-102,-136,-87,-39
-48,156,204,-53,-126,180,-141,-122,-112,-141,-82,-39
-39,156,195,-58,-117,175,-146,-126,-112,-141,-82,-34
-29,161,190,-65,-109,175,-151,-126,-112,-141,-82,-24
-34,151,185,-58,-109,168,-151,-126,-112,-131,-73,-24
-29,146,175,-58,-102,161,-146,-126,-112,-131,-68,-24
-24,146,170,-61,-97,158,-146,-117,-107,-136,-68,-29
-19,146,165,-63,-92,156,-141,-117,-107,-141,-68,-29
-9,141,151,-65,-80,146,-146,-112,-107,-151,-73,-24
0,141,141,-70,-70,141,-146,-112,-107,-151,-73,-19
14,141,126,-78,-56,134,-151,-102,-92,-156,-78,-14
24,141,117,-82,-46,129,-156,-92,-92,-156,-78,-9
34,136,102,-85,-34,119,-151,-82,-102,-156,-78,4
39,131,92,-85,-26,112,-146,-82,-97,-156,-78,4
43,131,87,-87,-21,109,-131,-82,-97,-156,-78,4
43,131,87,-87,-21,109,-126,-78,-87,-151,-78,0
43,136,92,-90,-24,114,-112,-68,-78,-146,-68,4
29,126,97,-78,-34,112,-97,-58,-68,-141,-73,4
4,117,112,-61,-53,114,-82,-53,-58,-141,-87,-14
-9,107,117,-48,-63,112,-68,-53,-48,-146,-97,-24
-29,87,117,-29,-73,102,-68,-48,-39,-141,-97,-43
-48,63,112,-7,-80,87,-58,-43,-39,-146,-112,-48
-63,53,117,4,-90,85,-48,-39,-39,-156,-122,-63
-68,43,112,12,-90,78,-43,-34,-43,-165,-131,-73
-78,34,112,21,-95,73,-29,-29,-43,-170,-136,-87
-78,24,102,26,-90,63,-24,-29,-39,-175,-131,-92
-78,14,92,31,-85,53,-9,-24,-39,-175,-131,-102
-82,14,97,34,-90,56,-4,-19,-39,-180,-136,-102
-82,14,97,34,-90,56,0,-19,-43,-180,-136,-107
-87,4,92,41,-90,48,4,-14,-34,-185,-146,-122
-87,-4,82,46,-85,39,9,-9,-34,-185,-146,-126
-92,-4,87,48,-90,41,19,-4,-29,-185,-146,-126
-92,-9,82,51,-87,36,19,0,-19,-175,-151,-136
-92,-14,78,53,-85,31,19,4,-19,-180,-151,-136
-92,-24,68,58,-80,21,24,4,-19,-180,-151,-141
-97,-29,68,63,-82,19,24,4,-14,-175,-151,-141
-97,-29,68,63,-82,19,24,9,-4,-161,-146,-141
-92,-34,58,63,-75,12,34,9,0,-161,-141,-141
-92,-34,58,63,-75,12,34,9,0,-161,-136,-141
-92,-34,58,63,-75,12,34,14,4,-161,-131,-141
-92,-34,58,63,-75,12,34,24,9,-151,-131,-146
-92,-39,53,65,-73,7,34,24,9,-146,-131,-146
-92,-39,53,65,-73,7,39,29,14,-146,-131,-146
-92,-39,53,65,-73,7,39,29,14,-141,-131,-146
-92,-39,53,65,-73,7,48,39,24,-131,-122,-151
-87,-39,48,63,-68,4,43,39,24,-131,-122,-151
-87,-43,43,65,-65,0,43,39,29,-126,-117,-151
-87,-43,43,65,-65,0,43,39,29,-126,-117,-146
-78,-34,43,56,-61,4,39,29,24,-136,-126,-146
-78,-34,43,56,-61,4,43,34,29,-126,-126,-146
-78,-34,43,56,-61,4,43,34,24,-126,-126,-146
-78,-34,43,56,-61,4,43,34,19,-126,-126,-146
-82,-43,39,63,-61,-2,53,34,29,-112,-117,-151
-82,-43,39,63,-61,-2,53,39,34,-112,-117,-151
-78,-43,34,61,-56,-4,53,39,43,-107,-117,-151
-78,-43,34,61,-56,-4,53,39,48,-107,-112,-151
-87,-34,53,61,-70,9,53,39,34,-107,-112,-146
-87,-29,58,58,-73,14,53,39,34,-102,-112,-146
-87,-29,58,58,-73,14,48,39,39,-102,-112,-146
-87,-29,58,58,-73,14,48,39,39,-97,-112,-146
-87,-19,68,53,-78,24,48,39,39,-107,-102,-156
-87,-19,68,53,-78,24,48,39,39,-92,-107,-156
-87,-19,68,53,-78,24,39,39,48,-87,-102,-156
-78,-19,58,48,-68,19,48,39,58,-82,-107,-161
-87,-14,73,51,-80,29,48,34,63,-78,-102,-161
-82,-14,68,48,-75,26,58,48,87,-68,-97,-161
-73,-14,58,43,-65,21,58,58,117,-29,-87,-161
-73,-9,63,41,-68,26,63,73,161,19,-58,-151
-63,0,63,31,-63,31,73,87,219,87,-29,-151
-63,-4,58,34,-61,26,73,117,317,165,-4,-151
-63,9,73,26,-68,41,92,141,458,268,19,-151
-58,29,87,14,-73,58,122,180,614,414,78,-136
-58,63,122,-2,-90,92,141,200,736,561,141,-131
-58,82,141,-12,-100,112,141,209,805,692,200,-126
-58,117,175,-29,-117,146,131,209,839,824,278,-102
-48,156,204,-53,-126,180,112,195,829,922,351,-58
-43,204,248,-80,-146,226,92,161,790,1029,434,4
-14,278,292,-131,-153,285,34,117,727,1171,536,68
29,361,331,-195,-151,346,-58,63,658,1322,668,151
73,439,366,-256,-146,402,-151,-4,585,1507,814,248
131,551,419,-341,-143,485,-239,-78,522,1712,995,356
185,653,468,-419,-141,561,-351,-156,434,1878,1166,468
219,746,527,-483,-153,636,-444,-234,356,2044,1337,570
244,824,580,-534,-168,702,-507,-292,258,2215,1498,663
253,927,673,-590,-209,800,-580,-385,39,2230,1625,766
234,1054,819,-644,-292,936,-668,-546,-312,2083,1649,849
195,1146,951,-671,-378,1049,-756,-717,-712,1844,1600,902
146,1190,1044,-668,-448,1117,-810,-863,-1127,1507,1498,932
107,1220,1112,-663,-502,1166,-844,-980,-1468,1019,1307,922
63,1229,1166,-646,-551,1198,-863,-1058,-1790,297,1000,878
4,1156,1151,-580,-573,1154,-858,-1098,-2088,-566,585,790
-43,1015,1058,-485,-551,1037,-785,-1054,-2215,-1210,209,683
-78,795,873,-358,-475,834,-649,-941,-2122,-1503,-53,551
-107,536,644,-214,-375,590,-497,-771,-1893,-1615,-283,380
-122,375,497,-126,-309,436,-395,-629,-1654,-1625,-448,258
-122,341,463,-109,-292,402,-336,-531,-1405,-1483,-478,190
-92,273,366,-90,-229,319,-283,-439,-1166,-1278,-424,156
-82,200,283,-58,-183,241,-214,-336,-941,-1093,-385,112
-92,161,253,-34,-173,207,-151,-248,-746,-932,-370,53
-97,117,214,-9,-156,165,-97,-185,-536,-756,-361,-39
-122,48,170,36,-146,109,-39,-117,-356,-600,-341,-146
-122,19,141,51,-131,80,4,-58,-209,-444,-312,-195
-126,9,136,58,-131,73,14,-34,-122,-336,-263,-209
-117,-9,107,63,-112,48,29,-14,-63,-268,-239,-209
-117,-24,92,70,-104,34,53,4,-34,-234,-229,-195
-117,-24,92,70,-104,34,63,19,-14,-219,-219,-195
-112,-19,92,65,-102,36,73,29,4,-214,-200,-200
-107,-19,87,63,-97,34,68,29,29,-204,-200,-200
-102,-19,82,61,-92,31,68,39,43,-200,-190,-200
-97,-29,68,63,-82,19,68,34,53,-180,-190,-200
-92,-29,63,61,-78,17,73,48,63,-161,-190,-200
-92,-34,58,63,-75,12,73,48,73,-131,-185,-200
-92,-39,53,65,-73,7,78,58,82,-126,-185,-200
-92,-43,48,68,-70,2,82,68,87,-126,-185,-200
-92,-48,43,70,-68,-2,82,68,92,-126,-180,-200
-92,-48,43,70,-68,-2,82,58,97,-126,-180,-209
-92,-48,43,70,-68,-2,82,58,97,-131,-180,-204
-92,-48,43,70,-68,-2,78,58,97,-136,-180,-204
-92,-48,43,70,-68,-2,78,63,97,-136,-175,-204
-87,-48,39,68,-63,-4,78,63,102,-117,-175,-204
-87,-53,34,70,-61,-9,78,63,102,-117,-170,-204
-87,-53,34,70,-61,-9,78,68,107,-117,-165,-204
-87,-53,34,70,-61,-9,82,68,112,-112,-165,-204
-78,-53,24,65,-51,-14,92,68,122,-112,-161,-204
-78,-53,24,65,-51,-14,92,68,122,-107,-161,-204
-78,-53,24,65,-51,-14,87,68,122,-107,-161,-200
-73,-53,19,63,-46,-17,87,68,122,-102,-156,-200
-82,-63,19,73,-51,-21,78,78,131,-102,-146,-200
-82,-63,19,73,-51,-21,78,78,131,-97,-146,-200
-82,-63,19,73,-51,-21,78,82,136,-97,-146,-200
-82,-63,19,73,-51,-21,78,82,136,-97,-146,-200
-78,-63,14,70,-46,-24,87,87,126,-87,-156,-200
-73,-68,4,70,-39,-31,87,87,126,-87,-156,-209
-73,-68,4,70,-39,-31,87,87,126,-87,-151,-209
-73,-68,4,70,-39,-31,87,92,126,-87,-151,-209
-73,-78,-4,75,-34,-41,87,87,126,-97,-161,-209
-73,-78,-4,75,-34,-41,87,82,126,-92,-165,-209
-73,-78,-4,75,-34,-41,87,78,126,-92,-170,-214
-73,-78,-4,75,-34,-41,87,73,131,-92,-180,-214
-73,-78,-4,75,-34,-41,87,82,131,-92,-170,-214
-68,-78,-9,73,-29,-43,87,82,131,-92,-165,-214
-68,-78,-9,73,-29,-43,87,82,131,-87,-165,-219
-73,-78,-4,75,-34,-41,87,82,131,-82,-165,-224
-63,-78,-14,70,-24,-46,92,92,141,-73,-151,-224
-68,-78,-9,73,-29,-43,92,92,141,-73,-151,-224
-68,-82,-14,75,-26,-48,92,92,141,-78,-156,-224
-68,-87,-19,78,-24,-53,92,92,141,-78,-156,-224
-68,-87,-19,78,-24,-53,92,82,141,-78,-161,-224
-63,-92,-29,78,-17,-61,92,87,141,-68,-161,-219
-63,-92,-29,78,-17,-61,92,97,141,-68,-161,-214
-68,-92,-24,80,-21,-58,92,97,141,-63,-161,-214
-58,-92,-34,75,-12,-63,102,107,131,-63,-161,-214
-53,-92,-39,73,-7,-65,102,107,131,-63,-161,-219
-48,-92,-43,70,-2,-68,102,107,131,-58,-161,-229
-48,-92,-43,70,-2,-68,102,107,131,-53,-161,-229
-53,-102,-48,78,-2,-75,92,107,131,-53,-151,-229
-53,-102,-48,78,-2,-75,92,107,131,-53,-151,-229
-53,-107,-53,80,0,-80,92,107,131,-48,-151,-229
-53,-107,-53,80,0,-80,92,107,131,-43,-151,-229
-63,-117,-53,90,-4,-85,92,107,131,-48,-141,-229
-63,-112,-48,87,-7,-80,92,102,131,-43,-141,-229
-63,-112,-48,87,-7,-80,92,102,131,-39,-136,-229
-63,-112,-48,87,-7,-80,92,102,126,-39,-131,-229
-58,-112,-53,85,-2,-82,92,107,136,-34,-131,-234
-58,-107,-48,82,-4,-78,92,107,126,-29,-131,-239
-53,-107,-53,80,0,-80,92,102,126,-29,-126,-239
-53,-107,-53,80,0,-80,87,102,126,-24,-122,-244
-43,-107,-63,75,9,-85,87,102,117,-29,-126,-239
-43,-107,-63,75,9,-85,82,97,117,-24,-131,-229
-43,-102,-58,73,7,-80,78,87,117,-19,-131,-214
-43,-97,-53,70,4,-75,68,87,107,-14,-136,-209
-43,-102,-58,73,7,-80,68,78,117,-14,-126,-200
-43,-102,-58,73,7,-80,68,78,107,-9,-122,-200
-43,-97,-53,70,4,-75,68,78,102,-9,-122,-200
-43,-97,-53,70,4,-75,63,68,97,-14,-122,-200
-53,-92,-39,73,-7,-65,68,73,102,-4,-112,-204
-53,-87,-34,70,-9,-61,68,68,102,-4,-112,-195
-53,-82,-29,68,-12,-56,63,63,97,-4,-107,-195
-48,-82,-34,65,-7,-58,63,63,97,-9,-107,-195
-39,-68,-29,53,-4,-48,63,63,82,-9,-107,-185
-39,-63,-24,51,-7,-43,58,58,78,-9,-97,-175
-39,-58,-19,48,-9,-39,53,58,73,-9,-97,-170
-39,-53,-14,46,-12,-34,48,53,73,-14,-97,-165
-29,-48,-19,39,-4,-34,48,48,58,-14,-87,-170
-24,-39,-14,31,-4,-26,43,43,58,-9,-78,-165
-24,-29,-4,26,-9,-17,39,39,53,-4,-73,-161
-24,-14,9,19,-17,-2,34,34,53,0,-68,-156
-19,4,24,7,-21,14,9,29,58,9,-63,-141
-19,24,43,-2,-31,34,0,19,53,19,-53,-131
-19,29,48,-4,-34,39,-4,14,48,19,-53,-122
-19,43,63,-12,-41,53,-14,0,48,19,-43,-117
-24,39,63,-7,-43,51,-9,4,43,29,-24,-112
-24,48,73,-12,-48,61,-9,-4,48,29,-29,-112
-19,63,82,-21,-51,73,-9,-4,39,29,-29,-112
-19,68,87,-24,-53,78,-19,-9,39,29,-19,-107
-19,68,87,-24,-53,78,-29,-19,29,19,-29,-102
-19,68,87,-24,-53,78,-29,-19,29,19,-29,-97
-19,68,87,-24,-53,78,-29,-19,29,19,-29,-92
-19,68,87,-24,-53,78,-29,-19,29,19,-29,-87
-19,82,102,-31,-61,92,-34,-24,14,14,-19,-87
-19,87,107,-34,-63,97,-34,-29,9,14,-14,-87
-19,87,107,-34,-63,97,-39,-34,4,9,-14,-87
-19,92,112,-36,-65,102,-39,-39,0,4,-14,-82
-19,102,122,-41,-70,112,-48,-48,-4,4,-14,-68
-19,102,122,-41,-70,112,-48,-48,-4,4,-14,-68
-14,107,122,-46,-68,114,-53,-48,-4,-4,-14,-68
-14,107,122,-46,-68,114,-53,-48,-4,-4,-14,-68
-9,97,107,-43,-58,102,-53,-48,-4,-9,-19,-68
-9,97,107,-43,-58,102,-53,-48,-9,-14,-19,-68
-9,92,102,-41,-56,97,-53,-53,-9,-19,-19,-68
-9,87,97,-39,-53,92,-53,-53,-14,-29,-19,-68
-9,87,97,-39,-53,92,-53,-53,-29,-24,-9,-58
-9,97,107,-43,-58,102,-58,-53,-34,-29,-19,-53
-9,97,107,-43,-58,102,-63,-63,-34,-29,-19,-53
-9,102,112,-46,-61,107,-63,-68,-34,-34,-19,-48
-9,102,112,-46,-61,107,-73,-68,-43,-34,-19,-58
-9,107,117,-48,-63,112,-73,-73,-53,-34,-14,-58
0,107,107,-53,-53,107,-78,-78,-53,-29,-14,-53
9,112,102,-61,-46,107,-82,-78,-53,-24,-14,-43
14,112,97,-63,-41,104,-87,-78,-43,-34,-24,-39
19,107,87,-63,-34,97,-87,-78,-43,-34,-19,-34
24,107,82,-65,-29,95,-92,-68,-39,-39,-19,-34
29,107,78,-68,-24,92,-92,-68,-39,-43,-19,-29
39,102,63,-70,-12,82,-102,-73,-48,-43,-19,-24
48,102,53,-75,-2,78,-97,-73,-48,-43,-14,-19
63,102,39,-82,12,70,-97,-63,-34,-48,-14,-14
73,102,29,-87,21,65,-97,-53,-34,-48,-9,-9
87,97,9,-92,39,53,-82,-34,-24,-48,0,4
87,92,4,-90,41,48,-78,-34,-19,-48,0,4
87,92,4,-90,41,48,-63,-34,-19,-48,0,4
82,92,9,-87,36,51,-58,-29,-9,-43,0,0
73,87,14,-80,29,51,-53,-29,-4,-39,9,-4
58,78,19,-68,19,48,-39,-19,0,-34,4,-4
34,68,34,-51,0,51,-24,-14,4,-34,-9,-24
19,58,39,-39,-9,48,-9,-14,9,-39,-19,-34
4,48,43,-26,-19,46,0,-9,9,-48,-39,-63
-9,24,34,-7,-21,29,9,-4,9,-58,-53,-68
-19,14,34,2,-26,24,19,0,9,-73,-63,-82
-19,4,24,7,-21,14,24,4,4,-87,-73,-92
-19,-4,14,12,-17,4,24,9,-4,-92,-78,-87
-19,-14,4,17,-12,-4,24,9,0,-97,-73,-92
-19,-24,-4,21,-7,-14,34,14,0,-97,-73,-102
-24,-24,0,24,-12,-12,34,19,0,-102,-78,-102
-24,-24,0,24,-12,-12,39,9,4,-112,-87,-107
-29,-34,-4,31,-12,-19,43,14,14,-117,-97,-122
-29,-43,-14,36,-7,-29,48,19,14,-117,-97,-126
-34,-43,-9,39,-12,-26,58,24,19,-117,-97,-126
-39,-43,-4,41,-17,-24,58,34,29,-126,-112,-117
-43,-43,0,43,-21,-21,58,43,29,-131,-112,-117
-48,-48,0,48,-24,-24,63,48,29,-131,-112,-122
-58,-48,9,53,-34,-19,63,53,34,-126,-112,-122
-58,-48,9,53,-34,-19,73,53,24,-122,-112,-122
-53,-53,0,53,-26,-26,82,48,29,-122,-112,-122
-53,-53,0,53,-26,-26,82,43,29,-122,-112,-122
-53,-53,0,53,-26,-26,82,43,34,-122,-112,-122
-53,-63,-9,58,-21,-36,92,43,39,-122,-122,-126
-53,-68,-14,61,-19,-41,92,43,39,-117,-122,-126
-53,-68,-14,61,-19,-41,97,48,43,-117,-122,-126
-53,-68,-14,61,-19,-41,97,48,43,-112,-122,-126
-53,-68,-14,61,-19,-41,87,58,43,-102,-112,-131
-48,-68,-19,58,-14,-43,82,58,43,-102,-112,-131
-48,-73,-24,61,-12,-48,82,58,48,-97,-107,-131
-48,-73,-24,61,-12,-48,82,58,48,-97,-107,-126
-48,-73,-24,61,-12,-48,97,58,58,-107,-117,-136
-48,-73,-24,61,-12,-48,102,63,68,-97,-117,-136
-48,-73,-24,61,-12,-48,102,63,68,-97,-117,-136
-48,-73,-24,61,-12,-48,102,63,68,-97,-117,-136
-43,-82,-39,63,-2,-61,102,73,73,-102,-126,-141
-43,-82,-39,63,-2,-61,102,78,73,-102,-126,-141
-39,-82,-43,61,2,-63,102,78,78,-97,-126,-141
-39,-82,-43,61,2,-63,102,78,78,-97,-122,-141
-39,-82,-43,61,2,-63,112,78,82,-87,-112,-136
-39,-78,-39,58,0,-58,112,78,82,-82,-112,-136
-39,-78,-39,58,0,-58,107,78,87,-82,-112,-136
-39,-78,-39,58,0,-58,107,78,87,-78,-112,-136
-39,-68,-29,53,-4,-48,107,78,78,-78,-102,-136
-39,-68,-29,53,-4,-48,107,78,87,-73,-107,-136
-39,-68,-29,53,-4,-48,107,87,97,-68,-102,-136
-39,-68,-29,53,-4,-48,107,87,97,-53,-87,-131
-29,-82,-53,56,12,-68,107,92,102,-48,-82,-131
-14,-82,-68,48,26,-75,107,97,126,-29,-78,-141
-14,-82,-68,48,26,-75,97,117,156,-9,-58,-141
-14,-78,-63,46,24,-70,102,122,180,9,-48,-141
-14,-68,-53,41,19,-61,112,126,248,68,-29,-141
-14,-73,-58,43,21,-65,131,146,336,156,-14,-141
-14,-58,-43,36,14,-51,151,180,439,248,9,-141
-9,-48,-39,29,14,-43,161,219,585,375,58,-136
-19,-24,-4,21,-7,-14,190,248,746,522,122,-131
-19,14,34,2,-26,24,209,268,873,673,200,-117
-9,58,68,-24,-39,63,190,258,907,814,287,-82
9,97,87,-53,-39,92,161,244,888,941,361,-39
14,136,122,-75,-53,129,131,209,849,1029,424,4
24,209,185,-117,-80,197,102,175,795,1161,517,78
58,283,224,-170,-82,253,19,112,717,1302,649,161
112,361,248,-236,-68,305,-82,43,624,1459,785,258
151,434,283,-292,-65,358,-180,-39,531,1625,936,346
195,527,331,-361,-68,429,-273,-107,424,1781,1098,458
248,629,380,-439,-65,505,-356,-175,356,1956,1268,570
292,727,434,-509,-70,580,-419,-244,268,2147,1459,673
302,819,517,-561,-107,668,-502,-346,58,2210,1595,775
292,927,634,-610,-170,780,-600,-488,-273,2083,1629,858
244,1029,785,-636,-270,907,-678,-639,-663,1864,1590,912
185,1073,888,-629,-351,980,-741,-785,-1088,1527,1478,932
136,1112,976,-624,-419,1044,-785,-912,-1468,1049,1307,941
92,1132,1039,-612,-473,1085,-795,-1010,-1781,346,1019,917
43,1078,1034,-561,-495,1056,-761,-1049,-2069,-527,605,839
4,946,941,-475,-468,944,-717,-1024,-2235,-1210,209,732
-29,746,775,-358,-402,761,-629,-922,-2161,-1532,-82,600
-48,488,536,-219,-292,512,-478,-751,-1942,-1654,-302,429
-63,307,370,-122,-217,339,-366,-619,-1703,-1673,-458,287
-82,253,336,-85,-209,295,-297,-522,-1473,-1542,-497,209
-63,204,268,-70,-165,236,-234,-429,-1195,-1307,-434,175
-24,131,156,-53,-90,143,-165,-317,-932,-1093,-375,141
-14,92,107,-39,-61,100,-122,-229,-727,-922,-361,92
-39,48,87,-4,-63,68,-68,-146,-536,-756,-361,9
-53,-9,43,31,-48,17,0,-68,-346,-580,-341,-87
-53,-29,24,41,-39,-2,43,-29,-200,-424,-292,-146
-58,-39,19,48,-39,-9,63,-14,-112,-307,-244,-170
-58,-68,-9,63,-24,-39,78,4,-63,-239,-229,-180
-48,-82,-34,65,-7,-58,102,43,4,-195,-200,-165
-29,-82,-53,56,12,-68,112,68,53,-170,-170,-156
-34,-87,-53,61,9,-70,122,78,73,-146,-161,-151
-39,-97,-58,68,9,-78,126,87,87,-146,-161,-151
-24,-87,-63,56,19,-75,126,87,92,-141,-151,-151
-19,-87,-68,53,24,-78,117,92,92,-131,-141,-161
-14,-97,-82,56,34,-90,122,97,92,-122,-141,-151
-24,-107,-82,65,29,-95,122,87,112,-102,-141,-151
-24,-107,-82,65,29,-95,126,97,122,-97,-146,-151
-24,-107,-82,65,29,-95,131,107,126,-97,-151,-151
-24,-107,-82,65,29,-95,131,107,131,-97,-151,-151
-24,-117,-92,70,34,-104,131,107,146,-92,-141,-161
-24,-117,-92,70,34,-104,131,107,146,-92,-141,-156
-24,-117,-92,70,34,-104,126,107,146,-92,-141,-156
-24,-117,-92,70,34,-104,126,112,146,-87,-136,-156
-29,-107,-78,68,24,-92,126,112,151,-68,-126,-156
-29,-112,-82,70,26,-97,126,112,151,-68,-122,-156
-29,-112,-82,70,26,-97,126,117,156,-68,-117,-156
-29,-112,-82,70,26,-97,131,117,161,-63,-117,-156
-29,-122,-92,75,31,-107,131,117,151,-73,-131,-165
-29,-122,-92,75,31,-107,131,117,151,-68,-131,-165
-29,-122,-92,75,31,-107,126,117,151,-68,-131,-161
-24,-122,-97,73,36,-109,126,117,151,-63,-126,-161
-24,-122,-97,73,36,-109,136,107,161,-63,-136,-161
-24,-122,-97,73,36,-109,136,107,161,-58,-136,-161
-24,-122,-97,73,36,-109,136,112,165,-58,-136,-161
-24,-122,-97,73,36,-109,136,112,165,-58,-136,-161
-19,-112,-92,65,36,-102,126,117,165,-48,-126,-151
-14,-117,-102,65,43,-109,126,117,165,-48,-126,-161
-14,-117,-102,65,43,-109,126,117,165,-48,-122,-161
-14,-117,-102,65,43,-109,126,122,165,-48,-122,-161
-14,-126,-112,70,48,-119,126,112,161,-48,-126,-151
-14,-126,-112,70,48,-119,126,112,156,-43,-126,-151
-14,-126,-112,70,48,-119,126,112,151,-43,-126,-156
-14,-126,-112,70,48,-119,126,112,151,-43,-131,-156
-14,-126,-112,70,48,-119,136,117,156,-43,-122,-156
-9,-126,-117,68,53,-122,136,122,161,-43,-117,-156
-9,-126,-117,68,53,-122,136,126,165,-39,-117,-161
-14,-126,-112,70,48,-119,136,131,170,-34,-117,-165
-9,-126,-117,68,53,-122,131,122,161,-34,-112,-156
-9,-126,-117,68,53,-122,131,122,161,-34,-112,-156
-4,-131,-126,68,61,-129,131,122,161,-39,-117,-156
0,-136,-136,68,68,-136,131,122,161,-39,-117,-156
-9,-136,-126,73,58,-131,141,122,161,-34,-112,-165
-4,-141,-136,73,65,-139,141,126,161,-19,-112,-161
-4,-141,-136,73,65,-139,141,136,161,-14,-112,-156
-9,-141,-131,75,61,-136,141,136,161,-4,-112,-156
-9,-141,-131,75,61,-136,141,146,170,-14,-112,-156
-4,-141,-136,73,65,-139,141,146,170,-14,-112,-161
0,-141,-141,70,70,-141,141,146,170,-9,-112,-170
0,-141,-141,70,70,-141,141,146,170,-4,-112,-170
-4,-141,-136,73,65,-139,131,136,161,-4,-102,-170
-4,-141,-136,73,65,-139,131,136,161,-4,-102,-170
-4,-146,-141,75,68,-143,131,136,161,0,-102,-170
-4,-146,-141,75,68,-143,131,136,161,4,-102,-170
-14,-156,-141,85,63,-148,141,136,170,19,-92,-161
-14,-151,-136,82,61,-143,141,131,170,24,-92,-161
-14,-151,-136,82,61,-143,141,131,170,29,-87,-161
-14,-151,-136,82,61,-143,141,131,165,29,-82,-161
-9,-161,-151,85,70,-156,131,136,165,24,-92,-161
-9,-156,-146,82,68,-151,131,136,156,29,-92,-161
-4,-156,-151,80,73,-153,131,131,156,29,-87,-156
-4,-156,-151,80,73,-153,126,131,156,34,-82,-156
0,-151,-151,75,75,-151,117,131,146,39,-92,-156
4,-146,-151,70,78,-148,112,126,146,43,-92,-151
9,-136,-146,63,78,-141,107,117,146,48,-87,-141
14,-126,-141,56,78,-134,97,117,136,53,-87,-141
14,-122,-136,53,75,-129,107,117,146,53,-87,-131
14,-122,-136,53,75,-129,107,117,136,58,-82,-131
14,-117,-131,51,73,-124,107,117,131,58,-82,-131
14,-117,-131,51,73,-124,102,107,126,53,-82,-131
24,-112,-136,43,80,-124,97,112,122,63,-78,-136
24,-107,-131,41,78,-119,97,107,122,63,-73,-126
24,-102,-126,39,75,-114,92,102,117,63,-63,-126
29,-102,-131,36,80,-117,92,102,117,58,-58,-126
29,-97,-126,34,78,-112,92,92,112,58,-58,-126
29,-92,-122,31,75,-107,87,87,107,58,-48,-117
29,-87,-117,29,73,-102,82,87,102,58,-48,-112
29,-82,-112,26,70,-97,78,82,102,53,-48,-107
29,-92,-122,31,75,-107,87,78,87,53,-48,-102
34,-87,-122,26,78,-104,82,73,87,58,-39,-97
34,-82,-117,24,75,-100,78,68,82,63,-34,-92
34,-73,-107,19,70,-90,73,63,82,68,-29,-87
39,-53,-92,7,65,-73,48,58,87,73,-34,-82
39,-34,-73,-2,56,-53,39,48,82,78,-24,-73
39,-29,-68,-4,53,-48,34,43,78,73,-24,-63
39,-14,-53,-12,46,-34,24,29,78,68,-14,-58
43,0,-43,-21,43,-21,9,14,73,78,-14,-63
43,9,-34,-26,39,-12,9,14,68,78,-9,-53
48,14,-34,-31,41,-9,9,14,68,78,-9,-53
48,24,-24,-36,36,0,9,9,73,78,-4,-48
48,29,-19,-39,34,4,14,14,63,78,9,-29
48,48,0,-48,24,24,19,9,63,78,4,-34
48,48,0,-48,24,24,9,9,58,68,9,-29
48,58,9,-53,19,34,4,4,53,68,0,-29
48,58,9,-53,19,34,0,0,48,68,0,-29
48,58,9,-53,19,34,-4,-4,43,68,0,-29
48,58,9,-53,19,34,-9,-9,39,68,0,-29
48,73,24,-61,12,48,-14,-14,43,58,-9,-19
48,78,29,-63,9,53,-14,-19,39,53,-4,-19
48,78,29,-63,9,53,-19,-24,34,43,-4,-19
48,82,34,-65,7,58,-19,-29,29,34,-4,-14
48,82,34,-65,7,58,-9,-19,24,43,-4,-19
48,82,34,-65,7,58,-9,-19,24,43,-4,-19
53,87,34,-70,9,61,-14,-19,24,34,-4,-19
53,87,34,-70,9,61,-14,-19,24,34,-4,-19
58,87,29,-73,14,58,-14,-19,24,39,0,-9
58,87,29,-73,14,58,-14,-19,19,34,0,-9
58,82,24,-70,17,53,-14,-24,19,29,0,-9
58,78,19,-68,19,48,-14,-24,14,19,0,-9
63,82,19,-73,21,51,-24,-24,0,4,-9,-19
68,97,29,-82,19,63,-29,-24,-4,0,-19,-14
73,102,29,-87,21,65,-34,-34,-4,0,-19,-14
78,112,34,-95,21,73,-34,-39,-4,-4,-19,-9
78,112,34,-95,21,73,-43,-43,-14,-9,-9,-19
78,117,39,-97,19,78,-43,-53,-24,-14,-4,-19
87,117,29,-102,29,73,-48,-63,-24,-14,-4,-14
97,122,24,-109,36,73,-53,-68,-24,-14,-4,-4
92,112,19,-102,36,65,-58,-58,-19,-14,0,-4
97,107,9,-102,43,58,-58,-58,-14,-14,9,-4
102,107,4,-104,48,56,-63,-48,-4,-19,14,-9
107,107,0,-107,53,53,-63,-48,0,-24,19,-9
126,102,-24,-114,75,39,-58,-34,-9,-34,9,0
136,102,-34,-119,85,34,-48,-34,-9,-34,4,9
151,102,-48,-126,100,26,-43,-24,4,-39,-4,19
161,102,-58,-131,109,21,-39,-14,4,-39,-9,29
156,87,-68,-122,112,9,-34,-4,14,-39,-19,39
156,82,-73,-119,114,4,-29,-4,19,-39,-19,43
156,82,-73,-119,114,4,-14,-4,19,-39,-19,48
151,82,-68,-117,109,7,-9,0,29,-34,-19,48
141,78,-63,-109,102,7,-4,0,34,-34,-9,34
126,68,-58,-97,92,4,9,9,39,-34,-14,34
102,58,-43,-80,73,7,24,14,43,-39,-29,14
87,48,-39,-68,63,4,39,14,48,-48,-39,4
82,39,-43,-61,63,-2,58,29,48,-53,-39,-4
68,14,-53,-41,61,-19,68,34,48,-58,-53,-9
58,4,-53,-31,56,-24,78,39,48,-68,-63,-24
58,-4,-63,-26,61,-34,82,43,43,-78,-73,-34
48,-14,-63,-17,56,-39,92,48,53,-73,-78,-39
48,-24,-73,-12,61,-48,92,48,58,-78,-73,-43
48,-34,-82,-7,65,-58,102,53,58,-78,-73,-53
43,-34,-78,-4,61,-56,102,58,58,-82,-78,-53
34,-34,-68,0,51,-51,117,63,63,-73,-78,-58
29,-43,-73,7,51,-58,122,73,73,-78,-87,-73
29,-53,-82,12,56,-68,126,82,73,-78,-87,-78
24,-53,-78,14,51,-65,136,92,78,-78,-87,-78
34,-53,-87,9,61,-70,136,97,87,-68,-82,-78
34,-53,-87,9,61,-70,136,102,87,-73,-82,-78
34,-58,-92,12,63,-75,141,102,87,-73,-82,-82
29,-58,-87,14,58,-73,141,102,92,-68,-82,-82
34,-58,-92,12,63,-75,131,97,92,-73,-82,-82
43,-63,-107,9,75,-85,141,97,97,-73,-82,-82
48,-63,-112,7,80,-87,141,97,97,-73,-82,-82
53,-63,-117,4,85,-90,141,102,102,-73,-82,-82
48,-73,-122,12,85,-97,141,102,97,-73,-73,-78
43,-78,-122,17,82,-100,141,102,97,-68,-73,-78
39,-78,-117,19,78,-97,146,107,102,-68,-73,-78
34,-78,-112,21,73,-95,146,107,102,-63,-73,-78
24,-68,-92,21,58,-80,146,107,112,-53,-73,-73
29,-68,-97,19,63,-82,141,107,112,-53,-73,-73
29,-73,-102,21,65,-87,141,107,117,-48,-68,-73
29,-73,-102,21,65,-87,141,107,117,-48,-68,-68
34,-68,-102,17,68,-85,161,107,117,-39,-68,-68
39,-63,-102,12,70,-82,170,112,126,-29,-68,-68
43,-58,-102,7,73,-80,175,112,126,-29,-68,-68
48,-53,-102,2,75,-78,180,112,126,-29,-68,-68
43,-43,-87,0,65,-65,170,122,122,-29,-78,-73
43,-43,-87,0,65,-65,170,126,122,-34,-78,-73
48,-43,-92,-2,70,-68,170,126,126,-34,-78,-73
48,-43,-92,-2,70,-68,170,126,126,-39,-73,-73
48,-58,-107,4,78,-82,165,117,122,-39,-73,-78
48,-58,-107,4,78,-82,161,117,122,-34,-73,-78
48,-63,-112,7,80,-87,151,117,126,-34,-73,-78
48,-68,-117,9,82,-92,146,117,126,-29,-73,-78
48,-68,-117,9,82,-92,156,117,136,-19,-63,-58
48,-68,-117,9,82,-92,165,117,136,-14,-58,-58
48,-68,-117,9,82,-92,165,126,146,-9,-53,-58
48,-68,-117,9,82,-92,165,126,156,4,-48,-53
48,-73,-122,12,85,-97,165,141,161,9,-43,-53
53,-82,-136,14,95,-109,156,146,185,29,-39,-53
63,-73,-136,4,100,-104,165,146,214,58,-19,-53
73,-58,-131,-7,102,-95,170,161,278,107,0,-53
82,-58,-141,-12,112,-100,180,185,356,175,29,-53
82,-53,-136,-14,109,-95,190,214,463,273,63,-63
82,-39,-122,-21,102,-80,200,258,614,395,107,-53
87,-29,-117,-29,102,-73,209,297,771,531,156,-48
78,-4,-82,-36,80,-43,239,307,873,668,209,-43
87,43,-43,-65,65,0,248,307,932,810,287,-19
97,87,-9,-92,53,39,229,297,956,941,366,14
107,126,19,-117,43,73,200,263,927,1049,439,48
122,175,53,-148,34,114,161,239,897,1166,531,112
151,258,107,-204,21,183,92,195,854,1327,653,204
204,341,136,-273,34,239,0,122,766,1488,785,307
248,419,170,-334,39,295,-92,43,683,1693,961,424
307,512,204,-409,51,358,-200,-29,600,1898,1141,531
361,614,253,-488,53,434,-302,-117,522,2074,1312,634
414,707,292,-561,61,500,-366,-175,453,2259,1493,727
448,805,356,-627,46,580,-439,-253,326,2430,1673,829
439,917,478,-678,-19,697,-551,-385,58,2435,1790,941
400,1024,624,-712,-112,824,-649,-556,-312,2298,1805,1024
351,1098,746,-724,-197,922,-717,-717,-722,2069,1756,1078
312,1151,839,-732,-263,995,-771,-844,-1117,1732,1654,1098
263,1190,927,-727,-331,1058,-814,-961,-1459,1195,1444,1098
219,1171,951,-695,-366,1061,-805,-1039,-1800,366,1088,1034
161,1058,897,-610,-368,978,-761,-1068,-2098,-556,634,917
102,878,775,-490,-336,827,-668,-1005,-2176,-1161,248,780
78,619,541,-348,-231,580,-531,-844,-2015,-1424,-34,610
58,380,322,-219,-131,351,-380,-663,-1776,-1527,-244,448
34,287,253,-161,-109,270,-297,-541,-1537,-1507,-370,336
34,244,209,-139,-87,226,-258,-453,-1288,-1337,-380,278
63,165,102,-114,-19,134,-195,-351,-1039,-1122,-336,234
82,102,19,-92,31,61,-136,-258,-824,-966,-317,190
73,73,0,-73,36,36,-63,-180,-619,-824,-312,112
58,29,-29,-43,43,0,9,-97,-409,-658,-322,9
53,-19,-73,-17,63,-46,58,-19,-239,-502,-302,-78
53,-48,-102,-2,78,-75,82,9,-112,-356,-244,-107
39,-58,-97,9,68,-78,92,24,-43,-258,-195,-112
39,-87,-126,24,82,-107,117,63,14,-200,-180,-102
39,-92,-131,26,85,-112,131,102,53,-175,-161,-87
48,-102,-151,26,100,-126,131,97,63,-170,-170,-97
43,-107,-151,31,97,-129,131,87,73,-175,-180,-112
39,-97,-136,29,87,-117,146,87,87,-165,-170,-112
24,-97,-122,36,73,-109,165,107,112,-141,-141,-112
19,-107,-126,43,73,-117,165,122,122,-122,-131,-112
34,-117,-151,41,92,-134,161,117,131,-122,-141,-112
34,-117,-151,41,92,-134,151,117,131,-107,-146,-112
34,-117,-151,41,92,-134,156,126,141,-107,-146,-112
34,-117,-151,41,92,-134,161,136,146,-112,-146,-112
34,-117,-151,41,92,-134,161,136,151,-117,-141,-112
43,-117,-161,36,102,-139,151,131,156,-112,-141,-102
43,-117,-161,36,102,-139,151,126,156,-112,-141,-97
43,-117,-161,36,102,-139,146,122,156,-112,-141,-97
43,-117,-161,36,102,-139,146,122,156,-107,-136,-97
48,-126,-175,39,112,-151,156,131,151,-97,-146,-107
48,-131,-180,41,114,-156,156,131,151,-97,-141,-107
48,-131,-180,41,114,-156,156,136,156,-97,-136,-107
48,-131,-180,41,114,-156,161,136,161,-92,-136,-107
39,-131,-170,46,104,-151,161,136,161,-92,-131,-97
39,-131,-170,46,104,-151,161,136,161,-87,-131,-97
39,-131,-170,46,104,-151,156,136,161,-87,-131,-92
43,-131,-175,43,109,-153,156,136,161,-82,-126,-92
43,-131,-175,43,109,-153,146,136,151,-92,-136,-102
43,-131,-175,43,109,-153,146,136,151,-87,-136,-102
43,-131,-175,43,109,-153,146,141,156,-87,-136,-102
43,-131,-175,43,109,-153,146,141,156,-87,-136,-102
39,-131,-170,46,104,-151,146,136,165,-97,-141,-102
43,-136,-180,46,112,-158,146,136,165,-97,-146,-112
43,-136,-180,46,112,-158,146,136,165,-97,-146,-112
43,-136,-180,46,112,-158,146,141,165,-97,-151,-112
43,-136,-180,46,112,-158,146,141,156,-87,-146,-102
43,-136,-180,46,112,-158,146,141,156,-82,-146,-102
43,-136,-180,46,112,-158,146,141,156,-82,-146,-107
43,-136,-180,46,112,-158,146,141,161,-82,-151,-107
43,-136,-180,46,112,-158,146,141,161,-82,-151,-112
48,-136,-185,43,117,-161,146,141,161,-82,-146,-117
48,-136,-185,43,117,-161,146,141,161,-78,-146,-126
43,-136,-180,46,112,-158,146,141,161,-73,-146,-136
43,-126,-170,41,107,-148,151,151,170,-82,-151,-122
39,-126,-165,43,102,-146,151,151,170,-82,-151,-117
39,-131,-170,46,104,-151,151,151,170,-87,-156,-112
39,-136,-175,48,107,-156,151,151,170,-87,-156,-107
43,-136,-180,46,112,-158,151,141,161,-87,-156,-107
53,-141,-195,43,124,-168,151,146,161,-78,-151,-102
58,-141,-200,41,129,-170,151,156,161,-78,-146,-97
58,-141,-200,41,129,-170,151,156,161,-73,-141,-97
48,-141,-190,46,119,-165,151,156,161,-73,-151,-107
53,-141,-195,43,124,-168,151,156,161,-73,-151,-112
58,-141,-200,41,129,-170,151,156,161,-68,-151,-122
58,-141,-200,41,129,-170,151,156,161,-63,-151,-122
58,-151,-209,46,134,-180,151,156,151,-73,-141,-112
53,-151,-204,48,129,-178,151,156,151,-73,-141,-112
48,-156,-204,53,126,-180,151,156,151,-68,-141,-112
43,-156,-200,56,122,-178,151,156,151,-63,-141,-112
43,-165,-209,61,126,-187,141,146,151,-68,-136,-122
43,-161,-204,58,124,-183,141,141,151,-63,-141,-122
43,-161,-204,58,124,-183,141,141,151,-58,-141,-122
43,-161,-204,58,124,-183,141,141,146,-58,-141,-122
43,-161,-204,58,124,-183,136,136,136,-63,-141,-112
39,-156,-195,58,117,-175,131,136,126,-58,-141,-112
39,-156,-195,58,117,-175,126,131,126,-58,-136,-107
34,-156,-190,61,112,-173,117,131,126,-53,-131,-107
34,-146,-180,56,107,-163,117,131,117,-48,-131,-107
34,-146,-180,56,107,-163,112,126,117,-43,-131,-102
34,-141,-175,53,104,-158,107,117,117,-39,-126,-92
34,-136,-170,51,102,-153,97,117,107,-34,-126,-92
34,-141,-175,53,104,-158,107,117,117,-34,-117,-92
34,-141,-175,53,104,-158,107,117,107,-29,-112,-92
34,-136,-170,51,102,-153,107,117,102,-29,-112,-92
34,-136,-170,51,102,-153,102,107,97,-34,-112,-92
34,-122,-156,43,95,-139,97,112,92,-34,-102,-97
34,-117,-151,41,92,-134,97,107,92,-34,-102,-87
34,-112,-146,39,90,-129,92,102,87,-34,-97,-87
39,-112,-151,36,95,-131,92,102,87,-39,-97,-87
29,-117,-146,43,87,-131,87,87,78,-48,-107,-87
29,-112,-141,41,85,-126,78,78,68,-48,-97,-78
29,-107,-136,39,82,-122,68,73,58,-48,-97,-73
29,-102,-131,36,80,-117,58,63,53,-53,-97,-68
29,-102,-131,36,80,-117,58,63,48,-43,-87,-58
34,-97,-131,31,82,-114,53,63,48,-39,-78,-48
34,-92,-126,29,80,-109,48,63,43,-34,-73,-39
34,-82,-117,24,75,-100,43,63,43,-29,-68,-29
29,-63,-92,17,61,-78,39,48,48,-24,-63,-34
29,-43,-73,7,51,-58,29,39,43,-19,-53,-24
29,-39,-68,4,48,-53,24,34,39,-24,-53,-14
29,-24,-53,-2,41,-39,14,19,39,-29,-43,-9
34,-14,-48,-9,41,-31,0,24,34,-24,-34,-4
34,-9,-43,-12,39,-26,0,24,29,-19,-29,4
39,-9,-48,-14,43,-29,0,24,29,-14,-29,4
39,-4,-43,-17,41,-24,0,19,34,-9,-24,9
29,0,-29,-14,29,-14,-4,24,34,-9,-19,29
29,9,-19,-19,24,-4,-9,9,29,-9,-19,29
19,14,-4,-17,12,4,-9,4,19,-19,-9,29
19,19,0,-19,9,9,-9,0,19,-19,-9,29
19,24,4,-21,7,14,-9,-4,19,-19,-9,29
19,29,9,-24,4,19,-9,-9,19,-19,-9,29
9,34,24,-21,-7,29,-24,-14,14,-24,-9,34
9,39,29,-24,-9,34,-24,-19,9,-24,-4,39
9,39,29,-24,-9,34,-29,-24,4,-29,-4,43
9,43,34,-26,-12,39,-29,-29,0,-34,-4,53
9,53,43,-31,-17,48,-29,-29,-14,-34,-4,48
9,53,43,-31,-17,48,-29,-29,-14,-34,-4,48
14,58,43,-36,-14,51,-34,-29,-14,-43,-4,48
14,58,43,-36,-14,51,-34,-29,-14,-43,-4,48
29,58,29,-43,0,43,-34,-19,-14,-39,0,58
29,58,29,-43,0,43,-34,-19,-19,-43,0,58
29,53,24,-41,2,39,-34,-24,-19,-48,0,58
29,48,19,-39,4,34,-34,-24,-24,-58,0,58
29,39,9,-34,9,24,-43,-24,-29,-63,4,68
29,48,19,-39,4,34,-48,-24,-34,-68,0,73
29,48,19,-39,4,34,-53,-34,-34,-68,4,73
29,53,24,-41,2,39,-53,-39,-34,-73,9,78
29,53,24,-41,2,39,-53,-48,-43,-78,0,78
29,58,29,-43,0,43,-53,-53,-53,-82,4,78
39,58,19,-48,9,39,-58,-58,-53,-82,4,82
48,63,14,-56,17,39,-63,-58,-53,-82,4,92
63,73,9,-68,26,41,-68,-58,-43,-82,14,97
68,68,0,-68,34,34,-68,-58,-43,-82,19,102
73,68,-4,-70,39,31,-73,-48,-39,-87,19,102
78,68,-9,-73,43,29,-73,-48,-39,-92,19,107
87,63,-24,-75,56,19,-82,-53,-39,-82,24,102
97,63,-34,-80,65,14,-78,-53,-39,-82,34,107
112,63,-48,-87,80,7,-78,-43,-24,-87,39,112
122,63,-58,-92,90,2,-78,-34,-24,-87,48,117
126,58,-68,-92,97,-4,-73,-24,-24,-87,39,117
126,53,-73,-90,100,-9,-68,-24,-19,-87,39,112
126,53,-73,-90,100,-9,-53,-24,-19,-87,39,107
122,53,-68,-87,95,-7,-48,-19,-9,-82,39,97
102,48,-53,-75,78,-2,-34,-9,4,-73,29,107
87,39,-48,-63,68,-4,-19,0,9,-73,24,112
63,29,-34,-46,48,-2,-4,4,14,-78,9,97
48,19,-29,-34,39,-4,9,4,19,-87,0,92
24,0,-24,-12,24,-12,19,19,29,-102,-4,78
9,-24,-34,7,21,-29,29,24,29,-107,-14,78
0,-34,-34,17,17,-34,39,29,29,-117,-19,68
0,-43,-43,21,21,-43,43,34,24,-126,-24,63
0,-43,-43,21,21,-43,53,39,14,-141,-43,48
0,-53,-53,26,26,-53,53,39,19,-146,-43,43
0,-63,-63,31,31,-63,63,43,19,-146,-48,34
-4,-63,-58,34,26,-61,63,48,19,-151,-58,34
4,-63,-68,29,36,-65,68,48,24,-141,-68,39
0,-73,-73,36,36,-73,73,53,34,-146,-78,24
0,-82,-82,41,41,-82,78,58,34,-146,-78,19
-4,-82,-78,43,36,-80,87,63,39,-146,-78,19
-14,-92,-78,53,31,-85,87,68,39,-146,-73,14
-14,-92,-78,53,31,-85,87,73,39,-151,-73,9
-14,-97,-82,56,34,-90,92,73,39,-151,-73,0
-19,-97,-78,58,29,-87,92,73,43,-146,-73,-4
-9,-97,-87,53,39,-92,82,68,43,-151,-82,-4
-4,-102,-97,53,46,-100,92,68,48,-151,-82,-4
-4,-102,-97,53,46,-100,92,68,48,-151,-82,-4
-4,-102,-97,53,46,-100,92,73,53,-151,-82,-4
-4,-102,-97,53,46,-100,102,82,48,-151,-92,0
-4,-107,-102,56,48,-104,102,82,48,-146,-92,0
-4,-107,-102,56,48,-104,107,87,53,-146,-92,0
-4,-107,-102,56,48,-104,107,87,53,-141,-92,0
-4,-107,-102,56,48,-104,107,87,63,-146,-102,-4
0,-107,-107,53,53,-107,102,87,63,-151,-102,-4
0,-112,-112,56,56,-112,102,87,68,-151,-97,-4
0,-112,-112,56,56,-112,102,87,68,-156,-97,0
9,-102,-112,46,61,-107,97,87,58,-156,-107,0
9,-102,-112,46,61,-107,102,92,68,-146,-107,0
9,-102,-112,46,61,-107,102,92,68,-146,-107,0
9,-102,-112,46,61,-107,102,92,68,-146,-107,0
-4,-102,-97,53,46,-100,102,92,73,-151,-107,4
-4,-102,-97,53,46,-100,102,97,73,-151,-107,4
0,-102,-102,51,51,-102,102,97,78,-146,-107,4
0,-102,-102,51,51,-102,102,97,78,-146,-102,4
0,-102,-102,51,51,-102,112,92,82,-136,-92,4
0,-97,-97,48,48,-97,112,87,82,-131,-92,0
0,-97,-97,48,48,-97,107,82,87,-131,-92,-4
0,-97,-97,48,48,-97,107,78,87,-126,-92,-9
9,-87,-97,39,53,-92,107,87,87,-117,-92,-9
9,-87,-97,39,53,-92,107,97,87,-131,-97,-9
9,-87,-97,39,53,-92,107,97,87,-126,-92,-9
19,-78,-97,29,58,-87,97,97,107,-122,-97,-4
9,-82,-92,36,51,-87,97,102,112,-107,-92,4
14,-102,-117,43,65,-109,97,107,126,-107,-87,4
14,-102,-117,43,65,-109,97,117,146,-97,-78,14
34,-87,-122,26,78,-104,112,141,200,-48,-58,34
43,-87,-131,21,87,-109,112,165,287,9,-29,43
43,-102,-146,29,95,-124,131,195,385,107,4,43
43,-97,-141,26,92,-119,151,219,527,229,48,43
48,-68,-117,9,82,-92,180,258,692,375,107,39
39,-53,-92,7,65,-73,190,287,834,522,170,24
39,-24,-63,-7,51,-43,209,317,932,673,229,39
48,29,-19,-39,34,4,229,317,976,824,317,82
58,78,19,-68,19,48,209,302,966,951,400,126
63,126,63,-95,0,95,161,268,956,1078,483,180
102,219,117,-161,-7,168,102,244,951,1249,605,253
175,302,126,-239,24,214,29,190,902,1429,756,366
219,380,161,-300,29,270,-53,112,839,1654,932,473
268,473,204,-370,31,339,-161,29,766,1878,1122,580
322,575,253,-448,34,414,-263,-48,678,2074,1293,673
366,678,312,-522,26,495,-366,-107,619,2288,1483,775
390,775,385,-583,2,580,-458,-175,541,2498,1673,878
390,878,488,-634,-48,683,-541,-287,322,2552,1790,961
351,1005,653,-678,-151,829,-619,-458,-19,2444,1825,1044
302,1088,785,-695,-241,936,-678,-649,-419,2244,1786,1098
253,1141,888,-697,-317,1015,-732,-814,-873,1878,1683,1117
204,1171,966,-688,-380,1068,-775,-941,-1322,1263,1473,1107
141,1161,1019,-651,-439,1090,-785,-1029,-1732,395,1117,1063
92,1088,995,-590,-451,1041,-761,-1049,-2049,-497,702,976
43,927,883,-485,-419,905,-688,-995,-2147,-1112,346,839
9,639,629,-324,-309,634,-551,-834,-2034,-1424,43,649
-19,361,380,-170,-200,370,-400,-663,-1864,-1615,-214,478
-43,229,273,-92,-158,251,-297,-570,-1683,-1654,-380,366
-34,175,209,-70,-122,192,-239,-492,-1444,-1493,-390,326
-4,117,122,-56,-63,119,-175,-370,-1185,-1268,-326,292
24,82,58,-53,-17,70,-126,-268,-951,-1093,-297,258
34,63,29,-48,2,46,-92,-170,-736,-932,-302,209
9,19,9,-14,0,14,-39,-78,-507,-766,-312,117
-24,-19,4,21,-14,-7,19,0,-317,-600,-292,29
-24,-39,-14,31,-4,-26,53,48,-180,-463,-263,-29
-19,-48,-29,34,4,-39,73,53,-112,-366,-224,-43
-9,-58,-48,34,19,-53,78,43,-73,-307,-200,-34
0,-53,-53,26,26,-53,92,53,-34,-273,-170,0
0,-63,-63,31,31,-63,102,78,4,-258,-170,9
-4,-78,-73,41,34,-75,112,87,34,-253,-161,4
0,-87,-87,43,43,-87,107,97,48,-244,-141,14
14,-87,-102,36,58,-95,97,107,63,-239,-131,14
39,-87,-126,24,82,-107,97,112,73,-219,-131,4
34,-97,-131,31,82,-114,92,107,82,-200,-131,14
34,-97,-131,31,82,-114,102,107,92,-170,-117,24
34,-97,-131,31,82,-114,107,117,102,-165,-117,24
34,-97,-131,31,82,-114,112,126,107,-165,-117,24
34,-97,-131,31,82,-114,112,126,112,-165,-112,24
34,-92,-126,29,80,-109,112,126,117,-170,-112,34
34,-87,-122,26,78,-104,112,126,117,-170,-112,39
34,-82,-117,24,75,-100,107,126,117,-170,-112,39
34,-78,-112,21,73,-95,107,131,117,-165,-107,39
39,-87,-126,24,82,-107,117,122,122,-146,-107,29
39,-92,-131,26,85,-112,117,122,122,-146,-102,29
39,-92,-131,26,85,-112,117,126,126,-146,-97,29
39,-92,-131,26,85,-112,122,126,131,-141,-97,29
48,-92,-141,21,95,-117,122,136,141,-141,-97,34
48,-92,-141,21,95,-117,122,136,141,-136,-92,39
48,-92,-141,21,95,-117,117,136,141,-136,-87,48
53,-92,-146,19,100,-119,117,136,141,-131,-78,53
58,-82,-141,12,100,-112,117,136,141,-126,-78,53
63,-82,-146,9,104,-114,117,136,141,-117,-78,53
68,-82,-151,7,109,-117,117,141,146,-112,-78,53
73,-82,-156,4,114,-119,117,141,146,-107,-78,53
87,-78,-165,-4,126,-122,117,146,146,-117,-87,43
92,-78,-170,-7,131,-124,117,146,146,-117,-87,34
92,-73,-165,-9,129,-119,117,146,146,-117,-82,34
92,-68,-161,-12,126,-114,117,151,146,-117,-82,34
92,-53,-146,-19,119,-100,117,146,146,-117,-82,39
92,-48,-141,-21,117,-95,117,141,146,-112,-78,43
92,-43,-136,-24,114,-90,117,136,146,-112,-73,43
92,-39,-131,-26,112,-85,117,131,151,-112,-73,48
92,-43,-136,-24,114,-90,126,136,161,-107,-68,63
97,-48,-146,-24,122,-97,126,141,161,-102,-58,68
97,-53,-151,-21,124,-102,126,146,161,-92,-53,68
92,-58,-151,-17,122,-104,126,151,161,-82,-48,68
92,-58,-151,-17,122,-104,131,161,170,-82,-43,78
87,-58,-146,-14,117,-102,131,161,170,-82,-43,78
87,-63,-151,-12,119,-107,131,161,170,-87,-48,78
87,-68,-156,-9,122,-112,131,161,170,-87,-48,78
92,-68,-161,-12,126,-114,131,161,165,-87,-53,68
102,-63,-165,-19,134,-114,131,165,161,-78,-53,73
107,-53,-161,-26,134,-107,131,175,156,-78,-53,78
107,-43,-151,-31,129,-97,131,175,151,-73,-53,78
107,-43,-151,-31,129,-97,122,165,151,-73,-43,87
112,-43,-156,-34,134,-100,122,165,151,-73,-43,82
117,-43,-161,-36,139,-102,122,165,151,-68,-43,73
117,-43,-161,-36,139,-102,122,165,151,-63,-43,73
122,-43,-165,-39,143,-104,122,165,151,-63,-43,82
122,-43,-165,-39,143,-104,122,165,151,-63,-43,82
122,-48,-170,-36,146,-109,122,165,151,-58,-43,82
122,-48,-170,-36,146,-109,122,165,151,-53,-43,82
131,-48,-180,-41,156,-114,112,165,141,-39,-34,92
131,-43,-175,-43,153,-109,112,161,141,-34,-34,92
131,-43,-175,-43,153,-109,112,161,141,-29,-29,92
131,-43,-175,-43,153,-109,112,161,136,-29,-24,92
126,-43,-170,-41,148,-107,112,156,146,-24,-34,82
126,-39,-165,-43,146,-102,112,156,136,-19,-34,82
131,-39,-170,-46,151,-104,112,151,136,-19,-29,87
131,-39,-170,-46,151,-104,107,151,136,-14,-24,87
131,-29,-161,-51,146,-95,97,141,126,-9,-14,87
131,-29,-161,-51,146,-95,92,136,126,-4,-14,92
131,-24,-156,-53,143,-90,87,126,126,0,-9,102
131,-19,-151,-56,141,-85,78,126,117,4,-9,102
122,-24,-146,-48,134,-85,78,126,117,-4,-9,102
122,-24,-146,-48,134,-85,78,126,107,0,-4,102
122,-19,-141,-51,131,-80,78,126,102,0,-4,102
122,-19,-141,-51,131,-80,73,117,97,-4,-4,102
122,-14,-136,-53,129,-75,58,112,92,4,4,97
122,-9,-131,-56,126,-70,58,107,92,4,4,107
122,-4,-126,-58,124,-65,53,102,87,4,9,107
126,-4,-131,-61,129,-68,53,102,87,0,9,107
126,0,-126,-63,126,-63,53,92,73,0,9,107
126,4,-122,-65,124,-58,48,87,68,0,19,117
126,9,-117,-68,122,-53,43,87,63,0,19,122
126,14,-112,-70,119,-48,39,82,63,-4,19,126
122,4,-117,-63,119,-56,39,87,48,-4,19,122
122,9,-112,-65,117,-51,34,82,48,0,29,126
117,14,-102,-65,109,-43,29,78,43,4,34,131
112,24,-87,-68,100,-31,24,73,43,9,39,136
107,19,-87,-63,97,-34,19,68,39,14,34,131
107,34,-73,-70,90,-19,9,58,34,19,43,141
107,34,-73,-70,90,-19,4,53,29,14,43,151
107,43,-63,-75,85,-9,-4,39,29,9,53,156
102,58,-43,-80,73,7,-19,34,24,9,53,161
102,68,-34,-85,68,17,-19,34,19,9,58,170
107,73,-34,-90,70,19,-19,34,19,9,58,170
107,82,-24,-95,65,29,-19,29,24,9,63,175
97,87,-9,-92,53,39,-24,24,14,19,68,185
87,87,0,-87,43,43,-29,29,24,19,73,190
87,82,-4,-85,46,39,-34,19,19,9,73,180
87,82,-4,-85,46,39,-24,14,19,14,73,175
87,87,0,-87,43,43,-19,9,19,9,68,175
78,87,9,-82,34,48,-34,0,9,0,68,175
78,87,9,-82,34,48,-39,0,9,0,68,175
78,87,9,-82,34,48,-43,0,9,0,68,175
78,87,9,-82,34,48,-48,0,9,0,68,175
78,97,19,-87,29,58,-53,-4,4,-14,68,175
78,107,29,-92,24,68,-53,-9,0,-14,73,175
78,112,34,-95,21,73,-58,-14,-4,-19,73,175
78,122,43,-100,17,82,-58,-19,-9,-24,73,180
68,117,48,-92,9,82,-58,-19,-14,-34,63,180
68,112,43,-90,12,78,-58,-19,-14,-34,63,175
73,112,39,-92,17,75,-63,-19,-14,-43,63,170
73,107,34,-90,19,70,-63,-19,-14,-43,63,165
68,97,29,-82,19,63,-63,-29,-24,-48,58,156
68,97,29,-82,19,63,-63,-29,-29,-53,58,156
68,92,24,-80,21,58,-63,-34,-29,-58,58,156
68,87,19,-78,24,53,-63,-34,-34,-68,58,156
68,87,19,-78,24,53,-63,-34,-39,-73,43,165
68,97,29,-82,19,63,-68,-34,-43,-78,29,170
68,97,29,-82,19,63,-73,-43,-43,-78,24,170
68,102,34,-85,17,68,-73,-48,-43,-82,19,175
63,92,29,-78,17,61,-92,-39,-43,-97,19,165
58,97,39,-78,9,68,-92,-43,-53,-102,24,165
63,97,34,-80,14,65,-97,-48,-53,-102,24,170
68,102,34,-85,17,68,-102,-48,-53,-102,24,180
58,87,29,-73,14,58,-97,-48,-63,-102,24,180
58,78,19,-68,19,48,-97,-48,-63,-102,29,180
58,73,14,-65,21,43,-102,-39,-58,-107,29,175
58,68,9,-63,24,39,-102,-39,-58,-112,29,175
53,58,4,-56,24,31,-107,-39,-68,-122,19,175
58,53,-4,-56,31,24,-107,-43,-68,-122,24,175
68,48,-19,-58,43,14,-112,-39,-53,-126,24,175
73,43,-29,-58,51,7,-117,-34,-53,-126,29,175
78,34,-43,-56,61,-4,-112,-24,-53,-126,29,170
78,24,-53,-51,65,-14,-107,-24,-48,-126,29,170
78,19,-58,-48,68,-19,-92,-24,-48,-126,29,170
73,14,-58,-43,65,-21,-87,-19,-39,-122,29,165
63,0,-63,-31,63,-31,-82,-29,-34,-122,19,161
48,-9,-58,-19,53,-34,-68,-19,-29,-122,14,161
24,-19,-43,-2,34,-31,-53,-14,-24,-126,0,141
9,-29,-39,9,24,-34,-39,-14,-19,-136,-9,131
-14,-48,-34,31,9,-41,-29,0,-9,-131,-9,107
-29,-73,-43,51,7,-58,-19,4,-9,-136,-24,97
-39,-82,-43,61,2,-63,-9,9,-9,-146,-34,78
-39,-92,-53,65,7,-73,-4,14,-14,-156,-43,63
-58,-102,-43,80,-7,-73,4,9,-24,-170,-63,58
-58,-112,-53,85,-2,-82,4,9,-19,-175,-63,53
-58,-122,-63,90,2,-92,14,14,-19,-175,-68,43
-63,-122,-58,92,-2,-90,14,19,-19,-180,-78,43
-63,-141,-78,102,7,-109,19,19,-24,-170,-78,34
-68,-151,-82,109,7,-117,24,24,-14,-175,-87,14
-68,-161,-92,114,12,-126,29,29,-14,-175,-87,4
-73,-161,-87,117,7,-124,39,34,-9,-175,-87,0
-73,-161,-87,117,7,-124,29,39,0,-165,-92,0
-73,-161,-87,117,7,-124,29,43,0,-170,-92,0
-73,-165,-92,119,9,-129,34,43,0,-170,-92,-4
-78,-165,-87,122,4,-126,34,43,4,-165,-92,-4
-78,-156,-78,117,0,-117,39,48,14,-151,-92,-14
-73,-161,-87,117,7,-124,53,48,19,-151,-92,-14
-73,-161,-87,117,7,-124,58,48,19,-151,-92,-14
-73,-161,-87,117,7,-124,63,53,24,-151,-92,-14
-73,-170,-97,122,12,-134,58,53,19,-151,-82,-19
-73,-175,-102,124,14,-139,53,53,19,-146,-82,-19
-73,-175,-102,124,14,-139,53,58,24,-146,-82,-19
-73,-175,-102,124,14,-139,48,58,24,-141,-82,-19
-82,-185,-102,134,9,-143,39,48,14,-141,-92,-34
-78,-185,-107,131,14,-146,34,48,14,-141,-92,-34
-78,-190,-112,134,17,-151,34,48,19,-136,-87,-34
-78,-190,-112,134,17,-151,34,48,19,-136,-87,-29
-87,-180,-92,134,2,-136,48,58,29,-126,-78,-39
-87,-180,-92,134,2,-136,53,63,39,-117,-78,-39
-87,-180,-92,134,2,-136,53,63,39,-117,-78,-39
-87,-180,-92,134,2,-136,53,63,39,-117,-78,-39
-102,-170,-68,136,-17,-119,63,53,43,-102,-68,-39
-102,-170,-68,136,-17,-119,63,58,43,-102,-68,-34
-97,-170,-73,134,-12,-122,63,58,48,-97,-68,-29
-97,-170,-73,134,-12,-122,63,58,48,-97,-63,-24
-97,-180,-82,139,-7,-131,63,58,43,-107,-73,-24
-97,-175,-78,136,-9,-126,63,58,43,-102,-73,-29
-97,-175,-78,136,-9,-126,58,58,48,-102,-73,-34
-97,-175,-78,136,-9,-126,58,58,48,-97,-73,-39
-87,-175,-87,131,0,-131,58,68,48,-97,-73,-48
-78,-175,-97,126,9,-136,68,68,48,-92,-78,-39
-87,-175,-87,131,0,-131,68,68,58,-87,-73,-39
-78,-175,-97,126,9,-136,68,68,68,-82,-78,-43
-68,-180,-112,124,21,-146,68,82,92,-68,-73,-43
-73,-190,-117,131,21,-153,68,87,117,-39,-58,-53
-63,-190,-126,126,31,-158,68,87,146,0,-39,-53
-63,-175,-112,119,24,-143,73,102,190,48,-19,-53
-63,-175,-112,119,24,-143,82,136,278,117,0,-53
-63,-180,-117,122,26,-148,102,175,405,204,24,-53
-63,-165,-102,114,19,-134,131,209,566,326,68,-53
-68,-146,-78,107,4,-112,161,248,712,473,126,-58
-68,-112,-43,90,-12,-78,170,268,814,619,200,-53
-58,-73,-14,65,-21,-43,170,258,883,771,268,-29
-48,-29,19,39,-34,-4,151,248,888,902,346,14
-39,0,39,19,-39,19,122,224,868,1010,419,58
-24,58,82,-17,-53,70,73,190,849,1137,512,122
14,141,126,-78,-56,134,24,146,805,1288,624,204
58,224,165,-141,-53,195,-58,82,746,1459,775,297
92,312,219,-202,-63,265,-151,14,692,1664,941,385
141,414,273,-278,-65,344,-258,-68,619,1869,1112,492
195,527,331,-361,-68,429,-361,-136,541,2054,1283,585
239,619,380,-429,-70,500,-444,-204,483,2259,1464,688
253,697,444,-475,-95,570,-517,-283,336,2381,1625,780
224,810,585,-517,-180,697,-610,-424,39,2308,1683,873
195,936,741,-566,-273,839,-688,-585,-351,2103,1668,936
156,1019,863,-588,-353,941,-736,-736,-780,1805,1590,980
117,1044,927,-580,-405,985,-790,-863,-1166,1381,1449,980
68,1073,1005,-570,-468,1039,-814,-961,-1517,775,1210,961
14,1063,1049,-539,-517,1056,-814,-1039,-1849,-34,854,907
-34,961,995,-463,-514,978,-780,-1068,-2108,-819,448,819
-63,771,834,-353,-448,802,-697,-995,-2156,-1298,131,692
-97,492,590,-197,-344,541,-561,-834,-2005,-1503,-112,531
-117,253,370,-68,-244,312,-429,-663,-1805,-1605,-312,370
-131,170,302,-19,-217,236,-346,-561,-1586,-1576,-419,268
-122,117,239,2,-180,178,-278,-463,-1337,-1385,-409,219
-92,48,141,21,-117,95,-224,-351,-1088,-1180,-356,175
-82,-4,78,43,-80,36,-175,-258,-854,-1005,-336,131
-92,-43,48,68,-70,2,-112,-180,-629,-824,-322,63
-117,-97,19,107,-68,-39,-39,-97,-419,-649,-312,-39
-131,-156,-24,143,-53,-90,19,-29,-248,-492,-292,-117
-131,-165,-34,148,-48,-100,43,9,-141,-356,-253,-146
-126,-165,-39,146,-43,-102,43,14,-82,-278,-224,-151
-117,-175,-58,146,-29,-117,48,34,-43,-239,-209,-151
-117,-180,-63,148,-26,-122,63,53,-4,-214,-190,-146
-126,-180,-53,153,-36,-117,73,58,14,-190,-180,-136
-122,-175,-53,148,-34,-114,82,58,34,-185,-170,-141
-107,-185,-78,146,-14,-131,78,68,48,-175,-161,-141
-92,-185,-92,139,0,-139,87,78,73,-151,-151,-141
-87,-185,-97,136,4,-141,87,73,82,-141,-141,-141
-92,-195,-102,143,4,-148,92,78,92,-131,-131,-141
-92,-204,-112,148,9,-158,92,68,92,-122,-136,-141
-92,-204,-112,148,9,-158,97,78,102,-117,-136,-141
-92,-204,-112,148,9,-158,102,87,107,-117,-136,-141
-92,-204,-112,148,9,-158,102,87,112,-117,-131,-141
-92,-195,-102,143,4,-148,92,87,117,-107,-131,-151
-92,-195,-102,143,4,-148,92,87,117,-102,-131,-146
-92,-195,-102,143,4,-148,87,87,117,-97,-131,-146
-92,-195,-102,143,4,-148,87,92,117,-87,-126,-146
-87,-204,-117,146,14,-161,97,97,131,-68,-117,-146
-87,-209,-122,148,17,-165,97,102,131,-68,-112,-146
-87,-209,-122,148,17,-165,97,112,136,-68,-107,-146
-87,-209,-122,148,17,-165,102,117,141,-63,-107,-146
-97,-209,-112,153,7,-161,102,112,131,-73,-122,-156
-97,-209,-112,153,7,-161,102,107,131,-68,-122,-156
-97,-209,-112,153,7,-161,97,102,131,-68,-122,-151
-92,-209,-117,151,12,-163,97,97,131,-63,-117,-151
-82,-209,-126,146,21,-168,97,87,131,-63,-107,-151
-82,-209,-126,146,21,-168,97,87,131,-58,-107,-151
-82,-209,-126,146,21,-168,97,92,136,-58,-107,-151
-82,-209,-126,146,21,-168,97,92,136,-58,-107,-151
-87,-219,-131,153,21,-175,97,87,126,-48,-97,-141
-82,-224,-141,153,29,-183,97,87,126,-48,-97,-151
-82,-224,-141,153,29,-183,97,87,126,-48,-92,-151
-82,-224,-141,153,29,-183,97,92,126,-48,-92,-151
-82,-224,-141,153,29,-183,97,102,126,-58,-107,-161
-82,-224,-141,153,29,-183,97,102,126,-53,-107,-161
-82,-224,-141,153,29,-183,97,102,126,-53,-107,-165
-82,-224,-141,153,29,-183,97,102,131,-53,-112,-165
-92,-234,-141,163,24,-187,97,102,131,-58,-117,-156
-87,-234,-146,161,29,-190,97,102,131,-63,-117,-156
-87,-234,-146,161,29,-190,97,102,131,-63,-122,-161
-92,-234,-141,163,24,-187,97,102,131,-63,-126,-165
-78,-234,-156,156,39,-195,102,102,141,-58,-112,-165
-78,-234,-156,156,39,-195,102,102,141,-53,-112,-165
-73,-239,-165,156,46,-202,102,102,141,-53,-117,-165
-68,-244,-175,156,53,-209,102,102,141,-48,-117,-165
-78,-248,-170,163,46,-209,112,107,151,-48,-112,-165
-73,-248,-175,161,51,-212,112,117,151,-39,-112,-161
-73,-244,-170,158,48,-207,112,131,151,-39,-112,-156
-78,-239,-161,158,41,-200,112,136,151,-34,-112,-156
-87,-248,-161,168,36,-204,112,126,151,-24,-102,-156
-82,-248,-165,165,41,-207,112,126,151,-24,-102,-161
-78,-248,-170,163,46,-209,112,126,151,-19,-102,-170
-78,-248,-170,163,46,-209,112,126,151,-14,-102,-170
-73,-248,-175,161,51,-212,122,136,151,-14,-102,-170
-73,-248,-175,161,51,-212,122,136,151,-14,-102,-170
-73,-253,-180,163,53,-217,122,136,151,-9,-102,-170
-73,-253,-180,163,53,-217,122,136,151,-4,-102,-170
-73,-244,-170,158,48,-207,122,136,151,-9,-92,-161
-73,-239,-165,156,46,-202,122,131,151,-4,-92,-161
-73,-239,-165,156,46,-202,122,131,151,0,-87,-161
-73,-239,-165,156,46,-202,122,131,146,0,-82,-161
-68,-244,-175,156,53,-209,112,136,156,4,-82,-170
-68,-244,-175,156,53,-209,112,136,146,9,-82,-170
-63,-248,-185,156,61,-217,112,131,146,9,-78,-165
-63,-253,-190,158,63,-222,107,131,146,14,-73,-165
-63,-244,-180,153,58,-212,117,131,136,9,-73,-165
-63,-244,-180,153,58,-212,112,126,136,14,-73,-161
-63,-239,-175,151,56,-207,107,117,136,19,-68,-151
-63,-234,-170,148,53,-202,97,117,126,24,-68,-151
-53,-229,-175,141,61,-202,87,117,126,14,-63,-161
-53,-229,-175,141,61,-202,87,117,117,19,-63,-161
-53,-224,-170,139,58,-197,87,117,112,19,-68,-161
-53,-224,-170,139,58,-197,82,107,107,14,-73,-161
-43,-229,-185,136,70,-207,78,102,102,24,-63,-146
-43,-224,-180,134,68,-202,78,97,102,24,-63,-136
-43,-219,-175,131,65,-197,73,92,97,24,-58,-136
-39,-219,-180,129,70,-200,73,92,97,19,-58,-136
-39,-204,-165,122,63,-185,73,82,102,19,-58,-146
-39,-200,-161,119,61,-180,68,78,97,19,-48,-136
-39,-195,-156,117,58,-175,63,78,92,19,-48,-131
-39,-190,-151,114,56,-170,58,73,92,14,-48,-126
-39,-180,-141,109,51,-161,58,78,82,14,-58,-122
-34,-175,-141,104,53,-158,53,73,78,19,-48,-117
-34,-170,-136,102,51,-153,48,68,68,24,-43,-112
-34,-161,-126,97,46,-143,43,63,63,29,-39,-107
-29,-151,-122,90,46,-136,29,58,63,39,-29,-97
-29,-131,-102,80,36,-117,19,48,63,48,-14,-82
-29,-126,-97,78,34,-112,14,43,63,48,-9,-68
-29,-112,-82,70,26,-97,4,29,68,48,4,-58
-34,-97,-63,65,14,-80,0,24,53,58,14,-63
-34,-87,-53,61,9,-70,0,24,48,48,19,-63
-29,-82,-53,56,12,-68,0,24,58,48,9,-63
-29,-82,-53,56,12,-68,0,19,53,58,14,-58
-29,-68,-39,48,4,-53,-9,9,58,48,9,-48
-29,-63,-34,46,2,-48,-19,0,48,48,9,-39
-29,-58,-29,43,0,-43,-19,0,48,48,9,-39
-29,-53,-24,41,-2,-39,-19,0,48,48,9,-39
-29,-48,-19,39,-4,-34,-19,0,48,48,9,-39
-29,-43,-14,36,-7,-29,-24,-4,34,43,19,-39
-29,-39,-9,34,-9,-24,-24,-9,29,43,24,-39
-29,-39,-9,34,-9,-24,-29,-14,24,39,24,-39
-29,-34,-4,31,-12,-19,-29,-19,19,34,24,-34
-39,-34,4,36,-21,-14,-29,-19,14,34,14,-39
-39,-34,4,36,-21,-14,-29,-19,14,34,14,-39
-34,-29,4,31,-19,-12,-34,-19,14,24,14,-39
-34,-29,4,31,-19,-12,-34,-19,14,24,14,-39
-29,-29,0,29,-14,-14,-34,-19,14,29,0,-29
-29,-29,0,29,-14,-14,-34,-19,9,24,0,-29
-29,-34,-4,31,-12,-19,-34,-24,9,19,0,-29
-29,-39,-9,34,-9,-24,-34,-24,4,9,0,-29
-29,-39,-9,34,-9,-24,-34,-34,-9,0,0,-39
-29,-29,0,29,-14,-14,-39,-34,-14,-9,-9,-34
-29,-29,0,29,-14,-14,-43,-43,-14,-14,-9,-34
-29,-24,4,26,-17,-9,-43,-48,-14,-24,-9,-29
-29,-24,4,26,-17,-9,-53,-39,-14,-19,-9,-29
-29,-19,9,24,-19,-4,-53,-43,-24,-24,-4,-29
-19,-19,0,19,-9,-9,-58,-48,-24,-24,-4,-24
-9,-14,-4,12,-2,-9,-63,-48,-24,-24,-4,-14
-4,-14,-9,9,2,-12,-78,-58,-34,-24,4,-9
0,-19,-19,9,9,-19,-78,-58,-34,-24,9,-4
4,-19,-24,7,14,-21,-82,-48,-29,-29,9,-4
9,-19,-29,4,19,-24,-82,-48,-29,-34,9,0
9,-24,-34,7,21,-29,-73,-43,-29,-34,0,-4
19,-24,-43,2,31,-34,-68,-43,-29,-34,4,0
34,-24,-58,-4,46,-41,-68,-34,-14,-39,4,4
43,-24,-68,-9,56,-46,-68,-24,-14,-39,9,9
53,-29,-82,-12,68,-56,-73,-4,-14,-39,19,14
58,-34,-92,-12,75,-63,-68,-4,-9,-39,19,14
63,-34,-97,-14,80,-65,-53,-4,-9,-39,19,14
63,-34,-97,-14,80,-65,-48,0,0,-34,19,9
63,-34,-97,-14,80,-65,-43,0,9,-29,34,9
48,-39,-87,-4,68,-63,-29,9,19,-24,34,14
24,-43,-68,9,46,-56,-14,14,29,-24,24,0
9,-48,-58,19,34,-53,0,14,39,-29,19,-4
-9,-68,-58,39,24,-63,9,9,34,-43,4,-24
-29,-92,-63,61,17,-78,19,4,29,-48,-14,-29
-43,-102,-58,73,7,-80,29,0,24,-58,-29,-43
-48,-112,-63,80,7,-87,34,-4,14,-68,-43,-53
-68,-122,-53,95,-7,-87,43,4,14,-63,-53,-68
-68,-131,-63,100,-2,-97,43,9,19,-68,-53,-73
-68,-141,-73,104,2,-107,53,19,19,-68,-58,-82
-73,-141,-68,107,-2,-104,53,29,19,-73,-68,-82
-63,-146,-82,104,9,-114,48,39,14,-87,-73,-78
-68,-151,-82,109,7,-117,53,43,24,-97,-87,-92
-68,-156,-87,112,9,-122,58,48,24,-102,-92,-97
-73,-151,-78,112,2,-114,68,53,29,-107,-97,-97
-73,-161,-87,117,7,-124,78,48,29,-107,-102,-87
-73,-161,-87,117,7,-124,78,53,29,-112,-102,-87
-73,-165,-92,119,9,-129,82,53,29,-112,-102,-92
-78,-165,-87,122,4,-126,82,53,34,-107,-102,-92
-78,-175,-97,126,9,-136,82,68,34,-92,-92,-102
-73,-180,-107,126,17,-143,92,68,39,-92,-92,-102
-73,-180,-107,126,17,-143,92,68,39,-92,-92,-102
-73,-180,-107,126,17,-143,92,73,43,-92,-92,-102
-73,-180,-107,126,17,-143,92,73,48,-102,-102,-107
-73,-185,-112,129,19,-148,92,73,48,-97,-102,-107
-73,-185,-112,129,19,-148,97,78,53,-97,-102,-107
-73,-185,-112,129,19,-148,97,78,53,-92,-102,-107
-73,-185,-112,129,19,-148,107,78,63,-82,-92,-112
-68,-185,-117,126,24,-151,102,78,63,-82,-92,-112
-68,-190,-122,129,26,-156,102,78,68,-78,-87,-112
-68,-190,-122,129,26,-156,102,78,68,-78,-87,-107
-68,-190,-122,129,26,-156,107,78,78,-78,-87,-117
-68,-190,-122,129,26,-156,112,82,87,-68,-87,-117
-68,-190,-122,129,26,-156,112,82,87,-68,-87,-117
-68,-190,-122,129,26,-156,112,82,87,-68,-87,-117
-63,-200,-136,131,36,-168,112,82,92,-53,-87,-112
-63,-200,-136,131,36,-168,112,87,92,-53,-87,-112
-58,-200,-141,129,41,-170,112,87,97,-48,-87,-112
-58,-200,-141,129,41,-170,112,87,97,-48,-82,-112
-58,-200,-141,129,41,-170,102,87,82,-48,-73,-117
-58,-195,-136,126,39,-165,102,87,82,-43,-73,-117
-58,-195,-136,126,39,-165,97,87,87,-43,-73,-117
-58,-195,-136,126,39,-165,97,87,87,-39,-73,-117
-58,-185,-126,122,34,-156,126,87,87,-39,-63,-117
-58,-185,-126,122,34,-156,126,87,97,-53,-68,-117
-58,-185,-126,122,34,-156,117,97,97,-48,-63,-117
-48,-175,-126,112,39,-151,117,107,107,-24,-48,-112
-48,-180,-131,114,41,-156,117,112,122,-9,-53,-112
-43,-190,-146,117,51,-168,117,117,156,9,-48,-112
-43,-190,-146,117,51,-168,117,117,175,29,-29,-102
-34,-185,-151,109,58,-168,112,122,209,68,-19,-102
-34,-185,-151,109,58,-168,122,146,268,117,0,-102
-34,-190,-156,112,61,-173,131,165,356,185,24,-102
-34,-175,-141,104,53,-158,141,190,468,278,48,-112
-29,-156,-126,92,48,-141,170,229,614,424,97,-107
-19,-122,-102,70,41,-112,190,268,756,580,170,-92
-19,-82,-63,51,21,-73,190,278,854,732,239,-78
-29,-48,-19,39,-4,-34,180,268,897,873,307,-63
-19,-19,0,19,-9,-9,170,253,888,971,380,-29
-14,19,34,-2,-24,26,151,219,849,1058,453,34
4,82,78,-43,-36,80,112,185,795,1171,546,107
48,185,136,-117,-43,161,19,131,717,1302,658,190
112,273,161,-192,-24,217,-82,63,614,1459,805,287
161,356,195,-258,-17,275,-170,-19,512,1654,976,385
195,439,244,-317,-24,341,-283,-107,414,1830,1146,497
229,522,292,-375,-31,407,-375,-175,326,1986,1317,600
263,610,346,-436,-41,478,-448,-234,239,2156,1498,702
283,702,419,-492,-68,561,-531,-336,39,2210,1634,814
273,829,556,-551,-141,692,-619,-478,-273,2093,1678,897
234,932,697,-583,-231,814,-688,-629,-653,1864,1649,951
175,995,819,-585,-322,907,-732,-766,-1068,1546,1556,980
117,1034,917,-575,-400,976,-766,-893,-1429,1088,1376,980
73,1034,961,-553,-444,997,-785,-980,-1751,395,1078,946
14,971,956,-492,-470,963,-771,-1029,-2049,-468,663,868
-14,849,863,-417,-439,856,-717,-1024,-2205,-1161,278,771
-29,668,697,-319,-363,683,-619,-912,-2122,-1483,14,649
-68,409,478,-170,-273,444,-478,-741,-1903,-1605,-214,488
-112,209,322,-48,-217,265,-356,-600,-1654,-1625,-390,336
-112,146,258,-17,-185,202,-287,-502,-1405,-1493,-439,248
-82,107,190,-12,-136,148,-224,-400,-1156,-1259,-375,204
-43,43,87,0,-65,65,-156,-287,-902,-1034,-317,170
-43,4,48,19,-46,26,-92,-209,-678,-863,-292,122
-58,-39,19,48,-39,-9,-48,-136,-497,-717,-292,39
-63,-97,-34,80,-14,-65,9,-68,-326,-570,-292,-58
-82,-146,-63,114,-9,-104,43,-9,-200,-414,-253,-117
-87,-146,-58,117,-14,-102,63,14,-102,-287,-204,-141
-78,-165,-87,122,4,-126,87,43,-14,-200,-180,-151
-68,-190,-122,129,26,-156,112,82,53,-156,-170,-146
-78,-209,-131,143,26,-170,122,97,73,-131,-151,-136
-73,-204,-131,139,29,-168,122,97,82,-136,-141,-131
-58,-195,-136,126,39,-165,126,97,97,-126,-131,-131
-43,-185,-141,114,48,-163,126,87,102,-131,-122,-122
-39,-185,-146,112,53,-165,117,102,102,-112,-122,-131
-34,-185,-151,109,58,-168,122,117,122,-92,-112,-131
-34,-190,-156,112,61,-173,131,107,141,-73,-117,-131
-34,-195,-161,114,63,-178,136,117,151,-68,-117,-131
-34,-200,-165,117,65,-183,141,126,156,-68,-117,-131
-34,-204,-170,119,68,-187,141,126,161,-68,-112,-131
-39,-214,-175,126,68,-195,131,117,156,-63,-112,-141
-43,-214,-170,129,63,-192,131,117,156,-63,-112,-136
-48,-214,-165,131,58,-190,126,117,156,-63,-112,-136
-53,-214,-161,134,53,-187,126,122,156,-58,-107,-136
-39,-209,-170,124,65,-190,126,122,161,-58,-117,-146
-39,-209,-170,124,65,-190,126,122,161,-58,-112,-146
-39,-204,-165,122,63,-185,126,126,165,-58,-107,-146
-39,-200,-161,119,61,-180,131,126,170,-53,-107,-146
-29,-200,-170,114,70,-185,141,126,161,-53,-102,-146
-29,-200,-170,114,70,-185,141,126,161,-48,-102,-146
-29,-200,-170,114,70,-185,136,126,161,-48,-102,-141
-24,-200,-175,112,75,-187,136,126,161,-43,-97,-141
-24,-209,-185,117,80,-197,126,126,161,-43,-107,-141
-24,-209,-185,117,80,-197,126,126,161,-39,-107,-141
-24,-209,-185,117,80,-197,126,131,165,-39,-107,-141
-24,-209,-185,117,80,-197,126,131,165,-39,-107,-141
-29,-209,-180,119,75,-195,126,126,165,-39,-97,-131
-24,-214,-190,119,82,-202,126,126,165,-39,-97,-141
-24,-214,-190,119,82,-202,126,126,165,-39,-92,-141
-24,-214,-190,119,82,-202,126,131,165,-39,-92,-141
-24,-204,-180,114,78,-192,136,131,175,-29,-107,-141
-24,-204,-180,114,78,-192,136,131,175,-24,-107,-141
-24,-204,-180,114,78,-192,136,131,175,-24,-107,-146
-24,-204,-180,114,78,-192,136,131,180,-24,-112,-146
-14,-204,-190,109,87,-197,136,131,180,-24,-112,-146
-9,-204,-195,107,92,-200,136,131,180,-24,-107,-146
-9,-204,-195,107,92,-200,136,131,180,-19,-107,-151
-14,-204,-190,109,87,-197,136,131,180,-14,-107,-156
-4,-204,-200,104,97,-202,131,131,180,-14,-112,-146
-9,-204,-195,107,92,-200,131,131,180,-14,-112,-146
-9,-209,-200,109,95,-204,131,131,180,-19,-117,-146
-9,-214,-204,112,97,-209,131,131,180,-19,-117,-146
-19,-214,-195,117,87,-204,131,131,170,-19,-112,-151
-14,-219,-204,117,95,-212,131,136,170,-9,-112,-151
-14,-219,-204,117,95,-212,131,146,170,-9,-112,-151
-19,-219,-200,119,90,-209,131,146,170,-4,-112,-156
-9,-219,-209,114,100,-214,131,146,180,-4,-112,-165
-4,-219,-214,112,104,-217,131,146,180,-4,-112,-170
0,-219,-219,109,109,-219,131,146,180,0,-112,-180
0,-219,-219,109,109,-219,131,146,180,4,-112,-180
-4,-219,-214,112,104,-217,131,146,190,14,-107,-175
-4,-219,-214,112,104,-217,131,146,190,14,-102,-170
-4,-224,-219,114,107,-222,131,146,190,19,-97,-165
-4,-224,-219,114,107,-222,131,146,190,24,-92,-161
-4,-224,-219,114,107,-222,122,136,185,19,-92,-170
-4,-219,-214,112,104,-217,122,131,180,24,-92,-170
-4,-219,-214,112,104,-217,122,131,175,29,-87,-170
-4,-219,-214,112,104,-217,122,131,165,29,-82,-170
-9,-229,-219,119,104,-224,122,136,165,34,-92,-170
-9,-224,-214,117,102,-219,122,136,156,39,-92,-170
-4,-224,-219,114,107,-222,122,131,156,39,-87,-165
-4,-224,-219,114,107,-222,117,131,156,43,-82,-165
4,-214,-219,104,112,-217,126,141,161,48,-73,-156
4,-214,-219,104,112,-217,122,136,165,53,-73,-151
4,-209,-214,102,109,-212,117,126,170,58,-68,-141
4,-204,-209,100,107,-207,107,126,165,63,-68,-141
4,-200,-204,97,104,-202,117,136,165,63,-58,-131
4,-200,-204,97,104,-202,117,136,156,68,-53,-131
4,-195,-200,95,102,-197,117,136,151,68,-53,-131
4,-195,-200,95,102,-197,112,126,146,63,-53,-131
4,-200,-204,97,104,-202,97,122,131,73,-63,-126
4,-195,-200,95,102,-197,97,117,131,73,-63,-117
4,-190,-195,92,100,-192,92,112,126,73,-58,-117
9,-190,-200,90,104,-195,92,112,126,68,-58,-117
9,-175,-185,82,97,-180,82,112,122,68,-53,-117
9,-170,-180,80,95,-175,78,107,117,68,-39,-107
9,-165,-175,78,92,-170,73,107,112,68,-34,-102
9,-161,-170,75,90,-165,68,102,112,63,-29,-97
14,-161,-175,73,95,-168,73,97,97,63,-39,-92
24,-156,-180,65,102,-168,73,92,97,68,-29,-87
29,-151,-180,61,104,-165,73,87,92,73,-24,-82
34,-141,-175,53,104,-158,73,82,92,78,-19,-78
29,-131,-161,51,95,-146,58,78,97,82,-24,-82
29,-112,-141,41,85,-126,48,68,92,87,-14,-73
29,-107,-136,39,82,-122,43,63,87,82,-14,-63
29,-92,-122,31,75,-107,34,48,87,78,-4,-58
24,-87,-112,31,68,-100,19,43,92,87,4,-43
24,-78,-102,26,63,-90,19,43,87,87,9,-34
29,-73,-102,21,65,-87,19,43,87,87,9,-34
29,-63,-92,17,61,-78,19,39,92,87,14,-29
29,-58,-87,14,58,-73,14,34,82,97,19,-19
39,-39,-78,0,58,-58,9,29,73,97,24,-24
39,-19,-58,-9,48,-39,9,19,68,87,19,-19
29,-29,-58,0,43,-43,0,9,58,78,19,-19
29,-29,-58,0,43,-43,0,9,58,78,19,-19
29,-29,-58,0,43,-43,0,9,58,78,19,-19
29,-29,-58,0,43,-43,0,9,58,78,19,-19
19,-24,-43,2,31,-34,-4,14,63,73,19,-19
19,-19,-39,0,29,-29,-4,9,58,73,24,-19
19,-19,-39,0,29,-29,-9,4,53,68,24,-19
19,-14,-34,-2,26,-24,-9,0,48,63,24,-14
29,-4,-34,-12,31,-19,-9,0,34,63,34,0
29,-4,-34,-12,31,-19,-9,0,34,63,34,0
34,0,-34,-17,34,-17,-14,0,34,53,34,0
34,0,-34,-17,34,-17,-14,0,34,53,34,0
29,-9,-39,-9,34,-24,-14,-4,24,39,29,0
29,-9,-39,-9,34,-24,-14,-9,19,34,29,0
29,-14,-43,-7,36,-29,-14,-19,19,29,29,0
29,-19,-48,-4,39,-34,-14,-24,14,19,29,0
39,-29,-68,-4,53,-48,-14,-14,9,14,19,-9
39,-19,-58,-9,48,-39,-19,-14,4,9,9,-4
39,-19,-58,-9,48,-39,-24,-24,4,9,9,-4
39,-14,-53,-12,46,-34,-24,-29,4,4,9,0
39,-24,-63,-7,51,-43,-34,-19,14,0,9,0
39,-19,-58,-9,48,-39,-34,-24,4,-4,14,0
48,-19,-68,-14,58,-43,-39,-29,4,-4,14,4
58,-14,-73,-21,65,-43,-43,-29,4,-4,14,14
63,-4,-68,-29,65,-36,-48,-19,4,4,24,19
68,-9,-78,-29,73,-43,-48,-19,4,4,29,24
73,-9,-82,-31,78,-46,-53,-9,9,0,29,24
78,-9,-87,-34,82,-48,-53,-9,9,-4,29,29
87,-24,-112,-31,100,-68,-43,-14,9,-14,19,34
97,-24,-122,-36,109,-73,-39,-14,9,-14,24,39
112,-24,-136,-43,124,-80,-39,-4,24,-19,24,43
122,-24,-146,-48,134,-85,-39,4,24,-19,29,48
136,-29,-165,-53,151,-97,-34,14,14,-19,19,53
136,-34,-170,-51,153,-102,-29,14,19,-19,19,53
136,-34,-170,-51,153,-102,-14,14,19,-19,19,53
131,-34,-165,-48,148,-100,-9,19,29,-14,19,48
112,-39,-151,-36,131,-95,4,24,39,-4,24,53
97,-48,-146,-24,122,-97,19,39,48,-4,24,53
73,-58,-131,-7,102,-95,34,48,58,-9,14,34
58,-68,-126,4,92,-97,48,53,68,-19,9,24
34,-87,-122,26,78,-104,48,48,58,-24,0,4
19,-112,-131,46,75,-122,58,53,58,-29,-14,0
9,-122,-131,56,70,-126,68,58,58,-39,-24,-14
9,-131,-141,61,75,-136,73,63,53,-48,-34,-24
-9,-131,-122,70,56,-126,92,68,53,-43,-34,-19
-9,-141,-131,75,61,-136,92,68,58,-48,-34,-24
-9,-151,-141,80,65,-146,102,73,58,-48,-39,-34
-14,-151,-136,82,61,-143,102,78,58,-53,-48,-34
-24,-170,-146,97,61,-158,117,82,73,-63,-48,-48
-29,-180,-151,104,61,-165,122,92,82,-68,-58,-63
-29,-190,-161,109,65,-175,126,102,82,-68,-58,-68
-34,-190,-156,112,61,-173,136,112,87,-68,-58,-68
-24,-190,-165,107,70,-178,136,112,87,-68,-78,-78
-24,-190,-165,107,70,-178,136,112,87,-73,-82,-78
-24,-195,-170,109,73,-183,141,107,87,-73,-87,-82
-29,-195,-165,112,68,-180,141,102,92,-68,-92,-82
-39,-195,-156,117,58,-175,131,107,82,-63,-82,-82
-34,-200,-165,117,65,-183,141,107,87,-63,-82,-82
-34,-200,-165,117,65,-183,141,107,87,-63,-82,-82
-34,-200,-165,117,65,-183,141,112,92,-63,-82,-82
-34,-209,-175,122,70,-192,131,102,97,-73,-82,-87
-34,-214,-180,124,73,-197,131,102,97,-68,-82,-87
-34,-214,-180,124,73,-197,136,107,102,-68,-82,-87
-34,-214,-180,124,73,-197,136,107,102,-63,-82,-87
-24,-204,-180,114,78,-192,146,117,112,-58,-82,-82
-19,-204,-185,112,82,-195,141,117,112,-53,-82,-82
-19,-209,-190,114,85,-200,141,117,117,-43,-78,-82
-19,-209,-190,114,85,-200,141,117,117,-39,-78,-78
-9,-200,-190,104,90,-195,136,126,107,-39,-73,-78
-9,-200,-190,104,90,-195,141,131,117,-29,-68,-78
-9,-200,-190,104,90,-195,141,131,117,-29,-63,-78
-9,-200,-190,104,90,-195,141,131,117,-29,-58,-78
-14,-200,-185,107,85,-192,151,122,122,-24,-58,-82
-14,-200,-185,107,85,-192,151,126,122,-24,-58,-82
-9,-200,-190,104,90,-195,151,126,126,-19,-58,-82
-9,-200,-190,104,90,-195,151,126,126,-19,-53,-82
-19,-209,-190,114,85,-200,141,126,131,-19,-43,-78
-19,-204,-185,112,82,-195,141,126,131,-14,-43,-78
-19,-204,-185,112,82,-195,136,126,136,-14,-43,-78
-19,-204,-185,112,82,-195,136,126,136,-9,-43,-78
-9,-204,-195,107,92,-200,146,126,136,-9,-53,-78
-9,-204,-195,107,92,-200,146,126,136,-4,-48,-78
-19,-204,-185,112,82,-195,146,126,136,0,-43,-68
-19,-204,-185,112,82,-195,146,126,136,4,-48,-73
-9,-209,-200,109,95,-204,146,131,151,19,-43,-73
4,-209,-214,102,109,-212,136,136,175,39,-39,-82
4,-200,-204,97,104,-202,146,146,204,68,-19,-82
4,-195,-200,95,102,-197,161,161,248,107,0,-73
4,-195,-200,95,102,-197,180,175,317,165,29,-73
4,-190,-195,92,100,-192,190,185,405,244,53,-82
4,-195,-200,95,102,-197,190,229,527,346,78,-82
9,-175,-185,82,97,-180,200,278,692,483,126,-68
9,-141,-151,65,80,-146,209,307,834,629,200,-53
9,-112,-122,51,65,-117,219,317,902,780,268,-39
9,-78,-87,34,48,-82,209,307,917,912,336,-24
29,-39,-68,4,48,-53,200,283,917,1019,419,19
43,9,-34,-26,39,-12,170,248,888,1117,502,73
53,73,19,-63,17,46,122,204,844,1239,595,146
97,156,58,-126,19,107,48,141,766,1390,717,239
151,244,92,-197,29,168,-43,73,673,1556,863,346
200,336,136,-268,31,236,-141,9,590,1761,1044,444
234,429,195,-331,19,312,-244,-68,492,1927,1205,546
278,522,244,-400,17,383,-336,-136,414,2083,1376,649
312,600,287,-456,12,444,-409,-195,336,2254,1556,751
331,702,370,-517,-19,536,-492,-307,117,2308,1693,854
302,829,527,-566,-112,678,-580,-458,-234,2181,1737,946
263,932,668,-597,-202,800,-649,-629,-634,1942,1698,1010
214,985,771,-600,-278,878,-702,-775,-1039,1634,1586,1029
165,1015,849,-590,-341,932,-736,-883,-1390,1185,1415,1019
122,1015,893,-568,-385,954,-756,-961,-1703,512,1127,995
63,932,868,-497,-402,900,-732,-1010,-2000,-351,712,907
14,800,785,-407,-385,793,-678,-976,-2156,-1063,317,800
-9,590,600,-290,-305,595,-570,-854,-2074,-1395,24,658
-29,331,361,-151,-195,346,-419,-683,-1854,-1527,-204,478
-43,170,214,-63,-129,192,-307,-551,-1605,-1556,-380,336
-53,126,180,-36,-117,153,-248,-463,-1376,-1434,-429,258
-24,68,92,-21,-58,80,-204,-361,-1117,-1210,-375,224
4,4,0,-4,2,2,-126,-248,-863,-1005,-326,190
-4,-43,-39,24,17,-41,-73,-161,-649,-834,-302,122
-29,-87,-58,58,14,-73,-9,-78,-448,-678,-292,29
-43,-136,-92,90,24,-114,58,0,-268,-512,-273,-68
-34,-165,-131,100,48,-148,92,39,-131,-366,-244,-126
-29,-165,-136,97,53,-151,102,43,-43,-248,-204,-151
-29,-175,-146,102,58,-161,117,73,24,-170,-180,-151
-29,-200,-170,114,70,-185,122,102,63,-126,-161,-146
-29,-209,-180,119,75,-195,131,107,82,-112,-151,-136
-24,-204,-180,114,78,-192,141,97,82,-107,-141,-131
-19,-204,-185,112,82,-195,146,107,97,-107,-131,-122
-14,-204,-190,109,87,-197,146,117,122,-102,-122,-122
-9,-204,-195,107,92,-200,156,122,131,-82,-102,-112
-4,-204,-200,104,97,-202,161,136,141,-53,-92,-112
-4,-209,-204,107,100,-207,161,126,161,-24,-87,-122
-4,-214,-209,109,102,-212,165,136,170,-19,-87,-122
-4,-219,-214,112,104,-217,170,146,175,-19,-87,-122
-4,-224,-219,114,107,-222,170,146,180,-19,-82,-122
-4,-224,-219,114,107,-222,170,146,185,-29,-92,-131
-4,-224,-219,114,107,-222,170,146,185,-34,-92,-126
-4,-224,-219,114,107,-222,165,146,185,-39,-92,-126
-4,-224,-219,114,107,-222,165,151,185,-39,-87,-126
0,-224,-224,112,112,-224,156,141,180,-39,-92,-117
0,-229,-229,114,114,-229,156,141,180,-39,-92,-117
0,-229,-229,114,114,-229,156,146,185,-39,-92,-117
0,-229,-229,114,114,-229,161,146,190,-34,-97,-117
0,-229,-229,114,114,-229,161,146,190,-24,-102,-117
0,-229,-229,114,114,-229,161,146,190,-19,-102,-117
0,-229,-229,114,114,-229,156,146,190,-19,-102,-112
4,-229,-234,112,119,-231,156,146,190,-14,-97,-112
4,-229,-234,112,119,-231,165,156,200,-14,-97,-122
4,-229,-234,112,119,-231,165,156,200,-9,-97,-122
4,-229,-234,112,119,-231,165,161,204,-9,-97,-122
4,-229,-234,112,119,-231,165,161,204,-9,-97,-122
0,-229,-229,114,114,-229,156,156,204,-9,-97,-112
4,-234,-239,114,122,-236,156,156,204,-9,-97,-122
4,-234,-239,114,122,-236,156,156,204,-9,-92,-122
4,-234,-239,114,122,-236,156,161,204,-9,-92,-122
14,-234,-248,109,131,-241,165,161,204,-9,-97,-112
14,-234,-248,109,131,-241,165,161,204,-4,-97,-112
14,-234,-248,109,131,-241,165,161,204,-4,-97,-117
14,-234,-248,109,131,-241,165,161,209,-4,-102,-117
4,-234,-239,114,122,-236,165,170,209,-4,-92,-126
9,-234,-244,112,126,-239,165,170,209,-4,-87,-126
9,-234,-244,112,126,-239,165,170,209,0,-87,-131
4,-234,-239,114,122,-236,165,170,209,4,-87,-136
14,-224,-239,104,126,-231,170,161,209,4,-92,-126
9,-224,-234,107,122,-229,170,161,209,4,-92,-126
9,-229,-239,109,124,-234,170,161,209,0,-97,-126
9,-234,-244,112,126,-239,170,161,209,0,-97,-126
9,-234,-244,112,126,-239,161,161,209,0,-92,-126
14,-239,-253,112,134,-246,161,165,209,9,-92,-122
14,-239,-253,112,134,-246,161,175,209,9,-92,-117
9,-239,-248,114,129,-244,161,175,209,14,-92,-117
0,-248,-248,124,124,-248,170,175,209,14,-92,-117
4,-248,-253,122,129,-251,170,175,209,14,-92,-122
9,-248,-258,119,134,-253,170,175,209,19,-92,-131
9,-248,-258,119,134,-253,170,175,209,24,-92,-131
24,-248,-273,112,148,-261,170,175,209,24,-92,-141
24,-248,-273,112,148,-261,170,175,209,24,-92,-141
24,-253,-278,114,151,-265,170,175,209,29,-92,-141
24,-253,-278,114,151,-265,170,175,209,34,-92,-141
34,-253,-287,109,161,-270,170,185,200,29,-73,-131
34,-248,-283,107,158,-265,170,180,200,34,-73,-131
34,-248,-283,107,158,-265,170,180,200,39,-68,-131
34,-248,-283,107,158,-265,170,180,195,39,-63,-131
29,-248,-278,109,153,-263,170,185,200,53,-53,-141
19,-244,-263,112,141,-253,170,185,195,58,-53,-141
14,-244,-258,114,136,-251,170,180,200,58,-48,-136
4,-244,-248,119,126,-246,165,180,204,63,-43,-136
4,-253,-258,124,131,-256,165,190,195,63,-58,-131
4,-253,-258,124,131,-256,161,185,195,63,-63,-122
4,-248,-253,122,129,-251,156,175,195,63,-63,-107
4,-244,-248,119,126,-246,146,175,185,63,-68,-102
14,-229,-244,107,129,-236,146,165,175,53,-68,-97
14,-229,-244,107,129,-236,146,165,165,58,-63,-92
14,-224,-239,104,126,-231,146,165,161,58,-63,-87
14,-224,-239,104,126,-231,141,156,156,53,-63,-82
24,-229,-253,102,139,-241,126,151,161,63,-53,-78
24,-224,-248,100,136,-236,126,146,161,63,-53,-68
24,-219,-244,97,134,-231,122,141,156,63,-48,-68
29,-219,-248,95,139,-234,122,141,156,58,-48,-68
29,-214,-244,92,136,-229,122,141,141,48,-58,-58
29,-209,-239,90,134,-224,117,136,136,48,-48,-48
29,-204,-234,87,131,-219,112,136,131,48,-48,-43
29,-200,-229,85,129,-214,107,131,131,43,-48,-39
29,-195,-224,82,126,-209,107,117,117,43,-43,-39
34,-185,-219,75,126,-202,102,112,117,48,-29,-39
34,-175,-209,70,122,-192,97,107,112,53,-19,-39
34,-161,-195,63,114,-178,92,102,112,58,-9,-39
29,-161,-190,65,109,-175,78,97,107,63,-14,-34
29,-141,-170,56,100,-156,68,87,102,68,-4,-24
29,-136,-165,53,97,-151,63,82,97,63,-4,-14
29,-122,-151,46,90,-136,53,68,97,58,4,-9
24,-117,-141,46,82,-129,48,63,92,68,4,4
24,-107,-131,41,78,-119,48,63,87,68,9,14
29,-102,-131,36,80,-117,48,63,87,68,9,14
29,-92,-122,31,75,-107,48,58,92,68,14,19
39,-78,-117,19,78,-97,34,43,82,68,19,19
39,-68,-107,14,73,-87,39,39,78,68,29,19
29,-63,-92,17,61,-78,34,29,73,68,29,19
29,-58,-87,14,58,-73,29,29,68,68,29,19
29,-53,-82,12,56,-68,24,29,63,68,29,19
29,-48,-78,9,53,-63,19,29,58,68,29,19
29,-43,-73,7,51,-58,14,14,53,53,19,29
29,-39,-68,4,48,-53,14,9,48,53,24,29
29,-39,-68,4,48,-53,9,4,43,48,24,29
29,-34,-63,2,46,-48,9,0,39,43,24,34
39,-24,-63,-7,51,-43,0,9,43,53,34,39
39,-24,-63,-7,51,-43,0,9,43,53,34,39
43,-19,-63,-12,53,-41,-4,9,43,43,34,39
43,-19,-63,-12,53,-41,-4,9,43,43,34,39
48,-9,-58,-19,53,-34,-4,9,34,39,29,48
48,-9,-58,-19,53,-34,-4,9,29,34,29,48
48,-14,-63,-17,56,-39,-4,4,29,29,29,48
48,-19,-68,-14,58,-43,-4,4,24,19,29,48
58,-29,-87,-14,73,-58,-14,4,19,14,39,58
58,-19,-78,-19,68,-48,-19,4,14,9,29,63
58,-19,-78,-19,68,-48,-24,-4,14,9,29,63
58,-14,-73,-21,65,-43,-24,-9,14,4,29,68
58,-14,-73,-21,65,-43,-24,-9,14,0,29,68
58,-9,-68,-24,63,-39,-24,-14,4,-4,34,68
68,-9,-78,-29,73,-43,-29,-19,4,-4,34,73
78,-4,-82,-36,80,-43,-34,-19,4,-4,34,82
82,0,-82,-41,82,-41,-48,-29,4,-4,34,87
87,0,-87,-43,87,-43,-48,-29,4,-4,39,92
92,4,-87,-48,90,-41,-53,-19,9,-9,39,92
97,9,-87,-53,92,-39,-53,-19,9,-14,39,97
117,4,-112,-61,114,-53,-43,-4,9,-14,39,92
126,4,-122,-65,124,-58,-39,-4,9,-14,43,97
141,4,-136,-73,139,-65,-39,4,24,-19,43,102
151,4,-146,-78,148,-70,-39,14,24,-19,48,107
165,4,-161,-85,163,-78,-29,24,34,-19,58,122
165,4,-161,-85,163,-78,-19,24,39,-19,58,122
165,9,-156,-87,161,-73,0,24,39,-19,58,122
161,14,-146,-87,153,-65,9,29,48,-14,58,117
151,9,-141,-80,146,-65,9,29,43,-14,58,122
136,0,-136,-68,136,-68,19,39,48,-14,53,122
112,-9,-122,-51,117,-65,29,43,53,-19,39,102
97,-19,-117,-39,107,-68,39,43,58,-29,29,92
73,-29,-102,-21,87,-65,48,39,48,-43,9,68
58,-53,-112,-2,85,-82,58,43,48,-48,-4,58
48,-63,-112,7,80,-87,68,48,48,-58,-14,39
48,-73,-122,12,85,-97,73,53,43,-68,-24,24
39,-82,-122,21,80,-102,82,58,43,-82,-43,29
39,-92,-131,26,85,-112,82,58,48,-87,-43,24
39,-102,-141,31,90,-122,92,63,48,-87,-48,14
34,-102,-136,34,85,-119,92,68,48,-92,-58,14
24,-112,-136,43,80,-124,97,78,43,-102,-48,0
19,-122,-141,51,80,-131,102,82,53,-107,-58,-14
19,-131,-151,56,85,-141,107,87,53,-107,-58,-19
14,-131,-146,58,80,-139,117,92,58,-107,-58,-19
4,-122,-126,58,65,-124,117,97,68,-97,-63,-9
4,-122,-126,58,65,-124,117,102,68,-102,-63,-9
4,-126,-131,61,68,-129,122,102,68,-102,-63,-14
0,-126,-126,63,63,-126,122,102,73,-97,-63,-14
0,-126,-126,63,63,-126,122,97,73,-102,-73,-4
4,-131,-136,63,70,-134,131,97,78,-102,-73,-4
4,-131,-136,63,70,-134,131,97,78,-102,-73,-4
4,-131,-136,63,70,-134,131,102,82,-102,-73,-4
4,-141,-146,68,75,-143,141,112,87,-112,-73,-9
4,-146,-151,70,78,-148,141,112,87,-107,-73,-9
4,-146,-151,70,78,-148,146,117,92,-107,-73,-9
4,-146,-151,70,78,-148,146,117,92,-102,-73,-9
4,-136,-141,65,73,-139,146,117,92,-92,-63,-24
9,-136,-146,63,78,-141,141,117,92,-92,-63,-24
9,-141,-151,65,80,-146,141,117,97,-87,-58,-24
9,-141,-151,65,80,-146,141,117,97,-87,-58,-19
9,-151,-161,70,85,-156,136,126,107,-87,-58,-29
9,-151,-161,70,85,-156,141,131,117,-78,-58,-29
9,-151,-161,70,85,-156,141,131,117,-78,-58,-29
9,-151,-161,70,85,-156,141,131,117,-78,-58,-29
4,-151,-156,73,80,-153,131,122,117,-73,-68,-19
4,-151,-156,73,80,-153,131,126,112,-73,-68,-14
9,-151,-161,70,85,-156,131,126,112,-68,-68,-9
9,-151,-161,70,85,-156,131,126,107,-68,-63,-4
19,-151,-170,65,95,-161,136,117,112,-73,-73,0
19,-146,-165,63,92,-156,141,117,112,-73,-73,0
19,-146,-165,63,92,-156,141,117,117,-78,-73,0
19,-146,-165,63,92,-156,146,117,117,-78,-73,0
19,-146,-165,63,92,-156,156,136,117,-78,-63,0
19,-146,-165,63,92,-156,136,136,117,-73,-68,-9
19,-146,-165,63,92,-156,136,136,126,-78,-63,-9
29,-146,-175,58,102,-161,146,136,136,-73,-68,-4
39,-151,-190,56,114,-170,156,151,151,-68,-63,4
43,-161,-204,58,124,-183,156,156,165,-58,-58,4
34,-151,-185,58,109,-168,156,156,185,-29,-48,4
43,-136,-180,46,112,-158,151,161,229,19,-19,4
43,-126,-170,41,107,-148,161,185,297,78,9,-4
53,-131,-185,39,119,-158,180,204,395,136,34,-14
43,-126,-170,41,107,-148,190,239,527,239,68,-4
48,-117,-165,34,107,-141,209,287,702,375,107,0
48,-92,-141,21,95,-117,239,326,854,541,180,14
58,-53,-112,-2,85,-82,258,346,951,712,268,39
68,0,-68,-34,68,-34,248,346,1005,873,356,82
78,29,-48,-53,63,-9,219,322,1005,1010,448,126
82,68,-14,-75,48,26,200,297,985,1137,541,170
102,141,39,-122,31,90,151,263,971,1288,644,224
146,214,68,-180,39,141,68,200,912,1449,775,317
200,302,102,-251,48,202,-24,141,858,1654,941,424
258,405,146,-331,56,275,-131,68,785,1878,1132,551
322,507,185,-414,68,346,-234,-9,697,2083,1312,673
375,610,234,-492,70,422,-336,-78,639,2308,1512,785
400,707,307,-553,46,507,-409,-146,561,2527,1712,878
400,810,409,-605,-4,610,-502,-258,351,2601,1839,961
380,946,566,-663,-92,756,-590,-429,9,2503,1883,1034
331,1029,697,-680,-183,863,-658,-600,-390,2303,1854,1098
283,1073,790,-678,-253,932,-712,-756,-844,1956,1742,1117
234,1122,888,-678,-326,1005,-756,-893,-1273,1400,1551,1127
180,1122,941,-651,-380,1032,-775,-990,-1673,600,1224,1102
122,1058,936,-590,-407,997,-741,-1019,-2010,-312,819,1034
73,907,834,-490,-380,871,-678,-985,-2156,-995,444,917
39,649,610,-344,-285,629,-561,-854,-2083,-1356,141,746
19,361,341,-190,-161,351,-409,-683,-1883,-1546,-107,556
4,219,214,-112,-104,217,-297,-551,-1664,-1605,-283,414
4,175,170,-90,-82,173,-229,-453,-1424,-1464,-312,336
24,107,82,-65,-29,95,-175,-361,-1176,-1239,-268,283
43,53,9,-48,17,31,-126,-258,-941,-1054,-248,248
43,24,-19,-34,31,2,-63,-161,-697,-883,-253,200
9,-19,-29,4,19,-24,-9,-68,-478,-707,-263,126
-14,-78,-63,46,24,-70,58,9,-287,-551,-253,29
-14,-107,-92,61,39,-100,102,48,-151,-424,-234,-19
0,-107,-107,53,53,-107,122,73,-73,-326,-195,-34
0,-126,-126,63,63,-126,126,82,-24,-268,-170,-24
9,-151,-161,70,85,-156,141,102,24,-234,-161,-9
9,-161,-170,75,90,-165,151,117,53,-219,-141,9
4,-165,-170,80,87,-168,151,126,73,-204,-122,14
9,-156,-165,73,87,-161,146,126,87,-185,-102,24
24,-146,-170,61,97,-158,146,126,92,-161,-92,14
29,-146,-175,58,102,-161,146,131,112,-151,-82,14
34,-156,-190,61,112,-173,141,136,112,-151,-92,4
34,-156,-190,61,112,-173,141,136,131,-141,-97,0
34,-156,-190,61,112,-173,146,146,141,-136,-97,-4
34,-156,-190,61,112,-173,151,156,146,-136,-97,-9
34,-156,-190,61,112,-173,151,156,151,-136,-92,-14
34,-146,-180,56,107,-163,161,156,156,-131,-92,-4
34,-146,-180,56,107,-163,161,156,156,-131,-92,0
34,-146,-180,56,107,-163,156,156,156,-131,-92,0
34,-146,-180,56,107,-163,156,161,156,-126,-87,0
29,-151,-180,61,104,-165,156,151,151,-107,-87,0
29,-161,-190,65,109,-175,156,151,151,-107,-82,0
29,-165,-195,68,112,-180,156,156,156,-107,-78,0
29,-170,-200,70,114,-185,161,156,161,-102,-78,0
29,-180,-209,75,119,-195,161,165,170,-102,-82,0
29,-180,-209,75,119,-195,161,165,170,-97,-82,0
29,-180,-209,75,119,-195,156,165,170,-97,-82,4
34,-180,-214,73,124,-197,156,165,170,-92,-78,4
43,-175,-219,65,131,-197,156,165,180,-82,-68,-4
43,-170,-214,63,129,-192,156,165,180,-78,-68,-4
43,-165,-209,61,126,-187,156,170,185,-78,-68,-4
43,-161,-204,58,124,-183,156,170,185,-78,-68,-4
43,-161,-204,58,124,-183,146,165,185,-68,-58,4
43,-165,-209,61,126,-187,146,165,185,-68,-58,-4
39,-165,-204,63,122,-185,146,165,185,-68,-53,-4
34,-165,-200,65,117,-183,146,170,185,-68,-53,-4
39,-165,-204,63,122,-185,156,161,180,-73,-68,9
43,-165,-209,61,126,-187,156,161,175,-73,-68,14
48,-165,-214,58,131,-190,156,161,170,-78,-68,14
53,-165,-219,56,136,-192,156,161,170,-82,-73,19
63,-156,-219,46,141,-187,156,165,180,-82,-63,19
68,-156,-224,43,146,-190,156,170,180,-82,-58,19
68,-156,-224,43,146,-190,156,175,180,-78,-58,14
63,-156,-219,46,141,-187,156,180,180,-73,-58,9
58,-165,-224,53,141,-195,151,175,170,-73,-53,9
48,-165,-214,58,131,-190,151,170,170,-73,-53,9
43,-170,-214,63,129,-192,151,165,170,-78,-58,9
39,-175,-214,68,126,-195,151,161,170,-78,-58,9
48,-180,-229,65,139,-204,161,161,170,-73,-58,0
53,-180,-234,63,143,-207,161,165,170,-58,-53,4
53,-175,-229,61,141,-202,161,175,170,-53,-48,9
48,-170,-219,61,134,-195,161,175,170,-43,-43,9
39,-170,-209,65,124,-190,151,165,170,-53,-48,19
43,-170,-214,63,129,-192,151,165,170,-53,-53,14
48,-170,-219,61,134,-195,151,165,170,-48,-58,4
48,-170,-219,61,134,-195,151,165,170,-43,-63,4
53,-170,-224,58,139,-197,151,165,170,-53,-73,14
53,-170,-224,58,139,-197,151,165,170,-53,-73,24
53,-175,-229,61,141,-202,151,165,170,-48,-73,34
53,-175,-229,61,141,-202,151,165,170,-43,-73,43
53,-185,-239,65,146,-212,141,175,170,-29,-53,43
53,-180,-234,63,143,-207,141,170,170,-24,-53,43
53,-180,-234,63,143,-207,141,170,170,-19,-48,43
53,-180,-234,63,143,-207,141,170,165,-19,-43,43
58,-165,-224,53,141,-195,131,165,156,-4,-43,34
58,-156,-214,48,136,-185,131,165,146,0,-43,34
63,-151,-214,43,139,-183,131,161,146,0,-39,39
63,-146,-209,41,136,-178,126,161,146,4,-34,39
73,-156,-229,41,151,-192,136,161,146,9,-24,48
73,-156,-229,41,151,-192,131,156,146,14,-24,53
73,-151,-224,39,148,-187,126,146,146,19,-19,63
73,-146,-219,36,146,-183,117,146,136,24,-19,63
82,-141,-224,29,153,-183,107,146,146,24,0,63
82,-141,-224,29,153,-183,107,146,136,29,4,63
82,-136,-219,26,151,-178,107,146,131,29,4,63
82,-136,-219,26,151,-178,102,136,126,24,4,63
82,-126,-209,21,146,-168,97,141,122,14,4,68
82,-117,-200,17,141,-158,97,136,122,14,4,78
82,-107,-190,12,136,-148,92,131,117,14,9,78
87,-102,-190,7,139,-146,92,131,117,9,9,78
97,-107,-204,4,151,-156,82,122,102,19,9,78
97,-102,-200,2,148,-151,78,117,97,19,19,87
97,-97,-195,0,146,-146,73,117,92,19,19,92
97,-92,-190,-2,143,-141,68,112,92,14,19,97
97,-87,-185,-4,141,-136,68,107,78,14,19,92
102,-78,-180,-12,141,-129,63,102,78,19,29,97
102,-68,-170,-17,136,-119,58,97,73,24,34,102
102,-53,-156,-24,129,-104,53,92,73,29,39,107
107,-48,-156,-29,131,-102,43,97,78,29,53,112
107,-34,-141,-36,124,-87,39,87,73,39,63,122
107,-34,-141,-36,124,-87,39,82,68,39,63,131
107,-24,-131,-41,119,-78,34,68,68,39,73,136
102,-9,-112,-46,107,-61,29,63,63,43,82,151
102,0,-102,-51,102,-51,29,63,58,48,87,161
107,4,-102,-56,104,-48,29,63,58,53,87,161
107,14,-92,-61,100,-39,29,58,63,58,92,165
107,48,-58,-78,82,-4,24,43,53,48,87,175
107,48,-58,-78,82,-4,19,39,53,48,92,180
107,53,-53,-80,80,0,4,39,58,48,102,170
107,53,-53,-80,80,0,14,34,58,43,102,175
107,48,-58,-78,82,-4,9,48,58,39,107,185
107,58,-48,-82,78,4,9,39,48,29,107,195
107,58,-48,-82,78,4,9,39,48,29,107,195
107,58,-48,-82,78,4,9,39,48,29,107,195
107,58,-48,-82,78,4,9,39,48,29,107,195
117,63,-53,-90,85,4,4,24,43,34,97,204
117,68,-48,-92,82,9,4,19,39,34,102,204
117,68,-48,-92,82,9,0,14,34,29,102,204
117,73,-43,-95,80,14,0,9,29,24,102,209
107,73,-34,-90,70,19,-9,9,24,14,102,200
107,73,-34,-90,70,19,-9,9,24,14,102,195
112,78,-34,-95,73,21,-14,9,24,4,102,190
112,78,-34,-95,73,21,-14,9,24,4,102,185
107,78,-29,-92,68,24,-4,9,14,-14,92,195
107,78,-29,-92,68,24,-4,9,9,-24,87,195
107,73,-34,-90,70,19,-4,4,9,-34,82,195
107,68,-39,-87,73,14,-4,4,4,-48,78,195
117,78,-39,-97,78,19,-14,4,-9,-43,87,195
117,87,-29,-102,73,29,-19,4,-14,-48,78,200
117,87,-29,-102,73,29,-24,-4,-14,-48,78,200
117,92,-24,-104,70,34,-24,-9,-14,-53,78,204
112,92,-19,-102,65,36,-43,-9,-4,-58,78,204
107,97,-9,-102,58,43,-43,-14,-14,-63,82,204
112,97,-14,-104,63,41,-48,-19,-14,-63,82,209
117,102,-14,-109,65,43,-53,-19,-14,-63,82,219
126,102,-24,-114,75,39,-53,-29,-24,-73,73,224
136,97,-39,-117,87,29,-48,-29,-24,-73,78,229
146,97,-48,-122,97,24,-48,-19,-19,-78,78,229
156,97,-58,-126,107,19,-43,-19,-19,-82,78,234
165,92,-73,-129,119,9,-53,-9,-9,-82,78,239
175,92,-82,-134,129,4,-48,-4,-9,-82,82,244
190,92,-97,-141,143,-2,-48,9,4,-87,82,248
200,92,-107,-146,153,-7,-48,24,4,-87,87,253
195,87,-107,-141,151,-9,-43,24,4,-97,78,258
195,82,-112,-139,153,-14,-39,24,9,-97,78,258
195,82,-112,-139,153,-14,-24,24,9,-97,78,258
190,82,-107,-136,148,-12,-19,29,19,-92,78,253
180,73,-107,-126,143,-17,-14,39,24,-82,78,248
165,58,-107,-112,136,-24,0,48,29,-82,73,248
141,43,-97,-92,119,-26,14,53,34,-87,58,229
126,29,-97,-78,112,-34,29,53,39,-97,48,219
122,19,-102,-70,112,-41,48,68,48,-102,48,190
107,-4,-112,-51,109,-58,58,73,48,-107,34,185
97,-14,-112,-41,104,-63,68,78,48,-117,24,170
97,-24,-122,-36,109,-73,73,82,43,-126,14,161
73,-14,-87,-29,80,-51,92,87,43,-131,14,161
68,-24,-92,-21,80,-58,92,87,48,-136,14,161
63,-34,-97,-14,80,-65,102,92,48,-136,9,156
53,-34,-87,-9,70,-61,102,97,48,-141,0,161
63,-43,-107,-9,85,-75,97,87,43,-151,-9,161
58,-53,-112,-2,85,-82,102,92,53,-156,-19,151
58,-63,-122,2,90,-92,107,97,53,-156,-19,151
53,-63,-117,4,85,-90,117,102,58,-156,-19,156
63,-53,-117,-4,90,-85,107,97,48,-156,-24,151
63,-53,-117,-4,90,-85,107,102,48,-161,-24,146
63,-58,-122,-2,92,-90,112,102,48,-161,-24,136
58,-58,-117,0,87,-87,112,102,53,-156,-24,131
58,-53,-112,-2,85,-82,107,97,53,-151,-34,126
63,-53,-117,-4,90,-85,112,97,58,-151,-34,122
63,-48,-112,-7,87,-80,107,97,58,-151,-34,117
63,-43,-107,-9,85,-75,102,102,63,-151,-34,112
73,-39,-112,-17,92,-75,102,102,58,-151,-24,117
73,-39,-112,-17,92,-75,102,102,58,-146,-24,117
73,-34,-107,-19,90,-70,107,107,63,-146,-24,117
73,-29,-102,-21,87,-65,107,107,63,-141,-24,117
82,-19,-102,-31,92,-61,107,107,63,-131,-24,112
87,-19,-107,-34,97,-63,102,107,63,-131,-24,112
87,-24,-112,-31,100,-68,102,107,68,-126,-19,112
87,-24,-112,-31,100,-68,102,107,68,-126,-19,117
78,-24,-102,-26,90,-63,107,107,78,-126,-19,107
78,-24,-102,-26,90,-63,112,112,87,-117,-19,107
78,-24,-102,-26,90,-63,112,112,87,-117,-19,107
78,-24,-102,-26,90,-63,112,112,87,-117,-19,107
73,-14,-87,-29,80,-51,112,112,92,-112,-19,102
73,-14,-87,-29,80,-51,112,117,92,-112,-19,102
78,-14,-92,-31,85,-53,112,117,97,-107,-19,102
78,-14,-92,-31,85,-53,112,117,97,-107,-14,102
78,-14,-92,-31,85,-53,112,117,92,-117,-14,107
78,-9,-87,-34,82,-48,112,117,92,-112,-14,107
78,-9,-87,-34,82,-48,107,117,97,-112,-14,107
78,-9,-87,-34,82,-48,107,117,97,-107,-14,107
78,-9,-87,-34,82,-48,107,117,97,-97,-4,107
78,-9,-87,-34,82,-48,97,117,107,-82,9,107
87,-19,-107,-34,97,-63,107,117,107,-78,4,107
87,-19,-107,-34,97,-63,107,126,117,-73,9,102
87,-14,-102,-36,95,-58,107,131,131,-48,24,102
92,-14,-107,-39,100,-61,107,146,165,-19,29,112
102,-4,-107,-48,104,-56,117,156,214,19,48,112
112,0,-112,-56,112,-56,122,180,278,68,58,112
112,9,-102,-61,107,-46,131,204,375,136,78,102
112,4,-107,-58,109,-51,141,244,512,234,112,102
112,19,-92,-65,102,-36,170,278,673,375,165,112
117,39,-78,-78,97,-19,200,317,829,531,234,117
117,73,-43,-95,80,14,229,336,941,678,307,131
126,112,-14,-119,70,48,219,346,990,829,385,156
126,146,19,-136,53,82,200,326,995,971,463,190
146,185,39,-165,53,112,170,312,976,1098,546,244
161,244,82,-202,39,163,131,278,966,1234,639,317
200,317,117,-258,41,217,63,224,922,1395,771,400
244,400,156,-322,43,278,-29,151,844,1595,932,492
307,497,190,-402,58,344,-131,73,780,1830,1117,590
366,619,253,-492,56,436,-229,0,717,2054,1307,688
409,732,322,-570,43,527,-331,-78,649,2269,1488,790
444,814,370,-629,36,592,-414,-146,590,2493,1678,893
448,912,463,-680,-7,688,-497,-234,424,2605,1839,995
419,1024,605,-722,-92,814,-570,-385,107,2552,1898,1088
370,1141,771,-756,-200,956,-649,-556,-283,2386,1883,1141
322,1205,883,-763,-280,1044,-707,-717,-712,2098,1795,1166
283,1249,966,-766,-341,1107,-761,-863,-1127,1634,1644,1156
224,1259,1034,-741,-405,1146,-785,-971,-1517,932,1376,1137
151,1229,1078,-690,-463,1154,-775,-1039,-1878,4,990,1054
92,1107,1015,-600,-461,1061,-732,-1029,-2098,-810,566,946
53,878,824,-466,-385,851,-619,-917,-2088,-1259,239,800
39,590,551,-314,-256,570,-463,-736,-1917,-1483,-34,619
19,380,361,-200,-170,370,-341,-585,-1737,-1605,-244,468
4,297,292,-151,-143,295,-268,-502,-1546,-1556,-341,395
34,234,200,-134,-82,217,-209,-395,-1298,-1366,-312,346
63,175,112,-119,-24,143,-156,-292,-1049,-1161,-258,312
63,141,78,-102,-7,109,-107,-200,-824,-985,-248,258
53,112,58,-82,-2,85,-53,-112,-590,-805,-253,180
39,58,19,-48,9,39,29,-29,-370,-639,-253,87
24,19,-4,-21,14,7,78,39,-200,-483,-234,29
24,9,-14,-17,19,-2,102,68,-102,-366,-204,0
39,0,-39,-19,39,-19,102,73,-53,-297,-175,4
48,0,-48,-24,48,-24,97,73,-24,-248,-151,4
39,-4,-43,-17,41,-24,102,82,14,-224,-122,9
39,-4,-43,-17,41,-24,112,97,34,-209,-112,9
53,0,-53,-26,53,-26,112,107,53,-214,-112,14
58,0,-58,-29,58,-29,117,117,78,-204,-112,14
63,0,-63,-31,63,-31,107,126,102,-180,-102,14
68,-9,-78,-29,73,-43,107,122,112,-161,-102,4
73,-19,-92,-26,82,-56,112,117,102,-141,-92,4
73,-19,-92,-26,82,-56,122,107,102,-131,-87,4
73,-19,-92,-26,82,-56,126,117,112,-126,-87,4
73,-19,-92,-26,82,-56,131,126,117,-126,-87,4
73,-19,-92,-26,82,-56,131,126,122,-126,-82,4
73,-19,-92,-26,82,-56,122,126,136,-122,-82,-4
73,-19,-92,-26,82,-56,122,126,136,-122,-82,0
73,-19,-92,-26,82,-56,117,126,136,-122,-82,0
73,-19,-92,-26,82,-56,117,131,136,-117,-78,0
68,-9,-78,-29,73,-43,126,122,131,-97,-87,-9
68,-14,-82,-26,75,-48,126,122,131,-97,-82,-9
68,-14,-82,-26,75,-48,126,126,136,-97,-78,-9
68,-14,-82,-26,75,-48,131,126,141,-92,-78,-9
68,-4,-73,-31,70,-39,122,117,141,-92,-73,-9
68,-4,-73,-31,70,-39,122,117,141,-87,-73,-9
68,-4,-73,-31,70,-39,117,117,141,-87,-73,-4
73,-4,-78,-34,75,-41,117,117,141,-82,-68,-4
73,-4,-78,-34,75,-41,117,122,141,-92,-78,-9
73,-4,-78,-34,75,-41,117,126,141,-87,-78,-14
73,-4,-78,-34,75,-41,117,136,146,-87,-78,-19
73,-4,-78,-34,75,-41,117,141,146,-87,-78,-24
78,4,-73,-41,75,-34,117,126,146,-87,-87,-24
82,0,-82,-41,82,-41,117,126,146,-87,-87,-34
82,0,-82,-41,82,-41,117,126,146,-87,-82,-34
82,0,-82,-41,82,-41,117,131,146,-87,-82,-34
82,0,-82,-41,82,-41,117,131,146,-78,-87,-34
82,0,-82,-41,82,-41,117,131,146,-73,-87,-34
82,0,-82,-41,82,-41,117,131,146,-73,-87,-39
82,0,-82,-41,82,-41,117,131,151,-73,-92,-39
82,0,-82,-41,82,-41,117,131,151,-73,-92,-48
87,0,-87,-43,87,-43,117,131,151,-73,-87,-48
87,0,-87,-43,87,-43,117,131,151,-68,-87,-53
82,0,-82,-41,82,-41,117,131,151,-63,-87,-58
82,0,-82,-41,82,-41,112,131,151,-58,-82,-58
78,0,-78,-39,78,-39,112,131,151,-53,-82,-58
78,-4,-82,-36,80,-43,112,131,151,-53,-87,-58
78,-9,-87,-34,82,-48,112,131,151,-48,-87,-58
78,-9,-87,-34,82,-48,112,131,141,-58,-82,-63
82,-14,-97,-34,90,-56,112,136,141,-48,-82,-63
82,-14,-97,-34,90,-56,112,146,141,-48,-82,-63
78,-14,-92,-31,85,-53,112,146,141,-43,-82,-68
68,-24,-92,-21,80,-58,122,136,141,-43,-92,-78
73,-24,-97,-24,85,-61,122,136,141,-43,-92,-82
78,-24,-102,-26,90,-63,122,136,141,-39,-92,-92
78,-24,-102,-26,90,-63,122,136,141,-34,-92,-92
73,-24,-97,-24,85,-61,107,136,141,-34,-92,-92
73,-24,-97,-24,85,-61,102,136,141,-34,-92,-92
73,-29,-102,-21,87,-65,97,136,141,-29,-92,-92
73,-29,-102,-21,87,-65,92,136,141,-24,-92,-92
73,-19,-92,-26,82,-56,92,126,141,-29,-92,-102
73,-14,-87,-29,80,-51,92,122,141,-24,-92,-102
73,-14,-87,-29,80,-51,92,122,141,-19,-87,-102
73,-14,-87,-29,80,-51,92,122,136,-19,-82,-102
78,-24,-102,-26,90,-63,97,136,146,-4,-82,-102
78,-19,-97,-29,87,-58,102,136,136,0,-82,-102
82,-19,-102,-31,92,-61,107,131,136,0,-78,-97
82,-19,-102,-31,92,-61,107,131,136,4,-73,-97
82,-9,-92,-36,87,-51,97,131,136,9,-63,-107
82,-9,-92,-36,87,-51,92,126,136,14,-63,-102
82,-4,-87,-39,85,-46,87,117,136,19,-58,-92
82,0,-82,-41,82,-41,78,117,126,24,-58,-92
82,-4,-87,-39,85,-46,78,117,126,34,-48,-92
82,-4,-87,-39,85,-46,78,117,117,39,-43,-92
82,0,-82,-41,82,-41,78,117,112,39,-43,-92
82,0,-82,-41,82,-41,73,107,107,34,-43,-92
92,14,-78,-53,85,-31,78,102,107,34,-43,-97
92,19,-73,-56,82,-26,78,97,112,34,-43,-87
92,24,-68,-58,80,-21,73,92,112,34,-39,-87
97,24,-73,-61,85,-24,73,92,117,29,-39,-87
97,29,-68,-63,82,-19,73,102,112,39,-29,-87
97,34,-63,-65,80,-14,68,97,107,39,-19,-78
97,39,-58,-68,78,-9,63,97,102,39,-19,-73
97,43,-53,-70,75,-4,58,92,102,34,-19,-68
97,53,-43,-75,70,4,58,87,97,34,-19,-68
102,58,-43,-80,73,7,53,82,97,39,-9,-68
102,63,-39,-82,70,12,48,78,92,43,-4,-68
102,73,-29,-87,65,21,43,73,92,48,0,-68
97,78,-19,-87,58,29,34,68,78,53,-4,-73
97,92,-4,-95,51,43,29,58,73,58,4,-63
97,92,-4,-95,51,43,29,53,68,53,4,-53
97,102,4,-100,46,53,24,39,68,48,14,-48
102,117,14,-109,43,65,14,24,53,48,19,-39
102,126,24,-114,39,75,9,24,48,48,19,-24
107,131,24,-119,41,78,4,24,48,48,14,-19
107,141,34,-124,36,87,0,19,53,48,14,-9
97,146,48,-122,24,97,4,14,53,58,19,0
97,156,58,-126,19,107,0,9,53,48,24,-4
117,156,39,-136,39,97,-9,9,48,48,19,-9
112,165,53,-139,29,109,-9,0,39,58,19,-9
107,165,58,-136,24,112,-9,0,39,58,19,-9
102,165,63,-134,19,114,-9,0,39,58,19,-9
97,165,68,-131,14,117,-9,0,39,58,19,-9
87,180,92,-134,-2,136,-14,-14,24,43,19,0
87,185,97,-136,-4,141,-14,-19,19,43,24,0
87,185,97,-136,-4,141,-19,-24,14,39,24,0
87,190,102,-139,-7,146,-19,-29,9,34,24,4
82,190,107,-136,-12,148,-19,-24,9,34,34,0
78,190,112,-134,-17,151,-19,-19,14,34,34,0
78,195,117,-136,-19,156,-24,-14,19,24,34,0
73,195,122,-134,-24,158,-24,-9,24,24,34,0
78,204,126,-141,-24,165,-14,0,24,29,39,0
78,204,126,-141,-24,165,-14,0,19,24,39,0
78,200,122,-139,-21,161,-14,-4,19,19,39,0
78,195,117,-136,-19,156,-14,-4,14,9,39,0
78,190,112,-134,-17,151,-24,-14,0,-4,29,-9
78,195,117,-136,-19,156,-29,-14,-4,-9,19,-4
78,190,112,-134,-17,151,-34,-24,-4,-9,19,-4
78,190,112,-134,-17,151,-34,-29,-4,-14,19,0
68,180,112,-124,-21,146,-34,-29,-14,-9,9,0
68,185,117,-126,-24,151,-34,-34,-24,-14,14,0
78,185,107,-131,-14,146,-39,-39,-24,-14,14,4
87,190,102,-139,-7,146,-43,-39,-24,-14,14,14
102,190,87,-146,7,139,-48,-48,-14,-14,24,14
107,185,78,-146,14,131,-48,-48,-14,-14,29,14
112,185,73,-148,19,129,-53,-39,-9,-19,29,9
117,185,68,-151,24,126,-53,-39,-9,-24,29,9
126,190,63,-158,31,126,-63,-34,-19,-34,24,24
136,190,53,-163,41,122,-58,-34,-19,-34,24,29
151,190,39,-170,56,114,-58,-24,-4,-39,19,34
161,190,29,-175,65,109,-58,-14,-4,-39,19,39
175,175,0,-175,87,87,-63,-4,4,-29,29,43
175,170,-4,-173,90,82,-58,-4,9,-29,29,43
175,170,-4,-173,90,82,-43,-4,9,-29,29,43
170,170,0,-170,85,85,-39,0,19,-24,29,39
170,175,4,-173,82,90,-34,-9,24,-24,39,34
156,165,9,-161,73,87,-19,0,29,-24,34,34
131,156,24,-143,53,90,-4,4,34,-29,19,14
117,146,29,-131,43,87,9,4,39,-39,9,4
92,136,43,-114,24,90,29,14,39,-34,9,-14
78,112,34,-95,21,73,39,24,39,-39,-4,-19
68,102,34,-85,17,68,48,34,39,-48,-14,-34
68,92,24,-80,21,58,53,43,34,-58,-24,-43
68,102,34,-85,17,68,63,48,43,-63,-34,-48
68,92,24,-80,21,58,63,48,48,-68,-34,-53
68,82,14,-75,26,48,73,53,48,-68,-39,-63
63,82,19,-73,21,51,73,58,48,-73,-48,-63
63,63,0,-63,31,31,78,48,43,-73,-58,-78
58,53,-4,-56,31,24,82,53,53,-78,-68,-92
58,43,-14,-51,36,14,87,58,53,-78,-68,-97
53,43,-9,-48,31,17,97,63,58,-78,-68,-97
43,34,-9,-39,26,12,97,68,58,-68,-63,-97
43,34,-9,-39,26,12,97,73,58,-73,-63,-97
43,29,-14,-36,29,7,102,73,58,-73,-63,-102
39,29,-9,-34,24,9,102,73,63,-68,-63,-102
48,39,-9,-43,29,14,112,78,63,-63,-63,-102
53,34,-19,-43,36,7,122,78,68,-63,-63,-102
53,34,-19,-43,36,7,122,78,68,-63,-63,-102
53,34,-19,-43,36,7,122,82,73,-63,-63,-102
53,34,-19,-43,36,7,122,82,78,-53,-63,-107
53,29,-24,-41,39,2,122,82,78,-48,-63,-107
53,29,-24,-41,39,2,126,87,82,-48,-63,-107
53,29,-24,-41,39,2,126,87,82,-43,-63,-107
43,29,-14,-36,29,7,117,87,73,-48,-63,-112
48,29,-19,-39,34,4,112,87,73,-53,-63,-112
48,24,-24,-36,36,0,112,87,78,-53,-58,-112
48,24,-24,-36,36,0,112,87,78,-58,-58,-107
43,19,-24,-31,34,-2,126,87,87,-58,-58,-107
39,14,-24,-26,31,-4,131,92,97,-48,-58,-107
34,9,-24,-21,29,-7,131,92,97,-48,-58,-107
29,4,-24,-17,26,-9,131,92,97,-48,-58,-107
24,4,-19,-14,21,-7,122,102,102,-43,-48,-112
24,4,-19,-14,21,-7,122,107,102,-43,-48,-112
29,4,-24,-17,26,-9,122,107,107,-39,-48,-112
29,4,-24,-17,26,-9,122,107,107,-39,-43,-112
19,-4,-24,-7,21,-14,131,117,112,-29,-43,-107
19,0,-19,-9,19,-9,131,117,112,-24,-43,-107
19,0,-19,-9,19,-9,126,117,117,-24,-43,-107
19,0,-19,-9,19,-9,126,117,117,-19,-43,-107
19,0,-19,-9,19,-9,146,126,117,-9,-34,-97
19,-9,-29,-4,24,-19,146,97,117,-14,-39,-97
9,-9,-19,0,14,-14,136,68,107,-19,-43,-97
19,-9,-29,-4,24,-19,126,78,117,-14,-29,-102
19,-14,-34,-2,26,-24,126,102,131,0,-24,-102
14,-14,-29,0,21,-21,126,117,156,19,-29,-102
24,-14,-39,-4,31,-26,126,117,175,39,-29,-102
43,-9,-53,-17,48,-31,122,131,219,87,-9,-102
43,0,-43,-21,43,-21,131,156,297,156,19,-102
43,4,-39,-24,41,-17,151,185,395,224,43,-102
43,19,-24,-31,34,-2,180,209,527,346,87,-102
48,29,-19,-39,34,4,200,248,683,492,146,-97
48,63,14,-56,17,39,209,258,795,619,219,-82
48,102,53,-75,-2,78,209,268,863,751,287,-58
48,136,87,-92,-19,112,190,268,888,902,366,-24
58,175,117,-117,-29,146,170,253,878,1019,448,9
73,214,141,-143,-34,178,141,219,839,1117,512,63
92,287,195,-190,-51,241,82,175,785,1249,614,136
136,370,234,-253,-48,302,9,112,717,1410,736,229
190,458,268,-324,-39,363,-82,43,624,1576,883,326
239,551,312,-395,-36,431,-180,-39,522,1751,1063,434
292,653,361,-473,-34,507,-283,-117,414,1917,1234,536
336,746,409,-541,-36,578,-375,-185,346,2083,1415,649
361,834,473,-597,-56,653,-448,-253,239,2225,1576,741
361,946,585,-653,-112,766,-531,-366,0,2230,1683,834
322,1063,741,-692,-209,902,-610,-527,-341,2064,1688,917
283,1156,873,-719,-295,1015,-678,-688,-751,1805,1629,971
244,1200,956,-722,-356,1078,-732,-814,-1176,1449,1517,990
195,1239,1044,-717,-424,1141,-766,-922,-1507,922,1317,1000
151,1229,1078,-690,-463,1154,-775,-1010,-1810,131,971,956
92,1146,1054,-619,-480,1100,-751,-1029,-2088,-722,556,868
53,1005,951,-529,-448,978,-678,-995,-2205,-1278,209,761
39,785,746,-412,-353,766,-561,-863,-2083,-1512,-43,619
19,536,517,-278,-248,527,-409,-683,-1834,-1605,-253,439
4,385,380,-195,-187,383,-297,-551,-1586,-1576,-400,317
-4,331,336,-163,-170,334,-248,-463,-1346,-1415,-409,248
14,263,248,-139,-117,256,-214,-370,-1078,-1190,-346,214
43,200,156,-122,-56,178,-165,-268,-844,-1005,-307,180
34,170,136,-102,-51,153,-112,-190,-649,-834,-292,122
9,117,107,-63,-48,112,-29,-117,-458,-668,-292,29
-4,58,63,-26,-34,61,48,-48,-278,-512,-273,-68
-4,29,34,-12,-19,31,82,-9,-141,-356,-234,-136
0,9,9,-4,-4,9,82,24,-53,-248,-204,-161
0,-9,-9,4,4,-9,87,43,-4,-190,-180,-161
0,-24,-24,12,12,-24,92,63,24,-165,-170,-156
9,-24,-34,7,21,-29,122,78,53,-151,-161,-156
14,-19,-34,2,24,-26,141,97,73,-146,-141,-141
19,-19,-39,0,29,-29,146,97,78,-146,-131,-141
24,-29,-53,2,39,-41,126,107,92,-131,-122,-141
29,-29,-58,0,43,-43,136,102,112,-112,-122,-141
34,-29,-63,-2,48,-46,141,107,122,-92,-122,-151
34,-29,-63,-2,48,-46,141,107,131,-73,-117,-151
34,-29,-63,-2,48,-46,146,117,141,-68,-117,-151
34,-29,-63,-2,48,-46,151,126,146,-68,-117,-151
34,-29,-63,-2,48,-46,151,126,151,-68,-112,-151
43,-29,-73,-7,58,-51,151,126,156,-73,-102,-141
43,-29,-73,-7,58,-51,151,126,156,-73,-102,-136
43,-29,-73,-7,58,-51,146,126,156,-73,-102,-136
43,-29,-73,-7,58,-51,146,131,156,-68,-97,-136
39,-29,-68,-4,53,-48,146,131,161,-58,-107,-146
39,-34,-73,-2,56,-53,146,131,161,-58,-102,-146
39,-34,-73,-2,56,-53,146,136,165,-58,-97,-146
39,-34,-73,-2,56,-53,151,136,170,-53,-97,-146
39,-34,-73,-2,56,-53,151,126,170,-53,-102,-156
39,-34,-73,-2,56,-53,151,126,170,-48,-102,-156
39,-34,-73,-2,56,-53,146,126,170,-48,-102,-151
43,-34,-78,-4,61,-56,146,126,170,-43,-97,-151
43,-34,-78,-4,61,-56,146,126,161,-43,-97,-141
43,-34,-78,-4,61,-56,146,126,161,-39,-97,-141
43,-34,-78,-4,61,-56,146,131,165,-39,-97,-141
43,-34,-78,-4,61,-56,146,131,165,-39,-97,-141
48,-34,-82,-7,65,-58,146,126,175,-39,-107,-141
53,-39,-92,-7,73,-65,146,126,175,-39,-107,-151
53,-39,-92,-7,73,-65,146,126,175,-39,-102,-151
53,-39,-92,-7,73,-65,146,131,175,-39,-102,-151
53,-48,-102,-2,78,-75,156,141,185,-29,-107,-161
53,-48,-102,-2,78,-75,156,141,185,-24,-107,-161
53,-48,-102,-2,78,-75,156,141,185,-24,-107,-165
53,-48,-102,-2,78,-75,156,141,190,-24,-112,-165
53,-48,-102,-2,78,-75,156,141,185,-24,-112,-156
58,-48,-107,-4,82,-78,156,141,180,-24,-107,-156
58,-48,-107,-4,82,-78,156,141,175,-19,-107,-161
53,-48,-102,-2,78,-75,156,141,170,-14,-107,-165
63,-48,-112,-7,87,-80,151,141,180,-14,-102,-156
58,-48,-107,-4,82,-78,151,141,180,-14,-102,-156
58,-53,-112,-2,85,-82,151,141,180,-19,-107,-156
58,-58,-117,0,87,-87,151,141,180,-19,-107,-156
58,-58,-117,0,87,-87,151,131,180,-24,-112,-161
63,-63,-126,0,95,-95,151,136,180,-19,-112,-161
63,-63,-126,0,95,-95,151,146,180,-24,-112,-161
58,-63,-122,2,90,-92,151,146,180,-24,-112,-165
48,-73,-122,12,85,-97,151,156,180,-14,-112,-165
53,-73,-126,9,90,-100,151,156,180,-14,-112,-170
58,-73,-131,7,95,-102,151,156,180,-9,-112,-180
58,-73,-131,7,95,-102,151,156,180,-4,-112,-180
63,-73,-136,4,100,-104,161,156,180,4,-107,-170
63,-73,-136,4,100,-104,161,156,180,4,-102,-170
63,-78,-141,7,102,-109,161,156,180,9,-97,-170
63,-78,-141,7,102,-109,161,156,180,14,-92,-170
53,-78,-131,12,92,-104,151,156,180,9,-87,-170
53,-73,-126,9,90,-100,151,151,180,14,-92,-170
53,-73,-126,9,90,-100,151,151,180,19,-92,-170
53,-73,-126,9,90,-100,151,151,175,19,-92,-170
48,-82,-131,17,90,-107,151,165,185,34,-102,-170
48,-78,-126,14,87,-102,151,165,175,39,-102,-170
53,-78,-131,12,92,-104,151,161,175,39,-97,-165
53,-78,-131,12,92,-104,146,161,175,43,-92,-165
58,-73,-131,7,95,-102,141,161,175,48,-82,-165
63,-68,-131,2,97,-100,131,156,175,53,-82,-161
68,-58,-126,-4,97,-92,122,146,175,58,-78,-151
73,-48,-122,-12,97,-85,107,146,165,63,-78,-151
73,-53,-126,-9,100,-90,117,141,156,53,-68,-141
73,-53,-126,-9,100,-90,117,136,146,58,-63,-141
73,-48,-122,-12,97,-85,117,131,141,58,-63,-141
73,-48,-122,-12,97,-85,112,117,136,53,-63,-141
82,-43,-126,-19,104,-85,117,117,131,53,-63,-146
82,-39,-122,-21,102,-80,117,117,131,53,-63,-136
82,-34,-117,-24,100,-75,112,117,126,53,-58,-136
87,-34,-122,-26,104,-78,112,122,126,48,-58,-136
78,-29,-107,-24,92,-68,112,117,122,58,-48,-126
78,-24,-102,-26,90,-63,107,107,117,58,-39,-117
78,-19,-97,-29,87,-58,102,102,112,58,-39,-112
78,-14,-92,-31,85,-53,97,92,112,53,-39,-107
87,-4,-92,-41,90,-48,87,87,107,53,-39,-102
92,0,-92,-46,92,-46,82,82,107,58,-29,-97
92,4,-87,-48,90,-41,78,78,102,63,-24,-92
92,14,-78,-53,85,-31,73,73,102,68,-19,-87
107,34,-73,-70,90,-19,58,63,87,73,-14,-92
107,53,-53,-80,80,0,48,48,82,78,-4,-82
107,58,-48,-82,78,4,43,39,78,73,-4,-73
107,73,-34,-90,70,19,34,19,78,68,4,-68
82,87,4,-85,39,46,29,34,82,87,14,-43
73,87,14,-80,29,51,39,34,87,87,19,-43
68,92,24,-80,21,58,39,34,87,97,19,-43
68,92,24,-80,21,58,39,39,82,97,24,-48
78,107,29,-92,24,68,29,39,87,97,29,-48
68,112,43,-90,12,78,19,34,82,92,19,-34
68,117,48,-92,9,82,19,29,78,87,19,-29
68,122,53,-95,7,87,19,24,73,82,19,-24
68,126,58,-97,4,92,19,19,68,78,19,-19
78,131,53,-104,12,92,4,4,53,63,29,-19
78,136,58,-107,9,97,4,0,48,63,34,-19
78,136,58,-107,9,97,0,-4,43,58,34,-19
78,141,63,-109,7,102,0,-9,39,53,34,-14
78,141,63,-109,7,102,0,-9,34,53,34,-9
78,141,63,-109,7,102,0,-9,34,53,34,-9
82,146,63,-114,9,104,-4,-9,34,43,34,-9
82,146,63,-114,9,104,-4,-9,34,43,34,-9
97,156,58,-126,19,107,-4,-9,34,39,24,-19
97,156,58,-126,19,107,-4,-9,29,34,19,-19
97,151,53,-124,21,102,-4,-14,29,29,14,-19
97,146,48,-122,24,97,-4,-14,24,19,9,-19
97,136,39,-117,29,87,-14,-14,14,4,9,-19
97,146,48,-122,24,97,-19,-14,4,0,0,-14
97,146,48,-122,24,97,-24,-24,0,0,0,-14
97,151,53,-124,21,102,-24,-29,-4,-4,0,-9
97,141,43,-119,26,92,-24,-29,-4,-9,0,-9
97,146,48,-122,24,97,-24,-34,-14,-14,4,-9
107,146,39,-126,34,92,-29,-39,-14,-14,4,-4
117,151,34,-134,41,92,-34,-39,-14,-14,4,4
122,151,29,-136,46,90,-48,-39,-4,-4,14,9
126,146,19,-136,53,82,-48,-39,-4,-4,19,14
131,146,14,-139,58,80,-53,-29,0,-9,19,14
136,146,9,-141,63,78,-53,-29,0,-14,19,19
146,141,-4,-143,75,68,-43,-24,-9,-24,19,14
156,141,-14,-148,85,63,-39,-24,-9,-24,24,19
170,141,-29,-156,100,56,-39,-14,4,-29,24,24
180,141,-39,-161,109,51,-39,-4,4,-29,29,29
195,136,-58,-165,126,39,-34,-4,4,-39,29,34
195,131,-63,-163,129,34,-29,-4,9,-39,29,34
195,131,-63,-163,129,34,-14,-4,9,-39,29,34
190,131,-58,-161,124,36,-9,0,19,-34,29,29
170,136,-34,-153,102,51,-14,0,24,-24,19,34
156,126,-29,-141,92,48,0,9,29,-24,14,34
131,117,-14,-124,73,51,14,14,34,-29,0,14
117,107,-9,-112,63,48,29,14,39,-39,-9,4
102,97,-4,-100,53,46,48,29,48,-43,-19,-24
87,73,-14,-80,51,29,58,34,48,-48,-34,-29
78,63,-14,-70,46,24,68,39,48,-58,-43,-43
78,53,-24,-65,51,14,73,43,43,-68,-53,-53
78,53,-24,-65,51,14,73,48,29,-82,-63,-58
78,43,-34,-61,56,4,73,48,29,-87,-63,-63
78,34,-43,-56,61,-4,82,53,24,-87,-68,-73
73,34,-39,-53,56,-2,82,58,19,-92,-78,-73
73,34,-39,-53,56,-2,87,68,29,-82,-68,-78
68,24,-43,-46,56,-9,92,73,43,-87,-78,-92
68,14,-53,-41,61,-19,97,78,48,-87,-78,-97
63,14,-48,-39,56,-17,107,82,58,-87,-78,-97
53,14,-39,-34,46,-12,117,82,48,-97,-82,-107
53,14,-39,-34,46,-12,117,82,48,-102,-82,-107
53,9,-43,-31,48,-17,122,78,48,-102,-82,-112
48,9,-39,-29,43,-14,122,73,53,-97,-82,-112
48,9,-39,-29,43,-14,112,87,63,-92,-92,-102
53,4,-48,-29,51,-21,122,87,68,-92,-92,-102
53,4,-48,-29,51,-21,122,87,68,-92,-92,-102
53,4,-48,-29,51,-21,122,92,73,-92,-92,-102
63,4,-58,-34,61,-26,122,82,68,-102,-102,-117
63,0,-63,-31,63,-31,122,82,68,-97,-102,-117
63,0,-63,-31,63,-31,126,87,73,-97,-102,-117
63,0,-63,-31,63,-31,126,87,73,-92,-102,-117
53,0,-53,-26,53,-26,126,78,63,-82,-102,-112
58,0,-58,-29,58,-29,122,78,63,-82,-102,-112
58,-4,-63,-26,61,-34,122,78,68,-78,-97,-112
58,-4,-63,-26,61,-34,122,78,68,-78,-97,-107
53,-14,-68,-19,61,-41,131,92,73,-68,-92,-97
48,-14,-63,-17,56,-39,141,102,87,-58,-87,-97
43,-14,-58,-14,51,-36,146,107,92,-58,-82,-97
39,-14,-53,-12,46,-34,151,112,97,-58,-78,-97
39,-4,-43,-17,41,-24,136,107,92,-53,-87,-107
43,-4,-48,-19,46,-26,131,107,92,-53,-87,-112
53,-4,-58,-24,56,-31,126,102,97,-48,-87,-117
58,-4,-63,-26,61,-34,122,97,97,-48,-82,-122
48,-14,-63,-17,56,-39,126,97,92,-58,-73,-117
48,-9,-58,-19,53,-34,131,97,92,-53,-73,-117
48,-9,-58,-19,53,-34,131,97,97,-53,-73,-117
48,-9,-58,-19,53,-34,136,97,97,-48,-73,-117
39,-19,-58,-9,48,-39,136,117,107,-39,-73,-97
39,-19,-58,-9,48,-39,126,107,107,-43,-78,-97
39,-19,-58,-9,48,-39,107,97,97,-48,-82,-97
48,-19,-68,-14,58,-43,117,97,107,-53,-87,-102
58,-24,-82,-17,70,-53,136,112,122,-39,-73,-102
63,-34,-97,-14,80,-65,136,117,136,-19,-58,-102
73,-24,-97,-24,85,-61,136,126,156,0,-48,-102
82,9,-73,-46,78,-31,141,131,190,39,-39,-102
92,29,-63,-61,78,-17,151,156,258,117,0,-92
102,34,-68,-68,85,-17,161,185,366,195,24,-92
102,29,-73,-65,87,-21,170,200,468,268,48,-92
107,48,-58,-78,82,-4,190,229,585,385,87,-97
107,63,-43,-85,75,9,209,268,727,522,141,-82
97,73,-24,-85,61,24,219,278,834,663,200,-78
97,117,19,-107,39,68,219,278,878,814,278,-53
117,156,39,-136,39,97,200,273,907,941,370,-9
122,195,73,-158,24,134,170,248,878,1049,444,34
131,258,126,-195,2,192,122,214,834,1161,536,97
165,351,185,-258,-9,268,58,161,775,1302,649,180
219,429,209,-324,4,319,-24,92,683,1439,775,278
258,492,234,-375,12,363,-122,9,580,1615,927,375
302,585,283,-444,9,434,-224,-68,473,1800,1098,488
346,668,322,-507,12,495,-317,-126,385,1966,1278,590
380,746,366,-563,7,556,-390,-195,307,2147,1449,692
390,839,448,-614,-29,644,-473,-287,156,2269,1615,795
380,956,575,-668,-97,766,-561,-419,-136,2220,1688,897
351,1078,727,-714,-187,902,-649,-580,-507,2030,1688,980
312,1151,839,-732,-263,995,-712,-746,-922,1751,1634,1019
273,1190,917,-732,-322,1054,-756,-863,-1312,1351,1483,1029
229,1220,990,-724,-380,1105,-775,-951,-1625,775,1244,1015
180,1176,995,-678,-407,1085,-761,-1019,-1932,-48,868,946
122,1063,941,-592,-409,1002,-717,-1024,-2176,-878,444,858
78,893,814,-485,-368,854,-639,-941,-2191,-1356,122,736
58,644,585,-351,-263,614,-507,-790,-1981,-1517,-126,566
34,414,380,-224,-173,397,-366,-629,-1732,-1576,-322,395
14,341,326,-178,-156,334,-287,-522,-1493,-1532,-429,297
34,292,258,-163,-112,275,-224,-439,-1244,-1346,-414,244
63,209,146,-136,-41,178,-165,-326,-1000,-1122,-346,209
73,151,78,-112,-2,114,-102,-229,-775,-951,-312,161
58,107,48,-82,4,78,-48,-146,-575,-785,-312,87
34,48,14,-41,9,31,19,-68,-395,-619,-312,-19
24,9,-14,-17,19,-2,73,-19,-229,-453,-273,-107
29,0,-29,-14,29,-14,92,4,-102,-317,-234,-141
29,-9,-39,-9,34,-24,107,24,-24,-229,-209,-141
39,-24,-63,-7,51,-43,122,53,24,-185,-190,-146
39,-43,-82,2,61,-63,131,87,63,-161,-170,-136
43,-48,-92,2,68,-70,141,97,92,-146,-151,-131
39,-48,-87,4,63,-68,136,97,87,-146,-151,-131
43,-48,-92,2,68,-70,136,107,82,-131,-141,-131
48,-48,-97,0,73,-73,146,112,102,-112,-131,-131
53,-48,-102,-2,78,-75,151,117,131,-102,-112,-131
53,-58,-112,2,82,-85,151,107,141,-73,-117,-131
53,-58,-112,2,82,-85,156,117,151,-68,-117,-131
53,-58,-112,2,82,-85,161,126,156,-68,-117,-131
53,-58,-112,2,82,-85,161,126,161,-68,-112,-131
63,-58,-122,-2,92,-90,161,131,156,-63,-112,-131
63,-58,-122,-2,92,-90,161,136,156,-63,-112,-126
63,-58,-122,-2,92,-90,156,141,156,-63,-112,-126
63,-58,-122,-2,92,-90,156,151,156,-58,-107,-126
58,-58,-117,0,87,-87,146,146,170,-48,-117,-126
58,-63,-122,2,90,-92,146,141,170,-48,-112,-126
58,-63,-122,2,90,-92,146,141,175,-48,-107,-126
58,-63,-122,2,90,-92,151,136,180,-43,-107,-126
58,-63,-122,2,90,-92,161,146,180,-43,-102,-126
58,-63,-122,2,90,-92,161,146,180,-39,-102,-126
58,-63,-122,2,90,-92,156,146,180,-39,-102,-122
63,-63,-126,0,95,-95,156,146,180,-34,-97,-122
63,-73,-136,4,100,-104,156,136,180,-34,-107,-131
63,-73,-136,4,100,-104,156,136,180,-29,-107,-131
63,-73,-136,4,100,-104,156,141,185,-29,-107,-131
