I,II,III,aVR,aVL,aVF,V1,V2,V3,V4,V5,V6
-292,-146,146,219,-219,0,458,165,-165,-497,-263,-224
-292,-146,146,219,-219,0,458,165,-165,-497,-263,-224
-292,-146,146,219,-219,0,458,165,-165,-497,-263,-224
-292,-146,146,219,-219,0,458,165,-165,-497,-263,-224
-283,-156,126,219,-204,-14,483,244,-136,-463,-253,-214
-273,-165,107,219,-190,-29,507,322,-107,-429,-244,-214
-263,-175,87,219,-175,-43,531,400,-78,-395,-234,-214
-253,-185,68,219,-161,-58,556,478,-48,-361,-224,-214
-253,-185,68,219,-161,-58,585,473,-24,-331,-200,-200
-253,-185,68,219,-161,-58,614,468,-9,-302,-185,-185
-253,-185,68,219,-161,-58,644,463,4,-273,-170,-170
-253,-185,68,219,-161,-58,673,458,19,-244,-156,-156
-244,-195,48,219,-146,-73,697,370,9,-234,-146,-141
-244,-195,48,219,-146,-73,712,292,0,-224,-136,-136
-244,-195,48,219,-146,-73,727,214,-9,-214,-126,-131
-244,-195,48,219,-146,-73,741,136,-19,-204,-117,-126
-244,-195,48,219,-146,-73,717,43,-48,-190,-102,-107
-244,-195,48,219,-146,-73,702,-39,-68,-185,-87,-97
-244,-195,48,219,-146,-73,688,-122,-87,-180,-73,-87
-244,-195,48,219,-146,-73,673,-204,-107,-175,-58,-78
-234,-185,48,209,-141,-68,600,-234,-126,-165,-39,-58
-224,-175,48,200,-136,-63,527,-263,-136,-156,-29,-48
-214,-165,48,190,-131,-58,453,-292,-146,-146,-19,-39
-204,-156,48,180,-126,-53,380,-322,-156,-136,-9,-29
-180,-141,39,161,-109,-51,322,-322,-156,-126,9,-9
-165,-136,29,151,-97,-53,263,-322,-156,-117,19,0
-151,-131,19,141,-85,-56,204,-322,-156,-107,29,9
-136,-126,9,131,-73,-58,146,-322,-156,-97,39,19
-117,-117,0,117,-58,-58,102,-307,-136,-78,53,34
-107,-107,0,107,-53,-53,68,-292,-126,-68,58,39
-97,-97,0,97,-48,-48,34,-278,-117,-58,63,43
-87,-87,0,87,-43,-43,0,-263,-107,-48,68,48
-82,-87,-4,85,-39,-46,-14,-253,-102,-34,82,53
-78,-87,-9,82,-34,-48,-29,-253,-97,-29,87,58
-73,-87,-14,80,-29,-51,-43,-253,-92,-24,92,63
-68,-87,-19,78,-24,-53,-58,-253,-87,-19,97,68
-63,-82,-19,73,-21,-51,-68,-253,-97,-9,107,68
-58,-78,-19,68,-19,-48,-68,-253,-97,-9,107,68
-53,-73,-19,63,-17,-46,-68,-253,-97,-9,107,68
-48,-68,-19,58,-14,-43,-68,-253,-97,-9,107,68
-43,-78,-34,61,-4,-56,-78,-253,-107,-9,117,68
-39,-78,-39,58,0,-58,-78,-253,-107,-9,117,68
-34,-78,-43,56,4,-61,-78,-253,-107,-9,117,68
-29,-78,-48,53,9,-63,-78,-253,-107,-9,117,68
-34,-78,-43,56,4,-61,-78,-248,-97,0,126,73
-39,-78,-39,58,0,-58,-78,-244,-97,0,126,78
-43,-78,-34,61,-4,-56,-78,-239,-97,0,126,82
-48,-78,-29,63,-9,-53,-78,-234,-97,0,126,87
-48,-68,-19,58,-14,-43,-78,-244,-97,0,136,97
-48,-68,-19,58,-14,-43,-78,-244,-97,0,136,97
-48,-68,-19,58,-14,-43,-78,-244,-97,0,136,97
-48,-68,-19,58,-14,-43,-78,-244,-97,0,136,97
-48,-68,-19,58,-14,-43,-82,-248,-107,-9,136,87
-48,-68,-19,58,-14,-43,-87,-253,-107,-9,136,87
-48,-68,-19,58,-14,-43,-92,-258,-107,-9,136,87
-48,-68,-19,58,-14,-43,-97,-263,-107,-9,136,87
-58,-78,-19,68,-19,-48,-97,-273,-112,-9,136,97
-58,-78,-19,68,-19,-48,-97,-273,-117,-9,136,97
-58,-78,-19,68,-19,-48,-97,-273,-122,-9,136,97
-58,-78,-19,68,-19,-48,-97,-273,-126,-9,136,97
-68,-78,-9,73,-29,-43,-107,-273,-126,-9,136,97
-68,-78,-9,73,-29,-43,-107,-273,-126,-9,136,97
-68,-78,-9,73,-29,-43,-107,-273,-126,-9,136,97
-68,-78,-9,73,-29,-43,-107,-273,-126,-9,136,97
-53,-78,-24,65,-14,-51,-117,-273,-136,-9,126,87
-48,-78,-29,63,-9,-53,-117,-273,-136,-9,126,87
-43,-78,-34,61,-4,-56,-117,-273,-136,-9,126,87
-39,-78,-39,58,0,-58,-117,-273,-136,-9,126,87
-39,-78,-39,58,0,-58,-122,-268,-126,-4,136,97
-39,-78,-39,58,0,-58,-126,-263,-126,0,136,97
-39,-78,-39,58,0,-58,-131,-258,-126,4,136,97
-39,-78,-39,58,0,-58,-136,-253,-126,9,136,97
-29,-87,-58,58,14,-73,-136,-244,-126,14,126,97
-29,-87,-58,58,14,-73,-136,-244,-126,19,126,97
-29,-87,-58,58,14,-73,-136,-244,-126,24,126,97
-29,-87,-58,58,14,-73,-136,-244,-126,29,126,97
-14,-92,-78,53,31,-85,-151,-253,-136,39,117,97
-9,-97,-87,53,39,-92,-156,-253,-136,39,117,97
-4,-102,-97,53,46,-100,-161,-253,-136,39,117,97
0,-107,-107,53,53,-107,-165,-253,-136,39,117,97
14,-97,-112,41,63,-104,-170,-253,-136,48,107,87
19,-97,-117,39,68,-107,-175,-253,-136,48,107,87
24,-97,-122,36,73,-109,-180,-253,-136,48,107,87
29,-97,-126,34,78,-112,-185,-253,-136,48,107,87
39,-102,-141,31,90,-122,-200,-258,-136,48,97,87
39,-107,-146,34,92,-126,-204,-263,-136,48,97,87
39,-112,-151,36,95,-131,-209,-268,-136,48,97,87
39,-117,-156,39,97,-136,-219,-263,-136,53,97,82
39,-112,-151,36,95,-131,-219,-253,-136,53,92,82
39,-112,-151,36,95,-131,-224,-248,-126,53,92,82
43,-112,-156,34,100,-134,-224,-234,-112,63,92,78
43,-112,-156,34,100,-134,-219,-219,-97,68,82,78
48,-122,-170,36,109,-146,-214,-209,-82,73,82,73
48,-126,-175,39,112,-151,-214,-200,-73,82,82,73
53,-131,-185,39,119,-158,-209,-185,-63,87,82,73
53,-131,-185,39,119,-158,-209,-175,-48,97,78,73
63,-131,-195,34,129,-163,-204,-146,-39,102,68,73
63,-131,-195,34,129,-163,-200,-117,-24,112,68,73
63,-136,-200,36,131,-168,-195,-92,-9,117,68,73
68,-136,-204,34,136,-170,-190,-68,9,117,63,68
58,-136,-195,39,126,-165,-185,-48,19,112,73,68
53,-136,-190,41,122,-163,-170,-29,39,122,73,68
53,-136,-190,41,122,-163,-156,-9,58,126,68,68
53,-136,-190,41,122,-163,-156,9,82,131,68,68
53,-122,-175,34,114,-148,-151,34,102,131,73,68
53,-107,-161,26,107,-134,-131,68,122,141,73,73
53,-102,-156,24,104,-129,-112,102,141,151,78,73
53,-92,-146,19,100,-119,-87,136,161,165,78,73
58,-92,-151,17,104,-122,-63,156,190,180,87,82
58,-92,-151,17,104,-122,-48,175,200,180,87,78
58,-92,-151,17,104,-122,-29,190,209,180,87,78
58,-87,-146,14,102,-117,-19,209,219,185,87,73
53,-87,-141,17,97,-114,-19,234,244,195,87,63
48,-97,-146,24,97,-122,-14,244,248,190,87,63
48,-102,-151,26,100,-126,-9,248,258,190,82,63
48,-102,-151,26,100,-126,-4,263,258,185,78,58
39,-112,-151,36,95,-131,4,278,263,190,87,58
34,-112,-146,39,90,-129,19,283,263,185,78,58
24,-122,-146,48,85,-134,24,287,263,180,73,53
19,-126,-146,53,82,-136,29,287,263,185,73,48
34,-117,-151,41,92,-134,19,278,263,175,58,43
29,-122,-151,46,90,-136,19,278,263,170,53,43
34,-122,-156,43,95,-139,19,278,258,170,53,43
39,-131,-170,46,104,-151,14,278,258,165,53,43
39,-136,-175,48,107,-156,19,287,253,161,53,34
34,-146,-180,56,107,-163,9,278,239,156,43,29
29,-161,-190,65,109,-175,9,263,219,146,43,29
29,-180,-209,75,119,-195,0,253,200,131,39,29
19,-180,-200,80,109,-190,9,239,190,126,34,29
19,-190,-209,85,114,-200,9,234,185,112,29,24
19,-200,-219,90,119,-209,14,224,175,102,24,19
14,-209,-224,97,119,-217,19,224,180,102,24,14
19,-219,-239,100,129,-229,19,214,180,97,24,14
19,-219,-239,100,129,-229,29,214,175,97,24,19
24,-219,-244,97,134,-231,43,209,175,102,24,19
29,-219,-248,95,139,-234,48,204,170,107,24,19
19,-209,-229,95,124,-219,63,224,175,112,29,24
19,-209,-229,95,124,-219,68,229,175,112,29,29
19,-219,-239,100,129,-229,68,234,175,112,29,29
19,-224,-244,102,131,-234,68,234,165,112,29,29
29,-229,-258,100,143,-244,63,219,161,97,34,29
19,-234,-253,107,136,-244,58,209,156,102,29,29
19,-239,-258,109,139,-248,58,209,151,102,24,19
19,-244,-263,112,141,-253,58,209,146,102,19,19
9,-248,-258,119,134,-253,43,195,141,87,19,19
4,-248,-253,122,129,-251,39,190,136,82,14,19
4,-253,-258,124,131,-256,29,185,131,78,9,9
0,-253,-253,126,126,-253,24,170,122,68,4,9
9,-253,-263,122,136,-258,43,151,112,63,0,0
9,-253,-263,122,136,-258,48,151,112,58,0,0
4,-253,-258,124,131,-256,53,146,107,58,0,-4
4,-258,-263,126,134,-261,63,146,107,53,-4,-4
-9,-273,-263,141,126,-268,68,141,97,43,-14,-4
-9,-273,-263,141,126,-268,73,141,97,43,-14,-4
-9,-268,-258,139,124,-263,78,146,97,43,-9,-4
-9,-268,-258,139,124,-263,82,146,97,48,-9,-4
-9,-263,-253,136,122,-258,73,156,97,48,-9,4
-9,-263,-253,136,122,-258,73,151,97,48,-9,4
-9,-258,-248,134,119,-253,68,151,92,48,-9,4
-4,-258,-253,131,124,-256,68,146,92,43,-9,4
4,-248,-253,122,129,-251,63,136,87,43,-14,0
4,-253,-258,124,131,-256,58,131,87,43,-14,0
4,-253,-258,124,131,-256,53,131,87,39,-14,-4
0,-248,-248,124,124,-248,48,131,82,39,-14,-4
9,-248,-258,119,134,-253,48,122,82,43,-4,-9
9,-253,-263,122,136,-258,48,117,82,43,-4,-9
9,-253,-263,122,136,-258,48,117,82,43,-4,-9
14,-253,-268,119,141,-261,48,112,82,43,-4,-9
14,-248,-263,117,139,-256,43,112,73,34,-4,0
14,-248,-263,117,139,-256,39,112,73,34,-4,0
14,-248,-263,117,139,-256,34,117,78,39,-4,0
14,-248,-263,117,139,-256,34,117,78,39,-4,0
4,-248,-253,122,129,-251,43,117,82,39,-9,0
4,-248,-253,122,129,-251,43,117,82,43,-4,4
4,-248,-253,122,129,-251,39,122,82,43,-4,4
4,-248,-253,122,129,-251,39,122,82,43,-4,4
14,-239,-253,112,134,-246,48,122,92,53,9,4
19,-248,-268,114,143,-258,68,126,97,53,19,14
9,-239,-248,114,129,-244,68,126,97,63,14,14
0,-248,-248,124,124,-248,63,136,102,68,9,9
14,-258,-273,122,143,-265,68,175,117,97,9,19
39,-258,-297,109,168,-278,78,248,165,122,9,9
58,-268,-326,104,192,-297,87,336,253,195,9,0
58,-268,-326,104,192,-297,82,370,326,292,43,14
78,-268,-346,95,212,-307,63,375,409,439,107,63
112,-268,-380,78,246,-324,53,439,527,634,195,112
165,-263,-429,48,297,-346,29,492,644,839,283,170
200,-258,-458,29,329,-358,-9,492,712,1029,375,239
229,-258,-488,14,358,-373,-43,527,795,1249,497,326
292,-248,-541,-21,417,-395,-63,614,897,1449,595,409
336,-263,-600,-36,468,-431,-73,707,927,1537,649,453
375,-287,-663,-43,519,-475,-73,790,893,1498,668,488
405,-302,-707,-51,556,-505,-58,873,800,1327,658,517
429,-336,-766,-46,597,-551,-24,917,619,941,551,492
429,-351,-780,-39,605,-566,24,932,453,536,400,434
361,-346,-707,-7,534,-527,87,878,341,248,253,336
200,-356,-556,78,378,-456,170,600,122,-170,14,146
24,-385,-409,180,217,-397,253,214,-170,-663,-273,-87
-73,-380,-307,226,117,-344,322,24,-331,-902,-434,-224
-131,-361,-229,246,48,-295,370,-19,-356,-902,-448,-263
-204,-331,-126,268,-39,-229,400,-102,-380,-893,-444,-287
-292,-312,-19,302,-136,-165,429,-190,-409,-893,-448,-307
-331,-292,39,312,-185,-126,463,-175,-361,-810,-400,-302
-351,-239,112,295,-231,-63,502,-87,-253,-668,-322,-273
-351,-195,156,273,-253,-19,517,9,-165,-551,-268,-253
-322,-195,126,258,-224,-34,517,73,-151,-517,-253,-248
-283,-209,73,246,-178,-68,517,151,-156,-502,-273,-253
-287,-209,78,248,-183,-65,512,224,-136,-483,-263,-244
-292,-219,73,256,-183,-73,527,287,-112,-448,-263,-234
-283,-239,43,261,-163,-97,546,356,-92,-424,-258,-234
-258,-263,-4,261,-126,-134,575,444,-68,-400,-244,-224
-253,-283,-29,268,-112,-156,590,512,-39,-366,-229,-204
-234,-273,-39,253,-97,-156,610,536,-14,-322,-204,-190
-209,-253,-43,231,-82,-148,644,566,24,-273,-165,-156
-209,-239,-29,224,-90,-134,668,570,53,-229,-136,-136
-214,-224,-9,219,-102,-117,683,527,58,-209,-122,-122
-234,-214,19,224,-126,-97,702,439,48,-209,-117,-126
-244,-204,39,224,-141,-82,717,341,39,-204,-112,-122
-244,-214,29,229,-136,-92,736,263,39,-190,-102,-107
-234,-219,14,226,-124,-102,766,190,24,-175,-82,-102
-244,-219,24,231,-134,-97,775,87,-9,-180,-82,-102
-244,-219,24,231,-134,-97,775,-19,-43,-161,-63,-82
-239,-224,14,231,-126,-104,766,-112,-63,-146,-34,-63
-229,-214,14,222,-122,-100,751,-170,-68,-146,-9,-43
-219,-204,14,212,-117,-95,697,-200,-82,-141,0,-29
-200,-190,9,195,-104,-90,614,-244,-102,-141,0,-39
-190,-180,9,185,-100,-85,512,-287,-126,-146,4,-34
-175,-185,-9,180,-82,-97,414,-312,-136,-136,9,-14
-170,-165,4,168,-87,-80,341,-312,-131,-117,34,4
-151,-146,4,148,-78,-70,287,-322,-141,-92,43,19
-122,-141,-19,131,-51,-80,248,-322,-141,-73,68,43
-102,-131,-29,117,-36,-80,200,-312,-136,-53,78,53
-97,-136,-39,117,-29,-87,170,-292,-117,-43,87,58
-82,-131,-48,107,-17,-90,136,-278,-107,-43,82,63
-78,-126,-48,102,-14,-87,82,-273,-97,-39,87,63
-63,-131,-68,97,2,-100,34,-258,-78,-29,87,68
-58,-112,-53,85,-2,-82,4,-253,-78,-4,97,78
-53,-107,-53,80,0,-80,-14,-248,-87,4,112,87
-43,-102,-58,73,7,-80,-19,-248,-92,9,122,92
-39,-97,-58,68,9,-78,-24,-253,-92,9,126,92
-39,-87,-48,63,4,-68,-34,-253,-87,19,136,92
-39,-87,-48,63,4,-68,-43,-248,-73,19,136,97
-34,-87,-53,61,9,-70,-48,-239,-73,19,136,102
-34,-82,-48,58,7,-65,-48,-234,-73,19,136,107
-34,-82,-48,58,7,-65,-53,-229,-73,19,141,112
-34,-82,-48,58,7,-65,-53,-234,-73,9,141,107
-29,-82,-53,56,12,-68,-48,-239,-78,9,141,107
-29,-82,-53,56,12,-68,-48,-244,-78,9,141,107
-24,-78,-53,51,14,-65,-48,-248,-78,9,141,112
-34,-87,-53,61,9,-70,-58,-234,-78,9,141,122
-34,-87,-53,61,9,-70,-63,-229,-78,9,151,122
-34,-87,-53,61,9,-70,-68,-229,-78,9,151,126
-34,-82,-48,58,7,-65,-68,-224,-78,9,151,126
-43,-73,-29,58,-7,-51,-78,-224,-87,9,151,117
-43,-73,-29,58,-7,-51,-82,-224,-87,9,151,117
-43,-78,-34,61,-4,-56,-87,-229,-87,9,151,117
-43,-78,-34,61,-4,-56,-92,-229,-87,9,151,117
-34,-68,-34,51,0,-51,-78,-244,-97,9,156,117
-34,-68,-34,51,0,-51,-73,-253,-97,9,156,117
-34,-68,-34,51,0,-51,-73,-258,-102,4,156,122
-34,-68,-34,51,0,-51,-73,-268,-102,4,151,122
-24,-58,-34,41,4,-46,-73,-273,-112,-4,151,112
-24,-58,-34,41,4,-46,-82,-278,-117,-4,156,117
-24,-53,-29,39,2,-41,-82,-278,-117,-4,156,117
-24,-53,-29,39,2,-41,-82,-273,-117,-4,156,117
-24,-43,-19,34,-2,-31,-92,-278,-117,-4,156,126
-19,-39,-19,29,0,-29,-92,-287,-122,-4,156,131
-14,-39,-24,26,4,-31,-92,-292,-126,-4,156,131
-14,-39,-24,26,4,-31,-97,-292,-126,-4,156,131
-4,-39,-34,21,14,-36,-97,-292,-136,-4,146,122
-4,-34,-29,19,12,-31,-102,-287,-136,-4,146,122
0,-29,-29,14,14,-29,-102,-287,-136,0,146,122
0,-24,-24,12,12,-24,-102,-287,-136,0,146,122
-9,-24,-14,17,2,-19,-122,-287,-136,0,146,136
-9,-24,-14,17,2,-19,-122,-283,-136,4,151,136
0,-24,-24,12,12,-24,-122,-278,-136,9,151,136
4,-24,-29,9,17,-26,-131,-273,-136,14,151,136
0,-29,-29,14,14,-29,-136,-283,-136,14,151,131
4,-29,-34,12,19,-31,-141,-283,-136,19,151,131
9,-34,-43,12,26,-39,-146,-283,-136,24,151,131
14,-34,-48,9,31,-41,-146,-278,-136,29,146,131
19,-29,-48,4,34,-39,-156,-287,-146,34,136,131
29,-29,-58,0,43,-43,-165,-287,-146,34,136,131
39,-24,-63,-7,51,-43,-165,-292,-146,39,136,131
48,-19,-68,-14,58,-43,-170,-292,-146,39,136,131
48,-24,-73,-12,61,-48,-185,-292,-146,39,136,126
53,-29,-82,-12,68,-56,-195,-292,-146,43,131,126
53,-14,-68,-19,61,-41,-195,-292,-146,43,131,126
58,-24,-82,-17,70,-53,-200,-292,-146,39,131,122
68,-39,-107,-14,87,-73,-204,-302,-146,39,126,126
78,-39,-117,-19,97,-78,-209,-292,-146,39,117,117
78,-39,-117,-19,97,-78,-214,-292,-146,39,117,117
78,-39,-117,-19,97,-78,-219,-292,-146,39,117,117
78,-39,-117,-19,97,-78,-224,-292,-146,39,117,117
68,-39,-107,-14,87,-73,-239,-273,-141,53,107,112
68,-43,-112,-12,90,-78,-239,-263,-126,53,102,112
68,-43,-112,-12,90,-78,-244,-258,-112,53,102,112
73,-43,-117,-14,95,-80,-244,-244,-92,63,102,107
73,-53,-126,-9,100,-90,-248,-219,-78,68,102,107
68,-53,-122,-7,95,-87,-244,-204,-63,73,102,102
68,-58,-126,-4,97,-92,-244,-190,-53,82,102,102
73,-63,-136,-4,104,-100,-239,-170,-43,87,102,102
87,-63,-151,-12,119,-107,-229,-156,-39,87,87,102
92,-63,-156,-14,124,-109,-224,-126,-19,92,87,102
97,-63,-161,-17,129,-112,-219,-97,-4,102,87,102
102,-68,-170,-17,136,-119,-214,-73,9,107,87,102
102,-63,-165,-19,134,-114,-204,-58,29,107,82,87
97,-58,-156,-19,126,-107,-190,-24,48,112,82,87
87,-53,-141,-17,114,-97,-165,0,68,122,82,87
82,-48,-131,-17,107,-90,-141,24,87,126,78,87
82,-53,-136,-14,109,-95,-126,58,112,131,87,97
82,-53,-136,-14,109,-95,-112,73,131,131,92,97
82,-43,-126,-19,104,-85,-92,97,151,141,92,102
82,-43,-126,-19,104,-85,-73,122,170,151,97,102
82,-24,-107,-29,95,-65,-53,146,200,165,87,92
78,-24,-102,-26,90,-63,-43,165,219,170,87,92
78,-24,-102,-26,90,-63,-34,185,229,170,87,87
78,-24,-102,-26,90,-63,-19,200,239,170,87,87
73,-29,-102,-21,87,-65,-9,219,248,175,87,73
63,-29,-92,-17,78,-61,0,234,263,175,87,73
53,-39,-92,-7,73,-65,4,244,268,170,87,73
48,-43,-92,-2,70,-68,9,248,278,170,82,73
58,-43,-102,-7,80,-73,14,273,278,175,68,68
53,-53,-107,0,80,-80,19,273,278,175,68,58
53,-53,-107,0,80,-80,29,273,273,165,58,58
48,-63,-112,7,80,-87,29,273,268,156,53,53
58,-78,-136,9,97,-107,19,268,263,146,43,39
58,-82,-141,12,100,-112,19,258,258,136,39,34
48,-92,-141,21,95,-117,19,258,253,131,34,34
48,-97,-146,24,97,-122,19,258,244,131,34,34
43,-102,-146,29,95,-124,4,258,239,117,34,24
43,-102,-146,29,95,-124,0,258,239,112,34,24
39,-107,-146,34,92,-126,-9,248,229,107,24,19
34,-117,-151,41,92,-134,-9,234,214,97,24,19
29,-141,-170,56,100,-156,-19,224,190,92,19,29
29,-141,-170,56,100,-156,-19,209,175,87,14,29
29,-151,-180,61,104,-165,-19,204,165,73,9,24
29,-161,-190,65,109,-175,-14,195,151,63,4,19
29,-156,-185,63,107,-170,-19,195,161,63,4,14
34,-151,-185,58,109,-168,-9,200,165,68,4,14
34,-146,-180,56,107,-163,0,204,165,68,4,19
39,-141,-180,51,109,-161,14,204,170,73,4,19
39,-131,-170,46,104,-151,29,204,161,68,4,9
39,-131,-170,46,104,-151,34,209,165,73,9,14
39,-131,-170,46,104,-151,39,209,165,73,9,19
39,-141,-180,51,109,-161,39,209,165,73,9,19
39,-136,-175,48,107,-156,39,200,146,68,4,14
39,-141,-180,51,109,-161,34,180,131,43,-4,0
29,-146,-175,58,102,-161,29,165,126,39,-14,-4
29,-151,-180,61,104,-165,29,161,122,29,-24,-19
39,-146,-185,53,112,-165,39,161,117,34,-29,-19
39,-151,-190,56,114,-170,39,156,112,29,-29,-19
34,-151,-185,58,109,-168,39,151,107,24,-34,-19
34,-156,-190,61,112,-173,34,146,102,19,-39,-29
19,-156,-175,68,97,-165,43,131,82,4,-43,-29
19,-156,-175,68,97,-165,48,122,73,-4,-48,-29
19,-156,-175,68,97,-165,48,122,73,-14,-48,-29
14,-156,-170,70,92,-163,48,117,68,-19,-48,-34
14,-156,-170,70,92,-163,39,117,68,-14,-63,-34
9,-156,-165,73,87,-161,34,112,68,-14,-63,-34
9,-151,-161,70,85,-156,29,112,68,-14,-63,-34
9,-141,-151,65,80,-146,24,117,68,-14,-58,-34
0,-126,-126,63,63,-126,19,107,68,-19,-68,-43
0,-126,-126,63,63,-126,14,107,68,-19,-68,-43
0,-122,-122,61,61,-122,9,102,68,-19,-68,-43
0,-112,-112,56,56,-112,0,102,63,-19,-68,-43
-4,-102,-97,53,46,-100,0,97,63,-34,-68,-53
-4,-102,-97,53,46,-100,0,97,58,-34,-63,-48
-4,-107,-102,56,48,-104,0,92,58,-34,-63,-48
-4,-107,-102,56,48,-104,0,92,58,-39,-63,-53
-4,-97,-92,51,43,-95,-9,82,43,-48,-73,-63
0,-92,-92,46,46,-92,-19,82,43,-43,-73,-58
4,-92,-97,43,51,-95,-29,78,43,-43,-73,-58
9,-87,-97,39,53,-92,-39,78,43,-43,-73,-58
14,-97,-112,41,63,-104,-29,73,34,-43,-73,-58
14,-92,-107,39,61,-100,-29,73,34,-43,-73,-58
14,-92,-107,39,61,-100,-29,73,34,-43,-73,-58
14,-92,-107,39,61,-100,-29,78,39,-39,-73,-58
14,-78,-92,31,53,-85,-9,78,39,-29,-73,-58
14,-73,-87,29,51,-80,-4,78,43,-29,-68,-58
14,-68,-82,26,48,-75,0,78,43,-24,-63,-53
14,-63,-78,24,46,-70,0,82,43,-24,-63,-53
14,-63,-78,24,46,-70,0,73,43,-14,-53,-53
14,-63,-78,24,46,-70,-9,63,53,-14,-58,-53
19,-63,-82,21,51,-73,-19,68,48,-14,-58,-43
19,-73,-92,26,56,-82,-9,87,58,-14,-63,-43
9,-73,-82,31,46,-78,-4,126,63,0,-78,-58
24,-82,-107,29,65,-95,9,204,117,29,-87,-78
39,-92,-131,26,85,-112,19,287,204,112,-68,-68
48,-102,-151,26,100,-126,9,317,292,253,-9,-39
78,-82,-161,2,119,-122,-4,341,395,419,63,14
107,-73,-180,-17,143,-126,-14,405,536,644,156,73
141,-63,-204,-39,173,-134,-43,439,653,849,234,131
185,-58,-244,-63,214,-151,-78,424,712,1044,331,190
229,-63,-292,-82,261,-178,-117,463,810,1273,444,278
278,-43,-322,-117,300,-183,-131,546,912,1493,556,366
302,-34,-336,-134,319,-185,-122,634,946,1586,634,419
346,-39,-385,-153,366,-212,-131,717,917,1566,678,473
385,-43,-429,-170,407,-236,-131,800,824,1371,678,507
395,-48,-444,-173,419,-246,-107,844,624,946,561,478
361,-63,-424,-148,392,-244,-43,849,453,531,414,405
263,-58,-322,-102,292,-190,24,746,317,185,234,287
107,-63,-170,-21,139,-117,126,419,39,-326,-48,73
-53,-73,-19,63,-17,-46,209,43,-287,-844,-336,-165
-151,-53,97,102,-124,21,273,-126,-434,-1054,-488,-283
-200,-39,161,119,-180,61,302,-170,-458,-1049,-502,-302
-258,-29,229,143,-244,100,322,-263,-512,-1068,-507,-341
-292,-39,253,165,-273,107,341,-356,-575,-1098,-551,-395
-283,-48,234,165,-258,92,331,-375,-595,-1078,-566,-414
-283,-29,253,156,-268,112,326,-302,-546,-995,-536,-390
-302,14,317,143,-309,165,366,-165,-429,-854,-458,-361
-302,39,341,131,-322,190,400,-29,-331,-746,-405,-331
-292,29,322,131,-307,175,400,63,-307,-692,-390,-326
-273,14,287,129,-280,151,409,141,-283,-658,-370,-312
-268,4,273,131,-270,139,444,224,-234,-600,-351,-302
-263,-4,258,134,-261,126,478,326,-190,-556,-351,-302
-253,-24,229,139,-241,102,507,424,-151,-522,-346,-302
-248,-29,219,139,-234,95,527,473,-126,-478,-322,-292
-234,-29,204,131,-219,87,551,492,-97,-434,-297,-273
-214,-39,175,126,-195,68,580,517,-73,-400,-273,-258
-209,-29,180,119,-195,75,595,497,-63,-380,-263,-244
-219,-4,214,112,-217,104,619,434,-63,-356,-244,-244
-224,9,234,107,-229,122,634,341,-48,-336,-229,-229
-234,9,244,112,-239,126,644,263,-48,-307,-204,-224
-244,0,244,122,-244,122,678,204,-48,-292,-200,-209
-244,-9,234,126,-239,112,707,117,-58,-278,-190,-204
-244,-4,239,124,-241,117,707,-4,-92,-283,-180,-190
-244,-4,239,124,-241,117,688,-117,-117,-268,-161,-170
-244,14,258,114,-251,136,658,-195,-131,-258,-141,-161
-239,29,268,104,-253,148,619,-239,-151,-253,-131,-151
-229,29,258,100,-244,143,556,-278,-165,-244,-126,-151
-209,39,248,85,-229,143,483,-326,-190,-239,-107,-136
-190,43,234,73,-212,139,390,-341,-190,-229,-87,-117
-170,53,224,58,-197,139,297,-346,-195,-204,-73,-92
-156,68,224,43,-190,146,219,-361,-195,-185,-48,-73
-151,68,219,41,-185,143,165,-361,-200,-175,-43,-63
-131,68,200,31,-165,134,112,-361,-200,-170,-34,-58
-122,82,204,19,-163,143,82,-361,-200,-161,-29,-63
-112,82,195,14,-153,139,63,-351,-195,-151,-29,-53
-107,78,185,14,-146,131,24,-341,-185,-141,-19,-48
-82,92,175,-4,-129,134,-19,-326,-165,-122,-4,-34
-68,97,165,-14,-117,131,-53,-312,-146,-97,19,-14
-73,102,175,-14,-124,139,-92,-297,-136,-87,29,0
-68,102,170,-17,-119,136,-122,-292,-136,-82,29,0
-63,112,175,-24,-119,143,-131,-287,-146,-92,29,-9
-53,112,165,-29,-109,139,-136,-287,-151,-87,34,-4
-48,112,161,-31,-104,136,-141,-292,-151,-87,34,-4
-48,117,165,-34,-107,141,-151,-292,-146,-78,39,-4
-48,126,175,-39,-112,151,-141,-292,-141,-68,39,-4
-43,126,170,-41,-107,148,-146,-287,-141,-68,39,-4
-43,131,175,-43,-109,153,-146,-287,-141,-68,39,-4
-43,131,175,-43,-109,153,-151,-287,-141,-68,43,-4
-43,122,165,-39,-104,143,-146,-297,-151,-78,43,9
-39,122,161,-41,-100,141,-136,-297,-156,-78,43,9
-39,122,161,-41,-100,141,-131,-297,-156,-78,43,9
-34,126,161,-46,-97,143,-126,-297,-156,-78,43,14
-43,136,180,-46,-112,158,-126,-287,-156,-78,34,4
-43,136,180,-46,-112,158,-131,-287,-156,-78,43,4
-43,136,180,-46,-112,158,-136,-292,-156,-78,43,9
-43,141,185,-48,-114,163,-136,-292,-156,-78,43,9
-34,131,165,-48,-100,148,-151,-292,-156,-78,43,9
-34,131,165,-48,-100,148,-151,-292,-156,-78,43,9
-34,126,161,-46,-97,143,-151,-297,-156,-78,43,9
-34,126,161,-46,-97,143,-151,-297,-156,-78,43,9
-24,126,151,-51,-87,139,-161,-307,-175,-78,48,9
-24,126,151,-51,-87,139,-161,-312,-175,-78,48,9
-24,126,151,-51,-87,139,-165,-312,-180,-82,48,14
-24,126,151,-51,-87,139,-170,-317,-180,-82,43,14
-34,126,161,-46,-97,143,-170,-322,-180,-82,43,4
-34,126,161,-46,-97,143,-180,-326,-185,-82,48,9
-34,131,165,-48,-100,148,-180,-326,-185,-82,48,9
-34,131,165,-48,-100,148,-180,-322,-185,-82,48,9
-43,141,185,-48,-114,163,-185,-312,-180,-73,58,9
-39,146,185,-53,-112,165,-190,-317,-180,-73,58,14
-34,146,180,-56,-107,163,-195,-317,-180,-73,58,14
-34,146,180,-56,-107,163,-204,-312,-175,-73,58,14
-24,151,175,-63,-100,163,-195,-312,-175,-73,58,14
-24,151,175,-63,-100,163,-200,-307,-175,-73,58,14
-19,151,170,-65,-95,161,-200,-307,-175,-68,58,14
-19,151,170,-65,-95,161,-200,-307,-175,-68,58,14
-9,161,170,-75,-90,165,-214,-307,-185,-58,48,9
-9,161,170,-75,-90,165,-219,-302,-185,-53,53,9
0,161,161,-80,-80,161,-224,-297,-185,-48,53,9
4,161,156,-82,-75,158,-239,-292,-185,-43,53,9
0,146,146,-73,-73,146,-244,-292,-175,-39,53,14
4,146,141,-75,-68,143,-248,-292,-175,-29,53,14
9,141,131,-75,-61,136,-253,-292,-175,-19,53,14
14,141,126,-78,-56,134,-253,-287,-175,-9,48,14
14,141,126,-78,-56,134,-258,-297,-175,-14,39,14
19,136,117,-78,-48,126,-263,-297,-175,-14,39,14
24,136,112,-80,-43,124,-258,-302,-175,-9,39,14
29,136,107,-82,-39,122,-258,-302,-175,-9,39,14
39,141,102,-90,-31,122,-253,-302,-175,0,48,19
53,156,102,-104,-24,129,-263,-312,-175,4,43,19
53,141,87,-97,-17,114,-263,-302,-165,14,43,19
48,146,97,-97,-24,122,-273,-283,-165,9,39,19
58,136,78,-97,-9,107,-278,-283,-165,9,29,9
58,136,78,-97,-9,107,-283,-283,-165,9,29,9
58,136,78,-97,-9,107,-287,-283,-165,9,29,9
58,136,78,-97,-9,107,-292,-283,-165,9,29,9
58,126,68,-92,-4,97,-302,-263,-165,14,29,4
58,122,63,-90,-2,92,-307,-253,-156,14,24,4
58,122,63,-90,-2,92,-317,-248,-146,14,24,4
63,122,58,-92,2,90,-322,-234,-131,24,24,0
73,131,58,-102,7,95,-317,-209,-107,29,14,0
68,131,63,-100,2,97,-312,-195,-92,34,14,-4
68,126,58,-97,4,92,-312,-180,-82,43,14,-4
73,122,48,-97,12,85,-307,-161,-73,48,14,-4
63,122,58,-92,2,90,-307,-151,-68,48,9,-4
63,122,58,-92,2,90,-302,-126,-48,53,9,-4
63,122,58,-92,2,90,-297,-102,-34,63,9,-4
63,117,53,-90,4,85,-292,-82,-19,68,9,-4
78,126,48,-102,14,87,-297,-58,9,78,4,-9
78,126,48,-102,14,87,-287,-24,29,82,4,-9
73,126,53,-100,9,90,-268,0,48,92,4,-9
73,126,53,-100,9,90,-248,24,68,97,0,-9
63,136,73,-100,-4,104,-229,39,87,102,0,-9
63,141,78,-102,-7,109,-209,53,102,102,4,-9
63,156,92,-109,-14,124,-185,78,117,112,4,-4
63,161,97,-112,-17,129,-161,102,131,122,9,-4
63,170,107,-117,-21,139,-136,136,161,126,9,-4
58,170,112,-114,-26,141,-122,156,180,131,9,-4
58,170,112,-114,-26,141,-107,175,190,131,9,-9
58,170,112,-114,-26,141,-87,190,200,131,9,-9
68,175,107,-122,-19,141,-68,204,200,136,9,-14
63,175,112,-119,-24,143,-58,214,214,136,9,-14
58,165,107,-112,-24,136,-53,219,219,131,9,-14
58,161,102,-109,-21,131,-48,219,229,131,4,-14
48,156,107,-102,-29,131,-43,234,229,126,-9,-19
43,141,97,-92,-26,119,-39,234,229,126,-9,-29
43,136,92,-90,-24,114,-29,234,224,117,-19,-29
39,122,82,-80,-21,102,-29,234,219,107,-24,-34
48,117,68,-82,-9,92,-29,229,204,107,-24,-48
48,112,63,-80,-7,87,-29,219,200,97,-29,-53
39,102,63,-70,-12,82,-29,219,195,92,-34,-53
39,97,58,-68,-9,78,-29,219,185,92,-34,-53
39,73,34,-56,2,53,-34,209,180,78,-34,-53
43,73,29,-58,7,51,-39,209,180,73,-34,-53
43,68,24,-56,9,46,-48,200,170,68,-43,-58
43,58,14,-51,14,36,-48,185,156,58,-43,-58
39,43,4,-41,17,24,-48,175,151,53,-48,-48
39,43,4,-41,17,24,-48,161,136,48,-53,-48
39,34,-4,-36,21,14,-48,156,126,34,-58,-53
39,24,-14,-31,26,4,-43,146,112,24,-63,-58
34,24,-9,-29,21,7,-39,161,117,29,-53,-53
34,24,-9,-29,21,7,-29,170,126,39,-53,-53
29,24,-4,-26,17,9,-19,180,131,43,-53,-48
29,24,-4,-26,17,9,-4,185,141,53,-53,-48
29,24,-4,-26,17,9,-4,185,141,48,-53,-58
29,24,-4,-26,17,9,-4,190,146,53,-48,-53
29,24,-4,-26,17,9,-4,190,146,53,-48,-48
29,14,-14,-21,21,0,-9,190,146,53,-48,-48
29,0,-29,-14,29,-14,-9,180,131,48,-48,-48
29,-4,-34,-12,31,-19,-14,161,112,24,-53,-58
19,-9,-29,-4,24,-19,-19,146,102,19,-58,-58
19,-14,-34,-2,26,-24,-19,141,92,9,-63,-68
19,-9,-29,-4,24,-19,-19,151,97,14,-68,-68
19,-14,-34,-2,26,-24,-19,146,92,9,-68,-68
14,-14,-29,0,21,-21,-19,141,87,4,-73,-68
14,-19,-34,2,24,-26,-24,136,82,0,-78,-78
19,-19,-39,0,29,-29,-24,122,73,-19,-82,-68
19,-19,-39,0,29,-29,-19,112,63,-24,-87,-68
19,-19,-39,0,29,-29,-19,112,63,-29,-87,-68
14,-19,-34,2,24,-26,-19,107,58,-29,-87,-73
14,-24,-39,4,26,-31,-24,107,58,-29,-92,-73
9,-29,-39,9,24,-34,-24,102,58,-24,-92,-73
9,-29,-39,9,24,-34,-24,102,58,-19,-92,-73
9,-24,-34,7,21,-29,-24,107,58,-14,-87,-73
0,-24,-24,12,12,-24,-19,117,68,-9,-78,-63
0,-29,-29,14,14,-29,-14,117,68,-9,-78,-63
0,-29,-29,14,14,-29,-9,112,68,-9,-78,-63
0,-24,-24,12,12,-24,-9,112,63,-9,-78,-63
4,-14,-19,4,12,-17,-9,97,53,-24,-87,-73
4,-14,-19,4,12,-17,-9,97,48,-24,-82,-68
4,-19,-24,7,14,-21,-9,92,48,-24,-82,-68
4,-19,-24,7,14,-21,-9,92,48,-29,-82,-73
9,-14,-24,2,17,-19,0,92,43,-19,-82,-82
9,-14,-24,2,17,-19,0,92,43,-14,-82,-78
9,-19,-29,4,19,-24,0,87,43,-14,-82,-78
9,-19,-29,4,19,-24,0,87,43,-14,-82,-78
14,-9,-24,-2,19,-17,-4,73,43,-4,-82,-68
14,-4,-19,-4,17,-12,-9,73,43,-4,-82,-68
14,-4,-19,-4,17,-12,-14,73,43,-4,-82,-68
14,-4,-19,-4,17,-12,-19,78,48,0,-82,-68
14,4,-9,-9,12,-2,-24,82,48,0,-73,-68
14,4,-9,-9,12,-2,-24,87,53,0,-68,-68
14,4,-9,-9,12,-2,-24,92,53,4,-63,-63
14,4,-9,-9,12,-2,-29,102,53,4,-63,-63
4,-4,-9,0,7,-7,-39,102,53,14,-63,-63
4,-14,-19,4,12,-17,-19,112,63,14,-58,-63
9,-14,-24,2,17,-19,-9,117,68,24,-58,-63
9,-14,-24,2,17,-19,-9,146,87,24,-63,-63
9,-24,-34,7,21,-29,4,214,131,48,-78,-68
14,-34,-48,9,31,-41,29,302,214,117,-68,-68
39,-43,-82,2,61,-63,19,336,302,248,-29,-48
78,-43,-122,-17,100,-82,-9,346,409,409,29,-9
97,-34,-131,-31,114,-82,-24,409,541,605,92,24
117,-43,-161,-36,139,-102,-34,473,673,829,175,73
141,-43,-185,-48,163,-114,-63,478,771,1034,273,141
195,-29,-224,-82,209,-126,-97,522,878,1288,390,229
248,-14,-263,-117,256,-139,-107,619,1015,1527,512,317
287,-4,-292,-141,290,-148,-122,712,1068,1659,595,375
331,-14,-346,-158,339,-180,-131,810,1054,1683,644,439
375,-19,-395,-178,385,-207,-131,883,966,1537,668,483
375,-24,-400,-175,387,-212,-112,907,746,1127,570,458
356,-29,-385,-163,370,-207,-58,912,527,663,424,400
283,-24,-307,-129,295,-165,34,829,366,307,278,297
136,-19,-156,-58,146,-87,112,492,73,-195,29,112
-29,-43,-14,36,-7,-29,185,39,-302,-775,-273,-112
-131,-34,97,82,-114,31,239,-200,-512,-1068,-444,-244
-170,-14,156,92,-163,70,253,-263,-570,-1093,-488,-292
-229,-9,219,119,-224,104,273,-336,-634,-1117,-522,-341
-278,-9,268,143,-273,129,302,-419,-697,-1146,-566,-400
-283,-19,263,151,-273,122,322,-424,-692,-1117,-590,-434
-273,-29,244,151,-258,107,341,-346,-644,-1039,-566,-424
-283,-9,273,146,-278,131,385,-195,-527,-917,-507,-409
-283,24,307,129,-295,165,434,-19,-409,-785,-439,-380
-273,19,292,126,-283,156,448,107,-361,-727,-424,-370
-263,19,283,122,-273,151,448,170,-356,-712,-429,-366
-263,4,268,129,-265,136,468,248,-312,-668,-409,-351
-258,4,263,126,-261,134,502,322,-253,-610,-400,-341
-253,-4,248,129,-251,122,536,375,-209,-566,-390,-341
-244,-14,229,129,-236,107,556,405,-170,-512,-375,-331
-229,-29,200,129,-214,85,575,434,-146,-468,-351,-312
-214,-39,175,126,-195,68,580,453,-136,-424,-317,-292
-204,-19,185,112,-195,82,580,409,-131,-390,-283,-268
-209,9,219,100,-214,114,575,312,-131,-370,-253,-244
-219,34,253,92,-236,143,600,200,-122,-346,-234,-234
-214,39,253,87,-234,146,614,126,-117,-326,-229,-229
-214,48,263,82,-239,156,634,58,-117,-307,-224,-224
-214,68,283,73,-248,175,629,-19,-117,-283,-209,-219
-224,68,292,78,-258,180,629,-107,-117,-258,-190,-204
-234,82,317,75,-275,200,610,-190,-122,-244,-161,-180
-224,92,317,65,-270,204,590,-234,-126,-219,-131,-161
-214,92,307,61,-261,200,551,-253,-141,-209,-112,-141
-200,97,297,51,-248,197,483,-287,-161,-214,-92,-131
-180,97,278,41,-229,187,409,-326,-185,-214,-97,-122
-170,117,287,26,-229,202,326,-366,-209,-219,-107,-126
-151,141,292,4,-222,217,244,-370,-209,-200,-97,-117
-131,141,273,-4,-202,207,190,-366,-204,-175,-73,-92
-107,136,244,-14,-175,190,141,-370,-204,-156,-58,-82
-92,136,229,-21,-161,183,97,-361,-209,-146,-43,-63
-82,146,229,-31,-156,187,53,-351,-200,-141,-24,-58
-82,151,234,-34,-158,192,14,-341,-190,-131,-19,-43
-73,161,234,-43,-153,197,-34,-331,-175,-122,-9,-34
-58,165,224,-53,-141,195,-73,-312,-165,-112,-9,-39
-53,190,244,-68,-148,217,-107,-307,-156,-102,-4,-34
-58,185,244,-63,-151,214,-112,-302,-156,-87,0,-24
-43,180,224,-68,-134,202,-112,-297,-156,-68,9,-19
-39,190,229,-75,-134,209,-122,-302,-156,-73,19,-19
-24,180,204,-78,-114,192,-131,-292,-146,-73,29,-9
-14,180,195,-82,-104,187,-136,-287,-151,-68,34,-4
-9,180,190,-85,-100,185,-141,-287,-151,-68,34,-4
-9,185,195,-87,-102,190,-151,-283,-146,-58,39,-4
-19,195,214,-87,-117,204,-165,-283,-141,-58,39,-4
-14,195,209,-90,-112,202,-175,-278,-141,-58,39,-4
-14,200,214,-92,-114,207,-180,-278,-141,-58,39,-4
-14,200,214,-92,-114,207,-190,-278,-141,-58,43,-4
-19,190,209,-85,-114,200,-180,-287,-151,-68,43,9
-19,190,209,-85,-114,200,-165,-287,-156,-68,43,9
-24,190,214,-82,-119,202,-156,-287,-156,-68,43,9
-24,195,219,-85,-122,207,-146,-287,-156,-68,43,14
-19,204,224,-92,-122,214,-136,-287,-156,-58,34,4
-14,204,219,-95,-117,212,-141,-287,-156,-58,43,4
-9,204,214,-97,-112,209,-146,-292,-156,-58,43,9
-4,209,214,-102,-109,212,-146,-292,-156,-58,43,9
-14,209,224,-97,-119,217,-156,-292,-156,-58,53,9
-14,209,224,-97,-119,217,-161,-292,-156,-58,53,9
-14,204,219,-95,-117,212,-165,-297,-156,-58,53,9
-14,204,219,-95,-117,212,-170,-297,-156,-58,53,9
-4,204,209,-100,-107,207,-161,-297,-165,-58,58,9
-4,204,209,-100,-107,207,-161,-302,-165,-58,58,9
-4,204,209,-100,-107,207,-165,-302,-170,-63,58,14
-4,204,209,-100,-107,207,-170,-307,-170,-63,53,14
4,214,209,-109,-102,212,-170,-302,-161,-53,53,14
4,214,209,-109,-102,212,-180,-307,-165,-53,58,19
4,219,214,-112,-104,217,-180,-307,-165,-53,58,19
4,219,214,-112,-104,217,-180,-302,-165,-53,58,19
-4,219,224,-107,-114,222,-180,-312,-165,-53,68,19
0,214,214,-107,-107,214,-190,-317,-170,-53,58,24
4,224,219,-114,-107,222,-200,-307,-175,-63,48,14
4,214,209,-109,-102,212,-204,-302,-175,-63,48,24
0,224,224,-112,-112,224,-195,-312,-175,-58,48,19
9,224,214,-117,-102,219,-195,-307,-165,-43,58,19
9,224,214,-117,-102,219,-195,-302,-165,-39,58,19
9,224,214,-117,-102,219,-195,-297,-165,-34,58,19
9,224,214,-117,-102,219,-195,-292,-165,-29,58,19
14,224,209,-119,-97,217,-209,-283,-156,-14,58,29
19,224,204,-122,-92,214,-214,-283,-156,-9,58,29
24,224,200,-124,-87,212,-219,-283,-156,-4,58,29
29,224,195,-126,-82,209,-224,-283,-156,0,58,29
39,219,180,-129,-70,200,-239,-273,-156,4,68,29
39,214,175,-126,-68,195,-244,-273,-156,9,68,29
39,209,170,-124,-65,190,-248,-273,-156,14,68,29
39,204,165,-122,-63,185,-253,-273,-156,19,68,29
43,214,170,-129,-63,192,-253,-273,-146,24,68,39
48,214,165,-131,-58,190,-253,-273,-146,29,68,39
53,214,161,-134,-53,187,-253,-273,-146,34,68,39
58,214,156,-136,-48,185,-253,-273,-146,39,68,39
63,204,141,-134,-39,173,-258,-273,-146,48,58,39
68,204,136,-136,-34,170,-263,-273,-146,48,58,39
73,204,131,-139,-29,168,-268,-273,-146,48,58,39
78,204,126,-141,-24,165,-273,-273,-146,48,58,39
82,204,122,-143,-19,163,-287,-253,-131,58,48,29
87,204,117,-146,-14,161,-292,-244,-126,58,48,29
92,204,112,-148,-9,158,-297,-234,-122,58,48,29
97,204,107,-151,-4,156,-302,-224,-117,58,48,29
97,200,102,-148,-2,151,-292,-204,-102,63,39,19
97,195,97,-146,0,146,-292,-195,-97,68,39,19
97,190,92,-143,2,141,-292,-185,-92,73,39,19
97,185,87,-141,4,136,-292,-175,-87,78,39,19
107,195,87,-151,9,141,-287,-161,-73,82,39,9
107,195,87,-151,9,141,-283,-146,-58,87,39,9
107,195,87,-151,9,141,-278,-131,-43,92,39,9
107,195,87,-151,9,141,-273,-117,-29,97,39,9
97,185,87,-141,4,136,-263,-87,-9,102,29,9
97,185,87,-141,4,136,-263,-68,0,107,29,9
97,185,87,-141,4,136,-263,-48,9,112,29,9
97,185,87,-141,4,136,-263,-29,19,117,29,9
97,175,78,-136,9,126,-248,-9,34,126,19,9
97,175,78,-136,9,126,-234,9,48,126,19,9
97,175,78,-136,9,126,-219,29,63,126,19,9
97,175,78,-136,9,126,-204,48,78,126,19,9
97,195,97,-146,0,146,-180,78,92,131,19,9
97,204,107,-151,-4,156,-165,97,107,136,19,9
97,214,117,-156,-9,165,-151,117,122,141,19,9
97,224,126,-161,-14,175,-136,136,136,146,19,9
87,234,146,-161,-29,190,-117,161,151,151,24,9
87,234,146,-161,-29,190,-107,175,165,156,29,9
87,234,146,-161,-29,190,-97,190,180,161,34,9
87,234,146,-161,-29,190,-87,204,195,165,39,9
78,229,151,-153,-36,190,-78,219,209,175,29,19
78,224,146,-151,-34,185,-68,234,214,175,29,19
78,219,141,-148,-31,180,-58,248,219,175,29,19
78,214,136,-146,-29,175,-48,263,224,175,29,19
78,204,126,-141,-24,165,-39,258,214,170,24,14
78,204,126,-141,-24,165,-39,253,214,165,19,9
78,204,126,-141,-24,165,-39,248,214,161,14,4
78,204,126,-141,-24,165,-39,244,214,156,9,0
73,195,122,-134,-24,158,-34,239,200,151,0,-9
68,185,117,-126,-24,151,-29,234,195,146,0,-9
63,175,112,-119,-24,143,-24,229,190,141,0,-9
58,165,107,-112,-24,136,-19,224,185,136,0,-9
68,161,92,-114,-12,126,-34,209,175,122,-4,-9
68,156,87,-112,-9,122,-39,204,165,117,-9,-9
68,151,82,-109,-7,117,-43,200,156,112,-14,-9
68,146,78,-107,-4,112,-48,195,146,107,-19,-9
58,141,82,-100,-12,112,-63,175,126,97,-24,-14
58,136,78,-97,-9,107,-68,165,117,87,-29,-19
58,131,73,-95,-7,102,-73,156,107,78,-34,-24
58,126,68,-92,-4,97,-78,146,97,68,-39,-29
58,122,63,-90,-2,92,-63,151,107,73,-29,-29
58,117,58,-87,0,87,-48,156,107,78,-29,-29
58,112,53,-85,2,82,-34,161,107,82,-29,-29
58,107,48,-82,4,78,-19,165,107,87,-29,-29
58,107,48,-82,4,78,-4,156,107,87,-19,-19
58,107,48,-82,4,78,0,156,107,87,-19,-19
58,107,48,-82,4,78,4,156,107,87,-19,-19
58,107,48,-82,4,78,9,156,107,87,-19,-19
58,92,34,-75,12,63,4,151,97,73,-34,-24
58,87,29,-73,14,58,0,146,87,68,-39,-29
58,82,24,-70,17,53,-4,141,78,63,-43,-34
58,78,19,-68,19,48,-9,136,68,58,-48,-39
68,73,4,-70,31,39,-19,122,53,53,-53,-43
68,68,0,-68,34,34,-19,117,48,48,-58,-48
68,63,-4,-65,36,29,-19,112,43,43,-63,-53
68,58,-9,-63,39,24,-19,107,39,39,-68,-58
68,58,-9,-63,39,24,-19,107,48,48,-58,-48
68,58,-9,-63,39,24,-19,107,48,48,-58,-39
68,48,-19,-58,43,14,-19,107,48,48,-48,-29
58,19,-39,-39,48,-9,-19,117,58,68,-39,-19
68,19,-48,-43,58,-14,-19,126,48,68,-48,-29
87,9,-78,-48,82,-34,-19,136,48,78,-39,-19
126,-19,-146,-53,136,-82,-29,185,68,107,-19,0
165,-48,-214,-58,190,-131,-48,244,78,146,-19,19
204,-87,-292,-58,248,-190,-58,312,87,175,-39,19
244,-136,-380,-53,312,-258,-68,400,146,244,-29,29
283,-175,-458,-53,370,-317,-78,536,244,380,0,58
331,-214,-546,-58,439,-380,-78,712,370,527,9,68
370,-263,-634,-53,502,-448,-78,907,497,653,0,58
419,-312,-732,-53,575,-522,-48,1132,644,800,-9,48
409,-361,-771,-24,590,-566,9,1376,839,985,-19,0
341,-380,-722,19,531,-551,107,1561,985,1054,-97,-126
224,-390,-614,82,419,-502,214,1649,1044,956,-263,-302
107,-409,-517,151,312,-463,302,1668,1044,751,-448,-478
-29,-419,-390,224,180,-405,390,1610,946,419,-624,-634
-156,-448,-292,302,68,-370,478,1503,771,19,-780,-780
-283,-458,-175,370,-53,-317,556,1385,556,-341,-907,-888
-370,-468,-97,419,-136,-283,614,1298,380,-624,-1005,-956
-429,-478,-48,453,-190,-263,663,1190,204,-849,-1044,-976
-468,-458,9,463,-239,-224,683,1015,39,-976,-1034,-956
-497,-409,87,453,-292,-161,683,858,-39,-995,-966,-907
-507,-370,136,439,-322,-117,673,761,-48,-966,-917,-878
-517,-322,195,419,-356,-63,663,634,-97,-995,-897,-858
-527,-283,244,405,-385,-19,644,488,-195,-1054,-868,-819
-527,-253,273,390,-400,9,634,380,-244,-1044,-819,-771
-517,-195,322,356,-419,63,614,273,-263,-1015,-761,-712
-507,-156,351,331,-429,97,605,156,-302,-1015,-712,-653
-497,-146,351,322,-424,102,585,39,-370,-1024,-683,-624
-468,-117,351,292,-409,117,575,-39,-409,-1015,-653,-605
-448,-87,361,268,-405,136,566,-87,-419,-985,-644,-585
-439,-68,370,253,-405,151,536,-146,-448,-976,-634,-575
-419,-48,370,234,-395,161,497,-244,-497,-966,-614,-556
-409,-29,380,219,-395,175,478,-351,-556,-985,-605,-546
-419,-19,400,219,-409,190,468,-409,-614,-1005,-595,-536
-409,-9,400,209,-405,195,458,-439,-634,-966,-546,-497
-390,9,400,190,-395,204,448,-419,-624,-907,-497,-439
-361,19,380,170,-370,200,429,-370,-595,-849,-448,-400
-331,39,370,146,-351,204,400,-331,-556,-780,-409,-370
-302,58,361,122,-331,209,390,-292,-527,-722,-390,-351
-283,68,351,107,-317,209,380,-204,-497,-683,-370,-331
-263,58,322,102,-292,190,390,-87,-448,-634,-361,-312
-244,68,312,87,-278,190,390,0,-409,-585,-331,-283
-234,78,312,78,-273,195,390,68,-370,-527,-292,-253
-224,97,322,63,-273,209,400,117,-322,-458,-244,-204
-214,97,312,58,-263,204,429,136,-283,-409,-195,-175
-204,107,312,48,-258,209,448,117,-263,-370,-165,-146
-185,117,302,34,-244,209,458,97,-244,-341,-165,-136
-175,126,302,24,-239,214,488,97,-224,-331,-165,-146
-175,126,302,24,-239,214,517,78,-204,-312,-165,-156
-185,126,312,29,-248,219,546,48,-175,-302,-156,-146
-195,146,341,24,-268,244,595,29,-126,-263,-126,-136
-204,156,361,24,-283,258,634,9,-87,-224,-97,-107
-195,156,351,19,-273,253,644,-58,-78,-185,-58,-78
-195,165,361,14,-278,263,614,-175,-107,-175,-48,-68
-195,175,370,9,-283,273,585,-292,-146,-175,-39,-58
-175,185,361,-4,-268,273,546,-370,-165,-165,-19,-48
-156,195,351,-19,-253,273,468,-419,-185,-156,-9,-29
-146,185,331,-19,-239,258,380,-458,-224,-165,0,-19
-136,195,331,-29,-234,263,263,-488,-253,-156,9,-9
-97,224,322,-63,-209,273,146,-517,-283,-146,29,9
-78,224,302,-73,-190,263,68,-536,-292,-126,48,29
-68,224,292,-78,-180,258,19,-546,-292,-117,58,39
-58,214,273,-78,-165,244,-19,-536,-273,-97,68,48
-48,224,273,-87,-161,248,-48,-517,-263,-87,78,48
-39,224,263,-92,-151,244,-78,-497,-244,-68,87,58
-29,224,253,-97,-141,239,-117,-468,-224,-48,97,68
-9,234,244,-112,-126,239,-165,-448,-214,-29,117,87
9,253,244,-131,-117,248,-204,-439,-204,-9,136,97
14,263,248,-139,-117,256,-214,-429,-204,-4,141,102
19,263,244,-141,-112,253,-214,-429,-204,0,146,107
24,263,239,-143,-107,251,-214,-429,-204,4,151,112
29,263,234,-146,-102,248,-214,-429,-204,9,156,117
39,263,224,-151,-92,244,-229,-419,-200,19,165,126
39,263,224,-151,-92,244,-234,-419,-195,19,165,126
39,263,224,-151,-92,244,-239,-419,-190,19,165,126
39,263,224,-151,-92,244,-244,-419,-185,19,165,126
43,278,234,-161,-95,256,-253,-434,-195,24,170,131
48,283,234,-165,-92,258,-263,-439,-195,29,175,136
53,287,234,-170,-90,261,-273,-444,-195,34,180,141
58,292,234,-175,-87,263,-283,-448,-195,39,185,146
68,292,224,-180,-78,258,-292,-453,-204,48,190,151
68,292,224,-180,-78,258,-292,-458,-204,48,195,156
68,292,224,-180,-78,258,-292,-463,-204,48,200,161
68,292,224,-180,-78,258,-292,-468,-204,48,204,165
78,307,229,-192,-75,268,-307,-478,-214,53,219,175
78,312,234,-195,-78,273,-312,-488,-214,58,224,185
78,317,239,-197,-80,278,-317,-497,-214,63,229,195
78,322,244,-200,-82,283,-322,-507,-214,68,234,204
82,312,229,-197,-73,270,-331,-517,-214,73,248,219
87,312,224,-200,-68,268,-331,-517,-214,78,253,224
92,312,219,-202,-63,265,-331,-517,-214,82,258,229
97,312,214,-204,-58,263,-331,-517,-214,87,263,234
112,317,204,-214,-46,261,-351,-536,-219,102,278,244
117,322,204,-219,-43,263,-361,-546,-224,107,283,253
122,326,204,-224,-41,265,-370,-556,-229,112,287,263
126,331,204,-229,-39,268,-380,-566,-234,117,292,273
141,341,200,-241,-29,270,-390,-575,-244,131,307,287
146,341,195,-244,-24,268,-400,-575,-244,136,312,292
151,341,190,-246,-19,265,-409,-575,-244,141,317,297
156,341,185,-248,-14,263,-419,-575,-244,146,322,302
170,341,170,-256,0,256,-439,-580,-253,161,326,307
175,341,165,-258,4,253,-448,-585,-253,165,331,312
180,341,161,-261,9,251,-458,-590,-253,170,336,317
185,341,156,-263,14,248,-468,-595,-253,175,341,322
190,336,146,-263,21,241,-473,-585,-244,190,351,331
195,331,136,-263,29,234,-478,-585,-244,195,351,331
200,326,126,-263,36,226,-483,-585,-244,200,351,331
204,322,117,-263,43,219,-488,-585,-244,204,351,331
209,312,102,-261,53,207,-488,-580,-239,209,341,322
214,312,97,-263,58,204,-488,-575,-234,214,341,322
219,312,92,-265,63,202,-488,-570,-229,219,341,322
224,312,87,-268,68,200,-488,-566,-224,224,341,322
234,307,73,-270,80,190,-492,-556,-219,234,336,312
234,302,68,-268,82,185,-497,-546,-214,234,331,312
234,297,63,-265,85,180,-502,-536,-209,234,326,312
234,292,58,-263,87,175,-507,-527,-204,234,322,312
234,278,43,-256,95,161,-507,-507,-190,244,317,297
234,273,39,-253,97,156,-507,-497,-185,244,312,292
234,268,34,-251,100,151,-507,-488,-180,244,307,287
234,263,29,-248,102,146,-507,-478,-175,244,302,283
224,253,29,-239,97,141,-497,-463,-165,244,287,268
224,253,29,-239,97,141,-497,-448,-156,244,283,263
224,253,29,-239,97,141,-497,-434,-146,244,278,258
224,253,29,-239,97,141,-497,-419,-136,244,273,253
214,248,34,-231,90,141,-488,-400,-117,253,258,239
214,244,29,-229,92,136,-478,-380,-107,253,253,234
214,239,24,-226,95,131,-468,-361,-97,253,248,229
214,234,19,-224,97,126,-458,-341,-87,253,244,224
209,224,14,-217,97,119,-439,-317,-68,248,229,209
204,224,19,-214,92,122,-429,-292,-58,244,224,204
200,224,24,-212,87,124,-419,-268,-48,239,219,200
195,224,29,-209,82,126,-409,-244,-39,234,214,195
180,214,34,-197,73,124,-400,-219,-24,224,204,180
175,214,39,-195,68,126,-390,-195,-9,224,195,175
170,214,43,-192,63,129,-380,-170,4,224,185,170
165,214,48,-190,58,131,-370,-146,19,224,175,165
156,209,53,-183,51,131,-351,-117,39,214,161,156
156,204,48,-180,53,126,-341,-97,48,214,156,146
156,200,43,-178,56,122,-331,-78,58,214,151,136
156,195,39,-175,58,117,-326,-48,68,219,146,122
151,180,29,-165,61,104,-312,-24,82,204,126,117
146,180,34,-163,56,107,-302,-4,97,200,122,112
146,180,34,-163,56,107,-287,24,117,204,117,102
141,180,39,-161,51,109,-268,53,136,204,102,97
122,170,48,-146,36,109,-239,78,146,200,97,87
117,165,48,-141,34,107,-224,92,151,200,92,82
117,161,43,-139,36,102,-204,112,156,195,87,78
112,161,48,-136,31,104,-190,126,165,195,78,73
107,151,43,-129,31,97,-180,146,175,180,73,58
102,151,48,-126,26,100,-170,165,180,180,68,53
97,146,48,-122,24,97,-161,180,185,175,63,48
97,146,48,-122,24,97,-151,195,195,165,53,39
87,136,48,-112,19,92,-126,204,190,161,48,34
82,136,53,-109,14,95,-102,214,195,161,43,29
82,136,53,-109,14,95,-78,224,200,156,34,24
82,136,53,-109,14,95,-68,234,209,151,29,19
73,131,58,-102,7,95,-68,229,209,136,24,19
73,136,63,-104,4,100,-53,234,209,141,24,24
73,131,58,-102,7,95,-39,239,209,146,29,24
73,131,58,-102,7,95,-19,244,209,156,29,24
68,141,73,-104,-2,107,-24,234,214,151,19,14
68,141,73,-104,-2,107,-19,234,209,141,19,9
68,141,73,-104,-2,107,-9,229,204,131,19,9
68,146,78,-107,-4,112,-9,229,200,126,19,4
73,156,82,-114,-4,119,9,229,195,117,19,14
68,146,78,-107,-4,112,14,224,190,112,19,14
68,141,73,-104,-2,107,19,214,190,112,14,14
68,141,73,-104,-2,107,24,214,180,107,9,9
53,146,92,-100,-19,119,14,204,175,107,9,0
53,151,97,-102,-21,124,19,195,165,97,0,0
48,146,97,-97,-24,122,14,185,156,87,-4,-4
48,146,97,-97,-24,122,9,170,146,87,-4,-9
58,141,82,-100,-12,112,4,156,131,68,0,-14
48,131,82,-90,-17,107,0,151,126,63,-4,-14
48,126,78,-87,-14,102,-4,146,117,63,-4,-14
48,112,63,-80,-7,87,-14,141,112,58,-4,-14
48,122,73,-85,-12,97,-29,136,102,43,-14,-14
43,117,73,-80,-14,95,-39,122,92,39,-24,-19
39,107,68,-73,-14,87,-39,102,78,29,-24,-19
39,92,53,-65,-7,73,-48,87,63,14,-29,-19
48,102,53,-75,-2,78,-53,73,58,19,-34,-19
48,92,43,-70,2,68,-58,68,48,4,-39,-24
48,82,34,-65,7,58,-58,58,34,-4,-43,-29
43,73,29,-58,7,51,-58,58,34,-4,-43,-34
43,63,19,-53,12,41,-63,48,29,-9,-48,-39
39,63,24,-51,7,43,-58,48,19,-19,-53,-39
39,63,24,-51,7,43,-48,43,14,-24,-58,-43
39,63,24,-51,7,43,-48,39,4,-29,-63,-48
39,53,14,-46,12,34,-39,53,19,-14,-58,-43
39,53,14,-46,12,34,-29,53,19,-14,-58,-39
39,43,4,-41,17,24,-24,53,19,-14,-58,-39
39,39,0,-39,19,19,-19,48,9,-14,-58,-39
48,43,-4,-46,26,19,-19,43,4,-24,-48,-43
39,39,0,-39,19,19,-19,43,9,-14,-48,-39
39,34,-4,-36,21,14,-14,53,14,-9,-48,-43
39,29,-9,-34,24,9,-9,63,19,-4,-48,-39
29,34,4,-31,12,19,0,68,14,-19,-58,-48
24,34,9,-29,7,21,0,63,9,-24,-63,-48
24,29,4,-26,9,17,-4,58,4,-29,-68,-58
19,29,9,-24,4,19,-4,43,-4,-39,-73,-58
29,24,-4,-26,17,9,-4,34,-4,-43,-78,-58
29,19,-9,-24,19,4,-9,34,-4,-48,-78,-58
24,14,-9,-19,17,2,-14,29,-9,-48,-78,-63
24,4,-19,-14,21,-7,-14,29,-9,-53,-82,-63
19,0,-19,-9,19,-9,-19,24,-19,-63,-92,-63
19,0,-19,-9,19,-9,-24,24,-19,-63,-92,-63
19,4,-14,-12,17,-4,-29,29,-19,-63,-87,-63
19,4,-14,-12,17,-4,-34,29,-19,-58,-87,-63
9,9,0,-9,4,4,-24,29,-19,-58,-78,-63
9,9,0,-9,4,4,-24,24,-19,-58,-78,-63
9,14,4,-12,2,9,-29,24,-24,-58,-78,-63
14,14,0,-14,7,7,-29,19,-24,-63,-78,-63
14,4,-9,-9,12,-2,-19,29,-19,-53,-73,-58
14,0,-14,-7,14,-7,-19,24,-19,-53,-73,-58
14,0,-14,-7,14,-7,-19,24,-19,-58,-73,-63
9,4,-4,-7,7,0,-19,24,-24,-58,-73,-63
9,4,-4,-7,7,0,-19,24,-24,-53,-82,-68
9,0,-9,-4,9,-4,-19,19,-24,-53,-82,-68
9,0,-9,-4,9,-4,-19,19,-24,-53,-82,-68
14,0,-14,-7,14,-7,-19,14,-24,-53,-82,-68
24,14,-9,-19,17,2,-19,4,-24,-63,-82,-68
24,14,-9,-19,17,2,-19,4,-24,-63,-82,-68
24,14,-9,-19,17,2,-19,9,-19,-58,-82,-68
24,14,-9,-19,17,2,-14,9,-19,-58,-82,-68
14,4,-9,-9,12,-2,-14,19,-14,-48,-78,-58
14,4,-9,-9,12,-2,-14,19,-14,-43,-73,-53
14,4,-9,-9,12,-2,-19,24,-14,-43,-73,-53
14,4,-9,-9,12,-2,-19,24,-14,-43,-73,-53
24,-14,-39,-4,31,-26,-29,34,-4,-34,-68,-43
29,-14,-43,-7,36,-29,-29,39,-9,-43,-68,-53
29,-4,-34,-12,31,-19,-29,39,-9,-43,-73,-53
39,-4,-43,-17,41,-24,-34,39,-14,-39,-78,-48
43,-14,-58,-14,51,-36,-39,48,-9,-39,-78,-48
48,-34,-82,-7,65,-58,-29,53,-19,-43,-78,-48
48,-43,-92,-2,70,-68,-29,63,-29,-58,-107,-68
68,-82,-151,7,109,-117,-24,117,-4,-58,-131,-82
87,-131,-219,21,153,-175,-4,209,58,-9,-146,-102
102,-151,-253,24,178,-202,-4,283,146,107,-117,-92
126,-146,-273,9,200,-209,-29,317,224,263,-48,-63
161,-161,-322,0,241,-241,-48,375,331,434,4,-34
190,-190,-380,0,285,-285,-53,468,473,644,78,4
224,-209,-434,-7,329,-322,-73,556,605,902,185,68
278,-195,-473,-41,375,-334,-92,629,722,1166,317,161
336,-200,-536,-68,436,-368,-92,761,863,1429,453,253
375,-224,-600,-75,488,-412,-87,912,966,1581,531,322
380,-239,-619,-70,500,-429,-53,1015,980,1615,570,336
380,-234,-614,-73,497,-424,-24,1107,941,1503,556,336
331,-248,-580,-41,456,-414,39,1161,780,1117,409,248
229,-278,-507,24,368,-392,141,1166,580,600,151,68
92,-297,-390,102,241,-344,263,1132,453,204,-97,-126
-112,-273,-161,192,24,-217,380,883,263,-229,-385,-370
-326,-263,63,295,-195,-100,478,468,-14,-727,-663,-614
-439,-253,185,346,-312,-34,527,190,-185,-971,-775,-707
-448,-224,224,336,-336,0,546,112,-214,-932,-722,-668
-439,-185,253,312,-346,34,531,19,-273,-907,-673,-614
-439,-141,297,290,-368,78,522,-107,-361,-941,-663,-595
-439,-97,341,268,-390,122,507,-175,-390,-902,-629,-566
-409,-68,341,239,-375,136,497,-151,-356,-839,-575,-522
-370,-43,326,207,-348,141,478,-102,-322,-775,-517,-468
-336,-14,322,175,-329,153,453,-48,-292,-707,-448,-409
-312,-14,297,163,-305,141,439,34,-258,-634,-400,-361
-292,-14,278,153,-285,131,439,92,-239,-600,-375,-341
-268,-19,248,143,-258,114,439,151,-224,-556,-361,-312
-263,-19,244,141,-253,112,453,219,-195,-522,-346,-312
-253,-19,234,136,-244,107,483,312,-170,-497,-351,-317
-239,-19,219,129,-229,100,517,370,-141,-478,-331,-292
-219,-14,204,117,-212,95,541,405,-112,-434,-302,-263
-224,-9,214,117,-219,102,566,419,-78,-405,-268,-248
-214,0,214,107,-214,107,585,400,-68,-375,-244,-224
-214,9,224,102,-219,117,590,331,-78,-341,-209,-190
-214,29,244,92,-229,136,600,224,-97,-317,-190,-175
-224,24,248,100,-236,136,610,122,-112,-302,-180,-170
-224,24,248,100,-236,136,619,48,-126,-297,-180,-170
-224,24,248,100,-236,136,639,-19,-141,-297,-170,-170
-219,29,248,95,-234,139,658,-92,-151,-283,-151,-151
-209,39,248,85,-229,143,644,-180,-165,-283,-136,-141
-209,48,258,80,-234,153,619,-248,-180,-278,-117,-126
-209,53,263,78,-236,158,605,-283,-180,-248,-97,-97
-209,53,263,78,-236,158,561,-297,-185,-234,-73,-82
-195,68,263,63,-229,165,473,-331,-195,-224,-68,-73
-170,78,248,46,-209,163,390,-370,-219,-234,-73,-63
-151,87,239,31,-195,163,307,-390,-229,-229,-63,-58
-141,102,244,19,-192,173,248,-400,-229,-200,-39,-43
-131,112,244,9,-187,178,200,-400,-224,-180,-9,-34
-117,126,244,-4,-180,185,141,-409,-234,-170,0,-19
-102,122,224,-9,-163,173,87,-405,-234,-151,14,-4
-78,126,204,-24,-141,165,53,-390,-224,-136,19,4
-73,141,214,-34,-143,178,14,-375,-214,-126,29,19
-68,141,209,-36,-139,175,-34,-370,-204,-122,29,19
-63,151,214,-43,-139,183,-63,-356,-200,-117,48,29
-53,151,204,-48,-129,178,-78,-356,-200,-107,53,34
-48,151,200,-51,-124,175,-92,-361,-195,-102,53,34
-48,156,204,-53,-126,180,-112,-361,-185,-87,58,34
-43,165,209,-61,-126,187,-122,-356,-190,-97,63,39
-34,165,200,-65,-117,183,-126,-346,-190,-97,68,43
-29,170,200,-70,-114,185,-126,-341,-190,-97,73,48
-24,170,195,-73,-109,183,-131,-336,-190,-97,82,53
-24,170,195,-73,-109,183,-136,-336,-185,-87,73,58
-19,170,190,-75,-104,180,-136,-336,-185,-87,73,58
-19,170,190,-75,-104,180,-141,-336,-180,-87,73,58
-14,175,190,-80,-102,183,-146,-336,-175,-87,73,63
-14,185,200,-85,-107,192,-156,-336,-175,-87,73,53
-14,185,200,-85,-107,192,-161,-336,-175,-87,82,53
-14,185,200,-85,-107,192,-165,-341,-175,-87,82,58
-14,190,204,-87,-109,197,-165,-341,-175,-87,82,58
-4,190,195,-92,-100,192,-161,-341,-175,-87,92,68
-4,190,195,-92,-100,192,-161,-341,-175,-87,92,68
-4,185,190,-90,-97,187,-161,-346,-175,-87,92,68
-4,185,190,-90,-97,187,-161,-346,-175,-87,92,68
-4,195,200,-95,-102,197,-161,-356,-185,-78,107,73
-4,195,200,-95,-102,197,-161,-361,-185,-78,107,78
-4,195,200,-95,-102,197,-165,-361,-190,-82,107,87
-4,195,200,-95,-102,197,-170,-366,-190,-82,102,92
-4,195,200,-95,-102,197,-180,-370,-190,-73,112,92
-4,195,200,-95,-102,197,-190,-375,-195,-73,117,97
-4,200,204,-97,-104,202,-190,-375,-195,-73,117,97
-4,200,204,-97,-104,202,-190,-370,-195,-73,117,97
-4,209,214,-102,-109,212,-195,-385,-204,-82,117,97
0,214,214,-107,-107,214,-200,-395,-209,-82,117,102
4,214,209,-109,-102,212,-204,-400,-214,-82,117,102
4,214,209,-109,-102,212,-214,-400,-214,-82,117,102
14,209,195,-112,-90,202,-200,-405,-224,-92,126,107
14,209,195,-112,-90,202,-200,-405,-224,-92,126,112
19,209,190,-114,-85,200,-195,-409,-224,-87,126,117
19,209,190,-114,-85,200,-190,-414,-224,-87,126,122
19,219,200,-119,-90,209,-209,-419,-234,-87,117,117
19,219,200,-119,-90,209,-209,-419,-234,-82,122,117
29,219,190,-124,-80,204,-209,-419,-234,-78,122,117
34,219,185,-126,-75,202,-219,-419,-234,-73,122,117
39,214,175,-126,-68,195,-234,-429,-234,-82,131,122
43,214,170,-129,-63,192,-239,-429,-234,-78,131,122
48,209,161,-129,-56,185,-244,-429,-234,-73,131,122
53,209,156,-131,-51,183,-244,-424,-234,-68,126,122
53,214,161,-134,-53,187,-253,-414,-234,-53,126,126
58,214,156,-136,-48,185,-263,-414,-234,-53,126,131
63,219,156,-141,-46,187,-263,-419,-234,-48,126,136
68,224,156,-146,-43,190,-268,-419,-234,-48,126,141
68,214,146,-141,-39,180,-273,-419,-234,-39,136,136
73,204,131,-139,-29,168,-283,-419,-234,-34,131,136
73,195,122,-134,-24,158,-292,-419,-234,-34,131,136
78,190,112,-134,-17,151,-297,-419,-234,-29,131,131
78,190,112,-134,-17,151,-307,-419,-229,-29,126,141
87,185,97,-136,-4,141,-307,-419,-229,-29,117,141
97,185,87,-141,4,136,-307,-419,-229,-29,117,131
97,185,87,-141,4,136,-302,-409,-224,-19,117,136
97,185,87,-141,4,136,-302,-400,-214,-14,107,131
97,185,87,-141,4,136,-302,-400,-214,-9,107,126
97,185,87,-141,4,136,-302,-400,-214,-4,107,122
97,185,87,-141,4,136,-302,-400,-214,0,107,117
107,175,68,-141,19,122,-307,-375,-209,9,107,112
107,170,63,-139,21,117,-307,-361,-195,14,102,112
107,170,63,-139,21,117,-312,-351,-180,19,102,112
112,170,58,-141,26,114,-312,-331,-161,34,102,107
102,161,58,-131,21,109,-307,-312,-146,39,92,107
97,161,63,-129,17,112,-302,-292,-131,43,92,102
97,156,58,-126,19,107,-302,-273,-122,53,92,102
102,151,48,-126,26,100,-297,-248,-112,58,92,102
102,151,48,-126,26,100,-287,-219,-92,68,87,92
102,151,48,-126,26,100,-283,-185,-68,73,87,92
102,151,48,-126,26,100,-278,-151,-48,82,87,92
102,146,43,-124,29,95,-273,-122,-29,87,87,92
107,146,39,-126,34,92,-278,-107,-9,87,73,78
107,146,39,-126,34,92,-268,-73,9,92,73,78
102,146,43,-124,29,95,-248,-48,29,102,73,78
102,146,43,-124,29,95,-229,-24,48,107,68,78
92,136,43,-114,24,90,-219,9,63,112,68,73
92,141,48,-117,21,95,-200,24,82,112,73,68
92,156,63,-124,14,109,-175,48,102,122,73,68
92,161,68,-126,12,114,-151,73,122,131,78,63
87,165,78,-126,4,122,-136,97,151,146,78,63
78,161,82,-119,-2,122,-122,117,170,151,78,63
73,156,82,-114,-4,119,-107,136,180,151,78,58
68,151,82,-109,-7,117,-87,151,190,151,78,58
78,146,68,-112,4,107,-68,175,200,165,68,53
73,146,73,-109,0,109,-58,195,214,165,68,53
68,136,68,-102,0,102,-53,209,219,161,68,53
68,131,63,-100,2,97,-48,219,229,161,63,53
68,131,63,-100,2,97,-34,234,229,156,48,39
63,122,58,-92,2,90,-29,234,229,156,48,29
63,122,58,-92,2,90,-19,234,224,146,39,29
58,112,53,-85,2,82,-19,234,219,136,34,24
48,107,58,-78,-4,82,-24,239,214,126,24,19
48,102,53,-75,-2,78,-29,229,209,117,19,14
39,92,53,-65,-7,73,-34,229,204,112,14,14
39,87,48,-63,-4,68,-39,229,195,112,14,14
39,63,24,-51,7,43,-34,219,190,107,14,14
43,63,19,-53,12,41,-39,219,190,102,14,14
43,58,14,-51,14,36,-48,209,180,97,4,9
43,48,4,-46,19,26,-48,195,165,87,4,9
48,34,-14,-41,31,9,-58,175,141,63,-9,0
48,34,-14,-41,31,9,-58,161,126,58,-14,0
48,24,-24,-36,36,0,-58,156,117,43,-19,-4
48,14,-34,-31,41,-9,-53,146,102,34,-24,-9
34,-4,-39,-14,36,-21,-39,146,102,43,-24,-14
34,-4,-39,-14,36,-21,-29,151,107,48,-24,-14
29,-4,-34,-12,31,-19,-19,156,107,48,-24,-9
29,-4,-34,-12,31,-19,-4,156,112,53,-24,-9
39,4,-34,-21,36,-14,-4,165,112,58,-24,-9
39,4,-34,-21,36,-14,-4,170,117,63,-19,-4
39,4,-34,-21,36,-14,-4,170,117,63,-19,0
39,-4,-43,-17,41,-24,-9,170,117,63,-19,0
39,-9,-48,-14,43,-29,-4,156,107,53,-29,-9
39,-14,-53,-12,46,-34,-4,141,92,34,-34,-19
29,-19,-48,-4,39,-34,-4,131,87,34,-39,-19
29,-24,-53,-2,41,-39,0,131,82,29,-43,-29
19,-39,-58,9,39,-48,0,131,78,24,-48,-39
19,-43,-63,12,41,-53,0,126,73,19,-48,-39
14,-43,-58,14,36,-51,0,122,68,14,-53,-39
14,-48,-63,17,39,-56,-4,117,63,9,-58,-48
9,-48,-58,19,34,-53,-14,112,53,0,-63,-48
9,-48,-58,19,34,-53,-9,102,43,-4,-68,-48
9,-48,-58,19,34,-53,-9,102,43,-9,-68,-48
4,-48,-53,21,29,-51,-9,97,39,-9,-68,-53
4,-43,-48,19,26,-46,4,87,39,-4,-73,-53
0,-48,-48,24,24,-48,4,82,39,-4,-73,-53
0,-48,-48,24,24,-48,4,82,39,-4,-73,-53
0,-43,-43,21,21,-43,4,87,39,-4,-68,-53
9,-43,-53,17,31,-48,4,87,29,-4,-68,-53
9,-48,-58,19,34,-53,4,87,29,-9,-68,-53
9,-48,-58,19,34,-53,4,82,29,-14,-68,-53
9,-43,-53,17,31,-48,0,82,24,-19,-68,-53
4,-53,-58,24,31,-56,-9,78,34,-14,-68,-53
4,-53,-58,24,31,-56,-9,78,29,-14,-63,-48
4,-58,-63,26,34,-61,-9,73,29,-14,-63,-48
4,-58,-63,26,34,-61,-9,73,29,-19,-63,-53
0,-53,-53,26,26,-53,-9,73,24,-19,-63,-43
0,-53,-53,26,26,-53,-9,73,24,-14,-63,-39
0,-58,-58,29,29,-58,-9,68,24,-14,-63,-39
0,-58,-58,29,29,-58,-9,68,24,-14,-63,-39
4,-58,-63,26,34,-61,0,63,24,-14,-53,-39
4,-53,-58,24,31,-56,0,63,24,-14,-53,-39
4,-53,-58,24,31,-56,0,63,24,-14,-53,-39
4,-53,-58,24,31,-56,0,68,29,-9,-53,-39
4,-53,-58,24,31,-56,0,78,19,-9,-53,-29
4,-53,-58,24,31,-56,-4,78,24,-9,-48,-29
4,-53,-58,24,31,-56,-9,78,24,-4,-43,-24
4,-53,-58,24,31,-56,-19,82,24,-4,-43,-24
4,-43,-48,19,26,-46,-9,73,24,-4,-43,-24
14,-43,-58,14,36,-51,0,73,34,4,-29,-24
9,-53,-63,21,36,-58,0,87,39,14,-29,-24
9,-53,-63,21,36,-58,0,97,39,14,-43,-34
19,-63,-82,21,51,-73,-4,117,53,29,-48,-29
24,-73,-97,24,61,-85,9,175,97,48,-58,-39
39,-73,-112,17,75,-92,9,258,165,112,-58,-48
48,-82,-131,17,90,-107,9,307,253,234,0,-19
68,-82,-151,7,109,-117,-4,322,346,390,73,34
97,-73,-170,-12,134,-122,-4,385,468,585,156,73
141,-73,-214,-34,178,-143,-14,429,575,790,234,131
175,-68,-244,-53,209,-156,-48,434,634,966,322,190
219,-63,-283,-78,251,-173,-87,453,712,1166,434,278
268,-63,-331,-102,300,-197,-102,546,805,1356,546,366
302,-53,-356,-124,329,-204,-112,634,839,1439,614,429
346,-58,-405,-143,375,-231,-112,707,819,1420,649,483
385,-73,-458,-156,422,-265,-112,771,736,1254,649,507
395,-87,-483,-153,439,-285,-87,805,566,868,522,458
370,-92,-463,-139,417,-278,-34,819,405,473,356,375
292,-87,-380,-102,336,-234,34,756,297,185,185,258
136,-82,-219,-26,178,-151,126,468,78,-229,-58,73
-34,-102,-68,68,17,-85,219,92,-209,-707,-326,-146
-131,-102,29,117,-80,-36,263,-107,-356,-927,-468,-263
-180,-68,112,124,-146,21,273,-161,-390,-941,-473,-283
-229,-39,190,134,-209,75,292,-244,-424,-932,-468,-302
-292,-39,253,165,-273,107,312,-336,-478,-961,-492,-346
-302,-48,253,175,-278,102,312,-366,-507,-951,-507,-375
-283,-39,244,161,-263,102,317,-312,-468,-878,-488,-361
-302,-4,297,153,-300,146,356,-195,-370,-756,-409,-322
-312,19,331,146,-322,175,400,-68,-263,-639,-336,-283
-292,9,302,141,-297,156,409,34,-229,-585,-322,-268
-263,4,268,129,-265,136,390,82,-224,-570,-322,-263
-258,4,263,126,-261,134,395,156,-185,-512,-292,-244
-263,-4,258,134,-261,126,429,258,-141,-478,-283,-253
-253,-14,239,134,-246,112,468,356,-112,-453,-287,-253
-248,-19,229,134,-239,104,497,414,-97,-419,-273,-244
-244,-19,224,131,-234,102,531,444,-68,-375,-258,-234
-224,-29,195,126,-209,82,561,468,-43,-341,-234,-209
-219,-29,190,124,-204,80,595,478,-24,-312,-214,-195
-219,-14,204,117,-212,95,610,434,-24,-297,-195,-185
-224,0,224,112,-224,112,614,351,-29,-297,-190,-180
-224,0,224,112,-224,112,634,263,-39,-278,-175,-175
-244,0,244,122,-244,122,649,195,-48,-273,-161,-170
-234,0,234,117,-234,117,658,117,-68,-268,-170,-165
-234,-4,229,119,-231,112,658,24,-102,-263,-161,-161
-234,-4,229,119,-231,112,649,-87,-126,-248,-151,-141
-234,-24,209,129,-222,92,649,-165,-151,-239,-122,-131
-219,-9,209,114,-214,100,610,-219,-161,-234,-112,-122
-209,0,209,104,-209,104,566,-248,-165,-224,-97,-112
-209,0,209,104,-209,104,502,-287,-170,-209,-87,-107
-200,4,204,97,-202,104,429,-331,-180,-209,-78,-87
-190,24,214,82,-202,119,346,-356,-195,-204,-63,-73
-175,39,214,68,-195,126,268,-351,-204,-185,-39,-53
-151,48,200,51,-175,124,224,-361,-209,-165,-24,-34
-131,39,170,46,-151,104,180,-361,-209,-151,-14,-19
-112,53,165,29,-139,109,122,-361,-219,-141,-9,-14
-102,63,165,19,-134,114,73,-351,-204,-141,-9,-24
-97,68,165,14,-131,117,34,-341,-195,-131,0,-19
-82,73,156,4,-119,114,-9,-326,-165,-122,14,-4
-68,87,156,-9,-112,122,-53,-312,-156,-97,19,4
-63,92,156,-14,-109,124,-73,-307,-146,-87,39,19
-58,102,161,-21,-109,131,-82,-302,-146,-82,48,19
-63,97,161,-17,-112,129,-92,-297,-151,-92,53,19
-53,92,146,-19,-100,119,-97,-297,-161,-87,53,24
-48,87,136,-19,-92,112,-102,-302,-165,-87,48,24
-48,87,136,-19,-92,112,-112,-302,-165,-78,48,24
-39,97,136,-29,-87,117,-122,-292,-156,-73,48,24
-34,97,131,-31,-82,114,-126,-287,-151,-68,48,24
-34,102,136,-34,-85,119,-126,-287,-146,-63,48,24
-34,102,136,-34,-85,119,-131,-287,-141,-58,53,24
-34,102,136,-34,-85,119,-131,-287,-141,-58,63,39
-29,102,131,-36,-80,117,-126,-287,-146,-58,63,39
-29,102,131,-36,-80,117,-126,-287,-146,-58,63,39
-24,107,131,-41,-78,119,-126,-287,-146,-58,63,43
-24,107,131,-41,-78,119,-136,-297,-156,-63,53,34
-24,107,131,-41,-78,119,-141,-297,-156,-68,63,34
-24,107,131,-41,-78,119,-146,-302,-156,-73,63,39
-24,112,136,-43,-80,124,-146,-302,-156,-78,63,39
-24,102,126,-39,-75,114,-146,-292,-156,-78,73,39
-24,102,126,-39,-75,114,-141,-292,-156,-78,73,39
-24,97,122,-36,-73,109,-136,-297,-156,-78,73,39
-24,97,122,-36,-73,109,-131,-297,-156,-78,73,39
-34,107,141,-36,-87,124,-131,-297,-165,-68,78,39
-34,107,141,-36,-87,124,-131,-302,-165,-68,78,39
-34,107,141,-36,-87,124,-136,-302,-170,-73,78,43
-34,107,141,-36,-87,124,-141,-307,-170,-73,73,43
-34,97,131,-31,-82,114,-141,-312,-170,-82,73,34
-34,97,131,-31,-82,114,-151,-317,-175,-82,78,39
-34,102,136,-34,-85,119,-151,-317,-175,-82,78,39
-34,102,136,-34,-85,119,-151,-312,-175,-82,78,39
-24,102,126,-39,-75,114,-161,-322,-185,-82,78,39
-19,107,126,-43,-73,117,-161,-326,-190,-82,78,43
-14,107,122,-46,-68,114,-161,-326,-195,-82,78,43
-14,107,122,-46,-68,114,-165,-322,-195,-82,78,43
-24,102,126,-39,-75,114,-165,-322,-195,-82,68,43
-24,102,126,-39,-75,114,-170,-317,-195,-82,68,43
-19,102,122,-41,-70,112,-170,-317,-195,-78,68,43
-19,102,122,-41,-70,112,-170,-317,-195,-78,68,43
-19,102,122,-41,-70,112,-170,-317,-195,-68,68,39
-19,102,122,-41,-70,112,-170,-312,-195,-63,73,39
-9,102,112,-46,-61,107,-170,-307,-195,-58,73,39
-4,102,107,-48,-56,104,-180,-302,-195,-53,73,39
0,97,97,-48,-48,97,-175,-292,-185,-43,73,39
4,97,92,-51,-43,95,-180,-292,-185,-39,73,43
9,92,82,-51,-36,87,-185,-292,-185,-34,73,48
14,92,78,-53,-31,85,-185,-287,-185,-29,68,53
14,82,68,-48,-26,75,-204,-297,-195,-24,68,53
19,78,58,-48,-19,68,-214,-297,-195,-24,68,53
24,78,53,-51,-14,65,-214,-302,-195,-19,68,53
29,78,48,-53,-9,63,-219,-302,-195,-19,68,53
39,73,34,-56,2,53,-224,-302,-195,-19,68,48
43,78,34,-61,4,56,-234,-302,-195,-24,63,48
43,73,29,-58,7,51,-244,-302,-195,-24,63,48
48,58,9,-53,19,34,-244,-302,-195,-19,58,48
58,58,0,-58,29,29,-253,-302,-195,-9,48,48
58,58,0,-58,29,29,-253,-302,-195,-9,48,48
58,58,0,-58,29,29,-253,-302,-195,-9,48,48
58,58,0,-58,29,29,-253,-302,-195,-9,48,48
68,68,0,-68,34,34,-263,-302,-185,-4,48,43
68,63,-4,-65,36,29,-268,-292,-175,-4,43,43
68,63,-4,-65,36,29,-278,-287,-165,-4,43,43
73,63,-9,-68,41,26,-283,-273,-151,4,43,39
73,63,-9,-68,41,26,-287,-258,-141,9,43,39
68,63,-4,-65,36,29,-283,-244,-131,14,43,34
68,58,-9,-63,39,24,-283,-229,-126,24,43,34
73,53,-19,-63,46,17,-278,-209,-122,29,43,34
73,53,-19,-63,46,17,-278,-204,-97,29,29,34
73,53,-19,-63,46,17,-273,-175,-78,34,29,34
73,53,-19,-63,46,17,-268,-146,-63,43,29,34
73,48,-24,-61,48,12,-263,-122,-48,48,29,34
68,48,-19,-58,43,14,-258,-107,-39,58,24,19
68,48,-19,-58,43,14,-248,-73,-19,63,24,19
63,48,-14,-56,39,17,-229,-48,0,73,24,19
63,48,-14,-56,39,17,-209,-24,19,78,19,19
73,58,-14,-65,43,21,-195,0,43,82,19,29
73,63,-9,-68,41,26,-180,14,63,82,24,29
73,78,4,-75,34,41,-161,39,82,92,24,34
73,82,9,-78,31,46,-141,63,102,102,29,34
82,82,0,-82,41,41,-117,97,122,117,39,34
78,82,4,-80,36,43,-102,117,141,122,39,34
78,82,4,-80,36,43,-87,136,151,122,39,29
78,82,4,-80,36,43,-68,151,161,122,39,29
68,87,19,-78,24,53,-68,170,170,136,29,14
63,87,24,-75,19,56,-58,185,185,136,29,14
58,78,19,-68,19,48,-53,195,190,131,29,14
58,73,14,-65,21,43,-48,200,200,131,24,14
68,63,-4,-65,36,29,-43,224,209,131,29,9
63,53,-9,-58,36,21,-39,224,209,136,29,0
63,53,-9,-58,36,21,-29,224,204,131,19,0
58,43,-14,-51,36,14,-29,224,200,126,14,-4
58,48,-9,-53,34,19,-29,229,204,117,4,0
58,43,-14,-51,36,14,-29,219,200,107,0,-4
48,34,-14,-41,31,9,-29,219,195,102,-4,-4
48,29,-19,-39,34,4,-29,219,185,102,-4,-4
48,14,-34,-31,41,-9,-24,219,180,97,-4,-4
53,14,-39,-34,46,-12,-29,219,180,92,-4,-4
53,9,-43,-31,48,-17,-39,209,170,87,-14,-9
53,0,-53,-26,53,-26,-39,195,156,78,-14,-9
48,-14,-63,-17,56,-39,-58,185,141,63,-9,-9
48,-14,-63,-17,56,-39,-58,170,126,58,-14,-9
48,-24,-73,-12,61,-48,-58,165,117,43,-19,-14
48,-34,-82,-7,65,-58,-53,156,102,34,-24,-19
53,-43,-97,-4,75,-70,-39,156,102,34,-29,-34
53,-43,-97,-4,75,-70,-29,161,107,39,-34,-34
48,-43,-92,-2,70,-68,-19,165,107,39,-39,-29
48,-43,-92,-2,70,-68,-4,165,112,43,-43,-29
39,-43,-82,2,61,-63,0,175,112,48,-39,-19
39,-43,-82,2,61,-63,4,180,117,53,-29,-14
39,-43,-82,2,61,-63,9,180,117,53,-24,-9
39,-53,-92,7,65,-73,9,180,117,53,-19,-9
39,-58,-97,9,68,-78,9,170,107,43,-29,-19
39,-63,-102,12,70,-82,4,151,92,24,-34,-29
29,-68,-97,19,63,-82,0,136,87,24,-39,-29
29,-73,-102,21,65,-87,0,131,82,19,-43,-39
29,-68,-97,19,63,-82,0,131,78,24,-48,-39
29,-73,-102,21,65,-87,0,126,73,19,-48,-39
24,-73,-97,24,61,-85,0,122,68,14,-53,-39
24,-78,-102,26,63,-90,-4,117,63,9,-58,-48
19,-87,-107,34,63,-97,-9,102,53,-9,-63,-48
19,-87,-107,34,63,-97,-9,92,43,-14,-68,-48
19,-87,-107,34,63,-97,-14,92,43,-19,-68,-48
14,-87,-102,36,58,-95,-19,87,39,-19,-68,-53
14,-82,-97,34,56,-90,-14,87,29,-24,-82,-53
9,-87,-97,39,53,-92,-14,82,29,-24,-82,-53
9,-87,-97,39,53,-92,-14,82,29,-24,-82,-53
9,-82,-92,36,51,-87,-14,87,29,-24,-78,-53
9,-82,-92,36,51,-87,0,87,39,-19,-68,-43
9,-87,-97,39,53,-92,4,87,39,-19,-68,-43
9,-87,-97,39,53,-92,9,82,39,-19,-68,-43
9,-82,-92,36,51,-87,9,82,34,-19,-68,-43
4,-73,-78,34,41,-75,4,78,24,-14,-68,-53
4,-73,-78,34,41,-75,0,78,19,-14,-63,-48
4,-78,-82,36,43,-80,-4,73,19,-14,-63,-48
4,-78,-82,36,43,-80,-9,73,19,-19,-63,-53
9,-73,-82,31,46,-78,-19,73,24,-19,-63,-43
9,-73,-82,31,46,-78,-19,73,24,-14,-63,-39
9,-78,-87,34,48,-82,-19,68,24,-14,-63,-39
9,-78,-87,34,48,-82,-19,68,24,-14,-63,-39
4,-87,-92,41,48,-90,-9,63,24,-14,-63,-39
4,-82,-87,39,46,-85,-9,63,24,-14,-63,-39
4,-82,-87,39,46,-85,-9,63,24,-14,-63,-39
4,-82,-87,39,46,-85,-9,68,29,-9,-63,-39
4,-82,-87,39,46,-85,-14,68,19,-9,-63,-39
4,-82,-87,39,46,-85,-14,68,24,-9,-58,-39
4,-82,-87,39,46,-85,-14,68,24,-4,-53,-34
4,-82,-87,39,46,-85,-19,73,24,-4,-53,-34
14,-63,-78,24,46,-70,-9,73,24,-4,-53,-43
14,-63,-78,24,46,-70,-9,73,34,4,-48,-34
19,-73,-92,26,56,-82,0,78,48,14,-48,-34
19,-73,-92,26,56,-82,0,87,48,14,-43,-34
19,-82,-102,31,61,-92,4,117,53,19,-48,-39
24,-92,-117,34,70,-104,0,175,87,39,-58,-48
39,-102,-141,31,90,-122,9,268,156,102,-58,-39
48,-122,-170,36,109,-146,9,326,244,214,-9,-19
68,-102,-170,17,119,-136,-14,331,326,361,53,14
97,-102,-200,2,148,-151,-14,375,439,536,117,53
141,-122,-263,-9,202,-192,-14,429,546,741,204,112
185,-117,-302,-34,244,-209,-48,424,614,917,292,170
239,-112,-351,-63,295,-231,-87,444,692,1117,405,258
287,-92,-380,-97,334,-236,-122,517,785,1327,527,346
312,-82,-395,-114,353,-239,-122,605,849,1439,595,409
346,-97,-444,-124,395,-270,-122,697,829,1439,639,463
375,-102,-478,-136,427,-290,-122,780,766,1312,649,497
395,-107,-502,-143,448,-305,-107,824,605,966,541,468
390,-122,-512,-134,451,-317,-63,839,434,551,385,405
331,-126,-458,-102,395,-292,14,805,326,253,234,307
185,-122,-307,-31,246,-214,107,556,136,-131,19,131
14,-131,-146,58,80,-139,200,161,-161,-629,-268,-97
-102,-131,-29,117,-36,-80,253,-87,-356,-917,-439,-244
-151,-117,34,134,-92,-41,283,-151,-390,-941,-473,-273
-200,-97,102,148,-151,2,302,-224,-414,-932,-468,-292
-263,-78,185,170,-224,53,312,-326,-478,-951,-502,-346
-283,-78,204,180,-244,63,322,-346,-497,-941,-517,-375
-273,-78,195,175,-234,58,336,-292,-458,-878,-478,-361
-273,-53,219,163,-246,82,366,-185,-351,-756,-400,-312
-292,-9,283,151,-287,136,409,-48,-244,-619,-326,-273
-273,-9,263,141,-268,126,429,53,-200,-556,-302,-258
-253,-24,229,139,-241,102,419,112,-204,-551,-302,-253
-258,-34,224,146,-241,95,414,165,-175,-502,-292,-253
-263,-34,229,148,-246,97,439,258,-141,-458,-283,-253
-253,-43,209,148,-231,82,478,356,-112,-444,-287,-253
-229,-58,170,143,-200,56,507,444,-87,-419,-283,-244
-204,-68,136,136,-170,34,531,483,-58,-385,-258,-234
-195,-68,126,131,-161,29,570,517,-24,-341,-234,-219
-190,-58,131,124,-161,36,614,507,-4,-312,-214,-195
-200,-53,146,126,-173,46,629,473,-4,-297,-204,-185
-214,-48,165,131,-190,58,644,390,-9,-278,-190,-180
-214,-39,175,126,-195,68,644,302,-19,-278,-185,-175
-214,-29,185,122,-200,78,658,224,-29,-273,-190,-170
-224,-39,185,131,-204,73,678,146,-39,-258,-170,-156
-224,-53,170,139,-197,58,688,63,-63,-244,-151,-151
-234,-53,180,143,-207,63,688,-48,-97,-248,-141,-151
-224,-53,170,139,-197,58,678,-146,-122,-229,-122,-131
-229,-39,190,134,-209,75,668,-209,-141,-224,-102,-112
-229,-48,180,139,-204,65,614,-229,-146,-214,-87,-92
-219,-39,180,129,-200,70,541,-268,-151,-209,-78,-87
-200,-24,175,112,-187,75,448,-331,-170,-219,-87,-97
-180,-14,165,97,-173,75,346,-356,-195,-214,-73,-92
-156,-9,146,82,-151,68,268,-361,-195,-185,-48,-63
-151,0,151,75,-151,75,224,-351,-200,-156,-24,-34
-131,0,131,65,-131,65,190,-361,-200,-141,-4,-19
-102,4,107,48,-104,56,131,-370,-209,-131,0,-14
-82,14,97,34,-90,56,92,-341,-204,-131,9,-4
-78,9,87,34,-82,48,63,-322,-175,-122,19,0
-73,34,107,19,-90,70,9,-317,-165,-112,14,-4
-58,48,107,4,-82,78,-43,-312,-156,-107,19,4
-53,63,117,-4,-85,90,-73,-297,-146,-87,39,19
-58,63,122,-2,-90,92,-82,-283,-146,-73,48,29
-53,58,112,-2,-82,85,-92,-278,-146,-73,48,29
-43,53,97,-4,-70,75,-97,-278,-151,-68,53,34
-39,48,87,-4,-63,68,-102,-283,-151,-68,53,34
-39,48,87,-4,-63,68,-112,-283,-146,-58,58,34
-29,58,87,-14,-58,73,-122,-283,-141,-58,58,24
-24,58,82,-17,-53,70,-126,-278,-141,-58,58,24
-24,63,87,-19,-56,75,-126,-278,-141,-58,58,24
-24,63,87,-19,-56,75,-131,-278,-141,-58,63,24
-34,63,97,-14,-65,80,-122,-278,-141,-48,73,39
-29,63,92,-17,-61,78,-117,-278,-146,-48,73,39
-29,63,92,-17,-61,78,-117,-278,-146,-48,73,39
-24,68,92,-21,-58,80,-117,-278,-146,-48,73,43
-14,68,82,-26,-48,75,-126,-278,-146,-53,68,34
-14,68,82,-26,-48,75,-131,-278,-146,-58,73,34
-14,68,82,-26,-48,75,-136,-283,-146,-63,68,39
-14,73,87,-29,-51,80,-136,-283,-146,-68,63,39
-14,73,87,-29,-51,80,-131,-283,-146,-58,73,48
-14,73,87,-29,-51,80,-131,-283,-146,-58,73,48
-14,68,82,-26,-48,75,-131,-287,-146,-58,73,48
-14,68,82,-26,-48,75,-131,-287,-146,-58,73,48
-14,68,82,-26,-48,75,-131,-287,-156,-58,78,39
-14,68,82,-26,-48,75,-131,-292,-156,-58,78,39
-14,68,82,-26,-48,75,-136,-292,-161,-63,78,43
-14,68,82,-26,-48,75,-141,-297,-161,-63,73,43
-24,68,92,-21,-58,80,-131,-302,-161,-63,73,43
-24,68,92,-21,-58,80,-141,-307,-165,-63,78,48
-24,73,97,-24,-61,85,-141,-307,-165,-63,78,48
-24,73,97,-24,-61,85,-141,-302,-165,-63,78,48
-24,63,87,-19,-56,75,-151,-302,-165,-63,78,48
-19,68,87,-24,-53,78,-151,-307,-170,-63,78,53
-14,68,82,-26,-48,75,-151,-307,-175,-63,78,53
-14,68,82,-26,-48,75,-156,-302,-175,-63,78,53
-14,63,78,-24,-46,70,-161,-312,-175,-63,78,63
-14,63,78,-24,-46,70,-170,-307,-175,-63,78,63
-9,63,73,-26,-41,68,-175,-307,-175,-58,78,63
-9,63,73,-26,-41,68,-180,-307,-175,-58,78,63
-9,73,82,-31,-46,78,-185,-297,-185,-48,78,58
-9,73,82,-31,-46,78,-180,-292,-185,-43,82,58
0,73,73,-36,-36,73,-175,-287,-185,-39,82,58
4,73,68,-39,-31,70,-180,-283,-185,-34,82,58
0,68,68,-34,-34,68,-180,-283,-175,-24,82,53
4,68,63,-36,-29,65,-180,-283,-175,-19,82,53
9,63,53,-36,-21,58,-180,-283,-175,-14,82,53
14,63,48,-39,-17,56,-175,-278,-175,-9,78,53
24,53,29,-39,-2,41,-190,-287,-185,-14,68,53
29,48,19,-39,4,34,-204,-287,-185,-14,68,53
34,48,14,-41,9,31,-209,-292,-185,-9,68,53
39,48,9,-43,14,29,-219,-292,-185,-9,68,53
48,43,-4,-46,26,19,-224,-292,-185,-9,68,48
53,29,-24,-41,39,2,-234,-292,-185,-4,63,48
63,34,-29,-48,46,2,-234,-292,-175,-4,63,58
68,39,-29,-53,48,4,-244,-292,-185,0,58,58
68,34,-34,-51,51,0,-248,-292,-185,0,48,48
68,29,-39,-48,53,-4,-253,-292,-185,0,48,48
68,24,-43,-46,56,-9,-258,-292,-185,0,48,48
68,19,-48,-43,58,-14,-263,-292,-185,0,48,48
78,29,-48,-53,63,-9,-268,-292,-185,4,48,43
78,24,-53,-51,65,-14,-268,-283,-175,4,43,43
78,24,-53,-51,65,-14,-273,-278,-165,4,43,43
82,24,-58,-53,70,-17,-273,-263,-151,14,43,39
92,14,-78,-53,85,-31,-278,-248,-136,29,43,39
87,14,-73,-51,80,-29,-273,-234,-122,34,43,34
87,9,-78,-48,82,-34,-273,-219,-112,43,43,34
92,4,-87,-48,90,-41,-268,-200,-102,48,43,34
92,14,-78,-53,85,-31,-278,-195,-97,48,29,43
92,14,-78,-53,85,-31,-273,-165,-78,53,29,43
92,14,-78,-53,85,-31,-268,-136,-63,63,29,43
92,9,-82,-51,87,-36,-263,-112,-48,68,29,43
87,9,-78,-48,82,-34,-258,-87,-19,68,24,29
87,9,-78,-48,82,-34,-248,-53,0,73,24,29
82,9,-73,-46,78,-31,-229,-29,19,82,24,29
82,9,-73,-46,78,-31,-209,-4,39,87,19,29
82,19,-63,-51,73,-21,-195,19,53,102,29,29
82,24,-58,-53,70,-17,-180,34,73,102,34,29
82,39,-43,-61,63,-2,-161,58,92,112,34,34
82,43,-39,-63,61,2,-141,82,112,122,39,34
92,43,-48,-68,70,-2,-122,117,141,136,39,34
87,43,-43,-65,65,0,-112,136,161,141,39,34
87,43,-43,-65,65,0,-102,156,170,141,39,29
87,43,-43,-65,65,0,-87,170,180,141,39,29
87,58,-29,-73,58,14,-68,200,190,146,39,34
82,58,-24,-70,53,17,-58,214,204,146,39,34
78,48,-29,-63,53,9,-53,224,209,141,39,34
78,43,-34,-61,56,4,-48,229,219,141,34,34
78,43,-34,-61,56,4,-43,244,229,141,39,29
73,34,-39,-53,56,-2,-39,244,229,146,39,19
73,34,-39,-53,56,-2,-29,244,224,141,29,19
68,24,-43,-46,56,-9,-29,244,219,136,24,14
68,19,-48,-43,58,-14,-29,248,224,136,14,9
68,14,-53,-41,61,-19,-29,239,219,126,9,4
58,4,-53,-31,56,-24,-29,239,214,122,4,4
58,0,-58,-29,58,-29,-29,239,204,122,4,4
58,-14,-73,-21,65,-43,-24,239,200,117,14,4
63,-14,-78,-24,70,-46,-29,239,200,112,14,4
63,-19,-82,-21,73,-51,-39,229,190,107,4,0
63,-29,-92,-17,78,-61,-39,214,175,97,4,0
58,-43,-102,-7,80,-73,-48,204,161,73,-4,-9
58,-43,-102,-7,80,-73,-48,190,146,68,-14,-9
58,-53,-112,-2,85,-82,-48,185,136,53,-24,-14
58,-63,-122,2,90,-92,-43,175,122,43,-34,-19
53,-73,-126,9,90,-100,-39,175,122,53,-24,-24
53,-73,-126,9,90,-100,-29,180,126,58,-24,-24
48,-73,-122,12,85,-97,-19,185,126,58,-24,-19
48,-73,-122,12,85,-97,-4,185,131,63,-24,-19
58,-63,-122,2,90,-92,0,195,131,68,-14,-9
58,-63,-122,2,90,-92,4,200,136,73,-9,-4
58,-63,-122,2,90,-92,9,200,136,73,-9,0
58,-73,-131,7,95,-102,9,200,136,73,-9,0
48,-78,-126,14,87,-102,9,185,126,73,-19,0
48,-82,-131,17,90,-107,4,170,112,53,-24,-9
39,-87,-126,24,82,-107,0,161,107,53,-29,-9
39,-92,-131,26,85,-112,0,161,102,48,-34,-19
48,-107,-156,29,102,-131,-9,151,87,43,-39,-19
48,-112,-161,31,104,-136,-9,146,82,39,-39,-19
43,-112,-156,34,100,-134,-9,141,78,34,-43,-19
43,-117,-161,36,102,-139,-14,136,73,29,-48,-29
29,-117,-146,43,87,-131,-4,131,73,9,-53,-29
29,-117,-146,43,87,-131,0,122,63,4,-58,-29
29,-117,-146,43,87,-131,0,122,63,0,-58,-29
24,-117,-141,46,82,-129,0,117,58,0,-58,-34
24,-122,-146,48,85,-134,4,107,58,4,-53,-34
19,-126,-146,53,82,-136,4,102,58,4,-53,-34
19,-126,-146,53,82,-136,4,102,58,4,-53,-34
19,-122,-141,51,80,-131,4,107,58,4,-48,-34
9,-122,-131,56,70,-126,0,107,58,9,-58,-34
9,-126,-136,58,73,-131,-4,107,58,9,-58,-34
9,-126,-136,58,73,-131,-9,102,58,9,-58,-34
9,-122,-131,56,70,-126,-19,102,53,9,-58,-34
14,-131,-146,58,80,-139,-14,97,43,4,-58,-34
14,-131,-146,58,80,-139,-9,97,39,4,-53,-29
14,-136,-151,61,82,-143,-4,92,39,4,-53,-29
14,-136,-151,61,82,-143,0,92,39,0,-53,-34
19,-126,-146,53,82,-136,9,92,34,-9,-63,-43
19,-122,-141,51,80,-131,9,92,34,-4,-63,-39
19,-122,-141,51,80,-131,9,87,34,-4,-63,-39
19,-117,-136,48,78,-126,9,87,34,-4,-63,-39
24,-117,-141,46,82,-129,0,82,34,-4,-58,-29
24,-112,-136,43,80,-124,0,82,34,-4,-53,-29
24,-112,-136,43,80,-124,0,82,34,-4,-48,-29
24,-112,-136,43,80,-124,0,87,39,0,-43,-29
14,-112,-126,48,70,-119,-4,87,39,9,-53,-29
14,-112,-126,48,70,-119,-4,87,43,9,-48,-29
14,-112,-126,48,70,-119,-4,87,43,14,-43,-24
14,-112,-126,48,70,-119,-9,92,43,14,-43,-24
4,-122,-126,58,65,-124,0,92,43,14,-43,-24
4,-122,-126,58,65,-124,0,92,53,24,-39,-24
19,-112,-131,46,75,-122,0,87,48,24,-39,-24
19,-102,-122,41,70,-112,0,97,48,34,-34,-24
19,-112,-131,46,75,-122,4,117,63,39,-39,-19
24,-131,-156,53,90,-143,9,156,87,48,-48,-29
29,-151,-180,61,104,-165,29,239,146,82,-48,-39
39,-151,-190,56,114,-170,29,317,224,175,-29,-29
48,-141,-190,46,119,-165,14,331,317,302,24,4
78,-151,-229,36,153,-190,4,356,419,478,97,53
122,-151,-273,14,197,-212,-4,429,536,673,175,102
156,-136,-292,-9,224,-214,-29,444,614,868,263,161
200,-131,-331,-34,265,-231,-78,444,673,1049,356,229
248,-122,-370,-63,309,-246,-112,497,766,1268,478,317
292,-112,-405,-90,348,-258,-122,605,868,1439,585,400
326,-126,-453,-100,390,-290,-122,688,878,1478,639,453
366,-131,-497,-117,431,-314,-122,771,834,1420,658,488
385,-136,-522,-124,453,-329,-117,834,712,1171,610,497
380,-161,-541,-109,461,-351,-82,849,512,736,473,444
351,-156,-507,-97,429,-331,-14,844,366,380,302,356
253,-141,-395,-56,324,-268,78,702,244,63,126,229
73,-151,-224,39,148,-187,180,356,-14,-405,-131,19
-73,-161,-87,117,7,-124,244,19,-278,-819,-370,-175
-151,-156,-4,153,-73,-80,273,-112,-370,-941,-453,-253
-200,-136,63,168,-131,-36,292,-165,-385,-922,-448,-263
-263,-107,156,185,-209,24,312,-278,-448,-941,-463,-307
-292,-117,175,204,-234,29,341,-356,-497,-951,-497,-346
-283,-126,156,204,-219,14,356,-341,-497,-917,-497,-361
-273,-102,170,187,-222,34,366,-253,-429,-834,-448,-331
-292,-68,224,180,-258,78,400,-117,-312,-697,-366,-283
-292,-48,244,170,-268,97,429,24,-229,-585,-302,-248
-273,-53,219,163,-246,82,439,112,-204,-551,-292,-244
-258,-63,195,161,-226,65,434,156,-185,-522,-283,-234
-263,-53,209,158,-236,78,439,229,-151,-478,-273,-234
-253,-63,190,158,-222,63,468,326,-112,-444,-268,-234
-258,-97,161,178,-209,31,507,414,-87,-419,-273,-244
-253,-107,146,180,-200,19,531,463,-78,-395,-258,-234
-234,-107,126,170,-180,9,551,497,-53,-351,-234,-219
-209,-107,102,158,-156,-2,585,517,-14,-322,-214,-195
-209,-112,97,161,-153,-7,610,512,-4,-297,-195,-185
-224,-107,117,165,-170,4,634,439,0,-278,-180,-180
-234,-87,146,161,-190,29,663,341,-9,-258,-175,-175
-234,-78,156,156,-195,39,668,263,-9,-253,-170,-170
-234,-87,146,161,-190,29,688,195,-29,-248,-161,-156
-234,-82,151,158,-192,34,707,102,-43,-234,-151,-151
-234,-82,151,158,-192,34,707,-9,-78,-239,-141,-141
-234,-82,151,158,-192,34,688,-107,-102,-229,-122,-112
-229,-78,151,153,-190,36,668,-180,-122,-214,-92,-102
-229,-78,151,153,-190,36,644,-209,-126,-204,-78,-82
-209,-58,151,134,-180,46,600,-239,-141,-190,-68,-78
-190,-53,136,122,-163,41,527,-292,-170,-190,-58,-78
-190,-53,136,122,-163,41,434,-336,-185,-185,-53,-73
-175,-39,136,107,-156,48,326,-351,-185,-175,-48,-63
-151,-19,131,85,-141,56,244,-351,-190,-165,-34,-43
-131,-9,122,70,-126,56,180,-351,-190,-141,-4,-19
-112,-14,97,63,-104,41,131,-351,-200,-131,9,-4
-112,-14,97,63,-104,41,92,-341,-185,-122,19,4
-107,-9,97,58,-102,43,63,-331,-175,-112,29,9
-92,-4,87,48,-90,41,29,-317,-165,-102,24,4
-78,0,78,39,-78,39,-4,-312,-136,-87,39,14
-63,14,78,24,-70,46,-43,-297,-126,-78,39,19
-48,34,82,7,-65,58,-82,-292,-126,-63,48,29
-43,34,78,4,-61,56,-92,-287,-136,-63,58,39
-34,34,68,0,-51,51,-97,-287,-141,-58,63,43
-29,34,63,-2,-46,48,-102,-292,-141,-58,63,43
-29,39,68,-4,-48,53,-112,-292,-136,-48,68,43
-39,29,68,4,-53,48,-102,-287,-131,-48,68,53
-34,29,63,2,-48,46,-107,-278,-131,-48,68,53
-34,34,68,0,-51,51,-107,-273,-131,-48,68,53
-34,34,68,0,-51,51,-112,-268,-131,-48,73,53
-34,43,78,-4,-56,61,-117,-278,-141,-48,73,48
-29,43,73,-7,-51,58,-117,-278,-146,-48,73,48
-29,43,73,-7,-51,58,-122,-278,-146,-48,73,48
-24,48,73,-12,-48,61,-126,-278,-146,-48,73,53
-24,39,63,-7,-43,51,-117,-268,-136,-39,73,53
-24,39,63,-7,-43,51,-122,-268,-136,-39,82,53
-24,39,63,-7,-43,51,-126,-273,-136,-39,82,58
-24,43,68,-9,-46,56,-126,-273,-136,-39,82,58
-34,53,87,-9,-61,70,-141,-273,-136,-39,82,58
-34,53,87,-9,-61,70,-141,-273,-136,-39,82,58
-34,48,82,-7,-58,65,-141,-278,-136,-39,82,58
-34,48,82,-7,-58,65,-141,-278,-136,-39,82,58
-34,39,73,-2,-53,56,-131,-287,-156,-39,97,58
-34,39,73,-2,-53,56,-131,-292,-156,-39,97,58
-34,39,73,-2,-53,56,-136,-292,-161,-43,97,63
-34,39,73,-2,-53,56,-141,-297,-161,-43,92,63
-24,39,63,-7,-43,51,-141,-302,-161,-53,92,53
-24,39,63,-7,-43,51,-151,-307,-165,-53,97,58
-24,43,68,-9,-46,56,-151,-307,-165,-53,97,58
-24,43,68,-9,-46,56,-151,-302,-165,-53,97,58
-24,43,68,-9,-46,56,-151,-302,-165,-53,97,68
-19,48,68,-14,-43,58,-151,-307,-170,-53,97,73
-14,48,63,-17,-39,56,-151,-307,-175,-53,97,73
-14,48,63,-17,-39,56,-156,-302,-175,-53,97,73
-14,53,68,-19,-41,61,-156,-312,-175,-53,87,63
-14,53,68,-19,-41,61,-161,-307,-175,-53,87,63
-9,53,63,-21,-36,58,-161,-307,-175,-48,87,63
-9,53,63,-21,-36,58,-161,-307,-175,-48,87,63
-9,48,58,-19,-34,53,-161,-297,-175,-39,87,68
-9,43,53,-17,-31,48,-161,-292,-175,-34,92,68
0,39,39,-19,-19,39,-161,-287,-175,-29,92,68
4,34,29,-19,-12,31,-170,-283,-175,-24,92,68
0,29,29,-14,-14,29,-165,-273,-165,-24,92,73
4,29,24,-17,-9,26,-170,-273,-165,-19,92,73
9,24,14,-17,-2,19,-175,-273,-165,-14,92,73
14,24,9,-19,2,17,-175,-268,-165,-9,87,73
24,24,0,-24,12,12,-195,-278,-175,-4,78,73
29,19,-9,-24,19,4,-204,-278,-175,-4,78,73
34,19,-14,-26,24,2,-204,-283,-175,0,78,73
39,19,-19,-29,29,0,-209,-283,-175,0,78,73
48,14,-34,-31,41,-9,-214,-283,-175,0,78,78
53,9,-43,-31,48,-17,-214,-283,-175,4,73,68
53,4,-48,-29,51,-21,-224,-283,-175,4,82,68
58,-4,-63,-26,61,-34,-229,-283,-175,19,82,73
58,0,-58,-29,58,-29,-234,-283,-175,19,68,68
58,-9,-68,-24,63,-39,-239,-283,-175,19,68,58
58,-9,-68,-24,63,-39,-244,-283,-175,19,68,58
58,-9,-68,-24,63,-39,-248,-283,-175,19,68,58
58,-9,-68,-24,63,-39,-253,-283,-175,19,68,58
68,-9,-78,-29,73,-43,-258,-273,-165,24,58,63
68,-14,-82,-26,75,-48,-258,-263,-156,24,53,63
68,-14,-82,-26,75,-48,-263,-258,-146,24,53,63
73,-14,-87,-29,80,-51,-263,-244,-131,34,53,58
73,-4,-78,-34,75,-41,-263,-229,-126,39,43,48
68,-4,-73,-31,70,-39,-263,-214,-112,43,43,43
68,-9,-78,-29,73,-43,-268,-200,-102,53,43,43
73,-14,-87,-29,80,-51,-268,-180,-92,58,43,43
73,-14,-87,-29,80,-51,-258,-165,-78,58,39,43
73,-14,-87,-29,80,-51,-253,-136,-58,63,39,43
73,-14,-87,-29,80,-51,-248,-107,-43,73,39,43
73,-19,-92,-26,82,-56,-244,-82,-29,78,39,43
87,-9,-97,-39,92,-53,-239,-68,-9,78,34,39
87,-9,-97,-39,92,-53,-229,-34,9,82,34,39
82,-9,-92,-36,87,-51,-209,-9,29,92,34,39
82,-9,-92,-36,87,-51,-190,14,48,97,29,39
73,-9,-82,-31,78,-46,-195,48,73,112,29,29
73,-4,-78,-34,75,-41,-180,63,92,112,34,29
73,9,-63,-41,68,-26,-161,87,112,122,34,34
73,14,-58,-43,65,-21,-141,112,131,131,39,34
73,24,-48,-48,61,-12,-112,126,161,146,39,34
68,24,-43,-46,56,-9,-92,146,180,151,39,34
68,24,-43,-46,56,-9,-73,165,190,151,39,29
68,24,-43,-46,56,-9,-48,180,200,151,39,29
68,19,-48,-43,58,-14,-39,209,200,165,48,34
63,19,-43,-41,53,-12,-29,224,214,165,48,34
58,9,-48,-34,53,-19,-24,234,219,161,48,34
58,4,-53,-31,56,-24,-19,239,229,161,43,34
58,14,-43,-36,51,-14,-24,263,239,156,39,39
53,4,-48,-29,51,-21,-19,263,239,156,39,29
53,4,-48,-29,51,-21,-9,263,234,146,29,29
48,-4,-53,-21,51,-29,-9,263,229,136,24,24
48,-19,-68,-14,58,-43,-9,258,224,136,24,19
48,-24,-73,-12,61,-48,-9,248,219,126,19,14
39,-34,-73,-2,56,-53,-9,248,214,122,14,14
39,-39,-78,0,58,-58,-9,248,204,122,14,14
39,-43,-82,2,61,-63,-9,248,209,126,14,14
43,-43,-87,0,65,-65,-9,248,209,122,14,14
43,-48,-92,2,68,-70,-14,239,200,117,4,9
43,-58,-102,7,73,-80,-9,224,185,107,4,9
48,-73,-122,12,85,-97,-34,214,170,82,0,9
48,-73,-122,12,85,-97,-39,200,156,78,-4,9
48,-82,-131,17,90,-107,-43,195,146,63,-9,4
48,-92,-141,21,95,-117,-43,185,131,53,-14,0
43,-92,-136,24,90,-114,-29,175,122,53,-14,-4
43,-92,-136,24,90,-114,-19,180,126,58,-14,-4
39,-92,-131,26,85,-112,-9,185,126,58,-14,0
39,-92,-131,26,85,-112,4,185,131,63,-14,0
39,-97,-136,29,87,-117,19,195,141,78,-14,0
39,-102,-141,31,90,-122,24,200,146,82,-9,4
39,-107,-146,34,92,-126,29,200,146,82,-9,9
39,-122,-161,41,100,-141,29,200,146,82,-9,9
29,-126,-156,48,92,-141,19,195,126,73,-9,9
29,-131,-161,51,95,-146,14,180,112,53,-14,0
19,-136,-156,58,87,-146,9,170,107,53,-19,0
19,-141,-161,61,90,-151,9,170,102,48,-24,-9
19,-146,-165,63,92,-156,19,161,107,43,-29,-9
19,-151,-170,65,95,-161,19,156,102,39,-29,-9
14,-151,-165,68,90,-158,19,151,97,34,-34,-9
14,-156,-170,70,92,-163,14,146,92,29,-39,-19
9,-146,-156,68,82,-151,4,131,73,19,-43,-19
9,-146,-156,68,82,-151,9,122,63,14,-48,-19
9,-146,-156,68,82,-151,9,122,63,9,-48,-19
4,-146,-151,70,78,-148,9,117,58,9,-48,-24
4,-151,-156,73,80,-153,14,126,68,14,-63,-24
0,-156,-156,78,78,-156,14,122,68,14,-63,-24
0,-156,-156,78,78,-156,14,122,68,14,-63,-24
0,-151,-151,75,75,-151,14,126,68,14,-58,-24
-9,-151,-141,80,65,-146,4,117,58,9,-58,-24
-9,-156,-146,82,68,-151,4,117,58,9,-58,-24
-9,-156,-146,82,68,-151,4,112,58,9,-58,-24
-9,-151,-141,80,65,-146,0,112,53,9,-58,-24
4,-151,-156,73,80,-153,0,107,53,4,-58,-24
4,-151,-156,73,80,-153,0,107,48,4,-53,-19
4,-156,-161,75,82,-158,0,102,48,4,-53,-19
4,-156,-161,75,82,-158,0,102,48,0,-53,-24
0,-151,-151,75,75,-151,4,92,43,0,-53,-34
0,-151,-151,75,75,-151,9,92,43,4,-53,-29
0,-156,-156,78,78,-156,14,87,43,4,-53,-29
0,-156,-156,78,78,-156,19,87,43,4,-53,-29
4,-156,-161,75,82,-158,14,92,34,4,-43,-29
4,-151,-156,73,80,-153,9,92,34,4,-43,-29
4,-151,-156,73,80,-153,4,92,34,4,-43,-29
4,-151,-156,73,80,-153,0,97,39,9,-43,-29
4,-151,-156,73,80,-153,4,97,48,9,-43,-19
4,-151,-156,73,80,-153,4,97,53,9,-39,-19
4,-151,-156,73,80,-153,4,97,53,14,-34,-14
4,-151,-156,73,80,-153,0,102,53,14,-34,-14
14,-141,-156,63,85,-148,19,92,53,24,-34,-14
14,-141,-156,63,85,-148,19,92,43,24,-39,-14
9,-141,-151,65,80,-146,19,107,48,24,-29,-14
9,-151,-161,70,85,-156,29,126,68,34,-24,-4
9,-151,-161,70,85,-156,24,156,82,48,-29,-19
14,-170,-185,78,100,-178,39,224,126,68,-48,-29
19,-180,-200,80,109,-190,39,307,204,141,-29,-29
29,-180,-209,75,119,-195,29,346,292,263,9,0
58,-170,-229,56,143,-200,14,351,375,419,73,43
87,-170,-258,41,173,-214,-4,395,488,605,146,82
122,-170,-292,24,207,-231,-24,448,595,800,224,131
165,-175,-341,4,253,-258,-48,453,663,976,322,200
209,-161,-370,-24,290,-265,-78,483,741,1185,434,287
258,-141,-400,-58,329,-270,-102,566,844,1385,546,366
302,-141,-444,-80,373,-292,-112,663,897,1498,624,439
336,-156,-492,-90,414,-324,-122,756,878,1498,658,492
366,-161,-527,-102,446,-344,-122,819,785,1332,649,517
375,-175,-551,-100,463,-363,-87,854,605,946,541,488
351,-180,-531,-85,441,-356,-24,878,434,531,385,414
283,-185,-468,-48,375,-326,63,814,317,224,224,307
136,-180,-317,21,226,-248,165,527,107,-200,0,122
-34,-180,-146,107,56,-163,239,122,-200,-697,-278,-97
-131,-180,-48,156,-41,-114,292,-87,-356,-927,-419,-224
-190,-165,24,178,-107,-70,312,-141,-390,-922,-444,-253
-239,-136,102,187,-170,-17,322,-234,-424,-922,-448,-273
-302,-136,165,219,-234,14,351,-326,-478,-941,-473,-317
-312,-146,165,229,-239,9,351,-346,-507,-932,-497,-346
-292,-136,156,214,-224,9,356,-292,-468,-878,-468,-341
-292,-112,180,202,-236,34,395,-165,-361,-756,-390,-292
-302,-68,234,185,-268,82,429,-29,-263,-629,-307,-253
-292,-68,224,180,-258,78,419,63,-219,-575,-292,-239
-273,-82,190,178,-231,53,409,122,-204,-541,-283,-234
-268,-82,185,175,-226,51,424,195,-165,-483,-263,-214
-273,-92,180,183,-226,43,458,297,-122,-439,-263,-214
-263,-112,151,187,-207,19,497,405,-92,-414,-268,-224
-248,-117,131,183,-190,7,527,463,-78,-390,-263,-224
-234,-126,107,180,-170,-9,561,502,-48,-346,-229,-214
-234,-126,107,180,-170,-9,600,527,-14,-312,-195,-200
-229,-117,112,173,-170,-2,634,527,4,-292,-185,-185
-219,-112,107,165,-163,-2,658,473,4,-268,-175,-165
-234,-107,126,170,-180,9,683,390,9,-258,-170,-151
-244,-107,136,175,-190,14,702,302,0,-239,-156,-146
-244,-107,136,175,-190,14,707,234,-9,-234,-151,-141
-244,-97,146,170,-195,24,727,156,-29,-229,-151,-146
-253,-102,151,178,-202,24,736,43,-53,-224,-131,-131
-253,-112,141,183,-197,14,707,-68,-78,-209,-102,-122
-244,-92,151,168,-197,29,688,-156,-102,-209,-92,-112
-229,-87,141,158,-185,26,678,-200,-102,-185,-73,-92
-229,-78,151,153,-190,36,634,-219,-97,-165,-48,-73
-219,-78,141,148,-180,31,570,-248,-112,-161,-48,-58
-200,-73,126,136,-163,26,497,-283,-122,-151,-39,-48
-180,-53,126,117,-153,36,405,-287,-126,-136,-24,-34
-165,-39,126,102,-146,43,317,-292,-136,-126,-9,-24
-141,-39,102,90,-122,31,253,-302,-141,-117,4,-4
-122,-29,92,75,-107,31,200,-312,-161,-112,14,0
-112,-24,87,68,-100,31,141,-312,-170,-102,29,4
-102,-24,78,63,-90,26,102,-302,-165,-92,29,14
-87,-19,68,53,-78,24,63,-302,-156,-82,39,19
-92,-14,78,53,-85,31,19,-287,-136,-73,43,24
-78,-9,68,43,-73,29,-14,-283,-126,-58,48,34
-73,4,78,34,-75,41,-43,-268,-117,-48,58,48
-58,4,63,26,-61,34,-63,-263,-117,-43,68,58
-63,4,68,29,-65,36,-82,-258,-126,-53,68,48
-53,4,58,24,-56,31,-87,-258,-131,-48,73,53
-48,4,53,21,-51,29,-92,-263,-131,-48,73,53
-48,9,58,19,-53,34,-102,-263,-126,-39,78,53
-48,9,58,19,-53,34,-102,-273,-122,-39,68,53
-43,9,53,17,-48,31,-107,-268,-122,-39,68,53
-43,14,58,14,-51,36,-107,-268,-122,-39,68,53
-43,14,58,14,-51,36,-112,-268,-122,-39,73,53
-43,14,58,14,-51,36,-102,-258,-122,-39,82,58
-39,14,53,12,-46,34,-97,-258,-126,-39,82,58
-39,14,53,12,-46,34,-97,-258,-126,-39,82,58
-34,19,53,7,-43,36,-97,-258,-126,-39,82,63
-34,9,43,12,-39,26,-97,-258,-126,-29,82,63
-34,9,43,12,-39,26,-102,-258,-126,-29,92,63
-34,9,43,12,-39,26,-107,-263,-126,-29,92,68
-34,14,48,9,-41,31,-107,-263,-126,-29,92,68
-43,14,58,14,-51,36,-112,-263,-136,-29,92,68
-43,14,58,14,-51,36,-112,-263,-136,-29,92,68
-43,9,53,17,-48,31,-112,-268,-136,-29,92,68
-43,9,53,17,-48,31,-112,-268,-136,-29,92,68
-34,19,53,7,-43,36,-122,-278,-136,-29,97,68
-34,19,53,7,-43,36,-122,-283,-136,-29,97,68
-34,19,53,7,-43,36,-126,-283,-141,-34,97,73
-34,19,53,7,-43,36,-131,-287,-141,-34,92,73
-34,19,53,7,-43,36,-131,-292,-151,-43,92,63
-34,19,53,7,-43,36,-141,-297,-156,-43,97,68
-34,24,58,4,-46,41,-141,-297,-156,-43,97,68
-34,24,58,4,-46,41,-141,-292,-156,-43,97,68
-43,19,63,12,-53,41,-141,-283,-156,-43,87,68
-39,19,58,9,-48,39,-141,-287,-161,-43,87,73
-34,14,48,9,-41,31,-141,-287,-165,-43,87,73
-34,9,43,12,-39,26,-146,-283,-165,-43,87,73
-24,14,39,4,-31,26,-146,-283,-165,-43,87,73
-24,14,39,4,-31,26,-151,-278,-165,-43,87,73
-19,14,34,2,-26,24,-151,-278,-165,-39,87,73
-19,14,34,2,-26,24,-151,-278,-165,-39,87,73
-9,14,24,-2,-17,19,-161,-278,-156,-29,87,78
-9,14,24,-2,-17,19,-161,-273,-156,-24,92,78
0,14,14,-7,-7,14,-161,-268,-156,-19,92,78
4,14,9,-9,-2,12,-170,-263,-156,-14,92,78
0,9,9,-4,-4,9,-175,-263,-156,-14,82,82
4,9,4,-7,0,7,-180,-263,-156,-9,82,82
9,4,-4,-7,7,0,-185,-263,-156,-4,82,82
14,4,-9,-9,12,-2,-185,-258,-156,0,78,82
4,-4,-9,0,7,-7,-200,-268,-165,4,78,73
9,-9,-19,0,14,-14,-214,-268,-165,4,78,73
14,-9,-24,-2,19,-17,-219,-273,-165,9,78,73
19,-9,-29,-4,24,-19,-229,-273,-165,9,78,73
39,-4,-43,-17,41,-24,-224,-263,-175,9,78,68
43,-9,-53,-17,48,-31,-224,-273,-175,14,73,68
53,-14,-68,-19,61,-41,-224,-283,-175,4,63,68
48,-9,-58,-19,53,-34,-234,-283,-185,9,58,68
39,-14,-53,-12,46,-34,-244,-273,-180,19,68,68
39,-19,-58,-9,48,-39,-244,-273,-175,19,68,68
39,-24,-63,-7,51,-43,-244,-273,-170,19,68,68
39,-29,-68,-4,53,-48,-244,-273,-165,19,68,68
48,-29,-78,-9,63,-53,-253,-263,-156,14,58,63
48,-34,-82,-7,65,-58,-258,-253,-146,14,53,63
48,-34,-82,-7,65,-58,-268,-248,-136,14,53,63
53,-34,-87,-9,70,-61,-273,-234,-122,24,53,58
58,-34,-92,-12,75,-63,-268,-219,-117,39,34,68
58,-34,-92,-12,75,-63,-263,-204,-102,43,34,63
63,-39,-102,-12,82,-70,-263,-190,-92,53,34,63
73,-43,-117,-14,95,-80,-258,-170,-82,58,34,63
63,-43,-107,-9,85,-75,-258,-165,-58,58,39,63
63,-43,-107,-9,85,-75,-253,-136,-39,63,39,63
63,-43,-107,-9,85,-75,-248,-107,-24,73,39,63
63,-48,-112,-7,87,-80,-244,-82,-9,78,39,63
68,-39,-107,-14,87,-73,-248,-58,0,78,34,48
68,-39,-107,-14,87,-73,-239,-24,19,82,34,48
63,-39,-102,-12,82,-70,-219,0,39,92,34,48
63,-39,-102,-12,82,-70,-200,24,58,97,29,48
73,-39,-112,-17,92,-75,-185,39,73,102,19,48
73,-34,-107,-19,90,-70,-170,53,92,102,24,48
73,-19,-92,-26,82,-56,-151,78,112,112,24,53
73,-14,-87,-29,80,-51,-131,102,131,122,29,53
73,4,-68,-39,70,-31,-107,131,161,136,34,53
68,4,-63,-36,65,-29,-92,156,180,141,39,53
68,4,-63,-36,65,-29,-78,180,190,141,43,48
68,4,-63,-36,65,-29,-58,200,200,141,48,48
58,4,-53,-31,56,-24,-48,209,209,156,48,53
53,0,-53,-26,53,-26,-39,224,224,156,48,53
48,-14,-63,-17,56,-39,-34,234,229,151,48,53
48,-24,-73,-12,61,-48,-29,239,239,151,43,53
58,-14,-73,-21,65,-43,-24,263,248,151,39,39
53,-24,-78,-14,65,-51,-19,263,248,156,39,29
53,-24,-78,-14,65,-51,-9,263,244,151,29,29
48,-34,-82,-7,65,-58,-9,263,239,146,24,24
48,-48,-97,0,73,-73,-9,268,244,136,14,19
48,-53,-102,2,75,-78,-9,258,239,126,9,14
39,-63,-102,12,70,-82,-9,258,234,122,4,14
39,-68,-107,14,73,-87,-9,258,224,122,4,14
48,-73,-122,12,85,-97,-14,248,219,117,14,14
53,-73,-126,9,90,-100,-19,248,219,112,14,14
53,-78,-131,12,92,-104,-29,239,209,107,4,9
53,-87,-141,17,97,-114,-29,224,195,97,4,9
48,-102,-151,26,100,-126,-39,224,180,82,0,19
48,-102,-151,26,100,-126,-39,209,165,78,-4,19
48,-112,-161,31,104,-136,-39,204,156,63,-9,14
48,-122,-170,36,109,-146,-34,195,141,53,-14,9
43,-141,-185,48,114,-163,-19,195,151,63,-14,4
43,-141,-185,48,114,-163,-9,200,156,68,-14,4
39,-141,-180,51,109,-161,0,204,156,68,-14,9
39,-141,-180,51,109,-161,14,204,161,73,-14,9
48,-136,-185,43,117,-161,9,204,151,68,-14,0
48,-131,-180,41,114,-156,14,209,156,73,-9,4
48,-126,-175,39,112,-151,19,209,156,73,-9,9
48,-131,-180,41,114,-156,19,209,156,73,-9,9
48,-141,-190,46,119,-165,19,204,156,73,-9,9
48,-151,-200,51,124,-175,14,190,141,53,-14,0
39,-161,-200,61,119,-180,9,180,136,53,-19,0
39,-170,-209,65,124,-190,9,180,131,48,-24,-9
29,-175,-204,73,117,-190,0,180,117,43,-29,-9
29,-180,-209,75,119,-195,0,175,112,39,-29,-9
24,-180,-204,78,114,-192,0,170,107,34,-34,-9
24,-185,-209,80,117,-197,-4,165,102,29,-39,-19
19,-195,-214,87,117,-204,4,151,102,29,-43,-19
19,-195,-214,87,117,-204,9,141,92,24,-48,-19
19,-195,-214,87,117,-204,9,141,92,19,-48,-19
14,-195,-209,90,112,-202,9,136,87,19,-48,-24
14,-185,-200,85,107,-192,14,136,87,14,-53,-24
9,-185,-195,87,102,-190,14,131,87,14,-53,-24
9,-180,-190,85,100,-185,14,131,87,14,-53,-24
9,-170,-180,80,95,-175,14,136,87,14,-48,-24
19,-175,-195,78,107,-185,19,136,87,19,-48,-24
19,-185,-204,82,112,-195,24,136,87,19,-48,-24
19,-190,-209,85,114,-200,29,131,87,19,-48,-24
19,-190,-209,85,114,-200,29,131,82,19,-48,-24
14,-190,-204,87,109,-197,29,126,82,14,-48,-14
14,-190,-204,87,109,-197,29,126,78,14,-43,-9
14,-195,-209,90,112,-202,29,122,78,14,-43,-9
14,-195,-209,90,112,-202,29,122,78,9,-43,-14
9,-190,-200,90,104,-195,19,131,73,9,-43,-14
9,-190,-200,90,104,-195,19,131,73,14,-43,-9
9,-195,-204,92,107,-200,19,126,73,14,-43,-9
9,-195,-204,92,107,-200,19,126,73,14,-43,-9
4,-195,-200,95,102,-197,29,122,82,14,-43,-19
4,-190,-195,92,100,-192,29,122,82,14,-43,-19
4,-190,-195,92,100,-192,29,122,82,14,-43,-19
4,-190,-195,92,100,-192,29,126,87,19,-43,-19
4,-180,-185,87,95,-183,29,117,78,19,-43,-19
4,-180,-185,87,95,-183,24,117,82,19,-39,-19
4,-180,-185,87,95,-183,19,117,82,24,-34,-14
4,-180,-185,87,95,-183,9,122,82,24,-34,-14
14,-180,-195,82,104,-187,9,122,82,34,-34,-4
14,-180,-195,82,104,-187,0,122,82,43,-19,-4
9,-180,-190,85,100,-185,0,126,87,43,-19,-4
9,-180,-190,85,100,-185,9,136,97,43,-24,-4
9,-180,-190,85,100,-185,24,156,102,48,-29,-9
14,-200,-214,92,114,-207,29,195,126,58,-39,-9
29,-219,-248,95,139,-234,48,297,195,112,-48,-19
39,-209,-248,85,143,-229,58,366,283,214,-19,-9
58,-209,-268,75,163,-239,34,380,375,361,43,34
78,-209,-287,65,183,-248,24,405,488,546,117,73
112,-209,-322,48,217,-265,14,458,614,751,195,112
146,-214,-361,34,253,-287,-9,463,702,946,283,170
190,-209,-400,9,295,-305,-58,463,771,1166,385,239
248,-190,-439,-29,344,-314,-82,536,883,1405,517,336
292,-190,-483,-51,387,-336,-92,653,976,1586,614,429
336,-204,-541,-65,439,-373,-102,756,985,1625,658,473
395,-209,-605,-92,500,-407,-102,839,941,1576,688,517
424,-234,-658,-95,541,-446,-78,912,800,1298,649,536
409,-268,-678,-70,544,-473,-34,946,590,824,492,473
370,-292,-663,-39,517,-478,24,941,434,429,322,366
253,-297,-551,21,402,-424,117,761,253,34,97,200
63,-317,-380,126,222,-348,209,356,-82,-541,-219,-48
-92,-356,-263,224,85,-309,283,39,-366,-985,-478,-273
-170,-351,-180,261,4,-265,351,-43,-429,-1068,-570,-370
-248,-322,-73,285,-87,-197,400,-78,-434,-1039,-585,-400
-322,-312,9,317,-165,-151,439,-151,-468,-1039,-600,-444
-361,-302,58,331,-209,-122,468,-190,-468,-1000,-595,-473
-351,-283,68,317,-209,-107,463,-136,-419,-917,-575,-468
-341,-258,82,300,-212,-87,473,-39,-341,-814,-527,-439
-331,-224,107,278,-219,-58,488,78,-273,-717,-453,-400
-312,-214,97,263,-204,-58,478,170,-229,-644,-409,-356
-283,-209,73,246,-178,-68,478,239,-214,-619,-390,-322
-268,-190,78,229,-173,-56,483,292,-185,-580,-370,-312
-263,-200,63,231,-163,-68,517,385,-151,-527,-351,-302
-253,-229,24,241,-139,-102,566,473,-112,-492,-346,-292
-239,-224,14,231,-126,-104,585,522,-78,-448,-331,-273
-224,-224,0,224,-112,-112,600,541,-48,-405,-297,-253
-214,-214,0,214,-107,-107,610,556,-34,-370,-273,-239
-209,-204,4,207,-107,-100,624,546,-24,-351,-244,-224
-209,-200,9,204,-109,-95,639,483,-34,-326,-214,-195
-224,-175,48,200,-136,-63,644,380,-39,-307,-209,-180
-224,-146,78,185,-151,-34,653,273,-39,-287,-195,-175
-224,-146,78,185,-151,-34,668,204,-48,-263,-180,-170
-224,-156,68,190,-146,-43,697,136,-39,-248,-170,-156
-234,-161,73,197,-153,-43,697,34,-53,-234,-141,-141
-234,-151,82,192,-158,-34,678,-78,-78,-219,-122,-122
-234,-131,102,183,-168,-14,658,-146,-92,-209,-102,-102
-219,-126,92,173,-156,-17,639,-170,-102,-204,-82,-82
-209,-117,92,163,-151,-12,585,-200,-107,-195,-68,-73
-209,-107,102,158,-156,-2,522,-248,-131,-190,-68,-68
-200,-102,97,151,-148,-2,458,-292,-141,-190,-68,-58
-180,-92,87,136,-134,-2,385,-317,-156,-175,-63,-53
-156,-87,68,122,-112,-9,297,-322,-156,-156,-39,-34
-131,-78,53,104,-92,-12,244,-322,-161,-136,-14,-24
-112,-68,43,90,-78,-12,190,-331,-170,-122,4,-9
-102,-73,29,87,-65,-21,141,-322,-170,-112,19,4
-92,-73,19,82,-56,-26,112,-302,-156,-102,29,24
-87,-58,29,73,-58,-14,73,-292,-146,-102,29,19
-73,-34,39,53,-56,2,29,-278,-126,-82,24,24
-58,-29,29,43,-43,0,-14,-253,-107,-58,39,34
-43,-24,19,34,-31,-2,-63,-239,-87,-29,58,48
-48,-24,24,36,-36,0,-92,-244,-87,-24,68,58
-53,-34,19,43,-36,-7,-97,-239,-97,-34,78,58
-43,-34,9,39,-26,-12,-97,-239,-102,-29,82,63
-39,-34,4,36,-21,-14,-97,-244,-102,-29,82,63
-39,-29,9,34,-24,-9,-102,-244,-97,-19,87,63
-29,-24,4,26,-17,-9,-92,-244,-102,-19,87,63
-24,-19,4,21,-14,-7,-97,-239,-102,-19,87,63
-24,-9,14,17,-19,2,-97,-239,-102,-19,87,63
-24,-4,19,14,-21,7,-102,-239,-102,-19,92,63
-24,-14,9,19,-17,-2,-112,-239,-92,-19,102,68
-19,-14,4,17,-12,-4,-107,-239,-97,-19,102,68
-19,-14,4,17,-12,-4,-107,-239,-97,-19,102,68
-14,-9,4,12,-9,-2,-107,-239,-97,-19,102,73
-24,-9,14,17,-19,2,-107,-248,-107,-29,92,73
-24,-9,14,17,-19,2,-112,-248,-107,-29,102,73
-24,-9,14,17,-19,2,-117,-253,-107,-29,102,78
-24,-4,19,14,-21,7,-117,-253,-107,-29,102,78
-14,-4,9,9,-12,2,-112,-244,-107,-19,102,78
-14,-4,9,9,-12,2,-112,-244,-107,-19,102,78
-14,-9,4,12,-9,-2,-112,-248,-107,-19,102,78
-14,-9,4,12,-9,-2,-112,-248,-107,-19,102,78
-24,-9,14,17,-19,2,-122,-258,-117,-19,117,78
-24,-9,14,17,-19,2,-122,-263,-117,-19,117,78
-24,-9,14,17,-19,2,-126,-263,-122,-24,117,82
-24,-9,14,17,-19,2,-131,-268,-122,-24,112,82
-14,-9,4,12,-9,-2,-136,-263,-122,-14,122,82
-14,-9,4,12,-9,-2,-151,-268,-126,-14,126,87
-14,-4,9,9,-12,2,-156,-268,-126,-14,126,87
-14,-4,9,9,-12,2,-161,-263,-126,-14,126,87
-14,-4,9,9,-12,2,-170,-263,-126,-14,126,97
-9,0,9,4,-9,4,-170,-268,-131,-14,126,102
-4,0,4,2,-4,2,-170,-268,-136,-14,126,102
-4,0,4,2,-4,2,-175,-263,-136,-14,126,102
-4,4,9,0,-7,7,-170,-263,-126,-4,126,102
-4,4,9,0,-7,7,-170,-258,-126,-4,126,102
0,4,4,-2,-2,4,-165,-258,-126,0,126,102
0,4,4,-2,-2,4,-161,-258,-126,0,126,102
9,4,-4,-7,7,0,-170,-258,-126,9,126,117
9,4,-4,-7,7,0,-170,-253,-126,14,131,117
19,4,-14,-12,17,-4,-170,-248,-126,19,131,117
24,4,-19,-14,21,-7,-180,-244,-126,24,131,117
19,0,-19,-9,19,-9,-175,-234,-122,29,136,122
24,0,-24,-12,24,-12,-180,-234,-117,39,141,122
29,-4,-34,-12,31,-19,-185,-234,-112,48,146,122
34,-4,-39,-14,36,-21,-185,-229,-107,58,146,122
34,-14,-48,-9,41,-31,-200,-229,-107,73,146,122
39,-19,-58,-9,48,-39,-214,-229,-107,73,146,122
43,-19,-63,-12,53,-41,-219,-234,-107,78,146,122
48,-19,-68,-14,58,-43,-229,-234,-107,78,146,122
58,-24,-82,-17,70,-53,-224,-234,-107,87,136,126
63,-29,-92,-17,78,-61,-244,-224,-117,82,131,126
73,-24,-97,-24,85,-61,-253,-234,-117,82,131,117
68,-24,-92,-21,80,-58,-258,-234,-107,87,122,112
68,-39,-107,-14,87,-73,-253,-224,-107,87,126,117
78,-48,-126,-14,102,-87,-263,-224,-97,87,122,107
78,-48,-126,-14,102,-87,-263,-224,-97,87,117,107
78,-48,-126,-14,102,-87,-263,-224,-97,87,112,107
78,-48,-126,-14,102,-87,-263,-224,-97,87,107,107
87,-48,-136,-19,112,-92,-258,-200,-82,102,107,102
87,-53,-141,-17,114,-97,-258,-185,-68,102,102,102
87,-53,-141,-17,114,-97,-263,-175,-53,102,102,102
92,-53,-146,-19,119,-100,-263,-156,-34,112,102,97
82,-63,-146,-9,114,-104,-268,-136,-29,126,92,97
78,-63,-141,-7,109,-102,-263,-117,-14,131,92,92
78,-68,-146,-4,112,-107,-263,-97,-4,141,92,92
82,-73,-156,-4,119,-114,-258,-73,4,146,92,92
73,-63,-136,-4,104,-100,-248,-48,29,146,87,92
73,-63,-136,-4,104,-100,-244,-19,48,151,87,92
73,-63,-136,-4,104,-100,-239,9,63,161,87,92
73,-68,-141,-2,107,-104,-234,34,78,165,87,92
78,-68,-146,-4,112,-107,-219,53,87,165,82,87
78,-68,-146,-4,112,-107,-209,82,107,170,82,87
73,-68,-141,-2,107,-104,-190,102,126,180,82,87
73,-68,-141,-2,107,-104,-170,122,146,185,78,87
82,-68,-151,-7,117,-109,-161,136,161,180,78,78
82,-63,-146,-9,114,-104,-141,151,180,180,82,78
82,-48,-131,-17,107,-90,-117,175,200,190,82,82
82,-43,-126,-19,104,-85,-92,200,219,200,87,82
73,-34,-107,-19,90,-70,-68,219,239,204,87,82
68,-34,-102,-17,85,-68,-53,234,258,209,87,82
68,-34,-102,-17,85,-68,-39,248,268,209,87,78
68,-34,-102,-17,85,-68,-19,258,278,209,87,78
68,-39,-107,-14,87,-73,-9,283,287,224,87,73
63,-39,-102,-12,82,-70,0,302,302,224,87,73
58,-48,-107,-4,82,-78,4,317,307,219,87,73
58,-53,-112,-2,85,-82,9,326,317,219,82,73
68,-53,-122,-7,95,-87,4,336,312,204,68,68
63,-63,-126,0,95,-95,9,331,307,204,68,58
63,-63,-126,0,95,-95,19,326,297,195,58,58
58,-73,-131,7,95,-102,19,322,287,185,53,53
48,-78,-126,14,87,-102,19,307,283,175,43,39
48,-82,-131,17,90,-107,19,297,278,165,39,34
39,-92,-131,26,85,-112,19,297,273,161,34,34
39,-97,-136,29,87,-117,19,297,263,161,34,34
39,-112,-151,36,95,-131,14,297,248,165,34,34
43,-112,-156,34,100,-134,9,297,248,161,34,34
43,-117,-161,36,102,-139,0,287,239,156,24,29
43,-126,-170,41,107,-148,0,273,224,146,24,29
48,-141,-190,46,119,-165,-19,263,219,122,19,19
48,-141,-190,46,119,-165,-19,248,204,117,14,19
48,-151,-200,51,124,-175,-19,244,195,102,9,14
48,-161,-209,56,129,-185,-14,234,180,92,4,9
43,-161,-204,58,124,-183,-4,244,190,97,14,14
43,-161,-204,58,124,-183,9,248,195,107,14,14
39,-161,-200,61,119,-180,24,253,195,112,14,19
39,-161,-200,61,119,-180,43,253,200,122,14,19
39,-161,-200,61,119,-180,58,253,200,126,24,29
39,-161,-200,61,119,-180,63,258,204,131,29,34
39,-161,-200,61,119,-180,68,258,204,131,29,39
39,-170,-209,65,124,-190,68,258,204,131,29,39
48,-180,-229,65,139,-204,63,253,185,122,24,29
48,-190,-239,70,143,-214,53,239,170,102,14,19
39,-200,-239,80,139,-219,43,229,165,102,4,19
39,-209,-248,85,143,-229,39,229,161,97,-4,9
39,-204,-244,82,141,-224,39,219,156,102,0,9
39,-209,-248,85,143,-229,39,214,151,97,0,9
34,-209,-244,87,139,-226,39,209,146,92,-4,9
34,-214,-248,90,141,-231,34,204,141,87,-9,0
29,-214,-244,92,136,-229,34,200,141,78,-14,9
29,-214,-244,92,136,-229,39,190,131,73,-19,9
29,-214,-244,92,136,-229,39,190,131,68,-19,9
24,-214,-239,95,131,-226,39,185,126,68,-19,4
14,-229,-244,107,129,-236,53,185,126,63,-24,-4
9,-234,-244,112,126,-239,53,180,126,63,-24,-4
9,-234,-244,112,126,-239,53,180,126,63,-24,-4
9,-229,-239,109,124,-234,53,185,126,63,-19,-4
19,-219,-239,100,129,-229,63,185,126,68,-9,4
19,-224,-244,102,131,-234,63,185,126,68,-9,4
19,-224,-244,102,131,-234,63,180,126,68,-9,4
19,-219,-239,100,129,-229,58,180,122,68,-9,4
24,-219,-244,97,134,-231,48,175,131,63,-19,4
24,-219,-244,97,134,-231,48,175,126,63,-14,9
24,-224,-248,100,136,-236,48,170,126,63,-14,9
24,-224,-248,100,136,-236,48,170,126,58,-14,4
19,-229,-248,104,134,-239,39,170,112,58,-14,4
19,-229,-248,104,134,-239,39,170,112,63,-14,9
19,-234,-253,107,136,-244,39,165,112,63,-14,9
19,-234,-253,107,136,-244,39,165,112,63,-14,9
24,-224,-248,100,136,-236,39,151,112,63,-14,9
24,-219,-244,97,134,-231,39,151,112,63,-14,9
24,-219,-244,97,134,-231,39,151,112,63,-14,9
24,-219,-244,97,134,-231,39,156,117,68,-14,9
24,-219,-244,97,134,-231,53,165,126,78,-4,19
24,-219,-244,97,134,-231,53,165,131,78,0,19
24,-219,-244,97,134,-231,53,165,131,82,4,24
24,-219,-244,97,134,-231,48,170,131,82,4,24
24,-209,-234,92,129,-222,48,170,131,92,4,24
24,-219,-244,97,134,-231,48,170,131,92,9,24
29,-219,-248,95,139,-234,48,185,136,92,9,24
29,-229,-258,100,143,-244,48,204,146,102,4,24
29,-248,-278,109,153,-263,53,253,180,117,0,19
34,-268,-302,117,168,-285,78,341,244,165,-9,9
39,-268,-307,114,173,-287,78,395,331,258,9,19
58,-258,-317,100,187,-287,58,405,429,409,78,58
87,-248,-336,80,212,-292,43,448,551,595,141,102
126,-248,-375,61,251,-312,34,522,692,800,214,141
170,-248,-419,39,295,-334,4,556,790,1015,302,200
204,-253,-458,24,331,-356,-29,570,878,1229,409,268
239,-239,-478,0,358,-358,-48,649,1005,1498,541,375
287,-229,-517,-29,402,-373,-63,751,1117,1708,644,453
331,-229,-561,-51,446,-395,-73,839,1122,1761,702,497
375,-244,-619,-65,497,-431,-82,922,1073,1712,736,551
405,-248,-653,-78,529,-451,-63,976,932,1439,717,575
385,-244,-629,-70,507,-436,-9,990,712,956,590,527
331,-248,-580,-41,456,-414,53,976,541,561,444,444
214,-253,-468,19,341,-361,141,785,346,165,244,307
39,-258,-297,109,168,-278,214,351,-29,-424,-58,82
-92,-258,-165,175,36,-212,278,-14,-336,-883,-307,-117
-151,-239,-87,195,-31,-163,322,-136,-434,-995,-390,-195
-190,-224,-34,207,-78,-129,341,-209,-488,-1000,-424,-224
-248,-224,24,236,-136,-100,361,-302,-561,-1039,-468,-283
-273,-234,39,253,-156,-97,370,-356,-605,-1058,-502,-336
-253,-234,19,244,-136,-107,370,-317,-585,-1010,-497,-336
-253,-214,39,234,-146,-87,405,-195,-497,-907,-439,-302
-263,-190,73,226,-168,-58,453,-19,-370,-756,-370,-263
-273,-175,97,224,-185,-39,488,136,-283,-658,-326,-244
-263,-195,68,229,-165,-63,497,209,-268,-624,-331,-248
-253,-200,53,226,-153,-73,507,278,-253,-600,-322,-244
-248,-200,48,224,-148,-75,541,351,-195,-541,-312,-244
-234,-219,14,226,-124,-102,575,424,-151,-497,-312,-253
-224,-229,-4,226,-109,-117,595,483,-112,-453,-297,-244
-219,-244,-24,231,-97,-134,614,522,-68,-400,-263,-214
-204,-253,-48,229,-78,-151,629,551,-48,-356,-229,-195
-195,-253,-58,224,-68,-156,629,546,-43,-322,-204,-180
-190,-234,-43,212,-73,-139,624,468,-34,-292,-175,-156
-200,-209,-9,204,-95,-109,639,346,-34,-268,-156,-146
-214,-195,19,204,-117,-87,663,253,-29,-239,-151,-131
-224,-204,19,214,-122,-92,692,195,-19,-219,-146,-126
-224,-195,29,209,-126,-82,697,126,-9,-204,-131,-122
-224,-185,39,204,-131,-73,697,48,-19,-180,-112,-117
-224,-180,43,202,-134,-68,688,-34,-24,-165,-92,-102
-224,-170,53,197,-139,-58,688,-87,-29,-151,-63,-82
-214,-170,43,192,-129,-63,658,-126,-43,-131,-43,-63
-190,-156,34,173,-112,-61,590,-180,-63,-126,-34,-53
-170,-146,24,158,-97,-61,517,-239,-87,-136,-39,-53
-151,-146,4,148,-78,-70,444,-268,-112,-131,-39,-48
-141,-131,9,136,-75,-61,361,-283,-122,-131,-29,-39
-131,-122,9,126,-70,-56,287,-268,-117,-107,-14,-14
-126,-117,9,122,-68,-53,229,-253,-117,-87,9,4
-112,-117,-4,114,-53,-61,175,-244,-112,-68,34,14
-102,-117,-14,109,-43,-65,131,-253,-112,-53,43,29
-82,-112,-29,97,-26,-70,92,-253,-112,-53,48,43
-63,-112,-48,87,-7,-80,43,-253,-97,-43,58,43
-39,-107,-68,73,14,-87,4,-234,-87,-24,68,48
-34,-92,-58,63,12,-75,-29,-219,-68,-14,73,53
-29,-78,-48,53,9,-63,-53,-204,-68,-9,68,53
-34,-63,-29,48,-2,-46,-63,-190,-68,0,78,58
-39,-63,-24,51,-7,-43,-63,-185,-68,4,87,68
-34,-73,-39,53,2,-56,-68,-190,-68,4,87,68
-24,-73,-48,48,12,-61,-68,-190,-73,9,92,73
-19,-73,-53,46,17,-63,-68,-195,-73,9,92,73
-19,-68,-48,43,14,-58,-73,-195,-68,19,97,73
-9,-68,-58,39,24,-63,-73,-204,-73,19,97,73
-4,-68,-63,36,29,-65,-78,-200,-73,19,97,73
-4,-63,-58,34,26,-61,-78,-200,-73,19,97,73
-4,-63,-58,34,26,-61,-82,-200,-73,19,102,73
-14,-63,-48,39,17,-56,-82,-190,-63,19,102,78
-9,-63,-53,36,21,-58,-78,-190,-68,19,102,78
-9,-63,-53,36,21,-58,-78,-190,-68,19,102,78
-4,-58,-53,31,24,-56,-78,-190,-68,19,102,82
-14,-68,-53,41,19,-61,-78,-190,-68,19,102,82
-14,-68,-53,41,19,-61,-82,-190,-68,19,112,82
-14,-68,-53,41,19,-61,-87,-195,-68,19,112,87
-14,-63,-48,39,17,-56,-87,-195,-68,19,112,87
-14,-63,-48,39,17,-56,-92,-195,-78,19,112,87
-14,-63,-48,39,17,-56,-92,-195,-78,19,112,87
-14,-68,-53,41,19,-61,-92,-200,-78,19,112,87
-14,-68,-53,41,19,-61,-92,-200,-78,19,112,87
-14,-68,-53,41,19,-61,-82,-200,-78,29,117,87
-14,-68,-53,41,19,-61,-82,-204,-78,29,117,87
-14,-68,-53,41,19,-61,-87,-204,-82,24,117,92
-14,-68,-53,41,19,-61,-92,-209,-82,24,112,92
-14,-68,-53,41,19,-61,-97,-209,-73,34,122,92
-14,-68,-53,41,19,-61,-112,-209,-78,34,126,97
-14,-63,-48,39,17,-56,-117,-204,-78,34,126,97
-14,-63,-48,39,17,-56,-122,-195,-78,34,126,97
-14,-63,-48,39,17,-56,-122,-195,-78,34,126,97
-9,-58,-48,34,19,-53,-122,-200,-82,34,126,102
-4,-58,-53,31,24,-56,-122,-200,-87,34,126,102
-4,-58,-53,31,24,-56,-126,-195,-87,34,126,102
-4,-63,-58,34,26,-61,-122,-195,-78,43,126,102
-4,-63,-58,34,26,-61,-122,-190,-78,43,126,102
0,-63,-63,31,31,-63,-117,-190,-78,48,126,102
0,-63,-63,31,31,-63,-112,-190,-78,48,126,102
0,-63,-63,31,31,-63,-122,-180,-68,58,126,107
0,-63,-63,31,31,-63,-122,-175,-68,63,131,107
9,-63,-73,26,41,-68,-122,-170,-68,68,131,107
14,-63,-78,24,46,-70,-131,-165,-68,73,131,107
29,-78,-107,24,68,-92,-136,-175,-68,82,131,102
34,-78,-112,21,73,-95,-141,-175,-68,87,131,102
39,-82,-122,21,80,-102,-146,-175,-68,92,131,102
43,-82,-126,19,85,-104,-146,-170,-68,97,126,102
34,-82,-117,24,75,-100,-165,-161,-58,112,126,112
39,-87,-126,24,82,-107,-175,-161,-58,112,126,112
43,-87,-131,21,87,-109,-175,-165,-58,117,126,112
48,-87,-136,19,92,-112,-180,-165,-58,117,126,112
58,-92,-151,17,104,-122,-175,-156,-58,126,126,117
73,-97,-170,12,122,-134,-185,-156,-48,131,131,117
73,-102,-175,14,124,-139,-195,-156,-58,131,122,117
78,-102,-180,12,129,-141,-209,-156,-48,136,122,122
78,-97,-175,9,126,-136,-214,-146,-48,136,126,117
78,-107,-185,14,131,-146,-214,-141,-43,146,117,117
78,-107,-185,14,131,-146,-214,-136,-39,146,117,117
78,-107,-185,14,131,-146,-214,-131,-34,146,117,117
78,-107,-185,14,131,-146,-214,-126,-29,146,117,117
87,-107,-195,9,141,-151,-219,-112,-19,161,117,112
87,-112,-200,12,143,-156,-219,-97,-9,161,112,112
87,-112,-200,12,143,-156,-224,-87,0,161,112,112
92,-112,-204,9,148,-158,-224,-68,14,170,112,107
82,-102,-185,9,134,-143,-219,-48,29,165,112,117
78,-102,-180,12,129,-141,-214,-29,43,170,112,112
78,-107,-185,14,131,-146,-214,-9,53,180,112,112
82,-112,-195,14,139,-153,-209,14,63,185,112,112
92,-102,-195,4,143,-148,-204,29,68,185,97,102
92,-102,-195,4,143,-148,-195,58,87,190,97,102
92,-102,-195,4,143,-148,-185,87,102,200,97,102
92,-107,-200,7,146,-153,-175,112,117,204,97,102
87,-107,-195,9,141,-151,-161,126,131,195,102,107
87,-107,-195,9,141,-151,-151,151,146,200,102,107
82,-107,-190,12,136,-148,-131,165,161,209,102,107
82,-107,-190,12,136,-148,-112,180,175,214,97,107
82,-107,-190,12,136,-148,-112,195,195,209,87,97
82,-102,-185,9,134,-143,-102,209,209,209,92,97
82,-87,-170,2,126,-129,-87,234,224,219,92,102
82,-82,-165,0,124,-124,-73,258,239,229,97,102
73,-82,-156,4,114,-119,-34,278,248,244,107,102
68,-82,-151,7,109,-117,-14,292,268,248,107,102
68,-82,-151,7,109,-117,4,307,278,248,107,97
68,-82,-151,7,109,-117,29,317,287,248,107,97
68,-78,-146,4,107,-112,24,326,292,253,107,102
63,-78,-141,7,102,-109,29,341,302,253,107,102
58,-87,-146,14,102,-117,29,351,302,248,107,102
58,-92,-151,17,104,-122,29,356,307,248,102,102
68,-92,-161,12,114,-126,34,356,307,244,97,97
63,-102,-165,19,114,-134,39,351,307,244,97,87
63,-102,-165,19,114,-134,48,346,302,234,87,87
58,-112,-170,26,114,-141,48,341,297,224,82,82
58,-107,-165,24,112,-136,48,326,283,224,73,78
58,-112,-170,26,114,-141,48,317,278,214,68,73
48,-122,-170,36,109,-146,48,317,273,209,63,73
48,-126,-175,39,112,-151,48,317,263,209,63,73
48,-141,-190,46,119,-165,43,312,248,195,63,73
53,-141,-195,43,124,-168,39,307,248,190,63,73
53,-146,-200,46,126,-173,29,292,239,185,53,68
53,-156,-209,51,131,-183,29,273,224,175,53,68
58,-170,-229,56,143,-200,9,253,200,161,39,58
58,-170,-229,56,143,-200,9,239,185,156,34,58
58,-180,-239,61,148,-209,9,234,175,141,29,53
58,-190,-248,65,153,-219,14,224,161,131,24,48
53,-200,-253,73,153,-226,19,234,170,141,34,53
53,-200,-253,73,153,-226,29,239,175,146,34,53
48,-200,-248,75,148,-224,39,244,175,146,34,58
48,-200,-248,75,148,-224,53,244,180,151,34,58
48,-209,-258,80,153,-234,58,244,180,156,43,48
48,-209,-258,80,153,-234,63,248,185,161,48,53
48,-209,-258,80,153,-234,68,248,185,161,48,58
48,-219,-268,85,158,-244,68,248,185,161,48,58
48,-224,-273,87,161,-248,68,244,175,161,39,58
48,-229,-278,90,163,-253,63,229,161,141,34,48
39,-234,-273,97,156,-253,58,219,156,141,29,48
39,-239,-278,100,158,-258,58,219,151,136,24,39
39,-229,-268,95,153,-248,58,214,136,122,9,29
39,-229,-268,95,153,-248,58,204,131,117,9,29
34,-224,-258,95,146,-241,58,195,126,112,4,29
34,-224,-258,95,146,-241,53,185,122,107,0,19
39,-219,-258,90,148,-239,43,180,112,87,-4,19
39,-214,-253,87,146,-234,48,170,102,82,-9,19
39,-209,-248,85,143,-229,48,170,102,78,-9,19
34,-204,-239,85,136,-222,48,165,97,78,-9,14
24,-224,-248,100,136,-236,58,170,102,78,-9,19
19,-244,-263,112,141,-253,63,170,107,82,-4,24
19,-258,-278,119,148,-268,68,175,112,87,0,29
19,-268,-287,124,153,-278,73,185,117,92,9,34
19,-268,-287,124,153,-278,63,185,117,97,19,34
19,-273,-292,126,156,-283,63,185,117,97,19,34
19,-273,-292,126,156,-283,63,180,117,97,19,34
19,-268,-287,124,153,-278,58,180,112,97,19,34
34,-258,-292,112,163,-275,58,165,102,82,9,24
34,-258,-292,112,163,-275,58,165,97,82,14,29
34,-263,-297,114,165,-280,58,161,97,82,14,29
34,-263,-297,114,165,-280,58,161,97,78,14,24
29,-248,-278,109,153,-263,58,151,92,68,4,24
29,-248,-278,109,153,-263,58,151,92,73,4,29
29,-253,-283,112,156,-268,58,146,92,73,4,29
29,-253,-283,112,156,-268,58,146,92,73,4,29
24,-244,-268,109,146,-256,58,151,92,73,14,29
24,-239,-263,107,143,-251,58,151,92,73,14,29
24,-239,-263,107,143,-251,58,151,92,73,14,29
24,-239,-263,107,143,-251,58,156,97,78,14,29
34,-239,-273,102,153,-256,58,156,87,78,14,39
34,-239,-273,102,153,-256,53,156,92,78,19,39
34,-239,-273,102,153,-256,48,156,92,82,24,43
34,-239,-273,102,153,-256,39,161,92,82,24,43
34,-229,-263,97,148,-246,39,151,102,82,14,43
24,-239,-263,107,143,-251,48,161,102,92,19,43
29,-229,-258,100,143,-244,48,165,107,92,19,34
29,-239,-268,104,148,-253,58,185,117,102,24,34
39,-258,-297,109,168,-278,73,234,151,117,19,39
43,-268,-312,112,178,-290,87,312,214,156,9,19
48,-278,-326,114,187,-302,87,385,302,248,19,29
78,-268,-346,95,212,-307,68,395,390,380,78,58
97,-268,-366,85,231,-317,53,429,502,556,141,102
126,-278,-405,75,265,-341,43,512,644,761,214,151
151,-278,-429,63,290,-353,14,546,741,966,292,200
204,-263,-468,29,336,-366,-19,551,819,1180,400,268
248,-248,-497,0,373,-373,-48,629,946,1429,531,366
287,-248,-536,-19,412,-392,-53,741,1058,1620,634,444
322,-258,-580,-31,451,-419,-53,819,1073,1673,683,497
375,-253,-629,-61,502,-441,-63,902,1024,1625,717,541
405,-248,-653,-78,529,-451,-53,946,873,1361,678,566
385,-273,-658,-56,522,-466,-9,951,644,907,551,507
331,-287,-619,-21,475,-453,53,936,473,522,405,424
224,-273,-497,24,361,-385,141,746,297,146,214,287
48,-278,-326,114,187,-302,224,322,-39,-395,-58,82
-82,-287,-204,185,61,-246,287,-53,-346,-844,-297,-107
-141,-268,-126,204,-7,-197,331,-185,-444,-966,-390,-195
-190,-244,-53,217,-68,-148,351,-239,-488,-961,-414,-224
-248,-224,24,236,-136,-100,361,-331,-551,-1000,-439,-263
-263,-244,19,253,-141,-112,380,-395,-595,-1010,-473,-297
-244,-253,-9,248,-117,-131,380,-375,-585,-971,-478,-307
-244,-234,9,239,-126,-112,395,-263,-507,-878,-429,-292
-283,-190,92,236,-187,-48,434,-97,-370,-727,-351,-253
-292,-175,117,234,-204,-29,468,58,-263,-610,-287,-224
-263,-185,78,224,-170,-53,478,131,-239,-575,-273,-219
-244,-200,43,222,-143,-78,488,190,-214,-541,-263,-204
-248,-190,58,219,-153,-65,531,283,-165,-473,-244,-195
-244,-200,43,222,-143,-78,585,375,-112,-429,-244,-195
-234,-219,14,226,-124,-102,614,444,-73,-395,-239,-185
-229,-214,14,222,-122,-100,634,483,-39,-351,-214,-175
-224,-214,9,219,-117,-102,649,502,-9,-307,-190,-156
-204,-214,-9,209,-97,-112,658,497,-4,-273,-156,-141
-200,-195,4,197,-102,-95,653,429,-14,-244,-126,-117
-200,-180,19,190,-109,-80,649,307,-24,-229,-117,-107
-214,-175,39,195,-126,-68,653,195,-39,-229,-112,-102
-224,-185,39,204,-131,-73,673,126,-48,-219,-107,-97
-224,-195,29,209,-126,-82,697,78,-39,-195,-102,-92
-224,-185,39,204,-131,-73,707,0,-48,-180,-82,-87
-224,-170,53,197,-139,-58,697,-73,-73,-175,-73,-82
-224,-170,53,197,-139,-58,688,-117,-78,-151,-53,-63
-224,-170,53,197,-139,-58,668,-146,-82,-141,-34,-53
-209,-175,34,192,-122,-70,610,-180,-92,-136,-24,-43
-180,-165,14,173,-97,-75,536,-239,-107,-136,-9,-24
-170,-156,14,163,-92,-70,463,-287,-122,-131,0,-9
-161,-151,9,156,-85,-70,380,-312,-131,-122,9,0
-161,-141,19,151,-90,-61,317,-297,-136,-97,34,14
-146,-126,19,136,-82,-53,258,-283,-136,-78,48,24
-131,-126,4,129,-68,-61,204,-283,-141,-68,53,34
-122,-126,-4,124,-58,-65,170,-283,-141,-63,63,48
-102,-122,-19,112,-41,-70,131,-273,-131,-53,68,53
-82,-112,-29,97,-26,-70,92,-263,-117,-43,87,73
-68,-107,-39,87,-14,-73,53,-253,-97,-24,97,78
-63,-102,-39,82,-12,-70,9,-248,-78,-14,102,92
-58,-97,-39,78,-9,-68,-24,-244,-78,0,117,92
-43,-82,-39,63,-2,-61,-34,-229,-87,0,107,97
-48,-82,-34,65,-7,-58,-43,-224,-97,-4,107,97
-53,-92,-39,73,-7,-65,-43,-219,-87,-4,117,97
-43,-92,-48,68,2,-70,-48,-219,-92,0,122,102
-39,-92,-53,65,7,-73,-53,-224,-92,0,122,102
-39,-87,-48,63,4,-68,-63,-224,-87,9,126,102
-39,-97,-58,68,9,-78,-73,-224,-82,9,126,102
-34,-97,-63,65,14,-80,-78,-219,-82,9,126,102
-34,-92,-58,63,12,-75,-78,-219,-82,9,126,102
-34,-92,-58,63,12,-75,-82,-219,-82,9,131,102
-34,-82,-48,58,7,-65,-73,-219,-92,9,131,107
-29,-82,-53,56,12,-68,-68,-219,-97,9,131,107
-29,-82,-53,56,12,-68,-68,-219,-97,9,131,107
-24,-78,-53,51,14,-65,-68,-219,-97,9,131,112
-34,-78,-43,56,4,-61,-58,-219,-87,9,131,112
-34,-78,-43,56,4,-61,-63,-219,-87,9,141,112
-34,-78,-43,56,4,-61,-68,-224,-87,9,141,117
-34,-73,-39,53,2,-56,-68,-224,-87,9,141,117
-24,-73,-48,48,12,-61,-82,-224,-97,9,141,117
-24,-73,-48,48,12,-61,-82,-224,-97,9,141,117
-24,-78,-53,51,14,-65,-82,-229,-97,9,141,117
-24,-78,-53,51,14,-65,-82,-229,-97,9,141,117
-24,-87,-63,56,19,-75,-73,-229,-97,9,146,126
-24,-87,-63,56,19,-75,-73,-234,-97,9,146,126
-24,-87,-63,56,19,-75,-78,-234,-102,4,146,131
-24,-87,-63,56,19,-75,-82,-239,-102,4,141,131
-24,-87,-63,56,19,-75,-82,-244,-102,4,151,122
-24,-87,-63,56,19,-75,-92,-248,-107,4,156,126
-24,-82,-58,53,17,-70,-92,-248,-107,4,156,126
-24,-82,-58,53,17,-70,-92,-244,-107,4,156,126
-14,-82,-68,48,26,-75,-92,-244,-107,4,156,126
-9,-78,-68,43,29,-73,-92,-248,-112,4,156,131
-4,-78,-73,41,34,-75,-92,-248,-117,4,156,131
-4,-78,-73,41,34,-75,-97,-244,-117,4,156,131
-4,-82,-78,43,36,-80,-97,-244,-117,14,156,131
-4,-82,-78,43,36,-80,-102,-239,-117,14,156,131
0,-82,-82,41,41,-82,-102,-239,-117,19,156,131
0,-82,-82,41,41,-82,-102,-239,-117,19,156,131
-9,-92,-82,51,36,-87,-122,-239,-107,29,146,136
-9,-92,-82,51,36,-87,-122,-234,-107,34,151,136
0,-92,-92,46,46,-92,-122,-229,-107,39,151,136
4,-92,-97,43,51,-95,-131,-224,-107,43,151,136
9,-97,-107,43,58,-102,-126,-214,-107,53,151,131
14,-97,-112,41,63,-104,-131,-214,-107,58,151,131
19,-102,-122,41,70,-112,-136,-214,-107,63,151,131
24,-102,-126,39,75,-114,-136,-209,-107,68,146,131
24,-112,-136,43,80,-124,-141,-209,-107,73,146,131
29,-117,-146,43,87,-131,-146,-209,-107,73,146,131
34,-117,-151,41,92,-134,-141,-214,-107,78,146,131
39,-117,-156,39,97,-136,-141,-214,-107,78,146,131
39,-122,-161,41,100,-141,-156,-204,-107,87,146,136
43,-117,-161,36,102,-139,-165,-214,-107,82,141,136
53,-122,-175,34,114,-148,-165,-204,-107,92,141,136
58,-131,-190,36,124,-161,-170,-204,-107,87,141,131
58,-136,-195,39,126,-165,-175,-204,-97,87,136,136
68,-146,-214,39,141,-180,-180,-195,-87,97,136,136
68,-146,-214,39,141,-180,-185,-195,-87,97,136,136
68,-146,-214,39,141,-180,-190,-195,-87,97,136,136
68,-146,-214,39,141,-180,-195,-195,-87,97,136,136
68,-136,-204,34,136,-170,-200,-180,-82,102,126,131
68,-141,-209,36,139,-175,-200,-165,-68,102,122,131
68,-141,-209,36,139,-175,-204,-156,-53,102,122,131
73,-141,-214,34,143,-178,-204,-136,-34,112,122,126
82,-131,-214,24,148,-173,-190,-107,-19,117,122,126
78,-131,-209,26,143,-170,-185,-87,-4,122,122,122
78,-136,-214,29,146,-175,-185,-68,4,131,122,122
