I,II,III,aVR,aVL,aVF,V1,V2,V3,V4,V5,V6
126,-117,-244,-4,185,-180,-351,-273,-761,-634,312,370
126,-117,-244,-4,185,-180,-351,-273,-761,-634,312,370
126,-117,-244,-4,185,-180,-351,-273,-761,-634,312,370
126,-117,-244,-4,185,-180,-351,-273,-761,-634,312,370
97,-107,-204,4,151,-156,-297,-234,-707,-610,234,317
68,-107,-175,19,122,-141,-244,-195,-653,-585,165,263
39,-107,-146,34,92,-126,-190,-156,-600,-561,97,209
9,-107,-117,48,63,-112,-136,-117,-546,-536,29,156
-14,-87,-73,51,29,-80,-112,-92,-497,-502,-4,112
-29,-68,-39,48,4,-53,-97,-68,-448,-468,-39,68
-43,-48,-4,46,-19,-26,-82,-43,-400,-434,-73,24
-58,-29,29,43,-43,0,-68,-19,-351,-400,-107,-19
-68,-24,43,46,-56,9,-53,-29,-322,-366,-112,-34
-78,-19,58,48,-68,19,-39,-29,-292,-341,-117,-39
-87,-14,73,51,-80,29,-24,-29,-263,-317,-122,-43
-97,-9,87,53,-92,39,-9,-29,-234,-292,-126,-48
-87,-19,68,53,-78,24,4,-24,-204,-278,-112,-63
-87,-19,68,53,-78,24,9,-19,-185,-263,-107,-68
-87,-19,68,53,-78,24,14,-14,-165,-248,-102,-73
-87,-19,68,53,-78,24,19,-9,-146,-234,-97,-78
-102,-29,73,65,-87,21,34,-4,-141,-219,-107,-92
-117,-29,87,73,-102,29,39,0,-136,-214,-117,-97
-131,-29,102,80,-117,36,43,4,-131,-209,-126,-102
-146,-29,117,87,-131,43,48,9,-126,-204,-136,-107
-146,-39,107,92,-126,34,48,4,-117,-214,-126,-117
-146,-39,107,92,-126,34,48,0,-117,-214,-126,-117
-146,-39,107,92,-126,34,48,-4,-117,-214,-126,-117
-146,-39,107,92,-126,34,48,-9,-117,-214,-126,-117
-151,-34,117,92,-134,41,48,-9,-117,-204,-126,-131
-156,-29,126,92,-141,48,48,-9,-117,-204,-126,-136
-161,-24,136,92,-148,56,48,-9,-117,-204,-126,-141
-165,-19,146,92,-156,63,48,-9,-117,-204,-126,-146
-156,-24,131,90,-143,53,48,-14,-126,-204,-141,-146
-146,-29,117,87,-131,43,48,-19,-126,-204,-146,-146
-136,-34,102,85,-119,34,48,-24,-126,-204,-151,-146
-126,-39,87,82,-107,24,48,-29,-126,-204,-156,-146
-146,-39,107,92,-126,34,53,-19,-126,-214,-156,-136
-156,-39,117,97,-136,39,58,-19,-126,-214,-156,-136
-165,-39,126,102,-146,43,63,-19,-126,-214,-156,-136
-175,-39,136,107,-156,48,68,-19,-126,-214,-156,-136
-170,-34,136,102,-153,51,58,-24,-131,-219,-170,-151
-165,-29,136,97,-151,53,58,-29,-136,-224,-175,-156
-161,-24,136,92,-148,56,58,-34,-141,-229,-180,-161
-156,-19,136,87,-146,58,58,-39,-146,-234,-185,-165
-146,-19,126,82,-136,53,68,-34,-146,-224,-195,-175
-146,-19,126,82,-136,53,68,-29,-146,-224,-195,-175
-146,-19,126,82,-136,53,68,-24,-146,-224,-195,-175
-146,-19,126,82,-136,53,68,-19,-146,-224,-195,-175
-146,-9,136,78,-141,63,68,-19,-156,-229,-204,-175
-146,-9,136,78,-141,63,68,-19,-156,-234,-204,-175
-146,-9,136,78,-141,63,68,-19,-156,-239,-204,-175
-146,-9,136,78,-141,63,68,-19,-156,-244,-204,-175
-146,-19,126,82,-136,53,58,-29,-161,-248,-204,-190
-146,-19,126,82,-136,53,48,-29,-165,-253,-204,-195
-146,-19,126,82,-136,53,39,-29,-170,-258,-204,-200
-146,-19,126,82,-136,53,29,-29,-175,-263,-204,-204
-141,-24,117,82,-129,46,29,-19,-175,-258,-195,-214
-136,-29,107,82,-122,39,29,-19,-175,-253,-195,-214
-131,-34,97,82,-114,31,29,-19,-175,-248,-195,-214
-126,-39,87,82,-107,24,29,-19,-175,-244,-195,-214
-136,-24,112,80,-124,43,39,-14,-165,-234,-204,-214
-146,-19,126,82,-136,53,39,-9,-165,-234,-204,-214
-156,-14,141,85,-148,63,39,-4,-165,-234,-204,-214
-165,-9,156,87,-161,73,39,0,-165,-234,-204,-214
-165,-19,146,92,-156,63,39,-9,-180,-248,-214,-214
-165,-19,146,92,-156,63,39,-9,-185,-253,-214,-214
-165,-19,146,92,-156,63,39,-9,-190,-258,-214,-214
-165,-19,146,92,-156,63,39,-9,-195,-263,-214,-214
-156,-9,146,82,-151,68,39,-9,-204,-268,-204,-224
-146,-9,136,78,-141,63,39,-9,-204,-273,-204,-224
-136,-9,126,73,-131,58,39,-9,-204,-278,-204,-224
-126,-9,117,68,-122,53,39,-9,-204,-283,-204,-224
-141,-9,131,75,-136,61,48,4,-195,-273,-204,-234
-146,-9,136,78,-141,63,48,9,-195,-273,-204,-234
-151,-9,141,80,-146,65,48,14,-195,-273,-204,-234
-156,-9,146,82,-151,68,48,19,-195,-273,-204,-234
-146,-9,136,78,-141,63,58,4,-209,-287,-204,-244
-146,-9,136,78,-141,63,58,0,-214,-292,-204,-244
-146,-9,136,78,-141,63,58,-4,-219,-297,-204,-244
-146,-9,136,78,-141,63,58,-9,-224,-302,-204,-244
-151,-24,126,87,-139,51,73,-4,-234,-307,-219,-253
-156,-29,126,92,-141,48,78,0,-234,-312,-224,-253
-161,-34,126,97,-143,46,82,4,-234,-317,-229,-253
-165,-39,126,102,-146,43,87,9,-234,-322,-234,-253
-151,-24,126,87,-139,51,78,0,-248,-346,-244,-258
-146,-19,126,82,-136,53,78,0,-263,-361,-244,-263
-141,-14,126,78,-134,56,78,0,-278,-375,-244,-268
-131,-9,122,70,-126,56,78,0,-292,-385,-244,-273
-151,-29,122,90,-136,46,97,9,-292,-370,-224,-263
-165,-29,136,97,-151,53,97,19,-287,-366,-224,-268
-180,-29,151,104,-165,61,107,29,-283,-356,-224,-263
-195,-39,156,117,-175,58,122,39,-278,-351,-224,-244
-190,-39,151,114,-170,56,117,34,-302,-375,-248,-248
-180,-29,151,104,-165,61,112,34,-312,-395,-258,-253
-165,-29,136,97,-151,53,107,34,-317,-414,-268,-253
-141,-24,117,82,-129,46,97,29,-326,-439,-278,-258
-156,-29,126,92,-141,48,107,39,-336,-463,-278,-263
-161,-29,131,95,-146,51,107,48,-341,-458,-278,-258
-165,-29,136,97,-151,53,107,48,-346,-463,-278,-258
-170,-34,136,102,-153,51,107,48,-356,-468,-273,-268
-161,-48,112,104,-136,31,107,48,-361,-478,-268,-268
-161,-43,117,102,-139,36,102,43,-356,-473,-263,-263
-165,-48,117,107,-141,34,97,43,-346,-473,-258,-248
-161,-53,107,107,-134,26,92,53,-341,-473,-258,-234
-175,-63,112,119,-143,24,102,63,-341,-468,-244,-229
-175,-68,107,122,-141,19,97,58,-346,-468,-248,-224
-190,-68,122,129,-156,26,97,58,-356,-473,-248,-219
-219,-68,151,143,-185,41,97,58,-361,-468,-244,-224
-195,-48,146,122,-170,48,97,68,-341,-453,-219,-224
-165,-34,131,100,-148,48,92,68,-331,-444,-204,-219
-165,-19,146,92,-156,63,87,68,-322,-434,-200,-204
-151,-9,141,80,-146,65,82,73,-302,-419,-204,-200
-146,-14,131,80,-139,58,92,87,-278,-400,-190,-190
-146,-19,126,82,-136,53,87,87,-263,-390,-170,-175
-141,-24,117,82,-129,46,87,87,-253,-370,-151,-161
-131,-29,102,80,-117,36,87,92,-239,-336,-122,-146
-117,-39,78,78,-97,19,68,97,-209,-292,-92,-126
-102,-39,63,70,-82,12,58,102,-185,-283,-78,-117
-92,-39,53,65,-73,7,39,102,-161,-258,-68,-117
-87,-39,48,63,-68,4,29,107,-131,-234,-58,-107
-97,-29,68,63,-82,19,19,117,-112,-204,-48,-92
-97,-14,82,56,-90,34,9,122,-92,-185,-34,-78
-107,-4,102,56,-104,48,4,126,-68,-161,-14,-63
-107,9,117,48,-112,63,0,131,-48,-131,-4,-39
-112,-4,107,58,-109,51,-9,131,-43,-117,4,-34
-112,-9,102,61,-107,46,-14,131,-34,-112,14,-29
-97,-14,82,56,-90,34,-24,131,-24,-97,29,-24
-97,-19,78,58,-87,29,-24,126,-14,-78,48,-14
-82,-14,68,48,-75,26,-34,112,-9,-63,53,-29
-82,-4,78,43,-80,36,-34,107,-4,-58,53,-24
-82,0,82,41,-82,41,-29,97,4,-43,53,-29
-78,4,82,36,-80,43,-29,92,9,-48,53,-34
-82,-4,78,43,-80,36,-29,87,9,-43,63,-43
-87,-19,68,53,-78,24,-24,87,9,-39,63,-48
-87,-29,58,58,-73,14,-14,87,4,-29,63,-48
-92,-39,53,65,-73,7,-9,87,4,-19,63,-48
-87,-24,63,56,-75,19,-9,92,9,-14,73,-34
-87,-9,78,48,-82,34,-14,92,9,-9,73,-29
-87,4,92,41,-90,48,-14,87,4,-9,73,-19
-82,14,97,34,-90,56,-14,87,4,-4,78,-14
-97,4,102,46,-100,53,-9,78,4,-14,68,-14
-102,9,112,46,-107,61,-4,78,4,-14,68,-14
-107,9,117,48,-112,63,0,78,0,-19,63,-19
-112,9,122,51,-117,65,4,73,0,-19,63,-19
-117,0,117,58,-117,58,-4,73,-4,-19,53,-29
-102,-9,92,56,-97,41,-4,73,-9,-19,53,-39
-92,-19,73,56,-82,26,-4,63,-19,-19,43,-39
-87,-29,58,58,-73,14,-4,63,-24,-19,43,-39
-78,-24,53,51,-65,14,-4,63,-19,-29,34,-39
-82,-14,68,48,-75,26,-4,73,-19,-29,34,-34
-82,-4,78,43,-80,36,-4,73,-9,-29,34,-34
-87,0,87,43,-87,43,0,73,-9,-29,29,-34
-97,-9,87,53,-92,39,0,68,-19,-34,29,-43
-87,-19,68,53,-78,24,0,63,-29,-39,34,-48
-78,-34,43,56,-61,4,0,53,-34,-43,39,-53
-87,-48,39,68,-63,-4,0,48,-39,-48,43,-58
-102,-39,63,70,-82,12,-9,48,-29,-29,29,-68
-102,-39,63,70,-82,12,-9,48,-29,-24,24,-73
-107,-39,68,73,-87,14,-9,53,-29,-19,14,-78
-107,-39,68,73,-87,14,-9,53,-19,-9,9,-82
-112,-29,82,70,-97,26,0,58,-29,-14,4,-78
-117,-24,92,70,-104,34,-4,58,-29,-19,4,-78
-112,-14,97,63,-104,41,-4,58,-29,-24,0,-78
-107,-9,97,58,-102,43,-4,58,-29,-29,-9,-78
-92,-24,68,58,-80,21,4,68,-24,-14,4,-58
-92,-24,68,58,-80,21,9,73,-14,-4,9,-48
-92,-24,68,58,-80,21,9,82,-9,0,19,-39
-87,-19,68,53,-78,24,4,87,-4,4,24,-29
-87,-9,78,48,-82,34,14,97,9,19,34,-39
-82,0,82,41,-82,41,14,97,24,29,39,-39
-82,9,92,36,-87,51,14,92,19,19,39,-43
-87,19,107,34,-97,63,19,92,9,19,24,-48
-82,19,102,31,-92,61,9,92,4,-9,14,-68
-63,19,82,21,-73,51,9,97,19,-4,4,-73
-82,-4,78,43,-80,36,29,107,29,24,0,-73
-117,-4,112,61,-114,53,43,122,58,63,-9,-78
-126,-14,112,70,-119,48,53,161,141,136,9,-73
-97,-39,58,68,-78,9,68,224,287,268,39,-58
-24,-4,19,14,-21,7,39,273,434,414,97,-34
14,39,24,-26,-4,31,4,312,595,605,190,19
4,63,58,-34,-26,61,-19,322,775,888,346,107
0,107,107,-53,-53,107,-39,302,980,1234,512,190
34,146,112,-90,-39,129,-68,312,1220,1595,673,273
78,175,97,-126,-9,136,-117,395,1590,2044,902,385
141,229,87,-185,26,158,-195,531,2142,2669,1249,556
253,292,39,-273,107,165,-283,683,2849,3455,1708,785
439,346,-92,-392,265,126,-385,844,3489,4123,2235,1049
575,356,-219,-466,397,68,-478,966,3782,4304,2654,1278
595,326,-268,-461,431,29,-517,966,3596,3928,2796,1376
546,346,-200,-446,373,73,-536,761,2962,3264,2693,1332
463,326,-136,-395,300,95,-556,346,1917,2479,2508,1283
395,263,-131,-329,263,65,-566,-156,663,1551,2259,1224
346,219,-126,-283,236,46,-575,-546,-361,668,1888,1102
292,175,-117,-234,204,29,-546,-639,-751,92,1468,917
248,117,-131,-183,190,-7,-497,-580,-805,-180,1156,790
229,97,-131,-163,180,-17,-502,-551,-863,-312,976,727
204,78,-126,-141,165,-24,-497,-492,-893,-366,863,683
165,53,-112,-109,139,-29,-468,-375,-844,-409,722,610
136,-4,-141,-65,139,-73,-419,-219,-780,-444,595,546
112,-68,-180,-21,146,-124,-356,-97,-707,-424,536,512
97,-87,-185,-4,141,-136,-322,-58,-644,-429,453,463
73,-87,-161,7,117,-124,-283,-58,-634,-488,317,361
43,-92,-136,24,90,-114,-234,-34,-610,-502,234,292
19,-58,-78,19,48,-68,-190,-4,-517,-414,224,263
-9,-19,-9,14,0,-14,-117,29,-414,-326,175,214
-53,-19,34,36,-43,7,-63,58,-370,-307,73,117
-63,-14,48,39,-56,17,-39,73,-346,-297,0,34
-73,-9,63,41,-68,26,-43,92,-292,-244,-4,19
-78,-4,73,41,-75,34,-43,92,-239,-200,29,39
-87,0,87,43,-87,43,-43,82,-204,-175,24,53
-112,-4,107,58,-109,51,-53,48,-195,-175,4,34
-136,-14,122,75,-129,53,-48,19,-190,-180,-24,-4
-156,-14,141,85,-148,63,-39,0,-180,-180,-53,-48
-156,-4,151,80,-153,73,-24,-4,-151,-161,-63,-73
-131,24,156,53,-143,90,-14,-4,-146,-161,-58,-63
-122,24,146,48,-134,85,4,14,-122,-136,-48,-53
-112,14,126,48,-119,70,9,19,-112,-141,-58,-53
-122,14,136,53,-129,75,9,29,-112,-146,-63,-63
-122,14,136,53,-129,75,9,39,-107,-146,-73,-73
-122,9,131,56,-126,70,14,48,-107,-151,-73,-82
-117,4,122,56,-119,63,19,34,-102,-156,-92,-97
-117,-14,102,65,-109,43,19,34,-102,-161,-102,-107
-112,-29,82,70,-97,26,24,39,-102,-156,-107,-117
-102,-24,78,63,-90,26,19,39,-107,-161,-112,-126
-102,-24,78,63,-90,26,14,48,-112,-170,-117,-126
-102,-29,73,65,-87,21,14,39,-112,-175,-122,-131
-102,-29,73,65,-87,21,9,39,-122,-175,-131,-136
-102,-39,63,70,-82,12,9,39,-122,-175,-136,-136
-122,-43,78,82,-100,17,29,43,-112,-165,-136,-126
-126,-43,82,85,-104,19,34,53,-102,-165,-131,-122
-131,-43,87,87,-109,21,39,58,-87,-165,-117,-112
-141,-43,97,92,-119,26,48,58,-78,-165,-112,-102
-151,-53,97,102,-124,21,48,58,-82,-151,-117,-117
-151,-53,97,102,-124,21,48,58,-82,-146,-126,-126
-141,-48,92,95,-117,21,48,58,-82,-146,-136,-136
-141,-48,92,95,-117,21,39,63,-82,-141,-136,-141
-136,-43,92,90,-114,24,34,53,-92,-161,-151,-141
-146,-43,102,95,-124,29,29,48,-97,-170,-156,-131
-146,-43,102,95,-124,29,24,43,-107,-180,-161,-131
-131,-39,92,85,-112,26,19,39,-117,-190,-165,-131
-136,-53,82,95,-109,14,29,39,-117,-195,-170,-117
-151,-63,87,107,-119,12,29,34,-122,-200,-175,-112
-156,-68,87,112,-122,9,24,29,-122,-204,-180,-107
-161,-73,87,117,-124,7,24,19,-126,-209,-180,-107
-170,-87,82,129,-126,-2,29,29,-117,-200,-170,-107
-175,-87,87,131,-131,0,34,29,-122,-200,-170,-107
-175,-78,97,126,-136,9,43,29,-122,-200,-165,-107
-175,-78,97,126,-136,9,48,34,-126,-200,-165,-107
-161,-63,97,112,-129,17,39,34,-117,-209,-175,-97
-161,-58,102,109,-131,21,39,29,-117,-209,-175,-97
-161,-58,102,109,-131,21,39,29,-117,-204,-185,-102
-165,-53,112,109,-139,29,39,29,-117,-200,-185,-107
-151,-68,82,109,-117,7,29,19,-122,-200,-190,-122
-146,-68,78,107,-112,4,19,19,-126,-204,-190,-126
-146,-63,82,104,-114,9,9,19,-131,-214,-200,-131
-151,-63,87,107,-119,12,4,19,-146,-219,-204,-131
-126,-58,68,92,-97,4,-9,4,-156,-229,-209,-136
-112,-58,53,85,-82,-2,-24,-4,-165,-239,-214,-141
-102,-53,48,78,-75,-2,-39,-9,-175,-244,-219,-151
-87,-48,39,68,-63,-4,-48,-14,-175,-253,-229,-165
-107,-39,68,73,-87,14,-39,-9,-151,-234,-224,-170
-117,-39,78,78,-97,19,-34,-4,-146,-229,-224,-175
-126,-39,87,82,-107,24,-29,0,-146,-219,-234,-175
-131,-39,92,85,-112,26,-19,4,-141,-209,-239,-180
-161,-39,122,100,-141,41,-14,4,-156,-253,-258,-195
-170,-68,102,119,-136,17,-4,9,-146,-268,-248,-185
-209,-107,102,158,-156,-2,24,24,-122,-268,-229,-170
-214,-97,117,156,-165,9,19,29,-107,-224,-214,-146
-200,-82,117,141,-158,17,9,19,-112,-214,-229,-151
-195,-68,126,131,-161,29,9,19,-117,-214,-234,-156
-190,-53,136,122,-163,41,9,19,-122,-214,-239,-161
-185,-39,146,112,-165,53,9,19,-126,-214,-244,-165
-175,-53,122,114,-148,34,0,9,-136,-219,-248,-165
-165,-68,97,117,-131,14,0,9,-141,-229,-244,-170
-161,-73,87,117,-124,7,-9,9,-141,-239,-248,-180
-156,-78,78,117,-117,0,-9,9,-141,-244,-253,-180
-141,-78,63,109,-102,-7,-4,0,-131,-253,-263,-170
-141,-78,63,109,-102,-7,-4,4,-136,-253,-268,-175
-136,-68,68,102,-102,0,-4,4,-136,-248,-268,-180
-126,-68,58,97,-92,-4,-4,4,-131,-244,-268,-180
-126,-63,63,95,-95,0,4,19,-112,-234,-253,-161
-131,-58,73,95,-102,7,9,29,-102,-234,-239,-146
-136,-58,78,97,-107,9,14,48,-87,-214,-224,-131
-141,-58,82,100,-112,12,19,58,-73,-204,-209,-122
-151,-68,82,109,-117,7,19,68,-63,-200,-200,-136
-156,-82,73,119,-114,-4,24,68,-58,-195,-190,-146
-161,-78,82,119,-122,2,24,63,-53,-185,-180,-151
-170,-82,87,126,-129,2,24,63,-43,-180,-170,-146
-161,-82,78,122,-119,-2,24,82,-29,-180,-170,-126
-141,-82,58,112,-100,-12,24,82,-29,-180,-170,-117
-117,-87,29,102,-73,-29,19,78,-34,-185,-180,-107
-107,-87,19,97,-63,-34,19,78,-43,-195,-185,-97
-131,-92,39,112,-85,-26,9,82,-39,-190,-165,-97
-131,-97,34,114,-82,-31,14,87,-29,-185,-146,-92
-117,-97,19,107,-68,-39,14,92,-19,-175,-126,-82
-131,-97,34,114,-82,-31,14,97,-9,-165,-117,-63
-122,-97,24,109,-73,-36,14,112,4,-151,-112,-63
-112,-97,14,104,-63,-41,14,117,9,-146,-112,-68
-107,-97,9,102,-58,-43,9,117,14,-151,-107,-68
-97,-97,0,97,-48,-48,9,117,14,-146,-102,-68
-78,-97,-19,87,-29,-58,9,126,24,-122,-82,-68
-73,-97,-24,85,-24,-61,9,131,39,-112,-68,-58
-58,-97,-39,78,-9,-68,9,136,48,-126,-58,-58
-48,-97,-48,73,0,-73,0,136,58,-126,-53,-68
-48,-102,-53,75,2,-78,-9,136,73,-97,-39,-48
-48,-107,-58,78,4,-82,-9,141,82,-68,-19,-39
-48,-107,-58,78,4,-82,-9,141,92,-48,4,-29
-58,-112,-53,85,-2,-82,-4,141,107,-24,34,-19
-48,-92,-43,70,-2,-68,0,141,112,-4,48,-9
-43,-78,-34,61,-4,-56,0,141,112,-4,48,-19
-43,-63,-19,53,-12,-41,-4,141,117,-4,48,-19
-29,-48,-19,39,-4,-34,-14,141,122,4,53,-19
-29,-58,-29,43,0,-43,-24,136,122,14,73,-4
-29,-58,-29,43,0,-43,-24,136,122,19,82,4
-34,-53,-19,43,-7,-36,-24,136,122,24,87,24
-39,-53,-14,46,-12,-34,-19,131,126,39,92,34
-29,-43,-14,36,-7,-29,-29,122,122,39,92,24
-29,-43,-14,36,-7,-29,-43,126,117,39,92,24
-29,-48,-19,39,-4,-34,-53,126,112,39,92,19
-24,-48,-24,36,0,-36,-58,126,102,43,92,19
-34,-48,-14,41,-9,-31,-68,122,97,58,87,19
-34,-48,-14,41,-9,-31,-68,112,97,58,82,19
-39,-48,-9,43,-14,-29,-73,107,92,58,78,19
-43,-48,-4,46,-19,-26,-73,97,82,53,73,24
-53,-63,-9,58,-21,-36,-68,87,78,43,78,34
-53,-63,-9,58,-21,-36,-63,87,63,43,78,34
-53,-58,-4,56,-24,-31,-58,87,58,43,78,34
-53,-58,-4,56,-24,-31,-53,87,48,39,73,29
-63,-48,14,56,-39,-17,-63,73,43,29,58,19
-73,-48,24,61,-48,-12,-63,73,39,29,53,19
-63,-48,14,56,-39,-17,-63,73,34,29,48,9
-58,-48,9,53,-34,-19,-63,63,24,29,34,9
-48,-48,0,48,-24,-24,-68,58,9,24,24,19
-48,-48,0,48,-24,-24,-73,53,9,19,24,19
-53,-43,9,48,-31,-17,-78,58,4,14,24,24
-53,-39,14,46,-34,-12,-82,53,9,9,24,24
-53,-29,24,41,-39,-2,-68,63,9,9,9,19
-48,-29,19,39,-34,-4,-68,63,4,9,9,19
-34,-29,4,31,-19,-12,-68,63,0,9,14,14
-19,-34,-14,26,-2,-24,-68,58,0,9,19,9
-29,-43,-14,36,-7,-29,-53,48,-9,19,24,9
-34,-48,-14,41,-9,-31,-48,48,-9,24,24,14
-34,-53,-19,43,-7,-36,-43,48,-9,24,24,14
-39,-58,-19,48,-9,-39,-39,53,-9,24,19,14
-34,-53,-19,43,-7,-36,-53,43,-14,14,4,4
-29,-43,-14,36,-7,-29,-58,29,-19,9,0,0
-24,-39,-14,31,-4,-26,-68,19,-24,4,0,0
-9,-29,-19,19,4,-24,-73,9,-29,0,-4,0
-4,-43,-39,24,17,-41,-63,19,-24,4,-4,4
-9,-53,-43,31,17,-48,-63,24,-19,9,0,9
-19,-58,-39,39,9,-48,-58,24,-9,19,4,14
-29,-63,-34,46,2,-48,-58,29,-4,24,14,19
-39,-53,-14,46,-12,-34,-53,39,4,29,19,34
-39,-48,-9,43,-14,-29,-53,39,14,39,24,39
-34,-43,-9,39,-12,-26,-53,39,24,53,34,43
-34,-39,-4,36,-14,-21,-53,34,14,48,39,43
-39,-19,19,29,-29,0,-19,43,19,58,34,29
-63,-48,14,56,-39,-17,0,63,34,87,43,39
-73,-68,4,70,-39,-31,0,78,39,102,24,24
-73,-53,19,63,-46,-17,9,107,97,131,9,-4
-78,-53,24,65,-51,-14,24,161,214,229,19,-19
-78,-43,34,61,-56,-4,24,219,375,380,68,-4
-19,0,19,9,-19,9,9,273,541,580,156,39
24,4,-19,-14,21,-7,-19,292,697,844,292,112
43,29,-14,-36,29,7,-43,283,878,1151,434,214
63,92,29,-78,17,61,-58,283,1088,1483,580,283
126,136,9,-131,58,73,-87,322,1361,1878,766,366
209,165,-43,-187,126,61,-165,409,1776,2386,1034,488
283,224,-58,-253,170,82,-244,522,2361,3040,1420,678
375,287,-87,-331,231,100,-312,668,3001,3733,1903,927
497,302,-195,-400,346,53,-370,800,3455,4128,2371,1185
585,258,-326,-422,456,-34,-434,902,3616,4094,2723,1381
653,268,-385,-461,519,-58,-488,878,3430,3747,2879,1473
663,287,-375,-475,519,-43,-517,663,2815,3206,2835,1454
595,258,-336,-427,466,-39,-527,263,1800,2474,2635,1381
522,200,-322,-361,422,-61,-517,-209,600,1581,2361,1293
444,165,-278,-305,361,-56,-507,-556,-273,810,2044,1205
375,122,-253,-248,314,-65,-488,-624,-536,346,1703,1083
341,97,-244,-219,292,-73,-468,-570,-595,43,1390,966
297,87,-209,-192,253,-61,-458,-561,-717,-141,1176,868
268,68,-200,-168,234,-65,-473,-541,-775,-234,1015,795
253,29,-224,-141,239,-97,-478,-444,-775,-336,873,722
234,-24,-258,-104,246,-141,-458,-336,-766,-439,712,649
224,-63,-287,-80,256,-175,-429,-258,-751,-492,566,566
229,-78,-307,-75,268,-192,-395,-204,-697,-512,478,512
195,-117,-312,-39,253,-214,-370,-195,-663,-536,385,463
122,-165,-287,21,204,-226,-331,-185,-634,-546,278,409
53,-170,-224,58,139,-197,-283,-151,-570,-492,214,341
0,-97,-97,48,48,-97,-248,-112,-497,-405,146,253
-9,-29,-19,19,4,-24,-224,-78,-444,-366,48,146
-4,-39,-34,21,14,-36,-180,-48,-400,-375,-24,68
-14,-63,-48,39,17,-56,-146,-24,-375,-366,-68,24
14,-19,-34,2,24,-26,-151,-4,-341,-351,-82,19
29,14,-14,-21,21,0,-151,-4,-307,-326,-87,29
19,-19,-39,0,29,-29,-141,-24,-283,-322,-82,24
-4,-34,-29,19,12,-31,-122,-58,-253,-283,-82,4
-29,-34,-4,31,-12,-19,-107,-58,-209,-229,-82,-14
-9,-24,-14,17,2,-19,-97,-58,-200,-219,-102,-39
19,-34,-53,7,36,-43,-102,-63,-190,-219,-122,-63
-4,-43,-39,24,17,-41,-92,-63,-175,-209,-117,-63
-4,-14,-9,9,2,-12,-92,-53,-170,-204,-117,-63
-19,-24,-4,21,-7,-14,-92,-48,-165,-204,-131,-73
-34,-24,9,29,-21,-7,-87,-48,-161,-204,-141,-82
-39,-24,14,31,-26,-4,-82,-48,-151,-200,-156,-92
-43,-29,14,36,-29,-7,-73,-48,-146,-200,-161,-102
-53,-43,9,48,-31,-17,-68,-53,-141,-209,-161,-112
-58,-63,-4,61,-26,-34,-68,-53,-141,-209,-161,-117
-58,-78,-19,68,-19,-48,-63,-48,-141,-200,-156,-122
-53,-73,-19,63,-17,-46,-68,-48,-146,-200,-151,-126
-63,-82,-19,73,-21,-51,-63,-58,-141,-204,-161,-131
-63,-87,-24,75,-19,-56,-63,-68,-141,-214,-170,-141
-63,-87,-24,75,-19,-56,-68,-68,-151,-219,-185,-151
-63,-97,-34,80,-14,-65,-68,-68,-151,-224,-195,-156
-73,-87,-14,80,-29,-51,-63,-68,-141,-214,-200,-146
-68,-82,-14,75,-26,-48,-63,-63,-141,-214,-200,-151
-63,-78,-14,70,-24,-46,-63,-63,-136,-214,-190,-151
-63,-73,-9,68,-26,-41,-58,-68,-136,-214,-190,-151
-73,-87,-14,80,-29,-51,-48,-68,-131,-224,-185,-136
-73,-92,-19,82,-26,-56,-48,-68,-131,-224,-195,-136
-63,-92,-29,78,-17,-61,-48,-68,-131,-229,-204,-136
-63,-97,-34,80,-14,-65,-58,-63,-131,-229,-204,-131
-78,-102,-24,90,-26,-63,-39,-68,-136,-229,-209,-122
-87,-102,-14,95,-36,-58,-39,-68,-136,-229,-214,-112
-87,-102,-14,95,-36,-58,-39,-68,-141,-229,-219,-112
-73,-97,-24,85,-24,-61,-39,-68,-146,-229,-224,-112
-68,-82,-14,75,-26,-48,-29,-58,-146,-234,-229,-112
-73,-82,-9,78,-31,-46,-29,-63,-151,-239,-234,-112
-68,-78,-9,73,-29,-43,-34,-68,-151,-244,-239,-112
-63,-73,-9,68,-26,-41,-34,-78,-156,-248,-239,-117
-68,-78,-9,73,-29,-43,-24,-87,-146,-248,-234,-117
-68,-78,-9,73,-29,-43,-24,-87,-151,-248,-239,-117
-63,-68,-4,65,-29,-36,-19,-87,-151,-248,-239,-117
-58,-68,-9,63,-24,-39,-19,-82,-156,-248,-244,-117
-58,-73,-14,65,-21,-43,-29,-97,-161,-273,-248,-131
-63,-78,-14,70,-24,-46,-29,-107,-165,-278,-253,-136
-68,-87,-19,78,-24,-53,-29,-112,-170,-278,-268,-146
-78,-92,-14,85,-31,-53,-29,-117,-175,-278,-273,-156
-43,-78,-34,61,-4,-56,-29,-126,-190,-287,-283,-175
-29,-68,-39,48,4,-53,-29,-126,-195,-292,-287,-185
-19,-53,-34,36,7,-43,-29,-126,-200,-302,-302,-195
-14,-43,-29,29,7,-36,-24,-126,-214,-307,-312,-200
-39,-53,-14,46,-12,-34,0,-117,-200,-292,-307,-195
-63,-68,-4,65,-29,-36,4,-112,-195,-287,-302,-190
-92,-78,14,85,-53,-31,9,-102,-190,-278,-297,-190
-117,-87,29,102,-73,-29,19,-92,-175,-273,-297,-195
-107,-63,43,85,-75,-9,29,-97,-175,-278,-317,-200
-107,-58,48,82,-78,-4,24,-102,-175,-287,-322,-204
-107,-53,53,80,-80,0,19,-107,-180,-292,-336,-204
-102,-48,53,75,-78,2,19,-112,-180,-297,-346,-209
-112,-58,53,85,-82,-2,4,-122,-185,-312,-356,-224
-112,-58,53,85,-82,-2,4,-117,-185,-317,-356,-224
-112,-58,53,85,-82,-2,4,-112,-190,-326,-356,-219
-112,-53,58,82,-85,2,4,-102,-190,-307,-356,-219
-122,-58,63,90,-92,2,0,-102,-185,-307,-351,-214
-122,-58,63,90,-92,2,0,-102,-185,-312,-346,-214
-126,-58,68,92,-97,4,4,-102,-185,-317,-346,-209
-126,-63,63,95,-95,0,4,-102,-185,-317,-346,-209
-126,-58,68,92,-97,4,-4,-117,-175,-307,-341,-209
-122,-53,68,87,-95,7,0,-117,-175,-312,-346,-214
-122,-48,73,85,-97,12,0,-117,-175,-322,-356,-214
-122,-48,73,85,-97,12,0,-117,-175,-326,-361,-214
-126,-39,87,82,-107,24,0,-107,-175,-326,-370,-204
-126,-34,92,80,-109,29,0,-107,-180,-326,-366,-204
-131,-29,102,80,-117,36,0,-107,-185,-336,-356,-200
-141,-29,112,85,-126,41,0,-107,-185,-336,-356,-200
-131,-53,78,92,-104,12,-4,-102,-190,-341,-356,-204
-117,-48,68,82,-92,9,-9,-107,-200,-346,-361,-204
-102,-53,48,78,-75,-2,-14,-107,-209,-361,-361,-204
-87,-68,19,78,-53,-24,-19,-107,-219,-375,-366,-204
-87,-73,14,80,-51,-29,-9,-102,-209,-370,-361,-195
-82,-78,4,80,-43,-36,-9,-102,-200,-366,-361,-195
-82,-82,0,82,-41,-41,0,-102,-195,-370,-361,-200
-78,-87,-9,82,-34,-48,9,-102,-190,-370,-356,-200
-78,-78,0,78,-39,-39,4,-87,-175,-370,-341,-195
-82,-68,14,75,-48,-26,4,-82,-170,-370,-336,-175
-82,-53,29,68,-56,-12,4,-78,-165,-366,-322,-161
-87,-43,43,65,-65,0,9,-73,-161,-356,-317,-156
-78,-63,14,70,-46,-24,14,-68,-151,-341,-302,-141
-78,-68,9,73,-43,-29,19,-63,-141,-341,-287,-141
-78,-68,9,73,-43,-29,19,-58,-131,-336,-278,-141
-78,-63,14,70,-46,-24,14,-53,-122,-341,-268,-141
-78,-78,0,78,-39,-39,19,-43,-112,-322,-248,-136
-73,-82,-9,78,-31,-46,24,-34,-82,-307,-239,-131
-73,-87,-14,80,-29,-51,29,-14,-63,-292,-234,-107
-73,-92,-19,82,-26,-56,29,0,-53,-258,-229,-97
-58,-87,-29,73,-14,-58,34,4,-39,-229,-204,-87
-53,-82,-29,68,-12,-56,34,4,-19,-214,-180,-82
-53,-82,-29,68,-12,-56,43,14,4,-200,-156,-63
-53,-78,-24,65,-14,-51,48,24,34,-165,-131,-43
-34,-68,-34,51,0,-51,39,34,43,-136,-107,-48
-29,-63,-34,46,2,-48,29,34,68,-117,-92,-43
-24,-53,-29,39,2,-41,29,34,92,-102,-82,-43
-19,-53,-34,36,7,-43,29,34,107,-82,-73,-39
-4,-58,-53,31,24,-56,29,29,107,-68,-48,-43
4,-34,-39,14,21,-36,19,29,112,-39,-39,-39
4,-29,-34,12,19,-31,14,24,117,-14,-24,-29
0,-24,-24,12,12,-24,14,19,122,4,-9,-19
0,-14,-14,7,7,-14,14,19,117,14,0,-24
4,-14,-19,4,12,-17,9,19,117,14,4,-14
4,-19,-24,7,14,-21,4,19,122,9,4,-4
4,-19,-24,7,14,-21,0,9,122,0,9,-4
4,-19,-24,7,14,-21,0,19,107,-14,4,-14
-24,-19,4,21,-14,-7,4,29,117,-19,9,-14
-39,-19,19,29,-29,0,14,29,122,0,4,-9
-68,-14,53,41,-61,19,19,29,117,-4,-9,-4
-63,-14,48,39,-56,17,29,14,107,-4,-24,-14
-58,-4,53,31,-56,24,19,0,97,-19,-29,-14
-48,4,53,21,-51,29,9,-14,82,-29,-29,-14
-43,0,43,21,-43,21,9,-19,63,-29,-19,-14
-43,4,48,19,-46,26,9,-29,43,-29,-24,-19
-43,0,43,21,-43,21,9,-39,34,-29,-29,-29
-43,0,43,21,-43,21,14,-43,34,-29,-34,-24
-43,4,48,19,-46,26,14,-48,39,-34,-39,-19
-63,-4,58,34,-61,26,29,-39,29,-24,-34,-19
-68,0,68,34,-68,34,34,-39,24,-24,-39,-19
-63,0,63,31,-63,31,29,-39,24,-34,-39,-19
-68,4,73,31,-70,39,34,-34,19,-34,-39,-19
-63,19,82,21,-73,51,39,-43,9,-34,-48,-14
-63,19,82,21,-73,51,43,-48,4,-34,-48,-14
-68,19,87,24,-78,53,48,-48,4,-34,-48,-9
-68,19,87,24,-78,53,53,-58,4,-34,-48,-9
-78,0,78,39,-78,39,43,-53,-4,-39,-53,-9
-87,0,87,43,-87,43,43,-53,-4,-43,-53,-4
-87,0,87,43,-87,43,39,-58,-14,-53,-63,-4
-87,0,87,43,-87,43,34,-63,-24,-58,-68,-4
-107,9,117,48,-112,63,29,-58,-14,-53,-63,4
-112,9,122,51,-117,65,24,-63,-4,-53,-58,4
-112,4,117,53,-114,61,19,-68,-4,-48,-53,4
-117,4,122,56,-119,63,14,-68,-4,-39,-48,9
-112,19,131,46,-122,75,0,-63,-14,-34,-53,24
-107,24,131,41,-119,78,-4,-63,-9,-29,-43,24
-102,34,136,34,-119,85,0,-58,0,-24,-29,29
-87,39,126,24,-107,82,-4,-53,9,-14,-14,34
-78,34,112,21,-95,73,-9,-63,4,-19,-19,43
-78,29,107,24,-92,68,-24,-63,4,-19,-19,43
-82,29,112,26,-97,70,-19,-53,9,-19,-14,43
-82,34,117,24,-100,75,-19,-53,9,-14,-9,53
-82,29,112,26,-97,70,-9,-48,9,-14,-4,43
-78,24,102,26,-90,63,-9,-48,9,-14,0,43
-78,19,97,29,-87,58,-9,-43,14,-4,4,43
-78,24,102,26,-90,63,-14,-43,14,4,9,34
-126,14,141,56,-134,78,14,-14,43,24,29,53
-117,4,122,56,-119,63,24,-14,43,24,9,43
-126,-9,117,68,-122,53,19,-19,39,19,-9,48
-112,4,117,53,-114,61,29,-29,39,19,-9,48
-107,9,117,48,-112,63,29,-29,39,19,-9,48
-102,14,117,43,-109,65,29,-29,39,19,-9,48
-97,19,117,39,-107,68,29,-29,39,19,-9,48
-92,19,112,36,-102,65,29,-29,43,24,-9,58
-87,9,97,39,-92,53,29,-29,43,24,0,53
-87,9,97,39,-92,53,19,-29,48,24,0,43
-87,9,97,39,-92,53,19,-29,53,29,0,43
-97,-9,87,53,-92,39,24,-29,63,29,0,48
-102,-9,92,56,-97,41,24,-24,58,29,-4,39
-102,0,102,51,-102,51,24,-24,58,34,-4,29
-97,0,97,48,-97,48,24,-24,63,39,-4,24
-87,0,87,43,-87,43,19,-19,53,39,-4,34
-92,0,92,46,-92,46,19,-19,53,29,-4,39
-97,-4,92,51,-95,43,19,-9,58,39,-4,43
-102,-9,92,56,-97,41,19,-9,63,39,-4,43
-92,0,92,46,-92,46,29,0,73,48,4,48
-97,-4,92,51,-95,43,34,0,78,48,14,48
-102,9,112,46,-107,61,34,-4,82,53,24,53
-112,14,126,48,-119,70,34,-4,92,53,34,68
-102,4,107,48,-104,56,34,0,82,43,34,63
-82,4,87,39,-85,46,34,-4,78,43,34,58
-58,0,58,29,-58,29,29,-14,68,39,24,53
-48,0,48,24,-48,24,29,-19,53,29,19,48
-68,4,73,31,-70,39,39,-29,48,19,9,48
-73,9,82,31,-78,46,43,-29,48,19,19,53
-63,19,82,21,-73,51,43,-29,48,24,29,63
-82,29,112,26,-97,70,43,-29,48,29,29,82
-82,24,107,29,-95,65,53,-14,58,29,34,82
-82,19,102,31,-92,61,53,-9,58,29,34,78
-87,14,102,36,-95,58,48,-9,58,19,39,78
-87,9,97,39,-92,53,48,-9,53,19,43,78
-97,9,107,43,-102,58,58,-14,43,29,48,63
-102,9,112,46,-107,61,58,-14,48,34,48,68
-97,9,107,43,-102,58,58,-14,48,14,43,63
-97,9,107,43,-102,58,48,-19,48,9,34,48
-92,14,107,39,-100,61,58,-29,48,4,19,39
-87,19,107,34,-97,63,58,-24,43,9,19,39
-82,29,112,26,-97,70,58,-24,39,4,24,39
-87,34,122,26,-104,78,63,-24,39,4,34,39
-97,39,136,29,-117,87,78,-19,48,14,43,48
-92,39,131,26,-112,85,78,-14,43,4,39,39
-92,39,131,26,-112,85,73,-9,43,-4,34,39
-78,39,117,19,-97,78,63,-4,43,-4,34,39
-87,34,122,26,-104,78,68,0,43,9,39,39
-97,29,126,34,-112,78,73,0,43,9,43,34
-112,29,141,41,-126,85,78,0,43,9,43,39
-126,24,151,51,-139,87,87,-4,48,19,43,34
-107,34,141,36,-124,87,82,-14,39,4,39,29
-87,34,122,26,-104,78,73,-9,39,0,34,24
-68,29,97,19,-82,63,68,-9,39,-4,29,14
-43,29,73,7,-58,51,68,-9,34,-4,24,9
-58,34,92,12,-75,63,68,-4,43,0,14,19
-63,39,102,12,-82,70,68,-4,48,0,14,29
-73,43,117,14,-95,80,63,0,48,0,14,39
-82,48,131,17,-107,90,63,0,43,-4,14,53
-82,43,126,19,-104,85,48,0,43,-4,29,63
-82,43,126,19,-104,85,43,0,34,-4,29,63
-82,48,131,17,-107,90,39,0,34,-4,29,63
-82,48,131,17,-107,90,34,0,29,-9,24,58
-92,39,131,26,-112,85,43,-4,29,-19,24,58
-102,39,141,31,-122,90,43,-4,29,-19,24,58
-92,39,131,26,-112,85,43,-4,29,-19,24,48
-87,39,126,24,-107,82,43,-14,24,-19,14,48
-92,34,126,29,-109,80,53,-9,14,-19,4,39
-97,29,126,34,-112,78,53,-4,19,-19,4,39
-107,29,136,39,-122,82,53,9,19,-19,4,43
-112,29,141,41,-126,85,53,14,29,-19,4,43
-107,19,126,43,-117,73,48,0,24,-24,-4,29
-97,19,117,39,-107,68,48,-4,14,-29,-9,29
-78,19,97,29,-87,58,48,-9,4,-34,-9,24
-58,14,73,21,-65,43,48,-19,0,-39,-9,19
-78,0,78,39,-78,39,58,-24,-9,-43,-9,14
-82,0,82,41,-82,41,58,-29,-9,-43,-14,14
-82,0,82,41,-82,41,58,-34,-9,-48,-19,9
-87,0,87,43,-87,43,58,-34,-9,-53,-29,4
-97,-4,92,51,-95,43,58,-43,-4,-58,-29,4
-97,-4,92,51,-95,43,58,-48,-9,-58,-29,0
-97,-9,87,53,-92,39,53,-48,-14,-58,-24,0
-87,-9,78,48,-82,34,53,-48,-19,-58,-24,0
-68,0,68,34,-68,34,53,-48,-29,-68,-34,-9
-68,-4,63,36,-65,29,53,-43,-29,-68,-39,-9
-73,-4,68,39,-70,31,58,-43,-24,-63,-43,-9
-78,-4,73,41,-75,34,58,-39,-24,-63,-43,-9
-68,-9,58,39,-63,24,53,-48,-29,-68,-48,0
-58,-9,48,34,-53,19,53,-48,-24,-68,-53,0
-43,-9,34,26,-39,12,53,-48,-19,-63,-53,0
-34,-9,24,21,-29,7,53,-53,-34,-78,-58,-4
-87,-9,78,48,-82,34,78,-24,-9,-48,-53,0
-112,0,112,56,-112,56,97,-14,24,-19,-53,-19
-141,19,161,61,-151,90,136,58,136,73,-14,-4
-131,4,136,63,-134,70,156,136,283,190,19,4
-87,14,102,36,-95,58,141,209,409,307,48,19
-39,53,92,-7,-65,73,102,219,512,458,107,43
-19,78,97,-29,-58,87,68,204,639,649,204,97
-4,102,107,-48,-56,104,58,204,795,902,331,170
4,107,102,-56,-48,104,53,224,1005,1190,473,244
43,131,87,-87,-21,109,9,273,1254,1542,639,312
126,204,78,-165,24,141,-68,331,1625,2005,863,405
219,283,63,-251,78,173,-136,439,2186,2669,1210,585
312,351,39,-331,136,195,-195,580,2840,3459,1673,824
424,424,0,-424,212,212,-273,707,3401,4074,2166,1083
517,439,-78,-478,297,180,-331,839,3757,4343,2596,1332
556,424,-131,-490,344,146,-375,873,3733,4240,2869,1498
556,405,-151,-480,353,126,-419,663,3186,3786,2908,1532
497,346,-151,-422,324,97,-439,292,2249,3059,2776,1493
439,297,-141,-368,290,78,-448,-185,1049,2074,2479,1390
414,258,-156,-336,285,51,-458,-600,-4,1093,2098,1244
385,204,-180,-295,283,12,-448,-712,-429,468,1751,1107
326,161,-165,-244,246,-2,-390,-614,-488,131,1459,995
273,136,-136,-204,204,0,-370,-551,-595,-102,1215,897
219,97,-122,-158,170,-12,-361,-512,-707,-248,1019,810
170,58,-112,-114,141,-26,-366,-453,-736,-341,858,756
126,19,-107,-73,117,-43,-351,-385,-756,-463,688,683
126,-34,-161,-46,143,-97,-322,-336,-766,-556,536,600
126,-63,-190,-31,158,-126,-302,-307,-751,-590,439,527
102,-68,-170,-17,136,-119,-248,-283,-717,-600,361,483
97,-78,-175,-9,136,-126,-195,-253,-702,-614,258,424
73,-87,-161,7,117,-124,-175,-244,-692,-624,161,351
14,-102,-117,43,65,-109,-146,-219,-649,-590,87,273
-9,-78,-68,43,29,-73,-112,-180,-585,-561,19,195
-9,-58,-48,34,19,-53,-68,-136,-512,-522,-39,126
-34,-48,-14,41,-9,-31,-34,-97,-439,-483,-63,87
-53,-24,29,39,-41,2,-29,-63,-385,-434,-68,63
-53,-9,43,31,-48,17,-34,-34,-341,-400,-82,39
-68,-14,53,41,-61,19,-24,-34,-317,-366,-117,9
-39,29,68,4,-53,48,-14,-43,-292,-331,-122,4
-34,63,97,-14,-65,80,-4,-58,-253,-292,-112,4
-48,63,112,-7,-80,87,19,-48,-209,-258,-102,-14
-68,53,122,7,-95,87,29,-39,-180,-248,-102,-39
-68,24,92,21,-80,58,24,-34,-151,-239,-112,-63
-63,34,97,14,-80,65,24,-43,-136,-229,-107,-63
-112,43,156,34,-134,100,24,-43,-122,-214,-107,-53
-122,39,161,41,-141,100,34,-39,-122,-204,-122,-53
-141,34,175,53,-158,104,39,-39,-122,-204,-131,-63
-151,29,180,61,-165,104,43,-39,-117,-200,-146,-73
-161,19,180,70,-170,100,53,-39,-117,-200,-151,-82
-146,34,180,56,-163,107,73,-53,-117,-209,-151,-87
-136,24,161,56,-148,92,78,-53,-112,-209,-151,-87
-122,19,141,51,-131,80,87,-48,-107,-200,-146,-87
-102,34,136,34,-119,85,87,-48,-107,-200,-141,-87
-107,24,131,41,-119,78,97,-48,-102,-190,-136,-97
-112,19,131,46,-122,75,102,-58,-102,-195,-141,-102
-117,19,136,48,-126,78,102,-58,-112,-195,-151,-107
-122,9,131,56,-126,70,107,-58,-112,-195,-156,-107
-126,4,131,61,-129,68,102,-68,-122,-209,-175,-112
-126,4,131,61,-129,68,102,-63,-122,-214,-180,-122
-126,4,131,61,-129,68,102,-63,-117,-219,-175,-126
-131,4,136,63,-134,70,107,-68,-117,-224,-180,-131
-122,-4,117,63,-119,56,97,-78,-122,-224,-195,-117
-122,-4,117,63,-119,56,97,-78,-122,-224,-204,-117
-112,0,112,56,-112,56,97,-78,-122,-229,-214,-117
-112,0,112,56,-112,56,87,-73,-122,-229,-214,-112
-126,9,136,58,-131,73,107,-68,-122,-229,-209,-112
-136,14,151,61,-143,82,107,-68,-117,-229,-204,-102
-136,19,156,58,-146,87,107,-68,-117,-229,-200,-102
-122,29,151,46,-136,90,107,-68,-117,-229,-195,-102
-122,29,151,46,-136,90,117,-68,-126,-224,-190,-102
-131,24,156,53,-143,90,117,-73,-131,-229,-195,-102
-131,24,156,53,-143,90,112,-78,-131,-234,-200,-102
-131,24,156,53,-143,90,112,-87,-136,-239,-200,-107
-141,9,151,65,-146,80,112,-87,-146,-239,-214,-107
-146,9,156,68,-151,82,112,-87,-151,-239,-219,-107
-146,19,165,63,-156,92,117,-87,-151,-239,-219,-107
-146,19,165,63,-156,92,117,-82,-156,-239,-224,-107
-146,9,156,68,-151,82,107,-92,-165,-244,-214,-107
-151,9,161,70,-156,85,107,-97,-165,-248,-214,-107
-156,4,161,75,-158,82,107,-97,-165,-248,-224,-112
-165,4,170,80,-168,87,107,-97,-165,-248,-224,-117
-175,0,175,87,-175,87,117,-97,-165,-253,-229,-126
-185,0,185,92,-185,92,117,-97,-165,-253,-229,-126
-200,4,204,97,-202,104,117,-97,-165,-258,-239,-126
-219,4,224,107,-222,114,122,-97,-175,-258,-244,-122
-190,-4,185,97,-187,90,122,-102,-185,-273,-248,-126
-170,-9,161,90,-165,75,122,-112,-195,-278,-253,-131
-156,-9,146,82,-151,68,122,-117,-204,-278,-258,-141
-136,-9,126,73,-131,58,126,-122,-204,-283,-268,-156
-126,9,136,58,-131,73,117,-112,-204,-292,-263,-156
-126,19,146,53,-136,82,112,-112,-204,-297,-263,-156
-126,29,156,48,-141,92,107,-112,-209,-297,-273,-151
-122,39,161,41,-141,100,107,-112,-209,-297,-278,-151
-126,14,141,56,-134,78,102,-117,-219,-307,-283,-165
-131,9,141,61,-136,75,102,-117,-224,-317,-287,-165
-136,4,141,65,-139,73,102,-117,-234,-331,-292,-161
-141,4,146,68,-143,75,102,-112,-239,-317,-297,-161
-151,14,165,68,-158,90,97,-112,-248,-322,-297,-161
-151,19,170,65,-161,95,97,-112,-253,-331,-297,-165
-156,24,180,65,-168,102,102,-112,-258,-341,-302,-165
-156,24,180,65,-168,102,102,-112,-263,-346,-307,-170
-165,24,190,70,-178,107,92,-107,-268,-356,-302,-161
-161,24,185,68,-173,104,97,-107,-273,-361,-307,-165
-161,24,185,68,-173,104,97,-107,-278,-370,-317,-165
-161,19,180,70,-170,100,97,-107,-283,-375,-322,-165
-156,9,165,73,-161,87,97,-117,-297,-395,-331,-170
-156,14,170,70,-163,92,97,-117,-307,-395,-326,-175
-161,19,180,70,-170,100,97,-117,-317,-405,-317,-175
-170,19,190,75,-180,104,97,-117,-322,-405,-317,-180
-170,9,180,80,-175,95,117,-102,-331,-405,-322,-180
-165,19,185,73,-175,102,117,-107,-336,-414,-331,-185
-161,19,180,70,-170,100,117,-107,-341,-434,-336,-190
-156,9,165,73,-161,87,117,-107,-346,-453,-346,-195
-151,9,161,70,-156,85,107,-107,-356,-463,-351,-209
-141,9,151,65,-146,80,97,-112,-366,-473,-361,-214
-136,9,146,63,-141,78,97,-117,-380,-492,-370,-224
-126,9,136,58,-131,73,97,-122,-395,-507,-375,-229
-126,9,136,58,-131,73,112,-117,-400,-517,-385,-239
-131,9,141,61,-136,75,112,-112,-405,-527,-385,-224
-131,14,146,58,-139,80,112,-107,-409,-531,-375,-214
-136,14,151,61,-143,82,117,-102,-414,-531,-375,-214
-151,9,161,70,-156,85,131,-92,-419,-536,-380,-209
-156,9,165,73,-161,87,136,-92,-424,-546,-375,-209
-161,14,175,73,-168,95,136,-92,-429,-551,-375,-209
-165,24,190,70,-178,107,131,-92,-434,-566,-375,-209
-165,14,180,75,-173,97,131,-82,-448,-580,-380,-214
-161,14,175,73,-168,95,131,-82,-434,-580,-375,-219
-161,14,175,73,-168,95,131,-73,-429,-580,-375,-204
-161,14,175,73,-168,95,126,-68,-434,-561,-375,-204
-165,0,165,82,-165,82,122,-73,-444,-551,-370,-214
-170,-4,165,87,-168,80,122,-73,-439,-556,-356,-209
-180,-14,165,97,-173,75,131,-63,-429,-561,-341,-190
-190,-19,170,104,-180,75,136,-53,-414,-546,-326,-170
-161,-4,156,82,-158,75,146,-43,-385,-517,-302,-156
-156,4,161,75,-158,82,136,-43,-361,-497,-287,-151
-151,19,170,65,-161,95,136,-43,-336,-483,-278,-151
-146,24,170,61,-158,97,136,-43,-322,-463,-268,-146
-131,19,151,56,-141,85,141,-34,-287,-424,-244,-136
-112,43,156,34,-134,100,136,-19,-268,-380,-224,-126
-102,48,151,26,-126,100,136,-9,-248,-341,-200,-112
-97,53,151,21,-124,102,141,0,-229,-307,-175,-97
-112,39,151,36,-131,95,141,4,-200,-278,-156,-97
-112,34,146,39,-129,90,136,9,-185,-258,-141,-82
-117,24,141,46,-129,82,131,14,-165,-244,-131,-68
-122,19,141,51,-131,80,126,9,-151,-234,-117,-63
-92,19,112,36,-102,65,112,9,-131,-214,-92,-43
-102,19,122,41,-112,70,112,19,-97,-195,-68,-34
-97,19,117,39,-107,68,117,19,-68,-151,-53,-19
-107,24,131,41,-119,78,117,19,-48,-131,-48,-4
-102,19,122,41,-112,70,112,9,-39,-112,-43,4
-87,34,122,26,-104,78,97,0,-39,-117,-39,4
-68,48,117,9,-92,82,82,-9,-43,-117,-29,4
-53,48,102,2,-78,75,78,-9,-53,-107,-9,4
-58,34,92,12,-75,63,87,-9,-43,-87,0,0
-63,29,92,17,-78,61,87,-9,-43,-78,0,-9
-68,29,97,19,-82,63,92,-4,-34,-68,0,-4
-73,34,107,19,-90,70,92,0,-19,-63,0,0
-82,19,102,31,-92,61,102,0,-9,-58,4,9
-87,19,107,34,-97,63,102,0,-14,-53,0,9
-82,14,97,34,-90,56,92,0,-14,-58,0,9
-87,14,102,36,-95,58,92,4,-19,-53,0,9
-68,34,102,17,-85,68,82,-4,-29,-63,-9,-4
-63,39,102,12,-82,70,82,-9,-34,-63,-9,-4
-63,43,107,9,-85,75,82,-9,-34,-63,-9,0
-58,48,107,4,-82,78,82,-19,-34,-63,-9,0
-63,29,92,17,-78,61,63,-19,-34,-63,-14,-4
-68,39,107,14,-87,73,63,-14,-34,-63,-14,-4
-63,48,112,7,-87,80,58,-14,-43,-68,-24,-9
-58,58,117,0,-87,87,53,-14,-53,-68,-29,-14
-58,53,112,2,-85,82,48,-19,-63,-78,-29,-24
-63,48,112,7,-87,80,43,-24,-53,-82,-29,-24
-63,39,102,12,-82,70,39,-29,-53,-82,-29,-24
-68,34,102,17,-85,68,34,-29,-53,-78,-29,-19
-58,39,97,9,-78,68,19,-39,-78,-87,-43,-29
-48,43,92,2,-70,68,14,-43,-78,-87,-43,-34
-39,53,92,-7,-65,73,19,-43,-73,-87,-39,-34
-19,58,78,-19,-48,68,14,-43,-68,-82,-34,-34
-29,43,73,-7,-51,58,14,-43,-63,-68,-39,-39
-39,39,78,0,-58,58,4,-43,-63,-68,-39,-43
-53,39,92,7,-73,65,14,-34,-58,-68,-34,-48
-63,43,107,9,-85,75,19,-34,-58,-63,-29,-43
-73,53,126,9,-100,90,24,-39,-58,-63,-29,-43
-68,53,122,7,-95,87,29,-39,-58,-63,-29,-43
-68,53,122,7,-95,87,34,-34,-53,-53,-29,-43
-68,63,131,2,-100,97,34,-34,-53,-43,-29,-53
-78,68,146,4,-112,107,39,-24,-43,-34,-19,-43
-78,63,141,7,-109,102,43,-24,-43,-34,-29,-34
-78,53,131,12,-104,92,48,-24,-43,-39,-29,-39
-78,48,126,14,-102,87,58,-24,-43,-39,-24,-29
-68,53,122,7,-95,87,63,-34,-43,-48,-29,-19
-63,48,112,7,-87,80,58,-34,-48,-43,-29,-19
-73,48,122,12,-97,85,48,-39,-53,-43,-29,-19
-68,53,122,7,-95,87,34,-39,-53,-43,-29,-14
-63,68,131,-2,-97,100,39,-24,-34,-34,-14,-14
-63,73,136,-4,-100,104,43,-19,-43,-34,-14,-14
-63,73,136,-4,-100,104,39,-19,-43,-34,-19,-19
-58,53,112,2,-85,82,43,-24,-43,-34,-24,-24
-58,58,117,0,-87,87,43,-24,-43,-34,-14,-14
-68,68,136,0,-102,102,48,-24,-39,-24,-14,-14
-73,73,146,0,-109,109,48,-29,-39,-24,-9,-9
-73,78,151,-2,-112,114,43,-29,-39,-24,-9,-9
-87,73,161,7,-124,117,43,-19,-34,-19,0,-19
-87,73,161,7,-124,117,48,-19,-24,-14,0,-14
-82,68,151,7,-117,109,53,-9,-19,-4,0,-14
-78,53,131,12,-104,92,63,-9,-4,0,0,-14
-63,78,141,-7,-102,109,53,-29,-4,0,-19,-19
-68,78,146,-4,-107,112,58,-19,0,0,-9,-9
-78,73,151,2,-114,112,63,-29,0,9,-9,-4
-78,68,146,4,-112,107,68,-29,0,9,-9,0
-78,63,141,7,-109,102,73,-29,0,9,-9,4
-78,58,136,9,-107,97,78,-29,0,9,-9,9
-78,53,131,12,-104,92,87,-39,-9,9,-19,4
-78,39,117,19,-97,78,87,-39,-14,4,-19,-4
-82,34,117,24,-100,75,78,-39,-14,0,-29,-19
-87,29,117,29,-102,73,78,-39,-14,0,-39,-24
-78,9,87,34,-82,48,73,-43,-24,-4,-43,-24
-82,9,92,36,-87,51,73,-43,-29,-9,-53,-29
-82,19,102,31,-92,61,73,-48,-29,-9,-58,-34
-78,19,97,29,-87,58,73,-53,-24,-9,-63,-34
-48,24,73,12,-61,48,78,-48,-14,-9,-53,-39
-43,29,73,7,-58,51,78,-48,-14,-19,-53,-39
-39,29,68,4,-53,48,78,-39,-9,-9,-53,-39
-34,29,63,2,-48,46,78,-39,-4,-9,-53,-43
-48,24,73,12,-61,48,87,-29,-14,0,-48,-53
-58,14,73,21,-65,43,92,-29,-9,0,-43,-58
-68,24,92,21,-80,58,92,-34,-4,4,-39,-58
-82,24,107,29,-95,65,92,-34,4,4,-34,-48
-92,14,107,39,-100,61,97,-14,14,9,-24,-39
-82,14,97,34,-90,56,102,-14,19,14,-24,-39
-68,9,78,29,-73,43,102,-19,19,14,-34,-39
-68,9,78,29,-73,43,107,-19,14,9,-39,-39
-92,19,112,36,-102,65,112,-4,19,24,-29,-34
-102,19,122,41,-112,70,122,0,29,29,-9,-24
-97,24,122,36,-109,73,126,4,39,39,9,-9
-122,29,151,46,-136,90,131,9,48,48,19,14
-107,34,141,36,-124,87,126,0,43,43,9,9
-102,39,141,31,-122,90,122,0,39,39,4,0
-102,43,146,29,-124,95,112,-4,34,24,4,-4
-97,48,146,24,-122,97,107,-9,24,19,4,-9
-87,58,146,14,-117,102,102,-4,14,29,14,-14
-82,58,141,12,-112,100,97,-4,19,34,19,-9
-68,58,126,4,-97,92,92,-4,19,14,19,-14
-58,58,117,0,-87,87,78,-9,19,9,14,-29
-68,48,117,9,-92,82,68,0,24,0,9,-43
-68,48,117,9,-92,82,68,4,24,9,9,-48
-68,53,122,7,-95,87,68,4,24,9,14,-53
-78,53,131,12,-104,92,73,4,29,14,24,-58
-68,63,131,2,-100,97,73,-9,24,14,19,-58
-63,68,131,-2,-97,100,68,-14,14,4,9,-68
-63,73,136,-4,-100,104,58,-19,9,-4,0,-68
-48,78,126,-14,-87,102,43,-24,4,-4,-4,-68
-63,68,131,-2,-97,100,34,-39,0,-9,-4,-58
-68,58,126,4,-97,92,34,-39,-4,-9,-4,-53
-78,53,131,12,-104,92,34,-39,-9,-9,-9,-39
-87,43,131,21,-109,87,39,-43,-9,0,-14,-34
-78,43,122,17,-100,82,29,-34,-9,-14,-14,-43
-78,43,122,17,-100,82,24,-29,-9,-19,-14,-43
-78,39,117,19,-97,78,24,-29,-9,-24,-14,-48
-73,39,112,17,-92,75,29,-29,-14,-24,-14,-48
-68,43,112,12,-90,78,43,-19,0,-4,-9,-43
-63,48,112,7,-87,80,48,-14,9,0,-4,-39
-63,53,117,4,-90,85,48,-4,14,4,0,-34
-63,58,122,2,-92,90,53,0,14,4,4,-24
-48,43,92,2,-70,68,48,-4,4,0,4,-24
-43,43,87,0,-65,65,43,-9,-4,-4,0,-24
-39,48,87,-4,-63,68,39,-14,-4,-9,-4,-24
-34,48,82,-7,-58,65,34,-19,-9,-19,-14,-29
-34,43,78,-4,-56,61,43,-14,0,-9,-9,-39
-43,39,82,2,-63,61,43,-14,0,-9,-4,-39
-34,34,68,0,-51,51,43,-14,0,-9,0,-48
-29,29,58,0,-43,43,43,-24,-4,-9,-4,-48
-48,29,78,9,-63,53,58,-19,4,0,-19,-43
-58,29,87,14,-73,58,63,-14,9,0,-24,-39
-73,34,107,19,-90,70,68,0,9,0,-29,-29
-82,39,122,21,-102,80,73,4,19,0,-34,-24
-87,34,122,26,-104,78,68,-4,14,-9,-48,-14
-87,29,117,29,-102,73,68,-4,4,-9,-58,-9
-78,24,102,26,-90,63,68,-4,-4,-9,-63,-9
-68,14,82,26,-75,48,68,-9,-9,-9,-68,-9
-78,19,97,29,-87,58,78,-9,-9,-14,-68,-14
-82,19,102,31,-92,61,78,-9,-9,-14,-73,-14
-82,19,102,31,-92,61,78,-9,-9,-19,-78,-19
-87,19,107,34,-97,63,78,-4,-9,-24,-87,-24
-82,19,102,31,-92,61,87,-4,-9,-29,-92,-14
-78,24,102,26,-90,63,87,-9,-9,-29,-97,-19
-73,24,97,24,-85,61,82,-9,-9,-29,-97,-19
-58,29,87,14,-73,58,82,-9,-9,-29,-102,-19
-53,14,68,19,-61,41,73,-19,-9,-39,-107,-29
-58,4,63,26,-61,34,73,-14,-9,-39,-107,-29
-68,0,68,34,-68,34,78,-14,-4,-34,-107,-29
-78,-4,73,41,-75,34,78,-9,-4,-34,-102,-29
-68,9,78,29,-73,43,82,-19,-9,-43,-107,-39
-58,19,78,19,-68,48,82,-19,-4,-39,-112,-48
-43,29,73,7,-58,51,82,-19,0,-29,-112,-58
-34,39,73,-2,-53,56,82,-24,-14,-39,-117,-73
-87,39,126,24,-107,82,117,-4,9,-9,-122,-58
-122,29,151,46,-136,90,136,14,24,0,-122,-48
-112,29,141,41,-126,85,146,39,68,34,-131,-53
-112,34,146,39,-129,90,156,87,165,102,-107,-53
-97,53,151,21,-124,102,161,151,292,200,-78,-48
-87,63,151,12,-119,107,151,219,424,331,-19,-24
-78,78,156,0,-117,117,126,263,551,512,68,19
-43,122,165,-39,-104,143,107,263,688,727,165,82
4,156,151,-80,-73,153,92,244,849,976,268,146
34,170,136,-102,-51,153,58,244,1049,1268,395,204
87,195,107,-141,-9,151,9,283,1322,1625,551,287
161,234,73,-197,43,153,-48,370,1737,2122,810,409
224,312,87,-268,68,200,-107,492,2332,2806,1195,590
307,405,97,-356,104,251,-195,629,2981,3577,1668,810
390,429,39,-409,175,234,-273,780,3542,4167,2147,1068
488,444,-43,-466,265,200,-326,912,3840,4367,2557,1293
536,434,-102,-485,319,165,-361,888,3703,4177,2771,1424
536,395,-141,-466,339,126,-400,624,3050,3655,2747,1434
527,356,-170,-441,348,92,-439,185,2015,2845,2547,1371
483,307,-175,-395,329,65,-458,-317,766,1815,2215,1244
414,244,-170,-329,292,36,-468,-663,-165,888,1849,1117
385,200,-185,-292,285,7,-448,-702,-478,336,1517,985
331,107,-224,-219,278,-58,-400,-600,-546,24,1244,888
239,48,-190,-143,214,-70,-361,-551,-658,-161,1039,819
200,78,-122,-139,161,-21,-375,-522,-746,-283,868,746
214,58,-156,-136,185,-48,-370,-463,-766,-385,727,683
214,-4,-219,-104,217,-112,-331,-375,-766,-478,566,629
185,-14,-200,-85,192,-107,-302,-307,-771,-551,429,556
131,-39,-170,-46,151,-104,-278,-283,-746,-580,331,483
78,-58,-136,-9,107,-97,-224,-263,-732,-614,239,414
53,-68,-122,7,87,-95,-185,-244,-712,-624,141,351
14,-82,-97,34,56,-90,-136,-209,-668,-600,78,302
-19,-78,-58,48,19,-68,-82,-180,-614,-551,19,244
-58,-78,-19,68,-19,-48,-29,-136,-531,-502,-48,165
-63,-58,4,61,-34,-26,4,-117,-478,-463,-112,107
-43,-14,29,29,-36,7,9,-82,-414,-424,-146,73
-53,9,63,21,-58,36,-4,-43,-370,-400,-161,48
-68,24,92,21,-80,58,-4,-34,-336,-385,-195,0
-68,39,107,14,-87,73,-4,-43,-331,-370,-219,-34
-82,14,97,34,-90,56,14,-48,-302,-331,-200,-24
-107,14,122,46,-114,68,29,-58,-258,-287,-180,-24
-126,43,170,41,-148,107,29,-58,-209,-248,-190,-39
-146,43,190,51,-168,117,53,-43,-170,-219,-190,-43
-141,24,165,58,-153,95,53,-53,-146,-209,-185,-43
-122,14,136,53,-129,75,53,-63,-151,-214,-204,-53
-107,19,126,43,-117,73,34,-73,-161,-224,-224,-78
-112,24,136,43,-124,80,29,-78,-170,-234,-239,-92
-107,29,136,39,-122,82,24,-82,-175,-239,-258,-107
-102,29,131,36,-117,80,24,-87,-185,-248,-268,-122
-97,29,126,34,-112,78,43,-82,-170,-234,-268,-131
-97,14,112,41,-104,63,48,-82,-161,-229,-268,-136
-92,4,97,43,-95,51,58,-78,-151,-214,-263,-141
-82,14,97,34,-90,56,58,-78,-146,-209,-258,-146
-107,24,131,41,-119,78,73,-73,-136,-200,-253,-146
-122,19,141,51,-131,80,82,-78,-131,-204,-258,-151
-136,19,156,58,-146,87,87,-73,-136,-204,-268,-156
-151,9,161,70,-156,85,97,-68,-131,-204,-273,-156
-161,-4,156,82,-158,75,92,-78,-131,-204,-287,-151
-156,-4,151,80,-153,73,92,-73,-131,-204,-287,-151
-151,-4,146,78,-148,70,92,-73,-126,-204,-278,-146
-151,-4,146,78,-148,70,97,-78,-126,-204,-278,-141
-161,-4,156,82,-158,75,97,-87,-122,-204,-278,-136
-161,-4,156,82,-158,75,97,-87,-122,-204,-283,-136
-151,0,151,75,-151,75,97,-87,-122,-209,-287,-136
-151,0,151,75,-151,75,87,-82,-122,-209,-283,-131
-165,-14,151,90,-158,68,107,-68,-122,-200,-283,-136
-175,-14,161,95,-168,73,107,-68,-117,-200,-283,-131
-175,-14,161,95,-168,73,107,-68,-117,-200,-283,-136
-161,-9,151,85,-156,70,107,-68,-117,-200,-283,-141
-141,4,146,68,-143,75,107,-63,-117,-204,-287,-151
-141,4,146,68,-143,75,107,-63,-122,-209,-292,-151
-131,9,141,61,-136,75,102,-63,-122,-214,-297,-151
-122,14,136,53,-129,75,102,-68,-126,-219,-297,-156
-122,0,122,61,-122,61,102,-78,-126,-219,-312,-165
-117,0,117,58,-117,58,102,-78,-131,-219,-317,-165
-107,9,117,48,-112,63,107,-78,-131,-219,-317,-165
-97,9,107,43,-102,58,107,-73,-136,-219,-322,-165
-102,0,102,51,-102,51,97,-73,-146,-234,-312,-165
-112,0,112,56,-112,56,97,-78,-146,-239,-312,-165
-122,-4,117,63,-119,56,97,-78,-146,-239,-322,-170
-136,-4,131,70,-134,63,97,-78,-146,-239,-322,-175
-141,-9,131,75,-136,61,107,-73,-141,-219,-322,-165
-156,-9,146,82,-151,68,117,-68,-136,-214,-317,-165
-175,-4,170,90,-173,82,126,-63,-131,-214,-322,-165
-200,-4,195,102,-197,95,141,-58,-136,-209,-322,-161
-185,-4,180,95,-183,87,146,-48,-126,-219,-331,-151
-180,-9,170,95,-175,80,141,-53,-136,-229,-331,-151
-180,-9,170,95,-175,80,136,-53,-146,-234,-331,-156
-175,-9,165,92,-170,78,136,-53,-146,-244,-336,-165
-165,-9,156,87,-161,73,146,-53,-126,-234,-336,-156
-165,-9,156,87,-161,73,141,-53,-126,-239,-331,-156
-165,-9,156,87,-161,73,136,-53,-131,-239,-336,-151
-161,-9,151,85,-156,70,136,-53,-131,-239,-336,-151
-156,-14,141,85,-148,63,141,-68,-141,-248,-341,-161
-151,-9,141,80,-146,65,141,-68,-146,-258,-346,-165
-146,-4,141,75,-143,68,141,-68,-156,-273,-351,-165
-141,4,146,68,-143,75,141,-63,-161,-258,-356,-170
-141,-4,136,73,-139,65,136,-73,-165,-268,-366,-175
-141,-9,131,75,-136,61,136,-73,-165,-273,-366,-185
-146,-14,131,80,-139,58,141,-73,-165,-278,-370,-190
-146,-24,122,85,-134,48,141,-73,-165,-278,-375,-200
-136,-24,112,80,-124,43,151,-68,-175,-287,-380,-209
-131,-24,107,78,-119,41,156,-68,-175,-292,-385,-214
-131,-24,107,78,-119,41,156,-68,-175,-302,-395,-214
-131,-29,102,80,-117,36,156,-68,-175,-307,-400,-214
-112,-24,87,68,-100,31,156,-58,-175,-302,-400,-224
-97,-14,82,56,-90,34,156,-58,-180,-297,-395,-224
-87,-4,82,46,-85,39,156,-58,-185,-302,-385,-219
-82,0,82,41,-82,41,156,-58,-185,-297,-385,-219
-112,0,112,56,-112,56,180,-39,-175,-287,-380,-204
-126,9,136,58,-131,73,185,-39,-170,-287,-380,-204
-141,9,151,65,-146,80,190,-34,-165,-297,-375,-204
-156,0,156,78,-156,78,195,-29,-161,-307,-375,-204
-165,-9,156,87,-161,73,185,-4,-156,-297,-366,-190
-161,-9,151,85,-156,70,175,-4,-151,-297,-370,-185
-161,-9,151,85,-156,70,175,-4,-151,-307,-375,-185
-156,-9,146,82,-151,68,175,-4,-151,-312,-375,-180
-146,-9,136,78,-141,63,170,0,-151,-326,-370,-190
-141,-9,131,75,-136,61,161,4,-151,-331,-366,-175
-131,-4,126,68,-129,61,151,9,-151,-331,-351,-165
-126,-4,122,65,-124,58,146,14,-151,-326,-346,-165
-126,-4,122,65,-124,58,141,24,-141,-317,-331,-161
-126,-9,117,68,-122,53,136,24,-141,-322,-326,-161
-126,-9,117,68,-122,53,126,24,-141,-322,-326,-161
-126,-4,122,65,-124,58,112,24,-141,-331,-326,-161
-117,-19,97,68,-107,39,97,14,-146,-346,-322,-165
-112,-24,87,68,-100,31,92,14,-131,-346,-317,-170
-112,-29,82,70,-97,26,87,24,-126,-346,-317,-156
-112,-34,78,73,-95,21,78,29,-131,-326,-317,-156
-97,-39,58,68,-78,9,78,29,-141,-312,-302,-165
-92,-43,48,68,-70,2,82,24,-136,-312,-287,-170
-92,-53,39,73,-65,-7,97,29,-126,-312,-273,-161
-92,-58,34,75,-63,-12,107,34,-112,-292,-258,-151
-63,-39,24,51,-43,-7,112,43,-82,-273,-234,-136
-48,-14,34,31,-41,9,107,43,-58,-253,-219,-131
-34,14,48,9,-41,31,112,43,-34,-239,-209,-131
-19,34,53,-7,-36,43,117,43,-19,-219,-200,-126
-34,19,53,7,-43,36,126,48,4,-190,-175,-117
-34,34,68,0,-51,51,117,58,24,-146,-156,-107
-43,29,73,7,-58,51,112,63,43,-107,-131,-92
-58,24,82,17,-70,53,112,68,63,-73,-107,-78
-63,24,87,19,-75,56,112,78,82,-53,-92,-73
-63,24,87,19,-75,56,107,78,87,-43,-82,-53
-68,19,87,24,-78,53,102,78,97,-39,-78,-34
-73,19,92,26,-82,56,97,68,102,-39,-68,-24
-43,9,53,17,-48,31,82,58,92,-29,-48,-4
-53,9,63,21,-58,36,82,68,107,-29,-29,4
-48,9,58,19,-53,34,87,68,117,-4,-19,19
-58,14,73,21,-65,43,87,68,117,-4,-19,34
-78,4,82,36,-80,43,92,68,107,9,-9,43
-78,14,92,31,-85,53,87,58,107,0,-9,43
-73,24,97,24,-85,61,82,48,102,-4,-4,43
-73,19,92,26,-82,56,87,48,92,0,9,43
-87,4,92,41,-90,48,97,43,68,-4,-4,43
-92,0,92,46,-92,46,97,39,53,0,-9,29
-97,0,97,48,-97,48,102,39,48,4,-14,29
-102,4,107,48,-104,56,102,39,48,4,-19,29
-107,0,107,53,-107,53,112,24,43,0,-24,29
-107,0,107,53,-107,53,112,19,34,-4,-29,29
-97,-4,92,51,-95,43,102,14,29,-19,-29,29
-97,-4,92,51,-95,43,102,14,19,-24,-29,29
-92,-9,82,51,-87,36,102,9,0,-29,-43,14
-92,-9,82,51,-87,36,102,0,-14,-34,-48,14
-97,-9,87,53,-92,39,102,-4,-24,-39,-53,19
-97,-9,87,53,-92,39,102,-19,-34,-43,-58,19
-87,-19,68,53,-78,24,97,-14,-24,-53,-53,14
-87,-9,78,48,-82,34,102,-14,-24,-53,-53,14
-78,0,78,39,-78,39,102,-19,-34,-58,-63,9
-68,9,78,29,-73,43,102,-24,-43,-58,-68,4
-73,4,78,34,-75,41,112,-24,-53,-48,-68,-4
-73,0,73,36,-73,36,112,-24,-43,-53,-68,-4
-68,-9,58,39,-63,24,112,-24,-43,-53,-68,-4
-68,-14,53,41,-61,19,112,-19,-43,-48,-68,0
-73,0,73,36,-73,36,107,-19,-48,-58,-73,-14
-78,4,82,36,-80,43,102,-24,-48,-58,-73,-24
-82,14,97,34,-90,56,107,-24,-43,-58,-68,-29
-78,19,97,29,-87,58,102,-24,-39,-53,-63,-34
-68,29,97,19,-82,63,102,-29,-39,-58,-63,-39
-68,29,97,19,-82,63,92,-34,-43,-58,-68,-43
-73,34,107,19,-90,70,102,-29,-43,-58,-68,-48
-73,43,117,14,-95,80,107,-34,-48,-53,-68,-43
-63,34,97,14,-80,65,117,-19,-43,-43,-58,-43
-58,34,92,12,-75,63,117,-19,-39,-43,-58,-43
-58,34,92,12,-75,63,117,-14,-29,-34,-58,-43
-58,43,102,7,-80,73,112,-14,-24,-24,-58,-53
-63,58,122,2,-92,90,102,-4,-14,-14,-53,-39
-68,63,131,2,-100,97,102,-4,-14,-14,-58,-24
-73,63,136,4,-104,100,102,-4,-14,-19,-53,-24
-78,68,146,4,-112,107,107,-4,-14,-19,-43,-9
-68,48,117,9,-92,82,107,-4,-19,-24,-39,-9
-63,39,102,12,-82,70,97,-4,-19,-24,-39,-9
-73,34,107,19,-90,70,82,-9,-19,-29,-39,-9
-68,34,102,17,-85,68,63,-9,-14,-34,-39,-4
-63,34,97,14,-80,65,63,-14,-14,-19,-24,-9
-63,34,97,14,-80,65,63,-9,-24,-14,-24,-14
-63,29,92,17,-78,61,53,-9,-24,-9,-29,-24
-58,4,63,26,-61,34,53,-14,-24,-4,-34,-34
-58,14,73,21,-65,43,63,-9,-19,4,-39,-34
-68,29,97,19,-82,63,68,-4,-9,14,-43,-34
-73,39,112,17,-92,75,68,-4,-4,14,-43,-29
-73,48,122,12,-97,85,63,0,0,14,-48,-29
-78,39,117,19,-97,78,58,9,-9,9,-39,-14
-78,34,112,21,-95,73,58,9,-4,4,-39,-4
-73,24,97,24,-85,61,58,19,-4,4,-39,0
-68,4,73,31,-70,39,63,19,4,0,-39,4
-63,9,73,26,-68,41,68,14,4,4,-24,-9
-63,9,73,26,-68,41,78,19,4,9,-19,-14
-53,4,58,24,-56,31,82,24,14,24,-14,-19
-48,4,53,21,-51,29,87,24,14,34,-14,-19
-53,14,68,19,-61,41,92,39,24,48,-29,-19
-63,24,87,19,-75,56,112,43,24,58,-34,-9
-68,39,107,14,-87,73,107,48,29,58,-39,-9
-73,48,122,12,-97,85,112,53,29,48,-43,-9
-68,39,107,14,-87,73,112,43,24,43,-43,-19
-58,39,97,9,-78,68,107,43,19,39,-48,-19
-43,39,82,2,-63,61,107,39,4,29,-48,-24
-39,39,78,0,-58,58,107,39,0,24,-48,-24
-63,19,82,21,-73,51,122,48,19,29,-29,-24
-82,9,92,36,-87,51,126,53,24,34,-24,-24
-92,4,97,43,-95,51,126,58,24,39,-24,-24
-97,0,97,48,-97,48,126,63,34,43,-24,-24
-112,4,117,53,-114,61,136,53,24,48,-29,-19
-112,24,136,43,-124,80,136,48,14,48,-39,-19
-112,29,141,41,-126,85,136,48,14,53,-29,-19
-117,34,151,41,-134,92,136,58,19,63,-29,-9
-102,24,126,39,-114,75,131,53,19,58,-29,-14
-107,24,131,41,-119,78,136,48,14,53,-34,-34
-102,39,141,31,-122,90,136,43,14,48,-39,-39
-92,39,131,26,-112,85,136,39,14,48,-43,-43
-73,0,73,36,-73,36,136,48,14,58,-29,-14
-34,29,63,2,-48,46,126,34,4,29,-39,-14
-48,29,78,9,-63,53,141,34,9,9,-29,0
-73,9,82,31,-78,46,141,43,29,24,-9,14
-87,0,87,43,-87,43,146,48,19,29,0,0
-102,-9,92,56,-97,41,141,39,19,34,-9,-19
-107,-9,97,58,-102,43,136,39,19,39,-9,-29
-112,-9,102,61,-107,46,131,39,19,43,-9,-39
-117,-9,107,63,-112,48,126,39,19,48,-9,-48
-107,0,107,53,-107,53,126,29,9,43,-19,-58
-107,9,117,48,-112,63,126,29,9,39,-19,-58
-107,19,126,43,-117,73,126,29,9,34,-19,-58
-107,29,136,39,-122,82,126,29,9,29,-19,-58
-92,24,117,34,-104,70,126,29,9,19,-9,-43
-87,19,107,34,-97,63,126,29,9,19,-9,-39
-82,14,97,34,-90,56,126,29,9,19,-9,-34
-78,9,87,34,-82,48,126,29,9,19,-9,-29
-87,9,97,39,-92,53,117,24,4,14,-19,-39
-87,9,97,39,-92,53,117,19,0,9,-19,-39
-87,9,97,39,-92,53,117,14,-4,4,-19,-39
-87,9,97,39,-92,53,117,9,-9,0,-19,-39
-73,14,87,29,-80,51,117,19,-19,-9,-29,-43
-68,19,87,24,-78,53,117,19,-19,-9,-29,-48
-63,24,87,19,-75,56,117,19,-19,-9,-29,-53
-58,29,87,14,-73,58,117,19,-19,-9,-29,-58
-63,24,87,19,-75,56,107,24,-14,-4,-24,-53
-68,19,87,24,-78,53,107,29,-9,0,-19,-48
-73,14,87,29,-80,51,107,34,-4,4,-14,-43
-78,9,87,34,-82,48,107,39,0,9,-9,-39
-92,19,112,36,-102,65,87,39,9,19,-9,-39
-97,19,117,39,-107,68,78,39,9,19,-9,-39
-97,19,117,39,-107,68,68,39,9,24,-9,-39
-97,9,107,43,-102,58,58,39,4,24,0,-43
-87,14,102,36,-95,58,48,29,-4,14,-4,-53
-78,19,97,29,-87,58,48,29,-4,19,-9,-53
-68,14,82,26,-75,48,53,29,-4,19,-14,-39
-63,19,82,21,-73,51,53,34,-9,19,-24,-39
-68,19,87,24,-78,53,58,39,-9,14,-14,-29
-68,19,87,24,-78,53,63,43,-4,19,-14,-24
-58,24,82,17,-70,53,63,43,-4,19,-14,-24
-63,29,92,17,-78,61,68,48,-4,9,-14,-19
-48,24,73,12,-61,48,58,53,-4,9,-24,-24
-43,19,63,12,-53,41,58,48,-4,9,-24,-24
-39,9,48,14,-43,29,58,43,-9,9,-19,-34
-39,-4,34,21,-36,14,63,39,-9,9,-14,-39
-34,0,34,17,-34,17,63,39,-9,14,-14,-39
-43,-4,39,24,-41,17,63,43,-4,14,-14,-29
-43,-9,34,26,-39,12,63,58,-4,14,-19,-19
-34,-14,19,24,-26,2,63,63,-9,14,-24,-19
-34,-4,29,19,-31,12,78,68,0,14,-24,-19
-48,0,48,24,-48,24,87,68,-4,9,-29,-19
-78,4,82,36,-80,43,97,68,-4,14,-29,-29
-92,9,102,41,-97,56,112,68,0,19,-19,-34
-73,24,97,24,-85,61,102,68,0,19,-19,-34
-82,29,112,26,-97,70,102,68,0,19,-19,-24
-78,29,107,24,-92,68,102,73,9,24,-29,-24
-73,29,102,21,-87,65,102,78,9,19,-34,-29
-87,9,97,39,-92,53,92,63,4,0,-24,-29
-87,0,87,43,-87,43,87,58,-4,0,-24,-29
-82,-9,73,46,-78,31,82,58,-9,14,-14,-29
-82,-19,63,51,-73,21,78,53,-9,24,-9,-19
-82,-29,53,56,-68,12,87,53,-9,0,-19,-29
-78,-29,48,53,-63,9,78,48,-9,0,-24,-39
-78,-29,48,53,-63,9,78,48,-4,0,-29,-39
-78,-29,48,53,-63,9,78,53,-4,9,-29,-39
-63,-9,53,36,-58,21,87,53,-9,0,-34,-29
-68,-4,63,36,-65,29,92,53,-9,4,-24,-29
-63,4,68,29,-65,36,97,53,-14,14,-24,-19
-53,9,63,21,-58,36,97,53,-24,4,-29,-29
-58,0,58,29,-58,29,102,53,-24,-4,-39,-34
-48,0,48,24,-48,24,92,53,-24,-4,-43,-39
-53,0,53,26,-53,26,92,48,-24,0,-43,-39
-58,0,58,29,-58,29,92,48,-24,0,-43,-43
-68,4,73,31,-70,39,92,43,-29,-4,-43,-43
-78,4,82,36,-80,43,97,34,-29,0,-43,-43
-82,4,87,39,-85,46,97,29,-34,-14,-43,-43
-87,4,92,41,-90,48,92,29,-39,-19,-43,-43
-78,-14,63,46,-70,24,102,29,-39,-19,-53,-58
-73,-19,53,46,-63,17,107,29,-43,-14,-53,-58
-73,-24,48,48,-61,12,107,29,-43,-9,-53,-58
-73,-29,43,51,-58,7,107,24,-39,-9,-53,-58
-68,-29,39,48,-53,4,92,24,-39,-9,-53,-58
-73,-29,43,51,-58,7,92,19,-43,-14,-53,-53
-73,-34,39,53,-56,2,92,19,-43,-14,-48,-53
-73,-34,39,53,-56,2,92,19,-53,-14,-48,-53
-82,-19,63,51,-73,21,92,29,-43,-14,-39,-63
-82,-19,63,51,-73,21,92,29,-48,-19,-43,-68
-82,-19,63,51,-73,21,92,24,-48,-19,-43,-68
-92,-19,73,56,-82,26,92,24,-48,-19,-43,-68
-82,-29,53,56,-68,12,92,24,-39,-9,-43,-78
-78,-29,48,53,-63,9,92,14,-43,-9,-53,-78
-78,-29,48,53,-63,9,92,14,-43,-9,-53,-78
-78,-29,48,53,-63,9,92,14,-39,-9,-53,-78
-73,-14,58,43,-65,21,102,39,-34,0,-48,-53
-73,-9,63,41,-68,26,102,43,-19,9,-43,-43
-78,-9,68,43,-73,29,107,48,-14,19,-43,-34
-78,-9,68,43,-73,29,107,53,-14,29,-39,-19
-58,4,63,26,-61,34,92,63,-4,19,-29,-9
-48,4,53,21,-51,29,87,58,0,19,-19,-9
-58,4,63,26,-61,34,82,58,4,19,-9,-9
-63,9,73,26,-68,41,78,58,9,24,-4,-4
-58,19,78,19,-68,48,68,53,-4,24,-14,-24
-58,19,78,19,-68,48,58,53,-9,24,-19,-34
-53,19,73,17,-63,46,48,48,-4,29,-19,-43
-48,24,73,12,-61,48,39,39,-9,29,-19,-58
-53,9,63,21,-58,36,48,48,-19,14,-14,-48
-48,0,48,24,-48,24,53,48,-19,9,-14,-39
-43,-14,29,29,-36,7,58,48,-19,4,-19,-29
-48,-34,14,41,-31,-9,63,53,-19,0,-19,-19
-43,-34,9,39,-26,-12,63,39,-19,4,-29,-29
-48,-34,14,41,-31,-9,58,39,-24,4,-24,-29
-48,-29,19,39,-34,-4,48,34,-29,4,-24,-29
-48,-29,19,39,-34,-4,43,29,-24,9,-24,-29
-63,-48,14,56,-39,-17,73,58,4,68,9,-9
-53,-29,24,41,-39,-2,63,53,-4,48,-9,-24
-29,0,29,14,-29,14,58,34,-19,0,-34,-48
-43,9,53,17,-48,31,87,43,-4,29,-34,-58
-53,-19,34,36,-43,7,117,78,58,92,-24,-43
-43,-24,19,34,-31,-2,126,126,156,180,0,-34
-29,-14,14,21,-21,0,131,200,273,287,29,-39
0,14,14,-7,-7,14,122,248,395,400,78,-34
19,48,29,-34,-4,39,97,273,531,600,165,9
-4,82,87,-39,-46,85,87,273,688,863,302,73
14,107,92,-61,-39,100,63,253,868,1122,444,156
73,112,39,-92,17,75,29,273,1098,1454,610,253
136,136,0,-136,68,68,0,351,1439,1927,854,385
209,165,-43,-187,126,61,-39,468,1932,2552,1210,566
302,234,-68,-268,185,82,-146,590,2547,3303,1654,795
424,336,-87,-380,256,124,-263,697,3128,3938,2147,1024
536,351,-185,-444,361,82,-322,829,3523,4196,2615,1254
614,307,-307,-461,461,0,-346,932,3674,4084,2957,1439
663,317,-346,-490,505,-14,-400,868,3420,3718,3074,1522
634,287,-346,-461,490,-29,-439,595,2708,3118,2971,1503
556,239,-317,-397,436,-39,-458,175,1664,2278,2713,1429
473,248,-224,-361,348,12,-478,-336,414,1268,2322,1312
385,214,-170,-300,278,21,-458,-683,-468,468,1898,1156
336,151,-185,-244,261,-17,-419,-722,-683,92,1527,1015
331,136,-195,-234,263,-29,-419,-668,-722,-112,1215,868
278,107,-170,-192,224,-31,-409,-629,-834,-297,971,732
219,58,-161,-139,190,-51,-385,-590,-902,-458,800,658
214,9,-204,-112,209,-97,-380,-531,-932,-561,658,614
195,-63,-258,-65,226,-161,-361,-463,-922,-605,536,580
146,-122,-268,-12,207,-195,-322,-395,-897,-600,429,527
131,-136,-268,2,200,-202,-297,-370,-863,-629,312,444
117,-156,-273,19,195,-214,-273,-351,-849,-653,161,346
82,-185,-268,51,175,-226,-224,-312,-819,-663,53,273
14,-190,-204,87,109,-197,-175,-278,-785,-649,-9,224
-29,-156,-126,92,48,-141,-112,-229,-712,-610,-58,175
-39,-146,-107,92,34,-126,-29,-156,-619,-570,-97,126
-53,-126,-73,90,9,-100,4,-107,-536,-502,-122,68
-63,-53,9,58,-36,-21,0,-92,-483,-434,-136,43
-53,-9,43,31,-48,17,14,-63,-429,-380,-141,29
-58,-43,14,51,-36,-14,34,-24,-375,-346,-156,-9
-58,-39,19,48,-39,-9,34,-24,-351,-312,-170,-43
-34,-4,29,19,-31,12,24,-39,-322,-253,-170,-63
-39,4,43,17,-41,24,39,-39,-287,-239,-170,-73
-48,14,63,17,-56,39,58,-39,-258,-248,-170,-78
-58,4,63,26,-61,34,73,-24,-219,-248,-161,-73
-63,-24,39,43,-51,7,82,-4,-175,-200,-126,-43
-73,-14,58,43,-65,21,82,-4,-141,-136,-107,-24
-82,-14,68,48,-75,26,68,-14,-151,-146,-131,-53
-92,-14,78,53,-85,31,68,-19,-161,-156,-151,-73
-92,-14,78,53,-85,31,68,-24,-165,-161,-175,-92
-92,-19,73,56,-82,26,73,-29,-175,-170,-190,-112
-87,-19,68,53,-78,24,78,-43,-170,-180,-204,-126
-87,-34,53,61,-70,9,78,-43,-170,-190,-209,-136
-82,-43,39,63,-61,-2,82,-39,-170,-190,-209,-146
-73,-34,39,53,-56,2,78,-39,-175,-200,-209,-156
-73,-29,43,51,-58,7,68,-29,-156,-180,-200,-151
-73,-29,43,51,-58,7,63,-39,-151,-175,-200,-151
-73,-24,48,48,-61,12,53,-39,-156,-165,-204,-151
-73,-29,43,51,-58,7,48,-39,-151,-156,-204,-146
-73,-24,48,48,-61,12,48,-39,-151,-156,-195,-136
-68,-24,43,46,-56,9,43,-34,-151,-156,-190,-141
-63,-24,39,43,-51,7,39,-34,-146,-156,-175,-141
-63,-24,39,43,-51,7,39,-39,-146,-156,-170,-141
-63,-34,29,48,-46,-2,39,-48,-151,-165,-190,-141
-63,-43,19,53,-41,-12,39,-48,-151,-165,-204,-146
-53,-48,4,51,-29,-21,39,-48,-151,-170,-219,-151
-53,-58,-4,56,-24,-31,29,-43,-151,-170,-224,-151
-58,-53,4,56,-31,-24,39,-39,-151,-170,-214,-146
-68,-53,14,61,-41,-19,39,-39,-146,-170,-214,-131
-68,-53,14,61,-41,-19,39,-39,-146,-170,-214,-126
-53,-48,4,51,-29,-21,39,-39,-146,-170,-214,-122
-43,-58,-14,51,-14,-36,43,-29,-151,-190,-219,-122
-53,-63,-9,58,-21,-36,48,-34,-161,-200,-224,-122
-53,-63,-9,58,-21,-36,48,-39,-165,-209,-229,-122
-53,-63,-9,58,-21,-36,53,-48,-175,-219,-229,-126
-68,-87,-19,78,-24,-53,58,-39,-170,-209,-234,-136
-78,-97,-19,87,-29,-58,63,-39,-170,-209,-239,-136
-82,-97,-14,90,-34,-56,73,-39,-165,-209,-239,-136
-87,-107,-19,97,-34,-63,78,-34,-165,-209,-244,-136
-92,-92,0,92,-46,-46,82,-34,-175,-209,-253,-136
-102,-87,14,95,-58,-36,87,-39,-175,-209,-253,-136
-112,-87,24,100,-68,-31,92,-39,-175,-204,-263,-141
-126,-82,43,104,-85,-19,97,-39,-175,-200,-263,-146
-97,-78,19,87,-58,-29,107,-48,-175,-195,-268,-156
-87,-78,9,82,-48,-34,107,-48,-175,-195,-268,-156
-82,-73,9,78,-46,-31,107,-48,-175,-200,-278,-156
-82,-73,9,78,-46,-31,112,-48,-185,-200,-283,-151
-97,-82,14,90,-56,-34,131,-34,-170,-190,-273,-146
-102,-87,14,95,-58,-36,131,-34,-175,-190,-263,-141
-112,-87,24,100,-68,-31,131,-29,-180,-185,-253,-141
-117,-87,29,102,-73,-29,136,-24,-175,-185,-248,-146
-107,-68,39,87,-73,-14,126,-34,-175,-175,-263,-151
-107,-68,39,87,-73,-14,122,-34,-175,-180,-263,-156
-107,-68,39,87,-73,-14,117,-34,-180,-180,-273,-156
-102,-68,34,85,-68,-17,117,-34,-180,-180,-278,-161
-97,-68,29,82,-63,-19,102,-43,-175,-195,-268,-156
-92,-68,24,80,-58,-21,102,-39,-175,-209,-268,-156
-87,-68,19,78,-53,-24,102,-34,-180,-229,-268,-151
-82,-63,19,73,-51,-21,102,-24,-180,-219,-268,-151
-87,-58,29,73,-58,-14,107,-24,-185,-219,-268,-156
-92,-58,34,75,-63,-12,107,-24,-185,-224,-268,-165
-102,-58,43,80,-73,-7,112,-24,-185,-229,-273,-170
-107,-63,43,85,-75,-9,112,-24,-185,-229,-278,-180
-97,-73,24,85,-61,-24,102,-29,-190,-229,-283,-170
-82,-73,9,78,-46,-31,107,-29,-195,-234,-287,-175
-73,-73,0,73,-36,-36,107,-29,-200,-244,-297,-175
-63,-78,-14,70,-24,-46,107,-29,-204,-248,-302,-175
-68,-78,-9,73,-29,-43,102,-34,-209,-263,-317,-180
-68,-73,-4,70,-31,-39,97,-39,-219,-268,-317,-185
-73,-68,4,70,-39,-31,92,-43,-229,-283,-312,-185
-82,-68,14,75,-48,-26,87,-48,-234,-287,-317,-190
-107,-87,19,97,-63,-34,87,-34,-229,-278,-322,-185
-117,-87,29,102,-73,-29,87,-39,-229,-278,-322,-185
-126,-97,29,112,-78,-34,87,-39,-229,-287,-317,-185
-136,-117,19,126,-78,-48,87,-39,-229,-297,-317,-185
-117,-97,19,107,-68,-39,87,-34,-229,-302,-326,-195
-92,-78,14,85,-53,-31,78,-34,-229,-307,-331,-195
-73,-58,14,65,-43,-21,78,-34,-234,-322,-336,-200
-48,-39,9,43,-29,-14,78,-34,-239,-331,-336,-200
-39,-34,4,36,-21,-14,92,-24,-229,-326,-336,-195
-34,-29,4,31,-19,-12,92,-14,-229,-331,-336,-175
-24,-19,4,21,-14,-7,92,-4,-229,-331,-326,-161
-19,-14,4,17,-12,-4,97,4,-229,-326,-326,-156
-9,-34,-24,21,7,-29,92,-4,-239,-341,-322,-161
-9,-48,-39,29,14,-43,87,-4,-239,-351,-317,-161
-9,-58,-48,34,19,-53,78,-4,-239,-356,-317,-161
-9,-63,-53,36,21,-58,63,-4,-239,-370,-317,-161
-14,-63,-48,39,17,-56,53,-4,-253,-375,-322,-170
-14,-63,-48,39,17,-56,53,-4,-239,-375,-317,-170
-19,-63,-43,41,12,-53,53,4,-234,-375,-317,-151
-24,-63,-39,43,7,-51,48,9,-239,-356,-317,-146
-29,-63,-34,46,2,-48,43,14,-248,-361,-302,-146
-24,-63,-39,43,7,-51,43,14,-244,-370,-287,-141
-24,-68,-43,46,9,-56,53,24,-234,-380,-273,-122
-24,-68,-43,46,9,-56,58,34,-219,-370,-258,-102
-19,-78,-58,48,19,-68,68,43,-219,-366,-248,-107
-19,-82,-63,51,21,-73,58,43,-204,-351,-239,-102
-19,-82,-63,51,21,-73,58,43,-190,-341,-234,-102
-19,-92,-73,56,26,-82,58,43,-185,-326,-229,-97
-19,-122,-102,70,41,-112,58,43,-180,-312,-224,-82
-14,-112,-97,63,41,-104,48,48,-170,-283,-214,-78
-19,-122,-102,70,41,-112,43,48,-161,-258,-200,-68
-29,-131,-102,80,36,-117,43,48,-151,-239,-185,-58
-14,-126,-112,70,48,-119,34,53,-122,-214,-161,-68
4,-122,-126,58,65,-124,29,58,-107,-200,-141,-53
19,-122,-141,51,80,-131,24,63,-87,-190,-126,-39
34,-117,-151,41,92,-134,19,58,-73,-185,-107,-34
68,-97,-165,14,117,-131,34,68,-53,-151,-87,-29
63,-87,-151,12,107,-119,43,87,-19,-126,-58,-24
73,-78,-151,2,112,-114,58,97,9,-78,-39,-14
68,-63,-131,-2,100,-97,68,107,29,-53,-29,-4
48,-68,-117,9,82,-92,73,107,43,-29,-14,9
39,-53,-92,7,65,-73,68,97,48,-29,-9,14
34,-39,-73,2,53,-56,63,87,48,-24,0,19
24,-39,-63,7,43,-51,68,87,43,-9,19,24
34,-53,-87,9,61,-70,63,73,39,4,9,19
34,-58,-92,12,63,-75,58,68,34,9,9,9
34,-58,-92,12,63,-75,58,68,39,14,9,14
34,-53,-87,9,61,-70,53,68,48,14,9,19
34,-43,-78,4,56,-61,53,63,43,9,4,19
39,-39,-78,0,58,-58,53,58,34,4,0,19
53,-39,-92,-7,73,-65,43,53,29,-9,0,19
58,-34,-92,-12,75,-63,43,53,19,-14,0,19
53,-43,-97,-4,75,-70,53,53,19,-9,0,4
53,-48,-102,-2,78,-75,53,48,14,-4,0,-4
48,-53,-102,2,75,-78,53,48,14,0,0,-9
48,-58,-107,4,78,-82,53,39,14,4,0,-19
39,-78,-117,19,78,-97,58,43,14,-4,-4,-9
39,-78,-117,19,78,-97,63,43,14,-4,-4,-4
48,-78,-126,14,87,-102,63,39,4,-9,-14,-4
58,-78,-136,9,97,-107,63,34,-4,-9,-19,-4
58,-68,-126,4,92,-97,53,24,-14,-24,-34,-14
53,-58,-112,2,82,-85,53,14,-14,-34,-39,-14
53,-53,-107,0,80,-80,53,4,-24,-39,-43,-14
48,-43,-92,-2,70,-68,53,0,-34,-39,-48,-9
24,-48,-73,12,48,-61,48,0,-48,-43,-63,-9
9,-53,-63,21,36,-58,43,-4,-48,-48,-63,-14
-4,-53,-48,29,21,-51,48,-4,-43,-53,-58,-14
-9,-58,-48,34,19,-53,43,-4,-39,-53,-53,-14
4,-58,-63,26,34,-61,34,-9,-43,-39,-53,-24
9,-58,-68,24,39,-63,24,-14,-43,-39,-58,-24
9,-53,-63,21,36,-58,34,-9,-39,-39,-58,-24
14,-43,-58,14,36,-51,39,-14,-39,-34,-58,-14
29,-39,-68,4,48,-53,43,0,-29,-24,-43,-4
39,-34,-73,-2,56,-53,48,0,-29,-24,-39,-4
43,-29,-73,-7,58,-51,53,4,-24,-14,-34,-4
48,-14,-63,-17,56,-39,53,4,-24,-4,-29,-14
53,-9,-63,-21,58,-36,39,-9,-29,-4,-43,-14
58,-14,-73,-21,65,-43,34,-14,-34,-14,-58,-14
63,-24,-87,-19,75,-56,29,-19,-39,-29,-63,-29
68,-29,-97,-19,82,-63,29,-24,-43,-39,-63,-29
73,-29,-102,-21,87,-65,39,-14,-39,-24,-53,-14
73,-29,-102,-21,87,-65,39,-14,-39,-14,-48,-9
58,-24,-82,-17,70,-53,34,-19,-39,-9,-43,-4
58,-14,-73,-21,65,-43,24,-19,-34,-4,-39,4
43,-9,-53,-17,48,-31,34,-24,-14,4,-43,4
34,-4,-39,-14,36,-21,34,-19,-24,4,-43,4
24,-4,-29,-9,26,-17,24,-19,-24,4,-48,0
19,-24,-43,2,31,-34,24,-24,-24,4,-53,-4
39,-39,-78,0,58,-58,9,-34,-29,-4,-63,-9
29,-39,-68,4,48,-53,9,-34,-29,4,-63,-14
24,-43,-68,9,46,-56,4,-39,-34,4,-58,-14
24,-48,-73,12,48,-61,-4,-39,-39,4,-58,-19
19,-39,-58,9,39,-48,0,-48,-39,-4,-68,-19
19,-34,-53,7,36,-43,0,-48,-34,-4,-68,-14
24,-34,-58,4,41,-46,0,-39,-34,0,-68,-14
29,-43,-73,7,51,-58,4,-39,-24,0,-68,-14
14,-39,-53,12,34,-46,14,-43,-34,9,-68,-9
4,-39,-43,17,24,-41,19,-39,-34,9,-68,-14
4,-43,-48,19,26,-46,19,-34,-24,19,-68,-19
0,-43,-43,21,21,-43,19,-34,-24,24,-73,-19
14,-34,-48,9,31,-41,24,-29,-14,29,-63,-9
14,-34,-48,9,31,-41,43,-24,-14,39,-63,9
19,-29,-48,4,34,-39,39,-19,-9,39,-63,19
24,-29,-53,2,39,-41,43,-14,-9,29,-63,29
14,-39,-53,12,34,-46,53,-14,-4,43,-58,19
19,-39,-58,9,39,-48,48,-14,0,48,-58,19
29,-39,-68,4,48,-53,48,-19,-4,48,-53,14
29,-39,-68,4,48,-53,48,-19,0,53,-48,14
29,-39,-68,4,48,-53,63,-19,-4,48,-48,0
24,-39,-63,7,43,-51,68,-24,-4,43,-53,-4
29,-34,-63,2,46,-48,68,-29,-9,39,-63,-9
39,-29,-68,-4,53,-48,68,-34,-4,34,-73,-14
24,-48,-73,12,48,-61,82,-19,4,39,-73,-9
24,-43,-68,9,46,-56,87,-19,-4,39,-78,-9
24,-53,-78,14,51,-65,92,-14,-4,43,-63,-9
19,-63,-82,21,51,-73,97,0,0,53,-58,0
34,-63,-97,14,65,-80,92,-14,-9,48,-63,4
29,-53,-82,12,56,-68,87,-19,-14,43,-73,-14
34,-29,-63,-2,48,-46,78,-24,-14,39,-82,-19
43,-19,-63,-12,53,-41,68,-29,-14,39,-92,-24
14,-48,-63,17,39,-56,97,-9,4,48,-68,-4
-24,-48,-24,36,0,-36,117,4,24,68,-48,4
-39,-39,0,39,-19,-19,122,14,9,58,-58,0
-43,-48,-4,46,-19,-26,112,4,9,43,-58,-4
-48,-48,0,48,-24,-24,107,0,19,48,-48,0
-43,-39,4,41,-24,-17,102,0,19,48,-53,0
-39,-39,0,39,-19,-19,97,0,19,48,-58,0
-34,-39,-4,36,-14,-21,92,0,19,48,-63,0
-29,-39,-9,34,-9,-24,87,0,19,48,-68,0
-19,-29,-9,24,-4,-19,97,9,29,48,-58,-9
-19,-29,-9,24,-4,-19,97,9,29,48,-58,-9
-19,-29,-9,24,-4,-19,97,9,29,48,-58,-9
-19,-29,-9,24,-4,-19,97,9,29,48,-58,-9
-4,-19,-14,12,4,-17,92,9,29,39,-58,-9
9,-19,-29,4,19,-24,87,9,29,39,-58,-9
24,-19,-43,-2,34,-31,82,9,29,39,-58,-9
39,-19,-58,-9,48,-39,78,9,29,39,-58,-9
29,-14,-43,-7,36,-29,78,19,39,39,-58,0
19,-9,-29,-4,24,-19,78,19,39,39,-58,0
9,-4,-14,-2,12,-9,78,19,39,39,-58,0
4,0,-4,-2,4,-2,78,19,39,43,-58,0
-4,-9,-4,7,0,-7,78,19,34,34,-63,4
-9,-9,0,9,-4,-4,68,19,34,24,-68,-4
-14,-9,4,12,-9,-2,68,19,34,19,-73,-4
-19,-19,0,19,-9,-9,73,19,34,9,-78,9
-34,-19,14,26,-24,-2,82,24,39,9,-68,4
-34,-9,24,21,-29,7,82,24,39,14,-63,0
-29,-9,19,19,-24,4,82,24,43,19,-58,0
-14,-4,9,9,-12,2,78,19,43,19,-53,-4
-4,9,14,-2,-9,12,73,4,29,4,-63,-9
-4,9,14,-2,-9,12,68,9,29,9,-73,-14
-4,9,14,-2,-9,12,63,4,29,4,-82,-24
-4,4,9,0,-7,7,58,0,24,0,-87,-43
-4,0,4,2,-4,2,63,9,19,-9,-92,-39
-4,14,19,-4,-12,17,63,4,24,-4,-87,-39
-9,19,29,-4,-19,24,63,4,34,-4,-82,-29
-4,24,29,-9,-17,26,63,14,39,-4,-82,-19
14,34,19,-24,-2,26,48,9,29,4,-87,-24
29,29,0,-29,14,14,39,0,24,0,-102,-29
29,29,0,-29,14,14,34,-4,14,-9,-112,-34
14,29,14,-21,0,21,29,-9,9,-9,-117,-48
14,14,0,-14,7,7,19,-19,19,-14,-117,-43
29,14,-14,-21,21,0,14,-19,19,-14,-107,-43
14,14,0,-14,7,7,9,-19,19,-14,-107,-34
14,9,-4,-12,9,2,4,-14,29,-9,-117,-34
-9,9,19,0,-14,14,14,-4,39,4,-107,-29
-29,9,39,9,-34,24,19,0,39,0,-102,-19
-43,9,53,17,-48,31,29,4,34,4,-97,-9
-53,9,63,21,-58,36,39,14,34,24,-82,0
-39,4,43,17,-41,24,48,4,24,14,-92,4
-24,0,24,12,-24,12,48,4,19,-9,-97,0
-14,-4,9,9,-12,2,39,0,14,-19,-107,-14
-9,-9,0,9,-4,-4,39,0,14,-29,-117,-19
-9,-24,-14,17,2,-19,39,-4,9,-34,-126,-19
-9,-24,-14,17,2,-19,39,-4,4,-39,-122,-19
-19,-29,-9,24,-4,-19,43,-4,4,-39,-112,-19
-19,-29,-9,24,-4,-19,48,-4,0,-34,-112,-9
-24,-34,-9,29,-7,-21,63,4,4,-34,-107,-19
-34,-39,-4,36,-14,-21,63,4,4,-43,-112,-19
-29,-43,-14,36,-7,-29,58,4,4,-43,-112,-19
-39,-48,-9,43,-14,-29,63,0,4,-39,-107,-14
-39,-39,0,39,-19,-19,68,0,-4,-39,-107,-24
-43,-34,9,39,-26,-12,73,0,-4,-39,-112,-14
-48,-34,14,41,-31,-9,82,-4,0,-29,-117,-14
-48,-34,14,41,-31,-9,87,-4,0,-39,-122,-14
-58,-24,34,41,-46,4,87,9,0,-48,-122,-4
-58,-29,29,43,-43,0,92,9,0,-48,-122,-9
-53,-29,24,41,-39,-2,102,9,-4,-43,-122,-9
-53,-29,24,41,-39,-2,107,9,-4,-39,-122,-9
-63,-39,24,51,-43,-7,97,-4,-9,-48,-122,-14
-68,-39,29,53,-48,-4,92,-4,-9,-48,-122,-19
-73,-39,34,56,-53,-2,92,-9,-14,-53,-122,-19
-73,-43,29,58,-51,-7,92,-9,-14,-53,-117,-24
-68,-43,24,56,-46,-9,82,-19,-24,-63,-126,-29
-63,-39,24,51,-43,-7,82,-19,-24,-63,-126,-34
-58,-39,19,48,-39,-9,82,-19,-29,-68,-131,-43
-53,-39,14,46,-34,-12,82,-24,-29,-68,-131,-48
-68,-29,39,48,-53,4,82,-19,-19,-58,-126,-58
-63,-29,34,46,-48,2,82,-14,-19,-58,-122,-68
-63,-29,34,46,-48,2,82,-19,-24,-58,-126,-68
-68,-29,39,48,-53,4,82,-14,-24,-58,-122,-68
-87,-34,53,61,-70,9,87,-4,-9,-58,-122,-58
-102,-34,68,68,-85,17,92,4,-9,-58,-122,-43
-112,-34,78,73,-95,21,97,4,0,-58,-122,-34
-126,-39,87,82,-107,24,107,4,0,-58,-126,-24
-126,-39,87,82,-107,24,97,4,-14,-68,-126,-9
-117,-39,78,78,-97,19,97,4,-19,-68,-122,-9
-107,-43,63,75,-85,9,97,0,-19,-68,-117,-9
-117,-48,68,82,-92,9,97,0,-19,-68,-112,-9
-102,-39,63,70,-82,12,102,4,-14,-53,-97,-4
-92,-29,63,61,-78,17,107,9,-9,-53,-92,-4
-87,-19,68,53,-78,24,112,19,-4,-53,-92,-4
-78,-9,68,43,-73,29,117,24,9,-48,-87,-4
-68,0,68,34,-68,34,107,9,4,-48,-78,0
-58,4,63,26,-61,34,102,9,0,-48,-73,0
-39,14,53,12,-46,34,102,9,-4,-48,-73,0
-19,19,39,0,-29,29,102,9,-9,-48,-78,0
-43,9,53,17,-48,31,112,14,4,-43,-73,0
-63,4,68,29,-65,36,117,14,14,-34,-68,0
-82,0,82,41,-82,41,117,19,19,-29,-58,0
-97,0,97,48,-97,48,112,19,24,-24,-53,0
-97,0,97,48,-97,48,112,29,24,-29,-53,14
-92,0,92,46,-92,46,112,29,34,-19,-48,19
-92,0,92,46,-92,46,112,24,24,-29,-48,19
-97,0,97,48,-97,48,117,24,9,-29,-63,19
-63,19,82,21,-73,51,97,14,4,-39,-63,0
-73,19,92,26,-82,56,107,9,9,-34,-92,-24
-92,14,107,39,-100,61,126,39,58,4,-87,-14
-107,-14,92,61,-100,39,131,102,156,82,-58,-9
-68,-4,63,36,-65,29,131,170,297,185,-29,4
-9,39,48,-14,-29,43,126,263,463,336,48,48
24,53,29,-39,-2,41,107,302,629,541,165,102
34,97,63,-65,-14,80,63,273,771,780,278,156
63,131,68,-97,-2,100,19,263,941,1044,395,204
97,146,48,-122,24,97,-9,302,1156,1342,522,258
122,175,53,-148,34,114,-48,361,1464,1751,712,351
165,234,68,-200,48,151,-107,453,1932,2288,1000,502
248,297,48,-273,100,173,-165,590,2562,3030,1405,722
380,400,19,-390,180,209,-244,722,3230,3845,1912,990
497,463,-34,-480,265,214,-346,834,3752,4435,2440,1263
546,463,-82,-505,314,190,-419,888,3908,4567,2810,1464
556,444,-112,-500,334,165,-458,771,3577,4289,2952,1561
527,395,-131,-461,329,131,-478,478,2845,3723,2898,1556
483,336,-146,-409,314,95,-497,63,1781,2869,2693,1488
434,283,-151,-358,292,65,-517,-370,575,1805,2347,1361
375,219,-156,-297,265,31,-507,-634,-263,893,1947,1210
312,146,-165,-229,239,-9,-448,-619,-507,336,1586,1073
287,68,-219,-178,253,-75,-409,-551,-570,14,1302,966
239,48,-190,-143,214,-70,-414,-541,-707,-195,1054,863
195,58,-136,-126,165,-39,-419,-502,-775,-317,883,790
185,-4,-190,-90,187,-97,-390,-414,-775,-409,751,746
185,-63,-248,-61,217,-156,-361,-346,-790,-512,585,663
170,-68,-239,-51,204,-153,-317,-322,-805,-590,419,561
136,-87,-224,-24,180,-156,-253,-292,-771,-605,346,512
122,-117,-239,-2,180,-178,-204,-253,-722,-624,268,458
112,-141,-253,14,183,-197,-175,-229,-707,-639,156,380
78,-165,-244,43,161,-204,-122,-190,-673,-619,87,331
58,-146,-204,43,131,-175,-68,-136,-590,-561,39,292
34,-107,-141,36,87,-124,-4,-87,-507,-522,-24,224
-34,-102,-68,68,17,-85,48,-34,-434,-483,-68,161
-92,-87,4,90,-48,-41,73,4,-390,-439,-92,117
-68,-73,-4,70,-31,-39,73,14,-346,-414,-117,68
-68,-68,0,68,-34,-34,82,14,-312,-390,-151,34
-122,-63,58,92,-90,-2,102,0,-283,-351,-151,34
-146,-73,73,109,-109,0,107,-19,-258,-307,-141,43
-126,-53,73,90,-100,9,107,-29,-229,-287,-151,29
-97,-34,63,65,-80,14,112,-34,-209,-278,-170,-4
-102,-53,48,78,-75,-2,122,-24,-175,-268,-175,-14
-102,-63,39,82,-70,-12,122,-24,-151,-263,-175,-24
-87,-48,39,68,-63,-4,107,-39,-161,-253,-185,-34
-92,-43,48,68,-70,2,107,-39,-161,-253,-190,-43
-87,-39,48,63,-68,4,107,-39,-156,-248,-200,-53
-82,-39,43,61,-63,2,112,-39,-156,-248,-200,-63
-92,-24,68,58,-80,21,131,-29,-141,-234,-190,-68
-97,-34,63,65,-80,14,136,-24,-131,-229,-190,-68
-97,-39,58,68,-78,9,146,-14,-122,-214,-185,-68
-92,-24,68,58,-80,21,146,-9,-117,-209,-180,-68
-102,-24,78,63,-90,26,141,0,-102,-209,-185,-68
-102,-29,73,65,-87,21,141,-9,-102,-214,-190,-73
-102,-29,73,65,-87,21,136,-9,-112,-214,-200,-78
-102,-39,63,70,-82,12,136,-9,-112,-214,-204,-78
-112,-34,78,73,-95,21,131,-19,-122,-224,-219,-68
-107,-34,73,70,-90,19,131,-14,-122,-224,-219,-73
-102,-34,68,68,-85,17,131,-14,-117,-224,-209,-73
-102,-34,68,68,-85,17,136,-19,-117,-224,-209,-73
-107,-24,82,65,-95,29,136,-29,-112,-214,-204,-73
-112,-24,87,68,-100,31,136,-29,-112,-214,-214,-78
-107,-19,87,63,-97,34,136,-29,-112,-219,-224,-82
-112,-19,92,65,-102,36,126,-24,-112,-219,-224,-82
-107,-34,73,70,-90,19,136,-29,-122,-219,-229,-87
-117,-34,82,75,-100,24,136,-29,-117,-219,-234,-82
-117,-34,82,75,-100,24,136,-29,-117,-219,-239,-87
-102,-29,73,65,-87,21,136,-29,-117,-219,-244,-92
-92,-24,68,58,-80,21,131,-29,-126,-214,-248,-102
-102,-24,78,63,-90,26,126,-34,-131,-219,-253,-112
-102,-19,82,61,-92,31,117,-39,-131,-224,-258,-122
-102,-14,87,58,-95,36,112,-48,-136,-229,-258,-136
-107,-29,78,68,-92,24,112,-39,-136,-229,-273,-136
-107,-29,78,68,-92,24,112,-39,-141,-229,-278,-136
-102,-19,82,61,-92,31,117,-39,-141,-229,-278,-136
-97,-19,78,58,-87,29,117,-34,-146,-229,-283,-136
-107,-19,87,63,-97,34,102,-43,-156,-244,-283,-131
-112,-19,92,65,-102,36,97,-48,-156,-248,-283,-126
-117,-24,92,70,-104,34,92,-48,-156,-248,-292,-126
-126,-24,102,75,-114,39,87,-48,-156,-248,-292,-126
-107,-29,78,68,-92,24,78,-58,-165,-248,-297,-136
-107,-29,78,68,-92,24,78,-58,-165,-253,-297,-136
-112,-24,87,68,-100,31,78,-58,-165,-263,-307,-136
-122,-24,97,73,-109,36,82,-58,-175,-268,-312,-131
-112,-34,78,73,-95,21,82,-48,-165,-263,-312,-131
-112,-39,73,75,-92,17,82,-53,-175,-268,-312,-131
-117,-39,78,78,-97,19,82,-53,-185,-268,-312,-136
-117,-39,78,78,-97,19,87,-53,-185,-273,-317,-146
-122,-43,78,82,-100,17,92,-43,-175,-263,-312,-141
-126,-48,78,87,-102,14,92,-43,-175,-268,-312,-146
-131,-53,78,92,-104,12,92,-43,-180,-268,-322,-146
-131,-58,73,95,-102,7,97,-43,-180,-268,-326,-151
-141,-19,122,80,-131,51,82,-73,-195,-292,-336,-165
-136,-39,97,87,-117,29,78,-68,-195,-292,-331,-165
-136,-29,107,82,-122,39,92,-58,-185,-283,-331,-165
-136,-29,107,82,-122,39,97,-58,-185,-283,-331,-165
-136,-29,107,82,-122,39,102,-58,-185,-283,-331,-165
-136,-29,107,82,-122,39,107,-58,-185,-283,-331,-165
-136,-29,107,82,-122,39,117,-53,-180,-287,-331,-151
-136,-39,97,87,-117,29,117,-48,-180,-287,-322,-151
-141,-39,102,90,-122,31,107,-43,-175,-287,-322,-156
-146,-39,107,92,-126,34,107,-39,-170,-283,-322,-151
-146,-53,92,100,-119,19,102,-48,-180,-287,-331,-146
-151,-58,92,104,-122,17,102,-43,-185,-292,-336,-156
-151,-53,97,102,-124,21,102,-43,-185,-292,-336,-165
-146,-58,87,102,-117,14,102,-43,-180,-292,-336,-170
-117,-43,73,80,-95,14,107,-48,-185,-307,-341,-175
-112,-39,73,75,-92,17,107,-48,-190,-322,-346,-175
-107,-39,68,73,-87,14,107,-39,-190,-317,-351,-175
-102,-39,63,70,-82,12,107,-39,-190,-322,-356,-180
-102,-39,63,70,-82,12,112,-24,-190,-322,-351,-175
-107,-43,63,75,-85,9,122,-19,-185,-322,-346,-175
-112,-29,82,70,-97,26,126,-19,-180,-317,-341,-170
-122,-24,97,73,-109,36,131,-14,-170,-317,-336,-156
-126,-39,87,82,-107,24,131,-4,-170,-331,-346,-151
-122,-43,78,82,-100,17,131,-4,-175,-336,-346,-156
-112,-53,58,82,-85,2,126,-9,-185,-346,-356,-161
-117,-58,58,87,-87,0,126,-9,-200,-361,-361,-165
-126,-48,78,87,-102,14,136,-4,-200,-361,-361,-165
-122,-48,73,85,-97,12,141,0,-195,-361,-351,-170
-102,-43,58,73,-80,7,141,4,-190,-356,-341,-170
-112,-39,73,75,-92,17,141,9,-185,-351,-341,-161
-102,-48,53,75,-78,2,141,24,-180,-351,-341,-165
-92,-48,43,70,-68,-2,141,29,-185,-361,-346,-175
-87,-48,39,68,-63,-4,136,29,-190,-380,-346,-180
-78,-48,29,63,-53,-9,136,29,-200,-390,-346,-185
-78,-58,19,68,-48,-19,146,43,-200,-385,-331,-180
-82,-58,24,70,-53,-17,146,43,-195,-375,-322,-165
-78,-58,19,68,-48,-19,146,43,-195,-390,-317,-161
-78,-58,19,68,-48,-19,136,39,-195,-390,-317,-165
-87,-58,29,73,-58,-14,146,48,-180,-385,-297,-156
-97,-58,39,78,-68,-9,146,63,-170,-370,-283,-146
-107,-53,53,80,-80,0,146,73,-161,-366,-263,-136
-126,-53,73,90,-100,9,151,82,-146,-356,-239,-126
-112,-48,63,80,-87,7,146,92,-131,-331,-224,-107
-102,-48,53,75,-78,2,146,92,-122,-326,-224,-117
-97,-48,48,73,-73,0,141,92,-107,-322,-224,-117
-78,-48,29,63,-53,-9,131,92,-92,-307,-219,-117
-63,-43,19,53,-41,-12,122,102,-68,-283,-200,-102
-58,-39,19,48,-39,-9,122,107,-53,-263,-180,-92
-58,-29,29,43,-43,0,122,112,-39,-244,-165,-73
-58,-24,34,41,-46,4,126,112,-19,-214,-151,-63
-48,-34,14,41,-31,-9,122,122,4,-190,-122,-43
-48,-34,14,41,-31,-9,112,126,19,-165,-102,-34
-48,-39,9,43,-29,-14,107,126,34,-141,-82,-29
-43,-39,4,41,-24,-17,107,126,43,-112,-63,-19
-43,-29,14,36,-29,-7,92,126,53,-92,-43,-14
-43,-19,24,31,-34,2,87,122,68,-78,-34,-9
-48,-9,39,29,-43,14,78,122,78,-63,-24,-4
-53,0,53,26,-53,26,73,117,82,-53,-14,4
-34,4,39,14,-36,21,63,102,73,-48,-19,4
-24,4,29,9,-26,17,53,97,63,-43,-19,4
-14,9,24,2,-19,17,43,92,63,-39,-19,4
-4,9,14,-2,-9,12,34,87,58,-39,-24,0
0,19,19,-9,-9,19,29,63,43,-29,-14,-9
-4,19,24,-7,-14,21,24,53,39,-29,-14,-9
9,19,9,-14,0,14,19,43,34,-29,-14,-19
19,19,0,-19,9,9,14,24,24,-29,-24,-19
9,19,9,-14,0,14,14,14,19,-29,-34,-19
0,19,19,-9,-9,19,14,14,19,-29,-34,-19
-14,24,39,-4,-26,31,14,24,14,-29,-34,-14
-24,29,53,-2,-39,41,14,24,19,-29,-34,-14
-19,29,48,-4,-34,39,14,19,4,-34,-39,-24
-19,29,48,-4,-34,39,9,14,-4,-39,-39,-19
-9,29,39,-9,-24,34,4,9,-14,-43,-34,-19
0,24,24,-12,-12,24,0,0,-19,-48,-29,-19
-19,29,48,-4,-34,39,4,9,-29,-48,-29,-9
-34,29,63,2,-48,46,9,9,-29,-43,-34,-4
-43,29,73,7,-58,51,14,9,-29,-43,-39,-4
-58,29,87,14,-73,58,19,14,-29,-43,-48,-4
-68,19,87,24,-78,53,19,14,-29,-43,-58,0
-68,24,92,21,-80,58,19,9,-29,-48,-58,0
-68,24,92,21,-80,58,14,9,-29,-53,-53,4
-58,29,87,14,-73,58,14,9,-29,-58,-53,9
-43,39,82,2,-63,61,4,4,-43,-63,-58,-4
-39,34,73,2,-56,53,4,4,-48,-68,-58,-9
-39,34,73,2,-56,53,9,0,-48,-68,-58,-14
-39,34,73,2,-56,53,9,0,-53,-73,-53,-19
-48,34,82,7,-65,58,9,9,-53,-73,-68,-29
-48,29,78,9,-63,53,14,9,-43,-68,-73,-29
-43,24,68,9,-56,46,19,9,-34,-58,-73,-29
-43,19,63,12,-53,41,24,4,-43,-68,-78,-34
-48,9,58,19,-53,34,19,4,-39,-58,-73,-39
-43,19,63,12,-53,41,19,-4,-53,-68,-82,-48
-53,9,63,21,-58,36,19,0,-48,-63,-102,-63
-53,4,58,24,-56,31,29,19,-29,-43,-107,-63
-39,14,53,12,-46,34,63,53,39,14,-107,-68
-39,4,43,17,-41,24,92,122,170,117,-78,-63
-9,29,39,-9,-24,34,97,214,366,258,-29,-39
4,14,9,-9,-2,12,78,292,561,444,48,-4
24,9,-14,-17,19,-2,43,322,722,663,170,48
53,73,19,-63,17,46,9,292,863,917,297,107
107,136,29,-122,39,82,-19,273,1029,1205,424,170
170,146,-24,-158,97,61,-58,322,1307,1586,585,253
244,165,-78,-204,161,43,-117,414,1747,2103,824,375
326,229,-97,-278,212,65,-185,541,2357,2786,1161,556
390,322,-68,-356,229,126,-244,702,3084,3581,1620,795
439,375,-63,-407,251,156,-297,873,3674,4191,2117,1068
458,366,-92,-412,275,136,-351,985,3879,4294,2469,1259
488,346,-141,-417,314,102,-390,936,3596,3947,2571,1317
497,336,-161,-417,329,87,-409,634,2825,3381,2488,1293
463,297,-165,-380,314,65,-458,112,1615,2586,2322,1254
444,244,-200,-344,322,21,-497,-400,351,1629,2083,1205
434,200,-234,-317,334,-17,-488,-614,-380,834,1771,1112
380,146,-234,-263,307,-43,-448,-570,-566,307,1429,976
317,87,-229,-202,273,-70,-439,-541,-688,-73,1137,839
268,39,-229,-153,248,-95,-434,-531,-814,-263,956,756
273,39,-234,-156,253,-97,-429,-444,-824,-317,844,712
273,4,-268,-139,270,-131,-400,-297,-795,-380,712,649
253,-53,-307,-100,280,-180,-331,-161,-761,-434,585,595
239,-29,-268,-104,253,-148,-278,-78,-668,-414,527,570
214,-19,-234,-97,224,-126,-214,-29,-585,-409,453,531
151,-68,-219,-41,185,-143,-156,0,-546,-429,346,458
82,-73,-156,-4,119,-114,-107,24,-512,-414,253,390
29,-58,-87,14,58,-73,-92,43,-429,-366,214,351
0,-39,-39,19,19,-39,-58,48,-366,-336,146,292
-14,0,14,7,-14,7,-24,48,-341,-317,53,204
-24,4,29,9,-26,17,0,53,-307,-287,-19,141
-24,9,34,7,-29,21,-4,34,-283,-263,-43,117
0,43,43,-21,-21,43,-14,-14,-268,-239,-48,117
0,48,48,-24,-24,48,-24,-43,-234,-204,-53,102
-14,34,48,-9,-31,41,-34,-68,-195,-185,-73,82
-29,43,73,-7,-51,58,-29,-58,-180,-180,-102,53
-39,34,73,2,-56,53,-19,-48,-161,-180,-112,29
-29,43,73,-7,-51,58,-24,-43,-161,-180,-122,4
-34,34,68,0,-51,51,-24,-43,-156,-180,-117,4
-43,14,58,14,-51,36,-14,-34,-141,-165,-117,-4
-34,24,58,4,-46,41,-9,-29,-131,-165,-141,-19
-43,24,68,9,-56,46,-9,-29,-131,-165,-151,-34
-43,24,68,9,-56,46,-9,-29,-126,-161,-165,-48
-43,19,63,12,-53,41,-4,-29,-126,-161,-170,-63
-53,4,58,24,-56,31,4,-43,-131,-170,-175,-73
-68,-14,53,41,-61,19,9,-43,-131,-180,-180,-78
-78,-29,48,53,-63,9,19,-39,-131,-180,-180,-82
-82,-24,58,53,-70,17,19,-39,-136,-190,-180,-87
-73,-24,48,48,-61,12,9,-39,-136,-195,-195,-92
-73,-29,43,51,-58,7,4,-48,-141,-204,-200,-102
-73,-29,43,51,-58,7,-4,-48,-156,-209,-209,-112
-73,-39,34,56,-53,-2,-9,-48,-161,-214,-214,-117
-82,-29,53,56,-68,12,9,-39,-151,-204,-209,-126
-78,-24,53,51,-65,14,14,-34,-151,-204,-209,-131
-73,-19,53,46,-63,17,19,-34,-146,-204,-200,-131
-73,-14,58,43,-65,21,29,-39,-146,-204,-200,-131
-78,-24,53,51,-65,14,34,-48,-161,-214,-214,-131
-82,-24,58,53,-70,17,39,-48,-161,-214,-224,-136
-78,-19,58,48,-68,19,43,-48,-161,-219,-234,-141
-82,-19,63,51,-73,21,39,-43,-161,-219,-234,-141
-82,-9,73,46,-78,31,39,-48,-161,-219,-234,-146
-87,-4,82,46,-85,39,39,-48,-156,-219,-234,-141
-82,0,82,41,-82,41,39,-48,-156,-219,-234,-146
-63,9,73,26,-68,41,39,-48,-156,-219,-234,-151
-63,0,63,31,-63,31,39,-39,-146,-214,-239,-161
-73,-4,68,39,-70,31,39,-43,-151,-219,-244,-161
-73,-4,68,39,-70,31,34,-48,-151,-224,-248,-161
-73,-4,68,39,-70,31,34,-58,-156,-229,-248,-165
-87,-24,63,56,-75,19,39,-53,-146,-219,-253,-156
-97,-29,68,63,-82,19,43,-48,-151,-219,-258,-156
-102,-24,78,63,-90,26,53,-43,-151,-219,-258,-156
-107,-29,78,68,-92,24,58,-34,-156,-219,-263,-156
-92,-19,73,56,-82,26,58,-24,-146,-224,-253,-146
-92,-19,73,56,-82,26,58,-29,-146,-229,-253,-146
-92,-24,68,58,-80,21,58,-29,-146,-229,-263,-151
-97,-24,73,61,-85,24,58,-29,-146,-229,-263,-156
-73,-39,34,56,-53,-2,58,-34,-156,-229,-278,-156
-68,-39,29,53,-48,-4,58,-39,-156,-234,-278,-156
-68,-34,34,51,-51,0,58,-43,-156,-244,-287,-156
-73,-34,39,53,-56,2,63,-48,-165,-248,-292,-151
-87,-43,43,65,-65,0,73,-39,-161,-244,-283,-151
-102,-48,53,75,-78,2,73,-43,-165,-248,-283,-151
-122,-48,73,85,-97,12,73,-43,-170,-248,-283,-156
-136,-48,87,92,-112,19,78,-43,-165,-253,-287,-165
-126,-29,97,78,-112,34,82,-39,-156,-244,-292,-165
-126,-29,97,78,-112,34,82,-34,-156,-248,-292,-165
-126,-29,97,78,-112,34,82,-29,-161,-248,-302,-161
-122,-29,92,75,-107,31,87,-24,-161,-248,-307,-161
-107,-34,73,70,-90,19,92,-29,-156,-253,-297,-165
-102,-29,73,65,-87,21,92,-29,-156,-258,-297,-165
-97,-24,73,61,-85,24,92,-29,-161,-268,-297,-161
-92,-14,78,53,-85,31,92,-24,-161,-248,-297,-161
-92,-19,73,56,-82,26,97,-34,-146,-239,-302,-161
-92,-19,73,56,-82,26,97,-34,-146,-244,-297,-165
-97,-19,78,58,-87,29,102,-34,-146,-248,-297,-165
-97,-24,73,61,-85,24,102,-34,-146,-248,-297,-170
-97,-34,63,65,-80,14,87,-24,-141,-244,-297,-161
-92,-34,58,63,-75,12,87,-19,-136,-244,-297,-165
-92,-34,58,63,-75,12,82,-14,-131,-248,-302,-165
-92,-39,53,65,-73,7,78,-9,-126,-248,-302,-165
-73,-39,34,56,-53,-2,63,0,-122,-253,-312,-165
-68,-34,34,51,-51,0,58,0,-122,-248,-307,-165
-68,-29,39,48,-53,4,53,0,-122,-253,-297,-161
-73,-29,43,51,-58,7,48,0,-117,-248,-297,-161
-48,-39,9,43,-29,-14,19,19,-102,-239,-292,-146
-87,-19,68,53,-78,24,29,39,-73,-229,-273,-126
-107,-39,68,73,-87,14,39,34,-82,-219,-278,-136
-87,-29,58,58,-73,14,39,29,-92,-229,-287,-146
-78,-29,48,53,-63,9,39,39,-87,-224,-283,-146
-78,-29,48,53,-63,9,29,48,-87,-224,-273,-141
-78,-29,48,53,-63,9,29,48,-87,-224,-273,-136
-78,-29,48,53,-63,9,29,48,-87,-224,-273,-131
-78,-29,48,53,-63,9,29,48,-87,-224,-273,-126
-68,-29,39,48,-53,4,39,58,-82,-209,-258,-117
-58,-39,19,48,-39,-9,39,58,-82,-209,-244,-122
-53,-39,14,46,-34,-12,29,58,-78,-209,-239,-131
-48,-39,9,43,-29,-14,29,58,-73,-204,-234,-131
-58,-48,9,53,-34,-19,24,68,-68,-195,-229,-117
-63,-48,14,56,-39,-17,24,73,-68,-195,-229,-117
-63,-39,24,51,-43,-7,24,73,-63,-190,-224,-117
-58,-39,19,48,-39,-9,24,73,-53,-185,-219,-112
-34,-34,0,34,-17,-17,19,78,-43,-175,-204,-107
-34,-29,4,31,-19,-12,19,78,-43,-185,-200,-97
-34,-29,4,31,-19,-12,19,87,-39,-175,-195,-87
-34,-29,4,31,-19,-12,19,87,-34,-175,-190,-82
-29,-34,-4,31,-12,-19,9,87,-29,-165,-170,-78
-29,-43,-14,36,-7,-29,14,87,-19,-156,-161,-78
-29,-34,-4,31,-12,-19,14,82,-9,-141,-151,-73
-34,-34,0,34,-17,-17,14,82,4,-131,-141,-58
-34,-29,4,31,-19,-12,4,92,24,-107,-122,-39
-24,-24,0,24,-12,-12,4,92,29,-92,-112,-39
-9,-24,-14,17,2,-19,0,87,29,-82,-112,-39
-9,-19,-9,14,0,-14,0,87,24,-78,-107,-39
-14,-9,4,12,-9,-2,4,97,34,-53,-87,-29
-14,-9,4,12,-9,-2,14,97,48,-39,-68,-24
0,-4,-4,2,2,-4,19,97,63,-19,-48,-14
-14,0,14,7,-14,7,24,97,78,0,-39,4
-34,-14,19,24,-26,2,14,87,87,14,-34,-4
-43,-19,24,31,-34,2,14,87,87,19,-34,-9
-58,-24,34,41,-46,4,9,82,87,14,-29,-9
-68,-29,39,48,-53,4,9,78,82,19,-24,-9
-58,-39,19,48,-39,-9,9,78,68,24,-19,-19
-53,-39,14,46,-34,-12,9,73,68,34,-19,-9
-39,-39,0,39,-19,-19,9,68,63,19,-24,-9
-29,-39,-9,34,-9,-24,0,58,58,19,-34,-19
-14,-39,-24,26,4,-31,0,53,48,9,-39,-19
-9,-39,-29,24,9,-34,0,53,43,19,-39,-19
-4,-34,-29,19,12,-31,0,48,39,19,-34,-19
-9,-34,-24,21,7,-29,4,43,39,24,-24,-19
-14,-24,-9,19,-2,-17,14,34,39,43,-24,-14
-14,-19,-4,17,-4,-12,19,34,34,34,-29,-29
-19,-14,4,17,-12,-4,19,34,34,24,-34,-34
-9,-9,0,9,-4,-4,14,34,34,24,-34,-39
-24,-14,9,19,-17,-2,14,29,29,24,-39,-29
-39,-19,19,29,-29,0,14,29,24,19,-43,-24
-58,-19,39,39,-48,9,14,29,19,14,-53,-9
-78,-24,53,51,-65,14,19,24,19,19,-63,-4
-63,-14,48,39,-56,17,29,19,14,19,-63,-4
-58,-14,43,36,-51,14,24,19,9,19,-63,-4
-53,-19,34,36,-43,7,24,14,4,19,-63,-9
-43,-19,24,31,-34,2,29,9,-4,24,-63,-9
-48,-19,29,34,-39,4,29,19,-4,19,-63,-19
-53,-19,34,36,-43,7,29,14,0,19,-63,-19
-63,-19,43,41,-53,12,24,14,0,19,-63,-19
-73,-19,53,46,-63,17,24,9,-4,14,-63,-14
-63,-34,29,48,-46,-2,9,9,-14,14,-63,-14
-53,-34,19,43,-36,-7,4,9,-24,14,-68,-14
-43,-29,14,36,-29,-7,0,9,-24,14,-73,-14
-34,-29,4,31,-19,-12,-4,9,-29,9,-82,-19
-34,-19,14,26,-24,-2,-19,14,-24,14,-78,-19
-43,-19,24,31,-34,2,-24,14,-19,19,-73,-19
-34,-19,14,26,-24,-2,-29,14,-14,24,-68,-29
-29,-19,9,24,-19,-4,-34,4,-14,29,-73,-29
-19,-19,0,19,-9,-9,-24,4,-14,39,-73,-29
-19,-19,0,19,-9,-9,-24,4,-9,39,-73,-29
-24,-14,9,19,-17,-2,-24,14,-9,39,-73,-24
-24,-9,14,17,-19,2,-24,14,0,39,-73,-24
-34,-19,14,26,-24,-2,-19,4,4,48,-78,-19
-39,-19,19,29,-29,0,-19,4,4,48,-78,-9
-34,-19,14,26,-24,-2,-19,4,4,48,-73,-4
-29,-24,4,26,-17,-9,-19,0,9,48,-68,0
-43,-39,4,41,-24,-17,-4,9,24,63,-58,9
-53,-39,14,46,-34,-12,0,9,29,73,-53,14
-58,-39,19,48,-39,-9,4,9,34,78,-48,14
-68,-39,29,53,-48,-4,9,14,39,82,-48,14
-53,-29,24,41,-39,-2,4,9,43,82,-53,4
-48,-24,24,36,-36,0,0,0,39,78,-58,-9
-43,-24,19,34,-31,-2,-9,-4,34,73,-58,-19
-29,-19,9,24,-19,-4,-14,-9,29,68,-63,-29
-14,-4,9,9,-12,2,-4,-14,19,68,-78,-34
-9,-4,4,7,-7,0,-4,-14,19,68,-78,-39
-9,0,9,4,-9,4,0,-19,24,73,-78,-43
-9,4,14,2,-12,9,0,-19,24,73,-73,-48
-34,4,39,14,-36,21,9,-4,34,87,-58,-43
-48,0,48,24,-48,24,14,0,53,97,-53,-39
-58,-4,53,31,-56,24,19,4,73,112,-43,-34
-73,-9,63,41,-68,26,24,4,73,107,-39,-34
-78,-39,39,58,-58,0,0,4,48,87,-63,-39
-82,-39,43,61,-63,2,0,-14,43,78,-82,-48
-122,-29,92,75,-107,31,19,0,68,102,-73,-43
-141,-43,97,92,-119,26,48,48,136,161,-58,-43
-78,-24,53,51,-65,14,53,102,253,239,-39,-48
-9,4,14,2,-12,9,63,200,414,370,9,-24
9,19,9,-14,0,14,68,292,590,541,97,19
34,73,39,-53,-2,56,58,322,746,756,204,82
53,136,82,-95,-14,109,43,322,897,976,317,136
43,151,107,-97,-31,129,19,322,1058,1220,414,185
68,156,87,-112,-9,122,-19,331,1254,1498,512,219
141,185,43,-163,48,114,-78,380,1590,1908,702,302
244,224,-19,-234,131,102,-165,473,2108,2493,1000,453
307,287,-19,-297,163,134,-234,610,2757,3206,1395,653
380,341,-39,-361,209,151,-283,771,3376,3904,1864,893
478,395,-82,-436,280,156,-356,902,3791,4309,2303,1117
546,405,-141,-475,344,131,-429,936,3840,4323,2605,1288
546,375,-170,-461,358,102,-468,800,3411,3986,2708,1366
517,366,-151,-441,334,107,-497,439,2532,3372,2625,1361
463,326,-136,-395,300,95,-517,-53,1342,2488,2391,1293
414,253,-161,-334,287,46,-536,-497,253,1532,2083,1195
385,200,-185,-292,285,7,-527,-653,-253,854,1790,1093
331,126,-204,-229,268,-39,-478,-570,-370,424,1507,985
278,68,-209,-173,244,-70,-448,-522,-512,112,1254,868
248,58,-190,-153,219,-65,-444,-522,-649,-78,1044,775
234,29,-204,-131,219,-87,-448,-463,-688,-170,902,712
224,-4,-229,-109,226,-117,-439,-375,-707,-283,741,639
224,-34,-258,-95,241,-146,-409,-317,-741,-385,566,546
219,-58,-278,-80,248,-168,-375,-292,-736,-444,439,483
185,-78,-263,-53,224,-170,-331,-273,-702,-448,375,453
122,-126,-248,2,185,-187,-283,-244,-673,-478,297,400
53,-190,-244,68,148,-217,-234,-209,-649,-483,195,322
19,-175,-195,78,107,-185,-170,-170,-585,-444,126,253
-19,-126,-107,73,43,-117,-107,-136,-492,-385,78,204
-34,-107,-73,70,19,-90,-63,-97,-439,-356,4,136
-4,-63,-58,34,26,-61,-48,-63,-405,-346,-68,73
43,-9,-53,-17,48,-31,-43,-34,-361,-312,-102,48
68,4,-63,-36,65,-29,-43,-14,-326,-278,-107,39
39,0,-39,-19,39,-19,-53,-24,-302,-263,-122,14
-14,-4,9,9,-12,2,-43,-39,-263,-224,-102,4
-48,14,63,17,-56,39,-19,-29,-209,-170,-92,4
-48,34,82,7,-65,58,0,-19,-170,-131,-102,-19
-48,4,53,21,-51,29,4,-24,-151,-131,-141,-53
-43,4,48,19,-46,26,-24,-34,-146,-141,-165,-73
-53,14,68,19,-61,41,-53,-34,-141,-146,-175,-63
-53,9,63,21,-58,36,-58,-39,-141,-146,-175,-68
-63,4,68,29,-65,36,-58,-39,-141,-146,-180,-73
-63,0,63,31,-63,31,-58,-39,-136,-141,-190,-78
-63,-9,53,36,-58,21,-53,-39,-136,-141,-190,-82
-53,0,53,26,-53,26,-48,-53,-131,-146,-204,-97
-48,-14,34,31,-41,9,-48,-53,-131,-151,-209,-107
-39,-24,14,31,-26,-4,-43,-48,-131,-146,-209,-117
-24,-14,9,19,-17,-2,-48,-48,-136,-151,-209,-126
-34,-24,9,29,-21,-7,-39,-39,-122,-151,-214,-141
-43,-29,14,36,-29,-7,-34,-48,-122,-156,-219,-151
-53,-29,24,41,-39,-2,-34,-48,-131,-156,-229,-161
-63,-39,24,51,-43,-7,-29,-48,-131,-156,-234,-165
-87,-53,34,70,-61,-9,-14,-39,-122,-156,-229,-161
-97,-53,43,75,-70,-4,-14,-34,-122,-156,-229,-161
-107,-53,53,80,-80,0,-14,-34,-117,-156,-219,-156
-122,-53,68,87,-95,7,-9,-39,-117,-156,-219,-151
-112,-43,68,78,-90,12,0,-48,-122,-146,-224,-151
-112,-43,68,78,-90,12,0,-48,-122,-146,-234,-156
-102,-39,63,70,-82,12,0,-48,-122,-151,-244,-161
-102,-39,63,70,-82,12,-9,-43,-122,-151,-244,-161
-112,-43,68,78,-90,12,4,-39,-122,-151,-244,-156
-126,-43,82,85,-104,19,9,-39,-117,-151,-244,-141
-131,-43,87,87,-109,21,14,-39,-117,-151,-244,-136
-122,-39,82,80,-102,21,19,-39,-117,-151,-244,-131
-102,-29,73,65,-87,21,14,-43,-131,-165,-258,-146
-102,-34,68,68,-85,17,9,-53,-141,-170,-263,-151
-92,-34,58,63,-75,12,0,-63,-146,-175,-268,-156
-82,-34,48,58,-65,7,-4,-78,-156,-180,-268,-165
-87,-48,39,68,-63,-4,4,-68,-156,-180,-278,-175
-87,-48,39,68,-63,-4,4,-68,-161,-180,-287,-175
-82,-39,43,61,-63,2,9,-68,-161,-180,-292,-175
-78,-39,39,58,-58,0,9,-63,-165,-180,-302,-175
-78,-34,43,56,-61,4,0,-73,-165,-195,-302,-170
-82,-29,53,56,-68,12,0,-78,-165,-200,-302,-165
-87,-29,58,58,-73,14,0,-78,-165,-200,-312,-165
-97,-24,73,61,-85,24,0,-78,-165,-200,-312,-165
-97,-29,68,63,-82,19,9,-78,-175,-204,-307,-165
-97,-29,68,63,-82,19,9,-78,-175,-204,-307,-165
-102,-24,78,63,-90,26,9,-78,-175,-209,-317,-165
-112,-24,87,68,-100,31,14,-78,-185,-209,-322,-161
-122,-24,97,73,-109,36,14,-87,-175,-214,-312,-170
-122,-29,92,75,-107,31,14,-92,-185,-219,-312,-170
-126,-29,97,78,-112,34,14,-92,-195,-219,-312,-175
-126,-29,97,78,-112,34,19,-92,-195,-224,-317,-185
-122,-9,112,65,-117,51,19,-87,-175,-219,-322,-180
-117,-9,107,63,-112,48,14,-82,-175,-219,-322,-185
-112,-9,102,61,-107,46,9,-78,-180,-214,-331,-185
-102,-9,92,56,-97,41,9,-73,-180,-209,-336,-190
-92,-19,73,56,-82,26,9,-63,-170,-204,-331,-185
-92,-19,73,56,-82,26,14,-58,-165,-209,-326,-185
-92,-19,73,56,-82,26,19,-53,-165,-219,-322,-180
-92,-14,78,53,-85,31,24,-43,-161,-200,-317,-180
-92,-19,73,56,-82,26,39,-34,-156,-209,-322,-200
-112,0,112,56,-112,56,29,-43,-165,-234,-336,-204
-136,-19,117,78,-126,48,29,-39,-165,-234,-351,-204
-122,-24,97,73,-109,36,43,-34,-156,-234,-341,-214
-117,-29,87,73,-102,29,48,-29,-156,-234,-341,-214
-112,-34,78,73,-95,21,53,-24,-156,-234,-341,-214
-107,-39,68,73,-87,14,58,-19,-156,-234,-341,-214
-112,-29,82,70,-97,26,68,-9,-151,-234,-346,-204
-107,-39,68,73,-87,14,68,-9,-151,-239,-341,-209
-107,-39,68,73,-87,14,58,-9,-146,-244,-346,-219
-107,-39,68,73,-87,14,58,-9,-141,-244,-351,-219
-97,-39,58,68,-78,9,63,4,-126,-244,-346,-195
-102,-39,63,70,-82,12,63,14,-126,-244,-346,-195
-102,-29,73,65,-87,21,63,19,-122,-239,-341,-195
-97,-29,68,63,-82,19,63,24,-112,-234,-336,-190
-92,-34,58,63,-75,12,43,9,-122,-234,-326,-204
-92,-29,63,61,-78,17,39,9,-122,-244,-326,-204
-92,-29,63,61,-78,17,34,19,-117,-234,-326,-204
-92,-29,63,61,-78,17,29,19,-112,-234,-326,-209
-78,-24,53,51,-65,14,14,9,-122,-239,-322,-214
-68,-34,34,51,-51,0,14,9,-117,-244,-317,-214
-58,-24,34,41,-46,4,9,4,-112,-244,-312,-209
-53,-24,29,39,-41,2,4,4,-102,-248,-307,-195
-63,-34,29,48,-46,-2,14,24,-97,-239,-302,-175
-63,-34,29,48,-46,-2,14,24,-97,-239,-297,-175
-58,-39,19,48,-39,-9,9,19,-102,-244,-302,-175
-68,-39,29,53,-48,-4,9,19,-112,-253,-302,-175
-92,-39,53,65,-73,7,19,34,-92,-234,-292,-170
-92,-39,53,65,-73,7,24,39,-78,-224,-273,-170
-78,-34,43,56,-61,4,24,43,-63,-209,-253,-165
-92,-29,63,61,-78,17,24,48,-48,-195,-244,-151
-78,-39,39,58,-58,0,34,58,-24,-161,-229,-131
-73,-39,34,56,-53,-2,34,68,-9,-146,-219,-126
-73,-39,34,56,-53,-2,29,73,4,-141,-204,-117
-68,-39,29,53,-48,-4,29,78,14,-126,-190,-107
-63,-34,29,48,-46,-2,19,82,34,-97,-161,-97
-63,-29,34,46,-48,2,19,82,48,-73,-136,-78
-53,-24,29,39,-41,2,19,82,58,-73,-117,-68
-48,-19,29,34,-39,4,9,78,68,-58,-102,-68
-39,-29,9,34,-24,-9,0,73,82,-43,-87,-58
-29,-29,0,29,-14,-14,0,73,82,-19,-78,-58
-19,-24,-4,21,-7,-14,0,68,82,-4,-63,-58
-19,-24,-4,21,-7,-14,4,63,87,14,-43,-58
-24,-4,19,14,-21,7,9,53,87,39,-39,-39
-24,0,24,12,-24,12,9,53,82,34,-39,-48
-29,4,34,12,-31,19,4,53,82,29,-39,-48
-19,9,29,4,-24,19,-4,53,82,34,-34,-48
-19,14,34,2,-26,24,-9,43,73,29,-19,-43
-19,19,39,0,-29,29,-14,39,63,29,-14,-43
-24,29,53,-2,-39,41,-19,34,53,29,-14,-34
-29,34,63,-2,-46,48,-19,24,48,39,-14,-34
-34,39,73,-2,-53,56,-9,24,39,34,-14,-34
-39,43,82,-2,-61,63,-14,29,39,39,-14,-34
-43,43,87,0,-65,65,-14,29,39,43,-14,-39
-43,48,92,-2,-68,70,-9,29,34,53,-14,-39
-34,63,97,-14,-65,80,-19,24,14,48,-29,-29
-24,68,92,-21,-58,80,-19,14,9,39,-34,-29
-19,73,92,-26,-56,82,-24,9,0,29,-39,-29
-14,78,92,-31,-53,85,-24,0,-14,14,-43,-24
-29,68,97,-19,-63,82,-14,-9,-19,9,-43,-34
-34,63,97,-14,-65,80,-14,-9,-34,4,-48,-34
-39,63,102,-12,-70,82,-14,-9,-39,0,-53,-34
-43,58,102,-7,-73,80,-14,-9,-48,-9,-63,-39
-34,48,82,-7,-58,65,-24,-4,-48,0,-58,-29
-43,48,92,-2,-68,70,-24,-4,-48,0,-53,-29
-34,48,82,-7,-58,65,-24,-4,-48,0,-48,-39
-29,48,78,-9,-53,63,-24,-14,-53,0,-53,-39
-19,48,68,-14,-43,58,-24,-24,-68,-14,-63,-29
-19,48,68,-14,-43,58,-24,-24,-68,-19,-63,-29
-24,53,78,-14,-51,65,-24,-14,-73,-24,-63,-24
-24,58,82,-17,-53,70,-24,-14,-68,-29,-63,-24
-43,43,87,0,-65,65,-4,-9,-58,-24,-63,-9
-58,39,97,9,-78,68,0,-4,-63,-19,-58,0
-63,34,97,14,-80,65,4,0,-68,-14,-48,4
-68,24,92,21,-80,58,9,0,-68,-9,-39,9
-58,24,82,17,-70,53,0,-4,-78,-9,-34,0
-53,29,82,12,-68,56,-9,-9,-78,-4,-34,4
-43,34,78,4,-61,56,-19,-14,-78,-4,-34,4
-39,39,78,0,-58,58,-29,-14,-78,-4,-39,4
-39,43,82,-2,-61,63,-34,-4,-68,9,-39,4
-39,53,92,-7,-65,73,-39,-9,-68,9,-39,0
-39,58,97,-9,-68,78,-48,-9,-68,9,-34,0
-29,68,97,-19,-63,82,-53,-9,-68,9,-34,0
-19,68,87,-24,-53,78,-63,-19,-82,4,-43,-4
-19,63,82,-21,-51,73,-73,-24,-87,0,-48,-9
-24,63,87,-19,-56,75,-78,-34,-87,0,-53,-14
-29,63,92,-17,-61,78,-87,-39,-92,-4,-53,-19
-43,82,126,-19,-85,104,-102,-43,-92,4,-43,-14
-48,87,136,-19,-92,112,-102,-48,-82,9,-43,-9
-48,92,141,-21,-95,117,-102,-53,-73,19,-39,-4
-53,97,151,-21,-102,124,-102,-63,-82,9,-39,-4
-48,107,156,-29,-102,131,-97,-53,-68,9,-24,-9
-63,78,141,-7,-102,109,-78,-34,-53,29,-24,-19
-82,78,161,2,-122,119,-58,-19,-48,43,-43,-34
-92,92,185,0,-139,139,-48,-9,-19,63,-68,-63
-97,82,180,7,-139,131,-24,34,58,131,-58,-68
-68,82,151,-7,-109,117,-14,112,209,253,-19,-43
-29,97,126,-34,-78,112,-9,195,385,414,48,0
-14,112,126,-48,-70,119,-39,234,541,619,146,43
14,156,141,-85,-63,148,-73,224,712,888,287,117
63,200,136,-131,-36,168,-97,214,902,1171,414,175
97,214,117,-156,-9,165,-126,224,1137,1488,541,219
161,234,73,-197,43,153,-185,283,1493,1937,751,312
224,302,78,-263,73,190,-244,414,2078,2581,1098,483
317,405,87,-361,114,246,-312,600,2796,3362,1532,702
448,497,48,-473,200,273,-390,761,3416,4011,2020,941
575,512,-63,-544,319,224,-453,902,3752,4240,2440,1166
634,492,-141,-563,387,175,-497,956,3703,4021,2674,1307
634,473,-161,-553,397,156,-527,800,3215,3508,2698,1346
575,424,-151,-500,363,136,-546,400,2278,2796,2557,1322
512,385,-126,-448,319,129,-566,-141,1019,1912,2313,1244
434,322,-112,-378,273,104,-585,-566,-68,1044,2005,1137
366,239,-126,-302,246,56,-556,-692,-546,453,1644,985
331,175,-156,-253,244,9,-507,-639,-653,82,1293,829
287,107,-180,-197,234,-36,-478,-590,-756,-141,1049,732
248,87,-161,-168,204,-36,-483,-570,-844,-253,907,688
263,126,-136,-195,200,-4,-507,-502,-844,-317,775,634
244,102,-141,-173,192,-19,-488,-385,-824,-380,653,570
214,63,-151,-139,183,-43,-439,-287,-800,-424,556,527
190,68,-122,-129,156,-26,-405,-263,-756,-453,478,463
165,29,-136,-97,151,-53,-380,-253,-741,-488,366,385
161,-9,-170,-75,165,-90,-341,-234,-722,-517,229,302
161,4,-156,-82,158,-75,-283,-190,-678,-502,165,253
107,19,-87,-63,97,-34,-229,-151,-585,-453,136,234
19,29,9,-24,4,19,-175,-107,-483,-366,107,204
-43,48,92,-2,-68,70,-131,-58,-409,-307,63,136
-53,53,107,0,-80,80,-107,-34,-375,-297,19,63
-34,78,112,-21,-73,95,-102,-43,-361,-302,-24,19
-48,82,131,-17,-90,107,-112,-53,-346,-278,-29,9
-58,107,165,-24,-112,136,-102,-53,-322,-234,-14,4
-43,131,175,-43,-109,153,-92,-68,-283,-204,-24,-4
-48,122,170,-36,-109,146,-87,-68,-258,-200,-63,-43
-78,112,190,-17,-134,151,-78,-58,-229,-190,-92,-97
-87,122,209,-17,-148,165,-53,-53,-200,-161,-92,-112
-73,112,185,-19,-129,148,-53,-53,-185,-141,-87,-112
-53,122,175,-34,-114,148,-73,-63,-190,-146,-78,-112
-68,112,180,-21,-124,146,-68,-63,-200,-146,-102,-126
-82,112,195,-14,-139,153,-68,-58,-200,-146,-112,-141
-87,112,200,-12,-143,156,-68,-53,-195,-141,-126,-156
-92,107,200,-7,-146,153,-63,-48,-195,-141,-131,-170
-87,92,180,-2,-134,136,-68,-48,-180,-151,-141,-175
-87,73,161,7,-124,117,-68,-43,-170,-151,-151,-175
-82,58,141,12,-112,100,-63,-34,-161,-141,-156,-175
-73,63,136,4,-104,100,-68,-29,-156,-141,-161,-175
-82,63,146,9,-114,104,-68,-29,-156,-146,-165,-175
-82,58,141,12,-112,100,-73,-39,-161,-156,-170,-180
-82,58,141,12,-112,100,-82,-39,-175,-161,-180,-185
-82,48,131,17,-107,90,-87,-39,-180,-165,-185,-185
-107,34,141,36,-124,87,-82,-39,-175,-156,-195,-185
-107,24,131,41,-119,78,-82,-34,-170,-156,-200,-190
-107,14,122,46,-114,68,-82,-34,-161,-156,-195,-190
-112,4,117,53,-114,61,-78,-39,-156,-156,-200,-190
-112,24,136,43,-124,80,-78,-58,-170,-156,-214,-180
-112,34,146,39,-129,90,-78,-58,-170,-156,-224,-185
-102,48,151,26,-126,100,-78,-58,-170,-161,-234,-190
-102,58,161,21,-131,109,-87,-53,-170,-161,-234,-190
-117,43,161,36,-139,102,-58,-39,-170,-161,-229,-185
-126,34,161,46,-143,97,-48,-39,-165,-161,-224,-170
-126,24,151,51,-139,87,-39,-39,-165,-161,-219,-165
-112,19,131,46,-122,75,-29,-39,-165,-161,-214,-161
-102,9,112,46,-107,61,-19,-29,-165,-161,-219,-161
-112,4,117,53,-114,61,-19,-34,-170,-161,-224,-161
-112,4,117,53,-114,61,-24,-39,-170,-161,-229,-161
-112,4,117,53,-114,61,-24,-48,-175,-161,-229,-165
-112,14,126,48,-119,70,-19,-43,-165,-170,-244,-175
-107,19,126,43,-117,73,-14,-39,-170,-170,-248,-175
-97,34,131,31,-114,82,-4,-34,-170,-170,-248,-175
-87,39,126,24,-107,82,0,-24,-175,-170,-253,-175
-87,48,136,19,-112,92,0,-24,-175,-185,-253,-175
-92,48,141,21,-117,95,0,-29,-175,-190,-253,-175
-97,43,141,26,-119,92,0,-29,-175,-190,-263,-180
-107,43,151,31,-129,97,0,-29,-175,-190,-263,-185
-97,34,131,31,-114,82,0,-29,-180,-200,-278,-180
-97,29,126,34,-112,78,0,-29,-185,-204,-278,-175
-102,29,131,36,-117,80,0,-29,-190,-214,-287,-170
-112,24,136,43,-124,80,4,-29,-204,-219,-292,-161
-122,14,136,53,-129,75,4,-29,-195,-214,-292,-161
-122,0,122,61,-122,61,4,-34,-204,-219,-292,-161
-126,-9,117,68,-122,53,4,-34,-214,-219,-292,-165
-126,-19,107,73,-117,43,9,-34,-214,-224,-297,-175
-126,-4,122,65,-124,58,9,-34,-204,-234,-312,-195
-126,0,126,63,-126,63,4,-34,-204,-239,-312,-204
-126,4,131,61,-129,68,0,-34,-209,-239,-322,-209
-122,9,131,56,-126,70,0,-34,-209,-239,-326,-219
-112,4,117,53,-114,61,-14,-43,-204,-244,-331,-229
-112,9,122,51,-117,65,-14,-39,-204,-248,-336,-234
-112,14,126,48,-119,70,-14,-34,-209,-258,-341,-234
-112,24,136,43,-124,80,-14,-24,-209,-239,-346,-239
-122,29,151,46,-136,90,-9,-19,-195,-253,-341,-229
-122,29,151,46,-136,90,-9,-14,-195,-263,-336,-234
-126,29,156,48,-141,92,-4,-9,-195,-273,-336,-234
-126,24,151,51,-139,87,-4,-4,-195,-278,-336,-239
-136,24,161,56,-148,92,4,4,-185,-268,-336,-229
-131,24,156,53,-143,90,9,9,-185,-263,-336,-234
-131,24,156,53,-143,90,9,14,-185,-263,-341,-234
-131,19,151,56,-141,85,9,19,-185,-258,-341,-234
-122,19,141,51,-131,80,0,9,-195,-278,-346,-239
-117,24,141,46,-129,82,0,9,-200,-278,-346,-244
-117,29,146,43,-131,87,0,9,-204,-287,-341,-244
-122,29,151,46,-136,90,0,9,-204,-287,-346,-248
-112,19,131,46,-122,75,0,14,-209,-287,-341,-239
-107,29,136,39,-122,82,-9,9,-209,-287,-341,-234
-102,29,131,36,-117,80,-19,9,-209,-297,-336,-229
-97,19,117,39,-107,68,-29,9,-209,-307,-336,-224
-92,9,102,41,-97,56,-34,19,-214,-292,-326,-214
-82,0,82,41,-82,41,-48,14,-209,-287,-322,-214
-78,-9,68,43,-73,29,-53,9,-209,-292,-317,-219
-68,-19,48,43,-58,14,-58,4,-209,-292,-307,-219
-73,-14,58,43,-65,21,-68,9,-209,-307,-317,-219
-73,-9,63,41,-68,26,-73,14,-209,-312,-317,-204
-68,0,68,34,-68,34,-78,19,-209,-312,-307,-195
-68,4,73,31,-70,39,-78,24,-209,-307,-307,-195
-78,-4,73,41,-75,34,-73,29,-190,-297,-292,-175
-78,-9,68,43,-73,29,-68,34,-180,-292,-278,-170
-78,-9,68,43,-73,29,-68,39,-170,-283,-268,-165
-78,-4,73,41,-75,34,-73,43,-161,-283,-258,-161
-63,-4,58,34,-61,26,-82,53,-146,-268,-244,-151
-53,-4,48,29,-51,21,-82,53,-122,-258,-229,-151
-48,-4,43,26,-46,19,-82,63,-107,-248,-219,-131
-43,-4,39,24,-41,17,-87,68,-102,-219,-209,-126
-39,0,39,19,-39,19,-87,82,-73,-185,-165,-122
-34,4,39,14,-36,21,-82,92,-48,-165,-131,-112
-34,4,39,14,-36,21,-68,112,-19,-146,-97,-87
-34,9,43,12,-39,26,-58,131,14,-107,-63,-63
-24,0,24,12,-24,12,-58,126,19,-78,-63,-58
-29,-4,24,17,-26,9,-68,122,39,-58,-53,-53
-34,-4,29,19,-31,12,-68,117,58,-43,-48,-53
-39,-14,24,26,-31,4,-68,112,68,-24,-43,-48
-29,-14,14,21,-21,0,-68,102,73,-9,-29,-53
-14,14,29,0,-21,21,-78,107,73,19,-19,-48
-9,24,34,-7,-21,29,-82,107,73,43,-4,-39
-9,34,43,-12,-26,39,-82,107,73,63,9,-29
-4,43,48,-19,-26,46,-78,107,68,63,19,-39
4,43,39,-24,-17,41,-78,107,68,63,24,-24
9,39,29,-24,-9,34,-78,107,73,58,24,-9
14,39,24,-26,-4,31,-78,97,73,48,29,-4
24,24,0,-24,12,12,-82,92,63,39,19,-9
4,19,14,-12,-4,17,-82,97,68,29,29,-14
0,14,14,-7,-7,14,-78,92,68,43,29,-14
-19,14,34,2,-26,24,-78,87,58,34,19,-14
-34,9,43,12,-39,26,-68,92,53,48,19,-14
-39,24,63,7,-51,43,-68,87,48,39,19,-14
-39,39,78,0,-58,58,-68,82,39,34,24,-14
-43,39,82,2,-63,61,-58,87,24,39,39,-14
-34,43,78,-4,-56,61,-68,78,14,39,29,-34
-34,39,73,-2,-53,56,-68,68,4,39,19,-48
-34,39,73,-2,-53,56,-63,63,4,39,9,-48
-34,43,78,-4,-56,61,-63,58,9,34,0,-48
-48,29,78,9,-63,53,-73,53,-4,24,-14,-53
-48,29,78,9,-63,53,-73,48,-14,24,-19,-58
-39,24,63,7,-51,43,-82,43,-19,14,-19,-63
-39,24,63,7,-51,43,-82,43,-29,14,-19,-68
-19,14,34,2,-26,24,-78,48,-24,14,-39,-73
-14,9,24,2,-19,17,-73,48,-24,14,-39,-73
-14,4,19,4,-17,12,-68,53,-19,14,-39,-68
-9,0,9,4,-9,4,-63,48,-14,14,-39,-68
-14,-9,4,12,-9,-2,-58,48,-24,24,-34,-63
-19,0,19,9,-19,9,-53,53,-24,24,-34,-53
-14,9,24,2,-19,17,-53,53,-34,19,-43,-48
-9,19,29,-4,-19,24,-53,53,-43,19,-48,-43
-29,9,39,9,-34,24,-63,48,-34,34,-39,-39
-43,9,53,17,-48,31,-63,43,-24,34,-29,-34
-53,4,58,24,-56,31,-63,39,-24,39,-19,-29
-68,4,73,31,-70,39,-63,39,-24,48,-9,-19
-58,24,82,17,-70,53,-82,29,-39,48,-39,-34
-48,34,82,7,-65,58,-92,24,-39,48,-43,-43
-39,48,87,-4,-63,68,-92,24,-34,48,-43,-48
-19,58,78,-19,-48,68,-102,24,-29,53,-43,-53
-24,43,68,-9,-46,56,-117,14,-29,48,-43,-48
-29,39,68,-4,-48,53,-131,14,-34,39,-48,-43
-39,39,78,0,-58,58,-126,24,-34,29,-48,-39
-43,43,87,0,-65,65,-126,24,-39,24,-48,-24
-39,19,58,9,-48,39,-126,29,-39,24,-43,-24
-29,4,34,12,-31,19,-126,29,-39,24,-39,-24
-24,-9,14,17,-19,2,-126,34,-34,34,-34,-24
-19,-14,4,17,-12,-4,-131,34,-34,43,-29,-34
-19,4,24,7,-21,14,-141,29,-34,43,-43,-48
-19,14,34,2,-26,24,-151,24,-34,43,-58,-53
-19,19,39,0,-29,29,-161,19,-34,39,-63,-73
-19,29,48,-4,-34,39,-165,14,-34,39,-63,-78
-19,9,29,4,-24,19,-151,24,-29,29,-58,-68
-24,0,24,12,-24,12,-146,24,-29,34,-58,-68
-43,-4,39,24,-41,17,-146,19,-29,34,-58,-68
-48,-4,43,26,-46,19,-151,19,-24,34,-58,-63
-34,9,43,12,-39,26,-141,19,-14,53,-63,-63
-24,14,39,4,-31,26,-141,19,-24,53,-63,-63
-14,14,29,0,-21,21,-151,14,-24,53,-68,-68
0,-4,-4,2,2,-4,-151,4,-24,53,-73,-73
0,19,19,-9,-9,19,-146,19,-19,58,-58,-63
-9,39,48,-14,-29,43,-136,24,-9,73,-53,-63
-14,53,68,-19,-41,61,-131,24,-4,78,-43,-58
-14,68,82,-26,-48,75,-131,29,0,82,-39,-58
-29,48,78,-9,-53,63,-131,34,0,92,-39,-68
-29,43,73,-7,-51,58,-126,39,4,92,-39,-63
-24,34,58,-4,-41,46,-122,53,4,97,-39,-63
-19,14,34,2,-26,24,-112,58,14,97,-39,-63
-24,14,39,4,-31,26,-102,58,4,87,-48,-73
-24,19,43,2,-34,31,-97,58,4,87,-48,-82
-14,19,34,-2,-24,26,-97,58,14,97,-48,-92
-9,24,34,-7,-21,29,-97,53,14,102,-53,-97
-24,24,48,0,-36,36,-92,58,19,102,-43,-87
-34,24,58,4,-46,41,-73,63,24,107,-43,-68
-39,29,68,4,-53,48,-78,68,34,102,-43,-58
-43,29,73,7,-58,51,-73,73,39,87,-43,-48
-43,24,68,9,-56,46,-82,82,39,97,-34,-48
-39,19,58,9,-48,39,-87,82,39,97,-39,-48
-29,14,43,7,-36,29,-87,78,29,92,-39,-53
-29,9,39,9,-34,24,-87,78,29,92,-39,-53
-29,14,43,7,-36,29,-92,73,34,87,-39,-58
-34,19,53,7,-43,36,-87,73,34,82,-34,-63
-29,29,58,0,-43,43,-87,73,29,78,-34,-68
-19,39,58,-9,-39,48,-87,73,34,73,-34,-73
-14,24,39,-4,-26,31,-87,82,43,82,-24,-68
-4,34,39,-14,-21,36,-87,78,34,78,-29,-58
4,29,24,-17,-9,26,-87,78,34,78,-14,-48
9,24,14,-17,-2,19,-87,87,39,82,-9,-29
9,0,-9,-4,9,-4,-73,78,39,73,4,-9
0,-4,-4,2,2,-4,-68,78,34,73,4,-24
0,4,4,-2,-2,4,-68,78,34,73,4,-24
4,0,-4,-2,4,-2,-68,78,34,78,4,-24
-24,9,34,7,-29,21,-78,58,14,58,-19,-53
-24,0,24,12,-24,12,-68,73,24,78,0,-43
0,0,0,0,0,0,-63,73,39,107,9,-39
-4,-9,-4,7,0,-7,-73,63,29,102,0,-43
0,0,0,0,0,0,-107,58,0,48,-19,-48
0,-9,-9,4,4,-9,-107,58,0,43,-19,-48
0,-9,-9,4,4,-9,-107,58,0,39,-19,-48
0,-9,-9,4,4,-9,-107,58,0,34,-19,-48
0,-9,-9,4,4,-9,-107,58,0,29,-19,-48
-4,-4,0,4,-2,-2,-117,68,4,43,-14,-34
-9,0,9,4,-9,4,-117,68,9,48,-9,-29
-14,4,19,4,-17,12,-117,68,14,53,-4,-24
-19,9,29,4,-24,19,-117,68,19,58,0,-19
-19,4,24,7,-21,14,-122,68,14,43,-4,-9
-19,0,19,9,-19,9,-126,68,9,39,-9,-9
-19,-4,14,12,-17,4,-131,68,4,34,-14,-9
-19,-9,9,14,-14,0,-136,68,0,29,-19,-9
-9,-19,-9,14,0,-14,-146,63,-9,29,-19,-14
-9,-29,-19,19,4,-24,-146,58,-9,29,-19,-19
-9,-39,-29,24,9,-34,-146,53,-9,29,-19,-24
-9,-48,-39,29,14,-43,-146,48,-9,29,-19,-29
0,-43,-43,21,21,-43,-151,58,-14,24,-24,-39
9,-39,-48,14,29,-43,-156,58,-19,19,-29,-39
19,-34,-53,7,36,-43,-161,58,-24,14,-34,-39
29,-29,-58,0,43,-43,-165,58,-29,9,-39,-39
29,-34,-63,2,46,-48,-165,58,-24,19,-29,-29
29,-39,-68,4,48,-53,-165,58,-19,29,-29,-29
29,-43,-73,7,51,-58,-165,58,-14,39,-29,-29
29,-48,-78,9,53,-63,-165,58,-9,48,-29,-29
14,-48,-63,17,39,-56,-156,68,-9,29,-19,-19
9,-48,-58,19,34,-53,-156,68,-9,19,-19,-19
4,-48,-53,21,29,-51,-156,68,-9,9,-19,-19
0,-48,-48,24,24,-48,-156,68,-9,0,-19,-19
0,-53,-53,26,26,-53,-165,53,-14,9,-29,-29
0,-58,-58,29,29,-58,-165,48,-19,9,-29,-29
0,-63,-63,31,31,-63,-165,43,-24,9,-29,-29
0,-68,-68,34,34,-68,-165,39,-29,9,-29,-29
9,-68,-78,29,43,-73,-156,48,-19,19,-19,-34
9,-68,-78,29,43,-73,-156,48,-19,19,-19,-39
9,-68,-78,29,43,-73,-156,48,-19,19,-19,-43
9,-68,-78,29,43,-73,-156,48,-19,19,-19,-48
24,-58,-82,17,53,-70,-146,39,-19,19,-29,-39
29,-58,-87,14,58,-73,-146,39,-19,19,-29,-39
34,-58,-92,12,63,-75,-146,39,-19,19,-29,-39
39,-58,-97,9,68,-78,-146,39,-19,19,-29,-39
34,-68,-102,17,68,-85,-146,39,-19,9,-24,-29
29,-68,-97,19,63,-82,-146,39,-19,9,-19,-29
24,-68,-92,21,58,-80,-146,39,-19,9,-14,-29
19,-68,-87,24,53,-78,-146,39,-19,9,-9,-29
14,-58,-73,21,43,-65,-136,48,-14,14,0,-19
9,-58,-68,24,39,-63,-136,48,-9,19,0,-19
4,-58,-63,26,34,-61,-136,48,-4,24,0,-19
0,-58,-58,29,29,-58,-136,48,0,29,0,-19
4,-68,-73,31,39,-70,-146,48,-14,14,-4,-24
9,-68,-78,29,43,-73,-146,48,-19,9,-9,-29
14,-68,-82,26,48,-75,-146,48,-24,4,-14,-34
19,-68,-87,24,53,-78,-146,48,-29,0,-19,-39
24,-53,-78,14,51,-65,-146,43,-19,14,-19,-34
29,-48,-78,9,53,-63,-146,39,-19,19,-19,-29
34,-43,-78,4,56,-61,-146,34,-19,24,-19,-24
39,-39,-78,0,58,-58,-146,29,-19,29,-19,-19
48,-53,-102,2,75,-78,-141,39,-29,24,-29,-19
48,-58,-107,4,78,-82,-136,39,-29,19,-29,-19
48,-63,-112,7,80,-87,-131,39,-29,14,-29,-19
48,-68,-117,9,82,-92,-126,39,-29,9,-29,-19
39,-58,-97,9,68,-78,-126,34,-39,4,-39,-34
29,-58,-87,14,58,-73,-126,29,-39,0,-39,-39
19,-58,-78,19,48,-68,-126,24,-39,-4,-39,-43
9,-58,-68,24,39,-63,-126,19,-39,-9,-39,-48
24,-58,-82,17,53,-70,-136,29,-39,-4,-39,-48
29,-58,-87,14,58,-73,-146,29,-39,0,-39,-48
34,-58,-92,12,63,-75,-156,29,-39,4,-39,-48
39,-58,-97,9,68,-78,-165,29,-39,9,-39,-48
39,-48,-87,4,63,-68,-170,29,-29,9,-29,-39
39,-48,-87,4,63,-68,-175,29,-29,9,-29,-39
39,-48,-87,4,63,-68,-180,29,-29,9,-29,-39
39,-48,-87,4,63,-68,-185,29,-29,9,-29,-39
29,-58,-87,14,58,-73,-175,29,-19,9,-29,-29
29,-58,-87,14,58,-73,-175,29,-19,9,-29,-29
29,-58,-87,14,58,-73,-175,29,-19,9,-29,-29
29,-58,-87,14,58,-73,-175,29,-19,9,-29,-29
48,-58,-107,4,78,-82,-165,19,-24,4,-39,-39
58,-58,-117,0,87,-87,-165,19,-29,0,-39,-39
68,-58,-126,-4,97,-92,-165,19,-34,-4,-39,-39
78,-58,-136,-9,107,-97,-165,19,-39,-9,-39,-39
68,-58,-126,-4,97,-92,-175,9,-39,0,-39,-39
58,-58,-117,0,87,-87,-175,9,-39,0,-39,-39
48,-58,-107,4,78,-82,-175,9,-39,0,-39,-39
39,-58,-97,9,68,-78,-175,9,-39,0,-39,-39
24,-63,-87,19,56,-75,-165,0,-48,-4,-43,-39
19,-68,-87,24,53,-78,-165,0,-48,-9,-48,-39
14,-73,-87,29,51,-80,-165,0,-48,-14,-53,-39
9,-78,-87,34,48,-82,-165,0,-48,-19,-58,-39
19,-87,-107,34,63,-97,-156,0,-39,-24,-58,-48
19,-87,-107,34,63,-97,-156,0,-39,-29,-58,-48
19,-87,-107,34,63,-97,-156,0,-39,-34,-58,-48
19,-87,-107,34,63,-97,-156,0,-39,-39,-58,-48
9,-92,-102,41,56,-97,-146,9,-39,-24,-48,-39
9,-97,-107,43,58,-102,-146,9,-39,-19,-48,-39
9,-102,-112,46,61,-107,-146,9,-39,-14,-48,-39
9,-107,-117,48,63,-112,-146,9,-39,-9,-48,-39
29,-102,-131,36,80,-117,-156,0,-39,-19,-53,-48
39,-97,-136,29,87,-117,-156,0,-39,-19,-58,-48
48,-92,-141,21,95,-117,-156,0,-39,-19,-63,-48
58,-87,-146,14,102,-117,-156,0,-39,-19,-68,-48
68,-78,-146,4,107,-112,-156,0,-29,-9,-58,-58
68,-78,-146,4,107,-112,-156,0,-29,-9,-58,-58
68,-78,-146,4,107,-112,-156,0,-29,-9,-58,-58
68,-78,-146,4,107,-112,-156,0,-29,-9,-58,-58
58,-68,-126,4,92,-97,-161,0,-29,-19,-58,-58
58,-68,-126,4,92,-97,-165,0,-29,-19,-58,-58
58,-68,-126,4,92,-97,-170,0,-29,-19,-58,-58
58,-68,-126,4,92,-97,-175,0,-29,-19,-58,-58
48,-68,-117,9,82,-92,-175,0,-29,-9,-48,-48
48,-68,-117,9,82,-92,-175,0,-29,-9,-48,-48
48,-68,-117,9,82,-92,-175,0,-29,-9,-48,-48
48,-68,-117,9,82,-92,-175,0,-29,-9,-48,-48
43,-73,-117,14,80,-95,-161,0,-29,-9,-39,-39
39,-78,-117,19,78,-97,-156,0,-29,-9,-39,-29
34,-82,-117,24,75,-100,-151,0,-29,-9,-39,-19
29,-87,-117,29,73,-102,-146,0,-29,-9,-39,-9
39,-78,-117,19,78,-97,-156,0,-19,0,-29,-14
39,-78,-117,19,78,-97,-156,0,-19,0,-29,-19
39,-78,-117,19,78,-97,-156,0,-19,0,-29,-24
39,-78,-117,19,78,-97,-156,0,-19,0,-29,-29
48,-78,-126,14,87,-102,-165,-4,-24,-4,-43,-43
48,-78,-126,14,87,-102,-165,-9,-29,-9,-48,-48
48,-78,-126,14,87,-102,-165,-14,-34,-14,-53,-53
48,-78,-126,14,87,-102,-165,-19,-39,-19,-58,-58
58,-78,-136,9,97,-107,-175,-9,-34,-14,-43,-39
58,-78,-136,9,97,-107,-175,-9,-29,-9,-39,-29
58,-78,-136,9,97,-107,-175,-9,-24,-4,-34,-19
58,-78,-136,9,97,-107,-175,-9,-19,0,-29,-9
68,-63,-131,-2,100,-97,-190,-19,-19,-9,-29,-19
68,-58,-126,-4,97,-92,-195,-19,-19,-9,-29,-19
68,-53,-122,-7,95,-87,-200,-19,-19,-9,-29,-19
68,-48,-117,-9,92,-82,-204,-19,-19,-9,-29,-19
53,-53,-107,0,80,-80,-204,-14,-14,0,-24,-9
48,-58,-107,4,78,-82,-204,-9,-9,0,-19,-9
43,-63,-107,9,75,-85,-204,-4,-4,0,-14,-9
39,-68,-107,14,73,-87,-204,0,0,0,-9,-9
48,-58,-107,4,78,-82,-214,0,0,9,-9,0
48,-58,-107,4,78,-82,-214,0,0,9,-9,0
48,-58,-107,4,78,-82,-214,0,0,9,-9,0
48,-58,-107,4,78,-82,-214,0,0,9,-9,0
39,-63,-102,12,70,-82,-204,9,0,9,0,-9
39,-68,-107,14,73,-87,-204,9,0,9,0,-9
39,-73,-112,17,75,-92,-204,9,0,9,0,-9
39,-78,-117,19,78,-97,-204,9,0,9,0,-9
48,-78,-126,14,87,-102,-200,0,9,14,-4,-14
48,-78,-126,14,87,-102,-195,0,9,19,-9,-19
48,-78,-126,14,87,-102,-190,0,9,24,-14,-24
48,-78,-126,14,87,-102,-185,0,9,29,-19,-29
48,-68,-117,9,82,-92,-175,0,0,19,-24,-24
48,-68,-117,9,82,-92,-175,0,0,9,-29,-19
48,-68,-117,9,82,-92,-175,0,0,0,-34,-14
48,-68,-117,9,82,-92,-175,0,0,-9,-39,-9
39,-63,-102,12,70,-82,-175,-9,-9,0,-29,-14
39,-58,-97,9,68,-78,-175,-9,-9,0,-29,-19
39,-53,-92,7,65,-73,-175,-9,-9,0,-29,-24
39,-48,-87,4,63,-68,-175,-9,-9,0,-29,-29
29,-63,-92,17,61,-78,-165,4,0,14,-19,-29
29,-68,-97,19,63,-82,-165,9,9,19,-19,-29
29,-73,-102,21,65,-87,-165,14,19,24,-19,-29
29,-78,-107,24,68,-92,-165,19,29,29,-19,-29
39,-78,-117,19,78,-97,-156,14,24,24,-24,-39
39,-78,-117,19,78,-97,-156,9,19,19,-29,-39
39,-78,-117,19,78,-97,-156,4,14,14,-34,-39
39,-78,-117,19,78,-97,-156,0,9,9,-39,-39
24,-68,-92,21,58,-80,-146,0,14,14,-29,-24
19,-68,-87,24,53,-78,-146,0,19,19,-29,-19
14,-68,-82,26,48,-75,-146,0,24,24,-29,-14
9,-68,-78,29,43,-73,-146,0,29,29,-29,-9
0,-82,-82,41,41,-82,-146,-9,24,24,-39,-14
0,-87,-87,43,43,-87,-146,-9,19,19,-39,-19
0,-92,-92,46,46,-92,-146,-9,14,14,-39,-24
0,-97,-97,48,48,-97,-146,-9,9,9,-39,-29
14,-97,-112,41,63,-104,-151,-14,4,0,-53,-19
19,-97,-117,39,68,-107,-156,-19,0,0,-58,-19
24,-97,-122,36,73,-109,-161,-24,-4,0,-63,-19
29,-97,-126,34,78,-112,-165,-29,-9,0,-68,-19
14,-97,-112,41,63,-104,-151,-29,0,-9,-53,-14
14,-97,-112,41,63,-104,-146,-29,0,-4,-48,-9
14,-107,-122,46,68,-114,-141,-29,-4,-4,-34,-9
9,-107,-117,48,63,-112,-146,-29,-4,-4,-29,-14
0,-102,-102,51,51,-102,-141,-19,0,0,-39,-24
0,-107,-107,53,53,-107,-131,-19,4,0,-39,-9
-4,-102,-97,53,46,-100,-126,-14,4,0,-43,-9
-4,-87,-82,46,39,-85,-122,-14,9,4,-43,-9
-9,-97,-87,53,39,-92,-122,-24,4,4,-53,-14
4,-92,-97,43,51,-95,-126,-29,4,0,-53,-14
4,-87,-92,41,48,-90,-126,-29,4,-14,-53,-9
4,-87,-92,41,48,-90,-126,-19,9,-9,-53,-4
14,-82,-97,34,56,-90,-126,-19,4,0,-53,-4
14,-82,-97,34,56,-90,-126,-19,4,0,-48,-14
9,-87,-97,39,53,-92,-122,-19,9,0,-43,-19
4,-73,-78,34,41,-75,-122,-24,14,4,-39,-19
-4,-63,-58,34,26,-61,-126,-14,34,9,-34,-9
-4,-63,-58,34,26,-61,-131,-4,39,14,-34,0
4,-63,-68,29,36,-65,-136,-4,39,19,-34,0
19,-68,-87,24,53,-78,-146,-9,34,19,-43,0
29,-58,-87,14,58,-73,-156,-14,19,-4,-58,-9
14,-58,-73,21,43,-65,-165,-19,9,-9,-68,-19
14,-58,-73,21,43,-65,-170,-24,4,-14,-68,-24
29,-53,-82,12,56,-68,-180,-29,0,-14,-68,-24
14,-53,-68,19,41,-61,-180,-39,-9,-14,-68,-24
14,-58,-73,21,43,-65,-180,-34,0,-9,-78,-24
14,-63,-78,24,46,-70,-180,-29,0,-14,-82,-29
9,-68,-78,29,43,-73,-185,-29,0,-29,-82,-29
-4,-68,-63,36,29,-65,-175,-39,4,-24,-73,-39
-4,-68,-63,36,29,-65,-175,-34,4,-4,-63,-39
-9,-68,-58,39,24,-63,-175,-34,9,9,-58,-29
-4,-68,-63,36,29,-65,-175,-34,9,0,-58,-29
4,-63,-68,29,36,-65,-170,-39,4,-9,-63,-48
9,-58,-68,24,39,-63,-165,-39,4,-9,-68,-48
14,-53,-68,19,41,-61,-161,-34,0,0,-68,-48
19,-43,-63,12,41,-53,-156,-34,-4,0,-63,-48
4,-58,-63,26,34,-61,-141,-43,9,-4,-53,-39
0,-58,-58,29,29,-58,-136,-43,9,4,-53,-29
0,-63,-63,31,31,-63,-136,-43,4,-4,-58,-39
-4,-68,-63,36,29,-65,-141,-43,4,-14,-63,-39
-9,-78,-68,43,29,-73,-146,-39,14,-14,-53,-34
-19,-78,-58,48,19,-68,-141,-39,14,-9,-48,-24
-29,-78,-48,53,9,-63,-136,-34,14,-9,-43,-19
-43,-73,-29,58,-7,-51,-131,-29,14,-9,-43,-4
-43,-63,-19,53,-12,-41,-122,-29,29,4,-39,0
-39,-63,-24,51,-7,-43,-117,-24,29,0,-34,4
-34,-63,-29,48,-2,-46,-117,-14,29,4,-29,9
-29,-68,-39,48,4,-53,-112,-9,29,9,-24,9
-24,-58,-34,41,4,-46,-107,-19,14,9,-34,4
-24,-58,-34,41,4,-46,-107,-19,14,9,-34,0
-24,-58,-34,41,4,-46,-107,-24,19,4,-34,-4
-29,-58,-29,43,0,-43,-112,-24,19,0,-34,-9
-39,-68,-29,53,-4,-48,-107,-29,14,-14,-43,-4
-43,-73,-29,58,-7,-51,-102,-29,14,-14,-39,-4
-48,-73,-24,61,-12,-48,-97,-29,4,-14,-39,-4
-53,-68,-14,61,-19,-41,-92,-29,4,-14,-39,-4
-53,-63,-9,58,-21,-36,-82,-24,4,-9,-34,0
-53,-58,-4,56,-24,-31,-82,-24,9,-9,-34,0
-63,-53,9,58,-36,-21,-82,-19,14,-9,-34,0
-53,-48,4,51,-29,-21,-82,-14,19,-9,-34,-9
-43,-48,-4,46,-19,-26,-73,-14,14,-19,-34,-9
-39,-48,-9,43,-14,-29,-73,-14,14,-19,-34,-9
-34,-48,-14,41,-9,-31,-73,-14,19,-19,-34,-9
-34,-43,-9,39,-12,-26,-73,-4,19,-19,-34,-4
-24,-43,-19,34,-2,-31,-63,-4,39,-14,-29,-4
-29,-48,-19,39,-4,-34,-58,-4,39,-9,-29,-4
-29,-53,-24,41,-2,-39,-58,-4,34,-4,-24,0
-19,-58,-39,39,9,-48,-58,-4,29,0,-14,0
-29,-58,-29,43,0,-43,-53,4,43,4,-19,0
-48,-58,-9,53,-19,-34,-48,9,48,9,-14,0
-63,-53,9,58,-36,-21,-43,14,53,19,-14,4
-73,-48,24,61,-48,-12,-39,19,58,24,-14,4
-58,-39,19,48,-39,-9,-48,24,48,34,-4,9
-48,-39,9,43,-29,-14,-48,24,58,39,0,14
-39,-34,4,36,-21,-14,-48,19,58,39,4,14
-29,-34,-4,31,-12,-19,-53,19,58,39,14,19
-34,-29,4,31,-19,-12,-63,19,68,39,14,19
-29,-29,0,29,-14,-14,-63,19,68,39,9,19
-34,-34,0,34,-17,-17,-63,24,68,39,9,19
-43,-34,9,39,-26,-12,-58,24,73,43,9,19
-34,-39,-4,36,-14,-21,-68,24,68,39,4,19
-29,-39,-9,34,-9,-24,-82,19,63,34,4,19
