I,II,III,aVR,aVL,aVF,V1,V2,V3,V4,V5,V6
19,175,156,-97,-68,165,136,507,653,312,78,29
19,175,156,-97,-68,165,136,507,653,312,78,29
19,175,156,-97,-68,165,136,507,653,312,78,29
19,175,156,-97,-68,165,136,507,653,312,78,29
39,165,126,-102,-43,146,131,488,639,307,68,9
48,156,107,-102,-29,131,126,478,634,302,58,0
58,146,87,-102,-14,117,122,468,629,297,48,-9
68,136,68,-102,0,102,117,458,624,292,39,-19
58,141,82,-100,-12,112,136,478,649,312,53,-4
48,146,97,-97,-24,122,146,497,673,322,58,0
39,151,112,-95,-36,131,156,517,697,331,63,4
29,156,126,-92,-48,141,165,536,722,341,68,9
63,180,117,-122,-26,148,180,556,736,356,87,19
87,195,107,-141,-9,151,195,566,751,370,97,29
112,209,97,-161,7,153,209,575,766,385,107,39
136,224,87,-180,24,156,224,585,780,400,117,48
107,195,87,-151,9,141,219,600,790,385,107,34
78,175,97,-126,-9,136,214,605,790,380,97,29
48,156,107,-102,-29,131,209,610,790,375,87,24
19,136,117,-78,-48,126,204,614,790,370,78,19
-4,122,126,-58,-65,124,175,600,775,356,68,4
-29,117,146,-43,-87,131,156,585,761,351,58,-9
-53,112,165,-29,-109,139,136,570,746,346,48,-24
-78,107,185,-14,-131,146,117,556,732,341,39,-39
-78,97,175,-9,-126,136,122,566,736,341,39,-29
-78,87,165,-4,-122,126,126,566,741,341,39,-29
-78,78,156,0,-117,117,131,566,746,341,39,-29
-78,68,146,4,-112,107,136,566,751,341,39,-29
-63,78,141,-7,-102,109,122,566,746,341,48,-19
-58,78,136,-9,-97,107,117,566,741,341,48,-19
-53,78,131,-12,-92,104,112,566,736,341,48,-19
-48,78,126,-14,-87,102,107,566,732,341,48,-19
-92,24,117,34,-104,70,87,541,702,317,19,-39
-136,-19,117,78,-126,48,68,517,683,292,0,-58
-180,-63,117,122,-148,26,48,492,663,268,-19,-78
-224,-107,117,165,-170,4,29,468,644,244,-39,-97
-200,-82,117,141,-158,17,29,463,624,239,-48,-97
-175,-68,107,122,-141,19,29,458,614,234,-48,-97
-151,-53,97,102,-124,21,29,453,605,229,-48,-97
-126,-39,87,82,-107,24,29,448,595,224,-48,-97
-161,-73,87,117,-124,7,39,439,585,214,-48,-97
-195,-97,97,146,-146,0,39,439,585,214,-48,-97
-229,-122,107,175,-168,-7,39,439,585,214,-48,-97
-263,-146,117,204,-190,-14,39,439,585,214,-48,-97
-273,-122,151,197,-212,14,53,429,570,224,-39,-87
-273,-107,165,190,-219,29,58,429,566,224,-39,-78
-273,-92,180,183,-226,43,63,429,561,224,-39,-68
-273,-78,195,175,-234,58,68,429,556,224,-39,-58
-244,-87,156,165,-200,34,53,405,536,200,-48,-68
-224,-97,126,161,-175,14,48,390,517,185,-58,-78
-204,-107,97,156,-151,-4,43,375,497,170,-68,-87
-185,-117,68,151,-126,-24,39,361,478,156,-78,-97
-195,-102,92,148,-143,-4,29,351,463,151,-68,-92
-195,-97,97,146,-146,0,19,341,448,146,-68,-87
-195,-92,102,143,-148,4,9,331,434,141,-68,-82
-195,-87,107,141,-151,9,0,322,419,136,-68,-78
-185,-97,87,141,-136,-4,-14,322,409,126,-58,-73
-175,-107,68,141,-122,-19,-19,322,400,126,-58,-68
-165,-117,48,141,-107,-34,-24,322,390,126,-58,-63
-156,-126,29,141,-92,-48,-29,322,380,126,-58,-58
-185,-131,53,158,-119,-39,-19,292,351,117,-68,-48
-214,-136,78,175,-146,-29,-9,273,331,107,-68,-48
-244,-141,102,192,-173,-19,0,253,312,97,-68,-48
-273,-146,126,209,-200,-9,9,234,292,87,-68,-48
-219,-112,107,165,-163,-2,24,219,278,87,-48,-39
-175,-78,97,126,-136,9,29,214,273,87,-39,-29
-131,-43,87,87,-109,21,34,209,268,87,-29,-19
-87,-9,78,48,-82,34,39,204,263,87,-19,-9
-102,-39,63,70,-82,12,29,180,239,73,-29,-24
-117,-68,48,92,-82,-9,19,165,214,58,-39,-29
-131,-97,34,114,-82,-31,9,151,190,43,-48,-34
-146,-126,19,136,-82,-53,0,136,165,29,-58,-39
-141,-112,29,126,-85,-41,-9,117,151,9,-63,-48
-136,-107,29,122,-82,-39,-19,107,136,0,-68,-48
-131,-102,29,117,-80,-36,-29,97,122,-9,-73,-48
-126,-97,29,112,-78,-34,-39,87,107,-19,-78,-48
-131,-92,39,112,-85,-26,-34,87,102,-9,-68,-34
-136,-87,48,112,-92,-19,-29,87,97,-9,-68,-29
-141,-82,58,112,-100,-12,-24,87,92,-9,-68,-24
-146,-78,68,112,-107,-4,-19,87,87,-9,-68,-19
-122,-73,48,97,-85,-12,-14,73,82,-19,-58,-9
-107,-68,39,87,-73,-14,-9,68,78,-19,-58,-9
-92,-63,29,78,-61,-17,-4,63,73,-19,-58,-9
-78,-58,19,68,-48,-19,0,58,68,-19,-58,-9
-78,-73,4,75,-41,-34,0,53,63,-34,-73,-19
-78,-87,-9,82,-34,-48,0,48,58,-39,-78,-19
-78,-102,-24,90,-26,-63,0,43,53,-43,-82,-19
-78,-117,-39,97,-19,-78,0,39,48,-48,-87,-19
-82,-92,-9,87,-36,-51,0,39,48,-39,-82,-29
-87,-68,19,78,-53,-24,0,39,48,-39,-78,-29
-92,-43,48,68,-70,2,0,39,48,-39,-73,-29
-97,-19,78,58,-87,29,0,39,48,-39,-68,-29
-131,-43,87,87,-109,21,-4,29,48,-48,-73,-39
-156,-68,87,112,-122,9,-9,29,48,-48,-78,-39
-180,-92,87,136,-134,-2,-14,29,48,-48,-82,-39
-204,-117,87,161,-146,-14,-19,29,48,-48,-87,-39
-180,-97,82,139,-131,-7,-24,43,53,-34,-73,-24
-136,-58,78,97,-107,9,-29,58,68,-19,-63,-19
-112,-14,97,63,-104,41,-29,73,82,0,-53,-4
-87,-14,73,51,-80,29,-19,92,87,4,-43,0
-102,-24,78,63,-90,26,-4,97,102,14,-34,4
-146,-14,131,80,-139,58,29,117,112,14,-34,4
-156,-48,107,102,-131,29,34,112,117,14,-39,-9
-146,-58,87,102,-117,14,53,117,126,14,-39,-9
-117,-14,102,65,-109,43,63,117,141,29,-29,0
-78,39,117,19,-97,78,48,107,136,24,-29,-4
-73,29,102,21,-87,65,34,97,141,34,-34,0
-73,53,126,9,-100,90,34,82,131,24,-34,0
-58,48,107,4,-82,78,14,63,117,9,-43,-4
-102,-14,87,58,-95,36,4,29,107,-4,-58,-19
-136,-68,68,102,-102,0,-9,9,97,-9,-58,-24
-185,-112,73,148,-129,-19,-24,-9,97,-14,-58,-29
-161,-87,73,124,-117,-7,-19,-14,102,0,-39,-19
-112,-63,48,87,-80,-7,-29,-9,112,14,-29,-9
-43,14,58,14,-51,36,-29,0,131,34,-4,4
39,107,68,-73,-14,87,-19,9,126,48,-4,24
9,53,43,-31,-17,48,-97,-9,117,29,-29,0
-34,29,63,2,-48,46,-165,-34,92,9,-39,-4
-29,58,87,-14,-58,73,-234,-53,87,0,-39,-4
-48,24,73,12,-61,48,-302,-68,73,0,-39,-4
-58,-4,53,31,-56,24,-273,-68,53,-29,-63,-29
-19,24,43,-2,-31,34,-239,-48,48,-14,-48,-19
39,58,19,-48,9,39,-204,-34,63,9,-34,-4
39,63,24,-51,7,43,-161,-43,48,0,-34,-4
4,43,39,-24,-17,41,-102,-39,53,4,-29,9
39,68,29,-53,4,48,-58,-34,63,14,-19,14
68,82,14,-75,26,48,0,-24,78,24,-9,19
68,92,24,-80,21,58,68,-14,92,29,0,34
68,68,0,-68,34,34,43,0,82,34,9,34
82,39,-43,-61,63,-2,4,0,82,39,14,39
126,78,-48,-102,87,14,-29,0,82,43,24,53
175,107,-68,-141,122,19,-39,4,82,43,24,53
126,53,-73,-90,100,-9,-48,-9,68,29,19,43
97,4,-92,-51,95,-43,-48,9,73,39,19,48
29,-39,-68,4,48,-53,-24,9,68,34,24,53
-19,-92,-73,56,26,-82,-29,4,63,24,4,39
-39,-87,-48,63,4,-68,-48,14,73,34,9,39
-82,-87,-4,85,-39,-46,-39,19,73,29,4,39
-92,-92,0,92,-46,-46,-48,34,78,43,9,43
-68,-58,9,63,-39,-24,-34,48,87,48,24,48
-43,-19,24,31,-34,2,-4,48,78,39,14,34
-73,-34,39,53,-56,2,-9,58,82,39,4,24
-68,-24,43,46,-56,9,-24,53,78,19,-4,14
-43,-14,29,29,-36,7,-29,43,63,0,-29,0
-58,-24,34,41,-46,4,-24,53,53,0,-39,-4
-68,-29,39,48,-53,4,-29,68,53,0,-39,-9
-102,-43,58,73,-80,7,-4,82,68,9,-29,-9
-78,-29,48,53,-63,9,24,82,68,9,-29,-9
-53,-63,-9,58,-21,-36,19,68,53,-9,-48,-19
-92,-97,-4,95,-43,-51,24,48,39,-14,-68,-39
-97,-107,-9,102,-43,-58,14,39,39,-24,-68,-43
-58,-48,9,53,-34,-19,29,39,43,-24,-63,-43
-63,-63,0,63,-31,-31,48,48,43,-19,-63,-43
-112,-92,19,102,-65,-36,39,48,39,-19,-68,-43
-107,-82,24,95,-65,-29,39,48,39,-19,-68,-43
-112,-58,53,85,-82,-2,53,48,39,-19,-68,-43
-141,-82,58,112,-100,-12,43,43,43,-29,-73,-53
-112,-97,14,104,-63,-41,43,43,43,-29,-73,-53
-122,-87,34,104,-78,-26,43,43,43,-24,-68,-53
-161,-112,48,136,-104,-31,43,43,43,-24,-68,-58
-185,-117,68,151,-126,-24,63,53,43,-29,-82,-63
-170,-122,48,146,-109,-36,43,48,43,-29,-82,-63
-165,-92,73,129,-119,-9,43,48,43,-29,-78,-58
-170,-78,92,124,-131,7,58,53,48,-19,-78,-58
-185,-87,97,136,-141,4,43,53,48,-19,-78,-58
-151,-78,73,114,-112,-2,34,53,39,-29,-78,-58
-117,-78,39,97,-78,-19,29,39,39,-34,-78,-58
-87,-87,0,87,-43,-43,29,48,43,-34,-73,-53
-73,-68,4,70,-39,-31,43,73,53,-4,-58,-39
-68,-48,19,58,-43,-14,58,87,58,-4,-58,-29
-53,-39,14,46,-34,-12,58,92,58,0,-43,-19
0,0,0,0,0,0,63,97,68,9,-29,-14
-87,19,107,34,-97,63,-9,48,29,-39,-68,-53
-180,-92,87,136,-134,-2,-9,39,24,-43,-68,-58
-180,-151,29,165,-104,-61,19,48,53,-14,-48,-48
-87,19,107,34,-97,63,112,136,165,78,39,24
-131,29,161,51,-146,95,136,214,229,131,63,43
-161,-122,39,141,-100,-41,48,214,200,73,-9,-53
-53,-112,-58,82,2,-85,4,258,200,78,-24,-82
-4,9,14,-2,-9,12,43,326,229,136,43,-34
-43,-9,34,26,-39,12,48,273,112,117,39,-19
-73,-97,-24,85,-24,-61,29,136,-107,39,9,-29
9,-29,-39,9,24,-34,58,39,-312,19,53,19
97,19,-78,-58,87,-29,48,-170,-595,-53,58,39
-78,-73,4,75,-41,-34,34,-439,-936,-146,48,48
-214,-122,92,168,-153,-14,0,-634,-1220,-204,82,82
-48,-58,-9,53,-19,-34,-92,-785,-1488,-268,102,97
48,29,-19,-39,34,4,-156,-922,-1747,-331,151,136
-19,29,48,-4,-34,39,-185,-1078,-2010,-380,239,229
-68,-92,-24,80,-21,-58,-253,-1332,-2288,-448,292,263
-102,-214,-112,158,4,-163,-341,-1625,-2562,-531,326,263
-87,-175,-87,131,0,-131,-370,-1893,-2796,-580,419,322
146,53,-92,-100,119,-19,-385,-2069,-2942,-541,600,468
356,190,-165,-273,261,12,-429,-2259,-3074,-512,780,595
302,53,-248,-178,275,-97,-556,-2488,-3230,-546,878,634
200,-92,-292,-53,246,-192,-673,-2684,-3333,-580,961,639
214,-131,-346,-41,280,-239,-771,-2840,-3347,-575,1015,653
248,-126,-375,-61,312,-251,-854,-2957,-3323,-585,1034,634
258,-161,-419,-48,339,-290,-883,-3006,-3289,-634,1005,595
302,-209,-512,-46,407,-361,-873,-2962,-3196,-678,966,575
331,-287,-619,-21,475,-453,-834,-2859,-3045,-736,888,541
258,-370,-629,56,444,-500,-780,-2747,-2903,-824,736,497
170,-405,-575,117,373,-490,-756,-2625,-2781,-932,531,434
141,-375,-517,117,329,-446,-746,-2449,-2610,-1005,331,346
229,-278,-507,24,368,-392,-707,-2220,-2371,-1005,185,297
322,-224,-546,-48,434,-385,-649,-1981,-2122,-985,63,224
253,-302,-556,24,405,-429,-610,-1766,-1903,-980,-97,112
195,-356,-551,80,373,-453,-551,-1551,-1668,-980,-287,0
234,-302,-536,34,385,-419,-473,-1332,-1449,-956,-409,-34
253,-283,-536,14,395,-409,-400,-1137,-1259,-907,-458,-68
263,-326,-590,31,427,-458,-336,-946,-1088,-839,-497,-180
209,-366,-575,78,392,-470,-258,-761,-922,-785,-536,-302
78,-444,-522,183,300,-483,-209,-649,-814,-756,-580,-380
14,-522,-536,253,275,-529,-170,-561,-741,-727,-600,-400
9,-566,-575,278,292,-570,-141,-439,-649,-678,-580,-414
-68,-595,-527,331,229,-561,-151,-356,-575,-639,-595,-453
-58,-536,-478,297,209,-507,-146,-307,-517,-614,-605,-463
126,-341,-468,107,297,-405,-87,-248,-444,-566,-561,-424
117,-341,-458,112,287,-400,-78,-224,-409,-566,-561,-424
-43,-527,-483,285,219,-505,-112,-248,-419,-590,-590,-463
-73,-546,-473,309,200,-509,-43,-170,-331,-527,-541,-419
-82,-444,-361,263,139,-402,63,-73,-229,-434,-468,-356
-239,-473,-234,356,-2,-353,39,-78,-224,-429,-473,-370
-336,-492,-156,414,-90,-324,4,-97,-219,-419,-492,-390
-175,-370,-195,273,9,-283,14,-58,-165,-361,-439,-341
-78,-307,-229,192,75,-268,9,-34,-122,-317,-400,-322
-253,-341,-87,297,-82,-214,29,4,-53,-258,-351,-268
-239,-200,39,219,-139,-80,122,112,82,-136,-244,-161
34,19,-14,-26,24,2,141,170,151,-78,-170,-107
136,34,-102,-85,119,-34,92,165,141,-87,-175,-141
9,-48,-58,19,34,-53,68,175,146,-82,-175,-151
-63,-82,-19,73,-21,-51,87,209,175,-48,-170,-141
14,-14,-29,0,21,-21,107,244,204,-14,-151,-117
53,43,-9,-48,31,17,146,263,224,14,-112,-97
-63,-19,43,41,-53,12,170,244,239,34,-87,-78
-107,-43,63,75,-85,9,161,214,244,24,-87,-78
-78,-34,43,56,-61,4,126,214,253,24,-78,-73
-97,-29,68,63,-82,19,151,224,263,34,-68,-68
-78,-19,58,48,-68,19,146,239,283,58,-48,-53
-9,34,43,-12,-26,39,161,258,287,68,-43,-43
-9,63,73,-26,-41,68,136,263,297,78,-29,-34
-29,48,78,-9,-53,63,131,268,307,87,-19,-24
-48,24,73,12,-61,48,131,263,312,92,-19,-29
-68,-4,63,36,-65,29,126,253,312,97,-9,-34
-68,14,82,26,-75,48,117,244,302,97,-29,-43
-78,24,102,26,-90,63,117,239,297,92,-39,-53
-63,34,97,14,-80,65,107,229,292,92,-39,-53
-39,53,92,-7,-65,73,92,229,292,92,-39,-48
-43,53,97,-4,-70,75,102,248,312,102,-24,-39
-34,48,82,-7,-58,65,102,253,322,107,-24,-34
-29,34,63,-2,-46,48,97,253,322,107,-24,-29
-34,14,48,9,-41,31,97,244,322,107,-24,-29
-19,0,19,9,-19,9,97,234,312,97,-39,-34
-4,-4,0,4,-2,-2,97,229,312,97,-43,-39
-14,-19,-4,17,-4,-12,102,239,322,107,-39,-39
-24,-34,-9,29,-7,-21,92,239,336,122,-34,-39
-29,4,34,12,-31,19,92,244,346,112,-24,-39
-24,9,34,7,-29,21,82,248,346,112,-34,-48
-14,53,68,-19,-41,61,82,253,356,122,-24,-48
-24,87,112,-31,-68,100,82,287,380,131,-14,-39
-14,78,92,-31,-53,85,97,283,390,146,-9,-24
-19,68,87,-24,-53,78,97,283,390,146,-9,-24
0,68,68,-34,-34,68,92,287,395,151,-4,-29
29,92,63,-61,-17,78,92,302,400,165,0,-14
43,112,68,-78,-12,90,117,326,429,175,9,4
-14,68,82,-26,-48,75,126,326,434,180,9,-9
-39,48,87,-4,-63,68,122,312,439,180,0,-14
-39,34,73,2,-56,53,136,326,448,190,9,-19
-9,58,68,-24,-39,63,146,312,444,185,0,-24
-48,48,97,0,-73,73,146,326,444,180,4,-24
-63,14,78,24,-70,46,136,322,458,185,0,-24
-43,39,82,2,-63,61,141,326,463,185,0,-19
0,63,63,-31,-31,63,136,326,473,190,0,-29
4,68,63,-36,-29,65,122,336,473,190,0,-39
19,82,63,-51,-21,73,97,346,488,195,0,-39
14,87,73,-51,-29,80,82,356,507,204,0,-39
-29,58,87,-14,-58,73,82,385,527,214,19,-29
-48,24,73,12,-61,48,82,385,531,224,24,-29
-48,24,73,12,-61,48,82,395,541,239,24,-29
-68,19,87,24,-78,53,102,409,546,248,29,-34
-43,53,97,-4,-70,75,131,424,580,253,34,-14
-9,112,122,-51,-65,117,151,439,595,263,34,-9
34,141,107,-87,-36,124,141,439,614,278,39,-9
43,165,122,-104,-39,143,136,448,624,283,43,-9
43,170,126,-107,-41,148,136,463,634,287,53,-14
48,170,122,-109,-36,146,136,473,649,292,63,-14
48,185,136,-117,-43,161,141,488,668,312,63,-4
29,165,136,-97,-53,151,141,478,658,292,48,-19
14,131,117,-73,-51,124,141,468,649,287,39,-24
14,122,107,-68,-46,114,151,497,668,302,39,-24
19,131,112,-75,-46,122,151,512,697,331,53,-19
24,122,97,-73,-36,109,151,517,702,331,53,-19
43,146,102,-95,-29,124,146,536,717,346,63,-14
58,175,117,-117,-29,146,151,541,732,356,68,-9
78,204,126,-141,-24,165,156,556,751,361,73,-4
87,244,156,-165,-34,200,161,566,756,366,78,0
92,253,161,-173,-34,207,175,575,761,370,78,0
97,248,151,-173,-26,200,180,580,771,375,87,4
92,224,131,-158,-19,178,190,600,780,380,87,14
97,219,122,-158,-12,170,195,600,785,385,97,24
97,219,122,-158,-12,170,180,595,785,380,82,14
97,239,141,-168,-21,190,170,600,780,375,78,9
82,234,151,-158,-34,192,161,600,790,380,82,9
68,224,156,-146,-43,190,151,590,771,356,63,-14
73,175,102,-124,-14,139,151,595,756,351,58,-9
73,180,107,-126,-17,143,161,600,756,356,58,-14
87,165,78,-126,4,122,146,595,751,361,63,-9
87,126,39,-107,24,82,117,570,736,336,43,-29
122,185,63,-153,29,124,136,595,761,351,63,-4
122,190,68,-156,26,129,156,600,761,370,78,0
58,151,92,-104,-17,122,161,605,766,361,68,4
39,131,92,-85,-26,112,175,585,766,356,63,9
24,156,131,-90,-53,143,165,585,746,356,68,14
14,180,165,-97,-75,173,165,580,741,356,63,14
-58,146,204,-43,-131,175,165,570,732,351,63,9
-102,136,239,-17,-170,187,165,556,722,336,58,9
-102,131,234,-14,-168,183,146,541,707,322,48,0
-43,136,180,-46,-112,158,126,527,692,307,48,-9
-19,141,161,-61,-90,151,117,512,668,297,39,-24
-39,107,146,-34,-92,126,102,502,658,287,19,-39
-97,92,190,2,-143,141,107,492,653,283,14,-43
-97,43,141,26,-119,92,82,492,649,278,9,-39
-92,87,180,2,-136,134,82,492,639,283,9,-34
-68,107,175,-19,-122,141,97,492,624,283,9,-14
-63,63,126,0,-95,95,73,473,614,263,19,-14
-48,78,126,-14,-87,102,63,468,614,263,19,-4
-58,53,112,2,-85,82,73,473,600,253,19,-14
-68,9,78,29,-73,43,68,453,566,239,9,-24
-14,63,78,-24,-46,70,87,463,556,239,19,-9
-9,78,87,-34,-48,82,92,458,556,244,19,4
-19,122,141,-51,-80,131,102,458,561,258,24,9
19,175,156,-97,-68,165,117,458,541,248,24,14
4,175,170,-90,-82,173,126,424,512,229,19,9
-14,136,151,-61,-82,143,102,409,497,214,4,4
-68,78,146,-4,-107,112,78,385,483,204,4,0
-48,53,102,-2,-75,78,73,361,463,185,4,0
0,82,82,-41,-41,82,92,366,458,200,14,4
-4,112,117,-53,-61,114,87,346,434,190,9,4
-4,117,122,-56,-63,119,87,346,424,190,9,9
39,165,126,-102,-43,146,146,351,429,195,24,34
68,170,102,-119,-17,136,131,331,409,185,14,39
14,122,107,-68,-46,114,87,312,375,156,0,14
-39,82,122,-21,-80,102,58,287,341,146,0,9
-14,92,107,-39,-61,100,58,283,331,141,19,19
4,122,117,-63,-56,119,58,263,317,146,14,14
19,122,102,-70,-41,112,63,253,307,131,4,9
34,112,78,-73,-21,95,73,248,297,131,9,24
34,112,78,-73,-21,95,78,229,273,122,9,29
53,141,87,-97,-17,114,73,209,239,92,-9,9
92,185,92,-139,0,139,78,204,234,87,4,24
53,146,92,-100,-19,119,78,200,234,82,4,24
53,92,39,-73,7,65,43,170,195,63,-4,9
73,97,24,-85,24,61,48,161,190,58,4,14
97,122,24,-109,36,73,63,165,195,63,4,34
117,131,14,-124,51,73,53,170,185,58,4,39
141,136,-4,-139,73,65,24,151,161,39,-19,24
151,126,-24,-139,87,51,19,161,165,58,9,43
131,102,-29,-117,80,36,19,170,175,68,19,58
53,73,19,-63,17,46,73,180,180,78,29,68
19,24,4,-21,7,14,68,170,175,73,34,68
0,4,4,-2,-2,4,68,136,141,43,0,34
14,48,34,-31,-9,41,39,102,117,19,-24,24
39,73,34,-56,2,53,14,78,82,-4,-43,4
-39,39,78,0,-58,58,-34,68,73,-14,-58,-19
-19,58,78,-19,-48,68,-29,78,73,-24,-48,-14
-24,43,68,-9,-46,56,-24,48,58,-34,-63,-14
-24,48,73,-12,-48,61,-19,68,68,-9,-53,0
0,43,43,-21,-21,43,-4,97,102,9,-29,24
24,92,68,-58,-21,80,14,107,107,24,-14,48
19,87,68,-53,-24,78,24,87,102,19,-24,34
-19,92,112,-36,-65,102,34,87,107,24,-24,34
-24,97,122,-36,-73,109,68,102,126,39,-19,48
39,-58,-97,9,68,-78,97,107,117,29,-19,48
58,58,0,-58,29,29,107,136,146,58,0,68
39,78,39,-58,0,58,87,117,136,39,-9,53
29,87,58,-58,-14,73,68,107,126,29,-19,39
19,97,78,-58,-29,87,48,97,117,19,-29,24
9,107,97,-58,-43,102,29,87,107,9,-39,9
43,146,102,-95,-29,124,39,107,131,34,-19,14
58,180,122,-119,-31,151,43,126,146,53,-9,29
73,170,97,-122,-12,134,58,151,151,58,0,34
82,180,97,-131,-7,139,58,161,165,63,4,34
58,185,126,-122,-34,156,82,165,161,53,4,34
58,156,97,-107,-19,126,78,146,161,53,0,19
78,151,73,-114,2,112,87,136,165,53,0,19
87,175,87,-131,0,131,92,146,190,78,19,43
131,239,107,-185,12,173,92,146,200,92,39,58
141,229,87,-185,26,158,92,146,219,112,43,73
146,253,107,-200,19,180,107,141,224,112,53,82
219,307,87,-263,65,197,117,122,224,107,53,87
175,268,92,-222,41,180,87,78,200,82,29,73
151,239,87,-195,31,163,63,58,185,78,29,68
112,219,107,-165,2,163,39,39,180,73,29,63
63,175,112,-119,-24,143,4,24,161,73,29,48
53,126,73,-90,-9,100,-19,4,146,53,9,34
73,141,68,-107,2,104,-34,0,141,48,14,34
107,170,63,-139,21,117,-39,-4,112,39,-4,39
87,107,19,-97,34,63,-48,-29,87,19,-29,19
24,68,43,-46,-9,56,-68,-63,58,-14,-43,4
19,82,63,-51,-21,73,-87,-82,48,-29,-48,-4
-9,34,43,-12,-26,39,-107,-97,29,-34,-53,-14
-48,-29,19,39,-34,-4,-122,-97,9,-58,-73,-39
14,29,14,-21,0,21,-107,-63,29,-34,-53,-14
87,82,-4,-85,46,39,-102,-43,58,0,-34,4
102,107,4,-104,48,56,-87,-48,58,0,-29,9
73,92,19,-82,26,56,-82,-43,63,9,-24,14
58,68,9,-63,24,39,-107,-53,58,4,-19,14
48,43,-4,-46,26,19,-117,-48,58,9,-14,14
9,14,4,-12,2,9,-117,-43,58,9,-9,24
-53,-29,24,41,-39,-2,-126,-29,53,14,-9,24
-39,-68,-29,53,-4,-48,-126,-39,43,9,-14,19
-4,-29,-24,17,9,-26,-122,-39,43,14,-4,34
34,0,-34,-17,34,-17,-92,-34,43,14,-4,34
43,0,-43,-21,43,-21,-78,-34,43,14,0,39
102,24,-78,-63,90,-26,-63,9,68,48,29,68
112,43,-68,-78,90,-12,-24,24,82,58,53,87
141,53,-87,-97,114,-17,-14,34,97,63,53,87
175,73,-102,-124,139,-14,-9,39,107,68,53,92
107,68,-39,-87,73,14,9,48,112,58,34,78
73,58,-14,-65,43,21,9,58,112,68,34,78
73,87,14,-80,29,51,34,68,117,68,43,78
39,97,58,-68,-9,78,68,82,122,68,43,78
19,82,63,-51,-21,73,58,97,122,78,43,73
24,92,68,-58,-21,80,48,97,122,68,43,68
48,102,53,-75,-2,78,48,92,112,58,29,58
53,122,68,-87,-7,95,48,92,102,48,9,43
29,102,73,-65,-21,87,43,102,92,43,4,34
-9,73,82,-31,-46,78,68,112,107,48,9,29
9,73,63,-41,-26,68,97,107,107,43,4,24
39,43,4,-41,17,24,92,97,102,29,-9,19
-9,29,39,-9,-24,34,92,97,87,29,-24,4
-14,29,43,-7,-29,36,78,97,87,24,-19,4
24,97,73,-61,-24,85,87,107,92,29,-9,9
19,73,53,-46,-17,63,107,107,92,29,-4,14
-19,24,43,-2,-31,34,73,102,73,14,-24,0
-4,14,19,-4,-12,17,48,97,68,9,-29,-4
0,19,19,-9,-9,19,39,92,63,4,-34,-9
-14,9,24,2,-19,17,14,82,53,-9,-53,-14
34,29,-4,-31,19,12,39,92,68,4,-39,-4
43,73,29,-58,7,51,63,92,73,14,-29,4
24,82,58,-53,-17,70,87,92,78,19,-24,9
14,82,68,-48,-26,75,122,92,82,19,-24,14
58,82,24,-70,17,53,97,78,82,9,-34,9
92,107,14,-100,39,61,92,78,82,9,-29,9
117,117,0,-117,58,58,102,82,87,19,-29,4
112,126,14,-119,48,70,97,92,87,19,-29,0
87,117,29,-102,29,73,82,87,73,0,-39,-9
73,107,34,-90,19,70,82,68,68,-4,-39,-9
53,87,34,-70,9,61,87,73,68,-4,-34,-4
0,58,58,-29,-29,58,87,78,63,4,-34,-4
-19,19,39,0,-29,29,78,87,63,4,-43,0
-29,-19,9,24,-19,-4,63,78,58,0,-39,-4
0,-29,-29,14,14,-29,53,68,63,0,-34,-14
29,-29,-58,0,43,-43,48,68,78,9,-19,-4
200,209,9,-204,95,109,165,156,170,92,58,68
14,73,58,-43,-21,65,107,136,151,63,9,19
-9,87,97,-39,-53,92,82,224,224,117,48,24
73,175,102,-124,-14,139,117,351,326,209,122,73
92,141,48,-117,21,95,97,380,317,219,117,53
63,92,29,-78,17,61,92,336,219,175,92,34
82,126,43,-104,19,85,102,239,34,126,82,34
122,156,34,-139,43,95,107,97,-200,68,68,39
24,107,82,-65,-29,95,117,-58,-458,19,78,68
-78,-39,39,58,-58,0,87,-331,-810,-97,53,68
0,-68,-68,34,34,-68,29,-610,-1171,-209,48,58
185,92,-92,-139,139,0,34,-712,-1356,-204,146,146
214,180,-34,-197,124,73,-9,-790,-1571,-224,239,229
234,156,-78,-195,156,39,-141,-1010,-1908,-356,229,234
322,244,-78,-283,200,82,-195,-1215,-2137,-380,317,302
331,380,48,-356,141,214,-165,-1322,-2264,-312,502,453
390,395,4,-392,192,200,-185,-1546,-2493,-331,614,527
541,409,-131,-475,336,139,-234,-1820,-2737,-385,697,585
692,536,-156,-614,424,190,-263,-2030,-2884,-356,868,712
761,600,-161,-680,461,219,-336,-2225,-3010,-356,1019,800
766,531,-234,-649,500,148,-439,-2405,-3113,-375,1122,839
771,434,-336,-602,553,48,-507,-2557,-3123,-361,1229,878
766,385,-380,-575,573,2,-566,-2644,-3069,-326,1293,893
771,375,-395,-573,583,-9,-614,-2713,-3035,-351,1288,878
775,341,-434,-558,605,-46,-639,-2742,-2991,-429,1229,829
707,239,-468,-473,588,-114,-639,-2693,-2908,-517,1112,751
595,63,-531,-329,563,-234,-629,-2630,-2815,-639,927,653
546,-43,-590,-251,568,-317,-610,-2527,-2693,-766,732,590
570,19,-551,-295,561,-265,-575,-2337,-2493,-824,561,546
610,122,-488,-366,549,-183,-580,-2156,-2303,-883,375,444
570,102,-468,-336,519,-183,-590,-1991,-2113,-927,165,317
473,4,-468,-239,470,-231,-580,-1790,-1903,-927,0,200
448,-68,-517,-190,483,-292,-522,-1542,-1664,-897,-170,107
488,-87,-575,-200,531,-331,-444,-1307,-1444,-883,-312,43
488,-131,-619,-178,553,-375,-385,-1112,-1268,-863,-405,-9
429,-234,-663,-97,546,-448,-317,-951,-1117,-829,-458,-112
312,-341,-653,14,483,-497,-253,-814,-966,-790,-527,-273
185,-424,-610,119,397,-517,-248,-722,-873,-790,-605,-395
190,-405,-595,107,392,-500,-239,-644,-805,-766,-624,-419
224,-385,-610,80,417,-497,-190,-531,-707,-707,-610,-429
73,-492,-566,209,319,-529,-180,-444,-634,-688,-629,-468
-78,-575,-497,326,209,-536,-151,-361,-570,-658,-629,-483
-78,-497,-419,287,170,-458,-53,-258,-458,-570,-556,-414
-87,-409,-322,248,117,-366,48,-161,-341,-478,-478,-336
-126,-400,-273,263,73,-336,68,-112,-287,-439,-444,-307
-156,-409,-253,283,48,-331,48,-87,-253,-419,-434,-307
-239,-497,-258,368,9,-378,-4,-122,-263,-453,-483,-375
-248,-575,-326,412,39,-451,-82,-180,-312,-507,-551,-439
-151,-473,-322,312,85,-397,-82,-151,-268,-473,-536,-434
-131,-356,-224,244,46,-290,-39,-68,-185,-380,-463,-361
-229,-414,-185,322,-21,-300,-34,-48,-141,-341,-434,-341
-312,-497,-185,405,-63,-341,-53,-58,-136,-331,-409,-341
-312,-492,-180,402,-65,-336,-9,-43,-82,-287,-361,-312
-244,-429,-185,336,-29,-307,39,4,-14,-219,-302,-258
-239,-375,-136,307,-51,-256,43,53,34,-175,-273,-229
-190,-244,-53,217,-68,-148,53,92,82,-136,-239,-214
-126,-180,-53,153,-36,-117,82,117,112,-107,-224,-200
-234,-322,-87,278,-73,-204,68,117,117,-112,-234,-209
-356,-366,-9,361,-173,-187,78,151,136,-87,-209,-190
-297,-219,78,258,-187,-70,117,204,185,-24,-151,-136
-307,-229,78,268,-192,-75,78,175,175,-43,-151,-146
-424,-380,43,402,-234,-168,14,107,122,-102,-195,-204
-292,-258,34,275,-163,-112,24,126,156,-63,-165,-165
-287,-268,19,278,-153,-124,4,141,165,-53,-161,-146
-322,-273,48,297,-185,-112,34,156,185,-34,-146,-136
-317,-273,43,295,-180,-114,34,175,214,0,-122,-117
-263,-229,34,246,-148,-97,53,200,229,19,-112,-102
-268,-204,63,236,-165,-70,39,204,239,34,-102,-92
-292,-224,68,258,-180,-78,34,209,248,39,-87,-82
-317,-253,63,285,-190,-95,34,204,253,39,-82,-87
-341,-287,53,314,-197,-117,29,195,253,39,-68,-92
-331,-258,73,295,-202,-92,43,170,248,34,-92,-102
-341,-248,92,295,-217,-78,48,161,239,24,-107,-112
-326,-239,87,283,-207,-75,43,146,229,19,-112,-112
-302,-219,82,261,-192,-68,34,141,224,14,-117,-107
-283,-200,82,241,-183,-58,48,170,253,34,-92,-92
-258,-185,73,222,-165,-56,53,185,273,48,-82,-82
-239,-180,58,209,-148,-61,53,195,283,58,-73,-73
-229,-180,48,204,-139,-65,58,195,292,68,-63,-68
-195,-151,43,173,-119,-53,73,195,297,73,-68,-63
-170,-122,48,146,-109,-36,87,200,302,78,-63,-58
-170,-102,68,136,-119,-17,107,219,317,92,-48,-48
-170,-82,87,126,-129,2,112,229,336,112,-34,-39
-204,-97,107,151,-156,4,82,214,312,87,-58,-63
-239,-146,92,192,-165,-26,53,200,297,73,-82,-87
-268,-156,112,212,-190,-21,34,185,292,68,-87,-102
-317,-175,141,246,-229,-17,14,200,302,63,-92,-107
-302,-195,107,248,-204,-43,29,195,312,63,-82,-97
-312,-214,97,263,-204,-58,29,195,312,58,-87,-102
-297,-224,73,261,-185,-75,24,200,317,58,-87,-112
-273,-209,63,241,-168,-73,24,214,322,68,-87,-102
-229,-170,58,200,-143,-56,39,229,341,87,-87,-92
-278,-195,82,236,-180,-56,39,229,346,92,-87,-107
-292,-195,97,244,-195,-48,24,214,351,92,-97,-112
-283,-190,92,236,-187,-48,29,229,361,102,-87,-117
-273,-180,92,226,-183,-43,39,224,366,97,-87,-122
-331,-214,117,273,-224,-48,39,239,366,92,-82,-122
-366,-273,92,319,-229,-90,29,234,380,97,-87,-122
-366,-273,92,319,-229,-90,34,239,385,97,-87,-117
-307,-229,78,268,-192,-75,48,258,414,122,-78,-107
-297,-204,92,251,-195,-56,43,278,424,131,-68,-107
-278,-170,107,224,-192,-31,29,297,448,146,-58,-97
-278,-146,131,212,-204,-7,24,317,478,165,-48,-87
-341,-195,146,268,-244,-24,14,307,463,156,-53,-102
-390,-258,131,324,-261,-63,4,287,453,146,-63,-117
-419,-287,131,353,-275,-78,-4,278,448,141,-78,-131
-468,-322,146,395,-307,-87,4,273,439,131,-87,-151
-483,-356,126,419,-305,-114,19,292,453,141,-97,-146
-488,-346,141,417,-314,-102,24,312,468,146,-102,-146
-483,-366,117,424,-300,-124,0,317,488,156,-102,-151
-512,-390,122,451,-317,-134,-19,331,497,156,-102,-156
-453,-341,112,397,-283,-114,-14,351,531,185,-82,-141
-390,-297,92,344,-241,-102,0,366,551,195,-63,-131
-331,-239,92,285,-212,-73,19,385,575,219,-53,-112
-292,-214,78,253,-185,-68,34,380,570,204,-58,-117
-312,-224,87,268,-200,-68,24,375,561,190,-63,-131
-317,-219,97,268,-207,-61,34,409,580,204,-68,-131
-317,-195,122,256,-219,-36,34,429,610,234,-58,-126
-317,-190,126,253,-222,-31,34,439,614,234,-63,-126
-297,-185,112,241,-204,-36,34,448,629,248,-48,-126
-283,-185,97,234,-190,-43,43,453,644,258,-39,-117
-263,-185,78,224,-170,-53,53,468,663,263,-29,-107
-253,-175,78,214,-165,-48,63,478,668,268,-19,-97
-297,-180,117,239,-207,-31,53,478,663,258,-39,-117
-331,-190,141,261,-236,-24,43,473,663,258,-39,-122
-375,-219,156,297,-265,-31,39,483,663,258,-48,-122
-409,-229,180,319,-295,-24,29,473,658,258,-48,-122
-361,-190,170,275,-265,-9,29,468,653,258,-48,-122
-322,-151,170,236,-246,9,34,473,653,258,-48,-117
-297,-136,161,217,-229,12,39,473,668,268,-39,-107
-273,-126,146,200,-209,9,43,463,653,248,-53,-122
-263,-165,97,214,-180,-34,53,483,658,253,-48,-107
-268,-151,117,209,-192,-17,73,502,668,268,-39,-102
-258,-156,102,207,-180,-26,68,512,673,283,-24,-87
-263,-185,78,224,-170,-53,48,502,668,268,-34,-97
-229,-122,107,175,-168,-7,48,517,668,263,-24,-102
-229,-112,117,170,-173,2,48,512,653,273,-19,-107
-292,-146,146,219,-219,0,34,507,644,253,-39,-112
-312,-161,151,236,-231,-4,29,478,629,239,-53,-117
-283,-131,151,207,-217,9,43,468,624,244,-53,-112
-258,-92,165,175,-212,36,58,463,624,248,-53,-102
-297,-112,185,204,-241,36,73,453,619,248,-48,-97
-307,-107,200,207,-253,46,87,439,614,239,-48,-87
-331,-141,190,236,-261,24,68,419,600,214,-68,-107
-297,-156,141,226,-219,-7,39,400,575,200,-68,-117
-297,-170,126,234,-212,-21,19,380,541,190,-78,-131
-341,-224,117,283,-229,-53,-4,366,522,180,-97,-146
-448,-268,180,358,-314,-43,0,370,522,180,-97,-141
-488,-336,151,412,-319,-92,-24,375,522,170,-97,-136
-522,-312,209,417,-366,-51,-24,380,517,170,-92,-131
-536,-312,224,424,-380,-43,-9,385,507,165,-87,-112
-483,-322,161,402,-322,-80,-19,356,492,151,-97,-117
-439,-283,156,361,-297,-63,-24,341,488,146,-97,-112
-419,-283,136,351,-278,-73,-9,336,468,131,-97,-126
-400,-302,97,351,-248,-102,-9,307,429,112,-107,-141
-414,-312,102,363,-258,-104,-19,287,395,87,-126,-156
-468,-351,117,409,-292,-117,-43,273,380,78,-136,-151
-536,-361,175,448,-356,-92,-63,263,370,78,-141,-156
-556,-361,195,458,-375,-82,-78,253,336,53,-151,-161
-566,-370,195,468,-380,-87,-63,234,317,39,-156,-170
-590,-419,170,505,-380,-124,-82,224,302,29,-170,-170
-649,-488,161,568,-405,-163,-102,204,287,24,-170,-170
-634,-522,112,578,-373,-204,-102,185,268,9,-170,-165
-527,-448,78,488,-302,-185,-87,200,273,24,-146,-151
-473,-375,97,424,-285,-139,-87,190,258,24,-136,-141
-414,-326,87,370,-251,-119,-82,200,258,34,-122,-126
-312,-234,78,273,-195,-78,-19,214,273,48,-92,-92
-292,-253,39,273,-165,-107,-24,185,244,39,-102,-97
-366,-317,48,341,-207,-134,-58,156,209,9,-126,-122
-439,-370,68,405,-253,-151,-78,122,175,0,-136,-126
-434,-375,58,405,-246,-158,-68,107,165,-4,-126,-117
-405,-331,73,368,-239,-129,-68,107,156,-4,-117,-107
-390,-326,63,358,-226,-131,-73,107,151,-14,-122,-107
-375,-331,43,353,-209,-143,-73,112,146,-9,-112,-87
-375,-326,48,351,-212,-139,-78,102,126,-14,-107,-78
-346,-287,58,317,-202,-114,-82,78,102,-29,-126,-87
-307,-244,63,275,-185,-90,-68,78,97,-29,-112,-73
-346,-283,63,314,-204,-109,-58,78,97,-29,-112,-73
-346,-336,9,341,-178,-163,-82,53,58,-43,-122,-87
-346,-326,19,336,-183,-153,-92,19,34,-63,-136,-102
-341,-307,34,324,-187,-136,-82,9,29,-73,-141,-92
-341,-302,39,322,-190,-131,-97,0,9,-92,-146,-97
-336,-302,34,319,-185,-134,-131,-34,-24,-126,-175,-122
-317,-317,0,317,-158,-158,-136,-39,-19,-122,-156,-112
-326,-346,-19,336,-153,-183,-146,-34,-19,-117,-156,-107
-395,-380,14,387,-204,-183,-102,-29,-24,-112,-156,-107
-419,-434,-14,427,-202,-224,-117,-43,-39,-122,-161,-117
-439,-458,-19,448,-209,-239,-107,-53,-63,-146,-170,-136
-434,-429,4,431,-219,-212,-117,-73,-68,-156,-180,-131
-419,-419,0,419,-209,-209,-122,-82,-82,-165,-185,-136
-507,-468,39,488,-273,-214,-151,-78,-73,-161,-185,-146
-561,-492,68,527,-314,-212,-165,-97,-87,-190,-209,-170
-629,-551,78,590,-353,-236,-180,-136,-117,-209,-239,-190
-692,-590,102,641,-397,-244,-195,-126,-122,-195,-244,-195
-732,-639,92,685,-412,-273,-200,-107,-102,-185,-234,-190
-390,-263,126,326,-258,-68,-53,-19,4,-87,-126,-68
-361,-390,-29,375,-165,-209,-161,-117,-102,-195,-229,-170
-595,-585,9,590,-302,-287,-204,-165,-156,-244,-273,-224
-570,-546,24,558,-297,-261,-180,-141,-136,-214,-248,-200
-556,-517,39,536,-297,-239,-165,-126,-117,-195,-234,-185
-541,-488,53,514,-297,-217,-151,-112,-97,-175,-219,-170
-527,-458,68,492,-297,-195,-136,-97,-78,-156,-204,-156
-483,-414,68,448,-275,-173,-136,-82,-63,-146,-190,-146
-468,-375,92,422,-280,-141,-131,-68,-48,-131,-185,-136
-453,-380,73,417,-263,-153,-117,-48,-43,-131,-180,-136
-444,-366,78,405,-261,-143,-117,-43,-29,-131,-180,-141
-483,-366,117,424,-300,-124,-102,-19,-34,-131,-180,-141
-488,-400,87,444,-287,-156,-117,-29,-34,-131,-185,-156
-473,-409,63,441,-268,-173,-117,-29,-29,-131,-185,-156
-468,-390,78,429,-273,-156,-122,-9,-4,-107,-165,-131
-468,-366,102,417,-285,-131,-117,-24,0,-112,-165,-131
-502,-395,107,448,-305,-143,-112,-29,14,-92,-161,-122
-541,-390,151,466,-346,-119,-92,-39,14,-92,-151,-117
-512,-356,156,434,-334,-100,-78,-63,9,-97,-151,-117
-522,-375,146,448,-334,-114,-97,-92,9,-97,-161,-117
-522,-385,136,453,-329,-124,-122,-107,0,-97,-156,-117
-536,-385,151,461,-344,-117,-146,-122,0,-97,-151,-117
-561,-409,151,485,-356,-129,-180,-131,-14,-92,-146,-126
-580,-458,122,519,-351,-168,-195,-151,-24,-112,-156,-141
-570,-444,126,507,-348,-158,-200,-156,-24,-117,-151,-141
-546,-414,131,480,-339,-141,-195,-161,-48,-126,-170,-136
-575,-478,97,527,-336,-190,-195,-185,-68,-146,-195,-156
-624,-512,112,568,-368,-200,-209,-204,-82,-156,-195,-161
-614,-483,131,549,-373,-175,-224,-219,-87,-165,-195,-161
-629,-517,112,573,-370,-202,-239,-229,-102,-165,-195,-161
-653,-566,87,610,-370,-239,-248,-224,-117,-185,-209,-175
-570,-512,58,541,-314,-226,-253,-204,-107,-170,-195,-165
-478,-463,14,470,-246,-224,-258,-190,-87,-146,-180,-151
-444,-444,0,444,-222,-222,-253,-200,-97,-156,-180,-151
-453,-463,-9,458,-222,-236,-258,-200,-102,-156,-180,-151
-405,-434,-29,419,-187,-231,-268,-190,-87,-141,-161,-141
-370,-414,-43,392,-163,-229,-263,-175,-78,-126,-151,-131
-366,-400,-34,383,-165,-217,-248,-161,-68,-117,-141,-112
-385,-400,-14,392,-185,-207,-244,-136,-63,-102,-136,-102
-385,-434,-48,409,-168,-241,-253,-146,-63,-107,-141,-107
-356,-400,-43,378,-156,-222,-258,-146,-63,-102,-131,-92
-322,-375,-53,348,-134,-214,-239,-141,-63,-102,-131,-92
-317,-380,-63,348,-126,-222,-234,-141,-63,-102,-126,-87
-326,-395,-68,361,-129,-231,-234,-131,-58,-97,-122,-82
-366,-405,-39,385,-163,-222,-200,-131,-63,-97,-112,-78
-385,-424,-39,405,-173,-231,-195,-136,-68,-102,-126,-92
-400,-434,-34,417,-183,-234,-195,-146,-78,-107,-141,-102
-429,-424,4,427,-217,-209,-185,-146,-92,-122,-151,-117
-424,-429,-4,427,-209,-217,-195,-136,-92,-117,-151,-117
-385,-395,-9,390,-187,-202,-180,-126,-87,-122,-141,-117
-380,-380,0,380,-190,-190,-156,-112,-82,-126,-141,-117
-424,-409,14,417,-219,-197,-136,-82,-58,-102,-136,-107
-434,-414,19,424,-226,-197,-136,-78,-53,-107,-131,-107
-424,-419,4,422,-214,-207,-126,-78,-58,-112,-141,-112
-434,-414,19,424,-226,-197,-117,-73,-63,-117,-156,-122
-463,-444,19,453,-241,-212,-131,-68,-63,-117,-156,-126
-517,-483,34,500,-275,-224,-117,-53,-48,-107,-146,-126
-512,-492,19,502,-265,-236,-97,-53,-48,-107,-146,-126
-497,-531,-34,514,-231,-283,-112,-58,-53,-117,-156,-126
-551,-566,-14,558,-268,-290,-117,-78,-82,-126,-185,-151
-570,-575,-4,573,-283,-290,-136,-78,-87,-141,-185,-161
-546,-517,29,531,-287,-244,-131,-68,-87,-146,-180,-165
-566,-551,14,558,-290,-268,-117,-68,-92,-156,-180,-170
-566,-541,24,553,-295,-258,-112,-73,-92,-146,-185,-161
-522,-502,19,512,-270,-241,-107,-78,-87,-146,-185,-161
-488,-448,39,468,-263,-204,-87,-82,-82,-146,-185,-161
-473,-409,63,441,-268,-173,-82,-92,-82,-156,-200,-161
-419,-390,29,405,-224,-180,-68,-78,-73,-151,-185,-156
-405,-356,48,380,-226,-153,-63,-73,-73,-141,-175,-151
-419,-356,63,387,-241,-146,-58,-68,-73,-136,-170,-151
-424,-366,58,395,-241,-153,-43,-63,-73,-136,-170,-151
-409,-385,24,397,-217,-180,-63,-58,-68,-126,-170,-141
-405,-370,34,387,-219,-168,-63,-58,-63,-126,-165,-136
-409,-370,39,390,-224,-165,-48,-53,-53,-117,-165,-136
-444,-370,73,407,-258,-148,-48,-43,-48,-117,-165,-136
-444,-385,58,414,-251,-163,-58,-53,-63,-131,-170,-141
-434,-400,34,417,-234,-183,-63,-68,-68,-141,-175,-146
-429,-424,4,427,-217,-209,-63,-58,-68,-146,-175,-146
-458,-458,0,458,-229,-229,-68,-48,-73,-141,-180,-151
-488,-478,9,483,-248,-234,-82,-63,-82,-156,-204,-161
-497,-497,0,497,-248,-248,-102,-78,-97,-165,-204,-170
-468,-488,-19,478,-224,-253,-117,-92,-102,-170,-204,-185
-439,-468,-29,453,-204,-248,-126,-97,-97,-165,-195,-180
-463,-483,-19,473,-222,-251,-107,-87,-92,-161,-204,-185
-395,-405,-9,400,-192,-207,-78,-78,-73,-151,-195,-175
-370,-312,58,341,-214,-126,-43,-9,0,-87,-146,-141
-395,-351,43,373,-219,-153,-39,58,63,-34,-112,-122
-405,-444,-39,424,-183,-241,-48,136,122,4,-87,-122
-473,-483,-9,478,-231,-246,-24,219,180,48,-53,-92
-551,-478,73,514,-312,-202,-24,209,122,39,-53,-92
-580,-507,73,544,-326,-217,-58,97,-73,-39,-97,-126
-697,-614,82,656,-390,-265,-126,-68,-351,-136,-146,-175
-732,-605,126,668,-429,-239,-146,-234,-624,-204,-161,-175
-507,-370,136,439,-322,-117,-68,-395,-868,-229,-97,-97
-361,-219,141,290,-251,-39,-43,-605,-1141,-263,-39,-29
-380,-258,122,319,-251,-68,-117,-810,-1424,-331,-24,-4
-419,-351,68,385,-244,-141,-200,-951,-1673,-405,-4,9
-361,-351,9,356,-185,-170,-244,-1098,-1932,-458,63,78
-273,-292,-19,283,-126,-156,-273,-1263,-2176,-488,170,170
-351,-395,-43,373,-153,-219,-370,-1507,-2444,-556,224,185
-434,-556,-122,495,-156,-339,-497,-1800,-2747,-658,248,165
-351,-497,-146,424,-102,-322,-575,-2049,-2991,-697,351,224
-341,-424,-82,383,-129,-253,-629,-2274,-3157,-688,502,341
-356,-453,-97,405,-129,-275,-741,-2503,-3308,-697,624,409
-204,-453,-248,329,21,-351,-849,-2684,-3425,-702,741,478
-73,-453,-380,263,153,-417,-897,-2791,-3420,-668,893,551
-29,-453,-424,241,197,-439,-917,-2888,-3376,-624,985,595
-43,-468,-424,256,190,-446,-902,-2996,-3342,-634,1005,585
-209,-649,-439,429,114,-544,-941,-3074,-3328,-712,946,527
-292,-805,-512,549,109,-658,-990,-3059,-3274,-814,829,429
-156,-707,-551,431,197,-629,-932,-2947,-3123,-873,712,395
-24,-566,-541,295,258,-553,-829,-2806,-2952,-951,570,380
-92,-610,-517,351,212,-563,-824,-2674,-2820,-1068,356,297
-190,-707,-517,448,163,-612,-844,-2527,-2679,-1161,126,180
-200,-766,-566,483,183,-666,-795,-2347,-2479,-1190,-48,92
-195,-790,-595,492,200,-692,-736,-2108,-2220,-1141,-161,39
-224,-829,-605,527,190,-717,-697,-1825,-1942,-1098,-283,-24
-263,-873,-610,568,173,-741,-668,-1620,-1737,-1117,-473,-126
-234,-868,-634,551,200,-751,-639,-1478,-1595,-1151,-644,-229
-117,-810,-692,463,287,-751,-575,-1302,-1424,-1112,-692,-312
-48,-649,-600,348,275,-624,-385,-995,-1137,-927,-634,-326
-82,-561,-478,322,197,-519,-239,-732,-883,-775,-595,-361
-185,-736,-551,461,183,-644,-287,-707,-873,-824,-688,-468
-317,-922,-605,619,143,-763,-366,-717,-888,-883,-766,-566
-361,-897,-536,629,87,-717,-317,-585,-785,-824,-736,-570
-370,-839,-468,605,48,-653,-248,-444,-673,-746,-702,-551
-429,-839,-409,634,-9,-624,-204,-375,-585,-692,-673,-531
-497,-829,-331,663,-82,-580,-165,-336,-531,-663,-658,-522
-566,-849,-283,707,-141,-566,-175,-341,-517,-663,-678,-531
-629,-907,-278,768,-175,-592,-161,-317,-488,-649,-688,-531
-502,-849,-346,675,-78,-597,-92,-239,-390,-566,-619,-478
-248,-668,-419,458,85,-544,-63,-180,-317,-512,-566,-444
-229,-600,-370,414,70,-485,-117,-195,-322,-527,-580,-468
-405,-658,-253,531,-75,-456,-161,-195,-326,-527,-590,-478
-439,-653,-214,546,-112,-434,-131,-146,-253,-458,-517,-429
-448,-658,-209,553,-119,-434,-78,-102,-190,-375,-458,-370
-556,-771,-214,663,-170,-492,-58,-82,-141,-336,-429,-356
-531,-766,-234,649,-148,-500,-53,-53,-92,-302,-400,-336
-483,-712,-229,597,-126,-470,-63,-34,-53,-273,-385,-322
-517,-678,-161,597,-178,-419,-82,-19,-34,-253,-380,-326
-497,-497,0,497,-248,-248,-48,29,19,-209,-322,-287
-463,-356,107,409,-285,-124,-9,82,58,-165,-268,-239
-502,-453,48,478,-275,-202,-39,58,39,-180,-278,-263
-590,-561,29,575,-309,-265,-68,29,19,-200,-307,-292
-619,-556,63,588,-341,-246,-53,39,43,-180,-292,-283
-605,-551,53,578,-329,-248,-53,48,58,-161,-283,-263
-566,-517,48,541,-307,-234,-58,58,78,-151,-273,-248
-575,-488,87,531,-331,-200,-24,68,97,-131,-253,-234
-546,-453,92,500,-319,-180,-19,82,126,-97,-224,-209
-468,-375,92,422,-280,-141,4,102,141,-78,-209,-190
-448,-341,107,395,-278,-117,-9,112,161,-48,-180,-175
-448,-351,97,400,-273,-126,-14,122,170,-39,-165,-161
-448,-370,78,409,-263,-146,-14,122,175,-34,-161,-161
-448,-395,53,422,-251,-170,-19,117,175,-29,-146,-161
-434,-390,43,412,-239,-173,-29,97,165,-43,-170,-165
-439,-395,43,417,-241,-175,-29,92,161,-53,-185,-180
-419,-400,19,409,-219,-190,-39,82,156,-58,-190,-185
-390,-395,-4,392,-192,-200,-53,82,156,-63,-195,-185
-424,-400,24,412,-224,-187,-63,82,156,-63,-190,-180
-444,-409,34,427,-239,-187,-63,87,165,-58,-190,-180
-468,-429,39,448,-253,-195,-68,87,165,-58,-190,-180
-502,-453,48,478,-275,-202,-68,78,165,-58,-190,-185
-536,-483,53,509,-295,-214,-73,58,151,-68,-209,-195
-570,-512,58,541,-314,-226,-78,53,146,-78,-219,-204
-629,-551,78,590,-353,-236,-78,63,151,-78,-219,-209
-688,-590,97,639,-392,-246,-92,63,161,-73,-219,-214
-658,-585,73,622,-366,-256,-112,58,156,-78,-229,-224
-639,-614,24,627,-331,-295,-122,53,151,-82,-239,-234
-614,-605,9,610,-312,-297,-122,48,156,-78,-229,-234
-610,-605,4,607,-307,-300,-122,73,175,-73,-219,-224
-585,-561,24,573,-305,-268,-82,82,204,-39,-190,-195
-585,-527,58,556,-322,-234,-58,107,224,-19,-175,-180
-561,-483,78,522,-319,-202,-39,136,248,4,-156,-170
-527,-414,112,470,-319,-151,-14,175,273,39,-136,-141
-512,-400,112,456,-312,-143,-34,170,283,39,-141,-131
-570,-448,122,509,-346,-163,-48,161,278,34,-146,-156
-595,-473,122,534,-358,-175,-78,136,273,24,-161,-170
-595,-492,102,544,-348,-195,-87,141,273,24,-156,-185
-551,-453,97,502,-324,-178,-68,131,273,29,-165,-190
-575,-458,117,517,-346,-170,-58,151,278,24,-161,-190
-575,-488,87,531,-331,-200,-58,151,297,29,-165,-190
-541,-458,82,500,-312,-187,-43,161,307,29,-165,-185
-488,-429,58,458,-273,-185,-43,180,336,48,-156,-180
-483,-429,53,456,-268,-187,-53,200,336,53,-146,-185
-468,-419,48,444,-258,-185,-73,219,351,63,-136,-180
-473,-419,53,446,-263,-183,-82,239,370,78,-126,-175
-492,-400,92,446,-292,-153,-58,248,385,92,-117,-170
-497,-405,92,451,-295,-156,-34,239,395,97,-112,-165
-483,-375,107,429,-295,-134,-9,239,409,107,-112,-161
-488,-351,136,419,-312,-107,34,244,419,112,-107,-161
-483,-356,126,419,-305,-114,34,263,444,126,-102,-151
-458,-326,131,392,-295,-97,34,283,458,136,-102,-146
-424,-326,97,375,-261,-114,4,287,478,151,-97,-146
-424,-331,92,378,-258,-119,-19,302,488,156,-92,-146
-409,-312,97,361,-253,-107,-14,317,497,161,-92,-151
-400,-297,102,348,-251,-97,-9,326,512,165,-82,-151
-395,-268,126,331,-261,-70,0,341,531,185,-82,-141
-409,-273,136,341,-273,-68,4,331,522,165,-97,-156
-414,-287,126,351,-270,-80,-4,331,522,151,-107,-151
-414,-287,126,351,-270,-80,4,361,541,165,-107,-151
-409,-268,141,339,-275,-63,4,375,570,195,-92,-146
-405,-268,136,336,-270,-65,4,380,575,195,-92,-146
-424,-302,122,363,-273,-90,-14,370,556,185,-112,-165
-448,-331,117,390,-283,-107,-24,366,556,180,-117,-175
-468,-361,107,414,-287,-126,-34,370,561,170,-122,-185
-497,-380,117,439,-307,-131,-43,370,551,161,-126,-195
-453,-322,131,387,-292,-95,-24,405,575,185,-117,-180
-419,-278,141,348,-280,-68,-4,424,605,209,-87,-161
-395,-253,141,324,-268,-56,19,458,634,234,-68,-136
-361,-209,151,285,-256,-29,39,473,658,258,-39,-112
-351,-214,136,283,-244,-39,29,468,653,258,-48,-122
-341,-200,141,270,-241,-29,24,463,644,248,-58,-126
-346,-209,136,278,-241,-36,19,453,649,248,-58,-126
-351,-224,126,287,-239,-48,14,434,624,219,-82,-151
-400,-283,117,341,-258,-82,19,439,619,214,-87,-146
-453,-287,165,370,-309,-61,34,444,619,219,-87,-151
-492,-312,180,402,-336,-65,24,439,614,224,-82,-146
-546,-361,185,453,-366,-87,0,414,600,200,-102,-165
-448,-302,146,375,-297,-78,4,434,624,219,-78,-146
-405,-287,117,346,-261,-85,9,434,614,234,-68,-146
-424,-317,107,370,-265,-104,0,434,610,219,-82,-146
-400,-326,73,363,-236,-126,0,409,600,209,-92,-146
-366,-302,63,334,-214,-119,9,424,600,209,-92,-146
-346,-278,68,312,-207,-104,9,424,595,209,-92,-141
-390,-312,78,351,-234,-117,9,419,585,204,-87,-141
-405,-322,82,363,-244,-119,9,409,575,190,-87,-136
-414,-297,117,356,-265,-90,-4,390,566,170,-107,-146
-356,-263,92,309,-224,-85,-29,380,546,161,-107,-156
-331,-229,102,280,-217,-63,-43,370,517,156,-117,-170
-351,-234,117,292,-234,-58,-63,366,502,151,-136,-185
-400,-273,126,336,-263,-73,-48,370,512,156,-131,-175
-400,-336,63,368,-231,-136,-73,375,512,151,-126,-165
-395,-307,87,351,-241,-109,-73,380,507,156,-117,-156
-370,-302,68,336,-219,-117,-58,385,497,156,-107,-131
-380,-302,78,341,-229,-112,-48,356,488,146,-107,-131
-380,-253,126,317,-253,-63,-43,341,488,146,-107,-122
-405,-244,161,324,-283,-41,-19,336,473,136,-107,-131
-429,-253,175,341,-302,-39,-9,307,439,122,-117,-141
-385,-224,161,305,-273,-31,9,312,439,122,-102,-131
-380,-234,146,307,-263,-43,14,312,439,126,-97,-112
-390,-214,175,302,-283,-19,24,317,444,141,-87,-102
-351,-185,165,268,-258,-9,39,322,424,131,-82,-92
-346,-190,156,268,-251,-17,14,307,414,126,-82,-102
-356,-224,131,290,-244,-46,-24,302,400,117,-92,-102
-400,-278,122,339,-261,-78,-63,287,385,112,-87,-102
-370,-297,73,334,-222,-112,-82,273,366,97,-82,-97
-356,-278,78,317,-217,-100,-63,263,341,82,-92,-107
-375,-268,107,322,-241,-80,-68,229,307,63,-107,-112
-390,-283,107,336,-248,-87,-68,214,287,53,-117,-112
-361,-253,107,307,-234,-73,-9,204,283,48,-112,-92
-307,-244,63,275,-185,-90,-14,185,258,34,-122,-97
-346,-287,58,317,-202,-114,-48,165,229,9,-136,-122
-385,-322,63,353,-224,-129,-68,141,200,4,-136,-126
-346,-307,39,326,-192,-134,-58,136,195,4,-117,-117
-331,-263,68,297,-200,-97,-58,117,180,9,-122,-112
-322,-258,63,290,-192,-97,-63,107,170,-4,-131,-117
-312,-263,48,287,-180,-107,-63,102,161,-4,-126,-102
-317,-258,58,287,-187,-100,-68,82,136,-14,-126,-97
-312,-248,63,280,-187,-92,-78,58,102,-39,-136,-117
-287,-214,73,251,-180,-70,-68,58,97,-39,-122,-102
-341,-263,78,302,-209,-92,-63,58,97,-39,-122,-102
-356,-326,29,341,-192,-148,-92,34,58,-53,-131,-117
-380,-356,24,368,-202,-165,-78,29,53,-58,-122,-112
-400,-356,43,378,-222,-156,-63,29,58,-53,-122,-92
-424,-370,53,397,-239,-158,-73,29,48,-58,-122,-87
-444,-390,53,417,-248,-168,-102,4,24,-78,-146,-102
-405,-370,34,387,-219,-168,-131,-24,4,-102,-151,-107
-405,-375,29,390,-217,-173,-156,-34,-9,-117,-165,-117
-463,-385,78,424,-270,-153,-126,-43,-29,-131,-180,-131
-478,-414,63,446,-270,-175,-156,-73,-58,-161,-200,-156
-400,-346,53,373,-226,-146,-107,-39,-39,-136,-165,-131
-297,-234,63,265,-180,-85,-87,-14,-9,-107,-141,-92
-185,-141,43,163,-114,-48,-63,19,9,-78,-112,-63
-175,-107,68,141,-122,-19,-63,68,53,-34,-78,-39
-200,-126,73,163,-136,-26,-78,29,19,-68,-107,-68
-239,-180,58,209,-148,-61,-82,-29,-19,-102,-141,-92
-273,-214,58,244,-165,-78,-87,-39,-34,-102,-151,-102
-283,-258,24,270,-153,-117,-82,-39,-24,-107,-146,-102
-253,-175,78,214,-165,-48,43,48,63,-19,-58,-19
-244,-214,29,229,-136,-92,34,39,63,-19,-63,-14
-209,-273,-63,241,-73,-168,-43,-9,14,-68,-117,-63
-175,-283,-107,229,-34,-195,-78,-39,-9,-97,-146,-87
-200,-263,-63,231,-68,-163,-87,-53,-14,-107,-156,-92
-224,-244,-19,234,-102,-131,-87,-58,-19,-107,-156,-97
-248,-224,24,236,-136,-100,-87,-63,-24,-107,-156,-102
-273,-204,68,239,-170,-68,-87,-68,-29,-107,-156,-107
-268,-200,68,234,-168,-65,-58,-34,4,-82,-136,-92
-273,-190,82,231,-178,-53,-34,-9,29,-53,-117,-68
-278,-224,53,251,-165,-85,0,19,43,-39,-97,-53
-287,-239,48,263,-168,-95,19,34,68,-24,-82,-43
-331,-224,107,278,-219,-58,9,34,48,-39,-97,-63
-341,-253,87,297,-214,-82,-19,9,34,-53,-117,-87
-331,-258,73,295,-202,-92,-34,-4,24,-68,-131,-97
-331,-234,97,283,-214,-68,-53,0,34,-58,-126,-82
-297,-204,92,251,-195,-56,-58,9,48,-63,-126,-92
-297,-229,68,263,-183,-80,-63,9,63,-43,-122,-82
-302,-219,82,261,-192,-68,-53,4,63,-43,-112,-78
-239,-180,58,209,-148,-61,-48,-14,58,-48,-112,-78
-229,-175,53,202,-141,-61,-53,-29,63,-43,-107,-78
-219,-161,58,190,-139,-51,-63,-39,58,-39,-97,-68
-224,-136,87,180,-156,-24,-73,-48,63,-34,-87,-58
-239,-136,102,187,-170,-17,-92,-53,53,-24,-78,-58
-248,-146,102,197,-175,-21,-126,-68,39,-39,-92,-73
-229,-112,117,170,-173,2,-141,-78,43,-39,-82,-73
-195,-63,131,129,-163,34,-146,-87,24,-43,-97,-68
-214,-107,107,161,-161,0,-156,-117,9,-58,-117,-87
-239,-131,107,185,-173,-12,-156,-122,-4,-63,-112,-82
-224,-102,122,163,-173,9,-156,-131,0,-68,-107,-73
-234,-136,97,185,-165,-19,-156,-136,-4,-63,-102,-63
-253,-185,68,219,-161,-58,-151,-126,-9,-78,-112,-68
-224,-180,43,202,-134,-68,-161,-122,-19,-73,-107,-68
-175,-161,14,168,-95,-73,-170,-122,-9,-58,-102,-63
-185,-170,14,178,-100,-78,-170,-146,-29,-78,-112,-73
-239,-219,19,229,-129,-100,-180,-161,-43,-87,-122,-82
-195,-209,-14,202,-90,-112,-209,-156,-53,-92,-126,-82
-165,-209,-43,187,-61,-126,-214,-146,-48,-87,-122,-82
-165,-214,-48,190,-58,-131,-209,-136,-43,-87,-117,-73
-190,-234,-43,212,-73,-139,-214,-117,-43,-82,-117,-73
-170,-229,-58,200,-56,-143,-204,-102,-24,-58,-102,-58
-122,-165,-43,143,-39,-104,-200,-97,-14,-43,-82,-34
-68,-112,-43,90,-12,-78,-170,-87,-4,-34,-73,-24
-43,-87,-43,65,0,-65,-156,-82,4,-24,-58,-9
-39,-68,-29,53,-4,-48,-131,-68,14,0,-39,9
-63,-53,9,58,-36,-21,-92,-63,14,0,-24,19
-68,-48,19,58,-43,-14,-82,-63,14,-4,-34,9
-68,-34,34,51,-51,0,-78,-68,9,-9,-43,4
-87,-73,14,80,-51,-29,-68,-73,-4,-29,-43,0
-82,-117,-34,100,-24,-75,-78,-68,-4,-19,-43,0
-43,-122,-78,82,17,-100,-63,-63,0,-19,-34,0
-39,-146,-107,92,34,-126,-39,-53,4,-19,-34,0
-92,-161,-68,126,-12,-114,-73,-29,24,-9,-43,-14
-112,-151,-39,131,-36,-95,-117,-29,24,-19,-43,-19
-112,-141,-29,126,-41,-85,-151,-34,14,-29,-58,-29
-131,-122,9,126,-70,-56,-185,-34,4,-39,-78,-43
-151,-136,14,143,-82,-61,-234,-29,0,-43,-87,-63
-195,-161,34,178,-114,-63,-253,-14,9,-39,-78,-68
-180,-156,24,168,-102,-65,-268,-14,4,-43,-78,-73
-156,-180,-24,168,-65,-102,-317,-19,-4,-58,-87,-78
-180,-170,9,175,-95,-80,-190,-4,4,-39,-92,-78
-170,-146,24,158,-97,-61,-78,9,19,-34,-78,-63
-117,-53,63,85,-90,4,58,34,39,-19,-58,-43
-107,-53,53,80,-80,0,204,48,53,-9,-43,-24
-161,-107,53,134,-107,-26,156,29,34,-29,-68,-43
-161,-112,48,136,-104,-31,126,19,19,-39,-78,-53
-170,-102,68,136,-119,-17,112,9,4,-48,-87,-63
-200,-107,92,153,-146,-7,82,-4,-14,-68,-112,-73
-161,-131,29,146,-95,-51,73,-4,-9,-58,-102,-63
-161,-131,29,146,-95,-51,63,-4,-4,-53,-97,-63
-190,-165,24,178,-107,-70,53,-4,0,-53,-97,-68
-209,-209,0,209,-104,-104,53,-4,4,-58,-102,-73
-209,-219,-9,214,-100,-114,24,-14,-4,-73,-107,-87
-209,-204,4,207,-107,-100,14,-19,-14,-78,-107,-87
-219,-204,14,212,-117,-95,19,-19,-19,-73,-112,-92
-258,-204,53,231,-156,-75,9,-14,-29,-78,-117,-97
-224,-175,48,200,-136,-63,-14,-24,-48,-92,-126,-107
-200,-165,34,183,-117,-65,-34,-39,-48,-102,-136,-117
-180,-165,14,173,-97,-75,-48,-29,-43,-107,-141,-122
-195,-175,19,185,-107,-78,-68,-19,-43,-102,-151,-131
-209,-161,48,185,-129,-56,-48,-14,-34,-97,-146,-122
-214,-165,48,190,-131,-58,-53,-19,-39,-97,-136,-112
-180,-141,39,161,-109,-51,-53,-24,-34,-92,-126,-107
-146,-107,39,126,-92,-34,-48,-19,-19,-78,-107,-82
-209,-131,78,170,-143,-26,58,58,82,14,-29,0
-200,-131,68,165,-134,-31,87,78,102,24,-9,19
-136,-136,0,136,-68,-68,53,29,58,-9,-48,-34
-122,-165,-43,143,-39,-104,29,39,73,-4,-63,-53
-200,-209,-9,204,-95,-109,39,117,131,53,-29,-34
-161,-151,9,156,-85,-70,53,209,200,97,4,-24
-112,-117,-4,114,-53,-61,53,248,209,107,14,-43
-209,-165,43,187,-126,-61,39,234,131,87,9,-48
-278,-146,131,212,-204,-7,19,156,-29,58,0,-29
-185,-58,126,122,-156,34,9,48,-244,19,14,-9
-97,-48,48,73,-73,0,-19,-141,-517,-43,9,-9
-117,-82,34,100,-75,-24,-43,-419,-878,-175,-19,-9
-185,-102,82,143,-134,-9,-58,-673,-1220,-273,-14,4
-126,-48,78,87,-102,14,-82,-805,-1449,-297,53,58
9,29,19,-19,-4,24,-117,-902,-1649,-312,141,136
68,9,-58,-39,63,-24,-175,-1068,-1922,-380,200,200
48,-73,-122,12,85,-97,-253,-1302,-2200,-458,244,224
34,-126,-161,46,97,-143,-322,-1517,-2444,-492,307,263
29,-136,-165,53,97,-151,-370,-1747,-2688,-541,390,322
29,-122,-151,46,90,-136,-434,-1991,-2913,-580,502,400
34,-112,-146,39,90,-129,-497,-2249,-3103,-580,634,478
78,-102,-180,12,129,-141,-575,-2469,-3250,-595,771,556
161,-73,-234,-43,197,-153,-673,-2654,-3352,-629,873,600
175,-122,-297,-26,236,-209,-771,-2830,-3386,-644,956,624
141,-214,-356,36,248,-285,-854,-2947,-3352,-614,1015,624
141,-248,-390,53,265,-319,-893,-2996,-3289,-614,1044,624
165,-278,-444,56,305,-361,-902,-2981,-3215,-639,1015,605
185,-356,-541,85,363,-448,-873,-2908,-3113,-688,927,561
180,-429,-610,124,395,-519,-849,-2815,-3010,-805,766,488
151,-502,-653,175,402,-578,-824,-2732,-2908,-961,551,414
63,-610,-673,273,368,-641,-824,-2615,-2786,-1093,322,307
82,-541,-624,229,353,-583,-766,-2396,-2547,-1112,156,248
263,-283,-546,9,405,-414,-658,-2108,-2220,-1034,82,224
195,-312,-507,58,351,-409,-658,-1883,-1991,-1010,-78,112
-48,-522,-473,285,212,-497,-717,-1698,-1805,-1049,-307,-58
9,-488,-497,239,253,-492,-668,-1459,-1586,-1024,-468,-112
204,-400,-605,97,405,-502,-605,-1244,-1405,-976,-536,-136
126,-483,-610,178,368,-546,-502,-1063,-1234,-927,-575,-219
-24,-561,-536,292,256,-549,-356,-868,-1049,-844,-585,-322
19,-561,-580,270,300,-570,-248,-766,-912,-814,-619,-409
34,-570,-605,268,319,-588,-219,-697,-839,-814,-649,-448
-48,-575,-527,312,239,-551,-200,-585,-746,-766,-649,-463
-107,-595,-488,351,190,-541,-180,-463,-644,-697,-644,-492
-107,-614,-507,361,200,-561,-146,-366,-556,-653,-624,-492
-58,-566,-507,312,224,-536,-97,-287,-492,-595,-590,-463
-107,-556,-448,331,170,-502,-78,-253,-458,-566,-600,-453
-229,-634,-405,431,87,-519,-82,-268,-458,-590,-629,-483
-239,-673,-434,456,97,-553,-82,-258,-429,-595,-619,-488
-190,-629,-439,409,124,-534,-43,-219,-356,-551,-575,-463
-141,-483,-341,312,100,-412,9,-156,-273,-478,-522,-419
-4,-239,-234,122,114,-236,43,-78,-180,-390,-453,-351
39,-136,-175,48,107,-156,53,-29,-117,-322,-400,-302
-78,-248,-170,163,46,-209,19,-14,-102,-287,-380,-292
-97,-322,-224,209,63,-273,9,-4,-82,-258,-370,-287
-73,-297,-224,185,75,-261,24,14,-43,-234,-331,-258
-141,-224,-82,183,-29,-153,53,43,14,-185,-287,-224
-195,-190,4,192,-100,-92,63,58,43,-175,-263,-219
-146,-156,-9,151,-68,-82,78,97,87,-141,-244,-200
-141,-131,9,136,-75,-61,87,131,126,-107,-209,-180
-229,-258,-29,244,-100,-143,9,87,78,-151,-268,-244
-200,-268,-68,234,-65,-168,-19,78,68,-151,-278,-263
-53,-78,-24,65,-14,-51,73,175,170,-43,-185,-165
-39,4,43,17,-41,24,141,234,234,24,-117,-97
-68,-19,48,43,-58,14,107,219,229,9,-126,-102
-136,-48,87,92,-112,19,131,214,234,14,-117,-97
-165,-73,92,119,-129,9,126,214,248,34,-97,-82
-146,-53,92,100,-119,19,141,219,248,39,-92,-73
-122,-19,102,70,-112,41,92,229,268,58,-82,-63
-126,-29,97,78,-112,34,73,239,278,68,-68,-53
-131,-48,82,90,-107,17,58,239,283,73,-63,-58
-136,-73,63,104,-100,-4,39,234,283,78,-48,-63
-131,-73,58,102,-95,-7,53,234,283,78,-48,-58
-146,-82,63,114,-104,-9,58,229,278,73,-58,-63
-136,-92,43,114,-90,-24,53,219,273,73,-58,-58
-117,-92,24,104,-70,-34,43,219,273,73,-58,-48
-112,-78,34,95,-73,-21,58,219,273,73,-63,-53
-102,-68,34,85,-68,-17,73,214,283,78,-63,-53
-97,-68,29,82,-63,-19,82,204,283,78,-63,-53
-102,-73,29,87,-65,-21,97,185,283,78,-63,-58
-112,-87,24,100,-68,-31,87,175,268,63,-87,-73
-112,-92,19,102,-65,-36,87,170,263,58,-92,-78
-136,-107,29,122,-82,-39,92,180,268,63,-87,-78
-161,-122,39,141,-100,-41,82,180,278,73,-82,-78
-126,-73,53,100,-90,-9,87,195,292,82,-63,-58
-102,-68,34,85,-68,-17,82,209,307,92,-63,-58
-73,-24,48,48,-61,12,87,224,331,112,-43,-48
-63,9,73,26,-68,41,92,268,370,131,-24,-29
-112,-53,58,82,-85,2,78,229,346,112,-53,-48
-175,-117,58,146,-117,-29,68,204,322,87,-78,-73
-214,-170,43,192,-129,-63,53,185,302,68,-97,-102
-244,-200,43,222,-143,-78,43,175,283,58,-117,-112
-161,-122,39,141,-100,-41,58,219,326,87,-78,-73
-161,-107,53,134,-107,-26,68,239,356,112,-58,-68
-126,-68,58,97,-92,-4,63,244,385,131,-48,-53
-68,-24,43,46,-56,9,78,278,419,161,-19,-39
-14,24,39,-4,-26,31,92,268,414,165,-29,-53
-29,29,58,0,-43,43,97,287,414,161,-24,-53
-19,9,29,4,-24,19,92,287,429,165,-29,-53
24,48,24,-36,0,36,102,297,434,165,-29,-48
9,29,19,-19,-4,24,102,317,453,180,-19,-39
-43,-9,34,26,-39,12,92,326,453,180,-19,-48
-87,-39,48,63,-68,4,73,336,468,185,-19,-48
-151,-78,73,114,-112,-2,63,346,488,195,-19,-48
-170,-102,68,136,-119,-17,43,336,473,175,-29,-73
-185,-141,43,163,-114,-48,34,317,463,165,-43,-87
-180,-146,34,163,-107,-56,24,307,458,161,-63,-102
-195,-156,39,175,-117,-58,34,302,448,151,-78,-122
-180,-112,68,146,-124,-21,63,331,488,185,-53,-92
-156,-43,112,100,-134,34,82,361,517,204,-43,-78
-122,-4,117,63,-119,56,73,375,551,229,-29,-68
-122,29,151,46,-136,90,68,400,575,244,-14,-58
-92,63,156,14,-124,109,78,424,600,268,0,-48
-58,82,141,-12,-100,112,87,444,619,273,14,-43
-29,117,146,-43,-87,131,102,468,644,292,19,-29
-19,117,136,-48,-78,126,112,468,639,273,9,-39
-39,73,112,-17,-75,92,117,444,629,258,0,-43
-53,63,117,-4,-85,90,131,468,649,273,0,-43
-63,73,136,-4,-100,104,136,478,678,302,14,-39
-73,63,136,4,-104,100,141,478,683,302,14,-39
-82,43,126,19,-104,85,107,492,673,302,19,-58
-97,39,136,29,-117,87,92,492,683,307,19,-58
-107,34,141,36,-124,87,78,502,697,307,19,-58
-126,39,165,43,-146,102,63,507,697,307,19,-58
-97,73,170,12,-134,122,0,507,702,312,9,-63
-68,92,161,-12,-114,126,-53,512,712,317,19,-63
-48,92,141,-21,-95,117,-102,531,722,322,19,-58
-19,112,131,-46,-75,122,-156,531,727,326,29,-53
-24,97,122,-36,-73,109,-39,541,741,346,39,-48
-29,102,131,-36,-80,117,82,551,741,346,39,-39
-48,82,131,-17,-90,107,204,556,756,356,48,-24
-68,58,126,4,-97,92,326,551,741,336,34,-34
-63,39,102,12,-82,70,302,551,732,326,24,-34
-73,63,136,4,-104,100,278,551,727,326,19,-43
-68,68,136,0,-102,102,229,541,717,326,19,-43
-78,48,126,14,-102,87,165,512,697,297,-4,-68
-29,87,117,-29,-73,102,165,546,722,317,19,-43
-24,82,107,-29,-65,95,175,551,722,341,39,-39
-82,34,117,24,-100,75,170,556,727,336,34,-34
-97,4,102,46,-100,53,175,536,727,336,34,-29
-68,29,97,19,-82,63,161,531,702,312,14,-39
-43,53,97,-4,-70,75,146,522,692,307,4,-43
-82,19,102,31,-92,61,131,507,678,297,0,-53
-92,9,102,41,-97,56,117,488,663,278,-9,-58
-122,0,122,61,-122,61,107,488,668,283,-9,-53
-82,9,92,36,-87,51,97,488,663,278,0,-48
-78,19,97,29,-87,58,97,488,649,278,0,-48
-117,-9,107,63,-112,48,92,492,649,278,-9,-48
-151,-9,141,80,-146,65,92,478,639,258,-14,-68
-136,-43,92,90,-114,24,53,473,629,248,-19,-68
-117,14,131,51,-124,73,39,468,614,248,-19,-68
-78,48,126,14,-102,87,39,463,595,244,-19,-53
-68,19,87,24,-78,53,53,439,585,234,-19,-53
-58,58,117,0,-87,87,63,429,585,234,-19,-43
-73,58,131,7,-102,95,92,429,570,224,-19,-53
-87,39,126,24,-107,82,107,405,536,209,-29,-63
-58,48,107,4,-82,78,107,414,536,204,-24,-53
-68,19,87,24,-78,53,102,409,536,214,-19,-34
-92,19,112,36,-102,65,102,409,541,234,-9,-24
-68,29,97,19,-82,63,107,409,522,229,-4,-14
-73,39,112,17,-92,75,97,380,497,200,-19,-29
-82,9,92,36,-87,51,63,370,478,185,-34,-34
-126,-39,87,82,-107,24,29,351,458,175,-34,-39
-97,-53,43,75,-70,-4,14,331,434,156,-34,-39
-73,-29,43,51,-58,7,19,326,419,146,-39,-48
-92,-14,78,53,-85,31,9,297,385,131,-48,-53
-107,-24,82,65,-95,29,4,287,366,126,-53,-53
-78,9,87,34,-82,48,58,283,361,126,-43,-34
-4,39,43,-17,-24,41,48,278,351,131,-34,-14
-34,14,48,9,-41,31,19,263,326,107,-48,-34
-63,0,63,31,-63,31,4,244,302,102,-48,-34
-14,34,48,-9,-31,41,19,244,302,102,-29,-19
-19,43,63,-12,-41,53,14,224,283,97,-34,-19
-29,34,63,-2,-46,48,14,214,268,82,-43,-29
-39,14,53,12,-46,34,19,209,253,82,-39,-19
-63,4,68,29,-65,36,19,190,224,73,-39,-19
-53,9,63,21,-58,36,14,165,209,58,-58,-19
-14,39,53,-12,-34,46,19,165,204,58,-43,-4
-53,-14,39,34,-46,12,19,165,204,58,-43,-4
-53,-82,-29,68,-12,-56,-14,141,165,43,-53,-19
-58,-73,-14,65,-21,-43,-9,122,151,29,-63,-24
-58,-53,4,56,-31,-24,4,117,146,24,-63,-14
-63,-48,14,56,-39,-17,-4,112,126,9,-63,-19
-63,-48,14,56,-39,-17,-34,82,92,-19,-87,-43
-9,-4,4,7,-7,0,-43,97,112,4,-53,-19
4,4,0,-4,2,2,-48,112,126,19,-39,0
-39,9,48,14,-43,29,0,126,136,34,-24,14
-39,-4,34,21,-36,14,-9,122,136,34,-14,19
-29,-9,19,19,-24,4,4,112,107,14,-34,0
14,39,24,-26,-4,31,0,92,97,0,-43,4
68,68,0,-68,34,34,0,82,78,-14,-48,0
19,39,19,-29,0,29,-24,87,82,-14,-48,-9
19,43,24,-31,-2,34,-9,63,63,-24,-48,-9
-4,14,19,-4,-12,17,-4,19,39,-43,-73,-24
-24,4,29,9,-26,17,0,24,39,-29,-73,-24
-19,-14,4,17,-12,-4,14,39,63,-19,-58,-14
117,107,-9,-112,63,48,63,78,92,9,-29,29
78,78,0,-78,39,39,73,87,102,19,-24,34
73,39,-34,-56,53,2,24,39,53,-19,-58,-4
112,58,-53,-85,82,2,9,14,39,-39,-87,-29
58,78,19,-68,19,48,29,48,68,-19,-68,0
48,87,39,-68,4,63,39,73,92,4,-53,19
39,87,48,-63,-4,68,48,87,107,19,-39,29
29,87,58,-58,-14,73,58,102,122,34,-24,39
19,87,68,-53,-24,78,68,117,136,48,-9,48
39,117,78,-78,-19,97,63,102,126,43,-24,29
39,141,102,-90,-31,122,63,97,126,43,-29,29
39,122,82,-80,-21,102,73,97,117,29,-34,19
34,122,87,-78,-26,104,68,82,117,14,-43,4
19,131,112,-75,-46,122,73,97,112,4,-43,4
29,107,78,-68,-24,92,58,87,112,4,-48,-9
58,107,48,-82,4,78,58,87,117,4,-48,-9
78,136,58,-107,9,97,53,107,141,29,-29,14
63,151,87,-107,-12,119,39,97,141,24,-34,9
24,102,78,-63,-26,90,24,97,151,43,-34,14
-19,87,107,-34,-63,97,24,92,146,43,-29,14
4,102,97,-53,-46,100,19,73,136,39,-34,9
24,82,58,-53,-17,70,0,58,131,29,-34,4
43,73,29,-58,7,51,-24,48,126,29,-29,9
48,73,24,-61,12,48,-48,39,131,29,-24,14
43,48,4,-46,19,26,-82,34,122,34,-19,9
34,39,4,-36,14,21,-82,14,117,29,-34,-4
43,73,29,-58,7,51,-82,9,122,29,-24,-4
68,122,53,-95,7,87,-73,4,102,24,-39,0
39,78,39,-58,0,58,-68,-19,87,9,-58,-19
-14,43,58,-14,-36,51,-68,-53,58,-19,-73,-29
-19,63,82,-21,-51,73,-78,-82,48,-39,-78,-34
-48,19,68,14,-58,43,-87,-107,29,-48,-82,-39
-87,-39,48,63,-68,4,-92,-117,9,-78,-102,-58
-34,9,43,12,-39,26,-82,-78,24,-43,-73,-24
39,63,24,-51,7,43,-73,-53,58,0,-43,4
53,87,34,-70,9,61,-53,-53,63,9,-29,19
24,73,48,-48,-12,61,-43,-43,73,29,-14,34
63,73,9,-68,26,41,-68,-48,68,24,-14,29
97,63,-34,-80,65,14,-78,-48,68,19,-14,24
102,48,-53,-75,78,-2,-78,-48,68,9,-14,29
82,19,-63,-51,73,-21,-87,-39,63,4,-19,24
78,0,-78,-39,78,-39,-107,-39,63,19,-14,19
102,48,-53,-75,78,-2,-122,-39,63,24,-4,34
131,87,-43,-109,87,21,-112,-34,63,24,-4,34
131,97,-34,-114,82,31,-117,-34,63,24,0,39
146,87,-58,-117,102,14,-195,-24,58,24,0,39
122,82,-39,-102,80,21,-248,-24,53,19,4,39
117,68,-48,-92,82,9,-331,-29,48,9,-14,19
117,63,-53,-90,85,4,-419,-39,39,0,-34,4
82,34,-48,-58,65,-7,-283,-34,39,4,-34,4
82,9,-73,-46,78,-31,-175,-19,43,19,-24,9
117,24,-92,-70,104,-34,-43,-4,53,24,-4,14
117,19,-97,-68,107,-39,97,14,63,29,4,19
34,-34,-68,0,51,-51,82,14,58,29,-4,9
-4,-53,-48,29,21,-51,68,9,53,9,-14,0
-24,-73,-48,48,12,-61,63,0,39,-9,-39,-14
-63,-82,-19,73,-21,-51,58,-4,24,-29,-68,-34
-78,-87,-9,82,-34,-48,39,14,29,-24,-63,-29
-117,-102,14,109,-65,-43,48,34,48,-9,-48,-29
-97,-87,9,92,-53,-39,63,39,53,-4,-43,-29
-68,-102,-34,85,-17,-68,43,39,53,-9,-48,-29
-73,-112,-39,92,-17,-75,19,19,24,-24,-82,-53
-43,-97,-53,70,4,-75,-9,19,19,-43,-87,-63
29,-14,-43,-7,36,-29,-14,29,19,-53,-87,-68
58,-24,-82,-17,70,-53,-9,29,14,-68,-92,-73
4,-48,-53,21,29,-51,0,39,29,-53,-82,-53
4,-34,-39,14,21,-36,19,48,39,-39,-68,-43
-4,-4,0,4,-2,-2,53,58,48,-24,-53,-34
-34,9,43,12,-39,26,73,63,53,-19,-53,-24
-9,-9,0,9,-4,-4,68,43,43,-34,-63,-34
-24,4,29,9,-26,17,63,34,34,-34,-68,-43
-68,-14,53,41,-61,19,58,24,24,-39,-78,-58
-102,-43,58,73,-80,7,63,14,14,-48,-92,-73
-58,-68,-9,63,-24,-39,58,24,24,-39,-82,-63
-24,-58,-34,41,4,-46,63,39,34,-29,-68,-48
0,-63,-63,31,31,-63,82,58,48,-9,-58,-39
-4,-68,-63,36,29,-65,87,82,58,0,-48,-29
0,-34,-34,17,17,-34,68,73,43,-24,-58,-34
14,-19,-34,2,24,-26,53,48,39,-34,-68,-39
24,-14,-39,-4,31,-26,43,48,39,-39,-73,-39
0,-19,-19,9,9,-19,29,48,34,-34,-82,-43
-48,-58,-9,53,-19,-34,14,34,14,-48,-107,-53
-87,-97,-9,92,-39,-53,-4,19,0,-58,-107,-63
-87,-107,-19,97,-34,-63,-19,4,-4,-63,-107,-78
-87,-107,-19,97,-34,-63,-29,0,0,-58,-97,-73
-258,-258,0,258,-129,-129,-68,-48,-63,-122,-156,-136
-200,-190,9,195,-104,-90,-39,-29,-24,-82,-126,-107
-48,-58,-9,53,-19,-34,24,39,58,-9,-58,-53
4,-19,-24,7,14,-21,48,117,141,43,-14,-24
43,24,-19,-34,31,2,58,214,219,92,19,-14
92,82,-9,-87,51,36,73,317,287,136,43,-4
82,68,-14,-75,48,26,63,356,258,146,53,-4
-4,0,4,2,-4,2,19,273,112,87,9,-39
-122,-97,24,109,-73,-36,-29,136,-107,19,-29,-68
-165,-126,39,146,-102,-43,-29,-19,-341,-39,-24,-48
-136,-107,29,122,-82,-39,0,-200,-605,-92,0,-9
-107,-82,24,95,-65,-29,-24,-458,-936,-195,-9,0
-39,-4,34,21,-36,14,-48,-663,-1220,-244,24,34
48,87,39,-68,4,63,-43,-736,-1400,-229,131,126
29,39,9,-34,9,24,-136,-854,-1649,-292,190,175
19,-48,-68,14,43,-58,-253,-1068,-1981,-390,219,209
136,-4,-141,-65,139,-73,-283,-1263,-2220,-419,312,283
258,107,-151,-183,204,-21,-273,-1429,-2405,-405,444,380
234,117,-117,-175,175,0,-302,-1668,-2649,-453,536,439
175,-34,-209,-70,192,-122,-405,-2039,-2962,-580,551,419
258,-131,-390,-63,324,-261,-536,-2396,-3220,-678,595,429
292,-63,-356,-114,324,-209,-595,-2547,-3289,-634,780,556
219,-24,-244,-97,231,-134,-663,-2654,-3323,-600,932,639
263,-53,-317,-104,290,-185,-780,-2840,-3376,-614,985,624
307,-107,-414,-100,361,-261,-863,-2967,-3362,-634,1024,605
229,-190,-419,-19,324,-305,-873,-2996,-3298,-653,1024,605
273,-200,-473,-36,373,-336,-814,-2952,-3186,-658,1015,605
351,-180,-531,-85,441,-356,-756,-2840,-3035,-688,946,580
200,-341,-541,70,370,-441,-790,-2786,-2952,-844,736,478
112,-434,-546,161,329,-490,-775,-2674,-2830,-961,522,405
356,-239,-595,-58,475,-417,-649,-2400,-2562,-936,429,424
424,-239,-663,-92,544,-451,-600,-2191,-2332,-966,263,346
263,-429,-692,82,478,-561,-649,-2069,-2200,-1034,34,185
234,-361,-595,63,414,-478,-610,-1844,-1961,-1010,-117,82
283,-229,-512,-26,397,-370,-531,-1571,-1678,-961,-258,19
253,-263,-517,4,385,-390,-492,-1371,-1478,-976,-419,-53
244,-331,-575,43,409,-453,-468,-1215,-1337,-966,-527,-126
283,-346,-629,31,456,-488,-424,-1015,-1166,-897,-566,-239
326,-317,-644,-4,485,-480,-317,-800,-961,-795,-566,-322
390,-239,-629,-75,509,-434,-200,-619,-795,-717,-551,-341
336,-268,-605,-34,470,-436,-141,-522,-692,-678,-551,-341
126,-468,-595,170,361,-531,-151,-468,-658,-688,-600,-414
19,-575,-595,278,307,-585,-161,-414,-614,-688,-634,-492
107,-488,-595,190,351,-541,-107,-326,-527,-624,-595,-473
136,-419,-556,141,346,-488,-39,-239,-434,-546,-541,-424
58,-439,-497,190,278,-468,-39,-224,-390,-527,-541,-414
-14,-439,-424,226,204,-431,-63,-229,-390,-541,-561,-424
-14,-351,-336,183,161,-344,-43,-180,-341,-507,-541,-409
-24,-307,-283,165,129,-295,-14,-131,-278,-463,-527,-405
-73,-356,-283,214,104,-319,-19,-117,-253,-448,-522,-400
-63,-366,-302,214,119,-334,-4,-97,-209,-409,-492,-390
-39,-341,-302,190,131,-322,4,-58,-156,-351,-439,-361
-9,-307,-297,158,143,-302,0,-14,-92,-287,-370,-312
9,-283,-292,136,151,-287,-9,14,-34,-248,-322,-268
-53,-268,-214,161,80,-241,-24,43,-4,-204,-292,-239
-73,-214,-141,143,34,-178,-4,92,43,-165,-268,-204
-19,-141,-122,80,51,-131,34,136,92,-126,-234,-180
-29,-136,-107,82,39,-122,58,156,107,-112,-224,-180
-34,-112,-78,73,21,-95,78,170,136,-97,-209,-180
4,-53,-58,24,31,-56,126,185,175,-53,-170,-156
-34,-14,19,24,-26,2,185,195,214,-4,-122,-117
-82,-19,63,51,-73,21,200,214,239,24,-97,-97
-78,-92,-14,85,-31,-53,122,175,195,-14,-136,-126
-97,-107,-9,102,-43,-58,82,175,185,-29,-141,-126
-156,-126,29,141,-92,-48,102,175,195,-24,-136,-126
-175,-141,34,158,-104,-53,92,180,214,-4,-122,-117
-146,-112,34,129,-90,-39,102,190,219,0,-122,-112
-92,-34,58,63,-75,12,97,204,253,34,-92,-92
-68,-19,48,43,-58,14,102,219,268,48,-78,-73
-43,-14,29,29,-36,7,112,224,278,58,-73,-68
-19,-14,4,17,-12,-4,117,224,283,68,-58,-63
-43,-9,34,26,-39,12,117,214,292,78,-63,-58
-68,-14,53,41,-61,19,117,209,287,73,-68,-63
-68,-19,48,43,-58,14,107,200,283,73,-63,-58
-58,-14,43,36,-51,14,92,200,283,73,-58,-48
-29,9,39,9,-34,24,82,209,283,73,-53,-48
-4,19,24,-7,-14,21,82,214,292,78,-53,-53
14,19,4,-17,4,12,78,214,292,78,-53,-58
24,14,-9,-19,17,2,78,204,292,78,-53,-68
19,9,-9,-14,14,0,82,204,297,82,-53,-53
14,4,-9,-9,12,-2,87,209,302,87,-53,-48
-14,-9,4,12,-9,-2,97,229,317,102,-43,-39
-43,-24,19,34,-31,-2,92,239,336,122,-34,-29
-53,-14,39,34,-46,12,87,239,336,112,-34,-39
-63,-29,34,46,-48,2,82,239,336,112,-43,-48
-68,-4,63,36,-65,29,87,239,346,122,-34,-48
-92,9,102,41,-97,56,92,268,370,131,-24,-39
-78,0,78,39,-78,39,29,253,370,141,-24,-29
-87,-9,78,48,-82,34,-29,253,370,136,-29,-34
-73,-9,63,41,-68,26,-92,258,375,136,-29,-43
-48,14,63,17,-56,39,-151,273,380,146,-29,-34
0,43,43,-21,-21,43,-117,302,405,165,-9,-14
-34,19,53,7,-43,36,-87,307,414,170,-9,-29
-34,19,53,7,-43,36,-73,297,424,170,-19,-34
-9,24,34,-7,-21,29,-39,317,439,180,-9,-39
0,29,29,-14,-14,29,39,302,424,175,-19,-53
-58,-9,48,34,-53,19,97,307,414,161,-24,-63
-92,-73,19,82,-56,-26,146,292,419,156,-39,-73
-92,-78,14,85,-53,-31,209,287,414,146,-48,-78
-29,-29,0,29,-14,-14,219,307,448,175,-34,-68
-14,-9,4,12,-9,-2,209,317,453,180,-29,-68
9,19,9,-14,0,14,190,326,473,190,-24,-58
14,39,24,-26,-4,31,180,336,497,204,-19,-48
0,53,53,-26,-26,53,165,356,507,214,-9,-48
-9,43,53,-17,-31,48,161,346,512,214,-4,-48
0,68,68,-34,-34,68,156,346,522,219,-4,-48
-9,87,97,-39,-53,92,170,351,527,219,0,-53
-14,63,78,-24,-46,70,170,366,536,219,-9,-53
0,82,82,-41,-41,82,170,380,546,224,-14,-58
24,73,48,-48,-12,61,141,380,561,234,-14,-68
14,58,43,-36,-14,51,117,390,566,234,-14,-78
-14,43,58,-14,-36,51,97,414,590,253,0,-58
-29,34,63,-2,-46,48,97,424,610,263,14,-53
-48,39,87,4,-68,63,102,439,634,287,19,-39
-87,9,97,39,-92,53,102,429,629,273,9,-48
-68,19,87,24,-78,53,117,434,629,268,0,-63
-53,43,97,4,-75,70,131,468,649,283,0,-63
-34,87,122,-26,-78,104,136,488,678,312,14,-58
-14,112,126,-48,-70,119,141,497,683,312,14,-58
-34,78,112,-21,-73,95,117,502,683,312,14,-63
-58,58,117,0,-87,87,102,502,692,317,19,-58
-78,39,117,19,-97,78,87,512,707,317,24,-53
-107,29,136,39,-122,82,73,517,707,317,29,-48
-63,73,136,-4,-100,104,82,522,707,317,14,-63
-29,92,122,-31,-75,107,92,522,712,317,19,-63
-4,92,97,-43,-51,95,107,536,717,317,14,-58
29,112,82,-70,-26,97,117,531,717,317,19,-53
48,117,68,-82,-9,92,122,541,727,331,24,-48
58,141,82,-100,-12,112,131,551,732,336,29,-39
53,141,87,-97,-17,114,141,556,751,351,43,-24
48,136,87,-92,-19,112,151,551,741,336,34,-34
14,107,92,-61,-39,100,161,551,741,336,34,-34
-14,122,136,-53,-75,129,170,561,746,346,39,-34
-29,117,146,-43,-87,131,156,561,746,356,48,-24
-58,87,146,-14,-102,117,126,541,736,336,34,-39
9,141,131,-75,-61,136,102,551,746,341,43,-34
34,151,117,-92,-41,134,97,551,732,351,48,-39
-4,117,122,-56,-63,119,78,551,722,331,29,-43
0,102,102,-51,-51,102,68,527,707,317,14,-48
-4,68,73,-31,-39,70,92,531,702,322,24,-39
-4,53,58,-24,-31,56,107,531,702,326,24,-34
-68,-19,48,43,-58,14,122,527,697,326,29,-34
-102,-68,34,85,-68,-17,136,517,692,317,29,-29
-92,-9,82,51,-87,36,122,502,683,302,24,-29
-34,48,82,-7,-58,65,107,497,673,297,29,-29
-9,107,117,-48,-63,112,102,492,653,297,24,-34
-29,126,156,-48,-92,141,92,492,649,297,9,-39
-82,87,170,-2,-126,129,82,468,629,273,-9,-53
-87,34,122,26,-104,78,43,463,619,258,-19,-58
-87,73,161,7,-124,117,29,458,605,253,-24,-63
-68,87,156,-9,-112,122,29,453,585,244,-29,-53
-9,78,87,-34,-48,82,-39,444,595,253,-14,-39
48,126,78,-87,-14,102,-92,448,605,263,0,-24
82,136,53,-109,14,95,-126,463,600,263,14,-29
117,126,9,-122,53,68,-175,453,575,258,19,-34
117,146,29,-131,43,87,-63,463,575,258,29,-14
78,136,58,-107,9,97,24,458,575,263,29,4
24,156,131,-90,-53,143,117,458,580,278,34,14
19,185,165,-102,-73,175,214,458,561,268,34,24
53,219,165,-136,-56,192,229,429,536,244,29,9
73,204,131,-139,-29,168,209,419,517,234,14,4
58,170,112,-114,-26,141,190,400,497,229,14,0
117,170,53,-143,31,112,190,380,473,214,14,0
122,151,29,-136,46,90,170,366,458,200,9,-9
82,141,58,-112,12,100,146,336,424,180,0,-14
48,107,58,-78,-4,82,126,326,405,170,-4,-14
58,117,58,-87,0,87,165,322,400,165,4,4
87,102,14,-95,36,58,156,322,390,165,14,14
24,43,19,-34,2,31,117,302,366,146,0,-4
-39,-4,34,21,-36,14,92,278,341,146,0,-4
-24,-4,19,14,-21,7,97,273,341,151,19,9
-19,34,53,-7,-36,43,68,244,312,126,0,-4
-19,34,53,-7,-36,43,43,224,287,102,-24,-19
-19,24,43,-2,-31,34,24,209,263,92,-34,-14
-34,24,58,4,-46,41,0,180,224,73,-48,-19
14,73,58,-43,-21,65,-4,185,209,63,-43,-24
73,126,53,-100,9,90,9,195,214,68,-24,-4
53,97,43,-75,4,70,19,204,224,73,-19,0
73,53,-19,-63,46,17,-4,190,195,63,-24,-9
58,73,14,-65,21,43,19,185,195,73,-14,9
58,112,53,-85,2,82,53,185,204,82,-4,34
53,136,82,-95,-14,109,63,185,200,82,4,43
53,156,102,-104,-24,129,53,161,180,68,-9,34
112,161,48,-136,31,104,24,136,165,58,-14,24
131,141,9,-136,61,75,0,131,156,48,-19,19
92,117,24,-104,34,70,29,126,141,39,-24,9
97,73,-24,-85,61,24,0,102,117,14,-34,-9
97,58,-39,-78,68,9,34,102,117,14,-29,4
131,97,-34,-114,82,31,39,92,117,19,-24,24
175,117,-58,-146,117,29,48,92,107,24,-14,34
117,78,-39,-97,78,19,34,107,122,43,0,39
102,87,-14,-95,58,36,24,92,97,14,-24,19
73,53,-19,-63,46,17,14,48,68,-14,-53,-4
48,39,-9,-43,29,14,4,53,63,-9,-58,-14
48,14,-34,-31,41,-9,4,68,82,-9,-48,-14
39,19,-19,-29,29,0,14,39,63,-19,-58,-19
48,29,-19,-39,34,4,24,39,63,-9,-53,-4
24,58,34,-41,-4,46,34,58,82,0,-48,4
-78,9,87,34,-82,48,0,48,68,-9,-68,-9
-73,-4,68,39,-70,31,-4,39,58,-14,-78,-14
-68,-9,58,39,-63,24,-9,39,58,-19,-78,-19
-63,-14,48,39,-56,17,-14,39,58,-24,-78,-24
-58,-19,39,39,-48,9,-19,39,58,-29,-78,-29
-24,14,39,4,-31,26,0,53,82,-4,-58,-19
-9,43,53,-17,-31,48,14,68,97,14,-48,0
4,29,24,-17,-9,26,39,87,102,19,-39,9
14,34,19,-24,-2,26,48,92,117,24,-34,14
9,87,78,-48,-34,82,68,122,126,29,-29,19
39,87,48,-63,-4,68,58,117,131,34,-29,9
87,112,24,-100,31,68,63,122,141,39,-24,14
126,165,39,-146,43,102,63,146,170,68,0,43
141,200,58,-170,41,129,48,156,165,68,0,29
122,170,48,-146,36,109,34,156,180,82,4,34
97,175,78,-136,9,126,34,151,180,78,14,34
141,209,68,-175,36,139,29,131,175,68,14,29
141,219,78,-180,31,148,29,92,175,58,0,29
151,229,78,-190,36,153,24,68,165,58,0,29
146,248,102,-197,21,175,19,43,165,58,0,29
131,244,112,-187,9,178,4,24,151,63,0,19
122,185,63,-153,29,124,-9,9,141,48,-14,14
131,190,58,-161,36,124,-14,0,141,48,-4,14
156,209,53,-183,51,131,-9,-9,117,43,-19,19
126,136,9,-131,58,73,-9,-39,97,29,-39,0
63,126,63,-95,0,95,-9,-48,82,19,-39,0
48,161,112,-104,-31,136,-19,-53,87,19,-29,4
9,131,122,-70,-56,126,-29,-53,82,29,-19,9
-39,87,126,-24,-82,107,-34,-39,78,19,-24,0
48,126,78,-87,-14,102,-48,-29,87,24,-9,19
146,170,24,-158,61,97,-53,-14,107,48,4,34
185,185,0,-185,92,92,-48,-24,97,39,4,34
180,161,-19,-170,100,70,-53,-24,92,39,4,34
190,146,-43,-168,117,51,-92,-24,87,34,4,24
204,131,-73,-168,139,29,-117,-19,87,39,4,24
190,112,-78,-151,134,17,-131,-14,87,39,4,34
151,78,-73,-114,112,2,-156,0,82,43,0,34
122,39,-82,-80,102,-21,-219,-24,63,34,-19,14
131,68,-63,-100,97,2,-278,-39,53,24,-24,14
146,87,-58,-117,102,14,-312,-48,43,9,-39,0
131,78,-53,-104,92,12,-361,-63,34,-4,-48,-9
180,92,-87,-136,134,2,-253,-24,58,19,-19,9
180,112,-68,-146,124,21,-122,-14,63,29,4,29
200,122,-78,-161,139,21,-19,-9,68,34,4,29
224,141,-82,-183,153,29,78,-9,68,39,4,34
195,146,-48,-170,122,48,87,9,82,43,9,43
200,136,-63,-168,131,36,87,29,92,68,24,58
239,165,-73,-202,156,46,112,48,107,82,48,73
244,175,-68,-209,156,53,146,73,122,97,63,87
165,131,-34,-148,100,48,131,78,122,102,53,73
122,112,-9,-117,65,51,107,78,122,87,53,68
97,92,-4,-95,51,43,92,73,112,73,39,58
53,82,29,-68,12,56,78,73,102,58,19,43
29,68,39,-48,-4,53,53,68,82,34,-4,19
-9,43,53,-17,-31,48,58,63,78,29,-9,0
9,48,39,-29,-14,43,68,43,58,14,-24,-19
39,24,-14,-31,26,4,43,19,34,-9,-48,-39
-14,-14,0,14,-7,-7,34,29,34,-9,-63,-43
-24,-19,4,21,-14,-7,9,39,39,-14,-58,-43
9,43,34,-26,-12,39,9,58,48,-9,-48,-39
0,14,14,-7,-7,14,19,68,53,-9,-43,-34
-29,-34,-4,31,-12,-19,9,48,34,-24,-63,-43
-14,-43,-29,29,7,-36,9,39,29,-29,-68,-53
-9,-39,-29,24,9,-34,24,29,24,-34,-73,-63
-24,-48,-24,36,0,-36,24,14,14,-48,-92,-73
9,-29,-39,9,24,-34,34,24,34,-29,-73,-58
4,4,0,-4,2,2,34,34,43,-14,-58,-43
-29,4,34,12,-31,19,34,43,53,-4,-48,-34
-53,-4,48,29,-51,21,43,53,63,0,-43,-24
-39,-39,0,39,-19,-19,-53,48,48,-14,-58,-39
-34,-29,4,31,-19,-12,-122,48,43,-19,-58,-39
-39,-34,4,36,-21,-14,-175,53,43,-14,-63,-43
-73,-39,34,56,-53,-2,-244,63,39,-19,-68,-48
14,29,14,-21,0,21,-126,82,43,-4,-53,-24
92,87,-4,-90,48,41,-14,78,58,4,-39,-9
165,136,-29,-151,97,53,102,97,78,19,-19,9
204,175,-29,-190,117,73,214,117,92,43,-4,24
161,146,-14,-153,87,65,224,102,82,24,-24,4
126,107,-19,-117,73,43,209,87,68,9,-29,-4
131,97,-34,-114,82,31,200,73,63,0,-34,-19
136,97,-39,-117,87,29,195,68,68,0,-29,-14
92,122,29,-107,31,75,136,78,63,14,-19,0
53,92,39,-73,7,65,117,68,73,14,-19,-9
9,29,19,-19,-4,24,102,78,97,39,-9,-4
-4,19,24,-7,-14,21,97,126,151,73,14,4
73,92,19,-82,26,56,117,214,209,122,39,4
200,200,0,-200,100,100,151,307,278,175,63,4
200,156,-43,-178,122,56,141,356,297,185,73,4
14,0,-14,-7,14,-7,107,312,190,146,48,-9
-122,-48,73,85,-97,12,87,214,9,97,48,-9
-48,0,48,24,-48,24,68,97,-204,58,53,9
68,68,0,-68,34,34,58,-53,-448,4,68,48
68,53,-14,-61,41,19,43,-283,-751,-78,78,87
39,24,-14,-31,26,4,9,-546,-1093,-165,82,92
87,87,0,-87,43,43,-43,-717,-1361,-229,102,107
126,136,9,-131,58,73,-87,-834,-1600,-273,161,146
136,146,9,-141,63,78,-146,-1010,-1903,-351,209,200
156,131,-24,-143,90,53,-234,-1234,-2191,-429,263,244
131,58,-73,-95,102,-7,-322,-1459,-2425,-483,336,283
97,-9,-107,-43,102,-58,-409,-1688,-2679,-541,409,331
97,-34,-131,-31,114,-82,-502,-1952,-2923,-590,512,390
34,-82,-117,24,75,-100,-585,-2230,-3123,-610,634,458
87,-63,-151,-12,119,-107,-634,-2469,-3259,-605,771,536
239,4,-234,-122,236,-114,-683,-2635,-3342,-600,902,600
234,-82,-317,-75,275,-200,-761,-2771,-3357,-595,995,634
239,-156,-395,-41,317,-275,-795,-2869,-3313,-566,1083,653
346,-122,-468,-112,407,-295,-756,-2908,-3230,-546,1132,692
322,-200,-522,-61,422,-361,-746,-2913,-3157,-590,1102,673
195,-395,-590,100,392,-492,-785,-2879,-3084,-688,966,580
219,-390,-610,85,414,-500,-761,-2776,-2952,-775,805,527
444,-151,-595,-146,519,-373,-658,-2615,-2771,-834,668,502
522,-63,-585,-229,553,-324,-629,-2449,-2601,-917,488,453
366,-219,-585,-73,475,-402,-649,-2288,-2440,-995,283,336
283,-322,-605,19,444,-463,-649,-2108,-2239,-1024,102,224
370,-224,-595,-73,483,-409,-600,-1883,-1991,-990,-39,131
380,-161,-541,-109,461,-351,-561,-1639,-1747,-961,-200,39
283,-244,-527,-19,405,-385,-541,-1449,-1556,-985,-400,-53
214,-351,-566,68,390,-458,-507,-1283,-1405,-995,-536,-146
273,-326,-600,26,436,-463,-395,-1063,-1205,-907,-556,-200
326,-278,-605,-24,466,-441,-268,-819,-980,-785,-546,-283
253,-356,-610,51,431,-483,-200,-658,-834,-746,-570,-380
190,-444,-634,126,412,-539,-180,-561,-751,-717,-580,-400
156,-507,-663,175,409,-585,-170,-478,-668,-678,-570,-405
146,-497,-644,175,395,-570,-131,-366,-566,-619,-546,-414
234,-322,-556,43,395,-439,-68,-268,-458,-546,-517,-395
244,-204,-448,-19,346,-326,-29,-200,-385,-507,-492,-375
97,-253,-351,78,224,-302,-19,-175,-351,-488,-502,-375
34,-351,-385,158,209,-368,-34,-170,-361,-502,-541,-414
82,-429,-512,173,297,-470,-63,-190,-370,-536,-580,-448
141,-375,-517,117,329,-446,-34,-141,-307,-492,-536,-424
180,-180,-361,0,270,-270,39,-39,-185,-380,-434,-331
141,-63,-204,-39,173,-134,53,29,-102,-302,-356,-273
117,-68,-185,-24,151,-126,34,29,-78,-263,-331,-253
204,4,-200,-104,202,-97,58,53,-24,-209,-292,-224
204,29,-175,-117,190,-73,117,82,34,-161,-253,-200
43,-92,-136,24,90,-114,112,82,34,-156,-263,-209
24,-107,-131,41,78,-119,102,122,73,-126,-239,-204
117,-4,-122,-56,119,-63,131,185,151,-68,-185,-161
107,-9,-117,-48,112,-63,78,185,156,-73,-185,-161
73,-34,-107,-19,90,-70,-68,170,146,-78,-190,-170
24,-34,-58,4,41,-46,-312,185,165,-53,-161,-146
-73,-82,-9,78,-31,-46,-380,204,185,-34,-141,-146
-92,-78,14,85,-53,-31,-102,234,219,4,-117,-126
-87,-63,24,75,-56,-19,161,234,244,34,-97,-97
-78,-53,24,65,-51,-14,185,214,239,29,-107,-102
-107,-58,48,82,-78,-4,248,214,244,34,-97,-97
-97,-58,39,78,-68,-9,283,219,258,53,-78,-82
-39,-14,24,26,-31,4,336,229,258,58,-73,-73
4,58,53,-31,-24,56,287,248,292,87,-43,-53
19,68,48,-43,-14,58,268,258,307,97,-29,-34
34,68,34,-51,0,51,253,258,317,102,-24,-29
48,63,14,-56,17,39,234,253,322,107,-9,-24
19,43,24,-31,-2,34,214,239,307,102,-34,-29
-19,14,34,2,-26,24,195,229,297,92,-48,-43
-34,-14,19,24,-26,2,165,214,287,87,-53,-48
-39,-34,4,36,-21,-14,131,209,283,82,-58,-48
-24,-4,19,14,-21,7,122,209,292,82,-43,-53
-4,9,14,-2,-9,12,112,214,302,87,-43,-53
9,14,4,-12,2,9,97,214,302,87,-43,-53
14,14,0,-14,7,7,87,204,302,87,-43,-58
34,43,9,-39,12,26,107,224,322,107,-43,-48
53,63,9,-58,21,36,117,239,331,117,-34,-39
48,73,24,-61,12,48,131,268,351,136,-14,-24
43,82,39,-63,2,61,131,287,375,161,4,-9
68,122,53,-95,7,87,131,287,385,170,9,0
92,126,34,-109,29,80,131,287,385,170,4,-9
122,170,48,-146,36,109,141,287,395,180,19,-9
131,204,73,-168,29,139,151,317,419,190,34,0
112,175,63,-143,24,119,141,297,405,185,19,-4
78,146,68,-112,4,107,126,292,400,175,9,-14
68,126,58,-97,4,92,107,292,400,170,4,-29
68,131,63,-100,2,97,92,302,400,175,0,-24
87,156,68,-122,9,112,107,307,419,185,9,-14
34,117,82,-75,-24,100,107,307,424,190,9,-29
14,102,87,-58,-36,95,92,292,429,190,0,-34
19,92,73,-56,-26,82,97,307,439,200,9,-39
87,146,58,-117,14,102,136,317,458,214,19,-24
78,156,78,-117,0,117,156,346,473,219,34,-14
92,141,48,-117,21,95,165,356,502,234,39,-4
141,185,43,-163,48,114,190,375,522,244,48,9
185,219,34,-202,75,126,180,380,527,253,39,0
180,224,43,-202,68,134,170,385,522,248,39,-9
185,239,53,-212,65,146,151,390,531,248,39,-9
170,244,73,-207,48,158,141,395,546,253,39,-9
122,200,78,-161,21,139,126,395,541,244,39,-24
87,151,63,-119,12,107,112,385,541,244,34,-29
73,136,63,-104,4,100,97,385,546,248,24,-34
39,117,78,-78,-19,97,102,390,546,248,19,-43
68,146,78,-107,-4,112,141,419,575,268,34,-19
107,200,92,-153,7,146,170,439,595,283,43,-9
156,224,68,-190,43,146,170,444,619,302,58,-4
170,244,73,-207,48,158,175,458,634,312,73,0
161,253,92,-207,34,173,175,483,663,326,82,4
156,258,102,-207,26,180,175,492,678,331,92,4
146,278,131,-212,7,204,180,507,697,351,92,14
117,263,146,-190,-14,204,180,497,688,331,78,0
97,195,97,-146,0,146,165,478,668,307,73,-4
82,161,78,-122,2,119,170,507,688,322,68,-4
73,146,73,-109,0,109,165,522,717,351,78,0
63,112,48,-87,7,80,161,527,722,351,73,0
82,131,48,-107,17,90,170,536,727,366,73,-4
97,156,58,-126,19,107,180,541,741,375,78,0
117,180,63,-148,26,122,190,556,761,380,82,4
126,214,87,-170,19,151,200,566,766,385,87,9
107,209,102,-158,2,156,180,556,751,370,68,-4
97,200,102,-148,-2,151,170,551,751,366,68,-14
78,170,92,-124,-7,131,165,561,751,361,58,-19
68,161,92,-114,-12,126,156,551,746,356,58,-24
102,161,58,-131,21,109,161,556,751,366,48,-29
117,170,53,-143,31,112,161,561,751,366,48,-29
117,156,39,-136,39,97,161,561,766,375,58,-24
117,136,19,-126,48,78,161,551,751,356,43,-43
82,141,58,-112,12,100,170,570,761,366,53,-24
53,180,126,-117,-36,153,190,580,766,375,58,-24
39,200,161,-119,-61,180,185,580,766,385,68,-14
9,195,185,-102,-87,190,165,561,756,366,53,-29
53,209,156,-131,-51,183,146,575,766,370,63,-29
53,180,126,-117,-36,153,146,570,751,380,68,-29
-9,107,117,-48,-63,112,131,566,741,361,48,-29
-29,53,82,-12,-56,68,126,536,727,346,34,-29
4,82,78,-43,-36,80,122,551,717,336,29,-34
34,122,87,-78,-26,104,117,551,712,336,24,-34
0,102,102,-51,-51,102,112,546,702,331,24,-39
-4,107,112,-51,-58,109,107,536,692,317,19,-39
-24,122,146,-48,-85,134,122,522,697,322,19,-24
24,146,122,-85,-48,134,117,517,692,317,29,-19
39,170,131,-104,-46,151,122,512,678,317,29,-19
9,156,146,-82,-68,151,122,512,678,317,19,-19
-34,146,180,-56,-107,163,131,492,673,317,19,-19
-29,102,131,-36,-80,117,112,492,668,307,19,-19
-19,151,170,-65,-95,161,117,492,658,307,24,-19
9,175,165,-92,-78,170,136,492,644,302,29,-4
4,126,122,-65,-58,124,112,453,624,283,19,-14
9,136,126,-73,-58,131,102,439,614,273,9,-14
-9,107,117,-48,-63,112,112,434,590,253,0,-34
-29,58,87,-14,-58,73,107,405,546,229,-19,-53
-4,78,82,-36,-43,80,107,409,541,224,-9,-39
-19,58,78,-19,-48,68,92,400,536,224,-9,-24
-48,68,117,-9,-82,92,82,395,536,234,-4,-19
-29,87,117,-29,-73,102,78,390,512,219,-4,-14
-29,112,141,-41,-85,126,14,375,502,204,-19,-24
-34,97,131,-31,-82,114,-63,370,488,195,-34,-24
-73,63,136,4,-104,100,-141,356,473,190,-34,-24
-39,63,102,-12,-70,82,-200,341,453,175,-34,-19
0,63,63,-31,-31,63,-122,346,448,180,-29,-14
-4,73,78,-34,-41,75,-58,326,424,170,-29,-14
-4,58,63,-26,-34,61,9,326,414,170,-24,-9
39,87,48,-63,-4,68,136,331,419,175,-4,14
53,82,29,-68,12,56,146,307,385,151,-14,4
-14,34,48,-9,-31,41,126,283,346,117,-39,-24
-82,-4,78,43,-80,36,122,253,307,102,-48,-34
-73,4,78,34,-75,41,146,244,292,92,-39,-29
-92,-4,87,48,-90,41,102,209,268,73,-58,-48
-107,-34,73,70,-90,19,63,195,248,53,-73,-58
-122,-73,48,97,-85,-12,29,185,229,48,-73,-48
-151,-102,48,126,-100,-26,-9,161,195,34,-78,-48
-141,-92,48,117,-95,-21,9,131,175,24,-78,-48
-102,-58,43,80,-73,-7,29,126,175,29,-63,-34
-141,-107,34,124,-87,-36,43,122,180,34,-63,-34
-141,-170,-29,156,-56,-100,24,92,146,24,-73,-48
-117,-117,0,117,-58,-58,9,87,141,19,-68,-34
-97,-53,43,75,-70,-4,14,97,146,24,-63,-14
-82,-4,78,43,-80,36,-4,107,136,19,-58,-9
-63,39,102,12,-82,70,-43,92,112,0,-78,-24
-34,19,53,7,-43,36,-102,92,117,9,-58,-14
-34,-14,19,24,-26,2,-146,92,117,9,-58,-9
-92,-53,39,73,-65,-7,-136,92,112,9,-58,-9
-107,-112,-4,109,-51,-58,-185,73,97,-4,-63,-19
-87,-97,-9,92,-39,-53,-82,53,68,-19,-73,-29
-43,-29,14,36,-29,-7,-9,34,58,-29,-82,-24
9,19,9,-14,0,14,68,24,39,-39,-87,-29
-39,9,48,14,-43,29,122,29,43,-34,-87,-39
-43,-9,34,26,-39,12,92,29,24,-63,-107,-48
-73,-63,9,68,-41,-26,63,-9,0,-82,-131,-63
-97,-97,0,97,-48,-48,34,0,0,-68,-131,-63
-97,-141,-43,119,-26,-92,14,19,24,-58,-117,-53
-29,19,48,4,-39,34,53,29,53,-39,-87,-29
58,78,19,-68,19,48,53,29,53,-29,-82,-14
-34,-19,14,26,-24,-2,24,29,53,-29,-78,-14
-131,-107,24,119,-78,-41,-9,34,58,-29,-87,-19
-48,0,48,24,-48,24,0,39,78,-19,-78,0
-63,19,82,21,-73,51,-19,58,92,-4,-63,4
-68,29,97,19,-82,63,-29,68,97,0,-58,9
-73,39,112,17,-92,75,-39,78,102,4,-53,14
-78,48,126,14,-102,87,-48,87,107,9,-48,19
-68,43,112,12,-90,78,-63,78,97,-9,-63,0
-68,43,112,12,-90,78,-63,68,87,-14,-78,-9
-68,0,68,34,-68,34,-53,63,68,-34,-92,-29
-73,-24,48,48,-61,12,-58,43,58,-53,-112,-53
-102,-19,82,61,-92,31,-19,63,82,-39,-92,-39
-97,-48,48,73,-73,0,-19,58,92,-24,-87,-39
-73,-53,19,63,-46,-17,-4,63,107,-9,-78,-24
-58,-29,29,43,-43,0,4,87,141,29,-48,14
-39,9,48,14,-43,29,-48,87,146,24,-48,9
-53,-14,39,34,-46,12,-102,87,161,43,-43,14
-73,-4,68,39,-70,31,-141,82,161,43,-34,14
-24,34,58,-4,-41,46,-185,63,156,39,-34,9
-73,-4,68,39,-70,31,-122,9,117,4,-68,-19
-112,-34,78,73,-95,21,-63,-29,87,-19,-87,-39
-165,-53,112,109,-139,29,-4,-68,68,-43,-107,-58
-229,-97,131,163,-180,17,43,-102,34,-63,-126,-87
-214,-117,97,165,-156,-9,-48,-92,48,-48,-122,-73
-190,-82,107,136,-148,12,-131,-87,63,-39,-102,-63
-151,-34,117,92,-134,41,-204,-82,53,-34,-107,-48
-165,-78,87,122,-126,4,-283,-97,48,-39,-117,-58
-170,-78,92,124,-131,7,-190,-102,29,-43,-107,-48
-126,-24,102,75,-114,39,-97,-112,29,-48,-97,-43
-107,-34,73,70,-90,19,-4,-117,19,-43,-87,-39
-97,-58,39,78,-68,-9,92,-107,9,-58,-92,-48
-97,-58,39,78,-68,-9,39,-102,0,-58,-92,-43
-68,-53,14,61,-41,-19,-14,-92,19,-39,-82,-34
-97,-78,19,87,-58,-29,-58,-107,9,-53,-87,-39
-170,-141,29,156,-100,-56,-112,-112,4,-58,-92,-43
-107,-117,-9,112,-48,-63,-141,-107,4,-43,-78,-34
-58,-102,-43,80,-7,-73,-146,-97,9,-39,-73,-34
-39,-92,-53,65,7,-73,-141,-87,14,-39,-68,-24
-43,-97,-53,70,4,-75,-146,-68,14,-34,-68,-24
-53,-126,-73,90,9,-100,-156,-63,29,-24,-53,-19
-24,-87,-63,56,19,-75,-161,-58,34,-14,-43,-4
9,-58,-68,24,39,-63,-141,-48,39,-9,-43,-4
14,-58,-73,21,43,-65,-136,-43,43,-4,-39,0
29,-48,-78,9,53,-63,-209,-24,48,0,-39,9
4,-43,-48,19,26,-46,-248,-24,43,0,-24,19
0,-48,-48,24,24,-48,-317,-29,39,-4,-34,9
0,-43,-43,21,21,-43,-390,-39,29,-9,-43,4
0,-19,-19,9,9,-19,-283,-19,34,-9,-39,14
34,0,-34,-17,34,-17,-195,0,43,9,-34,19
102,58,-43,-80,73,7,-82,19,58,19,-19,24
136,97,-39,-117,87,29,39,43,73,29,-14,29
48,24,-24,-36,36,0,53,43,68,24,-24,19
-4,-14,-9,9,2,-12,58,29,63,9,-24,9
-39,-53,-14,46,-12,-34,73,9,48,-4,-39,-4
-92,-82,9,87,-51,-36,87,-4,34,-19,-58,-24
-156,-107,48,131,-102,-29,29,9,34,-19,-58,-39
-234,-141,92,187,-163,-24,0,24,48,-9,-48,-39
-253,-146,107,200,-180,-19,-24,24,48,-9,-48,-39
-263,-180,82,222,-173,-48,-82,19,43,-19,-58,-39
-239,-175,63,207,-151,-56,-97,19,29,-29,-82,-58
-190,-146,43,168,-117,-51,-117,19,29,-43,-87,-63
-97,-48,48,73,-73,0,-112,29,34,-48,-87,-63
-48,-43,4,46,-26,-19,-97,29,34,-58,-92,-63
-63,-58,4,61,-34,-26,-29,29,19,-48,-107,-63
-34,-43,-9,39,-12,-26,39,29,19,-48,-107,-63
-14,-14,0,14,-7,-7,122,29,19,-48,-107,-63
-14,0,14,7,-14,7,190,24,14,-58,-122,-63
4,-14,-19,4,12,-17,156,29,29,-48,-117,-48
-4,-4,0,4,-2,-2,122,34,34,-43,-107,-43
-43,-29,14,36,-29,-7,87,39,39,-43,-102,-43
-73,-63,9,68,-41,-26,63,43,43,-48,-102,-43
-73,-112,-39,92,-17,-75,14,19,24,-68,-126,-58
-82,-117,-34,100,-24,-75,-4,9,14,-78,-136,-68
-102,-136,-34,119,-34,-85,-9,4,9,-78,-151,-82
-151,-156,-4,153,-73,-80,-29,4,0,-87,-165,-97
-156,-146,9,151,-82,-68,-43,9,0,-92,-161,-87
-151,-136,14,143,-82,-61,-53,0,0,-92,-156,-87
-151,-136,14,143,-82,-61,-58,14,4,-87,-146,-82
-185,-146,39,165,-112,-53,-68,29,4,-73,-141,-82
-170,-131,39,151,-104,-46,-58,39,14,-68,-141,-73
-156,-126,29,141,-92,-48,-73,29,9,-68,-136,-73
-102,-92,9,97,-56,-41,-82,19,14,-63,-131,-78
-48,-48,0,48,-24,-24,-87,19,29,-48,-117,-63
-161,-102,58,131,-109,-21,-478,0,4,-63,-136,-78
-307,-219,87,263,-197,-65,-351,-19,-4,-82,-156,-107
-409,-370,39,390,-224,-165,-43,-19,19,-78,-156,-131
-414,-468,-53,441,-180,-261,136,39,63,-53,-131,-112
-180,-239,-58,209,-61,-148,292,175,180,43,-58,-43
161,170,9,-165,75,90,346,346,307,175,53,43
82,136,53,-109,14,95,200,326,239,146,14,14
-131,-58,73,95,-102,7,117,195,24,29,-58,-58
-53,9,63,21,-58,36,146,117,-146,9,-29,-19
-19,29,48,-4,-34,39,39,9,-361,0,14,19
-117,-87,29,102,-73,-29,-146,-229,-683,-112,0,9
-107,-92,14,100,-61,-39,-209,-507,-1054,-224,-19,19
-9,-4,4,7,-7,0,-165,-673,-1307,-263,34,73
97,48,-48,-73,73,0,-73,-775,-1507,-268,122,146
126,19,-107,-73,117,-43,-68,-941,-1805,-351,161,195
-29,-146,-117,87,43,-131,-214,-1215,-2166,-488,161,180
-185,-278,-92,231,-46,-185,-448,-1498,-2474,-595,175,175
-43,-185,-141,114,48,-163,-741,-1712,-2718,-629,278,244
165,0,-165,-82,165,-82,-819,-1873,-2874,-590,468,390
126,53,-73,-90,100,-9,-619,-2078,-3010,-570,649,517
-14,-34,-19,24,2,-26,-478,-2357,-3220,-629,732,546
39,-102,-141,31,90,-122,-458,-2605,-3406,-702,780,546
229,-53,-283,-87,256,-168,-478,-2771,-3450,-688,883,590
204,-112,-317,-46,261,-214,-644,-2879,-3406,-653,985,624
73,-273,-346,100,209,-309,-785,-2986,-3381,-673,1005,605
180,-239,-419,29,300,-329,-736,-2986,-3298,-683,1024,614
331,-161,-492,-85,412,-326,-688,-2884,-3137,-688,1015,634
224,-307,-531,41,378,-419,-766,-2810,-3035,-785,858,551
151,-400,-551,124,351,-475,-800,-2747,-2962,-951,619,448
200,-366,-566,82,383,-466,-766,-2596,-2801,-1039,434,385
180,-375,-556,97,368,-466,-766,-2410,-2610,-1093,234,297
122,-434,-556,156,339,-495,-766,-2249,-2420,-1132,19,170
156,-390,-546,117,351,-468,-688,-2030,-2181,-1112,-112,87
224,-351,-575,63,400,-463,-629,-1786,-1932,-1088,-263,-14
273,-336,-610,31,441,-473,-590,-1542,-1688,-1078,-434,-97
331,-302,-634,-14,483,-468,-502,-1312,-1449,-1044,-546,-112
351,-322,-673,-14,512,-497,-409,-1078,-1239,-966,-566,-156
253,-424,-678,85,466,-551,-336,-878,-1058,-868,-585,-268
122,-492,-614,185,368,-553,-287,-722,-902,-805,-624,-380
58,-502,-561,222,309,-531,-287,-649,-814,-785,-668,-439
34,-512,-546,239,290,-529,-287,-580,-771,-756,-678,-448
-48,-566,-517,307,234,-541,-248,-488,-688,-727,-668,-473
-244,-702,-458,473,107,-580,-258,-424,-634,-736,-712,-522
-292,-751,-458,522,82,-605,-253,-366,-585,-722,-722,-551
-29,-507,-478,268,224,-492,-146,-258,-453,-634,-649,-483
117,-351,-468,117,292,-409,-78,-224,-380,-585,-619,-444
-73,-458,-385,265,156,-422,-112,-248,-390,-600,-658,-483
-248,-527,-278,387,14,-402,-122,-229,-370,-566,-649,-488
-239,-522,-283,380,21,-402,-82,-180,-317,-512,-605,-463
-200,-512,-312,356,56,-412,-39,-146,-253,-448,-551,-409
-180,-453,-273,317,46,-363,-14,-97,-180,-400,-492,-361
-68,-322,-253,195,92,-287,-14,-58,-136,-361,-458,-322
78,-112,-190,17,134,-151,9,24,-24,-278,-380,-253
0,-19,-19,9,9,-19,0,112,82,-180,-292,-180
-170,-141,29,156,-100,-56,-258,92,63,-204,-322,-219
-278,-263,14,270,-146,-124,-541,53,24,-224,-356,-273
-263,-219,43,241,-153,-87,-375,97,73,-156,-312,-239
-146,-146,0,146,-73,-73,19,126,117,-102,-263,-200
-112,-170,-58,141,-26,-114,273,122,126,-97,-239,-190
-229,-248,-19,239,-104,-134,351,117,126,-102,-248,-185
-336,-346,-9,341,-163,-178,244,126,136,-112,-258,-185
-268,-351,-82,309,-92,-217,43,175,190,-73,-224,-156
-126,-200,-73,163,-26,-136,-200,234,244,-14,-165,-107
-146,-180,-34,163,-56,-107,-175,209,219,-34,-185,-117
-195,-165,29,180,-112,-68,-112,195,214,-34,-185,-126
-204,-146,58,175,-131,-43,-78,185,219,-19,-175,-126
-165,-82,82,124,-124,0,-24,180,209,-19,-180,-131
-107,-19,87,63,-97,34,43,204,248,9,-141,-102
-87,-19,68,53,-78,24,122,219,268,29,-117,-73
-68,-29,39,48,-53,4,204,224,283,43,-102,-58
-48,-43,4,46,-26,-19,283,224,292,58,-78,-43
-82,-29,53,56,-68,12,244,204,287,58,-97,-48
-117,-34,82,75,-100,24,204,200,278,53,-107,-63
-126,-39,87,82,-107,24,156,190,268,53,-107,-68
-126,-34,92,80,-109,29,102,190,263,53,-107,-68
-136,-48,87,92,-112,19,87,200,273,43,-102,-53
-141,-58,82,100,-112,12,73,204,283,48,-102,-53
-151,-78,73,114,-112,-2,53,204,283,48,-102,-53
-170,-102,68,136,-119,-17,39,195,283,48,-102,-58
-190,-112,78,151,-134,-17,39,200,283,48,-117,-73
-209,-122,87,165,-148,-17,39,200,283,48,-122,-78
-253,-141,112,197,-183,-14,43,214,292,58,-117,-78
-297,-161,136,229,-217,-12,34,219,307,73,-112,-78
-268,-161,107,214,-187,-26,4,204,292,53,-126,-92
-248,-195,53,222,-151,-70,-24,190,278,34,-151,-117
-224,-190,34,207,-129,-78,-43,175,273,24,-156,-131
-219,-195,24,207,-122,-85,-63,190,283,14,-161,-136
-190,-165,24,178,-107,-70,-29,190,307,43,-141,-112
-185,-146,39,165,-112,-53,0,204,322,58,-126,-102
-156,-117,39,136,-97,-39,24,224,341,78,-107,-97
-117,-63,53,90,-85,-4,53,253,361,107,-87,-73
-107,-58,48,82,-78,-4,43,253,366,102,-97,-73
-180,-117,63,148,-122,-26,29,239,356,92,-107,-97
-219,-151,68,185,-143,-41,0,209,346,78,-126,-112
-234,-180,53,207,-143,-63,-9,209,341,73,-126,-126
-180,-126,53,153,-117,-36,19,219,370,92,-117,-117
-195,-117,78,156,-136,-19,29,248,385,102,-102,-102
-185,-131,53,158,-119,-39,29,258,414,122,-97,-87
-141,-87,53,114,-97,-17,43,278,434,136,-87,-68
-146,-78,68,112,-107,-4,39,278,444,151,-82,-68
-190,-78,112,134,-151,17,24,287,444,151,-78,-78
-224,-68,156,146,-190,43,0,297,458,156,-73,-78
-278,-68,209,173,-244,70,-14,307,478,165,-68,-78
-297,-107,190,202,-244,41,-87,326,483,161,-78,-87
-312,-161,151,236,-231,-4,-151,317,483,156,-82,-97
-307,-180,126,244,-217,-26,-214,317,488,156,-92,-107
-322,-204,117,263,-219,-43,-258,322,488,151,-97,-122
-268,-195,73,231,-170,-61,-107,356,517,175,-78,-82
-214,-151,63,183,-139,-43,24,380,536,195,-63,-68
-151,-136,14,143,-82,-61,126,390,561,219,-43,-58
-122,-126,-4,124,-58,-65,234,409,575,234,-24,-48
-156,-117,39,136,-97,-39,190,405,580,224,-34,-68
-175,-112,63,143,-119,-24,156,395,580,214,-43,-82
-200,-92,107,146,-153,7,126,390,585,219,-63,-87
-244,-107,136,175,-190,14,92,361,561,185,-97,-117
-219,-92,126,156,-173,17,78,366,556,185,-87,-112
-190,-63,126,126,-158,31,82,400,580,204,-87,-112
-156,-14,141,85,-148,63,78,419,614,239,-73,-107
-122,14,136,53,-129,75,73,429,624,244,-73,-107
-165,-39,126,102,-146,43,43,434,624,239,-78,-117
-214,-87,126,151,-170,19,34,434,634,239,-78,-117
-258,-136,122,197,-190,-7,24,444,649,234,-78,-117
-312,-175,136,244,-224,-19,14,448,649,229,-78,-117
-253,-92,161,173,-207,34,39,478,663,248,-73,-107
-195,-34,161,114,-178,63,63,492,683,268,-48,-92
-146,4,151,70,-148,78,92,522,702,287,-34,-73
-87,63,151,12,-119,107,117,531,717,307,-9,-53
-78,73,151,2,-114,112,39,536,732,307,-9,-63
-68,92,161,-12,-114,126,-24,541,732,307,-9,-58
-73,87,161,-7,-117,124,-87,541,746,317,0,-48
-78,78,156,0,-117,117,-151,531,732,297,-14,-63
-117,24,141,46,-129,82,-43,531,722,287,-19,-68
-151,24,175,63,-163,100,53,531,717,297,-19,-73
-170,4,175,82,-173,90,126,522,707,307,-14,-68
-204,-39,165,122,-185,63,185,492,688,287,-34,-87
-141,19,161,61,-151,90,190,527,717,297,-9,-68
-122,24,146,48,-134,85,195,531,712,312,0,-68
-165,-14,151,90,-158,68,185,536,712,297,-14,-68
-165,-34,131,100,-148,48,185,517,707,287,-24,-68
-136,-39,97,87,-117,29,136,517,692,287,-19,-73
-122,-24,97,73,-109,36,97,512,683,287,-24,-73
-170,-68,102,119,-136,17,58,502,668,283,-24,-78
-190,-87,102,139,-146,7,19,488,653,268,-29,-78
-239,-117,122,178,-180,2,29,468,634,244,-48,-87
-229,-126,102,178,-165,-12,19,448,614,219,-58,-97
-253,-136,117,195,-185,-9,19,429,585,200,-78,-112
-322,-185,136,253,-229,-24,14,414,570,180,-107,-126
-346,-175,170,261,-258,-2,-9,400,561,180,-102,-136
-322,-200,122,261,-222,-39,-53,395,551,170,-107,-136
-292,-131,161,212,-226,14,-73,390,536,170,-107,-136
-244,-87,156,165,-200,34,-78,385,517,165,-107,-122
-229,-112,117,170,-173,2,-39,380,527,170,-92,-117
-204,-78,126,141,-165,24,-4,380,536,175,-87,-102
-204,-82,122,143,-163,19,48,390,531,170,-82,-107
-204,-107,97,156,-151,-4,87,375,507,161,-87,-112
-204,-117,87,161,-146,-14,87,366,492,156,-87,-107
-244,-156,87,200,-165,-34,73,351,488,156,-87,-92
-297,-165,131,231,-214,-17,63,341,488,165,-82,-87
-302,-165,136,234,-219,-14,58,331,463,151,-82,-82
-307,-156,151,231,-229,-2,48,307,429,131,-97,-87
-317,-185,131,251,-224,-26,14,302,409,117,-112,-92
-361,-234,126,297,-244,-53,-19,287,390,107,-112,-97
-331,-248,82,290,-207,-82,-34,273,366,87,-112,-97
-273,-204,68,239,-170,-68,-24,287,366,97,-102,-87
-268,-170,97,219,-183,-36,-29,268,346,92,-97,-82
-258,-161,97,209,-178,-31,-29,268,341,97,-87,-73
-204,-107,97,156,-151,-4,29,273,351,107,-63,-43
-146,-68,78,107,-112,4,14,258,322,92,-78,-48
-180,-92,87,136,-134,-2,-29,234,287,58,-97,-73
-214,-107,107,161,-161,0,-58,204,253,43,-102,-78
-170,-73,97,122,-134,12,-58,195,244,34,-87,-68
-185,-82,102,134,-143,9,-92,175,234,39,-82,-68
-195,-112,82,153,-139,-14,-112,165,219,24,-92,-78
-204,-151,53,178,-129,-48,-126,161,204,24,-87,-68
-229,-180,48,204,-139,-65,-146,141,175,14,-87,-68
-239,-170,68,204,-153,-51,-165,126,161,-4,-107,-87
-229,-136,92,183,-161,-21,-175,126,156,-9,-92,-73
-297,-185,112,241,-204,-36,-190,126,156,-14,-92,-73
-326,-248,78,287,-202,-85,-239,102,117,-34,-102,-87
-297,-229,68,263,-183,-80,-175,102,117,-39,-102,-78
-273,-200,73,236,-173,-63,-102,107,117,-34,-102,-63
-253,-185,68,219,-161,-58,-53,112,102,-39,-102,-63
-229,-175,53,202,-141,-61,-24,92,73,-58,-126,-82
-190,-136,53,163,-122,-41,-14,73,58,-58,-107,-68
-180,-131,48,156,-114,-41,-9,63,58,-58,-107,-58
-229,-131,97,180,-163,-17,48,53,53,-58,-107,-53
-234,-151,82,192,-158,-34,48,24,39,-73,-112,-58
-239,-180,58,209,-148,-61,53,19,24,-92,-126,-68
-209,-146,63,178,-136,-41,29,4,19,-97,-131,-63
-170,-131,39,151,-104,-46,9,0,4,-102,-131,-68
-234,-175,58,204,-146,-58,-34,9,14,-92,-126,-78
-214,-185,29,200,-122,-78,-48,0,-4,-112,-126,-87
-229,-219,9,224,-119,-104,-53,-39,-29,-131,-151,-102
-239,-234,4,236,-122,-114,-58,-29,-29,-117,-151,-102
-224,-258,-34,241,-95,-146,-53,-9,-4,-107,-136,-92
-165,-156,9,161,-87,-73,-53,19,14,-87,-117,-78
-244,-156,87,200,-165,-34,-24,29,34,-78,-112,-73
-278,-185,92,231,-185,-46,-4,19,24,-68,-107,-73
-297,-244,53,270,-175,-95,-19,-14,0,-87,-117,-87
-302,-273,29,287,-165,-122,-58,-39,-29,-117,-156,-107
-278,-229,48,253,-163,-90,-39,-24,-4,-102,-141,-87
-253,-195,58,224,-156,-68,-29,-9,9,-87,-126,-78
-229,-161,68,195,-148,-46,-19,4,24,-73,-112,-68
-204,-126,78,165,-141,-24,-9,19,39,-58,-97,-58
-229,-165,63,197,-146,-51,-87,19,29,-63,-107,-78
-273,-190,82,231,-178,-53,-161,19,29,-63,-117,-78
-317,-258,58,287,-187,-100,-224,24,19,-78,-126,-87
-366,-307,58,336,-212,-124,-302,14,19,-92,-141,-102
-346,-234,112,290,-229,-61,-185,39,39,-87,-126,-92
-292,-214,78,253,-185,-68,-107,39,43,-82,-126,-97
-219,-170,48,195,-134,-61,-14,48,53,-78,-122,-87
-156,-97,58,126,-107,-19,73,78,82,-48,-97,-53
-117,-34,82,75,-100,24,92,92,97,-34,-78,-48
-122,-43,78,82,-100,17,102,97,122,-4,-63,-34
-131,-19,112,75,-122,46,126,97,131,4,-43,-24
-73,34,107,19,-90,70,146,82,136,9,-34,-19
-117,-9,107,63,-112,48,97,29,112,-14,-63,-48
-141,-43,97,92,-119,26,43,0,87,-29,-78,-58
-180,-68,112,124,-146,21,-9,-29,73,-43,-92,-68
-229,-117,112,173,-170,-2,-73,-53,43,-53,-107,-87
-224,-126,97,175,-161,-14,-112,-48,58,-39,-97,-73
-200,-92,107,146,-153,7,-131,-39,73,-29,-73,-63
-161,-43,117,102,-139,36,-141,-29,63,-24,-73,-48
-175,-87,87,131,-131,0,-156,-39,58,-29,-78,-58
-229,-117,112,173,-170,-2,-156,-78,29,-58,-87,-63
-224,-82,141,153,-183,29,-156,-102,19,-68,-87,-63
-244,-112,131,178,-187,9,-156,-122,0,-68,-87,-63
-273,-156,117,214,-195,-19,-151,-126,-19,-87,-102,-78
-239,-151,87,195,-163,-31,-156,-112,-29,-87,-102,-73
-185,-141,43,163,-114,-48,-161,-102,-9,-68,-92,-63
-190,-161,29,175,-109,-65,-156,-117,-19,-82,-97,-68
-239,-219,19,229,-129,-100,-161,-122,-24,-87,-102,-73
-224,-229,-4,226,-109,-117,-200,-141,-34,-87,-102,-78
-214,-239,-24,226,-95,-131,-214,-146,-39,-87,-102,-82
-234,-253,-19,244,-107,-136,-219,-151,-43,-92,-102,-78
-278,-283,-4,280,-136,-143,-234,-146,-53,-92,-107,-82
-258,-278,-19,268,-119,-148,-297,-136,-43,-82,-97,-68
-219,-214,4,217,-112,-104,-346,-126,-34,-73,-82,-53
-175,-161,14,168,-95,-73,-370,-112,-24,-68,-78,-53
-161,-136,24,148,-92,-56,-409,-102,-14,-63,-68,-48
-156,-175,-19,165,-68,-97,-297,-87,-14,-53,-63,-43
-180,-200,-19,190,-80,-109,-170,-92,-24,-58,-53,-39
-185,-234,-48,209,-68,-141,-73,-102,-34,-68,-68,-53
-185,-258,-73,222,-56,-165,19,-117,-48,-78,-82,-63
-185,-229,-43,207,-70,-136,9,-107,-48,-82,-82,-63
-161,-204,-43,183,-58,-124,-19,-87,-43,-68,-82,-58
-102,-141,-39,122,-31,-90,-24,-68,-34,-63,-73,-53
-78,-97,-19,87,-29,-58,-19,-43,-24,-58,-73,-48
-156,-165,-9,161,-73,-87,-43,-19,-9,-39,-68,-48
-200,-209,-9,204,-95,-109,-68,-19,-4,-48,-63,-48
-224,-253,-29,239,-97,-141,-82,-24,-9,-58,-73,-53
-268,-287,-19,278,-124,-153,-97,-24,-14,-68,-87,-63
-253,-248,4,251,-129,-122,-97,0,-9,-58,-87,-58
-273,-229,43,251,-158,-92,-68,14,9,-48,-78,-58
-234,-180,53,207,-143,-63,-34,14,14,-48,-78,-58
-185,-161,24,173,-104,-68,-34,9,14,-58,-87,-58
-234,-195,39,214,-136,-78,-43,-14,-14,-68,-112,-82
-248,-204,43,226,-146,-80,-58,-19,-19,-82,-117,-92
-219,-146,73,183,-146,-36,-48,-14,-19,-87,-117,-97
-234,-180,53,207,-143,-63,-29,-19,-24,-97,-122,-102
-268,-234,34,251,-151,-100,-34,0,-9,-87,-117,-92
-258,-239,19,248,-139,-109,-29,9,0,-78,-107,-82
-258,-229,29,244,-143,-100,-9,19,9,-68,-97,-73
-278,-234,43,256,-161,-95,-4,24,14,-68,-102,-63
-224,-214,9,219,-117,-102,-29,14,4,-78,-112,-73
-209,-180,29,195,-119,-75,-43,14,-4,-82,-117,-82
-224,-180,43,202,-134,-68,-58,14,-14,-92,-126,-97
-229,-190,39,209,-134,-75,-63,14,-24,-107,-141,-112
-229,-229,0,229,-114,-114,-58,0,-19,-102,-131,-107
-229,-224,4,226,-117,-109,-43,0,-14,-97,-126,-97
-239,-234,4,236,-122,-114,-14,4,-4,-82,-126,-92
-278,-244,34,261,-156,-104,0,14,0,-78,-126,-87
-273,-214,58,244,-165,-78,-4,14,-9,-78,-122,-97
-258,-195,63,226,-161,-65,-4,0,-9,-82,-117,-97
-248,-185,63,217,-156,-61,0,9,-4,-82,-107,-92
-273,-185,87,229,-180,-48,0,19,-4,-73,-102,-92
-278,-180,97,229,-187,-41,-43,24,-4,-78,-112,-82
-283,-195,87,239,-185,-53,-92,19,-9,-78,-107,-82
-248,-180,68,214,-158,-56,-136,14,-4,-73,-102,-87
-214,-156,58,185,-136,-48,-175,19,9,-58,-87,-73
-287,-268,19,278,-153,-124,-458,39,24,-53,-87,-78
-326,-297,29,312,-178,-134,-165,39,34,-43,-87,-78
-185,-156,29,170,-107,-63,63,58,58,-19,-58,-63
-151,-97,53,124,-102,-21,165,58,73,-14,-63,-73
-200,-92,107,146,-153,7,283,107,122,24,-48,-63
-102,-4,97,53,-100,46,278,248,219,97,4,-24
-34,-58,-24,46,-4,-41,122,307,239,107,4,-43
-190,-253,-63,222,-63,-158,39,244,112,39,-48,-87
-239,-224,14,231,-126,-104,68,185,-39,19,-29,-68
-146,-78,68,112,-107,-4,58,97,-224,0,14,-29
-195,-117,78,156,-136,-19,29,-82,-507,-92,-9,-29
-234,-141,92,187,-163,-24,43,-331,-839,-195,-29,-19
-204,-112,92,158,-148,-9,0,-585,-1171,-283,-24,-14
-253,-195,58,224,-156,-68,-122,-775,-1468,-375,-14,-19
-273,-244,29,258,-151,-107,-175,-873,-1708,-409,43,39
-234,-253,-19,244,-107,-136,-195,-980,-1961,-448,141,151
-214,-278,-63,246,-75,-170,-253,-1176,-2230,-507,234,224
-161,-234,-73,197,-43,-153,-312,-1390,-2474,-551,326,273
-97,-156,-58,126,-19,-107,-361,-1610,-2698,-580,429,341
-9,-82,-73,46,31,-78,-414,-1864,-2932,-629,541,409
63,-34,-97,-14,80,-65,-575,-2191,-3162,-678,644,468
58,-122,-180,31,119,-151,-956,-2479,-3367,-741,722,488
4,-258,-263,126,134,-261,-1220,-2674,-3498,-785,805,512
29,-268,-297,119,163,-283,-1015,-2801,-3503,-771,907,556
102,-204,-307,51,204,-256,-756,-2888,-3440,-732,1005,605
102,-239,-341,68,222,-290,-668,-2937,-3376,-741,1034,605
87,-326,-414,119,251,-370,-570,-2942,-3303,-766,1015,595
78,-385,-463,153,270,-424,-600,-2888,-3191,-824,917,531
4,-458,-463,226,234,-461,-751,-2815,-3079,-941,727,448
4,-483,-488,239,246,-485,-756,-2742,-2967,-1068,502,366
92,-444,-536,175,314,-490,-707,-2596,-2806,-1141,322,297
34,-473,-507,219,270,-490,-707,-2376,-2576,-1151,156,219
-136,-585,-448,361,156,-517,-697,-2156,-2347,-1151,-4,126
-87,-575,-488,331,200,-531,-649,-1932,-2088,-1127,-156,24
78,-453,-531,187,305,-492,-570,-1649,-1786,-1039,-268,-39
146,-380,-527,117,336,-453,-512,-1410,-1527,-1005,-409,-92
165,-409,-575,122,370,-492,-478,-1244,-1366,-995,-517,-146
156,-483,-639,163,397,-561,-434,-1063,-1215,-946,-566,-229
112,-531,-644,209,378,-588,-366,-888,-1049,-873,-595,-341
0,-590,-590,295,295,-590,-297,-736,-912,-834,-639,-419
-63,-649,-585,356,261,-617,-219,-610,-790,-775,-619,-429
39,-556,-595,258,317,-575,-131,-448,-649,-678,-570,-395
58,-468,-527,204,292,-497,-92,-336,-556,-629,-566,-434
-87,-527,-439,307,175,-483,-136,-326,-546,-663,-644,-512
-146,-556,-409,351,131,-483,-146,-326,-522,-663,-658,-522
-68,-488,-419,278,175,-453,-107,-283,-458,-614,-619,-483
-4,-448,-444,226,219,-446,-73,-239,-409,-570,-580,-444
-63,-507,-444,285,190,-475,-82,-239,-400,-566,-590,-458
-200,-629,-429,414,114,-529,-102,-229,-395,-580,-614,-492
-219,-619,-400,419,90,-509,-78,-175,-322,-536,-570,-478
-131,-444,-312,287,90,-378,-14,-78,-219,-439,-502,-409
-175,-322,-146,248,-14,-234,24,-9,-136,-351,-429,-341
-244,-278,-34,261,-104,-156,29,34,-73,-287,-370,-302
-165,-214,-48,190,-58,-131,29,34,-34,-248,-341,-287
-112,-229,-117,170,2,-173,-4,-4,-43,-253,-351,-287
-209,-370,-161,290,-24,-265,-53,-24,-53,-273,-356,-302
-312,-434,-122,373,-95,-278,-34,29,4,-224,-312,-268
-283,-390,-107,336,-87,-248,39,126,97,-131,-234,-200
-190,-287,-97,239,-46,-192,58,170,136,-87,-209,-180
-200,-239,-39,219,-80,-139,29,156,136,-102,-229,-204
-278,-239,39,258,-158,-100,9,146,126,-112,-239,-214
-258,-204,53,231,-156,-75,34,156,141,-92,-204,-204
-224,-200,24,212,-124,-87,43,156,156,-63,-185,-175
-248,-219,29,234,-139,-95,4,156,165,-63,-185,-170
-302,-244,58,273,-180,-92,24,156,175,-53,-175,-165
-317,-263,53,290,-185,-104,14,161,195,-29,-156,-151
-283,-239,43,261,-163,-97,24,170,200,-19,-151,-141
-234,-156,78,195,-156,-39,19,185,234,4,-126,-117
-224,-136,87,180,-156,-24,24,200,248,19,-107,-102
-214,-126,87,170,-151,-19,34,204,258,29,-97,-102
-204,-122,82,163,-143,-19,39,204,263,39,-78,-102
-239,-151,87,195,-163,-31,-29,185,253,39,-97,-97
-273,-180,92,226,-183,-43,-87,180,248,34,-107,-102
-283,-209,73,246,-178,-68,-156,170,244,34,-107,-97
-283,-229,53,256,-168,-87,-229,170,244,34,-107,-87
-244,-190,53,217,-148,-68,-131,195,268,48,-87,-73
-209,-156,53,183,-131,-51,-34,204,283,58,-82,-73
-180,-131,48,156,-114,-41,58,209,287,63,-78,-73
-161,-112,48,136,-104,-31,156,204,292,68,-73,-78
-146,-102,43,124,-95,-29,175,195,287,53,-87,-78
-141,-102,39,122,-90,-31,185,190,283,48,-92,-78
-161,-112,48,136,-104,-31,200,200,287,53,-87,-73
-180,-122,58,151,-119,-31,200,200,297,63,-82,-68
-190,-122,68,156,-129,-26,161,209,307,68,-73,-68
-200,-156,43,178,-122,-56,131,209,307,73,-82,-78
-204,-151,53,178,-129,-48,112,209,317,87,-73,-78
-229,-156,73,192,-151,-41,92,239,341,102,-63,-68
-209,-156,53,183,-131,-51,82,209,326,92,-73,-78
-214,-156,58,185,-136,-48,78,204,322,87,-78,-82
-195,-146,48,170,-122,-48,68,204,322,87,-78,-92
-165,-112,53,139,-109,-29,63,214,322,97,-78,-82
-146,-78,68,112,-107,-4,78,244,356,117,-63,-53
-209,-107,102,158,-156,-2,78,248,366,122,-58,-68
-239,-112,126,175,-183,7,63,239,375,122,-63,-73
-244,-112,131,178,-187,9,68,258,390,131,-48,-78
-185,-68,117,126,-151,24,78,258,409,151,-43,-68
-195,-68,126,131,-161,29,78,278,414,151,-34,-63
-180,-92,87,136,-134,-2,68,278,434,161,-34,-58
-131,-58,73,95,-102,7,73,287,444,165,-29,-48
-136,-58,78,97,-107,9,63,302,463,180,-29,-48
-170,-68,102,119,-136,17,53,317,463,180,-29,-58
-195,-68,126,131,-161,29,34,331,478,185,-29,-58
-239,-78,161,158,-200,41,24,346,497,195,-29,-58
-224,-73,151,148,-187,39,29,346,492,185,-34,-63
-204,-92,112,148,-158,9,34,336,492,185,-34,-68
-165,-78,87,122,-126,4,39,336,497,190,-39,-73
-146,-68,78,107,-112,4,63,341,497,190,-39,-82
-170,-97,73,134,-122,-12,73,351,507,190,-48,-73
-175,-82,92,129,-134,4,73,361,517,195,-53,-78
-170,-97,73,134,-122,-12,43,356,531,204,-53,-87
-200,-117,82,158,-141,-17,19,361,536,204,-53,-97
-161,-87,73,124,-117,-7,29,380,570,229,-34,-82
-126,-63,63,95,-95,0,48,395,590,244,-14,-73
-97,-24,73,61,-85,24,73,414,614,273,-4,-53
-87,-19,68,53,-78,24,92,409,610,263,-9,-58
-112,-43,68,78,-90,12,107,390,590,239,-14,-73
-131,-43,87,87,-109,21,122,419,610,253,-19,-73
-146,-24,122,85,-134,48,126,434,639,283,-9,-68
-161,-24,136,92,-148,56,131,439,644,283,-14,-68
-175,-39,136,107,-156,48,112,448,653,283,-9,-68
-185,-48,136,117,-161,43,102,453,663,287,-9,-68
-190,-58,131,124,-161,36,92,468,678,287,-9,-68
-204,-58,146,131,-175,43,82,478,678,287,-9,-68
-219,-82,136,151,-178,26,73,473,668,278,-34,-87
-234,-112,122,173,-178,4,63,473,673,278,-29,-92
-258,-161,97,209,-178,-31,58,488,678,278,-34,-92
-273,-190,82,231,-178,-53,48,483,678,278,-29,-92
-209,-136,73,173,-141,-31,-19,497,697,302,-24,-87
-165,-73,92,119,-129,9,-82,512,702,307,-19,-78
-136,-34,102,85,-119,34,-146,522,722,322,-4,-63
-107,0,107,53,-107,53,-209,522,712,307,-14,-73
-146,-48,97,97,-122,24,-73,527,707,302,-24,-68
-180,-43,136,112,-158,46,53,531,707,307,-19,-73
-200,-58,141,129,-170,41,156,527,702,312,-9,-68
-234,-97,136,165,-185,19,244,502,688,287,-24,-87
-200,-48,151,124,-175,51,219,512,707,302,-4,-73
-209,-43,165,126,-187,61,204,512,702,322,9,-68
-283,-82,200,183,-241,58,175,512,702,312,0,-63
-312,-102,209,207,-261,53,156,488,697,307,-4,-58
-239,-73,165,156,-202,46,136,488,678,287,-19,-63
-180,-34,146,107,-163,56,117,483,673,287,-24,-63
-185,-53,131,119,-158,39,97,473,663,283,-24,-68
-161,-48,112,104,-136,31,78,458,653,268,-29,-68
-170,-29,141,100,-156,56,92,453,663,273,-39,-73
-112,0,112,56,-112,56,87,448,653,268,-29,-68
-87,29,117,29,-102,73,92,444,634,268,-29,-68
-107,19,126,43,-117,73,92,444,629,268,-39,-68
-180,-4,175,92,-178,85,48,444,624,258,-34,-68
-185,-53,131,119,-158,39,-24,444,619,248,-39,-68
-185,-9,175,97,-180,82,-73,444,610,248,-39,-68
-165,9,175,78,-170,92,-107,444,595,244,-39,-53
-151,-24,126,87,-139,51,-73,434,595,244,-29,-39
-136,9,146,63,-141,78,-43,439,605,253,-19,-24
-146,4,151,70,-148,78,4,453,600,253,-9,-29
-156,-19,136,87,-146,58,39,444,575,248,-9,-34
-126,-9,117,68,-122,53,87,434,546,219,-24,-43
-136,-29,107,82,-122,39,112,419,536,214,-29,-34
-161,-19,141,90,-151,61,141,409,531,219,-29,-34
-136,0,136,68,-136,68,175,400,502,200,-34,-34
-141,9,151,65,-146,80,165,366,478,180,-43,-48
-151,-9,141,80,-146,65,131,351,458,165,-63,-53
-195,-48,146,122,-170,48,97,326,439,156,-68,-58
-165,-53,112,109,-139,29,82,302,414,136,-73,-58
-151,-58,92,104,-122,17,73,312,405,146,-63,-53
-170,-53,117,112,-143,31,48,287,375,131,-68,-53
-185,-73,112,129,-148,19,29,283,361,126,-68,-48
-156,-48,107,102,-131,29,68,283,361,126,-53,-24
-122,-29,92,75,-107,31,53,283,361,126,-43,-24
-170,-73,97,122,-134,12,9,273,336,107,-58,-43
-219,-107,112,163,-165,2,-19,258,312,107,-58,-43
-190,-92,97,141,-143,2,-19,263,312,112,-39,-29
-170,-78,92,124,-131,7,-14,253,302,107,-34,-19
-156,-92,63,124,-109,-14,-14,244,287,92,-43,-19
-141,-117,24,129,-82,-46,-9,239,273,92,-39,0
-141,-131,9,136,-75,-61,-9,219,244,82,-39,9
-170,-112,58,141,-114,-26,0,180,200,53,-63,-19
-170,-78,92,124,-131,7,19,156,185,39,-63,-24
-248,-126,122,187,-185,-2,34,131,175,24,-78,-43
-287,-190,97,239,-192,-46,14,82,126,-4,-102,-78
-234,-141,92,187,-163,-24,19,92,136,4,-87,-63
-175,-82,92,129,-134,4,34,107,146,14,-73,-34
-122,-39,82,80,-102,21,24,122,141,14,-58,-19
-63,0,63,31,-63,31,-4,112,122,0,-68,-24
4,39,34,-21,-14,36,4,117,141,24,-43,4
34,53,19,-43,7,36,9,131,156,39,-29,19
4,63,58,-34,-26,61,68,146,165,53,-14,29
19,53,34,-36,-7,43,68,141,165,53,-4,29
0,19,19,-9,-9,19,68,122,131,24,-19,9
4,48,43,-26,-19,46,39,102,117,9,-34,14
19,58,39,-39,-9,48,14,92,92,-4,-43,9
-68,9,78,29,-73,43,-34,97,92,-4,-48,0
-87,-14,73,51,-80,29,-39,73,78,-29,-68,-14
-122,-63,58,92,-90,-2,-43,29,48,-53,-92,-34
-151,-92,58,122,-104,-17,-48,34,43,-43,-92,-39
-156,-131,24,143,-90,-53,-43,48,63,-39,-78,-34
-185,-146,39,165,-112,-53,-63,29,43,-68,-97,-58
-107,-117,-9,112,-48,-63,-53,39,43,-58,-102,-43
-53,-29,24,41,-39,-2,-24,48,43,-58,-97,-34
24,68,43,-46,-9,56,-9,53,48,-58,-97,-29
9,39,29,-24,-9,34,-9,48,48,-58,-97,-39
-39,-9,29,24,-34,9,-78,29,29,-78,-112,-63
-87,-58,29,73,-58,-14,-136,19,19,-87,-126,-78
-136,-107,29,122,-82,-39,-195,9,9,-97,-141,-92
-185,-156,29,170,-107,-63,-253,0,0,-107,-156,-107
-136,-107,29,122,-82,-39,-214,29,29,-73,-126,-87
-107,-53,53,80,-80,0,-170,58,58,-43,-107,-58
-78,-43,34,61,-56,-4,-117,92,78,-29,-87,-39
-53,-14,39,34,-46,12,-78,112,107,-14,-73,-24
-107,-4,102,56,-104,48,14,112,122,-9,-58,-14
-126,-39,87,82,-107,24,78,97,122,-4,-58,-29
-126,-48,78,87,-102,14,156,92,126,0,-53,-29
-136,-29,107,82,-122,39,229,107,151,29,-29,-4
-117,0,117,58,-117,58,180,97,151,24,-24,-4
-131,-34,97,82,-114,31,141,97,161,43,-24,4
-151,-34,117,92,-134,41,117,92,156,43,-19,9
-102,-4,97,53,-100,46,87,73,146,39,-24,9
-156,-43,112,100,-134,34,63,24,122,9,-53,-9
-190,-63,126,126,-158,31,34,0,107,0,-58,-19
-239,-73,165,156,-202,46,4,-24,102,-9,-63,-29
-297,-107,190,202,-244,41,-34,-43,82,-14,-68,-48
-258,-87,170,173,-214,41,-39,-29,97,9,-43,-24
-200,-24,175,112,-187,75,-43,-9,122,29,-14,-4
-126,53,180,36,-153,117,-39,9,122,43,-9,19
-107,39,146,34,-126,92,-39,9,126,48,-9,19
-146,-4,141,75,-143,68,-68,-24,87,9,-29,-4
-136,14,151,61,-143,82,-87,-53,78,-9,-39,-14
-151,-29,122,90,-136,46,-107,-78,58,-19,-48,-24
-175,-87,87,131,-131,0,-122,-87,39,-48,-73,-48
-141,-82,58,112,-100,-12,-200,-78,29,-43,-63,-48
-87,-63,24,75,-56,-19,-278,-63,48,-19,-53,-34
-92,-73,19,82,-56,-26,-346,-73,39,-29,-58,-34
-141,-122,19,131,-80,-51,-424,-73,34,-29,-63,-34
-107,-87,19,97,-63,-34,-326,-58,39,-9,-43,-19
-78,-73,4,75,-41,-34,-214,-48,48,0,-34,-14
-78,-63,14,70,-46,-24,-92,-39,58,4,-24,0
-102,-68,34,85,-68,-17,19,-19,63,14,-19,4
-97,-97,0,97,-48,-48,-19,-29,53,9,-29,-4
-63,-58,4,61,-34,-26,-53,-39,43,4,-24,4
-24,-29,-4,26,-9,-17,-63,-43,34,-4,-29,0
-14,-29,-14,21,0,-21,-87,-53,24,-14,-29,0
14,-34,-48,9,31,-41,-87,-24,48,4,-4,14
-4,-34,-29,19,12,-31,-53,-14,53,9,14,29
-4,-43,-39,24,17,-41,-48,-9,58,9,9,24
0,-43,-43,21,21,-43,-48,-9,58,9,4,24
-34,-43,-9,39,-12,-26,-43,-9,53,-9,-9,4
-34,-48,-14,41,-9,-31,-48,0,53,0,-14,0
0,-14,-14,7,7,-14,-29,9,58,0,-9,-4
0,0,0,0,0,0,0,24,63,0,-14,-9
-63,-39,24,51,-43,-7,-9,53,73,19,-9,-9
-82,-53,29,68,-56,-12,-29,58,73,9,-4,-9
-82,-68,14,75,-48,-26,-39,58,63,0,-14,-14
-102,-73,29,87,-65,-21,-48,63,53,-9,-29,-24
-102,-68,34,85,-68,-17,-29,78,63,9,-14,-19
-136,-73,63,104,-100,-4,19,92,87,29,0,-9
-112,-48,63,80,-87,7,73,92,97,39,4,0
-78,-53,24,65,-51,-14,92,87,102,39,0,9
-97,-58,39,78,-68,-9,78,68,78,24,-34,-19
-92,-48,43,70,-68,-2,48,58,68,4,-39,-34
-43,29,73,7,-58,51,43,58,63,-4,-39,-43
-39,14,53,12,-46,34,48,48,53,-19,-43,-53
-112,-63,48,87,-80,-7,24,53,39,-29,-58,-53
-122,-102,19,112,-70,-41,19,58,39,-29,-58,-53
-141,-126,14,134,-78,-56,29,63,39,-29,-58,-53
-180,-165,14,173,-97,-75,24,63,34,-39,-73,-53
-131,-156,-24,143,-53,-90,9,53,24,-43,-82,-63
-122,-122,0,122,-61,-61,4,43,24,-43,-78,-63
-141,-122,19,131,-80,-51,0,34,24,-48,-78,-68
-151,-131,19,141,-85,-56,4,24,24,-58,-82,-73
-122,-126,-4,124,-58,-65,0,29,39,-43,-68,-68
-112,-87,24,100,-68,-31,14,39,43,-39,-58,-58
-112,-63,48,87,-80,-7,43,53,53,-24,-53,-53
-141,-39,102,90,-122,31,58,73,58,-19,-48,-48
-131,-24,107,78,-119,41,43,78,63,-14,-39,-34
-112,-19,92,65,-102,36,43,68,68,-14,-39,-29
-97,-24,73,61,-85,24,48,82,78,-9,-34,-19
-117,-39,78,78,-97,19,48,97,82,4,-34,-14
-151,-63,87,107,-119,12,24,87,58,-24,-68,-29
-165,-97,68,131,-117,-14,-14,68,39,-39,-78,-43
-141,-102,39,122,-90,-31,-48,48,29,-48,-87,-63
-117,-97,19,107,-68,-39,-78,39,29,-48,-87,-63
-112,-122,-9,117,-51,-65,-458,68,53,-24,-58,-39
-102,-151,-48,126,-26,-100,-439,97,73,14,-29,-19
-97,-78,19,87,-58,-29,-141,146,136,48,-9,-4
-92,-48,43,70,-68,-2,58,195,190,63,-4,-14
-43,-43,0,43,-21,-21,253,234,229,102,9,-14
-24,4,29,9,-26,17,453,287,268,156,43,-4
-73,9,82,31,-78,46,366,307,239,146,43,-14
-151,-48,102,100,-126,26,185,244,92,87,9,-39
-112,-29,82,70,-97,26,185,175,-78,58,39,-9
29,68,39,-48,-4,53,204,117,-244,78,102,78
19,9,-9,-14,14,0,87,-63,-517,4,117,97
-126,-161,-34,143,-46,-97,-53,-370,-897,-146,58,68
-195,-180,14,187,-104,-82,-117,-624,-1239,-253,53,53
-136,-78,58,107,-97,-9,-112,-736,-1488,-297,112,87
-29,39,68,-4,-48,53,-68,-844,-1737,-331,180,175
78,68,-9,-73,43,29,-29,-1019,-2020,-390,268,268
97,24,-73,-61,85,-24,-78,-1254,-2288,-458,341,312
53,-48,-102,-2,78,-75,-204,-1488,-2552,-531,405,341
39,-68,-107,14,73,-87,-322,-1747,-2815,-600,478,370
136,24,-112,-80,124,-43,-414,-2020,-3040,-639,590,439
258,141,-117,-200,187,12,-575,-2259,-3211,-649,741,527
312,170,-141,-241,226,14,-868,-2420,-3318,-653,888,614
326,141,-185,-234,256,-21,-1122,-2586,-3372,-639,1000,668
302,53,-248,-178,275,-97,-1034,-2771,-3386,-653,1063,653
219,-97,-317,-61,268,-207,-805,-2879,-3362,-663,1083,634
170,-200,-370,14,270,-285,-678,-2918,-3298,-683,1093,644
146,-287,-434,70,290,-361,-561,-2903,-3225,-717,1054,624
146,-336,-483,95,314,-409,-512,-2830,-3123,-795,927,551
151,-322,-473,85,312,-397,-605,-2718,-2981,-922,736,488
82,-366,-448,141,265,-407,-658,-2596,-2849,-1039,502,405
82,-405,-488,161,285,-446,-649,-2449,-2679,-1132,273,287
239,-307,-546,34,392,-427,-619,-2220,-2420,-1122,126,219
273,-273,-546,0,409,-409,-610,-1971,-2142,-1063,24,165
234,-341,-575,53,405,-458,-600,-1747,-1903,-1039,-146,53
273,-336,-610,31,441,-473,-590,-1532,-1688,-1039,-346,-78
244,-351,-595,53,419,-473,-561,-1342,-1517,-1044,-507,-151
175,-409,-585,117,380,-497,-458,-1156,-1327,-985,-556,-185
175,-434,-610,129,392,-522,-326,-966,-1137,-888,-566,-248
141,-463,-605,161,373,-534,-239,-790,-961,-834,-595,-351
48,-522,-570,236,309,-546,-229,-688,-863,-824,-649,-448
-63,-629,-566,346,251,-597,-248,-639,-810,-824,-697,-507
-68,-644,-575,356,253,-610,-229,-527,-707,-766,-688,-531
19,-536,-556,258,287,-546,-141,-346,-546,-639,-605,-473
-68,-575,-507,322,219,-541,-117,-268,-468,-585,-575,-453
-195,-663,-468,429,136,-566,-165,-287,-483,-614,-619,-492
-165,-536,-370,351,102,-453,-136,-273,-439,-595,-610,-473
-102,-419,-317,261,107,-368,-73,-219,-380,-551,-580,-444
-112,-458,-346,285,117,-402,-73,-190,-351,-556,-580,-448
-92,-453,-361,273,134,-407,-53,-141,-287,-512,-556,-444
-63,-375,-312,219,124,-344,39,-39,-175,-400,-463,-370
-43,-307,-263,175,109,-285,92,39,-82,-302,-385,-302
-48,-244,-195,146,73,-219,73,48,-48,-253,-341,-273
-78,-239,-161,158,41,-200,48,53,-34,-239,-331,-263
-136,-312,-175,224,19,-244,39,43,-14,-219,-312,-248
-141,-336,-195,239,26,-265,43,73,24,-185,-273,-219
-92,-234,-141,163,24,-187,73,122,82,-136,-229,-185
-136,-180,-43,158,-46,-112,53,107,92,-146,-253,-209
-253,-273,-19,263,-117,-146,9,68,68,-180,-283,-258
-239,-268,-29,253,-104,-148,19,92,107,-146,-258,-248
-151,-141,9,146,-80,-65,58,165,165,-63,-190,-195
-92,-34,58,63,-75,12,97,244,234,24,-112,-107
-4,58,63,-26,-34,61,131,312,307,92,-39,-29
-9,14,24,-2,-17,19,122,302,292,82,-39,-29
-43,-9,34,26,-39,12,92,273,273,63,-63,-48
-117,-39,78,78,-97,19,122,253,273,53,-68,-58
-151,-63,87,107,-119,12,122,239,283,58,-63,-58
-136,-43,92,90,-114,24,141,229,278,48,-73,-63
-112,-4,107,58,-109,51,39,253,307,73,-53,-58
-117,-19,97,68,-107,39,-34,268,317,87,-39,-43
-122,-43,78,82,-100,17,-102,273,322,97,-34,-43
-126,-73,53,100,-90,-9,-175,273,322,107,-19,-43
-151,-48,102,100,-126,26,-68,253,312,92,-39,-43
-175,-43,131,109,-153,43,39,248,307,82,-48,-53
-175,-39,136,107,-156,48,136,239,302,78,-48,-53
-165,-24,141,95,-153,58,229,239,302,73,-48,-48
-175,-39,136,107,-156,48,214,244,302,82,-53,-53
-170,-48,122,109,-146,36,200,244,312,87,-53,-53
-170,-68,102,119,-136,17,180,239,312,87,-53,-53
-180,-92,87,136,-134,-2,165,224,312,87,-53,-58
-141,-48,92,95,-117,21,161,229,322,97,-43,-48
-102,-4,97,53,-100,46,165,239,331,107,-34,-39
-87,29,117,29,-102,73,175,263,351,126,-14,-24
-73,63,136,4,-104,100,170,278,375,151,4,-9
-73,43,117,14,-95,80,165,283,390,165,19,4
-63,0,63,31,-63,31,161,287,395,170,14,0
-48,-4,43,26,-46,19,165,292,409,185,29,4
-53,-19,34,36,-43,7,170,326,439,200,43,19
-102,-58,43,80,-73,-7,136,287,405,170,9,-4
-156,-97,58,126,-107,-19,107,263,380,136,-19,-34
-185,-126,58,156,-122,-34,73,244,361,107,-43,-68
-204,-131,73,168,-139,-29,43,234,341,87,-68,-82
-141,-53,87,97,-114,17,63,268,375,122,-39,-48
-161,-39,122,100,-141,41,68,278,395,141,-29,-58
-146,0,146,73,-146,73,58,273,414,156,-29,-58
-107,43,151,31,-129,97,68,297,439,180,-9,-58
-53,63,117,-4,-85,90,92,302,458,190,4,-43
-68,48,117,9,-92,82,97,326,463,190,14,-34
-58,9,68,24,-63,39,92,331,483,200,14,-24
-14,29,43,-7,-29,36,102,346,492,204,19,-9
-14,53,68,-19,-41,61,107,341,507,209,9,-24
-43,58,102,-7,-73,80,102,346,502,209,9,-39
-63,73,136,-4,-100,104,87,351,512,214,9,-43
-102,78,180,12,-141,129,82,356,527,224,9,-48
-97,39,136,29,-117,87,87,370,541,224,14,-48
-87,-4,82,46,-85,39,92,366,541,224,14,-48
-58,-14,43,36,-51,14,97,370,546,229,9,-48
-48,-29,19,39,-34,-4,122,380,546,229,9,-53
-68,-43,24,56,-46,-9,102,390,561,234,4,-53
-68,-14,53,41,-61,19,82,400,566,234,-4,-58
-58,-14,43,36,-51,14,34,395,575,239,-9,-68
-82,-19,63,51,-73,21,-9,400,575,234,-14,-78
-63,19,82,21,-73,51,9,429,600,263,9,-63
-48,53,102,-2,-75,78,39,444,619,273,24,-53
-39,102,141,-31,-90,122,73,463,644,297,29,-34
-48,117,165,-34,-107,141,102,458,639,283,19,-39
-73,63,136,4,-104,100,122,448,634,273,29,-43
-92,43,136,24,-114,90,141,478,658,292,29,-43
-107,43,151,31,-129,97,151,492,692,326,43,-39
-122,24,146,48,-134,85,161,497,702,331,43,-39
-97,39,136,29,-117,87,156,512,712,341,48,-43
-87,48,136,19,-112,92,161,512,722,346,48,-39
