I,II,III,aVR,aVL,aVF,V1,V2,V3,V4,V5,V6
-48,-58,-9,53,-19,-34,156,204,165,146,68,-224
-48,-58,-9,53,-19,-34,156,204,165,146,68,-224
-48,-58,-9,53,-19,-34,156,204,165,146,68,-224
-48,-58,-9,53,-19,-34,156,204,165,146,68,-224
-39,-48,-9,43,-14,-29,165,209,170,151,73,-224
-39,-48,-9,43,-14,-29,165,214,175,156,78,-224
-39,-48,-9,43,-14,-29,165,219,180,161,82,-224
-39,-48,-9,43,-14,-29,165,224,185,165,87,-224
-39,-43,-4,41,-17,-24,156,224,185,175,87,-224
-39,-39,0,39,-19,-19,156,224,185,175,87,-224
-39,-34,4,36,-21,-14,156,224,185,175,87,-224
-39,-29,9,34,-24,-9,156,224,185,175,87,-224
-29,-24,4,26,-17,-9,156,229,190,185,97,-224
-29,-19,9,24,-19,-4,156,234,195,185,97,-224
-29,-14,14,21,-21,0,156,239,200,185,97,-224
-29,-9,19,19,-24,4,156,244,204,185,97,-224
-19,0,19,9,-19,9,156,244,214,195,107,-224
-19,0,19,9,-19,9,156,244,214,195,107,-224
-19,0,19,9,-19,9,156,244,214,195,107,-224
-19,0,19,9,-19,9,156,244,214,195,107,-224
-19,4,24,7,-21,14,146,253,224,200,112,-234
-19,9,29,4,-24,19,146,253,224,204,117,-234
-19,14,34,2,-26,24,146,253,224,209,122,-234
-19,19,39,0,-29,29,146,253,224,214,126,-234
-9,24,34,-7,-21,29,136,253,234,219,131,-234
-9,29,39,-9,-24,34,136,253,234,224,136,-234
-9,34,43,-12,-26,39,136,253,234,229,141,-234
-9,39,48,-14,-29,43,136,253,234,234,146,-234
0,48,48,-24,-24,48,131,253,234,239,161,-234
0,58,58,-29,-29,58,126,253,234,244,165,-234
0,68,68,-34,-34,68,122,253,234,248,170,-234
0,78,78,-39,-39,78,117,253,234,253,175,-234
9,92,82,-51,-36,87,102,248,234,263,190,-234
9,97,87,-53,-39,92,97,244,234,263,195,-234
9,102,92,-56,-41,97,92,239,234,263,200,-234
9,107,97,-58,-43,102,87,234,234,263,204,-234
19,117,97,-68,-39,107,82,229,234,268,219,-234
19,117,97,-68,-39,107,78,224,234,273,224,-234
19,117,97,-68,-39,107,73,219,234,278,229,-234
19,117,97,-68,-39,107,68,214,234,283,234,-234
29,126,97,-78,-34,112,53,209,229,292,239,-244
29,136,107,-82,-39,122,48,204,224,292,244,-244
29,146,117,-87,-43,131,43,200,219,292,248,-244
29,156,126,-92,-48,141,39,195,214,292,253,-244
39,165,126,-102,-43,146,24,180,204,292,258,-244
39,165,126,-102,-43,146,19,175,204,292,263,-244
39,165,126,-102,-43,146,14,170,204,292,268,-244
39,165,126,-102,-43,146,9,165,204,292,273,-244
39,180,141,-109,-51,161,4,161,200,283,283,-244
39,185,146,-112,-53,165,0,156,195,283,283,-244
39,190,151,-114,-56,170,-4,151,190,283,283,-244
39,195,156,-117,-58,175,-9,146,185,283,283,-244
39,185,146,-112,-53,165,-19,131,180,283,292,-244
39,185,146,-112,-53,165,-19,126,175,283,292,-244
39,185,146,-112,-53,165,-19,122,170,283,292,-244
39,185,146,-112,-53,165,-19,117,165,283,292,-244
29,185,156,-107,-63,170,-19,112,156,278,292,-244
29,185,156,-107,-63,170,-19,107,156,273,292,-244
29,185,156,-107,-63,170,-19,102,156,268,292,-244
29,185,156,-107,-63,170,-19,97,156,263,292,-244
19,180,161,-100,-70,170,-9,97,156,253,287,-253
19,175,156,-97,-68,165,-9,97,156,253,283,-253
19,170,151,-95,-65,161,-9,97,156,253,278,-253
19,165,146,-92,-63,156,-9,97,156,253,273,-253
9,146,136,-78,-63,141,-4,107,156,244,258,-253
9,136,126,-73,-58,131,0,107,156,244,253,-253
9,126,117,-68,-53,122,4,107,156,244,248,-253
9,117,107,-63,-48,112,9,107,156,244,244,-253
4,102,97,-53,-46,100,24,117,156,239,224,-253
0,97,97,-48,-48,97,29,117,156,234,214,-253
-4,92,97,-43,-51,95,34,117,156,229,204,-253
-9,87,97,-39,-53,92,39,117,156,224,195,-253
-14,78,92,-31,-53,85,43,122,156,219,185,-253
-19,68,87,-24,-53,78,48,126,156,214,175,-253
-24,58,82,-17,-53,70,53,131,156,209,165,-253
-29,48,78,-9,-53,63,58,136,156,204,156,-253
-34,29,63,2,-48,46,73,146,165,195,151,-253
-39,19,58,9,-48,39,78,146,165,195,146,-253
-43,9,53,17,-48,31,82,146,165,195,141,-253
-48,0,48,24,-48,24,87,146,165,195,136,-253
-53,-14,39,34,-46,12,97,136,156,180,122,-263
-58,-19,39,39,-48,9,97,136,156,175,117,-263
-63,-24,39,43,-51,7,97,136,156,170,112,-263
-68,-29,39,48,-53,4,97,136,156,165,107,-263
-68,-39,29,53,-48,-4,107,136,146,161,92,-263
-68,-39,29,53,-48,-4,107,136,146,156,87,-263
-68,-39,29,53,-48,-4,107,136,146,151,82,-263
-68,-39,29,53,-48,-4,107,136,146,146,78,-263
-78,-48,29,63,-53,-9,117,136,136,136,78,-263
-78,-48,29,63,-53,-9,117,136,136,136,78,-263
-78,-48,29,63,-53,-9,117,136,136,136,78,-263
-78,-48,29,63,-53,-9,117,136,136,136,78,-263
-78,-58,19,68,-48,-19,117,136,136,136,73,-263
-78,-58,19,68,-48,-19,117,136,136,136,68,-263
-78,-58,19,68,-48,-19,117,136,136,136,63,-263
-78,-58,19,68,-48,-19,117,136,136,136,58,-263
-87,-48,39,68,-63,-4,117,126,136,126,58,-263
-87,-48,39,68,-63,-4,117,126,136,126,58,-263
-87,-48,39,68,-63,-4,117,126,136,126,58,-263
-87,-48,39,68,-63,-4,117,126,136,126,58,-263
-87,-58,29,73,-58,-14,117,126,126,117,48,-273
-87,-58,29,73,-58,-14,117,126,126,117,48,-273
-87,-58,29,73,-58,-14,117,126,126,117,48,-273
-87,-58,29,73,-58,-14,117,126,126,117,48,-273
-78,-48,29,63,-53,-9,126,126,126,117,48,-273
-78,-48,29,63,-53,-9,126,126,126,117,48,-273
-78,-48,29,63,-53,-9,126,126,126,117,48,-273
-78,-48,29,63,-53,-9,126,126,126,117,48,-273
-87,-48,39,68,-63,-4,126,126,122,117,48,-273
-87,-48,39,68,-63,-4,126,126,117,117,48,-273
-87,-48,39,68,-63,-4,126,126,112,117,48,-273
-87,-48,39,68,-63,-4,126,126,107,117,48,-273
-78,-39,39,58,-58,0,126,117,117,107,58,-273
-78,-39,39,58,-58,0,126,117,117,107,58,-273
-78,-39,39,58,-58,0,126,117,117,107,58,-273
-78,-39,39,58,-58,0,126,117,117,107,58,-273
-78,-39,39,58,-58,0,126,117,107,97,58,-273
-78,-39,39,58,-58,0,126,117,107,97,58,-273
-78,-39,39,58,-58,0,126,117,107,97,58,-273
-78,-39,39,58,-58,0,126,117,107,97,58,-273
-78,-39,39,58,-58,0,136,126,107,107,58,-283
-78,-39,39,58,-58,0,136,126,107,107,58,-283
-78,-39,39,58,-58,0,136,126,107,107,58,-283
-78,-39,39,58,-58,0,136,126,107,107,58,-283
-78,-39,39,58,-58,0,136,126,107,97,68,-283
-78,-39,39,58,-58,0,136,126,107,97,68,-283
-78,-39,39,58,-58,0,136,126,107,97,68,-283
-78,-39,39,58,-58,0,136,126,107,97,68,-283
-78,-39,39,58,-58,0,146,136,117,107,68,-283
-78,-39,39,58,-58,0,146,136,117,107,68,-283
-78,-39,39,58,-58,0,146,136,117,107,68,-283
-78,-39,39,58,-58,0,146,136,117,107,68,-283
-78,-39,39,58,-58,0,146,136,117,107,58,-283
-78,-39,39,58,-58,0,146,136,117,107,58,-283
-78,-39,39,58,-58,0,146,136,117,107,58,-283
-78,-39,39,58,-58,0,146,136,117,107,58,-283
-78,-29,48,53,-63,9,146,136,117,117,58,-292
-78,-29,48,53,-63,9,146,136,117,117,58,-292
-78,-29,48,53,-63,9,146,136,117,117,58,-292
-78,-29,48,53,-63,9,146,136,117,117,58,-292
-78,-39,39,58,-58,0,146,136,126,117,58,-292
-78,-39,39,58,-58,0,146,136,126,117,58,-292
-78,-39,39,58,-58,0,146,136,126,117,58,-292
-78,-39,39,58,-58,0,146,136,126,117,58,-292
-68,-29,39,48,-53,4,146,146,126,117,58,-292
-68,-29,39,48,-53,4,146,146,126,117,58,-292
-68,-29,39,48,-53,4,146,146,126,117,58,-292
-68,-29,39,48,-53,4,146,146,126,117,58,-292
-68,-29,39,48,-53,4,146,146,126,117,58,-292
-68,-29,39,48,-53,4,146,146,126,117,58,-292
-68,-29,39,48,-53,4,146,146,126,117,58,-292
-68,-29,39,48,-53,4,146,146,126,117,58,-292
-68,-29,39,48,-53,4,146,136,136,126,58,-292
-68,-29,39,48,-53,4,146,136,136,126,58,-292
-68,-29,39,48,-53,4,146,136,136,126,58,-292
-68,-29,39,48,-53,4,146,136,136,126,58,-292
-68,-19,48,43,-58,14,146,146,136,126,68,-302
-68,-19,48,43,-58,14,146,146,136,126,68,-302
-68,-19,48,43,-58,14,146,146,136,126,68,-302
-68,-19,48,43,-58,14,146,146,136,126,68,-302
-68,-19,48,43,-58,14,136,146,136,126,58,-302
-68,-19,48,43,-58,14,136,146,136,126,58,-302
-68,-19,48,43,-58,14,136,146,136,126,58,-302
-68,-19,48,43,-58,14,136,146,136,126,58,-302
-78,-29,48,53,-63,9,136,146,136,126,48,-302
-78,-29,48,53,-63,9,136,146,136,126,48,-302
-78,-29,48,53,-63,9,136,146,136,126,48,-302
-78,-29,48,53,-63,9,136,146,136,126,48,-302
-68,-39,29,53,-48,-4,136,136,126,126,43,-302
-68,-39,29,53,-48,-4,136,136,126,126,39,-302
-68,-39,29,53,-48,-4,136,136,126,126,34,-302
-68,-39,29,53,-48,-4,136,136,126,126,29,-302
-78,-29,48,53,-63,9,126,126,126,126,24,-312
-78,-29,48,53,-63,9,126,126,126,126,19,-312
-78,-29,48,53,-63,9,126,126,126,126,14,-312
-78,-29,48,53,-63,9,126,126,126,126,9,-312
-68,-39,29,53,-48,-4,136,126,126,126,0,-312
-68,-39,29,53,-48,-4,136,126,126,126,0,-312
-68,-39,29,53,-48,-4,136,126,126,126,0,-312
-68,-39,29,53,-48,-4,136,126,126,126,0,-312
-78,-39,39,58,-58,0,126,126,126,117,-9,-312
-78,-39,39,58,-58,0,126,126,126,117,-9,-312
-78,-39,39,58,-58,0,126,126,126,117,-9,-312
-78,-39,39,58,-58,0,126,126,126,117,-9,-312
-68,-39,29,53,-48,-4,126,117,117,117,-19,-312
-68,-39,29,53,-48,-4,126,117,117,117,-19,-312
-68,-39,29,53,-48,-4,126,117,117,117,-19,-312
-68,-39,29,53,-48,-4,126,117,117,117,-19,-312
-78,-39,39,58,-58,0,126,117,107,117,-19,-322
-78,-39,39,58,-58,0,126,117,107,117,-19,-322
-78,-39,39,58,-58,0,126,117,107,117,-19,-322
-78,-39,39,58,-58,0,126,117,107,117,-19,-322
-78,-48,29,63,-53,-9,126,107,117,117,-14,-322
-78,-48,29,63,-53,-9,126,107,117,117,-9,-322
-78,-48,29,63,-53,-9,126,107,117,117,-4,-322
-78,-48,29,63,-53,-9,126,107,117,117,0,-322
-78,-48,29,63,-53,-9,126,107,107,107,0,-322
-78,-48,29,63,-53,-9,126,107,107,107,0,-322
-78,-48,29,63,-53,-9,126,107,107,107,0,-322
-78,-48,29,63,-53,-9,126,107,107,107,0,-322
-78,-58,19,68,-48,-19,117,107,107,107,9,-322
-78,-58,19,68,-48,-19,117,107,107,107,9,-322
-78,-58,19,68,-48,-19,117,107,107,107,9,-322
-78,-58,19,68,-48,-19,117,107,107,107,9,-322
-78,-48,29,63,-53,-9,117,97,97,97,19,-331
-78,-48,29,63,-53,-9,117,97,97,97,19,-331
-78,-48,29,63,-53,-9,117,97,97,97,19,-331
-78,-48,29,63,-53,-9,117,97,97,97,19,-331
-87,-58,29,73,-58,-14,117,97,107,97,29,-331
-87,-58,29,73,-58,-14,117,97,107,97,29,-331
-87,-58,29,73,-58,-14,117,97,107,97,29,-331
-87,-58,29,73,-58,-14,117,97,107,97,29,-331
-87,-58,29,73,-58,-14,117,97,97,107,39,-331
-87,-58,29,73,-58,-14,117,97,97,107,39,-331
-87,-58,29,73,-58,-14,117,97,97,107,39,-331
-87,-58,29,73,-58,-14,117,97,97,107,39,-331
-87,-58,29,73,-58,-14,117,97,97,97,39,-341
-87,-58,29,73,-58,-14,117,97,97,97,39,-341
-87,-58,29,73,-58,-14,117,97,97,97,39,-341
-87,-58,29,73,-58,-14,117,97,97,97,39,-341
-78,-58,19,68,-48,-19,126,97,107,107,48,-302
-78,-58,19,68,-48,-19,126,97,107,107,48,-263
-78,-58,19,68,-48,-19,126,97,107,107,48,-224
-78,-58,19,68,-48,-19,126,97,107,107,48,-185
-78,-48,29,63,-53,-9,122,97,97,107,53,-146
-78,-48,29,63,-53,-9,117,97,97,107,58,-107
-78,-48,29,63,-53,-9,112,97,97,107,63,-68
-78,-48,29,63,-53,-9,107,97,97,107,68,-29
-78,-48,29,63,-53,-9,117,87,97,107,73,-29
-78,-48,29,63,-53,-9,117,87,97,107,78,-29
-78,-48,29,63,-53,-9,117,87,97,107,82,-29
-78,-48,29,63,-53,-9,117,87,97,107,87,-29
-78,-58,19,68,-48,-19,107,87,97,107,87,-29
-78,-58,19,68,-48,-19,107,87,97,107,87,-29
-78,-58,19,68,-48,-19,107,87,97,107,87,-29
-78,-58,19,68,-48,-19,107,87,97,107,87,-29
-87,-58,29,73,-58,-14,117,87,97,107,78,-39
-87,-58,29,73,-58,-14,117,87,97,107,78,-39
-87,-58,29,73,-58,-14,117,87,97,107,78,-39
-87,-58,29,73,-58,-14,117,87,97,107,78,-39
-78,-53,24,65,-51,-14,117,87,97,97,68,-39
-78,-48,29,63,-53,-9,117,87,97,97,68,-39
-78,-43,34,61,-56,-4,117,87,97,97,68,-39
-78,-39,39,58,-58,0,117,87,97,97,68,-39
-78,-39,39,58,-58,0,107,87,97,107,58,-39
-78,-39,39,58,-58,0,107,87,97,107,58,-39
-78,-39,39,58,-58,0,107,87,97,107,58,-39
-78,-39,39,58,-58,0,107,87,97,107,58,-39
-78,-48,29,63,-53,-9,107,87,97,97,58,-29
-78,-48,29,63,-53,-9,107,87,97,97,58,-29
-78,-48,29,63,-53,-9,107,87,97,97,58,-29
-78,-48,29,63,-53,-9,107,87,97,97,58,-29
-78,-58,19,68,-48,-19,117,87,97,107,58,-29
-78,-58,19,68,-48,-19,117,87,97,107,58,-29
-78,-58,19,68,-48,-19,117,87,97,107,58,-29
-78,-58,19,68,-48,-19,117,87,97,107,58,-29
-78,-58,19,68,-48,-19,107,87,97,97,58,-29
-78,-58,19,68,-48,-19,107,87,97,97,58,-29
-78,-58,19,68,-48,-19,107,87,97,97,58,-29
-78,-58,19,68,-48,-19,107,87,97,97,58,-29
-78,-48,29,63,-53,-9,107,78,87,97,48,-19
-78,-48,29,63,-53,-9,107,78,87,97,48,-19
-78,-48,29,63,-53,-9,107,78,87,97,48,-19
-78,-48,29,63,-53,-9,107,78,87,97,48,-19
-87,-48,39,68,-63,-4,97,68,78,92,39,-9
-87,-48,39,68,-63,-4,97,68,78,87,39,-9
-87,-48,39,68,-63,-4,97,68,78,82,39,-9
-87,-48,39,68,-63,-4,97,68,78,78,39,-9
-87,-39,48,63,-68,4,87,68,78,87,29,0
-87,-39,48,63,-68,4,87,68,78,87,29,0
-87,-39,48,63,-68,4,87,68,78,87,29,0
-87,-39,48,63,-68,4,87,68,78,87,29,0
-87,-43,43,65,-65,0,87,58,78,78,29,4
-87,-48,39,68,-63,-4,87,58,78,78,29,9
-87,-53,34,70,-61,-9,87,58,78,78,29,14
-87,-58,29,73,-58,-14,87,58,78,78,29,19
-78,-58,19,68,-48,-19,78,58,68,78,29,29
-78,-58,19,68,-48,-19,78,58,68,78,29,29
-78,-58,19,68,-48,-19,78,58,68,78,29,29
-78,-58,19,68,-48,-19,78,58,68,78,29,29
-78,-58,19,68,-48,-19,78,58,78,78,39,39
-78,-58,19,68,-48,-19,78,58,78,78,39,39
-78,-58,19,68,-48,-19,78,58,78,78,39,39
-78,-58,19,68,-48,-19,78,58,78,78,39,39
-68,-48,19,58,-43,-14,68,58,68,78,48,39
-68,-48,19,58,-43,-14,68,58,68,78,48,39
-68,-48,19,58,-43,-14,68,58,68,78,48,39
-68,-48,19,58,-43,-14,68,58,68,78,48,39
-68,-58,9,63,-39,-24,73,68,78,87,53,48
-68,-58,9,63,-39,-24,78,68,78,87,58,48
-68,-58,9,63,-39,-24,82,68,78,87,63,48
-68,-58,9,63,-39,-24,87,68,78,87,68,48
-58,-48,9,53,-34,-19,78,58,68,78,78,48
-58,-48,9,53,-34,-19,78,58,68,78,78,48
-58,-48,9,53,-34,-19,78,58,68,78,78,48
-58,-48,9,53,-34,-19,78,58,68,78,78,48
-48,-39,9,43,-29,-14,78,58,78,78,68,48
-48,-39,9,43,-29,-14,78,58,78,78,68,48
-48,-39,9,43,-29,-14,78,58,78,78,68,48
-48,-39,9,43,-29,-14,78,58,78,78,68,48
-48,-29,19,39,-34,-4,78,58,78,78,68,48
-48,-29,19,39,-34,-4,78,58,78,78,68,48
-48,-29,19,39,-34,-4,78,58,78,78,68,48
-48,-29,19,39,-34,-4,78,58,78,78,68,48
-39,-39,0,39,-19,-19,78,68,87,87,68,58
-39,-39,0,39,-19,-19,78,68,87,87,68,58
-39,-39,0,39,-19,-19,78,68,87,87,68,58
-39,-39,0,39,-19,-19,78,68,87,87,68,58
-29,-39,-9,34,-9,-24,78,68,78,78,58,58
-29,-39,-9,34,-9,-24,78,68,78,78,58,58
-29,-39,-9,34,-9,-24,78,68,78,78,58,58
-29,-39,-9,34,-9,-24,78,68,78,78,58,58
-29,-29,0,29,-14,-14,78,58,68,68,53,48
-29,-29,0,29,-14,-14,78,58,68,68,48,48
-29,-29,0,29,-14,-14,78,58,68,68,43,48
-29,-29,0,29,-14,-14,78,58,68,68,39,48
-19,-19,0,19,-9,-9,78,58,78,73,29,48
-19,-19,0,19,-9,-9,78,58,78,78,29,48
-19,-19,0,19,-9,-9,78,58,78,82,29,48
-19,-19,0,19,-9,-9,78,58,78,87,29,48
-19,-14,4,17,-12,-4,92,73,82,92,39,58
-19,-9,9,14,-14,0,97,78,87,97,39,58
-19,0,19,9,-19,9,102,82,97,102,43,58
-19,9,29,4,-24,19,112,87,102,117,43,63
-9,14,24,-2,-17,19,102,78,102,107,43,53
-9,19,29,-4,-19,24,112,78,102,107,39,53
-9,19,29,-4,-19,24,112,78,102,102,34,53
-9,19,29,-4,-19,24,117,82,107,102,29,53
-14,9,24,2,-19,17,126,92,117,112,39,53
-19,4,24,7,-21,14,126,97,117,112,39,53
-24,4,29,9,-26,17,126,97,117,112,39,48
-29,4,34,12,-31,19,126,92,117,112,39,48
-19,24,43,-2,-31,34,117,82,117,112,48,48
-19,24,43,-2,-31,34,117,82,122,117,48,53
-19,34,53,-7,-36,43,112,82,122,117,53,53
-14,39,53,-12,-34,46,112,82,122,117,53,53
-9,39,48,-14,-29,43,97,78,112,117,58,63
-9,39,48,-14,-29,43,87,78,112,117,63,63
-4,39,43,-17,-24,41,73,73,107,117,73,63
0,39,39,-19,-19,39,63,63,107,117,82,68
14,34,19,-24,-2,26,53,58,107,117,92,58
24,34,9,-29,7,21,39,53,107,117,92,58
24,34,9,-29,7,21,34,48,102,117,92,58
19,34,14,-26,2,24,29,43,102,117,92,63
9,29,19,-19,-4,24,29,43,92,107,102,53
9,24,14,-17,-2,19,34,48,92,107,102,48
19,19,0,-19,9,9,39,48,87,107,102,48
9,14,4,-12,2,9,43,48,87,97,97,43
9,14,4,-12,2,9,34,43,82,92,87,29
9,14,4,-12,2,9,34,34,78,92,87,24
9,0,-9,-4,9,-4,34,29,78,87,82,14
9,-9,-19,0,14,-14,34,29,68,78,73,4
9,-14,-24,2,17,-19,29,34,58,73,78,-4
9,-14,-24,2,17,-19,29,34,53,68,78,-4
9,-9,-19,0,14,-14,34,34,53,68,78,0
9,-9,-19,0,14,-14,39,39,58,73,78,4
0,-19,-19,9,9,-19,48,43,73,82,82,-4
0,-14,-14,7,7,-14,48,43,78,87,87,-4
-14,-14,0,14,-7,-7,63,48,78,87,97,0
-14,-9,4,12,-9,-2,68,48,78,87,102,0
-14,-14,0,14,-7,-7,68,58,78,87,102,0
-14,-29,-14,21,0,-21,68,53,78,87,97,-9
-14,-34,-19,24,2,-26,68,53,73,87,92,-14
-14,-53,-39,34,12,-46,68,53,68,78,92,-19
-24,-68,-43,46,9,-56,63,43,63,73,73,-29
-24,-78,-53,51,14,-65,63,48,58,68,68,-34
-29,-82,-53,56,12,-68,68,48,48,53,63,-43
-29,-82,-53,56,12,-68,68,48,43,48,63,-53
-24,-82,-58,53,17,-70,68,39,53,58,53,-58
-24,-78,-53,51,14,-65,68,39,48,58,53,-58
-24,-78,-53,51,14,-65,68,34,48,53,53,-58
-24,-73,-48,48,12,-61,68,34,48,53,48,-58
-29,-78,-48,53,9,-63,68,43,58,63,48,-68
-29,-82,-53,56,12,-68,73,43,58,63,48,-73
-29,-87,-58,58,14,-73,73,43,58,63,48,-73
-29,-97,-68,63,19,-82,78,48,58,63,48,-73
-29,-107,-78,68,24,-92,78,48,48,53,48,-82
-34,-107,-73,70,19,-90,78,53,48,53,48,-82
-34,-112,-78,73,21,-95,82,53,48,53,48,-82
-34,-112,-78,73,21,-95,82,53,48,53,48,-82
-43,-117,-73,80,14,-95,82,53,39,43,39,-92
-43,-112,-68,78,12,-90,82,53,39,43,34,-102
-43,-107,-63,75,9,-85,87,53,39,39,24,-112
-43,-102,-58,73,7,-80,87,53,43,39,19,-117
-29,-102,-73,65,21,-87,82,53,43,48,24,-117
-29,-102,-73,65,21,-87,82,53,34,48,29,-117
-29,-107,-78,68,24,-92,82,53,34,48,34,-117
-29,-107,-78,68,24,-92,87,53,34,43,39,-122
-43,-122,-78,82,17,-100,97,53,43,43,43,-122
-43,-126,-82,85,19,-104,97,53,43,43,43,-122
-43,-131,-87,87,21,-109,97,58,43,43,43,-122
-43,-136,-92,90,24,-114,97,58,48,43,43,-126
-34,-136,-102,85,34,-119,87,48,39,34,34,-136
-34,-136,-102,85,34,-119,87,48,39,34,34,-136
-34,-136,-102,85,34,-119,87,48,39,34,34,-131
-34,-136,-102,85,34,-119,87,48,34,39,34,-131
-43,-136,-92,90,24,-114,87,48,43,39,24,-141
-43,-131,-87,87,21,-109,87,48,43,39,24,-141
-34,-126,-92,80,29,-109,87,48,43,39,24,-141
-34,-122,-87,78,26,-104,87,48,43,39,24,-146
-43,-136,-92,90,24,-114,97,63,48,43,24,-146
-43,-141,-97,92,26,-119,102,73,53,43,19,-141
-53,-161,-107,107,26,-134,126,102,73,39,19,-146
-68,-170,-102,119,17,-136,175,146,97,39,-4,-161
-73,-175,-102,124,14,-139,224,200,122,39,-19,-180
-82,-185,-102,134,9,-143,244,229,146,43,-29,-185
-73,-165,-92,119,9,-129,234,234,175,73,-19,-185
-58,-146,-87,102,14,-117,224,283,258,146,4,-185
-48,-122,-73,85,12,-97,244,375,385,268,63,-151
-14,-78,-63,46,24,-70,283,473,546,414,151,-92
19,-19,-39,0,29,-29,283,546,673,561,258,-24
68,53,-14,-61,41,19,244,566,790,746,390,68
126,156,29,-141,48,92,190,570,966,1005,566,190
195,224,29,-209,82,126,92,566,1171,1302,766,322
278,287,9,-283,134,148,-39,541,1332,1566,956,448
366,341,-24,-353,195,158,-151,468,1322,1634,1058,536
385,336,-48,-361,217,143,-229,297,1054,1400,1024,561
395,297,-97,-346,246,100,-331,43,653,1000,888,527
385,273,-112,-329,248,80,-439,-239,302,673,756,497
331,263,-68,-297,200,97,-522,-566,-48,390,639,473
253,253,0,-253,126,126,-600,-922,-453,58,507,444
131,244,112,-187,9,178,-668,-1293,-819,-229,385,409
34,258,224,-146,-95,241,-751,-1576,-1049,-409,307,395
-4,322,326,-158,-165,324,-819,-1664,-1112,-497,258,380
-29,356,385,-163,-207,370,-839,-1610,-1054,-497,224,366
-53,356,409,-151,-231,383,-814,-1537,-985,-473,200,326
-43,346,390,-151,-217,368,-800,-1444,-927,-448,165,287
-48,292,341,-122,-195,317,-775,-1302,-844,-424,131,234
-39,244,283,-102,-161,263,-697,-1141,-756,-375,112,200
-39,214,253,-87,-146,234,-585,-961,-653,-322,102,180
-63,190,253,-63,-158,222,-483,-795,-546,-253,97,146
-68,141,209,-36,-139,175,-380,-649,-444,-204,87,97
-68,112,180,-21,-124,146,-302,-531,-361,-161,87,73
-68,82,151,-7,-109,117,-244,-434,-287,-141,82,43
-58,48,107,4,-82,78,-190,-351,-239,-117,68,9
-63,24,87,19,-75,56,-161,-302,-204,-102,43,-34
-63,0,63,31,-63,31,-136,-263,-175,-87,34,-34
-53,-9,43,31,-48,17,-97,-209,-146,-63,39,-39
-68,-24,43,46,-56,9,-53,-156,-107,-39,29,-53
-58,-48,9,53,-34,-19,-4,-97,-73,-24,34,-58
-53,-73,-19,63,-17,-46,34,-43,-39,-9,29,-58
-73,-107,-34,90,-19,-70,53,-4,-9,0,29,-39
-68,-117,-48,92,-9,-82,63,19,4,4,29,-19
-58,-117,-58,87,0,-87,63,19,9,0,29,29
-68,-117,-48,92,-9,-82,58,14,14,14,34,82
-63,-126,-63,95,0,-95,63,29,19,24,43,156
-58,-131,-73,95,7,-102,78,39,29,29,39,244
-58,-141,-82,100,12,-112,97,48,29,29,48,351
-48,-131,-82,90,17,-107,107,68,39,39,48,463
-53,-141,-87,97,17,-114,112,82,39,34,48,497
-53,-146,-92,100,19,-119,112,92,48,34,53,531
-53,-146,-92,100,19,-119,112,92,53,34,58,566
-53,-136,-82,95,14,-109,107,92,58,34,63,600
-39,-126,-87,82,24,-107,107,82,58,48,53,610
-39,-126,-87,82,24,-107,112,87,58,48,53,619
-39,-131,-92,85,26,-112,117,87,63,48,48,629
-39,-131,-92,85,26,-112,122,97,63,48,48,634
-34,-151,-117,92,41,-134,131,112,63,43,39,610
-34,-151,-117,92,41,-134,131,112,63,43,39,585
-34,-146,-112,90,39,-129,131,117,68,48,43,566
-34,-141,-107,87,36,-124,131,117,68,53,43,541
-39,-151,-112,95,36,-131,131,107,68,53,43,492
-43,-151,-107,97,31,-129,131,107,73,53,43,458
-48,-161,-112,104,31,-136,136,107,73,53,39,419
-53,-161,-107,107,26,-134,136,112,73,53,39,380
-53,-170,-117,112,31,-143,131,112,63,48,34,361
-58,-170,-112,114,26,-141,131,112,63,43,34,351
-58,-170,-112,114,26,-141,131,112,68,43,34,341
-58,-170,-112,114,26,-141,126,112,68,39,34,326
-58,-180,-122,119,31,-151,126,117,63,43,39,322
-58,-175,-117,117,29,-146,126,117,63,43,39,312
-58,-175,-117,117,29,-146,126,117,68,43,39,307
-58,-175,-117,117,29,-146,126,122,68,48,39,302
-68,-180,-112,124,21,-146,131,112,68,48,39,292
-68,-180,-112,124,21,-146,131,117,68,48,43,283
-68,-180,-112,124,21,-146,131,117,73,58,43,263
-68,-180,-112,124,21,-146,126,117,73,58,43,253
-73,-170,-97,122,12,-134,126,117,73,48,34,244
-73,-170,-97,122,12,-134,126,117,73,48,34,244
-68,-165,-97,117,14,-131,126,117,73,48,34,248
-68,-165,-97,117,14,-131,126,117,73,48,29,253
-68,-165,-97,117,14,-131,126,117,63,58,29,239
-68,-165,-97,117,14,-131,126,117,63,58,34,244
-68,-165,-97,117,14,-131,126,122,63,63,39,244
-68,-165,-97,117,14,-131,126,122,68,63,39,239
-78,-156,-78,117,0,-117,117,112,68,58,39,234
-78,-156,-78,117,0,-117,117,112,68,58,39,244
-73,-151,-78,112,2,-114,112,112,68,58,39,248
-73,-151,-78,112,2,-114,112,112,68,58,39,248
-73,-151,-78,112,2,-114,122,122,73,68,48,258
-73,-151,-78,112,2,-114,122,126,78,68,48,258
-73,-156,-82,114,4,-119,122,126,82,68,48,263
-73,-156,-82,114,4,-119,122,126,87,73,53,268
-73,-151,-78,112,2,-114,122,126,87,68,53,268
-73,-151,-78,112,2,-114,122,131,87,63,58,263
-73,-151,-78,112,2,-114,122,131,92,63,58,263
-73,-151,-78,112,2,-114,122,136,92,63,58,263
-63,-156,-92,109,14,-124,122,126,82,63,48,268
-63,-156,-92,109,14,-124,122,126,82,63,48,263
-68,-156,-87,112,9,-122,122,126,82,63,53,268
-68,-156,-87,112,9,-122,122,131,87,68,53,263
-68,-146,-78,107,4,-112,122,141,97,68,53,248
-68,-146,-78,107,4,-112,122,146,97,68,58,248
-63,-141,-78,102,7,-109,122,146,107,78,58,248
-58,-141,-82,100,12,-112,122,151,107,78,58,248
-58,-131,-73,95,7,-102,112,141,97,78,68,248
-58,-131,-73,95,7,-102,112,146,102,82,73,248
-58,-126,-68,92,4,-97,112,146,102,82,78,248
-58,-117,-58,87,0,-87,112,151,102,82,78,248
-48,-126,-78,87,14,-102,122,161,107,87,73,239
-48,-126,-78,87,14,-102,122,165,112,92,73,234
-48,-122,-73,85,12,-97,122,165,112,92,73,234
-48,-112,-63,80,7,-87,122,165,112,92,78,234
-39,-102,-63,70,12,-82,112,165,102,92,68,224
-39,-97,-58,68,9,-78,107,165,107,97,78,219
-29,-97,-68,63,19,-82,107,161,112,97,82,209
-39,-87,-48,63,4,-68,107,156,117,102,82,200
-29,-87,-58,58,14,-73,117,161,126,107,87,195
-24,-87,-63,56,19,-75,117,161,126,107,87,195
-24,-87,-63,56,19,-75,117,165,131,112,92,200
-19,-78,-58,48,19,-68,117,165,131,117,92,200
-29,-82,-53,56,12,-68,117,175,136,126,92,195
-24,-82,-58,53,17,-70,112,180,136,131,102,204
-24,-78,-53,51,14,-65,112,180,141,136,107,209
-24,-73,-48,48,12,-61,107,180,141,136,112,209
-29,-68,-39,48,4,-53,102,175,136,126,107,204
-24,-58,-34,41,4,-46,102,175,136,136,112,209
-24,-58,-34,41,4,-46,92,175,136,141,117,214
-24,-48,-24,36,0,-36,92,175,141,146,122,229
-19,-48,-29,34,4,-39,78,185,131,141,117,234
-19,-43,-24,31,2,-34,73,180,131,141,122,234
-14,-39,-24,26,4,-31,73,180,136,151,136,239
-9,-29,-19,19,4,-24,68,180,136,151,141,244
-4,-24,-19,14,7,-21,63,170,136,156,146,239
-4,-19,-14,12,4,-17,58,165,136,161,161,244
-4,-9,-4,7,0,-7,53,161,136,165,165,253
-4,-4,0,4,-2,-2,48,156,136,170,170,258
4,14,9,-9,-2,12,29,151,136,175,175,268
14,14,0,-14,7,7,24,146,131,175,190,278
19,19,0,-19,9,9,14,146,131,180,190,287
24,24,0,-24,12,12,9,136,131,185,195,297
14,24,9,-19,2,17,0,131,122,175,190,302
14,29,14,-21,0,21,-4,126,122,175,200,312
14,39,24,-26,-4,31,-9,122,112,170,214,312
14,43,29,-29,-7,36,-24,117,112,165,224,322
19,43,24,-31,-2,34,-24,102,107,175,224,317
24,48,24,-36,0,36,-29,97,102,175,224,326
24,48,24,-36,0,36,-39,87,102,175,224,326
24,58,34,-41,-4,46,-39,82,97,175,224,336
19,63,43,-41,-12,53,-43,68,87,180,229,346
19,68,48,-43,-14,58,-53,63,78,175,234,341
19,68,48,-43,-14,58,-63,58,68,170,239,341
19,68,48,-43,-14,58,-68,48,63,161,239,336
19,78,58,-48,-19,68,-73,43,68,161,244,331
24,82,58,-53,-17,70,-78,29,58,161,244,336
24,82,58,-53,-17,70,-82,19,53,161,244,341
24,82,58,-53,-17,70,-82,19,48,156,244,341
19,82,63,-51,-21,73,-87,4,43,156,239,331
19,82,63,-51,-21,73,-92,4,39,146,239,331
19,82,63,-51,-21,73,-92,4,34,146,239,326
19,82,63,-51,-21,73,-97,0,29,136,239,322
9,78,68,-43,-29,73,-102,-14,19,126,234,307
9,73,63,-41,-26,68,-102,-24,14,117,229,297
9,68,58,-39,-24,63,-92,-24,9,117,219,292
9,58,48,-34,-19,53,-92,-24,4,112,209,283
-4,58,63,-26,-34,61,-87,-14,4,107,204,263
-4,48,53,-21,-29,51,-87,-9,4,107,195,253
-4,48,53,-21,-29,51,-78,-9,4,107,190,244
-9,34,43,-12,-26,39,-68,-9,4,107,180,229
0,24,24,-12,-12,24,-78,-4,14,97,185,229
0,19,19,-9,-9,19,-68,-4,19,97,180,214
-14,4,19,4,-17,12,-63,-4,19,92,170,204
-14,-9,4,12,-9,-2,-58,4,19,87,165,190
-19,-29,-9,24,-4,-19,-53,0,19,82,151,170
-24,-34,-9,29,-7,-21,-39,9,19,78,141,165
-29,-48,-19,39,-4,-34,-34,9,24,73,131,156
-34,-53,-19,43,-7,-36,-24,14,24,63,122,146
-39,-58,-19,48,-9,-39,-24,19,34,63,107,126
-43,-68,-24,56,-9,-46,-19,29,34,53,97,117
-43,-78,-34,61,-4,-56,-14,34,34,58,87,107
-43,-87,-43,65,0,-65,-9,34,34,48,78,97
-48,-92,-43,70,-2,-68,4,29,39,43,73,97
-53,-102,-48,78,-2,-75,9,29,43,39,63,92
-58,-107,-48,82,-4,-78,19,39,48,34,53,82
-63,-117,-53,90,-4,-85,24,39,48,34,43,82
-68,-131,-63,100,-2,-97,29,48,39,29,43,68
-73,-141,-68,107,-2,-104,34,48,39,29,39,63
-73,-151,-78,112,2,-114,34,43,39,29,34,63
-78,-156,-78,117,0,-117,34,43,34,29,29,58
-82,-165,-82,124,0,-124,48,53,43,24,29,58
-82,-165,-82,124,0,-124,53,53,43,24,19,53
-87,-170,-82,129,-2,-126,53,53,39,19,19,53
-87,-170,-82,129,-2,-126,53,53,39,14,19,53
-87,-165,-78,126,-4,-122,43,53,39,14,9,48
-87,-170,-82,129,-2,-126,48,53,39,14,9,43
-87,-170,-82,129,-2,-126,53,53,39,14,4,43
-87,-175,-87,131,0,-131,53,53,39,14,0,43
-92,-180,-87,136,-2,-134,53,53,39,0,-4,43
-92,-180,-87,136,-2,-134,53,48,34,0,-4,39
-92,-180,-87,136,-2,-134,53,48,34,0,-9,39
-92,-180,-87,136,-2,-134,53,43,24,-9,-9,39
-97,-185,-87,141,-4,-136,58,43,14,-19,-19,34
-97,-185,-87,141,-4,-136,58,43,14,-19,-24,29
-92,-185,-92,139,0,-139,58,43,14,-24,-29,24
-92,-185,-92,139,0,-139,58,43,14,-24,-34,19
-92,-185,-92,139,0,-139,53,34,4,-29,-34,4
-92,-185,-92,139,0,-139,53,34,4,-29,-34,4
-92,-185,-92,139,0,-139,53,34,0,-29,-39,4
-97,-185,-87,141,-4,-136,58,29,0,-29,-39,4
-97,-185,-87,141,-4,-136,58,39,4,-29,-34,0
-97,-185,-87,141,-4,-136,58,39,4,-34,-34,-4
-97,-185,-87,141,-4,-136,58,39,4,-39,-34,-14
-92,-180,-87,136,-2,-134,58,39,4,-39,-29,-24
-102,-180,-78,141,-12,-129,58,29,-4,-39,-29,-34
-102,-180,-78,141,-12,-129,58,29,-9,-39,-29,-34
-102,-180,-78,141,-12,-129,58,29,-9,-43,-29,-39
-102,-180,-78,141,-12,-129,58,34,-9,-43,-34,-39
-102,-170,-68,136,-17,-119,48,34,-9,-48,-43,-48
-102,-170,-68,136,-17,-119,48,29,-9,-48,-43,-53
-102,-170,-68,136,-17,-119,48,29,-9,-43,-43,-53
-102,-165,-63,134,-19,-114,53,29,-9,-43,-43,-53
-102,-170,-68,136,-17,-119,53,29,-9,-43,-39,-63
-102,-170,-68,136,-17,-119,53,29,-9,-43,-39,-63
-102,-170,-68,136,-17,-119,53,34,-9,-43,-39,-63
-107,-170,-63,139,-21,-117,53,34,-9,-43,-39,-58
-107,-170,-63,139,-21,-117,63,34,0,-53,-39,-58
-102,-170,-68,136,-17,-119,63,34,-9,-53,-39,-63
-97,-170,-73,134,-12,-122,63,34,-9,-53,-39,-68
-92,-170,-78,131,-7,-124,63,34,-4,-53,-43,-73
-92,-161,-68,126,-12,-114,63,34,-14,-63,-43,-82
-92,-161,-68,126,-12,-114,63,34,-14,-63,-43,-82
-92,-161,-68,126,-12,-114,63,34,-14,-63,-43,-82
-92,-161,-68,126,-12,-114,63,34,-14,-63,-43,-82
-102,-161,-58,131,-21,-109,63,34,-14,-63,-48,-82
-102,-161,-58,131,-21,-109,63,34,-14,-63,-48,-82
-102,-161,-58,131,-21,-109,63,39,-14,-58,-48,-82
-102,-161,-58,131,-21,-109,63,39,-9,-58,-48,-82
-102,-161,-58,131,-21,-109,68,48,0,-48,-43,-73
-97,-161,-63,129,-17,-112,68,48,0,-48,-43,-73
-92,-161,-68,126,-12,-114,68,48,0,-48,-43,-68
-87,-161,-73,124,-7,-117,68,48,0,-48,-39,-68
-87,-151,-63,119,-12,-107,58,39,0,-58,-43,-73
-87,-151,-63,119,-12,-107,58,39,-4,-53,-43,-73
-92,-151,-58,122,-17,-104,58,39,-9,-53,-43,-73
-92,-151,-58,122,-17,-104,58,39,-14,-53,-43,-73
-102,-156,-53,129,-24,-104,68,39,-4,-53,-43,-73
-102,-156,-53,129,-24,-104,63,39,-4,-53,-43,-73
-102,-156,-53,129,-24,-104,63,39,-4,-53,-43,-68
-97,-156,-58,126,-19,-107,63,43,-4,-53,-43,-68
-97,-146,-48,122,-24,-97,53,43,-4,-43,-39,-78
-97,-146,-48,122,-24,-97,53,43,-4,-43,-34,-73
-97,-146,-48,122,-24,-97,53,43,-4,-39,-29,-73
-97,-146,-48,122,-24,-97,53,43,-4,-34,-24,-78
-87,-156,-68,122,-9,-112,53,48,-4,-43,-34,-82
-87,-156,-68,122,-9,-112,53,48,-4,-43,-34,-82
-87,-156,-68,122,-9,-112,53,43,0,-43,-34,-87
-87,-156,-68,122,-9,-112,53,43,0,-39,-34,-92
-87,-146,-58,117,-14,-102,53,34,-4,-39,-39,-97
-87,-141,-53,114,-17,-97,53,34,-4,-39,-39,-102
-87,-141,-53,114,-17,-97,53,34,-4,-39,-39,-107
-87,-141,-53,114,-17,-97,53,34,-4,-39,-39,-112
-87,-156,-68,122,-9,-112,53,48,-4,-48,-29,-112
-87,-156,-68,122,-9,-112,53,48,-9,-48,-29,-112
-87,-156,-68,122,-9,-112,53,43,-9,-43,-24,-112
-87,-161,-73,124,-7,-117,53,43,-4,-43,-24,-112
-87,-151,-63,119,-12,-107,43,39,-14,-53,-34,-117
-87,-146,-58,117,-14,-102,43,34,-14,-53,-34,-126
-87,-146,-58,117,-14,-102,43,29,-14,-53,-34,-136
-87,-141,-53,114,-17,-97,43,24,-14,-53,-34,-141
-87,-151,-63,119,-12,-107,43,34,-14,-63,-43,-151
-87,-151,-63,119,-12,-107,43,34,-14,-63,-43,-151
-87,-156,-68,122,-9,-112,43,34,-14,-68,-43,-151
-87,-156,-68,122,-9,-112,39,34,-19,-68,-43,-151
-87,-146,-58,117,-14,-102,48,24,-19,-63,-43,-156
-92,-151,-58,122,-17,-104,48,24,-14,-58,-43,-165
-92,-151,-58,122,-17,-104,48,19,-14,-53,-43,-170
-87,-151,-63,119,-12,-107,48,19,-14,-48,-43,-175
-97,-151,-53,124,-21,-102,39,19,-34,-63,-43,-190
-97,-156,-58,126,-19,-107,34,19,-34,-63,-48,-190
-97,-156,-58,126,-19,-107,34,14,-34,-63,-58,-195
-97,-161,-63,129,-17,-112,39,14,-34,-63,-58,-195
-87,-161,-73,124,-7,-117,39,14,-39,-63,-58,-209
-87,-161,-73,124,-7,-117,34,9,-39,-63,-63,-214
-87,-161,-73,124,-7,-117,34,9,-39,-63,-68,-219
-87,-165,-78,126,-4,-122,34,9,-39,-63,-73,-219
-87,-161,-73,124,-7,-117,34,0,-43,-73,-73,-229
-87,-156,-68,122,-9,-112,34,0,-43,-78,-73,-229
-87,-151,-63,119,-12,-107,34,0,-48,-78,-73,-229
-92,-146,-53,119,-19,-100,34,0,-48,-78,-73,-229
-92,-141,-48,117,-21,-95,24,0,-48,-87,-73,-229
-87,-141,-53,114,-17,-97,24,-4,-48,-87,-73,-229
-87,-141,-53,114,-17,-97,24,-4,-48,-87,-78,-229
-87,-141,-53,114,-17,-97,24,-4,-48,-87,-78,-229
-78,-131,-53,104,-12,-92,24,-4,-43,-78,-78,-239
-78,-131,-53,104,-12,-92,24,0,-43,-78,-78,-239
-78,-131,-53,104,-12,-92,24,0,-43,-78,-78,-239
-78,-131,-53,104,-12,-92,19,-4,-43,-78,-78,-239
-78,-136,-58,107,-9,-97,29,4,-39,-73,-78,-248
-78,-146,-68,112,-4,-107,29,0,-39,-73,-73,-248
-78,-151,-73,114,-2,-112,29,0,-39,-68,-73,-248
-78,-151,-73,114,-2,-112,29,0,-43,-68,-78,-248
-78,-141,-63,109,-7,-102,39,9,-43,-82,-78,-239
-78,-141,-63,109,-7,-102,39,4,-43,-82,-78,-239
-78,-146,-68,112,-4,-107,39,4,-48,-87,-78,-234
-78,-146,-68,112,-4,-107,39,4,-53,-87,-73,-234
-87,-146,-58,117,-14,-102,29,-4,-53,-87,-82,-239
-87,-146,-58,117,-14,-102,29,0,-53,-87,-82,-244
-87,-151,-63,119,-12,-107,29,0,-48,-87,-87,-244
-87,-151,-63,119,-12,-107,29,0,-48,-87,-87,-248
-78,-151,-73,114,-2,-112,29,0,-48,-87,-78,-239
-78,-151,-73,114,-2,-112,29,-4,-48,-87,-78,-239
-78,-146,-68,112,-4,-107,29,-4,-53,-87,-78,-244
-82,-146,-63,114,-9,-104,29,-4,-58,-87,-78,-244
-92,-141,-48,117,-21,-95,19,-4,-68,-102,-87,-244
-92,-141,-48,117,-21,-95,19,-9,-63,-107,-92,-244
-87,-141,-53,114,-17,-97,19,-9,-63,-107,-92,-239
-87,-136,-48,112,-19,-92,19,-9,-63,-102,-87,-239
-78,-146,-68,112,-4,-107,19,-19,-73,-112,-87,-248
-78,-146,-68,112,-4,-107,19,-19,-78,-112,-87,-248
-82,-151,-68,117,-7,-109,14,-19,-82,-112,-87,-248
-87,-151,-63,119,-12,-107,14,-19,-82,-112,-87,-244
-87,-151,-63,119,-12,-107,24,-14,-82,-112,-78,-234
-87,-151,-63,119,-12,-107,24,-14,-78,-112,-78,-234
-87,-151,-63,119,-12,-107,24,-14,-78,-117,-78,-234
-82,-151,-68,117,-7,-109,24,-14,-78,-117,-82,-234
-92,-136,-43,114,-24,-90,14,-19,-78,-117,-87,-239
-92,-136,-43,114,-24,-90,14,-24,-78,-117,-87,-248
-92,-136,-43,114,-24,-90,14,-24,-78,-117,-92,-253
-92,-136,-43,114,-24,-90,14,-24,-78,-117,-97,-258
-92,-136,-43,114,-24,-90,24,-19,-68,-117,-97,-244
-92,-136,-43,114,-24,-90,24,-19,-78,-117,-97,-244
-92,-136,-43,114,-24,-90,24,-19,-78,-117,-97,-244
-92,-136,-43,114,-24,-90,24,-19,-73,-117,-97,-244
-92,-151,-58,122,-17,-104,14,-29,-73,-126,-87,-244
-92,-156,-63,124,-14,-109,14,-29,-78,-126,-87,-244
-92,-156,-63,124,-14,-109,14,-34,-87,-126,-87,-244
-92,-151,-58,122,-17,-104,14,-34,-92,-126,-87,-244
-107,-151,-43,129,-31,-97,4,-34,-92,-126,-97,-244
-107,-151,-43,129,-31,-97,4,-34,-92,-126,-97,-244
-107,-151,-43,129,-31,-97,0,-34,-92,-126,-97,-244
-102,-151,-48,126,-26,-100,0,-39,-92,-131,-97,-244
-112,-141,-29,126,-41,-85,0,-48,-97,-141,-107,-253
-112,-141,-29,126,-41,-85,0,-48,-97,-141,-107,-258
-117,-146,-29,131,-43,-87,0,-43,-97,-141,-107,-258
-117,-146,-29,131,-43,-87,4,-43,-97,-141,-107,-258
-107,-151,-43,129,-31,-97,9,-34,-107,-146,-117,-253
-107,-156,-48,131,-29,-102,9,-34,-102,-146,-117,-248
-112,-161,-48,136,-31,-104,9,-29,-102,-146,-117,-244
-112,-165,-53,139,-29,-109,4,-29,-102,-151,-117,-239
-102,-165,-63,134,-19,-114,-4,-43,-107,-141,-112,-229
-107,-165,-58,136,-24,-112,-4,-43,-107,-141,-107,-229
-107,-165,-58,136,-24,-112,-4,-43,-102,-141,-102,-229
-107,-161,-53,134,-26,-107,-4,-43,-102,-136,-97,-229
-107,-151,-43,129,-31,-97,-4,-34,-102,-136,-97,-239
-107,-151,-43,129,-31,-97,-4,-34,-102,-141,-97,-239
-112,-151,-39,131,-36,-95,-4,-34,-102,-141,-97,-239
-112,-156,-43,134,-34,-100,-4,-34,-102,-141,-97,-239
-107,-161,-53,134,-26,-107,4,-29,-102,-136,-97,-229
-107,-161,-53,134,-26,-107,4,-29,-102,-136,-97,-229
-107,-161,-53,134,-26,-107,4,-29,-102,-141,-97,-229
-107,-161,-53,134,-26,-107,4,-29,-102,-141,-97,-229
-112,-161,-48,136,-31,-104,4,-34,-102,-141,-107,-239
-112,-161,-48,136,-31,-104,4,-34,-102,-146,-107,-239
-112,-161,-48,136,-31,-104,4,-34,-102,-146,-107,-239
-112,-161,-48,136,-31,-104,4,-34,-102,-146,-112,-239
-112,-161,-48,136,-31,-104,-4,-43,-102,-156,-122,-248
-107,-165,-58,136,-24,-112,-4,-43,-102,-156,-122,-248
-107,-165,-58,136,-24,-112,-4,-48,-102,-156,-122,-248
-107,-165,-58,136,-24,-112,-4,-48,-107,-156,-122,-248
-117,-156,-39,136,-39,-97,4,-43,-117,-165,-122,-239
-117,-156,-39,136,-39,-97,4,-43,-112,-165,-122,-239
-117,-156,-39,136,-39,-97,4,-43,-112,-161,-122,-239
-122,-156,-34,139,-43,-95,4,-43,-112,-161,-117,-239
-112,-146,-34,129,-39,-90,4,-43,-112,-151,-117,-239
-107,-146,-39,126,-34,-92,4,-48,-112,-151,-117,-244
-107,-146,-39,126,-34,-92,4,-48,-112,-151,-117,-244
-102,-151,-48,126,-26,-100,4,-48,-112,-151,-117,-244
-112,-151,-39,131,-36,-95,-4,-58,-122,-161,-126,-248
-112,-151,-39,131,-36,-95,-4,-53,-122,-161,-131,-248
-107,-151,-43,129,-31,-97,-4,-53,-122,-161,-131,-248
-107,-146,-39,126,-34,-92,-4,-53,-122,-161,-131,-253
-117,-151,-34,134,-41,-92,-4,-43,-102,-151,-112,-244
-112,-156,-43,134,-34,-100,4,-43,-107,-156,-117,-239
-117,-175,-58,146,-29,-117,0,-39,-107,-156,-117,-244
-117,-175,-58,146,-29,-117,0,-48,-117,-156,-117,-234
-117,-175,-58,146,-29,-117,0,-48,-117,-156,-117,-234
-117,-175,-58,146,-29,-117,0,-48,-117,-156,-117,-234
-117,-175,-58,146,-29,-117,0,-48,-117,-156,-117,-234
-117,-161,-43,139,-36,-102,0,-48,-117,-165,-122,-239
-117,-156,-39,136,-39,-97,0,-48,-117,-165,-126,-244
-117,-151,-34,134,-41,-92,0,-48,-117,-165,-131,-248
-117,-146,-29,131,-43,-87,0,-48,-117,-165,-136,-253
-117,-146,-29,131,-43,-87,-9,-58,-122,-175,-146,-258
-117,-146,-29,131,-43,-87,-9,-58,-126,-175,-146,-263
-117,-146,-29,131,-43,-87,-9,-58,-131,-175,-146,-268
-117,-146,-29,131,-43,-87,-9,-58,-136,-175,-146,-273
-117,-156,-39,136,-39,-97,-9,-58,-126,-175,-141,-268
-117,-156,-39,136,-39,-97,-9,-58,-126,-175,-136,-263
-117,-156,-39,136,-39,-97,-9,-58,-126,-175,-131,-258
-117,-156,-39,136,-39,-97,-9,-58,-126,-175,-126,-253
-107,-165,-58,136,-24,-112,0,-48,-126,-165,-131,-253
-107,-165,-58,136,-24,-112,0,-48,-126,-165,-136,-253
-107,-165,-58,136,-24,-112,0,-48,-126,-165,-141,-253
-107,-165,-58,136,-24,-112,0,-48,-126,-165,-146,-253
-117,-161,-43,139,-36,-102,9,-39,-117,-156,-136,-244
-117,-156,-39,136,-39,-97,9,-39,-117,-156,-136,-244
-117,-151,-34,134,-41,-92,9,-39,-117,-156,-136,-244
-117,-146,-29,131,-43,-87,9,-39,-117,-156,-136,-244
-107,-141,-34,124,-36,-87,9,-29,-107,-146,-126,-244
-107,-131,-24,119,-41,-78,9,-29,-102,-146,-122,-244
-107,-122,-14,114,-46,-68,14,-29,-102,-136,-122,-239
-107,-112,-4,109,-51,-58,14,-29,-102,-136,-117,-239
-117,-117,0,117,-58,-58,34,-29,-102,-141,-126,-248
-117,-117,0,117,-58,-58,34,-29,-102,-151,-126,-248
-117,-117,0,117,-58,-58,39,-24,-97,-156,-126,-248
-117,-117,0,117,-58,-58,39,-24,-97,-161,-126,-248
-117,-112,4,114,-61,-53,29,-29,-107,-151,-126,-248
-117,-112,4,114,-61,-53,29,-29,-107,-151,-126,-253
-117,-112,4,114,-61,-53,29,-34,-107,-151,-126,-253
-117,-102,14,109,-65,-43,29,-34,-107,-151,-126,-253
-107,-102,4,104,-56,-48,29,-34,-102,-146,-126,-239
-107,-92,14,100,-61,-39,24,-34,-102,-146,-122,-239
-102,-87,14,95,-58,-36,24,-34,-102,-146,-122,-239
-97,-87,9,92,-53,-39,19,-39,-102,-146,-122,-239
-107,-78,29,92,-68,-24,-4,-48,-102,-146,-131,-248
-102,-78,24,90,-63,-26,-24,-53,-107,-146,-126,-248
-97,-78,19,87,-58,-29,-39,-63,-107,-146,-122,-244
-92,-82,9,87,-51,-36,-53,-68,-107,-146,-122,-244
-82,-92,-9,87,-36,-51,-58,-73,-117,-156,-122,-244
-82,-92,-9,87,-36,-51,-63,-78,-122,-156,-122,-244
-87,-92,-4,90,-41,-48,-68,-82,-122,-156,-122,-239
-87,-92,-4,90,-41,-48,-73,-82,-122,-156,-122,-239
-97,-92,4,95,-51,-43,-63,-78,-122,-165,-126,-253
-87,-92,-4,90,-41,-48,-63,-78,-126,-165,-131,-253
-97,-92,4,95,-51,-43,-63,-78,-126,-175,-141,-258
-97,-92,4,95,-51,-43,-63,-82,-141,-180,-146,-258
-87,-102,-14,95,-36,-58,-73,-92,-146,-170,-136,-248
-87,-117,-29,102,-29,-73,-73,-97,-146,-175,-141,-253
-87,-126,-39,107,-24,-82,-73,-97,-156,-185,-151,-258
-87,-136,-48,112,-19,-92,-78,-102,-165,-190,-156,-268
-97,-131,-34,114,-31,-82,-68,-92,-161,-195,-146,-268
-97,-131,-34,114,-31,-82,-63,-92,-161,-195,-146,-263
-97,-136,-39,117,-29,-87,-58,-87,-156,-190,-146,-258
-97,-136,-39,117,-29,-87,-58,-82,-151,-190,-146,-258
-107,-136,-29,122,-39,-82,-48,-82,-136,-175,-146,-268
-122,-141,-19,131,-51,-80,-34,-78,-136,-175,-141,-263
-122,-141,-19,131,-51,-80,-29,-78,-136,-175,-141,-263
-131,-146,-14,139,-58,-80,-29,-78,-136,-175,-141,-263
-122,-156,-34,139,-43,-95,-34,-82,-151,-190,-151,-273
-122,-156,-34,139,-43,-95,-39,-82,-161,-195,-161,-278
-122,-170,-48,146,-36,-109,-43,-82,-170,-209,-165,-283
-122,-175,-53,148,-34,-114,-43,-82,-175,-214,-180,-287
-131,-185,-53,158,-39,-119,-34,-78,-170,-209,-175,-287
-136,-190,-53,163,-41,-122,-29,-78,-170,-214,-180,-292
-136,-190,-53,163,-41,-122,-29,-78,-165,-209,-180,-297
-141,-195,-53,168,-43,-124,-29,-78,-161,-204,-180,-302
-131,-185,-53,158,-39,-119,-29,-78,-175,-214,-180,-302
-131,-190,-58,161,-36,-124,-29,-82,-175,-219,-180,-302
-131,-190,-58,161,-36,-124,-29,-82,-175,-219,-185,-302
-126,-190,-63,158,-31,-126,-29,-82,-175,-219,-185,-302
-136,-200,-63,168,-36,-131,-24,-82,-175,-219,-195,-307
-136,-200,-63,168,-36,-131,-24,-82,-175,-219,-195,-307
-136,-204,-68,170,-34,-136,-19,-78,-175,-219,-195,-307
-136,-204,-68,170,-34,-136,-19,-78,-175,-219,-195,-307
-141,-204,-63,173,-39,-134,-19,-73,-175,-229,-185,-297
-141,-209,-68,175,-36,-139,-14,-73,-175,-229,-185,-297
-141,-209,-68,175,-36,-139,-14,-73,-175,-229,-185,-297
-151,-219,-68,185,-41,-143,-14,-73,-175,-229,-190,-302
-151,-219,-68,185,-41,-143,-14,-73,-185,-229,-195,-312
-151,-219,-68,185,-41,-143,-9,-73,-185,-234,-204,-322
-151,-219,-68,185,-41,-143,-9,-73,-180,-234,-209,-326
-146,-219,-73,183,-36,-146,-14,-73,-180,-234,-214,-331
-146,-224,-78,185,-34,-151,-14,-73,-180,-224,-204,-322
-146,-234,-87,190,-29,-161,-14,-73,-180,-224,-204,-322
-146,-239,-92,192,-26,-165,-9,-73,-180,-229,-204,-326
-151,-244,-92,197,-29,-168,-9,-73,-180,-229,-209,-326
-151,-234,-82,192,-34,-158,-9,-82,-190,-239,-204,-326
-151,-234,-82,192,-34,-158,-9,-78,-190,-239,-200,-326
-151,-234,-82,192,-34,-158,-9,-78,-185,-239,-195,-331
-151,-234,-82,192,-34,-158,-9,-78,-185,-239,-190,-331
-151,-244,-92,197,-29,-168,-9,-78,-175,-229,-195,-331
-151,-244,-92,197,-29,-168,-9,-78,-175,-229,-200,-326
-151,-244,-92,197,-29,-168,-9,-78,-180,-224,-204,-326
-161,-248,-87,204,-36,-168,-9,-78,-180,-224,-209,-336
-141,-248,-107,195,-17,-178,-9,-68,-180,-224,-209,-326
-151,-248,-97,200,-26,-173,-9,-78,-180,-224,-200,-336
-151,-239,-87,195,-31,-163,-9,-68,-180,-224,-200,-341
-141,-244,-102,192,-19,-173,0,-63,-185,-219,-200,-331
-161,-258,-97,209,-31,-178,4,-53,-170,-219,-214,-336
-170,-258,-87,214,-41,-173,29,-24,-151,-224,-234,-361
-185,-278,-92,231,-46,-185,78,29,-117,-224,-268,-395
-200,-331,-131,265,-34,-231,117,82,-82,-234,-302,-424
-180,-331,-151,256,-14,-241,126,112,-48,-229,-312,-439
-170,-312,-141,241,-14,-226,117,107,-29,-200,-312,-448
-165,-302,-136,234,-14,-219,107,136,53,-117,-268,-429
-136,-258,-122,197,-7,-190,126,209,200,24,-200,-385
-131,-204,-73,168,-29,-139,146,297,351,190,-92,-326
-97,-126,-29,112,-34,-78,126,341,458,366,43,-229
-39,-24,14,31,-26,-4,68,322,566,600,224,-107
0,87,87,-43,-43,87,-4,268,712,907,468,43
58,185,126,-122,-34,156,-102,195,888,1293,736,204
131,287,156,-209,-12,222,-224,102,1010,1634,995,361
180,351,170,-265,4,261,-326,-19,961,1722,1146,478
209,346,136,-278,36,241,-366,-161,692,1410,1073,502
200,307,107,-253,46,207,-419,-385,312,922,878,448
161,263,102,-212,29,183,-507,-658,-68,546,717,419
107,263,156,-185,-24,209,-570,-917,-478,175,561,385
19,244,224,-131,-102,234,-590,-1166,-941,-283,351,307
-92,214,307,-61,-200,261,-629,-1400,-1317,-688,151,234
-161,229,390,-34,-275,309,-663,-1556,-1527,-936,4,161
-200,253,453,-26,-326,353,-712,-1615,-1571,-1054,-112,97
-234,258,492,-12,-363,375,-741,-1590,-1503,-1034,-165,43
-239,248,488,-4,-363,368,-736,-1527,-1395,-971,-180,4
-248,209,458,19,-353,334,-722,-1444,-1317,-927,-214,-43
-234,165,400,34,-317,283,-697,-1332,-1215,-883,-258,-107
-204,136,341,34,-273,239,-678,-1190,-1107,-814,-268,-131
-204,87,292,58,-248,190,-624,-1049,-1015,-751,-268,-170
-200,53,253,73,-226,153,-531,-873,-897,-683,-273,-214
-195,24,219,85,-207,122,-439,-727,-775,-605,-273,-244
-204,-24,180,114,-192,78,-380,-619,-683,-541,-253,-258
-195,-43,151,119,-173,53,-312,-531,-600,-502,-248,-278
-204,-68,136,136,-170,34,-268,-468,-531,-458,-253,-302
-200,-92,107,146,-153,7,-248,-419,-488,-434,-258,-317
-180,-97,82,139,-131,-7,-234,-390,-458,-419,-258,-317
-180,-107,73,143,-126,-17,-204,-346,-419,-385,-253,-322
-175,-122,53,148,-114,-34,-170,-292,-380,-351,-244,-326
-156,-136,19,146,-87,-58,-122,-224,-336,-317,-239,-331
-161,-161,0,161,-80,-80,-92,-180,-292,-302,-234,-331
-161,-175,-14,168,-73,-95,-63,-141,-263,-283,-234,-341
-156,-175,-19,165,-68,-97,-53,-126,-248,-268,-234,-351
-165,-185,-19,175,-73,-102,-53,-136,-244,-273,-224,-351
-146,-175,-29,161,-58,-102,-58,-131,-229,-268,-229,-346
-141,-175,-34,158,-53,-104,-63,-117,-214,-258,-229,-341
-146,-180,-34,163,-56,-107,-48,-107,-214,-253,-224,-341
-136,-180,-43,158,-46,-112,-29,-78,-204,-244,-224,-341
-146,-209,-63,178,-41,-136,-19,-68,-195,-244,-224,-346
-151,-219,-68,185,-41,-143,-9,-53,-195,-234,-224,-336
-151,-224,-73,187,-39,-148,-4,-43,-185,-229,-219,-336
-151,-224,-73,187,-39,-148,0,-43,-180,-224,-214,-336
-151,-214,-63,183,-43,-139,0,-43,-175,-219,-209,-336
-136,-204,-68,170,-34,-136,-4,-53,-175,-224,-209,-336
-136,-204,-68,170,-34,-136,-4,-48,-175,-224,-209,-336
-136,-209,-73,173,-31,-141,-4,-48,-170,-224,-214,-336
-136,-209,-73,173,-31,-141,-4,-39,-170,-224,-214,-341
-141,-209,-68,175,-36,-139,4,-34,-170,-219,-224,-331
-141,-209,-68,175,-36,-139,4,-34,-170,-219,-224,-331
-141,-204,-63,173,-39,-134,4,-29,-165,-214,-219,-326
-141,-200,-58,170,-41,-129,4,-29,-165,-209,-219,-326
-131,-200,-68,165,-31,-134,-4,-29,-165,-209,-209,-326
-131,-200,-68,165,-31,-134,-4,-29,-161,-209,-209,-322
-131,-209,-78,170,-26,-143,0,-29,-161,-209,-214,-322
-131,-209,-78,170,-26,-143,0,-24,-161,-209,-214,-322
-131,-200,-68,165,-31,-134,4,-24,-151,-209,-209,-317
-136,-200,-63,168,-36,-131,4,-24,-151,-209,-209,-312
-136,-200,-63,168,-36,-131,4,-24,-146,-204,-209,-307
-136,-200,-63,168,-36,-131,0,-24,-146,-204,-209,-307
-136,-190,-53,163,-41,-122,0,-29,-161,-200,-214,-307
-136,-185,-48,161,-43,-117,0,-29,-161,-200,-214,-312
-136,-185,-48,161,-43,-117,0,-29,-156,-200,-214,-312
-136,-185,-48,161,-43,-117,0,-24,-156,-195,-214,-312
-126,-200,-73,163,-26,-136,14,-14,-156,-204,-204,-302
-126,-200,-73,163,-26,-136,14,-9,-156,-204,-200,-302
-126,-200,-73,163,-26,-136,14,-9,-151,-195,-200,-312
-126,-200,-73,163,-26,-136,9,-9,-151,-195,-200,-312
-122,-195,-73,158,-24,-134,0,-19,-151,-195,-200,-302
-122,-190,-68,156,-26,-129,0,-19,-151,-195,-200,-302
-117,-180,-63,148,-26,-122,0,-19,-151,-195,-200,-297
-117,-175,-58,146,-29,-117,0,-19,-151,-195,-204,-292
-117,-175,-58,146,-29,-117,9,-19,-141,-185,-200,-292
-117,-175,-58,146,-29,-117,9,-19,-141,-185,-190,-283
-117,-175,-58,146,-29,-117,9,-14,-141,-180,-180,-278
-117,-175,-58,146,-29,-117,9,-14,-136,-180,-175,-278
-107,-165,-58,136,-24,-112,0,-14,-136,-175,-175,-273
-107,-165,-58,136,-24,-112,0,-14,-136,-175,-175,-263
-102,-161,-58,131,-21,-109,-4,-14,-136,-175,-175,-258
-102,-161,-58,131,-21,-109,-4,-14,-136,-175,-175,-258
-102,-151,-48,126,-26,-100,0,-4,-126,-165,-165,-248
-102,-151,-48,126,-26,-100,4,0,-126,-165,-165,-248
-102,-156,-53,129,-24,-104,9,0,-126,-165,-165,-244
-102,-156,-53,129,-24,-104,14,0,-126,-161,-161,-239
-97,-141,-43,119,-26,-92,9,0,-126,-161,-161,-229
-92,-141,-48,117,-21,-95,4,4,-126,-161,-156,-234
-87,-141,-53,114,-17,-97,0,4,-122,-156,-156,-234
-82,-141,-58,112,-12,-100,-4,9,-122,-151,-156,-234
-63,-131,-68,97,2,-100,4,9,-112,-151,-146,-224
-63,-126,-63,95,0,-95,4,9,-112,-151,-146,-224
-68,-122,-53,95,-7,-87,4,9,-112,-151,-141,-214
-68,-117,-48,92,-9,-82,4,14,-107,-146,-141,-214
-58,-107,-48,82,-4,-78,4,14,-107,-146,-141,-209
-58,-107,-48,82,-4,-78,4,19,-107,-146,-136,-209
-53,-102,-48,78,-2,-75,4,19,-97,-136,-136,-209
-48,-102,-53,75,2,-78,4,24,-97,-136,-136,-209
-39,-92,-53,65,7,-73,14,34,-87,-131,-126,-200
-39,-92,-53,65,7,-73,14,39,-82,-122,-122,-200
-39,-87,-48,63,4,-68,14,39,-82,-117,-117,-200
-39,-78,-39,58,0,-58,14,43,-82,-112,-117,-200
-19,-73,-53,46,17,-63,14,34,-78,-117,-112,-190
-19,-68,-48,43,14,-58,14,39,-73,-112,-112,-195
-19,-58,-39,39,9,-48,14,39,-73,-112,-112,-195
-19,-43,-24,31,2,-34,14,39,-73,-112,-107,-195
-14,-43,-29,29,7,-36,14,53,-73,-92,-107,-195
-9,-39,-29,24,9,-34,9,58,-68,-87,-97,-190
4,-39,-43,17,24,-41,9,58,-63,-87,-92,-190
0,-29,-29,14,14,-29,9,58,-58,-82,-92,-190
9,-19,-29,4,19,-24,9,53,-58,-78,-78,-175
14,-19,-34,2,24,-26,9,53,-58,-78,-78,-175
14,-19,-34,2,24,-26,9,58,-53,-73,-73,-170
19,-9,-29,-4,24,-19,9,58,-53,-68,-73,-170
19,4,-14,-12,17,-4,9,68,-39,-58,-68,-161
24,4,-19,-14,21,-7,4,73,-39,-53,-53,-146
24,9,-14,-17,19,-2,4,73,-34,-48,-43,-136
24,14,-9,-19,17,2,0,73,-34,-48,-34,-131
39,29,-9,-34,24,9,4,68,-39,-48,-39,-117
43,39,-4,-41,24,17,4,68,-39,-39,-34,-112
43,39,-4,-41,24,17,-4,68,-39,-34,-29,-107
43,48,4,-46,19,26,-4,68,-34,-29,-24,-92
39,68,29,-53,4,48,-19,78,-34,-34,-9,-82
39,73,34,-56,2,53,-24,73,-34,-34,-4,-78
43,78,34,-61,4,56,-24,73,-29,-24,9,-68
48,87,39,-68,4,63,-29,73,-29,-24,14,-58
63,82,19,-73,21,51,-34,68,-39,-19,9,-43
63,87,24,-75,19,56,-39,68,-39,-14,24,-39
63,97,34,-80,14,65,-43,68,-39,-9,29,-29
63,102,39,-82,12,70,-48,68,-39,-4,34,-24
63,131,68,-97,-2,100,-58,53,-39,-9,39,-24
73,131,58,-102,7,95,-63,48,-43,-9,53,-14
78,136,58,-107,9,97,-73,48,-43,-4,53,-4
82,141,58,-112,12,100,-78,39,-43,0,58,4
92,151,58,-122,17,104,-78,34,-53,4,63,19
92,156,63,-124,14,109,-82,29,-53,9,73,29
92,165,73,-129,9,119,-87,24,-63,9,87,29
92,170,78,-131,7,124,-102,19,-63,9,97,39
97,190,92,-143,2,141,-112,14,-78,0,92,34
102,195,92,-148,4,143,-117,9,-82,0,97,43
102,195,92,-148,4,143,-126,0,-82,0,102,43
102,204,102,-153,0,153,-126,-4,-87,0,107,53
107,209,102,-158,2,156,-122,-9,-92,4,102,58
107,214,107,-161,0,161,-131,-14,-97,0,107,58
107,214,107,-161,0,161,-141,-19,-102,-4,112,63
107,214,107,-161,0,161,-146,-29,-102,-14,112,63
107,219,112,-163,-2,165,-151,-34,-117,-24,117,58
112,219,107,-165,2,163,-156,-48,-126,-24,117,63
112,214,102,-163,4,158,-161,-58,-131,-24,117,68
112,209,97,-161,7,153,-161,-58,-136,-29,117,68
107,209,102,-158,2,156,-156,-73,-151,-29,122,63
107,209,102,-158,2,156,-161,-73,-156,-39,122,68
107,209,102,-158,2,156,-161,-73,-161,-39,122,68
107,209,102,-158,2,156,-165,-78,-165,-48,122,68
107,214,107,-161,0,161,-170,-82,-170,-39,122,58
107,219,112,-163,-2,165,-170,-92,-170,-48,122,53
107,224,117,-165,-4,170,-161,-92,-170,-48,117,53
107,224,117,-165,-4,170,-161,-92,-170,-53,112,48
102,214,112,-158,-4,163,-156,-92,-161,-48,107,34
102,204,102,-153,0,153,-156,-87,-161,-48,97,29
102,204,102,-153,0,153,-146,-87,-161,-48,92,24
97,190,92,-143,2,141,-136,-87,-161,-48,82,14
107,190,82,-148,12,136,-136,-73,-161,-58,78,14
107,185,78,-146,14,131,-126,-73,-156,-58,73,0
92,170,78,-131,7,124,-122,-73,-156,-63,63,-9
92,156,63,-124,14,109,-117,-63,-156,-68,58,-24
87,146,58,-117,14,102,-102,-68,-151,-68,43,-34
82,141,58,-112,12,100,-87,-58,-146,-68,34,-39
78,126,48,-102,14,87,-82,-58,-136,-68,24,-48
73,122,48,-97,12,85,-73,-53,-131,-73,14,-58
68,107,39,-87,14,73,-63,-39,-122,-73,9,-58
63,97,34,-80,14,65,-58,-29,-122,-82,0,-68
63,87,24,-75,19,56,-53,-24,-122,-78,-9,-78
63,78,14,-70,24,46,-48,-24,-122,-87,-19,-87
58,82,24,-70,17,53,-43,-19,-112,-87,-14,-97
53,73,19,-63,17,46,-39,-19,-102,-87,-24,-102
48,68,19,-58,14,43,-29,-9,-92,-87,-34,-112
43,58,14,-51,14,36,-24,-9,-87,-82,-43,-112
48,53,4,-51,21,29,-19,0,-87,-82,-53,-117
43,43,0,-43,21,21,-14,0,-87,-87,-58,-122
43,34,-9,-39,26,12,-14,-4,-87,-92,-63,-122
39,29,-9,-34,24,9,-14,-4,-92,-97,-68,-126
34,29,-4,-31,19,12,0,4,-87,-92,-68,-136
34,29,-4,-31,19,12,4,4,-82,-92,-78,-141
29,24,-4,-26,17,9,4,4,-82,-97,-78,-141
29,24,-4,-26,17,9,4,4,-78,-102,-78,-141
19,19,0,-19,9,9,-4,4,-78,-102,-87,-146
19,14,-4,-17,12,4,0,4,-78,-102,-87,-151
19,14,-4,-17,12,4,4,4,-78,-102,-92,-151
19,9,-9,-14,14,0,4,4,-78,-102,-97,-151
24,-4,-29,-9,26,-17,14,14,-68,-97,-92,-141
24,-4,-29,-9,26,-17,14,9,-73,-97,-92,-146
24,-4,-29,-9,26,-17,14,9,-73,-97,-97,-146
24,-4,-29,-9,26,-17,14,4,-82,-107,-97,-146
19,0,-19,-9,19,-9,19,4,-82,-107,-102,-146
19,0,-19,-9,19,-9,19,4,-82,-107,-102,-146
24,0,-24,-12,24,-12,19,4,-82,-112,-102,-146
24,0,-24,-12,24,-12,19,4,-82,-112,-102,-146
24,0,-24,-12,24,-12,24,4,-73,-107,-92,-151
24,0,-24,-12,24,-12,24,4,-73,-107,-92,-151
24,0,-24,-12,24,-12,24,4,-78,-107,-97,-151
19,0,-19,-9,19,-9,29,0,-78,-107,-97,-151
19,-9,-29,-4,24,-19,29,9,-73,-107,-92,-151
19,-9,-29,-4,24,-19,29,9,-73,-112,-92,-151
19,-9,-29,-4,24,-19,29,9,-73,-117,-92,-156
24,-4,-29,-9,26,-17,29,9,-73,-117,-87,-161
24,4,-19,-14,21,-7,29,9,-73,-117,-87,-165
24,4,-19,-14,21,-7,29,9,-78,-117,-87,-161
24,4,-19,-14,21,-7,29,9,-78,-122,-87,-161
24,4,-19,-14,21,-7,29,14,-78,-122,-92,-156
24,14,-9,-19,17,2,29,14,-68,-117,-92,-161
24,14,-9,-19,17,2,29,9,-68,-117,-92,-161
24,14,-9,-19,17,2,29,9,-68,-112,-92,-156
24,19,-4,-21,14,7,34,9,-68,-112,-92,-151
34,24,-9,-29,21,7,34,9,-68,-112,-87,-141
34,24,-9,-29,21,7,34,9,-68,-112,-87,-141
34,24,-9,-29,21,7,34,14,-68,-112,-87,-141
29,24,-4,-26,17,9,34,14,-68,-112,-87,-136
24,24,0,-24,12,12,34,14,-58,-102,-87,-131
24,24,0,-24,12,12,34,14,-68,-102,-87,-131
24,24,0,-24,12,12,34,14,-68,-102,-87,-131
24,24,0,-24,12,12,34,14,-63,-102,-92,-131
34,24,-9,-29,21,7,34,24,-53,-102,-87,-122
34,24,-9,-29,21,7,34,24,-53,-102,-82,-122
34,24,-9,-29,21,7,34,24,-53,-102,-78,-122
34,24,-9,-29,21,7,34,24,-53,-102,-73,-122
43,34,-9,-39,26,12,34,34,-43,-92,-68,-107
43,34,-9,-39,26,12,34,34,-43,-92,-68,-102
43,34,-9,-39,26,12,34,39,-43,-87,-68,-97
43,34,-9,-39,26,12,34,39,-39,-87,-68,-92
39,43,4,-41,17,24,29,29,-39,-87,-63,-82
39,43,4,-41,17,24,29,29,-39,-87,-63,-82
39,43,4,-41,17,24,29,29,-39,-87,-63,-78
39,43,4,-41,17,24,29,29,-39,-87,-58,-78
48,34,-14,-41,31,9,39,39,-34,-82,-53,-68
48,34,-14,-41,31,9,39,39,-34,-73,-53,-63
43,34,-9,-39,26,12,39,39,-34,-68,-53,-58
43,34,-9,-39,26,12,39,39,-34,-63,-53,-53
43,39,-4,-41,24,17,39,48,-24,-63,-53,-43
43,39,-4,-41,24,17,34,48,-24,-63,-53,-43
43,39,-4,-41,24,17,34,48,-24,-63,-53,-39
48,39,-9,-43,29,14,34,53,-24,-63,-53,-39
48,39,-9,-43,29,14,34,43,-24,-53,-53,-29
48,39,-9,-43,29,14,34,43,-24,-53,-53,-24
48,39,-9,-43,29,14,34,43,-24,-48,-53,-24
48,39,-9,-43,29,14,34,43,-24,-43,-53,-29
48,39,-9,-43,29,14,34,58,-14,-43,-43,-19
48,39,-9,-43,29,14,34,58,-14,-43,-43,-14
48,39,-9,-43,29,14,34,53,-9,-43,-43,-14
48,39,-9,-43,29,14,34,53,-9,-39,-43,-14
48,39,-9,-43,29,14,34,53,-14,-39,-39,-4
48,43,-4,-46,26,19,34,53,-14,-39,-39,-4
48,43,-4,-46,26,19,34,53,-14,-39,-39,-4
48,43,-4,-46,26,19,34,53,-14,-39,-39,-4
48,39,-9,-43,29,14,34,58,-4,-39,-34,-4
48,39,-9,-43,29,14,34,58,-9,-39,-29,-4
48,39,-9,-43,29,14,34,53,-9,-34,-19,-4
48,34,-14,-41,31,9,34,53,-4,-34,-14,-4
48,34,-14,-41,31,9,34,53,-14,-34,-24,4
48,39,-9,-43,29,14,34,53,-14,-34,-24,0
48,39,-9,-43,29,14,34,53,-14,-34,-24,-4
48,43,-4,-46,26,19,34,53,-14,-34,-24,-4
48,43,-4,-46,26,19,34,53,-4,-34,-24,-14
48,43,-4,-46,26,19,34,53,-4,-34,-24,-14
48,39,-9,-43,29,14,34,53,-4,-39,-24,-14
48,39,-9,-43,29,14,29,53,-9,-39,-24,-14
58,39,-19,-48,39,9,39,53,-19,-39,-24,-9
53,34,-19,-43,36,7,39,53,-14,-39,-24,-9
53,34,-19,-43,36,7,39,48,-14,-39,-24,-4
58,34,-24,-46,41,4,39,48,-14,-39,-24,0
58,48,-9,-53,34,19,39,48,-14,-34,-14,0
58,48,-9,-53,34,19,34,48,-14,-34,-19,4
58,53,-4,-56,31,24,34,43,-14,-34,-29,4
58,53,-4,-56,31,24,39,43,-14,-34,-29,9
68,53,-14,-61,41,19,39,43,-19,-43,-24,24
68,53,-14,-61,41,19,34,39,-19,-43,-24,29
68,53,-14,-61,41,19,34,39,-19,-43,-24,34
68,48,-19,-58,43,14,34,39,-19,-43,-24,43
68,48,-19,-58,43,14,34,39,-14,-43,-24,48
68,48,-19,-58,43,14,34,39,-14,-48,-24,53
68,48,-19,-58,43,14,34,39,-19,-48,-24,58
63,48,-14,-56,39,17,34,39,-19,-48,-24,63
63,53,-9,-58,36,21,43,39,-19,-39,-24,68
68,53,-14,-61,41,19,43,34,-19,-39,-24,73
68,53,-14,-61,41,19,43,34,-19,-39,-29,78
68,53,-14,-61,41,19,43,34,-19,-39,-29,82
68,53,-14,-61,41,19,43,34,-24,-39,-29,87
68,53,-14,-61,41,19,43,39,-24,-39,-29,92
68,53,-14,-61,41,19,43,39,-24,-39,-29,97
68,53,-14,-61,41,19,39,34,-24,-39,-29,102
68,63,-4,-65,36,29,39,34,-19,-43,-29,112
68,58,-9,-63,39,24,39,29,-19,-43,-24,112
68,58,-9,-63,39,24,39,29,-19,-39,-24,112
68,63,-4,-65,36,29,39,29,-24,-39,-29,112
68,63,-4,-65,36,29,39,39,-14,-43,-29,117
68,63,-4,-65,36,29,39,34,-14,-43,-29,122
68,58,-9,-63,39,24,39,34,-19,-48,-29,131
68,58,-9,-63,39,24,39,34,-24,-48,-24,136
63,58,-4,-61,34,26,48,34,-14,-39,-14,141
68,58,-9,-63,39,24,48,39,-14,-39,-14,146
73,53,-19,-63,46,17,48,39,-9,-39,-19,156
78,53,-24,-65,51,14,48,39,-9,-39,-19,161
87,63,-24,-75,56,19,39,39,-9,-39,-19,175
87,63,-24,-75,56,19,39,34,-9,-39,-19,180
87,68,-19,-78,53,24,39,34,-14,-39,-19,180
82,68,-14,-75,48,26,39,34,-19,-39,-19,185
82,73,-9,-78,46,31,39,43,-19,-43,-19,190
82,73,-9,-78,46,31,39,39,-14,-48,-24,195
87,73,-14,-80,51,29,39,39,-14,-48,-24,204
87,78,-9,-82,48,34,39,39,-14,-43,-19,209
97,68,-29,-82,63,19,48,39,-4,-34,-9,214
97,68,-29,-82,63,19,48,39,-9,-34,-9,219
92,63,-29,-78,61,17,43,39,-14,-34,-9,224
87,63,-24,-75,56,19,43,39,-14,-34,-9,234
87,68,-19,-78,53,24,43,34,-24,-34,0,239
87,73,-14,-80,51,29,43,34,-19,-34,0,244
87,78,-9,-82,48,34,43,34,-19,-39,0,248
92,82,-9,-87,51,36,43,34,-19,-39,-4,253
102,87,-14,-95,58,36,53,34,-9,-29,-4,258
102,87,-14,-95,58,36,53,34,-9,-29,0,258
102,87,-14,-95,58,36,53,39,-9,-29,0,263
102,87,-14,-95,58,36,53,43,-9,-29,0,268
92,87,-4,-90,48,41,53,39,0,-39,9,278
92,87,-4,-90,48,41,53,39,-9,-39,9,283
92,87,-4,-90,48,41,53,39,-9,-39,9,287
92,87,-4,-90,48,41,53,39,-4,-39,9,292
102,92,-9,-97,56,41,53,39,-9,-29,9,302
102,87,-14,-95,58,36,53,39,-9,-29,9,302
102,87,-14,-95,58,36,53,34,-14,-29,9,302
102,92,-9,-97,56,41,53,34,-14,-29,9,302
97,82,-14,-90,56,34,53,43,-14,-29,19,317
97,82,-14,-90,56,34,53,43,-14,-29,19,322
97,82,-14,-90,56,34,48,43,-14,-29,19,326
102,82,-19,-92,61,31,48,39,-14,-34,19,331
102,92,-9,-97,56,41,48,39,-14,-24,29,336
102,92,-9,-97,56,41,48,39,-9,-24,29,336
97,87,-9,-92,53,39,48,43,-4,-24,29,341
97,87,-9,-92,53,39,53,43,0,-24,29,346
97,78,-19,-87,58,29,58,43,-9,-19,29,351
97,78,-19,-87,58,29,58,43,-4,-19,29,356
92,78,-14,-85,53,31,58,48,-4,-19,29,361
92,78,-14,-85,53,31,53,48,-4,-24,29,366
102,68,-34,-85,68,17,53,43,0,-24,39,370
97,68,-29,-82,63,19,53,43,0,-24,39,375
97,68,-29,-82,63,19,53,43,4,-24,39,380
97,73,-24,-85,61,24,53,43,4,-19,39,385
107,78,-29,-92,68,24,53,43,-4,-19,48,385
107,82,-24,-95,65,29,53,43,-4,-24,48,385
102,87,-14,-95,58,36,53,43,-4,-24,48,385
102,87,-14,-95,58,36,53,43,-4,-24,48,385
97,92,-4,-95,51,43,43,39,4,-19,58,385
97,92,-4,-95,51,43,43,39,4,-19,58,385
97,92,-4,-95,51,43,43,39,4,-24,58,385
97,92,-4,-95,51,43,43,39,4,-24,58,385
102,92,-9,-97,56,41,53,43,4,-14,58,395
102,92,-9,-97,56,41,53,43,4,-19,58,395
102,92,-9,-97,56,41,53,43,4,-19,58,395
102,92,-9,-97,56,41,53,43,4,-19,53,395
102,97,-4,-100,53,46,43,43,4,-19,63,390
107,97,-9,-102,58,43,43,43,4,-19,63,385
107,102,-4,-104,56,48,43,39,4,-19,63,380
107,107,0,-107,53,53,43,39,0,-19,63,375
107,97,-9,-102,58,43,53,43,0,-19,63,366
107,97,-9,-102,58,43,53,43,4,-19,63,366
107,97,-9,-102,58,43,53,43,4,-14,63,366
102,97,-4,-100,53,46,53,43,4,-14,68,366
102,87,-14,-95,58,36,53,53,14,-14,78,356
107,87,-19,-97,63,34,53,48,14,-14,78,351
107,87,-19,-97,63,34,53,48,14,-14,78,351
112,82,-29,-97,70,26,53,48,14,-14,78,351
102,82,-19,-92,61,31,53,39,14,-14,78,346
102,82,-19,-92,61,31,53,43,14,-14,73,346
107,82,-24,-95,65,29,53,43,14,-14,73,346
107,87,-19,-97,63,34,53,43,14,-14,73,341
107,92,-14,-100,61,39,63,53,4,-14,73,331
102,87,-14,-95,58,36,53,53,9,-9,78,326
117,107,-9,-112,63,48,58,48,9,-9,78,322
112,97,-14,-104,63,41,48,48,9,-19,68,312
107,97,-9,-102,58,43,48,48,9,-19,68,312
102,97,-4,-100,53,46,48,48,9,-19,68,312
97,97,0,-97,48,48,48,48,9,-19,68,312
97,87,-9,-92,53,39,58,48,9,-9,68,302
97,87,-9,-92,53,39,58,48,9,-9,68,302
97,87,-9,-92,53,39,58,48,9,-9,68,302
97,87,-9,-92,53,39,58,48,9,-9,68,302
97,78,-19,-87,58,29,58,48,19,-9,68,297
97,78,-19,-87,58,29,58,48,19,-9,68,292
97,78,-19,-87,58,29,58,48,19,-9,68,287
97,78,-19,-87,58,29,58,48,19,-9,68,283
97,87,-9,-92,53,39,58,48,19,-9,58,278
97,87,-9,-92,53,39,58,48,19,-9,58,273
97,87,-9,-92,53,39,58,48,19,-9,58,268
97,87,-9,-92,53,39,58,48,19,-9,58,263
97,87,-9,-92,53,39,58,48,19,0,58,253
97,87,-9,-92,53,39,58,48,19,0,58,253
97,87,-9,-92,53,39,58,48,19,0,58,253
97,87,-9,-92,53,39,58,48,19,0,58,253
107,78,-29,-92,68,24,68,58,29,0,58,244
107,78,-29,-92,68,24,68,58,29,0,58,244
107,78,-29,-92,68,24,68,58,29,0,58,244
107,78,-29,-92,68,24,68,58,29,0,58,244
97,92,-4,-95,51,43,78,68,39,9,58,234
97,97,0,-97,48,48,78,68,39,9,58,234
97,102,4,-100,46,53,78,68,39,9,58,234
97,107,9,-102,43,58,78,68,39,9,58,234
97,122,24,-109,36,73,78,78,48,19,63,234
97,126,29,-112,34,78,82,78,53,29,63,239
97,131,34,-114,31,82,82,78,58,29,68,239
97,136,39,-117,29,87,92,78,63,29,68,239
97,136,39,-117,29,87,92,68,63,34,68,229
97,136,39,-117,29,87,97,73,68,34,68,229
97,136,39,-117,29,87,97,73,68,34,68,229
97,131,34,-114,31,82,97,78,68,34,68,229
87,131,43,-109,21,87,97,87,68,34,68,224
87,131,43,-109,21,87,97,82,68,34,68,224
87,141,53,-114,17,97,97,82,68,34,68,224
87,141,53,-114,17,97,97,82,73,39,68,229
78,151,73,-114,2,112,92,73,73,48,73,219
82,156,73,-119,4,114,92,73,73,48,73,219
87,156,68,-122,9,112,87,68,73,48,73,219
87,156,68,-122,9,112,78,68,73,48,73,219
92,156,63,-124,14,109,63,73,68,48,68,209
97,156,58,-126,19,107,53,63,68,48,73,214
102,151,48,-126,26,100,43,58,68,48,73,214
112,151,39,-131,36,95,29,53,68,48,73,214
112,151,39,-131,36,95,24,48,53,39,63,214
107,151,43,-129,31,97,19,43,53,39,63,219
107,151,43,-129,31,97,14,43,53,39,63,219
107,151,43,-129,31,97,14,48,53,39,63,214
107,151,43,-129,31,97,14,48,58,48,63,214
97,151,53,-124,21,102,14,48,58,39,58,209
97,151,53,-124,21,102,14,43,43,34,58,209
97,151,53,-124,21,102,14,34,39,34,58,209
107,126,19,-117,43,73,24,39,48,39,63,204
107,117,9,-112,48,63,24,39,39,29,53,200
107,107,0,-107,53,53,19,34,29,24,48,190
107,102,-4,-104,56,48,19,34,24,19,48,190
107,112,4,-109,51,58,24,34,24,19,48,185
107,107,0,-107,53,53,29,39,29,24,48,190
107,107,0,-107,53,53,29,43,34,24,48,190
107,112,4,-109,51,58,29,43,39,29,48,190
92,102,9,-97,41,56,43,58,48,29,53,195
92,107,14,-100,39,61,48,58,48,29,53,195
82,107,24,-95,29,65,48,58,48,29,53,195
82,97,14,-90,34,56,48,53,48,29,48,185
82,107,24,-95,29,65,58,43,43,19,53,170
82,92,9,-87,36,51,58,43,39,9,53,165
82,87,4,-85,39,46,63,43,39,9,43,161
82,78,-4,-80,43,36,63,48,39,9,39,161
78,73,-4,-75,41,34,58,48,24,9,24,156
78,73,-4,-75,41,34,58,48,24,9,24,151
73,68,-4,-70,39,31,58,48,24,9,24,146
73,68,-4,-70,39,31,58,48,19,9,24,146
73,53,-19,-63,46,17,68,53,29,4,24,146
73,53,-19,-63,46,17,68,53,29,4,19,146
78,53,-24,-65,51,14,68,53,29,4,19,146
78,53,-24,-65,51,14,73,53,29,4,19,141
68,63,-4,-65,36,29,73,53,29,4,19,131
68,58,-9,-63,39,24,78,58,29,4,19,131
68,58,-9,-63,39,24,78,58,29,4,19,131
63,58,-4,-61,34,26,78,63,29,4,19,131
63,53,-9,-58,36,21,82,63,29,4,19,131
63,53,-9,-58,36,21,82,63,29,4,19,131
53,43,-9,-48,31,17,82,63,29,4,14,126
53,43,-9,-48,31,17,82,63,29,4,14,122
53,43,-9,-48,31,17,87,63,29,0,9,117
53,43,-9,-48,31,17,87,63,34,0,9,117
58,43,-14,-51,36,14,82,63,34,0,9,117
58,43,-14,-51,36,14,82,63,24,0,9,117
58,48,-9,-53,34,19,82,63,24,0,9,117
58,48,-9,-53,34,19,87,63,24,-4,9,112
53,48,-4,-51,29,21,87,63,24,-4,4,112
53,48,-4,-51,29,21,87,63,24,-4,4,112
53,43,-9,-48,31,17,97,58,24,-4,14,102
53,39,-14,-46,34,12,97,58,29,-4,14,97
53,34,-19,-43,36,7,97,58,29,-4,14,97
53,29,-24,-41,39,2,97,58,29,-4,14,97
43,19,-24,-31,34,-2,97,68,39,-4,14,102
43,19,-24,-31,34,-2,97,68,34,0,14,102
34,14,-19,-24,26,-2,97,68,34,0,14,92
34,14,-19,-24,26,-2,97,68,34,0,14,92
43,34,-9,-39,26,12,97,68,34,0,4,92
53,34,-19,-43,36,7,97,68,34,0,4,97
53,29,-24,-41,39,2,107,73,39,4,4,97
53,34,-19,-43,36,7,122,92,53,4,0,92
34,34,0,-34,17,17,146,122,63,0,-19,68
9,14,4,-12,2,9,195,165,97,-9,-34,53
4,0,-4,-2,4,-2,244,219,122,0,-58,34
4,-9,-14,2,9,-12,244,248,146,4,-58,19
4,0,-4,-2,4,-2,244,263,185,43,-39,29
39,29,-9,-34,24,9,253,331,297,136,-4,58
48,63,14,-56,17,39,292,444,463,278,63,92
73,117,43,-95,14,80,331,561,634,444,161,151
117,185,68,-151,24,126,312,595,771,619,287,229
156,268,112,-212,21,190,253,575,907,834,439,331
214,370,156,-292,29,263,161,561,1102,1132,634,463
302,458,156,-380,73,307,43,566,1337,1459,844,595
366,522,156,-444,104,339,-78,541,1498,1732,1034,722
424,556,131,-490,146,344,-170,439,1429,1771,1127,810
444,541,97,-492,173,319,-287,229,1093,1468,1063,814
453,483,29,-468,212,256,-409,-43,663,1068,917,771
444,458,14,-451,214,236,-507,-297,312,761,795,751
390,448,58,-419,165,253,-590,-595,-68,448,678,727
302,439,136,-370,82,287,-688,-971,-522,78,536,678
200,458,258,-329,-29,358,-785,-1351,-917,-239,414,653
112,483,370,-297,-129,427,-888,-1605,-1127,-409,346,649
82,546,463,-314,-190,505,-936,-1644,-1151,-478,297,644
68,590,522,-329,-226,556,-946,-1571,-1093,-488,263,610
53,590,536,-322,-241,563,-922,-1478,-1015,-453,248,580
63,570,507,-317,-222,539,-888,-1337,-917,-409,214,541
68,536,468,-302,-200,502,-824,-1185,-834,-385,161,488
58,497,439,-278,-190,468,-707,-1015,-727,-346,141,453
78,488,409,-283,-165,448,-585,-854,-605,-273,141,434
63,444,380,-253,-158,412,-483,-707,-507,-214,126,380
48,375,326,-212,-139,351,-380,-570,-414,-165,107,331
48,336,287,-192,-119,312,-292,-444,-322,-112,117,317
39,307,268,-173,-114,287,-234,-366,-248,-92,112,287
29,273,244,-151,-107,258,-190,-312,-209,-78,87,234
34,258,224,-146,-95,241,-151,-253,-165,-53,63,200
34,234,200,-134,-82,217,-117,-204,-126,-39,63,200
43,214,170,-129,-63,192,-78,-141,-87,-14,58,185
48,180,131,-114,-41,156,-24,-87,-48,9,48,170
39,136,97,-87,-29,117,24,-39,-24,14,43,146
53,112,58,-82,-2,85,63,4,0,29,39,126
43,87,43,-65,0,65,82,34,19,39,39,117
39,78,39,-58,0,58,82,48,24,43,39,107
48,97,48,-73,0,73,82,48,39,58,39,117
39,97,58,-68,-9,78,78,53,53,63,34,112
53,87,34,-70,9,61,92,68,58,63,43,126
58,82,24,-70,17,53,107,78,68,68,39,117
39,63,24,-51,7,43,126,97,68,68,29,117
48,53,4,-51,21,29,146,117,78,78,29,112
53,53,0,-53,26,26,141,122,78,78,19,102
53,48,-4,-51,29,21,141,131,87,82,24,102
53,48,-4,-51,29,21,141,131,92,87,29,102
53,58,4,-56,24,31,136,131,97,92,34,102
48,58,9,-53,19,34,136,122,97,97,34,112
48,58,9,-53,19,34,141,126,97,97,34,112
48,53,4,-51,21,29,146,126,102,97,29,112
48,53,4,-51,21,29,151,136,102,97,29,107
43,43,0,-43,21,21,151,151,102,92,29,107
43,43,0,-43,21,21,151,151,102,92,29,107
43,48,4,-46,19,26,151,156,107,97,34,112
43,53,9,-48,17,31,151,156,107,102,34,112
34,43,9,-39,12,26,151,146,117,102,43,122
34,43,9,-39,12,26,151,146,122,102,43,126
34,34,0,-34,17,17,156,146,122,102,39,126
34,34,0,-34,17,17,156,151,122,102,39,126
43,43,0,-43,21,21,161,156,122,112,43,117
39,43,4,-41,17,24,161,161,122,112,43,117
39,43,4,-41,17,24,161,165,126,117,43,117
39,43,4,-41,17,24,156,170,126,117,43,112
29,34,4,-31,12,19,156,156,122,112,58,102
29,39,9,-34,9,24,156,156,122,112,58,97
29,39,9,-34,9,24,156,156,126,112,58,97
29,39,9,-34,9,24,156,161,126,117,58,97
19,34,14,-26,2,24,170,170,126,126,58,87
19,34,14,-26,2,24,170,175,126,126,63,87
19,34,14,-26,2,24,170,175,131,136,63,78
19,34,14,-26,2,24,165,175,131,136,63,78
14,43,29,-29,-7,36,156,170,131,126,53,68
14,43,29,-29,-7,36,156,165,131,126,53,68
19,48,29,-34,-4,39,156,161,131,126,53,73
19,48,29,-34,-4,39,156,156,131,126,48,78
9,39,29,-24,-9,34,165,161,131,126,48,73
9,39,29,-24,-9,34,165,165,131,126,53,78
9,39,29,-24,-9,34,165,175,131,131,58,78
9,39,29,-24,-9,34,165,180,136,131,58,73
9,29,19,-19,-4,24,165,180,146,136,58,78
9,29,19,-19,-4,24,165,180,146,136,58,87
14,34,19,-24,-2,26,161,180,146,136,58,92
14,34,19,-24,-2,26,161,180,146,136,58,92
14,43,29,-29,-7,36,161,180,146,146,68,92
14,43,29,-29,-7,36,161,185,146,146,68,92
14,39,24,-26,-4,31,161,185,146,146,68,97
14,39,24,-26,-4,31,161,185,146,151,73,102
14,34,19,-24,-2,26,161,185,156,151,73,107
14,34,19,-24,-2,26,161,190,156,151,78,107
14,34,19,-24,-2,26,161,190,161,156,78,112
14,34,19,-24,-2,26,161,195,161,161,78,117
14,39,24,-26,-4,31,170,195,170,170,78,126
14,39,24,-26,-4,31,170,195,170,170,78,126
9,39,29,-24,-9,34,170,195,170,170,82,136
9,39,29,-24,-9,34,170,200,175,175,82,136
19,39,19,-29,0,29,170,209,165,175,82,122
19,39,19,-29,0,29,170,214,165,175,87,122
24,43,19,-34,2,31,170,214,175,185,87,122
29,43,14,-36,7,29,170,219,175,185,87,122
19,43,24,-31,-2,34,170,219,185,195,87,131
19,43,24,-31,-2,34,170,224,190,200,92,131
19,48,29,-34,-4,39,170,224,190,200,97,131
19,58,39,-39,-9,48,170,229,190,200,97,131
39,58,19,-48,9,39,170,229,195,204,102,131
39,58,19,-48,9,39,170,234,200,209,102,126
39,63,24,-51,7,43,170,234,200,209,102,126
39,73,34,-56,2,53,170,234,200,209,107,126
48,73,24,-61,12,48,180,239,200,219,107,126
48,78,29,-63,9,53,175,244,204,224,117,131
58,78,19,-68,19,48,175,244,209,224,122,131
48,87,39,-68,4,63,175,244,214,229,122,131
39,87,48,-63,-4,68,175,258,224,234,126,126
43,87,43,-65,0,65,175,258,224,234,126,126
43,87,43,-65,0,65,175,263,229,239,131,131
48,97,48,-73,0,73,175,263,229,244,131,131
58,112,53,-85,2,82,175,263,244,244,141,126
63,112,48,-87,7,80,170,268,244,248,151,136
63,117,53,-90,4,85,170,268,248,253,156,141
63,122,58,-92,2,90,165,268,248,253,161,141
58,117,58,-87,0,87,170,273,253,258,165,146
63,126,63,-95,0,95,170,273,253,273,170,151
63,126,63,-95,0,95,161,273,253,283,175,156
63,136,73,-100,-4,104,161,273,258,292,180,170
58,136,78,-97,-9,107,165,278,268,297,185,180
58,141,82,-100,-12,112,161,278,268,297,190,185
63,146,82,-104,-9,114,161,283,273,307,204,195
68,156,87,-112,-9,122,156,287,273,307,209,204
73,151,78,-112,-2,114,141,273,273,312,204,209
73,156,82,-114,-4,119,136,273,273,317,219,214
73,165,92,-119,-9,129,131,273,273,322,224,224
73,170,97,-122,-12,134,126,273,273,326,229,229
63,180,117,-122,-26,148,126,278,283,331,244,239
73,180,107,-126,-17,143,122,273,278,331,258,248
78,185,107,-131,-14,146,112,273,278,336,258,258
82,190,107,-136,-12,148,107,263,278,341,263,268
82,200,117,-141,-17,158,97,248,278,346,268,283
82,204,122,-143,-19,163,92,244,278,351,278,292
82,214,131,-148,-24,173,87,239,268,351,292,292
82,219,136,-151,-26,178,73,234,268,351,302,302
87,229,141,-158,-26,185,73,239,263,361,307,297
92,234,141,-163,-24,187,68,234,258,361,312,307
92,234,141,-163,-24,187,58,224,258,361,317,307
92,244,151,-168,-29,197,58,219,253,361,322,317
97,239,141,-168,-21,190,63,214,258,370,326,331
97,244,146,-170,-24,195,53,209,253,370,331,331
97,244,146,-170,-24,195,43,204,248,370,336,336
97,244,146,-170,-24,195,39,195,248,366,336,336
97,244,146,-170,-24,195,34,190,244,366,341,341
102,248,146,-175,-21,197,29,175,234,366,341,346
102,248,146,-175,-21,197,24,165,229,366,341,351
102,248,146,-175,-21,197,24,165,224,361,341,351
97,253,156,-175,-29,204,19,151,229,361,346,346
97,258,161,-178,-31,209,14,151,224,351,346,351
97,263,165,-180,-34,214,14,151,219,351,346,351
97,268,170,-183,-36,219,9,146,214,341,346,351
87,263,175,-175,-43,219,4,141,200,351,346,351
87,258,170,-173,-41,214,4,131,200,341,346,346
87,253,165,-170,-39,209,14,131,200,341,341,346
87,244,156,-165,-34,200,14,131,200,336,336,341
82,234,151,-158,-34,192,19,141,200,331,331,326
82,224,141,-153,-29,183,19,146,200,331,322,322
82,224,141,-153,-29,183,29,146,200,331,317,317
78,209,131,-143,-26,170,39,146,200,331,307,307
78,200,122,-139,-21,161,39,141,200,322,302,307
78,195,117,-136,-19,156,48,141,204,322,297,292
63,180,117,-122,-26,148,53,141,204,317,287,283
63,165,102,-114,-19,134,58,151,204,312,283,268
68,156,87,-112,-9,122,53,156,214,312,273,258
63,151,87,-107,-12,119,68,165,214,312,268,253
58,136,78,-97,-9,107,73,165,219,312,263,244
53,131,78,-92,-12,104,82,170,219,307,258,234
39,117,78,-78,-19,97,92,165,209,302,244,224
34,107,73,-70,-19,90,97,175,209,287,234,214
34,97,63,-65,-14,80,102,180,209,287,224,204
34,87,53,-61,-9,70,107,180,209,273,214,195
19,73,53,-46,-17,63,112,175,214,278,219,185
14,63,48,-39,-17,56,117,175,219,273,209,180
9,58,48,-34,-19,53,126,185,224,268,200,170
4,48,43,-26,-19,46,131,185,224,268,190,170
9,43,34,-26,-12,39,126,185,214,268,190,165
4,34,29,-19,-12,31,131,185,214,263,185,161
4,24,19,-14,-7,21,131,180,214,258,180,161
0,19,19,-9,-9,19,131,180,209,253,175,156
4,9,4,-7,0,7,136,180,209,239,170,146
4,9,4,-7,0,7,141,180,209,239,156,141
0,4,4,-2,-2,4,141,180,204,234,151,141
0,4,4,-2,-2,4,141,180,204,229,146,141
0,9,9,-4,-4,9,141,180,204,229,156,126
0,4,4,-2,-2,4,146,180,204,229,156,122
0,4,4,-2,-2,4,151,180,204,229,151,122
0,0,0,0,0,0,151,180,204,229,146,122
-4,4,9,0,-7,7,151,180,195,224,151,126
-4,4,9,0,-7,7,151,175,190,224,151,126
-4,4,9,0,-7,7,151,175,190,224,146,131
-4,4,9,0,-7,7,151,170,180,214,146,136
-9,0,9,4,-9,4,156,180,190,224,141,136
-9,0,9,4,-9,4,156,180,190,224,141,136
-4,0,4,2,-4,2,156,180,190,219,141,136
-4,0,4,2,-4,2,156,180,190,219,141,136
-4,0,4,2,-4,2,151,170,190,214,141,131
-4,0,4,2,-4,2,151,170,190,214,141,131
-4,0,4,2,-4,2,151,170,185,214,136,131
-9,0,9,4,-9,4,156,165,185,214,136,131
-9,-9,0,9,-4,-4,156,165,180,214,141,131
-9,-9,0,9,-4,-4,156,165,180,209,141,131
-9,-9,0,9,-4,-4,156,165,180,204,141,126
-4,-4,0,4,-2,-2,156,165,180,204,146,122
-4,-4,0,4,-2,-2,146,165,180,204,136,122
-4,-4,0,4,-2,-2,146,165,175,204,136,122
-4,-4,0,4,-2,-2,146,165,175,200,136,117
-4,-4,0,4,-2,-2,146,170,175,200,131,117
-14,-4,9,9,-12,2,156,161,165,195,131,112
-14,-4,9,9,-12,2,156,156,165,195,131,112
-14,-4,9,9,-12,2,156,156,165,200,131,117
-14,0,14,7,-14,7,161,156,165,200,131,122
-14,0,14,7,-14,7,161,165,165,200,126,122
-14,-4,9,9,-12,2,161,165,165,200,126,122
-14,-9,4,12,-9,-2,161,170,165,200,126,122
-19,-14,4,17,-12,-4,161,170,165,200,126,126
-24,-4,19,14,-21,7,151,165,165,190,126,122
-24,-4,19,14,-21,7,151,161,156,190,126,122
-24,-4,19,14,-21,7,151,156,156,190,126,122
-24,-4,19,14,-21,7,151,151,161,190,122,122
-24,-14,9,19,-17,-2,161,161,161,200,131,112
-24,-14,9,19,-17,-2,161,161,161,200,131,112
-24,-14,9,19,-17,-2,161,161,161,200,131,112
-24,-14,9,19,-17,-2,161,161,161,200,131,112
-24,-24,0,24,-12,-12,161,161,170,190,136,122
-24,-24,0,24,-12,-12,161,161,170,190,136,122
-24,-24,0,24,-12,-12,161,165,170,195,136,122
-24,-24,0,24,-12,-12,161,165,175,195,136,122
-29,-14,14,21,-21,0,165,165,165,204,122,112
-29,-14,14,21,-21,0,165,165,165,204,122,112
-29,-14,14,21,-21,0,165,165,165,204,122,117
-29,-14,14,21,-21,0,165,165,165,204,126,117
-19,-14,4,17,-12,-4,156,165,170,195,122,122
-19,-14,4,17,-12,-4,156,165,170,200,122,122
-24,-14,9,19,-17,-2,156,165,170,200,122,122
-24,-14,9,19,-17,-2,156,165,170,200,122,122
-34,-19,14,26,-24,-2,165,165,180,209,131,122
-34,-19,14,26,-24,-2,161,165,180,209,131,122
-34,-19,14,26,-24,-2,161,165,180,209,131,126
-29,-19,9,24,-19,-4,161,170,180,209,131,126
-19,-19,0,19,-9,-9,161,170,180,209,122,126
-19,-19,0,19,-9,-9,161,170,180,209,122,131
-19,-19,0,19,-9,-9,161,170,180,214,122,131
-19,-19,0,19,-9,-9,161,170,180,219,122,126
-29,-19,9,24,-19,-4,161,175,180,219,122,126
-29,-19,9,24,-19,-4,161,175,180,219,122,131
-29,-19,9,24,-19,-4,161,170,185,219,122,131
-29,-19,9,24,-19,-4,161,170,185,224,122,131
-29,-29,0,29,-14,-14,151,170,190,224,126,141
-29,-24,4,26,-17,-9,151,170,190,224,126,141
-29,-24,4,26,-17,-9,151,170,190,224,126,141
-29,-24,4,26,-17,-9,151,170,190,224,126,141
-39,-29,9,34,-24,-9,161,175,190,224,126,131
-39,-29,9,34,-24,-9,161,175,185,224,126,131
-39,-29,9,34,-24,-9,161,170,185,229,131,131
-39,-34,4,36,-21,-14,161,170,190,229,131,131
-29,-43,-14,36,-7,-29,151,170,190,229,131,141
-29,-39,-9,34,-9,-24,151,170,190,229,131,136
-29,-39,-9,34,-9,-24,151,170,190,229,131,131
-29,-34,-4,31,-12,-19,151,170,190,229,131,131
-29,-34,-4,31,-12,-19,161,170,190,229,131,131
-29,-34,-4,31,-12,-19,161,170,190,229,131,131
-29,-39,-9,34,-9,-24,161,170,190,224,131,131
-29,-39,-9,34,-9,-24,156,170,185,224,131,131
-19,-39,-19,29,0,-29,146,161,185,224,131,131
-24,-43,-19,34,-2,-31,146,161,190,224,131,126
-24,-43,-19,34,-2,-31,146,156,190,224,131,126
-19,-43,-24,31,2,-34,146,156,190,224,131,126
-29,-39,-9,34,-9,-24,156,165,190,229,141,122
-29,-39,-9,34,-9,-24,151,165,190,229,136,122
-29,-34,-4,31,-12,-19,151,161,190,229,126,117
-29,-34,-4,31,-12,-19,156,161,190,229,126,117
-29,-34,-4,31,-12,-19,146,161,185,229,131,117
-29,-34,-4,31,-12,-19,141,156,185,229,131,117
-29,-34,-4,31,-12,-19,141,156,185,229,131,117
-29,-39,-9,34,-9,-24,141,156,185,229,131,122
-29,-39,-9,34,-9,-24,141,156,180,229,141,112
-29,-39,-9,34,-9,-24,141,156,180,224,141,112
-29,-39,-9,34,-9,-24,141,156,175,224,141,112
-34,-39,-4,36,-14,-21,141,156,175,224,141,112
-24,-43,-19,34,-2,-31,141,156,175,224,131,102
-19,-43,-24,31,2,-34,141,151,175,224,131,102
-19,-43,-24,31,2,-34,141,151,175,224,126,102
-19,-43,-24,31,2,-34,141,151,175,224,126,102
-19,-43,-24,31,2,-34,141,151,170,214,126,102
-19,-43,-24,31,2,-34,141,156,170,214,126,102
-19,-43,-24,31,2,-34,141,156,170,214,126,102
-19,-43,-24,31,2,-34,136,151,170,214,126,102
-29,-48,-19,39,-4,-34,146,151,175,219,126,112
-29,-58,-29,43,0,-43,146,146,175,219,131,112
-29,-63,-34,46,2,-48,146,146,175,224,131,112
-29,-63,-34,46,2,-48,146,146,170,224,126,112
-29,-53,-24,41,-2,-39,136,146,180,219,136,112
-29,-53,-24,41,-2,-39,136,141,180,219,136,112
-29,-58,-29,43,0,-43,136,141,175,214,136,117
-29,-58,-29,43,0,-43,136,141,170,214,141,117
-29,-68,-39,48,4,-53,136,131,161,214,141,107
-29,-68,-39,48,4,-53,136,136,161,214,141,107
-29,-73,-43,51,7,-58,136,136,165,214,136,112
-29,-73,-43,51,7,-58,136,136,165,214,136,112
-39,-73,-34,56,-2,-53,136,136,165,214,136,112
-39,-73,-34,56,-2,-53,136,131,165,214,136,112
-39,-68,-29,53,-4,-48,136,131,161,214,136,107
-43,-68,-24,56,-9,-46,136,131,156,214,136,107
-34,-73,-39,53,2,-56,136,141,156,209,146,107
-34,-73,-39,53,2,-56,136,136,161,204,141,107
-29,-73,-43,51,7,-58,136,136,161,204,141,112
-29,-68,-39,48,4,-53,136,136,161,209,146,112
-39,-78,-39,58,0,-58,136,126,170,209,146,102
-39,-78,-39,58,0,-58,136,126,165,209,146,102
-43,-82,-39,63,-2,-61,131,126,161,209,146,102
-48,-82,-34,65,-7,-58,131,126,161,209,146,107
-39,-82,-43,61,2,-63,131,131,151,209,146,107
-39,-82,-43,61,2,-63,131,131,156,209,146,107
-39,-82,-43,61,2,-63,131,131,156,204,146,107
-34,-82,-48,58,7,-65,131,131,156,204,141,107
-43,-78,-34,61,-4,-56,122,126,156,204,131,107
-43,-78,-34,61,-4,-56,122,122,156,204,136,102
-43,-78,-34,61,-4,-56,122,122,156,204,136,102
-43,-78,-34,61,-4,-56,122,122,156,204,136,102
-34,-87,-53,61,9,-70,131,136,165,214,146,107
-34,-87,-53,61,9,-70,131,136,156,214,146,107
-34,-87,-53,61,9,-70,131,136,156,214,146,107
-34,-87,-53,61,9,-70,131,136,161,214,146,107
-34,-92,-58,63,12,-75,131,126,165,214,146,107
-34,-97,-63,65,14,-80,131,126,165,214,146,107
-34,-97,-63,65,14,-80,131,122,161,214,146,107
-34,-92,-58,63,12,-75,131,122,161,214,146,107
-39,-82,-43,61,2,-63,131,122,151,214,146,97
-39,-82,-43,61,2,-63,131,122,151,214,146,97
-39,-82,-43,61,2,-63,126,122,151,214,146,97
-34,-82,-48,58,7,-65,126,117,151,209,146,97
-34,-92,-58,63,12,-75,126,117,151,209,146,107
-34,-92,-58,63,12,-75,126,117,156,209,146,102
-39,-97,-58,68,9,-78,126,122,161,209,146,102
-39,-97,-58,68,9,-78,131,122,165,209,146,102
-39,-97,-58,68,9,-78,126,122,156,214,136,112
-39,-97,-58,68,9,-78,126,122,161,214,136,112
-43,-97,-53,70,4,-75,126,126,161,214,136,112
-43,-97,-53,70,4,-75,122,126,161,209,136,112
-34,-97,-63,65,14,-80,131,122,156,209,136,102
-39,-97,-58,68,9,-78,131,122,156,209,136,102
-39,-97,-58,68,9,-78,131,122,161,209,136,102
-39,-92,-53,65,7,-73,131,122,161,214,136,102
-39,-102,-63,70,12,-82,131,122,161,214,126,102
-39,-102,-63,70,12,-82,131,122,161,209,126,102
-43,-102,-58,73,7,-80,131,122,161,209,126,102
-43,-107,-63,75,9,-85,131,122,161,209,126,102
-29,-102,-73,65,21,-87,131,126,161,214,136,112
-29,-102,-73,65,21,-87,131,126,161,214,136,112
-29,-102,-73,65,21,-87,131,126,161,209,136,112
-29,-102,-73,65,21,-87,131,126,161,209,136,112
-43,-112,-68,78,12,-90,131,131,170,219,136,112
-43,-112,-68,78,12,-90,131,131,170,214,136,112
-43,-112,-68,78,12,-90,131,131,170,214,136,112
-43,-112,-68,78,12,-90,131,131,170,214,131,112
-43,-122,-78,82,17,-100,131,141,170,224,131,112
-39,-126,-87,82,24,-107,131,141,170,224,131,112
-39,-126,-87,82,24,-107,131,136,170,224,131,112
-39,-126,-87,82,24,-107,131,136,165,224,131,112
-39,-126,-87,82,24,-107,141,131,165,214,122,112
-39,-126,-87,82,24,-107,141,131,170,214,122,112
-39,-126,-87,82,24,-107,141,131,170,219,122,112
-43,-126,-82,85,19,-104,141,131,170,219,126,112
-43,-136,-92,90,24,-114,141,141,180,229,136,122
-39,-136,-97,87,29,-117,141,136,180,229,136,117
-39,-136,-97,87,29,-117,141,136,180,229,136,117
-34,-141,-107,87,36,-124,141,136,180,229,136,117
-34,-136,-102,85,34,-119,131,126,170,219,136,112
-34,-131,-97,82,31,-114,131,131,170,219,131,112
-29,-126,-97,78,34,-112,131,131,170,219,131,112
-29,-117,-87,73,29,-102,131,131,170,219,131,107
-29,-122,-92,75,31,-107,141,141,180,229,131,117
-24,-126,-102,75,39,-114,131,141,175,234,126,122
-39,-136,-97,87,29,-117,136,136,175,234,126,126
-39,-126,-87,82,24,-107,136,136,175,224,126,117
-39,-126,-87,82,24,-107,136,136,175,224,126,117
-39,-126,-87,82,24,-107,136,136,175,224,126,117
-39,-126,-87,82,24,-107,136,136,175,224,126,117
-29,-126,-97,78,34,-112,136,136,175,224,117,117
-29,-126,-97,78,34,-112,136,136,175,224,117,117
-29,-126,-97,78,34,-112,136,136,175,224,117,117
-29,-126,-97,78,34,-112,136,136,175,224,117,117
-29,-136,-107,82,39,-122,136,126,175,224,126,117
-29,-136,-107,82,39,-122,136,126,175,224,126,117
-29,-136,-107,82,39,-122,136,126,175,224,126,117
-29,-136,-107,82,39,-122,136,126,175,224,126,117
-29,-126,-97,78,34,-112,136,136,175,224,126,117
-29,-126,-97,78,34,-112,136,136,175,224,126,117
-29,-126,-97,78,34,-112,136,136,175,224,126,117
-29,-126,-97,78,34,-112,136,136,175,224,126,117
-29,-136,-107,82,39,-122,126,136,175,234,136,126
-29,-136,-107,82,39,-122,126,136,175,234,136,126
-29,-136,-107,82,39,-122,126,136,175,234,136,126
-29,-136,-107,82,39,-122,126,136,175,234,136,126
-29,-126,-97,78,34,-112,126,136,175,224,146,126
-29,-126,-97,78,34,-112,126,136,175,224,146,126
-29,-126,-97,78,34,-112,126,136,175,224,146,126
-29,-126,-97,78,34,-112,126,136,175,224,146,126
-29,-126,-97,78,34,-112,126,126,165,214,146,117
-29,-126,-97,78,34,-112,126,126,165,214,146,117
-29,-126,-97,78,34,-112,126,126,165,214,146,117
-29,-126,-97,78,34,-112,126,126,165,214,146,117
-19,-126,-107,73,43,-117,126,126,165,224,146,117
-19,-126,-107,73,43,-117,126,126,165,224,146,117
-19,-126,-107,73,43,-117,126,126,165,224,146,117
-19,-126,-107,73,43,-117,126,126,165,224,146,117
-19,-117,-97,68,39,-107,126,136,175,224,156,117
-19,-117,-97,68,39,-107,126,136,175,224,156,117
-19,-117,-97,68,39,-107,126,136,175,224,156,117
-19,-117,-97,68,39,-107,126,136,175,224,156,117
-19,-112,-92,65,36,-102,131,146,185,234,156,126
-19,-102,-82,61,31,-92,136,146,190,234,161,126
-19,-92,-73,56,26,-82,146,146,190,244,161,131
-19,-82,-63,51,21,-73,151,146,190,244,165,131
-19,-87,-68,53,24,-78,161,146,190,253,175,141
-19,-87,-68,53,24,-78,161,146,190,248,175,141
-19,-87,-68,53,24,-78,165,151,195,248,175,141
-19,-87,-68,53,24,-78,165,151,195,248,175,141
-19,-82,-63,51,21,-73,165,156,204,248,175,141
-19,-82,-63,51,21,-73,165,156,204,248,175,136
-19,-82,-63,51,21,-73,165,151,204,248,175,136
-19,-73,-53,46,17,-63,165,151,204,248,175,136
-29,-63,-34,46,2,-48,165,161,209,263,175,151
-29,-53,-24,41,-2,-39,161,161,209,263,180,151
-24,-48,-24,36,0,-36,161,161,209,263,180,151
-19,-48,-29,34,4,-39,156,156,209,263,180,151
-19,-58,-39,39,9,-48,146,146,209,253,180,151
-14,-58,-43,36,14,-51,131,141,204,253,185,151
-9,-58,-48,34,19,-53,122,131,204,253,190,156
-4,-63,-58,34,26,-61,112,126,204,253,190,156
4,-53,-58,24,31,-56,97,131,195,253,190,156
4,-53,-58,24,31,-56,92,126,190,253,190,156
0,-53,-53,26,26,-53,87,122,190,253,190,161
0,-53,-53,26,26,-53,82,122,190,253,190,161
0,-53,-53,26,26,-53,73,117,190,253,190,156
9,-53,-63,21,36,-58,73,117,185,253,190,156
0,-53,-53,26,26,-53,73,117,185,244,185,151
0,-53,-53,26,26,-53,73,112,170,239,185,151
4,-53,-58,24,31,-56,73,102,175,239,175,151
9,-68,-78,29,43,-73,73,97,175,234,170,146
14,-78,-92,31,53,-85,73,97,165,224,161,141
19,-87,-107,34,63,-97,68,92,156,219,156,131
19,-92,-112,36,65,-102,68,92,151,214,156,131
19,-92,-112,36,65,-102,73,92,151,214,156,136
19,-97,-117,39,68,-107,78,97,156,219,156,141
19,-97,-117,39,68,-107,78,102,161,219,156,141
19,-82,-102,31,61,-92,68,102,165,224,165,131
4,-82,-87,39,46,-85,82,107,165,224,170,136
4,-78,-82,36,43,-80,87,107,165,224,170,136
-4,-78,-73,41,34,-75,87,107,165,224,170,136
-4,-87,-82,46,39,-85,87,102,165,214,156,126
-4,-87,-82,46,39,-85,87,102,161,214,151,122
-4,-102,-97,53,46,-100,87,102,156,204,151,117
-4,-107,-102,56,48,-104,92,102,156,204,141,112
-4,-126,-122,65,58,-124,92,107,146,204,126,102
-9,-131,-122,70,56,-126,97,107,141,195,122,97
-9,-131,-122,70,56,-126,97,107,141,195,122,92
-14,-136,-122,75,53,-129,97,107,141,195,122,87
-14,-126,-112,70,48,-119,97,97,136,195,112,87
-14,-131,-117,73,51,-124,97,92,136,190,112,87
-14,-131,-117,73,51,-124,97,92,136,190,107,87
-9,-131,-122,70,56,-126,97,92,136,190,107,87
-19,-131,-112,75,46,-122,102,92,136,180,107,82
-19,-131,-112,75,46,-122,102,92,136,180,107,82
-19,-136,-117,78,48,-126,107,97,136,180,107,82
-19,-136,-117,78,48,-126,107,97,136,180,107,82
-19,-126,-107,73,43,-117,107,102,136,190,107,82
-14,-131,-117,73,51,-124,112,102,136,190,107,82
-9,-131,-122,70,56,-126,112,102,136,190,107,82
-14,-141,-126,78,56,-134,112,102,136,190,102,78
-14,-141,-126,78,56,-134,112,102,126,180,92,82
-14,-141,-126,78,56,-134,117,102,126,175,87,78
-14,-141,-126,78,56,-134,117,102,131,175,87,78
-9,-141,-131,75,61,-136,112,102,131,175,87,78
-9,-141,-131,75,61,-136,112,102,122,165,78,68
-9,-146,-136,78,63,-141,112,102,122,165,78,68
-9,-146,-136,78,63,-141,117,102,122,161,78,63
-14,-146,-131,80,58,-139,117,102,122,161,73,63
-24,-146,-122,85,48,-134,117,92,112,170,73,53
-24,-146,-122,85,48,-134,117,97,112,170,73,53
-24,-146,-122,85,48,-134,117,97,117,170,73,48
-24,-146,-122,85,48,-134,117,97,117,170,73,48
-24,-146,-122,85,48,-134,107,97,126,161,73,48
-24,-146,-122,85,48,-134,107,97,126,161,73,53
-24,-146,-122,85,48,-134,107,97,122,165,73,53
-34,-151,-117,92,41,-134,107,97,122,165,73,43
-24,-141,-117,82,46,-129,107,97,122,165,73,43
-34,-151,-117,92,41,-134,107,97,122,165,82,43
-24,-141,-117,82,46,-129,107,97,122,165,73,39
-24,-136,-112,80,43,-124,117,92,117,161,73,39
-34,-141,-107,87,36,-124,122,112,131,161,68,34
-34,-141,-107,87,36,-124,165,151,151,156,58,19
-48,-151,-102,100,26,-126,204,195,165,146,34,-4
-63,-156,-92,109,14,-124,234,239,190,136,9,-24
-43,-165,-122,104,39,-143,253,258,214,151,9,-39
-43,-175,-131,109,43,-153,234,273,253,200,29,-29
-39,-146,-107,92,34,-126,244,331,336,273,53,-19
-19,-82,-63,51,21,-73,273,434,492,395,112,4
-4,-29,-24,17,9,-26,312,541,644,551,209,73
39,29,-9,-34,24,9,302,605,780,727,336,161
107,92,-14,-100,61,39,253,614,917,932,488,263
165,185,19,-175,73,102,170,610,1093,1180,663,385
253,273,19,-263,117,146,63,595,1298,1468,854,507
346,336,-9,-341,178,163,-58,561,1420,1683,1024,614
385,361,-24,-373,204,168,-170,458,1332,1683,1098,683
405,356,-48,-380,226,153,-258,268,1005,1390,1024,697
395,317,-78,-356,236,119,-370,4,595,990,878,663
375,283,-92,-329,234,95,-478,-287,263,692,766,634
341,283,-58,-312,200,112,-551,-605,-87,409,658,610
263,263,0,-263,131,131,-639,-990,-502,87,527,580
151,283,131,-217,9,207,-736,-1361,-839,-180,414,556
73,326,253,-200,-90,290,-829,-1605,-1029,-331,346,531
24,380,356,-202,-165,368,-888,-1654,-1044,-380,307,517
0,414,414,-207,-207,414,-878,-1581,-976,-370,283,502
-14,405,419,-195,-217,412,-854,-1488,-907,-336,258,473
-14,366,380,-175,-197,373,-829,-1366,-839,-312,224,434
0,331,331,-165,-165,331,-775,-1215,-756,-297,180,380
0,302,302,-151,-151,302,-688,-1054,-668,-258,170,346
-9,283,292,-136,-151,287,-585,-893,-566,-204,170,317
-14,248,263,-117,-139,256,-463,-727,-448,-146,156,273
-29,200,229,-85,-129,214,-370,-590,-356,-97,136,224
-29,161,190,-65,-109,175,-302,-483,-283,-53,136,200
-19,141,161,-61,-90,151,-244,-395,-219,-24,131,170
-39,97,136,-29,-87,117,-200,-322,-170,-9,107,126
-43,73,117,-14,-80,95,-161,-273,-136,4,92,102
-34,58,92,-12,-63,75,-126,-224,-97,29,92,92
-34,29,63,2,-48,46,-97,-170,-68,43,97,87
-29,4,34,12,-31,19,-53,-126,-39,58,97,73
-19,-9,9,14,-14,0,-4,-68,-14,63,92,48
-24,-43,-19,34,-2,-31,24,-24,9,68,78,29
-14,-48,-34,31,9,-41,43,4,29,78,78,9
-29,-48,-19,39,-4,-34,43,19,43,92,78,0
-39,-68,-29,53,-4,-48,43,29,48,107,78,9
-29,-58,-29,43,0,-43,58,43,73,112,82,4
-24,-58,-34,41,4,-46,63,48,78,122,73,0
-19,-73,-53,46,17,-63,78,48,78,117,78,0
-19,-92,-73,56,26,-82,87,58,78,117,68,0
-29,-102,-73,65,21,-87,97,68,78,97,68,-14
-34,-102,-68,68,17,-85,102,82,68,97,58,-24
-34,-107,-73,70,19,-90,102,92,78,102,63,-24
-34,-107,-73,70,19,-90,102,92,82,107,68,-24
-34,-97,-63,65,14,-80,97,92,87,112,73,-24
-29,-87,-58,58,14,-73,87,82,97,117,63,-24
-29,-87,-58,58,14,-73,92,87,97,117,63,-24
-29,-92,-63,61,17,-78,97,87,102,117,58,-24
-29,-92,-63,61,17,-78,102,97,102,117,58,-29
-34,-112,-78,73,21,-95,102,102,92,102,58,-29
-34,-112,-78,73,21,-95,102,102,92,102,58,-29
-34,-107,-73,70,19,-90,102,107,97,107,63,-24
-34,-102,-68,68,17,-85,102,107,97,112,63,-24
-34,-112,-78,73,21,-95,102,107,97,112,63,-24
-34,-112,-78,73,21,-95,102,107,102,112,63,-19
-34,-122,-87,78,26,-104,107,107,102,112,58,-19
-34,-122,-87,78,26,-104,107,112,102,112,58,-19
-43,-112,-68,78,12,-90,102,112,92,102,43,-24
-48,-112,-63,80,7,-87,102,112,92,102,43,-29
-48,-112,-63,80,7,-87,102,112,97,107,43,-34
-48,-112,-63,80,7,-87,97,112,97,107,43,-43
-48,-112,-63,80,7,-87,107,107,92,112,48,-43
-48,-107,-58,78,4,-82,107,107,92,112,48,-48
-48,-107,-58,78,4,-82,107,107,97,112,48,-48
-48,-107,-58,78,4,-82,107,112,97,117,48,-48
-58,-122,-63,90,2,-92,102,102,87,112,48,-48
-58,-122,-63,90,2,-92,102,107,87,107,53,-48
-58,-122,-63,90,2,-92,102,107,92,112,53,-58
-58,-122,-63,90,2,-92,97,107,92,107,53,-58
-63,-112,-48,87,-7,-80,87,97,82,97,43,-68
-63,-112,-48,87,-7,-80,87,97,82,97,43,-68
-58,-107,-48,82,-4,-78,87,97,82,97,43,-63
-58,-107,-48,82,-4,-78,87,97,82,97,39,-58
-58,-107,-48,82,-4,-78,87,107,82,97,29,-63
-58,-107,-48,82,-4,-78,87,107,82,97,34,-58
-58,-107,-48,82,-4,-78,87,112,82,102,39,-58
-58,-107,-48,82,-4,-78,87,112,87,102,39,-63
-68,-112,-43,90,-12,-78,97,122,97,117,48,-58
-68,-117,-48,92,-9,-82,97,122,97,117,48,-48
-63,-117,-53,90,-4,-85,92,122,97,117,48,-43
-63,-122,-58,92,-2,-90,92,122,97,117,48,-43
-63,-112,-48,87,-7,-80,82,117,87,107,48,-43
-63,-112,-48,87,-7,-80,82,117,87,107,48,-43
-63,-117,-53,90,-4,-85,82,112,87,107,48,-39
-63,-117,-53,90,-4,-85,82,107,87,112,53,-34
-53,-102,-48,78,-2,-75,82,107,87,102,43,-34
-53,-102,-48,78,-2,-75,82,112,87,102,48,-39
-53,-102,-48,78,-2,-75,82,112,92,107,48,-39
-53,-102,-48,78,-2,-75,82,117,92,112,48,-39
-43,-92,-48,68,2,-70,82,107,102,112,39,-39
-43,-87,-43,65,0,-65,82,107,102,112,39,-39
-48,-82,-34,65,-7,-58,82,107,102,112,43,-29
-48,-78,-29,63,-9,-53,82,112,107,117,43,-29
-58,-78,-19,68,-19,-48,82,122,97,107,53,-34
-58,-78,-19,68,-19,-48,82,126,97,107,58,-34
-53,-73,-19,63,-17,-46,82,126,107,117,58,-34
-48,-73,-24,61,-12,-48,82,131,107,117,58,-34
-48,-82,-34,65,-7,-58,82,122,97,107,48,-24
-48,-82,-34,65,-7,-58,82,126,102,112,53,-24
-48,-78,-29,63,-9,-53,82,126,102,112,58,-24
-48,-68,-19,58,-14,-43,82,131,102,112,58,-24
-39,-68,-29,53,-4,-48,73,131,107,126,53,-29
-39,-68,-29,53,-4,-48,73,136,112,131,53,-39
-39,-63,-24,51,-7,-43,73,136,112,131,53,-43
-39,-53,-14,46,-12,-34,73,136,112,131,58,-48
-39,-53,-14,46,-12,-34,82,141,122,151,68,-39
-39,-48,-9,43,-14,-29,78,146,126,156,78,-34
-29,-48,-19,39,-4,-34,78,146,131,156,82,-34
-39,-39,0,39,-19,-19,78,146,136,161,82,-34
-39,-43,-4,41,-17,-24,78,151,126,156,87,-29
-34,-48,-14,41,-9,-31,78,151,126,156,87,-29
-34,-53,-19,43,-7,-36,78,156,131,161,92,-24
-29,-48,-19,39,-4,-34,78,156,131,165,92,-24
-29,-34,-4,31,-12,-19,78,156,136,161,82,-24
-24,-34,-9,29,-7,-21,73,161,136,161,92,-19
-24,-29,-4,26,-9,-17,73,161,141,161,97,-19
-24,-24,0,24,-12,-12,68,161,141,156,102,-24
-19,-14,4,17,-12,-4,53,156,141,146,102,-29
-14,0,14,7,-14,7,53,156,136,156,102,-24
-14,4,19,4,-17,12,43,156,131,161,102,-19
-14,19,34,-2,-24,26,43,156,131,165,102,-4
-9,14,24,-2,-17,19,48,156,136,180,107,4
-9,14,24,-2,-17,19,43,151,141,180,112,9
-4,14,19,-4,-12,17,43,151,151,190,126,19
0,19,19,-9,-9,19,39,151,156,190,131,29
4,14,9,-9,-2,12,34,156,156,204,146,39
4,19,14,-12,-4,17,29,156,156,209,161,48
4,29,24,-17,-9,26,24,156,156,214,165,63
4,34,29,-19,-12,31,19,156,156,219,170,73
4,53,48,-29,-21,51,9,141,146,214,175,73
14,53,39,-34,-12,46,4,136,141,214,190,82
19,58,39,-39,-9,48,-4,136,141,219,190,92
24,63,39,-43,-7,51,-9,126,141,224,195,102
24,78,53,-51,-14,65,-29,112,131,224,190,117
24,87,63,-56,-19,75,-34,107,131,224,200,126
24,102,78,-63,-26,90,-39,102,122,219,214,126
24,112,87,-68,-31,100,-53,97,122,214,224,136
29,112,82,-70,-26,97,-53,92,117,214,219,131
34,117,82,-75,-24,100,-58,87,112,214,224,141
34,117,82,-75,-24,100,-68,78,112,214,229,141
34,126,92,-80,-29,109,-68,73,107,214,234,151
39,131,92,-85,-26,112,-63,58,92,224,248,156
39,136,97,-87,-29,117,-73,53,87,224,253,156
39,136,97,-87,-29,117,-82,48,82,224,258,161
39,136,97,-87,-29,117,-87,39,82,219,258,161
29,146,117,-87,-43,131,-102,34,78,209,253,156
34,151,117,-92,-41,134,-107,19,68,209,253,161
34,151,117,-92,-41,134,-112,9,63,209,253,165
34,151,117,-92,-41,134,-112,9,58,204,253,165
29,141,112,-85,-41,126,-117,-4,53,204,258,161
29,141,112,-85,-41,126,-122,-4,48,195,258,165
29,141,112,-85,-41,126,-122,-4,43,195,258,165
29,141,112,-85,-41,126,-126,-9,39,185,258,165
29,141,112,-85,-41,126,-131,-24,24,185,258,156
29,141,112,-85,-41,126,-131,-34,24,175,258,151
29,141,112,-85,-41,126,-122,-34,24,175,253,151
29,136,107,-82,-39,122,-122,-34,24,170,248,146
24,126,102,-75,-39,114,-126,-24,24,165,234,122
24,117,92,-70,-34,104,-126,-19,24,165,224,117
24,117,92,-70,-34,104,-117,-19,24,165,219,112
19,102,82,-61,-31,92,-107,-19,24,165,209,102
9,82,73,-46,-31,78,-97,-14,34,156,214,97
9,78,68,-43,-29,73,-87,-14,39,156,209,87
-4,63,68,-29,-36,65,-82,-14,39,151,200,82
-4,48,53,-21,-29,51,-78,-4,39,146,195,73
-9,29,39,-9,-24,34,-73,-9,39,136,185,63
-14,24,39,-4,-26,31,-58,0,39,136,180,58
-19,9,29,4,-24,19,-53,0,43,136,175,48
-24,4,29,9,-26,17,-43,4,43,131,170,39
-29,-4,24,17,-26,9,-39,9,43,126,151,19
-34,-9,24,21,-29,7,-39,19,43,112,136,9
-34,-14,19,24,-26,2,-39,24,43,112,122,0
-34,-19,14,26,-24,-2,-39,24,43,97,107,-9
-39,-34,4,36,-21,-14,-24,19,48,102,112,-9
-43,-43,0,43,-21,-21,-19,19,53,97,102,-14
-48,-48,0,48,-24,-24,-9,29,58,92,92,-24
-53,-58,-4,56,-24,-31,-4,29,58,92,82,-24
-58,-73,-14,65,-21,-43,-9,39,53,82,73,-29
-63,-82,-19,73,-21,-51,-4,39,48,78,68,-34
-63,-92,-29,78,-17,-61,-4,34,43,73,63,-34
-68,-97,-29,82,-19,-63,-4,34,34,68,58,-39
-73,-87,-14,80,-29,-51,0,24,34,53,48,-53
-73,-87,-14,80,-29,-51,4,24,34,53,39,-63
-78,-92,-14,85,-31,-53,4,24,29,48,39,-68
-78,-92,-14,85,-31,-53,4,24,29,43,39,-73
-78,-92,-14,85,-31,-53,4,24,29,53,29,-68
-78,-92,-14,85,-31,-53,9,24,29,53,29,-73
-78,-87,-9,82,-34,-48,14,24,29,53,24,-73
-78,-87,-9,82,-34,-48,14,24,29,53,19,-73
-73,-97,-24,85,-24,-61,24,34,39,48,19,-63
-73,-102,-29,87,-21,-65,24,29,34,48,24,-68
-73,-107,-34,90,-19,-70,24,29,34,48,24,-68
-73,-112,-39,92,-17,-75,24,24,24,39,29,-68
-87,-117,-29,102,-29,-73,19,24,24,39,14,-78
-87,-117,-29,102,-29,-73,19,24,24,39,14,-78
-82,-117,-34,100,-24,-75,19,24,24,34,14,-78
-82,-117,-34,100,-24,-75,19,24,24,34,14,-78
-82,-107,-24,95,-29,-65,24,24,14,19,4,-92
-82,-107,-24,95,-29,-65,24,24,14,19,4,-92
-82,-107,-24,95,-29,-65,24,24,9,19,0,-92
-87,-107,-19,97,-34,-63,29,19,9,19,0,-92
-87,-107,-19,97,-34,-63,19,9,4,9,-4,-92
-87,-107,-19,97,-34,-63,19,9,4,4,-4,-92
-87,-107,-19,97,-34,-63,19,9,4,0,-4,-97
-82,-102,-19,92,-31,-61,19,9,4,0,0,-102
-82,-102,-19,92,-31,-61,19,19,-4,0,-9,-107
-82,-102,-19,92,-31,-61,19,19,-9,0,-9,-102
-82,-102,-19,92,-31,-61,19,19,-9,-4,-9,-102
-82,-102,-19,92,-31,-61,19,24,-9,-4,-14,-97
-73,-92,-19,82,-26,-56,29,14,-9,-9,-14,-97
-73,-92,-19,82,-26,-56,29,9,-9,-9,-14,-102
-73,-92,-19,82,-26,-56,29,9,-9,-4,-14,-102
-73,-87,-14,80,-29,-51,34,9,-9,-4,-14,-102
-73,-82,-9,78,-31,-46,34,19,0,4,-9,-92
-73,-82,-9,78,-31,-46,34,19,0,4,-9,-92
-73,-82,-9,78,-31,-46,34,24,0,4,-9,-92
-78,-82,-4,80,-36,-43,34,24,0,4,-9,-87
-78,-92,-14,85,-31,-53,34,24,0,-4,-9,-92
-73,-92,-19,82,-26,-56,34,24,-9,-4,-9,-92
-68,-92,-24,80,-21,-58,34,24,-9,-4,-9,-92
-63,-92,-29,78,-17,-61,34,24,-4,-4,-14,-92
-63,-92,-29,78,-17,-61,43,24,-4,-4,-14,-92
-63,-92,-29,78,-17,-61,43,24,-4,-4,-14,-92
-63,-92,-29,78,-17,-61,43,24,-4,-4,-14,-92
-63,-92,-29,78,-17,-61,43,24,-4,-4,-14,-92
-63,-82,-19,73,-21,-51,43,24,-4,-14,-14,-102
-63,-82,-19,73,-21,-51,43,24,-4,-14,-19,-102
-63,-82,-19,73,-21,-51,43,29,-4,-9,-24,-102
-63,-82,-19,73,-21,-51,43,29,0,-9,-29,-102
-58,-73,-14,65,-21,-43,48,29,0,0,-34,-102
-58,-73,-14,65,-21,-43,48,29,0,0,-34,-102
-58,-73,-14,65,-21,-43,48,29,0,0,-34,-97
-58,-73,-14,65,-21,-43,48,29,0,0,-29,-97
-58,-73,-14,65,-21,-43,48,29,4,-9,-24,-92
-58,-73,-14,65,-21,-43,48,29,4,-4,-24,-92
-63,-73,-9,68,-26,-41,48,29,4,-4,-24,-92
-63,-73,-9,68,-26,-41,48,29,4,-4,-24,-92
-53,-68,-14,61,-19,-41,48,29,-4,-4,-34,-92
-53,-68,-14,61,-19,-41,43,29,-4,-4,-34,-92
-53,-68,-14,61,-19,-41,43,29,-4,-4,-34,-87
-48,-68,-19,58,-14,-43,43,34,-4,-4,-34,-87
-48,-68,-19,58,-14,-43,43,34,0,4,-34,-97
-48,-68,-19,58,-14,-43,43,34,4,4,-34,-92
-48,-68,-19,58,-14,-43,43,34,9,9,-34,-92
-48,-68,-19,58,-14,-43,43,34,14,14,-34,-97
-48,-68,-19,58,-14,-43,43,39,4,14,-24,-97
-48,-68,-19,58,-14,-43,43,39,4,14,-24,-92
-48,-68,-19,58,-14,-43,43,34,9,14,-24,-92
-48,-68,-19,58,-14,-43,43,34,9,19,-24,-92
-48,-68,-19,58,-14,-43,34,24,9,4,-29,-92
-48,-63,-14,56,-17,-39,34,24,4,0,-29,-92
-48,-63,-14,56,-17,-39,34,24,0,-4,-29,-92
-48,-63,-14,56,-17,-39,34,24,-4,-9,-29,-92
-48,-68,-19,58,-14,-43,34,29,4,0,-29,-92
-48,-68,-19,58,-14,-43,34,29,0,0,-29,-92
-48,-68,-19,58,-14,-43,34,24,0,4,-24,-92
-48,-73,-24,61,-12,-48,34,24,4,4,-24,-92
-58,-73,-14,65,-21,-43,34,24,4,4,-34,-92
-58,-68,-9,63,-24,-39,34,24,4,4,-34,-97
-58,-68,-9,63,-24,-39,34,24,4,4,-34,-102
-58,-63,-4,61,-26,-34,34,24,4,4,-34,-102
-48,-73,-24,61,-12,-48,43,24,4,4,-24,-102
-48,-73,-24,61,-12,-48,43,24,4,4,-24,-102
-48,-78,-29,63,-9,-53,43,24,4,0,-24,-102
-48,-78,-29,63,-9,-53,39,24,0,0,-24,-102
-48,-78,-29,63,-9,-53,29,24,-9,-9,-34,-102
-53,-82,-29,68,-12,-56,29,24,-4,-9,-34,-107
-53,-82,-29,68,-12,-56,29,19,-4,-9,-34,-107
-48,-82,-34,65,-7,-58,29,19,-4,-9,-34,-107
-58,-68,-9,63,-24,-39,29,9,-14,-14,-34,-122
-58,-68,-9,63,-24,-39,24,9,-14,-14,-39,-122
-58,-63,-4,61,-26,-34,24,4,-14,-14,-48,-126
-58,-63,-4,61,-26,-34,29,4,-14,-14,-48,-126
-48,-68,-19,58,-14,-43,29,14,-19,-24,-53,-126
-48,-73,-24,61,-12,-48,24,9,-19,-24,-53,-126
-48,-78,-29,63,-9,-53,24,9,-19,-24,-53,-126
-48,-87,-39,68,-4,-63,24,9,-19,-24,-53,-122
-48,-78,-29,63,-9,-53,24,0,-14,-14,-43,-112
-48,-78,-29,63,-9,-53,24,0,-14,-19,-43,-112
-48,-78,-29,63,-9,-53,24,0,-19,-19,-43,-112
-53,-78,-24,65,-14,-51,24,0,-19,-19,-43,-112
-53,-73,-19,63,-17,-46,24,0,-29,-29,-43,-122
-48,-73,-24,61,-12,-48,24,-4,-29,-29,-43,-122
-48,-73,-24,61,-12,-48,24,-4,-29,-29,-48,-122
-48,-73,-24,61,-12,-48,24,-4,-29,-29,-48,-122
-58,-82,-24,70,-17,-53,24,-4,-24,-29,-48,-131
-58,-82,-24,70,-17,-53,24,0,-24,-29,-48,-131
-58,-82,-24,70,-17,-53,24,0,-24,-29,-48,-131
-58,-82,-24,70,-17,-53,19,-4,-24,-29,-48,-131
-58,-92,-34,75,-12,-63,19,-4,-24,-43,-48,-131
-58,-97,-39,78,-9,-68,19,-9,-29,-43,-43,-131
-58,-97,-39,78,-9,-68,19,-9,-34,-39,-43,-131
-58,-92,-34,75,-12,-63,19,-9,-43,-39,-48,-131
-68,-92,-24,80,-21,-58,9,-9,-43,-43,-48,-131
-68,-92,-24,80,-21,-58,9,-14,-43,-43,-48,-131
-68,-97,-29,82,-19,-63,9,-14,-48,-48,-48,-126
-68,-97,-29,82,-19,-63,9,-14,-53,-48,-43,-126
-68,-97,-29,82,-19,-63,19,-24,-53,-48,-43,-126
-68,-97,-29,82,-19,-63,19,-19,-53,-48,-43,-126
-68,-102,-34,85,-17,-68,19,-19,-48,-48,-48,-122
-68,-102,-34,85,-17,-68,19,-19,-48,-48,-48,-122
-68,-102,-34,85,-17,-68,9,-19,-39,-48,-48,-131
-68,-102,-34,85,-17,-68,9,-24,-39,-48,-48,-131
-68,-97,-29,82,-19,-63,9,-24,-43,-48,-48,-136
-73,-97,-24,85,-24,-61,9,-24,-48,-48,-48,-136
-73,-112,-39,92,-17,-75,19,-24,-53,-53,-48,-136
-73,-112,-39,92,-17,-75,19,-29,-53,-58,-53,-136
-68,-112,-43,90,-12,-78,19,-29,-58,-58,-53,-131
-68,-107,-39,87,-14,-73,19,-29,-63,-53,-48,-131
-78,-97,-19,87,-29,-58,9,-29,-58,-53,-48,-141
-78,-97,-19,87,-29,-58,9,-29,-58,-53,-48,-141
-82,-102,-19,92,-31,-61,4,-29,-58,-53,-48,-141
-87,-102,-14,95,-36,-58,4,-29,-53,-53,-48,-136
-87,-107,-19,97,-34,-63,14,-24,-58,-63,-58,-136
-87,-112,-24,100,-31,-68,14,-24,-58,-63,-58,-136
-87,-117,-29,102,-29,-73,14,-24,-63,-68,-58,-136
-82,-122,-39,102,-21,-80,14,-24,-68,-68,-63,-136
-82,-117,-34,100,-24,-75,14,-29,-68,-68,-63,-136
-82,-117,-34,100,-24,-75,14,-34,-68,-68,-58,-141
-82,-117,-34,100,-24,-75,14,-34,-68,-68,-58,-141
-82,-117,-34,100,-24,-75,14,-34,-68,-68,-58,-141
-82,-117,-34,100,-24,-75,4,-39,-68,-78,-68,-146
-82,-117,-34,100,-24,-75,4,-39,-78,-78,-68,-146
-82,-117,-34,100,-24,-75,4,-39,-78,-78,-68,-146
-82,-117,-34,100,-24,-75,4,-39,-73,-78,-68,-146
-82,-122,-39,102,-21,-80,4,-29,-68,-78,-68,-136
-82,-126,-43,104,-19,-85,4,-29,-68,-78,-68,-136
-82,-126,-43,104,-19,-85,4,-34,-73,-78,-68,-136
-82,-122,-39,102,-21,-80,4,-34,-73,-78,-68,-136
-87,-112,-24,100,-31,-68,4,-34,-73,-78,-68,-146
-87,-112,-24,100,-31,-68,4,-34,-73,-78,-68,-146
-87,-112,-24,100,-31,-68,0,-34,-73,-78,-68,-146
-82,-112,-29,97,-26,-70,0,-39,-73,-82,-68,-146
-82,-112,-29,97,-26,-70,0,-39,-78,-82,-68,-141
-82,-112,-29,97,-26,-70,0,-39,-78,-82,-68,-141
-87,-117,-29,102,-29,-73,0,-34,-78,-82,-68,-136
-87,-117,-29,102,-29,-73,4,-34,-78,-82,-68,-131
-87,-126,-39,107,-24,-82,9,-43,-87,-87,-73,-141
-87,-126,-39,107,-24,-82,9,-43,-82,-87,-78,-141
-92,-126,-34,109,-29,-80,9,-39,-82,-87,-82,-141
-92,-126,-34,109,-29,-80,4,-39,-82,-92,-87,-141
-92,-136,-43,114,-24,-90,4,-43,-87,-92,-87,-131
-97,-136,-39,117,-29,-87,4,-43,-87,-92,-87,-131
-97,-136,-39,117,-29,-87,4,-43,-82,-92,-87,-131
-97,-131,-34,114,-31,-82,4,-43,-82,-87,-87,-131
-97,-131,-34,114,-31,-82,4,-43,-82,-87,-97,-131
-97,-131,-34,114,-31,-82,4,-43,-82,-92,-97,-131
-102,-131,-29,117,-36,-80,4,-43,-82,-92,-97,-131
-102,-136,-34,119,-34,-85,4,-43,-82,-92,-97,-131
-97,-131,-34,114,-31,-82,-4,-39,-82,-97,-97,-141
-97,-131,-34,114,-31,-82,-4,-39,-82,-97,-97,-141
-97,-131,-34,114,-31,-82,-4,-39,-82,-102,-97,-141
-97,-131,-34,114,-31,-82,-4,-39,-82,-102,-97,-141
-102,-131,-29,117,-36,-80,-4,-43,-82,-92,-97,-141
-102,-131,-29,117,-36,-80,-4,-43,-82,-97,-97,-141
-102,-131,-29,117,-36,-80,-4,-43,-82,-97,-97,-141
-102,-131,-29,117,-36,-80,-4,-43,-82,-97,-102,-141
-112,-136,-24,124,-43,-80,4,-43,-92,-107,-102,-141
-107,-146,-39,126,-34,-92,4,-43,-92,-107,-102,-141
-107,-151,-43,129,-31,-97,4,-48,-92,-107,-102,-141
-107,-156,-48,131,-29,-102,4,-48,-97,-107,-102,-141
-107,-146,-39,126,-34,-92,-4,-43,-97,-117,-102,-151
-107,-146,-39,126,-34,-92,-4,-43,-92,-117,-102,-151
-107,-146,-39,126,-34,-92,-4,-43,-92,-112,-102,-151
-112,-146,-34,129,-39,-90,-4,-43,-92,-112,-97,-151
-112,-136,-24,124,-43,-80,-4,-43,-92,-102,-102,-151
-107,-136,-29,122,-39,-82,-4,-48,-92,-102,-107,-156
-107,-136,-29,122,-39,-82,-4,-48,-92,-102,-112,-156
-102,-141,-39,122,-31,-90,-4,-48,-92,-102,-117,-156
-112,-141,-29,126,-41,-85,-4,-48,-92,-107,-107,-151
-112,-141,-29,126,-41,-85,-4,-43,-92,-112,-112,-151
-107,-141,-34,124,-36,-87,-4,-43,-92,-117,-112,-151
-107,-136,-29,122,-39,-82,-4,-43,-92,-122,-112,-156
-117,-141,-24,129,-46,-82,-4,-43,-102,-122,-112,-146
-112,-146,-34,129,-39,-90,-4,-53,-97,-117,-117,-151
-107,-136,-29,122,-39,-82,-9,-58,-97,-107,-117,-156
-117,-146,-29,131,-43,-87,-9,-58,-97,-117,-117,-156
-117,-146,-29,131,-43,-87,-9,-58,-97,-117,-117,-156
-117,-146,-29,131,-43,-87,-9,-58,-97,-117,-117,-156
-117,-146,-29,131,-43,-87,-9,-58,-97,-117,-117,-156
-117,-156,-39,136,-39,-97,-9,-58,-107,-126,-126,-156
-117,-156,-39,136,-39,-97,-9,-58,-107,-126,-126,-156
-117,-156,-39,136,-39,-97,-9,-58,-107,-126,-126,-156
-117,-156,-39,136,-39,-97,-9,-58,-107,-126,-126,-156
-117,-156,-39,136,-39,-97,-9,-58,-107,-126,-117,-156
-117,-156,-39,136,-39,-97,-9,-58,-107,-126,-117,-156
-117,-156,-39,136,-39,-97,-9,-58,-107,-126,-117,-156
-117,-156,-39,136,-39,-97,-9,-58,-107,-126,-117,-156
-126,-165,-39,146,-43,-102,0,-48,-107,-126,-117,-146
-126,-165,-39,146,-43,-102,0,-48,-107,-126,-117,-146
-126,-165,-39,146,-43,-102,0,-48,-107,-126,-117,-146
-126,-165,-39,146,-43,-102,0,-48,-107,-126,-117,-146
-126,-161,-34,143,-46,-97,-4,-53,-112,-136,-122,-156
-126,-156,-29,141,-48,-92,-9,-58,-117,-136,-126,-156
-126,-151,-24,139,-51,-87,-14,-63,-122,-136,-131,-156
-126,-146,-19,136,-53,-82,-19,-68,-126,-136,-136,-156
-126,-136,-9,131,-58,-73,-9,-58,-122,-136,-126,-146
-126,-136,-9,131,-58,-73,-9,-58,-117,-136,-126,-146
-126,-136,-9,131,-58,-73,-9,-58,-112,-136,-126,-146
-126,-131,-4,129,-61,-68,-9,-58,-102,-136,-122,-146
-136,-136,0,136,-68,-68,0,-53,-97,-122,-112,-131
-136,-131,4,134,-70,-63,4,-48,-92,-117,-107,-131
-136,-126,9,131,-73,-58,19,-43,-87,-112,-107,-131
-136,-126,9,131,-73,-58,24,-39,-82,-112,-107,-131
-136,-117,19,126,-78,-48,24,-43,-82,-117,-117,-131
-136,-117,19,126,-78,-48,19,-43,-87,-122,-117,-131
-136,-122,14,129,-75,-53,14,-39,-92,-126,-117,-131
-136,-122,14,129,-75,-53,9,-39,-97,-131,-117,-136
-136,-122,14,129,-75,-53,19,-43,-97,-131,-122,-146
-136,-112,24,124,-80,-43,19,-43,-97,-131,-126,-146
-136,-112,24,124,-80,-43,19,-43,-92,-126,-131,-141
-136,-102,34,119,-85,-34,14,-43,-92,-126,-131,-141
-136,-97,39,117,-87,-29,14,-53,-92,-117,-131,-151
-136,-97,39,117,-87,-29,9,-58,-92,-117,-131,-151
-141,-97,43,119,-92,-26,0,-58,-92,-117,-131,-151
-141,-97,43,119,-92,-26,-14,-63,-97,-117,-126,-151
-136,-107,29,122,-82,-39,-24,-63,-97,-126,-112,-141
-131,-112,19,122,-75,-46,-34,-68,-97,-126,-112,-136
-122,-112,9,117,-65,-51,-48,-73,-97,-126,-112,-131
-122,-112,9,117,-65,-51,-53,-78,-102,-126,-112,-126
-117,-112,4,114,-61,-53,-68,-92,-92,-117,-102,-122
-117,-112,4,114,-61,-53,-73,-92,-92,-117,-102,-122
-117,-112,4,114,-61,-53,-73,-87,-92,-117,-102,-126
-107,-112,-4,109,-51,-58,-73,-87,-97,-117,-102,-126
-126,-112,14,119,-70,-48,-82,-87,-107,-136,-112,-131
-126,-112,14,119,-70,-48,-82,-92,-122,-141,-117,-131
-126,-112,14,119,-70,-48,-82,-102,-126,-141,-122,-131
-126,-126,0,126,-63,-63,-82,-107,-126,-146,-131,-136
-126,-131,-4,129,-61,-68,-82,-107,-136,-156,-141,-151
-126,-136,-9,131,-58,-73,-87,-112,-146,-161,-146,-161
-126,-136,-9,131,-58,-73,-87,-112,-151,-165,-146,-161
-126,-131,-4,129,-61,-68,-82,-112,-151,-165,-146,-156
-126,-141,-14,134,-56,-78,-78,-107,-156,-161,-136,-141
-126,-146,-19,136,-53,-82,-78,-102,-151,-161,-136,-141
-126,-146,-19,136,-53,-82,-78,-102,-146,-156,-136,-141
-141,-151,-9,146,-65,-80,-63,-97,-146,-156,-131,-136
-141,-146,-4,143,-68,-75,-58,-87,-136,-165,-136,-146
-151,-146,4,148,-78,-70,-58,-87,-136,-165,-141,-146
-151,-156,-4,153,-73,-80,-58,-92,-136,-165,-151,-156
-151,-156,-4,153,-73,-80,-58,-92,-141,-165,-161,-161
-161,-170,-9,165,-75,-90,-53,-92,-146,-165,-161,-156
-161,-175,-14,168,-73,-95,-43,-92,-146,-165,-170,-161
-161,-185,-24,173,-68,-104,-39,-87,-146,-165,-175,-161
-165,-190,-24,178,-70,-107,-29,-87,-151,-175,-180,-165
-165,-195,-29,180,-68,-112,-39,-97,-161,-185,-180,-180
-170,-204,-34,187,-68,-119,-39,-97,-161,-185,-180,-185
-170,-209,-39,190,-65,-124,-39,-97,-165,-185,-180,-185
-170,-219,-48,195,-61,-134,-39,-102,-165,-190,-180,-185
-180,-219,-39,200,-70,-129,-39,-102,-165,-190,-195,-185
-175,-219,-43,197,-65,-131,-39,-102,-165,-190,-195,-185
-175,-219,-43,197,-65,-131,-34,-102,-165,-190,-195,-190
-175,-219,-43,197,-65,-131,-34,-102,-165,-190,-195,-190
-175,-234,-58,204,-58,-146,-29,-97,-156,-180,-185,-190
-175,-234,-58,204,-58,-146,-29,-97,-156,-180,-185,-190
-180,-234,-53,207,-63,-143,-29,-92,-156,-180,-185,-190
-180,-239,-58,209,-61,-148,-24,-92,-156,-180,-185,-190
-180,-239,-58,209,-61,-148,-24,-82,-165,-185,-195,-180
-190,-248,-58,219,-65,-153,-24,-82,-165,-190,-200,-185
-190,-248,-58,219,-65,-153,-24,-82,-165,-195,-200,-190
-190,-248,-58,219,-65,-153,-19,-82,-165,-204,-204,-195
-190,-248,-58,219,-65,-153,-29,-82,-161,-195,-214,-200
-185,-248,-63,217,-61,-156,-34,-82,-161,-195,-214,-204
-185,-248,-63,217,-61,-156,-34,-82,-170,-195,-214,-209
-185,-253,-68,219,-58,-161,-34,-82,-170,-195,-214,-214
-185,-253,-68,219,-58,-161,-19,-82,-170,-209,-214,-214
-190,-253,-63,222,-63,-158,-19,-82,-170,-209,-219,-209
-190,-253,-63,222,-63,-158,-19,-82,-170,-209,-219,-204
-190,-253,-63,222,-63,-158,-19,-78,-170,-209,-219,-200
-190,-263,-73,226,-58,-168,-19,-78,-165,-209,-219,-209
-190,-263,-73,226,-58,-168,-19,-78,-165,-209,-219,-214
-190,-263,-73,226,-58,-168,-19,-78,-165,-209,-219,-219
-190,-263,-73,226,-58,-168,-19,-78,-165,-209,-219,-219
-190,-263,-73,226,-58,-168,-19,-78,-170,-204,-209,-204
-200,-268,-68,234,-65,-168,-19,-78,-170,-204,-209,-209
-200,-268,-68,234,-65,-168,-19,-78,-170,-204,-209,-204
-190,-268,-78,229,-56,-173,-19,-78,-170,-204,-209,-200
-190,-268,-78,229,-56,-173,-19,-87,-161,-204,-209,-204
-190,-273,-82,231,-53,-178,-19,-73,-156,-209,-219,-214
-200,-278,-78,239,-61,-178,-4,-63,-161,-209,-234,-229
-219,-287,-68,253,-75,-178,19,-24,-141,-224,-263,-244
-224,-307,-82,265,-70,-195,68,29,-117,-234,-297,-278
-229,-331,-102,280,-63,-217,107,82,-73,-234,-331,-317
-229,-341,-112,285,-58,-226,117,92,-48,-219,-331,-331
-219,-322,-102,270,-58,-212,107,97,-9,-170,-312,-322
-204,-312,-107,258,-48,-209,97,136,82,-78,-268,-302
-195,-297,-102,246,-46,-200,107,209,209,43,-180,-258
-170,-234,-63,202,-53,-148,126,287,351,200,-63,-180
-136,-146,-9,141,-63,-78,97,322,458,385,73,-82
-87,-43,43,65,-65,0,48,302,575,619,263,29
-29,68,97,-19,-63,82,-14,248,722,936,488,170
29,175,146,-102,-58,161,-122,165,888,1312,756,331
112,268,156,-190,-21,212,-253,73,990,1634,1005,497
161,322,161,-241,0,241,-356,-58,912,1654,1117,614
151,287,136,-219,7,212,-395,-209,614,1283,1015,619
141,248,107,-195,17,178,-439,-424,234,805,829,575
112,224,112,-168,0,168,-527,-697,-136,458,668,536
48,204,156,-126,-53,180,-580,-966,-546,87,512,483
-39,165,204,-63,-122,185,-600,-1205,-1010,-380,292,405
-151,165,317,-7,-234,241,-629,-1429,-1346,-756,102,322
-229,180,409,24,-319,295,-683,-1576,-1527,-976,-34,258
-258,204,463,26,-361,334,-712,-1615,-1561,-1063,-131,204
-292,219,512,36,-402,366,-751,-1590,-1483,-1054,-195,161
-297,200,497,48,-397,348,-746,-1527,-1385,-980,-219,122
-287,161,448,63,-368,305,-712,-1444,-1298,-936,-253,63
-283,126,409,78,-346,268,-697,-1332,-1195,-883,-278,9
-263,107,370,78,-317,239,-678,-1190,-1088,-814,-278,-14
-263,48,312,107,-287,180,-614,-1029,-985,-741,-278,-53
-268,-4,263,136,-265,129,-512,-854,-868,-663,-283,-97
-253,-34,219,143,-236,92,-429,-707,-746,-585,-273,-107
-253,-73,180,163,-217,53,-380,-610,-663,-541,-253,-122
-253,-102,151,178,-202,24,-331,-531,-590,-502,-258,-151
-244,-117,126,180,-185,4,-278,-468,-512,-458,-263,-175
-258,-131,126,195,-192,-2,-248,-429,-458,-434,-258,-180
-248,-146,102,197,-175,-21,-224,-390,-429,-409,-258,-180
-229,-146,82,187,-156,-31,-195,-336,-390,-375,-263,-185
-224,-180,43,202,-134,-68,-161,-273,-351,-351,-263,-200
-224,-204,19,214,-122,-92,-122,-214,-317,-326,-258,-204
-219,-219,0,219,-109,-109,-92,-170,-292,-302,-253,-214
-219,-244,-24,231,-97,-134,-73,-141,-253,-292,-244,-214
-214,-244,-29,229,-92,-136,-63,-136,-239,-278,-244,-214
-224,-244,-19,234,-102,-131,-63,-136,-224,-273,-234,-204
-214,-234,-19,224,-97,-126,-58,-141,-219,-258,-229,-200
-200,-224,-24,212,-87,-124,-43,-126,-204,-248,-229,-204
-204,-229,-24,217,-90,-126,-39,-97,-195,-234,-234,-204
-204,-248,-43,226,-80,-146,-19,-68,-175,-224,-234,-214
-204,-258,-53,231,-75,-156,-9,-58,-175,-234,-234,-209
-200,-258,-58,229,-70,-158,-14,-58,-185,-244,-244,-209
-200,-263,-63,231,-68,-163,-14,-53,-175,-239,-239,-209
-200,-263,-63,231,-68,-163,-14,-58,-170,-234,-234,-209
-200,-253,-53,226,-73,-153,-19,-63,-165,-229,-229,-209
-195,-263,-68,229,-63,-165,-9,-53,-156,-214,-219,-209
-195,-263,-68,229,-63,-165,-4,-48,-156,-214,-219,-209
-195,-268,-73,231,-61,-170,0,-48,-151,-214,-224,-209
-195,-268,-73,231,-61,-170,4,-39,-151,-214,-224,-214
-200,-287,-87,244,-56,-187,-4,-43,-161,-219,-234,-224
-200,-287,-87,244,-56,-187,-4,-43,-161,-219,-234,-224
-200,-283,-82,241,-58,-183,-4,-39,-156,-214,-229,-219
-200,-278,-78,239,-61,-178,-4,-39,-156,-209,-229,-219
-200,-278,-78,239,-61,-178,-4,-29,-146,-209,-229,-219
-200,-278,-78,239,-61,-178,-4,-29,-141,-209,-229,-214
-200,-287,-87,244,-56,-187,0,-29,-141,-209,-234,-214
-200,-287,-87,244,-56,-187,0,-24,-141,-209,-234,-214
-200,-283,-82,241,-58,-183,4,-34,-141,-209,-229,-204
-204,-278,-73,241,-65,-175,4,-34,-141,-209,-229,-204
-204,-273,-68,239,-68,-170,4,-34,-136,-204,-229,-204
-204,-268,-63,236,-70,-165,0,-34,-136,-204,-229,-209
-204,-278,-73,241,-65,-175,0,-29,-141,-200,-224,-209
-204,-273,-68,239,-68,-170,0,-29,-141,-200,-224,-214
-204,-273,-68,239,-68,-170,0,-29,-136,-200,-224,-214
-204,-273,-68,239,-68,-170,0,-24,-136,-195,-224,-214
-204,-268,-63,236,-70,-165,4,-24,-136,-204,-224,-209
-204,-268,-63,236,-70,-165,4,-19,-136,-204,-219,-204
-204,-268,-63,236,-70,-165,4,-19,-131,-195,-219,-209
-204,-268,-63,236,-70,-165,0,-19,-131,-195,-219,-204
-200,-258,-58,229,-70,-158,0,-29,-141,-195,-209,-204
-200,-258,-58,229,-70,-158,0,-29,-141,-195,-209,-204
-195,-253,-58,224,-68,-156,0,-29,-141,-195,-209,-200
-195,-253,-58,224,-68,-156,0,-29,-141,-195,-214,-195
-195,-263,-68,229,-63,-165,0,-19,-131,-195,-214,-204
-195,-263,-68,229,-63,-165,0,-19,-131,-195,-209,-195
-195,-263,-68,229,-63,-165,0,-14,-131,-190,-204,-190
-195,-263,-68,229,-63,-165,0,-14,-126,-190,-204,-190
-195,-263,-68,229,-63,-165,0,-14,-126,-185,-195,-185
-195,-263,-68,229,-63,-165,0,-14,-126,-185,-195,-175
-190,-258,-68,224,-61,-163,-4,-14,-126,-185,-195,-170
-190,-258,-68,224,-61,-163,-4,-14,-126,-185,-195,-170
-190,-239,-48,214,-70,-143,-4,-14,-126,-185,-195,-161
-190,-239,-48,214,-70,-143,-4,-9,-126,-185,-195,-161
-190,-244,-53,217,-68,-148,-4,-9,-126,-185,-195,-156
-190,-244,-53,217,-68,-148,-4,-9,-126,-180,-190,-151
-180,-229,-48,204,-65,-139,-4,-9,-117,-180,-190,-151
-180,-229,-48,204,-65,-139,-4,-4,-117,-180,-185,-156
-180,-229,-48,204,-65,-139,-4,-4,-112,-175,-185,-156
-180,-229,-48,204,-65,-139,-4,0,-112,-170,-185,-156
-161,-234,-73,197,-43,-153,4,0,-102,-161,-175,-146
-161,-234,-73,197,-43,-153,4,0,-102,-161,-175,-146
-165,-234,-68,200,-48,-151,4,0,-102,-161,-170,-136
-165,-234,-68,200,-48,-151,4,4,-97,-156,-170,-136
-156,-214,-58,185,-48,-136,-4,-4,-107,-165,-170,-141
-156,-214,-58,185,-48,-136,-4,0,-107,-165,-165,-141
-151,-209,-58,180,-46,-134,-4,0,-97,-156,-165,-141
-146,-209,-63,178,-41,-136,-4,4,-97,-156,-165,-141
-146,-209,-63,178,-41,-136,-4,14,-97,-146,-165,-141
-146,-209,-63,178,-41,-136,-4,19,-92,-141,-161,-141
-146,-204,-58,175,-43,-131,-4,19,-92,-141,-156,-141
-146,-195,-48,170,-48,-122,-4,24,-92,-141,-156,-141
-136,-185,-48,161,-43,-117,-4,14,-87,-136,-146,-136
-136,-185,-48,161,-43,-117,-4,19,-82,-131,-141,-136
-136,-180,-43,158,-46,-112,-4,19,-82,-131,-136,-131
-136,-170,-34,153,-51,-102,-4,19,-82,-131,-126,-126
-126,-170,-43,148,-41,-107,-4,34,-82,-122,-136,-117
-126,-165,-39,146,-43,-102,-9,39,-78,-117,-126,-112
-117,-165,-48,141,-34,-107,-9,39,-73,-117,-122,-112
-126,-156,-29,141,-48,-92,-9,39,-68,-112,-122,-112
-117,-146,-29,131,-43,-87,-19,34,-78,-117,-117,-97
-112,-146,-34,129,-39,-90,-19,34,-78,-117,-117,-97
-112,-146,-34,129,-39,-90,-19,39,-73,-112,-112,-92
-107,-136,-29,122,-39,-82,-19,39,-73,-107,-112,-92
-107,-122,-14,114,-46,-68,-19,29,-68,-107,-122,-87
-102,-122,-19,112,-41,-70,-24,34,-68,-102,-112,-78
-102,-117,-14,109,-43,-65,-24,34,-63,-97,-107,-73
-102,-112,-9,107,-46,-61,-29,34,-63,-97,-102,-73
-97,-107,-9,102,-43,-58,-24,48,-48,-87,-92,-63
-92,-97,-4,95,-43,-51,-24,48,-48,-78,-82,-53
-92,-97,-4,95,-43,-51,-34,48,-48,-73,-73,-43
-92,-87,4,90,-48,-41,-34,48,-43,-68,-63,-24
-78,-78,0,78,-39,-39,-39,58,-43,-63,-48,-4
-78,-73,4,75,-41,-34,-43,53,-43,-63,-43,0
-73,-68,4,70,-39,-31,-43,53,-39,-53,-29,9
-68,-58,9,63,-39,-24,-48,53,-39,-53,-24,19
-53,-43,9,48,-31,-17,-53,39,-48,-58,-29,14
-53,-39,14,46,-34,-12,-58,39,-48,-53,-14,19
-53,-29,24,41,-39,-2,-63,39,-48,-48,-9,29
-53,-24,29,39,-41,2,-68,39,-48,-43,-4,34
-63,-4,58,34,-61,26,-78,34,-58,-48,0,43
-53,-4,48,29,-51,21,-82,29,-63,-48,14,53
-48,0,48,24,-48,24,-92,29,-63,-43,14,63
-43,4,48,19,-46,26,-97,19,-63,-39,19,73
-39,19,58,9,-48,39,-107,24,-63,-34,24,68
-34,29,63,2,-48,46,-112,19,-63,-29,34,78
-29,43,73,-7,-51,58,-117,14,-73,-29,48,78
-24,53,78,-14,-51,65,-131,9,-73,-29,58,87
-9,63,73,-26,-41,68,-131,-4,-87,-29,63,97
-4,68,73,-31,-39,70,-136,-9,-92,-29,68,112
-4,68,73,-31,-39,70,-146,-19,-92,-29,73,117
-4,78,82,-36,-43,80,-146,-24,-97,-29,78,131
-9,78,87,-34,-48,82,-141,-29,-102,-29,82,136
-9,78,87,-34,-48,82,-151,-34,-107,-29,87,136
-9,73,82,-31,-46,78,-161,-39,-112,-29,92,141
-9,68,78,-29,-43,73,-165,-48,-112,-34,92,141
0,87,87,-43,-43,87,-170,-53,-126,-43,97,146
4,92,87,-48,-41,90,-175,-68,-136,-43,97,151
4,92,87,-48,-41,90,-180,-78,-141,-43,97,156
4,92,87,-48,-41,90,-180,-78,-146,-48,97,156
-9,102,112,-46,-61,107,-175,-92,-161,-48,92,151
-9,102,112,-46,-61,107,-180,-92,-165,-58,92,156
-9,102,112,-46,-61,107,-180,-92,-170,-58,92,156
-9,102,112,-46,-61,107,-185,-97,-175,-68,92,156
0,112,112,-56,-56,112,-190,-102,-180,-68,102,165
0,112,112,-56,-56,112,-190,-112,-180,-78,102,161
0,112,112,-56,-56,112,-180,-112,-180,-78,97,161
0,107,107,-53,-53,107,-180,-112,-180,-82,92,156
4,97,92,-51,-43,95,-165,-112,-180,-87,87,141
4,87,82,-46,-39,85,-165,-107,-180,-87,78,136
4,87,82,-46,-39,85,-156,-107,-180,-87,73,131
0,73,73,-36,-36,73,-146,-107,-180,-87,63,122
0,73,73,-36,-36,73,-146,-92,-175,-87,68,117
0,68,68,-34,-34,68,-136,-92,-165,-87,63,107
-14,53,68,-19,-41,61,-131,-92,-161,-92,53,102
-14,39,53,-12,-34,46,-126,-82,-156,-97,48,92
-9,29,39,-9,-24,34,-117,-68,-146,-97,39,92
-14,24,39,-4,-26,31,-97,-58,-146,-97,34,87
-19,9,29,4,-24,19,-87,-58,-141,-97,29,78
-24,4,29,9,-26,17,-73,-53,-141,-102,24,68
-29,0,29,14,-29,14,-63,-39,-126,-92,9,58
-34,-9,24,21,-29,7,-58,-29,-122,-102,0,48
-34,-19,14,26,-24,-2,-53,-24,-117,-97,-9,39
-34,-29,4,31,-19,-12,-48,-24,-112,-107,-19,29
-29,-24,4,26,-17,-9,-43,-19,-107,-102,-24,19
-34,-34,0,34,-17,-17,-39,-19,-102,-107,-34,14
-39,-39,0,39,-19,-19,-29,-9,-97,-112,-43,4
-43,-48,-4,46,-19,-26,-24,-9,-97,-112,-53,4
-39,-43,-4,41,-17,-24,-19,-9,-97,-112,-53,0
-43,-53,-9,48,-17,-31,-14,-9,-97,-117,-58,-4
-43,-63,-19,53,-12,-41,-14,-14,-97,-122,-63,-4
-48,-68,-19,58,-14,-43,-14,-14,-102,-126,-68,-9
-43,-68,-24,56,-9,-46,0,-9,-97,-122,-68,-19
-43,-68,-24,56,-9,-46,4,-4,-92,-122,-78,-24
-48,-73,-24,61,-12,-48,4,0,-92,-126,-78,-24
-48,-73,-24,61,-12,-48,4,4,-87,-131,-78,-24
-58,-87,-29,73,-14,-58,4,4,-78,-122,-78,-19
-58,-92,-34,75,-12,-63,9,4,-78,-122,-78,-24
-58,-92,-34,75,-12,-63,14,4,-78,-122,-82,-24
-58,-97,-39,78,-9,-68,14,4,-78,-122,-87,-24
-53,-97,-43,75,-4,-70,14,4,-78,-126,-92,-34
-53,-92,-39,73,-7,-65,14,0,-82,-126,-92,-39
-53,-87,-34,70,-9,-61,14,0,-82,-126,-97,-39
-53,-82,-29,68,-12,-56,14,-4,-92,-136,-97,-39
-58,-87,-29,73,-14,-58,19,4,-82,-136,-102,-39
-58,-87,-29,73,-14,-58,19,4,-82,-136,-102,-39
-53,-87,-34,70,-9,-61,19,4,-82,-141,-102,-39
-53,-87,-34,70,-9,-61,19,4,-82,-141,-102,-39
-53,-87,-34,70,-9,-61,24,4,-82,-146,-102,-43
-53,-87,-34,70,-9,-61,24,4,-82,-146,-102,-43
-53,-87,-34,70,-9,-61,24,4,-87,-146,-107,-43
-58,-87,-29,73,-14,-58,29,0,-87,-146,-107,-43
-58,-87,-29,73,-14,-58,29,9,-82,-136,-112,-43
-58,-87,-29,73,-14,-58,29,9,-82,-141,-112,-43
-58,-87,-29,73,-14,-58,29,9,-82,-146,-112,-48
-53,-82,-29,68,-12,-56,29,9,-82,-146,-107,-53
-43,-73,-29,58,-7,-51,39,0,-82,-146,-107,-58
-43,-73,-29,58,-7,-51,39,0,-87,-146,-107,-53
-43,-73,-29,58,-7,-51,39,0,-87,-151,-107,-53
-43,-73,-29,58,-7,-51,39,4,-87,-151,-112,-48
-43,-63,-19,53,-12,-41,29,14,-97,-156,-112,-58
-43,-63,-19,53,-12,-41,29,9,-97,-156,-112,-63
-43,-63,-19,53,-12,-41,29,9,-97,-151,-112,-63
-43,-58,-14,51,-14,-36,34,9,-97,-151,-112,-63
-43,-63,-19,53,-12,-41,43,9,-87,-151,-107,-63
-43,-63,-19,53,-12,-41,43,9,-87,-151,-107,-63
-43,-63,-19,53,-12,-41,43,14,-87,-151,-107,-63
-48,-63,-14,56,-17,-39,43,14,-87,-151,-107,-58
-43,-53,-9,48,-17,-31,43,14,-82,-141,-97,-43
-43,-53,-9,48,-17,-31,43,14,-87,-141,-97,-43
-43,-53,-9,48,-17,-31,43,14,-82,-141,-97,-43
-43,-53,-9,48,-17,-31,43,14,-73,-141,-102,-43
-43,-63,-19,53,-12,-41,53,24,-73,-131,-92,-39
-43,-63,-19,53,-12,-41,53,24,-73,-131,-92,-34
-43,-63,-19,53,-12,-41,53,24,-73,-131,-92,-29
-43,-63,-19,53,-12,-41,53,24,-73,-131,-92,-24
-34,-58,-24,46,-4,-41,43,24,-73,-131,-97,-24
-34,-53,-19,43,-7,-36,43,24,-73,-131,-97,-24
-34,-48,-14,41,-9,-31,43,29,-73,-126,-97,-24
-34,-43,-9,39,-12,-26,43,29,-68,-126,-97,-24
-39,-43,-4,41,-17,-24,48,29,-58,-117,-97,-24
-39,-43,-4,41,-17,-24,48,29,-58,-117,-92,-24
-39,-43,-4,41,-17,-24,48,29,-58,-117,-87,-19
-39,-43,-4,41,-17,-24,48,29,-58,-117,-78,-19
-39,-53,-14,46,-12,-34,48,39,-53,-117,-73,-14
-39,-53,-14,46,-12,-34,48,39,-53,-112,-73,-14
-43,-53,-9,48,-17,-31,48,39,-53,-112,-73,-14
-43,-53,-9,48,-17,-31,48,39,-53,-112,-73,-14
-34,-39,-4,36,-14,-21,48,39,-43,-102,-73,-24
-34,-39,-4,36,-14,-21,43,39,-43,-102,-73,-24
-34,-39,-4,36,-14,-21,43,39,-43,-102,-73,-19
-29,-39,-9,34,-9,-24,43,43,-43,-102,-73,-19
-19,-39,-19,29,0,-29,43,43,-34,-92,-73,-9
-19,-39,-19,29,0,-29,43,43,-34,-92,-73,-4
-19,-39,-19,29,0,-29,43,43,-34,-87,-73,-4
-19,-39,-19,29,0,-29,43,43,-34,-82,-73,-9
-19,-29,-9,24,-4,-19,43,48,-34,-82,-73,-9
-19,-29,-9,24,-4,-19,43,48,-34,-82,-73,-4
-19,-29,-9,24,-4,-19,43,43,-29,-82,-73,-4
-19,-29,-9,24,-4,-19,43,43,-29,-78,-73,-4
-19,-39,-19,29,0,-29,43,43,-24,-78,-68,4
-19,-34,-14,26,-2,-24,43,43,-24,-78,-68,4
-19,-34,-14,26,-2,-24,43,43,-24,-78,-68,4
-19,-34,-14,26,-2,-24,43,43,-24,-78,-68,4
-19,-29,-9,24,-4,-19,43,48,-24,-78,-68,-4
-19,-29,-9,24,-4,-19,43,48,-29,-78,-68,-4
-19,-29,-9,24,-4,-19,43,43,-29,-73,-63,-4
-19,-34,-14,26,-2,-24,43,43,-24,-73,-63,-4
-9,-34,-24,21,7,-29,43,43,-14,-63,-63,-4
-9,-29,-19,19,4,-24,43,43,-14,-63,-63,-9
-9,-29,-19,19,4,-24,43,43,-14,-63,-63,-14
-9,-24,-14,17,2,-19,43,43,-14,-63,-63,-14
-9,-24,-14,17,2,-19,43,53,-24,-63,-63,-14
-9,-24,-14,17,2,-19,43,53,-24,-63,-63,-14
-9,-29,-19,19,4,-24,43,53,-24,-68,-63,-14
-9,-29,-19,19,4,-24,39,53,-29,-68,-63,-14
0,-19,-19,9,9,-19,48,43,-29,-68,-63,-14
-4,-24,-19,14,7,-21,48,43,-24,-68,-63,-19
-4,-24,-19,14,7,-21,48,39,-24,-68,-63,-19
0,-24,-24,12,12,-24,48,39,-24,-68,-63,-19
-9,-19,-9,14,0,-14,48,48,-24,-63,-53,-14
