I,II,III,aVR,aVL,aVF,V1,V2,V3,V4,V5,V6
97,9,-87,-53,92,-39,-9,19,-87,-78,29,165
97,9,-87,-53,92,-39,-9,19,-87,-78,29,165
97,9,-87,-53,92,-39,-9,19,-87,-78,29,165
97,9,-87,-53,92,-39,-9,19,-87,-78,29,165
97,-4,-102,-46,100,-53,0,29,-82,-78,29,175
97,-9,-107,-43,102,-58,0,29,-78,-78,29,175
97,-14,-112,-41,104,-63,0,29,-73,-78,29,175
97,-19,-117,-39,107,-68,0,29,-68,-78,29,175
87,-19,-107,-34,97,-63,0,29,-68,-78,29,170
87,-19,-107,-34,97,-63,0,29,-68,-78,29,165
87,-19,-107,-34,97,-63,0,29,-68,-78,29,161
87,-19,-107,-34,97,-63,0,29,-68,-78,29,156
97,-14,-112,-41,104,-63,-9,29,-58,-68,19,146
97,-9,-107,-43,102,-58,-9,29,-58,-68,19,146
97,-4,-102,-46,100,-53,-9,29,-58,-68,19,146
97,0,-97,-48,97,-48,-9,29,-58,-68,19,146
97,-9,-107,-43,102,-58,0,39,-53,-58,29,151
97,-9,-107,-43,102,-58,0,39,-48,-58,29,156
97,-9,-107,-43,102,-58,0,39,-43,-58,29,161
97,-9,-107,-43,102,-58,0,39,-39,-58,29,165
87,-19,-107,-34,97,-63,-9,48,-29,-58,24,151
87,-19,-107,-34,97,-63,-9,48,-29,-58,19,146
87,-19,-107,-34,97,-63,-9,48,-29,-58,14,141
87,-19,-107,-34,97,-63,-9,48,-29,-58,9,136
97,-19,-117,-39,107,-68,0,58,-19,-53,19,146
97,-19,-117,-39,107,-68,0,58,-19,-48,19,146
97,-19,-117,-39,107,-68,0,58,-19,-43,19,146
97,-19,-117,-39,107,-68,0,58,-19,-39,19,146
97,-29,-126,-34,112,-78,0,68,-9,-39,19,141
97,-29,-126,-34,112,-78,0,68,-9,-39,19,136
97,-29,-126,-34,112,-78,0,68,-9,-39,19,131
97,-29,-126,-34,112,-78,0,68,-9,-39,19,126
87,-24,-112,-31,100,-68,0,68,-9,-29,14,117
87,-19,-107,-34,97,-63,0,68,-9,-29,9,117
87,-14,-102,-36,95,-58,0,68,-9,-29,4,117
87,-9,-97,-39,92,-53,0,68,-9,-29,0,117
87,-14,-102,-36,95,-58,0,68,0,-19,4,117
87,-19,-107,-34,97,-63,0,68,0,-19,9,117
87,-24,-112,-31,100,-68,0,68,0,-19,14,117
87,-29,-117,-29,102,-73,0,68,0,-19,19,117
78,-14,-92,-31,85,-53,-4,68,0,-29,19,117
78,-9,-87,-34,82,-48,-9,68,0,-29,19,117
78,-4,-82,-36,80,-43,-14,68,0,-29,19,117
78,0,-78,-39,78,-39,-19,68,0,-29,19,117
82,-14,-97,-34,90,-56,-9,78,9,-24,29,126
87,-19,-107,-34,97,-63,-9,78,9,-19,29,126
92,-24,-117,-34,104,-70,-9,78,9,-14,29,126
97,-29,-126,-34,112,-78,-9,78,9,-9,29,126
87,-29,-117,-29,102,-73,-19,68,4,-14,19,117
87,-29,-117,-29,102,-73,-19,68,0,-19,19,117
87,-29,-117,-29,102,-73,-19,68,-4,-24,19,117
87,-29,-117,-29,102,-73,-19,68,-9,-29,19,117
87,-24,-112,-31,100,-68,-19,68,0,-24,29,117
87,-19,-107,-34,97,-63,-19,68,0,-19,29,117
87,-14,-102,-36,95,-58,-19,68,0,-14,29,117
87,-9,-97,-39,92,-53,-19,68,0,-9,29,117
78,-24,-102,-26,90,-63,-9,78,0,-9,39,122
78,-29,-107,-24,92,-68,-9,78,0,-9,39,126
78,-34,-112,-21,95,-73,-9,78,0,-9,39,131
78,-39,-117,-19,97,-78,-9,78,0,-9,39,136
78,-29,-107,-24,92,-68,-14,73,-14,-24,34,131
78,-19,-97,-29,87,-58,-19,68,-19,-29,29,126
78,-9,-87,-34,82,-48,-24,63,-24,-34,24,122
78,0,-78,-39,78,-39,-29,58,-29,-39,19,117
78,-14,-92,-31,85,-53,-19,58,-29,-29,29,122
78,-19,-97,-29,87,-58,-19,58,-29,-29,29,126
78,-24,-102,-26,90,-63,-19,58,-29,-29,29,131
78,-29,-107,-24,92,-68,-19,58,-29,-29,29,136
87,-29,-117,-29,102,-73,-19,58,-29,-29,29,126
87,-29,-117,-29,102,-73,-19,58,-29,-29,29,126
87,-29,-117,-29,102,-73,-19,58,-29,-29,29,126
87,-29,-117,-29,102,-73,-19,58,-29,-29,29,126
87,-19,-107,-34,97,-63,-29,53,-34,-34,24,122
87,-9,-97,-39,92,-53,-29,48,-39,-39,19,117
87,0,-87,-43,87,-43,-29,43,-43,-43,14,112
87,9,-78,-48,82,-34,-29,39,-48,-48,9,107
87,-4,-92,-41,90,-48,-29,43,-43,-34,24,112
87,-9,-97,-39,92,-53,-29,48,-39,-29,29,117
87,-14,-102,-36,95,-58,-29,53,-34,-24,34,122
87,-19,-107,-34,97,-63,-29,58,-29,-19,39,126
97,-14,-112,-41,104,-63,-43,53,-39,-24,29,112
97,-4,-102,-46,100,-53,-48,48,-39,-29,24,112
97,9,-87,-53,92,-39,-48,43,-34,-34,24,122
97,19,-78,-58,87,-29,-48,39,-24,-34,24,122
97,24,-73,-61,85,-24,-53,39,-24,-19,39,122
97,29,-68,-63,82,-19,-58,39,-29,-19,39,122
97,34,-63,-65,80,-14,-58,34,-29,-19,43,126
102,43,-58,-73,80,-7,-58,34,-24,-14,43,131
107,58,-48,-82,78,4,-53,39,-14,-9,58,141
117,58,-58,-87,87,0,-63,39,-9,-9,63,146
131,68,-63,-100,97,2,-73,39,0,-4,68,151
141,78,-63,-109,102,7,-78,39,0,0,68,156
136,82,-53,-109,95,14,-78,39,-9,-4,58,151
136,82,-53,-109,95,14,-92,34,-9,-4,68,151
136,87,-48,-112,92,19,-107,24,-9,0,73,156
131,87,-43,-109,87,21,-117,24,-9,0,73,161
141,102,-39,-122,90,31,-141,29,0,14,78,170
151,107,-43,-129,97,31,-151,24,-4,14,82,175
151,107,-43,-129,97,31,-161,9,-4,9,87,180
151,107,-43,-129,97,31,-165,-9,-14,4,92,185
161,117,-43,-139,102,36,-180,-19,-24,4,87,185
161,126,-34,-143,97,46,-185,-19,-24,4,87,185
161,136,-24,-148,92,56,-185,-14,-24,4,92,195
161,146,-14,-153,87,65,-185,-14,-24,4,92,200
156,136,-19,-146,87,58,-185,-19,-24,14,102,204
156,131,-24,-143,90,53,-185,-19,-24,14,112,209
156,126,-29,-141,92,48,-180,-14,-24,14,117,214
161,122,-39,-141,100,41,-175,-9,-19,24,122,219
175,131,-43,-153,109,43,-175,9,-24,24,122,234
190,136,-53,-163,122,41,-170,19,-14,24,126,234
190,141,-48,-165,119,46,-156,24,-4,29,131,239
185,156,-29,-170,107,63,-151,29,-4,29,131,244
175,165,-9,-170,92,78,-161,29,9,39,146,253
170,151,-19,-161,95,65,-156,29,9,43,151,253
165,141,-24,-153,95,58,-146,29,4,48,151,253
161,126,-34,-143,97,46,-136,29,0,39,146,239
151,97,-53,-124,102,21,-112,24,-9,19,131,234
136,78,-58,-107,97,9,-102,29,-24,0,107,219
112,58,-53,-85,82,2,-87,19,-29,-9,102,200
102,29,-73,-65,87,-21,-82,24,-43,-29,78,185
97,19,-78,-58,87,-29,-82,4,-68,-39,58,161
87,14,-73,-51,80,-29,-73,4,-73,-43,48,151
82,4,-78,-43,80,-36,-68,4,-73,-48,43,146
78,4,-73,-41,75,-34,-58,9,-73,-58,39,141
73,-14,-87,-29,80,-51,-43,14,-63,-58,39,141
73,-24,-97,-24,85,-61,-39,24,-63,-58,34,141
68,-39,-107,-14,87,-73,-39,29,-63,-58,29,136
68,-53,-122,-7,95,-87,-34,39,-63,-58,29,131
68,-43,-112,-12,90,-78,-34,43,-68,-68,29,122
68,-39,-107,-14,87,-73,-39,39,-68,-68,24,122
68,-29,-97,-19,82,-63,-39,34,-68,-68,24,117
63,-24,-87,-19,75,-56,-39,34,-68,-68,24,117
63,-14,-78,-24,70,-46,-39,43,-63,-68,24,107
68,-14,-82,-26,75,-48,-39,43,-63,-68,24,102
68,-19,-87,-24,78,-53,-39,43,-73,-73,24,102
68,-19,-87,-24,78,-53,-39,43,-73,-73,19,102
68,-39,-107,-14,87,-73,-24,48,-63,-73,9,112
68,-53,-122,-7,95,-87,-24,53,-63,-73,9,112
68,-68,-136,0,102,-102,-24,58,-63,-73,9,107
63,-78,-141,7,102,-109,-24,63,-58,-73,9,107
63,-68,-131,2,97,-100,-24,63,-68,-63,24,107
58,-63,-122,2,90,-92,-24,63,-68,-63,24,107
58,-53,-112,-2,85,-82,-19,58,-68,-63,24,107
68,-43,-112,-12,90,-78,-19,58,-68,-63,24,107
78,-29,-107,-24,92,-68,-29,58,-58,-73,14,97
78,-24,-102,-26,90,-63,-29,58,-58,-68,14,102
78,-19,-97,-29,87,-58,-24,58,-53,-68,14,102
78,-14,-92,-31,85,-53,-24,58,-53,-73,14,97
73,-39,-112,-17,92,-75,-24,73,-53,-68,19,102
63,-48,-112,-7,87,-80,-24,73,-53,-58,24,107
58,-63,-122,2,90,-92,-19,73,-53,-53,29,112
53,-82,-136,14,95,-109,-4,73,-53,-48,34,117
53,-82,-136,14,95,-109,-4,63,-63,-58,29,112
53,-78,-131,12,92,-104,-4,63,-68,-58,19,107
53,-73,-126,9,90,-100,-4,63,-68,-58,14,102
53,-68,-122,7,87,-95,-4,63,-63,-58,14,97
53,-29,-82,-12,68,-56,-4,53,-73,-68,4,87
53,-29,-82,-12,68,-56,4,53,-82,-68,4,92
58,-24,-82,-17,70,-53,9,68,-73,-58,14,97
48,-58,-107,4,78,-82,24,82,-68,-58,14,92
58,-107,-165,24,112,-136,34,107,-53,-48,9,82
58,-126,-185,34,122,-156,43,117,-43,-34,19,87
58,-112,-170,26,114,-141,53,107,-34,-9,29,87
68,-117,-185,24,126,-151,63,102,-24,0,19,73
63,-122,-185,29,124,-153,53,112,-4,19,24,63
58,-122,-180,31,119,-151,39,136,48,78,48,63
78,-112,-190,17,134,-151,39,161,131,151,87,78
112,-97,-209,-7,161,-153,14,175,180,214,141,102
146,-102,-248,-21,197,-175,-19,185,214,341,253,170
204,-107,-312,-48,258,-209,-73,200,263,527,414,263
268,-24,-292,-122,280,-158,-141,146,234,673,561,346
297,87,-209,-192,253,-61,-224,34,92,771,702,453
346,165,-180,-256,263,-7,-302,-78,-63,897,883,595
405,258,-146,-331,275,56,-375,-161,-151,1083,1088,741
439,385,-53,-412,246,165,-468,-278,-244,1254,1278,873
444,492,48,-468,197,270,-590,-458,-395,1385,1454,1024
463,605,141,-534,161,373,-678,-639,-580,1459,1600,1156
458,712,253,-585,102,483,-736,-810,-775,1488,1703,1278
400,819,419,-610,-9,619,-780,-1054,-1044,1415,1761,1420
346,888,541,-617,-97,714,-834,-1317,-1371,1254,1756,1542
297,907,610,-602,-156,758,-883,-1522,-1688,995,1654,1605
244,941,697,-592,-226,819,-917,-1688,-2030,634,1459,1629
185,966,780,-575,-297,873,-922,-1830,-2357,258,1215,1620
141,927,785,-534,-322,856,-927,-1883,-2527,-48,995,1605
102,907,805,-505,-351,856,-956,-1947,-2674,-448,712,1556
43,927,883,-485,-419,905,-1000,-2054,-2864,-971,326,1434
24,946,922,-485,-448,934,-1019,-2064,-2913,-1366,19,1288
14,893,878,-453,-431,885,-956,-1903,-2766,-1542,-122,1151
4,717,712,-361,-353,714,-790,-1610,-2464,-1517,-195,956
-14,463,478,-224,-246,470,-566,-1239,-1995,-1322,-248,697
-29,244,273,-107,-151,258,-366,-868,-1498,-1058,-287,409
-29,122,151,-46,-90,136,-229,-590,-1132,-883,-331,209
-14,43,58,-14,-36,51,-146,-424,-854,-751,-351,82
-24,-43,-19,34,-2,-31,-107,-312,-649,-614,-331,34
-34,-107,-73,70,19,-90,-82,-224,-478,-492,-292,14
-34,-131,-97,82,31,-114,-24,-126,-361,-400,-263,-14
-24,-156,-131,90,53,-143,24,-58,-287,-341,-263,-53
-34,-170,-136,102,51,-153,43,-29,-258,-317,-253,-87
-14,-161,-146,87,65,-153,58,4,-209,-287,-229,-102
-19,-170,-151,95,65,-161,73,39,-161,-258,-204,-102
-19,-200,-180,109,80,-190,82,68,-112,-219,-180,-97
0,-170,-170,85,85,-170,92,82,-78,-185,-170,-87
4,-112,-117,53,61,-114,92,92,-39,-161,-161,-78
4,-102,-107,48,56,-104,112,117,-4,-126,-146,-58
19,-136,-156,58,87,-146,122,146,34,-82,-107,-34
19,-156,-175,68,97,-165,117,165,63,-53,-78,-19
39,-141,-180,51,109,-161,117,165,68,-24,-43,-9
29,-117,-146,43,87,-131,117,151,58,-39,-53,-9
24,-112,-136,43,80,-124,126,151,68,-43,-53,-9
24,-112,-136,43,80,-124,136,156,78,-43,-53,-4
24,-112,-136,43,80,-124,136,161,92,-34,-53,-4
19,-126,-146,53,82,-136,126,156,97,-29,-58,-14
19,-126,-146,53,82,-136,126,161,102,-24,-63,-19
24,-126,-151,51,87,-139,126,161,102,-19,-68,-24
24,-126,-151,51,87,-139,122,161,102,-19,-68,-34
34,-117,-151,41,92,-134,117,165,102,-34,-53,-34
34,-102,-136,34,85,-119,112,165,102,-34,-53,-29
34,-92,-126,29,80,-109,107,165,102,-34,-53,-29
34,-82,-117,24,75,-100,107,165,102,-24,-53,-29
34,-87,-122,26,78,-104,122,170,107,-14,-53,-19
34,-92,-126,29,80,-109,122,170,117,-14,-53,-19
34,-97,-131,31,82,-114,117,175,122,-9,-53,-24
34,-102,-136,34,85,-119,117,175,126,-9,-53,-24
34,-107,-141,36,87,-124,117,175,131,-4,-53,-19
34,-112,-146,39,90,-129,122,180,126,-4,-48,-19
34,-117,-151,41,92,-134,126,180,126,0,-48,-19
34,-122,-156,43,95,-139,131,180,122,0,-48,-19
24,-117,-141,46,82,-129,122,175,131,-4,-58,-24
24,-102,-126,39,75,-114,122,175,131,-4,-63,-29
24,-97,-122,36,73,-109,122,180,136,0,-63,-34
24,-97,-122,36,73,-109,126,180,141,0,-63,-39
29,-107,-136,39,82,-122,117,190,141,0,-58,-34
29,-107,-136,39,82,-122,117,190,141,0,-53,-29
29,-107,-136,39,82,-122,117,190,146,0,-48,-24
29,-102,-131,36,80,-117,117,195,146,0,-43,-19
29,-107,-136,39,82,-122,117,195,156,4,-53,-29
24,-107,-131,41,78,-119,117,195,156,4,-53,-29
14,-112,-126,48,70,-119,117,200,156,4,-53,-29
9,-112,-122,51,65,-117,117,200,156,4,-53,-29
19,-126,-146,53,82,-136,117,209,175,19,-43,-19
19,-131,-151,56,85,-141,117,214,175,19,-43,-24
19,-136,-156,58,87,-146,117,219,175,19,-43,-24
24,-136,-161,56,92,-148,117,224,185,19,-43,-19
19,-126,-146,53,82,-136,117,224,175,4,-58,-34
14,-131,-146,58,80,-139,117,219,175,4,-63,-39
14,-131,-146,58,80,-139,117,224,185,0,-68,-43
9,-126,-136,58,73,-131,117,219,190,0,-73,-48
19,-122,-141,51,80,-131,126,219,200,14,-68,-34
19,-117,-136,48,78,-126,126,224,204,19,-58,-29
14,-112,-126,48,70,-119,126,224,209,24,-43,-24
14,-102,-117,43,65,-109,126,229,209,29,-34,-19
24,-102,-126,39,75,-114,122,229,214,19,-48,-34
24,-102,-126,39,75,-114,117,229,214,19,-53,-34
24,-107,-131,41,78,-119,112,234,224,19,-53,-34
24,-107,-131,41,78,-119,107,239,229,29,-48,-34
14,-117,-131,51,73,-124,107,229,229,19,-53,-43
14,-117,-131,51,73,-124,107,234,234,19,-58,-43
14,-117,-131,51,73,-124,107,234,244,19,-63,-43
14,-117,-131,51,73,-124,107,234,248,19,-73,-43
14,-122,-136,53,75,-129,117,244,253,19,-73,-43
14,-122,-136,53,75,-129,117,253,258,24,-73,-43
14,-126,-141,56,78,-134,117,253,268,29,-73,-43
14,-131,-146,58,80,-139,117,253,273,29,-73,-48
24,-122,-146,48,85,-134,107,258,278,34,-78,-39
24,-117,-141,46,82,-129,107,263,287,34,-78,-39
24,-112,-136,43,80,-124,107,263,302,43,-73,-39
24,-107,-131,41,78,-119,107,263,312,43,-73,-39
14,-117,-131,51,73,-124,107,258,312,58,-68,-29
14,-117,-131,51,73,-124,107,263,317,58,-68,-34
14,-112,-126,48,70,-119,107,263,322,58,-73,-34
14,-112,-126,48,70,-119,107,273,331,63,-73,-34
14,-112,-126,48,70,-119,122,278,341,78,-63,-24
14,-112,-126,48,70,-119,122,287,356,78,-63,-24
14,-112,-126,48,70,-119,117,297,370,82,-63,-24
14,-112,-126,48,70,-119,117,307,385,87,-63,-19
19,-102,-122,41,70,-112,107,307,390,87,-68,-24
19,-102,-122,41,70,-112,107,307,395,82,-73,-29
24,-92,-117,34,70,-104,112,307,400,78,-78,-34
34,-87,-122,26,78,-104,112,307,405,78,-92,-43
29,-87,-117,29,73,-102,102,312,409,87,-87,-34
24,-92,-117,34,70,-104,102,317,419,87,-82,-34
14,-102,-117,43,65,-109,102,322,429,97,-78,-34
9,-107,-117,48,63,-112,102,326,448,97,-73,-34
9,-107,-117,48,63,-112,102,331,463,107,-73,-34
14,-102,-117,43,65,-109,102,336,468,112,-73,-34
14,-102,-117,43,65,-109,102,341,483,112,-73,-34
14,-97,-112,41,63,-104,102,341,488,112,-73,-29
14,-78,-92,31,53,-85,97,341,492,112,-92,-39
14,-73,-87,29,51,-80,97,341,502,112,-97,-43
14,-68,-82,26,48,-75,92,346,507,112,-97,-43
14,-58,-73,21,43,-65,92,346,517,112,-97,-43
19,-73,-92,26,56,-82,92,361,527,122,-92,-39
29,-78,-107,24,68,-92,92,361,531,126,-87,-34
34,-82,-117,24,75,-100,92,361,531,131,-87,-29
39,-87,-126,24,82,-107,82,361,531,131,-92,-29
34,-87,-122,26,78,-104,92,356,531,131,-92,-39
29,-92,-122,31,75,-107,92,356,531,131,-97,-34
24,-97,-122,36,73,-109,87,356,536,131,-97,-34
24,-102,-126,39,75,-114,87,351,536,131,-97,-34
43,-97,-141,26,92,-119,87,361,536,136,-87,-24
43,-82,-126,19,85,-104,82,361,536,136,-87,-24
48,-78,-126,14,87,-102,78,361,536,131,-92,-24
48,-73,-122,12,85,-97,73,361,531,131,-92,-24
43,-82,-126,19,85,-104,68,361,531,136,-82,-24
43,-82,-126,19,85,-104,68,351,527,131,-87,-24
43,-82,-126,19,85,-104,68,346,522,136,-87,-24
48,-82,-131,17,90,-107,68,341,527,146,-87,-19
48,-82,-131,17,90,-107,53,331,507,146,-92,-29
48,-78,-126,14,87,-102,53,331,497,141,-92,-29
48,-73,-122,12,85,-97,53,326,483,141,-87,-19
48,-68,-117,9,82,-92,48,317,468,141,-87,-14
43,-82,-126,19,85,-104,48,302,463,141,-78,-24
48,-87,-136,19,92,-112,48,292,444,136,-78,-24
48,-92,-141,21,95,-117,48,283,434,136,-68,-19
53,-97,-151,21,102,-124,48,273,419,136,-68,-9
53,-87,-141,17,97,-114,39,273,405,126,-73,-14
53,-87,-141,17,97,-114,34,263,390,126,-68,-14
53,-92,-146,19,100,-119,29,253,375,126,-58,-9
53,-92,-146,19,100,-119,29,248,361,126,-53,-9
63,-78,-141,7,102,-109,24,239,336,131,-48,0
73,-68,-141,-2,107,-104,24,229,322,136,-39,4
78,-58,-136,-9,107,-97,19,219,312,136,-34,9
82,-48,-131,-17,107,-90,14,219,297,136,-19,14
73,-63,-136,-4,104,-100,19,219,297,156,9,39
73,-78,-151,2,112,-114,19,219,287,161,14,43
73,-92,-165,9,119,-129,24,214,278,165,29,53
73,-107,-180,17,126,-143,29,219,273,175,43,63
68,-97,-165,14,117,-131,19,195,253,161,39,63
68,-97,-165,14,117,-131,24,190,234,156,43,63
68,-97,-165,14,117,-131,24,180,214,151,48,63
63,-102,-165,19,114,-134,24,175,190,146,53,63
48,-97,-146,24,97,-122,9,156,175,136,53,63
43,-87,-131,21,87,-109,4,146,156,126,58,63
39,-82,-122,21,80,-102,4,141,136,117,63,63
34,-78,-112,21,73,-95,4,131,122,112,58,63
39,-87,-126,24,82,-107,9,136,107,102,73,73
43,-87,-131,21,87,-109,14,136,102,92,82,82
43,-87,-131,21,87,-109,19,126,87,87,87,87
43,-87,-131,21,87,-109,24,122,78,82,87,92
53,-82,-136,14,95,-109,14,117,63,78,78,92
53,-78,-131,12,92,-104,14,112,53,78,82,97
53,-73,-126,9,90,-100,14,107,43,73,87,97
48,-68,-117,9,82,-92,14,102,39,68,87,107
39,-58,-97,9,68,-78,14,102,24,58,87,107
39,-58,-97,9,68,-78,14,97,14,53,87,107
39,-58,-97,9,68,-78,14,92,4,48,87,107
39,-58,-97,9,68,-78,14,92,0,48,87,107
53,-73,-126,9,90,-100,14,97,-4,53,92,117
48,-78,-126,14,87,-102,19,92,-4,48,92,117
53,-82,-136,14,95,-109,24,92,-4,43,92,112
58,-82,-141,12,100,-112,29,87,-4,39,92,112
68,-63,-131,-2,100,-97,19,78,-14,39,92,112
68,-53,-122,-7,95,-87,19,78,-19,34,92,112
68,-53,-122,-7,95,-87,24,78,-24,29,92,112
68,-43,-112,-12,90,-78,24,78,-29,29,92,117
63,-48,-112,-7,87,-80,24,78,-29,19,87,117
63,-53,-117,-4,90,-85,24,73,-34,9,82,117
73,-53,-126,-9,100,-90,24,73,-39,9,78,117
73,-58,-131,-7,102,-95,24,68,-39,4,73,117
68,-68,-136,0,102,-102,24,68,-29,14,82,107
58,-68,-126,4,92,-97,24,68,-34,9,82,107
48,-68,-117,9,82,-92,24,68,-34,4,82,107
43,-68,-112,12,78,-90,24,68,-34,4,82,107
53,-58,-112,2,82,-85,24,63,-43,-4,78,97
63,-48,-112,-7,87,-80,24,63,-43,-4,68,97
63,-39,-102,-12,82,-70,24,63,-43,-4,63,97
63,-29,-92,-17,78,-61,24,63,-43,-9,58,97
73,-48,-122,-12,97,-85,29,73,-34,0,63,107
68,-58,-126,-4,97,-92,34,73,-34,-4,63,107
63,-68,-131,2,97,-100,39,73,-34,-4,68,107
63,-82,-146,9,104,-114,43,78,-34,0,73,107
53,-73,-126,9,90,-100,39,68,-34,-9,78,107
53,-78,-131,12,92,-104,34,68,-34,-9,78,107
53,-78,-131,12,92,-104,29,68,-34,-9,73,107
53,-73,-126,9,90,-100,24,68,-34,-14,63,107
43,-73,-117,14,80,-95,24,78,-24,-14,53,87
43,-73,-117,14,80,-95,24,78,-19,-9,58,87
43,-68,-112,12,78,-90,24,78,-14,-9,58,87
43,-68,-112,12,78,-90,29,78,-9,-9,58,82
43,-68,-112,12,78,-90,29,78,-4,-9,58,92
39,-73,-112,17,75,-92,29,82,-4,-14,58,97
39,-73,-112,17,75,-92,29,82,0,-14,58,97
43,-73,-117,14,80,-95,34,82,4,-14,58,92
43,-82,-126,19,85,-104,34,82,-4,-9,68,92
43,-82,-126,19,85,-104,34,87,0,-9,68,92
43,-82,-126,19,85,-104,34,87,0,-9,68,92
39,-87,-126,24,82,-107,34,87,0,-14,58,87
39,-97,-136,29,87,-117,43,87,14,-9,58,87
39,-97,-136,29,87,-117,43,97,19,-4,58,87
39,-97,-136,29,87,-117,39,97,19,0,58,87
39,-102,-141,31,90,-122,39,97,19,4,58,87
53,-97,-151,21,102,-124,39,87,14,4,68,78
53,-92,-146,19,100,-119,39,87,14,4,68,78
53,-87,-141,17,97,-114,39,87,19,4,63,78
53,-82,-136,14,95,-109,39,92,19,4,58,78
53,-82,-136,14,95,-109,39,92,24,4,48,87
53,-82,-136,14,95,-109,39,92,24,4,53,87
53,-82,-136,14,95,-109,39,92,29,9,58,82
53,-82,-136,14,95,-109,39,97,29,9,58,78
53,-73,-126,9,90,-100,29,97,24,9,63,78
53,-78,-131,12,92,-104,34,97,24,14,63,73
58,-87,-146,14,102,-117,34,102,34,14,63,68
63,-97,-161,17,112,-129,34,107,43,14,63,63
58,-97,-156,19,107,-126,34,107,48,19,63,68
48,-97,-146,24,97,-122,39,112,53,19,63,68
43,-97,-141,26,92,-119,39,112,53,19,63,73
43,-97,-141,26,92,-119,39,107,53,19,63,82
53,-87,-141,17,97,-114,34,102,53,14,63,78
53,-82,-136,14,95,-109,34,107,48,19,63,73
53,-82,-136,14,95,-109,34,102,43,19,63,68
53,-82,-136,14,95,-109,34,92,43,19,63,58
53,-87,-141,17,97,-114,29,92,53,19,63,63
53,-87,-141,17,97,-114,29,92,53,19,63,68
53,-87,-141,17,97,-114,29,92,48,19,63,73
53,-87,-141,17,97,-114,29,92,48,19,63,78
58,-92,-151,17,104,-122,39,107,48,39,73,87
58,-97,-156,19,107,-126,39,107,48,39,78,87
58,-102,-161,21,109,-131,39,107,58,39,78,87
58,-107,-165,24,112,-136,39,107,63,39,78,87
48,-97,-146,24,97,-122,39,97,53,34,78,78
48,-92,-141,21,95,-117,39,97,53,39,78,82
48,-87,-136,19,92,-112,39,102,53,39,78,82
48,-82,-131,17,90,-107,39,102,53,39,78,82
39,-82,-122,21,80,-102,39,92,53,48,87,82
39,-82,-122,21,80,-102,39,87,53,48,87,82
39,-78,-117,19,78,-97,39,87,53,48,87,82
39,-78,-117,19,78,-97,39,87,53,48,87,82
43,-78,-122,17,82,-100,39,97,53,48,87,82
43,-82,-126,19,85,-104,39,97,48,43,87,87
48,-82,-131,17,90,-107,39,97,48,39,87,87
53,-82,-136,14,95,-109,39,97,48,39,87,87
48,-92,-141,21,95,-117,43,97,53,53,92,97
43,-92,-136,24,90,-114,48,97,53,53,92,97
39,-92,-131,26,85,-112,53,92,53,53,97,97
34,-92,-126,29,80,-109,58,92,53,53,97,97
43,-87,-131,21,87,-109,48,87,43,43,97,87
43,-78,-122,17,82,-100,48,87,39,39,97,87
43,-78,-122,17,82,-100,48,87,39,39,97,92
43,-82,-126,19,85,-104,48,87,34,39,92,92
34,-87,-122,26,78,-104,48,87,34,39,82,92
34,-87,-122,26,78,-104,48,82,34,39,82,92
34,-87,-122,26,78,-104,48,82,34,39,82,92
34,-92,-126,29,80,-109,48,82,34,39,87,92
34,-92,-126,29,80,-109,48,92,24,29,87,82
34,-82,-117,24,75,-100,48,82,14,29,87,82
34,-73,-107,19,70,-90,48,82,14,24,82,82
34,-73,-107,19,70,-90,43,78,14,19,82,82
43,-68,-112,12,78,-90,53,87,14,19,82,82
43,-73,-117,14,80,-95,53,87,14,19,82,82
48,-73,-122,12,85,-97,53,87,14,24,87,87
48,-73,-122,12,85,-97,53,87,14,24,87,87
43,-73,-117,14,80,-95,53,97,14,34,97,107
43,-92,-136,24,90,-114,58,107,9,34,97,107
34,-97,-131,31,82,-114,58,102,19,34,97,107
24,-87,-112,31,68,-100,53,102,19,29,97,102
29,-78,-107,24,68,-92,48,97,9,19,87,97
34,-68,-102,17,68,-85,39,87,9,19,78,97
39,-68,-107,14,73,-87,39,87,9,19,78,97
43,-68,-112,12,78,-90,39,87,9,19,78,97
48,-68,-117,9,82,-92,39,87,9,19,78,97
58,-63,-122,2,90,-92,43,78,9,19,78,102
58,-53,-112,-2,85,-82,39,78,9,19,82,102
58,-39,-97,-9,78,-68,39,78,14,19,92,112
58,-29,-87,-14,73,-58,39,78,24,24,102,112
58,-34,-92,-12,75,-63,34,78,34,34,107,122
58,-29,-87,-14,73,-58,29,78,29,39,107,122
58,-24,-82,-17,70,-53,29,73,29,43,112,126
63,-14,-78,-24,70,-46,29,73,34,53,112,131
63,0,-63,-31,63,-31,24,78,24,48,117,122
68,0,-68,-34,68,-34,14,78,29,48,122,126
78,9,-68,-43,73,-29,4,78,39,53,126,131
82,19,-63,-51,73,-21,0,78,39,58,126,136
82,19,-63,-51,73,-21,-9,78,48,73,126,151
87,24,-63,-56,75,-19,-24,73,48,73,136,151
92,34,-58,-63,75,-12,-39,63,48,78,141,156
92,39,-53,-65,73,-7,-48,63,48,78,141,161
92,53,-39,-73,65,7,-63,68,39,82,141,165
102,58,-43,-80,73,7,-73,63,34,82,141,165
102,58,-43,-80,73,7,-82,48,34,78,141,165
102,58,-43,-80,73,7,-87,29,24,73,141,165
102,63,-39,-82,70,12,-82,19,14,73,146,175
102,68,-34,-85,68,17,-87,19,14,73,146,175
102,73,-29,-87,65,21,-87,24,14,73,151,185
102,78,-24,-90,63,26,-87,24,14,73,151,190
102,82,-19,-92,61,31,-97,9,4,73,141,190
107,82,-24,-95,65,29,-97,9,4,73,151,190
112,82,-29,-97,70,26,-92,14,4,73,156,190
122,82,-39,-102,80,21,-87,19,9,82,161,190
131,73,-58,-102,95,7,-87,29,24,97,185,209
141,78,-63,-109,102,7,-82,39,34,102,195,214
136,82,-53,-109,95,14,-68,43,43,112,204,224
126,97,-29,-112,78,34,-63,48,43,117,209,234
136,87,-48,-112,92,19,-53,68,48,122,209,244
131,73,-58,-102,95,7,-48,68,48,122,209,244
126,63,-63,-95,95,0,-39,68,43,122,204,244
122,48,-73,-85,97,-12,-29,68,39,107,195,229
102,39,-63,-70,82,-12,-14,48,9,87,180,204
87,19,-68,-53,78,-24,-4,48,-4,68,156,190
63,0,-63,-31,63,-31,9,34,-9,58,151,170
53,-29,-82,-12,68,-56,14,34,-24,39,126,156
58,-29,-87,-14,73,-58,24,34,-29,19,117,141
48,-34,-82,-7,65,-58,34,34,-34,14,107,131
43,-43,-87,0,65,-65,39,34,-34,9,102,126
39,-43,-82,2,61,-63,48,39,-34,0,97,122
24,-58,-82,17,53,-70,53,39,-43,0,87,102
24,-63,-87,19,56,-75,58,43,-43,0,82,102
19,-73,-92,26,56,-82,58,43,-43,0,78,97
19,-82,-102,31,61,-92,63,48,-43,0,78,92
29,-82,-112,26,70,-97,58,58,-48,0,78,92
29,-87,-117,29,73,-102,58,58,-48,0,73,92
29,-87,-117,29,73,-102,63,58,-48,0,73,87
24,-92,-117,34,70,-104,68,63,-48,0,73,87
19,-102,-122,41,70,-112,78,73,-34,9,73,97
19,-102,-122,41,70,-112,78,73,-34,9,73,92
14,-107,-122,46,68,-114,78,73,-43,4,73,92
9,-107,-117,48,63,-112,78,73,-43,4,68,92
24,-107,-131,41,78,-119,82,63,-43,-4,68,82
29,-102,-131,36,80,-117,82,63,-43,-4,68,82
34,-97,-131,31,82,-114,82,63,-43,-4,68,78
34,-87,-122,26,78,-104,82,63,-39,-4,68,78
29,-78,-107,24,68,-92,82,73,-29,4,73,87
19,-82,-102,31,61,-92,82,73,-29,4,73,87
14,-82,-97,34,56,-90,87,68,-29,4,73,87
19,-82,-102,31,61,-92,87,68,-29,4,73,87
19,-82,-102,31,61,-92,87,73,-39,-4,73,78
19,-82,-102,31,61,-92,87,78,-39,0,73,82
19,-82,-102,31,61,-92,92,82,-34,0,73,82
19,-82,-102,31,61,-92,92,87,-34,-4,73,78
29,-92,-122,31,75,-107,97,92,-34,4,73,87
24,-87,-112,31,68,-100,92,92,-34,9,73,87
24,-87,-112,31,68,-100,92,92,-34,9,73,87
24,-92,-117,34,70,-104,102,92,-34,9,73,87
14,-97,-112,41,63,-104,92,92,-34,9,82,78
14,-97,-112,41,63,-104,92,92,-39,9,78,78
14,-97,-112,41,63,-104,92,92,-39,9,78,78
14,-97,-112,41,63,-104,92,92,-34,9,82,78
34,-78,-112,21,73,-95,92,92,-43,9,82,78
34,-87,-122,26,78,-104,92,102,-43,9,82,73
29,-102,-131,36,80,-117,97,107,-34,9,82,78
29,-107,-136,39,82,-122,102,122,-29,9,82,73
19,-126,-146,53,82,-136,112,126,-24,19,78,63
9,-136,-146,63,78,-141,112,126,-24,24,78,58
9,-141,-151,65,80,-146,112,117,-24,39,78,48
19,-146,-165,63,92,-156,122,122,-4,48,78,43
34,-141,-175,53,104,-158,122,141,43,87,92,43
39,-141,-180,51,109,-161,126,165,107,146,126,53
48,-151,-200,51,124,-175,107,180,161,219,165,68
82,-136,-219,26,151,-178,82,175,190,292,219,102
146,-92,-239,-26,192,-165,39,165,204,419,331,161
204,-48,-253,-78,229,-151,-14,151,214,575,473,253
239,4,-234,-122,236,-114,-92,78,146,702,619,366
258,78,-180,-168,219,-51,-195,-34,-14,810,780,492
317,175,-141,-246,229,17,-292,-136,-131,946,961,634
385,278,-107,-331,246,85,-366,-229,-209,1122,1156,780
429,375,-53,-402,241,161,-448,-375,-322,1293,1346,932
444,492,48,-468,197,270,-561,-556,-492,1424,1532,1102
463,624,161,-544,151,392,-639,-736,-668,1517,1688,1254
429,722,292,-575,68,507,-697,-956,-893,1498,1761,1376
361,800,439,-580,-39,619,-771,-1239,-1200,1366,1771,1488
317,878,561,-597,-122,719,-834,-1483,-1527,1176,1737,1581
258,936,678,-597,-209,807,-883,-1649,-1825,927,1634,1644
195,941,746,-568,-275,844,-917,-1825,-2147,575,1439,1659
165,897,732,-531,-283,814,-932,-1927,-2425,239,1205,1659
131,858,727,-495,-297,793,-946,-1971,-2576,-78,985,1625
73,878,805,-475,-366,841,-976,-2064,-2732,-497,683,1537
43,888,844,-466,-400,866,-1029,-2122,-2864,-971,336,1405
43,878,834,-461,-395,856,-1010,-2034,-2835,-1278,107,1259
24,805,780,-414,-378,793,-897,-1834,-2630,-1376,-14,1093
-4,649,653,-322,-329,651,-732,-1532,-2278,-1302,-97,858
-34,414,448,-190,-241,431,-517,-1141,-1781,-1107,-170,570
-39,224,263,-92,-151,244,-336,-780,-1322,-902,-229,322
-48,92,141,-21,-95,117,-209,-561,-1005,-756,-263,161
-53,-14,39,34,-46,12,-136,-424,-775,-634,-273,73
-43,-73,-29,58,-7,-51,-78,-312,-580,-517,-253,43
-24,-97,-73,61,24,-85,-14,-204,-439,-414,-224,24
-14,-122,-107,68,46,-114,43,-97,-322,-331,-195,4
-24,-156,-131,90,53,-143,73,-48,-258,-292,-195,-34
-43,-170,-126,107,41,-148,92,-9,-219,-278,-195,-78
-43,-180,-136,112,46,-158,107,14,-180,-248,-170,-92
-29,-180,-151,104,61,-165,112,48,-131,-209,-136,-73
-19,-180,-161,100,70,-170,141,78,-73,-161,-112,-48
-9,-170,-161,90,75,-165,161,112,-29,-126,-92,-39
-4,-170,-165,87,80,-168,180,131,9,-92,-82,-39
-14,-170,-156,92,70,-163,180,146,43,-58,-68,-29
0,-146,-146,73,73,-146,180,175,73,-24,-48,-14
9,-136,-146,63,78,-141,175,175,102,-4,-29,-19
0,-131,-131,65,65,-131,165,175,97,-4,-24,-19
9,-117,-126,53,68,-122,165,180,107,-4,-14,-9
4,-112,-117,53,61,-114,175,180,117,-4,-14,-9
4,-112,-117,53,61,-114,185,185,126,0,-14,-4
4,-112,-117,53,61,-114,185,190,141,14,-14,-4
0,-117,-117,58,58,-117,195,185,136,9,-14,-9
0,-117,-117,58,58,-117,195,190,141,14,-14,-9
4,-117,-122,56,63,-119,195,190,141,19,-14,-9
4,-117,-122,56,63,-119,190,190,141,19,-9,-14
-4,-117,-112,61,53,-114,180,195,146,24,-14,-14
-4,-112,-107,58,51,-109,180,195,151,24,-14,-9
-4,-112,-107,58,51,-109,180,195,156,24,-14,-9
-4,-112,-107,58,51,-109,185,195,161,34,-14,-9
4,-122,-126,58,65,-124,200,209,161,24,-14,-9
4,-122,-126,58,65,-124,200,209,165,24,-14,-9
4,-122,-126,58,65,-124,195,214,165,29,-14,-14
4,-122,-126,58,65,-124,195,214,165,29,-14,-14
4,-112,-117,53,61,-114,180,204,165,34,-24,-9
4,-112,-117,53,61,-114,180,209,165,34,-19,-9
4,-112,-117,53,61,-114,180,209,170,39,-19,-9
4,-112,-117,53,61,-114,180,209,170,39,-19,-9
-4,-102,-97,53,46,-100,190,214,170,43,-9,-9
-4,-92,-87,48,41,-90,190,214,170,43,-14,-9
-4,-92,-87,48,41,-90,190,219,175,48,-14,-9
-4,-97,-92,51,43,-95,195,219,180,48,-14,-9
0,-97,-97,48,48,-97,195,209,180,48,-14,-9
0,-97,-97,48,48,-97,195,209,180,48,-14,-9
0,-97,-97,48,48,-97,195,209,185,48,-14,-9
0,-92,-92,46,46,-92,195,214,185,48,-14,-9
4,-92,-97,43,51,-95,195,214,195,53,-14,-9
4,-97,-102,46,53,-100,195,214,195,53,-14,-9
0,-107,-107,53,53,-107,195,219,195,53,-14,-9
0,-112,-112,56,56,-112,195,219,195,53,-14,-9
0,-102,-102,51,51,-102,195,224,204,48,-14,-9
0,-102,-102,51,51,-102,195,224,204,48,-14,-14
0,-102,-102,51,51,-102,195,224,204,48,-14,-14
4,-97,-102,46,53,-100,195,224,214,48,-14,-9
-4,-97,-92,51,43,-95,195,229,214,48,-24,-9
-4,-102,-97,53,46,-100,195,229,214,53,-24,-9
0,-102,-102,51,51,-102,195,239,224,53,-24,-9
0,-97,-97,48,48,-97,195,239,229,58,-24,-9
9,-97,-107,43,58,-102,195,229,229,58,-29,-9
9,-97,-107,43,58,-102,195,234,234,58,-29,-9
4,-97,-102,46,53,-100,195,234,239,58,-24,-9
4,-92,-97,43,51,-95,195,239,239,58,-24,-9
14,-92,-107,39,61,-100,195,248,253,58,-19,-14
14,-92,-107,39,61,-100,195,248,253,58,-24,-14
14,-97,-112,41,63,-104,195,253,263,58,-24,-14
14,-97,-112,41,63,-104,195,258,268,68,-19,-14
9,-87,-97,39,53,-92,204,258,268,68,-19,-14
4,-87,-92,41,48,-90,204,263,273,68,-19,-14
0,-87,-87,43,43,-87,204,263,283,68,-19,-14
-4,-87,-82,46,39,-85,204,263,287,68,-24,-14
-4,-87,-82,46,39,-85,195,273,292,68,-24,-4
-4,-82,-78,43,36,-80,195,283,297,73,-24,-4
-4,-82,-78,43,36,-80,195,283,307,78,-24,-4
-4,-82,-78,43,36,-80,195,283,312,78,-24,-9
4,-87,-92,41,48,-90,195,278,317,82,-29,-9
4,-87,-92,41,48,-90,195,283,326,82,-29,-9
4,-87,-92,41,48,-90,195,283,341,92,-24,-9
4,-87,-92,41,48,-90,195,283,351,92,-24,-9
-4,-87,-82,46,39,-85,195,287,351,87,-29,-9
-4,-87,-82,46,39,-85,195,292,356,87,-29,-14
-4,-82,-78,43,36,-80,195,292,361,87,-34,-14
-4,-82,-78,43,36,-80,195,302,370,92,-34,-14
4,-92,-97,43,51,-95,200,302,385,97,-43,-14
4,-92,-97,43,51,-95,200,307,395,97,-43,-14
4,-92,-97,43,51,-95,195,312,405,102,-43,-14
4,-92,-97,43,51,-95,195,317,414,107,-43,-9
-4,-92,-87,48,41,-90,195,322,424,112,-34,-9
-9,-92,-82,51,36,-87,195,326,434,112,-34,-9
-9,-82,-73,46,31,-78,200,331,444,112,-34,-9
-4,-78,-73,41,34,-75,200,336,453,117,-43,-14
4,-63,-68,29,36,-65,200,341,458,107,-53,-4
4,-63,-68,29,36,-65,200,346,468,107,-53,-4
0,-68,-68,34,34,-68,200,351,478,117,-53,-4
0,-68,-68,34,34,-68,200,356,497,117,-53,-4
-9,-58,-48,34,19,-53,200,361,502,126,-43,-4
-4,-53,-48,29,21,-51,200,366,507,131,-43,-4
-4,-53,-48,29,21,-51,200,370,522,131,-43,-4
-4,-48,-43,26,19,-46,200,370,527,131,-43,0
4,-53,-58,24,31,-56,195,361,522,141,-53,0
4,-53,-58,24,31,-56,195,361,531,141,-58,-4
4,-53,-58,24,31,-56,190,366,536,141,-58,-4
4,-48,-53,21,29,-51,190,366,546,141,-58,-4
4,-58,-63,26,34,-61,190,380,556,136,-58,4
9,-58,-68,24,39,-63,190,380,561,136,-58,4
9,-58,-68,24,39,-63,190,380,561,136,-63,4
9,-58,-68,24,39,-63,180,380,561,131,-73,0
9,-48,-58,19,34,-53,190,375,561,131,-73,-9
9,-43,-53,17,31,-48,190,375,561,131,-78,-4
9,-39,-48,14,29,-43,185,375,566,131,-78,-4
14,-34,-48,9,31,-41,185,370,566,131,-78,-4
14,-34,-48,9,31,-41,185,370,566,126,-78,-4
14,-24,-39,4,26,-31,180,370,566,126,-78,-4
19,-24,-43,2,31,-34,175,370,566,122,-82,-4
19,-24,-43,2,31,-34,170,370,561,122,-82,-4
24,-24,-48,0,36,-36,156,370,546,131,-82,4
24,-24,-48,0,36,-36,156,361,536,122,-87,4
24,-24,-48,0,36,-36,156,356,527,122,-87,4
29,-24,-53,-2,41,-39,156,351,527,126,-87,9
29,-29,-58,0,43,-43,151,346,517,117,-82,9
29,-29,-58,0,43,-43,151,341,507,112,-82,9
29,-29,-58,0,43,-43,151,331,492,112,-78,19
29,-29,-58,0,43,-43,146,317,478,112,-78,24
34,-39,-73,2,53,-56,141,312,463,102,-68,24
39,-39,-78,0,58,-58,136,302,444,97,-68,24
39,-39,-78,0,58,-58,131,292,434,97,-58,29
43,-39,-82,-2,63,-61,126,283,419,97,-58,39
43,-34,-78,-4,61,-56,126,263,405,107,-53,43
43,-29,-73,-7,58,-51,122,253,390,107,-48,43
43,-29,-73,-7,58,-51,117,244,375,107,-39,48
43,-24,-68,-9,56,-46,117,239,361,107,-34,48
48,-29,-78,-9,63,-53,112,239,346,102,-29,53
53,-29,-82,-12,68,-56,112,229,331,107,-19,63
53,-29,-82,-12,68,-56,107,219,322,107,-14,73
53,-29,-82,-12,68,-56,102,219,307,107,0,82
63,-19,-82,-21,73,-51,102,204,292,122,14,92
63,-19,-82,-21,73,-51,97,200,278,122,14,92
63,-19,-82,-21,73,-51,97,190,263,122,24,97
63,-19,-82,-21,73,-51,97,190,253,126,34,102
58,-19,-78,-19,68,-48,87,175,239,117,34,97
58,-19,-78,-19,68,-48,92,170,224,117,43,102
58,-19,-78,-19,68,-48,92,161,209,117,53,107
53,-24,-78,-14,65,-51,92,156,190,117,63,112
53,-34,-87,-9,70,-61,97,146,185,122,68,126
53,-29,-82,-12,68,-56,92,136,165,117,78,131
53,-29,-82,-12,68,-56,92,131,146,112,87,136
53,-29,-82,-12,68,-56,92,122,131,112,87,141
53,-19,-73,-17,63,-46,102,117,117,112,92,136
53,-19,-73,-17,63,-46,102,117,112,102,102,141
48,-19,-68,-14,58,-43,102,107,97,97,107,141
43,-19,-63,-12,53,-41,102,102,87,92,107,141
43,-9,-53,-17,48,-31,92,87,82,87,107,141
43,-9,-53,-17,48,-31,92,82,73,87,112,146
43,-9,-53,-17,48,-31,92,78,63,82,117,146
39,-9,-48,-14,43,-29,92,73,58,78,117,156
39,-14,-53,-12,46,-34,92,73,43,68,126,156
39,-19,-58,-9,48,-39,92,68,34,63,126,156
39,-24,-63,-7,51,-43,92,63,24,58,126,156
39,-29,-68,-4,53,-48,92,63,19,58,126,156
39,-19,-58,-9,48,-39,97,68,19,53,131,165
29,-19,-48,-4,39,-34,97,63,14,48,131,165
29,-19,-48,-4,39,-34,97,63,9,43,131,161
29,-14,-43,-7,36,-29,97,58,4,39,131,161
39,-14,-53,-12,46,-34,87,58,-4,39,122,151
39,-14,-53,-12,46,-34,87,58,-9,34,122,151
39,-24,-63,-7,51,-43,92,58,-14,29,122,151
39,-24,-63,-7,51,-43,92,58,-19,29,122,156
29,-34,-63,2,46,-48,102,58,-9,39,122,165
24,-34,-58,4,41,-46,102,53,-14,29,122,165
29,-29,-58,0,43,-43,102,53,-19,29,122,165
24,-29,-53,2,39,-41,102,48,-19,24,122,165
24,-29,-53,2,39,-41,102,48,-29,24,122,165
19,-29,-48,4,34,-39,102,48,-34,19,122,165
14,-29,-43,7,29,-36,102,48,-34,14,122,165
14,-29,-43,7,29,-36,102,48,-34,14,122,165
14,-19,-34,2,24,-26,102,43,-34,14,122,156
24,-19,-43,-2,34,-31,102,43,-34,14,117,156
24,-19,-43,-2,34,-31,102,43,-34,14,117,156
24,-19,-43,-2,34,-31,102,43,-34,9,117,156
24,-19,-43,-2,34,-31,102,43,-34,19,117,156
19,-19,-39,0,29,-29,102,43,-34,14,112,156
14,-19,-34,2,24,-26,102,43,-34,14,112,156
14,-24,-39,4,26,-31,102,48,-34,19,112,156
14,-24,-39,4,26,-31,102,48,-43,9,117,156
14,-29,-43,7,29,-36,102,48,-43,9,117,156
14,-29,-43,7,29,-36,102,48,-43,9,112,156
14,-24,-39,4,26,-31,102,48,-43,4,102,156
14,-34,-48,9,31,-41,102,58,-39,4,92,146
14,-34,-48,9,31,-41,102,58,-39,9,97,146
14,-29,-43,7,29,-36,102,58,-39,9,97,146
14,-29,-43,7,29,-36,107,58,-39,9,97,141
14,-29,-43,7,29,-36,107,58,-34,9,97,151
9,-34,-43,12,26,-39,107,63,-34,4,97,156
9,-34,-43,12,26,-39,107,63,-29,4,97,156
14,-34,-48,9,31,-41,112,63,-24,4,97,151
24,-24,-48,0,36,-36,112,63,-24,9,107,151
24,-24,-48,0,36,-36,112,68,-19,9,107,151
24,-24,-48,0,36,-36,112,68,-19,9,107,151
19,-29,-48,4,34,-39,112,68,-19,4,97,146
14,-39,-53,12,34,-46,112,68,-14,-4,87,136
9,-39,-48,14,29,-43,112,78,-9,-4,87,136
4,-39,-43,17,24,-41,107,78,-9,-4,87,136
0,-43,-43,21,21,-43,107,78,-9,-4,87,136
14,-39,-53,12,34,-46,117,78,-14,4,97,136
14,-34,-48,9,31,-41,117,78,-14,4,97,136
14,-29,-43,7,29,-36,117,78,-9,4,92,136
14,-24,-39,4,26,-31,117,82,-9,4,87,136
4,-29,-34,12,19,-31,117,82,4,4,87,146
4,-34,-39,14,21,-36,117,82,4,4,92,146
4,-39,-43,17,24,-41,117,82,9,9,97,141
4,-43,-48,19,26,-46,117,87,9,9,97,136
4,-34,-39,14,21,-36,117,82,4,4,92,136
4,-39,-43,17,24,-41,122,78,4,14,92,131
9,-48,-58,19,34,-53,122,78,14,19,92,126
14,-58,-73,21,43,-65,122,78,24,24,92,122
14,-53,-68,19,41,-61,131,87,19,19,92,126
9,-48,-58,19,34,-53,136,92,24,19,92,126
9,-43,-53,17,31,-48,136,92,24,19,92,131
14,-39,-53,12,34,-46,136,87,24,19,92,141
14,-39,-53,12,34,-46,131,87,29,24,82,131
14,-34,-48,9,31,-41,131,97,29,29,82,131
14,-34,-48,9,31,-41,131,97,29,29,82,131
14,-34,-48,9,31,-41,131,92,34,29,82,126
14,-48,-63,17,39,-56,126,102,43,29,82,136
14,-48,-63,17,39,-56,126,102,43,29,82,136
14,-48,-63,17,39,-56,126,102,39,29,82,136
14,-48,-63,17,39,-56,126,102,39,29,82,136
19,-39,-58,9,39,-48,136,107,29,39,92,126
19,-39,-58,9,39,-48,136,107,29,39,97,126
19,-39,-58,9,39,-48,136,107,39,39,97,126
19,-39,-58,9,39,-48,136,107,43,39,97,126
19,-34,-53,7,36,-43,136,107,43,34,97,126
19,-34,-53,7,36,-43,136,107,43,39,97,131
19,-34,-53,7,36,-43,136,112,43,39,97,131
19,-34,-53,7,36,-43,136,112,43,39,97,131
14,-43,-58,14,36,-51,126,102,34,39,97,131
9,-43,-53,17,31,-48,126,97,34,39,97,131
4,-39,-43,17,24,-41,126,97,34,39,97,131
0,-39,-39,19,19,-39,126,97,34,39,97,131
4,-34,-39,14,21,-36,126,87,34,48,97,131
4,-34,-39,14,21,-36,126,87,29,43,97,136
9,-29,-39,9,24,-34,126,87,29,39,97,136
14,-24,-39,4,26,-31,126,87,29,39,97,136
14,-14,-29,0,21,-21,126,87,24,43,102,146
14,-14,-29,0,21,-21,126,87,24,43,102,146
14,-14,-29,0,21,-21,126,82,24,43,107,146
14,-14,-29,0,21,-21,126,82,24,43,107,146
14,-14,-29,0,21,-21,126,78,24,43,97,136
14,-9,-24,-2,19,-17,126,78,19,39,97,136
14,-14,-29,0,21,-21,126,78,19,39,97,141
14,-24,-39,4,26,-31,126,78,14,39,92,141
14,-24,-39,4,26,-31,126,78,14,39,97,141
14,-19,-34,2,24,-26,126,73,14,39,102,141
14,-14,-29,0,21,-21,126,73,14,39,107,141
14,-14,-29,0,21,-21,126,73,14,39,117,141
14,-24,-39,4,26,-31,126,82,14,39,117,151
14,-14,-29,0,21,-21,126,73,4,39,117,151
14,-4,-19,-4,17,-12,126,73,4,34,112,151
14,-4,-19,-4,17,-12,122,68,4,29,112,151
14,-9,-24,-2,19,-17,122,68,4,19,102,141
14,-14,-29,0,21,-21,122,68,4,19,102,141
19,-14,-34,-2,26,-24,122,68,4,24,107,146
19,-14,-34,-2,26,-24,122,68,4,24,107,146
24,-24,-48,0,36,-36,122,58,4,24,107,156
14,-24,-39,4,26,-31,117,58,0,14,107,156
14,-19,-34,2,24,-26,117,63,0,14,107,156
14,-19,-34,2,24,-26,122,63,0,19,107,161
19,-19,-39,0,29,-29,122,63,-9,19,107,151
14,-19,-34,2,24,-26,122,63,-9,19,107,146
14,-19,-34,2,24,-26,122,63,-9,19,107,146
14,-9,-24,-2,19,-17,122,63,-9,19,107,151
14,-9,-24,-2,19,-17,126,53,0,19,107,161
9,-9,-19,0,14,-14,126,43,0,19,107,151
9,0,-9,-4,9,-4,126,48,0,29,107,156
19,0,-19,-9,19,-9,117,58,9,29,117,165
19,0,-19,-9,19,-9,117,58,9,29,117,165
19,0,-19,-9,19,-9,117,58,9,29,117,165
19,0,-19,-9,19,-9,117,58,9,29,117,165
29,9,-19,-19,24,-4,112,58,9,29,122,161
29,14,-14,-21,21,0,107,58,9,29,122,161
29,24,-4,-26,17,9,107,58,14,29,126,170
29,29,0,-29,14,14,107,58,24,34,131,170
29,43,14,-36,7,29,102,58,24,39,136,180
29,48,19,-39,4,34,97,58,19,39,136,180
29,53,24,-41,2,39,97,53,19,39,141,185
34,63,29,-48,2,46,97,53,24,43,141,190
34,63,29,-48,2,46,92,68,24,48,136,190
39,58,19,-48,9,39,82,68,29,48,141,195
48,63,14,-56,17,39,73,68,39,53,146,200
53,68,14,-61,19,41,68,68,39,58,146,204
43,87,43,-65,0,65,58,68,39,73,156,209
48,92,43,-70,2,68,43,63,39,73,165,209
53,102,48,-78,2,75,29,53,39,78,170,214
53,107,53,-80,0,80,19,53,39,78,170,219
53,112,58,-82,-2,85,-4,43,39,78,170,224
63,117,53,-90,4,85,-14,34,34,73,170,224
63,117,53,-90,4,85,-24,14,34,63,170,224
63,117,53,-90,4,85,-29,-9,24,53,170,224
73,122,48,-97,12,85,-24,-19,14,53,165,224
73,126,53,-100,9,90,-29,-19,14,53,165,224
73,131,58,-102,7,95,-29,-14,14,53,170,234
73,136,63,-104,4,100,-29,-14,14,53,170,239
82,141,58,-112,12,100,-29,-14,24,63,180,244
87,141,53,-114,17,97,-29,-9,24,63,190,248
92,141,48,-117,21,95,-24,0,24,63,195,253
102,141,39,-122,31,90,-19,9,29,73,200,258
112,141,29,-126,41,85,-19,19,34,87,204,278
122,146,24,-134,48,85,-14,29,43,92,214,283
117,151,34,-134,41,92,0,34,53,102,224,292
107,165,58,-136,24,112,4,39,53,107,229,302
117,156,39,-136,39,97,4,39,48,102,229,292
112,141,29,-126,41,85,9,39,48,102,229,292
107,131,24,-119,41,78,19,39,43,102,224,292
102,117,14,-109,43,65,29,39,39,87,214,278
73,107,34,-90,19,70,48,29,29,78,190,273
58,87,29,-73,14,58,63,29,14,58,165,258
34,68,34,-51,0,51,82,14,9,48,161,239
24,39,14,-31,4,26,92,14,-4,29,136,224
19,29,9,-24,4,19,92,0,-29,9,126,209
9,24,14,-17,-2,19,102,-4,-34,4,117,200
4,14,9,-9,-2,12,107,-9,-34,0,112,195
0,14,14,-7,-7,14,117,-9,-34,-9,107,190
-4,4,9,0,-7,7,112,0,-24,0,117,190
-4,4,9,0,-7,7,117,4,-24,0,112,190
-9,0,9,4,-9,4,117,4,-24,0,107,185
-9,-4,4,7,-7,0,122,9,-24,0,107,180
-9,-4,4,7,-7,0,136,9,-29,0,107,180
-9,-9,0,9,-4,-4,136,9,-29,0,102,180
-9,-9,0,9,-4,-4,141,9,-29,0,102,175
-14,-14,0,14,-7,-7,146,14,-29,0,102,175
-14,-14,0,14,-7,-7,146,14,-14,0,102,175
-9,-14,-4,12,-2,-9,146,14,-14,0,102,170
-9,-19,-9,14,0,-14,146,14,-24,-4,102,170
-9,-19,-9,14,0,-14,146,14,-24,-4,97,170
-19,-24,-4,21,-7,-14,151,14,-34,-4,97,170
-19,-24,-4,21,-7,-14,151,14,-34,-4,97,170
-19,-24,-4,21,-7,-14,151,14,-34,-4,97,165
-24,-19,4,21,-14,-7,151,14,-29,-4,97,165
-14,-9,4,12,-9,-2,151,14,-29,-4,102,165
-19,-14,4,17,-12,-4,151,14,-29,-4,102,165
-19,-14,4,17,-12,-4,156,9,-29,-4,102,165
-9,-14,-4,12,-2,-9,156,9,-29,-4,102,165
-9,-14,-4,12,-2,-9,156,9,-29,-4,102,175
-9,-14,-4,12,-2,-9,156,9,-29,0,102,180
-9,-14,-4,12,-2,-9,161,9,-24,0,102,180
-9,-14,-4,12,-2,-9,161,9,-24,-4,102,175
-9,-14,-4,12,-2,-9,156,14,-24,-4,102,165
-14,-9,4,12,-9,-2,151,14,-24,0,102,165
-14,-9,4,12,-9,-2,151,14,-24,0,102,165
-14,-14,0,14,-7,-7,161,14,-24,0,102,165
-24,-19,4,21,-14,-7,161,4,-24,-9,102,175
-24,-19,4,21,-14,-7,161,4,-29,-9,97,175
-24,-19,4,21,-14,-7,161,4,-29,-9,97,175
-24,-19,4,21,-14,-7,161,4,-24,-9,102,175
-24,-19,4,21,-14,-7,161,24,-14,0,102,175
-14,-19,-4,17,-4,-12,170,34,-14,-9,102,170
-9,-24,-14,17,2,-19,175,39,-14,-9,102,165
-19,-39,-19,29,0,-29,180,53,-9,0,102,161
-9,-58,-48,34,19,-53,180,58,-4,0,97,151
-9,-68,-58,39,24,-63,180,48,4,4,97,136
-9,-63,-53,36,21,-58,190,48,4,19,97,136
0,-68,-68,34,34,-68,190,53,24,39,97,131
4,-73,-78,34,41,-75,190,73,73,68,102,131
9,-73,-82,31,46,-78,175,97,136,126,136,141
29,-73,-102,21,65,-87,165,102,200,209,175,165
53,-58,-112,2,82,-85,122,97,219,292,248,200
107,-34,-141,-36,124,-87,68,97,253,419,361,268
165,19,-146,-92,156,-63,4,82,263,575,512,370
219,92,-126,-156,173,-17,-73,9,185,712,668,492
278,165,-112,-222,195,26,-165,-112,34,819,829,629
346,244,-102,-295,224,70,-253,-224,-82,956,1000,761
385,346,-39,-366,212,153,-326,-326,-151,1151,1195,917
400,463,63,-431,168,263,-419,-483,-273,1322,1395,1088
424,580,156,-502,134,368,-531,-673,-453,1454,1581,1249
434,683,248,-558,92,466,-610,-873,-649,1527,1717,1390
390,761,370,-575,9,566,-688,-1132,-912,1498,1800,1512
331,849,517,-590,-92,683,-771,-1454,-1259,1366,1820,1625
287,917,629,-602,-170,773,-824,-1698,-1576,1195,1805,1727
258,966,707,-612,-224,836,-863,-1883,-1864,976,1712,1790
234,980,746,-607,-256,863,-878,-2039,-2176,663,1537,1805
195,917,722,-556,-263,819,-883,-2113,-2405,366,1322,1795
122,868,746,-495,-312,807,-897,-2166,-2547,58,1102,1742
53,888,834,-470,-390,861,-946,-2249,-2684,-361,790,1625
14,897,883,-456,-434,890,-971,-2269,-2776,-824,444,1464
14,868,854,-441,-419,861,-951,-2142,-2727,-1132,204,1288
4,785,780,-395,-387,783,-829,-1922,-2522,-1229,73,1093
-24,629,653,-302,-339,641,-634,-1590,-2132,-1166,-29,858
-43,424,468,-190,-256,446,-419,-1180,-1644,-980,-122,600
-39,263,302,-112,-170,283,-248,-849,-1234,-834,-200,370
-48,151,200,-51,-124,175,-141,-639,-946,-727,-244,248
-53,73,126,-9,-90,100,-78,-502,-717,-614,-244,180
-53,4,58,24,-56,31,-19,-390,-551,-507,-224,141
-53,-48,4,51,-29,-21,34,-283,-419,-424,-204,112
-53,-82,-29,68,-12,-56,73,-195,-312,-361,-195,82
-63,-107,-43,85,-9,-75,112,-136,-258,-312,-185,53
-63,-122,-58,92,-2,-90,141,-87,-209,-287,-175,29
-63,-131,-68,97,2,-100,165,-53,-161,-268,-161,14
-68,-122,-53,95,-7,-87,190,-9,-112,-219,-126,34
-78,-122,-43,100,-17,-82,200,19,-53,-180,-102,48
-78,-122,-43,100,-17,-82,219,43,-9,-136,-82,58
-53,-112,-58,82,2,-85,229,63,29,-92,-73,68
-34,-112,-78,73,21,-95,229,78,63,-68,-48,68
-29,-97,-68,63,19,-82,229,97,92,-34,-19,82
-29,-78,-48,53,9,-63,224,107,112,-24,0,87
-19,-53,-34,36,7,-43,224,107,117,-24,-4,87
-29,-48,-19,39,-4,-34,224,102,117,-24,-4,87
-34,-43,-9,39,-12,-26,234,102,126,-24,-4,87
-34,-43,-9,39,-12,-26,244,107,136,-19,-4,92
-34,-43,-9,39,-12,-26,244,112,151,-4,-4,92
-39,-48,-9,43,-14,-29,244,117,156,0,-4,87
-39,-48,-9,43,-14,-29,244,122,161,4,-4,87
-34,-48,-14,41,-9,-31,244,122,161,9,-4,87
-34,-48,-14,41,-9,-31,239,122,161,9,0,82
-34,-48,-14,41,-9,-31,239,126,165,4,4,82
-34,-43,-9,39,-12,-26,239,126,170,4,4,87
-34,-43,-9,39,-12,-26,239,126,175,4,4,87
-34,-43,-9,39,-12,-26,244,126,180,14,4,87
-34,-43,-9,39,-12,-26,239,131,180,14,4,97
-34,-43,-9,39,-12,-26,239,131,185,14,4,97
-34,-43,-9,39,-12,-26,234,136,185,19,4,92
-34,-43,-9,39,-12,-26,234,136,185,19,4,92
-34,-43,-9,39,-12,-26,229,136,185,14,4,87
-34,-43,-9,39,-12,-26,229,141,185,14,9,87
-34,-43,-9,39,-12,-26,229,141,190,19,9,87
-34,-43,-9,39,-12,-26,229,141,190,19,9,87
-24,-53,-29,39,2,-41,229,136,200,24,9,87
-24,-43,-19,34,-2,-31,229,136,200,24,4,87
-24,-43,-19,34,-2,-31,229,141,204,29,4,87
-24,-48,-24,36,0,-36,234,141,209,29,4,87
-19,-39,-19,29,0,-29,234,141,209,19,4,87
-19,-39,-19,29,0,-29,234,141,209,19,4,87
-19,-39,-19,29,0,-29,234,141,214,19,4,87
-19,-34,-14,26,-2,-24,234,146,214,19,4,87
-14,-29,-14,21,0,-21,244,156,224,34,14,97
-14,-29,-14,21,0,-21,244,156,224,34,14,97
-19,-34,-14,26,-2,-24,244,161,224,34,14,97
-19,-34,-14,26,-2,-24,244,161,224,34,14,97
-19,-34,-14,26,-2,-24,234,165,234,29,4,97
-19,-34,-14,26,-2,-24,234,165,234,29,4,92
-19,-34,-14,26,-2,-24,234,165,234,29,4,92
-14,-29,-14,21,0,-21,234,165,244,29,4,97
-24,-19,4,21,-14,-7,234,170,244,29,4,97
-24,-24,0,24,-12,-12,234,170,244,34,4,97
-19,-24,-4,21,-7,-14,234,180,253,34,4,97
-19,-19,0,19,-9,-9,234,180,258,39,4,97
-19,-29,-9,24,-4,-19,234,170,258,39,0,87
-19,-29,-9,24,-4,-19,234,175,263,39,0,87
-24,-29,-4,26,-9,-17,234,175,268,39,4,87
-24,-24,0,24,-12,-12,234,180,268,39,4,87
-14,-14,0,14,-7,-7,234,180,273,29,-9,82
-14,-14,0,14,-7,-7,234,180,273,29,-14,82
-14,-19,-4,17,-4,-12,234,185,283,29,-14,82
-14,-19,-4,17,-4,-12,234,190,287,39,-9,82
-14,-19,-4,17,-4,-12,234,200,297,48,0,92
-14,-19,-4,17,-4,-12,234,204,302,48,0,92
-14,-19,-4,17,-4,-12,234,204,312,48,0,92
-14,-19,-4,17,-4,-12,234,204,317,48,-4,92
-14,-29,-14,21,0,-21,244,204,322,48,-14,82
-14,-24,-9,19,-2,-17,244,214,326,53,-14,82
-14,-24,-9,19,-2,-17,244,214,336,58,-14,82
-14,-24,-9,19,-2,-17,244,214,341,58,-14,78
-14,-9,4,12,-9,-2,234,219,346,53,-9,87
-14,-9,4,12,-9,-2,234,224,356,53,-9,87
-14,-9,4,12,-9,-2,234,224,370,63,-4,87
-14,-9,4,12,-9,-2,234,224,380,63,-4,87
-4,-9,-4,7,0,-7,244,219,380,68,-9,97
-4,-9,-4,7,0,-7,244,224,385,68,-9,92
-4,-4,0,4,-2,-2,244,224,390,68,-14,92
-4,-4,0,4,-2,-2,244,234,400,73,-14,92
-9,-4,4,7,-7,0,239,234,405,78,-24,82
-14,-4,9,9,-12,2,239,239,414,78,-24,82
-19,-4,14,12,-17,4,234,244,424,82,-24,82
-24,-4,19,14,-21,7,234,248,434,87,-24,87
-24,-4,19,14,-21,7,234,253,453,82,-24,87
-29,-4,24,17,-26,9,234,258,463,82,-24,87
-29,4,34,12,-31,19,239,263,473,82,-24,87
-24,9,34,7,-29,21,239,268,483,87,-34,82
-14,14,29,0,-21,21,239,273,488,97,-43,82
-14,14,29,0,-21,21,239,278,497,97,-43,82
-19,9,29,4,-24,19,239,283,507,107,-43,82
-19,9,29,4,-24,19,239,287,527,107,-43,82
-29,9,39,9,-34,24,239,292,531,97,-34,82
-24,14,39,4,-31,26,239,297,536,102,-34,82
-24,14,39,4,-31,26,239,302,551,102,-34,82
-24,19,43,2,-34,31,239,302,556,102,-34,87
-14,24,39,-4,-26,31,234,302,561,102,-43,97
-14,24,39,-4,-26,31,234,302,570,102,-48,92
-14,24,39,-4,-26,31,229,307,575,102,-48,92
-14,29,43,-7,-29,36,229,307,585,102,-48,92
-14,29,43,-7,-29,36,229,302,585,107,-58,92
-9,29,39,-9,-24,34,229,302,590,107,-58,92
-9,29,39,-9,-24,34,229,302,590,107,-63,92
-9,29,39,-9,-24,34,219,302,590,102,-73,87
-9,34,43,-12,-26,39,219,307,590,102,-63,87
-9,34,43,-12,-26,39,219,307,590,102,-68,92
-9,34,43,-12,-26,39,214,307,595,102,-68,92
-4,34,39,-14,-21,36,214,302,595,102,-68,92
14,34,19,-24,-2,26,204,302,585,102,-68,92
14,43,29,-29,-7,36,200,302,585,97,-68,92
19,43,24,-31,-2,34,195,302,585,87,-73,92
19,43,24,-31,-2,34,190,302,580,82,-73,92
14,43,29,-29,-7,36,185,292,575,73,-82,102
14,43,29,-29,-7,36,185,283,566,63,-87,102
14,43,29,-29,-7,36,185,278,556,63,-87,102
19,43,24,-31,-2,34,185,273,556,68,-87,107
19,39,19,-29,0,29,180,268,541,68,-82,107
19,39,19,-29,0,29,180,263,527,63,-82,107
19,39,19,-29,0,29,180,253,507,63,-78,117
19,39,19,-29,0,29,175,239,488,63,-78,122
34,43,9,-39,12,26,161,234,473,53,-78,122
39,48,9,-43,14,29,156,224,453,48,-78,122
39,53,14,-46,12,34,151,214,444,48,-68,126
43,58,14,-51,14,36,146,204,429,48,-68,136
34,48,14,-41,9,31,156,195,405,48,-73,151
34,48,14,-41,9,31,151,185,390,48,-68,151
34,43,9,-39,12,26,146,175,375,48,-58,156
34,43,9,-39,12,26,146,170,361,48,-53,156
39,48,9,-43,14,29,131,161,356,43,-48,156
43,48,4,-46,19,26,131,151,341,48,-39,161
43,48,4,-46,19,26,126,141,331,48,-34,165
43,48,4,-46,19,26,122,141,317,48,-19,170
53,39,-14,-46,34,12,131,126,302,53,-14,180
53,39,-14,-46,34,12,126,122,287,53,-14,180
53,39,-14,-46,34,12,126,112,273,53,-4,185
53,39,-14,-46,34,12,126,112,263,58,4,190
39,39,0,-39,19,19,117,97,248,63,24,204
39,39,0,-39,19,19,122,92,234,68,34,209
39,39,0,-39,19,19,122,82,219,73,43,214
34,34,0,-34,17,17,122,78,200,78,53,219
43,43,0,-43,21,21,117,68,185,73,48,214
43,48,4,-46,19,26,112,58,165,68,58,219
43,48,4,-46,19,26,112,53,146,63,68,224
43,48,4,-46,19,26,112,43,131,63,68,229
43,58,14,-51,14,36,112,29,126,63,82,234
43,58,14,-51,14,36,112,29,122,53,92,239
39,58,19,-48,9,39,112,19,107,48,97,239
34,58,24,-46,4,41,112,14,97,43,97,239
24,48,24,-36,0,36,112,0,82,39,97,239
24,48,24,-36,0,36,112,-4,73,39,102,244
24,48,24,-36,0,36,112,-9,63,34,107,244
19,48,29,-34,-4,39,112,-14,58,29,107,253
29,48,19,-39,4,34,112,-4,53,34,117,244
29,48,19,-39,4,34,112,-9,43,34,117,244
29,48,19,-39,4,34,112,-14,34,34,117,244
29,48,19,-39,4,34,112,-14,29,39,117,244
19,39,19,-29,0,29,107,-9,29,34,112,244
9,39,29,-24,-9,34,107,-14,24,29,112,244
9,39,29,-24,-9,34,107,-14,19,24,112,239
9,43,34,-26,-12,39,107,-19,14,19,112,239
9,43,34,-26,-12,39,107,-19,4,19,122,248
9,43,34,-26,-12,39,107,-19,0,14,122,248
9,34,24,-21,-7,29,112,-19,-4,9,122,248
9,34,24,-21,-7,29,112,-19,-9,9,122,253
-4,43,48,-19,-26,46,112,-29,-9,19,112,244
-4,43,48,-19,-26,46,112,-34,-14,9,112,244
4,48,43,-26,-19,46,112,-34,-19,9,112,244
4,48,43,-26,-19,46,112,-39,-19,4,112,244
4,48,43,-26,-19,46,102,-39,-19,4,112,234
0,48,48,-24,-24,48,102,-39,-24,0,112,234
-4,48,53,-21,-29,51,102,-39,-24,-4,112,234
-4,48,53,-21,-29,51,102,-39,-24,-4,112,234
-4,39,43,-17,-24,41,112,-43,-24,-4,102,244
4,39,34,-21,-14,36,112,-43,-24,-4,97,244
4,39,34,-21,-14,36,112,-43,-24,-4,97,244
4,39,34,-21,-14,36,112,-43,-24,-9,97,244
4,39,34,-21,-14,36,112,-43,-24,-9,107,244
0,39,39,-19,-19,39,112,-43,-24,-14,102,244
-4,39,43,-17,-24,41,112,-43,-24,-14,102,244
-4,34,39,-14,-21,36,112,-39,-24,-9,102,244
-4,34,39,-14,-21,36,112,-39,-24,-9,97,244
-4,29,34,-12,-19,31,112,-39,-24,-9,97,244
-4,29,34,-12,-19,31,112,-39,-24,-9,92,244
-4,34,39,-14,-21,36,112,-39,-24,-14,82,244
4,34,29,-19,-12,31,102,-39,-19,-24,92,244
4,34,29,-19,-12,31,102,-39,-19,-19,97,244
4,39,34,-21,-14,36,102,-39,-19,-19,97,244
4,39,34,-21,-14,36,107,-39,-19,-19,97,239
-4,39,43,-17,-24,41,117,-39,-14,-9,97,239
-9,34,43,-12,-26,39,117,-34,-14,-14,97,244
-9,34,43,-12,-26,39,117,-34,-9,-14,97,244
-4,34,39,-14,-21,36,122,-34,-4,-14,97,239
-4,34,39,-14,-21,36,112,-34,-14,-9,97,239
-4,34,39,-14,-21,36,112,-29,-9,-9,97,239
-4,34,39,-14,-21,36,112,-29,-9,-9,97,239
-9,29,39,-9,-24,34,112,-29,-9,-14,87,234
-9,29,39,-9,-24,34,122,-39,-4,-4,87,224
-9,29,39,-9,-24,34,122,-29,0,-4,87,224
-9,29,39,-9,-24,34,117,-29,0,-4,87,224
-9,24,34,-7,-21,29,117,-29,0,-4,87,224
-14,24,39,-4,-26,31,126,-19,4,-4,87,224
-14,24,39,-4,-26,31,126,-19,4,-4,87,224
-14,24,39,-4,-26,31,126,-19,9,-4,82,224
-14,24,39,-4,-26,31,126,-14,9,-4,78,224
-4,34,39,-14,-21,36,126,-14,14,-4,68,214
-4,34,39,-14,-21,36,126,-14,14,-4,73,214
-4,34,39,-14,-21,36,126,-14,19,0,78,209
-4,34,39,-14,-21,36,126,-9,19,0,78,204
-14,34,48,-9,-31,41,126,-9,14,-4,82,214
-14,29,43,-7,-29,36,131,-9,14,4,82,209
-9,19,29,-4,-19,24,131,-4,24,9,82,204
-4,9,14,-2,-9,12,131,0,34,14,82,200
-4,19,24,-7,-14,21,131,0,29,14,73,209
-9,19,29,-4,-19,24,136,4,34,9,73,204
-9,19,29,-4,-19,24,136,4,34,4,73,204
-4,19,24,-7,-14,21,136,0,34,0,73,209
-4,19,24,-7,-14,21,131,0,39,14,73,209
-4,24,29,-9,-17,26,131,9,39,19,73,209
-4,24,29,-9,-17,26,131,9,39,19,73,209
-4,24,29,-9,-17,26,131,4,43,19,73,204
-4,19,24,-7,-14,21,136,14,43,19,73,204
-4,19,24,-7,-14,21,136,14,43,19,73,204
-4,19,24,-7,-14,21,136,14,39,19,73,204
-4,19,24,-7,-14,21,136,14,39,19,73,204
-9,9,19,0,-14,14,136,19,39,19,73,204
-9,9,19,0,-14,14,136,19,39,19,78,204
-9,9,19,0,-14,14,136,19,48,19,78,204
-9,9,19,0,-14,14,136,19,53,19,78,204
-9,24,34,-7,-21,29,136,9,43,24,78,204
-9,24,34,-7,-21,29,136,9,43,29,78,209
-9,24,34,-7,-21,29,136,14,43,29,78,209
-9,24,34,-7,-21,29,136,14,43,29,78,209
0,24,24,-12,-12,24,126,14,43,29,87,209
0,24,24,-12,-12,24,126,9,43,29,87,209
0,29,29,-14,-14,29,126,9,43,29,87,209
0,29,29,-14,-14,29,126,9,43,29,87,209
-4,19,24,-7,-14,21,136,0,34,29,87,200
-14,14,29,0,-21,21,136,0,29,24,87,204
-19,14,34,2,-26,24,136,0,29,19,87,204
-24,14,39,4,-31,26,136,0,29,19,87,204
-14,19,34,-2,-24,26,136,0,29,34,102,214
-14,24,39,-4,-26,31,136,0,34,34,102,214
-14,29,43,-7,-29,36,136,-4,39,34,107,214
-14,34,48,-9,-31,41,136,-4,43,34,107,214
-14,34,48,-9,-31,41,126,-9,34,24,107,214
-14,39,53,-12,-34,46,126,-9,29,19,107,214
-14,34,48,-9,-31,41,126,-9,29,19,107,219
-14,24,39,-4,-26,31,126,-9,24,19,102,219
-14,29,43,-7,-29,36,126,-9,14,19,92,209
-14,29,43,-7,-29,36,126,-14,14,19,92,209
-14,29,43,-7,-29,36,126,-14,14,19,92,209
-14,24,39,-4,-26,31,126,-14,14,19,97,209
-4,24,29,-9,-17,26,136,-4,24,29,107,219
-4,34,39,-14,-21,36,136,-14,14,29,107,219
-4,43,48,-19,-26,46,136,-14,14,24,102,219
-4,43,48,-19,-26,46,131,-19,14,19,102,219
-4,39,43,-17,-24,41,131,-9,4,9,102,219
-4,34,39,-14,-21,36,131,-9,4,9,102,219
0,34,34,-17,-17,34,131,-9,4,14,107,224
0,34,34,-17,-17,34,131,-9,4,14,107,224
-4,43,48,-19,-26,46,122,-14,4,14,107,214
-14,43,58,-14,-36,51,117,-19,0,4,107,214
-14,48,63,-17,-39,56,117,-19,0,4,107,214
-14,48,63,-17,-39,56,122,-24,0,9,107,219
14,48,34,-31,-9,41,131,-24,0,19,117,219
-14,29,43,-7,-29,36,122,-24,-9,9,107,214
-19,19,39,0,-29,29,131,-14,0,9,117,214
4,48,43,-26,-19,46,141,-14,0,19,117,219
29,58,29,-43,0,43,126,-19,0,19,117,214
14,68,53,-41,-19,61,126,-19,0,19,117,219
9,68,58,-39,-24,63,126,-19,0,19,117,224
4,68,63,-36,-29,65,126,-19,0,19,117,229
0,68,68,-34,-34,68,126,-19,0,19,117,234
9,68,58,-39,-24,63,122,-19,0,19,122,229
9,73,63,-41,-26,68,117,-19,0,19,122,229
9,82,73,-46,-31,78,117,-19,4,19,126,239
9,87,78,-48,-34,82,117,-19,14,24,131,239
19,82,63,-51,-21,73,122,-19,14,29,131,229
19,87,68,-53,-24,78,117,-19,9,29,126,229
19,92,73,-56,-26,82,117,-24,9,29,126,234
24,102,78,-63,-26,90,117,-24,14,34,122,239
24,117,92,-70,-34,104,112,-29,14,39,126,239
29,117,87,-73,-29,102,102,-29,19,39,131,244
39,126,87,-82,-24,107,92,-29,29,43,136,248
43,136,92,-90,-24,114,87,-29,29,48,136,253
43,146,102,-95,-29,124,68,-29,29,53,146,258
48,151,102,-100,-26,126,53,-34,29,53,156,258
53,161,107,-107,-26,134,39,-43,29,58,161,263
53,165,112,-109,-29,139,29,-43,29,58,161,268
53,170,117,-112,-31,143,14,-48,29,63,161,263
63,175,112,-119,-24,143,4,-53,24,63,161,263
63,175,112,-119,-24,143,-4,-68,24,58,161,263
63,175,112,-119,-24,143,-9,-87,14,53,161,263
58,165,107,-112,-24,136,-14,-87,-4,43,156,273
53,165,112,-109,-29,139,-19,-87,-4,43,156,273
48,165,117,-107,-34,141,-19,-82,-4,43,161,283
43,165,122,-104,-39,143,-19,-82,-4,43,161,287
58,175,117,-117,-29,146,-19,-97,-4,53,161,287
68,180,112,-124,-21,146,-19,-97,-4,53,170,287
78,185,107,-131,-14,146,-14,-92,-4,53,175,287
92,190,97,-141,-2,143,-9,-87,0,63,180,287
97,200,102,-148,-2,151,-9,-68,14,78,185,307
112,204,92,-158,9,148,-4,-58,24,82,195,312
112,209,97,-161,7,153,9,-53,34,92,204,322
107,224,117,-165,-4,170,14,-48,34,97,209,331
112,214,102,-163,4,158,14,-39,39,112,214,341
112,200,87,-156,12,143,19,-39,39,112,219,341
112,190,78,-151,17,134,29,-39,34,112,219,341
112,175,63,-143,24,119,39,-39,29,97,214,326
78,146,68,-112,4,107,53,-48,0,68,200,322
58,126,68,-92,-4,97,63,-48,-14,48,175,307
29,107,78,-68,-24,92,78,-63,-19,39,170,287
14,78,63,-46,-24,70,82,-63,-34,19,146,273
9,78,68,-43,-29,73,92,-82,-48,0,126,253
0,73,73,-36,-36,73,102,-82,-53,-4,117,239
-4,63,68,-29,-36,65,107,-82,-53,-9,112,229
-9,63,73,-26,-41,68,117,-78,-53,-19,107,219
-4,63,68,-29,-36,65,122,-68,-53,-9,107,214
-4,63,68,-29,-36,65,126,-63,-53,-9,102,219
-9,58,68,-24,-39,63,126,-63,-53,-9,97,219
-9,53,63,-21,-36,58,131,-58,-53,-9,97,219
-19,43,63,-12,-41,53,146,-48,-48,-19,87,214
-19,39,58,-9,-39,48,146,-48,-48,-19,82,209
-19,39,58,-9,-39,48,151,-48,-48,-19,82,200
-24,34,58,-4,-41,46,156,-43,-48,-19,82,195
-24,34,58,-4,-41,46,146,-43,-53,-19,92,204
-19,34,53,-7,-36,43,146,-43,-53,-19,92,200
-19,29,48,-4,-34,39,146,-43,-63,-24,92,200
-19,29,48,-4,-34,39,146,-43,-63,-24,87,200
-29,14,43,7,-36,29,151,-43,-53,-24,78,209
-29,14,43,7,-36,29,151,-43,-53,-24,78,209
-29,14,43,7,-36,29,151,-43,-53,-24,78,204
-34,19,53,7,-43,36,151,-43,-48,-24,78,204
-34,24,58,4,-46,41,151,-34,-48,-14,92,204
-39,24,63,7,-51,43,151,-34,-48,-14,92,204
-39,29,68,4,-53,48,156,-39,-48,-14,92,204
-29,34,63,-2,-46,48,156,-39,-48,-14,92,204
-29,24,53,2,-41,39,146,-39,-58,-14,102,214
-29,24,53,2,-41,39,146,-39,-58,-9,102,219
-29,24,53,2,-41,39,151,-39,-53,-9,102,219
-29,24,53,2,-41,39,151,-39,-53,-14,102,214
-19,14,34,2,-26,24,151,-34,-63,-24,87,204
-24,19,43,2,-34,31,151,-34,-63,-19,82,204
-24,19,43,2,-34,31,156,-34,-63,-19,78,204
-24,14,39,4,-31,26,170,-34,-63,-19,73,204
-24,9,34,7,-29,21,161,-43,-63,-29,82,204
-24,9,34,7,-29,21,161,-43,-68,-29,78,204
-24,9,34,7,-29,21,161,-43,-68,-29,78,204
-24,9,34,7,-29,21,161,-43,-63,-29,82,204
-24,29,53,-2,-39,41,170,-34,-53,-19,82,204
-4,39,43,-17,-24,41,180,-14,-43,-9,82,209
-9,4,14,2,-12,9,175,-9,-43,-19,63,195
-29,-29,0,29,-14,-14,180,4,-48,-29,63,180
-29,-19,9,24,-19,-4,180,9,-53,-29,58,170
-19,-9,9,14,-14,0,180,9,-43,-24,58,165
-9,-24,-14,17,2,-19,180,0,-34,-9,58,165
-19,-39,-19,29,0,-29,190,4,-24,0,68,170
-4,-43,-39,24,17,-41,200,24,14,39,82,170
9,-43,-53,17,31,-48,195,58,87,87,97,180
29,-34,-63,2,46,-48,175,82,141,141,126,185
53,-29,-82,-12,68,-56,151,78,170,224,180,209
87,4,-82,-46,85,-39,97,78,195,351,283,268
146,48,-97,-97,122,-24,34,73,234,507,434,370
229,102,-126,-165,178,-12,-43,19,185,644,580,483
278,156,-122,-217,200,17,-126,-102,53,761,732,600
317,204,-112,-261,214,46,-195,-204,-63,907,922,741
366,297,-68,-331,217,114,-287,-297,-131,1093,1107,897
409,424,14,-417,197,219,-390,-434,-224,1273,1307,1049
444,561,117,-502,163,339,-492,-624,-375,1424,1493,1210
453,663,209,-558,122,436,-580,-824,-561,1527,1659,1351
419,741,322,-580,48,531,-639,-1054,-785,1546,1761,1493
370,829,458,-600,-43,644,-712,-1376,-1102,1473,1800,1605
326,897,570,-612,-122,734,-785,-1678,-1459,1322,1795,1708
278,946,668,-612,-195,807,-834,-1873,-1756,1141,1742,1781
224,971,746,-597,-261,858,-868,-2030,-2059,878,1615,1815
175,927,751,-551,-287,839,-883,-2142,-2337,570,1429,1815
151,878,727,-514,-287,802,-897,-2205,-2518,283,1220,1781
92,897,805,-495,-356,851,-946,-2298,-2674,-126,936,1703
34,927,893,-480,-429,910,-980,-2376,-2825,-639,561,1571
24,917,893,-470,-434,905,-971,-2298,-2835,-1044,263,1415
24,873,849,-448,-412,861,-888,-2098,-2669,-1200,92,1229
-14,746,761,-366,-387,753,-722,-1805,-2347,-1195,-19,995
-53,541,595,-244,-324,568,-497,-1395,-1869,-1049,-112,717
-78,351,429,-136,-253,390,-307,-1005,-1410,-883,-200,468
-68,229,297,-80,-183,263,-190,-746,-1083,-775,-253,307
-53,122,175,-34,-114,148,-97,-590,-844,-673,-273,229
-53,34,87,9,-70,61,-29,-468,-658,-575,-263,200
-73,-9,63,41,-68,26,34,-351,-507,-483,-234,170
-73,-63,9,68,-41,-26,73,-263,-390,-390,-224,141
-82,-107,-24,95,-29,-65,102,-204,-326,-351,-224,102
-92,-112,-19,102,-36,-65,131,-165,-287,-326,-224,58
-92,-102,-9,97,-41,-56,146,-122,-239,-287,-200,43
-87,-63,24,75,-56,-19,161,-78,-180,-248,-165,53
-68,-24,43,46,-56,9,190,-39,-122,-209,-131,87
-48,-24,24,36,-36,0,219,-4,-58,-165,-112,97
-43,-63,-19,53,-12,-41,239,14,-19,-131,-92,117
-43,-73,-29,58,-7,-51,248,29,14,-87,-68,126
-29,-68,-39,48,4,-53,239,48,34,-63,-58,131
-9,-58,-48,34,19,-53,224,58,53,-34,-39,126
-9,-43,-34,26,12,-39,224,58,68,-24,-24,126
-19,-29,-9,24,-4,-19,214,63,68,-43,-24,136
-24,-24,0,24,-12,-12,224,63,78,-43,-24,136
-24,-24,0,24,-12,-12,234,68,87,-39,-24,141
-24,-24,0,24,-12,-12,234,73,102,-24,-24,141
-29,-24,4,26,-17,-9,234,68,97,-19,-34,136
-29,-19,9,24,-19,-4,234,73,102,-14,-34,136
-24,-14,9,19,-17,-2,234,73,102,-9,-34,136
-24,-9,14,17,-19,2,229,73,102,-9,-29,131
-34,-14,19,24,-26,2,229,87,117,-14,-24,122
-34,-14,19,24,-26,2,229,87,122,-14,-24,126
-34,-19,14,26,-24,-2,229,87,126,-14,-24,126
-34,-24,9,29,-21,-7,234,87,131,-4,-24,126
-24,-9,14,17,-19,2,248,92,131,4,-24,126
-24,-4,19,14,-21,7,248,92,136,4,-24,126
-24,0,24,12,-24,12,244,97,136,9,-24,122
-24,4,29,9,-26,17,244,97,136,9,-24,122
-24,-4,19,14,-21,7,239,97,146,14,-14,136
-24,-4,19,14,-21,7,239,102,146,14,-9,136
-24,-4,19,14,-21,7,239,102,151,19,-9,136
-24,-4,19,14,-21,7,239,102,151,19,-9,136
-34,-14,19,24,-26,2,229,107,161,14,-19,136
-34,-4,29,19,-31,12,229,107,161,14,-24,136
-34,-4,29,19,-31,12,229,112,165,19,-24,136
-34,-9,24,21,-29,7,234,112,170,19,-24,136
-29,-9,19,19,-24,4,224,107,161,19,-34,126
-29,-9,19,19,-24,4,224,102,161,19,-34,126
-29,-9,19,19,-24,4,224,97,165,19,-34,126
-29,-4,24,17,-26,9,224,97,165,19,-34,126
-14,4,19,4,-17,12,224,107,175,24,-24,131
-14,9,24,2,-19,17,224,107,175,24,-24,136
-19,9,29,4,-24,19,224,112,175,24,-24,141
-19,14,34,2,-26,24,224,112,175,24,-24,146
-19,4,24,7,-21,14,224,107,175,19,-34,141
-19,4,24,7,-21,14,224,107,175,19,-34,131
-19,4,24,7,-21,14,224,107,175,19,-34,126
-14,9,24,2,-19,17,224,107,185,19,-34,126
-24,4,29,9,-26,17,224,117,195,24,-29,131
-24,-4,19,14,-21,7,224,122,195,34,-24,136
-19,-9,9,14,-14,0,224,136,204,39,-19,141
-19,-9,9,14,-14,0,224,141,209,48,-14,146
-14,-4,9,9,-12,2,224,131,200,39,-24,141
-9,0,9,4,-9,4,224,136,204,39,-29,136
-9,4,14,2,-12,9,224,136,209,39,-29,131
-4,14,19,-4,-12,17,224,141,209,39,-34,126
-9,14,24,-2,-17,19,224,141,214,39,-29,131
-14,14,29,0,-21,21,224,141,214,39,-34,131
-19,9,29,4,-24,19,224,146,224,39,-34,131
-24,9,34,7,-29,21,224,151,229,48,-29,131
-19,0,19,9,-19,9,224,161,234,58,-29,136
-14,0,14,7,-14,7,224,165,244,58,-29,141
-9,0,9,4,-9,4,224,165,258,58,-29,146
-4,0,4,2,-4,2,224,165,268,58,-34,151
-9,9,19,0,-14,14,224,165,263,53,-39,136
-14,14,29,0,-21,21,224,175,268,53,-43,131
-19,14,34,2,-26,24,224,175,278,53,-48,126
-24,14,39,4,-31,26,224,175,283,48,-53,117
-14,9,24,2,-19,17,224,180,287,53,-48,122
-14,9,24,2,-19,17,224,185,297,53,-48,126
-14,9,24,2,-19,17,224,185,312,63,-43,131
-14,9,24,2,-19,17,224,185,322,63,-43,136
-24,9,34,7,-29,21,224,200,331,68,-48,136
-24,9,34,7,-29,21,224,204,336,68,-48,131
-24,14,39,4,-31,26,224,204,341,68,-53,131
-24,14,39,4,-31,26,224,214,351,73,-53,131
-14,29,43,-7,-29,36,224,204,356,73,-58,126
-14,34,48,-9,-31,41,219,209,366,68,-63,122
-14,39,53,-12,-34,46,209,214,375,68,-68,117
-14,43,58,-14,-36,51,204,219,385,68,-73,117
-4,29,34,-12,-19,31,209,234,405,78,-68,131
-9,24,34,-7,-21,29,214,239,414,82,-63,136
-9,29,39,-9,-24,34,224,244,424,87,-58,141
-4,29,34,-12,-19,31,229,248,434,97,-63,141
-9,34,43,-12,-26,39,224,244,429,92,-73,136
-14,34,48,-9,-31,41,219,248,439,87,-73,131
-24,29,53,-2,-39,41,214,253,448,92,-73,126
-29,29,58,0,-43,43,209,258,468,87,-73,122
-24,29,53,-2,-39,41,219,263,483,92,-82,131
-14,34,48,-9,-31,41,219,268,488,102,-82,131
-9,34,43,-12,-26,39,219,273,502,107,-82,131
-4,39,43,-17,-24,41,219,273,507,112,-82,136
-4,48,53,-21,-29,51,204,273,507,107,-92,131
-4,53,58,-24,-31,56,204,273,512,102,-97,122
-4,58,63,-26,-34,61,200,278,512,97,-97,117
-4,68,73,-31,-39,70,200,278,517,92,-97,112
-14,63,78,-24,-46,70,200,283,527,97,-107,117
-9,58,68,-24,-39,63,200,283,531,97,-107,122
-9,53,63,-21,-36,58,200,283,531,97,-112,126
-9,48,58,-19,-34,53,190,283,531,92,-122,126
-4,63,68,-29,-36,65,190,278,531,92,-122,117
0,63,63,-31,-31,63,190,278,531,92,-126,122
4,63,58,-34,-26,61,185,278,536,92,-126,122
14,63,48,-39,-17,56,185,273,536,92,-126,122
19,63,43,-41,-12,53,185,273,536,87,-136,131
14,73,58,-43,-21,65,180,273,536,87,-136,131
14,73,58,-43,-21,65,175,273,536,82,-141,131
9,73,63,-41,-26,68,170,273,531,82,-141,131
14,63,48,-39,-17,56,165,273,527,92,-131,131
14,63,48,-39,-17,56,165,263,517,82,-136,131
14,63,48,-39,-17,56,165,258,507,82,-136,131
19,63,43,-41,-12,53,165,253,507,87,-136,136
19,53,34,-36,-7,43,151,248,497,78,-131,136
19,48,29,-34,-4,39,151,244,488,73,-131,136
19,43,24,-31,-2,34,151,234,473,73,-126,146
19,39,19,-29,0,29,146,219,458,73,-126,151
29,48,19,-39,4,34,141,204,434,63,-136,151
39,48,9,-43,14,29,136,195,414,58,-136,151
43,48,4,-46,19,26,131,185,405,58,-126,156
53,48,-4,-51,29,21,126,175,390,58,-126,165
53,53,0,-53,26,26,126,175,385,58,-122,161
53,58,4,-56,24,31,122,165,370,58,-117,161
53,58,4,-56,24,31,117,156,356,58,-107,165
53,63,9,-58,21,36,117,151,341,58,-102,165
48,58,9,-53,19,34,122,141,326,73,-87,170
53,58,4,-56,24,31,122,131,312,78,-78,180
53,58,4,-56,24,31,117,122,302,78,-73,190
53,58,4,-56,24,31,112,122,287,78,-58,200
53,58,4,-56,24,31,112,107,273,73,-43,209
53,58,4,-56,24,31,107,102,258,73,-43,209
53,58,4,-56,24,31,107,92,244,73,-34,214
53,58,4,-56,24,31,107,92,234,78,-24,219
48,58,9,-53,19,34,97,78,219,78,-24,214
48,58,9,-53,19,34,102,73,204,78,-14,219
48,58,9,-53,19,34,102,63,190,78,-4,224
43,53,9,-48,17,31,102,58,170,78,4,229
53,43,-9,-48,31,17,107,53,156,73,19,244
53,48,-4,-51,29,21,102,48,136,68,29,248
53,48,-4,-51,29,21,102,48,117,63,39,253
53,48,-4,-51,29,21,102,43,102,63,39,258
43,58,14,-51,14,36,102,39,87,73,53,273
43,58,14,-51,14,36,102,39,82,63,63,278
39,58,19,-48,9,39,102,29,68,58,68,278
34,58,24,-46,4,41,102,24,58,53,68,278
34,48,14,-41,9,31,102,14,43,48,58,278
34,48,14,-41,9,31,102,4,34,48,63,283
34,48,14,-41,9,31,102,-4,24,43,68,283
29,48,19,-39,4,34,102,-14,19,39,68,292
19,48,29,-34,-4,39,92,-24,4,39,68,283
19,48,29,-34,-4,39,92,-29,-4,34,68,283
19,48,29,-34,-4,39,92,-34,-14,29,68,283
19,48,29,-34,-4,39,92,-34,-19,29,68,283
29,53,24,-41,2,39,82,-39,-19,24,63,283
19,58,39,-39,-9,48,78,-43,-24,19,63,283
19,63,43,-41,-12,53,73,-43,-29,14,63,278
19,73,53,-46,-17,63,68,-48,-34,9,63,278
19,63,43,-41,-12,53,73,-39,-43,9,73,283
19,63,43,-41,-12,53,78,-39,-48,4,73,287
19,53,34,-36,-7,43,87,-39,-53,0,73,292
19,53,34,-36,-7,43,92,-39,-58,0,73,302
4,39,34,-21,-14,36,92,-39,-58,0,63,297
4,34,29,-19,-12,31,92,-43,-63,-9,63,292
14,34,19,-24,-2,26,92,-43,-68,-9,63,287
14,29,14,-21,0,21,92,-48,-68,-14,63,283
24,43,19,-34,2,31,82,-58,-68,-4,73,287
19,48,29,-34,-4,39,82,-58,-73,-9,73,292
14,53,39,-34,-12,46,82,-58,-73,-14,73,297
14,58,43,-36,-14,51,82,-58,-73,-14,73,302
14,68,53,-41,-19,61,82,-53,-63,-4,73,292
24,68,43,-46,-9,56,82,-53,-63,-4,68,292
24,68,43,-46,-9,56,82,-53,-63,-4,68,292
24,68,43,-46,-9,56,82,-53,-63,-9,68,292
14,63,48,-39,-17,56,92,-63,-63,-19,58,292
9,58,48,-34,-19,53,92,-63,-63,-24,53,292
4,53,48,-29,-21,51,92,-63,-63,-24,53,292
4,43,39,-24,-17,41,92,-58,-63,-19,53,292
4,39,34,-21,-14,36,82,-68,-73,-19,58,292
4,29,24,-17,-9,26,82,-68,-73,-19,58,292
4,24,19,-14,-7,21,82,-68,-73,-19,53,292
4,24,19,-14,-7,21,82,-68,-73,-24,43,292
14,34,19,-24,-2,26,82,-68,-68,-34,34,273
14,43,29,-29,-7,36,82,-68,-68,-29,39,273
14,58,43,-36,-14,51,82,-68,-68,-29,39,273
14,68,53,-41,-19,61,87,-68,-68,-29,39,268
24,58,34,-41,-4,46,97,-63,-58,-24,43,283
19,43,24,-31,-2,34,97,-53,-53,-24,48,292
19,34,14,-26,2,24,97,-48,-43,-19,53,297
24,24,0,-24,12,12,102,-43,-34,-14,58,297
14,34,19,-24,-2,26,92,-43,-43,-19,48,287
14,34,19,-24,-2,26,92,-39,-39,-19,48,287
14,34,19,-24,-2,26,92,-39,-39,-19,48,287
9,29,19,-19,-4,24,92,-39,-39,-24,39,283
19,43,24,-31,-2,34,82,-48,-43,-24,39,273
19,48,29,-34,-4,39,82,-39,-39,-24,39,273
19,53,34,-36,-7,43,78,-39,-39,-24,39,273
19,53,34,-36,-7,43,78,-39,-39,-24,39,273
14,48,34,-31,-9,41,87,-39,-34,-14,39,263
14,43,29,-29,-7,36,87,-39,-34,-14,39,263
14,39,24,-26,-4,31,87,-39,-29,-14,34,263
14,34,19,-24,-2,26,87,-34,-29,-14,29,263
24,29,4,-26,9,17,78,-34,-24,-4,39,268
24,24,0,-24,12,12,78,-34,-24,-4,43,273
24,19,-4,-21,14,7,78,-34,-19,0,48,273
24,14,-9,-19,17,2,78,-29,-19,0,48,273
14,29,14,-21,0,21,87,-19,-14,-4,34,273
14,29,14,-21,0,21,92,-19,-14,4,34,268
19,24,4,-21,7,14,92,-14,-4,9,34,263
24,19,-4,-21,14,7,92,-9,4,14,34,258
14,19,4,-17,4,12,92,-19,0,14,34,258
9,19,9,-14,0,14,97,-14,4,9,34,253
9,19,9,-14,0,14,97,-14,4,4,34,253
14,19,4,-17,4,12,97,-19,4,0,34,258
24,19,-4,-21,14,7,97,-19,9,4,34,268
24,24,0,-24,12,12,92,-9,9,9,34,268
24,24,0,-24,12,12,87,-9,9,9,34,268
24,24,0,-24,12,12,82,-14,14,9,34,263
14,9,-4,-12,9,2,87,-14,14,19,24,258
14,9,-4,-12,9,2,87,-14,14,19,24,253
14,9,-4,-12,9,2,87,-14,9,19,24,248
14,9,-4,-12,9,2,87,-14,9,19,24,244
19,9,-9,-14,14,0,87,-9,9,29,34,244
19,9,-9,-14,14,0,87,-9,9,29,39,244
19,9,-9,-14,14,0,87,-9,19,29,39,244
19,9,-9,-14,14,0,87,-9,24,29,39,244
29,14,-14,-21,21,0,78,0,14,24,39,253
29,14,-14,-21,21,0,78,0,14,29,39,258
29,14,-14,-21,21,0,78,4,14,29,39,258
29,14,-14,-21,21,0,78,4,14,29,39,258
19,19,0,-19,9,9,68,-4,4,29,39,258
19,24,4,-21,7,14,68,-9,4,29,39,258
19,34,14,-26,2,24,68,-9,4,29,39,258
19,39,19,-29,0,29,68,-9,4,29,39,258
19,39,19,-29,0,29,68,-9,4,29,29,248
14,34,19,-24,-2,26,68,-9,0,24,29,253
14,34,19,-24,-2,26,68,-9,0,19,29,253
14,34,19,-24,-2,26,68,-9,0,19,29,253
14,34,19,-24,-2,26,58,-19,-4,24,34,258
14,34,19,-24,-2,26,58,-19,-4,24,34,263
14,34,19,-24,-2,26,58,-24,-4,24,39,268
14,34,19,-24,-2,26,58,-24,-4,24,39,273
24,34,9,-29,7,21,58,-24,4,34,39,273
24,39,14,-31,4,26,58,-19,0,29,39,273
24,34,9,-29,7,21,58,-14,0,29,39,278
24,24,0,-24,12,12,58,-9,-4,29,34,278
14,24,9,-19,2,17,58,-14,-14,19,24,273
14,29,14,-21,0,21,58,-24,-14,19,24,268
14,34,19,-24,-2,26,58,-29,-14,19,24,263
14,34,19,-24,-2,26,58,-34,-14,19,29,258
14,24,9,-19,2,17,43,-24,-24,9,39,268
14,34,19,-24,-2,26,39,-34,-34,9,39,268
14,43,29,-29,-7,36,34,-34,-34,4,34,268
14,43,29,-29,-7,36,24,-39,-34,0,34,268
4,39,34,-21,-14,36,29,-39,-24,9,34,268
4,34,29,-19,-12,31,34,-39,-24,9,34,268
9,34,24,-21,-7,29,39,-39,-24,14,39,273
9,34,24,-21,-7,29,43,-39,-24,14,39,273
14,53,39,-34,-12,46,43,-48,-34,4,29,253
-9,58,68,-24,-39,63,29,-58,-39,0,19,253
4,58,53,-31,-24,56,34,-43,-34,9,34,258
9,58,48,-34,-19,53,39,-39,-29,9,39,263
14,58,43,-36,-14,51,43,-34,-24,9,43,268
19,58,39,-39,-9,48,48,-29,-19,9,48,273
29,53,24,-41,2,39,34,-29,-29,9,43,268
29,53,24,-41,2,39,29,-29,-29,9,43,268
29,58,29,-43,0,43,29,-29,-24,9,48,278
29,58,29,-43,0,43,29,-29,-14,14,53,278
19,73,53,-46,-17,63,24,-29,-4,29,68,287
19,78,58,-48,-19,68,19,-29,-9,29,68,287
19,82,63,-51,-21,73,19,-34,-9,29,73,292
24,92,68,-58,-21,80,19,-34,-4,34,73,297
34,107,73,-70,-19,90,14,-29,-14,29,68,292
39,107,68,-73,-14,87,4,-29,-9,29,73,292
48,117,68,-82,-9,92,-4,-29,0,34,78,292
53,126,73,-90,-9,100,-9,-29,0,39,78,292
53,146,92,-100,-19,119,-19,-29,0,34,68,287
58,151,92,-104,-17,122,-34,-34,0,34,78,287
63,161,97,-112,-17,129,-48,-43,0,39,82,292
63,165,102,-114,-19,134,-58,-43,0,39,82,297
53,161,107,-107,-26,134,-73,-39,0,34,82,302
63,165,102,-114,-19,134,-82,-43,-4,34,82,302
63,165,102,-114,-19,134,-92,-58,-4,29,82,302
63,165,102,-114,-19,134,-97,-78,-14,24,82,302
68,175,107,-122,-19,141,-107,-97,-14,34,97,312
73,185,112,-129,-19,148,-117,-97,-14,34,97,312
78,195,117,-136,-19,156,-122,-92,-14,34,102,322
82,204,122,-143,-19,163,-126,-92,-14,34,102,326
82,195,112,-139,-14,153,-117,-87,-14,43,112,341
87,190,102,-139,-7,146,-117,-87,-14,43,122,346
92,185,92,-139,0,139,-112,-82,-14,43,126,351
102,180,78,-141,12,129,-107,-78,-9,53,131,356
107,190,82,-148,12,136,-112,-73,-9,63,141,361
122,195,73,-158,24,134,-112,-68,-4,63,146,361
122,200,78,-161,21,139,-102,-68,0,68,151,366
117,214,97,-165,9,156,-102,-68,-4,68,151,370
126,219,92,-173,17,156,-102,-48,0,73,141,370
122,209,87,-165,17,148,-97,-48,0,73,141,370
117,204,87,-161,14,146,-87,-48,-4,73,136,370
112,195,82,-153,14,139,-78,-48,-9,58,126,356
87,175,87,-131,0,131,-53,-58,-24,43,122,351
68,156,87,-112,-9,122,-43,-58,-34,29,97,336
39,136,97,-87,-29,117,-29,-73,-34,24,92,317
24,107,82,-65,-29,95,-24,-73,-43,9,68,302
29,92,63,-61,-17,78,-14,-73,-48,9,63,297
19,82,63,-51,-21,73,-4,-73,-53,4,58,287
14,68,53,-41,-19,61,0,-73,-53,0,58,283
9,63,53,-36,-21,58,9,-68,-53,-9,58,278
4,53,48,-29,-21,51,14,-73,-68,-19,43,263
4,53,48,-29,-21,51,19,-73,-73,-29,34,258
0,48,48,-24,-24,48,19,-78,-78,-39,24,248
0,43,43,-21,-21,43,24,-78,-82,-48,19,239
-9,34,43,-12,-26,39,29,-63,-68,-43,19,239
-9,29,39,-9,-24,34,29,-58,-68,-39,14,239
-9,29,39,-9,-24,34,34,-53,-68,-34,14,234
-14,24,39,-4,-26,31,39,-43,-68,-29,14,234
-4,34,39,-14,-21,36,34,-53,-73,-34,14,224
0,34,34,-17,-17,34,29,-53,-73,-39,14,219
0,29,29,-14,-14,29,24,-53,-82,-48,14,219
0,29,29,-14,-14,29,19,-53,-82,-53,9,219
-9,14,24,-2,-17,19,29,-43,-78,-48,14,224
-9,14,24,-2,-17,19,34,-43,-73,-43,19,229
-9,14,24,-2,-17,19,39,-43,-68,-39,24,229
-14,19,34,-2,-24,26,43,-43,-58,-34,29,234
-14,29,43,-7,-29,36,34,-43,-63,-43,29,229
-19,24,43,-2,-31,34,34,-43,-68,-43,24,224
-19,24,43,-2,-31,34,39,-48,-73,-43,19,219
-9,24,34,-7,-21,29,39,-48,-78,-43,14,214
-4,24,29,-9,-17,26,39,-39,-78,-43,14,214
0,24,24,-12,-12,24,39,-39,-78,-39,14,219
4,24,19,-14,-7,21,43,-39,-73,-39,14,219
9,24,14,-17,-2,19,43,-39,-73,-43,14,214
9,34,24,-21,-7,29,29,-34,-73,-43,14,214
4,39,34,-21,-14,36,24,-34,-73,-39,14,214
4,39,34,-21,-14,36,24,-34,-73,-39,14,214
4,34,29,-19,-12,31,34,-34,-73,-39,14,214
4,29,24,-17,-9,26,24,-43,-82,-48,14,214
4,29,24,-17,-9,26,24,-43,-87,-48,9,214
4,29,24,-17,-9,26,24,-43,-87,-48,9,214
4,29,24,-17,-9,26,24,-43,-82,-48,14,214
-24,9,34,7,-29,21,34,-24,-63,-39,14,214
-14,0,14,7,-14,7,43,-14,-63,-39,24,219
-19,-4,14,12,-17,4,39,-19,-73,-39,14,224
-9,-19,-9,14,0,-14,43,-14,-68,-39,14,209
-9,-39,-29,24,9,-34,53,0,-63,-29,9,190
-19,-48,-29,34,4,-39,43,0,-63,-14,9,185
9,-34,-43,12,26,-39,43,0,-53,-9,19,185
29,-19,-48,-4,39,-34,53,-4,-53,0,9,170
24,-24,-48,0,36,-36,53,4,-14,19,4,161
19,-34,-53,7,36,-43,39,29,48,78,39,170
39,-43,-82,2,61,-63,29,53,112,141,68,185
53,-29,-82,-12,68,-56,24,58,151,204,112,200
87,4,-82,-46,85,-39,-9,68,175,312,195,248
126,19,-107,-73,117,-43,-63,73,234,488,346,341
161,34,-126,-97,143,-46,-112,68,244,663,512,444
229,87,-141,-158,185,-26,-204,-24,122,780,663,551
278,175,-102,-226,190,36,-302,-156,-34,878,824,673
326,287,-39,-307,183,124,-385,-248,-122,1044,1000,810
361,405,43,-383,158,224,-458,-336,-185,1234,1210,961
414,531,117,-473,148,324,-551,-488,-326,1405,1415,1132
434,663,229,-549,102,446,-658,-678,-502,1546,1610,1293
419,790,370,-605,24,580,-756,-878,-707,1576,1712,1405
361,897,536,-629,-87,717,-810,-1122,-995,1473,1722,1488
307,956,649,-631,-170,802,-863,-1415,-1342,1273,1688,1590
258,985,727,-622,-234,856,-902,-1610,-1649,1054,1625,1693
214,1019,805,-617,-295,912,-927,-1766,-1952,761,1498,1747
156,1005,849,-580,-346,927,-951,-1917,-2278,375,1273,1756
102,956,854,-529,-375,905,-946,-1991,-2508,29,1034,1742
53,946,893,-500,-419,919,-946,-2034,-2644,-322,771,1703
-4,946,951,-470,-478,949,-990,-2122,-2825,-824,414,1610
-43,966,1010,-461,-527,988,-1039,-2161,-2932,-1278,78,1473
-34,971,1005,-468,-519,988,-1015,-2049,-2835,-1503,-102,1317
-24,893,917,-434,-470,905,-888,-1805,-2571,-1527,-204,1122
-34,697,732,-331,-383,714,-673,-1444,-2132,-1400,-278,854
-58,409,468,-175,-263,439,-444,-1044,-1605,-1137,-317,575
-78,170,248,-46,-163,209,-278,-727,-1190,-922,-341,366
-82,53,136,14,-109,95,-195,-531,-902,-761,-351,239
-73,24,97,24,-85,61,-146,-419,-688,-624,-351,151
-63,19,82,21,-73,51,-112,-341,-527,-531,-341,92
-63,-14,48,39,-56,17,-73,-244,-390,-429,-312,73
-63,-58,4,61,-34,-26,-24,-156,-297,-351,-273,63
-73,-92,-19,82,-26,-56,4,-117,-258,-326,-263,29
-63,-82,-19,73,-21,-51,9,-92,-219,-307,-258,-14
-48,-63,-14,56,-17,-39,14,-58,-170,-268,-224,-4
-48,-63,-14,56,-17,-39,43,-19,-112,-229,-190,19
-48,-82,-34,65,-7,-58,63,14,-68,-195,-170,39
-43,-112,-68,78,12,-90,73,34,-19,-151,-151,58
-34,-122,-87,78,26,-104,82,58,14,-117,-136,68
-19,-78,-58,48,19,-68,73,68,43,-82,-126,63
-9,-39,-29,24,9,-34,58,68,53,-63,-117,48
-9,-14,-4,12,-2,-9,58,68,68,-63,-92,48
0,-9,-9,4,4,-9,48,63,58,-63,-92,39
-4,-4,0,4,-2,-2,58,63,68,-63,-92,39
-4,-4,0,4,-2,-2,68,68,78,-58,-92,43
-4,-4,0,4,-2,-2,68,73,92,-43,-92,43
-24,-14,9,19,-17,-2,73,87,97,-29,-92,39
-29,-19,9,24,-19,-4,78,92,102,-24,-92,39
-29,-24,4,26,-17,-9,82,92,102,-19,-92,39
-34,-29,4,31,-19,-12,82,92,102,-19,-87,34
-19,-24,-4,21,-7,-14,73,97,97,-24,-73,24
-14,-14,0,14,-7,-7,73,97,102,-24,-73,29
-9,-9,0,9,-4,-4,73,97,107,-24,-73,29
-4,-4,0,4,-2,-2,78,97,112,-14,-73,29
-19,-19,0,19,-9,-9,82,112,122,-24,-82,29
-24,-24,0,24,-12,-12,82,112,126,-24,-82,29
-29,-29,0,29,-14,-14,78,117,126,-19,-82,24
-34,-34,0,34,-17,-17,78,117,126,-19,-82,24
-29,-19,9,24,-19,-4,63,112,131,-14,-73,19
-24,-14,9,19,-17,-2,63,112,126,-14,-68,9
-19,-9,9,14,-14,0,63,107,126,-9,-68,0
-14,-4,9,9,-12,2,63,102,122,-9,-68,-9
-4,-14,-9,9,2,-12,73,102,131,-24,-73,-9
-4,-4,0,4,-2,-2,73,107,131,-24,-82,-9
-4,-4,0,4,-2,-2,73,117,136,-19,-87,-9
-4,-9,-4,7,0,-7,78,122,141,-19,-92,-9
-9,-9,0,9,-4,-4,68,117,131,-9,-82,-24
-9,-9,0,9,-4,-4,68,112,131,-9,-82,-29
-9,-9,0,9,-4,-4,68,107,136,-9,-82,-34
-9,-4,4,7,-7,0,68,107,136,-9,-82,-39
-14,9,24,2,-19,17,58,107,146,-14,-92,-48
-14,9,24,2,-19,17,58,107,146,-14,-92,-48
-19,4,24,7,-21,14,58,112,146,-14,-92,-48
-19,4,24,7,-21,14,58,112,146,-14,-92,-48
-9,-4,4,7,-7,0,48,126,156,0,-82,-48
-9,-14,-4,12,-2,-9,48,126,156,0,-82,-53
-9,-24,-14,17,2,-19,48,126,156,0,-82,-53
-4,-29,-24,17,9,-26,48,126,165,0,-82,-48
-4,-14,-9,9,2,-12,53,131,175,0,-82,-53
-4,-14,-9,9,2,-12,58,131,175,4,-82,-58
0,-9,-9,4,4,-9,63,141,185,4,-82,-63
0,0,0,0,0,0,68,141,190,9,-82,-68
0,-9,-9,4,4,-9,63,141,190,9,-97,-78
0,-9,-9,4,4,-9,58,146,195,9,-97,-78
-4,-9,-4,7,0,-7,53,146,200,9,-92,-78
-4,-4,0,4,-2,-2,48,151,200,9,-92,-78
-4,-14,-9,9,2,-12,48,151,195,9,-97,-92
-4,-14,-9,9,2,-12,48,151,195,9,-102,-92
-4,-19,-14,12,4,-17,48,156,204,9,-102,-92
-4,-19,-14,12,4,-17,48,161,209,19,-97,-92
-4,-9,-4,7,0,-7,39,170,209,19,-97,-102
-4,0,4,2,-4,2,39,175,214,19,-97,-102
-4,9,14,-2,-9,12,39,175,224,19,-97,-102
-4,19,24,-7,-14,21,39,175,229,19,-102,-102
-4,4,9,0,-7,7,39,175,224,19,-102,-92
-4,4,9,0,-7,7,39,185,229,24,-102,-92
-4,0,4,2,-4,2,39,185,239,29,-102,-92
-4,-4,0,4,-2,-2,39,185,244,29,-102,-97
-14,-14,0,14,-7,-7,48,200,248,34,-117,-107
-14,-19,-4,17,-4,-12,48,204,258,34,-117,-107
-14,-24,-9,19,-2,-17,48,204,273,43,-112,-107
-14,-29,-14,21,0,-21,48,204,283,43,-112,-107
-4,-4,0,4,-2,-2,39,195,283,43,-126,-122
-4,9,14,-2,-9,12,39,195,287,39,-126,-131
-4,29,34,-12,-19,31,39,190,292,34,-131,-136
-4,43,48,-19,-26,46,39,195,302,34,-131,-141
-4,24,29,-9,-17,26,53,200,317,48,-126,-131
-4,14,19,-4,-12,17,53,209,326,48,-122,-122
-4,4,9,0,-7,7,48,219,336,53,-117,-112
-4,-4,0,4,-2,-2,48,229,346,58,-112,-97
4,-14,-19,4,12,-17,39,234,366,73,-107,-97
0,-14,-14,7,7,-14,39,239,375,73,-102,-97
0,-4,-4,2,2,-4,43,244,385,73,-97,-97
4,0,-4,-2,4,-2,43,248,395,78,-102,-102
14,24,9,-19,2,17,34,244,395,68,-117,-112
14,34,19,-24,-2,26,34,248,400,68,-122,-122
9,39,29,-24,-9,34,34,253,405,78,-126,-131
9,48,39,-29,-14,43,34,258,419,78,-131,-141
0,39,39,-19,-19,39,34,263,434,78,-122,-141
4,34,29,-19,-12,31,34,268,439,82,-122,-141
4,24,19,-14,-7,21,34,273,453,82,-122,-141
4,19,14,-12,-4,17,34,273,458,82,-122,-136
14,24,9,-19,2,17,39,283,463,92,-122,-126
14,24,9,-19,2,17,39,283,473,92,-126,-131
14,24,9,-19,2,17,34,287,478,92,-126,-131
14,29,14,-21,0,21,34,287,488,92,-126,-131
14,43,29,-29,-7,36,29,292,497,102,-126,-141
19,48,29,-34,-4,39,24,292,502,107,-126,-141
19,53,34,-36,-7,43,19,292,502,112,-131,-141
19,58,39,-39,-9,48,4,292,502,112,-141,-146
9,58,48,-34,-19,53,4,287,502,112,-141,-156
9,53,43,-31,-17,48,4,287,502,112,-146,-151
9,48,39,-29,-14,43,0,287,507,112,-146,-151
14,43,29,-29,-7,36,0,283,507,112,-146,-151
14,43,29,-29,-7,36,0,273,512,122,-136,-161
14,53,39,-34,-12,46,-4,273,517,126,-136,-161
19,53,34,-36,-7,43,-9,273,522,126,-141,-161
19,53,34,-36,-7,43,-14,273,522,131,-141,-161
34,43,9,-39,12,26,-9,268,517,122,-151,-161
34,43,9,-39,12,26,-9,263,507,112,-156,-161
34,43,9,-39,12,26,-9,263,497,112,-156,-161
39,43,4,-41,17,24,-9,263,497,117,-156,-156
29,48,19,-39,4,34,-14,263,497,122,-141,-156
29,48,19,-39,4,34,-14,263,488,122,-141,-156
29,48,19,-39,4,34,-14,258,473,126,-136,-146
29,48,19,-39,4,34,-19,248,458,131,-136,-141
43,58,14,-51,14,36,-34,244,453,122,-146,-146
48,58,9,-53,19,34,-39,234,434,117,-146,-151
48,58,9,-53,19,34,-43,224,424,117,-136,-151
53,58,4,-56,24,31,-48,214,409,117,-136,-146
53,43,-9,-48,31,17,-39,209,395,126,-122,-146
53,39,-14,-46,34,12,-43,204,380,126,-117,-151
53,29,-24,-41,39,2,-48,200,366,126,-107,-151
53,24,-29,-39,41,-2,-48,200,351,126,-102,-156
53,29,-24,-41,39,2,-53,190,326,131,-97,-156
53,29,-24,-41,39,2,-53,180,312,136,-87,-151
48,29,-19,-39,34,4,-58,170,302,136,-82,-146
43,29,-14,-36,29,7,-63,170,287,136,-68,-141
58,39,-19,-48,39,9,-73,156,263,131,-58,-141
63,48,-14,-56,39,17,-78,151,248,131,-63,-141
68,58,-9,-63,39,24,-78,141,234,131,-58,-136
73,68,-4,-70,39,31,-78,141,224,136,-53,-131
58,58,0,-58,29,29,-68,136,219,131,-43,-126
58,48,-9,-53,34,19,-63,131,204,126,-34,-122
58,39,-19,-48,39,9,-63,122,190,122,-24,-117
53,24,-29,-39,41,-2,-63,117,170,117,-14,-112
53,43,-9,-48,31,17,-78,97,146,102,-19,-122
53,58,4,-56,24,31,-82,87,126,97,-9,-122
53,68,14,-61,19,41,-82,82,107,92,0,-122
53,78,24,-65,14,51,-82,73,92,92,0,-122
43,63,19,-53,12,41,-73,78,87,92,14,-107
43,48,4,-46,19,26,-73,78,82,82,24,-102
39,34,-4,-36,21,14,-73,68,68,78,29,-102
34,19,-14,-26,24,2,-73,63,58,73,29,-102
34,34,0,-34,17,17,-78,53,29,63,19,-102
34,39,4,-36,14,21,-82,43,14,58,24,-97
34,43,9,-39,12,26,-87,34,0,48,29,-97
29,48,19,-39,4,34,-92,24,-9,39,29,-87
39,39,0,-39,19,19,-82,24,-4,39,19,-92
39,39,0,-39,19,19,-82,19,-14,34,19,-97
39,39,0,-39,19,19,-82,14,-24,29,19,-102
39,39,0,-39,19,19,-82,14,-29,29,19,-107
29,39,9,-34,9,24,-97,9,-48,14,24,-97
19,39,19,-29,0,29,-97,4,-53,9,24,-97
19,39,19,-29,0,29,-97,4,-58,4,24,-102
19,43,24,-31,-2,34,-97,0,-63,0,24,-102
24,34,9,-29,7,21,-92,9,-53,0,14,-102
29,34,4,-31,12,19,-87,9,-58,-4,14,-102
34,24,-9,-29,21,7,-78,9,-63,-9,14,-102
39,24,-14,-31,26,4,-73,9,-68,-9,14,-97
34,43,9,-39,12,26,-78,0,-73,-19,4,-107
34,53,19,-43,7,36,-82,-4,-82,-29,4,-117
43,68,24,-56,9,46,-87,-4,-92,-29,4,-126
43,78,34,-61,4,56,-92,-9,-97,-34,4,-136
34,68,34,-51,0,51,-82,0,-92,-24,4,-126
29,58,29,-43,0,43,-82,0,-92,-29,4,-126
24,48,24,-36,0,36,-82,0,-87,-34,4,-126
24,39,14,-31,4,26,-82,0,-82,-34,4,-126
29,39,9,-34,9,24,-82,-4,-82,-24,14,-117
43,39,-4,-41,24,17,-82,-4,-82,-24,9,-117
48,39,-9,-43,29,14,-82,-4,-82,-24,9,-117
53,39,-14,-46,34,12,-82,-4,-82,-29,9,-117
43,48,4,-46,19,26,-87,-9,-92,-39,0,-131
39,58,19,-48,9,39,-92,-14,-92,-43,-4,-136
34,68,34,-51,0,51,-97,-19,-92,-43,-4,-141
34,73,39,-53,-2,56,-102,-19,-92,-39,-4,-146
24,58,34,-41,-4,46,-97,-14,-92,-48,9,-146
24,39,14,-31,4,26,-92,-9,-92,-48,9,-146
24,24,0,-24,12,12,-87,-4,-92,-48,4,-146
24,14,-9,-19,17,2,-82,0,-92,-53,-4,-146
34,19,-14,-26,24,2,-82,-9,-87,-53,-9,-165
34,24,-9,-29,21,7,-82,-9,-87,-48,-9,-165
34,34,0,-34,17,17,-82,-9,-87,-48,-14,-165
34,39,4,-36,14,21,-78,-9,-87,-48,-19,-170
34,48,14,-41,9,31,-82,-9,-82,-48,-9,-170
29,43,14,-36,7,29,-87,-4,-82,-53,-9,-165
29,43,14,-36,7,29,-92,-4,-78,-53,-9,-165
34,43,9,-39,12,26,-92,-4,-73,-53,-9,-170
39,53,14,-46,12,34,-82,4,-63,-39,-9,-165
43,53,9,-48,17,31,-82,9,-58,-39,-9,-161
48,53,4,-51,21,29,-82,9,-58,-39,-9,-156
48,48,0,-48,24,24,-82,9,-58,-43,-19,-156
48,39,-9,-43,29,14,-82,0,-53,-34,-9,-165
48,39,-9,-43,29,14,-82,9,-48,-34,-9,-165
48,39,-9,-43,29,14,-87,9,-48,-34,-9,-165
48,34,-14,-41,31,9,-87,9,-48,-34,-9,-165
39,43,4,-41,17,24,-87,0,-53,-43,-14,-170
34,43,9,-39,12,26,-87,0,-53,-43,-19,-175
29,43,14,-36,7,29,-87,0,-48,-43,-29,-180
24,43,19,-34,2,31,-87,4,-48,-43,-39,-185
29,43,14,-36,7,29,-78,14,-43,-34,-39,-185
34,43,9,-39,12,26,-78,14,-43,-34,-34,-185
39,43,4,-41,17,24,-78,14,-39,-29,-29,-190
43,43,0,-43,21,21,-78,19,-39,-29,-29,-195
34,43,9,-39,12,26,-78,19,-43,-39,-34,-190
34,39,4,-36,14,21,-73,19,-43,-34,-34,-190
39,29,-9,-34,24,9,-73,24,-34,-34,-34,-190
43,19,-24,-31,34,-2,-73,29,-24,-34,-34,-190
34,19,-14,-26,24,2,-73,19,-29,-19,-24,-180
29,19,-9,-24,19,4,-68,24,-24,-19,-24,-185
29,19,-9,-24,19,4,-68,24,-24,-19,-24,-185
34,19,-14,-26,24,2,-68,19,-24,-19,-24,-180
43,29,-14,-36,29,7,-68,19,-19,-24,-24,-180
43,34,-9,-39,26,12,-73,29,-19,-19,-24,-180
43,34,-9,-39,26,12,-78,29,-19,-19,-24,-180
43,34,-9,-39,26,12,-82,24,-14,-19,-24,-185
43,39,-4,-41,24,17,-78,24,-14,-29,-34,-195
43,39,-4,-41,24,17,-78,24,-14,-29,-34,-195
43,39,-4,-41,24,17,-78,24,-19,-29,-34,-195
43,39,-4,-41,24,17,-78,24,-19,-29,-34,-195
48,39,-9,-43,29,14,-78,29,-9,-9,-24,-185
48,39,-9,-43,29,14,-78,29,-9,-9,-19,-185
48,39,-9,-43,29,14,-78,29,0,-9,-19,-185
48,39,-9,-43,29,14,-78,29,4,-9,-19,-185
48,53,4,-51,21,29,-87,19,-4,-14,-19,-195
48,53,4,-51,21,29,-87,19,-4,-9,-19,-190
48,53,4,-51,21,29,-87,24,-4,-9,-19,-190
48,53,4,-51,21,29,-87,24,-4,-9,-19,-190
48,39,-9,-43,29,14,-78,34,-4,-9,-9,-180
48,34,-14,-41,31,9,-78,29,-4,-9,-9,-180
48,34,-14,-41,31,9,-78,29,-4,-9,-9,-180
48,29,-19,-39,34,4,-78,29,-4,-9,-9,-180
48,24,-24,-36,36,0,-68,39,4,4,-4,-170
43,14,-29,-29,36,-7,-68,39,0,4,0,-165
43,9,-34,-26,39,-12,-68,39,0,4,4,-165
43,4,-39,-24,41,-17,-68,39,0,9,9,-165
34,14,-19,-24,26,-2,-73,29,-14,0,0,-170
34,24,-9,-29,21,7,-78,29,-14,-4,-4,-175
34,34,0,-34,17,17,-82,24,-14,-9,-4,-180
34,43,9,-39,12,26,-87,24,-14,-14,-9,-185
34,58,24,-46,4,41,-87,19,-24,-4,-9,-185
34,68,34,-51,0,51,-87,19,-29,-9,-9,-185
34,68,34,-51,0,51,-87,19,-29,-9,-9,-180
34,63,29,-48,2,46,-87,19,-34,-9,-14,-180
34,43,9,-39,12,26,-87,29,-24,-9,-14,-170
34,29,-4,-31,19,12,-87,24,-24,-9,-14,-170
34,14,-19,-24,26,-2,-87,24,-24,-9,-14,-170
34,-4,-39,-14,36,-21,-87,24,-24,-9,-9,-170
43,9,-34,-26,39,-12,-87,24,-24,0,-4,-161
43,24,-19,-34,31,2,-87,14,-34,0,0,-161
43,39,-4,-41,24,17,-87,14,-34,-4,0,-161
43,43,0,-43,21,21,-92,9,-34,-9,4,-161
43,48,4,-46,19,26,-92,9,-43,-19,0,-165
43,43,0,-43,21,21,-92,9,-43,-19,-4,-170
48,43,-4,-46,26,19,-92,9,-43,-14,-4,-170
48,43,-4,-46,26,19,-92,9,-43,-14,-9,-175
43,53,9,-48,17,31,-92,29,-34,4,19,-165
39,68,29,-53,4,48,-107,9,-48,-19,-19,-185
48,58,9,-53,19,34,-97,9,-48,-29,-9,-185
48,58,9,-53,19,34,-97,9,-48,-29,-9,-185
48,58,9,-53,19,34,-97,9,-48,-29,-9,-185
48,58,9,-53,19,34,-97,9,-48,-29,-9,-185
53,53,0,-53,26,26,-102,14,-43,-14,0,-180
58,53,-4,-56,31,24,-107,19,-39,-9,4,-170
63,58,-4,-61,34,26,-107,24,-29,-4,14,-151
68,58,-9,-63,39,24,-107,29,-14,4,24,-141
58,78,19,-68,19,48,-122,19,-19,4,14,-151
58,87,29,-73,14,58,-126,19,-29,0,9,-161
58,97,39,-78,9,68,-126,14,-34,-4,9,-165
63,112,48,-87,7,80,-126,14,-34,-4,4,-170
63,107,43,-85,9,75,-122,29,-34,0,19,-165
68,107,39,-87,14,73,-131,29,-29,0,24,-156
78,117,39,-97,19,78,-141,29,-19,4,29,-146
82,126,43,-104,19,85,-146,29,-19,9,29,-136
73,126,53,-100,9,90,-156,24,-19,14,29,-141
78,131,53,-104,12,92,-170,14,-19,14,39,-141
82,141,58,-112,12,100,-185,0,-19,19,43,-136
82,146,63,-114,9,104,-195,-4,-19,19,43,-131
92,156,63,-124,14,109,-200,0,-9,34,43,-117
102,165,63,-134,19,114,-209,-4,-14,34,43,-117
102,170,68,-136,17,119,-219,-19,-14,29,43,-117
102,175,73,-139,14,124,-224,-39,-24,24,43,-117
102,180,78,-141,12,129,-229,-48,-24,24,58,-107
102,185,82,-143,9,134,-234,-48,-24,24,58,-107
102,190,87,-146,7,139,-234,-43,-24,24,63,-97
102,195,92,-148,4,143,-234,-43,-24,24,63,-92
92,209,117,-151,-12,163,-244,-58,-29,24,53,-92
97,209,112,-153,-7,161,-244,-58,-34,24,63,-92
102,209,107,-156,-2,158,-239,-53,-39,24,68,-92
112,209,97,-161,7,153,-234,-48,-39,34,73,-92
117,200,82,-158,17,141,-224,-39,-24,39,87,-73
131,204,73,-168,29,139,-219,-29,-14,43,97,-68
131,209,78,-170,26,143,-204,-24,-4,53,107,-58
126,224,97,-175,14,161,-200,-19,-4,58,112,-48
136,224,87,-180,24,156,-190,0,0,73,122,-39
131,209,78,-170,26,143,-185,0,0,73,122,-39
126,200,73,-163,26,136,-175,0,-4,73,117,-39
122,185,63,-153,29,124,-165,0,-9,58,107,-53
97,161,63,-129,17,112,-151,-9,-29,39,82,-78
78,136,58,-107,9,97,-141,-9,-43,19,58,-92
48,112,63,-80,-7,87,-126,-24,-48,9,53,-112
34,78,43,-56,-4,61,-122,-24,-63,-9,29,-126
34,78,43,-56,-4,61,-112,-34,-87,-19,19,-141
29,73,43,-51,-7,58,-102,-34,-92,-24,9,-151
29,63,34,-46,-2,48,-97,-34,-92,-29,4,-156
29,63,34,-46,-2,48,-87,-29,-92,-39,0,-161
34,53,19,-43,7,36,-73,-19,-87,-39,0,-170
34,53,19,-43,7,36,-68,-14,-82,-39,-4,-170
29,48,19,-39,4,34,-68,-14,-78,-39,-9,-175
29,43,14,-36,7,29,-63,-9,-73,-39,-9,-180
29,53,24,-41,2,39,-58,-9,-78,-48,-9,-190
29,48,19,-39,4,34,-58,-9,-78,-48,-14,-190
29,48,19,-39,4,34,-53,-9,-78,-48,-14,-195
24,43,19,-34,2,31,-48,-4,-78,-48,-14,-195
24,34,9,-29,7,21,-48,-4,-73,-48,-14,-195
29,34,4,-31,12,19,-48,-4,-73,-48,-14,-200
29,29,0,-29,14,14,-48,-4,-82,-53,-14,-200
29,29,0,-29,14,14,-48,-4,-82,-53,-19,-200
19,34,14,-26,2,24,-43,-14,-82,-53,-19,-200
19,34,14,-26,2,24,-43,-14,-82,-53,-19,-200
19,34,14,-26,2,24,-43,-14,-82,-53,-19,-204
14,39,24,-26,-4,31,-43,-14,-78,-53,-19,-204
24,34,9,-29,7,21,-34,-4,-78,-53,-24,-204
19,24,4,-21,7,14,-34,-4,-78,-53,-24,-204
19,19,0,-19,9,9,-29,-9,-78,-53,-24,-204
29,14,-14,-21,21,0,-29,-9,-78,-53,-24,-204
29,4,-24,-17,26,-9,-29,0,-78,-53,-14,-204
29,4,-24,-17,26,-9,-29,0,-78,-48,-14,-200
29,4,-24,-17,26,-9,-24,0,-73,-48,-14,-200
29,4,-24,-17,26,-9,-24,0,-73,-53,-14,-204
19,9,-9,-14,14,0,-29,-4,-73,-53,-19,-214
14,19,4,-17,4,12,-34,-4,-73,-48,-24,-214
14,24,9,-19,2,17,-34,-4,-73,-48,-29,-214
14,24,9,-19,2,17,-24,-4,-73,-48,-34,-214
14,19,4,-17,4,12,-24,-4,-63,-48,-34,-204
14,19,4,-17,4,12,-24,-4,-68,-48,-39,-204
14,19,4,-17,4,12,-24,-4,-68,-48,-39,-204
14,19,4,-17,4,12,-24,-4,-63,-48,-34,-204
24,-9,-34,-7,29,-21,-14,4,-63,-48,-34,-214
24,-9,-34,-7,29,-21,-14,4,-73,-48,-24,-219
19,-14,-34,-2,26,-24,0,29,-53,-39,-14,-204
9,-19,-29,4,19,-24,4,43,-48,-29,-24,-209
9,-19,-29,4,19,-24,4,48,-53,-39,-48,-239
9,-29,-39,9,24,-34,4,39,-53,-34,-48,-253
19,-24,-43,2,31,-34,4,39,-43,-9,-39,-244
19,-29,-48,4,34,-39,4,43,-34,9,-29,-248
24,-43,-68,9,46,-56,14,63,-4,39,-14,-248
48,-43,-92,-2,70,-68,9,87,58,97,19,-239
68,-43,-112,-12,90,-78,0,112,141,170,68,-224
82,-29,-112,-26,97,-70,-14,117,180,244,112,-200
107,-14,-122,-46,114,-68,-58,107,195,351,195,-161
165,19,-146,-92,156,-63,-112,102,224,517,326,-78
209,82,-126,-146,168,-21,-190,48,185,673,492,24
248,156,-92,-202,170,31,-283,-63,43,780,644,151
287,234,-53,-261,170,90,-370,-175,-112,897,814,292
336,336,0,-336,168,168,-453,-268,-190,1063,1010,429
400,463,63,-431,168,263,-536,-385,-292,1224,1200,570
444,590,146,-517,148,368,-639,-546,-453,1366,1395,732
453,722,268,-588,92,495,-717,-717,-610,1488,1571,893
419,819,400,-619,9,610,-775,-907,-805,1507,1664,1024
361,907,546,-634,-92,727,-849,-1180,-1102,1385,1673,1137
307,976,668,-641,-180,822,-932,-1454,-1449,1195,1659,1249
258,1044,785,-651,-263,915,-980,-1639,-1737,976,1595,1332
204,1088,883,-646,-339,985,-1005,-1795,-2059,624,1410,1376
156,1063,907,-610,-375,985,-1010,-1927,-2366,229,1166,1366
112,1015,902,-563,-395,958,-985,-1971,-2547,-97,927,1351
53,1015,961,-534,-453,988,-1015,-2034,-2703,-497,624,1283
4,1034,1029,-519,-512,1032,-1078,-2142,-2884,-1010,248,1171
-4,1034,1039,-514,-522,1037,-1088,-2122,-2923,-1395,-29,1044
-4,980,985,-488,-495,983,-1024,-1961,-2766,-1532,-131,927
-4,854,858,-424,-431,856,-878,-1688,-2474,-1488,-185,741
-34,619,653,-292,-344,636,-663,-1327,-1995,-1302,-239,473
-39,380,419,-170,-229,400,-444,-946,-1488,-1049,-297,175
-48,229,278,-90,-163,253,-297,-668,-1112,-883,-361,-53
-53,131,185,-39,-119,158,-224,-512,-854,-741,-390,-190
-43,73,117,-14,-80,95,-165,-400,-639,-605,-380,-248
-34,29,63,2,-48,46,-122,-292,-468,-483,-351,-268
-43,-43,0,43,-21,-21,-73,-195,-351,-390,-312,-287
-43,-78,-34,61,-4,-56,-34,-126,-278,-331,-283,-307
-43,-82,-39,63,-2,-61,-14,-87,-239,-307,-273,-341
-43,-102,-58,73,7,-80,0,-63,-190,-287,-258,-356
-39,-102,-63,70,12,-82,14,-29,-131,-239,-234,-366
-39,-82,-43,61,2,-63,43,0,-92,-209,-219,-361
-39,-82,-43,61,2,-63,63,24,-58,-195,-219,-370
-34,-82,-48,58,7,-65,63,53,-19,-161,-209,-351
-14,-73,-58,43,21,-65,73,78,24,-117,-185,-331
19,-58,-78,19,48,-68,73,107,63,-53,-136,-297
19,-58,-78,19,48,-68,68,117,92,-34,-107,-273
0,-43,-43,21,21,-43,68,107,87,-34,-102,-283
9,-19,-29,4,19,-24,58,92,82,-53,-112,-297
4,-14,-19,4,12,-17,68,92,87,-53,-112,-302
4,-14,-19,4,12,-17,78,97,92,-48,-112,-302
4,-14,-19,4,12,-17,78,102,102,-34,-112,-307
-9,-29,-19,19,4,-24,87,107,117,-19,-102,-307
-9,-29,-19,19,4,-24,87,112,122,-14,-102,-302
-4,-29,-24,17,9,-26,87,112,122,-9,-102,-297
-4,-29,-24,17,9,-26,82,112,122,-9,-97,-297
4,-19,-24,7,14,-21,82,107,117,-19,-102,-307
4,-14,-19,4,12,-17,82,107,122,-24,-102,-302
4,-14,-19,4,12,-17,82,107,126,-29,-102,-302
4,-14,-19,4,12,-17,87,107,131,-24,-102,-302
-4,-19,-14,12,4,-17,92,112,131,-14,-102,-292
-4,-24,-19,14,7,-21,92,112,136,-14,-102,-292
-4,-29,-24,17,9,-26,87,117,136,-9,-102,-297
-4,-34,-29,19,12,-31,87,117,136,-9,-102,-297
4,-34,-39,14,21,-36,92,126,146,-4,-92,-292
4,-34,-39,14,21,-36,92,131,146,-4,-87,-292
4,-34,-39,14,21,-36,92,131,151,0,-87,-292
4,-34,-39,14,21,-36,92,131,151,0,-87,-292
14,-29,-43,7,29,-36,82,117,141,-14,-97,-297
14,-14,-29,0,21,-21,82,117,141,-14,-102,-302
14,-9,-24,-2,19,-17,82,122,146,-9,-102,-307
14,-9,-24,-2,19,-17,87,122,151,-9,-102,-312
14,-19,-34,2,24,-26,97,131,161,0,-102,-302
9,-19,-29,4,19,-24,97,131,161,0,-102,-302
4,-19,-24,7,14,-21,97,131,165,0,-102,-302
0,-14,-14,7,7,-14,97,136,165,0,-102,-302
14,-9,-24,-2,19,-17,87,126,165,-4,-102,-312
14,-9,-24,-2,19,-17,87,126,165,-4,-102,-312
9,-14,-24,2,17,-19,87,131,165,-4,-102,-312
9,-14,-24,2,17,-19,87,131,165,-4,-102,-312
0,-14,-14,7,7,-14,97,146,165,0,-102,-312
0,-14,-14,7,7,-14,97,146,165,0,-102,-317
0,-14,-14,7,7,-14,97,146,165,0,-102,-317
4,-9,-14,2,9,-12,97,146,175,0,-102,-312
-4,-9,-4,7,0,-7,97,151,175,0,-102,-312
-4,-14,-9,9,2,-12,97,151,175,4,-102,-312
0,-14,-14,7,7,-14,97,161,185,4,-102,-312
0,-9,-9,4,4,-9,97,161,190,9,-102,-312
9,-9,-19,0,14,-14,107,151,190,9,-107,-302
9,-9,-19,0,14,-14,107,156,195,9,-107,-302
4,-9,-14,2,9,-12,107,156,200,9,-102,-302
4,-4,-9,0,7,-7,107,161,200,9,-102,-302
-4,-9,-4,7,0,-7,107,170,204,9,-97,-307
-4,-14,-9,9,2,-12,107,170,204,9,-102,-307
-4,-24,-19,14,7,-21,107,175,214,9,-102,-307
-4,-29,-24,17,9,-26,107,180,219,19,-97,-307
4,-24,-29,9,17,-26,97,180,229,19,-107,-317
4,-19,-24,7,14,-21,97,185,234,19,-107,-317
4,-14,-19,4,12,-17,97,185,244,19,-107,-317
4,-9,-14,2,9,-12,97,185,248,19,-112,-317
4,-9,-14,2,9,-12,107,185,244,29,-112,-307
4,-4,-9,0,7,-7,107,195,248,34,-112,-307
4,-4,-9,0,7,-7,107,195,258,39,-112,-307
4,-4,-9,0,7,-7,107,195,263,39,-112,-312
4,-9,-14,2,9,-12,107,200,268,34,-117,-312
4,-9,-14,2,9,-12,107,204,278,34,-117,-312
4,-9,-14,2,9,-12,107,204,292,43,-112,-312
4,-9,-14,2,9,-12,107,204,302,43,-112,-312
4,-9,-14,2,9,-12,107,200,302,39,-126,-322
4,-9,-14,2,9,-12,107,204,307,39,-126,-326
4,-4,-9,0,7,-7,107,204,312,39,-131,-326
4,-4,-9,0,7,-7,107,214,322,43,-131,-326
-4,4,9,0,-7,7,112,214,336,48,-122,-317
-4,4,9,0,-7,7,112,219,346,48,-122,-317
-4,4,9,0,-7,7,107,224,356,53,-122,-317
-4,4,9,0,-7,7,107,229,366,58,-122,-312
-4,4,9,0,-7,7,117,234,375,63,-112,-312
-9,4,14,2,-12,9,117,239,385,63,-112,-312
-9,14,24,-2,-17,19,122,244,395,63,-112,-312
-4,19,24,-7,-14,21,122,248,405,68,-122,-317
4,14,9,-9,-2,12,122,253,409,58,-122,-326
4,14,9,-9,-2,12,122,258,419,58,-122,-326
0,9,9,-4,-4,9,122,263,429,68,-122,-326
0,9,9,-4,-4,9,122,268,448,68,-122,-326
0,9,9,-4,-4,9,122,263,453,78,-131,-317
4,14,9,-9,-2,12,122,268,458,82,-131,-317
4,14,9,-9,-2,12,122,273,473,82,-131,-317
4,19,14,-12,-4,17,122,273,478,82,-131,-312
4,29,24,-17,-9,26,117,263,473,82,-141,-322
4,34,29,-19,-12,31,117,263,483,82,-146,-326
4,39,34,-21,-14,36,112,268,488,82,-146,-326
4,48,43,-26,-19,46,112,268,497,82,-146,-326
4,58,53,-31,-24,56,112,273,507,87,-146,-326
9,58,48,-34,-19,53,112,273,512,87,-146,-326
9,58,48,-34,-19,53,112,273,512,87,-151,-326
9,58,48,-34,-19,53,102,273,512,82,-161,-331
9,48,39,-29,-14,43,112,287,522,87,-151,-326
9,43,34,-26,-12,39,112,287,522,92,-156,-317
9,39,29,-24,-9,34,107,287,527,97,-156,-312
14,34,19,-24,-2,26,107,283,527,102,-156,-307
24,43,19,-34,2,31,97,273,517,97,-165,-317
24,53,29,-39,-2,41,92,273,517,97,-165,-317
29,53,24,-41,2,39,87,273,517,92,-170,-317
29,53,24,-41,2,39,82,273,512,92,-170,-317
34,43,9,-39,12,26,87,273,517,92,-170,-317
34,43,9,-39,12,26,87,263,507,82,-175,-317
34,43,9,-39,12,26,87,258,497,82,-175,-317
39,43,4,-41,17,24,87,253,497,87,-175,-312
39,48,9,-43,14,29,82,253,478,87,-170,-312
39,48,9,-43,14,29,82,253,468,82,-170,-312
39,48,9,-43,14,29,82,248,453,82,-165,-302
39,48,9,-43,14,29,78,239,439,82,-165,-297
34,48,14,-41,9,31,63,234,429,82,-156,-297
39,48,9,-43,14,29,58,224,414,78,-156,-297
39,48,9,-43,14,29,53,214,409,78,-146,-292
43,48,4,-46,19,26,48,204,400,78,-146,-283
53,39,-14,-46,34,12,48,185,380,78,-141,-278
53,39,-14,-46,34,12,43,175,361,78,-136,-278
53,34,-19,-43,36,7,39,165,341,78,-126,-273
53,34,-19,-43,36,7,39,161,322,78,-122,-273
48,48,0,-48,24,24,34,151,317,82,-126,-273
53,48,-4,-51,29,21,34,141,302,87,-117,-268
53,48,-4,-51,29,21,29,131,292,87,-112,-263
53,48,-4,-51,29,21,24,131,278,87,-97,-258
53,39,-14,-46,34,12,34,117,273,102,-82,-248
53,39,-14,-46,34,12,29,112,258,102,-82,-248
53,39,-14,-46,34,12,29,102,244,102,-73,-244
53,39,-14,-46,34,12,29,102,234,107,-63,-239
58,48,-9,-53,34,19,19,87,219,97,-53,-224
58,48,-9,-53,34,19,24,82,204,97,-43,-219
58,48,-9,-53,34,19,24,73,190,97,-34,-214
53,43,-9,-48,31,17,24,68,170,97,-24,-209
53,53,0,-53,26,26,29,58,156,82,-19,-204
53,58,4,-56,24,31,24,48,136,78,-9,-200
53,58,4,-56,24,31,24,43,117,73,0,-195
53,58,4,-56,24,31,24,34,102,73,0,-190
43,48,4,-46,19,26,24,19,82,63,0,-190
43,48,4,-46,19,26,24,19,73,53,4,-190
39,48,9,-43,14,29,24,9,53,48,4,-195
34,48,14,-41,9,31,24,4,39,43,0,-200
34,39,4,-36,14,21,14,9,24,39,9,-190
34,39,4,-36,14,21,14,4,14,39,14,-185
34,39,4,-36,14,21,14,0,4,34,19,-185
29,39,9,-34,9,24,14,-4,0,29,19,-175
29,39,9,-34,9,24,14,-4,-14,29,19,-175
29,39,9,-34,9,24,14,-9,-24,24,19,-175
29,39,9,-34,9,24,14,-14,-34,19,19,-175
29,39,9,-34,9,24,14,-14,-39,19,19,-175
19,48,29,-34,-4,39,9,-29,-48,14,14,-175
9,48,39,-29,-14,43,9,-34,-53,9,14,-175
9,48,39,-29,-14,43,9,-34,-58,4,14,-180
9,53,43,-31,-17,48,9,-39,-63,0,14,-180
19,53,34,-36,-7,43,19,-39,-63,-9,14,-170
19,53,34,-36,-7,43,19,-39,-68,-14,14,-170
19,43,24,-31,-2,34,24,-39,-73,-19,14,-170
19,43,24,-31,-2,34,24,-39,-78,-19,14,-165
14,34,19,-24,-2,26,24,-29,-78,-9,24,-165
14,34,19,-24,-2,26,24,-34,-82,-19,24,-165
24,39,14,-31,4,26,24,-34,-87,-19,24,-165
24,39,14,-31,4,26,24,-39,-87,-24,24,-165
24,48,24,-36,0,36,24,-39,-87,-24,14,-175
19,48,29,-34,-4,39,24,-39,-92,-29,14,-175
14,48,34,-31,-9,41,24,-39,-92,-34,14,-175
14,48,34,-31,-9,41,24,-39,-92,-34,14,-175
14,48,34,-31,-9,41,14,-43,-92,-43,4,-185
24,48,24,-36,0,36,14,-43,-92,-43,0,-185
24,48,24,-36,0,36,14,-43,-92,-43,0,-185
24,48,24,-36,0,36,14,-43,-92,-48,0,-185
34,39,4,-36,14,21,24,-34,-92,-39,9,-175
29,39,9,-34,9,24,24,-34,-92,-43,4,-175
24,39,14,-31,4,26,24,-34,-92,-43,4,-175
24,34,9,-29,7,21,24,-29,-92,-39,4,-175
24,39,14,-31,4,26,14,-29,-92,-39,19,-175
24,39,14,-31,4,26,14,-29,-92,-39,19,-175
24,43,19,-34,2,31,14,-29,-92,-39,14,-175
24,53,29,-39,-2,41,14,-29,-92,-43,4,-175
14,43,29,-29,-7,36,14,-29,-97,-53,-4,-195
14,43,29,-29,-7,36,14,-29,-97,-48,0,-195
14,48,34,-31,-9,41,14,-29,-97,-48,0,-195
14,48,34,-31,-9,41,19,-29,-97,-48,0,-200
24,48,24,-36,0,36,29,-29,-92,-48,0,-190
19,43,24,-31,-2,34,29,-24,-92,-53,0,-185
19,43,24,-31,-2,34,29,-24,-87,-53,0,-185
24,43,19,-34,2,31,34,-24,-82,-53,0,-190
14,34,19,-24,-2,26,24,-24,-82,-48,-9,-190
14,34,19,-24,-2,26,24,-19,-78,-48,-9,-190
14,34,19,-24,-2,26,24,-19,-78,-48,-9,-190
9,29,19,-19,-4,24,24,-19,-78,-53,-19,-195
9,29,19,-19,-4,24,29,-19,-73,-43,-9,-185
9,29,19,-19,-4,24,34,-9,-68,-43,-9,-185
9,29,19,-19,-4,24,34,-9,-68,-43,-9,-185
9,24,14,-17,-2,19,39,-9,-68,-43,-9,-185
14,34,19,-24,-2,26,39,-9,-63,-43,-9,-195
14,34,19,-24,-2,26,39,-9,-63,-43,-9,-195
14,34,19,-24,-2,26,39,-9,-58,-43,-14,-195
14,34,19,-24,-2,26,39,-4,-58,-43,-19,-195
14,24,9,-19,2,17,39,-4,-53,-53,-19,-195
14,24,9,-19,2,17,39,-4,-53,-53,-14,-195
14,24,9,-19,2,17,39,-4,-48,-48,-9,-200
14,24,9,-19,2,17,39,0,-48,-48,-9,-204
24,24,0,-24,12,12,29,0,-43,-53,-24,-204
24,19,-4,-21,14,7,34,0,-43,-43,-24,-209
29,9,-19,-19,24,-4,34,4,-34,-39,-24,-214
34,0,-34,-17,34,-17,34,9,-24,-34,-24,-219
19,4,-14,-12,17,-4,43,9,-29,-29,-14,-214
9,9,0,-9,4,4,48,14,-24,-29,-14,-214
4,14,9,-9,-2,12,48,14,-24,-29,-14,-209
4,19,14,-12,-4,17,48,9,-24,-29,-14,-200
14,19,4,-17,4,12,53,0,-19,-34,-14,-209
14,24,9,-19,2,17,53,9,-19,-29,-14,-209
14,24,9,-19,2,17,53,9,-19,-29,-14,-209
14,24,9,-19,2,17,53,4,-14,-29,-14,-214
14,19,4,-17,4,12,48,4,-14,-19,-14,-204
14,19,4,-17,4,12,48,4,-14,-19,-14,-204
14,19,4,-17,4,12,48,4,-19,-19,-14,-204
14,19,4,-17,4,12,48,4,-19,-19,-14,-204
19,19,0,-19,9,9,48,19,-9,-9,-14,-204
19,19,0,-19,9,9,48,19,-9,-9,-9,-204
19,19,0,-19,9,9,48,19,0,-9,-9,-204
19,19,0,-19,9,9,48,19,4,-9,-9,-204
19,14,-4,-17,12,4,58,9,-4,-14,-9,-204
19,14,-4,-17,12,4,58,9,-4,-9,-9,-200
19,14,-4,-17,12,4,58,14,-4,-9,-9,-200
19,14,-4,-17,12,4,58,14,-4,-9,-9,-200
19,24,4,-21,7,14,48,14,-4,0,9,-190
19,24,4,-21,7,14,48,9,-4,0,9,-190
19,29,9,-24,4,19,48,9,-4,0,9,-190
19,29,9,-24,4,19,48,9,-4,0,9,-190
29,39,9,-34,9,24,48,9,-4,0,0,-200
24,34,9,-29,7,21,48,9,-9,-4,0,-195
24,34,9,-29,7,21,48,9,-9,-9,0,-195
24,34,9,-29,7,21,48,9,-9,-9,0,-195
14,34,19,-24,-2,26,48,9,-14,-4,14,-195
14,34,19,-24,-2,26,48,9,-14,-4,14,-195
14,34,19,-24,-2,26,48,4,-14,-4,19,-195
14,34,19,-24,-2,26,48,4,-14,-4,19,-195
14,34,19,-24,-2,26,48,9,-14,4,19,-185
14,39,24,-26,-4,31,48,9,-19,0,19,-185
14,34,19,-24,-2,26,48,9,-19,0,19,-180
14,24,9,-19,2,17,48,9,-24,0,14,-180
14,29,14,-21,0,21,48,9,-24,-9,14,-180
14,29,14,-21,0,21,48,4,-24,-9,14,-180
14,29,14,-21,0,21,48,4,-24,-9,14,-180
14,24,9,-19,2,17,48,4,-24,-9,19,-180
14,24,9,-19,2,17,48,4,-14,-9,19,-180
14,34,19,-24,-2,26,48,-4,-24,-9,19,-180
14,43,29,-29,-7,36,48,-4,-24,-14,14,-180
14,43,29,-29,-7,36,43,-9,-24,-19,14,-180
4,29,24,-17,-9,26,53,-9,-34,-19,14,-180
4,24,19,-14,-7,21,53,-9,-34,-19,14,-180
9,24,14,-17,-2,19,53,-9,-34,-14,19,-175
9,24,14,-17,-2,19,53,-9,-34,-14,19,-175
14,34,19,-24,-2,26,53,-9,-34,-4,19,-175
4,34,29,-19,-12,31,48,-9,-39,-14,19,-175
4,39,34,-21,-14,36,48,-4,-39,-14,19,-175
4,39,34,-21,-14,36,53,-4,-39,-9,19,-170
14,48,34,-31,-9,41,53,-4,-48,-19,19,-180
14,48,34,-31,-9,41,53,-4,-48,-19,19,-185
19,48,29,-34,-4,39,53,-4,-48,-19,19,-185
24,58,34,-41,-4,46,53,-4,-48,-19,19,-180
24,58,34,-41,-4,46,58,-4,-39,-19,19,-170
29,58,29,-43,0,43,58,-4,-39,-19,29,-161
9,48,39,-29,-14,43,58,-9,-39,-19,29,-165
24,58,34,-41,-4,46,58,0,-29,-9,29,-156
29,58,29,-43,0,43,58,0,-29,-9,29,-156
34,58,24,-46,4,41,58,0,-29,-9,29,-156
39,58,19,-48,9,39,58,0,-29,-9,29,-156
39,58,19,-48,9,39,43,0,-39,-19,24,-161
39,63,24,-51,7,43,39,0,-39,-19,24,-161
39,73,34,-56,2,53,39,0,-34,-19,29,-151
39,78,39,-58,0,58,39,0,-24,-14,34,-151
39,82,43,-61,-2,63,43,0,-14,0,39,-151
39,87,48,-63,-4,68,39,0,-19,0,39,-151
39,92,53,-65,-7,73,39,-4,-19,0,43,-146
43,102,58,-73,-7,80,39,-4,-14,4,43,-141
34,107,73,-70,-19,90,34,0,-4,9,48,-141
39,107,68,-73,-14,87,24,0,0,9,53,-136
48,117,68,-82,-9,92,14,0,9,14,58,-131
53,126,73,-90,-9,100,9,0,9,19,58,-126
63,136,73,-100,-4,104,0,0,9,24,58,-122
68,141,73,-104,-2,107,-14,-4,9,24,68,-122
73,151,78,-112,-2,114,-29,-14,9,29,73,-117
73,156,82,-114,-4,119,-39,-14,9,29,73,-112
63,170,107,-117,-21,139,-53,-19,0,34,73,-97
73,175,102,-124,-14,139,-63,-24,-4,34,73,-97
73,175,102,-124,-14,139,-73,-39,-4,29,73,-97
73,175,102,-124,-14,139,-78,-58,-14,24,73,-97
73,170,97,-122,-12,134,-82,-78,-24,24,78,-97
73,175,102,-124,-14,139,-87,-78,-24,24,78,-97
73,180,107,-126,-17,143,-87,-73,-24,24,82,-87
73,185,112,-129,-19,148,-87,-73,-24,24,82,-82
63,190,126,-126,-31,158,-87,-78,-34,24,82,-87
68,190,122,-129,-26,156,-87,-78,-34,24,92,-82
73,190,117,-131,-21,153,-82,-73,-34,24,97,-78
82,190,107,-136,-12,148,-78,-68,-29,34,102,-73
102,190,87,-146,7,139,-78,-58,-14,48,126,-53
122,195,73,-158,24,134,-73,-48,-4,53,136,-48
126,200,73,-163,26,136,-58,-43,4,63,146,-39
126,214,87,-170,19,151,-53,-39,4,68,151,-29
126,214,87,-170,19,151,-53,-19,19,82,161,-19
122,200,78,-161,21,139,-48,-19,19,82,161,-19
117,190,73,-153,21,131,-39,-19,14,82,156,-19
112,175,63,-143,24,119,-29,-19,9,68,146,-34
102,165,63,-134,19,114,-24,-39,-14,39,122,-48
87,146,58,-117,14,102,-14,-39,-34,19,97,-63
63,126,63,-95,0,95,0,-53,-43,9,92,-82
53,97,43,-75,4,70,4,-53,-63,-9,68,-97
34,78,43,-56,-4,61,24,-58,-73,-19,58,-112
19,73,53,-46,-17,63,34,-53,-73,-24,48,-122
9,63,53,-36,-21,58,39,-48,-68,-29,43,-126
0,63,63,-31,-31,63,48,-39,-63,-39,39,-131
0,53,53,-26,-26,53,53,-48,-73,-39,29,-141
4,53,48,-29,-21,51,58,-43,-73,-39,24,-141
4,48,43,-26,-19,46,58,-43,-73,-39,19,-146
9,43,34,-26,-12,39,63,-39,-73,-39,19,-151
9,34,24,-21,-7,29,68,-29,-68,-39,19,-141
9,29,19,-19,-4,24,68,-29,-68,-39,14,-141
9,29,19,-19,-4,24,73,-29,-68,-39,14,-146
4,24,19,-14,-7,21,78,-24,-68,-39,14,-146
-4,24,29,-9,-17,26,78,-24,-63,-39,14,-156
0,24,24,-12,-12,24,78,-24,-63,-39,14,-161
0,19,19,-9,-9,19,78,-24,-73,-43,14,-161
0,19,19,-9,-9,19,78,-24,-73,-43,9,-161
0,14,14,-7,-7,14,82,-24,-73,-43,9,-161
0,14,14,-7,-7,14,82,-24,-73,-43,9,-161
0,14,14,-7,-7,14,82,-24,-73,-43,9,-165
-4,19,24,-7,-14,21,82,-24,-68,-43,9,-165
-4,19,24,-7,-14,21,92,-4,-63,-34,14,-161
-9,14,24,-2,-17,19,92,-4,-58,-34,14,-156
-9,14,24,-2,-17,19,97,-9,-53,-34,14,-151
0,14,14,-7,-7,14,97,-9,-48,-34,14,-146
9,14,4,-12,2,9,87,-19,-58,-43,14,-156
9,14,4,-12,2,9,87,-19,-58,-39,14,-151
9,14,4,-12,2,9,92,-19,-53,-39,14,-151
9,14,4,-12,2,9,92,-19,-53,-43,14,-156
4,4,0,-4,2,2,97,-24,-63,-43,14,-156
-4,9,14,-2,-9,12,92,-24,-63,-39,14,-156
-9,9,19,0,-14,14,92,-24,-63,-39,14,-156
-14,4,19,4,-17,12,102,-24,-63,-39,14,-156
-9,14,24,-2,-17,19,102,-24,-63,-39,14,-156
-4,19,24,-7,-14,21,102,-24,-68,-39,9,-156
0,24,24,-12,-12,24,102,-24,-68,-39,9,-156
4,29,24,-17,-9,26,102,-24,-63,-39,14,-156
-14,19,34,-2,-24,26,102,-24,-63,-39,24,-146
-4,19,24,-7,-14,21,102,-14,-53,-39,24,-151
9,14,4,-12,2,9,107,-9,-53,-39,14,-156
9,0,-9,-4,9,-4,112,-4,-48,-39,4,-170
0,-19,-19,9,9,-19,112,9,-43,-29,0,-170
-9,-29,-19,19,4,-24,122,9,-43,-24,9,-175
0,-24,-24,12,12,-24,122,0,-34,-19,9,-175
9,-29,-39,9,24,-34,122,-4,-34,-9,9,-180
4,-43,-48,19,26,-46,122,14,-4,9,14,-190
0,-53,-53,26,26,-53,117,48,58,68,39,-180
9,-53,-63,21,36,-58,117,73,131,131,68,-175
43,-48,-92,2,68,-70,82,68,170,204,112,-161
78,-24,-102,-26,90,-63,39,58,185,312,204,-102
126,9,-117,-68,122,-53,-14,53,204,458,336,-19
200,73,-126,-136,163,-26,-82,9,185,614,483,92
258,146,-112,-202,185,17,-156,-92,43,732,653,229
297,234,-63,-265,180,85,-244,-214,-102,839,834,370
346,326,-19,-336,183,153,-326,-307,-190,1015,1019,517
390,434,43,-412,173,239,-419,-434,-273,1195,1220,658
424,551,126,-488,148,339,-531,-605,-434,1346,1405,810
434,663,229,-549,102,446,-629,-795,-610,1449,1571,971
419,761,341,-590,39,551,-697,-1005,-814,1478,1673,1093
370,849,478,-610,-53,663,-771,-1278,-1122,1395,1712,1215
317,917,600,-617,-141,758,-834,-1571,-1449,1224,1708,1327
268,985,717,-627,-224,851,-863,-1756,-1747,1024,1654,1420
224,1010,785,-617,-280,897,-897,-1922,-2059,732,1507,1444
175,976,800,-575,-312,888,-932,-2064,-2366,385,1293,1434
131,917,785,-524,-326,851,-946,-2117,-2537,87,1073,1410
73,907,834,-490,-380,871,-985,-2191,-2674,-263,800,1342
34,936,902,-485,-434,919,-1029,-2269,-2815,-736,453,1210
14,927,912,-470,-448,919,-1039,-2239,-2864,-1151,146,1054
4,883,878,-444,-436,880,-966,-2078,-2737,-1346,-24,888
4,785,780,-395,-387,783,-810,-1815,-2444,-1342,-117,683
-14,590,605,-287,-309,597,-595,-1444,-1986,-1195,-200,434
-39,380,419,-170,-229,400,-395,-1044,-1488,-990,-268,165
-48,248,297,-100,-173,273,-268,-766,-1122,-834,-312,-14
-53,161,214,-53,-134,187,-185,-610,-863,-722,-341,-112
-53,63,117,-4,-85,90,-136,-488,-668,-614,-331,-170
-63,0,63,31,-63,31,-63,-370,-507,-512,-312,-200
-53,-43,9,48,-31,-17,4,-273,-390,-429,-283,-219
-53,-78,-24,65,-14,-51,43,-204,-317,-370,-263,-248
-63,-102,-39,82,-12,-70,73,-156,-258,-336,-263,-283
-73,-102,-29,87,-21,-65,97,-112,-200,-297,-239,-287
-68,-92,-24,80,-21,-58,122,-68,-151,-258,-204,-287
-68,-92,-24,80,-21,-58,131,-39,-102,-229,-190,-283
-58,-92,-34,75,-12,-63,151,-14,-48,-185,-170,-273
-43,-82,-39,63,-2,-61,170,14,0,-151,-151,-263
-34,-73,-39,53,2,-56,170,29,24,-117,-126,-253
-29,-78,-48,53,9,-63,170,48,53,-82,-107,-239
-19,-48,-29,34,4,-39,175,58,82,-53,-87,-224
-19,-34,-14,26,-2,-24,165,68,97,-43,-63,-224
-29,-29,0,29,-14,-14,156,73,97,-53,-63,-224
-34,-24,9,29,-21,-7,165,73,107,-53,-63,-224
-34,-24,9,29,-21,-7,175,78,117,-48,-63,-219
-34,-24,9,29,-21,-7,175,82,131,-34,-63,-219
-29,-29,0,29,-14,-14,185,87,126,-39,-63,-224
-29,-29,0,29,-14,-14,185,92,131,-34,-63,-224
-24,-29,-4,26,-9,-17,185,92,131,-29,-63,-224
-24,-29,-4,26,-9,-17,180,92,131,-29,-58,-229
-24,-29,-4,26,-9,-17,190,97,136,-24,-63,-239
-24,-24,0,24,-12,-12,190,97,141,-24,-63,-234
-24,-24,0,24,-12,-12,190,97,146,-24,-63,-234
-24,-24,0,24,-12,-12,195,97,151,-14,-63,-234
-34,-24,9,29,-21,-7,200,112,161,-14,-63,-224
-34,-24,9,29,-21,-7,200,112,165,-14,-63,-224
-34,-24,9,29,-21,-7,195,117,165,-9,-63,-229
-34,-24,9,29,-21,-7,195,117,165,-9,-63,-229
-24,-24,0,24,-12,-12,190,117,175,-4,-63,-234
-24,-24,0,24,-12,-12,190,122,175,-4,-58,-234
-24,-24,0,24,-12,-12,190,122,180,0,-58,-234
-24,-24,0,24,-12,-12,190,122,180,0,-58,-234
-34,-24,9,29,-21,-7,190,117,180,-4,-58,-234
-34,-14,19,24,-26,2,190,117,180,-4,-63,-234
-34,-14,19,24,-26,2,190,122,185,0,-63,-234
-34,-19,14,26,-24,-2,195,122,190,0,-63,-234
-19,-9,9,14,-14,0,195,131,190,0,-53,-224
-19,-9,9,14,-14,0,195,131,190,0,-53,-224
-19,-9,9,14,-14,0,195,131,195,0,-53,-224
-19,-4,14,12,-17,4,195,136,195,0,-53,-224
-24,-9,14,17,-19,2,185,126,204,4,-63,-224
-24,-9,14,17,-19,2,185,126,204,4,-63,-224
-29,-14,14,21,-21,0,185,131,204,4,-63,-224
-29,-14,14,21,-21,0,185,131,204,4,-63,-224
-19,-24,-4,21,-7,-14,195,126,214,9,-63,-224
-19,-24,-4,21,-7,-14,195,126,214,9,-63,-229
-19,-24,-4,21,-7,-14,195,126,214,9,-63,-229
-14,-19,-4,17,-4,-12,195,126,224,9,-63,-224
-24,-14,9,19,-17,-2,185,131,224,9,-63,-234
-24,-14,9,19,-17,-2,185,131,224,14,-63,-234
-19,-9,9,14,-14,0,185,141,234,14,-63,-234
-19,0,19,9,-19,9,185,141,239,19,-63,-234
-19,-9,9,14,-14,0,185,141,239,19,-68,-234
-19,-9,9,14,-14,0,185,146,244,19,-68,-234
-24,-9,14,17,-19,2,185,146,248,19,-63,-234
-24,-4,19,14,-21,7,185,151,248,19,-63,-234
-14,-4,9,9,-12,2,195,151,263,19,-68,-239
-14,-4,9,9,-12,2,195,151,263,19,-73,-239
-14,-9,4,12,-9,-2,195,156,273,19,-73,-239
-14,-9,4,12,-9,-2,195,161,278,29,-68,-239
-24,-9,14,17,-19,2,195,161,278,29,-58,-229
-24,-9,14,17,-19,2,195,165,283,29,-58,-229
-24,-9,14,17,-19,2,195,165,292,29,-58,-229
-24,-9,14,17,-19,2,195,165,297,29,-63,-229
-24,-9,14,17,-19,2,195,165,312,29,-63,-229
-24,-4,19,14,-21,7,195,175,317,34,-63,-229
-24,-4,19,14,-21,7,195,175,326,39,-63,-229
-24,-4,19,14,-21,7,195,175,331,39,-63,-234
-14,0,14,7,-14,7,195,180,326,34,-68,-234
-14,0,14,7,-14,7,195,185,336,34,-68,-234
-14,0,14,7,-14,7,195,185,351,43,-63,-234
-14,0,14,7,-14,7,195,185,361,43,-63,-234
-24,0,24,12,-24,12,195,190,361,48,-78,-234
-24,0,24,12,-24,12,195,195,366,48,-78,-239
-24,4,29,9,-26,17,195,195,370,48,-82,-239
-24,4,29,9,-26,17,195,204,380,53,-82,-239
-14,14,29,0,-21,21,209,209,390,58,-73,-229
-14,14,29,0,-21,21,209,219,405,58,-73,-229
-14,14,29,0,-21,21,204,229,419,63,-73,-229
-14,14,29,0,-21,21,204,239,434,68,-73,-224
-14,4,19,4,-17,12,195,234,434,73,-82,-234
-19,4,24,7,-21,14,195,239,444,73,-82,-234
-19,14,34,2,-26,24,200,244,453,73,-82,-234
-14,19,34,-2,-24,26,200,248,463,78,-92,-239
-14,14,29,0,-21,21,200,253,468,78,-82,-229
-14,14,29,0,-21,21,200,258,478,78,-82,-229
-19,9,29,4,-24,19,200,263,488,87,-82,-229
-19,9,29,4,-24,19,200,268,507,87,-82,-229
-19,9,29,4,-24,19,200,273,512,87,-92,-239
-14,14,29,0,-21,21,200,278,517,92,-92,-239
-14,14,29,0,-21,21,200,283,531,92,-92,-239
-14,19,34,-2,-24,26,200,283,536,92,-92,-234
-14,24,39,-4,-26,31,195,292,541,82,-92,-234
-14,24,39,-4,-26,31,195,292,551,82,-97,-239
-14,24,39,-4,-26,31,190,297,556,82,-97,-239
-14,29,43,-7,-29,36,190,297,566,82,-97,-239
-14,29,43,-7,-29,36,190,292,566,87,-107,-239
-9,29,39,-9,-24,34,190,292,570,87,-107,-239
-9,29,39,-9,-24,34,190,292,570,87,-112,-239
-9,29,39,-9,-24,34,180,292,570,82,-122,-244
0,43,43,-21,-21,43,170,297,570,73,-122,-244
0,43,43,-21,-21,43,170,297,570,73,-126,-239
0,43,43,-21,-21,43,165,297,575,73,-126,-239
4,43,39,-24,-17,41,165,292,575,73,-126,-239
4,43,39,-24,-17,41,165,292,575,68,-136,-239
4,53,48,-29,-21,51,161,292,575,68,-136,-239
9,53,43,-31,-17,48,156,292,575,63,-141,-239
9,53,43,-31,-17,48,151,292,570,63,-141,-239
4,53,48,-29,-21,51,146,283,566,63,-141,-229
4,53,48,-29,-21,51,146,273,556,53,-146,-229
4,53,48,-29,-21,51,146,268,546,53,-146,-229
9,53,43,-31,-17,48,146,263,546,58,-146,-224
19,48,29,-34,-4,39,151,253,527,58,-141,-224
19,48,29,-34,-4,39,151,253,517,53,-141,-224
19,48,29,-34,-4,39,151,248,502,53,-136,-214
19,48,29,-34,-4,39,146,239,488,53,-136,-209
24,39,14,-31,4,26,131,214,463,34,-136,-209
29,39,9,-34,9,24,126,204,444,29,-136,-209
29,39,9,-34,9,24,122,195,434,29,-126,-204
34,39,4,-36,14,21,117,185,419,29,-126,-195
34,39,4,-36,14,21,126,185,405,29,-122,-190
34,39,4,-36,14,21,122,175,390,29,-117,-190
34,34,0,-34,17,17,117,165,375,29,-107,-185
34,34,0,-34,17,17,117,161,361,29,-102,-185
39,48,9,-43,14,29,102,141,346,24,-107,-175
43,48,4,-46,19,26,102,131,331,29,-97,-170
43,48,4,-46,19,26,97,122,322,29,-92,-165
43,48,4,-46,19,26,92,122,307,29,-78,-161
43,48,4,-46,19,26,92,107,302,43,-63,-151
43,48,4,-46,19,26,87,102,287,43,-63,-151
43,48,4,-46,19,26,87,92,273,43,-53,-146
43,48,4,-46,19,26,87,92,263,48,-43,-141
39,48,9,-43,14,29,87,78,239,48,-34,-136
39,48,9,-43,14,29,92,73,224,48,-24,-131
39,48,9,-43,14,29,92,63,209,48,-14,-126
34,43,9,-39,12,26,92,58,190,48,-4,-122
43,34,-9,-39,26,12,97,48,180,53,9,-117
43,39,-4,-41,24,17,92,39,165,48,19,-112
43,39,-4,-41,24,17,92,34,151,43,29,-107
43,39,-4,-41,24,17,92,24,141,43,29,-102
34,48,14,-41,9,31,82,19,117,53,34,-97
34,48,14,-41,9,31,82,19,112,43,43,-92
29,48,19,-39,4,34,82,9,97,39,48,-92
24,48,24,-36,0,36,82,4,87,34,48,-92
24,39,14,-31,4,26,82,0,82,19,48,-102
24,39,14,-31,4,26,82,-4,73,19,53,-97
24,39,14,-31,4,26,82,-9,63,14,58,-97
19,39,19,-29,0,29,82,-14,58,9,58,-87
19,39,19,-29,0,29,82,-14,43,19,58,-87
19,39,19,-29,0,29,82,-19,34,14,58,-87
19,39,19,-29,0,29,82,-24,24,9,58,-87
19,39,19,-29,0,29,82,-24,19,9,58,-87
9,39,29,-24,-9,34,78,-29,9,4,73,-78
0,39,39,-19,-19,39,78,-34,4,0,73,-78
0,39,39,-19,-19,39,78,-34,0,-4,73,-82
0,43,43,-21,-21,43,78,-39,-4,-9,73,-82
9,43,34,-26,-12,39,78,-39,-4,0,73,-82
9,43,34,-26,-12,39,78,-39,-9,-4,73,-82
9,34,24,-21,-7,29,82,-39,-14,-9,73,-82
9,34,24,-21,-7,29,82,-39,-19,-9,73,-78
4,43,39,-24,-17,41,82,-39,-19,-9,73,-78
4,43,39,-24,-17,41,82,-43,-24,-19,73,-78
14,48,34,-31,-9,41,82,-43,-29,-19,73,-78
14,48,34,-31,-9,41,82,-48,-29,-24,73,-78
14,39,24,-26,-4,31,82,-48,-29,-24,63,-78
9,39,29,-24,-9,34,82,-48,-34,-29,63,-78
4,39,34,-21,-14,36,82,-48,-34,-34,63,-78
4,39,34,-21,-14,36,82,-48,-34,-34,63,-78
4,39,34,-21,-14,36,82,-53,-34,-24,63,-78
14,39,24,-26,-4,31,82,-53,-34,-24,58,-78
14,39,24,-26,-4,31,82,-53,-34,-24,58,-78
14,39,24,-26,-4,31,82,-53,-34,-29,58,-78
14,39,24,-26,-4,31,82,-63,-34,-39,58,-87
9,39,29,-24,-9,34,82,-63,-34,-43,53,-87
4,39,34,-21,-14,36,82,-63,-34,-43,53,-87
4,34,29,-19,-12,31,82,-58,-34,-39,53,-87
4,34,29,-19,-12,31,82,-58,-34,-39,58,-87
4,29,24,-17,-9,26,82,-58,-34,-39,58,-87
4,29,24,-17,-9,26,82,-58,-34,-39,53,-87
4,34,29,-19,-12,31,82,-58,-34,-43,43,-87
4,34,29,-19,-12,31,92,-58,-19,-43,43,-87
4,34,29,-19,-12,31,92,-58,-19,-39,48,-87
4,39,34,-21,-14,36,92,-58,-19,-39,48,-87
4,39,34,-21,-14,36,97,-58,-19,-39,48,-92
-4,29,34,-12,-19,31,87,-48,-24,-39,48,-92
-9,24,34,-7,-21,29,87,-43,-24,-43,48,-87
-9,24,34,-7,-21,29,87,-43,-19,-43,48,-87
-4,24,29,-9,-17,26,92,-43,-14,-43,48,-92
4,34,29,-19,-12,31,92,-53,-14,-39,39,-92
4,34,29,-19,-12,31,92,-48,-9,-39,39,-92
4,34,29,-19,-12,31,92,-48,-9,-39,39,-92
0,29,29,-14,-14,29,92,-48,-9,-43,29,-97
0,29,29,-14,-14,29,92,-48,-4,-43,39,-97
0,29,29,-14,-14,29,92,-39,0,-43,39,-97
0,29,29,-14,-14,29,87,-39,0,-43,39,-97
0,24,24,-12,-12,24,87,-39,0,-43,39,-97
0,24,24,-12,-12,24,97,-29,4,-34,39,-97
-4,24,29,-9,-17,26,97,-29,4,-34,39,-97
-9,24,34,-7,-21,29,97,-29,9,-34,34,-97
-14,24,39,-4,-26,31,97,-24,9,-34,29,-97
-4,24,29,-9,-17,26,97,-14,24,-34,29,-107
-4,24,29,-9,-17,26,97,-14,24,-34,34,-107
-4,24,29,-9,-17,26,97,-14,29,-29,39,-112
-4,24,29,-9,-17,26,97,-9,29,-29,39,-117
-4,24,29,-9,-17,26,97,-19,24,-29,34,-107
-4,19,24,-7,-14,21,102,-19,24,-24,34,-112
0,9,9,-4,-4,9,102,-14,34,-24,34,-117
4,0,-4,-2,4,-2,102,-9,43,-24,34,-122
-4,9,14,-2,-9,12,92,-19,39,-19,24,-112
-9,9,19,0,-14,14,97,-14,43,-19,24,-117
-9,9,19,0,-14,14,97,-14,43,-19,24,-117
-4,9,14,-2,-9,12,97,-19,43,-19,24,-112
4,9,4,-7,0,7,102,-29,39,-24,24,-122
4,14,9,-9,-2,12,102,-19,39,-19,24,-122
4,14,9,-9,-2,12,102,-19,39,-19,24,-122
4,14,9,-9,-2,12,102,-24,43,-19,24,-126
4,9,4,-7,0,7,107,-14,53,-9,24,-117
4,9,4,-7,0,7,107,-14,53,-9,24,-117
4,9,4,-7,0,7,107,-14,48,-9,24,-117
4,9,4,-7,0,7,107,-14,48,-9,24,-117
9,9,0,-9,4,4,107,-9,48,-9,24,-126
9,9,0,-9,4,4,107,-9,48,-9,29,-126
9,9,0,-9,4,4,107,-9,58,-9,29,-126
9,9,0,-9,4,4,107,-9,63,-9,29,-126
0,14,14,-7,-7,14,97,-9,53,-4,29,-126
0,14,14,-7,-7,14,97,-9,53,0,29,-122
0,14,14,-7,-7,14,97,-4,53,0,29,-122
0,14,14,-7,-7,14,97,-4,53,0,29,-122
9,24,14,-17,-2,19,97,4,53,0,29,-122
9,24,14,-17,-2,19,97,0,53,0,29,-122
9,29,19,-19,-4,24,97,0,53,0,29,-122
9,29,19,-19,-4,24,97,0,53,0,29,-122
9,29,19,-19,-4,24,97,0,63,9,39,-112
4,24,19,-14,-7,21,97,0,58,4,39,-107
4,24,19,-14,-7,21,97,0,58,0,39,-107
4,24,19,-14,-7,21,97,0,58,0,39,-107
-4,14,19,-4,-12,17,97,9,53,4,34,-117
-4,14,19,-4,-12,17,97,9,53,4,34,-117
-4,14,19,-4,-12,17,97,4,53,4,39,-117
-4,14,19,-4,-12,17,97,4,53,4,39,-117
4,19,14,-12,-4,17,97,-9,43,4,39,-107
4,29,24,-17,-9,26,97,-9,39,0,39,-107
4,29,24,-17,-9,26,97,-9,39,0,39,-102
4,24,19,-14,-7,21,97,-9,34,0,34,-102
-4,19,24,-7,-14,21,97,-9,34,0,34,-102
-4,19,24,-7,-14,21,97,-14,34,0,34,-102
-4,19,24,-7,-14,21,97,-14,34,0,34,-102
-4,14,19,-4,-12,17,97,-14,34,0,39,-102
4,4,0,-4,2,2,97,-4,34,-9,39,-102
4,14,9,-9,-2,12,97,-14,24,-9,39,-102
4,24,19,-14,-7,21,97,-14,24,-14,34,-102
4,24,19,-14,-7,21,92,-19,24,-19,34,-102
-4,24,29,-9,-17,26,92,-9,24,-9,43,-92
-4,24,29,-9,-17,26,92,-9,24,-9,43,-92
0,29,29,-14,-14,29,92,-9,24,-4,48,-87
0,34,34,-17,-17,34,92,-9,24,-4,48,-87
0,24,24,-12,-12,24,82,-19,14,-14,39,-97
-4,24,29,-9,-17,26,78,-19,9,-24,39,-97
0,29,29,-14,-14,29,78,-14,9,-24,39,-97
4,29,24,-17,-9,26,82,-14,9,-19,39,-92
9,19,9,-14,0,14,92,-4,9,-19,39,-92
4,19,14,-12,-4,17,92,-4,9,-19,39,-97
4,19,14,-12,-4,17,92,-4,9,-19,39,-97
4,29,24,-17,-9,26,92,-4,9,-19,39,-92
4,19,14,-12,-4,17,97,-4,9,-19,48,-92
19,29,9,-24,4,19,97,0,9,-19,48,-87
9,39,29,-24,-9,34,97,0,19,-19,48,-87
9,39,29,-24,-9,34,97,0,19,-19,48,-87
9,39,29,-24,-9,34,97,0,19,-19,48,-87
9,39,29,-24,-9,34,97,0,19,-19,48,-87
19,43,24,-31,-2,34,82,0,9,-9,48,-82
19,53,34,-36,-7,43,78,0,9,-9,53,-82
19,68,48,-43,-14,58,78,0,14,-9,63,-73
19,78,58,-48,-19,68,78,0,24,-4,73,-73
19,73,53,-46,-17,63,73,0,24,-9,68,-82
19,78,58,-48,-19,68,68,0,19,-9,68,-82
19,82,63,-51,-21,73,68,-4,19,-9,73,-78
24,92,68,-58,-21,80,68,-4,24,-4,73,-73
24,107,82,-65,-29,95,63,9,24,9,78,-73
29,107,78,-68,-24,92,53,9,29,9,82,-68
39,117,78,-78,-19,97,43,9,39,14,87,-63
43,126,82,-85,-19,104,39,9,39,19,87,-58
43,131,87,-87,-21,109,29,9,48,24,87,-43
48,131,82,-90,-17,107,14,4,48,24,97,-43
53,136,82,-95,-14,109,0,-4,48,29,102,-39
53,136,82,-95,-14,109,-9,-4,48,29,102,-34
43,141,97,-92,-26,119,-24,-9,48,34,112,-29
53,146,92,-100,-19,119,-34,-14,43,34,112,-29
53,146,92,-100,-19,119,-43,-29,43,29,112,-29
53,146,92,-100,-19,119,-48,-48,34,24,112,-29
63,151,87,-107,-12,119,-53,-68,24,24,117,-29
63,156,92,-109,-14,124,-58,-68,24,24,117,-29
63,161,97,-112,-17,129,-58,-63,24,24,122,-19
63,165,102,-114,-19,134,-58,-63,24,24,122,-14
63,170,107,-117,-21,139,-58,-68,14,24,112,-19
68,170,102,-119,-17,136,-58,-68,14,24,122,-14
73,170,97,-122,-12,134,-53,-63,14,24,126,-9
82,170,87,-126,-2,129,-48,-58,19,34,131,-4
107,170,63,-139,21,117,-58,-48,34,48,146,14
122,175,53,-148,34,114,-53,-39,43,53,156,19
122,180,58,-151,31,119,-39,-34,53,63,165,29
117,195,78,-156,19,136,-34,-29,53,68,170,39
117,195,78,-156,19,136,-34,-9,58,73,180,39
112,180,68,-146,21,124,-29,-9,58,73,180,39
107,170,63,-139,21,117,-19,-9,53,73,175,39
102,156,53,-129,24,104,-9,-9,48,58,165,24
73,136,63,-104,4,100,14,-19,29,39,151,19
58,117,58,-87,0,87,24,-19,14,19,126,4
34,97,63,-65,-14,80,39,-34,9,9,122,-14
24,68,43,-46,-9,56,43,-34,-4,-9,97,-29
19,68,48,-43,-14,58,53,-43,-29,-29,78,-53
9,63,53,-36,-21,58,63,-43,-34,-34,68,-63
4,53,48,-29,-21,51,68,-43,-34,-39,63,-68
0,53,53,-26,-26,53,78,-39,-34,-48,58,-73
-4,43,48,-19,-26,46,82,-39,-34,-39,68,-73
-4,43,48,-19,-26,46,87,-34,-34,-39,63,-73
-9,39,48,-14,-29,43,87,-34,-34,-39,58,-78
-9,34,43,-12,-26,39,92,-29,-34,-39,58,-82
-9,34,43,-12,-26,39,97,-29,-29,-39,48,-92
-9,29,39,-9,-24,34,97,-29,-29,-39,43,-92
-9,29,39,-9,-24,34,102,-29,-29,-39,43,-97
-14,24,39,-4,-26,31,107,-24,-29,-39,43,-97
-14,24,39,-4,-26,31,107,-24,-24,-39,53,-87
-9,24,34,-7,-21,29,107,-24,-24,-39,53,-92
-9,19,29,-4,-19,24,107,-24,-34,-43,53,-92
-9,19,29,-4,-19,24,107,-24,-34,-43,48,-92
-9,14,24,-2,-17,19,112,-24,-43,-53,39,-92
-9,14,24,-2,-17,19,112,-24,-43,-53,39,-92
-9,14,24,-2,-17,19,112,-24,-43,-53,39,-97
-14,19,34,-2,-24,26,112,-24,-39,-53,39,-97
-14,19,34,-2,-24,26,112,-14,-39,-53,43,-107
-19,14,34,2,-26,24,112,-14,-39,-53,43,-107
-19,14,34,2,-26,24,117,-19,-39,-53,43,-107
-9,14,24,-2,-17,19,117,-19,-39,-53,43,-107
