I,II,III,aVR,aVL,aVF,V1,V2,V3,V4,V5,V6
102,-117,-219,7,161,-168,-29,214,312,258,146,78
92,-126,-219,17,156,-173,-48,209,312,253,146,78
92,-136,-229,21,161,-183,-53,200,302,244,136,68
92,-141,-234,24,163,-187,-58,200,297,239,131,68
92,-141,-234,24,163,-187,-68,185,273,234,122,78
92,-146,-239,26,165,-192,-63,170,263,219,107,73
78,-165,-244,43,161,-204,-58,141,239,200,97,58
53,-190,-244,68,148,-217,-39,117,219,185,82,53
39,-209,-248,85,143,-229,-24,102,204,170,78,43
43,-219,-263,87,153,-241,-9,92,195,165,78,29
39,-234,-273,97,156,-253,-4,82,180,161,73,24
29,-244,-273,107,151,-258,0,78,175,161,73,19
29,-224,-253,97,141,-239,14,87,170,156,73,24
39,-209,-248,85,143,-229,24,82,175,156,73,29
48,-200,-248,75,148,-224,29,73,170,161,73,29
58,-190,-248,65,153,-219,34,68,165,165,63,29
53,-200,-253,73,153,-226,19,68,161,156,63,19
48,-200,-248,75,148,-224,14,63,161,151,68,24
43,-200,-244,78,143,-222,4,53,161,151,68,24
34,-209,-244,87,139,-226,-4,48,156,146,63,24
29,-224,-253,97,141,-239,4,48,146,136,53,9
24,-229,-253,102,139,-241,9,43,141,131,43,9
19,-229,-248,104,134,-239,9,39,126,126,43,4
14,-229,-244,107,129,-236,9,39,126,117,34,0
24,-229,-253,102,139,-241,4,29,126,107,43,9
24,-229,-253,102,139,-241,4,34,126,112,39,0
19,-239,-258,109,139,-248,9,34,126,112,34,-4
9,-244,-253,117,131,-248,9,34,126,102,29,-14
19,-244,-263,112,141,-253,9,34,117,102,29,-14
19,-239,-258,109,139,-248,19,39,117,107,29,-9
34,-239,-273,102,153,-256,19,39,117,107,29,-9
19,-253,-273,117,146,-263,19,39,117,97,19,-14
9,-273,-283,131,146,-278,19,34,107,87,14,-29
0,-278,-278,139,139,-278,24,39,112,87,9,-29
-9,-273,-263,141,126,-268,29,43,112,87,4,-34
-39,-287,-248,163,104,-268,24,48,112,82,-9,-43
-34,-278,-244,156,104,-261,43,63,131,87,-9,-43
-39,-268,-229,153,95,-248,58,68,136,97,-4,-39
-19,-244,-224,131,102,-234,73,68,146,102,0,-34
-4,-234,-229,119,112,-231,82,68,151,107,4,-34
-19,-253,-234,136,107,-244,68,58,131,97,4,-34
-34,-248,-214,141,90,-231,63,53,131,97,4,-29
-43,-248,-204,146,80,-226,58,53,131,97,4,-29
-48,-244,-195,146,73,-219,53,53,131,97,4,-29
-39,-253,-214,146,87,-234,58,53,141,107,0,-29
-39,-253,-214,146,87,-234,63,53,141,102,-4,-34
-43,-268,-224,156,90,-246,73,53,141,102,-4,-34
-43,-268,-224,156,90,-246,78,53,141,102,0,-34
-39,-258,-219,148,90,-239,78,53,131,102,0,-43
-39,-248,-209,143,85,-229,78,53,131,102,0,-43
-48,-244,-195,146,73,-219,78,53,131,102,0,-43
-48,-234,-185,141,68,-209,78,53,131,102,0,-43
-39,-248,-209,143,85,-229,68,53,131,102,0,-43
-39,-248,-209,143,85,-229,73,53,131,102,4,-39
-34,-253,-219,143,92,-236,78,58,136,107,4,-39
-34,-258,-224,146,95,-241,78,58,136,107,4,-39
-24,-258,-234,141,104,-246,78,53,131,107,0,-39
-24,-253,-229,139,102,-241,68,48,131,102,0,-43
-29,-244,-214,136,92,-229,68,48,131,102,-4,-48
-29,-239,-209,134,90,-224,68,48,131,102,-4,-48
-43,-253,-209,148,82,-231,68,39,131,92,-4,-58
-53,-258,-204,156,75,-231,73,43,131,92,-4,-53
-63,-268,-204,165,70,-236,78,43,131,92,0,-53
-68,-273,-204,170,68,-239,78,43,136,92,0,-53
-53,-258,-204,156,75,-231,78,53,136,97,9,-53
-53,-253,-200,153,73,-226,87,53,136,102,9,-48
-53,-239,-185,146,65,-212,87,53,136,107,9,-48
-58,-234,-175,146,58,-204,87,53,136,117,9,-48
-58,-244,-185,151,63,-214,78,48,126,107,0,-53
-58,-234,-175,146,58,-204,78,43,126,107,-4,-58
-58,-209,-151,134,46,-180,78,29,122,107,-9,-58
-58,-200,-141,129,41,-170,78,19,122,107,-9,-53
-73,-219,-146,146,36,-183,92,29,131,117,4,-43
-82,-200,-117,141,17,-158,92,43,146,112,9,-48
-92,-204,-112,148,9,-158,82,29,146,122,9,-53
-87,-224,-136,156,24,-180,82,39,185,175,39,-29
-39,-195,-156,117,58,-175,82,97,273,244,107,19
19,-146,-165,63,92,-156,97,180,380,317,190,102
19,-161,-180,70,100,-170,92,244,497,409,302,195
34,-170,-204,68,119,-187,63,273,551,483,434,302
63,-151,-214,43,139,-183,53,263,531,497,561,439
82,-136,-219,26,151,-178,39,239,468,483,707,600
87,-107,-195,9,141,-151,19,156,336,502,878,766
117,-53,-170,-31,143,-112,-9,19,68,463,1039,961
131,-29,-161,-51,146,-95,-19,-146,-239,346,1195,1171
136,-19,-156,-58,146,-87,-58,-307,-517,248,1385,1395
161,0,-161,-80,161,-80,-117,-448,-775,141,1571,1615
185,24,-161,-104,173,-68,-146,-566,-1010,-43,1698,1810
219,43,-175,-131,197,-65,-185,-697,-1224,-273,1825,1976
268,73,-195,-170,231,-61,-248,-824,-1400,-439,1917,2083
336,102,-234,-219,285,-65,-322,-878,-1546,-624,1844,2025
366,107,-258,-236,312,-75,-380,-1005,-1766,-927,1659,1869
370,107,-263,-239,317,-78,-444,-1244,-2152,-1249,1512,1751
419,92,-326,-256,373,-117,-497,-1449,-2454,-1464,1366,1590
468,29,-439,-248,453,-204,-512,-1503,-2552,-1620,1073,1259
458,-87,-546,-185,502,-317,-512,-1532,-2620,-1790,668,810
458,-185,-644,-136,551,-414,-483,-1532,-2664,-1942,283,414
488,-263,-751,-112,619,-507,-448,-1478,-2586,-1956,-19,107
507,-370,-878,-68,692,-624,-395,-1351,-2420,-1932,-341,-161
502,-492,-995,-4,749,-744,-346,-1190,-2274,-1932,-692,-424
473,-556,-1029,41,751,-793,-278,-1063,-2152,-1947,-1000,-634
400,-605,-1005,102,702,-805,-200,-961,-1991,-1903,-1215,-800
312,-673,-985,180,649,-829,-126,-844,-1786,-1766,-1327,-941
263,-736,-1000,236,631,-868,-87,-712,-1556,-1600,-1322,-1005
195,-819,-1015,312,605,-917,-43,-541,-1332,-1410,-1234,-1005
107,-863,-971,378,539,-917,9,-356,-1063,-1180,-1093,-936
39,-824,-863,392,451,-844,48,-200,-790,-922,-917,-829
-29,-736,-707,383,339,-722,73,-122,-575,-702,-751,-712
-68,-658,-590,363,261,-624,78,-82,-434,-546,-629,-629
-48,-570,-522,309,236,-546,97,-39,-307,-409,-517,-536
-29,-502,-473,265,222,-488,131,4,-200,-312,-439,-473
-87,-497,-409,292,161,-453,151,4,-146,-258,-400,-439
-136,-458,-322,297,92,-390,175,19,-78,-195,-346,-405
-122,-361,-239,241,58,-300,204,63,4,-97,-263,-326
-112,-317,-204,214,46,-261,204,82,78,-19,-185,-273
-141,-331,-190,236,24,-261,180,78,102,19,-151,-248
-151,-331,-180,241,14,-256,156,82,126,53,-126,-224
-112,-283,-170,197,29,-226,141,82,131,68,-102,-200
-87,-234,-146,161,29,-190,131,82,131,73,-87,-185
-82,-244,-161,163,39,-202,136,78,141,82,-73,-175
-73,-253,-180,163,53,-217,146,87,146,82,-73,-175
-73,-239,-165,156,46,-202,146,78,141,92,-82,-175
-78,-234,-156,156,39,-195,136,78,146,92,-82,-175
-78,-229,-151,153,36,-190,126,68,151,92,-82,-175
-73,-229,-156,151,41,-192,117,68,156,97,-82,-175
-78,-239,-161,158,41,-200,112,82,161,102,-78,-175
-78,-239,-161,158,41,-200,112,82,165,112,-73,-170
-78,-234,-156,156,39,-195,107,82,165,112,-73,-161
-82,-234,-151,158,34,-192,102,78,165,107,-73,-161
-78,-214,-136,146,29,-175,112,78,156,97,-82,-170
-73,-214,-141,143,34,-178,112,78,161,107,-82,-170
-58,-214,-156,136,48,-185,112,78,165,112,-82,-170
-48,-209,-161,129,56,-185,112,78,175,117,-78,-170
-58,-204,-146,131,43,-175,112,87,185,126,-78,-156
-58,-219,-161,139,51,-190,107,92,185,131,-63,-146
-58,-224,-165,141,53,-195,107,92,185,131,-63,-141
-53,-224,-170,139,58,-197,102,92,180,131,-63,-136
-43,-204,-161,124,58,-183,102,78,165,112,-82,-156
-48,-200,-151,124,51,-175,107,78,165,112,-82,-161
-48,-195,-146,122,48,-170,107,78,170,112,-82,-170
-48,-190,-141,119,46,-165,102,78,170,117,-82,-175
-63,-204,-141,134,39,-173,87,78,175,117,-82,-161
-68,-219,-151,143,41,-185,87,78,175,117,-82,-161
-68,-224,-156,146,43,-190,92,82,175,122,-78,-161
-68,-219,-151,143,41,-185,97,87,175,122,-78,-156
-68,-209,-141,139,36,-175,97,87,185,112,-68,-156
-68,-214,-146,141,39,-180,97,87,180,112,-73,-156
-73,-219,-146,146,36,-183,97,87,180,102,-87,-175
-78,-224,-146,151,34,-185,92,87,180,102,-87,-175
-78,-219,-141,148,31,-180,97,97,195,117,-73,-170
-78,-219,-141,148,31,-180,107,97,195,122,-63,-156
-82,-219,-136,151,26,-178,112,92,195,126,-73,-136
-87,-214,-126,151,19,-170,117,92,195,131,-73,-131
-78,-209,-131,143,26,-170,107,87,190,131,-82,-151
-68,-209,-141,139,36,-175,107,87,185,126,-82,-156
-58,-200,-141,129,41,-170,107,87,180,122,-82,-170
-48,-200,-151,124,51,-175,107,87,175,117,-87,-175
-53,-204,-151,129,48,-178,97,87,175,107,-97,-190
-53,-204,-151,129,48,-178,92,82,175,107,-102,-190
-58,-209,-151,134,46,-180,92,82,175,97,-107,-190
-63,-214,-151,139,43,-183,97,82,165,97,-117,-190
-68,-200,-131,134,31,-165,107,78,165,87,-126,-195
-73,-200,-126,136,26,-163,107,78,170,92,-122,-195
-78,-204,-126,141,24,-165,107,87,175,92,-122,-195
-82,-204,-122,143,19,-163,107,87,175,92,-122,-200
-87,-195,-107,141,9,-151,102,78,165,87,-131,-209
-97,-195,-97,146,0,-146,97,78,165,87,-131,-214
-97,-195,-97,146,0,-146,92,82,165,92,-131,-214
-97,-195,-97,146,0,-146,92,87,165,92,-131,-214
-87,-195,-107,141,9,-151,102,92,170,97,-136,-209
-87,-190,-102,139,7,-146,97,87,175,92,-136,-214
-82,-190,-107,136,12,-148,97,92,175,97,-131,-214
-82,-190,-107,136,12,-148,97,97,180,102,-126,-209
-87,-190,-102,139,7,-146,107,102,195,102,-126,-204
-92,-190,-97,141,2,-143,107,102,195,102,-122,-195
-97,-195,-97,146,0,-146,107,102,200,107,-117,-190
-97,-204,-107,151,4,-156,107,102,200,107,-112,-180
-82,-200,-117,141,17,-158,117,102,195,102,-122,-190
-78,-204,-126,141,24,-165,117,107,190,102,-131,-195
-78,-209,-131,143,26,-170,117,112,185,97,-136,-195
-87,-209,-122,148,17,-165,117,112,180,97,-146,-200
-102,-200,-97,151,-2,-148,117,112,185,107,-141,-200
-102,-195,-92,148,-4,-143,117,122,195,107,-146,-204
-102,-180,-78,141,-12,-129,117,126,204,107,-151,-204
-102,-175,-73,139,-14,-124,117,126,209,112,-151,-214
-117,-185,-68,151,-24,-126,117,122,204,102,-161,-229
-122,-185,-63,153,-29,-124,117,122,204,102,-170,-234
-117,-175,-58,146,-29,-117,122,126,204,102,-180,-239
-122,-165,-43,143,-39,-104,122,126,204,97,-190,-248
-122,-170,-48,146,-36,-109,112,122,209,87,-195,-248
-131,-170,-39,151,-46,-104,112,131,209,87,-200,-253
-131,-161,-29,146,-51,-95,112,131,214,92,-204,-258
-136,-161,-24,148,-56,-92,112,126,214,92,-209,-258
-136,-161,-24,148,-56,-92,126,136,219,92,-204,-253
-136,-165,-29,151,-53,-97,126,141,219,92,-214,-258
-146,-175,-29,161,-58,-102,122,141,219,92,-224,-278
-151,-180,-29,165,-61,-104,122,141,219,82,-234,-287
-141,-165,-24,153,-58,-95,122,141,219,82,-244,-297
-131,-156,-24,143,-53,-90,122,151,224,82,-253,-307
-141,-156,-14,148,-63,-85,126,151,229,82,-258,-317
-151,-151,0,151,-75,-75,126,151,229,82,-263,-317
-165,-161,4,163,-85,-78,122,156,224,68,-273,-322
-175,-170,4,173,-90,-82,117,151,219,68,-278,-331
-180,-161,19,170,-100,-70,107,141,214,63,-283,-341
-175,-156,19,165,-97,-68,102,151,209,58,-287,-346
-170,-141,29,156,-100,-56,112,151,209,48,-292,-336
-170,-131,39,151,-104,-46,112,151,209,53,-292,-326
-165,-122,43,143,-104,-39,112,151,209,53,-292,-317
-161,-112,48,136,-104,-31,117,151,204,43,-297,-307
-156,-112,43,134,-100,-34,117,141,204,39,-283,-302
-156,-117,39,136,-97,-39,112,141,204,34,-278,-297
-156,-126,29,141,-92,-48,107,141,190,29,-278,-302
-161,-131,29,146,-95,-51,107,141,190,24,-273,-297
-161,-117,43,139,-102,-36,117,141,185,29,-258,-278
-161,-112,48,136,-104,-31,117,141,185,34,-253,-268
-161,-112,48,136,-104,-31,117,141,185,39,-253,-263
-156,-117,39,136,-97,-39,112,136,180,39,-248,-258
-146,-122,24,134,-85,-48,97,122,165,24,-248,-268
-146,-122,24,134,-85,-48,92,117,161,24,-239,-263
-146,-117,29,131,-87,-43,92,117,161,24,-234,-263
-136,-117,19,126,-78,-48,92,107,156,24,-224,-263
-141,-122,19,131,-80,-51,92,97,141,19,-224,-253
-146,-122,24,134,-85,-48,92,92,141,19,-209,-248
-146,-112,34,129,-90,-39,92,92,141,19,-204,-239
-151,-112,39,131,-95,-36,82,107,141,14,-209,-239
-151,-122,29,136,-90,-46,92,107,146,24,-200,-224
-146,-131,14,139,-80,-58,87,102,141,24,-180,-209
-146,-141,4,143,-75,-68,82,97,141,24,-170,-204
-141,-146,-4,143,-68,-75,82,92,131,19,-170,-200
-126,-136,-9,131,-58,-73,68,87,131,29,-146,-185
-117,-151,-34,134,-41,-92,68,87,131,29,-141,-170
-107,-151,-43,129,-31,-97,68,82,131,29,-136,-156
-92,-151,-58,122,-17,-104,68,82,131,34,-126,-146
-87,-170,-82,129,-2,-126,68,73,117,39,-131,-141
-92,-175,-82,134,-4,-129,68,73,117,34,-112,-136
-92,-175,-82,134,-4,-129,68,68,117,29,-112,-131
-87,-180,-92,134,2,-136,63,68,117,24,-112,-131
-97,-165,-68,131,-14,-117,63,73,117,29,-112,-136
-97,-161,-63,129,-17,-112,68,73,117,29,-102,-126
-112,-161,-48,136,-31,-104,68,73,117,29,-97,-126
-102,-161,-58,131,-21,-109,68,73,112,24,-87,-131
-92,-165,-73,129,-9,-119,53,63,102,9,-87,-131
-73,-170,-97,122,12,-134,53,58,102,9,-87,-122
-48,-175,-126,112,39,-151,43,43,97,9,-87,-122
-39,-185,-146,112,53,-165,43,43,97,9,-87,-122
-53,-195,-141,124,43,-168,48,53,87,19,-87,-122
-63,-200,-136,131,36,-168,53,58,87,19,-82,-117
-73,-200,-126,136,26,-163,53,58,87,19,-82,-117
-92,-200,-107,146,7,-153,53,48,87,14,-82,-117
-82,-185,-102,134,9,-143,58,48,87,9,-92,-122
-68,-170,-102,119,17,-136,58,48,87,4,-92,-122
-53,-175,-122,114,34,-148,58,48,87,0,-92,-122
-43,-170,-126,107,41,-148,58,43,87,-14,-92,-122
-34,-175,-141,104,53,-158,58,43,87,-14,-82,-117
-39,-170,-131,104,46,-151,58,48,87,-9,-82,-107
-43,-175,-131,109,43,-153,58,48,87,0,-78,-102
-43,-180,-136,112,46,-158,58,53,87,4,-78,-97
-29,-200,-170,114,70,-185,68,63,87,9,-73,-92
-29,-200,-170,114,70,-185,73,63,87,9,-68,-87
-34,-200,-165,117,65,-183,73,53,87,9,-63,-78
-34,-200,-165,117,65,-183,73,43,82,14,-58,-73
-53,-195,-141,124,43,-168,63,43,82,9,-63,-82
-53,-195,-141,124,43,-168,63,43,82,0,-78,-87
-53,-204,-151,129,48,-178,63,43,82,-4,-82,-92
-53,-204,-151,129,48,-178,63,43,82,-9,-87,-92
-34,-190,-156,112,61,-173,53,39,78,-19,-92,-107
-34,-190,-156,112,61,-173,53,39,73,-19,-92,-112
-34,-190,-156,112,61,-173,53,34,63,-24,-102,-122
-39,-195,-156,117,58,-175,53,34,58,-24,-102,-126
-48,-195,-146,122,48,-170,68,43,73,-19,-97,-117
-48,-190,-141,119,46,-165,68,48,73,-19,-97,-112
-48,-190,-141,119,46,-165,68,48,73,-24,-102,-107
-48,-185,-136,117,43,-161,63,39,73,-24,-102,-102
-39,-185,-146,112,53,-165,53,39,63,-14,-87,-97
-39,-190,-151,114,56,-170,53,43,58,-14,-82,-92
-39,-195,-156,117,58,-175,53,43,58,-14,-78,-82
-29,-204,-175,117,73,-190,53,43,58,-14,-73,-78
-34,-190,-156,112,61,-173,63,43,63,-24,-78,-87
-39,-195,-156,117,58,-175,68,43,63,-24,-82,-87
-34,-190,-156,112,61,-173,68,43,63,-24,-87,-87
-24,-185,-161,104,68,-173,68,48,68,-14,-92,-82
-29,-185,-156,107,63,-170,63,39,68,-14,-82,-82
-39,-195,-156,117,58,-175,63,39,68,-14,-78,-82
-43,-214,-170,129,63,-192,58,39,68,-19,-78,-87
-43,-224,-180,134,68,-202,53,39,63,-29,-87,-92
-29,-204,-175,117,73,-190,53,48,73,-14,-78,-87
-39,-200,-161,119,61,-180,58,48,78,-14,-73,-78
-43,-200,-156,122,56,-178,58,48,78,-9,-73,-73
-39,-209,-170,124,65,-190,58,48,78,0,-73,-68
-29,-185,-156,107,63,-170,48,29,68,-9,-78,-82
-29,-170,-141,100,56,-156,48,39,68,-4,-78,-78
-19,-170,-151,95,65,-161,48,39,73,-4,-82,-82
-19,-175,-156,97,68,-165,48,39,73,-9,-87,-87
-24,-185,-161,104,68,-173,43,39,82,-14,-87,-87
-24,-180,-156,102,65,-168,43,39,82,-9,-82,-87
-24,-175,-151,100,63,-163,48,43,82,0,-78,-82
-29,-175,-146,102,58,-161,48,48,82,9,-73,-82
-29,-185,-156,107,63,-170,48,53,82,24,-58,-68
-39,-180,-141,109,51,-161,48,53,87,24,-53,-63
-39,-180,-141,109,51,-161,48,48,87,19,-48,-58
-39,-180,-141,109,51,-161,48,48,82,19,-43,-58
-48,-180,-131,114,41,-156,39,48,82,19,-48,-68
-43,-170,-126,107,41,-148,39,43,87,19,-53,-63
-29,-165,-136,97,53,-151,39,39,87,19,-43,-63
-19,-165,-146,92,63,-156,39,39,92,24,-43,-48
-29,-156,-126,92,48,-141,39,48,82,34,-48,-48
-39,-156,-117,97,39,-136,39,53,82,34,-48,-48
-48,-136,-87,92,19,-112,29,53,82,34,-48,-53
-29,-151,-122,90,46,-136,29,53,82,34,-39,-58
-29,-151,-122,90,46,-136,29,53,102,53,-24,-34
-24,-151,-126,87,51,-139,34,63,112,58,-19,-29
-24,-141,-117,82,46,-129,34,63,112,68,-14,-24
-24,-131,-107,78,41,-119,34,68,117,68,-9,-19
-14,-122,-107,68,46,-114,39,82,136,92,0,4
-4,-122,-117,63,56,-119,48,87,146,97,19,14
9,-97,-107,43,58,-102,53,97,161,107,34,19
39,-78,-117,19,78,-97,63,112,170,117,53,29
24,-92,-117,34,70,-104,53,107,170,131,58,39
24,-112,-136,43,80,-124,48,107,165,117,43,19
9,-122,-131,56,70,-126,58,122,180,112,48,29
19,-97,-117,39,68,-107,63,136,185,122,53,29
39,-87,-126,24,82,-107,68,136,185,126,48,39
24,-97,-122,36,73,-109,68,136,185,136,58,29
19,-97,-117,39,68,-107,68,136,185,136,58,29
14,-97,-112,41,63,-104,68,136,185,136,58,29
9,-97,-107,43,58,-102,68,136,185,136,58,29
19,-92,-112,36,65,-102,68,136,190,131,48,19
19,-87,-107,34,63,-97,68,136,195,136,48,24
19,-82,-102,31,61,-92,63,136,200,141,58,34
29,-53,-82,12,56,-68,58,136,209,146,68,34
19,-63,-82,21,51,-73,53,146,209,156,68,48
14,-63,-78,24,46,-70,39,151,214,161,78,48
14,-63,-78,24,46,-70,24,156,229,170,87,63
19,-63,-82,21,51,-73,9,165,239,185,102,63
39,-53,-92,7,65,-73,-14,175,268,204,126,87
58,-53,-112,-2,85,-82,-29,185,283,219,136,102
92,-39,-131,-26,112,-85,-48,195,283,219,141,107
102,-29,-131,-36,117,-80,-68,195,283,219,146,107
87,-48,-136,-19,112,-92,-87,200,273,214,146,107
82,-58,-141,-12,112,-100,-92,190,263,204,136,97
78,-63,-141,-7,109,-102,-97,190,258,200,131,97
73,-63,-136,-4,104,-100,-97,175,244,195,131,97
82,-58,-141,-12,112,-100,-92,161,244,180,107,82
68,-78,-146,4,107,-112,-87,131,219,161,97,68
43,-102,-146,29,95,-124,-68,107,200,146,82,63
34,-107,-141,36,87,-124,-43,92,175,131,78,63
53,-102,-156,24,104,-129,-19,73,156,117,68,58
53,-112,-165,29,109,-139,-14,63,141,112,63,53
48,-117,-165,34,107,-141,-9,58,136,112,63,48
39,-117,-156,39,97,-136,0,58,126,102,53,48
29,-122,-151,46,90,-136,-4,43,117,107,63,58
29,-122,-151,46,90,-136,-4,34,107,107,63,53
29,-122,-151,46,90,-136,-4,29,97,107,53,48
29,-122,-151,46,90,-136,-14,29,92,97,53,48
19,-112,-131,46,75,-122,-19,14,92,87,43,39
19,-112,-131,46,75,-122,-29,4,92,82,39,34
14,-122,-136,53,75,-129,-39,0,87,73,29,29
14,-126,-141,56,78,-134,-43,0,87,68,24,19
24,-131,-156,53,90,-143,-34,4,92,68,29,34
24,-131,-156,53,90,-143,-29,0,78,68,34,34
24,-131,-156,53,90,-143,-24,0,78,63,29,34
24,-131,-156,53,90,-143,-14,0,78,68,34,39
24,-122,-146,48,85,-134,-4,4,78,68,19,29
19,-131,-151,56,85,-141,0,4,78,63,14,24
9,-136,-146,63,78,-141,0,4,78,48,9,14
9,-136,-146,63,78,-141,0,4,78,43,9,14
4,-136,-141,65,73,-139,0,9,68,58,19,19
14,-141,-156,63,85,-148,0,9,68,58,19,19
-4,-161,-156,82,75,-158,0,9,68,48,9,14
-9,-170,-161,90,75,-165,4,14,68,48,9,9
-19,-170,-151,95,65,-161,14,19,73,48,9,14
-19,-161,-141,90,61,-151,24,24,73,48,9,14
-39,-170,-131,104,46,-151,24,29,73,43,0,9
-53,-180,-126,117,36,-153,34,34,78,43,-4,9
-58,-190,-131,124,36,-161,48,48,82,53,0,9
-48,-175,-126,112,39,-151,53,48,92,58,4,9
-43,-175,-131,109,43,-153,53,48,97,63,9,4
-43,-190,-146,117,51,-168,53,39,92,68,14,4
-58,-175,-117,117,29,-146,43,34,82,58,4,4
-68,-165,-97,117,14,-131,43,34,82,58,4,0
-73,-151,-78,112,2,-114,43,34,82,58,4,-4
-78,-146,-68,112,-4,-107,43,34,82,58,0,-9
-73,-156,-82,114,4,-119,43,29,73,43,-9,-24
-73,-170,-97,122,12,-134,48,24,73,43,-14,-24
-68,-170,-102,119,17,-136,48,19,73,43,-14,-24
-58,-170,-112,114,26,-141,48,14,73,43,-19,-24
-63,-180,-117,122,26,-148,58,19,78,48,-14,-9
-78,-185,-107,131,14,-146,58,24,82,53,-9,-4
-82,-185,-102,134,9,-143,58,29,87,58,-4,0
-87,-185,-97,136,4,-141,58,34,92,63,0,4
-82,-175,-92,129,4,-134,53,34,92,63,9,9
-73,-170,-97,122,12,-134,58,39,97,68,14,9
-68,-165,-97,117,14,-131,58,39,97,68,19,9
-63,-165,-102,114,19,-134,58,34,92,68,19,9
-53,-161,-107,107,26,-134,53,39,92,63,14,-4
-58,-151,-92,104,17,-122,58,39,92,63,4,-9
-58,-146,-87,102,14,-117,63,39,92,63,0,-9
-58,-141,-82,100,12,-112,68,39,92,63,-4,-9
-73,-156,-82,114,4,-119,63,34,92,63,4,4
-87,-165,-78,126,-4,-122,68,34,92,63,9,4
-97,-170,-73,134,-12,-122,68,34,97,63,9,4
-92,-175,-82,134,-4,-129,58,34,97,63,9,4
-87,-185,-97,136,4,-141,68,34,97,73,19,19
-82,-175,-92,129,4,-134,68,34,97,73,19,19
-82,-175,-92,129,4,-134,68,34,97,78,19,19
-87,-175,-87,131,0,-131,68,34,97,78,19,14
-97,-165,-68,131,-14,-117,68,43,107,87,19,9
-97,-141,-43,119,-26,-92,68,34,102,87,19,9
-97,-131,-34,114,-31,-82,68,29,102,87,24,14
-102,-131,-29,117,-36,-80,73,29,102,87,34,14
-102,-122,-19,112,-41,-70,92,53,136,102,39,29
-112,-136,-24,124,-43,-80,92,58,136,131,58,43
-126,-146,-19,136,-53,-82,102,68,156,156,78,58
-126,-175,-48,151,-39,-112,92,87,195,204,126,87
-78,-165,-87,122,4,-126,87,122,263,268,209,161
-19,-122,-102,70,41,-112,63,165,361,361,302,244
14,-92,-107,39,61,-100,34,214,463,463,424,361
34,-82,-117,24,75,-100,14,234,502,527,580,536
73,-58,-131,-7,102,-95,9,229,497,522,717,707
107,-58,-165,-24,136,-112,-9,195,444,502,839,883
97,-63,-161,-17,129,-112,-39,107,283,453,990,1088
92,-9,-102,-41,97,-56,-58,-29,14,326,1127,1307
117,78,-39,-97,78,19,-87,-170,-253,180,1268,1561
141,97,-43,-119,92,26,-107,-302,-502,24,1444,1839
136,102,-34,-119,85,34,-136,-429,-746,-180,1561,2074
161,141,-19,-151,90,61,-185,-541,-961,-458,1610,2259
219,180,-39,-200,129,70,-239,-668,-1156,-692,1664,2396
258,180,-78,-219,168,51,-292,-761,-1302,-878,1649,2415
278,204,-73,-241,175,65,-341,-819,-1454,-1151,1493,2249
302,244,-58,-273,180,92,-375,-961,-1722,-1503,1278,2064
312,229,-82,-270,197,73,-429,-1195,-2113,-1805,1132,1912
312,175,-136,-244,224,19,-473,-1317,-2347,-1971,956,1659
380,156,-224,-268,302,-34,-473,-1298,-2396,-2074,668,1268
409,107,-302,-258,356,-97,-453,-1298,-2449,-2196,331,844
370,-39,-409,-165,390,-224,-439,-1312,-2498,-2259,29,448
361,-195,-556,-82,458,-375,-414,-1234,-2410,-2215,-273,102
405,-287,-692,-58,549,-490,-356,-1063,-2235,-2137,-605,-219
414,-331,-746,-41,580,-539,-287,-917,-2113,-2113,-941,-527
341,-409,-751,34,546,-580,-219,-834,-2000,-2069,-1215,-741
224,-497,-722,136,473,-610,-156,-746,-1834,-1932,-1366,-883
156,-541,-697,192,427,-619,-117,-663,-1634,-1747,-1390,-966
146,-585,-732,219,439,-658,-102,-561,-1420,-1546,-1312,-976
126,-649,-775,261,451,-712,-58,-395,-1171,-1327,-1180,-917
68,-649,-717,290,392,-683,0,-229,-897,-1058,-995,-810
-29,-570,-541,300,256,-556,43,-122,-653,-810,-790,-673
-136,-531,-395,334,129,-463,78,-73,-483,-644,-658,-580
-156,-502,-346,329,95,-424,107,-29,-375,-527,-566,-517
-136,-453,-317,295,90,-385,131,4,-268,-409,-458,-434
-156,-439,-283,297,63,-361,131,24,-185,-287,-361,-361
-165,-409,-244,287,39,-326,146,48,-107,-185,-278,-297
-161,-351,-190,256,14,-270,175,92,-14,-68,-195,-219
-161,-307,-146,234,-7,-226,175,112,58,9,-136,-185
-161,-263,-102,212,-29,-183,170,117,92,39,-102,-180
-151,-214,-63,183,-43,-139,165,122,117,63,-87,-175
-141,-195,-53,168,-43,-124,151,122,122,58,-73,-151
-136,-185,-48,161,-43,-117,131,122,112,63,-58,-126
-122,-165,-43,143,-39,-104,136,136,122,92,-34,-87
-102,-146,-43,124,-29,-95,136,126,126,112,-14,-68
-112,-146,-34,129,-39,-90,131,122,131,122,-14,-68
-117,-146,-29,131,-43,-87,117,117,136,122,-14,-68
-117,-146,-29,131,-43,-87,102,102,141,122,-14,-68
-112,-151,-39,131,-36,-95,87,97,146,126,-14,-68
-107,-170,-63,139,-21,-117,97,112,151,122,0,-58
-107,-170,-63,139,-21,-117,102,112,156,131,4,-53
-107,-165,-58,136,-24,-112,102,112,156,131,4,-43
-112,-165,-53,139,-29,-109,102,107,156,126,4,-43
-117,-165,-48,141,-34,-107,92,117,156,136,14,-53
-122,-165,-43,143,-39,-104,92,117,161,146,14,-53
-117,-165,-48,141,-34,-107,92,117,165,151,14,-53
-117,-161,-43,139,-36,-102,92,117,175,156,19,-53
-102,-151,-48,126,-26,-100,92,126,175,156,19,-39
-97,-161,-63,129,-17,-112,87,131,175,161,34,-29
-92,-161,-68,126,-12,-114,87,131,175,161,34,-24
-82,-156,-73,119,-4,-114,82,131,170,161,34,-19
-73,-141,-68,107,-2,-104,82,126,165,156,39,-9
-78,-141,-63,109,-7,-102,87,126,165,161,43,-4
-78,-141,-63,109,-7,-102,87,126,170,165,48,-4
-78,-141,-63,109,-7,-102,82,126,170,175,53,0
-97,-146,-48,122,-24,-97,68,117,165,161,43,-14
-107,-151,-43,129,-31,-97,68,117,165,156,34,-24
-112,-146,-34,129,-39,-90,73,122,165,156,29,-34
-117,-131,-14,124,-51,-73,78,126,165,151,19,-39
-112,-131,-19,122,-46,-75,68,117,165,161,29,-39
-107,-136,-29,122,-39,-82,68,117,161,161,24,-39
-107,-141,-34,124,-36,-87,68,117,161,151,9,-58
-107,-146,-39,126,-34,-92,63,117,161,151,9,-58
-97,-146,-48,122,-24,-97,78,122,170,161,24,-39
-87,-151,-63,119,-12,-107,87,126,175,170,43,-19
-82,-156,-73,119,-4,-114,92,126,180,180,43,4
-78,-156,-78,117,0,-117,97,131,185,190,53,14
-87,-156,-68,122,-9,-112,87,126,175,190,48,9
-87,-151,-63,119,-12,-107,87,126,175,185,43,9
-87,-136,-48,112,-19,-92,87,126,175,180,39,0
-87,-131,-43,109,-21,-87,87,126,175,175,29,0
-97,-136,-39,117,-29,-87,78,126,185,175,24,-4
-92,-136,-43,114,-24,-90,73,122,185,175,24,-4
-92,-141,-48,117,-21,-95,73,122,185,165,24,-4
-92,-146,-53,119,-19,-100,78,122,175,165,19,-4
-82,-131,-48,107,-17,-90,78,117,165,165,14,-4
-82,-131,-48,107,-17,-90,78,117,170,170,14,-9
-82,-136,-53,109,-14,-95,78,126,175,170,9,-14
-82,-136,-53,109,-14,-95,78,126,175,170,4,-24
-97,-146,-48,122,-24,-97,87,126,175,175,0,-14
-107,-146,-39,126,-34,-92,87,126,175,175,4,-19
-107,-146,-39,126,-34,-92,87,131,175,180,9,-19
-107,-146,-39,126,-34,-92,92,136,175,180,14,-19
-97,-146,-48,122,-24,-97,82,136,185,190,14,-14
-97,-141,-43,119,-26,-92,78,126,185,180,9,-19
-92,-141,-48,117,-21,-95,78,126,180,180,9,-19
-92,-141,-48,117,-21,-95,78,126,180,180,9,-14
-87,-136,-48,112,-19,-92,78,122,180,175,0,-24
-92,-131,-39,112,-26,-85,78,122,175,170,-4,-19
-97,-131,-34,114,-31,-82,78,122,175,170,-9,-19
-97,-136,-39,117,-29,-87,78,122,170,165,-14,-14
-97,-126,-29,112,-34,-78,78,126,185,185,-14,-4
-97,-126,-29,112,-34,-78,78,136,190,190,-14,-9
-102,-126,-24,114,-39,-75,78,146,195,190,-9,-9
-117,-122,-4,119,-56,-63,78,151,200,195,-9,-14
-107,-126,-19,117,-43,-73,68,141,200,204,-9,-19
-102,-126,-24,114,-39,-75,68,151,204,204,-9,-19
-97,-117,-19,107,-39,-68,68,156,209,204,-9,-14
-92,-117,-24,104,-34,-70,68,156,209,209,-4,-19
-97,-126,-29,112,-34,-78,78,151,214,209,-14,-29
-102,-126,-24,114,-39,-75,78,151,214,209,-24,-39
-97,-117,-19,107,-39,-68,82,156,214,209,-34,-48
-102,-107,-4,104,-48,-56,82,156,214,204,-43,-63
-117,-117,0,117,-58,-58,92,156,209,204,-48,-73
-131,-112,19,122,-75,-46,92,161,209,204,-53,-78
-136,-97,39,117,-87,-29,92,156,214,209,-58,-82
-146,-92,53,119,-100,-19,92,146,214,209,-63,-82
-131,-87,43,109,-87,-21,92,151,229,219,-63,-82
-126,-87,39,107,-82,-24,87,161,229,219,-68,-82
-131,-92,39,112,-85,-26,78,165,229,219,-73,-97
-131,-92,39,112,-85,-26,73,170,229,209,-78,-102
-122,-97,24,109,-73,-36,73,161,219,214,-73,-102
-112,-87,24,100,-68,-31,73,170,224,219,-78,-112
-122,-87,34,104,-78,-26,78,170,229,224,-78,-122
-131,-82,48,107,-90,-17,78,170,229,229,-78,-122
-141,-82,58,112,-100,-12,87,175,239,224,-82,-117
-146,-92,53,119,-100,-19,87,170,239,224,-92,-117
-146,-82,63,114,-104,-9,82,161,239,219,-102,-117
-136,-78,58,107,-97,-9,82,170,239,214,-112,-112
-136,-63,73,100,-104,4,92,170,239,204,-117,-122
-141,-63,78,102,-109,7,92,170,239,209,-117,-131
-141,-63,78,102,-109,7,92,170,239,209,-117,-141
-141,-63,78,102,-109,7,97,170,234,200,-122,-151
-141,-48,92,95,-117,21,82,151,229,195,-126,-141
-146,-48,97,97,-122,24,73,151,224,190,-131,-141
-151,-53,97,102,-124,21,63,151,204,185,-141,-151
-161,-53,107,107,-134,26,58,151,200,180,-146,-151
-156,-48,107,102,-131,29,48,151,200,190,-126,-131
-151,-43,107,97,-129,31,48,151,204,190,-117,-112
-146,-43,102,95,-124,29,48,151,209,190,-112,-97
-136,-48,87,92,-112,19,43,146,209,185,-102,-82
-131,-68,63,100,-97,-2,53,146,214,190,-112,-87
-136,-73,63,104,-100,-4,53,146,209,190,-102,-78
-141,-73,68,107,-104,-2,58,151,209,190,-97,-73
-136,-78,58,107,-97,-9,63,146,204,190,-87,-68
-126,-68,58,97,-92,-4,63,126,195,170,-102,-68
-126,-63,63,95,-95,0,63,122,190,165,-92,-73
-122,-48,73,85,-97,12,63,122,185,161,-92,-73
-122,-43,78,82,-100,17,53,136,180,151,-102,-82
-122,-63,58,92,-90,-2,43,126,175,165,-78,-48
-117,-73,43,95,-80,-14,39,122,170,170,-53,-14
-117,-82,34,100,-75,-24,34,117,170,175,-39,9
-112,-87,24,100,-68,-31,34,112,161,175,-34,34
-112,-68,43,90,-78,-12,39,117,161,175,-19,39
-107,-82,24,95,-65,-29,39,117,161,175,-14,43
-102,-82,19,92,-61,-31,39,112,161,175,-9,48
-92,-82,9,87,-51,-36,39,112,161,180,0,48
-68,-78,-9,73,-29,-43,48,117,170,200,4,73
-63,-78,-14,70,-24,-46,48,122,175,200,24,78
-53,-73,-19,63,-17,-46,48,122,180,200,24,82
-39,-73,-34,56,-2,-53,43,126,185,200,24,82
-43,-87,-43,65,0,-65,34,126,180,195,29,87
-48,-92,-43,70,-2,-68,39,122,175,195,43,107
-68,-102,-34,85,-17,-68,39,117,170,195,53,117
-63,-112,-48,87,-7,-80,39,112,161,190,68,122
-53,-122,-68,87,7,-95,34,122,161,185,68,131
-43,-122,-78,82,17,-100,34,117,161,185,68,141
-29,-122,-92,75,31,-107,24,102,156,185,68,141
-29,-126,-97,78,34,-112,24,102,156,185,68,141
-43,-122,-78,82,17,-100,29,102,156,195,68,146
-43,-122,-78,82,17,-100,34,107,156,195,73,146
-43,-117,-73,80,14,-95,34,107,156,195,73,141
-53,-112,-58,82,2,-85,34,97,156,190,73,136
-43,-112,-68,78,12,-90,29,107,146,180,73,141
-39,-102,-63,70,12,-82,29,107,146,180,73,141
-34,-112,-78,73,21,-95,29,107,146,180,73,141
-34,-112,-78,73,21,-95,29,102,146,170,73,141
-34,-126,-92,80,29,-109,19,102,156,175,82,156
-39,-131,-92,85,26,-112,19,107,156,175,82,165
-43,-146,-102,95,29,-124,19,107,156,180,87,170
-43,-161,-117,102,36,-139,19,112,156,180,87,175
-29,-156,-126,92,48,-141,19,112,156,185,97,180
-29,-151,-122,90,46,-136,24,112,156,185,97,185
-34,-146,-112,90,39,-129,24,102,156,185,97,195
-34,-141,-107,87,36,-124,24,92,151,190,97,200
-24,-126,-102,75,39,-114,14,97,151,180,87,195
-14,-117,-102,65,43,-109,14,102,151,175,78,185
-4,-117,-112,61,53,-114,14,107,151,175,78,175
4,-107,-112,51,58,-109,14,112,151,175,78,170
4,-122,-126,58,65,-124,14,107,141,185,82,180
-4,-131,-126,68,61,-129,14,107,141,185,82,180
-14,-141,-126,78,56,-134,14,102,136,180,73,175
-29,-156,-126,92,48,-141,14,102,136,180,73,175
-29,-151,-122,90,46,-136,29,112,141,175,78,180
-29,-141,-112,85,41,-126,29,117,141,175,78,180
-29,-136,-107,82,39,-122,29,117,141,170,73,180
-29,-126,-97,78,34,-112,24,107,141,170,73,180
-19,-126,-107,73,43,-117,24,117,151,180,73,170
-19,-131,-112,75,46,-122,24,122,146,180,73,170
-19,-136,-117,78,48,-126,24,122,146,180,73,175
-9,-146,-136,78,63,-141,24,122,146,180,73,175
-19,-146,-126,82,53,-136,24,112,151,170,63,180
-29,-156,-126,92,48,-141,29,112,151,170,63,185
-29,-156,-126,92,48,-141,29,112,151,170,63,190
-24,-156,-131,90,53,-143,29,117,156,180,63,200
-24,-141,-117,82,46,-129,34,126,156,200,68,204
-29,-146,-117,87,43,-131,34,126,156,200,78,209
-29,-161,-131,95,51,-146,29,126,156,195,82,209
-24,-165,-141,95,58,-153,24,126,151,185,78,209
-34,-151,-117,92,41,-134,14,117,151,190,87,209
-48,-151,-102,100,26,-126,19,117,156,190,92,214
-58,-156,-97,107,19,-126,19,117,156,195,92,214
-58,-170,-112,114,26,-141,19,117,156,204,92,214
-48,-165,-117,107,34,-141,29,117,156,204,82,224
-39,-151,-112,95,36,-131,29,126,156,209,87,234
-19,-151,-131,85,56,-141,29,126,161,209,87,234
-9,-156,-146,82,68,-151,29,126,161,204,87,234
-24,-165,-141,95,58,-153,14,122,151,204,97,244
-24,-161,-136,92,56,-148,14,117,151,204,102,244
-24,-156,-131,90,53,-143,19,117,151,209,107,248
-29,-156,-126,92,48,-141,19,117,151,214,112,248
-19,-141,-122,80,51,-131,29,122,151,224,117,253
-29,-131,-102,80,36,-117,29,122,156,219,112,248
-29,-126,-97,78,34,-112,29,117,156,209,107,244
-29,-122,-92,75,31,-107,29,117,151,204,102,234
-34,-126,-92,80,29,-109,19,117,151,200,112,244
-34,-122,-87,78,26,-104,19,112,156,204,112,248
-24,-122,-97,73,36,-109,19,107,156,209,126,248
-19,-126,-107,73,43,-117,19,107,161,219,131,263
-9,-112,-102,61,46,-107,9,117,161,239,136,273
-9,-107,-97,58,43,-102,9,122,161,239,136,283
-9,-82,-73,46,31,-78,0,122,161,239,136,287
19,-92,-112,36,65,-102,0,122,161,239,146,292
14,-87,-102,36,58,-95,14,131,175,258,161,312
14,-92,-107,39,61,-100,24,151,190,263,165,312
9,-87,-97,39,53,-92,29,161,195,273,170,312
4,-82,-87,39,46,-85,34,175,204,273,175,312
-4,-82,-78,43,36,-80,24,165,209,283,195,331
4,-82,-87,39,46,-85,9,156,204,273,185,336
29,-58,-87,14,58,-73,19,161,204,278,190,336
39,-48,-87,4,63,-68,34,180,219,292,209,331
19,-48,-68,14,43,-58,39,175,214,302,204,322
9,-58,-68,24,39,-63,39,165,204,297,190,312
9,-58,-68,24,39,-63,39,165,204,292,185,312
9,-58,-68,24,39,-63,39,165,204,287,180,312
9,-58,-68,24,39,-63,39,165,204,283,175,312
14,-58,-73,21,43,-65,43,175,219,302,185,331
19,-58,-78,19,48,-68,48,185,234,312,195,346
24,-58,-82,17,53,-70,48,195,248,322,214,366
39,-34,-73,-2,56,-53,48,204,268,331,234,375
43,-24,-68,-9,56,-46,39,214,268,341,244,380
43,-24,-68,-9,56,-46,19,219,273,346,253,380
48,-24,-73,-12,61,-48,0,224,287,356,263,395
58,-24,-82,-17,70,-53,-19,234,297,370,278,395
48,-29,-78,-9,63,-53,-34,234,326,380,287,409
58,-34,-92,-12,75,-63,-48,244,341,395,292,424
82,-24,-107,-29,95,-65,-68,253,341,395,292,429
82,-19,-102,-31,92,-61,-87,253,341,395,292,429
82,-14,-97,-34,90,-56,-112,248,341,400,292,424
82,-19,-102,-31,92,-61,-122,239,331,390,283,409
82,-19,-102,-31,92,-61,-131,239,326,385,278,405
82,-14,-97,-34,90,-56,-136,224,312,380,278,400
68,-29,-97,-19,82,-63,-126,195,287,351,248,385
48,-48,-97,0,73,-73,-117,161,258,326,234,370
19,-73,-92,26,56,-82,-92,131,234,307,214,366
4,-78,-82,36,43,-80,-63,112,204,287,204,366
19,-97,-117,39,68,-107,-43,117,209,292,214,370
24,-112,-136,43,80,-124,-34,112,200,297,219,375
24,-122,-146,48,85,-134,-24,112,200,307,229,380
19,-126,-146,53,82,-136,-9,117,195,307,229,390
19,-102,-122,41,70,-112,-14,102,185,287,214,380
19,-92,-112,36,65,-102,-14,92,175,283,209,366
19,-82,-102,31,61,-92,-14,87,165,278,195,351
19,-73,-92,26,56,-82,-24,87,161,263,190,341
29,-87,-117,29,73,-102,-34,92,161,263,204,351
29,-92,-122,31,75,-107,-39,82,161,268,204,356
24,-107,-131,41,78,-119,-43,78,156,268,200,361
24,-117,-141,46,82,-129,-43,78,156,273,200,361
9,-117,-126,53,68,-122,-29,73,151,258,180,361
4,-112,-117,53,61,-114,-29,68,136,253,180,356
0,-107,-107,53,53,-107,-29,68,136,244,170,351
-4,-102,-97,53,46,-100,-24,68,136,244,170,351
4,-112,-117,53,61,-114,-34,73,146,258,170,346
9,-122,-131,56,70,-126,-29,73,146,258,170,346
9,-126,-136,58,73,-131,-29,73,146,248,170,341
19,-126,-146,53,82,-136,-29,73,146,248,175,346
9,-117,-126,53,68,-122,-29,68,136,248,161,341
24,-112,-136,43,80,-124,-29,68,136,244,156,331
9,-122,-131,56,70,-126,-29,68,136,229,141,317
9,-122,-131,56,70,-126,-24,73,136,224,136,302
19,-122,-141,51,80,-131,-9,82,156,244,146,326
29,-112,-141,41,85,-126,4,92,161,253,156,336
19,-122,-141,51,80,-131,9,102,165,258,156,341
14,-131,-146,58,80,-139,24,112,175,268,161,351
-14,-122,-107,68,46,-114,29,117,165,268,161,341
-9,-97,-87,53,39,-92,34,117,170,263,161,341
-9,-87,-78,48,34,-82,34,117,170,258,161,336
-14,-92,-78,53,31,-85,34,107,161,253,161,336
-19,-87,-68,53,24,-78,24,102,161,253,151,331
-19,-87,-68,53,24,-78,24,102,161,253,151,331
-14,-82,-68,48,26,-75,24,102,161,253,151,331
-9,-87,-78,48,34,-82,24,102,161,253,146,331
-14,-97,-82,56,34,-90,24,112,170,248,141,317
-24,-112,-87,68,31,-100,29,112,170,248,141,317
-29,-112,-82,70,26,-97,29,112,170,248,146,317
-29,-112,-82,70,26,-97,29,112,170,248,146,317
-24,-122,-97,73,36,-109,29,102,161,239,136,326
-29,-126,-97,78,34,-112,29,102,161,239,136,326
-24,-126,-102,75,39,-114,29,102,161,239,136,326
-19,-126,-107,73,43,-117,29,102,161,239,136,326
-29,-112,-82,70,26,-97,43,112,170,253,151,346
-24,-112,-87,68,31,-100,48,117,175,263,161,361
-24,-112,-87,68,31,-100,48,117,175,268,170,375
-24,-117,-92,70,34,-104,48,112,170,273,175,390
-34,-107,-73,70,19,-90,29,97,156,258,156,370
-39,-102,-63,70,12,-82,29,97,151,248,141,351
-39,-102,-63,70,12,-82,29,97,146,239,131,336
-39,-102,-63,70,12,-82,29,97,141,229,122,322
-39,-92,-53,65,7,-73,24,102,146,234,126,331
-39,-97,-58,68,9,-78,29,102,151,239,136,336
-34,-97,-63,65,14,-80,29,102,161,244,141,341
-14,-97,-82,56,34,-90,19,102,165,248,146,346
-14,-97,-82,56,34,-90,43,112,165,248,156,361
-14,-87,-73,51,29,-80,48,112,165,248,156,370
-19,-87,-68,53,24,-78,53,112,165,253,156,380
-29,-87,-58,58,14,-73,58,112,165,253,156,385
-34,-92,-58,63,12,-75,53,112,165,244,141,370
-39,-73,-34,56,-2,-53,48,102,161,244,136,370
-43,-68,-24,56,-9,-46,43,97,161,244,136,375
-53,-73,-19,63,-17,-46,43,97,161,244,141,375
-34,-63,-29,48,-2,-46,43,92,146,229,126,361
-63,-78,-14,70,-24,-46,43,97,156,239,126,356
-58,-87,-29,73,-14,-58,53,107,195,283,165,370
-29,-68,-39,48,4,-53,73,146,253,370,244,448
9,-68,-78,29,43,-73,68,190,331,444,326,551
29,-92,-122,31,75,-107,43,224,419,527,429,653
63,-73,-136,4,100,-104,24,253,512,629,580,810
92,-43,-136,-24,114,-90,4,263,541,653,727,995
92,-39,-131,-26,112,-85,-9,248,517,629,844,1176
97,-29,-126,-34,112,-78,-19,224,463,619,985,1361
117,4,-112,-61,114,-53,-58,136,292,541,1137,1576
151,39,-112,-95,131,-36,-97,19,34,346,1234,1786
175,68,-107,-122,141,-19,-107,-92,-204,161,1346,2020
180,117,-63,-148,122,26,-136,-204,-424,-14,1483,2288
204,170,-34,-187,119,68,-165,-312,-629,-219,1571,2503
239,209,-29,-224,134,90,-195,-414,-814,-478,1600,2679
287,219,-68,-253,178,75,-248,-541,-990,-702,1625,2806
317,219,-97,-268,207,61,-322,-624,-1117,-868,1600,2815
307,224,-82,-265,195,70,-361,-673,-1229,-1083,1483,2708
322,273,-48,-297,185,112,-395,-824,-1507,-1405,1317,2610
361,297,-63,-329,212,117,-458,-1049,-1888,-1698,1161,2498
380,244,-136,-312,258,53,-492,-1161,-2083,-1854,956,2225
390,185,-204,-287,297,-9,-492,-1161,-2132,-1976,629,1844
390,156,-234,-273,312,-39,-473,-1171,-2205,-2098,283,1449
390,68,-322,-229,356,-126,-448,-1156,-2244,-2122,0,1102
390,-68,-458,-161,424,-263,-424,-1058,-2147,-2049,-263,785
405,-209,-614,-97,509,-412,-366,-897,-1991,-1971,-575,424
385,-273,-658,-56,522,-466,-297,-780,-1898,-1947,-883,97
331,-322,-653,-4,492,-488,-219,-678,-1776,-1873,-1098,-156
253,-400,-653,73,453,-527,-146,-570,-1590,-1708,-1200,-346
195,-492,-688,148,441,-590,-126,-488,-1400,-1532,-1224,-478
156,-536,-692,190,424,-614,-102,-385,-1224,-1361,-1176,-497
107,-580,-688,236,397,-634,-29,-219,-995,-1141,-1054,-448
39,-590,-629,275,334,-610,39,-82,-751,-883,-888,-370
-19,-541,-522,280,251,-531,53,-14,-556,-673,-732,-273
-58,-463,-405,261,173,-434,58,14,-424,-517,-600,-180
-78,-424,-346,251,134,-385,78,29,-307,-380,-488,-107
-78,-395,-317,236,119,-356,102,53,-200,-263,-380,-24
-68,-370,-302,219,117,-336,112,73,-107,-161,-283,58
-97,-341,-244,219,73,-292,126,97,-29,-58,-190,131
-122,-283,-161,202,19,-222,136,131,43,39,-107,209
-92,-219,-126,156,17,-173,136,141,97,97,-58,253
-63,-175,-112,119,24,-143,122,146,122,136,-24,278
-63,-175,-112,119,24,-143,107,141,126,161,0,302
-73,-195,-122,134,24,-158,102,151,141,175,24,326
-68,-175,-107,122,19,-141,112,161,161,200,48,370
-53,-165,-112,109,29,-139,117,156,170,219,82,409
-53,-165,-112,109,29,-139,97,146,175,219,82,409
-53,-156,-102,104,24,-129,97,146,180,239,82,409
-58,-146,-87,102,14,-117,87,146,185,239,82,409
-58,-136,-78,97,9,-107,78,136,190,239,82,409
-53,-131,-78,92,12,-104,68,136,195,244,82,409
-43,-136,-92,90,24,-114,58,141,190,239,87,409
-39,-131,-92,85,26,-112,63,141,195,248,92,414
-34,-122,-87,78,26,-104,63,141,195,248,92,424
-34,-117,-82,75,24,-100,63,136,195,244,92,424
-39,-107,-68,73,14,-87,73,136,195,244,92,429
-43,-107,-63,75,9,-85,73,136,200,253,92,434
-39,-107,-68,73,14,-87,73,136,204,258,92,439
-39,-102,-63,70,12,-82,73,136,214,263,97,444
-29,-107,-78,68,24,-92,82,146,214,273,97,468
-29,-122,-92,75,31,-107,78,151,214,278,112,478
-29,-126,-97,78,34,-112,78,151,214,278,112,483
-24,-126,-102,75,39,-114,73,151,209,278,112,488
-24,-122,-97,73,36,-109,63,136,204,258,102,483
-29,-122,-92,75,31,-107,68,136,204,258,102,483
-29,-122,-92,75,31,-107,68,136,209,258,102,478
-29,-122,-92,75,31,-107,63,136,209,263,102,478
-24,-117,-92,70,34,-104,68,136,214,253,97,473
-29,-122,-92,75,31,-107,68,136,214,253,92,473
-29,-117,-87,73,29,-102,73,141,214,258,92,473
-29,-102,-73,65,21,-87,78,146,214,258,87,478
-24,-92,-68,58,21,-80,78,146,224,258,97,483
-19,-97,-78,58,29,-87,78,146,219,258,92,488
-19,-102,-82,61,31,-92,78,146,219,248,78,473
-19,-107,-87,63,34,-97,73,146,219,248,78,478
-29,-107,-78,68,24,-92,63,136,214,239,73,468
-29,-112,-82,70,26,-97,68,136,214,239,82,478
-34,-117,-82,75,24,-100,68,131,214,239,73,492
-39,-117,-78,78,19,-97,68,131,214,239,73,492
-39,-122,-82,80,21,-102,78,136,204,244,73,497
-39,-122,-82,80,21,-102,78,136,204,244,73,497
-39,-112,-73,75,17,-92,78,136,204,244,73,488
-39,-112,-73,75,17,-92,78,136,204,244,68,488
-34,-122,-87,78,26,-104,68,136,204,234,53,483
-24,-117,-92,70,34,-104,63,131,204,234,53,483
-19,-117,-97,68,39,-107,63,131,204,224,53,483
-14,-117,-102,65,43,-109,68,131,195,224,48,483
-29,-112,-82,70,26,-97,78,136,204,224,48,488
-34,-112,-78,73,21,-95,78,136,209,229,53,488
-39,-117,-78,78,19,-97,78,146,214,229,53,488
-43,-117,-73,80,14,-95,78,146,214,229,53,483
-39,-117,-78,78,19,-97,78,146,204,224,43,483
-48,-117,-68,82,9,-92,78,146,204,224,43,478
-48,-117,-68,82,9,-92,78,151,204,229,43,478
-48,-117,-68,82,9,-92,82,156,204,229,43,478
-53,-117,-63,85,4,-90,82,146,204,219,24,473
-58,-112,-53,85,-2,-82,78,136,204,209,19,468
-58,-112,-53,85,-2,-82,78,136,200,209,19,468
-63,-112,-48,87,-7,-80,78,136,200,209,19,473
-63,-107,-43,85,-9,-75,87,141,214,219,24,463
-63,-102,-39,82,-12,-70,87,141,214,219,24,468
-63,-102,-39,82,-12,-70,87,141,219,224,24,468
-58,-107,-48,82,-4,-78,87,141,219,224,24,473
-43,-82,-39,63,-2,-61,78,131,209,214,9,458
-29,-78,-48,53,9,-63,78,136,209,209,4,448
-19,-73,-53,46,17,-63,78,141,209,200,4,444
-19,-63,-43,41,12,-53,78,141,209,195,0,434
-39,-73,-34,56,-2,-53,78,141,209,200,4,429
-43,-78,-34,61,-4,-56,78,151,214,204,0,429
-48,-73,-24,61,-12,-48,78,156,219,209,-4,434
-53,-78,-24,65,-14,-51,78,156,219,219,-4,429
-63,-78,-14,70,-24,-46,78,141,224,209,-9,434
-63,-78,-14,70,-24,-46,78,141,224,209,-14,429
-53,-68,-14,61,-19,-41,82,146,224,209,-19,424
-53,-58,-4,56,-24,-31,82,146,224,204,-24,414
-58,-63,-4,61,-26,-34,73,146,219,204,-29,405
-63,-63,0,63,-31,-31,73,151,219,204,-34,400
-58,-53,4,56,-31,-24,73,146,224,209,-39,395
-58,-53,4,56,-31,-24,73,136,224,209,-43,395
-63,-53,9,58,-36,-21,78,136,219,204,-53,385
-68,-58,9,63,-39,-24,78,141,219,200,-68,375
-82,-68,14,75,-48,-26,73,141,219,195,-82,351
-92,-73,19,82,-56,-26,73,141,219,180,-97,336
-102,-73,29,87,-65,-21,73,141,219,180,-97,336
-102,-68,34,85,-68,-17,73,151,224,180,-107,326
-122,-73,48,97,-85,-12,78,151,229,180,-112,317
-141,-73,68,107,-104,-2,78,151,229,180,-117,317
-131,-63,68,97,-100,2,82,156,229,175,-117,317
-126,-63,63,95,-95,0,87,151,229,175,-122,312
-117,-43,73,80,-95,14,87,141,229,170,-126,307
-97,-29,68,63,-82,19,92,151,229,165,-131,307
-112,-34,78,73,-95,21,92,151,229,165,-136,307
-122,-34,87,78,-104,26,92,151,229,170,-136,307
-126,-34,92,80,-109,29,92,151,229,170,-136,307
-131,-34,97,82,-114,31,97,151,224,161,-141,307
-136,-24,112,80,-124,43,92,131,219,151,-151,302
-136,-29,107,82,-122,39,82,131,214,141,-151,297
-136,-39,97,87,-117,29,73,131,195,131,-156,283
-141,-43,97,92,-119,26,68,131,190,122,-156,278
-156,-43,112,100,-134,34,68,112,185,112,-161,278
-161,-43,117,102,-139,36,68,112,185,112,-156,287
-165,-48,117,107,-141,34,68,112,185,112,-156,292
-165,-58,107,112,-136,24,63,107,180,107,-151,297
-151,-53,97,102,-124,21,68,112,185,102,-161,302
-146,-43,102,95,-124,29,63,107,180,102,-151,312
-141,-29,112,85,-126,41,63,107,180,102,-146,317
-126,-19,107,73,-117,43,63,97,175,102,-136,322
-112,-9,102,61,-107,46,53,92,170,102,-122,346
-107,-4,102,56,-104,48,53,92,170,107,-102,356
-97,9,107,43,-102,58,53,97,170,112,-92,370
-92,14,107,39,-100,61,43,117,170,112,-92,375
-102,0,102,51,-102,51,43,102,156,102,-92,375
-97,-14,82,56,-90,34,39,92,151,102,-73,385
-97,-29,68,63,-82,19,34,82,151,102,-63,385
-92,-39,53,65,-73,7,34,73,141,97,-63,385
-92,-34,58,63,-75,12,29,78,141,97,-48,395
-97,-53,43,75,-70,-4,29,78,141,97,-43,405
-102,-58,43,80,-73,-7,29,73,141,97,-39,414
-102,-63,39,82,-70,-12,29,73,141,102,-29,419
-78,-63,14,70,-46,-24,29,73,136,112,-24,434
-73,-58,14,65,-43,-21,29,73,136,112,-4,439
-63,-48,14,56,-39,-17,29,68,136,112,-4,444
-48,-43,4,46,-26,-19,24,68,136,112,-4,444
-48,-53,-4,51,-21,-29,24,73,146,107,-4,444
-48,-53,-4,51,-21,-29,29,73,146,107,4,458
-63,-58,4,61,-34,-26,29,73,146,107,9,463
-53,-63,-9,58,-21,-36,29,73,141,102,19,463
-58,-63,-4,61,-26,-34,24,82,131,97,19,453
-53,-63,-9,58,-21,-36,24,78,131,97,19,463
-43,-63,-19,53,-12,-41,14,63,126,97,19,463
-48,-68,-19,58,-14,-43,14,63,126,97,19,463
-53,-78,-24,65,-14,-51,9,58,122,92,24,458
-53,-82,-29,68,-12,-56,14,58,117,87,24,458
-53,-82,-29,68,-12,-56,14,53,112,82,19,453
-63,-82,-19,73,-21,-51,14,39,107,73,14,448
-48,-82,-34,65,-7,-58,19,48,107,82,14,453
-39,-73,-34,56,-2,-53,19,48,107,82,14,453
-29,-82,-53,56,12,-68,19,48,107,82,14,453
-24,-82,-58,53,17,-70,19,43,107,73,14,453
-19,-78,-58,48,19,-68,29,43,117,68,14,453
-19,-63,-43,41,12,-53,29,48,117,68,14,458
-19,-58,-39,39,9,-48,29,48,117,73,19,458
-14,-53,-39,34,12,-46,29,53,117,73,19,458
-24,-73,-48,48,12,-61,19,58,112,58,14,444
-29,-82,-53,56,12,-68,24,53,107,58,9,439
-39,-92,-53,65,7,-73,24,39,102,58,4,439
-43,-102,-58,73,7,-80,24,24,92,63,0,434
-39,-87,-48,63,4,-68,24,29,102,63,4,434
-34,-78,-43,56,4,-61,24,34,102,58,0,429
-29,-78,-48,53,9,-63,24,39,102,58,4,424
-24,-68,-43,46,9,-56,24,43,102,58,9,424
-24,-68,-43,46,9,-56,24,39,92,48,4,424
-24,-73,-48,48,12,-61,24,39,92,48,4,424
-24,-78,-53,51,14,-65,24,34,87,43,-4,419
-29,-87,-58,58,14,-73,24,34,87,43,-4,419
-34,-87,-53,61,9,-70,19,43,92,48,0,414
-39,-82,-43,61,2,-63,19,48,92,48,0,414
-43,-82,-39,63,-2,-61,19,48,92,43,-4,414
-48,-78,-29,63,-9,-53,14,39,92,43,-4,414
-39,-82,-43,61,2,-63,24,29,92,34,-14,405
-39,-82,-43,61,2,-63,24,34,87,34,-14,405
-39,-82,-43,61,2,-63,24,34,87,34,-14,409
-29,-87,-58,58,14,-73,24,34,87,34,-14,409
-29,-97,-68,63,19,-82,14,34,92,34,-24,409
-39,-107,-68,73,14,-87,19,34,92,34,-24,409
-39,-107,-68,73,14,-87,19,34,92,34,-24,409
-34,-107,-73,70,19,-90,19,39,97,43,-24,414
-39,-82,-43,61,2,-63,34,39,107,43,-24,405
-39,-78,-39,58,0,-58,34,39,107,43,-19,405
-34,-82,-48,58,7,-65,29,39,107,39,-19,400
-24,-78,-53,51,14,-65,24,39,102,29,-29,395
-14,-73,-58,43,21,-65,19,29,97,39,-39,395
-29,-73,-43,51,7,-58,19,29,97,34,-34,400
-39,-78,-39,58,0,-58,14,29,92,34,-34,400
-39,-92,-53,65,7,-73,9,29,87,39,-34,400
-29,-78,-48,53,9,-63,19,29,97,34,-34,400
-29,-63,-34,46,2,-48,19,39,97,43,-29,409
-19,-63,-43,41,12,-53,19,39,102,48,-29,409
-19,-68,-48,43,14,-58,19,39,102,48,-29,409
-9,-63,-53,36,21,-58,24,39,102,43,-19,409
-4,-53,-48,29,21,-51,24,39,102,48,-14,409
0,-43,-43,21,21,-43,29,43,102,58,-9,414
0,-39,-39,19,19,-39,29,48,102,68,-4,414
0,-43,-43,21,21,-43,19,48,102,78,-4,414
-19,-43,-24,31,2,-34,19,43,107,73,-4,414
-29,-48,-19,39,-4,-34,19,34,107,63,-4,414
-39,-53,-14,46,-12,-34,19,29,102,58,-4,409
-39,-53,-14,46,-12,-34,9,39,102,58,-14,409
-34,-43,-9,39,-12,-26,9,34,107,58,-14,414
-19,-39,-19,29,0,-29,9,29,107,58,0,414
-9,-39,-29,24,9,-34,9,29,112,63,4,429
-19,-48,-29,34,4,-39,9,29,122,82,0,424
-29,-48,-19,39,-4,-34,9,34,122,82,0,429
-39,-29,9,34,-24,-9,0,34,122,82,0,429
-19,-43,-24,31,2,-34,0,34,122,82,9,429
-4,-24,-19,14,7,-21,9,39,131,102,19,444
4,-14,-19,4,12,-17,14,53,141,107,29,448
9,4,-4,-7,7,0,14,58,141,117,39,453
14,24,9,-19,2,17,14,68,146,117,48,458
0,9,9,-4,-4,9,14,68,151,126,39,468
-4,-4,0,4,-2,-2,19,68,156,126,48,473
-4,4,9,0,-7,7,19,73,165,131,53,473
9,9,0,-9,4,4,24,82,170,136,63,478
4,4,0,-4,2,2,34,97,180,151,68,488
-4,4,9,0,-7,7,48,97,195,156,82,497
-19,0,19,9,-19,9,39,97,185,146,78,497
-4,14,19,-4,-12,17,48,107,190,151,87,497
0,19,19,-9,-9,19,48,107,195,156,87,497
4,24,19,-14,-7,21,48,107,200,161,87,497
9,29,19,-19,-4,24,48,107,204,165,87,497
24,29,4,-26,9,17,39,107,209,161,87,497
29,29,0,-29,14,14,39,107,214,165,87,502
34,29,-4,-31,19,12,34,107,219,170,97,512
48,53,4,-51,21,29,29,107,229,175,107,512
58,58,0,-58,29,29,24,117,229,185,97,517
63,63,0,-63,31,31,9,122,234,190,107,517
73,68,-4,-70,39,31,-4,126,248,200,117,531
87,73,-14,-80,51,29,-19,136,258,214,131,531
73,63,-9,-68,41,26,-34,146,278,224,141,541
68,53,-14,-61,41,19,-48,156,292,239,146,551
78,58,-19,-68,48,19,-68,165,292,239,146,551
63,58,-4,-61,34,26,-87,165,292,239,146,546
68,53,-14,-61,41,19,-107,151,283,224,136,546
73,48,-24,-61,48,12,-112,141,273,214,126,536
78,48,-29,-63,53,9,-117,141,268,209,122,536
82,53,-29,-68,56,12,-117,126,253,204,122,536
73,39,-34,-56,53,2,-112,102,234,180,107,522
58,19,-39,-39,48,-9,-107,73,209,161,97,507
34,-4,-39,-14,36,-21,-87,48,190,146,82,502
24,-9,-34,-7,29,-21,-63,34,165,131,78,502
43,-9,-53,-17,48,-31,-39,29,165,136,78,497
43,-14,-58,-14,51,-36,-34,24,151,131,73,492
39,-14,-53,-12,46,-34,-29,24,146,131,73,488
29,-9,-39,-9,34,-24,-19,29,136,122,63,488
19,-14,-34,-2,26,-24,-19,24,136,107,53,488
19,-14,-34,-2,26,-24,-24,14,126,107,53,483
19,-14,-34,-2,26,-24,-29,9,117,107,43,478
19,-14,-34,-2,26,-24,-43,9,112,97,43,478
9,-19,-29,4,19,-24,-43,-4,102,92,39,478
9,-24,-34,7,21,-29,-48,-14,102,92,39,473
4,-39,-43,17,24,-41,-53,-19,97,87,34,468
4,-48,-53,21,29,-51,-53,-19,97,87,34,458
24,-39,-63,7,43,-51,-43,-19,107,92,34,463
34,-24,-58,-4,46,-41,-39,-19,97,87,34,463
43,-9,-53,-17,48,-31,-34,-14,102,78,24,463
53,4,-48,-29,51,-21,-24,-9,107,78,24,468
43,-4,-48,-19,46,-26,-24,-14,102,73,19,458
29,-24,-53,-2,41,-39,-19,-14,97,73,14,453
9,-39,-48,14,29,-43,-19,-14,92,63,9,444
0,-48,-48,24,24,-48,-19,-14,87,63,9,444
0,-43,-43,21,21,-43,-19,-9,87,58,9,439
14,-43,-58,14,36,-51,-19,-9,87,58,9,439
0,-58,-58,29,29,-58,-19,-9,87,48,0,434
0,-63,-63,31,31,-63,-14,-4,87,48,0,429
0,-63,-63,31,31,-63,-4,-9,82,48,-9,419
0,-53,-53,26,26,-53,4,-4,82,48,-9,414
-19,-63,-43,41,12,-53,4,0,82,43,-19,405
-34,-73,-39,53,2,-56,14,4,87,43,-24,400
-58,-82,-24,70,-17,-53,14,4,78,39,-29,390
-58,-78,-19,68,-19,-48,14,0,82,39,-34,390
-63,-87,-24,75,-19,-56,9,-4,82,39,-39,385
-73,-112,-39,92,-17,-75,4,-19,73,39,-43,385
-73,-87,-14,80,-29,-51,19,-9,82,48,-39,395
-68,-68,0,68,-34,-34,24,-4,82,48,-34,400
-58,-43,14,51,-36,-14,29,0,82,48,-29,405
-48,-29,19,39,-34,-4,34,4,82,48,-29,409
-34,-19,14,26,-24,-2,24,-4,82,43,-34,405
-34,-34,0,34,-17,-17,29,-4,82,43,-34,405
-29,-34,-4,31,-12,-19,29,-4,82,43,-29,405
-19,-34,-14,26,-2,-24,29,-4,82,43,-29,405
-29,-48,-19,39,-4,-34,29,-4,92,43,-29,414
-48,-58,-9,53,-19,-34,29,-4,92,43,-29,414
-58,-63,-4,61,-26,-34,29,-4,92,43,-29,414
-68,-68,0,68,-34,-34,29,-4,92,43,-29,414
-53,-48,4,51,-29,-21,24,-4,82,34,-34,409
-43,-43,0,43,-21,-21,29,0,87,39,-34,409
-39,-39,0,39,-19,-19,29,0,87,39,-34,409
-34,-39,-4,36,-14,-21,29,-4,82,39,-39,409
-48,-53,-4,51,-21,-29,24,0,92,43,-29,405
-58,-53,4,56,-31,-24,29,0,92,43,-34,400
-63,-58,4,61,-34,-26,34,0,92,43,-34,400
-68,-63,4,65,-36,-29,39,0,92,43,-34,400
-73,-63,9,68,-41,-26,34,-4,82,34,-43,395
-78,-68,9,73,-43,-29,39,-4,82,34,-39,395
-78,-68,9,73,-43,-29,39,-4,87,34,-39,395
-63,-68,-4,65,-29,-36,29,-4,87,34,-39,395
-63,-73,-9,68,-26,-41,39,-14,78,34,-48,400
-63,-68,-4,65,-29,-36,39,-14,78,34,-48,400
-68,-73,-4,70,-31,-39,39,-14,78,39,-48,400
-78,-78,0,78,-39,-39,39,-14,78,39,-48,395
-73,-58,14,65,-43,-21,48,-4,87,48,-48,400
-68,-24,43,46,-56,9,48,-14,82,48,-48,400
-63,-4,58,34,-61,26,48,-19,82,48,-43,405
-63,4,68,29,-65,36,53,-19,82,48,-34,405
-102,-34,68,68,-85,17,34,-24,78,53,-48,390
-82,-9,73,46,-78,31,53,9,107,82,-19,405
-58,0,58,29,-58,29,63,29,156,126,29,439
-29,9,39,9,-34,24,63,68,234,185,78,488
-29,0,29,14,-29,14,58,122,312,258,141,551
-58,-34,24,46,-41,-4,34,165,409,331,234,624
-14,-14,0,14,-7,-7,4,204,483,414,366,732
92,73,-19,-82,56,26,-4,195,473,429,512,897
161,146,-14,-153,87,65,9,180,429,434,668,1068
156,146,-9,-151,82,68,0,136,336,453,839,1254
117,122,4,-119,56,63,-48,9,97,395,990,1420
112,136,24,-124,43,80,-78,-156,-219,258,1127,1620
126,175,48,-151,39,112,-97,-317,-507,131,1288,1834
161,195,34,-178,63,114,-136,-458,-766,14,1464,2054
185,200,14,-192,85,107,-175,-585,-990,-180,1600,2249
200,219,19,-209,90,119,-214,-707,-1205,-400,1708,2435
268,278,9,-273,129,143,-278,-805,-1361,-546,1820,2571
366,307,-58,-336,212,124,-341,-868,-1498,-712,1795,2542
395,302,-92,-348,244,104,-390,-966,-1708,-1005,1610,2376
390,283,-107,-336,248,87,-463,-1205,-2064,-1337,1444,2239
400,248,-151,-324,275,48,-517,-1420,-2396,-1561,1307,2088
400,175,-224,-287,312,-24,-541,-1483,-2513,-1708,1044,1766
400,97,-302,-248,351,-102,-531,-1483,-2552,-1859,658,1356
448,39,-409,-244,429,-185,-492,-1483,-2596,-1991,302,980
478,-48,-527,-214,502,-287,-468,-1439,-2557,-2025,9,673
488,-195,-683,-146,585,-439,-424,-1322,-2400,-1991,-292,395
492,-307,-800,-92,646,-553,-366,-1161,-2244,-1971,-644,122
463,-380,-844,-41,653,-612,-297,-1034,-2122,-1966,-961,-126
380,-478,-858,48,619,-668,-229,-922,-1961,-1912,-1215,-341
302,-527,-829,112,566,-678,-156,-814,-1766,-1786,-1356,-512
283,-541,-824,129,553,-683,-97,-683,-1537,-1620,-1342,-566
253,-595,-849,170,551,-722,-53,-512,-1312,-1439,-1254,-546
165,-639,-805,236,485,-722,0,-326,-1054,-1220,-1132,-488
68,-600,-668,265,368,-634,48,-190,-800,-971,-956,-380
-9,-531,-522,270,256,-527,63,-131,-605,-761,-790,-263
-68,-483,-414,275,173,-448,78,-92,-463,-614,-668,-161
-87,-444,-356,265,134,-400,97,-58,-346,-488,-575,-97
-78,-375,-297,226,109,-336,92,-43,-268,-390,-507,-53
-78,-322,-244,200,82,-283,102,-24,-195,-297,-448,-9
-87,-263,-175,175,43,-219,136,9,-97,-204,-366,63
-102,-214,-112,158,4,-163,146,34,-24,-126,-292,122
-131,-180,-48,156,-41,-114,146,43,29,-68,-234,165
-131,-136,-4,134,-63,-70,131,48,63,-29,-190,200
-102,-97,4,100,-53,-46,136,53,87,4,-156,234
-102,-107,-4,104,-48,-56,131,63,92,29,-141,268
-136,-136,0,136,-68,-68,102,53,92,34,-136,273
-112,-78,34,95,-73,-21,97,68,112,63,-112,292
-63,-19,43,41,-53,12,117,87,136,92,-92,312
-68,-39,29,53,-48,-4,117,82,126,92,-97,307
-78,-48,29,63,-53,-9,107,78,126,82,-102,302
-82,-58,24,70,-53,-17,97,63,126,73,-107,297
-82,-73,9,78,-46,-31,87,58,126,68,-112,292
-73,-73,0,73,-36,-36,78,63,131,73,-97,302
-68,-73,-4,70,-31,-39,82,63,136,82,-92,307
-63,-68,-4,65,-29,-36,82,63,136,82,-92,317
-63,-68,-4,65,-29,-36,82,58,136,78,-92,317
-53,-58,-4,56,-24,-31,92,58,136,78,-92,326
-53,-58,-4,56,-24,-31,92,58,141,87,-92,326
-43,-58,-14,51,-14,-36,92,58,146,92,-92,326
-39,-53,-14,46,-12,-34,92,58,156,97,-87,326
-43,-43,0,43,-21,-21,82,58,156,97,-97,331
-48,-53,-4,51,-21,-29,78,63,156,102,-82,331
-53,-53,0,53,-26,-26,78,63,156,102,-82,326
-53,-48,4,51,-29,-21,73,63,151,102,-82,322
-58,-43,14,51,-36,-14,73,58,156,92,-92,326
-68,-43,24,56,-46,-9,78,58,156,92,-92,326
-73,-43,29,58,-51,-7,78,58,161,92,-92,322
-78,-43,34,61,-56,-4,73,58,161,97,-92,322
-68,-43,24,56,-46,-9,68,58,165,97,-82,326
-68,-53,14,61,-41,-19,68,58,165,97,-82,326
-63,-53,9,58,-36,-21,73,63,165,102,-78,326
-58,-43,14,51,-36,-14,78,68,165,102,-78,331
-53,-39,14,46,-34,-12,87,68,165,112,-78,341
-48,-39,9,43,-29,-14,87,68,161,112,-82,341
-48,-39,9,43,-29,-14,87,68,161,102,-97,322
-48,-39,9,43,-29,-14,82,68,161,102,-97,322
-48,-29,19,39,-34,-4,73,68,156,92,-102,312
-48,-34,14,41,-31,-9,78,68,156,92,-92,322
-53,-39,14,46,-34,-12,78,63,156,92,-102,336
-58,-39,19,48,-39,-9,78,63,156,92,-102,336
-63,-34,29,48,-46,-2,87,78,165,107,-102,331
-68,-34,34,51,-51,0,87,78,165,107,-102,331
-73,-24,48,48,-61,12,87,78,165,107,-102,322
-78,-24,53,51,-65,14,87,78,165,107,-107,322
-73,-34,39,53,-56,2,87,78,165,107,-107,326
-63,-29,34,46,-48,2,82,73,165,107,-102,326
-58,-29,29,43,-43,0,82,73,165,97,-97,326
-53,-29,24,41,-39,-2,87,73,156,97,-97,326
-53,-24,29,39,-41,2,82,58,156,97,-102,326
-53,-24,29,39,-41,2,78,58,161,102,-102,322
-53,-29,24,41,-39,-2,73,68,165,102,-107,317
-53,-29,24,41,-39,-2,68,68,165,102,-112,307
-58,-19,39,39,-48,9,68,68,156,87,-122,307
-68,-19,48,43,-58,14,68,68,156,87,-122,302
-68,-19,48,43,-58,14,68,73,156,92,-122,302
-68,-19,48,43,-58,14,73,78,156,92,-122,302
-73,-24,48,48,-61,12,82,78,161,107,-122,297
-78,-24,53,51,-65,14,78,68,165,102,-126,292
-78,-29,48,53,-63,9,78,68,165,107,-126,292
-82,-34,48,58,-65,7,78,68,170,112,-126,297
-87,-43,43,65,-65,0,68,53,170,97,-136,292
-92,-43,48,68,-70,2,68,53,165,92,-141,292
-97,-48,48,73,-73,0,68,53,165,92,-146,287
-97,-58,39,78,-68,-9,68,53,161,87,-151,287
-92,-34,58,63,-75,12,78,63,161,102,-146,278
-87,-29,58,58,-73,14,78,68,161,102,-151,273
-87,-24,63,56,-75,19,78,73,161,97,-151,273
-97,-14,82,56,-90,34,78,73,161,97,-156,268
-87,-14,73,51,-80,29,78,73,170,107,-161,258
-82,-19,63,51,-73,21,78,82,175,107,-165,253
-78,-14,63,46,-70,24,78,87,180,107,-170,253
-73,-19,53,46,-63,17,78,87,180,112,-170,244
-82,-29,53,56,-68,12,87,92,185,122,-165,244
-82,-29,53,56,-68,12,87,92,185,122,-170,244
-73,-19,53,46,-63,17,92,97,185,122,-175,244
-73,-9,63,41,-68,26,92,97,185,117,-180,239
-68,-14,53,41,-61,19,82,92,190,107,-190,234
-73,-4,68,39,-70,31,82,102,190,107,-200,224
-68,14,82,26,-75,48,82,102,195,112,-209,214
-68,24,92,21,-80,58,82,97,195,112,-219,209
-82,24,107,29,-95,65,87,97,200,112,-214,204
-87,19,107,34,-97,63,87,102,200,112,-224,200
-102,9,112,46,-107,61,82,102,200,112,-234,180
-112,4,117,53,-114,61,82,102,200,102,-244,170
-112,0,112,56,-112,56,73,102,200,92,-244,180
-102,9,112,46,-107,61,73,112,204,92,-253,170
-112,9,122,51,-117,65,78,112,209,92,-258,161
-122,14,136,53,-129,75,78,112,209,92,-263,161
-131,4,136,63,-134,70,68,107,209,97,-273,151
-136,-4,131,70,-134,63,68,102,209,97,-278,146
-136,4,141,65,-139,73,63,92,209,92,-283,141
-126,9,136,58,-131,73,63,102,209,87,-287,141
-136,14,151,61,-143,82,73,112,200,87,-283,131
-151,14,165,68,-158,90,73,112,200,92,-283,131
-161,14,175,73,-168,95,73,112,200,92,-283,131
-170,14,185,78,-178,100,78,112,195,82,-287,131
-151,43,195,53,-173,119,87,102,204,87,-287,141
-136,48,185,43,-161,117,82,102,204,82,-287,141
-122,48,170,36,-146,109,78,102,190,78,-292,131
-112,53,165,29,-139,109,78,102,190,73,-292,131
-126,43,170,41,-148,107,68,92,175,63,-287,131
-131,43,175,43,-153,109,68,92,175,63,-283,141
-136,39,175,48,-156,107,68,92,175,63,-283,146
-136,29,165,53,-151,97,63,87,170,58,-278,151
-126,29,156,48,-141,92,68,82,175,58,-268,156
-126,34,161,46,-143,97,63,78,170,63,-258,165
-126,43,170,41,-148,107,63,78,170,68,-253,170
-117,48,165,34,-141,107,63,68,165,73,-244,175
-117,39,156,39,-136,97,58,58,151,63,-239,185
-117,34,151,41,-134,92,53,53,151,68,-219,190
-112,39,151,36,-131,95,48,53,151,73,-209,200
-112,34,146,39,-129,90,34,68,151,73,-209,200
-102,39,141,31,-122,90,39,68,146,82,-190,209
-97,34,131,31,-114,82,39,63,141,82,-170,229
-97,29,126,34,-112,78,39,58,141,82,-161,239
-92,29,122,31,-107,75,43,53,131,78,-161,248
-97,34,131,31,-114,82,29,39,131,78,-156,244
-97,14,112,41,-104,63,29,39,131,78,-151,248
-97,9,107,43,-102,58,29,34,131,78,-146,253
-92,4,97,43,-95,51,29,34,131,82,-136,253
-73,0,73,36,-73,36,29,43,136,82,-131,258
-73,0,73,36,-73,36,29,43,136,82,-112,263
-68,4,73,31,-70,39,29,39,136,82,-112,268
-58,4,63,26,-61,34,24,39,136,82,-112,268
-48,-4,43,26,-46,19,34,43,126,87,-112,268
-48,-4,43,26,-46,19,39,43,126,87,-102,283
-63,-9,53,36,-58,21,39,43,126,87,-97,287
-53,-14,39,34,-46,12,39,43,122,82,-87,287
-43,-4,39,24,-41,17,24,34,112,78,-87,283
-34,-4,29,19,-31,12,24,29,112,78,-87,287
-19,-4,14,12,-17,4,14,14,107,78,-87,283
-19,-9,9,14,-14,0,14,14,107,78,-87,278
-34,-29,4,31,-19,-12,9,24,107,78,-87,283
-34,-34,0,34,-17,-17,14,29,107,78,-82,283
-34,-34,0,34,-17,-17,14,29,107,78,-82,278
-43,-34,9,39,-26,-12,14,19,107,73,-82,273
-58,-43,14,51,-36,-14,9,9,97,63,-82,268
-68,-43,24,56,-46,-9,9,9,97,63,-82,268
-78,-63,14,70,-46,-24,9,9,97,63,-82,268
-92,-73,19,82,-56,-26,9,4,97,53,-82,268
-53,-53,0,53,-26,-26,14,14,97,53,-82,258
-39,-34,4,36,-21,-14,19,19,97,58,-82,263
-24,-24,0,24,-12,-12,24,19,97,68,-78,263
-4,-14,-9,9,2,-12,29,24,97,73,-78,263
-9,-29,-19,19,4,-24,19,24,97,78,-78,263
-9,-34,-24,21,7,-29,24,24,97,78,-78,263
-14,-39,-24,26,4,-31,24,14,97,78,-78,268
-14,-43,-29,29,7,-36,24,4,92,82,-78,268
-24,-48,-24,36,0,-36,24,14,82,78,-78,263
-24,-48,-24,36,0,-36,24,14,82,68,-87,253
-24,-58,-34,41,4,-46,24,14,82,63,-87,244
-24,-58,-34,41,4,-46,24,14,82,58,-87,239
-24,-48,-24,36,0,-36,34,19,87,68,-73,244
-24,-53,-29,39,2,-41,34,19,92,68,-73,248
-24,-58,-34,41,4,-46,34,14,92,63,-82,248
-29,-68,-39,48,4,-53,34,14,97,63,-82,253
-39,-78,-39,58,0,-58,34,4,97,63,-82,248
-39,-73,-34,56,-2,-53,29,9,92,58,-87,239
-39,-73,-34,56,-2,-53,24,9,87,48,-97,229
-39,-68,-29,53,-4,-48,14,0,82,43,-102,219
-29,-73,-43,51,7,-58,19,9,92,48,-92,219
-29,-73,-43,51,7,-58,24,14,87,53,-92,219
-29,-73,-43,51,7,-58,29,14,87,58,-92,224
-19,-78,-58,48,19,-68,34,14,87,63,-92,224
-39,-78,-39,58,0,-58,34,14,92,63,-92,214
-48,-87,-39,68,-4,-63,39,14,92,63,-92,214
-48,-87,-39,68,-4,-63,39,14,92,63,-92,214
-43,-87,-43,65,0,-65,39,19,97,73,-92,219
-29,-58,-29,43,0,-43,43,9,97,73,-92,209
-29,-58,-29,43,0,-43,43,9,97,73,-87,209
-24,-68,-43,46,9,-56,39,9,97,68,-87,204
-14,-68,-53,41,19,-61,34,9,92,58,-97,200
-4,-58,-53,31,24,-56,43,19,92,63,-97,200
-19,-53,-34,36,7,-43,48,19,97,63,-92,204
-29,-53,-24,41,-2,-39,48,19,97,68,-92,204
-29,-63,-34,46,2,-48,48,19,97,78,-92,204
-39,-58,-19,48,-9,-39,39,9,97,78,-92,200
-48,-53,-4,51,-21,-29,39,19,97,82,-87,204
-48,-63,-14,56,-17,-39,39,19,102,82,-87,200
-58,-78,-19,68,-19,-48,39,19,102,78,-87,195
-53,-63,-9,58,-21,-36,43,9,92,68,-97,185
-43,-53,-9,48,-17,-31,43,9,92,68,-92,185
-34,-43,-9,39,-12,-26,48,14,92,73,-87,190
-29,-39,-9,34,-9,-24,48,19,92,78,-82,190
-24,-48,-24,36,0,-36,48,14,92,82,-78,190
-39,-43,-4,41,-17,-24,48,14,97,82,-82,190
-43,-43,0,43,-21,-21,48,9,97,78,-87,190
-48,-43,4,46,-26,-19,48,9,92,78,-92,185
-39,-53,-14,46,-12,-34,39,14,102,78,-92,175
-34,-43,-9,39,-12,-26,39,14,107,78,-92,180
-19,-39,-19,29,0,-29,39,14,107,78,-78,180
-9,-39,-29,24,9,-34,39,19,112,82,-73,195
-24,-29,-4,26,-9,-17,48,19,102,82,-78,185
-39,-29,9,34,-24,-9,48,24,102,82,-78,185
-53,-9,43,31,-48,17,39,24,102,82,-78,180
-39,-24,14,31,-26,-4,39,24,102,82,-68,175
-48,-19,29,34,-39,4,29,14,102,92,-73,175
-43,-24,19,34,-31,-2,34,24,112,97,-68,175
-43,-19,24,31,-34,2,34,24,112,107,-63,175
-43,-14,29,29,-36,7,34,29,117,107,-58,175
-43,-14,29,29,-36,7,43,29,112,107,-58,175
-43,-24,19,34,-31,-2,48,29,117,107,-48,180
-39,-9,29,24,-34,9,48,34,126,112,-43,180
-19,0,19,9,-19,9,53,43,131,117,-34,185
-9,-4,4,7,-7,0,53,58,141,122,-39,185
-4,4,9,0,-7,7,58,68,146,126,-34,185
-4,4,9,0,-7,7,58,73,151,131,-29,185
0,9,9,-4,-4,9,73,78,156,141,-24,195
0,19,19,-9,-9,19,78,78,165,136,-19,190
0,29,29,-14,-14,29,78,78,165,146,-9,195
9,39,29,-24,-9,34,82,82,180,156,-4,204
9,39,29,-24,-9,34,87,87,185,156,0,204
9,39,29,-24,-9,34,92,92,190,156,4,204
9,39,29,-24,-9,34,97,97,195,156,9,204
4,34,29,-19,-12,31,97,107,190,170,9,195
0,29,29,-14,-14,29,97,107,195,175,9,200
-4,24,29,-9,-17,26,92,107,200,180,19,209
0,43,43,-21,-21,43,87,107,209,185,29,209
9,43,34,-26,-12,39,73,107,209,185,19,204
14,43,29,-29,-7,36,58,112,214,190,29,204
24,43,19,-34,2,31,43,117,229,200,39,219
39,43,4,-41,17,24,29,126,239,214,53,219
43,63,19,-53,12,41,4,126,253,219,58,224
58,63,4,-61,26,34,-9,136,263,229,58,229
87,78,-9,-82,48,34,-29,146,258,224,53,224
92,87,-4,-90,48,41,-48,146,253,219,48,214
78,73,-4,-75,41,34,-58,151,258,224,53,214
73,58,-14,-65,43,21,-63,141,253,214,48,204
68,48,-19,-58,43,14,-68,141,253,209,48,204
63,43,-19,-53,41,12,-68,126,244,204,53,204
53,53,0,-53,26,26,-63,122,234,195,39,190
39,39,0,-39,19,19,-58,92,209,180,29,175
14,19,4,-17,4,12,-39,68,190,170,14,170
4,19,14,-12,-4,17,-14,53,165,161,9,170
19,9,-9,-14,14,0,-4,43,165,151,4,146
24,-4,-29,-9,26,-17,-4,34,151,141,-4,141
24,-14,-39,-4,31,-26,-4,29,146,136,-9,136
19,-19,-39,0,29,-29,0,29,136,122,-24,136
9,-24,-34,7,21,-29,14,14,126,107,-24,131
9,-24,-34,7,21,-29,14,4,117,107,-24,122
9,-24,-34,7,21,-29,14,0,107,107,-34,112
9,-24,-34,7,21,-29,4,0,102,97,-34,107
4,-34,-39,14,21,-36,-9,-14,92,102,-39,107
0,-34,-34,17,17,-34,-19,-24,92,102,-39,102
-9,-43,-34,26,12,-39,-29,-29,87,97,-43,97
-14,-48,-34,31,9,-41,-34,-29,87,97,-43,87
-4,-39,-34,21,14,-36,-24,-29,92,102,-43,87
4,-34,-39,14,21,-36,-19,-29,78,97,-43,82
14,-29,-43,7,29,-36,-14,-24,78,87,-53,78
24,-24,-48,0,36,-36,-4,-19,78,87,-53,78
14,-34,-48,9,31,-41,-4,-19,78,92,-58,58
0,-43,-43,21,21,-43,0,-24,78,92,-63,53
-19,-48,-29,34,4,-39,0,-29,78,82,-68,43
-29,-48,-19,39,-4,-34,0,-34,78,82,-68,43
-14,-43,-29,29,7,-36,9,-19,78,78,-68,39
4,-43,-48,19,26,-46,9,-19,78,78,-68,39
-4,-58,-53,31,24,-56,9,-19,78,68,-78,34
0,-63,-63,31,31,-63,14,-14,78,68,-78,29
-14,-63,-48,39,17,-56,24,-9,82,68,-87,19
-19,-53,-34,36,7,-43,34,-4,82,68,-87,14
-43,-63,-19,53,-12,-41,34,0,82,63,-97,4
-63,-73,-9,68,-26,-41,43,4,87,63,-102,0
-73,-73,0,73,-36,-36,39,0,78,58,-112,-9
-58,-58,0,58,-29,-29,43,0,82,58,-112,-9
-48,-58,-9,53,-19,-34,43,0,82,58,-112,-14
-43,-73,-29,58,-7,-51,43,-9,73,58,-112,-14
-68,-73,-4,70,-31,-39,43,-14,73,58,-112,-14
-78,-68,9,73,-43,-29,43,-14,73,58,-112,-19
-82,-58,24,70,-53,-17,43,-14,73,58,-112,-24
-87,-58,29,73,-58,-14,43,-14,73,58,-117,-29
-87,-58,29,73,-58,-14,53,-14,73,53,-112,-24
-92,-73,19,82,-56,-26,58,-14,73,53,-112,-24
-92,-73,19,82,-56,-26,58,-14,73,53,-107,-24
-87,-73,14,80,-51,-29,58,-14,73,53,-107,-24
-68,-58,9,63,-39,-24,58,-14,73,63,-97,-34
-68,-58,9,63,-39,-24,58,-14,73,63,-97,-34
-58,-53,4,56,-31,-24,58,-14,73,63,-97,-34
-48,-48,0,48,-24,-24,58,-14,73,63,-97,-34
-68,-48,19,58,-43,-14,63,-4,82,63,-92,-29
-73,-53,19,63,-46,-17,68,0,87,68,-92,-29
-82,-58,24,70,-53,-17,68,0,87,68,-92,-29
-92,-68,24,80,-58,-21,68,-4,82,68,-97,-29
-78,-58,19,68,-48,-19,53,-19,78,58,-102,-48
-78,-53,24,65,-51,-14,48,-19,73,53,-112,-58
-73,-53,19,63,-46,-17,43,-19,68,48,-117,-63
-68,-53,14,61,-41,-19,39,-19,63,43,-122,-68
-78,-58,19,68,-48,-19,53,-14,73,53,-117,-53
-87,-68,19,78,-53,-24,58,-14,73,53,-107,-53
-92,-73,19,82,-56,-26,58,-14,78,53,-102,-53
-82,-78,4,80,-43,-36,48,-14,78,53,-97,-53
-78,-73,4,75,-41,-34,58,-4,87,63,-97,-48
-73,-58,14,65,-43,-21,58,-4,87,63,-97,-48
-73,-53,19,63,-46,-17,58,-4,87,68,-97,-48
-78,-48,29,63,-53,-9,58,-4,87,68,-97,-53
-87,-58,29,73,-58,-14,58,-14,82,58,-92,-48
-97,-43,53,70,-75,4,58,-24,73,58,-97,-48
-107,-43,63,75,-85,9,58,-29,68,58,-97,-43
-122,-53,68,87,-95,7,63,-29,63,58,-92,-43
-102,-4,97,53,-100,46,82,-4,87,82,-68,-29
-102,-19,82,61,-92,31,92,0,107,102,-58,-24
-97,-29,68,63,-82,19,82,9,136,126,-48,-19
-58,-19,39,39,-48,9,82,39,195,175,0,9
-39,-39,0,39,-19,-19,78,102,273,239,63,63
-29,-63,-34,46,2,-48,63,156,370,312,165,146
-4,-43,-39,24,17,-41,43,214,473,414,307,273
14,4,-9,-9,12,-2,24,224,483,458,463,429
43,19,-24,-31,34,-2,9,200,429,453,600,580
87,39,-48,-63,68,-4,0,146,336,483,771,766
97,73,-24,-85,61,24,-29,29,117,463,951,951
73,117,43,-95,14,80,-39,-136,-200,356,1098,1151
107,165,58,-136,24,112,-48,-307,-478,248,1278,1376
170,185,14,-178,78,100,-97,-468,-746,141,1464,1615
195,190,-4,-192,100,92,-146,-605,-1019,-34,1600,1810
190,200,9,-195,90,104,-204,-746,-1263,-283,1688,1966
219,229,9,-224,104,119,-268,-883,-1468,-488,1761,2074
287,239,-48,-263,168,95,-322,-946,-1615,-673,1737,2044
317,244,-73,-280,195,85,-361,-1015,-1786,-946,1561,1878
341,263,-78,-302,209,92,-424,-1224,-2122,-1278,1395,1722
351,248,-102,-300,226,73,-497,-1478,-2493,-1542,1249,1561
380,195,-185,-287,283,4,-531,-1581,-2659,-1717,995,1239
439,107,-331,-273,385,-112,-541,-1590,-2718,-1888,610,800
458,19,-439,-239,448,-209,-512,-1610,-2771,-2059,204,366
458,-87,-546,-185,502,-317,-488,-1576,-2752,-2122,-136,19
488,-214,-702,-136,595,-458,-424,-1439,-2586,-2078,-448,-248
522,-307,-829,-107,675,-568,-356,-1268,-2400,-2069,-800,-522
483,-361,-844,-61,663,-602,-297,-1161,-2298,-2113,-1156,-761
400,-419,-819,9,610,-619,-229,-1068,-2176,-2088,-1400,-927
331,-468,-800,68,566,-634,-146,-941,-1942,-1922,-1483,-1029
273,-512,-785,119,529,-649,-97,-800,-1703,-1727,-1449,-1063
234,-575,-810,170,522,-692,-73,-649,-1468,-1546,-1371,-1044
146,-649,-795,251,470,-722,-29,-463,-1220,-1317,-1249,-995
29,-639,-668,305,348,-653,9,-317,-936,-1058,-1063,-897
-29,-570,-541,300,256,-556,34,-200,-702,-829,-878,-780
-68,-483,-414,275,173,-448,68,-141,-541,-653,-736,-668
-126,-434,-307,280,90,-370,97,-97,-405,-517,-614,-595
-146,-405,-258,275,56,-331,112,-63,-297,-400,-536,-541
-117,-361,-244,239,63,-302,112,-43,-234,-326,-488,-497
-97,-292,-195,195,48,-244,136,-19,-156,-244,-424,-453
-141,-224,-82,183,-29,-153,165,14,-73,-146,-361,-385
-161,-190,-29,175,-65,-109,175,34,-19,-78,-302,-341
-161,-175,-14,168,-73,-95,170,48,24,-39,-258,-297
-151,-156,-4,153,-73,-80,165,53,58,-14,-204,-263
-141,-136,4,139,-73,-65,151,63,63,9,-170,-239
-146,-136,9,141,-78,-63,141,53,63,24,-146,-224
-161,-146,14,153,-87,-65,126,58,73,34,-141,-214
-131,-97,34,114,-82,-31,117,58,78,43,-141,-204
-117,-87,29,102,-73,-29,126,58,73,43,-151,-214
-107,-78,29,92,-68,-24,117,58,78,43,-151,-214
-92,-68,24,80,-58,-21,107,48,82,43,-151,-214
-73,-63,9,68,-41,-26,97,48,87,48,-151,-214
-68,-82,-14,75,-26,-48,107,63,97,63,-126,-214
-68,-82,-14,75,-26,-48,112,63,107,73,-122,-209
-68,-78,-9,73,-29,-43,112,63,112,73,-122,-200
-73,-78,-4,75,-34,-41,112,58,117,68,-122,-200
-78,-78,0,78,-39,-39,102,58,107,58,-126,-209
-82,-78,4,80,-43,-36,102,58,112,68,-131,-209
-78,-78,0,78,-39,-39,102,58,117,73,-136,-209
-78,-73,4,75,-41,-34,102,58,126,78,-136,-209
-87,-73,14,80,-51,-29,112,68,136,78,-126,-195
-87,-82,4,85,-46,-39,107,73,136,82,-102,-185
-87,-82,4,85,-46,-39,107,73,136,82,-92,-180
-82,-78,4,80,-43,-36,102,73,131,82,-82,-175
-92,-78,14,85,-53,-31,97,58,117,73,-97,-180
-97,-82,14,90,-56,-34,97,58,117,73,-102,-180
-97,-87,9,92,-53,-39,92,58,122,73,-107,-185
-97,-92,4,95,-51,-43,82,58,122,78,-112,-185
-102,-97,4,100,-53,-46,82,68,136,87,-102,-185
-107,-102,4,104,-56,-48,87,68,136,87,-102,-190
-107,-97,9,102,-58,-43,97,73,136,92,-97,-195
-107,-82,24,95,-65,-29,107,78,136,92,-97,-195
-78,-43,34,61,-56,-4,102,78,136,82,-107,-185
-58,-29,29,43,-43,0,97,78,131,82,-112,-185
-43,-14,29,29,-36,7,92,78,131,73,-126,-204
-29,0,29,14,-29,14,82,78,131,73,-126,-204
-43,-14,29,29,-36,7,92,78,136,82,-112,-214
-48,-24,24,36,-36,0,97,78,136,82,-102,-204
-58,-34,24,46,-41,-4,97,73,136,82,-112,-190
-68,-39,29,53,-48,-4,97,73,136,82,-112,-190
-78,-58,19,68,-48,-19,87,68,131,73,-117,-204
-87,-63,24,75,-56,-19,87,68,126,68,-122,-204
-97,-58,39,78,-68,-9,87,68,122,63,-126,-214
-107,-63,43,85,-75,-9,87,68,117,58,-136,-214
-97,-53,43,75,-70,-4,97,68,126,68,-136,-219
-82,-48,34,65,-58,-7,92,63,126,68,-131,-219
-73,-48,24,61,-48,-12,92,63,126,58,-126,-219
-63,-48,14,56,-39,-17,97,63,117,58,-126,-219
-48,-39,9,43,-29,-14,97,68,117,68,-126,-224
-43,-34,9,39,-26,-12,97,68,122,73,-122,-224
-39,-34,4,36,-21,-14,97,78,126,73,-122,-224
-34,-29,4,31,-19,-12,97,78,126,73,-122,-229
-48,-19,29,34,-39,4,97,68,126,58,-131,-219
-58,-19,39,39,-48,9,97,68,126,58,-131,-224
-58,-19,39,39,-48,9,97,73,126,63,-131,-224
-58,-19,39,39,-48,9,102,78,126,63,-131,-224
-68,-39,29,53,-48,-4,102,78,126,73,-131,-219
-78,-43,34,61,-56,-4,97,68,126,63,-136,-224
-82,-53,29,68,-56,-12,97,68,122,63,-136,-224
-92,-63,29,78,-61,-17,97,68,122,63,-136,-219
-82,-58,24,70,-53,-17,107,78,136,73,-131,-229
-82,-53,29,68,-56,-12,107,82,136,73,-131,-224
-82,-53,29,68,-56,-12,107,87,141,78,-131,-224
-78,-58,19,68,-48,-19,107,92,141,78,-131,-219
-87,-48,39,68,-63,-4,97,87,131,78,-151,-229
-87,-48,39,68,-63,-4,97,87,131,73,-161,-244
-92,-48,43,70,-68,-2,97,87,131,63,-165,-253
-107,-43,63,75,-85,9,97,82,131,58,-175,-268
-92,-34,58,63,-75,12,107,82,141,63,-165,-273
-82,-29,53,56,-68,12,107,92,146,68,-165,-273
-73,-14,58,43,-65,21,107,97,151,73,-165,-268
-63,-9,53,36,-58,21,107,97,151,82,-161,-273
-68,-9,58,39,-63,24,107,92,156,73,-165,-278
-73,-9,63,41,-68,26,107,92,156,73,-170,-283
-68,0,68,34,-68,34,112,97,156,73,-175,-287
-73,9,82,31,-78,46,112,97,156,68,-180,-297
-92,-9,82,51,-87,36,102,92,151,58,-190,-302
-102,-14,87,58,-95,36,102,102,151,58,-200,-312
-102,-9,92,56,-97,41,102,102,156,63,-209,-322
-107,-14,92,61,-100,39,102,97,156,63,-219,-326
-117,-14,102,65,-109,43,117,102,170,73,-209,-317
-117,-19,97,68,-107,39,117,112,170,73,-214,-317
-126,-29,97,78,-112,34,112,117,170,73,-219,-331
-131,-34,97,82,-114,31,112,122,170,63,-224,-336
-117,-19,97,68,-107,39,102,112,161,73,-224,-331
-102,0,102,51,-102,51,102,122,165,73,-234,-336
-107,9,117,48,-112,63,107,122,170,73,-239,-341
-112,24,136,43,-124,80,107,122,170,73,-244,-336
-117,34,151,41,-134,92,107,126,180,58,-244,-346
-117,24,141,46,-129,82,107,122,180,58,-248,-351
-112,34,146,39,-129,90,102,112,180,53,-253,-356
-97,39,136,29,-117,87,102,122,180,48,-258,-356
-107,39,146,34,-126,92,92,126,161,39,-268,-370
-122,34,156,43,-139,95,92,122,161,43,-273,-375
-131,29,161,51,-146,95,92,117,161,43,-278,-380
-141,24,165,58,-153,95,97,112,156,34,-287,-385
-126,48,175,39,-151,112,102,107,161,39,-283,-380
-117,48,165,34,-141,107,102,112,165,34,-278,-375
-107,43,151,31,-129,97,102,117,156,29,-278,-380
-102,43,146,29,-124,95,107,122,161,24,-273,-375
-126,48,175,39,-151,112,102,107,141,14,-268,-370
-131,53,185,39,-158,119,97,102,136,14,-263,-366
-136,53,190,41,-163,122,92,97,131,14,-263,-366
-136,48,185,43,-161,117,82,87,122,9,-258,-366
-136,34,170,51,-153,102,87,82,126,4,-258,-361
-136,34,170,51,-153,102,82,78,122,4,-248,-351
-136,39,175,48,-156,107,82,78,122,4,-244,-346
-126,39,165,43,-146,102,82,68,117,4,-234,-341
-112,43,156,34,-134,100,92,73,122,9,-219,-322
-107,43,151,31,-129,97,92,73,122,19,-200,-307
-97,53,151,21,-124,102,92,78,122,29,-190,-287
-92,53,146,19,-119,100,82,97,122,34,-190,-278
-102,39,141,31,-122,90,82,92,112,29,-180,-283
-97,34,131,31,-114,82,78,82,102,24,-161,-268
-97,29,126,34,-112,78,73,73,97,19,-151,-263
-92,29,122,31,-107,75,73,63,82,9,-151,-258
-78,48,126,14,-102,87,58,58,92,9,-146,-258
-68,34,102,17,-85,68,58,58,92,9,-141,-248
-58,34,92,12,-75,63,58,53,92,9,-136,-239
-43,34,78,4,-61,56,58,53,92,14,-126,-234
-43,9,53,17,-48,31,48,53,82,19,-126,-224
-53,0,53,26,-53,26,48,53,78,14,-112,-224
-58,-4,53,31,-56,24,48,48,73,9,-117,-224
-58,-14,43,36,-51,14,43,48,68,4,-122,-229
-39,4,43,17,-41,24,48,53,73,14,-112,-219
-29,24,53,2,-41,39,58,53,78,19,-102,-204
-34,39,73,-2,-53,56,63,53,82,24,-97,-200
-14,53,68,-19,-41,61,68,53,82,24,-87,-200
-19,43,63,-12,-41,53,73,63,82,19,-78,-209
-14,34,48,-9,-31,41,73,58,82,19,-78,-200
-4,24,29,-9,-17,26,63,43,78,19,-78,-200
-9,9,19,0,-14,14,63,43,78,19,-78,-200
-19,-9,9,14,-14,0,58,34,78,19,-68,-190
-24,-24,0,24,-12,-12,63,39,78,19,-63,-185
-29,-34,-4,31,-12,-19,63,39,78,19,-63,-185
-43,-43,0,43,-21,-21,63,29,78,14,-63,-185
-29,-34,-4,31,-12,-19,68,34,78,24,-63,-180
-19,-14,4,17,-12,-4,68,39,78,24,-63,-180
-9,-14,-4,12,-2,-9,68,43,78,24,-63,-180
-4,-4,0,4,-2,-2,68,43,78,14,-63,-180
0,-9,-9,4,4,-9,58,34,68,9,-63,-180
0,-4,-4,2,2,-4,58,39,68,9,-63,-175
0,-9,-9,4,4,-9,58,39,68,14,-58,-175
4,-14,-19,4,12,-17,58,43,68,14,-58,-175
4,-34,-39,14,21,-36,48,48,63,0,-68,-185
0,-34,-34,17,17,-34,53,43,58,0,-68,-185
-9,-34,-24,21,7,-29,53,29,53,0,-68,-180
-14,-34,-19,24,2,-26,53,14,43,4,-68,-180
-19,-19,0,19,-9,-9,53,24,53,-4,-68,-190
-14,-19,-4,17,-4,-12,53,24,53,-9,-78,-195
-9,-29,-19,19,4,-24,53,24,53,-9,-78,-200
-4,-29,-24,17,9,-26,53,24,53,-9,-78,-200
-4,-29,-24,17,9,-26,63,39,53,-9,-63,-200
-4,-34,-29,19,12,-31,63,39,53,-9,-63,-200
-4,-39,-34,21,14,-36,63,34,48,-14,-73,-204
-9,-48,-39,29,14,-43,63,34,48,-14,-73,-204
0,-43,-43,21,21,-43,78,43,63,0,-63,-185
0,-34,-34,17,17,-34,78,48,63,0,-58,-180
0,-29,-29,14,14,-29,78,48,63,-4,-58,-175
0,-19,-19,9,9,-19,73,39,63,-4,-53,-170
9,-29,-39,9,24,-34,63,39,63,-4,-63,-190
9,-34,-43,12,26,-39,63,43,58,-4,-63,-190
9,-39,-48,14,29,-43,63,43,58,-4,-63,-185
19,-48,-68,14,43,-58,63,43,58,-4,-63,-185
0,-39,-39,19,19,-39,53,34,53,-14,-73,-195
-9,-48,-39,29,14,-43,58,34,53,-14,-73,-195
-9,-48,-39,29,14,-43,58,34,53,-14,-73,-195
-4,-48,-43,26,19,-46,58,39,58,-4,-73,-190
0,-19,-19,9,9,-19,53,39,58,4,-73,-190
0,-9,-9,4,4,-9,53,39,58,4,-68,-190
4,-9,-14,2,9,-12,48,39,58,0,-68,-195
14,0,-14,-7,14,-7,43,39,53,-9,-78,-200
24,0,-24,-12,24,-12,53,48,63,0,-68,-200
9,-4,-14,-2,12,-9,58,48,68,-4,-63,-195
0,-14,-14,7,7,-14,58,48,68,-4,-63,-195
0,-34,-34,17,17,-34,58,48,68,0,-63,-195
-4,-29,-24,17,9,-26,48,39,68,14,-58,-190
-9,-24,-14,17,2,-19,48,48,68,24,-48,-175
-4,-34,-29,19,12,-31,48,48,73,29,-43,-170
-9,-48,-39,29,14,-43,48,48,73,29,-39,-165
-19,-39,-19,29,0,-29,43,39,63,9,-53,-180
-14,-34,-19,24,2,-26,43,39,63,9,-53,-185
-9,-29,-19,19,4,-24,48,43,63,14,-53,-185
-9,-29,-19,19,4,-24,48,48,63,19,-53,-190
9,-24,-34,7,21,-29,48,43,68,24,-43,-180
0,-14,-14,7,7,-14,48,43,78,24,-43,-180
0,-9,-9,4,4,-9,48,39,82,19,-43,-180
0,-4,-4,2,2,-4,48,39,82,19,-43,-185
-4,-14,-9,9,2,-12,48,43,82,19,-34,-165
-4,-14,-9,9,2,-12,48,43,87,29,-24,-151
4,-19,-24,7,14,-21,48,43,87,39,0,-141
9,-29,-39,9,24,-34,48,48,92,53,14,-117
4,-19,-24,7,14,-21,48,48,92,63,9,-126
0,-9,-9,4,4,-9,48,53,92,63,9,-126
-4,19,24,-7,-14,21,39,53,92,63,9,-131
19,14,-4,-17,12,4,39,53,92,63,19,-136
19,29,9,-24,4,19,39,63,112,82,24,-126
24,34,9,-29,7,21,43,73,122,87,29,-126
24,48,24,-36,0,36,43,73,122,97,34,-126
24,63,39,-43,-7,51,43,78,126,97,39,-126
34,63,29,-48,2,46,34,78,131,97,29,-126
34,53,19,-43,7,36,39,78,136,97,39,-122
39,68,29,-53,4,48,39,82,146,102,43,-122
58,78,19,-68,19,48,43,92,151,107,53,-117
73,102,29,-87,21,65,34,87,141,102,48,-107
34,63,29,-48,2,46,19,97,146,117,53,-97
9,43,34,-26,-12,39,29,102,161,141,78,-87
29,87,58,-58,-14,73,53,117,165,151,92,-78
48,97,48,-73,0,73,58,126,165,146,97,-78
34,92,58,-63,-12,75,58,117,175,136,92,-87
29,87,58,-58,-14,73,58,117,175,136,87,-87
24,82,58,-53,-17,70,58,117,175,136,82,-87
19,78,58,-48,-19,68,58,117,175,136,78,-87
39,82,43,-61,-2,63,63,131,185,146,82,-82
48,87,39,-68,4,63,68,136,195,156,87,-73
58,92,34,-75,12,63,68,141,204,165,102,-58
78,122,43,-100,17,82,68,146,219,175,117,-53
73,107,34,-90,19,70,53,146,209,175,107,-48
63,102,39,-82,12,70,39,151,214,180,117,-48
58,97,39,-78,9,68,24,156,229,190,126,-34
58,92,34,-75,12,63,9,165,239,204,141,-34
63,102,39,-82,12,70,-14,185,268,224,156,-19
78,102,24,-90,26,63,-29,195,283,239,165,-4
107,117,9,-112,48,63,-48,204,283,239,170,0
112,126,14,-119,48,70,-68,204,283,239,175,0
112,126,14,-119,48,70,-87,209,292,244,175,9
112,126,14,-119,48,70,-92,200,283,234,165,0
112,131,19,-122,46,75,-97,200,278,229,161,0
112,141,29,-126,41,85,-97,185,263,224,161,0
112,122,9,-117,51,65,-92,161,244,209,156,4
97,97,0,-97,48,48,-87,131,219,190,146,-9
73,68,-4,-70,39,31,-68,107,200,175,131,-14
63,58,-4,-61,34,26,-43,92,175,161,126,-14
73,73,0,-73,36,36,-39,73,165,146,117,-39
73,73,0,-73,36,36,-34,63,151,141,112,-43
68,78,9,-73,29,43,-29,58,146,141,112,-48
58,87,29,-73,14,58,-19,58,136,131,102,-48
43,73,29,-58,7,51,-4,53,126,122,97,-63
39,63,24,-51,7,43,-4,43,117,117,92,-73
34,53,19,-43,7,36,-4,39,107,112,78,-82
29,43,14,-36,7,29,-14,39,102,97,73,-87
34,53,19,-43,7,36,-14,43,112,107,92,-73
39,53,14,-46,12,34,-19,34,112,112,97,-63
39,43,4,-41,17,24,-24,29,107,112,97,-53
43,39,-4,-41,24,17,-24,29,107,117,102,-48
39,19,-19,-29,29,0,-9,14,92,112,102,-39
34,14,-19,-24,26,-2,-9,9,78,107,102,-43
29,9,-19,-19,24,-4,-9,9,78,97,92,-48
24,4,-19,-14,21,-7,-4,9,78,97,92,-48
34,19,-14,-26,24,2,-14,14,78,102,78,-63
29,14,-14,-21,21,0,-9,14,78,102,73,-73
19,14,-4,-17,12,4,-9,14,78,92,68,-87
19,19,0,-19,9,9,-9,14,78,92,68,-92
34,14,-19,-24,26,-2,-9,19,68,92,58,-78
53,14,-39,-34,46,-12,-9,19,68,87,58,-78
43,0,-43,-21,43,-21,-9,19,68,73,48,-82
48,-4,-53,-21,51,-29,-4,24,68,68,48,-87
29,-9,-39,-9,34,-24,14,39,78,73,53,-87
19,-4,-24,-7,21,-14,24,43,82,78,58,-92
-9,-19,-9,14,0,-14,24,48,87,78,53,-102
-34,-34,0,34,-17,-17,34,53,97,82,53,-107
-34,-24,9,29,-21,-7,48,68,102,92,63,-97
-19,0,19,9,-19,9,53,68,112,97,63,-97
-9,9,19,0,-14,14,53,68,117,102,63,-102
-4,4,9,0,-7,7,53,58,112,107,63,-102
-14,14,29,0,-21,21,43,43,97,102,53,-102
-19,19,39,0,-29,29,43,43,92,97,53,-107
-19,29,48,-4,-34,39,43,43,87,92,53,-112
-19,29,48,-4,-34,39,43,43,82,87,48,-117
-19,39,58,-9,-39,48,34,34,82,82,53,-117
-24,24,48,0,-36,36,39,34,82,82,53,-112
-24,24,48,0,-36,36,39,34,82,82,58,-107
-19,24,43,-2,-31,34,39,34,82,82,58,-102
-29,14,43,7,-36,29,43,48,92,82,58,-97
-39,0,39,19,-39,19,48,53,92,82,58,-92
-39,-9,29,24,-34,9,53,58,92,82,58,-87
-39,-19,19,29,-29,0,58,63,92,82,58,-82
-39,-24,14,31,-26,-4,63,53,92,92,63,-82
-34,-24,9,29,-21,-7,68,58,97,97,63,-87
-34,-24,9,29,-21,-7,68,58,97,97,63,-92
-34,-29,4,31,-19,-12,68,53,92,97,58,-97
-29,-14,14,21,-21,0,53,48,92,92,58,-102
-29,-4,24,17,-26,9,48,48,92,92,53,-107
-24,0,24,12,-24,12,43,48,92,92,53,-107
-19,4,24,7,-21,14,39,48,92,92,53,-107
-34,0,34,17,-34,17,53,43,92,92,63,-97
-39,-9,29,24,-34,9,58,43,92,92,68,-92
-39,-14,24,26,-31,4,58,43,97,92,68,-87
-24,-19,4,21,-14,-7,48,43,97,92,68,-82
-34,-29,4,31,-19,-12,48,43,87,87,63,-82
-34,-19,14,26,-24,-2,48,43,87,82,58,-87
-39,-19,19,29,-29,0,48,43,87,82,53,-92
-48,-19,29,34,-39,4,48,43,87,78,48,-102
-39,0,39,19,-39,19,58,48,102,92,58,-102
-39,34,73,2,-56,53,58,43,102,97,58,-97
-39,53,92,-7,-65,73,58,43,107,102,63,-87
-43,63,107,-9,-75,85,63,48,112,107,73,-82
-73,43,117,14,-95,80,92,73,117,122,87,-58
-73,9,82,31,-78,46,102,68,126,131,97,-53
-39,0,39,19,-39,19,102,87,146,165,126,-29
-29,0,29,14,-29,14,102,117,204,234,185,9
-39,29,68,4,-53,48,97,151,283,317,268,92
0,53,53,-26,-26,53,73,185,380,409,370,195
82,73,-9,-78,46,31,34,204,453,492,502,322
122,82,-39,-102,80,21,14,204,483,527,639,507
102,78,-24,-90,63,26,0,209,468,512,775,697
146,97,-48,-122,97,24,-9,195,424,531,946,912
195,141,-53,-168,124,43,-29,117,263,473,1107,1127
161,175,14,-168,73,95,-78,-29,-24,278,1195,1317
146,234,87,-190,29,161,-117,-161,-283,82,1288,1532
180,273,92,-226,43,183,-136,-292,-522,-92,1424,1781
195,278,82,-236,56,180,-156,-400,-736,-317,1512,1995
200,287,87,-244,56,187,-185,-522,-941,-585,1561,2181
239,336,97,-287,70,217,-239,-639,-1117,-790,1625,2347
307,385,78,-346,114,231,-292,-702,-1254,-976,1610,2386
346,390,43,-368,151,217,-351,-771,-1395,-1249,1464,2249
361,409,48,-385,156,229,-424,-941,-1693,-1590,1268,2093
361,405,43,-383,158,224,-488,-1166,-2083,-1893,1083,1932
341,341,0,-341,170,170,-502,-1278,-2288,-2059,868,1639
341,263,-78,-302,209,92,-492,-1268,-2318,-2161,561,1210
380,224,-156,-302,268,34,-473,-1278,-2391,-2283,204,756
409,175,-234,-292,322,-29,-448,-1254,-2430,-2337,-107,380
419,48,-370,-234,395,-161,-405,-1137,-2313,-2274,-380,82
424,-92,-517,-165,470,-305,-336,-966,-2137,-2166,-653,-219
424,-175,-600,-124,512,-387,-278,-829,-2025,-2093,-922,-507
370,-224,-595,-73,483,-409,-209,-727,-1893,-2000,-1137,-741
283,-283,-566,0,424,-424,-146,-649,-1708,-1844,-1278,-912
204,-356,-561,75,383,-458,-107,-566,-1517,-1678,-1312,-1024
165,-439,-605,136,385,-522,-82,-444,-1322,-1488,-1244,-1034
126,-492,-619,183,373,-556,-29,-287,-1093,-1259,-1102,-976
87,-483,-570,197,329,-527,0,-151,-839,-1000,-907,-868
48,-414,-463,183,256,-439,34,-63,-605,-761,-712,-722
0,-336,-336,168,168,-336,68,-14,-444,-575,-570,-610
-58,-287,-229,173,85,-258,87,9,-346,-458,-468,-575
-78,-268,-190,173,56,-229,92,14,-268,-380,-419,-551
-87,-263,-175,175,43,-219,102,24,-185,-297,-370,-517
-97,-214,-117,156,9,-165,136,58,-97,-185,-278,-434
-102,-156,-53,129,-24,-104,175,102,-4,-58,-165,-336
-112,-122,-9,117,-51,-65,175,131,58,9,-97,-283
-112,-107,4,109,-58,-51,151,136,92,48,-43,-229
-82,-78,4,80,-43,-36,156,151,126,92,19,-165
-82,-78,4,80,-43,-36,151,170,141,117,43,-141
-107,-68,39,87,-73,-14,131,161,122,112,39,-156
-82,-19,63,51,-73,21,117,136,102,102,24,-175
-92,0,92,46,-92,46,107,117,107,112,14,-185
-87,0,87,43,-87,43,107,107,112,112,4,-175
-87,0,87,43,-87,43,97,107,117,112,4,-175
-82,0,82,41,-82,41,87,97,122,112,4,-175
-73,-4,68,39,-70,31,78,97,126,117,4,-175
-48,-14,34,31,-41,9,68,117,146,131,34,-146
-39,-14,24,26,-31,4,73,122,156,151,53,-131
-29,-9,19,19,-24,4,73,126,161,161,68,-112
-24,-9,14,17,-19,2,73,126,165,165,82,-102
-29,-4,24,17,-26,9,73,126,156,165,73,-112
-34,-9,24,21,-29,7,73,126,161,175,73,-112
-29,-14,14,21,-21,0,73,126,165,180,73,-112
-29,-14,14,21,-21,0,73,126,175,185,78,-112
-39,4,43,17,-41,24,73,126,170,180,73,-107
-39,-4,34,21,-36,14,68,131,165,180,82,-107
-39,-4,34,21,-36,14,68,131,161,175,78,-112
-34,0,34,17,-34,17,63,131,151,170,73,-117
-43,14,58,14,-51,36,73,117,156,170,53,-131
-48,14,63,17,-56,39,78,117,156,170,53,-131
-48,14,63,17,-56,39,78,117,161,170,53,-136
-48,14,63,17,-56,39,73,117,161,175,53,-136
-43,0,43,21,-43,21,68,126,175,175,63,-126
-48,-14,34,31,-41,9,68,126,175,175,63,-122
-48,-19,29,34,-39,4,73,131,175,180,68,-117
-48,-14,34,31,-41,9,78,136,175,180,68,-107
-34,4,39,14,-36,21,73,126,165,180,73,-97
-29,9,39,9,-34,24,68,126,161,180,73,-97
-29,14,43,7,-36,29,63,126,161,170,63,-117
-29,19,48,4,-39,34,53,126,161,170,68,-117
-24,4,29,9,-26,17,63,136,175,161,82,-112
-19,-4,14,12,-17,4,68,136,175,161,92,-97
-19,-14,4,17,-12,-4,68,131,175,161,82,-78
-19,-19,0,19,-9,-9,68,131,175,161,82,-73
-24,-14,9,19,-17,-2,68,136,175,170,82,-87
-29,-4,24,17,-26,9,68,136,175,175,82,-97
-34,14,48,9,-41,31,68,136,175,180,82,-117
-39,24,63,7,-51,43,68,136,175,185,78,-126
-39,34,73,2,-56,53,58,146,175,175,68,-136
-34,39,73,-2,-53,56,53,141,175,175,63,-141
-34,39,73,-2,-53,56,53,141,175,165,58,-146
-34,39,73,-2,-53,56,58,141,165,165,48,-151
-29,39,68,-4,-48,53,68,136,175,170,58,-117
-24,34,58,-4,-41,46,68,136,180,180,73,-97
-19,24,43,-2,-31,34,68,146,185,185,82,-78
-14,19,34,-2,-24,26,68,146,185,190,92,-63
-34,14,48,9,-41,31,68,136,180,180,78,-82
-48,9,58,19,-53,34,68,136,175,175,73,-97
-53,4,58,24,-56,31,68,141,170,175,68,-107
-58,0,58,29,-58,29,73,146,165,170,63,-117
-43,4,48,19,-46,26,73,146,175,161,48,-131
-39,14,53,12,-46,34,68,136,175,151,39,-146
-29,19,48,4,-39,34,68,136,170,151,34,-156
-24,24,48,0,-36,36,68,136,170,151,29,-161
-29,34,63,-2,-46,48,68,136,185,165,43,-136
-34,34,68,0,-51,51,68,141,185,170,53,-117
-39,29,68,4,-53,48,68,146,190,180,63,-102
-39,19,58,9,-48,39,68,151,190,185,73,-82
-34,14,48,9,-41,31,68,141,180,190,68,-87
-29,9,39,9,-34,24,68,146,180,190,63,-97
-29,4,34,12,-31,19,68,151,180,185,63,-102
-39,4,43,17,-41,24,68,151,180,185,58,-112
-34,19,53,7,-43,36,63,151,190,175,48,-141
-34,29,63,2,-48,46,58,161,195,175,39,-156
-34,48,82,-7,-58,65,53,165,200,175,29,-165
-34,58,92,-12,-63,75,48,165,200,180,24,-185
-48,43,92,2,-70,68,39,151,195,180,19,-185
-53,39,92,7,-73,65,39,151,195,180,14,-185
-48,43,92,2,-70,68,43,156,195,180,9,-185
-53,48,102,2,-78,75,43,156,195,175,4,-190
-63,24,87,19,-75,56,48,170,209,185,4,-185
-73,14,87,29,-80,51,53,180,209,185,4,-185
-73,14,87,29,-80,51,58,180,214,190,4,-185
-78,4,82,36,-80,43,63,175,214,190,4,-180
-63,34,97,14,-80,65,68,175,219,195,9,-195
-48,48,97,0,-73,73,68,180,219,200,0,-200
-43,58,102,-7,-73,80,63,180,219,204,-9,-219
-34,73,107,-19,-70,90,63,180,219,200,-19,-229
-43,73,117,-14,-80,95,63,180,229,190,-29,-244
-43,78,122,-17,-82,100,63,190,234,190,-39,-258
-63,73,136,-4,-100,104,68,190,239,190,-43,-273
-82,73,156,4,-119,114,68,190,239,190,-48,-278
-92,68,161,12,-126,114,68,195,239,190,-39,-263
-97,53,151,21,-124,102,68,190,239,195,-43,-263
-97,58,156,19,-126,107,63,180,239,195,-48,-263
-87,58,146,14,-117,102,63,190,239,195,-53,-258
-78,73,151,2,-114,112,63,185,229,185,-48,-253
-82,73,156,4,-119,114,63,180,229,190,-48,-248
-82,73,156,4,-119,114,63,175,229,190,-48,-244
-82,73,156,4,-119,114,68,170,224,180,-53,-239
-78,97,175,-9,-126,136,58,165,224,185,-63,-253
-78,97,175,-9,-126,136,53,170,224,180,-63,-258
-78,92,170,-7,-124,131,48,175,209,175,-68,-273
-82,92,175,-4,-129,134,48,180,209,170,-68,-278
-82,97,180,-7,-131,139,63,180,209,170,-73,-278
-82,102,185,-9,-134,143,68,180,214,170,-68,-268
-82,102,185,-9,-134,143,73,180,219,170,-68,-263
-78,97,175,-9,-126,136,73,175,219,165,-63,-258
-82,82,165,0,-124,124,53,161,200,146,-68,-268
-87,82,170,2,-129,126,43,156,190,141,-63,-263
-92,87,180,2,-136,134,39,156,185,136,-63,-263
-87,87,175,0,-131,131,34,146,175,131,-58,-263
-97,78,175,9,-136,126,39,146,175,136,-39,-224
-97,73,170,12,-134,122,43,141,180,146,-14,-200
-92,78,170,7,-131,124,48,141,185,156,0,-170
-92,73,165,9,-129,119,43,156,190,161,4,-151
-78,78,156,0,-117,117,43,156,185,151,4,-156
-58,73,131,-7,-95,102,39,151,180,151,24,-141
-43,68,112,-12,-78,90,34,146,180,151,34,-136
-24,68,92,-21,-58,80,34,141,170,146,34,-131
-19,87,107,-34,-63,97,24,136,170,151,58,-117
-19,82,102,-31,-61,92,19,136,170,156,63,-102
-19,92,112,-36,-65,102,14,131,170,161,68,-87
-14,102,117,-43,-65,109,9,131,170,170,78,-78
-9,78,87,-34,-48,82,19,131,165,165,78,-73
-14,68,82,-26,-48,75,19,131,165,161,92,-68
-14,63,78,-24,-46,70,19,126,165,156,87,-63
-9,53,63,-21,-36,58,14,126,165,151,82,-63
0,43,43,-21,-21,43,14,131,165,151,92,-53
0,43,43,-21,-21,43,19,131,165,156,102,-39
-14,39,53,-12,-34,46,19,131,165,161,107,-34
-4,34,39,-14,-21,36,19,131,161,161,117,-34
4,34,29,-19,-12,31,24,136,165,165,122,-29
14,34,19,-24,-2,26,24,136,170,165,126,-14
29,34,4,-31,12,19,14,126,170,165,131,-9
29,29,0,-29,14,14,14,131,175,165,136,-4
19,19,0,-19,9,9,29,131,175,165,146,14
14,14,0,-14,7,7,34,136,175,165,151,19
9,14,4,-12,2,9,34,136,175,165,151,19
-4,14,19,-4,-12,17,34,126,175,161,151,19
0,24,24,-12,-12,24,19,136,156,161,146,0
9,34,24,-21,-7,29,19,136,156,161,141,-4
19,24,4,-21,7,14,19,136,156,161,136,-9
24,24,0,-24,12,12,19,131,156,151,131,-14
34,24,-9,-29,21,7,19,122,165,156,141,-9
29,34,4,-31,12,19,19,126,165,156,141,0
24,34,9,-29,7,21,19,126,165,161,146,4
24,34,9,-29,7,21,19,131,165,161,146,9
39,24,-14,-31,26,4,29,151,175,165,151,24
39,24,-14,-31,26,4,34,151,175,165,156,29
34,24,-9,-29,21,7,34,141,175,165,161,39
34,24,-9,-29,21,7,34,131,170,170,165,43
29,29,0,-29,14,14,19,122,165,165,165,34
34,29,-4,-31,19,12,14,122,161,156,156,29
39,19,-19,-29,29,0,9,122,156,151,156,24
43,19,-24,-31,34,-2,4,122,151,146,156,24
39,29,-9,-34,24,9,14,136,156,156,161,14
34,24,-9,-29,21,7,14,136,161,156,161,14
29,19,-9,-24,19,4,14,131,161,151,151,9
19,9,-9,-14,14,0,14,131,165,151,151,9
24,9,-14,-17,19,-2,9,131,161,156,146,4
29,14,-14,-21,21,0,9,136,161,156,146,4
34,14,-19,-24,26,-2,9,136,161,151,141,4
39,19,-19,-29,29,0,4,126,161,151,141,4
34,29,-4,-31,19,12,14,117,161,151,141,-4
29,34,4,-31,12,19,14,122,156,151,141,-4
24,39,14,-31,4,26,14,122,156,151,141,0
29,39,9,-34,9,24,14,122,156,151,141,0
29,24,-4,-26,17,9,24,126,161,141,151,4
19,9,-9,-14,14,0,29,131,161,141,151,9
19,4,-14,-12,17,-4,29,136,161,141,151,14
24,0,-24,-12,24,-12,29,146,165,151,151,24
39,19,-19,-29,29,0,43,156,180,165,156,29
39,19,-19,-29,29,0,43,156,185,170,165,34
43,9,-34,-26,39,-12,39,156,190,170,170,34
53,9,-43,-31,48,-17,34,156,190,165,165,34
43,0,-43,-21,43,-21,24,151,180,156,151,24
19,-4,-24,-7,21,-14,29,146,175,151,151,19
0,-14,-14,7,7,-14,29,141,165,151,146,9
-9,-34,-24,21,7,-29,29,136,156,156,141,0
4,0,-4,-2,4,-2,19,126,165,156,141,-4
9,24,14,-17,-2,19,19,136,165,161,146,0
24,34,9,-29,7,21,19,136,170,161,146,-4
29,39,9,-34,9,24,19,136,170,156,146,-9
19,39,19,-29,0,29,14,126,161,146,146,-4
24,43,19,-34,2,31,14,126,161,146,151,0
29,48,19,-39,4,34,19,131,161,151,156,9
29,48,19,-39,4,34,19,136,161,156,161,14
29,39,9,-34,9,24,29,151,170,180,180,39
19,34,14,-26,2,24,29,151,175,180,180,43
19,24,4,-21,7,14,29,146,175,175,180,48
19,14,-4,-17,12,4,29,146,170,175,180,48
9,24,14,-17,-2,19,19,136,161,175,175,29
14,43,29,-29,-7,36,19,131,165,175,170,24
29,58,29,-43,0,43,19,126,165,175,180,14
39,68,29,-53,4,48,19,126,170,180,180,19
43,63,19,-53,12,41,29,141,175,200,200,43
39,58,19,-48,9,39,29,151,180,200,204,68
34,73,39,-53,-2,56,19,156,185,200,209,87
58,53,-4,-56,31,24,19,161,190,200,224,107
43,73,29,-58,7,51,9,156,195,200,214,102
43,73,29,-58,7,51,14,161,200,204,214,87
39,82,43,-61,-2,63,14,156,195,214,214,73
34,92,58,-63,-12,75,14,156,195,214,214,58
53,92,39,-73,7,65,24,165,200,224,214,78
43,73,29,-58,7,51,29,175,214,234,234,102
39,58,19,-48,9,39,39,180,224,248,248,102
48,87,39,-68,4,63,34,180,219,244,248,87
68,107,39,-87,14,73,29,175,224,224,224,78
58,117,58,-87,0,87,39,185,234,229,229,87
58,117,58,-87,0,87,39,185,234,234,234,87
58,117,58,-87,0,87,39,185,234,239,239,87
58,117,58,-87,0,87,39,185,234,244,244,87
39,107,68,-73,-14,87,48,200,244,258,253,92
29,97,68,-63,-19,82,48,204,253,263,253,102
19,87,68,-53,-24,78,43,209,263,268,263,117
19,102,82,-61,-31,92,39,214,278,273,273,122
43,117,73,-80,-14,95,24,204,278,292,283,126
63,122,58,-92,2,90,9,209,283,297,292,126
87,126,39,-107,24,82,-4,214,297,307,302,141
117,131,14,-124,51,73,-19,224,307,322,317,141
107,151,43,-129,31,97,-53,244,336,341,331,161
117,151,34,-134,41,92,-68,253,351,356,341,180
141,165,24,-153,58,95,-87,263,351,356,346,190
141,175,34,-158,53,104,-107,263,351,356,351,195
122,170,48,-146,36,109,-126,253,336,346,346,185
122,165,43,-143,39,104,-131,239,322,331,331,165
122,165,43,-143,39,104,-136,234,312,322,322,156
122,170,48,-146,36,109,-136,214,292,312,317,146
117,156,39,-136,39,97,-117,200,283,297,287,126
97,136,39,-117,29,87,-107,170,258,278,273,107
68,112,43,-90,12,78,-82,146,239,263,253,97
53,107,53,-80,0,80,-53,131,214,248,244,92
68,92,24,-80,21,58,-39,126,214,253,258,87
73,82,9,-78,31,46,-34,122,200,248,258,92
73,78,4,-75,34,41,-29,122,195,248,263,97
68,78,9,-73,29,43,-19,126,185,239,258,107
58,78,19,-68,19,48,-24,112,195,224,248,97
58,73,14,-65,21,43,-24,102,185,224,248,92
58,68,9,-63,24,39,-24,97,175,224,239,87
58,63,4,-61,26,34,-34,97,170,214,239,87
58,68,9,-63,24,39,-34,102,161,219,253,102
58,73,14,-65,21,43,-39,92,161,219,253,102
53,68,14,-61,19,41,-43,87,156,214,248,102
53,68,14,-61,19,41,-43,87,156,214,248,97
63,73,9,-68,26,41,-48,82,151,209,229,92
63,73,9,-68,26,41,-48,78,136,204,229,82
63,73,9,-68,26,41,-48,78,136,195,219,73
63,73,9,-68,26,41,-43,78,136,195,219,68
53,68,14,-61,19,41,-39,82,146,200,214,68
48,53,4,-51,21,29,-29,82,146,200,209,63
39,43,4,-41,17,24,-24,82,146,190,204,53
39,39,0,-39,19,19,-19,82,146,190,204,53
39,53,14,-46,12,34,-14,87,146,195,204,48
53,53,0,-53,26,26,-19,87,146,195,204,48
39,39,0,-39,19,19,-24,87,146,185,195,43
39,34,-4,-36,21,14,-24,92,146,185,195,39
39,39,0,-39,19,19,-4,97,141,185,185,34
39,53,14,-46,12,34,4,102,141,185,185,24
19,48,29,-34,-4,39,4,107,141,180,175,9
4,43,39,-24,-17,41,14,112,146,180,170,0
0,39,39,-19,-19,39,19,117,151,195,180,14
9,48,39,-29,-14,43,24,117,161,195,180,19
14,43,29,-29,-7,36,24,117,165,195,180,19
14,24,9,-19,2,17,24,107,161,195,180,24
-4,29,34,-12,-19,31,29,112,161,204,185,34
-19,29,48,-4,-34,39,34,112,161,204,190,39
-29,34,63,-2,-46,48,39,112,161,204,195,43
-39,29,68,4,-53,48,43,112,161,204,195,48
-14,43,58,-14,-36,51,39,102,151,195,175,34
-4,34,39,-14,-21,36,39,102,151,190,170,24
9,39,29,-24,-9,34,34,102,151,185,170,14
29,43,14,-36,7,29,29,102,151,180,165,4
24,43,19,-34,2,31,29,112,151,180,165,9
9,39,29,-24,-9,34,29,112,151,180,165,14
4,39,34,-21,-14,36,29,112,151,180,165,19
0,39,39,-19,-19,39,29,112,151,180,165,24
-9,43,53,-17,-31,48,29,107,151,180,170,29
-4,43,48,-19,-26,46,29,107,156,185,170,29
-4,43,48,-19,-26,46,24,102,156,185,170,29
-4,39,43,-17,-24,41,19,92,151,185,165,29
-4,29,34,-12,-19,31,14,97,151,180,175,34
-9,34,43,-12,-26,39,19,97,151,180,170,29
-9,34,43,-12,-26,39,24,97,151,180,170,29
-9,34,43,-12,-26,39,29,97,151,180,170,29
-14,39,53,-12,-34,46,24,92,141,175,161,29
-19,39,58,-9,-39,48,29,92,141,170,165,24
-19,43,63,-12,-41,53,29,92,146,165,165,19
-4,48,53,-21,-29,51,19,92,146,161,165,14
0,48,48,-24,-24,48,39,92,146,170,165,29
4,58,53,-31,-24,56,39,92,146,170,165,29
4,58,53,-31,-24,56,39,92,146,175,165,29
0,58,58,-29,-29,58,39,92,146,175,165,24
-14,53,68,-19,-41,61,39,92,146,165,156,19
-19,73,92,-26,-56,82,39,82,141,165,146,19
-24,78,102,-26,-63,90,39,78,141,165,141,24
-34,73,107,-19,-70,90,43,78,141,165,141,24
-34,82,117,-24,-75,100,63,102,165,190,175,48
-63,58,122,2,-92,90,63,97,165,200,185,53
-48,39,87,4,-68,63,53,107,204,244,214,78
-29,48,78,-9,-53,63,53,136,253,312,273,136
-19,68,87,-24,-53,78,29,170,322,375,346,209
58,102,43,-80,7,73,24,214,419,478,468,331
122,131,9,-126,56,70,24,253,512,580,629,497
112,122,9,-117,51,65,-4,263,531,595,766,663
102,126,24,-114,39,75,-29,239,497,551,873,834
165,175,9,-170,78,92,-48,204,424,531,1034,1039
204,239,34,-222,85,136,-78,107,224,434,1185,1263
180,273,92,-226,43,183,-97,-9,-34,248,1312,1493
146,273,126,-209,9,200,-126,-131,-283,53,1424,1737
170,263,92,-217,39,178,-165,-273,-541,-151,1542,1986
244,287,43,-265,100,165,-204,-390,-756,-385,1600,2171
287,346,58,-317,114,202,-234,-492,-922,-634,1649,2337
297,405,107,-351,95,256,-287,-590,-1068,-810,1703,2474
317,424,107,-370,104,265,-351,-653,-1176,-985,1639,2435
375,429,53,-402,161,241,-400,-732,-1337,-1268,1483,2298
409,468,58,-439,175,263,-444,-922,-1673,-1600,1337,2210
390,483,92,-436,148,287,-478,-1137,-2034,-1854,1190,2078
409,419,9,-414,200,214,-512,-1210,-2181,-1991,936,1756
429,341,-87,-385,258,126,-512,-1220,-2249,-2122,590,1317
419,273,-146,-346,283,63,-492,-1220,-2332,-2244,234,893
419,175,-244,-297,331,-34,-458,-1185,-2303,-2239,-58,556
429,48,-380,-239,405,-165,-405,-1039,-2156,-2137,-322,248
434,-63,-497,-185,466,-280,-356,-878,-2010,-2059,-614,-82
395,-146,-541,-124,468,-344,-297,-780,-1927,-2034,-902,-380
312,-214,-527,-48,419,-370,-239,-697,-1805,-1961,-1137,-634
234,-283,-517,24,375,-400,-165,-610,-1620,-1786,-1249,-834
224,-326,-551,51,387,-439,-117,-507,-1429,-1581,-1234,-907
214,-361,-575,73,395,-468,-82,-385,-1224,-1400,-1156,-907
126,-434,-561,153,344,-497,-19,-229,-995,-1180,-1034,-868
39,-434,-473,197,256,-453,29,-92,-732,-932,-858,-771
-29,-356,-326,192,148,-341,53,-24,-536,-712,-673,-644
-78,-287,-209,183,65,-248,58,-4,-405,-556,-541,-551
-117,-278,-161,197,21,-219,78,9,-297,-429,-439,-488
-107,-248,-141,178,17,-195,82,24,-209,-312,-361,-434
-87,-204,-117,146,14,-161,102,34,-136,-219,-283,-380
-87,-156,-68,122,-9,-112,126,68,-48,-97,-190,-297
-82,-97,-14,90,-34,-56,126,112,43,0,-107,-229
-82,-34,48,58,-65,7,117,131,87,48,-48,-175
-102,19,122,41,-112,70,112,136,122,87,4,-131
-102,39,141,31,-122,90,117,141,156,122,39,-107
-82,9,92,36,-87,51,92,131,141,117,43,-102
-87,0,87,43,-87,43,82,112,122,112,39,-107
-73,29,102,21,-87,65,97,117,131,141,53,-87
-24,48,73,-12,-48,61,97,126,146,161,63,-58
-34,48,82,-7,-58,65,87,117,161,161,73,-58
-39,48,87,-4,-63,68,78,117,165,161,73,-58
-39,48,87,-4,-63,68,68,107,170,161,73,-58
-34,43,78,-4,-56,61,58,107,175,165,73,-58
-39,48,87,-4,-63,68,58,122,170,170,97,-39
-39,53,92,-7,-65,73,63,122,175,180,102,-34
-39,63,102,-12,-70,82,63,122,175,180,102,-24
-43,68,112,-12,-78,90,63,117,175,175,102,-24
-53,63,117,-4,-85,90,53,107,175,175,97,-29
-53,58,112,-2,-82,85,53,107,180,185,92,-34
-43,53,97,-4,-70,75,53,107,185,190,87,-39
-39,53,92,-7,-65,73,53,107,195,195,87,-43
-29,78,107,-24,-68,92,43,97,185,190,82,-43
-19,82,102,-31,-61,92,39,102,185,190,92,-39
-9,97,107,-43,-58,102,39,102,185,185,87,-39
4,117,112,-61,-53,114,34,102,180,180,82,-39
0,107,107,-53,-53,107,43,107,185,180,73,-34
-9,102,112,-46,-61,107,48,107,185,180,73,-34
-14,97,112,-41,-63,104,48,107,190,180,73,-39
-19,92,112,-36,-65,102,43,107,190,185,73,-39
-14,87,102,-36,-58,95,48,117,195,185,82,-24
-19,82,102,-31,-61,92,48,117,195,185,82,-24
-19,87,107,-34,-63,97,53,122,195,190,87,-24
-19,102,122,-41,-70,112,58,126,195,190,87,-19
-24,102,126,-39,-75,114,53,112,185,180,82,-24
-29,87,117,-29,-73,102,48,107,180,180,73,-29
-39,73,112,-17,-75,92,43,102,180,170,53,-53
-48,58,107,-4,-78,82,34,97,180,170,48,-58
-39,68,107,-14,-73,87,39,107,185,180,63,-68
-39,73,112,-17,-75,92,48,107,185,180,73,-58
-43,78,122,-17,-82,100,53,102,185,180,63,-43
-48,87,136,-19,-92,112,58,102,185,180,63,-43
-58,78,136,-9,-97,107,68,107,185,180,58,-58
-58,73,131,-7,-95,102,68,107,185,175,53,-58
-58,78,136,-9,-97,107,68,107,185,170,48,-68
-58,73,131,-7,-95,102,68,107,185,165,39,-68
-53,82,136,-14,-95,109,63,107,185,156,34,-63
-43,87,131,-21,-87,109,53,102,185,156,34,-63
-39,87,126,-24,-82,107,48,102,185,146,34,-63
-34,87,122,-26,-78,104,48,102,175,146,29,-63
-43,87,131,-21,-87,109,39,87,165,136,19,-73
-53,82,136,-14,-95,109,39,87,170,141,24,-78
-63,73,136,-4,-100,104,39,97,175,141,24,-82
-73,68,141,2,-107,104,39,97,175,141,24,-92
-68,78,146,-4,-107,112,53,102,180,141,24,-78
-68,87,156,-9,-112,122,58,107,185,146,24,-78
-58,97,156,-19,-107,126,63,117,190,156,24,-73
-48,107,156,-29,-102,131,73,126,195,161,24,-68
-48,102,151,-26,-100,126,68,122,185,151,9,-82
-48,102,151,-26,-100,126,58,107,185,141,0,-97
-43,97,141,-26,-92,119,53,102,180,141,-4,-107
-43,92,136,-24,-90,114,48,97,180,141,-9,-112
-58,82,141,-12,-100,112,48,102,175,131,-24,-122
-63,82,146,-9,-104,114,48,102,175,131,-24,-117
-68,78,146,-4,-107,112,48,102,180,136,-24,-117
-68,68,136,0,-102,102,48,102,180,136,-24,-112
-63,82,146,-9,-104,114,48,92,180,131,-29,-122
-58,87,146,-14,-102,117,48,97,180,131,-34,-126
-58,92,151,-17,-104,122,48,102,180,126,-34,-126
-68,102,170,-17,-119,136,48,102,180,126,-39,-131
-78,102,180,-12,-129,141,48,92,180,126,-43,-141
-82,97,180,-7,-131,139,48,102,185,126,-48,-146
-87,102,190,-7,-139,146,48,107,190,126,-53,-146
-92,97,190,-2,-141,143,48,107,190,131,-53,-156
-92,102,195,-4,-143,148,48,102,195,141,-68,-161
-92,107,200,-7,-146,153,48,102,195,141,-73,-165
-82,122,204,-19,-143,163,53,107,195,141,-78,-170
-82,136,219,-26,-151,178,53,107,195,136,-82,-180
-82,117,200,-17,-141,158,53,102,190,131,-92,-195
-92,112,204,-9,-148,158,53,112,190,126,-102,-204
-92,117,209,-12,-151,163,53,112,195,126,-112,-214
-97,112,209,-7,-153,161,53,107,195,122,-122,-219
-107,126,234,-9,-170,180,58,107,200,122,-126,-224
-107,126,234,-9,-170,180,58,112,200,122,-136,-229
-117,122,239,-2,-178,180,53,112,200,122,-146,-248
-122,122,244,0,-183,183,53,112,200,112,-156,-258
-107,136,244,-14,-175,190,53,122,209,122,-146,-248
-92,146,239,-26,-165,192,53,131,214,122,-156,-258
-97,146,244,-24,-170,195,58,131,219,122,-161,-268
-102,151,253,-24,-178,202,58,131,219,122,-165,-268
-126,146,273,-9,-200,209,58,117,204,112,-170,-273
-136,131,268,2,-202,200,58,112,200,107,-180,-283
-141,136,278,2,-209,207,53,102,195,97,-190,-292
-136,136,273,0,-204,204,53,112,190,87,-200,-297
-136,156,292,-9,-214,224,53,112,190,78,-204,-307
-141,161,302,-9,-222,231,53,112,190,82,-204,-307
-141,165,307,-12,-224,236,53,112,190,82,-204,-307
-141,170,312,-14,-226,241,58,112,185,73,-209,-307
-136,180,317,-21,-226,248,68,112,195,78,-200,-302
-136,175,312,-19,-224,244,63,112,195,73,-200,-297
-136,165,302,-14,-219,234,58,112,180,68,-204,-302
-141,161,302,-9,-222,231,58,112,180,63,-204,-297
-141,180,322,-19,-231,251,53,92,170,58,-214,-292
-131,190,322,-29,-226,256,48,92,165,53,-214,-287
-122,195,317,-36,-219,256,43,92,161,48,-219,-287
-107,195,302,-43,-204,248,34,87,151,39,-219,-287
-117,175,292,-29,-204,234,39,82,146,24,-219,-292
-126,170,297,-21,-212,234,34,78,141,24,-209,-283
-136,170,307,-17,-222,239,34,78,141,24,-204,-278
-136,165,302,-14,-219,234,34,68,136,24,-195,-273
-146,161,307,-7,-226,234,34,68,131,34,-190,-258
-146,161,307,-7,-226,234,34,63,131,39,-170,-248
-141,170,312,-14,-226,241,34,63,131,43,-161,-234
-141,170,312,-14,-226,241,24,78,131,43,-161,-229
-131,170,302,-19,-217,236,24,68,136,43,-141,-214
-117,170,287,-26,-202,229,19,63,131,43,-122,-200
-107,170,278,-31,-192,224,14,58,131,43,-112,-195
-92,175,268,-41,-180,222,14,53,122,39,-112,-190
-82,175,258,-46,-170,217,9,48,112,39,-97,-190
-78,161,239,-41,-158,200,9,48,112,39,-92,-180
-73,161,234,-43,-153,197,9,43,112,39,-87,-170
-63,161,224,-48,-143,192,9,43,112,43,-78,-165
-58,156,214,-48,-136,185,9,43,107,53,-82,-151
-63,156,219,-46,-141,187,9,43,107,53,-63,-146
-63,161,224,-48,-143,192,9,39,107,53,-63,-141
-58,161,219,-51,-139,190,4,39,107,53,-63,-141
-63,156,219,-46,-141,187,4,43,107,48,-63,-141
-68,151,219,-41,-143,185,9,43,107,48,-53,-126
-87,141,229,-26,-158,185,9,43,107,48,-48,-122
-82,131,214,-24,-148,173,9,43,102,43,-39,-122
-78,126,204,-24,-141,165,-4,43,92,39,-48,-131
-63,122,185,-29,-124,153,-4,39,92,39,-48,-122
-43,117,161,-36,-102,139,-14,24,87,39,-48,-122
-39,107,146,-34,-92,126,-14,24,87,39,-48,-122
-39,107,146,-34,-92,126,0,34,87,39,-39,-122
-34,112,146,-39,-90,129,4,39,87,39,-34,-117
-29,122,151,-46,-90,136,4,39,87,39,-34,-117
-34,131,165,-48,-100,148,4,29,87,34,-34,-117
-39,126,165,-43,-102,146,0,39,82,43,-24,-112
-39,131,170,-46,-104,151,0,39,87,43,-24,-112
-39,117,156,-39,-97,136,0,39,92,43,-24,-112
-43,112,156,-34,-100,134,0,34,97,34,-24,-112
-29,107,136,-39,-82,122,-9,29,92,19,-34,-117
-29,112,141,-41,-85,126,-9,29,87,19,-34,-117
-29,107,136,-39,-82,122,-9,24,82,24,-29,-122
-24,102,126,-39,-75,114,-9,24,78,24,-29,-126
-19,97,117,-39,-68,107,0,43,82,29,-19,-117
-19,102,122,-41,-70,112,4,43,87,29,-19,-117
-24,107,131,-41,-78,119,4,34,92,29,-19,-112
-24,112,136,-43,-80,124,4,24,92,34,-19,-112
-24,126,151,-51,-87,139,-4,24,87,24,-19,-112
-24,126,151,-51,-87,139,-4,24,82,19,-29,-117
-24,117,141,-46,-82,129,-4,24,78,19,-29,-122
-24,117,141,-46,-82,129,-4,24,73,19,-29,-122
-24,117,141,-46,-82,129,4,29,82,29,-24,-112
-24,112,136,-43,-80,124,4,29,82,29,-24,-112
-24,107,131,-41,-78,119,4,24,78,24,-34,-117
-29,97,126,-34,-78,112,4,24,78,24,-34,-117
-39,87,126,-24,-82,107,0,14,78,19,-39,-122
-39,92,131,-26,-85,112,0,19,73,19,-39,-122
-39,92,131,-26,-85,112,0,19,68,14,-43,-122
-39,97,136,-29,-87,117,-4,9,63,14,-43,-122
-34,112,146,-39,-90,129,-4,19,68,14,-43,-131
-29,112,141,-41,-85,126,-4,24,68,14,-43,-131
-24,112,136,-43,-80,124,-4,24,73,14,-43,-126
-9,107,117,-48,-63,112,-4,24,78,14,-43,-126
-9,117,126,-53,-68,122,-4,24,82,14,-43,-126
-19,107,126,-43,-73,117,0,24,82,14,-43,-126
-19,107,126,-43,-73,117,0,24,82,14,-43,-126
-14,107,122,-46,-68,114,0,29,87,24,-43,-122
-29,122,151,-46,-90,136,14,29,78,24,-43,-122
-39,117,156,-39,-97,136,14,29,78,24,-39,-122
-43,102,146,-29,-95,124,9,29,78,19,-39,-126
-43,97,141,-26,-92,119,4,29,73,9,-48,-131
-39,112,151,-36,-95,131,-4,19,82,19,-48,-131
-48,112,161,-31,-104,136,0,19,87,14,-43,-126
-53,107,161,-26,-107,134,0,19,87,14,-43,-126
-48,92,141,-21,-95,117,0,19,87,19,-43,-126
-43,117,161,-36,-102,139,9,19,87,24,-43,-126
-39,131,170,-46,-104,151,9,29,87,34,-39,-117
-24,131,156,-53,-90,143,9,29,92,39,-39,-117
-19,126,146,-53,-82,136,9,29,92,39,-39,-117
-29,117,146,-43,-87,131,-9,14,87,19,-43,-131
-24,112,136,-43,-80,124,-14,9,82,19,-43,-136
-19,107,126,-43,-73,117,-14,9,78,24,-43,-136
-19,97,117,-39,-68,107,-19,9,73,29,-43,-141
-19,107,126,-43,-73,117,-9,24,78,53,-24,-126
-29,122,151,-46,-90,136,-9,24,87,53,-24,-122
-29,131,161,-51,-95,146,-9,19,92,48,-24,-117
-29,141,170,-56,-100,156,-9,19,92,48,-24,-117
-29,151,180,-61,-104,165,0,29,92,43,-24,-107
-24,161,185,-68,-104,173,0,24,97,48,-24,-102
-9,165,175,-78,-92,170,0,19,97,53,-9,-102
0,165,165,-82,-82,165,0,19,102,63,-4,-87
-9,156,165,-73,-87,161,-9,19,112,73,0,-87
-19,156,175,-68,-97,165,-9,24,112,73,0,-87
-29,175,204,-73,-117,190,-19,24,112,73,0,-92
-9,161,170,-75,-90,165,-19,24,112,73,9,-97
-9,161,170,-75,-90,165,-19,34,122,82,4,-87
-4,161,165,-78,-85,163,-14,43,131,87,9,-87
-4,170,175,-82,-90,173,-14,43,131,97,14,-87
-4,180,185,-87,-95,183,-14,48,136,97,19,-87
-9,170,180,-80,-95,175,-4,58,141,117,29,-68
-14,161,175,-73,-95,168,0,58,146,117,39,-63
-14,175,190,-80,-102,183,0,63,156,122,43,-63
0,185,185,-92,-92,185,4,73,161,126,53,-58
14,190,175,-102,-80,183,14,68,170,131,48,-58
14,209,195,-112,-90,202,19,78,165,136,53,-58
29,224,195,-126,-82,209,19,87,175,136,68,-48
19,224,204,-122,-92,214,19,97,185,146,78,-39
19,224,204,-122,-92,214,19,97,185,146,78,-39
19,224,204,-122,-92,214,19,97,185,146,78,-39
19,224,204,-122,-92,214,19,97,185,146,78,-39
19,214,195,-117,-87,204,29,97,200,161,87,-29
19,214,195,-117,-87,204,29,97,204,165,87,-24
19,214,195,-117,-87,204,24,97,209,170,97,-14
29,239,209,-134,-90,224,19,97,219,175,107,-14
24,239,214,-131,-95,226,14,107,219,175,107,-19
24,239,214,-131,-95,226,0,112,224,180,117,-19
29,239,209,-134,-90,224,-14,117,239,190,126,-4
39,239,200,-139,-80,219,-29,126,248,204,141,-4
53,258,204,-156,-75,231,-63,126,258,204,146,14
68,258,190,-163,-61,224,-78,136,273,219,146,24
97,273,175,-185,-39,224,-97,146,273,219,141,24
102,283,180,-192,-39,231,-117,146,273,219,136,19
82,268,185,-175,-51,226,-131,151,283,224,146,29
73,253,180,-163,-53,217,-131,141,273,214,136,19
63,244,180,-153,-58,212,-131,141,268,209,131,19
53,239,185,-146,-65,212,-126,126,253,204,131,19
58,244,185,-151,-63,214,-122,102,239,180,117,9
48,224,175,-136,-63,200,-117,73,209,161,107,-9
29,200,170,-114,-70,185,-97,48,185,146,92,-19
24,195,170,-109,-73,183,-73,34,156,131,87,-24
48,204,156,-126,-53,180,-58,39,151,136,87,-34
53,200,146,-126,-46,173,-53,34,141,131,82,-34
53,200,146,-126,-46,173,-48,34,141,131,82,-34
48,204,156,-126,-53,180,-39,39,136,122,73,-29
43,195,151,-119,-53,173,-43,19,126,112,63,-34
39,190,151,-114,-56,170,-43,4,117,107,63,-43
34,185,151,-109,-58,168,-43,-4,107,102,53,-53
29,180,151,-104,-61,165,-53,-9,102,87,53,-58
39,170,131,-104,-46,151,-43,-4,102,87,68,-48
39,170,131,-104,-46,151,-48,-14,102,92,68,-43
34,161,126,-97,-46,143,-53,-19,97,92,63,-39
34,156,122,-95,-43,139,-53,-19,97,97,63,-39
34,161,126,-97,-46,143,-48,-24,82,82,43,-43
34,161,126,-97,-46,143,-48,-29,68,78,43,-53
34,161,126,-97,-46,143,-48,-29,68,68,34,-63
34,161,126,-97,-46,143,-43,-29,68,68,34,-68
24,151,126,-87,-51,139,-53,-34,68,63,29,-68
19,141,122,-80,-51,131,-48,-34,68,63,24,-73
9,136,126,-73,-58,131,-48,-34,68,53,19,-82
9,136,126,-73,-58,131,-48,-34,68,53,19,-82
9,146,136,-78,-63,141,-29,-29,78,58,19,-78
24,151,126,-87,-51,139,-29,-29,78,58,19,-78
9,141,131,-75,-61,136,-29,-29,78,48,9,-82
9,141,131,-75,-61,136,-24,-24,78,48,9,-87
0,131,131,-65,-65,131,-24,-29,73,39,0,-97
0,131,131,-65,-65,131,-14,-24,73,39,0,-102
-19,112,131,-46,-75,122,-14,-19,73,34,-9,-112
-34,92,126,-29,-80,109,-4,-14,78,34,-14,-117
-34,107,141,-36,-87,124,9,0,78,39,-4,-107
-19,126,146,-53,-82,136,14,0,82,39,-4,-107
-9,131,141,-61,-75,136,14,0,82,39,-4,-112
-4,122,126,-58,-65,124,14,-9,73,39,-4,-112
-19,126,146,-53,-82,136,4,-14,73,29,-14,-117
-29,126,156,-48,-92,141,4,-14,73,29,-14,-117
-34,131,165,-48,-100,148,4,-14,73,29,-14,-117
-39,126,165,-43,-102,146,4,-14,73,29,-19,-117
-39,131,170,-46,-104,151,14,-14,73,34,-14,-112
-43,122,165,-39,-104,143,19,-14,73,34,-14,-112
-43,126,170,-41,-107,148,19,-14,73,34,-9,-112
-39,131,170,-46,-104,151,19,-14,73,34,-9,-112
-48,122,170,-36,-109,146,19,-14,63,34,-19,-122
-58,117,175,-29,-117,146,19,-14,63,34,-19,-122
-58,117,175,-29,-117,146,19,-14,63,34,-19,-122
-58,117,175,-29,-117,146,19,-14,63,34,-19,-122
-48,122,170,-36,-109,146,14,-14,63,24,-14,-117
-43,122,165,-39,-104,143,19,-9,68,29,-14,-117
-43,122,165,-39,-104,143,19,-9,68,29,-14,-117
-43,117,161,-36,-102,139,19,-14,63,29,-19,-117
-34,117,151,-41,-92,134,14,-9,73,29,-19,-112
-39,122,161,-41,-100,141,19,-9,73,34,-24,-117
-39,122,161,-41,-100,141,24,-9,73,39,-24,-117
-39,122,161,-41,-100,141,29,-9,73,43,-24,-117
-53,107,161,-26,-107,134,24,-14,63,34,-24,-122
-68,97,165,-14,-117,131,29,-14,63,34,-19,-122
-78,92,170,-7,-124,131,29,-14,68,34,-19,-122
-73,87,161,-7,-117,124,19,-14,68,34,-19,-122
-53,92,146,-19,-100,119,19,-14,68,34,-19,-117
-43,107,151,-31,-97,129,19,-14,68,34,-19,-117
-39,112,151,-36,-95,131,19,-14,68,39,-19,-117
-39,117,156,-39,-97,136,19,-14,68,39,-19,-122
-39,131,170,-46,-104,151,29,-4,78,48,-14,-117
-39,161,200,-61,-119,180,29,-14,73,48,-19,-117
-39,175,214,-68,-126,195,29,-19,73,48,-19,-112
-43,180,224,-68,-134,202,34,-19,73,48,-14,-112
-43,170,214,-63,-129,192,24,-34,68,43,-19,-117
-63,156,219,-46,-141,187,34,-19,87,63,-9,-112
-68,136,204,-34,-136,170,34,-19,117,87,0,-97
-58,136,195,-39,-126,165,24,19,165,136,39,-78
-39,146,185,-53,-112,165,19,63,234,209,112,-14
-9,141,151,-65,-80,146,4,126,361,302,214,68
4,151,146,-78,-70,148,4,204,473,405,366,204
43,190,146,-117,-51,168,4,214,492,448,522,361
92,224,131,-158,-19,178,-19,190,429,434,649,512
97,234,136,-165,-19,185,-39,126,336,434,790,668
107,248,141,-178,-17,195,-68,0,107,385,941,854
102,273,170,-187,-34,222,-87,-165,-209,278,1078,1034
97,312,214,-204,-58,263,-97,-317,-478,180,1249,1249
131,351,219,-241,-43,285,-126,-448,-727,73,1444,1488
195,356,161,-275,17,258,-185,-585,-971,-112,1600,1683
209,366,156,-287,26,261,-244,-697,-1176,-341,1708,1859
229,414,185,-322,21,300,-297,-795,-1342,-497,1849,2034
317,453,136,-385,90,295,-361,-868,-1488,-653,1854,2064
366,448,82,-407,141,265,-419,-976,-1698,-927,1668,1898
361,458,97,-409,131,278,-473,-1195,-2025,-1259,1473,1732
370,434,63,-402,153,248,-527,-1429,-2386,-1503,1366,1600
409,370,-39,-390,224,165,-561,-1532,-2562,-1678,1141,1337
439,283,-156,-361,297,63,-561,-1522,-2601,-1830,775,927
439,185,-253,-312,346,-34,-541,-1532,-2654,-1981,390,522
448,97,-351,-273,400,-126,-517,-1507,-2625,-2044,78,204
488,-9,-497,-239,492,-253,-463,-1390,-2479,-2000,-214,-53
512,-122,-634,-195,573,-378,-405,-1229,-2322,-1991,-575,-336
473,-204,-678,-134,575,-441,-356,-1102,-2210,-2005,-922,-605
409,-263,-673,-73,541,-468,-278,-1000,-2059,-1952,-1166,-810
341,-341,-683,0,512,-512,-195,-883,-1854,-1834,-1317,-980
263,-405,-668,70,466,-536,-146,-771,-1654,-1688,-1351,-1073
195,-478,-673,141,434,-575,-102,-600,-1420,-1507,-1283,-1073
126,-551,-678,212,402,-614,-48,-405,-1161,-1288,-1161,-1024
29,-541,-570,256,300,-556,-9,-268,-907,-1049,-1005,-936
-29,-453,-424,241,197,-439,4,-180,-683,-839,-839,-819
-29,-307,-278,168,124,-292,39,-122,-522,-663,-697,-707
-39,-219,-180,129,70,-200,58,-87,-395,-517,-595,-624
-97,-219,-122,158,12,-170,73,-73,-307,-419,-517,-570
-146,-224,-78,185,-34,-151,73,-73,-253,-346,-458,-536
-146,-165,-19,156,-63,-92,97,-29,-156,-263,-375,-473
-151,-97,53,124,-102,-21,126,14,-63,-156,-292,-405
-141,-63,78,102,-109,7,126,14,-9,-97,-244,-351
-92,-9,82,51,-87,36,112,19,24,-58,-190,-317
-102,19,122,41,-112,70,87,24,48,-14,-165,-292
-122,39,161,41,-141,100,82,34,63,9,-141,-258
-97,68,165,14,-131,117,82,24,63,14,-126,-244
-73,87,161,-7,-117,124,78,19,63,24,-122,-244
-73,78,151,-2,-112,114,78,19,68,24,-122,-244
-78,73,151,2,-114,112,78,19,82,43,-112,-239
-87,68,156,9,-122,112,68,19,87,43,-112,-234
-92,63,156,14,-124,109,58,9,92,43,-112,-229
-92,53,146,19,-119,100,48,9,97,48,-112,-224
-92,43,136,24,-114,90,43,14,92,43,-107,-219
-97,43,141,26,-119,92,43,14,97,53,-102,-219
-102,48,151,26,-126,100,39,14,97,53,-102,-214
-112,48,161,31,-136,104,34,9,97,48,-102,-219
-97,63,161,17,-129,112,39,14,97,58,-92,-219
-92,68,161,12,-126,114,43,19,102,68,-92,-219
-78,73,151,2,-114,112,48,24,107,73,-92,-219
-68,82,151,-7,-109,117,53,29,117,78,-87,-219
-78,92,170,-7,-124,131,43,19,117,68,-92,-209
-78,82,161,-2,-119,122,39,24,117,73,-82,-204
-78,82,161,-2,-119,122,39,24,117,73,-87,-204
-73,87,161,-7,-117,124,34,24,112,73,-92,-204
-82,82,165,0,-124,124,43,19,117,73,-92,-209
-87,82,170,2,-129,126,48,19,117,73,-92,-209
-87,82,170,2,-129,126,48,19,122,73,-92,-214
-87,82,170,2,-129,126,43,19,122,78,-92,-214
-92,63,156,14,-124,109,39,19,117,68,-92,-209
-97,53,151,21,-124,102,39,19,117,68,-92,-209
-97,53,151,21,-124,102,43,24,117,73,-87,-209
-97,63,161,17,-129,112,48,29,117,73,-87,-204
-102,78,180,12,-141,129,39,39,126,73,-87,-204
-97,78,175,9,-136,126,39,39,122,73,-92,-204
-97,78,175,9,-136,126,39,39,122,63,-107,-224
-97,78,175,9,-136,126,34,39,122,63,-107,-224
-87,78,165,4,-126,122,34,34,117,63,-112,-224
-87,73,161,7,-124,117,39,29,117,63,-102,-214
-92,68,161,12,-126,114,39,19,117,63,-112,-200
-97,68,165,14,-131,117,39,14,117,63,-112,-200
-112,53,165,29,-139,109,39,24,126,68,-102,-204
-117,53,170,31,-143,112,39,29,126,68,-102,-204
-122,63,185,29,-153,124,39,34,126,68,-102,-214
-126,63,190,31,-158,126,39,39,126,68,-107,-214
-126,73,200,26,-163,136,43,48,126,78,-102,-209
-122,78,200,21,-161,139,43,43,126,78,-102,-209
-122,78,200,21,-161,139,48,43,126,68,-102,-209
-122,78,200,21,-161,139,58,43,117,68,-107,-209
-112,78,190,17,-151,134,43,34,117,68,-112,-209
-112,73,185,19,-148,129,39,29,122,73,-112,-214
-112,63,175,24,-143,119,34,34,126,73,-117,-219
-112,58,170,26,-141,114,29,29,126,73,-122,-229
-126,48,175,39,-151,112,29,19,117,68,-131,-229
-146,39,185,53,-165,112,29,19,117,68,-131,-234
-156,29,185,63,-170,107,29,24,117,73,-131,-234
-165,19,185,73,-175,102,34,29,117,73,-131,-234
-151,29,180,61,-165,104,34,39,126,82,-136,-239
-136,43,180,46,-158,112,29,29,126,73,-136,-244
-117,53,170,31,-143,112,29,29,122,73,-131,-244
-102,63,165,19,-134,114,29,29,122,73,-126,-239
-112,63,175,24,-143,119,39,24,117,63,-136,-244
-122,63,185,29,-153,124,39,24,117,63,-141,-244
-131,58,190,36,-161,124,39,24,122,68,-146,-248
-136,48,185,43,-161,117,39,24,122,68,-151,-248
-141,48,190,46,-165,119,29,24,122,63,-146,-239
-136,48,185,43,-161,117,29,29,122,63,-151,-244
-136,48,185,43,-161,117,29,34,122,58,-151,-244
-146,53,200,46,-173,126,29,34,122,58,-156,-248
-165,43,209,61,-187,126,29,24,131,68,-170,-258
-170,39,209,65,-190,124,29,34,136,68,-175,-263
-175,43,219,65,-197,131,29,39,141,68,-180,-263
-180,39,219,70,-200,129,29,39,141,73,-180,-273
-170,39,209,65,-190,124,29,34,136,63,-185,-268
-170,39,209,65,-190,124,29,34,136,63,-190,-273
-161,48,209,56,-185,129,34,39,136,63,-195,-278
-161,58,219,51,-190,139,34,39,136,58,-200,-287
-180,34,214,73,-197,124,34,43,141,68,-204,-297
-190,34,224,78,-207,129,34,53,141,68,-209,-302
-190,43,234,73,-212,139,34,53,146,73,-214,-307
-195,43,239,75,-217,141,34,48,146,73,-219,-307
-195,39,234,78,-214,136,29,48,151,63,-224,-312
-195,39,234,78,-214,136,29,53,151,63,-234,-317
-204,34,239,85,-222,136,24,53,151,63,-244,-336
-209,34,244,87,-226,139,24,53,151,53,-253,-346
-209,29,239,90,-224,134,29,63,156,63,-244,-331
-200,39,239,80,-219,139,34,73,165,63,-253,-336
-209,39,248,85,-229,143,43,73,175,63,-258,-341
-219,43,263,87,-241,153,48,73,180,63,-263,-336
-224,58,283,82,-253,170,39,78,175,58,-273,-346
-224,53,278,85,-251,165,39,73,170,58,-278,-351
-219,68,287,75,-253,178,34,63,165,53,-283,-356
-204,78,283,63,-244,180,34,73,161,48,-287,-356
-214,73,287,70,-251,180,34,73,161,39,-283,-356
-229,63,292,82,-261,178,34,73,161,43,-283,-356
-239,53,292,92,-265,173,34,73,161,43,-283,-356
-248,43,292,102,-270,168,39,73,156,34,-287,-356
-244,48,292,97,-268,170,34,58,151,19,-292,-366
-244,39,283,102,-263,161,24,53,146,14,-297,-366
-244,24,268,109,-256,146,14,48,126,9,-307,-375
-248,14,263,117,-256,139,9,43,122,4,-312,-375
-244,29,273,107,-258,151,14,48,122,9,-302,-356
-239,43,283,97,-261,163,19,53,126,14,-292,-346
-234,53,287,90,-261,170,24,58,131,19,-287,-341
-224,58,283,82,-253,170,24,58,131,19,-278,-336
-224,53,278,85,-251,165,9,43,117,4,-278,-341
-224,53,278,85,-251,165,4,39,112,4,-268,-331
-224,58,283,82,-253,170,4,39,112,4,-263,-326
-214,58,273,78,-244,165,4,29,107,4,-253,-322
-204,43,248,80,-226,146,4,29,102,14,-248,-307
-204,43,248,80,-226,146,4,24,102,19,-229,-297
-200,53,253,73,-226,153,4,24,102,24,-219,-283
-200,53,253,73,-226,153,-4,39,102,24,-219,-278
-204,39,244,82,-224,141,4,34,97,24,-200,-263
-204,34,239,85,-222,136,0,24,92,24,-180,-248
-209,29,239,90,-224,134,-4,14,92,24,-170,-244
-209,29,239,90,-224,134,-4,4,82,19,-170,-239
-190,39,229,75,-209,134,-9,9,73,19,-156,-239
-185,24,209,80,-197,117,-9,9,73,19,-151,-229
-180,24,204,78,-192,114,-9,4,73,19,-146,-219
-170,24,195,73,-183,109,-9,4,73,24,-136,-214
-161,14,175,73,-168,95,-9,4,78,34,-131,-209
-161,9,170,75,-165,90,-9,4,78,34,-112,-204
-156,9,165,73,-161,87,-9,0,78,34,-112,-200
-146,4,151,70,-148,78,-14,0,78,34,-112,-200
-156,0,156,78,-156,78,-19,0,73,19,-117,-209
-165,-4,161,85,-163,78,-19,-4,68,19,-112,-195
-190,-14,175,102,-183,80,-24,-9,63,19,-112,-190
-190,-24,165,107,-178,70,-29,-14,53,14,-107,-190
-175,-34,141,104,-158,53,-29,-9,63,14,-102,-180
-161,-34,126,97,-143,46,-24,-9,63,19,-97,-170
-141,-34,107,87,-124,36,-29,-19,58,24,-92,-170
-136,-39,97,87,-117,29,-24,-14,58,29,-87,-170
-136,-34,102,85,-119,34,-19,-4,68,29,-87,-170
-131,-34,97,82,-114,31,-14,0,68,29,-82,-165
-126,-29,97,78,-112,34,-14,0,68,29,-82,-165
-131,-24,107,78,-119,41,-14,-9,68,24,-82,-165
-136,-39,97,87,-117,29,-19,-9,48,24,-82,-161
-136,-34,102,85,-119,34,-19,-9,48,24,-82,-161
-136,-48,87,92,-112,19,-19,-9,48,24,-82,-161
-141,-53,87,97,-114,17,-19,-14,48,14,-82,-161
-131,-63,68,97,-100,2,-29,-24,48,9,-82,-170
-136,-63,73,100,-104,4,-29,-19,48,9,-82,-165
-141,-73,68,107,-104,-2,-29,-19,48,14,-78,-165
-141,-82,58,112,-100,-12,-29,-14,48,14,-78,-165
-126,-82,43,104,-85,-19,-19,-14,48,0,-78,-165
-126,-82,43,104,-85,-19,-14,-14,48,0,-78,-165
-131,-82,48,107,-90,-17,-14,-24,48,0,-78,-161
-131,-82,48,107,-90,-17,-14,-34,43,4,-78,-161
-122,-63,58,92,-90,-2,-14,-24,53,14,-68,-151
-112,-58,53,85,-82,-2,-14,-24,53,9,-78,-156
-102,-63,39,82,-70,-12,-14,-24,53,9,-78,-161
-92,-58,34,75,-63,-12,-14,-24,53,9,-78,-161
-102,-68,34,85,-68,-17,-14,-9,53,9,-73,-161
-112,-73,39,92,-75,-17,-14,-9,53,9,-73,-161
-122,-78,43,100,-82,-17,-14,-14,48,4,-82,-165
-136,-87,48,112,-92,-19,-14,-14,48,4,-82,-165
-131,-97,34,114,-82,-31,-19,-24,43,9,-87,-161
-126,-92,34,109,-80,-29,-19,-19,43,9,-87,-161
-122,-92,29,107,-75,-31,-19,-19,43,4,-92,-161
-117,-87,29,102,-73,-29,-24,-29,43,4,-92,-161
-117,-82,34,100,-75,-24,-19,-24,48,14,-87,-161
-117,-82,34,100,-75,-24,-14,-14,48,14,-82,-161
-117,-82,34,100,-75,-24,-9,-9,53,14,-78,-156
-107,-87,19,97,-63,-34,-4,-4,58,14,-73,-156
-131,-92,39,112,-85,-26,-9,-9,58,14,-78,-161
-146,-107,39,126,-92,-34,-9,-14,53,14,-82,-165
-151,-112,39,131,-95,-36,-14,-19,48,14,-87,-170
-151,-117,34,134,-92,-41,-19,-19,48,24,-92,-170
-131,-92,39,112,-85,-26,-4,-9,58,24,-82,-170
-126,-87,39,107,-82,-24,-4,-9,58,24,-78,-170
-117,-92,24,104,-70,-34,-9,-9,58,19,-78,-175
-102,-87,14,95,-58,-36,-14,-9,53,9,-87,-180
-117,-97,19,107,-68,-39,-4,-9,63,19,-97,-170
-136,-102,34,119,-85,-34,0,-9,68,14,-92,-165
-151,-112,39,131,-95,-36,0,-9,68,14,-92,-165
-156,-131,24,143,-90,-53,0,-9,68,19,-92,-165
-151,-112,39,131,-95,-36,-9,-9,58,14,-82,-170
-146,-92,53,119,-100,-19,-9,0,58,24,-78,-165
-131,-87,43,109,-87,-21,-9,0,63,29,-78,-170
-126,-87,39,107,-82,-24,-9,0,63,29,-78,-175
-131,-102,29,117,-80,-36,-4,-4,63,9,-92,-175
-131,-102,29,117,-80,-36,-4,-9,63,9,-92,-175
-131,-102,29,117,-80,-36,0,-9,63,14,-92,-170
-136,-107,29,122,-82,-39,0,-9,63,19,-92,-170
-136,-117,19,126,-78,-48,-9,-4,63,24,-92,-170
-156,-122,34,139,-95,-43,-9,-4,68,24,-92,-170
