I,II,III,aVR,aVL,aVF,V1,V2,V3,V4,V5,V6
-107,-78,29,92,-68,-24,-48,68,-19,-29,-1268,-87
-109,-79,30,94,-69,-24,-44,68,-17,-28,-1269,-87
-111,-81,30,96,-70,-25,-39,68,-14,-28,-1268,-87
-114,-84,30,99,-72,-27,-33,67,-10,-29,-1266,-86
-116,-86,30,101,-73,-28,-29,67,-9,-29,-1267,-86
-117,-87,30,102,-73,-28,-28,68,-8,-28,-1273,-87
-117,-87,30,102,-73,-28,-28,68,-8,-28,-1282,-87
-116,-86,30,101,-73,-28,-29,67,-9,-29,-1293,-86
-116,-86,30,101,-73,-28,-29,67,-9,-29,-1298,-86
-119,-87,32,103,-75,-27,-28,68,-8,-28,-1292,-87
-121,-87,34,104,-77,-26,-28,68,-8,-28,-1283,-87
-124,-86,38,105,-81,-24,-29,67,-9,-29,-1275,-86
-125,-86,39,105,-82,-23,-29,67,-9,-29,-1268,-86
-126,-86,40,106,-83,-23,-28,68,-8,-28,-1258,-87
-126,-86,40,106,-83,-23,-28,68,-8,-28,-1249,-87
-125,-87,38,106,-81,-24,-29,67,-9,-29,-1239,-86
-125,-87,38,106,-81,-24,-29,67,-9,-29,-1229,-86
-126,-86,40,106,-83,-23,-27,70,-6,-26,-1214,-88
-126,-86,40,106,-83,-23,-24,72,-4,-24,-1200,-91
-125,-87,38,106,-81,-24,-21,75,-1,-21,-1186,-94
-125,-87,38,106,-81,-24,-19,77,0,-19,-1171,-96
-128,-86,42,107,-85,-22,-18,78,0,-16,-1149,-97
-130,-86,44,108,-87,-21,-18,78,0,-14,-1127,-97
-133,-89,44,111,-88,-22,-19,77,0,-12,-1106,-96
-135,-87,48,111,-91,-19,-19,77,0,-9,-1083,-96
-136,-74,62,105,-99,-6,-17,82,3,-3,-1054,-97
-136,-58,78,97,-107,10,-14,86,8,3,-1024,-97
-133,-43,90,88,-111,23,-8,89,13,11,-996,-94
-131,-29,102,80,-116,36,-4,91,18,18,-971,-92
-130,-13,117,71,-123,52,-1,96,26,27,-944,-90
-130,0,130,65,-130,65,0,101,33,33,-922,-91
-131,5,136,63,-133,70,0,107,40,36,-905,-94
-131,8,139,61,-135,73,3,111,47,38,-888,-96
-130,16,146,57,-138,81,11,117,56,43,-862,-96
-130,28,158,51,-144,93,18,121,62,47,-834,-96
-132,44,176,44,-154,110,23,126,65,52,-808,-102
-131,57,188,37,-159,122,24,130,67,57,-785,-106
-123,66,189,28,-156,127,19,136,74,65,-762,-103
-117,72,189,22,-153,130,14,140,81,72,-741,-97
-115,80,195,17,-155,137,12,144,86,77,-723,-95
-116,86,202,15,-159,144,13,150,87,78,-707,-96
-116,88,204,14,-160,146,17,159,83,76,-692,-96
-116,87,203,14,-159,145,19,161,78,73,-678,-96
-123,87,210,18,-166,148,14,145,72,67,-664,-98
-130,91,221,19,-175,156,9,126,68,63,-653,-101
-136,101,237,17,-186,169,6,116,66,60,-645,-104
-140,111,251,14,-195,181,4,107,63,58,-639,-106
-147,117,264,15,-205,190,-2,88,55,55,-631,-107
-150,121,271,14,-210,196,-13,68,48,53,-619,-107
-148,128,276,10,-212,202,-31,53,43,52,-601,-103
-146,135,281,5,-213,208,-47,43,39,52,-585,-101
-146,140,286,3,-216,213,-56,32,33,52,-574,-103
-146,145,291,0,-218,218,-62,24,29,52,-561,-106
-139,153,292,-7,-215,222,-70,19,27,55,-534,-107
-131,164,295,-16,-213,229,-77,18,28,57,-502,-107
-127,176,303,-24,-215,239,-80,21,32,60,-473,-106
-122,175,297,-26,-209,236,-81,23,34,62,-444,-106
-110,152,262,-21,-186,207,-86,22,30,65,-410,-107
-97,122,219,-12,-158,170,-91,19,24,67,-375,-107
-89,102,191,-6,-140,146,-97,16,18,70,-343,-106
-87,92,179,-2,-133,135,-101,14,14,72,-312,-106
-87,85,172,1,-129,128,-106,11,11,77,-279,-107
-87,78,165,4,-126,121,-111,9,9,81,-244,-107
-82,67,149,7,-115,108,-117,7,6,85,-208,-104
-81,53,134,14,-107,93,-117,8,4,87,-175,-102
-91,37,128,27,-109,82,-103,17,3,83,-146,-99
-106,24,130,41,-118,77,-82,28,3,78,-122,-97
-121,14,135,53,-128,74,-62,39,4,72,-100,-95
-130,4,134,63,-132,69,-48,47,3,68,-78,-96
-133,-9,124,71,-128,57,-40,52,4,64,-53,-102
-135,-23,112,79,-123,44,-34,57,4,63,-24,-106
-142,-33,109,87,-125,38,-26,65,1,61,8,-107
-150,-42,108,96,-129,33,-19,68,-3,58,33,-106
-155,-56,99,105,-127,21,-15,60,-14,50,41,-109
-156,-72,84,114,-120,6,-14,48,-28,39,42,-111
-155,-87,68,121,-111,-9,-11,38,-43,27,51,-112
-155,-101,54,128,-104,-23,-9,34,-52,19,62,-111
-160,-117,43,138,-101,-37,-9,33,-54,15,71,-113
-169,-135,34,152,-101,-50,-9,33,-53,14,81,-116
-180,-152,28,166,-104,-62,-6,33,-52,13,97,-120
-185,-160,25,172,-105,-67,-4,33,-52,13,111,-121
-178,-154,24,166,-101,-65,-3,36,-53,14,118,-122
-165,-141,24,153,-94,-58,-4,38,-53,14,121,-121
-153,-130,23,141,-88,-53,-1,39,-52,13,126,-122
-146,-126,20,136,-83,-53,0,39,-52,13,135,-122
-144,-127,17,135,-80,-55,-1,38,-55,14,148,-119
-145,-130,15,137,-80,-57,-3,39,-57,14,160,-117
-147,-133,14,140,-80,-59,-4,38,-58,11,168,-115
-150,-135,15,142,-82,-60,-4,38,-58,9,174,-116
-155,-140,15,147,-85,-62,-1,40,-57,9,186,-119
-160,-145,15,152,-87,-65,0,42,-57,9,199,-121
-164,-148,16,156,-90,-66,0,43,-59,5,211,-122
-165,-150,15,157,-90,-67,0,43,-62,3,223,-122
-163,-153,10,158,-86,-71,0,42,-66,7,237,-121
-161,-155,6,158,-83,-74,0,42,-67,13,252,-121
-160,-156,4,158,-82,-76,0,43,-67,18,268,-123
-161,-156,5,158,-83,-75,0,43,-67,19,282,-125
-160,-155,5,157,-82,-75,0,40,-72,15,291,-128
-160,-155,5,157,-82,-75,0,38,-77,9,296,-130
-166,-157,9,161,-87,-74,0,39,-81,3,303,-131
-169,-156,13,162,-91,-71,0,34,-86,0,311,-130
-167,-150,17,158,-92,-66,-3,16,-97,0,323,-132
-161,-146,15,153,-88,-65,-8,-3,-106,0,335,-135
-155,-146,9,150,-82,-68,-12,-2,-104,3,346,-142
-146,-146,0,146,-73,-73,0,83,-59,18,360,-150
-130,-137,-7,133,-61,-72,35,288,46,54,383,-158
-117,-117,0,117,-58,-58,67,475,162,101,413,-161
-113,-87,26,100,-69,-30,63,491,230,143,448,-155
-116,-53,63,84,-89,5,20,298,225,169,482,-155
-120,-23,97,71,-108,37,-52,-78,145,175,510,-172
-122,8,130,57,-126,69,-134,-470,59,184,545,-189
-118,49,167,34,-142,108,-203,-720,34,220,594,-188
-112,100,212,6,-162,156,-256,-865,52,276,647,-184
-103,158,261,-27,-182,209,-296,-986,76,337,692,-193
-92,217,309,-62,-200,263,-339,-1113,91,403,739,-200
-77,270,347,-96,-212,308,-402,-1264,84,471,800,-190
-63,301,364,-119,-213,332,-481,-1449,30,526,856,-194
-55,299,354,-122,-204,326,-570,-1672,-80,556,893,-236
-48,287,335,-119,-191,311,-670,-1906,-201,588,930,-277
-36,294,330,-129,-183,312,-781,-2116,-285,651,995,-277
-14,329,343,-157,-178,336,-894,-2284,-349,730,1080,-277
20,395,375,-207,-177,385,-999,-2402,-418,808,1178,-321
66,480,414,-273,-174,447,-1099,-2486,-467,904,1298,-374
119,577,458,-348,-169,517,-1197,-2551,-466,1042,1453,-387
178,688,510,-433,-166,599,-1285,-2600,-420,1233,1648,-357
240,819,579,-529,-169,699,-1359,-2625,-346,1472,1878,-299
295,962,667,-628,-186,814,-1418,-2620,-260,1711,2107,-258
335,1109,774,-722,-219,941,-1466,-2582,-180,1900,2303,-265
365,1255,890,-810,-262,1072,-1506,-2537,-131,2040,2474,-249
389,1392,1003,-890,-307,1197,-1538,-2509,-131,2145,2633,-148
404,1514,1110,-959,-353,1312,-1555,-2475,-160,2213,2763,-54
404,1619,1215,-1011,-405,1417,-1551,-2418,-199,2235,2843,-54
385,1724,1339,-1054,-477,1531,-1542,-2385,-288,2178,2873,-49
347,1844,1497,-1095,-575,1670,-1543,-2420,-463,2017,2857,65
298,1963,1665,-1130,-683,1814,-1542,-2477,-685,1778,2793,197
244,2046,1802,-1145,-779,1924,-1517,-2492,-899,1498,2673,230
181,2018,1837,-1099,-828,1927,-1446,-2423,-1059,1188,2470,196
105,1815,1710,-960,-802,1762,-1313,-2246,-1132,861,2172,156
30,1488,1458,-759,-714,1473,-1137,-1979,-1118,568,1829,131
-25,1114,1139,-544,-582,1126,-944,-1654,-1033,348,1498,118
-66,769,835,-351,-450,802,-765,-1335,-929,147,1170,56
-99,511,610,-206,-354,560,-623,-1076,-850,-88,837,-95
-121,335,456,-107,-288,395,-510,-868,-773,-274,566,-217
-133,217,350,-42,-241,283,-409,-689,-671,-325,423,-195
-140,137,277,1,-208,207,-327,-544,-568,-302,362,-123
-149,77,226,36,-187,151,-272,-439,-497,-291,318,-119
-160,20,180,70,-170,100,-230,-358,-449,-292,283,-150
-170,-40,130,105,-150,45,-187,-283,-405,-284,262,-155
-174,-95,79,134,-126,-8,-142,-206,-352,-263,253,-146
-171,-132,39,151,-105,-46,-95,-125,-284,-229,249,-145
-161,-155,6,158,-83,-74,-54,-50,-215,-195,248,-150
-150,-169,-19,159,-65,-94,-23,11,-162,-175,244,-152
-141,-179,-38,160,-51,-108,0,61,-123,-165,239,-151
-136,-188,-52,162,-42,-120,19,102,-92,-155,231,-150
-136,-194,-58,165,-39,-126,38,135,-68,-146,224,-151
-135,-199,-64,167,-35,-131,55,159,-48,-136,218,-150
-135,-200,-65,167,-35,-132,67,179,-29,-126,214,-150
-135,-196,-61,165,-37,-128,74,196,-9,-114,210,-152
-135,-190,-55,162,-40,-122,81,213,8,-102,208,-155
-136,-184,-48,160,-44,-116,92,230,21,-90,209,-158
-136,-180,-44,158,-46,-112,101,243,28,-86,204,-160
-135,-177,-42,156,-46,-109,103,247,30,-96,185,-163
-135,-175,-40,155,-47,-107,102,247,29,-111,161,-164
-138,-172,-34,155,-52,-103,101,250,28,-120,143,-165
-140,-170,-30,155,-55,-100,101,252,28,-122,131,-165
-141,-169,-28,155,-56,-98,104,253,32,-116,121,-163
-141,-169,-28,155,-56,-98,106,257,38,-107,112,-161
-141,-170,-29,155,-56,-99,109,267,46,-98,102,-160
-141,-170,-29,155,-56,-99,111,277,52,-96,92,-160
-138,-170,-32,154,-53,-101,112,279,54,-107,83,-162
-136,-170,-34,153,-51,-102,112,278,53,-121,73,-164
-134,-169,-35,151,-49,-102,112,277,52,-129,62,-167
-135,-169,-34,152,-50,-101,112,278,52,-131,53,-169
-140,-171,-31,155,-54,-101,111,277,56,-129,49,-170
-145,-174,-29,159,-58,-101,111,277,62,-126,48,-170
-149,-177,-28,163,-60,-102,114,282,71,-121,45,-169
-150,-179,-29,164,-60,-104,116,286,77,-117,43,-169
-151,-180,-29,165,-61,-104,117,287,79,-116,42,-170
-151,-179,-28,165,-61,-103,117,287,78,-116,43,-170
-150,-180,-30,165,-60,-105,116,287,77,-117,41,-169
-150,-180,-30,165,-60,-105,116,287,77,-117,39,-170
-151,-177,-26,164,-62,-101,117,285,79,-115,36,-169
-151,-175,-24,163,-63,-99,117,286,81,-112,34,-169
-149,-174,-25,161,-62,-99,116,293,84,-106,33,-170
-146,-174,-28,160,-59,-101,116,301,86,-102,33,-170
-143,-176,-33,159,-55,-104,120,304,91,-101,34,-169
-141,-175,-34,158,-53,-104,125,306,96,-102,34,-169
-140,-169,-29,154,-55,-99,129,312,102,-99,32,-172
-140,-165,-25,152,-57,-95,130,316,106,-97,33,-174
-140,-167,-27,153,-56,-97,131,317,106,-97,41,-177
-140,-174,-34,157,-53,-104,131,316,106,-97,52,-179
-141,-184,-43,162,-49,-113,130,321,112,-92,60,-182
-141,-189,-48,165,-46,-118,130,325,116,-87,67,-184
-138,-187,-49,162,-44,-118,133,326,115,-85,75,-185
-136,-180,-44,158,-46,-112,135,325,112,-86,86,-185
-134,-173,-39,153,-47,-106,136,328,110,-87,99,-185
-131,-170,-39,150,-46,-104,135,330,111,-86,111,-185
-125,-169,-44,147,-40,-106,138,331,114,-87,120,-184
-117,-169,-52,143,-32,-110,140,331,116,-87,125,-184
-110,-169,-59,139,-25,-114,141,331,119,-84,128,-187
-106,-169,-63,137,-21,-116,141,335,121,-82,130,-189
-110,-170,-60,140,-25,-115,141,345,126,-81,135,-188
-116,-170,-54,143,-31,-112,141,355,130,-81,140,-185
-122,-166,-44,144,-39,-105,139,359,134,-82,144,-184
-125,-164,-39,144,-43,-101,136,360,135,-81,150,-184
-126,-168,-42,147,-42,-105,133,363,136,-82,161,-185
-126,-174,-48,150,-39,-111,131,365,135,-82,174,-184
-124,-181,-57,152,-33,-119,129,365,137,-80,184,-185
-122,-184,-62,153,-30,-123,130,365,140,-78,194,-185
-118,-184,-66,151,-26,-125,136,370,146,-75,206,-183
-116,-180,-64,148,-26,-122,140,379,150,-73,218,-184
-120,-175,-55,147,-32,-115,141,390,152,-70,229,-190
-122,-170,-48,146,-37,-109,140,399,151,-68,238,-194
-114,-164,-50,139,-32,-107,144,403,150,-67,247,-194
-102,-156,-54,129,-24,-105,150,404,150,-68,257,-194
-93,-146,-53,119,-20,-99,157,408,154,-67,268,-198
-91,-140,-49,115,-21,-94,164,413,160,-63,277,-195
-101,-148,-47,124,-27,-97,170,421,166,-56,280,-175
-116,-164,-48,140,-34,-106,174,428,169,-52,278,-147
-129,-180,-51,154,-39,-115,177,433,170,-59,273,-122
-135,-189,-54,162,-40,-121,179,438,170,-67,272,-98
-133,-185,-52,159,-40,-118,184,445,169,-70,279,-66
-126,-175,-49,150,-38,-112,189,452,169,-68,291,-30
-119,-167,-48,143,-35,-107,194,460,172,-66,302,2
-117,-164,-47,140,-35,-105,199,467,174,-67,307,23
-118,-170,-52,144,-33,-111,208,475,176,-72,300,27
-121,-179,-58,150,-31,-118,218,482,175,-77,292,24
-121,-188,-67,154,-27,-127,225,487,172,-79,290,22
-121,-194,-73,157,-24,-133,228,491,170,-81,291,23
-125,-195,-70,160,-27,-132,231,495,170,-88,290,24
-130,-194,-64,162,-33,-129,233,501,170,-96,287,24
-134,-198,-64,166,-35,-131,238,510,167,-103,286,23
-136,-203,-67,169,-34,-135,243,521,165,-106,286,23
-133,-206,-73,169,-30,-139,250,532,166,-106,287,24
-131,-208,-77,169,-27,-142,257,540,169,-106,287,24
-130,-213,-83,171,-23,-148,265,545,173,-112,284,22
-131,-218,-87,174,-22,-152,272,550,175,-121,278,19
-128,-221,-93,174,-17,-157,278,559,173,-128,267,12
-122,-219,-97,170,-12,-158,282,569,170,-135,258,4
-115,-212,-97,163,-9,-154,286,579,167,-143,254,0
-111,-208,-97,159,-7,-152,291,589,165,-150,253,-3
-115,-218,-103,166,-6,-160,299,599,164,-156,249,-6
-125,-233,-108,179,-8,-170,306,609,164,-160,244,-8
-137,-245,-108,191,-14,-176,312,617,165,-163,240,-12
-145,-252,-107,198,-19,-179,316,623,165,-169,234,-18
-147,-255,-108,201,-19,-181,321,629,161,-182,222,-27
-146,-257,-111,201,-17,-184,325,633,156,-194,209,-38
-145,-261,-116,203,-14,-188,328,637,150,-198,201,-49
-145,-263,-118,204,-13,-190,330,643,146,-199,195,-57
-147,-261,-114,204,-16,-187,335,652,145,-203,187,-61
-150,-262,-112,206,-19,-187,340,662,145,-208,180,-62
-156,-273,-117,214,-19,-195,344,670,145,-212,178,-65
-160,-286,-126,223,-17,-206,345,673,141,-218,175,-72
-161,-291,-130,226,-15,-210,347,667,134,-228,163,-83
-160,-291,-131,225,-14,-211,346,658,126,-238,146,-96
-161,-294,-133,227,-14,-213,341,651,121,-244,130,-107
-161,-296,-135,228,-13,-215,336,649,117,-247,117,-116
-156,-297,-141,226,-7,-219,332,649,112,-251,110,-122
-151,-296,-145,223,-3,-220,331,649,107,-252,107,-125
-149,-298,-149,223,0,-223,329,642,102,-252,103,-129
-150,-301,-151,225,0,-226,326,634,97,-252,97,-135
-151,-303,-152,227,0,-227,318,627,92,-257,90,-143
-151,-302,-151,226,0,-226,307,619,87,-262,82,-150
-148,-297,-149,222,0,-223,296,605,83,-266,75,-155
-146,-292,-146,219,0,-219,287,590,81,-267,72,-156
-146,-289,-143,217,-1,-216,281,578,85,-267,78,-150
-146,-287,-141,216,-2,-214,278,570,91,-263,86,-141
-141,-284,-143,212,1,-213,274,563,96,-255,93,-132
-136,-278,-142,207,3,-210,268,551,97,-244,96,-126
-133,-268,-135,200,1,-201,258,530,94,-231,97,-125
-131,-258,-127,194,-2,-192,244,503,87,-219,97,-125
-126,-252,-126,189,0,-189,229,478,78,-209,95,-125
-122,-248,-126,185,2,-187,214,454,68,-204,96,-122
-121,-241,-120,181,0,-180,201,430,60,-202,102,-118
-122,-234,-112,178,-5,-173,190,406,53,-200,111,-112
-119,-227,-108,173,-5,-167,179,382,47,-191,120,-104
-112,-219,-107,165,-2,-163,165,357,39,-180,125,-97
-101,-208,-107,154,3,-157,148,329,29,-172,125,-95
-92,-195,-103,143,5,-149,131,303,19,-165,122,-96
-91,-181,-90,136,0,-135,118,282,13,-155,119,-99
-92,-170,-78,131,-7,-124,107,264,9,-146,117,-101
-88,-165,-77,126,-5,-121,96,243,4,-143,114,-102
-82,-165,-83,123,0,-124,87,224,0,-141,112,-102
-79,-164,-85,121,3,-124,80,212,-1,-134,108,-100
-78,-161,-83,119,2,-122,73,200,-3,-126,102,-101
-76,-154,-78,115,1,-116,62,185,-8,-123,95,-109
-73,-146,-73,109,0,-109,48,166,-13,-122,87,-121
-69,-140,-71,104,1,-105,37,146,-15,-117,80,-132
-68,-136,-68,102,0,-102,29,131,-14,-112,73,-140
-68,-130,-62,99,-3,-96,26,125,-13,-110,67,-144
-68,-126,-58,97,-5,-92,24,122,-13,-111,63,-145
-63,-125,-62,94,0,-93,19,115,-16,-112,61,-149
-58,-126,-68,92,5,-97,14,107,-18,-112,58,-155
-54,-124,-70,89,8,-97,11,102,-19,-109,50,-162
-53,-122,-69,87,8,-95,9,97,-18,-107,39,-169
-53,-122,-69,87,8,-95,6,87,-21,-107,30,-177
-53,-122,-69,87,8,-95,4,78,-23,-107,24,-184
-49,-118,-69,83,10,-93,5,75,-24,-102,19,-187
-43,-112,-69,77,13,-90,8,77,-24,-97,14,-189
-37,-106,-69,71,16,-87,11,79,-23,-95,7,-194
-34,-102,-68,68,17,-85,13,78,-23,-96,0,-199
-33,-101,-68,67,17,-84,14,73,-24,-99,-2,-202
-34,-101,-67,67,16,-84,14,68,-24,-101,-3,-203
-31,-102,-71,66,20,-86,13,64,-23,-100,-5,-205
-29,-102,-73,65,22,-87,13,63,-23,-97,-8,-208
-28,-99,-71,63,21,-85,14,62,-28,-94,-12,-213
-29,-97,-68,63,19,-82,13,63,-33,-92,-18,-218
-26,-95,-69,60,21,-82,14,62,-37,-91,-26,-224
-24,-96,-72,60,24,-84,14,62,-39,-91,-33,-228
-23,-100,-77,61,27,-88,13,65,-37,-92,-37,-232
-23,-106,-83,64,30,-94,13,67,-34,-92,-38,-233
-24,-113,-89,68,32,-101,14,68,-30,-91,-40,-233
-24,-117,-93,70,34,-105,14,68,-28,-91,-42,-233
-21,-113,-92,67,35,-102,9,67,-30,-93,-44,-237
-19,-107,-88,63,34,-97,4,67,-33,-96,-47,-243
-17,-103,-86,60,34,-94,1,67,-34,-100,-52,-248
-14,-102,-88,58,37,-95,0,67,-34,-101,-57,-252
-9,-101,-92,55,41,-96,0,68,-34,-100,-60,-255
-4,-101,-97,52,46,-99,0,68,-34,-97,-62,-257
-1,-102,-101,51,50,-101,0,65,-31,-93,-65,-260
0,-102,-102,51,51,-102,0,63,-29,-92,-67,-262
0,-101,-101,50,50,-101,0,62,-28,-92,-70,-263
0,-102,-102,51,51,-102,0,62,-29,-92,-72,-262
0,-101,-101,50,50,-101,0,63,-26,-89,-74,-264
3,-101,-104,49,53,-102,0,63,-24,-87,-73,-263
10,-102,-112,46,61,-107,0,62,-23,-86,-68,-256
18,-102,-120,42,69,-111,0,62,-23,-86,-63,-248
25,-101,-126,38,75,-113,0,63,-24,-86,-59,-242
28,-101,-129,36,78,-115,0,63,-23,-86,-58,-239
29,-104,-133,37,81,-118,-1,62,-24,-88,-58,-237
29,-106,-135,38,82,-120,-3,62,-24,-91,-58,-234
28,-106,-134,39,81,-120,-6,63,-21,-94,-56,-229
29,-106,-135,38,82,-120,-8,63,-19,-96,-53,-224
28,-110,-138,41,83,-124,-11,62,-18,-97,-48,-221
28,-116,-144,44,86,-130,-13,62,-18,-97,-43,-219
30,-122,-152,46,91,-137,-14,63,-18,-96,-38,-214
33,-125,-158,46,95,-141,-14,63,-18,-96,-34,-209
37,-123,-160,43,98,-141,-14,62,-20,-99,-30,-204
42,-117,-159,37,100,-138,-14,62,-23,-101,-29,-200
48,-110,-158,31,103,-134,-12,64,-27,-101,-29,-196
52,-106,-158,27,105,-132,-9,67,-28,-101,-29,-195
53,-110,-163,28,108,-136,-6,71,-27,-105,-25,-195
52,-116,-168,32,110,-142,-4,72,-24,-107,-19,-195
54,-118,-172,32,113,-145,-1,71,-21,-102,-13,-189
57,-117,-174,30,115,-145,0,68,-19,-97,-9,-180
62,-114,-176,26,119,-145,-1,65,-18,-97,-8,-174
67,-112,-179,22,123,-145,-3,63,-18,-101,-8,-170
73,-109,-182,18,127,-145,-6,60,-21,-105,-9,-167
77,-107,-184,15,130,-145,-8,58,-23,-106,-9,-165
78,-106,-184,14,131,-145,-9,57,-23,-107,-6,-164
78,-106,-184,14,131,-145,-9,58,-23,-106,-4,-164
77,-108,-185,15,131,-146,-8,57,-26,-107,-1,-165
77,-107,-184,15,130,-145,-8,57,-29,-107,0,-165
78,-100,-178,11,128,-139,-8,61,-25,-104,1,-163
78,-92,-170,7,124,-131,-8,67,-19,-102,3,-161
77,-86,-163,4,120,-124,-9,73,-13,-100,6,-159
77,-78,-155,0,116,-116,-9,77,-9,-97,8,-156
78,-66,-144,-6,111,-105,-7,79,-4,-90,11,-151
81,-49,-130,-16,105,-89,-4,81,0,-82,13,-146
88,-31,-119,-28,103,-75,-1,86,4,-74,14,-142
96,-15,-111,-40,103,-63,0,91,8,-68,13,-141
104,-1,-105,-51,104,-53,1,96,13,-62,15,-139
115,12,-103,-63,109,-45,3,101,18,-58,18,-136
131,32,-99,-81,115,-33,8,106,26,-54,22,-130
140,51,-89,-95,114,-19,13,111,33,-53,24,-126
136,61,-75,-98,105,-7,15,117,38,-53,19,-129
126,63,-63,-94,94,0,14,121,42,-53,14,-135
123,59,-64,-91,93,-2,9,123,50,-50,12,-137
125,57,-68,-91,96,-5,4,122,57,-48,13,-136
126,62,-64,-94,95,-1,2,120,60,-47,14,-135
125,67,-58,-96,91,4,3,121,58,-47,13,-135
126,69,-57,-97,91,6,5,126,53,-49,14,-135
126,68,-58,-97,92,5,4,122,48,-52,14,-135
123,68,-55,-95,89,6,-1,102,42,-58,11,-136
121,72,-49,-96,85,11,-8,79,39,-62,9,-136
125,81,-44,-103,84,18,-15,67,38,-63,8,-134
130,91,-39,-110,84,26,-23,59,34,-63,8,-131
131,97,-34,-114,82,31,-36,40,23,-62,10,-128
130,101,-29,-115,79,36,-51,20,9,-62,13,-126
133,108,-25,-120,79,41,-67,12,1,-63,17,-122
136,116,-20,-126,78,48,-77,13,0,-63,23,-117
131,122,-9,-126,70,56,-80,17,4,-62,30,-112
126,125,-1,-125,63,62,-81,19,8,-62,38,-107
125,126,1,-125,62,63,-88,15,8,-65,46,-102
130,125,-5,-127,67,60,-96,9,4,-67,52,-97
138,127,-11,-132,74,58,-100,5,0,-68,53,-94
149,122,-27,-135,88,47,-101,4,-3,-68,52,-92
163,105,-58,-134,110,23,-105,2,-8,-67,54,-90
174,83,-91,-128,132,-4,-111,0,-13,-67,57,-87
177,70,-107,-123,142,-18,-117,-1,-19,-70,59,-83
175,63,-112,-119,143,-24,-121,-3,-23,-72,58,-82
171,57,-114,-114,142,-28,-122,-6,-26,-73,54,-83
169,48,-121,-108,145,-36,-121,-8,-28,-72,48,-86
171,34,-137,-102,154,-51,-125,-10,-31,-74,43,-89
170,15,-155,-92,162,-70,-126,-9,-33,-77,39,-91
161,-5,-166,-78,163,-85,-118,-2,-33,-81,35,-95
147,-22,-169,-62,158,-95,-103,8,-33,-86,29,-101
134,-33,-167,-50,150,-100,-84,19,-36,-95,18,-109
126,-42,-168,-42,147,-105,-68,28,-38,-106,4,-121
124,-54,-178,-35,151,-116,-63,30,-40,-116,-5,-133
125,-67,-192,-29,158,-129,-63,29,-42,-125,-13,-145
125,-76,-201,-24,163,-138,-61,27,-48,-130,-21,-153
125,-85,-210,-20,167,-147,-58,24,-57,-135,-32,-160
129,-101,-230,-14,179,-165,-57,17,-67,-143,-47,-170
135,-120,-255,-7,195,-187,-57,9,-80,-154,-61,-183
140,-137,-277,-1,208,-207,-59,3,-96,-169,-72,-198
145,-150,-295,2,220,-222,-62,0,-111,-183,-81,-212
149,-157,-306,4,227,-231,-66,-2,-119,-194,-92,-224
155,-160,-315,2,235,-237,-68,-3,-121,-199,-101,-233
163,-159,-322,-2,242,-240,-66,-4,-122,-200,-105,-237
174,-156,-330,-9,252,-243,-63,-4,-122,-200,-106,-238
185,-152,-337,-16,261,-244,-62,-2,-122,-199,-111,-238
194,-150,-344,-22,269,-247,-63,0,-122,-199,-116,-238
196,-152,-348,-22,272,-250,-60,0,-121,-200,-118,-241
195,-155,-350,-20,272,-252,-58,0,-121,-200,-117,-243
195,-158,-353,-18,274,-255,-57,0,-123,-199,-115,-245
195,-160,-355,-17,275,-257,-57,0,-125,-199,-116,-247
191,-164,-355,-13,273,-259,-58,-1,-126,-201,-124,-251
185,-169,-354,-8,269,-261,-58,-3,-126,-203,-135,-257
179,-175,-354,-2,266,-264,-57,-4,-125,-203,-142,-263
175,-179,-354,2,264,-266,-58,-4,-125,-203,-145,-267
173,-180,-353,3,263,-266,-57,-3,-127,-206,-146,-268
174,-179,-353,2,263,-266,-57,-3,-130,-208,-146,-268
177,-182,-359,2,268,-270,-58,-3,-133,-209,-145,-267
179,-184,-363,2,271,-273,-58,-3,-135,-208,-145,-267
180,-185,-365,2,272,-275,-56,-4,-136,-211,-146,-270
179,-185,-364,3,271,-274,-53,-4,-136,-213,-146,-272
181,-184,-365,1,273,-274,-50,-2,-134,-213,-145,-273
180,-184,-364,2,272,-274,-48,-3,-135,-213,-145,-273
174,-186,-360,6,267,-273,-47,-10,-141,-218,-150,-272
170,-185,-355,7,262,-270,-47,-26,-150,-223,-155,-268
172,-178,-350,3,261,-264,-49,-51,-155,-224,-156,-261
179,-174,-353,-2,266,-263,-48,-46,-147,-219,-155,-257
185,-181,-366,-2,275,-273,-37,25,-118,-211,-157,-265
193,-189,-382,-2,287,-285,-16,156,-64,-192,-156,-272
209,-186,-395,-11,302,-290,11,311,15,-157,-145,-264
223,-167,-390,-28,306,-278,24,386,91,-115,-124,-241
226,-133,-359,-46,292,-246,0,281,129,-77,-95,-208
224,-95,-319,-64,271,-207,-56,19,111,-53,-65,-177
222,-63,-285,-79,253,-174,-131,-328,37,-50,-41,-155
223,-32,-255,-95,239,-143,-207,-650,-35,-44,-16,-133
227,9,-218,-118,222,-104,-274,-849,-47,-9,17,-100
233,58,-175,-145,204,-58,-331,-974,-21,47,59,-57
239,109,-130,-174,184,-10,-384,-1110,0,110,104,-8
247,157,-90,-202,168,33,-446,-1276,-2,174,155,47
258,194,-64,-226,161,65,-530,-1471,-33,236,217,112
271,217,-54,-244,162,81,-625,-1679,-95,292,281,179
285,228,-57,-256,171,85,-719,-1884,-182,341,339,239
300,237,-63,-268,181,87,-819,-2089,-275,394,402,300
317,260,-57,-288,187,101,-935,-2294,-350,463,483,377
338,302,-36,-320,187,133,-1053,-2474,-413,543,580,469
365,366,1,-365,182,183,-1152,-2600,-470,628,689,576
404,454,50,-429,177,252,-1240,-2682,-493,747,829,716
460,561,101,-510,179,331,-1330,-2738,-452,930,1017,908
525,680,155,-602,185,417,-1413,-2778,-376,1155,1233,1130
584,805,221,-694,181,513,-1478,-2800,-305,1381,1451,1354
634,942,308,-788,163,625,-1527,-2793,-235,1592,1663,1570
674,1099,425,-886,124,762,-1569,-2747,-158,1774,1869,1772
704,1255,551,-979,76,903,-1602,-2688,-100,1916,2053,1951
724,1382,658,-1053,33,1020,-1623,-2647,-91,2008,2203,2099
727,1492,765,-1109,-19,1128,-1625,-2609,-126,2056,2317,2215
708,1604,896,-1156,-94,1250,-1607,-2555,-189,2065,2400,2300
671,1708,1037,-1189,-183,1372,-1582,-2506,-290,2013,2439,2340
626,1789,1163,-1207,-268,1476,-1565,-2489,-440,1874,2417,2324
575,1849,1274,-1212,-349,1561,-1544,-2492,-633,1645,2333,2245
516,1890,1374,-1203,-429,1632,-1503,-2488,-849,1339,2187,2103
450,1875,1425,-1162,-487,1650,-1432,-2446,-1042,997,1987,1904
379,1755,1376,-1067,-498,1565,-1325,-2333,-1164,669,1736,1654
312,1492,1180,-902,-434,1336,-1168,-2099,-1180,380,1423,1336
261,1077,816,-669,-277,946,-957,-1716,-1079,141,1041,939
222,644,422,-433,-100,533,-744,-1306,-938,-76,645,532
190,350,160,-270,15,255,-590,-1009,-842,-297,308,201
166,198,32,-182,67,115,-486,-815,-768,-446,93,-2
153,143,-10,-148,81,66,-405,-670,-670,-443,38,-58
146,124,-22,-135,84,51,-336,-551,-564,-374,52,-48
140,83,-57,-111,98,13,-277,-444,-486,-355,30,-68
136,24,-112,-80,124,-44,-228,-353,-433,-369,-15,-108
134,-32,-166,-51,150,-99,-189,-282,-390,-366,-39,-129
135,-82,-217,-26,176,-149,-154,-220,-345,-343,-47,-135
137,-123,-260,-7,198,-191,-115,-150,-290,-314,-55,-140
140,-153,-293,6,216,-223,-76,-79,-233,-288,-62,-145
143,-170,-313,13,228,-241,-43,-17,-189,-275,-62,-145
145,-179,-324,17,234,-251,-16,34,-154,-268,-58,-141
146,-186,-332,20,239,-259,5,77,-121,-258,-53,-136
146,-190,-336,22,241,-263,22,109,-94,-245,-48,-131
145,-186,-331,20,238,-258,32,127,-74,-233,-43,-127
145,-180,-325,17,235,-252,38,139,-59,-224,-39,-126
146,-178,-324,16,235,-251,42,154,-45,-218,-34,-125
146,-179,-325,16,235,-252,47,173,-34,-214,-29,-126
145,-180,-325,17,235,-252,55,192,-28,-212,-23,-124
145,-180,-325,17,235,-252,62,207,-24,-213,-19,-122
146,-179,-325,16,235,-252,64,213,-21,-220,-20,-119
146,-179,-325,16,235,-252,63,214,-19,-228,-23,-117
142,-180,-322,19,232,-251,62,213,-19,-231,-25,-115
136,-180,-316,22,226,-248,62,213,-19,-229,-24,-112
132,-179,-311,23,221,-245,64,214,-15,-223,-22,-107
131,-179,-310,24,220,-244,67,218,-9,-214,-19,-102
130,-179,-309,24,219,-244,72,228,-2,-205,-16,-101
130,-179,-309,24,219,-244,77,238,3,-200,-14,-101
133,-180,-313,23,223,-246,80,240,5,-202,-13,-102
135,-180,-315,22,225,-247,81,239,4,-208,-14,-102
137,-179,-316,21,226,-247,82,238,3,-210,-12,-102
136,-179,-315,21,225,-247,82,239,3,-209,-9,-102
133,-180,-313,23,223,-246,81,238,7,-206,-6,-100
131,-180,-311,24,221,-245,81,238,13,-200,-4,-97
132,-178,-310,23,221,-244,84,242,21,-192,-3,-92
135,-175,-310,20,222,-242,86,247,28,-185,-3,-87
138,-172,-310,17,224,-241,87,248,30,-183,-4,-83
140,-170,-310,15,225,-240,87,248,29,-184,-3,-82
141,-170,-311,14,226,-240,86,248,28,-185,-4,-81
141,-170,-311,14,226,-240,86,248,28,-184,-4,-81
138,-167,-305,14,221,-236,87,246,30,-185,-2,-82
136,-165,-301,14,218,-233,87,247,33,-185,0,-82
135,-164,-299,14,217,-231,86,254,36,-182,2,-79
135,-164,-299,14,217,-231,86,262,38,-180,3,-73
138,-165,-303,13,220,-234,89,264,40,-180,4,-67
140,-165,-305,12,222,-235,91,262,42,-180,4,-63
141,-161,-302,10,221,-231,92,265,45,-177,3,-64
141,-156,-297,7,219,-226,92,267,47,-175,3,-67
140,-154,-294,7,217,-224,92,267,47,-175,6,-68
141,-155,-296,7,218,-225,92,267,47,-175,8,-68
140,-158,-298,9,219,-228,91,272,52,-169,9,-68
140,-160,-300,10,220,-230,91,277,57,-161,9,-68
142,-161,-303,9,222,-232,94,278,58,-157,7,-66
145,-161,-306,8,225,-233,96,277,57,-156,4,-67
148,-160,-308,6,228,-234,95,279,59,-155,0,-73
150,-160,-310,5,230,-235,92,282,62,-155,-3,-81
152,-161,-313,4,232,-237,91,284,65,-156,-4,-87
151,-161,-312,5,231,-236,91,286,67,-156,-3,-91
146,-160,-306,7,226,-233,91,289,69,-155,-7,-93
141,-160,-301,9,221,-230,91,296,72,-155,-13,-92
137,-161,-298,12,217,-229,94,306,76,-158,-19,-89
136,-161,-297,12,216,-229,96,316,81,-160,-23,-87
135,-158,-293,11,214,-225,97,320,85,-161,-25,-88
135,-156,-291,10,213,-223,97,321,86,-161,-24,-91
136,-155,-291,9,213,-223,96,324,87,-161,-21,-94
136,-155,-291,9,213,-223,96,325,86,-161,-19,-96
134,-155,-289,10,211,-222,98,325,88,-158,-18,-97
131,-155,-286,12,208,-220,101,325,91,-156,-19,-97
127,-157,-284,15,205,-220,106,330,96,-155,-18,-95
122,-160,-282,19,202,-221,111,339,101,-155,-18,-96
115,-162,-277,23,196,-219,112,350,103,-155,-22,-101
111,-164,-275,26,193,-219,112,360,102,-155,-28,-106
115,-167,-282,26,198,-224,112,364,101,-157,-32,-108
121,-169,-290,24,205,-229,116,365,101,-160,-33,-107
123,-170,-293,23,208,-231,122,368,105,-162,-34,-106
122,-169,-291,23,206,-230,130,374,111,-161,-34,-106
119,-171,-290,26,204,-230,138,382,117,-155,-33,-107
117,-174,-291,28,204,-232,145,389,121,-150,-34,-107
116,-177,-293,30,204,-235,148,392,122,-155,-33,-107
117,-179,-296,31,206,-237,150,394,122,-164,-33,-107
115,-180,-295,32,205,-237,155,398,121,-167,-34,-106
112,-180,-292,34,202,-236,160,404,121,-165,-34,-106
109,-178,-287,34,198,-232,164,410,123,-162,-31,-107
107,-175,-282,34,194,-228,169,418,125,-160,-29,-107
104,-171,-275,33,189,-223,178,427,128,-162,-30,-104
102,-169,-271,33,186,-220,188,437,130,-164,-33,-101
102,-172,-274,35,188,-223,197,446,131,-166,-35,-105
102,-174,-276,36,189,-225,203,452,130,-169,-38,-111
98,-174,-272,38,185,-223,208,457,131,-175,-44,-116
92,-174,-266,41,179,-220,213,462,131,-184,-52,-121
88,-182,-270,47,179,-226,218,469,128,-190,-58,-125
87,-193,-280,53,183,-236,223,477,126,-194,-62,-130
86,-202,-288,58,187,-245,230,484,125,-196,-65,-135
82,-208,-290,63,186,-249,238,491,125,-199,-67,-140
74,-213,-287,69,180,-250,245,495,126,-207,-69,-143
64,-218,-282,77,173,-250,252,501,126,-217,-72,-145
56,-224,-280,84,168,-252,257,510,124,-226,-79,-148
53,-228,-281,87,167,-254,262,520,122,-233,-90,-155
52,-226,-278,87,165,-252,267,530,119,-240,-103,-165
52,-224,-276,86,164,-250,272,539,117,-247,-115,-178
52,-226,-278,87,165,-252,279,549,116,-253,-126,-189
48,-233,-281,92,164,-257,286,559,116,-257,-135,-199
41,-239,-280,99,160,-259,292,569,117,-260,-141,-206
34,-243,-277,104,155,-260,296,579,117,-266,-149,-213
30,-245,-275,107,152,-260,300,586,113,-278,-161,-221
29,-247,-276,109,152,-261,301,594,107,-291,-173,-232
29,-251,-280,111,154,-265,301,601,101,-295,-180,-245
29,-253,-282,112,155,-267,301,609,97,-296,-184,-256
27,-251,-278,112,152,-264,304,616,96,-300,-191,-263
24,-252,-276,114,150,-264,306,623,96,-306,-199,-267
18,-263,-281,122,149,-272,307,628,97,-310,-204,-272
14,-276,-290,131,152,-283,307,629,97,-316,-208,-277
13,-280,-293,133,153,-286,307,625,93,-325,-215,-282
14,-278,-292,132,153,-285,307,619,87,-334,-223,-286
11,-277,-288,133,149,-282,305,614,82,-341,-229,-291
9,-278,-287,134,148,-282,302,610,78,-345,-233,-296
10,-276,-286,133,148,-281,299,606,73,-347,-233,-300
13,-273,-286,130,149,-279,297,600,68,-346,-233,-301
14,-272,-286,129,150,-279,293,592,63,-343,-237,-302
14,-272,-286,129,150,-279,287,585,58,-341,-243,-302
14,-273,-287,129,150,-280,279,581,53,-340,-246,-302
14,-273,-287,129,150,-280,269,576,48,-340,-247,-302
11,-272,-283,130,147,-277,259,562,45,-341,-247,-300
5,-272,-277,133,141,-274,249,543,43,-341,-244,-297
-4,-276,-272,140,134,-274,239,524,41,-340,-237,-292
-9,-278,-269,143,130,-273,230,508,39,-336,-229,-287
0,-270,-270,135,135,-270,222,498,38,-327,-224,-285
16,-255,-271,119,143,-263,214,489,38,-313,-219,-283
31,-236,-267,102,149,-251,206,475,40,-300,-211,-278
42,-220,-262,89,152,-241,196,455,39,-288,-201,-269
48,-212,-260,82,154,-236,182,432,31,-279,-190,-255
52,-209,-261,78,156,-235,166,407,20,-273,-181,-240
55,-203,-258,74,156,-230,153,383,11,-269,-172,-227
57,-195,-252,69,154,-223,142,358,4,-264,-162,-215
59,-188,-247,64,153,-217,129,334,0,-252,-150,-203
62,-180,-242,59,152,-211,113,310,-7,-240,-137,-191
68,-172,-240,52,154,-206,97,284,-17,-232,-127,-180
72,-162,-234,45,153,-198,83,260,-27,-225,-118,-171
71,-151,-222,40,146,-186,74,242,-34,-214,-108,-161
68,-141,-209,36,138,-175,68,226,-38,-204,-98,-152
68,-137,-205,34,136,-171,60,207,-41,-201,-88,-144
72,-136,-208,32,140,-172,49,187,-42,-200,-79,-136
75,-134,-209,29,142,-171,37,169,-42,-193,-70,-129
77,-131,-208,27,142,-169,25,152,-42,-185,-63,-122
79,-125,-204,23,141,-164,13,137,-47,-182,-58,-117
81,-117,-198,18,139,-157,4,123,-52,-180,-53,-112
84,-110,-194,13,139,-152,0,111,-54,-173,-46,-107
86,-103,-189,8,137,-146,0,102,-53,-165,-39,-102
86,-94,-180,4,133,-137,0,97,-52,-161,-34,-97
86,-87,-173,0,129,-130,-3,92,-52,-160,-29,-92
89,-86,-175,-1,132,-130,-8,85,-53,-161,-23,-87
91,-87,-178,-2,134,-132,-13,78,-53,-161,-19,-82
92,-85,-177,-3,134,-131,-16,75,-50,-158,-18,-78
92,-82,-174,-5,133,-128,-18,73,-48,-156,-19,-73
91,-80,-171,-5,131,-125,-21,66,-49,-156,-15,-68
91,-78,-169,-6,130,-123,-23,58,-52,-156,-9,-63
91,-75,-166,-8,128,-120,-24,56,-53,-152,-4,-58
91,-73,-164,-9,127,-118,-24,57,-53,-146,0,-53
92,-72,-164,-10,128,-118,-23,58,-52,-140,3,-48
92,-72,-164,-10,128,-118,-23,58,-52,-136,8,-43
89,-72,-161,-8,125,-116,-24,56,-53,-135,14,-38
87,-72,-159,-7,123,-115,-24,53,-53,-135,18,-34
86,-73,-159,-6,122,-116,-23,50,-52,-136,19,-33
86,-73,-159,-6,122,-116,-23,48,-52,-136,19,-33
87,-70,-157,-8,122,-113,-24,45,-55,-133,18,-34
87,-67,-154,-10,120,-110,-24,43,-57,-131,19,-34
83,-70,-153,-6,118,-111,-22,42,-58,-130,18,-31
74,-77,-151,1,112,-114,-19,42,-58,-130,18,-29
61,-83,-144,11,102,-113,-16,45,-56,-131,21,-28
53,-87,-140,17,96,-113,-14,47,-53,-131,23,-28
58,-83,-141,12,99,-112,-11,48,-50,-130,24,-29
71,-74,-145,1,108,-109,-9,48,-48,-131,23,-28
83,-64,-147,-9,115,-105,-8,47,-48,-130,25,-29
91,-58,-149,-16,120,-103,-8,47,-48,-130,28,-29
93,-58,-151,-17,122,-104,-9,49,-45,-131,29,-27
92,-62,-154,-15,123,-108,-9,52,-43,-131,29,-24
92,-63,-155,-14,123,-109,-8,57,-42,-129,28,-21
92,-63,-155,-14,123,-109,-8,62,-43,-126,28,-19
90,-62,-152,-14,121,-107,-9,63,-41,-123,29,-18
87,-63,-150,-12,118,-106,-9,63,-39,-122,29,-18
84,-62,-146,-11,115,-104,-8,62,-38,-122,26,-18
82,-62,-144,-10,113,-103,-8,62,-39,-122,24,-18
79,-64,-143,-7,111,-103,-9,63,-37,-119,23,-19
78,-67,-145,-5,111,-106,-9,63,-34,-117,23,-19
77,-70,-147,-3,112,-108,-8,62,-33,-116,26,-16
77,-72,-149,-2,113,-110,-8,62,-33,-116,28,-14
78,-73,-151,-2,114,-112,-9,63,-34,-117,29,-15
78,-72,-150,-3,114,-111,-9,63,-33,-117,29,-18
77,-74,-151,-1,114,-112,-8,63,-34,-116,28,-22
77,-77,-154,0,115,-115,-8,63,-34,-116,28,-24
78,-79,-157,0,117,-118,-10,62,-31,-117,29,-22
78,-81,-159,1,118,-120,-13,62,-29,-117,29,-19
77,-84,-161,3,119,-122,-17,63,-28,-116,27,-18
77,-86,-163,4,120,-124,-19,63,-28,-116,24,-18
79,-88,-167,4,123,-127,-17,62,-29,-120,21,-19
81,-87,-168,3,124,-127,-14,62,-29,-125,19,-19
82,-82,-164,0,123,-123,-13,63,-26,-129,18,-18
82,-78,-160,-2,121,-119,-14,63,-23,-131,19,-18
81,-78,-159,-1,120,-118,-12,61,-26,-129,17,-20
81,-81,-162,0,121,-121,-9,62,-28,-126,18,-23
82,-84,-166,1,124,-125,-6,67,-27,-124,24,-26
82,-86,-168,2,125,-127,-4,72,-24,-125,28,-28
78,-89,-167,5,122,-128,-3,70,-23,-128,25,-29
73,-91,-164,9,118,-127,-4,63,-23,-130,19,-29
72,-92,-164,10,118,-128,-2,58,-23,-131,20,-29
72,-92,-164,10,118,-128,0,57,-23,-131,23,-29
73,-90,-163,8,118,-126,0,61,-26,-128,22,-27
72,-87,-159,7,115,-123,0,67,-28,-126,19,-24
73,-84,-157,5,115,-120,0,71,-29,-125,20,-19
73,-82,-155,4,114,-118,0,73,-29,-125,23,-14
70,-82,-152,6,111,-117,0,71,-28,-126,24,-12
68,-86,-154,9,111,-120,0,68,-28,-126,23,-13
67,-92,-159,12,113,-125,0,67,-29,-125,25,-16
67,-96,-163,14,115,-129,0,67,-29,-125,28,-18
68,-94,-162,13,115,-128,0,68,-28,-125,29,-17
67,-87,-154,10,110,-120,0,68,-28,-125,29,-14
68,-83,-151,7,109,-117,0,67,-29,-126,28,-11
68,-78,-146,5,107,-112,0,67,-29,-126,28,-9
67,-71,-138,2,102,-104,1,71,-26,-125,30,-6
67,-59,-126,-4,96,-92,3,77,-20,-122,33,-4
71,-44,-115,-13,93,-79,5,82,-12,-116,37,-1
77,-26,-103,-25,90,-64,8,86,-4,-108,42,3
81,-9,-90,-36,85,-49,13,90,0,-100,49,10
86,6,-80,-46,83,-37,18,96,3,-93,57,18
93,23,-70,-58,81,-23,21,103,9,-85,63,23
101,37,-64,-69,82,-13,23,110,17,-78,67,28
103,45,-58,-74,80,-6,28,117,28,-75,71,33
102,51,-51,-76,76,0,33,124,37,-73,72,38
100,63,-37,-81,68,13,35,133,43,-71,72,39
101,76,-25,-88,63,25,34,140,47,-68,72,38
108,83,-25,-95,66,29,29,142,52,-65,76,40
116,86,-30,-101,73,28,24,141,57,-63,81,42
118,91,-27,-104,72,32,22,139,59,-64,83,41
117,96,-21,-106,69,37,23,140,58,-67,82,39
117,96,-21,-106,69,37,25,146,54,-70,80,38
117,92,-25,-104,71,33,24,147,48,-72,78,39
111,90,-21,-100,66,34,18,131,43,-76,73,37
102,91,-11,-96,56,40,10,109,39,-81,68,34
98,96,-2,-97,50,47,4,97,37,-85,66,33
97,101,4,-99,46,52,-2,88,34,-91,67,33
94,101,7,-97,43,54,-15,70,27,-97,69,35
92,101,9,-96,41,55,-31,50,19,-101,72,38
93,109,16,-101,38,62,-46,41,17,-99,77,43
96,123,27,-109,34,75,-57,42,18,-93,81,47
96,136,40,-116,28,88,-60,44,20,-86,82,49
96,145,49,-120,23,97,-62,43,19,-82,82,48
102,149,47,-125,27,98,-67,37,13,-82,81,46
110,150,40,-130,35,95,-72,29,4,-86,82,43
116,152,36,-134,40,94,-73,25,0,-89,81,40
121,147,26,-134,47,86,-72,24,-3,-91,81,39
128,128,0,-128,64,64,-75,22,-7,-93,83,38
135,104,-31,-119,83,36,-81,19,-13,-96,86,38
137,89,-48,-113,92,20,-86,16,-18,-99,88,39
136,82,-54,-109,95,14,-91,14,-23,-101,87,39
136,76,-60,-106,98,8,-94,11,-26,-102,83,35
140,69,-71,-104,105,-1,-96,9,-28,-101,78,29
147,58,-89,-102,118,-15,-99,7,-31,-103,73,26
151,45,-106,-98,128,-30,-98,8,-33,-106,68,24
140,29,-111,-84,125,-41,-85,15,-34,-111,64,20
120,15,-105,-67,112,-45,-66,27,-34,-116,59,14
98,6,-92,-52,95,-43,-45,39,-34,-120,50,8
83,-2,-85,-40,84,-43,-30,47,-34,-125,40,1
78,-14,-92,-32,85,-53,-24,49,-33,-130,31,-8
78,-27,-105,-25,91,-66,-24,48,-33,-135,24,-17
73,-35,-108,-19,90,-71,-22,48,-36,-139,20,-23
64,-41,-105,-11,84,-73,-19,48,-41,-145,15,-28
55,-53,-108,-1,81,-80,-18,44,-50,-153,4,-36
48,-70,-118,11,83,-94,-18,39,-61,-163,-7,-46
43,-87,-130,22,86,-108,-19,35,-72,-174,-16,-55
39,-100,-139,30,89,-119,-18,34,-81,-183,-23,-62
38,-108,-146,35,92,-127,-19,33,-83,-188,-29,-65
38,-111,-149,36,93,-130,-19,34,-82,-189,-33,-67
38,-112,-150,37,94,-131,-16,33,-81,-190,-34,-70
38,-112,-150,37,94,-131,-14,33,-81,-190,-33,-72
40,-109,-149,34,94,-129,-13,36,-82,-189,-35,-73
42,-107,-149,32,95,-128,-14,38,-82,-189,-38,-73
45,-106,-151,30,98,-128,-11,39,-81,-190,-39,-72
47,-106,-153,29,100,-129,-9,39,-81,-190,-39,-72
48,-108,-156,30,102,-132,-8,38,-84,-189,-39,-74
48,-111,-159,31,103,-135,-9,39,-86,-189,-42,-77
46,-113,-159,33,102,-136,-7,38,-87,-192,-49,-81
43,-116,-159,36,101,-137,-4,38,-87,-194,-57,-86
40,-120,-160,40,100,-140,-1,40,-86,-195,-59,-91
39,-125,-164,43,101,-144,0,42,-86,-194,-58,-96
38,-128,-166,45,102,-147,0,43,-88,-197,-57,-100
38,-130,-168,46,103,-149,0,43,-91,-199,-57,-101
40,-133,-173,46,106,-153,0,42,-94,-200,-59,-101
42,-135,-177,46,109,-156,0,42,-96,-199,-62,-101
43,-136,-179,46,111,-157,0,43,-97,-201,-65,-103
42,-135,-177,46,109,-156,0,43,-97,-203,-67,-106
43,-137,-180,47,111,-158,1,42,-97,-204,-68,-107
43,-140,-183,48,113,-161,3,42,-97,-204,-67,-107
39,-144,-183,52,111,-163,6,44,-96,-204,-68,-105
34,-146,-180,56,107,-163,8,43,-96,-204,-68,-102
32,-143,-175,55,103,-159,9,38,-98,-203,-65,-96
29,-140,-169,55,99,-154,8,40,-97,-200,-63,-92
24,-143,-167,59,95,-155,11,69,-85,-195,-62,-93
27,-146,-173,59,100,-159,25,154,-40,-179,-59,-93
47,-139,-186,46,116,-162,54,311,52,-144,-45,-78
74,-120,-194,23,134,-157,77,440,156,-99,-23,-52
91,-91,-182,0,136,-136,65,409,218,-54,4,-21
97,-57,-154,-20,125,-105,18,194,212,-26,30,5
93,-29,-122,-32,107,-75,-53,-173,131,-23,47,22
87,-1,-88,-43,87,-44,-134,-560,34,-25,64,39
86,37,-49,-61,67,-6,-203,-814,-5,-2,93,69
90,84,-6,-87,48,39,-260,-964,1,44,134,110
98,134,36,-116,31,85,-309,-1100,17,103,180,154
109,182,73,-145,18,127,-364,-1252,24,169,234,205
124,224,100,-174,12,162,-438,-1425,8,237,299,264
139,251,112,-195,13,181,-526,-1624,-45,294,361,323
148,253,105,-200,21,179,-622,-1854,-147,331,406,367
154,248,94,-201,30,171,-728,-2095,-262,367,449,414
165,257,92,-211,36,174,-847,-2317,-344,429,516,486
185,293,108,-239,38,200,-967,-2498,-400,513,608,583
219,362,143,-290,38,252,-1070,-2621,-450,604,716,697
265,456,191,-360,37,323,-1161,-2702,-477,715,849,834
317,564,247,-440,35,405,-1251,-2765,-456,867,1015,999
375,682,307,-528,34,494,-1334,-2810,-392,1066,1218,1199
435,812,377,-623,29,594,-1400,-2827,-304,1307,1455,1431
489,952,463,-720,13,707,-1451,-2811,-205,1550,1696,1667
529,1101,572,-815,-21,836,-1492,-2764,-109,1748,1907,1874
557,1246,689,-901,-66,967,-1523,-2702,-40,1896,2089,2055
576,1374,798,-975,-111,1086,-1542,-2644,-20,2010,2255,2223
584,1482,898,-1033,-157,1190,-1543,-2578,-31,2088,2392,2363
578,1574,996,-1076,-209,1285,-1522,-2489,-49,2124,2481,2450
556,1663,1107,-1109,-275,1385,-1496,-2419,-116,2085,2520,2486
518,1760,1242,-1139,-362,1501,-1484,-2424,-284,1935,2510,2481
471,1855,1384,-1163,-456,1619,-1475,-2464,-517,1701,2453,2432
418,1919,1501,-1168,-541,1710,-1445,-2468,-747,1424,2343,2328
357,1888,1531,-1122,-587,1709,-1372,-2392,-924,1115,2153,2138
281,1696,1415,-988,-567,1555,-1242,-2209,-1016,777,1855,1838
205,1372,1167,-788,-481,1269,-1065,-1926,-1017,459,1493,1470
146,982,836,-564,-345,909,-865,-1574,-943,211,1131,1100
103,622,519,-362,-208,570,-678,-1228,-843,0,792,758
67,383,316,-225,-124,349,-541,-968,-768,-223,490,462
37,253,216,-145,-89,234,-443,-782,-704,-401,271,248
17,184,167,-100,-75,175,-359,-626,-616,-448,178,146
5,142,137,-73,-66,139,-288,-492,-520,-414,158,115
0,99,99,-49,-49,99,-232,-385,-447,-392,129,91
0,50,50,-25,-25,50,-187,-299,-392,-386,91,66
0,2,2,-1,-1,2,-143,-223,-344,-371,71,52
0,-41,-41,20,20,-41,-99,-148,-292,-345,67,48
0,-77,-77,38,38,-77,-54,-71,-232,-315,68,45
3,-103,-106,50,54,-104,-14,2,-173,-289,68,43
8,-120,-128,56,68,-124,15,65,-128,-278,66,42
13,-129,-142,58,77,-135,36,114,-96,-273,63,42
16,-136,-152,60,84,-144,52,154,-69,-266,60,43
18,-140,-158,61,88,-149,65,185,-46,-254,58,42
19,-141,-160,61,89,-150,77,208,-27,-244,57,43
19,-141,-160,61,89,-150,85,226,-11,-235,57,43
18,-140,-158,61,88,-149,91,242,4,-228,57,41
19,-140,-159,60,89,-149,95,260,17,-224,57,39
18,-141,-159,61,88,-150,103,277,25,-222,59,37
18,-141,-159,61,88,-150,111,290,28,-223,58,34
19,-140,-159,60,89,-149,113,294,29,-229,51,30
19,-140,-159,60,89,-149,112,292,29,-237,43,24
17,-141,-158,62,87,-149,111,291,28,-241,41,20
14,-141,-155,63,84,-148,111,291,28,-239,42,19
12,-140,-152,64,82,-146,113,292,32,-233,43,18
9,-140,-149,65,79,-144,116,295,41,-225,42,19
6,-141,-147,67,76,-144,119,305,52,-217,43,17
4,-141,-145,68,74,-143,121,315,62,-213,43,14
5,-140,-145,67,75,-142,122,319,64,-219,40,9
8,-140,-148,66,78,-144,122,317,63,-227,34,1
9,-141,-150,66,79,-145,121,316,61,-231,29,-6
9,-141,-150,66,79,-145,121,316,62,-229,24,-13
8,-137,-145,64,76,-141,122,317,65,-225,21,-15
8,-132,-140,62,74,-136,125,321,71,-220,19,-14
11,-126,-137,57,74,-131,130,328,79,-211,17,-13
13,-122,-135,54,74,-128,135,335,86,-204,14,-13
14,-121,-135,53,74,-128,136,337,88,-204,10,-17
13,-121,-134,54,73,-127,136,336,87,-208,5,-22
14,-122,-136,54,75,-129,136,335,86,-211,-1,-28
14,-122,-136,54,75,-129,136,336,86,-213,-8,-33
10,-121,-131,55,70,-126,134,334,88,-214,-12,-36
4,-121,-125,58,64,-123,131,335,91,-214,-13,-38
0,-123,-123,61,61,-123,128,342,94,-211,-14,-41
0,-125,-125,62,62,-125,125,350,96,-209,-14,-42
1,-127,-128,63,64,-127,127,352,98,-208,-13,-42
3,-126,-129,61,66,-127,130,350,101,-209,-13,-42
4,-122,-126,59,65,-124,131,352,104,-206,-14,-44
4,-117,-121,56,62,-119,131,355,106,-204,-14,-47
2,-115,-117,56,59,-116,130,355,106,-204,-12,-48
0,-116,-116,58,58,-116,131,355,106,-204,-9,-48
-2,-119,-117,60,57,-118,130,359,110,-200,-8,-47
-3,-121,-118,62,57,-119,130,365,116,-195,-8,-47
-3,-120,-117,61,57,-118,133,366,117,-192,-11,-48
0,-117,-117,58,58,-117,135,366,116,-190,-13,-47
2,-114,-116,56,59,-115,136,366,118,-187,-14,-48
3,-112,-115,54,59,-113,135,369,121,-185,-14,-48
4,-111,-115,53,59,-113,137,372,123,-183,-14,-47
4,-111,-115,53,59,-113,140,374,125,-180,-18,-47
2,-111,-113,54,57,-112,141,377,127,-175,-25,-49
0,-111,-111,55,55,-111,140,383,130,-170,-32,-52
-1,-112,-111,56,55,-111,142,393,134,-169,-37,-54
-3,-112,-109,57,53,-110,145,403,140,-169,-38,-57
-6,-109,-103,57,48,-106,146,407,143,-170,-40,-62
-8,-107,-99,57,45,-103,146,408,145,-169,-42,-67
-9,-106,-97,57,44,-101,145,411,146,-170,-46,-70
-9,-106,-97,57,44,-101,145,413,145,-170,-51,-72
-6,-106,-100,56,47,-103,147,413,146,-168,-60,-75
-4,-106,-102,55,49,-104,150,413,150,-165,-67,-77
-3,-108,-105,55,51,-106,155,418,156,-161,-68,-77
-7,-111,-104,59,48,-107,160,427,163,-156,-67,-77
-16,-112,-96,64,40,-104,161,437,168,-151,-69,-81
-23,-112,-89,67,33,-100,161,446,169,-146,-72,-86
-21,-111,-90,66,34,-100,161,451,169,-145,-72,-87
-14,-112,-98,63,42,-105,164,452,169,-145,-68,-87
-12,-111,-99,61,43,-105,168,455,173,-145,-65,-86
-13,-111,-98,62,42,-104,173,461,178,-142,-63,-86
-16,-113,-97,64,40,-105,179,469,185,-133,-62,-86
-18,-116,-98,67,40,-107,184,476,189,-126,-62,-86
-18,-119,-101,68,41,-110,187,482,190,-129,-64,-87
-18,-121,-103,69,42,-112,189,487,190,-135,-67,-87
-22,-122,-100,72,39,-111,193,493,189,-134,-70,-85
-27,-121,-94,74,33,-107,199,500,189,-127,-72,-86
-33,-123,-90,78,28,-106,203,507,191,-120,-75,-91
-38,-125,-87,81,24,-106,207,515,194,-116,-80,-100
-41,-127,-86,84,22,-106,216,524,197,-119,-90,-108
-42,-130,-88,86,23,-109,227,534,199,-125,-100,-115
-43,-134,-91,88,24,-112,234,543,200,-128,-104,-123
-43,-136,-93,89,25,-114,238,550,199,-130,-106,-129
-42,-132,-90,87,24,-111,241,554,200,-134,-112,-135
-39,-126,-87,82,24,-106,243,559,200,-140,-120,-140
-33,-123,-90,78,28,-106,246,567,198,-143,-126,-145
-28,-125,-97,76,34,-111,251,577,195,-145,-130,-150
-33,-132,-99,82,33,-115,258,589,194,-146,-132,-154
-45,-143,-98,94,26,-120,266,598,194,-149,-135,-160
-59,-156,-97,107,19,-126,274,604,195,-157,-140,-165
-71,-167,-96,119,12,-131,281,608,195,-168,-148,-173
-78,-178,-100,128,11,-139,287,616,193,-176,-162,-183
-85,-188,-103,136,9,-145,291,627,190,-183,-177,-193
-94,-195,-101,144,3,-148,295,637,187,-191,-187,-202
-101,-199,-98,150,-1,-148,300,647,185,-198,-194,-208
-98,-198,-100,148,1,-149,308,658,185,-204,-198,-211
-88,-191,-103,139,7,-147,315,670,189,-208,-203,-213
-80,-181,-101,130,10,-141,321,681,193,-211,-207,-216
-77,-175,-98,126,10,-136,325,690,195,-217,-212,-222
-80,-178,-98,129,9,-138,330,696,192,-229,-222,-231
-85,-188,-103,136,9,-145,335,701,186,-242,-232,-241
-91,-197,-106,144,7,-151,338,705,179,-247,-238,-253
-96,-203,-107,149,5,-155,340,710,175,-247,-242,-261
-100,-202,-102,151,1,-152,343,716,174,-251,-249,-265
-105,-203,-98,154,-3,-150,345,721,174,-257,-257,-267
-113,-212,-99,162,-7,-155,345,723,174,-261,-260,-270
-121,-226,-105,173,-8,-165,345,722,170,-266,-262,-276
-124,-234,-110,179,-7,-172,348,718,164,-275,-267,-285
-125,-238,-113,181,-6,-175,350,712,157,-285,-276,-295
-128,-243,-115,185,-6,-179,350,709,151,-291,-284,-304
-131,-247,-116,189,-7,-181,346,707,146,-296,-291,-311
-128,-247,-119,187,-4,-183,342,706,142,-301,-294,-314
-122,-244,-122,183,0,-183,336,703,136,-306,-296,-316
-120,-243,-123,181,1,-183,332,695,131,-309,-298,-318
-121,-243,-122,182,0,-182,327,684,126,-311,-301,-321
-122,-244,-122,183,0,-183,320,675,122,-312,-304,-324
-122,-244,-122,183,0,-183,313,665,117,-312,-306,-325
-119,-240,-121,179,1,-180,305,650,114,-309,-308,-325
-117,-234,-117,175,0,-175,298,632,112,-307,-307,-322
-117,-231,-114,174,-1,-172,291,616,110,-307,-301,-318
-117,-229,-112,173,-2,-170,284,602,107,-307,-293,-312
-113,-226,-113,169,0,-169,277,589,103,-303,-288,-308
-107,-220,-113,163,3,-166,269,573,97,-294,-284,-303
-104,-211,-107,157,1,-159,259,551,93,-282,-275,-295
-102,-201,-99,151,-1,-150,246,526,88,-270,-264,-285
-97,-195,-98,146,0,-146,231,501,79,-260,-255,-272
-92,-190,-98,141,3,-144,216,477,69,-253,-245,-260
-91,-186,-95,138,2,-140,203,453,62,-250,-234,-248
-92,-180,-88,136,-2,-134,192,428,58,-245,-221,-236
-90,-176,-86,133,-2,-131,180,404,54,-234,-209,-222
-83,-171,-88,127,2,-129,167,379,49,-221,-197,-206
-73,-163,-90,118,8,-126,152,353,40,-212,-184,-193
-63,-153,-90,108,13,-121,138,329,30,-205,-172,-181
-62,-141,-79,101,8,-110,127,311,23,-195,-160,-172
-63,-132,-69,97,3,-100,118,295,19,-186,-148,-162
-59,-127,-68,93,4,-97,108,274,16,-182,-136,-152
-53,-126,-73,89,10,-99,98,251,14,-180,-124,-142
-50,-125,-75,87,12,-100,90,234,14,-174,-113,-133
-48,-123,-75,85,13,-99,83,221,14,-166,-103,-123
-46,-114,-68,80,11,-91,74,208,10,-161,-95,-114
-43,-103,-60,73,8,-81,64,193,4,-157,-88,-103
-40,-94,-54,67,7,-74,55,176,2,-149,-80,-93
-38,-88,-50,63,6,-69,48,162,3,-141,-74,-83
-40,-82,-42,61,1,-62,45,155,4,-139,-69,-75
-42,-78,-36,60,-3,-57,43,152,4,-140,-64,-69
-42,-77,-35,59,-3,-56,39,144,2,-141,-56,-63
-39,-78,-39,58,0,-58,34,137,0,-141,-48,-58
-36,-76,-40,56,2,-58,30,133,1,-138,-46,-55
-34,-73,-39,53,2,-56,25,131,3,-136,-47,-53
-33,-72,-39,52,3,-55,19,125,4,-136,-47,-51
-33,-72,-39,52,3,-55,14,118,4,-136,-43,-48
-34,-73,-39,53,2,-56,13,113,3,-132,-39,-45
-34,-73,-39,53,2,-56,13,112,3,-126,-34,-43
-33,-72,-39,52,3,-55,14,110,4,-124,-31,-42
-33,-73,-40,53,3,-56,14,107,4,-125,-29,-42
-35,-72,-37,53,1,-54,13,104,3,-130,-28,-43
-38,-72,-34,55,-2,-53,13,102,3,-135,-28,-43
-39,-73,-34,56,-2,-53,13,101,4,-137,-29,-42
-39,-73,-34,56,-2,-53,13,101,4,-136,-29,-42
-39,-71,-32,55,-3,-51,14,102,2,-133,-28,-43
-39,-68,-29,53,-5,-48,14,102,0,-131,-28,-43
-36,-67,-31,51,-2,-49,13,101,0,-130,-30,-42
-34,-67,-33,50,0,-50,13,101,0,-130,-33,-42
-36,-69,-33,52,-1,-51,16,103,1,-131,-34,-44
-41,-72,-31,56,-5,-51,22,106,3,-131,-34,-47
-48,-75,-27,61,-10,-51,29,107,6,-130,-34,-48
-52,-77,-25,64,-13,-51,33,107,8,-131,-34,-48
-53,-77,-24,65,-14,-50,34,106,9,-130,-32,-47
-53,-77,-24,65,-14,-50,33,107,8,-130,-29,-47
-53,-79,-26,66,-13,-52,35,106,10,-131,-28,-48
-53,-82,-29,67,-12,-55,38,106,13,-131,-28,-48
-49,-79,-30,64,-9,-54,40,108,15,-129,-29,-46
-43,-74,-31,58,-6,-52,42,111,18,-126,-29,-43
-40,-68,-28,54,-6,-48,45,112,23,-123,-28,-40
-38,-63,-25,50,-6,-44,47,112,28,-121,-28,-39
-40,-62,-22,51,-9,-42,48,111,29,-123,-30,-38
-42,-62,-20,52,-11,-41,48,111,28,-125,-33,-38
-43,-63,-20,53,-11,-41,48,112,30,-126,-34,-39
-43,-63,-20,53,-11,-41,48,112,33,-126,-34,-39
-41,-63,-22,52,-9,-42,46,111,34,-125,-31,-37
-39,-63,-24,51,-7,-43,43,111,34,-125,-29,-34
-38,-62,-24,50,-7,-43,40,112,34,-126,-28,-33
-38,-62,-24,50,-7,-43,39,112,34,-126,-28,-33
-40,-64,-24,52,-8,-44,38,111,32,-125,-29,-36
-42,-67,-25,54,-8,-46,38,111,29,-125,-29,-38
-45,-68,-23,56,-11,-45,39,112,28,-126,-27,-39
-47,-68,-21,57,-13,-44,39,112,28,-126,-24,-39
-48,-68,-20,58,-14,-44,36,111,29,-125,-23,-39
-48,-68,-20,58,-14,-44,34,111,29,-125,-23,-39
-45,-67,-22,56,-11,-44,33,112,28,-126,-24,-37
-43,-67,-24,55,-9,-45,34,112,28,-126,-24,-34
-44,-71,-27,57,-8,-49,32,108,29,-125,-23,-33
-47,-76,-29,61,-9,-52,29,103,29,-122,-23,-33
-50,-82,-32,66,-9,-57,28,98,28,-118,-25,-35
-52,-86,-34,69,-9,-60,28,96,28,-112,-28,-38
-53,-86,-33,69,-10,-59,29,100,30,-109,-29,-41
-53,-83,-30,68,-11,-56,29,106,33,-103,-29,-43
-50,-76,-26,63,-12,-51,28,107,36,-92,-29,-40
-48,-69,-21,58,-13,-45,28,107,38,-80,-29,-34
-47,-65,-18,56,-14,-41,29,108,38,-72,-27,-31
-47,-63,-16,55,-15,-39,29,111,38,-68,-24,-29
-48,-60,-12,54,-18,-36,28,114,40,-64,-21,-28
-48,-58,-10,53,-19,-34,28,116,42,-58,-19,-28
-47,-57,-10,52,-18,-33,29,117,42,-55,-17,-28
-47,-57,-10,52,-18,-33,29,117,39,-53,-14,-28
-48,-59,-11,53,-18,-35,28,116,37,-51,-12,-29
-48,-58,-10,53,-19,-34,28,116,38,-48,-9,-29
-46,-52,-6,49,-20,-29,30,118,41,-43,-6,-27
-43,-44,-1,43,-21,-22,33,121,46,-35,-4,-24
-40,-38,2,39,-21,-18,36,124,52,-28,-2,-22
-39,-31,8,35,-23,-11,38,125,57,-20,0,-19
-39,-18,21,28,-30,1,40,126,61,-12,1,-15
-39,-2,37,20,-38,17,42,125,66,-5,3,-9
-37,8,45,14,-41,26,44,127,72,0,4,-6
-34,17,51,8,-42,34,47,130,77,2,3,-4
-33,27,60,3,-46,43,49,134,81,9,5,-3
-33,37,70,-2,-51,53,52,139,85,17,8,0
-33,44,77,-5,-55,60,56,144,93,21,11,4
-33,51,84,-9,-58,67,61,149,100,23,13,8
-35,62,97,-13,-66,79,66,156,104,26,13,7
-34,75,109,-20,-71,92,68,163,106,32,13,4
-28,82,110,-27,-69,96,66,168,110,40,18,5
-20,86,106,-33,-63,96,63,169,116,47,23,8
-17,91,108,-37,-62,99,62,170,118,49,23,9
-18,96,114,-39,-66,105,62,173,117,48,19,9
-18,97,115,-39,-66,106,64,180,113,46,16,9
-18,97,115,-39,-66,106,63,181,108,43,14,9
-23,97,120,-37,-71,108,57,164,102,40,11,7
-28,100,128,-36,-78,114,49,139,97,39,9,4
-28,109,137,-40,-82,123,43,127,95,40,8,3
-24,120,144,-48,-84,132,36,119,93,42,8,3
-23,126,149,-51,-86,137,22,101,85,43,8,3
-24,130,154,-53,-89,142,3,81,74,43,8,3
-21,136,157,-57,-89,146,-14,72,68,42,10,5
-19,144,163,-62,-91,153,-27,72,67,42,13,8
-20,151,171,-65,-95,161,-31,73,69,43,14,9
-23,155,178,-66,-100,166,-33,69,68,43,14,9
-21,156,177,-67,-99,166,-38,60,63,41,13,8
-15,156,171,-70,-93,163,-46,49,54,39,14,8
-10,155,165,-72,-87,160,-50,44,48,38,13,9
-5,148,153,-71,-79,150,-52,43,43,38,13,9
1,129,128,-65,-63,128,-55,41,39,39,15,8
8,106,98,-57,-45,102,-61,39,35,39,18,8
10,90,80,-50,-35,85,-69,37,29,37,21,9
9,83,74,-46,-32,78,-76,34,24,34,23,9
6,77,71,-41,-32,74,-80,32,21,33,23,5
4,69,65,-36,-30,67,-81,29,19,33,19,0
5,59,54,-32,-24,56,-82,27,18,34,15,-1
4,46,42,-25,-19,44,-79,28,18,34,9,-3
-3,30,33,-13,-18,31,-67,34,21,32,6,-7
-16,16,32,0,-24,24,-47,45,23,29,1,-12
-26,8,34,9,-30,21,-25,57,24,26,-6,-17
-29,4,33,12,-31,18,-6,66,23,24,-16,-22
-23,0,23,11,-23,11,1,69,24,22,-26,-30
-18,-7,11,12,-14,2,3,68,24,19,-32,-37
-25,-14,11,19,-18,-1,5,68,21,15,-36,-42
-40,-21,19,30,-29,-1,8,68,15,10,-41,-46
-51,-33,18,42,-34,-7,9,64,8,2,-50,-54
-57,-49,8,53,-32,-20,9,59,-1,-6,-61,-65
-58,-65,-7,61,-25,-36,8,54,-14,-17,-67,-74
-58,-79,-21,68,-18,-50,9,53,-27,-27,-72,-81
-57,-87,-30,72,-13,-58,8,52,-33,-32,-77,-84
-57,-91,-34,74,-11,-62,8,53,-34,-33,-81,-86
-59,-95,-36,77,-11,-65,10,52,-33,-34,-82,-89
-62,-100,-38,81,-12,-69,13,52,-33,-34,-81,-91
-65,-106,-41,85,-12,-73,14,54,-34,-33,-83,-92
-67,-111,-44,89,-11,-77,13,57,-34,-33,-86,-92
-68,-114,-46,91,-11,-80,15,58,-33,-34,-86,-91
-68,-116,-48,92,-10,-82,18,58,-33,-34,-82,-92
-67,-119,-52,93,-7,-85,18,57,-35,-33,-79,-91
-67,-121,-54,94,-6,-87,18,58,-38,-33,-77,-91
-69,-122,-53,95,-8,-87,21,57,-39,-35,-81,-93
-72,-122,-50,97,-11,-86,27,57,-39,-38,-86,-96
-75,-121,-46,98,-14,-83,33,59,-38,-39,-88,-99
-77,-122,-45,99,-16,-83,38,62,-38,-38,-87,-101
-78,-121,-43,99,-17,-82,39,63,-40,-40,-86,-102
-78,-121,-43,99,-17,-82,39,63,-42,-42,-86,-102
-75,-123,-48,99,-13,-85,39,63,-45,-43,-87,-101
-73,-125,-52,99,-10,-88,39,63,-47,-43,-86,-101
-72,-126,-54,99,-9,-90,37,60,-48,-43,-87,-103
-73,-126,-53,99,-10,-89,34,54,-48,-43,-87,-106
-72,-125,-53,98,-9,-89,31,47,-47,-41,-86,-107
-72,-125,-53,98,-9,-89,29,43,-47,-39,-86,-107
-76,-128,-52,102,-12,-90,28,43,-48,-39,-89,-106
-81,-130,-49,105,-16,-89,29,44,-48,-39,-91,-103
-80,-129,-49,104,-15,-89,27,37,-44,-34,-90,-96
-74,-126,-52,100,-11,-89,28,45,-33,-26,-87,-92
-68,-127,-59,97,-4,-93,35,101,-7,-15,-85,-94
-60,-127,-67,93,3,-97,52,209,42,2,-80,-93
-46,-115,-69,80,11,-92,78,350,122,37,-64,-77
-31,-93,-62,62,15,-77,93,428,201,82,-39,-49
-25,-63,-38,44,6,-50,71,326,237,122,-13,-19
-28,-34,-6,31,-11,-20,15,52,213,148,9,4
-30,-12,18,21,-24,3,-60,-318,132,153,27,21
-29,12,41,8,-35,26,-139,-676,42,157,47,37
-24,50,74,-13,-49,62,-208,-910,6,184,79,66
-15,100,115,-42,-65,107,-266,-1053,11,232,121,107
-7,152,159,-72,-83,155,-319,-1200,15,285,166,152
1,199,198,-100,-98,198,-379,-1377,1,342,216,205
14,238,224,-126,-105,231,-457,-1577,-34,404,277,269
30,264,234,-147,-102,249,-546,-1790,-98,465,342,337
46,275,229,-160,-91,252,-634,-2006,-192,517,400,395
63,283,220,-173,-78,251,-727,-2218,-292,570,461,457
86,308,222,-197,-68,265,-838,-2418,-367,644,544,538
114,356,242,-235,-64,299,-952,-2588,-422,735,648,642
149,427,278,-288,-64,352,-1048,-2707,-472,830,763,762
192,518,326,-355,-67,422,-1132,-2783,-495,951,904,908
246,625,379,-435,-66,502,-1217,-2833,-454,1126,1087,1091
304,743,439,-523,-67,591,-1300,-2868,-370,1344,1301,1302
358,867,509,-612,-75,688,-1366,-2888,-286,1569,1521,1519
404,1001,597,-702,-96,799,-1415,-2878,-208,1781,1735,1730
443,1150,707,-796,-132,928,-1450,-2817,-126,1962,1932,1926
472,1296,824,-884,-176,1060,-1474,-2731,-61,2102,2106,2101
491,1419,928,-955,-218,1173,-1485,-2659,-44,2194,2249,2249
494,1520,1026,-1007,-266,1273,-1481,-2599,-71,2239,2357,2361
476,1613,1137,-1044,-330,1375,-1459,-2535,-126,2241,2425,2429
443,1695,1252,-1069,-404,1473,-1429,-2481,-216,2181,2446,2447
399,1760,1361,-1079,-481,1560,-1408,-2464,-359,2033,2412,2411
348,1800,1452,-1074,-552,1626,-1384,-2458,-541,1800,2314,2314
290,1805,1515,-1047,-612,1660,-1334,-2415,-733,1496,2146,2148
224,1741,1517,-982,-646,1629,-1248,-2308,-894,1155,1910,1915
154,1565,1411,-859,-628,1488,-1122,-2122,-983,820,1616,1622
86,1274,1188,-680,-551,1231,-958,-1850,-983,522,1276,1279
32,895,863,-463,-415,879,-765,-1496,-898,283,908,897
-10,523,533,-256,-271,528,-581,-1141,-783,76,545,522
-46,274,320,-114,-183,297,-451,-888,-706,-135,232,211
-73,154,227,-40,-150,190,-367,-723,-650,-290,23,12
-87,117,204,-15,-145,160,-298,-587,-563,-300,-39,-49
-91,113,204,-11,-147,158,-236,-460,-459,-227,-21,-36
-94,96,190,-1,-142,143,-185,-348,-382,-194,-31,-43
-96,58,154,19,-125,106,-144,-256,-331,-202,-70,-75
-97,10,107,43,-102,58,-108,-189,-290,-201,-93,-97
-97,-38,59,67,-78,10,-71,-134,-245,-181,-97,-105
-95,-76,19,85,-57,-28,-31,-74,-190,-152,-97,-110
-92,-102,-10,97,-41,-56,6,-10,-133,-126,-100,-115
-88,-117,-29,102,-29,-73,35,49,-90,-113,-107,-120
-82,-124,-42,103,-20,-83,54,101,-59,-108,-115,-125
-79,-129,-50,104,-14,-89,68,143,-32,-100,-121,-128
-78,-131,-53,104,-12,-92,79,174,-8,-89,-125,-130
-77,-127,-50,102,-13,-88,88,193,10,-78,-126,-131
-77,-122,-45,99,-16,-83,95,205,25,-69,-126,-130
-78,-120,-42,99,-18,-81,100,221,39,-63,-126,-132
-78,-121,-43,99,-17,-82,105,239,51,-58,-126,-135
-76,-122,-46,99,-15,-84,113,257,56,-56,-124,-138
-73,-122,-49,97,-12,-85,120,271,57,-57,-125,-140
-70,-121,-51,95,-9,-86,123,274,58,-63,-131,-143
-68,-121,-53,94,-7,-87,122,273,58,-71,-139,-145
-69,-122,-53,95,-8,-87,121,273,57,-75,-143,-146
-72,-122,-50,97,-11,-86,121,277,57,-74,-141,-146
-73,-121,-48,97,-12,-84,123,280,60,-68,-138,-143
-73,-121,-48,97,-12,-84,125,285,66,-60,-136,-141
-73,-122,-49,97,-12,-85,128,295,74,-51,-136,-143
-73,-122,-49,97,-12,-85,130,305,80,-47,-139,-149
-71,-121,-50,96,-10,-85,131,308,83,-52,-146,-156
-68,-121,-53,94,-7,-87,130,307,82,-61,-150,-160
-66,-122,-56,94,-5,-89,132,306,81,-65,-147,-159
-67,-122,-55,94,-6,-88,135,307,81,-63,-138,-152
-70,-121,-51,95,-9,-86,137,306,84,-60,-129,-144
-72,-121,-49,96,-11,-85,140,306,90,-54,-122,-137
-72,-122,-50,97,-11,-86,143,310,98,-46,-121,-132
-68,-122,-54,95,-7,-88,145,316,105,-40,-121,-131
-65,-121,-56,93,-4,-88,146,318,108,-37,-121,-130
-63,-121,-58,92,-2,-89,146,317,107,-38,-121,-130
-62,-122,-60,92,-1,-91,145,317,106,-39,-123,-131
-62,-122,-60,92,-1,-91,145,317,106,-38,-125,-131
-64,-120,-56,92,-4,-88,146,315,108,-39,-126,-130
-67,-117,-50,92,-8,-83,146,316,111,-39,-126,-130
-68,-116,-48,92,-10,-82,145,322,114,-37,-124,-131
-68,-116,-48,92,-10,-82,145,329,116,-34,-122,-131
-66,-117,-51,91,-7,-84,147,332,118,-33,-121,-130
-63,-117,-54,90,-4,-85,150,330,121,-34,-121,-130
-62,-114,-52,88,-5,-83,151,332,124,-32,-122,-132
-62,-112,-50,87,-6,-81,151,335,125,-29,-122,-135
-63,-112,-49,87,-7,-80,151,335,125,-29,-120,-136
-62,-116,-54,89,-4,-85,151,335,125,-29,-117,-136
-63,-119,-56,91,-3,-87,149,339,129,-25,-116,-135
-63,-121,-58,92,-2,-89,146,345,135,-19,-116,-135
-61,-121,-60,91,0,-90,145,347,136,-17,-118,-135
-58,-121,-63,89,2,-92,145,346,136,-18,-121,-135
-55,-124,-69,89,7,-96,145,345,137,-19,-123,-136
-53,-129,-76,91,11,-102,145,346,140,-18,-122,-136
-52,-136,-84,94,16,-110,147,345,143,-19,-118,-134
-52,-141,-89,96,18,-115,150,345,145,-19,-112,-131
-54,-137,-83,95,14,-110,151,348,147,-15,-110,-128
-57,-128,-71,92,7,-99,150,354,150,-10,-111,-123
-58,-119,-61,88,1,-90,152,363,154,-6,-112,-115
-58,-113,-55,85,-1,-84,155,373,159,-4,-112,-108
-57,-109,-52,83,-2,-80,156,379,164,-3,-110,-105
-57,-107,-50,82,-3,-78,156,383,169,-3,-108,-106
-58,-106,-48,82,-5,-77,155,389,172,-4,-102,-107
-58,-107,-49,82,-4,-78,155,394,174,-4,-97,-107
-56,-106,-50,81,-3,-78,157,395,176,-2,-96,-107
-53,-106,-53,79,0,-79,159,394,179,0,-96,-107
-51,-108,-57,79,3,-82,164,398,183,0,-96,-106
-52,-111,-59,81,3,-85,169,406,189,0,-96,-106
-57,-112,-55,84,-1,-83,170,417,191,0,-98,-110
-62,-112,-50,87,-6,-81,170,427,190,0,-101,-116
-60,-111,-51,85,-4,-81,170,431,189,0,-102,-118
-54,-112,-58,83,2,-85,173,433,189,-3,-102,-117
-49,-111,-62,80,6,-86,179,436,192,-6,-101,-116
-48,-111,-63,79,7,-87,187,442,198,-9,-102,-116
-47,-113,-66,80,9,-89,196,449,204,-6,-101,-117
-48,-116,-68,82,10,-92,202,456,208,-3,-101,-116
-47,-119,-72,83,12,-95,206,461,209,-8,-103,-117
-47,-121,-74,84,13,-97,208,466,209,-17,-106,-117
-49,-122,-73,85,12,-97,212,473,208,-20,-109,-116
-52,-121,-69,86,8,-95,217,481,208,-19,-111,-116
-54,-122,-68,88,7,-95,222,486,209,-17,-113,-121
-57,-125,-68,91,5,-96,227,490,209,-18,-115,-129
-60,-128,-68,94,4,-98,235,496,209,-22,-122,-135
-62,-130,-68,96,3,-99,245,504,209,-27,-129,-139
-61,-132,-71,96,5,-101,253,513,208,-30,-133,-144
-58,-131,-73,94,7,-102,257,520,208,-33,-135,-149
-58,-128,-70,93,6,-99,259,525,209,-38,-140,-154
-62,-125,-63,93,0,-94,262,529,209,-46,-149,-159
-65,-128,-63,96,-1,-95,266,537,207,-52,-155,-164
-67,-134,-67,100,0,-100,271,548,204,-57,-160,-168
-69,-138,-69,103,0,-103,278,559,203,-59,-162,-173
-72,-140,-68,106,-2,-104,285,568,203,-61,-164,-178
-76,-143,-67,109,-4,-105,291,572,204,-69,-168,-186
-81,-149,-68,115,-6,-108,296,574,204,-79,-177,-197
-82,-155,-73,118,-4,-114,298,579,202,-88,-190,-209
-82,-160,-78,121,-2,-119,301,587,200,-95,-205,-221
-81,-160,-79,120,-1,-119,304,597,197,-102,-217,-230
-81,-160,-79,120,-1,-119,310,607,195,-110,-226,-237
-82,-165,-83,123,0,-124,317,617,194,-116,-235,-242
-85,-173,-88,129,1,-130,324,626,194,-121,-242,-246
-92,-179,-87,135,-2,-133,330,636,195,-123,-248,-252
-100,-184,-84,142,-8,-134,335,646,195,-128,-255,-260
-105,-186,-81,145,-12,-133,338,655,192,-140,-267,-270
-106,-189,-83,147,-11,-136,340,661,186,-153,-280,-280
-106,-192,-86,149,-10,-139,340,666,180,-159,-287,-291
-106,-195,-89,150,-8,-142,340,671,175,-160,-290,-300
-107,-193,-86,150,-10,-139,342,676,174,-163,-297,-304
-110,-193,-83,151,-13,-138,345,681,174,-168,-305,-306
-116,-203,-87,159,-14,-145,346,686,174,-173,-309,-310
-121,-216,-95,168,-13,-155,346,688,171,-178,-311,-315
-122,-221,-99,171,-11,-160,346,685,165,-186,-314,-320
-122,-219,-97,170,-12,-158,346,679,157,-197,-320,-325
-122,-218,-96,170,-13,-157,343,673,151,-206,-326,-328
-122,-219,-97,170,-12,-158,337,669,147,-212,-330,-330
-118,-217,-99,167,-9,-158,331,665,142,-217,-331,-331
-113,-214,-101,163,-6,-157,326,659,137,-219,-330,-330
-109,-213,-104,161,-2,-158,323,651,132,-217,-332,-332
-107,-213,-106,160,0,-159,318,641,127,-214,-335,-335
-105,-214,-109,159,2,-161,310,634,122,-213,-336,-338
-102,-214,-112,158,5,-163,299,626,117,-213,-336,-341
-99,-210,-111,154,6,-160,289,613,114,-214,-333,-338
-97,-205,-108,151,5,-156,280,594,112,-214,-328,-332
-97,-201,-104,149,3,-152,270,576,110,-213,-318,-325
-97,-200,-103,148,3,-151,260,559,107,-210,-308,-318
-93,-199,-106,146,6,-152,253,544,103,-201,-304,-313
-88,-196,-108,142,10,-152,249,527,98,-188,-302,-308
-84,-189,-105,136,10,-147,244,504,94,-175,-298,-300
-82,-181,-99,131,8,-140,236,479,88,-163,-289,-290
-78,-175,-97,126,9,-136,223,454,79,-154,-278,-277
-73,-171,-98,122,12,-134,207,430,66,-147,-266,-265
-71,-164,-93,117,11,-128,194,405,54,-143,-254,-256
-68,-157,-89,112,10,-123,182,381,44,-138,-242,-246
-64,-151,-87,107,11,-119,171,355,37,-127,-228,-233
-55,-147,-92,101,18,-119,159,329,31,-114,-212,-217
-44,-141,-97,92,26,-119,145,300,21,-105,-199,-204
-35,-133,-98,84,31,-115,133,273,11,-99,-187,-192
-33,-123,-90,78,28,-106,125,254,4,-89,-177,-182
-34,-113,-79,73,22,-96,118,238,0,-79,-167,-172
-30,-108,-78,69,24,-93,110,219,-2,-75,-157,-164
-24,-107,-83,65,29,-95,99,199,-3,-73,-148,-157
-23,-106,-83,64,30,-94,90,182,-3,-67,-139,-150
-27,-103,-76,65,24,-89,83,168,-3,-59,-132,-142
-32,-97,-65,64,16,-81,78,155,-7,-55,-127,-136
-34,-88,-54,61,10,-71,74,143,-13,-53,-123,-132
-28,-81,-53,54,12,-67,69,132,-13,-48,-118,-127
-16,-75,-59,45,21,-67,64,123,-10,-40,-112,-123
-7,-66,-59,36,26,-62,59,118,-5,-35,-110,-118
-1,-59,-58,30,28,-58,54,113,-3,-34,-107,-113
3,-57,-60,27,31,-58,48,106,-5,-34,-103,-109
7,-58,-65,25,36,-61,43,98,-8,-34,-97,-107
11,-56,-67,22,39,-61,41,95,-8,-32,-96,-105
13,-53,-66,20,39,-59,39,93,-8,-29,-96,-102
13,-52,-65,19,39,-58,35,85,-11,-29,-95,-100
9,-52,-61,21,35,-56,30,75,-17,-29,-92,-97
6,-53,-59,23,32,-56,26,69,-21,-25,-89,-95
4,-53,-57,24,30,-55,24,67,-23,-20,-87,-92
3,-53,-56,25,29,-54,22,68,-24,-17,-86,-90
4,-53,-57,24,30,-55,19,68,-23,-18,-86,-87
2,-52,-54,25,28,-53,16,66,-24,-22,-87,-84
0,-52,-52,26,26,-52,14,63,-24,-27,-87,-82
0,-54,-54,27,27,-54,13,62,-22,-30,-86,-81
0,-57,-57,28,28,-57,13,62,-19,-29,-87,-81
0,-58,-58,29,29,-58,14,63,-18,-26,-86,-82
0,-58,-58,29,29,-58,14,63,-18,-24,-86,-82
0,-57,-57,28,28,-57,14,62,-19,-23,-87,-80
0,-57,-57,28,28,-57,14,62,-19,-23,-87,-78
-1,-58,-57,29,28,-57,13,64,-17,-24,-85,-77
-3,-58,-55,30,26,-56,13,67,-14,-24,-82,-77
-4,-58,-54,31,25,-56,14,68,-11,-23,-80,-78
-4,-58,-54,31,25,-56,14,68,-9,-23,-78,-77
-4,-57,-53,30,24,-55,11,67,-9,-24,-74,-78
-4,-57,-53,30,24,-55,9,68,-9,-24,-68,-78
-2,-58,-56,30,27,-57,9,67,-7,-22,-66,-76
2,-58,-60,28,31,-59,13,67,-4,-20,-67,-73
8,-56,-64,24,36,-60,16,69,-3,-15,-68,-70
13,-53,-66,20,39,-59,18,72,-3,-10,-68,-68
13,-52,-65,19,39,-58,19,73,-3,-6,-66,-67
9,-52,-61,21,35,-56,19,73,-3,-4,-63,-67
6,-53,-59,23,32,-56,18,72,-6,-4,-62,-68
4,-53,-57,24,30,-55,18,72,-8,-4,-62,-67
2,-52,-54,25,28,-53,20,73,-7,-2,-63,-68
0,-52,-52,26,26,-52,23,73,-4,0,-63,-68
0,-53,-53,26,26,-53,26,72,-3,0,-61,-66
0,-53,-53,26,26,-53,28,72,-3,0,-58,-63
0,-52,-52,26,26,-52,29,73,-4,0,-57,-62
0,-52,-52,26,26,-52,29,73,-3,0,-57,-62
0,-54,-54,27,27,-54,29,73,-4,0,-58,-63
0,-57,-57,28,28,-57,29,73,-4,0,-58,-63
0,-60,-60,30,30,-60,27,72,-2,0,-56,-61
0,-62,-62,31,31,-62,24,72,0,0,-53,-58
0,-64,-64,32,32,-64,21,73,0,0,-52,-57
0,-66,-66,33,33,-66,19,73,0,0,-52,-57
1,-71,-72,35,36,-71,19,72,-1,-1,-53,-58
3,-76,-79,36,41,-77,19,72,-3,-3,-53,-58
4,-79,-83,37,43,-81,17,73,-3,-4,-50,-57
4,-78,-82,37,43,-80,14,73,-3,-4,-47,-57
3,-75,-78,36,40,-76,13,70,-7,-3,-50,-58
3,-69,-72,33,37,-70,13,68,-13,-3,-56,-58
4,-61,-65,28,34,-63,14,69,-13,-4,-59,-56
4,-54,-58,25,31,-56,14,72,-10,-4,-58,-53
3,-51,-54,24,28,-52,13,73,-6,-3,-56,-51
3,-52,-55,24,29,-53,13,73,-4,-1,-53,-48
5,-55,-60,25,32,-57,15,73,-2,3,-50,-46
8,-57,-65,24,36,-61,18,73,0,8,-48,-43
10,-56,-66,23,38,-61,19,70,0,7,-48,-41
13,-53,-66,20,39,-59,19,64,0,1,-51,-39
16,-51,-67,17,41,-59,18,59,0,-5,-56,-38
18,-48,-66,15,42,-57,18,57,0,-8,-58,-39
19,-44,-63,12,41,-53,19,60,2,-6,-54,-37
19,-39,-58,10,38,-48,19,66,7,1,-45,-34
18,-37,-55,9,36,-46,18,72,12,10,-36,-31
18,-31,-49,6,33,-40,18,77,17,17,-30,-29
19,-17,-36,-1,27,-26,19,79,22,21,-26,-27
19,0,-19,-9,19,-9,19,81,27,23,-24,-24
18,12,-6,-15,12,3,18,84,32,25,-21,-21
18,21,3,-19,7,12,18,90,37,28,-19,-19
20,32,12,-26,4,22,20,95,41,31,-18,-19
23,45,22,-34,0,33,22,100,46,33,-19,-19
24,53,29,-38,-2,41,27,105,53,34,-17,-15
24,60,36,-42,-6,48,32,110,61,33,-14,-9
22,71,49,-46,-13,60,37,117,65,34,-14,-8
22,84,62,-53,-20,73,39,124,67,37,-14,-9
29,92,63,-60,-17,77,37,129,71,42,-10,-6
37,96,59,-66,-11,77,34,131,76,47,-5,0
40,99,59,-69,-9,79,33,130,79,49,-1,0
39,101,62,-70,-11,81,33,130,78,48,0,0
39,100,61,-69,-11,80,35,134,75,46,1,0
39,97,58,-68,-9,77,34,133,69,44,3,0
36,96,60,-66,-12,78,29,116,63,39,3,-1
33,100,67,-66,-17,83,21,92,58,34,0,-3
36,109,73,-72,-18,91,13,78,56,33,0,-4
42,119,77,-80,-17,98,6,71,54,33,0,-4
43,126,83,-84,-20,104,-4,55,47,34,0,-3
42,129,87,-85,-22,108,-19,37,40,34,2,0
44,135,91,-89,-23,113,-35,30,37,33,7,3
47,143,96,-95,-24,119,-46,32,38,33,13,8
46,152,106,-99,-30,129,-49,36,40,34,14,9
43,159,116,-101,-36,137,-47,35,39,34,14,9
45,163,118,-104,-36,140,-50,28,34,32,13,8
51,164,113,-107,-31,138,-56,20,26,29,14,8
56,165,109,-110,-26,137,-60,16,19,27,13,9
61,159,98,-110,-18,128,-62,14,15,24,13,9
68,141,73,-104,-2,107,-65,12,10,22,15,8
76,117,41,-96,17,79,-71,9,5,19,18,8
79,101,22,-90,28,61,-78,6,0,16,20,9
78,93,15,-85,31,54,-85,1,-3,14,19,9
75,87,12,-81,31,49,-89,-3,-5,13,16,6
73,80,7,-76,33,43,-91,-8,-7,14,10,1
74,71,-3,-72,38,34,-94,-10,-13,13,5,-1
74,61,-13,-67,43,24,-97,-10,-21,10,1,-3
66,49,-17,-57,41,16,-92,-4,-29,5,-2,-6
52,37,-15,-44,33,11,-78,5,-33,1,-7,-12
37,26,-11,-31,24,7,-56,17,-32,-1,-15,-18
25,17,-8,-21,16,4,-33,27,-26,-3,-26,-26
21,5,-16,-13,18,-5,-20,30,-18,-5,-35,-36
20,-6,-26,-7,23,-16,-14,29,-14,-8,-41,-45
14,-14,-28,0,21,-21,-11,30,-15,-11,-46,-51
5,-21,-26,8,15,-23,-9,33,-21,-17,-51,-56
1,-32,-33,15,17,-32,-8,33,-30,-25,-59,-64
0,-48,-48,24,24,-48,-8,30,-39,-35,-70,-75
0,-64,-64,32,32,-64,-8,26,-51,-46,-78,-84
-3,-78,-75,40,36,-76,-8,24,-61,-56,-85,-90
-6,-87,-81,46,37,-84,-9,23,-64,-61,-92,-93
-8,-91,-83,49,37,-87,-9,24,-63,-62,-100,-96
-9,-92,-83,50,37,-87,-7,23,-62,-63,-104,-100
-9,-92,-83,50,37,-87,-4,23,-62,-63,-106,-105
-8,-91,-83,49,37,-87,-3,25,-63,-62,-110,-109
-8,-91,-83,49,37,-87,-4,28,-63,-62,-115,-111
-9,-93,-84,51,37,-88,-2,29,-62,-63,-118,-113
-9,-96,-87,52,39,-91,0,29,-62,-63,-117,-116
-8,-98,-90,53,41,-94,0,29,-64,-62,-115,-118
-8,-101,-93,54,42,-97,0,29,-67,-62,-115,-121
-10,-104,-94,57,42,-99,0,27,-68,-66,-122,-124
-13,-110,-97,61,42,-103,3,24,-68,-71,-133,-129
-15,-116,-101,65,43,-108,6,23,-67,-75,-140,-134
-18,-121,-103,69,42,-112,8,23,-67,-77,-144,-139
-21,-122,-101,71,40,-111,9,24,-69,-79,-149,-144
-23,-122,-99,72,38,-110,9,24,-72,-81,-154,-149
-24,-122,-98,73,37,-110,8,23,-74,-81,-159,-154
-24,-124,-100,74,38,-112,8,23,-77,-81,-163,-159
-24,-130,-106,77,41,-118,9,24,-79,-83,-167,-165
-24,-138,-114,81,45,-126,9,24,-81,-86,-169,-173
-23,-148,-125,85,51,-136,8,23,-83,-87,-171,-179
-23,-155,-132,89,54,-143,8,23,-86,-86,-174,-184
-27,-154,-127,90,50,-140,10,25,-87,-87,-177,-186
-33,-144,-111,88,39,-127,13,25,-87,-87,-180,-185
-32,-130,-98,81,33,-114,14,17,-84,-83,-178,-181
-25,-118,-93,71,34,-105,17,23,-73,-75,-175,-179
-19,-119,-100,69,40,-109,25,81,-48,-65,-176,-184
-12,-125,-113,68,50,-119,41,197,0,-47,-176,-190
1,-121,-122,60,61,-121,65,350,77,-12,-166,-181
16,-104,-120,44,68,-112,82,446,157,31,-147,-159
21,-76,-97,27,59,-86,67,359,197,67,-124,-130
19,-46,-65,13,42,-55,21,90,177,85,-102,-103
17,-23,-40,3,28,-31,-44,-281,100,83,-86,-85
18,0,-18,-9,18,-9,-116,-646,9,78,-69,-69
23,37,14,-30,4,25,-181,-891,-30,103,-40,-42
31,86,55,-58,-12,70,-238,-1039,-26,153,1,-3
40,139,99,-89,-29,119,-289,-1186,-21,211,46,42
50,188,138,-119,-44,163,-346,-1364,-35,269,96,95
60,224,164,-142,-52,194,-423,-1566,-72,330,154,155
70,244,174,-157,-52,209,-514,-1781,-136,389,217,217
79,251,172,-165,-46,211,-605,-1998,-230,439,273,271
92,254,162,-173,-35,208,-701,-2212,-333,490,331,327
112,273,161,-192,-24,217,-814,-2423,-419,555,407,401
141,314,173,-227,-16,243,-933,-2612,-487,634,501,496
176,378,202,-277,-13,290,-1037,-2753,-553,717,607,607
219,463,244,-341,-12,353,-1125,-2844,-590,825,738,743
272,568,296,-420,-12,432,-1213,-2901,-560,997,917,921
329,686,357,-507,-14,521,-1295,-2934,-482,1216,1130,1132
383,810,427,-596,-22,618,-1361,-2954,-404,1443,1350,1348
431,943,512,-687,-40,727,-1411,-2947,-330,1657,1564,1559
472,1092,620,-782,-74,856,-1452,-2892,-241,1854,1769,1763
504,1243,739,-873,-117,991,-1485,-2808,-157,2019,1956,1950
526,1369,843,-947,-158,1106,-1506,-2739,-120,2135,2110,2109
532,1473,941,-1002,-204,1207,-1510,-2681,-131,2202,2230,2234
519,1574,1055,-1046,-268,1314,-1491,-2615,-171,2230,2317,2323
488,1668,1180,-1078,-346,1424,-1461,-2554,-243,2203,2366,2371
448,1743,1295,-1095,-423,1519,-1438,-2526,-363,2094,2361,2367
400,1794,1394,-1097,-497,1594,-1414,-2518,-529,1891,2289,2298
343,1818,1475,-1080,-566,1646,-1372,-2486,-725,1596,2138,2150
278,1784,1506,-1031,-614,1645,-1300,-2403,-908,1248,1914,1929
208,1645,1437,-926,-614,1541,-1190,-2246,-1022,906,1637,1653
140,1383,1243,-761,-551,1313,-1037,-1996,-1042,601,1310,1323
82,1003,921,-542,-419,962,-844,-1640,-964,347,934,934
36,601,565,-318,-264,583,-649,-1258,-841,120,546,532
-2,317,319,-157,-160,318,-505,-971,-753,-112,204,192
-32,173,205,-70,-118,189,-412,-784,-693,-291,-32,-34
-49,123,172,-37,-110,147,-339,-644,-610,-316,-113,-113
-56,114,170,-29,-113,142,-274,-524,-513,-243,-100,-104
-61,95,156,-17,-108,125,-221,-419,-439,-203,-110,-113
-67,53,120,7,-93,86,-176,-330,-391,-211,-153,-150
-69,3,72,33,-70,37,-138,-256,-351,-212,-180,-176
-68,-45,23,56,-45,-11,-103,-190,-306,-193,-185,-183
-66,-84,-18,75,-24,-51,-63,-118,-252,-163,-185,-188
-64,-111,-47,87,-8,-79,-24,-44,-195,-136,-188,-193
-59,-128,-69,93,5,-98,6,18,-148,-122,-193,-197
-54,-138,-84,96,15,-111,28,68,-111,-118,-198,-199
-50,-146,-96,98,23,-121,45,110,-79,-112,-202,-200
-48,-150,-102,99,27,-126,59,143,-50,-100,-203,-200
-47,-148,-101,97,27,-124,69,163,-28,-86,-204,-199
-47,-142,-95,94,24,-118,76,176,-13,-72,-203,-199
-48,-139,-91,93,21,-115,80,190,0,-59,-204,-200
-47,-140,-93,93,23,-116,85,208,11,-49,-204,-203
-48,-142,-94,95,23,-118,92,227,18,-45,-202,-206
-48,-145,-97,96,24,-121,100,244,22,-46,-202,-212
-47,-148,-101,97,27,-124,103,252,26,-53,-208,-218
-47,-150,-103,98,28,-126,102,253,28,-61,-217,-223
-49,-151,-102,100,26,-126,101,252,28,-65,-220,-225
-52,-151,-99,101,23,-125,101,252,28,-64,-219,-224
-53,-150,-97,101,22,-123,103,253,31,-58,-217,-222
-53,-151,-98,102,22,-124,106,256,36,-50,-214,-219
-53,-150,-97,101,22,-123,109,265,44,-41,-211,-218
-53,-150,-97,101,22,-123,111,275,51,-34,-209,-218
-51,-151,-100,101,24,-125,112,279,54,-35,-208,-219
-48,-151,-103,99,27,-127,112,278,53,-41,-208,-218
-47,-148,-101,97,27,-124,111,277,52,-44,-209,-219
-47,-142,-95,94,24,-118,112,278,52,-43,-209,-219
-49,-136,-87,92,19,-111,111,277,55,-40,-208,-217
-52,-131,-79,91,13,-105,111,277,60,-36,-208,-214
-53,-130,-77,91,12,-103,113,280,68,-28,-209,-211
-53,-130,-77,91,12,-103,116,285,76,-20,-209,-209
-52,-130,-78,91,13,-104,117,287,79,-17,-208,-208
-53,-130,-77,91,12,-103,117,287,78,-18,-208,-208
-52,-132,-80,92,14,-106,116,287,76,-19,-210,-209
-52,-135,-83,93,15,-109,116,287,73,-19,-213,-208
-54,-136,-82,95,14,-109,117,285,72,-19,-214,-209
-56,-135,-79,95,11,-107,117,285,72,-19,-214,-209
-61,-137,-76,99,7,-106,116,291,74,-17,-212,-207
-66,-143,-77,104,5,-110,116,300,77,-14,-209,-204
-71,-151,-80,111,4,-115,118,303,79,-13,-208,-202
-73,-156,-83,114,5,-119,121,302,80,-14,-209,-200
-69,-151,-82,110,6,-116,122,303,85,-12,-207,-200
-61,-139,-78,100,8,-108,122,306,90,-9,-202,-200
-50,-130,-80,90,15,-105,121,306,93,-9,-194,-198
-43,-126,-83,84,20,-104,122,306,95,-9,-186,-195
-44,-127,-83,85,19,-105,121,310,100,-5,-183,-193
-51,-130,-79,90,14,-104,121,315,105,2,-184,-190
-56,-131,-75,93,9,-103,123,317,107,7,-186,-187
-58,-131,-73,94,7,-102,125,317,107,8,-189,-185
-56,-130,-74,93,9,-102,127,318,108,9,-191,-185
-53,-130,-77,91,12,-103,129,321,111,9,-190,-185
-52,-131,-79,91,13,-105,134,323,113,8,-186,-183
-52,-131,-79,91,13,-105,140,325,116,8,-181,-180
-54,-130,-76,92,11,-103,141,328,118,10,-178,-181
-57,-130,-73,93,8,-101,140,333,120,13,-179,-184
-58,-131,-73,94,7,-102,142,343,124,14,-180,-185
-58,-131,-73,94,7,-102,145,353,129,14,-179,-185
-57,-129,-72,93,7,-100,145,359,133,13,-180,-184
-57,-126,-69,91,6,-97,142,360,135,14,-180,-184
-58,-125,-67,91,4,-96,138,362,136,13,-178,-185
-58,-125,-67,91,4,-96,136,365,135,13,-175,-185
-57,-128,-71,92,7,-99,136,365,136,15,-174,-183
-57,-133,-76,95,9,-104,139,365,139,18,-174,-181
-58,-142,-84,100,13,-113,144,368,144,19,-174,-177
-61,-150,-89,105,14,-119,150,376,149,19,-174,-174
-67,-149,-82,108,7,-115,151,387,152,19,-176,-177
-72,-143,-71,107,0,-107,151,397,151,19,-179,-183
-70,-136,-66,103,-2,-101,151,402,150,17,-180,-186
-64,-131,-67,97,1,-99,154,404,150,14,-180,-185
-61,-130,-69,95,4,-99,158,406,154,12,-178,-184
-62,-130,-68,96,3,-99,163,411,162,12,-175,-184
-65,-132,-67,98,1,-99,169,419,171,18,-172,-185
-67,-135,-68,101,0,-101,174,426,178,23,-170,-184
-68,-138,-70,103,1,-104,175,432,181,20,-170,-185
-67,-140,-73,103,3,-106,174,437,180,11,-173,-185
-69,-141,-72,105,1,-106,175,443,179,6,-177,-184
-72,-140,-68,106,-2,-104,178,450,179,8,-179,-184
-74,-142,-68,108,-3,-105,182,459,182,10,-179,-186
-77,-145,-68,111,-4,-106,187,469,188,9,-179,-189
-79,-147,-68,113,-5,-107,196,481,194,6,-182,-189
-81,-150,-69,115,-6,-109,206,493,199,1,-188,-189
-81,-153,-72,117,-4,-112,214,503,200,-1,-191,-192
-81,-155,-74,118,-3,-114,222,510,200,-2,-193,-198
-84,-156,-72,120,-6,-114,227,515,200,-8,-199,-203
-90,-155,-65,122,-12,-110,232,520,200,-16,-206,-207
-94,-157,-63,125,-15,-110,237,527,198,-22,-213,-212
-96,-160,-64,128,-16,-112,242,537,195,-24,-217,-217
-98,-161,-63,129,-17,-112,248,548,194,-22,-220,-222
-100,-160,-60,130,-20,-110,255,558,194,-22,-223,-227
-105,-162,-57,133,-24,-109,264,564,195,-29,-226,-233
-110,-168,-58,139,-26,-113,275,568,195,-39,-231,-241
-112,-174,-62,143,-25,-118,283,575,193,-48,-241,-250
-112,-179,-67,145,-22,-123,290,586,190,-55,-254,-260
-111,-179,-68,145,-21,-123,295,597,187,-63,-264,-268
-111,-179,-68,145,-21,-123,300,606,185,-70,-271,-276
-112,-183,-71,147,-20,-127,307,616,184,-76,-276,-281
-115,-192,-77,153,-19,-134,314,626,184,-81,-281,-285
-120,-199,-79,159,-20,-139,320,634,185,-83,-285,-291
-125,-203,-78,164,-23,-140,324,642,185,-89,-289,-299
-126,-205,-79,165,-23,-142,328,647,182,-100,-298,-308
-126,-208,-82,167,-22,-145,330,651,176,-113,-309,-318
-126,-211,-85,168,-20,-148,331,656,170,-120,-316,-329
-129,-214,-85,171,-22,-149,330,661,165,-121,-320,-338
-134,-212,-78,173,-28,-145,332,666,164,-124,-327,-343
-139,-212,-73,175,-33,-142,335,671,164,-129,-334,-345
-145,-221,-76,183,-34,-148,337,677,164,-133,-337,-347
-150,-235,-85,192,-32,-160,340,682,162,-138,-336,-350
-151,-241,-90,196,-30,-165,343,682,156,-147,-336,-352
-151,-239,-88,195,-31,-163,346,679,148,-157,-339,-355
-151,-239,-88,195,-31,-163,343,674,141,-166,-344,-357
-151,-243,-92,197,-29,-167,338,669,137,-173,-350,-360
-147,-244,-97,195,-25,-170,332,665,132,-177,-351,-361
-142,-244,-102,193,-20,-173,327,660,127,-179,-350,-361
-139,-243,-104,191,-17,-173,323,650,121,-179,-352,-360
-140,-243,-103,191,-18,-173,319,637,114,-179,-355,-360
-141,-244,-103,192,-19,-173,311,627,106,-181,-356,-361
-141,-244,-103,192,-19,-173,300,617,98,-184,-356,-361
-139,-241,-102,190,-18,-171,290,605,94,-184,-353,-358
-136,-235,-99,185,-18,-167,281,589,92,-181,-348,-353
-136,-231,-95,183,-20,-163,271,574,90,-177,-339,-345
-136,-229,-93,182,-21,-161,261,560,88,-172,-328,-338
-133,-226,-93,179,-20,-159,251,545,84,-164,-321,-332
-127,-221,-94,174,-16,-157,242,528,79,-154,-314,-327
-124,-212,-88,168,-18,-150,231,506,74,-143,-304,-321
-122,-202,-80,162,-21,-141,218,481,69,-133,-291,-310
-120,-196,-76,158,-22,-136,204,454,62,-125,-278,-297
-117,-191,-74,154,-21,-132,189,427,55,-118,-266,-282
-117,-185,-68,151,-24,-126,176,400,49,-114,-255,-269
-117,-177,-60,147,-28,-118,164,374,44,-109,-243,-257
-113,-171,-58,142,-27,-114,152,349,39,-99,-230,-243
-105,-166,-61,135,-22,-113,140,324,31,-85,-217,-228
-93,-161,-68,127,-12,-114,127,299,22,-76,-207,-215
-83,-153,-70,118,-6,-111,115,275,11,-70,-197,-203
-80,-143,-63,111,-8,-103,106,254,3,-60,-188,-191
-82,-133,-51,107,-15,-92,99,235,-2,-50,-178,-178
-79,-127,-48,103,-15,-87,90,213,-8,-45,-168,-168
-74,-126,-52,100,-11,-89,81,191,-13,-44,-159,-159
-70,-124,-54,97,-8,-89,72,174,-14,-38,-148,-149
-68,-119,-51,93,-8,-85,65,163,-13,-30,-138,-138
-67,-110,-43,88,-12,-76,59,154,-16,-26,-130,-130
-64,-99,-35,81,-14,-67,54,144,-22,-25,-124,-124
-58,-92,-34,75,-12,-63,50,132,-25,-19,-116,-117
-50,-88,-38,69,-6,-63,48,120,-24,-11,-109,-109
-43,-83,-40,63,-1,-61,46,111,-23,-5,-103,-101
-39,-78,-39,58,0,-58,44,104,-23,-4,-98,-93
-38,-77,-39,57,0,-58,40,96,-25,-4,-93,-89
-38,-78,-40,58,1,-59,35,88,-28,-4,-87,-87
-40,-76,-36,58,-2,-56,31,85,-29,-2,-86,-85
-42,-73,-31,57,-5,-52,29,83,-28,0,-87,-82
-43,-72,-29,57,-7,-50,27,77,-30,0,-85,-80
-43,-72,-29,57,-7,-50,24,69,-33,0,-79,-78
-43,-73,-30,58,-6,-51,23,66,-34,2,-73,-76
-43,-73,-30,58,-6,-51,23,67,-34,7,-68,-73
-41,-73,-32,57,-4,-52,24,68,-33,11,-67,-72
-39,-73,-34,56,-2,-53,23,68,-33,14,-67,-72
-38,-72,-34,55,-2,-53,24,66,-34,12,-68,-73
-38,-72,-34,55,-2,-53,24,63,-34,9,-68,-73
-39,-74,-35,56,-2,-54,22,62,-33,8,-66,-71
-38,-77,-39,57,0,-58,20,62,-33,8,-64,-68
-39,-78,-39,58,0,-58,16,63,-35,10,-60,-66
-39,-78,-39,58,0,-58,14,63,-38,13,-58,-63
-37,-77,-40,57,1,-58,13,62,-39,14,-58,-61
-34,-77,-43,55,4,-60,13,62,-39,14,-58,-58
-33,-78,-45,55,6,-61,14,64,-37,13,-56,-57
-33,-78,-45,55,6,-61,13,67,-35,13,-53,-57
-34,-76,-42,55,4,-59,14,67,-31,14,-52,-58
-34,-74,-40,54,3,-57,14,64,-29,13,-53,-58
-33,-70,-37,51,2,-53,12,60,-28,14,-51,-57
-33,-68,-35,50,1,-51,9,58,-29,14,-48,-57
-34,-69,-35,51,0,-52,8,57,-27,13,-48,-58
-34,-72,-38,53,2,-55,8,57,-24,13,-51,-58
-33,-73,-40,53,3,-56,9,59,-23,15,-55,-57
-33,-73,-40,53,3,-56,9,62,-24,18,-57,-57
-35,-72,-37,53,1,-54,9,63,-22,19,-58,-58
-38,-73,-35,55,-1,-54,9,63,-19,19,-57,-58
-40,-72,-32,56,-4,-52,8,62,-19,16,-59,-57
-42,-72,-30,57,-6,-51,8,62,-19,14,-62,-57
-43,-74,-31,58,-6,-52,11,64,-16,15,-63,-58
-43,-77,-34,60,-4,-55,16,66,-10,18,-63,-58
-41,-79,-38,60,-1,-58,23,70,-6,19,-61,-56
-39,-81,-42,60,1,-61,28,72,-4,19,-58,-53
-38,-81,-43,59,2,-62,29,73,-3,18,-57,-52
-38,-81,-43,59,2,-62,29,73,-3,18,-57,-52
-39,-83,-44,61,2,-63,28,72,-4,19,-58,-53
-39,-86,-47,62,4,-66,28,72,-4,19,-58,-53
-38,-87,-49,62,5,-68,29,73,-3,18,-56,-51
-38,-87,-49,62,5,-68,29,72,-3,18,-53,-48
-39,-86,-47,62,4,-66,28,73,-5,19,-52,-47
-39,-86,-47,62,4,-66,28,73,-8,19,-52,-47
-35,-88,-53,61,9,-70,30,72,-10,18,-53,-49
-26,-91,-65,58,19,-78,33,72,-9,18,-53,-52
-19,-91,-72,55,26,-81,34,73,-6,20,-50,-54
-14,-88,-74,51,30,-81,33,73,-4,23,-48,-57
-13,-85,-72,49,29,-78,35,71,-5,25,-49,-58
-13,-83,-70,48,28,-76,37,68,-8,28,-52,-58
-14,-78,-64,46,25,-71,41,69,-7,31,-52,-57
-14,-73,-59,43,22,-66,42,72,-1,33,-49,-54
-12,-72,-60,42,24,-66,42,73,2,34,-46,-49
-9,-76,-67,42,29,-71,39,72,3,33,-43,-44
-8,-82,-74,45,33,-78,38,74,5,35,-41,-40
-8,-87,-79,47,35,-83,38,77,8,38,-39,-39
-9,-83,-74,46,32,-78,39,78,9,39,-38,-38
-9,-72,-63,40,27,-67,39,78,9,39,-38,-38
-8,-60,-52,34,22,-56,38,76,7,38,-39,-39
-8,-50,-42,29,17,-46,38,77,7,38,-39,-39
-9,-44,-35,26,13,-39,39,81,13,38,-35,-35
-9,-37,-28,23,9,-32,42,89,21,38,-26,-26
-7,-25,-18,16,5,-21,44,95,27,39,-18,-18
-4,-9,-5,6,0,-7,47,100,32,41,-11,-11
-3,4,7,0,-5,5,50,105,38,46,-4,-4
-3,15,18,-6,-10,16,52,110,45,51,0,0
-4,26,30,-11,-17,28,52,115,51,55,0,0
-4,36,40,-16,-22,38,52,120,55,57,0,0
-3,40,43,-18,-23,41,55,124,63,59,1,2
-3,39,42,-18,-22,40,61,129,71,62,3,7
-5,39,44,-17,-24,41,64,134,75,64,3,9
-5,44,49,-19,-27,46,64,139,77,66,3,8
2,55,53,-28,-25,54,59,142,80,71,6,11
15,71,56,-43,-20,63,54,141,85,76,12,17
24,90,66,-57,-21,78,52,139,88,79,14,20
28,104,76,-66,-24,90,52,140,88,78,14,19
30,106,76,-68,-23,91,52,144,83,75,14,19
30,99,69,-64,-19,84,50,144,75,70,14,19
24,92,68,-58,-22,80,42,128,67,62,12,17
15,90,75,-52,-30,82,32,103,59,54,9,14
12,97,85,-54,-36,91,24,89,56,51,9,13
13,108,95,-60,-41,101,17,81,54,52,12,13
13,116,103,-64,-45,109,6,65,48,53,16,14
13,120,107,-66,-47,113,-8,44,40,53,22,17
15,125,110,-70,-47,117,-24,33,37,52,27,22
18,133,115,-75,-48,124,-36,33,38,52,32,27
18,141,123,-79,-52,132,-41,35,40,53,34,29
18,145,127,-81,-54,136,-42,35,40,53,34,29
23,143,120,-83,-48,131,-46,29,34,50,33,28
31,134,103,-82,-36,118,-51,21,26,44,34,28
37,124,87,-80,-25,105,-53,16,19,39,33,28
40,112,72,-76,-16,92,-52,14,15,35,33,28
49,95,46,-72,1,70,-54,12,10,32,35,29
59,77,18,-68,20,47,-60,9,5,29,38,32
66,67,1,-66,32,34,-67,7,0,27,39,36
68,64,-4,-66,36,30,-72,4,-2,24,39,39
66,59,-7,-62,36,26,-72,2,-5,23,37,36
63,51,-12,-57,37,19,-69,0,-8,24,34,30
63,40,-23,-51,43,8,-66,-1,-11,22,32,26
64,28,-36,-46,50,-4,-61,-1,-13,20,29,24
57,15,-42,-36,49,-13,-49,5,-13,17,26,22
44,3,-41,-23,42,-19,-30,18,-10,14,21,20
29,-4,-33,-12,31,-18,-10,33,-6,12,13,16
16,-10,-26,-3,21,-18,5,45,-4,10,3,11
11,-21,-32,5,21,-26,12,49,-3,6,-5,3
9,-35,-44,13,26,-39,13,48,-3,1,-12,-6
5,-44,-49,19,27,-46,15,48,-6,-2,-16,-12
-1,-50,-49,25,24,-49,18,48,-11,-6,-21,-16
-6,-59,-53,32,23,-56,18,45,-19,-14,-29,-24
-8,-73,-65,40,28,-69,15,40,-30,-25,-40,-35
-9,-86,-77,47,34,-81,11,36,-41,-36,-47,-44
-9,-98,-89,53,40,-93,9,34,-50,-45,-51,-51
-8,-106,-98,57,45,-102,8,33,-54,-52,-56,-55
-8,-111,-103,59,47,-107,8,33,-53,-56,-61,-57
-8,-112,-104,60,48,-108,10,33,-52,-60,-63,-59
-8,-112,-104,60,48,-108,13,33,-52,-62,-62,-62
-9,-111,-102,60,46,-106,12,34,-53,-63,-64,-63
-9,-111,-102,60,46,-106,9,34,-53,-63,-67,-63
-8,-113,-105,60,48,-109,8,32,-52,-63,-68,-62
-8,-115,-107,61,49,-111,8,29,-52,-63,-68,-63
-9,-119,-110,64,50,-114,8,28,-54,-62,-67,-62
-12,-124,-112,68,50,-118,8,28,-57,-62,-67,-62
-17,-129,-112,73,47,-120,10,28,-58,-64,-71,-64
-22,-134,-112,78,45,-123,12,28,-58,-67,-76,-66
-26,-138,-112,82,43,-125,16,30,-57,-68,-78,-69
-28,-140,-112,84,42,-126,18,33,-57,-67,-78,-72
-29,-141,-112,85,41,-126,19,34,-59,-69,-77,-73
-29,-141,-112,85,41,-126,19,33,-62,-72,-78,-73
-26,-140,-114,83,44,-127,18,35,-63,-73,-76,-71
-20,-137,-117,78,48,-127,18,37,-63,-72,-74,-68
-16,-132,-116,74,50,-124,19,40,-61,-74,-71,-67
-14,-126,-112,70,49,-119,19,42,-58,-77,-68,-67
-12,-127,-115,69,51,-121,18,43,-57,-78,-67,-68
-12,-133,-121,72,54,-127,18,43,-57,-77,-67,-68
-17,-141,-124,79,53,-132,19,43,-58,-78,-68,-67
-23,-145,-122,84,49,-133,19,43,-58,-78,-68,-64
-22,-143,-121,82,49,-132,18,43,-55,-74,-65,-58
-16,-137,-121,76,52,-129,18,59,-45,-66,-59,-53
-11,-136,-125,73,57,-130,21,112,-20,-55,-56,-54
-4,-137,-133,70,64,-135,32,199,25,-37,-51,-55
11,-127,-138,58,74,-132,53,296,97,-8,-37,-42
33,-103,-136,35,84,-119,68,332,171,29,-13,-15
45,-67,-112,11,78,-89,53,214,206,67,15,17
48,-26,-74,-11,61,-50,4,-61,186,95,44,48
47,6,-41,-26,44,-17,-67,-432,109,107,66,71
47,35,-12,-41,29,11,-148,-800,18,115,87,92
51,74,23,-62,14,48,-219,-1053,-23,144,119,123
59,122,63,-90,-2,92,-278,-1203,-18,197,163,167
68,174,106,-121,-19,140,-329,-1340,-10,259,212,218
77,223,146,-150,-34,184,-385,-1502,-23,323,266,275
90,264,174,-177,-42,219,-459,-1690,-62,387,328,339
106,294,188,-200,-41,241,-547,-1896,-127,447,395,406
122,311,189,-216,-33,250,-638,-2105,-213,503,460,469
139,324,185,-231,-23,254,-734,-2307,-300,563,531,537
160,349,189,-254,-14,269,-843,-2495,-361,647,623,627
188,396,208,-292,-10,302,-957,-2653,-397,751,736,741
223,469,246,-346,-11,357,-1056,-2760,-430,861,861,868
265,566,301,-415,-18,433,-1141,-2823,-444,988,1007,1013
317,680,363,-498,-23,521,-1224,-2865,-408,1161,1192,1192
374,804,430,-589,-28,617,-1303,-2889,-331,1374,1408,1400
430,928,498,-679,-34,713,-1362,-2890,-251,1597,1630,1619
477,1054,577,-765,-50,815,-1403,-2859,-177,1806,1838,1832
513,1192,679,-852,-83,935,-1432,-2792,-102,1979,2025,2023
536,1331,795,-933,-129,1063,-1453,-2710,-43,2107,2184,2187
545,1447,902,-996,-178,1174,-1465,-2645,-35,2188,2317,2323
541,1540,999,-1040,-229,1269,-1464,-2595,-72,2223,2417,2427
521,1626,1105,-1073,-292,1365,-1443,-2533,-131,2213,2478,2486
487,1698,1211,-1092,-362,1454,-1408,-2464,-213,2143,2486,2491
443,1736,1293,-1089,-425,1514,-1370,-2414,-340,1983,2427,2434
390,1732,1342,-1061,-476,1537,-1324,-2369,-501,1740,2299,2312
330,1688,1358,-1009,-514,1523,-1252,-2289,-664,1442,2111,2128
264,1590,1326,-927,-531,1458,-1152,-2157,-801,1115,1864,1880
192,1412,1220,-802,-514,1316,-1031,-1972,-887,778,1555,1567
123,1145,1022,-634,-449,1083,-887,-1720,-902,464,1201,1204
69,796,727,-432,-329,761,-714,-1386,-835,210,827,819
30,443,413,-236,-191,428,-541,-1034,-726,6,473,458
0,207,207,-103,-103,207,-411,-775,-645,-185,186,177
-23,102,125,-39,-74,113,-330,-618,-589,-325,4,7
-36,74,110,-19,-73,92,-269,-502,-512,-334,-47,-43
-41,71,112,-15,-76,91,-217,-399,-419,-257,-24,-27
-44,50,94,-3,-69,72,-171,-309,-349,-216,-29,-33
-47,7,54,20,-50,30,-130,-233,-308,-228,-72,-69
-48,-37,11,42,-29,-13,-93,-169,-276,-236,-101,-96
-48,-74,-26,61,-11,-50,-56,-109,-240,-222,-107,-105
-46,-106,-60,76,7,-83,-17,-42,-190,-195,-107,-110
-44,-129,-85,86,20,-107,21,29,-134,-168,-110,-115
-40,-143,-103,91,31,-123,51,90,-91,-153,-115,-119
-35,-149,-114,92,39,-131,71,136,-62,-147,-120,-122
-31,-152,-121,91,45,-136,88,173,-36,-140,-124,-120
-29,-152,-123,90,47,-137,102,201,-11,-130,-125,-114
-28,-147,-119,87,45,-133,114,220,8,-119,-126,-107
-28,-142,-114,85,43,-128,123,234,23,-109,-125,-102
-29,-139,-110,84,40,-124,129,247,38,-102,-126,-104
-28,-140,-112,84,42,-126,133,262,49,-98,-126,-113
-29,-141,-112,85,41,-126,141,277,56,-95,-124,-122
-29,-141,-112,85,41,-126,149,289,57,-95,-124,-129
-28,-140,-112,84,42,-126,152,293,58,-101,-130,-133
-28,-140,-112,84,42,-126,151,292,58,-109,-138,-135
-30,-141,-111,85,40,-126,150,291,57,-114,-142,-136
-33,-141,-108,87,37,-124,150,291,57,-113,-141,-136
-34,-140,-106,87,36,-123,152,292,59,-108,-139,-134
-34,-140,-106,87,36,-123,154,294,65,-100,-136,-131
-34,-141,-107,87,36,-124,157,303,73,-91,-134,-130
-34,-141,-107,87,36,-124,160,314,80,-87,-131,-130
-32,-140,-108,86,38,-124,161,318,83,-89,-130,-131
-29,-140,-111,84,41,-125,161,317,82,-95,-130,-130
-28,-141,-113,84,42,-127,161,316,81,-97,-131,-131
-28,-141,-113,84,42,-127,161,317,81,-93,-131,-131
-30,-140,-110,85,40,-125,159,316,83,-89,-129,-129
-33,-140,-107,86,37,-123,156,316,89,-84,-126,-124
-34,-141,-107,87,36,-124,155,319,97,-76,-124,-118
-34,-141,-107,87,36,-124,156,324,105,-69,-122,-113
-33,-140,-107,86,37,-123,155,326,108,-67,-120,-111
-34,-140,-106,87,36,-123,152,326,107,-71,-117,-111
-33,-141,-108,87,37,-124,148,326,106,-75,-116,-112
-33,-141,-108,87,37,-124,146,326,106,-77,-116,-112
-35,-139,-104,87,34,-121,145,325,108,-78,-117,-111
-38,-136,-98,87,30,-117,145,324,110,-78,-117,-111
-39,-135,-96,87,28,-115,145,330,113,-76,-116,-112
-39,-135,-96,87,28,-115,145,338,116,-73,-113,-112
-37,-136,-99,86,31,-117,147,342,118,-72,-109,-109
-34,-136,-102,85,34,-119,150,341,121,-73,-104,-103
-33,-133,-100,83,33,-116,151,342,123,-71,-98,-99
-33,-127,-94,80,30,-110,151,345,125,-68,-93,-97
-34,-124,-90,79,28,-107,150,345,125,-68,-89,-96
-33,-125,-92,79,29,-108,150,345,125,-68,-87,-96
-34,-127,-93,80,29,-110,150,348,128,-65,-86,-97
-34,-130,-96,82,31,-113,150,354,134,-59,-86,-97
-32,-131,-99,81,33,-115,151,356,136,-56,-89,-96
-30,-131,-101,80,35,-116,151,356,136,-57,-94,-96
-27,-130,-103,78,38,-116,149,356,136,-58,-100,-97
-24,-130,-106,77,41,-118,146,359,139,-57,-102,-97
-23,-131,-108,77,42,-119,147,362,142,-58,-99,-96
-23,-131,-108,77,42,-119,150,365,145,-58,-93,-96
-25,-130,-105,77,40,-117,151,367,147,-56,-90,-98
-28,-130,-102,79,37,-116,150,372,149,-53,-91,-101
-29,-131,-102,80,36,-116,152,381,154,-52,-94,-102
-29,-131,-102,80,36,-116,155,392,159,-52,-99,-101
-28,-129,-101,78,36,-115,156,397,162,-53,-106,-103
-28,-126,-98,77,35,-112,155,399,164,-52,-111,-106
-29,-125,-96,77,33,-110,156,401,166,-53,-111,-107
-29,-125,-96,77,33,-110,159,404,168,-53,-108,-107
-27,-125,-98,76,35,-111,163,404,172,-51,-106,-107
-25,-125,-100,75,37,-112,167,404,177,-49,-106,-107
-22,-127,-105,74,41,-116,174,407,183,-46,-106,-106
-22,-130,-108,76,43,-119,182,415,188,-43,-106,-106
-27,-131,-104,79,38,-117,187,425,190,-41,-108,-109
-33,-131,-98,82,32,-114,189,436,190,-39,-111,-115
-32,-130,-98,81,33,-114,191,441,189,-39,-112,-118
-26,-131,-105,78,39,-118,193,443,189,-41,-112,-117
-21,-130,-109,75,44,-119,197,445,192,-44,-111,-116
-22,-130,-108,76,43,-119,202,450,197,-44,-111,-116
-27,-132,-105,79,39,-118,207,457,203,-39,-113,-117
-36,-134,-98,85,31,-116,212,465,207,-34,-119,-116
-43,-138,-95,90,26,-116,215,471,209,-37,-127,-117
-47,-140,-93,93,23,-116,217,476,209,-45,-134,-117
-47,-141,-94,94,23,-117,221,481,208,-49,-136,-116
-44,-140,-96,92,26,-118,227,489,208,-48,-132,-116
-40,-142,-102,91,31,-122,231,496,210,-46,-128,-120
-38,-145,-107,91,34,-126,236,503,212,-47,-129,-127
-40,-146,-106,93,33,-126,244,513,215,-50,-136,-135
-42,-146,-104,94,31,-125,254,523,218,-56,-147,-143
-42,-146,-104,94,31,-125,262,532,219,-59,-153,-150
-42,-146,-104,94,31,-125,267,539,219,-61,-155,-158
-45,-145,-100,95,27,-122,268,543,219,-66,-158,-164
-51,-145,-94,98,21,-119,268,548,219,-74,-163,-168
-55,-148,-93,101,19,-120,268,555,217,-82,-167,-173
-57,-154,-97,105,20,-125,271,565,214,-86,-169,-178
-58,-158,-100,108,21,-129,276,577,213,-86,-171,-181
-61,-160,-99,110,19,-129,283,587,213,-86,-173,-184
-66,-163,-97,114,15,-130,292,593,214,-90,-177,-187
-71,-167,-96,119,12,-131,299,597,214,-98,-185,-192
-73,-173,-100,123,13,-136,304,604,212,-107,-198,-200
-73,-179,-106,126,16,-142,306,614,210,-114,-214,-210
-72,-179,-107,125,17,-143,307,625,207,-121,-225,-219
-72,-179,-107,125,17,-143,310,635,204,-128,-231,-226
-73,-183,-110,128,18,-146,315,645,203,-134,-237,-232
-76,-191,-115,133,19,-153,323,654,203,-139,-242,-236
-81,-198,-117,139,18,-157,329,662,204,-143,-246,-242
-85,-202,-117,143,16,-159,334,670,204,-147,-250,-250
-87,-205,-118,146,15,-161,338,677,202,-158,-258,-257
-87,-207,-120,147,16,-163,340,685,197,-171,-269,-264
-86,-211,-125,148,19,-168,340,692,191,-178,-276,-273
-86,-214,-128,150,21,-171,340,699,186,-179,-281,-280
-87,-211,-124,149,18,-167,342,705,184,-181,-287,-284
-90,-208,-118,149,14,-163,345,710,184,-184,-294,-286
-95,-213,-118,154,11,-165,346,713,184,-185,-299,-289
-100,-225,-125,162,12,-175,346,713,181,-188,-301,-294
-102,-231,-129,166,13,-180,346,707,175,-195,-304,-301
-102,-229,-127,165,12,-178,346,696,167,-205,-309,-309
-102,-228,-126,165,12,-177,343,686,161,-213,-315,-316
-102,-229,-127,165,12,-178,338,679,157,-218,-320,-320
-99,-227,-128,163,14,-177,332,675,153,-219,-322,-322
-93,-224,-131,158,19,-177,327,670,147,-219,-322,-322
-90,-223,-133,156,21,-178,323,661,142,-217,-321,-321
-91,-223,-132,157,20,-177,319,648,138,-214,-321,-321
-92,-224,-132,158,20,-178,311,637,132,-213,-322,-323
-92,-224,-132,158,20,-178,301,628,127,-214,-322,-325
-90,-221,-131,155,20,-176,290,614,124,-212,-321,-326
-87,-215,-128,151,20,-171,281,597,122,-209,-318,-323
-87,-211,-124,149,18,-167,271,578,119,-207,-312,-318
-87,-209,-122,148,17,-165,261,562,114,-205,-304,-310
-84,-207,-123,145,19,-165,252,546,107,-199,-299,-302
-79,-202,-123,140,22,-162,243,529,99,-189,-294,-294
-76,-194,-118,135,21,-156,231,508,93,-177,-285,-287
-74,-183,-109,128,17,-146,215,482,89,-165,-273,-281
-70,-175,-105,122,17,-140,198,457,81,-155,-260,-272
-64,-171,-107,117,21,-139,180,433,71,-147,-248,-262
-61,-168,-107,114,23,-137,166,408,62,-143,-236,-251
-59,-165,-106,112,23,-135,155,384,55,-138,-223,-239
-54,-164,-110,109,28,-137,143,360,49,-129,-211,-224
-46,-162,-116,104,35,-139,131,335,42,-116,-199,-209
-36,-156,-120,96,42,-138,117,310,32,-106,-188,-195
-26,-145,-119,85,46,-132,105,285,22,-100,-178,-183
-23,-133,-110,78,43,-121,96,267,14,-90,-169,-174
-24,-124,-100,74,38,-112,89,251,10,-80,-159,-164
-21,-120,-99,70,39,-109,81,229,6,-75,-149,-154
-16,-121,-105,68,44,-113,71,204,4,-74,-139,-141
-11,-123,-112,67,50,-117,62,182,4,-68,-130,-127
-9,-123,-114,66,52,-118,55,165,4,-60,-124,-115
-7,-118,-111,62,52,-114,48,154,0,-55,-118,-107
-5,-109,-104,57,49,-106,41,144,-6,-53,-113,-103
-2,-103,-101,52,49,-102,35,134,-11,-50,-108,-99
0,-98,-98,49,49,-98,30,124,-13,-44,-103,-94
0,-93,-93,46,46,-93,27,118,-13,-41,-99,-88
0,-88,-88,44,44,-88,25,114,-13,-39,-94,-83
2,-86,-88,42,45,-87,21,107,-15,-37,-87,-80
7,-87,-94,40,50,-90,15,99,-18,-35,-79,-78
11,-85,-96,37,53,-90,11,95,-19,-31,-76,-76
13,-82,-95,34,54,-88,9,93,-18,-29,-77,-74
14,-81,-95,33,54,-88,7,88,-20,-29,-77,-71
14,-81,-95,33,54,-88,4,80,-23,-29,-74,-69
13,-83,-96,35,54,-89,3,76,-24,-26,-69,-66
13,-85,-98,36,55,-91,3,77,-24,-20,-64,-63
14,-88,-102,37,58,-95,4,78,-23,-17,-60,-62
14,-91,-105,38,59,-98,4,78,-23,-17,-58,-62
12,-92,-104,40,58,-98,4,76,-24,-21,-57,-63
9,-92,-101,41,55,-96,4,73,-24,-27,-57,-62
8,-92,-100,42,54,-96,3,72,-23,-30,-58,-63
8,-92,-100,42,54,-96,3,72,-23,-29,-58,-63
8,-90,-98,41,53,-94,5,73,-25,-27,-57,-62
8,-87,-95,39,51,-91,7,73,-28,-24,-57,-59
10,-86,-96,38,53,-91,10,72,-29,-23,-59,-55
13,-86,-99,36,56,-92,13,72,-29,-23,-62,-53
14,-87,-101,36,57,-94,14,74,-27,-24,-63,-53
14,-87,-101,36,57,-94,14,77,-25,-24,-63,-57
13,-87,-100,37,56,-93,14,78,-22,-23,-63,-58
13,-87,-100,37,56,-93,14,78,-19,-23,-63,-58
15,-86,-101,35,58,-93,12,77,-19,-24,-61,-57
17,-86,-103,34,60,-94,9,78,-19,-24,-58,-57
20,-88,-108,34,64,-98,8,77,-17,-23,-57,-58
23,-91,-114,34,68,-102,8,77,-14,-23,-58,-58
24,-92,-116,34,70,-104,9,79,-14,-24,-57,-57
24,-92,-116,34,70,-104,9,81,-18,-24,-54,-57
23,-91,-114,34,68,-102,8,82,-19,-23,-50,-58
20,-91,-111,35,65,-101,8,82,-19,-23,-48,-58
16,-93,-109,38,62,-101,10,81,-19,-24,-48,-57
10,-95,-105,42,57,-100,12,81,-19,-24,-51,-57
6,-98,-104,46,55,-101,15,82,-17,-22,-53,-58
4,-101,-105,48,54,-103,18,82,-14,-19,-53,-58
5,-102,-107,48,56,-104,19,81,-13,-18,-51,-56
8,-102,-110,47,59,-106,19,81,-13,-18,-48,-53
9,-101,-110,46,59,-105,18,82,-14,-19,-47,-52
9,-101,-110,46,59,-105,18,82,-13,-19,-47,-52
8,-103,-111,47,59,-107,20,81,-14,-18,-48,-53
8,-106,-114,49,61,-110,22,81,-14,-18,-48,-53
9,-107,-116,49,62,-111,25,82,-12,-18,-46,-51
9,-107,-116,49,62,-111,28,82,-9,-18,-43,-48
8,-105,-113,48,60,-109,29,81,-8,-19,-43,-47
8,-99,-107,45,57,-103,28,81,-8,-19,-46,-48
10,-92,-102,41,56,-97,30,82,-8,-18,-50,-46
13,-87,-100,37,56,-93,33,82,-8,-18,-52,-43
12,-89,-101,38,56,-95,33,80,-9,-19,-52,-43
6,-98,-104,46,55,-101,33,77,-9,-19,-49,-46
0,-107,-107,53,53,-107,36,80,-6,-16,-46,-51
-3,-111,-108,57,52,-109,41,85,0,-10,-43,-56
-3,-110,-107,56,52,-108,42,88,0,-7,-42,-57
1,-104,-105,51,53,-104,40,87,-6,-8,-42,-54
9,-100,-109,45,59,-104,38,86,-13,-9,-44,-50
16,-98,-114,41,65,-106,38,86,-18,-9,-47,-48
20,-94,-114,37,67,-104,39,87,-17,-8,-48,-47
19,-88,-107,34,63,-97,39,87,-11,-8,-48,-47
18,-84,-102,33,60,-93,38,86,-5,-9,-48,-48
18,-80,-98,31,58,-89,38,86,-1,-9,-48,-48
20,-73,-93,26,56,-83,39,89,2,-8,-46,-46
22,-62,-84,20,53,-73,42,95,7,-5,-41,-41
25,-51,-76,13,50,-63,44,98,11,-1,-34,-34
27,-39,-66,6,46,-52,46,100,16,2,-26,-26
30,-25,-55,-2,42,-40,49,104,23,7,-20,-20
33,-12,-45,-10,39,-28,52,109,30,12,-15,-15
34,-5,-39,-14,36,-22,52,115,38,15,-12,-12
34,-1,-35,-16,34,-18,52,120,44,18,-10,-10
34,3,-31,-18,32,-14,55,124,52,20,-7,-6
34,13,-21,-23,27,-4,61,129,60,23,-4,-1
33,28,-5,-30,19,11,64,134,65,25,-4,0
32,43,11,-37,10,27,64,139,66,27,-4,0
37,52,15,-44,11,33,60,143,70,32,0,2
45,56,11,-50,17,33,54,145,76,37,6,7
49,61,12,-55,18,36,51,146,79,40,11,9
48,66,18,-57,15,42,52,149,79,39,13,9
48,68,20,-58,14,44,54,154,74,38,14,8
49,68,19,-58,15,43,54,154,66,35,14,9
44,67,23,-55,10,45,49,139,57,30,12,7
36,70,34,-53,1,52,42,115,50,25,10,5
32,78,46,-55,-7,62,34,99,46,23,7,2
33,88,55,-60,-11,71,27,91,44,23,4,0
34,95,61,-64,-13,78,16,76,39,24,3,0
33,99,66,-66,-16,82,2,54,31,24,3,0
35,106,71,-70,-18,88,-12,41,27,23,6,2
38,117,79,-77,-20,98,-22,39,28,23,12,7
38,127,89,-82,-25,108,-24,38,30,24,15,9
37,134,97,-85,-30,115,-23,36,30,24,15,9
43,136,93,-89,-25,114,-27,29,25,22,11,8
53,136,83,-94,-15,109,-36,21,17,20,6,8
63,135,72,-99,-4,103,-41,16,10,17,0,9
70,131,61,-100,4,96,-42,14,5,14,-3,9
77,113,36,-95,20,74,-45,12,1,12,-3,7
84,87,3,-85,40,45,-50,10,-2,10,-1,4
88,67,-21,-77,54,23,-56,7,-7,7,1,3
88,56,-32,-72,60,12,-61,5,-12,4,0,1
84,49,-35,-66,59,7,-65,1,-15,2,-2,-3
82,42,-40,-62,61,1,-70,-5,-18,1,-6,-11
82,32,-50,-57,66,-9,-76,-14,-20,-2,-11,-17
83,19,-64,-51,73,-22,-79,-19,-23,-6,-16,-21
76,5,-71,-40,73,-33,-71,-14,-24,-12,-23,-28
60,-8,-68,-26,64,-38,-51,1,-24,-16,-33,-38
42,-20,-62,-11,52,-41,-30,20,-23,-21,-47,-50
27,-29,-56,1,41,-42,-13,35,-24,-26,-62,-62
21,-41,-62,10,41,-51,-4,41,-23,-32,-73,-74
20,-53,-73,16,46,-63,-1,39,-23,-37,-80,-84
15,-62,-77,23,46,-69,2,38,-25,-41,-84,-89
6,-69,-75,31,40,-72,7,39,-31,-46,-89,-94
1,-79,-80,39,40,-79,9,36,-38,-50,-97,-102
0,-95,-95,47,47,-95,9,31,-48,-55,-108,-112
0,-111,-111,55,55,-111,8,26,-59,-60,-115,-122
0,-126,-126,63,63,-126,9,24,-70,-65,-120,-129
0,-135,-135,67,67,-135,8,23,-74,-71,-124,-132
0,-140,-140,70,70,-140,8,24,-73,-79,-129,-135
0,-141,-141,70,70,-141,10,23,-72,-85,-131,-137
0,-141,-141,70,70,-141,13,23,-72,-90,-131,-140
-1,-140,-139,70,69,-139,14,25,-73,-92,-131,-140
-6,-140,-134,73,64,-137,13,28,-73,-92,-131,-137
-13,-142,-129,77,58,-135,15,29,-72,-91,-129,-134
-18,-144,-126,81,54,-135,17,29,-72,-92,-127,-131
-16,-147,-131,81,57,-139,20,28,-74,-91,-124,-130
-7,-150,-143,78,68,-146,22,29,-77,-91,-124,-130
0,-152,-152,76,76,-152,26,28,-78,-93,-128,-132
4,-154,-158,75,81,-156,32,28,-78,-96,-134,-134
1,-157,-158,78,79,-157,36,30,-77,-97,-136,-137
-5,-160,-155,82,75,-157,38,32,-77,-96,-136,-140
-13,-161,-148,87,67,-154,39,34,-78,-97,-135,-141
-18,-160,-142,89,62,-151,39,34,-80,-100,-135,-141
-18,-161,-143,89,62,-152,38,31,-83,-104,-136,-140
-14,-164,-150,89,68,-157,38,26,-86,-109,-136,-140
-14,-165,-151,89,68,-158,39,19,-87,-116,-136,-142
-14,-165,-151,89,68,-158,39,14,-87,-124,-136,-145
-10,-164,-154,87,72,-159,38,15,-86,-125,-135,-145
-2,-164,-162,83,80,-163,38,20,-86,-119,-135,-142
2,-165,-167,81,84,-166,39,28,-87,-113,-136,-138
4,-165,-169,80,86,-167,39,33,-87,-109,-136,-133
3,-162,-165,79,84,-163,38,32,-85,-103,-133,-127
1,-157,-158,78,79,-157,38,38,-75,-95,-127,-122
-2,-156,-154,79,76,-155,41,73,-52,-85,-124,-123
-2,-157,-155,79,76,-156,50,149,-8,-68,-120,-124
7,-150,-157,71,82,-153,70,267,65,-37,-108,-113
24,-129,-153,52,88,-141,87,359,148,5,-84,-86
31,-95,-126,32,78,-110,74,308,196,49,-55,-52
30,-57,-87,13,58,-72,27,85,187,83,-24,-20
28,-26,-54,-1,41,-40,-42,-264,117,97,0,3
31,-2,-33,-14,32,-17,-120,-640,24,104,21,23
38,27,-11,-32,24,8,-189,-908,-23,131,55,53
48,70,22,-59,13,46,-246,-1060,-19,183,101,96
59,125,66,-92,-3,95,-296,-1188,-9,245,150,146
71,188,117,-129,-23,152,-348,-1336,-14,309,204,203
87,247,160,-167,-36,203,-417,-1507,-44,373,266,267
104,291,187,-197,-41,239,-503,-1699,-102,435,334,334
121,308,187,-214,-33,247,-593,-1910,-191,487,394,394
137,309,172,-223,-17,240,-688,-2126,-293,539,453,453
159,321,162,-240,-1,241,-796,-2331,-371,611,532,532
187,357,170,-272,8,263,-911,-2504,-421,707,635,638
218,418,200,-318,9,309,-1012,-2623,-462,813,753,761
255,501,246,-378,4,373,-1097,-2692,-486,940,892,906
299,600,301,-449,-1,450,-1179,-2737,-461,1110,1068,1083
351,711,360,-531,-4,535,-1258,-2768,-393,1320,1277,1289
409,832,423,-620,-7,627,-1324,-2780,-318,1545,1502,1510
466,964,498,-715,-16,731,-1376,-2767,-248,1758,1723,1728
512,1108,596,-810,-42,852,-1418,-2719,-178,1936,1921,1925
542,1251,709,-896,-83,980,-1449,-2651,-123,2070,2091,2095
558,1374,816,-966,-129,1095,-1467,-2595,-112,2160,2237,2244
559,1474,915,-1016,-178,1194,-1469,-2549,-147,2207,2353,2366
546,1561,1015,-1053,-234,1288,-1450,-2488,-204,2211,2428,2443
517,1639,1122,-1078,-302,1380,-1418,-2423,-284,2156,2451,2466
477,1702,1225,-1089,-374,1463,-1389,-2392,-410,2014,2414,2430
428,1745,1317,-1086,-444,1531,-1362,-2384,-575,1789,2317,2335
371,1759,1388,-1065,-508,1573,-1315,-2350,-746,1512,2163,2181
307,1707,1400,-1007,-546,1553,-1235,-2257,-890,1202,1945,1961
234,1541,1307,-887,-536,1424,-1115,-2087,-978,867,1647,1658
159,1252,1093,-705,-467,1172,-955,-1831,-991,544,1287,1291
97,877,780,-487,-341,828,-764,-1493,-919,281,907,901
53,499,446,-276,-196,472,-574,-1134,-804,71,547,533
21,239,218,-130,-98,228,-434,-865,-717,-134,239,230
-2,116,118,-57,-60,117,-349,-698,-664,-306,21,23
-15,72,87,-28,-51,79,-286,-574,-593,-355,-71,-67
-22,56,78,-17,-50,67,-230,-465,-502,-305,-77,-80
-25,30,55,-2,-40,42,-183,-372,-430,-269,-90,-93
-28,-13,15,20,-21,1,-145,-296,-385,-274,-130,-127
-29,-60,-31,44,1,-45,-112,-232,-350,-277,-158,-153
-29,-101,-72,65,21,-86,-78,-173,-311,-263,-164,-162
-28,-134,-106,81,39,-120,-40,-105,-260,-236,-165,-167
-25,-158,-133,91,54,-145,0,-32,-202,-208,-168,-173
-21,-171,-150,96,64,-160,30,29,-155,-192,-172,-177
-16,-178,-162,97,73,-170,50,75,-123,-187,-178,-179
-10,-181,-171,95,80,-176,67,112,-96,-180,-182,-180
-3,-181,-178,92,87,-179,81,141,-72,-169,-184,-180
4,-177,-181,86,92,-179,93,161,-52,-158,-185,-179
9,-171,-180,81,94,-175,103,174,-35,-149,-185,-179
6,-169,-175,81,90,-172,110,188,-19,-142,-185,-181
-3,-169,-166,86,81,-167,114,206,-4,-137,-185,-183
-16,-170,-154,93,69,-162,121,224,4,-134,-184,-186
-27,-170,-143,98,58,-156,128,239,8,-134,-183,-188
-28,-169,-141,98,56,-155,132,246,9,-139,-188,-191
-21,-169,-148,95,63,-158,131,244,9,-147,-197,-194
-16,-170,-154,93,69,-162,130,243,8,-153,-201,-195
-14,-170,-156,92,71,-163,130,243,7,-153,-200,-195
-13,-169,-156,91,71,-162,131,243,12,-145,-198,-193
-13,-169,-156,91,71,-162,134,245,23,-132,-196,-190
-14,-170,-156,92,71,-163,137,253,37,-117,-192,-189
-15,-170,-155,92,70,-162,140,264,50,-107,-190,-189
-10,-168,-158,89,74,-163,140,269,53,-111,-191,-191
0,-163,-163,81,81,-163,137,268,46,-125,-197,-193
10,-157,-167,73,88,-162,134,267,38,-136,-203,-196
18,-151,-169,66,93,-160,131,268,34,-141,-208,-199
16,-152,-168,68,92,-160,130,267,34,-139,-207,-199
7,-158,-165,75,86,-161,130,267,39,-134,-202,-196
0,-164,-164,82,82,-164,132,270,47,-126,-196,-193
-3,-168,-165,85,81,-166,135,276,55,-119,-191,-190
-4,-170,-166,87,81,-168,136,278,59,-115,-188,-189
-4,-170,-166,87,81,-168,136,278,58,-116,-189,-189
-3,-170,-167,86,82,-168,135,277,57,-117,-191,-190
-3,-170,-167,86,82,-168,135,278,57,-116,-194,-190
-5,-168,-163,86,79,-165,136,277,59,-117,-195,-189
-7,-165,-158,86,75,-161,136,276,61,-117,-195,-189
-9,-164,-155,86,73,-159,135,281,64,-115,-193,-190
-9,-164,-155,86,73,-159,135,289,67,-112,-190,-190
-7,-165,-158,86,75,-161,138,293,69,-113,-189,-188
-4,-165,-161,84,78,-163,143,292,71,-119,-189,-185
-3,-162,-159,82,78,-160,148,293,74,-124,-190,-184
-3,-157,-154,80,75,-155,150,296,77,-125,-190,-184
-4,-154,-150,79,73,-152,151,296,77,-126,-187,-185
-3,-155,-152,79,74,-153,151,296,77,-126,-182,-184
-4,-157,-153,80,74,-155,150,299,80,-123,-177,-185
-4,-160,-156,82,76,-158,150,305,85,-118,-175,-185
-3,-161,-158,82,77,-159,152,307,87,-115,-175,-183
-1,-161,-160,81,79,-160,155,307,87,-112,-178,-181
1,-160,-161,79,81,-160,156,307,87,-110,-181,-178
3,-160,-163,78,83,-161,155,310,90,-107,-181,-176
4,-161,-165,78,84,-163,157,312,93,-106,-177,-173
4,-161,-165,78,84,-163,160,312,96,-107,-171,-170
2,-160,-162,79,82,-161,161,311,98,-105,-168,-169
0,-160,-160,80,80,-160,160,314,100,-102,-169,-169
0,-161,-161,80,80,-161,161,322,104,-102,-171,-169
0,-161,-161,80,80,-161,164,332,109,-105,-173,-169
0,-159,-159,79,79,-159,165,338,114,-108,-176,-171
0,-156,-156,78,78,-156,165,340,116,-111,-179,-174
0,-155,-155,77,77,-155,164,342,117,-112,-179,-175
0,-155,-155,77,77,-155,164,345,116,-112,-176,-175
0,-155,-155,77,77,-155,165,345,117,-110,-174,-174
3,-155,-158,76,80,-156,168,345,120,-107,-174,-174
4,-157,-161,76,82,-159,173,348,124,-106,-176,-176
5,-160,-165,77,85,-162,178,356,129,-106,-181,-181
1,-161,-162,80,81,-161,180,366,131,-106,-189,-190
-3,-161,-158,82,77,-159,180,376,131,-106,-197,-200
-3,-160,-157,81,77,-158,180,383,130,-108,-201,-205
0,-160,-160,80,80,-160,183,387,130,-114,-200,-204
0,-160,-160,80,80,-160,187,393,132,-120,-199,-203
-2,-160,-158,81,78,-159,192,401,138,-122,-199,-203
-5,-161,-156,83,75,-158,197,409,144,-118,-201,-205
-8,-163,-155,85,73,-159,199,416,149,-112,-206,-207
-9,-166,-157,87,74,-161,199,421,151,-114,-213,-210
-8,-169,-161,88,76,-165,199,426,151,-122,-221,-213
-9,-170,-161,89,76,-165,201,432,150,-127,-226,-213
-12,-169,-157,90,72,-163,206,440,150,-127,-228,-213
-15,-171,-156,93,70,-163,211,447,151,-124,-230,-217
-17,-174,-157,95,70,-165,215,454,154,-124,-236,-225
-20,-175,-155,97,67,-165,224,463,157,-128,-242,-232
-23,-175,-152,99,64,-163,234,473,160,-134,-247,-237
-23,-175,-152,99,64,-163,242,482,161,-137,-246,-241
-23,-175,-152,99,64,-163,246,489,161,-139,-244,-245
-26,-174,-148,100,61,-161,249,494,161,-144,-246,-250
-31,-174,-143,102,56,-158,251,499,161,-152,-254,-255
-36,-177,-141,106,52,-159,255,506,159,-159,-262,-260
-38,-182,-144,110,53,-163,260,517,156,-163,-266,-265
-39,-186,-147,112,54,-166,266,528,155,-165,-268,-270
-41,-188,-147,114,53,-167,274,537,155,-167,-267,-275
-45,-192,-147,118,51,-169,282,544,156,-174,-268,-281
-50,-197,-147,123,48,-172,288,548,156,-185,-273,-288
-54,-203,-149,128,47,-176,296,555,155,-194,-285,-297
-57,-208,-151,132,47,-179,303,565,152,-201,-301,-307
-59,-208,-149,133,45,-178,311,575,149,-207,-312,-316
-62,-208,-146,135,42,-177,318,585,146,-215,-319,-323
-63,-211,-148,137,42,-179,326,594,145,-223,-325,-328
-65,-220,-155,142,45,-187,333,602,145,-231,-332,-333
-71,-228,-157,149,43,-192,339,607,146,-237,-339,-339
-77,-233,-156,155,39,-194,344,612,146,-243,-346,-347
-74,-233,-159,153,42,-196,348,616,144,-255,-357,-355
-60,-230,-170,145,55,-200,350,621,138,-268,-370,-365
-42,-227,-185,134,71,-206,351,626,132,-276,-379,-376
-30,-225,-195,127,82,-210,350,631,127,-277,-386,-386
-33,-222,-189,127,78,-205,352,638,125,-279,-394,-392
-52,-221,-169,136,58,-195,355,645,125,-284,-402,-394
-76,-229,-153,152,38,-191,356,651,125,-289,-406,-396
-97,-243,-146,170,24,-194,356,653,124,-293,-407,-401
-102,-250,-148,176,23,-199,356,650,118,-302,-411,-409
-95,-249,-154,172,29,-201,356,642,110,-312,-419,-419
-88,-247,-159,167,35,-203,354,635,103,-320,-429,-429
-83,-248,-165,165,41,-206,348,630,98,-325,-436,-436
-79,-247,-168,163,44,-207,342,628,95,-326,-440,-440
-74,-244,-170,159,48,-207,337,626,92,-326,-439,-439
-72,-243,-171,157,49,-207,333,619,90,-324,-438,-438
-73,-243,-170,158,48,-206,328,609,88,-322,-439,-438
-72,-244,-172,158,50,-208,321,599,84,-321,-438,-439
-66,-245,-179,155,56,-212,311,590,79,-322,-435,-439
-56,-241,-185,148,64,-213,301,576,75,-321,-432,-437
-48,-235,-187,141,69,-211,291,558,73,-318,-427,-432
-52,-233,-181,142,64,-207,281,542,72,-315,-419,-424
-69,-237,-168,153,49,-202,272,527,73,-310,-409,-417
-86,-240,-154,163,34,-197,262,514,72,-301,-400,-410
-95,-241,-146,168,25,-193,252,500,69,-288,-393,-403
-95,-234,-139,164,22,-186,241,480,65,-276,-384,-394
-86,-223,-137,154,25,-180,229,455,61,-266,-371,-381
-76,-215,-139,145,31,-177,216,430,53,-259,-358,-366
-66,-210,-144,138,39,-177,201,405,43,-254,-346,-352
-59,-205,-146,132,43,-175,186,381,34,-252,-334,-339
-51,-198,-147,124,48,-172,171,356,26,-250,-322,-327
-42,-190,-148,116,53,-169,156,332,20,-243,-309,-314
-29,-183,-154,106,62,-168,142,308,13,-233,-297,-298
-17,-175,-158,96,70,-166,128,282,3,-224,-286,-284
-6,-165,-159,85,76,-162,116,257,-8,-217,-277,-272
-2,-154,-152,78,75,-153,107,237,-19,-208,-267,-262
-3,-144,-141,73,69,-142,100,221,-26,-198,-257,-251
-4,-138,-134,71,65,-136,92,203,-31,-192,-247,-243
-4,-136,-132,70,64,-134,85,183,-33,-187,-237,-236
-4,-135,-131,69,63,-133,78,166,-33,-179,-229,-230
-6,-133,-127,69,60,-130,74,155,-33,-169,-222,-222
-13,-127,-114,70,50,-120,71,146,-35,-161,-214,-214
-23,-120,-97,71,37,-108,68,139,-38,-158,-204,-204
-35,-113,-78,74,21,-95,67,131,-38,-151,-193,-194
-45,-109,-64,77,9,-86,68,124,-35,-143,-183,-183
-49,-103,-54,76,2,-78,67,119,-33,-139,-177,-176
-49,-98,-49,73,0,-73,64,114,-33,-140,-176,-171
-46,-96,-50,71,2,-73,60,108,-35,-141,-172,-168
-42,-96,-54,69,6,-75,54,100,-38,-141,-166,-165
-34,-96,-62,65,14,-79,51,93,-39,-140,-166,-165
-23,-96,-73,59,25,-84,49,86,-41,-140,-172,-168
-13,-98,-85,55,36,-91,46,75,-45,-142,-177,-172
-5,-101,-96,53,45,-98,43,62,-51,-145,-180,-174
-3,-102,-99,52,48,-100,42,55,-53,-144,-178,-174
-3,-102,-99,52,48,-100,42,56,-53,-138,-176,-171
-3,-101,-98,52,47,-99,43,58,-52,-134,-174,-169
-3,-101,-98,52,47,-99,43,58,-52,-134,-174,-169
-6,-101,-95,53,44,-98,42,57,-53,-137,-175,-170
-11,-101,-90,56,39,-95,42,57,-53,-140,-175,-170
-16,-102,-86,59,35,-94,43,59,-52,-140,-174,-169
-18,-102,-84,60,33,-93,43,62,-52,-137,-174,-169
-19,-100,-81,59,31,-90,42,63,-54,-134,-176,-171
-19,-97,-78,58,29,-87,42,63,-56,-131,-181,-177
-17,-96,-79,56,31,-87,43,62,-58,-130,-189,-183
-14,-97,-83,55,34,-90,43,62,-58,-130,-197,-188
-14,-96,-82,55,34,-89,42,64,-56,-131,-201,-191
-17,-93,-76,55,29,-84,42,67,-54,-130,-200,-194
-19,-90,-71,54,26,-80,43,68,-51,-131,-199,-195
-22,-87,-65,54,21,-76,43,67,-48,-131,-200,-195
-27,-86,-59,56,16,-72,42,68,-46,-129,-198,-194
-37,-86,-49,61,6,-67,42,71,-44,-127,-195,-194
-49,-88,-39,68,-5,-63,43,74,-40,-124,-194,-195
-59,-90,-31,74,-14,-60,46,76,-35,-122,-195,-195
-66,-93,-27,79,-19,-60,49,80,-33,-120,-194,-194
-70,-95,-25,82,-22,-60,51,84,-34,-118,-191,-191
-76,-98,-22,87,-27,-60,54,88,-32,-115,-188,-188
-84,-100,-16,92,-34,-58,57,91,-29,-112,-185,-185
-89,-103,-14,96,-37,-58,58,92,-28,-111,-184,-184
-91,-105,-14,98,-38,-59,58,92,-29,-112,-185,-184
-92,-108,-16,100,-38,-62,57,91,-28,-110,-184,-185
-91,-111,-20,101,-35,-65,57,91,-25,-108,-181,-185
-92,-112,-20,102,-36,-66,59,93,-21,-106,-177,-182
-95,-112,-17,103,-39,-64,65,99,-16,-106,-172,-177
-99,-111,-12,105,-43,-61,71,105,-10,-107,-167,-172
-105,-111,-6,108,-49,-58,76,110,-5,-108,-165,-170
-108,-113,-5,110,-51,-59,78,112,-3,-104,-164,-169
-107,-116,-9,111,-49,-62,78,112,-3,-96,-165,-170
-105,-117,-12,111,-46,-64,77,111,-3,-87,-164,-169
-105,-116,-11,110,-47,-63,78,111,-1,-80,-162,-166
-110,-117,-7,113,-51,-62,77,113,2,-76,-159,-162
-120,-120,0,120,-60,-60,77,119,6,-77,-157,-157
-132,-123,9,127,-70,-57,78,124,12,-79,-154,-154
-142,-125,17,133,-79,-54,81,129,17,-81,-152,-152
-148,-125,23,136,-85,-51,82,132,20,-81,-149,-148
-150,-122,28,136,-89,-47,82,134,19,-78,-146,-142
-151,-121,30,136,-90,-45,82,138,17,-78,-146,-139
-154,-119,35,136,-94,-42,84,143,17,-79,-147,-137
-158,-111,47,134,-102,-32,91,149,23,-74,-142,-132
-163,-98,65,130,-114,-16,101,157,36,-63,-131,-125
-167,-85,82,126,-124,-1,113,165,50,-52,-121,-118
-171,-73,98,122,-134,12,122,172,63,-43,-112,-111
-180,-60,120,120,-150,30,128,178,72,-33,-99,-99
-191,-45,146,118,-168,50,129,182,79,-23,-81,-81
-197,-31,166,114,-181,67,133,187,84,-13,-63,-63
-198,-19,179,108,-188,80,138,192,89,-4,-49,-48
-202,-7,195,104,-198,94,143,198,95,4,-36,-36
-207,3,210,102,-208,106,147,205,103,11,-24,-25
-208,15,223,96,-215,119,155,211,111,17,-11,-10
-207,27,234,90,-220,130,166,216,119,22,0,4
-213,41,254,86,-233,147,173,222,123,25,5,10
-224,53,277,85,-250,165,175,227,125,27,3,9
-232,61,293,85,-262,177,173,229,127,31,5,10
-233,66,299,83,-266,182,171,228,132,36,11,16
-234,70,304,82,-269,187,169,230,140,41,15,20
-234,76,310,79,-272,193,169,238,147,46,14,19
-232,78,310,77,-271,194,170,250,153,49,13,18
-230,78,308,76,-269,193,170,259,156,52,13,18
-241,77,318,82,-279,197,168,250,154,52,14,18
-263,79,342,92,-302,210,165,227,151,52,17,18
-282,86,368,98,-325,227,164,213,151,55,21,19
-293,97,390,98,-341,243,163,208,152,60,26,22
-298,105,403,96,-350,254,155,194,147,64,30,25
-298,109,407,94,-352,258,138,172,139,63,32,27
-295,115,410,90,-352,262,122,160,134,62,36,31
-292,122,414,85,-353,268,110,159,134,62,40,36
-293,129,422,82,-357,275,104,161,137,63,44,41
-296,134,430,81,-363,282,99,159,137,63,46,45
-295,136,431,79,-363,283,92,150,133,62,49,50
-289,135,424,77,-356,279,81,140,125,59,52,55
-284,137,421,73,-352,279,75,133,118,56,53,59
-280,138,418,71,-349,278,73,131,114,54,53,62
-273,129,402,72,-337,265,71,129,109,51,53,64
-265,110,375,77,-320,242,65,127,104,49,55,66
-262,94,356,84,-309,225,59,125,99,46,61,69
-265,84,349,90,-307,216,54,125,93,43,69,72
-271,79,350,96,-310,214,52,126,90,42,75,72
-276,72,348,102,-312,210,52,126,88,42,78,69
-277,60,337,108,-307,198,52,125,85,43,77,67
-276,39,315,118,-295,177,54,124,82,43,74,67
-282,16,298,133,-290,157,64,129,81,42,72,67
-294,-5,289,149,-291,142,82,140,81,40,70,65
-309,-20,289,164,-299,134,102,152,81,36,63,59
-322,-29,293,175,-307,132,120,162,81,31,52,52
-328,-40,288,184,-308,124,129,166,82,26,43,42
-330,-53,277,191,-303,112,131,165,82,21,37,33
-333,-61,272,197,-302,105,131,164,79,15,29,25
-338,-65,273,201,-305,104,131,162,72,8,20,17
-342,-72,270,207,-306,99,130,157,62,-1,6,8
-342,-84,258,213,-300,87,127,149,49,-12,-8,-3
-338,-100,238,219,-288,69,124,142,35,-25,-18,-15
-330,-116,214,223,-272,49,123,137,23,-38,-22,-25
-321,-126,195,223,-258,34,120,134,16,-47,-26,-32
-314,-130,184,222,-249,27,117,131,14,-51,-32,-36
-310,-131,179,220,-244,24,117,130,14,-53,-34,-41
-311,-131,180,221,-245,24,120,130,14,-53,-34,-46
-312,-130,182,221,-247,26,122,132,13,-52,-34,-49
-313,-129,184,221,-248,27,121,135,13,-52,-37,-52
-309,-133,176,221,-242,21,122,136,14,-53,-39,-53
-301,-141,160,221,-230,9,125,136,14,-53,-39,-53
-292,-150,142,221,-217,-4,126,136,13,-52,-37,-52
-284,-157,127,220,-205,-15,125,136,10,-52,-37,-52
-282,-164,118,223,-200,-23,126,134,6,-55,-42,-54
-284,-171,113,227,-198,-29,129,131,2,-60,-53,-60
-289,-180,109,234,-199,-35,132,130,-2,-64,-62,-66
-292,-188,104,240,-198,-42,135,131,-7,-66,-66,-71
-289,-189,100,239,-194,-44,135,130,-10,-69,-68,-73
-279,-183,96,231,-187,-43,132,127,-12,-72,-68,-73
-265,-177,88,221,-176,-44,129,124,-15,-73,-67,-72
-252,-175,77,213,-164,-49,126,122,-17,-72,-67,-72
-246,-174,72,210,-159,-51,125,121,-20,-74,-68,-74
-247,-175,72,211,-159,-51,125,121,-22,-77,-68,-76
-248,-174,74,211,-161,-50,126,123,-24,-78,-67,-78
-247,-174,73,210,-160,-50,126,123,-27,-77,-67,-78
-249,-175,74,212,-161,-50,125,117,-31,-79,-69,-77
-252,-176,76,214,-164,-50,123,99,-39,-85,-72,-75
-251,-172,79,211,-165,-46,120,70,-46,-87,-72,-69
-243,-166,77,204,-160,-44,117,52,-45,-85,-69,-63
-233,-165,68,199,-150,-48,118,94,-24,-77,-66,-64
-218,-166,52,192,-135,-57,128,206,24,-60,-62,-65
-196,-160,36,178,-116,-62,146,362,102,-30,-49,-55
-173,-140,33,156,-103,-53,162,482,190,12,-27,-29
-159,-106,53,132,-106,-26,149,448,248,56,1,3
-156,-62,94,109,-125,16,100,229,253,91,30,35
-154,-23,131,88,-142,54,28,-108,196,106,54,59
-148,10,158,69,-153,84,-51,-465,113,112,77,79
-144,52,196,46,-170,124,-121,-715,77,140,111,109
-141,103,244,19,-192,173,-176,-846,99,196,156,151
-139,160,299,-10,-219,229,-224,-958,132,264,206,201
-135,215,350,-40,-242,282,-276,-1102,145,333,259,257
-124,260,384,-68,-254,322,-345,-1282,127,400,318,320
-109,292,401,-91,-255,346,-431,-1488,77,461,380,384
-94,309,403,-107,-248,356,-516,-1697,0,514,437,443
-77,319,396,-121,-236,357,-604,-1902,-93,566,494,500
-55,336,391,-140,-223,363,-711,-2104,-177,630,567,568
-25,370,395,-172,-210,382,-832,-2291,-246,710,658,655
10,427,417,-218,-203,422,-940,-2431,-310,795,761,755
54,506,452,-280,-199,479,-1030,-2520,-353,899,886,880
105,602,497,-353,-196,549,-1119,-2580,-339,1054,1054,1050
163,711,548,-437,-192,629,-1206,-2621,-272,1259,1264,1262
217,825,608,-521,-195,716,-1278,-2644,-194,1479,1484,1486
265,948,683,-606,-209,815,-1332,-2645,-124,1690,1699,1703
308,1093,785,-700,-238,939,-1380,-2614,-56,1882,1905,1909
346,1251,905,-798,-279,1078,-1425,-2563,-2,2041,2094,2095
373,1388,1015,-880,-321,1201,-1460,-2525,7,2154,2253,2254
385,1500,1115,-942,-365,1307,-1478,-2498,-27,2218,2377,2381
379,1604,1225,-991,-423,1414,-1469,-2449,-83,2243,2466,2472
356,1704,1348,-1030,-496,1526,-1438,-2385,-160,2219,2516,2521
323,1785,1462,-1054,-569,1623,-1411,-2345,-285,2115,2512,2517
282,1842,1560,-1062,-639,1701,-1389,-2337,-459,1920,2446,2454
229,1881,1652,-1055,-711,1766,-1356,-2333,-663,1642,2314,2325
164,1878,1714,-1021,-775,1796,-1298,-2300,-862,1313,2122,2135
94,1788,1694,-941,-800,1741,-1206,-2205,-1003,984,1879,1894
25,1571,1546,-798,-760,1558,-1070,-2013,-1053,683,1581,1594
-31,1198,1229,-583,-630,1213,-879,-1688,-994,420,1208,1212
-74,744,818,-335,-446,781,-663,-1291,-865,183,791,783
-109,377,486,-134,-297,431,-488,-966,-756,-57,404,397
-136,167,303,-15,-219,235,-373,-757,-686,-262,117,122
-152,80,232,36,-192,156,-292,-614,-609,-329,-8,0
-159,63,222,48,-190,142,-229,-500,-517,-279,-11,-9
-162,43,205,59,-183,124,-179,-405,-444,-244,-21,-21
-164,-2,162,83,-163,80,-136,-323,-398,-262,-73,-70
-165,-55,110,110,-137,27,-97,-251,-360,-275,-111,-106
-165,-102,63,133,-114,-19,-61,-184,-316,-257,-117,-115
-164,-139,25,151,-94,-57,-22,-112,-263,-228,-116,-118
-163,-166,-3,164,-80,-84,16,-37,-205,-200,-119,-123
-157,-181,-24,169,-66,-102,50,26,-157,-183,-124,-127
-149,-188,-39,168,-55,-113,76,76,-121,-177,-128,-130
-142,-191,-49,166,-46,-120,97,116,-92,-171,-132,-131
-137,-191,-54,164,-41,-122,115,148,-64,-161,-135,-131
-134,-186,-52,160,-41,-119,127,171,-41,-150,-136,-130
-132,-178,-46,155,-43,-112,133,187,-22,-139,-136,-130
-129,-172,-43,150,-43,-107,138,204,-5,-133,-136,-131
-126,-170,-44,148,-41,-107,142,224,8,-128,-136,-134
-125,-169,-44,147,-40,-106,150,243,18,-122,-135,-137
-125,-169,-44,147,-40,-106,158,258,25,-114,-134,-139
-126,-170,-44,148,-41,-107,162,265,32,-110,-139,-141
-126,-169,-43,147,-41,-106,161,264,38,-110,-147,-144
-124,-170,-46,147,-39,-108,160,261,37,-114,-153,-148
-120,-170,-50,145,-35,-110,160,259,31,-120,-155,-153
-112,-169,-57,140,-27,-113,161,256,27,-122,-156,-157
-103,-169,-66,136,-18,-117,164,255,27,-119,-156,-160
-103,-171,-68,137,-17,-119,165,262,32,-113,-154,-161
-112,-176,-64,144,-24,-120,165,273,40,-107,-152,-161
-121,-183,-62,152,-29,-122,164,279,44,-109,-150,-160
-125,-189,-64,157,-30,-126,161,278,43,-118,-150,-160
-124,-189,-65,156,-29,-127,160,277,42,-124,-151,-161
-119,-183,-64,151,-27,-123,160,277,42,-123,-151,-161
-114,-176,-62,145,-26,-119,161,277,44,-120,-150,-160
-112,-171,-59,141,-26,-115,160,277,49,-115,-150,-157
-111,-169,-58,140,-26,-113,161,279,57,-107,-151,-154
-111,-169,-58,140,-26,-113,161,285,65,-99,-151,-151
-112,-170,-58,141,-27,-114,160,287,69,-95,-150,-150
-113,-169,-56,141,-28,-112,157,287,68,-96,-150,-150
-109,-170,-61,139,-24,-115,154,286,67,-98,-152,-151
-101,-170,-69,135,-16,-119,152,287,67,-100,-154,-150
-93,-168,-75,130,-9,-121,149,286,68,-103,-156,-151
-88,-166,-78,127,-5,-122,147,285,71,-106,-156,-151
-86,-164,-78,125,-4,-121,145,290,74,-106,-154,-150
-87,-164,-77,125,-5,-120,145,298,76,-103,-152,-147
-86,-165,-79,125,-3,-122,147,303,78,-101,-150,-144
-83,-165,-82,124,0,-123,150,302,80,-102,-150,-141
-81,-163,-82,122,0,-122,151,302,83,-100,-151,-141
-81,-161,-80,121,0,-120,151,305,86,-97,-151,-144
-82,-161,-79,121,-1,-120,150,307,86,-96,-149,-146
-82,-163,-81,122,0,-122,151,306,86,-97,-147,-146
-82,-166,-84,124,1,-125,150,309,89,-95,-145,-145
-82,-169,-87,125,2,-128,150,314,94,-92,-145,-146
-81,-170,-89,125,4,-129,152,317,97,-92,-146,-145
-79,-170,-91,124,6,-130,155,317,97,-95,-149,-145
-76,-169,-93,122,8,-131,156,317,96,-97,-152,-147
-73,-169,-96,121,11,-132,155,320,96,-97,-155,-149
-72,-170,-98,121,13,-134,156,323,96,-97,-155,-151
-72,-170,-98,121,13,-134,159,324,96,-97,-152,-151
-73,-169,-96,121,11,-132,161,327,97,-95,-150,-151
