I,II,III,aVR,aVL,aVF,V1,V2,V3,V4,V5,V6
9,-9,-19,0,14,-14,-302,-351,-439,-439,-380,-302
9,-9,-19,0,14,-14,-302,-351,-439,-439,-380,-302
9,-9,-19,0,14,-14,-302,-351,-439,-439,-380,-302
9,-9,-19,0,14,-14,-302,-351,-439,-439,-380,-302
0,-29,-29,14,14,-29,-239,-268,-346,-351,-326,-336
0,-48,-48,24,24,-48,-185,-195,-253,-263,-283,-361
0,-68,-68,34,34,-68,-131,-122,-161,-175,-239,-385
0,-87,-87,43,43,-87,-78,-48,-68,-87,-195,-409
-9,-82,-73,46,31,-78,-68,-24,-29,-48,-170,-400
-9,-78,-68,43,29,-73,-58,0,0,-19,-156,-400
-9,-73,-63,41,26,-68,-48,24,29,9,-141,-400
-9,-68,-58,39,24,-63,-39,48,58,39,-126,-400
-4,-58,-53,31,24,-56,-24,63,78,48,-112,-390
0,-58,-58,29,29,-58,-19,68,87,58,-107,-390
4,-58,-63,26,34,-61,-14,73,97,68,-102,-390
9,-58,-68,24,39,-63,-9,78,107,78,-97,-390
19,-48,-68,14,43,-58,-4,92,112,92,-92,-380
19,-48,-68,14,43,-58,0,97,117,97,-87,-370
19,-48,-68,14,43,-58,4,102,122,102,-82,-361
19,-48,-68,14,43,-58,9,107,126,107,-78,-351
4,-53,-58,24,31,-56,14,117,131,117,-87,-341
0,-58,-58,29,29,-58,19,117,136,117,-87,-331
-4,-63,-58,34,26,-61,24,117,141,117,-87,-322
-9,-68,-58,39,24,-63,29,117,146,117,-87,-312
-9,-53,-43,31,17,-48,43,126,156,126,-87,-302
-9,-48,-39,29,14,-43,48,126,156,126,-87,-302
-9,-43,-34,26,12,-39,53,126,156,126,-87,-302
-9,-39,-29,24,9,-34,58,126,156,126,-87,-302
-9,-43,-34,26,12,-39,48,112,146,117,-97,-312
-9,-48,-39,29,14,-43,39,107,146,117,-97,-322
-9,-53,-43,31,17,-48,29,102,146,117,-97,-331
-9,-58,-48,34,19,-53,19,97,146,117,-97,-341
0,-68,-68,34,34,-68,4,97,136,107,-107,-346
0,-68,-68,34,34,-68,0,97,136,107,-107,-351
0,-68,-68,34,34,-68,-4,97,136,107,-107,-356
0,-68,-68,34,34,-68,-9,97,136,107,-107,-361
4,-73,-78,34,41,-75,-24,87,136,97,-112,-375
9,-78,-87,34,48,-82,-29,87,136,97,-117,-380
14,-82,-97,34,56,-90,-34,87,136,97,-122,-385
19,-87,-107,34,63,-97,-39,87,136,97,-126,-390
24,-87,-112,31,68,-100,-53,87,136,87,-136,-400
29,-87,-117,29,73,-102,-58,87,136,87,-136,-400
34,-87,-122,26,78,-104,-63,87,136,87,-136,-400
39,-87,-126,24,82,-107,-68,87,136,87,-136,-400
39,-73,-112,17,75,-92,-82,102,141,97,-146,-400
39,-68,-107,14,73,-87,-87,107,146,97,-146,-400
39,-63,-102,12,70,-82,-92,112,151,97,-146,-400
39,-58,-97,9,68,-78,-97,117,156,97,-146,-400
48,-58,-107,4,78,-82,-87,122,165,97,-156,-400
48,-58,-107,4,78,-82,-87,126,165,97,-156,-400
48,-58,-107,4,78,-82,-87,131,165,97,-156,-400
48,-58,-107,4,78,-82,-87,136,165,97,-156,-400
39,-58,-97,9,68,-78,-78,151,180,87,-161,-409
39,-58,-97,9,68,-78,-78,156,185,87,-165,-409
39,-58,-97,9,68,-78,-78,161,190,87,-170,-409
39,-58,-97,9,68,-78,-78,165,195,87,-175,-409
29,-68,-97,19,63,-82,-73,180,209,97,-175,-409
29,-68,-97,19,63,-82,-68,185,214,97,-175,-409
29,-68,-97,19,63,-82,-63,190,219,97,-175,-409
29,-68,-97,19,63,-82,-58,195,224,97,-175,-409
34,-68,-102,17,68,-85,-48,214,239,97,-185,-414
39,-68,-107,14,73,-87,-39,224,244,97,-185,-419
43,-68,-112,12,78,-90,-29,234,248,97,-185,-424
48,-68,-117,9,82,-92,-19,244,253,97,-185,-429
63,-58,-122,-2,92,-90,-4,263,268,87,-190,-439
68,-48,-117,-9,92,-82,0,273,273,87,-195,-439
73,-39,-112,-17,92,-75,4,283,278,87,-200,-439
78,-29,-107,-24,92,-68,9,292,283,87,-204,-439
73,-29,-102,-21,87,-65,24,307,287,78,-214,-453
68,-29,-97,-19,82,-63,29,312,292,78,-214,-458
63,-29,-92,-17,78,-61,34,317,297,78,-214,-463
58,-29,-87,-14,73,-58,39,322,302,78,-214,-468
58,-29,-87,-14,73,-58,48,331,292,63,-224,-473
58,-29,-87,-14,73,-58,48,331,292,58,-234,-478
58,-29,-87,-14,73,-58,48,331,292,53,-244,-483
58,-29,-87,-14,73,-58,48,331,292,48,-253,-488
53,-39,-92,-7,73,-65,53,336,292,43,-263,-497
48,-39,-87,-4,68,-63,58,341,292,39,-263,-497
43,-39,-82,-2,63,-61,63,346,292,34,-263,-497
39,-39,-78,0,58,-58,68,351,292,29,-263,-497
48,-29,-78,-9,63,-53,68,351,292,24,-268,-488
48,-29,-78,-9,63,-53,68,351,292,19,-273,-488
48,-29,-78,-9,63,-53,68,351,292,14,-278,-488
48,-29,-78,-9,63,-53,68,351,292,9,-283,-488
58,-19,-78,-19,68,-48,73,361,283,9,-273,-473
58,-19,-78,-19,68,-48,78,361,283,9,-273,-468
58,-19,-78,-19,68,-48,82,361,283,9,-273,-463
58,-19,-78,-19,68,-48,87,361,283,9,-273,-458
48,-9,-58,-19,53,-34,78,351,273,9,-268,-448
48,-9,-58,-19,53,-34,78,351,273,9,-263,-439
48,-9,-58,-19,53,-34,78,351,273,9,-258,-429
48,-9,-58,-19,53,-34,78,351,273,9,-253,-419
39,0,-39,-19,39,-19,68,336,258,9,-239,-405
39,0,-39,-19,39,-19,68,331,253,9,-234,-400
39,0,-39,-19,39,-19,68,326,248,9,-229,-395
39,0,-39,-19,39,-19,68,322,244,9,-224,-390
48,9,-39,-29,43,-14,63,302,229,9,-209,-375
48,9,-39,-29,43,-14,58,292,224,9,-204,-370
48,9,-39,-29,43,-14,53,283,219,9,-200,-366
48,9,-39,-29,43,-14,48,273,214,9,-195,-361
58,19,-39,-39,48,-9,43,258,200,19,-180,-346
58,19,-39,-39,48,-9,39,253,195,19,-175,-341
58,19,-39,-39,48,-9,34,248,190,19,-170,-336
58,19,-39,-39,48,-9,29,244,185,19,-165,-331
48,9,-39,-29,43,-14,14,229,165,9,-151,-326
48,9,-39,-29,43,-14,9,214,156,9,-146,-322
48,9,-39,-29,43,-14,4,200,146,9,-141,-317
48,9,-39,-29,43,-14,0,185,136,9,-136,-312
39,19,-19,-29,29,0,-9,170,126,19,-131,-297
39,19,-19,-29,29,0,-9,165,126,19,-126,-292
39,19,-19,-29,29,0,-9,161,126,19,-122,-287
39,19,-19,-29,29,0,-9,156,126,19,-117,-283
53,24,-29,-39,41,-2,-19,141,112,29,-102,-278
58,29,-29,-43,43,0,-19,136,107,29,-97,-273
63,34,-29,-48,46,2,-19,131,102,29,-92,-268
68,39,-29,-53,48,4,-19,126,97,29,-87,-263
78,39,-39,-58,58,0,-24,107,82,19,-78,-253
78,39,-39,-58,58,0,-29,97,78,19,-78,-253
78,39,-39,-58,58,0,-34,87,73,19,-78,-253
78,39,-39,-58,58,0,-39,78,68,19,-78,-253
73,34,-39,-53,56,-2,-48,68,53,9,-78,-263
68,29,-39,-48,53,-4,-48,58,48,9,-78,-263
63,24,-39,-43,51,-7,-48,48,43,9,-78,-263
58,19,-39,-39,48,-9,-48,39,39,9,-78,-263
53,9,-43,-31,48,-17,-58,24,34,9,-78,-253
48,9,-39,-29,43,-14,-58,19,29,9,-78,-253
43,9,-34,-26,39,-12,-58,14,24,9,-78,-253
39,9,-29,-24,34,-9,-58,9,19,9,-78,-253
39,9,-29,-24,34,-9,-68,4,14,9,-68,-244
39,9,-29,-24,34,-9,-68,0,9,9,-68,-244
39,9,-29,-24,34,-9,-68,-4,4,9,-68,-244
39,9,-29,-24,34,-9,-68,-9,0,9,-68,-244
43,19,-24,-31,34,-2,-82,-19,0,9,-68,-234
48,19,-29,-34,39,-4,-87,-19,0,9,-68,-234
53,19,-34,-36,43,-7,-92,-19,0,9,-68,-234
58,19,-39,-39,48,-9,-97,-19,0,9,-68,-234
73,24,-48,-48,61,-12,-112,-19,9,14,-63,-244
78,29,-48,-53,63,-9,-117,-19,9,19,-58,-244
73,34,-39,-53,56,-2,-122,-19,9,24,-53,-244
68,39,-29,-53,48,4,-126,-19,9,29,-48,-244
78,29,-48,-53,63,-9,-136,-19,9,19,-48,-253
82,29,-53,-56,68,-12,-146,-24,9,19,-48,-253
73,24,-48,-48,61,-12,-156,-29,0,19,-48,-253
68,24,-43,-46,56,-9,-161,-34,-9,19,-48,-258
82,29,-53,-56,68,-12,-170,-29,-9,29,-43,-268
82,29,-53,-56,68,-12,-175,-29,0,29,-34,-268
78,29,-48,-53,63,-9,-180,-29,9,29,-29,-268
78,29,-48,-53,63,-9,-190,-29,14,29,-29,-278
87,29,-58,-58,73,-14,-190,-24,19,39,-39,-287
82,34,-48,-58,65,-7,-190,-24,19,43,-39,-287
78,39,-39,-58,58,0,-185,-19,24,48,-39,-278
78,39,-39,-58,58,0,-180,-19,24,53,-29,-278
87,48,-39,-68,63,4,-170,-14,39,58,-24,-283
97,43,-53,-70,75,-4,-161,-9,39,58,-14,-283
107,43,-63,-75,85,-9,-156,-4,43,63,-4,-283
117,43,-73,-80,95,-14,-151,4,39,63,0,-283
112,34,-78,-73,95,-21,-141,19,39,68,-4,-292
112,39,-73,-75,92,-17,-141,14,43,78,-9,-292
112,39,-73,-75,92,-17,-141,14,43,82,0,-287
112,39,-73,-75,92,-17,-141,9,43,87,-4,-287
126,29,-97,-78,112,-34,-136,4,43,97,4,-292
136,29,-107,-82,122,-39,-136,9,43,97,14,-297
141,29,-112,-85,126,-41,-131,14,53,97,14,-302
146,29,-117,-87,131,-43,-126,29,63,97,14,-307
136,39,-97,-87,117,-29,-122,39,68,107,24,-297
141,43,-97,-92,119,-26,-117,43,73,107,29,-292
141,43,-97,-92,119,-26,-117,48,73,107,29,-287
141,48,-92,-95,117,-21,-112,43,78,107,29,-287
136,43,-92,-90,114,-24,-102,48,82,107,29,-287
131,43,-87,-87,109,-21,-112,39,78,102,34,-287
122,43,-78,-82,100,-17,-112,34,78,102,34,-283
117,34,-82,-75,100,-24,-112,39,78,102,34,-283
112,34,-78,-73,95,-21,-107,48,78,102,34,-283
107,34,-73,-70,90,-19,-107,43,73,102,34,-283
112,39,-73,-75,92,-17,-102,43,68,107,39,-283
107,39,-68,-73,87,-14,-97,43,68,107,39,-283
107,39,-68,-73,87,-14,-97,43,68,97,34,-287
112,39,-73,-75,92,-17,-102,39,63,97,29,-287
117,39,-78,-78,97,-19,-102,39,63,92,29,-287
122,39,-82,-80,102,-21,-97,39,68,92,24,-273
112,43,-68,-78,90,-12,-97,39,58,92,24,-273
117,43,-73,-80,95,-14,-97,39,58,92,24,-273
117,39,-78,-78,97,-19,-107,29,58,92,24,-273
117,39,-78,-78,97,-19,-107,39,58,92,29,-273
126,43,-82,-85,104,-19,-97,39,58,82,19,-258
126,43,-82,-85,104,-19,-97,34,53,82,19,-258
122,43,-78,-82,100,-17,-102,34,53,82,19,-263
122,39,-82,-80,102,-21,-107,29,48,82,19,-263
131,29,-102,-80,117,-36,-107,29,43,73,9,-263
131,34,-97,-82,114,-31,-102,29,43,73,9,-263
131,34,-97,-82,114,-31,-102,29,48,73,9,-263
131,34,-97,-82,114,-31,-102,29,48,73,9,-263
122,43,-78,-82,100,-17,-102,24,39,63,9,-258
122,43,-78,-82,100,-17,-102,24,39,58,4,-258
117,43,-73,-80,95,-14,-107,24,39,58,4,-253
117,43,-73,-80,95,-14,-107,24,39,58,9,-248
126,48,-78,-87,102,-14,-97,19,34,63,0,-244
136,48,-87,-92,112,-19,-97,19,34,63,0,-244
146,53,-92,-100,119,-19,-97,19,29,63,0,-244
156,58,-97,-107,126,-19,-97,19,24,63,4,-248
156,68,-87,-112,122,-9,-97,19,34,53,-4,-244
156,68,-87,-112,122,-9,-97,19,34,53,-4,-234
161,68,-92,-114,126,-12,-97,19,43,58,-4,-229
161,73,-87,-117,124,-7,-97,19,43,58,-4,-224
165,68,-97,-117,131,-14,-97,19,34,58,-4,-214
165,63,-102,-114,134,-19,-102,19,34,58,-4,-214
165,63,-102,-114,134,-19,-97,19,34,58,-4,-214
165,58,-107,-112,136,-24,-92,19,29,58,0,-214
146,58,-87,-102,117,-14,-82,9,29,53,0,-209
141,53,-87,-97,114,-17,-82,9,34,53,0,-209
141,53,-87,-97,114,-17,-82,9,34,53,0,-209
141,53,-87,-97,114,-17,-82,9,34,53,4,-209
131,43,-87,-87,109,-21,-82,0,29,43,0,-219
131,43,-87,-87,109,-21,-78,0,24,43,-4,-219
136,48,-87,-92,112,-19,-73,0,19,48,-4,-219
136,48,-87,-92,112,-19,-68,0,19,53,-4,-219
141,43,-97,-92,119,-26,-73,0,19,43,-14,-224
151,43,-107,-97,129,-31,-73,4,24,48,-19,-229
151,43,-107,-97,129,-31,-68,9,34,48,-29,-244
141,48,-92,-95,117,-21,-63,29,53,58,-34,-258
126,39,-87,-82,107,-24,-63,29,68,58,-53,-287
107,34,-73,-70,90,-19,-48,48,92,78,-53,-307
107,39,-68,-73,87,-14,-48,78,136,131,-39,-297
107,63,-43,-85,75,9,-58,112,175,204,34,-258
112,97,-14,-104,63,41,-68,122,204,307,161,-175
126,122,-4,-124,65,58,-78,165,273,448,326,-63
165,165,0,-165,82,82,-58,268,414,590,492,34
229,214,-14,-222,122,100,-39,390,502,707,673,146
248,268,19,-258,114,143,-82,331,370,732,854,268
253,346,92,-300,80,219,-185,29,-24,600,976,375
263,434,170,-348,46,302,-268,-307,-444,419,1049,448
263,492,229,-378,17,361,-361,-570,-800,248,1117,531
214,512,297,-363,-41,405,-546,-941,-1224,73,1200,614
204,551,346,-378,-70,448,-771,-1424,-1717,-112,1288,722
234,614,380,-424,-73,497,-941,-1844,-2152,-351,1356,839
239,644,405,-441,-82,524,-1083,-2200,-2537,-668,1376,941
209,663,453,-436,-122,558,-1259,-2518,-2835,-912,1424,1058
219,702,483,-461,-131,592,-1420,-2708,-2986,-1044,1459,1171
229,717,488,-473,-129,602,-1483,-2752,-3015,-1185,1420,1224
229,722,492,-475,-131,607,-1522,-2723,-3020,-1395,1273,1254
209,761,551,-485,-170,656,-1600,-2732,-3040,-1678,1039,1263
190,780,590,-485,-200,685,-1708,-2742,-3020,-1937,775,1273
161,751,590,-456,-214,671,-1742,-2654,-2923,-2098,527,1249
146,702,556,-424,-204,629,-1698,-2508,-2796,-2186,287,1166
122,649,527,-385,-202,588,-1595,-2313,-2615,-2156,39,1005
97,590,492,-344,-197,541,-1454,-2039,-2352,-2005,-273,771
68,527,458,-297,-195,492,-1322,-1790,-2103,-1839,-551,546
73,473,400,-273,-163,436,-1195,-1600,-1888,-1678,-649,409
87,390,302,-239,-107,346,-1049,-1390,-1625,-1464,-639,322
107,283,175,-195,-34,229,-873,-1127,-1322,-1205,-605,229
107,200,92,-153,7,146,-712,-907,-1054,-971,-556,126
117,126,9,-122,53,68,-580,-732,-854,-785,-488,39
126,63,-63,-95,95,0,-492,-575,-673,-629,-448,-58
126,9,-117,-68,122,-53,-409,-444,-522,-492,-405,-175
126,-14,-141,-56,134,-78,-341,-341,-395,-380,-341,-248
122,-19,-141,-51,131,-80,-287,-244,-297,-283,-297,-283
136,-29,-165,-53,151,-97,-229,-170,-200,-190,-258,-312
146,-29,-175,-58,161,-102,-175,-107,-117,-112,-224,-317
161,-14,-175,-73,168,-95,-122,-58,-63,-53,-190,-307
170,4,-165,-87,168,-80,-97,-34,-24,-24,-175,-297
170,0,-170,-85,170,-85,-102,-24,-14,-9,-170,-292
161,0,-161,-80,161,-80,-112,-24,-9,-4,-161,-283
165,9,-156,-87,161,-73,-122,-19,9,4,-146,-278
165,4,-161,-85,163,-78,-136,-4,9,4,-156,-287
141,-14,-156,-63,148,-85,-141,-9,4,9,-170,-317
131,-24,-156,-53,143,-90,-122,-9,19,19,-161,-317
126,-19,-146,-53,136,-82,-87,19,48,53,-146,-317
126,-14,-141,-56,134,-78,-82,19,53,68,-141,-302
122,-19,-141,-51,131,-80,-82,34,58,68,-141,-297
122,-29,-151,-46,136,-90,-87,34,63,63,-141,-297
122,-34,-156,-43,139,-95,-92,34,68,63,-141,-292
131,-19,-151,-56,141,-85,-92,43,82,63,-141,-268
136,-14,-151,-61,143,-82,-87,43,82,73,-141,-263
141,-14,-156,-63,148,-85,-82,58,82,82,-141,-258
146,-9,-156,-68,151,-82,-78,63,82,87,-146,-248
156,-14,-170,-70,163,-92,-68,68,87,97,-146,-239
146,-14,-161,-65,153,-87,-63,73,97,97,-146,-229
141,-14,-156,-63,148,-85,-58,73,102,97,-146,-214
141,-14,-156,-63,148,-85,-53,73,107,97,-146,-204
141,-19,-161,-61,151,-90,-68,82,107,97,-146,-195
141,-19,-161,-61,151,-90,-68,87,117,97,-151,-185
141,-19,-161,-61,151,-90,-58,87,117,97,-156,-175
141,-29,-170,-56,156,-100,-48,87,117,102,-161,-170
107,-19,-126,-43,117,-73,-34,92,122,107,-151,-156
117,-19,-136,-48,126,-78,-29,102,126,112,-151,-151
122,-14,-136,-53,129,-75,-24,107,136,122,-151,-146
117,-14,-131,-51,124,-73,-19,117,141,126,-151,-136
102,-4,-107,-48,104,-56,-19,117,146,122,-156,-122
102,-9,-112,-46,107,-61,-24,117,156,122,-161,-126
112,-14,-126,-48,119,-70,-29,122,156,122,-165,-126
112,-19,-131,-46,122,-75,-29,122,161,126,-170,-122
102,-29,-131,-36,117,-80,-24,117,161,136,-180,-122
107,-19,-126,-43,117,-73,-19,126,170,136,-175,-122
107,-19,-126,-43,117,-73,-14,131,175,141,-170,-122
107,-9,-117,-48,112,-63,-4,136,180,141,-170,-122
107,-19,-126,-43,117,-73,0,141,175,136,-175,-112
107,-24,-131,-41,119,-78,4,146,180,131,-185,-117
107,-29,-136,-39,122,-82,9,151,180,126,-190,-112
107,-34,-141,-36,124,-87,24,156,180,122,-200,-112
87,-43,-131,-21,109,-87,39,156,180,122,-200,-97
87,-39,-126,-24,107,-82,29,161,190,126,-195,-92
87,-39,-126,-24,107,-82,19,170,190,126,-195,-87
102,-39,-141,-31,122,-90,19,165,195,126,-200,-102
92,-48,-141,-21,117,-95,19,175,195,117,-204,-87
87,-43,-131,-21,109,-87,19,180,200,117,-209,-82
82,-43,-126,-19,104,-85,24,180,214,117,-214,-78
73,-43,-117,-14,95,-80,34,185,214,117,-234,-73
73,-58,-131,-7,102,-95,24,185,209,107,-234,-68
63,-58,-122,-2,92,-90,24,195,219,107,-234,-63
53,-58,-112,2,82,-85,24,204,219,107,-229,-53
48,-58,-107,4,78,-82,24,214,224,107,-224,-43
58,-63,-122,2,90,-92,14,224,224,97,-234,-53
58,-68,-126,4,92,-97,4,224,229,92,-244,-53
58,-68,-126,4,92,-97,0,229,229,87,-248,-53
53,-73,-126,9,90,-100,-9,234,234,82,-253,-53
53,-73,-126,9,90,-100,-14,244,248,82,-244,-58
53,-73,-126,9,90,-100,-14,244,248,78,-244,-53
29,-73,-102,21,65,-87,-14,253,253,73,-248,-53
24,-73,-97,24,61,-85,-14,263,253,73,-258,-53
29,-63,-92,17,61,-78,-24,268,253,63,-268,-58
34,-63,-97,14,65,-80,-19,278,248,58,-268,-68
39,-63,-102,12,70,-82,-9,287,248,48,-278,-78
53,-48,-102,-2,78,-75,-4,297,253,48,-278,-82
58,-48,-107,-4,82,-78,14,307,268,43,-287,-82
48,-53,-102,2,75,-78,14,312,268,39,-292,-82
34,-58,-92,12,63,-75,14,312,268,34,-292,-87
19,-63,-82,21,51,-73,14,312,268,29,-292,-92
14,-43,-58,14,36,-51,14,317,258,24,-297,-102
9,-43,-53,17,31,-48,24,317,253,19,-297,-102
4,-53,-58,24,31,-56,24,317,248,14,-297,-97
-4,-53,-48,29,21,-51,29,317,248,9,-307,-97
-9,-43,-34,26,12,-39,29,326,248,0,-297,-82
-9,-39,-29,24,9,-34,29,326,253,-4,-297,-82
-4,-39,-34,21,14,-36,29,331,258,-4,-297,-78
-4,-39,-34,21,14,-36,34,331,263,0,-297,-78
-4,-34,-29,19,12,-31,48,341,263,4,-283,-58
-4,-29,-24,17,9,-26,53,341,263,9,-273,-39
-9,-19,-9,14,0,-14,58,346,268,9,-273,-34
-14,-9,4,12,-9,-2,63,351,263,14,-268,-29
-14,-4,9,9,-12,2,78,356,273,24,-273,-29
-24,0,24,12,-24,12,82,361,268,19,-263,-19
-24,0,24,12,-24,12,78,361,268,19,-253,-9
-14,9,24,2,-19,17,82,356,268,19,-248,-4
-19,0,19,9,-19,9,97,366,273,29,-244,9
-14,0,14,7,-14,7,102,361,268,29,-239,19
-19,0,19,9,-19,9,112,356,268,29,-234,24
-29,0,29,14,-29,14,117,351,263,29,-224,34
-43,-4,39,24,-41,17,117,341,268,39,-209,43
-43,-4,39,24,-41,17,117,336,258,39,-204,53
-39,-4,34,21,-36,14,117,326,248,39,-195,58
-29,-4,24,17,-26,9,117,312,239,39,-185,63
-19,-14,4,17,-12,-4,122,297,229,48,-185,73
-19,-4,14,12,-17,4,117,297,219,48,-180,73
-14,0,14,7,-14,7,107,287,214,43,-180,78
-9,4,14,2,-12,9,97,278,209,39,-180,78
-19,14,34,2,-26,24,97,268,200,53,-170,82
-24,24,48,0,-36,36,97,263,195,58,-165,92
-24,34,58,-4,-41,46,97,258,190,63,-161,102
-19,43,63,-12,-41,53,102,253,180,73,-156,107
-19,43,63,-12,-41,53,102,244,170,63,-151,112
-24,43,68,-9,-46,56,92,224,165,63,-151,122
-29,39,68,-4,-48,53,82,214,161,68,-146,131
-29,24,53,2,-41,39,78,209,156,68,-141,146
-34,14,48,9,-41,31,73,195,146,68,-141,161
-34,9,43,12,-39,26,68,180,136,63,-136,161
-34,14,48,9,-41,31,63,170,136,63,-136,161
-34,19,53,7,-43,36,58,161,136,63,-136,161
-43,14,58,14,-51,36,48,146,122,53,-136,165
-43,9,53,17,-48,31,43,131,102,53,-136,170
-39,9,48,14,-43,29,39,117,87,53,-126,175
-39,4,43,17,-41,24,39,107,82,58,-122,185
-39,4,43,17,-41,24,29,102,73,58,-122,195
-39,4,43,17,-41,24,29,97,78,53,-122,195
-39,0,39,19,-39,19,34,92,78,53,-122,195
-39,0,39,19,-39,19,34,82,73,53,-126,195
-24,0,24,12,-24,12,43,78,63,53,-122,200
-19,0,19,9,-19,9,39,68,58,53,-122,200
-14,-4,9,9,-12,2,24,68,53,53,-117,200
-4,-4,0,4,-2,-2,24,63,48,53,-112,200
-9,4,14,2,-12,9,34,58,43,53,-122,209
-14,-14,0,14,-7,-7,19,58,39,43,-122,209
-19,-14,4,17,-12,-4,9,53,39,43,-122,204
-24,-14,9,19,-17,-2,0,48,39,43,-117,204
-39,-24,14,31,-26,-4,4,39,34,43,-126,204
-48,-34,14,41,-31,-9,0,34,29,43,-131,204
-53,-39,14,46,-34,-12,0,24,24,43,-131,204
-53,-39,14,46,-34,-12,-4,14,14,43,-131,204
-29,-43,-14,36,-7,-29,-19,4,14,34,-141,214
-19,-34,-14,26,-2,-24,-24,4,19,34,-141,214
-19,-34,-14,26,-2,-24,-29,4,19,29,-141,214
-9,-34,-24,21,7,-29,-34,4,19,29,-141,214
19,4,-14,-12,17,-4,-24,24,19,48,-126,204
19,0,-19,-9,19,-9,-34,19,19,48,-136,204
48,4,-43,-26,46,-19,-39,19,9,48,-126,204
58,0,-58,-29,58,-29,-43,19,14,58,-126,204
39,-9,-48,-14,43,-29,-58,9,19,58,-126,214
24,-19,-43,-2,34,-31,-73,9,19,48,-126,204
19,-19,-39,0,29,-29,-78,9,19,48,-126,204
14,-19,-34,2,24,-26,-82,9,19,48,-126,204
9,-19,-29,4,19,-24,-87,9,19,48,-126,204
0,-24,-24,12,12,-24,-92,9,19,53,-117,204
-9,-29,-19,19,4,-24,-97,9,19,58,-117,204
-19,-34,-14,26,-2,-24,-102,9,19,63,-117,204
-29,-39,-9,34,-9,-24,-107,9,19,68,-117,204
-14,-39,-24,26,4,-31,-117,9,29,68,-107,195
-9,-39,-29,24,9,-34,-117,9,29,68,-107,195
-4,-39,-34,21,14,-36,-117,9,29,68,-107,195
0,-39,-39,19,19,-39,-117,9,29,68,-107,195
-4,-34,-29,19,12,-31,-107,9,29,78,-107,190
-9,-29,-19,19,4,-24,-107,9,29,78,-107,185
14,-24,-39,4,26,-31,-107,14,29,78,-107,185
34,-19,-53,-7,43,-36,-107,14,29,78,-107,185
24,-19,-43,-2,34,-31,-107,24,29,87,-102,180
29,-14,-43,-7,36,-29,-102,24,29,87,-97,180
34,-4,-39,-14,36,-21,-97,29,29,87,-87,180
34,0,-34,-17,34,-17,-97,29,39,87,-73,180
29,0,-29,-14,29,-14,-87,34,43,92,-68,190
29,0,-29,-14,29,-14,-92,39,43,97,-68,180
29,0,-29,-14,29,-14,-97,43,48,97,-68,180
24,4,-19,-14,21,-7,-102,43,48,102,-68,180
14,-4,-19,-4,17,-12,-97,53,53,112,-78,190
9,-9,-19,0,14,-14,-92,48,53,112,-68,190
4,-14,-19,4,12,-17,-82,43,58,112,-68,195
0,-24,-24,12,12,-24,-73,39,58,107,-63,195
4,-19,-24,7,14,-21,-63,48,73,117,-48,195
9,-14,-24,2,17,-19,-63,53,68,112,-48,195
19,-9,-29,-4,24,-19,-63,58,63,112,-48,195
24,0,-24,-12,24,-12,-63,53,63,117,-48,195
34,-9,-43,-12,39,-26,-58,58,68,117,-39,200
34,-9,-43,-12,39,-26,-53,58,63,117,-43,200
34,-9,-43,-12,39,-26,-58,48,58,117,-48,200
39,-9,-48,-14,43,-29,-58,48,53,117,-43,200
29,-4,-34,-12,31,-19,-48,48,68,126,-34,209
29,0,-29,-14,29,-14,-39,58,73,126,-34,209
29,9,-19,-19,24,-4,-29,73,78,126,-34,209
34,14,-19,-24,26,-2,-19,82,82,126,-29,214
24,9,-14,-17,19,-2,-14,92,78,117,-39,209
24,9,-14,-17,19,-2,-14,82,78,117,-39,209
24,14,-9,-19,17,2,-14,82,73,117,-39,209
24,14,-9,-19,17,2,-24,68,68,112,-34,209
9,0,-9,-4,9,-4,-34,58,58,107,-39,200
0,-14,-14,7,7,-14,-34,58,58,102,-43,195
-9,-19,-9,14,0,-14,-34,58,58,97,-48,190
-19,-24,-4,21,-7,-14,-39,53,53,92,-53,185
-4,-19,-14,12,4,-17,-29,43,48,92,-63,175
0,-19,-19,9,9,-19,-29,43,48,87,-68,175
0,-19,-19,9,9,-19,-29,43,48,82,-73,180
4,-19,-24,7,14,-21,-34,39,43,78,-78,180
0,-14,-14,7,7,-14,-19,43,48,78,-63,180
-4,-9,-4,7,0,-7,-9,48,58,82,-63,195
-9,0,9,4,-9,4,-4,53,63,87,-63,195
-9,4,14,2,-12,9,0,58,68,92,-63,195
4,4,0,-4,2,2,4,58,58,92,-73,185
9,9,0,-9,4,4,9,68,58,92,-68,185
14,19,4,-17,4,12,14,68,58,92,-68,190
19,24,4,-21,7,14,19,63,53,92,-68,190
0,4,4,-2,-2,4,4,48,48,82,-78,165
-4,-9,-4,7,0,-7,-9,39,39,73,-87,156
-9,-19,-9,14,0,-14,-19,34,29,63,-97,146
-14,-24,-9,19,-2,-17,-24,29,24,53,-107,136
-19,-24,-4,21,-7,-14,-34,19,29,63,-107,126
-24,-24,0,24,-12,-12,-34,19,29,63,-107,126
-29,-24,4,26,-17,-9,-34,14,29,63,-107,126
-34,-24,9,29,-21,-7,-34,14,29,58,-112,122
-29,-9,19,19,-24,4,-48,4,29,48,-102,112
-19,-4,14,12,-17,4,-48,4,29,48,-97,102
-9,0,9,4,-9,4,-48,0,24,53,-97,97
0,0,0,0,0,0,-48,0,24,53,-97,87
-4,-9,-4,7,0,-7,-58,0,19,53,-97,78
-9,-9,0,9,-4,-4,-58,0,14,53,-92,73
-14,-9,4,12,-9,-2,-58,0,14,53,-92,73
-19,-9,9,14,-14,0,-58,0,14,53,-92,78
-14,-9,4,12,-9,-2,-58,9,34,58,-82,73
-14,-4,9,9,-12,2,-58,9,34,58,-82,68
-9,-4,4,7,-7,0,-63,9,34,58,-82,63
-9,-4,4,7,-7,0,-73,9,34,58,-82,58
-19,0,19,9,-19,9,-82,19,34,58,-82,58
-19,0,19,9,-19,9,-82,19,29,58,-78,58
-24,0,24,12,-24,12,-82,19,29,63,-78,53
-24,-4,19,14,-21,7,-82,19,34,63,-78,53
-29,0,29,14,-29,14,-92,19,34,73,-68,43
-24,4,29,9,-26,17,-92,19,34,73,-63,43
-24,9,34,7,-29,21,-97,19,34,73,-63,43
-24,14,39,4,-31,26,-97,19,34,73,-63,43
-19,0,19,9,-19,9,-107,9,24,68,-68,43
-29,0,29,14,-29,14,-107,19,39,73,-63,43
-34,4,39,14,-36,21,-92,29,48,82,-53,48
-14,24,39,-4,-26,31,-73,53,73,107,-48,53
-4,24,29,-9,-17,26,-58,68,102,117,-48,39
-53,9,63,21,-58,36,-43,87,122,136,-53,14
-87,0,87,43,-87,43,-34,107,146,146,-63,-4
-68,14,82,26,-75,48,-9,136,180,165,-63,-24
-68,29,97,19,-82,63,0,175,214,209,-29,-24
-68,34,102,17,-85,68,0,200,244,263,24,-4
-43,48,92,-2,-68,70,-19,190,244,346,131,58
-19,73,92,-26,-56,82,-39,195,273,458,287,161
0,107,107,-53,-53,107,-39,278,385,600,473,278
63,156,92,-109,-14,124,-29,419,531,736,653,380
102,219,117,-161,-7,168,-34,448,517,790,834,512
107,278,170,-192,-31,224,-97,244,239,707,995,639
107,346,239,-226,-65,292,-170,-102,-180,507,1098,722
117,414,297,-265,-90,356,-234,-395,-556,307,1176,795
117,473,356,-295,-119,414,-331,-697,-932,122,1268,888
117,522,405,-319,-143,463,-517,-1132,-1395,-63,1366,995
126,556,429,-341,-151,492,-697,-1571,-1849,-283,1434,1122
141,595,453,-368,-156,524,-829,-1927,-2235,-570,1464,1234
151,605,453,-378,-151,529,-966,-2235,-2562,-834,1493,1361
141,614,473,-378,-165,544,-1146,-2483,-2752,-995,1517,1473
141,639,497,-390,-178,568,-1249,-2586,-2820,-1127,1468,1546
151,653,502,-402,-175,578,-1268,-2586,-2835,-1317,1322,1576
122,683,561,-402,-219,622,-1307,-2586,-2874,-1581,1078,1586
82,702,619,-392,-268,661,-1415,-2625,-2903,-1869,785,1576
63,702,639,-383,-287,671,-1507,-2615,-2874,-2059,497,1542
29,673,644,-351,-307,658,-1522,-2498,-2766,-2156,258,1468
-34,639,673,-302,-353,656,-1459,-2322,-2615,-2156,9,1327
-58,600,658,-270,-358,629,-1327,-2088,-2371,-2034,-302,1073
-58,546,605,-244,-331,575,-1176,-1810,-2093,-1849,-590,800
-34,483,517,-224,-275,500,-1049,-1590,-1859,-1678,-717,624
-19,400,419,-190,-219,409,-922,-1390,-1634,-1503,-727,507
-19,273,292,-126,-156,283,-756,-1137,-1342,-1244,-683,405
-19,161,180,-70,-100,170,-595,-897,-1054,-990,-605,312
-9,97,107,-43,-58,102,-473,-712,-844,-785,-546,214
9,43,34,-26,-12,39,-366,-546,-653,-629,-507,107
19,-9,-29,-4,24,-19,-273,-405,-492,-473,-444,9
19,-14,-34,-2,26,-24,-204,-292,-356,-341,-361,-43
24,-9,-34,-7,29,-21,-141,-204,-248,-244,-278,-58
9,-58,-68,24,39,-63,-92,-131,-161,-161,-239,-87
-29,-117,-87,73,29,-102,-58,-87,-107,-112,-224,-112
-24,-112,-87,68,31,-100,-24,-48,-63,-63,-209,-102
4,-73,-78,34,41,-75,19,-14,-24,-24,-195,-82
24,-39,-63,7,43,-51,24,4,-4,0,-190,-78
14,-39,-53,12,34,-46,4,4,19,14,-180,-78
-9,-48,-39,29,14,-43,-4,9,29,24,-165,-73
9,-43,-53,17,31,-48,-9,24,48,43,-146,-63
14,-43,-58,14,36,-51,-4,29,63,48,-131,-73
14,-53,-68,19,41,-61,4,29,58,48,-141,-92
0,-78,-78,39,39,-78,9,48,58,53,-146,-102
4,-63,-68,29,36,-65,24,48,73,63,-131,-87
4,-58,-63,26,34,-61,24,63,78,68,-131,-82
9,-58,-68,24,39,-63,19,63,82,68,-131,-82
14,-53,-68,19,41,-61,14,63,87,73,-131,-78
24,-48,-73,12,48,-61,4,53,102,73,-122,-78
29,-43,-73,7,51,-58,9,53,102,82,-122,-78
34,-43,-78,4,56,-61,14,68,102,92,-122,-78
39,-39,-78,0,58,-58,19,73,102,97,-126,-73
43,-39,-82,-2,63,-61,9,73,102,97,-126,-82
39,-43,-82,2,61,-63,4,73,107,97,-126,-92
39,-48,-87,4,63,-68,0,68,107,97,-126,-97
43,-53,-97,4,70,-75,-4,63,107,97,-126,-107
43,-48,-92,2,68,-70,-19,63,107,107,-117,-112
43,-48,-92,2,68,-70,-19,68,117,107,-122,-117
43,-48,-92,2,68,-70,-9,68,117,107,-126,-122
43,-58,-102,7,73,-80,0,68,117,112,-131,-131
24,-68,-92,21,58,-80,-14,68,107,107,-141,-146
39,-68,-107,14,73,-87,-19,73,107,102,-141,-151
48,-63,-112,7,80,-87,-24,73,112,102,-141,-156
48,-63,-112,7,80,-87,-29,78,112,97,-141,-156
48,-58,-107,4,78,-82,-34,78,107,102,-131,-156
53,-58,-112,2,82,-85,-43,78,117,102,-131,-165
68,-58,-126,-4,97,-92,-53,82,117,102,-131,-170
73,-58,-131,-7,102,-95,-58,82,122,107,-131,-170
68,-68,-136,0,102,-102,-58,78,112,97,-141,-170
68,-58,-126,-4,97,-92,-58,87,122,97,-136,-170
63,-58,-122,-2,92,-90,-58,92,126,102,-131,-170
58,-48,-107,-4,82,-78,-53,97,131,102,-131,-170
68,-58,-126,-4,97,-92,-53,102,141,112,-126,-161
68,-63,-131,-2,100,-97,-53,107,151,112,-136,-165
68,-68,-136,0,102,-102,-53,112,156,112,-141,-161
68,-73,-141,2,104,-107,-43,117,161,112,-151,-161
58,-63,-122,2,90,-92,-39,122,161,112,-141,-161
58,-58,-117,0,87,-87,-48,131,170,117,-136,-161
58,-58,-117,0,87,-87,-58,146,170,117,-136,-161
73,-58,-131,-7,102,-95,-58,146,175,117,-141,-180
78,-68,-146,-4,112,-107,-43,151,180,126,-141,-170
78,-63,-141,-7,109,-102,-39,161,190,126,-141,-170
78,-63,-141,-7,109,-102,-29,165,209,126,-141,-170
73,-63,-136,-4,104,-100,-14,175,214,126,-156,-170
82,-58,-141,-12,112,-100,-24,185,209,117,-156,-190
73,-58,-131,-7,102,-95,-14,195,219,117,-156,-190
63,-58,-122,-2,92,-90,-4,204,219,117,-151,-185
58,-58,-117,0,87,-87,4,214,224,117,-146,-180
68,-48,-117,-9,92,-82,14,239,239,112,-151,-195
68,-48,-117,-9,92,-82,14,244,248,112,-156,-200
68,-43,-112,-12,90,-78,19,253,253,112,-156,-204
63,-43,-107,-9,85,-75,19,263,263,112,-156,-209
78,-43,-122,-17,100,-82,29,278,278,112,-156,-209
82,-43,-126,-19,104,-85,34,283,278,107,-156,-209
63,-43,-107,-9,85,-75,39,297,283,102,-161,-214
63,-43,-107,-9,85,-75,43,312,283,102,-170,-219
58,-53,-112,-2,85,-82,53,317,287,97,-161,-219
53,-53,-107,0,80,-80,58,326,287,97,-161,-224
48,-53,-102,2,75,-78,68,336,292,92,-170,-229
53,-39,-92,-7,73,-65,73,346,302,97,-170,-229
78,-29,-107,-24,92,-68,92,366,317,102,-180,-234
78,-24,-102,-26,90,-63,92,370,317,97,-185,-229
73,-19,-92,-26,82,-56,92,370,317,92,-185,-229
68,-14,-82,-26,75,-48,92,370,317,87,-185,-229
63,-9,-73,-26,68,-41,102,375,317,73,-190,-229
58,-14,-73,-21,65,-43,112,375,312,68,-190,-229
53,-29,-82,-12,68,-56,112,375,307,63,-190,-224
43,-34,-78,-4,61,-56,117,375,307,58,-200,-224
19,-34,-53,7,36,-43,126,375,312,48,-209,-219
19,-29,-48,4,34,-39,136,375,302,43,-209,-219
9,-39,-48,14,29,-43,146,390,312,39,-204,-214
9,-24,-34,7,21,-29,151,400,312,39,-204,-214
9,-19,-29,4,19,-24,156,400,312,39,-204,-214
9,-14,-24,2,17,-19,161,400,312,39,-204,-214
9,-9,-19,0,14,-14,165,400,312,39,-204,-214
-4,-9,-4,7,0,-7,165,395,307,34,-214,-214
-19,-9,9,14,-14,0,165,390,302,29,-214,-214
-4,-9,-4,7,0,-7,165,390,297,24,-214,-209
4,-9,-14,2,9,-12,165,385,292,19,-214,-204
0,0,0,0,0,0,156,370,273,14,-214,-209
0,4,4,-2,-2,4,161,366,263,9,-214,-209
0,14,14,-7,-7,14,165,366,253,4,-209,-209
-4,19,24,-7,-14,21,165,361,253,0,-200,-209
-4,19,24,-7,-14,21,161,346,244,9,-190,-195
0,19,19,-9,-9,19,151,341,239,9,-185,-200
4,19,14,-12,-4,17,141,336,239,4,-180,-195
4,24,19,-14,-7,21,131,326,234,4,-175,-190
14,19,4,-17,4,12,122,307,224,4,-170,-170
19,19,0,-19,9,9,112,292,209,4,-156,-170
24,19,-4,-21,14,7,107,278,200,4,-151,-165
29,14,-14,-21,21,0,102,263,185,0,-141,-165
34,14,-19,-24,26,-2,82,244,175,9,-136,-156
39,14,-24,-26,31,-4,73,239,165,4,-136,-156
48,14,-34,-31,41,-9,63,234,156,4,-136,-156
53,19,-34,-36,43,-7,53,219,151,9,-136,-156
53,24,-29,-39,41,-2,43,209,131,0,-112,-146
53,29,-24,-41,39,2,34,195,122,0,-112,-141
53,34,-19,-43,36,7,14,170,112,0,-112,-136
58,39,-19,-48,39,9,0,156,102,0,-102,-131
73,48,-24,-61,48,12,-9,141,92,9,-112,-122
78,48,-29,-63,53,9,-19,136,92,9,-112,-122
82,53,-29,-68,56,12,-29,136,92,9,-112,-122
92,53,-39,-73,65,7,-39,131,92,9,-107,-117
92,43,-48,-68,70,-2,-58,117,82,9,-102,-112
92,39,-53,-65,73,-7,-63,102,78,9,-97,-112
92,39,-53,-65,73,-7,-68,97,68,9,-92,-112
92,34,-58,-63,75,-12,-82,78,58,4,-82,-112
97,34,-63,-65,80,-14,-87,63,53,14,-82,-107
107,24,-82,-65,95,-29,-92,58,48,14,-82,-107
117,24,-92,-70,104,-34,-97,53,43,14,-82,-107
126,24,-102,-75,114,-39,-107,43,34,14,-82,-107
126,34,-92,-80,109,-29,-97,53,39,19,-73,-107
126,39,-87,-82,107,-24,-97,53,39,19,-68,-107
122,43,-78,-82,100,-17,-97,53,39,19,-63,-102
122,48,-73,-85,97,-12,-102,48,34,19,-58,-102
122,34,-87,-78,104,-26,-102,39,24,14,-58,-107
122,29,-92,-75,107,-31,-97,39,29,14,-63,-97
122,29,-92,-75,107,-31,-97,39,29,14,-68,-102
126,24,-102,-75,114,-39,-97,39,29,14,-73,-107
117,19,-97,-68,107,-39,-92,34,39,19,-68,-92
117,19,-97,-68,107,-39,-87,48,39,24,-58,-87
117,24,-92,-70,104,-34,-82,53,39,29,-53,-78
117,24,-92,-70,104,-34,-78,53,34,34,-48,-73
112,14,-97,-63,104,-41,-73,43,43,34,-53,-78
112,9,-102,-61,107,-46,-78,39,39,34,-58,-78
112,9,-102,-61,107,-46,-78,39,34,34,-63,-78
112,14,-97,-63,104,-41,-73,39,34,34,-68,-78
107,9,-97,-58,102,-43,-63,39,39,34,-68,-68
102,4,-97,-53,100,-46,-63,39,39,34,-68,-68
97,0,-97,-48,97,-48,-63,34,39,34,-68,-68
92,-4,-97,-43,95,-51,-63,34,39,29,-73,-73
82,4,-78,-43,80,-36,-63,39,43,43,-73,-58
78,4,-73,-41,75,-34,-58,43,48,48,-68,-53
73,4,-68,-39,70,-31,-53,43,48,58,-68,-43
68,0,-68,-34,68,-34,-48,48,53,63,-68,-39
73,9,-63,-41,68,-26,-39,58,53,63,-58,-34
78,9,-68,-43,73,-29,-39,58,53,63,-53,-34
82,9,-73,-46,78,-31,-39,58,58,63,-53,-29
87,9,-78,-48,82,-34,-39,58,63,63,-53,-19
92,0,-92,-46,92,-46,-29,58,63,78,-53,-29
92,4,-87,-48,90,-41,-29,58,63,78,-53,-29
97,4,-92,-51,95,-43,-34,58,63,78,-53,-29
97,4,-92,-51,95,-43,-43,58,63,78,-53,-29
92,0,-92,-46,92,-46,-39,58,73,82,-48,-19
87,0,-87,-43,87,-43,-34,58,68,87,-39,-19
78,0,-78,-39,78,-39,-29,58,68,97,-34,-24
73,-4,-78,-34,75,-41,-24,58,73,102,-29,-24
78,-4,-82,-36,80,-43,-14,68,73,102,-29,-34
82,-4,-87,-39,85,-46,-14,68,73,102,-24,-34
82,-4,-87,-39,85,-46,-19,68,73,102,-24,-34
82,-4,-87,-39,85,-46,-19,68,73,102,-24,-34
146,39,-107,-92,126,-34,-9,68,82,117,-9,-43
107,19,-87,-63,97,-34,-19,68,78,112,-4,-53
73,4,-68,-39,70,-31,-24,68,78,112,4,-48
82,14,-68,-48,75,-26,-4,92,102,136,19,-43
82,34,-48,-58,65,-7,19,126,131,156,19,-39
92,39,-53,-65,73,-7,24,146,161,165,14,-53
87,29,-58,-58,73,-14,34,146,185,185,4,-82
68,24,-43,-46,56,-9,39,175,229,214,4,-102
48,19,-29,-34,39,-4,48,204,263,258,29,-102
68,43,-24,-56,46,9,48,219,292,341,131,-53
92,87,-4,-90,48,41,39,248,341,483,278,48
107,131,24,-119,41,78,48,322,448,624,444,151
126,156,29,-141,48,92,87,453,561,736,619,258
161,214,53,-187,53,134,87,468,492,766,790,380
170,268,97,-219,36,183,14,214,126,653,932,492
165,326,161,-246,2,244,-78,-185,-356,424,1024,570
175,385,209,-280,-17,297,-190,-512,-756,224,1088,634
195,444,248,-319,-26,346,-370,-873,-1161,63,1195,727
195,502,307,-348,-56,405,-575,-1351,-1664,-102,1337,878
165,551,385,-358,-109,468,-732,-1825,-2166,-356,1444,1015
156,605,448,-380,-146,527,-902,-2244,-2610,-673,1483,1141
180,663,483,-422,-151,573,-1093,-2562,-2918,-922,1551,1312
200,702,502,-451,-151,602,-1220,-2703,-3030,-1049,1639,1478
190,712,522,-451,-165,617,-1283,-2718,-3064,-1171,1644,1581
170,727,556,-448,-192,641,-1395,-2742,-3093,-1371,1537,1625
161,741,580,-451,-209,661,-1542,-2771,-3089,-1629,1332,1673
161,741,580,-451,-209,661,-1629,-2723,-3010,-1844,1098,1712
141,722,580,-431,-219,651,-1610,-2586,-2874,-1986,844,1732
122,663,541,-392,-209,602,-1507,-2371,-2698,-2049,605,1678
78,605,527,-341,-224,566,-1395,-2098,-2464,-1991,395,1576
4,512,507,-258,-251,509,-1263,-1854,-2215,-1854,78,1356
-39,424,463,-192,-251,444,-1132,-1678,-2010,-1742,-273,1073
-29,370,400,-170,-214,385,-1000,-1488,-1781,-1595,-444,878
-4,326,331,-161,-168,329,-863,-1278,-1527,-1376,-483,761
0,253,253,-126,-126,253,-736,-1088,-1293,-1171,-492,624
0,165,165,-82,-82,165,-590,-883,-1039,-941,-468,483
0,73,73,-36,-36,73,-468,-683,-800,-736,-419,370
-19,0,19,9,-19,9,-405,-536,-639,-600,-409,234
-29,-63,-34,46,2,-48,-346,-429,-507,-483,-409,97
-9,-107,-97,58,43,-102,-292,-317,-375,-366,-356,9
9,-122,-131,56,70,-126,-253,-224,-268,-263,-292,-24
-4,-126,-122,65,58,-124,-200,-156,-180,-175,-239,-48
-9,-117,-107,63,48,-112,-151,-92,-102,-82,-200,-48
-9,-117,-107,63,48,-112,-117,-48,-29,-4,-165,-43
-14,-112,-97,63,41,-104,-92,-19,4,24,-151,-43
-43,-102,-58,73,7,-80,-87,-4,34,43,-136,-34
-34,-78,-43,56,4,-61,-73,24,53,58,-122,-19
-14,-58,-43,36,14,-51,-63,43,78,73,-102,0
-9,-68,-58,39,24,-63,-43,58,97,82,-97,14
-29,-73,-43,51,7,-58,-39,63,107,92,-87,14
-34,-73,-39,53,2,-56,-14,78,112,107,-82,14
-43,-63,-19,53,-12,-41,4,87,136,136,-73,4
-48,-58,-9,53,-19,-34,9,87,136,151,-68,-4
-39,-34,4,36,-21,-14,14,97,146,165,-48,0
-34,-29,4,31,-19,-12,14,112,156,165,-43,4
-24,-29,-4,26,-9,-17,9,112,165,161,-39,4
-14,-24,-9,19,-2,-17,4,112,175,161,-34,9
-14,-29,-14,21,0,-21,19,117,190,170,-34,24
-19,-34,-14,26,-2,-24,29,122,190,180,-34,29
-24,-43,-19,34,-2,-31,39,141,190,190,-34,34
-29,-48,-19,39,-4,-34,48,151,190,195,-39,43
-39,-48,-9,43,-14,-29,43,151,200,195,-39,58
-48,-53,-4,51,-21,-29,43,151,204,195,-39,73
-53,-58,-4,56,-24,-31,43,146,204,195,-39,92
-53,-63,-9,58,-21,-36,43,141,204,195,-39,107
-43,-48,-4,46,-19,-26,53,156,214,200,-39,122
-43,-48,-4,46,-19,-26,58,165,224,204,-43,126
-43,-48,-4,46,-19,-26,73,170,224,209,-48,131
-43,-58,-14,51,-14,-36,87,175,224,219,-53,131
-53,-58,-4,56,-24,-31,87,185,234,229,-48,122
-39,-58,-19,48,-9,-39,87,190,234,229,-43,112
-29,-53,-24,41,-2,-39,87,190,239,234,-39,102
-29,-53,-24,41,-2,-39,87,195,239,234,-34,97
-34,-43,-9,39,-12,-26,92,200,253,239,-34,82
-34,-48,-14,41,-9,-31,92,204,263,239,-34,68
-24,-53,-29,39,2,-41,92,214,263,239,-34,58
-24,-58,-34,41,4,-46,97,219,268,244,-34,53
-29,-78,-48,53,9,-63,97,219,258,239,-39,34
-29,-68,-39,48,4,-53,97,224,268,234,-39,14
-34,-68,-34,51,0,-51,97,224,273,234,-39,-4
-39,-58,-19,48,-9,-39,102,224,278,229,-43,-24
9,-58,-68,24,39,-63,112,219,268,229,-48,-39
-9,-82,-73,46,31,-78,102,224,268,219,-58,-58
-29,-97,-68,63,19,-82,102,229,273,219,-73,-78
-39,-102,-63,70,12,-82,112,244,278,219,-73,-82
-39,-87,-48,63,4,-68,126,253,302,234,-58,-78
-34,-78,-43,56,4,-61,136,258,312,234,-48,-82
-29,-78,-48,53,9,-63,136,263,312,234,-48,-87
-24,-78,-53,51,14,-65,136,268,312,234,-48,-92
-19,-78,-58,48,19,-68,136,273,312,234,-48,-97
-29,-68,-39,48,4,-53,136,278,317,244,-53,-97
-39,-68,-29,53,-4,-48,136,283,322,244,-58,-97
-19,-68,-48,43,14,-58,136,292,326,244,-63,-92
-4,-68,-63,36,29,-65,136,297,331,244,-68,-87
-14,-82,-68,48,26,-75,141,312,341,234,-73,-87
-9,-82,-73,46,31,-78,151,317,341,234,-78,-92
-4,-78,-73,41,34,-75,161,326,341,234,-78,-97
-4,-78,-73,41,34,-75,165,331,351,234,-73,-102
-19,-78,-58,48,19,-68,175,341,361,234,-78,-92
-19,-78,-58,48,19,-68,170,351,366,234,-78,-92
-19,-78,-58,48,19,-68,165,361,375,229,-78,-82
-24,-73,-48,48,12,-61,161,366,380,229,-78,-73
-39,-68,-29,53,-4,-48,151,370,390,219,-92,-63
-39,-68,-29,53,-4,-48,151,370,385,219,-87,-63
-39,-68,-29,53,-4,-48,156,370,385,219,-92,-58
-39,-73,-34,56,-2,-53,161,370,380,214,-92,-58
-48,-63,-14,56,-17,-39,161,380,385,204,-97,-43
-48,-63,-14,56,-17,-39,161,385,380,200,-97,-39
-43,-63,-19,53,-12,-41,161,390,375,200,-97,-34
-43,-58,-14,51,-14,-36,161,385,375,204,-97,-29
-53,-53,0,53,-26,-26,161,395,380,190,-97,-14
-53,-48,4,51,-29,-21,161,390,375,185,-102,-14
-53,-43,9,48,-31,-17,151,375,370,180,-107,-14
-48,-39,9,43,-29,-14,146,370,366,175,-102,-14
-53,-39,14,46,-34,-12,156,366,366,170,-112,-14
-58,-39,19,48,-39,-9,156,370,366,165,-112,-14
-63,-34,29,48,-46,-2,156,380,366,161,-112,-14
-63,-34,29,48,-46,-2,156,385,366,156,-107,-9
-68,-48,19,58,-43,-14,136,375,356,151,-107,-4
-73,-48,24,61,-48,-12,131,366,351,146,-107,-4
-78,-43,34,61,-56,-4,126,366,341,141,-107,-4
-82,-43,39,63,-61,-2,112,351,331,131,-102,-4
-87,-53,34,70,-61,-9,122,346,341,131,-92,14
-87,-63,24,75,-56,-19,122,351,341,131,-92,19
-87,-63,24,75,-56,-19,122,356,341,131,-92,24
-87,-63,24,75,-56,-19,117,356,336,131,-92,29
-78,-48,29,63,-53,-9,112,351,317,131,-78,39
-78,-48,29,63,-53,-9,107,346,312,126,-78,39
-82,-48,34,65,-58,-7,102,341,307,122,-78,43
-82,-48,34,65,-58,-7,92,331,297,117,-78,43
-73,-39,34,56,-53,-2,92,317,292,122,-68,53
-73,-39,34,56,-53,-2,97,312,292,122,-63,68
-73,-34,39,53,-56,2,97,307,287,122,-58,68
-68,-34,34,51,-51,0,97,302,283,122,-53,68
-78,-29,48,53,-63,9,87,287,268,122,-43,78
-78,-29,48,53,-63,9,87,292,263,122,-39,78
-78,-24,53,51,-65,14,87,287,258,122,-39,82
-78,-24,53,51,-65,14,87,278,248,122,-39,82
-82,-14,68,48,-75,26,82,268,234,112,-34,87
-82,-19,63,51,-73,21,78,253,224,112,-29,87
-82,-19,63,51,-73,21,78,244,214,112,-24,87
-82,-14,68,48,-75,26,82,234,209,112,-19,87
-73,-4,68,39,-70,31,92,229,204,117,-9,87
-73,-4,68,39,-70,31,92,224,204,122,-9,87
-73,-4,68,39,-70,31,92,214,204,126,-9,87
-73,-4,68,39,-70,31,92,209,204,126,-14,82
-87,-4,82,46,-85,39,87,195,190,117,-14,73
-87,-4,82,46,-85,39,87,190,185,117,-9,73
-87,-4,82,46,-85,39,87,180,175,122,-9,78
-87,-9,78,48,-82,34,87,175,170,122,-9,78
-87,-19,68,53,-78,24,78,170,156,131,0,82
-87,-19,68,53,-78,24,78,165,151,131,4,82
-87,-19,68,53,-78,24,78,161,151,131,4,87
-87,-19,68,53,-78,24,78,156,151,131,4,97
-78,-14,63,46,-70,24,87,151,156,126,-4,97
-73,-4,68,39,-70,31,87,146,151,126,-4,97
-63,0,63,31,-63,31,82,141,146,126,-4,97
-58,4,63,26,-61,34,73,136,141,126,-4,97
-68,4,73,31,-70,39,73,126,136,117,-14,87
-68,0,68,34,-68,34,73,126,126,117,-9,87
-73,-4,68,39,-70,31,73,126,122,122,-9,82
-73,-14,58,43,-65,21,73,126,122,122,-9,82
-73,-19,53,46,-63,17,73,117,112,112,-19,73
-73,-24,48,48,-61,12,73,117,112,112,-14,73
-78,-29,48,53,-63,9,68,117,112,112,-14,73
-82,-34,48,58,-65,7,68,117,112,112,-14,73
-78,-58,19,68,-48,-19,87,126,122,126,-9,73
-97,-68,29,82,-63,-19,87,136,126,131,-14,63
-102,-43,58,73,-80,7,92,146,136,141,-14,48
-82,-14,68,48,-75,26,112,161,161,156,0,34
-82,-24,58,53,-70,17,117,175,180,175,0,19
-102,-58,43,80,-73,-7,122,185,200,185,-4,4
-126,-68,58,97,-92,-4,131,195,224,204,-24,-24
-136,-63,73,100,-104,4,156,234,287,244,-14,-34
-107,-48,58,78,-82,4,175,292,351,336,58,-4
-68,-14,53,41,-61,19,156,326,409,458,180,63
-34,39,73,-2,-53,56,146,385,488,600,356,156
-29,82,112,-26,-70,97,195,507,614,732,531,258
-9,126,136,-58,-73,131,224,590,658,805,707,366
24,185,161,-104,-68,173,185,429,405,756,868,488
34,239,204,-136,-85,222,102,68,-58,566,990,590
29,297,268,-163,-119,283,9,-273,-473,366,1063,658
29,336,307,-183,-139,322,-141,-580,-844,195,1146,732
9,385,375,-197,-183,380,-351,-1010,-1307,34,1273,863
-9,453,463,-222,-236,458,-536,-1498,-1830,-180,1415,995
-9,522,531,-256,-270,527,-692,-1942,-2313,-473,1483,1102
0,595,595,-297,-297,595,-893,-2322,-2708,-790,1512,1229
-4,644,649,-319,-326,646,-1063,-2562,-2928,-980,1581,1390
14,692,678,-353,-331,685,-1161,-2644,-3001,-1088,1629,1527
43,751,707,-397,-331,729,-1234,-2649,-3015,-1229,1595,1610
43,785,741,-414,-348,763,-1346,-2644,-3006,-1420,1468,1654
34,780,746,-407,-356,763,-1454,-2625,-2942,-1620,1263,1693
4,732,727,-368,-361,729,-1493,-2537,-2835,-1805,1000,1703
-34,663,697,-314,-366,680,-1434,-2371,-2688,-1917,736,1654
-53,634,688,-290,-370,661,-1322,-2108,-2454,-1903,536,1590
-48,605,653,-278,-351,629,-1180,-1825,-2191,-1786,336,1478
-82,551,634,-234,-358,592,-1068,-1629,-1971,-1668,-19,1220
-126,483,610,-178,-368,546,-936,-1464,-1766,-1546,-351,946
-117,429,546,-156,-331,488,-805,-1263,-1517,-1351,-473,771
-102,356,458,-126,-280,407,-678,-1054,-1263,-1151,-492,644
-136,234,370,-48,-253,302,-541,-854,-1029,-946,-502,497
-136,126,263,4,-200,195,-414,-649,-785,-727,-439,395
-117,63,180,26,-148,122,-302,-468,-575,-541,-361,331
-126,-9,117,68,-122,53,-229,-341,-424,-424,-341,214
-146,-73,73,109,-109,0,-180,-244,-312,-307,-322,97
-156,-107,48,131,-102,-29,-117,-151,-190,-200,-258,48
-165,-131,34,148,-100,-48,-68,-68,-92,-107,-204,24
-161,-146,14,153,-87,-65,-14,0,-14,-9,-170,0
-156,-146,9,151,-82,-68,24,53,43,53,-131,0
-156,-136,19,146,-87,-58,29,78,78,82,-117,-4
-161,-131,29,146,-95,-51,24,87,92,92,-112,-4
-170,-112,58,141,-114,-26,19,102,122,102,-97,-4
-161,-97,63,129,-112,-17,34,131,151,126,-73,9
-131,-78,53,104,-92,-12,34,141,165,141,-63,19
-126,-68,58,97,-92,-4,14,146,175,151,-58,14
-136,-53,82,95,-109,14,19,151,185,170,-48,24
-141,-53,87,97,-114,17,63,165,200,204,-43,34
-141,-82,58,112,-100,-12,73,175,204,214,-43,34
-146,-87,58,117,-102,-14,68,175,224,219,-39,43
-146,-82,63,114,-104,-9,73,165,224,219,-43,58
-151,-87,63,119,-107,-12,73,180,224,214,-43,63
-151,-97,53,124,-102,-21,68,180,224,204,-43,63
-151,-102,48,126,-100,-26,63,180,224,200,-43,68
-156,-107,48,131,-102,-29,78,170,229,200,-53,63
-156,-112,43,134,-100,-34,87,170,229,209,-53,58
-156,-122,34,139,-95,-43,97,185,229,219,-53,53
-156,-126,29,141,-92,-48,107,190,229,224,-58,53
-146,-107,39,126,-92,-34,112,200,239,224,-58,34
-156,-102,53,129,-104,-24,112,200,244,224,-58,24
-161,-97,63,129,-112,-17,112,195,244,224,-58,19
-161,-92,68,126,-114,-12,112,190,244,224,-58,9
-161,-78,82,119,-122,2,122,195,248,234,-58,19
-161,-78,82,119,-122,2,126,204,263,234,-63,19
-161,-78,82,119,-122,2,141,209,268,234,-68,19
-161,-87,73,124,-117,-7,156,214,273,239,-73,14
-175,-82,92,129,-134,4,156,219,283,248,-63,19
-156,-78,78,117,-117,0,156,229,283,248,-63,14
-141,-68,73,104,-107,2,156,234,287,253,-63,9
-136,-63,73,100,-104,4,156,244,287,253,-63,9
-151,-68,82,109,-117,7,165,253,302,253,-63,9
-161,-78,82,119,-122,2,161,253,312,258,-63,0
-161,-87,73,124,-117,-7,156,258,312,263,-63,-4
-170,-97,73,134,-122,-12,156,258,317,273,-63,-4
-175,-107,68,141,-122,-19,161,268,322,278,-53,-4
-175,-97,78,136,-126,-9,165,283,336,283,-48,-4
-180,-97,82,139,-131,-7,170,292,346,292,-43,-4
-185,-87,97,136,-141,4,180,302,356,297,-43,-4
-175,-97,78,136,-126,-9,190,307,356,297,-39,-19
-175,-102,73,139,-124,-14,190,312,366,297,-48,-29
-175,-107,68,141,-122,-19,190,317,370,297,-53,-29
-175,-112,63,143,-119,-24,200,322,375,297,-63,-34
-180,-102,78,141,-129,-12,214,326,375,287,-73,-43
-175,-97,78,136,-126,-9,204,336,385,292,-68,-43
-170,-97,73,134,-122,-12,195,351,385,292,-68,-43
-151,-97,53,124,-102,-21,195,351,390,292,-73,-63
-151,-97,53,124,-102,-21,209,366,405,292,-73,-63
-156,-92,63,124,-109,-14,214,375,414,292,-73,-63
-161,-92,68,126,-114,-12,224,380,434,292,-73,-63
-170,-92,78,131,-124,-7,239,390,439,292,-87,-63
-161,-97,63,129,-112,-17,229,390,434,302,-73,-43
-146,-97,48,122,-97,-24,244,400,439,302,-68,-39
-146,-107,39,126,-92,-34,244,405,448,297,-73,-39
-146,-107,39,126,-92,-34,244,409,448,292,-78,-39
-146,-107,39,126,-92,-34,244,414,448,287,-82,-39
-146,-107,39,126,-92,-34,244,419,448,283,-87,-39
-161,-92,68,126,-114,-12,258,434,453,292,-87,-29
-165,-78,87,122,-126,4,263,439,458,292,-87,-19
-170,-63,107,117,-139,21,268,444,463,292,-87,-9
-175,-48,126,112,-151,39,273,448,468,292,-87,0
-190,-68,122,129,-156,26,273,458,468,283,-87,9
-195,-78,117,136,-156,19,273,458,468,283,-87,19
-200,-87,112,143,-156,12,273,458,468,283,-87,29
-204,-97,107,151,-156,4,273,458,468,283,-87,39
-214,-97,117,156,-165,9,283,463,478,278,-87,48
-214,-97,117,156,-165,9,283,468,478,273,-87,58
-214,-97,117,156,-165,9,283,473,478,268,-87,68
-214,-97,117,156,-165,9,283,478,478,263,-87,78
-209,-87,122,148,-165,17,287,483,478,263,-78,92
-204,-78,126,141,-165,24,292,488,478,263,-78,97
-200,-68,131,134,-165,31,297,492,478,263,-78,102
-195,-58,136,126,-165,39,302,497,478,263,-78,107
-204,-68,136,136,-170,34,312,497,478,263,-68,117
-214,-68,146,141,-180,39,312,497,478,263,-68,126
-224,-68,156,146,-190,43,312,497,478,263,-68,136
-234,-68,165,151,-200,48,312,497,478,263,-68,146
-239,-78,161,158,-200,41,307,483,468,258,-68,151
-244,-87,156,165,-200,34,302,478,458,253,-68,156
-248,-97,151,173,-200,26,297,473,448,248,-68,161
-253,-107,146,180,-200,19,292,468,439,244,-68,165
-248,-102,146,175,-197,21,283,458,424,234,-63,175
-244,-97,146,170,-195,24,273,448,419,234,-58,175
-239,-92,146,165,-192,26,263,439,414,234,-53,175
-234,-87,146,161,-190,29,253,429,409,234,-48,175
-224,-73,151,148,-187,39,248,424,395,234,-39,190
-224,-68,156,146,-190,43,244,419,390,234,-29,195
-224,-63,161,143,-192,48,239,414,385,234,-19,200
-224,-58,165,141,-195,53,234,409,380,234,-9,204
-239,-63,175,151,-207,56,219,390,361,229,4,214
-244,-68,175,156,-209,53,214,380,351,224,9,214
-248,-73,175,161,-212,51,209,370,341,219,14,214
-253,-78,175,165,-214,48,204,361,331,214,19,214
-263,-73,190,168,-226,58,185,346,317,209,14,204
-263,-68,195,165,-229,63,175,331,302,204,9,195
-263,-63,200,163,-231,68,165,317,287,200,4,185
-263,-58,204,161,-234,73,156,302,273,195,0,175
-263,-68,195,165,-229,63,141,283,263,190,4,175
-263,-68,195,165,-229,63,136,273,253,185,9,175
-263,-68,195,165,-229,63,131,263,244,180,14,175
-263,-68,195,165,-229,63,126,253,234,175,19,175
-253,-78,175,165,-214,48,112,239,229,175,29,185
-253,-78,175,165,-214,48,107,234,224,175,29,185
-253,-78,175,165,-214,48,102,229,219,175,29,185
-253,-78,175,165,-214,48,97,224,214,175,29,185
-253,-63,190,158,-222,63,92,214,195,165,29,175
-253,-58,195,156,-224,68,87,204,185,165,29,175
-253,-53,200,153,-226,73,82,195,175,165,29,175
-253,-48,204,151,-229,78,78,185,165,165,29,175
-253,-58,195,156,-224,68,87,170,161,156,19,165
-253,-58,195,156,-224,68,87,165,156,156,19,165
-253,-58,195,156,-224,68,87,161,151,156,19,165
-253,-58,195,156,-224,68,87,156,146,156,19,165
-263,-68,195,165,-229,63,87,146,136,156,24,175
-263,-68,195,165,-229,63,87,146,136,156,29,175
-263,-68,195,165,-229,63,87,146,136,156,34,175
-263,-68,195,165,-229,63,87,146,136,156,39,175
-273,-58,214,165,-244,78,97,146,146,161,48,165
-273,-48,224,161,-248,87,97,146,146,165,48,165
-273,-39,234,156,-253,97,97,146,146,170,48,165
-273,-29,244,151,-258,107,97,146,146,175,48,165
-263,-19,244,141,-253,112,107,151,151,185,58,156
-263,-19,244,141,-253,112,107,156,156,185,58,156
-263,-19,244,141,-253,112,107,161,161,185,58,156
-263,-19,244,141,-253,112,107,165,165,185,58,156
-263,-24,239,143,-251,107,97,156,156,185,58,151
-263,-29,234,146,-248,102,97,156,156,185,58,146
-263,-34,229,148,-246,97,97,156,156,185,58,141
-263,-39,224,151,-244,92,97,156,156,185,58,136
-253,-68,185,161,-219,58,97,165,165,185,48,146
-263,-58,204,161,-234,73,97,165,165,185,48,136
-283,-58,224,170,-253,82,107,175,175,195,68,146
-253,-39,214,146,-234,87,107,175,175,204,87,156
-224,-9,214,117,-219,102,107,185,185,214,97,165
-214,0,214,107,-214,107,107,195,195,224,126,185
-234,-29,204,131,-219,87,97,195,195,244,156,195
-244,-48,195,146,-219,73,87,185,195,263,165,214
-224,-39,185,131,-204,73,68,175,185,273,195,244
-204,-19,185,112,-195,82,58,175,195,292,234,263
-204,-48,156,126,-180,53,48,185,214,312,263,292
-204,-78,126,141,-165,24,19,175,214,331,292,302
-195,-78,117,136,-156,19,9,185,244,370,331,341
-165,-68,97,117,-131,14,19,224,292,439,409,390
-146,-48,97,97,-122,24,39,263,370,527,478,429
-136,-48,87,92,-112,19,68,322,458,624,566,478
-136,-68,68,102,-102,0,97,380,585,761,683,536
-126,-68,58,97,-92,-4,117,458,732,927,829,595
-117,-68,48,92,-82,-9,136,536,897,1132,995,692
-78,-107,-29,92,-24,-68,165,634,1083,1356,1180,790
-48,-175,-126,112,39,-151,195,732,1268,1581,1346,878
-19,-273,-253,146,117,-263,234,829,1483,1834,1571,1005
9,-390,-400,190,204,-395,273,936,1668,2117,1834,1161
48,-517,-566,234,307,-541,292,976,1717,2332,2059,1317
97,-585,-683,244,390,-634,283,956,1649,2469,2244,1454
136,-663,-800,263,468,-732,263,878,1464,2508,2391,1571
146,-810,-956,331,551,-883,253,732,1112,2400,2537,1659
146,-946,-1093,400,619,-1019,244,556,702,2205,2674,1737
165,-1054,-1220,444,692,-1137,253,448,409,2030,2791,1786
185,-1112,-1298,463,741,-1205,283,429,224,1883,2849,1805
195,-1171,-1366,488,780,-1268,312,400,48,1708,2879,1825
195,-1220,-1415,512,805,-1317,351,361,-175,1395,2820,1825
175,-1239,-1415,531,795,-1327,419,312,-439,956,2615,1717
146,-1259,-1405,556,775,-1332,488,273,-683,468,2352,1542
126,-1288,-1415,580,771,-1351,546,214,-897,19,2088,1405
117,-1317,-1434,600,775,-1376,566,117,-1073,-361,1805,1288
107,-1298,-1405,595,756,-1351,585,29,-1132,-605,1532,1180
87,-1268,-1356,590,722,-1312,605,9,-1102,-741,1268,1063
48,-1259,-1307,605,678,-1283,634,29,-1054,-829,976,917
9,-1239,-1249,614,629,-1244,644,9,-1034,-868,751,790
-19,-1190,-1171,605,575,-1180,634,-39,-995,-849,595,692
-48,-1171,-1122,610,536,-1146,605,-68,-966,-819,390,536
-78,-1112,-1034,595,478,-1073,575,-107,-936,-790,175,351
-97,-1015,-917,556,409,-966,536,-175,-907,-780,-19,175
-136,-927,-790,531,326,-858,517,-214,-868,-761,-214,9
-185,-888,-702,536,258,-795,478,-263,-839,-751,-380,-146
-195,-829,-634,512,219,-732,419,-322,-829,-732,-488,-263
-195,-722,-527,458,165,-624,361,-341,-771,-683,-536,-351
-214,-634,-419,424,102,-527,283,-341,-702,-644,-585,-429
-244,-575,-331,409,43,-453,185,-341,-644,-614,-605,-488
-234,-497,-263,366,14,-380,126,-273,-546,-566,-595,-507
-224,-409,-185,317,-19,-297,107,-165,-419,-478,-556,-497
-234,-341,-107,287,-63,-224,87,-78,-302,-380,-497,-478
-234,-283,-48,258,-92,-165,68,-48,-224,-292,-448,-458
-234,-224,9,229,-122,-107,48,-48,-165,-214,-400,-419
-244,-165,78,204,-161,-43,29,-48,-126,-175,-351,-390
-234,-78,156,156,-195,39,29,-48,-107,-146,-322,-370
-204,9,214,97,-209,112,48,-39,-78,-126,-292,-361
-195,24,219,85,-207,122,43,-34,-63,-117,-287,-370
-195,39,234,78,-214,136,39,-29,-58,-117,-283,-370
-195,53,248,70,-222,151,34,-24,-53,-117,-278,-370
-195,68,263,63,-229,165,29,-19,-48,-117,-273,-370
-180,87,268,46,-224,178,14,-34,-48,-107,-268,-375
-175,97,273,39,-224,185,9,-39,-48,-97,-263,-380
-170,107,278,31,-224,192,4,-43,-48,-87,-258,-385
-165,117,283,24,-224,200,0,-48,-48,-78,-253,-390
-156,126,283,14,-219,204,-14,-53,-58,-87,-258,-380
-156,136,292,9,-224,214,-19,-58,-58,-97,-263,-380
-156,146,302,4,-229,224,-24,-63,-58,-107,-268,-380
-156,156,312,0,-234,234,-29,-68,-58,-117,-273,-380
-165,165,331,0,-248,248,-34,-82,-73,-126,-287,-380
-165,165,331,0,-248,248,-39,-87,-78,-126,-292,-380
-165,165,331,0,-248,248,-43,-92,-82,-126,-297,-380
-165,165,331,0,-248,248,-48,-97,-87,-126,-302,-380
-170,185,356,-7,-263,270,-58,-102,-92,-141,-312,-390
-175,195,370,-9,-273,283,-58,-107,-97,-146,-312,-390
-180,204,385,-12,-283,295,-58,-112,-102,-151,-312,-390
-185,214,400,-14,-292,307,-58,-117,-107,-156,-312,-390
-175,229,405,-26,-290,317,-68,-122,-112,-165,-322,-400
-175,234,409,-29,-292,322,-68,-126,-117,-165,-322,-400
-175,239,414,-31,-295,326,-68,-131,-122,-165,-322,-400
-175,244,419,-34,-297,331,-68,-136,-126,-165,-322,-400
-185,258,444,-36,-314,351,-73,-156,-141,-175,-336,-409
-195,263,458,-34,-326,361,-78,-165,-146,-185,-341,-409
-204,268,473,-31,-339,370,-82,-175,-151,-195,-346,-409
-214,273,488,-29,-351,380,-87,-185,-156,-204,-351,-409
-204,278,483,-36,-344,380,-107,-200,-175,-214,-361,-414
-204,283,488,-39,-346,385,-126,-214,-185,-224,-370,-419
-204,287,492,-41,-348,390,-146,-229,-195,-234,-380,-424
-204,292,497,-43,-351,395,-165,-244,-204,-244,-390,-429
-195,307,502,-56,-348,405,-185,-263,-214,-263,-395,-434
-195,312,507,-58,-351,409,-204,-273,-224,-273,-400,-439
-195,317,512,-61,-353,414,-224,-283,-234,-283,-405,-444
-195,322,517,-63,-356,419,-244,-292,-244,-292,-409,-448
-185,331,517,-73,-351,424,-258,-302,-253,-307,-419,-468
-185,341,527,-78,-356,434,-273,-312,-263,-322,-429,-478
-185,351,536,-82,-361,444,-287,-322,-273,-336,-439,-488
-185,361,546,-87,-366,453,-302,-331,-283,-351,-448,-497
-175,366,541,-95,-358,453,-292,-341,-292,-356,-453,-512
-175,370,546,-97,-361,458,-292,-341,-292,-361,-458,-517
-175,375,551,-100,-363,463,-292,-341,-292,-366,-463,-522
-175,380,556,-102,-366,468,-292,-341,-292,-370,-468,-527
-175,390,566,-107,-370,478,-307,-346,-302,-385,-478,-531
-175,400,575,-112,-375,488,-312,-351,-302,-390,-488,-536
-175,409,585,-117,-380,497,-317,-356,-302,-395,-497,-541
-175,419,595,-122,-385,507,-322,-361,-302,-400,-507,-546
-165,424,590,-129,-378,507,-322,-361,-292,-405,-512,-556
-165,429,595,-131,-380,512,-322,-361,-292,-409,-517,-556
-165,434,600,-134,-383,517,-322,-361,-292,-414,-522,-556
-165,439,605,-136,-385,522,-322,-361,-292,-419,-527,-556
-161,453,614,-146,-387,534,-322,-346,-278,-419,-536,-556
-156,458,614,-151,-385,536,-322,-341,-273,-419,-536,-556
-151,463,614,-156,-383,539,-322,-336,-268,-419,-536,-556
-146,468,614,-161,-380,541,-322,-331,-263,-419,-536,-556
-136,483,619,-173,-378,551,-322,-322,-258,-419,-546,-546
-136,488,624,-175,-380,556,-322,-322,-253,-419,-546,-546
-136,492,629,-178,-383,561,-322,-322,-248,-419,-546,-546
-136,497,634,-180,-385,566,-322,-322,-244,-419,-546,-546
-141,497,639,-178,-390,568,-322,-312,-234,-409,-546,-546
-146,497,644,-175,-395,570,-322,-302,-224,-409,-546,-546
-151,497,649,-173,-400,573,-322,-292,-214,-409,-546,-546
-156,497,653,-170,-405,575,-322,-283,-204,-409,-546,-546
-165,483,649,-158,-407,566,-317,-268,-195,-395,-541,-546
-165,478,644,-156,-405,561,-312,-263,-185,-390,-536,-546
-165,473,639,-153,-402,556,-307,-258,-175,-385,-531,-546
-165,468,634,-151,-400,551,-302,-253,-165,-380,-527,-546
-156,458,614,-151,-385,536,-292,-229,-146,-356,-517,-541
-156,458,614,-151,-385,536,-283,-214,-126,-341,-507,-536
-156,458,614,-151,-385,536,-273,-200,-107,-326,-497,-531
-156,458,614,-151,-385,536,-263,-185,-87,-312,-488,-527
-151,444,595,-146,-373,519,-253,-165,-68,-292,-468,-522
-146,439,585,-146,-366,512,-244,-146,-48,-273,-458,-517
-141,434,575,-146,-358,505,-234,-126,-29,-253,-448,-512
-136,429,566,-146,-351,497,-224,-107,-9,-234,-439,-507
-117,414,531,-148,-324,473,-204,-87,14,-204,-414,-502
-107,409,517,-151,-312,463,-195,-68,29,-185,-400,-497
-97,405,502,-153,-300,453,-185,-48,43,-165,-385,-492
-87,400,488,-156,-287,444,-175,-29,58,-146,-370,-488
-97,375,473,-139,-285,424,-170,-19,78,-122,-346,-483
-97,361,458,-131,-278,409,-165,-9,87,-107,-331,-478
-97,346,444,-124,-270,395,-161,0,97,-92,-317,-473
-97,331,429,-117,-263,380,-156,9,107,-78,-302,-468
-92,312,405,-109,-248,358,-141,29,122,-58,-283,-458
-87,292,380,-102,-234,336,-136,39,126,-48,-273,-458
-82,273,356,-95,-219,314,-131,48,131,-39,-263,-458
-78,253,331,-87,-204,292,-126,58,136,-29,-253,-458
-82,234,317,-75,-200,275,-117,68,151,-14,-229,-453
-87,224,312,-68,-200,268,-107,78,156,0,-214,-448
-63,214,278,-75,-170,246,-97,92,161,14,-200,-439
-43,204,248,-80,-146,226,-87,102,165,29,-185,-429
-43,190,234,-73,-139,212,-68,117,170,39,-170,-424
-39,180,219,-70,-129,200,-53,122,165,48,-156,-424
-34,175,209,-70,-122,192,-39,131,161,58,-136,-424
-34,165,200,-65,-117,183,-29,136,165,68,-112,-424
-24,151,175,-63,-100,163,-24,146,175,73,-97,-414
-19,146,165,-63,-92,156,-24,146,170,78,-97,-424
-14,141,156,-63,-85,148,-24,146,170,78,-97,-424
-14,141,156,-63,-85,148,-24,141,165,82,-97,-424
-14,122,136,-53,-75,129,-9,141,156,82,-87,-419
-9,107,117,-48,-63,112,-4,136,151,82,-78,-424
-4,92,97,-43,-51,95,4,131,151,82,-78,-424
0,73,73,-36,-36,73,14,126,146,78,-73,-429
9,58,48,-34,-19,53,14,122,136,87,-68,-434
9,53,43,-31,-17,48,14,122,126,82,-68,-439
14,48,34,-31,-9,41,14,122,117,82,-68,-444
14,48,34,-31,-9,41,14,112,112,87,-68,-448
24,43,19,-34,2,31,29,112,107,78,-63,-453
24,39,14,-31,4,26,34,107,102,78,-63,-453
24,34,9,-29,7,21,29,92,97,78,-63,-453
29,29,0,-29,14,14,29,87,92,78,-53,-453
34,19,-14,-26,24,2,24,73,82,68,-58,-468
39,19,-19,-29,29,0,19,68,73,58,-63,-483
43,24,-19,-34,31,2,14,68,63,48,-68,-497
53,24,-29,-39,41,-2,9,63,53,39,-68,-507
68,9,-58,-39,63,-24,14,63,58,48,-58,-517
73,9,-63,-41,68,-26,14,53,58,48,-58,-522
78,14,-63,-46,70,-24,14,53,53,48,-58,-527
82,14,-68,-48,75,-26,4,39,48,43,-53,-531
87,0,-87,-43,87,-43,-4,19,34,29,-58,-546
87,-14,-102,-36,95,-58,-14,19,29,24,-63,-556
87,-19,-107,-34,97,-63,-24,19,24,19,-68,-566
87,-24,-112,-31,100,-68,-39,14,14,14,-73,-575
107,-19,-126,-43,117,-73,-29,14,19,19,-78,-570
107,-19,-126,-43,117,-73,-29,14,19,19,-78,-566
102,-19,-122,-41,112,-70,-29,14,19,19,-78,-556
102,-19,-122,-41,112,-70,-34,9,14,19,-78,-551
102,-9,-112,-46,107,-61,-48,0,14,24,-73,-551
102,-9,-112,-46,107,-61,-48,0,19,24,-73,-536
102,-4,-107,-48,104,-56,-53,0,19,24,-73,-536
107,-4,-112,-51,109,-58,-58,0,19,24,-73,-536
117,-14,-131,-51,124,-73,-78,-9,9,24,-73,-536
117,-19,-136,-48,126,-78,-87,0,9,24,-68,-536
117,-19,-136,-48,126,-78,-97,0,9,24,-68,-531
117,-24,-141,-46,129,-82,-107,-4,4,24,-68,-531
122,-19,-141,-51,131,-80,-117,-14,9,34,-68,-531
122,-19,-141,-51,131,-80,-126,-19,9,34,-68,-527
122,-14,-136,-53,129,-75,-131,-19,9,34,-68,-522
122,-4,-126,-58,124,-65,-131,-19,14,34,-68,-517
122,4,-117,-63,119,-56,-126,-14,29,39,-53,-502
122,4,-117,-63,119,-56,-122,-9,29,43,-48,-497
122,4,-117,-63,119,-56,-117,-9,29,48,-43,-492
122,4,-117,-63,119,-56,-112,-4,29,48,-43,-492
131,4,-126,-68,129,-61,-117,-4,39,48,-43,-483
136,4,-131,-70,134,-63,-117,-4,39,48,-39,-483
141,4,-136,-73,139,-65,-117,-9,34,53,-39,-478
146,0,-146,-73,146,-73,-117,-9,34,53,-39,-478
136,9,-126,-73,131,-58,-107,-4,34,63,-29,-478
136,9,-126,-73,131,-58,-107,0,34,63,-24,-483
136,9,-126,-73,131,-58,-107,4,39,63,-24,-483
136,9,-126,-73,131,-58,-107,9,43,63,-24,-478
136,4,-131,-70,134,-63,-97,0,43,58,-24,-488
131,4,-126,-68,129,-61,-97,0,43,58,-24,-488
131,0,-131,-65,131,-65,-102,0,43,58,-24,-488
126,-4,-131,-61,129,-68,-112,0,43,58,-24,-488
126,-9,-136,-58,131,-73,-102,9,43,68,-24,-483
126,-9,-136,-58,131,-73,-102,9,39,68,-19,-478
122,-9,-131,-56,126,-70,-102,9,39,73,-19,-478
122,-14,-136,-53,129,-75,-102,9,43,73,-19,-473
136,-9,-146,-63,141,-78,-97,19,53,73,-19,-458
141,-4,-146,-68,143,-75,-92,19,53,73,-14,-453
141,0,-141,-70,141,-70,-92,19,53,73,-14,-448
141,4,-136,-73,139,-65,-87,19,53,73,-14,-444
156,19,-136,-87,146,-58,-78,29,63,78,-9,-434
156,9,-146,-82,151,-68,-78,29,58,82,-4,-444
131,-14,-146,-58,139,-80,-73,29,58,73,-14,-439
122,-24,-146,-48,134,-85,-73,24,63,78,-19,-453
122,-24,-146,-48,134,-85,-58,39,73,78,-19,-458
122,-19,-141,-51,131,-80,-43,58,92,87,-24,-463
126,-19,-146,-53,136,-82,-34,78,117,97,-43,-483
126,-24,-151,-51,139,-87,-19,97,141,117,-53,-512
126,-19,-146,-53,136,-82,-9,146,195,161,-29,-512
136,-4,-141,-65,139,-73,0,170,244,244,43,-483
141,19,-122,-80,131,-51,0,190,283,366,170,-419
175,63,-112,-119,143,-24,9,263,400,517,336,-317
214,107,-107,-161,161,0,48,405,551,668,512,-219
239,146,-92,-192,165,26,68,468,561,756,683,-117
258,209,-48,-234,153,80,4,302,312,712,844,-4
263,278,14,-270,124,146,-87,-39,-122,541,946,73
263,336,73,-300,95,204,-190,-346,-502,361,1000,136
263,395,131,-329,65,263,-331,-639,-849,229,1078,200
273,473,200,-373,36,336,-546,-1068,-1293,82,1190,312
292,570,278,-431,7,424,-761,-1532,-1776,-102,1317,429
263,605,341,-434,-39,473,-893,-1912,-2191,-370,1337,507
219,624,405,-422,-92,514,-1054,-2249,-2547,-688,1327,590
229,683,453,-456,-112,568,-1239,-2537,-2796,-902,1376,707
278,751,473,-514,-97,612,-1351,-2659,-2898,-1044,1429,819
258,766,507,-512,-124,636,-1405,-2684,-2937,-1195,1390,873
219,761,541,-490,-161,651,-1483,-2693,-2962,-1405,1244,873
209,780,570,-495,-180,675,-1581,-2703,-2962,-1668,1010,854
209,790,580,-500,-185,685,-1649,-2654,-2913,-1878,756,834
190,771,580,-480,-195,675,-1625,-2527,-2786,-1991,527,800
146,722,575,-434,-214,649,-1542,-2352,-2640,-2020,307,707
122,658,536,-390,-207,597,-1410,-2117,-2440,-1981,78,556
117,590,473,-353,-178,531,-1268,-1873,-2205,-1878,-234,322
107,527,419,-317,-156,473,-1156,-1683,-1995,-1771,-551,68
92,453,361,-273,-134,407,-1029,-1522,-1790,-1620,-688,-68
97,370,273,-234,-87,322,-902,-1312,-1537,-1415,-678,-136
117,283,165,-200,-24,224,-756,-1098,-1273,-1195,-644,-200
136,200,63,-168,36,131,-605,-868,-1024,-971,-575,-273
126,107,-19,-117,73,43,-483,-692,-814,-775,-507,-351
117,4,-112,-61,114,-53,-395,-556,-663,-639,-478,-458
126,-48,-175,-39,151,-112,-322,-434,-522,-512,-424,-546
136,-82,-219,-26,178,-151,-253,-322,-385,-400,-351,-600
131,-117,-248,-7,190,-183,-200,-234,-278,-292,-297,-634
117,-136,-253,9,185,-195,-141,-151,-170,-200,-258,-653
107,-156,-263,24,185,-209,-97,-87,-97,-122,-224,-658
102,-161,-263,29,183,-212,-73,-48,-63,-82,-209,-658
102,-161,-263,29,183,-212,-58,-24,-43,-43,-195,-658
92,-146,-239,26,165,-192,-53,-14,-14,-19,-170,-644
82,-146,-229,31,156,-187,-73,-4,0,-14,-151,-644
97,-136,-234,19,165,-185,-63,9,29,4,-126,-629
126,-122,-248,-2,187,-185,-58,34,48,24,-107,-610
141,-122,-263,-9,202,-192,-53,29,63,29,-122,-610
131,-112,-244,-9,187,-178,-53,39,78,48,-112,-610
126,-97,-224,-14,175,-161,-29,58,97,73,-97,-600
131,-97,-229,-17,180,-163,-39,48,97,78,-92,-595
131,-97,-229,-17,180,-163,-43,63,97,78,-92,-590
136,-102,-239,-17,187,-170,-53,63,97,73,-92,-590
141,-102,-244,-19,192,-173,-63,63,97,73,-92,-585
156,-112,-268,-21,212,-190,-73,53,102,63,-92,-566
156,-112,-268,-21,212,-190,-68,53,102,73,-92,-566
156,-117,-273,-19,214,-195,-63,68,102,82,-92,-566
156,-117,-273,-19,214,-195,-58,73,102,87,-97,-561
156,-112,-268,-21,212,-190,-53,82,112,97,-107,-561
146,-112,-258,-17,202,-185,-53,82,117,97,-107,-561
141,-112,-253,-14,197,-183,-53,78,117,97,-107,-556
141,-112,-253,-14,197,-183,-53,73,117,97,-107,-556
161,-97,-258,-31,209,-178,-48,78,122,107,-97,-556
170,-97,-268,-36,219,-183,-48,87,136,107,-102,-556
180,-97,-278,-41,229,-187,-39,92,141,107,-107,-556
190,-107,-297,-41,244,-202,-29,97,146,112,-112,-561
180,-97,-278,-41,229,-187,-29,102,156,112,-112,-566
195,-97,-292,-48,244,-195,-29,112,156,112,-112,-570
204,-92,-297,-56,251,-195,-29,117,161,117,-112,-575
204,-92,-297,-56,251,-195,-29,126,161,117,-112,-575
214,-102,-317,-56,265,-209,-14,136,175,122,-102,-585
219,-107,-326,-56,273,-217,-14,136,185,122,-102,-595
234,-112,-346,-61,290,-229,-14,141,185,122,-102,-600
239,-117,-356,-61,297,-236,-9,141,190,126,-102,-600
239,-126,-366,-56,302,-246,0,156,200,136,-112,-605
244,-117,-361,-63,302,-239,0,165,209,136,-107,-610
244,-117,-361,-63,302,-239,0,170,214,141,-102,-614
244,-107,-351,-68,297,-229,4,175,219,141,-102,-619
239,-117,-356,-61,297,-236,9,190,219,131,-97,-624
234,-122,-356,-56,295,-239,14,195,229,131,-107,-634
229,-126,-356,-51,292,-241,19,200,234,131,-112,-634
224,-131,-356,-46,290,-244,34,204,239,131,-122,-639
229,-131,-361,-48,295,-246,53,219,244,136,-122,-629
234,-126,-361,-53,297,-244,48,229,258,146,-117,-629
239,-126,-366,-56,302,-246,43,244,263,151,-117,-629
258,-126,-385,-65,322,-256,48,244,273,156,-122,-649
258,-126,-385,-65,322,-256,63,248,268,146,-131,-649
253,-122,-375,-65,314,-248,68,258,278,146,-131,-649
248,-122,-370,-63,309,-246,78,263,297,146,-131,-649
239,-122,-361,-58,300,-241,92,273,302,146,-146,-649
239,-131,-370,-53,305,-251,92,283,297,136,-141,-658
229,-136,-366,-46,297,-251,102,292,307,136,-146,-658
219,-141,-361,-39,290,-251,112,302,307,136,-146,-653
214,-146,-361,-34,287,-253,122,312,312,136,-146,-649
214,-146,-361,-34,287,-253,122,322,317,131,-151,-649
214,-146,-361,-34,287,-253,122,322,326,131,-156,-649
214,-141,-356,-36,285,-248,126,326,331,131,-156,-649
209,-141,-351,-34,280,-246,126,331,341,131,-156,-649
219,-131,-351,-43,285,-241,146,341,346,131,-165,-644
219,-131,-351,-43,285,-241,151,341,346,126,-165,-639
195,-131,-326,-31,261,-229,156,351,351,122,-170,-639
190,-131,-322,-29,256,-226,161,361,351,122,-180,-639
190,-141,-331,-24,261,-236,146,351,346,102,-190,-639
190,-151,-341,-19,265,-246,146,356,336,97,-190,-644
190,-161,-351,-14,270,-256,151,361,331,87,-200,-649
200,-156,-356,-21,278,-256,151,366,331,87,-200,-649
200,-161,-361,-19,280,-261,146,370,326,92,-200,-644
195,-161,-356,-17,275,-258,141,370,326,87,-204,-639
185,-161,-346,-12,265,-253,136,366,326,82,-204,-639
175,-161,-336,-7,256,-248,131,361,326,78,-204,-639
185,-141,-326,-21,256,-234,131,375,336,73,-209,-634
185,-141,-326,-21,256,-234,141,375,331,68,-209,-629
185,-151,-336,-17,261,-244,141,375,326,63,-209,-619
180,-151,-331,-14,256,-241,146,375,326,58,-219,-614
165,-161,-326,-2,246,-244,136,375,322,58,-219,-610
165,-156,-322,-4,244,-239,136,375,322,53,-219,-610
170,-156,-326,-7,248,-241,136,380,322,53,-219,-605
170,-156,-326,-7,248,-241,141,380,322,58,-219,-605
185,-136,-322,-24,253,-229,131,395,336,68,-204,-580
175,-136,-312,-19,244,-224,126,390,331,68,-195,-566
175,-136,-312,-19,244,-224,112,385,326,58,-195,-556
175,-136,-312,-19,244,-224,107,380,322,58,-195,-556
175,-136,-312,-19,244,-224,102,375,317,58,-195,-556
175,-136,-312,-19,244,-224,97,370,312,58,-195,-556
175,-131,-307,-21,241,-219,87,361,297,58,-180,-541
165,-126,-292,-19,229,-209,78,351,292,58,-175,-536
185,-122,-307,-31,246,-214,68,346,287,58,-170,-527
200,-117,-317,-41,258,-217,58,336,283,58,-165,-517
190,-117,-307,-36,248,-212,43,317,268,58,-161,-507
185,-112,-297,-36,241,-204,43,307,253,58,-156,-502
180,-102,-283,-39,231,-192,43,302,239,58,-146,-497
170,-97,-268,-36,219,-183,39,292,234,58,-131,-492
175,-92,-268,-41,222,-180,34,283,224,68,-112,-483
175,-87,-263,-43,219,-175,24,273,219,68,-107,-483
175,-82,-258,-46,217,-170,14,263,219,63,-102,-473
170,-73,-244,-48,207,-158,4,248,214,63,-97,-463
165,-63,-229,-51,197,-146,0,239,200,73,-92,-448
165,-58,-224,-53,195,-141,-4,224,190,73,-78,-444
165,-53,-219,-56,192,-136,-4,209,185,73,-73,-434
165,-53,-219,-56,192,-136,-4,195,175,68,-63,-429
180,-48,-229,-65,204,-139,-19,180,161,58,-58,-429
185,-43,-229,-70,207,-136,-24,170,146,53,-58,-429
195,-39,-234,-78,214,-136,-29,161,131,53,-58,-429
200,-29,-229,-85,214,-129,-34,141,122,58,-58,-429
190,-29,-219,-80,204,-124,-39,126,122,48,-43,-424
190,-29,-219,-80,204,-124,-43,117,112,48,-43,-424
190,-29,-219,-80,204,-124,-58,97,102,48,-43,-424
195,-29,-224,-82,209,-126,-68,87,92,48,-34,-424
204,-24,-229,-90,217,-126,-78,68,82,48,-24,-414
204,-19,-224,-92,214,-122,-78,68,82,48,-24,-414
204,-9,-214,-97,209,-112,-78,73,82,48,-24,-414
209,-4,-214,-102,212,-109,-78,73,82,48,-19,-409
219,-9,-229,-104,224,-119,-82,63,68,39,-19,-409
219,-9,-229,-104,224,-119,-82,53,68,39,-19,-414
219,-4,-224,-107,222,-114,-82,53,63,39,-19,-419
219,-4,-224,-107,222,-114,-92,39,58,34,-14,-424
214,0,-214,-107,214,-107,-87,34,68,43,-4,-414
214,-4,-219,-104,217,-112,-82,39,68,43,-4,-409
214,0,-214,-107,214,-107,-78,43,68,43,-4,-405
214,4,-209,-109,212,-102,-78,43,63,43,-4,-400
214,9,-204,-112,209,-97,-68,53,68,48,0,-400
214,9,-204,-112,209,-97,-68,53,68,48,0,-400
209,9,-200,-109,204,-95,-68,53,68,48,0,-395
209,9,-200,-109,204,-95,-73,48,63,48,0,-395
209,0,-209,-104,209,-104,-73,39,53,43,-4,-385
209,0,-209,-104,209,-104,-68,39,58,43,-4,-370
209,4,-204,-107,207,-100,-68,39,58,43,-4,-370
214,4,-209,-109,212,-102,-68,39,58,43,-4,-370
209,-9,-219,-100,214,-114,-63,39,58,53,-14,-370
204,-9,-214,-97,209,-112,-58,48,58,53,-9,-370
200,-4,-204,-97,202,-104,-53,48,58,53,-9,-366
195,-4,-200,-95,197,-102,-48,43,53,53,-9,-366
175,-4,-180,-85,178,-92,-39,43,58,63,0,-366
170,-9,-180,-80,175,-95,-39,39,58,63,0,-361
165,-9,-175,-78,170,-92,-34,39,58,63,0,-356
161,-4,-165,-78,163,-85,-24,39,63,63,0,-351
161,-4,-165,-78,163,-85,-14,39,68,63,-9,-351
161,-4,-165,-78,163,-85,-14,39,68,63,-9,-351
161,-4,-165,-78,163,-85,-14,34,68,63,-9,-351
161,-4,-165,-78,163,-85,-14,34,68,58,-14,-356
156,-9,-165,-73,161,-87,-29,24,58,58,-24,-356
156,-14,-170,-70,163,-92,-29,24,58,58,-19,-356
156,-19,-175,-68,165,-97,-29,19,53,63,-19,-351
156,-29,-185,-63,170,-107,-29,19,53,63,-19,-351
156,-39,-195,-58,175,-117,-39,29,53,73,-29,-361
156,-39,-195,-58,175,-117,-39,29,53,73,-24,-366
156,-39,-195,-58,175,-117,-39,29,58,73,-24,-366
156,-39,-195,-58,175,-117,-39,29,63,73,-24,-361
175,-39,-214,-68,195,-126,-48,29,63,68,-24,-366
180,-34,-214,-73,197,-124,-48,29,63,68,-24,-370
190,-34,-224,-78,207,-129,-53,29,63,68,-24,-375
195,-34,-229,-80,212,-131,-63,29,63,68,-24,-380
195,-29,-224,-82,209,-126,-53,29,73,78,-24,-380
195,-29,-224,-82,209,-126,-53,29,68,78,-19,-380
190,-29,-219,-80,204,-124,-53,29,68,82,-19,-385
190,-34,-224,-78,207,-129,-53,29,73,82,-19,-385
195,-29,-224,-82,209,-126,-58,29,73,92,-9,-385
200,-24,-224,-87,212,-124,-63,29,73,92,-4,-385
200,-19,-219,-90,209,-119,-73,29,73,92,-4,-385
200,-14,-214,-92,207,-114,-78,29,73,92,-4,-385
195,-9,-204,-92,200,-107,-87,39,73,97,0,-366
175,-29,-204,-73,190,-117,-97,29,68,82,-4,-375
170,-34,-204,-68,187,-119,-102,29,68,92,-14,-370
180,-24,-204,-78,192,-114,-102,43,73,97,-9,-366
200,-14,-214,-92,207,-114,-97,58,92,107,-9,-370
200,-9,-209,-95,204,-109,-82,78,112,126,-14,-366
185,-9,-195,-87,190,-102,-63,97,126,136,-24,-375
175,-14,-190,-80,183,-102,-58,97,141,136,-43,-395
195,0,-195,-97,195,-97,-48,126,185,161,-39,-405
214,24,-190,-119,202,-82,-39,161,234,214,14,-385
209,39,-170,-124,190,-65,-48,200,283,326,131,-312
224,63,-161,-143,192,-48,-39,244,361,478,297,-200
253,107,-146,-180,200,-19,-19,356,492,639,463,-102
278,136,-141,-207,209,-2,0,478,590,766,614,0
287,170,-117,-229,202,26,-43,419,468,790,775,112
283,239,-43,-261,163,97,-126,117,73,678,907,229
283,297,14,-290,134,156,-200,-239,-366,488,961,302
292,356,63,-324,114,209,-292,-502,-702,336,1039,375
312,434,122,-373,95,278,-468,-834,-1078,200,1141,497
312,473,161,-392,75,317,-683,-1307,-1561,34,1259,614
302,497,195,-400,53,346,-863,-1747,-2034,-204,1327,722
297,536,239,-417,29,387,-1015,-2132,-2440,-502,1356,824
317,585,268,-451,24,427,-1200,-2449,-2737,-746,1405,951
326,624,297,-475,14,461,-1342,-2630,-2869,-878,1468,1073
326,658,331,-492,-2,495,-1395,-2674,-2908,-1010,1468,1146
317,692,375,-505,-29,534,-1444,-2664,-2923,-1220,1361,1185
326,761,434,-544,-53,597,-1561,-2684,-2932,-1483,1185,1215
317,780,463,-549,-73,622,-1639,-2664,-2884,-1732,961,1244
287,732,444,-509,-78,588,-1644,-2547,-2776,-1903,702,1210
263,663,400,-463,-68,531,-1581,-2371,-2649,-2010,453,1127
219,610,390,-414,-85,500,-1468,-2137,-2449,-1981,224,995
175,551,375,-363,-100,463,-1327,-1873,-2186,-1839,-68,800
146,488,341,-317,-97,414,-1185,-1673,-1947,-1703,-395,566
151,434,283,-292,-65,358,-1068,-1503,-1751,-1561,-551,419
156,361,204,-258,-24,283,-922,-1302,-1507,-1366,-561,331
156,244,87,-200,34,165,-775,-1078,-1254,-1156,-546,209
175,131,-43,-153,109,43,-634,-868,-1015,-941,-527,87
185,58,-126,-122,156,-34,-522,-683,-805,-756,-478,-9
175,14,-161,-95,168,-73,-434,-536,-634,-619,-458,-117
175,-19,-195,-78,185,-107,-351,-405,-473,-483,-424,-214
185,-34,-219,-75,202,-126,-273,-292,-336,-351,-361,-278
170,-58,-229,-56,200,-143,-200,-204,-229,-253,-297,-312
156,-97,-253,-29,204,-175,-141,-131,-141,-170,-258,-341
165,-107,-273,-29,219,-190,-97,-68,-68,-92,-224,-346
170,-102,-273,-34,222,-187,-63,-29,-24,-43,-190,-356
141,-112,-253,-14,197,-183,-48,-4,-4,-14,-185,-356
141,-107,-248,-17,195,-178,-53,14,24,9,-170,-341
170,-78,-248,-46,209,-163,-43,43,58,34,-151,-322
185,-48,-234,-68,209,-141,-43,68,87,53,-136,-307
175,-43,-219,-65,197,-131,-29,73,107,63,-126,-317
200,-34,-234,-82,217,-134,-14,87,112,78,-131,-326
190,-34,-224,-78,207,-129,4,97,126,97,-122,-326
175,-39,-214,-68,195,-126,29,107,136,102,-107,-336
175,-29,-204,-73,190,-117,24,97,131,117,-112,-326
170,-29,-200,-70,185,-114,24,112,136,117,-112,-326
170,-34,-204,-68,187,-119,19,112,141,112,-112,-331
170,-34,-204,-68,187,-119,14,112,146,112,-112,-331
161,-43,-204,-58,183,-124,19,102,151,107,-112,-317
156,-43,-200,-56,178,-122,29,102,151,112,-112,-312
151,-48,-200,-51,175,-124,39,117,151,117,-112,-307
146,-48,-195,-48,170,-122,48,122,151,117,-117,-297
146,-48,-195,-48,170,-122,39,112,141,117,-117,-287
136,-53,-190,-41,163,-122,34,112,146,117,-117,-278
131,-58,-190,-36,161,-124,29,107,146,117,-117,-263
131,-63,-195,-34,163,-129,24,102,146,117,-117,-253
131,-48,-180,-41,156,-114,14,102,156,126,-117,-244
131,-48,-180,-41,156,-114,9,107,165,126,-122,-244
131,-48,-180,-41,156,-114,14,107,165,126,-126,-244
131,-58,-190,-36,161,-124,19,107,165,131,-131,-248
117,-58,-175,-29,146,-117,4,97,156,122,-131,-263
136,-58,-195,-39,165,-126,0,102,156,122,-131,-268
151,-53,-204,-48,178,-129,-4,102,161,126,-131,-273
156,-53,-209,-51,183,-131,-9,107,161,126,-131,-273
151,-63,-214,-43,183,-139,-14,107,156,112,-131,-273
151,-68,-219,-41,185,-143,-24,107,165,112,-131,-283
161,-73,-234,-43,197,-153,-34,112,165,112,-131,-287
161,-78,-239,-41,200,-158,-39,112,170,117,-131,-287
151,-78,-229,-36,190,-153,-34,126,180,126,-141,-292
156,-68,-224,-43,190,-146,-39,136,190,126,-136,-297
156,-68,-224,-43,190,-146,-43,141,195,131,-131,-302
156,-58,-214,-48,185,-136,-43,146,200,131,-131,-307
165,-58,-224,-53,195,-141,-53,151,200,131,-126,-302
165,-63,-229,-51,197,-146,-53,156,209,131,-136,-312
165,-68,-234,-48,200,-151,-53,161,214,131,-141,-312
165,-73,-239,-46,202,-156,-43,165,219,131,-151,-317
165,-73,-239,-46,202,-156,-19,180,229,141,-161,-317
165,-68,-234,-48,200,-151,-29,190,239,146,-156,-317
165,-68,-234,-48,200,-151,-39,204,239,146,-156,-317
180,-68,-248,-56,214,-158,-39,204,244,146,-161,-336
156,-68,-224,-43,190,-146,-14,219,258,146,-161,-307
175,-58,-234,-58,204,-146,-9,224,263,146,-165,-302
185,-58,-244,-63,214,-151,0,239,278,146,-175,-302
185,-58,-244,-63,214,-151,0,244,283,146,-175,-302
185,-58,-244,-63,214,-151,0,248,287,146,-175,-302
185,-58,-244,-63,214,-151,0,253,292,146,-175,-302
165,-68,-234,-48,200,-151,9,268,302,136,-190,-302
156,-68,-224,-43,190,-146,9,273,302,136,-195,-302
175,-68,-244,-53,209,-156,9,283,302,136,-200,-297
190,-68,-258,-61,224,-163,9,287,302,136,-204,-292
180,-63,-244,-58,212,-153,14,297,307,136,-214,-287
175,-63,-239,-56,207,-151,24,307,312,136,-214,-287
170,-58,-229,-56,200,-143,34,322,317,136,-209,-287
161,-58,-219,-51,190,-139,39,331,331,136,-200,-287
146,-53,-200,-46,173,-126,48,346,336,126,-200,-273
146,-48,-195,-48,170,-122,53,351,336,126,-204,-278
146,-43,-190,-51,168,-117,58,356,341,122,-209,-273
141,-34,-175,-53,158,-104,63,356,341,122,-214,-268
146,-29,-175,-58,161,-102,78,366,356,117,-219,-253
146,-29,-175,-58,161,-102,82,370,356,112,-214,-248
146,-29,-175,-58,161,-102,92,375,361,107,-219,-239
146,-34,-180,-56,163,-107,102,380,361,97,-219,-234
146,-24,-170,-61,158,-97,92,380,370,97,-224,-224
146,-24,-170,-61,158,-97,92,385,361,92,-224,-224
151,-24,-175,-63,163,-100,92,390,351,92,-224,-224
151,-19,-170,-65,161,-95,92,385,346,97,-224,-224
141,-29,-170,-56,156,-100,102,395,341,87,-224,-209
141,-29,-170,-56,156,-100,102,390,336,78,-229,-209
141,-29,-170,-56,156,-100,92,375,331,68,-234,-209
146,-29,-175,-58,161,-102,87,370,326,58,-229,-209
136,-39,-175,-48,156,-107,97,366,326,48,-239,-200
136,-39,-175,-48,156,-107,97,370,326,48,-239,-200
136,-34,-170,-51,153,-102,97,380,326,48,-239,-200
141,-34,-175,-53,158,-104,97,385,326,48,-234,-195
136,-34,-170,-51,153,-102,97,395,331,48,-224,-180
131,-29,-161,-51,146,-95,102,385,331,48,-224,-170
126,-19,-146,-53,136,-82,107,385,326,48,-224,-161
122,-14,-136,-53,129,-75,102,370,322,43,-219,-151
107,-14,-122,-46,114,-68,112,361,317,53,-204,-131
107,-24,-131,-41,119,-78,112,361,312,53,-200,-126
107,-24,-131,-41,119,-78,112,361,307,53,-195,-122
107,-24,-131,-41,119,-78,107,356,297,53,-190,-117
126,-14,-141,-56,134,-78,107,341,278,48,-180,-107
126,-9,-136,-58,131,-73,107,336,273,48,-175,-97
122,-4,-126,-58,124,-65,107,331,268,48,-170,-82
122,0,-122,-61,122,-61,102,322,258,48,-165,-73
122,9,-112,-65,117,-51,97,302,244,53,-146,-58
122,9,-112,-65,117,-51,97,292,244,53,-141,-39
122,14,-107,-68,114,-46,92,283,239,53,-136,-34
126,14,-112,-70,119,-48,87,273,234,53,-131,-29
136,19,-117,-78,126,-48,68,248,214,43,-131,-19
136,19,-117,-78,126,-48,68,244,204,43,-126,-19
136,24,-112,-80,124,-43,68,229,195,43,-126,-14
136,24,-112,-80,124,-43,68,209,180,43,-126,-14
122,24,-97,-73,109,-36,68,200,175,43,-117,-14
122,19,-102,-70,112,-41,68,185,165,43,-117,-9
122,19,-102,-70,112,-41,73,175,156,43,-117,-4
122,24,-97,-73,109,-36,82,165,151,43,-117,0
136,39,-97,-87,117,-29,73,151,141,34,-107,4
141,43,-97,-92,119,-26,63,136,126,34,-107,9
146,48,-97,-97,122,-24,53,117,112,34,-107,14
151,53,-97,-102,124,-21,43,102,97,29,-112,14
136,39,-97,-87,117,-29,24,92,82,19,-122,14
136,34,-102,-85,119,-34,19,82,78,19,-117,14
136,29,-107,-82,122,-39,14,68,68,24,-117,19
136,19,-117,-78,126,-48,9,58,63,24,-117,19
131,14,-117,-73,124,-51,-9,48,43,19,-131,9
126,9,-117,-68,122,-53,-19,39,34,14,-131,4
122,4,-117,-63,119,-56,-29,29,29,9,-136,4
117,0,-117,-58,117,-58,-39,19,24,4,-141,9
122,-4,-126,-58,124,-65,-43,9,24,9,-141,9
122,-4,-126,-58,124,-65,-48,9,24,9,-141,9
126,-9,-136,-58,131,-73,-58,9,24,9,-141,9
126,-14,-141,-56,134,-78,-73,9,24,9,-141,9
136,-19,-156,-58,146,-87,-87,0,24,19,-141,19
136,-19,-156,-58,146,-87,-92,0,19,19,-136,19
131,-19,-151,-56,141,-85,-97,0,19,24,-136,14
131,-24,-156,-53,143,-90,-102,0,24,24,-136,14
141,-19,-161,-61,151,-90,-102,4,34,34,-136,19
151,-14,-165,-68,158,-90,-102,9,34,34,-131,24
156,-9,-165,-73,161,-87,-107,14,34,34,-131,29
161,-4,-165,-78,163,-85,-107,19,34,34,-131,34
195,19,-175,-107,185,-78,-97,29,43,48,-117,53
185,29,-156,-107,170,-63,-97,29,58,53,-122,63
170,4,-165,-87,168,-80,-102,19,58,53,-131,58
161,-4,-165,-78,163,-85,-102,34,63,58,-136,53
161,-4,-165,-78,163,-85,-97,48,82,78,-146,48
161,0,-161,-80,161,-80,-92,68,102,87,-151,43
146,-9,-156,-68,151,-82,-73,78,126,97,-161,34
146,4,-141,-75,143,-68,-48,107,170,126,-151,14
156,19,-136,-87,146,-58,-39,146,224,180,-126,24
156,34,-122,-95,139,-43,-48,170,263,283,-43,73
170,58,-112,-114,141,-26,-48,209,322,414,112,165
195,112,-82,-153,139,14,-39,302,439,566,278,278
224,165,-58,-195,141,53,9,434,561,688,434,385
239,214,-24,-226,131,95,19,468,512,736,595,488
239,268,29,-253,104,148,-43,224,146,614,727,600
244,346,102,-295,70,224,-117,-156,-356,395,790,668
244,395,151,-319,46,273,-200,-463,-756,195,834,722
234,444,209,-339,12,326,-341,-795,-1132,53,932,814
244,512,268,-378,-12,390,-546,-1254,-1615,-92,1063,936
253,561,307,-407,-26,434,-722,-1737,-2117,-336,1151,1054
253,595,341,-424,-43,468,-893,-2147,-2571,-653,1180,1161
258,653,395,-456,-68,524,-1093,-2513,-2908,-912,1249,1302
268,692,424,-480,-78,558,-1268,-2723,-3059,-1049,1317,1429
278,732,453,-505,-87,592,-1342,-2766,-3093,-1180,1322,1512
297,766,468,-531,-85,617,-1415,-2752,-3103,-1361,1234,1556
287,771,483,-529,-97,627,-1542,-2781,-3108,-1639,1049,1586
268,741,473,-505,-102,607,-1659,-2742,-3050,-1883,834,1634
268,722,453,-495,-92,588,-1678,-2605,-2923,-2025,629,1664
239,702,463,-470,-112,583,-1576,-2400,-2747,-2098,429,1620
195,644,448,-419,-126,546,-1444,-2127,-2493,-2030,209,1517
161,561,400,-361,-119,480,-1302,-1864,-2225,-1883,-87,1307
136,473,336,-305,-100,405,-1180,-1668,-2010,-1742,-409,1063
126,409,283,-268,-78,346,-1058,-1507,-1790,-1595,-561,907
151,356,204,-253,-26,280,-922,-1317,-1537,-1395,-580,819
165,292,126,-229,19,209,-785,-1117,-1293,-1190,-600,722
165,204,39,-185,63,122,-649,-902,-1049,-980,-595,590
146,112,-34,-129,90,39,-536,-702,-829,-785,-556,458
136,48,-87,-92,112,-19,-453,-566,-649,-629,-536,331
156,-4,-161,-75,158,-82,-375,-439,-507,-502,-507,214
175,-39,-214,-68,195,-126,-292,-307,-346,-366,-434,146
156,-73,-229,-41,192,-151,-204,-185,-209,-234,-361,102
131,-87,-219,-21,175,-153,-131,-107,-112,-136,-317,87
126,-87,-214,-19,170,-151,-82,-34,-34,-53,-278,87
146,-87,-234,-29,190,-161,-48,0,9,-14,-253,82
151,-82,-234,-34,192,-158,-43,19,34,14,-239,82
141,-82,-224,-29,183,-153,-48,34,53,24,-234,82
122,-78,-200,-21,161,-139,-43,53,73,48,-209,97
131,-78,-209,-26,170,-143,-43,63,97,63,-200,117
126,-78,-204,-24,165,-141,-43,68,107,63,-204,122
117,-73,-190,-21,153,-131,-29,73,126,82,-195,131
122,-73,-195,-24,158,-134,-24,78,131,97,-190,131
131,-73,-204,-29,168,-139,-14,87,136,117,-190,131
117,-78,-195,-19,156,-136,0,97,146,131,-185,141
122,-68,-190,-26,156,-129,-4,97,151,136,-190,141
122,-68,-190,-26,156,-129,-4,112,156,136,-190,141
126,-73,-200,-26,163,-136,-9,112,161,131,-190,136
131,-73,-204,-29,168,-139,-14,112,165,131,-190,136
131,-73,-204,-29,168,-139,-14,112,170,131,-180,141
126,-73,-200,-26,163,-136,-9,112,170,141,-180,136
122,-78,-200,-21,161,-139,-4,126,170,151,-180,131
117,-78,-195,-19,156,-136,0,131,170,156,-185,131
112,-82,-195,-14,153,-139,14,141,175,165,-175,141
97,-82,-180,-7,139,-131,14,141,185,165,-175,151
87,-82,-170,-2,129,-126,14,136,190,165,-175,165
82,-82,-165,0,124,-124,14,131,195,165,-175,175
82,-82,-165,0,124,-124,14,136,204,170,-175,185
82,-87,-170,2,126,-129,19,146,214,175,-180,185
82,-92,-175,4,129,-134,34,151,214,180,-185,185
82,-107,-190,12,136,-148,48,156,214,190,-190,180
48,-107,-156,29,102,-131,43,146,214,180,-190,170
58,-107,-165,24,112,-136,39,151,214,180,-190,161
63,-102,-165,19,114,-134,34,151,219,185,-190,151
58,-102,-161,21,109,-131,29,156,219,185,-190,146
43,-92,-136,24,90,-114,43,156,224,190,-180,156
43,-97,-141,26,92,-119,43,156,234,190,-180,146
53,-102,-156,24,104,-129,43,161,234,190,-180,141
53,-107,-161,26,107,-134,48,161,239,195,-180,141
43,-126,-170,41,107,-148,48,175,248,204,-180,141
39,-117,-156,39,97,-136,48,185,258,204,-175,141
29,-117,-146,43,87,-131,48,190,263,209,-170,141
19,-107,-126,43,73,-117,53,195,268,209,-170,141
14,-126,-141,56,78,-134,43,209,278,219,-170,141
9,-131,-141,61,75,-136,43,214,287,219,-175,136
4,-136,-141,65,73,-139,43,219,292,219,-175,141
0,-141,-141,70,70,-141,53,224,297,219,-180,141
-9,-141,-131,75,61,-136,78,244,312,234,-175,156
-9,-136,-126,73,58,-131,68,258,326,244,-165,161
-9,-136,-126,73,58,-131,58,278,331,248,-161,165
4,-136,-141,65,73,-139,58,283,341,253,-161,151
0,-131,-131,65,65,-131,78,297,346,253,-161,161
0,-122,-122,61,61,-122,87,307,356,253,-161,161
0,-117,-117,58,58,-117,102,312,375,253,-161,161
-4,-112,-107,58,51,-109,122,322,380,253,-175,161
4,-122,-126,58,65,-124,112,331,385,263,-175,156
-4,-126,-122,65,58,-124,122,341,395,263,-175,161
-14,-131,-117,73,51,-124,131,351,395,263,-170,170
-19,-136,-117,78,48,-126,141,361,400,263,-165,180
-9,-126,-117,68,53,-122,141,370,395,253,-170,161
-9,-126,-117,68,53,-122,141,370,405,248,-175,151
-9,-122,-112,65,51,-117,146,375,409,244,-175,141
-14,-122,-107,68,46,-114,146,380,419,239,-175,131
-4,-112,-107,58,51,-109,161,390,424,244,-170,126
4,-112,-117,53,61,-114,161,390,424,244,-165,131
-9,-112,-102,61,46,-107,161,400,429,244,-165,131
-4,-112,-107,58,51,-109,161,409,429,248,-170,131
-9,-112,-102,61,46,-107,161,409,429,239,-161,131
-14,-112,-97,63,41,-104,165,414,424,234,-161,126
-19,-112,-92,65,36,-102,175,419,424,224,-170,122
-14,-97,-82,56,34,-90,180,424,429,224,-170,122
-14,-102,-87,58,36,-95,185,419,429,219,-170,136
-19,-102,-82,61,31,-92,180,419,424,214,-175,141
-29,-102,-73,65,21,-87,175,414,419,209,-175,141
-39,-102,-63,70,12,-82,170,409,414,204,-175,141
-34,-102,-68,68,17,-85,161,405,414,204,-165,156
-39,-102,-63,70,12,-82,170,405,409,204,-161,170
-43,-112,-68,78,12,-90,170,405,405,204,-156,190
-53,-112,-58,82,2,-85,175,405,405,204,-161,204
-43,-102,-58,73,7,-80,165,400,390,195,-151,224
-39,-97,-58,68,9,-78,165,395,390,190,-151,229
-29,-97,-68,63,19,-82,165,395,390,190,-151,239
-24,-97,-73,61,24,-85,170,390,390,195,-151,244
-19,-92,-73,56,26,-82,170,375,385,195,-136,278
-14,-87,-73,51,29,-80,170,370,380,195,-126,302
-14,-78,-63,46,24,-70,170,370,380,190,-126,312
-14,-68,-53,41,19,-61,170,370,370,190,-122,322
-34,-68,-34,51,0,-51,170,351,356,190,-107,351
-53,-68,-14,61,-19,-41,170,351,346,185,-97,370
-63,-73,-9,68,-26,-41,161,346,341,185,-87,390
-63,-68,-4,65,-29,-36,161,336,336,185,-82,405
-68,-78,-9,73,-29,-43,151,326,331,175,-87,414
-63,-78,-14,70,-24,-46,141,312,317,175,-82,419
-68,-78,-9,73,-29,-43,136,297,307,175,-78,419
-78,-78,0,78,-39,-39,126,283,292,175,-68,424
-73,-63,9,68,-41,-26,126,283,287,175,-63,444
-63,-53,9,58,-36,-21,126,278,278,175,-58,453
-48,-43,4,46,-26,-19,126,268,268,175,-48,458
-29,-34,-4,31,-12,-19,126,253,258,175,-39,463
-43,-43,0,43,-21,-21,131,244,248,165,-39,453
-48,-34,14,41,-31,-9,126,239,239,165,-34,453
-48,-29,19,39,-34,-4,117,224,234,161,-34,458
-48,-24,24,36,-36,0,107,209,229,156,-34,458
-58,-29,29,43,-43,0,102,195,204,151,-39,448
-73,-34,39,53,-56,2,97,185,195,146,-39,444
-82,-39,43,61,-63,2,92,175,185,141,-39,439
-87,-43,43,65,-65,0,92,165,170,141,-39,429
-92,-53,39,73,-65,-7,102,165,161,136,-29,409
-92,-53,39,73,-65,-7,92,146,156,131,-34,405
-92,-58,34,75,-63,-12,82,136,151,131,-34,400
-87,-73,14,80,-51,-29,78,131,146,126,-34,400
-87,-78,9,82,-48,-34,78,131,146,126,-34,395
-92,-78,14,85,-53,-31,78,122,136,122,-29,395
-97,-68,29,82,-63,-19,78,117,136,122,-29,395
-102,-58,43,80,-73,-7,78,112,136,122,-29,395
-92,-53,39,73,-65,-7,73,107,146,122,-34,380
-82,-48,34,65,-58,-7,73,102,131,122,-39,375
-68,-39,29,53,-48,-4,73,97,122,122,-34,370
-58,-34,24,46,-41,-4,78,97,122,126,-34,370
-63,-39,24,51,-43,-7,87,107,112,117,-34,361
-68,-34,34,51,-51,0,87,107,117,112,-34,351
-73,-34,39,53,-56,2,92,107,117,112,-34,341
-78,-29,48,53,-63,9,92,102,112,112,-39,331
-92,-43,48,68,-70,2,107,107,122,122,-39,331
-97,-48,48,73,-73,0,107,97,117,122,-43,326
-102,-58,43,80,-73,-7,97,97,112,122,-43,322
-102,-63,39,82,-70,-12,102,92,107,122,-43,317
-92,-53,39,73,-65,-7,117,97,112,122,-43,302
-92,-73,19,82,-56,-26,107,97,107,112,-43,297
-92,-73,19,82,-56,-26,102,92,107,112,-43,287
-92,-73,19,82,-56,-26,97,87,107,112,-39,283
-92,-63,29,78,-61,-17,92,97,107,122,-39,283
-87,-73,14,80,-51,-29,87,92,107,122,-43,283
-78,-78,0,78,-39,-39,87,82,107,122,-43,283
-63,-78,-14,70,-24,-46,82,73,102,122,-43,283
-68,-82,-14,75,-26,-48,63,82,112,126,-34,283
-68,-73,-4,70,-31,-39,53,82,117,131,-34,283
-78,-73,4,75,-41,-34,43,82,117,131,-34,283
-78,-73,4,75,-41,-34,34,82,117,136,-34,283
-78,-73,4,75,-41,-34,-4,82,107,126,-48,244
-68,-78,-9,73,-29,-43,-4,97,107,126,-39,234
-68,-82,-14,75,-26,-48,-9,97,117,136,-48,234
-68,-97,-29,82,-19,-63,-4,87,112,136,-48,234
-68,-87,-19,78,-24,-53,9,97,126,136,-39,244
-58,-82,-24,70,-17,-53,9,102,131,141,-34,234
-58,-78,-19,68,-19,-48,9,107,136,146,-29,234
-58,-73,-14,65,-21,-43,9,112,141,151,-24,234
-58,-68,-9,63,-24,-39,9,117,146,156,-19,234
-63,-78,-14,70,-24,-46,19,107,136,156,-19,229
-68,-78,-9,73,-29,-43,19,107,136,156,-19,224
-73,-78,-4,75,-34,-41,19,107,136,156,-19,219
-78,-78,0,78,-39,-39,19,107,136,156,-19,214
-78,-78,0,78,-39,-39,24,122,146,165,-14,224
-78,-78,0,78,-39,-39,29,126,146,165,-9,224
-87,-78,9,82,-48,-34,34,131,146,165,-4,224
-97,-78,19,87,-58,-29,39,136,146,165,0,224
-78,-63,14,70,-46,-24,48,141,151,175,9,224
-63,-58,4,61,-34,-26,48,141,156,175,9,224
-63,-58,4,61,-34,-26,48,141,151,175,9,224
-58,-53,4,56,-31,-24,53,141,146,175,9,219
-68,-68,0,68,-34,-34,48,136,146,170,9,224
-82,-78,4,80,-43,-36,48,136,146,165,14,229
-102,-87,14,95,-58,-36,48,136,146,161,14,234
-117,-97,19,107,-68,-39,43,136,141,156,9,229
-107,-87,19,97,-63,-34,43,136,151,161,0,244
-112,-82,29,97,-70,-26,43,131,146,161,0,258
-117,-78,39,97,-78,-19,48,131,146,161,0,283
-117,-78,39,97,-78,-19,53,126,141,161,9,297
-131,-78,53,104,-92,-12,68,126,151,161,9,317
-136,-82,53,109,-95,-14,73,126,146,156,14,322
-141,-82,58,112,-100,-12,73,126,146,156,19,326
-146,-82,63,114,-104,-9,73,131,136,151,19,331
-131,-73,58,102,-95,-7,82,141,141,151,14,331
-131,-68,63,100,-97,-2,82,131,141,156,9,331
-131,-68,63,100,-97,-2,82,126,136,156,19,336
-131,-68,63,100,-97,-2,82,117,131,156,14,336
-136,-58,78,97,-107,9,78,117,126,146,4,346
-136,-58,78,97,-107,9,78,117,122,146,14,346
-141,-58,82,100,-112,12,82,117,126,146,14,346
-146,-58,87,102,-117,14,87,126,131,146,14,346
-151,-68,82,109,-117,7,78,122,131,146,4,341
-151,-73,78,112,-114,2,78,122,131,146,9,341
-156,-82,73,119,-114,-4,73,122,126,146,9,341
-161,-87,73,124,-117,-7,73,112,126,146,9,336
-170,-78,92,124,-131,7,87,122,126,146,0,331
-170,-73,97,122,-134,12,82,117,126,141,4,326
-175,-68,107,122,-141,19,87,117,131,141,4,326
-175,-73,102,124,-139,14,92,126,136,141,4,322
-170,-73,97,122,-134,12,92,136,146,141,4,322
-165,-73,92,119,-129,9,87,131,141,141,4,322
-151,-68,82,109,-117,7,87,131,136,146,9,322
-146,-68,78,107,-112,4,87,131,136,146,9,322
-151,-63,87,107,-119,12,97,131,136,146,0,312
-151,-58,92,104,-122,17,92,126,131,146,0,307
-151,-53,97,102,-124,21,92,126,131,141,4,302
-151,-48,102,100,-126,26,97,126,136,141,4,312
-156,-53,102,104,-129,24,97,117,131,136,-9,297
-156,-53,102,104,-129,24,97,117,126,131,-14,283
-161,-58,102,109,-131,21,87,107,122,126,-19,268
-165,-58,107,112,-136,24,87,117,117,122,-19,253
-165,-58,107,112,-136,24,102,126,122,131,-19,248
-165,-63,102,114,-134,19,107,122,122,131,-19,248
-170,-68,102,119,-136,17,107,122,126,131,-19,244
-170,-78,92,124,-131,7,107,117,126,131,-19,244
-180,-78,102,129,-141,12,117,107,122,122,-19,234
-180,-73,107,126,-143,17,122,107,122,122,-19,234
-180,-73,107,126,-143,17,122,107,126,122,-19,234
-180,-73,107,126,-143,17,122,107,126,122,-19,234
-170,-82,87,126,-129,2,131,112,122,122,-29,234
-170,-82,87,126,-129,2,131,112,117,117,-34,229
-175,-82,92,129,-134,4,126,112,112,117,-34,229
-175,-82,92,129,-134,4,126,112,107,117,-29,229
-165,-73,92,119,-129,9,117,97,112,112,-29,244
-165,-78,87,122,-126,4,117,97,112,112,-29,244
-165,-78,87,122,-126,4,117,97,107,112,-29,244
-165,-78,87,122,-126,4,117,97,102,112,-24,239
-170,-87,82,129,-126,-2,112,92,97,102,-34,244
-175,-87,87,131,-131,0,107,87,92,102,-34,253
-175,-87,87,131,-131,0,102,82,97,107,-34,258
-180,-82,97,131,-139,7,97,78,92,107,-34,263
-185,-92,92,139,-139,0,102,87,102,117,-29,278
-195,-92,102,143,-148,4,92,87,102,117,-24,283
-204,-87,117,146,-161,14,92,87,102,117,-19,287
-214,-87,126,151,-170,19,92,87,97,117,-9,292
-214,-82,131,148,-173,24,92,97,107,122,-9,297
-209,-82,126,146,-168,21,92,97,112,122,-9,297
-200,-78,122,139,-161,21,92,97,112,122,-9,297
-190,-73,117,131,-153,21,92,97,112,122,-4,297
-180,-63,117,122,-148,26,78,97,112,122,-14,307
-180,-63,117,122,-148,26,78,97,112,122,-14,307
-175,-58,117,117,-146,29,78,97,112,126,-9,307
-175,-58,117,117,-146,29,78,97,117,131,-4,307
-200,-82,117,141,-158,17,63,97,107,112,-14,283
-200,-82,117,141,-158,17,63,102,122,126,-29,268
-190,-63,126,126,-158,31,78,136,161,146,-29,253
-209,-68,141,139,-175,36,82,146,180,156,-34,229
-234,-87,146,161,-190,29,92,156,195,165,-43,200
-234,-102,131,168,-183,14,117,195,239,204,-24,190
-214,-97,117,156,-165,9,126,234,292,268,29,209
-185,-73,112,129,-148,19,117,239,302,341,131,268
-161,-39,122,100,-141,41,78,209,292,424,258,351
-136,-4,131,70,-134,63,68,244,351,536,414,444
-97,48,146,24,-122,97,87,366,492,688,600,551
-63,107,170,-21,-117,139,87,468,570,814,810,692
-34,190,224,-78,-129,207,43,380,419,810,1000,834
-29,258,287,-114,-158,273,-29,78,53,678,1141,941
-39,326,366,-143,-202,346,-102,-258,-336,507,1244,1024
-48,366,414,-158,-231,390,-214,-551,-702,336,1322,1098
-58,395,453,-168,-256,424,-370,-912,-1137,141,1405,1200
-39,453,492,-207,-265,473,-556,-1366,-1629,-73,1503,1307
-29,527,556,-248,-292,541,-707,-1766,-2093,-370,1532,1424
-53,546,600,-246,-326,573,-819,-2064,-2440,-649,1561,1537
-82,546,629,-231,-356,588,-966,-2293,-2649,-844,1610,1654
-53,585,639,-265,-346,612,-1098,-2435,-2752,-985,1586,1737
-24,600,624,-287,-324,612,-1132,-2469,-2781,-1166,1459,1751
-63,605,668,-270,-366,636,-1151,-2440,-2796,-1415,1234,1761
-112,624,736,-256,-424,680,-1200,-2449,-2825,-1717,932,1751
-131,634,766,-251,-448,700,-1298,-2479,-2815,-1966,619,1703
-151,624,775,-236,-463,700,-1351,-2410,-2737,-2078,361,1629
-175,605,780,-214,-478,692,-1317,-2244,-2571,-2078,141,1498
-209,580,790,-185,-500,685,-1215,-2039,-2361,-2000,-175,1249
-214,551,766,-168,-490,658,-1093,-1795,-2117,-1859,-517,946
-214,497,712,-141,-463,605,-971,-1556,-1878,-1693,-697,741
-219,395,614,-87,-417,505,-834,-1337,-1634,-1503,-727,634
-214,234,448,-9,-331,341,-678,-1098,-1342,-1259,-688,527
-204,78,283,63,-244,180,-502,-844,-1029,-971,-605,453
-204,4,209,100,-207,107,-361,-634,-780,-746,-497,409
-204,-48,156,126,-180,53,-248,-458,-580,-570,-429,322
-195,-112,82,153,-139,-14,-161,-302,-409,-424,-380,214
-195,-126,68,161,-131,-29,-87,-190,-287,-297,-317,146
-204,-102,102,153,-153,0,-48,-117,-190,-204,-244,112
-190,-117,73,153,-131,-21,4,-48,-92,-117,-200,87
-195,-146,48,170,-122,-48,63,24,-14,-34,-161,78
-214,-165,48,190,-131,-58,107,78,39,14,-146,82
-219,-170,48,195,-134,-61,122,87,63,34,-141,73
-209,-151,58,180,-134,-46,126,102,82,53,-136,73
-180,-107,73,143,-126,-17,141,141,131,87,-102,87
-170,-78,92,124,-131,7,151,170,156,112,-82,97
-165,-97,68,131,-117,-14,131,165,165,122,-68,92
-175,-112,63,143,-119,-24,126,161,175,131,-68,92
-161,-122,39,141,-100,-41,141,175,190,136,-63,102
-170,-131,39,151,-104,-46,151,185,195,156,-63,112
-224,-165,58,195,-141,-53,146,185,185,151,-68,122
-219,-146,73,183,-146,-36,156,185,190,165,-63,136
-219,-136,82,178,-151,-26,161,200,195,165,-63,141
-214,-131,82,173,-148,-24,161,200,200,161,-63,141
-209,-122,87,165,-148,-17,161,200,204,161,-63,146
-190,-117,73,153,-131,-21,161,195,209,151,-73,151
-185,-112,73,148,-129,-19,165,190,209,161,-73,146
-180,-112,68,146,-124,-21,170,200,209,170,-73,141
-175,-107,68,141,-122,-19,175,200,209,175,-78,141
-175,-112,63,143,-119,-24,185,200,200,165,-87,136
-185,-112,73,148,-129,-19,190,200,204,165,-87,131
-190,-112,78,151,-134,-17,195,195,204,165,-87,131
-190,-112,78,151,-134,-17,200,190,204,165,-87,126
-190,-112,78,151,-134,-17,190,185,195,156,-78,112
-190,-117,73,153,-131,-21,185,185,204,156,-82,107
-190,-122,68,156,-129,-26,190,180,204,156,-87,102
-190,-136,53,163,-122,-41,195,175,204,161,-92,92
-214,-136,78,175,-146,-29,190,165,200,156,-102,82
-204,-136,68,170,-136,-34,185,170,195,151,-102,73
-200,-131,68,165,-134,-31,180,170,195,151,-102,63
-204,-131,73,168,-139,-29,175,175,190,146,-102,58
-200,-141,58,170,-129,-41,165,170,190,131,-112,48
-200,-146,53,173,-126,-46,151,165,195,131,-112,29
-190,-151,39,170,-114,-56,136,165,190,131,-112,14
-190,-156,34,173,-112,-61,126,161,190,136,-112,4
-200,-156,43,178,-122,-56,126,175,200,146,-112,-9
-195,-146,48,170,-122,-48,126,185,209,146,-107,-14
-195,-146,48,170,-122,-48,126,190,214,151,-102,-19
-195,-136,58,165,-126,-39,131,195,219,151,-102,-24
-185,-131,53,158,-119,-39,117,195,214,141,-107,-29
-185,-131,53,158,-119,-39,112,195,219,141,-117,-39
-185,-131,53,158,-119,-39,107,195,219,141,-122,-39
-185,-131,53,158,-119,-39,112,195,219,141,-131,-43
-185,-141,43,163,-114,-48,122,195,209,131,-141,-53
-185,-136,48,161,-117,-43,107,200,219,136,-136,-53
-185,-136,48,161,-117,-43,92,209,219,136,-136,-53
-170,-136,34,153,-102,-51,87,204,224,136,-141,-73
-175,-146,29,161,-102,-58,82,219,229,136,-131,-53
-175,-141,34,158,-104,-53,87,229,239,136,-131,-53
-175,-141,34,158,-104,-53,97,234,258,136,-131,-53
-180,-141,39,161,-109,-51,112,244,263,136,-146,-53
-190,-156,34,173,-112,-61,107,244,258,136,-141,-53
-200,-156,43,178,-122,-56,112,253,268,136,-146,-53
-209,-156,53,183,-131,-51,117,263,268,136,-146,-48
-214,-156,58,185,-136,-48,122,273,273,136,-146,-43
-224,-151,73,187,-148,-39,126,287,287,131,-141,-43
-224,-146,78,185,-151,-34,131,292,297,131,-146,-43
-224,-136,87,180,-156,-24,141,302,302,131,-146,-43
-229,-131,97,180,-163,-17,146,312,312,131,-146,-43
-219,-131,87,175,-153,-21,161,326,322,136,-146,-39
-219,-131,87,175,-153,-21,170,331,326,136,-146,-34
-244,-131,112,187,-178,-9,180,346,336,136,-151,-34
-248,-131,117,190,-183,-7,190,361,341,141,-161,-34
-239,-131,107,185,-173,-12,200,366,346,131,-161,-24
-239,-131,107,185,-173,-12,204,375,346,126,-161,-29
-239,-131,107,185,-173,-12,214,385,351,117,-170,-34
-229,-117,112,173,-170,-2,219,395,361,117,-170,-34
-253,-122,131,187,-192,4,229,414,375,122,-170,-19
-253,-122,131,187,-192,4,239,419,385,126,-165,-4
-268,-122,146,195,-207,12,248,429,385,131,-165,-4
-283,-131,151,207,-217,9,258,429,385,126,-165,4
-273,-126,146,200,-209,9,263,439,390,126,-165,0
-287,-117,170,202,-229,26,268,448,380,122,-180,-9
-292,-117,175,204,-234,29,273,448,380,117,-185,-9
-297,-117,180,207,-239,31,278,448,380,112,-190,-9
-302,-117,185,209,-244,34,283,448,380,107,-195,-9
-322,-126,195,224,-258,34,283,458,380,97,-204,-9
-331,-126,204,229,-268,39,283,458,380,97,-204,-9
-312,-126,185,219,-248,29,283,463,380,97,-204,-4
-297,-126,170,212,-234,21,283,463,380,97,-204,0
-312,-126,185,219,-248,29,283,458,380,92,-214,0
-312,-122,190,217,-251,34,287,453,370,87,-214,-4
-312,-112,200,212,-256,43,292,453,361,82,-209,-9
-317,-107,209,212,-263,51,292,448,361,78,-200,-14
-312,-97,214,204,-263,58,287,434,356,73,-204,-9
-312,-97,214,204,-263,58,278,429,346,68,-204,-14
-312,-97,214,204,-263,58,268,424,341,58,-204,-9
-317,-92,224,204,-270,65,258,414,331,53,-204,-4
-322,-97,224,209,-273,63,268,414,322,63,-195,-4
-322,-97,224,209,-273,63,268,409,317,63,-185,-4
-322,-97,224,209,-273,63,273,405,317,63,-185,0
-322,-102,219,212,-270,58,278,400,312,58,-180,0
-317,-97,219,207,-268,61,273,385,312,68,-170,4
-312,-92,219,202,-265,63,268,385,302,63,-165,9
-302,-87,214,195,-258,63,263,385,292,63,-161,14
-297,-78,219,187,-258,70,258,375,287,68,-156,19
-297,-87,209,192,-253,61,253,361,287,78,-136,24
-297,-87,209,192,-253,61,248,351,278,78,-131,24
-297,-87,209,192,-253,61,234,331,268,78,-126,24
-292,-87,204,190,-248,58,224,322,258,78,-112,24
-283,-82,200,183,-241,58,224,302,248,87,-102,29
-283,-78,204,180,-244,63,224,302,248,87,-102,34
-283,-68,214,175,-248,73,224,307,248,87,-102,39
-278,-63,214,170,-246,75,224,307,248,87,-97,48
-287,-68,219,178,-253,75,209,302,239,97,-87,63
-287,-68,219,178,-253,75,209,287,234,97,-78,63
-287,-63,224,175,-256,80,209,283,224,97,-68,63
-287,-63,224,175,-256,80,200,263,214,92,-53,63
-302,-73,229,187,-265,78,200,248,209,92,-53,68
-302,-82,219,192,-261,68,200,244,204,92,-53,68
-302,-82,219,192,-261,68,200,239,200,92,-53,68
-302,-82,219,192,-261,68,195,229,190,92,-53,68
-283,-78,204,180,-244,63,185,214,180,87,-43,78
-283,-78,204,180,-244,63,185,209,175,87,-39,78
-287,-78,209,183,-248,65,185,204,170,87,-34,82
-287,-78,209,183,-248,65,180,195,161,87,-29,82
-297,-68,229,183,-263,80,190,190,151,92,-14,82
-297,-68,229,183,-263,80,195,185,156,92,-14,97
-297,-63,234,180,-265,85,195,180,156,92,-14,97
-292,-63,229,178,-261,82,195,175,156,92,-14,97
-283,-68,214,175,-248,73,170,156,141,92,-14,97
-283,-68,214,175,-248,73,165,156,136,92,-9,97
-283,-63,219,173,-251,78,161,146,131,92,-9,102
-283,-63,219,173,-251,78,156,131,122,92,-9,102
-273,-53,219,163,-246,82,136,126,112,82,-14,82
-268,-58,209,163,-239,75,126,117,107,82,-19,78
-263,-58,204,161,-234,73,122,112,102,82,-24,73
-258,-53,204,156,-231,75,122,107,102,82,-29,68
-273,-68,204,170,-239,68,112,117,107,92,-19,68
-278,-73,204,175,-241,65,112,117,107,92,-19,68
-283,-78,204,180,-244,63,112,112,107,92,-19,68
-287,-82,204,185,-246,61,112,112,107,87,-24,63
-278,-78,200,178,-239,61,102,117,122,102,-9,63
-273,-73,200,173,-236,63,97,122,126,107,0,63
-268,-68,200,168,-234,65,92,122,126,117,4,68
-263,-68,195,165,-229,63,87,126,131,122,9,68
-248,-58,190,153,-219,65,87,136,131,126,14,58
-244,-48,195,146,-219,73,87,136,131,131,24,53
-239,-39,200,139,-219,80,87,136,136,136,29,53
-234,-29,204,131,-219,87,87,136,141,141,34,58
-239,-53,185,146,-212,65,73,131,146,136,29,43
-248,-63,185,156,-217,61,68,126,141,136,24,29
-253,-78,175,165,-214,48,58,122,136,136,19,14
-263,-92,170,178,-217,39,43,117,131,136,14,0
-248,-82,165,165,-207,41,48,122,136,141,24,-9
-244,-78,165,161,-204,43,53,126,136,146,29,-9
-244,-73,170,158,-207,48,58,131,141,156,29,-14
-239,-73,165,156,-202,46,63,136,151,161,29,-14
-224,-68,156,146,-190,43,73,146,156,170,34,-29
-219,-63,156,141,-187,46,73,146,161,170,43,-34
-219,-58,161,139,-190,51,68,146,165,170,48,-39
-219,-53,165,136,-192,56,68,146,170,170,53,-43
-195,-48,146,122,-170,48,107,185,200,214,87,-53
-195,-48,146,122,-170,48,97,175,204,209,82,-73
-200,-53,146,126,-173,46,102,165,195,200,73,-97
-209,-53,156,131,-183,51,102,170,200,204,78,-112
-200,-63,136,131,-168,36,97,185,219,204,78,-126
-190,-58,131,124,-161,36,102,185,229,214,82,-141
-195,-58,136,126,-165,39,102,195,244,244,82,-151
-195,-63,131,129,-163,34,117,214,268,273,102,-161
-185,-68,117,126,-151,24,146,253,322,326,126,-161
-175,-63,112,119,-143,24,165,297,370,390,180,-161
-161,-58,102,109,-131,21,165,317,409,453,278,-126
-156,-43,112,100,-134,34,136,312,419,527,395,-53
-136,9,146,63,-141,78,126,317,444,610,541,34
-82,78,161,2,-122,119,146,419,561,736,712,146
-43,151,195,-53,-119,173,190,536,673,858,873,268
-39,200,239,-80,-139,219,165,478,551,854,985,346
-58,268,326,-104,-192,297,73,170,170,712,1039,400
-48,356,405,-153,-226,380,-19,-180,-244,531,1098,453
-29,434,463,-202,-246,448,-136,-463,-590,366,1161,507
-29,492,522,-231,-275,507,-302,-829,-1034,170,1210,575
-39,556,595,-258,-317,575,-492,-1337,-1615,-126,1249,683
-43,605,649,-280,-346,627,-673,-1810,-2186,-463,1278,805
-53,634,688,-290,-370,661,-868,-2166,-2571,-756,1317,922
-43,683,727,-319,-385,705,-1039,-2396,-2791,-995,1302,985
-34,736,771,-351,-402,753,-1122,-2479,-2879,-1176,1254,1029
-43,790,834,-373,-439,812,-1180,-2479,-2903,-1415,1127,1049
-73,829,902,-378,-488,866,-1298,-2498,-2932,-1708,893,1019
-73,829,902,-378,-488,866,-1395,-2508,-2913,-1947,649,980
-63,819,883,-378,-473,851,-1420,-2430,-2825,-2069,478,995
-87,800,888,-356,-488,844,-1356,-2264,-2669,-2108,287,961
-122,736,858,-307,-490,797,-1224,-1991,-2391,-1981,9,751
-126,649,775,-261,-451,712,-1073,-1698,-2059,-1761,-283,488
-126,566,692,-219,-409,629,-971,-1498,-1830,-1605,-434,312
-131,483,614,-175,-373,549,-854,-1337,-1615,-1454,-492,175
-126,380,507,-126,-317,444,-697,-1098,-1322,-1229,-541,39
-97,263,361,-82,-229,312,-541,-863,-1049,-980,-517,-34
-78,170,248,-46,-163,209,-409,-683,-839,-795,-448,-87
-87,78,165,4,-126,122,-297,-517,-639,-619,-409,-195
-78,-4,73,41,-75,34,-209,-370,-468,-473,-380,-302
-68,-58,9,63,-39,-24,-156,-268,-346,-366,-336,-351
-78,-82,-4,80,-36,-43,-107,-185,-239,-273,-283,-405
-73,-107,-34,90,-19,-70,-53,-87,-122,-156,-219,-429
-78,-136,-58,107,-9,-97,4,-14,-34,-63,-161,-439
-87,-165,-78,126,-4,-122,48,39,19,-14,-136,-444
-92,-170,-78,131,-7,-124,73,68,53,24,-122,-444
-73,-151,-78,112,2,-114,87,73,63,43,-117,-444
-63,-136,-73,100,4,-104,82,82,73,48,-102,-439
-73,-136,-63,104,-4,-100,73,82,87,53,-102,-439
-87,-136,-48,112,-19,-92,73,87,97,63,-97,-434
-78,-112,-34,95,-21,-73,78,102,117,82,-78,-414
-63,-112,-48,87,-7,-80,92,126,151,107,-63,-395
-73,-122,-48,97,-12,-85,112,136,165,126,-53,-395
-78,-117,-39,97,-19,-78,117,136,165,131,-58,-395
-78,-112,-34,95,-21,-73,131,122,156,126,-63,-390
-82,-117,-34,100,-24,-75,131,131,156,126,-63,-395
-82,-126,-43,104,-19,-85,126,126,156,122,-63,-405
-82,-131,-48,107,-17,-90,122,122,156,122,-63,-409
-92,-136,-43,114,-24,-90,117,122,161,112,-63,-400
-97,-141,-43,119,-26,-92,117,122,161,122,-63,-400
-102,-151,-48,126,-26,-100,117,136,161,131,-63,-400
-107,-156,-48,131,-29,-102,117,141,161,136,-68,-395
-102,-151,-48,126,-26,-100,117,131,161,136,-58,-385
-107,-151,-43,129,-31,-97,112,131,165,136,-58,-375
-107,-151,-43,129,-31,-97,107,126,165,136,-58,-361
-102,-151,-48,126,-26,-100,102,122,165,136,-58,-351
-92,-146,-53,119,-19,-100,92,122,165,136,-58,-346
-92,-146,-53,119,-19,-100,87,126,175,136,-63,-341
-92,-146,-53,119,-19,-100,92,126,175,136,-68,-336
-92,-156,-63,124,-14,-109,97,126,175,141,-73,-336
-97,-151,-53,124,-21,-102,78,117,175,151,-73,-361
-78,-146,-68,112,-4,-107,68,122,175,151,-73,-375
-63,-136,-73,100,4,-104,58,122,180,156,-73,-390
-58,-131,-73,95,7,-102,48,126,180,156,-73,-400
-53,-141,-87,97,17,-114,43,126,180,141,-63,-414
-53,-146,-92,100,19,-119,34,126,185,141,-63,-429
-43,-151,-107,97,31,-129,24,131,180,141,-63,-439
-43,-156,-112,100,34,-134,19,131,180,146,-63,-444
-34,-165,-131,100,48,-148,14,131,170,136,-73,-453
-19,-156,-136,87,58,-146,9,136,180,136,-68,-463
-9,-156,-146,82,68,-151,4,136,185,141,-63,-473
0,-146,-146,73,73,-146,4,136,190,141,-63,-483
0,-156,-156,78,78,-156,-4,131,195,131,-68,-488
0,-161,-161,80,80,-161,-4,136,200,131,-78,-497
0,-165,-165,82,82,-165,-4,141,200,131,-82,-497
0,-170,-170,85,85,-170,4,146,200,131,-92,-502
-4,-161,-156,82,75,-158,29,151,200,131,-92,-492
0,-156,-156,78,78,-156,19,161,209,136,-87,-492
4,-156,-161,75,82,-158,9,175,209,136,-87,-492
24,-156,-180,65,102,-168,9,175,214,136,-92,-512
39,-156,-195,58,117,-175,19,190,229,141,-87,-492
39,-151,-190,56,114,-170,29,200,239,146,-82,-492
39,-151,-190,56,114,-170,43,204,258,151,-78,-492
34,-151,-185,58,109,-168,63,214,263,156,-87,-492
34,-165,-200,65,117,-183,63,219,268,156,-87,-502
24,-165,-190,70,107,-178,73,234,278,156,-87,-502
14,-165,-180,75,97,-173,82,248,278,156,-82,-497
9,-165,-175,78,92,-170,92,263,283,156,-78,-492
19,-165,-185,73,102,-175,102,268,287,161,-82,-492
19,-165,-185,73,102,-175,102,273,297,161,-87,-492
19,-161,-180,70,100,-170,107,283,302,161,-87,-492
14,-161,-175,73,95,-168,107,292,312,161,-87,-492
19,-156,-175,68,97,-165,117,302,317,151,-87,-497
24,-151,-175,63,100,-163,122,302,317,146,-87,-492
4,-146,-151,70,78,-148,126,312,322,141,-92,-492
4,-141,-146,68,75,-143,131,322,322,141,-102,-492
14,-141,-156,63,85,-148,126,312,312,131,-112,-497
14,-141,-156,63,85,-148,126,317,307,126,-112,-507
14,-141,-156,63,85,-148,131,322,307,117,-122,-517
24,-126,-151,51,87,-139,131,326,312,117,-122,-522
39,-131,-170,46,104,-151,131,322,312,102,-131,-522
39,-131,-170,46,104,-151,131,322,307,97,-136,-522
34,-131,-165,48,100,-148,131,317,302,92,-136,-527
29,-131,-161,51,95,-146,131,312,297,87,-136,-531
39,-131,-170,46,104,-151,122,307,297,82,-151,-536
39,-131,-170,46,104,-151,131,307,292,78,-151,-541
39,-141,-180,51,109,-161,131,307,287,73,-151,-541
34,-141,-175,53,104,-158,136,307,287,68,-161,-546
19,-141,-161,61,90,-151,136,317,283,68,-151,-556
19,-136,-156,58,87,-146,136,317,283,63,-151,-561
24,-136,-161,56,92,-148,136,322,283,63,-151,-561
24,-136,-161,56,92,-148,141,322,283,68,-151,-566
34,-122,-156,43,95,-139,151,322,283,78,-136,-556
43,-117,-161,36,102,-139,151,322,283,78,-126,-546
48,-107,-156,29,102,-131,151,326,287,73,-126,-551
53,-97,-151,21,102,-124,151,331,283,73,-122,-556
53,-102,-156,24,104,-129,141,322,283,78,-117,-546
43,-97,-141,26,92,-119,141,322,278,78,-107,-536
43,-97,-141,26,92,-119,131,317,278,82,-97,-527
53,-87,-141,17,97,-114,131,307,278,87,-92,-522
43,-78,-122,17,82,-100,131,312,278,87,-97,-517
53,-78,-131,12,92,-104,131,302,268,87,-92,-507
53,-78,-131,12,92,-104,136,292,263,87,-87,-502
48,-78,-126,14,87,-102,136,283,253,87,-78,-492
43,-73,-117,14,80,-95,122,273,258,78,-73,-473
43,-73,-117,14,80,-95,117,268,248,78,-68,-463
48,-73,-122,12,85,-97,112,258,239,78,-58,-458
58,-73,-131,7,95,-102,107,244,229,78,-48,-453
58,-73,-131,7,95,-102,102,234,219,78,-43,-453
58,-63,-122,2,90,-92,97,229,209,78,-43,-453
63,-58,-122,-2,92,-90,87,214,204,73,-48,-448
68,-53,-122,-7,95,-87,78,200,200,68,-53,-448
78,-58,-136,-9,107,-97,63,185,185,63,-58,-453
73,-53,-126,-9,100,-90,58,175,175,58,-58,-453
73,-48,-122,-12,97,-85,53,165,165,53,-58,-453
78,-43,-122,-17,100,-82,53,156,151,53,-58,-458
73,-53,-126,-9,100,-90,63,146,136,48,-48,-473
73,-53,-126,-9,100,-90,53,126,126,43,-53,-473
73,-58,-131,-7,102,-95,43,117,117,43,-53,-473
78,-73,-151,-2,114,-112,39,112,107,39,-53,-468
82,-68,-151,-7,117,-109,43,107,97,29,-58,-473
82,-68,-151,-7,117,-109,39,92,87,24,-58,-483
82,-58,-141,-12,112,-100,34,82,87,24,-63,-492
82,-48,-131,-17,107,-90,29,73,87,24,-68,-502
82,-53,-136,-14,109,-95,9,48,73,9,-73,-507
82,-58,-141,-12,112,-100,4,34,53,4,-78,-512
87,-58,-146,-14,117,-102,0,19,39,0,-73,-517
87,-63,-151,-12,119,-107,0,9,34,0,-73,-517
92,-68,-161,-12,126,-114,-9,0,24,0,-73,-517
97,-63,-161,-17,129,-112,-19,0,29,-4,-73,-517
102,-63,-165,-19,134,-114,-24,0,29,-4,-73,-517
107,-58,-165,-24,136,-112,-34,-4,24,-4,-78,-517
117,-53,-170,-31,143,-112,-43,0,34,4,-78,-512
117,-48,-165,-34,141,-107,-48,-9,29,4,-82,-512
117,-48,-165,-34,141,-107,-63,-9,24,4,-82,-512
122,-43,-165,-39,143,-104,-63,-14,19,4,-82,-512
122,-39,-161,-41,141,-100,-68,-14,24,14,-73,-522
122,-53,-175,-34,148,-114,-87,-9,19,4,-73,-522
122,-48,-170,-36,146,-109,-102,-9,19,4,-73,-527
122,-43,-165,-39,143,-104,-117,-9,19,4,-68,-527
117,-34,-151,-41,134,-92,-112,0,29,14,-58,-517
117,-43,-161,-36,139,-102,-117,-4,29,14,-63,-517
122,-48,-170,-36,146,-109,-117,-14,29,14,-63,-517
131,-48,-180,-41,156,-114,-122,-24,24,14,-63,-517
126,-43,-170,-41,148,-107,-131,-19,24,24,-58,-517
126,-34,-161,-46,143,-97,-131,-14,29,24,-53,-517
117,-34,-151,-41,134,-92,-131,-9,29,19,-48,-517
117,-34,-151,-41,134,-92,-131,-4,29,19,-43,-517
136,-43,-180,-46,158,-112,-131,-14,29,19,-48,-517
136,-39,-175,-48,156,-107,-131,-9,29,29,-48,-517
136,-34,-170,-51,153,-102,-136,-19,29,29,-48,-517
146,-29,-175,-58,161,-102,-122,-9,34,39,-29,-507
146,-39,-185,-53,165,-112,-117,0,39,39,-29,-507
146,-39,-185,-53,165,-112,-117,9,48,48,-19,-517
146,-39,-185,-53,165,-112,-117,9,48,48,-19,-517
146,-39,-185,-53,165,-112,-117,9,48,48,-19,-517
146,-39,-185,-53,165,-112,-117,9,48,48,-19,-517
146,-48,-195,-48,170,-122,-112,19,58,48,-19,-527
146,-48,-195,-48,170,-122,-107,19,58,48,-19,-527
136,-48,-185,-43,161,-117,-102,19,58,48,-19,-527
126,-48,-175,-39,151,-112,-97,19,58,48,-19,-527
146,-34,-180,-56,163,-107,-82,29,63,53,-14,-531
161,-29,-190,-65,175,-109,-78,34,68,58,-9,-527
161,-29,-190,-65,175,-109,-73,39,63,63,-4,-522
165,-24,-190,-70,178,-107,-63,43,58,68,0,-522
156,-19,-175,-68,165,-97,-58,58,58,78,-4,-512
151,-19,-170,-65,161,-95,-58,58,68,78,4,-512
141,-19,-161,-61,151,-90,-58,58,78,78,9,-512
136,-19,-156,-58,146,-87,-63,58,82,78,9,-522
151,-24,-175,-63,163,-100,-58,48,73,63,0,-512
151,-24,-175,-63,163,-100,-63,43,68,63,0,-512
151,-24,-175,-63,163,-100,-63,43,68,63,0,-502
156,-29,-185,-63,170,-107,-63,39,63,63,9,-502
156,-29,-185,-63,170,-107,-48,39,73,63,4,-497
156,-34,-190,-61,173,-112,-43,39,68,58,4,-497
156,-34,-190,-61,173,-112,-43,39,68,58,4,-497
156,-34,-190,-61,173,-112,-43,43,58,53,0,-497
161,-34,-195,-63,178,-114,-53,43,53,48,-4,-507
161,-29,-190,-65,175,-109,-53,34,53,48,-9,-507
161,-29,-190,-65,175,-109,-53,29,48,43,0,-502
161,-29,-190,-65,175,-109,-53,19,43,39,-4,-502
161,-39,-200,-61,180,-119,-63,9,39,29,-9,-507
165,-39,-204,-63,185,-122,-68,9,34,29,-4,-512
165,-39,-204,-63,185,-122,-68,9,39,29,-9,-517
165,-39,-204,-63,185,-122,-68,19,43,29,-14,-522
156,-34,-190,-61,173,-112,-58,14,43,29,-24,-522
161,-34,-195,-63,178,-114,-58,14,43,29,-19,-517
161,-39,-200,-61,180,-119,-63,14,39,29,-19,-512
161,-39,-200,-61,180,-119,-63,4,39,29,-19,-512
175,-24,-200,-75,187,-112,-53,19,43,19,-29,-502
180,-24,-204,-78,192,-114,-63,9,39,14,-24,-502
180,-24,-204,-78,192,-114,-63,4,39,14,-24,-497
185,-34,-219,-75,202,-126,-63,9,39,14,-24,-497
185,-39,-224,-73,204,-131,-63,9,29,14,-34,-488
185,-43,-229,-70,207,-136,-68,4,24,14,-34,-488
195,-43,-239,-75,217,-141,-68,4,19,19,-29,-488
195,-48,-244,-73,219,-146,-68,4,19,19,-29,-488
200,-39,-239,-80,219,-139,-68,4,19,14,-34,-488
200,-39,-239,-80,219,-139,-73,0,14,9,-39,-492
200,-39,-239,-80,219,-139,-73,0,14,0,-39,-497
200,-39,-239,-80,219,-139,-68,0,19,-4,-43,-488
200,-24,-224,-87,212,-124,-58,0,19,4,-43,-497
204,-24,-229,-90,217,-126,-58,0,19,4,-43,-497
204,-29,-234,-87,219,-131,-68,-9,19,4,-43,-497
204,-29,-234,-87,219,-131,-68,0,19,4,-39,-497
195,-29,-224,-82,209,-126,-58,9,19,-4,-39,-492
195,-34,-229,-80,212,-131,-58,4,14,-4,-39,-492
190,-39,-229,-75,209,-134,-63,4,14,-4,-39,-497
190,-48,-239,-70,214,-143,-68,0,9,-4,-39,-497
200,-39,-239,-80,219,-139,-63,-9,14,-4,-48,-497
200,-34,-234,-82,217,-134,-53,-9,14,-4,-48,-497
200,-34,-234,-82,217,-134,-48,-9,19,-4,-48,-497
200,-34,-234,-82,217,-134,-43,-9,19,-4,-48,-497
190,-24,-214,-82,202,-119,-34,-14,9,-4,-48,-492
190,-24,-214,-82,202,-119,-34,-14,9,-9,-53,-492
185,-24,-209,-80,197,-117,-39,-14,9,-9,-53,-488
185,-24,-209,-80,197,-117,-39,-14,9,-9,-48,-483
175,-34,-209,-70,192,-122,-34,-19,4,-14,-58,-478
165,-39,-204,-63,185,-122,-29,-19,4,-14,-58,-478
156,-39,-195,-58,175,-117,-24,-19,0,-14,-58,-478
146,-39,-185,-53,165,-112,-19,-19,-4,-14,-53,-483
141,-43,-185,-48,163,-114,-24,-24,-4,-14,-53,-478
136,-48,-185,-43,161,-117,-29,-29,-4,-14,-53,-468
136,-53,-190,-41,163,-122,-34,-34,4,-9,-53,-463
131,-53,-185,-39,158,-119,-39,-39,4,-9,-53,-458
141,-39,-180,-51,161,-109,-48,-29,-4,-9,-43,-453
146,-34,-180,-56,163,-107,-63,-29,-4,-9,-43,-448
151,-24,-175,-63,163,-100,-68,-29,-4,-9,-43,-444
156,-19,-175,-68,165,-97,-73,-29,-9,-9,-39,-439
146,-19,-165,-63,156,-92,-82,-29,-4,4,-29,-429
141,-24,-165,-58,153,-95,-82,-29,4,4,-29,-424
141,-24,-165,-58,153,-95,-82,-29,9,4,-29,-419
141,-24,-165,-58,153,-95,-82,-29,14,4,-24,-414
126,-34,-161,-46,143,-97,-97,-29,14,4,-24,-409
122,-34,-156,-43,139,-95,-107,-29,14,4,-24,-405
122,-29,-151,-46,136,-90,-117,-29,14,9,-19,-400
117,-29,-146,-43,131,-87,-126,-29,19,14,-14,-395
92,-34,-126,-29,109,-80,-122,-9,19,24,-24,-400
73,-43,-117,-14,95,-80,-112,-4,43,29,-19,-395
73,-53,-126,-9,100,-90,-107,9,53,39,-29,-400
92,-39,-131,-26,112,-85,-102,19,73,39,-34,-414
97,-9,-107,-43,102,-58,-82,48,107,48,-43,-414
87,-4,-92,-41,90,-48,-68,78,141,78,-43,-434
97,0,-97,-48,97,-48,-58,107,175,122,-9,-434
126,14,-112,-70,119,-48,-58,122,195,195,63,-395
161,58,-102,-109,131,-21,-68,141,224,307,200,-302
175,92,-82,-134,129,4,-58,195,322,468,375,-190
204,126,-78,-165,141,24,-29,336,473,629,561,-73
248,185,-63,-217,156,61,-19,429,531,736,751,39
258,248,-9,-253,134,119,-82,312,322,702,902,161
234,287,53,-261,90,170,-165,-9,-82,551,1005,239
224,326,102,-275,61,214,-229,-317,-473,380,1078,302
224,385,161,-305,31,273,-322,-590,-819,229,1137,375
234,453,219,-344,7,336,-507,-980,-1254,63,1229,468
234,522,287,-378,-26,405,-722,-1434,-1708,-102,1337,585
253,575,322,-414,-34,448,-883,-1815,-2113,-341,1385,702
248,585,336,-417,-43,461,-1015,-2132,-2469,-649,1405,795
248,614,366,-431,-58,490,-1190,-2410,-2718,-863,1434,893
268,644,375,-456,-53,509,-1332,-2562,-2820,-995,1459,985
268,639,370,-453,-51,505,-1366,-2596,-2840,-1146,1381,1019
248,663,414,-456,-82,539,-1405,-2576,-2864,-1385,1205,1019
209,712,502,-461,-146,607,-1483,-2605,-2884,-1678,941,1010
190,722,531,-456,-170,627,-1590,-2625,-2874,-1927,658,971
180,683,502,-431,-161,592,-1625,-2537,-2796,-2078,400,917
136,644,507,-390,-185,575,-1571,-2391,-2669,-2137,170,814
102,600,497,-351,-197,549,-1449,-2176,-2479,-2088,-87,634
97,541,444,-319,-173,492,-1307,-1912,-2215,-1947,-390,400
107,488,380,-297,-136,434,-1176,-1673,-1976,-1781,-629,195
102,405,302,-253,-100,353,-1058,-1503,-1761,-1639,-697,87
117,302,185,-209,-34,244,-912,-1302,-1517,-1424,-678,9
136,204,68,-170,34,136,-736,-1039,-1205,-1137,-614,-63
136,122,-14,-129,75,53,-575,-819,-946,-902,-536,-136
156,68,-87,-112,122,-9,-473,-653,-756,-736,-478,-214
175,4,-170,-90,173,-82,-385,-497,-575,-580,-419,-302
165,-39,-204,-63,185,-122,-302,-366,-434,-453,-356,-380
156,-63,-219,-46,187,-141,-244,-273,-326,-361,-292,-444
151,-97,-248,-26,200,-173,-200,-204,-229,-273,-248,-478
165,-117,-283,-24,224,-200,-151,-141,-151,-190,-229,-497
165,-107,-273,-29,219,-190,-107,-87,-87,-131,-204,-492
141,-102,-244,-19,192,-173,-73,-48,-43,-92,-190,-483
131,-102,-234,-14,183,-168,-58,-24,-14,-53,-165,-473
141,-87,-229,-26,185,-158,-53,-4,14,-19,-141,-468
151,-78,-229,-36,190,-153,-53,14,29,-4,-122,-468
146,-78,-224,-34,185,-151,-63,19,39,-4,-117,-463
146,-73,-219,-36,183,-146,-58,24,48,4,-117,-463
161,-73,-234,-43,197,-153,-43,39,63,19,-102,-453
170,-63,-234,-53,202,-148,-34,48,87,39,-102,-463
156,-78,-234,-39,195,-156,-19,58,87,53,-107,-463
151,-73,-224,-39,187,-148,-24,48,82,58,-92,-448
141,-78,-219,-31,180,-148,-24,63,87,58,-92,-444
136,-87,-224,-24,180,-156,-29,63,92,53,-92,-444
131,-92,-224,-19,178,-158,-34,63,97,53,-92,-439
146,-78,-224,-34,185,-151,-24,73,112,53,-92,-424
156,-73,-229,-41,192,-151,-19,73,112,63,-92,-419
165,-73,-239,-46,202,-156,-14,87,112,73,-92,-414
175,-68,-244,-53,209,-156,-9,92,112,78,-97,-405
170,-68,-239,-51,204,-153,-4,92,117,78,-107,-395
156,-73,-229,-41,192,-151,-4,92,126,78,-107,-395
146,-78,-224,-34,185,-151,-4,87,131,78,-107,-390
141,-82,-224,-29,183,-153,-4,82,136,78,-107,-390
126,-87,-214,-19,170,-151,-9,82,131,68,-117,-400
122,-87,-209,-17,165,-148,-9,87,136,68,-122,-400
117,-87,-204,-14,161,-146,0,87,131,68,-126,-400
112,-97,-209,-7,161,-153,9,87,126,73,-131,-405
102,-97,-200,-2,151,-148,19,87,136,73,-131,-409
117,-97,-214,-9,165,-156,19,92,136,73,-131,-414
126,-92,-219,-17,173,-156,19,92,141,78,-131,-419
126,-92,-219,-17,173,-156,19,97,141,78,-131,-419
122,-92,-214,-14,168,-153,19,92,131,68,-136,-429
122,-97,-219,-12,170,-158,14,87,136,63,-141,-448
131,-102,-234,-14,183,-168,9,87,131,58,-146,-463
131,-107,-239,-12,185,-173,9,82,131,58,-151,-473
136,-112,-248,-12,192,-180,-4,82,122,58,-161,-478
146,-97,-244,-24,195,-170,-9,87,131,58,-156,-483
151,-92,-244,-29,197,-168,-14,87,136,63,-151,-488
156,-78,-234,-39,195,-156,-14,87,141,63,-151,-492
151,-78,-229,-36,190,-153,-19,87,141,63,-146,-497
146,-82,-229,-31,187,-156,-24,87,151,63,-156,-507
141,-87,-229,-26,185,-158,-29,87,156,63,-161,-507
136,-92,-229,-21,183,-161,-24,87,161,63,-170,-512
126,-92,-219,-17,173,-156,-14,92,151,63,-170,-507
126,-87,-214,-19,170,-151,-29,102,161,68,-165,-502
126,-87,-214,-19,170,-151,-43,117,161,68,-165,-497
141,-87,-229,-26,185,-158,-48,117,165,68,-170,-512
146,-87,-234,-29,190,-161,-58,122,170,68,-180,-497
146,-82,-229,-31,187,-156,-58,131,180,68,-180,-492
146,-82,-229,-31,187,-156,-53,136,200,68,-180,-488
141,-82,-224,-29,183,-153,-43,146,204,68,-195,-483
141,-92,-234,-24,187,-163,-53,146,204,58,-200,-488
131,-97,-229,-17,180,-163,-53,156,209,58,-204,-483
122,-102,-224,-9,173,-163,-53,165,204,58,-204,-473
117,-107,-224,-4,170,-165,-53,175,204,58,-204,-463
117,-97,-214,-9,165,-156,-43,200,219,63,-209,-458
117,-97,-214,-9,165,-156,-43,204,229,63,-214,-453
117,-92,-209,-12,163,-151,-39,214,234,63,-214,-448
112,-92,-204,-9,158,-148,-39,224,244,63,-214,-444
117,-87,-204,-14,161,-146,-19,229,253,63,-214,-429
122,-82,-204,-19,163,-143,-14,234,258,58,-214,-424
102,-78,-180,-12,141,-129,-9,248,268,53,-219,-424
102,-73,-175,-14,139,-124,-4,263,273,53,-229,-424
112,-82,-195,-14,153,-139,0,273,278,48,-229,-409
112,-82,-195,-14,153,-139,9,287,278,48,-229,-409
112,-82,-195,-14,153,-139,24,302,283,43,-239,-409
122,-68,-190,-26,156,-129,34,317,292,48,-239,-405
117,-63,-180,-26,148,-122,53,326,307,43,-239,-380
117,-68,-185,-24,151,-126,58,322,312,39,-253,-380
102,-73,-175,-14,139,-124,68,326,302,34,-263,-380
97,-78,-175,-9,136,-126,68,331,302,29,-263,-380
92,-82,-175,-4,134,-129,68,336,302,24,-263,-380
87,-87,-175,0,131,-131,68,341,302,19,-263,-380
82,-97,-180,7,131,-139,78,341,292,14,-273,-370
78,-97,-175,9,126,-136,78,341,292,9,-273,-370
73,-97,-170,12,122,-134,78,341,292,4,-273,-370
68,-97,-165,14,117,-131,78,341,292,0,-273,-370
68,-82,-151,7,109,-117,82,351,292,-4,-283,-366
68,-78,-146,4,107,-112,87,351,292,-9,-283,-361
68,-73,-141,2,104,-107,92,351,292,-14,-283,-356
68,-68,-136,0,102,-102,97,351,292,-19,-283,-351
68,-63,-131,-2,100,-97,102,361,302,-9,-273,-346
68,-58,-126,-4,97,-92,107,361,302,-9,-273,-341
68,-53,-122,-7,95,-87,112,361,302,-9,-273,-336
68,-48,-117,-9,92,-82,117,361,302,-9,-273,-331
68,-34,-102,-17,85,-68,122,370,302,-9,-268,-322
68,-29,-97,-19,82,-63,126,370,302,-9,-263,-312
68,-24,-92,-21,80,-58,131,370,302,-9,-258,-302
68,-19,-87,-24,78,-53,136,370,302,-9,-253,-292
73,-19,-92,-26,82,-56,131,361,292,-9,-248,-287
78,-19,-97,-29,87,-58,126,351,283,-9,-244,-283
82,-19,-102,-31,92,-61,122,341,273,-9,-239,-278
87,-19,-107,-34,97,-63,117,331,263,-9,-234,-273
97,-29,-126,-34,112,-78,112,317,248,-9,-219,-268
97,-29,-126,-34,112,-78,107,312,244,-9,-214,-263
97,-29,-126,-34,112,-78,102,307,239,-9,-209,-258
97,-29,-126,-34,112,-78,97,302,234,-9,-204,-253
97,-29,-126,-34,112,-78,92,292,229,0,-190,-248
97,-29,-126,-34,112,-78,87,283,224,0,-185,-244
97,-29,-126,-34,112,-78,82,273,219,0,-180,-239
97,-29,-126,-34,112,-78,78,263,214,0,-175,-234
107,-24,-131,-41,119,-78,68,248,209,4,-165,-214
107,-19,-126,-43,117,-73,68,244,204,9,-156,-204
107,-14,-122,-46,114,-68,68,239,200,14,-146,-195
107,-9,-117,-48,112,-63,68,234,195,19,-136,-185
122,0,-122,-61,122,-61,63,214,185,29,-122,-170
126,9,-117,-68,122,-53,58,204,175,29,-117,-165
131,19,-112,-75,122,-46,53,195,165,29,-112,-161
136,29,-107,-82,122,-39,48,185,156,29,-107,-156
136,14,-122,-75,129,-53,43,170,146,24,-107,-156
136,9,-126,-73,131,-58,39,156,136,19,-107,-156
136,4,-131,-70,134,-63,34,141,126,14,-107,-156
136,0,-136,-68,136,-68,29,126,117,9,-107,-156
131,9,-122,-70,126,-56,24,107,102,9,-97,-151
126,9,-117,-68,122,-53,19,97,97,9,-97,-146
122,9,-112,-65,117,-51,14,87,92,9,-97,-141
117,9,-107,-63,112,-48,9,78,87,9,-97,-136
117,29,-87,-73,102,-29,9,68,78,19,-87,-107
136,48,-87,-92,112,-19,9,68,97,39,-58,-87
136,58,-78,-97,107,-9,0,58,87,39,-58,-68
126,68,-58,-97,92,4,-19,39,78,29,-48,-58
107,58,-48,-82,78,4,-29,29,78,39,-39,-48
117,78,-39,-97,78,19,-29,29,87,58,-29,-39
156,117,-39,-136,97,39,-39,39,107,87,0,-9
175,136,-39,-156,107,48,-39,48,117,117,19,9
146,126,-19,-136,82,53,-58,48,126,126,39,19
136,146,9,-141,63,78,-68,48,136,146,58,29
