I,II,III,aVR,aVL,aVF,V1,V2,V3,V4,V5,V6
-68,19,87,24,-77,53,97,244,165,136,117,97
-65,21,86,22,-75,53,92,244,167,136,117,97
-63,23,86,20,-74,54,87,244,169,136,117,97
-60,26,86,17,-73,56,81,243,172,135,116,96
-58,28,86,15,-72,57,78,243,174,135,116,96
-57,29,86,14,-71,57,77,244,177,138,119,99
-57,29,86,14,-71,57,77,244,179,140,121,101
-58,28,86,15,-72,57,78,243,182,143,124,104
-58,28,86,15,-72,57,78,243,184,145,125,106
-54,33,87,10,-70,60,75,244,185,148,128,107
-48,38,86,5,-67,62,73,244,185,150,130,107
-41,44,85,-1,-63,64,70,243,184,153,133,106
-38,47,85,-4,-61,66,68,243,184,155,135,106
-42,48,90,-3,-66,69,67,244,187,156,136,107
-47,48,95,0,-71,71,67,244,189,156,136,107
-53,47,100,3,-76,73,68,243,192,155,135,106
-57,47,104,5,-80,75,68,243,194,155,135,106
-62,48,110,7,-86,79,67,244,195,158,136,107
-67,48,115,9,-91,81,67,244,195,160,136,107
-74,47,121,13,-97,84,68,243,194,163,135,106
-77,47,124,15,-100,85,68,243,194,164,135,106
-74,51,125,11,-99,88,67,245,197,165,138,109
-68,57,125,5,-96,91,67,247,199,165,140,111
-61,63,124,-1,-92,93,68,250,201,164,143,114
-58,67,125,-4,-91,96,68,252,203,164,145,116
-57,68,125,-5,-91,96,67,255,208,167,148,120
-57,68,125,-5,-91,96,67,257,213,169,150,125
-57,67,124,-5,-90,95,68,260,219,172,153,131
-57,67,124,-5,-90,95,68,262,223,174,155,135
-61,68,129,-3,-95,98,67,263,226,175,156,136
-67,68,135,0,-101,101,67,263,228,175,156,136
-74,67,141,3,-107,104,68,262,231,174,155,136
-77,67,144,5,-110,105,68,262,233,174,155,136
-74,70,144,2,-109,107,67,265,234,177,158,134
-68,72,140,-2,-104,106,67,267,234,179,160,131
-61,75,136,-7,-98,105,68,270,233,182,163,127
-58,77,135,-9,-96,106,68,272,233,184,164,126
-57,80,137,-11,-97,108,67,275,236,185,165,125
-57,81,138,-12,-97,109,67,277,238,185,165,126
-58,83,141,-12,-99,112,68,280,241,183,164,124
-58,86,144,-14,-101,115,68,282,243,184,164,125
-57,91,148,-17,-102,119,65,284,245,191,169,131
-57,96,153,-19,-105,124,63,286,247,199,174,140
-58,101,159,-21,-108,130,60,289,250,208,180,149
-58,106,164,-24,-111,135,58,291,252,213,184,155
-57,115,172,-29,-114,143,55,292,253,216,187,157
-57,125,182,-34,-119,153,53,291,253,218,189,156
-58,137,195,-39,-126,166,50,292,252,221,192,155
-58,145,203,-43,-130,174,48,292,252,223,194,155
-57,147,204,-45,-130,175,47,289,253,224,195,156
-57,146,203,-44,-130,174,47,287,252,224,195,156
-58,144,202,-43,-130,173,48,285,253,223,194,155
-58,145,203,-43,-130,174,48,283,253,223,194,155
-57,150,207,-46,-132,178,44,278,252,227,198,159
-57,155,212,-49,-134,183,39,273,252,233,203,164
-58,160,218,-51,-138,189,34,268,253,239,209,170
-58,164,222,-53,-140,193,29,263,253,243,213,174
-57,171,228,-57,-142,199,22,256,249,244,214,175
-57,179,236,-61,-146,207,14,248,244,244,214,175
-58,188,246,-65,-152,217,5,240,238,243,213,174
-58,194,252,-68,-155,223,0,234,234,243,213,174
-55,199,254,-72,-154,226,-1,230,233,245,216,178
-53,203,256,-75,-154,229,0,229,233,247,218,184
-50,209,259,-79,-154,234,0,227,234,250,221,190
-48,213,261,-82,-154,237,0,224,234,252,223,194
-45,214,259,-84,-152,236,0,219,231,255,226,195
-43,214,257,-85,-150,235,0,214,229,257,228,195
-40,213,253,-86,-146,233,0,208,227,260,231,194
-39,213,252,-87,-145,232,0,204,224,262,233,194
-38,215,253,-88,-145,234,-3,199,217,263,234,194
-38,218,256,-90,-147,237,-8,195,209,262,234,194
-39,222,261,-91,-150,241,-15,189,200,263,234,195
-39,223,262,-92,-150,242,-19,185,195,263,234,195
-38,223,261,-92,-149,242,-15,184,193,258,231,192
-38,223,261,-92,-149,242,-9,184,194,253,229,190
-39,225,264,-93,-151,244,-3,184,195,247,226,187
-39,224,263,-92,-151,243,0,184,195,244,224,185
-38,215,253,-88,-145,234,4,186,192,241,221,182
-38,204,242,-83,-140,223,8,189,190,239,219,180
-39,193,232,-77,-135,212,14,192,187,236,216,177
-39,185,224,-73,-131,204,18,194,185,234,214,175
-37,177,214,-70,-125,195,19,195,184,229,211,174
-34,170,204,-68,-119,187,19,195,184,224,209,174
-31,161,192,-65,-111,176,18,194,185,218,206,175
-29,156,185,-63,-107,170,18,194,185,214,204,175
-28,154,182,-63,-105,168,21,195,184,213,202,172
-28,155,183,-63,-105,169,23,195,184,213,200,170
-29,156,185,-63,-107,170,26,194,185,214,197,168
-29,156,185,-63,-107,170,28,194,185,214,195,165
-29,155,184,-63,-106,169,33,197,184,211,192,159
-29,155,184,-63,-106,169,38,199,184,209,190,151
-28,156,184,-64,-106,170,44,202,185,207,187,142
-28,156,184,-64,-106,170,47,203,185,204,185,136
-30,153,183,-61,-106,168,45,204,184,198,180,132
-33,151,184,-59,-108,167,39,204,184,190,175,131
-36,148,184,-56,-110,166,32,203,185,181,169,128
-38,146,184,-54,-111,165,29,203,185,175,165,126
-39,141,180,-51,-109,160,28,204,182,171,162,125
-39,136,175,-48,-107,155,28,204,180,170,161,125
-38,130,168,-46,-103,149,28,203,177,167,158,126
-38,126,164,-44,-101,145,28,203,175,165,156,126
-39,123,162,-42,-100,142,30,204,172,163,153,125
-39,122,161,-41,-100,141,33,204,170,161,151,125
-38,119,157,-40,-97,138,36,203,167,158,148,126
-38,117,155,-39,-96,136,38,203,165,156,146,126
-40,116,156,-38,-98,136,40,203,164,155,145,122
-42,116,158,-37,-100,137,42,203,164,155,145,117
-45,117,162,-36,-103,139,45,204,165,156,146,111
-47,117,164,-35,-105,140,47,204,165,156,146,107
-48,116,164,-34,-106,140,50,203,164,154,145,104
-48,116,164,-34,-106,140,52,203,164,151,145,102
-47,117,164,-35,-105,140,55,204,165,148,146,99
-47,117,164,-35,-105,140,57,204,165,146,146,97
-49,113,162,-32,-105,137,58,203,164,145,145,96
-52,107,159,-27,-105,133,58,203,164,145,145,96
-55,101,156,-23,-105,128,57,204,165,146,146,96
-57,97,154,-20,-105,125,57,204,165,146,146,96
-58,96,154,-19,-106,125,58,202,165,145,144,98
-58,96,154,-19,-106,125,58,200,165,145,141,101
-57,97,154,-20,-105,125,57,197,164,146,138,104
-57,97,154,-20,-105,125,57,195,164,146,136,106
-58,97,155,-19,-106,126,58,194,165,146,135,107
-58,97,155,-19,-106,126,58,194,165,146,136,107
-57,96,153,-19,-105,124,57,195,164,145,135,106
-57,96,153,-19,-105,124,57,195,164,145,135,106
-58,98,156,-20,-107,127,58,194,165,146,137,108
-58,101,159,-21,-108,130,58,194,165,146,140,111
-57,104,161,-23,-109,132,57,195,164,145,143,114
-57,106,163,-24,-110,134,57,195,164,145,145,116
-57,107,164,-25,-110,135,58,194,166,147,148,117
-57,107,164,-25,-110,135,58,194,169,150,150,117
-58,106,164,-24,-111,135,57,195,173,154,154,116
-58,106,164,-24,-111,135,57,195,174,155,155,116
-57,109,166,-26,-111,137,59,192,174,155,155,118
-57,111,168,-27,-112,139,62,190,174,155,155,121
-58,114,172,-28,-115,143,65,189,176,159,159,125
-58,116,174,-29,-116,145,67,189,179,164,164,130
-57,121,178,-32,-117,149,69,191,182,170,170,136
-57,125,182,-34,-119,153,72,194,184,174,174,140
-58,126,184,-34,-121,155,80,199,187,175,178,141
-58,125,183,-33,-120,154,91,203,189,175,179,140
-56,127,183,-35,-119,155,102,205,190,174,179,143
-53,130,183,-38,-118,156,111,204,189,174,179,145
-47,133,180,-43,-113,156,118,202,190,177,185,146
-43,135,178,-46,-110,156,121,200,190,180,189,146
-41,138,179,-48,-110,158,124,197,185,177,189,145
-42,140,182,-49,-112,161,125,195,180,175,185,145
-43,142,185,-49,-114,163,127,193,175,174,181,146
-43,145,188,-51,-115,166,126,190,174,175,179,146
-39,151,190,-56,-114,170,119,184,177,172,182,145
-34,155,189,-60,-111,172,107,175,179,170,184,145
-28,156,184,-64,-106,170,90,164,178,168,185,147
-24,155,179,-65,-101,167,73,156,175,169,184,150
-20,157,177,-68,-98,167,59,154,174,172,186,156
-19,160,179,-70,-99,169,43,151,174,174,189,160
-18,164,182,-73,-100,173,21,140,174,175,193,161
-18,165,183,-73,-100,174,-3,126,170,175,195,160
-19,162,181,-71,-100,171,-26,117,160,172,193,162
-19,160,179,-70,-99,169,-42,112,151,170,190,164
-16,164,180,-74,-98,172,-45,108,146,168,188,167
-9,169,178,-80,-93,173,-43,107,145,169,189,169
2,173,171,-87,-84,172,-42,106,147,173,192,170
13,174,161,-93,-74,167,-42,106,150,175,194,169
21,174,153,-97,-66,163,-42,108,153,171,195,170
23,174,151,-98,-64,162,-39,111,155,165,195,170
23,176,153,-99,-65,164,-31,119,156,162,195,167
23,175,152,-99,-64,163,-24,125,156,161,195,165
26,168,142,-97,-58,155,-19,126,154,158,193,163
24,156,132,-90,-54,144,-14,125,151,151,185,156
8,141,133,-74,-62,137,-3,130,143,135,167,140
-8,126,134,-59,-71,130,8,135,136,117,146,122
-16,112,128,-48,-72,120,17,136,132,103,130,111
-18,102,120,-42,-69,111,23,135,131,97,122,107
-23,96,119,-36,-71,107,29,138,131,97,121,107
-28,92,120,-32,-74,106,33,140,131,97,122,107
-32,87,119,-27,-75,103,38,139,129,90,118,102
-33,82,115,-24,-74,98,42,136,126,82,112,97
-34,77,111,-21,-72,94,48,135,121,79,106,94
-34,73,107,-19,-70,90,52,135,117,78,102,92
-33,67,100,-17,-66,83,53,135,116,73,99,87
-33,63,96,-15,-64,79,53,135,116,68,97,82
-34,62,96,-14,-65,79,52,137,116,65,92,77
-34,62,96,-14,-65,79,52,140,116,63,87,73
-32,63,95,-15,-63,79,52,146,119,60,82,67
-29,63,92,-17,-60,77,52,150,121,58,78,63
-26,61,87,-17,-56,74,54,151,120,57,75,62
-24,58,82,-17,-53,70,57,151,117,58,73,62
-23,55,78,-16,-50,66,64,150,113,56,70,63
-23,53,76,-15,-49,64,67,150,112,53,68,63
-24,52,76,-14,-50,64,65,150,111,50,67,60
-24,52,76,-14,-50,64,58,150,111,48,67,58
-23,55,78,-16,-50,66,51,151,112,45,68,55
-23,57,80,-17,-51,68,48,151,111,43,68,53
-24,58,82,-17,-53,70,47,148,112,41,66,50
-24,58,82,-17,-53,70,48,146,112,39,63,48
-23,57,80,-17,-51,68,45,145,111,36,60,45
-23,57,80,-17,-51,68,43,145,111,34,58,43
-25,58,83,-16,-54,70,42,146,114,33,57,42
-28,58,86,-15,-57,72,42,146,116,33,57,42
-31,55,86,-12,-58,70,42,144,117,36,60,43
-33,53,86,-10,-59,69,42,145,117,38,62,42
-34,52,86,-9,-60,69,44,152,116,39,61,43
-34,52,86,-9,-60,69,47,160,116,38,58,43
-33,53,86,-10,-59,69,50,167,119,39,55,41
-33,53,86,-10,-59,69,52,170,121,39,53,39
-33,53,86,-10,-59,69,53,167,123,35,48,36
-33,53,86,-10,-59,69,53,161,122,29,43,34
-34,52,86,-9,-60,69,53,155,119,23,37,31
-34,52,86,-9,-60,69,53,151,117,19,34,29
-32,54,86,-11,-59,70,51,146,119,18,33,26
-29,57,86,-14,-57,71,48,141,125,18,34,24
-25,61,86,-18,-55,73,44,135,134,19,32,21
-24,62,86,-19,-55,74,43,131,140,19,29,19
-25,62,87,-18,-56,74,44,128,138,18,26,16
-28,62,90,-17,-59,76,47,130,131,18,24,14
-34,69,103,-17,-68,86,53,141,126,19,23,10
-42,81,123,-19,-82,102,57,155,125,19,23,8
-52,99,151,-23,-101,125,59,165,131,19,27,14
-62,120,182,-29,-122,151,62,179,140,23,33,23
-69,144,213,-37,-141,178,72,206,151,34,43,34
-77,164,241,-43,-159,202,90,264,169,47,52,42
-88,176,264,-44,-176,220,117,353,194,59,59,49
-92,189,281,-48,-186,235,135,381,213,80,76,66
-77,210,287,-66,-182,248,128,260,212,119,116,105
-49,237,286,-94,-167,261,98,21,191,172,172,158
-12,268,280,-128,-146,274,55,-268,156,231,233,213
40,305,265,-172,-112,285,2,-554,123,298,303,274
115,351,236,-233,-60,293,-59,-795,108,377,387,350
213,406,193,-309,10,299,-159,-1018,120,473,487,443
334,466,132,-400,101,299,-318,-1257,163,589,603,553
471,532,61,-501,205,296,-517,-1492,221,725,739,681
619,603,-16,-611,317,293,-727,-1706,277,874,895,824
772,670,-102,-721,437,284,-954,-1939,320,1027,1060,973
929,717,-212,-823,570,252,-1201,-2224,346,1168,1215,1110
1093,695,-398,-894,745,148,-1415,-2452,387,1269,1323,1202
1262,572,-690,-917,976,-59,-1544,-2515,466,1306,1356,1225
1378,433,-945,-905,1161,-256,-1617,-2484,543,1294,1343,1210
1381,369,-1012,-875,1196,-321,-1667,-2453,569,1252,1317,1195
1267,337,-930,-802,1098,-296,-1657,-2377,556,1171,1258,1154
1054,278,-776,-666,915,-249,-1538,-2191,529,1039,1136,1053
801,198,-603,-499,702,-202,-1337,-1908,467,867,960,896
572,124,-448,-348,510,-162,-1099,-1568,352,670,751,701
387,65,-322,-226,354,-128,-872,-1230,215,472,540,501
250,24,-226,-137,238,-101,-693,-944,96,293,356,329
145,0,-145,-72,145,-72,-543,-703,16,151,210,195
56,-8,-64,-24,60,-36,-396,-486,-12,59,106,98
-6,-9,-3,7,-1,-6,-268,-300,-1,10,41,36
-32,-4,28,18,-30,12,-180,-154,34,-9,6,4
-34,0,34,17,-34,17,-124,-47,76,-13,-8,-8
-32,1,33,15,-32,17,-85,27,105,-16,-12,-14
-33,0,33,16,-33,16,-54,79,121,-18,-13,-18
-40,0,40,20,-40,20,-23,120,129,-21,-17,-26
-47,0,47,23,-47,23,2,145,131,-23,-23,-33
-53,3,56,25,-54,29,21,152,128,-25,-28,-37
-57,4,61,26,-59,32,33,155,122,-28,-33,-38
-63,-1,62,32,-62,30,42,169,115,-37,-38,-39
-67,-8,59,37,-63,25,47,189,112,-47,-42,-42
-67,-10,57,38,-62,23,49,205,113,-52,-45,-49
-63,-9,54,36,-58,22,52,218,116,-53,-47,-57
-59,-8,51,33,-55,21,59,228,117,-52,-49,-63
-58,-8,50,33,-54,21,67,233,117,-52,-52,-67
-57,-9,48,33,-52,19,71,231,116,-54,-58,-70
-58,-9,49,33,-53,20,72,224,116,-57,-62,-72
-57,-7,50,32,-53,21,73,218,117,-60,-63,-73
-57,-8,49,32,-53,20,73,218,117,-62,-63,-73
-60,-17,43,38,-51,13,72,228,116,-65,-62,-72
-62,-23,39,42,-50,8,72,238,116,-67,-62,-72
-64,-20,44,42,-54,12,75,241,117,-70,-63,-73
-63,-14,49,38,-56,17,77,239,117,-72,-63,-72
-60,-12,48,36,-54,18,78,235,117,-73,-62,-73
-58,-13,45,35,-51,16,78,234,117,-73,-62,-73
-57,-14,43,35,-50,14,78,234,116,-70,-63,-72
-58,-14,44,36,-51,15,78,234,116,-68,-62,-72
-55,-12,43,33,-49,15,76,229,117,-67,-63,-73
-53,-9,44,31,-48,17,73,224,117,-67,-63,-73
-51,-6,45,28,-48,19,70,220,116,-68,-62,-70
-52,-4,48,28,-50,22,68,218,116,-68,-62,-68
-55,-3,52,29,-53,24,67,219,117,-68,-63,-67
-57,-3,54,30,-55,25,67,219,117,-68,-63,-68
-58,-3,55,30,-56,26,68,213,115,-67,-62,-67
-58,-3,55,30,-56,26,68,209,112,-67,-62,-67
-55,-4,51,29,-53,23,67,210,107,-69,-64,-71
-53,-4,49,28,-51,22,67,213,102,-72,-67,-77
-52,-2,50,27,-51,24,68,214,96,-75,-70,-83
-52,0,52,26,-52,26,68,214,92,-77,-72,-86
-53,0,53,26,-53,26,68,214,91,-78,-75,-87
-53,-3,50,28,-51,23,68,214,91,-78,-77,-87
-52,-9,43,30,-47,17,67,211,92,-75,-80,-86
-52,-13,39,32,-45,13,67,209,92,-73,-82,-86
-53,-14,39,33,-46,12,68,208,91,-74,-80,-87
-53,-14,39,33,-46,12,68,208,91,-77,-78,-87
-52,-14,38,33,-45,12,67,208,92,-79,-77,-84
-52,-14,38,33,-45,12,67,208,92,-81,-77,-82
-53,-10,43,31,-48,16,68,209,90,-85,-79,-83
-53,-4,49,28,-51,22,68,209,87,-87,-81,-86
-50,3,53,23,-51,28,65,205,82,-85,-82,-90
-48,8,56,20,-52,32,63,200,78,-82,-82,-91
-49,10,59,19,-54,34,62,197,76,-81,-80,-92
-52,9,61,21,-56,35,62,195,73,-81,-78,-92
-55,8,63,23,-59,35,63,191,67,-81,-77,-92
-57,8,65,24,-61,36,63,190,63,-81,-77,-92
-58,9,67,24,-62,38,62,191,66,-84,-78,-90
-58,9,67,24,-62,38,62,194,72,-86,-78,-87
-57,8,65,24,-61,36,63,195,76,-87,-75,-83
-57,8,65,24,-61,36,63,195,77,-87,-73,-81
-57,10,67,23,-62,38,59,192,78,-86,-72,-84
-57,13,70,22,-63,41,53,190,77,-86,-72,-86
-58,17,75,20,-66,46,47,187,78,-87,-72,-87
-58,19,77,19,-67,48,43,185,78,-87,-72,-86
-57,17,74,20,-65,45,42,184,76,-86,-74,-88
-57,14,71,21,-64,42,42,184,73,-86,-77,-91
-60,13,73,23,-66,43,43,185,70,-89,-82,-97
-62,13,75,24,-68,44,43,184,68,-91,-86,-101
-61,15,76,23,-68,45,43,185,67,-92,-90,-102
-58,18,76,20,-67,47,43,185,67,-92,-91,-102
-55,21,76,17,-65,48,42,184,68,-91,-92,-101
-53,23,76,15,-64,49,42,184,68,-91,-92,-101
-52,24,76,14,-64,50,44,187,66,-92,-91,-102
-52,24,76,14,-64,50,47,189,63,-92,-91,-102
-55,24,79,15,-67,51,50,190,57,-92,-92,-99
-57,24,81,16,-69,52,52,190,53,-92,-92,-97
-58,22,80,18,-69,51,53,188,51,-91,-91,-96
-58,19,77,19,-67,48,53,185,52,-91,-91,-96
-57,15,72,21,-64,43,50,182,55,-92,-92,-97
-57,13,70,22,-63,41,48,180,57,-92,-92,-97
-58,16,74,21,-66,45,45,179,58,-89,-91,-96
-58,23,81,17,-69,52,43,179,58,-87,-91,-96
-55,31,86,12,-70,58,40,180,57,-86,-92,-97
-53,38,91,7,-72,64,39,180,57,-86,-92,-97
-52,41,93,5,-72,67,38,179,62,-87,-91,-97
-52,42,94,5,-73,68,38,179,67,-87,-91,-97
-53,45,98,4,-75,71,39,182,71,-86,-92,-96
-53,47,100,3,-76,73,39,184,73,-86,-92,-96
-52,48,100,2,-76,74,38,184,71,-87,-91,-97
-52,48,100,2,-76,74,38,184,68,-86,-91,-97
-55,47,102,4,-78,74,40,188,66,-87,-94,-96
-57,47,104,5,-80,75,42,194,63,-87,-96,-96
-58,48,106,5,-82,77,44,199,58,-86,-97,-99
-58,48,106,5,-82,77,43,203,53,-86,-97,-101
-58,46,104,6,-81,75,38,206,52,-87,-95,-103
-58,47,105,5,-81,76,34,208,52,-87,-92,-102
-55,54,109,0,-82,81,33,209,53,-85,-86,-97
-53,62,115,-4,-84,88,33,209,53,-82,-82,-92
-52,65,117,-6,-84,91,34,206,52,-79,-81,-91
-52,67,119,-7,-85,93,34,204,52,-78,-81,-92
-53,74,127,-10,-90,100,33,204,54,-77,-81,-90
-53,81,134,-14,-93,107,33,204,57,-77,-81,-87
-52,85,137,-16,-94,111,34,201,63,-78,-83,-84
-52,86,138,-17,-95,112,34,199,67,-78,-82,-82
-54,86,140,-16,-97,113,32,202,64,-76,-75,-79
-57,86,143,-14,-100,114,29,204,58,-73,-68,-78
-62,88,150,-13,-106,119,24,199,54,-70,-66,-78
-67,91,158,-12,-112,124,19,190,48,-68,-67,-78
-69,96,165,-13,-117,130,14,182,37,-67,-68,-73
-68,101,169,-16,-118,135,13,175,24,-67,-67,-68
-65,104,169,-19,-117,136,17,170,17,-68,-68,-65
-63,106,169,-21,-116,137,19,165,14,-67,-68,-63
-60,109,169,-24,-114,139,13,159,11,-68,-65,-60
-58,111,169,-26,-113,140,4,151,9,-68,-63,-58
-55,114,169,-29,-112,141,-1,143,6,-66,-63,-57
-53,116,169,-31,-111,142,-3,136,4,-63,-63,-58
-53,117,170,-32,-111,143,-4,131,3,-56,-59,-56
-53,117,170,-32,-111,143,-4,126,4,-48,-53,-53
-50,116,166,-33,-108,141,-3,118,3,-40,-45,-50
-48,116,164,-34,-106,140,-3,107,0,-34,-39,-48
-47,120,167,-36,-107,143,-7,97,-4,-33,-37,-47
-47,125,172,-39,-109,148,-13,87,-8,-33,-38,-47
-48,129,177,-40,-112,153,-20,80,-9,-33,-38,-48
-47,130,177,-41,-112,153,-24,73,-9,-33,-38,-48
-48,131,179,-41,-113,155,-20,65,-8,-35,-40,-45
-48,131,179,-41,-113,155,-14,58,-8,-38,-42,-43
-45,130,175,-42,-110,152,-12,56,-10,-41,-43,-42
-43,130,173,-43,-108,151,-13,57,-13,-42,-43,-42
-42,131,173,-44,-107,152,-13,58,-18,-43,-42,-44
-42,131,173,-44,-107,152,-13,57,-23,-43,-42,-47
-43,129,172,-43,-107,150,-15,58,-25,-42,-43,-53
-43,126,169,-41,-106,147,-18,58,-24,-42,-43,-57
-42,120,162,-39,-102,141,-20,55,-22,-44,-41,-56
-42,112,154,-35,-98,133,-19,53,-19,-47,-39,-53
-43,104,147,-30,-95,125,-15,51,-15,-52,-39,-51
-43,97,140,-27,-91,118,-9,52,-14,-57,-42,-52
-41,92,133,-25,-87,112,-3,56,-15,-60,-49,-57
-39,87,126,-24,-82,106,0,62,-18,-62,-57,-62
-35,80,115,-22,-75,97,0,68,-21,-67,-63,-66
-33,73,106,-20,-69,89,0,72,-23,-72,-67,-67
-37,69,106,-16,-71,87,0,73,-27,-77,-68,-67
-42,68,110,-13,-76,89,3,73,-28,-81,-68,-67
-46,68,114,-11,-80,91,7,73,-27,-85,-68,-70
-48,68,116,-10,-82,92,13,73,-24,-86,-68,-72
-46,64,110,-9,-78,87,19,71,-22,-86,-67,-72
-43,58,101,-7,-72,79,23,68,-23,-86,-67,-72
-40,51,91,-5,-65,71,23,64,-26,-89,-72,-76
-39,43,82,-2,-60,62,23,62,-28,-91,-77,-81
-38,36,74,1,-56,55,28,68,-27,-92,-80,-84
-38,29,67,4,-52,48,33,77,-24,-91,-81,-86
-39,21,60,9,-49,40,36,84,-21,-93,-81,-89
-39,14,53,12,-46,33,38,86,-19,-96,-81,-91
-38,11,49,13,-43,30,43,85,-18,-102,-83,-91
-38,9,47,14,-42,28,47,82,-18,-106,-86,-91
-39,3,42,18,-40,22,49,81,-18,-107,-90,-96
-39,-3,36,21,-37,16,48,82,-18,-106,-91,-101
-38,-7,31,22,-34,12,44,80,-20,-108,-91,-103
-38,-8,30,23,-34,11,39,78,-19,-111,-91,-102
-39,-8,31,23,-35,11,33,77,-13,-114,-96,-101
-39,-8,31,23,-35,11,29,77,-9,-116,-101,-102
-38,-10,28,24,-33,9,27,78,-11,-116,-104,-101
-38,-13,25,25,-31,6,28,78,-18,-116,-106,-101
-39,-16,23,27,-31,3,31,77,-24,-119,-111,-106
-42,-18,24,30,-33,3,33,77,-28,-121,-116,-111
-47,-19,28,33,-37,4,34,77,-29,-122,-117,-115
-52,-18,34,35,-43,8,34,77,-28,-121,-117,-116
-56,-20,36,38,-46,8,33,78,-30,-123,-116,-117
-57,-23,34,40,-45,5,33,78,-33,-125,-116,-116
-58,-27,31,42,-44,2,36,77,-38,-126,-117,-117
-58,-28,30,43,-44,1,38,77,-42,-126,-117,-117
-55,-28,27,41,-41,0,39,79,-44,-125,-116,-114
-53,-28,25,40,-39,-1,38,81,-43,-125,-116,-112
-52,-33,19,42,-35,-7,40,82,-40,-126,-117,-112
-52,-38,14,45,-33,-12,42,82,-39,-125,-117,-116
-53,-40,13,46,-33,-13,43,81,-38,-126,-116,-121
-53,-39,14,46,-33,-12,43,81,-38,-126,-116,-125
-51,-36,15,43,-33,-10,41,81,-38,-125,-118,-126
-48,-34,14,41,-31,-10,39,81,-38,-125,-121,-126
-45,-33,12,39,-28,-10,36,82,-40,-127,-124,-126
-43,-33,10,38,-26,-11,34,82,-42,-130,-125,-126
-42,-35,7,38,-24,-14,32,80,-45,-134,-124,-124
-42,-38,4,40,-23,-17,33,78,-47,-135,-122,-122
-43,-41,2,42,-22,-19,37,78,-51,-134,-119,-121
-43,-43,0,43,-21,-21,39,78,-53,-131,-117,-121
-42,-41,1,41,-21,-20,35,74,-51,-126,-116,-122
-42,-39,3,40,-22,-18,29,68,-48,-122,-116,-125
-45,-38,7,41,-26,-15,23,62,-47,-118,-117,-131
-47,-38,9,42,-28,-14,19,58,-47,-117,-117,-135
-48,-39,9,43,-28,-15,18,57,-49,-116,-117,-133
-48,-39,9,43,-28,-15,18,57,-52,-116,-117,-126
-47,-38,9,42,-28,-14,19,58,-55,-116,-116,-120
-47,-38,9,42,-28,-14,19,57,-57,-116,-116,-117
-48,-41,7,44,-27,-17,18,58,-58,-117,-117,-116
-48,-43,5,45,-26,-19,18,58,-58,-117,-117,-117
-47,-40,7,43,-27,-16,20,56,-55,-114,-114,-115
-47,-34,13,40,-30,-10,23,53,-53,-112,-112,-112
-47,-28,19,37,-33,-4,26,49,-51,-112,-110,-110
-47,-24,23,35,-35,0,28,47,-48,-112,-107,-107
-48,-21,27,34,-37,3,31,50,-42,-105,-99,-99
-48,-19,29,33,-38,5,38,57,-34,-97,-92,-92
-47,-17,30,32,-38,6,49,65,-28,-93,-90,-91
-47,-14,33,30,-40,9,61,72,-24,-92,-91,-92
-48,-9,39,28,-43,15,72,78,-23,-90,-93,-90
-48,-4,44,26,-46,20,81,81,-23,-87,-92,-87
-45,0,45,22,-45,22,91,82,-23,-84,-87,-86
-43,3,46,20,-44,24,101,82,-23,-82,-82,-86
-42,7,49,17,-45,28,109,80,-25,-81,-80,-87
-42,8,50,17,-46,29,116,81,-28,-81,-81,-86
-43,8,51,17,-47,29,122,86,-30,-81,-83,-87
-43,8,51,17,-47,29,125,91,-29,-81,-82,-87
-39,13,52,13,-45,32,123,92,-24,-82,-78,-85
-34,18,52,8,-43,35,113,87,-19,-82,-73,-82
-29,19,48,5,-38,33,97,77,-18,-78,-70,-78
-24,18,42,3,-33,30,82,68,-18,-73,-68,-73
-20,22,42,-1,-31,32,75,64,-19,-70,-65,-67
-18,28,46,-5,-32,37,64,59,-18,-68,-63,-63
-20,31,51,-5,-35,41,38,42,-19,-65,-60,-62
-23,29,52,-3,-37,40,3,20,-23,-63,-58,-63
-25,22,47,1,-36,34,-29,5,-30,-62,-57,-61
-24,18,42,3,-33,30,-51,-3,-38,-62,-58,-58
-18,24,42,-3,-30,33,-58,-7,-42,-64,-56,-55
-9,33,42,-12,-25,37,-58,-8,-42,-63,-53,-53
1,38,37,-19,-18,37,-59,-9,-43,-56,-48,-51
12,42,30,-27,-9,36,-62,-9,-43,-48,-43,-48
24,48,24,-36,0,36,-62,-5,-41,-44,-38,-42
33,57,24,-45,4,40,-58,2,-39,-43,-34,-34
38,65,27,-51,5,46,-50,17,-39,-41,-31,-28
42,68,26,-55,8,47,-43,28,-39,-39,-29,-24
46,61,15,-53,15,38,-39,25,-35,-38,-28,-23
44,49,5,-46,19,27,-34,14,-29,-42,-28,-28
26,34,8,-30,9,21,-23,9,-24,-51,-32,-39
5,20,15,-12,-5,17,-10,9,-23,-62,-38,-52
-6,6,12,0,-9,9,-1,8,-27,-69,-45,-59
-13,-3,10,8,-11,3,3,8,-33,-72,-52,-62
-20,-9,11,14,-15,1,8,13,-37,-73,-57,-64
-28,-13,15,20,-21,1,13,18,-42,-77,-62,-67
-32,-20,12,26,-22,-4,18,21,-50,-88,-69,-74
-33,-28,5,30,-19,-11,23,23,-61,-100,-77,-81
-34,-35,-1,34,-16,-18,28,26,-76,-108,-83,-85
-34,-42,-8,38,-13,-25,33,28,-86,-111,-86,-86
-33,-48,-15,40,-9,-31,36,29,-85,-114,-87,-89
-33,-52,-19,42,-7,-35,38,29,-78,-116,-87,-91
-35,-53,-18,44,-8,-35,40,28,-72,-117,-86,-92
-38,-53,-15,45,-11,-34,42,28,-68,-117,-86,-92
-41,-52,-11,46,-15,-31,43,31,-65,-115,-87,-91
-42,-53,-11,47,-15,-32,43,33,-63,-112,-87,-91
-42,-52,-10,47,-16,-31,41,34,-62,-107,-86,-92
-42,-52,-10,47,-16,-31,39,34,-62,-102,-86,-92
-46,-56,-10,51,-18,-33,38,33,-63,-101,-87,-91
-52,-62,-10,57,-21,-36,38,33,-63,-101,-87,-91
-58,-68,-10,63,-24,-39,39,33,-62,-102,-87,-92
-62,-72,-10,67,-26,-41,39,33,-62,-102,-87,-92
-63,-71,-8,67,-27,-39,36,34,-63,-101,-86,-92
-63,-68,-5,65,-29,-36,34,34,-63,-101,-86,-92
-63,-67,-4,65,-29,-35,33,31,-62,-102,-87,-91
-63,-68,-5,65,-29,-36,33,29,-62,-102,-87,-91
-59,-66,-7,62,-26,-36,34,28,-63,-101,-86,-92
-53,-63,-10,58,-21,-36,34,28,-63,-101,-86,-92
-47,-57,-10,52,-18,-33,33,29,-60,-102,-87,-91
-43,-53,-10,48,-16,-31,33,29,-58,-102,-87,-91
-42,-52,-10,47,-16,-31,34,28,-57,-99,-84,-92
-42,-53,-11,47,-15,-32,34,28,-57,-97,-82,-92
-42,-51,-9,46,-16,-30,33,31,-60,-96,-81,-90
-42,-48,-6,45,-18,-27,33,33,-62,-96,-81,-87
-44,-46,-2,45,-21,-24,33,34,-63,-97,-82,-84
-47,-47,0,47,-23,-23,33,34,-63,-97,-82,-82
-50,-50,0,50,-25,-25,34,33,-62,-96,-81,-79
-52,-52,0,52,-26,-26,34,33,-62,-96,-81,-78
-53,-53,0,53,-26,-26,33,33,-65,-97,-82,-77
-52,-53,-1,52,-25,-27,33,33,-67,-97,-82,-77
-53,-52,1,52,-27,-25,34,34,-68,-96,-80,-78
-53,-53,0,53,-26,-26,34,34,-68,-96,-78,-77
-49,-52,-3,50,-23,-27,33,32,-67,-97,-77,-78
-43,-52,-9,47,-17,-30,33,29,-67,-97,-77,-78
-39,-53,-14,46,-12,-33,35,26,-70,-95,-78,-76
-38,-53,-15,45,-11,-34,38,24,-72,-96,-81,-77
-44,-49,-5,46,-19,-27,40,23,-73,-101,-87,-82
-52,-40,12,46,-32,-14,39,15,-73,-106,-91,-86
-59,-24,35,41,-47,5,36,-2,-70,-106,-90,-84
-67,-2,65,34,-66,31,41,8,-63,-102,-87,-81
-76,21,97,27,-86,59,65,92,-52,-97,-86,-85
-86,45,131,20,-108,88,98,228,-36,-92,-87,-91
-92,65,157,13,-124,111,126,366,-16,-87,-84,-92
-96,84,180,6,-138,132,144,422,-4,-75,-70,-80
-100,106,206,-3,-153,156,153,318,-10,-45,-38,-48
-97,128,225,-15,-161,176,147,103,-31,-4,4,-4
-81,151,232,-35,-156,191,122,-143,-59,40,48,41
-44,181,225,-68,-134,203,85,-396,-88,91,100,95
15,224,209,-119,-97,216,48,-650,-114,150,167,163
93,273,180,-183,-43,226,-6,-900,-125,216,244,239
182,317,135,-249,23,226,-102,-1148,-114,291,327,318
301,380,79,-340,111,229,-261,-1405,-78,403,446,428
466,489,23,-477,221,256,-493,-1684,-20,578,630,600
641,624,-17,-632,329,303,-761,-1986,30,779,841,798
784,743,-41,-763,412,351,-1016,-2298,51,951,1021,966
948,771,-177,-859,562,297,-1241,-2551,80,1073,1146,1079
1194,654,-540,-924,867,57,-1428,-2674,165,1139,1211,1128
1449,491,-958,-970,1203,-233,-1592,-2726,272,1172,1249,1148
1602,409,-1193,-1005,1397,-392,-1740,-2780,348,1196,1290,1175
1581,371,-1210,-976,1395,-419,-1798,-2763,383,1173,1288,1170
1357,302,-1055,-829,1206,-376,-1689,-2578,381,1062,1189,1087
1046,209,-837,-627,941,-314,-1482,-2283,346,896,1024,948
793,125,-668,-459,730,-271,-1280,-1974,281,729,847,797
603,59,-544,-331,573,-242,-1093,-1668,183,556,660,633
441,10,-431,-225,436,-210,-903,-1354,49,362,453,447
293,-25,-318,-134,305,-171,-709,-1050,-88,174,253,262
157,-52,-209,-52,183,-130,-518,-779,-190,29,97,111
55,-67,-122,6,88,-94,-355,-553,-229,-57,-1,11
13,-68,-81,27,47,-74,-247,-374,-194,-83,-42,-31
4,-63,-67,29,35,-65,-176,-232,-128,-78,-52,-42
-6,-61,-55,33,24,-58,-117,-117,-85,-79,-61,-53
-22,-62,-40,42,9,-51,-67,-31,-64,-86,-71,-66
-34,-62,-28,48,-3,-45,-30,19,-49,-91,-78,-76
-42,-58,-16,50,-13,-37,-2,45,-35,-92,-81,-81
-46,-52,-6,49,-20,-29,20,61,-22,-90,-83,-84
-47,-47,0,47,-23,-23,37,76,-14,-91,-86,-86
-47,-51,-4,49,-21,-27,45,93,-16,-99,-90,-90
-47,-57,-10,52,-18,-33,47,110,-23,-110,-96,-96
-49,-58,-9,53,-20,-33,48,122,-27,-118,-101,-102
-52,-58,-6,55,-23,-32,52,130,-28,-121,-106,-106
-55,-59,-4,57,-25,-31,61,137,-29,-122,-109,-109
-57,-62,-5,59,-26,-33,71,145,-29,-122,-111,-111
-58,-66,-8,62,-25,-37,78,151,-28,-120,-112,-114
-58,-67,-9,62,-24,-38,81,155,-28,-117,-112,-116
-57,-67,-10,62,-23,-38,82,157,-29,-114,-109,-115
-57,-67,-10,62,-23,-38,82,160,-29,-112,-107,-112
-59,-73,-14,66,-22,-43,81,169,-27,-111,-108,-111
-62,-78,-16,70,-23,-47,81,179,-24,-111,-111,-111
-65,-72,-7,68,-29,-39,84,182,-21,-113,-112,-112
-67,-63,4,65,-35,-29,86,180,-19,-116,-112,-112
-68,-60,8,64,-38,-26,87,177,-16,-120,-111,-111
-67,-62,5,64,-36,-28,87,175,-14,-122,-111,-112
-68,-65,3,66,-35,-31,87,175,-11,-120,-111,-111
-68,-67,1,67,-34,-33,87,175,-9,-117,-111,-111
-65,-68,-3,66,-31,-35,85,173,-8,-116,-112,-112
-63,-68,-5,65,-29,-36,82,170,-8,-117,-112,-112
-62,-65,-3,63,-29,-34,79,168,-9,-115,-110,-109
-62,-63,-1,62,-30,-32,78,169,-9,-112,-107,-107
-65,-62,3,63,-34,-29,77,174,-8,-109,-104,-106
-67,-62,5,64,-36,-28,77,179,-8,-107,-102,-106
-68,-63,5,65,-36,-29,78,180,-11,-106,-101,-107
-68,-62,6,65,-37,-28,78,179,-13,-106,-101,-107
-65,-63,2,64,-33,-30,77,182,-14,-107,-102,-106
-63,-63,0,63,-31,-31,77,184,-14,-107,-102,-106
-62,-61,1,61,-31,-30,78,183,-12,-106,-102,-107
-62,-58,4,60,-33,-27,78,180,-9,-106,-102,-106
-63,-55,8,59,-35,-23,78,177,-4,-107,-101,-107
-63,-53,10,58,-36,-21,78,175,0,-107,-101,-107
-61,-50,11,55,-36,-19,77,172,2,-104,-102,-106
-58,-48,10,53,-34,-19,77,170,3,-102,-102,-106
-55,-45,10,50,-32,-17,78,169,4,-101,-99,-107
-53,-43,10,48,-31,-16,78,169,4,-101,-97,-107
-52,-42,10,47,-31,-16,77,171,3,-101,-98,-104
-52,-42,10,47,-31,-16,77,174,3,-101,-101,-102
-53,-43,10,48,-31,-16,78,178,6,-102,-105,-101
-53,-43,10,48,-31,-16,78,180,8,-102,-106,-101
-52,-39,13,45,-32,-13,75,175,8,-97,-105,-103
-52,-34,18,43,-35,-8,73,170,8,-92,-102,-106
-55,-30,25,42,-40,-2,72,169,13,-90,-99,-109
-57,-29,28,43,-42,0,72,170,18,-91,-97,-111
-58,-28,30,43,-44,1,73,168,20,-93,-96,-112
-58,-28,30,43,-44,1,73,165,19,-96,-96,-112
-57,-29,28,43,-42,0,72,164,17,-101,-99,-112
-57,-29,28,43,-42,0,72,164,14,-106,-101,-112
-59,-28,31,43,-45,1,73,165,11,-107,-102,-111
-62,-28,34,45,-48,3,73,165,9,-107,-102,-111
-65,-30,35,47,-50,2,72,164,8,-106,-101,-114
-67,-33,34,50,-50,0,72,164,8,-106,-101,-116
-68,-36,32,52,-50,-2,73,168,9,-107,-102,-117
-68,-38,30,53,-49,-4,73,174,9,-107,-102,-117
-67,-41,26,54,-46,-7,72,180,9,-104,-101,-114
-67,-42,25,54,-46,-8,72,184,9,-102,-101,-112
-70,-43,27,56,-48,-8,73,185,8,-101,-104,-111
-72,-43,29,57,-50,-7,73,185,8,-101,-106,-111
-73,-43,30,58,-51,-6,70,185,9,-102,-107,-112
-73,-43,30,58,-51,-6,68,185,9,-102,-107,-112
-71,-41,30,56,-50,-5,66,182,6,-101,-104,-111
-68,-39,29,53,-48,-5,67,180,4,-101,-102,-111
-64,-36,28,50,-46,-4,70,179,3,-102,-101,-114
-62,-34,28,48,-45,-3,72,179,3,-101,-101,-116
-64,-33,31,48,-47,-1,73,180,4,-102,-102,-117
-67,-34,33,50,-50,0,72,180,4,-102,-102,-117
-68,-32,36,50,-52,2,73,180,3,-101,-101,-116
-68,-29,39,48,-53,5,73,180,3,-101,-101,-116
-67,-24,43,45,-55,9,69,179,7,-102,-102,-117
-67,-19,48,43,-57,14,63,179,13,-102,-102,-117
-68,-16,52,42,-60,18,59,181,17,-99,-101,-116
-68,-14,54,41,-61,20,58,184,18,-97,-101,-116
-67,-11,56,39,-61,22,57,186,18,-96,-102,-116
-67,-9,58,38,-62,24,57,185,18,-96,-102,-116
-70,-8,62,39,-66,27,58,182,21,-97,-101,-117
-72,-8,64,40,-68,28,57,180,23,-97,-101,-117
-73,-9,64,41,-68,27,58,181,23,-96,-102,-116
-73,-9,64,41,-68,27,58,184,19,-96,-102,-116
-72,-8,64,40,-68,28,57,184,14,-97,-101,-117
-72,-8,64,40,-68,28,57,184,9,-96,-101,-117
-75,-9,66,42,-70,28,59,188,6,-97,-103,-114
-77,-9,68,43,-72,29,62,194,4,-97,-106,-112
-78,-8,70,43,-74,31,64,198,2,-96,-109,-111
-78,-8,70,43,-74,31,63,199,3,-96,-111,-111
-76,-12,64,44,-70,26,58,200,8,-97,-113,-113
-73,-14,59,43,-66,22,53,199,13,-97,-112,-112
-68,-10,58,39,-63,24,51,200,14,-95,-107,-107
-63,-4,59,33,-61,27,52,200,14,-92,-102,-102
-62,-2,60,32,-61,29,53,197,14,-89,-101,-101
-62,0,62,31,-62,31,53,195,14,-87,-101,-101
-63,5,68,29,-65,36,53,195,11,-86,-101,-101
-63,13,76,25,-69,44,53,195,9,-86,-101,-101
-63,17,80,23,-71,48,51,192,10,-87,-103,-104
-63,18,81,22,-72,49,48,190,13,-87,-102,-106
-62,18,80,22,-71,49,44,190,12,-85,-95,-107
-62,18,80,22,-71,49,39,190,9,-82,-87,-106
-65,19,84,23,-74,51,35,182,6,-79,-85,-107
-67,23,90,22,-78,56,29,171,0,-78,-86,-107
-68,30,98,19,-83,64,23,162,-8,-77,-87,-103
-68,38,106,15,-87,72,18,156,-18,-77,-87,-97
-66,43,109,11,-87,76,22,149,-22,-77,-87,-94
-63,47,110,8,-86,78,28,142,-23,-77,-87,-92
-60,49,109,5,-84,79,29,133,-25,-78,-84,-89
-58,52,110,3,-84,81,25,126,-28,-78,-82,-87
-55,57,112,-1,-83,84,15,121,-31,-75,-81,-86
-53,62,115,-4,-84,88,5,117,-33,-73,-81,-86
-53,66,119,-6,-86,92,-1,113,-37,-72,-82,-87
-53,67,120,-7,-86,93,-3,107,-42,-72,-82,-87
-50,67,117,-8,-83,92,-4,100,-49,-73,-80,-87
-48,67,115,-9,-81,91,-4,92,-57,-73,-78,-87
-47,70,117,-11,-82,93,-3,86,-63,-72,-77,-86
-47,72,119,-12,-83,95,-4,82,-67,-72,-77,-86
-47,71,118,-12,-82,94,-3,78,-70,-73,-77,-87
-47,68,115,-10,-81,91,0,73,-72,-73,-77,-87
-48,65,113,-8,-80,89,5,65,-73,-73,-78,-84
-48,63,111,-7,-79,87,13,58,-73,-73,-78,-82
-44,62,106,-9,-75,84,17,56,-72,-72,-75,-81
-39,63,102,-12,-70,82,18,57,-72,-72,-73,-82
-35,61,96,-13,-65,78,21,58,-76,-73,-72,-80
-34,58,92,-12,-63,75,23,57,-81,-73,-72,-78
-33,54,87,-10,-60,70,25,58,-84,-72,-73,-77
-33,48,81,-7,-57,64,28,58,-86,-72,-72,-77
-34,42,76,-4,-55,59,33,55,-87,-75,-73,-79
-34,35,69,0,-51,52,38,53,-87,-81,-77,-81
-33,24,57,4,-45,40,39,53,-84,-89,-84,-85
-33,14,47,9,-40,30,39,57,-82,-96,-91,-91
-34,10,44,12,-39,27,38,62,-81,-99,-94,-96
-34,9,43,12,-38,26,39,67,-81,-101,-96,-101
-33,7,40,13,-36,23,38,70,-81,-107,-100,-105
-33,4,37,14,-35,20,38,72,-81,-116,-106,-106
-37,1,38,18,-37,19,40,73,-82,-121,-112,-106
-42,0,42,21,-42,21,42,73,-82,-122,-116,-106
-46,0,46,23,-46,23,45,72,-78,-120,-117,-109
-47,-3,44,25,-45,20,47,72,-73,-117,-117,-111
-47,-9,38,28,-42,14,50,74,-71,-115,-116,-111
-47,-17,30,32,-38,6,52,77,-72,-116,-116,-111
-49,-26,23,37,-36,-1,52,79,-76,-119,-120,-115
-52,-33,19,42,-35,-7,52,81,-81,-121,-125,-121
-55,-35,20,45,-37,-7,55,84,-84,-122,-129,-124
-57,-34,23,45,-40,-5,57,86,-86,-122,-131,-125
-58,-33,25,45,-41,-4,56,86,-87,-122,-129,-126
-57,-33,24,45,-40,-4,53,82,-87,-125,-126,-126
-58,-35,23,46,-40,-6,51,78,-87,-130,-124,-123
-58,-38,20,48,-39,-9,48,73,-87,-135,-125,-121
-56,-44,12,50,-34,-16,43,69,-86,-136,-128,-125
-53,-52,1,52,-27,-25,39,63,-86,-135,-130,-130
-51,-56,-5,53,-23,-30,38,57,-91,-137,-130,-131
-52,-57,-5,54,-23,-31,38,53,-96,-140,-130,-131
-55,-57,-2,56,-26,-29,39,54,-98,-143,-135,-131
-57,-57,0,57,-28,-28,39,57,-97,-145,-140,-131
-58,-59,-1,58,-28,-30,38,58,-96,-145,-141,-129
-57,-62,-5,59,-26,-33,38,58,-96,-145,-140,-130
-59,-65,-6,62,-26,-35,40,57,-97,-148,-144,-136
-62,-67,-5,64,-28,-36,42,57,-97,-150,-150,-144
-65,-68,-3,66,-31,-35,43,58,-95,-151,-153,-151
-67,-68,-1,67,-33,-34,43,57,-92,-150,-155,-155
-68,-66,2,67,-35,-32,42,58,-90,-153,-157,-156
-67,-63,4,65,-35,-29,42,58,-91,-155,-160,-156
-68,-60,8,64,-38,-26,45,57,-96,-156,-163,-156
-68,-58,10,63,-39,-24,47,57,-101,-155,-164,-156
-65,-56,9,60,-37,-23,48,60,-103,-157,-165,-154
-63,-57,6,60,-34,-25,47,62,-102,-160,-164,-151
-62,-62,0,62,-31,-31,49,63,-99,-163,-165,-150
-62,-67,-5,64,-28,-36,52,63,-97,-164,-165,-150
-62,-69,-7,65,-27,-38,53,62,-95,-164,-163,-152
-62,-68,-6,65,-28,-37,53,62,-92,-161,-161,-155
-64,-67,-3,65,-30,-35,53,63,-88,-158,-160,-159
-67,-67,0,67,-33,-33,53,63,-86,-156,-160,-161
-70,-67,3,68,-36,-32,51,60,-89,-157,-160,-159
-72,-67,5,69,-38,-31,48,58,-96,-160,-160,-156
-75,-68,7,71,-41,-30,46,57,-101,-163,-162,-155
-77,-68,9,72,-43,-29,47,57,-106,-164,-164,-155
-78,-66,12,72,-45,-27,51,58,-109,-165,-165,-156
-78,-63,15,70,-46,-24,56,57,-111,-165,-165,-156
-78,-61,17,69,-47,-22,64,58,-114,-164,-164,-155
-78,-58,20,68,-49,-19,68,58,-116,-164,-164,-155
-76,-54,22,65,-49,-16,64,56,-118,-165,-165,-156
-73,-48,25,60,-49,-11,58,53,-117,-165,-165,-156
-70,-44,26,57,-48,-9,57,50,-111,-160,-162,-152
-68,-39,29,53,-48,-5,58,48,-102,-152,-156,-146
-67,-34,33,50,-50,0,56,47,-97,-144,-151,-141
-68,-29,39,48,-53,5,57,48,-93,-137,-146,-136
-67,-28,39,47,-53,5,65,47,-83,-130,-142,-133
-67,-29,38,48,-52,4,79,47,-74,-126,-141,-131
-70,-27,43,48,-56,8,93,50,-69,-125,-141,-128
-72,-24,48,48,-60,12,105,52,-68,-126,-141,-126
-73,-21,52,47,-62,15,114,52,-65,-124,-137,-125
-73,-19,54,46,-63,17,121,52,-63,-122,-131,-125
-72,-16,56,44,-64,20,124,56,-64,-123,-129,-126
-72,-14,58,43,-65,22,125,61,-67,-125,-130,-125
-74,-12,62,43,-68,25,127,68,-68,-126,-132,-126
-73,-9,64,41,-68,27,126,72,-68,-126,-131,-126
-68,-4,64,36,-66,30,118,72,-66,-124,-127,-125
-59,0,59,29,-59,29,104,68,-67,-122,-122,-122
-50,0,50,25,-50,25,85,64,-72,-117,-119,-118
-43,0,43,21,-43,21,65,58,-77,-112,-117,-112
-40,5,45,17,-42,25,47,52,-78,-108,-115,-106
-39,16,55,11,-47,35,27,41,-78,-107,-112,-102
-39,30,69,4,-54,49,0,22,-78,-106,-109,-101
-39,38,77,0,-58,57,-29,2,-81,-106,-107,-102
-37,36,73,0,-55,54,-52,-10,-86,-107,-106,-100
-34,29,63,2,-48,46,-62,-18,-91,-107,-107,-97
-29,28,57,0,-43,42,-60,-24,-91,-106,-105,-94
-20,33,53,-6,-36,43,-53,-28,-87,-102,-102,-92
-7,38,45,-15,-26,41,-51,-29,-84,-95,-97,-90
7,42,35,-24,-14,38,-52,-29,-82,-87,-92,-87
17,45,28,-31,-5,36,-52,-28,-80,-85,-89,-84
23,47,24,-35,0,35,-48,-24,-78,-86,-87,-82
23,51,28,-37,-2,39,-43,-17,-77,-87,-86,-81
23,53,30,-38,-3,41,-39,-9,-77,-87,-86,-82
27,49,22,-38,2,35,-38,-8,-78,-86,-89,-81
25,40,15,-32,5,27,-35,-9,-81,-90,-95,-85
8,26,18,-17,-5,22,-24,-5,-88,-101,-107,-98
-15,11,26,2,-20,18,-10,0,-96,-115,-120,-114
-31,-2,29,16,-30,13,-1,0,-100,-123,-128,-123
-38,-12,26,25,-32,7,3,0,-101,-126,-130,-126
-43,-19,24,31,-33,2,8,3,-101,-125,-130,-125
-47,-23,24,35,-35,0,13,8,-101,-125,-130,-125
-50,-28,22,39,-36,-3,18,10,-103,-131,-134,-129
-52,-33,19,42,-35,-7,23,9,-106,-140,-140,-135
-53,-37,16,45,-34,-10,28,8,-111,-143,-145,-138
-53,-42,11,47,-32,-15,33,8,-116,-145,-150,-140
-52,-48,4,50,-28,-22,34,9,-117,-150,-153,-145
-52,-52,0,52,-26,-26,34,9,-117,-155,-155,-150
-54,-52,2,53,-28,-25,33,8,-117,-156,-156,-152
-57,-48,9,52,-33,-19,33,8,-117,-156,-156,-151
-59,-45,14,52,-36,-15,34,11,-114,-156,-155,-150
-58,-43,15,50,-36,-14,34,13,-112,-156,-155,-150
-54,-42,12,48,-33,-15,31,12,-113,-154,-156,-151
-48,-42,6,45,-27,-18,29,9,-116,-151,-156,-151
-44,-42,2,43,-23,-20,28,6,-119,-150,-155,-150
-43,-42,1,42,-22,-20,28,4,-121,-150,-155,-150
-42,-43,-1,42,-20,-22,29,3,-123,-152,-156,-151
-43,-43,0,43,-21,-21,29,3,-125,-155,-156,-151
-42,-41,1,41,-21,-20,28,4,-128,-158,-155,-150
-42,-39,3,40,-22,-18,28,4,-130,-160,-155,-151
-44,-39,5,41,-24,-17,29,0,-131,-161,-156,-150
-47,-42,5,44,-26,-18,29,-7,-130,-161,-156,-150
-50,-46,4,48,-27,-21,26,-15,-131,-160,-155,-151
-52,-48,4,50,-28,-22,24,-19,-131,-160,-155,-151
-53,-46,7,49,-30,-19,23,-14,-127,-161,-156,-150
-53,-43,10,48,-31,-16,23,-5,-122,-161,-156,-150
-53,-42,11,47,-32,-15,23,2,-118,-158,-153,-151
-53,-43,10,48,-31,-16,23,8,-116,-156,-151,-151
-51,-40,11,45,-31,-14,25,11,-118,-155,-150,-150
-48,-34,14,41,-31,-10,28,13,-121,-155,-150,-150
-45,-28,17,36,-31,-5,31,14,-122,-156,-150,-153
-43,-24,19,33,-31,-2,33,14,-122,-156,-150,-155
-42,-23,19,32,-30,-2,34,13,-121,-155,-152,-156
-42,-23,19,32,-30,-2,34,13,-121,-155,-155,-156
-43,-24,19,33,-31,-2,33,14,-123,-156,-158,-155
-42,-24,18,33,-30,-3,33,14,-125,-156,-160,-155
-43,-24,19,33,-31,-2,33,10,-126,-155,-159,-156
-43,-24,19,33,-31,-2,33,4,-126,-155,-156,-155
-42,-23,19,32,-30,-2,34,0,-124,-156,-154,-156
-42,-23,19,32,-30,-2,34,-3,-122,-156,-155,-156
-45,-26,19,35,-32,-3,32,-6,-121,-155,-158,-155
-51,-29,22,40,-36,-3,29,-4,-122,-155,-160,-155
-61,-25,36,43,-48,5,27,4,-120,-156,-162,-156
-71,-16,55,43,-63,19,28,16,-117,-156,-161,-156
-79,0,79,39,-79,39,35,29,-112,-154,-158,-152
-86,20,106,33,-96,63,49,48,-103,-147,-152,-147
-91,42,133,24,-112,87,72,85,-91,-134,-143,-140
-96,64,160,16,-128,112,97,140,-75,-119,-132,-132
-101,83,184,9,-142,133,119,201,-57,-105,-120,-121
-98,103,201,-2,-149,152,126,198,-47,-86,-97,-97
-79,129,208,-25,-143,168,111,50,-58,-50,-52,-54
-45,163,208,-59,-126,185,75,-213,-86,0,8,3
-1,203,204,-101,-102,203,23,-523,-122,57,72,66
56,249,193,-152,-68,221,-41,-830,-156,124,143,137
136,305,169,-220,-16,237,-117,-1098,-174,201,227,223
238,368,130,-303,54,249,-221,-1341,-165,294,327,323
362,436,74,-399,144,255,-376,-1583,-122,408,442,434
505,509,4,-507,250,256,-570,-1820,-59,541,575,561
662,587,-75,-624,368,256,-781,-2042,3,691,730,708
822,661,-161,-741,491,250,-1005,-2271,52,843,894,858
975,713,-262,-844,618,225,-1238,-2527,79,979,1047,990
1128,700,-428,-914,778,136,-1437,-2727,112,1073,1155,1075
1291,584,-707,-937,999,-61,-1555,-2771,184,1102,1187,1090
1410,438,-972,-924,1191,-267,-1612,-2710,263,1083,1170,1067
1414,360,-1054,-887,1234,-347,-1648,-2639,299,1042,1141,1046
1294,324,-970,-809,1132,-323,-1628,-2527,298,968,1083,1006
1069,262,-807,-665,938,-272,-1498,-2302,282,842,963,908
804,178,-626,-491,715,-224,-1288,-1989,232,674,789,752
570,103,-467,-336,518,-182,-1055,-1645,126,487,582,560
387,46,-341,-216,364,-147,-841,-1314,-11,298,370,362
251,7,-244,-129,247,-118,-673,-1031,-134,127,180,190
146,-16,-162,-65,154,-89,-531,-789,-219,-10,29,53
58,-29,-87,-14,72,-58,-385,-572,-253,-100,-71,-45
-6,-33,-27,19,10,-30,-248,-384,-243,-146,-129,-109
-33,-33,0,33,-16,-16,-150,-235,-206,-161,-156,-142
-34,-29,5,31,-19,-12,-89,-126,-162,-161,-164,-154
-32,-26,6,29,-19,-10,-53,-52,-132,-161,-166,-159
-33,-24,9,28,-21,-7,-28,-2,-118,-164,-169,-163
-39,-22,17,30,-28,-2,-2,33,-113,-167,-174,-171
-46,-19,27,32,-36,4,20,55,-112,-169,-179,-179
-51,-13,38,32,-44,12,35,61,-111,-169,-181,-181
-52,-9,43,30,-47,17,42,62,-111,-169,-180,-180
-54,-11,43,32,-48,16,45,72,-113,-175,-179,-179
-57,-18,39,37,-48,10,47,89,-112,-183,-179,-179
-60,-20,40,40,-50,10,49,101,-106,-188,-181,-182
-62,-19,43,40,-52,12,52,106,-98,-189,-184,-184
-65,-17,48,41,-56,15,59,107,-91,-190,-187,-185
-67,-18,49,42,-58,15,66,107,-87,-190,-189,-185
-68,-22,46,45,-57,12,71,106,-86,-188,-191,-185
-68,-28,40,48,-54,6,72,107,-86,-185,-190,-185
-67,-32,35,49,-51,1,73,106,-88,-182,-185,-183
-67,-37,30,52,-48,-3,73,110,-87,-180,-180,-180
-70,-46,24,58,-47,-11,72,123,-82,-179,-178,-179
-72,-52,20,62,-46,-16,72,138,-74,-179,-179,-179
-73,-50,23,61,-48,-13,74,148,-65,-179,-180,-180
-72,-43,29,57,-50,-7,77,151,-58,-179,-180,-180
-75,-41,34,58,-54,-3,78,149,-58,-180,-179,-179
-80,-42,38,61,-59,-2,78,146,-62,-180,-179,-180
-89,-43,46,66,-67,1,77,145,-65,-178,-180,-179
-96,-43,53,69,-74,5,77,146,-67,-175,-180,-179
-96,-41,55,68,-75,7,78,144,-69,-174,-179,-180
-92,-39,53,65,-72,7,78,141,-72,-174,-179,-180
-91,-36,55,63,-73,9,77,139,-75,-175,-180,-178
-91,-34,57,62,-74,11,77,140,-77,-175,-180,-175
-92,-33,59,62,-75,13,78,146,-78,-175,-179,-174
-92,-34,58,63,-75,12,78,154,-77,-175,-179,-174
-90,-33,57,61,-73,12,77,159,-79,-174,-180,-175
-87,-33,54,60,-70,10,77,160,-81,-174,-180,-175
-84,-37,47,60,-65,5,79,162,-82,-176,-179,-174
-82,-42,40,62,-61,-1,81,164,-82,-179,-179,-174
-81,-45,36,63,-58,-4,84,165,-81,-182,-180,-175
-82,-47,35,64,-58,-6,86,165,-81,-184,-180,-174
-80,-48,32,64,-56,-8,87,164,-83,-185,-179,-175
-78,-47,31,62,-54,-8,87,161,-86,-185,-179,-175
-75,-48,27,61,-51,-10,86,156,-90,-183,-180,-174
-73,-52,21,62,-47,-15,86,151,-92,-180,-180,-174
-72,-58,14,65,-43,-22,87,150,-88,-177,-177,-175
-72,-66,6,69,-39,-30,87,150,-82,-175,-175,-175
-73,-74,-1,73,-36,-37,86,151,-78,-172,-174,-173
-72,-81,-9,76,-31,-45,86,150,-74,-170,-175,-170
-73,-83,-10,78,-31,-46,87,151,-67,-168,-173,-167
-73,-82,-9,77,-32,-45,87,151,-59,-165,-170,-165
-71,-80,-9,75,-31,-44,85,147,-53,-159,-166,-163
-68,-78,-10,73,-29,-44,82,141,-48,-152,-161,-161
-64,-77,-13,70,-25,-45,81,140,-44,-146,-156,-159
-59,-77,-18,68,-20,-47,81,140,-39,-141,-151,-156
-53,-77,-24,65,-14,-50,82,140,-36,-136,-148,-153
-48,-77,-29,62,-9,-53,82,140,-34,-131,-146,-151
-47,-79,-32,63,-7,-55,81,142,-31,-129,-146,-150
-47,-81,-34,64,-6,-57,81,145,-29,-126,-146,-150
-48,-84,-36,66,-6,-60,81,146,-28,-121,-144,-150
-48,-86,-38,67,-5,-62,81,146,-28,-117,-141,-150
-47,-89,-42,68,-2,-65,82,146,-29,-118,-140,-152
-48,-91,-43,69,-2,-67,82,146,-29,-124,-140,-155
-47,-93,-46,70,0,-69,81,144,-28,-131,-141,-157
-47,-96,-49,71,1,-72,81,145,-28,-135,-141,-156
-49,-100,-51,74,1,-75,83,152,-29,-134,-140,-153
-52,-106,-54,79,1,-80,86,167,-28,-131,-140,-151
-57,-109,-52,83,-2,-80,89,183,-29,-130,-142,-150
-62,-111,-49,86,-6,-80,91,194,-29,-130,-145,-151
-63,-112,-49,87,-7,-80,90,192,-28,-131,-146,-149
-63,-112,-49,87,-7,-80,87,182,-28,-131,-146,-146
-62,-111,-49,86,-6,-80,84,171,-29,-130,-143,-143
-63,-111,-48,87,-7,-79,82,165,-29,-130,-141,-140
-62,-113,-51,87,-5,-82,81,166,-27,-131,-140,-142
-62,-116,-54,89,-4,-85,82,169,-24,-130,-140,-145
-64,-119,-55,91,-4,-87,81,170,-23,-131,-141,-146
-67,-121,-54,94,-6,-87,81,169,-23,-131,-141,-146
-68,-120,-52,94,-8,-86,83,171,-24,-130,-140,-145
-68,-117,-49,92,-9,-83,86,174,-24,-130,-140,-145
-67,-114,-47,90,-10,-80,87,177,-22,-131,-141,-146
-67,-112,-45,89,-11,-78,87,179,-19,-131,-141,-146
-68,-110,-42,89,-13,-76,86,181,-18,-129,-140,-145
-68,-107,-39,87,-14,-73,86,184,-18,-126,-140,-145
-66,-102,-36,84,-15,-69,87,187,-19,-125,-141,-146
-63,-97,-34,80,-14,-65,87,189,-19,-125,-141,-146
-62,-96,-34,79,-14,-65,86,190,-16,-126,-140,-145
-62,-96,-34,79,-14,-65,86,189,-14,-125,-140,-145
-63,-96,-33,79,-15,-64,87,191,-13,-126,-141,-146
-63,-96,-33,79,-15,-64,87,194,-14,-126,-141,-146
-62,-98,-36,80,-13,-67,86,196,-12,-124,-137,-144
-62,-101,-39,81,-11,-70,86,199,-9,-122,-131,-141
-64,-104,-40,84,-12,-72,88,204,-6,-119,-127,-138
-67,-106,-39,86,-14,-72,91,212,-4,-117,-125,-136
-68,-108,-40,88,-14,-74,96,220,-4,-116,-127,-137
-68,-111,-43,89,-12,-77,101,227,-4,-116,-130,-140
-68,-115,-47,91,-10,-81,102,234,0,-117,-132,-142
-68,-117,-49,92,-9,-83,102,238,3,-117,-131,-141
-66,-114,-48,90,-9,-81,101,240,3,-115,-127,-136
-63,-111,-48,87,-7,-79,102,239,0,-112,-122,-131
-62,-114,-52,88,-5,-83,101,236,-1,-109,-121,-130
-62,-117,-55,89,-3,-86,101,234,-3,-107,-121,-131
-63,-112,-49,87,-7,-80,104,233,-6,-105,-121,-129
-63,-103,-40,83,-11,-71,110,234,-8,-102,-121,-126
-63,-98,-35,80,-14,-66,117,232,-9,-99,-123,-124
-63,-97,-34,80,-14,-65,122,229,-8,-97,-122,-122
-62,-97,-35,79,-13,-66,118,226,-10,-95,-116,-119
-62,-97,-35,79,-13,-66,109,220,-13,-92,-107,-117
-64,-95,-31,79,-16,-63,98,207,-15,-89,-105,-117
-67,-92,-25,79,-21,-58,88,192,-18,-87,-106,-117
-68,-87,-19,77,-24,-53,81,182,-25,-86,-105,-113
-68,-82,-14,75,-27,-48,78,175,-32,-86,-102,-107
-65,-79,-14,72,-25,-46,77,170,-36,-87,-99,-104
-63,-78,-15,70,-24,-46,78,165,-34,-87,-97,-102
-62,-76,-14,69,-24,-45,76,161,-30,-85,-94,-98
-62,-73,-11,67,-25,-42,73,156,-25,-82,-92,-92
-62,-70,-8,66,-27,-39,72,151,-18,-78,-91,-89
-62,-68,-6,65,-28,-37,72,146,-14,-73,-91,-87
-63,-65,-2,64,-30,-33,72,142,-16,-70,-92,-86
-63,-63,0,63,-31,-31,72,137,-22,-68,-92,-86
-60,-61,-1,60,-29,-31,73,128,-29,-65,-89,-87
-58,-58,0,58,-29,-29,73,118,-37,-63,-87,-87
-58,-55,3,56,-30,-26,70,109,-48,-62,-86,-86
-62,-53,9,57,-35,-22,64,103,-60,-63,-87,-86
-65,-51,14,58,-39,-18,57,98,-71,-62,-86,-87
-67,-52,15,59,-41,-18,53,93,-77,-62,-86,-87
-68,-55,13,61,-40,-21,54,85,-78,-67,-90,-86
-68,-61,7,64,-37,-27,57,78,-78,-76,-95,-86
-66,-68,-2,67,-32,-35,56,76,-78,-85,-100,-89
-63,-72,-9,67,-27,-40,53,77,-80,-91,-102,-91
-59,-71,-12,65,-23,-41,52,78,-87,-90,-99,-90
-54,-68,-14,61,-20,-41,53,77,-95,-83,-93,-87
-48,-67,-19,57,-14,-43,51,78,-100,-76,-86,-86
-43,-67,-24,55,-9,-45,48,78,-102,-73,-82,-87
-41,-68,-27,54,-7,-47,45,73,-100,-74,-82,-85
-39,-68,-29,53,-5,-48,43,64,-97,-80,-85,-82
-36,-68,-32,52,-2,-50,43,57,-94,-88,-92,-80
-34,-68,-34,51,0,-51,47,53,-92,-95,-100,-81
-33,-67,-34,50,0,-50,51,51,-91,-99,-106,-88
-34,-67,-33,50,0,-50,53,48,-91,-101,-111,-99
-33,-69,-36,51,1,-52,51,45,-91,-105,-114,-109
-33,-72,-39,52,3,-55,48,42,-91,-111,-116,-116
-36,-76,-40,56,2,-58,48,45,-93,-115,-117,-117
-42,-81,-39,61,-1,-60,52,51,-92,-116,-117,-116
-45,-84,-39,64,-3,-61,56,57,-87,-117,-116,-118
-47,-86,-39,66,-4,-62,62,62,-82,-116,-116,-121
-48,-89,-41,68,-3,-65,66,65,-86,-118,-117,-121
-48,-95,-47,71,0,-71,68,67,-98,-121,-120,-121
-47,-103,-56,75,4,-79,65,69,-114,-126,-127,-124
-47,-111,-64,79,8,-87,63,72,-125,-130,-134,-130
-48,-113,-65,80,8,-89,64,75,-125,-131,-139,-133
-48,-112,-64,80,8,-88,67,77,-118,-131,-140,-135
-47,-111,-64,79,8,-87,67,78,-111,-131,-140,-138
-47,-111,-64,79,8,-87,67,78,-107,-134,-140,-140
-48,-112,-64,80,8,-88,72,77,-106,-141,-143,-140
-48,-115,-67,81,9,-91,80,77,-107,-149,-149,-140
-47,-122,-75,84,14,-98,85,79,-106,-154,-155,-144
-47,-129,-82,88,17,-105,86,81,-106,-155,-160,-150
-49,-134,-85,91,18,-109,86,81,-110,-157,-162,-153
-52,-135,-83,93,15,-109,86,81,-116,-160,-164,-155
-56,-135,-79,95,11,-107,87,84,-118,-163,-171,-158
-58,-135,-77,96,9,-106,87,86,-117,-164,-178,-160
-55,-137,-82,96,13,-109,82,85,-116,-164,-181,-160
-49,-140,-91,94,21,-115,74,82,-116,-164,-180,-160
-44,-144,-100,94,28,-122,67,80,-117,-166,-181,-163
-42,-146,-104,94,31,-125,63,78,-117,-169,-184,-169
-44,-143,-99,93,27,-121,62,76,-115,-171,-185,-173
-47,-137,-90,92,21,-113,63,73,-112,-174,-185,-174
-48,-132,-84,90,18,-108,62,71,-110,-179,-184,-174
-48,-131,-83,89,17,-107,62,68,-111,-184,-184,-174
-48,-131,-83,89,17,-107,66,65,-115,-186,-185,-176
-48,-131,-83,89,17,-107,72,63,-121,-185,-185,-179
-46,-128,-82,87,18,-105,75,62,-123,-184,-184,-180
-43,-125,-82,84,19,-103,77,62,-122,-184,-184,-180
-42,-129,-87,85,22,-108,79,63,-120,-185,-185,-179
-42,-135,-93,88,25,-114,81,63,-117,-185,-185,-179
-42,-135,-93,88,25,-114,82,62,-114,-182,-184,-181
-42,-131,-89,86,23,-110,82,62,-112,-180,-184,-184
-44,-129,-85,86,20,-107,81,64,-112,-180,-187,-186
-47,-130,-83,88,18,-106,81,67,-116,-183,-193,-189
-52,-132,-80,92,14,-106,82,70,-120,-189,-202,-194
-57,-135,-78,96,10,-106,82,72,-125,-194,-208,-199
-58,-137,-79,97,10,-108,80,75,-128,-194,-207,-198
-58,-140,-82,99,12,-111,78,80,-130,-190,-201,-195
-57,-143,-86,100,14,-114,77,89,-132,-187,-197,-194
-57,-145,-88,101,15,-116,77,96,-135,-185,-195,-195
-58,-146,-88,102,15,-117,78,93,-139,-184,-193,-192
-58,-146,-88,102,15,-117,78,84,-144,-184,-190,-186
-57,-146,-89,101,16,-117,76,74,-151,-185,-187,-179
-57,-146,-89,101,16,-117,77,68,-156,-185,-185,-175
-58,-144,-86,101,14,-115,82,68,-150,-184,-185,-174
-58,-141,-83,99,12,-112,90,72,-138,-181,-185,-175
-57,-137,-80,97,11,-108,96,75,-126,-174,-181,-171
-57,-131,-74,94,8,-102,100,77,-114,-166,-176,-166
-58,-128,-70,93,6,-99,106,80,-102,-160,-172,-162
-58,-126,-68,92,5,-97,114,85,-90,-156,-170,-161
-57,-125,-68,91,5,-96,126,91,-74,-155,-169,-161
-57,-126,-69,91,6,-97,138,96,-63,-155,-169,-161
-58,-124,-66,91,4,-95,149,98,-66,-156,-170,-159
-58,-122,-64,90,3,-93,159,97,-79,-156,-170,-156
-56,-119,-63,87,3,-91,166,95,-91,-153,-166,-155
-53,-117,-64,85,5,-90,169,92,-100,-151,-161,-156
-52,-116,-64,84,6,-90,169,89,-105,-150,-158,-154
-52,-116,-64,84,6,-90,165,87,-106,-151,-156,-151
-53,-118,-65,85,6,-91,162,85,-107,-149,-154,-148
-53,-117,-64,85,5,-90,157,82,-107,-146,-151,-146
-49,-110,-61,79,6,-85,148,78,-103,-144,-147,-144
-44,-99,-55,71,5,-77,134,70,-97,-141,-141,-141
-38,-90,-52,64,7,-71,115,59,-96,-137,-138,-137
-34,-87,-53,60,9,-70,95,49,-96,-131,-136,-132
-31,-88,-57,59,13,-72,80,46,-97,-128,-135,-126
-29,-91,-62,60,16,-76,66,44,-96,-126,-135,-122
-28,-94,-66,61,19,-80,45,35,-98,-125,-136,-121
-29,-96,-67,62,19,-81,19,21,-101,-125,-135,-122
-28,-98,-70,63,21,-84,-4,11,-105,-127,-136,-120
-24,-97,-73,60,24,-85,-21,4,-107,-130,-136,-117
-19,-92,-73,55,27,-82,-26,1,-103,-132,-134,-114
-11,-83,-72,47,30,-77,-24,0,-98,-131,-131,-112
0,-75,-75,37,37,-75,-23,-1,-94,-125,-127,-110
11,-69,-80,29,45,-74,-23,-3,-92,-118,-122,-107
20,-63,-83,21,51,-73,-23,-5,-89,-115,-119,-104
23,-58,-81,17,52,-69,-20,-4,-86,-116,-117,-102
22,-56,-78,17,50,-67,-12,1,-89,-117,-116,-101
19,-57,-76,19,47,-66,-5,8,-95,-117,-116,-101
19,-63,-82,22,50,-72,-1,8,-102,-117,-118,-102
16,-74,-90,29,53,-82,2,8,-110,-120,-124,-105
0,-90,-90,45,45,-90,14,15,-117,-129,-134,-116
-20,-108,-88,64,34,-98,30,26,-121,-139,-144,-128
-32,-124,-92,78,30,-108,43,34,-122,-145,-149,-135
-38,-138,-100,88,31,-119,51,38,-122,-146,-150,-136
-42,-147,-105,94,31,-126,57,42,-121,-144,-151,-136
-47,-154,-107,100,30,-130,62,47,-121,-145,-154,-139
-50,-161,-111,105,30,-136,66,48,-122,-151,-161,-147
-52,-168,-116,110,32,-142,71,48,-125,-159,-168,-154
-51,-174,-123,112,36,-148,77,47,-130,-162,-173,-157
-48,-178,-130,113,41,-154,81,47,-135,-161,-174,-156
-45,-184,-139,114,47,-161,83,48,-136,-162,-175,-157
-43,-189,-146,116,51,-167,82,48,-136,-164,-175,-160
-44,-190,-146,117,51,-168,79,44,-136,-165,-174,-161
-47,-190,-143,118,48,-166,74,39,-136,-165,-174,-161
-49,-189,-140,119,45,-164,68,36,-134,-165,-175,-160
-48,-189,-141,118,46,-165,63,34,-131,-165,-175,-160
-44,-189,-145,116,50,-167,60,32,-128,-163,-174,-161
-39,-189,-150,114,55,-169,58,29,-126,-161,-174,-161
-36,-190,-154,113,59,-172,57,26,-124,-160,-175,-160
-34,-190,-156,112,61,-173,57,24,-122,-160,-174,-160
-33,-187,-154,110,60,-170,59,23,-121,-161,-175,-161
-33,-181,-148,107,57,-164,62,23,-121,-161,-175,-161
-34,-173,-139,103,52,-156,64,24,-122,-160,-174,-161
-34,-166,-132,100,49,-149,67,24,-122,-160,-174,-161
-33,-163,-130,98,48,-146,71,22,-121,-161,-175,-160
-33,-164,-131,98,49,-147,77,19,-121,-161,-175,-160
-34,-165,-131,99,48,-148,80,18,-122,-160,-174,-161
-34,-165,-131,99,48,-148,81,18,-122,-160,-174,-161
-33,-163,-130,98,48,-146,82,19,-121,-161,-175,-160
-33,-161,-128,97,47,-144,81,19,-121,-161,-175,-160
-34,-160,-126,97,46,-143,82,18,-123,-158,-172,-161
-34,-161,-127,97,46,-144,82,18,-125,-156,-170,-161
-32,-159,-127,95,47,-143,80,20,-128,-156,-170,-159
-29,-156,-127,92,49,-141,78,23,-130,-160,-174,-156
-26,-153,-127,89,50,-140,75,24,-131,-163,-177,-155
-24,-151,-127,87,51,-139,73,24,-130,-164,-179,-155
-23,-150,-127,86,52,-138,72,23,-131,-165,-180,-156
-23,-151,-128,87,52,-139,72,23,-135,-165,-179,-156
-23,-150,-127,86,52,-138,73,24,-140,-164,-180,-155
-23,-150,-127,86,52,-138,73,24,-145,-164,-180,-155
-25,-153,-128,89,51,-140,73,22,-147,-164,-178,-157
-28,-159,-131,93,51,-145,73,19,-146,-164,-175,-160
-30,-165,-135,97,52,-150,72,17,-143,-165,-174,-163
-33,-169,-136,101,51,-152,72,14,-141,-165,-174,-164
-37,-171,-134,104,48,-152,74,11,-142,-163,-176,-165
-45,-170,-125,107,40,-147,77,12,-145,-161,-179,-164
-58,-166,-108,112,25,-137,81,22,-147,-159,-181,-165
-70,-154,-84,112,7,-119,86,36,-146,-156,-180,-165
-77,-133,-56,105,-10,-94,90,46,-143,-152,-175,-161
-78,-104,-26,91,-26,-65,98,61,-137,-143,-167,-153
-78,-72,6,75,-42,-33,115,99,-129,-128,-156,-143
-78,-44,34,61,-56,-5,136,149,-115,-110,-143,-133
-76,-23,53,49,-64,15,152,189,-96,-93,-129,-119
-67,-4,63,35,-65,29,153,153,-82,-70,-105,-95
-41,20,61,10,-51,40,133,-28,-90,-29,-59,-50
-1,54,55,-26,-28,54,90,-318,-115,25,3,9
47,93,46,-70,0,69,28,-632,-144,86,72,75
109,139,30,-124,39,84,-49,-927,-166,153,150,150
192,195,3,-193,94,99,-137,-1187,-174,233,244,243
298,258,-40,-278,169,109,-251,-1424,-158,327,350,346
427,321,-106,-374,266,107,-410,-1662,-113,436,459,450
577,384,-193,-480,385,95,-608,-1899,-49,563,579,561
745,453,-292,-599,518,80,-831,-2125,17,709,723,694
911,521,-390,-716,650,65,-1060,-2348,70,857,878,833
1050,573,-477,-811,763,48,-1278,-2573,94,977,1014,950
1175,566,-609,-870,892,-21,-1449,-2731,120,1047,1102,1018
1309,457,-852,-883,1080,-197,-1541,-2734,185,1052,1115,1016
1409,309,-1100,-859,1254,-395,-1575,-2634,261,1011,1078,975
1405,225,-1180,-815,1292,-477,-1595,-2535,288,956,1032,938
1275,185,-1090,-730,1182,-452,-1563,-2402,270,871,957,883
1034,122,-912,-578,973,-395,-1420,-2151,232,728,815,765
751,37,-714,-394,732,-338,-1195,-1816,170,548,624,597
519,-36,-555,-241,537,-295,-961,-1480,69,373,434,419
352,-91,-443,-130,397,-267,-753,-1179,-54,214,260,253
234,-129,-363,-52,298,-246,-587,-922,-166,72,109,112
141,-152,-293,5,217,-222,-449,-700,-245,-45,-14,-1
57,-164,-221,53,139,-192,-317,-501,-279,-128,-107,-88
-8,-169,-161,88,76,-165,-201,-330,-269,-174,-166,-143
-36,-169,-133,102,48,-151,-125,-201,-231,-186,-191,-164
-35,-165,-130,100,47,-147,-81,-109,-184,-181,-195,-165
-31,-163,-132,97,50,-147,-45,-42,-152,-178,-194,-166
-32,-161,-129,96,48,-145,-11,5,-137,-179,-194,-173
-39,-159,-120,99,40,-139,20,37,-132,-180,-196,-181
-46,-156,-110,101,32,-133,47,55,-131,-180,-199,-188
-49,-152,-103,100,27,-127,65,62,-130,-178,-201,-192
-48,-150,-102,99,27,-126,76,66,-130,-179,-203,-194
-47,-155,-108,101,30,-131,82,78,-131,-185,-206,-196
-47,-163,-116,105,34,-139,86,97,-131,-193,-208,-199
-50,-166,-116,108,33,-141,88,113,-129,-198,-209,-200
-56,-165,-109,110,26,-137,90,124,-126,-199,-209,-200
-62,-164,-102,113,20,-133,97,131,-125,-200,-208,-198
-67,-164,-97,115,15,-130,105,135,-125,-200,-208,-195
-68,-166,-98,117,15,-132,110,136,-126,-198,-209,-192
-68,-169,-101,118,16,-135,111,136,-126,-195,-209,-186
-67,-171,-104,119,18,-137,112,136,-125,-192,-205,-178
-67,-173,-106,120,19,-139,112,139,-125,-190,-200,-171
-69,-180,-111,124,21,-145,111,147,-126,-189,-199,-168
-72,-185,-113,128,20,-149,111,155,-126,-189,-199,-169
-73,-180,-107,126,17,-143,114,156,-125,-189,-200,-170
-72,-171,-99,121,13,-135,116,152,-125,-189,-200,-170
-73,-167,-94,120,10,-130,116,148,-127,-190,-199,-169
-76,-169,-93,122,8,-131,112,146,-130,-190,-199,-169
-82,-171,-89,126,3,-130,109,146,-133,-188,-200,-169
-86,-170,-84,128,-1,-127,107,146,-135,-185,-200,-169
-86,-166,-80,126,-3,-123,105,143,-136,-184,-198,-170
-82,-158,-76,120,-3,-117,102,137,-135,-184,-195,-170
-81,-149,-68,115,-6,-108,99,132,-136,-185,-192,-168
-81,-141,-60,111,-10,-100,97,130,-136,-185,-190,-165
-82,-139,-57,110,-12,-98,96,134,-134,-183,-189,-163
-82,-140,-58,111,-12,-99,96,140,-131,-180,-189,-161
-80,-140,-60,110,-10,-100,97,142,-130,-177,-190,-158
-78,-140,-62,109,-8,-101,97,141,-131,-175,-190,-156
-75,-142,-67,108,-4,-104,97,139,-129,-174,-188,-155
-73,-145,-72,109,0,-108,97,137,-126,-174,-185,-155
-72,-146,-74,109,1,-110,96,130,-124,-174,-182,-156
-73,-146,-73,109,0,-109,96,126,-122,-174,-180,-156
-71,-145,-74,108,1,-109,98,129,-120,-175,-179,-155
-68,-145,-77,106,4,-111,101,138,-117,-175,-179,-156
-65,-147,-82,106,8,-114,104,146,-114,-173,-180,-155
-63,-150,-87,106,12,-118,106,150,-112,-170,-180,-155
-62,-153,-91,107,14,-122,107,151,-112,-169,-178,-156
-62,-155,-93,108,15,-124,107,151,-116,-169,-175,-156
-62,-157,-95,109,16,-126,106,150,-119,-169,-174,-154
-62,-160,-98,111,18,-129,106,150,-122,-169,-175,-151
-63,-162,-99,112,18,-130,107,151,-120,-170,-173,-147
-63,-164,-101,113,19,-132,107,151,-117,-170,-170,-142
-61,-165,-104,113,21,-134,105,147,-117,-166,-166,-136
-58,-165,-107,111,24,-136,102,142,-117,-161,-161,-131
-57,-164,-107,110,25,-135,101,138,-113,-160,-158,-130
-57,-164,-107,110,25,-135,101,136,-108,-160,-156,-130
-58,-165,-107,111,24,-136,102,133,-104,-161,-155,-131
-58,-165,-107,111,24,-136,102,131,-102,-160,-155,-131
-57,-162,-105,109,24,-133,101,132,-99,-161,-157,-131
-57,-157,-100,107,21,-128,101,135,-97,-161,-160,-131
-58,-151,-93,104,17,-122,102,136,-96,-159,-161,-130
-58,-146,-88,102,15,-117,102,135,-96,-156,-161,-130
-57,-146,-89,101,16,-117,102,138,-97,-155,-160,-132
-57,-150,-93,103,18,-121,102,144,-97,-155,-160,-135
-58,-152,-94,105,18,-123,101,150,-96,-156,-161,-137
-58,-155,-97,106,19,-126,101,155,-96,-156,-161,-136
-57,-159,-102,108,22,-130,102,156,-98,-154,-159,-131
-57,-163,-106,110,24,-134,102,156,-101,-151,-156,-123
-59,-167,-108,113,24,-137,101,155,-104,-150,-155,-117
-62,-169,-107,115,22,-138,101,155,-106,-150,-156,-112
-63,-170,-107,116,22,-138,103,156,-107,-151,-155,-109
-63,-170,-107,116,22,-138,106,156,-107,-150,-152,-107
-62,-169,-107,115,22,-138,109,155,-107,-151,-146,-104
-63,-169,-106,116,21,-137,111,155,-107,-151,-141,-102
-62,-171,-109,116,23,-140,112,158,-105,-149,-140,-101
-62,-174,-112,118,25,-143,112,163,-102,-146,-140,-102
-64,-177,-113,120,24,-145,111,167,-101,-143,-141,-100
-67,-179,-112,123,22,-145,111,169,-101,-141,-141,-97
-68,-181,-113,124,22,-147,112,170,-102,-140,-140,-96
-68,-184,-116,126,24,-150,112,170,-102,-140,-140,-96
-67,-187,-120,127,26,-153,110,169,-100,-141,-141,-97
-67,-190,-123,128,28,-156,107,169,-97,-141,-141,-97
-68,-188,-120,128,26,-154,106,171,-96,-137,-140,-96
-68,-181,-113,124,22,-147,106,174,-96,-132,-140,-96
-66,-173,-107,119,20,-140,107,177,-97,-128,-141,-97
-63,-166,-103,114,20,-134,107,179,-97,-126,-141,-97
-62,-162,-100,112,19,-131,106,181,-93,-125,-139,-96
-62,-161,-99,111,18,-130,106,183,-88,-125,-136,-96
-62,-159,-97,110,17,-128,107,189,-83,-126,-134,-97
-62,-156,-94,109,16,-125,107,194,-81,-126,-131,-97
-63,-155,-92,109,14,-123,106,195,-83,-124,-128,-95
-66,-155,-89,110,11,-122,106,194,-86,-122,-126,-92
-72,-156,-84,114,6,-120,108,197,-89,-119,-125,-89
-77,-156,-79,116,1,-117,111,202,-91,-117,-125,-87
-78,-155,-77,116,0,-116,113,208,-93,-116,-127,-88
-78,-155,-77,116,0,-116,112,213,-92,-116,-130,-91
-78,-157,-79,117,0,-118,108,216,-88,-117,-132,-93
-78,-156,-78,117,0,-117,103,218,-83,-117,-131,-92
-76,-150,-74,113,-1,-112,99,221,-80,-114,-127,-87
-73,-142,-69,107,-2,-105,97,223,-78,-108,-122,-79
-72,-138,-66,105,-3,-102,94,224,-75,-102,-121,-74
-72,-136,-64,104,-4,-100,92,224,-73,-97,-121,-73
-73,-131,-58,102,-7,-94,91,224,-74,-96,-121,-72
-73,-123,-50,98,-11,-86,91,224,-77,-96,-121,-72
-73,-118,-45,95,-14,-81,91,222,-78,-97,-123,-74
-73,-117,-44,95,-14,-80,91,219,-78,-97,-123,-74
-72,-116,-44,94,-14,-80,93,218,-78,-94,-113,-66
-72,-116,-44,94,-14,-80,96,215,-78,-88,-99,-55
-75,-116,-41,95,-17,-78,98,206,-76,-83,-91,-46
-77,-113,-36,95,-20,-74,97,193,-76,-78,-87,-40
-76,-105,-29,90,-23,-67,93,181,-84,-75,-84,-34
-70,-94,-24,82,-23,-59,87,172,-94,-73,-79,-29
-61,-85,-24,73,-18,-54,86,164,-100,-70,-73,-26
-53,-79,-26,66,-13,-52,87,157,-101,-68,-69,-24
-53,-74,-21,63,-16,-47,83,152,-102,-67,-65,-21
-56,-69,-13,62,-21,-41,74,147,-102,-68,-63,-19
-60,-63,-3,61,-28,-33,68,141,-101,-66,-62,-18
-62,-58,4,60,-33,-27,63,136,-101,-63,-62,-19
-63,-57,6,60,-34,-25,60,134,-104,-60,-63,-17
-63,-57,6,60,-34,-25,58,131,-110,-58,-63,-14
-61,-58,3,59,-32,-27,55,126,-117,-56,-61,-12
-58,-58,0,58,-29,-29,53,119,-124,-53,-58,-9
-57,-56,1,56,-29,-27,52,110,-130,-51,-56,-7
-57,-53,4,55,-30,-24,52,103,-135,-48,-53,-4
-58,-52,6,55,-32,-23,52,98,-137,-45,-50,-2
-57,-52,5,54,-31,-23,52,93,-136,-43,-48,0
-58,-53,5,55,-31,-24,54,86,-134,-42,-47,1
-58,-53,5,55,-31,-24,53,79,-131,-42,-48,3
-56,-52,4,54,-30,-24,48,76,-129,-43,-46,3
-53,-52,1,52,-27,-25,43,77,-130,-43,-43,3
-52,-54,-2,53,-25,-28,46,78,-134,-42,-42,6
-52,-57,-5,54,-23,-31,55,78,-139,-42,-42,12
-53,-61,-8,57,-22,-34,64,78,-142,-43,-43,17
-53,-66,-13,59,-20,-39,68,78,-141,-43,-42,18
-52,-72,-20,62,-16,-46,65,76,-139,-42,-43,18
-53,-79,-26,66,-13,-52,59,73,-136,-42,-46,15
-52,-89,-37,70,-7,-63,56,72,-133,-44,-53,10
-52,-96,-44,74,-4,-70,57,72,-131,-47,-61,5
-53,-95,-42,74,-5,-68,60,74,-130,-49,-66,0
-53,-88,-35,70,-9,-61,62,77,-130,-52,-67,-3
-52,-83,-31,67,-10,-57,61,79,-130,-56,-68,-6
-52,-81,-29,66,-11,-55,58,81,-130,-62,-68,-9
-56,-83,-27,69,-14,-55,58,82,-131,-64,-66,-7
-61,-86,-25,73,-18,-55,61,82,-131,-63,-63,-4
-65,-87,-22,76,-21,-54,66,81,-127,-61,-60,-3
-67,-86,-19,76,-24,-52,71,81,-122,-58,-58,-4
-68,-89,-21,78,-23,-55,77,83,-120,-57,-56,-2
-68,-94,-26,81,-21,-60,81,86,-121,-57,-57,0
-67,-103,-36,85,-15,-69,82,88,-123,-59,-61,0
-67,-110,-43,88,-12,-76,81,91,-125,-62,-66,-3
-68,-113,-45,90,-11,-79,83,94,-126,-65,-70,-5
-68,-112,-44,90,-12,-78,86,96,-126,-71,-72,-8
-67,-112,-45,89,-11,-78,87,97,-125,-78,-72,-11
-68,-112,-44,90,-12,-78,86,97,-125,-85,-72,-13
-67,-109,-42,88,-12,-75,87,95,-126,-88,-74,-13
-67,-107,-40,87,-13,-73,87,92,-126,-87,-77,-13
-68,-108,-40,88,-14,-74,83,91,-125,-83,-80,-17
-68,-111,-43,89,-12,-77,78,91,-125,-78,-82,-23
-67,-112,-45,89,-11,-78,76,91,-126,-77,-80,-24
-67,-112,-45,89,-11,-78,77,91,-126,-77,-78,-24
-68,-110,-42,89,-13,-76,78,93,-122,-78,-79,-24
-68,-108,-40,88,-14,-74,78,96,-117,-78,-81,-24
-66,-102,-36,84,-15,-69,75,97,-115,-76,-81,-22
-63,-94,-31,78,-16,-62,69,97,-116,-73,-78,-19
-62,-85,-23,73,-19,-54,64,96,-118,-72,-77,-19
-62,-79,-17,70,-22,-48,62,96,-117,-72,-78,-23
-64,-76,-12,70,-26,-44,65,98,-113,-72,-75,-26
-67,-77,-10,72,-28,-43,71,101,-107,-72,-69,-28
-68,-81,-13,74,-27,-47,77,104,-106,-74,-63,-29
-67,-86,-19,76,-24,-52,81,106,-106,-77,-58,-29
-69,-87,-18,78,-25,-52,82,106,-105,-78,-58,-27
-72,-87,-15,79,-28,-51,81,102,-102,-78,-61,-24
-75,-86,-11,80,-32,-48,83,99,-99,-78,-65,-21
-77,-86,-9,81,-34,-47,86,97,-97,-78,-67,-19
-78,-86,-8,82,-35,-47,87,96,-95,-75,-68,-18
-78,-86,-8,82,-35,-47,87,97,-92,-69,-67,-18
-77,-87,-10,82,-33,-48,86,96,-90,-63,-68,-19
-77,-87,-10,82,-33,-48,87,96,-87,-58,-68,-19
-78,-83,-5,80,-36,-44,86,99,-85,-55,-65,-17
-78,-75,3,76,-40,-36,86,101,-82,-53,-59,-15
-77,-66,11,71,-44,-27,88,100,-80,-51,-53,-10
-77,-55,22,66,-49,-16,91,97,-78,-48,-49,-5
-78,-44,34,61,-56,-5,93,95,-76,-46,-45,-1
-77,-35,42,56,-59,3,96,96,-73,-44,-40,2
-78,-31,47,54,-62,8,99,99,-70,-38,-33,11
-78,-29,49,53,-63,10,104,105,-65,-31,-25,21
-77,-25,52,51,-64,13,114,111,-55,-22,-19,26
-77,-16,61,46,-69,22,127,115,-45,-11,-15,28
-78,-6,72,42,-75,33,139,119,-38,-1,-10,32
-78,2,80,38,-79,41,148,121,-34,7,-5,37
-77,7,84,35,-80,45,155,122,-31,12,0,41
-77,8,85,34,-81,46,160,122,-29,13,7,42
-79,9,88,35,-83,48,162,121,-28,13,12,44
-81,9,90,36,-85,49,164,121,-28,13,13,47
-82,7,89,37,-85,48,166,122,-28,15,13,48
-82,8,90,37,-86,49,165,122,-25,18,13,47
-79,13,92,33,-85,52,159,118,-18,20,17,48
-74,18,92,28,-83,55,145,109,-10,22,22,51
-67,15,82,26,-74,48,125,100,-7,27,26,57
-59,6,65,26,-62,35,102,93,-8,32,28,65
-53,0,53,26,-53,26,84,90,-9,35,30,74
-48,-1,47,24,-47,23,68,88,-9,37,32,80
-47,7,54,20,-50,30,46,79,-6,43,38,84
-48,20,68,14,-58,44,21,66,-4,50,46,86
-47,30,77,8,-62,53,-4,57,-5,58,52,90
-44,37,81,3,-62,59,-21,53,-8,62,56,95
-39,45,84,-3,-61,64,-22,50,-8,62,61,100
-31,55,86,-12,-58,70,-12,48,-5,62,66,105
-19,64,83,-22,-51,73,-2,47,0,67,73,110
-6,71,77,-32,-41,74,3,47,3,75,80,115
1,75,74,-38,-36,74,5,48,6,81,86,119
3,77,74,-40,-35,75,7,51,8,85,90,121
3,79,76,-41,-36,77,15,58,9,90,94,122
3,78,75,-40,-36,76,23,66,9,96,97,121
6,72,66,-39,-30,69,22,68,7,97,95,122
6,61,55,-33,-24,58,15,67,5,93,89,119
-8,47,55,-19,-31,51,12,71,0,85,79,108
-29,33,62,-2,-45,47,16,77,-3,75,70,94
-42,18,60,12,-51,39,27,78,-2,69,64,87
-46,6,52,20,-49,29,43,77,2,67,62,86
-51,0,51,25,-51,25,59,80,8,68,63,87
-56,-3,53,29,-54,25,71,85,13,68,63,87
-60,-5,55,32,-57,25,74,88,13,65,61,83
-62,-8,54,35,-58,23,73,87,10,62,58,78
-63,-10,53,36,-58,21,72,86,5,66,57,77
-63,-12,51,37,-57,19,72,86,0,72,57,77
-62,-17,45,39,-53,14,73,87,0,72,58,77
-62,-23,39,42,-50,8,73,87,0,68,58,77
-64,-24,40,44,-52,8,72,86,0,67,57,79
-67,-24,43,45,-55,9,72,86,0,67,57,81
-68,-23,45,45,-56,11,73,87,2,67,58,82
-68,-23,45,45,-56,11,73,87,7,67,58,82
-66,-24,42,45,-54,9,71,85,11,69,57,81
-63,-24,39,43,-51,7,68,82,13,72,57,81
-61,-23,38,42,-49,7,67,81,14,74,60,82
-58,-23,35,40,-46,6,67,81,14,77,66,82
-55,-24,31,39,-43,3,68,81,13,79,72,81
-53,-24,29,38,-41,2,68,81,13,81,77,81
-52,-21,31,36,-41,5,67,83,16,82,78,82
-52,-15,37,33,-44,11,67,86,22,82,78,82
-52,-11,41,31,-46,15,69,87,28,81,77,81
-52,-9,43,30,-47,17,72,87,33,81,77,81
-54,-9,45,31,-49,18,72,86,34,84,80,83
-57,-9,48,33,-52,19,69,86,33,90,85,86
-60,-6,54,33,-57,24,65,87,35,96,90,89
-62,-3,59,32,-60,28,63,87,38,100,95,91
-63,-7,56,35,-59,24,62,86,40,104,99,92
-63,-16,47,39,-55,15,62,86,39,106,101,91
-63,-24,39,43,-51,7,63,88,36,107,102,93
-63,-28,35,45,-49,3,63,91,34,106,102,95
-61,-27,34,44,-47,3,62,93,35,108,101,100
-58,-24,34,41,-46,5,62,96,38,111,102,105
-56,-24,32,40,-44,4,63,99,40,114,101,111
-53,-24,29,38,-41,2,63,101,42,116,101,116
-51,-20,31,35,-41,5,60,102,45,117,102,117
-48,-11,37,29,-42,13,54,102,51,117,105,117
-45,-2,43,23,-44,20,48,102,58,116,110,116
-43,3,46,20,-44,24,43,102,66,116,115,116
-42,3,45,19,-43,24,42,101,71,118,118,116
-42,-2,40,22,-41,19,42,98,72,121,117,116
-43,-9,34,26,-38,12,43,92,72,123,115,117
-46,-13,33,29,-39,10,46,90,72,125,112,117
-52,-11,41,31,-46,15,52,99,76,126,110,116
-60,0,60,30,-60,30,60,114,84,129,111,116
-68,16,84,26,-76,50,67,121,94,136,115,121
-76,40,116,18,-96,78,77,139,107,147,123,129
-81,71,152,5,-116,111,98,197,125,162,134,134
-85,106,191,-10,-138,148,127,294,148,180,147,139
-89,141,230,-26,-159,185,154,404,176,197,161,147
-88,169,257,-40,-172,213,172,457,197,220,185,166
-78,184,262,-53,-170,223,174,365,195,257,226,204
-56,189,245,-66,-150,217,158,150,170,307,281,257
-22,192,214,-85,-118,203,125,-111,135,360,336,312
29,206,177,-117,-74,191,77,-379,100,419,398,374
104,241,137,-172,-16,189,21,-632,73,494,479,456
202,292,90,-247,56,191,-57,-873,65,585,579,555
317,342,25,-329,146,183,-180,-1113,85,690,688,661
450,398,-52,-424,251,173,-352,-1360,121,816,818,783
602,479,-123,-540,362,178,-563,-1623,149,973,989,939
758,573,-185,-665,471,194,-799,-1908,155,1143,1180,1113
895,655,-240,-775,567,207,-1037,-2215,131,1296,1355,1267
1032,673,-359,-852,695,157,-1245,-2473,113,1404,1477,1372
1205,575,-630,-890,917,-27,-1384,-2583,150,1447,1521,1408
1368,424,-944,-896,1156,-260,-1468,-2584,218,1443,1514,1402
1431,337,-1094,-884,1262,-378,-1530,-2579,254,1425,1509,1400
1358,306,-1052,-832,1205,-373,-1538,-2534,257,1377,1480,1379
1150,260,-890,-705,1020,-315,-1435,-2347,260,1257,1370,1282
875,193,-682,-534,778,-244,-1244,-2040,252,1079,1186,1116
635,133,-502,-384,568,-184,-1039,-1696,205,885,975,925
453,85,-368,-269,410,-141,-850,-1363,126,696,764,735
309,44,-265,-176,287,-110,-684,-1061,43,520,572,560
188,11,-177,-99,182,-83,-534,-793,-21,371,409,412
79,-10,-89,-34,84,-49,-387,-554,-48,263,287,295
-3,-18,-15,10,6,-16,-255,-348,-34,200,209,215
-37,-14,23,25,-30,4,-163,-187,13,177,173,174
-36,-3,33,19,-34,15,-108,-67,75,179,165,158
-30,6,36,12,-33,21,-72,21,125,179,163,148
-32,12,44,10,-38,28,-42,87,155,175,161,138
-39,15,54,12,-46,34,-10,131,169,174,158,133
-46,17,63,14,-54,40,24,156,174,178,156,134
-49,23,72,13,-60,47,54,166,176,184,155,140
-48,28,76,10,-62,52,74,172,178,189,155,145
-47,26,73,10,-60,49,79,186,183,187,156,145
-47,20,67,13,-57,43,71,208,192,181,155,142
-49,17,66,16,-57,41,59,225,202,178,156,138
-52,18,70,17,-61,44,52,236,212,179,156,136
-53,20,73,16,-63,46,61,242,215,179,154,134
-53,23,76,15,-64,49,80,243,214,179,151,131
-51,25,76,13,-63,50,99,244,213,181,149,128
-48,28,76,10,-62,52,110,244,213,184,150,126
-47,31,78,8,-62,54,111,243,213,185,154,127
-47,34,81,6,-64,57,104,246,213,185,159,130
-49,31,80,9,-64,55,96,254,215,183,162,131
-52,28,80,12,-66,54,92,265,218,180,161,130
-53,32,85,10,-69,58,93,270,220,179,160,132
-53,41,94,6,-73,67,96,269,223,180,160,135
-50,44,94,3,-72,69,97,265,225,179,161,138
-48,43,91,2,-69,67,96,263,228,179,161,140
-49,42,91,3,-70,66,98,264,231,182,161,141
-52,42,94,5,-73,68,101,267,233,188,161,141
-53,44,97,4,-75,70,102,268,234,192,160,140
-53,46,99,3,-76,72,102,268,233,194,160,140
-52,51,103,0,-77,77,100,266,235,195,162,142
-52,56,108,-2,-80,82,97,267,237,195,164,145
-54,60,114,-3,-84,87,96,271,241,194,166,146
-57,62,119,-2,-88,90,97,277,243,194,169,145
-57,64,121,-3,-89,92,95,277,242,197,171,147
-54,67,121,-6,-87,94,92,273,239,202,174,150
-49,69,118,-10,-83,93,89,272,238,208,177,153
-43,72,115,-14,-79,93,87,273,238,213,179,155
-42,74,116,-16,-79,95,86,270,240,214,180,156
-42,77,119,-17,-80,98,86,264,242,214,180,156
-43,79,122,-18,-82,100,87,258,247,213,179,156
-43,81,124,-19,-83,102,87,253,251,213,180,156
-42,84,126,-21,-84,105,86,253,255,215,179,154
-42,90,132,-24,-87,111,86,256,257,218,179,152
-43,97,140,-27,-91,118,87,262,258,219,181,148
-43,101,144,-29,-93,122,87,267,258,219,184,146
-42,99,141,-28,-91,120,86,268,256,217,185,147
-42,90,132,-24,-87,111,86,268,253,215,185,150
-43,80,123,-18,-83,101,87,268,252,211,184,151
-43,73,116,-15,-79,94,87,268,253,208,184,150
-41,73,114,-16,-77,93,86,264,252,211,186,152
-39,77,116,-19,-77,96,86,259,252,217,189,155
-38,78,116,-20,-77,97,88,257,255,220,192,158
-38,77,115,-19,-76,96,91,257,261,219,194,160
-39,78,117,-19,-78,97,92,257,265,219,195,162
-39,81,120,-21,-79,100,92,257,267,219,195,164
-38,83,121,-22,-79,102,92,259,268,216,192,166
-39,85,124,-23,-81,104,92,262,268,213,190,169
-38,91,129,-26,-83,110,89,263,266,217,190,170
-38,99,137,-30,-87,118,83,263,263,225,193,170
-39,106,145,-33,-92,125,77,262,262,236,197,168
-39,111,150,-36,-94,130,73,262,262,243,199,165
-37,112,149,-37,-93,130,72,263,263,242,200,163
-35,112,147,-38,-91,129,72,263,263,235,200,161
-31,111,142,-40,-86,126,72,262,262,230,200,160
-29,111,140,-41,-84,125,72,262,262,229,200,160
-30,111,141,-40,-85,126,75,264,264,228,198,161
-33,111,144,-39,-88,127,80,267,267,228,195,161
-34,112,146,-39,-90,129,84,270,270,229,194,160
-34,112,146,-39,-90,129,87,272,272,229,194,160
-33,110,143,-38,-88,126,85,273,273,228,196,162
-34,107,141,-36,-87,124,82,272,272,229,199,164
-33,104,137,-35,-85,120,81,274,274,228,200,165
-33,102,135,-34,-84,118,81,277,277,228,200,165
-35,101,136,-33,-85,118,82,278,278,229,199,164
-38,101,139,-31,-88,120,81,278,278,229,199,164
-39,102,141,-31,-90,121,82,277,277,228,200,165
-39,105,144,-33,-91,124,82,278,277,228,199,164
-38,111,149,-36,-93,130,80,277,280,229,200,165
-38,119,157,-40,-97,138,78,277,285,232,200,165
-39,125,164,-43,-101,144,77,279,289,237,199,164
-39,129,168,-45,-103,148,77,282,291,242,199,164
-38,134,172,-48,-105,153,78,284,291,245,202,166
-38,139,177,-50,-107,158,78,286,291,247,207,169
-40,142,182,-51,-111,162,77,287,293,249,212,171
-42,145,187,-51,-114,166,77,286,296,252,217,174
-43,148,191,-52,-117,169,78,287,297,253,220,176
-43,154,197,-55,-120,175,78,287,297,253,223,179
-42,159,201,-58,-121,180,77,285,295,252,226,181
-42,163,205,-60,-123,184,77,282,292,252,228,184
-44,166,210,-61,-127,188,78,285,290,253,228,185
-47,169,216,-61,-131,192,78,290,287,252,225,185
-48,172,220,-62,-134,196,77,294,285,253,221,183
-47,174,221,-63,-134,197,74,296,286,253,219,180
-49,174,223,-62,-136,198,68,297,290,252,217,178
-52,174,226,-61,-139,200,60,296,295,252,218,179
-53,179,232,-63,-142,205,54,297,297,253,222,183
-53,187,240,-67,-146,213,53,297,296,256,227,188
-52,192,244,-70,-148,218,52,295,298,261,229,191
-52,194,246,-71,-149,220,52,292,301,266,229,190
-53,198,251,-72,-152,224,52,291,302,270,229,189
-53,206,259,-76,-156,232,52,292,301,272,229,190
-53,214,267,-80,-160,240,53,290,303,273,228,189
-53,221,274,-84,-163,247,53,287,306,272,227,189
-52,228,280,-88,-166,254,51,287,306,273,233,191
-52,233,285,-90,-168,259,49,287,302,276,241,194
-53,235,288,-91,-170,261,45,283,300,282,246,194
-53,237,290,-92,-171,263,40,275,298,289,247,194
-51,243,294,-96,-172,268,34,268,292,296,249,197
-48,250,298,-101,-173,274,29,264,284,301,251,202
-46,257,303,-105,-174,280,29,259,281,302,255,206
-43,261,304,-109,-173,282,29,254,282,302,260,208
-41,264,305,-111,-173,284,25,249,283,301,268,210
-39,267,306,-114,-172,286,16,245,283,301,276,213
-36,269,305,-116,-170,287,9,241,281,303,279,215
-34,272,306,-119,-170,289,4,239,279,306,278,218
-33,273,306,-120,-169,289,3,237,275,307,277,221
-34,273,307,-119,-170,290,3,235,270,307,277,223
-32,271,303,-119,-167,287,4,229,262,306,278,224
-29,268,297,-119,-163,282,4,221,255,306,278,224
-28,267,295,-119,-161,281,4,214,248,307,276,224
-29,268,297,-119,-163,282,4,209,244,307,273,224
-27,266,293,-119,-160,279,3,208,243,305,272,222
-24,263,287,-119,-155,275,3,209,243,302,272,219
-22,261,283,-119,-152,272,6,207,245,300,273,218
-19,258,277,-119,-148,267,12,204,247,298,272,219
-16,255,271,-119,-143,263,16,203,248,294,273,217
-14,250,264,-118,-139,257,18,203,248,288,273,214
-13,243,256,-115,-134,249,20,203,245,283,271,213
-14,236,250,-111,-132,243,23,203,240,278,268,213
-12,230,242,-109,-127,236,24,205,236,277,267,214
-10,225,235,-107,-122,230,23,208,234,278,267,214
-6,220,226,-107,-116,223,24,209,233,276,267,212
-4,212,216,-104,-110,214,27,208,233,270,264,209
-3,200,203,-98,-103,201,31,209,235,262,257,208
-3,188,191,-92,-97,189,37,212,238,254,249,208
-4,180,184,-88,-94,182,43,217,240,251,246,210
-4,176,180,-86,-92,178,47,222,239,249,244,209
-2,172,174,-85,-88,173,45,226,236,241,240,205
0,166,166,-83,-83,166,36,228,231,227,231,197
0,161,161,-80,-80,161,28,229,224,217,223,191
-3,156,159,-76,-81,157,24,229,219,210,215,186
-6,155,161,-74,-83,158,25,225,219,206,211,181
-8,156,164,-74,-86,160,31,220,223,201,209,176
-9,154,163,-72,-86,158,37,216,224,195,208,173
-9,149,158,-70,-83,153,42,214,220,187,205,171
-8,136,144,-64,-76,140,44,211,214,179,198,165
-8,121,129,-56,-68,125,46,206,206,171,188,158
-9,109,118,-50,-63,113,51,199,200,166,178,151
-9,103,112,-47,-60,107,56,195,196,162,171,147
-8,101,109,-46,-58,105,59,197,192,158,169,143
-8,101,109,-46,-58,105,62,206,186,153,169,141
-9,101,110,-46,-59,105,65,214,180,145,169,141
-9,98,107,-44,-58,102,68,218,175,137,166,141
-7,92,99,-42,-53,95,65,217,174,133,160,136
-4,84,88,-40,-46,86,59,211,175,131,153,128
-3,79,82,-38,-42,80,56,204,172,128,147,123
-3,77,80,-37,-41,78,57,200,166,123,142,122
-5,78,83,-36,-44,80,59,200,163,118,136,120
-8,78,86,-35,-47,82,62,203,164,113,131,117
-9,76,85,-33,-47,80,64,204,165,110,130,115
-8,74,82,-33,-45,78,67,204,165,108,131,113
-10,70,80,-30,-45,75,69,202,163,103,127,108
-12,68,80,-28,-46,74,72,200,161,98,119,103
-16,67,83,-25,-49,75,73,198,160,95,112,100
-18,67,85,-24,-51,76,73,195,160,93,108,97
-19,68,87,-24,-53,77,71,194,160,86,103,94
-19,68,87,-24,-53,77,68,194,157,76,98,88
-19,67,86,-24,-52,76,67,194,151,66,93,83
-19,67,86,-24,-52,76,67,194,143,59,88,78
-17,68,85,-25,-51,76,67,196,137,55,84,77
-14,68,82,-27,-48,75,67,199,136,53,79,77
-13,64,77,-25,-45,70,70,201,136,51,74,77
-13,59,72,-23,-42,65,73,200,136,48,69,74
-13,56,69,-21,-41,62,70,196,133,47,67,69
-13,57,70,-22,-41,63,64,191,127,47,67,64
-15,58,73,-21,-44,65,60,187,122,48,68,60
-18,58,76,-20,-47,67,58,185,117,48,68,58
-20,57,77,-18,-48,67,57,182,116,47,66,56
-23,57,80,-17,-51,68,57,177,116,47,63,53
-25,58,83,-16,-54,70,58,170,117,48,61,50
-28,58,86,-15,-57,72,58,165,117,48,59,48
-29,55,84,-13,-56,69,54,164,117,46,54,47
-29,53,82,-12,-55,67,49,165,117,43,49,47
-27,54,81,-13,-54,67,47,162,116,42,45,47
-24,60,84,-18,-54,72,47,157,116,43,43,47
-23,66,89,-21,-56,77,48,153,118,42,42,48
-24,71,95,-23,-59,83,47,151,120,41,42,51
-22,75,97,-26,-59,86,49,151,124,47,46,57
-19,77,96,-29,-57,86,54,154,129,56,51,62
-18,78,96,-30,-57,87,66,159,134,59,54,62
-18,80,98,-31,-58,89,81,163,139,58,53,58
-18,85,103,-33,-60,94,96,167,141,57,52,57
-18,90,108,-36,-63,99,108,169,141,58,52,58
-19,94,113,-37,-66,103,117,170,140,57,54,56
-22,96,118,-37,-70,107,124,170,141,54,57,53
-27,97,124,-35,-75,110,129,169,140,49,57,51
-32,97,129,-32,-80,113,134,169,137,44,54,49
-36,96,132,-30,-84,114,137,170,132,42,49,45
-38,96,134,-29,-86,115,137,170,127,42,44,40
-38,100,138,-31,-88,119,130,167,125,42,41,36
-35,106,141,-35,-88,123,117,159,125,42,42,33
-30,106,136,-38,-83,121,98,148,126,45,44,35
-25,102,127,-38,-76,114,78,138,126,51,47,40
-21,102,123,-40,-72,112,62,133,125,55,49,47
-18,105,123,-43,-70,114,48,129,125,57,52,52
-20,109,129,-44,-74,119,28,113,126,58,54,52
-23,112,135,-44,-79,123,4,89,126,58,57,48
-24,110,134,-43,-79,122,-19,68,123,56,58,46
-24,107,131,-41,-77,119,-38,55,118,54,58,47
-22,109,131,-43,-76,120,-48,49,115,50,56,49
-20,115,135,-47,-77,125,-51,48,116,47,53,52
-15,119,134,-52,-74,126,-56,47,118,50,52,54
-7,121,128,-57,-67,124,-61,47,121,56,52,57
3,123,120,-63,-58,121,-63,49,122,59,54,59
15,125,110,-70,-47,117,-60,55,122,58,57,62
24,127,103,-75,-39,115,-52,65,120,57,58,63
31,127,96,-79,-32,111,-44,75,118,58,58,63
38,121,83,-79,-22,102,-40,79,114,56,55,61
41,111,70,-76,-14,90,-36,77,109,51,50,56
29,97,68,-63,-19,82,-26,80,101,40,41,43
9,82,73,-45,-32,77,-12,85,93,27,31,28
-3,68,71,-32,-37,69,-3,87,90,19,24,18
-7,56,63,-24,-35,59,2,86,91,18,19,14
-11,48,59,-18,-35,53,7,89,92,20,17,13
-16,44,60,-14,-38,52,12,95,92,20,15,10
-23,40,63,-8,-43,51,17,98,90,12,9,3
-31,35,66,-2,-48,50,22,97,88,0,0,-6
-38,31,69,3,-53,50,27,96,84,-8,-10,-13
-42,26,68,8,-55,47,32,97,79,-12,-17,-17
-43,16,59,13,-51,37,34,96,74,-17,-20,-21
-42,3,45,19,-43,24,34,93,69,-22,-19,-23
-44,-6,38,25,-41,16,33,89,64,-26,-18,-24
-46,-12,34,29,-40,11,33,87,58,-28,-18,-24
-50,-16,34,33,-42,9,34,88,57,-29,-20,-23
-52,-18,34,35,-43,8,34,91,58,-29,-22,-24
-53,-20,33,36,-43,6,32,92,56,-27,-26,-23
-53,-23,30,38,-41,3,29,92,53,-24,-28,-23
-52,-24,28,38,-40,2,29,91,52,-24,-29,-25
-52,-24,28,38,-40,2,32,92,52,-27,-29,-27
-53,-23,30,38,-41,3,36,91,53,-31,-28,-31
-53,-24,29,38,-41,2,38,91,53,-33,-28,-33
-51,-23,28,37,-39,2,39,93,50,-34,-30,-34
-49,-23,26,36,-37,1,38,96,45,-34,-32,-34
-45,-24,21,34,-33,-1,40,97,39,-33,-36,-33
-43,-27,16,35,-29,-5,42,97,34,-33,-38,-33
-42,-32,10,37,-26,-11,43,96,33,-33,-39,-35
-42,-37,5,39,-23,-16,43,96,33,-33,-39,-38
-43,-41,2,42,-22,-19,42,97,35,-34,-39,-40
-43,-42,1,42,-22,-20,42,97,37,-34,-39,-42
-43,-43,0,43,-21,-21,44,95,41,-33,-37,-43
-43,-43,0,43,-21,-21,46,92,46,-33,-34,-43
-42,-42,0,42,-21,-21,50,91,51,-35,-33,-41
-42,-39,3,40,-22,-18,52,91,53,-38,-33,-39
-44,-37,7,40,-25,-15,53,92,50,-39,-35,-39
-46,-34,12,40,-29,-11,53,92,42,-39,-38,-41
-50,-33,17,41,-33,-8,53,92,33,-38,-40,-45
-52,-33,19,42,-35,-7,53,92,25,-38,-42,-47
-53,-34,19,43,-36,-7,51,91,21,-39,-43,-48
-53,-34,19,43,-36,-7,49,91,19,-42,-43,-48
-53,-33,20,43,-36,-6,45,92,18,-44,-41,-47
-53,-33,20,43,-36,-6,43,92,18,-47,-39,-47
-51,-36,15,43,-33,-10,42,89,20,-49,-38,-49
-48,-40,8,44,-28,-16,42,81,23,-52,-38,-52
-46,-46,0,46,-23,-23,43,71,24,-54,-39,-54
-46,-51,-5,48,-20,-28,46,63,24,-56,-41,-56
-51,-53,-2,52,-24,-27,51,64,22,-60,-46,-60
-60,-50,10,55,-35,-20,56,65,19,-63,-52,-63
-67,-41,26,54,-46,-7,60,54,18,-61,-52,-59
-74,-25,49,49,-61,12,67,58,21,-55,-48,-54
-85,-3,82,44,-83,39,87,125,31,-48,-47,-53
-97,20,117,38,-107,68,116,248,46,-41,-47,-57
-108,42,150,33,-129,96,141,387,65,-33,-46,-57
-115,61,176,27,-145,118,160,469,80,-20,-36,-46
-116,80,196,18,-156,138,172,409,78,2,-8,-19
-108,100,208,4,-158,154,173,223,61,35,32,19
-85,119,204,-17,-144,161,156,-8,34,72,77,62
-45,144,189,-49,-117,166,123,-251,5,117,126,110
8,183,175,-95,-83,179,88,-497,-19,176,189,175
76,231,155,-153,-39,193,41,-741,-33,247,265,251
155,277,122,-216,16,199,-39,-981,-27,324,344,328
260,333,73,-296,93,203,-178,-1227,5,428,451,426
410,429,19,-419,195,224,-395,-1495,67,595,623,585
580,555,-25,-567,302,265,-665,-1787,137,802,839,782
722,676,-46,-699,384,315,-934,-2095,179,993,1036,960
867,729,-138,-798,502,295,-1172,-2366,214,1135,1180,1087
1084,643,-441,-863,762,101,-1365,-2521,290,1218,1259,1153
1333,481,-852,-907,1092,-185,-1524,-2586,398,1261,1299,1184
1498,379,-1119,-938,1308,-370,-1669,-2644,488,1294,1340,1219
1508,340,-1168,-924,1338,-414,-1751,-2660,536,1292,1355,1235
1328,282,-1046,-805,1187,-382,-1682,-2527,533,1201,1279,1169
1035,192,-843,-613,939,-325,-1495,-2266,487,1037,1123,1030
775,105,-670,-440,722,-282,-1297,-1977,408,864,948,872
584,34,-550,-309,567,-258,-1116,-1689,302,689,765,705
425,-19,-444,-203,434,-231,-931,-1384,166,489,557,520
281,-60,-341,-110,311,-200,-736,-1077,21,280,341,329
148,-93,-241,-27,194,-167,-541,-798,-96,105,160,166
43,-113,-156,35,99,-134,-370,-562,-157,-10,36,50
-6,-117,-111,61,52,-114,-249,-373,-141,-56,-20,-7
-13,-109,-96,61,41,-102,-172,-224,-79,-58,-32,-25
-18,-104,-86,61,34,-95,-111,-103,-29,-61,-38,-37
-29,-102,-73,65,22,-87,-58,-10,-8,-74,-49,-52
-40,-100,-60,70,10,-80,-18,47,1,-82,-58,-66
-46,-94,-48,70,1,-71,10,76,7,-82,-65,-75
-49,-86,-37,67,-6,-61,34,90,11,-80,-71,-81
-48,-78,-30,63,-9,-54,53,102,13,-80,-76,-85
-46,-79,-33,62,-6,-56,63,118,13,-86,-79,-88
-43,-85,-42,64,0,-63,67,139,13,-94,-81,-91
-42,-88,-46,65,2,-67,68,156,15,-99,-82,-93
-42,-87,-45,64,1,-66,70,167,18,-101,-85,-96
-44,-86,-42,65,-1,-64,79,173,18,-103,-91,-98
-47,-86,-39,66,-4,-62,92,174,15,-106,-99,-101
-48,-87,-39,67,-4,-63,104,175,11,-107,-107,-103
-47,-87,-40,67,-3,-63,111,175,9,-107,-111,-106
-48,-87,-39,67,-4,-63,110,175,8,-105,-109,-107
-51,-89,-38,70,-6,-63,104,177,8,-102,-103,-106
-56,-98,-42,77,-7,-70,97,186,10,-101,-100,-108
-61,-106,-45,83,-8,-75,92,197,13,-101,-101,-111
-64,-104,-40,84,-12,-72,92,202,15,-103,-102,-112
-63,-94,-31,78,-16,-62,96,201,18,-105,-102,-112
-61,-89,-28,75,-16,-58,97,197,20,-109,-101,-111
-58,-91,-33,74,-12,-62,96,195,23,-111,-101,-111
-57,-92,-35,74,-11,-63,98,194,24,-110,-102,-111
-58,-92,-34,75,-12,-63,101,195,24,-107,-102,-111
-56,-90,-34,73,-11,-62,102,193,22,-106,-102,-112
-53,-88,-35,70,-9,-61,102,190,19,-106,-102,-112
-52,-85,-33,68,-9,-59,100,188,18,-107,-101,-110
-52,-82,-30,67,-11,-56,97,188,18,-107,-101,-107
-54,-81,-27,67,-13,-54,96,193,19,-106,-102,-106
-57,-81,-24,69,-16,-52,96,198,19,-106,-102,-106
-58,-83,-25,70,-16,-54,96,200,17,-107,-100,-107
-58,-85,-27,71,-15,-56,96,200,14,-106,-98,-107
-56,-89,-33,72,-11,-61,97,200,13,-107,-94,-106
-53,-91,-38,72,-7,-64,97,203,13,-107,-92,-106
-52,-91,-39,71,-6,-65,94,204,13,-106,-91,-107
-52,-88,-36,70,-8,-62,89,204,13,-106,-91,-106
-53,-84,-31,68,-11,-57,83,204,14,-107,-91,-107
-53,-82,-29,67,-12,-55,78,204,17,-107,-91,-107
-52,-81,-29,66,-11,-55,77,202,22,-105,-93,-106
-52,-81,-29,66,-11,-55,77,200,27,-102,-96,-106
-53,-82,-29,67,-12,-55,77,199,31,-101,-97,-107
-53,-82,-29,67,-12,-55,77,199,33,-101,-97,-107
-52,-81,-29,66,-11,-55,79,199,33,-101,-96,-105
-52,-81,-29,66,-11,-55,84,199,33,-101,-96,-102
-53,-82,-29,67,-12,-55,91,200,35,-102,-97,-101
-53,-82,-29,67,-12,-55,96,201,38,-102,-97,-101
-51,-81,-30,66,-10,-55,96,195,38,-99,-95,-102
-48,-81,-33,64,-7,-57,93,187,38,-93,-93,-102
-47,-83,-36,65,-5,-59,91,182,41,-91,-90,-101
-47,-86,-39,66,-4,-62,91,180,46,-91,-87,-101
-48,-87,-39,67,-4,-63,92,179,49,-91,-86,-101
-48,-86,-38,67,-5,-62,92,179,48,-91,-86,-101
-47,-87,-40,67,-3,-63,91,181,46,-93,-88,-102
-47,-87,-40,67,-3,-63,91,184,44,-96,-91,-102
-48,-83,-35,65,-6,-59,92,185,41,-97,-92,-101
-48,-75,-27,61,-10,-51,92,185,39,-97,-92,-101
-47,-68,-21,57,-13,-44,91,184,39,-96,-91,-103
-47,-63,-16,55,-15,-39,91,184,39,-96,-91,-106
-48,-62,-14,55,-17,-38,92,186,35,-97,-92,-107
-48,-62,-14,55,-17,-38,92,188,27,-97,-92,-107
-47,-63,-16,55,-15,-39,91,192,17,-95,-91,-105
-47,-63,-16,55,-15,-39,91,194,10,-92,-91,-102
-48,-60,-12,54,-18,-36,92,195,8,-91,-93,-101
-48,-55,-7,51,-20,-31,92,195,8,-91,-96,-101
-46,-49,-3,47,-21,-26,90,195,8,-92,-97,-102
-43,-44,-1,43,-21,-22,88,195,8,-92,-97,-102
-42,-42,0,42,-21,-21,84,193,13,-91,-95,-101
-43,-42,1,42,-22,-20,82,190,24,-91,-92,-101
-42,-43,-1,42,-20,-22,81,189,38,-92,-91,-103
-42,-43,-1,42,-20,-22,82,189,50,-91,-91,-106
-45,-43,2,44,-23,-20,81,190,54,-92,-92,-107
-51,-43,8,47,-29,-17,78,189,53,-92,-92,-107
-55,-42,13,48,-34,-14,76,190,52,-91,-91,-107
-57,-40,17,48,-37,-11,73,190,53,-91,-91,-107
-58,-37,21,47,-39,-8,71,188,52,-92,-91,-105
-57,-34,23,45,-40,-5,68,185,49,-92,-91,-103
-58,-33,25,45,-41,-4,67,184,44,-90,-92,-100
-58,-34,24,46,-41,-5,67,184,40,-87,-92,-97
-56,-32,24,44,-40,-4,68,186,38,-86,-91,-96
-53,-29,24,41,-38,-2,68,189,38,-86,-91,-96
-52,-28,24,40,-38,-2,67,190,40,-87,-92,-97
-52,-28,24,40,-38,-2,67,189,42,-87,-92,-97
-53,-29,24,41,-38,-2,68,191,44,-85,-89,-95
-53,-29,24,41,-38,-2,68,194,47,-80,-84,-93
-52,-28,24,40,-38,-2,67,195,48,-74,-78,-90
-52,-28,24,40,-38,-2,67,194,48,-69,-73,-87
-55,-29,26,42,-40,-1,69,197,46,-67,-73,-86
-61,-29,32,45,-46,1,72,202,43,-67,-76,-86
-65,-28,37,46,-51,4,74,206,42,-67,-79,-88
-67,-28,39,47,-53,5,74,208,42,-67,-81,-90
-68,-29,39,48,-53,5,69,209,44,-69,-84,-94
-68,-30,38,49,-53,4,64,208,47,-72,-86,-96
-66,-24,42,45,-54,9,61,209,46,-73,-86,-95
-64,-16,48,40,-56,16,62,209,43,-73,-82,-92
-61,-11,50,36,-55,19,63,207,42,-71,-81,-91
-58,-10,48,34,-53,19,63,204,43,-68,-81,-91
-56,-5,51,30,-53,23,62,203,41,-67,-81,-92
-53,1,54,26,-53,27,62,204,39,-68,-81,-92
-52,7,59,22,-55,33,63,203,39,-67,-82,-91
-52,12,64,20,-58,38,63,203,39,-64,-83,-88
-52,16,68,18,-60,42,62,206,36,-59,-77,-83
-52,18,70,17,-61,44,59,209,30,-54,-70,-78
-54,19,73,17,-63,46,55,204,27,-50,-66,-77
-57,22,79,17,-68,50,49,194,25,-48,-67,-78
-58,27,85,15,-71,56,44,184,19,-47,-68,-75
-58,35,93,11,-75,64,40,177,11,-47,-68,-69
-56,43,99,6,-77,71,37,170,6,-47,-68,-65
-53,50,103,1,-78,76,32,163,4,-47,-68,-63
-51,56,107,-2,-79,81,20,156,2,-48,-66,-61
-49,61,110,-6,-79,85,7,148,0,-48,-64,-58
-46,65,111,-9,-78,88,2,142,-1,-46,-61,-57
-43,67,110,-12,-76,88,6,137,-3,-43,-58,-57
-42,68,110,-13,-76,89,14,133,-6,-42,-56,-58
-43,68,111,-12,-77,89,21,128,-11,-42,-54,-58
-41,66,107,-12,-74,86,27,121,-18,-44,-51,-57
-39,63,102,-12,-70,82,31,114,-26,-46,-48,-58
-38,62,100,-12,-69,81,38,108,-32,-49,-47,-57
-38,62,100,-12,-69,81,43,103,-37,-52,-47,-57
-39,63,102,-12,-70,82,39,99,-42,-53,-49,-58
-38,63,101,-12,-69,82,27,94,-50,-53,-51,-58
-39,62,101,-11,-70,81,18,87,-57,-52,-55,-56
-39,62,101,-11,-70,81,14,80,-62,-53,-57,-53
-37,64,101,-13,-69,82,13,75,-62,-52,-56,-52
-34,67,101,-16,-67,84,13,73,-62,-52,-53,-53
-33,69,102,-18,-67,85,14,71,-65,-53,-52,-51
-33,68,101,-17,-67,84,14,68,-71,-53,-53,-48
-34,65,99,-15,-66,82,12,67,-73,-49,-50,-47
-34,60,94,-13,-64,77,10,68,-69,-41,-45,-47
-33,53,86,-10,-59,69,7,67,-64,-35,-39,-49
-33,46,79,-6,-56,62,7,64,-59,-33,-38,-51
-33,37,70,-2,-51,53,13,60,-55,-37,-42,-54
-33,30,63,1,-48,46,24,55,-53,-45,-50,-57
-34,28,62,3,-48,45,36,49,-52,-50,-55,-59
-34,29,63,2,-48,46,46,47,-52,-51,-57,-61
-33,27,60,3,-46,43,47,51,-52,-56,-58,-64
-33,21,54,6,-43,37,41,59,-52,-61,-58,-67
-36,14,50,11,-43,32,36,67,-53,-63,-57,-68
-41,9,50,16,-45,29,34,72,-53,-63,-57,-67
-44,8,52,18,-48,30,33,73,-51,-63,-59,-69
-43,9,52,17,-47,30,34,72,-48,-66,-62,-72
-41,7,48,17,-44,27,33,74,-48,-70,-64,-73
-39,2,41,18,-40,21,33,76,-51,-76,-66,-72
-38,-4,34,21,-36,15,36,79,-55,-81,-71,-75
-38,-12,26,25,-32,7,44,81,-57,-85,-79,-80
-39,-15,24,27,-31,4,55,83,-58,-88,-86,-84
-39,-14,25,26,-32,5,65,85,-57,-91,-91,-86
-38,-13,25,25,-31,6,69,89,-58,-92,-92,-86
-38,-13,25,25,-31,6,68,95,-61,-95,-91,-83
-39,-14,25,26,-32,5,68,99,-65,-100,-93,-78
-39,-17,22,28,-30,2,68,102,-67,-106,-95,-73
-38,-23,15,30,-26,-4,64,100,-67,-106,-98,-74
-38,-31,7,34,-22,-12,55,94,-67,-103,-97,-80
-40,-37,3,38,-21,-17,49,88,-70,-100,-94,-82
-42,-39,3,40,-22,-18,48,83,-76,-101,-91,-81
-43,-37,6,40,-24,-15,47,79,-77,-103,-94,-83
-43,-34,9,38,-26,-12,48,75,-74,-106,-100,-89
-41,-33,8,37,-24,-12,47,67,-70,-107,-102,-95
-39,-33,6,36,-22,-13,47,59,-68,-107,-102,-100
-38,-35,3,36,-20,-16,49,58,-66,-106,-103,-103
-38,-38,0,38,-19,-19,52,65,-64,-103,-106,-102
-39,-39,0,39,-19,-19,53,72,-59,-98,-107,-100
-39,-38,1,38,-20,-18,53,76,-54,-92,-107,-97
-38,-40,-2,39,-18,-21,51,78,-51,-92,-105,-96
-38,-45,-7,41,-15,-26,48,78,-51,-95,-103,-96
-39,-51,-12,45,-13,-31,47,77,-55,-97,-100,-97
-39,-56,-17,47,-11,-36,48,77,-61,-96,-97,-97
-38,-58,-20,48,-9,-39,46,79,-64,-97,-96,-95
-38,-57,-19,47,-9,-38,43,81,-63,-100,-96,-92
-40,-59,-19,49,-10,-39,42,82,-61,-103,-97,-91
-42,-65,-23,53,-9,-44,42,82,-58,-106,-97,-91
-43,-71,-28,57,-7,-49,43,81,-57,-107,-96,-93
-43,-76,-33,59,-5,-54,43,82,-58,-107,-96,-96
-43,-79,-36,61,-3,-57,42,81,-57,-106,-97,-97
-43,-81,-38,62,-2,-59,42,81,-54,-103,-97,-97
-41,-82,-41,61,0,-61,45,82,-51,-99,-95,-95
-39,-81,-42,60,1,-61,50,85,-48,-93,-93,-93
-38,-82,-44,60,3,-63,56,89,-46,-89,-90,-90
-38,-82,-44,60,3,-63,61,91,-46,-87,-87,-88
-39,-80,-41,59,1,-60,63,90,-51,-87,-85,-84
-39,-78,-39,58,0,-58,62,87,-59,-90,-82,-80
-38,-77,-39,57,0,-58,64,86,-69,-94,-80,-74
-39,-78,-39,58,0,-58,67,86,-77,-97,-78,-69
-38,-76,-38,57,0,-57,68,87,-76,-95,-77,-67
-38,-73,-35,55,-1,-54,68,86,-67,-89,-77,-67
-39,-71,-32,55,-3,-51,68,87,-56,-83,-77,-67
-39,-69,-30,54,-4,-49,68,87,-49,-78,-77,-67
-37,-64,-27,50,-5,-45,66,85,-47,-78,-78,-68
-35,-56,-21,45,-7,-38,63,82,-48,-78,-79,-69
-32,-48,-16,40,-8,-32,62,81,-45,-74,-74,-64
-29,-41,-12,35,-8,-26,62,81,-40,-66,-66,-56
-28,-35,-7,31,-10,-21,63,82,-37,-57,-58,-49
-29,-30,-1,29,-14,-15,65,85,-35,-50,-51,-44
-28,-28,0,28,-14,-14,73,89,-31,-44,-42,-40
-28,-28,0,28,-14,-14,86,95,-25,-40,-35,-35
-31,-29,2,30,-16,-13,99,99,-22,-37,-33,-30
-37,-29,8,33,-22,-10,108,101,-19,-35,-34,-25
-41,-28,13,34,-27,-7,116,102,-17,-30,-31,-22
-42,-29,13,35,-27,-8,120,102,-14,-25,-26,-20
-43,-28,15,35,-29,-6,123,101,-14,-23,-21,-16
-42,-28,14,35,-28,-7,125,101,-17,-23,-19,-11
-43,-29,14,36,-28,-7,126,102,-20,-23,-18,-5
-43,-29,14,36,-28,-7,127,102,-20,-20,-15,-1
-41,-26,15,33,-28,-5,122,101,-14,-16,-10,2
-36,-20,16,28,-26,-2,112,98,-3,-11,-2,6
-30,-18,12,24,-21,-3,97,93,4,-5,3,13
-25,-19,6,22,-15,-6,79,88,8,1,7,20
-20,-17,3,18,-11,-7,64,85,9,7,11,28
-15,-11,4,13,-9,-3,49,81,9,12,16,33
-12,-5,7,8,-9,1,30,69,8,16,22,33
-9,0,9,4,-9,4,5,53,5,18,27,33
-7,0,7,3,-7,3,-18,41,0,18,30,36
-2,0,2,1,-2,1,-38,35,-6,15,33,44
4,3,-1,-3,2,1,-46,31,-10,12,35,53
14,10,-4,-12,9,3,-44,29,-10,12,40,60
26,17,-9,-21,17,4,-40,28,-6,19,47,65
38,22,-16,-30,27,3,-36,28,-2,30,55,67
47,25,-22,-36,34,1,-30,28,3,37,61,69
52,28,-24,-40,38,2,-22,31,7,38,66,71
52,30,-22,-41,37,4,-13,40,9,38,69,75
52,30,-22,-41,37,4,-5,53,9,39,68,79
55,24,-31,-39,43,-3,-2,62,7,38,66,85
56,14,-42,-35,49,-14,1,66,5,36,60,88
43,0,-43,-21,43,-21,11,72,2,28,52,81
21,-13,-34,-4,27,-23,27,79,0,17,45,67
6,-27,-33,10,19,-30,41,83,0,10,41,58
1,-39,-40,19,20,-39,50,85,3,8,42,57
-2,-48,-46,25,22,-47,56,90,4,11,43,58
-7,-55,-48,31,20,-51,61,99,4,14,43,58
-11,-62,-51,36,20,-56,65,104,3,11,40,55
-13,-70,-57,41,22,-63,70,106,1,5,35,49
-14,-76,-62,45,24,-69,76,107,-2,4,31,47
-14,-80,-66,47,26,-73,80,106,-7,7,29,48
-13,-85,-72,49,29,-78,82,107,-10,9,28,46
-13,-90,-77,51,32,-83,82,107,-9,9,28,43
-14,-91,-77,52,31,-84,80,105,-7,8,30,43
-14,-88,-74,51,30,-81,78,102,-5,9,32,46
-12,-85,-73,48,30,-79,76,101,-1,8,35,49
-10,-82,-72,46,31,-77,74,101,2,8,38,52
-7,-80,-73,43,33,-76,70,102,4,10,40,54
-4,-78,-74,41,35,-76,64,102,4,13,42,56
-3,-76,-73,39,35,-74,60,101,3,14,44,59
-3,-73,-70,38,33,-71,58,101,3,13,46,62
-4,-72,-68,38,32,-70,57,101,5,14,49,63
-4,-73,-69,38,32,-71,58,101,7,17,51,63
-3,-71,-68,37,32,-69,57,102,10,20,54,62
-3,-68,-65,35,31,-66,57,102,13,23,57,62
-4,-67,-63,35,29,-65,59,101,14,24,58,63
-4,-67,-63,35,29,-65,62,101,14,24,58,63
-3,-68,-65,35,31,-66,63,103,13,23,57,62
-3,-68,-65,35,31,-66,63,106,13,24,58,62
-4,-67,-63,35,29,-65,62,107,15,23,57,64
-4,-67,-63,35,29,-65,62,107,18,23,57,66
-3,-69,-66,36,31,-67,63,106,19,25,59,69
-3,-72,-69,37,33,-70,63,106,19,27,62,71
-4,-72,-68,38,32,-70,62,108,18,30,63,74
-4,-69,-65,36,30,-67,62,111,18,32,63,77
-3,-66,-63,34,30,-64,63,112,20,35,62,78
-3,-63,-60,33,28,-61,62,112,23,38,62,78
-4,-61,-57,32,26,-59,63,111,24,39,63,77
-4,-59,-55,31,25,-57,63,111,24,39,63,77
-3,-56,-53,29,25,-54,62,112,22,38,62,78
-3,-53,-50,28,23,-51,62,112,19,38,62,77
-4,-52,-48,28,22,-50,63,111,18,39,65,78
-4,-52,-48,28,22,-50,63,111,18,41,70,78
-3,-52,-49,27,23,-50,62,112,20,44,75,77
-3,-52,-49,27,23,-50,62,112,22,47,77,77
-4,-53,-49,28,22,-51,63,110,25,48,77,78
-7,-53,-46,30,19,-49,66,110,27,48,74,81
-12,-49,-37,30,12,-43,70,117,31,47,71,83
-20,-39,-19,29,0,-29,75,130,36,47,72,85
-29,-23,6,26,-17,-8,80,144,42,50,75,90
-39,-1,38,20,-38,18,87,160,49,57,82,98
-47,24,71,11,-59,47,100,188,59,72,94,108
-55,49,104,3,-79,76,120,238,73,91,107,118
-61,69,130,-4,-95,99,147,318,96,103,116,125
-62,87,149,-12,-105,118,170,371,119,116,130,136
-46,114,160,-34,-103,137,172,297,128,146,165,167
-14,147,161,-66,-87,154,150,83,114,193,220,216
22,179,157,-100,-67,168,110,-212,76,243,277,272
68,209,141,-138,-36,175,61,-531,26,294,334,333
133,248,115,-190,9,181,3,-817,-10,354,404,406
223,299,76,-261,73,187,-78,-1067,-19,430,491,495
341,357,16,-349,162,186,-216,-1314,3,531,595,599
480,420,-60,-450,270,180,-404,-1562,51,656,718,720
632,489,-143,-560,387,173,-612,-1794,103,798,864,860
791,558,-233,-674,512,162,-831,-2024,145,946,1023,1009
957,617,-340,-787,648,138,-1072,-2290,165,1084,1179,1147
1134,627,-507,-880,820,60,-1301,-2536,181,1185,1301,1246
1323,537,-786,-930,1054,-124,-1455,-2641,227,1223,1351,1277
1480,390,-1090,-935,1285,-350,-1536,-2613,296,1207,1341,1258
1529,297,-1232,-913,1380,-467,-1594,-2561,349,1174,1319,1239
1447,266,-1181,-856,1314,-457,-1616,-2488,374,1122,1283,1213
1255,221,-1034,-738,1144,-406,-1540,-2319,382,1020,1190,1135
1002,148,-854,-575,928,-353,-1366,-2044,360,869,1036,996
752,75,-677,-413,714,-301,-1139,-1707,280,694,843,817
540,18,-522,-279,531,-252,-908,-1360,157,517,640,628
376,-20,-396,-178,386,-208,-717,-1054,40,354,454,459
252,-42,-294,-105,273,-168,-566,-797,-41,219,303,323
149,-52,-201,-48,175,-126,-418,-567,-79,122,193,220
66,-54,-120,-6,93,-87,-274,-361,-74,65,124,150
20,-49,-69,14,44,-59,-163,-191,-38,43,90,112
5,-41,-46,18,25,-43,-93,-64,10,41,79,99
4,-36,-40,16,22,-38,-50,23,50,43,76,93
4,-34,-38,15,21,-36,-23,83,74,40,74,85
0,-33,-33,16,16,-33,0,126,90,36,70,76
-7,-31,-24,19,8,-27,25,157,99,34,65,66
-9,-23,-14,16,2,-18,43,171,103,34,60,59
-5,-12,-7,8,1,-9,54,176,102,35,55,54
-1,-7,-6,4,2,-6,61,189,101,30,49,50
0,-8,-8,4,4,-8,66,210,101,22,44,44
0,-9,-9,4,4,-9,69,227,103,16,41,40
-2,-9,-7,5,2,-8,71,236,106,14,39,39
-5,-8,-3,6,-1,-5,76,241,107,14,38,39
-8,-7,1,7,-4,-3,84,243,107,14,35,39
-9,-12,-3,10,-3,-7,89,244,105,13,30,37
-9,-20,-11,14,1,-15,91,244,103,10,25,34
-8,-28,-20,18,6,-24,92,243,100,7,23,33
-8,-35,-27,21,9,-31,92,245,97,4,23,34
-10,-43,-33,26,11,-38,91,253,96,3,24,33
-13,-48,-35,30,11,-41,91,264,96,3,24,30
-14,-44,-30,29,8,-37,93,270,96,4,24,27
-14,-36,-22,25,4,-29,95,269,96,4,24,24
-12,-32,-20,22,4,-26,98,266,98,3,23,22
-9,-33,-24,21,7,-28,100,263,100,3,20,20
-8,-34,-26,21,9,-30,103,262,103,5,17,17
-8,-34,-26,21,9,-30,106,262,105,8,14,14
-8,-32,-24,20,8,-28,106,263,109,9,13,13
-8,-30,-22,19,7,-26,103,266,114,9,13,13
-9,-27,-18,18,4,-22,100,270,120,8,14,15
-12,-24,-12,18,0,-18,97,276,124,8,14,18
-15,-23,-8,19,-3,-15,96,279,126,9,13,18
-18,-23,-5,20,-6,-14,96,279,126,9,13,15
-19,-24,-5,21,-7,-14,97,274,124,9,14,12
-19,-23,-4,21,-7,-13,97,269,122,9,14,9
-17,-24,-7,20,-5,-15,97,268,121,8,13,8
-14,-24,-10,19,-2,-17,97,271,121,8,13,8
-13,-23,-10,18,-1,-16,96,273,121,9,14,9
-13,-20,-7,16,-3,-13,96,273,121,9,14,9
-14,-17,-3,15,-5,-10,97,273,122,7,13,8
-14,-14,0,14,-7,-7,100,273,124,4,10,8
-13,-13,0,13,-6,-6,103,271,127,3,6,9
-13,-13,0,13,-6,-6,106,268,130,3,4,9
-14,-14,0,14,-7,-7,107,268,131,4,4,7
-14,-14,0,14,-7,-7,107,271,131,3,7,4
-13,-13,0,13,-6,-6,106,274,130,4,9,3
-13,-13,0,13,-6,-6,106,277,130,4,9,4
-15,-15,0,15,-7,-7,107,278,132,2,7,3
-18,-18,0,18,-9,-9,107,279,135,0,4,1
-19,-19,0,19,-9,-9,105,275,135,0,3,-1
-19,-18,1,18,-10,-8,102,269,135,3,3,-3
-18,-19,-1,18,-8,-10,101,267,138,4,4,-5
-18,-22,-4,20,-7,-13,101,267,143,4,4,-7
-19,-25,-6,22,-6,-15,102,267,148,4,3,-10
-19,-28,-9,23,-5,-18,102,267,150,4,1,-13
-18,-29,-11,23,-3,-20,101,269,151,3,-1,-14
-18,-29,-11,23,-3,-20,101,272,151,0,-3,-14
-19,-28,-9,23,-5,-18,102,273,149,0,-4,-13
-19,-28,-9,23,-5,-18,102,272,146,0,-4,-13
-18,-30,-12,24,-3,-21,101,273,145,0,-3,-16
-18,-32,-14,25,-2,-23,101,276,145,0,-3,-21
-19,-35,-16,27,-1,-25,102,279,146,0,-4,-26
-19,-37,-18,28,0,-27,102,282,146,0,-4,-29
-18,-41,-23,29,2,-32,101,283,145,0,-3,-27
-18,-46,-28,32,5,-37,102,283,145,3,-3,-24
-20,-50,-30,35,5,-40,101,283,146,4,-5,-23
-23,-52,-29,37,3,-40,101,283,145,4,-7,-23
-24,-53,-29,38,2,-41,102,282,146,3,-9,-24
-24,-53,-29,38,2,-41,102,279,146,1,-9,-24
-23,-52,-29,37,3,-40,101,275,145,-1,-7,-23
-24,-52,-28,38,2,-40,101,273,145,-3,-4,-23
-23,-54,-31,38,4,-42,102,273,146,-4,-4,-25
-23,-60,-37,41,7,-48,102,276,146,-4,-7,-28
-25,-66,-41,45,8,-53,101,278,144,-3,-10,-29
-28,-72,-44,50,8,-58,101,278,141,-3,-13,-28
-29,-72,-43,50,7,-57,102,277,140,-4,-14,-29
-29,-69,-40,49,5,-54,102,278,140,-7,-14,-32
-28,-65,-37,46,4,-51,100,277,142,-11,-13,-35
-28,-63,-35,45,3,-49,97,277,145,-13,-13,-38
-29,-62,-33,45,2,-47,96,279,146,-13,-14,-39
-29,-63,-34,46,2,-48,96,281,146,-10,-14,-39
-27,-61,-34,44,3,-47,96,284,145,-8,-13,-38
-24,-58,-34,41,5,-46,96,286,145,-8,-14,-38
-23,-57,-34,40,5,-45,97,287,147,-9,-13,-39
-23,-57,-34,40,5,-45,100,290,150,-9,-13,-39
-24,-58,-34,41,5,-46,103,295,151,-8,-14,-38
-24,-58,-34,41,5,-46,106,300,151,-8,-14,-38
-23,-57,-34,40,5,-45,107,302,149,-9,-13,-39
-23,-57,-34,40,5,-45,106,301,147,-9,-13,-39
-25,-58,-33,41,4,-45,108,303,144,-8,-14,-38
-27,-58,-31,42,2,-44,110,309,141,-8,-17,-38
-30,-57,-27,43,-1,-42,113,314,139,-9,-20,-39
-32,-57,-25,44,-3,-41,113,316,139,-12,-23,-42
-35,-58,-23,46,-6,-40,109,317,143,-16,-24,-43
-38,-59,-21,48,-8,-40,103,316,149,-18,-24,-43
-38,-54,-16,46,-11,-35,101,317,150,-18,-22,-41
-35,-45,-10,40,-12,-27,101,317,147,-15,-19,-39
-33,-41,-8,37,-12,-24,102,315,144,-12,-19,-39
-33,-39,-6,36,-13,-22,102,313,142,-9,-22,-42
-34,-36,-2,35,-16,-19,101,310,139,-8,-24,-43
-33,-30,3,31,-18,-13,101,308,136,-8,-23,-43
-34,-27,7,30,-20,-10,102,303,135,-9,-24,-43
-34,-28,6,31,-20,-11,102,298,136,-9,-25,-43
-32,-30,2,31,-17,-14,99,296,134,-7,-20,-41
-29,-32,-3,30,-13,-17,91,297,131,-5,-11,-39
-28,-35,-7,31,-10,-21,80,293,130,-2,-7,-39
-28,-35,-7,31,-10,-21,70,283,128,0,-8,-39
-29,-30,-1,29,-14,-15,66,271,120,0,-8,-36
-29,-22,7,25,-18,-7,69,261,110,2,-5,-31
-27,-15,12,21,-19,-1,77,253,104,5,-2,-26
-24,-10,14,17,-19,2,85,246,102,8,0,-24
-23,-7,16,15,-19,4,86,240,99,9,1,-22
-23,-5,18,14,-20,6,80,236,94,8,3,-19
-24,-2,22,13,-23,10,75,231,88,10,4,-18
-23,0,23,11,-23,11,73,225,83,13,4,-18
-24,0,24,12,-24,12,72,221,79,14,3,-19
-24,-2,22,13,-23,10,72,216,75,14,3,-19
-22,-6,16,14,-19,5,73,209,69,13,5,-18
-19,-8,11,13,-15,1,73,199,61,13,8,-19
-18,-8,10,13,-14,1,71,189,53,13,9,-18
-18,-5,13,11,-15,4,65,182,45,13,9,-18
-19,-3,16,11,-17,6,59,177,40,14,8,-19
-18,-3,15,10,-16,6,53,172,38,14,9,-19
-19,-4,15,11,-17,5,53,164,39,13,8,-17
-19,-3,16,11,-17,6,57,154,41,10,8,-14
-17,-4,13,10,-15,4,57,148,44,7,10,-13
-14,-4,10,9,-12,3,54,146,44,4,13,-14
-13,-3,10,8,-11,3,52,144,39,3,14,-12
-13,0,13,6,-13,6,53,142,32,3,14,-10
-14,1,15,6,-14,8,52,139,26,4,13,-8
-14,1,15,6,-14,8,49,137,23,4,14,-8
-13,-2,11,7,-12,4,46,134,24,4,13,-9
-13,-10,3,11,-8,-3,47,131,27,4,10,-12
-14,-19,-5,16,-4,-12,50,130,30,3,5,-16
-14,-26,-12,20,-1,-19,55,130,33,1,-1,-21
-13,-29,-16,21,1,-22,61,132,34,-2,-7,-27
-10,-29,-19,19,4,-24,66,134,33,-9,-12,-32
-6,-29,-23,17,8,-26,69,137,34,-20,-15,-35
-3,-32,-29,17,13,-30,68,140,34,-30,-18,-38
-5,-35,-30,20,12,-32,66,141,31,-36,-20,-39
-11,-38,-27,24,8,-32,64,141,25,-38,-22,-41
-16,-39,-23,27,3,-31,61,141,22,-38,-25,-45
-18,-39,-21,28,1,-30,61,141,23,-38,-28,-51
-19,-38,-19,28,0,-28,65,140,24,-39,-28,-53
-19,-38,-19,28,0,-28,71,137,24,-41,-28,-52
-18,-40,-22,29,2,-31,74,134,23,-45,-30,-55
-18,-42,-24,30,3,-33,73,131,20,-51,-36,-60
-20,-43,-23,31,1,-33,72,130,16,-53,-42,-65
-22,-43,-21,32,0,-32,69,131,11,-53,-46,-67
-25,-43,-18,34,-3,-30,64,130,5,-53,-49,-69
-27,-43,-16,35,-5,-29,59,127,1,-56,-51,-72
-30,-42,-12,36,-9,-27,57,124,0,-61,-55,-73
-32,-42,-10,37,-11,-26,58,122,0,-66,-60,-76
-35,-45,-10,40,-12,-27,55,121,0,-68,-66,-81
-38,-50,-12,44,-13,-31,50,121,0,-68,-71,-89
-40,-55,-15,47,-12,-35,45,121,-2,-68,-73,-94
-41,-57,-16,49,-12,-36,43,121,-7,-71,-72,-96
-44,-58,-14,51,-15,-36,41,122,-9,-74,-75,-98
-47,-58,-11,52,-18,-34,39,125,-9,-77,-80,-101
-47,-56,-9,51,-19,-32,38,126,-9,-78,-82,-101
-44,-54,-10,49,-17,-32,38,126,-12,-80,-81,-101
-42,-51,-9,46,-16,-30,39,126,-16,-84,-82,-104
-42,-48,-6,45,-18,-27,41,126,-18,-90,-85,-109
-44,-47,-3,45,-20,-25,44,125,-18,-92,-87,-114
-47,-47,0,47,-23,-23,46,123,-15,-91,-87,-116
-48,-48,0,48,-24,-24,49,120,-12,-92,-86,-117
-48,-51,-3,49,-22,-27,51,117,-12,-95,-86,-116
-48,-55,-7,51,-20,-31,54,116,-16,-97,-87,-117
-48,-61,-13,54,-17,-37,57,116,-22,-97,-87,-117
-46,-64,-18,55,-14,-41,58,118,-25,-96,-86,-115
-43,-66,-23,54,-10,-44,57,120,-24,-96,-87,-113
-43,-71,-28,57,-7,-49,59,123,-22,-97,-86,-111
-46,-79,-33,62,-6,-56,62,124,-20,-97,-86,-111
-50,-83,-33,66,-8,-58,63,127,-17,-95,-87,-113
-52,-82,-30,67,-11,-56,63,130,-14,-93,-87,-116
-52,-81,-29,66,-11,-55,62,130,-14,-91,-86,-115
-49,-81,-32,65,-8,-56,62,127,-17,-91,-86,-109
-47,-83,-36,65,-5,-59,63,124,-21,-93,-88,-105
-47,-86,-39,66,-4,-62,63,122,-27,-96,-91,-103
-48,-87,-39,67,-4,-63,61,120,-30,-97,-90,-99
-48,-87,-39,67,-4,-63,58,117,-33,-97,-84,-94
-47,-87,-40,67,-3,-63,57,116,-35,-96,-79,-89
-47,-87,-40,67,-3,-63,57,117,-38,-96,-78,-87
-48,-85,-37,66,-5,-61,58,116,-39,-97,-77,-86
-48,-83,-35,65,-6,-59,58,113,-39,-96,-78,-86
-47,-80,-33,63,-7,-56,58,110,-38,-97,-77,-86
-47,-79,-32,63,-7,-55,58,108,-38,-97,-77,-86
-48,-76,-28,62,-10,-52,57,105,-39,-96,-78,-87
-48,-70,-22,59,-13,-46,57,102,-39,-93,-78,-87
-47,-63,-16,55,-15,-39,59,101,-36,-88,-76,-85
-47,-56,-9,51,-19,-32,62,101,-31,-81,-70,-80
-48,-49,-1,48,-23,-25,63,102,-27,-74,-64,-75
-48,-44,4,46,-26,-20,65,105,-25,-69,-59,-73
-47,-41,6,44,-26,-17,73,109,-21,-67,-56,-73
-47,-39,8,43,-27,-15,86,114,-15,-67,-53,-74
-48,-37,11,42,-29,-13,98,118,-13,-68,-52,-70
-48,-35,13,41,-30,-11,108,121,-13,-68,-50,-61
-46,-32,14,39,-30,-9,115,122,-13,-66,-44,-54
-43,-29,14,36,-28,-7,120,122,-13,-63,-36,-49
-42,-28,14,35,-28,-7,123,119,-15,-62,-32,-47
-42,-28,14,35,-28,-7,125,114,-21,-63,-33,-47
-43,-29,14,36,-28,-7,127,109,-26,-62,-34,-48
-43,-30,13,36,-28,-8,127,104,-29,-59,-34,-48
-41,-25,16,33,-28,-4,122,98,-27,-56,-31,-48
-36,-17,19,26,-27,1,109,91,-24,-54,-26,-48
-30,-11,19,20,-24,4,91,81,-24,-50,-22,-47
-25,-10,15,17,-20,2,70,71,-27,-45,-19,-44
-21,-6,15,13,-18,4,54,65,-30,-39,-17,-40
-19,0,19,9,-19,9,41,61,-32,-32,-15,-35
-18,9,27,4,-22,18,22,51,-35,-25,-12,-33
-19,17,36,1,-27,26,-2,35,-40,-19,-9,-34
-18,19,37,0,-27,28,-27,21,-47,-19,-8,-33
-15,18,33,-1,-24,25,-47,12,-55,-22,-9,-30
-11,21,32,-5,-21,26,-55,5,-59,-25,-8,-27
-4,29,33,-12,-18,31,-53,1,-59,-25,-5,-25
7,38,31,-22,-12,34,-53,0,-55,-20,0,-20
22,45,23,-33,0,34,-56,0,-50,-11,5,-12
35,50,15,-42,10,32,-59,0,-44,-7,12,-4
41,55,14,-48,13,34,-59,1,-40,-8,17,2
43,61,18,-52,12,39,-54,8,-38,-9,19,4
42,66,24,-54,9,45,-45,16,-38,-9,19,4
44,68,24,-56,10,46,-40,19,-39,-8,17,4
46,63,17,-54,14,40,-37,18,-41,-10,12,2
34,48,14,-41,10,31,-27,22,-45,-19,3,-5
12,25,13,-18,0,19,-10,30,-51,-33,-9,-18
-2,1,3,0,-2,2,2,36,-53,-43,-18,-27
-7,-17,-10,12,1,-13,10,37,-53,-47,-23,-29
-11,-28,-17,19,3,-22,17,42,-52,-47,-23,-27
-16,-32,-16,24,0,-24,25,49,-52,-46,-23,-24
-21,-35,-14,28,-3,-24,32,55,-53,-51,-25,-24
-23,-40,-17,31,-3,-28,39,57,-55,-59,-31,-27
-24,-46,-22,35,-1,-34,46,58,-61,-65,-36,-29
-24,-54,-30,39,3,-42,51,58,-69,-66,-38,-28
-23,-62,-39,42,8,-50,53,58,-75,-70,-39,-30
-23,-70,-47,46,12,-58,53,58,-77,-76,-39,-33
-25,-74,-49,49,12,-61,53,57,-78,-78,-38,-33
-27,-73,-46,50,9,-59,56,57,-78,-78,-38,-30
-29,-72,-43,50,7,-57,60,59,-76,-78,-39,-27
-29,-72,-43,50,7,-57,62,62,-73,-78,-39,-24
-27,-73,-46,50,9,-59,62,61,-72,-76,-38,-23
-24,-72,-48,48,12,-60,58,56,-72,-73,-38,-23
-23,-73,-50,48,13,-61,57,49,-72,-72,-39,-23
-23,-73,-50,48,13,-61,58,44,-72,-73,-38,-23
-24,-72,-48,48,12,-60,56,42,-73,-72,-39,-24
-24,-69,-45,46,10,-57,50,42,-76,-69,-39,-27
-23,-65,-42,44,9,-53,44,43,-79,-66,-38,-30
-23,-60,-37,41,7,-48,39,43,-81,-64,-38,-33
-24,-56,-32,40,4,-44,39,42,-82,-61,-39,-34
-24,-53,-29,38,2,-41,41,39,-82,-59,-39,-34
-23,-51,-28,37,2,-39,43,38,-82,-56,-38,-33
-23,-49,-26,36,1,-37,43,38,-82,-53,-38,-33
-24,-46,-22,35,-1,-34,42,39,-81,-52,-39,-33
-24,-43,-19,33,-2,-31,42,39,-78,-53,-39,-33
-23,-42,-19,32,-2,-30,43,38,-77,-52,-37,-34
-23,-43,-20,33,-1,-31,43,38,-77,-49,-34,-34
-24,-42,-18,33,-3,-30,42,39,-78,-46,-33,-32
-24,-40,-16,32,-4,-28,43,42,-81,-44,-33,-29
-23,-37,-14,30,-4,-25,42,43,-82,-41,-34,-28
-23,-34,-11,28,-6,-22,42,43,-82,-39,-34,-28
-24,-34,-10,29,-7,-22,43,42,-80,-38,-32,-29
-24,-37,-13,30,-5,-25,43,42,-75,-38,-30,-28
-23,-40,-17,31,-3,-28,42,43,-70,-39,-27,-29
-23,-41,-18,32,-2,-29,42,43,-68,-39,-25,-29
-24,-45,-21,34,-1,-33,43,42,-68,-39,-21,-27
-24,-50,-26,37,1,-38,46,42,-68,-39,-16,-21
-23,-55,-32,39,4,-43,49,43,-66,-38,-11,-15
-23,-60,-37,41,7,-48,51,43,-63,-38,-9,-10
-24,-66,-42,45,9,-54,54,41,-63,-39,-9,-8
-27,-71,-44,49,8,-57,56,41,-66,-41,-12,-8
-31,-73,-42,52,5,-57,60,47,-69,-44,-14,-9
-39,-68,-29,53,-5,-48,65,60,-69,-47,-14,-9
-47,-53,-6,50,-20,-29,70,76,-65,-47,-13,-7
-55,-31,24,43,-39,-3,77,93,-57,-43,-11,-3
-59,-4,55,31,-57,25,88,114,-47,-31,-5,4
-63,19,82,22,-72,50,108,160,-32,-14,1,11
-75,37,112,19,-93,74,140,263,-11,-5,5,15
-89,50,139,19,-114,94,174,375,11,1,13,20
-89,70,159,9,-124,114,188,374,22,24,43,45
-70,98,168,-14,-119,133,176,220,11,65,92,89
-41,126,167,-42,-104,146,147,-49,-29,111,144,138
0,154,154,-77,-77,154,108,-373,-87,160,196,191
58,190,132,-124,-37,161,60,-666,-134,216,259,254
142,236,94,-189,24,165,-9,-914,-153,288,339,335
252,296,44,-274,104,170,-130,-1167,-138,387,444,438
383,366,-17,-374,200,174,-296,-1430,-96,512,572,564
523,438,-85,-480,304,176,-476,-1670,-46,649,719,706
674,511,-163,-592,418,174,-673,-1908,-8,796,880,858
846,584,-262,-715,554,161,-918,-2210,1,952,1056,1017
1040,622,-418,-831,729,102,-1180,-2528,-3,1096,1217,1158
1248,565,-683,-906,965,-59,-1372,-2717,14,1182,1313,1237
1425,441,-984,-933,1204,-271,-1482,-2759,62,1206,1340,1256
1503,351,-1152,-927,1327,-400,-1566,-2751,112,1197,1342,1262
1458,314,-1144,-886,1301,-415,-1621,-2712,149,1162,1324,1258
1308,268,-1040,-788,1174,-386,-1587,-2589,168,1084,1259,1211
1089,194,-895,-641,992,-350,-1448,-2358,155,955,1131,1099
845,113,-732,-479,788,-309,-1236,-2027,87,776,938,920
615,41,-574,-328,594,-266,-1001,-1647,-21,569,706,700
430,-12,-442,-209,436,-227,-805,-1302,-125,370,487,495
293,-47,-340,-123,316,-193,-654,-1017,-197,206,310,331
180,-66,-246,-57,213,-156,-500,-766,-232,91,181,206
85,-72,-157,-6,121,-114,-339,-541,-230,23,95,117
26,-72,-98,23,62,-85,-208,-352,-198,-10,43,59
0,-69,-69,34,34,-69,-120,-205,-149,-22,15,27
-6,-66,-60,36,27,-63,-66,-100,-102,-25,5,13
-7,-63,-56,35,24,-59,-33,-27,-66,-27,4,10
-13,-62,-49,37,18,-55,-1,29,-38,-31,2,6
-24,-60,-36,42,6,-48,30,73,-19,-34,-1,-1
-31,-54,-23,42,-4,-38,54,94,-11,-31,-5,-6
-30,-48,-18,39,-6,-33,68,98,-12,-26,-8,-8
-28,-49,-21,38,-3,-35,77,109,-14,-23,-10,-9
-28,-55,-27,41,0,-41,84,131,-14,-26,-12,-12
-30,-59,-29,44,0,-44,88,149,-12,-32,-15,-15
-32,-58,-26,45,-3,-42,90,158,-9,-39,-17,-18
-35,-58,-23,46,-6,-40,95,162,-8,-46,-19,-18
-38,-58,-20,48,-9,-39,104,164,-8,-51,-22,-18
-39,-55,-16,47,-11,-35,107,165,-9,-53,-26,-20
-39,-45,-6,42,-16,-25,104,165,-8,-53,-32,-26
-38,-31,7,34,-22,-12,98,164,-9,-52,-34,-31
-38,-20,18,29,-28,-1,93,167,-9,-52,-34,-33
-39,-22,17,30,-28,-2,90,175,-8,-53,-33,-34
-42,-34,8,38,-25,-13,90,186,-5,-53,-33,-34
-43,-40,3,41,-23,-18,93,192,-2,-52,-34,-33
-43,-36,7,39,-25,-14,96,191,0,-52,-34,-33
-41,-32,9,36,-25,-11,95,188,0,-53,-33,-34
-39,-33,6,36,-22,-13,90,185,2,-53,-33,-34
-38,-34,4,36,-21,-15,83,184,5,-51,-34,-33
-39,-34,5,36,-22,-14,78,185,8,-49,-34,-33
-38,-33,5,35,-21,-14,78,184,9,-47,-33,-34
-35,-30,5,32,-20,-12,80,181,9,-47,-30,-34
-33,-27,6,30,-19,-10,83,178,8,-48,-27,-32
-33,-24,9,28,-21,-7,85,178,8,-48,-24,-30
-35,-24,11,29,-23,-6,88,182,10,-47,-23,-28
-37,-27,10,32,-23,-8,90,188,13,-47,-23,-28
-39,-30,9,34,-24,-10,93,190,14,-48,-24,-29
-39,-33,6,36,-22,-13,96,190,14,-48,-24,-29
-37,-34,3,35,-20,-15,97,190,13,-47,-23,-28
-34,-34,0,34,-17,-17,97,193,14,-44,-23,-25
-33,-33,0,33,-16,-16,96,195,13,-41,-24,-22
-33,-30,3,31,-18,-13,96,195,13,-39,-24,-19
-34,-27,7,30,-20,-10,97,195,14,-39,-23,-18
-34,-24,10,29,-22,-7,97,195,17,-39,-23,-18
-33,-24,9,28,-21,-7,96,193,20,-37,-24,-18
-33,-24,9,28,-21,-7,96,191,23,-35,-24,-18
-34,-22,12,28,-23,-5,97,189,24,-33,-22,-20
-37,-17,20,27,-28,1,97,189,24,-33,-20,-22
-40,-10,30,25,-35,10,96,189,23,-33,-18,-24
-42,-4,38,23,-40,17,96,189,23,-33,-18,-24
-43,-5,38,24,-40,16,97,190,25,-34,-19,-23
-43,-11,32,27,-37,10,97,190,28,-34,-19,-23
-42,-16,26,29,-34,5,95,187,29,-31,-17,-24
-39,-18,21,28,-30,1,93,182,29,-26,-15,-24
-38,-19,19,28,-28,0,91,179,29,-23,-13,-23
-38,-19,19,28,-28,0,91,179,29,-23,-13,-24
-39,-19,20,29,-29,0,92,179,27,-23,-14,-23
-39,-19,20,29,-29,0,92,179,24,-23,-17,-23
-38,-18,20,28,-29,1,91,181,25,-25,-20,-24
-38,-15,23,26,-30,4,91,183,31,-27,-23,-24
-39,-12,27,25,-33,7,92,185,36,-29,-24,-23
-39,-9,30,24,-34,10,92,185,38,-29,-24,-23
-38,-9,29,23,-33,10,91,184,39,-28,-23,-25
-38,-12,26,25,-32,7,91,184,39,-28,-23,-27
-39,-15,24,27,-31,4,92,185,38,-29,-24,-29
-39,-18,21,28,-30,1,92,185,38,-29,-24,-29
-37,-19,18,28,-27,0,90,184,39,-27,-23,-27
-34,-19,15,26,-24,-2,84,185,39,-25,-23,-24
-33,-17,16,25,-24,0,79,184,38,-23,-24,-23
-34,-14,20,24,-27,3,74,184,38,-23,-27,-23
-33,-13,20,23,-26,3,71,185,39,-24,-30,-24
-30,-13,17,21,-23,2,69,185,39,-27,-33,-24
-27,-14,13,20,-20,0,66,184,38,-30,-34,-23
-24,-14,10,19,-17,-2,63,184,38,-33,-34,-23
-23,-14,9,18,-16,-2,63,186,39,-34,-33,-25
-23,-14,9,18,-16,-2,66,188,42,-34,-33,-31
-25,-13,12,19,-18,0,69,190,43,-33,-34,-36
-27,-13,14,20,-20,0,71,190,43,-33,-34,-38
-30,-14,16,22,-23,1,74,189,42,-34,-33,-39
-32,-17,15,24,-23,-1,77,190,39,-37,-33,-39
-35,-20,15,27,-25,-2,78,189,38,-40,-34,-38
-38,-23,15,30,-26,-4,78,189,38,-42,-34,-38
-39,-24,15,31,-27,-4,77,190,39,-42,-33,-39
-39,-24,15,31,-27,-4,77,193,39,-39,-33,-39
-37,-22,15,29,-26,-3,78,196,38,-38,-34,-38
-34,-20,14,27,-24,-3,78,199,38,-38,-34,-38
-33,-17,16,25,-24,0,77,200,40,-39,-33,-39
-33,-15,18,24,-25,1,77,199,45,-38,-33,-39
-33,-12,21,22,-27,4,78,200,50,-39,-34,-38
-33,-9,24,21,-28,7,78,203,52,-39,-34,-38
-34,-8,26,21,-30,9,77,203,52,-38,-32,-39
-37,-8,29,22,-33,10,77,203,49,-35,-30,-39
-41,-8,33,24,-37,12,78,205,46,-32,-28,-38
-46,-8,38,27,-42,15,79,211,44,-29,-28,-38
-48,-9,39,28,-43,15,85,216,42,-28,-30,-39
-48,-12,36,30,-42,12,93,218,41,-28,-32,-42
-48,-16,32,32,-40,8,100,219,45,-29,-34,-43
-48,-19,29,33,-38,5,102,218,50,-29,-34,-43
-46,-16,30,31,-38,7,99,219,53,-28,-32,-41
-41,-7,34,24,-37,13,91,219,53,-25,-29,-39
-36,-2,34,19,-35,16,82,217,53,-22,-29,-39
-34,-1,33,17,-33,16,75,214,53,-19,-32,-42
-33,2,35,15,-34,18,71,213,51,-18,-34,-43
-33,10,43,11,-38,26,72,214,48,-18,-33,-43
-34,16,50,9,-42,33,73,212,47,-19,-34,-43
-34,18,52,8,-43,35,73,209,48,-19,-35,-43
-33,19,52,7,-42,35,72,209,47,-18,-30,-42
-33,18,51,7,-42,34,69,210,44,-15,-21,-39
-35,19,54,8,-44,36,65,205,42,-12,-17,-39
-37,21,58,8,-47,39,60,195,41,-10,-18,-39
-39,27,66,6,-52,46,55,185,35,-7,-17,-37
-39,35,74,2,-56,54,52,177,26,-5,-12,-31
-37,42,79,-2,-58,60,54,172,22,-2,-6,-27
-34,47,81,-6,-57,64,58,167,23,0,-1,-24
-33,47,80,-7,-56,63,55,162,23,0,1,-22
-33,44,77,-5,-55,60,47,158,20,0,3,-19
-33,41,74,-4,-53,57,39,153,17,0,4,-18
-33,39,72,-3,-52,55,35,148,15,3,4,-18
-35,38,73,-1,-54,55,31,143,11,4,3,-19
-37,35,72,1,-54,53,26,139,6,4,0,-19
-39,32,71,3,-55,51,20,131,0,3,0,-18
-39,29,68,5,-53,48,15,121,-5,3,0,-19
-38,29,67,4,-52,48,13,112,-13,4,0,-18
-38,32,70,3,-54,51,13,104,-20,4,0,-18
-38,34,72,2,-55,53,13,99,-26,3,0,-19
-38,34,72,2,-55,53,12,94,-28,3,0,-19
-39,33,72,3,-55,52,17,88,-29,4,0,-17
-39,33,72,3,-55,52,25,80,-28,3,0,-14
-37,34,71,1,-54,52,31,76,-29,4,0,-13
-35,33,68,1,-51,50,33,77,-32,4,3,-14
-33,34,67,0,-50,50,35,78,-36,3,4,-13
-33,34,67,0,-50,50,40,78,-41,3,4,-10
-34,33,67,0,-50,50,45,78,-43,4,3,-8
-34,31,65,1,-49,48,48,78,-43,4,4,-8
-33,25,58,4,-45,41,45,76,-42,3,3,-9
-33,18,51,7,-42,34,37,74,-40,1,1,-12
-33,10,43,11,-38,26,30,72,-37,-2,-2,-16
-33,3,36,15,-34,19,28,72,-34,-6,-10,-21
-34,-3,31,18,-32,14,31,73,-33,-10,-17,-26
-34,-9,25,21,-29,8,36,73,-34,-12,-22,-31
-33,-19,14,26,-23,-2,39,72,-33,-15,-25,-35
-33,-29,4,31,-18,-12,39,72,-33,-20,-28,-38
-35,-36,-1,35,-17,-18,39,73,-35,-27,-29,-39
-40,-38,2,39,-21,-18,41,73,-41,-35,-29,-38
-45,-39,6,42,-25,-16,45,72,-43,-42,-29,-39
-47,-39,8,43,-27,-15,50,72,-43,-46,-29,-42
-46,-38,8,42,-27,-15,56,73,-42,-48,-28,-42
-42,-38,4,40,-23,-17,61,76,-42,-47,-28,-42
-35,-39,-4,37,-15,-21,63,79,-44,-48,-30,-44
-29,-42,-13,35,-8,-27,62,81,-46,-51,-35,-50
-29,-43,-14,36,-7,-28,63,82,-48,-54,-42,-55
-35,-43,-8,39,-13,-25,66,82,-48,-56,-49,-60
-42,-42,0,42,-21,-21,68,81,-47,-59,-56,-66
-46,-42,4,44,-25,-19,68,79,-47,-65,-61,-71
-48,-43,5,45,-26,-19,68,76,-48,-71,-64,-73
-48,-45,3,46,-25,-21,68,73,-51,-76,-66,-72
-47,-51,-4,49,-21,-27,66,72,-54,-78,-69,-74
-47,-59,-12,53,-17,-35,61,72,-56,-78,-72,-79
-48,-65,-17,56,-15,-41,54,72,-60,-78,-72,-82
-51,-67,-16,59,-17,-41,47,72,-66,-80,-68,-82
-54,-67,-13,60,-20,-40,38,74,-68,-83,-68,-81
-57,-67,-10,62,-23,-38,30,76,-68,-86,-71,-82
-57,-68,-11,62,-23,-39,29,78,-67,-87,-73,-81
-54,-71,-17,62,-18,-44,35,78,-67,-86,-72,-81
-52,-74,-22,63,-15,-48,43,77,-68,-88,-73,-83
-52,-77,-25,64,-13,-51,50,77,-68,-90,-76,-89
-54,-77,-23,65,-15,-50,54,78,-67,-92,-78,-94
-57,-74,-17,65,-20,-45,57,80,-64,-91,-78,-96
-58,-72,-14,65,-22,-43,59,83,-61,-92,-77,-97
-58,-72,-14,65,-22,-43,61,86,-61,-95,-77,-96
-58,-73,-15,65,-21,-44,64,87,-65,-97,-78,-97
-58,-73,-15,65,-21,-44,67,86,-70,-97,-78,-97
-56,-71,-15,63,-20,-43,68,88,-74,-96,-77,-95
-53,-67,-14,60,-19,-40,67,91,-73,-96,-77,-92
-53,-69,-16,61,-18,-42,68,91,-71,-97,-78,-92
-56,-76,-20,66,-18,-48,71,88,-69,-97,-80,-94
-59,-78,-19,68,-20,-48,73,85,-66,-96,-83,-99
-62,-74,-12,68,-25,-43,74,83,-63,-93,-86,-105
-63,-71,-8,67,-27,-39,70,80,-62,-90,-86,-107
-62,-72,-10,67,-26,-41,65,75,-62,-87,-83,-107
-63,-74,-11,68,-26,-42,61,71,-64,-86,-80,-106
-66,-77,-11,71,-27,-44,58,68,-66,-86,-78,-106
-68,-78,-10,73,-29,-44,57,67,-68,-87,-77,-106
-68,-78,-10,73,-29,-44,57,68,-68,-86,-77,-106
-67,-77,-10,72,-28,-43,58,67,-68,-87,-78,-107
-67,-77,-10,72,-28,-43,58,67,-68,-87,-78,-107
-68,-78,-10,73,-29,-44,57,69,-67,-86,-77,-105
-68,-79,-11,73,-28,-45,57,72,-64,-83,-74,-100
-67,-75,-8,71,-29,-41,58,72,-61,-80,-71,-94
-67,-67,0,67,-33,-33,61,69,-59,-78,-69,-88
-67,-59,8,63,-37,-25,64,66,-56,-77,-67,-85
-67,-54,13,60,-40,-20,66,66,-54,-75,-64,-83
-68,-51,17,59,-42,-17,69,70,-50,-69,-60,-79
-68,-49,19,58,-43,-15,74,75,-45,-61,-55,-74
-67,-47,20,57,-43,-13,83,79,-40,-56,-51,-72
-67,-44,23,55,-45,-10,95,81,-35,-57,-52,-73
-68,-40,28,54,-48,-6,107,82,-33,-58,-53,-72
-68,-36,32,52,-50,-2,118,82,-33,-58,-54,-69
-66,-32,34,49,-50,1,125,81,-33,-56,-50,-67
-64,-29,35,46,-49,3,129,79,-33,-53,-45,-67
-62,-28,34,45,-48,3,132,76,-34,-52,-41,-68
-62,-28,34,45,-48,3,135,73,-37,-53,-42,-68
-62,-28,34,45,-48,3,136,73,-40,-52,-43,-67
-60,-26,34,43,-47,4,134,73,-40,-49,-43,-64
-54,-20,34,37,-44,7,126,70,-36,-46,-41,-60
-46,-11,35,28,-40,12,111,63,-31,-44,-36,-55
-40,-8,32,24,-36,12,92,52,-28,-40,-32,-50
-35,-8,27,21,-31,9,71,42,-28,-36,-29,-45
-32,-7,25,19,-28,9,55,36,-29,-32,-27,-40
-29,-3,26,16,-27,11,42,32,-29,-30,-25,-35
-28,3,31,12,-29,17,23,23,-29,-27,-22,-33
-29,7,36,11,-32,21,0,7,-31,-25,-19,-34
-28,8,36,10,-32,22,-26,-5,-37,-23,-18,-33
-26,8,34,9,-30,21,-46,-12,-45,-23,-19,-30
-21,11,32,5,-26,21,-55,-14,-49,-24,-17,-27
-14,19,33,-2,-23,26,-54,-14,-48,-25,-12,-25
-3,27,30,-12,-16,28,-52,-12,-47,-20,-5,-22
8,32,24,-20,-8,28,-52,-10,-44,-12,1,-20
18,35,17,-26,0,26,-52,-8,-41,-7,5,-17
23,37,14,-30,4,25,-50,-6,-36,-8,8,-14
23,39,16,-31,3,27,-44,0,-32,-9,9,-13
23,40,17,-31,3,28,-37,6,-29,-9,9,-13
25,36,11,-30,7,23,-31,9,-29,-8,7,-13
27,29,2,-28,12,15,-27,8,-31,-11,3,-15
16,18,2,-17,7,10,-18,10,-36,-18,-4,-24
-4,5,9,0,-6,7,-6,16,-41,-29,-14,-37
-20,-4,16,12,-18,6,4,19,-43,-37,-21,-46
-26,-12,14,19,-20,1,11,18,-43,-39,-24,-48
-31,-14,17,22,-24,1,16,20,-42,-38,-23,-47
-36,-13,23,24,-29,5,21,26,-42,-37,-23,-46
-40,-15,25,27,-32,5,25,29,-43,-41,-25,-50
-42,-20,22,31,-32,1,27,29,-46,-50,-31,-56
-43,-26,17,34,-30,-4,30,28,-50,-54,-35,-58
-43,-31,12,37,-27,-9,33,29,-55,-53,-38,-57
-42,-36,6,39,-24,-15,34,28,-59,-53,-39,-59
-42,-41,1,41,-21,-20,34,25,-61,-56,-41,-65
-43,-43,0,43,-21,-21,33,22,-64,-58,-44,-70
-46,-43,3,44,-24,-20,33,19,-67,-57,-47,-72
-48,-42,6,45,-27,-18,34,19,-67,-58,-48,-73
-48,-42,6,45,-27,-18,34,22,-64,-61,-48,-73
-46,-42,4,44,-25,-19,32,24,-62,-63,-47,-72
-43,-42,1,42,-22,-20,30,24,-62,-63,-47,-72
-43,-43,0,43,-21,-21,28,23,-63,-62,-48,-73
-46,-46,0,46,-23,-23,28,23,-63,-62,-48,-73
-49,-49,0,49,-24,-24,29,23,-62,-63,-47,-72
-52,-52,0,52,-26,-26,29,23,-62,-63,-47,-72
-53,-52,1,52,-27,-25,28,24,-63,-62,-48,-73
-53,-49,4,51,-28,-22,28,24,-63,-62,-47,-73
-52,-47,5,49,-28,-21,30,22,-62,-63,-48,-72
-52,-47,5,49,-28,-21,32,20,-62,-63,-48,-72
-53,-47,6,50,-29,-20,34,18,-64,-62,-47,-73
-53,-45,8,49,-30,-18,34,18,-66,-62,-47,-76
-52,-40,12,46,-32,-14,34,19,-68,-63,-48,-79
-52,-36,16,44,-34,-10,34,19,-68,-63,-48,-81
-53,-32,21,42,-37,-5,33,17,-67,-62,-47,-82
-53,-30,23,41,-38,-3,30,15,-67,-62,-47,-82
-52,-27,25,39,-38,-1,27,13,-68,-64,-49,-81
-52,-22,30,37,-41,4,24,13,-71,-66,-51,-78
-53,-15,38,34,-45,11,23,14,-74,-68,-53,-77
-53,-7,46,30,-49,19,23,14,-76,-68,-53,-77
-52,-1,51,26,-51,25,24,13,-78,-67,-52,-78
-52,2,54,25,-53,28,24,13,-80,-67,-52,-78
-53,4,57,24,-55,30,23,14,-83,-68,-54,-77
-53,4,57,24,-55,30,23,14,-85,-71,-56,-77
-52,3,55,24,-53,29,24,13,-87,-74,-58,-77
-52,4,56,24,-54,30,24,13,-87,-77,-58,-77
-53,3,56,25,-54,29,23,14,-85,-78,-57,-78
-56,1,57,27,-56,29,23,14,-83,-78,-57,-78
-59,-1,58,30,-58,28,24,12,-81,-77,-58,-77
-64,-4,60,34,-62,28,27,12,-81,-77,-61,-77
-71,-2,69,36,-70,33,29,18,-81,-78,-63,-79
-78,6,84,36,-81,45,30,31,-80,-78,-64,-81
-85,22,107,31,-96,64,27,45,-75,-76,-60,-81
-93,44,137,24,-115,90,28,61,-67,-69,-53,-76
-99,70,169,14,-134,119,44,87,-58,-55,-42,-68
-104,95,199,4,-151,147,77,130,-46,-38,-30,-58
-109,116,225,-3,-167,170,114,191,-30,-21,-17,-46
-110,134,244,-12,-177,189,142,222,-15,-1,1,-26
-99,159,258,-30,-178,208,140,130,-18,33,41,13
-72,191,263,-59,-167,227,105,-99,-43,86,101,72
-32,224,256,-96,-144,240,50,-400,-82,144,166,138
21,259,238,-140,-108,248,-15,-711,-124,206,232,207
96,308,212,-202,-58,260,-88,-988,-151,281,314,289
194,372,178,-283,8,275,-179,-1227,-154,374,414,388
310,443,133,-376,88,288,-315,-1467,-131,482,528,496
444,517,73,-480,185,295,-498,-1717,-88,608,657,616
596,591,-5,-593,300,293,-704,-1953,-39,756,814,759
757,662,-95,-709,426,283,-918,-2180,1,917,991,919
909,724,-185,-816,547,269,-1139,-2430,19,1069,1159,1067
1051,743,-308,-897,679,217,-1344,-2662,26,1185,1285,1174
1197,664,-533,-930,865,65,-1485,-2761,60,1232,1333,1213
1322,514,-808,-918,1065,-147,-1556,-2719,119,1215,1312,1194
1356,410,-946,-883,1151,-268,-1600,-2645,160,1175,1278,1170
1267,374,-893,-820,1080,-259,-1605,-2557,165,1117,1236,1141
1070,327,-743,-698,906,-208,-1509,-2377,154,1007,1138,1056
812,240,-572,-526,692,-166,-1312,-2088,126,840,972,902
569,147,-422,-358,495,-137,-1079,-1746,59,649,769,712
381,72,-309,-226,345,-118,-861,-1402,-39,457,558,516
241,23,-218,-132,229,-97,-681,-1095,-132,279,364,338
138,-1,-139,-68,138,-70,-538,-838,-195,127,204,190
52,-13,-65,-19,58,-39,-403,-613,-220,15,84,75
-15,-18,-3,16,-6,-10,-272,-415,-208,-53,6,-5
-50,-17,33,33,-41,8,-171,-256,-167,-80,-33,-50
-52,-12,40,32,-46,14,-104,-139,-113,-78,-46,-65
-44,-6,38,25,-41,16,-57,-56,-68,-69,-48,-69
-41,-3,38,22,-39,17,-19,0,-42,-67,-51,-74
-45,-4,41,24,-43,18,7,41,-29,-69,-55,-81
-54,-8,46,31,-50,19,27,69,-24,-72,-60,-88
-59,-8,51,33,-55,21,38,81,-23,-72,-64,-93
-58,-7,51,32,-54,22,45,83,-23,-71,-66,-95
-58,-11,47,34,-52,18,50,93,-24,-76,-69,-98
-60,-19,41,39,-50,11,55,112,-24,-86,-75,-103
-65,-26,39,45,-52,6,59,128,-22,-95,-80,-109
-70,-28,42,49,-56,7,60,138,-19,-100,-85,-114
-74,-29,45,51,-59,8,66,142,-19,-102,-88,-118
-77,-29,48,53,-62,9,74,145,-22,-102,-90,-120
-78,-28,50,53,-64,11,80,146,-25,-100,-92,-123
-78,-28,50,53,-64,11,81,146,-28,-97,-93,-125
-76,-29,47,52,-61,9,82,146,-29,-96,-89,-125
-74,-31,43,52,-58,6,82,148,-29,-99,-84,-123
