I,II,III,aVR,aVL,aVF,V1,V2,V3,V4,V5,V6
29,58,29,-43,0,43,-58,39,273,165,97,78
28,57,29,-42,0,43,-60,38,272,164,96,77
28,57,29,-42,0,43,-62,38,272,164,96,77
29,58,29,-43,0,43,-65,39,273,165,97,78
29,58,29,-43,0,43,-67,39,273,165,97,78
28,57,29,-42,0,43,-68,38,272,163,96,77
28,57,29,-42,0,43,-68,38,272,161,96,77
29,58,29,-43,0,43,-67,39,273,158,97,78
29,58,29,-43,0,43,-67,39,273,156,97,78
28,57,29,-42,0,43,-70,37,270,155,95,76
28,57,29,-42,0,43,-72,34,268,155,92,73
29,58,29,-43,0,43,-75,31,265,156,89,70
29,58,29,-43,0,43,-77,29,263,156,87,68
28,57,29,-42,0,43,-79,28,258,153,86,67
28,57,29,-42,0,43,-81,28,253,151,86,67
29,58,29,-43,0,43,-84,29,247,148,87,68
29,58,29,-43,0,43,-86,29,244,146,87,68
28,57,29,-42,0,43,-87,28,243,145,86,67
28,57,29,-42,0,43,-87,28,243,145,86,67
29,58,29,-43,0,43,-86,29,244,146,87,68
29,58,29,-43,0,43,-86,29,244,146,87,68
28,57,29,-42,0,43,-86,28,241,145,84,67
28,57,29,-42,0,43,-86,28,239,145,82,67
29,58,29,-43,0,43,-87,29,236,146,79,68
29,58,29,-43,0,43,-87,29,234,146,78,68
28,55,27,-41,0,41,-84,28,231,145,77,67
28,53,25,-40,1,39,-82,28,229,145,77,67
29,50,21,-39,4,35,-79,29,226,146,78,68
29,48,19,-38,5,33,-78,29,224,146,78,68
28,45,17,-36,5,31,-77,28,221,141,77,65
28,43,15,-35,6,29,-77,28,219,136,77,63
29,40,11,-34,9,25,-78,29,217,131,79,60
29,39,10,-34,9,24,-78,29,214,126,78,58
27,36,9,-31,9,22,-77,27,205,119,71,53
24,34,10,-29,7,22,-77,24,195,112,63,48
21,31,10,-26,5,20,-78,21,184,104,54,43
19,29,10,-24,4,19,-78,19,175,97,48,39
18,28,10,-23,4,19,-77,18,167,91,43,36
18,28,10,-23,4,19,-77,18,161,87,39,34
19,29,10,-24,4,19,-78,19,154,83,34,31
19,29,10,-24,4,19,-78,19,146,78,29,29
14,26,12,-20,1,19,-76,18,136,68,21,24
9,24,15,-16,-3,19,-73,18,126,58,14,19
3,21,18,-12,-7,19,-70,19,116,48,6,13
0,19,19,-9,-9,19,-68,19,107,39,0,9
-2,14,16,-6,-9,15,-67,18,97,29,-4,4
-3,9,12,-3,-7,10,-67,18,87,19,-8,0
-6,3,9,1,-7,6,-68,19,77,9,-13,-4
-8,0,8,4,-8,4,-68,19,68,0,-18,-8
-11,0,11,5,-11,5,-67,17,60,-9,-26,-13
-13,0,13,6,-13,6,-67,14,53,-18,-33,-18
-16,0,16,8,-16,8,-68,11,46,-29,-41,-24
-18,0,18,9,-18,9,-68,9,39,-38,-47,-28
-19,0,19,9,-19,9,-65,8,31,-44,-53,-31
-19,0,19,9,-19,9,-63,8,24,-47,-57,-33
-18,0,18,9,-18,9,-60,9,15,-52,-63,-36
-18,0,18,9,-18,9,-58,9,9,-57,-67,-38
-23,-1,22,12,-22,10,-55,6,5,-62,-70,-41
-28,-3,25,15,-26,11,-53,4,4,-67,-72,-42
-34,-6,28,20,-31,11,-50,1,2,-73,-75,-45
-38,-8,30,23,-34,11,-48,0,0,-77,-77,-47
-41,-9,32,25,-36,11,-45,0,-3,-82,-79,-50
-42,-9,33,25,-37,12,-43,0,-8,-86,-81,-52
-45,-8,37,26,-41,14,-41,0,-14,-92,-84,-55
-47,-8,39,27,-43,15,-39,0,-18,-96,-86,-57
-48,-9,39,28,-43,15,-36,-1,-21,-99,-89,-60
-48,-9,39,28,-43,15,-34,-3,-23,-101,-91,-62
-47,-8,39,27,-43,15,-31,-6,-26,-104,-94,-65
-47,-8,39,27,-43,15,-29,-8,-28,-106,-96,-67
-48,-10,38,29,-43,14,-26,-9,-31,-109,-97,-68
-48,-13,35,30,-41,11,-24,-9,-33,-111,-97,-68
-47,-16,31,31,-39,7,-21,-8,-36,-114,-96,-67
-47,-18,29,32,-38,5,-19,-8,-38,-116,-96,-67
-50,-19,31,34,-40,6,-18,-9,-40,-120,-98,-69
-52,-19,33,35,-42,7,-18,-9,-42,-125,-101,-72
-55,-18,37,36,-46,9,-19,-8,-45,-131,-104,-75
-57,-18,39,37,-48,10,-19,-8,-47,-135,-106,-77
-60,-19,41,39,-50,11,-16,-9,-48,-136,-107,-78
-62,-19,43,40,-52,12,-14,-9,-48,-136,-107,-78
-65,-18,47,41,-56,14,-11,-8,-47,-135,-106,-77
-67,-18,49,42,-58,15,-9,-8,-47,-135,-106,-77
-68,-20,48,44,-58,14,-6,-10,-48,-136,-107,-78
-68,-23,45,45,-56,11,-4,-13,-48,-136,-107,-78
-67,-26,41,46,-54,7,-1,-16,-47,-134,-106,-77
-67,-28,39,47,-53,5,0,-18,-47,-135,-106,-77
-68,-29,39,48,-53,5,0,-19,-49,-141,-108,-79
-68,-29,39,48,-53,5,0,-19,-52,-150,-111,-81
-67,-29,38,48,-52,4,0,-18,-56,-159,-114,-84
-67,-29,38,48,-52,4,0,-18,-57,-164,-116,-86
-68,-27,41,47,-54,7,0,-20,-58,-165,-117,-87
-68,-24,44,46,-56,10,0,-23,-57,-165,-117,-87
-67,-21,46,44,-56,12,0,-26,-58,-165,-116,-87
-67,-19,48,43,-57,14,0,-28,-58,-165,-116,-87
-67,-18,49,42,-58,15,0,-29,-53,-163,-116,-84
-67,-18,49,42,-58,15,0,-29,-48,-161,-116,-82
-68,-19,49,43,-58,15,0,-28,-43,-158,-117,-79
-68,-19,49,43,-58,15,0,-28,-39,-156,-117,-78
-67,-18,49,42,-58,15,1,-29,-34,-153,-115,-77
-67,-18,49,42,-58,15,3,-29,-29,-151,-112,-77
-68,-19,49,43,-58,15,6,-28,-24,-148,-109,-78
-68,-19,49,43,-58,15,8,-28,-19,-146,-107,-78
-67,-18,49,42,-58,15,9,-29,-13,-143,-106,-77
-67,-18,49,42,-58,15,9,-29,-9,-141,-106,-77
-68,-19,49,43,-58,15,8,-28,-4,-138,-107,-78
-68,-19,49,43,-58,15,8,-28,0,-136,-107,-78
-66,-18,48,42,-57,15,9,-31,6,-131,-103,-75
-63,-18,45,40,-54,13,9,-33,13,-126,-97,-73
-60,-19,41,39,-50,11,8,-36,22,-121,-91,-70
-58,-19,39,38,-48,10,8,-38,28,-117,-87,-68
-57,-18,39,37,-48,10,9,-40,32,-114,-86,-65
-57,-18,39,37,-48,10,9,-42,33,-112,-86,-63
-58,-19,39,38,-48,10,8,-45,36,-109,-87,-60
-58,-19,39,38,-48,10,8,-47,38,-107,-87,-58
-56,-18,38,37,-47,10,9,-50,41,-104,-84,-55
-53,-18,35,35,-44,8,9,-52,42,-102,-82,-53
-50,-19,31,34,-40,6,8,-55,45,-100,-80,-50
-48,-19,29,33,-38,5,8,-57,47,-97,-78,-48
-47,-15,32,31,-39,8,9,-58,50,-90,-73,-47
-47,-9,38,28,-42,14,9,-58,52,-82,-68,-47
-48,-3,45,25,-46,21,8,-57,55,-74,-62,-48
-48,0,48,24,-48,24,8,-57,57,-68,-58,-48
-45,0,45,22,-45,22,9,-58,60,-65,-55,-45
-43,0,43,21,-43,21,9,-58,62,-63,-53,-43
-40,0,40,20,-40,20,8,-57,65,-60,-50,-40
-39,0,39,19,-39,19,8,-57,67,-58,-48,-39
-38,0,38,19,-38,19,9,-58,70,-57,-47,-38
-38,0,38,19,-38,19,9,-58,72,-57,-47,-38
-39,0,39,19,-39,19,8,-57,75,-57,-47,-39
-39,0,39,19,-39,19,8,-57,77,-57,-47,-39
-37,1,38,18,-37,19,9,-58,79,-58,-48,-37
-34,3,37,15,-35,20,9,-58,81,-58,-48,-34
-31,6,37,12,-34,21,6,-57,84,-53,-45,-30
-29,8,37,10,-33,22,4,-57,86,-48,-43,-29
-28,11,39,8,-33,25,3,-59,89,-44,-42,-29
-28,13,41,7,-34,27,4,-62,91,-43,-43,-29
-29,14,43,7,-36,28,2,-65,93,-40,-41,-26
-29,14,43,7,-36,28,0,-67,92,-39,-39,-24
-28,12,40,8,-34,26,0,-68,88,-39,-38,-25
-29,9,38,10,-33,23,0,-68,86,-39,-38,-28
-28,5,33,11,-30,19,-1,-68,89,-37,-39,-30
-28,3,31,12,-29,17,-3,-68,92,-34,-39,-29
-29,6,35,11,-32,20,-4,-67,88,-31,-34,-24
-29,13,42,8,-35,27,-4,-67,82,-29,-29,-19
-27,23,50,2,-38,36,-4,-70,79,-27,-24,-17
-24,28,52,-2,-38,40,-4,-72,81,-24,-19,-18
-18,25,43,-3,-30,34,-2,-71,88,-16,-13,-20
-14,19,33,-2,-23,26,0,-68,96,-9,-9,-19
-13,15,28,-1,-20,21,4,-64,102,-8,-8,-13
-13,14,27,0,-20,20,13,-58,106,-9,-9,-9
-14,14,28,0,-21,21,28,-45,112,-6,-7,-8
-14,18,32,-2,-23,25,42,-34,116,-4,-4,-9
-11,26,37,-7,-24,31,49,-30,120,-3,0,-6
-9,33,42,-12,-25,37,48,-29,125,-4,3,-4
-6,38,44,-16,-25,41,43,-23,135,-2,4,-3
-4,42,46,-19,-25,44,42,-14,145,0,4,-4
0,49,49,-24,-24,49,52,-3,152,2,3,-2
3,53,50,-28,-23,51,62,3,155,3,3,0
10,49,39,-29,-14,44,62,4,157,6,4,0
18,43,25,-30,-3,34,58,3,160,8,4,0
25,40,15,-32,5,27,59,9,166,11,3,1
28,39,11,-33,8,25,62,13,170,13,3,3
27,36,9,-31,9,22,62,10,166,14,5,6
24,34,10,-29,7,22,62,4,161,14,8,8
24,33,9,-28,7,21,67,1,159,13,11,9
28,33,5,-30,11,19,72,3,160,13,13,9
34,35,1,-34,16,18,74,8,162,16,14,7
38,34,-4,-36,21,15,73,13,161,18,14,8
40,28,-12,-34,26,8,72,15,155,20,14,13
39,19,-20,-29,29,0,68,14,146,19,14,18
37,10,-27,-23,32,-8,56,9,137,12,12,20
34,0,-34,-17,34,-17,39,0,126,4,9,19
28,-10,-38,-9,33,-24,20,-11,113,-1,5,16
24,-18,-42,-3,33,-30,4,-23,102,-3,4,14
25,-18,-43,-3,34,-30,-5,-33,96,-4,4,11
28,-14,-42,-7,35,-28,-13,-42,92,-4,4,9
29,-8,-37,-10,33,-22,-25,-53,86,-3,1,8
28,-4,-32,-12,30,-18,-33,-62,82,-3,0,8
30,0,-30,-15,30,-15,-33,-65,83,-5,1,8
33,3,-30,-18,31,-13,-29,-63,86,-8,3,8
37,9,-28,-23,32,-9,-25,-59,88,-12,6,9
39,13,-26,-26,32,-6,-24,-57,87,-13,8,9
34,12,-22,-23,28,-5,-24,-60,84,-13,10,5
29,9,-20,-19,24,-5,-24,-62,82,-13,9,0
26,10,-16,-18,21,-3,-22,-63,81,-18,4,-4
24,13,-11,-18,17,1,-19,-62,81,-23,0,-8
19,17,-2,-18,10,7,-14,-64,81,-24,-2,-14
14,18,4,-16,5,11,-9,-67,78,-23,-3,-18
12,19,7,-15,2,13,-3,-70,72,-27,-4,-19
9,19,10,-14,0,14,0,-72,68,-29,-4,-19
1,18,17,-9,-8,17,1,-75,67,-23,-3,-18
-8,18,26,-5,-17,22,3,-77,68,-14,-3,-18
-17,21,38,-2,-27,29,8,-80,65,-7,-6,-20
-23,23,46,0,-34,34,13,-81,63,-4,-8,-23
-26,24,50,1,-38,37,16,-82,62,-3,-9,-26
-28,24,52,2,-40,38,18,-82,62,-3,-9,-28
-31,23,54,4,-42,38,21,-81,63,-4,-8,-29
-33,23,56,5,-44,39,23,-81,63,-4,-8,-28
-33,27,60,3,-46,43,23,-82,62,-3,-8,-30
-33,33,66,0,-49,49,23,-82,62,-3,-8,-33
-36,39,75,-1,-55,57,26,-82,65,-4,-9,-36
-38,42,80,-2,-59,61,28,-82,67,-4,-9,-38
-39,43,82,-2,-60,62,29,-81,68,-2,-6,-39
-39,43,82,-2,-60,62,29,-81,68,0,-4,-39
-38,43,81,-2,-59,62,28,-82,67,0,-2,-36
-38,43,81,-2,-59,62,28,-82,67,0,-3,-34
-39,41,80,-1,-59,60,31,-80,70,0,-7,-33
-39,39,78,0,-58,58,33,-78,72,3,-9,-33
-37,36,73,0,-55,54,36,-75,73,8,-6,-34
-38,34,72,2,-55,53,38,-73,72,4,-8,-38
-44,34,78,5,-61,56,42,-73,74,-17,-21,-50
-52,38,90,7,-71,64,43,-77,73,-42,-33,-62
-60,49,109,5,-84,79,38,-84,65,-51,-32,-67
-63,67,130,-2,-96,98,29,-96,53,-35,-15,-63
-58,90,148,-16,-103,119,17,-114,38,9,15,-50
-48,111,159,-31,-103,135,4,-135,15,65,51,-29
-32,125,157,-46,-94,141,-13,-156,-22,133,98,3
11,144,133,-77,-61,138,-50,-192,-75,305,220,91
101,180,79,-140,11,129,-119,-252,-142,657,468,267
209,217,8,-213,100,112,-192,-314,-211,1057,754,474
299,233,-66,-266,182,83,-239,-351,-270,1333,964,638
349,202,-147,-275,248,27,-253,-351,-337,1393,1025,716
353,111,-242,-232,297,-65,-235,-313,-429,1199,904,685
327,-13,-340,-157,333,-176,-192,-242,-531,869,678,589
292,-135,-427,-78,359,-281,-133,-154,-637,534,439,476
237,-230,-467,-3,352,-348,-70,-84,-808,191,200,342
150,-282,-432,66,291,-357,-17,-60,-1097,-185,-38,179
56,-301,-357,122,206,-329,22,-67,-1411,-532,-249,20
-14,-305,-291,159,138,-298,49,-79,-1638,-778,-402,-99
-65,-311,-246,188,90,-278,84,-78,-1771,-930,-503,-186
-105,-332,-227,218,61,-279,144,-56,-1833,-1016,-570,-254
-134,-359,-225,246,45,-292,211,-25,-1853,-1061,-612,-305
-153,-382,-229,267,38,-305,260,2,-1853,-1088,-636,-338
-160,-416,-256,288,48,-336,290,32,-1813,-1093,-643,-350
-160,-477,-317,318,78,-397,308,72,-1712,-1068,-637,-342
-156,-538,-382,347,113,-460,316,105,-1572,-1017,-615,-318
-152,-564,-412,358,130,-488,312,112,-1427,-947,-574,-286
-146,-543,-397,344,125,-470,275,80,-1284,-854,-515,-249
-132,-475,-343,303,105,-409,190,6,-1146,-738,-439,-211
-117,-388,-271,252,77,-329,86,-83,-1016,-619,-359,-176
-106,-312,-206,209,50,-259,0,-153,-891,-515,-290,-148
-97,-242,-145,169,24,-193,-56,-189,-757,-427,-236,-126
-86,-168,-82,127,-2,-125,-81,-185,-604,-351,-197,-108
-73,-104,-31,88,-21,-67,-86,-157,-446,-281,-166,-92
-59,-66,-7,62,-26,-36,-85,-125,-304,-213,-133,-77
-48,-43,5,45,-26,-19,-78,-102,-185,-149,-98,-63
-42,-24,18,33,-30,-3,-63,-96,-90,-88,-65,-51
-39,-1,38,20,-38,18,-48,-101,-17,-36,-35,-39
-32,25,57,3,-44,41,-41,-107,39,4,-8,-28
-24,51,75,-13,-49,63,-39,-111,84,32,13,-19
-16,71,87,-27,-51,79,-36,-113,123,48,26,-13
-9,81,90,-36,-49,85,-29,-107,159,62,33,-9
-4,84,88,-40,-46,86,-18,-92,195,81,39,-3
0,82,82,-41,-41,82,-4,-73,227,101,47,3
2,80,78,-41,-38,79,7,-59,250,113,57,9
3,81,78,-42,-37,79,13,-53,262,121,67,13
3,88,85,-45,-41,86,10,-54,267,129,74,14
3,96,93,-49,-45,94,4,-57,267,135,77,14
6,103,97,-54,-45,100,4,-58,269,137,78,13
8,106,98,-57,-45,102,8,-57,272,136,78,13
9,107,98,-58,-44,102,11,-59,277,135,77,14
9,107,98,-58,-44,102,13,-58,282,135,78,14
8,106,98,-57,-45,102,16,-51,287,136,77,13
9,107,98,-58,-44,102,18,-43,291,140,77,13
8,106,98,-57,-45,102,18,-39,295,148,79,16
8,106,98,-57,-45,102,18,-38,296,155,81,18
11,108,97,-59,-43,102,21,-39,297,157,82,19
13,111,98,-62,-42,104,23,-39,297,156,82,19
14,117,103,-65,-44,110,24,-39,296,155,82,18
14,121,107,-67,-46,114,24,-39,296,155,82,18
13,122,109,-67,-48,115,23,-38,298,159,81,21
13,122,109,-67,-48,115,23,-38,301,164,81,23
14,122,108,-68,-47,115,26,-39,304,170,84,24
14,122,108,-68,-47,115,28,-39,306,174,86,24
13,120,107,-66,-47,113,27,-38,307,174,87,23
13,117,104,-65,-45,110,24,-38,307,170,87,23
16,113,97,-64,-40,105,23,-39,306,165,86,24
18,111,93,-64,-37,102,23,-39,306,161,86,24
19,113,94,-66,-37,103,24,-37,307,160,86,23
19,116,97,-67,-39,106,23,-34,307,160,86,23
18,117,99,-67,-40,108,24,-31,306,160,87,24
19,117,98,-68,-39,107,24,-29,306,160,87,24
18,116,98,-67,-40,107,21,-28,307,162,85,22
18,116,98,-67,-40,107,19,-28,307,164,82,19
21,117,96,-69,-37,106,17,-29,306,164,79,16
23,117,94,-70,-35,105,18,-29,306,164,78,14
24,116,92,-70,-34,104,21,-27,307,167,77,13
24,116,92,-70,-34,104,23,-24,307,169,77,13
23,119,96,-71,-36,107,24,-21,306,170,78,14
23,121,98,-72,-37,109,24,-19,306,170,78,14
28,122,94,-75,-33,108,24,-18,307,170,77,13
33,122,89,-77,-28,105,24,-18,307,170,77,13
37,121,84,-79,-23,102,21,-18,306,169,79,16
38,121,83,-79,-22,102,19,-18,306,169,81,18
39,122,83,-80,-22,102,18,-19,307,174,82,19
39,122,83,-80,-22,102,18,-19,307,179,82,19
38,122,84,-80,-23,103,18,-16,304,183,81,18
38,122,84,-80,-23,103,18,-14,302,184,81,18
39,121,82,-80,-21,101,20,-13,301,185,82,18
39,121,82,-80,-21,101,23,-13,301,184,82,18
38,122,84,-80,-23,103,27,-14,302,185,79,19
38,122,84,-80,-23,103,29,-14,302,185,78,19
39,119,80,-79,-20,99,27,-13,297,180,79,17
39,117,78,-78,-19,97,24,-13,292,175,81,14
36,116,80,-76,-22,98,22,-14,288,171,82,11
34,116,82,-75,-24,99,23,-14,286,170,82,9
33,116,83,-74,-25,99,26,-12,289,168,79,8
33,116,83,-74,-25,99,28,-9,291,165,78,8
34,117,83,-75,-24,100,29,-6,291,159,78,9
34,117,83,-75,-24,100,29,-4,287,155,78,9
33,112,79,-72,-23,95,28,-2,282,161,75,5
33,107,74,-70,-20,90,28,0,278,169,73,0
34,104,70,-69,-18,87,31,2,275,172,73,-2
34,102,68,-68,-17,85,33,4,273,170,73,-3
32,99,67,-65,-17,83,34,2,269,166,69,-5
29,97,68,-63,-19,82,34,0,263,161,63,-8
26,96,70,-61,-22,83,31,0,254,153,57,-13
24,96,72,-60,-24,84,29,0,244,146,53,-18
22,97,75,-59,-26,86,28,0,234,141,48,-21
19,97,78,-58,-29,87,28,0,224,136,43,-23
14,92,78,-53,-32,85,31,0,216,128,36,-28
9,87,78,-48,-34,82,33,0,209,117,29,-33
7,83,76,-45,-34,79,34,-1,203,107,24,-37
8,82,74,-45,-33,78,34,-3,195,97,19,-42
10,81,71,-45,-30,76,31,-4,183,89,11,-50
9,81,72,-45,-31,76,29,-3,170,82,4,-57
2,82,80,-42,-39,81,28,-5,160,76,0,-60
-3,82,85,-39,-44,83,28,-8,151,68,-3,-62
-4,80,84,-38,-44,82,31,-11,142,55,-10,-67
-3,78,81,-37,-42,79,33,-13,131,43,-18,-72
-8,75,83,-33,-45,79,34,-14,120,37,-26,-77
-13,73,86,-30,-49,79,33,-14,112,34,-33,-81
-14,73,87,-29,-50,80,34,-13,107,28,-37,-86
-13,73,86,-30,-49,79,34,-13,102,19,-42,-91
-16,70,86,-27,-51,78,31,-14,91,11,-50,-98
-18,68,86,-25,-52,77,29,-14,78,4,-57,-106
-18,67,85,-24,-51,76,30,-13,71,0,-61,-113
-18,68,86,-25,-52,77,33,-13,68,-3,-62,-116
-23,66,89,-21,-56,77,37,-15,66,-10,-65,-117
-28,63,91,-17,-59,77,38,-18,63,-18,-67,-116
-29,60,89,-15,-59,74,39,-23,57,-24,-70,-119
-28,58,86,-15,-57,72,38,-28,48,-28,-72,-121
-31,57,88,-13,-59,72,40,-32,38,-34,-75,-121
-33,57,90,-12,-61,73,42,-33,29,-38,-77,-121
-34,58,92,-12,-63,75,46,-34,23,-40,-79,-125
-33,58,91,-12,-62,74,48,-34,19,-42,-81,-130
-35,56,91,-10,-63,73,46,-33,16,-50,-84,-134
-38,53,91,-7,-64,72,43,-33,14,-57,-86,-135
-41,50,91,-4,-66,70,42,-34,9,-58,-87,-136
-42,48,90,-3,-66,69,42,-34,4,-57,-86,-136
-42,46,88,-2,-65,67,44,-33,-1,-61,-88,-136
-42,43,85,0,-63,64,47,-33,-8,-67,-91,-136
-45,38,83,3,-64,60,50,-34,-17,-73,-97,-135
-47,34,81,6,-64,57,52,-34,-23,-77,-101,-135
-48,31,79,8,-63,55,52,-33,-24,-80,-102,-138
-48,29,77,9,-62,53,52,-33,-23,-81,-102,-140
-47,27,74,10,-60,50,55,-36,-25,-84,-101,-142
-47,24,71,11,-59,47,57,-38,-28,-86,-102,-141
-50,19,69,15,-59,44,58,-40,-31,-89,-101,-137
-52,14,66,19,-59,40,58,-42,-33,-91,-101,-135
-53,11,64,21,-58,37,57,-45,-36,-94,-104,-138
-52,9,61,21,-56,35,58,-47,-38,-96,-106,-140
-55,5,60,25,-57,32,57,-48,-39,-99,-107,-139
-57,0,57,28,-57,28,57,-48,-38,-101,-107,-136
-58,-2,56,30,-57,27,60,-47,-40,-102,-107,-133
-58,-3,55,30,-56,26,62,-47,-42,-102,-107,-131
-57,-3,54,30,-55,25,63,-49,-45,-102,-105,-130
-58,-3,55,30,-56,26,63,-52,-47,-102,-102,-130
-57,-6,51,31,-54,22,62,-55,-50,-101,-99,-131
-57,-8,49,32,-53,20,62,-57,-52,-101,-97,-131
-60,-8,52,34,-56,22,63,-58,-53,-104,-96,-128
-62,-8,54,35,-58,23,63,-58,-53,-106,-96,-126
-63,-13,50,38,-56,18,58,-57,-52,-107,-97,-124
-63,-18,45,40,-54,13,53,-57,-52,-107,-97,-125
-62,-20,42,41,-52,11,51,-58,-53,-107,-96,-128
-62,-19,43,40,-52,12,52,-58,-53,-107,-96,-130
-63,-18,45,40,-54,13,53,-58,-51,-104,-97,-131
-63,-18,45,40,-54,13,53,-58,-48,-102,-97,-131
-60,-19,41,39,-50,11,50,-57,-45,-101,-95,-131
-58,-19,39,38,-48,10,48,-57,-43,-102,-92,-131
-57,-18,39,37,-48,10,47,-58,-41,-100,-87,-129
-58,-18,40,38,-49,11,47,-58,-39,-97,-82,-126
-56,-21,35,38,-45,7,48,-57,-36,-93,-79,-124
-53,-23,30,38,-41,3,48,-57,-34,-91,-78,-122
-50,-24,26,37,-38,1,47,-60,-32,-94,-77,-119
-48,-24,24,36,-36,0,48,-62,-29,-97,-77,-117
-45,-24,21,34,-33,-1,47,-63,-24,-93,-77,-114
-43,-24,19,33,-31,-2,47,-63,-19,-87,-77,-112
-42,-21,21,31,-31,0,48,-62,-14,-82,-78,-109
-42,-19,23,30,-32,2,48,-62,-9,-78,-78,-107
-43,-18,25,30,-34,3,45,-63,-3,-74,-76,-104
-43,-18,25,30,-34,3,43,-63,0,-73,-73,-102
-41,-19,22,30,-31,1,42,-62,0,-73,-68,-99
-39,-19,20,29,-29,0,42,-62,0,-73,-63,-97
-36,-18,18,27,-27,0,42,-63,1,-68,-59,-94
-34,-18,16,26,-25,-1,42,-63,3,-63,-58,-92
-33,-21,12,27,-22,-4,43,-62,3,-60,-58,-89
-33,-23,10,28,-21,-6,43,-62,3,-58,-58,-87
-34,-22,12,28,-23,-5,39,-62,8,-53,-56,-84
-34,-19,15,26,-24,-2,34,-62,13,-48,-53,-82
-31,-18,13,24,-22,-2,30,-63,14,-47,-50,-80
-29,-18,11,23,-20,-3,29,-63,13,-48,-48,-78
-28,-19,9,23,-18,-5,29,-62,17,-44,-43,-75
-29,-18,11,23,-20,-3,29,-62,23,-39,-39,-73
-26,-19,7,22,-16,-6,26,-63,27,-35,-36,-71
-24,-19,5,21,-14,-7,24,-63,28,-34,-34,-68
-23,-17,6,20,-14,-5,23,-62,30,-32,-31,-63
-23,-14,9,18,-16,-2,24,-62,33,-29,-29,-58
-24,-11,13,17,-18,1,21,-63,36,-24,-26,-54
-24,-9,15,16,-19,3,19,-63,38,-19,-24,-53
-21,-8,13,14,-17,2,18,-61,38,-15,-23,-53
-19,-8,11,13,-15,1,18,-58,38,-14,-24,-53
-18,-9,9,13,-13,0,19,-54,40,-14,-22,-51
-19,-9,10,14,-14,0,19,-52,42,-14,-19,-48
-17,-8,9,12,-13,0,17,-54,42,-12,-16,-45
-14,-8,6,11,-10,-1,14,-57,42,-9,-14,-43
-11,-9,2,10,-6,-3,9,-58,45,-6,-11,-42
-9,-9,0,9,-4,-4,4,-58,47,-4,-9,-43
-8,-8,0,8,-4,-4,2,-58,48,-1,-6,-41
-8,-8,0,8,-4,-4,3,-58,48,0,-4,-39
-9,-11,-2,10,-3,-6,4,-55,47,0,-3,-36
-9,-13,-4,11,-2,-8,4,-53,47,0,-4,-34
-6,-12,-6,9,0,-9,2,-52,50,0,-2,-33
-4,-9,-5,6,0,-7,0,-52,52,0,0,-33
-3,-8,-5,5,1,-6,0,-53,53,1,0,-34
-3,-9,-6,6,1,-7,0,-53,53,3,0,-34
-4,-7,-3,5,0,-5,0,-52,52,6,1,-29
-3,-4,-1,3,-1,-2,0,-53,52,8,3,-24
-4,-2,2,3,-3,0,0,-52,53,11,3,-20
-4,0,4,2,-4,2,0,-52,52,13,3,-19
-2,2,4,0,-3,3,0,-53,53,13,6,-19
0,3,3,-1,-1,3,0,-53,53,13,8,-19
0,4,4,-2,-2,4,0,-50,52,16,9,-16
0,4,4,-2,-2,4,0,-48,52,18,8,-14
0,3,3,-1,-1,3,0,-47,55,17,9,-13
0,3,3,-1,-1,3,0,-47,57,14,9,-13
0,4,4,-2,-2,4,0,-48,58,12,6,-14
0,4,4,-2,-2,4,0,-48,58,13,4,-14
1,3,2,-2,0,2,0,-45,57,16,5,-11
3,3,0,-3,1,1,0,-43,57,18,8,-9
4,4,0,-4,2,2,0,-43,58,19,9,-8
4,4,0,-4,2,2,0,-43,58,19,9,-8
2,3,1,-2,0,2,0,-39,57,17,8,-10
0,3,3,-1,-1,3,0,-34,57,14,8,-13
0,6,6,-3,-3,6,0,-30,57,11,9,-16
0,8,8,-4,-4,8,0,-29,57,9,9,-18
0,9,9,-4,-4,9,0,-28,58,8,8,-19
0,9,9,-4,-4,9,0,-28,58,8,8,-19
0,8,8,-4,-4,8,0,-29,57,9,9,-19
0,8,8,-4,-4,8,0,-29,57,9,9,-19
0,9,9,-4,-4,9,0,-28,58,8,8,-17
0,8,8,-4,-4,8,0,-28,58,8,8,-14
0,9,9,-4,-4,9,0,-29,55,9,9,-11
0,9,9,-4,-4,9,0,-29,53,9,9,-9
0,8,8,-4,-4,8,0,-29,52,9,8,-8
0,8,8,-4,-4,8,0,-29,52,9,8,-8
0,11,11,-5,-5,11,0,-28,53,8,10,-9
0,13,13,-6,-6,13,0,-28,52,8,13,-9
0,14,14,-7,-7,14,0,-29,53,9,16,-6
0,13,13,-6,-6,13,0,-29,53,9,18,-4
0,15,15,-7,-7,15,0,-28,52,8,20,-3
0,18,18,-9,-9,18,0,-28,52,8,19,-3
-1,20,21,-9,-11,20,-3,-29,55,10,14,-4
-3,23,26,-10,-14,24,-8,-29,57,13,9,-4
-3,29,32,-13,-17,30,-12,-26,57,18,7,-2
0,38,38,-19,-19,38,-13,-24,57,23,8,0
5,48,43,-26,-19,45,-14,-23,63,26,12,0
13,57,44,-35,-15,50,-14,-24,72,28,18,0
19,62,43,-40,-12,52,-13,-22,79,33,24,0
23,67,44,-45,-10,55,-9,-19,86,38,28,0
24,76,52,-50,-14,64,-1,-14,94,39,29,4
24,86,62,-55,-19,74,8,-9,101,38,28,8
23,91,68,-57,-22,79,13,-6,105,40,30,9
23,96,73,-59,-25,84,14,-8,106,42,33,9
26,106,80,-66,-27,93,8,-16,107,43,38,9
28,116,88,-72,-30,102,-6,-27,106,42,42,9
29,120,91,-74,-31,105,-32,-37,107,44,43,6
28,121,93,-74,-32,107,-60,-47,107,47,43,4
30,122,92,-76,-31,107,-80,-57,103,50,42,5
33,122,89,-77,-28,105,-91,-67,97,52,42,8
36,117,81,-76,-22,99,-97,-75,90,53,43,9
38,112,74,-75,-18,93,-101,-81,82,53,43,8
39,109,70,-74,-15,89,-104,-83,76,52,42,10
39,107,68,-73,-14,87,-106,-82,73,53,42,13
39,104,65,-71,-13,84,-110,-81,71,52,44,18
42,102,60,-72,-9,81,-112,-78,72,52,47,23
49,101,52,-75,-1,76,-108,-71,77,54,50,27
57,101,44,-79,6,72,-102,-63,81,57,52,28
63,103,40,-83,11,71,-96,-57,83,62,53,28
67,102,35,-84,16,68,-92,-53,82,67,52,28
68,96,28,-82,20,62,-88,-47,79,70,53,33
68,87,19,-77,24,53,-82,-39,78,68,53,38
66,79,13,-72,26,46,-73,-30,77,62,50,39
63,69,6,-66,28,37,-63,-24,73,53,48,39
58,56,-2,-57,30,27,-57,-25,63,47,46,40
53,43,-10,-48,31,16,-53,-28,53,43,47,42
51,36,-15,-43,33,10,-50,-29,51,42,50,45
52,34,-18,-43,35,8,-48,-28,52,42,52,47
54,34,-20,-44,37,7,-46,-30,51,43,51,49
53,34,-19,-43,36,7,-43,-33,48,43,48,48
48,32,-16,-40,32,8,-39,-34,47,41,45,44
39,29,-10,-34,24,9,-34,-34,47,39,43,39
29,26,-3,-27,16,11,-29,-31,48,36,40,34
19,24,5,-21,7,14,-24,-29,48,34,39,29
11,19,8,-15,1,13,-20,-27,47,34,38,24
4,14,10,-9,-3,12,-14,-24,47,34,34,19
0,9,9,-4,-4,9,-6,-19,49,29,25,14
-3,4,7,0,-5,5,3,-14,52,24,14,9
-8,0,8,4,-8,4,11,-9,55,23,7,4
-13,-3,10,8,-11,3,18,-4,57,24,4,0
-18,-6,12,12,-15,3,24,0,59,21,3,0
-23,-8,15,15,-19,3,28,3,62,19,3,0
-29,-11,18,20,-23,3,29,4,66,18,4,0
-33,-13,20,23,-26,3,28,4,68,19,4,0
-34,-14,20,24,-27,3,31,3,66,17,2,-1
-34,-14,20,24,-27,3,33,4,63,14,0,-3
-33,-13,20,23,-26,3,34,3,62,13,0,-6
-33,-13,20,23,-26,3,34,3,62,13,0,-8
-34,-14,20,24,-27,3,33,5,63,15,0,-7
-34,-14,20,24,-27,3,34,8,63,18,0,-4
-33,-13,20,23,-26,3,33,11,62,21,0,-1
-33,-13,20,23,-26,3,33,13,62,23,0,0
-34,-14,20,24,-27,3,36,14,65,23,0,0
-34,-14,20,24,-27,3,38,14,67,23,0,0
-31,-13,18,22,-24,2,39,13,68,26,1,0
-29,-13,16,21,-22,1,39,13,68,28,3,0
-28,-14,14,21,-21,0,38,14,67,27,4,1
-28,-14,14,21,-21,0,39,14,67,24,4,3
-29,-13,16,21,-22,1,38,13,68,23,1,4
-29,-13,16,21,-22,1,38,13,68,23,0,4
-29,-14,15,21,-22,0,40,15,67,23,0,2
-29,-14,15,21,-22,0,42,14,63,23,3,0
-28,-10,18,19,-23,4,43,8,56,27,8,0
-28,-1,27,14,-27,13,39,-2,44,37,17,0
-29,15,44,7,-36,29,27,-15,28,58,35,3
-25,36,61,-5,-43,48,10,-32,6,104,68,16
-10,58,68,-24,-39,63,-7,-52,-22,190,124,47
15,79,64,-47,-24,71,-30,-78,-62,315,204,100
53,98,45,-75,4,71,-66,-112,-117,475,308,176
105,115,10,-110,47,62,-111,-151,-182,681,445,279
174,127,-47,-150,110,40,-161,-190,-253,934,616,407
245,127,-118,-186,181,4,-201,-217,-319,1165,776,533
302,104,-198,-203,250,-47,-215,-220,-374,1283,865,624
330,51,-279,-190,304,-114,-206,-198,-439,1232,848,654
321,-38,-359,-141,340,-198,-177,-156,-538,983,705,606
283,-151,-434,-66,358,-292,-128,-90,-663,605,472,497
229,-269,-498,20,363,-383,-58,-4,-799,192,204,355
163,-366,-529,101,346,-447,12,67,-980,-199,-48,205
91,-420,-511,164,301,-465,62,89,-1237,-531,-246,70
25,-438,-463,206,244,-450,94,75,-1506,-782,-383,-38
-21,-438,-417,229,198,-427,117,54,-1698,-945,-466,-113
-54,-442,-388,248,167,-415,146,47,-1799,-1037,-517,-165
-82,-468,-386,275,152,-427,191,64,-1818,-1081,-557,-206
-100,-507,-407,303,153,-457,239,98,-1786,-1089,-583,-232
-105,-545,-440,325,167,-492,270,131,-1730,-1067,-583,-236
-102,-580,-478,341,188,-529,282,158,-1649,-1028,-568,-225
-98,-615,-517,356,209,-566,279,175,-1535,-981,-548,-211
-97,-633,-536,365,219,-584,261,172,-1392,-916,-516,-192
-96,-617,-521,356,212,-569,226,139,-1235,-821,-462,-162
-92,-568,-476,330,192,-522,172,84,-1079,-709,-392,-126
-82,-495,-413,288,165,-454,98,23,-937,-597,-323,-92
-69,-414,-345,241,138,-379,17,-33,-808,-493,-259,-65
-57,-336,-279,196,111,-307,-50,-74,-685,-403,-204,-47
-48,-265,-217,156,84,-241,-94,-91,-560,-325,-160,-35
-43,-201,-158,122,57,-179,-104,-83,-429,-257,-129,-26
-39,-154,-115,96,38,-134,-89,-56,-300,-196,-104,-19
-34,-133,-99,83,32,-116,-65,-24,-184,-138,-78,-12
-29,-123,-94,76,32,-108,-41,-1,-87,-83,-51,-4
-26,-106,-80,66,27,-93,-26,3,-12,-33,-25,3
-24,-81,-57,52,16,-69,-19,-3,42,9,-2,12
-20,-51,-31,35,5,-41,-18,-9,82,41,17,21
-14,-21,-7,17,-3,-14,-18,-13,113,61,32,28
-9,0,9,4,-9,4,-18,-16,142,72,40,31
-4,13,17,-4,-10,15,-14,-14,171,80,42,33
0,16,16,-8,-8,16,-7,-3,200,94,43,37
3,14,11,-8,-4,12,2,12,226,110,47,42
9,12,3,-10,3,7,13,24,246,121,56,48
13,13,0,-13,6,6,19,29,257,130,66,52
14,19,5,-16,4,12,13,25,257,138,74,53
13,28,15,-20,-1,21,4,19,253,145,77,53
15,34,19,-24,-2,26,2,17,251,147,78,52
18,38,20,-28,-1,29,3,18,252,146,78,52
19,39,20,-29,0,29,2,18,256,145,77,53
19,39,20,-29,0,29,0,18,262,146,78,53
18,38,20,-28,-1,29,0,23,267,145,77,52
19,38,19,-28,0,28,0,28,272,145,77,52
18,39,21,-28,-1,30,0,30,275,150,79,55
18,39,21,-28,-1,30,0,29,277,155,81,57
21,38,17,-29,2,27,1,28,278,157,82,58
23,38,15,-30,4,26,3,28,278,156,82,58
24,40,16,-32,4,28,4,29,277,155,82,57
24,42,18,-33,3,30,4,29,277,155,82,57
23,43,20,-33,1,31,2,28,278,156,81,60
23,43,20,-33,1,31,0,28,278,156,81,62
24,42,18,-33,3,30,0,29,277,155,84,63
24,42,18,-33,3,30,0,29,277,155,86,63
23,43,20,-33,1,31,-1,28,278,158,87,62
23,43,20,-33,1,31,-3,28,278,160,87,62
26,42,16,-34,5,29,-4,29,277,161,86,63
28,42,14,-35,7,28,-4,29,277,161,87,63
29,45,16,-37,6,30,-3,28,278,160,86,62
29,47,18,-38,5,32,-4,28,278,161,86,62
28,48,20,-38,4,34,-3,29,277,160,88,63
29,48,19,-38,5,33,-3,29,277,160,91,63
28,47,19,-37,4,33,-6,28,278,162,94,62
28,47,19,-37,4,33,-8,28,278,164,96,62
31,48,17,-39,7,32,-9,29,277,164,97,63
33,48,15,-40,9,31,-9,29,277,164,97,63
34,47,13,-40,10,30,-8,28,278,167,97,62
34,47,13,-40,10,30,-8,28,278,169,97,62
33,50,17,-41,8,33,-11,29,277,170,95,63
33,52,19,-42,7,35,-13,29,277,170,92,63
36,53,17,-44,9,35,-14,28,278,169,88,62
38,52,14,-45,12,33,-13,28,278,170,86,62
39,54,15,-46,12,34,-15,29,277,169,88,65
39,57,18,-48,10,37,-18,29,277,169,91,67
38,60,22,-49,8,41,-19,28,278,172,92,68
38,62,24,-50,7,43,-19,28,278,174,92,68
39,63,24,-51,7,43,-18,32,276,175,91,67
39,63,24,-51,7,43,-18,38,273,175,91,67
39,63,24,-51,7,43,-19,41,270,174,92,67
39,63,24,-51,7,43,-19,42,268,174,92,67
38,61,23,-49,7,42,-18,43,267,175,91,68
38,58,20,-48,9,39,-18,43,268,175,91,68
39,53,14,-46,12,33,-21,42,266,172,94,66
39,48,9,-43,15,28,-23,42,263,170,96,63
36,47,11,-41,12,29,-24,43,260,169,95,60
34,47,13,-40,10,30,-24,43,258,170,92,58
33,48,15,-40,9,31,-23,42,256,168,88,57
33,47,14,-40,9,30,-23,42,253,165,87,57
34,48,14,-41,10,31,-26,43,247,160,87,58
34,48,14,-41,10,31,-28,43,239,156,87,58
33,45,12,-39,10,28,-29,42,234,156,83,54
33,43,10,-38,11,26,-29,42,229,156,78,48
34,44,10,-39,12,27,-26,43,225,150,75,44
34,47,13,-40,10,30,-24,43,219,141,73,43
32,48,16,-40,8,32,-23,41,213,136,69,41
29,48,19,-38,5,33,-23,39,205,131,63,39
26,47,21,-36,2,34,-26,38,196,124,58,34
24,47,23,-35,0,35,-28,38,186,117,53,29
22,48,26,-35,-2,37,-29,39,175,112,49,26
19,48,29,-33,-5,38,-29,39,166,107,43,24
14,44,30,-29,-8,37,-26,39,158,99,36,20
9,39,30,-24,-10,34,-24,39,151,88,29,14
7,34,27,-20,-10,30,-23,38,145,78,24,9
8,29,21,-18,-6,25,-23,38,137,69,19,4
12,26,14,-19,-1,20,-26,39,125,60,12,-1
14,24,10,-19,2,17,-28,39,113,53,4,-8
10,22,12,-16,-1,17,-29,36,102,47,0,-11
4,19,15,-11,-5,17,-29,34,93,40,-3,-13
3,14,11,-8,-4,12,-26,33,84,28,-9,-16
4,9,5,-6,0,7,-24,33,74,15,-17,-18
1,5,4,-3,-1,4,-23,34,63,7,-26,-20
-3,4,7,0,-5,5,-23,34,53,0,-33,-23
-6,4,10,1,-8,7,-23,33,49,-7,-37,-27
-8,4,12,2,-10,8,-23,33,44,-17,-42,-33
-13,2,15,5,-14,8,-24,34,33,-26,-49,-38
-18,0,18,9,-18,9,-24,34,20,-33,-57,-42
-19,0,19,9,-19,9,-20,33,12,-37,-61,-45
-18,0,18,9,-18,9,-14,33,9,-42,-62,-47
-23,0,23,11,-23,11,-10,34,7,-49,-64,-47
-28,-3,25,15,-26,11,-9,34,4,-57,-67,-47
-29,-8,21,18,-25,6,-9,32,0,-61,-70,-50
-28,-13,15,20,-21,1,-9,29,-7,-62,-72,-52
-31,-17,14,24,-22,-1,-7,26,-16,-65,-75,-52
-33,-18,15,25,-24,-1,-4,24,-23,-67,-77,-52
-32,-18,14,25,-23,-2,-1,23,-27,-69,-79,-56
-29,-18,11,23,-20,-3,0,23,-28,-72,-81,-62
-27,-20,7,23,-17,-6,0,24,-30,-79,-84,-66
-28,-23,5,25,-16,-9,0,24,-33,-86,-86,-67
-31,-26,5,28,-18,-10,0,23,-37,-87,-87,-68
-33,-28,5,30,-19,-11,0,23,-42,-86,-86,-68
-33,-28,5,30,-19,-11,0,24,-47,-90,-88,-68
-33,-28,5,30,-19,-11,0,24,-52,-96,-91,-68
-37,-30,7,33,-22,-11,1,23,-58,-102,-96,-67
-42,-33,9,37,-25,-12,3,23,-62,-106,-101,-67
-46,-34,12,40,-29,-11,3,24,-63,-109,-102,-70
-47,-34,13,40,-30,-10,3,24,-62,-111,-102,-72
-47,-33,14,40,-30,-9,5,21,-64,-114,-101,-72
-47,-33,14,40,-30,-9,8,19,-67,-116,-102,-68
-50,-36,14,43,-32,-11,9,18,-70,-119,-101,-64
-52,-38,14,45,-33,-12,9,18,-72,-121,-101,-62
-53,-39,14,46,-33,-12,8,19,-75,-123,-104,-66
-52,-38,14,45,-33,-12,9,19,-77,-125,-106,-72
-54,-40,14,47,-34,-13,8,18,-78,-128,-107,-74
-57,-42,15,49,-36,-13,8,18,-77,-130,-107,-73
-58,-43,15,50,-36,-14,10,19,-79,-133,-106,-72
-58,-43,15,50,-36,-14,13,19,-81,-135,-106,-72
-58,-42,16,50,-37,-13,15,18,-82,-138,-107,-72
-58,-42,16,50,-37,-13,18,18,-82,-140,-107,-72
-55,-45,10,50,-32,-17,22,19,-81,-140,-106,-73
-53,-47,6,50,-29,-20,28,19,-81,-140,-106,-73
-52,-47,5,49,-28,-21,32,18,-82,-143,-107,-71
-52,-47,5,49,-28,-21,34,18,-82,-145,-107,-68
-53,-50,3,51,-28,-23,30,19,-81,-146,-106,-67
-53,-52,1,52,-27,-25,24,19,-81,-146,-106,-67
-52,-51,1,51,-26,-25,22,18,-82,-146,-107,-70
-52,-48,4,50,-28,-22,23,18,-82,-146,-107,-72
-55,-47,8,51,-31,-19,24,19,-81,-143,-106,-73
-57,-47,10,52,-33,-18,24,19,-78,-141,-106,-73
-58,-48,10,53,-34,-19,23,18,-74,-140,-107,-72
-58,-48,10,53,-34,-19,23,18,-68,-140,-107,-72
-57,-47,10,52,-33,-18,26,19,-63,-141,-105,-72
-57,-47,10,52,-33,-18,28,19,-58,-141,-102,-72
-58,-48,10,53,-34,-19,29,18,-55,-138,-99,-73
-58,-48,10,53,-34,-19,28,18,-53,-136,-97,-73
-56,-47,9,51,-32,-19,30,20,-51,-136,-97,-70
-53,-47,6,50,-29,-20,33,23,-48,-136,-97,-68
-48,-50,-2,49,-23,-26,36,28,-44,-132,-95,-67
-43,-52,-9,47,-17,-30,38,33,-39,-126,-92,-67
-42,-51,-9,46,-16,-30,39,34,-34,-121,-91,-68
-42,-48,-6,45,-18,-27,39,34,-29,-117,-91,-68
-43,-47,-4,45,-19,-25,36,33,-24,-113,-92,-66
-43,-48,-5,45,-19,-26,34,33,-19,-112,-92,-63
-42,-46,-4,44,-19,-25,33,34,-17,-112,-88,-60
-42,-43,-1,42,-20,-22,33,34,-14,-112,-82,-58
-43,-38,5,40,-24,-16,34,33,-7,-107,-79,-55
-43,-34,9,38,-26,-12,33,33,0,-102,-78,-53
-42,-33,9,37,-25,-12,34,34,2,-101,-78,-52
-42,-34,8,38,-25,-13,34,34,3,-102,-78,-52
-43,-32,11,37,-27,-10,31,33,8,-98,-76,-53
-43,-29,14,36,-28,-7,29,33,13,-92,-73,-53
-39,-28,11,33,-25,-8,28,35,14,-89,-71,-51
-34,-28,6,31,-20,-11,28,38,13,-87,-68,-48
-31,-29,2,30,-16,-13,29,41,17,-83,-63,-45
-29,-28,1,28,-15,-13,29,42,23,-78,-58,-43
-26,-29,-3,27,-11,-16,26,43,26,-73,-55,-41
-24,-29,-5,26,-9,-17,24,43,28,-68,-53,-39
-23,-27,-4,25,-9,-15,23,42,30,-63,-51,-36
-23,-24,-1,23,-11,-12,24,42,33,-58,-48,-34
-26,-21,5,23,-15,-8,22,43,36,-53,-44,-31
-28,-19,9,23,-18,-5,19,43,38,-48,-39,-29
-29,-18,11,23,-20,-3,18,42,39,-45,-36,-26
-29,-19,10,24,-19,-4,18,42,38,-43,-34,-24
-29,-17,12,23,-20,-2,19,43,40,-42,-31,-22
-29,-14,15,21,-22,0,18,43,42,-43,-29,-19
-27,-11,16,19,-21,2,19,41,43,-42,-26,-16
-24,-9,15,16,-19,3,19,39,42,-39,-24,-14
-21,-9,12,15,-16,1,16,37,44,-35,-22,-15
-19,-9,10,14,-14,0,14,34,47,-29,-19,-18
-18,-6,12,12,-15,3,13,31,48,-23,-16,-20
-18,-4,14,11,-16,5,13,29,48,-19,-14,-19
-19,-3,16,11,-17,6,14,30,47,-18,-14,-16
-19,-4,15,11,-17,5,14,33,47,-18,-14,-14
-16,-2,14,9,-15,6,12,34,50,-19,-11,-13
-14,0,14,7,-14,7,9,34,52,-19,-9,-13
-13,0,13,6,-13,6,6,33,53,-17,-10,-14
-13,0,13,6,-13,6,4,33,53,-14,-13,-14
-14,0,14,7,-14,7,1,34,52,-9,-15,-11
-14,0,14,7,-14,7,0,34,53,-4,-14,-9
-10,1,11,4,-10,6,0,31,52,-1,-11,-8
-4,3,7,0,-5,5,3,29,52,0,-9,-8
-1,6,7,-2,-4,6,6,28,55,0,-8,-9
0,8,8,-4,-4,8,8,28,57,0,-8,-9
0,9,9,-4,-4,9,9,29,58,0,-9,-8
0,9,9,-4,-4,9,9,29,58,0,-9,-8
0,8,8,-4,-4,8,8,28,57,0,-8,-9
0,8,8,-4,-4,8,8,28,57,0,-8,-9
-1,8,9,-3,-5,8,9,29,58,0,-9,-7
-3,8,11,-2,-7,9,9,29,57,0,-9,-4
-4,9,13,-2,-8,11,8,28,58,0,-8,-1
-3,9,12,-3,-7,10,9,28,58,0,-8,0
-5,8,13,-1,-9,10,8,28,57,1,-9,0
-8,8,16,0,-12,12,8,28,57,3,-9,0
-9,11,20,-1,-14,15,9,29,59,6,-7,0
-9,13,22,-2,-15,17,9,29,62,8,-4,0
-7,12,19,-2,-13,15,8,28,63,9,-1,1
-4,9,13,-2,-8,11,8,28,63,9,0,3
-1,8,9,-3,-5,8,9,29,62,8,0,4
0,8,8,-4,-4,8,9,29,62,8,0,3
0,10,10,-5,-5,10,6,28,66,10,0,5
0,13,13,-6,-6,13,4,28,72,13,0,8
2,18,16,-10,-7,17,3,31,75,18,2,13
7,27,20,-17,-6,23,3,33,77,23,8,18
15,39,24,-27,-4,31,4,34,82,27,14,20
22,51,29,-36,-3,40,4,33,90,32,22,19
29,60,31,-44,-1,45,4,34,98,40,31,17
33,66,33,-49,0,49,7,38,105,47,38,18
34,74,40,-54,-3,57,16,44,113,48,40,23
34,81,47,-57,-6,64,27,51,121,47,39,28
33,83,50,-58,-8,66,34,57,124,49,39,29
33,86,53,-59,-10,69,34,58,125,52,42,28
36,94,58,-65,-11,76,27,51,125,53,47,30
38,105,67,-71,-14,86,12,40,125,52,52,33
39,110,71,-74,-16,90,-12,30,126,54,53,34
38,111,73,-74,-17,92,-39,20,126,57,53,34
40,112,72,-76,-16,92,-60,10,123,60,52,34
42,112,70,-77,-14,91,-76,1,118,62,52,34
45,108,63,-76,-9,85,-85,-6,111,63,53,31
47,102,55,-74,-4,78,-91,-13,103,63,53,29
48,99,51,-73,-1,75,-94,-16,95,62,52,29
47,97,50,-72,-1,73,-96,-18,87,62,52,33
48,94,46,-71,1,70,-100,-20,82,63,54,37
52,92,40,-72,6,66,-102,-19,81,63,57,42
58,91,33,-74,12,62,-99,-13,85,62,60,46
66,91,25,-78,20,58,-93,-5,91,62,62,47
73,93,20,-83,26,56,-87,0,94,64,63,47
77,92,15,-84,31,53,-82,3,92,67,63,47
78,87,9,-82,34,48,-79,4,86,69,63,51
78,79,1,-78,38,40,-74,3,79,68,63,57
76,69,-7,-72,41,31,-64,4,72,62,61,59
73,59,-14,-66,43,22,-54,4,64,54,58,58
68,49,-19,-58,43,15,-47,1,53,47,55,56
63,40,-23,-51,43,8,-43,-3,43,43,53,53
61,34,-27,-47,44,3,-40,-6,41,42,52,50
62,33,-29,-47,45,2,-39,-8,42,42,53,48
65,39,-26,-52,45,6,-39,-11,43,43,51,48
67,50,-17,-58,42,16,-42,-13,42,43,48,48
67,64,-3,-65,35,30,-45,-14,44,41,45,44
59,69,10,-64,24,39,-43,-14,47,39,43,39
44,51,7,-47,18,29,-35,-12,48,38,41,37
22,15,-7,-18,14,4,-21,-9,48,42,39,38
1,-26,-27,12,14,-26,-7,-7,47,49,38,40
-12,-52,-40,32,14,-46,2,-4,47,53,35,39
-13,-39,-26,26,6,-32,6,0,49,46,26,30
-5,1,6,2,-5,3,4,3,52,35,15,16
2,46,44,-24,-21,45,0,7,55,28,7,2
4,72,68,-38,-32,70,0,12,57,24,4,-8
0,59,59,-29,-29,59,9,21,58,21,3,-10
-11,21,32,-5,-21,26,26,32,57,19,3,-9
-24,-18,6,21,-15,-6,40,40,58,19,4,-8
-33,-41,-8,37,-12,-24,47,43,58,19,4,-8
-32,-36,-4,34,-14,-20,46,40,56,15,1,-10
-25,-13,12,19,-18,0,40,35,53,9,-3,-13
-18,8,26,5,-22,17,31,28,52,5,-6,-16
-14,22,36,-4,-25,29,24,24,52,4,-8,-18
-13,29,42,-8,-27,35,22,23,53,3,-9,-19
-14,33,47,-9,-30,40,23,23,53,3,-9,-19
-13,38,51,-12,-32,44,23,24,52,4,-8,-18
-13,42,55,-14,-34,48,23,24,52,4,-8,-18
-17,39,56,-11,-36,47,25,23,55,3,-9,-18
-23,30,53,-3,-38,41,28,24,57,3,-9,-18
-27,21,48,3,-37,34,29,23,58,6,-7,-19
-28,14,42,7,-35,28,29,23,58,8,-4,-19
-29,12,41,8,-35,26,29,24,57,8,-3,-17
-29,13,42,8,-35,27,29,24,58,8,-3,-14
-28,14,42,7,-35,28,28,22,57,12,-5,-12
-28,14,42,7,-35,28,28,23,57,14,-8,-13
-30,11,41,9,-35,26,32,28,59,8,-13,-16
-33,9,42,12,-37,25,38,33,58,0,-18,-18
-35,9,44,13,-39,26,41,32,52,0,-19,-18
-38,16,54,11,-46,35,39,25,44,0,-19,-18
-44,33,77,5,-60,55,31,15,37,-4,-18,-24
-48,54,102,-3,-75,78,20,2,30,0,-11,-29
-42,75,117,-16,-79,96,9,-13,16,38,12,-18
-23,97,120,-37,-71,108,-9,-37,-12,132,72,19
8,125,117,-66,-54,121,-46,-75,-60,303,182,92
53,156,103,-104,-25,129,-97,-122,-124,536,336,194
112,181,69,-146,21,125,-151,-168,-195,803,515,315
182,194,12,-188,85,103,-197,-204,-259,1066,693,445
257,186,-71,-221,164,57,-228,-223,-302,1277,844,572
318,150,-168,-234,243,-9,-243,-225,-345,1371,923,663
344,81,-263,-212,303,-91,-240,-210,-421,1285,889,682
331,-18,-349,-156,340,-183,-209,-163,-530,1014,727,618
284,-145,-429,-69,356,-287,-139,-70,-663,586,452,479
216,-265,-481,24,348,-373,-55,29,-840,106,141,306
144,-344,-488,100,316,-416,6,81,-1086,-305,-111,150
78,-377,-455,149,266,-416,43,84,-1359,-615,-284,26
23,-380,-403,178,213,-391,67,61,-1602,-825,-392,-64
-21,-378,-357,199,168,-367,91,36,-1782,-961,-462,-134
-60,-397,-337,228,138,-367,129,33,-1881,-1053,-522,-195
-88,-436,-348,262,130,-392,176,56,-1909,-1103,-569,-239
-100,-483,-383,291,141,-433,222,99,-1881,-1106,-588,-252
-101,-532,-431,316,165,-481,258,147,-1814,-1082,-590,-245
-104,-579,-475,341,185,-527,279,188,-1719,-1053,-590,-236
-106,-611,-505,358,199,-558,280,201,-1595,-1006,-575,-222
-105,-612,-507,358,201,-559,256,173,-1441,-920,-527,-194
-98,-586,-488,342,195,-537,209,117,-1276,-809,-456,-157
-85,-540,-455,312,185,-497,147,57,-1127,-699,-386,-123
-70,-476,-406,273,168,-441,72,0,-993,-597,-322,-96
-57,-392,-335,224,139,-363,-10,-50,-861,-501,-262,-75
-49,-299,-250,174,100,-274,-82,-87,-725,-414,-211,-60
-43,-212,-169,127,63,-190,-121,-100,-587,-337,-174,-48
-39,-148,-109,93,35,-128,-127,-86,-448,-269,-145,-40
-34,-121,-87,77,26,-104,-108,-51,-312,-204,-115,-33
-29,-113,-84,71,27,-98,-82,-13,-189,-141,-83,-25
-26,-99,-73,62,23,-86,-64,3,-87,-82,-51,-15
-24,-73,-49,48,12,-61,-58,4,-10,-31,-23,-5
-20,-41,-21,30,0,-31,-57,0,38,5,0,2
-15,-9,6,12,-10,-1,-57,-3,72,30,16,8
-9,16,25,-3,-17,20,-57,-6,105,47,27,10
-4,32,36,-14,-20,34,-54,-5,139,60,33,13
-1,36,37,-17,-19,36,-45,5,173,75,35,20
0,34,34,-17,-17,34,-31,21,204,89,38,31
1,32,31,-16,-15,31,-17,33,229,100,45,43
3,33,30,-18,-13,31,-9,38,246,110,56,52
3,38,35,-20,-16,36,-13,35,252,120,65,54
3,46,43,-24,-20,44,-22,29,252,129,72,53
5,53,48,-29,-21,50,-25,27,256,134,76,52
8,57,49,-32,-20,53,-24,28,261,135,77,52
9,58,49,-33,-20,53,-23,28,267,136,78,53
9,58,49,-33,-20,53,-24,28,272,136,78,53
8,57,49,-32,-20,53,-22,32,277,135,77,52
9,57,48,-33,-19,52,-19,38,282,135,77,52
8,59,51,-33,-21,55,-18,40,285,140,79,54
8,62,54,-35,-23,58,-19,39,286,145,81,57
10,65,55,-37,-22,60,-17,38,287,146,82,58
13,67,54,-40,-20,60,-14,38,287,146,82,58
16,70,54,-43,-19,62,-12,39,286,147,82,57
18,72,54,-45,-18,63,-13,39,286,150,82,57
21,73,52,-47,-15,62,-16,38,287,153,81,60
23,73,50,-48,-13,61,-18,38,287,155,81,62
24,71,47,-47,-11,59,-19,39,286,155,83,63
24,68,44,-46,-10,56,-18,39,286,155,86,63
23,65,42,-44,-9,53,-20,38,287,157,87,62
23,63,40,-43,-8,51,-23,38,287,160,87,62
26,62,36,-44,-5,49,-24,39,286,161,86,63
28,62,34,-45,-3,48,-24,39,286,161,86,63
29,65,36,-47,-3,50,-24,38,287,160,87,62
29,67,38,-48,-4,52,-24,38,287,161,86,62
28,68,40,-48,-6,54,-22,39,286,160,87,63
28,68,40,-48,-6,54,-19,39,286,160,87,63
28,67,39,-47,-5,53,-18,38,287,162,86,62
28,67,39,-47,-5,53,-18,38,287,164,86,62
29,68,39,-48,-5,53,-19,39,286,164,88,63
29,68,39,-48,-5,53,-19,39,286,164,91,63
27,67,40,-47,-6,53,-18,38,287,166,94,62
24,67,43,-45,-9,55,-18,38,287,169,96,62
23,69,46,-46,-11,57,-22,39,286,170,97,63
23,72,49,-47,-13,60,-28,39,286,170,97,63
26,73,47,-49,-10,60,-31,38,287,169,96,62
28,73,45,-50,-8,59,-33,38,287,170,96,62
29,71,42,-50,-6,56,-36,39,286,169,98,64
29,68,39,-48,-5,53,-38,39,286,169,101,67
28,65,37,-46,-4,51,-39,38,287,171,102,68
28,63,35,-45,-3,49,-39,38,287,174,102,68
30,62,32,-46,-1,47,-38,40,286,175,101,67
33,62,29,-47,2,45,-38,42,286,175,101,67
36,62,26,-49,5,44,-39,43,287,174,102,67
38,62,24,-50,7,43,-39,43,287,174,102,67
39,63,24,-51,7,43,-38,42,286,177,99,68
38,63,25,-50,6,44,-38,42,283,179,97,68
39,61,22,-50,8,41,-40,43,279,180,96,66
39,58,19,-48,10,38,-42,43,273,180,97,63
37,57,20,-47,8,38,-43,42,270,180,95,60
34,57,23,-45,5,40,-43,42,268,180,92,58
33,58,25,-45,4,41,-42,42,266,179,89,57
33,57,24,-45,4,40,-42,42,263,175,87,57
34,58,24,-46,5,41,-44,43,257,170,87,60
34,58,24,-46,5,41,-47,43,249,165,87,62
33,55,22,-44,5,38,-48,42,243,165,83,61
33,53,20,-43,6,36,-48,42,239,165,78,58
34,52,18,-43,8,35,-46,43,236,160,75,55
34,53,19,-43,7,36,-43,43,234,152,73,53
32,51,19,-41,6,35,-42,41,231,146,69,51
29,48,19,-38,5,33,-42,39,225,142,64,48
26,47,21,-36,2,34,-44,38,216,134,58,42
24,47,23,-35,0,35,-47,38,206,127,53,35
22,48,26,-35,-2,37,-48,38,195,122,49,29
19,48,29,-33,-5,38,-48,38,186,118,44,24
13,45,32,-29,-9,38,-46,40,178,110,37,19
5,40,35,-22,-15,37,-43,42,171,99,30,14
0,34,34,-17,-17,34,-42,44,165,88,25,10
0,29,29,-14,-14,29,-42,47,157,79,20,5
1,26,25,-13,-12,25,-44,50,146,71,12,-1
0,24,24,-12,-12,24,-47,52,133,64,5,-8
-5,22,27,-8,-16,24,-48,53,122,57,0,-11
-13,19,32,-3,-22,25,-48,53,113,49,-3,-13
-14,15,29,0,-21,22,-45,51,104,38,-9,-17
-13,9,22,2,-17,15,-43,48,94,25,-17,-22
-17,6,23,5,-20,14,-42,45,83,17,-25,-28
-23,4,27,9,-25,15,-42,43,74,10,-32,-33
-24,4,28,10,-26,16,-42,42,67,0,-37,-37
-23,4,27,9,-25,15,-42,42,60,-11,-41,-42
-25,2,27,11,-26,14,-43,43,46,-23,-49,-47
-28,0,28,14,-28,14,-43,43,31,-32,-56,-52
-28,0,28,14,-28,14,-39,42,22,-37,-61,-55
-28,0,28,14,-28,14,-34,42,19,-41,-62,-57
-32,-1,31,16,-31,15,-31,43,17,-48,-64,-57
-38,-3,35,20,-36,16,-29,43,14,-56,-67,-57
-39,-6,33,22,-36,13,-29,41,9,-62,-70,-60
-38,-8,30,23,-34,11,-29,39,1,-67,-72,-62
-40,-9,31,24,-35,11,-27,36,-6,-72,-75,-62
-42,-9,33,25,-37,12,-24,34,-13,-77,-77,-62
-43,-7,36,25,-39,14,-21,33,-16,-79,-79,-66
-42,-4,38,23,-40,17,-19,33,-18,-81,-81,-71
-44,-3,41,23,-42,19,-18,34,-20,-88,-84,-76
-47,-3,44,25,-45,20,-19,34,-23,-96,-86,-77
-50,-6,44,28,-47,19,-17,34,-27,-97,-87,-78
-52,-8,44,30,-48,18,-14,34,-33,-96,-87,-78
-52,-9,43,30,-47,17,-11,33,-37,-99,-87,-78
-52,-8,44,30,-48,18,-9,33,-41,-105,-90,-78
-54,-10,44,32,-49,17,-6,35,-47,-111,-97,-77
-57,-13,44,35,-50,15,-4,38,-52,-116,-105,-77
-58,-14,44,36,-51,15,-3,41,-53,-119,-110,-79
-58,-14,44,36,-51,15,-4,43,-52,-121,-111,-81
-57,-13,44,35,-50,15,-2,41,-54,-123,-112,-82
-57,-13,44,35,-50,15,0,39,-57,-125,-112,-82
-60,-16,44,38,-52,14,0,38,-60,-127,-111,-81
-62,-18,44,40,-53,13,0,38,-62,-130,-111,-81
-63,-19,44,41,-53,12,0,39,-65,-132,-113,-85
-62,-18,44,40,-53,13,0,38,-67,-135,-116,-91
-64,-20,44,42,-54,12,0,39,-68,-138,-117,-93
-67,-23,44,45,-55,10,0,39,-67,-140,-117,-92
-68,-24,44,46,-56,10,1,37,-69,-141,-115,-91
-68,-24,44,46,-56,10,3,34,-72,-141,-112,-91
-67,-23,44,45,-55,10,5,31,-73,-140,-109,-91
-68,-23,45,45,-56,11,8,29,-73,-141,-107,-91
-67,-26,41,46,-54,7,12,28,-72,-140,-106,-92
-67,-28,39,47,-53,5,17,28,-72,-140,-106,-92
-69,-28,41,48,-55,6,22,29,-73,-142,-107,-90
-72,-28,44,50,-58,8,24,29,-73,-145,-107,-87
-73,-32,41,52,-57,4,20,28,-73,-147,-106,-86
-73,-38,35,55,-54,-1,14,28,-73,-150,-106,-86
-72,-40,32,56,-52,-4,12,29,-72,-153,-107,-89
-72,-39,33,55,-52,-3,13,29,-72,-155,-107,-91
-73,-38,35,55,-54,-1,14,28,-73,-154,-106,-92
-73,-38,35,55,-54,-1,14,28,-73,-151,-106,-92
-71,-39,32,55,-51,-3,13,29,-71,-150,-107,-92
-68,-39,29,53,-48,-5,13,29,-68,-150,-107,-92
-67,-38,29,52,-48,-4,15,28,-64,-150,-105,-90
-67,-38,29,52,-48,-4,18,28,-58,-146,-102,-87
-68,-39,29,53,-48,-5,19,29,-55,-141,-99,-84
-67,-39,28,53,-47,-5,19,29,-53,-136,-97,-82
-68,-36,32,52,-50,-2,18,27,-51,-135,-96,-80
-68,-34,34,51,-51,0,18,24,-48,-136,-97,-78
-66,-33,33,49,-49,0,18,23,-44,-133,-95,-77
-63,-34,29,48,-46,-2,18,23,-39,-127,-92,-77
-62,-32,30,47,-46,-1,19,24,-35,-122,-89,-78
-62,-29,33,45,-47,2,19,23,-30,-117,-87,-78
-63,-28,35,45,-49,3,17,24,-24,-113,-85,-76
-63,-28,35,45,-49,3,14,24,-19,-111,-82,-73
-61,-29,32,45,-46,1,13,22,-18,-113,-80,-70
-58,-29,29,43,-43,0,13,19,-19,-116,-78,-68
-55,-27,28,41,-41,0,14,16,-15,-115,-77,-66
-53,-24,29,38,-41,2,13,14,-9,-112,-77,-63
-52,-22,30,37,-41,4,14,13,-6,-110,-78,-61
-52,-19,33,35,-42,7,14,13,-4,-108,-78,-58
-53,-14,39,33,-46,12,12,14,0,-101,-76,-56
-53,-9,44,31,-48,17,9,14,3,-93,-73,-53
-50,-8,42,29,-46,17,8,13,4,-89,-71,-51
-48,-8,40,28,-44,16,8,13,3,-87,-68,-48
-48,-9,39,28,-43,15,9,14,7,-83,-64,-45
-48,-8,40,28,-44,16,9,14,12,-78,-58,-43
-45,-9,36,27,-40,13,8,14,16,-75,-55,-41
-40,-9,31,24,-35,11,8,14,18,-73,-53,-39
-35,-7,28,21,-31,10,11,13,20,-71,-51,-36
-34,-4,30,19,-32,13,13,13,23,-68,-48,-34
-34,-1,33,17,-33,16,12,14,27,-64,-45,-33
-34,0,34,17,-34,17,9,14,33,-58,-43,-33
-32,0,32,16,-32,16,8,13,36,-55,-42,-34
-29,0,29,14,-29,14,9,13,38,-53,-43,-34
-28,0,28,14,-28,14,7,15,40,-53,-41,-33
-29,0,29,14,-29,14,4,18,42,-53,-39,-34
-27,0,27,13,-27,13,2,19,42,-51,-36,-33
-24,0,24,12,-24,12,0,19,42,-48,-34,-33
-21,0,21,10,-21,10,-1,18,44,-45,-32,-34
-19,0,19,9,-19,9,-3,19,47,-43,-29,-34
-18,1,19,8,-18,10,-4,18,48,-41,-26,-32
-18,3,21,7,-19,12,-4,18,48,-39,-24,-29
-20,2,22,9,-21,12,-3,20,47,-39,-23,-25
-23,0,23,11,-23,11,-3,23,47,-39,-24,-19
-24,0,24,12,-24,12,-6,24,50,-37,-22,-16
-24,0,24,12,-24,12,-8,24,52,-34,-19,-14
-22,0,22,11,-22,11,-7,21,51,-31,-16,-11
-19,0,19,9,-19,9,-4,19,48,-29,-14,-9
-16,1,17,7,-16,9,-3,18,47,-27,-11,-8
-14,3,17,5,-15,10,-3,18,47,-24,-9,-8
-13,4,17,4,-15,10,-3,19,48,-21,-8,-9
-13,3,16,5,-14,9,-3,19,48,-19,-8,-9
-16,5,21,5,-18,13,-5,18,47,-18,-9,-8
-18,8,26,5,-22,17,-8,18,47,-18,-9,-8
-19,9,28,5,-23,18,-9,19,48,-19,-8,-9
-19,9,28,5,-23,18,-9,19,48,-19,-8,-9
-19,8,27,5,-23,17,-8,18,47,-18,-9,-8
-19,8,27,5,-23,17,-8,18,47,-18,-9,-8
-17,9,26,4,-21,17,-9,20,48,-19,-7,-9
-14,9,23,2,-18,16,-9,23,48,-19,-4,-9
-11,8,19,1,-15,13,-8,24,47,-15,-2,-8
-9,8,17,0,-13,12,-9,23,47,-10,0,-8
-8,10,18,-1,-13,14,-8,25,49,-6,1,-9
-8,13,21,-2,-14,17,-8,28,52,-4,3,-9
-9,14,23,-2,-16,18,-9,29,53,-2,6,-7
-9,13,22,-2,-15,17,-9,29,53,0,8,-4
-8,15,23,-3,-15,19,-8,28,53,0,9,-3
-8,18,26,-5,-17,22,-8,29,56,0,9,-3
-9,20,29,-5,-19,24,-10,28,64,0,8,-3
-9,23,32,-7,-20,27,-13,28,71,3,8,0
-6,28,34,-11,-20,31,-14,30,75,7,12,3
-1,36,37,-17,-19,36,-14,33,77,12,17,8
5,47,42,-26,-18,44,-13,34,82,17,22,9
12,56,44,-34,-16,50,-14,33,90,22,27,9
18,62,44,-40,-13,53,-13,35,98,30,33,9
23,66,43,-44,-10,54,-10,38,105,38,38,12
24,73,49,-48,-12,61,-3,42,111,39,39,20
24,80,56,-52,-16,68,2,47,116,38,39,27
23,83,60,-53,-18,71,6,50,117,41,39,30
23,85,62,-54,-19,73,4,48,117,46,42,28
25,92,67,-58,-21,79,0,42,116,50,47,30
28,100,72,-64,-22,86,-14,31,116,52,52,33
29,103,74,-66,-22,88,-40,20,117,54,53,34
28,102,74,-65,-23,88,-71,10,117,57,53,33
30,102,72,-66,-21,87,-95,3,114,60,52,35
33,102,69,-67,-18,85,-109,-2,108,62,52,38
36,97,61,-66,-12,79,-117,-8,99,61,53,39
38,88,50,-63,-6,69,-121,-13,89,58,53,39
39,82,43,-60,-2,62,-122,-15,80,55,52,39
39,78,39,-58,0,58,-121,-14,73,53,52,42
39,75,36,-57,1,55,-122,-12,71,52,54,46
41,73,32,-57,4,52,-122,-9,72,52,57,51
48,72,24,-60,12,48,-119,-4,76,52,60,56
56,72,16,-64,20,44,-113,2,81,52,62,57
63,75,12,-69,25,43,-107,9,83,54,63,57
67,77,10,-72,28,43,-102,13,82,57,63,57
68,76,8,-72,30,42,-100,14,77,59,63,61
68,69,1,-68,33,35,-97,14,69,58,63,67
66,60,-6,-63,36,27,-91,14,62,53,61,69
63,50,-13,-56,38,18,-83,14,55,44,58,68
58,39,-19,-48,38,10,-77,10,44,38,55,66
53,30,-23,-41,38,3,-73,5,35,34,53,63
52,25,-27,-38,39,-1,-70,0,32,33,52,60
52,24,-28,-38,40,-2,-68,-3,33,33,53,58
52,24,-28,-38,40,-2,-66,-8,34,34,51,58
49,24,-25,-36,37,0,-64,-13,33,34,48,58
41,22,-19,-31,30,1,-58,-15,35,32,45,54
31,19,-12,-25,21,3,-49,-14,38,29,43,49
20,17,-3,-18,11,7,-41,-12,39,26,41,44
10,14,4,-12,3,9,-35,-9,39,24,39,40
3,9,6,-6,-1,7,-30,-7,38,24,37,35
-2,4,6,-1,-4,5,-25,-4,38,24,35,30
-7,2,9,2,-8,5,-18,-1,40,20,28,25
-12,3,15,4,-13,9,-10,2,42,14,20,20
-18,4,22,7,-20,13,-5,7,45,13,15,12
-23,4,27,9,-25,15,-1,12,47,14,14,5
-26,2,28,12,-27,15,4,18,48,12,13,1
-28,0,28,14,-28,14,8,23,48,9,13,0
-31,-1,30,16,-30,14,9,26,48,8,14,0
-33,-3,30,18,-31,13,8,28,48,9,14,0
-34,-4,30,19,-32,13,10,31,46,7,12,-1
-34,-4,30,19,-32,13,13,33,43,4,9,-3
-33,-3,30,18,-31,13,14,34,42,3,8,-6
-33,-3,30,18,-31,13,14,34,42,3,8,-8
-34,-4,30,19,-32,13,14,33,43,4,9,-9
-34,-3,31,18,-32,14,14,33,43,4,9,-9
-32,-4,28,18,-30,12,12,34,42,3,9,-8
-29,-4,25,16,-27,10,9,34,42,4,9,-8
-28,-3,25,15,-26,11,8,33,44,3,8,-8
-28,-3,25,15,-26,11,8,33,47,3,8,-8
-29,-5,24,17,-26,9,9,34,48,4,10,-9
-29,-8,21,18,-25,6,9,34,48,4,13,-9
-28,-11,17,19,-22,3,8,33,47,2,15,-7
-28,-13,15,20,-21,1,8,33,47,0,14,-4
-29,-14,15,21,-22,0,10,35,48,0,11,-3
-29,-13,16,21,-22,1,13,38,48,0,9,-3
-28,-14,14,21,-21,0,16,41,46,0,9,-5
-28,-14,14,21,-21,0,18,43,43,-3,9,-8
-30,-11,19,20,-24,4,18,39,40,-5,6,-11
-33,-2,31,17,-32,14,15,31,35,-5,3,-13
-36,12,48,12,-42,30,7,20,25,5,10,-11
-35,33,68,1,-51,50,-5,4,8,39,34,0
-25,56,81,-15,-53,68,-23,-17,-14,114,82,24
-5,77,82,-36,-43,79,-46,-45,-48,224,151,66
22,95,73,-58,-25,84,-77,-78,-97,357,239,125
67,112,45,-89,11,78,-119,-116,-159,543,366,216
139,133,-6,-136,72,63,-173,-159,-226,823,556,355
221,149,-72,-185,146,38,-224,-194,-289,1128,763,512
288,146,-142,-217,215,2,-254,-206,-341,1340,909,638
327,107,-220,-217,273,-56,-256,-191,-401,1369,940,696
328,20,-308,-174,318,-144,-232,-153,-493,1154,821,661
301,-101,-402,-100,351,-251,-184,-91,-607,770,591,553
257,-228,-485,-14,371,-356,-115,-6,-722,350,325,412
200,-332,-532,66,366,-432,-43,70,-883,-48,68,263
128,-390,-518,131,323,-454,9,98,-1152,-405,-146,122
54,-408,-462,177,258,-435,42,87,-1465,-695,-306,3
-1,-406,-405,203,202,-405,63,66,-1711,-896,-411,-80
-40,-406,-366,223,163,-386,88,56,-1854,-1015,-475,-139
-71,-427,-356,249,142,-391,134,72,-1900,-1074,-523,-187
-93,-464,-371,278,139,-417,188,104,-1881,-1092,-556,-223
-102,-499,-397,300,147,-448,229,136,-1839,-1086,-565,-238
-102,-536,-434,319,166,-485,250,163,-1772,-1061,-558,-236
-100,-581,-481,340,190,-531,256,187,-1662,-1022,-546,-225
-97,-618,-521,357,212,-569,247,196,-1519,-963,-524,-206
-94,-625,-531,359,218,-578,225,177,-1362,-879,-482,-176
-89,-593,-504,341,207,-548,179,130,-1206,-776,-421,-139
-76,-523,-447,299,185,-485,104,66,-1060,-665,-350,-104
-61,-434,-373,247,156,-403,12,0,-924,-555,-278,-74
-48,-350,-302,199,127,-326,-71,-52,-791,-457,-215,-50
-40,-274,-234,157,97,-254,-128,-79,-656,-373,-165,-32
-36,-206,-170,121,67,-188,-145,-76,-516,-303,-131,-19
-34,-154,-120,94,43,-137,-131,-50,-377,-242,-107,-10
-32,-127,-95,79,31,-111,-106,-17,-251,-185,-82,-4
-29,-115,-86,72,28,-100,-82,9,-144,-130,-54,2
-27,-97,-70,62,21,-83,-67,19,-58,-74,-27,11
-24,-70,-46,47,11,-58,-63,15,6,-24,-1,21
-20,-39,-19,29,0,-29,-64,9,53,14,21,31
-15,-10,5,12,-10,-2,-67,5,89,38,39,37
-9,12,21,-1,-15,16,-68,1,121,52,49,40
-4,26,30,-11,-17,28,-64,2,153,60,52,42
-2,33,35,-15,-18,34,-56,13,184,73,53,45
0,34,34,-17,-17,34,-45,30,213,88,56,51
3,32,29,-17,-13,30,-34,42,234,100,64,57
8,33,25,-20,-8,29,-28,47,246,109,75,62
11,38,27,-24,-8,32,-33,45,249,118,83,63
13,46,33,-29,-10,39,-41,39,248,125,86,63
16,51,35,-33,-9,43,-44,38,248,127,87,62
18,53,35,-35,-8,44,-43,38,251,126,87,62
19,51,32,-35,-6,41,-42,38,256,125,86,63
19,48,29,-33,-5,38,-43,38,261,125,87,63
18,47,29,-32,-5,38,-41,42,267,126,86,62
19,47,28,-33,-4,37,-39,47,271,129,86,62
18,48,30,-33,-6,39,-38,49,275,136,88,64
18,48,30,-33,-6,39,-38,48,277,144,91,67
20,47,27,-33,-3,37,-38,46,278,147,92,68
23,47,24,-35,0,35,-38,43,278,146,92,68
24,49,25,-36,0,37,-39,41,277,145,91,67
24,52,28,-38,-2,40,-42,39,277,145,92,67
23,54,31,-38,-4,42,-45,38,278,146,91,69
23,57,34,-40,-5,45,-47,38,278,146,91,72
24,60,36,-42,-6,48,-48,39,277,145,93,73
24,62,38,-43,-7,50,-48,39,277,145,96,73
23,63,40,-43,-8,51,-48,38,278,146,97,72
23,63,40,-43,-8,51,-48,38,278,146,97,72
25,62,37,-43,-6,49,-46,39,278,144,96,73
28,62,34,-45,-3,48,-43,39,278,141,96,73
29,63,34,-46,-2,48,-42,38,277,140,97,72
29,63,34,-46,-2,48,-43,38,277,140,97,72
28,61,33,-44,-2,47,-42,39,278,140,96,73
29,58,29,-43,0,43,-42,39,278,140,96,73
28,57,29,-42,0,43,-46,38,277,142,97,72
28,57,29,-42,0,43,-51,38,277,145,96,72
31,58,27,-44,2,42,-55,39,278,146,97,73
33,58,25,-45,4,41,-57,39,278,145,97,73
33,57,24,-45,4,40,-57,38,276,147,96,72
29,57,28,-43,0,42,-57,38,273,150,96,72
26,59,33,-42,-3,46,-59,39,270,151,97,73
23,62,39,-42,-8,50,-62,39,268,151,97,73
25,63,38,-44,-6,50,-63,38,267,150,96,72
28,63,35,-45,-3,49,-62,38,267,151,96,72
29,62,33,-45,-2,47,-64,39,268,150,98,74
28,62,34,-45,-3,48,-67,39,267,150,101,77
30,63,33,-46,-1,48,-68,37,268,152,102,78
33,63,30,-48,1,46,-68,34,268,155,102,78
36,62,26,-49,5,44,-67,33,266,156,102,78
38,63,25,-50,6,44,-67,34,263,156,102,78
39,62,23,-50,8,42,-69,32,260,154,101,76
39,62,23,-50,8,42,-72,29,258,151,98,73
38,63,25,-50,6,44,-74,26,256,149,92,70
38,63,25,-50,6,44,-77,24,253,146,87,68
39,62,23,-50,8,42,-79,23,249,142,86,66
39,62,23,-50,8,42,-81,23,245,137,87,63
37,64,27,-50,5,45,-82,24,241,133,85,60
34,67,33,-50,0,50,-82,24,239,131,82,58
33,69,36,-51,-1,52,-81,23,237,129,79,57
33,72,39,-52,-3,55,-81,23,235,127,78,57
34,75,41,-54,-3,58,-83,24,228,121,78,58
34,77,43,-55,-4,60,-86,24,220,117,78,58
33,76,43,-54,-5,59,-87,23,214,118,74,54
33,73,40,-53,-3,56,-87,23,209,121,69,49
34,73,39,-53,-2,56,-85,24,206,119,65,45
34,73,39,-53,-2,56,-82,24,204,113,63,43
32,70,38,-51,-3,54,-81,22,201,109,59,43
29,64,35,-46,-3,49,-81,19,196,107,54,43
26,59,33,-42,-3,46,-84,18,188,103,48,41
24,58,34,-41,-5,46,-86,18,177,98,43,39
22,58,36,-40,-7,47,-86,19,167,94,41,37
19,58,39,-38,-10,48,-83,18,158,92,39,34
15,55,40,-35,-12,47,-78,19,149,88,35,30
9,49,40,-29,-15,44,-73,19,142,80,30,25
7,44,37,-25,-15,40,-71,17,137,70,25,20
8,39,31,-23,-11,35,-72,14,132,60,20,15
10,36,26,-23,-8,31,-74,13,124,51,13,8
9,34,25,-21,-8,29,-77,13,114,44,5,1
4,32,28,-18,-12,30,-78,14,104,38,0,-2
-2,29,31,-13,-16,30,-78,14,94,31,-2,-3
-4,25,29,-10,-16,27,-76,13,85,19,-8,-6
-3,20,23,-8,-13,21,-73,14,75,6,-16,-12
-7,16,23,-4,-15,19,-71,13,64,-1,-25,-17
-13,14,27,0,-20,20,-68,13,54,-7,-32,-22
-14,14,28,0,-21,21,-65,14,49,-15,-37,-27
-13,14,27,0,-20,20,-63,14,44,-26,-41,-32
-15,10,25,2,-20,17,-63,12,34,-35,-48,-37
-18,5,23,6,-20,14,-63,9,21,-41,-56,-41
-18,1,19,8,-18,10,-60,6,13,-46,-60,-45
-18,0,18,9,-18,9,-54,4,9,-51,-62,-48
-22,-1,21,11,-21,10,-50,3,7,-58,-64,-46
-28,-3,25,15,-26,11,-48,4,4,-66,-67,-43
-29,-6,23,17,-26,8,-48,3,0,-72,-69,-42
-28,-8,20,18,-24,6,-48,0,-6,-76,-72,-42
-30,-9,21,19,-25,6,-46,-1,-15,-81,-74,-42
-33,-9,24,21,-28,7,-43,-3,-22,-86,-77,-42
-34,-8,26,21,-30,9,-40,-4,-26,-88,-79,-45
-33,-8,25,20,-29,8,-39,-4,-28,-90,-81,-51
-35,-10,25,22,-30,7,-39,-3,-30,-97,-84,-57
-38,-13,25,25,-31,6,-39,-4,-33,-105,-86,-61
-41,-16,25,28,-33,4,-37,-3,-37,-108,-87,-65
-42,-18,24,30,-33,3,-34,-3,-41,-107,-87,-67
-42,-19,23,30,-32,2,-32,-5,-46,-108,-86,-68
-42,-18,24,30,-33,3,-29,-8,-51,-111,-86,-68
-44,-20,24,32,-34,2,-26,-11,-57,-114,-88,-67
-47,-23,24,35,-35,0,-24,-13,-62,-116,-91,-67
-48,-24,24,36,-36,0,-23,-14,-63,-118,-92,-69
-48,-24,24,36,-36,0,-24,-13,-62,-121,-92,-72
-47,-23,24,35,-35,0,-22,-15,-64,-123,-91,-73
-47,-23,24,35,-35,0,-19,-18,-67,-125,-91,-73
-49,-25,24,37,-36,0,-17,-20,-68,-127,-92,-72
-52,-28,24,40,-38,-2,-14,-23,-68,-130,-95,-72
-53,-29,24,41,-38,-2,-11,-26,-68,-132,-101,-76
-52,-28,24,40,-38,-2,-9,-28,-68,-135,-106,-81
-54,-30,24,42,-39,-3,-8,-29,-66,-139,-107,-82
-57,-33,24,45,-40,-4,-9,-29,-63,-144,-107,-82
-58,-34,24,46,-41,-5,-7,-28,-62,-148,-106,-81
-58,-33,25,45,-41,-4,-4,-28,-62,-150,-106,-81
-57,-34,23,45,-40,-5,-2,-29,-63,-151,-107,-81
-58,-37,21,47,-39,-8,0,-29,-62,-151,-107,-81
-57,-42,15,49,-36,-13,0,-28,-63,-150,-106,-82
-57,-47,10,52,-33,-18,3,-28,-63,-150,-106,-82
-59,-48,11,53,-35,-18,7,-28,-61,-151,-107,-80
-62,-47,15,54,-38,-16,13,-28,-58,-151,-107,-78
-63,-51,12,57,-37,-19,14,-29,-55,-149,-106,-77
-63,-56,7,59,-35,-24,14,-29,-53,-146,-106,-77
-62,-59,3,60,-32,-28,13,-28,-52,-145,-107,-78
-62,-58,4,60,-33,-27,13,-28,-53,-146,-107,-78
-63,-57,6,60,-34,-25,13,-29,-52,-144,-106,-76
-63,-57,6,60,-34,-25,13,-29,-49,-141,-106,-73
-62,-58,4,60,-33,-27,14,-27,-43,-140,-107,-72
-62,-58,4,60,-33,-27,17,-24,-36,-141,-107,-73
-64,-57,7,60,-35,-25,23,-21,-28,-140,-105,-71
-67,-57,10,62,-38,-23,28,-19,-20,-137,-102,-68
-68,-58,10,63,-39,-24,29,-18,-14,-131,-99,-66
-68,-58,10,63,-39,-24,29,-18,-10,-126,-97,-63
-68,-56,12,62,-40,-22,28,-20,-5,-125,-96,-60
-68,-53,15,60,-41,-19,28,-23,-1,-126,-97,-58
-66,-52,14,59,-40,-19,28,-25,3,-123,-95,-57
-63,-53,10,58,-36,-21,28,-28,7,-118,-92,-57
-62,-51,11,56,-36,-20,29,-31,12,-112,-89,-58
-62,-48,14,55,-38,-17,29,-33,17,-108,-87,-58
-63,-47,16,55,-39,-15,27,-34,23,-104,-85,-56
-63,-47,16,55,-39,-15,24,-34,28,-102,-82,-53
-61,-48,13,54,-37,-17,23,-33,29,-102,-79,-51
-59,-48,11,53,-35,-18,23,-33,28,-102,-74,-48
-54,-46,8,50,-31,-19,24,-34,32,-98,-69,-46
-49,-43,6,46,-27,-18,24,-34,37,-93,-64,-43
-45,-42,3,43,-24,-19,24,-33,40,-90,-60,-41
-43,-43,0,43,-21,-21,24,-33,41,-88,-58,-39
-43,-41,2,42,-22,-19,23,-34,48,-82,-56,-37
-43,-39,4,41,-23,-17,23,-34,56,-74,-53,-34
-41,-38,3,39,-22,-17,25,-33,60,-70,-51,-31
-39,-38,1,38,-20,-18,28,-33,62,-68,-48,-29
-39,-38,1,38,-20,-18,29,-34,66,-64,-44,-28
-42,-38,4,40,-23,-17,29,-34,71,-59,-40,-28
-43,-39,4,41,-23,-17,27,-33,75,-55,-36,-29
-43,-39,4,41,-23,-17,24,-33,77,-53,-34,-29
-42,-36,6,39,-24,-15,23,-34,79,-51,-32,-27
-42,-30,12,36,-27,-9,24,-34,81,-48,-29,-24
-43,-24,19,33,-31,-2,22,-33,84,-44,-26,-23
-43,-19,24,31,-33,2,19,-33,86,-40,-24,-23
-40,-18,22,29,-31,2,18,-34,87,-36,-23,-24
-35,-18,17,26,-26,0,18,-34,86,-34,-24,-24
-31,-19,12,25,-21,-3,19,-33,88,-34,-22,-22
-29,-19,10,24,-19,-4,18,-33,91,-34,-19,-19
-27,-18,9,22,-18,-4,19,-35,92,-32,-18,-16
-24,-18,6,21,-15,-6,19,-38,91,-29,-18,-14
-21,-19,2,20,-11,-8,17,-39,93,-27,-19,-13
-19,-19,0,19,-9,-9,14,-38,96,-24,-19,-14
-19,-17,2,18,-10,-7,13,-40,97,-21,-17,-12
-22,-14,8,18,-15,-3,13,-42,97,-19,-14,-9
-26,-13,13,19,-19,0,14,-43,96,-18,-13,-6
-29,-14,15,21,-22,0,14,-43,96,-18,-14,-4
-27,-12,15,19,-21,1,12,-42,98,-19,-12,-3
-24,-9,15,16,-19,3,9,-42,101,-19,-9,-4
-23,-8,15,15,-19,3,8,-43,102,-15,-7,-2
-24,-9,15,16,-19,3,8,-43,102,-9,-4,0
-22,-7,15,14,-18,4,10,-41,100,-9,-2,0
-19,-4,15,11,-17,5,13,-39,97,-12,0,0
-18,-2,16,10,-17,7,16,-38,96,-17,0,0
-18,0,18,9,-18,9,18,-38,96,-19,0,0
-19,0,19,9,-19,9,18,-39,97,-16,0,0
-19,0,19,9,-19,9,14,-38,97,-10,0,0
-18,0,18,9,-18,9,11,-39,96,-4,0,0
-18,0,18,9,-18,9,9,-39,96,0,0,0
-19,0,19,9,-19,9,8,-37,96,0,0,0
-19,0,19,9,-19,9,8,-34,96,0,0,0
-18,0,18,9,-18,9,9,-31,97,0,0,0
-18,0,18,9,-18,9,9,-29,97,0,0,0
-19,-1,18,10,-18,8,9,-28,96,0,0,0
-19,-3,16,11,-17,6,9,-28,96,3,0,-3
-18,-4,14,11,-16,5,8,-28,98,6,0,-6
-18,-4,14,11,-16,5,8,-28,101,8,3,-8
-19,-4,15,11,-17,5,10,-30,101,8,6,-7
-19,-4,15,11,-17,5,13,-33,98,4,8,-4
-18,-3,15,10,-16,6,16,-36,93,1,9,-3
-18,0,18,9,-18,9,18,-38,91,0,9,-3
-19,2,21,8,-20,11,17,-39,94,0,8,-3
-19,7,26,6,-22,16,14,-39,100,2,8,-1
-16,14,30,1,-23,22,13,-37,103,7,11,3
-10,25,35,-7,-22,30,13,-34,105,12,17,8
-4,38,42,-17,-23,40,15,-33,112,17,22,10
2,50,48,-26,-23,49,18,-33,122,22,27,9
8,59,51,-33,-21,55,21,-33,133,29,33,7
13,65,52,-39,-19,58,26,-30,143,37,38,8
14,73,59,-43,-22,66,35,-24,150,40,39,12
14,80,66,-47,-26,73,45,-16,155,39,39,17
13,83,70,-48,-28,76,51,-9,156,40,39,19
13,85,72,-49,-29,78,53,-8,156,42,42,19
17,92,75,-54,-29,83,50,-14,155,43,45,19
22,100,78,-61,-28,89,42,-25,155,42,47,19
26,103,77,-64,-25,90,25,-36,156,44,46,16
28,101,73,-64,-22,87,2,-45,156,47,43,14
30,103,73,-66,-21,88,-21,-55,153,50,42,15
33,106,73,-69,-20,89,-42,-65,147,52,42,18
36,106,70,-71,-17,88,-60,-73,140,53,42,19
38,102,64,-70,-13,83,-71,-80,132,53,42,18
37,99,62,-68,-12,80,-74,-85,126,52,43,19
34,97,63,-65,-14,80,-73,-90,122,52,46,22
32,95,63,-63,-15,79,-73,-95,120,53,51,27
33,92,59,-62,-13,75,-73,-97,121,53,56,32
38,91,53,-64,-7,72,-70,-90,124,52,60,36
45,91,46,-68,0,68,-64,-77,129,52,62,38
52,92,40,-72,6,66,-58,-63,132,54,63,38
57,92,35,-74,11,63,-53,-54,132,57,63,38
58,88,30,-73,14,59,-51,-51,126,59,63,41
58,80,22,-69,18,51,-49,-52,119,59,63,46
56,71,15,-63,20,43,-43,-52,112,53,61,49
54,61,7,-57,23,34,-36,-52,104,44,58,48
49,50,1,-49,24,25,-29,-56,94,39,55,46
44,40,-4,-42,24,18,-25,-61,83,38,53,43
41,35,-6,-38,23,14,-21,-65,80,40,52,41
42,34,-8,-38,25,13,-19,-67,81,42,53,39
43,34,-9,-38,26,12,-17,-71,82,43,51,39
43,34,-9,-38,26,12,-15,-76,81,43,48,39
39,32,-7,-35,23,12,-10,-80,83,42,46,36
31,29,-2,-30,16,13,-5,-82,86,40,43,30
21,27,6,-24,7,16,0,-81,86,34,40,23
11,25,14,-18,-1,19,2,-78,83,26,35,16
3,20,17,-11,-7,18,6,-76,79,19,30,8
-2,15,17,-6,-9,16,12,-73,78,15,25,1
-7,12,19,-2,-13,15,19,-69,78,9,18,-3
-12,13,25,0,-18,19,27,-64,81,4,10,-7
-17,14,31,1,-24,22,32,-59,83,3,5,-12
-22,14,36,4,-29,25,37,-54,86,3,4,-18
-26,12,38,7,-32,25,42,-48,88,3,3,-19
-28,9,37,9,-32,23,47,-43,91,3,3,-19
-30,6,36,12,-33,21,48,-42,94,5,4,-18
-33,4,37,14,-35,20,47,-42,96,8,4,-18
-34,3,37,15,-35,20,49,-43,95,7,2,-20
-34,3,37,15,-35,20,52,-43,92,4,0,-23
-33,4,37,14,-35,20,53,-42,91,3,0,-25
-33,4,37,14,-35,20,53,-42,91,3,0,-28
-34,4,38,15,-36,21,52,-43,92,4,0,-30
-34,4,38,15,-36,21,53,-43,92,4,0,-33
-33,3,36,15,-34,19,52,-43,91,4,0,-36
-33,3,36,15,-34,19,52,-43,91,4,0,-38
-36,5,41,15,-38,23,54,-42,93,3,-1,-39
-41,8,49,16,-45,28,57,-42,96,3,-3,-39
-45,11,56,17,-50,33,58,-43,97,5,-4,-39
-47,13,60,17,-53,36,58,-43,97,8,-4,-39
-48,14,62,17,-55,38,58,-42,97,8,-3,-37
-48,13,61,17,-54,37,58,-42,97,8,-3,-34
-47,14,61,16,-54,37,57,-44,96,12,-4,-32
-47,14,61,16,-54,37,57,-44,96,15,-7,-32
-48,10,58,19,-53,34,61,-36,99,6,-13,-38
-48,5,53,21,-50,29,66,-26,102,-6,-18,-46
-46,2,48,22,-47,25,69,-21,99,-11,-18,-50
-46,6,52,20,-49,29,68,-22,93,-15,-17,-55
-56,18,74,19,-65,46,67,-27,90,-34,-25,-68
-70,34,104,18,-87,69,67,-32,88,-55,-33,-84
-75,49,124,13,-99,86,68,-38,80,-48,-26,-87
-64,66,130,-1,-97,98,59,-54,58,14,16,-62
-33,93,126,-30,-79,109,27,-92,15,158,116,3
16,127,111,-71,-47,119,-23,-145,-43,363,264,103
78,154,76,-116,1,115,-75,-195,-110,592,431,218
151,171,20,-161,65,95,-123,-237,-173,836,609,348
236,179,-57,-207,146,61,-164,-269,-224,1095,793,498
317,169,-148,-243,232,10,-196,-292,-280,1296,939,637
367,129,-238,-248,302,-54,-215,-302,-369,1328,984,713
374,50,-324,-212,349,-137,-203,-277,-486,1150,884,694
328,-71,-399,-128,363,-235,-139,-187,-607,767,621,565
249,-205,-454,-22,351,-329,-48,-71,-751,289,275,373
165,-302,-467,68,316,-384,23,0,-958,-123,-17,195
88,-347,-435,129,261,-391,68,16,-1211,-435,-222,54
22,-346,-368,162,195,-357,96,0,-1463,-676,-357,-58
-36,-326,-290,181,127,-308,121,-24,-1670,-865,-452,-153
-90,-322,-232,206,71,-277,159,-29,-1796,-1008,-538,-240
-132,-344,-212,238,40,-278,208,-7,-1845,-1101,-609,-308
-152,-389,-237,270,42,-313,260,38,-1842,-1133,-642,-339
-155,-446,-291,300,68,-368,305,95,-1802,-1125,-648,-345
-158,-499,-341,328,91,-420,337,145,-1736,-1114,-652,-350
-164,-538,-374,351,105,-456,347,170,-1637,-1089,-647,-350
-164,-554,-390,359,113,-472,331,153,-1493,-1014,-604,-324
-158,-546,-388,352,115,-467,292,107,-1326,-902,-533,-281
-147,-521,-374,334,113,-447,239,57,-1172,-790,-463,-240
-131,-473,-342,302,105,-407,170,7,-1038,-687,-398,-208
-113,-394,-281,253,84,-337,81,-52,-907,-588,-334,-179
-96,-296,-200,196,52,-248,-7,-111,-775,-493,-273,-153
-82,-204,-122,143,20,-163,-66,-150,-641,-411,-226,-129
-70,-135,-65,102,-2,-100,-87,-156,-504,-337,-189,-111
-61,-103,-42,82,-9,-72,-74,-124,-363,-267,-157,-98
-54,-94,-40,74,-7,-67,-46,-75,-227,-199,-126,-89
-49,-81,-32,65,-8,-56,-26,-42,-110,-134,-95,-79
-44,-57,-13,50,-15,-35,-19,-33,-20,-77,-66,-66
-38,-24,14,31,-26,-5,-18,-39,37,-34,-38,-54
-31,9,40,11,-35,24,-18,-53,76,-3,-14,-45
-23,38,61,-7,-42,49,-18,-67,113,19,2,-39
-15,58,73,-21,-44,65,-15,-73,153,37,12,-35
-10,68,78,-29,-44,73,-8,-65,191,54,15,-30
-5,72,77,-33,-41,74,0,-47,224,69,17,-25
0,75,75,-37,-37,75,11,-34,253,80,24,-20
3,80,77,-41,-37,78,18,-29,274,89,35,-15
4,87,83,-45,-39,85,16,-30,280,98,45,-11
3,94,91,-48,-44,92,10,-33,278,105,51,-9
5,101,96,-53,-45,98,9,-32,278,108,55,-7
8,106,98,-57,-45,102,13,-29,281,107,57,-4
9,107,98,-58,-44,102,14,-29,286,106,58,-3
9,107,98,-58,-44,102,13,-29,290,107,58,-3
8,106,98,-57,-45,102,15,-25,295,106,57,-4
9,106,97,-57,-44,101,18,-20,300,106,57,-4
8,108,100,-58,-46,104,19,-17,304,110,59,-3
8,111,103,-59,-47,107,18,-18,306,115,62,-3
10,113,103,-61,-46,108,20,-19,307,117,63,-5
13,116,103,-64,-45,109,23,-19,307,116,63,-8
14,119,105,-66,-45,112,24,-18,306,119,62,-9
14,121,107,-67,-46,114,24,-18,306,128,63,-9
13,122,109,-67,-48,115,22,-19,307,138,62,-7
13,122,109,-67,-48,115,19,-19,307,145,62,-4
14,121,107,-67,-46,114,18,-18,306,144,64,-3
14,122,108,-68,-47,115,19,-18,306,137,67,-3
13,121,108,-67,-47,114,17,-19,307,133,68,-3
13,121,108,-67,-47,114,14,-18,307,131,68,-3
15,123,108,-69,-46,115,13,-19,305,130,66,-5
18,128,110,-73,-46,119,13,-19,302,130,63,-8
19,136,117,-77,-49,126,14,-18,299,131,60,-11
19,144,125,-81,-53,134,13,-18,297,131,58,-13
18,148,130,-83,-56,139,14,-19,296,129,57,-14
19,150,131,-84,-56,140,14,-19,296,126,57,-14
18,152,134,-85,-58,143,12,-18,297,125,58,-13
18,155,137,-86,-59,146,9,-18,297,126,58,-13
20,156,136,-88,-58,146,8,-20,296,124,57,-14
23,156,133,-89,-55,144,8,-23,296,122,57,-14
24,155,131,-89,-53,143,9,-26,297,121,58,-13
24,155,131,-89,-53,143,9,-28,297,121,58,-13
23,157,134,-90,-55,145,7,-29,295,122,56,-15
23,160,137,-91,-57,148,4,-29,292,122,54,-17
25,161,136,-93,-55,148,3,-28,289,121,50,-21
28,160,132,-94,-52,146,4,-28,287,121,48,-23
29,161,132,-95,-51,146,2,-28,286,122,49,-22
29,164,135,-96,-53,149,0,-28,286,124,52,-19
28,166,138,-97,-55,152,0,-29,287,129,53,-18
28,169,141,-98,-56,155,0,-29,287,134,53,-18
29,171,142,-100,-56,156,0,-27,286,136,52,-19
29,174,145,-101,-58,159,0,-24,283,136,52,-19
29,176,147,-102,-59,161,0,-23,281,135,53,-19
29,179,150,-104,-60,164,0,-23,278,136,53,-19
28,180,152,-104,-62,166,0,-24,276,135,51,-18
28,180,152,-104,-62,166,0,-24,274,132,48,-18
29,178,149,-103,-60,163,-1,-24,269,127,47,-20
29,175,146,-102,-58,160,-3,-24,264,122,48,-23
27,173,146,-100,-59,159,-4,-23,260,121,46,-26
24,170,146,-97,-61,158,-4,-23,258,121,44,-28
23,167,144,-95,-60,155,-3,-24,256,121,40,-29
23,165,142,-94,-59,153,-3,-24,254,118,38,-29
24,164,140,-94,-58,152,-5,-21,250,114,40,-28
24,165,141,-94,-58,153,-8,-15,245,111,42,-28
23,164,141,-93,-59,152,-10,-9,241,113,42,-32
23,161,138,-92,-57,149,-9,-5,239,116,39,-37
25,159,134,-92,-54,146,-6,-2,238,114,37,-40
28,157,129,-92,-50,143,-1,-3,239,108,35,-39
29,152,123,-90,-47,137,2,-6,238,104,30,-38
29,147,118,-88,-44,132,4,-8,235,102,25,-38
27,142,115,-84,-44,128,2,-8,229,98,21,-41
24,137,113,-80,-44,125,0,-5,221,93,19,-46
22,132,110,-77,-44,121,0,-2,213,90,18,-50
20,127,107,-73,-43,117,0,0,206,88,15,-52
15,123,108,-69,-46,115,1,0,199,83,9,-54
10,118,108,-64,-49,113,3,0,192,75,1,-57
7,113,106,-60,-49,109,4,0,185,67,-3,-58
8,108,100,-58,-46,104,4,0,177,60,-7,-61
10,105,95,-57,-42,100,3,1,167,52,-13,-68
10,106,96,-58,-43,101,3,3,154,45,-21,-76
4,107,103,-55,-49,105,5,4,143,38,-28,-80
-2,107,109,-52,-55,108,7,3,133,31,-32,-81
-4,104,108,-50,-56,106,11,5,126,22,-36,-84
-3,98,101,-47,-52,99,13,8,119,11,-41,-90
-6,94,100,-44,-53,97,13,10,111,4,-46,-95
-12,92,104,-40,-58,98,13,13,103,1,-51,-100
-14,89,103,-37,-58,96,16,15,100,-3,-54,-105
-13,84,97,-35,-55,90,22,18,98,-7,-56,-110
-15,76,91,-30,-53,83,27,21,91,-10,-61,-115
-18,69,87,-25,-52,78,32,23,81,-13,-66,-120
-18,67,85,-24,-51,76,37,24,72,-16,-70,-124
-18,67,85,-24,-51,76,41,24,68,-21,-72,-125
-21,67,88,-23,-54,77,45,23,66,-29,-74,-125
-27,64,91,-18,-59,77,47,23,64,-36,-76,-125
-31,60,91,-14,-61,75,46,24,58,-42,-80,-127
-33,58,91,-12,-62,74,43,24,50,-46,-85,-130
-37,57,94,-10,-65,75,41,24,42,-51,-90,-131
-42,57,99,-7,-70,78,42,24,35,-56,-95,-130
-43,58,101,-7,-72,79,44,23,31,-59,-99,-132
-43,58,101,-7,-72,79,47,23,29,-61,-101,-135
-43,56,99,-6,-71,77,48,24,28,-68,-103,-136
-46,54,100,-4,-73,77,47,24,25,-76,-106,-136
-50,50,100,0,-75,75,49,22,19,-79,-107,-135
-52,48,100,2,-76,74,52,19,11,-78,-106,-136
-53,47,100,3,-76,73,54,17,4,-79,-107,-135
-52,48,100,2,-76,74,57,14,-2,-84,-110,-135
-54,46,100,4,-77,73,60,12,-8,-92,-115,-136
-57,43,100,7,-78,71,62,9,-13,-99,-120,-139
-58,42,100,8,-79,71,63,7,-14,-106,-122,-144
-58,42,100,8,-79,71,62,4,-13,-110,-122,-149
-57,43,100,7,-78,71,64,2,-16,-113,-121,-152
-57,43,100,7,-78,71,67,0,-22,-116,-122,-151
-59,41,100,9,-79,70,68,0,-27,-118,-121,-150
-62,39,101,11,-81,70,68,0,-32,-121,-121,-150
-63,38,101,12,-82,69,67,0,-36,-123,-123,-154
-62,39,101,11,-81,70,67,0,-38,-125,-125,-159
-64,37,101,13,-82,69,68,0,-39,-127,-126,-162
-67,34,101,16,-84,67,67,0,-38,-130,-126,-161
-68,33,101,17,-84,67,68,0,-40,-131,-125,-160
-68,33,101,17,-84,67,68,0,-42,-131,-125,-160
-68,34,102,17,-85,68,67,0,-43,-130,-126,-161
-68,34,102,17,-85,68,67,0,-43,-131,-126,-160
-66,32,98,17,-82,65,69,0,-42,-130,-125,-161
-63,29,92,17,-77,60,72,-3,-43,-130,-125,-161
-62,28,90,17,-76,59,74,-5,-42,-132,-126,-159
-62,29,91,16,-76,60,73,-8,-42,-135,-126,-157
-63,27,90,18,-76,58,69,-10,-44,-136,-125,-153
-63,24,87,19,-75,55,64,-13,-46,-136,-122,-151
-62,25,87,18,-74,56,61,-15,-50,-136,-120,-150
-62,28,90,17,-76,59,62,-18,-52,-136,-117,-150
-63,29,92,17,-77,60,63,-19,-52,-134,-116,-151
-63,29,92,17,-77,60,63,-19,-49,-131,-116,-150
-61,29,90,16,-75,59,62,-18,-45,-130,-117,-151
-58,29,87,14,-72,58,62,-18,-40,-131,-117,-151
-57,27,84,15,-70,55,64,-20,-35,-130,-115,-149
-57,25,82,16,-69,53,67,-23,-30,-127,-112,-146
-58,21,79,18,-68,50,68,-25,-26,-122,-110,-144
-57,19,76,19,-66,47,68,-28,-24,-117,-107,-142
-58,19,77,19,-67,48,67,-31,-23,-116,-105,-137
-58,19,77,19,-67,48,67,-33,-24,-117,-103,-132
-56,17,73,19,-64,45,68,-34,-23,-115,-98,-128
-53,14,67,19,-60,40,68,-33,-20,-109,-93,-126
-52,14,66,19,-59,40,67,-35,-16,-101,-89,-125
-52,18,70,17,-61,44,64,-38,-10,-94,-87,-126
-53,20,73,16,-63,46,59,-40,-5,-87,-85,-125
-53,19,72,17,-62,45,54,-42,0,-82,-83,-122
-51,17,68,17,-59,42,52,-43,0,-81,-79,-120
-48,14,62,17,-55,38,52,-43,0,-79,-74,-117
-46,13,59,16,-52,36,53,-42,2,-73,-70,-115
-43,13,56,15,-49,34,53,-42,7,-64,-68,-112
-41,13,54,14,-47,33,52,-44,10,-61,-66,-110
-39,13,52,13,-45,32,49,-46,12,-59,-64,-107
-37,15,52,11,-44,33,44,-50,17,-53,-59,-105
-34,18,52,8,-43,35,40,-52,22,-44,-54,-102
-31,19,50,6,-40,34,38,-53,24,-41,-51,-100
-29,19,48,5,-38,33,38,-53,23,-42,-48,-97
-28,19,47,4,-37,33,39,-52,26,-42,-45,-95
-29,19,48,5,-38,33,39,-52,32,-39,-40,-92
-27,16,43,5,-35,29,36,-53,35,-37,-36,-90
-24,10,34,7,-29,22,30,-53,34,-34,-34,-87
-23,6,29,8,-26,17,26,-52,33,-32,-32,-85
-23,3,26,10,-24,14,24,-52,33,-30,-29,-82
-24,5,29,9,-26,17,22,-54,35,-25,-26,-80
-24,8,32,8,-28,20,19,-56,38,-20,-24,-78
-22,9,31,6,-26,20,18,-60,38,-16,-23,-76
-19,9,28,5,-23,18,18,-62,38,-14,-24,-74
-18,8,26,5,-22,17,18,-63,41,-14,-22,-70
-19,8,27,5,-23,17,18,-62,46,-14,-20,-64
-17,9,26,4,-21,17,19,-64,50,-12,-17,-58
-15,9,24,3,-19,16,19,-67,52,-9,-14,-53
-11,7,18,2,-14,12,16,-68,54,-7,-12,-52
-9,4,13,2,-11,8,10,-68,57,-4,-9,-53
-8,3,11,2,-9,7,6,-68,58,-2,-6,-52
-8,4,12,2,-10,8,4,-68,58,0,-4,-49
-9,2,11,3,-10,6,4,-66,56,0,-3,-45
-9,0,9,4,-9,4,4,-63,53,0,-4,-43
-7,0,7,3,-7,3,2,-62,52,0,-2,-42
-4,0,4,2,-4,2,0,-62,52,0,0,-42
-3,0,3,1,-3,1,0,-63,53,0,0,-43
-3,0,3,1,-3,1,0,-62,53,3,0,-43
-4,0,4,2,-4,2,0,-63,52,5,1,-41
-3,0,3,1,-3,1,0,-63,53,8,3,-39
-4,0,4,2,-4,2,0,-61,52,10,4,-38
-4,0,4,2,-4,2,0,-59,52,13,3,-38
-2,1,3,0,-2,2,0,-56,53,15,5,-39
0,3,3,-1,-1,3,0,-53,53,18,8,-39
0,3,3,-1,-1,3,0,-52,51,19,9,-37
0,0,0,0,0,0,0,-52,48,19,9,-34
0,0,0,0,0,0,0,-54,47,18,8,-32
0,0,0,0,0,0,0,-57,47,18,8,-29
0,0,0,0,0,0,0,-58,48,19,9,-27
0,0,0,0,0,0,-3,-58,48,19,9,-24
0,0,0,0,0,0,-5,-58,47,18,8,-22
0,0,0,0,0,0,-8,-58,47,18,9,-19
0,0,0,0,0,0,-9,-56,47,19,8,-18
0,0,0,0,0,0,-9,-53,47,19,8,-18
0,0,0,0,0,0,-8,-51,48,18,9,-19
0,0,0,0,0,0,-8,-48,48,18,9,-19
0,0,0,0,0,0,-9,-46,47,20,8,-18
0,0,0,0,0,0,-9,-43,47,22,8,-18
0,1,1,0,0,1,-8,-41,49,26,10,-19
0,3,3,-1,-1,3,-8,-39,52,28,12,-19
0,4,4,-2,-2,4,-9,-38,53,29,16,-16
0,3,3,-1,-1,3,-9,-38,53,29,18,-10
0,5,5,-2,-2,5,-8,-39,52,28,19,-6
0,8,8,-4,-4,8,-8,-39,52,28,19,-4
0,10,10,-5,-5,10,-10,-38,55,30,18,-3
0,12,12,-6,-6,12,-13,-35,61,32,18,-1
1,17,16,-9,-7,16,-14,-30,64,36,21,3
6,25,19,-15,-6,22,-14,-25,66,41,27,7
13,35,22,-24,-4,28,-13,-23,71,45,31,10
21,45,24,-33,-1,34,-14,-23,79,50,33,9
28,51,23,-39,2,37,-13,-23,86,58,35,8
33,56,23,-44,5,39,-10,-20,94,66,38,8
34,63,29,-48,2,46,-3,-15,102,68,39,12
34,71,37,-52,-1,54,6,-10,109,68,39,17
33,74,41,-53,-4,57,13,-6,114,69,39,19
33,76,43,-54,-5,59,14,-7,116,72,41,18
35,82,47,-58,-6,64,10,-14,117,73,47,20
38,90,52,-64,-7,71,-2,-25,116,72,55,23
39,93,54,-66,-7,73,-25,-35,117,74,60,24
38,92,54,-65,-8,73,-54,-45,117,76,62,23
39,92,53,-65,-7,72,-76,-53,114,79,63,25
42,92,50,-67,-4,71,-88,-60,109,81,63,28
45,89,44,-67,0,66,-96,-67,102,82,63,29
47,83,36,-65,5,59,-101,-72,94,82,63,28
48,80,32,-64,8,56,-102,-73,87,81,62,29
48,78,30,-63,9,54,-102,-73,83,81,62,32
48,76,28,-62,10,52,-102,-72,80,82,64,36
51,73,22,-62,14,47,-102,-69,81,82,66,41
57,72,15,-64,21,43,-99,-62,84,81,69,45
65,72,7,-68,29,39,-94,-51,90,81,72,47
72,73,1,-72,35,37,-87,-41,93,83,73,47
77,73,-4,-75,40,34,-83,-35,93,86,73,47
78,70,-8,-74,43,31,-80,-33,88,88,72,50
78,65,-13,-71,45,26,-79,-33,80,87,69,56
77,58,-19,-67,48,19,-73,-33,73,83,64,59
74,51,-23,-62,48,14,-65,-33,66,75,59,58
69,41,-28,-55,48,6,-59,-36,54,67,55,56
64,31,-33,-47,48,-1,-58,-41,42,60,53,54
62,25,-37,-43,49,-6,-58,-45,35,55,52,50
62,24,-38,-43,50,-7,-58,-47,34,53,53,48
62,24,-38,-43,50,-7,-57,-49,33,53,51,48
59,24,-35,-41,47,-5,-54,-52,33,53,49,48
52,22,-30,-37,41,-4,-50,-53,35,51,46,45
42,19,-23,-30,32,-2,-44,-53,38,49,43,40
32,17,-15,-24,23,1,-39,-51,39,45,41,35
22,15,-7,-18,14,4,-35,-48,39,43,39,30
13,10,-3,-11,8,3,-31,-46,38,43,38,25
5,5,0,-5,2,2,-26,-44,38,43,35,20
1,2,1,-1,0,1,-17,-39,39,40,29,15
-2,3,5,0,-3,4,-7,-31,42,35,21,10
-7,4,11,1,-9,7,1,-23,44,33,16,5
-12,4,16,4,-14,10,7,-16,47,34,14,0
-16,3,19,6,-17,11,12,-9,48,32,13,0
-18,0,18,9,-18,9,17,-4,48,29,13,0
-20,-1,19,10,-19,9,19,-3,48,28,14,0
-23,-3,20,13,-21,8,19,-3,48,29,14,0
-24,-4,20,14,-22,8,19,-4,46,27,12,0
-24,-4,20,14,-22,8,19,-4,43,24,9,-3
-23,-3,20,13,-21,8,17,-3,42,23,8,-5
-23,-3,20,13,-21,8,14,-3,42,23,8,-8
-24,-4,20,14,-22,8,13,-4,44,24,9,-9
-24,-4,20,14,-22,8,13,-3,47,24,8,-9
-23,-3,20,13,-21,8,13,-4,49,24,9,-8
-23,-3,20,13,-21,8,13,-4,52,24,9,-8
-25,-4,21,14,-23,8,15,-3,54,23,7,-8
-28,-4,24,16,-26,10,18,-3,57,23,4,-8
-29,-3,26,16,-27,11,19,-4,58,25,3,-9
-29,-3,26,16,-27,11,18,-4,58,28,3,-9
-28,-5,23,16,-25,9,20,-2,57,27,4,-7
-28,-7,21,17,-24,7,22,0,58,24,4,-4
-29,-10,19,19,-24,4,25,1,57,23,3,-3
-28,-13,15,20,-21,1,28,3,57,24,0,-3
-29,-14,15,21,-22,0,29,6,58,22,-1,-5
-29,-14,15,21,-22,0,29,8,58,19,-3,-8
-28,-12,16,20,-22,2,27,7,54,20,-4,-9
-28,-4,24,16,-26,10,22,0,46,25,-2,-8
-30,11,41,9,-35,26,11,-13,35,36,7,-10
-30,34,64,-2,-47,49,-3,-31,20,64,30,-7
-22,59,81,-18,-51,70,-20,-53,0,127,73,8
-1,83,84,-41,-42,83,-43,-80,-33,234,143,47
32,106,74,-69,-21,90,-74,-114,-80,387,243,115
80,128,48,-104,16,88,-114,-155,-141,588,377,212
146,148,2,-147,72,75,-161,-196,-209,840,546,334
219,157,-62,-188,140,47,-203,-231,-276,1091,718,464
283,143,-140,-213,211,1,-225,-245,-329,1264,844,573
324,97,-227,-210,275,-65,-224,-236,-383,1293,882,634
330,16,-314,-173,322,-149,-203,-208,-468,1131,800,620
302,-93,-395,-104,348,-244,-161,-157,-584,807,609,534
253,-213,-466,-20,359,-339,-96,-74,-712,399,346,403
189,-321,-510,66,349,-415,-23,12,-872,-21,67,252
118,-389,-507,135,312,-448,33,53,-1105,-389,-166,111
49,-416,-465,183,257,-440,68,49,-1375,-675,-331,-5
-1,-418,-417,209,208,-417,92,30,-1598,-872,-434,-89
-37,-416,-379,226,171,-397,118,18,-1737,-993,-494,-147
-65,-432,-367,248,151,-399,159,28,-1792,-1065,-542,-193
-87,-468,-381,277,147,-424,208,59,-1783,-1096,-578,-226
-95,-509,-414,302,159,-461,245,97,-1741,-1087,-587,-239
-93,-551,-458,322,182,-504,265,134,-1675,-1050,-575,-236
-89,-592,-503,340,207,-547,268,163,-1575,-1003,-559,-229
-87,-620,-533,353,223,-576,256,173,-1446,-944,-535,-216
-86,-616,-530,351,222,-573,227,150,-1298,-858,-488,-190
-84,-576,-492,330,204,-534,178,99,-1149,-751,-420,-154
-75,-511,-436,293,180,-473,109,38,-1012,-641,-350,-119
-62,-433,-371,247,154,-402,28,-20,-888,-537,-284,-90
-50,-355,-305,202,127,-330,-46,-68,-763,-442,-226,-68
-41,-282,-241,161,100,-261,-100,-97,-633,-358,-178,-52
-35,-216,-181,125,73,-198,-121,-101,-497,-285,-145,-40
-30,-164,-134,97,52,-149,-114,-83,-363,-222,-120,-31
-25,-136,-111,80,43,-123,-91,-51,-238,-161,-94,-24
-20,-125,-105,72,42,-115,-65,-21,-130,-102,-63,-16
-17,-112,-95,64,39,-103,-47,-8,-44,-47,-34,-8
-15,-88,-73,51,29,-80,-40,-11,20,0,-8,0
-11,-57,-46,34,17,-51,-38,-17,65,36,13,9
-5,-24,-19,14,7,-21,-38,-22,96,61,29,17
0,2,2,-1,-1,2,-38,-26,124,76,38,21
2,20,18,-11,-8,19,-36,-26,154,87,42,23
5,26,21,-15,-8,23,-28,-16,184,101,44,26
8,25,17,-16,-4,21,-18,-1,214,116,49,31
10,22,12,-16,-1,17,-7,11,238,129,60,37
13,22,9,-17,2,15,0,18,254,137,73,42
14,27,13,-20,0,20,-3,16,260,146,82,43
13,36,23,-24,-5,29,-11,10,258,154,86,43
15,43,28,-29,-6,35,-15,7,258,157,87,42
18,47,29,-32,-5,38,-14,8,261,156,87,42
19,48,29,-33,-5,38,-13,8,265,155,87,43
19,48,29,-33,-5,38,-14,8,271,156,87,43
18,47,29,-32,-5,38,-12,11,276,155,86,42
19,47,28,-33,-4,37,-9,17,281,155,86,42
18,48,30,-33,-6,39,-8,20,284,158,88,44
18,48,30,-33,-6,39,-9,19,286,163,91,47
20,47,27,-33,-3,37,-7,18,287,165,92,48
23,47,24,-35,0,35,-4,18,287,165,92,48
24,48,24,-36,0,36,-3,19,286,164,91,47
24,48,24,-36,0,36,-3,19,286,164,92,47
23,46,23,-34,0,34,-5,18,287,165,91,49
23,43,20,-33,1,31,-8,18,287,165,91,52
24,42,18,-33,3,30,-9,19,286,164,93,53
24,42,18,-33,3,30,-8,18,286,164,96,53
23,43,20,-33,1,31,-10,19,287,166,97,52
23,43,20,-33,1,31,-13,19,287,169,97,52
25,42,17,-33,4,29,-14,18,286,170,96,54
28,42,14,-35,7,28,-14,18,286,170,96,56
29,44,15,-36,7,29,-13,19,287,169,97,59
29,47,18,-38,5,32,-14,19,287,170,97,62
28,48,20,-38,4,34,-13,17,286,169,96,63
29,48,19,-38,5,33,-13,15,286,169,96,63
28,47,19,-37,4,33,-15,12,287,171,97,62
28,47,19,-37,4,33,-18,9,287,174,96,62
30,48,18,-39,6,33,-19,8,286,175,97,63
33,48,15,-40,9,31,-19,8,284,174,97,63
34,47,13,-40,10,30,-18,9,281,176,96,62
34,47,13,-40,10,30,-18,9,278,179,96,62
32,49,17,-40,7,33,-20,8,277,179,97,63
29,52,23,-40,3,37,-23,8,277,176,97,63
28,53,25,-40,1,39,-24,8,278,172,96,62
28,53,25,-40,1,39,-23,8,278,170,96,62
29,52,23,-40,3,37,-25,9,277,169,98,63
29,52,23,-40,3,37,-28,9,277,169,101,63
28,53,25,-40,1,39,-29,8,278,171,102,61
28,53,25,-40,1,39,-29,8,278,174,102,58
30,53,23,-41,3,38,-28,10,277,175,101,57
32,53,21,-42,5,37,-28,13,277,175,101,57
35,52,17,-43,9,34,-29,14,278,174,102,58
38,52,14,-45,12,33,-29,13,278,174,102,57
39,53,14,-46,12,33,-28,14,277,175,100,58
39,53,14,-46,12,33,-28,17,274,175,97,58
39,51,12,-45,13,31,-30,20,269,173,96,56
39,48,9,-43,15,28,-33,23,264,170,97,54
37,47,10,-42,13,28,-34,24,260,170,96,51
34,47,13,-40,10,30,-34,24,258,173,93,48
33,47,14,-40,9,30,-33,23,257,176,89,47
33,47,14,-40,9,30,-33,23,254,176,87,47
34,49,15,-41,9,32,-35,24,249,171,87,48
34,52,18,-43,8,35,-38,24,241,166,87,48
33,53,20,-43,6,36,-39,23,235,164,84,45
33,53,20,-43,6,36,-39,23,230,165,79,40
34,53,19,-43,7,36,-37,24,227,161,76,37
34,53,19,-43,7,36,-34,24,225,153,74,38
32,51,19,-41,6,35,-33,22,221,147,70,39
30,49,19,-39,5,34,-33,19,216,143,65,39
27,46,19,-36,4,32,-35,18,208,136,59,36
24,43,19,-33,2,31,-38,18,198,128,54,30
22,41,19,-31,1,30,-39,19,188,123,50,27
20,40,20,-30,0,30,-39,19,178,119,45,25
15,36,21,-25,-3,28,-37,19,170,111,38,21
10,31,21,-20,-5,26,-34,19,163,100,31,15
7,24,17,-15,-5,20,-32,18,157,90,26,11
8,19,11,-13,-1,15,-32,18,149,81,21,6
10,20,10,-15,0,15,-37,20,138,70,13,0
10,29,19,-19,-4,24,-44,23,126,58,0,-7
5,42,37,-23,-16,39,-53,24,115,44,-11,-11
-2,49,51,-23,-26,50,-58,24,105,32,-21,-13
-4,38,42,-17,-23,40,-55,23,96,23,-26,-16
-3,11,14,-4,-8,12,-46,23,85,19,-28,-21
-6,-19,-13,12,3,-16,-38,24,75,20,-30,-27
-12,-40,-28,26,8,-34,-34,23,65,20,-32,-32
-14,-38,-24,26,5,-31,-33,24,60,11,-36,-36
-13,-18,-5,15,-4,-11,-33,24,55,-6,-40,-41
-15,4,19,5,-17,11,-34,23,46,-25,-47,-46
-18,17,35,0,-26,26,-34,23,33,-39,-55,-51
-18,16,34,1,-26,25,-31,25,23,-44,-60,-55
-18,2,20,8,-19,11,-25,27,19,-43,-62,-57
-21,-14,7,17,-14,-3,-21,31,17,-43,-64,-57
-27,-29,-2,28,-12,-15,-19,33,15,-46,-66,-57
-29,-39,-10,34,-9,-24,-18,33,10,-50,-69,-59
-28,-45,-17,36,-5,-31,-19,30,3,-55,-72,-62
-30,-52,-22,41,-4,-37,-18,26,-5,-61,-74,-62
-33,-57,-24,45,-4,-40,-15,24,-12,-66,-77,-62
-34,-55,-21,44,-6,-38,-11,23,-16,-69,-79,-65
-33,-46,-13,39,-10,-29,-9,23,-18,-71,-81,-70
-34,-38,-4,36,-15,-21,-8,24,-20,-77,-83,-75
-37,-34,3,35,-20,-15,-9,24,-22,-85,-86,-77
-40,-34,6,37,-23,-14,-7,23,-25,-87,-87,-78
-42,-38,4,40,-23,-17,-5,23,-28,-86,-86,-78
-42,-39,3,40,-22,-18,-2,24,-30,-88,-87,-78
-42,-39,3,40,-22,-18,0,24,-32,-94,-90,-78
-44,-39,5,41,-24,-17,1,23,-37,-100,-95,-77
-47,-39,8,43,-27,-15,3,23,-41,-105,-100,-77
-48,-37,11,42,-29,-13,4,24,-43,-108,-102,-79
-48,-34,14,41,-31,-10,3,24,-42,-111,-102,-81
-47,-33,14,40,-30,-9,5,21,-44,-113,-101,-82
-47,-33,14,40,-30,-9,8,15,-50,-115,-102,-82
-49,-35,14,42,-31,-10,9,11,-56,-118,-101,-81
-52,-38,14,45,-33,-12,9,9,-61,-121,-101,-81
-53,-39,14,46,-33,-12,8,8,-65,-123,-104,-84
-52,-38,14,45,-33,-12,9,8,-67,-125,-110,-90
-54,-39,15,46,-34,-12,8,9,-67,-127,-114,-93
-57,-42,15,49,-36,-13,8,9,-67,-130,-116,-92
-58,-43,15,50,-36,-14,10,8,-69,-132,-117,-91
-58,-43,15,50,-36,-14,12,8,-72,-134,-117,-91
-57,-42,15,49,-36,-13,15,9,-73,-137,-116,-91
-58,-42,16,50,-37,-13,18,9,-73,-140,-116,-91
-57,-44,13,50,-35,-15,20,8,-72,-141,-116,-92
-57,-47,10,52,-33,-18,23,8,-72,-140,-116,-92
-59,-48,11,53,-35,-18,24,9,-73,-142,-117,-90
-62,-47,15,54,-38,-16,24,9,-73,-145,-117,-87
-63,-49,14,56,-38,-17,22,8,-72,-146,-115,-86
-63,-52,11,57,-37,-20,19,8,-72,-146,-113,-86
-62,-52,10,57,-36,-21,19,9,-73,-146,-110,-88
-62,-49,13,55,-37,-18,22,9,-73,-146,-107,-91
-63,-47,16,55,-39,-15,24,8,-72,-144,-106,-92
-63,-47,16,55,-39,-15,24,8,-69,-141,-106,-92
-61,-48,13,54,-37,-17,23,9,-65,-140,-107,-92
-58,-48,10,53,-34,-19,23,9,-60,-140,-107,-92
-57,-47,10,52,-33,-18,25,8,-54,-140,-105,-90
-57,-47,10,52,-33,-18,28,8,-49,-137,-103,-88
-58,-48,10,53,-34,-19,29,9,-45,-132,-100,-85
-57,-48,9,52,-33,-19,29,9,-43,-127,-97,-82
-58,-46,12,52,-35,-17,28,7,-42,-125,-96,-80
-58,-43,15,50,-36,-14,28,4,-40,-126,-97,-78
-56,-42,14,49,-35,-14,28,3,-36,-124,-96,-77
-53,-43,10,48,-31,-16,28,3,-31,-119,-93,-77
-52,-41,11,46,-31,-15,29,4,-25,-113,-90,-78
-52,-39,13,45,-32,-13,29,4,-21,-108,-87,-78
-53,-38,15,45,-34,-11,27,3,-15,-104,-85,-76
-53,-39,14,46,-33,-12,24,3,-10,-102,-83,-74
-51,-38,13,44,-32,-12,23,4,-8,-102,-79,-71
-49,-35,14,42,-31,-10,23,4,-9,-102,-74,-68
-46,-30,16,38,-31,-7,24,3,-6,-99,-70,-66
-43,-25,18,34,-30,-3,23,3,-1,-93,-68,-63
-42,-23,19,32,-30,-2,24,4,1,-90,-67,-61
-42,-24,18,33,-30,-3,24,3,2,-88,-68,-58
-43,-22,21,32,-32,0,22,4,7,-83,-66,-56
-43,-19,24,31,-33,2,19,4,12,-75,-64,-53
-41,-18,23,29,-32,2,18,3,14,-70,-61,-51
-39,-18,21,28,-30,1,18,3,13,-69,-59,-48
-38,-18,20,28,-29,1,19,4,16,-65,-55,-46
-39,-18,21,28,-30,1,19,4,22,-59,-49,-43
-37,-20,17,28,-27,-1,17,3,25,-56,-46,-41
-34,-23,11,28,-22,-6,15,3,27,-54,-44,-39
-33,-23,10,28,-21,-6,12,4,31,-50,-40,-37
-34,-20,14,27,-24,-3,9,4,37,-45,-36,-35
-32,-17,15,24,-23,-1,8,2,40,-39,-30,-32
-29,-14,15,21,-22,0,8,0,42,-35,-25,-29
-28,-12,16,20,-22,2,9,0,44,-31,-21,-28
-28,-9,19,18,-23,5,9,0,47,-29,-19,-28
-29,-8,21,18,-25,6,8,0,48,-28,-18,-29
-29,-8,21,18,-25,6,8,0,48,-28,-18,-28
-28,-9,19,18,-23,5,9,0,47,-29,-19,-29
-28,-9,19,18,-23,5,9,0,47,-29,-19,-29
-29,-8,21,18,-25,6,7,0,48,-27,-18,-27
-29,-9,20,19,-24,5,5,0,47,-25,-19,-25
-27,-8,19,17,-23,5,2,0,48,-22,-18,-22
-24,-8,16,16,-20,4,0,0,48,-19,-18,-19
-23,-9,14,16,-18,2,0,0,47,-17,-19,-18
-24,-9,15,16,-19,3,0,0,47,-15,-19,-18
-22,-7,15,14,-18,4,0,0,49,-12,-17,-19
-19,-4,15,11,-17,5,0,0,52,-9,-15,-19
-18,-4,14,11,-16,5,0,0,53,-8,-12,-17
-18,-8,10,13,-14,1,0,0,53,-8,-9,-14
-18,-9,9,13,-13,0,0,0,52,-9,-8,-13
-18,-8,10,13,-14,1,0,0,52,-8,-8,-13
-20,-10,10,15,-15,0,-1,0,54,-9,-10,-14
-23,-13,10,18,-16,-1,-3,0,57,-9,-13,-14
-23,-13,10,18,-16,-1,-4,1,58,-7,-13,-12
-20,-10,10,15,-15,0,-4,3,57,-4,-10,-9
-15,-5,10,10,-12,2,-3,4,59,-3,-6,-8
-10,-1,9,5,-9,4,-3,3,61,-1,-2,-8
-6,0,6,3,-6,3,-4,4,64,2,3,-9
-4,0,4,2,-4,2,-2,7,66,7,7,-9
-3,0,3,1,-3,1,5,12,71,9,9,-6
-3,1,4,1,-3,2,16,17,76,8,9,-1
-4,-3,1,3,-2,-1,20,19,78,9,9,0
-4,-8,-4,6,0,-6,21,18,77,12,12,0
-2,-6,-4,4,1,-5,30,20,80,15,17,1
2,1,-1,-1,1,0,44,26,88,17,22,7
5,4,-1,-4,3,1,49,32,96,21,24,11
7,3,-4,-5,5,0,45,37,104,26,24,13
11,7,-4,-9,7,1,39,40,111,32,24,15
16,15,-1,-15,8,7,37,41,119,37,27,18
22,21,-1,-21,11,10,42,45,126,40,31,19
27,23,-4,-25,15,9,50,51,130,42,33,18
29,24,-5,-26,17,9,54,53,130,43,34,19
29,27,-2,-28,15,12,53,53,126,43,33,22
29,31,2,-30,13,16,52,53,126,43,35,26
32,34,2,-33,15,18,52,56,129,43,38,32
36,32,-4,-34,20,14,54,60,134,42,39,36
41,26,-15,-33,28,5,59,65,139,42,39,38
45,20,-25,-32,35,-2,68,71,143,44,37,38
47,16,-31,-31,39,-7,74,73,143,47,34,38
48,10,-38,-29,43,-14,66,69,135,48,33,40
48,3,-45,-25,46,-21,46,61,122,45,34,42
47,-5,-52,-21,49,-28,29,53,109,37,33,42
44,-14,-58,-15,51,-36,17,46,97,27,30,40
40,-25,-65,-7,52,-45,9,37,82,19,27,37
35,-35,-70,0,52,-52,0,27,67,15,24,35
32,-42,-74,5,53,-58,-11,18,57,12,23,31
32,-44,-76,6,54,-60,-24,11,53,13,23,28
37,-39,-76,1,56,-57,-32,5,52,16,24,31
45,-32,-77,-6,61,-54,-34,1,52,21,24,37
49,-25,-74,-12,61,-49,-33,-1,54,26,23,40
48,-20,-68,-14,58,-44,-34,-3,57,28,23,39
47,-17,-64,-15,55,-40,-33,-3,58,28,24,38
47,-14,-61,-16,54,-37,-33,-1,58,28,27,38
49,-13,-62,-18,55,-37,-34,1,58,30,31,39
52,-13,-65,-19,58,-39,-34,3,58,34,34,39
51,-14,-65,-18,58,-39,-31,3,57,31,30,36
45,-14,-59,-15,52,-36,-25,1,54,25,22,31
40,-13,-53,-13,46,-33,-22,-1,51,23,16,25
36,-13,-49,-11,42,-31,-20,-3,48,23,14,20
30,-14,-44,-8,37,-29,-15,-3,47,22,13,17
22,-14,-36,-4,29,-25,-10,-3,47,19,13,14
14,-13,-27,0,20,-20,-8,-6,48,18,14,12
6,-14,-20,4,13,-17,-9,-12,48,19,14,10
0,-13,-13,6,6,-13,-7,-15,47,17,12,7
-5,-13,-8,9,1,-10,-1,-14,47,14,9,4
-13,-14,-1,13,-6,-7,2,-13,49,13,8,2
-21,-14,7,17,-14,-3,3,-13,52,13,8,0
-25,-13,12,19,-18,0,4,-14,53,14,9,-1
-24,-13,11,18,-17,-1,4,-14,53,14,9,-3
-23,-14,9,18,-16,-2,3,-13,52,14,9,-5
-23,-14,9,18,-16,-2,3,-13,52,14,9,-8
-25,-13,12,19,-18,0,5,-13,54,13,8,-9
-28,-10,18,19,-23,4,8,-13,57,13,8,-9
-29,-7,22,18,-25,7,9,-14,58,15,10,-9
-29,-4,25,16,-27,10,8,-14,57,18,13,-9
-28,-3,25,15,-26,11,9,-13,58,18,14,-7
-29,-3,26,16,-27,11,12,-13,61,18,14,-5
-28,-3,25,15,-26,11,15,-14,64,21,13,-2
-28,-3,25,15,-26,11,17,-14,66,24,10,-2
-30,-5,25,17,-27,10,20,-11,70,20,6,-6
-33,-8,25,20,-29,8,23,-5,73,11,1,-12
-34,-9,25,21,-29,8,23,-4,71,8,0,-15
-36,-4,32,20,-34,14,21,-10,65,10,0,-16
-43,9,52,17,-47,30,15,-20,60,4,-1,-24
-51,30,81,10,-66,55,7,-33,56,0,0,-33
-52,50,102,1,-77,76,0,-47,46,21,16,-29
-39,71,110,-16,-74,90,-13,-69,23,95,64,-2
-8,99,107,-45,-57,103,-45,-105,-18,242,160,61
38,132,94,-85,-28,113,-94,-153,-78,459,302,157
101,162,61,-131,20,111,-148,-204,-149,713,472,274
172,182,10,-177,81,96,-197,-245,-217,975,650,402
248,182,-66,-215,157,58,-233,-269,-262,1210,815,536
312,159,-153,-235,232,3,-253,-275,-296,1359,927,648
344,105,-239,-224,291,-67,-258,-265,-357,1342,935,695
338,18,-320,-178,329,-151,-238,-228,-453,1131,815,659
300,-106,-406,-97,353,-256,-177,-143,-578,741,566,538
241,-242,-483,0,362,-362,-91,-36,-742,260,250,368
175,-347,-522,86,348,-434,-19,32,-971,-176,-25,204
111,-400,-511,144,311,-455,26,47,-1244,-510,-219,73
53,-408,-461,177,257,-434,53,29,-1503,-745,-342,-25
1,-393,-394,196,197,-393,75,3,-1711,-902,-420,-99
-45,-392,-347,218,151,-369,108,-6,-1842,-1008,-485,-161
-82,-417,-335,249,126,-376,155,10,-1895,-1074,-540,-210
-98,-461,-363,279,132,-412,201,48,-1885,-1093,-567,-234
-98,-517,-419,307,160,-468,240,97,-1828,-1077,-570,-238
-96,-573,-477,334,190,-525,265,140,-1741,-1055,-570,-239
-96,-614,-518,355,211,-566,272,162,-1627,-1020,-562,-236
-97,-626,-529,361,216,-577,254,146,-1481,-943,-522,-211
-94,-605,-511,349,208,-558,212,100,-1315,-830,-454,-169
-86,-563,-477,324,195,-520,153,46,-1162,-712,-383,-127
-73,-503,-430,288,178,-466,81,-6,-1026,-603,-318,-93
-60,-424,-364,242,152,-394,-1,-61,-892,-503,-256,-68
-51,-334,-283,192,116,-308,-80,-110,-755,-414,-199,-49
-44,-247,-203,145,79,-225,-132,-139,-614,-335,-156,-34
-40,-180,-140,110,50,-160,-149,-139,-472,-266,-124,-23
-36,-145,-109,90,36,-127,-133,-110,-334,-200,-93,-14
-30,-134,-104,82,37,-119,-100,-67,-208,-133,-61,-7
-27,-122,-95,74,34,-108,-73,-40,-100,-70,-29,0
-25,-99,-74,62,24,-86,-60,-33,-17,-15,-1,10
-21,-67,-46,44,12,-56,-56,-35,37,25,21,19
-16,-32,-16,24,0,-24,-57,-40,73,50,38,26
-10,-2,8,6,-9,3,-58,-45,106,65,47,31
-5,18,23,-6,-14,20,-55,-45,141,76,52,33
-2,27,29,-12,-15,28,-47,-35,175,91,53,35
0,25,25,-12,-12,25,-34,-16,207,109,55,40
1,22,21,-11,-10,21,-20,0,234,125,62,46
3,22,19,-12,-8,20,-10,8,253,136,73,51
4,28,24,-16,-10,26,-10,7,260,146,83,53
3,38,35,-20,-16,36,-17,1,258,154,89,53
5,48,43,-26,-19,45,-19,-1,257,157,94,52
8,56,48,-32,-20,52,-15,0,260,156,96,52
9,58,49,-33,-20,53,-13,0,266,155,97,53
9,58,49,-33,-20,53,-14,0,274,156,97,53
8,57,49,-32,-20,53,-12,2,282,155,96,52
9,58,49,-33,-20,53,-9,7,289,154,96,52
8,57,49,-32,-20,53,-8,10,294,159,98,54
8,54,46,-31,-19,50,-9,13,296,167,101,57
10,50,40,-30,-15,45,-7,15,297,172,102,58
13,48,35,-30,-11,41,-5,18,297,174,102,58
14,48,34,-31,-10,41,-3,19,296,175,101,57
14,51,37,-32,-11,44,-3,19,296,175,102,57
13,53,40,-33,-13,46,-5,18,297,175,101,59
13,53,40,-33,-13,46,-8,18,297,175,101,62
14,52,38,-33,-12,45,-9,18,296,174,103,63
14,52,38,-33,-12,45,-8,18,296,174,106,63
13,53,40,-33,-13,46,-10,19,297,176,107,62
13,53,40,-33,-13,46,-13,19,297,179,107,62
15,52,37,-33,-11,44,-14,18,296,180,106,63
18,52,34,-35,-8,43,-14,15,296,180,106,63
19,54,35,-36,-8,44,-13,12,297,180,107,62
19,57,38,-38,-9,47,-14,9,297,180,107,62
18,58,40,-38,-11,49,-13,8,296,178,106,63
19,58,39,-38,-10,48,-13,8,296,175,106,63
18,57,39,-37,-10,48,-15,9,297,174,107,62
18,57,39,-37,-10,48,-18,9,297,174,106,62
20,58,38,-39,-9,48,-19,8,296,174,107,63
23,58,35,-40,-6,46,-19,8,296,174,107,63
24,57,33,-40,-4,45,-18,9,297,176,106,62
24,57,33,-40,-4,45,-18,8,297,179,106,62
23,59,36,-41,-6,47,-20,9,296,180,107,63
23,62,39,-42,-8,50,-23,9,296,180,107,63
25,63,38,-44,-6,50,-24,8,297,179,106,62
28,63,35,-45,-3,49,-23,8,297,180,106,62
29,62,33,-45,-2,47,-25,9,296,179,108,64
29,62,33,-45,-2,47,-28,9,296,179,111,67
28,63,35,-45,-3,49,-29,8,297,181,112,68
28,63,35,-45,-3,49,-29,8,297,184,112,68
29,63,34,-46,-2,48,-28,11,296,185,111,67
29,63,34,-46,-2,48,-28,16,293,185,111,67
29,62,33,-45,-2,47,-29,21,290,184,112,67
29,62,33,-45,-2,47,-29,23,287,184,112,67
28,63,35,-45,-3,49,-28,24,286,185,110,68
28,63,35,-45,-3,49,-28,24,287,185,107,68
29,61,32,-45,-1,46,-30,23,286,183,106,67
29,58,29,-43,0,43,-33,23,284,180,107,64
27,57,30,-42,-1,43,-34,24,281,179,106,61
24,57,33,-40,-4,45,-34,24,278,179,103,58
23,58,35,-40,-6,46,-33,23,277,179,100,57
23,57,34,-40,-5,45,-33,23,274,176,97,57
25,58,33,-41,-4,45,-35,24,269,171,97,58
27,58,31,-42,-2,44,-38,24,261,166,97,58
30,56,26,-43,2,41,-39,23,254,164,94,55
33,53,20,-43,6,36,-39,23,249,165,89,50
34,52,18,-43,8,35,-37,24,246,162,85,45
34,53,19,-43,7,36,-34,24,244,154,83,43
32,51,19,-41,6,35,-33,22,242,147,80,42
30,48,18,-39,6,33,-33,19,237,143,75,40
27,47,20,-37,3,33,-35,18,228,136,70,36
24,47,23,-35,0,35,-38,18,218,128,65,30
22,48,26,-35,-2,37,-39,19,208,123,60,27
20,48,28,-34,-4,38,-39,19,198,119,55,25
16,46,30,-31,-7,38,-37,19,190,112,49,21
10,44,34,-27,-12,39,-34,19,182,101,41,16
7,41,34,-24,-13,37,-33,18,176,91,36,11
8,39,31,-23,-11,35,-33,18,169,81,31,6
10,37,27,-23,-8,32,-35,20,158,73,24,0
10,35,25,-22,-7,30,-38,23,146,65,17,-6
5,32,27,-18,-11,29,-39,24,135,59,10,-10
-1,30,31,-14,-16,30,-39,24,125,52,6,-12
-4,26,30,-11,-17,28,-37,23,116,41,0,-16
-3,21,24,-9,-13,22,-34,23,106,28,-5,-21
-6,16,22,-5,-14,19,-33,24,95,19,-13,-27
-12,14,26,-1,-19,20,-33,24,85,12,-20,-31
-14,15,29,0,-21,22,-34,23,79,4,-27,-36
-13,17,30,-2,-21,23,-33,20,75,-5,-35,-41
-15,19,34,-2,-24,26,-34,17,67,-13,-44,-45
-18,19,37,0,-27,28,-34,14,53,-21,-54,-50
-18,19,37,0,-27,28,-32,13,41,-27,-60,-56
-18,19,37,0,-27,28,-29,13,32,-35,-62,-61
-21,18,39,1,-30,28,-28,14,24,-44,-64,-64
-27,15,42,6,-34,28,-28,14,17,-54,-66,-66
-29,12,41,8,-35,26,-29,13,10,-61,-69,-69
-29,9,38,10,-33,23,-29,13,3,-65,-72,-72
-30,8,38,11,-34,23,-28,14,-4,-71,-74,-72
-33,8,41,12,-37,24,-25,14,-11,-76,-76,-72
-34,10,44,12,-39,27,-22,13,-16,-78,-80,-74
-33,12,45,10,-39,28,-19,13,-18,-80,-84,-79
-34,14,48,10,-41,31,-18,14,-19,-86,-90,-84
-37,14,51,11,-44,32,-19,14,-22,-94,-95,-86
-40,12,52,14,-46,32,-18,13,-26,-98,-97,-87
-42,9,51,16,-46,30,-15,13,-31,-96,-97,-87
-42,8,50,17,-46,29,-12,14,-36,-98,-97,-87
-42,9,51,16,-46,30,-10,14,-40,-104,-100,-87
-44,7,51,18,-47,29,-7,13,-46,-110,-105,-86
-47,5,52,21,-49,28,-4,13,-51,-115,-110,-86
-48,3,51,22,-49,27,-3,14,-53,-118,-112,-88
-48,3,51,22,-49,27,-4,14,-53,-121,-112,-91
-47,4,51,21,-49,27,-3,12,-53,-123,-111,-92
-47,4,51,21,-49,27,0,9,-56,-125,-112,-92
-49,2,51,23,-50,26,0,8,-59,-127,-111,-91
-52,0,52,26,-52,26,0,8,-61,-129,-111,-91
-53,0,53,26,-53,26,0,9,-64,-133,-113,-94
-52,0,52,26,-52,26,0,9,-67,-138,-116,-100
-54,0,54,27,-54,27,0,8,-68,-144,-117,-103
-57,-3,54,30,-55,25,0,9,-67,-149,-117,-102
-58,-4,54,31,-56,25,0,8,-69,-151,-116,-101
-58,-4,54,31,-56,25,2,8,-72,-151,-116,-101
-57,-3,54,30,-55,25,5,9,-73,-150,-117,-101
-58,-3,55,30,-56,26,7,9,-73,-151,-117,-101
-57,-5,52,31,-54,23,11,8,-72,-150,-116,-102
-57,-8,49,32,-53,20,16,5,-72,-150,-116,-102
-59,-8,51,33,-55,21,21,2,-73,-152,-117,-100
-62,-8,54,35,-58,23,24,0,-73,-155,-117,-98
-63,-11,52,37,-57,20,22,0,-72,-156,-116,-96
-63,-17,46,40,-54,14,19,0,-72,-156,-116,-96
-62,-20,42,41,-52,11,19,0,-73,-156,-117,-98
-62,-19,43,40,-52,12,22,0,-73,-156,-117,-101
-63,-18,45,40,-54,13,24,0,-72,-154,-116,-102
-63,-18,45,40,-54,13,24,0,-69,-151,-116,-102
-61,-19,42,40,-51,11,23,0,-65,-150,-117,-102
-58,-19,39,38,-48,10,23,0,-60,-150,-117,-102
-57,-18,39,37,-48,10,24,0,-54,-150,-116,-101
-57,-18,39,37,-48,10,24,2,-49,-147,-113,-98
-58,-19,39,38,-48,10,22,5,-46,-142,-110,-95
-57,-19,38,38,-47,9,19,8,-43,-137,-107,-93
-58,-17,41,37,-49,12,18,8,-42,-135,-106,-90
-58,-14,44,36,-51,15,18,5,-40,-136,-107,-87
-56,-13,43,34,-49,15,19,3,-36,-134,-106,-86
-53,-14,39,33,-46,12,18,3,-31,-128,-103,-86
-52,-12,40,32,-46,14,19,4,-26,-123,-100,-87
-52,-10,42,31,-47,16,19,4,-21,-118,-97,-87
-53,-8,45,30,-49,18,17,3,-15,-115,-95,-85
-53,-8,45,30,-49,18,14,3,-10,-112,-93,-83
-52,-9,43,30,-47,17,13,4,-8,-112,-89,-80
-49,-9,40,29,-44,15,13,4,-9,-112,-84,-78
-46,-7,39,26,-42,16,14,3,-7,-109,-80,-76
-43,-4,39,23,-41,17,13,3,-1,-104,-78,-74
-42,-3,39,22,-40,18,14,4,1,-100,-78,-71
-42,-4,38,23,-40,17,14,4,2,-98,-78,-69
-43,-3,40,23,-41,18,12,3,6,-93,-76,-66
-43,0,43,21,-43,21,9,3,12,-84,-74,-64
-41,0,41,20,-41,20,8,4,14,-80,-71,-61
-39,0,39,19,-39,19,8,4,13,-78,-69,-59
-38,0,38,19,-38,19,9,3,15,-75,-65,-56
-39,0,39,19,-39,19,9,3,21,-70,-60,-54
-37,0,37,18,-37,18,8,4,26,-65,-56,-51
-35,-3,32,19,-33,14,8,4,28,-63,-53,-49
-33,-4,29,18,-31,12,10,3,30,-62,-51,-46
-33,-4,29,18,-31,12,13,3,32,-59,-49,-44
-34,-2,32,18,-33,15,13,4,35,-55,-45,-41
-34,0,34,17,-34,17,10,4,38,-50,-40,-39
-32,0,32,16,-32,16,8,3,39,-45,-37,-37
-29,0,29,14,-29,14,8,3,38,-43,-34,-35
-28,0,28,14,-28,14,9,4,39,-42,-32,-32
-29,0,29,14,-29,14,8,4,42,-40,-30,-30
-28,0,28,14,-28,14,9,3,43,-36,-27,-27
-25,0,25,12,-25,12,9,0,42,-31,-25,-24
-22,0,22,11,-22,11,7,0,44,-27,-22,-23
-19,0,19,9,-19,9,4,0,46,-24,-20,-24
-18,1,19,8,-18,10,3,0,48,-22,-17,-23
-18,3,21,7,-19,12,3,0,48,-19,-14,-20
-19,3,22,8,-20,12,4,0,47,-18,-13,-17
-19,0,19,9,-19,9,4,3,47,-18,-14,-14
-17,0,17,8,-17,8,3,4,49,-19,-12,-13
-14,0,14,7,-14,7,0,4,52,-19,-9,-13
-13,0,13,6,-13,6,0,3,53,-17,-8,-14
-13,0,13,6,-13,6,0,3,53,-15,-9,-14
-14,0,14,7,-14,7,0,4,52,-12,-7,-12
-13,0,13,6,-13,6,0,3,52,-10,-4,-9
-14,0,14,7,-14,7,0,4,53,-7,-3,-8
-14,-3,11,8,-12,4,0,4,52,-4,-4,-8
-12,-4,8,8,-10,2,0,3,53,-3,-3,-9
-9,-4,5,6,-7,0,0,3,53,-3,0,-9
-8,-3,5,5,-6,1,0,5,52,-3,0,-7
-8,-3,5,5,-6,1,0,7,52,-3,0,-4
-8,-4,4,6,-6,0,0,9,54,-5,0,-3
-8,-4,4,6,-6,0,0,9,57,-8,3,-3
-10,-3,7,6,-8,2,0,8,58,-8,4,-4
-12,-3,9,7,-10,3,0,8,58,-5,3,-4
-14,-4,10,9,-12,3,0,10,57,-2,5,-3
-14,-4,10,9,-12,3,0,13,57,0,8,0
-12,-3,9,7,-10,3,0,13,58,0,8,0
-9,0,9,4,-9,4,0,10,58,0,5,0
-8,0,8,4,-8,4,-1,7,57,-1,3,-1
-8,0,8,4,-8,4,-3,4,57,-3,3,-3
-9,0,9,4,-9,4,-3,3,58,-3,3,-3
-9,0,9,4,-9,4,0,3,58,-1,3,0
-8,0,8,4,-8,4,0,5,57,2,5,0
-8,0,8,4,-8,4,0,8,57,7,8,0
-9,0,9,4,-9,4,0,9,58,9,9,0
-9,0,9,4,-9,4,0,9,58,9,9,0
-8,0,8,4,-8,4,0,8,57,9,8,0
-8,0,8,4,-8,4,0,8,57,9,8,0
-9,0,9,4,-9,4,0,9,58,7,9,0
-8,0,8,4,-8,4,0,9,58,5,9,0
-9,0,9,4,-9,4,0,8,57,3,8,0
-9,0,9,4,-9,4,0,8,57,3,8,0
-8,1,9,3,-8,5,0,9,59,5,9,0
-8,3,11,2,-9,7,0,12,61,8,12,0
-9,4,13,2,-11,8,0,15,63,9,15,0
-9,3,12,3,-10,7,0,18,63,9,18,3
-8,5,13,1,-10,9,0,19,62,8,18,4
-8,7,15,0,-11,11,0,19,62,8,15,3
-9,9,18,0,-13,13,0,18,65,9,11,4
-9,11,20,-1,-14,15,-3,18,70,12,8,7
-7,17,24,-5,-15,20,-4,19,74,16,10,11
-2,28,30,-13,-16,29,-4,19,76,21,16,17
3,41,38,-22,-17,39,-4,17,80,26,21,20
10,53,43,-31,-16,48,-4,14,87,31,26,19
18,61,43,-39,-12,52,-3,14,97,38,32,18
26,65,39,-45,-6,52,0,16,107,45,37,17
31,71,40,-51,-4,55,9,21,116,48,39,21
33,79,46,-56,-6,62,20,26,124,48,39,27
33,83,50,-58,-8,66,26,30,126,48,39,29
33,85,52,-59,-9,68,25,30,126,51,41,28
35,90,55,-62,-10,72,20,25,125,53,45,30
38,99,61,-68,-11,80,8,14,125,52,51,33
39,103,64,-71,-12,83,-13,2,126,53,53,33
39,102,63,-70,-12,82,-41,-8,126,56,53,30
39,102,63,-70,-12,82,-63,-19,124,59,52,28
41,103,62,-72,-10,82,-77,-30,120,62,52,28
44,98,54,-71,-5,76,-86,-37,112,63,53,29
47,87,40,-67,3,63,-90,-41,101,63,53,28
48,76,28,-62,10,52,-92,-43,91,62,52,29
48,70,22,-59,13,46,-91,-43,84,62,52,32
47,66,19,-56,14,42,-93,-42,80,63,53,36
47,63,16,-55,15,39,-96,-40,80,63,56,40
49,62,13,-55,18,37,-96,-35,84,62,59,45
55,62,7,-58,24,34,-94,-27,89,62,62,47
61,63,2,-62,29,32,-89,-20,94,63,63,47
66,64,-2,-65,34,31,-83,-15,97,66,63,47
68,60,-8,-64,38,26,-80,-13,95,69,63,50
68,52,-16,-60,42,18,-79,-14,89,69,63,55
68,43,-25,-55,46,9,-74,-12,83,64,62,59
68,33,-35,-50,51,-1,-66,-9,77,56,59,58
66,23,-43,-44,54,-10,-59,-9,67,49,56,56
63,12,-51,-37,57,-19,-54,-12,56,44,53,54
62,6,-56,-34,59,-25,-51,-15,50,42,52,51
62,4,-58,-33,60,-27,-48,-17,48,42,53,48
62,4,-58,-33,60,-27,-46,-20,46,43,52,48
60,4,-56,-32,58,-26,-44,-22,43,43,49,48
53,3,-50,-28,51,-23,-40,-25,43,42,46,46
44,0,-44,-22,44,-22,-36,-28,46,40,44,41
33,0,-33,-16,33,-16,-31,-29,48,37,41,36
23,-2,-25,-10,24,-13,-26,-29,48,34,39,31
14,-6,-20,-4,17,-13,-21,-28,47,33,38,26
6,-12,-18,3,12,-15,-16,-25,47,31,36,21
1,-14,-15,6,8,-14,-10,-21,48,25,30,16
-1,-14,-13,7,6,-13,-2,-16,51,16,22,11
-7,-13,-6,10,0,-9,2,-11,54,12,16,6
-15,-13,2,14,-8,-5,6,-6,57,13,14,1
-22,-14,8,18,-15,-3,11,-1,58,13,13,0
-27,-17,10,22,-18,-3,17,2,58,10,13,0
-30,-20,10,25,-20,-5,19,4,58,8,14,0
-33,-23,10,28,-21,-6,18,4,58,9,14,0
-34,-24,10,29,-22,-7,20,3,56,8,12,0
-34,-24,10,29,-22,-7,23,3,54,5,9,-2
-33,-23,10,28,-21,-6,23,4,52,3,8,-5
-33,-23,10,28,-21,-6,20,4,52,3,8,-8
-34,-24,10,29,-22,-7,17,3,53,4,9,-9
-34,-24,10,29,-22,-7,14,3,53,4,9,-9
-32,-23,9,27,-20,-7,13,4,52,4,9,-8
-30,-23,7,26,-18,-8,13,7,52,4,9,-8
-28,-24,4,26,-16,-10,15,10,54,3,8,-8
-28,-24,4,26,-16,-10,18,13,56,3,8,-8
-29,-23,6,26,-17,-8,19,14,58,5,10,-9
-29,-23,6,26,-17,-8,19,14,58,8,12,-9
-28,-24,4,26,-16,-10,18,14,57,9,14,-7
-28,-24,4,26,-16,-10,18,14,57,8,14,-5
-29,-23,6,26,-17,-8,19,12,58,10,12,-3
-32,-23,9,27,-20,-7,18,10,58,13,10,-3
-35,-24,11,29,-23,-6,19,7,57,13,8,-5
-38,-24,14,31,-26,-5,19,5,55,13,8,-7
-39,-22,17,30,-28,-2,18,0,49,16,9,-9
-38,-14,24,26,-31,5,16,-8,39,26,14,-9
-39,0,39,19,-39,19,9,-21,26,44,26,-6
-37,18,55,9,-46,36,-1,-38,7,82,53,3
-27,40,67,-6,-47,53,-18,-59,-18,156,101,30
-5,63,68,-29,-36,65,-39,-83,-55,273,175,77
27,83,56,-55,-14,69,-69,-113,-106,423,273,145
73,99,26,-86,23,62,-109,-147,-170,610,400,238
138,114,-24,-126,81,45,-156,-184,-242,846,562,358
213,120,-93,-166,153,13,-202,-215,-314,1090,732,489
280,107,-173,-193,226,-33,-229,-225,-376,1256,853,596
323,66,-257,-194,290,-95,-231,-209,-439,1274,879,649
328,-11,-339,-158,333,-175,-210,-173,-531,1094,781,627
299,-118,-417,-90,358,-267,-168,-117,-654,746,574,537
250,-236,-486,-7,368,-361,-105,-36,-786,332,313,406
188,-341,-529,76,358,-435,-31,46,-943,-74,50,259
118,-409,-527,145,322,-468,28,86,-1178,-430,-171,118
47,-436,-483,194,265,-459,65,79,-1464,-710,-330,-1
-6,-438,-432,222,213,-435,88,55,-1703,-902,-430,-89
-43,-435,-392,239,174,-413,110,39,-1848,-1012,-486,-147
-72,-449,-377,260,152,-413,148,46,-1896,-1066,-528,-192
-95,-483,-388,289,146,-435,197,75,-1870,-1081,-561,-225
-105,-521,-416,313,155,-468,237,109,-1810,-1067,-572,-236
-103,-557,-454,330,175,-505,259,139,-1730,-1035,-563,-229
-100,-594,-494,347,197,-544,262,160,-1622,-990,-546,-218
-97,-624,-527,360,215,-575,250,163,-1487,-933,-521,-204
-95,-624,-529,359,217,-576,222,138,-1333,-850,-474,-181
-91,-588,-497,339,203,-542,175,87,-1174,-744,-408,-147
-80,-524,-444,302,182,-484,107,25,-1027,-635,-339,-113
-65,-444,-379,254,157,-411,25,-33,-895,-533,-275,-84
-51,-364,-313,207,131,-338,-52,-80,-767,-441,-220,-62
-41,-291,-250,166,104,-270,-109,-107,-638,-360,-174,-45
-36,-224,-188,130,76,-206,-133,-109,-504,-291,-139,-32
-34,-169,-135,101,50,-152,-126,-88,-369,-231,-113,-23
-32,-138,-106,85,37,-122,-104,-55,-243,-175,-88,-14
-30,-127,-97,78,33,-112,-78,-23,-136,-122,-61,-7
-27,-113,-86,70,29,-99,-59,-8,-50,-70,-34,0
-25,-87,-62,56,18,-74,-49,-10,14,-23,-10,6
-21,-56,-35,38,7,-45,-47,-17,60,12,10,12
-16,-26,-10,21,-3,-18,-47,-22,93,35,27,17
-10,-3,7,6,-8,2,-47,-25,121,48,38,20
-5,10,15,-2,-10,12,-45,-23,150,57,42,22
-2,15,17,-6,-9,16,-39,-11,180,69,43,26
-1,14,15,-6,-8,14,-29,5,207,85,45,31
2,13,11,-7,-4,12,-18,20,229,98,52,36
6,16,10,-11,-2,13,-9,28,244,107,63,41
10,23,13,-16,-1,18,-11,27,249,116,72,43
12,34,22,-23,-5,28,-20,21,248,123,76,42
15,42,27,-28,-6,34,-25,17,248,127,78,43
18,47,29,-32,-5,38,-24,15,250,126,78,46
19,48,29,-33,-5,38,-23,12,255,125,77,49
19,48,29,-33,-5,38,-24,8,260,125,78,52
18,47,29,-32,-5,38,-22,10,265,126,77,53
19,47,28,-33,-4,37,-19,16,270,128,77,52
18,48,30,-33,-6,39,-18,20,274,134,78,54
18,48,30,-33,-6,39,-19,19,277,143,81,56
20,47,27,-33,-3,37,-18,18,278,147,82,58
22,47,25,-34,-1,36,-15,18,278,146,82,58
24,49,25,-36,0,37,-13,19,277,145,81,57
24,51,27,-37,-1,39,-13,19,277,145,82,57
23,53,30,-38,-3,41,-15,18,278,146,81,59
23,53,30,-38,-3,41,-18,18,278,146,81,61
24,52,28,-38,-2,40,-19,19,277,145,83,63
24,52,28,-38,-2,40,-18,19,277,145,85,63
23,53,30,-38,-3,41,-19,18,278,147,87,62
23,53,30,-38,-3,41,-22,18,278,149,87,62
25,52,27,-38,-1,39,-24,19,277,151,86,63
27,52,25,-39,1,38,-24,19,277,151,86,63
29,54,25,-41,2,39,-23,18,278,150,87,62
29,56,27,-42,1,41,-24,18,278,151,87,62
28,58,30,-43,-1,44,-23,19,277,150,86,63
29,58,29,-43,0,43,-23,19,277,150,86,63
28,57,29,-42,0,43,-25,18,278,152,87,62
28,57,29,-42,0,43,-27,18,278,155,86,62
30,58,28,-44,1,43,-29,19,277,156,87,63
32,58,26,-45,3,42,-29,19,277,155,87,63
34,57,23,-45,5,40,-28,18,278,156,86,62
34,57,23,-45,5,40,-28,18,278,159,86,62
33,59,26,-46,3,42,-30,19,277,161,87,63
33,62,29,-47,2,45,-33,19,277,161,87,63
35,62,27,-48,4,44,-34,18,278,160,86,62
37,59,22,-48,7,40,-33,18,278,161,86,62
39,56,17,-47,11,36,-34,19,277,160,88,64
39,53,14,-46,12,33,-37,19,277,160,90,66
38,52,14,-45,12,33,-39,18,278,161,92,68
38,52,14,-45,12,33,-39,18,278,164,92,68
39,53,14,-46,12,33,-38,20,277,165,91,67
39,53,14,-46,12,33,-38,22,274,165,91,67
39,52,13,-45,13,32,-39,24,271,164,92,67
39,52,13,-45,13,32,-39,24,269,164,92,67
38,53,15,-45,11,34,-38,23,267,165,90,68
38,53,15,-45,11,34,-38,23,264,165,87,68
39,51,12,-45,13,31,-39,24,260,164,86,67
39,49,10,-44,14,29,-42,24,255,161,87,64
38,47,9,-42,14,28,-43,23,251,160,86,61
35,47,12,-41,11,29,-43,23,248,160,83,58
32,48,16,-40,8,32,-42,23,247,160,80,57
30,47,17,-38,6,32,-42,23,245,158,78,57
27,48,21,-37,3,34,-44,24,240,153,78,58
24,48,24,-36,0,36,-46,24,232,147,78,58
23,46,23,-34,0,34,-48,23,225,145,76,56
23,44,21,-33,1,32,-48,23,220,146,70,50
24,42,18,-33,3,30,-46,24,217,143,66,46
24,42,18,-33,3,30,-44,24,215,135,64,43
23,42,19,-32,2,30,-42,22,212,127,61,42
20,42,22,-31,-1,32,-42,20,207,120,55,40
17,43,26,-30,-4,34,-44,18,199,112,50,36
14,46,32,-30,-9,39,-46,18,190,101,45,30
13,48,35,-30,-11,41,-48,19,179,93,41,28
14,48,34,-31,-10,41,-48,19,169,89,36,28
13,46,33,-29,-10,39,-46,19,160,83,30,28
10,41,31,-25,-10,36,-44,19,154,73,22,25
8,36,28,-22,-10,32,-42,18,147,62,16,21
8,31,23,-19,-7,27,-42,18,140,52,11,17
9,27,18,-18,-4,22,-44,20,130,43,5,10
10,24,14,-17,-2,19,-46,22,118,37,0,3
5,23,18,-14,-6,20,-48,24,106,30,-6,-2
-1,20,21,-9,-11,20,-48,24,96,23,-11,-6
-4,16,20,-6,-12,18,-46,23,87,13,-17,-12
-3,11,14,-4,-8,12,-43,23,78,1,-25,-20
-5,6,11,0,-8,8,-42,24,66,-8,-32,-27
-11,1,12,5,-11,6,-42,24,53,-15,-37,-31
-14,-1,13,7,-13,6,-43,23,44,-23,-39,-36
-14,-2,12,8,-13,5,-42,23,38,-34,-41,-40
-14,-5,9,9,-11,2,-43,24,28,-43,-46,-45
-18,-8,10,13,-14,1,-43,24,14,-50,-54,-50
-19,-9,10,14,-14,0,-41,23,4,-55,-60,-54
-18,-8,10,13,-14,1,-36,23,0,-60,-62,-57
-21,-9,12,15,-16,1,-32,24,0,-65,-63,-57
-26,-12,14,19,-20,1,-29,24,-2,-70,-66,-57
-29,-15,14,22,-21,0,-28,22,-6,-74,-69,-59
-29,-18,11,23,-20,-3,-28,20,-14,-76,-71,-62
-29,-19,10,24,-19,-4,-29,18,-23,-80,-74,-62
-32,-19,13,25,-22,-3,-29,18,-31,-85,-76,-59
-34,-18,16,26,-25,-1,-28,20,-36,-88,-78,-58
-33,-18,15,25,-24,-1,-28,23,-38,-89,-80,-61
-34,-19,15,26,-24,-2,-29,24,-39,-95,-83,-64
-37,-18,19,27,-28,0,-29,24,-38,-104,-86,-67
-40,-19,21,29,-30,1,-28,24,-39,-107,-87,-68
-42,-19,23,30,-32,2,-25,24,-41,-107,-87,-67
-42,-18,24,30,-33,3,-22,23,-45,-108,-87,-68
-40,-18,22,29,-31,2,-20,20,-50,-113,-89,-71
-38,-20,18,29,-28,-1,-17,17,-55,-119,-94,-74
-38,-22,16,30,-27,-3,-14,14,-61,-124,-100,-76
-39,-24,15,31,-27,-4,-13,13,-64,-127,-102,-79
-39,-24,15,31,-27,-4,-14,14,-66,-129,-102,-81
-38,-23,15,30,-26,-4,-13,13,-70,-131,-101,-82
-38,-23,15,30,-26,-4,-10,10,-75,-134,-102,-82
-40,-25,15,32,-27,-5,-7,8,-79,-138,-101,-80
-45,-28,17,36,-31,-5,-5,8,-81,-143,-101,-78
-49,-29,20,39,-34,-4,-2,9,-83,-148,-103,-78
-51,-28,23,39,-37,-2,0,9,-86,-153,-105,-80
-54,-30,24,42,-39,-3,0,8,-86,-157,-107,-82
-56,-36,20,46,-38,-8,0,8,-83,-160,-107,-82
-58,-40,18,49,-38,-11,0,9,-81,-161,-106,-81
-58,-42,16,50,-37,-13,2,9,-81,-161,-106,-81
-57,-42,15,49,-36,-13,5,8,-82,-160,-107,-81
-54,-42,12,48,-33,-15,7,8,-82,-161,-107,-81
-51,-44,7,47,-29,-18,10,8,-81,-160,-106,-82
-48,-47,1,47,-24,-23,12,8,-81,-160,-106,-82
-48,-47,1,47,-24,-23,15,9,-82,-161,-107,-81
-51,-43,8,47,-29,-17,18,9,-82,-164,-107,-78
-53,-43,10,48,-31,-16,18,8,-81,-165,-106,-77
-53,-46,7,49,-30,-19,15,8,-81,-164,-106,-77
-52,-47,5,49,-28,-21,13,9,-82,-165,-107,-78
-52,-44,8,48,-30,-18,13,9,-85,-168,-107,-81
-53,-41,12,47,-32,-14,14,8,-87,-170,-106,-82
-53,-39,14,46,-33,-12,14,8,-87,-170,-106,-82
-51,-38,13,44,-32,-12,13,9,-85,-169,-107,-82
-49,-38,11,43,-30,-13,13,12,-80,-170,-107,-82
-47,-38,9,42,-28,-14,15,15,-75,-169,-106,-81
-47,-38,9,42,-28,-14,17,18,-70,-167,-103,-79
-48,-39,9,43,-28,-15,19,19,-66,-162,-100,-76
-48,-42,6,45,-27,-18,19,19,-63,-157,-97,-74
-48,-43,5,45,-26,-19,18,17,-62,-155,-96,-71
-48,-43,5,45,-26,-19,18,15,-59,-156,-97,-68
-47,-43,4,45,-25,-19,18,13,-55,-154,-96,-67
-47,-43,4,45,-25,-19,18,13,-50,-149,-93,-67
-49,-42,7,45,-28,-17,19,14,-45,-143,-90,-68
-51,-39,12,45,-31,-13,19,14,-41,-138,-88,-68
-53,-38,15,45,-34,-11,17,13,-36,-134,-86,-67
-53,-38,15,45,-34,-11,15,13,-30,-131,-83,-64
-52,-39,13,45,-32,-13,13,14,-28,-131,-79,-61
-49,-39,10,44,-29,-14,13,14,-29,-131,-75,-58
-45,-37,8,41,-26,-14,14,13,-26,-129,-71,-57
-41,-34,7,37,-24,-13,13,13,-18,-124,-68,-57
-37,-33,4,35,-20,-14,14,14,-10,-120,-67,-58
-34,-34,0,34,-17,-17,14,14,-6,-119,-67,-58
-34,-33,1,33,-17,-16,12,13,-1,-113,-67,-57
-34,-30,4,32,-19,-13,10,13,2,-105,-67,-54
-32,-28,4,30,-18,-12,8,14,4,-100,-68,-51
-29,-28,1,28,-15,-13,8,14,3,-98,-68,-49
-29,-29,0,29,-14,-14,9,13,5,-95,-66,-46
-32,-28,4,30,-18,-12,9,13,11,-89,-60,-44
-34,-29,5,31,-19,-12,7,14,15,-85,-56,-42
-34,-29,5,31,-19,-12,4,14,18,-82,-53,-40
-33,-28,5,30,-19,-11,3,13,19,-81,-52,-37
-33,-25,8,29,-20,-8,4,13,22,-79,-49,-34
-34,-22,12,28,-23,-5,3,14,25,-75,-46,-33
-34,-19,15,26,-24,-2,0,14,28,-70,-43,-33
-32,-18,14,25,-23,-2,0,13,29,-66,-42,-34
-30,-18,12,24,-21,-3,0,13,28,-63,-43,-34
-28,-19,9,23,-18,-5,0,14,30,-62,-42,-33
-29,-19,10,24,-19,-4,0,14,32,-63,-40,-30
-28,-18,10,23,-19,-4,0,12,34,-62,-37,-26
-25,-18,7,21,-16,-5,0,10,33,-59,-35,-21
-22,-19,3,20,-12,-8,0,8,34,-56,-32,-17
-19,-19,0,19,-9,-9,-3,8,37,-54,-30,-14
-18,-17,1,17,-9,-8,-4,8,39,-50,-27,-12
-18,-14,4,16,-11,-5,-4,8,39,-45,-24,-10
-19,-13,6,16,-12,-3,-3,10,38,-41,-24,-7
-19,-14,5,16,-12,-4,-3,12,38,-39,-24,-4
-17,-13,4,15,-10,-4,-4,14,39,-39,-22,-3
-15,-10,5,12,-10,-2,-7,14,42,-39,-17,-4
-13,-8,5,10,-9,-1,-9,13,43,-37,-11,-3
-14,-9,5,11,-9,-2,-9,14,43,-31,-6,0
-13,-8,5,10,-9,-1,-7,13,42,-27,-2,0
-10,-5,5,7,-7,0,-5,13,42,-25,0,0
-7,-3,4,5,-5,0,-3,15,44,-22,0,0
-4,-3,1,3,-2,-1,-3,17,46,-20,0,0
-3,-3,0,3,-1,-1,-3,19,48,-18,0,0
-3,-3,0,3,-1,-1,-3,19,48,-18,0,0
-5,-4,1,4,-3,-1,-4,18,47,-19,0,0
-7,-7,0,7,-3,-3,-7,18,47,-19,0,0
-9,-9,0,9,-4,-4,-9,19,48,-18,0,0
-9,-9,0,9,-4,-4,-9,19,48,-15,0,0
-8,-8,0,8,-4,-4,-8,18,47,-12,0,0
-8,-8,0,8,-4,-4,-8,18,47,-9,0,0
-9,-9,0,9,-4,-4,-9,19,48,-8,0,0
-9,-9,0,9,-4,-4,-9,19,48,-9,0,0
-7,-7,0,7,-3,-3,-8,18,47,-8,0,0
-5,-5,0,5,-2,-2,-9,18,47,-5,0,0
-3,-3,0,3,-1,-1,-8,19,48,-2,0,0
-4,-3,1,3,-2,-1,-8,19,51,0,2,0
-3,-4,-1,3,-1,-2,-9,18,53,0,5,0
-1,-4,-3,2,1,-3,-9,18,53,0,8,3
0,-2,-2,1,1,-2,-8,19,52,0,9,4
0,1,1,0,0,1,-8,19,51,2,9,4
0,6,6,-3,-3,6,-10,18,54,6,8,4
0,11,11,-5,-5,11,-12,18,60,11,8,6
1,16,15,-8,-7,15,-14,20,64,16,10,12
5,24,19,-14,-7,21,-14,22,66,21,16,20
12,33,21,-22,-4,27,-13,24,70,26,21,26
20,43,23,-31,-1,33,-14,24,77,30,26,28
27,50,23,-38,2,36,-13,24,85,37,32,28
32,55,23,-43,4,39,-11,26,93,45,39,28
34,61,27,-47,3,44,-6,31,100,48,45,31
34,69,35,-51,0,52,1,36,105,48,47,36
33,74,41,-53,-4,57,5,39,107,48,48,39
33,76,43,-54,-5,59,5,37,107,51,50,39
35,81,46,-58,-5,63,1,28,106,53,55,39
37,88,51,-62,-7,69,-9,15,106,53,60,42
39,93,54,-66,-7,73,-30,3,107,52,63,42
39,92,53,-65,-7,72,-59,-4,107,52,63,40
39,92,53,-65,-7,72,-82,-12,105,53,62,38
41,92,51,-66,-5,71,-97,-20,100,53,63,38
44,89,45,-66,0,67,-105,-26,93,52,62,39
47,82,35,-64,6,58,-110,-28,85,53,59,38
48,74,26,-61,11,50,-112,-28,79,52,56,39
48,69,21,-58,13,45,-112,-25,74,52,53,41
48,66,18,-57,15,42,-112,-23,72,53,53,45
50,63,13,-56,18,38,-112,-21,71,53,56,50
56,62,6,-59,25,34,-110,-16,74,52,59,54
63,62,-1,-62,32,30,-105,-8,79,52,62,57
71,63,-8,-67,39,27,-98,-1,83,53,63,57
76,64,-12,-70,44,26,-90,3,83,56,63,57
78,60,-18,-69,48,21,-84,4,79,59,63,59
78,52,-26,-65,52,13,-80,4,72,59,63,65
77,43,-34,-60,55,4,-74,4,64,55,62,69
75,34,-41,-54,58,-3,-67,4,57,47,59,72
70,23,-47,-46,58,-12,-59,2,48,39,56,73
65,13,-52,-39,58,-19,-54,-1,37,35,53,73
62,6,-56,-34,59,-25,-51,-5,32,33,52,71
62,4,-58,-33,60,-27,-49,-7,33,33,53,68
62,4,-58,-33,60,-27,-47,-10,34,34,52,67
60,4,-56,-32,58,-26,-44,-12,33,34,49,68
54,2,-52,-28,53,-25,-41,-14,34,33,46,66
44,-1,-45,-21,44,-23,-36,-14,37,30,44,61
34,-6,-40,-14,37,-23,-31,-13,39,27,41,55
23,-11,-34,-6,28,-22,-26,-10,39,24,39,50
14,-16,-30,1,22,-23,-21,-7,38,24,38,45
7,-22,-29,7,18,-25,-17,-3,38,24,36,41
1,-24,-25,11,13,-24,-10,3,39,22,30,36
-1,-24,-23,12,11,-23,-3,10,41,16,22,31
-6,-23,-17,14,5,-20,2,16,43,13,16,26
-11,-23,-12,17,0,-17,6,21,43,13,14,20
-15,-24,-9,19,-3,-16,11,26,42,13,13,18
-17,-27,-10,22,-3,-18,17,32,39,10,13,18
-20,-30,-10,25,-5,-20,19,34,38,8,14,19
-22,-33,-11,27,-5,-22,18,34,39,9,14,19
-24,-34,-10,29,-7,-22,19,33,38,8,12,18
-24,-34,-10,29,-7,-22,22,33,35,5,10,15
-23,-33,-10,28,-6,-21,24,34,33,3,8,12
-23,-33,-10,28,-6,-21,24,33,33,3,8,9
-24,-34,-10,29,-7,-22,24,34,34,4,9,8
-24,-34,-10,29,-7,-22,24,34,34,4,9,8
-23,-33,-10,28,-6,-21,23,33,33,4,9,9
-23,-33,-10,28,-6,-21,20,30,33,4,9,9
-24,-34,-10,29,-7,-22,18,27,35,3,8,9
-27,-34,-7,30,-10,-20,18,24,37,3,8,9
-29,-33,-4,31,-12,-18,19,23,39,5,9,8
-29,-33,-4,31,-12,-18,19,23,39,7,12,8
-28,-34,-6,31,-11,-20,18,24,39,9,14,9
-28,-34,-6,31,-11,-20,19,24,39,9,14,12
-29,-33,-4,31,-12,-18,18,23,38,9,12,14
-29,-33,-4,31,-12,-18,18,23,35,9,10,14
-29,-34,-5,31,-12,-19,19,24,32,7,8,13
-29,-34,-5,31,-12,-19,19,25,27,4,8,10
-28,-32,-4,30,-12,-18,18,21,20,4,9,8
-28,-25,3,26,-15,-11,13,10,10,12,13,7
-29,-11,18,20,-23,3,3,-2,-2,27,25,11
-27,7,34,10,-30,20,-10,-18,-21,60,51,22
-18,29,47,-5,-32,38,-27,-39,-46,129,97,48
3,51,48,-27,-22,49,-48,-65,-82,242,166,93
35,71,36,-53,0,53,-77,-97,-132,388,260,159
80,88,8,-84,36,48,-116,-134,-195,569,382,251
143,103,-40,-123,91,31,-162,-174,-267,801,541,370
216,113,-103,-164,159,5,-207,-208,-340,1048,713,502
280,105,-175,-192,227,-35,-232,-222,-401,1221,838,611
321,68,-253,-194,287,-92,-232,-210,-462,1248,870,667
330,-5,-335,-162,332,-170,-212,-177,-555,1082,781,649
305,-111,-416,-97,360,-263,-171,-121,-684,744,579,559
260,-229,-489,-15,374,-359,-109,-42,-826,335,320,427
201,-336,-537,67,369,-436,-35,41,-989,-70,55,279
132,-406,-538,137,335,-472,25,85,-1217,-430,-168,135
61,-435,-496,187,278,-465,63,80,-1492,-716,-328,14
5,-437,-442,216,223,-439,87,56,-1724,-913,-429,-75
-31,-434,-403,232,186,-418,109,39,-1865,-1027,-485,-135
-60,-449,-389,254,164,-419,144,45,-1915,-1082,-524,-180
-84,-487,-403,285,159,-445,191,73,-1896,-1098,-556,-213
-95,-532,-437,313,171,-484,229,107,-1841,-1082,-567,-227
-94,-573,-479,333,192,-526,249,137,-1765,-1047,-556,-220
-90,-612,-522,351,216,-567,252,159,-1658,-1002,-537,-208
-88,-640,-552,364,232,-596,241,164,-1521,-946,-512,-192
-86,-638,-552,362,233,-595,214,141,-1366,-866,-468,-166
-82,-601,-519,341,218,-560,169,90,-1205,-762,-404,-131
-73,-538,-465,305,196,-501,103,29,-1054,-651,-334,-96
-59,-461,-402,260,171,-431,23,-29,-916,-545,-267,-66
-48,-384,-336,216,144,-360,-51,-77,-782,-449,-207,-43
-41,-314,-273,177,116,-293,-107,-106,-648,-366,-157,-26
-37,-248,-211,142,87,-229,-133,-110,-512,-294,-121,-13
-35,-191,-156,113,60,-173,-127,-90,-376,-232,-94,-4
-32,-158,-126,95,47,-142,-105,-57,-251,-173,-70,3
-30,-146,-116,88,43,-131,-80,-25,-142,-116,-43,9
-28,-133,-105,80,38,-119,-60,-10,-54,-63,-17,18
-25,-108,-83,66,29,-95,-50,-13,11,-17,6,28
-22,-78,-56,50,17,-67,-47,-23,58,19,28,38
-17,-48,-31,32,7,-39,-47,-30,91,44,46,45
-11,-23,-12,17,0,-17,-47,-36,120,57,57,49
-6,-5,1,5,-3,-2,-45,-37,149,64,61,51
-2,2,4,0,-3,3,-39,-28,178,72,63,54
0,4,4,-2,-2,4,-30,-12,205,85,65,59
1,3,2,-2,0,2,-18,0,228,97,70,65
3,2,-1,-2,2,0,-10,5,243,107,78,71
4,6,2,-5,1,4,-10,1,249,116,84,73
3,14,11,-8,-4,12,-19,-5,248,123,86,73
4,23,19,-13,-7,21,-25,-10,248,126,87,72
7,30,23,-18,-8,26,-24,-9,250,124,87,72
9,35,26,-22,-8,30,-23,-8,255,120,87,73
9,38,29,-23,-10,33,-24,-9,260,118,87,73
8,39,31,-23,-11,35,-23,-7,265,116,86,72
9,38,29,-23,-10,33,-20,-4,270,116,86,72
8,39,31,-23,-11,35,-18,-4,274,118,87,73
8,39,31,-23,-11,35,-19,-7,277,123,90,76
9,38,29,-23,-10,33,-18,-9,278,127,92,78
12,35,23,-23,-5,29,-15,-9,278,129,92,78
14,33,19,-23,-2,26,-13,-8,277,132,91,77
14,33,19,-23,-2,26,-13,-8,277,134,92,77
13,34,21,-23,-4,27,-15,-9,278,137,91,78
13,34,21,-23,-4,27,-18,-9,278,139,91,81
14,33,19,-23,-2,26,-19,-8,277,142,92,82
14,33,19,-23,-2,26,-18,-8,277,144,95,82
13,34,21,-23,-4,27,-19,-9,278,147,97,81
13,37,24,-25,-5,30,-22,-12,278,149,97,81
14,39,25,-26,-5,32,-24,-15,277,151,96,82
17,41,24,-29,-3,32,-24,-18,277,151,96,82
19,44,25,-31,-3,34,-23,-19,278,150,97,81
19,46,27,-32,-4,36,-23,-19,281,147,97,81
18,48,30,-33,-6,39,-23,-18,284,144,96,82
19,48,29,-33,-5,38,-23,-18,286,141,96,82
18,47,29,-32,-5,38,-24,-19,287,141,97,81
18,47,29,-32,-5,38,-24,-19,287,144,96,81
19,48,29,-33,-5,38,-23,-18,286,146,97,82
22,48,26,-35,-2,37,-20,-18,286,145,97,82
24,47,23,-35,0,35,-18,-19,287,146,96,81
24,47,23,-35,0,35,-18,-19,287,149,96,81
23,48,25,-35,-1,36,-20,-18,286,151,97,82
23,51,28,-37,-2,39,-22,-18,286,151,97,82
24,53,29,-38,-2,41,-24,-19,287,150,96,81
27,53,26,-40,0,39,-23,-19,287,151,96,81
29,52,23,-40,3,37,-24,-18,286,150,97,82
29,52,23,-40,3,37,-27,-18,286,150,100,85
28,53,25,-40,1,39,-29,-19,287,151,102,87
28,53,25,-40,1,39,-29,-19,290,154,102,87
29,53,24,-41,2,38,-28,-17,292,156,101,86
29,53,24,-41,2,38,-28,-14,292,156,101,86
29,52,23,-40,3,37,-29,-14,291,155,102,86
29,52,23,-40,3,37,-29,-16,291,155,102,86
28,53,25,-40,1,39,-28,-20,292,156,101,87
28,53,25,-40,1,39,-28,-23,292,156,98,87
29,52,23,-40,3,37,-29,-24,290,155,96,85
29,49,20,-39,4,34,-32,-24,285,152,97,81
28,47,19,-37,4,33,-34,-24,281,150,96,75
25,47,22,-36,1,34,-34,-24,278,150,93,69
23,48,25,-35,-1,36,-32,-23,278,152,90,67
23,47,24,-35,0,35,-30,-20,278,154,87,67
24,48,24,-36,0,36,-28,-17,276,156,87,68
24,48,24,-36,0,36,-28,-14,271,155,87,69
23,47,24,-35,0,35,-29,-13,265,156,85,66
23,44,21,-33,1,32,-29,-14,260,157,80,60
24,42,18,-33,3,30,-28,-13,256,153,76,56
24,43,19,-33,2,31,-25,-13,254,145,74,53
23,42,19,-32,2,30,-23,-15,251,138,71,52
20,40,20,-30,0,30,-23,-21,247,133,66,49
17,38,21,-27,-2,29,-25,-25,240,128,60,46
15,38,23,-26,-4,30,-27,-28,230,120,55,41
12,39,27,-25,-7,33,-29,-29,219,114,51,37
7,42,35,-24,-14,38,-29,-29,209,110,46,35
0,43,43,-21,-21,43,-28,-29,200,103,39,32
-6,41,47,-17,-26,44,-25,-29,193,93,32,26
-10,36,46,-13,-28,41,-22,-28,187,82,26,21
-10,31,41,-10,-25,36,-19,-26,180,72,22,17
-8,27,35,-9,-21,31,-18,-21,170,64,16,10
-7,24,31,-8,-19,27,-18,-16,157,56,8,3
-11,23,34,-6,-22,28,-19,-13,146,50,1,-2
-20,20,40,0,-30,30,-19,-13,136,44,-4,-6
-24,16,40,4,-32,28,-18,-14,127,33,-12,-11
-23,11,34,6,-28,22,-15,-14,117,20,-22,-19
-25,7,32,9,-28,19,-13,-13,107,10,-33,-26
-31,4,35,13,-33,19,-13,-13,96,3,-43,-31
-34,3,37,15,-35,20,-14,-14,89,-3,-51,-35
-34,4,38,15,-36,21,-13,-14,85,-13,-58,-39
-34,3,37,15,-35,20,-14,-13,77,-22,-66,-45
-37,3,40,17,-38,21,-14,-13,64,-30,-74,-53
-39,5,44,17,-41,24,-12,-14,54,-36,-79,-61
-38,8,46,15,-42,27,-7,-14,48,-40,-81,-66
-40,8,48,16,-44,28,-1,-13,47,-45,-82,-68
-45,5,50,20,-47,27,2,-10,48,-50,-82,-67
-48,2,50,23,-49,26,5,-8,47,-54,-81,-68
-48,1,49,23,-48,25,7,-8,42,-56,-81,-71
-48,-1,47,24,-47,23,9,-10,35,-60,-82,-73
-51,-5,46,28,-48,20,12,-12,27,-65,-85,-72
-53,-11,42,32,-47,15,15,-14,22,-68,-87,-74
-52,-17,35,34,-43,9,18,-13,19,-70,-90,-78
-53,-19,34,36,-43,7,18,-14,18,-76,-93,-84
-56,-16,40,36,-48,12,15,-17,16,-87,-99,-89
-59,-12,47,35,-53,17,13,-20,11,-94,-103,-93
-62,-9,53,35,-57,22,13,-23,6,-96,-106,-96
-63,-8,55,35,-59,23,14,-24,2,-98,-107,-97
-62,-8,54,35,-58,23,17,-24,-1,-103,-109,-97
-63,-9,54,36,-58,22,20,-23,-6,-109,-114,-96
-66,-12,54,39,-60,21,22,-24,-11,-114,-120,-96
-68,-14,54,41,-61,20,24,-23,-14,-118,-122,-97
-68,-14,54,41,-61,20,26,-23,-14,-120,-119,-100
-67,-13,54,40,-60,20,31,-24,-14,-122,-115,-102
-67,-13,54,40,-60,20,36,-27,-17,-124,-112,-102
-69,-15,54,42,-61,19,39,-29,-20,-127,-111,-101
-71,-17,54,44,-62,18,39,-29,-22,-132,-111,-100
-73,-19,54,46,-63,17,38,-28,-25,-138,-112,-103
-72,-18,54,45,-63,18,38,-28,-28,-143,-115,-109
-73,-19,54,46,-63,17,38,-29,-29,-147,-117,-112
-76,-22,54,49,-65,16,38,-29,-28,-150,-117,-112
-78,-24,54,51,-66,15,39,-28,-29,-151,-116,-111
-78,-24,54,51,-66,15,41,-28,-33,-151,-116,-111
-77,-23,54,50,-65,15,44,-28,-33,-150,-117,-112
-78,-23,55,50,-66,16,46,-28,-31,-150,-117,-111
-77,-25,52,51,-64,13,48,-29,-27,-150,-116,-112
-77,-28,49,52,-63,10,51,-29,-24,-150,-116,-112
-78,-28,50,53,-64,11,54,-28,-23,-151,-117,-111
-80,-24,56,52,-68,16,57,-28,-23,-151,-117,-108
-82,-24,58,53,-70,17,57,-29,-24,-150,-116,-106
-82,-27,55,54,-68,14,54,-29,-24,-147,-116,-106
-81,-28,53,54,-67,12,53,-28,-24,-145,-117,-108
-81,-26,55,53,-68,14,55,-25,-24,-146,-117,-110
-82,-22,60,52,-71,19,59,-22,-23,-145,-116,-112
-82,-19,63,50,-72,22,62,-19,-21,-142,-116,-112
-81,-18,63,49,-72,22,63,-18,-16,-140,-117,-112
-78,-18,60,48,-69,21,62,-18,-8,-140,-117,-112
-77,-19,58,48,-67,19,63,-19,0,-140,-116,-111
-77,-18,59,47,-68,20,66,-19,6,-138,-114,-108
-77,-19,58,48,-67,19,68,-18,10,-133,-109,-105
-77,-19,58,48,-67,19,68,-18,13,-125,-104,-103
-78,-18,60,48,-69,21,67,-19,14,-120,-100,-100
-78,-15,63,46,-70,24,67,-22,17,-118,-98,-98
-76,-13,63,44,-69,25,67,-24,20,-115,-96,-96
-71,-14,57,42,-64,21,67,-24,25,-110,-93,-96
-66,-13,53,39,-59,20,68,-23,31,-104,-90,-97
-63,-10,53,36,-58,21,68,-23,36,-99,-87,-97
-62,-7,55,34,-58,24,67,-24,40,-95,-86,-96
-63,-5,58,34,-60,26,64,-24,43,-95,-87,-96
-62,-3,59,32,-60,28,62,-23,42,-98,-86,-97
-59,-1,58,30,-58,28,62,-23,39,-101,-83,-97
-56,1,57,27,-56,29,63,-24,40,-100,-80,-96
-53,3,56,25,-54,29,62,-24,45,-94,-78,-93
-52,4,56,24,-54,30,63,-23,49,-90,-77,-90
-52,3,55,24,-53,29,63,-23,51,-88,-78,-88
-53,4,57,24,-55,30,62,-24,55,-84,-77,-85
-53,7,60,23,-56,33,59,-24,60,-76,-74,-83
-52,9,61,21,-56,35,57,-23,63,-71,-72,-81
-49,9,58,20,-53,33,57,-23,62,-69,-69,-79
-47,8,55,19,-51,31,58,-24,64,-66,-66,-76
-48,9,57,19,-52,33,58,-24,69,-61,-60,-71
-47,8,55,19,-51,31,56,-23,74,-56,-56,-65
-44,8,52,18,-48,30,53,-23,77,-53,-54,-60
-42,9,51,16,-46,30,53,-24,78,-52,-52,-56
-42,12,54,15,-48,33,56,-24,78,-53,-49,-53
-43,15,58,14,-50,36,58,-23,78,-52,-46,-52
-43,18,61,12,-52,39,58,-23,78,-49,-43,-52
-42,19,61,11,-51,40,57,-24,77,-46,-42,-53
-42,19,61,11,-51,40,57,-24,77,-43,-43,-56
-44,18,62,13,-53,40,57,-23,78,-43,-42,-58
-47,18,65,14,-56,41,57,-23,81,-43,-40,-58
-47,19,66,14,-56,42,58,-24,82,-41,-37,-57
-44,19,63,12,-53,41,58,-27,81,-34,-35,-54
-41,18,59,11,-50,38,57,-29,82,-24,-32,-52
-39,18,57,10,-48,37,54,-29,86,-16,-30,-52
-38,19,57,9,-47,38,52,-29,86,-13,-28,-53
-38,22,60,8,-49,41,52,-29,84,-16,-28,-53
-39,24,63,7,-51,43,53,-28,80,-21,-30,-52
-39,23,62,8,-50,42,53,-25,78,-26,-33,-53
-38,25,63,6,-50,44,52,-22,78,-29,-33,-52
-35,30,65,2,-50,47,49,-20,80,-29,-30,-52
-33,35,68,-1,-50,51,47,-17,82,-28,-28,-53
-33,38,71,-2,-52,54,47,-15,82,-25,-29,-53
-34,39,73,-2,-53,56,48,-13,81,-22,-28,-52
-34,38,72,-2,-53,55,48,-13,81,-20,-25,-49
-33,39,72,-3,-52,55,48,-14,82,-18,-22,-47
-30,42,72,-6,-51,57,48,-14,82,-15,-20,-47
-27,43,70,-8,-48,56,47,-13,81,-12,-18,-48
-24,42,66,-9,-45,54,47,-13,81,-9,-15,-48
-23,43,66,-10,-44,54,48,-14,82,-8,-12,-47
-24,46,70,-11,-47,58,51,-14,85,-9,-10,-47
-23,48,71,-12,-47,59,53,-13,87,-8,-8,-48
-20,48,68,-14,-44,58,52,-10,87,-5,-8,-48
-18,47,65,-14,-41,56,53,-8,86,-2,-9,-47
-18,47,65,-14,-41,56,56,-8,86,0,-9,-47
-19,47,66,-14,-42,56,57,-9,87,0,-9,-48
-19,47,66,-14,-42,56,55,-9,87,0,-9,-48
-18,48,66,-15,-42,57,51,-8,86,0,-8,-47
-18,49,67,-15,-42,58,48,-8,86,0,-8,-47
-19,46,65,-13,-42,55,47,-9,87,0,-9,-48
-22,40,62,-9,-42,51,47,-8,87,-3,-12,-48
-24,38,62,-7,-43,50,48,-9,86,-3,-14,-47
-23,41,64,-9,-43,52,48,-9,86,-1,-14,-47
