I,II,III,aVR,aVL,aVF,V1,V2,V3,V4,V5,V6
-87,29,117,29,-102,73,-48,146,488,575,351,-29
-87,29,117,29,-102,73,-48,146,488,575,351,-29
-87,29,117,29,-102,73,-48,146,488,575,351,-29
-87,29,117,29,-102,73,-48,146,488,575,351,-29
-73,29,102,21,-87,65,-48,161,502,590,366,-24
-68,29,97,19,-82,63,-48,165,517,605,370,-19
-63,29,92,17,-78,61,-48,170,531,619,375,-14
-58,29,87,14,-73,58,-48,175,546,634,380,-9
-78,19,97,29,-87,58,-43,195,561,649,390,-9
-87,19,107,34,-97,63,-39,204,575,663,390,-9
-97,19,117,39,-107,68,-34,214,590,678,390,-9
-107,19,126,43,-117,73,-29,224,605,692,390,-9
-97,24,122,36,-109,73,-19,244,619,712,405,4
-87,29,117,29,-102,73,-9,253,634,722,409,9
-78,34,112,21,-95,73,0,263,649,732,414,14
-68,39,107,14,-87,73,9,273,663,741,419,19
-78,34,112,21,-95,73,19,287,678,756,419,19
-78,29,107,24,-92,68,19,292,683,761,419,19
-78,24,102,26,-90,63,19,297,688,766,419,19
-78,19,97,29,-87,58,19,302,692,771,419,19
-78,19,97,29,-87,58,29,312,707,775,419,29
-78,19,97,29,-87,58,29,312,712,780,419,29
-78,19,97,29,-87,58,29,312,717,785,419,29
-78,19,97,29,-87,58,29,312,722,790,419,29
-63,34,97,14,-80,65,39,326,727,790,429,34
-58,39,97,9,-78,68,39,331,732,790,429,39
-53,43,97,4,-75,70,39,336,736,790,429,43
-48,48,97,0,-73,73,39,341,741,790,429,48
-58,58,117,0,-87,87,43,351,736,775,419,53
-58,58,117,0,-87,87,48,351,732,771,419,58
-58,58,117,0,-87,87,53,351,727,766,419,63
-58,58,117,0,-87,87,58,351,722,761,419,68
-48,68,117,-9,-82,92,68,346,697,732,405,78
-48,68,117,-9,-82,92,68,341,683,712,400,78
-48,68,117,-9,-82,92,68,336,668,692,395,78
-48,68,117,-9,-82,92,68,331,653,673,390,78
-63,78,141,-7,-102,109,82,322,624,639,370,82
-68,78,146,-4,-107,112,87,322,605,614,361,87
-73,78,151,-2,-112,114,92,322,585,590,351,92
-78,78,156,0,-117,117,97,322,566,566,341,97
-63,78,141,-7,-102,109,107,302,527,531,322,82
-58,78,136,-9,-97,107,107,292,497,497,302,78
-53,78,131,-12,-92,104,107,283,468,463,283,73
-48,78,126,-14,-87,102,107,273,439,429,263,68
-53,68,122,-7,-87,95,107,258,405,390,239,58
-58,68,126,-4,-92,97,107,244,380,361,224,48
-63,68,131,-2,-97,100,107,229,356,331,209,39
-68,68,136,0,-102,102,107,214,331,302,195,29
-68,48,117,9,-92,82,97,195,302,268,175,9
-68,39,107,14,-87,73,97,185,273,244,156,0
-68,29,97,19,-82,63,97,175,244,219,136,-9
-68,19,87,24,-78,53,97,165,214,195,117,-19
-78,29,107,24,-92,68,87,146,204,175,102,-29
-87,29,117,29,-102,73,87,136,195,165,97,-29
-97,29,126,34,-112,78,87,126,185,156,92,-29
-107,29,136,39,-122,82,87,117,175,146,87,-29
-92,19,112,36,-102,65,73,92,151,122,73,-39
-87,9,97,39,-92,53,58,78,136,107,58,-48
-82,0,82,41,-82,41,43,63,122,92,43,-58
-78,-9,68,43,-73,29,29,48,107,78,29,-68
-78,-9,68,43,-73,29,19,34,92,63,19,-73
-78,-9,68,43,-73,29,9,29,87,58,19,-78
-78,-9,68,43,-73,29,0,24,82,53,19,-82
-78,-9,68,43,-73,29,-9,19,78,48,19,-87
-68,0,68,34,-68,34,-24,4,63,43,9,-87
-58,0,58,29,-58,29,-29,0,58,39,9,-87
-48,0,48,24,-48,24,-34,-4,53,34,9,-87
-39,0,39,19,-39,19,-39,-9,48,29,9,-87
-29,0,29,14,-29,14,-48,0,58,19,9,-97
-29,0,29,14,-29,14,-48,0,58,19,9,-97
-29,0,29,14,-29,14,-48,0,58,19,9,-97
-29,0,29,14,-29,14,-48,0,58,19,9,-97
-39,-4,34,21,-36,14,-63,-4,53,9,4,-97
-48,-9,39,29,-43,14,-68,-9,48,9,0,-97
-58,-14,43,36,-51,14,-73,-14,43,9,-4,-97
-68,-19,48,43,-58,14,-78,-19,39,9,-9,-97
-68,-14,53,41,-61,19,-87,-29,39,19,-4,-87
-68,-9,58,39,-63,24,-87,-29,39,19,0,-87
-68,-4,63,36,-65,29,-87,-29,39,19,4,-87
-68,0,68,34,-68,34,-87,-29,39,19,9,-87
-63,0,63,31,-63,31,-87,-39,29,19,9,-78
-58,0,58,29,-58,29,-87,-39,29,19,9,-78
-53,0,53,26,-53,26,-87,-39,29,19,9,-78
-48,0,48,24,-48,24,-87,-39,29,19,9,-78
-58,-9,48,34,-53,19,-78,-34,29,19,14,-73
-58,-9,48,34,-53,19,-78,-29,29,19,19,-68
-58,-9,48,34,-53,19,-78,-24,29,19,24,-63
-58,-9,48,34,-53,19,-78,-19,29,19,29,-58
-48,0,48,24,-48,24,-68,-24,19,19,19,-43
-39,0,39,19,-39,19,-68,-29,19,19,19,-39
-29,0,29,14,-29,14,-68,-34,19,19,19,-34
-19,0,19,9,-19,9,-68,-39,19,19,19,-29
-29,-4,24,17,-26,9,-58,-24,29,19,24,-19
-39,-9,29,24,-34,9,-58,-19,29,19,29,-19
-48,-14,34,31,-41,9,-58,-14,29,19,34,-19
-58,-19,39,39,-48,9,-58,-9,29,19,39,-19
-48,-9,39,29,-43,14,-43,0,29,29,39,-9
-48,-9,39,29,-43,14,-39,0,29,29,39,-9
-48,-9,39,29,-43,14,-34,0,29,29,39,-9
-48,-9,39,29,-43,14,-29,0,29,29,39,-9
-53,-19,34,36,-43,7,-14,4,39,39,43,-4
-58,-19,39,39,-48,9,-9,9,39,39,48,0
-63,-19,43,41,-53,12,-9,14,39,39,48,4
-68,-29,39,48,-53,4,-14,14,34,39,48,9
-39,-14,24,26,-31,4,-9,14,39,34,58,4
-43,-9,34,26,-39,12,-4,19,34,29,48,-4
-48,0,48,24,-48,24,0,24,29,29,43,-14
-43,4,48,19,-46,26,9,29,29,34,43,0
-43,0,43,21,-43,21,24,39,43,43,53,4
-29,4,34,12,-31,19,29,48,43,43,53,4
-24,0,24,12,-24,12,29,53,43,39,53,4
-63,-9,53,36,-58,21,34,53,48,39,53,4
-63,-14,48,39,-56,17,48,63,48,48,48,4
-68,-14,53,41,-61,19,48,63,58,48,48,4
-68,-9,58,39,-63,24,48,63,48,48,43,0
-53,0,53,26,-53,26,53,63,48,48,43,0
-34,19,53,7,-43,36,58,68,48,48,48,4
-48,4,53,21,-51,29,58,68,48,53,48,14
-58,-9,48,34,-53,19,63,53,48,53,48,14
-58,-14,43,36,-51,14,58,53,48,43,48,9
-19,0,19,9,-19,9,43,63,48,48,39,0
-14,0,14,7,-14,7,43,53,39,43,39,0
-19,4,24,7,-21,14,39,43,29,39,34,0
-24,14,39,4,-31,26,34,43,29,29,34,-9
-43,0,43,21,-43,21,43,39,34,39,29,-9
-53,-9,43,31,-48,17,43,43,34,39,29,-9
-58,-14,43,36,-51,14,43,53,34,39,29,-4
-68,-19,48,43,-58,14,43,58,34,24,19,-4
-58,-24,34,41,-46,4,53,53,24,19,14,-4
-63,-24,39,43,-51,7,53,53,24,19,4,-9
-63,-29,34,46,-48,2,53,53,24,24,19,-9
-58,-29,29,43,-43,0,48,43,19,24,24,-9
-48,-14,34,31,-41,9,48,34,9,24,19,-19
-48,-14,34,31,-41,9,48,34,9,19,14,-24
-53,-19,34,36,-43,7,48,39,9,9,9,-24
-53,-19,34,36,-43,7,39,39,4,4,4,-29
-43,-24,19,34,-31,-2,24,34,4,4,-4,-29
-43,-24,19,34,-31,-2,24,34,9,4,4,-29
-53,-29,24,41,-39,-2,39,34,9,4,4,-19
-58,-29,29,43,-43,0,48,34,0,4,0,-19
-58,-29,29,43,-43,0,34,24,0,0,-4,-34
-58,-34,24,46,-41,-4,29,24,4,0,-4,-34
-53,-34,19,43,-36,-7,24,24,4,-4,-4,-34
-48,-29,19,39,-34,-4,19,24,4,-4,-4,-39
-48,-29,19,39,-34,-4,0,24,-4,-4,-14,-39
-53,-34,19,43,-36,-7,-9,19,-4,-4,-14,-34
-58,-34,24,46,-41,-4,-9,14,0,-4,-9,-34
-58,-34,24,46,-41,-4,-14,19,0,-4,-9,-34
-58,-39,19,48,-39,-9,-29,14,-14,-14,-19,-43
-58,-43,14,51,-36,-14,-39,4,-14,-19,-24,-43
-63,-48,14,56,-39,-17,-43,0,-14,-19,-24,-43
-63,-53,9,58,-36,-21,-48,-4,-14,-19,-24,-43
-48,-43,4,46,-26,-19,-63,-9,-14,-9,-24,-34
-48,-53,-4,51,-21,-29,-68,-14,-14,-14,-24,-43
-43,-53,-9,48,-17,-31,-73,-19,-19,-14,-24,-43
-48,-53,-4,51,-21,-29,-73,-24,-19,-14,-24,-43
-53,-43,9,48,-31,-17,-78,-19,-24,-19,-34,-43
-53,-43,9,48,-31,-17,-78,-19,-24,-19,-34,-48
-48,-43,4,46,-26,-19,-73,-19,-24,-19,-34,-53
-48,-43,4,46,-26,-19,-73,-19,-24,-24,-34,-58
-58,-58,0,58,-29,-29,-63,-9,-14,-24,-29,-53
-58,-58,0,58,-29,-29,-63,-4,-14,-24,-29,-53
-58,-53,4,56,-31,-24,-63,-4,-14,-19,-24,-53
-58,-53,4,56,-31,-24,-63,-4,-14,-19,-24,-53
-63,-63,0,63,-31,-31,-58,-4,-14,-19,-39,-63
-68,-68,0,68,-34,-34,-58,-4,-14,-24,-39,-63
-68,-73,-4,70,-31,-39,-58,-4,-19,-29,-43,-68
-73,-78,-4,75,-34,-41,-53,0,-19,-29,-43,-68
-68,-68,0,68,-34,-34,-43,14,-19,-24,-29,-63
-68,-73,-4,70,-31,-39,-39,14,-14,-24,-29,-63
-73,-73,0,73,-36,-36,-39,9,-14,-24,-29,-63
-73,-68,4,70,-39,-31,-29,9,-14,-24,-29,-63
-68,-53,14,61,-41,-19,-14,29,0,-9,-19,-58
-68,-53,14,61,-41,-19,-9,34,4,-4,-19,-53
-73,-63,9,68,-41,-26,-4,39,14,0,-24,-48
-73,-63,9,68,-41,-26,-9,43,19,4,-24,-43
-53,-63,-9,58,-21,-36,-9,39,14,-4,-24,-58
-39,-58,-19,48,-9,-39,-4,39,9,-14,-24,-58
-29,-53,-24,41,-2,-39,9,43,14,-4,-19,-53
-24,-53,-29,39,2,-41,14,43,9,-4,-19,-53
-82,-39,43,61,-63,2,48,68,24,19,9,-24
-102,-58,43,80,-73,-7,48,68,24,19,9,-34
-53,-43,9,48,-31,-17,39,48,4,-4,-9,-43
-14,-29,-14,21,0,-21,43,48,14,-4,-9,-39
-24,-24,0,24,-12,-12,43,43,4,0,4,-24
-34,-39,-4,36,-14,-21,39,34,0,4,14,-24
-53,-34,19,43,-36,-7,39,39,19,43,58,0
-63,29,92,17,-78,61,53,63,87,146,161,48
-29,102,131,-36,-80,117,63,97,175,292,322,146
0,126,126,-63,-63,126,14,87,244,453,497,292
39,146,107,-92,-34,126,-48,53,283,536,605,473
87,204,117,-146,-14,161,-87,-14,244,458,522,575
136,278,141,-207,-2,209,-131,-107,122,214,283,585
146,322,175,-234,-14,248,-195,-209,-29,-107,53,639
165,346,180,-256,-7,263,-268,-336,-248,-536,-165,751
234,346,112,-290,61,229,-351,-488,-561,-1073,-419,902
331,385,53,-358,139,219,-405,-605,-844,-1546,-624,1102
390,390,0,-390,195,195,-429,-668,-1078,-1922,-780,1293
429,366,-63,-397,246,151,-463,-727,-1337,-2283,-951,1473
483,366,-117,-424,300,124,-536,-844,-1649,-2679,-1180,1644
551,429,-122,-490,336,153,-585,-971,-1922,-3010,-1415,1747
551,512,-39,-531,295,236,-590,-1034,-2093,-3220,-1668,1756
512,590,78,-551,217,334,-619,-1093,-2239,-3347,-1927,1688
497,702,204,-600,146,453,-658,-1176,-2381,-3425,-2074,1615
439,761,322,-600,58,541,-658,-1244,-2425,-3406,-2108,1429
273,639,366,-456,-46,502,-610,-1273,-2405,-3298,-2117,1058
112,361,248,-236,-68,305,-546,-1249,-2410,-3132,-2059,683
4,39,34,-21,-14,36,-429,-1127,-2318,-2879,-1878,366
-87,-214,-126,151,19,-170,-287,-985,-2127,-2605,-1781,-78
-190,-380,-190,285,0,-285,-175,-878,-1961,-2371,-1825,-649
-278,-522,-244,400,-17,-383,-48,-746,-1815,-2171,-1839,-1102
-336,-614,-278,475,-29,-446,102,-590,-1634,-1942,-1766,-1356
-346,-605,-258,475,-43,-431,224,-488,-1464,-1712,-1634,-1410
-366,-566,-200,466,-82,-383,229,-502,-1312,-1488,-1439,-1317
-361,-517,-156,439,-102,-336,165,-517,-1176,-1249,-1185,-1107
-356,-414,-58,385,-148,-236,165,-444,-995,-1034,-976,-927
-361,-366,-4,363,-178,-185,170,-356,-834,-863,-824,-829
-297,-346,-48,322,-124,-197,126,-302,-707,-707,-683,-722
-209,-283,-73,246,-68,-178,63,-214,-517,-502,-497,-570
-175,-200,-24,187,-75,-112,39,-97,-317,-292,-317,-424
-151,-175,-24,163,-63,-100,29,-19,-170,-151,-190,-302
-117,-156,-39,136,-39,-97,48,43,-73,-48,-97,-219
-102,-112,-9,107,-46,-61,73,97,4,29,-19,-156
-73,-68,4,70,-39,-31,63,107,43,63,14,-136
-43,-73,-29,58,-7,-51,43,87,58,82,24,-131
-73,-82,-9,78,-31,-46,53,97,92,117,48,-117
-92,-73,19,82,-56,-26,48,107,107,141,87,-92
-24,-53,-29,39,2,-41,19,92,112,161,97,-78
19,-53,-73,17,46,-63,0,73,112,165,107,-73
-9,-73,-63,41,26,-68,-29,73,107,165,97,-63
-39,-73,-34,56,-2,-53,-39,78,112,170,102,-63
-48,-68,-19,58,-14,-43,-34,82,122,170,112,-58
-48,-63,-14,56,-17,-39,-14,92,112,165,102,-63
-53,-63,-9,58,-21,-36,-24,87,117,170,107,-63
-48,-63,-14,56,-17,-39,-29,87,136,185,126,-68
-43,-53,-9,48,-17,-31,-29,87,146,195,131,-63
-43,-43,0,43,-21,-21,-24,87,156,214,146,-39
-43,-53,-9,48,-17,-31,-24,87,165,214,146,-29
-39,-53,-14,46,-12,-34,-34,87,156,209,141,-39
-39,-53,-14,46,-12,-34,-34,87,151,209,126,-48
-43,-34,9,39,-26,-12,-24,102,161,209,141,-43
-48,-34,14,41,-31,-9,-19,102,165,214,146,-48
-48,-43,4,46,-26,-19,-19,97,165,214,151,-53
-34,-43,-9,39,-12,-26,-24,97,170,224,165,-39
-24,-43,-19,34,-2,-31,-14,102,180,234,165,-24
-19,-43,-24,31,2,-34,-4,107,180,244,165,-24
-9,-43,-34,26,12,-39,-4,112,180,244,161,-29
4,-43,-48,19,26,-46,0,117,180,239,161,-29
-14,-53,-39,34,12,-46,9,117,175,229,151,-39
-34,-58,-24,46,-4,-41,4,122,175,229,151,-39
-43,-58,-14,51,-14,-36,4,126,180,239,156,-34
-43,-43,0,43,-21,-21,4,126,185,244,165,-34
-14,-68,-53,41,19,-61,14,117,195,244,161,-34
-4,-78,-73,41,34,-75,14,117,195,253,161,-34
4,-87,-92,41,48,-90,14,117,200,253,161,-29
9,-68,-78,29,43,-73,14,117,200,263,161,-29
0,-58,-58,29,29,-58,24,131,209,263,170,-39
4,-68,-73,31,39,-70,29,136,219,263,175,-34
4,-58,-63,26,34,-61,34,151,224,273,190,-24
4,-53,-58,24,31,-56,39,156,229,283,200,-14
0,-53,-53,26,26,-53,39,156,239,297,204,-4
-9,-53,-43,31,17,-48,48,161,253,307,204,0
4,-53,-58,24,31,-56,58,165,258,312,204,0
9,-48,-58,19,34,-53,78,170,263,312,204,0
24,-43,-68,9,46,-56,78,161,258,322,204,-4
19,-43,-63,12,41,-53,78,175,273,326,214,-4
19,-39,-58,9,39,-48,78,175,283,331,214,-4
24,-34,-58,4,41,-46,78,180,287,346,224,-4
9,-39,-48,14,29,-43,92,180,292,346,214,-4
-4,-43,-39,24,17,-41,92,180,302,351,219,0
-9,-48,-39,29,14,-43,92,180,307,351,229,4
-24,-53,-29,39,2,-41,92,190,312,361,234,4
-19,-43,-24,31,2,-34,102,204,312,366,234,9
-9,-43,-34,26,12,-39,97,204,317,375,234,4
0,-43,-43,21,21,-43,102,209,331,390,244,-4
9,-43,-53,17,31,-48,112,214,341,400,253,-9
14,-29,-43,7,29,-36,122,219,341,419,263,9
14,-29,-43,7,29,-36,126,229,356,434,268,9
4,-39,-43,17,24,-41,126,239,380,439,268,9
14,-39,-53,12,34,-46,131,244,395,448,268,9
19,-34,-53,7,36,-43,126,248,395,453,263,0
14,-39,-53,12,34,-46,126,263,405,468,278,4
0,-43,-43,21,21,-43,131,263,419,478,283,4
-19,-58,-39,39,9,-48,136,278,434,492,287,4
-4,-39,-34,21,14,-36,131,287,444,512,287,14
9,-39,-48,14,29,-43,131,287,458,527,302,19
14,-34,-48,9,31,-41,126,297,473,541,312,24
14,-34,-48,9,31,-41,126,302,488,566,317,29
9,-34,-43,12,26,-39,126,302,502,570,331,29
9,-34,-43,12,26,-39,126,302,517,585,331,34
14,-34,-48,9,31,-41,122,307,531,595,336,34
9,-34,-43,12,26,-39,117,317,551,610,341,34
-19,-43,-24,31,2,-34,97,302,551,614,351,43
-14,-48,-34,31,9,-41,92,302,566,629,361,48
-24,-58,-34,41,4,-46,87,312,585,653,366,63
-34,-58,-24,46,-4,-41,78,312,600,673,370,63
-19,-53,-34,36,7,-43,58,312,610,673,370,63
-19,-53,-34,36,7,-43,53,312,614,688,370,63
-14,-48,-34,31,9,-41,53,312,629,702,375,68
-19,-39,-19,29,0,-29,58,317,649,717,375,68
-14,-39,-24,26,4,-31,39,302,653,722,370,68
-4,-39,-34,21,14,-36,29,297,663,732,380,73
0,-39,-39,19,19,-39,14,297,663,741,385,73
14,-39,-53,12,34,-46,0,297,663,746,385,78
9,-24,-34,7,21,-29,0,302,678,771,385,87
9,-14,-24,2,17,-19,4,307,702,775,390,87
9,-9,-19,0,14,-14,19,326,722,780,395,87
4,-9,-14,2,9,-12,9,331,732,780,405,87
-19,-9,9,14,-14,0,19,351,746,785,405,87
-19,-9,9,14,-14,0,19,356,751,795,405,97
-4,-4,0,4,-2,-2,24,361,766,795,405,102
-4,0,4,2,-4,2,24,366,766,790,405,102
0,9,9,-4,-4,9,14,375,771,800,400,97
9,14,4,-12,2,9,24,375,771,810,400,102
24,14,-9,-19,17,2,24,380,771,800,405,112
34,14,-19,-24,26,-2,29,380,771,800,405,117
34,29,-4,-31,19,12,29,385,771,805,409,126
34,39,4,-36,14,21,19,385,771,800,400,141
39,48,9,-43,14,29,9,375,756,785,409,151
39,48,9,-43,14,29,4,375,746,771,409,161
39,48,9,-43,14,29,9,375,741,751,405,170
39,48,9,-43,14,29,0,361,727,732,395,180
29,58,29,-43,0,43,0,351,707,717,390,180
29,58,29,-43,0,43,0,341,683,702,385,180
34,48,14,-41,9,31,0,336,663,678,375,190
34,53,19,-43,7,36,-9,317,639,653,361,190
39,53,14,-46,12,34,-9,287,600,619,341,180
43,48,4,-46,19,26,-9,268,580,580,331,180
48,58,9,-53,19,34,-4,258,566,556,331,190
63,68,4,-65,29,36,-4,239,536,527,312,195
68,78,9,-73,29,43,-9,214,497,497,302,195
58,87,29,-73,14,58,-4,204,468,483,297,190
68,87,19,-78,24,53,-4,175,444,444,292,195
68,78,9,-73,29,43,-4,151,409,409,268,185
68,78,9,-73,29,43,-9,146,366,375,244,180
68,78,9,-73,29,43,-9,131,341,346,229,175
68,68,0,-68,34,34,-14,122,312,307,219,151
48,58,9,-53,19,34,-9,97,287,287,190,141
48,68,19,-58,14,43,-4,82,268,268,180,131
53,68,14,-61,19,41,0,82,244,253,170,122
39,63,24,-51,7,43,4,82,214,229,151,112
34,53,19,-43,7,36,9,68,200,204,141,112
29,34,4,-31,12,19,14,58,180,190,126,102
24,29,4,-26,9,17,19,53,165,165,122,102
19,19,0,-19,9,9,34,63,151,151,112,92
19,14,-4,-17,12,4,39,53,141,126,102,78
24,14,-9,-19,17,2,43,34,131,122,92,78
43,9,-34,-26,39,-12,48,29,112,117,92,68
34,4,-29,-19,31,-12,58,29,92,87,68,63
19,0,-19,-9,19,-9,68,34,87,82,63,48
19,-9,-29,-4,24,-19,68,34,73,73,53,39
19,-14,-34,-2,26,-24,63,29,58,48,34,24
0,-14,-14,7,7,-14,68,39,63,48,39,29
0,-14,-14,7,7,-14,82,39,63,48,39,29
9,-14,-24,2,17,-19,92,34,63,48,34,24
9,-14,-24,2,17,-19,97,24,63,43,29,24
24,-4,-29,-9,26,-17,102,19,53,29,19,19
24,-4,-29,-9,26,-17,102,43,53,29,14,14
14,-4,-19,-4,17,-12,112,48,53,29,14,14
9,-4,-14,-2,12,-9,112,58,53,29,9,14
9,-14,-24,2,17,-19,92,53,43,19,9,9
9,-19,-29,4,19,-24,92,43,34,9,0,4
19,-24,-43,2,31,-34,92,39,24,4,-19,0
19,-24,-43,2,31,-34,92,34,34,4,-19,0
14,-14,-29,0,21,-21,78,24,34,4,-19,-9
-4,-34,-29,19,12,-31,82,19,34,9,-19,-9
-9,-39,-29,24,9,-34,78,14,29,9,-14,-9
-4,-39,-34,21,14,-36,73,24,19,9,-14,-14
9,-39,-48,14,29,-43,53,19,14,4,-24,-29
14,-39,-53,12,34,-46,34,9,14,0,-24,-34
4,-39,-43,17,24,-41,39,0,14,-4,-24,-34
9,-43,-53,17,31,-48,34,-4,19,-4,-24,-34
4,-34,-39,14,21,-36,19,-14,4,-14,-29,-39
-4,-39,-34,21,14,-36,19,-24,4,-9,-19,-29
-14,-43,-29,29,7,-36,24,-24,9,0,-14,-24
-24,-48,-24,36,0,-36,29,-24,14,9,-9,-19
-14,-43,-29,29,7,-36,19,-43,14,0,-19,-24
-19,-43,-24,31,2,-34,4,-58,4,-4,-19,-29
-24,-53,-29,39,2,-41,-9,-73,0,-14,-19,-29
-19,-53,-34,36,7,-43,-24,-87,-9,-14,-14,-29
-19,-39,-19,29,0,-29,-29,-97,-19,-24,-19,-34
-19,-39,-19,29,0,-29,-34,-102,-14,-14,-14,-29
-19,-39,-19,29,0,-29,-39,-107,-14,-9,-14,-24
-19,-39,-19,29,0,-29,-48,-112,-9,-4,-14,-24
-24,-39,-14,31,-4,-26,-43,-97,4,4,0,-14
-24,-34,-9,29,-7,-21,-39,-92,4,4,9,-4
-14,-29,-14,21,0,-21,-43,-92,4,0,14,0
-4,-24,-19,14,7,-21,-39,-97,9,0,19,4
-9,-39,-29,24,9,-34,-39,-87,0,0,9,-4
-14,-43,-29,29,7,-36,-34,-82,4,9,24,4
-19,-48,-29,34,4,-39,-29,-78,4,14,24,9
-29,-48,-19,39,-4,-34,-19,-73,14,14,19,9
-29,-39,-9,34,-9,-24,-19,-73,24,24,29,4
-29,-39,-9,34,-9,-24,-24,-73,24,24,29,9
0,-34,-34,17,17,-34,-34,-73,19,24,34,14
39,-4,-43,-17,41,-24,-34,-68,14,29,43,24
24,-9,-34,-7,29,-21,-34,-63,24,34,53,34
9,-19,-29,4,19,-24,-34,-68,14,34,53,34
0,-39,-39,19,19,-39,-34,-63,14,29,53,39
-9,-48,-39,29,14,-43,-29,-58,19,29,53,43
-19,-43,-24,31,2,-34,-24,-53,24,43,58,53
-4,-34,-29,19,12,-31,-29,-53,19,43,58,53
14,-24,-39,4,26,-31,-29,-48,24,43,58,53
34,-14,-48,-9,41,-31,-29,-39,29,43,58,53
39,-19,-58,-9,48,-39,-24,-34,43,43,68,58
39,-14,-53,-12,46,-34,-24,-34,24,43,63,53
39,-9,-48,-14,43,-29,-24,-34,4,48,58,48
14,-9,-24,-2,19,-17,-4,-29,19,53,73,63
-9,-19,-9,14,0,-14,9,-29,29,53,63,63
9,-29,-39,9,24,-34,0,-34,29,43,58,58
-4,-34,-29,19,12,-31,0,-34,29,43,58,53
-4,-39,-34,21,14,-36,0,-24,29,43,58,53
14,-24,-39,4,26,-31,9,-14,29,53,68,53
29,-4,-34,-12,31,-19,24,-14,29,53,68,53
9,-9,-19,0,14,-14,29,0,29,58,68,58
19,-9,-29,-4,24,-19,39,0,39,48,68,58
19,-9,-29,-4,24,-19,39,0,39,48,68,58
19,-9,-29,-4,24,-19,39,0,39,48,68,58
19,-9,-29,-4,24,-19,39,0,39,48,68,58
14,-19,-34,2,24,-26,43,14,39,48,63,48
9,-29,-39,9,24,-34,43,14,34,48,58,48
19,-29,-48,4,34,-39,43,14,29,43,58,34
4,-29,-34,12,19,-31,53,19,24,39,48,24
4,-14,-19,4,12,-17,68,29,24,29,53,24
4,-14,-19,4,12,-17,78,29,29,34,53,39
9,-14,-24,2,17,-19,82,29,39,34,53,43
29,-4,-34,-12,31,-19,87,39,43,34,53,43
34,-14,-48,-9,41,-31,73,39,29,19,48,29
-4,-19,-14,12,4,-17,73,34,29,19,43,24
-9,-39,-29,24,9,-34,73,29,24,19,43,19
-19,-43,-24,31,2,-34,68,24,29,19,39,14
-29,-34,-4,31,-12,-19,73,24,29,9,29,0
-14,-29,-14,21,0,-21,73,24,29,9,24,0
-4,-4,0,4,-2,-2,73,24,29,9,24,9
-19,-14,4,17,-12,-4,68,19,29,14,19,24
-19,-34,-14,26,-2,-24,78,14,19,4,9,14
-19,-34,-14,26,-2,-24,68,14,19,-4,9,9
4,-34,-39,14,21,-36,68,19,19,4,9,-4
4,-39,-43,17,24,-41,73,14,9,4,9,-9
4,-48,-53,21,29,-51,58,4,-9,0,-4,-9
-4,-43,-39,24,17,-41,53,4,-9,-9,-4,-19
-4,-43,-39,24,17,-41,48,-4,-9,-14,0,-19
-4,-48,-43,26,19,-46,43,-4,-14,-19,0,-19
0,-43,-43,21,21,-43,39,-9,-9,-9,-9,-24
0,-39,-39,19,19,-39,34,-9,-14,-24,-19,-24
0,-39,-39,19,19,-39,29,-14,-14,-39,-34,-34
-4,-34,-29,19,12,-31,24,-14,-14,-39,-43,-39
-14,-43,-29,29,7,-36,24,-14,-4,-24,-24,-29
-9,-48,-39,29,14,-43,19,-24,-9,-24,-14,-29
-9,-48,-39,29,14,-43,19,-24,-9,-19,-9,-24
-9,-53,-43,31,17,-48,19,-24,-9,-19,-4,-24
-4,-48,-43,26,19,-46,14,-34,-14,-34,-9,-24
-4,-48,-43,26,19,-46,0,-39,-24,-34,-14,-29
4,-43,-48,19,26,-46,-9,-48,-29,-34,-29,-43
4,-43,-48,19,26,-46,-14,-53,-29,-34,-24,-48
-4,-48,-43,26,19,-46,-4,-53,-39,-43,-34,-48
-9,-48,-39,29,14,-43,0,-53,-48,-43,-39,-48
-9,-48,-39,29,14,-43,-14,-53,-48,-48,-43,-53
-9,-53,-43,31,17,-48,-19,-53,-43,-48,-43,-53
-19,-53,-34,36,7,-43,-19,-58,-53,-43,-43,-53
-19,-48,-29,34,4,-39,-19,-63,-53,-43,-43,-58
-24,-48,-24,36,0,-36,-19,-63,-53,-43,-43,-58
-34,-53,-19,43,-7,-36,-19,-68,-53,-43,-43,-53
-34,-63,-29,48,-2,-46,-24,-82,-53,-48,-48,-58
-29,-63,-34,46,2,-48,-24,-78,-58,-53,-48,-63
-19,-63,-43,41,12,-53,-29,-82,-68,-58,-58,-78
-9,-63,-53,36,21,-58,-39,-92,-73,-68,-63,-82
-9,-53,-43,31,17,-48,-34,-92,-68,-58,-53,-78
-4,-53,-48,29,21,-51,-29,-92,-63,-58,-53,-73
-4,-43,-39,24,17,-41,-24,-92,-58,-58,-53,-68
-9,-53,-43,31,17,-48,-19,-92,-53,-63,-53,-73
-19,-48,-29,34,4,-39,-19,-82,-58,-53,-48,-63
-29,-43,-14,36,-7,-29,-14,-82,-58,-53,-43,-63
-34,-39,-4,36,-14,-21,-9,-78,-53,-48,-39,-58
-34,-34,0,34,-17,-17,-9,-78,-53,-48,-34,-58
-19,-43,-24,31,2,-34,-9,-87,-63,-58,-39,-63
-19,-43,-24,31,2,-34,-14,-87,-63,-63,-43,-68
-19,-48,-29,34,4,-39,-19,-87,-63,-63,-53,-78
-19,-48,-29,34,4,-39,-24,-82,-63,-63,-58,-82
-19,-39,-19,29,0,-29,-19,-73,-53,-48,-48,-73
-19,-34,-14,26,-2,-24,-14,-73,-53,-48,-43,-73
-19,-34,-14,26,-2,-24,-4,-73,-53,-48,-43,-73
-19,-29,-9,24,-4,-19,0,-73,-53,-53,-39,-73
-24,-29,-4,26,-9,-17,9,-63,-53,-53,-34,-68
-24,-29,-4,26,-9,-17,14,-58,-48,-48,-34,-68
-29,-29,0,29,-14,-14,14,-53,-43,-39,-29,-63
-29,-34,-4,31,-12,-19,19,-53,-34,-34,-29,-63
-43,-24,19,34,-31,-2,19,-53,-24,-34,-19,-53
-43,-19,24,31,-34,2,29,-48,-24,-34,-19,-53
-39,-14,24,26,-31,4,29,-39,-24,-34,-19,-53
-39,-14,24,26,-31,4,29,-34,-24,-34,-19,-53
-39,-24,14,31,-26,-4,34,-34,-19,-24,-24,-53
-34,-24,9,29,-21,-7,29,-34,-19,-24,-24,-53
-24,-14,9,19,-17,-2,29,-39,-19,-24,-24,-58
-9,-9,0,9,-4,-4,34,-39,-19,-34,-24,-58
-14,-14,0,14,-7,-7,53,-24,-9,-24,-9,-53
-14,-14,0,14,-7,-7,53,-24,-9,-24,-9,-53
-24,-19,4,21,-14,-7,39,-29,-24,-29,-19,-53
-24,-19,4,21,-14,-7,39,-29,-24,-29,-19,-53
4,-14,-19,4,12,-17,19,-39,-24,-43,-19,-43
4,-9,-14,2,9,-12,34,-39,-14,-24,0,-29
34,14,-19,-24,26,-2,34,-34,-14,0,24,-14
24,19,-4,-21,14,7,39,-34,0,34,63,-4
-34,43,78,-4,-56,61,58,0,58,112,146,29
-63,78,141,-7,-102,109,73,43,156,253,278,87
-19,102,122,-41,-70,112,43,39,234,409,439,204
68,136,68,-102,0,102,-24,9,292,522,566,380
175,214,39,-195,68,126,-107,-53,273,478,536,522
224,292,68,-258,78,180,-156,-161,146,234,336,566
204,336,131,-270,36,234,-200,-263,-4,-78,136,624
214,370,156,-292,29,263,-263,-385,-214,-478,-43,746
292,385,92,-339,100,239,-356,-541,-531,-1015,-273,897
370,395,24,-383,173,209,-439,-683,-863,-1551,-497,1088
419,375,-43,-397,231,165,-492,-780,-1146,-1986,-663,1288
458,351,-107,-405,283,122,-546,-854,-1429,-2361,-819,1478
517,375,-141,-446,329,117,-629,-980,-1756,-2742,-1010,1668
570,463,-107,-517,339,178,-673,-1098,-2039,-3079,-1200,1820
580,546,-34,-563,307,256,-692,-1176,-2244,-3294,-1415,1883
561,610,48,-585,256,329,-717,-1249,-2405,-3464,-1688,1834
551,688,136,-619,207,412,-766,-1327,-2562,-3562,-1888,1747
488,741,253,-614,117,497,-775,-1410,-2644,-3581,-1966,1595
331,653,322,-492,4,488,-746,-1459,-2630,-3494,-2010,1263
204,463,258,-334,-26,361,-668,-1429,-2591,-3308,-1971,902
131,214,82,-173,24,148,-536,-1288,-2469,-3035,-1805,624
-14,-78,-63,46,24,-70,-390,-1146,-2288,-2732,-1703,209
-185,-322,-136,253,-24,-229,-268,-1044,-2127,-2498,-1761,-390
-268,-488,-219,378,-24,-353,-146,-888,-1952,-2254,-1786,-922
-326,-600,-273,463,-26,-436,39,-697,-1737,-2005,-1732,-1249
-385,-644,-258,514,-63,-451,170,-590,-1546,-1786,-1649,-1405
-375,-614,-239,495,-68,-427,165,-595,-1405,-1586,-1498,-1371
-346,-536,-190,441,-78,-363,102,-619,-1244,-1342,-1263,-1161
-322,-409,-87,366,-117,-248,107,-527,-1049,-1102,-1019,-961
-326,-326,0,326,-163,-163,146,-424,-888,-917,-858,-858
-322,-317,4,319,-163,-156,122,-366,-756,-756,-717,-761
-268,-278,-9,273,-129,-143,68,-273,-580,-551,-536,-614
-151,-214,-63,183,-43,-139,24,-156,-390,-366,-370,-483
-58,-190,-131,124,36,-161,0,-78,-248,-234,-248,-395
-63,-185,-122,124,29,-153,29,0,-131,-122,-151,-302
-107,-156,-48,131,-29,-102,58,53,-34,-39,-78,-229
-92,-151,-58,122,-17,-104,43,48,-14,-9,-48,-214
-82,-117,-34,100,-24,-75,53,58,14,24,-24,-195
-92,-73,19,82,-56,-26,82,87,58,73,24,-161
-102,-73,29,87,-65,-21,73,78,63,97,48,-156
-102,-82,19,92,-61,-31,58,58,68,112,58,-151
-82,-82,0,82,-41,-41,68,63,82,122,78,-126
-48,-92,-43,70,-2,-68,58,53,82,117,68,-122
-9,-92,-82,51,36,-87,39,43,78,107,58,-131
-39,-73,-34,56,-2,-53,48,48,82,112,63,-131
-87,-68,19,78,-53,-24,63,53,102,122,73,-126
-73,-63,9,68,-41,-26,73,53,97,136,82,-126
-63,-63,0,63,-31,-31,63,48,97,141,87,-122
-43,-63,-19,53,-12,-41,58,48,112,156,107,-122
-24,-53,-29,39,2,-41,58,48,117,165,112,-112
-48,-53,-4,51,-21,-29,73,53,131,185,126,-87
-53,-63,-9,58,-21,-36,73,58,146,185,126,-78
-53,-63,-9,58,-21,-36,63,63,141,180,122,-87
-58,-63,-4,61,-26,-34,63,68,141,180,107,-97
-63,-43,19,53,-41,-12,73,73,141,190,122,-92
-68,-43,24,56,-46,-9,78,73,146,195,126,-97
-68,-53,14,61,-41,-19,78,68,146,195,131,-102
-53,-53,0,53,-26,-26,73,68,151,204,146,-87
-43,-43,0,43,-21,-21,63,68,161,195,151,-73
-39,-43,-4,41,-17,-24,73,68,161,204,146,-73
-29,-43,-14,36,-7,-29,73,68,161,204,136,-78
-14,-43,-29,29,7,-36,78,68,161,200,131,-78
-29,-43,-14,36,-7,-29,87,68,165,209,141,-87
-43,-48,-4,46,-19,-26,82,73,165,209,141,-87
-48,-48,0,48,-24,-24,82,78,170,219,146,-82
-43,-34,9,39,-26,-12,82,78,175,224,156,-82
-24,-39,-14,31,-4,-26,73,78,185,224,151,-82
-24,-48,-24,36,0,-36,73,78,185,234,151,-82
-24,-58,-34,41,4,-46,73,78,190,234,151,-78
-29,-39,-9,34,-9,-24,73,78,190,244,151,-78
-19,-34,-14,26,-2,-24,87,82,200,253,151,-87
-14,-39,-24,26,4,-31,87,87,209,253,156,-82
-14,-24,-9,19,-2,-17,87,102,214,263,170,-73
-14,-14,0,14,-7,-7,87,107,219,273,180,-63
-19,-19,0,19,-9,-9,87,107,234,278,185,-73
-29,-24,4,26,-17,-9,87,112,244,287,185,-68
-14,-29,-14,21,0,-21,87,117,244,292,185,-68
-9,-29,-19,19,4,-24,97,122,244,292,185,-68
-9,-19,-9,14,0,-14,87,122,248,302,195,-63
-19,-24,-4,21,-7,-14,87,136,263,307,204,-63
-24,-24,0,24,-12,-12,87,136,273,312,204,-63
-24,-24,0,24,-12,-12,87,141,278,326,214,-63
-19,-19,0,19,-9,-9,78,136,287,336,204,-73
-14,-24,-9,19,-2,-17,63,131,292,341,209,-68
0,-29,-29,14,14,-29,48,126,292,341,219,-63
4,-34,-39,14,21,-36,34,131,292,351,224,-63
0,-24,-24,12,12,-24,19,126,302,346,224,-63
0,-24,-24,12,12,-24,9,126,307,356,224,-63
0,-24,-24,12,12,-24,9,131,322,370,234,-68
0,-24,-24,12,12,-24,14,136,331,380,244,-68
-4,-19,-14,12,4,-17,9,126,326,390,248,-58
-4,-19,-14,12,4,-17,9,131,336,405,248,-58
-14,-29,-14,21,0,-21,4,136,356,409,244,-58
-4,-29,-24,17,9,-26,4,136,366,419,239,-58
0,-24,-24,12,12,-24,9,146,366,429,234,-63
-4,-29,-24,17,9,-26,9,156,375,439,248,-63
-19,-34,-14,26,-2,-24,14,151,390,444,253,-68
-39,-48,-9,43,-14,-29,19,161,405,453,258,-73
-24,-39,-14,31,-4,-26,9,165,409,468,263,-63
-9,-39,-29,24,9,-34,4,161,419,478,273,-58
-4,-34,-29,19,12,-31,-4,165,429,488,278,-53
-4,-34,-29,19,12,-31,-9,165,439,507,278,-48
-9,-34,-24,21,7,-29,0,170,453,512,283,-58
-9,-34,-24,21,7,-29,9,175,468,527,283,-53
-4,-34,-29,19,12,-31,14,185,483,536,287,-53
-9,-34,-24,21,7,-29,19,200,502,551,292,-53
-19,-24,-4,21,-7,-14,34,214,527,566,317,-34
-4,-19,-14,12,4,-17,43,224,546,580,331,-29
-4,-19,-14,12,4,-17,53,244,570,605,341,-14
-4,-9,-4,7,0,-7,58,253,590,624,351,-14
-14,-19,-4,17,-4,-12,53,253,610,634,341,-14
-19,-24,-4,21,-7,-14,53,263,614,649,341,-14
-19,-24,-4,21,-7,-14,58,273,629,663,346,-9
-29,-19,9,24,-19,-4,68,287,649,678,346,-9
-34,-14,19,24,-26,2,78,302,683,688,366,9
-34,-9,24,21,-29,7,87,307,702,702,380,14
-39,-4,34,21,-36,14,92,317,712,717,390,14
-34,0,34,17,-34,17,97,326,722,727,395,19
-34,4,39,14,-36,21,97,336,736,751,390,19
-29,14,43,7,-36,29,102,336,751,756,390,19
-24,19,43,2,-34,31,117,351,761,761,390,19
-24,19,43,2,-34,31,107,351,761,761,395,19
-34,14,48,9,-41,31,112,361,771,775,395,9
-29,9,39,9,-34,24,117,366,780,785,395,19
-9,9,19,0,-14,14,126,370,800,785,395,24
-4,9,14,-2,-9,12,131,375,805,780,395,24
0,14,14,-7,-7,14,131,385,805,785,409,39
0,24,24,-12,-12,24,141,385,810,800,409,43
4,29,24,-17,-9,26,141,390,814,795,414,53
4,34,29,-19,-12,31,146,390,819,800,414,58
-4,39,43,-17,-24,41,151,405,829,800,419,58
-4,48,53,-21,-29,51,146,405,829,800,409,73
0,58,58,-29,-29,58,141,395,814,790,419,82
0,58,58,-29,-29,58,141,395,805,780,419,92
4,68,63,-36,-29,65,146,390,800,761,414,92
9,68,58,-39,-24,63,136,380,785,741,405,102
4,78,73,-41,-34,75,136,375,766,727,400,102
9,78,68,-43,-29,73,136,370,741,712,395,102
0,73,73,-36,-36,73,136,370,727,692,390,107
-4,73,78,-34,-41,75,126,356,707,673,380,112
-4,68,73,-31,-39,70,126,331,673,644,366,107
-4,58,63,-26,-34,61,126,317,658,610,361,112
0,58,58,-29,-29,58,117,312,624,570,351,117
14,58,43,-36,-14,51,112,297,595,536,322,117
19,58,39,-39,-9,48,102,278,556,502,302,112
9,58,48,-34,-19,53,102,273,527,483,287,102
14,73,58,-43,-21,65,102,263,507,463,297,102
19,68,48,-43,-14,58,102,239,468,429,278,97
24,73,48,-48,-12,61,97,234,419,395,258,97
29,78,48,-53,-9,63,97,219,390,366,248,97
39,58,19,-48,9,39,82,209,361,326,229,78
19,48,29,-34,-4,39,78,185,336,307,200,73
19,58,39,-39,-9,48,73,170,317,287,190,68
24,58,34,-41,-4,46,68,170,292,273,180,63
34,58,24,-46,4,41,53,146,273,239,161,53
34,53,19,-43,7,36,39,126,258,214,151,53
34,39,4,-36,14,21,24,112,239,200,136,43
34,39,4,-36,14,21,9,102,224,175,131,43
29,29,0,-29,14,14,-4,87,195,151,112,24
29,24,-4,-26,17,9,-9,73,180,126,102,9
34,24,-9,-29,21,7,-14,48,165,122,92,9
53,19,-34,-36,43,-7,-19,39,141,117,92,0
34,29,-4,-31,19,12,-34,29,146,97,73,0
19,29,9,-24,4,19,-29,34,156,92,73,-9
19,24,4,-21,7,14,-34,34,156,82,68,-14
19,24,4,-21,7,14,-43,29,156,58,53,-24
0,24,24,-12,-12,24,-43,19,136,58,58,-24
0,24,24,-12,-12,24,-34,19,131,58,58,-19
9,24,14,-17,-2,19,-29,14,126,58,53,-19
9,24,14,-17,-2,19,-29,4,122,53,48,-14
29,24,-4,-26,17,9,-39,-9,112,39,29,-24
34,24,-9,-29,21,7,-43,4,112,29,24,-34
29,24,-4,-26,17,9,-39,0,112,19,24,-39
29,24,-4,-26,17,9,-43,0,112,9,19,-43
9,14,4,-12,2,9,-39,0,112,9,29,-39
0,9,9,-4,-4,9,-34,-4,102,0,19,-43
0,4,4,-2,-2,4,-29,-4,92,-4,0,-48
-9,4,14,2,-12,9,-24,-4,102,-4,0,-48
-19,9,29,4,-24,19,-34,-14,82,-19,-4,-63
-34,-14,19,24,-26,2,-24,-19,73,-19,-9,-68
-34,-24,9,29,-21,-7,-24,-24,58,-24,-9,-73
-24,-29,-4,26,-9,-17,-24,-14,39,-29,-14,-82
-4,-24,-19,14,7,-21,-14,-9,43,-19,-14,-78
-4,-19,-14,12,4,-17,-24,-9,43,-19,-14,-82
-19,-14,4,17,-12,-4,-9,-9,43,-19,-14,-82
-19,-14,4,17,-12,-4,-4,-4,48,-14,-14,-82
-19,-24,-4,21,-7,-14,-4,-14,39,-19,-14,-82
-24,-29,-4,26,-9,-17,0,-14,34,-19,-9,-78
-29,-34,-4,31,-12,-19,9,-4,34,-14,-9,-78
-34,-39,-4,36,-14,-21,19,4,34,-9,-9,-78
-24,-34,-9,29,-7,-21,14,4,39,-4,-19,-82
-19,-24,-4,21,-7,-14,14,0,34,-4,-19,-87
-14,-24,-9,19,-2,-17,14,-4,34,-9,-19,-87
0,-14,-14,7,7,-14,14,-9,29,-4,-14,-87
-9,-14,-4,12,-2,-9,29,-4,14,-9,-9,-92
-19,-19,0,19,-9,-9,34,-4,14,-4,-4,-87
-29,-24,4,26,-17,-9,39,-4,9,-4,-4,-82
-39,-29,9,34,-24,-9,39,-4,9,-4,-4,-82
-43,-43,0,43,-21,-21,43,0,24,-4,4,-78
-43,-43,0,43,-21,-21,48,4,24,-4,9,-73
-34,-43,-9,39,-12,-26,43,4,24,-9,9,-73
-24,-43,-19,34,-2,-31,48,0,29,-9,9,-73
-24,-39,-14,31,-4,-26,58,9,24,0,9,-68
-24,-34,-9,29,-7,-21,63,14,24,9,24,-53
-24,-29,-4,26,-9,-17,68,19,19,14,24,-43
-29,-19,9,24,-19,-4,78,24,24,14,19,-39
-39,-14,24,26,-31,4,87,24,14,14,19,-43
-48,-19,29,34,-39,4,82,24,14,14,19,-39
-29,-19,9,24,-19,-4,73,24,9,14,24,-34
0,4,4,-2,-2,4,73,29,4,19,34,-24
-14,-4,9,9,-12,2,82,39,14,34,43,-19
-29,-9,19,19,-24,4,82,29,4,34,43,-14
-39,-24,14,31,-26,-4,82,29,4,29,43,-4
-48,-29,19,39,-34,-4,87,29,9,29,43,4
-39,-39,0,39,-19,-19,87,39,9,19,43,-4
-24,-24,0,24,-12,-12,87,43,9,24,48,-4
-9,-19,-9,14,0,-14,78,39,9,29,58,0
-9,-14,-4,12,-2,-9,82,43,19,39,58,9
-9,-9,0,9,-4,-4,87,48,19,39,58,9
-9,-4,4,7,-7,0,92,53,19,39,58,9
-9,0,9,4,-9,4,97,58,19,39,58,9
-9,0,9,4,-9,4,97,58,9,39,58,14
-9,-9,0,9,-4,-4,92,53,4,39,58,19
4,-9,-14,2,9,-12,87,48,0,34,63,9
-4,-9,-4,7,0,-7,92,48,-4,29,58,4
-24,-14,9,19,-17,-2,82,58,-9,29,63,4
-24,-14,9,19,-17,-2,87,58,-9,34,63,19
-19,-14,4,17,-12,-4,87,58,-4,34,63,24
0,-4,-4,2,2,-4,87,68,-4,34,63,24
24,9,-14,-17,19,-2,73,58,-9,39,63,24
-4,9,14,-2,-9,12,63,53,-9,39,63,24
0,-4,-4,2,2,-4,53,48,-14,39,68,24
0,-4,-4,2,2,-4,39,43,-9,39,68,24
-19,-9,9,14,-14,0,29,34,-19,39,73,19
-14,-9,4,12,-9,-2,24,34,-19,39,73,19
-14,9,24,2,-19,17,19,34,-19,39,78,29
-39,-4,34,21,-36,14,9,29,-19,43,78,43
-34,-14,19,24,-26,2,-9,0,-39,29,63,39
-19,-14,4,17,-12,-4,-29,-4,-48,14,58,29
19,-14,-34,-2,26,-24,-39,-4,-58,19,53,9
34,-19,-53,-7,43,-36,-43,-14,-78,14,48,0
4,-29,-34,12,19,-31,-43,-14,-73,4,34,0
-14,-24,-9,19,-2,-17,-43,-14,-68,0,34,-9
-24,-24,0,24,-12,-12,-43,-24,-63,0,39,-9
-34,-29,4,31,-19,-12,-43,-24,-63,0,39,-9
-24,-39,-14,31,-4,-26,-53,-24,-82,0,29,-9
-19,-39,-19,29,0,-29,-53,-29,-92,-14,19,-14
-14,-43,-29,29,7,-36,-53,-39,-97,-29,4,-29
-14,-43,-29,29,7,-36,-53,-43,-102,-29,-4,-39
-24,-53,-29,39,2,-41,-48,-34,-102,-24,0,-39
-29,-58,-29,43,0,-43,-48,-43,-107,-24,4,-39
-39,-58,-19,48,-9,-39,-43,-43,-107,-19,4,-34
-48,-63,-14,56,-17,-39,-39,-43,-107,-19,4,-34
-34,-53,-19,43,-7,-36,-34,-39,-117,-34,-4,-39
-24,-48,-24,36,0,-36,-39,-39,-122,-34,-4,-39
-4,-39,-34,21,14,-36,-39,-43,-122,-34,-14,-48
4,-34,-39,14,21,-36,-34,-43,-117,-34,-4,-48
-19,-48,-29,34,4,-39,-9,-53,-126,-43,-14,-43
-29,-48,-19,39,-4,-34,0,-53,-136,-43,-19,-48
-34,-48,-14,41,-9,-31,-9,-53,-136,-48,-24,-58
-39,-53,-14,46,-12,-34,-9,-53,-131,-48,-24,-63
-43,-63,-19,53,-12,-41,-9,-53,-141,-43,-14,-63
-39,-58,-19,48,-9,-39,-9,-53,-141,-43,-14,-68
-39,-58,-19,48,-9,-39,-9,-48,-141,-43,-14,-68
-43,-63,-19,53,-12,-41,-9,-48,-141,-43,-14,-63
-43,-58,-14,51,-14,-36,0,-58,-146,-53,-14,-73
-39,-53,-14,46,-12,-34,4,-48,-146,-53,-19,-73
-29,-48,-19,39,-4,-34,4,-48,-151,-53,-34,-82
-19,-43,-24,31,2,-34,0,-53,-151,-58,-43,-82
-39,-53,-14,46,-12,-34,14,-48,-151,-48,-34,-82
-43,-53,-9,48,-17,-31,19,-43,-151,-48,-34,-82
-53,-43,9,48,-31,-17,24,-39,-151,-48,-34,-82
-68,-53,14,61,-41,-19,29,-34,-151,-53,-34,-92
-58,-58,0,58,-29,-29,39,-43,-146,-63,-34,-82
-68,-63,4,65,-36,-29,43,-43,-146,-63,-34,-82
-73,-68,4,70,-39,-31,48,-39,-141,-58,-34,-78
-73,-73,0,73,-36,-36,48,-39,-141,-58,-34,-78
-58,-58,0,58,-29,-29,58,-34,-141,-43,-24,-78
-58,-53,4,56,-31,-24,63,-29,-141,-43,-24,-78
-58,-53,4,56,-31,-24,68,-24,-141,-39,-29,-82
-58,-48,9,53,-34,-19,73,-14,-141,-34,-29,-82
-48,-34,14,41,-31,-9,63,-24,-141,-39,-14,-82
-48,-34,14,41,-31,-9,63,-24,-141,-39,-14,-82
-48,-39,9,43,-29,-14,68,-24,-141,-39,-19,-82
-48,-39,9,43,-29,-14,68,-24,-141,-43,-19,-82
-43,-29,14,36,-29,-7,78,-24,-156,-39,-24,-87
-43,-29,14,36,-29,-7,82,-19,-156,-39,-24,-87
-48,-29,19,39,-34,-4,82,-14,-156,-34,-19,-82
-48,-34,14,41,-31,-9,87,-14,-151,-34,-19,-82
-43,-39,4,41,-24,-17,82,-9,-151,-43,-29,-82
-43,-39,4,41,-24,-17,87,-9,-151,-43,-29,-82
-39,-39,0,39,-19,-19,82,-4,-151,-43,-29,-82
-39,-43,-4,41,-17,-24,78,-4,-151,-43,-29,-82
-43,-43,0,43,-21,-21,87,4,-136,-39,-29,-78
-43,-43,0,43,-21,-21,78,4,-136,-34,-24,-73
-39,-34,4,36,-21,-14,73,0,-136,-29,-19,-73
-29,-29,0,29,-14,-14,73,0,-136,-34,-14,-68
-29,-14,14,21,-21,0,92,9,-112,-9,4,-58
-34,-14,19,24,-26,2,92,14,-107,-4,9,-53
-48,-19,29,34,-39,4,78,14,-117,-4,4,-48
-53,-19,34,36,-43,7,78,19,-112,0,9,-43
14,-14,-29,0,21,-21,58,0,-112,-24,9,-63
-14,9,24,2,-19,17,63,9,-92,4,29,-39
-34,53,87,-9,-61,70,82,34,-63,58,82,-4
-24,78,102,-26,-63,90,78,34,-39,102,131,14
-53,73,126,-9,-90,100,58,39,9,161,195,39
-63,87,151,-12,-107,119,34,53,78,273,317,97
0,131,131,-65,-65,131,-14,48,165,419,497,253
68,175,107,-122,-19,141,-73,9,224,531,624,458
146,214,68,-180,39,141,-146,-73,175,458,575,580
175,263,87,-219,43,175,-214,-180,58,263,395,624
165,326,161,-246,2,244,-268,-273,-63,29,234,683
204,351,146,-278,29,248,-361,-405,-283,-351,43,775
273,336,63,-305,104,200,-453,-570,-600,-878,-214,897
341,366,24,-353,158,195,-517,-692,-893,-1337,-409,1078
400,414,14,-407,192,214,-531,-751,-1107,-1703,-556,1278
439,400,-39,-419,239,180,-566,-824,-1361,-2069,-712,1439
507,395,-112,-451,309,141,-639,-971,-1678,-2459,-922,1581
570,434,-136,-502,353,148,-702,-1098,-1942,-2776,-1151,1673
570,507,-63,-539,317,222,-732,-1176,-2127,-3010,-1405,1659
541,580,39,-561,251,309,-756,-1249,-2298,-3172,-1678,1590
502,668,165,-585,168,417,-785,-1327,-2444,-3259,-1839,1512
439,702,263,-570,87,483,-785,-1381,-2498,-3259,-1898,1332
302,585,283,-444,9,434,-717,-1410,-2474,-3172,-1912,1000
165,317,151,-241,7,234,-610,-1361,-2435,-3015,-1825,717
24,-29,-53,2,39,-41,-468,-1249,-2361,-2791,-1688,439
-151,-312,-161,231,4,-236,-322,-1107,-2191,-2537,-1644,-34
-292,-468,-175,380,-58,-322,-209,-1005,-2049,-2322,-1742,-644
-356,-556,-200,456,-78,-378,-87,-868,-1922,-2127,-1805,-1146
-395,-629,-234,512,-80,-431,58,-707,-1727,-1917,-1751,-1424
-463,-624,-161,544,-151,-392,200,-580,-1527,-1688,-1610,-1473
-434,-556,-122,495,-156,-339,204,-585,-1376,-1449,-1410,-1342
-366,-458,-92,412,-136,-275,161,-600,-1215,-1224,-1156,-1132
-322,-341,-19,331,-151,-180,165,-517,-1039,-1005,-932,-961
-336,-317,19,326,-178,-148,165,-424,-907,-849,-790,-868
-351,-366,-14,358,-168,-190,122,-385,-795,-727,-678,-780
-287,-317,-29,302,-129,-173,58,-283,-639,-551,-527,-644
-190,-204,-14,197,-87,-109,34,-156,-439,-336,-341,-492
-156,-170,-14,163,-70,-92,19,-58,-287,-175,-200,-366
-151,-185,-34,168,-58,-109,19,-29,-209,-102,-141,-302
-136,-156,-19,146,-58,-87,48,-4,-141,-48,-87,-268
-92,-92,0,92,-46,-46,82,39,-63,19,-9,-214
-53,-48,4,51,-29,-21,92,68,-24,63,34,-185
-53,-53,0,53,-26,-26,82,68,-19,73,43,-180
-73,-73,0,73,-36,-36,63,58,-14,87,58,-175
-63,-53,9,58,-36,-21,58,68,-9,122,78,-151
-73,-53,19,63,-46,-17,58,82,14,141,97,-136
-78,-53,24,65,-51,-14,58,73,24,136,87,-141
-87,-53,34,70,-61,-9,58,43,19,117,78,-151
-107,-43,63,75,-85,9,87,58,43,131,102,-131
-117,-39,78,78,-97,19,102,82,63,141,122,-117
-107,-48,58,78,-82,4,102,92,58,146,112,-117
-102,-53,48,78,-75,-2,92,87,58,151,117,-112
-87,-58,29,73,-58,-14,87,87,73,165,136,-112
-73,-53,19,63,-46,-17,87,87,78,175,141,-102
-73,-39,34,56,-53,-2,102,78,78,185,151,-92
-73,-43,29,58,-51,-7,102,78,87,185,146,-87
-68,-39,29,53,-48,-4,92,78,78,180,136,-102
-68,-34,34,51,-51,0,92,78,73,180,117,-117
-82,-19,63,51,-73,21,92,87,78,190,126,-102
-87,-14,73,51,-80,29,97,92,87,195,136,-107
-87,-19,68,53,-78,24,97,92,92,195,146,-112
-73,-14,58,43,-65,21,92,97,102,204,165,-97
-63,-24,39,43,-51,7,92,97,112,195,170,-82
-68,-24,43,46,-56,9,102,97,112,204,165,-82
-68,-24,43,46,-56,9,102,97,112,204,156,-87
-63,-24,39,43,-51,7,107,97,112,200,151,-87
-68,-24,43,46,-56,9,122,112,122,214,165,-82
-82,-29,53,56,-68,12,122,122,126,219,170,-78
-87,-29,58,58,-73,14,126,131,136,234,180,-68
-82,-14,68,48,-75,26,131,136,146,244,195,-63
-53,-14,39,34,-46,12,126,126,136,234,195,-73
-43,-19,24,31,-34,2,122,126,136,244,190,-73
-34,-24,9,29,-21,-7,117,126,141,244,185,-68
-29,0,29,14,-29,14,112,126,141,253,180,-68
-39,0,39,19,-39,19,102,136,146,253,180,-82
-34,-9,24,21,-29,7,97,136,161,253,185,-82
-34,0,34,17,-34,17,92,146,170,263,200,-78
-34,4,39,14,-36,21,87,146,180,273,209,-73
-48,0,48,24,-48,24,68,126,180,268,219,-73
-58,-4,53,31,-56,24,58,122,185,278,214,-68
-43,-9,34,26,-39,12,48,117,180,283,209,-68
-39,-9,29,24,-34,9,48,112,175,283,204,-68
-34,0,34,17,-34,17,34,97,180,283,204,-73
-39,-4,34,21,-36,14,29,107,195,287,214,-73
-39,-4,34,21,-36,14,24,102,204,292,214,-73
-34,-4,29,19,-31,12,19,102,209,307,224,-73
-43,-14,29,29,-36,7,9,102,209,312,219,-82
-53,-24,29,39,-41,2,4,92,214,312,219,-78
-53,-34,19,43,-36,-7,0,82,214,307,224,-73
-63,-43,19,53,-41,-12,-4,82,214,312,224,-73
-58,-43,14,51,-36,-14,4,87,224,307,224,-73
-58,-43,14,51,-36,-14,0,87,229,317,224,-73
-58,-43,14,51,-36,-14,4,92,244,331,234,-78
-58,-43,14,51,-36,-14,14,97,253,341,244,-78
-58,-39,19,48,-39,-9,14,87,253,361,244,-68
-63,-39,24,51,-43,-7,9,92,258,375,248,-68
-78,-48,29,63,-53,-9,0,97,273,380,248,-68
-73,-48,24,61,-48,-12,-4,97,278,390,248,-68
-48,-34,14,41,-31,-9,9,107,287,390,244,-68
-43,-29,14,36,-29,-7,9,117,297,400,258,-63
-48,-24,24,36,-36,0,14,112,312,405,263,-63
-58,-29,29,43,-43,0,19,122,326,414,268,-63
-48,-29,19,39,-34,-4,14,126,336,424,278,-53
-39,-29,9,34,-24,-9,14,122,351,439,292,-48
-39,-24,14,31,-26,-4,9,126,366,453,302,-43
-43,-24,19,34,-31,-2,9,126,380,478,307,-39
-53,-34,19,43,-36,-7,14,131,385,483,307,-43
-48,-34,14,41,-31,-9,19,136,400,497,302,-43
-39,-34,4,36,-21,-14,19,146,414,507,302,-48
-39,-34,4,36,-21,-14,19,161,434,522,302,-53
-39,-29,9,34,-24,-9,24,175,448,546,326,-29
-24,-19,4,21,-14,-7,34,185,468,561,341,-19
-24,-14,9,19,-17,-2,43,204,492,585,351,0
-24,0,24,12,-24,12,48,214,512,605,361,4
-39,-9,29,24,-34,9,48,224,531,614,361,-4
-48,-14,34,31,-41,9,53,234,536,629,361,-4
-53,-14,39,34,-46,12,63,244,551,644,366,0
-68,-9,58,39,-63,24,78,258,570,658,366,0
-58,-19,39,39,-48,9,78,268,580,653,370,0
-53,-19,34,36,-43,7,78,268,595,663,380,4
-53,-19,34,36,-43,7,73,273,600,673,385,4
-43,-19,24,31,-34,2,68,278,605,678,385,9
-53,-4,48,29,-51,21,78,283,614,702,380,9
-48,4,53,21,-51,29,82,287,634,707,380,9
-43,9,53,17,-48,31,97,307,649,712,380,9
-43,9,53,17,-48,31,87,312,653,712,385,9
-58,0,58,29,-58,29,92,317,658,717,385,9
-58,0,58,29,-58,29,87,317,663,727,385,19
-43,4,48,19,-46,26,87,317,678,727,385,24
-43,9,53,17,-48,31,82,317,678,722,385,24
-39,24,63,7,-51,43,92,322,688,736,390,29
-39,34,73,2,-56,53,102,326,692,751,390,34
-34,39,73,-2,-53,56,102,336,697,746,395,43
-34,43,78,-4,-56,61,107,341,702,751,395,48
-39,39,78,0,-58,58,122,356,712,756,390,48
-43,48,92,-2,-68,70,117,356,712,751,380,63
-43,58,102,-7,-73,80,112,346,697,736,390,73
-48,58,107,-4,-78,82,112,346,688,722,390,82
-43,53,97,-4,-70,75,117,341,683,707,380,73
-39,48,87,-4,-63,68,107,331,668,683,366,82
-43,53,97,-4,-70,75,107,326,649,663,356,82
-39,48,87,-4,-63,68,107,322,624,644,346,82
-29,63,92,-17,-61,78,87,322,610,619,336,92
-24,82,107,-29,-65,95,78,307,590,605,331,92
-14,97,112,-41,-63,104,78,283,556,580,322,82
-4,107,112,-51,-58,109,78,268,541,551,322,82
-14,102,117,-43,-65,109,78,268,531,517,307,92
-4,97,102,-46,-53,100,73,258,507,488,283,97
-4,92,97,-43,-51,95,63,244,473,458,268,97
-19,87,107,-34,-63,97,63,244,448,444,258,92
-29,92,122,-31,-75,107,53,219,429,405,248,82
-29,78,107,-24,-68,92,43,190,390,370,229,68
-29,73,102,-21,-65,87,29,180,341,336,209,58
-29,68,97,-19,-63,82,19,161,312,307,200,48
-29,53,82,-12,-56,68,0,141,287,278,190,39
-48,48,97,0,-73,73,0,117,268,258,161,34
-48,63,112,-7,-80,87,0,102,253,239,151,29
-43,68,112,-12,-78,90,0,102,234,224,141,24
-43,53,97,-4,-70,75,-9,78,204,195,126,9
-43,43,87,0,-65,65,-19,58,180,165,112,4
-43,24,68,9,-56,46,-29,43,151,146,92,-9
-43,19,63,12,-53,41,-39,34,126,117,82,-14
-58,9,68,24,-63,39,-39,29,112,102,73,-24
-58,4,63,26,-61,34,-39,14,102,78,63,-39
-53,4,58,24,-56,31,-39,-9,92,73,53,-39
-34,0,34,17,-34,17,-39,-19,73,68,53,-48
-63,0,63,31,-63,31,-29,-24,63,48,39,-58
-78,0,78,39,-78,39,-19,-24,58,43,34,-68
-78,-4,73,41,-75,34,-19,-29,43,34,24,-73
-78,-4,73,41,-75,34,-24,-39,29,9,4,-82
-78,-14,63,46,-70,24,-34,-43,9,-9,-4,-97
-68,-14,53,41,-61,19,-24,-48,4,-9,-9,-97
-48,-14,34,31,-41,9,-19,-58,0,-9,-19,-102
-39,-14,24,26,-31,4,-19,-73,-4,-14,-29,-102
-63,-4,58,34,-61,26,-4,-53,4,0,-14,-97
-78,-19,58,48,-68,19,0,-58,-9,-19,-39,-117
-78,-19,58,48,-68,19,-9,-58,-19,-24,-39,-117
-78,-19,58,48,-68,19,-9,-58,-19,-29,-39,-117
-78,-19,58,48,-68,19,-9,-58,-19,-34,-39,-117
-78,-19,58,48,-68,19,-9,-58,-19,-39,-39,-117
-68,-34,34,51,-51,0,-9,-48,-29,-29,-43,-107
-68,-48,19,58,-43,-14,-14,-53,-34,-29,-48,-107
-53,-53,0,53,-26,-26,-19,-58,-39,-34,-48,-122
-63,-58,4,61,-34,-26,-14,-58,-43,-39,-58,-131
-82,-43,39,63,-61,-2,-4,-43,-34,-29,-53,-141
-92,-43,48,68,-70,2,9,-39,-29,-24,-43,-126
-97,-43,53,70,-75,4,19,-34,-19,-24,-34,-122
-87,-34,53,61,-70,9,29,-19,-14,-24,-24,-122
-58,-14,43,36,-51,14,14,-19,-19,-19,-29,-126
-82,-9,73,46,-78,31,14,-24,-19,-19,-34,-131
-73,-19,53,46,-63,17,14,-29,-24,-19,-34,-136
-68,-14,53,41,-61,19,9,-34,-19,-19,-39,-141
-78,-29,48,53,-63,9,19,-29,-24,-14,-34,-131
-63,-29,34,46,-48,2,24,-24,-19,-9,-24,-126
-53,-9,43,31,-48,17,29,-19,-14,-4,-9,-112
-68,-24,43,46,-56,9,29,-19,-9,4,0,-92
-78,-29,48,53,-63,9,34,-29,-4,9,14,-82
-78,-24,53,51,-65,14,29,-24,0,4,19,-78
-53,-19,34,36,-43,7,34,-14,4,19,24,-82
-53,-19,34,36,-43,7,43,-14,0,24,29,-78
-73,-9,63,41,-68,26,43,-19,-4,34,34,-73
-82,-4,78,43,-80,36,43,-14,0,29,34,-78
-82,-4,78,43,-80,36,43,-19,4,29,39,-73
-82,-9,73,46,-78,31,43,-14,4,29,39,-68
-68,-4,63,36,-65,29,43,-9,0,34,43,-58
-58,0,58,29,-58,29,43,-9,-4,24,39,-53
-48,0,48,24,-48,24,43,-14,-4,14,29,-58
-43,4,48,19,-46,26,43,-14,-4,19,24,-58
-48,9,58,19,-53,34,48,-9,0,39,43,-43
-48,9,58,19,-53,34,48,-14,0,43,53,-39
-53,14,68,19,-61,41,53,-9,4,53,58,-29
-58,14,73,21,-65,43,58,-4,9,58,63,-24
-68,0,68,34,-68,34,58,0,9,53,73,-19
-73,0,73,36,-73,36,48,0,4,53,73,-19
-68,4,73,31,-70,39,43,-4,4,53,63,-29
-73,4,78,34,-75,41,43,-4,9,53,73,-29
-78,14,92,31,-85,53,58,9,14,58,82,-9
-78,19,97,29,-87,58,68,14,9,63,78,-9
-73,24,97,24,-85,61,58,19,14,63,73,-14
-68,24,92,21,-80,58,58,24,24,68,73,-14
-63,19,82,21,-73,51,68,14,14,63,73,-14
-58,19,78,19,-68,48,68,14,14,63,73,-19
-58,14,73,21,-65,43,68,19,14,63,73,-19
-63,4,68,29,-65,36,68,19,14,63,73,-14
-58,9,68,24,-63,39,63,14,9,53,68,-14
-58,14,73,21,-65,43,53,19,9,53,68,-14
-53,19,73,17,-63,46,39,14,4,53,58,-24
-48,24,73,12,-61,48,19,4,4,48,53,-24
-58,34,92,12,-75,63,9,0,0,48,63,-34
-53,34,87,9,-70,61,0,-4,-4,48,63,-34
-53,43,97,4,-75,70,-9,-9,-9,48,63,-34
-58,34,92,12,-75,63,-19,-14,-14,43,63,-43
-73,29,102,21,-87,65,-34,-29,-29,34,58,-43
-87,24,112,31,-100,68,-34,-34,-29,34,53,-43
-97,19,117,39,-107,68,-34,-34,-24,39,48,-39
-102,14,117,43,-109,65,-39,-39,-24,39,43,-39
-87,14,102,36,-95,58,-34,-48,-29,34,39,-48
-87,14,102,36,-95,58,-34,-48,-34,24,34,-48
-87,9,97,39,-92,53,-34,-48,-39,19,24,-53
-87,9,97,39,-92,53,-34,-43,-43,14,19,-53
-73,9,82,31,-78,46,-29,-43,-53,19,24,-63
-68,4,73,31,-70,39,-24,-43,-53,19,24,-63
-63,-4,58,34,-61,26,-14,-43,-53,19,19,-63
-58,-9,48,34,-53,19,-9,-43,-53,14,19,-63
-63,0,63,31,-63,31,0,-34,-68,9,14,-68
-73,0,73,36,-73,36,4,-29,-68,9,14,-68
-87,0,87,43,-87,43,4,-24,-68,14,19,-63
-97,-4,92,51,-95,43,9,-24,-63,14,19,-63
-87,-19,68,53,-78,24,4,-34,-68,9,14,-78
-82,-19,63,51,-73,21,9,-39,-73,4,9,-82
-73,-19,53,46,-63,17,4,-39,-78,0,4,-87
-68,-24,43,46,-56,9,0,-43,-82,-4,0,-92
-82,-29,53,56,-68,12,-9,-53,-92,-14,-14,-82
-82,-24,58,53,-70,17,-19,-53,-97,-14,-14,-82
-78,-9,68,43,-73,29,-24,-58,-102,-14,-14,-87
-68,0,68,34,-68,34,-24,-58,-107,-24,-14,-87
-63,0,63,31,-63,31,-4,-58,-102,-19,-19,-97
-63,-4,58,34,-61,26,-4,-63,-107,-24,-19,-102
-73,-14,58,43,-65,21,-19,-73,-126,-34,-29,-107
-73,-19,53,46,-63,17,-19,-78,-131,-39,-29,-112
-43,-4,39,24,-41,17,0,-58,-122,-24,-19,-92
-43,9,53,17,-48,31,4,-68,-122,-14,-9,-78
-34,-4,29,19,-31,12,-4,-82,-122,-19,-4,-73
-73,-9,63,41,-68,26,0,-73,-117,4,24,-63
-122,4,126,58,-124,65,9,-48,-87,43,68,-39
-112,58,170,26,-141,114,14,-24,-39,117,141,-9
-68,141,209,-36,-139,175,34,9,48,253,292,68
-19,214,234,-97,-126,224,43,29,136,405,478,214
9,224,214,-117,-102,219,-19,-4,165,507,614,395
19,204,185,-112,-82,195,-117,-92,126,488,600,517
48,297,248,-173,-100,273,-151,-165,63,351,439,575
117,409,292,-263,-87,351,-175,-229,-29,146,248,649
156,414,258,-285,-51,336,-268,-356,-219,-195,39,712
185,385,200,-285,-7,292,-341,-497,-483,-673,-224,824
273,395,122,-334,75,258,-405,-624,-766,-1146,-458,995
351,380,29,-366,161,204,-468,-727,-1010,-1551,-634,1146
380,346,-34,-363,207,156,-492,-785,-1239,-1912,-824,1288
424,356,-68,-390,246,143,-536,-873,-1503,-2288,-1093,1410
444,380,-63,-412,253,158,-634,-1029,-1786,-2649,-1376,1483
444,473,29,-458,207,251,-668,-1112,-1995,-2908,-1659,1483
502,619,117,-561,192,368,-658,-1151,-2122,-3064,-1917,1424
527,741,214,-634,156,478,-668,-1205,-2254,-3162,-2103,1332
419,732,312,-575,53,522,-688,-1263,-2337,-3201,-2176,1127
234,619,385,-427,-75,502,-610,-1283,-2308,-3123,-2176,775
73,380,307,-226,-117,344,-478,-1229,-2283,-2986,-2098,439
-43,29,73,7,-58,51,-331,-1127,-2269,-2801,-1956,131
-156,-253,-97,204,-29,-175,-209,-1005,-2147,-2576,-1878,-312
-317,-380,-63,348,-126,-222,-97,-907,-1991,-2352,-1893,-854
-434,-463,-29,448,-202,-246,9,-795,-1864,-2161,-1908,-1278
-424,-556,-131,490,-146,-344,122,-668,-1722,-1981,-1854,-1522
-424,-575,-151,500,-136,-363,234,-566,-1571,-1771,-1742,-1586
-463,-527,-63,495,-200,-295,268,-531,-1420,-1527,-1527,-1473
-468,-478,-9,473,-229,-244,224,-556,-1273,-1288,-1273,-1273
-473,-424,48,448,-261,-187,204,-492,-1122,-1102,-1054,-1112
-458,-356,102,407,-280,-126,229,-395,-990,-941,-912,-1005
-375,-278,97,326,-236,-90,204,-331,-834,-766,-751,-868
-317,-224,92,270,-204,-65,131,-253,-653,-561,-556,-697
-273,-180,92,226,-183,-43,58,-165,-483,-380,-385,-541
-180,-136,43,158,-112,-46,29,-117,-356,-239,-258,-439
-175,-156,19,165,-97,-68,58,-53,-258,-136,-165,-346
-219,-161,58,190,-139,-51,82,9,-170,-48,-87,-283
-131,-87,43,109,-87,-21,73,29,-112,4,-34,-244
-63,-24,39,43,-51,7,73,48,-78,53,14,-219
-131,-43,87,87,-109,21,73,68,-43,78,39,-204
-141,-34,107,87,-124,36,68,68,-19,102,68,-180
-73,14,87,29,-80,51,58,63,-4,131,107,-146
-87,4,92,41,-90,48,48,43,-4,136,107,-151
-117,-43,73,80,-95,14,39,43,-9,117,78,-151
-107,-43,63,75,-85,9,48,58,-4,131,92,-141
-87,-29,58,58,-73,14,53,63,14,141,102,-126
-87,-34,53,61,-70,9,48,48,9,141,92,-141
-92,-34,58,63,-75,12,24,39,9,141,97,-141
-87,-34,53,61,-70,9,4,34,24,151,117,-146
-82,-24,58,53,-70,17,-9,29,29,156,122,-141
-82,-4,78,43,-80,36,-9,14,24,170,141,-126
-82,-14,68,48,-75,26,-14,9,29,165,136,-117
-78,-14,63,46,-70,24,-29,4,14,156,126,-126
-78,-14,63,46,-70,24,-34,0,4,151,107,-136
-87,-9,78,48,-82,34,-29,4,14,141,107,-126
-97,-14,82,56,-90,34,-19,4,19,146,107,-136
-102,-29,73,65,-87,21,-14,0,19,146,107,-146
-92,-34,58,63,-75,12,-14,0,24,156,117,-136
-92,-29,63,61,-78,17,-24,-9,34,161,136,-122
-97,-24,73,61,-85,24,-14,-9,34,175,136,-122
-97,-19,78,58,-87,29,-14,-9,34,180,131,-126
-92,-14,78,53,-85,31,-9,-9,34,180,131,-126
-102,-14,87,58,-95,36,0,-9,29,165,126,-131
-112,-19,92,65,-102,36,-4,-4,29,161,122,-136
-112,-19,92,65,-102,36,-4,0,34,165,122,-136
-102,-4,97,53,-100,46,-4,0,39,165,126,-141
-92,-14,78,53,-85,31,9,-4,43,180,136,-136
-92,-19,73,56,-82,26,14,0,48,195,141,-131
-92,-24,68,58,-80,21,19,4,58,200,146,-122
-97,0,97,48,-97,48,24,9,63,214,151,-117
-82,4,87,39,-85,46,19,0,53,200,136,-136
-73,0,73,36,-73,36,19,0,63,195,136,-141
-68,14,82,26,-75,48,19,9,68,200,146,-141
-63,24,87,19,-75,56,19,9,73,204,151,-141
-58,24,82,17,-70,53,0,14,73,219,165,-131
-68,24,92,21,-80,58,0,14,78,229,165,-126
-53,24,78,14,-65,51,0,14,73,234,165,-126
-48,29,78,9,-63,53,9,14,68,234,165,-126
-53,24,78,14,-65,51,14,14,73,234,165,-131
-68,14,82,26,-75,48,19,29,87,239,175,-131
-78,9,87,34,-82,48,24,29,97,244,175,-131
-82,4,87,39,-85,46,29,34,102,258,185,-131
-97,4,102,46,-100,53,43,43,107,278,195,-122
-102,4,107,48,-104,56,43,43,117,283,200,-117
-97,4,102,46,-100,53,43,43,122,283,209,-112
-102,4,107,48,-104,56,43,53,126,292,214,-112
-102,4,107,48,-104,56,53,58,136,297,204,-112
-97,4,102,46,-100,53,48,58,141,307,204,-112
-92,4,97,43,-95,51,53,63,156,322,214,-117
-87,4,92,41,-90,48,63,68,165,331,224,-117
-92,19,112,36,-102,65,68,73,165,351,239,-102
-92,19,112,36,-102,65,68,82,180,366,248,-97
-102,9,112,46,-107,61,63,92,204,370,253,-92
-92,9,102,41,-97,56,63,97,219,380,258,-87
-82,14,97,34,-90,56,58,107,219,405,268,-82
-82,9,92,36,-87,51,58,117,229,419,287,-73
-92,4,97,43,-95,51,63,112,244,429,297,-68
-107,-9,97,58,-102,43,68,122,258,444,307,-63
-102,4,107,48,-104,56,73,136,278,463,317,-53
-97,9,107,43,-102,58,73,141,292,478,331,-48
-102,19,122,41,-112,70,68,156,307,492,341,-43
-112,24,136,43,-124,80,68,165,322,517,346,-39
-92,24,117,34,-104,70,68,165,326,527,346,-48
-68,24,92,21,-80,58,68,165,341,536,341,-43
-39,24,63,7,-51,43,63,170,356,541,341,-43
-19,24,43,-2,-31,34,58,180,375,551,341,-43
-39,34,73,2,-56,53,53,185,390,570,366,-24
-34,39,73,-2,-53,56,53,195,409,590,380,-19
-43,39,82,2,-63,61,53,214,434,619,390,-4
-53,48,102,2,-78,75,48,224,453,644,400,-4
-48,39,87,4,-68,63,39,229,468,658,414,4
-48,34,82,7,-65,58,34,234,478,678,419,4
-43,34,78,4,-61,56,34,239,497,697,429,9
-48,39,87,4,-68,63,39,248,522,717,434,9
-58,48,107,4,-82,78,48,263,541,722,434,19
-53,48,102,2,-78,75,48,268,556,732,439,24
-53,48,102,2,-78,75,43,278,561,741,439,24
-43,48,92,-2,-68,70,39,287,566,746,434,29
-48,48,97,0,-73,73,34,278,570,771,434,19
-48,53,102,-2,-75,78,34,278,585,775,439,19
-48,53,102,-2,-75,78,43,292,595,780,444,19
-53,48,102,2,-78,75,29,292,595,780,453,19
-63,58,122,2,-92,90,19,292,590,780,439,4
-58,58,117,0,-87,87,9,287,595,785,434,9
-39,63,102,-12,-70,82,4,283,610,780,429,9
-34,68,102,-17,-68,85,-4,278,610,771,424,4
-48,63,112,-7,-80,87,4,287,605,775,429,19
-58,63,122,-2,-90,92,14,287,605,790,429,24
-63,58,122,2,-92,90,14,292,605,785,434,34
-73,53,126,9,-100,90,19,292,605,790,434,39
-34,39,73,-2,-53,56,-9,268,595,756,419,19
-34,58,92,-12,-63,75,0,287,614,761,419,34
-19,107,126,-43,-73,117,9,307,619,775,429,53
-29,126,156,-48,-92,141,14,307,619,771,439,63
-58,97,156,-19,-107,126,9,283,595,741,429,68
-68,87,156,-9,-112,122,0,263,580,727,414,68
-68,87,156,-9,-112,122,0,253,566,712,409,68
-68,87,156,-9,-112,122,0,244,551,697,405,68
-68,87,156,-9,-112,122,0,234,536,683,400,68
-58,97,156,-19,-107,126,-4,214,507,649,380,68
-48,87,136,-19,-92,112,-14,200,483,614,361,68
-24,87,112,-31,-68,100,-24,185,458,575,346,53
-24,87,112,-31,-68,100,-24,175,434,536,322,43
-39,92,131,-26,-85,112,-14,156,390,497,302,24
-43,92,136,-24,-90,114,-9,146,361,473,287,39
-43,92,136,-24,-90,114,-9,136,336,444,273,43
-29,102,131,-36,-80,117,-9,136,307,414,258,43
-4,92,97,-43,-51,95,-14,117,268,375,229,29
-34,87,122,-26,-78,104,-14,102,244,341,209,14
-29,68,97,-19,-63,82,-14,87,214,307,195,0
-29,63,92,-17,-61,78,-19,73,195,273,175,-14
-39,53,92,-7,-65,73,-14,53,161,248,146,-24
-34,58,92,-12,-63,75,-14,43,136,224,131,-29
-34,82,117,-24,-75,100,-14,34,112,200,122,-24
-58,73,131,-7,-95,102,-19,19,87,180,107,-14
-78,58,136,9,-107,97,-14,4,73,161,97,-19
-78,53,131,12,-104,92,-19,4,58,131,87,-29
-53,48,102,2,-78,75,-14,9,43,122,78,-48
-53,39,92,7,-73,65,-4,4,19,102,68,-58
-48,29,78,9,-63,53,-14,-9,-9,87,43,-73
-53,34,87,9,-70,61,-14,-14,-19,68,34,-87
-48,34,82,7,-65,58,-14,-29,-29,53,29,-92
-43,29,73,7,-58,51,-14,-34,-43,39,19,-97
-48,24,73,12,-61,48,0,-19,-53,34,19,-102
-58,19,78,19,-68,48,4,-19,-63,14,9,-102
-68,9,78,29,-73,43,9,-24,-68,-4,-4,-112
-82,4,87,39,-85,46,14,-24,-73,-9,-14,-117
-68,4,73,31,-70,39,24,-14,-82,-14,-4,-126
-58,9,68,24,-63,39,19,-24,-87,-14,-4,-126
-53,19,73,17,-63,46,19,-24,-87,-9,-9,-122
-48,24,73,12,-61,48,19,-24,-87,-9,-14,-122
-68,9,78,29,-73,43,29,-29,-92,-19,-19,-122
-73,9,82,31,-78,46,19,-29,-102,-24,-24,-126
-68,14,82,26,-75,48,14,-34,-107,-29,-39,-141
-73,14,87,29,-80,51,14,-34,-107,-34,-34,-146
-92,-4,87,48,-90,41,14,-43,-117,-43,-43,-141
-97,-9,87,53,-92,39,19,-43,-126,-43,-48,-146
-97,-14,82,56,-90,34,4,-43,-126,-48,-53,-156
-97,-24,73,61,-85,24,0,-43,-122,-48,-53,-161
-73,-9,63,41,-68,26,9,-43,-122,-43,-43,-151
-58,0,58,29,-58,29,9,-43,-122,-43,-43,-156
-48,4,53,21,-51,29,9,-39,-122,-43,-43,-156
-43,4,48,19,-46,26,9,-39,-122,-43,-43,-151
-43,14,58,14,-51,36,9,-48,-107,-34,-39,-141
-39,14,53,12,-46,34,4,-39,-107,-34,-39,-141
-29,14,43,7,-36,29,-4,-39,-112,-34,-48,-151
-19,14,34,2,-26,24,-19,-43,-112,-39,-53,-151
-39,9,48,14,-43,29,-14,-39,-97,-24,-43,-141
-53,4,58,24,-56,31,-9,-34,-92,-19,-34,-131
-73,9,82,31,-78,46,-4,-29,-87,-14,-24,-122
-97,-4,92,51,-95,43,0,-24,-82,-14,-14,-122
-82,4,87,39,-85,46,-4,-34,-87,-4,-14,-122
-78,4,82,36,-80,43,-4,-34,-87,-4,-14,-122
-68,4,73,31,-70,39,-4,-29,-82,0,-14,-117
-53,4,58,24,-56,31,-9,-29,-82,0,-14,-117
-58,14,73,21,-65,43,-9,-39,-82,0,-4,-107
-58,14,73,21,-65,43,-14,-39,-82,-4,-4,-107
-58,9,68,24,-63,39,-19,-39,-82,-4,-9,-112
-58,9,68,24,-63,39,-24,-34,-82,-4,-9,-112
-48,19,68,14,-58,43,-34,-34,-78,4,0,-102
-48,24,73,12,-61,48,-34,-34,-73,9,4,-92
-48,24,73,12,-61,48,-29,-34,-68,14,4,-82
-48,29,78,9,-63,53,-29,-34,-63,14,9,-73
-39,29,68,4,-53,48,-43,-48,-68,9,14,-78
-34,29,63,2,-48,46,-43,-48,-68,9,14,-78
-34,29,63,2,-48,46,-48,-48,-68,14,19,-73
-29,24,53,2,-41,39,-48,-53,-63,14,19,-73
-39,34,73,2,-56,53,-48,-58,-53,19,29,-73
-43,39,82,2,-63,61,-39,-58,-53,24,29,-73
-43,43,87,0,-65,65,-39,-53,-53,29,29,-73
-48,43,92,2,-70,68,-39,-53,-53,34,29,-73
-53,34,87,9,-70,61,-34,-53,-58,24,34,-63
-53,34,87,9,-70,61,-39,-53,-58,24,34,-63
-48,43,92,2,-70,68,-39,-58,-58,24,34,-68
-39,48,87,-4,-63,68,-34,-58,-58,14,34,-68
-39,48,87,-4,-63,68,-14,-63,-48,24,39,-73
-43,43,87,0,-65,65,-14,-63,-48,24,39,-73
-58,34,92,12,-75,63,-29,-68,-63,19,29,-73
-63,29,92,17,-78,61,-29,-68,-63,19,29,-73
-14,63,78,-24,-46,70,-19,-48,-43,24,39,-53
-43,58,102,-7,-73,80,-4,-48,-53,24,39,-48
-92,24,117,34,-104,70,-14,-63,-63,19,34,-43
-82,39,122,21,-102,80,-19,-63,-58,24,53,-34
-4,82,87,-39,-46,85,-29,-78,-48,43,87,-29
24,107,82,-65,-29,95,-34,-82,-48,68,122,-9
-39,112,151,-36,-95,131,-34,-68,0,136,195,29
-58,146,204,-43,-131,175,-24,-48,87,268,351,107
-29,204,234,-87,-131,219,-39,-24,195,478,566,258
9,234,224,-122,-107,229,-87,-53,253,614,707,439
68,287,219,-178,-75,253,-151,-107,209,536,644,575
97,370,273,-234,-87,322,-175,-180,107,283,405,629
58,414,356,-236,-148,385,-219,-268,-43,-87,146,644
97,444,346,-270,-124,395,-322,-419,-317,-585,-136,678
204,473,268,-339,-31,370,-405,-585,-619,-1137,-419,790
263,468,204,-366,29,336,-439,-688,-893,-1620,-663,961
292,434,141,-363,75,287,-473,-766,-1171,-2049,-883,1132
346,395,48,-370,148,222,-507,-854,-1464,-2464,-1122,1283
424,400,-24,-412,224,187,-546,-961,-1776,-2845,-1376,1424
453,444,-9,-448,231,217,-590,-1044,-2034,-3152,-1610,1542
453,502,48,-478,202,275,-610,-1083,-2191,-3367,-1869,1542
419,575,156,-497,131,366,-610,-1127,-2332,-3484,-2132,1459
400,663,263,-531,68,463,-658,-1254,-2483,-3572,-2283,1371
390,717,326,-553,31,522,-707,-1400,-2601,-3611,-2371,1166
297,653,356,-475,-29,505,-683,-1464,-2654,-3552,-2430,790
122,439,317,-280,-97,378,-566,-1400,-2659,-3386,-2357,414
-29,165,195,-68,-112,180,-414,-1268,-2547,-3103,-2152,97
-102,-117,-14,109,-43,-65,-273,-1102,-2332,-2791,-2030,-317
-200,-326,-126,263,-36,-226,-136,-932,-2117,-2513,-2015,-849
-317,-478,-161,397,-78,-319,4,-756,-1937,-2274,-1991,-1298
-375,-566,-190,470,-92,-378,136,-605,-1747,-2025,-1888,-1546
-424,-575,-151,500,-136,-363,180,-580,-1566,-1761,-1703,-1581
-439,-556,-117,497,-161,-336,126,-614,-1420,-1512,-1488,-1449
-366,-483,-117,424,-124,-300,117,-561,-1249,-1298,-1249,-1259
-331,-375,-43,353,-143,-209,170,-424,-1039,-1058,-1029,-1073
-336,-278,58,307,-197,-109,146,-322,-844,-824,-810,-907
-268,-214,53,241,-161,-80,53,-234,-624,-580,-595,-746
-204,-151,53,178,-129,-48,-9,-156,-434,-370,-405,-590
-151,-117,34,134,-92,-41,-9,-78,-297,-219,-258,-468
-117,-107,9,112,-63,-48,29,-4,-190,-107,-146,-375
-112,-112,0,112,-56,-56,43,48,-102,-29,-78,-312
-112,-87,24,100,-68,-31,53,87,-43,24,-24,-273
-82,-43,39,63,-61,-2,63,107,0,73,14,-239
-92,-34,58,63,-75,12,53,107,24,97,39,-214
-102,-53,48,78,-75,-2,19,87,39,112,58,-200
-53,-34,19,43,-36,-7,9,82,53,141,87,-175
9,-24,-34,7,21,-29,0,73,63,165,117,-170
-29,-63,-34,46,2,-48,-19,63,48,156,107,-180
-87,-92,-4,90,-41,-48,-19,48,43,141,92,-190
-87,-68,19,78,-53,-24,4,53,43,141,92,-195
-73,-48,24,61,-48,-12,9,63,53,146,82,-185
-73,-43,29,58,-51,-7,-4,58,58,151,87,-180
-63,-39,24,51,-43,-7,-14,58,78,165,107,-180
-53,-24,29,39,-41,2,-19,58,87,175,112,-170
-58,-24,34,41,-46,4,-19,48,87,204,141,-136
-53,-34,19,43,-36,-7,-24,48,97,204,146,-126
-43,-34,9,39,-26,-12,-39,48,87,200,146,-136
-39,-34,4,36,-21,-14,-43,48,82,200,136,-146
-43,-14,29,29,-36,7,-53,48,73,195,126,-146
-48,-14,34,31,-41,9,-48,43,78,195,126,-156
-48,-24,24,36,-36,0,-48,34,78,190,126,-165
-34,-24,9,29,-21,-7,-53,29,82,195,136,-156
-43,-34,9,39,-26,-12,-63,29,102,200,156,-141
-48,-34,14,41,-31,-9,-53,29,102,214,156,-141
-48,-34,14,41,-31,-9,-53,29,102,219,151,-146
-43,-34,9,39,-26,-12,-48,29,102,219,151,-146
-53,-39,14,46,-34,-12,-43,39,117,219,151,-146
-63,-39,24,51,-43,-7,-43,43,117,219,151,-146
-63,-34,29,48,-46,-2,-39,48,122,229,156,-141
-53,-14,39,34,-46,12,-34,48,126,234,165,-141
-53,-29,24,41,-39,-2,-24,39,131,234,170,-151
-53,-39,14,46,-34,-12,-24,39,136,244,170,-151
-53,-48,4,51,-29,-21,-24,39,146,244,170,-146
-58,-29,29,43,-43,0,-24,39,151,253,170,-146
-63,-43,19,53,-41,-12,-19,39,161,253,175,-151
-63,-58,4,61,-34,-26,-19,39,170,253,175,-151
-68,-53,14,61,-41,-19,-19,48,175,263,185,-146
-73,-53,19,63,-46,-17,-19,48,180,273,190,-141
-58,-48,9,53,-34,-19,-19,48,185,287,204,-141
-58,-43,14,51,-36,-14,-9,53,195,297,204,-136
-34,-39,-4,36,-14,-21,0,58,195,302,204,-136
-19,-29,-9,24,-4,-19,19,63,195,302,204,-136
-24,-39,-14,31,-4,-26,29,68,214,322,204,-141
-39,-43,-4,41,-17,-24,39,87,234,326,214,-141
-48,-43,4,46,-26,-19,48,92,248,331,214,-141
-53,-43,9,48,-31,-17,58,102,258,346,224,-141
-58,-34,24,46,-41,-4,73,117,283,370,229,-136
-63,-34,29,48,-46,-2,73,122,292,380,239,-126
-58,-34,24,46,-41,-4,73,126,297,385,253,-117
-63,-34,29,48,-46,-2,73,141,302,400,263,-112
-68,-34,34,51,-51,0,78,156,322,405,263,-107
-68,-34,34,51,-51,0,68,156,326,414,263,-112
-68,-34,34,51,-51,0,68,161,341,429,273,-122
-68,-34,34,51,-51,0,73,165,351,439,283,-126
-63,-19,43,41,-53,12,87,170,370,463,297,-112
-63,-19,43,41,-53,12,87,180,385,483,307,-107
-73,-29,43,51,-58,7,82,190,409,492,312,-102
-63,-29,34,46,-48,2,82,195,424,507,317,-97
-39,-9,29,24,-34,9,97,209,444,531,331,-87
-34,-9,24,21,-29,7,97,224,453,546,346,-82
-39,-9,29,24,-34,9,102,224,468,556,351,-82
-48,-19,29,34,-39,4,107,239,483,570,356,-82
-39,-19,19,29,-29,0,122,258,512,600,375,-73
-29,-19,9,24,-19,-4,122,258,527,614,390,-68
-29,-14,14,21,-21,0,117,268,541,629,400,-63
-34,-14,19,24,-26,2,117,273,556,653,405,-58
-39,-24,14,31,-26,-4,122,297,575,673,419,-48
-39,-24,14,31,-26,-4,126,302,595,692,419,-43
-34,-24,9,29,-21,-7,126,312,614,707,424,-43
-39,-24,14,31,-26,-4,126,326,639,727,429,-43
-43,-19,24,31,-34,2,126,331,653,741,444,-34
-24,-9,14,17,-19,2,131,341,673,756,458,-29
-19,-4,14,12,-17,4,136,361,697,780,468,-14
-14,9,24,2,-19,17,136,370,717,800,478,-14
-24,0,24,12,-24,12,131,380,741,814,488,-4
-29,-4,24,17,-26,9,131,390,751,834,488,-4
-29,-4,24,17,-26,9,136,400,771,854,492,0
-39,0,39,19,-39,19,146,414,795,873,492,0
-34,14,48,9,-41,31,136,419,824,878,502,19
-24,19,43,2,-34,31,136,424,839,888,517,24
-19,24,43,-2,-31,34,131,434,844,897,527,24
-4,29,34,-12,-19,31,126,444,849,902,531,29
-9,24,34,-7,-21,29,112,453,863,922,536,39
-9,34,43,-12,-26,39,112,453,878,932,536,39
-9,39,48,-14,-29,43,122,468,888,941,536,39
-14,39,53,-12,-34,46,107,468,888,946,541,39
-39,29,68,4,-53,48,112,473,893,941,551,48
-39,29,68,4,-53,48,107,473,897,951,551,58
-24,34,58,-4,-41,46,107,473,912,951,551,63
-24,39,63,-7,-43,51,102,473,912,946,551,63
-24,39,63,-7,-43,51,92,468,897,936,546,68
-19,43,63,-12,-41,53,92,463,897,946,546,73
-9,43,53,-17,-31,48,82,463,897,936,551,82
-4,43,48,-19,-26,46,78,458,897,936,551,87
-19,43,63,-12,-41,53,63,448,873,917,531,92
-24,48,73,-12,-48,61,48,434,858,897,517,102
-24,53,78,-14,-51,65,34,409,829,868,522,107
-29,48,78,-9,-53,63,24,395,805,839,517,112
-19,48,68,-14,-43,58,19,380,785,795,502,112
-19,48,68,-14,-43,58,9,361,756,761,483,122
-29,58,87,-14,-58,73,9,346,722,732,468,122
-29,58,87,-14,-58,73,9,331,683,702,453,122
-24,48,73,-12,-48,61,0,307,639,653,424,112
-24,53,78,-14,-51,65,-9,278,600,614,400,102
-19,53,73,-17,-46,63,-9,239,546,566,370,82
-14,48,63,-17,-39,56,-9,209,512,512,351,73
-14,48,63,-17,-39,56,-9,190,478,463,312,78
-4,9,14,-2,-9,12,-24,151,419,409,263,39
9,0,-9,-4,9,-4,-39,136,370,370,234,19
0,9,9,-4,-4,9,-34,131,356,346,219,19
-9,9,19,0,-14,14,-29,126,341,331,214,19
-19,9,29,4,-24,19,-24,122,326,317,209,19
-29,9,39,9,-34,24,-19,117,312,302,204,19
-24,0,24,12,-24,12,-19,97,287,268,175,4
-19,-9,9,14,-14,0,-24,82,258,244,156,0
0,-9,-9,4,4,-9,-29,68,229,214,141,-19
-4,-9,-4,7,0,-7,-24,58,200,185,117,-34
-24,4,29,9,-26,17,-14,48,185,170,107,-53
-24,4,29,9,-26,17,0,48,175,161,102,-39
-19,4,24,7,-21,14,9,48,170,146,97,-34
0,14,14,-7,-7,14,19,58,161,131,92,-34
0,4,4,-2,-2,4,9,48,141,102,73,-43
-34,-9,24,21,-29,7,4,34,126,87,53,-53
-34,-39,-4,36,-14,-21,0,19,107,73,39,-63
-39,-53,-14,46,-12,-34,-9,4,97,58,19,-73
-29,-43,-14,36,-7,-29,-9,4,82,48,4,-92
-14,-39,-24,26,4,-31,-4,4,78,39,4,-97
-4,-14,-9,9,2,-12,0,4,73,29,9,-92
-19,-24,-4,21,-7,-14,0,0,68,24,9,-82
-39,-48,-9,43,-14,-29,9,-14,58,9,0,-87
-39,-53,-14,46,-12,-34,0,-14,48,-4,-9,-97
-14,-58,-43,36,14,-51,0,-9,39,0,-19,-117
-14,-68,-53,41,19,-61,4,-14,19,-4,-29,-126
-34,-53,-19,43,-7,-36,19,-14,19,4,-29,-122
-43,-43,0,43,-21,-21,24,-4,29,0,-24,-126
-43,-39,4,41,-24,-17,29,-4,39,0,-14,-122
-43,-39,4,41,-24,-17,34,4,43,0,-9,-117
-24,-29,-4,26,-9,-17,24,9,39,9,0,-102
-19,-29,-9,24,-4,-19,24,9,34,-4,-9,-102
-14,-34,-19,24,2,-26,24,4,34,-19,-24,-112
-14,-34,-19,24,2,-26,24,4,34,-19,-34,-117
-19,-43,-24,31,2,-34,34,14,34,-4,-9,-117
-19,-48,-29,34,4,-39,29,4,29,-4,-4,-117
-24,-48,-24,36,0,-36,29,4,29,0,-4,-112
-29,-53,-24,41,-2,-39,29,4,29,0,-4,-112
-29,-48,-19,39,-4,-34,34,19,34,0,-4,-97
-24,-48,-24,36,0,-36,29,19,34,4,-4,-97
-9,-43,-34,26,12,-39,29,14,39,9,-14,-107
-4,-43,-39,24,17,-41,34,14,48,14,-4,-107
-19,-39,-19,29,0,-29,58,29,63,29,4,-92
-29,-39,-9,34,-9,-24,68,34,58,34,9,-87
-34,-39,-4,36,-14,-21,58,39,63,34,14,-87
-39,-43,-4,41,-17,-24,58,43,73,39,24,-82
-29,-43,-14,36,-7,-29,58,53,78,39,34,-73
-19,-39,-19,29,0,-29,58,53,82,43,34,-78
-14,-39,-24,26,4,-31,58,58,87,48,34,-78
-14,-43,-29,29,7,-36,58,58,92,53,34,-73
-24,-48,-24,36,0,-36,53,48,107,58,53,-58
-29,-53,-24,41,-2,-39,53,58,107,63,58,-53
-29,-58,-29,43,0,-43,48,58,102,68,53,-58
-29,-63,-34,46,2,-48,39,53,102,68,53,-53
-19,-53,-34,36,7,-43,29,43,102,78,63,-43
-4,-53,-48,29,21,-51,29,43,102,78,63,-43
4,-43,-48,19,26,-46,29,43,102,78,63,-43
9,-53,-63,21,36,-58,29,43,102,73,63,-53
19,-43,-63,12,41,-53,29,53,97,82,73,-39
9,-43,-53,17,31,-48,34,53,97,82,73,-34
4,-43,-48,19,26,-46,39,58,102,87,73,-24
4,-43,-48,19,26,-46,39,58,102,87,73,-19
4,-63,-68,29,36,-65,24,43,97,82,63,-19
0,-73,-73,36,36,-73,14,39,92,73,63,-19
-4,-87,-82,46,39,-85,4,34,87,68,58,-24
-9,-97,-87,53,39,-92,-4,34,82,63,58,-24
-14,-87,-73,51,29,-80,-9,29,82,78,73,-14
-19,-82,-63,51,21,-73,-14,24,82,78,73,-14
-24,-82,-58,53,17,-70,-14,19,82,78,68,-14
-29,-78,-48,53,9,-63,-19,14,82,73,68,-14
-19,-78,-58,48,19,-68,-34,0,68,58,53,-19
-14,-78,-63,46,24,-70,-34,0,68,58,53,-19
-14,-78,-63,46,24,-70,-39,0,68,63,58,-14
-9,-82,-73,46,31,-78,-39,-4,73,63,58,-14
0,-78,-78,39,39,-78,-39,-9,68,58,58,-14
4,-68,-73,31,39,-70,-29,-9,63,53,58,-14
14,-58,-73,21,43,-65,-29,-4,58,48,58,-14
19,-53,-73,17,46,-63,-29,-4,53,43,58,-14
4,-68,-73,31,39,-70,-19,-4,48,53,53,-14
-4,-73,-68,39,31,-70,-29,-4,48,53,53,-14
-9,-68,-58,39,24,-63,-34,-9,48,53,53,-19
-9,-68,-58,39,24,-63,-34,-9,48,43,53,-19
4,-63,-68,29,36,-65,-24,-4,58,48,48,-24
4,-63,-68,29,36,-65,-24,-4,58,43,48,-24
-4,-68,-63,36,29,-65,-39,-9,43,34,39,-24
-4,-68,-63,36,29,-65,-39,-9,43,29,39,-24
-4,-63,-58,34,26,-61,-19,0,43,34,39,-24
-14,-78,-63,46,24,-70,-24,-19,34,24,29,-29
-14,-63,-48,39,17,-56,-24,-24,34,29,43,-14
-4,-29,-24,17,9,-26,-19,-14,48,43,73,4
4,-4,-9,0,7,-7,-9,-9,68,82,117,29
-24,9,34,7,-29,21,-14,-4,97,136,170,48
-48,14,63,17,-56,39,-14,9,156,234,273,97
-9,68,78,-29,-43,73,-14,29,263,424,468,204
78,146,68,-112,4,107,-39,43,380,605,663,395
107,195,87,-151,9,141,-87,-4,390,605,678,566
117,229,112,-173,2,170,-141,-107,268,351,458,614
146,292,146,-219,0,219,-214,-229,87,-29,190,619
156,346,190,-251,-17,268,-268,-356,-131,-468,-29,702
204,395,190,-300,7,292,-322,-497,-434,-995,-253,844
263,405,141,-334,61,273,-375,-624,-766,-1537,-488,1015
273,361,87,-317,92,224,-429,-717,-1058,-2000,-702,1185
361,346,-14,-353,187,165,-473,-805,-1366,-2410,-893,1346
483,375,-107,-429,295,134,-517,-902,-1688,-2815,-1083,1546
492,400,-92,-446,292,153,-556,-1000,-1981,-3157,-1268,1717
473,453,-19,-463,246,217,-580,-1063,-2191,-3396,-1503,1786
492,531,39,-512,226,285,-580,-1112,-2337,-3533,-1771,1756
478,614,136,-546,170,375,-619,-1215,-2498,-3650,-1995,1683
429,692,263,-561,82,478,-668,-1351,-2630,-3699,-2098,1537
331,678,346,-505,-7,512,-649,-1410,-2669,-3650,-2166,1234
190,527,336,-358,-73,431,-566,-1376,-2664,-3494,-2156,839
63,273,209,-168,-73,241,-439,-1254,-2581,-3240,-2005,531
-39,-9,29,24,-34,9,-287,-1093,-2381,-2928,-1869,165
-131,-273,-141,202,4,-207,-165,-946,-2186,-2644,-1873,-385
-239,-453,-214,346,-12,-334,-19,-775,-1991,-2386,-1908,-927
-346,-585,-239,466,-53,-412,170,-570,-1742,-2108,-1844,-1298
-395,-644,-248,519,-73,-446,283,-458,-1532,-1839,-1722,-1459
-375,-605,-229,490,-73,-417,229,-492,-1390,-1595,-1527,-1415
-331,-527,-195,429,-68,-361,165,-497,-1205,-1327,-1273,-1215
-326,-453,-126,390,-100,-290,195,-395,-1005,-1093,-1034,-1024
-322,-356,-34,339,-143,-195,209,-278,-805,-873,-834,-868
-258,-258,0,258,-129,-129,156,-195,-590,-639,-624,-702
-200,-204,-4,202,-97,-104,73,-107,-390,-414,-419,-551
-175,-200,-24,187,-75,-112,19,-48,-229,-253,-287,-444
-141,-185,-43,163,-48,-114,29,0,-122,-141,-180,-351
-58,-156,-97,107,19,-126,58,63,-34,-48,-97,-287
-14,-151,-136,82,61,-143,63,107,24,0,-48,-244
-43,-136,-92,90,24,-114,63,136,73,43,-4,-214
-63,-112,-48,87,-7,-80,73,156,117,92,43,-180
-53,-102,-48,78,-2,-75,73,146,131,117,68,-165
-63,-102,-39,82,-12,-70,68,146,146,141,87,-151
-53,-92,-39,73,-7,-65,68,141,170,161,107,-136
0,-82,-82,41,41,-82,58,122,161,165,107,-131
9,-92,-102,41,56,-97,48,112,146,156,97,-141
-39,-92,-53,65,7,-73,78,136,170,161,112,-122
-48,-97,-48,73,0,-73,73,141,161,161,112,-126
-34,-97,-63,65,14,-80,68,126,146,161,97,-131
-34,-102,-68,68,17,-85,53,117,146,161,97,-131
-24,-107,-82,65,29,-95,43,112,161,170,112,-136
-14,-102,-87,58,36,-95,39,107,165,175,112,-131
-29,-92,-63,61,17,-78,34,102,165,185,136,-117
-34,-102,-68,68,17,-85,34,97,175,185,136,-107
-34,-102,-68,68,17,-85,24,92,165,180,131,-117
-39,-102,-63,70,12,-82,24,87,161,180,117,-126
-43,-97,-53,70,4,-75,14,87,156,170,107,-117
-48,-102,-53,75,2,-78,19,82,156,175,107,-126
-48,-117,-68,82,9,-92,19,73,151,175,107,-136
-34,-122,-87,78,26,-104,14,68,151,185,117,-126
-48,-136,-87,92,19,-112,4,68,170,185,126,-117
-68,-141,-73,104,2,-107,14,68,170,195,126,-122
-82,-146,-63,114,-9,-104,14,68,170,195,122,-131
-92,-151,-58,122,-17,-104,19,68,170,190,122,-136
-78,-131,-53,104,-12,-92,24,78,175,200,131,-136
-73,-126,-53,100,-9,-90,24,82,175,200,131,-136
-58,-117,-58,87,0,-87,29,87,180,209,136,-131
-34,-92,-58,63,12,-75,34,87,185,214,146,-131
-29,-107,-78,68,24,-92,34,78,200,224,141,-131
-34,-117,-82,75,24,-100,34,78,204,234,141,-131
-39,-126,-87,82,24,-107,34,78,214,234,141,-126
-48,-107,-58,78,4,-82,34,78,219,244,141,-126
-58,-97,-39,78,-9,-68,48,82,229,253,141,-136
-53,-107,-53,80,0,-80,48,87,239,253,146,-131
-53,-97,-43,75,-4,-70,48,102,244,263,161,-122
-53,-92,-39,73,-7,-65,48,107,248,273,170,-112
-53,-92,-39,73,-7,-65,43,102,263,287,185,-117
-58,-92,-34,75,-12,-63,48,102,273,297,185,-117
-39,-92,-53,65,7,-73,53,102,273,302,185,-122
-29,-87,-58,58,14,-73,68,102,273,302,185,-126
-19,-78,-58,48,19,-68,82,117,278,322,185,-126
-29,-82,-53,56,12,-68,87,136,292,326,195,-122
-34,-82,-48,58,7,-65,92,141,302,331,195,-117
-34,-82,-48,58,7,-65,97,151,307,346,204,-112
-43,-63,-19,53,-12,-41,112,170,326,361,214,-122
-43,-63,-19,53,-12,-41,112,170,341,370,219,-117
-34,-63,-29,48,-2,-46,112,170,351,375,229,-112
-34,-63,-29,48,-2,-46,112,180,361,390,234,-112
-43,-68,-24,56,-9,-46,122,195,380,400,239,-92
-48,-73,-24,61,-12,-48,117,195,385,414,244,-92
-53,-78,-24,65,-14,-51,122,200,400,434,258,-97
-58,-82,-24,70,-17,-53,131,204,409,448,273,-97
-43,-68,-24,56,-9,-46,136,209,424,478,273,-87
-43,-68,-24,56,-9,-46,136,219,444,492,278,-87
-53,-78,-24,65,-14,-51,131,229,473,497,278,-87
-43,-78,-34,61,-4,-56,131,234,492,507,278,-87
-24,-78,-53,51,14,-65,131,248,502,531,297,-78
-24,-78,-53,51,14,-65,126,263,512,546,317,-73
-34,-78,-43,56,4,-61,126,263,527,556,326,-73
-48,-87,-39,68,-4,-63,126,278,541,570,336,-73
-29,-73,-43,51,7,-58,131,297,566,595,356,-58
-9,-68,-58,39,24,-63,131,297,585,614,370,-48
0,-58,-58,29,29,-58,126,307,605,634,380,-39
4,-53,-58,24,31,-56,126,312,624,663,385,-29
-9,-53,-43,31,17,-48,131,326,649,678,400,-29
-9,-53,-43,31,17,-48,136,331,663,692,400,-24
-4,-53,-48,29,21,-51,136,341,678,702,405,-24
-9,-53,-43,31,17,-48,136,356,697,717,409,-24
-4,-48,-43,26,19,-46,126,361,717,741,424,-14
14,-39,-53,12,34,-46,131,370,741,756,439,-9
19,-34,-53,7,36,-43,136,390,771,780,448,4
24,-19,-43,-2,34,-31,136,400,795,800,458,4
9,-29,-39,9,24,-34,117,395,800,795,453,-4
0,-43,-43,21,21,-43,112,400,800,805,448,-4
-4,-53,-48,29,21,-51,112,405,810,814,448,0
-19,-58,-39,39,9,-48,117,414,824,824,444,0
-4,-53,-48,29,21,-51,107,405,844,839,458,9
4,-48,-53,21,29,-51,97,405,858,849,468,14
9,-43,-53,17,31,-48,82,409,863,858,473,14
24,-39,-63,7,43,-51,68,414,868,863,473,19
14,-39,-53,12,34,-46,63,414,868,873,478,29
9,-34,-43,12,26,-39,63,414,878,873,478,29
4,-34,-39,14,21,-36,73,429,883,873,478,29
-4,-39,-34,21,14,-36,58,429,878,868,483,29
-19,-48,-29,34,4,-39,63,429,873,863,473,29
-19,-48,-29,34,4,-39,58,424,878,873,473,39
-4,-43,-39,24,17,-41,58,419,893,873,473,43
-4,-39,-34,21,14,-36,53,414,893,868,473,43
-19,-43,-24,31,2,-34,48,405,878,858,463,43
-19,-43,-24,31,2,-34,53,405,868,858,458,43
-14,-48,-34,31,9,-41,48,409,858,839,458,48
-14,-53,-39,34,12,-46,48,409,849,829,453,48
-4,-39,-34,21,14,-36,58,409,834,819,448,68
4,-19,-24,7,14,-21,48,405,829,810,439,82
19,0,-19,-9,19,-9,39,390,810,790,448,92
29,9,-19,-19,24,-4,34,385,795,771,448,102
24,0,-24,-12,24,-12,34,375,766,727,429,102
19,0,-19,-9,19,-9,29,361,736,692,414,112
4,9,4,-7,0,7,34,351,702,663,405,112
0,9,9,-4,-4,9,39,341,663,634,395,112
9,19,9,-14,0,14,39,317,634,585,366,112
14,24,9,-19,2,17,29,297,600,556,351,112
24,24,0,-24,12,12,29,268,551,517,331,102
34,19,-14,-26,24,2,29,248,522,473,322,102
9,19,9,-14,0,14,34,253,497,439,302,97
4,19,14,-12,-4,17,34,239,468,409,273,97
-9,19,29,-4,-19,24,29,219,429,380,253,92
-39,19,58,9,-48,39,34,214,400,366,239,82
-14,39,53,-12,-34,46,34,195,375,331,234,68
0,29,29,-14,-14,29,34,170,341,292,209,58
14,29,14,-21,0,21,29,165,297,253,185,53
29,29,0,-29,14,14,29,151,273,219,170,48
34,19,-14,-26,24,2,29,136,248,195,156,29
9,9,0,-9,4,4,29,117,229,180,131,24
4,19,14,-12,-4,17,29,107,214,165,126,19
4,19,14,-12,-4,17,29,112,195,156,122,14
0,19,19,-9,-9,19,39,102,180,131,102,4
-4,14,19,-4,-12,17,39,87,170,107,92,4
-9,0,9,4,-9,4,39,78,156,92,78,-4
-14,0,14,7,-14,7,39,73,146,68,73,-4
4,14,9,-9,-2,12,48,73,141,58,53,-24
19,14,-4,-17,12,4,48,63,131,39,43,-39
39,19,-19,-29,29,0,48,43,122,39,34,-39
73,19,-53,-46,63,-17,48,39,102,39,34,-48
-63,-39,24,51,-43,-7,58,39,97,24,24,-48
-58,-68,-9,63,-24,-39,39,24,68,4,4,-68
9,-4,-14,-2,12,-9,48,43,78,9,9,-53
9,9,0,-9,4,4,48,39,78,9,9,-58
-4,-9,-4,7,0,-7,39,34,73,4,0,-68
-9,-19,-9,14,0,-14,39,29,68,0,0,-68
-14,-29,-14,21,0,-21,39,24,63,-4,0,-68
-19,-39,-19,29,0,-29,39,19,58,-9,0,-68
-24,-39,-14,31,-4,-26,39,19,48,-19,-14,-78
-29,-48,-19,39,-4,-34,34,14,43,-19,-19,-78
-19,-48,-29,34,4,-39,29,9,39,-24,-19,-92
-34,-48,-14,41,-9,-31,34,9,34,-29,-29,-102
-29,-39,-9,34,-9,-24,43,14,34,-19,-29,-102
-24,-34,-9,29,-7,-21,48,19,39,-14,-24,-87
-14,-29,-14,21,0,-21,48,24,48,-14,-19,-82
9,-14,-24,2,17,-19,48,39,53,-14,-14,-82
19,-29,-48,4,34,-39,39,29,39,-29,-19,-87
-14,-39,-24,26,4,-31,34,24,39,-29,-24,-92
-14,-63,-48,39,17,-56,29,19,34,-29,-24,-97
-19,-73,-53,46,17,-63,19,14,39,-29,-29,-102
-34,-68,-34,51,0,-51,4,14,34,-24,-29,-97
-24,-58,-34,41,4,-46,4,14,39,-19,-24,-97
-19,-29,-9,24,-4,-19,4,14,43,-14,-14,-87
-39,-34,4,36,-21,-14,0,9,48,-4,-9,-73
-39,-43,-4,41,-17,-24,9,4,58,0,0,-78
-29,-43,-14,36,-7,-29,0,4,58,-4,0,-78
4,-43,-48,19,26,-46,0,9,58,9,0,-87
14,-48,-63,17,39,-56,4,4,48,14,0,-87
14,-48,-63,17,39,-56,0,0,53,24,0,-82
4,-43,-48,19,26,-46,-4,4,58,19,4,-87
4,-43,-48,19,26,-46,-9,0,63,19,14,-82
4,-48,-53,21,29,-51,-14,4,63,19,19,-78
-4,-39,-34,21,14,-36,-4,19,63,34,34,-68
-9,-39,-29,24,9,-34,-4,19,63,24,29,-63
-14,-43,-29,29,7,-36,-4,14,68,14,19,-68
-24,-43,-19,34,-2,-31,-4,14,73,19,14,-68
-19,-39,-19,29,0,-29,4,19,82,29,34,-63
-9,-39,-29,24,9,-34,0,14,78,34,43,-58
-4,-34,-29,19,12,-31,0,19,78,43,48,-48
0,-34,-34,17,17,-34,0,24,78,48,53,-43
-4,-43,-39,24,17,-41,0,19,78,43,43,-39
-4,-48,-43,26,19,-46,-9,19,73,43,43,-39
4,-48,-53,21,29,-51,-14,14,73,43,34,-48
4,-53,-58,24,31,-56,-14,14,78,43,43,-48
-9,-68,-58,39,24,-63,0,14,78,53,53,-29
-19,-68,-48,43,14,-58,9,14,68,53,48,-29
-24,-68,-43,46,9,-56,0,14,68,48,43,-34
-29,-73,-43,51,7,-58,0,14,73,48,43,-34
-39,-82,-43,61,2,-63,4,19,73,43,53,-24
-39,-78,-39,58,0,-58,9,24,73,43,53,-29
-43,-78,-34,61,-4,-56,14,34,73,43,53,-29
-53,-82,-29,68,-12,-56,19,39,73,43,53,-24
-34,-68,-34,51,0,-51,29,29,68,34,48,-14
-19,-63,-43,41,12,-53,34,39,68,34,48,-14
0,-58,-58,29,29,-58,34,39,63,34,39,-24
19,-53,-73,17,46,-63,29,34,63,29,34,-24
14,-53,-68,19,41,-61,39,43,63,39,43,-14
14,-53,-68,19,41,-61,39,43,63,39,43,-14
9,-43,-53,17,31,-48,39,43,63,39,43,-14
0,-53,-53,26,26,-53,39,43,63,34,43,-24
-14,-68,-53,41,19,-61,29,43,58,24,34,-24
-29,-73,-43,51,7,-58,34,43,58,24,34,-24
-39,-78,-39,58,0,-58,39,48,63,29,34,-19
-43,-82,-39,63,-2,-61,39,48,63,29,34,-19
-34,-78,-43,56,4,-61,43,48,63,29,34,-19
-29,-73,-43,51,7,-58,43,48,63,24,34,-19
-24,-73,-48,48,12,-61,43,48,63,24,29,-24
-19,-68,-48,43,14,-58,43,53,63,24,29,-24
-19,-68,-48,43,14,-58,34,53,53,24,24,-29
-19,-73,-53,46,17,-63,34,53,53,19,24,-34
-19,-82,-63,51,21,-73,39,53,53,14,19,-39
-19,-87,-68,53,24,-78,39,53,53,4,19,-43
-24,-82,-58,53,17,-70,39,63,58,9,24,-39
-24,-78,-53,51,14,-65,43,68,58,9,24,-39
-29,-73,-43,51,7,-58,43,73,58,14,29,-34
-29,-73,-43,51,7,-58,48,73,63,14,29,-34
-19,-73,-53,46,17,-63,43,63,53,4,19,-39
-14,-68,-53,41,19,-61,48,58,53,4,19,-43
-4,-63,-58,34,26,-61,43,58,53,4,19,-48
0,-63,-63,31,31,-63,39,53,53,4,19,-53
-19,-82,-63,51,21,-73,43,63,58,14,24,-43
-34,-82,-48,58,7,-65,39,63,58,14,24,-43
-43,-73,-29,58,-7,-51,39,58,58,14,24,-48
-48,-68,-19,58,-14,-43,43,58,58,4,24,-48
-34,-53,-19,43,-7,-36,53,48,58,4,19,-53
-24,-53,-29,39,2,-41,53,43,58,4,19,-53
-24,-58,-34,41,4,-46,39,34,43,0,9,-53
-14,-58,-43,36,14,-51,39,29,43,0,9,-53
-4,-43,-39,24,17,-41,58,39,43,4,9,-43
4,-39,-43,17,24,-41,43,29,34,-4,19,-39
34,-4,-39,-14,36,-21,34,24,34,9,43,-24
24,19,-4,-21,14,7,39,34,68,43,73,-4
-24,4,29,9,-26,17,29,29,97,92,126,9
-34,19,53,7,-43,36,24,43,156,185,229,48
9,92,82,-51,-36,87,34,87,263,361,390,146
39,136,97,-87,-29,117,4,107,370,541,575,312
48,156,107,-102,-29,131,-48,63,409,605,644,483
97,204,107,-151,-4,156,-107,-24,322,409,492,556
146,287,141,-217,2,214,-161,-136,161,87,253,585
136,331,195,-234,-29,263,-214,-248,-19,-292,53,658
185,346,161,-265,12,253,-287,-405,-326,-800,-156,780
292,366,73,-329,109,219,-370,-566,-688,-1366,-380,951
341,366,24,-353,158,195,-414,-673,-1000,-1859,-575,1151
370,361,-9,-366,190,175,-448,-746,-1293,-2254,-732,1342
458,346,-112,-402,285,117,-492,-854,-1620,-2664,-932,1512
512,336,-175,-424,344,80,-556,-1000,-1961,-3059,-1151,1644
570,419,-151,-495,361,134,-595,-1088,-2215,-3333,-1356,1756
629,522,-107,-575,368,207,-610,-1122,-2366,-3503,-1590,1776
561,590,29,-575,265,309,-629,-1190,-2513,-3620,-1839,1708
419,634,214,-527,102,424,-668,-1293,-2644,-3689,-1976,1615
302,644,341,-473,-19,492,-678,-1400,-2708,-3669,-2049,1400
185,551,366,-368,-90,458,-619,-1420,-2718,-3552,-2069,1049
63,341,278,-202,-107,309,-517,-1346,-2664,-3328,-1981,712
14,39,24,-26,-4,31,-409,-1244,-2532,-3054,-1849,375
-78,-244,-165,161,43,-204,-287,-1102,-2332,-2762,-1810,-126
-209,-448,-239,329,14,-344,-126,-917,-2108,-2479,-1844,-688
-297,-600,-302,448,2,-451,48,-727,-1893,-2220,-1839,-1151
-366,-692,-326,529,-19,-509,200,-570,-1673,-1971,-1766,-1415
-405,-683,-278,544,-63,-480,234,-536,-1483,-1722,-1615,-1449
-385,-624,-239,505,-73,-431,161,-570,-1322,-1468,-1390,-1288
-341,-527,-185,434,-78,-356,165,-488,-1117,-1220,-1127,-1068
-317,-434,-117,375,-100,-275,195,-366,-917,-1005,-927,-917
-283,-375,-92,329,-95,-234,161,-307,-756,-814,-766,-810
-258,-326,-68,292,-95,-197,87,-224,-551,-580,-566,-663
-209,-263,-53,236,-78,-158,43,-117,-341,-375,-380,-522
-126,-219,-92,173,-17,-156,29,-48,-200,-234,-258,-414
-92,-204,-112,148,9,-158,58,19,-92,-112,-151,-322
-87,-204,-117,146,14,-161,87,82,-4,-39,-78,-248
-53,-180,-126,117,36,-153,82,107,24,0,-39,-214
-43,-156,-112,100,34,-134,92,126,63,43,-14,-195
-82,-151,-68,117,-7,-109,112,146,87,73,14,-190
-102,-161,-58,131,-21,-109,112,146,112,97,39,-175
-82,-151,-68,117,-7,-109,117,146,136,141,78,-161
-73,-141,-68,107,-2,-104,117,141,161,170,107,-136
-58,-141,-82,100,12,-112,97,131,161,165,107,-122
-39,-151,-112,95,36,-131,78,122,146,146,87,-141
-48,-151,-102,100,26,-126,58,117,131,131,82,-151
-58,-126,-68,92,4,-97,73,131,141,131,82,-136
-63,-131,-68,97,2,-100,73,122,131,136,73,-141
-63,-131,-68,97,2,-100,63,117,136,141,78,-141
-53,-131,-78,92,12,-104,58,117,156,156,97,-146
-43,-122,-78,82,17,-100,58,117,165,165,102,-141
-43,-112,-68,78,12,-90,53,126,165,185,126,-122
-43,-122,-78,82,17,-100,53,126,175,185,126,-117
-39,-122,-82,80,21,-102,43,126,165,180,122,-131
-39,-122,-82,80,21,-102,43,126,161,180,107,-146
-43,-102,-58,73,7,-80,43,141,165,190,112,-131
-48,-92,-43,70,-2,-68,48,141,175,195,117,-136
-48,-92,-43,70,-2,-68,48,136,180,195,122,-141
-34,-82,-48,58,7,-65,43,136,190,204,136,-126
-39,-73,-34,56,-2,-53,39,146,209,219,151,-102
-48,-73,-24,61,-12,-48,43,146,209,234,156,-102
-53,-73,-19,63,-17,-46,39,146,209,239,156,-107
-53,-73,-19,63,-17,-46,39,146,209,239,161,-107
-43,-68,-24,56,-9,-46,29,136,214,229,156,-117
-43,-68,-24,56,-9,-46,24,141,214,229,151,-117
-34,-63,-29,48,-2,-46,24,146,219,239,151,-112
-14,-43,-29,29,7,-36,24,146,224,244,156,-112
-9,-58,-48,34,19,-53,19,122,214,244,161,-122
-14,-68,-53,41,19,-61,14,117,214,253,161,-122
-19,-78,-58,48,19,-68,9,112,219,253,161,-117
-29,-58,-29,43,0,-43,4,107,219,263,161,-117
-19,-53,-34,36,7,-43,4,107,219,253,146,-122
-4,-58,-53,31,24,-56,0,107,229,253,146,-122
4,-43,-48,19,26,-46,-4,117,234,263,156,-117
14,-34,-48,9,31,-41,-9,117,239,273,161,-112
0,-43,-43,21,21,-43,-4,112,253,283,180,-112
-19,-43,-24,31,2,-34,0,112,263,297,185,-107
-14,-43,-29,29,7,-36,4,112,263,307,190,-107
-19,-39,-19,29,0,-29,19,112,263,312,195,-107
-19,-43,-24,31,2,-34,19,112,268,322,185,-112
-29,-53,-24,41,-2,-39,19,126,283,326,195,-112
-34,-58,-24,46,-4,-41,19,126,292,331,195,-112
-34,-63,-29,48,-2,-46,19,131,297,346,204,-112
-19,-39,-19,29,0,-29,34,151,322,361,219,-107
-14,-34,-19,24,2,-26,34,151,331,370,229,-97
0,-29,-29,14,14,-29,34,151,336,375,244,-87
4,-24,-29,9,17,-26,34,161,341,390,253,-82
-9,-34,-24,21,7,-29,39,165,351,395,248,-87
-9,-34,-24,21,7,-29,29,165,356,405,244,-92
-9,-34,-24,21,7,-29,29,170,370,419,248,-102
-9,-34,-24,21,7,-29,34,175,380,429,253,-107
-14,-39,-24,26,4,-31,39,175,385,439,253,-97
-14,-39,-24,26,4,-31,39,180,395,453,258,-97
-24,-48,-24,36,0,-36,34,185,414,458,258,-97
-14,-48,-34,31,9,-41,34,185,424,468,258,-97
-4,-48,-43,26,19,-46,43,209,444,492,263,-87
-4,-48,-43,26,19,-46,48,224,453,507,278,-82
-14,-48,-34,31,9,-41,58,224,468,517,283,-82
-29,-58,-29,43,0,-43,68,239,483,531,287,-82
-24,-53,-29,39,2,-41,82,258,502,551,307,-73
-19,-58,-39,39,9,-48,82,258,517,566,322,-68
-24,-58,-34,41,4,-46,78,268,531,580,331,-63
-34,-63,-29,48,-2,-46,78,273,546,605,336,-58
-19,-63,-43,41,12,-53,82,287,561,610,336,-63
-9,-63,-53,36,21,-58,87,292,575,624,331,-63
4,-63,-68,29,36,-65,87,302,590,634,331,-68
9,-63,-73,26,41,-68,87,317,610,649,331,-73
-19,-73,-53,46,17,-63,97,331,624,663,336,-63
-14,-68,-53,41,19,-61,102,341,644,678,351,-58
-24,-68,-43,46,9,-56,107,361,668,702,361,-43
-34,-58,-24,46,-4,-41,107,370,688,722,370,-43
-29,-48,-19,39,-4,-34,107,390,707,722,380,-34
-29,-53,-24,41,-2,-39,112,400,712,736,380,-34
-24,-53,-29,39,2,-41,122,409,727,751,385,-29
-29,-48,-19,39,-4,-34,136,424,746,766,385,-29
-39,-48,-9,43,-14,-29,146,439,775,780,390,-19
-34,-48,-14,41,-9,-31,146,444,790,790,400,-14
-34,-48,-14,41,-9,-31,141,453,795,800,405,-14
-24,-48,-24,36,0,-36,136,463,800,805,405,-9
-9,-43,-34,26,12,-39,122,453,800,814,400,0
0,-34,-34,17,17,-34,122,453,810,814,400,0
9,-29,-39,9,24,-34,131,468,814,814,400,0
14,-29,-43,7,29,-36,117,468,810,810,405,0
-9,-43,-34,26,12,-39,107,463,814,814,405,9
-19,-48,-29,34,4,-39,97,463,819,824,405,19
-14,-48,-34,31,9,-41,92,463,834,824,405,24
-24,-48,-24,36,0,-36,82,463,834,819,405,24
-9,-39,-29,24,9,-34,92,473,819,819,419,34
0,-24,-24,12,12,-24,102,473,819,829,419,43
14,-14,-29,0,21,-21,102,478,819,819,424,58
24,-4,-29,-9,26,-17,107,478,819,819,424,68
9,-9,-19,0,14,-14,107,473,805,800,419,73
4,0,-4,-2,4,-2,97,463,800,790,409,82
4,9,4,-7,0,7,87,444,780,771,419,87
0,9,9,-4,-4,9,82,434,766,751,419,92
68,58,-9,-63,39,24,107,444,732,722,409,112
39,39,0,-39,19,19,107,429,702,683,400,107
29,43,14,-36,7,29,102,419,678,658,385,117
29,48,19,-39,4,34,97,409,663,644,380,117
29,53,24,-41,2,39,92,400,649,629,375,117
29,58,29,-43,0,43,87,390,634,614,370,117
29,58,29,-43,0,43,78,370,595,575,351,126
29,48,19,-39,4,34,63,346,561,546,331,126
43,48,4,-46,19,26,48,322,527,512,317,112
34,48,14,-41,9,31,43,302,492,478,292,102
9,39,29,-24,-9,34,34,278,448,444,273,78
4,34,29,-19,-12,31,39,263,419,414,258,87
4,29,24,-17,-9,26,39,248,395,380,244,87
19,34,14,-26,2,24,39,244,366,346,229,82
29,34,4,-31,12,19,48,229,336,317,204,73
-4,29,34,-12,-19,31,53,209,312,292,190,63
-4,9,14,-2,-9,12,58,190,283,268,180,53
-9,4,14,2,-12,9,58,170,263,244,165,43
-4,4,9,0,-7,7,43,151,219,214,136,24
14,9,-4,-12,9,2,43,131,195,185,122,9
29,34,4,-31,12,19,43,112,170,156,112,4
19,24,4,-21,7,14,39,87,146,131,97,4
-14,4,19,4,-17,12,48,58,131,112,87,0
-29,-4,24,17,-26,9,39,53,117,92,78,-9
-19,-14,4,17,-12,-4,39,53,102,92,68,-29
-34,-29,4,31,-19,-12,43,43,78,82,58,-39
-24,-19,4,21,-14,-7,39,24,58,58,43,-43
-24,-14,9,19,-17,-2,34,24,48,39,34,-58
-14,-14,0,14,-7,-7,29,14,39,24,29,-63
-4,-19,-14,12,4,-17,24,14,24,9,19,-68
-4,-24,-19,14,7,-21,34,9,9,19,19,-63
-9,-29,-19,19,4,-24,34,9,4,4,9,-63
-14,-39,-24,26,4,-31,34,4,4,-9,-4,-73
-24,-43,-19,34,-2,-31,34,4,4,-9,-14,-78
-29,-43,-14,36,-7,-29,43,9,-4,-14,0,-78
-29,-39,-9,34,-9,-24,39,4,-9,-14,4,-78
-34,-29,4,31,-19,-12,39,9,-9,-9,4,-73
-39,-24,14,31,-26,-4,39,14,-9,-9,4,-73
-53,-34,19,43,-36,-7,48,19,0,-14,-4,-78
-53,-39,14,46,-34,-12,39,19,-4,-14,-4,-78
-43,-39,4,41,-24,-17,34,14,-4,-14,-14,-87
-43,-43,0,43,-21,-21,34,14,0,-14,-4,-87
-34,-43,-9,39,-12,-26,43,4,-4,-24,-14,-87
-29,-39,-9,34,-9,-24,48,4,-19,-24,-19,-87
-19,-34,-14,26,-2,-24,34,4,-24,-29,-24,-92
-9,-34,-24,21,7,-29,29,4,-24,-29,-24,-92
-14,-24,-9,19,-2,-17,29,9,-19,-19,-19,-82
-9,-19,-9,14,0,-14,29,14,-14,-14,-14,-87
-9,-19,-9,14,0,-14,29,24,-9,-9,-9,-87
-14,-24,-9,19,-2,-17,29,29,-4,-4,-4,-82
-34,-29,4,31,-19,-12,39,39,9,4,4,-73
-48,-34,14,41,-31,-9,43,48,9,4,9,-73
-58,-39,19,48,-39,-9,43,48,4,4,4,-82
-68,-43,24,56,-46,-9,39,43,4,0,4,-82
-34,-34,0,34,-17,-17,24,43,14,4,4,-73
-4,-24,-19,14,7,-21,19,43,14,9,4,-73
19,-4,-24,-7,21,-14,14,43,14,14,4,-73
39,-4,-43,-17,41,-24,9,43,14,14,4,-82
34,-9,-43,-12,39,-26,0,34,19,24,14,-73
19,-14,-34,-2,26,-24,-4,34,19,24,14,-73
9,-19,-29,4,19,-24,-9,39,24,29,14,-68
4,-24,-29,9,17,-26,-19,39,24,29,14,-68
29,-24,-53,-2,41,-39,-19,39,24,29,24,-58
39,-24,-63,-7,51,-43,-24,39,24,24,24,-58
48,-29,-78,-9,63,-53,-29,39,24,24,19,-63
58,-29,-87,-14,73,-58,-34,43,24,24,19,-63
34,-29,-63,-2,48,-46,-19,48,39,43,39,-58
9,-34,-43,12,26,-39,-14,53,43,48,43,-53
-14,-43,-29,29,7,-36,-4,58,48,53,43,-48
-39,-48,-9,43,-14,-29,0,63,53,53,48,-43
-24,-48,-24,36,0,-36,0,58,39,48,43,-58
-14,-48,-34,31,9,-41,4,58,39,48,43,-58
-9,-48,-39,29,14,-43,4,58,39,53,48,-53
0,-53,-53,26,26,-53,9,53,43,53,48,-53
-9,-63,-53,36,21,-58,-4,48,53,53,58,-39
-14,-58,-43,36,14,-51,0,48,53,53,58,-34
-14,-53,-39,34,12,-46,-4,53,53,53,58,-29
-19,-53,-34,36,7,-43,-9,53,53,53,58,-24
-24,-63,-39,43,7,-51,-4,53,53,53,53,-24
-24,-63,-39,43,7,-51,-9,53,48,53,53,-24
-19,-53,-34,36,7,-43,-9,48,43,53,53,-29
-9,-48,-39,29,14,-43,-4,48,39,43,53,-29
9,-39,-48,14,29,-43,14,53,48,43,58,-14
14,-34,-48,9,31,-41,14,53,48,43,58,-14
9,-34,-43,12,26,-39,0,48,34,39,48,-14
14,-29,-43,7,29,-36,0,48,34,39,48,-14
43,-34,-78,-4,61,-56,9,48,34,34,48,-14
-14,-39,-24,26,4,-31,24,58,53,43,78,9
4,-34,-39,14,21,-36,24,34,43,48,92,24
14,-9,-24,-2,19,-17,19,24,48,73,122,43
-14,4,19,4,-17,12,19,29,68,122,175,68
-14,39,53,-12,-34,46,24,43,107,195,258,107
9,82,73,-46,-31,78,24,68,195,322,400,195
58,136,78,-97,-9,107,14,87,292,531,614,341
87,156,68,-122,9,112,-48,63,370,683,800,541
117,195,78,-156,19,136,-107,-14,341,624,805,702
156,287,131,-222,12,209,-131,-107,219,341,614,771
175,361,185,-268,-4,273,-175,-219,58,-9,414,834
214,414,200,-314,7,307,-239,-356,-209,-478,224,956
283,444,161,-363,61,302,-312,-507,-570,-1083,-9,1137
302,424,122,-363,90,273,-375,-644,-912,-1644,-263,1327
302,390,87,-346,107,239,-419,-727,-1215,-2098,-468,1507
361,385,24,-373,168,204,-453,-805,-1522,-2508,-649,1678
414,375,-39,-395,226,168,-507,-922,-1854,-2903,-858,1859
453,409,-43,-431,248,183,-546,-1039,-2137,-3235,-1063,1991
492,512,19,-502,236,265,-551,-1063,-2278,-3406,-1268,2049
473,649,175,-561,148,412,-531,-1083,-2386,-3484,-1449,2039
468,741,273,-605,97,507,-570,-1195,-2547,-3562,-1595,1956
458,761,302,-610,78,531,-600,-1322,-2669,-3611,-1737,1703
302,639,336,-470,-17,488,-551,-1361,-2708,-3542,-1864,1283
73,409,336,-241,-131,373,-448,-1298,-2693,-3367,-1854,897
-73,107,180,-17,-126,143,-302,-1156,-2562,-3093,-1761,531
-175,-195,-19,185,-78,-107,-141,-985,-2342,-2810,-1761,19
-248,-419,-170,334,-39,-295,-9,-829,-2147,-2557,-1864,-629
-268,-551,-283,409,7,-417,136,-658,-1942,-2298,-1888,-1180
-287,-634,-346,461,29,-490,287,-483,-1703,-2010,-1815,-1473
-326,-663,-336,495,4,-500,292,-468,-1512,-1742,-1654,-1488
-346,-595,-248,470,-48,-422,219,-522,-1342,-1468,-1400,-1298
-351,-497,-146,424,-102,-322,214,-468,-1156,-1220,-1146,-1088
-356,-424,-68,390,-143,-246,234,-356,-966,-1024,-976,-956
-312,-346,-34,329,-139,-190,200,-278,-756,-795,-766,-810
-239,-239,0,239,-119,-119,117,-175,-522,-541,-527,-634
-200,-175,24,187,-112,-75,63,-78,-322,-326,-331,-483
-156,-151,4,153,-80,-73,48,-19,-180,-185,-209,-375
-63,-126,-63,95,0,-95,48,29,-102,-82,-122,-302
-39,-107,-68,73,14,-87,68,92,-14,9,-39,-219
-34,-92,-58,63,12,-75,63,117,43,68,0,-185
-24,-87,-63,56,19,-75,43,126,53,73,4,-175
-53,-73,-19,63,-17,-46,53,136,78,92,34,-161
-63,-73,-9,68,-26,-41,53,136,102,126,78,-136
-34,-92,-58,63,12,-75,19,117,107,131,107,-131
-4,-82,-78,43,36,-80,0,102,112,151,126,-126
19,-63,-82,21,51,-73,0,102,122,175,136,-112
-19,-82,-63,51,21,-73,0,92,107,165,126,-102
-58,-112,-53,85,-2,-82,0,87,102,161,102,-112
-9,-78,-68,43,29,-73,-4,82,102,151,92,-117
-19,-87,-68,53,24,-78,4,92,102,156,97,-126
-34,-92,-58,63,12,-75,-4,87,107,161,107,-122
-39,-97,-58,68,9,-78,-9,87,126,175,131,-122
-43,-92,-48,68,2,-70,-9,87,136,185,141,-112
-34,-73,-39,53,2,-56,-4,82,136,204,156,-87
-24,-82,-58,53,17,-70,-4,78,146,204,156,-78
-9,-82,-73,46,31,-78,-14,73,136,200,151,-87
0,-82,-82,41,41,-82,-14,68,131,200,136,-97
-19,-87,-68,53,24,-78,-19,68,126,185,136,-97
-29,-92,-63,61,17,-78,-19,63,126,185,136,-107
-34,-107,-73,70,19,-90,-24,53,122,180,136,-117
-24,-112,-87,68,31,-100,-34,48,122,185,146,-107
-29,-102,-73,65,21,-87,-43,39,122,195,156,-92
-39,-102,-63,70,12,-82,-34,39,122,204,156,-92
-43,-102,-58,73,7,-80,-34,39,122,204,151,-97
-43,-102,-58,73,7,-80,-29,39,122,200,151,-97
-39,-97,-58,68,9,-78,-24,39,117,190,141,-97
-43,-97,-53,70,4,-75,-24,43,117,190,141,-97
-39,-92,-53,65,7,-73,-19,48,122,200,146,-92
-24,-73,-48,48,12,-61,-14,48,126,204,156,-92
-29,-87,-58,58,14,-73,0,53,141,219,165,-92
-34,-97,-63,65,14,-80,4,58,146,234,170,-92
-39,-107,-68,73,14,-87,9,63,156,239,175,-87
-48,-87,-39,68,-4,-63,14,68,161,253,180,-87
-39,-73,-34,56,-2,-53,24,73,165,253,185,-92
-34,-78,-43,56,4,-61,29,78,180,253,185,-92
-34,-63,-29,48,-2,-46,34,92,190,263,195,-87
-34,-53,-19,43,-7,-36,39,97,200,273,200,-82
-39,-63,-24,51,-7,-43,43,107,209,283,224,-73
-48,-63,-14,56,-17,-39,48,112,224,297,224,-68
-34,-63,-29,48,-2,-46,53,117,229,307,224,-68
-29,-58,-29,43,0,-43,68,122,234,312,224,-68
-29,-58,-29,43,0,-43,63,122,239,331,224,-73
-39,-63,-24,51,-7,-43,68,136,253,336,234,-73
-43,-63,-19,53,-12,-41,73,136,263,341,234,-73
-43,-63,-19,53,-12,-41,78,141,268,356,244,-73
-39,-48,-9,43,-14,-29,87,156,287,380,258,-63
-34,-43,-9,39,-12,-26,92,161,302,390,268,-58
-19,-39,-19,29,0,-29,97,165,312,395,283,-53
-14,-34,-19,24,2,-26,102,180,322,409,292,-53
-9,-24,-14,17,2,-19,112,185,322,405,278,-48
-9,-24,-14,17,2,-19,107,185,326,414,273,-53
-9,-24,-14,17,2,-19,112,190,341,429,278,-63
-9,-24,-14,17,2,-19,122,195,351,439,283,-68
-24,-24,0,24,-12,-12,136,204,370,468,297,-48
-34,-29,4,31,-19,-12,146,219,385,483,307,-48
-53,-43,9,48,-31,-17,151,234,409,488,312,-48
-53,-48,4,51,-29,-21,161,244,424,497,317,-48
-39,-29,9,34,-24,-9,156,244,424,512,322,-39
-34,-29,4,31,-19,-12,156,253,434,527,336,-34
-39,-29,9,34,-24,-9,161,248,448,536,341,-34
-48,-39,9,43,-29,-14,165,258,463,551,346,-34
-53,-39,14,46,-34,-12,161,263,483,561,351,-39
-48,-39,9,43,-29,-14,151,258,497,575,361,-39
-53,-34,19,43,-36,-7,136,263,512,590,366,-39
-63,-34,29,48,-46,-2,126,263,527,614,366,-39
-63,-29,34,46,-48,2,131,287,541,629,370,-29
-58,-24,34,41,-46,4,136,292,556,644,370,-24
-48,-19,29,34,-39,4,136,302,570,653,375,-24
-48,-14,34,31,-41,9,136,317,590,668,380,-24
-39,-9,29,24,-34,9,131,322,595,678,390,-24
-14,0,14,7,-14,7,131,331,614,688,400,-19
-4,4,9,0,-7,7,131,351,639,707,405,-4
4,19,14,-12,-4,17,126,361,658,722,409,-4
0,19,19,-9,-9,19,117,356,668,722,409,4
-9,14,24,-2,-17,19,112,361,673,736,409,4
-14,14,29,0,-21,21,112,366,688,751,414,9
-29,19,48,4,-39,34,117,375,707,766,414,9
-39,14,53,12,-46,34,107,366,712,766,409,14
-43,9,53,17,-48,31,107,366,722,771,419,14
-53,4,58,24,-56,31,102,370,722,775,424,9
-53,0,53,26,-53,26,97,375,722,775,424,9
-48,0,48,24,-48,24,92,366,722,775,409,0
-39,4,43,17,-41,24,92,366,732,775,409,0
-29,4,34,12,-31,19,102,380,736,775,409,0
-24,0,24,12,-24,12,87,380,732,771,414,0
-24,9,34,7,-29,21,68,370,732,771,414,0
-19,9,29,4,-24,19,58,366,732,775,414,9
0,14,14,-7,-7,14,53,361,741,771,414,14
4,19,14,-12,-4,17,43,356,736,761,414,14
-14,4,19,4,-17,12,29,341,722,756,409,24
-19,4,24,7,-21,14,34,336,712,761,409,34
-19,0,19,9,-19,9,29,336,702,746,414,48
-24,-4,19,14,-21,7,29,331,692,741,414,58
-14,0,14,7,-14,7,19,326,673,727,409,58
-14,9,24,2,-19,17,9,317,663,712,400,73
-9,19,29,-4,-19,24,0,297,639,688,409,82
-9,19,29,-4,-19,24,-4,287,619,663,409,92
0,29,29,-14,-14,29,0,268,600,629,385,82
9,29,19,-19,-4,24,-9,253,570,595,366,92
9,39,29,-24,-9,34,-9,244,536,566,351,92
19,39,19,-29,0,29,-9,234,497,536,336,92
0,34,34,-17,-17,34,-9,224,483,492,326,97
-14,34,48,-9,-31,41,-9,209,453,468,312,102
-24,29,53,-2,-39,41,0,185,409,434,292,97
-34,19,53,7,-43,36,9,170,385,395,283,102
-29,14,43,7,-36,29,19,170,356,366,253,92
-14,9,24,2,-19,17,14,151,322,331,224,87
-9,4,14,2,-12,9,4,126,278,297,204,78
-19,0,19,9,-19,9,4,117,244,278,190,63
-9,14,24,-2,-17,19,19,112,234,258,190,48
-9,9,19,0,-14,14,24,92,204,224,170,39
-9,14,24,-2,-17,19,24,92,165,190,151,34
-9,19,29,-4,-19,24,29,82,146,161,141,29
-9,0,9,4,-9,4,24,78,136,141,126,19
-29,-9,19,19,-24,4,29,58,122,131,102,14
-29,0,29,14,-29,14,34,48,112,122,97,9
-24,0,24,12,-24,12,39,53,97,117,92,4
-14,-4,9,9,-12,2,48,53,78,102,73,-4
-14,-14,0,14,-7,-7,48,39,63,78,63,-4
-14,-34,-19,24,2,-26,48,29,43,63,48,-14
-14,-39,-24,26,4,-31,48,24,29,39,43,-14
-24,-29,-4,26,-9,-17,58,39,29,43,39,-24
-29,-24,4,26,-17,-9,58,34,24,29,34,-39
-29,-14,14,21,-21,0,58,19,19,34,29,-39
-14,-9,4,12,-9,-2,58,19,4,39,34,-48
-19,0,19,9,-19,9,48,19,4,34,34,-43
-29,0,29,14,-29,14,58,24,9,34,34,-48
-24,-4,19,14,-21,7,58,24,4,29,29,-48
-19,-4,14,12,-17,4,53,19,0,9,14,-53
-39,-14,24,26,-31,4,63,24,4,14,14,-53
-39,-14,24,26,-31,4,73,29,4,19,19,-48
-29,-14,14,21,-21,0,78,29,4,24,19,-48
-29,-14,14,21,-21,0,78,24,4,24,19,-43
-4,4,9,0,-7,7,82,29,0,34,19,-39
4,14,9,-9,-2,12,82,53,4,39,24,-43
4,24,19,-14,-7,21,92,58,9,43,34,-43
9,34,24,-21,-7,29,92,68,14,48,39,-43
-4,19,24,-7,-14,21,73,58,4,48,39,-58
-19,9,29,4,-24,19,73,43,-4,39,29,-63
-24,0,24,12,-24,12,73,34,-14,34,9,-68
-39,-4,34,21,-36,14,73,24,-4,34,9,-68
-43,-9,34,26,-39,12,73,29,9,39,29,-58
-63,-34,29,48,-46,-2,82,29,14,48,29,-58
-68,-43,24,56,-46,-9,82,29,14,53,34,-58
-63,-48,14,56,-39,-17,82,43,9,58,34,-63
-39,-24,14,31,-26,-4,87,53,14,68,43,-63
-24,-9,14,17,-19,2,73,48,14,68,43,-63
-24,4,29,9,-26,17,82,43,14,68,43,-58
-9,14,24,-2,-17,19,82,43,19,73,43,-53
-19,14,34,2,-26,24,82,43,29,82,48,-48
-34,9,43,12,-39,26,87,43,34,87,58,-39
-48,4,53,21,-51,29,97,53,43,97,63,-34
-63,0,63,31,-63,31,107,63,53,107,68,-29
-43,-4,39,24,-41,17,97,48,53,97,68,-29
-39,-4,34,21,-36,14,82,39,43,92,68,-29
-34,-14,19,24,-26,2,68,29,39,82,68,-24
-19,-14,4,17,-12,-4,53,19,29,82,73,-19
-24,-19,4,21,-14,-7,34,9,14,68,63,-19
-29,-19,9,24,-19,-4,14,-4,14,73,63,-19
-34,-19,14,26,-24,-2,-4,-19,9,73,58,-19
-39,-19,19,29,-29,0,-29,-34,9,73,53,-24
-48,-29,19,39,-34,-4,-34,-43,-4,58,58,-29
-53,-34,19,43,-36,-7,-39,-53,-14,53,58,-24
-48,-39,9,43,-29,-14,-53,-68,-24,43,53,-24
-43,-43,0,43,-21,-21,-58,-87,-29,39,48,-24
-34,-34,0,34,-17,-17,-58,-87,-19,39,39,-34
-34,-34,0,34,-17,-17,-53,-82,-14,48,53,-24
-34,-34,0,34,-17,-17,-48,-78,-14,53,53,-19
-39,-29,9,34,-24,-9,-39,-73,-4,53,48,-19
-43,-29,14,36,-29,-7,-29,-73,-19,48,48,-14
-58,-29,29,43,-43,0,-34,-73,-24,43,48,-9
-43,-24,19,34,-31,-2,-43,-73,-34,39,53,-4
-19,4,24,7,-21,14,-43,-68,-43,39,63,4
-29,4,34,12,-31,19,-43,-68,-39,34,53,0
-39,0,39,19,-39,19,-43,-78,-43,34,53,-4
-43,-14,29,29,-36,7,-43,-78,-39,29,53,-4
-48,-19,29,34,-39,4,-39,-78,-29,29,53,-4
-68,-24,43,46,-56,9,-29,-82,-39,29,43,-9
-63,-24,39,43,-51,7,-39,-82,-48,24,39,-14
-53,-24,29,39,-41,2,-43,-78,-48,19,34,-19
-43,-24,19,34,-31,-2,-48,-68,-48,14,29,-24
-4,19,24,-7,-14,21,-24,-53,-48,29,43,-14
-9,14,24,-2,-17,19,-24,-63,-43,24,43,-14
-43,-39,4,41,-24,-17,-34,-82,-68,-4,14,-34
-63,-48,14,56,-39,-17,-24,-78,-68,4,14,-34
-39,-9,29,24,-34,9,0,-68,-48,29,39,-19
-48,-9,39,29,-43,14,-9,-68,-63,14,24,-34
-48,-9,39,29,-43,14,-9,-68,-68,9,19,-39
-48,-9,39,29,-43,14,-9,-68,-73,4,14,-43
-48,-9,39,29,-43,14,-9,-68,-78,0,9,-48
-39,-4,34,21,-36,14,0,-58,-68,0,14,-39
-39,-9,29,24,-34,9,-4,-63,-73,0,9,-39
-24,-4,19,14,-21,7,-9,-68,-78,-4,9,-53
-34,0,34,17,-34,17,-4,-68,-82,-9,0,-63
-63,-4,58,34,-61,26,9,-53,-82,-4,0,-68
-73,-4,68,39,-70,31,19,-48,-78,4,4,-48
-78,-4,73,41,-75,34,24,-43,-68,9,9,-39
-68,4,73,31,-70,39,29,-29,-63,14,14,-34
-43,-4,39,24,-41,17,39,-34,-68,-4,0,-43
-73,-9,63,41,-68,26,43,-34,-68,-9,-4,-53
-68,-29,39,48,-53,4,48,-34,-73,-14,-4,-63
-68,-34,34,51,-51,0,48,-34,-68,-19,-9,-73
-58,-24,34,41,-46,4,63,-19,-73,-14,-4,-68
-43,-9,34,26,-39,12,73,-14,-68,-9,-4,-68
-34,24,58,4,-46,41,82,-9,-63,-4,0,-58
-48,24,73,12,-61,48,87,-9,-58,4,0,-43
-73,9,82,31,-78,46,97,-19,-68,4,-9,-53
-78,4,82,36,-80,43,87,-14,-68,-4,-9,-58
-58,0,58,29,-58,29,87,-4,-68,4,-9,-73
-63,-9,53,36,-58,21,92,-4,-78,4,-9,-78
-63,-9,53,36,-58,21,97,0,-82,4,-14,-68
-63,-4,58,34,-61,26,102,4,-78,0,-14,-78
-53,-4,48,29,-51,21,107,0,-73,0,-9,-78
-43,-9,34,26,-39,12,112,4,-73,0,-9,-78
-29,0,29,14,-29,14,107,14,-68,14,-4,-63
-19,9,29,4,-24,19,102,19,-73,4,-9,-63
-9,14,24,-2,-17,19,97,19,-73,-4,-19,-73
-4,24,29,-9,-17,26,92,24,-73,0,-24,-78
-24,4,29,9,-26,17,87,24,-73,0,-14,-87
-29,-9,19,19,-24,4,78,14,-78,-4,-14,-87
-39,-19,19,29,-29,0,73,14,-78,-4,-19,-82
-48,-34,14,41,-31,-9,68,14,-78,-9,-24,-82
-43,-24,19,34,-31,-2,68,19,-78,-4,-14,-78
-43,-19,24,31,-34,2,58,19,-82,-4,-14,-78
-34,-9,24,21,-29,7,53,14,-82,-4,-24,-87
-34,-4,29,19,-31,12,53,14,-78,-4,-14,-87
-34,-19,14,26,-24,-2,58,4,-68,-14,-14,-78
-39,-19,19,29,-29,0,68,4,-78,-14,-19,-78
-39,-19,19,29,-29,0,58,4,-78,-19,-24,-82
-39,-24,14,31,-26,-4,58,4,-73,-19,-24,-82
-24,-19,4,21,-14,-7,43,-9,-78,-14,-14,-82
-19,-9,9,14,-14,0,39,-14,-82,-14,-14,-87
-19,-4,14,12,-17,4,34,-14,-87,-14,-14,-87
-24,-4,19,14,-21,7,29,-19,-92,-14,-14,-82
-39,-14,24,26,-31,4,24,-39,-97,-24,-14,-92
-39,-14,24,26,-31,4,14,-39,-97,-24,-19,-92
-34,-14,19,24,-26,2,0,-48,-102,-24,-34,-102
-29,-14,14,21,-21,0,-19,-63,-102,-29,-43,-102
-48,-29,19,39,-34,-4,-34,-78,-122,-43,-48,-117
-53,-34,19,43,-36,-7,-48,-92,-131,-48,-53,-122
-63,-29,34,46,-48,2,-63,-107,-141,-53,-58,-126
-78,-43,34,61,-56,-4,-78,-122,-151,-63,-63,-141
-68,-24,43,46,-56,9,-68,-112,-151,-48,-58,-131
-68,-14,53,41,-61,19,-63,-112,-146,-43,-53,-122
-63,-4,58,34,-61,26,-58,-107,-136,-34,-48,-107
-53,4,58,24,-56,31,-58,-107,-131,-29,-43,-97
-39,4,43,17,-41,24,-58,-112,-136,-34,-53,-102
-39,4,43,17,-41,24,-63,-117,-141,-43,-53,-107
-39,0,39,19,-39,19,-68,-122,-146,-48,-58,-117
-39,0,39,19,-39,19,-73,-122,-151,-53,-58,-122
-48,0,48,24,-48,24,-68,-112,-136,-39,-48,-117
-48,-4,43,26,-46,19,-63,-112,-131,-39,-43,-112
-48,-14,34,31,-41,9,-53,-112,-126,-39,-43,-107
-48,-19,29,34,-39,4,-48,-112,-122,-43,-39,-102
-53,-19,34,36,-43,7,-58,-117,-131,-48,-43,-117
-53,-19,34,36,-43,7,-53,-117,-136,-48,-43,-117
-58,-19,39,39,-48,9,-53,-117,-141,-43,-39,-112
-58,-24,34,41,-46,4,-48,-122,-141,-43,-39,-112
-68,-19,48,43,-58,14,-34,-112,-126,-39,-29,-107
-73,-9,63,41,-68,26,-19,-107,-122,-34,-29,-102
-73,0,73,36,-73,36,-14,-97,-117,-29,-29,-97
-78,4,82,36,-80,43,-9,-92,-112,-24,-29,-92
-63,4,68,29,-65,36,-9,-102,-112,-34,-43,-97
-53,4,58,24,-56,31,-19,-102,-117,-34,-43,-102
-39,14,53,12,-46,34,-24,-107,-122,-34,-43,-112
-19,19,39,0,-29,29,-24,-107,-126,-43,-43,-117
-24,14,39,4,-31,26,-4,-92,-126,-34,-39,-112
-34,4,39,14,-36,21,-4,-92,-126,-34,-39,-112
-53,-9,43,31,-48,17,-19,-97,-141,-39,-48,-112
-63,-19,43,41,-53,12,-19,-97,-141,-39,-48,-112
-73,-24,48,48,-61,12,9,-87,-131,-43,-39,-102
-73,-19,53,46,-63,17,-4,-97,-141,-43,-39,-107
-102,-14,87,58,-95,36,-14,-112,-141,-39,-24,-102
-131,0,131,65,-131,65,0,-92,-126,-14,-4,-92
-102,34,136,34,-119,85,9,-78,-87,43,58,-58
-43,107,151,-31,-97,129,24,-34,-19,156,180,0
-48,131,180,-41,-114,156,14,-19,68,273,331,97
-29,146,175,-58,-102,161,-24,-39,117,395,497,263
48,204,156,-126,-53,180,-78,-63,146,497,634,483
68,283,214,-175,-73,248,-117,-131,136,478,600,624
87,346,258,-217,-85,302,-161,-214,43,292,419,663
165,409,244,-287,-39,326,-214,-297,-78,39,239,736
224,424,200,-324,12,312,-268,-395,-278,-331,58,858
263,414,151,-339,56,283,-351,-546,-570,-819,-185,1029
361,434,73,-397,143,253,-434,-663,-854,-1273,-361,1229
429,409,-19,-419,224,195,-458,-727,-1068,-1649,-527,1410
439,317,-122,-378,280,97,-502,-805,-1337,-2020,-736,1542
483,326,-156,-405,319,85,-546,-922,-1610,-2366,-966,1673
502,429,-73,-466,287,178,-585,-1039,-1844,-2679,-1210,1747
502,522,19,-512,241,270,-619,-1132,-2025,-2908,-1493,1688
522,629,107,-575,207,368,-639,-1200,-2171,-3045,-1761,1610
517,741,224,-629,146,483,-658,-1244,-2283,-3103,-1888,1498
409,732,322,-570,43,527,-610,-1234,-2288,-3074,-1932,1224
263,580,317,-422,-26,448,-502,-1195,-2200,-2937,-1903,873
112,273,161,-192,-24,217,-370,-1141,-2166,-2762,-1786,585
-53,-107,-53,80,0,-80,-234,-1019,-2113,-2576,-1683,219
-204,-351,-146,278,-29,-248,-102,-907,-1991,-2381,-1712,-341
-307,-429,-122,368,-92,-275,-9,-849,-1864,-2205,-1805,-922
-385,-502,-117,444,-134,-309,87,-736,-1727,-2025,-1820,-1298
-483,-556,-73,519,-204,-314,209,-580,-1556,-1805,-1727,-1473
-492,-517,-24,505,-234,-270,312,-488,-1395,-1595,-1576,-1478
-444,-458,-14,451,-214,-236,317,-492,-1263,-1390,-1390,-1356
-400,-390,9,395,-204,-190,273,-517,-1137,-1190,-1166,-1146
-385,-307,78,346,-231,-114,253,-473,-995,-985,-966,-995
-390,-307,82,348,-236,-112,239,-395,-873,-854,-844,-927
-346,-307,39,326,-192,-134,195,-351,-775,-736,-722,-839
-268,-234,34,251,-151,-100,151,-253,-605,-541,-546,-668
-234,-170,63,202,-148,-53,87,-146,-414,-341,-356,-502
-219,-165,53,192,-136,-56,19,-87,-287,-200,-239,-409
-156,-136,19,146,-87,-58,9,-43,-200,-107,-175,-346
-102,-92,9,97,-56,-41,34,-9,-122,-48,-117,-302
-92,-68,24,80,-58,-21,43,19,-73,14,-53,-273
-92,-43,48,68,-70,2,43,48,-19,63,4,-229
-92,-34,58,63,-75,12,34,58,-4,87,29,-204
-82,-34,48,58,-65,7,0,39,0,92,48,-190
-73,-14,58,43,-65,21,-9,34,24,122,68,-156
-48,4,53,21,-51,29,-29,14,24,136,87,-131
-19,4,24,7,-21,14,-58,-14,9,126,78,-141
-68,-4,63,36,-65,29,-58,-29,14,122,82,-151
-117,-29,87,73,-102,29,-43,-24,14,122,73,-156
-112,-39,73,75,-92,17,-43,-34,9,122,68,-165
-112,-43,68,78,-90,12,-53,-39,9,122,68,-161
-102,-48,53,75,-78,2,-58,-39,24,131,82,-161
-92,-43,48,68,-70,2,-58,-39,29,136,82,-151
-87,-14,73,51,-80,29,-53,-48,29,165,117,-126
-82,-14,68,48,-75,26,-53,-48,39,165,117,-117
-73,-4,68,39,-70,31,-63,-48,29,161,112,-126
-68,4,73,31,-70,39,-63,-48,24,161,97,-136
-58,14,73,21,-65,43,-53,-34,24,151,97,-141
-58,14,73,21,-65,43,-39,-34,29,156,97,-156
-53,4,58,24,-56,31,-29,-39,29,156,97,-170
-34,4,39,14,-36,21,-24,-39,34,165,107,-165
-58,-9,48,34,-53,19,-34,-39,43,156,107,-136
-78,-24,53,51,-65,14,-24,-39,43,165,107,-131
-92,-39,53,65,-73,7,-24,-39,43,165,102,-131
-102,-53,48,78,-75,-2,-19,-39,43,161,102,-126
-82,-48,34,65,-58,-7,-9,-43,43,161,102,-136
-82,-48,34,65,-58,-7,-14,-43,39,161,102,-146
-73,-43,29,58,-51,-7,-14,-43,39,170,107,-151
-53,-24,29,39,-41,2,-14,-48,39,175,117,-161
-68,-39,29,53,-48,-4,-14,-53,48,175,112,-151
-82,-48,34,65,-58,-7,-14,-48,48,185,112,-151
-97,-58,39,78,-68,-9,-14,-43,53,185,112,-146
-117,-39,78,78,-97,19,-14,-39,53,195,112,-146
-97,-48,48,73,-73,0,-4,-34,53,204,117,-151
-82,-58,24,70,-53,-17,0,-29,63,204,117,-151
-73,-48,24,61,-48,-12,4,-14,68,214,126,-146
-63,-43,19,53,-41,-12,9,-9,73,224,131,-141
-78,-34,43,56,-61,4,9,-14,87,219,146,-131
-87,-34,53,61,-70,9,9,-14,97,229,146,-126
-73,-34,39,53,-56,2,9,-14,97,234,146,-126
-68,-29,39,48,-53,4,19,-14,97,234,146,-126
-68,-24,43,46,-56,9,24,-14,97,234,136,-146
-78,-24,53,51,-65,14,29,0,107,239,146,-151
-82,-19,63,51,-73,21,34,0,112,244,146,-156
-82,-14,68,48,-75,26,39,4,112,258,156,-161
-97,-14,82,56,-90,34,58,29,136,278,156,-156
-102,-14,87,58,-95,36,63,34,146,283,161,-146
-97,-14,82,56,-90,34,68,39,151,283,170,-136
-102,-14,87,58,-95,36,73,53,156,292,175,-131
-92,-14,78,53,-85,31,82,58,156,297,175,-131
-78,-14,63,46,-70,24,78,58,161,307,175,-131
-63,-14,48,39,-56,17,82,63,175,322,185,-136
-48,-14,34,31,-41,9,92,68,185,331,195,-136
-53,-4,48,29,-51,21,107,73,185,336,195,-117
-53,0,53,26,-53,26,107,82,200,346,200,-117
-63,-4,58,34,-61,26,102,92,224,346,200,-117
-53,0,53,26,-53,26,102,97,239,351,200,-117
-58,4,63,26,-61,34,107,107,234,361,200,-122
-63,0,63,31,-63,31,107,117,239,370,209,-122
-78,-4,73,41,-75,34,112,112,248,375,209,-126
-97,-19,78,58,-87,29,117,122,258,385,209,-131
-82,4,87,39,-85,46,122,122,278,405,219,-122
-68,9,78,29,-73,43,122,122,292,419,234,-117
-63,19,82,21,-73,51,117,131,307,434,244,-112
-63,24,87,19,-75,56,117,136,322,458,248,-107
-68,24,92,21,-80,58,112,141,346,463,244,-97
-68,24,92,21,-80,58,117,146,361,478,244,-92
-63,24,87,19,-75,56,117,156,375,488,248,-92
-68,24,92,21,-80,58,117,170,395,502,253,-92
-68,19,87,24,-78,53,97,161,395,512,263,-87
-43,19,63,12,-53,41,92,156,400,522,273,-87
-34,14,48,9,-41,31,87,161,409,541,278,-78
-24,19,43,2,-34,31,78,156,414,556,283,-82
-34,24,58,4,-46,41,63,156,434,556,283,-82
-48,24,73,12,-61,48,63,165,439,570,283,-82
-58,29,87,14,-73,58,68,175,453,585,287,-78
-78,39,117,19,-97,78,78,190,473,600,287,-78
-68,39,107,14,-87,73,53,175,483,600,283,-87
-53,39,92,7,-73,65,39,170,488,605,283,-92
-43,39,82,2,-63,61,19,170,483,610,278,-102
-24,39,63,-7,-43,51,0,170,478,610,268,-107
-24,39,63,-7,-43,51,-9,165,483,619,253,-107
-19,43,63,-12,-41,53,-14,161,497,619,253,-107
-14,43,58,-14,-36,51,-9,170,507,619,253,-107
-14,39,53,-12,-34,46,-29,165,507,614,258,-107
-34,29,63,2,-48,46,-48,161,507,610,253,-112
-39,29,68,4,-53,48,-58,151,507,619,248,-107
-29,34,63,-2,-46,48,-63,141,517,619,244,-107
-34,39,73,-2,-53,56,-73,131,512,614,239,-112
-39,24,63,7,-51,43,-73,122,497,610,234,-122
-39,24,63,7,-51,43,-63,122,497,614,224,-122
-34,19,53,7,-43,36,-63,126,497,600,219,-117
-34,14,48,9,-41,31,-58,126,497,595,209,-117
-48,9,58,19,-53,34,-48,141,507,595,204,-122
-63,9,73,26,-68,41,-58,141,507,595,195,-112
-73,9,82,31,-78,46,-68,131,492,585,204,-107
-87,0,87,43,-87,43,-73,131,483,575,204,-102
-63,4,68,29,-65,36,-68,122,473,556,195,-112
-48,9,58,19,-53,34,-78,107,453,536,180,-102
-43,24,68,9,-56,46,-78,97,429,522,170,-102
-29,29,58,0,-43,43,-78,87,400,507,161,-102
-29,39,68,-4,-48,53,-78,87,395,497,156,-92
-34,43,78,-4,-56,61,-78,82,385,488,156,-82
-34,43,78,-4,-56,61,-68,68,361,468,151,-82
-34,39,73,-2,-53,56,-58,63,356,444,156,-73
-39,29,68,4,-53,48,-58,68,341,414,151,-63
-34,29,63,2,-48,46,-63,53,322,390,136,-48
-39,29,68,4,-53,48,-73,34,292,366,131,-39
-58,29,87,14,-73,58,-73,29,273,356,131,-34
-48,53,102,-2,-75,78,-63,19,273,336,136,-24
-39,48,87,-4,-63,68,-63,4,244,312,122,-29
-29,53,82,-12,-56,68,-68,9,204,287,107,-29
-19,58,78,-19,-48,68,-68,4,185,268,102,-29
-19,43,63,-12,-41,53,-68,-4,170,239,87,-34
-39,39,78,0,-58,58,-58,-19,151,219,63,-34
-39,53,92,-7,-65,73,-48,-24,136,200,58,-34
-34,58,92,-12,-63,75,-39,-14,117,185,53,-34
-48,48,97,0,-73,73,-29,-19,97,170,58,-34
-53,43,97,4,-75,70,-29,-29,82,146,53,-34
-58,29,87,14,-73,58,-29,-34,63,131,43,-43
-63,29,92,17,-78,61,-29,-34,48,107,43,-43
-58,29,87,14,-73,58,0,-14,34,92,34,-43
-39,53,92,-7,-65,73,9,-24,24,87,34,-39
-53,34,87,9,-70,61,9,-43,4,63,14,-48
-43,29,73,7,-58,51,19,-48,-4,48,4,-48
0,58,58,-29,-29,58,19,-39,-19,48,0,-48
-14,43,58,-14,-36,51,29,-39,-29,43,0,-53
-29,39,68,-4,-48,53,29,-39,-29,39,0,-58
-43,34,78,4,-61,56,29,-39,-29,34,0,-63
-58,29,87,14,-73,58,29,-39,-29,29,0,-68
-63,34,97,14,-80,65,43,-34,-39,24,-9,-78
-68,29,97,19,-82,63,43,-34,-43,19,-19,-78
-58,34,92,12,-75,63,43,-34,-48,9,-24,-92
-73,39,112,17,-92,75,53,-29,-53,0,-39,-102
-78,43,122,17,-100,82,53,-29,-63,-9,-34,-102
-73,43,117,14,-95,80,58,-29,-68,-4,-34,-87
-63,43,107,9,-85,75,58,-29,-68,-4,-34,-82
-39,53,92,-7,-65,73,58,-19,-73,-4,-34,-82
-39,63,102,-12,-70,82,68,-24,-73,-19,-43,-87
-73,58,131,7,-102,95,73,-24,-68,-19,-43,-92
-73,39,112,17,-92,75,78,-24,-68,-19,-39,-97
-78,34,112,21,-95,73,78,-24,-58,-19,-39,-102
-73,24,97,24,-85,61,78,-14,-78,-19,-53,-122
-53,29,82,12,-68,56,82,-14,-78,-19,-53,-126
-39,53,92,-7,-65,73,87,-14,-78,-19,-48,-122
-48,43,92,2,-70,68,87,-19,-78,-14,-48,-112
-68,43,112,12,-90,78,92,-24,-73,-4,-39,-117
-68,43,112,12,-90,78,87,-14,-68,-14,-39,-117
-43,43,87,0,-65,65,92,0,-63,-4,-39,-126
-43,39,82,2,-63,61,102,4,-68,-4,-39,-126
-39,48,87,-4,-63,68,87,4,-68,0,-34,-122
-43,53,97,-4,-70,75,82,4,-58,0,-34,-126
-39,53,92,-7,-65,73,78,-4,-48,4,-29,-122
-34,48,82,-7,-58,65,73,-4,-43,9,-29,-117
-48,34,82,7,-65,58,63,-4,-48,19,-24,-112
-58,29,87,14,-73,58,53,-9,-53,14,-29,-112
-68,19,87,24,-78,53,43,-19,-53,9,-39,-122
-82,14,97,34,-90,56,34,-24,-53,19,-43,-126
-63,14,78,24,-70,46,19,-24,-48,29,-24,-117
-48,19,68,14,-58,43,9,-34,-48,34,-14,-117
-39,29,68,4,-53,48,4,-34,-43,43,-9,-112
-29,34,63,-2,-46,48,0,-34,-39,48,-4,-112
-43,19,63,12,-53,41,-14,-39,-39,48,4,-107
-53,19,73,17,-63,46,-29,-48,-43,53,4,-107
-53,24,78,14,-65,51,-39,-63,-43,58,-4,-117
-63,24,87,19,-75,56,-43,-73,-39,63,4,-117
-73,29,102,21,-87,65,-39,-82,-34,63,9,-97
-78,29,107,24,-92,68,-29,-82,-39,63,9,-97
-78,29,107,24,-92,68,-39,-82,-34,58,9,-102
-78,24,102,26,-90,63,-39,-82,-24,58,14,-102
-82,19,102,31,-92,61,-43,-87,-29,58,24,-92
-78,19,97,29,-87,58,-48,-92,-34,63,24,-97
-78,14,92,31,-85,53,-53,-92,-39,68,24,-97
-82,4,87,39,-85,46,-58,-97,-43,73,24,-92
-87,19,107,34,-97,63,-48,-97,-34,82,34,-78
-87,24,112,31,-100,68,-43,-87,-29,82,39,-73
-82,29,112,26,-97,70,-43,-87,-29,82,34,-78
-78,34,112,21,-95,73,-48,-92,-24,78,34,-73
-87,19,107,34,-97,63,-48,-92,-34,68,43,-63
-82,14,97,34,-90,56,-48,-92,-34,68,43,-63
-82,19,102,31,-92,61,-48,-92,-34,68,43,-63
-87,4,92,41,-90,48,-48,-92,-34,63,43,-73
-78,14,92,31,-85,53,-39,-82,-39,63,43,-63
-78,24,102,26,-90,63,-34,-82,-39,63,43,-63
-73,34,107,19,-90,70,-29,-78,-34,68,43,-58
-63,43,107,9,-85,75,-29,-78,-34,68,43,-58
-78,39,117,19,-97,78,-24,-78,-34,68,53,-53
-87,34,122,26,-104,78,-24,-78,-34,63,53,-48
-97,24,122,36,-109,73,-24,-78,-34,63,48,-48
-107,19,126,43,-117,73,-24,-73,-34,63,48,-43
-97,24,122,36,-109,73,-24,-73,-43,58,43,-53
-97,24,122,36,-109,73,-24,-73,-43,58,43,-53
-97,19,117,39,-107,68,-19,-73,-43,58,39,-53
-97,19,117,39,-107,68,-19,-73,-43,53,39,-53
-78,24,102,26,-90,63,-19,-73,-39,58,34,-48
-73,29,102,21,-87,65,-14,-68,-39,58,34,-48
-73,34,107,19,-90,70,-14,-63,-39,63,39,-43
-68,34,102,17,-85,68,-9,-63,-34,63,39,-43
-82,24,107,29,-95,65,-9,-68,-34,53,29,-53
-82,29,112,26,-97,70,0,-68,-34,53,29,-53
-78,34,112,21,-95,73,0,-63,-34,53,29,-53
-78,34,112,21,-95,73,0,-63,-34,53,29,-53
-73,24,97,24,-85,61,14,-53,-29,43,24,-53
-73,24,97,24,-85,61,9,-53,-29,43,24,-53
-68,34,102,17,-85,68,9,-58,-29,43,24,-58
-58,39,97,9,-78,68,14,-58,-29,34,24,-58
-68,43,112,12,-90,78,39,-48,-19,43,29,-53
-73,43,117,14,-95,80,43,-43,-19,43,29,-53
-87,39,126,24,-107,82,34,-43,-34,39,19,-53
-92,39,131,26,-112,85,39,-39,-34,39,19,-53
-53,53,107,0,-80,80,48,-39,-24,43,19,-63
-112,9,122,51,-117,65,53,-39,-34,34,9,-68
-82,4,87,39,-85,46,43,-53,-53,9,4,-73
-14,48,63,-17,-39,56,48,-63,-68,14,14,-73
-73,53,126,9,-100,90,58,-39,-48,34,48,-48
-92,58,151,17,-122,104,63,-24,-9,78,92,-29
-39,112,151,-36,-95,131,63,-9,48,165,185,19
-29,175,204,-73,-117,190,82,29,136,326,351,126
-29,214,244,-92,-136,229,68,43,234,497,556,287
19,234,214,-126,-97,224,9,14,273,614,688,478
58,278,219,-168,-80,248,-43,-39,258,585,653,614
97,370,273,-234,-87,322,-68,-102,175,370,414,658
126,444,317,-285,-95,380,-122,-190,24,39,136,673
136,444,307,-290,-85,375,-195,-312,-190,-409,-117,756
195,434,239,-314,-21,336,-278,-468,-492,-951,-400,868
312,429,117,-370,97,273,-370,-610,-795,-1464,-683,1010
361,414,53,-387,153,234,-395,-678,-1034,-1854,-873,1180
346,375,29,-361,158,202,-400,-727,-1268,-2230,-1112,1332
414,409,-4,-412,209,202,-439,-824,-1561,-2630,-1405,1424
502,483,-19,-492,261,231,-512,-936,-1830,-2967,-1698,1493
492,522,29,-507,231,275,-561,-1024,-2034,-3201,-1995,1454
439,575,136,-507,151,356,-610,-1088,-2176,-3357,-2249,1351
419,712,292,-566,63,502,-629,-1156,-2259,-3396,-2342,1273
351,775,424,-563,-36,600,-610,-1215,-2288,-3357,-2352,1078
229,634,405,-431,-87,519,-566,-1268,-2352,-3298,-2381,663
43,331,287,-187,-122,309,-468,-1234,-2405,-3162,-2308,258
-136,-9,126,73,-131,58,-326,-1122,-2322,-2908,-2132,-78
-209,-234,-24,222,-92,-129,-156,-956,-2098,-2605,-2010,-492
-278,-375,-97,326,-90,-236,-29,-805,-1912,-2366,-2015,-1015
-346,-507,-161,427,-92,-334,63,-697,-1790,-2196,-2020,-1434
-385,-585,-200,485,-92,-392,165,-585,-1629,-2005,-1917,-1625
-395,-566,-170,480,-112,-368,180,-561,-1468,-1732,-1712,-1571
-390,-517,-126,453,-131,-322,97,-634,-1351,-1483,-1468,-1420
-385,-473,-87,429,-148,-280,68,-600,-1200,-1259,-1229,-1220
-439,-414,24,427,-231,-195,122,-473,-1019,-1039,-1010,-1044
-463,-346,117,405,-290,-114,126,-380,-834,-824,-819,-897
-356,-253,102,305,-229,-75,43,-322,-653,-619,-624,-736
-195,-170,24,183,-109,-73,-48,-263,-492,-458,-463,-610
-170,-146,24,158,-97,-61,-78,-204,-356,-317,-326,-488
-185,-117,68,151,-126,-24,-29,-131,-219,-175,-195,-375
-151,-112,39,131,-95,-36,-24,-87,-151,-87,-117,-312
-151,-117,34,134,-92,-41,-63,-87,-112,-53,-92,-292
-161,-92,68,126,-114,-12,-43,-58,-68,-4,-43,-248
-112,-34,78,73,-95,21,-4,-19,-24,58,19,-204
-82,-14,68,48,-75,26,0,-19,-9,92,48,-190
-161,-53,107,107,-134,26,-9,-34,-4,102,68,-185
-195,-63,131,129,-163,34,-29,-43,4,117,78,-170
-126,-24,102,75,-114,39,-29,-43,29,117,87,-161
-78,-4,73,41,-75,34,-29,-39,24,102,73,-161
-78,-19,58,48,-68,19,-34,-43,14,102,73,-165
-87,-19,68,53,-78,24,-14,-39,24,117,73,-165
-102,-24,78,63,-90,26,-14,-39,29,122,78,-161
-107,-29,78,68,-92,24,-9,-34,48,136,97,-161
-112,-24,87,68,-100,31,0,-29,58,146,102,-151
-112,-19,92,65,-102,36,4,-39,53,161,122,-131
-112,-34,78,73,-95,21,4,-39,58,156,117,-126
-107,-39,68,73,-87,14,-4,-39,43,146,107,-141
-107,-43,63,75,-85,9,-4,-39,34,141,87,-156
-112,-24,87,68,-100,31,9,-29,39,151,102,-151
-117,-24,92,70,-104,34,19,-24,48,156,107,-156
-117,-34,82,75,-100,24,24,-24,53,156,112,-161
-102,-34,68,68,-85,17,24,-19,63,165,126,-146
-92,-43,48,68,-70,2,24,-9,73,175,136,-131
-97,-43,53,70,-75,4,34,-9,73,185,136,-131
-97,-43,53,70,-75,4,34,-9,73,185,131,-136
-92,-43,48,68,-70,2,39,-9,73,180,131,-136
-92,-39,53,65,-73,7,53,4,87,190,141,-136
-102,-39,63,70,-82,12,53,14,87,190,141,-136
-102,-34,68,68,-85,17,58,24,92,200,146,-131
-92,-14,78,53,-85,31,63,29,97,204,156,-131
-73,-24,48,48,-61,12,78,34,107,219,161,-122
-73,-29,43,51,-58,7,82,39,117,234,161,-122
-73,-34,39,53,-56,2,87,43,131,239,161,-117
-78,-9,68,43,-73,29,92,48,141,253,161,-117
-87,-24,63,56,-75,19,112,63,151,253,161,-122
-92,-39,53,65,-73,7,117,68,161,253,165,-122
-102,-34,68,68,-85,17,122,82,165,263,180,-117
-112,-34,78,73,-95,21,126,87,170,273,190,-112
-107,-19,87,63,-97,34,126,97,180,283,204,-112
-107,-14,92,61,-100,39,126,102,195,297,204,-107
-82,-9,73,46,-78,31,126,107,200,307,204,-107
-68,0,68,34,-68,34,136,112,204,312,204,-107
-78,-4,73,41,-75,34,131,122,209,312,214,-112
-87,-14,73,51,-80,29,126,136,224,317,224,-112
-92,-19,73,56,-82,26,122,136,234,322,224,-112
-92,-24,68,58,-80,21,117,141,239,336,234,-112
-92,-24,68,58,-80,21,117,151,253,351,244,-102
-92,-24,68,58,-80,21,112,151,263,361,248,-97
-82,-24,58,53,-70,17,107,151,268,366,258,-92
-82,-24,58,53,-70,17,102,161,273,380,263,-92
-78,-14,63,46,-70,24,97,170,287,400,268,-73
-68,-4,63,36,-65,29,87,175,297,414,273,-73
-58,4,63,26,-61,34,87,185,317,434,287,-78
-48,14,63,17,-56,39,92,195,331,448,302,-78
-53,29,82,12,-68,56,92,185,331,458,312,-58
-53,29,82,12,-68,56,87,190,346,473,317,-58
-63,19,82,21,-73,51,78,195,370,478,317,-58
-53,19,73,17,-63,46,73,195,385,488,317,-58
-34,24,58,4,-46,41,63,195,390,492,312,-68
-34,19,53,7,-43,36,58,204,395,507,326,-63
-43,14,58,14,-51,36,58,200,405,517,331,-63
-58,0,58,29,-58,29,58,209,414,531,336,-63
-58,14,73,21,-65,43,78,229,444,556,356,-43
-58,19,78,19,-68,48,82,229,458,575,370,-39
-68,29,97,19,-82,63,82,239,473,595,380,-34
-82,34,117,24,-100,75,87,244,488,624,385,-29
-73,29,102,21,-87,65,78,253,492,634,400,-29
-68,24,92,21,-80,58,78,253,507,644,400,-24
-58,19,78,19,-68,48,73,258,522,649,405,-24
-58,14,73,21,-65,43,68,268,541,658,409,-24
-63,19,82,21,-73,51,58,268,546,683,414,-14
-43,29,73,7,-58,51,63,273,566,697,429,-9
-39,34,73,2,-56,53,68,287,590,722,439,4
-34,48,82,-7,-58,65,68,292,610,741,448,4
-53,29,82,12,-68,56,53,292,614,736,444,0
-68,14,82,26,-75,48,53,292,614,746,439,-4
-78,4,82,36,-80,43,58,292,624,756,439,-4
-97,0,97,48,-97,48,68,297,639,766,434,-9
-107,9,117,48,-112,63,68,297,658,780,448,0
-102,9,112,46,-107,61,68,297,673,790,458,4
-102,9,112,46,-107,61,63,302,678,800,463,4
-92,9,102,41,-97,56,58,307,683,805,463,9
-73,24,97,24,-85,61,53,292,678,810,448,0
-58,34,92,12,-75,63,53,287,692,814,448,0
-43,39,82,2,-63,61,63,297,702,819,448,0
-34,39,73,-2,-53,56,48,292,702,819,453,0
-68,29,97,19,-82,63,48,302,717,834,458,9
-78,29,107,24,-92,68,48,307,722,844,463,19
-73,34,107,19,-90,70,53,312,736,844,468,24
-82,39,122,21,-102,80,53,317,736,839,473,24
-87,48,136,19,-112,92,58,326,741,839,478,19
-87,53,141,17,-114,97,73,326,741,849,478,24
-82,53,136,14,-109,95,78,331,741,839,483,34
-82,53,136,14,-109,95,87,331,741,839,483,39
-78,58,136,9,-107,97,92,326,727,824,478,39
-73,68,141,2,-107,104,87,326,722,819,468,53
-63,78,141,-7,-102,109,82,317,702,805,478,63
-58,78,136,-9,-97,107,82,317,688,790,478,73
-53,78,131,-12,-92,104,82,307,663,756,463,63
-48,78,126,-14,-87,102,78,292,639,722,444,73
-53,87,141,-17,-97,114,82,283,610,692,429,73
-48,87,136,-19,-92,112,87,273,575,663,414,73
-63,87,151,-12,-107,119,92,278,566,639,405,87
-73,92,165,-9,-119,129,87,268,541,614,390,92
-78,92,170,-7,-124,131,92,248,502,580,370,87
-82,87,170,-2,-126,129,97,239,483,541,361,92
-68,78,146,-4,-107,112,87,229,444,497,336,78
-43,78,122,-17,-82,100,82,209,409,458,302,68
-29,78,107,-24,-68,92,73,185,366,419,278,53
-29,78,107,-24,-68,92,73,175,331,395,258,34
-39,82,122,-21,-80,102,68,165,317,361,244,19
-39,68,107,-14,-73,87,63,141,283,322,219,9
-39,63,102,-12,-70,82,53,136,239,283,195,4
-39,58,97,-9,-68,78,48,122,214,248,180,0
-24,48,73,-12,-48,61,53,112,200,224,165,-14
-39,48,87,-4,-63,68,58,97,180,209,141,-14
-34,68,102,-17,-68,85,63,92,165,195,136,-14
-24,78,102,-26,-63,90,68,102,146,185,131,-14
-39,73,112,-17,-75,92,78,107,136,161,117,-29
-43,63,107,-9,-75,85,78,97,122,136,102,-34
-48,43,92,2,-70,68,78,92,102,122,82,-48
-53,39,92,7,-73,65,78,92,87,97,73,-53
-48,39,87,4,-68,63,82,107,82,87,63,-53
-48,34,82,7,-65,58,87,102,73,68,53,-68
-43,34,78,4,-61,56,92,87,63,68,43,-68
-24,29,53,-2,-39,41,97,87,43,68,43,-78
-24,19,43,2,-34,31,78,78,48,43,24,-97
-19,29,48,-4,-34,39,78,87,48,58,39,-97
-29,24,53,2,-41,39,68,97,43,53,34,-107
-39,19,58,9,-48,39,68,97,39,48,29,-107
-48,14,63,17,-56,39,68,97,34,43,24,-107
-58,9,68,24,-63,39,68,97,29,39,19,-107
-48,14,63,17,-56,39,48,82,19,29,14,-97
-48,9,58,19,-53,34,34,73,14,29,9,-97
-34,14,48,9,-41,31,19,63,9,24,9,-112
-43,19,63,12,-53,41,14,58,4,19,0,-122
-43,19,63,12,-53,41,-4,34,-9,4,-14,-141
-43,14,58,14,-51,36,-19,19,-19,4,-14,-126
-39,9,48,14,-43,29,-39,4,-24,0,-14,-122
-19,14,34,2,-26,24,-58,0,-34,-4,-14,-122
-24,14,39,4,-31,26,-73,-14,-39,-9,-14,-122
-63,9,73,26,-68,41,-73,-24,-39,-9,-14,-122
-68,-9,58,39,-63,24,-73,-34,-43,-9,-9,-122
-78,-14,63,46,-70,24,-78,-43,-39,-9,-9,-122
-68,-4,63,36,-65,29,-78,-53,-58,-9,-4,-136
-43,0,43,21,-43,21,-73,-53,-58,-9,-4,-136
-24,24,48,0,-36,36,-68,-53,-58,-9,0,-126
-29,14,43,7,-36,29,-68,-58,-58,-4,0,-112
-43,0,43,21,-43,21,-78,-68,-68,-14,-9,-117
-48,-4,43,26,-46,19,-87,-73,-68,-24,-9,-117
