I,II,III,aVR,aVL,aVF,V1,V2,V3,V4,V5,V6
-488,-9,478,248,-483,234,107,146,58,48,0,-9
-488,-9,478,248,-483,234,107,146,58,48,0,-9
-488,-9,478,248,-483,234,107,146,58,48,0,-9
-488,-9,478,248,-483,234,107,146,58,48,0,-9
-483,4,488,239,-485,246,97,151,97,102,39,14
-478,19,497,229,-488,258,87,156,126,156,78,29
-473,34,507,219,-490,270,78,161,156,209,117,43
-468,48,517,209,-492,283,68,165,185,263,156,58
-458,73,531,192,-495,302,43,131,117,263,204,92
-458,87,546,185,-502,317,29,97,58,263,253,117
-458,102,561,178,-509,331,14,63,0,263,302,141
-458,117,575,170,-517,346,0,29,-58,263,351,165
-439,141,580,148,-509,361,-82,-87,-263,165,458,258
-429,165,595,131,-512,380,-156,-204,-468,68,556,341
-419,190,610,114,-514,400,-229,-322,-673,-29,653,424
-409,214,624,97,-517,419,-302,-439,-878,-126,751,507
-380,263,644,58,-512,453,-409,-614,-1132,-268,936,683
-361,302,663,29,-512,483,-517,-780,-1385,-400,1122,858
-341,341,683,0,-512,512,-624,-946,-1639,-531,1307,1034
-322,380,702,-29,-512,541,-732,-1112,-1893,-663,1493,1210
-292,356,649,-31,-470,502,-785,-1195,-1995,-707,1683,1361
-273,331,605,-29,-439,468,-839,-1268,-2098,-751,1873,1503
-253,307,561,-26,-407,434,-893,-1342,-2200,-795,2064,1644
-234,283,517,-24,-375,400,-946,-1415,-2303,-839,2254,1786
-214,253,468,-19,-341,361,-936,-1351,-2166,-722,2449,1952
-204,224,429,-9,-317,326,-927,-1288,-2030,-605,2644,2108
-195,195,390,0,-292,292,-917,-1224,-1893,-488,2840,2264
-185,165,351,9,-268,258,-907,-1161,-1756,-370,3035,2420
-151,136,287,7,-219,212,-873,-1058,-1571,-273,3025,2562
-126,107,234,9,-180,170,-839,-966,-1385,-185,3015,2703
-102,78,180,12,-141,129,-805,-873,-1200,-97,3006,2845
-78,48,126,14,-102,87,-771,-780,-1015,-9,2996,2986
-102,34,136,34,-119,85,-707,-722,-946,-97,2674,2898
-117,19,136,48,-126,78,-644,-663,-888,-175,2352,2810
-131,4,136,63,-134,70,-580,-605,-829,-253,2030,2723
-146,-9,136,78,-141,63,-517,-546,-771,-331,1708,2635
-180,-29,151,104,-165,61,-448,-492,-702,-341,1429,2376
-214,-39,175,126,-195,68,-380,-439,-644,-351,1161,2127
-248,-48,200,148,-224,75,-312,-385,-585,-361,893,1878
-283,-58,224,170,-253,82,-244,-331,-527,-370,624,1629
-312,-19,292,165,-302,136,-214,-278,-448,-307,527,1415
-331,19,351,156,-341,185,-185,-234,-370,-253,429,1210
-351,58,409,146,-380,234,-156,-190,-292,-200,331,1005
-370,97,468,136,-419,283,-126,-146,-214,-146,234,800
-390,126,517,131,-453,322,-97,-97,-146,-102,195,663
-409,156,566,126,-488,361,-68,-58,-87,-58,156,527
-429,185,614,122,-522,400,-39,-19,-29,-14,117,390
-448,214,663,117,-556,439,-9,19,29,29,78,253
-458,180,639,139,-549,409,9,53,58,48,58,200
-458,146,605,156,-531,375,29,87,87,68,48,156
-458,112,570,173,-514,341,48,122,117,87,39,112
-458,78,536,190,-497,307,68,156,146,107,29,68
-448,63,512,192,-480,287,87,175,165,117,9,29
-448,48,497,200,-473,273,97,195,175,117,-9,0
-448,34,483,207,-466,258,107,214,185,117,-29,-29
-448,19,468,214,-458,244,117,234,195,117,-48,-58
-448,4,453,222,-451,229,122,234,204,117,-63,-68
-448,-9,439,229,-444,214,126,234,204,117,-68,-78
-448,-24,424,236,-436,200,131,234,204,117,-73,-87
-448,-39,409,244,-429,185,136,234,204,117,-78,-97
-458,-24,434,241,-446,204,126,244,209,126,-82,-107
-458,-19,439,239,-448,209,126,244,214,126,-87,-117
-458,-14,444,236,-451,214,126,244,219,126,-92,-126
-458,-9,448,234,-453,219,126,244,224,126,-97,-136
-448,-24,424,236,-436,200,136,253,234,136,-107,-146
-448,-29,419,239,-434,195,136,253,234,136,-107,-146
-448,-34,414,241,-431,190,136,253,234,136,-107,-146
-448,-39,409,244,-429,185,136,253,234,136,-107,-146
-448,-39,409,244,-429,185,126,253,244,146,-107,-156
-448,-39,409,244,-429,185,126,253,244,146,-107,-156
-448,-39,409,244,-429,185,126,253,244,146,-107,-156
-448,-39,409,244,-429,185,126,253,244,146,-107,-156
-448,-39,409,244,-429,185,131,263,253,156,-107,-156
-448,-39,409,244,-429,185,136,263,253,156,-107,-156
-448,-39,409,244,-429,185,141,263,253,156,-107,-156
-448,-39,409,244,-429,185,146,263,253,156,-107,-156
-458,-53,405,256,-431,175,136,263,253,156,-117,-165
-458,-58,400,258,-429,170,136,263,253,156,-117,-165
-458,-63,395,261,-427,165,136,263,253,156,-117,-165
-458,-68,390,263,-424,161,136,263,253,156,-117,-165
-444,-58,385,251,-414,163,146,273,268,161,-107,-156
-439,-48,390,244,-414,170,146,273,273,165,-107,-156
-434,-39,395,236,-414,178,146,273,278,170,-107,-156
-429,-29,400,229,-414,185,146,273,283,175,-107,-156
-439,-34,405,236,-422,185,146,273,283,185,-107,-156
-439,-39,400,239,-419,180,146,273,283,185,-107,-156
-439,-43,395,241,-417,175,146,273,283,185,-107,-156
-439,-48,390,244,-414,170,146,273,283,185,-107,-156
-439,-48,390,244,-414,170,146,283,292,195,-112,-165
-439,-48,390,244,-414,170,146,283,292,195,-117,-165
-439,-48,390,244,-414,170,146,283,292,195,-122,-165
-439,-48,390,244,-414,170,146,283,292,195,-126,-165
-439,-48,390,244,-414,170,146,292,297,200,-126,-175
-439,-48,390,244,-414,170,146,292,302,204,-126,-175
-439,-48,390,244,-414,170,146,292,307,209,-126,-175
-439,-48,390,244,-414,170,146,292,312,214,-126,-175
-429,-48,380,239,-405,165,156,302,317,219,-117,-175
-429,-48,380,239,-405,165,156,302,322,224,-117,-175
-429,-48,380,239,-405,165,156,302,326,229,-117,-175
-429,-48,380,239,-405,165,156,302,331,234,-117,-175
-429,-48,380,239,-405,165,156,312,336,244,-112,-180
-429,-48,380,239,-405,165,156,312,341,244,-107,-185
-429,-48,380,239,-405,165,156,312,346,244,-102,-190
-429,-48,380,239,-405,165,156,312,351,244,-97,-195
-429,-48,380,239,-405,165,165,322,366,258,-97,-195
-429,-48,380,239,-405,165,165,322,370,263,-97,-195
-429,-48,380,239,-405,165,165,322,375,268,-97,-195
-429,-48,380,239,-405,165,165,322,380,273,-97,-195
-419,-39,380,229,-400,170,175,336,390,287,-92,-195
-419,-39,380,229,-400,170,175,341,400,292,-87,-195
-419,-39,380,229,-400,170,175,346,409,297,-82,-195
-419,-39,380,229,-400,170,175,351,419,302,-78,-195
-429,-53,375,241,-402,161,185,361,434,317,-68,-195
-429,-58,370,244,-400,156,185,361,439,322,-68,-195
-429,-63,366,246,-397,151,185,361,444,326,-68,-195
-429,-68,361,248,-395,146,185,361,448,331,-68,-195
-419,-58,361,239,-390,151,190,366,468,351,-63,-195
-419,-58,361,239,-390,151,195,370,478,361,-58,-195
-419,-58,361,239,-390,151,200,375,488,370,-53,-195
-419,-58,361,239,-390,151,204,380,497,380,-48,-195
-419,-58,361,239,-390,151,214,395,517,390,-43,-185
-419,-58,361,239,-390,151,214,400,527,400,-39,-185
-419,-58,361,239,-390,151,214,405,536,409,-34,-185
-419,-58,361,239,-390,151,214,409,546,419,-29,-185
-419,-58,361,239,-390,151,224,424,561,439,-14,-175
-419,-58,361,239,-390,151,224,429,575,448,-9,-175
-419,-58,361,239,-390,151,224,434,590,458,-4,-175
-419,-58,361,239,-390,151,224,439,605,468,0,-175
-409,-58,351,234,-380,146,234,444,619,488,4,-185
-409,-58,351,234,-380,146,234,448,624,497,9,-185
-409,-58,351,234,-380,146,234,453,629,507,14,-185
-409,-58,351,234,-380,146,234,458,634,517,19,-185
-409,-58,351,234,-380,146,239,463,653,536,24,-175
-409,-58,351,234,-380,146,244,468,663,546,29,-175
-409,-58,351,234,-380,146,248,473,673,556,34,-175
-409,-58,351,234,-380,146,253,478,683,566,39,-175
-409,-63,346,236,-378,141,263,483,692,580,53,-175
-409,-68,341,239,-375,136,263,488,702,595,58,-175
-409,-73,336,241,-373,131,263,492,712,610,63,-175
-409,-78,331,244,-370,126,263,497,722,624,68,-175
-400,-87,312,244,-356,112,268,502,736,639,73,-175
-400,-87,312,244,-356,112,273,507,741,644,78,-175
-400,-87,312,244,-356,112,278,512,746,649,82,-175
-400,-87,312,244,-356,112,283,517,751,653,87,-175
-400,-97,302,248,-351,102,283,522,761,668,102,-165
-400,-97,302,248,-351,102,283,527,771,673,107,-165
-400,-97,302,248,-351,102,283,531,780,678,112,-165
-400,-97,302,248,-351,102,283,536,790,683,117,-165
-400,-97,302,248,-351,102,283,536,800,697,131,-156
-400,-97,302,248,-351,102,283,536,800,702,136,-156
-400,-97,302,248,-351,102,283,536,800,707,141,-156
-400,-97,302,248,-351,102,283,536,800,712,146,-156
-385,-97,287,241,-336,95,283,527,790,712,156,-141
-380,-97,283,239,-331,92,283,527,790,712,165,-136
-375,-97,278,236,-326,90,283,527,790,712,175,-131
-370,-97,273,234,-322,87,283,527,790,712,185,-126
-380,-97,283,239,-331,92,273,512,771,702,190,-117
-380,-97,283,239,-331,92,273,507,761,702,195,-117
-380,-97,283,239,-331,92,273,502,751,702,200,-117
-380,-97,283,239,-331,92,273,497,741,702,204,-117
-380,-97,283,239,-331,92,258,488,717,692,209,-107
-380,-97,283,239,-331,92,253,478,702,683,214,-97
-380,-97,283,239,-331,92,248,468,688,673,219,-87
-380,-97,283,239,-331,92,244,458,673,663,224,-78
-375,-87,287,231,-331,100,239,439,644,639,234,-68
-370,-87,283,229,-326,97,234,429,624,624,234,-58
-366,-87,278,226,-322,95,229,419,605,610,234,-48
-361,-87,273,224,-317,92,224,409,585,595,234,-39
-361,-87,273,224,-317,92,214,395,561,566,234,-29
-361,-87,273,224,-317,92,204,380,536,546,234,-19
-361,-87,273,224,-317,92,195,366,512,527,234,-9
-361,-87,273,224,-317,92,185,351,488,507,234,0
-351,-78,273,214,-312,97,180,336,453,483,219,14
-351,-78,273,214,-312,97,175,322,429,458,214,19
-351,-78,273,214,-312,97,170,307,405,434,209,24
-351,-78,273,214,-312,97,165,292,380,409,204,29
-351,-68,283,209,-317,107,156,268,356,385,190,34
-351,-68,283,209,-317,107,146,253,331,361,185,39
-351,-68,283,209,-317,107,136,239,307,336,180,43
-351,-68,283,209,-317,107,126,224,283,312,175,48
-341,-58,283,200,-312,112,122,214,253,292,161,48
-341,-58,283,200,-312,112,117,204,234,273,156,48
-341,-58,283,200,-312,112,112,195,214,253,151,48
-341,-58,283,200,-312,112,107,185,195,234,146,48
-341,-53,287,197,-314,117,102,175,175,209,141,48
-341,-48,292,195,-317,122,97,165,165,195,136,48
-341,-43,297,192,-319,126,92,156,156,180,131,48
-341,-39,302,190,-322,131,87,146,146,165,126,48
-336,-39,297,187,-317,129,78,131,126,156,117,39
-331,-39,292,185,-312,126,78,126,117,146,107,39
-326,-39,287,183,-307,124,78,122,107,136,97,39
-322,-39,283,180,-302,122,78,117,97,126,87,39
-331,-29,302,180,-317,136,73,107,87,107,73,39
-331,-29,302,180,-317,136,68,107,78,97,68,39
-331,-29,302,180,-317,136,63,107,68,87,63,39
-331,-29,302,180,-317,136,58,107,58,78,58,39
-331,-19,312,175,-322,146,48,97,43,73,53,29
-331,-19,312,175,-322,146,48,97,39,68,48,29
-331,-19,312,175,-322,146,48,97,34,63,43,29
-331,-19,312,175,-322,146,48,97,29,58,39,29
-322,-19,302,170,-312,141,48,92,24,53,34,29
-322,-19,302,170,-312,141,48,87,19,48,29,29
-322,-19,302,170,-312,141,48,82,14,43,24,29
-322,-19,302,170,-312,141,48,78,9,39,19,29
-312,-19,292,165,-302,136,48,68,0,34,14,19
-312,-19,292,165,-302,136,48,68,0,29,9,19
-312,-19,292,165,-302,136,48,68,0,24,4,19
-312,-19,292,165,-302,136,48,68,0,19,0,19
-302,-19,283,161,-292,131,48,58,-9,9,-9,9
-302,-19,283,161,-292,131,48,58,-9,9,-9,9
-302,-19,283,161,-292,131,48,58,-9,9,-9,9
-302,-19,283,161,-292,131,48,58,-9,9,-9,9
-292,-9,283,151,-287,136,48,58,-9,0,-19,0
-292,-9,283,151,-287,136,48,58,-9,0,-19,0
-292,-9,283,151,-287,136,48,58,-9,0,-19,0
-292,-9,283,151,-287,136,48,58,-9,0,-19,0
-283,-9,273,146,-278,131,39,48,-9,0,-24,-4
-283,-9,273,146,-278,131,39,48,-9,0,-29,-9
-283,-9,273,146,-278,131,39,48,-9,0,-34,-14
-283,-9,273,146,-278,131,39,48,-9,0,-39,-19
-278,-19,258,148,-268,119,29,58,-9,-9,-39,-29
-273,-19,253,146,-263,117,29,58,-9,-9,-39,-29
-268,-19,248,143,-258,114,29,58,-9,-9,-39,-29
-263,-19,244,141,-253,112,29,58,-9,-9,-39,-29
-258,-9,248,134,-253,119,29,58,0,0,-48,-39
-253,-9,244,131,-248,117,29,58,0,0,-48,-39
-248,-9,239,129,-244,114,29,58,0,0,-48,-39
-244,-9,234,126,-239,112,29,58,0,0,-48,-39
-244,-19,224,131,-234,102,29,68,0,-9,-58,-53
-244,-19,224,131,-234,102,29,68,0,-9,-58,-58
-244,-19,224,131,-234,102,29,68,0,-9,-58,-63
-244,-19,224,131,-234,102,29,68,0,-9,-58,-68
-234,-9,224,122,-229,107,29,68,0,0,-58,-78
-234,-9,224,122,-229,107,29,68,0,0,-58,-78
-234,-9,224,122,-229,107,29,68,0,0,-58,-78
-234,-9,224,122,-229,107,29,68,0,0,-58,-78
-234,-19,214,126,-224,97,39,68,0,0,-68,-78
-234,-19,214,126,-224,97,39,68,0,0,-68,-78
-234,-19,214,126,-224,97,39,68,0,0,-68,-78
-234,-19,214,126,-224,97,39,68,0,0,-68,-78
-224,-9,214,117,-219,102,34,68,9,0,-78,-92
-224,-9,214,117,-219,102,29,68,9,0,-78,-97
-224,-9,214,117,-219,102,24,68,9,0,-78,-102
-224,-9,214,117,-219,102,19,68,9,0,-78,-107
-224,-19,204,122,-214,92,19,78,9,0,-78,-107
-224,-19,204,122,-214,92,19,78,9,0,-78,-107
-224,-19,204,122,-214,92,19,78,9,0,-78,-107
-224,-19,204,122,-214,92,19,78,9,0,-78,-107
-214,-9,204,112,-209,97,19,68,0,0,-78,-112
-214,-9,204,112,-209,97,19,68,0,0,-78,-117
-214,-9,204,112,-209,97,19,68,0,0,-78,-122
-214,-9,204,112,-209,97,19,68,0,0,-78,-126
-209,-9,200,109,-204,95,9,78,0,0,-87,-126
-204,-9,195,107,-200,92,9,78,0,0,-87,-126
-200,-9,190,104,-195,90,9,78,0,0,-87,-126
-195,-9,185,102,-190,87,9,78,0,0,-87,-126
-190,-19,170,104,-180,75,9,78,0,0,-87,-126
-185,-19,165,102,-175,73,9,78,0,0,-87,-126
-180,-19,161,100,-170,70,9,78,0,0,-87,-126
-175,-19,156,97,-165,68,9,78,0,0,-87,-126
-165,-9,156,87,-161,73,9,68,0,0,-87,-136
-165,-9,156,87,-161,73,9,68,0,0,-87,-136
-165,-9,156,87,-161,73,9,68,0,0,-87,-136
-165,-9,156,87,-161,73,9,68,0,0,-87,-136
-165,-19,146,92,-156,63,9,63,-9,0,-87,-136
-165,-19,146,92,-156,63,9,58,-9,0,-87,-136
-165,-19,146,92,-156,63,9,53,-9,0,-87,-136
-165,-19,146,92,-156,63,9,48,-9,0,-87,-136
-165,-19,146,92,-156,63,9,48,-19,-9,-78,-136
-165,-19,146,92,-156,63,9,48,-19,-9,-78,-136
-165,-19,146,92,-156,63,9,48,-19,-9,-78,-136
-165,-19,146,92,-156,63,9,48,-19,-9,-78,-136
-156,-29,126,92,-141,48,9,58,-9,-9,-68,-126
-156,-29,126,92,-141,48,9,58,-9,-9,-68,-126
-156,-29,126,92,-141,48,9,58,-9,-9,-68,-126
-156,-29,126,92,-141,48,9,58,-9,-9,-68,-126
-156,-24,131,90,-143,53,0,48,-19,-19,-78,-126
-156,-19,136,87,-146,58,0,48,-19,-19,-78,-126
-156,-14,141,85,-148,63,0,48,-19,-19,-78,-126
-156,-9,146,82,-151,68,0,48,-19,-19,-78,-126
-156,-19,136,87,-146,58,-9,39,-29,-19,-87,-126
-156,-19,136,87,-146,58,-9,39,-29,-19,-87,-126
-156,-19,136,87,-146,58,-9,39,-29,-19,-87,-126
-156,-19,136,87,-146,58,-9,39,-29,-19,-87,-126
-146,-9,136,78,-141,63,-9,39,-29,-29,-97,-126
-146,-9,136,78,-141,63,-9,39,-29,-29,-97,-126
-146,-9,136,78,-141,63,-9,39,-29,-29,-97,-126
-146,-9,136,78,-141,63,-9,39,-29,-29,-97,-126
-146,-9,136,78,-141,63,-9,39,-39,-29,-97,-126
-146,-9,136,78,-141,63,-9,39,-39,-29,-97,-126
-146,-9,136,78,-141,63,-9,39,-39,-29,-97,-126
-146,-9,136,78,-141,63,-9,39,-39,-29,-97,-126
-146,-9,136,78,-141,63,-19,29,-39,-39,-97,-126
-146,-9,136,78,-141,63,-19,29,-39,-39,-97,-126
-146,-9,136,78,-141,63,-19,29,-39,-39,-97,-126
-146,-9,136,78,-141,63,-19,29,-39,-39,-97,-126
-146,-9,136,78,-141,63,-19,19,-48,-39,-107,-126
-146,-9,136,78,-141,63,-19,19,-48,-39,-107,-126
-146,-9,136,78,-141,63,-19,19,-48,-39,-107,-126
-146,-9,136,78,-141,63,-19,19,-48,-39,-107,-126
-136,-9,126,73,-131,58,-19,19,-48,-48,-107,-126
-136,-9,126,73,-131,58,-19,19,-48,-48,-107,-126
-136,-9,126,73,-131,58,-19,19,-48,-48,-107,-126
-136,-9,126,73,-131,58,-19,19,-48,-48,-107,-126
-136,-9,126,73,-131,58,-29,29,-58,-48,-97,-126
-136,-9,126,73,-131,58,-29,29,-58,-48,-97,-126
-136,-9,126,73,-131,58,-29,29,-58,-48,-97,-126
-136,-9,126,73,-131,58,-29,29,-58,-48,-97,-126
-136,-9,126,73,-131,58,-29,24,-63,-48,-107,-126
-136,-9,126,73,-131,58,-29,19,-68,-48,-107,-126
-136,-9,126,73,-131,58,-29,14,-73,-48,-107,-126
-136,-9,126,73,-131,58,-29,9,-78,-48,-107,-126
-136,0,136,68,-136,68,-29,19,-68,-58,-107,-126
-136,0,136,68,-136,68,-29,19,-68,-58,-107,-126
-136,0,136,68,-136,68,-29,19,-68,-58,-107,-126
-136,0,136,68,-136,68,-29,19,-68,-58,-107,-126
-126,-9,117,68,-122,53,-39,19,-78,-68,-107,-126
-126,-9,117,68,-122,53,-39,19,-78,-68,-107,-126
-126,-9,117,68,-122,53,-39,19,-78,-68,-107,-126
-126,-9,117,68,-122,53,-39,19,-78,-68,-107,-126
-126,-9,117,68,-122,53,-39,19,-78,-68,-117,-126
-126,-9,117,68,-122,53,-39,19,-78,-68,-117,-126
-126,-9,117,68,-122,53,-39,19,-78,-68,-117,-126
-126,-9,117,68,-122,53,-39,19,-78,-68,-117,-126
-126,-19,107,73,-117,43,-39,19,-68,-68,-117,-136
-126,-19,107,73,-117,43,-39,19,-68,-68,-117,-136
-126,-19,107,73,-117,43,-39,19,-68,-68,-117,-136
-126,-19,107,73,-117,43,-39,19,-68,-68,-117,-136
-122,-14,107,68,-114,46,-39,19,-73,-78,-117,-136
-117,-9,107,63,-112,48,-39,19,-78,-78,-117,-136
-112,-4,107,58,-109,51,-39,19,-82,-78,-117,-136
-107,0,107,53,-107,53,-39,19,-87,-78,-117,-136
-112,9,122,51,-117,65,-39,9,-97,-87,-126,-146
-117,9,126,53,-122,68,-39,9,-97,-87,-126,-146
-122,9,131,56,-126,70,-39,9,-97,-87,-126,-146
-126,9,136,58,-131,73,-39,9,-97,-87,-126,-146
-117,9,126,53,-122,68,-39,0,-97,-87,-126,-146
-117,9,126,53,-122,68,-39,0,-97,-87,-126,-146
-117,9,126,53,-122,68,-39,0,-97,-87,-126,-146
-117,9,126,53,-122,68,-39,0,-97,-87,-126,-146
-112,19,131,46,-122,75,-43,0,-107,-78,-136,-151
-107,29,136,39,-122,82,-48,0,-107,-78,-136,-156
-102,39,141,31,-122,90,-53,0,-107,-78,-136,-161
-97,48,146,24,-122,97,-58,0,-107,-78,-136,-165
-97,68,165,14,-131,117,-53,4,-87,-63,-126,-151
-97,78,175,9,-136,126,-48,9,-78,-58,-117,-146
-97,87,185,4,-141,136,-43,14,-68,-53,-107,-141
-97,97,195,0,-146,146,-39,19,-58,-48,-97,-136
-87,87,175,0,-131,131,-34,19,-48,-39,-97,-131
-87,87,175,0,-131,131,-29,19,-48,-39,-97,-126
-87,87,175,0,-131,131,-24,19,-48,-39,-97,-122
-87,87,175,0,-131,131,-19,19,-48,-39,-97,-117
-87,68,156,9,-122,112,-14,29,-43,-34,-92,-112
-87,58,146,14,-117,102,-9,29,-39,-29,-87,-107
-87,48,136,19,-112,92,-4,29,-34,-24,-82,-102
-87,39,126,24,-107,82,0,29,-29,-19,-78,-97
-78,24,102,26,-90,63,4,43,-19,-19,-87,-107
-78,19,97,29,-87,58,9,48,-19,-19,-87,-107
-78,14,92,31,-85,53,14,53,-19,-19,-87,-107
-78,9,87,34,-82,48,19,58,-19,-19,-87,-107
-68,9,78,29,-73,43,9,48,-19,-24,-97,-117
-68,9,78,29,-73,43,9,48,-19,-29,-97,-117
-68,9,78,29,-73,43,9,48,-19,-34,-97,-117
-68,4,73,31,-70,39,9,48,-24,-39,-102,-122
-78,4,82,36,-80,43,-9,29,-39,-43,-102,-117
-78,4,82,36,-80,43,-19,24,-48,-43,-97,-112
-78,4,82,36,-80,43,-43,9,-53,-39,-92,-107
-73,4,78,34,-75,41,-58,0,-58,-39,-87,-92
-73,14,87,29,-80,51,-63,-4,-82,-43,-87,-92
-68,14,82,26,-75,48,-78,-14,-82,-48,-82,-87
-68,14,82,26,-75,48,-82,-24,-87,-53,-82,-87
-68,24,92,21,-80,58,-82,-24,-92,-63,-82,-92
-68,29,97,19,-82,63,-78,-24,-87,-53,-92,-92
-73,29,102,21,-87,65,-68,-19,-92,-58,-97,-92
-73,29,102,21,-87,65,-63,-19,-92,-63,-97,-97
-78,24,102,26,-90,63,-53,-14,-97,-68,-102,-102
-68,14,82,26,-75,48,-63,-9,-102,-82,-102,-112
-58,-4,53,31,-56,24,-63,-9,-107,-87,-102,-112
-58,-24,34,41,-46,4,-58,-9,-107,-92,-107,-112
-63,-48,14,56,-39,-17,-48,-9,-107,-92,-112,-117
-63,-43,19,53,-41,-12,-58,-14,-112,-97,-112,-117
-63,-43,19,53,-41,-12,-58,-14,-117,-102,-122,-112
-58,-39,19,48,-39,-9,-58,-14,-122,-107,-126,-112
-58,-39,19,48,-39,-9,-68,-19,-122,-107,-126,-112
-68,-39,29,53,-48,-4,-63,-9,-117,-97,-117,-102
-78,-34,43,56,-61,4,-58,-9,-117,-102,-122,-107
-78,-34,43,56,-61,4,-53,-9,-112,-102,-126,-112
-82,-39,43,61,-63,2,-43,-9,-112,-102,-126,-112
-87,-34,53,61,-70,9,-43,-19,-126,-112,-131,-122
-87,-39,48,63,-68,4,-34,-14,-126,-117,-141,-131
-92,-39,53,65,-73,7,-34,-14,-126,-117,-141,-141
-97,-39,58,68,-78,9,-29,-14,-126,-117,-141,-146
-87,-53,34,70,-61,-9,-39,-9,-117,-117,-136,-146
-87,-53,34,70,-61,-9,-39,-9,-117,-117,-136,-146
-87,-53,34,70,-61,-9,-34,-14,-117,-122,-141,-151
-92,-58,34,75,-63,-12,-34,-14,-117,-122,-146,-151
-102,-58,43,80,-73,-7,-34,-14,-126,-112,-146,-151
-102,-58,43,80,-73,-7,-34,-14,-131,-117,-146,-151
-102,-53,48,78,-75,-2,-34,-14,-131,-117,-156,-151
-102,-53,48,78,-75,-2,-34,-14,-131,-117,-156,-151
-102,-63,39,82,-70,-12,-34,-9,-131,-126,-156,-151
-102,-58,43,80,-73,-7,-34,-9,-131,-126,-156,-151
-107,-58,48,82,-78,-4,-34,-9,-131,-126,-156,-151
-107,-58,48,82,-78,-4,-34,-9,-126,-126,-156,-151
-97,-58,39,78,-68,-9,-34,-14,-117,-117,-146,-141
-92,-58,34,75,-63,-12,-29,-14,-117,-117,-146,-141
-92,-58,34,75,-63,-12,-29,-9,-112,-112,-146,-141
-92,-58,34,75,-63,-12,-29,-9,-112,-112,-146,-136
-92,-48,43,70,-68,-2,-34,-19,-122,-122,-151,-146
-92,-48,43,70,-68,-2,-34,-19,-117,-122,-151,-146
-92,-48,43,70,-68,-2,-39,-14,-117,-122,-151,-146
-97,-48,48,73,-73,0,-43,-14,-117,-117,-146,-146
-97,-48,48,73,-73,0,-43,-9,-117,-117,-151,-156
-97,-43,53,70,-75,4,-43,-9,-112,-117,-156,-156
-97,-43,53,70,-75,4,-43,-4,-112,-117,-161,-156
-102,-43,58,73,-80,7,-43,-4,-112,-117,-165,-156
-102,-53,48,78,-75,-2,-34,-4,-112,-117,-156,-146
-97,-53,43,75,-70,-4,-29,-4,-112,-117,-156,-146
-97,-53,43,75,-70,-4,-29,-4,-112,-117,-156,-146
-97,-58,39,78,-68,-9,-29,-4,-112,-117,-156,-151
-97,-68,29,82,-63,-19,-29,-4,-102,-107,-156,-161
-97,-63,34,80,-65,-14,-29,-4,-102,-107,-156,-161
-97,-63,34,80,-65,-14,-29,-4,-102,-107,-156,-161
-102,-63,39,82,-70,-12,-29,-4,-102,-107,-156,-161
-92,-53,39,73,-65,-7,-39,-14,-112,-122,-161,-156
-92,-53,39,73,-65,-7,-39,-14,-112,-122,-161,-156
-92,-53,39,73,-65,-7,-39,-14,-112,-122,-161,-156
-92,-53,39,73,-65,-7,-39,-14,-112,-122,-161,-156
-102,-48,53,75,-78,2,-39,-14,-112,-112,-146,-146
-102,-48,53,75,-78,2,-39,-14,-112,-107,-146,-146
-102,-48,53,75,-78,2,-39,-14,-107,-107,-146,-146
-97,-48,48,73,-73,0,-39,-14,-107,-107,-146,-146
-87,-43,43,65,-65,0,-39,-14,-107,-107,-156,-151
-97,-43,53,70,-75,4,-34,-14,-107,-107,-151,-151
-97,-43,53,70,-75,4,-34,-14,-107,-107,-151,-151
-92,-48,43,70,-68,-2,-34,-14,-107,-107,-156,-151
-102,-48,53,75,-78,2,-39,-14,-117,-117,-156,-151
-97,-43,53,70,-75,4,-39,-14,-117,-117,-156,-151
-97,-39,58,68,-78,9,-39,-19,-117,-117,-156,-151
-97,-39,58,68,-78,9,-39,-19,-122,-117,-156,-151
-97,-43,53,70,-75,4,-29,-9,-112,-107,-151,-141
-102,-34,68,68,-85,17,-39,-19,-117,-97,-151,-136
-102,-19,82,61,-92,31,-39,-19,-107,-92,-136,-136
-97,-9,87,53,-92,39,-43,-19,-87,-68,-117,-131
-87,4,92,41,-90,48,-53,-9,-43,-19,-82,-122
-73,24,97,24,-85,61,-63,0,9,58,-24,-82
-68,43,112,12,-90,78,-53,24,78,151,34,-34
-68,39,107,14,-87,73,-53,63,131,234,97,-9
-63,43,107,9,-85,75,-68,73,131,283,151,19
-48,78,126,-14,-87,102,-97,19,43,283,200,48
-48,102,151,-26,-100,126,-126,-63,-122,204,219,63
-48,122,170,-36,-109,146,-170,-180,-351,87,224,68
-53,141,195,-43,-124,168,-234,-317,-575,-19,273,112
-39,165,204,-63,-122,185,-307,-424,-756,-73,395,229
-14,190,204,-87,-109,197,-390,-531,-912,-131,570,380
4,244,239,-124,-117,241,-522,-702,-1161,-244,756,551
14,307,292,-161,-139,300,-673,-936,-1498,-400,936,741
53,346,292,-200,-119,319,-780,-1132,-1795,-566,1112,912
102,356,253,-229,-75,305,-858,-1263,-2015,-673,1307,1098
126,336,209,-231,-41,273,-922,-1385,-2186,-727,1532,1273
141,287,146,-214,-2,217,-1000,-1478,-2298,-727,1810,1464
165,224,58,-195,53,141,-1054,-1517,-2357,-717,2064,1649
190,175,-14,-183,102,80,-1063,-1542,-2376,-736,2244,1786
200,170,-29,-185,114,70,-1083,-1566,-2386,-746,2405,1917
214,165,-48,-190,131,58,-1083,-1556,-2318,-673,2605,2059
229,161,-68,-195,148,46,-1073,-1459,-2147,-512,2835,2220
283,131,-151,-207,217,-9,-1054,-1302,-1883,-307,3050,2420
331,58,-273,-195,302,-107,-1010,-1127,-1590,-122,3201,2625
346,-19,-366,-163,356,-192,-961,-1034,-1390,-9,3274,2796
366,-34,-400,-165,383,-217,-936,-971,-1244,39,3240,2928
366,-39,-405,-163,385,-222,-922,-902,-1098,29,3010,2981
366,-39,-405,-163,385,-222,-883,-814,-1000,-97,2562,2923
370,-48,-419,-161,395,-234,-800,-756,-976,-263,2132,2840
336,-78,-414,-129,375,-246,-746,-697,-927,-312,1883,2752
283,-126,-409,-78,346,-268,-658,-653,-873,-361,1581,2547
234,-190,-424,-21,329,-307,-566,-614,-854,-468,1132,2200
200,-195,-395,-2,297,-295,-483,-566,-800,-517,800,1878
180,-185,-366,2,273,-275,-419,-497,-712,-478,634,1654
122,-175,-297,26,209,-236,-361,-463,-663,-492,429,1400
82,-161,-244,39,163,-202,-317,-429,-610,-492,224,1098
53,-126,-180,36,117,-153,-273,-370,-536,-414,131,834
29,-63,-92,17,61,-78,-253,-326,-463,-351,58,649
24,39,14,-31,4,26,-258,-307,-400,-287,39,546
34,141,107,-87,-36,124,-263,-268,-307,-190,68,502
19,170,151,-95,-65,161,-229,-224,-239,-131,43,395
-24,165,190,-70,-107,178,-175,-185,-180,-117,-14,229
-53,175,229,-61,-141,202,-131,-136,-131,-73,-24,131
-53,170,224,-58,-139,197,-102,-92,-87,-34,-14,92
-68,122,190,-26,-129,156,-82,-63,-63,-14,-24,39
-78,68,146,4,-112,107,-73,-39,-39,-4,-53,0
-53,68,122,-7,-87,95,-63,0,-19,19,-68,-29
-48,48,97,0,-73,73,-43,24,4,29,-92,-73
-58,19,78,19,-68,48,-39,39,14,19,-136,-122
-58,14,73,21,-65,43,-24,48,24,9,-161,-151
-68,0,68,34,-68,34,-14,58,29,9,-165,-170
-58,-19,39,39,-48,9,-9,63,24,0,-180,-195
-63,-43,19,53,-41,-12,-4,68,29,9,-185,-204
-63,-48,14,56,-39,-17,-4,73,34,9,-185,-204
-68,-53,14,61,-41,-19,-4,78,39,9,-195,-214
-73,-53,19,63,-46,-17,-9,82,48,14,-209,-224
-73,-53,19,63,-46,-17,-9,78,39,4,-219,-239
-73,-48,24,61,-48,-12,-4,78,53,4,-219,-244
-73,-48,24,61,-48,-12,0,87,58,14,-219,-248
-82,-53,29,68,-56,-12,0,92,63,19,-209,-248
-73,-53,19,63,-46,-17,4,102,73,19,-219,-263
-68,-48,19,58,-43,-14,4,102,73,19,-214,-263
-68,-43,24,56,-46,-9,4,102,78,19,-214,-263
-68,-43,24,56,-46,-9,4,107,78,24,-214,-268
-58,-53,4,56,-31,-24,4,107,87,39,-224,-278
-58,-53,4,56,-31,-24,4,112,97,39,-224,-283
-58,-53,4,56,-31,-24,4,112,102,39,-219,-287
-58,-53,4,56,-31,-24,4,112,102,43,-219,-287
-68,-53,14,61,-41,-19,9,122,102,34,-219,-283
-68,-53,14,61,-41,-19,9,126,102,34,-224,-278
-68,-58,9,63,-39,-24,14,126,107,43,-224,-273
-68,-58,9,63,-39,-24,14,126,112,43,-219,-268
-63,-68,-4,65,-29,-36,9,117,112,53,-224,-273
-63,-68,-4,65,-29,-36,9,122,117,58,-229,-273
-58,-68,-9,63,-24,-39,14,122,117,58,-234,-283
-58,-68,-9,63,-24,-39,14,122,122,58,-239,-283
-68,-78,-9,73,-29,-43,9,122,117,58,-229,-292
-68,-78,-9,73,-29,-43,9,122,117,63,-229,-287
-68,-78,-9,73,-29,-43,14,122,117,63,-224,-287
-63,-82,-19,73,-21,-51,14,122,126,68,-214,-287
-53,-73,-19,63,-17,-46,14,126,117,58,-204,-287
-53,-73,-19,63,-17,-46,14,126,117,63,-204,-287
-63,-73,-9,68,-26,-41,14,126,122,68,-204,-287
-63,-73,-9,68,-26,-41,14,126,126,73,-204,-292
-58,-73,-14,65,-21,-43,14,141,141,82,-200,-292
-58,-73,-14,65,-21,-43,14,141,146,82,-200,-292
-58,-73,-14,65,-21,-43,19,146,146,82,-200,-292
-58,-73,-14,65,-21,-43,19,146,146,87,-200,-302
-58,-82,-24,70,-17,-53,19,146,156,92,-214,-312
-58,-82,-24,70,-17,-53,19,151,156,102,-214,-312
-58,-82,-24,70,-17,-53,19,151,161,102,-219,-312
-58,-82,-24,70,-17,-53,19,156,165,102,-219,-312
-58,-78,-19,68,-19,-48,14,156,170,102,-204,-302
-58,-73,-14,65,-21,-43,14,161,175,112,-195,-302
-58,-63,-4,61,-26,-34,14,161,180,112,-195,-302
-58,-58,0,58,-29,-29,14,165,185,122,-190,-302
-58,-82,-24,70,-17,-53,19,175,200,141,-200,-292
-53,-92,-39,73,-7,-65,24,180,204,141,-200,-292
-53,-102,-48,78,-2,-75,29,185,209,141,-204,-292
-58,-112,-53,85,-2,-82,39,185,219,151,-204,-297
-58,-107,-48,82,-4,-78,39,185,234,156,-200,-307
-53,-107,-53,80,0,-80,43,195,244,165,-200,-312
-53,-107,-53,80,0,-80,43,195,248,170,-190,-312
-53,-107,-53,80,0,-80,48,200,258,175,-190,-307
-43,-97,-53,70,4,-75,39,200,258,175,-175,-297
-43,-97,-53,70,4,-75,39,209,258,180,-165,-297
-43,-97,-53,70,4,-75,43,214,268,190,-165,-297
-43,-97,-53,70,4,-75,43,219,263,195,-165,-297
-53,-82,-29,68,-12,-56,43,219,273,200,-170,-302
-53,-78,-24,65,-14,-51,48,229,287,209,-170,-307
-53,-73,-19,63,-17,-46,53,234,297,219,-170,-312
-53,-68,-14,61,-19,-41,53,239,307,229,-170,-317
-53,-78,-24,65,-14,-51,53,239,307,229,-170,-326
-48,-78,-29,63,-9,-53,58,244,312,239,-165,-322
-48,-78,-29,63,-9,-53,58,253,322,248,-165,-322
-53,-82,-29,68,-12,-56,68,258,326,263,-180,-322
-43,-92,-48,68,2,-70,68,268,346,278,-156,-317
-43,-97,-53,70,4,-75,73,273,356,287,-146,-312
-43,-92,-48,68,2,-70,78,278,375,297,-126,-307
-53,-117,-63,85,4,-90,82,283,380,312,-117,-302
-53,-107,-53,80,0,-80,73,283,385,322,-117,-297
-43,-102,-58,73,7,-80,73,292,405,336,-112,-292
-43,-97,-53,70,4,-75,78,302,419,346,-102,-292
-48,-92,-43,70,-2,-68,78,302,434,366,-87,-287
-48,-87,-39,68,-4,-63,78,326,429,375,-97,-297
-48,-87,-39,68,-4,-63,87,326,439,385,-92,-297
-39,-82,-43,61,2,-63,92,331,453,395,-82,-297
-29,-82,-53,56,12,-68,97,336,463,414,-73,-287
-39,-92,-53,65,7,-73,97,356,478,424,-63,-278
-43,-102,-58,73,7,-80,97,361,497,444,-53,-283
-48,-102,-53,75,2,-78,107,366,502,448,-34,-283
-53,-102,-48,78,-2,-75,112,375,512,458,-19,-283
-53,-102,-48,78,-2,-75,107,375,527,473,-24,-287
-53,-102,-48,78,-2,-75,112,380,536,478,-24,-287
-48,-102,-53,75,2,-78,117,385,546,488,-19,-283
-48,-102,-53,75,2,-78,117,390,556,502,-19,-283
-34,-97,-63,65,14,-80,117,395,570,507,-9,-292
-34,-92,-58,63,12,-75,117,400,575,517,-4,-292
-43,-87,-43,65,0,-65,117,405,585,527,9,-292
-48,-82,-34,65,-7,-58,122,409,600,536,14,-292
-48,-97,-48,73,0,-73,126,400,605,546,24,-273
-48,-102,-53,75,2,-78,131,400,610,551,34,-273
-48,-112,-63,80,7,-87,136,405,614,561,43,-268
-48,-112,-63,80,7,-87,136,405,619,566,43,-263
-43,-117,-73,80,14,-95,141,414,610,580,63,-258
-43,-131,-87,87,21,-109,141,414,610,585,68,-253
-43,-136,-92,90,24,-114,146,419,610,590,82,-248
-43,-141,-97,92,26,-119,151,419,614,595,82,-244
-43,-131,-87,87,21,-109,141,409,614,595,92,-234
-43,-131,-87,87,21,-109,141,409,610,595,97,-239
-43,-107,-63,75,9,-85,141,405,605,600,102,-239
-43,-87,-43,65,0,-65,141,395,595,600,112,-229
-43,-78,-34,61,-4,-56,126,390,595,600,117,-219
-43,-87,-43,65,0,-65,122,385,585,595,126,-204
-39,-92,-53,65,7,-73,122,385,585,590,136,-204
-29,-97,-68,63,19,-82,122,380,570,590,141,-195
-39,-107,-68,73,14,-87,126,385,561,590,161,-170
-39,-112,-73,75,17,-92,122,370,541,580,161,-170
-29,-117,-87,73,29,-102,117,366,531,575,165,-161
-29,-122,-92,75,31,-107,112,356,517,570,170,-151
-29,-112,-82,70,26,-97,117,346,492,546,175,-151
-39,-107,-68,73,14,-87,107,336,468,527,185,-136
-39,-107,-68,73,14,-87,97,326,453,507,185,-126
-34,-102,-68,68,17,-85,92,317,429,488,185,-117
-43,-117,-73,80,14,-95,87,292,414,478,195,-92
-39,-122,-82,80,21,-102,87,278,390,453,195,-78
-34,-117,-82,75,24,-100,73,263,366,439,190,-68
-34,-122,-87,78,26,-104,58,244,341,409,185,-58
-24,-122,-97,73,36,-109,53,234,317,390,175,-39
-14,-126,-112,70,48,-119,58,224,292,375,170,-29
-24,-126,-102,75,39,-114,53,204,273,336,165,-24
-24,-117,-92,70,34,-104,58,190,248,317,156,-19
-24,-92,-68,58,21,-80,39,175,219,287,146,-9
-24,-87,-63,56,19,-75,34,165,200,258,136,-9
-24,-87,-63,56,19,-75,29,156,170,244,131,-9
-24,-87,-63,56,19,-75,24,141,146,219,122,-4
-34,-82,-48,58,7,-65,19,126,122,200,97,-14
-34,-78,-43,56,4,-61,19,117,102,175,97,-14
-34,-68,-34,51,0,-51,14,102,82,156,92,-14
-34,-58,-24,46,-4,-41,9,92,68,141,92,-9
-29,-68,-39,48,4,-53,4,97,53,136,92,0
-29,-68,-39,48,4,-53,-4,87,43,117,73,0
-29,-63,-34,46,2,-48,-4,78,29,102,73,0
-29,-58,-29,43,0,-43,-4,68,14,87,63,4
-39,-68,-29,53,-4,-48,0,58,9,78,48,4
-34,-63,-29,48,-2,-46,-4,53,-4,63,43,0
-34,-63,-29,48,-2,-46,-9,48,-14,53,34,0
-43,-68,-24,56,-9,-46,-14,39,-24,39,24,-4
-43,-63,-19,53,-12,-41,-24,34,-43,29,24,-9
-43,-58,-14,51,-14,-36,-24,24,-53,19,9,-9
-43,-53,-9,48,-17,-31,-24,19,-53,9,0,-9
-43,-48,-4,46,-19,-26,-24,19,-63,4,-4,-9
-43,-48,-4,46,-19,-26,-29,9,-58,-9,-9,-14
-43,-48,-4,46,-19,-26,-29,0,-73,-14,-24,-14
-43,-48,-4,46,-19,-26,-29,-4,-73,-14,-24,-19
-43,-48,-4,46,-19,-26,-29,-4,-78,-24,-29,-19
-53,-39,14,46,-34,-12,-19,4,-78,-19,-19,-9
-53,-39,14,46,-34,-12,-24,9,-78,-24,-24,-9
-48,-39,9,43,-29,-14,-24,9,-78,-29,-29,-9
-48,-34,14,41,-31,-9,-24,0,-82,-34,-34,-19
-68,-43,24,56,-46,-9,-24,0,-97,-39,-43,-29
-68,-48,19,58,-43,-14,-24,0,-97,-43,-48,-29
-68,-48,19,58,-43,-14,-24,0,-97,-43,-53,-29
-73,-48,24,61,-48,-12,-19,0,-102,-48,-58,-39
-82,-48,34,65,-58,-7,-9,9,-107,-48,-63,-34
-82,-48,34,65,-58,-7,-14,9,-107,-48,-63,-39
-78,-43,34,61,-56,-4,-14,9,-107,-53,-63,-43
-78,-39,39,58,-58,0,-14,14,-107,-53,-68,-43
-82,-29,53,56,-68,12,-14,14,-107,-43,-58,-48
-82,-29,53,56,-68,12,-14,14,-107,-43,-53,-43
-82,-29,53,56,-68,12,-14,14,-107,-43,-53,-43
-82,-29,53,56,-68,12,-14,14,-107,-43,-58,-43
-92,-39,53,65,-73,7,-14,19,-97,-43,-68,-43
-87,-39,48,63,-68,4,-9,24,-97,-43,-68,-43
-87,-39,48,63,-68,4,-9,29,-97,-43,-68,-43
-92,-43,48,68,-70,2,-9,39,-97,-43,-73,-48
-92,-43,48,68,-70,2,0,29,-97,-53,-78,-58
-92,-39,53,65,-73,7,0,24,-97,-53,-82,-63
-92,-39,53,65,-73,7,0,24,-97,-53,-87,-63
-102,-39,63,70,-82,12,0,24,-92,-53,-97,-63
-97,-53,43,75,-70,-4,0,43,-82,-39,-92,-48
-97,-58,39,78,-68,-9,4,43,-78,-39,-82,-48
-92,-63,29,78,-61,-17,4,43,-78,-34,-78,-48
-92,-68,24,80,-58,-21,4,43,-78,-34,-82,-58
-92,-63,29,78,-61,-17,4,43,-82,-34,-92,-63
-92,-58,34,75,-63,-12,4,48,-82,-34,-92,-68
-92,-53,39,73,-65,-7,4,48,-82,-34,-92,-78
-92,-48,43,70,-68,-2,4,48,-82,-34,-97,-87
-92,-43,48,68,-70,2,-4,39,-87,-34,-112,-97
-92,-39,53,65,-73,7,-4,39,-87,-39,-126,-102
-87,-34,53,61,-70,9,0,39,-82,-43,-126,-112
-87,-29,58,58,-73,14,0,39,-78,-48,-126,-122
-92,-39,53,65,-73,7,0,39,-78,-43,-122,-122
-92,-39,53,65,-73,7,0,43,-78,-34,-117,-122
-92,-39,53,65,-73,7,4,43,-78,-29,-117,-122
-92,-39,53,65,-73,7,4,48,-73,-24,-117,-122
-82,-39,43,61,-63,2,-4,48,-58,-19,-112,-122
-92,-39,53,65,-73,7,-4,48,-58,-19,-112,-126
-92,-39,53,65,-73,7,-4,48,-58,-19,-117,-126
-92,-39,53,65,-73,7,-4,48,-58,-19,-117,-131
-92,-48,43,70,-68,-2,4,48,-58,0,-117,-131
-97,-48,48,73,-73,0,9,53,-48,0,-117,-126
-97,-48,48,73,-73,0,9,53,-48,0,-112,-126
-97,-48,48,73,-73,0,9,53,-48,0,-107,-122
-97,-48,48,73,-73,0,9,53,-48,4,-97,-122
-97,-53,43,75,-70,-4,9,48,-48,4,-97,-122
-97,-53,43,75,-70,-4,9,48,-48,4,-97,-122
-102,-48,53,75,-78,2,9,53,-53,4,-97,-131
-102,-39,63,70,-82,12,9,53,-53,4,-97,-131
-97,-39,58,68,-78,9,9,53,-53,4,-97,-131
-92,-39,53,65,-73,7,9,53,-53,4,-97,-131
-92,-43,48,68,-70,2,9,53,-48,4,-97,-131
-97,-43,53,70,-75,4,9,53,-34,4,-97,-141
-97,-43,53,70,-75,4,9,58,-34,9,-92,-141
-97,-48,48,73,-73,0,9,58,-34,9,-92,-141
-97,-53,43,75,-70,-4,9,58,-29,9,-92,-141
-97,-53,43,75,-70,-4,14,48,-39,14,-92,-141
-102,-53,48,78,-75,-2,14,53,-39,14,-92,-141
-102,-53,48,78,-75,-2,14,53,-39,14,-92,-141
-97,-53,43,75,-70,-4,14,53,-43,14,-92,-141
-97,-53,43,75,-70,-4,9,53,-34,9,-92,-131
-97,-48,48,73,-73,0,9,53,-34,9,-92,-131
-97,-48,48,73,-73,0,9,53,-34,9,-87,-131
-97,-53,43,75,-70,-4,14,53,-34,9,-87,-131
-87,-48,39,68,-63,-4,9,53,-34,14,-78,-136
-92,-48,43,70,-68,-2,9,53,-34,14,-78,-136
-92,-48,43,70,-68,-2,9,53,-34,14,-78,-136
-87,-43,43,65,-65,0,9,53,-39,9,-78,-136
-97,-53,43,75,-70,-4,9,53,-48,0,-87,-146
-97,-48,48,73,-73,0,4,43,-53,0,-87,-146
-102,-48,53,75,-78,2,4,43,-53,-4,-87,-146
-102,-43,58,73,-80,7,4,43,-53,-4,-92,-146
-87,-48,39,68,-63,-4,9,43,-53,4,-92,-136
-87,-53,34,70,-61,-9,9,48,-53,4,-87,-136
-87,-63,24,75,-56,-19,9,48,-53,4,-87,-136
-87,-68,19,78,-53,-24,9,48,-53,0,-87,-136
-87,-68,19,78,-53,-24,9,53,-58,0,-78,-146
-87,-58,29,73,-58,-14,9,53,-58,0,-82,-146
-87,-58,29,73,-58,-14,9,53,-63,-4,-82,-146
-82,-63,19,73,-51,-21,4,53,-68,-4,-82,-146
-82,-58,24,70,-53,-17,4,43,-78,-14,-92,-146
-82,-58,24,70,-53,-17,4,43,-73,-14,-92,-146
-82,-53,29,68,-56,-12,4,43,-73,-14,-97,-146
-82,-48,34,65,-58,-7,0,43,-73,-19,-97,-146
-82,-48,34,65,-58,-7,9,43,-63,-9,-87,-146
-82,-53,29,68,-56,-12,9,43,-63,-14,-92,-146
-82,-58,24,70,-53,-17,14,43,-68,-14,-92,-146
-82,-63,19,73,-51,-21,14,43,-73,-14,-92,-146
-82,-58,24,70,-53,-17,14,34,-73,-24,-102,-161
-82,-53,29,68,-56,-12,4,34,-73,-24,-102,-161
-82,-48,34,65,-58,-7,4,34,-78,-24,-107,-161
-82,-43,39,63,-61,-2,4,34,-78,-24,-107,-161
-73,-34,39,53,-56,2,4,24,-78,-29,-107,-170
-73,-39,34,56,-53,-2,4,24,-78,-29,-112,-165
-73,-39,34,56,-53,-2,4,24,-78,-34,-112,-161
-73,-39,34,56,-53,-2,4,19,-82,-34,-112,-161
-68,-39,29,53,-48,-4,-4,29,-73,-24,-102,-161
-68,-39,29,53,-48,-4,-4,24,-73,-24,-107,-161
-63,-39,24,51,-43,-7,-4,24,-73,-24,-107,-165
-63,-34,29,48,-46,-2,-4,24,-78,-24,-102,-170
-63,-34,29,48,-46,-2,4,24,-78,-29,-102,-161
-68,-34,34,51,-51,0,4,24,-82,-34,-107,-161
-73,-34,39,53,-56,2,4,24,-82,-34,-107,-161
-78,-34,43,56,-61,4,4,24,-87,-29,-107,-161
-68,-34,34,51,-51,0,0,14,-87,-39,-97,-170
-68,-34,34,51,-51,0,0,14,-82,-39,-97,-165
-73,-34,39,53,-56,2,0,14,-82,-39,-97,-165
-73,-34,39,53,-56,2,0,4,-87,-43,-97,-170
-68,-34,34,51,-51,0,0,14,-78,-34,-97,-180
-68,-34,34,51,-51,0,0,14,-78,-34,-102,-180
-68,-34,34,51,-51,0,4,19,-82,-34,-102,-175
-68,-34,34,51,-51,0,4,19,-82,-34,-102,-170
-58,-34,24,46,-41,-4,4,14,-92,-29,-102,-170
-58,-34,24,46,-41,-4,4,14,-92,-34,-102,-180
-58,-29,29,43,-43,0,0,14,-92,-34,-102,-180
-58,-29,29,43,-43,0,-4,14,-92,-29,-102,-180
-58,-19,39,39,-48,9,-4,14,-87,-29,-102,-185
-58,-14,43,36,-51,14,-4,14,-87,-34,-102,-185
-58,-14,43,36,-51,14,0,14,-87,-34,-107,-185
-58,-19,39,39,-48,9,0,14,-87,-39,-107,-185
-58,-14,43,36,-51,14,-4,14,-87,-29,-97,-175
-58,0,58,29,-58,29,-4,14,-87,-29,-97,-175
-58,9,68,24,-63,39,-9,4,-87,-29,-97,-175
-58,14,73,21,-65,43,-9,4,-87,-29,-97,-175
-48,29,78,9,-63,53,4,14,-68,-19,-82,-156
-48,29,78,9,-63,53,4,19,-58,-4,-78,-151
-48,29,78,9,-63,53,9,24,-48,4,-73,-146
-43,34,78,4,-61,56,19,29,-39,14,-63,-136
-43,43,87,0,-65,65,29,24,-39,24,-68,-136
-48,48,97,0,-73,73,24,24,-39,24,-63,-136
-48,53,102,-2,-75,78,19,29,-39,24,-58,-136
-43,58,102,-7,-73,80,19,29,-34,24,-58,-136
-53,53,107,0,-80,80,19,29,-43,14,-53,-131
-53,48,102,2,-78,75,19,29,-39,14,-53,-131
-53,39,92,7,-73,65,24,24,-34,14,-48,-131
-53,34,87,9,-70,61,29,24,-34,14,-48,-131
-43,34,78,4,-61,56,29,39,-34,14,-53,-117
-43,24,68,9,-56,46,39,48,-34,14,-53,-117
-39,19,58,9,-48,39,29,58,-39,9,-58,-126
-48,19,68,14,-58,43,19,48,-39,9,-58,-117
-48,19,68,14,-58,43,19,48,-39,9,-58,-117
-48,19,68,14,-58,43,19,48,-39,9,-58,-117
-48,19,68,14,-58,43,19,48,-39,9,-58,-117
-39,24,63,7,-51,43,14,34,-53,19,-58,-117
-39,24,63,7,-51,43,4,19,-58,9,-58,-112
-39,24,63,7,-51,43,-4,9,-68,4,-53,-107
-39,24,63,7,-51,43,-29,-9,-73,4,-48,-102
-34,29,63,2,-48,46,-29,-9,-87,-9,-39,-82
-34,34,68,0,-51,51,-43,-14,-102,-9,-29,-78
-29,39,68,-4,-48,53,-58,-24,-102,-9,-24,-68
-29,43,73,-7,-51,58,-63,-34,-107,-9,-24,-63
-39,48,87,-4,-63,68,-58,-24,-102,-24,-39,-73
-39,48,87,-4,-63,68,-53,-29,-107,-24,-43,-73
-43,43,87,0,-65,65,-43,-29,-112,-29,-53,-73
-43,39,82,2,-63,61,-39,-34,-112,-34,-58,-78
-39,29,68,4,-53,48,-43,-34,-126,-39,-73,-82
-39,24,63,7,-51,43,-43,-29,-131,-43,-73,-82
-29,9,39,9,-34,24,-43,-29,-136,-48,-73,-82
-29,-4,24,17,-26,9,-39,-29,-136,-53,-78,-82
-24,-14,9,19,-17,-2,-39,-39,-126,-53,-82,-87
-24,-19,4,21,-14,-7,-39,-34,-131,-58,-82,-92
-24,-19,4,21,-14,-7,-39,-34,-136,-63,-92,-92
-19,-14,4,17,-12,-4,-39,-34,-141,-68,-97,-97
-29,-9,19,19,-24,4,-48,-29,-141,-58,-87,-92
-29,-9,19,19,-24,4,-48,-29,-146,-58,-87,-92
-39,-4,34,21,-36,14,-48,-29,-146,-63,-92,-97
-39,-4,34,21,-36,14,-48,-29,-141,-63,-97,-102
-43,-9,34,26,-39,12,-34,-29,-141,-63,-107,-102
-48,-14,34,31,-41,9,-34,-29,-146,-63,-112,-107
-48,-19,29,34,-39,4,-24,-24,-146,-68,-122,-112
-53,-19,34,36,-43,7,-24,-24,-146,-68,-122,-117
-48,-29,19,39,-34,-4,-29,-34,-156,-78,-131,-107
-48,-34,14,41,-31,-9,-29,-29,-156,-78,-126,-107
-48,-34,14,41,-31,-9,-29,-29,-156,-78,-126,-107
-48,-34,14,41,-31,-9,-24,-34,-156,-82,-131,-112
-53,-29,24,41,-39,-2,-34,-34,-156,-92,-136,-112
-53,-39,14,46,-34,-12,-34,-34,-156,-92,-136,-112
-53,-39,14,46,-34,-12,-34,-34,-161,-97,-136,-112
-53,-34,19,43,-36,-7,-34,-34,-161,-97,-146,-112
-63,-34,29,48,-46,-2,-24,-29,-151,-87,-141,-112
-63,-34,29,48,-46,-2,-24,-19,-151,-87,-136,-122
-63,-29,34,46,-48,2,-24,-14,-151,-87,-131,-122
-68,-29,39,48,-53,4,-24,-9,-151,-87,-126,-122
-68,-29,39,48,-53,4,-34,-19,-146,-87,-136,-122
-68,-29,39,48,-53,4,-34,-14,-146,-87,-136,-122
-63,-29,34,46,-48,2,-29,-14,-146,-87,-136,-122
-63,-29,34,46,-48,2,-29,-9,-141,-82,-136,-122
-63,-29,34,46,-48,2,-19,-19,-141,-82,-146,-117
-63,-29,34,46,-48,2,-19,-19,-141,-82,-141,-117
-63,-29,34,46,-48,2,-14,-19,-136,-82,-141,-117
-63,-29,34,46,-48,2,-14,-14,-136,-82,-141,-117
-68,-29,39,48,-53,4,-14,-4,-146,-78,-136,-117
-68,-29,39,48,-53,4,-14,-9,-146,-78,-136,-117
-68,-24,43,46,-56,9,-14,-9,-141,-78,-136,-117
-68,-24,43,46,-56,9,-14,-4,-141,-78,-136,-117
-73,-34,39,53,-56,2,-14,-14,-141,-78,-136,-117
-73,-34,39,53,-56,2,-14,-14,-141,-78,-136,-117
-68,-34,34,51,-51,0,-9,-14,-141,-78,-136,-117
-68,-34,34,51,-51,0,-9,-14,-141,-78,-136,-117
-78,-29,48,53,-63,9,-14,-14,-141,-87,-136,-122
-78,-29,48,53,-63,9,-19,-14,-141,-87,-136,-122
-78,-24,53,51,-65,14,-24,-14,-141,-87,-136,-122
-78,-24,53,51,-65,14,-29,-14,-141,-87,-136,-122
-73,-24,48,48,-61,12,-29,-14,-131,-78,-146,-122
-73,-24,48,48,-61,12,-29,-14,-131,-82,-151,-126
-73,-24,48,48,-61,12,-29,-14,-131,-82,-151,-126
-73,-24,48,48,-61,12,-29,-14,-131,-82,-151,-126
-73,-24,48,48,-61,12,-29,-14,-131,-92,-151,-136
-73,-19,53,46,-63,17,-29,-14,-131,-92,-146,-136
-73,-19,53,46,-63,17,-29,-14,-131,-87,-146,-136
-73,-19,53,46,-63,17,-29,-14,-126,-87,-146,-136
-68,-19,48,43,-58,14,-39,-24,-126,-87,-146,-146
-68,-24,43,46,-56,9,-39,-24,-126,-87,-146,-141
-78,-24,53,51,-65,14,-34,-24,-126,-87,-141,-141
-78,-24,53,51,-65,14,-34,-24,-126,-87,-141,-141
-73,-19,53,46,-63,17,-34,-24,-136,-87,-146,-151
-73,-19,53,46,-63,17,-39,-24,-136,-87,-146,-151
-68,-14,53,41,-61,19,-39,-24,-136,-87,-146,-151
-68,-9,58,39,-63,24,-39,-29,-136,-87,-146,-151
-68,-9,58,39,-63,24,-39,-29,-122,-87,-136,-141
-68,-4,63,36,-65,29,-39,-29,-122,-87,-141,-141
-63,-4,58,34,-61,26,-39,-29,-126,-78,-141,-146
-63,-9,53,36,-58,21,-48,-39,-117,-63,-136,-136
-58,0,58,29,-58,29,-43,-39,-107,-39,-107,-122
-58,14,73,21,-65,43,-53,-19,-73,9,-63,-102
-63,34,97,14,-80,65,-63,-19,-19,78,-14,-82
-48,53,102,-2,-75,78,-73,-4,29,161,53,-53
-48,68,117,-9,-82,92,-73,14,82,244,126,-29
-43,73,117,-14,-80,95,-87,24,102,312,190,0
-39,97,136,-29,-87,117,-107,0,34,312,248,39
-29,112,141,-41,-85,126,-126,-63,-102,234,268,63
-39,112,151,-36,-95,131,-151,-131,-302,107,292,78
-43,112,156,-34,-100,134,-204,-239,-507,-9,351,122
-29,126,156,-48,-92,141,-268,-356,-717,-102,473,209
-4,141,146,-68,-75,143,-341,-453,-893,-200,649,370
24,204,180,-114,-78,192,-463,-585,-1112,-292,863,570
53,297,244,-175,-95,270,-605,-800,-1420,-458,1063,771
73,356,283,-214,-104,319,-732,-1015,-1727,-663,1229,961
92,375,283,-234,-95,329,-810,-1146,-1947,-800,1415,1137
126,405,278,-265,-75,341,-893,-1268,-2137,-863,1649,1322
151,405,253,-278,-51,329,-941,-1390,-2288,-912,1898,1503
165,351,185,-258,-9,268,-995,-1468,-2415,-980,2103,1659
180,292,112,-236,34,202,-1034,-1503,-2483,-1058,2225,1766
180,268,87,-224,46,178,-1054,-1537,-2483,-1078,2337,1849
175,253,78,-214,48,165,-1054,-1546,-2435,-1034,2498,1952
180,229,48,-204,65,139,-1034,-1488,-2313,-922,2688,2093
214,180,-34,-197,124,73,-1015,-1351,-2088,-746,2893,2283
253,97,-156,-175,204,-29,-971,-1185,-1805,-551,3074,2508
278,39,-239,-158,258,-100,-941,-1073,-1566,-370,3206,2718
307,14,-292,-161,300,-139,-917,-990,-1381,-244,3201,2888
317,19,-297,-168,307,-139,-893,-922,-1234,-204,2991,2962
317,48,-268,-183,292,-109,-873,-883,-1156,-292,2562,2932
302,58,-244,-180,273,-92,-829,-844,-1112,-400,2200,2879
287,29,-258,-158,273,-114,-756,-795,-1054,-439,1981,2791
244,0,-244,-122,244,-122,-678,-741,-1010,-517,1629,2576
195,-43,-239,-75,217,-141,-595,-692,-951,-595,1190,2278
161,-58,-219,-51,190,-139,-522,-614,-868,-575,936,2034
141,-68,-209,-36,175,-139,-448,-546,-771,-536,741,1800
92,-68,-161,-12,126,-114,-390,-502,-702,-541,497,1498
73,-63,-136,-4,104,-100,-336,-429,-619,-483,322,1205
53,-48,-102,-2,78,-75,-292,-361,-527,-395,239,951
39,4,-34,-21,36,-14,-283,-336,-463,-341,175,746
34,97,63,-65,-14,80,-278,-307,-400,-278,165,653
24,180,156,-102,-65,168,-263,-268,-317,-190,156,570
-29,209,239,-90,-134,224,-219,-234,-258,-151,82,385
-63,214,278,-75,-170,246,-185,-195,-209,-126,4,170
-82,214,297,-65,-190,256,-151,-146,-151,-63,4,73
-73,190,263,-58,-168,226,-112,-92,-107,-24,24,34
-68,151,219,-41,-143,185,-92,-63,-73,-14,24,-9
-68,117,185,-24,-126,151,-73,-29,-48,4,4,-29
-63,87,151,-12,-107,119,-63,0,-29,19,-9,-48
-58,68,126,-4,-92,97,-43,14,-24,19,-43,-92
-58,48,107,4,-82,78,-39,29,-4,9,-78,-131
-58,34,92,12,-75,63,-24,48,14,19,-102,-170
-58,19,78,19,-68,48,-24,58,19,19,-107,-190
-68,-9,58,39,-63,24,-9,73,24,29,-112,-204
-68,-19,48,43,-58,14,-14,82,24,29,-117,-214
-63,-19,43,41,-53,12,-14,82,24,29,-117,-214
-63,-19,43,41,-53,12,-14,82,24,29,-126,-224
-63,-14,48,39,-56,17,-19,82,29,34,-141,-234
-63,-4,58,34,-61,26,-29,78,24,24,-151,-239
-63,0,63,31,-63,31,-24,78,34,24,-151,-244
-63,0,63,31,-63,31,-19,87,34,34,-151,-248
-73,-4,68,39,-70,31,-19,92,34,39,-141,-248
-73,-19,53,46,-63,17,-14,82,43,48,-151,-253
-68,-19,48,43,-58,14,-14,82,43,48,-146,-253
-68,-19,48,43,-58,14,-14,82,48,48,-146,-253
-68,-24,43,46,-56,9,-14,87,48,53,-146,-258
-68,-24,43,46,-56,9,-14,87,58,58,-156,-248
-68,-24,43,46,-56,9,-14,92,68,58,-156,-253
-68,-24,43,46,-56,9,-14,92,73,58,-151,-258
-68,-24,43,46,-56,9,-14,92,73,63,-151,-258
-78,-34,43,56,-61,4,-9,92,73,63,-151,-258
-78,-34,43,56,-61,4,-9,97,73,63,-156,-258
-78,-39,39,58,-58,0,-4,97,78,73,-156,-258
-78,-39,39,58,-58,0,-4,97,82,73,-151,-258
-73,-39,34,56,-53,-2,0,97,92,73,-151,-253
-73,-39,34,56,-53,-2,0,102,97,78,-151,-253
-68,-39,29,53,-48,-4,4,102,97,78,-151,-263
-68,-39,29,53,-48,-4,4,102,102,78,-151,-263
-78,-39,39,58,-58,0,0,112,107,78,-146,-263
-78,-39,39,58,-58,0,0,112,107,82,-151,-258
-78,-39,39,58,-58,0,4,112,107,82,-151,-258
-73,-43,29,58,-51,-7,4,112,117,87,-146,-258
-73,-43,29,58,-51,-7,4,117,126,87,-156,-258
-73,-43,29,58,-51,-7,4,117,126,92,-156,-258
-82,-43,39,63,-61,-2,4,117,131,97,-156,-258
-82,-43,39,63,-61,-2,4,117,136,102,-156,-263
-78,-53,24,65,-51,-14,4,122,141,107,-151,-263
-78,-53,24,65,-51,-14,4,122,146,112,-151,-263
-78,-53,24,65,-51,-14,9,126,146,117,-151,-263
-78,-53,24,65,-51,-14,9,126,146,126,-151,-273
-87,-53,34,70,-61,-9,9,126,156,122,-146,-273
-87,-53,34,70,-61,-9,9,131,156,131,-146,-273
-87,-53,34,70,-61,-9,9,131,161,131,-151,-273
-87,-53,34,70,-61,-9,9,136,165,131,-151,-273
-87,-53,34,70,-61,-9,14,146,170,141,-146,-273
-87,-53,34,70,-61,-9,14,151,175,151,-136,-273
-87,-48,39,68,-63,-4,14,151,180,151,-136,-273
-87,-48,39,68,-63,-4,14,156,185,161,-131,-273
-87,-43,43,65,-65,0,24,156,180,161,-131,-273
-82,-43,39,63,-61,-2,24,161,185,161,-131,-273
-82,-43,39,63,-61,-2,24,165,190,161,-136,-273
-87,-43,43,65,-65,0,29,165,200,170,-136,-278
-87,-48,39,68,-63,-4,29,156,204,175,-131,-278
-82,-48,34,65,-58,-7,34,165,214,185,-131,-283
-82,-48,34,65,-58,-7,34,165,219,190,-122,-283
-82,-48,34,65,-58,-7,39,170,229,195,-122,-278
-82,-48,34,65,-58,-7,29,170,244,214,-117,-278
-82,-48,34,65,-58,-7,29,180,248,219,-107,-278
-82,-48,34,65,-58,-7,34,185,263,229,-107,-278
-82,-48,34,65,-58,-7,34,190,263,234,-107,-278
-82,-48,34,65,-58,-7,34,190,263,239,-107,-278
-82,-48,34,65,-58,-7,39,200,278,248,-102,-278
-82,-48,34,65,-58,-7,43,204,287,258,-97,-278
-82,-48,34,65,-58,-7,43,209,297,268,-92,-278
-82,-48,34,65,-58,-7,34,209,312,287,-73,-278
-78,-48,29,63,-53,-9,39,214,322,297,-68,-273
-78,-48,29,63,-53,-9,39,224,336,307,-68,-273
-82,-53,29,68,-56,-12,48,229,346,322,-82,-273
-73,-53,19,63,-46,-17,48,239,356,326,-73,-263
-73,-48,24,61,-48,-12,53,244,366,336,-68,-263
-73,-34,39,53,-56,2,58,248,385,346,-53,-263
-82,-48,34,65,-58,-7,63,253,390,361,-48,-263
-82,-53,29,68,-56,-12,73,263,395,370,-48,-268
-73,-53,19,63,-46,-17,73,273,414,385,-43,-263
-73,-53,19,63,-46,-17,78,283,429,395,-34,-263
-78,-53,24,65,-51,-14,78,283,444,414,-19,-258
-87,-48,39,68,-63,-4,78,307,458,424,-19,-258
-87,-48,39,68,-63,-4,87,307,468,434,-14,-258
-78,-43,34,61,-56,-4,92,312,483,444,-4,-258
-68,-43,24,56,-46,-9,97,317,492,463,4,-248
-68,-53,14,61,-41,-19,97,317,497,463,0,-258
-73,-63,9,68,-41,-26,97,322,517,483,4,-263
-78,-63,14,70,-46,-24,107,326,522,488,19,-263
-82,-63,19,73,-51,-21,112,336,531,497,29,-263
-82,-63,19,73,-51,-21,117,346,556,522,29,-258
-82,-63,19,73,-51,-21,122,351,566,527,34,-258
-78,-63,14,70,-46,-24,126,356,575,536,43,-253
-78,-63,14,70,-46,-24,126,361,585,551,48,-253
-73,-63,9,68,-41,-26,131,366,590,556,48,-253
-73,-63,9,68,-41,-26,136,370,595,566,53,-253
-82,-63,19,73,-51,-21,141,375,605,575,68,-253
-87,-63,24,75,-56,-19,151,380,619,585,73,-253
-87,-78,9,82,-48,-34,146,380,624,595,82,-244
-87,-82,4,85,-46,-39,151,380,629,600,92,-244
-87,-92,-4,90,-41,-48,156,385,634,610,102,-239
-87,-92,-4,90,-41,-48,156,385,639,614,102,-234
-92,-82,9,87,-51,-36,161,375,649,610,112,-229
-92,-92,0,92,-46,-46,161,375,649,614,117,-224
-92,-92,0,92,-46,-46,165,380,649,619,131,-219
-92,-92,0,92,-46,-46,170,380,653,624,131,-214
-92,-92,0,92,-46,-46,161,380,644,634,141,-214
-92,-102,-9,97,-41,-56,161,380,639,634,146,-219
-92,-87,4,90,-48,-41,161,375,634,639,151,-219
-92,-78,14,85,-53,-31,161,366,624,639,161,-209
-92,-87,4,90,-48,-41,156,361,614,634,161,-200
-92,-97,-4,95,-43,-51,151,356,605,624,165,-185
-87,-102,-14,95,-36,-58,151,356,605,614,170,-185
-78,-107,-29,92,-24,-68,151,351,590,610,170,-175
-87,-107,-19,97,-34,-63,136,346,570,600,180,-161
-87,-102,-14,95,-36,-58,131,331,551,590,180,-161
-78,-97,-19,87,-29,-58,126,326,541,585,185,-151
-78,-92,-14,85,-31,-53,122,317,527,580,190,-141
-78,-102,-24,90,-26,-63,126,302,502,556,195,-131
-87,-97,-9,92,-39,-53,117,287,478,536,204,-117
-87,-97,-9,92,-39,-53,107,273,463,517,204,-107
-82,-92,-9,87,-36,-51,102,258,439,497,204,-97
-92,-92,0,92,-46,-46,87,244,405,468,204,-87
-87,-92,-4,90,-41,-48,87,229,380,444,204,-78
-82,-82,0,82,-41,-41,73,214,356,429,200,-73
-82,-82,0,82,-41,-41,58,195,331,400,195,-68
-82,-73,9,78,-46,-31,58,165,297,370,195,-48
-73,-78,-4,75,-34,-41,58,156,273,356,190,-39
-82,-78,4,80,-43,-36,48,136,253,317,185,-34
-82,-68,14,75,-48,-26,48,122,229,297,175,-29
-92,-63,29,78,-61,-17,39,117,195,283,175,-29
-92,-58,34,75,-63,-12,34,107,180,258,165,-29
-92,-58,34,75,-63,-12,29,97,156,248,161,-29
-92,-58,34,75,-63,-12,24,82,136,229,151,-24
-92,-58,34,75,-63,-12,9,78,122,209,136,-14
-92,-58,34,75,-63,-12,9,68,102,185,136,-14
-92,-53,39,73,-65,-7,4,53,82,165,131,-14
-92,-48,43,70,-68,-2,0,43,68,151,131,-9
-92,-39,53,65,-73,7,-4,39,53,136,112,-19
-97,-39,58,68,-78,9,-14,29,43,117,92,-19
-102,-34,68,68,-85,17,-14,19,29,102,92,-19
-107,-29,78,68,-92,24,-14,9,14,87,82,-14
-107,-34,73,70,-90,19,-19,9,9,78,78,-24
-102,-24,78,63,-90,26,-24,4,-4,63,73,-29
-102,-19,82,61,-92,31,-29,0,-14,53,63,-29
-112,-19,92,65,-102,36,-34,-9,-24,39,53,-34
-112,-9,102,61,-107,46,-34,-4,-34,39,53,-39
-112,-9,102,61,-107,46,-34,-14,-43,29,39,-39
-112,-9,102,61,-107,46,-34,-19,-43,19,29,-39
-112,-9,102,61,-107,46,-34,-19,-53,14,24,-39
-112,-9,102,61,-107,46,-29,-9,-48,0,29,-43
-112,-9,102,61,-107,46,-29,-19,-63,-4,14,-43
-112,-9,102,61,-107,46,-29,-24,-63,-4,14,-48
-112,-9,102,61,-107,46,-29,-24,-68,-14,9,-48
-122,-9,112,65,-117,51,-19,-24,-68,-9,0,-48
-122,-9,112,65,-117,51,-24,-19,-68,-14,-4,-48
-117,-9,107,63,-112,48,-24,-19,-68,-19,-9,-48
-117,-4,112,61,-114,53,-24,-29,-73,-24,-14,-58
-117,-4,112,61,-114,53,-24,-29,-78,-39,-14,-48
-117,-9,107,63,-112,48,-24,-29,-78,-43,-19,-48
-117,-9,107,63,-112,48,-24,-29,-78,-43,-24,-48
-122,-9,112,65,-117,51,-19,-29,-82,-48,-29,-58
-131,-9,122,70,-126,56,-19,-39,-78,-48,-24,-53
-131,-9,122,70,-126,56,-24,-39,-78,-48,-24,-58
-126,-4,122,65,-124,58,-24,-39,-78,-53,-24,-63
-126,0,126,63,-126,63,-24,-34,-78,-53,-29,-63
-122,0,122,61,-122,61,-24,-34,-78,-53,-39,-68
-122,0,122,61,-122,61,-24,-34,-78,-53,-34,-63
-122,0,122,61,-122,61,-24,-34,-78,-53,-34,-63
-122,0,122,61,-122,61,-24,-34,-78,-53,-39,-63
-131,-9,122,70,-126,56,-34,-34,-78,-43,-48,-63
-126,-9,117,68,-122,53,-29,-34,-78,-43,-48,-63
-126,-9,117,68,-122,53,-29,-34,-78,-43,-48,-63
-131,-14,117,73,-124,51,-29,-29,-78,-43,-53,-68
-131,-14,117,73,-124,51,-19,-19,-78,-43,-43,-68
-131,-9,122,70,-126,56,-19,-24,-78,-43,-43,-73
-131,-9,122,70,-126,56,-19,-24,-78,-43,-43,-73
-141,-9,131,75,-136,61,-19,-24,-73,-43,-48,-73
-146,-9,136,78,-141,63,-19,-14,-73,-48,-48,-78
-146,-9,136,78,-141,63,-14,-14,-68,-48,-43,-78
-141,-9,131,75,-136,61,-14,-14,-68,-43,-43,-78
-141,-9,131,75,-136,61,-14,-14,-68,-43,-53,-87
-141,-9,131,75,-136,61,-14,-14,-63,-34,-53,-87
-141,-9,131,75,-136,61,-14,-9,-63,-34,-53,-87
-141,-9,131,75,-136,61,-14,-9,-63,-34,-53,-92
-141,-9,131,75,-136,61,-14,-9,-63,-34,-58,-97
-141,-9,131,75,-136,61,-14,-9,-58,-29,-58,-92
-141,-9,131,75,-136,61,-14,-9,-58,-29,-68,-92
-136,-9,126,73,-131,58,-9,-9,-53,-29,-63,-97
-136,-9,126,73,-131,58,-9,-9,-48,-29,-58,-102
-151,-9,141,80,-146,65,-9,-9,-48,-19,-53,-102
-151,-9,141,80,-146,65,-9,-4,-48,-14,-48,-102
-151,-9,141,80,-146,65,-4,-4,-48,-14,-48,-102
-151,-9,141,80,-146,65,-4,0,-43,-14,-48,-102
-141,-9,131,75,-136,61,-4,0,-39,-9,-53,-102
-151,-9,141,80,-146,65,-4,0,-39,-9,-53,-107
-151,-9,141,80,-146,65,-4,0,-39,-9,-58,-107
-151,-9,141,80,-146,65,-4,0,-39,-9,-58,-112
-151,-9,141,80,-146,65,-14,0,-39,0,-58,-117
-156,-9,146,82,-151,68,-9,4,-29,0,-58,-117
-156,-9,146,82,-151,68,-9,4,-29,0,-53,-122
-156,-9,146,82,-151,68,-9,4,-29,0,-48,-122
-156,-9,146,82,-151,68,0,14,-19,4,-48,-112
-156,-14,141,85,-148,63,0,9,-19,4,-48,-112
-156,-14,141,85,-148,63,0,9,-19,4,-48,-112
-161,-9,151,85,-156,70,0,14,-24,4,-48,-122
-161,-9,151,85,-156,70,0,14,-24,4,-39,-112
-156,-9,146,82,-151,68,0,14,-24,4,-39,-112
-151,-9,141,80,-146,65,0,14,-24,4,-39,-112
-151,-14,136,82,-143,61,0,14,-19,4,-39,-112
-156,-14,141,85,-148,63,0,14,-24,4,-48,-112
-156,-14,141,85,-148,63,0,19,-24,9,-43,-112
-156,-19,136,87,-146,58,0,19,-24,9,-43,-112
-156,-24,131,90,-143,53,0,19,-19,9,-43,-112
-156,-24,131,90,-143,53,4,9,-29,14,-43,-102
-161,-24,136,92,-148,56,4,14,-29,14,-43,-102
-161,-24,136,92,-148,56,4,14,-29,14,-43,-102
-156,-24,131,90,-143,53,4,14,-34,14,-43,-102
-156,-24,131,90,-143,53,0,24,-24,19,-43,-102
-156,-19,136,87,-146,58,0,24,-24,19,-43,-102
-156,-19,136,87,-146,58,0,24,-24,19,-39,-102
-156,-24,131,90,-143,53,4,24,-24,19,-39,-102
-156,-29,126,92,-141,48,9,14,-34,19,-39,-97
-161,-29,131,95,-146,51,9,14,-34,14,-39,-97
-161,-29,131,95,-146,51,9,14,-34,9,-39,-97
-156,-24,131,90,-143,53,9,14,-39,0,-39,-97
-165,-24,141,95,-153,58,9,24,-39,9,-39,-97
-165,-19,146,92,-156,63,4,14,-43,9,-39,-97
-170,-19,151,95,-161,65,4,14,-43,4,-39,-97
-170,-14,156,92,-163,70,4,14,-43,4,-43,-97
-165,-14,151,90,-158,68,0,4,-53,4,-43,-97
-165,-14,151,90,-158,68,0,9,-53,4,-39,-97
-165,-19,146,92,-156,63,0,9,-53,4,-39,-97
-165,-19,146,92,-156,63,0,9,-53,0,-39,-97
-165,-19,146,92,-156,63,0,14,-48,0,-39,-97
-165,-9,156,87,-161,73,0,14,-48,0,-43,-97
-165,-9,156,87,-161,73,0,14,-53,-4,-43,-97
-161,-14,146,87,-153,65,-4,14,-58,-4,-43,-97
-170,-4,165,87,-168,80,-4,14,-58,-4,-43,-97
-170,-9,161,90,-165,75,-4,14,-53,-4,-43,-97
-170,-9,161,90,-165,75,-4,14,-53,-4,-48,-97
-170,-9,161,90,-165,75,-9,14,-53,-9,-48,-97
-170,-4,165,87,-168,80,-9,14,-63,-19,-39,-97
-170,-4,165,87,-168,80,-9,14,-63,-24,-43,-97
-170,-4,165,87,-168,80,-4,14,-68,-24,-43,-97
-170,-4,165,87,-168,80,-4,14,-73,-24,-43,-97
-170,-4,165,87,-168,80,4,4,-63,-14,-53,-102
-170,-4,165,87,-168,80,-4,4,-63,-14,-53,-102
-170,-4,165,87,-168,80,-4,4,-68,-14,-58,-102
-170,-4,165,87,-168,80,-4,4,-68,-14,-58,-102
-170,4,175,82,-173,90,-4,4,-58,-19,-58,-102
-170,0,170,85,-170,85,-4,4,-58,-19,-63,-97
-170,0,170,85,-170,85,-4,4,-58,-24,-63,-92
-170,0,170,85,-170,85,-4,0,-63,-24,-63,-92
-175,-4,170,90,-173,82,-4,9,-63,-24,-53,-92
-175,-9,165,92,-170,78,-4,4,-63,-24,-58,-92
-170,-14,156,92,-163,70,-4,4,-63,-24,-58,-97
-170,-14,156,92,-163,70,-4,4,-68,-24,-53,-102
-170,-4,165,87,-168,80,-14,4,-58,-19,-43,-92
-175,-4,170,90,-173,82,-14,4,-63,-24,-48,-92
-180,-4,175,92,-178,85,-14,4,-63,-24,-48,-92
-185,-4,180,95,-183,87,-14,4,-68,-19,-48,-92
-175,-4,170,90,-173,82,-9,-4,-68,-29,-58,-92
-175,-4,170,90,-173,82,-9,-4,-63,-29,-58,-87
-180,-4,175,92,-178,85,-9,-4,-63,-29,-58,-87
-180,-4,175,92,-178,85,-9,-14,-68,-34,-58,-92
-175,-4,170,90,-173,82,-9,-14,-68,-34,-58,-102
-175,-4,170,90,-173,82,-9,-14,-68,-34,-63,-102
-175,-4,170,90,-173,82,-4,-9,-73,-34,-63,-97
-175,-4,170,90,-173,82,-4,-9,-73,-34,-63,-92
-175,4,180,85,-178,92,-4,-14,-82,-29,-63,-92
-175,4,180,85,-178,92,-4,-14,-82,-34,-63,-102
-175,9,185,82,-180,97,-9,-14,-82,-34,-63,-102
-175,9,185,82,-180,97,-14,-14,-82,-29,-63,-102
-185,9,195,87,-190,102,-4,-4,-87,-39,-73,-107
-185,14,200,85,-192,107,-4,-4,-87,-43,-73,-107
-185,14,200,85,-192,107,0,-4,-87,-43,-78,-107
-185,9,195,87,-190,102,0,-4,-87,-48,-78,-107
-185,0,185,92,-185,92,-4,-4,-87,-48,-68,-117
-185,9,195,87,-190,102,-4,-4,-87,-48,-68,-117
-185,14,200,85,-192,107,-9,-14,-87,-48,-68,-117
-185,14,200,85,-192,107,-9,-14,-87,-48,-68,-117
-185,14,200,85,-192,107,-9,-9,-87,-48,-68,-112
-185,9,195,87,-190,102,-14,-9,-87,-43,-68,-112
-185,4,190,90,-187,97,-14,-9,-87,-43,-68,-112
-180,4,185,87,-183,95,-9,-9,-87,-43,-63,-107
-180,4,185,87,-183,95,0,-14,-87,-53,-63,-117
-185,9,195,87,-190,102,-4,-14,-87,-53,-63,-117
-185,14,200,85,-192,107,-9,-9,-87,-53,-63,-117
-180,19,200,80,-190,109,-9,-9,-82,-53,-68,-117
-190,19,209,85,-200,114,-9,-9,-82,-53,-73,-112
-190,19,209,85,-200,114,-9,-9,-78,-53,-73,-112
-190,14,204,87,-197,109,-4,-14,-73,-53,-68,-112
-190,14,204,87,-197,109,0,-14,-73,-53,-68,-112
-190,4,195,92,-192,100,-9,-9,-73,-53,-63,-107
-190,4,195,92,-192,100,-9,-9,-73,-53,-63,-107
-190,4,195,92,-192,100,-9,-9,-73,-58,-63,-107
-190,4,195,92,-192,100,-9,-9,-73,-58,-63,-107
-200,-4,195,102,-197,95,-9,-9,-73,-48,-63,-102
-195,0,195,97,-195,97,-9,-9,-73,-48,-68,-102
-190,0,190,95,-190,95,-9,-9,-73,-48,-68,-102
-190,-4,185,97,-187,90,-9,-9,-73,-48,-68,-102
-195,-14,180,104,-187,82,-4,0,-82,-53,-58,-92
-195,-14,180,104,-187,82,-4,0,-82,-48,-58,-92
-195,-14,180,104,-187,82,-4,0,-82,-48,-58,-87
-195,-14,180,104,-187,82,-9,0,-78,-48,-58,-87
-200,-4,195,102,-197,95,0,-9,-78,-53,-73,-92
-200,0,200,100,-200,100,0,-9,-78,-53,-73,-97
-200,9,209,95,-204,109,0,-9,-82,-58,-68,-102
-200,14,214,92,-207,114,-9,-9,-87,-58,-68,-107
-195,19,214,87,-204,117,-14,-9,-78,-53,-78,-107
-190,29,219,80,-204,124,-19,-14,-78,-53,-73,-97
-185,39,224,73,-204,131,-24,-14,-78,-53,-73,-92
-180,43,224,68,-202,134,-24,-14,-78,-53,-73,-92
-180,48,229,65,-204,139,-19,0,-63,-39,-63,-87
-180,43,224,68,-202,134,-14,0,-58,-34,-53,-82
-180,48,229,65,-204,139,-9,4,-53,-19,-43,-78
-180,63,244,58,-212,153,-4,9,-48,-9,-34,-73
-175,87,263,43,-219,175,0,0,-48,0,-24,-63
-175,92,268,41,-222,180,0,0,-43,-4,-24,-63
-175,92,268,41,-222,180,4,4,-39,-4,-24,-63
-175,97,273,39,-224,185,9,4,-34,-4,-24,-53
-185,122,307,31,-246,214,9,-4,-39,-4,-19,-53
-185,122,307,31,-246,214,14,-4,-43,-4,-19,-63
-185,107,292,39,-239,200,24,-4,-43,0,-29,-73
-175,97,273,39,-224,185,19,0,-39,4,-24,-63
-165,87,253,39,-209,170,29,9,-29,9,-19,-48
-165,73,239,46,-202,156,39,19,-19,0,-29,-58
-165,68,234,48,-200,151,39,19,-19,0,-29,-58
-165,63,229,51,-197,146,39,19,-19,0,-29,-58
-165,58,224,53,-195,141,39,19,-19,0,-29,-58
-165,43,209,61,-187,126,39,29,-24,9,-43,-63
-165,43,209,61,-187,126,34,19,-29,0,-48,-63
-165,43,209,61,-187,126,29,14,-39,-4,-48,-63
-165,43,209,61,-187,126,9,0,-43,-4,-48,-63
-161,53,214,53,-187,134,-9,-9,-39,-9,-48,-63
-161,53,214,53,-187,134,-24,-14,-53,-9,-39,-58
-156,53,209,51,-183,131,-39,-24,-53,-9,-34,-48
-156,53,209,51,-183,131,-43,-34,-58,-9,-34,-43
-156,63,219,46,-187,141,-43,-34,-53,-14,-29,-34
-156,68,224,43,-190,146,-43,-39,-58,-14,-24,-34
-161,68,229,46,-195,148,-39,-39,-63,-19,-24,-34
-161,68,229,46,-195,148,-39,-43,-63,-24,-19,-39
-165,73,239,46,-202,156,-34,-53,-68,-29,-34,-34
-165,73,239,46,-202,156,-34,-48,-73,-34,-34,-34
-156,63,219,46,-187,141,-34,-48,-78,-39,-34,-34
-156,53,209,51,-183,131,-29,-48,-78,-43,-39,-34
-170,29,200,70,-185,114,-19,-39,-78,-43,-43,-29
-170,9,180,80,-175,95,-19,-34,-82,-48,-43,-34
-170,-4,165,87,-168,80,-19,-34,-87,-53,-53,-34
-165,-14,151,90,-158,68,-19,-34,-92,-58,-58,-39
-156,-4,151,80,-153,73,-29,-48,-102,-58,-58,-48
-156,0,156,78,-156,78,-29,-48,-107,-58,-58,-53
-165,9,175,78,-170,92,-29,-48,-107,-63,-63,-63
-165,14,180,75,-173,97,-29,-48,-102,-63,-68,-73
-180,19,200,80,-190,109,-24,-39,-112,-73,-68,-73
-185,14,200,85,-192,107,-24,-39,-117,-73,-73,-78
-185,9,195,87,-190,102,-14,-34,-117,-78,-82,-82
-190,9,200,90,-195,104,-14,-34,-117,-78,-82,-87
-195,-4,190,100,-192,92,-9,-34,-107,-78,-73,-78
-195,-14,180,104,-187,82,-9,-29,-107,-78,-68,-78
-195,-19,175,107,-185,78,-9,-29,-107,-78,-68,-78
-195,-24,170,109,-183,73,-4,-34,-107,-82,-73,-82
-200,-29,170,114,-185,70,4,-34,-107,-82,-78,-73
-200,-39,161,119,-180,61,4,-34,-107,-82,-78,-73
-200,-39,161,119,-180,61,4,-34,-112,-87,-78,-73
-200,-34,165,117,-183,65,4,-34,-112,-87,-87,-73
-200,-34,165,117,-183,65,-4,-34,-122,-97,-97,-78
-200,-34,165,117,-183,65,-4,-29,-122,-97,-97,-92
-200,-29,170,114,-185,70,-4,-29,-122,-97,-97,-97
-204,-29,175,117,-190,73,-4,-29,-122,-97,-97,-102
-204,-39,165,122,-185,63,-4,-19,-107,-87,-97,-97
-204,-39,165,122,-185,63,-4,-14,-107,-87,-97,-92
-200,-39,161,119,-180,61,0,-14,-107,-87,-97,-87
-200,-39,161,119,-180,61,0,-9,-102,-82,-97,-82
-200,-29,170,114,-185,70,9,-9,-102,-73,-87,-87
-200,-29,170,114,-185,70,9,-9,-102,-73,-82,-87
-200,-29,170,114,-185,70,14,-9,-97,-73,-82,-87
-200,-29,170,114,-185,70,14,-4,-97,-73,-82,-87
-204,-14,190,109,-197,87,4,-14,-107,-78,-78,-87
-204,-9,195,107,-200,92,4,-19,-107,-78,-78,-87
-204,0,204,102,-204,102,4,-19,-102,-78,-78,-87
-204,4,209,100,-207,107,4,-14,-102,-78,-78,-87
-209,-9,200,109,-204,95,14,-14,-92,-68,-78,-78
-209,-14,195,112,-202,90,14,-14,-92,-68,-78,-78
-204,-19,185,112,-195,82,19,-14,-92,-68,-78,-78
-204,-24,180,114,-192,78,19,-14,-92,-68,-78,-78
-204,-34,170,119,-187,68,29,-14,-92,-68,-78,-73
-204,-39,165,122,-185,63,29,-14,-92,-68,-78,-73
-204,-39,165,122,-185,63,29,-14,-92,-68,-78,-73
-204,-43,161,124,-183,58,29,-14,-92,-68,-78,-73
-200,-39,161,119,-180,61,19,-14,-92,-68,-78,-82
-200,-34,165,117,-183,65,19,-14,-92,-73,-82,-87
-200,-29,170,114,-185,70,19,-14,-92,-73,-82,-87
-200,-24,175,112,-187,75,19,-14,-92,-73,-82,-87
-200,-19,180,109,-190,80,19,-14,-102,-73,-92,-87
-200,-9,190,104,-195,90,19,-14,-102,-73,-87,-87
-200,-4,195,102,-197,95,19,-14,-102,-68,-87,-87
-200,0,200,100,-200,100,19,-14,-97,-68,-87,-87
-195,-9,185,102,-190,87,19,-4,-97,-68,-87,-87
-195,-14,180,104,-187,82,19,-4,-97,-68,-87,-82
-204,-14,190,109,-197,87,24,-4,-97,-68,-82,-82
-204,-14,190,109,-197,87,24,-4,-97,-68,-82,-82
-200,-24,175,112,-187,75,34,4,-87,-58,-78,-78
-200,-29,170,114,-185,70,29,4,-87,-58,-78,-73
-195,-29,165,112,-180,68,29,4,-87,-58,-78,-68
-195,-29,165,112,-180,68,29,0,-87,-58,-78,-63
-195,-19,175,107,-185,78,29,-9,-92,-68,-87,-73
-195,-4,190,100,-192,92,29,-19,-92,-68,-82,-73
-200,4,204,97,-202,104,19,-19,-87,-58,-82,-78
-200,9,209,95,-204,109,19,-19,-87,-53,-78,-78
-195,9,204,92,-200,107,14,-19,-78,-39,-58,-53
-195,24,219,85,-207,122,4,-19,-43,9,-14,-24
-190,53,244,68,-217,148,-4,-9,0,78,34,-4
-185,73,258,56,-222,165,-4,14,78,170,102,24
-175,78,253,48,-214,165,-4,43,141,263,165,58
-170,82,253,43,-212,168,-9,63,170,341,219,78
-175,97,273,39,-224,185,-19,29,122,361,278,107
-165,122,287,21,-226,204,-48,-34,-24,312,317,131
-156,131,287,12,-222,209,-73,-122,-204,214,341,146
-161,141,302,9,-231,222,-117,-229,-429,97,370,180
-165,156,322,4,-244,239,-190,-356,-629,14,463,268
-141,180,322,-19,-231,251,-283,-473,-805,-63,619,400
-122,234,356,-56,-239,295,-395,-614,-1024,-156,795,570
-102,307,409,-102,-256,358,-527,-810,-1322,-302,985,751
-73,366,439,-146,-256,402,-653,-1034,-1649,-478,1161,932
-43,385,429,-170,-236,407,-751,-1185,-1888,-624,1346,1107
-9,395,405,-192,-207,400,-824,-1317,-2078,-707,1542,1283
34,395,361,-214,-163,378,-902,-1410,-2220,-717,1810,1483
58,351,292,-204,-117,322,-956,-1488,-2298,-707,2093,1688
73,273,200,-173,-63,236,-1005,-1522,-2347,-727,2283,1844
82,239,156,-161,-36,197,-1024,-1556,-2357,-766,2435,1956
87,244,156,-165,-34,200,-1024,-1576,-2327,-732,2615,2088
92,239,146,-165,-26,192,-1005,-1517,-2205,-600,2845,2239
117,200,82,-158,17,141,-985,-1381,-1971,-405,3069,2430
165,136,-29,-151,97,53,-951,-1195,-1668,-200,3259,2654
209,48,-161,-129,185,-56,-912,-1054,-1439,-48,3372,2845
229,-4,-234,-112,231,-119,-878,-1000,-1293,19,3376,2996
258,9,-248,-134,253,-119,-873,-932,-1137,48,3245,3098
268,19,-248,-143,258,-114,-824,-844,-1000,-19,2864,3098
244,-19,-263,-112,253,-141,-761,-785,-966,-185,2366,2996
209,-48,-258,-80,234,-153,-688,-746,-936,-292,2039,2869
185,-78,-263,-53,224,-170,-610,-683,-873,-312,1795,2723
136,-122,-258,-7,197,-190,-517,-624,-834,-400,1385,2435
73,-156,-229,41,151,-192,-434,-575,-790,-478,985,2093
34,-156,-190,61,112,-173,-370,-527,-722,-478,771,1820
-4,-136,-131,70,63,-134,-322,-483,-673,-473,575,1576
-34,-112,-78,73,21,-95,-278,-448,-619,-473,361,1283
-53,-87,-34,70,-9,-61,-234,-380,-527,-385,248,1019
-87,-63,24,75,-56,-19,-204,-336,-444,-322,165,785
-102,19,122,41,-112,70,-180,-307,-380,-268,117,644
-102,141,244,-19,-173,192,-165,-268,-297,-180,146,600
-117,219,336,-51,-226,278,-170,-234,-209,-92,151,522
-151,234,385,-41,-268,309,-136,-185,-161,-78,82,356
-170,234,405,-31,-287,319,-82,-146,-112,-53,34,219
-180,209,390,-14,-285,300,-43,-102,-78,-14,43,170
-195,170,366,12,-280,268,-24,-73,-43,14,43,126
-195,126,322,34,-258,224,-4,-39,-9,34,34,97
-200,97,297,51,-248,197,14,0,19,58,29,68
-195,78,273,58,-234,175,34,34,43,68,-4,24
-185,68,253,58,-219,161,39,58,63,68,-39,-34
-185,53,239,65,-212,146,43,68,73,68,-63,-63
-204,48,253,78,-229,151,43,78,78,78,-78,-82
-204,19,224,92,-214,122,48,82,73,58,-92,-107
-195,-9,185,102,-190,87,58,92,82,58,-97,-117
-190,-19,170,104,-180,75,63,92,82,58,-97,-117
-190,-29,161,109,-175,65,68,92,82,58,-107,-126
-190,-34,156,112,-173,61,68,92,87,63,-122,-136
-190,-24,165,107,-178,70,68,97,78,63,-122,-151
-190,-19,170,104,-180,75,73,97,92,63,-122,-156
-190,-19,170,104,-180,75,78,107,97,73,-122,-161
-200,-24,175,112,-187,75,78,112,102,78,-112,-161
-209,-24,185,117,-197,80,73,102,112,78,-117,-175
-204,-19,185,112,-195,82,73,102,112,78,-117,-175
-204,-14,190,109,-197,87,73,102,117,78,-122,-175
-204,-14,190,109,-197,87,73,107,117,82,-126,-180
-214,-19,195,117,-204,87,82,107,117,87,-126,-180
-214,-24,190,119,-202,82,82,112,126,87,-126,-185
-214,-29,185,122,-200,78,82,112,131,87,-122,-190
-214,-34,180,124,-197,73,82,112,131,92,-122,-190
-209,-24,185,117,-197,80,87,112,122,92,-141,-200
-204,-24,180,114,-192,78,87,117,122,92,-146,-200
-200,-29,170,114,-185,70,92,117,126,102,-146,-200
-195,-29,165,112,-180,68,92,117,131,102,-141,-200
-209,-29,180,119,-195,75,78,117,131,97,-151,-204
-209,-29,180,119,-195,75,78,122,136,97,-151,-204
-204,-29,175,117,-190,73,82,122,136,92,-151,-214
-204,-29,175,117,-190,73,82,122,141,87,-151,-214
-204,-29,175,117,-190,73,87,131,146,97,-146,-214
-204,-29,175,117,-190,73,87,131,146,102,-151,-209
-204,-29,175,117,-190,73,92,131,146,102,-151,-209
-200,-34,165,117,-183,65,92,131,156,107,-146,-209
-190,-24,165,107,-178,70,82,136,151,107,-146,-200
-190,-24,165,107,-178,70,82,136,146,112,-146,-200
-200,-24,175,112,-187,75,82,136,146,117,-146,-200
-200,-24,175,112,-187,75,82,136,146,122,-146,-204
-195,-34,161,114,-178,63,82,141,161,122,-146,-214
-195,-34,161,114,-178,63,82,141,165,122,-151,-214
-195,-34,161,114,-178,63,87,146,165,122,-156,-214
-195,-34,161,114,-178,63,87,146,165,126,-161,-224
-204,-34,170,119,-187,68,97,156,175,131,-156,-229
-204,-34,170,119,-187,68,97,161,175,141,-156,-234
-204,-34,170,119,-187,68,97,161,180,141,-161,-239
-204,-34,170,119,-187,68,97,165,185,141,-161,-244
-204,-24,180,114,-192,78,92,156,190,141,-165,-234
-204,-24,180,114,-192,78,92,161,195,151,-156,-234
-204,-19,185,112,-195,82,92,161,200,151,-156,-234
-204,-19,185,112,-195,82,92,165,204,161,-151,-234
-195,-34,161,114,-178,63,102,165,209,170,-141,-224
-190,-34,156,112,-173,61,102,170,214,170,-141,-224
-190,-34,156,112,-173,61,102,175,219,170,-146,-224
-195,-34,161,114,-178,63,107,175,229,180,-146,-229
-195,-48,146,122,-170,48,117,175,244,185,-141,-229
-190,-48,141,119,-165,46,122,185,253,195,-141,-234
-190,-48,141,119,-165,46,122,185,258,200,-131,-234
-190,-48,141,119,-165,46,126,190,268,204,-131,-229
-190,-39,151,114,-170,56,117,190,273,214,-126,-229
-190,-39,151,114,-170,56,117,200,278,219,-117,-229
-190,-39,151,114,-170,56,122,204,292,229,-117,-229
-190,-39,151,114,-170,56,122,209,292,234,-117,-229
-200,-39,161,119,-180,61,131,200,292,229,-117,-239
-200,-39,161,119,-180,61,136,209,307,239,-112,-239
-200,-39,161,119,-180,61,141,214,317,248,-107,-239
-200,-39,161,119,-180,61,141,219,326,258,-102,-239
-190,-39,151,114,-170,56,131,219,331,268,-82,-229
-185,-39,146,112,-165,53,136,224,341,278,-78,-224
-185,-39,146,112,-165,53,136,234,356,287,-78,-224
-190,-43,146,117,-168,51,146,239,366,302,-92,-224
-180,-39,141,109,-161,51,136,244,370,307,-82,-224
-180,-29,151,104,-165,61,141,244,375,317,-78,-224
-180,-9,170,95,-175,80,146,244,390,326,-63,-224
-190,-19,170,104,-180,75,151,244,390,341,-58,-224
-190,-39,151,114,-170,56,161,263,409,361,-48,-219
-180,-43,136,112,-158,46,161,273,434,375,-43,-214
-180,-48,131,114,-156,41,165,283,453,385,-34,-214
-185,-53,131,119,-158,39,165,283,473,405,-19,-209
-195,-53,141,124,-168,43,165,297,478,424,-9,-200
-195,-48,146,122,-170,48,175,297,488,434,-4,-200
-185,-39,146,112,-165,53,180,302,502,444,4,-200
-175,-34,141,104,-158,53,185,307,512,463,14,-190
-175,-34,141,104,-158,53,175,317,517,463,9,-200
-180,-43,136,112,-158,46,175,322,536,483,14,-204
-185,-43,141,114,-163,48,185,326,541,488,29,-204
-190,-43,146,117,-168,51,190,336,551,497,39,-204
-200,-43,156,122,-178,56,195,346,556,522,48,-200
-200,-43,156,122,-178,56,200,351,566,527,53,-200
-195,-43,151,119,-173,53,204,356,575,536,63,-195
-195,-43,151,119,-173,53,204,361,585,551,68,-195
-180,-43,136,112,-158,46,204,361,600,561,68,-204
-180,-43,136,112,-158,46,204,361,605,566,73,-204
-190,-43,146,117,-168,51,204,361,614,570,87,-204
-195,-43,151,119,-173,53,209,361,629,575,92,-204
-185,-48,136,117,-161,43,214,366,634,595,107,-190
-185,-53,131,119,-158,39,219,370,639,600,122,-185
-185,-63,122,124,-153,29,224,380,644,610,136,-175
-185,-63,122,124,-153,29,224,385,649,614,141,-165
-190,-53,136,122,-163,41,219,385,658,629,151,-161
-190,-63,126,126,-158,31,219,385,658,634,156,-156
-190,-63,126,126,-158,31,224,390,658,639,170,-151
-190,-63,126,126,-158,31,229,390,663,644,170,-146
-185,-63,122,124,-153,29,229,380,653,634,180,-141
-180,-73,107,126,-143,17,229,380,649,634,185,-141
-175,-58,117,117,-146,29,229,375,644,639,190,-136
-170,-48,122,109,-146,36,229,366,634,639,200,-122
-180,-53,126,117,-153,36,224,366,634,649,214,-122
-180,-68,112,124,-146,21,219,366,624,644,224,-107
-175,-78,97,126,-136,9,219,370,624,639,234,-107
-165,-87,78,126,-122,-4,219,370,610,639,239,-97
-175,-92,82,134,-129,-4,224,366,610,629,239,-82
-175,-92,82,134,-129,-4,219,351,590,619,239,-82
-165,-92,73,129,-119,-9,214,346,580,614,244,-73
-165,-92,73,129,-119,-9,209,336,566,610,248,-63
-175,-82,92,129,-134,4,214,326,541,605,258,-48
-185,-78,107,131,-146,14,204,317,517,585,273,-29
-185,-78,107,131,-146,14,195,307,502,566,278,-14
-180,-73,107,126,-143,17,190,297,478,546,283,0
-170,-63,107,117,-139,21,180,273,453,517,273,9
-165,-63,102,114,-134,19,175,258,429,492,273,19
-161,-53,107,107,-134,26,156,244,405,478,268,24
-161,-53,107,107,-134,26,136,224,380,448,263,29
-161,-58,102,109,-131,21,131,214,356,429,244,34
-151,-68,82,109,-117,7,136,204,331,414,239,39
-161,-73,87,117,-124,7,131,185,312,375,234,39
-161,-68,92,114,-126,12,136,170,287,356,224,39
-161,-48,112,104,-136,31,122,165,273,346,229,53
-161,-39,122,100,-141,41,112,156,258,317,224,58
-161,-34,126,97,-143,46,102,146,234,302,224,63
-161,-29,131,95,-146,51,92,131,214,278,219,73
-151,-39,112,95,-131,36,82,117,195,258,200,63
-151,-39,112,95,-131,36,87,107,170,234,195,63
-151,-34,117,92,-134,41,87,92,146,214,185,63
-151,-29,122,90,-136,46,87,82,126,200,180,68
-156,-39,117,97,-136,39,92,78,112,175,161,68
-156,-39,117,97,-136,39,82,68,102,156,141,68
-156,-34,122,95,-139,43,82,58,87,141,141,68
-156,-29,126,92,-141,48,82,48,73,126,131,73
-156,-14,141,85,-148,63,68,39,48,117,126,73
-151,-4,146,78,-148,70,63,34,34,102,122,68
-151,0,151,75,-151,75,58,29,24,92,112,68
-161,0,161,80,-161,80,53,19,14,78,102,63
-161,-9,151,85,-156,70,63,24,4,58,92,58
-161,-9,151,85,-156,70,63,14,-4,48,78,58
-161,-9,151,85,-156,70,63,9,-4,39,68,58
-161,-9,151,85,-156,70,63,9,-14,34,63,58
-170,-9,161,90,-165,75,58,19,-29,29,68,53
-170,-9,161,90,-165,75,58,9,-43,24,53,53
-170,-9,161,90,-165,75,58,4,-43,24,53,48
-170,-9,161,90,-165,75,58,4,-48,14,48,48
-170,-4,165,87,-168,80,48,-4,-58,0,39,39
-170,0,170,85,-170,85,43,0,-58,-4,34,39
-165,4,170,80,-168,87,43,0,-58,-9,29,39
-165,14,180,75,-173,97,43,-9,-63,-14,24,29
-165,14,180,75,-173,97,34,-19,-58,-9,14,24
-165,9,175,78,-170,92,34,-19,-58,-14,9,19
-165,9,175,78,-170,92,34,-19,-58,-14,4,14
-170,9,180,80,-175,95,39,-19,-63,-19,0,0
-170,9,180,80,-175,95,48,-29,-68,-29,-14,4
-170,9,180,80,-175,95,43,-29,-68,-29,-14,0
-165,14,180,75,-173,97,43,-29,-68,-34,-14,-4
-165,19,185,73,-175,102,43,-24,-68,-34,-19,-4
-161,14,175,73,-168,95,34,-24,-68,-34,-9,9
-161,9,170,75,-165,90,34,-24,-68,-34,-4,14
-161,4,165,78,-163,85,34,-24,-68,-34,-4,14
-161,0,161,80,-161,80,34,-24,-68,-34,-9,14
-161,0,161,80,-161,80,43,-24,-68,-24,-9,14
-156,0,156,78,-156,78,48,-24,-68,-24,-9,14
-156,0,156,78,-156,78,48,-24,-68,-24,-9,14
-161,-4,156,82,-158,75,48,-19,-68,-24,-14,9
-170,0,170,85,-170,85,48,-9,-68,-34,-19,-14
-170,9,180,80,-175,95,48,-14,-68,-34,-24,-24
-170,14,185,78,-178,100,48,-14,-68,-34,-29,-29
-180,19,200,80,-190,109,48,-14,-63,-34,-39,-34
-185,9,195,87,-190,102,48,-14,-63,-29,-48,-39
-185,9,195,87,-190,102,53,-14,-58,-29,-43,-39
-180,9,190,85,-185,100,53,-14,-58,-24,-43,-39
-180,9,190,85,-185,100,53,-14,-58,-24,-53,-48
-170,9,180,80,-175,95,53,-14,-48,-14,-43,-34
-170,9,180,80,-175,95,53,-9,-43,-14,-43,-29
-170,9,180,80,-175,95,53,-9,-39,-14,-43,-29
-170,9,180,80,-175,95,53,-9,-34,-14,-48,-29
-170,0,170,85,-170,85,53,-9,-29,-19,-43,-43
-170,0,170,85,-170,85,53,-9,-29,-19,-58,-43
-165,0,165,82,-165,82,58,-9,-24,-19,-58,-48
-165,0,165,82,-165,82,58,-9,-19,-19,-58,-53
-170,9,180,80,-175,95,58,-19,-19,-19,-58,-58
-170,9,180,80,-175,95,58,-14,-19,-14,-58,-63
-170,9,180,80,-175,95,63,-14,-19,-14,-63,-68
-170,9,180,80,-175,95,63,-9,-14,-14,-68,-73
-161,0,161,80,-161,80,63,0,-9,-9,-63,-63
-170,0,170,85,-170,85,63,0,-9,-9,-63,-68
-170,0,170,85,-170,85,63,0,-9,-9,-68,-68
-170,0,170,85,-170,85,63,0,-9,-9,-68,-73
-170,9,180,80,-175,95,73,0,-9,0,-68,-68
-175,9,185,82,-180,97,78,4,0,0,-68,-68
-175,9,185,82,-180,97,78,4,0,0,-63,-73
-175,9,185,82,-180,97,78,4,0,0,-58,-73
-165,0,165,82,-165,82,78,14,0,14,-48,-78
-165,-4,161,85,-163,78,78,9,0,14,-48,-82
-165,-4,161,85,-163,78,78,9,0,14,-48,-87
-170,0,170,85,-170,85,78,14,-4,14,-48,-102
-180,19,200,80,-190,109,78,4,-4,14,-58,-102
-175,19,195,78,-185,107,78,4,-4,14,-58,-102
-170,19,190,75,-180,104,78,4,-4,14,-58,-102
-170,14,185,78,-178,100,78,4,0,14,-58,-102
-175,-4,170,90,-173,82,78,14,4,14,-48,-102
-175,-4,170,90,-173,82,78,19,4,19,-43,-102
-175,-9,165,92,-170,78,78,19,4,19,-43,-102
-175,-14,161,95,-168,73,78,19,9,19,-43,-102
-165,-14,151,90,-158,68,82,9,9,24,-53,-102
-170,-14,156,92,-163,70,82,14,9,24,-53,-102
-170,-14,156,92,-163,70,82,14,9,24,-53,-102
-165,-14,151,90,-158,68,82,14,4,24,-53,-102
-165,-4,161,85,-163,78,68,9,-4,19,-53,-112
-165,0,165,82,-165,82,68,4,-4,19,-53,-112
-165,0,165,82,-165,82,68,0,-4,19,-48,-112
-165,-4,161,85,-163,78,73,-4,-4,19,-48,-112
-175,-9,165,92,-170,78,78,-4,-4,24,-48,-107
-180,-9,170,95,-175,80,78,-4,-4,24,-48,-107
-180,-9,170,95,-175,80,78,-4,-4,24,-48,-107
-175,-4,170,90,-173,82,78,-4,-9,19,-48,-107
-165,-4,161,85,-163,78,78,-4,0,19,-48,-117
-165,0,165,82,-165,82,73,-14,-4,19,-48,-117
-170,0,170,85,-170,85,73,-14,-4,14,-48,-117
-170,4,175,82,-173,90,73,-14,-4,14,-53,-117
-165,4,170,80,-168,87,68,-14,-14,4,-63,-117
-165,4,170,80,-168,87,68,-9,-14,4,-58,-117
-165,0,165,82,-165,82,68,-9,-14,4,-58,-117
-165,0,165,82,-165,82,68,-9,-14,0,-58,-117
-165,-9,156,87,-161,73,78,-4,-9,9,-48,-117
-165,0,165,82,-165,82,78,-4,-9,9,-53,-117
-165,0,165,82,-165,82,78,-4,-14,4,-53,-117
-161,-4,156,82,-158,75,73,-4,-19,4,-53,-117
-161,-4,156,82,-158,75,73,-14,-19,14,-53,-117
-161,-9,151,85,-156,70,73,-14,-14,14,-53,-117
-161,-9,151,85,-156,70,73,-14,-14,14,-58,-117
-161,-9,151,85,-156,70,68,-14,-14,9,-58,-117
-151,-4,146,78,-148,70,58,-14,-14,0,-58,-117
-151,-4,146,78,-148,70,58,-14,-14,-4,-63,-117
-151,-4,146,78,-148,70,63,-14,-19,-4,-63,-117
-151,-4,146,78,-148,70,63,-14,-24,-4,-63,-117
-151,-4,146,78,-148,70,73,-14,-24,-4,-63,-122
-151,-4,146,78,-148,70,63,-14,-24,-4,-63,-122
-151,-4,146,78,-148,70,63,-14,-29,-4,-68,-122
-151,-4,146,78,-148,70,63,-14,-29,-4,-68,-122
-151,-4,146,78,-148,70,63,-14,-29,0,-58,-131
-151,-9,141,80,-146,65,63,-14,-29,0,-63,-126
-151,-9,141,80,-146,65,63,-14,-29,-4,-63,-122
-151,-9,141,80,-146,65,63,-19,-34,-4,-63,-122
-156,-9,146,82,-151,68,63,-19,-34,-4,-63,-131
-156,-9,146,82,-151,68,63,-24,-34,-4,-68,-131
-151,-9,141,80,-146,65,63,-24,-34,-4,-68,-136
-151,-4,146,78,-148,70,63,-24,-39,-4,-63,-141
-146,-4,141,75,-143,68,63,-34,-39,-19,-63,-141
-146,-4,141,75,-143,68,63,-34,-43,-24,-68,-141
-146,-4,141,75,-143,68,63,-34,-43,-24,-68,-141
-146,-4,141,75,-143,68,63,-34,-48,-19,-68,-141
-136,-4,131,70,-134,63,78,-34,-48,-19,-68,-131
-136,-4,131,70,-134,63,78,-34,-43,-19,-68,-126
-141,-4,136,73,-139,65,78,-34,-43,-19,-68,-126
-141,-4,136,73,-139,65,78,-43,-48,-24,-68,-131
-136,-4,131,70,-134,63,78,-43,-48,-24,-58,-122
-136,-4,131,70,-134,63,78,-43,-48,-24,-63,-122
-136,-4,131,70,-134,63,82,-39,-53,-24,-63,-117
-136,-4,131,70,-134,63,82,-39,-53,-24,-63,-112
-146,-14,131,80,-139,58,73,-34,-53,-19,-53,-112
-146,-14,131,80,-139,58,73,-34,-53,-24,-53,-122
-146,-9,136,78,-141,63,68,-34,-53,-24,-53,-122
-146,-9,136,78,-141,63,63,-34,-53,-19,-53,-122
-156,-9,146,82,-151,68,73,-34,-48,-19,-53,-117
-156,-4,151,80,-153,73,73,-34,-48,-24,-53,-117
-156,-4,151,80,-153,73,78,-34,-48,-24,-58,-117
-156,-9,146,82,-151,68,78,-34,-48,-29,-58,-117
-151,-9,141,80,-146,65,73,-34,-58,-29,-58,-107
-146,0,146,73,-146,73,73,-34,-58,-29,-58,-107
-141,4,146,68,-143,75,68,-43,-58,-29,-58,-107
-136,4,141,65,-139,73,68,-43,-58,-29,-58,-107
-136,4,141,65,-139,73,68,-48,-58,-39,-58,-112
-136,0,136,68,-136,68,63,-48,-58,-34,-58,-112
-136,-4,131,70,-134,63,63,-48,-58,-34,-58,-112
-131,-4,126,68,-129,61,68,-48,-58,-34,-53,-107
-141,-14,126,78,-134,56,68,-43,-68,-34,-58,-97
-146,-9,136,78,-141,63,63,-43,-68,-34,-53,-97
-146,-4,141,75,-143,68,58,-39,-68,-34,-48,-97
-141,0,141,70,-141,70,58,-39,-63,-34,-48,-97
-141,0,141,70,-141,70,58,-48,-73,-34,-53,-92
-141,0,141,70,-141,70,58,-48,-68,-34,-53,-92
-141,-4,136,73,-139,65,63,-53,-63,-34,-48,-92
-141,-4,136,73,-139,65,68,-53,-63,-34,-48,-92
-141,-4,136,73,-139,65,58,-58,-63,-34,-48,-97
-141,-4,136,73,-139,65,58,-58,-63,-34,-53,-97
-141,-4,136,73,-139,65,58,-58,-63,-39,-58,-97
-141,-4,136,73,-139,65,58,-58,-63,-39,-63,-97
-151,-4,146,78,-148,70,58,-48,-63,-39,-53,-92
-146,0,146,73,-146,73,58,-48,-63,-39,-58,-92
-141,0,141,70,-141,70,58,-48,-63,-39,-58,-92
-141,-4,136,73,-139,65,58,-48,-63,-39,-58,-92
-136,4,141,65,-139,73,53,-58,-63,-34,-58,-82
-136,4,141,65,-139,73,53,-58,-63,-29,-58,-82
-136,4,141,65,-139,73,53,-58,-63,-29,-58,-78
-136,4,141,65,-139,73,48,-58,-58,-29,-58,-78
-141,24,165,58,-153,95,48,-48,-48,-19,-53,-73
-141,29,170,56,-156,100,48,-48,-48,-14,-53,-68
-141,39,180,51,-161,109,48,-48,-53,-14,-48,-63
-141,43,185,48,-163,114,39,-48,-58,-9,-48,-58
-131,58,190,36,-161,124,43,-39,-53,4,-43,-58
-131,68,200,31,-165,134,48,-43,-48,4,-34,-48
-131,78,209,26,-170,143,53,-43,-43,4,-29,-43
-131,82,214,24,-173,148,63,-43,-39,4,-24,-43
-141,82,224,29,-183,153,63,-43,-39,4,-24,-34
-141,73,214,34,-178,143,63,-48,-39,4,-24,-34
-141,73,214,34,-178,143,63,-48,-39,14,-24,-34
-141,82,224,29,-183,153,63,-48,-39,19,-24,-34
-126,63,190,31,-158,126,63,-39,-34,19,-24,-34
-136,63,200,36,-168,131,68,-39,-34,4,-24,-34
-136,58,195,39,-165,126,68,-39,-29,9,-29,-29
-126,48,175,39,-151,112,68,-29,-19,9,-29,-39
-126,48,175,39,-151,112,68,-29,-19,9,-29,-39
-126,48,175,39,-151,112,68,-29,-19,9,-29,-39
-126,48,175,39,-151,112,68,-29,-19,9,-29,-39
-126,43,170,41,-148,107,68,-19,-24,19,-24,-34
-126,43,170,41,-148,107,63,-29,-29,9,-29,-34
-126,43,170,41,-148,107,58,-34,-39,4,-29,-34
-126,43,170,41,-148,107,39,-48,-43,4,-29,-34
-122,43,165,39,-143,104,39,-58,-39,9,-19,-14
-122,43,165,39,-143,104,24,-63,-53,9,-9,-9
-117,43,161,36,-139,102,9,-73,-53,9,-4,0
-117,43,161,36,-139,102,4,-82,-58,9,-4,4
-117,53,170,31,-143,112,14,-92,-73,-4,-14,-4
-117,58,175,29,-146,117,14,-97,-78,-4,-14,-4
-122,58,180,31,-151,119,19,-97,-82,-9,-19,-4
-122,58,180,31,-151,119,19,-102,-82,-14,-19,-9
-126,43,170,41,-148,107,24,-92,-92,-29,-34,-14
-126,43,170,41,-148,107,24,-87,-102,-34,-34,-14
-117,34,151,41,-134,92,24,-87,-112,-39,-34,-14
-117,24,141,46,-129,82,29,-87,-117,-43,-39,-14
-112,19,131,46,-122,75,34,-78,-117,-43,-53,-29
-112,9,122,51,-117,65,29,-73,-122,-48,-53,-34
-112,4,117,53,-114,61,24,-73,-126,-53,-63,-34
-107,4,112,51,-109,58,19,-73,-131,-58,-68,-39
-117,0,117,58,-117,58,19,-87,-122,-58,-68,-43
-117,0,117,58,-117,58,19,-87,-126,-58,-68,-43
-126,4,131,61,-129,68,19,-87,-126,-63,-73,-48
-126,4,131,61,-129,68,19,-87,-122,-63,-78,-53
-131,9,141,61,-136,75,24,-78,-112,-63,-78,-63
-136,4,141,65,-139,73,24,-78,-117,-63,-82,-68
-136,0,136,68,-136,68,34,-73,-117,-68,-92,-73
-141,0,141,70,-141,70,34,-73,-117,-68,-92,-78
-136,-9,126,73,-131,58,39,-82,-117,-78,-92,-87
-136,-14,122,75,-129,53,39,-78,-117,-78,-87,-87
-136,-14,122,75,-129,53,39,-78,-117,-78,-87,-87
-136,-14,122,75,-129,53,43,-82,-117,-82,-92,-92
-141,-9,131,75,-136,61,34,-82,-126,-82,-97,-92
-141,-19,122,80,-131,51,34,-82,-126,-82,-97,-92
-141,-19,122,80,-131,51,34,-82,-131,-87,-97,-92
-141,-14,126,78,-134,56,34,-82,-131,-87,-107,-92
-141,-24,117,82,-129,46,34,-73,-122,-87,-107,-82
-141,-24,117,82,-129,46,34,-68,-122,-87,-107,-92
-141,-19,122,80,-131,51,34,-68,-122,-87,-107,-92
-146,-19,126,82,-136,53,34,-68,-122,-87,-107,-92
-156,-19,136,87,-146,58,34,-68,-117,-87,-117,-92
-156,-19,136,87,-146,58,34,-63,-117,-87,-117,-92
-151,-19,131,85,-141,56,39,-63,-117,-87,-117,-92
-151,-19,131,85,-141,56,39,-58,-112,-82,-117,-92
-141,-19,122,80,-131,51,39,-58,-122,-82,-117,-97
-141,-19,122,80,-131,51,39,-58,-122,-82,-112,-97
-141,-19,122,80,-131,51,43,-58,-117,-82,-112,-97
-141,-19,122,80,-131,51,43,-53,-117,-82,-112,-97
-156,-29,126,92,-141,48,53,-63,-112,-78,-107,-97
-156,-29,126,92,-141,48,53,-68,-107,-78,-107,-97
-156,-24,131,90,-143,53,53,-68,-97,-78,-107,-97
-156,-24,131,90,-143,53,53,-63,-92,-78,-107,-97
-151,-24,126,87,-139,51,43,-63,-102,-78,-107,-107
-151,-24,126,87,-139,51,43,-63,-102,-78,-107,-107
-146,-24,122,85,-134,48,48,-63,-102,-78,-107,-107
-146,-24,122,85,-134,48,48,-63,-102,-78,-107,-107
-156,-29,126,92,-141,48,58,-53,-112,-78,-107,-102
-156,-29,126,92,-141,48,58,-53,-112,-78,-107,-102
-156,-24,131,90,-143,53,58,-53,-112,-78,-107,-102
-156,-24,131,90,-143,53,58,-53,-112,-78,-107,-102
-151,-24,126,87,-139,51,58,-63,-102,-78,-117,-112
-151,-24,126,87,-139,51,58,-63,-102,-82,-122,-117
-151,-24,126,87,-139,51,58,-63,-102,-82,-122,-117
-151,-24,126,87,-139,51,58,-63,-102,-82,-122,-117
-151,-24,126,87,-139,51,58,-53,-112,-73,-122,-107
-151,-19,131,85,-141,56,58,-53,-112,-73,-117,-107
-151,-19,131,85,-141,56,58,-53,-112,-68,-117,-107
-151,-19,131,85,-141,56,58,-53,-107,-68,-117,-107
-146,-19,126,82,-136,53,58,-53,-107,-78,-107,-117
-146,-24,122,85,-134,48,58,-53,-107,-78,-107,-112
-156,-24,131,90,-143,53,63,-53,-107,-78,-102,-112
-156,-24,131,90,-143,53,63,-53,-107,-78,-102,-112
-151,-19,131,85,-141,56,53,-63,-107,-78,-107,-122
-151,-19,131,85,-141,56,48,-63,-107,-78,-107,-122
-146,-14,131,80,-139,58,48,-63,-107,-78,-107,-122
-146,-9,136,78,-141,63,48,-68,-107,-78,-107,-122
-156,-19,136,87,-146,58,58,-58,-102,-78,-107,-122
-156,-14,141,85,-148,63,58,-48,-102,-78,-102,-112
-161,-14,146,87,-153,65,48,-58,-97,-68,-92,-117
-161,-9,151,85,-156,70,48,-58,-97,-53,-87,-117
-146,9,156,68,-151,82,43,-68,-87,-29,-68,-102
-126,34,161,46,-143,97,34,-68,-63,19,-34,-82
-141,43,185,48,-163,114,14,-68,-29,78,14,-53
-146,63,209,41,-178,136,14,-43,29,161,82,-24
-136,78,214,29,-175,146,24,-4,102,253,156,0
-131,82,214,24,-173,148,9,-4,112,331,209,29
-126,97,224,14,-175,161,-19,-48,43,322,258,58
-126,122,248,2,-187,185,-39,-112,-112,253,287,73
-126,122,248,2,-187,185,-73,-200,-312,126,302,87
-112,131,244,-9,-178,187,-136,-307,-527,9,341,122
-107,146,253,-19,-180,200,-209,-424,-727,-82,463,229
-92,170,263,-39,-178,217,-292,-512,-893,-161,649,380
-53,224,278,-85,-165,251,-395,-653,-1102,-244,854,561
-34,307,341,-136,-187,324,-527,-858,-1410,-409,1044,751
-14,356,370,-170,-192,363,-653,-1063,-1727,-595,1210,932
14,385,370,-200,-178,378,-741,-1205,-1947,-732,1395,1098
39,405,366,-222,-163,385,-814,-1327,-2127,-785,1610,1283
53,395,341,-224,-143,368,-873,-1420,-2278,-824,1869,1464
78,351,273,-214,-97,312,-936,-1498,-2396,-883,2064,1620
92,302,209,-197,-58,256,-985,-1551,-2454,-961,2196,1727
92,268,175,-180,-41,222,-995,-1576,-2454,-980,2318,1820
78,244,165,-161,-43,204,-985,-1566,-2396,-927,2488,1932
92,229,136,-161,-21,183,-966,-1498,-2254,-795,2698,2074
126,180,53,-153,36,117,-946,-1361,-2010,-610,2913,2264
165,107,-58,-136,112,24,-902,-1195,-1727,-395,3123,2498
200,48,-151,-124,175,-51,-863,-1083,-1498,-224,3254,2718
219,43,-175,-131,197,-65,-839,-1019,-1322,-107,3279,2898
239,58,-180,-148,209,-61,-824,-951,-1176,-78,3089,2991
239,68,-170,-153,204,-51,-785,-893,-1088,-175,2688,2971
214,58,-156,-136,185,-48,-741,-854,-1054,-302,2288,2918
190,48,-141,-119,165,-46,-658,-805,-995,-361,2049,2849
165,19,-146,-92,156,-63,-580,-761,-961,-439,1708,2664
117,-24,-141,-46,129,-82,-507,-712,-932,-536,1259,2366
82,-39,-122,-21,102,-80,-434,-644,-849,-536,976,2122
53,-39,-92,-7,73,-65,-370,-585,-751,-507,790,1898
14,-39,-53,12,34,-46,-302,-531,-692,-502,536,1605
-14,-43,-29,29,7,-36,-248,-468,-619,-463,341,1302
-34,-19,14,26,-24,-2,-204,-400,-527,-375,248,1049
-48,14,63,17,-56,39,-185,-356,-444,-312,175,854
-53,107,161,-26,-107,134,-180,-346,-370,-248,156,751
-63,190,253,-63,-158,222,-165,-307,-278,-161,165,678
-107,219,326,-56,-217,273,-131,-263,-209,-122,92,483
-141,224,366,-41,-253,295,-87,-224,-170,-107,4,248
-161,234,395,-36,-278,314,-53,-175,-122,-63,-14,131
-170,209,380,-19,-275,295,-24,-131,-78,-4,4,102
-165,161,326,2,-246,244,4,-92,-43,14,-4,58
-165,117,283,24,-224,200,24,-58,-19,24,-14,19
-161,87,248,36,-204,168,43,-29,9,39,-19,0
-156,68,224,43,-190,146,53,-4,24,48,-53,-34
-146,48,195,48,-170,122,58,9,34,39,-97,-73
-146,24,170,61,-158,97,73,19,43,48,-112,-102
-156,9,165,73,-161,87,73,29,48,48,-126,-122
-146,-9,136,78,-141,63,87,34,53,48,-141,-146
-151,-29,122,90,-136,46,92,43,53,39,-136,-156
-151,-29,122,90,-136,46,92,43,53,39,-136,-156
-156,-29,126,92,-141,48,92,43,53,39,-146,-165
-161,-24,136,92,-148,56,87,43,58,43,-161,-175
-161,-19,141,90,-151,61,78,39,58,43,-161,-190
-161,-9,151,85,-156,70,82,39,73,43,-161,-195
-161,-4,156,82,-158,75,87,48,78,53,-161,-200
-170,-4,165,87,-168,80,87,53,82,58,-151,-200
-170,-19,151,95,-161,65,92,63,82,58,-161,-204
-165,-19,146,92,-156,63,92,63,82,58,-156,-204
-165,-19,146,92,-156,63,92,63,87,58,-156,-204
-165,-24,141,95,-153,58,92,68,87,63,-156,-209
-175,-24,151,100,-163,63,102,68,78,68,-165,-200
-175,-24,151,100,-163,63,102,73,87,68,-165,-204
-175,-24,151,100,-163,63,102,73,92,68,-161,-209
-175,-24,151,100,-163,63,102,73,92,73,-161,-209
-165,-24,141,95,-153,58,97,73,92,73,-161,-209
-165,-24,141,95,-153,58,97,78,92,73,-165,-209
-165,-29,136,97,-151,53,102,78,97,82,-165,-209
-165,-29,136,97,-151,53,102,78,102,82,-161,-209
-161,-29,131,95,-146,51,107,78,102,92,-161,-224
-161,-29,131,95,-146,51,107,82,107,97,-161,-224
-156,-29,126,92,-141,48,112,82,107,97,-161,-234
-156,-29,126,92,-141,48,112,82,112,97,-161,-234
-165,-39,126,102,-146,43,97,82,117,87,-165,-224
-165,-39,126,102,-146,43,97,82,117,92,-170,-219
-165,-39,126,102,-146,43,102,82,117,92,-170,-219
-161,-43,117,102,-139,36,102,82,126,97,-165,-219
-151,-34,117,92,-134,41,102,78,126,97,-175,-219
-151,-34,117,92,-134,41,102,78,126,102,-175,-219
-161,-34,126,97,-143,46,102,78,131,107,-175,-219
-161,-34,126,97,-143,46,102,78,136,112,-175,-224
-165,-34,131,100,-148,48,112,92,151,112,-170,-224
-165,-34,131,100,-148,48,112,92,156,112,-170,-224
-165,-34,131,100,-148,48,117,97,156,112,-170,-224
-165,-34,131,100,-148,48,117,97,156,117,-170,-234
-165,-34,131,100,-148,48,117,97,165,122,-165,-234
-165,-34,131,100,-148,48,117,102,165,131,-165,-234
-165,-34,131,100,-148,48,117,102,170,131,-170,-234
-165,-34,131,100,-148,48,117,107,175,131,-170,-234
-156,-34,122,95,-139,43,122,97,170,131,-175,-244
-156,-34,122,95,-139,43,122,102,175,141,-165,-244
-156,-29,126,92,-141,48,122,102,180,141,-165,-244
-156,-29,126,92,-141,48,122,107,185,151,-161,-244
-165,-34,131,100,-148,48,122,107,200,161,-151,-244
-161,-34,126,97,-143,46,122,112,204,161,-151,-244
-161,-34,126,97,-143,46,122,117,209,161,-156,-244
-165,-34,131,100,-148,48,126,117,219,170,-156,-248
-165,-39,126,102,-146,43,126,117,224,175,-151,-248
-161,-39,122,100,-141,41,131,126,234,185,-151,-253
-161,-39,122,100,-141,41,131,126,239,190,-141,-253
-161,-39,122,100,-141,41,136,131,248,195,-141,-248
-161,-39,122,100,-141,41,136,131,253,204,-136,-248
-161,-39,122,100,-141,41,136,141,258,209,-126,-248
-161,-39,122,100,-141,41,141,146,273,219,-126,-248
-161,-39,122,100,-141,41,141,151,273,224,-126,-248
-170,-39,131,104,-151,46,141,141,283,229,-126,-248
-170,-39,131,104,-151,46,146,151,297,239,-122,-248
-170,-39,131,104,-151,46,151,156,307,248,-117,-248
-170,-39,131,104,-151,46,151,161,317,258,-112,-248
-165,-29,136,97,-151,53,151,170,322,278,-112,-248
-156,-29,126,92,-141,48,156,175,331,287,-107,-244
-151,-29,122,90,-136,46,156,185,346,297,-107,-244
-151,-34,117,92,-134,41,165,190,356,312,-122,-244
-151,-39,112,95,-131,36,165,200,366,317,-102,-244
-151,-39,112,95,-131,36,170,204,375,326,-97,-244
-151,-29,122,90,-136,46,175,209,395,336,-82,-244
-161,-48,112,104,-136,31,180,214,400,351,-78,-244
-161,-43,117,102,-139,36,180,224,414,361,-78,-229
-151,-43,107,97,-129,31,180,234,434,375,-73,-224
-151,-43,107,97,-129,31,185,244,448,385,-63,-224
-156,-43,112,100,-134,34,185,244,463,405,-48,-219
-165,-48,117,107,-141,34,195,268,468,405,-48,-229
-165,-48,117,107,-141,34,204,268,478,414,-43,-229
-156,-43,112,100,-134,34,209,273,492,424,-34,-229
-146,-43,102,95,-124,29,214,278,502,444,-24,-219
-146,-43,102,95,-124,29,204,287,517,453,-29,-219
-151,-53,97,102,-124,21,204,292,536,473,-24,-224
-156,-53,102,104,-129,24,214,297,541,478,-9,-224
-161,-53,107,107,-134,26,219,307,551,488,0,-224
-161,-53,107,107,-134,26,234,317,566,502,0,-219
-161,-53,107,107,-134,26,239,322,575,507,4,-219
-156,-53,102,104,-129,24,244,326,585,517,14,-214
-156,-53,102,104,-129,24,244,331,595,531,19,-214
-151,-63,87,107,-119,12,244,326,590,536,19,-214
-151,-63,87,107,-119,12,244,331,595,546,24,-214
-161,-63,97,112,-129,17,244,336,605,556,39,-214
-165,-63,102,114,-134,19,248,341,619,566,43,-214
-165,-68,97,117,-131,14,253,351,624,585,53,-204
-165,-73,92,119,-129,9,258,351,629,590,63,-204
-165,-82,82,124,-124,0,263,356,634,600,73,-200
-165,-82,82,124,-124,0,263,356,639,605,73,-195
-161,-73,87,117,-124,7,248,356,649,610,82,-190
-161,-82,78,122,-119,-2,248,356,649,614,87,-185
-161,-82,78,122,-119,-2,253,361,649,619,102,-180
-161,-82,78,122,-119,-2,258,361,653,624,102,-175
-161,-82,78,122,-119,-2,258,361,653,624,112,-175
-161,-92,68,126,-114,-12,258,361,649,624,117,-180
-161,-78,82,119,-122,2,258,356,644,629,122,-180
-161,-68,92,114,-126,12,258,346,634,629,131,-170
-161,-78,82,119,-122,2,253,341,634,629,136,-161
-161,-87,73,124,-117,-7,248,336,624,624,146,-146
-156,-92,63,124,-109,-14,248,336,624,619,156,-146
-146,-97,48,122,-97,-24,248,331,610,619,161,-136
-156,-92,63,124,-109,-14,234,322,595,600,170,-122
-156,-92,63,124,-109,-14,229,302,570,590,170,-122
-146,-92,53,119,-100,-19,224,292,556,585,175,-112
-146,-92,53,119,-100,-19,219,278,536,580,180,-102
-146,-102,43,124,-95,-29,224,278,512,575,175,-102
-156,-97,58,126,-107,-19,214,268,488,556,185,-87
-156,-97,58,126,-107,-19,204,258,473,536,185,-78
-151,-92,58,122,-104,-17,200,248,448,517,185,-68
-151,-92,58,122,-104,-17,195,234,434,497,195,-58
-146,-92,53,119,-100,-19,195,219,409,473,195,-48
-141,-82,58,112,-100,-12,180,204,385,458,190,-43
-141,-82,58,112,-100,-12,165,185,361,429,185,-39
-141,-73,68,107,-104,-2,146,165,326,409,185,-29
-131,-78,53,104,-92,-12,146,156,302,395,180,-19
-141,-78,63,109,-102,-7,136,136,283,356,175,-14
-141,-68,73,104,-107,2,136,122,258,336,165,-9
-141,-53,87,97,-114,17,126,117,224,317,156,0
-141,-48,92,95,-117,21,122,107,209,287,146,0
-141,-48,92,95,-117,21,117,97,185,273,141,0
-141,-48,92,95,-117,21,112,82,165,248,131,4
-141,-48,92,95,-117,21,97,68,141,229,117,4
-141,-48,92,95,-117,21,97,58,122,204,117,4
-141,-43,97,92,-119,26,92,43,102,185,112,4
-141,-39,102,90,-122,31,87,34,87,170,112,9
-136,-29,107,82,-122,39,82,19,63,156,92,0
-136,-29,107,82,-122,39,73,9,53,136,73,0
-136,-24,112,80,-124,43,73,0,39,122,73,0
-136,-19,117,78,-126,48,73,-9,24,107,63,4
-136,-19,117,78,-126,48,68,-9,19,97,68,-4
-131,-14,117,73,-124,51,63,-14,4,82,63,-9
-131,-14,117,73,-124,51,58,-19,-4,73,53,-9
-141,-19,122,80,-131,51,53,-29,-14,58,43,-14
-141,-9,131,75,-136,61,53,-24,-34,58,43,-9
-141,-9,131,75,-136,61,53,-34,-43,48,29,-9
-141,-9,131,75,-136,61,53,-39,-43,39,19,-9
-141,-9,131,75,-136,61,53,-39,-53,34,14,-9
-141,0,141,70,-141,70,48,-39,-58,9,9,-14
-141,0,141,70,-141,70,48,-48,-73,4,-4,-14
-141,0,141,70,-141,70,48,-53,-73,4,-4,-19
-141,0,141,70,-141,70,48,-53,-78,-4,-9,-19
-141,-9,131,75,-136,61,48,-53,-87,-9,0,-19
-141,-9,131,75,-136,61,43,-48,-87,-14,-4,-19
-136,-9,126,73,-131,58,43,-48,-87,-19,-9,-19
-136,-4,131,70,-134,63,43,-58,-92,-24,-14,-29
-146,-4,141,75,-143,68,43,-58,-87,-19,-14,-19
-146,-9,136,78,-141,63,43,-58,-87,-24,-19,-19
-146,-9,136,78,-141,63,43,-58,-87,-24,-24,-19
-151,-9,141,80,-146,65,48,-58,-92,-29,-29,-29
-141,0,141,70,-141,70,39,-58,-97,-29,-34,-24
-141,0,141,70,-141,70,34,-58,-97,-29,-34,-29
-136,4,141,65,-139,73,34,-58,-97,-34,-34,-34
-136,9,146,63,-141,78,34,-53,-97,-34,-39,-34
-141,0,141,70,-141,70,34,-43,-97,-34,-48,-39
-141,0,141,70,-141,70,34,-43,-97,-34,-43,-34
-141,0,141,70,-141,70,34,-43,-97,-34,-43,-34
-141,0,141,70,-141,70,34,-43,-97,-34,-48,-34
-141,9,151,65,-146,80,34,-53,-97,-34,-58,-43
-136,9,146,63,-141,78,39,-53,-97,-34,-58,-43
-136,9,146,63,-141,78,39,-53,-97,-34,-58,-43
-141,4,146,68,-143,75,39,-48,-97,-34,-63,-48
-141,4,146,68,-143,75,39,-39,-87,-34,-63,-48
-141,9,151,65,-146,80,39,-43,-87,-34,-63,-53
-141,9,151,65,-146,80,39,-43,-87,-34,-63,-53
-151,9,161,70,-156,85,39,-43,-82,-34,-68,-53
-146,9,156,68,-151,82,48,-43,-73,-29,-68,-58
-146,9,156,68,-151,82,53,-43,-68,-29,-63,-58
-141,9,151,65,-146,80,53,-43,-68,-24,-63,-58
-141,9,151,65,-146,80,53,-43,-68,-24,-73,-68
-141,9,151,65,-146,80,43,-43,-63,-24,-73,-68
-141,9,151,65,-146,80,43,-39,-63,-24,-73,-68
-141,9,151,65,-146,80,43,-39,-63,-24,-73,-73
-141,9,151,65,-146,80,43,-39,-63,-24,-78,-78
-141,9,151,65,-146,80,53,-39,-58,-19,-73,-73
-141,9,151,65,-146,80,53,-39,-58,-19,-87,-73
-136,9,146,63,-141,78,58,-39,-53,-19,-87,-78
-136,9,146,63,-141,78,58,-39,-48,-19,-87,-82
-141,0,141,70,-141,70,58,-39,-48,-19,-82,-82
-141,0,141,70,-141,70,58,-34,-48,-14,-78,-82
-141,0,141,70,-141,70,63,-34,-48,-14,-78,-82
-141,0,141,70,-141,70,63,-29,-43,-14,-78,-82
-131,0,131,65,-131,65,63,-29,-39,-9,-82,-92
-141,0,141,70,-141,70,63,-29,-39,-9,-82,-97
-141,0,141,70,-141,70,63,-29,-39,-9,-87,-97
-141,0,141,70,-141,70,63,-29,-39,-9,-87,-102
-151,9,161,70,-156,85,63,-29,-39,0,-87,-97
-156,9,165,73,-161,87,68,-24,-29,0,-87,-97
-156,9,165,73,-161,87,68,-24,-29,0,-82,-102
-156,9,165,73,-161,87,68,-24,-29,0,-78,-102
-146,14,161,65,-153,87,68,-24,-29,-4,-82,-112
-146,14,161,65,-153,87,68,-29,-29,-4,-87,-112
-146,19,165,63,-156,92,68,-29,-29,-4,-92,-112
-151,29,180,61,-165,104,68,-24,-34,-4,-97,-122
-141,29,170,56,-156,100,58,-34,-43,-4,-107,-126
-136,29,165,53,-151,97,58,-34,-43,-4,-107,-131
-131,29,161,51,-146,95,58,-34,-43,-4,-107,-136
-131,24,156,53,-143,90,58,-34,-39,-4,-107,-141
-136,24,161,56,-148,92,58,-34,-34,4,-107,-141
-136,24,161,56,-148,92,58,-29,-34,9,-102,-141
-136,19,156,58,-146,87,58,-29,-34,9,-102,-141
-136,14,151,61,-143,82,58,-29,-29,9,-102,-141
-136,14,151,61,-143,82,53,-29,-29,4,-102,-131
-141,14,156,63,-148,85,53,-24,-29,4,-102,-131
-141,14,156,63,-148,85,53,-24,-29,4,-102,-131
-136,14,151,61,-143,82,53,-24,-34,4,-102,-131
-146,0,146,73,-146,73,58,-14,-24,9,-102,-126
-146,0,146,73,-146,73,58,-14,-24,9,-102,-122
-146,-4,141,75,-143,68,58,-14,-24,9,-97,-117
-146,-14,131,80,-139,58,63,-14,-24,9,-97,-112
-136,-29,107,82,-122,39,58,-24,-34,4,-87,-107
-141,-29,112,85,-126,41,58,-24,-34,4,-87,-107
-141,-29,112,85,-126,41,58,-24,-34,4,-87,-107
-136,-24,112,80,-124,43,58,-24,-39,0,-87,-107
-136,-14,122,75,-129,53,58,-14,-29,0,-78,-107
-136,-9,126,73,-131,58,53,-24,-34,0,-78,-107
-141,-9,131,75,-136,61,53,-24,-34,-4,-78,-107
-141,-4,136,73,-139,65,53,-24,-34,-4,-82,-107
-126,4,131,61,-129,68,58,-34,-43,-4,-87,-117
-126,4,131,61,-129,68,58,-29,-43,-4,-87,-117
-126,0,126,63,-126,63,58,-29,-43,-4,-92,-117
-126,0,126,63,-126,63,58,-29,-43,-9,-97,-117
-136,-9,126,73,-131,58,58,-34,-39,-9,-97,-107
-136,0,136,68,-136,68,58,-34,-39,-9,-102,-107
-136,0,136,68,-136,68,58,-34,-43,-14,-102,-107
-131,-4,126,68,-129,61,53,-34,-48,-14,-102,-107
-141,-4,136,73,-139,65,53,-39,-48,-14,-102,-107
-141,-9,131,75,-136,61,53,-34,-43,-14,-102,-107
-141,-9,131,75,-136,61,53,-29,-43,-14,-107,-107
-141,-9,131,75,-136,61,48,-24,-43,-19,-107,-107
-131,4,136,63,-134,70,48,-34,-43,-19,-107,-117
-131,4,136,63,-134,70,48,-34,-43,-24,-112,-117
-131,4,136,63,-134,70,53,-34,-48,-24,-112,-117
-131,4,136,63,-134,70,53,-34,-53,-24,-112,-117
-131,4,136,63,-134,70,53,-24,-43,-14,-102,-112
-131,4,136,63,-134,70,43,-24,-43,-14,-102,-112
-131,4,136,63,-134,70,43,-24,-48,-14,-107,-112
-131,4,136,63,-134,70,43,-24,-48,-14,-107,-112
-141,-4,136,73,-139,65,43,-24,-48,-19,-102,-102
-141,-9,131,75,-136,61,43,-24,-48,-19,-102,-97
-141,-9,131,75,-136,61,43,-24,-48,-24,-97,-92
-141,-9,131,75,-136,61,43,-29,-53,-24,-92,-92
-136,-19,117,78,-126,48,53,-29,-63,-24,-92,-92
-136,-19,117,78,-126,48,53,-34,-63,-24,-97,-92
-131,-19,112,75,-122,46,53,-34,-63,-24,-97,-97
-131,-14,117,73,-124,51,53,-34,-68,-24,-92,-102
-131,-9,122,70,-126,56,43,-43,-68,-39,-102,-112
-136,-4,131,70,-134,63,43,-43,-73,-43,-107,-112
-141,0,141,70,-141,70,43,-43,-73,-43,-107,-112
-146,4,151,70,-148,78,43,-43,-78,-39,-107,-112
-146,14,161,65,-153,87,48,-34,-68,-29,-107,-102
-146,14,161,65,-153,87,48,-34,-63,-29,-107,-97
-151,14,165,68,-158,90,48,-34,-63,-29,-107,-97
-151,14,165,68,-158,90,48,-43,-68,-34,-107,-102
-146,14,161,65,-153,87,43,-53,-78,-43,-97,-102
-146,14,161,65,-153,87,39,-53,-78,-43,-102,-102
-146,14,161,65,-153,87,39,-48,-82,-43,-102,-97
-146,14,161,65,-153,87,34,-48,-82,-43,-102,-92
-146,0,146,73,-146,73,39,-43,-82,-39,-112,-92
-146,-4,141,75,-143,68,43,-43,-82,-43,-112,-102
-146,-4,141,75,-143,68,43,-43,-82,-43,-112,-102
-146,-9,136,78,-141,63,43,-43,-82,-39,-112,-102
-146,-9,136,78,-141,63,43,-43,-87,-39,-112,-97
-146,-4,141,75,-143,68,43,-43,-87,-43,-112,-97
-146,-4,141,75,-143,68,48,-43,-87,-43,-117,-97
-146,-9,136,78,-141,63,48,-43,-87,-48,-117,-97
-146,-4,141,75,-143,68,43,-53,-97,-58,-126,-112
-146,9,156,68,-151,82,43,-53,-97,-58,-126,-117
-146,19,165,63,-156,92,39,-63,-97,-58,-126,-122
-146,24,170,61,-158,97,39,-63,-97,-58,-126,-126
-146,14,161,65,-153,87,48,-53,-92,-48,-122,-117
-146,9,156,68,-151,82,43,-48,-87,-43,-117,-112
-146,4,151,70,-148,78,43,-43,-82,-43,-112,-107
-141,4,146,68,-143,75,48,-39,-78,-43,-102,-97
-141,0,141,70,-141,70,48,-48,-87,-53,-107,-87
-146,0,146,73,-146,73,43,-53,-87,-53,-102,-87
-146,0,146,73,-146,73,39,-53,-87,-53,-97,-87
-141,0,141,70,-141,70,39,-58,-82,-53,-97,-87
-151,9,161,70,-156,85,29,-48,-92,-63,-97,-87
-151,9,161,70,-156,85,29,-48,-87,-63,-102,-92
-151,4,156,73,-153,80,34,-53,-82,-63,-102,-97
-151,4,156,73,-153,80,39,-53,-82,-63,-107,-102
-151,-4,146,78,-148,70,39,-48,-82,-53,-102,-87
-151,-4,146,78,-148,70,39,-48,-82,-53,-102,-87
-151,-4,146,78,-148,70,39,-48,-82,-58,-102,-87
-151,-4,146,78,-148,70,39,-48,-82,-58,-102,-87
-141,0,141,70,-141,70,29,-53,-92,-68,-102,-92
-136,9,146,63,-141,78,29,-58,-92,-68,-107,-92
-131,14,146,58,-139,80,29,-63,-92,-68,-107,-92
-131,14,146,58,-139,80,29,-68,-92,-68,-107,-92
-136,4,141,65,-139,73,29,-58,-82,-63,-107,-102
-136,4,141,65,-139,73,34,-58,-82,-58,-107,-102
-136,4,141,65,-139,73,39,-58,-82,-58,-107,-97
-136,4,141,65,-139,73,39,-58,-78,-58,-107,-97
-141,19,161,61,-151,90,29,-68,-87,-63,-112,-107
-141,19,161,61,-151,90,29,-68,-87,-63,-112,-107
-141,24,165,58,-153,95,29,-68,-92,-68,-107,-107
-141,24,165,58,-153,95,19,-68,-97,-68,-107,-107
-136,14,151,61,-143,82,29,-58,-92,-53,-97,-92
-131,9,141,61,-136,75,29,-63,-87,-53,-92,-78
-126,4,131,61,-129,68,29,-63,-82,-53,-92,-68
-122,-4,117,63,-119,56,34,-63,-78,-53,-92,-63
-126,-14,112,70,-119,48,43,-53,-78,-63,-92,-68
-131,-24,107,78,-119,41,43,-58,-78,-63,-92,-73
-136,-24,112,80,-124,43,43,-58,-78,-53,-92,-78
-141,-14,126,78,-134,56,43,-58,-78,-48,-92,-82
-136,0,136,68,-136,68,39,-63,-82,-53,-107,-87
-136,4,141,65,-139,73,29,-68,-82,-63,-112,-92
-136,4,141,65,-139,73,24,-68,-82,-68,-117,-97
-136,9,146,63,-141,78,19,-73,-82,-73,-122,-92
-131,19,151,56,-141,85,19,-63,-78,-68,-112,-82
-126,24,151,51,-139,87,24,-63,-73,-63,-107,-82
-122,14,136,53,-129,75,24,-63,-73,-63,-102,-82
-117,19,136,48,-126,78,29,-58,-68,-63,-102,-82
-112,24,136,43,-124,80,43,-53,-63,-48,-92,-78
-112,29,141,41,-126,85,43,-53,-63,-43,-92,-68
-112,34,146,39,-129,90,43,-48,-58,-39,-92,-63
-117,53,170,31,-143,112,43,-43,-58,-34,-87,-53
-117,68,185,24,-151,126,53,-39,-43,-34,-78,-53
-107,73,180,17,-143,126,53,-39,-48,-24,-78,-53
-102,82,185,9,-143,134,53,-39,-43,-24,-78,-53
-102,92,195,4,-148,143,53,-39,-39,-24,-82,-53
-131,73,204,29,-168,139,53,-48,-43,-24,-78,-53
-122,68,190,26,-156,129,63,-29,-24,-4,-58,-34
-126,68,195,29,-161,131,68,-19,-24,-4,-53,-24
-117,58,175,29,-146,117,68,-19,-19,-9,-58,-29
-107,58,165,24,-136,112,73,-9,-9,0,-58,-29
-107,58,165,24,-136,112,78,-9,-9,0,-58,-29
-107,58,165,24,-136,112,82,-9,-9,0,-58,-29
-107,58,165,24,-136,112,87,-9,-9,0,-58,-29
-107,53,161,26,-134,107,78,0,-24,-9,-68,-43
-107,53,161,26,-134,107,73,-9,-29,-19,-78,-53
-107,53,161,26,-134,107,68,-14,-39,-24,-82,-63
-107,53,161,26,-134,107,48,-29,-43,-24,-87,-73
-92,48,141,21,-117,95,48,-48,-48,-29,-78,-58
-92,43,136,24,-114,90,34,-53,-63,-29,-68,-48
-87,39,126,24,-107,82,19,-63,-63,-29,-63,-34
-87,34,122,26,-104,78,14,-73,-68,-29,-63,-24
-92,53,146,19,-119,100,4,-73,-73,-24,-53,-24
-97,58,156,19,-126,107,4,-78,-78,-24,-53,-24
-107,58,165,24,-136,112,9,-78,-82,-29,-58,-24
-112,58,170,26,-141,114,9,-82,-82,-34,-58,-29
-107,53,161,26,-134,107,24,-82,-87,-48,-68,-43
-107,53,161,26,-134,107,24,-78,-92,-53,-73,-43
-97,43,141,26,-119,92,24,-78,-97,-58,-78,-43
-97,34,131,31,-114,82,29,-78,-97,-63,-87,-43
-112,14,126,48,-119,70,29,-78,-97,-63,-82,-48
-112,0,112,56,-112,56,29,-73,-102,-68,-82,-53
-112,-9,102,61,-107,46,29,-73,-107,-73,-92,-53
-107,-14,92,61,-100,39,29,-73,-112,-78,-97,-58
-97,-19,78,58,-87,29,29,-78,-112,-78,-97,-53
-97,-19,78,58,-87,29,29,-78,-117,-78,-97,-53
-107,-14,92,61,-100,39,29,-78,-117,-82,-102,-58
-107,-14,92,61,-100,39,29,-78,-112,-82,-107,-63
-102,-9,92,56,-97,41,29,-78,-112,-82,-117,-53
-107,-14,92,61,-100,39,24,-78,-117,-82,-122,-58
-107,-19,87,63,-97,34,29,-73,-117,-87,-131,-63
-112,-19,92,65,-102,36,24,-73,-117,-87,-131,-68
-126,-9,117,68,-122,53,29,-82,-126,-97,-146,-73
-126,-14,112,70,-119,48,29,-78,-126,-97,-146,-78
-126,-14,112,70,-119,48,29,-78,-126,-97,-151,-82
-126,-14,112,70,-119,48,34,-82,-126,-102,-161,-92
-122,-9,112,65,-117,51,39,-82,-126,-102,-156,-92
-122,-19,102,70,-112,41,43,-82,-126,-102,-156,-92
-122,-19,102,70,-112,41,48,-82,-131,-107,-156,-92
-122,-14,107,68,-114,46,53,-82,-131,-107,-165,-92
-131,-14,117,73,-124,51,48,-92,-131,-97,-170,-102
-131,-14,117,73,-124,51,43,-87,-131,-97,-175,-112
-131,-9,122,70,-126,56,39,-87,-131,-97,-180,-112
-136,-9,126,73,-131,58,34,-87,-131,-97,-185,-112
-146,-14,131,80,-139,58,34,-82,-117,-97,-185,-102
-146,-19,126,82,-136,53,34,-73,-117,-97,-185,-102
-141,-24,117,82,-129,46,39,-68,-117,-97,-185,-102
-141,-29,112,85,-126,41,39,-58,-112,-92,-185,-102
-136,-39,97,87,-117,29,48,-58,-112,-92,-175,-92
-131,-39,92,85,-112,26,48,-58,-112,-92,-170,-87
-126,-39,87,82,-107,24,53,-58,-107,-92,-170,-82
-122,-39,82,80,-102,21,53,-53,-107,-92,-170,-78
-126,-24,102,75,-114,39,53,-53,-117,-97,-175,-87
-126,-19,107,73,-117,43,53,-58,-117,-97,-175,-87
-126,-9,117,68,-122,53,53,-58,-112,-97,-175,-87
-126,-4,122,65,-124,58,53,-53,-112,-97,-175,-87
-131,-4,126,68,-129,61,43,-63,-112,-97,-175,-97
-131,-4,126,68,-129,61,43,-63,-112,-97,-175,-97
-126,-4,122,65,-124,58,48,-63,-112,-97,-175,-97
-126,-4,122,65,-124,58,48,-63,-112,-97,-175,-97
-126,-19,107,73,-117,43,53,-53,-112,-87,-175,-102
-126,-19,107,73,-117,43,58,-53,-112,-87,-175,-102
-126,-14,112,70,-119,48,63,-53,-112,-87,-175,-102
-126,-14,112,70,-119,48,68,-53,-112,-87,-175,-102
-131,-14,117,73,-124,51,68,-53,-112,-97,-165,-92
-131,-14,117,73,-124,51,68,-53,-112,-102,-170,-97
-131,-14,117,73,-124,51,68,-53,-112,-102,-170,-97
-131,-14,117,73,-124,51,68,-53,-112,-102,-170,-97
-131,0,131,65,-131,65,63,-63,-102,-102,-180,-107
-131,9,141,61,-136,75,58,-63,-102,-102,-175,-107
-131,14,146,58,-139,80,53,-63,-102,-97,-175,-107
-131,19,151,56,-141,85,48,-63,-97,-97,-175,-107
-126,4,131,61,-129,68,58,-53,-97,-97,-175,-97
-126,-4,122,65,-124,58,58,-53,-97,-97,-175,-92
-136,-9,126,73,-131,58,63,-53,-97,-97,-170,-92
-136,-14,122,75,-129,53,63,-53,-97,-97,-170,-92
-122,-19,102,70,-112,41,63,-53,-97,-97,-175,-97
-122,-19,102,70,-112,41,58,-53,-97,-97,-175,-102
-117,-14,102,65,-109,43,58,-53,-97,-97,-175,-107
-117,-9,107,63,-112,48,58,-58,-97,-97,-175,-112
-117,9,126,53,-122,68,58,-68,-112,-107,-185,-112
-117,34,151,41,-134,92,48,-68,-112,-97,-180,-112
-122,34,156,43,-139,95,39,-58,-87,-78,-170,-97
-122,39,161,41,-141,100,39,-58,-78,-53,-146,-87
-117,39,156,39,-136,97,34,-58,-58,-19,-107,-53
-107,43,151,31,-129,97,34,-48,-14,39,-63,-24
-92,63,156,14,-124,109,24,-29,39,117,4,4
-97,82,180,7,-139,131,24,-4,107,219,92,53
-97,97,195,0,-146,146,24,4,151,302,156,78
-73,122,195,-24,-134,158,9,-14,112,322,190,87
-87,136,224,-24,-156,180,-19,-68,4,292,229,107
-107,141,248,-17,-178,195,-58,-141,-161,204,258,131
-97,151,248,-26,-173,200,-92,-229,-361,78,292,156
-73,161,234,-43,-153,197,-136,-336,-575,-19,380,229
-58,185,244,-63,-151,214,-209,-444,-766,-102,541,385
-53,209,263,-78,-158,236,-312,-570,-961,-209,727,556
-24,283,307,-129,-165,295,-424,-761,-1249,-361,912,746
4,366,361,-185,-178,363,-546,-985,-1586,-566,1083,927
24,414,390,-219,-183,402,-673,-1171,-1864,-761,1229,1098
63,444,380,-253,-158,412,-761,-1312,-2064,-878,1415,1283
97,453,356,-275,-129,405,-834,-1415,-2225,-922,1659,1488
131,424,292,-278,-80,358,-883,-1478,-2318,-941,1947,1708
136,341,204,-239,-34,273,-907,-1527,-2396,-980,2161,1864
141,292,151,-217,-4,222,-936,-1561,-2435,-1039,2293,2000
161,278,117,-219,21,197,-956,-1586,-2425,-1049,2425,2113
165,263,97,-214,34,180,-936,-1576,-2357,-995,2596,2244
180,209,29,-195,75,119,-917,-1478,-2196,-863,2796,2415
195,131,-63,-163,129,34,-878,-1312,-1922,-668,3001,2644
234,68,-165,-151,200,-48,-824,-1137,-1629,-463,3162,2859
258,29,-229,-143,244,-100,-795,-1054,-1439,-331,3215,3030
278,43,-234,-161,256,-95,-800,-1010,-1283,-253,3123,3162
297,68,-229,-183,263,-80,-785,-932,-1146,-244,2806,3186
297,48,-248,-173,273,-100,-727,-873,-1078,-341,2298,3089
273,9,-263,-141,268,-126,-663,-824,-1044,-448,1888,2976
258,-9,-268,-124,263,-139,-600,-766,-966,-468,1639,2840
204,-58,-263,-73,234,-161,-502,-702,-902,-527,1268,2557
156,-122,-278,-17,217,-200,-409,-644,-854,-595,839,2171
112,-136,-248,12,180,-192,-346,-585,-771,-585,585,1849
73,-126,-200,26,136,-163,-283,-527,-702,-556,419,1566
34,-87,-122,26,78,-104,-224,-483,-644,-531,224,1254
24,-53,-78,14,51,-65,-190,-429,-561,-473,97,990
-14,-48,-34,31,9,-41,-165,-380,-478,-385,43,775
-39,4,43,17,-41,24,-146,-346,-405,-322,9,629
-34,107,141,-36,-87,124,-141,-317,-322,-229,19,566
-43,190,234,-73,-139,212,-126,-287,-248,-161,29,502
-87,219,307,-65,-197,263,-92,-263,-209,-141,-34,336
-112,244,356,-65,-234,300,-58,-214,-170,-107,-82,170
-122,244,366,-61,-244,305,-43,-165,-112,-63,-73,102
-122,219,341,-48,-231,280,-14,-141,-78,-34,-53,73
-117,180,297,-31,-207,239,4,-102,-53,-4,-53,39
-107,146,253,-19,-180,200,14,-68,-9,24,-63,29
-102,117,219,-7,-161,168,24,-48,19,39,-87,0
-87,87,175,0,-131,131,34,-24,24,19,-131,-53
-87,58,146,14,-117,102,58,0,43,29,-165,-92
-107,34,141,36,-124,87,82,29,63,48,-151,-92
-117,19,136,48,-126,78,92,39,78,58,-146,-102
-97,9,107,43,-102,58,87,43,73,48,-161,-136
-107,-4,102,56,-104,48,92,34,63,39,-170,-161
-102,0,102,51,-102,51,92,34,63,39,-175,-165
-102,4,107,48,-104,56,92,34,63,39,-190,-180
-102,14,117,43,-109,65,87,34,68,43,-209,-195
-112,4,117,53,-114,61,97,48,68,53,-219,-209
-112,9,122,51,-117,65,102,48,82,53,-219,-214
-112,9,122,51,-117,65,107,58,87,63,-219,-219
-122,4,126,58,-124,65,107,63,92,68,-209,-219
-117,0,117,58,-117,58,102,73,92,78,-200,-204
-107,0,107,53,-107,53,102,73,92,78,-195,-195
-102,0,102,51,-102,51,102,73,97,78,-195,-185
-97,-4,92,51,-95,43,102,78,97,82,-195,-180
-107,-4,102,56,-104,48,112,68,97,78,-204,-185
-107,-4,102,56,-104,48,112,73,107,78,-204,-195
-107,-4,102,56,-104,48,112,73,112,78,-200,-204
-107,-4,102,56,-104,48,112,73,112,82,-200,-209
-107,-4,102,56,-104,48,107,73,112,73,-219,-214
-107,-4,102,56,-104,48,107,78,112,73,-224,-219
-107,-9,97,58,-102,43,112,78,117,82,-224,-224
-107,-9,97,58,-102,43,112,78,122,82,-219,-229
-112,-19,92,65,-102,36,107,68,122,92,-209,-229
-112,-19,92,65,-102,36,107,73,126,97,-209,-224
-107,-19,87,63,-97,34,112,73,126,97,-209,-229
-107,-19,87,63,-97,34,112,73,131,97,-209,-224
-107,-9,97,58,-102,43,107,73,136,87,-224,-234
-107,-9,97,58,-102,43,107,73,136,92,-229,-229
-107,-9,97,58,-102,43,112,73,136,92,-229,-229
-102,-14,87,58,-95,36,112,73,146,97,-224,-229
-102,-19,82,61,-92,31,102,78,136,97,-224,-229
-102,-24,78,63,-90,26,102,78,136,102,-224,-229
-112,-29,82,70,-97,26,102,78,141,107,-224,-229
-112,-34,78,73,-95,21,102,78,146,112,-224,-234
-107,-29,78,68,-92,24,112,82,141,122,-219,-244
-107,-24,82,65,-95,29,112,82,146,122,-219,-244
-107,-19,87,63,-97,34,117,87,146,122,-219,-244
-107,-14,92,61,-100,39,117,87,146,126,-219,-253
-117,-4,112,61,-114,53,117,87,156,126,-224,-263
-117,-4,112,61,-114,53,117,92,156,131,-224,-263
-117,-4,112,61,-114,53,117,92,161,126,-229,-263
-117,-4,112,61,-114,53,117,97,165,122,-229,-263
-107,-9,97,58,-102,43,122,107,180,126,-214,-258
-107,-14,92,61,-100,39,122,112,185,141,-204,-253
-107,-14,92,61,-100,39,122,112,190,146,-204,-248
-107,-19,87,63,-97,34,122,117,195,161,-200,-244
-107,-24,82,65,-95,29,122,117,200,161,-209,-253
-102,-24,78,63,-90,26,122,122,204,161,-209,-253
-102,-24,78,63,-90,26,122,126,209,161,-214,-253
-107,-24,82,65,-95,29,126,126,219,170,-214,-258
-107,-39,68,73,-87,14,136,126,214,185,-209,-248
-102,-39,63,70,-82,12,141,136,224,195,-209,-253
-102,-39,63,70,-82,12,141,136,229,200,-200,-253
-102,-39,63,70,-82,12,146,141,239,204,-200,-248
-102,-34,68,68,-85,17,146,131,244,204,-195,-248
-102,-29,73,65,-87,21,146,141,248,209,-185,-248
-102,-24,78,63,-90,26,151,146,263,219,-185,-248
-102,-19,82,61,-92,31,151,151,263,224,-185,-248
-92,-24,68,58,-80,21,141,151,273,229,-175,-248
-92,-29,63,61,-78,17,146,161,287,239,-170,-248
-92,-34,58,63,-75,12,151,165,297,248,-165,-248
-92,-39,53,65,-73,7,151,170,307,258,-161,-248
-102,-48,53,75,-78,2,161,180,317,268,-146,-239
-97,-48,48,73,-73,0,165,185,331,278,-136,-234
-97,-48,48,73,-73,0,165,195,351,287,-131,-234
-102,-53,48,78,-75,-2,175,200,366,302,-141,-234
-92,-39,53,65,-73,7,161,204,370,297,-141,-239
-92,-29,63,61,-78,17,161,204,375,307,-136,-244
-92,-9,82,51,-87,36,161,204,390,317,-122,-248
-102,-19,82,61,-92,31,161,204,390,331,-117,-253
-102,-34,68,68,-85,17,170,224,395,341,-107,-248
-92,-34,58,63,-75,12,170,234,414,356,-102,-244
-92,-34,58,63,-75,12,175,244,429,366,-92,-244
-97,-34,63,65,-80,14,175,244,444,385,-78,-239
-97,-39,58,68,-78,9,175,248,448,395,-68,-239
-97,-39,58,68,-78,9,185,248,458,405,-63,-239
-87,-34,53,61,-70,9,190,253,473,414,-53,-239
-78,-34,43,56,-61,4,195,258,483,434,-43,-229
-87,-34,53,61,-70,9,195,268,497,453,-29,-219
-92,-43,48,68,-70,2,195,273,517,473,-24,-224
-97,-43,53,70,-75,4,204,278,522,478,-9,-224
-102,-43,58,73,-80,7,209,287,531,488,0,-224
-92,-34,58,63,-75,12,204,292,536,502,0,-219
-92,-34,58,63,-75,12,209,292,546,507,4,-219
-87,-34,53,61,-70,9,214,292,556,517,14,-214
-87,-34,53,61,-70,9,214,292,566,531,19,-214
-87,-43,43,65,-65,0,224,307,575,546,39,-214
-92,-43,48,68,-70,2,224,312,585,556,43,-214
-107,-43,63,75,-85,9,224,317,600,566,58,-214
-117,-43,73,80,-95,14,229,322,619,575,63,-214
-102,-48,53,75,-78,2,234,312,619,575,73,-204
-97,-53,43,75,-70,-4,239,312,619,580,82,-204
-92,-63,29,78,-61,-17,244,317,619,590,92,-200
-87,-63,24,75,-56,-19,244,317,619,595,92,-195
-92,-53,39,73,-65,-7,248,326,629,600,112,-180
-92,-63,29,78,-61,-17,248,326,629,605,117,-175
-92,-63,29,78,-61,-17,253,331,629,610,131,-170
-92,-63,29,78,-61,-17,258,331,634,614,131,-165
-92,-63,29,78,-61,-17,248,341,634,614,151,-165
-92,-73,19,82,-56,-26,248,341,629,614,156,-170
-92,-58,34,75,-63,-12,248,336,624,619,161,-170
-92,-48,43,70,-68,-2,248,326,614,619,170,-161
-92,-48,43,70,-68,-2,253,322,614,619,185,-151
-92,-58,34,75,-63,-12,248,317,605,614,195,-136
-87,-63,24,75,-56,-19,248,317,605,610,204,-136
-78,-68,9,73,-43,-29,248,312,590,610,209,-126
-87,-73,14,80,-51,-29,244,307,570,600,209,-112
-87,-73,14,80,-51,-29,239,292,551,590,209,-112
-78,-73,4,75,-41,-34,234,287,541,585,214,-102
-78,-73,4,75,-41,-34,229,278,527,580,219,-92
-78,-73,4,75,-41,-34,234,268,512,566,224,-73
-87,-68,19,78,-53,-24,224,258,488,546,234,-58
-87,-68,19,78,-53,-24,214,248,473,527,234,-48
-82,-63,19,73,-51,-21,209,239,448,507,234,-39
-73,-63,9,68,-41,-26,204,224,424,488,234,-39
-68,-63,4,65,-36,-29,204,209,400,463,234,-29
-63,-53,9,58,-36,-21,190,195,375,448,229,-24
-63,-53,9,58,-36,-21,175,175,351,419,224,-19
-68,-43,24,56,-46,-9,165,165,326,400,204,-9
-63,-48,14,56,-39,-17,165,156,302,385,200,0
-78,-48,29,63,-53,-9,156,136,283,346,195,4
-82,-39,43,61,-63,2,156,122,258,326,185,9
-82,-29,53,56,-68,12,156,117,244,317,165,29
-82,-29,53,56,-68,12,151,107,229,287,156,29
-82,-34,48,58,-65,7,146,97,204,273,151,29
-82,-39,43,61,-63,2,141,82,185,248,141,34
-82,-34,48,58,-65,7,126,78,170,229,117,24
-82,-29,53,56,-68,12,126,68,151,204,117,24
-82,-19,63,51,-73,21,122,53,131,185,112,24
-82,-9,73,46,-78,31,117,43,117,170,112,29
-87,-9,78,48,-82,34,112,29,92,146,97,19
-87,-9,78,48,-82,34,102,19,82,126,73,19
-87,-4,82,46,-85,39,102,9,68,112,68,19
-87,0,87,43,-87,43,102,0,53,97,53,24
-87,-4,82,46,-85,39,97,0,48,97,48,24
-82,4,87,39,-85,46,92,-4,34,82,43,19
-82,9,92,36,-87,51,87,-9,24,73,34,19
-92,9,102,41,-97,56,82,-19,14,58,24,14
-82,9,92,36,-87,51,73,-24,-4,39,14,0
-82,9,92,36,-87,51,73,-34,-14,29,0,0
-82,9,92,36,-87,51,73,-39,-14,19,-9,0
-82,9,92,36,-87,51,73,-39,-24,14,-14,0
-82,19,102,31,-92,61,58,-39,-29,9,-9,-4
-82,19,102,31,-92,61,58,-48,-43,4,-24,-4
-82,19,102,31,-92,61,58,-53,-43,4,-24,-9
-82,19,102,31,-92,61,58,-53,-48,-4,-29,-9
-92,19,112,36,-102,65,58,-63,-48,-9,-39,-19
-92,19,112,36,-102,65,53,-58,-48,-14,-43,-19
-87,19,107,34,-97,63,53,-58,-48,-19,-48,-19
-87,24,112,31,-100,68,53,-68,-53,-24,-53,-29
-87,34,122,26,-104,78,53,-68,-58,-39,-43,-29
-87,29,117,29,-102,73,53,-68,-58,-43,-48,-29
-87,29,117,29,-102,73,53,-68,-58,-43,-53,-29
-92,29,122,31,-107,75,58,-68,-63,-48,-58,-39
-102,29,131,36,-117,80,48,-68,-68,-39,-63,-39
-102,29,131,36,-117,80,43,-68,-68,-39,-63,-39
-97,34,131,31,-114,82,43,-68,-68,-43,-63,-39
-97,39,136,29,-117,87,43,-63,-68,-43,-68,-34
-92,29,122,31,-107,75,43,-73,-58,-53,-78,-39
-92,29,122,31,-107,75,43,-73,-58,-53,-73,-34
-92,29,122,31,-107,75,43,-73,-58,-53,-73,-34
-92,29,122,31,-107,75,43,-73,-58,-53,-78,-34
-92,29,122,31,-107,75,43,-73,-68,-53,-78,-34
-87,29,117,29,-102,73,48,-73,-68,-53,-78,-34
-87,29,117,29,-102,73,48,-73,-68,-53,-78,-34
-92,24,117,34,-104,70,48,-68,-68,-53,-82,-39
-92,24,117,34,-104,70,39,-58,-58,-43,-82,-39
-92,29,122,31,-107,75,39,-63,-58,-43,-82,-43
-92,29,122,31,-107,75,39,-63,-58,-43,-82,-43
-102,29,131,36,-117,80,39,-63,-53,-43,-87,-43
-107,29,136,39,-122,82,48,-53,-63,-39,-97,-39
-107,29,136,39,-122,82,53,-53,-58,-39,-92,-39
-102,29,131,36,-117,80,53,-53,-58,-34,-92,-39
-102,29,131,36,-117,80,53,-53,-58,-34,-102,-48
-102,29,131,36,-117,80,53,-43,-53,-34,-102,-48
-102,29,131,36,-117,80,53,-39,-53,-34,-102,-48
-102,29,131,36,-117,80,53,-39,-53,-34,-102,-53
-102,29,131,36,-117,80,53,-39,-53,-34,-107,-58
-102,19,122,41,-112,70,43,-39,-58,-29,-107,-63
-102,19,122,41,-112,70,43,-39,-58,-29,-117,-63
-97,19,117,39,-107,68,48,-39,-53,-29,-112,-68
-97,19,117,39,-107,68,48,-39,-48,-29,-107,-73
-102,19,122,41,-112,70,58,-39,-39,-29,-112,-73
-102,19,122,41,-112,70,58,-34,-39,-24,-107,-73
-102,19,122,41,-112,70,63,-34,-39,-24,-107,-73
-102,19,122,41,-112,70,63,-29,-34,-24,-107,-73
-92,19,112,36,-102,65,53,-39,-29,-19,-102,-73
-102,19,122,41,-112,70,53,-39,-29,-19,-102,-78
-102,19,122,41,-112,70,53,-39,-29,-19,-107,-78
-102,19,122,41,-112,70,53,-39,-29,-19,-107,-82
-102,29,131,36,-117,80,43,-39,-29,-9,-97,-87
-107,29,136,39,-122,82,48,-34,-19,-9,-97,-87
-107,29,136,39,-122,82,48,-34,-19,-9,-92,-92
-107,29,136,39,-122,82,48,-34,-19,-9,-87,-92
-97,29,126,34,-112,78,48,-24,-19,-4,-97,-102
-97,24,122,36,-109,73,48,-29,-19,-4,-97,-102
-97,24,122,36,-109,73,48,-29,-19,-4,-97,-102
-102,29,131,36,-117,80,48,-24,-24,-4,-97,-112
-102,29,131,36,-117,80,48,-14,-24,-4,-107,-112
-97,29,126,34,-112,78,48,-14,-24,-4,-107,-112
-92,29,122,31,-107,75,48,-14,-24,-4,-107,-112
-92,24,117,34,-104,70,48,-14,-19,-4,-107,-112
-97,19,117,39,-107,68,39,-24,-14,-4,-107,-122
-97,24,122,36,-109,73,39,-19,-14,0,-102,-122
-97,24,122,36,-109,73,39,-19,-14,0,-102,-122
-97,24,122,36,-109,73,39,-19,-9,0,-102,-122
-87,34,122,26,-104,78,53,-9,0,4,-92,-122
-92,34,126,29,-109,80,53,-4,0,4,-92,-122
-92,34,126,29,-109,80,53,-4,0,4,-92,-122
-87,34,122,26,-104,78,53,-4,-4,4,-92,-122
-97,24,122,36,-109,73,48,-4,-4,0,-102,-122
-97,29,126,34,-112,78,48,-4,-4,0,-102,-122
-97,29,126,34,-112,78,48,-4,-4,0,-97,-122
-97,24,122,36,-109,73,53,-4,-4,0,-97,-122
-97,19,117,39,-107,68,48,-14,-4,-4,-107,-126
-102,19,122,41,-112,70,48,-14,-4,-4,-107,-126
-102,19,122,41,-112,70,48,-14,-4,-4,-107,-126
-97,24,122,36,-109,73,48,-14,-9,-9,-107,-126
-97,24,122,36,-109,73,48,-14,-9,0,-117,-126
-97,29,126,34,-112,78,43,-24,-14,0,-117,-126
-102,29,131,36,-117,80,43,-24,-14,-4,-117,-126
-102,34,136,34,-119,85,43,-24,-14,-4,-122,-126
-97,24,122,36,-109,73,39,-24,-14,-4,-122,-126
-97,24,122,36,-109,73,39,-19,-14,-4,-117,-126
-97,19,117,39,-107,68,39,-19,-14,-4,-117,-126
-97,19,117,39,-107,68,39,-19,-14,-9,-117,-126
-97,19,117,39,-107,68,39,-24,-19,-19,-117,-126
-97,29,126,34,-112,78,39,-24,-19,-19,-122,-126
-97,29,126,34,-112,78,39,-24,-24,-24,-122,-126
-92,24,117,34,-104,70,34,-24,-29,-24,-122,-126
-97,34,131,31,-114,82,34,-24,-29,-24,-122,-126
-102,29,131,36,-117,80,34,-24,-24,-24,-122,-126
-107,29,136,39,-122,82,34,-24,-24,-24,-126,-126
-112,29,141,41,-126,85,29,-24,-24,-29,-126,-126
-102,43,146,29,-124,95,19,-34,-34,-29,-126,-126
-102,43,146,29,-124,95,19,-34,-34,-34,-131,-126
-102,43,146,29,-124,95,24,-34,-39,-34,-131,-126
-102,43,146,29,-124,95,24,-34,-43,-34,-131,-126
-112,34,146,39,-129,90,34,-34,-43,-34,-131,-122
-112,34,146,39,-129,90,24,-34,-43,-34,-131,-122
-112,34,146,39,-129,90,24,-34,-48,-34,-136,-122
-112,34,146,39,-129,90,24,-34,-48,-34,-136,-122
-102,43,146,29,-124,95,24,-43,-39,-48,-136,-126
-102,39,141,31,-122,90,24,-43,-39,-48,-141,-126
-102,39,141,31,-122,90,24,-43,-39,-53,-141,-126
-102,39,141,31,-122,90,24,-48,-43,-53,-141,-131
-107,39,146,34,-126,92,14,-48,-43,-53,-141,-131
-107,39,146,34,-126,92,14,-53,-43,-53,-146,-131
-102,39,141,31,-122,90,14,-53,-43,-53,-146,-136
-102,43,146,29,-124,95,14,-53,-48,-53,-141,-141
-97,43,141,26,-119,92,14,-53,-48,-48,-141,-131
-97,43,141,26,-119,92,14,-53,-53,-53,-146,-131
-97,43,141,26,-119,92,14,-53,-53,-53,-146,-131
-97,43,141,26,-119,92,14,-53,-58,-48,-146,-131
-107,43,151,31,-129,97,19,-53,-58,-58,-146,-131
-107,43,151,31,-129,97,19,-53,-53,-58,-146,-126
-112,43,156,34,-134,100,19,-53,-53,-58,-146,-126
-112,43,156,34,-134,100,19,-63,-58,-63,-146,-131
-107,34,141,36,-124,87,9,-53,-68,-63,-146,-141
-107,34,141,36,-124,87,9,-53,-68,-63,-151,-141
-107,34,141,36,-124,87,14,-48,-73,-63,-151,-136
-107,34,141,36,-124,87,14,-48,-73,-63,-151,-131
-107,43,151,31,-129,97,24,-53,-73,-68,-141,-131
-107,43,151,31,-129,97,24,-53,-73,-73,-141,-141
-107,48,156,29,-131,102,19,-53,-73,-73,-141,-141
-107,48,156,29,-131,102,14,-53,-73,-68,-141,-141
-97,39,136,29,-117,87,14,-53,-78,-68,-151,-136
-97,43,141,26,-119,92,14,-53,-78,-73,-151,-136
-97,43,141,26,-119,92,19,-53,-78,-73,-156,-136
-97,39,136,29,-117,87,19,-53,-78,-78,-156,-136
-107,29,136,39,-122,82,14,-43,-78,-78,-156,-126
-107,39,146,34,-126,92,14,-43,-78,-78,-156,-126
-107,43,151,31,-129,97,9,-53,-78,-78,-156,-126
-107,43,151,31,-129,97,9,-53,-78,-78,-156,-126
-107,43,151,31,-129,97,9,-58,-68,-78,-156,-131
-107,39,146,34,-126,92,4,-58,-68,-73,-156,-131
-107,34,141,36,-124,87,4,-58,-68,-73,-156,-131
-102,34,136,34,-119,85,9,-58,-68,-73,-151,-126
