I,II,III,aVR,aVL,aVF,V1,V2,V3,V4,V5,V6
419,936,517,-678,-48,727,-1395,-1288,29,1639,1385,995
419,936,517,-678,-48,727,-1395,-1288,29,1639,1385,995
419,936,517,-678,-48,727,-1395,-1288,29,1639,1385,995
419,936,517,-678,-48,727,-1395,-1288,29,1639,1385,995
366,995,629,-680,-131,812,-1356,-1424,29,1493,1342,995
312,1044,732,-678,-209,888,-1317,-1561,29,1356,1298,995
258,1093,834,-675,-287,963,-1278,-1698,29,1220,1254,995
204,1141,936,-673,-366,1039,-1239,-1834,29,1083,1210,995
126,1127,1000,-627,-436,1063,-1156,-1830,29,751,1024,888
58,1112,1054,-585,-497,1083,-1073,-1825,29,429,839,780
-9,1098,1107,-544,-558,1102,-990,-1820,29,107,653,673
-78,1083,1161,-502,-619,1122,-907,-1815,29,-214,468,566
-107,961,1068,-427,-588,1015,-790,-1634,29,-336,312,439
-126,849,976,-361,-551,912,-683,-1454,29,-448,156,312
-146,736,883,-295,-514,810,-575,-1273,29,-561,0,185
-165,624,790,-229,-478,707,-468,-1093,29,-673,-156,58
-175,566,741,-195,-458,653,-409,-980,29,-668,-209,-4
-175,517,692,-170,-434,605,-351,-878,29,-663,-253,-58
-175,468,644,-146,-409,556,-292,-775,29,-658,-297,-112
-175,419,595,-122,-385,507,-234,-673,29,-653,-341,-165
-209,366,575,-78,-392,470,-204,-629,29,-634,-356,-200
-244,312,556,-34,-400,434,-185,-595,29,-624,-370,-234
-278,258,536,9,-407,397,-165,-561,29,-614,-385,-268
-312,204,517,53,-414,361,-146,-527,29,-605,-400,-302
-292,229,522,31,-407,375,-117,-473,29,-580,-380,-297
-283,244,527,19,-405,385,-87,-429,29,-556,-370,-292
-273,258,531,7,-402,395,-58,-385,29,-531,-361,-287
-263,273,536,-4,-400,405,-29,-341,29,-507,-351,-283
-273,253,527,9,-400,390,-14,-307,29,-492,-341,-292
-273,244,517,14,-395,380,-9,-283,29,-478,-341,-292
-273,234,507,19,-390,370,-4,-258,29,-463,-341,-292
-273,224,497,24,-385,361,0,-234,29,-448,-341,-292
-258,234,492,12,-375,363,14,-224,29,-444,-331,-292
-253,234,488,9,-370,361,29,-224,29,-439,-331,-292
-248,234,483,7,-366,358,43,-224,29,-434,-331,-292
-244,234,478,4,-361,356,58,-224,29,-429,-331,-292
-239,239,478,0,-358,358,63,-204,29,-414,-317,-287
-234,244,478,-4,-356,361,68,-185,29,-400,-312,-283
-229,248,478,-9,-353,363,73,-165,29,-385,-307,-278
-224,253,478,-14,-351,366,78,-146,29,-370,-302,-273
-229,253,483,-12,-356,368,82,-141,29,-380,-307,-283
-234,253,488,-9,-361,370,87,-136,29,-390,-312,-283
-239,253,492,-7,-366,373,92,-131,29,-400,-317,-283
-244,253,497,-4,-370,375,97,-126,29,-409,-322,-283
-273,224,497,24,-385,361,82,-126,29,-419,-326,-297
-302,204,507,48,-405,356,78,-126,29,-419,-331,-302
-331,185,517,73,-424,351,73,-126,29,-419,-336,-307
-361,165,527,97,-444,346,68,-126,29,-419,-341,-312
-336,185,522,75,-429,353,87,-136,29,-429,-341,-312
-322,195,517,63,-419,356,97,-136,29,-429,-341,-312
-307,204,512,51,-409,358,107,-136,29,-429,-341,-312
-292,214,507,39,-400,361,117,-136,29,-429,-341,-312
-287,224,512,31,-400,368,117,-126,29,-419,-331,-312
-283,234,517,24,-400,375,117,-117,29,-419,-331,-312
-278,244,522,17,-400,383,117,-107,29,-419,-331,-312
-273,253,527,9,-400,390,117,-97,29,-419,-331,-312
-292,239,531,26,-412,385,117,-107,29,-429,-351,-331
-302,224,527,39,-414,375,117,-117,29,-439,-361,-341
-312,209,522,51,-417,366,117,-126,29,-448,-370,-351
-322,195,517,63,-419,356,117,-136,29,-458,-380,-361
-331,185,517,73,-424,351,126,-117,29,-448,-375,-356
-331,185,517,73,-424,351,126,-107,29,-448,-370,-351
-331,185,517,73,-424,351,126,-97,29,-448,-366,-346
-331,185,517,73,-424,351,126,-87,29,-448,-361,-341
-322,190,512,65,-417,351,136,-63,29,-439,-370,-341
-322,195,517,63,-419,356,146,-48,29,-439,-370,-341
-322,200,522,61,-422,361,156,-34,29,-439,-370,-341
-322,204,527,58,-424,366,165,-19,29,-439,-370,-341
-326,209,536,58,-431,373,170,-29,29,-434,-361,-341
-331,214,546,58,-439,380,175,-29,29,-429,-361,-341
-336,219,556,58,-446,387,180,-29,29,-424,-361,-341
-341,224,566,58,-453,395,185,-29,29,-419,-361,-341
-341,204,546,68,-444,375,190,-4,29,-424,-375,-346
-341,195,536,73,-439,366,195,19,29,-429,-380,-351
-341,185,527,78,-434,356,200,43,29,-434,-385,-356
-341,175,517,82,-429,346,204,68,29,-439,-390,-361
-361,161,522,100,-441,341,195,82,29,-429,-390,-370
-380,146,527,117,-453,336,195,87,29,-429,-390,-370
-400,131,531,134,-466,331,195,92,29,-429,-390,-370
-419,117,536,151,-478,326,195,97,29,-429,-390,-370
-419,122,541,148,-480,331,209,122,29,-429,-400,-380
-419,126,546,146,-483,336,214,136,29,-429,-400,-380
-419,131,551,143,-485,341,219,151,29,-429,-400,-380
-419,136,556,141,-488,346,224,165,29,-429,-400,-380
-405,146,551,129,-478,348,244,175,29,-414,-390,-366
-400,156,556,122,-478,356,253,185,29,-400,-380,-361
-395,165,561,114,-478,363,263,195,29,-385,-370,-356
-390,175,566,107,-478,370,273,204,29,-370,-361,-351
-380,161,541,109,-461,351,263,229,29,-370,-375,-356
-380,156,536,112,-458,346,263,244,29,-370,-380,-361
-380,151,531,114,-456,341,263,258,29,-370,-385,-366
-380,146,527,117,-453,336,263,273,29,-370,-390,-370
-390,146,536,122,-463,341,273,292,29,-356,-380,-370
-390,146,536,122,-463,341,273,312,29,-341,-370,-370
-390,146,536,122,-463,341,273,331,29,-326,-361,-370
-390,146,536,122,-463,341,273,351,29,-312,-351,-370
-375,156,531,109,-453,344,283,361,39,-302,-336,-356
-370,165,536,102,-453,351,292,361,39,-292,-331,-351
-366,175,541,95,-453,358,302,361,39,-283,-326,-346
-361,185,546,87,-453,366,312,361,39,-273,-322,-341
-326,229,556,48,-441,392,322,400,39,-244,-292,-322
-292,263,556,14,-424,409,331,429,39,-214,-273,-302
-258,297,556,-19,-407,427,341,458,39,-185,-253,-283
-224,331,556,-53,-390,444,351,488,39,-156,-234,-263
-273,273,546,0,-409,409,317,483,39,-165,-239,-283
-322,224,546,48,-434,385,292,478,39,-165,-244,-292
-370,175,546,97,-458,361,268,473,39,-165,-248,-302
-419,126,546,146,-483,336,244,468,39,-165,-253,-312
-405,136,541,134,-473,339,234,468,39,-156,-244,-302
-400,146,546,126,-473,346,224,468,39,-146,-234,-292
-395,156,551,119,-473,353,214,468,39,-136,-224,-283
-390,165,556,112,-473,361,204,468,39,-126,-214,-273
-366,170,536,97,-451,353,214,453,39,-102,-200,-253
-351,175,527,87,-439,351,214,448,39,-87,-185,-244
-336,180,517,78,-427,348,214,444,39,-73,-170,-234
-322,185,507,68,-414,346,214,439,39,-58,-156,-224
-307,200,507,53,-407,353,204,424,39,-39,-131,-209
-302,214,517,43,-409,366,195,419,39,-29,-117,-195
-297,229,527,34,-412,378,185,414,39,-19,-102,-180
-292,244,536,24,-414,390,175,409,39,-9,-87,-165
-273,234,507,19,-390,370,156,400,39,9,-68,-156
-263,234,497,14,-380,366,146,390,39,19,-58,-146
-253,234,488,9,-370,361,136,380,39,29,-48,-136
-244,234,478,4,-361,356,126,370,39,39,-39,-126
-253,244,497,4,-375,370,112,351,39,48,-24,-117
-253,244,497,4,-375,370,107,331,39,48,-19,-107
-253,244,497,4,-375,370,102,312,39,48,-14,-97
-253,244,497,4,-375,370,97,292,39,48,-9,-87
-244,248,492,-2,-368,370,92,273,39,58,14,-68
-244,253,497,-4,-370,375,87,253,39,68,29,-58
-244,258,502,-7,-373,380,82,234,39,78,43,-48
-244,263,507,-9,-375,385,78,214,39,87,58,-39
-234,273,507,-19,-370,390,68,185,39,82,48,-29
-234,273,507,-19,-370,390,58,156,39,78,48,-29
-234,273,507,-19,-370,390,48,126,39,73,48,-29
-234,273,507,-19,-370,390,39,97,39,68,48,-29
-209,302,512,-46,-361,407,48,107,39,78,63,-4
-185,322,507,-68,-346,414,58,107,39,87,78,9
-161,341,502,-90,-331,422,68,107,39,97,92,24
-136,361,497,-112,-317,429,78,107,39,107,107,39
-161,336,497,-87,-329,417,53,73,39,78,92,14
-185,312,497,-63,-341,405,29,39,39,58,78,0
-209,287,497,-39,-353,392,4,4,39,39,63,-14
-234,263,497,-14,-366,380,-19,-29,39,19,48,-29
-224,273,497,-24,-361,385,-14,-53,39,19,58,-24
-214,273,488,-29,-351,380,-9,-68,39,19,58,-19
-204,273,478,-34,-341,375,-4,-82,39,19,58,-14
-195,273,468,-39,-331,370,0,-97,39,19,58,-9
-214,253,468,-19,-341,361,-19,-112,39,9,39,-29
-224,244,468,-9,-346,356,-29,-126,39,0,29,-39
-234,234,468,0,-351,351,-39,-141,39,-9,19,-48
-244,224,468,9,-356,346,-48,-156,39,-19,9,-58
-244,219,463,12,-353,341,-48,-146,39,-29,14,-53
-244,214,458,14,-351,336,-48,-136,39,-29,19,-48
-244,209,453,17,-348,331,-48,-126,39,-29,24,-43
-244,204,448,19,-346,326,-48,-117,39,-29,29,-39
-229,219,448,4,-339,334,-48,-131,39,-29,19,-48
-214,224,439,-4,-326,331,-48,-146,39,-29,19,-48
-200,229,429,-14,-314,329,-48,-161,39,-29,19,-48
-185,234,419,-24,-302,326,-48,-175,39,-29,19,-48
-190,224,414,-17,-302,319,-48,-200,39,-43,14,-58
-195,214,409,-9,-302,312,-48,-214,39,-48,9,-58
-200,204,405,-2,-302,305,-48,-229,39,-53,4,-58
-204,195,400,4,-302,297,-48,-244,39,-58,0,-58
-204,204,409,0,-307,307,-48,-253,39,-58,-9,-68
-204,204,409,0,-307,307,-48,-253,39,-58,-9,-68
-204,204,409,0,-307,307,-48,-253,39,-58,-9,-68
-204,204,409,0,-307,307,-48,-253,39,-58,-9,-68
-161,239,400,-39,-280,319,-34,-234,39,-39,14,-53
-126,273,400,-73,-263,336,-19,-224,39,-29,29,-39
-92,307,400,-107,-246,353,-4,-214,39,-19,43,-24
-58,341,400,-141,-229,370,9,-204,39,-9,58,-9
-97,312,409,-107,-253,361,-4,-239,39,-39,39,-34
-126,283,409,-78,-268,346,-19,-263,39,-58,19,-48
-156,253,409,-48,-283,331,-34,-287,39,-78,0,-63
-185,224,409,-19,-297,317,-48,-312,39,-97,-19,-78
-195,209,405,-7,-300,307,-43,-302,39,-92,-9,-68
-195,204,400,-4,-297,302,-39,-292,39,-87,-9,-68
-195,200,395,-2,-295,297,-34,-283,39,-82,-9,-68
-195,195,390,0,-292,292,-29,-273,39,-78,-9,-68
-209,175,385,17,-297,280,-43,-263,39,-92,-14,-82
-224,165,390,29,-307,278,-48,-263,39,-97,-19,-87
-239,156,395,41,-317,275,-53,-263,39,-102,-24,-92
-253,146,400,53,-326,273,-58,-263,39,-107,-29,-97
-244,146,390,48,-317,268,-68,-278,39,-117,-39,-97
-244,146,390,48,-317,268,-68,-283,39,-117,-39,-97
-244,146,390,48,-317,268,-68,-287,39,-117,-39,-97
-244,146,390,48,-317,268,-68,-292,39,-117,-39,-97
-229,161,390,34,-309,275,-58,-307,39,-117,-39,-97
-224,175,400,24,-312,287,-48,-312,39,-117,-39,-97
-219,190,409,14,-314,300,-39,-317,39,-117,-39,-97
-214,204,419,4,-317,312,-29,-322,39,-117,-39,-97
-224,195,419,14,-322,307,-29,-317,39,-117,-39,-97
-234,185,419,24,-326,302,-29,-312,39,-117,-39,-97
-244,175,419,34,-331,297,-29,-307,39,-117,-39,-97
-253,165,419,43,-336,292,-29,-302,39,-117,-39,-97
-244,180,424,31,-334,302,-14,-292,39,-126,-29,-92
-244,185,429,29,-336,307,-9,-283,39,-126,-29,-87
-244,190,434,26,-339,312,-4,-273,39,-126,-29,-82
-244,195,439,24,-341,317,0,-263,39,-126,-29,-78
-258,175,434,41,-346,305,9,-278,39,-136,-34,-82
-263,165,429,48,-346,297,9,-283,39,-136,-39,-87
-268,156,424,56,-346,290,9,-287,39,-136,-43,-92
-273,146,419,63,-346,283,9,-292,39,-136,-48,-97
-283,131,414,75,-348,273,9,-283,39,-146,-58,-112
-283,126,409,78,-346,268,9,-283,39,-146,-58,-117
-283,122,405,80,-344,263,9,-283,39,-146,-58,-122
-283,117,400,82,-341,258,9,-283,39,-146,-58,-126
-278,131,409,73,-344,270,24,-287,39,-156,-63,-126
-273,146,419,63,-346,283,29,-292,39,-156,-68,-126
-268,161,429,53,-348,295,34,-297,39,-156,-73,-126
-263,175,439,43,-351,307,39,-302,39,-156,-78,-126
-278,161,439,58,-358,300,29,-292,39,-165,-87,-131
-292,146,439,73,-366,292,29,-283,39,-165,-87,-136
-307,131,439,87,-373,285,29,-273,39,-165,-87,-141
-322,117,439,102,-380,278,29,-263,39,-165,-87,-146
-307,131,439,87,-373,285,34,-253,48,-161,-82,-131
-302,136,439,82,-370,287,39,-253,48,-156,-78,-126
-297,141,439,78,-368,290,43,-253,48,-151,-73,-122
-292,146,439,73,-366,292,48,-253,48,-146,-68,-117
-278,151,429,63,-353,290,58,-263,48,-151,-73,-131
-273,156,429,58,-351,292,58,-263,48,-156,-78,-136
-268,161,429,53,-348,295,58,-263,48,-161,-82,-141
-263,165,429,48,-346,297,58,-263,48,-165,-87,-146
-273,180,453,46,-363,317,78,-244,39,-151,-73,-136
-273,185,458,43,-366,322,82,-239,43,-141,-68,-131
-273,190,463,41,-368,326,87,-234,53,-131,-63,-126
-268,204,473,31,-370,339,107,-224,58,-117,-53,-112
-248,224,473,12,-361,348,112,-219,53,-102,-39,-107
-244,239,483,2,-363,361,112,-214,53,-87,-34,-102
-239,253,492,-7,-366,373,112,-209,48,-82,-29,-97
-244,258,502,-7,-373,380,117,-204,39,-78,-24,-87
-248,239,488,4,-368,363,102,-224,48,-92,-29,-97
-244,234,478,4,-361,356,68,-239,48,-102,-34,-107
-258,239,497,9,-378,368,43,-263,48,-117,-43,-112
-278,219,497,29,-387,358,19,-278,43,-126,-53,-122
-302,195,497,53,-400,346,14,-297,53,-126,-63,-122
-317,175,492,70,-405,334,-4,-317,43,-131,-63,-122
-326,161,488,82,-407,324,-4,-322,43,-131,-58,-122
-336,165,502,85,-419,334,-9,-326,48,-126,-48,-117
-307,190,497,58,-402,344,0,-292,39,-107,-34,-107
-287,195,483,46,-385,339,0,-273,39,-97,-19,-87
-258,219,478,19,-368,348,-9,-253,39,-82,-14,-73
-239,234,473,2,-356,353,-9,-234,43,-73,-14,-63
-258,229,488,14,-373,358,-19,-239,43,-87,-24,-73
-268,229,497,19,-383,363,-24,-244,39,-87,-14,-78
-263,239,502,12,-383,370,-24,-244,39,-92,-9,-82
-283,239,522,21,-402,380,-24,-248,39,-97,-9,-92
-278,224,502,26,-390,363,-29,-258,43,-82,0,-73
-268,200,468,34,-368,334,-34,-253,48,-68,14,-63
-248,190,439,29,-344,314,-43,-253,48,-68,24,-58
-239,190,429,24,-334,309,-48,-244,53,-58,34,-48
-219,219,439,0,-329,329,-29,-229,43,-48,43,-43
-214,234,448,-9,-331,341,-19,-219,48,-43,48,-39
-200,253,453,-26,-326,353,-9,-214,48,-39,53,-34
-185,292,478,-53,-331,385,0,-200,48,-24,58,-29
-175,287,463,-56,-319,375,4,-195,43,-14,68,-19
-190,263,453,-36,-322,358,4,-195,48,-9,68,-19
-214,229,444,-7,-329,336,-4,-209,48,-14,53,-24
-224,219,444,2,-334,331,-4,-219,43,-9,34,-39
-239,209,448,14,-344,329,-9,-244,43,-43,29,-58
-253,185,439,34,-346,312,-14,-253,43,-58,14,-73
-273,175,448,48,-361,312,-29,-268,39,-78,-9,-87
-297,165,463,65,-380,314,-34,-278,39,-97,-24,-117
-263,209,473,26,-368,341,-4,-244,48,-78,-4,-92
-244,214,458,14,-351,336,19,-224,48,-58,14,-82
-248,209,458,19,-353,334,34,-209,48,-48,19,-73
-239,219,458,9,-348,339,34,-195,43,-29,34,-68
-283,170,453,56,-368,312,19,-219,53,-53,9,-82
-317,141,458,87,-387,300,9,-234,53,-68,-4,-97
-336,136,473,100,-405,305,-4,-244,48,-78,-9,-107
-370,107,478,131,-424,292,-19,-258,48,-92,-24,-122
-366,97,463,134,-414,280,0,-268,34,-82,-19,-107
-366,107,473,129,-419,290,9,-268,48,-78,-9,-97
-326,126,453,100,-390,290,24,-268,58,-68,0,-92
-317,146,463,85,-390,305,34,-278,58,-63,9,-87
-312,161,473,75,-392,317,24,-268,48,-63,0,-87
-307,161,468,73,-387,314,24,-248,58,-63,9,-87
-297,156,453,70,-375,305,24,-229,48,-63,14,-87
-287,161,448,63,-368,305,29,-219,48,-58,14,-87
-273,185,458,43,-366,322,39,-204,43,-53,19,-82
-268,195,463,36,-366,329,39,-195,43,-48,24,-82
-263,200,463,31,-363,331,39,-180,48,-43,34,-78
-258,204,463,26,-361,334,39,-165,53,-39,39,-68
-278,195,473,41,-375,334,39,-185,43,-48,29,-78
-283,185,468,48,-375,326,39,-195,43,-39,29,-78
-287,170,458,58,-373,314,39,-200,43,-39,29,-78
-297,156,453,70,-375,305,39,-209,53,-48,24,-78
-317,136,453,90,-385,295,29,-224,48,-63,14,-92
-336,131,468,102,-402,300,24,-224,39,-68,4,-102
-356,126,483,114,-419,305,24,-224,48,-68,-4,-107
-370,122,492,124,-431,307,19,-224,58,-73,-14,-107
-351,122,473,114,-412,297,29,-214,48,-63,0,-102
-341,122,463,109,-402,292,29,-200,48,-53,14,-97
-331,122,453,104,-392,287,29,-190,48,-43,24,-92
-331,122,453,104,-392,287,29,-180,48,-29,34,-87
-375,146,522,114,-448,334,29,-219,48,-39,48,-73
-380,146,527,117,-453,336,29,-224,48,-39,34,-82
-361,112,473,124,-417,292,29,-190,53,-14,39,-73
-341,141,483,100,-412,312,14,-175,53,9,53,-58
-346,170,517,87,-431,344,-4,-170,48,14,58,-43
-331,151,483,90,-407,317,-24,-141,53,34,68,-39
-283,175,458,53,-370,317,-53,-136,53,48,73,-34
-258,195,453,31,-356,324,-82,-122,53,92,102,-19
-229,224,453,2,-341,339,-102,-92,53,156,165,9
-195,273,468,-39,-331,370,-112,-39,53,234,209,34
-190,268,458,-39,-324,363,-102,39,48,292,239,53
-156,278,434,-61,-295,356,-117,58,53,336,263,78
-112,312,424,-100,-268,368,-122,29,48,390,302,112
-107,326,434,-109,-270,380,-122,-9,48,419,317,122
-165,287,453,-61,-309,370,-161,-82,48,434,326,122
-200,248,448,-24,-324,348,-234,-175,48,507,380,156
-92,341,434,-124,-263,387,-302,-248,53,663,502,239
-58,385,444,-163,-251,414,-366,-331,53,790,570,273
-161,283,444,-61,-302,363,-414,-370,58,878,614,283
-112,278,390,-82,-251,334,-458,-351,53,1034,722,351
29,370,341,-200,-156,356,-575,-370,58,1215,854,453
87,375,287,-231,-100,331,-741,-400,58,1415,1000,566
180,395,214,-287,-17,305,-868,-424,53,1605,1185,702
287,473,185,-380,51,329,-971,-507,58,1771,1346,839
336,492,156,-414,90,324,-1122,-683,58,1859,1473,927
307,458,151,-383,78,305,-1278,-917,53,1893,1537,976
248,444,195,-346,26,319,-1332,-1156,58,1903,1571,1015
209,517,307,-363,-48,412,-1302,-1390,58,1873,1581,1044
175,653,478,-414,-151,566,-1298,-1639,58,1815,1590,1058
112,756,644,-434,-265,700,-1298,-1805,58,1790,1615,1107
78,805,727,-441,-324,766,-1263,-1854,53,1766,1625,1146
53,858,805,-456,-375,832,-1190,-1854,58,1610,1566,1122
-19,897,917,-439,-468,907,-1098,-1903,58,1337,1454,1078
-131,927,1058,-397,-595,993,-1010,-1961,53,956,1283,980
-209,946,1156,-368,-683,1051,-912,-1952,58,517,1049,854
-248,873,1122,-312,-685,997,-800,-1854,53,107,800,712
-292,736,1029,-222,-661,883,-712,-1712,53,-234,551,551
-331,600,932,-134,-631,766,-600,-1493,58,-429,297,361
-370,483,854,-56,-612,668,-453,-1244,53,-497,112,195
-395,414,810,-9,-602,612,-341,-1098,58,-570,-4,97
-414,356,771,29,-592,563,-283,-956,58,-639,-112,24
-405,287,692,58,-549,490,-234,-805,58,-668,-204,-68
-444,219,663,112,-553,441,-185,-707,58,-649,-234,-126
-448,161,610,143,-529,385,-97,-580,58,-561,-195,-122
-409,122,531,143,-470,326,-19,-463,53,-488,-200,-131
-439,82,522,178,-480,302,-48,-468,53,-517,-263,-200
-468,58,527,204,-497,292,-63,-439,58,-512,-273,-224
-380,136,517,122,-448,326,24,-322,58,-439,-209,-190
-336,170,507,82,-422,339,117,-229,53,-390,-180,-165
-405,112,517,146,-461,314,141,-214,53,-400,-190,-180
-463,78,541,192,-502,309,126,-219,53,-414,-209,-209
-541,-19,522,280,-531,251,117,-239,53,-419,-229,-234
-546,-87,458,317,-502,185,126,-234,53,-419,-239,-244
-414,29,444,192,-429,236,151,-209,58,-409,-239,-244
-395,73,468,161,-431,270,151,-204,53,-395,-248,-263
-507,-63,444,285,-475,190,141,-190,53,-395,-268,-283
-497,-58,439,278,-468,190,165,-112,53,-356,-239,-263
-380,82,463,148,-422,273,229,-29,53,-287,-165,-204
-336,107,444,114,-390,275,239,0,53,-253,-136,-175
-385,48,434,168,-409,241,219,-19,48,-278,-161,-190
-419,4,424,207,-422,214,214,-19,63,-287,-175,-204
-453,-14,439,234,-446,212,209,-19,63,-292,-185,-219
-483,-48,434,265,-458,192,200,-34,58,-307,-200,-239
-468,-34,434,251,-451,200,190,-24,39,-317,-219,-248
-473,-29,444,251,-458,207,200,-19,58,-317,-219,-248
-483,-39,444,261,-463,202,214,-19,63,-322,-224,-248
-478,-43,434,261,-456,195,219,-14,63,-326,-224,-248
-463,-34,429,248,-446,197,224,14,63,-317,-214,-234
-463,-34,429,248,-446,197,229,19,63,-307,-204,-229
-468,-29,439,248,-453,204,234,24,63,-297,-190,-224
-468,-29,439,248,-453,204,239,29,63,-283,-180,-219
-488,-39,448,263,-468,204,224,19,53,-292,-195,-234
-492,-39,453,265,-473,207,229,34,53,-302,-200,-239
-492,-39,453,265,-473,207,234,48,53,-312,-204,-244
-497,-39,458,268,-478,209,234,48,58,-326,-209,-248
-458,-9,448,234,-453,219,258,68,63,-307,-190,-239
-424,4,429,209,-427,217,263,82,63,-302,-180,-229
-400,19,419,190,-409,219,268,87,63,-292,-175,-224
-385,19,405,183,-395,212,268,92,63,-283,-170,-214
-434,-9,424,222,-429,207,258,73,53,-307,-195,-234
-463,-34,429,248,-446,197,253,63,53,-326,-209,-248
-492,-53,439,273,-466,192,258,58,53,-336,-229,-258
-507,-63,444,285,-475,190,263,63,63,-341,-244,-263
-483,-53,429,268,-456,187,273,68,58,-331,-224,-253
-488,-53,434,270,-461,190,283,68,58,-336,-219,-248
-473,-43,429,258,-451,192,292,68,58,-326,-209,-239
-444,-34,409,239,-427,187,307,68,58,-317,-200,-229
-468,-58,409,263,-439,175,292,87,58,-322,-214,-244
-502,-82,419,292,-461,168,287,97,58,-326,-224,-253
-541,-97,444,319,-492,173,287,117,63,-336,-244,-263
-551,-107,444,329,-497,168,287,146,68,-341,-253,-273
-546,-102,444,324,-495,170,297,170,73,-336,-239,-268
-556,-102,453,329,-505,175,302,180,68,-336,-244,-273
-566,-112,453,339,-509,170,302,185,53,-341,-244,-273
-561,-92,468,326,-514,187,307,195,58,-326,-239,-268
-527,-68,458,297,-492,195,326,209,73,-312,-219,-253
-551,-73,478,312,-514,202,331,209,68,-312,-229,-248
-575,-97,478,336,-527,190,336,209,68,-312,-229,-258
-580,-92,488,336,-534,197,341,214,73,-312,-229,-253
-575,-92,483,334,-529,195,341,239,82,-312,-219,-253
-570,-97,473,334,-522,187,341,263,78,-317,-219,-253
-575,-112,463,344,-519,175,341,273,68,-317,-234,-253
-556,-117,439,336,-497,161,346,287,78,-312,-224,-253
-536,-102,434,319,-485,165,361,307,73,-302,-239,-263
-531,-97,434,314,-483,168,361,307,68,-302,-244,-268
-522,-82,439,302,-480,178,370,322,63,-302,-258,-268
-507,-78,429,292,-468,175,390,351,78,-292,-248,-263
-507,-82,424,295,-466,170,405,370,68,-283,-234,-253
-488,-92,395,290,-441,151,405,385,68,-273,-234,-263
-517,-97,419,307,-468,161,405,395,73,-273,-229,-253
-556,-97,458,326,-507,180,405,429,87,-263,-214,-244
-517,-63,453,290,-485,195,419,458,87,-239,-204,-229
-478,-29,448,253,-463,209,424,473,82,-219,-200,-224
-444,-9,434,226,-439,212,429,483,73,-209,-195,-224
-439,0,439,219,-439,219,439,507,78,-190,-180,-219
-458,-9,448,234,-453,219,434,512,73,-195,-195,-234
-483,-34,448,258,-466,207,434,507,78,-204,-200,-239
-512,-68,444,290,-478,187,434,512,78,-214,-204,-244
-546,-97,448,322,-497,175,434,517,97,-224,-204,-239
-556,-97,458,326,-507,180,434,551,107,-195,-195,-234
-575,-126,448,351,-512,161,434,585,107,-180,-190,-234
-595,-126,468,361,-531,170,429,600,87,-165,-185,-234
-605,-97,507,351,-556,204,429,634,78,-156,-185,-229
-605,-102,502,353,-553,200,429,614,87,-146,-165,-224
-600,-107,492,353,-546,192,429,614,87,-136,-161,-224
-600,-112,488,356,-544,187,429,610,87,-126,-156,-219
-590,-107,483,348,-536,187,429,614,92,-117,-151,-214
-566,-92,473,329,-519,190,419,653,97,-87,-126,-195
-551,-82,468,317,-509,192,419,692,87,-58,-112,-175
-551,-82,468,317,-509,192,409,717,78,-48,-107,-170
-566,-87,478,326,-522,195,400,732,68,-43,-107,-165
-561,-78,483,319,-522,202,405,741,63,-29,-82,-146
-541,-73,468,307,-505,197,405,746,63,-14,-68,-146
-527,-63,463,295,-495,200,405,751,68,0,-58,-136
-512,-48,463,280,-488,207,400,751,78,14,-43,-122
-507,-43,463,275,-485,209,380,741,68,24,-9,-102
-502,-39,463,270,-483,212,380,736,68,48,0,-87
-478,-24,453,251,-466,214,370,727,68,68,19,-68
-458,0,458,229,-458,229,356,712,68,87,34,-48
-434,14,448,209,-441,231,375,707,68,107,63,-19
-429,24,453,202,-441,239,375,692,78,126,82,-4
-424,34,458,195,-441,246,370,683,68,141,92,0
-409,53,463,178,-436,258,375,673,68,156,102,14
-414,48,463,183,-439,256,346,649,78,151,107,14
-434,24,458,204,-446,241,331,639,78,151,112,24
-453,-4,448,229,-451,222,302,619,63,151,117,19
-473,-29,444,251,-458,207,278,590,43,146,107,19
-458,0,458,229,-458,229,283,595,53,170,141,43
-458,0,458,229,-458,229,283,590,63,185,151,53
-463,-4,458,234,-461,226,273,561,63,185,156,53
-463,-4,458,234,-461,226,258,536,53,185,165,68
-439,19,458,209,-448,239,258,507,48,185,165,73
-429,24,453,202,-441,239,258,483,43,200,180,87
-424,24,448,200,-436,236,253,458,43,204,195,97
-414,24,439,195,-427,231,239,429,43,209,195,102
-419,34,453,192,-436,244,219,414,43,209,214,122
-424,34,458,195,-441,246,214,409,48,219,224,126
-429,39,468,195,-448,253,204,390,48,219,224,126
-419,43,463,187,-441,253,200,370,34,214,229,131
-400,68,468,165,-434,268,195,346,53,224,239,156
-390,73,463,158,-427,268,190,322,43,224,248,156
-375,82,458,146,-417,270,195,307,39,224,263,165
-366,87,453,139,-409,270,185,283,19,219,263,165
-375,82,458,146,-417,270,175,239,34,190,244,170
-375,78,453,148,-414,265,175,219,48,190,239,170
-375,73,448,151,-412,261,175,195,53,190,234,165
-380,58,439,161,-409,248,165,161,39,180,224,156
-419,53,473,183,-446,263,165,131,43,161,214,151
-419,63,483,178,-451,273,161,117,43,161,214,151
-419,58,478,180,-448,268,161,107,39,161,224,161
-444,39,483,202,-463,261,151,78,43,151,214,146
-444,34,478,204,-461,256,131,73,39,156,224,156
-439,48,488,195,-463,268,141,73,48,156,229,156
-439,58,497,190,-468,278,151,73,58,156,229,156
-444,53,497,195,-470,275,141,48,73,146,229,146
-434,48,483,192,-458,265,151,34,73,136,219,146
-429,58,488,185,-458,273,146,24,43,136,224,156
-424,58,483,183,-453,270,146,24,53,136,224,161
-424,43,468,190,-446,256,156,24,58,136,224,161
-444,43,488,200,-466,265,151,14,48,126,200,156
-444,68,512,187,-478,290,151,9,48,122,200,156
-448,53,502,197,-475,278,146,0,58,117,200,151
-463,53,517,204,-490,285,136,-9,63,107,195,146
-468,43,512,212,-490,278,146,-9,68,102,204,156
-453,34,488,209,-470,261,146,-14,73,107,204,156
-478,9,488,234,-483,248,131,-39,58,102,200,151
-497,-9,488,253,-492,239,131,-53,63,107,200,151
-453,29,483,212,-468,256,141,-43,63,122,204,161
-439,48,488,195,-463,268,151,-34,68,122,204,161
-439,63,502,187,-470,283,151,-48,73,117,204,161
-434,73,507,180,-470,290,146,-58,73,117,209,161
-448,68,517,190,-483,292,146,-48,73,117,214,170
-439,63,502,187,-470,283,146,-53,82,112,214,170
-434,87,522,173,-478,305,146,-63,82,112,214,165
-434,68,502,183,-468,285,146,-73,73,112,214,165
-439,53,492,192,-466,273,161,-58,68,112,214,170
-434,92,527,170,-480,309,161,-53,73,112,214,170
-439,78,517,180,-478,297,165,-58,78,112,214,170
-453,43,497,204,-475,270,161,-53,63,107,204,161
-492,9,502,241,-497,256,161,-78,63,87,190,141
-512,-9,502,261,-507,246,161,-82,73,78,180,136
-527,-14,512,270,-519,248,175,-87,73,73,175,136
-541,-34,507,287,-524,236,180,-92,78,73,180,136
-522,-14,507,268,-514,246,165,-97,87,73,180,136
-517,-19,497,268,-507,239,156,-117,87,73,175,136
-512,9,522,251,-517,265,151,-117,73,73,175,136
-512,39,551,236,-531,295,151,-112,73,73,175,136
-512,29,541,241,-527,285,161,-97,78,73,180,141
-512,19,531,246,-522,275,161,-92,78,78,185,146
-512,39,551,236,-531,295,161,-87,87,78,190,151
-517,39,556,239,-536,297,156,-87,73,78,195,156
-531,4,536,263,-534,270,156,-92,82,73,185,161
-536,0,536,268,-536,268,156,-97,82,73,185,156
-541,9,551,265,-546,280,156,-107,82,68,185,156
-546,9,556,268,-551,283,165,-112,82,68,185,156
-546,24,570,261,-558,297,170,-102,92,78,190,165
-556,29,585,263,-570,307,175,-92,82,73,190,165
-556,34,590,261,-573,312,180,-82,73,68,190,161
-541,39,580,251,-561,309,185,-82,73,68,190,161
-531,48,580,241,-556,314,190,-82,82,78,190,170
-541,24,566,258,-553,295,190,-97,82,73,180,165
-561,4,566,278,-563,285,190,-117,82,58,175,161
-536,19,556,258,-546,287,195,-102,82,58,175,161
-546,39,585,253,-566,312,185,-102,92,48,175,161
-566,39,605,263,-585,322,185,-102,78,39,165,156
-585,14,600,285,-592,307,195,-92,78,39,161,156
-575,14,590,280,-583,302,195,-82,82,39,156,156
-566,29,595,268,-580,312,200,-82,73,39,156,161
-556,29,585,263,-570,307,204,-82,78,43,161,161
-546,34,580,256,-563,307,209,-78,87,48,161,161
-536,34,570,251,-553,302,214,-78,87,53,156,156
-551,19,570,265,-561,295,204,-82,82,34,141,136
-570,9,580,280,-575,295,204,-87,82,29,141,151
-580,4,585,287,-583,295,200,-87,82,24,136,141
-590,-14,575,302,-583,280,195,-92,82,19,126,131
-610,-34,575,322,-592,270,200,-92,73,14,131,141
-600,-34,566,317,-583,265,214,-82,82,19,136,146
-595,-19,575,307,-585,278,219,-58,92,24,136,146
-595,-19,575,307,-585,278,224,-39,92,24,141,146
-585,-4,580,295,-583,287,219,-39,87,24,141,131
-570,4,575,283,-573,290,224,-34,87,24,136,131
-570,14,585,278,-578,300,224,-34,78,24,131,131
-566,29,595,268,-580,312,229,-34,87,29,126,131
-570,19,590,275,-580,305,244,-29,78,39,126,131
-585,14,600,285,-592,307,248,-24,87,39,126,136
-600,9,610,295,-605,309,248,-14,102,39,126,136
-619,4,624,307,-622,314,248,-29,87,39,122,126
-580,73,653,253,-617,363,258,-39,87,43,131,136
-663,-14,649,339,-656,317,239,-48,87,24,112,117
-683,-43,639,363,-661,297,258,-39,82,29,122,126
-634,0,634,317,-634,317,278,-4,87,43,141,146
-585,39,624,273,-605,331,292,19,87,68,156,156
-580,48,629,265,-605,339,302,19,87,68,146,156
-575,58,634,258,-605,346,302,19,87,68,146,156
-570,68,639,251,-605,353,302,19,87,68,146,156
-566,78,644,244,-605,361,302,19,87,68,146,156
-590,63,653,263,-622,358,292,9,78,58,136,151
-614,48,663,283,-639,356,287,4,82,53,126,141
-639,34,673,302,-656,353,283,0,92,48,117,131
-658,29,688,314,-673,358,292,0,97,48,112,131
-634,48,683,292,-658,366,307,14,92,63,136,151
-624,63,688,280,-656,375,307,19,92,87,151,161
-614,78,692,268,-653,385,307,24,87,102,165,170
-614,82,697,265,-656,390,312,29,78,117,180,185
-619,78,697,270,-658,387,307,29,87,112,175,185
-614,78,692,268,-653,385,283,24,87,102,170,175
-629,87,717,270,-673,402,268,9,87,87,161,170
-649,73,722,287,-685,397,253,4,82,78,151,161
-663,58,722,302,-692,390,248,-4,92,87,151,161
-668,48,717,309,-692,383,229,-24,82,82,151,161
-668,43,712,312,-690,378,229,-29,82,82,156,161
-668,58,727,305,-697,392,224,-34,87,87,165,165
-663,63,727,300,-695,395,224,-39,87,107,170,180
-658,58,717,300,-688,387,224,-39,87,107,185,195
-644,73,717,285,-680,395,214,-39,87,112,190,204
-639,78,717,280,-678,397,214,-39,92,112,190,209
-649,68,717,290,-683,392,204,-24,92,122,200,219
-649,63,712,292,-680,387,200,-19,87,126,209,224
-634,68,702,283,-668,385,200,-9,87,126,214,229
-644,63,707,290,-675,385,200,-4,87,126,214,229
-653,68,722,292,-688,395,200,-14,82,122,214,224
-649,53,702,297,-675,378,200,-9,87,136,219,229
-634,53,688,290,-661,370,195,-9,87,136,219,229
-629,63,692,283,-661,378,195,0,92,146,219,234
-614,68,683,273,-649,375,209,9,82,156,234,253
-605,68,673,268,-639,370,214,14,87,161,244,263
-585,73,658,256,-622,366,219,14,87,165,253,273
-566,97,663,234,-614,380,224,24,87,180,263,283
-575,107,683,234,-629,395,239,19,92,175,263,283
-590,87,678,251,-634,383,239,19,97,175,263,283
-614,58,673,278,-644,366,229,4,97,165,248,278
-624,53,678,285,-651,366,229,-4,92,165,229,263
-629,43,673,292,-651,358,229,14,92,161,244,263
-634,29,663,302,-649,346,239,29,92,165,248,268
-644,29,673,307,-658,351,239,39,87,165,244,273
-658,29,688,314,-673,358,248,53,87,165,248,263
-653,39,692,307,-673,366,248,43,97,161,244,258
-663,19,683,322,-673,351,253,39,97,156,239,248
-697,-9,688,353,-692,339,248,29,97,141,219,239
-717,-24,692,370,-705,334,229,19,92,136,209,224
-736,-43,692,390,-714,324,239,14,92,126,200,219
-736,-43,692,390,-714,324,244,9,92,126,200,214
-722,-19,702,370,-712,341,244,9,87,131,209,214
-722,-19,702,370,-712,341,244,4,87,131,209,209
-746,-39,707,392,-727,334,239,0,73,117,204,219
-756,-39,717,397,-736,339,234,-4,87,117,204,224
-727,-29,697,378,-712,334,234,-9,97,122,204,224
-727,-19,707,373,-717,344,229,-24,97,122,204,224
-727,-14,712,370,-719,348,234,-9,87,136,204,229
-727,-14,712,370,-719,348,239,4,97,141,214,234
-722,-19,702,370,-712,341,244,19,87,146,219,239
-717,-14,702,366,-710,344,253,24,87,156,219,244
-697,-4,692,351,-695,344,248,29,92,151,219,234
-697,0,697,348,-697,348,244,29,92,146,219,229
-697,0,697,348,-697,348,239,34,97,141,224,229
-697,0,697,348,-697,348,234,39,102,136,224,234
-717,0,717,358,-717,358,248,39,126,151,234,239
-722,0,722,361,-722,361,263,39,141,165,234,244
-727,-4,722,366,-724,358,278,43,156,170,234,248
-736,-9,727,373,-732,358,292,43,180,165,229,253
-722,-24,697,373,-710,336,273,29,165,165,239,263
-717,-24,692,370,-705,334,268,29,156,165,239,258
-712,-24,688,368,-700,331,268,29,165,170,239,258
-702,-24,678,363,-690,326,263,29,175,170,239,263
-688,-4,683,346,-685,339,268,34,180,180,244,263
-683,4,688,339,-685,346,273,43,185,180,248,263
-678,14,692,331,-685,353,278,48,190,180,248,263
-683,24,707,329,-695,366,283,53,195,185,248,263
-658,29,688,314,-673,358,312,82,263,195,253,278
-761,-39,722,400,-741,341,253,39,185,175,229,248
-819,-73,746,446,-783,336,224,43,151,190,244,258
-732,14,746,358,-739,380,239,78,219,224,278,283
-658,82,741,287,-700,412,239,102,283,268,312,307
-624,122,746,251,-685,434,219,122,356,307,331,331
-634,97,732,268,-683,414,200,126,424,331,346,336
-707,0,707,353,-707,353,180,112,424,346,356,341
-736,-39,697,387,-717,329,141,102,473,380,361,351
-712,29,741,341,-727,385,112,117,580,448,405,375
-629,122,751,253,-690,436,122,185,663,556,483,434
-527,190,717,168,-622,453,136,214,727,649,556,488
-541,185,727,178,-634,456,112,156,751,673,566,502
-585,151,736,217,-661,444,102,68,741,683,570,492
-566,190,756,187,-661,473,92,-14,790,736,600,502
-570,180,751,195,-661,466,48,-97,878,829,663,546
-619,78,697,270,-658,387,-48,-219,941,936,727,590
-605,112,717,246,-661,414,-131,-302,1049,1063,805,644
-502,234,736,134,-619,485,-131,-253,1171,1239,927,722
-375,346,722,14,-549,534,-146,-204,1263,1424,1073,829
-302,400,702,-48,-502,551,-253,-234,1317,1605,1215,932
-322,356,678,-17,-500,517,-429,-312,1317,1766,1342,1005
-336,278,614,29,-475,446,-595,-385,1215,1917,1468,1083
-278,287,566,-4,-422,427,-688,-468,1054,2064,1620,1200
-180,346,527,-82,-353,436,-780,-566,888,2181,1776,1327
-151,390,541,-119,-346,466,-917,-732,707,2235,1859,1395
-209,424,634,-107,-422,529,-980,-941,507,2215,1883,1424
-248,497,746,-124,-497,622,-980,-1137,302,2186,1903,1454
-273,585,858,-156,-566,722,-966,-1327,58,2127,1903,1459
-346,619,966,-136,-656,793,-985,-1483,-146,2103,1917,1478
-351,717,1068,-183,-710,893,-951,-1512,-248,2049,1927,1507
-385,800,1185,-207,-785,993,-878,-1503,-390,1864,1830,1483
-527,780,1307,-126,-917,1044,-805,-1532,-624,1503,1639,1381
-619,790,1410,-85,-1015,1100,-727,-1571,-863,1015,1390,1254
-658,849,1507,-95,-1083,1178,-619,-1571,-1054,507,1127,1117
-766,766,1532,0,-1149,1149,-527,-1522,-1185,78,868,966
-868,580,1449,143,-1159,1015,-448,-1400,-1156,-195,639,795
-868,434,1302,217,-1085,868,-297,-1132,-956,-283,453,644
-868,307,1176,280,-1022,741,-141,-844,-746,-292,307,527
-893,239,1132,326,-1012,685,-58,-668,-653,-346,180,429
-902,209,1112,346,-1007,661,0,-536,-556,-385,92,366
-902,141,1044,380,-973,592,58,-424,-429,-385,29,322
-922,92,1015,414,-968,553,97,-366,-322,-366,9,283
-917,73,990,422,-954,531,156,-287,-224,-297,29,268
-888,73,961,407,-924,517,214,-209,-131,-253,34,248
-897,24,922,436,-910,473,244,-165,-102,-234,9,219
-917,-9,907,463,-912,448,287,-107,-58,-190,19,214
-907,19,927,444,-917,473,336,-39,-39,-156,34,219
-902,24,927,439,-915,475,370,4,-4,-136,43,214
-932,-24,907,478,-919,441,395,39,24,-126,53,219
-941,-48,893,495,-917,422,400,34,63,-122,43,209
-1019,-117,902,568,-961,392,370,24,82,-146,14,175
-1093,-195,897,644,-995,351,370,39,112,-146,4,156
-1049,-146,902,597,-976,378,405,92,165,-107,34,175
-990,-102,888,546,-939,392,444,136,190,-63,53,185
-976,-92,883,534,-929,395,444,151,180,-53,43,165
-995,-78,917,536,-956,419,439,170,180,-53,43,156
-1034,-102,932,568,-983,414,444,214,200,-34,48,165
-1029,-117,912,573,-971,397,453,224,219,-29,58,175
-1015,-117,897,566,-956,390,463,234,244,-14,68,190
-995,-112,883,553,-939,385,478,253,278,-4,78,195
-976,-82,893,529,-934,405,492,273,297,9,92,200
-951,-68,883,509,-917,407,502,278,312,14,102,200
-966,-73,893,519,-929,409,492,278,278,14,92,190
-980,-78,902,529,-941,412,502,283,292,14,92,190
-1000,-97,902,549,-951,402,517,283,292,9,87,190
-1005,-112,893,558,-949,390,522,287,287,4,87,190
-1005,-102,902,553,-954,400,517,302,297,4,78,190
-1010,-102,907,556,-958,402,512,302,307,4,78,190
-1019,-97,922,558,-971,412,507,302,317,4,82,190
-1024,-97,927,561,-976,414,502,302,326,9,82,190
-1024,-92,932,558,-978,419,517,302,326,14,92,190
-1019,-87,932,553,-976,422,531,317,326,19,92,190
-1010,-82,927,546,-968,422,546,331,326,24,92,190
-1005,-78,927,541,-966,424,556,331,331,24,92,190
-985,-39,946,512,-966,453,570,351,346,39,107,200
-961,-24,936,492,-949,456,575,366,356,39,112,209
-946,-9,936,478,-941,463,580,370,366,43,112,214
-941,-9,932,475,-936,461,580,375,375,48,112,224
-995,-53,941,524,-968,444,561,356,351,24,87,200
-1039,-102,936,570,-988,417,546,346,336,4,73,180
-1083,-146,936,614,-1010,395,541,341,322,-4,53,165
-1112,-180,932,646,-1022,375,536,346,317,-9,39,156
-1088,-165,922,627,-1005,378,541,351,326,0,43,165
-1083,-161,922,622,-1002,380,546,351,331,-14,43,161
-1058,-146,912,602,-985,383,551,351,336,-14,48,161
-1019,-131,888,575,-954,378,561,351,341,-14,53,161
-1010,-126,883,568,-946,378,556,336,331,-19,34,161
-1010,-131,878,570,-944,373,551,331,331,-24,29,156
-1015,-126,888,570,-951,380,551,336,336,-34,14,151
-990,-117,873,553,-932,378,551,351,341,-39,9,146
-990,-112,878,551,-934,383,561,380,366,-34,24,156
-1005,-112,893,558,-949,390,566,385,370,-34,19,146
-1019,-122,897,570,-958,387,566,385,366,-39,19,141
-1019,-102,917,561,-968,407,570,390,380,-24,24,141
-971,-87,883,529,-927,397,595,424,414,-4,43,156
-990,-92,897,541,-944,402,595,444,419,0,34,161
-1010,-117,893,563,-951,387,595,463,429,4,34,151
-1010,-112,897,561,-954,392,595,488,444,9,34,156
-1019,-102,917,561,-968,407,595,502,448,4,24,151
-1029,-107,922,568,-976,407,595,517,448,-4,24,146
-1049,-122,927,585,-988,402,595,517,444,-9,9,141
-1044,-126,917,585,-980,395,600,522,458,-9,19,136
-1034,-131,902,583,-968,385,605,536,483,9,19,136
-1039,-136,902,588,-971,383,605,541,488,9,19,131
-1039,-131,907,585,-973,387,614,561,492,9,9,131
-1034,-136,897,585,-966,380,634,595,517,19,24,136
-834,-126,707,480,-771,290,570,536,463,-48,-34,78
-624,-131,492,378,-558,180,512,483,409,-107,-107,0
-463,-131,331,297,-397,100,453,424,361,-175,-175,-58
-312,-126,185,219,-248,29,395,390,322,-234,-234,-117
-214,-122,92,168,-153,-14,380,380,322,-239,-258,-141
-126,-107,19,117,-73,-43,356,366,307,-248,-278,-165
-43,-107,-63,75,9,-85,331,346,287,-268,-297,-195
9,-117,-126,53,68,-122,312,341,283,-278,-307,-219
73,-97,-170,12,122,-134,307,356,283,-278,-326,-239
112,-92,-204,-9,158,-148,297,351,283,-292,-336,-248
146,-97,-244,-24,195,-170,287,356,278,-307,-346,-258
175,-97,-273,-39,224,-185,278,361,292,-322,-351,-258
195,-102,-297,-46,246,-200,268,361,307,-312,-351,-263
204,-136,-341,-34,273,-239,258,370,322,-307,-356,-273
214,-141,-356,-36,285,-248,244,361,317,-302,-361,-283
234,-117,-351,-58,292,-234,234,370,322,-302,-370,-287
253,-102,-356,-75,305,-229,224,366,336,-292,-361,-283
278,-97,-375,-90,326,-236,224,380,341,-283,-356,-283
297,-92,-390,-102,344,-241,224,390,346,-273,-351,-278
326,-78,-405,-124,366,-241,224,409,356,-263,-346,-273
370,-58,-429,-156,400,-244,234,405,390,-229,-326,-258
405,-43,-448,-180,427,-246,234,419,400,-204,-307,-244
424,-39,-463,-192,444,-251,224,419,409,-200,-297,-244
429,-39,-468,-195,448,-253,214,409,419,-200,-292,-244
409,-68,-478,-170,444,-273,195,405,409,-195,-297,-244
405,-82,-488,-161,446,-285,180,395,395,-190,-292,-253
395,-92,-488,-151,441,-290,165,385,385,-185,-292,-253
385,-97,-483,-143,434,-290,146,370,380,-180,-287,-248
400,-97,-497,-151,448,-297,151,361,385,-165,-253,-224
405,-87,-492,-158,448,-290,156,356,390,-146,-244,-214
429,-68,-497,-180,463,-283,151,346,395,-131,-224,-200
448,-39,-488,-204,468,-263,141,331,400,-117,-209,-185
448,-43,-492,-202,470,-268,131,341,390,-102,-195,-170
448,-43,-492,-202,470,-268,122,341,400,-87,-180,-161
448,-43,-492,-202,470,-268,107,346,390,-78,-175,-161
458,-34,-492,-212,475,-263,102,351,390,-68,-170,-151
483,-4,-488,-239,485,-246,102,322,395,-43,-146,-141
492,4,-488,-248,490,-241,97,317,400,-34,-131,-122
502,9,-492,-256,497,-241,78,302,390,-24,-117,-117
512,19,-492,-265,502,-236,63,278,375,-19,-117,-107
531,24,-507,-278,519,-241,63,287,370,-14,-97,-102
527,19,-507,-273,517,-244,58,287,366,0,-92,-92
517,9,-507,-263,512,-248,43,263,351,0,-92,-92
512,4,-507,-258,509,-251,24,244,326,0,-87,-78
536,24,-512,-280,524,-244,24,219,312,9,-68,-63
546,34,-512,-290,529,-239,24,200,297,24,-53,-48
551,39,-512,-295,531,-236,19,180,287,29,-39,-39
561,43,-517,-302,539,-236,4,156,278,34,-39,-34
551,24,-527,-287,539,-251,-19,112,244,29,-43,-39
541,14,-527,-278,534,-256,-29,97,224,34,-39,-39
531,9,-522,-270,527,-256,-43,68,200,29,-43,-43
536,4,-531,-270,534,-263,-53,39,161,19,-43,-43
561,19,-541,-290,551,-261,-73,4,151,14,-53,-34
566,24,-541,-295,553,-258,-82,-19,122,9,-43,-39
575,34,-541,-305,558,-253,-82,-34,97,4,-29,-34
580,39,-541,-309,561,-251,-97,-58,58,-4,-29,-39
590,39,-551,-314,570,-256,-87,-78,53,-4,-24,-34
600,39,-561,-319,580,-261,-78,-82,58,4,-24,-24
610,39,-570,-324,590,-265,-68,-92,53,14,-24,-19
614,29,-585,-322,600,-278,-68,-112,29,14,-29,-19
585,39,-546,-312,566,-253,-87,-151,0,-4,-34,-24
595,53,-541,-324,568,-244,-102,-165,-24,-14,-39,-24
605,53,-551,-329,578,-248,-112,-175,-53,-24,-34,-14
590,39,-551,-314,570,-256,-131,-204,-73,-43,-48,-29
585,29,-556,-307,570,-263,-141,-214,-82,-48,-53,-34
585,39,-546,-312,566,-253,-131,-219,-87,-48,-53,-39
580,43,-536,-312,558,-246,-122,-224,-92,-48,-58,-43
570,34,-536,-302,553,-251,-131,-253,-92,-58,-63,-58
575,53,-522,-314,549,-234,-131,-283,-102,-68,-73,-58
585,68,-517,-326,551,-224,-136,-297,-141,-68,-68,-48
595,73,-522,-334,558,-224,-136,-302,-141,-68,-68,-43
600,63,-536,-331,568,-236,-126,-307,-146,-68,-68,-43
605,58,-546,-331,575,-244,-117,-297,-156,-58,-68,-39
610,78,-531,-344,570,-226,-112,-283,-156,-53,-63,-39
610,58,-551,-334,580,-246,-112,-273,-146,-48,-58,-43
600,53,-546,-326,573,-246,-117,-263,-141,-48,-58,-48
590,53,-536,-322,563,-241,-122,-268,-156,-63,-63,-58
600,53,-546,-326,573,-246,-126,-278,-161,-68,-68,-58
570,39,-531,-305,551,-246,-146,-307,-185,-82,-78,-63
546,29,-517,-287,531,-244,-151,-326,-190,-87,-82,-63
570,39,-531,-305,551,-246,-151,-326,-195,-82,-82,-73
575,39,-536,-307,556,-248,-141,-317,-195,-82,-87,-73
566,34,-531,-300,549,-248,-141,-331,-195,-87,-92,-73
561,24,-536,-292,549,-256,-146,-341,-200,-87,-92,-73
561,29,-531,-295,546,-251,-141,-336,-209,-78,-87,-73
575,34,-541,-305,558,-253,-136,-336,-200,-82,-87,-73
585,68,-517,-326,551,-224,-131,-341,-200,-82,-87,-78
590,58,-531,-324,561,-236,-126,-346,-209,-82,-87,-78
580,43,-536,-312,558,-246,-136,-356,-229,-102,-97,-82
590,82,-507,-336,549,-212,-141,-366,-229,-102,-97,-82
590,68,-522,-329,556,-226,-141,-385,-229,-102,-97,-82
580,34,-546,-307,563,-256,-151,-395,-248,-107,-107,-92
551,29,-522,-290,536,-246,-165,-414,-263,-122,-126,-102
541,29,-512,-285,527,-241,-170,-414,-258,-126,-131,-107
536,43,-492,-290,514,-224,-161,-414,-263,-126,-131,-107
531,43,-488,-287,509,-222,-161,-414,-263,-122,-122,-107
546,58,-488,-302,517,-214,-170,-405,-253,-131,-122,-107
546,48,-497,-297,522,-224,-175,-419,-253,-131,-126,-107
546,73,-473,-309,509,-200,-175,-414,-268,-131,-126,-107
541,97,-444,-319,492,-173,-170,-405,-268,-131,-126,-107
551,78,-473,-314,512,-197,-161,-400,-263,-122,-117,-107
561,68,-492,-314,527,-212,-151,-395,-263,-117,-117,-107
570,87,-483,-329,527,-197,-141,-390,-253,-117,-117,-107
575,87,-488,-331,531,-200,-136,-390,-268,-117,-117,-107
546,43,-502,-295,524,-229,-136,-395,-273,-131,-126,-102
536,29,-507,-283,522,-239,-136,-400,-278,-131,-126,-107
527,29,-497,-278,512,-234,-136,-409,-283,-136,-126,-107
517,19,-497,-268,507,-239,-126,-414,-287,-136,-126,-107
531,34,-497,-283,514,-231,-126,-414,-283,-126,-131,-117
527,39,-488,-283,507,-224,-126,-414,-287,-131,-131,-117
531,43,-488,-287,509,-222,-126,-414,-292,-136,-131,-122
551,48,-502,-300,527,-226,-126,-424,-287,-136,-131,-122
541,58,-483,-300,512,-212,-122,-409,-283,-136,-131,-122
522,34,-488,-278,505,-226,-122,-419,-287,-141,-141,-126
492,14,-478,-253,485,-231,-122,-434,-292,-156,-146,-131
507,29,-478,-268,492,-224,-117,-414,-297,-156,-146,-131
531,63,-468,-297,500,-202,-112,-405,-278,-141,-131,-126
536,68,-468,-302,502,-200,-107,-405,-283,-146,-136,-126
541,48,-492,-295,517,-222,-92,-395,-273,-141,-136,-122
575,53,-522,-314,549,-234,-87,-385,-258,-136,-136,-117
546,43,-502,-295,524,-229,-107,-395,-278,-156,-151,-126
527,29,-497,-278,512,-234,-117,-405,-283,-161,-151,-131
507,19,-488,-263,497,-234,-126,-409,-283,-165,-156,-136
488,4,-483,-246,485,-239,-136,-419,-292,-170,-165,-146
497,4,-492,-251,495,-244,-117,-405,-297,-165,-161,-156
492,0,-492,-246,492,-246,-97,-400,-287,-165,-161,-141
497,0,-497,-248,497,-248,-82,-390,-278,-165,-165,-151
502,-14,-517,-244,509,-265,-68,-385,-268,-165,-175,-161
502,53,-448,-278,475,-197,-97,-414,-278,-175,-175,-151
551,82,-468,-317,509,-192,-78,-405,-248,-156,-156,-126
595,107,-488,-351,541,-190,-48,-400,-229,-136,-131,-117
536,39,-497,-287,517,-229,-48,-409,-248,-161,-161,-136
478,-9,-488,-234,483,-248,-58,-409,-273,-185,-175,-165
478,0,-478,-239,478,-239,-48,-380,-263,-175,-170,-161
478,0,-478,-239,478,-239,-48,-361,-253,-165,-165,-156
478,0,-478,-239,478,-239,-48,-341,-244,-156,-161,-151
478,0,-478,-239,478,-239,-48,-322,-234,-146,-156,-146
492,9,-483,-251,488,-236,-34,-317,-219,-141,-165,-151
497,19,-478,-258,488,-229,-34,-317,-209,-141,-165,-151
502,29,-473,-265,488,-222,-34,-317,-195,-141,-165,-151
512,48,-463,-280,488,-207,-19,-312,-185,-136,-161,-141
522,43,-478,-283,500,-217,-19,-317,-185,-146,-161,-151
517,43,-473,-280,495,-214,-24,-322,-190,-136,-161,-151
512,43,-468,-278,490,-212,-29,-326,-200,-136,-161,-151
497,34,-463,-265,480,-214,-29,-331,-214,-136,-161,-146
478,14,-463,-246,470,-224,-43,-336,-204,-141,-156,-141
478,9,-468,-244,473,-229,-68,-346,-204,-141,-151,-146
458,14,-444,-236,451,-214,-82,-366,-204,-146,-151,-146
434,-4,-439,-214,436,-222,-97,-375,-209,-146,-151,-151
444,4,-439,-224,441,-217,-107,-375,-219,-136,-151,-141
453,19,-434,-236,444,-207,-122,-385,-229,-141,-151,-141
468,39,-429,-253,448,-195,-117,-380,-229,-141,-146,-141
483,78,-405,-280,444,-163,-117,-375,-224,-136,-136,-136
478,73,-405,-275,441,-165,-107,-375,-219,-117,-136,-126
473,58,-414,-265,444,-178,-107,-380,-214,-117,-126,-117
478,63,-414,-270,446,-175,-117,-385,-209,-112,-126,-112
473,58,-414,-265,444,-178,-117,-390,-200,-112,-131,-112
473,48,-424,-261,448,-187,-122,-385,-200,-102,-122,-112
473,43,-429,-258,451,-192,-122,-380,-204,-97,-112,-107
488,48,-439,-268,463,-195,-117,-370,-204,-97,-107,-102
478,43,-434,-261,456,-195,-112,-366,-204,-97,-107,-102
468,43,-424,-256,446,-190,-122,-356,-190,-102,-112,-97
473,34,-439,-253,456,-202,-122,-351,-185,-87,-102,-92
488,39,-448,-263,468,-204,-126,-351,-185,-87,-97,-92
492,53,-439,-273,466,-192,-126,-341,-180,-78,-92,-87
502,39,-463,-270,483,-212,-107,-341,-170,-63,-87,-73
507,29,-478,-268,492,-224,-107,-336,-165,-63,-78,-68
522,24,-497,-273,509,-236,-107,-336,-165,-63,-68,-63
536,39,-497,-287,517,-229,-107,-326,-165,-53,-58,-58
527,39,-488,-283,507,-224,-112,-312,-161,-48,-48,-58
502,19,-483,-261,492,-231,-112,-302,-156,-48,-48,-58
468,-9,-478,-229,473,-244,-122,-307,-156,-58,-63,-63
448,-14,-463,-217,456,-239,-122,-307,-161,-58,-82,-78
448,-19,-468,-214,458,-244,-107,-317,-161,-68,-73,-92
448,-39,-488,-204,468,-263,-92,-312,-161,-68,-73,-92
444,-43,-488,-200,466,-265,-87,-312,-165,-73,-82,-92
434,-48,-483,-192,458,-265,-73,-307,-165,-78,-82,-107
463,-19,-483,-222,473,-251,-58,-302,-156,-68,-78,-102
468,-19,-488,-224,478,-253,-48,-302,-156,-68,-73,-102
448,-29,-478,-209,463,-253,-48,-307,-156,-78,-82,-102
444,-24,-468,-209,456,-246,-63,-312,-161,-78,-82,-107
444,-39,-483,-202,463,-261,-48,-297,-156,-73,-78,-102
453,-34,-488,-209,470,-261,-39,-292,-151,-68,-73,-97
478,-4,-483,-236,480,-244,-34,-283,-151,-58,-58,-87
488,0,-488,-244,488,-244,-29,-278,-146,-53,-53,-82
453,-29,-483,-212,468,-256,-43,-292,-165,-73,-68,-92
424,-39,-463,-192,444,-251,-48,-307,-156,-78,-78,-97
434,-39,-473,-197,453,-256,-48,-322,-151,-78,-87,-107
414,-39,-453,-187,434,-246,-53,-346,-156,-82,-97,-117
400,-53,-453,-173,427,-253,-63,-331,-165,-73,-102,-107
385,-73,-458,-156,422,-265,-63,-317,-156,-73,-87,-107
375,-97,-473,-139,424,-285,-63,-302,-165,-73,-78,-107
366,-112,-478,-126,422,-295,-58,-297,-165,-68,-73,-107
380,-82,-463,-148,422,-273,-58,-307,-161,-68,-82,-107
385,-68,-453,-158,419,-261,-58,-312,-161,-68,-82,-112
390,-58,-448,-165,419,-253,-58,-312,-156,-68,-78,-112
395,-48,-444,-173,419,-246,-58,-312,-151,-68,-78,-107
375,-63,-439,-156,407,-251,-58,-307,-151,-68,-78,-107
370,-68,-439,-151,405,-253,-58,-302,-151,-58,-78,-107
366,-78,-444,-143,405,-261,-58,-292,-151,-58,-78,-107
356,-87,-444,-134,400,-265,-58,-287,-141,-68,-82,-107
361,-78,-439,-141,400,-258,-73,-302,-146,-78,-82,-107
366,-73,-439,-146,402,-256,-73,-302,-156,-78,-82,-112
370,-68,-439,-151,405,-253,-68,-302,-146,-73,-82,-112
380,-63,-444,-158,412,-253,-68,-302,-136,-73,-82,-107
380,-63,-444,-158,412,-253,-63,-292,-136,-58,-73,-97
380,-63,-444,-158,412,-253,-58,-287,-136,-53,-63,-97
380,-63,-444,-158,412,-253,-53,-287,-136,-48,-58,-97
370,-63,-434,-153,402,-248,-48,-287,-136,-39,-53,-97
414,-48,-463,-183,439,-256,-9,-258,-97,-19,-29,-73
458,-9,-468,-224,463,-239,-29,-273,-97,-19,-34,-73
429,4,-424,-217,427,-209,-58,-278,-92,-14,-29,-73
488,82,-405,-285,446,-161,-24,-224,-24,48,24,-29
453,34,-419,-244,436,-192,-43,-229,0,43,19,-34
283,-151,-434,-65,358,-292,-122,-287,-43,-4,-29,-87
322,-107,-429,-107,375,-268,-131,-244,4,48,4,-73
512,97,-414,-305,463,-158,-102,-170,102,131,82,0
444,19,-424,-231,434,-202,-151,-180,131,146,78,0
312,-117,-429,-97,370,-273,-248,-214,161,156,43,-43
405,-14,-419,-195,412,-217,-239,-156,302,263,112,14
478,34,-444,-256,461,-204,-214,-97,434,356,204,78
424,-19,-444,-202,434,-231,-239,-146,448,370,214,73
468,34,-434,-251,451,-200,-219,-195,468,409,239,102
575,122,-453,-348,514,-165,-219,-229,536,473,287,141
570,112,-458,-341,514,-173,-302,-312,595,536,312,146
551,87,-463,-319,507,-187,-400,-375,678,634,375,190
614,112,-502,-363,558,-195,-463,-409,805,771,473,244
600,136,-463,-368,531,-163,-522,-429,917,888,527,273
570,131,-439,-351,505,-153,-575,-390,1049,1024,614,331
673,165,-507,-419,590,-170,-653,-341,1180,1224,766,453
810,229,-580,-519,695,-175,-761,-312,1298,1444,932,566
863,229,-634,-546,749,-202,-897,-346,1322,1625,1068,653
844,190,-653,-517,749,-231,-1068,-507,1180,1712,1171,712
883,209,-673,-546,778,-231,-1210,-644,1024,1820,1288,800
990,273,-717,-631,854,-222,-1288,-732,902,1922,1410,917
1019,346,-673,-683,846,-163,-1351,-912,712,1932,1454,966
922,419,-502,-671,712,-41,-1351,-1195,448,1834,1434,966
829,468,-361,-649,595,53,-1317,-1464,175,1727,1415,971
824,531,-292,-678,558,119,-1298,-1639,-48,1683,1439,1019
839,600,-239,-719,539,180,-1254,-1678,-180,1639,1468,1068
824,673,-151,-749,488,261,-1180,-1708,-361,1483,1390,1034
692,722,29,-707,331,375,-1146,-1815,-673,1161,1210,941
541,683,141,-612,200,412,-1078,-1893,-1000,780,1019,844
483,712,229,-597,126,470,-990,-1903,-1278,351,814,727
444,717,273,-580,85,495,-907,-1854,-1459,-39,585,595
390,610,219,-500,85,414,-790,-1732,-1459,-273,405,483
341,424,82,-383,129,253,-668,-1512,-1307,-400,239,341
292,229,-63,-261,178,82,-541,-1273,-1098,-478,53,175
346,180,-165,-263,256,7,-429,-1098,-946,-531,-73,78
395,180,-214,-287,305,-17,-351,-976,-868,-561,-141,24
346,82,-263,-214,305,-90,-283,-834,-771,-570,-204,-39
375,63,-312,-219,344,-124,-195,-707,-644,-531,-224,-68
390,63,-326,-226,358,-131,-165,-649,-566,-512,-244,-112
156,-151,-307,-2,231,-229,-204,-668,-580,-556,-336,-209
58,-278,-336,109,197,-307,-204,-644,-561,-566,-380,-268
214,-156,-370,-29,292,-263,-112,-527,-448,-473,-312,-224
253,-156,-409,-48,331,-283,-63,-448,-390,-429,-297,-219
180,-219,-400,19,290,-309,-68,-434,-395,-439,-326,-263
200,-190,-390,-4,295,-290,-14,-380,-356,-419,-307,-248
239,-175,-414,-31,326,-295,39,-317,-287,-385,-287,-229
248,-185,-434,-31,341,-309,39,-317,-278,-400,-307,-263
214,-204,-419,-4,317,-312,19,-331,-278,-409,-317,-273
190,-224,-414,17,302,-319,24,-317,-253,-390,-317,-273
170,-258,-429,43,300,-344,34,-302,-239,-375,-326,-283
165,-268,-434,51,300,-351,53,-287,-219,-366,-317,-292
204,-224,-429,9,317,-326,68,-268,-200,-336,-307,-292
244,-190,-434,-26,339,-312,73,-224,-170,-307,-283,-263
258,-185,-444,-36,351,-314,112,-156,-122,-273,-244,-234
253,-200,-453,-26,353,-326,122,-161,-107,-278,-253,-239
253,-200,-453,-26,353,-326,126,-146,-92,-278,-253,-244
253,-175,-429,-39,341,-302,131,-131,-92,-273,-248,-248
258,-165,-424,-46,341,-295,131,-131,-97,-278,-248,-258
258,-170,-429,-43,344,-300,117,-131,-117,-278,-268,-268
248,-175,-424,-36,336,-300,122,-126,-97,-278,-268,-268
234,-195,-429,-19,331,-312,131,-126,-92,-283,-273,-268
234,-209,-444,-12,339,-326,131,-122,-92,-287,-273,-268
229,-219,-448,-4,339,-334,122,-122,-102,-292,-278,-273
219,-229,-448,4,334,-339,122,-136,-102,-297,-283,-278
204,-234,-439,14,322,-336,122,-151,-102,-302,-283,-283
195,-244,-439,24,317,-341,122,-165,-102,-302,-287,-287
200,-234,-434,17,317,-334,122,-151,-97,-297,-287,-278
209,-224,-434,7,322,-329,131,-122,-92,-292,-287,-278
224,-214,-439,-4,331,-326,141,-92,-87,-287,-287,-278
234,-204,-439,-14,336,-322,146,-78,-78,-287,-287,-278
234,-200,-434,-17,334,-317,156,-87,-82,-302,-297,-287
239,-200,-439,-19,339,-319,156,-82,-82,-312,-297,-287
234,-200,-434,-17,334,-317,156,-87,-82,-317,-302,-292
219,-214,-434,-2,326,-324,151,-92,-82,-322,-307,-292
224,-224,-448,0,336,-336,141,-92,-82,-317,-317,-302
229,-229,-458,0,344,-344,136,-92,-82,-326,-317,-307
234,-229,-463,-2,348,-346,141,-87,-82,-326,-322,-307
253,-219,-473,-17,363,-346,146,-73,-73,-322,-322,-302
258,-209,-468,-24,363,-339,161,-78,-68,-322,-312,-312
244,-209,-453,-17,348,-331,165,-78,-68,-336,-317,-317
248,-200,-448,-24,348,-324,170,-78,-68,-336,-317,-317
268,-190,-458,-39,363,-324,180,-78,-68,-336,-317,-317
273,-200,-473,-36,373,-336,170,-68,-78,-346,-326,-326
268,-209,-478,-29,373,-344,170,-68,-78,-346,-331,-331
258,-209,-468,-24,363,-339,175,-58,-73,-351,-346,-336
278,-204,-483,-36,380,-344,180,-39,-68,-351,-351,-341
273,-209,-483,-31,378,-346,180,-29,-58,-361,-351,-341
253,-219,-473,-17,363,-346,175,-24,-58,-366,-361,-351
234,-239,-473,2,353,-356,165,-24,-68,-375,-366,-356
229,-229,-458,0,344,-344,161,-19,-58,-366,-366,-356
268,-209,-478,-29,373,-344,165,-14,-39,-370,-361,-356
248,-219,-468,-14,358,-344,165,-14,-39,-370,-375,-356
229,-248,-478,9,353,-363,165,-14,-34,-370,-380,-370
229,-248,-478,9,353,-363,165,-9,-24,-370,-385,-370
234,-224,-458,-4,346,-341,180,4,-14,-370,-375,-370
239,-224,-463,-7,351,-344,185,19,-9,-375,-375,-370
234,-234,-468,0,351,-351,190,19,-9,-375,-390,-370
253,-234,-488,-9,370,-361,200,24,9,-370,-380,-370
248,-244,-492,-2,370,-368,195,43,9,-370,-390,-380
239,-244,-483,2,361,-363,195,43,9,-370,-390,-385
234,-234,-468,0,351,-351,204,58,9,-370,-400,-385
234,-234,-468,0,351,-351,224,87,29,-361,-385,-380
244,-244,-488,0,366,-366,229,112,43,-361,-375,-380
273,-248,-522,-12,397,-385,229,122,58,-361,-390,-400
253,-248,-502,-2,378,-375,229,126,78,-370,-400,-400
224,-244,-468,9,346,-356,229,156,107,-370,-400,-400
248,-229,-478,-9,363,-353,244,190,141,-351,-390,-395
273,-204,-478,-34,375,-341,248,209,151,-336,-385,-390
292,-195,-488,-48,390,-341,253,224,156,-331,-380,-390
283,-195,-478,-43,380,-336,263,253,175,-317,-366,-385
297,-180,-478,-58,387,-329,278,263,200,-292,-366,-385
297,-180,-478,-58,387,-329,278,263,214,-292,-366,-385
292,-190,-483,-51,387,-336,278,273,224,-292,-366,-385
283,-195,-478,-43,380,-336,278,283,253,-292,-361,-375
273,-214,-488,-29,380,-351,268,297,258,-283,-361,-380
253,-253,-507,0,380,-380,258,312,263,-278,-366,-390
234,-263,-497,14,366,-380,244,307,248,-273,-370,-400
224,-244,-468,9,346,-356,234,322,244,-273,-380,-405
234,-229,-463,-2,348,-346,253,336,307,-244,-356,-395
248,-224,-473,-12,361,-348,263,351,351,-234,-346,-390
258,-219,-478,-19,368,-348,273,361,395,-224,-336,-380
278,-204,-483,-36,380,-344,283,380,444,-214,-326,-370
302,-190,-492,-56,397,-341,273,395,439,-180,-302,-356
317,-180,-497,-68,407,-339,273,409,419,-156,-287,-341
317,-180,-497,-68,407,-339,263,409,400,-151,-283,-341
302,-185,-488,-58,395,-336,253,400,380,-151,-283,-341
307,-175,-483,-65,395,-329,253,405,414,-136,-268,-322
326,-170,-497,-78,412,-334,248,405,444,-122,-253,-322
341,-161,-502,-90,422,-331,244,405,478,-107,-244,-312
356,-146,-502,-104,429,-324,234,400,517,-92,-229,-297
341,-161,-502,-90,422,-331,224,400,483,-87,-219,-297
336,-165,-502,-85,419,-334,224,405,458,-68,-214,-292
351,-161,-512,-95,431,-336,214,405,434,-53,-200,-283
361,-146,-507,-107,434,-326,200,400,409,-39,-190,-273
370,-151,-522,-109,446,-336,195,409,434,-24,-175,-258
370,-151,-522,-109,446,-336,180,400,468,-9,-161,-248
370,-151,-522,-109,446,-336,161,395,483,0,-156,-248
380,-141,-522,-119,451,-331,151,390,507,9,-151,-239
395,-131,-527,-131,461,-329,141,361,488,19,-136,-239
395,-131,-527,-131,461,-329,136,356,478,24,-122,-219
395,-136,-531,-129,463,-334,117,341,453,29,-107,-214
395,-136,-531,-129,463,-334,102,317,424,29,-107,-204
409,-102,-512,-153,461,-307,97,297,439,34,-82,-195
409,-97,-507,-156,458,-302,87,287,444,48,-82,-190
405,-97,-502,-153,453,-300,68,253,439,48,-87,-195
405,-92,-497,-156,451,-295,43,224,424,48,-87,-185
419,-78,-497,-170,458,-287,34,219,400,53,-68,-170
429,-73,-502,-178,466,-287,34,209,375,73,-53,-156
434,-73,-507,-180,470,-290,29,200,356,82,-39,-146
444,-73,-517,-185,480,-295,14,185,336,92,-39,-141
444,-87,-531,-178,488,-309,14,161,322,92,-24,-122
444,-92,-536,-175,490,-314,19,156,322,102,-9,-117
444,-92,-536,-175,490,-314,19,136,317,102,-4,-117
458,-92,-551,-183,505,-322,24,117,297,97,4,-112
497,-53,-551,-222,524,-302,24,97,278,97,14,-87
527,-24,-551,-251,539,-287,14,78,248,97,24,-87
561,9,-551,-285,556,-270,14,68,224,97,39,-78
590,39,-551,-314,570,-256,0,48,185,92,39,-78
546,9,-536,-278,541,-263,-29,0,156,63,19,-97
512,-19,-531,-246,522,-275,-39,-24,146,53,4,-102
478,-48,-527,-214,502,-287,-48,-53,126,43,-9,-112
439,-87,-527,-175,483,-307,-68,-92,87,24,-29,-126
453,-58,-512,-197,483,-285,-68,-102,68,19,-24,-122
488,-24,-512,-231,500,-268,-73,-107,53,24,-19,-112
522,-4,-527,-258,524,-265,-73,-107,34,29,-4,-92
531,0,-531,-265,531,-265,-82,-126,24,24,-9,-97
502,-24,-527,-239,514,-275,-97,-161,-4,4,-19,-112
488,-29,-517,-229,502,-273,-92,-170,-19,0,-24,-117
468,-39,-507,-214,488,-273,-87,-180,-34,-4,-34,-122
444,-63,-507,-190,475,-285,-102,-214,-43,-19,-43,-136
444,-73,-517,-185,480,-295,-117,-248,-53,-43,-58,-151
448,-68,-517,-190,483,-292,-126,-258,-82,-48,-58,-146
453,-73,-527,-190,490,-300,-131,-258,-73,-53,-63,-146
453,-92,-546,-180,500,-319,-126,-258,-68,-58,-68,-151
458,-92,-551,-183,505,-322,-117,-253,-97,-58,-73,-141
463,-58,-522,-202,492,-290,-112,-253,-107,-53,-63,-136
463,-63,-527,-200,495,-295,-112,-258,-107,-48,-53,-136
453,-53,-507,-200,480,-280,-117,-263,-112,-48,-48,-136
468,-43,-512,-212,490,-278,-122,-268,-102,-73,-58,-151
492,-34,-527,-229,509,-280,-126,-278,-102,-78,-68,-156
478,-39,-517,-219,497,-278,-146,-307,-122,-92,-82,-165
468,-39,-507,-214,488,-273,-151,-326,-122,-97,-92,-170
497,-29,-527,-234,512,-278,-151,-331,-141,-92,-82,-170
497,-29,-527,-234,512,-278,-141,-326,-146,-92,-87,-170
483,-34,-517,-224,500,-275,-141,-346,-151,-97,-92,-170
473,-43,-517,-214,495,-280,-146,-361,-161,-97,-92,-170
488,-43,-531,-222,509,-287,-136,-341,-170,-87,-87,-161
507,-43,-551,-231,529,-297,-136,-336,-161,-92,-87,-161
522,-14,-536,-253,529,-275,-136,-336,-161,-92,-87,-165
531,-29,-561,-251,546,-295,-136,-336,-170,-92,-87,-165
541,-24,-566,-258,553,-295,-117,-317,-161,-92,-68,-151
561,24,-536,-292,549,-256,-112,-307,-151,-82,-58,-141
570,19,-551,-295,561,-265,-102,-307,-141,-73,-48,-131
570,-4,-575,-283,573,-290,-102,-297,-151,-68,-48,-131
531,-34,-566,-248,549,-300,-117,-331,-175,-92,-73,-161
502,-58,-561,-222,531,-309,-131,-346,-180,-107,-92,-175
478,-68,-546,-204,512,-307,-131,-361,-195,-117,-107,-185
453,-92,-546,-180,500,-319,-141,-375,-204,-122,-112,-195
468,-73,-541,-197,505,-307,-141,-370,-185,-112,-97,-190
478,-87,-566,-195,522,-326,-146,-380,-175,-112,-97,-185
488,-68,-556,-209,522,-312,-146,-370,-180,-112,-92,-180
492,-48,-541,-222,517,-295,-141,-356,-170,-112,-87,-175
483,-58,-541,-212,512,-300,-131,-361,-190,-117,-97,-185
483,-68,-551,-207,517,-309,-131,-366,-204,-117,-97,-185
483,-48,-531,-217,507,-290,-131,-370,-209,-122,-97,-185
478,-48,-527,-214,502,-287,-136,-380,-239,-126,-97,-185
468,-78,-546,-195,507,-312,-136,-370,-219,-131,-107,-180
468,-78,-546,-195,507,-312,-136,-370,-209,-131,-107,-185
468,-63,-531,-202,500,-297,-136,-375,-200,-136,-107,-185
468,-58,-527,-204,497,-292,-126,-375,-190,-136,-107,-185
483,-43,-527,-219,505,-285,-117,-385,-209,-136,-122,-195
478,-39,-517,-219,497,-278,-117,-385,-229,-141,-122,-195
483,-34,-517,-224,500,-275,-117,-385,-248,-146,-122,-200
502,-29,-531,-236,517,-280,-117,-395,-258,-146,-122,-200
488,-43,-531,-222,509,-287,-136,-395,-234,-156,-122,-200
453,-82,-536,-185,495,-309,-141,-409,-229,-161,-131,-204
409,-117,-527,-146,468,-322,-146,-429,-224,-175,-136,-209
409,-117,-527,-146,468,-322,-146,-414,-219,-175,-136,-209
439,-82,-522,-178,480,-302,-131,-400,-224,-170,-131,-204
439,-78,-517,-180,478,-297,-117,-395,-244,-175,-136,-204
439,-97,-536,-170,488,-317,-92,-380,-248,-170,-136,-200
468,-92,-561,-187,514,-326,-78,-366,-248,-165,-136,-195
458,-87,-546,-185,502,-317,-87,-366,-234,-180,-146,-209
458,-87,-546,-185,502,-317,-87,-366,-224,-180,-141,-209
458,-82,-541,-187,500,-312,-87,-361,-209,-180,-141,-209
458,-82,-541,-187,500,-312,-87,-361,-204,-180,-146,-214
453,-82,-536,-185,495,-309,-82,-366,-234,-185,-136,-219
434,-87,-522,-173,478,-305,-78,-370,-239,-185,-131,-200
424,-87,-512,-168,468,-300,-78,-370,-244,-185,-131,-204
414,-102,-517,-156,466,-309,-78,-375,-248,-185,-136,-209
405,-112,-517,-146,461,-314,-78,-385,-244,-204,-151,-224
414,-112,-527,-151,470,-319,-68,-385,-229,-204,-156,-224
419,-97,-517,-161,468,-307,-68,-370,-214,-204,-165,-229
419,-97,-517,-161,468,-307,-68,-361,-209,-209,-170,-234
409,-112,-522,-148,466,-317,-63,-351,-209,-204,-156,-234
414,-112,-527,-151,470,-319,-58,-336,-214,-200,-156,-229
405,-112,-517,-146,461,-314,-58,-326,-229,-195,-156,-224
400,-107,-507,-146,453,-307,-53,-317,-224,-185,-156,-219
390,-92,-483,-148,436,-287,-78,-341,-209,-195,-165,-229
390,-82,-473,-153,431,-278,-73,-336,-185,-195,-156,-224
409,-87,-497,-161,453,-292,-29,-312,-146,-175,-156,-204
419,-82,-502,-168,461,-292,-24,-302,-156,-165,-151,-195
419,-78,-497,-170,458,-287,-19,-302,-156,-165,-146,-195
419,-73,-492,-173,456,-283,-14,-302,-156,-165,-141,-195
419,-68,-488,-175,453,-278,-9,-302,-156,-165,-136,-195
429,-58,-488,-185,458,-273,-14,-287,-156,-151,-126,-200
429,-58,-488,-185,458,-273,-14,-287,-151,-151,-126,-200
429,-58,-488,-185,458,-273,-14,-287,-141,-151,-126,-200
434,-48,-483,-192,458,-265,0,-283,-136,-146,-122,-190
444,-48,-492,-197,468,-270,0,-283,-122,-146,-122,-180
439,-43,-483,-197,461,-263,-4,-283,-122,-136,-122,-180
434,-39,-473,-197,453,-256,-9,-283,-126,-136,-122,-180
419,-43,-463,-187,441,-253,-9,-283,-136,-136,-122,-175
405,-73,-478,-165,441,-275,-14,-287,-131,-136,-126,-180
400,-78,-478,-161,439,-278,-39,-297,-136,-141,-122,-185
375,-73,-448,-151,412,-261,-53,-317,-141,-151,-122,-185
346,-92,-439,-126,392,-265,-68,-326,-151,-156,-122,-190
351,-82,-434,-134,392,-258,-73,-331,-161,-151,-112,-185
356,-78,-434,-139,395,-256,-92,-346,-170,-151,-112,-180
366,-68,-434,-148,400,-251,-92,-346,-170,-146,-107,-175
375,-39,-414,-168,395,-226,-97,-346,-165,-136,-97,-165
375,-48,-424,-163,400,-236,-92,-351,-156,-126,-87,-165
375,-58,-434,-158,405,-246,-87,-351,-156,-126,-78,-156
385,-48,-434,-168,409,-241,-92,-351,-156,-122,-78,-151
385,-48,-434,-168,409,-241,-87,-351,-151,-122,-82,-151
390,-39,-429,-175,409,-234,-87,-336,-146,-117,-78,-146
395,-34,-429,-180,412,-231,-92,-331,-146,-107,-63,-136
414,-19,-434,-197,424,-226,-92,-322,-141,-102,-53,-126
409,-14,-424,-197,417,-219,-92,-317,-136,-97,-48,-122
395,-19,-414,-187,405,-217,-92,-307,-141,-102,-53,-126
395,-34,-429,-180,412,-231,-92,-302,-136,-87,-43,-122
405,-34,-439,-185,422,-236,-97,-302,-136,-87,-39,-122
405,-24,-429,-190,417,-226,-97,-292,-131,-78,-34,-117
400,-34,-434,-183,417,-234,-92,-283,-126,-82,-34,-112
390,-48,-439,-170,414,-244,-97,-278,-117,-82,-29,-107
390,-58,-448,-165,419,-253,-102,-278,-112,-82,-24,-102
390,-48,-439,-170,414,-244,-107,-268,-107,-73,-19,-97
400,-34,-434,-183,417,-234,-92,-253,-102,-68,0,-97
385,-48,-434,-168,409,-241,-92,-253,-97,-68,0,-97
361,-73,-434,-143,397,-253,-102,-268,-97,-78,-14,-102
351,-73,-424,-139,387,-248,-102,-278,-102,-78,-34,-117
356,-63,-419,-146,387,-241,-92,-287,-102,-78,-34,-122
361,-78,-439,-141,400,-258,-82,-283,-102,-78,-34,-122
361,-78,-439,-141,400,-258,-82,-283,-107,-82,-43,-122
356,-78,-434,-139,395,-256,-73,-278,-107,-87,-43,-136
356,-63,-419,-146,387,-241,-68,-278,-112,-97,-43,-146
341,-78,-419,-131,380,-248,-58,-283,-117,-97,-43,-151
302,-102,-405,-100,353,-253,-58,-292,-122,-107,-58,-156
278,-112,-390,-82,334,-251,-73,-302,-131,-107,-63,-165
273,-126,-400,-73,336,-263,-82,-302,-122,-107,-73,-156
278,-122,-400,-78,339,-261,-78,-302,-122,-107,-73,-156
297,-92,-390,-102,344,-241,-78,-297,-126,-102,-63,-151
302,-87,-390,-107,346,-239,-78,-297,-126,-102,-63,-151
278,-112,-390,-82,334,-251,-68,-287,-141,-97,-58,-151
268,-117,-385,-75,326,-251,-58,-287,-126,-97,-58,-146
297,-112,-409,-92,353,-261,-43,-287,-117,-92,-58,-146
297,-107,-405,-95,351,-256,-34,-297,-117,-92,-58,-146
292,-117,-409,-87,351,-263,-48,-307,-117,-97,-68,-156
287,-122,-409,-82,348,-265,-53,-297,-107,-102,-58,-156
287,-131,-419,-78,353,-275,-58,-287,-117,-107,-53,-156
287,-131,-419,-78,353,-275,-58,-287,-117,-107,-53,-156
287,-122,-409,-82,348,-265,-48,-273,-122,-102,-53,-146
287,-117,-405,-85,346,-261,-48,-273,-122,-97,-53,-151
287,-117,-405,-85,346,-261,-48,-268,-117,-92,-48,-151
287,-117,-405,-85,346,-261,-48,-263,-112,-87,-48,-146
307,-97,-405,-104,356,-251,-43,-253,-102,-82,-43,-131
322,-78,-400,-122,361,-239,-39,-253,-92,-68,-39,-126
336,-63,-400,-136,368,-231,-34,-248,-82,-63,-34,-122
346,-48,-395,-148,370,-222,-29,-248,-63,-68,-34,-117
317,-87,-405,-114,361,-246,-39,-263,-92,-82,-39,-126
287,-112,-400,-87,344,-256,-43,-263,-107,-87,-43,-141
258,-136,-395,-61,326,-265,-43,-263,-102,-87,-48,-151
234,-161,-395,-36,314,-278,-48,-263,-97,-92,-53,-156
244,-131,-375,-56,309,-253,-48,-278,-107,-82,-48,-156
253,-122,-375,-65,314,-248,-48,-278,-107,-82,-43,-156
263,-112,-375,-75,319,-244,-48,-283,-107,-82,-43,-156
263,-102,-366,-80,314,-234,-48,-287,-107,-78,-43,-156
141,-234,-375,46,258,-305,-107,-336,-146,-126,-97,-209
244,-107,-351,-68,297,-229,-58,-273,-87,-68,-43,-151
302,-34,-336,-134,319,-185,-19,-229,-43,-24,0,-112
283,-82,-366,-100,324,-224,-43,-224,-43,-19,4,-117
258,-102,-361,-78,309,-231,-92,-248,-39,-34,-19,-141
224,-92,-317,-65,270,-204,-131,-258,-24,-34,-29,-146
214,-117,-331,-48,273,-224,-151,-224,24,9,4,-122
287,-58,-346,-114,317,-202,-151,-180,92,73,53,-87
326,-9,-336,-158,331,-173,-161,-161,180,117,87,-58
312,-29,-341,-141,326,-185,-209,-136,239,156,112,-53
297,-34,-331,-131,314,-183,-229,-87,331,214,141,-43
322,-34,-356,-143,339,-195,-214,-19,444,297,195,9
395,0,-395,-197,395,-197,-209,-39,478,341,224,34
409,53,-356,-231,383,-151,-239,-126,478,351,209,24
351,53,-297,-202,324,-122,-268,-180,517,405,248,34
356,4,-351,-180,353,-173,-331,-224,556,458,302,78
366,-29,-395,-168,380,-212,-448,-317,658,546,356,112
400,24,-375,-212,387,-175,-522,-351,834,683,434,156
492,136,-356,-314,424,-109,-502,-322,995,849,536,224
541,151,-390,-346,466,-119,-517,-244,1176,1015,634,302
585,107,-478,-346,531,-185,-634,-224,1317,1176,756,385
683,190,-492,-436,588,-151,-800,-253,1376,1366,902,488
775,268,-507,-522,641,-119,-927,-268,1390,1566,1078,614
756,190,-566,-473,661,-187,-1078,-390,1288,1693,1190,692
727,112,-614,-419,671,-251,-1268,-575,1132,1742,1259,732
814,185,-629,-500,722,-222,-1376,-702,1010,1844,1361,829
912,317,-595,-614,753,-139,-1400,-873,878,1893,1444,917
863,370,-492,-617,678,-61,-1381,-1137,644,1834,1454,946
761,380,-380,-570,570,0,-1337,-1415,331,1737,1444,961
717,463,-253,-590,485,104,-1346,-1649,78,1664,1439,980
692,590,-102,-641,397,244,-1322,-1756,-102,1600,1449,1029
610,634,24,-622,292,329,-1249,-1795,-283,1464,1410,1015
517,653,136,-585,190,395,-1185,-1883,-585,1171,1278,941
473,712,239,-592,117,475,-1127,-1971,-922,829,1107,863
463,751,287,-607,87,519,-1019,-1971,-1200,458,932,795
405,727,322,-566,41,524,-917,-1942,-1381,87,722,673
302,561,258,-431,21,409,-819,-1810,-1429,-214,522,541
234,346,112,-290,61,229,-717,-1571,-1317,-390,317,390
204,219,14,-212,95,117,-570,-1312,-1117,-488,112,214
141,112,-29,-126,85,41,-468,-1117,-976,-561,-43,68
122,14,-107,-68,114,-46,-419,-1024,-907,-639,-161,-34
151,-24,-175,-63,163,-100,-341,-912,-800,-649,-224,-97
161,-53,-214,-53,187,-134,-263,-775,-673,-610,-244,-126
146,-92,-239,-26,192,-165,-224,-688,-595,-570,-253,-161
146,-131,-278,-7,212,-204,-175,-619,-531,-546,-258,-190
136,-170,-307,17,222,-239,-136,-556,-483,-536,-273,-219
87,-204,-292,58,190,-248,-131,-527,-468,-541,-312,-263
78,-204,-283,63,180,-244,-82,-468,-409,-507,-307,-287
102,-190,-292,43,197,-241,-29,-395,-336,-468,-287,-292
102,-219,-322,58,212,-270,-24,-370,-317,-458,-297,-307
92,-234,-326,70,209,-280,-19,-366,-297,-463,-307,-317
112,-224,-336,56,224,-280,0,-346,-287,-458,-317,-331
87,-234,-322,73,204,-278,9,-331,-268,-448,-307,-322
92,-244,-336,75,214,-290,53,-287,-234,-419,-278,-302
151,-200,-351,24,251,-275,63,-253,-209,-405,-278,-302
126,-200,-326,36,226,-263,53,-268,-209,-414,-307,-341
68,-244,-312,87,190,-278,68,-248,-180,-405,-307,-351
68,-258,-326,95,197,-292,73,-214,-151,-375,-292,-351
92,-224,-317,65,204,-270,73,-185,-122,-361,-273,-341
92,-234,-326,70,209,-280,78,-175,-117,-351,-268,-326
97,-239,-336,70,217,-287,87,-156,-102,-346,-263,-322
102,-219,-322,58,212,-270,97,-136,-102,-336,-253,-317
112,-214,-326,51,219,-270,102,-131,-107,-336,-248,-317
102,-219,-322,58,212,-270,92,-136,-117,-351,-273,-341
82,-224,-307,70,195,-265,102,-136,-97,-356,-278,-346
58,-244,-302,92,180,-273,117,-141,-92,-366,-287,-351
48,-258,-307,104,178,-283,122,-141,-92,-375,-292,-356
58,-263,-322,102,190,-292,112,-117,-87,-370,-283,-341
63,-268,-331,102,197,-300,112,-117,-82,-366,-283,-336
63,-268,-331,102,197,-300,112,-117,-78,-361,-278,-331
68,-273,-341,102,204,-307,112,-117,-73,-351,-278,-326
63,-273,-336,104,200,-305,117,-117,-63,-351,-278,-336
63,-273,-336,104,200,-305,131,-102,-63,-351,-278,-336
68,-273,-341,102,204,-307,146,-87,-63,-351,-278,-336
68,-273,-341,102,204,-307,156,-87,-58,-356,-278,-336
68,-268,-336,100,202,-302,156,-92,-53,-356,-278,-336
73,-268,-341,97,207,-305,156,-82,-53,-361,-278,-336
68,-268,-336,100,202,-302,156,-82,-53,-361,-283,-341
53,-283,-336,114,195,-309,151,-82,-53,-361,-287,-341
53,-268,-322,107,187,-295,156,-78,-43,-356,-287,-341
63,-268,-331,102,197,-300,156,-73,-43,-366,-287,-346
73,-263,-336,95,204,-300,165,-63,-43,-366,-292,-346
97,-248,-346,75,222,-297,175,-43,-34,-361,-292,-341
102,-239,-341,68,222,-290,185,-39,-29,-361,-283,-341
87,-239,-326,75,207,-283,185,-39,-29,-375,-287,-346
92,-229,-322,68,207,-275,185,-39,-29,-375,-287,-346
112,-219,-331,53,222,-275,190,-39,-29,-375,-287,-346
107,-229,-336,61,222,-283,200,-34,-19,-375,-292,-346
92,-239,-331,73,212,-285,200,-29,-19,-375,-292,-351
73,-239,-312,82,192,-275,204,-14,-14,-380,-302,-356
82,-234,-317,75,200,-275,209,9,-9,-380,-302,-361
58,-248,-307,95,183,-278,200,9,-4,-385,-307,-366
29,-268,-297,119,163,-283,195,4,-9,-395,-322,-380
0,-297,-297,148,148,-297,185,-4,-24,-409,-331,-390
-14,-297,-283,156,134,-290,180,-9,-19,-405,-336,-395
24,-287,-312,131,168,-300,200,9,9,-390,-317,-380
4,-297,-302,146,153,-300,204,14,9,-390,-326,-375
-14,-326,-312,170,148,-319,209,19,14,-390,-326,-385
-14,-326,-312,170,148,-319,214,29,24,-390,-326,-380
-9,-297,-287,153,139,-292,229,58,48,-380,-317,-380
-4,-292,-287,148,141,-290,234,78,58,-385,-317,-380
-9,-297,-287,153,139,-292,239,82,63,-385,-331,-380
9,-292,-302,141,156,-297,248,92,87,-380,-322,-380
-4,-297,-292,151,143,-295,263,126,107,-370,-312,-370
-14,-302,-287,158,136,-295,263,131,107,-370,-312,-375
-19,-297,-278,158,129,-287,273,151,107,-370,-322,-375
-19,-302,-283,161,131,-292,292,185,126,-361,-307,-370
-9,-297,-287,153,139,-292,297,209,141,-356,-297,-361
19,-297,-317,139,168,-307,297,219,156,-351,-312,-380
0,-292,-292,146,146,-292,297,224,175,-356,-322,-380
-29,-283,-253,156,112,-268,297,253,204,-351,-322,-380
0,-258,-258,129,129,-258,312,283,229,-326,-312,-375
29,-234,-263,102,146,-248,317,297,239,-317,-307,-370
53,-224,-278,85,165,-251,322,307,244,-317,-302,-370
48,-224,-273,87,161,-248,331,331,263,-307,-287,-366
43,-219,-263,87,153,-241,336,346,278,-302,-297,-375
24,-229,-253,102,139,-241,336,341,292,-302,-297,-375
0,-248,-248,124,124,-248,336,346,302,-302,-297,-375
-29,-263,-234,146,102,-248,336,351,331,-302,-292,-366
-43,-292,-248,168,102,-270,331,380,351,-283,-297,-375
-58,-341,-283,200,112,-312,326,400,361,-278,-297,-380
-73,-361,-287,217,107,-324,317,400,351,-273,-297,-385
-78,-351,-273,214,97,-312,312,419,351,-273,-302,-385
-73,-341,-268,207,97,-305,322,429,395,-239,-283,-375
-63,-331,-268,197,102,-300,331,448,419,-224,-268,-370
-58,-322,-263,190,102,-292,341,463,444,-209,-253,-361
-43,-302,-258,173,107,-280,351,488,473,-195,-239,-351
-19,-287,-268,153,124,-278,341,492,483,-180,-234,-346
-4,-278,-273,141,134,-275,341,507,488,-156,-219,-331
-4,-278,-273,141,134,-275,331,507,492,-151,-214,-331
-19,-283,-263,151,122,-273,322,497,497,-151,-214,-331
-19,-278,-258,148,119,-268,331,507,517,-117,-190,-312
-4,-268,-263,136,129,-265,326,512,522,-102,-175,-312
4,-253,-258,124,131,-256,322,517,531,-87,-165,-302
14,-234,-248,109,131,-241,312,517,546,-73,-151,-287
24,-244,-268,109,146,-256,297,522,546,-78,-141,-283
24,-244,-268,109,146,-256,292,522,546,-58,-136,-273
43,-234,-278,95,161,-256,278,517,546,-43,-122,-258
58,-214,-273,78,165,-244,258,507,546,-29,-112,-244
58,-200,-258,70,158,-229,268,497,556,-24,-97,-229
58,-200,-258,70,158,-229,258,488,566,-9,-82,-219
58,-200,-258,70,158,-229,244,483,556,0,-78,-219
68,-190,-258,61,163,-224,239,478,556,9,-73,-209
82,-180,-263,48,173,-222,219,458,556,34,-58,-200
82,-180,-263,48,173,-222,214,453,556,43,-43,-180
82,-185,-268,51,175,-226,195,439,541,53,-29,-175
82,-185,-268,51,175,-226,180,414,522,58,-29,-165
126,-141,-268,7,197,-204,195,424,541,87,9,-136
146,-117,-263,-14,204,-190,195,434,551,107,24,-122
161,-97,-258,-31,209,-178,185,419,551,112,34,-117
180,-73,-253,-53,217,-163,170,409,541,117,48,-97
156,-102,-258,-26,207,-180,156,385,512,102,43,-107
136,-131,-268,-2,202,-200,151,366,492,112,53,-97
112,-165,-278,26,195,-222,141,346,478,112,63,-92
92,-200,-292,53,192,-246,122,322,463,112,58,-92
102,-190,-292,43,197,-241,102,297,439,102,78,-73
102,-180,-283,39,192,-231,97,292,429,112,87,-68
102,-165,-268,31,185,-217,87,273,414,112,87,-68
117,-151,-268,17,192,-209,82,253,385,107,92,-63
117,-151,-268,17,192,-209,82,224,380,117,82,-48
117,-151,-268,17,192,-209,73,195,356,117,92,-48
122,-146,-268,12,195,-207,73,175,336,117,107,-39
122,-146,-268,12,195,-207,58,146,302,112,107,-39
112,-136,-248,12,180,-192,39,126,287,92,102,-39
112,-136,-248,12,180,-192,39,112,283,92,102,-34
112,-136,-248,12,180,-192,39,92,268,92,102,-34
107,-146,-253,19,180,-200,29,63,234,82,97,-39
97,-146,-244,24,170,-195,29,39,214,73,87,-39
107,-131,-239,12,173,-185,24,29,200,73,87,-34
117,-131,-248,7,183,-190,24,24,180,73,97,-19
102,-146,-248,21,175,-197,14,0,170,63,87,-29
122,-117,-239,-2,180,-178,14,-9,156,63,92,-24
136,-87,-224,-24,180,-156,24,-14,156,68,102,-19
146,-63,-209,-41,178,-136,34,-19,156,73,107,-14
151,-53,-204,-48,178,-129,24,-48,161,68,112,-19
170,-43,-214,-63,192,-129,34,-63,151,73,122,-14
185,-29,-214,-78,200,-122,29,-63,122,78,126,0
200,-24,-224,-87,212,-124,29,-53,131,82,126,9
209,-34,-244,-87,226,-139,39,-43,136,87,126,14
165,-73,-239,-46,202,-156,29,-73,102,58,102,-4
141,-68,-209,-36,175,-139,24,-97,78,43,92,-19
112,-102,-214,-4,163,-158,14,-126,63,29,82,-39
73,-122,-195,24,134,-158,0,-156,43,9,68,-58
63,-131,-195,34,129,-163,9,-136,58,9,82,-48
82,-141,-224,29,153,-183,9,-131,63,19,87,-39
63,-165,-229,51,146,-197,-4,-146,48,19,87,-34
48,-185,-234,68,141,-209,-4,-151,53,29,92,-24
82,-151,-234,34,158,-192,-14,-146,43,24,92,-34
87,-146,-234,29,161,-190,-4,-131,39,24,87,-34
78,-146,-224,34,151,-185,-4,-141,34,19,82,-34
73,-151,-224,39,148,-187,-9,-146,24,19,82,-34
63,-141,-204,39,134,-173,-9,-136,14,19,87,-34
78,-141,-219,31,148,-180,-9,-141,24,14,87,-34
87,-112,-200,12,143,-156,-9,-151,24,14,87,-39
92,-126,-219,17,156,-173,-9,-161,14,14,87,-39
97,-136,-234,19,165,-185,0,-170,-4,0,82,-53
112,-92,-204,-9,158,-148,-4,-180,-4,-4,78,-53
117,-102,-219,-7,168,-161,-4,-200,-4,-9,73,-53
112,-131,-244,9,178,-187,-14,-209,-24,-19,58,-63
107,-126,-234,9,170,-180,-24,-214,-24,-19,58,-58
102,-126,-229,12,165,-178,-24,-209,-14,-19,53,-58
102,-112,-214,4,158,-163,-9,-204,-14,-14,53,-53
102,-112,-214,4,158,-163,-4,-200,-9,-4,63,-48
112,-122,-234,4,173,-178,4,-195,-14,-9,63,-58
117,-146,-263,14,190,-204,0,-214,-19,-14,58,-58
122,-136,-258,7,190,-197,0,-214,-39,-19,58,-58
122,-126,-248,2,185,-187,4,-209,-43,-24,58,-58
112,-136,-248,12,180,-192,0,-209,-39,-24,58,-58
112,-146,-258,17,185,-202,-4,-209,-39,-19,58,-58
112,-126,-239,7,175,-183,-9,-209,-29,-19,58,-58
107,-126,-234,9,170,-180,-19,-214,-43,-19,58,-58
107,-156,-263,24,185,-209,-9,-224,-53,-43,48,-53
107,-156,-263,24,185,-209,-9,-224,-53,-43,48,-58
107,-141,-248,17,178,-195,-9,-229,-53,-48,48,-58
107,-136,-244,14,175,-190,0,-229,-53,-48,48,-58
117,-126,-244,4,180,-185,-9,-239,-63,-48,43,-58
107,-126,-234,9,170,-180,-9,-239,-73,-53,43,-58
107,-126,-234,9,170,-180,-9,-239,-82,-58,43,-63
122,-126,-248,2,185,-187,-9,-248,-82,-58,43,-63
141,-112,-253,-14,197,-183,-4,-244,-82,-58,34,-63
131,-131,-263,0,197,-197,-4,-253,-82,-63,24,-68
112,-146,-258,17,185,-202,-4,-268,-82,-78,19,-73
136,-126,-263,-4,200,-195,0,-248,-82,-78,19,-73
151,-92,-244,-29,197,-168,-9,-248,-73,-68,29,-73
146,-87,-234,-29,190,-161,-9,-248,-87,-78,19,-78
141,-107,-248,-17,195,-178,0,-239,-87,-78,14,-78
165,-102,-268,-31,217,-185,0,-229,-82,-78,9,-78
151,-112,-263,-19,207,-187,-9,-244,-97,-97,4,-87
146,-126,-273,-9,209,-200,-9,-258,-97,-102,4,-92
141,-136,-278,-2,209,-207,-9,-268,-92,-107,0,-97
136,-151,-287,7,212,-219,-9,-283,-97,-112,-9,-107
151,-141,-292,-4,222,-217,4,-268,-107,-107,-9,-107
141,-146,-287,2,214,-217,9,-253,-102,-107,-4,-92
141,-146,-287,2,214,-217,9,-234,-97,-107,-4,-102
141,-161,-302,9,222,-231,9,-219,-92,-107,-9,-112
141,-161,-302,9,222,-231,4,-239,-102,-117,-19,-112
161,-151,-312,-4,236,-231,9,-239,-92,-117,-19,-107
175,-126,-302,-24,239,-214,4,-224,-82,-117,-24,-107
185,-117,-302,-34,244,-209,0,-214,-82,-122,-24,-107
161,-141,-302,-9,231,-222,4,-234,-87,-126,-24,-126
161,-151,-312,-4,236,-231,9,-239,-97,-131,-29,-131
146,-161,-307,7,226,-234,9,-248,-117,-136,-34,-136
136,-165,-302,14,219,-234,14,-258,-117,-136,-39,-141
165,-131,-297,-17,231,-214,48,-224,-82,-126,-39,-122
146,-151,-297,2,222,-224,53,-209,-68,-117,-39,-117
146,-195,-341,24,244,-268,58,-195,-68,-126,-39,-117
156,-165,-322,4,239,-244,68,-204,-78,-126,-39,-122
165,-146,-312,-9,239,-229,68,-204,-78,-126,-39,-126
175,-126,-302,-24,239,-214,68,-204,-78,-126,-39,-131
185,-107,-292,-39,239,-200,68,-204,-78,-126,-39,-136
175,-117,-292,-29,234,-204,58,-200,-68,-122,-39,-131
175,-117,-292,-29,234,-204,53,-200,-63,-122,-39,-131
175,-117,-292,-29,234,-204,48,-200,-53,-122,-39,-131
180,-107,-287,-36,234,-197,58,-195,-48,-117,-34,-122
195,-97,-292,-48,244,-195,68,-185,-43,-117,-14,-122
195,-92,-287,-51,241,-190,63,-185,-43,-107,-14,-122
195,-87,-283,-53,239,-185,58,-185,-48,-107,-14,-122
185,-92,-278,-46,231,-185,58,-185,-58,-107,-14,-117
200,-97,-297,-51,248,-197,58,-195,-39,-97,-9,-97
214,-87,-302,-63,258,-195,39,-200,-39,-92,-4,-97
209,-68,-278,-70,244,-173,29,-214,-39,-92,-4,-92
200,-73,-273,-63,236,-173,19,-219,-43,-87,-4,-92
190,-78,-268,-56,229,-173,9,-209,-53,-87,4,-92
190,-78,-268,-56,229,-173,-4,-219,-63,-92,4,-92
195,-73,-268,-61,231,-170,0,-214,-63,-92,9,-92
200,-48,-248,-75,224,-148,0,-209,-58,-87,19,-87
209,-43,-253,-82,231,-148,-14,-214,-58,-78,14,-97
209,-48,-258,-80,234,-153,-19,-214,-58,-78,19,-87
219,-34,-253,-92,236,-143,-34,-214,-58,-73,14,-82
219,-29,-248,-95,234,-139,-39,-214,-53,-73,4,-82
204,-58,-263,-73,234,-161,-48,-224,-58,-82,14,-73
200,-73,-273,-63,236,-173,-53,-224,-68,-78,24,-68
209,-78,-287,-65,248,-183,-53,-219,-73,-78,29,-63
195,-92,-287,-51,241,-190,-53,-219,-78,-78,29,-63
214,-78,-292,-68,253,-185,-53,-224,-82,-82,29,-63
229,-73,-302,-78,265,-187,-53,-224,-78,-68,34,-63
253,-53,-307,-100,280,-180,-58,-229,-78,-68,34,-68
268,-24,-292,-122,280,-158,-58,-224,-73,-58,34,-68
268,-34,-302,-117,285,-168,-43,-200,-58,-39,48,-48
263,-48,-312,-107,287,-180,-39,-190,-48,-34,58,-39
268,-58,-326,-104,297,-192,-34,-185,-43,-29,68,-29
273,-48,-322,-112,297,-185,-29,-170,-39,-14,78,-19
273,-43,-317,-114,295,-180,-34,-170,-48,-24,73,-24
258,-58,-317,-100,287,-187,-43,-175,-48,-29,68,-29
234,-82,-317,-75,275,-200,-63,-195,-53,-43,48,-39
224,-82,-307,-70,265,-195,-73,-209,-63,-48,24,-58
219,-92,-312,-63,265,-202,-53,-195,-58,-43,39,-58
214,-107,-322,-53,268,-214,-34,-185,-53,-39,43,-53
204,-107,-312,-48,258,-209,-24,-180,-53,-39,39,-48
190,-107,-297,-41,244,-202,-4,-170,-48,-39,43,-58
204,-87,-292,-58,248,-190,-14,-170,-53,-43,29,-73
204,-97,-302,-53,253,-200,-9,-175,-58,-48,24,-82
180,-117,-297,-31,239,-207,-14,-185,-63,-63,4,-92
170,-122,-292,-24,231,-207,-34,-195,-73,-68,-4,-107
151,-151,-302,0,226,-226,-29,-190,-58,-58,9,-92
151,-151,-302,0,226,-226,-19,-185,-53,-58,14,-87
165,-126,-292,-19,229,-209,-14,-175,-53,-53,29,-78
165,-126,-292,-19,229,-209,-9,-170,-48,-53,34,-73
165,-141,-307,-12,236,-224,-19,-170,-92,-58,29,-82
161,-136,-297,-12,229,-217,-19,-170,-97,-58,29,-78
195,-122,-317,-36,256,-219,-14,-170,-107,-53,29,-78
200,-107,-307,-46,253,-207,-14,-180,-126,-53,29,-78
185,-117,-302,-34,244,-209,-24,-190,-78,-58,14,-87
170,-122,-292,-24,231,-207,-24,-180,-29,-63,19,-87
161,-131,-292,-14,226,-212,-24,-170,0,-68,19,-87
151,-131,-283,-9,217,-207,-19,-170,39,-68,14,-87
161,-131,-292,-14,226,-212,-9,-170,-9,-63,24,-78
161,-126,-287,-17,224,-207,-9,-175,-43,-58,24,-82
161,-126,-287,-17,224,-207,-9,-175,-73,-53,29,-82
161,-126,-287,-17,224,-207,-9,-175,-102,-48,29,-78
165,-117,-283,-24,224,-200,-19,-185,-87,-53,24,-78
175,-117,-292,-29,234,-204,-19,-185,-73,-48,19,-78
185,-122,-307,-31,246,-214,-19,-180,-58,-53,14,-78
190,-126,-317,-31,253,-222,-19,-180,-34,-68,4,-78
190,-122,-312,-34,251,-217,-14,-175,-53,-58,14,-78
190,-112,-302,-39,246,-207,-14,-175,-68,-58,14,-82
190,-102,-292,-43,241,-197,-9,-175,-63,-53,14,-82
195,-92,-287,-51,241,-190,-9,-175,-58,-53,14,-78
204,-92,-297,-56,251,-195,0,-170,-48,-43,19,-68
204,-92,-297,-56,251,-195,0,-161,-48,-43,24,-68
204,-92,-297,-56,251,-195,0,-156,-48,-43,24,-68
195,-92,-287,-51,241,-190,0,-151,-48,-39,24,-68
229,-68,-297,-80,263,-183,-9,-141,0,-29,39,-53
165,-117,-283,-24,224,-200,-29,-165,-9,-39,24,-73
214,-73,-287,-70,251,-180,0,-161,14,-14,39,-63
195,-82,-278,-56,236,-180,-24,-165,4,-19,34,-68
102,-161,-263,29,183,-212,-92,-180,-29,-43,0,-102
126,-122,-248,-2,187,-185,-92,-141,4,-4,29,-78
244,-39,-283,-102,263,-161,-53,-58,112,87,112,-4
287,-19,-307,-134,297,-163,-63,-34,180,122,151,19
248,-39,-287,-104,268,-163,-122,-53,209,126,136,0
185,-87,-273,-48,229,-180,-170,-39,278,156,141,-4
200,-73,-273,-63,236,-173,-180,29,380,234,190,24
292,4,-287,-148,290,-141,-165,97,483,326,263,78
336,19,-317,-178,326,-148,-180,68,507,370,292,102
302,-4,-307,-148,305,-156,-200,0,497,390,297,112
292,-14,-307,-139,300,-161,-180,-43,546,444,336,131
326,-4,-331,-161,329,-168,-204,-117,624,517,380,165
356,39,-317,-197,336,-139,-312,-229,707,614,434,209
370,73,-297,-222,334,-112,-405,-302,814,732,522,263
405,68,-336,-236,370,-134,-434,-331,946,858,595,302
463,92,-370,-278,417,-139,-468,-331,1049,995,683,351
546,146,-400,-346,473,-126,-536,-341,1132,1176,814,453
595,180,-414,-387,505,-117,-683,-409,1161,1356,961,556
629,170,-458,-400,544,-143,-819,-463,1176,1566,1117,663
746,200,-546,-473,646,-173,-932,-546,1112,1742,1288,790
834,248,-585,-541,710,-168,-1063,-692,936,1839,1405,888
824,244,-580,-534,702,-168,-1220,-868,727,1912,1498,956
814,258,-556,-536,685,-148,-1322,-1058,556,1971,1590,1024
824,361,-463,-592,644,-51,-1322,-1283,370,1981,1629,1073
761,439,-322,-600,541,58,-1317,-1532,117,1942,1639,1098
619,434,-185,-527,402,124,-1356,-1776,-165,1917,1644,1107
566,502,-63,-534,314,219,-1351,-1873,-317,1932,1693,1146
610,624,14,-617,297,319,-1239,-1834,-390,1903,1722,1200
575,692,117,-634,229,405,-1137,-1854,-566,1668,1610,1156
453,732,278,-592,87,505,-1078,-1932,-854,1278,1400,1039
317,712,395,-514,-39,553,-1000,-1942,-1151,790,1166,912
248,668,419,-458,-85,544,-907,-1893,-1390,273,907,771
224,610,385,-417,-80,497,-810,-1771,-1459,-136,649,610
156,444,287,-300,-65,366,-697,-1571,-1376,-390,395,429
78,278,200,-178,-61,239,-551,-1312,-1185,-507,170,263
43,161,117,-102,-36,139,-400,-1068,-985,-551,43,156
43,63,19,-53,12,41,-322,-927,-868,-619,-73,73
-4,-14,-9,9,2,-12,-283,-824,-946,-688,-195,-29
-34,-43,-9,39,-12,-26,-234,-697,-897,-678,-253,-87
0,-53,-53,26,26,-53,-185,-580,-585,-610,-244,-102
19,-63,-82,21,51,-73,-136,-502,-512,-585,-248,-131
9,-102,-112,46,61,-107,-107,-448,-512,-566,-263,-161
-9,-126,-117,68,53,-122,-92,-409,-409,-541,-273,-185
0,-136,-136,68,68,-136,-43,-331,-341,-488,-239,-161
34,-161,-195,63,114,-178,29,-239,-317,-439,-219,-146
14,-180,-195,82,104,-187,43,-234,-287,-458,-248,-190
-14,-204,-190,109,87,-197,58,-219,-248,-473,-268,-219
14,-195,-209,90,112,-202,87,-180,-209,-448,-268,-214
9,-204,-214,97,112,-209,78,-165,-190,-448,-287,-234
14,-195,-209,90,112,-202,73,-151,-165,-439,-278,-234
73,-141,-214,34,143,-178,92,-126,-131,-414,-258,-214
29,-170,-200,70,114,-185,92,-112,-141,-414,-268,-234
-29,-244,-214,136,92,-229,117,-73,-131,-395,-268,-244
39,-219,-258,90,148,-239,151,-29,-82,-366,-244,-234
73,-175,-248,51,161,-212,151,-39,-63,-361,-244,-234
53,-204,-258,75,156,-231,136,-34,-58,-361,-244,-234
48,-219,-268,85,158,-244,136,-19,-43,-356,-244,-234
43,-209,-253,82,148,-231,136,-4,-43,-346,-239,-234
43,-214,-258,85,151,-236,131,-4,-48,-346,-239,-239
53,-214,-268,80,161,-241,122,0,-63,-356,-248,-239
43,-214,-258,85,151,-236,131,9,-39,-356,-248,-239
29,-229,-258,100,143,-244,146,14,-29,-361,-253,-239
29,-239,-268,104,148,-253,151,24,-24,-366,-253,-239
24,-229,-253,102,139,-241,141,29,-34,-370,-268,-244
24,-229,-253,102,139,-241,141,29,-34,-375,-273,-248
19,-224,-244,102,131,-234,141,29,-34,-380,-273,-253
19,-224,-244,102,131,-234,141,29,-34,-380,-278,-258
29,-234,-263,102,146,-248,146,19,-19,-370,-268,-253
34,-234,-268,100,151,-251,161,34,-14,-370,-268,-248
43,-234,-278,95,161,-256,175,48,-9,-370,-268,-244
48,-234,-283,92,165,-258,185,48,0,-375,-268,-239
48,-219,-268,85,158,-244,180,43,-9,-380,-273,-248
53,-219,-273,82,163,-246,175,53,-24,-390,-278,-248
48,-219,-268,85,158,-244,170,53,-39,-395,-287,-253
34,-234,-268,100,151,-251,161,53,-53,-400,-297,-253
43,-209,-253,82,148,-231,165,68,-39,-400,-302,-248
63,-200,-263,68,163,-231,165,73,-24,-405,-297,-248
82,-185,-268,51,175,-226,175,82,-9,-400,-297,-244
117,-161,-278,21,197,-219,185,102,14,-390,-292,-234
107,-165,-273,29,190,-219,185,102,9,-395,-307,-248
78,-180,-258,51,168,-219,185,97,0,-414,-317,-258
68,-185,-253,58,161,-219,185,92,-9,-419,-322,-263
73,-190,-263,58,168,-226,190,87,-19,-424,-326,-268
58,-209,-268,75,163,-239,180,78,-4,-434,-331,-268
43,-229,-273,92,158,-251,180,78,0,-434,-331,-273
24,-239,-263,107,143,-251,185,87,9,-439,-341,-278
34,-244,-278,104,156,-261,190,107,19,-439,-341,-283
48,-234,-283,92,165,-258,195,131,19,-429,-341,-283
39,-229,-268,95,153,-248,195,141,9,-434,-351,-292
29,-234,-263,102,146,-248,190,146,-9,-444,-356,-297
34,-209,-244,87,139,-226,190,156,-9,-434,-356,-297
82,-195,-278,56,180,-236,204,170,29,-429,-346,-278
63,-200,-263,68,163,-231,204,170,39,-429,-356,-278
43,-224,-268,90,156,-246,204,170,53,-429,-356,-292
43,-219,-263,87,153,-241,204,175,73,-429,-356,-292
39,-219,-258,90,148,-239,214,204,82,-429,-366,-297
34,-234,-268,100,151,-251,214,224,87,-434,-366,-302
19,-258,-278,119,148,-268,214,229,87,-434,-380,-307
29,-273,-302,122,165,-287,219,239,107,-429,-370,-312
43,-253,-297,104,170,-275,224,263,126,-409,-366,-307
43,-244,-287,100,165,-265,224,268,126,-409,-361,-307
48,-224,-273,87,161,-248,234,287,126,-409,-366,-302
58,-214,-273,78,165,-244,253,322,146,-400,-346,-292
63,-214,-278,75,170,-246,263,341,170,-390,-356,-283
97,-219,-317,61,207,-268,268,346,185,-390,-370,-302
82,-219,-302,68,192,-261,273,346,204,-400,-380,-302
58,-214,-273,78,165,-244,278,370,234,-400,-380,-302
53,-229,-283,87,168,-256,278,385,239,-395,-375,-312
58,-224,-283,82,170,-253,268,395,239,-385,-375,-312
58,-234,-292,87,175,-263,258,400,234,-385,-375,-317
29,-253,-283,112,156,-268,253,419,244,-375,-366,-317
43,-248,-292,102,168,-270,263,444,273,-351,-375,-307
43,-248,-292,102,168,-270,268,448,292,-351,-375,-307
39,-258,-297,109,168,-278,273,463,307,-351,-375,-307
29,-263,-292,117,161,-278,278,478,341,-351,-370,-297
58,-244,-302,92,180,-273,283,502,361,-322,-356,-283
68,-253,-322,92,195,-287,287,527,380,-307,-346,-283
78,-234,-312,78,195,-273,287,531,380,-292,-336,-283
97,-185,-283,43,190,-234,292,556,390,-283,-331,-278
97,-185,-283,43,190,-234,292,566,424,-253,-322,-273
102,-185,-287,41,195,-236,292,585,439,-244,-317,-273
102,-185,-287,41,195,-236,292,600,453,-234,-312,-268
112,-175,-287,31,200,-231,292,624,473,-224,-307,-263
112,-180,-292,34,202,-236,283,619,488,-209,-283,-258
122,-170,-292,24,207,-231,283,624,488,-185,-268,-244
117,-170,-287,26,202,-229,273,614,488,-180,-263,-244
97,-175,-273,39,185,-224,263,595,488,-180,-263,-244
92,-190,-283,48,187,-236,263,610,497,-146,-248,-224
102,-200,-302,48,202,-251,258,619,502,-131,-234,-224
107,-204,-312,48,209,-258,253,629,512,-117,-224,-214
112,-204,-317,46,214,-261,244,634,527,-102,-209,-200
102,-200,-302,48,202,-251,234,624,517,-107,-195,-195
102,-195,-297,46,200,-246,234,619,517,-87,-185,-185
122,-180,-302,29,212,-241,224,610,517,-73,-165,-170
136,-156,-292,9,214,-224,209,595,517,-58,-151,-156
156,-151,-307,-2,231,-229,209,595,512,-34,-136,-131
156,-151,-307,-2,231,-229,200,585,517,-19,-122,-122
156,-151,-307,-2,231,-229,185,580,502,-9,-117,-122
165,-141,-307,-12,236,-224,180,575,497,0,-112,-112
175,-112,-287,-31,231,-200,170,566,507,4,-97,-112
170,-112,-283,-29,226,-197,165,561,507,14,-82,-92
165,-117,-283,-24,224,-200,146,546,492,24,-68,-87
161,-117,-278,-21,219,-197,131,522,473,29,-68,-78
195,-107,-302,-43,248,-204,131,512,468,58,-34,-48
195,-107,-302,-43,248,-204,126,502,463,78,-24,-34
190,-112,-302,-39,246,-207,112,468,448,82,-19,-29
190,-112,-302,-39,246,-207,92,439,424,87,-9,-9
200,-87,-287,-56,244,-187,92,434,409,78,-9,-14
204,-82,-287,-61,246,-185,92,414,395,92,4,0
204,-82,-287,-61,246,-185,87,395,385,97,19,9
209,-82,-292,-63,251,-187,73,370,375,102,19,14
224,-78,-302,-73,263,-190,73,346,351,107,34,29
229,-73,-302,-78,265,-187,68,341,341,122,48,39
234,-63,-297,-85,265,-180,58,322,326,126,53,43
253,-53,-307,-100,280,-180,53,302,297,126,63,53
248,-58,-307,-95,278,-183,39,268,278,112,53,58
234,-63,-297,-85,265,-180,24,234,248,107,53,48
224,-63,-287,-80,256,-175,19,209,224,102,58,48
209,-68,-278,-70,244,-173,0,175,185,92,48,39
234,-53,-287,-90,261,-170,0,161,185,92,58,53
248,-39,-287,-104,268,-163,9,151,185,102,63,63
263,-24,-287,-119,275,-156,19,136,175,112,68,68
273,-19,-292,-126,283,-156,19,112,146,112,68,68
234,-39,-273,-97,253,-156,-4,78,112,82,48,48
224,-34,-258,-95,241,-146,-14,58,82,73,39,43
214,-43,-258,-85,236,-151,-19,43,48,63,39,48
180,-68,-248,-56,214,-158,-34,9,24,43,19,29
185,-68,-253,-58,219,-161,-34,-9,29,48,19,39
195,-48,-244,-73,219,-146,-24,-14,39,48,24,39
200,-34,-234,-82,217,-134,-14,-19,48,48,24,39
200,-34,-234,-82,217,-134,-24,-48,63,39,24,29
209,-29,-239,-90,224,-134,-14,-63,14,39,14,29
214,-19,-234,-97,224,-126,-19,-73,-43,39,19,39
219,-19,-239,-100,229,-129,-19,-73,-63,39,19,43
219,-34,-253,-92,236,-143,-9,-73,-87,39,19,43
200,-53,-253,-73,226,-153,-19,-78,-87,24,4,39
200,-39,-239,-80,219,-139,-24,-78,-78,24,4,39
195,-63,-258,-65,226,-161,-34,-82,-58,24,4,34
180,-73,-253,-53,217,-163,-48,-87,-43,19,0,29
190,-58,-248,-65,219,-153,-43,-87,-53,14,9,39
219,-43,-263,-87,241,-153,-39,-92,-53,19,9,39
209,-43,-253,-82,231,-148,-48,-117,-73,14,4,34
204,-39,-244,-82,224,-141,-43,-131,-73,19,4,34
219,-19,-239,-100,229,-129,-53,-131,-87,19,0,24
214,-19,-234,-97,224,-126,-43,-122,-97,14,-9,24
195,-24,-219,-85,207,-122,-43,-136,-107,4,-19,24
180,-34,-214,-73,197,-124,-48,-146,-122,0,-24,24
185,-24,-209,-80,197,-117,-43,-136,-117,4,-14,34
204,-24,-229,-90,217,-126,-39,-141,-102,4,-9,34
219,4,-214,-112,217,-104,-34,-151,-97,9,-4,29
229,-9,-239,-109,234,-124,-29,-161,-102,14,0,29
209,-43,-253,-82,231,-148,-34,-175,-131,-9,-9,19
200,-14,-214,-92,207,-114,-43,-180,-141,-14,-19,14
180,-39,-219,-70,200,-129,-48,-195,-151,-19,-29,9
151,-82,-234,-34,192,-158,-63,-200,-180,-29,-48,-4
156,-68,-224,-43,190,-146,-73,-204,-175,-24,-48,0
161,-58,-219,-51,190,-139,-73,-200,-161,-29,-53,0
170,-34,-204,-68,187,-119,-58,-195,-156,-29,-53,4
180,-24,-204,-78,192,-114,-53,-190,-146,-24,-43,9
190,-24,-214,-82,202,-119,-43,-190,-146,-19,-39,19
195,-48,-244,-73,219,-146,-48,-204,-146,-14,-39,19
200,-39,-239,-80,219,-139,-48,-200,-161,-9,-34,19
200,-29,-229,-85,214,-129,-43,-190,-161,-4,-29,19
214,-24,-239,-95,226,-131,-39,-200,-156,-9,-29,19
219,-29,-248,-95,234,-139,-34,-200,-156,-9,-29,19
224,-4,-229,-109,226,-117,-29,-200,-146,-14,-29,19
224,0,-224,-112,224,-112,-29,-204,-161,-19,-29,19
204,-29,-234,-87,219,-131,-34,-214,-170,-39,-53,9
195,-39,-234,-78,214,-136,-39,-224,-180,-43,-58,0
185,-34,-219,-75,202,-126,-43,-239,-190,-53,-63,-4
175,-39,-214,-68,195,-126,-39,-248,-200,-58,-68,-9
180,-34,-214,-73,197,-124,-29,-244,-185,-53,-63,0
175,-29,-204,-73,190,-117,-29,-239,-190,-53,-63,0
180,-24,-204,-78,192,-114,-29,-234,-195,-53,-63,-4
200,-19,-219,-90,209,-119,-29,-239,-190,-48,-63,-4
190,-29,-219,-80,204,-124,-34,-229,-170,-39,-63,-4
170,-53,-224,-58,197,-139,-34,-234,-170,-43,-73,-9
141,-73,-214,-34,178,-143,-34,-244,-170,-58,-78,-14
156,-58,-214,-48,185,-136,-29,-219,-170,-58,-78,-14
175,-39,-214,-68,195,-126,-29,-224,-170,-68,-87,-24
165,-39,-204,-63,185,-122,-29,-229,-185,-78,-97,-29
156,-63,-219,-46,187,-141,-19,-224,-185,-78,-102,-29
175,-63,-239,-56,207,-151,-19,-219,-180,-78,-107,-29
175,-48,-224,-63,200,-136,-24,-229,-195,-82,-117,-34
175,-39,-214,-68,195,-126,-29,-229,-195,-82,-112,-34
175,-24,-200,-75,187,-112,-34,-224,-190,-82,-112,-34
175,-14,-190,-80,183,-102,-39,-224,-195,-82,-117,-39
190,-9,-200,-90,195,-104,-34,-214,-190,-97,-112,-48
180,-9,-190,-85,185,-100,-29,-214,-180,-97,-112,-34
180,-4,-185,-87,183,-95,-29,-209,-170,-97,-117,-43
180,-14,-195,-82,187,-104,-29,-209,-161,-97,-126,-53
156,-34,-190,-61,173,-112,-39,-229,-170,-117,-141,-63
161,-34,-195,-63,178,-114,-29,-229,-170,-117,-146,-58
161,-19,-180,-70,170,-100,-29,-214,-170,-117,-156,-58
156,-19,-175,-68,165,-97,-29,-204,-180,-122,-161,-58
141,-39,-180,-51,161,-109,-24,-214,-170,-122,-156,-73
151,-53,-204,-48,178,-129,-19,-209,-165,-122,-156,-73
146,-68,-214,-39,180,-141,-19,-209,-170,-122,-156,-73
146,-78,-224,-34,185,-151,-14,-209,-156,-117,-156,-73
161,-63,-224,-48,192,-143,0,-190,-151,-112,-146,-68
165,-53,-219,-56,192,-136,4,-180,-136,-107,-146,-58
170,-43,-214,-63,192,-129,4,-165,-117,-102,-146,-53
170,-34,-204,-68,187,-119,4,-175,-126,-97,-151,-58
180,-19,-200,-80,190,-109,9,-165,-126,-92,-151,-68
185,-14,-200,-85,192,-107,4,-165,-126,-92,-151,-68
195,-9,-204,-92,200,-107,9,-156,-112,-87,-151,-58
195,-9,-204,-92,200,-107,4,-151,-107,-82,-141,-48
185,0,-185,-92,185,-92,24,-161,-175,-92,-141,-58
165,-24,-190,-70,178,-107,14,-170,-165,-92,-141,-58
161,-24,-185,-68,173,-104,24,-151,-112,-82,-141,-58
165,-9,-175,-78,170,-92,29,-146,-39,-78,-146,-58
165,-19,-185,-73,175,-102,29,-156,-43,-82,-156,-68
165,-19,-185,-73,175,-102,29,-156,-48,-87,-156,-68
165,-19,-185,-73,175,-102,29,-156,-53,-92,-156,-68
165,-19,-185,-73,175,-102,29,-156,-58,-97,-156,-68
175,-4,-180,-85,178,-92,43,-146,-78,-82,-156,-63
175,0,-175,-87,175,-87,43,-141,-82,-82,-156,-63
175,4,-170,-90,173,-82,43,-136,-82,-82,-156,-63
180,19,-161,-100,170,-70,58,-126,-87,-78,-151,-53
185,34,-151,-109,168,-58,39,-131,-87,-87,-156,-68
185,43,-141,-114,163,-48,24,-136,-92,-87,-161,-73
185,53,-131,-119,158,-39,9,-141,-102,-97,-165,-78
175,53,-122,-114,148,-34,0,-146,-117,-107,-170,-78
195,43,-151,-119,173,-53,9,-136,-97,-82,-146,-58
214,48,-165,-131,190,-58,0,-141,-87,-73,-131,-48
214,63,-151,-139,183,-43,0,-156,-78,-68,-122,-34
209,53,-156,-131,183,-51,0,-161,-73,-58,-112,-24
219,48,-170,-134,195,-61,-14,-156,-63,-48,-112,-24
219,48,-170,-134,195,-61,-34,-170,-63,-53,-112,-24
224,53,-170,-139,197,-58,-34,-170,-53,-53,-107,-24
229,78,-151,-153,190,-36,-39,-170,-39,-48,-97,-19
239,92,-146,-165,192,-26,-43,-185,-82,-53,-102,-29
239,87,-151,-163,195,-31,-48,-195,-117,-58,-97,-19
248,102,-146,-175,197,-21,-63,-204,-151,-58,-102,-14
248,107,-141,-178,195,-17,-68,-214,-180,-63,-112,-14
239,87,-151,-163,195,-31,-82,-214,-165,-63,-112,-24
229,82,-146,-156,187,-31,-92,-214,-156,-58,-102,-19
234,87,-146,-161,190,-29,-97,-209,-141,-58,-97,-14
214,82,-131,-148,173,-24,-102,-209,-126,-58,-97,-14
234,97,-136,-165,185,-19,-97,-209,-117,-53,-92,0
248,92,-156,-170,202,-31,-92,-204,-107,-39,-82,4
273,102,-170,-187,222,-34,-92,-204,-102,-39,-78,4
287,122,-165,-204,226,-21,-87,-195,-92,-29,-73,9
278,102,-175,-190,226,-36,-78,-200,-102,-39,-78,9
263,87,-175,-175,219,-43,-78,-200,-107,-43,-78,9
258,78,-180,-168,219,-51,-78,-204,-117,-48,-78,9
253,87,-165,-170,209,-39,-78,-200,-126,-43,-78,9
268,97,-170,-183,219,-36,-82,-204,-117,-39,-68,19
268,87,-180,-178,224,-46,-82,-204,-107,-39,-68,19
258,68,-190,-163,224,-61,-92,-219,-102,-48,-82,14
263,73,-190,-168,226,-58,-92,-229,-102,-48,-102,0
258,63,-195,-161,226,-65,-82,-224,-107,-48,-92,-4
253,48,-204,-151,229,-78,-73,-214,-112,-48,-92,-4
244,48,-195,-146,219,-73,-73,-209,-122,-53,-102,-4
229,48,-180,-139,204,-65,-63,-200,-126,-58,-102,-19
263,87,-175,-175,219,-43,-58,-195,-112,-58,-92,-19
273,87,-185,-180,229,-48,-48,-195,-107,-58,-92,-24
258,78,-180,-168,219,-51,-48,-200,-102,-68,-107,-29
258,82,-175,-170,217,-46,-63,-204,-102,-68,-112,-39
229,48,-180,-139,204,-65,-73,-209,-117,-73,-122,-48
219,43,-175,-131,197,-65,-68,-214,-122,-78,-122,-48
224,63,-161,-143,192,-48,-68,-214,-131,-78,-112,-43
214,58,-156,-136,185,-48,-68,-219,-136,-82,-112,-43
219,48,-170,-134,195,-61,-78,-219,-161,-97,-117,-34
229,48,-180,-139,204,-65,-78,-219,-146,-97,-117,-29
278,58,-219,-168,248,-80,-73,-219,-136,-92,-117,-29
297,68,-229,-183,263,-80,-73,-229,-136,-92,-117,-29
287,68,-219,-178,253,-75,-73,-244,-151,-102,-131,-34
278,63,-214,-170,246,-75,-73,-239,-146,-102,-126,-39
273,53,-219,-163,246,-82,-73,-234,-161,-102,-126,-43
268,53,-214,-161,241,-80,-68,-239,-165,-97,-131,-48
283,58,-224,-170,253,-82,-78,-229,-161,-102,-136,-53
287,58,-229,-173,258,-85,-78,-234,-161,-107,-141,-63
292,53,-239,-173,265,-92,-78,-234,-156,-112,-141,-68
297,48,-248,-173,273,-100,-78,-234,-151,-117,-146,-68
307,53,-253,-180,280,-100,-78,-239,-161,-107,-146,-68
312,58,-253,-185,283,-97,-78,-244,-161,-97,-146,-68
317,58,-258,-187,287,-100,-78,-244,-161,-97,-146,-68
317,58,-258,-187,287,-100,-78,-248,-151,-107,-151,-68
322,53,-268,-187,295,-107,-92,-253,-175,-117,-151,-68
326,53,-273,-190,300,-109,-92,-253,-185,-117,-151,-73
331,53,-278,-192,305,-112,-87,-253,-175,-112,-151,-73
341,53,-287,-197,314,-117,-87,-253,-165,-112,-151,-68
351,68,-283,-209,317,-107,-92,-263,-165,-112,-151,-78
351,73,-278,-212,314,-102,-97,-258,-165,-112,-151,-78
351,78,-273,-214,312,-97,-102,-258,-165,-112,-156,-78
341,82,-258,-212,300,-87,-107,-258,-165,-107,-161,-78
395,117,-278,-256,336,-80,-97,-219,-165,-78,-136,-53
419,107,-312,-263,366,-102,-97,-214,-146,-68,-122,-53
390,92,-297,-241,344,-102,-146,-239,-151,-82,-146,-73
351,73,-278,-212,314,-102,-151,-253,-112,-78,-141,-68
375,82,-292,-229,334,-104,-161,-239,-78,-63,-126,-53
409,102,-307,-256,358,-102,-161,-209,-24,-24,-97,-39
419,97,-322,-258,370,-112,-180,-195,14,9,-82,-24
405,97,-307,-251,356,-104,-219,-200,34,43,-63,-9
434,117,-317,-275,375,-100,-239,-170,102,117,-19,19
507,156,-351,-331,429,-97,-239,-117,229,204,43,63
541,180,-361,-361,451,-90,-278,-117,322,263,73,73
517,190,-326,-353,422,-68,-312,-175,366,297,87,97
531,195,-336,-363,434,-70,-317,-244,380,322,117,112
556,229,-326,-392,441,-48,-317,-292,419,361,141,122
556,239,-317,-397,436,-39,-336,-366,468,424,170,141
541,229,-312,-385,427,-41,-419,-468,527,517,214,165
580,263,-317,-422,448,-26,-488,-541,600,663,307,239
653,287,-366,-470,509,-39,-502,-546,717,819,414,312
688,302,-385,-495,536,-41,-541,-566,810,936,488,341
707,346,-361,-527,534,-7,-624,-595,902,1083,595,409
790,400,-390,-595,590,4,-712,-585,976,1273,756,522
858,385,-473,-622,666,-43,-868,-605,995,1473,922,634
893,375,-517,-634,705,-70,-1024,-668,912,1644,1068,741
971,434,-536,-702,753,-51,-1166,-780,741,1761,1210,858
1019,473,-546,-746,783,-36,-1317,-936,527,1859,1317,936
1019,458,-561,-739,790,-51,-1415,-1083,336,1932,1400,1015
1010,483,-527,-746,768,-21,-1429,-1283,136,1922,1434,1054
941,566,-375,-753,658,95,-1429,-1537,-97,1834,1415,1044
868,624,-244,-746,556,190,-1424,-1737,-322,1805,1434,1068
902,746,-156,-824,529,295,-1405,-1825,-448,1820,1488,1127
907,863,-43,-885,475,409,-1371,-1854,-551,1737,1478,1146
775,858,82,-817,346,470,-1346,-1903,-751,1464,1312,1044
653,888,234,-771,209,561,-1283,-1961,-1054,1054,1083,912
600,936,336,-768,131,636,-1166,-1942,-1332,605,863,814
531,868,336,-700,97,602,-1049,-1922,-1590,97,610,678
463,775,312,-619,75,544,-985,-1873,-1703,-341,331,497
429,678,248,-553,90,463,-868,-1683,-1595,-566,131,366
400,512,112,-456,143,312,-697,-1415,-1356,-624,-34,234
390,385,-4,-387,197,190,-580,-1205,-1166,-673,-190,97
375,307,-68,-341,222,119,-517,-1088,-1063,-736,-307,0
356,248,-107,-302,231,70,-488,-995,-1005,-795,-414,-82
366,209,-156,-287,261,26,-429,-863,-897,-775,-478,-136
405,190,-214,-297,309,-12,-331,-727,-780,-697,-468,-146
390,161,-229,-275,309,-34,-302,-678,-712,-688,-478,-190
302,92,-209,-197,256,-58,-312,-668,-688,-702,-531,-258
292,24,-268,-158,280,-122,-273,-605,-619,-663,-517,-258
351,29,-322,-190,336,-146,-209,-517,-536,-600,-468,-224
361,29,-331,-195,346,-151,-180,-458,-497,-575,-463,-239
326,24,-302,-175,314,-139,-175,-434,-492,-585,-492,-263
336,34,-302,-185,319,-134,-141,-400,-463,-556,-483,-258
356,19,-336,-187,346,-158,-87,-356,-405,-512,-453,-229
336,-29,-366,-153,351,-197,-78,-366,-395,-527,-473,-263
283,-58,-341,-112,312,-200,-107,-380,-414,-546,-502,-302
317,-9,-326,-153,322,-168,-82,-326,-361,-507,-473,-273
395,43,-351,-219,373,-153,-43,-263,-307,-463,-444,-244
370,34,-336,-202,353,-151,-43,-258,-307,-463,-444,-263
302,-29,-331,-136,317,-180,-68,-278,-326,-483,-473,-292
302,-24,-326,-139,314,-175,-73,-273,-326,-483,-478,-302
346,0,-346,-173,346,-173,-34,-244,-287,-448,-448,-273
346,-14,-361,-165,353,-187,-34,-229,-283,-448,-448,-273
351,-24,-375,-163,363,-200,-29,-214,-268,-444,-448,-273
356,-9,-366,-173,361,-187,-24,-200,-268,-434,-444,-273
366,-9,-375,-178,370,-192,-24,-200,-273,-434,-444,-278
356,-9,-366,-173,361,-187,-34,-190,-292,-444,-453,-287
346,-9,-356,-168,351,-183,-24,-185,-273,-444,-453,-287
331,-24,-356,-153,344,-190,-9,-185,-268,-448,-458,-287
331,-34,-366,-148,348,-200,-4,-180,-268,-453,-458,-287
351,-24,-375,-163,363,-200,-14,-175,-253,-453,-448,-278
356,-24,-380,-165,368,-202,-14,-175,-248,-453,-448,-278
356,-19,-375,-168,366,-197,-14,-175,-244,-453,-444,-278
361,-19,-380,-170,370,-200,-14,-175,-239,-448,-444,-278
351,-39,-390,-156,370,-214,-9,-185,-244,-458,-444,-287
346,-39,-385,-153,366,-212,4,-170,-248,-458,-444,-287
346,-39,-385,-153,366,-212,19,-156,-253,-458,-444,-287
341,-39,-380,-151,361,-209,29,-156,-253,-463,-444,-287
351,-34,-385,-158,368,-209,24,-161,-258,-473,-453,-278
366,-34,-400,-165,383,-217,19,-151,-258,-478,-453,-278
370,-34,-405,-168,387,-219,14,-151,-258,-478,-458,-283
366,-48,-414,-158,390,-231,4,-151,-258,-478,-463,-283
351,-58,-409,-146,380,-234,0,-151,-268,-483,-468,-302
346,-63,-409,-141,378,-236,0,-151,-268,-492,-463,-307
341,-63,-405,-139,373,-234,9,-146,-268,-492,-463,-307
351,-53,-405,-148,378,-229,19,-131,-258,-488,-458,-302
351,-63,-414,-143,383,-239,29,-117,-258,-488,-468,-302
331,-73,-405,-129,368,-239,29,-117,-263,-502,-473,-307
331,-73,-405,-129,368,-239,29,-117,-268,-502,-473,-307
346,-73,-419,-136,383,-246,34,-117,-273,-502,-473,-307
366,-58,-424,-153,395,-241,43,-112,-263,-492,-473,-297
366,-63,-429,-151,397,-246,43,-107,-263,-492,-468,-302
361,-58,-419,-151,390,-239,48,-92,-258,-497,-473,-307
385,-48,-434,-168,409,-241,53,-68,-253,-497,-468,-312
375,-63,-439,-156,407,-251,43,-58,-253,-502,-473,-317
351,-73,-424,-139,387,-248,39,-63,-263,-512,-488,-331
326,-92,-419,-117,373,-256,29,-73,-283,-527,-497,-341
317,-82,-400,-117,358,-241,24,-78,-283,-522,-502,-346
370,-68,-439,-151,405,-253,48,-58,-263,-507,-483,-326
356,-73,-429,-141,392,-251,48,-53,-263,-507,-492,-326
341,-97,-439,-122,390,-268,48,-48,-258,-507,-492,-341
346,-92,-439,-126,392,-265,48,-39,-248,-507,-492,-341
356,-82,-439,-136,397,-261,63,-29,-239,-507,-492,-341
356,-87,-444,-134,400,-265,68,-9,-244,-512,-492,-341
346,-102,-448,-122,397,-275,73,-4,-253,-512,-507,-341
361,-107,-468,-126,414,-287,82,4,-244,-507,-497,-341
351,-102,-453,-124,402,-278,78,24,-248,-497,-497,-341
346,-97,-444,-124,395,-270,78,24,-253,-497,-497,-346
346,-82,-429,-131,387,-256,87,39,-258,-497,-507,-346
351,-78,-429,-136,390,-253,107,68,-244,-488,-492,-341
356,-87,-444,-134,400,-265,102,87,-229,-478,-483,-331
390,-92,-483,-148,436,-287,102,92,-214,-478,-497,-351
375,-92,-468,-141,422,-280,102,92,-195,-488,-507,-351
351,-87,-439,-131,395,-263,102,117,-165,-488,-507,-351
356,-82,-439,-136,397,-261,117,136,-136,-483,-512,-361
370,-68,-439,-151,405,-253,122,141,-131,-473,-512,-361
380,-68,-448,-156,414,-258,126,141,-131,-473,-512,-366
361,-78,-439,-141,400,-258,136,156,-117,-463,-502,-366
380,-58,-439,-161,409,-248,131,190,-102,-444,-492,-356
385,-53,-439,-165,412,-246,131,195,-87,-439,-492,-356
385,-58,-444,-163,414,-251,131,209,-78,-434,-492,-356
380,-58,-439,-161,409,-248,131,224,-48,-429,-488,-346
390,-48,-439,-170,414,-244,141,234,-19,-405,-478,-351
390,-78,-468,-156,429,-273,141,253,0,-395,-473,-351
390,-78,-468,-156,429,-273,136,253,0,-385,-468,-351
400,-48,-448,-175,424,-248,136,273,9,-380,-468,-346
390,-68,-458,-161,424,-263,146,292,24,-351,-448,-331
385,-87,-473,-148,429,-280,146,312,39,-341,-444,-331
375,-107,-483,-134,429,-295,146,326,53,-331,-439,-326
375,-117,-492,-129,434,-305,146,351,73,-322,-434,-322
390,-107,-497,-141,444,-302,146,351,82,-307,-419,-317
405,-92,-497,-156,451,-295,146,361,87,-283,-405,-302
405,-87,-492,-158,448,-290,136,356,92,-278,-400,-302
390,-87,-478,-151,434,-283,126,341,97,-278,-400,-302
405,-82,-488,-161,446,-285,126,341,107,-244,-375,-287
424,-73,-497,-175,461,-285,122,346,112,-229,-361,-283
439,-58,-497,-190,468,-278,117,351,122,-214,-351,-268
453,-39,-492,-207,473,-265,107,351,136,-200,-336,-248
444,-39,-483,-202,463,-261,87,336,131,-204,-326,-248
444,-39,-483,-202,463,-261,87,336,126,-185,-322,-244
463,-29,-492,-217,478,-261,78,331,122,-170,-307,-234
478,-9,-488,-234,483,-248,63,322,117,-156,-297,-224
497,0,-497,-248,497,-248,53,326,107,-131,-278,-204
497,4,-492,-251,495,-244,43,322,117,-117,-258,-190
497,9,-488,-253,492,-239,29,322,107,-107,-248,-185
507,24,-483,-265,495,-229,24,322,107,-97,-239,-170
517,29,-488,-273,502,-229,4,292,107,-87,-229,-175
512,24,-488,-268,500,-231,0,287,107,-82,-219,-161
507,14,-492,-261,500,-239,-19,273,92,-78,-209,-161
502,9,-492,-256,497,-241,-34,248,73,-78,-214,-156
527,29,-497,-278,512,-234,-34,244,73,-63,-175,-131
527,29,-497,-278,512,-234,-39,239,73,-48,-170,-122
522,24,-497,-273,509,-236,-53,209,63,-48,-170,-122
522,24,-497,-273,509,-236,-73,185,43,-48,-165,-107
541,43,-497,-292,519,-226,-78,161,34,-43,-165,-102
556,53,-502,-305,529,-224,-73,141,14,-24,-151,-87
566,58,-507,-312,536,-224,-73,122,0,-14,-136,-78
580,63,-517,-322,549,-226,-82,97,-14,-4,-136,-73
575,53,-522,-314,549,-234,-92,82,-48,-14,-122,-63
570,53,-517,-312,544,-231,-97,78,-58,-4,-107,-58
566,58,-507,-312,536,-224,-107,58,-73,-4,-102,-58
575,63,-512,-319,544,-224,-112,39,-102,-9,-92,-53
580,68,-512,-324,546,-222,-126,14,-122,-19,-107,-48
575,63,-512,-319,544,-224,-141,-9,-151,-19,-102,-48
575,63,-512,-319,544,-224,-146,-24,-175,-19,-92,-39
570,58,-512,-314,541,-226,-165,-48,-214,-24,-97,-39
575,73,-502,-324,539,-214,-161,-73,-239,-34,-102,-34
580,78,-502,-329,541,-212,-156,-82,-253,-34,-102,-34
585,82,-502,-334,544,-209,-151,-97,-278,-34,-102,-39
585,78,-507,-331,546,-214,-156,-122,-322,-43,-107,-48
580,68,-512,-324,546,-222,-156,-136,-312,-48,-107,-39
595,82,-512,-339,553,-214,-161,-146,-297,-43,-107,-34
610,82,-527,-346,568,-222,-161,-151,-287,-39,-97,-19
600,68,-531,-334,566,-231,-170,-175,-268,-43,-107,-29
600,78,-522,-339,561,-222,-185,-185,-297,-53,-107,-39
605,97,-507,-351,556,-204,-180,-190,-312,-58,-102,-39
605,112,-492,-358,549,-190,-175,-195,-326,-63,-102,-39
600,112,-488,-356,544,-187,-190,-224,-336,-78,-102,-48
585,87,-497,-336,541,-204,-195,-258,-346,-87,-117,-53
575,78,-497,-326,536,-209,-204,-268,-375,-87,-117,-48
566,58,-507,-312,536,-224,-209,-268,-366,-87,-122,-48
551,24,-527,-287,539,-251,-204,-268,-361,-87,-126,-53
556,29,-527,-292,541,-248,-214,-287,-395,-102,-131,-68
561,58,-502,-309,531,-222,-209,-292,-409,-102,-131,-68
561,48,-512,-305,536,-231,-209,-302,-414,-102,-131,-73
551,53,-497,-302,524,-222,-214,-312,-424,-107,-136,-78
556,43,-512,-300,534,-234,-209,-297,-414,-112,-126,-73
580,43,-536,-312,558,-246,-204,-297,-414,-107,-126,-68
566,29,-536,-297,551,-253,-214,-317,-434,-112,-131,-68
556,19,-536,-287,546,-258,-209,-326,-434,-107,-131,-63
580,53,-527,-317,553,-236,-214,-336,-439,-112,-131,-73
585,58,-527,-322,556,-234,-209,-326,-439,-112,-136,-73
575,58,-517,-317,546,-229,-214,-341,-439,-117,-141,-73
570,53,-517,-312,544,-231,-224,-351,-444,-117,-141,-73
570,43,-527,-307,549,-241,-219,-346,-458,-117,-146,-63
585,43,-541,-314,563,-248,-214,-346,-453,-122,-146,-63
595,73,-522,-334,558,-224,-209,-351,-458,-122,-146,-68
600,58,-541,-329,570,-241,-204,-356,-473,-122,-146,-68
610,53,-556,-331,583,-251,-204,-366,-478,-131,-146,-73
619,92,-527,-356,573,-217,-209,-375,-473,-131,-146,-73
619,78,-541,-348,580,-231,-209,-395,-468,-131,-146,-73
610,43,-566,-326,588,-261,-219,-405,-483,-136,-156,-82
580,19,-561,-300,570,-270,-219,-395,-502,-141,-156,-78
570,9,-561,-290,566,-275,-219,-385,-492,-146,-161,-78
566,14,-551,-290,558,-268,-204,-375,-492,-146,-161,-73
561,4,-556,-283,558,-275,-200,-366,-488,-141,-151,-68
580,19,-561,-300,570,-270,-209,-361,-483,-141,-161,-73
585,9,-575,-297,580,-283,-214,-380,-478,-141,-165,-78
590,34,-556,-312,573,-261,-214,-380,-488,-141,-165,-82
590,58,-531,-324,561,-236,-209,-375,-483,-141,-165,-87
600,43,-556,-322,578,-256,-204,-385,-497,-151,-161,-82
600,29,-570,-314,585,-270,-200,-385,-497,-146,-156,-78
600,43,-556,-322,578,-256,-195,-385,-488,-146,-151,-73
595,39,-556,-317,575,-258,-195,-390,-502,-146,-146,-68
580,14,-566,-297,573,-275,-209,-400,-512,-170,-170,-87
575,9,-566,-292,570,-278,-214,-409,-512,-170,-175,-97
570,19,-551,-295,561,-265,-219,-424,-512,-175,-180,-102
566,19,-546,-292,556,-263,-214,-434,-512,-175,-185,-107
561,4,-556,-283,558,-275,-224,-429,-512,-165,-180,-97
546,0,-546,-273,546,-273,-224,-424,-522,-170,-180,-97
541,-4,-546,-268,544,-275,-224,-419,-531,-175,-180,-102
551,-9,-561,-270,556,-285,-224,-424,-531,-175,-180,-102
566,9,-556,-287,561,-273,-224,-419,-522,-175,-190,-102
561,-4,-566,-278,563,-285,-219,-429,-522,-180,-200,-107
546,-14,-561,-265,553,-287,-214,-444,-522,-195,-204,-112
575,9,-566,-292,570,-278,-204,-424,-522,-195,-204,-112
585,39,-546,-312,566,-253,-195,-424,-512,-195,-200,-112
575,39,-536,-307,556,-248,-195,-424,-527,-204,-204,-117
566,14,-551,-290,558,-268,-185,-414,-527,-204,-204,-117
585,14,-570,-300,578,-278,-185,-405,-522,-204,-204,-117
595,24,-570,-309,583,-273,-185,-414,-512,-200,-214,-122
595,29,-566,-312,580,-268,-185,-414,-507,-200,-209,-122
595,39,-556,-317,575,-258,-185,-409,-497,-200,-209,-122
595,43,-551,-319,573,-253,-185,-409,-497,-200,-214,-126
585,29,-556,-307,570,-263,-190,-424,-517,-219,-229,-136
561,9,-551,-285,556,-270,-185,-429,-522,-224,-229,-122
546,-4,-551,-270,549,-278,-185,-429,-527,-229,-234,-131
531,-34,-566,-248,549,-300,-185,-434,-531,-234,-244,-141
541,-43,-585,-248,563,-314,-175,-414,-512,-224,-234,-141
561,4,-556,-283,558,-275,-175,-414,-502,-214,-234,-156
605,58,-546,-331,575,-244,-156,-409,-468,-214,-224,-136
600,43,-556,-322,578,-256,-146,-405,-478,-214,-234,-136
595,39,-556,-317,575,-258,-146,-400,-478,-214,-234,-136
590,34,-556,-312,573,-261,-146,-395,-478,-214,-234,-136
585,29,-556,-307,570,-263,-146,-390,-478,-214,-234,-136
590,19,-570,-305,580,-275,-131,-370,-473,-200,-234,-141
595,19,-575,-307,585,-278,-131,-366,-463,-200,-234,-141
600,19,-580,-309,590,-280,-131,-361,-448,-200,-234,-141
610,29,-580,-319,595,-275,-117,-351,-439,-195,-229,-131
610,24,-585,-317,597,-280,-126,-366,-434,-209,-234,-136
595,24,-570,-309,583,-273,-141,-370,-434,-204,-239,-141
580,24,-556,-302,568,-265,-156,-375,-439,-209,-244,-146
556,14,-541,-285,549,-263,-165,-380,-448,-214,-248,-146
566,-9,-575,-278,570,-292,-161,-390,-448,-209,-244,-146
575,-9,-585,-283,580,-297,-175,-395,-448,-209,-239,-146
566,0,-566,-283,566,-283,-180,-409,-448,-214,-239,-141
551,-14,-566,-268,558,-290,-185,-414,-453,-214,-239,-141
570,0,-570,-285,570,-285,-190,-405,-448,-204,-239,-131
580,19,-561,-300,570,-270,-209,-414,-453,-209,-239,-131
595,43,-551,-319,573,-253,-209,-409,-448,-209,-234,-131
610,87,-522,-348,566,-217,-214,-405,-439,-204,-224,-126
600,68,-531,-334,566,-231,-214,-409,-448,-195,-224,-136
600,48,-551,-324,575,-251,-214,-409,-448,-195,-214,-126
610,48,-561,-329,585,-256,-224,-409,-448,-190,-214,-122
610,39,-570,-324,590,-265,-224,-409,-444,-190,-219,-122
619,34,-585,-326,602,-275,-244,-400,-439,-190,-229,-112
619,34,-585,-326,602,-275,-248,-400,-439,-185,-219,-107
634,43,-590,-339,612,-273,-248,-395,-434,-185,-214,-102
624,43,-580,-334,602,-268,-248,-395,-429,-185,-214,-102
634,39,-595,-336,614,-278,-244,-385,-424,-180,-200,-107
639,24,-614,-331,627,-295,-239,-380,-419,-165,-190,-102
653,24,-629,-339,641,-302,-239,-380,-419,-165,-185,-102
658,34,-624,-346,641,-295,-234,-370,-414,-156,-180,-97
653,34,-619,-344,636,-292,-239,-361,-405,-151,-190,-92
653,29,-624,-341,639,-297,-244,-356,-400,-151,-185,-87
663,29,-634,-346,649,-302,-248,-356,-400,-151,-180,-82
673,48,-624,-361,649,-287,-253,-346,-400,-141,-175,-78
688,39,-649,-363,668,-305,-234,-351,-405,-136,-165,-78
678,19,-658,-348,668,-319,-229,-351,-400,-136,-165,-78
658,-9,-668,-324,663,-339,-234,-366,-400,-146,-180,-82
653,-14,-668,-319,661,-341,-229,-375,-405,-146,-200,-97
644,-9,-653,-317,649,-331,-224,-375,-414,-165,-200,-107
644,-19,-663,-312,653,-341,-219,-370,-414,-165,-200,-112
639,-14,-653,-312,646,-334,-224,-370,-419,-170,-209,-117
629,-9,-639,-309,634,-324,-219,-366,-419,-175,-209,-136
644,-9,-653,-317,649,-331,-214,-370,-409,-165,-200,-126
644,-29,-673,-307,658,-351,-204,-370,-409,-165,-200,-131
619,-58,-678,-280,649,-368,-204,-375,-409,-175,-214,-136
610,-73,-683,-268,646,-378,-219,-380,-414,-175,-219,-146
624,-63,-688,-280,656,-375,-209,-370,-405,-165,-214,-141
639,-43,-683,-297,661,-363,-204,-361,-405,-165,-209,-136
668,0,-668,-334,668,-334,-204,-346,-409,-161,-195,-126
683,19,-663,-351,673,-322,-204,-336,-409,-161,-190,-122
658,-19,-678,-319,668,-348,-204,-341,-424,-175,-204,-122
639,-29,-668,-305,653,-348,-204,-346,-409,-175,-204,-117
658,-29,-688,-314,673,-358,-200,-351,-400,-170,-204,-117
649,-29,-678,-309,663,-353,-200,-366,-400,-170,-204,-117
639,-29,-668,-305,653,-348,-204,-375,-409,-170,-214,-122
629,-34,-663,-297,646,-348,-209,-366,-400,-170,-204,-126
624,-43,-668,-290,646,-356,-214,-356,-409,-170,-200,-131
619,-43,-663,-287,641,-353,-214,-356,-409,-165,-200,-136
634,-39,-673,-297,653,-356,-204,-356,-414,-156,-200,-131
639,-39,-678,-300,658,-358,-204,-361,-414,-156,-200,-131
644,-43,-688,-300,666,-366,-204,-361,-409,-156,-195,-126
649,-48,-697,-300,673,-373,-204,-361,-405,-156,-195,-117
644,-43,-688,-300,666,-366,-214,-361,-395,-165,-204,-126
644,-39,-683,-302,663,-361,-214,-361,-395,-156,-204,-126
644,-39,-683,-302,663,-361,-214,-356,-395,-156,-204,-126
639,-39,-678,-300,658,-358,-214,-356,-385,-165,-209,-126
634,-53,-688,-290,661,-370,-224,-361,-400,-175,-209,-126
629,-63,-692,-283,661,-378,-229,-361,-409,-175,-209,-131
624,-73,-697,-275,661,-385,-229,-361,-400,-170,-209,-131
624,-82,-707,-270,666,-395,-234,-361,-390,-170,-209,-126
639,-63,-702,-287,671,-383,-229,-361,-390,-161,-204,-126
644,-53,-697,-295,671,-375,-224,-356,-390,-161,-200,-126
649,-43,-692,-302,671,-368,-219,-356,-390,-161,-200,-126
644,-34,-678,-305,661,-356,-214,-356,-390,-156,-200,-126
649,-58,-707,-295,678,-383,-195,-356,-380,-146,-185,-112
653,-39,-692,-307,673,-366,-195,-351,-370,-146,-190,-112
653,-4,-658,-324,656,-331,-204,-336,-366,-131,-185,-102
663,-4,-668,-329,666,-336,-219,-322,-336,-126,-170,-97
688,4,-683,-346,685,-339,-248,-326,-312,-112,-175,-102
702,14,-688,-358,695,-336,-268,-336,-268,-73,-156,-87
683,-9,-692,-336,688,-351,-268,-331,-239,-39,-122,-73
697,-9,-707,-344,702,-358,-287,-317,-219,-14,-102,-58
727,0,-727,-363,727,-363,-317,-278,-151,29,-78,-48
732,0,-732,-366,732,-366,-346,-234,-43,87,-34,-14
775,53,-722,-414,749,-334,-366,-195,87,165,14,14
810,63,-746,-436,778,-341,-380,-175,180,239,58,39
824,68,-756,-446,790,-344,-395,-224,204,273,78,53
839,102,-736,-470,788,-317,-414,-283,185,283,82,53
790,82,-707,-436,749,-312,-444,-336,204,307,92,53
746,43,-702,-395,724,-329,-497,-419,263,370,126,68
824,97,-727,-461,775,-314,-566,-483,385,497,209,131
878,112,-766,-495,822,-326,-629,-507,531,644,297,195
873,97,-775,-485,824,-339,-678,-507,644,761,370,234
912,122,-790,-517,851,-334,-712,-458,775,927,488,312
1005,156,-849,-580,927,-346,-810,-458,897,1117,619,405
1093,200,-893,-646,993,-346,-966,-497,966,1288,756,488
1156,248,-907,-702,1032,-329,-1093,-531,980,1478,902,595
1195,258,-936,-727,1066,-339,-1205,-614,888,1634,1054,702
1263,268,-995,-766,1129,-363,-1337,-741,741,1751,1180,800
1332,292,-1039,-812,1185,-373,-1454,-849,600,1854,1302,897
1322,307,-1015,-814,1168,-353,-1517,-1039,409,1864,1346,946
1273,370,-902,-822,1088,-265,-1517,-1312,136,1795,1346,966
1220,439,-780,-829,1000,-170,-1493,-1561,-156,1708,1337,980
1166,512,-653,-839,910,-70,-1493,-1786,-400,1644,1332,980
1141,610,-531,-875,836,39,-1478,-1873,-541,1590,1351,1010
1107,692,-414,-900,761,139,-1415,-1883,-673,1473,1312,1024
1034,741,-292,-888,663,224,-1342,-1932,-907,1200,1161,961
961,780,-180,-871,570,300,-1263,-2010,-1205,819,980,863
873,761,-112,-817,492,324,-1185,-2030,-1512,380,756,746
795,707,-87,-751,441,309,-1112,-2000,-1722,-39,527,595
761,600,-161,-680,461,219,-995,-1869,-1742,-331,326,473
751,434,-317,-592,534,58,-854,-1668,-1600,-497,141,341
732,317,-414,-524,573,-48,-727,-1429,-1420,-595,-63,165
688,229,-458,-458,573,-114,-614,-1234,-1298,-658,-209,48
668,141,-527,-405,597,-192,-556,-1122,-1210,-727,-317,-24
658,73,-585,-366,622,-256,-507,-1010,-1122,-756,-409,-97
649,4,-644,-326,646,-319,-468,-902,-985,-736,-458,-165
624,-34,-658,-295,641,-346,-439,-834,-888,-707,-468,-209
595,-73,-668,-261,631,-370,-390,-756,-854,-683,-473,-239
585,-122,-707,-231,646,-414,-351,-683,-805,-663,-478,-268
595,-136,-732,-229,663,-434,-336,-653,-761,-649,-488,-302
595,-136,-732,-229,663,-434,-287,-595,-712,-614,-492,-297
610,-131,-741,-239,675,-436,-224,-522,-658,-575,-483,-292
629,-131,-761,-248,695,-446,-190,-478,-610,-556,-463,-297
629,-136,-766,-246,697,-451,-165,-444,-561,-541,-473,-297
590,-175,-766,-207,678,-470,-185,-453,-570,-556,-512,-341
575,-175,-751,-200,663,-463,-195,-458,-561,-556,-502,-341
629,-146,-775,-241,702,-461,-161,-414,-517,-507,-453,-312
619,-161,-780,-229,700,-470,-170,-400,-522,-512,-463,-331
566,-190,-756,-187,661,-473,-180,-414,-541,-541,-502,-370
546,-185,-732,-180,639,-458,-146,-375,-512,-512,-502,-370
575,-161,-736,-207,656,-448,-112,-312,-444,-463,-478,-351
590,-175,-766,-207,678,-470,-102,-273,-405,-439,-468,-331
590,-209,-800,-190,695,-505,-102,-258,-390,-439,-453,-322
595,-219,-814,-187,705,-517,-97,-244,-375,-434,-448,-322
600,-204,-805,-197,702,-505,-92,-229,-375,-424,-439,-322
610,-204,-814,-202,712,-509,-92,-229,-380,-424,-434,-326
610,-195,-805,-207,707,-500,-112,-239,-400,-429,-448,-341
600,-195,-795,-202,697,-495,-102,-244,-380,-434,-453,-346
585,-209,-795,-187,690,-502,-87,-253,-375,-444,-463,-351
585,-219,-805,-183,695,-512,-82,-258,-375,-453,-468,-356
595,-204,-800,-195,697,-502,-73,-234,-370,-444,-468,-346
600,-200,-800,-200,700,-500,-73,-234,-366,-444,-468,-346
600,-190,-790,-204,695,-490,-73,-234,-361,-444,-463,-346
605,-185,-790,-209,697,-488,-73,-234,-356,-439,-463,-346
595,-200,-795,-197,695,-497,-78,-239,-361,-444,-468,-351
590,-204,-795,-192,692,-500,-73,-229,-366,-448,-473,-356
590,-209,-800,-190,695,-505,-68,-219,-370,-453,-478,-361
585,-214,-800,-185,692,-507,-68,-224,-370,-463,-483,-366
595,-200,-795,-197,695,-497,-48,-214,-361,-453,-473,-356
610,-200,-810,-204,710,-505,-48,-200,-356,-458,-473,-356
614,-200,-814,-207,714,-507,-48,-195,-351,-458,-478,-361
610,-214,-824,-197,717,-519,-53,-190,-346,-458,-483,-361
605,-204,-810,-200,707,-507,-68,-195,-356,-473,-492,-380
610,-200,-810,-204,710,-505,-68,-200,-356,-483,-492,-385
614,-190,-805,-212,710,-497,-58,-200,-356,-483,-497,-385
634,-170,-805,-231,719,-488,-48,-190,-346,-478,-497,-380
649,-161,-810,-244,729,-485,-39,-180,-331,-473,-497,-380
634,-170,-805,-231,719,-488,-39,-175,-331,-483,-502,-385
639,-170,-810,-234,724,-490,-39,-170,-331,-478,-502,-385
