I,II,III,aVR,aVL,aVF,V1,V2,V3,V4,V5,V6
292,29,-263,-161,278,-117,87,87,126,48,-175,-224
292,29,-263,-161,278,-117,87,87,126,48,-175,-224
292,29,-263,-161,278,-117,87,87,126,48,-175,-224
292,29,-263,-161,278,-117,87,87,126,48,-175,-224
287,24,-263,-156,275,-119,78,92,136,48,-175,-219
283,19,-263,-151,273,-122,78,97,136,48,-175,-214
278,14,-263,-146,270,-124,78,102,136,48,-175,-209
273,9,-263,-141,268,-126,78,107,136,48,-175,-204
283,19,-263,-151,273,-122,87,97,146,58,-165,-204
283,19,-263,-151,273,-122,87,97,146,58,-165,-204
283,19,-263,-151,273,-122,87,97,146,58,-165,-204
283,19,-263,-151,273,-122,87,97,146,58,-165,-204
283,29,-253,-156,268,-112,92,107,156,78,-146,-185
283,39,-244,-161,263,-102,97,117,165,87,-136,-175
283,48,-234,-165,258,-92,102,126,175,97,-126,-165
283,58,-224,-170,253,-82,107,136,185,107,-117,-156
292,73,-219,-183,256,-73,107,131,185,107,-122,-161
292,78,-214,-185,253,-68,107,126,185,107,-126,-165
292,82,-209,-187,251,-63,107,122,185,107,-131,-170
292,87,-204,-190,248,-58,107,117,185,107,-136,-175
302,97,-204,-200,253,-53,97,107,195,117,-131,-170
302,97,-204,-200,253,-53,97,107,195,117,-126,-165
302,97,-204,-200,253,-53,97,107,195,117,-122,-161
302,97,-204,-200,253,-53,97,107,195,117,-117,-156
302,107,-195,-204,248,-43,112,122,209,131,-107,-146
302,117,-185,-209,244,-34,117,126,214,136,-97,-136
302,126,-175,-214,239,-24,122,131,219,141,-87,-126
302,136,-165,-219,234,-14,126,136,224,146,-78,-117
302,146,-156,-224,229,-4,136,141,234,156,-78,-117
302,146,-156,-224,229,-4,136,146,234,156,-78,-117
302,146,-156,-224,229,-4,136,151,234,156,-78,-117
302,146,-156,-224,229,-4,136,156,234,156,-78,-117
292,165,-126,-229,209,19,122,146,239,161,-73,-107
292,175,-117,-234,204,29,117,136,244,165,-68,-107
292,185,-107,-239,200,39,112,126,248,170,-63,-107
292,195,-97,-244,195,48,107,117,253,175,-58,-107
283,180,-102,-231,192,39,102,117,244,175,-48,-97
273,165,-107,-219,190,29,97,117,244,175,-48,-97
263,151,-112,-207,187,19,92,117,244,175,-48,-97
253,136,-117,-195,185,9,87,117,244,175,-48,-97
258,136,-122,-197,190,7,82,112,244,180,-39,-82
263,136,-126,-200,195,4,78,107,244,185,-29,-78
268,136,-131,-202,200,2,73,102,244,190,-19,-73
273,136,-136,-204,204,0,68,97,244,195,-9,-68
287,146,-141,-217,214,2,68,102,258,200,0,-53
292,146,-146,-219,219,0,68,107,263,204,0,-48
297,146,-151,-222,224,-2,68,112,268,209,0,-43
302,146,-156,-224,229,-4,68,117,273,214,0,-39
312,151,-161,-231,236,-4,58,131,283,229,9,-39
312,156,-156,-234,234,0,58,136,292,234,9,-39
312,161,-151,-236,231,4,58,141,302,239,9,-39
312,165,-146,-239,229,9,58,146,312,244,9,-39
312,156,-156,-234,234,0,58,156,322,253,29,-24
312,156,-156,-234,234,0,58,156,331,263,39,-19
312,156,-156,-234,234,0,58,156,341,273,48,-14
312,156,-156,-234,234,0,58,156,351,283,58,-9
312,146,-165,-229,239,-9,58,161,366,297,68,4
312,146,-165,-229,239,-9,58,165,370,302,78,9
312,146,-165,-229,239,-9,58,170,375,307,87,14
312,146,-165,-229,239,-9,58,175,380,312,97,19
326,151,-175,-239,251,-12,48,175,395,326,122,34
331,156,-175,-244,253,-9,48,175,400,331,136,39
336,161,-175,-248,256,-7,48,175,405,336,151,43
341,165,-175,-253,258,-4,48,175,409,341,165,48
341,165,-175,-253,258,-4,48,190,424,346,170,63
341,165,-175,-253,258,-4,48,195,429,351,175,68
341,165,-175,-253,258,-4,48,200,434,356,180,73
341,165,-175,-253,258,-4,48,204,439,361,185,78
331,175,-156,-253,244,9,58,195,448,370,195,87
331,175,-156,-253,244,9,58,195,448,370,204,97
331,175,-156,-253,244,9,58,195,448,370,214,107
331,175,-156,-253,244,9,58,195,448,370,224,117
336,190,-146,-263,241,21,53,195,453,380,229,122
341,195,-146,-268,244,24,48,195,458,380,234,126
346,200,-146,-273,246,26,43,195,463,380,239,131
351,204,-146,-278,248,29,39,195,468,380,244,136
361,200,-161,-280,261,19,39,204,463,380,253,151
361,195,-165,-278,263,14,39,204,458,380,253,156
361,190,-170,-275,265,9,39,204,453,380,253,161
361,185,-175,-273,268,4,39,204,448,380,253,165
370,185,-185,-278,278,0,34,190,439,375,263,175
370,185,-185,-278,278,0,29,185,439,370,263,175
370,185,-185,-278,278,0,24,180,439,366,263,175
370,185,-185,-278,278,0,19,175,439,361,263,175
366,175,-190,-270,278,-7,29,165,424,346,248,170
361,175,-185,-268,273,-4,29,165,409,341,244,165
356,175,-180,-265,268,-2,29,165,395,336,239,161
351,175,-175,-263,263,0,29,165,380,331,234,156
346,175,-170,-261,258,2,29,156,366,317,209,131
341,175,-165,-258,253,4,29,156,351,302,195,117
336,175,-161,-256,248,7,29,156,336,287,180,102
331,175,-156,-253,244,9,29,156,322,273,165,87
326,165,-161,-246,244,2,29,141,297,248,146,68
322,165,-156,-244,239,4,29,136,283,234,126,58
317,165,-151,-241,234,7,29,131,268,219,107,48
312,165,-146,-239,229,9,29,126,253,204,87,39
322,165,-156,-244,239,4,39,117,234,195,78,24
322,165,-156,-244,239,4,39,117,224,185,68,19
322,165,-156,-244,239,4,39,117,214,175,58,14
322,165,-156,-244,239,4,39,117,204,165,48,9
307,161,-146,-234,226,7,39,102,195,156,39,0
302,156,-146,-229,224,4,39,97,185,146,29,0
297,151,-146,-224,222,2,39,92,175,136,19,0
292,146,-146,-219,219,0,39,87,165,126,9,0
287,131,-156,-209,222,-12,43,87,161,112,0,-14
283,126,-156,-204,219,-14,48,87,156,107,-9,-29
278,122,-156,-200,217,-17,53,87,151,102,-19,-43
273,117,-156,-195,214,-19,58,87,146,97,-29,-58
287,131,-156,-209,222,-12,53,78,131,97,-39,-58
292,136,-156,-214,224,-9,48,78,126,97,-39,-58
297,141,-156,-219,226,-7,43,78,122,97,-39,-58
302,146,-156,-224,229,-4,39,78,117,97,-39,-58
297,141,-156,-219,226,-7,39,78,107,87,-53,-68
292,136,-156,-214,224,-9,39,78,107,78,-58,-68
287,131,-156,-209,222,-12,39,78,107,68,-63,-68
283,126,-156,-204,219,-14,39,78,107,58,-68,-68
283,141,-141,-212,212,0,39,78,107,63,-58,-73
283,146,-136,-214,209,4,39,78,107,68,-58,-78
283,151,-131,-217,207,9,39,78,107,73,-58,-82
283,156,-126,-219,204,14,39,78,107,78,-58,-87
283,141,-141,-212,212,0,43,87,107,63,-68,-97
283,136,-146,-209,214,-4,48,87,107,58,-78,-107
283,131,-151,-207,217,-9,53,87,107,53,-87,-117
283,126,-156,-204,219,-14,58,87,107,48,-97,-126
283,117,-165,-200,224,-24,58,97,97,58,-97,-112
283,117,-165,-200,224,-24,58,97,97,58,-97,-107
283,117,-165,-200,224,-24,58,97,97,58,-97,-102
283,117,-165,-200,224,-24,58,97,97,58,-97,-97
287,126,-161,-207,224,-17,68,107,102,48,-87,-87
292,126,-165,-209,229,-19,68,107,107,48,-87,-87
297,126,-170,-212,234,-21,68,107,112,48,-87,-87
302,126,-175,-214,239,-24,68,107,117,48,-87,-87
302,117,-185,-209,244,-34,73,107,107,48,-97,-92
302,117,-185,-209,244,-34,78,107,107,48,-97,-97
302,117,-185,-209,244,-34,82,107,107,48,-97,-102
302,117,-185,-209,244,-34,87,107,107,48,-97,-107
302,117,-185,-209,244,-34,78,97,97,43,-112,-112
302,117,-185,-209,244,-34,68,97,97,39,-117,-117
302,117,-185,-209,244,-34,58,97,97,34,-122,-122
302,117,-185,-209,244,-34,48,97,97,29,-126,-126
302,126,-175,-214,239,-24,63,102,102,34,-112,-122
302,126,-175,-214,239,-24,68,107,107,39,-107,-117
302,126,-175,-214,239,-24,73,112,112,43,-102,-112
302,126,-175,-214,239,-24,78,117,117,48,-97,-107
302,126,-175,-214,239,-24,68,117,117,48,-107,-117
302,126,-175,-214,239,-24,68,117,117,48,-107,-117
302,126,-175,-214,239,-24,68,117,117,48,-107,-117
302,126,-175,-214,239,-24,68,117,117,48,-107,-117
312,141,-170,-226,241,-14,68,117,126,58,-97,-117
312,146,-165,-229,239,-9,68,117,126,58,-97,-117
312,151,-161,-231,236,-4,68,117,126,58,-97,-117
312,156,-156,-234,234,0,68,117,126,58,-97,-117
312,170,-141,-241,226,14,82,126,131,68,-82,-107
312,175,-136,-244,224,19,87,126,136,78,-78,-97
312,180,-131,-246,222,24,92,126,141,87,-73,-87
312,185,-126,-248,219,29,97,126,146,97,-68,-78
322,195,-126,-258,224,34,87,126,156,102,-58,-73
322,204,-117,-263,219,43,87,126,156,107,-48,-68
322,214,-107,-268,214,53,87,126,156,112,-39,-63
322,224,-97,-273,209,63,87,126,156,117,-29,-58
326,224,-102,-275,214,61,97,136,165,126,-24,-53
331,224,-107,-278,219,58,97,136,165,126,-19,-48
336,224,-112,-280,224,56,97,136,165,126,-14,-43
341,224,-117,-283,229,53,97,136,165,126,-9,-39
336,239,-97,-287,217,70,102,141,170,131,-4,-34
331,244,-87,-287,209,78,107,146,175,136,0,-29
326,248,-78,-287,202,85,112,151,180,141,4,-24
322,253,-68,-287,195,92,117,156,185,146,9,-19
317,263,-53,-290,185,104,107,146,195,156,14,-4
312,263,-48,-287,180,107,107,146,195,156,19,0
307,263,-43,-285,175,109,107,146,195,156,24,4
302,263,-39,-283,170,112,107,146,195,156,29,9
312,268,-43,-290,178,112,102,131,190,165,39,9
322,273,-48,-297,185,112,97,126,185,165,39,9
331,278,-53,-305,192,112,92,122,180,165,39,9
341,283,-58,-312,200,112,87,117,175,165,39,9
336,278,-58,-307,197,109,78,97,165,151,34,4
331,273,-58,-302,195,107,68,87,156,146,29,0
326,268,-58,-297,192,104,58,78,146,141,24,-4
322,263,-58,-292,190,102,48,68,136,136,19,-9
331,253,-78,-292,204,87,58,78,136,136,24,0
331,253,-78,-292,204,87,58,78,136,136,29,0
331,253,-78,-292,204,87,58,78,136,136,34,0
331,253,-78,-292,204,87,58,78,136,136,39,0
322,263,-58,-292,190,102,58,78,141,141,39,4
322,263,-58,-292,190,102,58,78,146,146,39,9
322,263,-58,-292,190,102,58,78,151,151,39,14
322,263,-58,-292,190,102,58,78,156,156,39,19
322,258,-63,-290,192,97,53,87,146,156,39,14
322,253,-68,-287,195,92,48,87,146,156,39,9
322,248,-73,-285,197,87,43,87,146,156,39,4
322,244,-78,-283,200,82,39,87,146,156,39,0
331,229,-102,-280,217,63,48,97,146,156,39,0
331,224,-107,-278,219,58,48,97,146,156,39,0
331,219,-112,-275,222,53,48,97,146,156,39,0
331,214,-117,-273,224,48,48,97,146,156,39,0
317,219,-97,-268,207,61,39,87,136,151,29,0
312,224,-87,-268,200,68,39,87,136,146,29,0
307,229,-78,-268,192,75,39,87,136,141,29,0
302,234,-68,-268,185,82,39,87,136,136,29,0
292,229,-63,-261,178,82,48,87,126,126,19,-4
292,224,-68,-258,180,78,48,87,126,126,19,-9
292,219,-73,-256,183,73,48,87,126,126,19,-14
292,214,-78,-253,185,68,48,87,126,126,19,-19
292,204,-87,-248,190,58,48,87,117,117,4,-24
292,204,-87,-248,190,58,48,87,117,117,0,-29
292,204,-87,-248,190,58,48,87,117,117,-4,-34
292,204,-87,-248,190,58,48,87,117,117,-9,-39
307,204,-102,-256,204,51,48,78,107,107,-9,-24
312,204,-107,-258,209,48,48,78,107,107,-9,-19
317,204,-112,-261,214,46,48,78,107,107,-9,-14
322,204,-117,-263,219,43,48,78,107,107,-9,-9
307,200,-107,-253,207,46,48,87,117,117,-4,0
302,195,-107,-248,204,43,48,87,117,117,0,0
297,190,-107,-244,202,41,48,87,117,117,4,0
292,185,-107,-239,200,39,48,87,117,117,9,0
283,195,-87,-239,185,53,39,87,107,107,-4,-9
283,195,-87,-239,185,53,39,87,107,107,-9,-19
283,195,-87,-239,185,53,39,87,107,107,-14,-29
283,195,-87,-239,185,53,39,87,107,107,-19,-39
287,195,-92,-241,190,51,39,78,107,102,-24,-53
292,195,-97,-244,195,48,39,78,107,97,-29,-58
297,195,-102,-246,200,46,39,78,107,92,-34,-63
302,195,-107,-248,204,43,39,78,107,87,-39,-68
292,200,-92,-246,192,53,39,78,107,78,-48,-68
292,204,-87,-248,190,58,39,78,107,78,-48,-68
292,209,-82,-251,187,63,39,78,107,78,-48,-68
292,214,-78,-253,185,68,39,78,107,78,-48,-68
287,209,-78,-248,183,65,39,78,97,87,-39,-63
283,204,-78,-244,180,63,39,78,97,87,-39,-58
278,200,-78,-239,178,61,39,78,97,87,-39,-53
273,195,-78,-234,175,58,39,78,97,87,-39,-48
263,195,-68,-229,165,63,39,78,97,87,-48,-63
263,195,-68,-229,165,63,39,78,97,87,-48,-68
263,195,-68,-229,165,63,39,78,97,87,-48,-73
263,195,-68,-229,165,63,39,78,97,87,-48,-78
253,200,-53,-226,153,73,39,68,87,78,-48,-87
253,204,-48,-229,151,78,39,68,87,78,-48,-87
253,209,-43,-231,148,82,39,68,87,78,-48,-87
253,214,-39,-234,146,87,39,68,87,78,-48,-87
258,204,-53,-231,156,75,39,78,97,87,-48,-73
263,204,-58,-234,161,73,39,78,97,87,-48,-68
268,204,-63,-236,165,70,39,78,97,87,-48,-63
273,204,-68,-239,170,68,39,78,97,87,-48,-58
273,195,-78,-234,175,58,48,87,107,78,-48,-68
273,195,-78,-234,175,58,48,87,107,78,-48,-68
273,195,-78,-234,175,58,48,87,107,78,-48,-68
273,195,-78,-234,175,58,48,87,107,78,-48,-68
273,204,-68,-239,170,68,39,78,97,78,-48,-78
273,200,-73,-236,173,63,39,78,97,78,-53,-78
263,195,-68,-229,165,63,39,78,97,78,-53,-78
263,185,-78,-224,170,53,39,82,97,78,-53,-78
248,180,-68,-214,158,56,43,92,107,78,-43,-78
253,185,-68,-219,161,58,53,92,112,82,-43,-78
248,180,-68,-214,158,56,63,92,112,87,-43,-78
234,195,-39,-214,136,78,68,92,117,87,-43,-78
239,200,-39,-219,139,80,63,87,112,87,-53,-78
239,200,-39,-219,139,80,58,87,112,87,-53,-82
253,200,-53,-226,153,73,53,87,112,87,-43,-87
258,204,-53,-231,156,75,58,87,112,87,-29,-82
248,200,-48,-224,148,75,58,78,102,82,-34,-87
244,195,-48,-219,146,73,58,82,97,82,-43,-102
244,195,-48,-219,146,73,53,82,97,82,-63,-112
244,190,-53,-217,148,68,53,82,97,78,-78,-117
258,180,-78,-219,168,51,53,97,97,78,-73,-102
263,180,-82,-222,173,48,53,102,102,87,-68,-87
268,170,-97,-219,183,36,58,102,102,87,-58,-82
273,161,-112,-217,192,24,58,107,92,87,-48,-73
268,161,-107,-214,187,26,48,102,92,73,-53,-87
258,165,-92,-212,175,36,43,92,92,68,-63,-97
253,175,-78,-214,165,48,43,87,92,68,-68,-102
253,185,-68,-219,161,58,43,82,92,73,-73,-102
253,180,-73,-217,163,53,53,82,82,63,-82,-107
244,170,-73,-207,158,48,53,82,82,58,-78,-112
229,151,-78,-190,153,36,58,82,82,58,-78,-117
219,141,-78,-180,148,31,63,87,97,58,-78,-117
224,136,-87,-180,156,24,73,92,112,73,-73,-112
229,131,-97,-180,163,17,73,102,112,78,-73,-107
229,126,-102,-178,165,12,73,107,117,78,-78,-102
234,122,-112,-178,173,4,73,107,117,78,-78,-102
219,117,-102,-168,161,7,68,97,102,73,-78,-112
224,112,-112,-168,168,0,63,97,97,68,-78,-117
219,122,-97,-170,158,12,58,97,97,58,-82,-117
229,122,-107,-175,168,7,53,87,92,48,-87,-126
224,146,-78,-185,151,34,63,97,102,68,-73,-126
229,156,-73,-192,151,41,63,97,102,73,-68,-112
234,165,-68,-200,151,48,63,102,102,73,-63,-107
239,185,-53,-212,146,65,63,102,112,78,-63,-107
229,185,-43,-207,136,70,68,102,112,87,-58,-97
229,200,-29,-214,129,85,63,102,112,87,-53,-92
229,204,-24,-217,126,90,63,102,107,87,-39,-87
229,204,-24,-217,126,90,73,97,107,87,-34,-78
219,209,-9,-214,114,100,82,107,122,92,-34,-78
224,209,-14,-217,119,97,82,107,126,102,-29,-73
224,209,-14,-217,119,97,82,102,131,112,-29,-63
224,219,-4,-222,114,107,82,102,136,117,-29,-63
224,234,9,-229,107,122,87,112,146,126,-24,-63
224,234,9,-229,107,122,92,112,146,126,-24,-63
224,234,9,-229,107,122,97,112,146,122,-29,-73
224,234,9,-229,107,122,102,112,141,117,-29,-73
219,239,19,-229,100,129,97,112,141,126,-29,-58
219,244,24,-231,97,134,97,112,141,131,-29,-58
224,258,34,-241,95,146,102,112,141,131,-24,-53
224,263,39,-244,92,151,102,117,141,131,-24,-53
214,253,39,-234,87,146,112,122,151,141,-19,-53
214,253,39,-234,87,146,112,126,161,141,-14,-48
219,258,39,-239,90,148,112,131,165,141,-9,-43
224,268,43,-246,90,156,112,136,170,141,-4,-43
224,273,48,-248,87,161,97,126,161,136,-4,-34
224,278,53,-251,85,165,87,102,156,131,-4,-39
224,273,48,-248,87,161,78,92,146,131,-14,-48
224,273,48,-248,87,161,73,78,141,131,-14,-53
204,258,53,-231,75,156,53,73,131,131,-24,-78
200,258,58,-229,70,158,53,73,131,126,-24,-82
195,244,48,-219,73,146,53,73,131,126,-24,-78
195,253,58,-224,68,156,48,73,131,126,-24,-82
214,268,53,-241,80,161,43,63,122,122,-24,-78
219,273,53,-246,82,163,43,63,117,117,-19,-68
224,278,53,-251,85,165,39,63,112,112,-19,-63
224,278,53,-251,85,165,34,63,107,107,-19,-58
234,278,43,-256,95,161,29,63,112,117,-19,-68
234,278,43,-256,95,161,39,63,117,117,-14,-53
234,278,43,-256,95,161,39,63,122,122,-14,-48
244,287,43,-265,100,165,39,63,126,122,-9,-43
229,278,48,-253,90,163,29,73,136,117,0,-43
214,268,53,-241,80,161,29,73,136,122,0,-48
204,248,43,-226,80,146,29,73,136,126,0,-48
200,239,39,-219,80,139,29,73,136,131,0,-48
204,244,39,-224,82,141,19,78,146,141,0,-39
214,244,29,-229,92,136,29,78,141,141,0,-39
219,244,24,-231,97,134,29,73,141,141,0,-39
219,248,29,-234,95,139,34,73,141,141,0,-39
209,258,48,-234,80,153,43,73,170,180,29,-19
219,258,39,-239,90,148,29,63,175,200,24,-39
195,258,63,-226,65,161,9,48,209,239,39,-58
195,268,73,-231,61,170,9,58,287,356,78,-58
214,283,68,-248,73,175,19,92,336,483,146,-39
214,283,68,-248,73,175,19,73,214,483,224,14
219,283,63,-251,78,173,0,14,-68,317,273,82
224,302,78,-263,73,190,-14,-58,-361,117,351,200
234,302,68,-268,82,185,-19,-136,-634,-78,488,366
239,292,53,-265,92,173,-68,-244,-946,-317,644,580
263,322,58,-292,102,190,-117,-375,-1283,-590,805,785
312,366,53,-339,129,209,-165,-488,-1566,-854,946,1000
366,400,34,-383,165,217,-239,-610,-1810,-1078,1146,1268
400,419,19,-409,190,219,-307,-766,-2078,-1268,1400,1590
434,444,9,-439,212,226,-361,-956,-2327,-1454,1649,1898
463,453,-9,-458,236,222,-419,-1122,-2513,-1615,1839,2161
483,444,-39,-463,261,202,-488,-1268,-2610,-1722,1986,2381
541,444,-97,-492,319,173,-536,-1400,-2679,-1810,2103,2513
590,453,-136,-522,363,158,-580,-1512,-2723,-1878,2152,2547
585,439,-146,-512,366,146,-649,-1590,-2757,-1961,2117,2454
600,434,-165,-517,383,134,-702,-1649,-2806,-2049,2010,2303
619,453,-165,-536,392,143,-736,-1659,-2796,-2078,1869,2103
590,400,-190,-495,390,104,-697,-1556,-2649,-1991,1664,1800
551,248,-302,-400,427,-26,-600,-1371,-2415,-1849,1429,1439
502,136,-366,-319,434,-114,-517,-1229,-2200,-1747,1098,1088
414,87,-326,-251,370,-119,-439,-1156,-2034,-1693,585,697
292,58,-234,-175,263,-87,-375,-1117,-1873,-1668,-58,248
195,43,-151,-119,173,-53,-317,-1029,-1698,-1649,-712,-248
151,24,-126,-87,139,-51,-253,-902,-1512,-1600,-1254,-692
136,0,-136,-68,136,-68,-229,-780,-1327,-1493,-1488,-868
136,4,-131,-70,134,-63,-214,-697,-1176,-1351,-1395,-790
136,29,-107,-82,122,-39,-214,-619,-1044,-1224,-1259,-751
126,29,-97,-78,112,-34,-200,-561,-936,-1122,-1215,-785
92,4,-87,-48,90,-41,-190,-492,-844,-1024,-1156,-785
82,4,-78,-43,80,-36,-161,-419,-741,-912,-1078,-771
102,14,-87,-58,95,-36,-112,-302,-595,-761,-961,-751
112,14,-97,-63,104,-41,-78,-204,-448,-590,-819,-658
107,14,-92,-61,100,-39,-63,-141,-336,-468,-707,-570
122,24,-97,-73,109,-36,-48,-112,-248,-395,-639,-527
131,29,-102,-80,117,-36,-29,-97,-185,-322,-575,-483
117,53,-63,-85,90,-4,-29,-97,-136,-263,-507,-458
122,87,-34,-104,78,26,-4,-73,-97,-204,-468,-453
131,112,-19,-122,75,46,9,-19,-39,-146,-419,-429
126,117,-9,-122,68,53,14,19,0,-82,-366,-400
117,136,19,-126,48,78,19,24,29,-39,-336,-380
112,141,29,-126,41,85,34,53,63,4,-287,-331
112,151,39,-131,36,95,43,73,112,58,-224,-278
126,165,39,-146,43,102,39,78,146,78,-190,-244
136,175,39,-156,48,107,48,78,156,87,-190,-244
122,175,53,-148,34,114,58,82,161,102,-175,-244
117,175,58,-146,29,117,58,92,170,107,-170,-244
117,175,58,-146,29,117,58,107,175,122,-170,-244
117,170,53,-143,31,112,58,117,175,131,-161,-229
122,180,58,-151,31,119,53,112,165,141,-156,-219
126,165,39,-146,43,102,53,102,161,131,-156,-214
141,165,24,-153,58,95,53,92,161,131,-156,-209
136,165,29,-151,53,97,53,87,170,131,-151,-204
126,170,43,-148,41,107,58,92,185,136,-151,-204
122,170,48,-146,36,109,58,97,185,136,-156,-209
122,170,48,-146,36,109,58,107,180,136,-156,-209
131,175,43,-153,43,109,58,117,180,136,-161,-209
141,185,43,-163,48,114,53,107,170,122,-165,-214
156,185,29,-170,63,107,58,102,170,122,-161,-214
151,185,34,-168,58,109,63,97,180,131,-141,-204
156,195,39,-175,58,117,48,87,180,141,-146,-209
151,200,48,-175,51,124,53,92,180,131,-156,-219
151,195,43,-173,53,119,53,97,185,126,-170,-234
151,185,34,-168,58,109,53,102,185,126,-175,-244
151,180,29,-165,61,104,58,112,190,131,-175,-248
146,175,29,-161,58,102,48,107,190,141,-165,-244
141,170,29,-156,56,100,48,117,190,136,-165,-248
126,151,24,-139,51,87,48,117,185,112,-170,-253
122,146,24,-134,48,85,48,107,180,107,-170,-263
136,146,9,-141,63,78,58,117,190,122,-180,-258
141,146,4,-143,68,75,63,122,185,126,-180,-253
146,146,0,-146,73,73,63,122,185,126,-175,-248
151,146,-4,-148,78,70,63,122,190,136,-170,-239
141,156,14,-148,63,85,53,117,190,131,-175,-244
141,156,14,-148,63,85,53,117,190,126,-175,-248
141,151,9,-146,65,80,58,112,185,117,-180,-253
141,151,9,-146,65,80,63,107,180,112,-175,-258
136,161,24,-148,56,92,73,117,180,112,-185,-253
131,161,29,-146,51,95,73,117,180,112,-185,-253
126,161,34,-143,46,97,73,117,185,122,-185,-253
117,156,39,-136,39,97,73,126,185,126,-185,-253
117,141,24,-129,46,82,68,122,195,117,-185,-263
117,136,19,-126,48,78,58,126,200,117,-190,-263
122,146,24,-134,48,85,53,131,204,117,-195,-258
131,146,14,-139,58,80,58,141,214,126,-195,-253
122,136,14,-129,53,75,68,141,219,136,-180,-244
107,146,39,-126,34,92,68,146,219,146,-170,-244
107,156,48,-131,29,102,68,146,229,156,-161,-244
117,170,53,-143,31,112,68,146,239,170,-151,-239
131,180,48,-156,41,114,82,151,253,195,-136,-214
131,180,48,-156,41,114,82,156,258,200,-126,-209
131,180,48,-156,41,114,73,161,263,204,-117,-204
136,195,58,-165,39,126,73,175,273,219,-112,-195
141,200,58,-170,41,129,78,175,287,219,-122,-195
141,204,63,-173,39,134,82,175,287,224,-117,-190
136,209,73,-173,31,141,82,175,302,234,-102,-190
136,224,87,-180,24,156,78,170,302,248,-97,-190
151,234,82,-192,34,158,78,170,307,253,-92,-180
156,234,78,-195,39,156,78,170,322,263,-82,-175
156,234,78,-195,39,156,78,175,336,273,-78,-170
156,229,73,-192,41,151,78,180,341,287,-73,-170
151,239,87,-195,31,163,82,185,361,317,-58,-151
151,244,92,-197,29,168,82,200,375,331,-48,-151
151,253,102,-202,24,178,87,209,385,336,-43,-151
156,263,107,-209,24,185,92,219,395,346,-24,-151
156,273,117,-214,19,195,107,234,419,366,-9,-146
151,273,122,-212,14,197,107,239,429,380,-9,-141
151,273,122,-212,14,197,112,244,439,385,-4,-141
151,273,122,-212,14,197,117,248,448,390,0,-131
146,283,136,-214,4,209,112,248,463,409,19,-112
146,292,146,-219,0,219,112,253,478,429,34,-107
146,292,146,-219,0,219,107,253,483,439,58,-92
151,287,136,-219,7,212,107,248,507,453,73,-78
141,297,156,-219,-7,226,87,229,502,448,82,-92
151,302,151,-226,0,226,78,219,497,448,78,-82
165,312,146,-239,9,229,73,204,492,444,78,-73
156,312,156,-234,0,234,68,195,488,448,82,-68
156,312,156,-234,0,234,43,185,497,444,78,-58
165,322,156,-244,4,239,39,185,497,448,92,-53
165,322,156,-244,4,239,34,195,497,453,102,-53
170,317,146,-244,12,231,29,190,492,458,122,-58
165,317,151,-241,7,234,24,195,507,468,136,-43
165,317,151,-241,7,234,24,200,512,468,151,-24
161,312,151,-236,4,231,24,204,522,468,161,0
161,307,146,-234,7,226,19,209,527,473,165,24
180,297,117,-239,31,207,19,204,517,483,170,24
190,297,107,-244,41,202,19,204,517,483,170,24
204,307,102,-256,51,204,9,204,517,483,185,34
209,312,102,-261,53,207,4,204,517,478,190,39
195,307,112,-251,41,209,4,214,522,488,204,39
185,302,117,-244,34,209,4,214,517,488,214,48
175,302,126,-239,24,214,4,214,512,488,224,53
170,297,126,-234,21,212,4,214,512,478,229,58
180,297,117,-239,31,207,-4,195,497,468,234,68
180,297,117,-239,31,207,-4,195,488,458,234,78
180,302,122,-241,29,212,-9,195,473,458,234,92
190,317,126,-253,31,222,-14,185,463,448,234,97
209,302,92,-256,58,197,-19,180,453,429,224,107
209,302,92,-256,58,197,-19,175,448,419,224,107
209,297,87,-253,61,192,-19,170,434,414,224,107
195,283,87,-239,53,185,-14,165,424,405,224,117
180,278,97,-229,41,187,-24,161,405,380,224,117
180,278,97,-229,41,187,-24,146,385,366,219,112
180,278,97,-229,41,187,-19,146,370,361,209,112
180,273,92,-226,43,183,-19,136,346,341,190,97
175,273,97,-224,39,185,-19,146,336,322,185,73
180,268,87,-224,46,178,-19,136,312,312,170,73
185,263,78,-224,53,170,-19,126,292,287,156,58
185,263,78,-224,53,170,-14,122,283,278,146,48
170,258,87,-214,41,173,-14,122,263,273,131,48
165,248,82,-207,41,165,-14,117,248,248,117,39
161,229,68,-195,46,148,-14,107,234,229,102,29
151,219,68,-185,41,143,-24,97,219,214,97,19
151,224,73,-187,39,148,-24,97,200,204,73,4
141,224,82,-183,29,153,-24,97,190,190,68,-4
156,224,68,-190,43,146,-24,92,185,175,53,-14
146,229,82,-187,31,156,-24,87,175,165,43,-24
156,239,82,-197,36,161,-19,87,185,175,48,-9
151,239,87,-195,31,163,-19,82,170,170,48,-4
146,224,78,-185,34,151,-14,78,161,156,48,-9
146,224,78,-185,34,151,-14,73,151,146,43,-19
136,219,82,-178,26,151,-19,78,131,141,43,-29
136,219,82,-178,26,151,-19,78,126,136,29,-29
136,214,78,-175,29,146,-14,78,122,126,29,-29
131,209,78,-170,26,143,-14,78,122,122,24,-39
136,214,78,-175,29,146,-24,68,97,112,4,-48
141,214,73,-178,34,143,-19,63,97,102,-4,-58
146,204,58,-175,43,131,-4,63,102,92,-9,-63
136,195,58,-165,39,126,-4,58,102,87,-14,-73
141,195,53,-168,43,124,-14,58,97,78,-24,-73
136,209,73,-173,31,141,-14,58,97,78,-24,-63
136,214,78,-175,29,146,-14,53,97,78,-24,-63
136,214,78,-175,29,146,-14,53,92,78,-29,-63
146,224,78,-185,34,151,-14,48,92,68,-34,-58
146,219,73,-183,36,146,-14,48,92,68,-34,-58
131,219,87,-175,21,153,-19,48,82,63,-34,-58
141,219,78,-180,31,148,-19,48,82,58,-29,-58
136,209,73,-173,31,141,-14,53,82,53,-39,-58
126,219,92,-173,17,156,-14,53,78,53,-48,-68
122,204,82,-163,19,143,-9,53,73,48,-48,-68
122,204,82,-163,19,143,-9,58,73,48,-48,-73
131,204,73,-168,29,139,-9,58,68,48,-53,-87
131,214,82,-173,24,148,-14,58,68,48,-63,-87
126,214,87,-170,19,151,-14,58,73,53,-63,-87
117,200,82,-158,17,141,-19,58,73,48,-68,-87
131,204,73,-168,29,139,-19,63,73,39,-68,-73
136,224,87,-180,24,156,-14,63,68,48,-63,-73
146,239,92,-192,26,165,-4,63,63,48,-53,-78
151,229,78,-190,36,153,0,63,63,53,-53,-78
131,200,68,-165,31,134,0,78,68,53,-63,-73
126,200,73,-163,26,136,-4,78,78,53,-63,-73
131,219,87,-175,21,153,-4,78,82,53,-73,-87
141,219,78,-180,31,148,0,78,82,53,-73,-78
117,209,92,-163,12,151,0,78,92,63,-68,-73
112,204,92,-158,9,148,0,78,92,58,-58,-78
112,200,87,-156,12,143,0,78,92,58,-53,-73
112,195,82,-153,14,139,0,78,92,63,-48,-68
122,185,63,-153,29,124,-9,63,87,53,-53,-73
122,185,63,-153,29,124,-9,63,87,53,-58,-78
122,185,63,-153,29,124,-4,73,92,58,-58,-78
122,195,73,-158,24,134,-4,73,97,58,-63,-82
136,209,73,-173,31,141,0,73,87,63,-68,-82
146,209,63,-178,41,136,0,82,92,63,-68,-82
146,204,58,-175,43,131,0,78,97,68,-68,-78
141,195,53,-168,43,124,0,68,107,58,-73,-92
136,195,58,-165,39,126,0,68,107,58,-78,-97
131,195,63,-163,34,129,0,68,107,58,-82,-102
126,195,68,-161,29,131,0,68,107,58,-87,-107
112,175,63,-143,24,119,9,78,107,68,-82,-97
97,165,68,-131,14,117,9,78,107,68,-82,-97
92,151,58,-122,17,104,9,82,107,68,-82,-97
87,136,48,-112,19,92,9,82,107,68,-82,-97
107,141,34,-124,36,87,14,82,102,63,-92,-97
107,136,29,-122,39,82,19,82,102,68,-92,-97
97,151,53,-124,21,102,19,82,107,68,-92,-97
92,170,78,-131,7,124,19,87,112,78,-92,-92
102,161,58,-131,21,109,19,78,112,82,-102,-92
117,161,43,-139,36,102,19,78,112,87,-92,-92
122,165,43,-143,39,104,29,78,112,92,-78,-82
122,165,43,-143,39,104,29,78,112,92,-73,-82
107,161,53,-134,26,107,24,92,112,97,-63,-87
107,161,53,-134,26,107,14,92,117,102,-73,-87
107,156,48,-131,29,102,9,92,122,102,-78,-82
107,151,43,-129,31,97,4,97,136,107,-78,-78
112,156,43,-134,34,100,9,92,141,126,-63,-58
117,151,34,-134,41,92,19,92,141,126,-53,-58
122,146,24,-134,48,85,24,97,131,126,-43,-53
126,151,24,-139,51,87,29,97,131,126,-39,-53
112,165,53,-139,29,109,14,92,136,136,-34,-68
112,175,63,-143,24,119,14,92,141,141,-34,-68
117,185,68,-151,24,126,14,92,146,151,-34,-63
126,190,63,-158,31,126,14,92,151,151,-34,-63
126,200,73,-163,26,136,14,92,156,161,-19,-63
122,190,68,-156,26,129,19,92,161,165,-19,-63
122,190,68,-156,26,129,24,97,180,170,-19,-58
122,190,68,-156,26,129,24,97,200,180,-14,-58
112,190,78,-151,17,134,24,102,190,195,-4,-48
107,190,82,-148,12,136,24,102,195,195,0,-39
107,190,82,-148,12,136,24,97,195,195,9,-34
97,190,92,-143,2,141,24,97,195,200,24,-24
117,200,82,-158,17,141,34,107,204,214,34,-9
117,224,107,-170,4,165,34,107,209,214,39,0
131,239,107,-185,12,173,34,97,209,214,43,0
122,253,131,-187,-4,192,34,97,219,224,63,0
122,248,126,-185,-2,187,43,107,224,239,78,24
122,244,122,-183,0,183,53,122,229,239,82,29
122,248,126,-185,-2,187,63,131,244,244,82,29
122,244,122,-183,0,183,68,141,239,244,82,24
122,253,131,-187,-4,192,53,141,248,244,73,24
122,253,131,-187,-4,192,53,141,244,244,82,24
122,248,126,-185,-2,187,63,136,244,244,82,29
122,239,117,-180,2,178,63,136,244,244,82,29
117,244,126,-180,-4,185,58,126,239,244,97,34
117,248,131,-183,-7,190,53,112,234,244,97,43
117,263,146,-190,-14,204,48,102,229,239,97,43
117,283,165,-200,-24,224,43,92,224,234,102,43
112,263,151,-187,-19,207,34,82,214,229,87,34
107,253,146,-180,-19,200,24,73,204,219,78,24
102,244,141,-173,-19,192,14,63,190,209,73,24
92,224,131,-158,-19,178,0,53,180,204,68,29
97,229,131,-163,-17,180,-9,43,175,200,68,29
107,244,136,-175,-14,190,-4,43,170,200,73,34
112,248,136,-180,-12,192,-4,48,165,200,73,34
107,253,146,-180,-19,200,-4,48,165,200,73,34
117,244,126,-180,-4,185,4,58,161,190,63,34
122,248,126,-185,-2,187,4,58,161,190,63,34
126,258,131,-192,-2,195,4,58,161,190,63,29
126,248,122,-187,2,185,-4,58,161,185,63,24
117,239,122,-178,-2,180,-9,53,156,170,53,19
117,229,112,-173,2,170,-14,53,146,170,43,9
117,224,107,-170,4,165,-14,48,141,170,43,4
107,219,112,-163,-2,165,-24,43,131,161,34,-4
112,219,107,-165,2,163,-24,43,136,165,34,4
107,204,97,-156,4,151,-24,43,141,165,34,14
107,214,107,-161,0,161,-29,43,146,165,34,14
122,214,92,-168,14,153,-29,43,146,165,34,14
107,209,102,-158,2,156,-14,43,136,156,29,14
102,204,102,-153,0,153,-14,43,136,156,29,9
92,195,102,-143,-4,148,-14,43,136,156,29,4
87,190,102,-139,-7,146,-29,43,136,156,24,-14
78,190,112,-134,-17,151,-29,43,126,141,14,4
78,190,112,-134,-17,151,-29,43,126,141,9,4
87,200,112,-143,-12,156,-29,43,126,136,9,4
87,200,112,-143,-12,156,-29,43,126,122,9,4
82,209,126,-146,-21,168,-29,34,117,122,9,0
82,200,117,-141,-17,158,-29,34,117,122,9,0
87,200,112,-143,-12,156,-29,34,117,122,9,0
92,200,107,-146,-7,153,-29,39,117,122,9,0
87,204,117,-146,-14,161,-9,43,112,122,9,-9
87,200,112,-143,-12,156,-9,43,112,122,9,-9
82,200,117,-141,-17,158,-4,48,112,122,9,-9
82,200,117,-141,-17,158,-4,53,112,122,9,-9
73,170,97,-122,-12,134,-39,34,97,122,-14,-19
87,190,102,-139,-7,146,-29,29,122,131,0,-19
97,209,112,-153,-7,161,-19,29,161,170,19,-9
97,214,117,-156,-9,165,-19,34,219,239,48,-9
107,234,126,-170,-9,180,-9,63,322,366,107,4
92,234,141,-163,-24,187,0,82,341,444,175,43
78,214,136,-146,-29,175,-14,48,165,390,234,112
87,204,117,-146,-14,161,-48,-29,-136,244,292,209
102,224,122,-163,-9,173,-68,-107,-419,63,390,366
136,244,107,-190,14,175,-87,-190,-707,-131,551,580
175,268,92,-222,41,180,-117,-292,-1019,-356,722,795
200,283,82,-241,58,183,-141,-405,-1322,-600,873,1015
234,292,58,-263,87,175,-180,-502,-1581,-849,1019,1259
268,287,19,-278,124,153,-253,-644,-1849,-1073,1220,1537
297,307,9,-302,143,158,-341,-858,-2161,-1312,1420,1830
346,346,0,-346,173,173,-400,-1083,-2435,-1546,1586,2098
405,385,-19,-395,212,183,-478,-1263,-2581,-1683,1742,2327
444,385,-58,-414,251,163,-551,-1415,-2664,-1771,1830,2459
458,361,-97,-409,278,131,-610,-1561,-2727,-1854,1854,2425
463,366,-97,-414,280,134,-663,-1668,-2776,-1942,1805,2274
463,366,-97,-414,280,134,-736,-1727,-2825,-2039,1693,2074
463,351,-112,-407,287,119,-766,-1742,-2825,-2098,1566,1849
463,287,-175,-375,319,56,-736,-1644,-2708,-2034,1400,1546
434,156,-278,-295,356,-61,-644,-1454,-2513,-1932,1156,1166
375,48,-326,-212,351,-139,-566,-1312,-2327,-1869,800,785
273,19,-253,-146,263,-117,-473,-1224,-2147,-1815,322,424
165,4,-161,-85,163,-78,-385,-1166,-1952,-1756,-234,34
73,-24,-97,-24,85,-61,-322,-1107,-1776,-1708,-805,-380
-19,-58,-39,39,9,-48,-268,-985,-1590,-1659,-1312,-732
-48,-82,-34,65,-7,-58,-224,-854,-1420,-1566,-1522,-868
-29,-78,-48,53,9,-63,-214,-766,-1268,-1420,-1444,-839
-19,-78,-58,48,19,-68,-219,-707,-1141,-1288,-1312,-814
-4,-63,-58,34,26,-61,-209,-629,-1029,-1180,-1254,-824
4,-34,-39,14,21,-36,-190,-546,-927,-1068,-1195,-790
14,-4,-19,-4,17,-12,-161,-458,-790,-927,-1078,-722
24,-4,-29,-9,26,-17,-136,-351,-634,-766,-927,-658
0,-24,-24,12,12,-24,-102,-258,-483,-634,-795,-590
-34,-53,-19,43,-7,-36,-78,-200,-375,-531,-707,-546
-24,-39,-14,31,-4,-26,-58,-165,-302,-448,-634,-512
9,4,-4,-7,7,0,-39,-146,-234,-361,-556,-458
4,19,14,-12,-4,17,-43,-112,-165,-273,-488,-405
-4,24,29,-9,-17,26,-39,-78,-97,-185,-429,-370
9,39,29,-24,-9,34,-4,-29,-29,-112,-366,-322
19,39,19,-29,0,29,9,4,19,-48,-297,-273
4,53,48,-29,-21,51,4,24,53,-14,-248,-234
14,53,39,-34,-12,46,14,34,73,0,-214,-229
29,68,39,-48,-4,53,29,39,78,9,-190,-224
29,78,48,-53,-9,63,39,29,78,9,-200,-224
19,87,68,-53,-24,78,29,34,97,29,-185,-214
19,87,68,-53,-24,78,29,43,112,39,-180,-204
24,87,63,-56,-19,75,29,58,122,58,-180,-195
29,82,53,-56,-12,68,29,68,126,73,-170,-170
29,87,58,-58,-14,73,24,68,126,78,-165,-175
29,78,48,-53,-9,63,24,63,122,63,-165,-175
39,82,43,-61,-2,63,24,58,122,58,-165,-175
29,87,58,-58,-14,73,24,58,131,53,-161,-175
29,73,43,-51,-7,58,39,58,126,68,-170,-185
24,73,48,-48,-12,61,39,58,126,68,-175,-190
24,73,48,-48,-12,61,39,63,122,68,-175,-190
34,78,43,-56,-4,61,39,68,122,68,-180,-190
29,73,43,-51,-7,58,29,73,131,58,-170,-185
39,68,29,-53,4,48,39,73,131,63,-161,-175
29,63,34,-46,-2,48,48,73,141,78,-136,-156
29,68,39,-48,-4,53,39,68,141,92,-136,-151
39,78,39,-58,0,58,34,58,126,68,-151,-161
43,78,34,-61,4,56,34,58,126,58,-170,-175
48,73,24,-61,12,48,34,58,122,53,-180,-185
53,73,19,-63,17,46,39,63,122,53,-185,-190
58,92,34,-75,12,63,29,68,136,68,-170,-170
53,92,39,-73,7,65,29,78,141,68,-165,-170
39,78,39,-58,0,58,29,78,141,48,-165,-170
34,78,43,-56,-4,61,29,68,141,48,-161,-175
34,97,63,-65,-14,80,34,78,151,58,-151,-170
34,97,63,-65,-14,80,43,82,146,68,-151,-165
34,97,63,-65,-14,80,48,82,146,73,-146,-161
34,97,63,-65,-14,80,53,82,151,87,-141,-151
39,112,73,-75,-17,92,63,82,165,97,-131,-146
43,117,73,-80,-14,95,63,87,170,97,-126,-151
48,117,68,-82,-9,92,68,87,170,92,-126,-156
53,122,68,-87,-7,95,73,87,170,92,-117,-161
48,126,78,-87,-14,102,63,87,175,97,-112,-141
43,131,87,-87,-21,109,63,87,180,102,-107,-136
39,136,97,-87,-29,117,63,87,190,117,-102,-131
29,136,107,-82,-39,122,63,97,195,126,-97,-126
29,126,97,-78,-34,112,53,82,185,136,-92,-117
29,126,97,-78,-34,112,48,78,190,136,-92,-117
34,141,107,-87,-36,124,48,73,195,136,-92,-112
43,146,102,-95,-29,124,58,73,204,146,-87,-107
58,161,102,-109,-21,131,63,87,219,151,-68,-87
48,175,126,-112,-39,151,68,97,219,156,-63,-87
53,190,136,-122,-41,163,73,102,229,161,-58,-87
68,209,141,-139,-36,175,78,107,239,170,-53,-82
68,195,126,-131,-29,161,92,117,248,180,-53,-78
63,190,126,-126,-31,158,92,117,248,180,-48,-82
58,185,126,-122,-34,156,82,117,248,180,-43,-87
58,195,136,-126,-39,165,82,126,253,190,-43,-87
58,200,141,-129,-41,170,82,117,268,200,-39,-73
53,204,151,-129,-48,178,82,117,268,204,-29,-63
43,209,165,-126,-61,187,78,117,283,214,-9,-58
39,224,185,-131,-73,204,68,112,283,229,0,-53
43,234,190,-139,-73,212,53,97,278,219,-9,-53
48,234,185,-141,-68,209,48,92,283,224,-4,-48
48,234,185,-141,-68,209,43,92,287,229,-4,-43
48,229,180,-139,-65,204,39,92,283,239,-4,-43
39,214,175,-126,-68,195,34,78,287,239,4,-39
34,204,170,-119,-68,187,24,82,287,244,9,-43
29,200,170,-114,-70,185,19,82,283,239,9,-48
29,195,165,-112,-68,180,14,82,278,239,24,-53
48,204,156,-126,-53,180,24,78,302,253,43,-34
53,204,151,-129,-48,178,19,82,312,273,48,-24
63,204,141,-134,-39,173,19,87,322,283,58,-19
73,204,131,-139,-29,168,19,92,331,292,68,-4
78,209,131,-143,-26,170,4,107,331,297,82,9
78,214,136,-146,-29,175,4,117,341,312,92,9
78,209,131,-143,-26,170,0,122,341,317,112,19
82,200,117,-141,-17,158,0,122,361,326,122,29
73,190,117,-131,-21,153,4,117,380,331,146,34
82,195,112,-139,-14,153,0,122,380,341,146,53
97,204,107,-151,-4,156,0,122,380,346,151,73
87,204,117,-146,-14,161,0,126,380,361,161,87
78,185,107,-131,-14,146,0,122,405,366,170,92
87,195,107,-141,-9,151,0,126,409,370,190,102
87,195,107,-141,-9,151,0,141,414,375,204,107
92,190,97,-141,-2,143,0,141,414,380,229,107
92,180,87,-136,2,134,-14,151,419,390,239,112
87,180,92,-134,-2,136,-14,151,424,390,248,122
78,175,97,-126,-9,136,-14,151,434,390,253,136
73,170,97,-122,-12,134,-19,151,439,395,253,151
68,180,112,-124,-21,146,-9,151,429,395,258,151
73,180,107,-126,-17,143,-9,146,429,395,258,151
82,190,107,-136,-12,148,-19,141,429,395,273,161
82,195,112,-139,-14,153,-24,136,429,390,278,165
92,204,112,-148,-9,158,-19,146,424,380,283,165
97,204,107,-151,-4,156,-14,146,419,380,283,175
102,209,107,-156,-2,158,-9,146,414,380,283,180
112,209,97,-161,7,153,-4,146,414,370,278,185
102,204,102,-153,0,153,-19,126,419,370,273,180
102,200,97,-151,2,148,-24,126,409,361,273,185
102,200,97,-151,2,148,-34,126,395,361,273,195
112,209,97,-161,7,153,-43,117,385,351,273,195
112,200,87,-156,12,143,-39,122,375,331,268,185
112,204,92,-158,9,148,-39,117,370,322,263,185
112,204,92,-158,9,148,-39,112,356,317,258,185
97,195,97,-146,0,146,-34,107,346,307,253,195
102,190,87,-146,7,139,-34,112,331,292,239,180
102,190,87,-146,7,139,-34,97,317,278,229,170
102,190,87,-146,7,139,-29,97,307,273,214,165
102,185,82,-143,9,134,-29,87,287,253,190,146
82,165,82,-124,0,124,-19,97,278,244,165,122
82,161,78,-122,2,119,-19,87,253,234,151,122
82,156,73,-119,4,114,-19,78,234,209,136,107
78,156,78,-117,0,117,-14,73,224,200,126,97
68,170,102,-119,-17,136,-4,78,224,200,112,82
68,170,102,-119,-17,136,-4,78,209,180,97,68
68,161,92,-114,-12,126,-4,73,195,165,82,53
63,161,97,-112,-17,129,-14,68,180,156,78,39
53,151,97,-102,-21,124,-14,58,161,146,58,24
43,146,102,-95,-29,124,-14,58,151,131,48,14
58,141,82,-100,-12,112,-14,53,146,117,29,4
48,141,92,-95,-21,117,-14,48,136,107,14,-4
58,141,82,-100,-12,112,0,58,136,107,14,4
53,141,87,-97,-17,114,0,53,122,102,9,4
48,126,78,-87,-14,102,4,48,112,87,4,-4
48,126,78,-87,-14,102,4,43,102,78,-4,-19
43,136,92,-90,-24,114,-9,29,102,73,-9,-24
39,141,102,-90,-31,122,-9,29,97,68,-29,-29
34,141,107,-87,-36,124,-4,29,92,58,-34,-34
24,141,117,-82,-46,129,-4,29,92,53,-43,-48
34,126,92,-80,-29,109,4,29,87,53,-43,-48
34,126,92,-80,-29,109,9,34,87,53,-43,-48
34,117,82,-75,-24,100,24,43,92,53,-39,-43
19,107,87,-63,-34,97,24,48,92,58,-34,-43
14,92,78,-53,-31,85,14,48,87,58,-43,-53
9,102,92,-56,-41,97,14,48,87,58,-43,-43
9,102,92,-56,-41,97,14,43,87,58,-43,-43
9,97,87,-53,-39,92,14,43,82,58,-48,-43
19,102,82,-61,-31,92,14,39,82,39,-63,-58
19,92,73,-56,-26,82,14,39,82,39,-63,-58
4,87,82,-46,-39,85,9,39,73,34,-63,-58
14,82,68,-48,-26,75,9,39,73,29,-58,-58
19,87,68,-53,-24,78,24,43,78,39,-48,-53
19,102,82,-61,-31,92,24,43,78,43,-58,-58
24,92,68,-58,-21,80,29,43,78,43,-58,-53
34,97,63,-65,-14,80,29,48,82,48,-58,-53
34,107,73,-70,-19,90,39,58,78,53,-53,-58
34,117,82,-75,-24,100,34,58,78,48,-63,-58
29,117,87,-73,-29,102,34,58,82,48,-63,-58
19,102,82,-61,-31,92,29,58,82,39,-68,-58
19,78,58,-48,-19,68,34,53,78,29,-78,-63
19,87,68,-53,-24,78,34,53,78,39,-73,-63
24,92,68,-58,-21,80,39,53,78,39,-63,-68
24,73,48,-48,-12,61,39,53,82,43,-63,-68
4,43,39,-24,-17,41,39,58,73,34,-68,-63
0,43,43,-21,-21,43,34,58,78,34,-73,-63
4,63,58,-34,-26,61,34,58,78,34,-87,-78
14,63,48,-39,-17,56,39,58,73,34,-92,-68
9,58,48,-34,-19,53,48,48,73,24,-92,-78
4,58,53,-31,-24,56,48,48,73,19,-87,-87
4,58,53,-31,-24,56,48,48,73,19,-87,-87
4,58,53,-31,-24,56,48,48,73,24,-87,-87
0,53,53,-26,-26,53,48,53,73,14,-92,-87
-4,48,53,-21,-29,51,48,53,68,14,-97,-87
-9,43,53,-17,-31,48,53,63,68,19,-97,-82
-14,48,63,-17,-39,56,53,63,68,19,-102,-82
-19,24,43,-2,-31,34,58,63,78,14,-97,-92
-19,14,34,2,-26,24,58,63,73,14,-97,-92
-19,24,43,-2,-31,34,48,68,73,14,-97,-92
-19,24,43,-2,-31,34,48,68,73,14,-97,-92
-4,34,39,-14,-21,36,48,58,73,4,-107,-92
0,34,34,-17,-17,34,43,63,73,9,-107,-92
9,34,24,-21,-7,29,39,63,68,14,-107,-87
14,34,19,-24,-2,26,39,63,63,14,-107,-87
4,39,34,-21,-14,36,43,63,78,29,-102,-78
4,43,39,-24,-17,41,43,63,82,34,-92,-73
4,63,58,-34,-26,61,48,68,87,39,-78,-63
4,68,63,-36,-29,65,53,68,92,43,-68,-63
9,78,68,-43,-29,73,53,68,82,34,-58,-63
14,63,48,-39,-17,56,53,63,87,43,-58,-63
19,63,43,-41,-12,53,53,63,92,48,-58,-63
29,68,39,-48,-4,53,53,73,92,48,-58,-63
14,87,73,-51,-29,80,53,73,102,58,-43,-48
9,97,87,-53,-39,92,63,78,112,73,-29,-39
0,97,97,-48,-48,97,53,78,117,82,-19,-34
-4,92,97,-43,-51,95,53,78,117,87,-14,-29
9,87,78,-48,-34,82,53,87,126,87,-9,-19
9,92,82,-51,-36,87,58,87,126,102,-9,-14
14,97,82,-56,-34,90,63,78,126,102,-9,-9
14,112,97,-63,-41,104,68,73,126,102,0,-9
24,117,92,-70,-34,104,78,78,131,102,9,-19
24,122,97,-73,-36,109,82,87,136,102,9,-14
24,126,102,-75,-39,114,78,107,141,112,24,-4
24,146,122,-85,-48,134,82,112,146,112,29,0
19,136,117,-78,-48,126,92,107,151,102,24,4
14,146,131,-80,-58,139,87,107,156,107,29,9
14,156,141,-85,-63,148,87,112,161,117,29,14
14,161,146,-87,-65,153,97,112,161,126,29,19
24,170,146,-97,-61,158,87,97,141,122,29,14
14,161,146,-87,-65,153,78,78,136,122,39,14
14,161,146,-87,-65,153,68,68,136,122,43,14
24,185,161,-104,-68,173,68,58,141,126,48,14
19,180,161,-100,-70,170,53,43,136,122,39,14
24,180,156,-102,-65,168,48,39,126,117,39,19
4,165,161,-85,-78,163,39,34,107,107,34,14
-4,151,156,-73,-80,153,34,34,97,97,29,9
-9,156,165,-73,-87,161,19,29,82,92,19,14
-4,151,156,-73,-80,153,19,24,82,92,19,9
0,146,146,-73,-73,146,14,19,78,87,14,4
0,136,136,-68,-68,136,-4,14,73,82,9,4
9,146,136,-78,-63,141,19,29,87,92,24,19
9,146,136,-78,-63,141,34,34,102,97,29,19
9,146,136,-78,-63,141,34,34,107,97,29,19
9,146,136,-78,-63,141,34,34,107,97,34,14
4,141,136,-73,-65,139,24,39,112,92,24,14
9,141,131,-75,-61,136,14,39,107,92,19,14
9,136,126,-73,-58,131,4,39,102,92,14,14
4,131,126,-68,-61,129,4,24,97,87,9,9
4,126,122,-65,-58,124,4,24,102,92,19,14
4,112,107,-58,-51,109,4,24,97,87,19,9
4,97,92,-51,-43,95,4,24,92,82,19,4
4,97,92,-51,-43,95,14,19,87,73,9,4
19,112,92,-65,-36,102,19,19,92,78,0,4
19,112,92,-65,-36,102,14,24,87,78,0,4
19,112,92,-65,-36,102,9,29,87,78,0,4
19,112,92,-65,-36,102,9,39,82,73,-9,0
29,102,73,-65,-21,87,24,39,82,73,0,-9
29,102,73,-65,-21,87,24,39,87,73,0,-4
24,92,68,-58,-21,80,24,39,87,73,-4,-4
24,87,63,-56,-19,75,24,39,82,68,-9,-4
19,87,68,-53,-24,78,19,39,82,63,-4,-14
19,82,63,-51,-21,73,14,24,73,53,-9,-19
19,68,48,-43,-14,58,19,19,68,39,-19,-19
9,58,48,-34,-19,53,19,19,58,39,-29,-29
9,58,48,-34,-19,53,19,19,58,39,-29,-29
9,58,48,-34,-19,53,19,19,58,39,-29,-29
9,58,48,-34,-19,53,19,19,58,39,-29,-29
4,53,48,-29,-21,51,19,19,68,39,-39,-29
0,48,48,-24,-24,48,19,19,68,39,-39,-29
-4,43,48,-19,-26,46,19,19,68,39,-39,-29
-9,39,48,-14,-29,43,19,19,68,39,-39,-29
0,48,48,-24,-24,48,19,29,58,39,-29,-39
0,48,48,-24,-24,48,19,29,58,39,-29,-39
0,48,48,-24,-24,48,19,29,58,39,-29,-39
0,48,48,-24,-24,48,19,29,58,39,-29,-39
9,48,39,-29,-14,43,19,29,58,29,-39,-39
9,48,39,-29,-14,43,19,29,58,29,-39,-39
9,48,39,-29,-14,43,19,29,58,29,-39,-39
9,48,39,-29,-14,43,19,29,58,29,-39,-39
0,39,39,-19,-19,39,19,29,68,29,-39,-39
0,39,39,-19,-19,39,19,29,68,29,-39,-39
0,39,39,-19,-19,39,19,29,68,29,-39,-39
0,39,39,-19,-19,39,19,29,68,29,-39,-39
-4,34,39,-14,-21,36,29,29,63,19,-43,-48
-9,29,39,-9,-24,34,29,29,58,19,-48,-48
-14,24,39,-4,-26,31,29,29,53,19,-53,-48
-19,19,39,0,-29,29,29,29,48,19,-58,-48
-4,29,34,-12,-19,31,19,29,58,19,-58,-58
0,29,29,-14,-14,29,19,29,58,19,-58,-58
4,29,24,-17,-9,26,19,29,58,19,-58,-58
9,29,19,-19,-4,24,19,29,58,19,-58,-58
9,19,9,-14,0,14,29,29,48,19,-58,-68
9,19,9,-14,0,14,29,29,48,19,-58,-68
9,19,9,-14,0,14,29,29,48,19,-58,-68
9,19,9,-14,0,14,29,29,48,19,-58,-68
9,29,19,-19,-4,24,19,29,58,19,-58,-68
9,29,19,-19,-4,24,19,29,58,19,-58,-68
9,29,19,-19,-4,24,19,29,58,19,-58,-68
9,29,19,-19,-4,24,19,29,58,19,-58,-68
9,29,19,-19,-4,24,24,39,68,29,-48,-58
9,29,19,-19,-4,24,29,39,68,29,-48,-58
9,29,19,-19,-4,24,34,39,68,29,-48,-58
9,29,19,-19,-4,24,39,39,68,29,-48,-58
19,29,9,-24,4,19,39,39,68,19,-58,-68
19,24,4,-21,7,14,39,39,68,19,-63,-68
9,19,9,-14,0,14,39,39,68,19,-63,-68
9,9,0,-9,4,4,39,43,68,19,-63,-68
0,4,4,-2,-2,4,39,43,68,19,-63,-68
9,9,0,-9,4,4,43,43,73,24,-63,-68
9,4,-4,-7,7,0,48,43,73,29,-63,-68
0,19,19,-9,-9,19,48,43,78,29,-63,-68
0,24,24,-12,-12,24,48,39,78,34,-73,-73
4,14,9,-9,-2,12,48,39,73,29,-73,-73
24,4,-19,-14,21,-7,48,39,68,24,-63,-73
34,0,-34,-17,34,-17,58,39,63,19,-48,-63
43,0,-43,-21,43,-21,58,29,73,14,-48,-68
39,0,-39,-19,39,-19,58,34,68,14,-53,-82
39,4,-34,-21,36,-14,53,34,68,14,-68,-92
39,4,-34,-21,36,-14,53,34,68,9,-78,-97
29,-9,-39,-9,34,-24,43,29,73,0,-68,-87
29,-14,-43,-7,36,-29,43,34,73,9,-68,-78
29,-29,-58,0,43,-43,48,34,68,9,-63,-78
29,-43,-73,7,51,-58,48,39,53,9,-58,-73
24,-48,-73,12,48,-61,48,39,53,4,-63,-82
14,-48,-63,17,39,-56,43,34,53,0,-73,-87
9,-43,-53,17,31,-48,43,34,53,0,-78,-87
9,-39,-48,14,29,-43,43,34,53,4,-82,-82
19,-39,-58,9,39,-48,43,43,43,-4,-92,-92
19,-43,-63,12,41,-53,43,43,43,-9,-87,-92
14,-58,-73,21,43,-65,48,43,43,-9,-87,-92
14,-63,-78,24,46,-70,53,48,58,-9,-87,-87
24,-73,-97,24,61,-85,43,39,58,-9,-87,-92
24,-73,-97,24,61,-85,43,43,53,-9,-92,-97
19,-73,-92,26,56,-82,43,43,53,-14,-102,-102
19,-73,-92,26,56,-82,43,39,48,-19,-107,-112
0,-78,-78,39,39,-78,43,48,39,-24,-102,-122
9,-82,-92,36,51,-87,43,48,39,-19,-97,-117
9,-73,-82,31,46,-78,43,48,43,-19,-97,-107
24,-73,-97,24,61,-85,43,39,43,-19,-97,-107
14,-68,-82,26,48,-75,53,48,53,-19,-87,-117
14,-68,-82,26,48,-75,53,48,53,-14,-87,-102
14,-68,-82,26,48,-75,53,53,53,-14,-87,-97
14,-58,-73,21,43,-65,53,53,63,-9,-92,-97
14,-48,-63,17,39,-56,58,53,68,-4,-87,-97
14,-34,-48,9,31,-41,53,53,73,0,-82,-92
14,-29,-43,7,29,-36,53,53,73,4,-68,-87
14,-29,-43,7,29,-36,63,48,78,9,-63,-78
19,-24,-43,2,31,-34,63,58,87,9,-63,-78
29,-24,-53,-2,41,-39,63,58,87,14,-58,-73
34,-24,-58,-4,46,-41,63,53,87,19,-58,-63
39,-14,-53,-12,46,-34,63,53,87,19,-58,-63
48,9,-39,-29,43,-14,73,43,87,24,-53,-63
48,9,-39,-29,43,-14,73,43,87,29,-53,-63
48,9,-39,-29,43,-14,73,43,87,29,-58,-73
48,9,-39,-29,43,-14,73,43,82,29,-58,-73
39,9,-29,-24,34,-9,82,58,87,34,-53,-63
34,9,-24,-21,29,-7,87,63,92,43,-48,-58
34,19,-14,-26,24,2,97,68,97,48,-39,-48
29,19,-9,-24,19,4,102,78,102,53,-34,-43
29,24,-4,-26,17,9,107,87,117,53,-34,-53
29,29,0,-29,14,14,112,87,122,53,-34,-48
34,39,4,-36,14,21,117,87,122,53,-34,-43
39,53,14,-46,12,34,122,87,122,53,-34,-43
29,58,29,-43,0,43,97,82,122,53,-29,-39
29,63,34,-46,-2,48,87,63,117,53,-24,-39
29,58,29,-43,0,43,78,58,107,58,-29,-43
29,58,29,-43,0,43,73,48,102,63,-24,-43
19,43,24,-31,-2,34,58,34,82,43,-43,-53
14,43,29,-29,-7,36,53,34,82,39,-43,-53
9,29,19,-19,-4,24,48,34,82,39,-43,-43
9,39,29,-24,-9,34,39,34,82,39,-43,-43
24,39,14,-31,4,26,29,29,68,39,-43,-53
24,39,14,-31,4,26,34,24,68,39,-39,-48
24,39,14,-31,4,26,34,19,68,39,-39,-48
19,34,14,-26,2,24,34,14,68,39,-39,-48
14,29,14,-21,0,21,19,14,78,39,-34,-53
9,24,14,-17,-2,19,29,14,78,39,-34,-43
4,19,14,-12,-4,17,29,14,78,43,-39,-43
9,24,14,-17,-2,19,29,14,78,43,-39,-43
9,14,4,-12,2,9,19,24,78,43,-29,-39
0,14,14,-7,-7,14,19,24,78,43,-29,-39
-4,4,9,0,-7,7,19,24,78,43,-29,-34
-4,4,9,0,-7,7,19,24,78,43,-29,-29
4,14,9,-9,-2,12,19,29,87,43,-19,-19
9,9,0,-9,4,4,29,29,82,43,-19,-19
9,4,-4,-7,7,0,29,24,82,43,-19,-19
4,4,0,-4,2,2,34,24,82,43,-19,-19
4,4,0,-4,2,2,14,34,82,53,-9,-19
14,-4,-19,-4,17,-12,9,34,87,53,-4,-39
0,-24,-24,12,12,-24,9,19,92,63,-9,-39
-19,-14,4,17,-12,-4,9,9,122,112,9,-19
-9,0,9,4,-9,4,0,-4,170,180,29,-29
19,19,0,-19,9,9,0,14,263,278,78,-43
34,39,4,-36,14,21,9,34,322,366,156,4
0,29,29,-14,-14,29,14,29,175,351,244,112
-19,19,39,0,-29,29,-9,-39,-107,234,312,239
4,19,14,-12,-4,17,-39,-126,-419,82,400,375
39,19,-19,-29,29,0,-78,-229,-717,-92,522,541
78,34,-43,-56,61,-4,-107,-351,-1049,-307,673,756
131,58,-73,-95,102,-7,-141,-492,-1381,-541,805,956
175,68,-107,-122,141,-19,-200,-610,-1639,-810,932,1171
200,63,-136,-131,168,-36,-273,-761,-1888,-1054,1102,1429
239,92,-146,-165,192,-26,-361,-966,-2191,-1322,1263,1712
268,112,-156,-190,212,-21,-439,-1200,-2474,-1566,1390,1971
307,122,-185,-214,246,-31,-488,-1371,-2640,-1732,1498,2200
356,122,-234,-239,295,-56,-531,-1512,-2742,-1849,1556,2322
380,107,-273,-244,326,-82,-600,-1639,-2835,-1991,1512,2278
385,82,-302,-234,344,-109,-663,-1747,-2913,-2127,1415,2108
405,92,-312,-248,358,-109,-717,-1815,-2971,-2254,1293,1898
444,107,-336,-275,390,-114,-775,-1839,-2991,-2342,1166,1664
453,92,-361,-273,407,-134,-775,-1781,-2923,-2308,1029,1361
444,-9,-453,-217,448,-231,-692,-1620,-2727,-2196,844,951
405,-117,-522,-143,463,-319,-595,-1439,-2503,-2093,575,570
322,-185,-507,-68,414,-346,-522,-1361,-2313,-2010,185,258
185,-229,-414,21,300,-322,-444,-1312,-2147,-1922,-331,-73
34,-239,-273,102,153,-256,-361,-1244,-1952,-1854,-844,-419
-48,-224,-175,136,63,-200,-297,-1112,-1756,-1786,-1302,-741
-58,-229,-170,143,56,-200,-253,-990,-1586,-1683,-1551,-907
-68,-253,-185,161,58,-219,-234,-893,-1424,-1546,-1503,-907
-97,-263,-165,180,34,-214,-209,-814,-1259,-1395,-1361,-863
-102,-248,-146,175,21,-197,-200,-717,-1117,-1259,-1273,-844
-82,-248,-165,165,41,-207,-180,-634,-1005,-1146,-1205,-829
-73,-239,-165,156,46,-202,-161,-546,-888,-1044,-1127,-800
-73,-239,-165,156,46,-202,-126,-439,-761,-912,-1024,-746
-97,-239,-141,168,21,-190,-92,-336,-610,-761,-902,-678
-131,-258,-126,195,-2,-192,-68,-258,-473,-619,-756,-605
-131,-253,-122,192,-4,-187,-29,-204,-361,-497,-644,-541
-126,-229,-102,178,-12,-165,-9,-175,-283,-419,-575,-497
-122,-224,-102,173,-9,-163,-4,-151,-214,-351,-517,-463
-122,-209,-87,165,-17,-148,9,-117,-156,-283,-458,-429
-107,-195,-87,151,-9,-141,24,-68,-97,-219,-414,-390
-97,-165,-68,131,-14,-117,39,-14,-39,-156,-366,-361
-122,-161,-39,141,-41,-100,43,4,-14,-112,-307,-322
-122,-180,-58,151,-31,-119,43,4,4,-87,-273,-297
-78,-146,-68,112,-4,-107,48,19,29,-58,-239,-263
-39,-87,-48,63,4,-68,68,29,68,-29,-209,-234
-58,-87,-29,73,-14,-58,63,19,82,-14,-204,-224
-68,-97,-29,82,-19,-63,58,24,92,-9,-200,-224
-73,-107,-34,90,-19,-70,53,34,97,4,-200,-224
-78,-122,-43,100,-17,-82,48,39,97,14,-190,-209
-78,-117,-39,97,-19,-78,53,43,97,24,-175,-204
-78,-126,-48,102,-14,-87,53,43,92,14,-175,-204
-68,-122,-53,95,-7,-87,53,43,92,14,-175,-204
-78,-117,-39,97,-19,-78,53,48,102,14,-170,-204
-97,-112,-14,104,-41,-63,68,39,117,29,-165,-200
-102,-112,-9,107,-46,-61,68,39,117,29,-165,-200
-102,-112,-9,107,-46,-61,68,43,112,29,-161,-195
-92,-107,-14,100,-39,-61,68,48,112,29,-161,-190
-82,-112,-29,97,-26,-70,58,63,112,19,-165,-190
-68,-117,-48,92,-9,-82,68,63,112,24,-161,-185
-73,-122,-48,97,-12,-85,78,63,122,39,-141,-170
-68,-117,-48,92,-9,-82,68,58,122,53,-146,-170
-68,-117,-48,92,-9,-82,68,48,122,43,-136,-185
-73,-117,-43,95,-14,-80,73,48,126,39,-151,-195
-78,-122,-43,100,-17,-82,78,48,126,39,-156,-200
-82,-122,-39,102,-21,-80,87,53,131,43,-156,-200
-78,-122,-43,100,-17,-82,78,63,131,53,-156,-190
-82,-131,-48,107,-17,-90,78,78,131,48,-156,-190
-97,-156,-58,126,-19,-107,78,82,126,24,-161,-190
-102,-165,-63,134,-19,-114,78,78,122,19,-161,-195
-92,-146,-53,119,-19,-100,68,73,122,24,-170,-204
-92,-146,-53,119,-19,-100,73,73,117,29,-170,-204
-92,-146,-53,119,-19,-100,73,68,117,29,-165,-204
-92,-146,-53,119,-19,-100,73,63,122,39,-161,-200
-102,-146,-43,124,-29,-95,63,63,117,34,-165,-204
-102,-156,-53,129,-24,-104,63,68,122,29,-165,-209
-102,-170,-68,136,-17,-119,68,68,122,19,-170,-214
-102,-180,-78,141,-12,-129,73,68,122,14,-165,-219
-97,-165,-68,131,-14,-117,82,78,126,19,-156,-204
-92,-161,-68,126,-12,-114,82,78,131,24,-156,-204
-87,-156,-68,122,-9,-112,82,78,141,39,-156,-204
-87,-156,-68,122,-9,-112,82,87,146,48,-156,-204
-87,-165,-78,126,-4,-122,92,82,136,39,-161,-214
-87,-175,-87,131,0,-131,87,87,141,39,-161,-214
-82,-170,-87,126,2,-129,87,92,146,39,-161,-209
-73,-175,-102,124,14,-139,97,102,156,48,-156,-204
-78,-185,-107,131,14,-146,92,92,151,53,-146,-204
-97,-175,-78,136,-9,-126,87,97,151,58,-141,-204
-102,-165,-63,134,-19,-114,82,97,161,63,-136,-204
-97,-151,-53,124,-21,-102,78,97,170,73,-131,-200
-78,-136,-58,107,-9,-97,92,102,195,102,-112,-185
-73,-131,-58,102,-7,-95,92,107,200,102,-107,-180
-68,-126,-58,97,-4,-92,82,112,204,102,-102,-175
-58,-107,-48,82,-4,-78,82,126,214,112,-102,-165
-63,-107,-43,85,-9,-75,92,131,229,122,-92,-161
-63,-107,-43,85,-9,-75,102,136,229,126,-87,-151
-68,-107,-39,87,-14,-73,107,141,244,136,-73,-146
-68,-97,-29,82,-19,-63,107,141,244,151,-68,-141
-63,-87,-24,75,-19,-56,97,141,248,151,-73,-141
-58,-87,-29,73,-14,-58,97,141,263,156,-63,-136
-58,-87,-29,73,-14,-58,97,146,278,161,-58,-131
-58,-92,-34,75,-12,-63,97,151,283,170,-53,-131
-43,-78,-34,61,-4,-56,107,165,307,190,-29,-107
-43,-78,-34,61,-4,-56,112,180,317,204,-19,-102
-43,-73,-29,58,-7,-51,122,190,322,209,-14,-97
-39,-68,-29,53,-4,-48,131,200,326,219,4,-92
-48,-53,-4,51,-21,-29,131,214,351,229,9,-92
-53,-48,4,51,-29,-21,126,219,361,244,9,-82
-53,-43,9,48,-31,-17,126,224,370,248,14,-78
-53,-39,14,46,-34,-12,126,229,380,253,19,-63
-58,-19,39,39,-48,9,122,214,390,268,43,-48
-58,-9,48,34,-53,19,122,214,400,283,53,-48
-58,-9,48,34,-53,19,117,209,400,287,73,-39
-53,-14,39,34,-46,12,117,200,419,297,82,-29
-68,-29,39,48,-53,4,97,190,424,287,87,-39
-63,-29,34,46,-48,2,87,190,419,292,87,-24
-53,-24,29,39,-41,2,82,185,414,292,92,-9
-68,-29,39,48,-53,4,78,185,409,302,102,0
-58,-24,34,41,-46,4,68,180,424,297,117,24
-48,-9,39,29,-43,14,68,185,429,302,131,34
-48,-4,43,26,-46,19,68,200,434,307,141,39
-43,-4,39,24,-41,17,68,200,434,312,161,39
-29,-4,24,17,-26,9,53,209,458,322,161,43
-29,-4,24,17,-26,9,53,209,463,322,170,53
-34,-9,24,21,-29,7,53,209,473,322,175,68
-34,-14,19,24,-26,2,48,209,478,326,175,82
-19,-4,14,12,-17,4,58,214,468,317,190,92
-14,-4,9,9,-12,2,58,214,468,317,190,92
-4,4,9,0,-7,7,48,214,468,317,204,102
-4,9,14,-2,-9,12,43,214,468,312,209,107
-14,-4,9,9,-12,2,34,204,463,312,209,107
-19,-9,9,14,-14,0,34,204,458,312,214,117
-24,-9,14,17,-19,2,34,204,453,312,219,122
-24,-14,9,19,-17,-2,34,204,453,302,219,126
-34,-29,4,31,-19,-12,34,204,458,292,224,141
-34,-34,0,34,-17,-17,34,204,448,283,224,146
-34,-34,0,34,-17,-17,29,204,434,283,224,156
-24,-24,0,24,-12,-12,24,195,424,273,224,156
-4,-24,-19,14,7,-21,9,180,405,273,224,165
-4,-19,-14,12,4,-17,9,175,400,263,224,165
-4,-19,-14,12,4,-17,9,170,385,258,224,165
-19,-29,-9,24,-4,-19,14,165,375,248,224,175
-24,-34,-9,29,-7,-21,9,151,366,234,219,175
-24,-34,-9,29,-7,-21,4,136,346,219,219,170
-24,-34,-9,29,-7,-21,4,136,331,214,214,170
-24,-39,-14,31,-4,-26,0,126,307,195,200,156
-34,-43,-9,39,-12,-26,-9,126,307,190,190,146
-34,-43,-9,39,-12,-26,-9,117,283,185,180,151
-34,-43,-9,39,-12,-26,-9,107,263,165,170,141
-39,-39,0,39,-19,-19,-4,102,253,161,165,136
-39,-34,4,36,-21,-14,4,102,229,151,156,122
-39,-34,4,36,-21,-14,4,97,209,131,136,107
-39,-43,-4,41,-17,-24,4,87,190,117,117,92
-43,-43,0,43,-21,-21,-4,78,170,107,107,78
-43,-34,9,39,-26,-12,-4,68,156,117,92,82
-53,-39,14,46,-34,-12,-4,68,151,102,87,73
-39,-43,-4,41,-17,-24,-4,63,151,87,73,63
-48,-43,4,46,-26,-19,-4,58,146,78,63,53
-63,-58,4,61,-34,-26,-4,48,136,73,48,43
-73,-63,9,68,-41,-26,-9,43,112,63,39,34
-82,-82,0,82,-41,-41,-9,39,92,43,29,14
-87,-87,0,87,-43,-43,-14,34,73,29,14,-9
-73,-78,-4,75,-34,-41,-14,29,73,29,24,0
-68,-63,4,65,-36,-29,-9,29,68,29,9,0
-63,-53,9,58,-36,-21,0,29,63,24,9,0
-63,-43,19,53,-41,-12,4,29,63,24,4,-9
-63,-58,4,61,-34,-26,-9,24,43,9,-4,-14
-63,-58,4,61,-34,-26,-9,24,39,4,-14,-19
-63,-68,-4,65,-29,-36,0,29,39,0,-19,-19
-78,-78,0,78,-39,-39,-4,29,34,0,-24,-24
-82,-87,-4,85,-39,-46,0,29,39,0,-24,-24
-87,-73,14,80,-51,-29,4,29,39,0,-24,-14
-87,-68,19,78,-53,-24,9,24,39,0,-24,-14
-87,-68,19,78,-53,-24,14,24,34,0,-29,-14
-87,-73,14,80,-51,-29,4,24,24,-19,-39,-29
-87,-82,4,85,-46,-39,4,19,24,-19,-43,-29
-102,-87,14,95,-58,-36,0,14,14,-24,-48,-29
-92,-92,0,92,-46,-46,0,9,14,-29,-48,-29
-102,-82,19,92,-61,-31,4,14,24,-24,-39,-39
-107,-73,34,90,-70,-19,4,14,19,-24,-48,-48
-107,-87,19,97,-63,-34,9,14,14,-29,-48,-48
-102,-87,14,95,-58,-36,9,19,14,-29,-48,-53
-102,-92,9,97,-56,-41,0,9,0,-43,-53,-58
-102,-87,14,95,-58,-36,-4,9,0,-48,-63,-58
-107,-92,14,100,-61,-39,-4,9,4,-48,-63,-58
-117,-112,4,114,-61,-53,-9,9,4,-58,-68,-58
-112,-112,0,112,-56,-56,-9,4,4,-58,-73,-53
-107,-97,9,102,-58,-43,-4,4,0,-48,-73,-53
-97,-87,9,92,-53,-39,4,4,-4,-48,-68,-58
-92,-102,-9,97,-41,-56,9,4,-4,-43,-73,-58
-102,-117,-14,109,-43,-65,9,9,0,-43,-63,-53
-97,-112,-14,104,-41,-63,4,9,9,-43,-63,-53
-82,-87,-4,85,-39,-46,4,9,14,-43,-73,-68
-63,-82,-19,73,-21,-51,9,9,14,-43,-73,-58
-87,-97,-9,92,-39,-53,19,19,4,-34,-73,-48
-92,-97,-4,95,-43,-51,19,19,4,-39,-68,-58
-92,-97,-4,95,-43,-51,19,19,4,-39,-68,-58
-92,-97,-4,95,-43,-51,19,19,4,-34,-68,-58
-102,-112,-9,107,-46,-61,9,4,0,-34,-63,-68
-102,-117,-14,109,-43,-65,9,4,0,-34,-68,-68
-102,-122,-19,112,-41,-70,14,14,4,-29,-68,-63
-102,-117,-14,109,-43,-65,14,14,9,-29,-73,-63
-117,-136,-19,126,-48,-78,19,14,9,-34,-87,-73
-117,-151,-34,134,-41,-92,19,14,4,-34,-87,-73
-117,-146,-29,131,-43,-87,9,19,4,-34,-87,-73
-117,-151,-34,134,-41,-92,9,19,4,-34,-87,-73
-107,-151,-43,129,-31,-97,14,19,9,-34,-78,-82
-107,-151,-43,129,-31,-97,14,24,14,-29,-78,-82
-102,-151,-48,126,-26,-100,14,24,14,-24,-78,-78
-102,-151,-48,126,-26,-100,19,24,14,-24,-78,-78
-112,-141,-29,126,-41,-85,24,34,29,-19,-87,-87
-112,-141,-29,126,-41,-85,24,34,34,-14,-82,-82
-112,-126,-14,119,-48,-70,29,39,39,-9,-73,-73
-112,-126,-14,119,-48,-70,34,39,43,-4,-68,-73
-122,-136,-14,129,-53,-75,24,29,39,-14,-73,-78
-122,-151,-29,136,-46,-90,24,24,39,-4,-78,-82
-122,-151,-29,136,-46,-90,24,24,39,0,-82,-87
-117,-146,-29,131,-43,-87,24,34,34,0,-87,-92
-107,-146,-39,126,-34,-92,24,43,39,4,-87,-82
-107,-136,-29,122,-39,-82,34,48,53,14,-78,-78
-112,-136,-24,124,-43,-80,24,48,63,19,-73,-78
-112,-141,-29,126,-41,-85,24,48,68,19,-73,-78
-117,-141,-24,129,-46,-82,29,58,87,24,-58,-78
-117,-141,-24,129,-46,-82,29,58,87,43,-58,-73
-112,-141,-29,126,-41,-85,29,48,87,48,-58,-68
-112,-131,-19,122,-46,-75,29,43,87,53,-48,-68
-122,-131,-9,126,-56,-70,29,53,87,58,-43,-58
-122,-131,-9,126,-56,-70,34,58,97,63,-39,-53
-122,-131,-9,126,-56,-70,29,73,107,78,-19,-43
-122,-117,4,119,-63,-56,34,73,117,82,-9,-39
-117,-102,14,109,-65,-43,34,58,131,92,-4,-34
-122,-87,34,104,-78,-26,29,58,136,97,0,-29
-122,-73,48,97,-85,-12,29,63,141,107,0,-24
-122,-63,58,92,-90,-2,39,63,141,117,0,-19
-112,-63,48,87,-80,-7,48,73,151,131,4,-29
-122,-82,39,102,-80,-21,48,68,156,131,19,-24
-122,-92,29,107,-75,-31,48,73,165,131,29,-19
-112,-78,34,95,-73,-21,58,78,180,136,39,-14
-102,-58,43,80,-73,-7,58,78,195,151,43,0
-92,-43,48,68,-70,2,58,78,195,156,48,9
-107,-43,63,75,-85,9,53,78,185,156,48,9
-112,-43,68,78,-90,12,53,82,185,156,48,9
-117,-34,82,75,-100,24,68,92,200,161,58,24
-112,-34,78,73,-95,21,78,102,209,170,68,29
-107,-34,73,70,-90,19,82,112,214,175,73,34
-107,-39,68,73,-87,14,73,122,219,180,78,43
-112,-29,82,70,-97,26,82,117,219,185,82,48
-117,-29,87,73,-102,29,92,122,229,185,87,48
-122,-29,92,75,-107,31,87,122,229,180,87,48
-126,-29,97,78,-112,34,82,122,224,175,92,43
-117,-14,102,65,-109,43,78,97,214,170,92,34
-107,-4,102,56,-104,48,63,87,204,170,87,34
-102,0,102,51,-102,51,48,78,195,170,82,34
-102,4,107,48,-104,56,43,53,185,165,78,29
-112,-19,92,65,-102,36,24,58,165,151,73,34
-122,-34,87,78,-104,26,14,53,156,146,68,29
-131,-48,82,90,-107,17,4,48,146,141,63,24
-141,-48,92,95,-117,21,4,39,136,131,48,24
-146,-53,92,100,-119,19,0,24,131,117,58,24
-146,-53,92,100,-119,19,-4,24,126,117,58,24
-146,-53,92,100,-119,19,-9,24,126,117,58,24
-146,-53,92,100,-119,19,-9,29,122,112,48,19
-136,-48,87,92,-112,19,0,39,131,117,58,19
-126,-43,82,85,-104,19,4,39,136,122,58,24
-122,-48,73,85,-97,12,9,39,136,126,53,24
-112,-48,63,80,-87,7,14,39,131,126,48,24
-107,-39,68,73,-87,14,0,39,112,112,43,34
-117,-53,63,85,-90,4,4,34,102,92,29,9
-117,-68,48,92,-82,-9,0,29,107,87,19,0
-126,-78,48,102,-87,-14,-9,29,97,78,29,0
-126,-78,48,102,-87,-14,-9,29,97,78,29,0
-126,-78,48,102,-87,-14,-9,29,97,78,29,0
-126,-78,48,102,-87,-14,-9,29,97,78,29,0
-141,-82,58,112,-100,-12,-9,19,92,68,19,9
-146,-87,58,117,-102,-14,-9,19,87,68,19,9
-151,-92,58,122,-104,-17,-9,19,82,68,19,9
-156,-97,58,126,-107,-19,-9,19,78,68,19,9
-151,-97,53,124,-102,-21,0,9,68,63,14,-4
-146,-97,48,122,-97,-24,0,9,68,58,9,-9
-141,-97,43,119,-92,-26,0,9,68,53,4,-14
-136,-97,39,117,-87,-29,0,9,68,48,0,-19
-136,-87,48,112,-92,-19,9,19,68,48,-9,-9
-136,-87,48,112,-92,-19,9,19,68,48,-9,-9
-136,-87,48,112,-92,-19,9,19,68,48,-9,-9
-136,-87,48,112,-92,-19,9,19,68,48,-9,-9
-146,-97,48,122,-97,-24,0,14,53,34,-14,-24
-156,-107,48,131,-102,-29,0,9,48,29,-19,-29
-165,-117,48,141,-107,-34,0,4,43,24,-24,-34
-175,-126,48,151,-112,-39,0,0,39,19,-29,-39
-165,-117,48,141,-107,-34,-4,-9,39,9,-39,-39
-165,-117,48,141,-107,-34,-9,-9,39,9,-39,-39
-165,-117,48,141,-107,-34,-14,-9,39,9,-39,-39
-165,-117,48,141,-107,-34,-19,-9,39,9,-39,-39
-175,-131,43,153,-109,-43,-9,0,29,0,-48,-48
-175,-136,39,156,-107,-48,-9,0,29,0,-48,-48
-175,-141,34,158,-104,-53,-9,0,29,0,-48,-48
-175,-146,29,161,-102,-58,-9,0,29,0,-48,-48
-175,-146,29,161,-102,-58,-19,-9,29,0,-58,-48
-175,-146,29,161,-102,-58,-19,-9,29,0,-58,-48
-175,-146,29,161,-102,-58,-19,-9,29,0,-58,-48
-175,-146,29,161,-102,-58,-19,-9,29,0,-58,-48
-170,-136,34,153,-102,-51,-14,0,29,0,-48,-48
-165,-126,39,146,-102,-43,-9,0,29,0,-48,-48
-161,-117,43,139,-102,-36,-4,0,29,0,-48,-48
-156,-107,48,131,-102,-29,0,0,29,0,-48,-48
-156,-112,43,134,-100,-34,0,0,39,9,-58,-48
-156,-117,39,136,-97,-39,0,0,39,9,-58,-48
-156,-122,34,139,-95,-43,0,0,39,9,-58,-48
-156,-126,29,141,-92,-48,0,0,39,9,-58,-48
-156,-126,29,141,-92,-48,9,0,29,0,-48,-53
-156,-126,29,141,-92,-48,9,0,29,0,-48,-58
-156,-126,29,141,-92,-48,9,0,29,0,-48,-63
-156,-126,29,141,-92,-48,9,0,29,0,-48,-68
-151,-117,34,134,-92,-41,19,9,39,9,-48,-63
-146,-117,29,131,-87,-43,19,9,39,9,-48,-58
-141,-117,24,129,-82,-46,19,9,39,9,-48,-53
-136,-117,19,126,-78,-48,19,9,39,9,-48,-48
-122,-112,9,117,-65,-51,24,19,43,19,-43,-34
-117,-107,9,112,-63,-48,29,19,48,19,-39,-29
-112,-102,9,107,-61,-46,34,19,53,19,-34,-24
-107,-97,9,102,-58,-43,39,19,58,19,-29,-19
-102,-92,9,97,-56,-41,39,29,68,19,-39,-24
-97,-87,9,92,-53,-39,39,29,68,19,-39,-29
-92,-82,9,87,-51,-36,39,29,68,19,-39,-34
-87,-82,4,85,-46,-39,39,29,68,19,-43,-39
-87,-68,19,78,-53,-24,43,39,68,29,-34,-29
-78,-68,9,73,-43,-29,48,43,68,29,-34,-29
-68,-68,0,68,-34,-34,53,43,68,29,-34,-29
-48,-58,-9,53,-19,-34,63,43,73,34,-34,-29
-34,-53,-19,43,-7,-36,58,43,73,29,-34,-29
-39,-39,0,39,-19,-19,58,43,78,29,-34,-29
-39,-19,19,29,-29,0,58,48,82,39,-34,-24
-34,-14,19,24,-26,2,58,48,82,39,-34,-24
-39,-34,4,36,-21,-14,58,48,82,39,-29,-29
-43,-39,4,41,-24,-17,68,48,82,39,-19,-24
-53,-48,4,51,-29,-21,68,48,82,34,-19,-29
-68,-58,9,63,-39,-24,68,53,78,34,-24,-43
-48,-39,9,43,-29,-14,63,48,68,24,-24,-39
-39,-34,4,36,-21,-14,63,43,68,19,-29,-39
-29,-29,0,29,-14,-14,63,43,78,19,-29,-39
-19,-24,-4,21,-7,-14,63,43,82,29,-29,-29
-9,-43,-34,26,12,-39,78,48,82,29,-34,-39
-9,-53,-43,31,17,-48,78,58,73,29,-29,-34
-9,-53,-43,31,17,-48,78,63,73,29,-29,-34
-14,-48,-34,31,9,-41,73,63,73,29,-34,-39
-14,-43,-29,29,7,-36,82,73,78,24,-24,-39
-9,-39,-29,24,9,-34,82,73,82,34,-24,-34
0,-39,-39,19,19,-39,82,73,87,34,-24,-34
0,-43,-43,21,21,-43,82,73,92,29,-19,-34
-4,-63,-58,34,26,-61,87,63,78,29,-34,-43
-4,-63,-58,34,26,-61,92,68,87,29,-39,-39
-4,-63,-58,34,26,-61,92,68,97,34,-39,-39
-4,-63,-58,34,26,-61,92,73,92,39,-43,-39
0,-68,-68,34,34,-68,87,63,87,29,-53,-53
0,-73,-73,36,36,-73,82,58,78,19,-58,-63
-9,-78,-68,43,29,-73,78,58,68,14,-58,-68
0,-82,-82,41,41,-82,73,58,58,9,-58,-68
4,-68,-73,31,39,-70,82,63,63,19,-58,-58
24,-63,-87,19,56,-75,82,58,63,19,-58,-58
19,-58,-78,19,48,-68,82,63,73,29,-43,-58
24,-58,-82,17,53,-70,82,68,73,34,-39,-43
24,-48,-73,12,48,-61,92,82,78,34,-24,-29
24,-39,-63,7,43,-51,92,82,92,39,-24,-29
24,-39,-63,7,43,-51,87,82,87,39,-24,-34
24,-24,-48,0,36,-36,82,82,92,39,-24,-34
19,-29,-48,4,34,-39,92,82,102,43,-14,-24
14,-29,-43,7,29,-36,102,78,107,48,-14,-19
9,-34,-43,12,26,-39,102,78,112,53,-14,-19
9,-34,-43,12,26,-39,102,78,117,63,-9,-14
19,-14,-34,-2,26,-24,107,87,126,78,0,-4
29,4,-24,-17,26,-9,112,92,126,78,0,-4
39,29,-9,-34,24,9,117,97,126,78,4,-4
48,39,-9,-43,29,14,122,102,126,78,4,-4
58,48,-9,-53,34,19,126,92,131,82,9,-4
58,48,-9,-53,34,19,131,92,131,78,9,-4
53,39,-14,-46,34,12,131,92,136,78,9,0
53,39,-14,-46,34,12,136,92,141,82,9,0
58,39,-19,-48,39,9,156,97,141,92,14,4
58,39,-19,-48,39,9,161,107,141,92,14,4
48,39,-9,-43,29,14,165,112,146,92,14,4
48,39,-9,-43,29,14,170,117,151,92,14,9
43,53,9,-48,17,31,161,126,156,97,19,19
48,73,24,-61,12,48,161,126,161,102,24,24
48,73,24,-61,12,48,151,126,165,102,29,29
48,82,34,-65,7,58,146,112,165,102,34,29
48,82,34,-65,7,58,136,102,165,107,29,24
48,78,29,-63,9,53,131,97,161,112,34,24
39,73,34,-56,2,53,117,92,151,107,29,19
34,73,39,-53,-2,56,112,92,151,107,34,24
29,48,19,-39,4,34,107,87,146,97,43,29
29,58,29,-43,0,43,97,82,141,97,43,24
43,58,14,-51,14,36,92,78,131,97,43,19
43,58,14,-51,14,36,92,73,126,97,48,19
34,48,14,-41,9,31,102,73,136,107,43,29
29,43,14,-36,7,29,102,73,136,107,39,29
29,43,14,-36,7,29,87,73,136,107,29,14
29,43,14,-36,7,29,97,73,136,107,24,24
39,53,14,-46,12,34,92,73,126,102,29,24
48,63,14,-56,17,39,87,73,126,102,29,24
48,63,14,-56,17,39,82,73,126,92,29,24
39,63,24,-51,7,43,78,73,126,92,29,19
29,48,19,-39,4,34,87,78,136,102,29,19
24,43,19,-34,2,31,87,82,136,102,29,19
19,39,19,-29,0,29,87,92,136,102,29,19
19,29,9,-24,4,19,97,97,131,102,29,19
19,34,14,-26,2,24,78,92,151,102,29,39
73,63,-9,-68,41,26,92,92,151,112,39,48
63,53,-9,-58,36,21,82,92,141,112,39,48
43,34,-9,-39,26,12,78,82,136,112,43,48
58,53,-4,-56,31,24,97,97,161,141,68,58
78,73,-4,-75,41,34,97,97,190,170,78,58
58,78,19,-68,19,48,87,82,219,219,97,39
39,78,39,-58,0,58,87,92,322,317,165,63
34,68,34,-51,0,51,87,122,409,414,244,112
39,68,29,-53,4,48,73,107,331,419,312,190
48,87,39,-68,4,63,58,58,97,341,380,297
63,97,34,-80,14,65,48,-9,-175,229,458,444
78,97,19,-87,29,58,29,-92,-434,102,570,610
117,102,-14,-109,65,43,-9,-195,-727,-63,722,824
170,107,-63,-139,117,21,-63,-326,-1039,-287,834,1024
175,78,-97,-126,136,-9,-112,-473,-1327,-556,912,1220
209,63,-146,-136,178,-41,-185,-634,-1586,-829,1024,1478
278,102,-175,-190,226,-36,-263,-839,-1888,-1098,1156,1781
317,131,-185,-224,251,-26,-341,-1083,-2191,-1381,1254,2039
336,141,-195,-239,265,-26,-390,-1293,-2415,-1586,1312,2230
414,141,-273,-278,344,-65,-444,-1434,-2557,-1742,1342,2332
468,146,-322,-307,395,-87,-502,-1571,-2679,-1883,1288,2278
483,151,-331,-317,407,-90,-556,-1688,-2776,-2039,1180,2078
512,131,-380,-322,446,-124,-610,-1756,-2854,-2205,1049,1839
541,136,-405,-339,473,-134,-678,-1790,-2923,-2332,932,1586
531,112,-419,-322,475,-153,-697,-1781,-2893,-2347,805,1283
502,29,-473,-265,488,-222,-634,-1649,-2747,-2254,639,883
463,-97,-561,-183,512,-329,-536,-1468,-2532,-2122,419,492
390,-156,-546,-117,468,-351,-444,-1351,-2313,-2000,87,200
263,-180,-444,-41,353,-312,-385,-1312,-2137,-1912,-390,-112
112,-180,-292,34,202,-236,-312,-1254,-1952,-1825,-873,-448
0,-175,-175,87,87,-175,-239,-1122,-1747,-1727,-1273,-722
-58,-200,-141,129,41,-170,-175,-971,-1566,-1634,-1503,-897
-58,-214,-156,136,48,-185,-146,-873,-1405,-1498,-1493,-917
-58,-195,-136,126,39,-165,-122,-766,-1239,-1337,-1332,-854
-73,-190,-117,131,21,-153,-122,-668,-1088,-1190,-1224,-814
-73,-190,-117,131,21,-153,-102,-595,-976,-1088,-1166,-800
-63,-180,-117,122,26,-148,-73,-497,-858,-966,-1078,-761
-63,-170,-107,117,21,-139,-29,-380,-712,-814,-956,-697
-58,-170,-112,114,26,-141,-14,-268,-561,-683,-834,-639
-73,-180,-107,126,17,-143,9,-180,-434,-561,-707,-566
-82,-175,-92,129,4,-134,48,-126,-322,-458,-614,-512
-78,-170,-92,124,7,-131,58,-97,-244,-370,-536,-458
-82,-175,-92,129,4,-134,63,-82,-175,-292,-478,-414
-73,-170,-97,122,12,-134,78,-58,-117,-224,-429,-380
-48,-136,-87,92,19,-112,92,-19,-39,-141,-356,-341
-39,-117,-78,78,19,-97,97,43,19,-68,-287,-302
-53,-112,-58,82,2,-85,112,82,63,-24,-239,-253
-53,-112,-58,82,2,-85,112,102,82,0,-195,-219
-39,-107,-68,73,14,-87,117,97,97,9,-161,-195
-29,-97,-68,63,19,-82,107,97,117,29,-141,-165
-24,-73,-48,48,12,-61,117,102,136,43,-131,-156
-19,-58,-39,39,9,-48,126,112,151,58,-122,-156
-9,-43,-34,26,12,-39,136,126,161,82,-117,-156
0,-34,-34,17,17,-34,146,136,165,102,-102,-141
-9,-29,-19,19,4,-24,141,146,170,112,-87,-136
-9,-39,-29,24,9,-34,141,141,170,102,-87,-136
0,-34,-34,17,17,-34,141,136,175,102,-87,-136
-9,-29,-19,19,4,-24,141,136,190,102,-82,-136
-24,-39,-14,31,-4,-26,136,136,185,107,-73,-126
-34,-43,-9,39,-12,-26,136,136,185,107,-78,-131
-39,-48,-9,43,-14,-29,136,141,180,107,-78,-131
-34,-48,-14,41,-9,-31,136,146,180,107,-82,-131
-24,-39,-14,31,-4,-26,126,161,190,107,-92,-131
-9,-39,-29,24,9,-34,136,161,190,112,-82,-126
-14,-39,-24,26,4,-31,146,161,200,126,-58,-112
-9,-29,-19,19,4,-24,136,156,200,141,-58,-112
-4,-29,-24,17,9,-26,141,156,190,126,-68,-107
-4,-39,-34,21,14,-36,141,156,195,117,-82,-117
-4,-53,-48,29,21,-51,141,156,195,112,-87,-122
-4,-63,-58,34,26,-61,146,161,200,112,-87,-122
0,-53,-53,26,26,-53,146,165,214,131,-68,-122
-4,-53,-48,29,21,-51,146,175,219,136,-68,-122
-19,-68,-48,43,14,-58,146,175,219,122,-73,-122
-24,-68,-43,46,9,-56,146,165,219,126,-73,-126
-14,-73,-58,43,21,-65,156,156,214,126,-82,-126
-14,-78,-63,46,24,-70,161,161,204,126,-82,-126
-14,-82,-68,48,26,-75,161,161,200,122,-78,-126
-14,-87,-73,51,29,-80,161,161,200,126,-73,-122
-24,-78,-53,51,14,-65,161,170,204,126,-82,-117
-24,-78,-53,51,14,-65,161,175,209,126,-78,-122
-24,-82,-58,53,17,-70,165,175,209,122,-78,-126
-24,-82,-58,53,17,-70,170,175,209,122,-68,-131
-24,-87,-63,56,19,-75,161,175,209,112,-68,-126
-24,-92,-68,58,21,-80,161,175,209,112,-68,-126
-24,-97,-73,61,24,-85,161,175,214,122,-68,-126
-29,-107,-78,68,24,-92,161,185,214,126,-68,-126
-39,-107,-68,73,14,-87,170,180,224,131,-63,-126
-39,-107,-68,73,14,-87,165,185,229,136,-63,-126
-34,-92,-58,63,12,-75,165,190,234,141,-63,-122
-24,-87,-63,56,19,-75,175,200,244,156,-58,-117
-19,-87,-68,53,24,-78,165,200,239,151,-39,-107
-29,-78,-48,53,9,-63,165,204,239,156,-34,-107
-24,-68,-43,46,9,-56,165,204,248,161,-29,-107
-9,-53,-43,31,17,-48,165,204,258,170,-24,-102
-14,-53,-39,34,12,-46,170,204,278,180,-24,-102
-14,-53,-39,34,12,-46,170,204,278,180,-19,-102
-14,-53,-39,34,12,-46,161,204,278,180,-14,-102
-9,-39,-29,24,9,-34,161,214,283,190,-14,-97
-4,-39,-34,21,14,-36,170,229,307,209,-9,-82
-4,-39,-34,21,14,-36,180,234,307,214,0,-73
-9,-39,-29,24,9,-34,185,239,322,224,19,-68
-9,-29,-19,19,4,-24,185,239,322,239,29,-63
0,-9,-9,4,4,-9,190,239,336,248,34,-53
9,-9,-19,0,14,-14,195,239,351,253,43,-48
14,-9,-24,-2,19,-17,200,244,366,258,48,-43
19,-14,-34,-2,26,-24,204,248,370,268,53,-43
19,-4,-24,-7,21,-14,209,253,385,292,68,-19
14,0,-14,-7,14,-7,209,268,395,302,78,-14
9,9,0,-9,4,4,214,278,400,302,82,-9
9,19,9,-14,0,14,219,287,405,307,102,-4
9,19,9,-14,0,14,234,297,434,322,126,14
4,19,14,-12,-4,17,234,307,448,341,126,24
4,19,14,-12,-4,17,239,317,463,351,131,29
4,19,14,-12,-4,17,244,326,478,361,136,43
24,43,19,-34,2,31,224,322,478,375,161,58
29,58,29,-43,0,43,219,322,488,390,170,58
34,63,29,-48,2,46,209,317,488,395,190,68
43,63,19,-53,12,41,204,307,507,405,200,78
34,53,19,-43,7,36,195,287,507,390,209,73
34,58,24,-46,4,41,185,287,497,390,204,82
39,68,29,-53,4,48,180,283,488,385,204,92
19,68,48,-43,-14,58,175,283,478,390,209,97
9,53,43,-31,-17,48,156,278,502,405,224,102
19,58,39,-39,-9,48,156,283,507,409,239,112
19,53,34,-36,-7,43,156,297,512,414,248,117
24,43,19,-34,2,31,156,297,512,419,268,117
39,34,-4,-36,21,14,151,297,527,419,263,126
39,34,-4,-36,21,14,151,297,531,419,268,131
34,29,-4,-31,19,12,151,297,541,419,268,141
34,24,-9,-29,21,7,146,297,546,424,263,151
48,29,-19,-39,34,4,146,312,546,424,278,151
53,34,-19,-43,36,7,146,312,546,424,278,151
63,48,-14,-56,39,17,136,312,546,424,292,161
63,58,-4,-61,34,26,131,312,546,419,297,165
73,58,-14,-65,43,21,126,312,556,419,297,170
68,58,-9,-63,39,24,122,312,556,419,302,185
63,63,0,-63,31,31,117,312,556,419,307,195
63,63,0,-63,31,31,112,312,561,409,307,204
58,58,0,-58,29,29,107,302,566,405,312,209
53,53,0,-53,26,26,112,302,556,400,312,214
48,53,4,-51,21,29,112,302,541,405,312,224
53,63,9,-58,21,36,112,292,531,400,312,224
68,53,-14,-61,41,19,107,287,522,390,297,219
73,58,-14,-65,43,21,107,283,517,380,292,214
78,58,-19,-68,48,19,107,278,502,375,287,209
68,48,-19,-58,43,14,112,273,492,366,283,214
58,43,-14,-51,36,14,112,268,483,361,278,209
53,43,-9,-48,31,17,112,253,463,346,278,209
48,43,-4,-46,26,19,117,253,448,341,273,214
43,39,-4,-41,24,17,117,244,424,322,258,204
39,39,0,-39,19,19,112,253,419,322,253,204
43,34,-9,-39,26,12,107,244,400,312,248,209
48,29,-19,-39,34,4,102,234,385,287,244,200
48,29,-19,-39,34,4,102,229,380,278,244,195
48,34,-14,-41,31,9,107,219,361,278,229,175
48,34,-14,-41,31,9,102,214,346,258,214,165
48,24,-24,-36,36,0,97,204,331,244,200,156
43,24,-19,-34,31,2,82,195,317,234,195,146
29,19,-9,-24,19,4,92,185,287,224,175,141
14,9,-4,-12,9,2,92,185,278,209,165,131
24,0,-24,-12,24,-12,92,180,273,195,146,122
9,-4,-14,-2,12,-9,92,175,263,185,131,112
4,-14,-19,4,12,-17,87,165,248,185,112,102
-4,-14,-9,9,2,-12,87,161,229,180,107,102
-14,-29,-14,21,0,-21,92,156,214,165,102,92
-19,-29,-9,24,-4,-19,92,151,200,156,92,78
-4,-19,-14,12,4,-17,92,156,200,151,82,68
0,-14,-14,7,7,-14,97,156,195,146,68,68
4,-14,-19,4,12,-17,107,156,190,136,68,68
4,-14,-19,4,12,-17,112,156,190,131,63,58
-4,-19,-14,12,4,-17,102,151,175,136,58,53
-4,-19,-14,12,4,-17,107,151,175,131,53,48
-4,-29,-24,17,9,-26,122,156,180,126,53,48
-19,-39,-19,29,0,-29,122,156,180,126,53,43
-24,-48,-24,36,0,-36,112,146,161,112,39,19
-29,-34,-4,31,-12,-19,112,146,156,107,34,24
-29,-29,0,29,-14,-14,112,141,151,102,29,19
-29,-29,0,29,-14,-14,112,141,141,97,19,14
-24,-19,4,21,-14,-7,112,146,151,92,14,9
-19,-24,-4,21,-7,-14,112,146,151,97,14,9
-29,-24,4,26,-17,-9,107,146,141,97,14,9
-14,-24,-9,19,-2,-17,107,146,141,97,19,9
-19,-34,-14,26,-2,-24,102,131,141,82,9,9
-29,-24,4,26,-17,-9,102,131,136,82,0,0
-34,-39,-4,36,-14,-21,107,131,131,78,0,0
-34,-39,-4,36,-14,-21,107,136,131,78,0,-4
-24,-29,-4,26,-9,-17,117,136,126,82,0,0
-24,-19,4,21,-14,-7,112,136,126,78,-4,0
-29,-19,9,24,-19,-4,112,136,131,78,0,0
-39,-34,4,36,-21,-14,107,136,131,68,0,0
-39,-34,4,36,-21,-14,102,141,126,68,-4,-4
-39,-19,19,29,-29,0,102,141,126,78,-4,-4
-34,-9,24,21,-29,7,107,141,126,78,0,-9
-34,-24,9,29,-21,-7,107,141,131,82,-4,-9
-58,-43,14,51,-36,-14,117,141,131,78,-14,-4
-58,-43,14,51,-36,-14,112,136,136,73,-14,-4
-48,-24,24,36,-36,0,112,131,136,68,-24,-19
-34,-24,9,29,-21,-7,117,126,131,63,-24,-9
-39,-39,0,39,-19,-19,107,136,131,68,-34,-24
-43,-39,4,41,-24,-17,107,136,131,68,-29,-39
-43,-39,4,41,-24,-17,107,136,131,73,-29,-43
-43,-39,4,41,-24,-17,107,136,131,82,-29,-48
-34,-48,-14,41,-9,-31,112,141,146,73,-24,-43
-34,-48,-14,41,-9,-31,117,141,146,73,-29,-39
-34,-48,-14,41,-9,-31,126,151,151,78,-29,-29
-34,-39,-4,36,-14,-21,131,151,156,78,-34,-24
-53,-68,-14,61,-19,-41,126,151,156,82,-34,-29
-58,-82,-24,70,-17,-53,126,151,151,82,-29,-24
-63,-78,-14,70,-24,-46,117,156,151,82,-24,-19
-68,-82,-14,75,-26,-48,117,156,151,82,-19,-14
-63,-82,-19,73,-21,-51,122,146,151,73,-24,-24
-58,-82,-24,70,-17,-53,122,151,151,78,-29,-34
-48,-82,-34,65,-7,-58,122,151,146,82,-34,-39
-43,-82,-39,63,-2,-61,126,151,141,82,-39,-48
-24,-73,-48,48,12,-61,141,141,136,78,-48,-48
-34,-82,-48,58,7,-65,131,151,131,73,-43,-53
-43,-87,-43,65,0,-65,117,156,136,78,-43,-43
-29,-87,-58,58,14,-73,117,146,136,78,-48,-48
-34,-97,-63,65,14,-80,126,146,136,87,-39,-48
-39,-97,-58,68,9,-78,126,146,136,87,-39,-48
-43,-97,-53,70,4,-75,126,146,136,87,-39,-48
-48,-97,-48,73,0,-73,126,146,136,87,-39,-48
-43,-92,-48,68,2,-70,126,146,146,97,-34,-48
-48,-97,-48,73,0,-73,126,146,146,97,-34,-48
-43,-107,-63,75,9,-85,126,151,146,97,-34,-48
-39,-117,-78,78,19,-97,126,151,146,97,-34,-48
-29,-112,-82,70,26,-97,122,161,161,112,-29,-39
-29,-117,-87,73,29,-102,126,161,161,117,-24,-39
-39,-102,-63,70,12,-82,126,161,165,117,-19,-39
-43,-82,-39,63,-2,-61,126,165,170,126,-14,-34
-43,-78,-34,61,-4,-56,126,165,175,141,-4,-29
-29,-73,-43,51,7,-58,126,165,180,146,4,-24
-24,-63,-39,43,7,-51,136,165,185,151,19,-9
-24,-58,-34,41,4,-46,136,165,190,151,24,-4
-29,-43,-14,36,-7,-29,146,175,200,165,39,-9
-29,-34,-4,31,-12,-19,141,180,204,170,34,-9
-29,-29,0,29,-14,-14,141,185,209,170,34,-4
-29,-24,4,26,-17,-9,141,195,224,175,39,0
-24,-14,9,19,-17,-2,151,190,234,190,43,9
-19,-14,4,17,-12,-4,156,190,239,195,53,9
-14,-14,0,14,-7,-7,156,195,234,200,63,14
-9,-4,4,7,-7,0,156,195,239,204,68,14
-24,0,24,12,-24,12,161,195,253,214,68,24
-24,9,34,7,-29,21,161,200,258,219,73,29
-19,19,39,0,-29,29,161,204,263,229,78,39
-9,24,34,-7,-21,29,161,209,268,229,82,43
-14,34,48,-9,-31,41,170,214,268,224,97,53
-24,24,48,0,-36,36,175,219,268,224,97,53
-29,24,53,2,-41,39,180,229,283,224,97,58
-34,24,58,4,-46,41,180,234,297,229,102,58
-29,24,53,2,-41,39,180,248,287,244,107,68
-29,24,53,2,-41,39,180,248,292,244,107,68
-24,24,48,0,-36,36,180,244,292,244,112,63
-29,24,53,2,-41,39,180,244,292,248,122,63
-24,29,53,-2,-39,41,165,229,273,244,112,58
-29,48,78,-9,-53,63,161,214,268,234,107,68
-19,58,78,-19,-48,68,156,190,258,224,102,68
-34,68,102,-17,-68,85,151,175,258,224,112,68
-34,58,92,-12,-63,75,136,170,248,224,102,68
-34,48,82,-7,-58,65,131,170,239,219,102,68
-34,48,82,-7,-58,65,126,165,239,219,97,63
-34,39,73,-2,-53,56,117,161,219,214,92,53
-29,43,73,-7,-51,58,102,151,209,209,78,48
-24,48,73,-12,-48,61,102,151,204,204,82,43
-19,48,68,-14,-43,58,112,146,204,200,78,43
-14,43,58,-14,-36,51,112,146,204,195,73,39
-24,29,53,-2,-39,41,102,156,214,190,78,34
-29,24,53,2,-41,39,102,151,214,195,78,43
-34,29,63,2,-48,46,102,151,214,195,78,43
-39,39,78,0,-58,58,102,151,214,195,82,43
-39,34,73,2,-56,53,102,151,204,195,73,43
-39,29,68,4,-53,48,102,151,204,190,68,34
-39,24,63,7,-51,43,102,151,200,185,68,34
-43,9,53,17,-48,31,97,151,200,185,68,39
-39,9,48,14,-43,29,87,141,190,185,68,34
-29,19,48,4,-39,34,92,141,190,180,73,34
-24,19,43,2,-34,31,92,146,190,175,73,29
-29,19,48,4,-39,34,92,146,195,170,73,24
-29,14,43,7,-36,29,102,146,190,170,73,39
-24,14,39,4,-31,26,102,146,190,170,73,43
-19,19,39,0,-29,29,102,146,190,170,73,43
-19,4,24,7,-21,14,92,146,190,165,73,43
-29,14,43,7,-36,29,92,141,185,151,63,39
-29,4,34,12,-31,19,92,141,175,151,53,29
-29,0,29,14,-29,14,97,136,170,151,53,24
-39,-4,34,21,-36,14,92,131,161,141,43,14
-39,-14,24,26,-31,4,102,131,170,126,34,4
-39,-29,9,34,-24,-9,102,131,170,126,34,14
-34,-19,14,26,-24,-2,97,131,170,126,34,14
-14,-19,-4,17,-4,-12,97,131,165,126,34,14
-24,-14,9,19,-17,-2,112,131,165,126,29,24
-24,-9,14,17,-19,2,112,131,165,126,29,29
-29,-9,19,19,-24,4,112,131,165,126,29,34
-29,-4,24,17,-26,9,97,131,165,126,24,24
-39,-4,34,21,-36,14,97,141,156,126,24,19
-39,-4,34,21,-36,14,97,141,156,131,19,14
-29,4,34,12,-31,19,97,141,156,131,19,9
-29,4,34,12,-31,19,97,141,156,122,19,4
-48,-4,43,26,-46,19,102,141,165,131,29,4
-53,-14,39,34,-46,12,107,141,165,131,29,9
-53,-14,39,34,-46,12,112,141,165,131,29,14
-53,-14,39,34,-46,12,117,146,165,131,29,19
-58,-24,34,41,-46,4,117,136,161,122,29,19
-58,-34,24,46,-41,-4,107,131,161,122,29,19
-63,-39,24,51,-43,-7,102,131,161,122,29,19
-63,-43,19,53,-41,-12,92,131,161,122,29,19
-43,-24,19,34,-31,-2,117,141,165,131,34,29
-19,4,24,7,-21,14,107,136,180,141,29,19
-39,43,82,-2,-61,63,107,126,209,180,48,9
-48,58,107,-4,-78,82,107,131,278,268,97,29
-29,68,97,-19,-63,82,107,161,400,395,175,63
-34,68,102,-17,-68,85,107,170,429,473,273,131
-29,58,87,-14,-58,73,102,146,263,429,351,229
-19,48,68,-14,-43,58,87,78,-9,302,409,356
-4,48,53,-21,-29,51,68,-9,-292,161,497,522
19,58,39,-39,-9,48,39,-122,-570,14,629,727
68,102,34,-85,17,68,-19,-244,-883,-161,780,932
131,117,-14,-124,73,51,-73,-366,-1185,-395,902,1112
156,87,-68,-122,112,9,-112,-492,-1444,-624,1019,1346
170,73,-97,-122,134,-12,-185,-653,-1693,-849,1190,1625
229,122,-107,-175,168,7,-263,-868,-1986,-1098,1342,1908
287,151,-136,-219,212,7,-341,-1112,-2269,-1342,1459,2147
336,161,-175,-248,256,-7,-400,-1312,-2444,-1507,1537,2308
346,151,-195,-248,270,-21,-453,-1454,-2537,-1615,1576,2332
380,146,-234,-263,307,-43,-512,-1571,-2630,-1717,1542,2191
414,161,-253,-287,334,-46,-556,-1659,-2698,-1825,1454,1952
453,190,-263,-322,358,-36,-619,-1717,-2747,-1942,1361,1683
463,185,-278,-324,370,-46,-668,-1712,-2757,-2010,1254,1410
424,92,-331,-258,378,-119,-639,-1615,-2649,-1976,1117,1039
375,-29,-405,-173,390,-217,-556,-1434,-2464,-1873,912,649
317,-97,-414,-109,366,-256,-468,-1283,-2288,-1830,566,336
195,-126,-322,-34,258,-224,-395,-1215,-2137,-1815,68,34
58,-151,-209,46,134,-180,-317,-1176,-1971,-1766,-478,-307
-43,-151,-107,97,31,-129,-244,-1098,-1786,-1708,-1000,-614
-107,-156,-48,131,-29,-102,-180,-976,-1600,-1649,-1420,-849
-117,-200,-82,158,-17,-141,-156,-844,-1429,-1546,-1542,-946
-117,-214,-97,165,-9,-156,-117,-736,-1259,-1390,-1415,-897
-117,-185,-68,151,-24,-126,-92,-649,-1093,-1229,-1263,-844
-102,-151,-48,126,-26,-100,-63,-561,-961,-1102,-1195,-814
-112,-131,-19,122,-46,-75,-53,-488,-858,-1000,-1127,-790
-131,-131,0,131,-65,-65,-43,-409,-761,-888,-1039,-741
-131,-151,-19,141,-56,-85,-9,-302,-614,-746,-907,-678
-126,-170,-43,148,-41,-107,24,-180,-453,-595,-775,-590
-122,-170,-48,146,-36,-109,58,-102,-317,-463,-649,-517
-102,-175,-73,139,-14,-124,78,-48,-234,-380,-566,-463
-87,-141,-53,114,-17,-97,97,-9,-146,-292,-488,-419
-73,-78,-4,75,-34,-41,112,14,-58,-195,-409,-375
-73,-53,19,63,-46,-17,117,29,-9,-136,-370,-351
-68,-39,29,53,-48,-4,131,58,9,-102,-336,-341
-9,9,19,0,-14,14,165,102,58,-39,-278,-292
24,43,19,-34,2,31,180,151,112,14,-229,-214
4,14,9,-9,-2,12,161,161,131,39,-195,-170
-19,-9,9,14,-14,0,165,175,165,68,-151,-146
-9,0,9,4,-9,4,175,185,195,87,-131,-146
-19,4,24,7,-21,14,185,185,190,92,-131,-156
-19,9,29,4,-24,19,185,190,200,97,-131,-156
-14,14,29,0,-21,21,185,200,204,112,-136,-156
-9,14,24,-2,-17,19,185,204,204,122,-131,-141
-19,24,43,-2,-31,34,170,204,204,122,-117,-156
-19,9,29,4,-24,19,170,200,200,112,-117,-165
-9,9,19,0,-14,14,170,195,200,112,-117,-175
-19,9,29,4,-24,19,170,195,209,112,-112,-185
-24,9,34,7,-29,21,175,195,214,126,-112,-175
-24,14,39,4,-31,26,175,195,214,126,-117,-170
-19,19,39,0,-29,29,175,200,209,126,-117,-161
-4,29,34,-12,-19,31,175,204,209,126,-122,-151
9,39,29,-24,-9,34,165,219,219,136,-107,-136
19,39,19,-29,0,29,175,219,219,141,-92,-126
9,39,29,-24,-9,34,185,219,229,156,-63,-107
9,48,39,-29,-14,43,175,214,229,170,-58,-102
4,58,53,-31,-24,56,175,214,234,161,-68,-97
4,58,53,-31,-24,56,180,214,244,156,-82,-107
4,53,48,-29,-21,51,185,214,248,156,-87,-112
4,53,48,-29,-21,51,195,219,258,161,-87,-112
14,73,58,-43,-21,65,195,224,263,180,-63,-97
14,82,68,-48,-26,75,195,234,268,185,-58,-92
4,78,73,-41,-34,75,195,234,268,170,-58,-87
4,87,82,-46,-39,85,195,224,268,175,-53,-87
4,97,92,-51,-43,95,195,214,278,190,-43,-97
4,97,92,-51,-43,95,200,219,273,195,-43,-97
4,97,92,-51,-43,95,200,219,273,195,-39,-97
4,97,92,-51,-43,95,200,219,278,204,-34,-92
4,117,112,-61,-53,114,209,234,287,209,-29,-68
4,117,112,-61,-53,114,219,244,297,214,-19,-63
4,112,107,-58,-51,109,234,248,302,214,-14,-58
4,112,107,-58,-51,109,248,253,307,219,0,-53
-4,126,131,-61,-68,129,244,244,297,214,-4,-63
-4,131,136,-63,-70,134,239,244,297,209,-9,-68
-4,136,141,-65,-73,139,234,244,302,214,-14,-73
-9,136,146,-63,-78,141,229,253,302,214,-19,-78
-19,151,170,-65,-95,161,214,229,302,219,-4,-68
-19,156,175,-68,-97,165,204,224,307,224,-4,-68
-14,175,190,-80,-102,183,200,219,312,229,-4,-63
-4,185,190,-90,-97,187,204,219,322,244,0,-58
4,180,175,-92,-85,178,190,209,312,244,9,-39
-9,185,195,-87,-102,190,185,214,307,244,14,-39
-9,190,200,-90,-104,195,180,214,312,244,19,-39
0,200,200,-100,-100,200,175,214,317,248,24,-34
14,185,170,-100,-78,178,175,209,312,253,29,-34
14,180,165,-97,-75,173,170,204,307,248,29,-34
14,175,161,-95,-73,168,156,200,302,244,29,-34
19,185,165,-102,-73,175,151,204,302,248,24,-29
14,175,161,-95,-73,168,156,209,317,253,29,-24
4,165,161,-85,-78,163,161,214,317,253,39,-14
-9,156,165,-73,-87,161,161,219,331,258,58,-9
-19,156,175,-68,-97,165,156,219,331,268,68,-4
4,156,151,-80,-73,153,165,229,336,278,68,-14
19,156,136,-87,-58,146,165,229,351,283,73,-9
29,156,126,-92,-48,141,165,234,366,287,73,-4
39,151,112,-95,-36,131,165,239,370,297,73,-4
39,156,117,-97,-39,136,156,239,380,302,82,4
34,156,122,-95,-43,139,151,248,385,312,87,4
29,161,131,-95,-51,146,151,253,385,312,87,4
29,165,136,-97,-53,151,151,258,385,317,102,4
19,151,131,-85,-56,141,146,258,395,312,107,0
14,146,131,-80,-58,139,136,258,400,322,107,4
14,141,126,-78,-56,134,131,258,405,322,112,4
14,136,122,-75,-53,129,126,258,409,322,117,14
29,146,117,-87,-43,131,126,248,409,326,122,39
29,156,126,-92,-48,141,131,253,419,341,131,39
29,156,126,-92,-48,141,131,253,419,346,151,48
34,151,117,-92,-41,134,136,248,439,356,161,58
48,146,97,-97,-24,122,141,253,448,356,165,58
63,146,82,-104,-9,114,136,258,448,361,165,73
82,151,68,-117,7,109,136,258,448,361,170,87
78,146,68,-112,4,107,136,263,448,370,180,97
63,141,78,-102,-7,109,131,278,468,380,195,117
68,156,87,-112,-9,122,136,283,478,390,219,131
63,161,97,-112,-17,129,141,297,488,400,239,141
63,161,97,-112,-17,129,146,297,492,409,268,146
48,151,102,-100,-26,126,131,287,492,414,263,136
39,151,112,-95,-36,131,131,287,492,409,268,141
24,146,122,-85,-48,134,131,287,497,405,268,151
14,141,126,-78,-56,134,126,287,497,405,263,161
48,151,102,-100,-26,126,117,292,512,409,283,180
73,161,87,-117,-7,124,117,292,517,414,287,180
102,180,78,-141,12,129,107,292,522,419,307,190
122,195,73,-158,24,134,102,292,527,419,317,195
117,204,87,-161,14,146,107,297,536,434,336,204
107,204,97,-156,4,151,112,302,536,439,341,214
97,209,112,-153,-7,161,117,307,536,444,346,219
92,209,117,-151,-12,163,122,312,541,439,346,224
102,195,92,-148,4,143,122,292,536,429,341,224
102,190,87,-146,7,139,122,292,527,419,341,224
102,190,87,-146,7,139,117,292,512,419,341,229
112,200,87,-156,12,143,112,283,502,409,341,224
126,204,78,-165,24,141,107,268,502,409,336,214
131,214,82,-173,24,148,107,263,497,400,331,214
136,219,82,-178,26,151,107,258,483,395,326,214
126,214,87,-170,19,151,112,253,473,385,322,224
107,200,92,-153,7,146,102,258,453,361,302,195
102,190,87,-146,7,139,102,244,434,346,287,180
97,180,82,-139,7,131,107,244,419,341,268,170
92,165,73,-129,9,119,107,234,395,322,239,146
82,165,82,-124,0,124,97,239,400,322,234,136
82,170,87,-126,-2,129,97,234,380,312,219,141
82,175,92,-129,-4,134,97,229,366,287,204,131
78,185,107,-131,-14,146,102,229,361,278,195,126
87,195,107,-141,-9,151,112,219,341,278,185,117
87,200,112,-143,-12,156,112,214,326,258,165,107
87,195,107,-141,-9,151,112,204,312,244,146,97
82,200,117,-141,-17,158,102,195,297,234,136,87
63,185,122,-124,-29,153,112,204,283,244,126,82
53,175,122,-114,-34,148,112,204,278,229,126,73
68,165,97,-117,-14,131,112,200,278,214,117,63
58,161,102,-109,-21,131,112,195,273,204,112,53
58,161,102,-109,-21,131,117,195,263,204,97,43
53,161,107,-107,-26,134,117,190,248,200,87,43
48,146,97,-97,-24,122,122,185,239,185,78,34
48,146,97,-97,-24,122,122,180,229,175,63,19
48,146,97,-97,-24,122,117,175,229,175,53,19
48,151,102,-100,-26,126,117,175,224,175,39,19
48,151,102,-100,-26,126,122,175,219,170,39,19
43,151,107,-97,-31,129,122,175,219,170,34,9
43,151,107,-97,-31,129,112,170,200,161,24,-4
43,156,112,-100,-34,134,117,170,195,151,14,-19
43,151,107,-97,-31,129,131,175,195,141,9,-29
29,146,117,-87,-43,131,131,175,190,136,4,-43
39,136,97,-87,-29,117,131,175,185,136,4,-39
39,141,102,-90,-31,122,131,175,185,136,4,-24
43,136,92,-90,-24,114,131,170,185,136,4,-19
48,126,78,-87,-14,102,131,170,180,136,0,-14
58,126,68,-92,-4,97,136,185,185,131,-4,-34
58,122,63,-90,-2,92,141,185,190,136,-4,-39
43,122,78,-82,-17,100,141,185,185,136,-4,-43
53,122,68,-87,-7,95,146,185,190,136,0,-48
53,117,63,-85,-4,90,136,180,180,126,-9,-48
48,122,73,-85,-12,97,131,180,175,122,-19,-58
48,102,53,-75,-2,78,131,180,170,112,-19,-58
53,97,43,-75,4,70,126,185,170,107,-19,-63
48,92,43,-70,2,68,136,175,161,92,-24,-63
43,97,53,-70,-4,75,131,175,156,87,-34,-58
34,92,58,-63,-12,75,131,175,156,87,-34,-53
19,73,53,-46,-17,63,126,175,151,78,-39,-48
19,63,43,-41,-12,53,126,180,151,87,-39,-48
19,78,58,-48,-19,68,131,180,156,97,-34,-53
24,87,63,-56,-19,75,141,180,161,97,-24,-63
24,73,48,-48,-12,61,146,180,170,102,-24,-68
0,53,53,-26,-26,53,146,185,170,112,-29,-73
0,53,53,-26,-26,53,141,185,175,112,-34,-73
9,73,63,-41,-26,68,141,185,175,112,-48,-87
24,73,48,-48,-12,61,146,185,170,112,-53,-78
14,78,63,-46,-24,70,136,185,170,102,-63,-78
14,78,63,-46,-24,70,136,185,170,97,-58,-87
19,78,58,-48,-19,68,136,185,170,97,-58,-87
24,78,53,-51,-14,65,136,185,170,102,-58,-87
34,82,48,-58,-7,65,146,185,180,107,-53,-73
34,87,53,-61,-9,70,146,190,185,112,-48,-68
34,92,58,-63,-12,75,151,204,195,122,-39,-58
34,107,73,-70,-19,90,151,209,204,126,-34,-53
24,92,68,-58,-21,80,156,204,214,141,-29,-73
19,82,63,-51,-21,73,156,200,209,141,-29,-73
14,92,78,-53,-31,85,146,200,209,141,-29,-73
9,92,82,-51,-36,87,146,195,209,141,-29,-73
14,112,97,-63,-41,104,151,185,214,141,-24,-58
19,122,102,-70,-41,112,151,190,219,146,-19,-53
29,131,102,-80,-36,117,151,190,219,151,-14,-43
34,141,107,-87,-36,124,156,190,219,151,-9,-39
48,151,102,-100,-26,126,165,200,234,161,0,-19
53,161,107,-107,-26,134,170,200,239,170,14,-4
58,185,126,-122,-34,156,180,204,244,180,34,14
63,195,131,-129,-34,163,190,204,248,190,48,24
53,185,131,-119,-39,158,180,209,239,185,34,14
53,170,117,-112,-31,143,180,209,244,190,29,4
53,170,117,-112,-31,143,180,214,248,190,24,-4
58,175,117,-117,-29,146,180,229,248,185,19,-14
58,190,131,-124,-36,161,180,229,258,200,34,0
58,204,146,-131,-43,175,190,234,268,209,48,9
53,209,156,-131,-51,183,180,234,273,214,58,14
53,209,156,-131,-51,183,180,234,273,214,63,19
48,209,161,-129,-56,185,165,219,263,200,58,19
48,209,161,-129,-56,185,156,204,253,209,58,24
53,209,156,-131,-51,183,146,180,244,204,58,29
53,219,165,-136,-56,192,136,161,234,200,68,29
63,209,146,-136,-41,178,122,156,219,195,53,24
63,200,136,-131,-36,168,122,156,214,190,48,24
63,190,126,-126,-31,158,112,165,209,195,58,29
63,195,131,-129,-34,163,112,161,204,190,58,29
63,185,122,-124,-29,153,112,151,195,185,53,29
63,195,131,-129,-34,163,107,146,195,185,58,29
68,204,136,-136,-34,170,107,146,195,190,58,29
73,209,136,-141,-31,173,117,141,190,195,58,29
92,219,126,-156,-17,173,117,141,190,190,53,34
92,209,117,-151,-12,163,117,136,195,190,68,43
102,209,107,-156,-2,158,117,141,204,190,78,53
122,234,112,-178,4,173,126,146,219,195,87,63
117,234,117,-175,0,175,122,146,219,190,82,68
122,239,117,-180,2,178,117,146,214,195,87,68
102,229,126,-165,-12,178,107,146,200,195,87,58
92,219,126,-156,-17,173,102,151,195,195,87,48
87,214,126,-151,-19,170,102,161,204,200,92,58
92,209,117,-151,-12,163,107,161,209,209,97,58
97,204,107,-151,-4,156,107,161,209,214,97,58
97,195,97,-146,0,146,92,161,209,219,97,63
112,204,92,-158,9,148,92,156,209,219,87,58
117,204,87,-161,14,146,102,161,219,214,87,58
122,204,82,-163,19,143,97,161,219,204,82,58
126,204,78,-165,24,141,92,161,214,195,82,53
117,195,78,-156,19,136,97,165,200,190,82,48
117,200,82,-158,17,141,92,165,195,190,78,43
112,200,87,-156,12,143,87,165,190,190,73,39
102,200,97,-151,2,148,92,151,185,185,68,29
107,190,82,-148,12,136,92,161,195,185,68,29
112,180,68,-146,21,124,92,161,195,185,68,29
117,170,53,-143,31,112,92,161,195,185,68,29
122,175,53,-148,34,114,102,156,195,180,58,34
122,190,68,-156,26,129,102,161,200,185,78,43
117,190,73,-153,21,131,102,161,195,185,87,43
112,190,78,-151,17,134,102,161,195,185,97,43
107,190,82,-148,12,136,107,165,190,180,97,39
117,204,87,-161,14,146,112,165,200,180,87,34
126,209,82,-168,21,146,112,165,204,180,78,34
131,204,73,-168,29,139,112,165,204,180,63,29
141,204,63,-173,39,134,112,165,200,175,48,24
136,185,48,-161,43,117,107,175,200,170,53,4
146,190,43,-168,51,117,122,180,190,170,48,0
156,204,48,-180,53,126,136,185,195,175,48,19
146,209,63,-178,41,136,136,185,204,175,58,34
146,214,68,-180,39,141,136,185,204,175,58,39
146,219,73,-183,36,146,136,185,204,175,58,43
146,224,78,-185,34,151,136,185,204,175,58,48
151,224,73,-187,39,148,131,185,204,165,53,34
156,224,68,-190,43,146,126,185,204,165,48,29
161,224,63,-192,48,143,122,185,204,165,43,24
165,224,58,-195,53,141,117,185,204,165,39,19
156,219,63,-187,46,141,131,185,204,175,43,24
146,214,68,-180,39,141,136,185,204,175,48,29
136,209,73,-173,31,141,141,185,204,175,53,34
126,204,78,-165,24,141,146,185,204,175,58,39
117,204,87,-161,14,146,141,185,204,165,53,19
117,204,87,-161,14,146,136,185,204,165,48,9
117,204,87,-161,14,146,131,185,204,165,43,0
117,204,87,-161,14,146,126,185,204,165,39,-9
136,214,78,-175,29,146,141,195,204,175,48,-4
146,214,68,-180,39,141,146,195,204,175,48,0
156,214,58,-185,48,136,151,195,204,175,48,4
165,214,48,-190,58,131,156,195,204,175,48,9
165,219,53,-192,56,136,151,195,209,185,58,14
165,224,58,-195,53,141,146,195,214,185,58,19
165,229,63,-197,51,146,141,195,219,185,58,24
165,234,68,-200,48,151,136,195,224,185,58,29
156,239,82,-197,36,161,146,185,219,180,43,9
156,244,87,-200,34,165,146,185,214,175,39,0
156,248,92,-202,31,170,146,185,209,170,34,-9
156,253,97,-204,29,175,146,185,204,165,29,-19
165,253,87,-209,39,170,146,185,214,175,39,-14
165,253,87,-209,39,170,146,185,214,175,39,-9
165,248,82,-207,41,165,146,185,214,175,34,-4
156,244,87,-200,34,165,146,185,214,175,34,0
156,234,78,-195,39,156,136,190,204,165,43,-9
156,224,68,-190,43,146,136,190,204,165,43,-9
165,224,58,-195,53,141,141,190,209,170,43,-9
165,214,48,-190,58,131,146,190,209,175,43,-9
156,219,63,-187,46,141,146,200,224,185,43,-4
151,229,78,-190,36,153,146,204,229,195,43,4
151,224,73,-187,39,148,146,204,229,195,43,9
165,219,53,-192,56,136,146,204,229,195,53,14
161,224,63,-192,48,143,146,195,219,190,53,9
161,224,63,-192,48,143,146,195,219,180,53,4
156,224,68,-190,43,146,146,200,214,175,48,-9
156,229,73,-192,41,151,141,200,214,170,34,-19
146,224,78,-185,34,151,151,190,214,175,29,-9
146,219,73,-183,36,146,151,195,224,175,29,-9
146,214,68,-180,39,141,151,200,229,185,29,0
146,200,53,-173,46,126,156,200,229,185,34,0
151,204,53,-178,48,129,151,195,214,170,34,-9
156,209,53,-183,51,131,146,195,209,165,29,-14
156,219,63,-187,46,141,136,190,204,161,19,-24
161,234,73,-197,43,153,131,190,200,161,14,-29
151,224,73,-187,39,148,141,190,200,161,4,-39
156,219,63,-187,46,141,141,190,200,161,4,-43
151,209,58,-180,46,134,141,190,200,156,9,-48
141,190,48,-165,46,119,146,190,200,156,9,-53
151,185,34,-168,58,109,156,204,209,165,14,-39
151,180,29,-165,61,104,161,204,219,170,24,-29
151,175,24,-163,63,100,165,209,214,175,29,-19
146,170,24,-158,61,97,170,209,214,175,29,-9
146,170,24,-158,61,97,170,214,224,165,19,-4
136,170,34,-153,51,102,170,214,224,170,24,-4
146,170,24,-158,61,97,170,214,224,175,29,0
146,185,39,-165,53,112,170,214,229,175,29,9
165,204,39,-185,63,122,180,209,219,175,19,4
161,214,53,-187,53,134,180,214,229,185,34,0
165,219,53,-192,56,136,180,219,229,190,39,9
170,224,53,-197,58,139,180,229,229,190,43,9
170,224,53,-197,58,139,175,219,248,195,43,9
170,224,53,-197,58,139,165,219,239,195,43,4
170,239,68,-204,51,153,156,219,239,195,43,4
170,244,73,-207,48,158,151,219,234,195,53,4
170,253,82,-212,43,168,165,224,239,204,53,4
170,248,78,-209,46,163,170,224,244,204,53,0
175,248,73,-212,51,161,175,224,248,209,58,0
175,248,73,-212,51,161,180,219,253,214,58,4
185,268,82,-226,51,175,180,209,253,214,58,4
195,292,97,-244,48,195,180,209,253,214,63,4
204,302,97,-253,53,200,180,209,253,214,63,4
214,312,97,-263,58,204,180,209,253,209,58,-4
224,317,92,-270,65,204,185,219,253,209,58,4
219,312,92,-265,63,202,185,219,258,214,58,9
219,317,97,-268,61,207,190,219,263,224,58,9
224,331,107,-278,58,219,200,219,268,229,63,14
214,341,126,-278,43,234,214,239,273,244,78,19
204,341,136,-273,34,239,219,244,283,248,82,24
204,341,136,-273,34,239,224,248,292,253,87,34
209,346,136,-278,36,241,229,253,297,258,92,43
200,346,146,-273,26,246,214,248,297,268,107,58
195,336,141,-265,26,239,200,244,297,263,112,63
190,336,146,-263,21,241,190,224,292,258,117,63
185,326,141,-256,21,234,180,219,283,258,112,58
195,322,126,-258,34,224,170,204,273,258,102,58
195,317,122,-256,36,219,161,200,258,248,92,53
200,317,117,-258,41,217,161,200,253,244,92,58
204,302,97,-253,53,200,161,200,248,244,92,73
204,302,97,-253,53,200,151,195,239,239,87,53
219,302,82,-261,68,192,146,190,234,234,82,43
219,302,82,-261,68,192,146,185,234,229,82,39
219,302,82,-261,68,192,141,180,234,224,78,29
204,307,102,-256,51,204,136,170,234,224,68,19
204,307,102,-256,51,204,117,170,234,224,63,4
204,307,102,-256,51,204,122,170,234,224,63,14
204,307,102,-256,51,204,117,170,234,229,58,14
219,326,107,-273,56,217,122,175,244,239,73,19
224,326,102,-275,61,214,126,180,244,229,78,24
219,326,107,-273,56,217,131,185,244,229,82,24
219,317,97,-268,61,207,136,190,244,229,87,29
224,331,107,-278,58,219,136,200,248,234,92,39
229,336,107,-283,61,222,136,204,253,239,97,48
239,336,97,-287,70,217,146,204,253,244,102,58
244,336,92,-290,75,214,146,200,258,248,107,68
239,297,58,-268,90,178,131,180,268,268,107,58
209,278,68,-244,70,173,122,190,278,278,117,58
200,287,87,-244,56,187,117,190,302,307,131,68
214,326,112,-270,51,219,117,185,366,395,175,68
234,366,131,-300,51,248,117,204,453,531,234,78
234,380,146,-307,43,263,126,219,473,619,292,97
214,380,165,-297,24,273,126,180,292,561,341,151
219,380,161,-300,29,270,117,122,9,405,419,268
234,380,146,-307,43,263,92,48,-273,214,517,414
234,370,136,-302,48,253,58,-58,-585,-9,653,570
258,370,112,-314,73,241,19,-175,-907,-239,829,775
312,390,78,-351,117,234,-9,-287,-1234,-483,990,1000
351,405,53,-378,148,229,-58,-400,-1507,-736,1151,1215
395,400,4,-397,195,202,-122,-522,-1761,-961,1371,1473
439,419,-19,-429,229,200,-190,-678,-2010,-1151,1654,1805
473,444,-29,-458,251,207,-253,-878,-2259,-1346,1854,2103
502,463,-39,-483,270,212,-312,-1054,-2435,-1517,1995,2337
551,463,-87,-507,319,187,-370,-1190,-2522,-1615,2142,2547
580,483,-97,-531,339,192,-429,-1302,-2571,-1673,2259,2649
600,492,-107,-546,353,192,-492,-1415,-2615,-1751,2288,2605
624,497,-126,-561,375,185,-570,-1503,-2669,-1854,2215,2454
629,483,-146,-556,387,168,-634,-1571,-2718,-1942,2098,2264
600,453,-146,-527,373,153,-649,-1561,-2679,-1942,1956,2015
561,351,-209,-456,385,70,-590,-1410,-2493,-1834,1751,1673
531,200,-331,-366,431,-65,-492,-1224,-2259,-1703,1488,1302
492,107,-385,-300,439,-139,-409,-1112,-2054,-1620,1117,961
385,68,-317,-226,351,-124,-341,-1058,-1878,-1576,575,610
253,48,-204,-151,229,-78,-268,-1000,-1708,-1542,-48,190
156,43,-112,-100,134,-34,-209,-893,-1542,-1522,-702,-278
112,4,-107,-58,109,-51,-165,-756,-1366,-1473,-1224,-653
107,-29,-136,-39,122,-82,-141,-663,-1200,-1346,-1381,-751
107,-24,-131,-41,119,-78,-126,-590,-1049,-1215,-1249,-692
97,0,-97,-48,97,-48,-107,-502,-917,-1088,-1141,-683
58,-9,-68,-24,63,-39,-73,-414,-790,-995,-1098,-688
43,-24,-68,-9,56,-46,-43,-346,-697,-888,-1029,-668
63,-14,-78,-24,70,-46,-24,-273,-595,-766,-941,-653
43,-34,-78,-4,61,-56,-4,-175,-458,-614,-814,-614
34,-53,-87,9,61,-70,19,-97,-322,-473,-692,-551
39,-24,-63,-7,51,-43,34,-53,-219,-351,-590,-483
73,24,-48,-48,61,-12,48,-24,-141,-268,-512,-419
102,48,-53,-75,78,-2,58,0,-58,-195,-439,-356
117,73,-43,-95,80,14,68,39,19,-117,-370,-302
122,87,-34,-104,78,26,92,82,78,-48,-322,-287
122,92,-29,-107,75,31,117,107,107,-9,-283,-292
107,107,0,-107,53,53,122,126,136,43,-239,-273
97,126,29,-112,34,78,117,141,165,97,-200,-234
112,141,29,-126,41,85,131,151,190,122,-190,-224
131,131,0,-131,65,65,151,161,229,156,-156,-170
126,136,9,-131,58,73,165,175,263,195,-102,-126
117,156,39,-136,39,97,156,185,283,204,-92,-126
122,161,39,-141,41,100,146,185,273,204,-97,-131
126,165,39,-146,43,102,146,190,278,204,-92,-136
136,170,34,-153,51,102,146,200,278,214,-92,-141
146,170,24,-158,61,97,146,204,273,219,-82,-131
136,161,24,-148,56,92,141,200,273,219,-78,-126
136,146,9,-141,63,78,141,190,268,209,-78,-126
146,146,0,-146,73,73,141,180,268,209,-78,-126
136,146,9,-141,63,78,141,175,278,209,-73,-126
136,146,9,-141,63,78,156,190,292,219,-68,-117
131,151,19,-141,56,85,156,195,292,224,-68,-122
131,156,24,-143,53,90,156,204,287,229,-63,-122
141,165,24,-153,58,95,156,214,287,234,-63,-122
146,175,29,-161,58,102,146,214,278,224,-73,-122
156,175,19,-165,68,97,156,209,278,229,-63,-117
146,175,29,-161,58,102,165,204,287,244,-39,-102
146,185,39,-165,53,112,156,195,287,258,-39,-102
151,180,29,-165,61,104,161,195,297,248,-29,-92
151,175,24,-163,63,100,161,195,302,244,-43,-97
151,165,14,-158,68,90,161,195,302,244,-48,-97
151,161,9,-156,70,85,165,200,307,248,-48,-92
161,165,4,-163,78,85,161,204,307,253,-58,-112
161,161,0,-161,80,80,156,214,307,244,-68,-131
151,141,-9,-146,80,65,151,214,302,214,-82,-151
151,136,-14,-143,82,61,146,204,297,204,-92,-175
146,141,-4,-143,75,68,156,214,297,209,-82,-170
141,136,-4,-139,73,65,161,219,292,214,-82,-165
136,131,-4,-134,70,63,161,219,292,214,-78,-161
131,126,-4,-129,68,61,161,219,297,224,-73,-151
141,126,-14,-134,78,56,161,224,292,234,-73,-131
141,126,-14,-134,78,56,161,224,297,234,-68,-131
141,122,-19,-131,80,51,165,219,297,229,-68,-131
141,122,-19,-131,80,51,170,214,297,229,-58,-131
151,122,-29,-136,90,46,170,224,307,219,-63,-136
151,122,-29,-136,90,46,170,224,307,219,-68,-136
151,122,-29,-136,90,46,170,224,312,229,-73,-136
146,117,-29,-131,87,43,170,234,312,234,-78,-136
146,117,-29,-131,87,43,180,229,322,244,-63,-136
146,117,-29,-131,87,43,175,234,326,244,-63,-136
151,131,-19,-141,85,56,175,239,331,244,-63,-131
161,136,-24,-148,92,56,185,248,341,253,-58,-126
151,126,-24,-139,87,51,180,239,341,248,-63,-126
136,126,-9,-131,73,58,175,244,336,253,-63,-126
136,126,-9,-131,73,58,170,244,341,258,-63,-126
146,131,-14,-139,80,58,165,244,346,268,-63,-122
141,126,-14,-134,78,56,180,253,366,287,-53,-112
131,122,-9,-126,70,56,180,253,366,287,-48,-112
122,117,-4,-119,63,56,170,253,366,287,-43,-112
117,126,9,-122,53,68,170,263,370,297,-43,-107
131,136,4,-134,63,70,185,278,390,317,-39,-112
141,146,4,-143,68,75,190,283,395,322,-29,-102
146,156,9,-151,68,82,190,287,414,331,-9,-97
156,175,19,-165,68,97,185,287,419,346,0,-92
165,195,29,-180,68,112,185,278,424,351,4,-82
175,204,29,-190,73,117,185,278,439,361,14,-78
180,214,34,-197,73,124,185,283,453,370,19,-73
185,219,34,-202,75,126,185,287,458,385,24,-73
180,239,58,-209,61,148,195,287,473,409,43,-73
180,244,63,-212,58,153,190,297,483,419,48,-73
180,253,73,-217,53,163,190,302,488,419,48,-73
185,263,78,-224,53,170,190,307,492,424,63,-73
175,253,78,-214,48,165,200,317,512,448,82,-53
170,253,82,-212,43,168,204,326,527,468,87,-43
170,253,82,-212,43,168,214,336,541,478,97,-39
170,253,82,-212,43,168,224,346,556,488,107,-24
161,248,87,-204,36,168,214,346,566,492,117,-19
146,244,97,-195,24,170,209,351,575,507,122,-19
131,229,97,-180,17,163,200,351,575,512,136,-9
122,209,87,-165,17,148,195,346,595,522,141,0
102,200,97,-151,2,148,180,326,590,512,146,-4
102,204,102,-153,0,153,165,317,585,517,146,4
107,214,107,-161,0,161,156,302,580,517,151,14
87,214,126,-151,-19,170,146,292,575,527,161,19
87,204,117,-146,-14,161,126,292,585,531,165,34
97,214,117,-156,-9,165,126,292,585,536,180,43
97,214,117,-156,-9,165,126,302,585,541,190,48
102,209,107,-156,-2,158,126,297,580,546,209,48
122,209,87,-165,17,148,122,297,585,551,209,48
126,209,82,-168,21,146,122,297,590,546,219,53
126,204,78,-165,24,141,122,297,600,541,224,63
131,200,68,-165,31,134,117,297,605,541,224,73
122,200,78,-161,21,139,107,302,614,546,244,97
122,200,78,-161,21,139,107,302,614,551,248,102
126,209,82,-168,21,146,97,302,614,556,268,117
122,214,92,-168,14,153,92,302,614,556,278,126
131,219,87,-175,21,153,102,302,619,556,287,141
136,224,87,-180,24,156,102,302,614,556,292,156
141,234,92,-187,24,163,102,302,610,556,297,165
151,239,87,-195,31,163,102,302,610,546,297,175
146,224,78,-185,34,151,92,283,605,536,302,161
141,209,68,-175,36,139,92,283,595,527,302,156
136,200,63,-168,36,131,87,283,580,527,302,156
141,200,58,-170,41,129,82,273,570,517,302,146
161,209,48,-185,56,129,68,273,561,507,302,151
161,214,53,-187,53,134,68,273,556,497,302,156
161,214,53,-187,53,134,68,273,541,492,302,161
146,204,58,-175,43,131,73,273,531,483,302,175
156,204,48,-180,53,126,73,268,502,458,302,170
161,209,48,-185,56,129,73,253,483,444,297,170
165,214,48,-190,58,131,78,253,468,439,287,175
170,214,43,-192,63,129,78,244,444,419,268,165
141,200,58,-170,41,129,68,244,444,409,258,161
141,190,48,-165,46,119,68,234,419,400,248,161
141,180,39,-161,51,109,68,224,400,375,239,146
136,175,39,-156,48,107,73,219,390,366,234,136
136,190,53,-163,41,122,82,229,380,356,219,131
136,190,53,-163,41,122,82,224,366,336,204,126
136,180,43,-158,46,112,82,214,351,322,190,122
131,180,48,-156,41,114,73,204,336,312,185,117
112,175,63,-143,24,119,73,204,317,297,161,107
102,165,63,-134,19,114,73,204,307,278,156,92
117,156,39,-136,39,97,73,200,302,258,141,78
107,151,43,-129,31,97,73,195,292,244,131,63
107,136,29,-122,39,82,78,195,283,248,136,78
102,131,29,-117,36,80,78,190,268,248,136,82
97,112,14,-104,41,63,82,185,258,239,136,78
97,107,9,-102,43,58,82,180,248,234,131,68
87,112,24,-100,31,68,68,175,248,219,117,58
87,122,34,-104,26,78,68,175,244,214,97,58
87,126,39,-107,24,82,73,175,239,204,92,58
82,131,48,-107,17,90,73,175,239,200,82,48
82,117,34,-100,24,75,63,170,219,185,68,29
82,117,34,-100,24,75,68,170,214,180,63,19
82,107,24,-95,29,65,82,175,214,175,63,14
68,97,29,-82,19,63,82,175,209,175,63,4
78,102,24,-90,26,63,92,175,204,185,63,9
78,122,43,-100,17,82,92,175,204,185,63,24
82,131,48,-107,17,90,92,170,204,185,63,29
87,136,48,-112,19,92,92,170,200,185,58,34
87,136,48,-112,19,92,92,165,200,170,53,24
87,131,43,-109,21,87,92,165,200,165,53,19
73,131,58,-102,7,95,87,165,190,156,53,14
82,131,48,-107,17,90,87,165,190,146,58,9
73,126,53,-100,9,90,82,161,190,151,53,9
68,131,63,-100,2,97,82,161,185,151,39,0
68,112,43,-90,12,78,87,161,180,146,34,0
73,107,34,-90,19,70,87,165,180,146,29,-4
78,97,19,-87,29,58,87,156,175,141,29,0
82,107,24,-95,29,65,82,156,175,136,24,0
82,107,24,-95,29,65,82,156,180,136,29,0
78,92,14,-85,31,53,78,156,180,126,29,0
73,73,0,-73,36,36,82,161,180,117,19,-4
68,87,19,-78,24,53,82,161,175,126,24,-4
68,97,29,-82,19,63,87,161,170,126,34,-9
63,82,19,-73,21,51,87,161,170,131,34,-9
48,68,19,-58,14,43,87,165,165,131,24,-4
48,73,24,-61,12,48,82,165,175,131,24,-4
58,97,39,-78,9,68,82,165,180,131,14,-19
73,102,29,-87,21,65,87,165,180,131,14,-9
68,102,34,-85,17,68,97,165,180,131,14,0
63,107,43,-85,9,75,97,165,180,126,19,-9
63,112,48,-87,7,80,97,165,180,126,19,-9
63,117,53,-90,4,85,97,165,180,131,19,-9
73,117,43,-95,14,80,87,170,185,141,34,0
73,107,34,-90,19,70,97,170,185,141,29,0
53,97,43,-75,4,70,102,170,190,146,29,14
58,87,29,-73,14,58,97,165,195,156,39,19
58,82,24,-70,17,53,87,165,185,146,34,14
58,78,19,-68,19,48,87,165,185,146,29,9
58,73,14,-65,21,43,87,165,185,146,24,4
58,68,9,-63,24,39,87,165,185,146,19,0
68,63,-4,-65,36,29,87,165,185,136,9,-9
58,58,0,-58,29,29,87,165,185,136,4,-19
58,48,-9,-53,34,19,87,170,185,136,0,-29
58,39,-19,-48,39,9,87,170,185,136,-4,-39
58,39,-19,-48,39,9,102,180,200,141,-14,-24
58,29,-29,-43,43,0,107,180,200,146,-14,-19
48,39,-9,-43,29,14,107,180,204,146,-14,-14
43,53,9,-48,17,31,107,185,209,156,-14,-4
34,48,14,-41,9,31,107,185,219,165,-24,-14
39,43,4,-41,17,24,107,185,219,165,-14,-14
34,43,9,-39,12,26,117,185,219,165,0,-4
24,39,14,-31,4,26,117,185,219,161,4,-4
29,43,14,-36,7,29,126,190,204,161,4,-19
39,53,14,-46,12,34,122,190,204,161,-4,-29
48,58,9,-53,19,34,122,190,204,156,-9,-34
58,63,4,-61,26,34,122,195,214,156,-9,-39
53,63,9,-58,21,36,117,200,229,170,-9,-29
48,53,4,-51,21,29,117,200,229,175,-4,-29
43,43,0,-43,21,21,112,204,219,180,0,-24
39,43,4,-41,17,24,107,204,219,185,0,-24
39,39,0,-39,19,19,112,200,224,185,0,-19
43,48,4,-46,19,26,112,200,229,190,4,-19
53,58,4,-56,24,31,112,200,234,200,9,-14
68,63,-4,-65,36,29,112,200,239,200,14,-14
68,82,14,-75,26,48,112,209,244,204,34,0
63,82,19,-73,21,51,117,209,248,214,39,4
63,92,29,-78,17,61,122,214,268,224,43,14
63,102,39,-82,12,70,122,214,287,239,53,19
68,112,43,-90,12,78,122,209,278,244,53,9
68,112,43,-90,12,78,122,209,283,244,48,9
73,112,39,-92,17,75,122,204,283,244,48,4
68,112,43,-90,12,78,122,204,283,248,53,4
87,102,14,-95,36,58,131,209,287,268,73,19
87,117,29,-102,29,73,131,214,297,273,78,39
102,122,19,-112,41,70,131,209,302,278,82,48
92,126,34,-109,29,80,131,214,317,292,102,58
87,136,48,-112,19,92,141,214,317,307,112,78
82,136,53,-109,14,95,141,219,317,307,122,87
78,146,68,-112,4,107,141,219,326,312,126,92
73,146,73,-109,0,109,136,219,317,312,131,92
63,151,87,-107,-12,119,136,224,331,322,141,87
63,156,92,-109,-14,124,141,229,331,322,151,82
63,156,92,-109,-14,124,156,229,336,322,151,82
63,151,87,-107,-12,119,161,234,341,322,151,78
58,151,92,-104,-17,122,161,239,351,326,165,87
58,151,92,-104,-17,122,161,239,351,331,165,102
58,161,102,-109,-21,131,161,244,351,331,165,107
58,175,117,-117,-29,146,161,248,351,331,170,112
63,180,117,-122,-26,148,146,239,336,322,161,122
68,185,117,-126,-24,151,141,229,331,317,156,112
73,190,117,-131,-21,153,136,219,322,312,156,112
73,185,112,-129,-19,148,126,209,317,312,156,117
82,185,102,-134,-9,143,117,200,302,312,146,112
87,195,107,-141,-9,151,112,190,297,307,151,112
87,195,107,-141,-9,151,102,185,292,302,151,107
78,195,117,-136,-19,156,92,175,292,297,151,102
78,180,102,-129,-12,141,82,165,283,283,136,92
82,180,97,-131,-7,139,82,165,278,278,131,92
87,185,97,-136,-4,141,82,165,273,273,126,87
87,170,82,-129,2,126,73,165,268,263,122,82
78,180,102,-129,-12,141,82,161,273,268,131,82
78,170,92,-124,-7,131,82,161,263,268,122,78
78,165,87,-122,-4,126,87,156,258,268,122,78
68,161,92,-114,-12,126,82,151,248,258,112,73
63,156,92,-109,-14,124,73,161,258,253,122,78
58,136,78,-97,-9,107,73,161,258,253,122,92
58,141,82,-100,-12,112,68,161,258,253,122,97
73,136,63,-104,4,100,68,161,253,253,122,102
73,131,58,-102,7,95,73,161,253,253,126,102
73,126,53,-100,9,90,73,161,253,253,126,97
68,117,48,-92,9,82,73,161,253,253,126,92
68,112,43,-90,12,78,58,161,253,253,122,73
58,102,43,-80,7,73,78,161,244,248,112,73
58,102,43,-80,7,73,78,161,244,248,107,73
68,112,43,-90,12,78,78,161,244,244,107,73
68,112,43,-90,12,78,78,161,244,229,107,73
63,102,39,-82,12,70,78,151,239,219,102,58
63,92,29,-78,17,61,78,151,234,219,97,58
68,92,24,-80,21,58,78,151,229,219,92,58
73,92,19,-82,26,56,78,156,224,219,87,58
78,102,24,-90,26,63,87,165,229,219,97,63
78,102,24,-90,26,63,87,161,229,219,97,68
73,107,34,-90,19,70,92,161,229,219,97,73
73,112,39,-92,17,75,92,161,229,219,97,78
92,122,29,-107,31,75,87,161,234,229,112,97
68,112,43,-90,12,78,87,156,258,248,107,97
58,102,43,-80,7,73,87,156,287,287,117,87
39,97,58,-68,-9,78,87,161,366,375,146,97
9,87,78,-48,-34,82,97,170,458,492,204,112
24,97,73,-61,-24,85,87,180,429,541,273,161
87,126,39,-107,24,82,73,146,214,468,351,258
136,146,9,-141,63,78,58,87,-68,331,458,395
151,146,-4,-148,78,70,39,9,-351,151,575,541
156,136,-19,-146,87,58,0,-102,-678,-63,717,717
165,141,-24,-153,95,58,-39,-224,-1029,-317,868,922
170,175,4,-173,82,90,-63,-346,-1351,-590,990,1141
214,185,-29,-200,122,78,-102,-453,-1600,-839,1166,1415
278,200,-78,-239,178,61,-165,-605,-1859,-1054,1395,1722
317,219,-97,-268,207,61,-263,-819,-2152,-1293,1595,2015
366,239,-126,-302,246,56,-351,-1044,-2396,-1498,1751,2244
414,229,-185,-322,300,21,-429,-1215,-2542,-1625,1878,2405
453,248,-204,-351,329,21,-502,-1356,-2605,-1712,1947,2449
478,263,-214,-370,346,24,-531,-1464,-2640,-1776,1942,2386
502,287,-214,-395,358,36,-575,-1542,-2679,-1873,1873,2244
512,317,-195,-414,353,61,-629,-1600,-2727,-1971,1761,2064
502,292,-209,-397,356,41,-649,-1586,-2698,-1981,1644,1820
463,151,-312,-307,387,-80,-600,-1468,-2542,-1898,1478,1468
434,-9,-444,-212,439,-226,-527,-1278,-2347,-1795,1215,1068
375,-78,-453,-148,414,-265,-458,-1156,-2171,-1742,819,697
253,-97,-351,-78,302,-224,-385,-1098,-1991,-1698,273,326
117,-102,-219,-7,168,-161,-287,-1049,-1795,-1639,-302,-53
34,-102,-136,34,85,-119,-214,-941,-1600,-1590,-873,-429
9,-126,-136,58,73,-131,-161,-810,-1424,-1532,-1322,-712
19,-151,-170,65,95,-161,-126,-707,-1263,-1429,-1444,-761
9,-136,-146,63,78,-141,-107,-629,-1102,-1273,-1298,-692
0,-126,-126,63,63,-126,-102,-561,-966,-1141,-1185,-697
-14,-141,-126,78,56,-134,-102,-492,-863,-1034,-1137,-707
-43,-151,-107,97,31,-129,-102,-429,-761,-922,-1058,-683
-43,-151,-107,97,31,-129,-73,-322,-624,-780,-941,-624
-34,-141,-107,87,36,-124,-19,-185,-458,-610,-780,-541
-29,-131,-102,80,36,-117,43,-82,-307,-458,-629,-444
-14,-122,-107,68,46,-114,87,-24,-200,-356,-551,-390
14,-117,-131,51,73,-124,87,-9,-126,-283,-488,-366
19,-92,-112,36,65,-102,78,9,-58,-204,-409,-312
4,-107,-112,51,58,-109,63,14,-9,-136,-361,-287
-4,-112,-107,58,51,-109,48,29,19,-97,-351,-292
0,-68,-68,34,34,-68,73,78,87,-24,-287,-253
29,9,-19,-19,24,-4,126,141,165,58,-200,-175
63,53,-9,-58,36,21,151,180,200,102,-151,-136
63,14,-48,-39,56,-17,151,180,209,117,-117,-122
48,-19,-68,-14,58,-43,146,195,234,136,-92,-97
39,0,-39,-19,39,-19,146,185,263,156,-73,-78
53,24,-29,-39,41,-2,136,175,253,151,-82,-87
58,29,-29,-43,43,0,136,180,258,156,-82,-87
68,34,-34,-51,51,0,136,190,258,170,-87,-87
78,34,-43,-56,61,-4,136,195,253,180,-82,-73
68,34,-34,-51,51,0,136,200,258,200,-68,-78
58,19,-39,-39,48,-9,141,200,258,190,-68,-78
58,19,-39,-39,48,-9,146,200,263,190,-68,-78
39,19,-19,-29,29,0,151,204,278,190,-63,-78
34,9,-24,-21,29,-7,151,200,268,190,-63,-82
34,4,-29,-19,31,-12,146,195,263,185,-68,-92
39,0,-39,-19,39,-19,141,195,253,180,-68,-97
53,0,-53,-26,53,-26,136,195,248,175,-73,-102
48,-9,-58,-19,53,-34,146,204,253,165,-82,-87
58,-9,-68,-24,63,-39,156,209,258,170,-73,-78
48,-9,-58,-19,53,-34,165,214,273,185,-48,-58
48,0,-48,-24,48,-24,156,214,278,200,-48,-53
53,-4,-58,-24,56,-31,151,209,263,185,-48,-63
53,-9,-63,-21,58,-36,151,204,263,175,-63,-78
53,-19,-73,-17,63,-46,151,200,258,170,-68,-87
53,-24,-78,-14,65,-51,156,200,258,170,-68,-92
53,-14,-68,-19,61,-41,156,204,263,185,-58,-73
53,-14,-68,-19,61,-41,156,214,268,185,-58,-73
43,-29,-73,-7,58,-51,156,214,268,165,-63,-73
43,-29,-73,-7,58,-51,156,204,268,165,-63,-78
53,-19,-73,-17,63,-46,146,204,268,161,-63,-82
53,-19,-73,-17,63,-46,151,209,263,165,-63,-87
53,-19,-73,-17,63,-46,151,209,263,165,-58,-92
53,-19,-73,-17,63,-46,151,209,268,175,-53,-92
63,-4,-68,-29,65,-36,151,219,273,180,-53,-73
63,0,-63,-31,63,-31,151,224,278,185,-48,-73
63,0,-63,-31,63,-31,156,224,278,185,-48,-73
63,4,-58,-34,61,-26,161,224,278,190,-39,-73
68,14,-53,-41,61,-19,165,234,287,195,-24,-53
73,24,-48,-48,61,-12,170,234,297,200,-19,-48
78,34,-43,-56,61,-4,175,234,312,214,-14,-43
78,39,-39,-58,58,0,180,244,322,224,-9,-39
68,39,-29,-53,48,4,180,234,322,234,-4,-29
68,39,-29,-53,48,4,175,234,326,234,-4,-29
73,53,-19,-63,46,17,175,234,331,234,-4,-24
82,58,-24,-70,53,17,185,239,341,244,0,-19
73,53,-19,-63,46,17,180,229,341,239,0,-19
58,58,0,-58,29,29,175,234,336,244,4,-19
58,63,4,-61,26,34,170,234,341,248,9,-19
68,73,4,-70,31,39,165,234,346,258,14,-14
63,82,19,-73,21,51,180,239,361,287,34,0
63,82,19,-73,21,51,190,244,366,287,39,4
63,82,19,-73,21,51,190,248,370,287,43,9
68,97,29,-82,19,63,200,263,380,297,43,19
82,87,4,-85,39,46,214,278,395,297,53,19
82,87,4,-85,39,46,219,283,395,302,58,24
78,87,9,-82,34,48,219,287,409,312,73,24
78,97,19,-87,29,58,214,287,409,326,78,24
68,117,48,-92,9,82,204,278,414,341,87,29
68,117,48,-92,9,82,204,278,429,351,102,39
63,117,53,-90,4,85,204,283,444,361,112,48
58,112,53,-85,2,82,204,287,448,375,122,53
73,112,39,-92,17,75,195,273,448,370,122,48
73,107,34,-90,19,70,180,268,444,370,117,43
73,107,34,-90,19,70,170,258,434,361,107,39
78,107,29,-92,24,68,161,248,424,356,112,34
82,107,24,-95,29,65,156,239,434,366,126,48
82,107,24,-95,29,65,146,239,439,380,126,63
87,107,19,-97,34,63,141,239,444,385,131,73
92,107,14,-100,39,61,136,239,448,390,136,92
102,117,14,-109,43,65,141,244,468,405,156,107
107,126,19,-117,43,73,141,253,478,419,170,107
112,126,14,-119,48,70,136,258,478,424,195,117
122,122,0,-122,61,61,136,258,497,434,209,126
117,112,-4,-114,61,53,131,263,512,439,224,117
122,117,-4,-119,63,56,126,268,517,448,224,131
131,126,-4,-129,68,61,126,268,522,453,229,146
117,126,9,-122,53,68,126,273,527,468,239,156
107,107,0,-107,53,53,117,287,551,483,248,161
117,117,0,-117,58,58,117,292,556,488,268,170
117,117,0,-117,58,58,117,307,561,492,283,175
122,112,-9,-117,65,51,117,307,561,497,307,175
131,112,-19,-122,75,46,122,297,566,497,317,190
136,112,-24,-124,80,43,122,297,570,497,326,200
136,107,-29,-122,82,39,122,297,580,497,331,214
141,102,-39,-122,90,31,117,297,585,502,331,229
141,102,-39,-122,90,31,117,302,580,492,336,229
141,102,-39,-122,90,31,117,302,575,492,336,229
146,112,-34,-129,90,39,107,302,570,492,351,239
141,117,-24,-129,82,46,102,302,566,488,356,244
151,102,-48,-126,100,26,102,292,566,497,356,244
146,97,-48,-122,97,24,102,292,566,497,361,253
141,97,-43,-119,92,26,102,292,566,497,366,258
141,92,-48,-117,95,21,102,292,570,488,366,263
141,97,-43,-119,92,26,82,273,561,468,351,258
141,92,-48,-117,95,21,82,273,546,458,351,263
141,92,-48,-117,95,21,78,273,527,458,351,273
151,102,-48,-126,100,26,73,263,512,448,351,273
161,102,-58,-131,109,21,78,268,507,439,341,263
161,107,-53,-134,107,26,78,263,507,429,341,263
161,107,-53,-134,107,26,78,258,497,424,341,263
146,97,-48,-122,97,24,82,253,492,414,341,273
131,92,-39,-112,85,26,82,258,483,409,322,253
131,92,-39,-112,85,26,82,244,463,395,317,248
131,92,-39,-112,85,26,87,244,448,390,307,248
131,87,-43,-109,87,21,87,234,424,370,287,234
122,68,-53,-95,87,7,97,239,419,361,273,229
122,63,-58,-92,90,2,97,234,400,351,258,229
122,58,-63,-90,92,-2,97,229,385,326,244,214
117,58,-58,-87,87,0,102,229,380,317,234,204
117,63,-53,-90,85,4,102,229,370,317,229,190
117,63,-53,-90,85,4,102,224,356,297,214,175
117,53,-63,-85,90,-4,102,214,341,283,200,161
112,53,-58,-82,85,-2,92,204,326,273,195,146
112,53,-58,-82,85,-2,92,214,307,263,165,136
102,48,-53,-75,78,-2,92,214,297,248,156,122
117,43,-73,-80,95,-14,92,209,292,234,136,107
107,43,-63,-75,85,-9,92,204,283,224,122,92
107,48,-58,-78,82,-4,97,204,273,214,112,92
102,53,-48,-78,75,2,97,200,258,209,107,92
97,43,-53,-70,75,-4,102,195,248,195,102,82
97,48,-48,-73,73,0,102,190,239,185,92,68
87,34,-53,-61,70,-9,107,195,239,190,92,78
87,34,-53,-61,70,-9,107,195,234,185,78,78
87,29,-58,-58,73,-14,112,195,229,175,78,78
82,24,-58,-53,70,-17,112,195,229,170,73,68
92,24,-68,-58,80,-21,112,180,214,175,68,73
92,29,-63,-61,78,-17,117,180,214,170,63,68
92,24,-68,-58,80,-21,131,185,219,165,63,68
78,19,-58,-48,68,-19,131,185,219,165,63,63
78,9,-68,-43,73,-29,122,195,214,165,53,53
68,14,-53,-41,61,-19,122,195,214,165,53,63
63,9,-53,-36,58,-21,122,190,214,165,53,63
58,0,-58,-29,58,-29,122,190,209,165,48,63
68,4,-63,-36,65,-29,126,195,214,165,48,68
68,4,-63,-36,65,-29,131,195,219,165,53,68
53,9,-43,-31,48,-17,131,195,214,161,58,68
63,14,-48,-39,56,-17,136,195,219,156,68,68
58,9,-48,-34,53,-19,136,190,219,151,58,68
48,14,-34,-31,41,-9,131,190,214,151,48,58
43,-4,-48,-19,46,-26,131,190,209,146,48,58
43,-9,-53,-17,48,-31,126,195,209,146,48,53
53,0,-53,-26,53,-26,131,195,214,151,53,48
53,9,-43,-31,48,-17,131,195,214,146,43,48
48,9,-39,-29,43,-14,136,195,219,146,43,48
39,-4,-43,-17,41,-24,136,195,219,136,39,48
53,-4,-58,-24,56,-31,141,195,214,146,48,63
58,9,-48,-34,53,-19,141,200,214,156,53,63
68,19,-48,-43,58,-14,146,204,214,156,63,58
73,4,-68,-39,70,-31,146,209,219,161,63,58
43,-19,-63,-12,53,-41,146,204,214,151,53,63
39,-24,-63,-7,51,-43,141,204,224,151,53,63
43,-9,-53,-17,48,-31,141,204,229,151,43,48
53,-14,-68,-19,61,-41,146,204,229,151,43,58
29,-24,-53,-2,41,-39,146,204,219,141,34,43
24,-29,-53,2,39,-41,146,204,219,136,39,29
24,-34,-58,4,41,-46,146,204,219,136,39,24
24,-39,-63,7,43,-51,146,204,219,141,39,19
14,-87,-102,36,58,-95,136,190,195,112,14,-19
4,-78,-82,36,43,-80,136,190,204,112,0,0
29,-48,-78,9,53,-63,146,204,204,117,-9,19
29,-43,-73,7,51,-58,156,204,214,126,0,9
29,-39,-68,4,48,-53,156,204,214,126,0,9
29,-34,-63,2,46,-48,156,204,214,126,0,9
29,-29,-58,0,43,-43,156,204,214,126,0,9
29,-24,-53,-2,41,-39,156,204,214,126,0,14
19,-29,-48,4,34,-39,156,204,214,126,4,19
19,-39,-58,9,39,-48,156,209,214,126,9,24
19,-48,-68,14,43,-58,156,209,214,126,14,29
19,-48,-68,14,43,-58,151,209,219,122,14,19
19,-58,-78,19,48,-68,156,209,219,126,14,19
9,-48,-58,19,34,-53,156,209,224,126,14,19
4,-34,-39,14,21,-36,156,214,229,136,14,24
9,-24,-34,7,21,-29,146,204,219,136,24,34
29,-24,-53,-2,41,-39,146,204,219,136,34,34
39,-19,-58,-9,48,-39,156,204,219,136,48,43
43,-19,-63,-12,53,-41,156,204,219,131,53,43
29,-9,-39,-9,34,-24,165,219,219,141,63,39
29,-4,-34,-12,31,-19,161,219,224,151,53,39
29,-4,-34,-12,31,-19,161,219,229,156,48,43
29,-4,-34,-12,31,-19,161,224,244,165,48,48
39,9,-29,-24,34,-9,161,219,248,185,63,63
39,4,-34,-21,36,-14,165,219,248,185,73,68
39,0,-39,-19,39,-19,165,224,239,185,82,78
39,4,-34,-21,36,-14,165,224,239,185,87,82
34,9,-24,-21,29,-7,170,219,244,185,87,87
34,19,-14,-26,24,2,170,219,248,190,92,87
39,29,-9,-34,24,9,170,219,253,200,97,92
48,34,-14,-41,31,9,170,219,258,200,102,92
48,48,0,-48,24,24,175,224,268,209,112,97
43,43,0,-43,21,21,185,229,278,214,117,102
43,48,4,-46,19,26,195,239,302,219,122,112
43,53,9,-48,17,31,200,244,326,229,131,117
48,53,4,-51,21,29,200,258,322,234,136,126
48,53,4,-51,21,29,200,258,322,234,136,126
53,53,0,-53,26,26,200,253,317,234,141,122
48,53,4,-51,21,29,200,253,312,239,151,122
58,63,4,-61,26,34,195,239,312,244,165,136
58,87,29,-73,14,58,190,234,317,244,165,146
73,102,29,-87,21,65,185,219,317,244,165,146
63,117,53,-90,4,85,180,214,326,253,180,146
48,107,58,-78,-4,82,165,200,312,244,175,146
43,97,53,-70,-4,75,161,200,297,239,170,146
39,97,58,-68,-9,78,156,195,292,239,161,141
34,87,53,-61,-9,70,146,190,268,234,151,131
24,82,58,-53,-17,70,126,180,253,224,141,122
24,78,53,-51,-14,65,122,170,244,214,141,122
24,68,43,-46,-9,56,126,156,239,204,131,126
24,53,29,-39,-2,41,122,146,234,195,122,126
34,63,29,-48,2,46,131,151,239,209,131,122
39,63,24,-51,7,43,131,151,244,214,136,131
43,73,29,-58,7,51,131,156,248,214,141,131
48,87,39,-68,4,63,131,161,253,214,151,131
48,73,24,-61,12,48,126,170,253,214,141,122
48,68,19,-58,14,43,122,170,253,209,136,112
48,63,14,-56,17,39,117,170,248,204,136,112
43,48,4,-46,19,26,107,170,248,204,136,117
39,34,-4,-36,21,14,107,161,248,209,126,117
39,39,0,-39,19,19,112,161,248,209,131,122
34,34,0,-34,17,17,112,165,248,209,131,122
