I,II,III,aVR,aVL,aVF,V1,V2,V3,V4,V5,V6
87,312,224,-200,-68,268,195,253,478,566,536,361
87,312,224,-200,-68,268,195,253,478,566,536,361
87,312,224,-200,-68,268,195,253,478,566,536,361
87,312,224,-200,-68,268,195,253,478,566,536,361
97,297,200,-197,-51,248,180,234,444,522,497,346
97,283,185,-190,-43,234,175,214,409,488,468,331
97,268,170,-183,-36,219,170,195,375,453,439,317
97,253,156,-175,-29,204,165,175,341,419,409,302
102,244,141,-173,-19,192,161,156,312,390,385,287
107,244,136,-175,-14,190,156,146,292,370,370,283
112,244,131,-178,-9,187,151,136,273,351,356,278
117,244,126,-180,-4,185,146,126,253,331,341,273
122,229,107,-175,7,168,136,117,234,312,317,263
126,224,97,-175,14,161,136,107,214,292,302,253
131,219,87,-175,21,153,136,97,195,273,287,244
136,214,78,-175,29,146,136,87,175,253,273,234
136,200,63,-168,36,131,131,78,165,234,253,219
136,195,58,-165,39,126,126,78,156,224,244,214
136,190,53,-163,41,122,122,78,146,214,234,209
136,185,48,-161,43,117,117,78,136,204,224,204
136,180,43,-158,46,112,117,73,122,195,214,200
136,175,39,-156,48,107,117,68,117,185,204,195
136,170,34,-153,51,102,117,63,112,175,195,190
136,165,29,-151,53,97,117,58,107,165,185,185
146,156,9,-151,68,82,117,58,97,151,170,180
146,156,9,-151,68,82,117,58,97,146,165,175
146,156,9,-151,68,82,117,58,97,141,161,170
146,156,9,-151,68,82,117,58,97,136,156,165
146,146,0,-146,73,73,102,58,87,126,146,161
146,146,0,-146,73,73,97,58,87,126,146,156
146,146,0,-146,73,73,92,58,87,126,146,151
146,146,0,-146,73,73,87,58,87,126,146,146
156,136,-19,-146,87,58,73,48,87,117,141,136
156,136,-19,-146,87,58,68,48,87,117,136,136
156,136,-19,-146,87,58,63,48,87,117,131,136
156,136,-19,-146,87,58,58,48,87,117,126,136
165,136,-29,-151,97,53,58,58,87,117,126,136
165,136,-29,-151,97,53,58,58,87,117,126,136
165,136,-29,-151,97,53,58,58,87,117,126,136
165,136,-29,-151,97,53,58,58,87,117,126,136
165,136,-29,-151,97,53,48,68,97,117,117,126
165,136,-29,-151,97,53,48,68,97,117,117,126
165,136,-29,-151,97,53,48,68,97,117,117,126
165,136,-29,-151,97,53,48,68,97,117,117,126
165,136,-29,-151,97,53,48,73,102,122,126,136
165,136,-29,-151,97,53,48,78,107,126,126,136
165,136,-29,-151,97,53,48,82,112,131,126,136
165,136,-29,-151,97,53,48,87,117,136,126,136
165,136,-29,-151,97,53,39,92,122,136,126,136
165,136,-29,-151,97,53,39,97,126,136,126,136
165,136,-29,-151,97,53,39,102,131,136,126,136
165,136,-29,-151,97,53,39,107,136,136,126,136
165,146,-19,-156,92,63,29,122,146,141,136,146
165,146,-19,-156,92,63,29,126,146,146,136,146
165,146,-19,-156,92,63,29,131,146,151,136,146
165,146,-19,-156,92,63,29,136,146,156,136,146
165,156,-9,-161,87,73,19,146,156,165,146,156
165,156,-9,-161,87,73,19,146,156,165,146,156
165,156,-9,-161,87,73,19,146,156,165,146,156
165,156,-9,-161,87,73,19,146,156,165,146,156
175,161,-14,-168,95,73,24,141,165,175,156,165
175,165,-9,-170,92,78,29,136,165,175,156,165
175,170,-4,-173,90,82,34,131,165,175,156,165
175,175,0,-175,87,87,39,126,165,175,156,165
170,165,-4,-168,87,80,43,117,156,185,165,156
165,165,0,-165,82,82,48,107,156,185,165,156
161,165,4,-163,78,85,53,97,156,185,165,156
156,165,9,-161,73,87,58,87,156,185,165,156
156,165,9,-161,73,87,73,82,156,185,175,165
156,165,9,-161,73,87,78,78,156,185,175,165
156,165,9,-161,73,87,82,73,156,185,175,165
156,165,9,-161,73,87,87,68,156,185,175,165
146,170,24,-158,61,97,102,68,156,195,185,165
146,175,29,-161,58,102,107,68,156,195,185,165
146,180,34,-163,56,107,112,68,156,195,185,165
146,185,39,-165,53,112,117,68,156,195,185,165
141,170,29,-156,56,100,131,78,146,185,175,165
136,165,29,-151,53,97,136,78,146,185,175,165
131,161,29,-146,51,95,141,78,146,185,175,165
126,156,29,-141,48,92,146,78,146,185,175,165
136,156,19,-146,58,87,136,73,141,180,165,161
136,156,19,-146,58,87,136,68,136,175,165,156
136,156,19,-146,58,87,136,63,131,170,165,151
136,156,19,-146,58,87,136,58,126,165,165,146
146,156,9,-151,68,82,126,58,117,165,165,146
146,156,9,-151,68,82,126,58,117,165,165,146
146,156,9,-151,68,82,126,58,117,165,165,146
146,156,9,-151,68,82,126,58,117,165,165,146
146,156,9,-151,68,82,126,58,107,156,165,146
146,156,9,-151,68,82,126,58,107,156,165,146
146,156,9,-151,68,82,126,58,107,156,165,146
146,156,9,-151,68,82,126,58,107,156,165,146
146,156,9,-151,68,82,122,48,107,156,165,146
146,156,9,-151,68,82,117,48,107,156,165,146
146,156,9,-151,68,82,112,48,107,156,165,146
146,156,9,-151,68,82,107,48,107,156,165,146
146,146,0,-146,73,73,92,48,97,146,165,146
146,146,0,-146,73,73,87,48,97,146,165,146
146,146,0,-146,73,73,82,48,97,146,165,146
146,146,0,-146,73,73,78,48,97,146,165,146
146,146,0,-146,73,73,73,58,87,136,165,146
146,146,0,-146,73,73,68,58,87,136,165,146
146,146,0,-146,73,73,63,58,87,136,165,146
146,146,0,-146,73,73,58,58,87,136,165,146
156,146,-9,-151,82,68,58,68,87,126,156,146
156,146,-9,-151,82,68,58,68,87,126,156,146
156,146,-9,-151,82,68,58,68,87,126,156,146
156,146,-9,-151,82,68,58,68,87,126,156,146
165,146,-19,-156,92,63,48,68,87,117,156,136
165,146,-19,-156,92,63,48,68,87,117,156,136
165,146,-19,-156,92,63,48,68,87,117,156,136
165,146,-19,-156,92,63,48,68,87,117,156,136
156,141,-14,-148,85,63,43,68,82,107,151,126
156,136,-19,-146,87,58,39,68,78,107,146,126
156,131,-24,-143,90,53,34,68,73,107,141,126
156,126,-29,-141,92,48,29,68,68,107,136,126
156,126,-29,-141,92,48,29,68,58,107,136,126
156,126,-29,-141,92,48,29,68,58,107,136,126
156,126,-29,-141,92,48,29,68,58,107,136,126
156,126,-29,-141,92,48,29,68,58,107,136,126
156,126,-29,-141,92,48,39,68,58,97,126,126
156,126,-29,-141,92,48,39,68,58,97,126,126
156,126,-29,-141,92,48,39,68,58,97,126,126
156,126,-29,-141,92,48,39,68,58,97,126,126
156,126,-29,-141,92,48,39,68,48,87,126,117
156,126,-29,-141,92,48,39,68,48,87,126,117
156,126,-29,-141,92,48,39,68,48,87,126,117
156,126,-29,-141,92,48,39,68,48,87,126,117
156,136,-19,-146,87,58,48,68,48,87,126,117
156,136,-19,-146,87,58,48,68,48,87,126,117
156,136,-19,-146,87,58,48,68,48,87,126,117
156,136,-19,-146,87,58,48,68,48,87,126,117
156,136,-19,-146,87,58,58,68,48,87,126,117
156,136,-19,-146,87,58,58,68,48,87,126,117
156,136,-19,-146,87,58,58,68,48,87,126,117
156,136,-19,-146,87,58,58,68,48,87,126,117
156,146,-9,-151,82,68,68,58,39,87,126,117
156,146,-9,-151,82,68,68,58,39,87,126,117
156,146,-9,-151,82,68,68,58,39,87,126,117
156,146,-9,-151,82,68,68,58,39,87,126,117
146,146,0,-146,73,73,73,53,39,87,126,117
146,146,0,-146,73,73,78,48,39,87,126,117
146,146,0,-146,73,73,82,43,39,87,126,117
146,146,0,-146,73,73,87,43,39,87,126,117
156,146,-9,-151,82,68,87,34,39,87,126,117
156,146,-9,-151,82,68,87,34,39,87,126,117
156,146,-9,-151,82,68,87,34,39,87,126,117
156,146,-9,-151,82,68,92,34,39,87,126,117
146,146,0,-146,73,73,102,29,39,78,126,112
146,146,0,-146,73,73,102,24,39,78,126,107
146,146,0,-146,73,73,102,24,29,78,126,107
146,146,0,-146,73,73,102,24,29,78,126,107
141,146,4,-143,68,75,112,34,29,87,122,112
141,146,4,-143,68,75,112,34,29,82,122,112
146,146,0,-146,73,73,112,29,24,82,122,112
146,146,0,-146,73,73,112,29,24,87,122,112
146,146,0,-146,73,73,122,29,29,78,122,112
146,146,0,-146,73,73,122,29,29,78,122,117
136,146,9,-141,63,78,122,29,29,78,122,117
136,151,14,-143,61,82,122,29,29,78,122,117
141,151,9,-146,65,80,126,34,39,87,122,117
146,151,4,-148,70,78,126,34,39,87,122,112
146,151,4,-148,70,78,126,34,34,87,122,112
146,151,4,-148,70,78,122,34,34,87,122,112
136,141,4,-139,65,73,112,34,24,73,117,112
136,141,4,-139,65,73,112,34,24,73,112,112
136,141,4,-139,65,73,107,34,19,68,112,107
136,141,4,-139,65,73,102,29,19,68,112,107
136,136,0,-136,68,68,92,19,9,63,107,102
136,131,-4,-134,70,63,82,14,4,63,102,97
136,126,-9,-131,73,58,63,9,4,58,97,92
136,122,-14,-129,75,53,48,9,9,58,92,87
146,136,-9,-141,78,63,29,19,19,68,107,97
146,136,-9,-141,78,63,19,19,24,68,107,102
146,131,-14,-139,80,58,9,24,24,68,107,107
146,131,-14,-139,80,58,4,24,24,73,107,112
156,122,-34,-139,95,43,-4,24,24,73,97,102
156,122,-34,-139,95,43,-9,24,24,73,97,102
156,122,-34,-139,95,43,-9,24,24,73,97,102
156,122,-34,-139,95,43,-14,24,24,73,97,102
165,126,-39,-146,102,43,-19,34,24,73,107,107
165,126,-39,-146,102,43,-24,34,24,73,112,112
165,131,-34,-148,100,48,-29,34,24,68,112,117
165,136,-29,-151,97,53,-34,34,24,68,107,122
165,126,-39,-146,102,43,-43,34,24,73,107,112
170,126,-43,-148,107,41,-39,34,24,73,107,112
170,126,-43,-148,107,41,-34,34,24,73,102,112
170,122,-48,-146,109,36,-24,34,24,73,102,112
165,131,-34,-148,100,48,-34,24,14,68,102,112
165,131,-34,-148,100,48,-34,24,14,63,97,112
165,131,-34,-148,100,48,-24,24,14,63,97,112
165,131,-34,-148,100,48,-34,24,14,58,92,112
165,141,-24,-153,95,58,-43,19,14,58,92,117
165,141,-24,-153,95,58,-43,14,14,58,92,117
165,141,-24,-153,95,58,-39,9,14,58,92,117
165,141,-24,-153,95,58,-39,4,14,58,92,112
165,141,-24,-153,95,58,-34,-4,24,68,87,117
165,136,-29,-151,97,53,-29,-4,19,58,92,117
165,136,-29,-151,97,53,-29,-9,19,58,92,117
165,136,-29,-151,97,53,-24,-14,19,58,97,117
156,146,-9,-151,82,68,-19,-24,9,68,97,126
156,146,-9,-151,82,68,-4,-19,9,68,97,126
156,146,-9,-151,82,68,0,-19,9,68,97,126
156,146,-9,-151,82,68,4,-19,9,68,102,126
156,146,-9,-151,82,68,19,-29,4,68,92,126
156,146,-9,-151,82,68,19,-29,4,68,92,131
156,146,-9,-151,82,68,24,-34,4,73,97,131
165,156,-9,-161,87,73,19,-43,14,92,112,141
175,156,-19,-165,97,68,24,-43,29,117,136,151
180,156,-24,-168,102,65,9,-43,63,170,185,185
200,156,-43,-178,122,56,9,-29,156,253,244,214
219,161,-58,-190,139,51,-4,9,297,380,331,253
234,161,-73,-197,153,43,-19,48,429,517,429,302
253,161,-92,-207,173,34,-29,58,458,570,483,341
263,175,-87,-219,175,43,-43,34,361,536,502,370
263,180,-82,-222,173,48,-58,-29,175,434,492,385
263,180,-82,-222,173,48,-63,-131,-107,253,444,385
263,190,-73,-226,168,58,-73,-234,-409,39,361,385
273,190,-82,-231,178,53,-82,-317,-649,-151,292,385
273,190,-82,-231,178,53,-97,-414,-863,-336,214,385
273,175,-97,-224,185,39,-107,-527,-1117,-566,92,370
278,175,-102,-226,190,36,-122,-639,-1400,-844,-58,336
278,175,-102,-226,190,36,-136,-766,-1673,-1093,-200,322
268,165,-102,-217,185,31,-165,-917,-1932,-1312,-297,331
273,165,-107,-219,190,29,-190,-1078,-2205,-1542,-414,331
268,165,-102,-217,185,31,-214,-1259,-2537,-1839,-561,331
268,165,-102,-217,185,31,-248,-1459,-2888,-2181,-751,322
283,141,-141,-212,212,0,-292,-1678,-3284,-2576,-976,297
297,107,-190,-202,244,-41,-326,-1937,-3742,-3030,-1249,268
302,82,-219,-192,261,-68,-370,-2171,-4172,-3445,-1512,209
317,48,-268,-183,292,-109,-419,-2347,-4489,-3772,-1747,156
326,14,-312,-170,319,-148,-444,-2474,-4762,-4079,-1995,63
331,-24,-356,-153,344,-190,-463,-2591,-4997,-4362,-2249,-39
331,-48,-380,-141,356,-214,-483,-2688,-5153,-4582,-2454,-126
341,-68,-409,-136,375,-239,-527,-2825,-5304,-4787,-2664,-185
361,-78,-439,-141,400,-258,-590,-2976,-5465,-5002,-2874,-258
356,-82,-439,-136,397,-261,-649,-3059,-5563,-5148,-3059,-322
385,-78,-463,-153,424,-270,-712,-3103,-5563,-5226,-3206,-370
414,-63,-478,-175,446,-270,-775,-3132,-5543,-5265,-3337,-419
434,-53,-488,-190,461,-270,-834,-3147,-5504,-5299,-3474,-483
439,-29,-468,-204,453,-248,-868,-3147,-5480,-5328,-3620,-575
458,-19,-478,-219,468,-248,-917,-3167,-5441,-5348,-3742,-673
468,-19,-488,-224,478,-253,-956,-3196,-5416,-5368,-3855,-766
483,-24,-507,-229,495,-265,-995,-3220,-5377,-5377,-3957,-863
502,-48,-551,-226,527,-300,-1034,-3196,-5309,-5348,-4040,-941
522,-78,-600,-222,561,-339,-1063,-3152,-5177,-5255,-4040,-980
531,-122,-653,-204,592,-387,-1083,-3093,-5031,-5104,-3986,-1000
551,-175,-727,-187,639,-451,-1102,-3054,-4894,-4948,-3904,-985
570,-209,-780,-180,675,-495,-1117,-3035,-4792,-4816,-3811,-971
585,-239,-824,-173,705,-531,-1132,-3015,-4689,-4699,-3738,-985
614,-273,-888,-170,751,-580,-1132,-2967,-4572,-4572,-3660,-1000
629,-307,-936,-161,783,-622,-1132,-2913,-4455,-4445,-3562,-1000
639,-336,-976,-151,807,-656,-1122,-2864,-4343,-4328,-3479,-1019
639,-346,-985,-146,812,-666,-1117,-2796,-4201,-4187,-3386,-1029
658,-375,-1034,-141,846,-705,-1083,-2679,-4001,-3996,-3259,-1010
668,-414,-1083,-126,875,-749,-1049,-2527,-3772,-3782,-3103,-990
673,-463,-1137,-104,905,-800,-1005,-2381,-3567,-3591,-2971,-976
673,-497,-1171,-87,922,-834,-936,-2225,-3352,-3411,-2840,-971
673,-531,-1205,-70,939,-868,-878,-2069,-3137,-3206,-2674,-951
678,-561,-1239,-58,958,-900,-814,-1922,-2928,-3015,-2532,-951
678,-590,-1268,-43,973,-929,-775,-1795,-2771,-2879,-2435,-976
678,-605,-1283,-36,980,-944,-736,-1693,-2610,-2742,-2342,-976
663,-610,-1273,-26,968,-941,-688,-1571,-2420,-2562,-2210,-941
649,-624,-1273,-12,961,-949,-639,-1454,-2244,-2386,-2074,-907
649,-634,-1283,-7,966,-958,-600,-1356,-2098,-2249,-1981,-917
658,-649,-1307,-4,983,-978,-556,-1244,-1952,-2117,-1883,-917
629,-673,-1302,21,966,-988,-522,-1146,-1825,-1995,-1795,-907
614,-683,-1298,34,956,-990,-488,-1063,-1717,-1893,-1703,-893
634,-653,-1288,9,961,-971,-448,-990,-1595,-1781,-1600,-844
634,-639,-1273,2,954,-956,-419,-912,-1483,-1659,-1488,-795
595,-634,-1229,19,912,-932,-390,-844,-1376,-1546,-1410,-785
570,-614,-1185,21,878,-900,-366,-775,-1249,-1420,-1293,-722
566,-585,-1151,9,858,-868,-341,-702,-1117,-1249,-1141,-644
566,-566,-1132,0,849,-849,-317,-629,-985,-1088,-990,-556
575,-522,-1098,-26,836,-810,-302,-561,-878,-956,-863,-473
570,-488,-1058,-41,814,-773,-268,-492,-761,-824,-741,-390
546,-453,-1000,-46,773,-727,-229,-414,-644,-702,-619,-317
527,-424,-951,-51,739,-688,-200,-346,-541,-590,-507,-258
527,-409,-936,-58,732,-673,-175,-287,-448,-492,-414,-209
502,-409,-912,-46,707,-661,-141,-229,-361,-400,-351,-195
478,-400,-878,-39,678,-639,-122,-180,-283,-326,-307,-200
458,-375,-834,-41,646,-605,-92,-131,-224,-268,-268,-195
444,-351,-795,-46,619,-573,-68,-92,-161,-204,-204,-175
439,-322,-761,-58,600,-541,-48,-48,-102,-136,-146,-136
409,-268,-678,-70,544,-473,-24,0,-39,-68,-82,-102
385,-219,-605,-82,495,-412,0,29,14,-4,-19,-68
366,-175,-541,-95,453,-358,9,48,58,39,19,-39
336,-146,-483,-95,409,-314,29,82,117,87,58,-34
302,-117,-419,-92,361,-268,58,112,175,151,78,-34
273,-87,-361,-92,317,-224,87,161,229,195,97,-43
244,-58,-302,-92,273,-180,117,200,283,244,122,-34
234,-24,-258,-104,246,-141,131,234,322,292,170,-24
209,9,-200,-109,204,-95,151,253,356,331,209,0
200,43,-156,-122,178,-56,161,278,385,361,253,29
195,68,-126,-131,161,-29,170,302,429,395,297,58
185,82,-102,-134,143,-9,185,322,458,429,312,73
170,97,-73,-134,122,12,200,336,492,458,322,87
161,102,-58,-131,109,21,209,366,531,492,331,87
146,102,-43,-124,95,29,234,390,546,527,356,97
131,102,-29,-117,80,36,248,424,575,551,375,97
126,107,-19,-117,73,43,263,448,600,566,395,97
122,117,-4,-119,63,56,263,458,610,575,405,97
122,131,9,-126,56,70,268,458,629,575,424,107
117,131,14,-124,51,73,273,463,639,585,424,107
117,131,14,-124,51,73,278,463,658,590,424,107
117,131,14,-124,51,73,283,468,663,600,424,107
107,126,19,-117,43,73,287,488,668,619,424,107
107,126,19,-117,43,73,292,497,683,634,429,107
107,126,19,-117,43,73,297,512,697,639,439,107
102,131,29,-117,36,80,302,522,712,653,444,107
102,136,34,-119,34,85,317,522,707,658,458,107
97,136,39,-117,29,87,322,527,722,668,463,107
97,136,39,-117,29,87,322,531,736,678,468,107
97,141,43,-119,26,92,326,531,746,688,473,107
97,141,43,-119,26,92,326,522,751,702,473,117
92,141,48,-117,21,95,326,527,761,712,478,117
92,141,48,-117,21,95,326,527,775,722,483,117
92,141,48,-117,21,95,322,536,785,732,488,117
92,146,53,-119,19,100,307,541,810,741,502,122
92,156,63,-124,14,109,297,551,824,751,512,126
92,165,73,-129,9,119,283,556,834,771,517,131
92,170,78,-131,7,124,273,566,849,775,522,136
92,180,87,-136,2,134,263,570,868,790,527,146
92,180,87,-136,2,134,253,580,878,800,527,146
92,185,92,-139,0,139,244,585,893,810,536,146
92,185,92,-139,0,139,239,600,902,819,546,146
82,175,92,-129,-4,134,248,595,912,819,541,141
82,175,92,-129,-4,134,253,605,917,829,546,136
82,180,97,-131,-7,139,253,610,932,839,551,131
82,180,97,-131,-7,139,253,610,941,854,561,126
82,180,97,-131,-7,139,268,610,956,858,570,126
78,180,102,-129,-12,141,268,614,971,868,575,126
78,180,102,-129,-12,141,273,619,985,883,580,126
78,180,102,-129,-12,141,278,634,1000,902,580,126
73,185,112,-129,-19,148,283,653,1005,917,590,136
73,185,112,-129,-19,148,287,663,1024,927,595,136
73,185,112,-129,-19,148,292,668,1039,941,600,136
73,180,107,-126,-17,143,297,678,1058,961,605,136
73,180,107,-126,-17,143,297,678,1068,971,619,126
68,180,112,-124,-21,146,302,688,1088,980,629,126
68,185,117,-126,-24,151,307,702,1102,990,634,126
68,185,117,-126,-24,151,312,722,1122,1000,639,126
68,195,126,-131,-29,161,307,732,1141,1029,653,122
68,195,126,-131,-29,161,312,741,1166,1039,658,122
68,195,126,-131,-29,161,317,756,1180,1058,668,122
63,200,136,-131,-36,168,317,771,1205,1073,678,122
63,209,146,-136,-41,178,312,780,1215,1083,688,122
63,209,146,-136,-41,178,317,790,1229,1102,692,122
63,209,146,-136,-41,178,322,800,1254,1117,702,122
63,209,146,-136,-41,178,326,814,1273,1137,712,122
58,204,146,-131,-43,175,331,834,1293,1161,722,122
58,204,146,-131,-43,175,331,839,1312,1180,732,122
58,204,146,-131,-43,175,336,839,1332,1190,741,122
53,204,151,-129,-48,178,346,854,1351,1210,751,122
53,200,146,-126,-46,173,356,873,1376,1229,766,122
53,200,146,-126,-46,173,361,888,1400,1249,775,122
53,200,146,-126,-46,173,366,902,1420,1268,785,117
48,204,156,-126,-53,180,370,922,1449,1288,800,117
48,214,165,-131,-58,190,380,941,1478,1307,800,117
48,214,165,-131,-58,190,380,956,1498,1332,814,117
39,214,175,-126,-68,195,390,961,1522,1351,829,117
39,214,175,-126,-68,195,390,980,1537,1371,834,122
39,214,175,-126,-68,195,395,1000,1571,1390,858,122
34,219,185,-126,-75,202,400,1024,1590,1410,873,122
34,219,185,-126,-75,202,405,1044,1610,1434,883,122
34,219,185,-126,-75,202,409,1058,1639,1449,893,122
34,219,185,-126,-75,202,414,1083,1659,1478,902,122
29,224,195,-126,-82,209,424,1102,1683,1498,917,122
29,224,195,-126,-82,209,434,1122,1712,1517,927,122
19,229,209,-124,-95,219,444,1141,1742,1542,936,122
29,229,200,-129,-85,214,448,1151,1761,1551,946,122
29,229,200,-129,-85,214,453,1171,1786,1576,956,122
24,229,204,-126,-90,217,458,1190,1800,1600,976,117
19,234,214,-126,-97,224,463,1215,1820,1620,990,117
19,234,214,-126,-97,224,473,1224,1834,1639,990,117
19,234,214,-126,-97,224,483,1234,1859,1664,995,117
9,234,224,-122,-107,229,492,1244,1878,1678,1010,117
9,239,229,-124,-109,234,492,1254,1893,1703,1029,117
0,234,234,-117,-117,234,507,1259,1908,1708,1034,112
-4,234,239,-114,-122,236,512,1263,1922,1722,1044,112
-9,234,244,-112,-126,239,517,1268,1932,1742,1063,117
-9,239,248,-114,-129,244,517,1268,1947,1761,1063,117
-9,239,248,-114,-129,244,522,1273,1956,1766,1073,112
-14,239,253,-112,-134,246,536,1273,1971,1786,1083,122
-19,244,263,-112,-141,253,546,1273,1981,1800,1102,122
-34,244,278,-104,-156,261,551,1273,1991,1815,1117,122
-34,244,278,-104,-156,261,566,1283,2010,1830,1122,122
-39,248,287,-104,-163,268,566,1298,2020,1849,1137,126
-39,258,297,-109,-168,278,570,1307,2034,1859,1151,136
-39,258,297,-109,-168,278,570,1312,2049,1873,1161,141
-48,263,312,-107,-180,287,561,1322,2054,1883,1176,146
-48,268,317,-109,-183,292,561,1322,2064,1893,1190,151
-48,273,322,-112,-185,297,566,1332,2078,1903,1195,156
-53,273,326,-109,-190,300,570,1332,2083,1908,1205,161
-53,283,336,-114,-195,309,561,1351,2093,1917,1215,175
-58,292,351,-117,-204,322,551,1351,2093,1927,1229,185
-58,292,351,-117,-204,322,546,1356,2093,1942,1239,190
-58,292,351,-117,-204,322,536,1356,2088,1952,1244,200
-48,302,351,-126,-200,326,531,1356,2093,1956,1254,204
-53,312,366,-129,-209,339,527,1351,2093,1956,1254,209
-53,322,375,-134,-214,348,517,1346,2088,1952,1259,214
-53,331,385,-139,-219,358,507,1332,2078,1947,1268,229
-53,341,395,-143,-224,368,512,1332,2074,1952,1278,248
-53,346,400,-146,-226,373,512,1322,2064,1952,1278,263
-53,351,405,-148,-229,378,512,1312,2054,1947,1278,273
-53,356,409,-151,-231,383,497,1298,2034,1937,1288,283
-48,370,419,-161,-234,395,492,1288,2030,1932,1298,297
-48,375,424,-163,-236,400,492,1278,2000,1922,1293,312
-43,380,424,-168,-234,402,488,1268,1981,1908,1288,322
-43,385,429,-170,-236,407,483,1254,1952,1883,1288,322
-43,390,434,-173,-239,412,473,1234,1922,1864,1273,326
-43,390,434,-173,-239,412,458,1210,1888,1844,1273,331
-43,400,444,-178,-244,422,453,1185,1859,1815,1254,336
-39,405,444,-183,-241,424,448,1161,1825,1790,1244,336
-43,400,444,-178,-244,422,444,1132,1781,1751,1229,336
-43,405,448,-180,-246,427,439,1102,1742,1717,1215,341
-43,400,444,-178,-244,422,429,1088,1703,1683,1195,341
-43,400,444,-178,-244,422,424,1063,1664,1654,1176,346
-29,395,424,-183,-226,409,409,1029,1620,1625,1166,351
-29,395,424,-183,-226,409,400,995,1590,1586,1151,361
-29,390,419,-180,-224,405,400,966,1556,1556,1137,366
-19,390,409,-185,-214,400,385,946,1512,1527,1117,375
-4,380,385,-187,-195,383,380,917,1454,1498,1102,370
-4,380,385,-187,-195,383,370,893,1410,1459,1083,380
0,380,380,-190,-190,380,361,868,1361,1415,1063,385
4,385,380,-195,-187,383,351,844,1317,1366,1044,395
9,385,375,-197,-183,380,341,814,1283,1327,1019,385
14,380,366,-197,-175,373,331,780,1229,1283,1000,390
19,380,361,-200,-170,370,326,751,1190,1244,971,390
19,380,361,-200,-170,370,312,727,1137,1200,951,390
24,370,346,-197,-161,358,312,697,1083,1161,922,395
29,370,341,-200,-156,356,292,663,1034,1122,897,400
34,370,336,-202,-151,353,287,639,990,1078,863,405
39,366,326,-202,-143,346,283,605,946,1039,834,405
58,370,312,-214,-126,341,263,585,902,990,819,395
63,366,302,-214,-119,334,248,561,858,946,795,395
68,361,292,-214,-112,326,244,531,819,907,771,390
73,356,283,-214,-104,319,229,502,785,868,741,390
87,346,258,-217,-85,302,224,468,732,824,702,385
92,341,248,-217,-78,295,214,444,692,785,673,385
92,336,244,-214,-75,290,209,419,653,746,644,380
97,331,234,-214,-68,283,200,395,614,707,619,370
92,326,234,-209,-70,280,200,361,570,663,590,366
97,317,219,-207,-61,268,190,336,536,629,570,356
102,317,214,-209,-56,265,180,307,507,600,546,351
107,317,209,-212,-51,263,170,283,473,570,517,341
112,312,200,-212,-43,256,170,258,439,527,488,326
112,302,190,-207,-39,246,170,239,405,497,463,322
117,292,175,-204,-29,234,165,219,375,468,444,312
122,283,161,-202,-19,222,161,200,346,439,419,302
117,268,151,-192,-17,209,165,185,326,419,405,297
117,258,141,-187,-12,200,165,165,307,400,385,287
126,253,126,-190,0,190,165,151,287,370,370,283
131,253,122,-192,4,187,156,141,268,351,346,273
141,244,102,-192,19,173,165,131,248,322,326,263
141,239,97,-190,21,168,161,126,224,302,307,253
141,234,92,-187,24,163,156,117,204,287,283,248
141,229,87,-185,26,158,151,112,185,273,263,239
141,224,82,-183,29,153,161,112,170,248,244,229
141,219,78,-180,31,148,161,102,156,234,224,219
146,214,68,-180,39,141,161,97,141,224,219,214
146,204,58,-175,43,131,156,87,141,214,209,209
146,204,58,-175,43,131,151,78,141,200,204,195
146,200,53,-173,46,126,141,78,126,195,195,190
146,195,48,-170,48,122,136,68,112,180,185,185
146,195,48,-170,48,122,126,63,107,170,180,185
146,204,58,-175,43,131,122,58,102,161,165,180
151,200,48,-175,51,124,117,58,92,156,161,170
151,195,43,-173,53,119,112,53,92,146,151,165
156,190,34,-173,61,112,112,53,92,141,146,165
156,175,19,-165,68,97,117,53,92,146,141,161
156,170,14,-163,70,92,122,53,92,146,136,156
156,165,9,-161,73,87,122,48,87,141,136,151
156,165,9,-161,73,87,126,48,87,136,131,146
156,165,9,-161,73,87,126,58,87,122,136,146
156,165,9,-161,73,87,126,58,82,122,131,141
156,161,4,-158,75,82,131,53,82,122,131,136
156,156,0,-156,78,78,131,53,82,126,126,131
156,156,0,-156,78,78,131,58,92,126,126,131
156,156,0,-156,78,78,131,58,92,131,122,126
156,156,0,-156,78,78,131,58,92,131,122,126
156,156,0,-156,78,78,131,58,92,126,122,122
161,165,4,-163,78,85,131,78,102,126,131,126
161,165,4,-163,78,85,126,82,107,131,122,136
165,161,-4,-163,85,78,122,92,117,136,117,141
170,161,-9,-165,90,75,117,102,122,141,117,146
170,170,0,-170,85,85,112,117,126,146,122,151
170,170,0,-170,85,85,107,122,131,151,122,146
170,170,0,-170,85,85,102,126,141,156,122,146
170,170,0,-170,85,85,97,126,146,156,126,146
170,165,-4,-168,87,80,97,141,151,161,131,156
170,165,-4,-168,87,80,97,141,156,165,141,161
170,165,-4,-168,87,80,97,141,161,175,146,161
170,161,-9,-165,90,75,97,141,165,180,151,161
170,146,-24,-158,97,61,102,146,170,180,141,151
165,146,-19,-156,92,63,102,151,170,180,141,151
165,146,-19,-156,92,63,102,161,170,180,141,151
165,146,-19,-156,92,63,102,170,170,180,141,141
165,146,-19,-156,92,63,102,175,165,170,131,141
165,146,-19,-156,92,63,107,175,165,170,126,146
165,146,-19,-156,92,63,107,180,165,170,126,146
165,146,-19,-156,92,63,107,180,170,175,126,146
161,141,-19,-151,90,61,117,195,161,175,131,136
161,141,-19,-151,90,61,117,195,161,175,131,136
161,146,-14,-153,87,65,112,200,165,175,136,136
161,146,-14,-153,87,65,112,200,165,185,136,136
161,136,-24,-148,92,56,112,200,165,180,131,136
165,136,-29,-151,97,53,112,204,165,180,131,136
165,141,-24,-153,95,58,112,204,165,175,131,136
165,141,-24,-153,95,58,112,209,170,170,131,136
156,141,-14,-148,85,63,112,195,165,170,122,126
156,141,-14,-148,85,63,117,195,161,165,122,126
156,141,-14,-148,85,63,117,190,156,161,122,126
156,141,-14,-148,85,63,117,185,156,156,122,126
156,141,-14,-148,85,63,107,170,151,146,112,117
156,141,-14,-148,85,63,112,165,146,146,117,122
156,136,-19,-146,87,58,112,161,141,151,117,122
156,131,-24,-143,90,53,112,146,136,151,122,117
156,141,-14,-148,85,63,107,146,136,161,112,126
156,141,-14,-148,85,63,107,151,131,161,117,131
156,141,-14,-148,85,63,112,156,131,161,122,131
156,141,-14,-148,85,63,112,170,131,161,122,131
146,131,-14,-139,80,58,112,165,131,151,122,131
146,131,-14,-139,80,58,112,161,131,151,122,131
141,131,-9,-136,75,61,112,156,126,151,122,131
141,131,-9,-136,75,61,112,151,126,146,122,131
151,141,-9,-146,80,65,117,141,122,156,126,131
151,141,-9,-146,80,65,122,141,122,156,126,131
151,141,-9,-146,80,65,126,136,117,156,122,131
146,141,-4,-143,75,68,136,136,117,156,122,131
151,151,0,-151,75,75,126,141,122,151,131,131
151,151,0,-151,75,75,126,141,117,151,131,131
151,151,0,-151,75,75,122,141,112,146,131,131
146,151,4,-148,70,78,117,136,112,146,131,131
146,151,4,-148,70,78,107,131,112,146,126,131
146,151,4,-148,70,78,102,131,112,141,126,131
146,151,4,-148,70,78,102,131,107,141,126,131
146,151,4,-148,70,78,112,131,107,141,126,131
146,151,4,-148,70,78,112,131,107,141,131,126
146,151,4,-148,70,78,112,131,107,141,131,126
146,151,4,-148,70,78,112,131,102,136,126,126
146,151,4,-148,70,78,112,126,102,136,126,126
136,141,4,-139,65,73,122,126,102,126,126,122
136,141,4,-139,65,73,122,126,97,126,126,122
141,141,0,-141,70,70,122,122,97,122,126,122
141,136,-4,-139,73,65,122,117,92,117,126,122
141,136,-4,-139,73,65,131,117,92,112,117,122
141,136,-4,-139,73,65,131,112,92,117,117,122
141,136,-4,-139,73,65,131,112,82,122,117,117
141,136,-4,-139,73,65,131,107,82,126,112,117
141,136,-4,-139,73,65,122,107,82,126,117,126
141,136,-4,-139,73,65,122,112,78,126,122,126
141,136,-4,-139,73,65,117,112,78,117,126,126
141,136,-4,-139,73,65,117,112,78,117,131,131
141,131,-9,-136,75,61,112,107,68,117,126,122
141,131,-9,-136,75,61,112,102,63,117,126,122
141,131,-9,-136,75,61,102,102,63,117,126,122
141,131,-9,-136,75,61,97,97,63,117,126,122
151,131,-19,-141,85,56,102,107,68,122,136,126
151,136,-14,-143,82,61,102,107,68,122,141,126
151,136,-14,-143,82,61,102,102,73,122,141,131
156,136,-19,-146,87,58,97,102,78,117,136,136
156,146,-9,-151,82,68,97,102,78,126,141,126
156,146,-9,-151,82,68,97,102,78,126,146,131
161,146,-14,-153,87,65,97,102,78,126,146,131
165,146,-19,-156,92,63,97,107,82,131,151,131
165,146,-19,-156,92,63,87,107,82,141,161,141
165,146,-19,-156,92,63,78,107,97,146,165,156
165,146,-19,-156,92,63,87,107,97,146,165,156
165,146,-19,-156,92,63,87,107,97,146,165,156
165,146,-19,-156,92,63,87,107,97,146,165,156
165,146,-19,-156,92,63,87,107,97,146,165,156
175,146,-29,-161,102,58,87,117,107,156,175,156
175,146,-29,-161,102,58,87,122,107,156,175,156
175,146,-29,-161,102,58,87,122,107,156,175,156
175,146,-29,-161,102,58,87,122,107,156,175,156
165,136,-29,-151,97,53,87,122,102,146,165,146
165,136,-29,-151,97,53,92,122,97,146,165,146
165,136,-29,-151,97,53,92,112,92,136,165,141
165,136,-29,-151,97,53,92,102,87,136,165,136
165,136,-29,-151,97,53,102,112,78,136,156,126
165,136,-29,-151,97,53,102,112,78,136,156,126
161,136,-24,-148,92,56,102,117,78,136,151,131
161,136,-24,-148,92,56,102,122,78,131,151,131
156,136,-19,-146,87,58,112,126,82,131,161,131
156,136,-19,-146,87,58,112,126,82,136,161,131
156,136,-19,-146,87,58,112,126,87,136,161,131
156,136,-19,-146,87,58,112,126,87,136,161,136
146,131,-14,-139,80,58,122,131,97,136,161,136
146,131,-14,-139,80,58,122,136,97,136,161,136
151,126,-24,-139,87,51,117,136,97,136,161,136
156,122,-34,-139,95,43,117,141,97,136,161,131
156,122,-34,-139,95,43,117,141,92,136,151,131
156,122,-34,-139,95,43,112,141,92,136,151,131
156,122,-34,-139,95,43,112,141,92,131,146,131
156,122,-34,-139,95,43,112,141,92,131,141,131
156,131,-24,-143,90,53,102,131,78,117,141,117
156,131,-24,-143,90,53,92,117,78,117,141,117
156,131,-24,-143,90,53,82,102,78,122,141,117
156,131,-24,-143,90,53,73,92,73,122,141,117
156,141,-14,-148,85,63,48,87,63,126,141,107
156,141,-14,-148,85,63,39,87,68,126,141,107
156,146,-9,-151,82,68,34,82,68,126,146,112
156,146,-9,-151,82,68,29,78,73,126,146,112
146,151,4,-148,70,78,39,73,63,117,146,122
146,151,4,-148,70,78,43,73,63,122,146,122
146,151,4,-148,70,78,53,73,63,122,146,122
146,151,4,-148,70,78,58,73,63,122,146,122
136,141,4,-139,65,73,63,68,73,131,146,126
136,141,4,-139,65,73,63,63,73,131,146,131
136,146,9,-141,63,78,63,58,73,131,146,136
136,146,9,-141,63,78,63,53,73,131,151,141
136,141,4,-139,65,73,73,53,63,117,151,131
136,146,9,-141,63,78,73,53,63,117,146,131
136,146,9,-141,63,78,73,53,63,122,146,131
141,146,4,-143,68,75,78,53,63,122,146,131
131,146,14,-139,58,80,73,43,63,117,131,122
131,141,9,-136,61,75,82,43,63,112,131,122
126,141,14,-134,56,78,82,43,63,107,136,122
126,141,14,-134,56,78,82,43,63,102,136,122
136,141,4,-139,65,73,92,34,53,107,131,122
136,141,4,-139,65,73,82,34,53,107,131,122
136,141,4,-139,65,73,82,34,53,107,131,126
136,141,4,-139,65,73,82,34,53,107,131,126
136,141,4,-139,65,73,87,34,53,97,131,126
136,141,4,-139,65,73,87,34,53,97,131,122
136,141,4,-139,65,73,92,34,53,97,122,117
136,136,0,-136,68,68,97,34,48,87,122,117
136,146,9,-141,63,78,87,29,43,87,117,117
136,146,9,-141,63,78,92,24,39,87,117,117
136,146,9,-141,63,78,92,24,34,87,117,117
136,146,9,-141,63,78,102,29,29,87,117,117
126,136,9,-131,58,73,97,29,29,78,107,107
126,136,9,-131,58,73,92,29,29,78,112,107
126,136,9,-131,58,73,92,29,24,78,112,107
126,136,9,-131,58,73,87,29,24,78,112,112
136,126,-9,-131,73,58,92,24,24,92,126,122
136,126,-9,-131,73,58,87,24,34,102,141,131
146,126,-19,-136,82,53,73,24,39,126,165,141
161,126,-34,-143,97,46,58,24,73,180,204,165
180,126,-53,-153,117,36,48,39,156,273,263,204
200,122,-78,-161,139,21,43,68,287,419,351,244
214,131,-82,-173,148,24,19,97,448,575,458,292
234,141,-92,-187,163,24,0,117,546,678,551,341
244,156,-87,-200,165,34,-24,112,507,663,580,370
253,161,-92,-207,173,34,-39,78,380,561,570,395
253,170,-82,-212,168,43,-53,14,156,400,531,414
253,170,-82,-212,168,43,-63,-68,-126,165,458,424
244,180,-63,-212,153,58,-73,-131,-395,-73,370,424
244,190,-53,-217,148,68,-78,-209,-629,-317,283,434
244,195,-48,-219,146,73,-87,-302,-863,-556,180,439
239,185,-53,-212,146,65,-102,-405,-1127,-814,58,424
239,195,-43,-217,141,75,-117,-492,-1381,-1063,-73,419
239,204,-34,-222,136,85,-146,-595,-1620,-1283,-161,448
244,204,-39,-224,141,82,-180,-746,-1893,-1493,-239,497
239,214,-24,-226,131,95,-204,-917,-2205,-1742,-336,527
229,214,-14,-222,122,100,-239,-1088,-2547,-2054,-488,536
224,209,-14,-217,119,97,-273,-1268,-2884,-2400,-663,561
229,185,-43,-207,136,70,-317,-1468,-3254,-2786,-868,561
234,170,-63,-202,148,53,-361,-1693,-3655,-3191,-1112,561
239,146,-92,-192,165,26,-400,-1888,-4021,-3547,-1346,536
248,131,-117,-190,183,7,-434,-2015,-4284,-3835,-1576,492
253,92,-161,-173,207,-34,-453,-2122,-4538,-4138,-1839,409
253,58,-195,-156,224,-68,-473,-2210,-4753,-4435,-2142,283
253,39,-214,-146,234,-87,-507,-2288,-4914,-4679,-2420,185
253,39,-214,-146,234,-87,-561,-2420,-5075,-4904,-2679,102
248,43,-204,-146,226,-80,-610,-2562,-5221,-5119,-2942,19
248,48,-200,-148,224,-75,-673,-2664,-5319,-5265,-3176,-68
258,53,-204,-156,231,-75,-727,-2703,-5319,-5343,-3376,-136
268,73,-195,-170,231,-61,-775,-2727,-5280,-5368,-3533,-200
263,87,-175,-175,219,-43,-810,-2747,-5236,-5377,-3689,-292
273,107,-165,-190,219,-29,-849,-2747,-5206,-5397,-3850,-419
283,126,-156,-204,219,-14,-878,-2757,-5163,-5397,-3991,-561
297,122,-175,-209,236,-26,-907,-2791,-5143,-5426,-4133,-707
297,97,-200,-197,248,-51,-936,-2815,-5104,-5426,-4265,-834
307,68,-239,-187,273,-85,-946,-2801,-5011,-5363,-4313,-912
317,34,-283,-175,300,-124,-946,-2771,-4875,-5231,-4279,-951
326,0,-326,-163,326,-163,-936,-2732,-4738,-5075,-4196,-956
336,-34,-370,-151,353,-202,-941,-2723,-4636,-4923,-4094,-932
361,-63,-424,-148,392,-244,-946,-2713,-4533,-4797,-4011,-946
370,-78,-448,-146,409,-263,-946,-2684,-4435,-4670,-3923,-971
395,-112,-507,-141,451,-309,-946,-2649,-4318,-4533,-3816,-980
405,-151,-556,-126,480,-353,-936,-2601,-4196,-4387,-3713,-1000
414,-180,-595,-117,505,-387,-922,-2552,-4074,-4255,-3620,-1010
414,-190,-605,-112,509,-397,-907,-2493,-3943,-4113,-3523,-1010
414,-209,-624,-102,519,-417,-883,-2400,-3742,-3928,-3376,-980
429,-219,-649,-104,539,-434,-849,-2274,-3538,-3718,-3206,-936
439,-253,-692,-92,566,-473,-810,-2147,-3342,-3518,-3045,-902
439,-287,-727,-75,583,-507,-771,-2010,-3118,-3303,-2849,-863
444,-326,-771,-58,607,-549,-717,-1864,-2908,-3084,-2669,-844
453,-356,-810,-48,631,-583,-678,-1747,-2742,-2928,-2552,-868
473,-400,-873,-36,673,-636,-649,-1644,-2591,-2801,-2469,-888
468,-414,-883,-26,675,-649,-610,-1542,-2410,-2620,-2318,-834
463,-419,-883,-21,673,-651,-580,-1434,-2225,-2425,-2152,-771
463,-439,-902,-12,683,-671,-541,-1337,-2078,-2278,-2030,-771
463,-453,-917,-4,690,-685,-507,-1254,-1942,-2156,-1942,-771
453,-468,-922,7,688,-695,-473,-1166,-1815,-2025,-1825,-761
458,-468,-927,4,692,-697,-448,-1073,-1678,-1883,-1712,-746
458,-478,-936,9,697,-707,-429,-990,-1566,-1771,-1610,-717
468,-483,-951,7,710,-717,-400,-912,-1454,-1659,-1507,-668
448,-488,-936,19,692,-712,-370,-834,-1337,-1546,-1420,-639
434,-488,-922,26,678,-705,-346,-775,-1229,-1429,-1332,-614
439,-468,-907,14,673,-688,-322,-712,-1107,-1288,-1210,-546
429,-439,-868,4,649,-653,-297,-658,-995,-1146,-1068,-468
439,-405,-844,-17,641,-624,-283,-619,-897,-1015,-932,-385
434,-370,-805,-31,619,-588,-268,-561,-800,-893,-790,-292
419,-336,-756,-41,588,-546,-248,-492,-683,-751,-658,-229
409,-297,-707,-56,558,-502,-219,-424,-590,-629,-556,-170
400,-273,-673,-63,536,-473,-195,-375,-497,-531,-463,-112
395,-263,-658,-65,527,-461,-170,-326,-409,-448,-390,-87
380,-263,-644,-58,512,-453,-141,-287,-331,-366,-336,-82
370,-258,-629,-56,500,-444,-112,-248,-273,-307,-297,-78
356,-244,-600,-56,478,-422,-97,-209,-209,-253,-244,-68
341,-204,-546,-68,444,-375,-87,-175,-151,-185,-185,-48
331,-180,-512,-75,422,-346,-73,-126,-97,-107,-112,-24
307,-141,-448,-82,378,-295,-58,-78,-34,-34,-48,0
297,-107,-405,-95,351,-256,-39,-39,19,29,0,19
278,-78,-356,-100,317,-217,-19,-14,78,68,29,24
263,-58,-322,-102,292,-190,9,14,136,112,48,34
234,-48,-283,-92,258,-165,48,53,180,146,58,24
214,-39,-253,-87,234,-146,68,92,224,195,82,4
195,-14,-209,-90,202,-112,92,136,273,244,122,4
170,19,-151,-95,161,-65,112,165,317,283,161,0
161,43,-117,-102,139,-36,122,190,356,331,204,9
156,78,-78,-117,117,0,112,214,390,366,248,29
156,92,-63,-124,109,14,117,244,429,409,273,53
151,97,-53,-124,102,21,131,268,473,439,292,78
141,102,-39,-122,90,31,141,287,502,463,312,97
136,112,-24,-124,80,43,165,322,531,492,336,117
122,112,-9,-117,65,51,180,356,566,522,356,117
117,117,0,-117,58,58,195,380,595,541,375,117
112,126,14,-119,48,70,195,390,610,556,385,117
102,122,19,-112,41,70,200,395,619,570,405,107
97,122,24,-109,36,73,204,405,629,585,405,107
97,122,24,-109,36,73,209,409,649,595,405,107
97,122,24,-109,36,73,214,419,653,610,405,107
97,117,19,-107,39,68,229,424,649,605,400,102
97,117,19,-107,39,68,234,429,663,614,400,97
97,117,19,-107,39,68,239,439,678,614,405,92
92,122,29,-107,31,75,244,444,692,624,405,87
92,117,24,-104,34,70,239,458,688,629,400,87
87,117,29,-102,29,73,244,468,702,639,405,87
87,117,29,-102,29,73,244,478,717,649,409,87
87,122,34,-104,26,78,248,483,727,658,414,87
87,131,43,-109,21,87,244,483,732,663,424,87
82,131,48,-107,17,90,248,488,741,673,429,87
82,131,48,-107,17,90,253,488,756,683,434,87
82,131,48,-107,17,90,253,497,766,692,439,87
73,131,58,-102,7,95,253,488,775,692,434,87
73,136,63,-104,4,100,248,492,785,702,444,87
73,141,68,-107,2,104,239,492,790,722,448,87
73,141,68,-107,2,104,234,497,800,727,453,87
73,141,68,-107,2,104,234,497,819,741,458,87
73,141,68,-107,2,104,234,502,829,751,458,87
73,146,73,-109,0,109,234,502,844,761,468,87
73,146,73,-109,0,109,239,512,854,771,478,87
73,146,73,-109,0,109,244,522,858,780,473,78
73,146,73,-109,0,109,253,536,868,790,478,78
73,151,78,-112,-2,114,258,546,888,800,483,78
73,151,78,-112,-2,114,263,551,902,814,492,78
63,161,97,-112,-17,129,258,556,907,829,497,78
58,161,102,-109,-21,131,258,556,922,839,507,78
58,161,102,-109,-21,131,263,556,936,854,517,78
58,161,102,-109,-21,131,268,566,951,873,522,78
63,165,102,-114,-19,134,273,566,966,878,541,87
63,165,102,-114,-19,134,278,575,985,888,546,87
63,165,102,-114,-19,134,283,580,1000,902,551,87
63,161,97,-112,-17,129,287,590,1019,922,556,87
63,161,97,-112,-17,129,287,600,1029,927,561,87
58,161,102,-109,-21,131,292,610,1049,941,570,87
58,165,107,-112,-24,136,297,624,1063,956,575,87
58,165,107,-112,-24,136,302,644,1083,971,580,87
48,156,107,-102,-29,131,307,649,1093,980,595,73
48,156,107,-102,-29,131,312,653,1117,990,600,73
48,156,107,-102,-29,131,317,663,1132,1010,610,73
43,161,117,-102,-36,139,317,673,1156,1024,619,73
43,161,117,-102,-36,139,322,692,1166,1044,629,73
43,161,117,-102,-36,139,326,702,1180,1063,634,73
43,161,117,-102,-36,139,331,712,1205,1078,644,73
43,161,117,-102,-36,139,336,727,1224,1098,653,73
48,165,117,-107,-34,141,331,746,1244,1112,663,73
48,165,117,-107,-34,141,331,751,1263,1132,673,73
48,165,117,-107,-34,141,336,751,1283,1141,683,73
43,165,122,-104,-39,143,346,766,1302,1161,692,73
43,161,117,-102,-36,139,356,785,1317,1180,707,73
43,161,117,-102,-36,139,361,800,1342,1200,717,73
43,161,117,-102,-36,139,366,814,1361,1220,727,68
39,165,126,-102,-43,146,370,834,1390,1239,741,68
39,165,126,-102,-43,146,361,849,1410,1249,741,58
39,165,126,-102,-43,146,361,858,1429,1273,756,58
29,165,136,-97,-53,151,370,858,1454,1293,771,58
29,165,136,-97,-53,151,370,873,1468,1312,775,63
39,165,126,-102,-43,146,366,893,1503,1342,800,63
34,170,136,-102,-51,153,370,917,1522,1361,814,63
34,170,136,-102,-51,153,375,936,1542,1385,824,63
34,170,136,-102,-51,153,380,951,1571,1400,834,63
34,170,136,-102,-51,153,390,961,1586,1420,844,63
29,175,146,-102,-58,161,395,976,1605,1439,858,63
29,175,146,-102,-58,161,400,990,1629,1459,868,63
19,180,161,-100,-70,170,405,1005,1654,1483,878,63
29,180,151,-104,-61,165,405,1010,1668,1512,907,68
29,180,151,-104,-61,165,405,1024,1698,1537,917,73
24,180,156,-102,-65,168,405,1039,1717,1561,936,73
19,185,165,-102,-73,175,405,1058,1742,1581,951,78
29,190,161,-109,-65,175,400,1058,1747,1600,966,87
29,195,165,-112,-68,180,405,1068,1771,1625,976,87
19,200,180,-109,-80,190,409,1078,1790,1639,995,87
19,209,190,-114,-85,200,405,1088,1805,1664,1019,87
19,214,195,-117,-87,204,400,1107,1825,1683,1044,92
14,214,200,-114,-92,207,405,1117,1844,1703,1054,92
9,214,204,-112,-97,209,409,1127,1859,1727,1073,97
9,219,209,-114,-100,214,409,1132,1878,1751,1073,97
4,209,204,-107,-100,207,400,1141,1893,1756,1093,92
4,209,204,-107,-100,207,409,1146,1912,1776,1102,102
4,214,209,-109,-102,212,414,1151,1927,1790,1122,102
-4,214,219,-104,-112,217,414,1156,1942,1805,1137,102
-4,214,219,-104,-112,217,419,1166,1947,1805,1146,92
-9,219,229,-104,-119,224,419,1180,1952,1820,1156,97
-9,229,239,-109,-124,234,424,1190,1961,1825,1166,107
-9,229,239,-109,-124,234,424,1195,1971,1834,1171,112
-19,234,253,-107,-136,244,424,1195,1971,1844,1166,112
-19,239,258,-109,-139,248,424,1185,1976,1854,1180,112
-19,244,263,-112,-141,253,429,1185,1986,1864,1185,112
-24,244,268,-109,-146,256,434,1176,1986,1869,1195,112
-24,253,278,-114,-151,265,434,1176,1986,1873,1205,117
-29,263,292,-117,-161,278,434,1176,1986,1878,1220,126
-29,263,292,-117,-161,278,439,1180,1986,1888,1229,131
-29,263,292,-117,-161,278,439,1180,1981,1893,1234,141
-29,268,297,-119,-163,283,439,1185,1981,1888,1244,146
-34,273,307,-119,-170,290,439,1185,1976,1888,1244,151
-34,278,312,-122,-173,295,434,1185,1966,1883,1249,156
-34,283,317,-124,-175,300,429,1176,1952,1878,1259,170
-34,273,307,-119,-170,290,434,1171,1942,1869,1249,175
-34,278,312,-122,-173,295,434,1166,1927,1864,1249,185
-34,283,317,-124,-175,300,434,1161,1912,1854,1249,190
-34,287,322,-126,-178,305,419,1151,1888,1839,1259,195
-34,292,326,-129,-180,309,424,1141,1878,1830,1259,200
-39,297,336,-129,-187,317,424,1132,1854,1825,1254,214
-39,302,341,-131,-190,322,419,1122,1839,1815,1249,224
-43,307,351,-131,-197,329,414,1107,1815,1795,1249,224
-34,312,346,-139,-190,329,414,1098,1795,1776,1244,244
-34,312,346,-139,-190,329,400,1073,1761,1756,1244,253
-34,322,356,-143,-195,339,395,1049,1732,1727,1224,263
-29,326,356,-148,-192,341,390,1024,1698,1703,1215,268
-24,336,361,-156,-192,348,395,1005,1659,1683,1195,268
-24,346,370,-161,-197,358,390,976,1625,1649,1185,273
-24,346,370,-161,-197,358,380,961,1590,1615,1171,273
-24,351,375,-163,-200,363,375,936,1556,1586,1156,278
-19,341,361,-161,-190,351,361,907,1512,1556,1141,287
-19,346,366,-163,-192,356,351,878,1483,1517,1132,302
-19,346,366,-163,-192,356,351,854,1449,1488,1122,312
-9,351,361,-170,-185,356,336,839,1405,1459,1107,326
-4,351,356,-173,-180,353,341,810,1361,1424,1093,331
-4,351,356,-173,-180,353,331,785,1322,1390,1073,341
0,351,351,-175,-175,351,322,761,1278,1351,1054,346
4,356,351,-180,-173,353,312,736,1239,1307,1034,356
9,356,346,-183,-168,351,292,717,1205,1268,1000,356
14,351,336,-183,-161,344,283,683,1151,1224,980,361
19,351,331,-185,-156,341,278,653,1112,1185,951,361
19,351,331,-185,-156,341,263,629,1058,1141,932,361
34,351,317,-192,-141,334,263,610,1024,1098,897,366
39,351,312,-195,-136,331,244,575,976,1063,878,370
43,351,307,-197,-131,329,239,551,932,1024,849,375
48,346,297,-197,-124,322,234,517,888,990,824,375
58,351,292,-204,-117,322,214,492,844,951,810,385
63,346,283,-204,-109,314,200,473,800,907,785,385
68,341,273,-204,-102,307,195,448,761,868,761,380
73,336,263,-204,-95,300,180,424,727,829,732,380
78,326,248,-202,-85,287,185,409,692,785,692,385
82,322,239,-202,-78,280,175,385,653,746,663,385
82,317,234,-200,-75,275,170,361,614,707,634,380
87,312,224,-200,-68,268,161,336,575,668,610,370
82,297,214,-190,-65,256,161,322,541,634,580,366
87,287,200,-187,-56,244,151,307,507,600,561,356
92,287,195,-190,-51,241,141,287,478,570,536,351
97,287,190,-192,-46,239,131,273,444,541,507,341
102,287,185,-195,-41,236,122,253,424,507,488,346
102,283,180,-192,-39,231,122,239,395,478,463,341
107,278,170,-192,-31,224,117,224,370,448,444,331
112,273,161,-192,-24,217,112,209,346,419,419,322
107,268,161,-187,-26,214,102,185,307,390,395,307
107,258,151,-183,-21,204,97,165,287,370,375,297
117,253,136,-185,-9,195,92,151,268,341,361,292
122,253,131,-187,-4,192,78,141,248,322,336,283
122,244,122,-183,0,183,73,131,234,302,322,283
122,239,117,-180,2,178,63,126,214,283,307,273
122,234,112,-178,4,173,53,117,200,268,287,268
122,229,107,-175,7,168,43,112,185,253,273,258
131,234,102,-183,14,168,43,112,170,239,253,258
131,229,97,-180,17,163,43,102,156,224,234,248
136,224,87,-180,24,156,43,97,141,214,229,244
136,214,78,-175,29,146,39,87,141,204,219,239
136,214,78,-175,29,146,48,63,141,190,214,224
136,209,73,-173,31,141,43,58,126,185,204,219
136,204,68,-170,34,136,43,43,112,170,195,214
136,204,68,-170,34,136,39,34,107,161,190,214
136,204,68,-170,34,136,34,24,92,151,175,209
141,200,58,-170,41,129,29,19,82,146,170,200
141,195,53,-168,43,124,24,9,82,136,161,195
146,190,43,-168,51,117,24,4,82,131,156,195
136,195,58,-165,39,126,24,-4,78,117,146,185
136,190,53,-163,41,122,24,-4,73,117,136,175
136,185,48,-161,43,117,19,-9,63,112,131,165
136,185,48,-161,43,117,19,-9,58,107,122,156
126,185,58,-156,34,122,29,-19,48,97,102,136
126,185,58,-156,34,122,29,-19,43,92,92,131
126,180,53,-153,36,117,34,-24,43,87,87,126
126,175,48,-151,39,112,34,-24,43,87,78,122
126,175,48,-151,39,112,39,-19,34,82,68,117
126,175,48,-151,39,112,43,-19,34,82,63,107
126,175,48,-151,39,112,48,-19,34,78,63,102
126,175,48,-151,39,112,53,-19,34,68,63,92
126,175,48,-151,39,112,73,-9,43,73,63,92
122,175,53,-148,34,114,78,-4,48,73,53,97
122,170,48,-146,36,109,82,4,58,73,48,97
122,170,48,-146,36,109,87,14,63,73,48,97
112,161,48,-136,31,104,97,19,63,82,58,82
112,161,48,-136,31,104,97,24,63,82,53,78
112,161,48,-136,31,104,97,29,68,82,48,78
112,161,48,-136,31,104,97,29,68,78,48,78
112,146,34,-129,39,90,107,39,68,68,48,68
112,146,34,-129,39,90,107,34,68,68,53,73
112,146,34,-129,39,90,107,29,68,73,53,73
112,141,29,-126,41,85,107,24,68,73,53,73
112,136,24,-124,43,80,112,29,82,78,63,73
107,136,29,-122,39,82,112,34,82,82,63,73
107,136,29,-122,39,82,112,43,82,87,63,73
107,136,29,-122,39,82,112,53,82,92,63,63
117,141,24,-129,46,82,112,58,87,82,53,53
117,146,29,-131,43,87,117,58,87,82,48,58
117,151,34,-134,41,92,117,63,87,82,48,58
117,156,39,-136,39,97,117,63,92,87,48,58
122,156,34,-139,43,95,117,78,92,97,63,68
122,151,29,-136,46,90,117,78,92,97,63,68
122,151,29,-136,46,90,112,82,97,97,68,68
122,146,24,-134,48,85,112,82,97,107,68,68
117,141,24,-129,46,82,112,82,97,107,58,68
117,136,19,-126,48,78,112,87,97,112,63,68
112,136,24,-124,43,80,112,87,97,112,68,68
107,131,24,-119,41,78,112,92,102,112,73,68
117,136,19,-126,48,78,117,92,112,107,82,68
117,141,24,-129,46,82,117,97,112,107,82,68
117,146,29,-131,43,87,112,97,112,107,82,68
117,151,34,-134,41,92,107,97,117,107,82,68
117,141,24,-129,46,82,97,107,117,117,82,68
117,141,24,-129,46,82,102,107,117,117,87,73
117,136,19,-126,48,78,102,107,117,122,87,73
117,131,14,-124,51,73,102,97,117,122,92,68
117,136,19,-126,48,78,107,102,117,122,92,68
117,141,24,-129,46,82,107,102,112,122,97,73
117,146,29,-131,43,87,112,102,112,122,102,73
117,151,34,-134,41,92,112,112,112,122,102,73
126,141,14,-134,56,78,107,112,122,131,102,73
126,141,14,-134,56,78,102,112,122,131,102,73
122,141,19,-131,51,80,97,112,117,131,102,73
122,141,19,-131,51,80,92,112,117,126,102,73
122,131,9,-126,56,70,87,122,122,136,117,82
122,131,9,-126,56,70,82,122,122,136,117,82
122,131,9,-126,56,70,78,117,117,136,112,82
117,131,14,-124,51,73,78,117,117,136,112,82
117,141,24,-129,46,82,58,122,117,141,117,82
122,141,19,-131,51,80,48,122,117,141,122,82
126,141,14,-134,56,78,34,122,117,136,126,82
126,141,14,-134,56,78,19,117,122,136,131,82
136,151,14,-143,61,82,9,112,122,146,136,92
136,151,14,-143,61,82,4,112,122,141,136,92
136,151,14,-143,61,82,4,112,117,141,136,92
136,151,14,-143,61,82,14,112,117,141,136,92
136,141,4,-139,65,73,4,112,117,131,141,97
136,141,4,-139,65,73,4,112,117,131,141,97
136,141,4,-139,65,73,4,112,112,126,136,97
136,141,4,-139,65,73,4,107,112,126,136,97
136,141,4,-139,65,73,-9,92,107,136,136,102
136,141,4,-139,65,73,-14,87,97,136,136,102
141,141,0,-141,70,70,-19,78,92,131,136,102
141,136,-4,-139,73,65,-24,68,82,126,136,102
136,146,9,-141,63,78,-24,53,82,117,136,102
131,146,14,-139,58,80,-24,43,82,117,136,102
126,146,19,-136,53,82,-24,39,73,117,136,97
122,146,24,-134,48,85,-24,29,73,117,131,97
122,146,24,-134,48,85,-29,39,82,117,141,97
122,146,24,-134,48,85,-24,43,78,117,141,97
122,146,24,-134,48,85,-24,43,78,107,141,97
122,146,24,-134,48,85,-19,43,78,107,141,102
131,161,29,-146,51,95,-24,43,87,117,146,112
131,161,29,-146,51,95,-24,43,82,117,146,112
131,161,29,-146,51,95,-34,48,82,117,146,112
131,161,29,-146,51,95,-39,48,82,117,146,112
131,175,43,-153,43,109,-29,39,92,117,151,117
131,185,53,-158,39,119,-24,39,87,122,161,117
131,190,58,-161,36,124,-19,34,87,126,165,122
136,195,58,-165,39,126,-19,34,87,126,165,126
126,195,68,-161,29,131,-14,43,97,136,165,126
126,195,68,-161,29,131,-9,43,97,136,165,131
131,195,63,-163,34,129,-4,43,97,136,161,131
136,195,58,-165,39,126,0,48,102,141,161,131
126,185,58,-156,34,122,9,39,97,136,151,126
126,185,58,-156,34,122,9,39,92,131,151,122
126,185,58,-156,34,122,9,39,82,122,151,117
122,185,63,-153,29,124,9,39,78,117,151,112
112,170,58,-141,26,114,19,43,68,112,141,102
112,165,53,-139,29,109,19,43,68,112,141,102
117,161,43,-139,36,102,19,43,68,112,141,102
117,156,39,-136,39,97,19,43,68,112,141,102
117,151,34,-134,41,92,29,53,78,112,151,112
117,151,34,-134,41,92,29,53,78,112,151,112
117,151,34,-134,41,92,29,53,78,107,151,107
117,146,29,-131,43,87,34,53,73,102,151,107
117,156,39,-136,39,97,34,53,63,102,141,97
117,161,43,-139,36,102,34,53,63,102,141,97
117,161,43,-139,36,102,34,48,63,107,141,97
117,161,43,-139,36,102,34,48,63,107,141,97
126,165,39,-146,43,102,43,53,68,107,141,97
126,156,29,-141,48,92,43,53,68,107,141,97
117,151,34,-134,41,92,48,63,68,107,146,97
117,151,34,-134,41,92,48,63,63,107,136,97
117,156,39,-136,39,97,39,58,68,107,136,97
117,156,39,-136,39,97,39,58,58,107,126,87
117,156,39,-136,39,97,39,58,58,107,126,87
117,156,39,-136,39,97,39,58,58,107,126,87
117,156,39,-136,39,97,39,58,58,107,126,87
126,156,29,-141,48,92,39,58,68,107,136,87
126,156,29,-141,48,92,39,63,68,107,136,87
126,156,29,-141,48,92,39,63,68,107,136,87
126,156,29,-141,48,92,39,63,68,107,136,87
126,156,29,-141,48,92,39,73,68,107,136,87
126,156,29,-141,48,92,43,73,68,107,136,87
126,156,29,-141,48,92,43,63,68,97,136,82
126,156,29,-141,48,92,43,53,68,97,136,78
117,146,29,-131,43,87,43,53,68,107,136,78
117,146,29,-131,43,87,43,53,68,107,136,78
112,146,34,-129,39,90,43,58,68,107,131,82
112,146,34,-129,39,90,43,63,68,102,131,82
126,146,19,-136,53,82,34,63,63,102,131,82
126,146,19,-136,53,82,34,68,63,107,131,82
126,146,19,-136,53,82,34,73,68,107,131,82
126,146,19,-136,53,82,34,78,68,107,131,87
126,146,19,-136,53,82,19,68,68,107,131,78
126,151,24,-139,51,87,14,68,68,107,131,78
131,151,19,-141,56,85,4,63,68,107,131,78
136,151,14,-143,61,82,0,63,68,107,131,73
126,151,24,-139,51,87,-4,63,53,102,122,73
126,151,24,-139,51,87,-14,63,53,97,122,73
126,151,24,-139,51,87,-19,63,53,87,117,73
126,151,24,-139,51,87,-24,63,53,82,112,73
136,141,4,-139,65,73,-24,73,58,87,122,78
136,141,4,-139,65,73,-24,68,58,87,122,78
136,141,4,-139,65,73,-24,63,58,92,122,78
136,141,4,-139,65,73,-24,63,53,92,122,78
126,131,4,-129,61,68,-29,58,48,78,112,73
126,131,4,-129,61,68,-39,58,48,78,112,68
126,136,9,-131,58,73,-43,53,43,78,117,68
126,136,9,-131,58,73,-48,48,43,78,117,63
126,131,4,-129,61,68,-53,39,29,73,112,53
126,131,4,-129,61,68,-53,24,24,73,107,53
126,131,4,-129,61,68,-48,9,19,68,102,53
126,131,4,-129,61,68,-48,-4,14,63,97,53
117,131,14,-124,51,73,-34,-14,4,63,97,53
117,131,14,-124,51,73,-34,-14,4,63,97,53
117,136,19,-126,48,78,-34,-14,4,63,97,53
117,136,19,-126,48,78,-34,-14,4,63,102,53
117,151,34,-134,41,92,-34,-24,4,58,92,43
117,156,39,-136,39,97,-34,-24,4,58,87,43
117,156,39,-136,39,97,-34,-24,4,63,87,43
122,156,34,-139,43,95,-29,-24,4,63,87,43
122,156,34,-139,43,95,-34,-14,14,63,87,48
122,151,29,-136,46,90,-24,-14,14,63,92,53
117,151,34,-134,41,92,-24,-14,14,63,102,58
117,151,34,-134,41,92,-24,-14,14,63,107,63
117,161,43,-139,36,102,0,-14,24,78,122,68
117,161,43,-139,36,102,-4,-14,24,78,122,73
117,161,43,-139,36,102,0,-14,24,78,122,82
117,161,43,-139,36,102,4,-14,24,78,122,87
107,165,58,-136,24,112,9,-4,34,87,122,87
107,170,63,-139,21,117,9,-4,34,87,122,82
107,175,68,-141,19,122,14,-4,34,87,112,78
107,175,68,-141,19,122,19,-4,29,78,112,78
107,185,78,-146,14,131,19,-4,39,87,117,87
107,185,78,-146,14,131,24,-4,39,87,117,87
107,185,78,-146,14,131,24,0,39,87,117,87
107,185,78,-146,14,131,34,9,39,87,117,87
107,175,68,-141,19,122,34,9,39,78,117,87
107,175,68,-141,19,122,34,9,39,78,122,87
107,175,68,-141,19,122,39,9,34,78,122,87
107,175,68,-141,19,122,39,9,34,78,122,92
117,175,58,-146,29,117,34,4,34,82,117,82
126,175,48,-151,39,112,39,4,34,102,131,92
136,165,29,-151,53,97,34,-4,58,136,165,102
141,165,24,-153,58,95,29,-4,102,209,204,117
141,165,24,-153,58,95,19,19,204,331,273,136
161,161,0,-161,80,80,4,68,375,507,370,175
185,161,-24,-173,104,68,0,97,517,663,478,224
195,161,-34,-178,114,63,-9,107,546,697,551,273
204,165,-39,-185,122,63,-14,92,448,614,551,302
195,170,-24,-183,109,73,-29,48,244,453,512,317
195,170,-24,-183,109,73,-34,-34,-58,204,444,317
185,170,-14,-178,100,78,-34,-117,-380,-78,351,307
185,180,-4,-183,95,87,-43,-190,-639,-336,253,317
175,200,24,-187,75,112,-58,-287,-893,-610,175,336
175,195,19,-185,78,107,-68,-390,-1166,-868,82,341
170,195,24,-183,73,109,-82,-483,-1420,-1117,-19,346
170,204,34,-187,68,119,-107,-580,-1654,-1346,-112,380
180,214,34,-197,73,124,-146,-712,-1912,-1556,-170,429
175,224,48,-200,63,136,-180,-873,-2205,-1786,-239,488
170,234,63,-202,53,148,-214,-1044,-2537,-2074,-356,527
161,234,73,-197,43,153,-248,-1215,-2869,-2396,-497,556
175,229,53,-202,61,141,-292,-1405,-3206,-2732,-644,610
180,214,34,-197,73,124,-336,-1615,-3577,-3089,-819,649
185,200,14,-192,85,107,-390,-1820,-3947,-3455,-1024,658
190,185,-4,-187,97,90,-429,-1976,-4245,-3762,-1229,653
209,151,-58,-180,134,46,-463,-2083,-4489,-4050,-1449,639
204,112,-92,-158,148,9,-473,-2171,-4704,-4333,-1732,556
195,78,-117,-136,156,-19,-473,-2239,-4880,-4601,-2044,448
195,68,-126,-131,161,-29,-507,-2337,-5021,-4836,-2332,351
185,68,-117,-126,151,-24,-561,-2479,-5172,-5050,-2610,268
180,73,-107,-126,143,-17,-610,-2610,-5280,-5216,-2864,195
180,78,-102,-129,141,-12,-653,-2664,-5319,-5324,-3089,136
200,92,-107,-146,153,-7,-707,-2684,-5270,-5353,-3269,87
209,131,-78,-170,143,26,-766,-2708,-5211,-5368,-3464,4
204,156,-48,-180,126,53,-790,-2708,-5177,-5397,-3660,-107
204,165,-39,-185,122,63,-810,-2718,-5148,-5416,-3850,-253
214,165,-48,-190,131,58,-849,-2737,-5114,-5426,-4021,-414
209,161,-48,-185,129,56,-878,-2762,-5084,-5436,-4191,-570
219,146,-73,-183,146,36,-897,-2766,-5016,-5397,-4304,-697
219,126,-92,-173,156,17,-927,-2723,-4884,-5285,-4304,-785
229,102,-126,-165,178,-12,-927,-2664,-4718,-5114,-4230,-805
248,68,-180,-158,214,-56,-946,-2625,-4582,-4948,-4128,-800
268,34,-234,-151,251,-100,-961,-2615,-4479,-4806,-4026,-795
283,14,-268,-148,275,-126,-966,-2605,-4406,-4689,-3962,-819
283,-9,-292,-136,287,-151,-966,-2576,-4309,-4572,-3884,-863
297,-43,-341,-126,319,-192,-966,-2542,-4211,-4435,-3796,-893
307,-73,-380,-117,344,-226,-976,-2503,-4089,-4299,-3684,-912
317,-102,-419,-107,368,-261,-961,-2454,-3957,-4157,-3572,-922
317,-112,-429,-102,373,-270,-956,-2376,-3777,-3977,-3435,-922
326,-122,-448,-102,387,-285,-951,-2264,-3586,-3782,-3289,-883
331,-151,-483,-90,407,-317,-936,-2156,-3401,-3601,-3137,-839
341,-195,-536,-73,439,-366,-917,-2049,-3215,-3420,-2986,-834
341,-219,-561,-61,451,-390,-878,-1912,-3020,-3215,-2810,-814
336,-258,-595,-39,466,-427,-824,-1786,-2830,-3025,-2659,-814
336,-307,-644,-14,490,-475,-775,-1678,-2674,-2888,-2562,-878
336,-322,-658,-7,497,-490,-746,-1595,-2522,-2732,-2459,-897
341,-317,-658,-12,500,-488,-707,-1503,-2342,-2542,-2278,-844
336,-331,-668,-2,502,-500,-668,-1415,-2166,-2366,-2132,-810
326,-361,-688,17,507,-524,-629,-1337,-2030,-2239,-2039,-819
336,-366,-702,14,519,-534,-595,-1273,-1912,-2117,-1942,-819
336,-361,-697,12,517,-529,-570,-1205,-1795,-1995,-1834,-800
322,-370,-692,24,507,-531,-536,-1132,-1688,-1883,-1751,-785
322,-370,-692,24,507,-531,-507,-1049,-1576,-1771,-1659,-756
331,-375,-707,21,519,-541,-478,-980,-1454,-1639,-1537,-727
322,-361,-683,19,502,-522,-448,-912,-1327,-1527,-1449,-707
317,-361,-678,21,497,-519,-424,-844,-1210,-1400,-1342,-673
312,-341,-653,14,483,-497,-409,-780,-1088,-1259,-1210,-595
312,-312,-624,0,468,-468,-395,-727,-985,-1127,-1058,-507
312,-278,-590,-17,451,-434,-390,-678,-897,-1005,-941,-405
317,-244,-561,-36,439,-402,-375,-619,-810,-883,-819,-322
312,-200,-512,-56,412,-356,-346,-561,-712,-761,-707,-268
312,-170,-483,-70,397,-326,-317,-502,-600,-639,-595,-219
302,-156,-458,-73,380,-307,-292,-444,-507,-531,-502,-180
287,-156,-444,-65,366,-300,-258,-395,-409,-439,-419,-165
283,-156,-439,-63,361,-297,-229,-346,-322,-356,-356,-161
273,-131,-405,-70,339,-268,-219,-297,-273,-307,-317,-156
258,-97,-356,-80,307,-226,-204,-268,-229,-244,-263,-126
253,-68,-322,-92,287,-195,-185,-234,-170,-175,-204,-87
244,-43,-287,-100,265,-165,-161,-185,-107,-117,-141,-73
229,-14,-244,-107,236,-129,-136,-146,-53,-53,-87,-58
219,9,-209,-114,214,-100,-107,-117,9,9,-39,-48
209,19,-190,-114,200,-85,-97,-82,68,58,-9,-43
195,29,-165,-112,180,-68,-68,-43,117,92,19,-63
175,39,-136,-107,156,-48,-39,-4,170,136,39,-73
165,39,-126,-102,146,-43,-19,43,214,175,53,-73
146,53,-92,-100,119,-19,4,78,253,214,82,-73
131,87,-43,-109,87,21,24,107,287,244,122,-58
131,112,-19,-122,75,46,34,131,317,292,156,-48
126,136,9,-131,58,73,43,156,361,326,190,-29
117,141,24,-129,46,82,68,185,400,361,224,-14
112,146,34,-129,39,90,92,209,444,400,244,-9
112,151,39,-131,36,95,102,229,483,424,263,0
107,151,43,-129,31,97,117,253,502,439,283,9
92,151,58,-122,17,104,131,287,527,463,297,9
87,156,68,-122,9,112,146,312,546,478,312,9
82,165,82,-124,0,124,146,322,551,488,317,9
82,161,78,-122,2,119,151,331,570,507,326,19
78,161,82,-119,-2,122,156,336,580,517,326,19
78,161,82,-119,-2,122,161,336,600,522,326,19
78,161,82,-119,-2,122,165,341,605,531,326,19
78,156,78,-117,0,117,180,361,610,541,326,9
78,156,78,-117,0,117,185,370,624,556,331,9
78,156,78,-117,0,117,190,385,639,561,341,9
73,161,87,-117,-7,124,195,395,653,575,346,9
73,156,82,-114,-4,119,209,390,649,580,351,0
68,156,87,-112,-9,122,214,400,663,590,356,0
68,156,87,-112,-9,122,214,409,678,600,361,0
68,161,92,-114,-12,126,219,414,688,610,366,0
68,161,92,-114,-12,126,214,419,702,614,366,0
63,161,97,-112,-17,129,219,429,712,624,370,0
63,161,97,-112,-17,129,224,434,727,634,375,0
63,161,97,-112,-17,129,224,448,736,644,380,0
63,151,87,-107,-12,119,239,453,746,649,380,0
63,156,92,-109,-14,124,239,463,756,653,385,0
63,161,97,-112,-17,129,234,468,761,668,385,0
63,161,97,-112,-17,129,234,478,771,668,385,0
63,161,97,-112,-17,129,244,483,790,683,390,-9
63,161,97,-112,-17,129,244,492,800,692,390,-9
63,165,102,-114,-19,134,244,497,814,702,400,-9
63,165,102,-114,-19,134,248,512,824,712,409,-9
63,165,102,-114,-19,134,248,502,834,722,405,-19
63,165,102,-114,-19,134,253,517,839,732,409,-19
63,170,107,-117,-21,139,253,527,854,741,414,-19
63,170,107,-117,-21,139,253,531,863,756,424,-19
53,161,107,-107,-26,134,268,531,878,766,434,-19
48,161,112,-104,-31,136,268,536,893,771,439,-19
48,161,112,-104,-31,136,273,541,907,780,444,-19
48,161,112,-104,-31,136,278,556,922,795,444,-19
43,156,112,-100,-34,134,292,561,932,805,444,-29
43,156,112,-100,-34,134,297,566,946,810,448,-29
43,156,112,-100,-34,134,302,566,956,819,453,-29
43,151,107,-97,-31,129,307,570,971,834,458,-29
43,161,117,-102,-36,139,317,566,976,839,463,-39
39,161,122,-100,-41,141,322,570,990,854,473,-39
39,165,126,-102,-43,146,326,580,1000,868,478,-39
39,165,126,-102,-43,146,331,595,1015,883,483,-39
29,156,126,-92,-48,141,336,595,1029,893,488,-53
29,156,126,-92,-48,141,341,595,1049,902,492,-53
29,156,126,-92,-48,141,346,600,1058,922,502,-53
24,161,136,-92,-56,148,346,605,1078,936,512,-53
34,170,136,-102,-51,153,346,614,1098,946,512,-53
34,170,136,-102,-51,153,346,624,1112,966,517,-53
34,170,136,-102,-51,153,346,634,1137,980,527,-53
34,170,136,-102,-51,153,346,649,1156,1000,536,-53
39,175,136,-107,-48,156,346,663,1185,1024,556,-53
39,175,136,-107,-48,156,341,673,1205,1044,566,-53
39,175,136,-107,-48,156,341,678,1224,1054,575,-53
34,175,141,-104,-53,158,346,697,1244,1073,585,-53
43,190,146,-117,-51,168,351,717,1278,1102,610,-43
43,190,146,-117,-51,168,351,732,1302,1122,619,-43
43,190,146,-117,-51,168,351,746,1322,1141,629,-48
39,195,156,-117,-58,175,351,766,1351,1161,644,-48
48,204,156,-126,-53,180,341,800,1376,1185,663,-39
48,204,156,-126,-53,180,331,819,1400,1215,678,-39
39,204,165,-122,-63,185,331,829,1429,1239,692,-39
39,204,165,-122,-63,185,322,854,1449,1263,697,-34
39,195,156,-117,-58,175,317,863,1478,1293,722,-24
34,200,165,-117,-65,183,312,888,1503,1312,736,-24
34,200,165,-117,-65,183,307,907,1527,1337,746,-24
34,200,165,-117,-65,183,302,922,1561,1351,756,-24
43,200,156,-122,-56,178,292,936,1566,1361,756,-34
39,204,165,-122,-63,185,297,956,1586,1381,771,-34
39,204,165,-122,-63,185,302,976,1610,1400,780,-34
29,209,180,-119,-75,195,307,995,1634,1424,790,-34
29,209,180,-119,-75,195,312,1010,1644,1439,800,-39
29,209,180,-119,-75,195,317,1024,1668,1459,810,-43
24,209,185,-117,-80,197,322,1039,1683,1478,829,-53
19,214,195,-117,-87,204,326,1058,1703,1493,844,-58
19,204,185,-112,-82,195,336,1073,1708,1503,854,-58
19,204,185,-112,-82,195,346,1088,1732,1527,858,-58
9,204,195,-107,-92,200,356,1102,1751,1542,873,-58
9,209,200,-109,-95,204,356,1117,1766,1566,893,-58
9,204,195,-107,-92,200,361,1137,1790,1581,917,-53
4,204,200,-104,-97,202,366,1146,1805,1595,927,-53
0,204,204,-102,-102,204,370,1156,1815,1615,946,-48
0,209,209,-104,-104,209,370,1161,1830,1634,946,-48
4,209,204,-107,-100,207,370,1180,1834,1649,966,-48
4,209,204,-107,-100,207,380,1185,1854,1668,976,-43
4,214,209,-109,-102,212,385,1190,1869,1683,995,-48
-4,214,219,-104,-112,217,385,1195,1883,1698,1010,-53
-4,204,209,-100,-107,207,400,1200,1883,1703,1024,-53
-9,209,219,-100,-114,214,400,1220,1893,1722,1039,-48
-9,219,229,-104,-119,224,405,1234,1908,1732,1054,-39
-9,219,229,-104,-119,224,405,1244,1922,1747,1063,-34
-9,214,224,-102,-117,219,405,1244,1917,1766,1073,-29
-9,219,229,-104,-119,224,405,1244,1927,1776,1093,-24
-9,224,234,-107,-122,229,409,1254,1942,1786,1102,-19
-14,224,239,-104,-126,231,414,1254,1947,1790,1117,-14
-24,234,258,-104,-141,246,414,1254,1937,1795,1127,-9
-29,244,273,-107,-151,258,414,1254,1937,1800,1141,0
-29,244,273,-107,-151,258,419,1259,1937,1810,1151,4
-29,244,273,-107,-151,258,419,1259,1932,1815,1156,14
-29,248,278,-109,-153,263,429,1249,1927,1815,1166,9
-34,253,287,-109,-161,270,429,1234,1917,1810,1166,14
-34,258,292,-112,-163,275,424,1220,1903,1800,1171,19
-34,263,297,-114,-165,280,419,1195,1883,1790,1180,34
-43,263,307,-109,-175,285,429,1176,1873,1786,1190,34
-43,268,312,-112,-178,290,434,1166,1859,1786,1190,48
-43,273,317,-114,-180,295,439,1156,1844,1781,1190,58
-43,278,322,-117,-183,300,429,1141,1820,1771,1200,68
-48,273,322,-112,-185,297,434,1117,1805,1756,1210,73
-48,278,326,-114,-187,302,434,1102,1776,1747,1205,87
-43,283,326,-119,-185,305,429,1088,1756,1732,1200,97
-43,287,331,-122,-187,309,424,1068,1727,1708,1200,97
-43,283,326,-119,-185,305,424,1058,1703,1693,1205,107
-43,283,326,-119,-185,305,409,1034,1673,1678,1205,117
-43,292,336,-124,-190,314,405,1010,1649,1654,1185,126
-39,297,336,-129,-187,317,400,985,1620,1634,1176,131
-43,297,341,-126,-192,319,395,976,1590,1610,1176,141
-43,307,351,-131,-197,329,390,946,1556,1581,1166,146
-43,307,351,-131,-197,329,380,932,1522,1551,1151,146
-43,312,356,-134,-200,334,375,907,1488,1527,1137,151
-29,312,341,-141,-185,326,361,883,1454,1507,1122,165
-29,317,346,-143,-187,331,351,849,1424,1468,1112,175
-29,317,346,-143,-187,331,351,819,1390,1439,1102,180
-19,322,341,-151,-180,331,336,800,1346,1410,1088,190
-24,322,346,-148,-185,334,331,780,1302,1385,1073,195
-24,322,346,-148,-185,334,322,756,1263,1351,1054,204
-19,322,341,-151,-180,331,312,732,1220,1312,1034,209
-14,326,341,-156,-178,334,302,707,1180,1268,1015,219
-9,336,346,-163,-178,341,273,688,1141,1239,1000,219
-4,331,336,-163,-170,334,263,653,1093,1195,980,224
0,331,331,-165,-165,331,258,624,1058,1156,951,224
0,331,331,-165,-165,331,244,600,1010,1112,932,224
14,341,326,-178,-156,334,234,585,980,1078,912,234
19,341,322,-180,-151,331,214,556,936,1044,897,244
24,341,317,-183,-146,329,209,536,897,1005,873,253
29,336,307,-183,-139,322,204,507,858,971,854,258
29,341,312,-185,-141,326,185,488,814,932,819,268
34,336,302,-185,-134,319,170,463,771,888,795,268
39,331,292,-185,-126,312,165,434,732,849,771,263
43,326,283,-185,-119,305,151,405,697,810,741,263
58,322,263,-190,-102,292,146,395,668,780,727,263
63,322,258,-192,-97,290,136,375,634,746,702,268
63,322,258,-192,-97,290,131,356,600,712,678,268
68,322,253,-195,-92,287,122,336,566,678,658,263
73,326,253,-200,-90,290,122,326,541,644,639,273
78,317,239,-197,-80,278,112,307,507,610,619,268
82,317,234,-200,-75,275,102,283,478,580,595,268
87,317,229,-202,-70,273,92,263,444,551,566,263
82,312,229,-197,-73,270,82,258,424,517,536,258
82,302,219,-192,-68,261,82,248,395,488,512,253
87,292,204,-190,-58,248,78,239,370,458,492,244
92,283,190,-187,-48,236,73,229,346,429,468,234
97,278,180,-187,-41,229,58,219,326,409,453,239
97,268,170,-183,-36,219,48,204,307,390,434,229
107,263,156,-185,-24,209,39,195,287,361,419,224
112,263,151,-187,-19,207,19,190,268,341,395,214
122,258,136,-190,-7,197,14,195,258,331,390,214
122,258,136,-190,-7,197,4,195,244,312,375,204
122,258,136,-190,-7,197,-4,190,234,297,356,200
122,258,136,-190,-7,197,-14,190,224,283,341,190
131,253,122,-192,4,187,-4,185,209,268,326,190
131,248,117,-190,7,183,-4,180,195,253,302,180
136,244,107,-190,14,175,-4,180,180,244,292,175
136,234,97,-185,19,165,-9,175,180,234,278,170
136,224,87,-180,24,156,-4,156,170,209,263,156
136,219,82,-178,26,151,-4,156,156,204,253,151
136,214,78,-175,29,146,0,146,141,190,244,146
136,214,78,-175,29,146,0,141,136,180,239,146
126,214,87,-170,19,151,4,131,126,161,219,141
131,209,78,-170,26,143,9,126,112,156,209,131
131,204,73,-168,29,139,14,117,107,146,195,126
136,200,63,-168,36,131,24,112,102,141,185,126
126,204,78,-165,24,141,34,97,92,131,170,112
126,200,73,-163,26,136,34,92,92,126,165,107
126,195,68,-161,29,131,29,82,87,117,165,102
126,195,68,-161,29,131,29,78,87,107,161,97
126,185,58,-156,34,122,34,78,78,102,151,92
126,185,58,-156,34,122,29,78,73,102,141,92
126,180,53,-153,36,117,29,73,73,102,136,92
126,175,48,-151,39,112,24,73,73,107,126,92
126,175,48,-151,39,112,24,63,73,102,117,92
126,175,48,-151,39,112,24,58,73,102,112,87
126,175,48,-151,39,112,24,53,73,97,112,87
126,175,48,-151,39,112,24,48,73,87,112,82
126,175,48,-151,39,112,29,48,68,73,112,73
122,175,53,-148,34,114,29,43,68,73,102,78
122,170,48,-146,36,109,29,43,73,73,97,78
122,170,48,-146,36,109,29,43,73,73,97,78
122,170,48,-146,36,109,29,39,73,82,97,82
122,170,48,-146,36,109,29,43,73,82,92,78
122,170,48,-146,36,109,29,48,78,82,87,78
122,170,48,-146,36,109,29,48,78,78,87,78
122,165,43,-143,39,104,19,58,78,78,87,78
122,165,43,-143,39,104,19,53,78,78,92,82
122,165,43,-143,39,104,19,48,78,82,92,82
122,161,39,-141,41,100,19,43,78,82,92,82
122,165,43,-143,39,104,14,53,92,92,92,82
117,165,48,-141,34,107,14,53,92,92,92,82
117,165,48,-141,34,107,14,58,92,92,92,82
117,165,48,-141,34,107,14,63,92,92,92,73
126,165,39,-146,43,102,24,58,97,92,92,73
126,165,39,-146,43,102,29,58,97,92,87,78
126,165,39,-146,43,102,29,63,97,92,87,78
126,165,39,-146,43,102,29,63,102,97,87,78
122,161,39,-141,41,100,29,58,102,97,82,78
122,161,39,-141,41,100,29,58,102,97,82,78
122,165,43,-143,39,104,24,63,107,97,87,78
122,165,43,-143,39,104,24,63,107,107,87,78
112,156,43,-134,34,100,34,73,117,107,78,78
117,156,39,-136,39,97,34,78,117,112,82,78
117,161,43,-139,36,102,34,78,117,112,87,78
117,161,43,-139,36,102,34,82,122,112,92,78
117,161,43,-139,36,102,34,73,122,107,102,78
117,161,43,-139,36,102,39,78,122,107,102,78
117,161,43,-139,36,102,39,78,122,107,102,78
117,161,43,-139,36,102,39,78,126,107,102,78
117,161,43,-139,36,102,48,78,117,117,102,78
117,161,43,-139,36,102,53,78,117,117,107,82
117,156,39,-136,39,97,53,78,117,122,107,82
117,151,34,-134,41,92,53,68,117,122,112,78
117,161,43,-139,36,102,48,68,126,122,112,87
117,161,43,-139,36,102,48,73,122,122,117,92
117,161,43,-139,36,102,53,78,122,122,122,92
117,161,43,-139,36,102,53,92,122,122,122,92
117,170,53,-143,31,112,48,82,126,136,126,97
117,170,53,-143,31,112,43,82,131,141,131,102
112,170,58,-141,26,114,39,82,131,146,136,107
112,170,58,-141,26,114,34,82,136,146,141,112
122,180,58,-151,31,119,29,87,136,156,156,112
122,180,58,-151,31,119,24,92,141,156,156,112
122,180,58,-151,31,119,19,92,141,156,151,112
117,180,63,-148,26,122,19,97,146,156,151,112
122,170,48,-146,36,109,29,102,151,151,151,112
122,170,48,-146,36,109,29,102,146,151,151,112
122,170,48,-146,36,109,24,102,141,146,151,112
117,170,53,-143,31,112,19,97,141,146,151,112
117,161,43,-139,36,102,19,92,136,146,146,102
117,161,43,-139,36,102,14,92,131,141,146,102
117,161,43,-139,36,102,14,92,122,141,146,102
117,161,43,-139,36,102,24,92,117,141,146,102
126,161,34,-143,46,97,34,82,117,131,151,97
126,161,34,-143,46,97,34,82,117,131,151,97
126,161,34,-143,46,97,34,82,112,126,146,97
126,161,34,-143,46,97,34,78,112,126,146,97
117,161,43,-139,36,102,48,58,102,126,146,102
117,161,43,-139,36,102,53,58,97,126,146,102
122,161,39,-141,41,100,58,53,97,122,146,102
122,156,34,-139,43,95,63,48,92,117,146,102
122,165,43,-143,39,104,63,48,92,117,146,102
122,165,43,-143,39,104,63,43,92,117,146,102
122,165,43,-143,39,104,63,43,82,117,146,97
122,165,43,-143,39,104,63,39,82,117,141,97
122,175,53,-148,34,114,63,39,92,117,151,107
122,175,53,-148,34,114,63,43,87,107,151,107
122,175,53,-148,34,114,58,43,87,107,151,107
122,175,53,-148,34,114,58,34,78,107,141,102
126,175,48,-151,39,112,58,39,78,107,136,107
117,175,58,-146,29,117,53,34,68,97,136,97
117,175,58,-146,29,117,48,29,68,97,136,97
117,175,58,-146,29,117,43,24,68,97,136,97
117,175,58,-146,29,117,39,19,68,97,136,97
126,175,48,-151,39,112,34,9,58,87,126,97
126,175,48,-151,39,112,29,14,58,87,126,97
126,175,48,-151,39,112,24,14,58,87,126,97
126,175,48,-151,39,112,19,14,58,87,126,97
126,175,48,-151,39,112,19,24,48,87,126,107
126,175,48,-151,39,112,24,24,48,87,126,107
126,175,48,-151,39,112,24,14,48,78,126,102
126,175,48,-151,39,112,24,4,48,78,126,97
126,165,39,-146,43,102,34,9,39,78,117,97
126,165,39,-146,43,102,34,4,39,78,117,97
122,165,43,-143,39,104,34,4,39,78,112,102
122,165,43,-143,39,104,34,4,39,73,112,102
126,175,48,-151,39,112,24,0,24,63,112,92
126,175,48,-151,39,112,24,0,24,68,112,92
126,175,48,-151,39,112,24,0,29,68,112,92
126,175,48,-151,39,112,24,0,29,68,112,97
117,165,48,-141,34,107,34,0,19,58,102,87
117,170,53,-143,31,112,34,0,19,58,102,87
122,170,48,-146,36,109,29,-4,19,58,102,87
126,170,43,-148,41,107,29,-4,19,58,102,82
117,170,53,-143,31,112,39,-4,14,58,92,82
117,170,53,-143,31,112,34,-4,14,58,92,82
117,170,53,-143,31,112,34,-4,14,53,87,82
117,170,53,-143,31,112,34,-4,14,53,82,82
117,161,43,-139,36,102,39,-4,9,48,92,78
117,161,43,-139,36,102,34,-9,9,48,92,78
117,161,43,-139,36,102,29,-14,9,53,92,78
117,161,43,-139,36,102,24,-14,4,53,92,78
117,161,43,-139,36,102,19,-14,4,48,92,78
117,161,43,-139,36,102,19,-9,9,48,92,78
117,165,48,-141,34,107,24,-9,9,48,97,82
117,165,48,-141,34,107,29,-9,14,48,97,82
117,170,53,-143,31,112,34,-4,4,39,97,82
117,170,53,-143,31,112,34,-4,4,43,97,82
117,170,53,-143,31,112,39,-4,4,43,97,82
117,170,53,-143,31,112,39,-4,4,43,97,82
117,170,53,-143,31,112,39,-14,4,43,87,82
117,170,53,-143,31,112,34,-14,4,43,87,82
117,175,58,-146,29,117,29,-14,4,43,87,82
117,175,58,-146,29,117,24,-14,4,43,92,82
117,170,53,-143,31,112,14,-24,4,48,102,82
117,175,58,-146,29,117,14,-24,4,48,97,82
117,175,58,-146,29,117,14,-24,4,53,97,82
122,175,53,-148,34,114,19,-24,4,53,97,82
122,185,63,-153,29,124,14,-24,4,53,102,92
122,180,58,-151,31,119,14,-24,4,53,102,92
117,180,63,-148,26,122,4,-24,4,53,107,92
117,180,63,-148,26,122,-4,-24,4,53,107,92
117,180,63,-148,26,122,0,-24,14,58,112,92
117,180,63,-148,26,122,-14,-24,14,58,112,92
117,180,63,-148,26,122,-19,-24,14,58,112,97
117,180,63,-148,26,122,-24,-24,14,58,112,97
107,175,68,-141,19,122,-29,-34,0,53,107,92
107,170,63,-139,21,117,-29,-34,-4,48,102,82
107,165,58,-136,24,112,-24,-34,-9,43,87,73
107,156,48,-131,29,102,-19,-34,-19,29,82,68
97,156,58,-126,19,107,-19,-29,-19,29,78,58
97,156,58,-126,19,107,-14,-34,-19,29,78,58
97,156,58,-126,19,107,-14,-34,-19,29,78,58
97,156,58,-126,19,107,-4,-29,-19,29,78,58
107,165,58,-136,24,112,0,-19,-9,39,87,58
107,165,58,-136,24,112,4,-19,-9,39,92,58
107,165,58,-136,24,112,14,-19,-14,39,92,58
107,165,58,-136,24,112,19,-19,-14,39,92,63
117,165,48,-141,34,107,14,-24,-4,63,107,82
126,165,39,-146,43,102,0,-24,14,92,131,92
136,175,39,-156,48,107,-24,-24,39,136,165,112
151,185,34,-168,58,109,-48,-24,92,200,214,146
170,185,14,-178,78,100,-68,0,204,302,283,165
190,190,0,-190,95,95,-73,48,356,448,370,204
195,200,4,-197,95,102,-87,87,458,575,458,244
204,209,4,-207,100,107,-87,87,429,570,512,283
204,214,9,-209,97,112,-92,53,283,478,502,302
204,219,14,-212,95,117,-97,-9,48,317,473,317
204,219,14,-212,95,117,-102,-102,-253,87,405,317
204,219,14,-212,95,117,-102,-185,-546,-156,322,317
204,229,24,-217,90,126,-112,-258,-766,-366,253,336
204,229,24,-217,90,126,-136,-366,-1000,-590,165,336
204,224,19,-214,92,122,-156,-478,-1254,-839,63,331
200,224,24,-212,87,124,-170,-570,-1517,-1107,-58,336
200,234,34,-217,82,134,-195,-688,-1771,-1337,-151,361
200,244,43,-222,78,143,-224,-839,-2020,-1546,-229,390
195,244,48,-219,73,146,-248,-1000,-2313,-1795,-336,419
190,244,53,-217,68,148,-273,-1161,-2625,-2083,-453,448
190,244,53,-217,68,148,-307,-1332,-2957,-2405,-595,478
195,229,34,-212,80,131,-351,-1542,-3342,-2781,-761,502
200,204,4,-202,97,104,-395,-1771,-3772,-3206,-985,512
204,190,-14,-197,109,87,-448,-1976,-4162,-3591,-1190,522
219,156,-63,-187,141,46,-488,-2103,-4440,-3899,-1376,527
229,112,-117,-170,173,-2,-492,-2210,-4694,-4187,-1586,483
224,63,-161,-143,192,-48,-502,-2298,-4899,-4460,-1849,409
234,39,-195,-136,214,-78,-522,-2396,-5045,-4689,-2083,341
234,29,-204,-131,219,-87,-575,-2532,-5206,-4914,-2342,273
244,29,-214,-136,229,-92,-629,-2674,-5377,-5148,-2620,190
248,43,-204,-146,226,-80,-697,-2776,-5465,-5324,-2854,126
258,58,-200,-158,229,-70,-761,-2830,-5485,-5411,-3050,68
268,73,-195,-170,231,-61,-814,-2869,-5465,-5460,-3240,19
278,82,-195,-180,236,-56,-844,-2874,-5436,-5494,-3425,-63
283,78,-204,-180,244,-63,-858,-2874,-5392,-5524,-3611,-165
292,87,-204,-190,248,-58,-878,-2893,-5343,-5524,-3762,-273
302,87,-214,-195,258,-63,-907,-2913,-5289,-5514,-3894,-395
317,82,-234,-200,275,-75,-936,-2918,-5241,-5524,-4055,-522
317,68,-248,-192,283,-90,-946,-2903,-5163,-5504,-4177,-639
326,48,-278,-187,302,-114,-956,-2869,-5041,-5411,-4206,-717
336,24,-312,-180,324,-143,-966,-2830,-4914,-5270,-4172,-746
346,-9,-356,-168,351,-183,-966,-2810,-4787,-5104,-4079,-732
375,-34,-409,-170,392,-222,-971,-2791,-4694,-4953,-3977,-717
380,-53,-434,-163,407,-244,-976,-2771,-4601,-4836,-3913,-741
390,-87,-478,-151,434,-283,-976,-2752,-4504,-4718,-3845,-766
395,-112,-507,-141,451,-309,-976,-2718,-4406,-4611,-3777,-805
405,-141,-546,-131,475,-344,-966,-2679,-4294,-4494,-3694,-834
414,-161,-575,-126,495,-368,-961,-2610,-4162,-4352,-3591,-834
424,-180,-605,-122,514,-392,-956,-2522,-3982,-4162,-3464,-814
434,-200,-634,-117,534,-417,-932,-2410,-3782,-3957,-3308,-795
439,-229,-668,-104,553,-448,-897,-2274,-3577,-3757,-3167,-771
448,-263,-712,-92,580,-488,-839,-2147,-3381,-3567,-3015,-756
448,-287,-736,-80,592,-512,-780,-2000,-3157,-3362,-2849,-746
463,-317,-780,-73,622,-549,-727,-1864,-2947,-3152,-2679,-736
473,-336,-810,-68,641,-573,-697,-1747,-2771,-2996,-2571,-761
463,-341,-805,-61,634,-573,-668,-1654,-2620,-2859,-2479,-780
458,-336,-795,-61,627,-566,-639,-1561,-2440,-2679,-2347,-756
444,-351,-795,-46,619,-573,-610,-1454,-2264,-2493,-2191,-722
444,-370,-814,-36,629,-592,-570,-1356,-2117,-2337,-2069,-722
453,-385,-839,-34,646,-612,-527,-1263,-1981,-2205,-1971,-732
444,-390,-834,-26,639,-612,-473,-1176,-1844,-2064,-1854,-722
439,-390,-829,-24,634,-610,-429,-1093,-1717,-1952,-1761,-707
439,-400,-839,-19,639,-619,-400,-1029,-1605,-1839,-1668,-678
439,-405,-844,-17,641,-624,-380,-961,-1493,-1727,-1566,-639
419,-400,-819,-9,619,-610,-351,-912,-1385,-1625,-1488,-619
414,-400,-814,-7,614,-607,-326,-854,-1278,-1507,-1390,-605
409,-390,-800,-9,605,-595,-292,-790,-1156,-1356,-1249,-556
400,-370,-771,-14,585,-570,-268,-727,-1044,-1195,-1107,-488
400,-336,-736,-31,568,-536,-253,-678,-946,-1063,-971,-414
395,-302,-697,-46,546,-500,-219,-619,-839,-941,-839,-331
380,-278,-658,-51,519,-468,-190,-551,-722,-810,-717,-268
370,-258,-629,-56,500,-444,-161,-492,-619,-697,-614,-219
370,-253,-624,-58,497,-439,-146,-444,-527,-600,-522,-180
356,-253,-610,-51,483,-431,-122,-385,-439,-507,-448,-175
341,-263,-605,-39,473,-434,-92,-326,-361,-424,-395,-190
331,-268,-600,-31,466,-434,-63,-278,-292,-346,-346,-195
317,-253,-570,-31,444,-412,-29,-229,-229,-273,-283,-175
302,-214,-517,-43,409,-366,0,-185,-161,-195,-204,-146
283,-180,-463,-51,373,-322,24,-136,-87,-117,-141,-112
268,-151,-419,-58,344,-285,48,-107,-24,-63,-87,-97
258,-107,-366,-75,312,-236,58,-78,29,-9,-48,-78
248,-68,-317,-90,283,-192,58,-53,78,39,-9,-63
224,-48,-273,-87,248,-161,68,-14,126,92,9,-73
195,-29,-224,-82,209,-126,97,24,180,136,29,-92
165,-19,-185,-73,175,-102,117,73,234,195,63,-92
156,4,-151,-80,153,-73,122,117,283,244,112,-82
131,39,-92,-85,112,-26,122,146,326,292,161,-68
122,82,-39,-102,80,21,122,151,366,322,195,-58
117,117,0,-117,58,58,112,165,400,356,229,-39
117,131,14,-124,51,73,97,185,439,390,244,-24
102,146,43,-124,29,95,102,209,473,419,253,-19
102,141,39,-122,31,90,102,239,492,453,263,0
97,141,43,-119,26,92,102,283,522,492,297,9
82,141,58,-112,12,100,112,317,556,522,317,9
78,146,68,-112,4,107,122,341,585,541,336,9
73,156,82,-114,-4,119,117,351,600,556,346,9
82,161,78,-122,2,119,107,356,614,575,361,19
78,161,82,-119,-2,122,107,366,629,585,366,19
78,161,82,-119,-2,122,107,370,653,590,370,19
78,161,82,-119,-2,122,107,380,663,600,375,19
78,165,87,-122,-4,126,122,395,673,619,375,19
78,165,87,-122,-4,126,126,409,692,634,380,19
78,165,87,-122,-4,126,131,429,712,639,390,19
73,170,97,-122,-12,134,136,444,732,653,395,19
73,165,92,-119,-9,129,151,458,736,658,409,19
68,165,97,-117,-14,131,156,468,751,668,414,19
68,165,97,-117,-14,131,156,478,766,678,419,19
68,170,102,-119,-17,136,161,483,775,688,424,19
68,170,102,-119,-17,136,165,497,790,702,424,19
63,170,107,-117,-21,139,170,507,800,712,429,19
63,170,107,-117,-21,139,175,512,814,722,434,19
63,170,107,-117,-21,139,175,527,824,732,439,19
63,170,107,-117,-21,139,185,531,849,741,444,19
63,175,112,-119,-24,143,190,541,863,751,453,19
63,180,117,-122,-26,148,190,546,873,771,458,19
63,180,117,-122,-26,148,195,556,888,775,463,19
63,170,107,-117,-21,139,200,570,897,790,478,19
63,170,107,-117,-21,139,204,580,907,800,478,19
63,175,112,-119,-24,143,209,585,922,810,488,19
63,175,112,-119,-24,143,219,600,932,819,497,19
63,175,112,-119,-24,143,229,610,951,839,502,19
63,175,112,-119,-24,143,234,624,966,849,507,19
63,180,117,-122,-26,148,234,634,990,858,512,19
63,180,117,-122,-26,148,234,639,1010,873,522,19
63,180,117,-122,-26,148,239,639,1015,878,527,19
58,180,122,-119,-31,151,239,644,1029,888,536,19
58,180,122,-119,-31,151,244,649,1044,902,546,19
58,180,122,-119,-31,151,248,663,1058,922,551,19
53,175,122,-114,-34,148,263,673,1073,946,570,19
53,175,122,-114,-34,148,268,683,1093,956,575,19
53,175,122,-114,-34,148,273,688,1107,971,580,19
53,170,117,-112,-31,143,278,697,1127,990,585,19
43,180,136,-112,-46,158,292,692,1137,995,600,19
39,180,141,-109,-51,161,302,697,1156,1010,610,19
39,185,146,-112,-53,165,312,707,1171,1024,614,19
39,185,146,-112,-53,165,322,722,1190,1039,619,19
39,185,146,-112,-53,165,336,717,1200,1068,634,14
39,185,146,-112,-53,165,341,722,1224,1078,639,14
39,185,146,-112,-53,165,346,732,1239,1098,649,14
34,190,156,-112,-61,173,346,741,1263,1112,658,14
34,190,156,-112,-61,173,351,746,1278,1132,673,24
34,190,156,-112,-61,173,356,751,1298,1151,683,24
34,190,156,-112,-61,173,361,756,1327,1166,697,24
34,190,156,-112,-61,173,366,766,1351,1185,712,24
29,204,175,-117,-73,190,366,790,1376,1215,727,34
29,204,175,-117,-73,190,361,800,1400,1239,741,34
29,204,175,-117,-73,190,361,805,1424,1254,756,34
24,204,180,-114,-78,192,366,824,1449,1278,771,34
24,219,195,-122,-85,207,366,849,1483,1307,795,43
24,219,195,-122,-85,207,370,858,1507,1327,805,43
24,219,195,-122,-85,207,375,868,1527,1346,814,39
19,224,204,-122,-92,214,380,883,1556,1366,829,39
19,224,204,-122,-92,214,380,912,1586,1395,839,39
19,224,204,-122,-92,214,380,927,1605,1420,854,39
9,224,214,-117,-102,219,390,932,1629,1439,868,39
9,224,214,-117,-102,219,390,951,1644,1459,873,43
0,224,224,-112,-112,224,395,966,1659,1468,878,34
-4,229,234,-112,-119,231,400,985,1678,1488,893,34
-4,229,234,-112,-119,231,405,1000,1698,1512,902,34
-4,229,234,-112,-119,231,409,1010,1727,1527,912,34
-4,219,224,-107,-114,222,414,1029,1747,1556,922,29
-9,224,234,-107,-122,229,424,1044,1771,1576,936,24
-9,224,234,-107,-122,229,434,1058,1800,1595,946,19
-19,229,248,-104,-134,239,444,1073,1830,1620,956,14
-19,229,248,-104,-134,239,448,1083,1844,1629,966,14
-19,229,248,-104,-134,239,453,1102,1873,1654,976,14
-24,229,253,-102,-139,241,458,1122,1893,1678,995,9
-29,234,263,-102,-146,248,463,1146,1917,1698,1010,9
-29,234,263,-102,-146,248,473,1161,1942,1727,1029,19
-29,234,263,-102,-146,248,483,1176,1966,1751,1034,19
-39,234,273,-97,-156,253,492,1190,1986,1766,1049,19
-39,239,278,-100,-158,258,492,1205,2000,1790,1068,19
-29,244,273,-107,-151,258,497,1224,2025,1805,1083,14
-34,244,278,-104,-156,261,502,1234,2039,1820,1093,14
-39,244,283,-102,-161,263,507,1244,2049,1839,1112,19
-39,248,287,-104,-163,268,507,1249,2064,1859,1112,19
-43,258,302,-107,-173,280,502,1263,2083,1878,1132,34
-43,258,302,-107,-173,280,507,1273,2108,1903,1141,43
-43,263,307,-109,-175,285,507,1283,2127,1922,1161,43
-53,263,317,-104,-185,290,502,1293,2147,1942,1176,43
-43,263,307,-109,-175,285,492,1307,2166,1956,1190,53
-48,268,317,-109,-183,292,488,1327,2176,1976,1205,58
-48,278,326,-114,-187,302,488,1342,2191,1986,1220,68
-48,278,326,-114,-187,302,483,1351,2205,2000,1229,73
-48,283,331,-117,-190,307,473,1371,2210,2015,1239,78
-48,287,336,-119,-192,312,473,1371,2220,2030,1259,82
-48,292,341,-122,-195,317,478,1381,2235,2044,1268,87
-53,292,346,-119,-200,319,483,1381,2239,2054,1283,92
-43,292,336,-124,-190,314,473,1400,2249,2059,1293,102
-48,302,351,-126,-200,326,473,1400,2249,2064,1307,117
-48,302,351,-126,-200,326,478,1405,2249,2074,1317,126
-48,302,351,-126,-200,326,478,1405,2244,2078,1322,141
-48,297,346,-124,-197,322,478,1395,2239,2074,1322,146
-53,302,356,-124,-204,329,478,1390,2230,2074,1322,151
-53,307,361,-126,-207,334,473,1385,2215,2069,1327,156
-53,312,366,-129,-209,339,468,1371,2196,2064,1337,170
-53,312,366,-129,-209,339,463,1361,2171,2049,1337,180
-53,317,370,-131,-212,344,463,1351,2152,2039,1337,195
-53,322,375,-134,-214,348,463,1342,2132,2025,1337,204
-53,326,380,-136,-217,353,448,1327,2103,2005,1346,214
-48,322,370,-136,-209,346,448,1302,2078,1986,1337,219
-48,326,375,-139,-212,351,453,1288,2049,1971,1332,234
-43,331,375,-143,-209,353,453,1273,2030,1952,1327,244
-43,336,380,-146,-212,358,453,1254,2000,1922,1327,244
-43,336,380,-146,-212,358,458,1229,1961,1893,1317,253
-43,331,375,-143,-209,353,448,1200,1917,1864,1312,263
-43,336,380,-146,-212,358,448,1171,1878,1825,1288,273
-39,336,375,-148,-207,356,448,1141,1834,1790,1273,278
-34,326,361,-146,-197,344,448,1098,1781,1756,1249,278
-34,336,370,-151,-202,353,448,1054,1732,1717,1234,283
-34,336,370,-151,-202,353,444,1024,1683,1678,1215,283
-34,341,375,-153,-204,358,444,985,1634,1644,1195,287
-39,331,370,-146,-204,351,439,932,1581,1600,1176,302
-39,336,375,-148,-207,356,429,888,1542,1556,1161,312
-39,336,375,-148,-207,356,429,849,1498,1522,1146,317
-29,341,370,-156,-200,356,414,819,1444,1488,1127,326
-14,351,366,-168,-190,358,395,790,1395,1459,1102,331
-14,351,366,-168,-190,358,380,766,1351,1420,1083,341
-9,351,361,-170,-185,356,366,741,1302,1376,1063,346
-4,356,361,-175,-183,358,351,717,1259,1327,1044,356
0,356,356,-178,-178,356,341,688,1215,1278,1019,366
4,351,346,-178,-170,348,331,653,1161,1234,1000,370
9,351,341,-180,-165,346,326,624,1122,1195,971,370
9,351,341,-180,-165,346,312,600,1068,1151,951,370
24,361,336,-192,-156,348,302,580,1034,1112,917,375
29,361,331,-195,-151,346,273,546,985,1073,897,380
34,361,326,-197,-146,344,258,522,941,1029,868,385
39,356,317,-197,-139,336,244,488,897,990,844,385
48,361,312,-204,-131,336,224,458,858,941,810,385
53,356,302,-204,-124,329,209,434,810,897,785,385
58,351,292,-204,-117,322,204,405,766,858,761,380
63,346,283,-204,-109,314,190,375,727,819,732,380
68,346,278,-207,-104,312,175,356,688,785,702,385
73,341,268,-207,-97,305,165,336,653,746,673,385
73,336,263,-204,-95,300,161,317,619,707,644,380
78,331,253,-204,-87,292,151,297,585,668,619,370
73,326,253,-200,-90,290,151,268,541,624,590,356
78,317,239,-197,-80,278,141,248,507,590,570,346
82,317,234,-200,-75,275,131,224,478,561,546,341
87,317,229,-202,-70,273,122,204,444,531,517,331
92,302,209,-197,-58,256,122,185,405,488,483,322
92,292,200,-192,-53,246,122,170,375,458,453,312
97,283,185,-190,-43,234,117,156,351,429,429,297
102,273,170,-187,-34,222,112,141,326,400,400,283
97,268,170,-183,-36,219,117,126,297,370,375,268
97,258,161,-178,-31,209,117,107,278,351,356,258
107,253,146,-180,-19,200,117,92,258,322,341,253
112,253,141,-183,-14,197,107,82,239,302,317,244
112,244,131,-178,-9,187,107,73,214,273,292,234
112,239,126,-175,-7,183,102,68,195,253,278,224
112,234,122,-173,-4,178,97,58,180,239,258,219
112,229,117,-170,-2,173,92,53,165,224,244,209
112,224,112,-168,0,168,87,53,161,219,234,209
112,219,107,-165,2,163,82,43,146,204,214,200
117,214,97,-165,9,156,78,39,131,195,209,195
117,204,87,-161,14,146,68,29,131,185,200,190
117,204,87,-161,14,146,63,29,131,170,195,175
117,200,82,-158,17,141,53,29,117,165,185,170
117,195,78,-156,19,136,48,19,102,151,175,165
117,195,78,-156,19,136,39,14,97,141,170,165
117,195,78,-156,19,136,48,14,97,141,156,161
122,190,68,-156,26,129,48,19,92,136,151,151
122,185,63,-153,29,124,48,19,97,126,141,146
126,180,53,-153,36,117,53,24,102,122,136,146
126,185,58,-156,34,122,48,29,102,117,131,141
126,180,53,-153,36,117,43,34,102,117,126,136
126,175,48,-151,39,112,34,34,97,112,126,131
126,175,48,-151,39,112,29,39,97,107,122,126
126,175,48,-151,39,112,14,48,97,112,117,126
126,175,48,-151,39,112,9,48,92,112,112,122
126,170,43,-148,41,107,9,43,92,112,112,117
126,165,39,-146,43,102,4,43,92,117,107,112
126,156,29,-141,48,92,4,48,102,107,107,122
126,156,29,-141,48,92,4,48,102,112,102,117
126,156,29,-141,48,92,4,48,102,112,102,117
126,156,29,-141,48,92,4,48,102,107,102,112
126,156,29,-141,48,92,0,53,97,102,102,102
122,156,34,-139,43,95,0,53,97,102,92,107
122,151,29,-136,46,90,0,58,102,102,87,107
122,151,29,-136,46,90,0,63,102,102,87,107
122,141,19,-131,51,80,9,58,102,102,97,102
122,141,19,-131,51,80,9,63,102,102,92,97
122,141,19,-131,51,80,9,68,107,102,87,97
122,141,19,-131,51,80,9,68,107,97,87,97
112,146,34,-129,39,90,24,58,107,97,78,87
112,146,34,-129,39,90,29,53,107,97,82,92
112,146,34,-129,39,90,34,48,107,102,82,92
112,141,29,-126,41,85,39,43,107,102,82,92
102,136,34,-119,34,85,43,29,107,92,73,92
97,136,39,-117,29,87,53,24,102,92,73,92
97,136,39,-117,29,87,63,24,97,92,73,92
97,136,39,-117,29,87,73,24,92,92,73,82
87,136,48,-112,19,92,87,14,82,82,73,73
87,136,48,-112,19,92,97,0,78,82,68,78
87,136,48,-112,19,92,102,-9,73,82,68,78
87,136,48,-112,19,92,107,-24,73,87,68,78
82,141,58,-112,12,100,97,-29,73,87,82,87
82,141,58,-112,12,100,97,-29,73,87,82,87
82,146,63,-114,9,104,92,-24,78,87,87,87
82,146,63,-114,9,104,92,-24,78,97,87,87
92,156,63,-124,14,109,92,-19,82,107,97,97
97,156,58,-126,19,107,92,-9,87,112,102,97
97,161,63,-129,17,112,92,-4,92,112,107,97
97,161,63,-129,17,112,92,4,102,112,112,97
97,161,63,-129,17,112,102,14,112,126,112,107
97,161,63,-129,17,112,107,19,112,126,112,107
97,161,63,-129,17,112,107,19,112,126,112,107
97,161,63,-129,17,112,107,19,117,126,112,107
107,161,53,-134,26,107,92,19,117,126,122,107
107,161,53,-134,26,107,92,19,117,126,126,112
107,156,48,-131,29,102,87,19,117,131,126,112
107,151,43,-129,31,97,82,9,117,131,131,107
107,161,53,-134,26,107,73,19,126,141,131,117
107,161,53,-134,26,107,68,24,122,141,136,122
107,161,53,-134,26,107,68,29,122,141,141,122
107,161,53,-134,26,107,63,43,122,141,141,122
107,151,43,-129,31,97,63,34,122,141,151,122
107,151,43,-129,31,97,63,34,122,141,151,122
102,151,48,-126,26,100,63,34,117,141,151,122
102,151,48,-126,26,100,63,34,117,136,151,122
102,151,48,-126,26,100,73,34,107,131,151,117
102,151,48,-126,26,100,73,34,102,126,146,112
102,151,48,-126,26,100,73,29,92,122,136,107
97,151,53,-124,21,102,78,29,87,117,131,102
102,151,48,-126,26,100,73,24,92,112,122,102
102,151,48,-126,26,100,68,24,87,112,122,102
102,151,48,-126,26,100,58,24,82,107,122,102
97,151,53,-124,21,102,48,19,82,107,122,102
97,146,48,-122,24,97,39,24,73,97,117,102
97,141,43,-119,26,92,34,24,73,92,117,102
97,136,39,-117,29,87,34,24,68,92,117,102
97,131,34,-114,31,82,43,24,68,92,117,102
97,141,43,-119,26,92,53,34,68,92,122,97
97,141,43,-119,26,92,53,34,68,92,122,97
97,141,43,-119,26,92,53,34,63,87,117,97
97,141,43,-119,26,92,53,29,63,87,117,97
87,141,53,-114,17,97,53,29,63,87,117,102
87,141,53,-114,17,97,53,29,58,87,117,102
92,141,48,-117,21,95,53,24,58,82,117,102
92,136,43,-114,24,90,53,19,53,78,117,102
92,136,43,-114,24,90,43,24,63,78,117,102
92,136,43,-114,24,90,43,24,63,78,117,102
92,136,43,-114,24,90,43,29,53,78,117,97
92,136,43,-114,24,90,43,29,53,78,112,97
102,136,34,-119,34,85,24,29,53,78,112,97
102,136,34,-119,34,85,24,34,48,78,112,97
102,136,34,-119,34,85,19,34,48,68,112,97
102,136,34,-119,34,85,19,34,48,68,112,102
102,131,29,-117,36,80,19,43,48,68,107,102
102,131,29,-117,36,80,24,43,43,68,107,102
102,131,29,-117,36,80,19,48,43,68,107,102
102,131,29,-117,36,80,19,48,43,68,107,102
102,131,29,-117,36,80,24,48,43,63,107,102
102,136,34,-119,34,85,24,48,39,63,112,97
102,136,34,-119,34,85,24,43,39,63,112,97
107,136,29,-122,39,82,19,43,39,58,107,97
97,136,39,-117,29,87,29,43,39,58,107,97
97,136,39,-117,29,87,29,43,39,58,107,102
102,136,34,-119,34,85,29,43,39,58,102,102
107,136,29,-122,39,82,29,48,43,63,102,102
107,136,29,-122,39,82,29,39,34,53,102,102
107,136,29,-122,39,82,29,39,34,53,102,102
107,136,29,-122,39,82,29,39,29,48,102,102
102,136,34,-119,34,85,29,39,29,48,102,102
102,126,24,-114,39,75,34,24,29,53,102,92
102,126,24,-114,39,75,39,24,29,53,102,92
107,126,19,-117,43,73,43,24,29,53,102,92
107,126,19,-117,43,73,48,24,29,53,102,92
97,131,34,-114,31,82,68,4,19,53,92,92
97,131,34,-114,31,82,78,-4,9,43,92,92
97,131,34,-114,31,82,87,-14,9,39,92,97
97,136,39,-117,29,87,87,-19,9,39,97,97
87,136,48,-112,19,92,87,-24,0,39,87,97
87,136,48,-112,19,92,87,-29,0,39,87,97
87,136,48,-112,19,92,87,-34,0,39,87,97
87,136,48,-112,19,92,87,-39,0,39,87,97
87,146,58,-117,14,102,78,-48,0,48,97,97
87,146,58,-117,14,102,78,-43,0,48,97,97
87,146,58,-117,14,102,78,-43,0,48,97,97
87,146,58,-117,14,102,78,-43,0,48,97,97
97,156,58,-126,19,107,73,-43,9,48,97,107
97,156,58,-126,19,107,73,-43,9,48,97,107
97,156,58,-126,19,107,68,-53,9,39,97,102
97,156,58,-126,19,107,63,-63,9,39,97,97
107,165,58,-136,24,112,58,-53,9,48,107,97
107,165,58,-136,24,112,53,-53,9,48,107,97
102,165,63,-134,19,114,48,-48,9,48,102,102
102,165,63,-134,19,114,43,-43,9,43,102,102
107,165,58,-136,24,112,29,-43,9,53,112,112
107,165,58,-136,24,112,24,-39,14,58,112,112
107,165,58,-136,24,112,19,-34,24,58,112,112
107,165,58,-136,24,112,14,-29,29,58,112,117
107,165,58,-136,24,112,9,-19,29,68,122,126
107,170,63,-139,21,117,4,-19,29,68,122,126
112,170,58,-141,26,114,-4,-24,29,68,122,126
117,170,53,-143,31,112,-9,-24,29,68,122,122
112,165,53,-139,29,109,-9,-34,24,63,112,117
107,161,53,-134,26,107,-14,-34,24,58,112,112
102,156,53,-129,24,104,-14,-34,24,48,107,107
97,151,53,-124,21,102,-14,-34,24,43,102,102
107,141,34,-124,36,87,-9,-24,9,39,97,97
107,141,34,-124,36,87,-14,-29,9,39,92,97
107,141,34,-124,36,87,-19,-34,9,43,87,97
107,141,34,-124,36,87,-24,-34,4,43,82,97
107,131,24,-119,41,78,-29,-29,4,39,82,87
107,131,24,-119,41,78,-29,-19,9,39,82,87
107,136,29,-122,39,82,-24,-14,9,39,87,92
107,136,29,-122,39,82,-19,-9,14,39,87,92
97,131,34,-114,31,82,-9,-4,14,29,87,92
97,131,34,-114,31,82,-4,-4,14,34,87,92
97,131,34,-114,31,82,4,-4,14,34,87,92
97,131,34,-114,31,82,9,-4,14,34,87,92
97,122,24,-109,36,73,14,4,14,43,87,92
97,122,24,-109,36,73,14,4,14,43,87,92
97,126,29,-112,34,78,14,4,14,43,87,92
97,126,29,-112,34,78,14,4,14,43,92,92
97,126,29,-112,34,78,14,14,24,39,82,92
97,126,29,-112,34,78,14,14,24,39,78,92
97,122,24,-109,36,73,14,14,24,43,78,92
102,117,14,-109,43,65,19,14,24,43,78,92
102,117,14,-109,43,65,14,24,24,43,82,82
102,112,9,-107,46,61,24,24,24,43,82,82
97,112,14,-104,41,63,24,24,24,43,87,82
97,112,14,-104,41,63,24,24,24,43,87,82
107,122,14,-114,46,68,34,34,34,48,82,82
107,122,14,-114,46,68,24,34,34,48,82,82
107,122,14,-114,46,68,24,34,34,48,82,87
107,122,14,-114,46,68,24,34,34,48,82,87
107,122,14,-114,46,68,29,43,34,48,92,97
107,122,14,-114,46,68,29,43,34,48,92,92
107,122,14,-114,46,68,34,43,34,48,82,87
107,117,9,-112,48,63,39,43,29,39,82,87
107,117,9,-112,48,63,39,39,29,48,87,87
107,117,9,-112,48,63,43,34,29,48,87,87
107,117,9,-112,48,63,43,34,29,48,87,87
107,117,9,-112,48,63,53,39,29,48,87,87
97,117,19,-107,39,68,63,34,19,39,87,87
97,117,19,-107,39,68,63,29,19,39,92,87
97,117,19,-107,39,68,68,24,14,39,92,87
97,117,19,-107,39,68,68,19,14,39,92,92
97,126,29,-112,34,78,82,-4,14,43,97,92
107,136,29,-122,39,82,78,-4,24,73,122,102
126,156,29,-141,48,92,73,-14,39,107,146,122
122,126,4,-124,58,65,58,-24,73,161,185,136
112,117,4,-114,53,61,48,-19,156,244,234,156
151,141,-9,-146,80,65,53,9,297,380,312,204
175,161,-14,-168,95,73,48,39,400,497,409,244
175,151,-24,-163,100,63,29,39,390,512,463,273
185,156,-29,-170,107,63,14,4,253,439,473,292
185,161,-24,-173,104,68,0,-58,29,297,444,317
175,151,-24,-163,100,63,-14,-151,-292,78,375,307
175,151,-24,-163,100,63,-24,-234,-585,-146,292,307
185,151,-34,-168,109,58,-34,-326,-795,-336,224,326
185,151,-34,-168,109,58,-58,-434,-1029,-551,136,326
195,146,-48,-170,122,48,-87,-556,-1302,-800,24,322
190,146,-43,-168,117,51,-112,-668,-1566,-1068,-97,307
190,146,-43,-168,117,51,-136,-805,-1820,-1307,-209,312
190,146,-43,-168,117,51,-175,-956,-2088,-1537,-307,331
185,146,-39,-165,112,53,-209,-1117,-2400,-1815,-444,341
180,146,-34,-163,107,56,-244,-1298,-2742,-2132,-590,341
190,146,-43,-168,117,51,-278,-1498,-3103,-2493,-761,351
195,131,-63,-163,129,34,-331,-1737,-3538,-2898,-966,375
200,107,-92,-153,146,7,-385,-1995,-3996,-3333,-1200,385
204,73,-131,-139,168,-29,-429,-2210,-4396,-3728,-1405,385
229,39,-190,-134,209,-75,-458,-2347,-4684,-4016,-1581,380
239,-4,-244,-117,241,-124,-483,-2474,-4928,-4304,-1790,336
244,-34,-278,-104,261,-156,-512,-2571,-5124,-4577,-2025,273
253,-58,-312,-97,283,-185,-561,-2688,-5270,-4777,-2239,214
273,-68,-341,-102,307,-204,-614,-2835,-5431,-4992,-2459,156
273,-78,-351,-97,312,-214,-678,-2967,-5582,-5206,-2708,82
287,-73,-361,-107,324,-217,-746,-3040,-5641,-5333,-2903,29
307,-68,-375,-119,341,-222,-819,-3093,-5641,-5392,-3059,-19
336,-63,-400,-136,368,-231,-873,-3123,-5602,-5431,-3220,-78
356,-63,-419,-146,387,-241,-912,-3118,-5553,-5465,-3386,-151
361,-48,-409,-156,385,-229,-936,-3118,-5509,-5494,-3562,-263
370,-39,-409,-165,390,-224,-956,-3137,-5470,-5494,-3703,-370
380,-39,-419,-170,400,-229,-995,-3147,-5426,-5494,-3835,-473
405,-53,-458,-175,431,-256,-1024,-3152,-5377,-5504,-3967,-590
405,-68,-473,-168,439,-270,-1034,-3128,-5299,-5475,-4069,-697
414,-87,-502,-163,458,-295,-1044,-3093,-5187,-5372,-4099,-746
424,-122,-546,-151,485,-334,-1044,-3045,-5041,-5231,-4045,-775
434,-146,-580,-143,507,-363,-1044,-3025,-4904,-5065,-3962,-761
453,-170,-624,-141,539,-397,-1058,-3006,-4801,-4923,-3869,-736
478,-190,-668,-143,573,-429,-1063,-2986,-4718,-4816,-3806,-761
488,-224,-712,-131,600,-468,-1073,-2957,-4631,-4709,-3757,-814
492,-258,-751,-117,622,-505,-1073,-2923,-4533,-4601,-3689,-844
492,-297,-790,-97,641,-544,-1063,-2874,-4421,-4474,-3606,-863
492,-317,-810,-87,651,-563,-1049,-2815,-4289,-4343,-3513,-873
512,-336,-849,-87,680,-592,-1044,-2718,-4108,-4152,-3376,-863
522,-366,-888,-78,705,-627,-1010,-2576,-3879,-3938,-3220,-854
527,-405,-932,-61,729,-668,-956,-2420,-3655,-3747,-3079,-839
527,-429,-956,-48,741,-692,-907,-2274,-3459,-3567,-2957,-834
517,-463,-980,-26,749,-722,-849,-2117,-3245,-3362,-2810,-834
522,-483,-1005,-19,763,-744,-795,-1961,-3025,-3162,-2649,-824
522,-502,-1024,-9,773,-763,-766,-1844,-2849,-2996,-2532,-839
522,-507,-1029,-7,775,-768,-736,-1732,-2688,-2859,-2449,-858
507,-512,-1019,2,763,-766,-697,-1620,-2498,-2679,-2318,-834
502,-527,-1029,12,766,-778,-658,-1503,-2313,-2493,-2161,-810
502,-556,-1058,26,780,-807,-619,-1385,-2166,-2347,-2049,-810
502,-590,-1093,43,797,-841,-575,-1273,-2020,-2215,-1952,-810
502,-595,-1098,46,800,-846,-541,-1176,-1883,-2083,-1854,-800
497,-605,-1102,53,800,-854,-497,-1083,-1766,-1981,-1771,-785
497,-605,-1102,53,800,-854,-468,-1000,-1654,-1869,-1678,-766
497,-610,-1107,56,802,-858,-448,-932,-1542,-1756,-1576,-727
478,-605,-1083,63,780,-844,-419,-854,-1434,-1654,-1498,-717
463,-595,-1058,65,761,-827,-385,-785,-1317,-1527,-1400,-692
458,-585,-1044,63,751,-814,-361,-722,-1185,-1376,-1259,-634
458,-556,-1015,48,736,-785,-336,-639,-1054,-1215,-1107,-556
458,-522,-980,31,719,-751,-312,-570,-946,-1083,-980,-483
444,-478,-922,17,683,-700,-278,-502,-839,-951,-858,-400
429,-444,-873,7,651,-658,-239,-434,-722,-819,-736,-346
419,-414,-834,-2,627,-624,-209,-375,-619,-707,-624,-287
409,-400,-810,-4,610,-605,-185,-326,-517,-600,-531,-248
385,-400,-785,7,585,-592,-151,-278,-419,-497,-448,-234
370,-400,-771,14,570,-585,-112,-229,-341,-405,-395,-229
361,-385,-746,12,553,-566,-92,-190,-263,-336,-336,-214
346,-351,-697,2,522,-524,-68,-161,-200,-273,-283,-195
331,-312,-644,-9,488,-478,-58,-117,-141,-204,-214,-156
312,-268,-580,-21,446,-424,-34,-78,-78,-126,-151,-131
297,-229,-527,-34,412,-378,-19,-48,-24,-73,-87,-107
278,-185,-463,-46,370,-324,-19,-29,29,-19,-48,-78
258,-146,-405,-56,331,-275,-9,-4,87,39,-9,-63
224,-126,-351,-48,287,-239,9,34,156,102,19,-73
185,-107,-292,-39,239,-200,39,82,209,156,48,-73
156,-87,-244,-34,200,-165,58,122,273,204,82,-63
146,-53,-200,-46,173,-126,73,156,312,253,122,-53
131,-9,-141,-61,136,-75,82,185,346,292,151,-39
122,34,-87,-78,104,-26,82,200,375,322,185,-29
107,68,-39,-87,73,14,92,214,409,356,219,-9
97,82,-14,-90,56,34,97,234,448,390,244,4
82,97,14,-90,34,56,102,258,483,419,253,9
73,92,19,-82,26,56,122,278,522,453,273,19
68,92,24,-80,21,58,146,302,546,488,287,29
53,92,39,-73,7,65,161,336,575,512,307,29
48,97,48,-73,0,73,175,361,600,527,326,29
43,107,63,-75,-9,85,175,370,610,536,336,29
43,122,78,-82,-17,100,175,361,619,536,336,29
39,122,82,-80,-21,102,175,366,629,546,336,29
39,122,82,-80,-21,102,175,366,649,551,336,29
39,122,82,-80,-21,102,175,370,653,561,336,29
39,126,87,-82,-24,107,170,385,663,580,346,29
39,126,87,-82,-24,107,175,400,683,595,351,29
39,126,87,-82,-24,107,180,419,702,600,361,29
34,131,97,-82,-31,114,185,434,722,614,366,29
24,126,102,-75,-39,114,185,439,717,619,370,39
19,126,107,-73,-43,117,185,448,732,629,375,39
19,126,107,-73,-43,117,180,458,746,639,380,39
19,131,112,-75,-46,122,180,463,756,649,385,39
19,131,112,-75,-46,122,190,478,771,663,395,39
14,131,117,-73,-51,124,200,488,780,673,400,39
14,131,117,-73,-51,124,209,492,795,683,405,39
14,131,117,-73,-51,124,214,507,805,692,409,39
24,131,107,-78,-41,119,229,512,819,702,414,39
24,136,112,-80,-43,124,229,522,834,712,424,39
24,141,117,-82,-46,129,224,527,844,732,429,39
24,141,117,-82,-46,129,224,536,858,736,434,39
24,141,117,-82,-46,129,234,551,878,751,439,39
24,141,117,-82,-46,129,234,561,888,761,439,39
24,146,122,-85,-48,134,234,566,902,771,448,39
24,146,122,-85,-48,134,239,580,912,780,458,39
14,146,131,-80,-58,139,229,585,936,795,473,48
14,146,131,-80,-58,139,234,605,946,810,478,48
14,151,136,-82,-61,143,234,619,966,824,483,48
14,151,136,-82,-61,143,234,629,980,844,492,48
14,151,136,-82,-61,143,239,649,1005,849,497,58
9,151,141,-80,-65,146,239,653,1019,858,507,58
9,151,141,-80,-65,146,244,658,1034,873,517,58
9,151,141,-80,-65,146,248,673,1049,893,522,58
4,146,141,-75,-68,143,244,683,1054,897,522,53
4,146,141,-75,-68,143,248,692,1073,907,527,48
4,146,141,-75,-68,143,253,697,1088,922,531,43
4,141,136,-73,-65,139,258,707,1107,941,536,39
4,141,136,-73,-65,139,248,717,1127,946,531,29
0,141,141,-70,-70,141,253,727,1146,961,541,29
0,146,146,-73,-73,146,258,741,1161,976,546,29
0,146,146,-73,-73,146,263,761,1180,990,551,29
-9,136,146,-63,-78,141,268,761,1200,1019,575,24
-9,136,146,-63,-78,141,273,771,1224,1029,580,24
-9,136,146,-63,-78,141,278,785,1239,1049,590,24
-14,141,156,-63,-85,148,278,800,1263,1063,600,24
-24,141,165,-58,-95,153,287,795,1273,1073,610,14
-24,141,165,-58,-95,153,297,800,1288,1093,614,14
-24,141,165,-58,-95,153,307,805,1312,1107,624,14
-24,141,165,-58,-95,153,317,814,1332,1127,634,14
-39,146,185,-53,-112,165,326,814,1351,1151,634,14
-39,146,185,-53,-112,165,331,819,1371,1171,644,14
-39,146,185,-53,-112,165,341,819,1390,1180,653,14
-43,146,190,-51,-117,168,356,834,1410,1200,663,14
-43,151,195,-53,-119,173,356,858,1444,1229,688,14
-43,151,195,-53,-119,173,361,868,1468,1249,697,14
-43,151,195,-53,-119,173,366,878,1488,1268,707,9
-48,156,204,-53,-126,180,370,893,1517,1288,722,9
-48,165,214,-58,-131,190,370,922,1542,1307,732,9
-48,165,214,-58,-131,190,370,936,1566,1332,746,9
-58,165,224,-53,-141,195,380,941,1595,1351,761,9
-58,165,224,-53,-141,195,380,961,1615,1371,766,14
-58,165,224,-53,-141,195,385,980,1649,1400,780,4
-63,170,234,-53,-148,202,390,1005,1668,1420,795,4
-63,170,234,-53,-148,202,395,1024,1688,1444,805,4
-63,170,234,-53,-148,202,400,1039,1717,1459,814,4
-63,180,244,-58,-153,212,409,1063,1747,1488,824,4
-68,185,253,-58,-161,219,414,1083,1771,1507,839,4
-68,185,253,-58,-161,219,419,1102,1800,1527,849,4
-78,190,268,-56,-173,229,424,1122,1830,1551,858,4
-78,190,268,-56,-173,229,419,1141,1844,1571,868,4
-78,190,268,-56,-173,229,424,1161,1873,1595,878,4
-82,190,273,-53,-178,231,429,1180,1893,1620,897,0
-87,195,283,-53,-185,239,434,1205,1917,1639,912,0
-87,195,283,-53,-185,239,444,1220,1942,1668,922,9
-87,195,283,-53,-185,239,453,1234,1966,1693,927,9
-97,195,292,-48,-195,244,463,1249,1986,1708,941,9
-97,200,297,-51,-197,248,463,1263,2000,1732,961,9
-87,204,292,-58,-190,248,458,1288,2030,1756,976,14
-92,204,297,-56,-195,251,463,1302,2049,1771,985,14
-97,204,302,-53,-200,253,468,1317,2064,1790,1005,19
-97,209,307,-56,-202,258,468,1327,2083,1810,1005,19
-92,209,302,-58,-197,256,463,1342,2103,1825,1024,24
-92,209,302,-58,-197,256,468,1351,2127,1844,1034,34
-92,214,307,-61,-200,261,468,1361,2147,1859,1054,34
-102,214,317,-56,-209,265,463,1371,2166,1873,1068,34
-102,214,317,-56,-209,265,468,1390,2186,1898,1083,34
-107,219,326,-56,-217,273,468,1415,2196,1917,1098,39
-107,229,336,-61,-222,283,473,1434,2210,1927,1112,48
-107,229,336,-61,-222,283,473,1449,2225,1942,1122,53
-107,224,331,-58,-219,278,478,1468,2230,1952,1127,68
-107,229,336,-61,-222,283,483,1468,2239,1961,1141,73
-107,234,341,-63,-224,287,492,1478,2254,1971,1146,78
-112,234,346,-61,-229,290,502,1478,2259,1976,1156,82
-102,234,336,-65,-219,285,502,1488,2269,1991,1176,87
-107,244,351,-68,-229,297,502,1488,2269,1995,1190,97
-107,244,351,-68,-229,297,507,1493,2269,2005,1200,102
-107,244,351,-68,-229,297,507,1493,2264,2010,1205,112
-97,258,356,-80,-226,307,507,1503,2254,2015,1215,122
-102,263,366,-80,-234,314,507,1498,2249,2015,1215,131
-102,268,370,-82,-236,319,502,1493,2239,2010,1220,141
-102,273,375,-85,-239,324,497,1478,2225,2005,1229,161
-102,273,375,-85,-239,324,492,1459,2215,1995,1239,170
-102,278,380,-87,-241,329,492,1449,2200,1991,1239,185
-102,283,385,-90,-244,334,492,1439,2186,1981,1239,195
-102,287,390,-92,-246,339,478,1424,2161,1966,1249,204
-97,302,400,-102,-248,351,473,1400,2137,1952,1249,229
-97,307,405,-104,-251,356,473,1385,2108,1942,1244,244
-92,312,405,-109,-248,358,468,1371,2088,1927,1239,253
-92,317,409,-112,-251,363,463,1351,2059,1903,1239,253
-92,312,405,-109,-248,358,463,1312,2020,1878,1234,253
-92,312,405,-109,-248,358,448,1278,1976,1854,1234,263
-92,322,414,-114,-253,368,444,1244,1937,1820,1215,273
-87,326,414,-119,-251,370,439,1210,1893,1790,1205,278
-92,317,409,-112,-251,363,434,1166,1834,1747,1180,278
-92,326,419,-117,-256,373,429,1122,1790,1708,1166,283
-92,326,419,-117,-256,373,419,1093,1747,1668,1146,283
-92,331,424,-119,-258,378,414,1054,1703,1634,1127,287
-87,322,409,-117,-248,366,390,1010,1654,1600,1107,283
-87,326,414,-119,-251,370,380,966,1610,1556,1093,292
-87,326,414,-119,-251,370,380,927,1561,1522,1078,297
-78,331,409,-126,-244,370,366,897,1503,1488,1058,307
-73,322,395,-124,-234,358,351,858,1444,1449,1044,322
-73,322,395,-124,-234,358,341,824,1400,1410,1024,331
-68,322,390,-126,-229,356,331,790,1351,1366,1005,336
-63,326,390,-131,-226,358,322,756,1307,1317,985,346
-48,326,375,-139,-212,351,292,727,1254,1278,961,336
-43,322,366,-139,-204,344,283,692,1200,1234,941,341
-39,322,361,-141,-200,341,278,663,1161,1195,912,341
-39,322,361,-141,-200,341,263,639,1107,1151,893,341
-24,322,346,-148,-185,334,273,610,1063,1102,858,356
-19,322,341,-151,-180,331,253,575,1015,1063,839,361
-14,322,336,-153,-175,329,248,551,971,1019,810,366
-9,317,326,-153,-168,322,244,517,927,980,785,366
0,322,322,-161,-161,322,224,478,878,941,761,356
4,317,312,-161,-153,314,209,453,829,897,736,356
9,312,302,-161,-146,307,204,424,785,858,712,351
14,307,292,-161,-139,300,190,395,746,819,683,351
19,302,283,-161,-131,292,175,380,712,775,653,346
24,302,278,-163,-126,290,165,356,673,736,624,346
24,302,278,-163,-126,290,161,331,634,697,595,341
29,302,273,-165,-122,287,151,307,595,658,570,331
34,297,263,-165,-114,280,141,287,551,624,551,336
39,287,248,-163,-104,268,131,268,517,590,531,326
43,287,244,-165,-100,265,122,244,488,561,507,322
48,287,239,-168,-95,263,112,224,453,531,478,312
53,283,229,-168,-87,256,107,204,424,488,448,297
53,273,219,-163,-82,246,112,190,395,458,424,292
58,263,204,-161,-73,234,112,175,370,429,405,283
63,253,190,-158,-63,222,112,161,346,400,380,273
58,239,180,-148,-61,209,107,156,317,370,366,278
58,229,170,-143,-56,200,107,136,297,351,346,268
68,224,156,-146,-43,190,107,122,278,322,331,263
73,224,151,-148,-39,187,97,112,258,302,307,253
73,214,141,-143,-34,178,97,112,244,283,283,234
73,209,136,-141,-31,173,92,107,224,263,268,224
73,204,131,-139,-29,168,87,97,209,248,248,219
73,200,126,-136,-26,163,82,92,195,234,234,209
82,195,112,-139,-14,153,73,82,185,219,224,209
82,190,107,-136,-12,148,63,73,165,204,204,200
87,185,97,-136,-4,141,53,68,146,195,200,195
87,175,87,-131,0,131,39,58,141,185,190,190
97,175,78,-136,9,126,29,58,131,161,175,165
97,170,73,-134,12,122,24,58,117,156,165,161
97,165,68,-131,14,117,24,48,102,141,156,156
97,165,68,-131,14,117,19,43,97,131,151,156
97,156,58,-126,19,107,29,48,102,131,136,141
102,151,48,-126,26,100,29,48,92,126,131,131
102,146,43,-124,29,95,29,43,92,117,122,126
107,141,34,-124,36,87,34,43,92,112,117,126
97,136,39,-117,29,87,34,53,92,107,112,131
97,131,34,-114,31,82,34,53,92,107,107,126
97,126,29,-112,34,78,29,48,87,102,107,122
97,126,29,-112,34,78,29,48,87,97,102,117
97,136,39,-117,29,87,34,43,87,92,107,117
97,136,39,-117,29,87,29,39,82,92,102,112
97,131,34,-114,31,82,29,29,82,92,102,107
97,126,29,-112,34,78,24,24,82,97,97,102
87,126,39,-107,24,82,29,14,73,97,107,112
87,126,39,-107,24,82,34,9,73,102,102,107
87,126,39,-107,24,82,39,4,73,102,102,107
87,126,39,-107,24,82,43,0,73,97,102,102
87,117,29,-102,29,73,58,0,78,92,102,92
82,117,34,-100,24,75,58,-4,78,92,92,97
82,112,29,-97,26,70,58,-4,82,92,87,97
82,112,29,-97,26,70,58,-4,82,92,87,97
82,112,29,-97,26,70,58,-4,82,102,97,97
82,112,29,-97,26,70,58,-4,82,102,92,97
82,112,29,-97,26,70,58,-4,87,102,87,102
82,112,29,-97,26,70,58,-9,87,97,87,107
92,117,24,-104,34,70,53,0,97,107,92,117
92,117,24,-104,34,70,48,-4,97,107,102,122
92,117,24,-104,34,70,43,-9,97,112,107,122
92,112,19,-102,36,65,39,-14,97,112,112,122
92,117,24,-104,34,70,34,-4,92,112,102,112
87,117,29,-102,29,73,34,-4,92,112,102,112
87,117,29,-102,29,73,34,0,92,112,102,112
87,117,29,-102,29,73,34,4,92,112,102,102
87,107,19,-97,34,63,34,0,92,107,92,92
87,107,19,-97,34,63,39,0,87,102,87,97
87,107,19,-97,34,63,39,4,82,97,87,97
87,107,19,-97,34,63,39,4,82,97,87,97
92,112,19,-102,36,65,39,14,92,107,102,97
92,112,19,-102,36,65,39,19,92,107,102,97
92,117,24,-104,34,70,34,29,97,107,107,97
92,117,24,-104,34,70,34,34,97,117,107,97
92,117,24,-104,34,70,34,34,107,117,107,107
97,117,19,-107,39,68,34,39,107,122,112,107
97,122,24,-109,36,73,34,39,107,122,117,107
97,122,24,-109,36,73,34,43,112,122,122,107
97,122,24,-109,36,73,34,48,112,126,122,112
97,122,24,-109,36,73,39,58,112,126,122,117
97,122,24,-109,36,73,39,63,112,126,122,122
97,122,24,-109,36,73,39,68,117,126,122,126
97,131,34,-114,31,82,39,68,117,136,131,126
97,131,34,-114,31,82,43,68,117,136,136,131
97,126,29,-112,34,78,43,68,117,141,136,131
97,122,24,-109,36,73,43,58,117,141,141,126
97,122,24,-109,36,73,58,63,117,131,136,117
97,122,24,-109,36,73,58,63,112,131,136,122
97,122,24,-109,36,73,63,63,112,131,136,122
97,122,24,-109,36,73,63,73,112,131,131,122
97,112,14,-104,41,63,73,73,112,131,141,122
97,112,14,-104,41,63,73,73,112,131,141,122
92,112,19,-102,36,65,73,73,107,131,141,122
92,112,19,-102,36,65,73,73,107,126,141,122
92,112,19,-102,36,65,73,73,102,126,146,122
92,112,19,-102,36,65,73,73,102,126,146,122
92,112,19,-102,36,65,73,68,97,126,141,122
87,112,24,-100,31,68,78,68,97,126,141,122
92,122,29,-107,31,75,73,73,102,122,141,131
92,122,29,-107,31,75,68,73,97,122,141,131
92,122,29,-107,31,75,58,73,92,117,141,131
87,122,34,-104,26,78,48,68,92,117,141,131
97,122,24,-109,36,73,39,63,82,117,136,122
97,122,24,-109,36,73,24,63,82,112,136,122
97,122,24,-109,36,73,14,63,78,112,136,122
97,122,24,-109,36,73,14,63,78,112,136,122
97,122,24,-109,36,73,4,53,78,112,141,126
97,122,24,-109,36,73,4,53,78,112,141,126
97,122,24,-109,36,73,4,53,73,107,136,126
97,122,24,-109,36,73,4,48,73,107,136,126
87,122,34,-104,26,78,19,29,68,97,126,112
87,122,34,-104,26,78,24,29,58,97,126,112
92,122,29,-107,31,75,29,24,53,92,126,112
92,117,24,-104,34,70,34,19,43,87,126,112
82,107,24,-95,29,65,43,4,34,68,122,112
82,107,24,-95,29,65,53,-4,34,68,117,112
82,107,24,-95,29,65,63,-9,24,68,112,107
82,107,24,-95,29,65,73,-19,24,68,102,107
73,107,34,-90,19,70,68,-29,14,58,102,97
73,107,34,-90,19,70,73,-24,9,58,102,97
73,107,34,-90,19,70,73,-24,9,48,102,97
73,107,34,-90,19,70,78,-24,9,48,102,102
73,112,39,-92,17,75,82,-24,19,58,97,102
73,112,39,-92,17,75,82,-24,14,58,97,102
73,112,39,-92,17,75,73,-19,14,58,97,102
73,112,39,-92,17,75,68,-19,14,58,97,102
82,112,29,-97,26,70,63,-9,14,53,97,102
82,117,34,-100,24,75,63,-9,9,53,102,97
82,117,34,-100,24,75,63,-14,9,53,102,97
87,117,29,-102,29,73,58,-14,9,48,97,97
78,117,39,-97,19,78,58,-14,19,58,107,107
78,117,39,-97,19,78,58,-14,19,58,107,112
82,117,34,-100,24,75,58,-14,19,58,102,112
87,117,29,-102,29,73,58,-9,24,63,102,112
97,126,29,-112,34,78,43,-9,34,73,112,112
97,126,29,-112,34,78,39,-9,34,73,112,112
97,126,29,-112,34,78,34,-9,29,68,112,112
92,126,34,-109,29,80,29,-9,29,68,112,112
92,126,34,-109,29,80,14,-4,29,63,122,122
92,126,34,-109,29,80,9,-4,29,63,122,122
97,126,29,-112,34,78,4,-4,29,63,122,122
97,126,29,-112,34,78,0,-4,29,63,122,122
97,122,24,-109,36,73,0,-4,19,53,117,112
97,122,24,-109,36,73,0,-4,19,53,112,112
97,122,24,-109,36,73,0,-4,19,48,107,107
97,117,19,-107,39,68,4,-4,14,43,102,107
97,107,9,-102,43,58,4,-4,14,43,92,97
97,112,14,-104,41,63,4,-4,14,43,92,97
97,112,14,-104,41,63,4,-9,14,48,92,97
97,112,14,-104,41,63,4,-9,14,48,92,97
97,107,9,-102,43,58,14,-4,9,48,92,97
97,107,9,-102,43,58,14,-4,9,48,92,97
97,102,4,-100,46,53,19,4,9,48,97,97
97,102,4,-100,46,53,19,4,14,48,97,97
97,92,-4,-95,51,43,19,14,14,48,102,97
97,92,-4,-95,51,43,19,14,14,48,102,97
97,92,-4,-95,51,43,24,14,14,48,102,97
97,92,-4,-95,51,43,24,14,14,48,107,97
107,82,-24,-95,65,29,24,29,19,48,97,97
107,87,-19,-97,63,34,29,29,19,48,97,97
107,87,-19,-97,63,34,29,29,19,48,97,97
107,87,-19,-97,63,34,34,29,19,48,97,97
107,87,-19,-97,63,34,34,39,19,48,97,97
107,87,-19,-97,63,34,34,39,19,48,97,92
107,87,-19,-97,63,34,34,39,19,48,97,92
107,87,-19,-97,63,34,34,34,19,48,97,92
112,87,-24,-100,68,31,43,34,19,39,97,92
107,87,-19,-97,63,34,48,39,19,39,97,97
107,78,-29,-92,68,24,48,29,9,39,87,87
107,78,-29,-92,68,24,48,29,9,39,87,87
107,78,-29,-92,68,24,48,29,9,39,87,87
107,78,-29,-92,68,24,48,29,9,39,87,87
97,78,-19,-87,58,29,58,19,0,29,78,78
97,78,-19,-87,58,29,58,24,0,29,78,78
97,78,-19,-87,58,29,58,24,0,29,78,78
97,78,-19,-87,58,29,58,24,0,29,78,78
87,78,-9,-82,48,34,48,14,0,39,78,78
87,78,-9,-82,48,34,53,14,0,39,78,78
87,78,-9,-82,48,34,53,4,0,29,78,73
87,78,-9,-82,48,34,53,-4,0,29,78,68
87,78,-9,-82,48,34,39,-19,-9,29,78,68
87,78,-9,-82,48,34,34,-24,-9,29,78,68
82,78,-4,-80,43,36,29,-24,-9,29,73,73
82,78,-4,-80,43,36,24,-24,-9,24,73,73
87,78,-9,-82,48,34,29,-29,-24,24,73,73
87,78,-9,-82,48,34,34,-29,-24,29,73,73
87,78,-9,-82,48,34,39,-29,-19,29,73,73
87,78,-9,-82,48,34,43,-29,-19,29,73,78
78,78,0,-78,39,39,48,-29,-19,19,63,68
78,82,4,-80,36,43,53,-29,-19,19,63,68
82,82,0,-82,41,41,53,-34,-19,19,63,68
87,82,-4,-85,46,39,58,-34,-19,19,63,63
78,82,4,-80,36,43,58,-34,-14,19,73,73
78,82,4,-80,36,43,53,-34,-14,19,73,73
78,82,4,-80,36,43,53,-34,-14,14,68,73
78,82,4,-80,36,43,53,-34,-14,14,63,73
78,82,4,-80,36,43,48,-34,-19,19,63,78
78,82,4,-80,36,43,43,-39,-19,19,63,78
78,82,4,-80,36,43,39,-43,-19,24,63,78
78,82,4,-80,36,43,34,-43,-24,24,63,78
78,92,14,-85,31,53,24,-43,-14,19,73,68
78,92,14,-85,31,53,19,-39,-9,19,73,68
78,97,19,-87,29,58,19,-39,-9,19,78,73
78,97,19,-87,29,58,19,-39,-4,19,78,73
87,102,14,-95,36,58,4,-24,-4,19,78,82
87,102,14,-95,36,58,4,-24,-4,24,78,82
87,102,14,-95,36,58,9,-24,-4,24,78,82
87,102,14,-95,36,58,9,-24,-4,24,78,82
87,102,14,-95,36,58,0,-24,-4,34,78,82
87,102,14,-95,36,58,-4,-24,-4,34,78,82
87,107,19,-97,34,63,-9,-24,-4,34,78,82
87,107,19,-97,34,63,-14,-24,-4,34,82,82
97,112,14,-104,41,63,-24,-14,4,39,92,92
97,117,19,-107,39,68,-24,-14,4,39,87,92
97,117,19,-107,39,68,-24,-14,4,43,87,92
102,117,14,-109,43,65,-19,-14,4,43,87,92
102,126,24,-114,39,75,-24,-14,14,53,92,102
102,122,19,-112,41,70,-14,-14,14,53,92,102
97,122,24,-109,36,73,-14,-14,14,53,97,102
97,122,24,-109,36,73,-14,-14,14,53,97,102
97,122,24,-109,36,73,-14,-4,14,48,102,102
97,122,24,-109,36,73,-24,-4,14,48,102,102
97,122,24,-109,36,73,-24,-4,14,48,102,107
97,122,24,-109,36,73,-24,-4,14,48,102,107
97,112,14,-104,41,63,-9,-14,4,39,92,97
97,112,14,-104,41,63,-9,-14,4,39,92,92
97,112,14,-104,41,63,-4,-14,4,39,82,87
97,107,9,-102,43,58,0,-14,0,29,82,87
97,107,9,-102,43,58,0,-9,0,29,78,87
97,107,9,-102,43,58,4,-14,0,29,78,87
97,107,9,-102,43,58,4,-14,0,29,78,87
97,107,9,-102,43,58,14,-9,0,29,78,87
97,107,9,-102,43,58,14,-9,0,29,78,87
97,107,9,-102,43,58,14,-9,0,29,82,87
97,107,9,-102,43,58,19,-9,-4,29,82,87
97,107,9,-102,43,58,19,-9,-4,29,82,92
97,107,9,-102,43,58,24,-4,4,43,97,92
107,107,0,-107,53,53,19,-4,4,53,102,112
117,107,-9,-112,63,48,14,-14,19,87,126,122
122,107,-14,-114,68,46,19,-14,63,141,165,136
131,107,-24,-119,78,41,9,-9,146,234,224,165
151,102,-48,-126,100,26,4,19,287,361,302,195
165,112,-53,-139,109,29,0,58,419,488,400,244
185,112,-73,-148,129,19,-9,68,429,541,473,283
185,117,-68,-151,126,24,-14,34,312,488,483,312
185,122,-63,-153,124,29,-19,-29,87,375,473,326
185,122,-63,-153,124,29,-34,-131,-244,175,414,326
185,122,-63,-153,124,29,-43,-234,-556,-39,331,317
185,122,-63,-153,124,29,-63,-317,-785,-229,273,317
185,122,-63,-153,124,29,-68,-434,-1010,-424,204,317
185,117,-68,-151,126,24,-87,-566,-1283,-653,92,312
180,107,-73,-143,126,17,-102,-688,-1566,-932,-39,307
190,107,-82,-148,136,12,-117,-824,-1849,-1200,-170,302
180,107,-73,-143,126,17,-146,-985,-2137,-1449,-278,312
175,97,-78,-136,126,9,-180,-1156,-2449,-1717,-405,312
170,97,-73,-134,122,12,-214,-1337,-2791,-2044,-561,312
170,87,-82,-129,126,2,-248,-1537,-3172,-2396,-732,302
175,63,-112,-119,143,-24,-302,-1786,-3586,-2801,-936,307
180,29,-151,-104,165,-61,-356,-2064,-4065,-3254,-1180,307
185,4,-180,-95,183,-87,-400,-2308,-4484,-3660,-1405,307
209,-39,-248,-85,229,-143,-439,-2474,-4792,-3977,-1590,292
219,-73,-292,-73,256,-183,-453,-2601,-5045,-4265,-1800,248
234,-112,-346,-61,290,-229,-492,-2698,-5270,-4538,-2025,175
244,-136,-380,-53,312,-258,-531,-2806,-5416,-4758,-2230,107
263,-146,-409,-58,336,-278,-595,-2952,-5577,-4972,-2440,48
273,-156,-429,-58,351,-292,-658,-3103,-5738,-5187,-2669,-14
278,-161,-439,-58,358,-300,-736,-3186,-5816,-5333,-2874,-78
297,-156,-453,-70,375,-305,-810,-3240,-5816,-5402,-3030,-117
317,-151,-468,-82,392,-309,-883,-3279,-5797,-5460,-3181,-156
336,-141,-478,-97,407,-309,-941,-3284,-5758,-5514,-3357,-229
351,-117,-468,-117,409,-292,-985,-3274,-5734,-5553,-3533,-331
361,-107,-468,-126,414,-287,-1034,-3303,-5704,-5582,-3684,-448
380,-107,-488,-136,434,-297,-1073,-3333,-5670,-5602,-3825,-551
395,-112,-507,-141,451,-309,-1112,-3337,-5621,-5602,-3967,-658
414,-136,-551,-139,483,-344,-1132,-3313,-5533,-5582,-4069,-756
424,-165,-590,-129,507,-378,-1132,-3250,-5392,-5490,-4089,-814
424,-200,-624,-112,524,-412,-1132,-3191,-5236,-5338,-4045,-834
444,-234,-678,-104,561,-456,-1122,-3162,-5099,-5172,-3962,-819
463,-268,-732,-97,597,-500,-1127,-3142,-4987,-5021,-3869,-814
478,-297,-775,-90,627,-536,-1122,-3113,-4884,-4904,-3806,-839
497,-331,-829,-82,663,-580,-1122,-3054,-4767,-4767,-3728,-863
512,-356,-868,-78,690,-612,-1122,-3001,-4640,-4640,-3640,-883
512,-375,-888,-68,700,-631,-1122,-2962,-4518,-4504,-3538,-893
531,-395,-927,-68,729,-661,-1117,-2884,-4357,-4352,-3435,-893
541,-414,-956,-63,749,-685,-1102,-2776,-4157,-4143,-3279,-873
561,-453,-1015,-53,788,-734,-1068,-2625,-3918,-3918,-3113,-854
566,-492,-1058,-36,812,-775,-1024,-2469,-3694,-3708,-2971,-839
575,-517,-1093,-29,834,-805,-976,-2313,-3479,-3518,-2830,-834
575,-551,-1127,-12,851,-839,-917,-2147,-3254,-3313,-2684,-824
580,-570,-1151,-4,866,-861,-863,-1981,-3035,-3103,-2522,-824
580,-590,-1171,4,875,-880,-824,-1854,-2849,-2937,-2405,-829
570,-605,-1176,17,873,-890,-785,-1742,-2669,-2781,-2303,-829
566,-600,-1166,17,866,-883,-746,-1620,-2479,-2601,-2171,-805
551,-624,-1176,36,863,-900,-707,-1493,-2283,-2415,-2025,-771
551,-644,-1195,46,873,-919,-668,-1385,-2127,-2259,-1912,-771
551,-649,-1200,48,875,-924,-634,-1283,-1991,-2137,-1825,-780
561,-653,-1215,46,888,-934,-590,-1176,-1844,-2005,-1727,-771
556,-663,-1220,53,888,-941,-546,-1073,-1717,-1893,-1644,-756
556,-653,-1210,48,883,-932,-517,-990,-1605,-1781,-1551,-727
536,-639,-1176,51,856,-907,-488,-932,-1483,-1668,-1449,-688
517,-624,-1141,53,829,-883,-458,-883,-1376,-1566,-1371,-668
492,-605,-1098,56,795,-851,-424,-834,-1259,-1439,-1263,-634
478,-575,-1054,48,766,-814,-400,-761,-1137,-1278,-1122,-566
468,-546,-1015,39,741,-780,-385,-688,-1005,-1117,-980,-488
478,-512,-990,17,734,-751,-351,-619,-907,-985,-854,-414
473,-478,-951,2,712,-714,-326,-561,-800,-863,-751,-351
458,-453,-912,-2,685,-683,-287,-473,-683,-741,-639,-297
439,-424,-863,-7,651,-644,-258,-405,-570,-639,-536,-248
429,-409,-839,-9,634,-624,-224,-356,-478,-541,-453,-219
414,-409,-824,-2,619,-617,-200,-297,-390,-448,-380,-204
400,-409,-810,4,605,-610,-170,-248,-312,-375,-326,-200
380,-395,-775,7,578,-585,-151,-200,-244,-297,-287,-195
375,-361,-736,-7,556,-549,-126,-151,-190,-234,-234,-175
361,-331,-692,-14,527,-512,-107,-107,-122,-165,-175,-146
331,-278,-610,-26,470,-444,-92,-48,-48,-97,-112,-122
317,-239,-556,-39,436,-397,-78,-9,14,-34,-58,-97
297,-195,-492,-51,395,-344,-68,9,68,9,-9,-68
278,-165,-444,-56,361,-305,-58,43,126,68,29,-63
234,-146,-380,-43,307,-263,-29,82,195,131,58,-63
195,-136,-331,-29,263,-234,0,131,239,175,78,-63
175,-107,-283,-34,229,-195,19,170,283,224,112,-63
165,-63,-229,-51,197,-146,34,204,331,273,141,-43
141,-29,-170,-56,156,-100,53,234,366,312,180,-29
131,14,-117,-73,124,-51,63,248,405,341,214,-9
126,48,-78,-87,102,-14,73,273,448,375,248,19
117,63,-53,-90,85,4,87,283,488,409,283,24
92,68,-24,-80,58,21,92,307,522,439,292,39
82,73,-9,-78,46,31,112,336,541,473,312,58
78,73,-4,-75,41,34,136,361,575,507,331,58
63,73,9,-68,26,41,151,395,605,531,346,58
58,78,19,-68,19,48,165,419,629,546,361,58
53,87,34,-70,9,61,165,429,639,556,366,58
48,92,43,-70,2,68,175,424,644,561,366,58
39,92,53,-65,-7,73,175,424,649,566,366,58
34,92,58,-63,-12,75,175,419,663,566,366,58
29,92,63,-61,-17,78,175,419,663,570,366,58
19,97,78,-58,-29,87,185,419,668,580,356,58
19,97,78,-58,-29,87,195,429,683,595,361,58
19,97,78,-58,-29,87,204,444,697,600,370,58
14,102,87,-58,-36,95,214,453,712,614,375,58
14,97,82,-56,-34,90,229,468,717,619,380,48
9,97,87,-53,-39,92,234,478,732,629,385,48
9,97,87,-53,-39,92,234,488,746,639,390,48
9,102,92,-56,-41,97,239,492,756,649,395,48
9,92,82,-51,-36,87,234,488,751,644,385,48
4,92,87,-48,-41,90,239,497,761,653,390,48
4,92,87,-48,-41,90,244,502,775,663,395,48
4,92,87,-48,-41,90,244,517,785,673,400,48
-4,82,87,-39,-46,85,248,512,790,673,395,39
-4,87,92,-41,-48,90,248,522,805,683,405,39
-4,92,97,-43,-51,95,244,527,814,702,409,39
-4,92,97,-43,-51,95,244,536,829,707,414,39
-4,92,97,-43,-51,95,244,541,839,712,419,39
-4,92,97,-43,-51,95,244,551,849,722,419,39
-4,97,102,-46,-53,100,244,556,863,732,429,39
-4,97,102,-46,-53,100,248,570,873,741,439,39
