I,II,III,aVR,aVL,aVF,V1,V2,V3,V4,V5,V6
-107,136,243,-14,-175,189,97,312,595,302,107,-39
-108,141,249,-16,-178,195,94,308,587,293,104,-34
-111,145,256,-17,-183,200,92,307,580,283,102,-34
-115,150,265,-17,-190,207,89,305,573,272,99,-33
-116,155,271,-19,-193,213,87,302,566,263,97,-29
-117,164,281,-23,-199,222,82,297,558,255,92,-20
-117,174,291,-28,-204,232,78,292,551,248,87,-9
-116,185,301,-34,-208,243,72,287,544,241,81,0
-116,194,310,-39,-213,252,68,283,536,234,78,8
-117,204,321,-43,-219,262,63,275,524,226,75,16
-116,213,329,-48,-222,271,58,268,512,219,73,23
-117,224,341,-53,-229,282,52,260,499,211,70,31
-117,233,350,-58,-233,291,48,253,488,204,68,38
-116,239,355,-61,-235,297,45,244,477,197,67,47
-116,243,359,-63,-237,301,43,234,468,190,67,57
-117,249,366,-66,-241,307,41,223,458,182,68,68
-117,252,369,-67,-243,310,39,214,448,175,68,77
-114,253,367,-69,-240,310,36,208,438,168,65,83
-112,253,365,-70,-238,309,34,204,429,161,63,86
-109,252,361,-71,-235,306,31,200,420,153,60,91
-107,252,359,-72,-233,305,29,195,409,146,58,96
-104,252,356,-74,-230,304,24,187,393,140,57,102
-102,252,354,-75,-228,303,19,180,375,136,57,106
-99,253,352,-77,-225,302,13,172,356,131,58,112
-97,253,350,-78,-223,301,9,165,341,126,58,116
-92,250,342,-79,-217,296,8,156,328,119,57,121
-87,248,335,-80,-211,291,8,146,317,112,57,125
-82,247,329,-82,-205,288,8,134,304,103,57,131
-78,244,322,-83,-200,283,8,126,292,97,57,135
-75,235,310,-80,-192,272,11,124,282,95,58,138
-73,224,297,-75,-185,260,13,125,273,96,58,140
-70,214,284,-72,-177,249,16,127,263,97,57,143
-68,204,272,-68,-170,238,18,126,253,97,57,145
-63,192,255,-64,-159,223,21,122,241,94,59,146
-58,180,238,-61,-148,209,23,117,229,92,62,146
-52,168,220,-58,-136,194,26,112,216,89,66,146
-48,156,204,-54,-126,180,28,107,204,87,67,146
-43,143,186,-50,-114,164,29,99,192,84,68,143
-39,131,170,-46,-104,150,29,92,180,82,68,141
-33,118,151,-42,-92,134,28,84,167,80,68,138
-29,107,136,-39,-82,121,28,78,156,78,68,136
-26,98,124,-36,-75,111,29,72,147,73,66,133
-24,92,116,-34,-70,104,29,68,141,68,63,131
-21,85,106,-32,-63,95,28,62,133,62,60,128
-19,78,97,-29,-58,87,28,58,126,58,58,126
-16,66,82,-25,-49,74,31,55,119,55,57,121
-14,53,67,-19,-40,60,33,53,112,53,57,117
-11,39,50,-14,-30,44,36,50,103,50,58,112
-9,29,38,-10,-23,33,38,48,97,48,58,107
-6,22,28,-8,-17,25,40,47,93,47,57,102
-4,19,23,-7,-13,21,42,47,92,47,58,97
-1,14,15,-6,-8,14,45,48,89,48,57,91
0,9,9,-4,-4,9,47,48,87,48,57,87
1,1,0,-1,0,0,48,48,84,47,58,84
3,-8,-11,2,7,-9,48,48,82,47,58,82
6,-20,-26,7,16,-23,47,47,79,47,57,80
8,-28,-36,10,22,-32,47,47,78,47,57,78
11,-30,-41,9,26,-35,49,50,77,48,59,75
13,-29,-42,8,27,-35,52,52,78,48,62,73
16,-28,-44,6,30,-36,55,55,77,47,65,70
18,-28,-46,5,32,-37,57,57,77,47,67,68
19,-29,-48,5,33,-38,58,62,79,50,68,67
19,-29,-48,5,33,-38,58,67,81,52,68,67
18,-28,-46,5,32,-37,57,73,83,55,66,68
18,-28,-46,5,32,-37,57,77,86,57,67,68
21,-29,-50,4,35,-39,58,82,93,62,73,67
23,-28,-51,2,37,-39,58,86,101,67,81,67
26,-29,-55,1,40,-42,56,91,110,73,90,68
28,-29,-57,0,42,-43,57,96,116,77,96,67
31,-28,-59,-1,45,-43,66,104,121,82,98,68
33,-28,-61,-2,47,-44,77,111,125,86,97,68
36,-29,-65,-3,50,-47,87,118,130,91,95,67
38,-29,-67,-4,52,-48,96,125,135,96,96,67
39,-26,-65,-6,52,-45,106,134,143,101,100,68
39,-24,-63,-7,51,-43,116,145,150,106,106,68
38,-21,-59,-8,48,-40,126,157,158,112,112,67
38,-19,-57,-9,47,-38,135,164,164,116,116,67
39,-14,-53,-12,46,-33,147,166,169,121,117,72
39,-9,-48,-15,43,-28,160,165,174,125,117,77
38,-3,-41,-17,39,-22,175,165,180,131,116,83
38,0,-38,-19,38,-19,184,165,184,135,116,86
39,0,-39,-19,39,-19,182,162,185,136,117,87
39,0,-39,-19,39,-19,175,161,185,136,117,86
38,0,-38,-19,38,-19,171,160,184,136,116,87
38,0,-38,-19,38,-19,165,156,185,136,116,87
40,0,-40,-20,40,-20,149,141,184,134,117,83
42,0,-42,-21,42,-21,126,122,180,131,117,78
45,-3,-48,-21,46,-25,99,103,172,126,114,72
47,-8,-55,-19,51,-31,73,87,165,122,112,68
50,-13,-63,-18,56,-38,50,73,161,119,112,65
52,-18,-70,-17,61,-44,24,58,156,117,112,63
53,-27,-80,-13,66,-53,-6,39,143,111,107,60
53,-33,-86,-10,69,-59,-28,24,131,107,102,58
52,-35,-87,-8,69,-61,-32,19,125,109,100,57
52,-34,-86,-9,69,-60,-29,19,122,111,101,57
55,-34,-89,-10,72,-61,-32,18,115,109,102,57
57,-34,-91,-11,74,-62,-34,18,111,107,102,57
60,-31,-91,-14,75,-61,-23,25,118,108,100,59
62,-29,-91,-16,76,-60,-14,33,130,111,101,62
63,-28,-91,-17,77,-59,-17,39,140,112,106,65
63,-28,-91,-17,77,-59,-23,42,145,111,111,67
60,-30,-90,-15,75,-60,-19,43,144,114,113,68
58,-33,-91,-12,74,-62,-9,43,141,116,112,68
55,-39,-94,-8,74,-66,-1,42,138,118,111,67
53,-42,-95,-5,74,-68,3,42,136,117,111,67
50,-41,-91,-4,70,-66,10,42,133,114,114,69
48,-39,-87,-4,67,-63,14,42,131,112,116,72
45,-38,-83,-3,64,-60,9,43,128,111,117,76
43,-39,-82,-2,62,-60,4,43,126,111,117,78
40,-37,-77,-1,58,-57,2,41,123,114,116,75
39,-34,-73,-2,56,-53,3,39,121,116,116,73
37,-31,-68,-3,52,-49,4,35,123,117,119,72
34,-29,-63,-2,48,-46,4,33,125,116,121,73
27,-26,-53,0,40,-39,3,36,126,119,122,72
19,-24,-43,2,31,-33,3,38,126,121,122,72
13,-23,-36,5,24,-29,5,39,125,123,121,76
9,-23,-32,7,20,-27,8,39,125,122,121,78
6,-23,-29,8,17,-26,13,39,126,117,123,74
4,-23,-27,9,15,-25,18,39,126,112,122,68
0,-25,-25,12,12,-25,21,37,122,107,113,62
-3,-28,-25,15,11,-26,23,34,117,102,102,58
-6,-34,-28,20,11,-31,26,31,109,94,95,55
-8,-38,-30,23,11,-34,28,29,102,87,92,53
-11,-39,-28,25,8,-33,31,28,98,83,91,50
-13,-39,-26,26,6,-32,33,28,97,82,91,48
-13,-38,-25,25,6,-31,34,29,96,79,92,47
-13,-38,-25,25,6,-31,34,29,96,78,92,47
-16,-39,-23,27,3,-31,31,26,97,77,89,48
-18,-39,-21,28,1,-30,29,24,97,77,87,47
-20,-38,-18,29,-1,-28,26,23,94,77,86,48
-19,-38,-19,28,0,-28,24,23,92,77,86,48
-16,-39,-23,27,3,-31,23,24,91,78,87,47
-14,-39,-25,26,5,-32,23,24,92,78,87,47
-13,-38,-25,25,6,-31,24,23,90,75,86,50
-13,-38,-25,25,6,-31,24,23,87,73,86,52
-14,-39,-25,26,5,-32,20,24,84,72,89,53
-14,-39,-25,26,5,-32,18,23,82,72,91,53
-13,-38,-25,25,6,-31,23,24,81,73,92,52
-13,-38,-25,25,6,-31,28,24,81,73,92,53
-14,-39,-25,26,5,-32,29,23,82,72,91,52
-14,-39,-25,26,5,-32,29,23,82,73,91,52
-13,-36,-23,24,5,-29,29,24,78,72,92,54
-13,-34,-21,23,4,-27,29,24,73,72,92,57
-14,-33,-19,23,2,-26,25,21,67,73,91,60
-14,-33,-19,23,2,-26,23,19,63,73,92,62
-13,-34,-21,23,4,-27,29,16,62,70,91,63
-13,-33,-20,23,3,-26,33,14,63,68,91,63
-14,-34,-20,24,3,-27,30,10,60,66,92,62
-14,-34,-20,24,3,-27,24,9,58,67,92,62
-13,-31,-18,22,2,-24,22,10,59,72,91,63
-13,-29,-16,21,1,-22,23,13,62,77,91,63
-14,-28,-14,21,0,-21,24,18,63,79,92,62
-14,-28,-14,21,0,-21,24,19,63,78,92,62
-13,-31,-18,22,2,-24,21,14,62,77,89,63
-13,-33,-20,23,3,-26,19,9,62,77,87,63
-14,-36,-22,25,4,-29,18,9,65,80,88,62
-14,-38,-24,26,5,-31,18,13,67,82,91,62
-12,-39,-27,25,7,-33,19,17,68,78,95,63
-9,-39,-30,24,10,-34,18,18,68,73,96,63
-4,-38,-34,21,15,-36,19,19,68,72,96,62
-3,-34,-31,18,14,-32,23,23,72,72,92,58
-12,-24,-12,18,0,-18,32,31,79,72,84,50
-23,-9,14,16,-18,2,42,34,78,68,78,43
-29,10,39,9,-34,24,49,23,66,62,78,41
-33,33,66,0,-49,49,52,23,76,62,78,39
-44,57,101,-6,-72,79,55,52,134,73,71,30
-57,85,142,-14,-99,113,57,77,184,78,58,24
-70,118,188,-24,-129,153,60,60,158,59,45,31
-81,145,226,-32,-153,185,62,-5,34,25,42,56
-92,154,246,-31,-169,200,66,-113,-188,-13,57,98
-101,155,256,-27,-178,205,72,-239,-477,-70,72,149
-109,161,270,-26,-189,215,81,-360,-789,-162,68,202
-116,183,299,-33,-207,241,78,-474,-1083,-278,53,279
-124,228,352,-52,-238,290,51,-583,-1329,-406,35,394
-130,271,401,-70,-265,336,15,-684,-1548,-545,1,508
-133,295,428,-81,-280,361,-12,-776,-1770,-700,-62,579
-135,329,464,-97,-299,396,-41,-874,-1992,-862,-147,613
-141,404,545,-131,-343,474,-86,-991,-2203,-1022,-237,631
-141,485,626,-172,-383,555,-148,-1131,-2412,-1171,-323,648
-125,526,651,-200,-388,588,-221,-1284,-2620,-1295,-393,677
-93,508,601,-207,-347,554,-294,-1411,-2772,-1374,-433,724
-46,430,476,-192,-261,453,-356,-1482,-2826,-1397,-436,792
7,334,327,-170,-160,330,-421,-1543,-2866,-1431,-446,860
59,255,196,-157,-68,225,-500,-1638,-2972,-1535,-507,904
119,137,18,-128,50,77,-572,-1724,-3053,-1655,-592,890
195,-75,-270,-60,232,-172,-616,-1747,-3005,-1720,-663,792
283,-317,-600,17,441,-458,-647,-1710,-2874,-1746,-720,640
376,-507,-883,65,629,-695,-691,-1631,-2729,-1758,-767,479
474,-635,-1109,80,791,-872,-753,-1521,-2554,-1738,-799,359
575,-714,-1289,69,932,-1001,-828,-1387,-2326,-1665,-807,306
665,-777,-1442,56,1053,-1109,-886,-1239,-2086,-1574,-805,256
725,-851,-1576,63,1150,-1213,-896,-1087,-1879,-1497,-807,129
750,-924,-1674,87,1212,-1299,-847,-923,-1676,-1399,-810,-82
740,-973,-1713,116,1226,-1343,-742,-743,-1441,-1242,-801,-349
703,-990,-1693,143,1198,-1341,-618,-575,-1212,-1069,-776,-569
651,-968,-1619,158,1135,-1293,-511,-447,-1033,-931,-732,-646
583,-905,-1488,161,1035,-1196,-409,-344,-874,-810,-661,-625
499,-800,-1299,150,899,-1049,-297,-248,-699,-671,-559,-575
412,-677,-1089,132,750,-883,-193,-163,-523,-527,-443,-509
330,-562,-892,116,611,-727,-119,-99,-370,-396,-330,-429
251,-452,-703,100,477,-577,-65,-54,-243,-277,-223,-334
169,-343,-512,87,340,-427,-14,-21,-136,-166,-121,-233
99,-247,-346,74,222,-296,32,12,-42,-62,-27,-139
57,-177,-234,60,145,-205,73,56,44,32,54,-69
39,-127,-166,44,102,-146,105,100,119,109,119,-25
36,-89,-125,26,80,-107,129,130,178,160,166,-1
38,-63,-101,12,69,-82,145,150,227,193,194,8
39,-51,-90,6,64,-70,154,166,271,220,205,14
38,-48,-86,5,62,-67,151,179,305,243,208,18
40,-47,-87,3,63,-67,133,188,324,263,211,21
42,-48,-90,3,66,-69,112,194,335,277,213,23
45,-47,-92,1,68,-69,101,199,345,281,216,26
47,-47,-94,0,70,-70,87,190,346,278,214,24
49,-51,-100,1,74,-75,59,157,330,269,202,11
48,-57,-105,4,76,-81,20,113,307,258,185,-8
43,-63,-106,10,74,-84,-16,80,291,246,169,-25
39,-67,-106,14,72,-86,-42,63,283,239,161,-33
39,-68,-107,14,73,-87,-49,64,283,240,163,-28
42,-68,-110,13,76,-89,-48,72,286,247,169,-19
46,-67,-113,10,79,-90,-48,76,289,254,170,-17
47,-67,-114,10,80,-90,-48,77,291,257,169,-18
48,-67,-115,9,81,-91,-42,81,293,258,172,-17
47,-67,-114,10,80,-90,-34,86,296,257,174,-14
48,-68,-116,10,82,-92,-26,92,301,260,174,-9
48,-68,-116,10,82,-92,-19,96,306,262,174,-8
45,-65,-110,10,77,-87,-11,99,313,263,179,-14
43,-63,-106,10,74,-84,-4,101,321,262,184,-23
41,-61,-102,10,71,-81,1,103,332,265,185,-30
39,-62,-101,11,70,-81,3,106,340,267,185,-33
32,-67,-99,17,65,-83,4,111,339,268,185,-33
24,-72,-96,24,60,-84,3,116,336,268,185,-33
18,-76,-94,29,56,-85,5,120,336,267,180,-39
14,-78,-92,32,53,-85,8,121,340,267,175,-47
11,-76,-87,32,49,-81,11,121,345,269,173,-54
9,-73,-82,32,45,-77,13,121,350,272,174,-57
6,-68,-74,31,40,-71,15,125,356,275,177,-58
4,-63,-67,29,35,-65,18,130,360,277,179,-58
0,-55,-55,27,27,-55,23,136,364,278,182,-58
-3,-48,-45,25,21,-46,28,140,369,282,184,-58
-10,-43,-33,26,11,-38,33,143,379,292,188,-55
-18,-42,-24,30,3,-33,38,145,389,301,190,-53
-26,-45,-19,35,-3,-32,43,147,395,303,188,-53
-33,-47,-14,40,-9,-30,47,150,399,302,185,-57
-41,-47,-6,44,-17,-26,52,155,404,302,183,-64
-47,-47,0,47,-23,-23,57,160,408,302,180,-72
-50,-51,-1,50,-24,-26,65,165,410,297,173,-78
-52,-57,-5,54,-23,-31,72,169,413,292,165,-81
-55,-61,-6,58,-24,-33,78,174,421,291,158,-84
-57,-63,-6,60,-25,-34,81,179,428,291,156,-86
-58,-61,-3,59,-27,-32,84,184,432,291,157,-91
-57,-58,-1,57,-28,-29,86,189,433,291,160,-96
-59,-55,4,57,-31,-25,89,195,438,296,161,-102
-62,-53,9,57,-35,-22,91,199,447,301,161,-106
-67,-52,15,59,-41,-18,92,203,459,302,160,-107
-72,-52,20,62,-46,-16,91,208,472,301,160,-107
-76,-53,23,64,-49,-15,93,217,482,306,161,-106
-77,-53,24,65,-50,-14,96,228,491,311,161,-106
-77,-48,29,62,-53,-9,100,237,501,315,158,-107
-77,-43,34,60,-55,-4,101,243,511,316,156,-107
-79,-38,41,58,-60,1,101,247,519,318,155,-106
-81,-34,47,57,-64,6,101,252,526,321,155,-106
-82,-29,53,55,-67,12,106,260,533,326,156,-111
-82,-24,58,53,-70,17,111,267,540,330,156,-116
-81,-16,65,48,-73,24,112,272,547,333,156,-117
-81,-9,72,45,-76,31,111,277,555,335,156,-117
-84,-3,81,43,-82,39,113,286,564,338,155,-117
-86,0,86,43,-86,43,116,296,574,340,155,-117
-87,1,88,43,-87,44,119,304,582,341,158,-115
-86,3,89,41,-87,46,121,311,589,341,160,-112
-88,10,98,39,-93,54,123,318,595,340,161,-109
-91,18,109,36,-100,63,125,325,599,341,161,-107
-93,24,117,34,-105,70,128,330,602,340,160,-104
-96,28,124,34,-110,76,130,335,604,340,160,-102
-102,34,136,34,-119,85,132,342,607,341,161,-101
-106,38,144,34,-125,91,135,350,609,341,161,-102
-108,41,149,33,-128,95,144,359,612,336,157,-101
-107,47,154,30,-130,100,146,365,613,331,151,-97
-106,59,165,23,-135,112,132,367,614,328,145,-90
-106,72,178,17,-142,125,117,366,614,326,141,-82
-109,78,187,15,-148,132,116,366,613,322,138,-76
-111,81,192,15,-151,136,121,366,610,317,136,-73
-112,90,202,11,-157,146,121,363,602,309,133,-69
-112,101,213,5,-162,157,117,361,595,302,131,-63
-112,111,223,0,-167,167,113,360,591,297,130,-53
-112,121,233,-4,-172,177,112,361,590,292,131,-43
-109,133,242,-12,-175,187,111,359,586,285,129,-39
-107,145,252,-19,-179,198,112,356,580,278,126,-39
-106,154,260,-24,-183,207,110,351,572,270,121,-36
-106,160,266,-27,-186,213,107,346,561,263,117,-29
-107,167,274,-30,-190,220,102,341,549,255,113,-19
-107,174,281,-33,-194,227,97,336,536,248,112,-9
-106,182,288,-38,-197,235,94,331,526,241,111,-2
-106,189,295,-41,-200,242,92,326,517,234,111,3
-107,195,302,-44,-204,248,87,320,508,226,112,12
-107,199,306,-46,-206,252,82,312,497,219,112,23
-104,203,307,-49,-205,255,80,301,486,214,111,34
-102,208,310,-53,-206,259,78,292,473,209,111,42
-101,216,317,-57,-209,266,71,287,461,200,112,47
-102,223,325,-60,-213,274,63,283,448,190,112,52
-100,227,327,-63,-213,277,57,276,436,182,111,61
-97,233,330,-68,-213,281,53,268,424,175,112,72
-92,245,337,-76,-214,291,50,264,414,170,111,82
-87,257,344,-85,-215,300,48,263,405,165,111,91
-84,260,344,-88,-214,302,45,261,396,160,112,98
-82,258,340,-88,-211,299,43,258,385,156,112,106
-78,257,335,-89,-206,296,42,251,371,153,111,115
-73,258,331,-92,-202,294,43,244,356,151,111,121
-69,256,325,-93,-197,290,41,238,343,149,112,123
-63,253,316,-95,-189,284,39,234,331,146,112,125
-53,248,301,-97,-177,274,36,230,319,141,111,132
-43,244,287,-100,-165,265,34,224,307,136,111,140
-37,241,278,-102,-157,259,29,216,297,133,113,147
-34,239,273,-102,-153,256,24,209,287,131,116,150
-29,236,265,-103,-147,250,19,205,278,128,119,151
-24,234,258,-105,-141,246,14,204,268,126,121,150
-19,232,251,-106,-135,241,10,201,259,124,122,151
-14,229,243,-107,-128,236,13,199,253,122,121,151
-8,221,229,-106,-118,225,26,202,251,119,123,146
-4,209,213,-102,-108,211,42,204,248,117,125,141
-3,196,199,-96,-101,197,53,199,238,117,128,137
-4,185,189,-90,-96,187,62,195,224,117,130,136
-2,178,180,-88,-91,179,71,196,213,114,130,134
0,175,175,-87,-87,175,81,199,204,112,130,131
2,174,172,-88,-85,173,90,201,198,111,133,126
3,175,172,-89,-84,173,96,200,195,112,136,122
5,172,167,-88,-81,169,99,196,194,110,133,119
8,170,162,-89,-77,166,101,190,195,107,131,117
14,168,154,-91,-70,161,105,182,192,104,131,112
18,165,147,-91,-64,156,107,170,185,102,131,107
19,158,139,-88,-60,148,101,156,175,101,124,102
18,151,133,-84,-57,142,92,141,165,101,117,97
20,147,127,-83,-53,137,85,127,160,101,114,93
23,141,118,-82,-47,129,74,108,151,97,112,87
26,125,99,-75,-36,112,49,80,133,87,106,78
28,103,75,-65,-23,89,16,45,108,74,97,68
31,81,50,-56,-9,65,-17,10,85,58,86,58
33,63,30,-48,1,46,-46,-17,64,43,73,48
36,54,18,-45,9,36,-65,-34,42,31,62,38
38,48,10,-43,14,29,-80,-47,20,19,48,29
38,38,0,-38,19,19,-99,-61,2,8,33,22
38,29,-9,-33,23,10,-111,-72,-8,0,24,19
40,27,-13,-33,26,7,-108,-71,-10,-3,27,18
42,28,-14,-35,28,7,-97,-63,-9,-3,38,18
43,29,-14,-36,28,7,-88,-56,-10,-4,45,19
42,29,-13,-35,27,8,-82,-53,-13,-4,48,19
44,26,-18,-35,31,4,-78,-53,-15,-3,44,16
47,24,-23,-35,35,0,-73,-53,-14,-3,39,14
49,23,-26,-36,37,-1,-66,-50,-11,-4,34,13
48,24,-24,-36,36,0,-58,-48,-9,-4,33,14
44,22,-22,-33,33,0,-52,-50,-8,-3,37,12
39,19,-20,-29,29,0,-48,-52,-8,-3,42,9
34,17,-17,-25,25,0,-44,-51,-9,-7,43,6
29,14,-15,-21,22,0,-42,-48,-9,-9,43,4
24,9,-15,-16,19,-3,-45,-45,-8,-5,43,2
19,4,-15,-11,17,-5,-47,-43,-8,0,43,0
15,2,-13,-8,14,-5,-46,-42,-9,0,39,-4
14,3,-11,-8,12,-4,-43,-42,-9,0,34,-8
13,8,-5,-10,9,1,-39,-43,-7,1,32,-7
14,13,-1,-13,7,6,-34,-42,-4,3,33,-4
12,17,5,-14,3,11,-29,-43,0,5,36,-1
9,19,10,-14,0,14,-24,-43,3,8,38,0
4,16,12,-10,-4,14,-21,-42,6,13,39,0
0,14,14,-7,-7,14,-19,-42,8,18,39,0
-3,14,17,-5,-10,15,-16,-44,11,22,39,0
-8,14,22,-3,-15,18,-14,-43,13,24,39,-3
-14,9,23,2,-18,16,-11,-36,16,22,37,-12
-23,4,27,9,-25,15,-9,-29,18,19,34,-23
-33,1,34,16,-33,17,-5,-28,18,16,31,-32
-42,0,42,21,-42,21,0,-29,18,14,29,-38
-46,0,46,23,-46,23,3,-23,21,13,26,-39
-47,0,47,23,-47,23,8,-14,23,13,24,-38
-48,0,48,24,-48,24,14,-6,23,14,21,-40
-48,0,48,24,-48,24,18,0,23,14,19,-42
-47,0,47,23,-47,23,19,4,27,13,18,-45
-47,0,47,23,-47,23,18,8,33,13,18,-47
-48,-1,47,24,-47,23,21,12,37,14,18,-50
-48,-3,45,25,-46,21,23,13,38,14,18,-52
-45,-4,41,24,-43,18,24,13,38,13,20,-53
-43,-4,39,23,-41,17,24,13,38,13,23,-53
-42,-2,40,22,-41,19,23,16,40,16,26,-52
-43,0,43,21,-43,21,23,18,42,18,28,-52
-42,0,42,21,-42,21,27,19,42,20,29,-53
-42,0,42,21,-42,21,29,19,42,23,29,-53
-45,0,45,22,-45,22,26,19,46,28,28,-52
-48,0,48,24,-48,24,23,23,52,33,28,-52
-45,0,45,22,-45,22,27,31,58,37,29,-55
-43,0,43,21,-43,21,33,38,62,38,29,-57
-44,0,44,22,-44,22,37,41,63,38,28,-58
-47,0,47,23,-47,23,38,42,62,38,28,-58
-48,-4,44,26,-46,20,40,47,65,40,30,-57
-48,-8,40,28,-44,16,42,52,67,42,33,-57
-47,-10,37,28,-42,13,44,53,67,45,36,-58
-47,-9,38,28,-42,14,47,52,67,47,38,-58
-48,-8,40,28,-44,16,52,55,72,51,39,-57
-47,-8,39,27,-43,15,57,57,77,53,39,-57
-48,-10,38,29,-43,14,63,56,78,50,36,-60
-48,-9,39,28,-43,15,67,53,77,48,34,-62
-47,-1,46,24,-46,22,70,53,79,49,33,-63
-47,8,55,19,-51,31,72,57,81,52,34,-63
-50,12,62,19,-56,37,74,64,82,52,32,-62
-52,9,61,21,-56,35,73,67,82,52,29,-62
-53,2,55,25,-54,28,66,64,82,55,25,-62
-53,-3,50,28,-51,23,58,58,82,58,23,-62
-50,-5,45,27,-47,20,56,54,80,54,25,-63
-48,-4,44,26,-46,20,57,53,78,48,28,-63
-47,-1,46,24,-46,22,57,50,75,44,29,-60
-47,0,47,23,-47,23,57,48,73,43,29,-58
-48,0,48,24,-48,24,60,47,73,41,28,-56
-48,0,48,24,-48,24,62,48,73,39,28,-53
-46,0,46,23,-46,23,61,46,69,38,29,-48
-43,0,43,21,-43,21,58,43,63,38,29,-43
-40,0,40,20,-40,20,57,40,59,39,28,-40
-39,0,39,19,-39,19,58,39,58,39,28,-39
-38,1,39,18,-38,20,56,38,57,37,29,-38
-38,3,41,17,-39,22,53,38,57,34,29,-38
-39,6,45,16,-42,25,50,39,58,31,28,-39
-39,8,47,15,-43,27,48,39,58,29,28,-39
-38,9,47,14,-42,28,47,38,56,26,29,-38
-38,9,47,14,-42,28,47,38,53,24,29,-38
-39,8,47,15,-43,27,48,38,50,21,28,-39
-39,8,47,15,-43,27,48,38,48,19,28,-39
-37,9,46,14,-41,27,47,39,47,18,29,-38
-34,9,43,12,-38,26,47,39,47,18,29,-38
-31,8,39,11,-35,23,48,38,48,18,28,-39
-29,8,37,10,-33,22,48,38,48,18,28,-39
-26,9,35,8,-30,22,47,40,47,20,29,-37
-24,9,33,7,-28,21,47,42,48,23,29,-34
-22,8,30,7,-26,19,48,45,47,26,28,-31
-19,8,27,5,-23,17,48,47,47,28,28,-29
-14,9,23,2,-18,16,46,50,48,29,30,-26
-9,9,18,0,-13,13,43,52,48,29,33,-24
-4,8,12,-2,-8,10,40,55,47,28,36,-22
0,8,8,-4,-4,8,39,57,47,28,38,-19
2,10,8,-6,-3,9,38,60,49,32,40,-14
3,13,10,-8,-3,11,38,62,52,38,42,-9
6,16,10,-11,-2,13,38,64,55,43,45,-4
8,18,10,-13,-1,14,38,67,57,47,47,0
11,22,11,-16,0,16,39,72,62,50,50,0
13,28,15,-20,-1,21,39,77,67,52,52,0
16,34,18,-25,-1,26,37,81,72,54,55,0
18,38,20,-28,-1,29,38,86,77,57,57,0
19,39,20,-29,0,29,47,92,83,62,60,1
19,39,20,-29,0,29,61,101,91,67,62,3
18,38,20,-28,-1,29,75,110,99,72,64,6
18,38,20,-28,-1,29,86,116,106,77,67,8
19,42,23,-30,-2,32,94,118,111,81,72,11
19,47,28,-33,-4,37,101,117,116,86,77,13
18,53,35,-35,-8,44,110,117,121,92,82,16
18,57,39,-37,-10,48,116,117,125,96,86,18
20,60,40,-40,-10,50,117,114,126,97,87,21
23,62,39,-42,-8,50,116,112,125,97,87,23
26,65,39,-45,-6,52,120,111,126,97,87,26
28,67,39,-47,-5,53,118,107,126,97,87,28
31,67,36,-49,-2,51,95,93,120,94,84,29
33,67,34,-50,0,50,61,74,112,92,82,28
36,69,33,-52,1,51,29,57,106,91,81,29
38,68,30,-53,4,49,2,40,98,87,78,29
39,59,20,-49,9,39,-21,19,80,74,70,23
39,44,5,-41,17,24,-45,-6,55,54,59,14
38,29,-9,-33,23,10,-73,-35,29,34,47,6
38,19,-19,-28,28,0,-95,-56,10,19,39,0
39,17,-22,-28,30,-2,-100,-61,5,16,37,0
39,18,-21,-28,30,-1,-97,-58,8,18,38,0
38,19,-19,-28,28,0,-96,-57,9,19,39,0
38,18,-20,-28,29,-1,-97,-58,9,19,38,0
40,20,-20,-30,30,0,-91,-56,8,18,40,1
42,23,-19,-32,30,2,-82,-53,8,18,42,3
45,26,-19,-35,32,3,-74,-50,9,19,45,6
47,28,-19,-37,33,4,-68,-48,9,19,47,8
48,29,-19,-38,33,5,-65,-47,8,18,48,9
48,28,-20,-38,34,4,-63,-47,8,18,48,9
48,29,-19,-38,33,5,-60,-47,9,19,48,8
48,29,-19,-38,33,5,-58,-47,9,19,48,8
45,25,-20,-35,32,2,-57,-49,7,18,46,9
43,19,-24,-31,33,-2,-57,-52,4,18,43,9
41,12,-29,-26,35,-8,-58,-55,1,19,40,8
39,9,-30,-24,34,-10,-58,-57,0,19,39,8
35,11,-24,-23,29,-6,-56,-58,0,18,38,8
29,18,-11,-23,20,3,-53,-58,0,18,38,8
24,24,0,-24,12,12,-50,-57,0,19,39,9
19,28,9,-23,5,18,-48,-57,0,19,39,9
14,29,15,-21,0,22,-47,-58,0,18,38,8
9,29,20,-19,-5,24,-47,-58,0,18,38,8
4,28,24,-16,-10,26,-48,-58,0,19,39,9
0,28,28,-14,-14,28,-48,-58,0,19,39,9
-3,28,31,-12,-17,29,-44,-57,0,18,37,7
-8,28,36,-10,-22,32,-39,-57,0,18,34,4
-13,29,42,-8,-27,35,-33,-58,0,19,31,1
-18,29,47,-5,-32,38,-29,-58,0,19,29,0
-23,25,48,-1,-35,36,-26,-56,-1,15,26,-1
-28,19,47,4,-37,33,-24,-53,-3,9,24,-3
-34,13,47,10,-40,30,-21,-50,-6,3,21,-6
-38,9,47,14,-42,28,-19,-48,-8,0,19,-8
-39,8,47,15,-43,27,-18,-47,-9,0,18,-9
-39,8,47,15,-43,27,-18,-47,-9,0,18,-9
-38,9,47,14,-42,28,-19,-48,-8,0,19,-8
-38,9,47,14,-42,28,-19,-48,-8,0,19,-8
-39,9,48,15,-43,28,-18,-47,-9,0,18,-9
-39,9,48,15,-43,28,-18,-47,-9,0,18,-9
-38,8,46,15,-42,27,-19,-48,-8,0,19,-8
-38,8,46,15,-42,27,-19,-48,-8,0,19,-8
-39,10,49,14,-44,29,-17,-48,-9,0,18,-9
-39,13,52,13,-45,32,-14,-48,-9,0,18,-9
-38,16,54,11,-46,35,-11,-47,-8,0,19,-8
-38,18,56,10,-47,37,-9,-47,-8,0,19,-8
-39,19,58,10,-48,38,-8,-48,-9,0,18,-9
-39,19,58,10,-48,38,-8,-48,-9,0,18,-9
-38,18,56,10,-47,37,-8,-47,-8,0,19,-8
-38,18,56,10,-47,37,-8,-47,-8,0,19,-8
-39,19,58,10,-48,38,-9,-48,-10,0,16,-9
-39,19,58,10,-48,38,-9,-48,-13,0,14,-9
-38,16,54,11,-46,35,-5,-45,-16,0,13,-8
-38,14,52,12,-45,33,0,-43,-18,0,13,-9
-39,13,52,13,-45,32,3,-42,-21,0,14,-8
-39,13,52,13,-45,32,4,-42,-23,0,14,-8
-36,14,50,11,-43,32,1,-43,-25,-1,13,-9
-34,14,48,10,-41,31,-3,-43,-24,-3,13,-9
-33,11,44,11,-38,27,-7,-42,-19,-4,14,-8
-33,9,42,12,-37,25,-9,-42,-14,-4,14,-8
-34,8,42,13,-38,25,-5,-45,-10,-2,13,-9
-34,8,42,13,-38,25,0,-47,-9,0,13,-9
-33,9,42,12,-37,25,3,-49,-8,0,14,-8
-33,8,41,12,-37,24,8,-48,-9,0,14,-8
-34,9,43,12,-38,26,17,-44,-8,2,13,-9
-34,9,43,12,-38,26,19,-39,-8,3,13,-9
-33,8,41,12,-37,24,4,-35,-11,2,18,-8
-33,8,41,12,-37,24,-12,-34,-13,0,23,-8
-34,11,45,11,-39,28,-14,-33,-14,0,25,-9
-34,13,47,10,-40,30,-5,-33,-14,0,24,-9
-33,12,45,10,-39,28,2,-34,-11,0,23,-8
-33,9,42,12,-37,25,8,-34,-9,0,23,-8
-34,8,42,13,-38,25,13,-33,-8,0,25,-9
-34,8,42,13,-38,25,14,-33,-8,0,28,-9
-33,9,42,12,-37,25,6,-34,-10,0,31,-6
-33,8,41,12,-37,24,-3,-34,-13,0,33,-4
-34,9,43,12,-38,26,-5,-33,-15,0,34,-5
-34,9,43,12,-38,26,-4,-33,-14,0,34,-8
-33,6,39,13,-36,22,-3,-34,-7,0,33,-11
-33,4,37,14,-35,20,-3,-34,0,0,33,-13
-36,3,39,16,-37,21,-4,-32,1,1,34,-14
-38,3,41,17,-39,22,-4,-29,0,3,34,-14
-37,3,40,17,-38,21,-3,-26,0,6,33,-11
-34,3,37,15,-35,20,-4,-24,0,8,33,-9
-31,5,36,13,-33,20,-3,-21,0,10,38,-8
-29,8,37,10,-33,22,-3,-19,0,13,42,-9
-29,12,41,8,-35,26,-4,-18,0,17,42,-7
-29,14,43,7,-36,28,-4,-18,0,19,39,-4
-27,12,39,7,-33,25,-2,-20,0,16,35,-3
-24,9,33,7,-28,21,0,-19,0,13,34,-3
-21,8,29,6,-25,18,1,-13,1,17,35,-6
-19,8,27,5,-23,17,3,-4,3,23,38,-8
-16,9,25,3,-20,17,6,3,5,27,41,-10
-14,8,22,3,-18,15,8,8,8,28,42,-9
-13,9,22,2,-17,15,9,9,15,31,42,-5
-14,9,23,2,-18,16,9,9,23,33,42,0
-12,8,20,2,-16,14,7,9,29,35,44,4
-9,8,17,0,-13,12,4,13,33,38,47,8
-4,12,16,-4,-10,14,0,20,38,42,50,9
0,18,18,-9,-9,18,-3,28,42,47,52,8
2,24,22,-13,-10,23,-5,35,45,50,55,10
3,28,25,-15,-11,26,-4,42,47,52,57,13
4,29,25,-16,-10,27,1,47,49,53,60,14
4,29,25,-16,-10,27,12,52,52,53,62,14
3,28,25,-15,-11,26,25,57,56,52,63,13
3,28,25,-15,-11,26,37,62,62,52,62,13
4,30,26,-17,-11,28,47,67,69,56,64,13
4,33,29,-18,-12,31,56,72,77,62,67,13
3,37,34,-20,-15,35,70,78,83,67,70,14
3,42,39,-22,-18,40,81,81,86,72,72,18
7,47,40,-27,-16,43,82,81,88,77,76,25
13,52,39,-32,-13,45,81,78,91,81,81,33
19,58,39,-38,-10,48,87,76,97,85,87,39
23,62,39,-42,-8,50,92,73,101,86,91,42
26,63,37,-44,-5,50,86,68,100,86,92,43
28,62,34,-45,-3,48,78,63,97,86,92,42
31,65,34,-48,-1,49,77,60,95,88,92,43
33,68,35,-50,-1,51,70,54,92,87,92,43
34,65,31,-49,1,48,41,37,83,80,89,39
34,58,24,-46,5,41,-3,12,69,69,82,34
33,51,18,-42,7,34,-49,-16,56,60,73,29
33,43,10,-38,11,26,-84,-40,44,53,64,24
34,35,1,-34,16,18,-97,-55,31,48,56,21
34,25,-9,-29,21,8,-101,-66,16,40,48,19
33,15,-18,-24,25,-1,-109,-81,-1,26,40,16
33,9,-24,-21,28,-7,-116,-91,-13,14,34,14
37,11,-26,-24,31,-7,-114,-87,-11,15,33,12
39,22,-17,-30,28,2,-103,-74,-1,23,34,9
31,37,6,-34,12,21,-89,-64,6,27,32,5
20,55,35,-37,-7,45,-74,-58,13,28,29,0
11,76,65,-43,-27,70,-62,-55,23,32,28,-3
4,99,95,-51,-45,97,-53,-49,37,38,28,-4
-4,124,128,-60,-66,126,-47,-39,48,41,28,0
-17,152,169,-67,-93,160,-43,-53,21,31,24,7
-32,180,212,-74,-122,196,-39,-118,-79,-3,18,19
-46,202,248,-78,-147,225,-38,-228,-253,-56,14,39
-57,212,269,-77,-163,240,-43,-363,-483,-118,15,74
-66,217,283,-75,-174,250,-48,-512,-774,-205,14,128
-76,231,307,-77,-191,269,-44,-669,-1125,-334,1,203
-85,258,343,-86,-214,300,-50,-821,-1474,-484,-21,299
-95,300,395,-102,-245,347,-84,-959,-1754,-627,-48,410
-105,345,450,-120,-277,397,-135,-1083,-1995,-779,-98,507
-114,385,499,-135,-306,442,-180,-1200,-2248,-962,-188,561
-121,423,544,-151,-332,483,-223,-1313,-2491,-1154,-298,583
-124,469,593,-172,-358,531,-272,-1426,-2689,-1319,-400,598
-118,508,626,-195,-372,567,-336,-1561,-2865,-1450,-480,628
-96,519,615,-211,-355,567,-419,-1734,-3051,-1546,-531,685
-58,489,547,-215,-302,518,-503,-1893,-3191,-1601,-555,753
-8,413,421,-202,-214,417,-568,-1980,-3224,-1618,-556,809
46,305,259,-175,-106,282,-630,-2039,-3221,-1657,-578,849
100,186,86,-143,7,136,-709,-2133,-3275,-1778,-659,874
157,40,-117,-98,137,-38,-783,-2214,-3311,-1910,-760,859
225,-152,-377,-36,301,-264,-823,-2212,-3220,-1959,-826,783
313,-352,-665,19,489,-508,-853,-2119,-3024,-1937,-859,652
424,-509,-933,42,678,-721,-906,-1956,-2781,-1887,-882,493
538,-614,-1152,38,845,-883,-965,-1764,-2524,-1815,-896,358
626,-678,-1304,26,965,-991,-997,-1589,-2272,-1717,-897,286
686,-732,-1418,23,1052,-1075,-985,-1421,-2041,-1612,-896,198
721,-810,-1531,44,1126,-1170,-921,-1240,-1839,-1517,-905,-8
732,-893,-1625,80,1178,-1259,-823,-1052,-1641,-1411,-912,-294
718,-948,-1666,115,1192,-1307,-715,-870,-1418,-1262,-900,-572
675,-958,-1633,141,1154,-1295,-607,-709,-1200,-1101,-868,-758
603,-913,-1516,155,1059,-1214,-505,-581,-1027,-969,-816,-791
513,-830,-1343,158,928,-1086,-407,-475,-881,-853,-746,-738
422,-735,-1157,156,789,-946,-310,-375,-727,-726,-657,-697
328,-632,-960,152,644,-796,-227,-291,-573,-591,-550,-652
231,-522,-753,145,492,-637,-170,-238,-442,-462,-429,-561
136,-412,-548,138,342,-480,-130,-204,-330,-344,-310,-443
57,-316,-373,129,215,-344,-93,-169,-229,-241,-211,-336
1,-241,-242,120,121,-241,-57,-127,-136,-151,-131,-252
-28,-192,-164,110,68,-178,-26,-77,-54,-72,-63,-193
-41,-155,-114,98,36,-134,0,-29,16,-7,-6,-154
-50,-116,-66,83,8,-91,25,6,73,43,40,-130
-57,-84,-27,70,-15,-55,42,31,117,78,70,-117
-61,-74,-13,67,-24,-43,42,50,150,101,80,-115
-62,-77,-15,69,-23,-46,34,66,176,119,81,-116
-62,-79,-17,70,-22,-48,30,79,199,141,88,-115
-62,-78,-16,70,-23,-47,32,90,217,159,96,-112
-65,-77,-12,71,-26,-44,44,101,226,164,95,-112
-67,-77,-10,72,-28,-43,57,107,229,161,87,-116
-67,-77,-10,72,-28,-43,59,101,228,160,81,-123
-67,-77,-10,72,-28,-43,58,92,228,160,78,-130
-71,-78,-7,74,-32,-42,60,90,234,160,78,-133
-77,-78,-1,77,-38,-39,67,96,242,160,81,-131
-81,-76,5,78,-43,-35,73,104,250,163,87,-124
-82,-73,9,77,-45,-32,77,111,257,169,91,-117
-80,-70,10,75,-45,-30,78,114,265,175,90,-115
-78,-68,10,73,-44,-29,78,116,272,179,87,-116
-77,-67,10,72,-43,-28,78,120,276,180,86,-119
-77,-67,10,72,-43,-28,81,125,277,179,87,-121
-78,-68,10,73,-44,-29,85,128,279,181,86,-124
-78,-68,10,73,-44,-29,91,130,282,184,86,-125
-78,-65,13,71,-45,-26,96,134,285,186,91,-126
-78,-63,15,70,-46,-24,101,140,290,189,96,-126
-77,-62,15,69,-46,-23,104,147,301,194,97,-124
-77,-62,15,69,-46,-23,106,155,311,199,97,-122
-79,-65,14,72,-46,-25,107,160,313,201,97,-120
-81,-67,14,74,-47,-26,107,164,311,200,97,-121
-82,-68,14,75,-48,-27,106,167,315,199,93,-126
-82,-68,14,75,-48,-27,106,169,321,199,87,-134
-81,-66,15,73,-48,-25,108,169,326,201,83,-143
-81,-63,18,72,-49,-22,111,169,330,203,82,-150
-81,-60,21,70,-51,-19,114,173,335,204,81,-154
-81,-58,23,69,-52,-17,116,179,340,204,81,-155
-82,-55,27,68,-54,-14,119,184,344,202,83,-156
-82,-53,29,67,-55,-12,121,189,349,203,86,-156
-80,-51,29,65,-54,-11,124,194,359,212,89,-153
-78,-52,26,65,-52,-13,125,199,368,223,91,-151
-75,-55,20,65,-47,-17,126,203,374,225,91,-150
-73,-57,16,65,-44,-20,125,208,379,223,91,-150
-74,-56,18,65,-46,-19,127,216,387,227,95,-151
-77,-53,24,65,-50,-14,130,227,398,233,101,-151
-79,-52,27,65,-53,-12,135,237,407,238,104,-150
-78,-52,26,65,-52,-13,140,246,417,243,106,-150
-74,-53,21,63,-47,-16,141,256,430,250,108,-151
-68,-53,15,60,-41,-19,141,266,442,257,111,-151
-62,-51,11,56,-36,-20,141,275,448,259,116,-150
-58,-48,10,53,-34,-19,141,282,452,262,121,-150
-57,-44,13,50,-35,-15,139,288,460,271,124,-153
-57,-39,18,48,-37,-10,136,295,471,281,125,-155
-58,-35,23,46,-40,-6,133,305,483,287,127,-156
-58,-34,24,46,-41,-5,131,315,495,291,130,-156
-56,-34,22,45,-39,-6,132,325,507,297,133,-154
-53,-34,19,43,-36,-7,135,334,520,305,135,-151
-50,-30,20,40,-35,-5,139,345,535,312,136,-149
-48,-24,24,36,-36,0,144,358,549,316,136,-146
-47,-19,28,33,-37,4,154,377,559,319,136,-142
-47,-14,33,30,-40,9,167,397,568,321,136,-140
-47,-9,38,28,-42,14,185,415,579,324,134,-143
-47,-4,43,25,-45,19,202,431,593,330,135,-145
-49,1,50,24,-49,25,213,445,607,338,141,-144
-52,8,60,22,-56,34,222,460,621,349,149,-141
-56,14,70,21,-63,42,232,478,636,360,158,-138
-58,18,76,20,-67,47,242,495,651,369,164,-136
-56,20,76,18,-66,48,250,503,663,373,168,-133
-53,23,76,15,-64,49,256,506,671,374,169,-131
-52,30,82,11,-67,56,264,510,678,377,170,-128
-52,38,90,7,-71,64,268,512,682,379,170,-126
-52,42,94,5,-73,68,260,508,686,380,169,-124
-52,47,99,2,-75,73,246,502,691,380,169,-122
-55,55,110,0,-82,82,230,499,696,379,169,-120
-57,62,119,-2,-88,90,216,493,697,376,166,-121
-58,60,118,-1,-88,89,199,479,689,365,154,-125
-58,53,111,2,-84,82,174,456,675,352,138,-130
-57,51,108,3,-82,79,135,428,659,341,123,-132
-57,52,109,2,-83,80,96,402,645,332,112,-131
-58,53,111,2,-84,82,74,386,633,323,108,-128
-58,52,110,3,-84,81,60,376,621,313,107,-126
-56,54,110,1,-83,82,39,366,605,302,104,-125
-53,57,110,-2,-81,83,20,361,591,293,101,-122
-50,63,113,-6,-81,88,18,364,583,287,104,-114
-48,71,119,-11,-83,95,27,373,580,283,111,-103
-45,82,127,-18,-86,104,34,381,576,278,116,-96
-42,91,133,-24,-87,112,38,385,570,273,117,-92
-44,95,139,-25,-91,117,40,382,564,269,113,-88
-47,96,143,-24,-95,119,42,375,557,263,107,-82
-47,100,147,-26,-97,123,45,370,549,256,104,-75
-47,106,153,-29,-100,129,47,366,541,249,102,-68
-51,111,162,-30,-106,136,47,363,535,242,98,-65
-57,116,173,-29,-115,144,43,361,528,235,92,-63
-63,119,182,-28,-122,150,38,358,518,226,85,-60
-67,121,188,-27,-127,154,34,352,508,219,78,-54
-68,125,193,-28,-130,159,31,342,499,217,74,-44
-67,130,197,-31,-132,163,29,332,492,218,73,-35
-69,136,205,-33,-137,170,24,326,488,218,72,-29
-72,144,216,-36,-144,180,19,322,483,214,72,-24
-73,153,226,-40,-149,189,15,316,477,209,73,-16
-73,163,236,-45,-154,199,14,308,469,204,73,-5
-73,176,249,-51,-161,212,13,300,461,200,73,2
-77,188,265,-55,-171,226,13,293,453,195,73,8
-83,193,276,-55,-179,234,14,286,447,190,72,13
-91,194,285,-51,-188,239,13,279,440,185,72,18
-96,198,294,-51,-195,246,14,271,429,180,73,24
-101,203,304,-51,-202,253,14,263,415,175,73,28
-106,204,310,-49,-208,257,13,257,403,170,71,29
-111,200,311,-44,-211,255,13,253,391,165,68,28
-112,193,305,-40,-208,249,15,250,380,159,63,30
-112,185,297,-36,-204,241,18,245,367,152,58,33
-112,183,295,-35,-203,239,21,235,353,142,56,36
-112,184,296,-36,-204,240,23,225,338,132,57,38
-110,185,295,-37,-202,240,25,217,323,123,58,38
-107,185,292,-39,-199,238,24,210,309,117,58,38
-105,183,288,-39,-196,235,17,200,295,114,55,40
-102,180,282,-39,-192,231,9,191,284,112,53,42
-97,177,274,-40,-185,225,7,184,275,106,52,43
-92,171,263,-39,-177,217,8,176,264,98,53,42
-91,160,251,-34,-171,205,9,164,249,90,51,44
-92,147,239,-27,-165,193,9,152,231,83,48,47
-90,137,227,-23,-158,182,8,145,214,75,43,49
-87,131,218,-22,-152,174,9,141,197,68,39,48
-84,128,212,-22,-148,170,8,135,181,63,38,43
-82,126,208,-22,-145,167,8,127,166,58,39,39
-80,120,200,-20,-140,160,10,120,156,53,36,38
-78,113,191,-17,-134,152,13,113,147,48,34,39
-73,105,178,-16,-125,141,16,103,137,43,34,35
-68,98,166,-15,-117,132,18,93,127,39,34,29
-67,90,157,-11,-112,123,19,86,118,36,30,24
-68,82,150,-7,-109,116,18,79,108,34,24,19
-66,78,144,-6,-105,111,20,69,96,30,21,12
-63,73,136,-5,-99,104,23,59,83,24,19,5
-59,67,126,-4,-92,96,27,52,72,19,17,0
-57,59,116,-1,-86,87,29,48,64,14,14,-3
-59,50,109,4,-84,79,27,44,58,9,9,-5
-62,43,105,9,-83,74,24,39,53,4,4,-8
-63,41,104,11,-83,72,23,34,46,1,3,-13
-63,39,102,12,-82,70,23,29,39,0,3,-18
-61,31,92,15,-76,61,25,26,35,0,4,-21
-58,20,78,19,-68,49,28,24,34,0,3,-23
-55,13,68,21,-61,40,31,23,32,-1,4,-26
-53,9,62,22,-57,35,33,23,29,-3,4,-28
-53,7,60,23,-56,33,34,24,24,-6,1,-30
-53,4,57,24,-55,30,34,24,19,-8,-3,-33
-51,0,51,25,-51,25,33,23,15,-9,-6,-38
-48,-3,45,25,-46,21,33,23,13,-9,-8,-42
-47,-4,43,25,-45,19,36,24,15,-7,-9,-43
-47,-4,43,25,-45,19,38,24,18,-4,-9,-43
-48,-3,45,25,-46,21,39,23,21,-1,-6,-42
-48,-3,45,25,-46,21,38,23,23,0,-4,-42
-47,-5,42,26,-44,18,40,25,24,0,-3,-44
-47,-8,39,27,-43,15,42,28,23,0,-3,-47
-48,-13,35,30,-41,11,45,33,25,0,-6,-52
-48,-18,30,33,-39,6,47,38,28,0,-8,-57
-47,-19,28,33,-37,4,48,39,31,0,-9,-59
-48,-19,29,33,-38,5,48,39,33,0,-9,-58
-47,-18,29,32,-38,5,48,38,36,0,-8,-57
-47,-19,28,33,-37,4,48,38,38,0,-8,-57
-48,-18,30,33,-39,6,47,40,40,0,-9,-60
-48,-18,30,33,-39,6,47,42,42,0,-9,-62
-47,-20,27,33,-37,3,51,46,45,0,-6,-63
-47,-23,24,35,-35,0,56,52,47,0,-4,-62
-48,-26,22,37,-35,-2,63,57,49,1,-3,-64
-48,-28,20,38,-34,-4,67,62,52,3,-3,-67
-46,-31,15,38,-30,-8,67,66,56,4,-4,-68
-43,-33,10,38,-26,-11,63,71,62,3,-4,-68
-41,-34,7,37,-24,-13,60,80,67,5,-2,-67
-39,-34,5,36,-22,-14,62,90,72,8,0,-67
-37,-32,5,34,-21,-13,69,99,74,13,1,-68
-34,-29,5,31,-19,-12,77,106,77,18,3,-68
-30,-26,4,28,-17,-11,79,109,82,21,4,-66
-24,-24,0,24,-12,-12,81,111,90,23,4,-63
-19,-21,-2,20,-8,-11,87,116,98,27,2,-60
-14,-19,-5,16,-4,-12,88,124,106,33,3,-58
-11,-17,-6,14,-2,-11,73,132,111,37,9,-57
-9,-14,-5,11,-2,-9,54,140,116,42,17,-57
-6,-9,-3,7,-1,-6,51,144,122,49,22,-58
-4,-4,0,4,-2,-2,60,149,129,57,23,-58
-3,-3,0,3,-1,-1,73,158,137,61,23,-57
-3,-3,0,3,-1,-1,85,168,144,62,23,-57
-4,-3,1,3,-2,-1,94,178,150,63,25,-58
-4,0,4,2,-4,2,101,188,155,67,28,-58
-3,3,6,0,-4,4,106,199,161,74,33,-54
-3,8,11,-2,-7,9,114,211,168,85,38,-48
-4,13,17,-4,-10,15,131,226,177,97,40,-46
-4,18,22,-7,-13,20,148,237,188,106,42,-47
-3,22,25,-9,-14,23,157,242,200,108,46,-50
-3,27,30,-12,-16,28,160,243,212,107,51,-52
-5,35,40,-15,-22,37,164,247,219,108,58,-53
-8,42,50,-17,-29,46,169,252,223,111,62,-53
-9,45,54,-18,-31,49,171,253,225,114,62,-50
-9,47,56,-19,-32,51,174,252,228,116,62,-48
-8,52,60,-22,-34,56,180,255,232,119,67,-47
-8,57,65,-24,-36,61,181,254,234,121,72,-47
-11,59,70,-24,-40,64,163,239,230,122,68,-48
-13,58,71,-22,-42,64,135,217,224,122,59,-47
-14,54,68,-20,-41,61,111,197,221,119,51,-48
-14,49,63,-17,-38,56,90,178,215,113,44,-51
-13,41,54,-14,-33,47,67,155,199,101,34,-60
-13,30,43,-8,-28,36,39,127,174,85,21,-71
-13,19,32,-3,-22,25,7,95,147,65,7,-80
-13,9,22,2,-17,15,-16,70,128,49,-2,-86
-14,7,21,3,-17,14,-23,61,121,45,-7,-88
-14,8,22,3,-18,15,-19,62,122,47,-8,-87
-12,9,21,1,-16,15,-19,63,118,48,-9,-86
-9,9,18,0,-13,13,-23,63,112,48,-9,-86
-6,8,14,-1,-10,11,-25,62,110,48,-8,-87
-4,8,12,-2,-8,10,-24,62,111,48,-8,-87
-3,9,12,-3,-7,10,-19,63,111,46,-9,-84
-3,9,12,-3,-7,10,-14,63,107,43,-9,-82
-4,7,11,-1,-7,9,-11,62,101,41,-7,-83
-4,4,8,0,-6,6,-9,62,93,39,-4,-86
-3,2,5,0,-4,3,-5,63,86,37,-3,-89
-3,0,3,1,-3,1,0,63,82,34,-3,-91
-5,-3,2,4,-3,0,0,61,80,30,-5,-92
-8,-8,0,8,-4,-4,0,58,78,25,-8,-92
-11,-12,-1,11,-5,-6,1,55,74,18,-11,-90
-13,-14,-1,13,-6,-7,3,53,68,14,-13,-87
-16,-10,6,13,-11,-2,3,50,64,13,-14,-83
-18,-4,14,11,-16,5,3,48,63,14,-14,-78
-21,0,21,10,-21,10,8,45,62,11,-14,-75
-23,3,26,10,-24,14,13,43,62,9,-14,-73
-26,5,31,10,-28,18,13,41,62,9,-12,-72
-28,8,36,10,-32,22,9,39,62,13,-9,-72
-30,13,43,8,-36,28,7,36,63,17,-6,-73
-33,18,51,7,-42,34,8,34,63,19,-4,-72
-38,20,58,9,-48,39,10,34,59,15,-2,-73
-46,19,65,13,-55,42,13,34,54,9,-3,-73
-55,17,72,19,-63,44,16,30,48,5,-7,-72
-62,14,76,24,-69,45,18,24,43,4,-13,-72
-64,8,72,28,-68,40,19,22,41,4,-16,-74
-63,1,64,31,-63,32,19,23,39,4,-18,-77
-63,-4,59,33,-61,27,19,24,36,0,-20,-79
-63,-8,55,35,-59,23,19,23,34,-3,-23,-81
-61,-12,49,36,-55,18,17,24,34,-4,-27,-83
-62,-14,48,38,-55,17,18,24,34,-3,-32,-86
-71,-11,60,41,-65,24,24,22,31,-6,-40,-90
-85,-2,83,43,-84,40,32,19,32,-9,-47,-95
-94,15,109,39,-101,62,38,16,45,-6,-47,-101
-100,38,138,31,-119,88,39,18,68,0,-43,-106
-110,63,173,23,-141,118,36,23,90,2,-42,-107
-123,91,214,16,-168,152,34,7,73,-5,-42,-99
-138,125,263,6,-200,194,35,-62,-26,-32,-41,-79
-153,156,309,-1,-231,232,34,-180,-206,-73,-35,-46
-165,176,341,-5,-253,258,26,-325,-443,-125,-24,1
-173,187,360,-7,-266,273,19,-484,-737,-201,-14,65
-181,202,383,-10,-282,292,23,-642,-1087,-320,-16,146
-188,227,415,-19,-301,321,21,-793,-1437,-463,-27,248
-196,268,464,-36,-330,366,-7,-931,-1721,-599,-39,367
-203,314,517,-55,-360,415,-54,-1056,-1962,-742,-75,473
-207,352,559,-72,-383,455,-97,-1175,-2213,-918,-160,533
-208,387,595,-89,-401,491,-134,-1291,-2459,-1106,-272,558
-207,431,638,-112,-422,534,-176,-1409,-2660,-1267,-375,576
-198,468,666,-135,-432,567,-234,-1544,-2837,-1395,-456,606
-172,476,648,-152,-410,562,-319,-1706,-3021,-1493,-514,657
-130,440,570,-155,-350,505,-409,-1850,-3166,-1554,-547,717
-75,356,431,-140,-253,393,-481,-1923,-3205,-1576,-560,765
-14,244,258,-115,-136,251,-547,-1969,-3202,-1614,-585,799
45,129,84,-87,-19,106,-632,-2055,-3249,-1729,-661,823
109,-5,-114,-52,111,-59,-715,-2139,-3283,-1861,-756,813
184,-187,-371,1,277,-279,-765,-2140,-3195,-1913,-820,738
278,-382,-660,52,469,-521,-801,-2049,-2998,-1890,-850,611
392,-536,-928,72,660,-732,-859,-1888,-2752,-1838,-864,459
508,-639,-1147,65,827,-893,-925,-1700,-2490,-1763,-864,332
601,-701,-1302,50,951,-1001,-969,-1527,-2232,-1660,-850,269
664,-750,-1414,43,1039,-1082,-967,-1362,-1994,-1550,-838,194
699,-818,-1517,59,1108,-1167,-906,-1180,-1790,-1454,-848,2
708,-891,-1599,91,1153,-1245,-804,-985,-1593,-1349,-866,-274
692,-936,-1628,122,1160,-1282,-693,-796,-1371,-1203,-865,-547
649,-940,-1589,145,1119,-1264,-584,-630,-1151,-1041,-841,-732
578,-898,-1476,160,1027,-1187,-482,-505,-979,-909,-792,-769
489,-825,-1314,168,901,-1069,-383,-406,-836,-796,-721,-717
397,-737,-1134,170,765,-935,-286,-314,-684,-671,-631,-671
304,-638,-942,167,623,-790,-202,-235,-532,-540,-527,-625
208,-527,-735,159,471,-631,-145,-185,-404,-417,-413,-540
117,-414,-531,148,324,-472,-108,-155,-300,-309,-304,-428
39,-313,-352,137,195,-332,-73,-126,-207,-216,-215,-327
-16,-235,-219,125,101,-227,-39,-89,-121,-135,-143,-246
-44,-185,-141,114,48,-163,-11,-45,-43,-62,-79,-187
-52,-152,-100,102,24,-126,10,-2,23,0,-23,-146
-55,-116,-61,85,3,-88,29,28,75,45,21,-121
-57,-85,-28,71,-14,-56,42,49,115,77,50,-108
-58,-73,-15,65,-21,-44,42,66,146,97,57,-105
-58,-72,-14,65,-22,-43,35,79,171,113,53,-106
-55,-71,-16,63,-19,-43,30,90,191,132,53,-105
-53,-68,-15,60,-19,-41,32,99,206,148,57,-102
-52,-67,-15,59,-18,-41,45,112,217,155,60,-100
-53,-67,-14,60,-19,-40,60,121,223,155,62,-101
-51,-68,-17,59,-17,-42,67,119,225,157,64,-105
-48,-67,-19,57,-14,-43,68,112,228,160,67,-111
-47,-68,-21,57,-13,-44,67,112,234,163,71,-114
-48,-68,-20,58,-14,-44,67,120,242,168,76,-112
-46,-66,-20,56,-13,-43,68,130,248,177,84,-105
-43,-63,-20,53,-11,-41,68,139,256,188,91,-98
-40,-60,-20,50,-10,-40,67,145,268,197,94,-95
-39,-58,-19,48,-10,-38,67,150,284,203,96,-96
-39,-57,-18,48,-10,-37,69,156,296,206,101,-98
-39,-57,-18,48,-10,-37,72,163,305,208,106,-101
-37,-58,-21,47,-8,-39,75,170,311,212,107,-104
-34,-58,-24,46,-5,-41,77,178,316,218,106,-106
-31,-56,-25,43,-3,-40,79,187,320,222,110,-108
-29,-53,-24,41,-2,-38,81,198,328,227,115,-107
-28,-48,-20,38,-4,-34,86,208,343,236,120,-103
-28,-43,-15,35,-6,-29,91,217,358,246,125,-97
-31,-40,-9,35,-11,-24,93,224,365,253,130,-93
-33,-39,-6,36,-13,-22,95,232,368,257,135,-92
-34,-38,-4,36,-15,-21,105,244,378,261,136,-91
-34,-39,-5,36,-14,-22,122,260,392,266,135,-92
-34,-38,-4,36,-15,-21,141,274,405,274,137,-91
-34,-34,0,34,-17,-17,158,285,417,281,140,-91
-32,-28,4,30,-18,-12,168,291,425,287,141,-93
-29,-20,9,24,-19,-5,173,296,432,291,140,-96
-26,-12,14,19,-20,1,181,301,439,294,142,-97
-24,-4,20,14,-22,8,188,306,446,300,145,-97
-25,-1,24,13,-24,11,192,308,456,310,148,-95
-28,0,28,14,-28,14,194,311,466,320,150,-92
-31,0,31,15,-31,15,198,315,473,324,151,-90
-33,0,33,16,-33,16,196,317,477,322,151,-91
-34,0,34,17,-34,17,180,309,478,318,149,-95
-34,0,34,17,-34,17,155,294,478,313,146,-100
-31,0,31,15,-31,15,134,281,478,307,143,-106
-29,-3,26,16,-27,11,115,270,478,302,137,-110
-28,-9,19,18,-23,5,92,258,474,297,127,-117
-28,-17,11,22,-19,-3,63,242,465,289,114,-124
-28,-24,4,26,-16,-10,31,222,449,275,101,-132
-28,-28,0,28,-14,-14,6,205,435,263,92,-139
-30,-27,3,28,-16,-12,0,202,434,264,90,-144
-33,-24,9,28,-21,-7,3,207,442,272,91,-145
-36,-23,13,29,-24,-5,4,213,450,273,91,-146
-38,-23,15,30,-26,-4,3,217,456,272,91,-146
-37,-24,13,30,-25,-5,6,224,463,276,93,-144
-34,-24,10,29,-22,-7,12,232,471,282,96,-141
-31,-20,11,25,-21,-4,20,241,481,285,97,-138
-29,-14,15,21,-22,0,28,251,490,286,97,-136
-30,-11,19,20,-24,4,31,259,495,286,96,-134
-33,-9,24,21,-28,7,33,266,496,286,96,-135
-35,-7,28,21,-31,10,39,272,499,288,97,-139
-38,-4,34,21,-36,15,46,277,505,291,97,-145
-43,0,43,21,-43,21,51,281,512,294,95,-146
-51,7,58,22,-54,32,52,285,520,296,92,-146
-59,13,72,23,-65,42,54,292,527,299,89,-146
-66,17,83,24,-74,50,57,300,534,301,86,-146
-72,25,97,23,-84,61,61,306,542,302,88,-144
-76,36,112,20,-94,74,67,311,549,302,91,-141
-83,51,134,16,-108,92,70,314,553,301,92,-138
-90,65,155,12,-122,110,72,316,555,301,91,-136
-97,74,171,11,-134,122,74,317,559,303,93,-133
-105,80,185,12,-145,132,73,317,565,306,96,-131
-114,89,203,12,-158,146,69,315,568,308,98,-130
-124,100,224,12,-174,162,67,316,570,307,97,-130
-132,107,239,12,-185,173,76,323,569,301,91,-130
-139,115,254,12,-196,184,86,334,566,293,83,-127
-147,127,274,10,-210,200,83,341,562,288,77,-120
-154,139,293,7,-223,216,74,341,557,284,73,-112
-160,144,304,8,-232,224,71,335,550,276,69,-110
-164,145,309,9,-236,227,72,327,542,265,64,-111
-167,148,315,9,-241,231,71,322,533,254,58,-113
-169,154,323,7,-246,238,68,321,523,245,53,-112
-170,160,330,5,-250,245,65,322,515,239,50,-106
-170,168,338,1,-254,253,63,322,508,234,48,-98
-169,178,347,-4,-258,262,61,321,501,230,44,-94
-169,188,357,-9,-263,272,58,318,493,225,40,-92
-170,194,364,-12,-267,279,54,310,484,218,34,-88
-170,199,369,-14,-269,284,49,299,475,210,29,-79
-168,204,372,-18,-270,288,43,288,464,201,26,-69
-165,212,377,-23,-271,294,39,279,454,191,24,-59
-164,220,384,-28,-274,302,37,273,447,183,23,-53
-164,227,391,-31,-277,309,34,269,440,176,24,-48
-165,233,398,-34,-281,315,29,263,431,169,22,-43
-165,238,403,-36,-284,320,24,254,421,162,19,-35
-163,241,404,-39,-283,322,23,244,409,155,15,-25
-161,246,407,-42,-284,326,24,235,397,147,9,-15
-161,254,415,-46,-288,334,22,229,386,137,6,-9
-161,261,422,-50,-291,341,19,225,377,127,4,-5
-157,265,422,-54,-289,343,16,218,365,121,3,3
-151,267,418,-58,-284,342,14,210,353,117,3,16
-148,272,420,-62,-284,346,13,203,340,113,4,28
-146,277,423,-65,-284,350,13,196,328,108,4,37
-144,275,419,-65,-281,347,13,189,317,101,4,43
-141,269,410,-64,-275,339,13,181,304,93,4,47
-136,265,401,-64,-268,333,14,173,288,85,3,52
-131,263,394,-66,-262,328,14,166,271,79,3,57
-129,258,387,-64,-258,322,12,159,255,74,4,58
-126,250,376,-62,-251,313,9,152,241,69,4,57
-120,238,358,-59,-239,298,8,145,226,62,2,59
-113,226,339,-56,-226,282,8,137,211,54,0,62
-109,215,324,-53,-216,269,10,129,198,48,0,63
-107,205,312,-49,-209,258,13,123,187,43,0,63
-103,196,299,-46,-201,247,15,118,175,40,0,61
-97,186,283,-44,-190,234,14,113,163,39,0,58
-94,178,272,-42,-183,225,9,104,150,37,-2,56
-92,171,263,-39,-177,217,4,93,138,35,-8,53
-88,163,251,-37,-169,207,4,86,128,28,-11,48
-82,153,235,-35,-158,194,8,79,119,20,-13,43
-80,139,219,-29,-149,179,9,69,106,14,-13,41
-78,124,202,-23,-140,163,9,59,90,9,-13,39
-74,112,186,-19,-130,149,8,54,74,5,-15,36
-68,103,171,-17,-119,137,8,53,60,0,-18,30
-65,98,163,-16,-114,130,8,49,50,-1,-19,22
-63,93,156,-15,-109,124,8,44,43,-3,-18,15
-61,85,146,-12,-103,115,10,39,41,-5,-20,11
-58,74,132,-8,-95,103,13,34,39,-8,-23,9
-55,66,121,-5,-88,93,17,29,35,-11,-23,5
-52,59,111,-3,-81,85,23,24,30,-13,-23,0
-54,51,105,1,-79,78,26,22,24,-14,-27,-3
-57,44,101,6,-79,72,28,19,20,-14,-33,-7
-57,39,96,9,-76,67,29,15,14,-13,-35,-14
-53,35,88,9,-70,61,29,9,9,-14,-34,-22
-50,28,78,11,-64,53,29,7,6,-13,-33,-28
-48,20,68,14,-58,44,29,8,4,-13,-33,-33
-46,12,58,17,-52,35,28,10,4,-15,-36,-35
-43,4,47,19,-45,25,28,13,4,-18,-38,-38
-39,1,40,19,-39,20,30,16,2,-19,-37,-42
-34,0,34,17,-34,17,33,18,0,-19,-34,-47
-31,-3,28,17,-29,12,34,20,0,-17,-31,-48
-29,-8,21,18,-25,6,34,23,3,-14,-29,-48
-27,-10,17,18,-22,3,34,27,6,-13,-26,-47
-24,-9,15,16,-19,3,34,33,8,-13,-24,-48
-22,-6,16,14,-19,5,32,36,10,-14,-24,-47
-19,-4,15,11,-17,5,29,38,13,-14,-24,-47
-15,-3,12,9,-13,4,28,41,17,-10,-20,-50
-9,-4,5,6,-7,0,28,46,22,-5,-15,-52
-6,-2,4,4,-5,1,29,53,29,-1,-10,-52
-4,0,4,2,-4,2,29,61,37,2,-9,-48
-4,0,4,2,-4,2,27,68,44,9,-9,-45
-4,0,4,2,-4,2,27,76,51,17,-9,-43
-2,1,3,0,-2,2,36,85,58,23,-7,-42
0,3,3,-1,-1,3,50,94,66,28,-4,-42
0,5,5,-2,-2,5,63,105,75,32,-2,-45
0,8,8,-4,-4,8,75,115,84,37,0,-47
0,11,11,-5,-5,11,87,124,94,43,2,-46
0,13,13,-6,-6,13,99,133,104,51,7,-43
0,15,15,-7,-7,15,111,145,115,59,13,-40
0,17,17,-8,-8,17,123,154,124,66,18,-39
0,24,24,-12,-12,24,133,157,128,70,19,-38
0,32,32,-16,-16,32,140,156,130,72,19,-38
0,37,37,-18,-18,37,142,155,134,74,18,-39
0,38,38,-19,-19,38,141,155,139,77,18,-39
1,40,39,-20,-19,39,140,155,144,79,20,-38
3,42,39,-22,-18,40,140,155,149,81,23,-38
4,44,40,-24,-18,42,142,157,156,84,24,-38
4,43,39,-23,-17,41,138,153,161,86,24,-38
3,40,37,-21,-17,38,119,135,155,87,23,-39
3,35,32,-19,-14,33,89,108,143,87,23,-39
5,30,25,-17,-10,27,55,81,132,84,25,-38
8,25,17,-16,-4,21,28,61,124,79,25,-38
11,17,6,-14,2,11,12,48,113,71,17,-40
13,6,-7,-9,10,0,-3,36,100,60,6,-42
14,-6,-20,-4,17,-13,-35,21,83,46,-1,-45
13,-17,-30,2,21,-23,-68,6,69,35,-3,-47
15,-18,-33,1,24,-25,-75,1,65,33,-4,-48
18,-14,-32,-2,25,-23,-65,3,67,38,-4,-48
21,-13,-34,-4,27,-23,-58,4,68,40,-4,-47
23,-14,-37,-4,30,-25,-54,3,68,39,-4,-47
24,-12,-36,-6,30,-24,-45,5,67,38,-2,-48
24,-9,-33,-7,28,-21,-35,8,67,38,0,-48
23,-8,-31,-7,27,-19,-32,11,68,40,0,-47
24,-8,-32,-8,28,-20,-33,13,68,42,0,-47
23,-10,-33,-6,28,-21,-34,14,64,42,-1,-51
23,-13,-36,-5,29,-24,-34,14,58,40,-3,-56
25,-16,-41,-4,33,-28,-33,13,56,34,-4,-60
24,-19,-43,-2,33,-31,-33,13,57,29,-4,-62
19,-17,-36,-1,27,-26,-34,14,58,30,-3,-63
10,-14,-24,2,17,-19,-34,14,58,33,-3,-63
4,-14,-18,5,11,-16,-32,12,57,34,-5,-61
0,-14,-14,7,7,-14,-29,9,57,33,-4,-58
-1,-10,-9,5,4,-9,-25,8,60,36,1,-54
-3,-5,-2,4,0,-3,-19,9,62,41,8,-49
-7,0,7,3,-7,3,-16,7,62,48,9,-43
-12,0,12,6,-12,6,-14,4,59,53,5,-39
-17,-3,14,10,-15,5,-12,2,53,49,0,-39
-22,-8,14,15,-18,3,-9,0,48,43,-3,-42
-28,-9,19,18,-23,5,-7,0,47,42,-4,-45
-33,-8,25,20,-29,8,-4,0,48,43,-3,-47
-36,-10,26,23,-31,8,-1,1,46,38,-4,-49
-41,-13,28,27,-34,7,3,3,43,30,-7,-52
-49,-16,33,32,-41,8,6,4,41,23,-13,-55
-56,-18,38,37,-47,10,9,4,39,19,-18,-57
-59,-20,39,39,-49,9,7,3,36,18,-19,-58
-58,-23,35,40,-46,6,4,3,34,18,-19,-58
-55,-26,29,40,-42,1,2,4,34,19,-18,-58
-53,-28,25,40,-39,-1,3,4,34,19,-18,-58
-52,-29,23,40,-37,-3,6,2,31,17,-19,-56
-52,-29,23,40,-37,-3,8,0,25,14,-19,-53
-53,-28,25,40,-39,-1,8,-1,19,13,-17,-52
-53,-28,25,40,-39,-1,8,-3,14,13,-14,-52
-52,-28,24,40,-38,-2,12,-4,13,14,-13,-53
-52,-28,24,40,-38,-2,18,-4,13,14,-13,-52
-53,-29,24,41,-38,-2,19,-4,14,13,-13,-53
-53,-29,24,41,-38,-2,19,-4,14,14,-13,-53
-52,-27,25,39,-38,-1,19,-3,12,13,-15,-51
-52,-24,28,38,-40,2,19,-3,9,13,-18,-48
-53,-23,30,38,-41,3,16,-5,6,14,-21,-45
-53,-23,30,38,-41,3,13,-8,4,14,-23,-43
-51,-24,27,37,-39,1,17,-9,5,12,-24,-42
-48,-23,25,35,-36,1,23,-9,8,9,-23,-42
-45,-24,21,34,-33,-1,21,-9,9,7,-24,-43
-43,-24,19,33,-31,-2,15,-9,8,8,-24,-43
-42,-22,20,32,-31,-1,12,-7,10,11,-21,-41
-42,-19,23,30,-32,2,13,-4,13,13,-15,-39
-43,-18,25,30,-34,3,14,0,15,12,-8,-36
-43,-18,25,30,-34,3,14,0,14,9,-4,-34
-43,-20,23,31,-33,1,12,-4,11,7,-6,-33
-43,-23,20,33,-31,-1,9,-12,9,8,-12,-33
-42,-26,16,34,-29,-5,8,-15,8,11,-15,-34
-42,-28,14,35,-28,-7,8,-14,8,14,-14,-34
-43,-29,14,36,-28,-7,9,-11,8,10,-11,-33
-43,-29,14,36,-28,-7,9,-9,8,5,-9,-33
-41,-28,13,34,-27,-7,9,-7,9,2,-9,-35
-41,-25,16,33,-28,-4,12,-5,12,3,-12,-38
-51,-17,34,34,-42,8,21,0,17,6,-20,-42
-65,-3,62,34,-63,29,31,4,19,8,-27,-47
-74,14,88,30,-81,51,38,0,13,10,-30,-48
-80,37,117,21,-98,77,42,-4,14,12,-29,-48
-90,64,154,13,-122,109,44,3,42,18,-29,-47
-103,98,201,2,-152,149,47,7,61,16,-32,-41
-117,137,254,-10,-185,195,49,-24,13,-4,-37,-24
-128,170,298,-21,-213,234,52,-101,-121,-42,-36,8
-137,182,319,-22,-228,250,55,-223,-344,-91,-22,61
-144,180,324,-18,-234,252,60,-370,-634,-159,-6,129
-150,181,331,-15,-240,256,71,-516,-958,-261,-4,203
-154,197,351,-21,-252,274,72,-653,-1271,-388,-19,289
-160,236,396,-38,-278,316,40,-779,-1532,-522,-45,395
-164,283,447,-59,-305,365,-11,-896,-1758,-666,-91,498
-165,314,479,-74,-322,396,-60,-1006,-1989,-829,-170,561
-165,342,507,-88,-336,424,-102,-1115,-2215,-997,-265,590
-164,389,553,-112,-358,471,-146,-1228,-2410,-1146,-352,610
-158,440,598,-141,-378,519,-199,-1353,-2584,-1272,-424,636
-140,457,597,-158,-368,527,-266,-1496,-2762,-1375,-481,674
-103,424,527,-160,-315,475,-339,-1626,-2903,-1444,-517,723
-47,338,385,-145,-216,361,-408,-1700,-2947,-1469,-527,779
18,228,210,-123,-96,219,-478,-1750,-2953,-1497,-542,833
83,130,47,-106,18,88,-563,-1835,-3020,-1591,-601,869
151,12,-139,-81,145,-63,-646,-1920,-3090,-1714,-691,854
238,-177,-415,-30,326,-296,-705,-1935,-3046,-1784,-773,750
340,-404,-744,32,542,-574,-753,-1875,-2902,-1803,-840,579
451,-589,-1040,69,745,-814,-816,-1770,-2733,-1806,-896,393
560,-714,-1274,77,917,-994,-887,-1638,-2546,-1786,-939,236
658,-791,-1449,66,1053,-1120,-939,-1492,-2325,-1722,-960,142
736,-848,-1584,56,1160,-1216,-954,-1338,-2094,-1634,-972,57
789,-915,-1704,63,1246,-1309,-921,-1178,-1891,-1559,-990,-103
810,-982,-1792,86,1301,-1387,-846,-1007,-1697,-1472,-1004,-335
793,-1020,-1813,113,1303,-1416,-743,-824,-1474,-1326,-995,-587
746,-1020,-1766,137,1256,-1393,-630,-650,-1247,-1154,-961,-781
680,-981,-1661,150,1170,-1321,-526,-512,-1066,-1012,-911,-845
600,-905,-1505,152,1052,-1205,-428,-403,-914,-892,-836,-806
506,-798,-1304,146,905,-1051,-326,-303,-747,-754,-725,-733
404,-673,-1077,134,740,-875,-232,-213,-570,-601,-589,-647
303,-549,-852,123,577,-700,-167,-143,-414,-456,-450,-541
210,-434,-644,112,427,-539,-122,-92,-285,-329,-323,-426
128,-330,-458,101,293,-394,-74,-51,-177,-219,-219,-317
64,-245,-309,90,186,-277,-24,-10,-83,-123,-135,-223
27,-186,-213,79,120,-199,17,39,1,-36,-61,-150
10,-144,-154,67,82,-149,50,91,76,38,0,-100
4,-106,-110,51,57,-108,78,129,136,92,51,-72
1,-73,-74,36,37,-73,98,155,184,128,86,-59
-4,-55,-51,29,23,-53,108,177,226,156,104,-53
-8,-48,-40,28,16,-44,111,195,261,179,111,-48
-8,-45,-37,26,14,-41,116,212,284,202,114,-45
-4,-43,-39,23,17,-41,127,225,299,221,116,-43
-2,-41,-39,21,18,-40,146,237,309,228,117,-41
0,-39,-39,19,19,-39,163,240,316,229,117,-42
3,-38,-41,17,22,-39,164,228,316,228,116,-46
8,-38,-46,15,27,-42,157,211,316,228,116,-51
9,-38,-47,14,28,-42,155,206,321,228,118,-54
8,-38,-46,15,27,-42,153,209,329,228,121,-53
10,-40,-50,15,30,-45,136,204,333,230,123,-49
13,-42,-55,14,34,-48,108,192,335,232,122,-43
16,-44,-60,14,38,-52,83,180,339,237,118,-42
18,-47,-65,14,41,-56,62,168,341,239,113,-46
17,-51,-68,17,42,-59,41,152,333,233,108,-55
14,-56,-70,21,42,-63,15,131,316,221,103,-69
11,-62,-73,25,42,-67,-13,107,298,211,94,-84
9,-67,-76,29,42,-71,-36,88,287,204,87,-95
8,-67,-75,29,41,-71,-38,88,288,204,89,-96
8,-63,-71,27,39,-67,-26,99,298,207,95,-89
9,-61,-70,26,39,-65,-18,108,311,212,97,-80
9,-62,-71,26,40,-66,-14,115,320,217,96,-74
7,-65,-72,29,39,-68,-11,124,323,222,100,-69
4,-67,-71,31,37,-69,-5,137,321,227,105,-67
3,-68,-71,32,37,-69,1,151,324,233,108,-70
3,-67,-70,32,36,-68,7,160,329,238,107,-76
4,-69,-73,32,38,-71,11,159,334,238,104,-83
3,-72,-75,34,39,-73,13,152,339,234,102,-90
4,-73,-77,34,40,-75,15,148,345,231,101,-94
4,-73,-77,34,40,-75,18,150,350,229,101,-96
2,-71,-73,34,37,-72,22,154,351,228,102,-97
-2,-72,-70,37,34,-71,27,159,350,232,102,-97
-9,-76,-67,42,29,-71,33,163,353,241,101,-95
-17,-81,-64,49,23,-72,38,164,359,251,101,-92
-21,-79,-58,50,18,-68,41,166,367,254,101,-89
-23,-70,-47,46,12,-58,42,169,377,253,101,-87
-25,-58,-33,41,4,-45,43,173,388,252,102,-87
-27,-49,-22,38,-2,-35,46,178,398,252,102,-90
-33,-48,-15,40,-9,-31,53,183,403,253,101,-95
-41,-52,-11,46,-15,-31,61,188,407,256,101,-100
-48,-53,-5,50,-21,-29,67,194,416,264,103,-104
-56,-53,3,54,-29,-25,72,199,427,271,106,-106
-63,-52,11,57,-37,-20,76,202,432,273,109,-108
-70,-52,18,61,-44,-17,80,203,433,272,111,-111
-80,-52,28,66,-54,-12,86,205,437,276,112,-113
-90,-52,38,71,-64,-7,91,208,445,282,112,-116
-95,-54,41,74,-68,-6,92,211,455,283,110,-118
-96,-57,39,76,-67,-9,91,217,465,282,107,-121
-97,-60,37,78,-67,-11,93,225,473,285,105,-123
-97,-63,34,80,-65,-14,96,236,480,290,102,-125
-96,-60,36,78,-66,-12,99,246,490,294,99,-126
-96,-54,42,75,-69,-6,101,255,499,296,97,-126
-98,-48,50,73,-74,1,101,263,507,298,96,-125
-101,-44,57,72,-79,6,101,271,515,301,97,-125
-103,-40,63,71,-83,11,106,278,523,304,95,-129
-106,-35,71,70,-88,18,115,285,533,306,92,-135
-109,-28,81,68,-95,26,120,290,543,306,89,-137
-111,-20,91,65,-101,35,121,295,553,306,87,-136
-112,-15,97,63,-104,41,123,303,563,308,86,-135
-112,-13,99,62,-105,43,125,314,572,311,86,-136
-109,-14,95,61,-102,40,128,322,580,312,88,-134
-107,-14,93,60,-100,39,130,329,588,311,91,-131
-108,-9,99,58,-103,45,131,336,595,313,92,-128
-111,-1,110,56,-110,54,131,344,603,316,92,-123
-113,3,116,55,-114,59,130,350,609,319,91,-117
-116,7,123,54,-119,65,130,354,613,321,91,-112
-120,14,134,53,-127,74,131,359,615,323,94,-111
-125,22,147,51,-136,84,134,364,618,322,96,-111
-126,28,154,49,-140,91,142,370,621,318,96,-111
-126,36,162,45,-144,99,147,374,623,312,92,-108
-125,48,173,38,-149,110,136,374,623,311,89,-101
-125,60,185,32,-155,122,119,370,619,311,87,-93
-127,67,194,30,-160,130,115,368,616,311,87,-87
-130,71,201,29,-165,136,120,366,611,308,87,-82
-131,78,209,26,-170,143,122,363,602,301,85,-79
-131,89,220,21,-175,154,118,361,592,293,82,-74
-130,99,229,15,-179,164,114,360,584,288,81,-65
-131,109,240,11,-185,174,112,361,580,284,81,-55
-130,119,249,5,-189,184,111,359,579,279,82,-48
-130,129,259,0,-194,194,112,357,580,274,82,-43
-132,135,267,-1,-199,201,111,352,577,269,80,-39
-135,139,274,-2,-204,206,108,347,572,264,78,-31
-136,145,281,-4,-208,213,103,342,563,257,75,-19
-136,153,289,-8,-212,221,97,337,553,249,73,-3
-135,161,296,-13,-215,228,95,332,545,242,72,10
-135,168,303,-16,-219,235,93,327,537,235,73,21
-136,174,310,-19,-223,242,87,321,529,228,71,30
-136,178,314,-21,-225,246,79,314,519,220,68,40
-134,183,317,-24,-225,250,73,304,507,215,65,51
-131,188,319,-28,-225,253,69,294,495,210,63,61
-129,195,324,-33,-226,259,64,286,482,204,61,65
-126,202,328,-38,-227,265,59,280,471,196,58,67
-123,207,330,-42,-226,268,55,270,458,190,55,71
-118,211,329,-46,-223,270,53,260,446,186,53,79
-112,222,334,-55,-223,278,51,252,435,181,52,88
-107,232,339,-62,-223,285,48,245,426,176,53,95
-105,234,339,-64,-222,286,45,238,417,170,52,100
-102,230,332,-64,-217,281,43,231,408,165,52,105
-98,226,324,-64,-211,275,42,223,394,162,55,115
-93,224,317,-65,-205,270,43,215,378,161,61,127
-88,221,309,-66,-198,265,41,209,365,160,67,138
-83,215,298,-66,-190,256,39,204,354,157,72,144
-75,207,282,-66,-178,244,38,203,340,150,72,148
-65,197,262,-66,-163,229,39,203,325,142,68,150
-58,188,246,-65,-152,217,38,203,311,136,66,151
-53,181,234,-64,-143,207,35,200,299,131,67,151
-50,175,225,-62,-137,200,30,196,289,128,69,150
-48,171,219,-61,-133,195,25,191,280,126,72,150
-47,167,214,-60,-130,190,22,184,271,124,73,151
-44,162,206,-59,-125,184,23,180,264,122,73,151
-36,154,190,-59,-113,172,27,181,260,118,72,149
-26,144,170,-59,-98,157,33,184,255,113,72,146
-18,131,149,-56,-83,140,35,182,244,109,73,145
-14,119,133,-52,-73,126,34,176,228,107,73,146
-12,109,121,-48,-66,115,33,172,212,103,71,143
-9,103,112,-47,-60,107,30,170,198,98,68,137
-6,100,106,-47,-56,103,23,165,185,94,67,130
-4,98,102,-47,-53,100,18,161,176,92,68,123
-2,92,94,-45,-48,93,24,163,172,90,66,119
0,84,84,-42,-42,84,39,169,170,87,63,117
3,76,73,-39,-35,74,52,170,165,84,62,113
8,69,61,-38,-26,65,64,169,157,81,63,108
9,63,54,-36,-22,58,79,172,152,84,62,104
8,58,50,-33,-21,54,97,178,151,90,62,102
10,55,45,-32,-17,50,114,183,150,94,66,100
13,53,40,-33,-13,46,128,185,150,96,71,97
14,51,37,-32,-11,44,136,182,152,97,74,94
14,48,34,-31,-10,41,140,176,154,97,73,92
13,45,32,-29,-9,38,143,171,159,95,69,90
13,43,30,-28,-8,36,146,166,161,92,64,88
17,41,24,-29,-3,32,143,159,155,89,60,83
22,39,17,-30,2,28,140,152,147,87,58,78
26,35,9,-30,8,22,144,149,145,87,56,77
28,30,2,-29,13,16,143,144,146,87,53,78
31,25,-6,-28,18,9,124,125,140,82,51,75
33,20,-13,-26,23,3,91,95,129,74,48,69
34,15,-19,-24,26,-2,58,64,117,68,45,63
33,10,-23,-21,28,-6,30,39,105,64,40,59
35,3,-32,-19,33,-14,6,21,91,58,33,55
38,-6,-44,-16,41,-25,-17,7,77,50,26,53
39,-15,-54,-12,46,-34,-43,-5,61,41,18,52
38,-22,-60,-8,49,-41,-64,-17,49,34,13,52
39,-25,-64,-7,51,-44,-71,-21,46,34,16,54
42,-24,-66,-9,54,-45,-68,-19,47,38,22,57
45,-22,-67,-11,56,-44,-69,-15,48,39,24,60
47,-23,-70,-12,58,-46,-72,-10,48,38,23,62
48,-27,-75,-10,61,-51,-70,-5,47,40,25,62
47,-32,-79,-7,63,-55,-61,0,48,42,28,59
49,-35,-84,-7,66,-59,-47,2,47,42,28,53
52,-34,-86,-9,69,-60,-36,3,47,39,24,48
53,-33,-86,-10,69,-59,-31,4,49,38,22,47
53,-33,-86,-10,69,-59,-33,4,51,39,23,47
51,-35,-86,-8,68,-60,-35,3,56,38,25,48
48,-38,-86,-5,67,-62,-34,3,61,38,28,47
45,-40,-85,-2,65,-62,-31,5,65,41,29,48
40,-42,-82,1,61,-62,-25,8,67,46,29,48
34,-43,-77,4,55,-60,-19,10,69,50,28,46
30,-43,-73,6,51,-58,-14,12,72,52,28,43
26,-43,-69,8,47,-56,-13,19,76,54,29,41
24,-43,-67,9,45,-55,-14,27,80,57,29,39
21,-41,-62,10,41,-51,-13,30,84,59,28,38
15,-39,-54,12,34,-46,-10,29,86,62,28,38
8,-38,-46,15,27,-42,-5,30,89,65,32,39
1,-38,-39,18,20,-38,-1,33,91,71,40,39
-3,-39,-36,21,16,-37,3,35,92,77,50,38
-7,-39,-32,23,12,-35,8,38,92,81,57,35
-13,-38,-25,25,6,-31,10,42,92,80,54,29
-21,-38,-17,29,-2,-27,13,46,92,74,42,21
-30,-39,-9,34,-10,-24,17,50,90,68,29,12
-37,-42,-5,39,-16,-23,22,52,87,64,20,5
-39,-45,-6,42,-16,-25,25,52,86,60,17,1
-39,-47,-8,43,-15,-27,24,52,86,58,18,0
-40,-48,-8,44,-16,-28,22,54,89,57,19,-1
-42,-48,-6,45,-18,-27,23,57,91,57,19,-3
-42,-47,-5,44,-18,-26,27,58,91,59,18,-4
-42,-47,-5,44,-18,-26,33,57,91,61,19,-4
-45,-47,-2,46,-21,-24,34,58,94,66,18,-3
-47,-47,0,47,-23,-23,33,61,100,71,18,-3
-46,-48,-2,47,-22,-25,36,67,106,75,20,-5
-43,-48,-5,45,-19,-26,41,72,111,77,23,-8
-44,-47,-3,45,-20,-25,45,73,112,78,26,-9
-47,-47,0,47,-23,-23,47,72,111,77,28,-9
-48,-51,-3,49,-22,-27,48,75,113,79,29,-8
-48,-56,-8,52,-20,-32,48,81,116,81,29,-8
-47,-59,-12,53,-17,-35,47,82,117,83,28,-9
-47,-58,-11,52,-18,-34,47,81,116,86,28,-9
-47,-57,-10,52,-18,-33,50,83,119,89,30,-8
-47,-57,-10,52,-18,-33,56,86,121,91,33,-8
-48,-59,-11,53,-18,-35,62,86,120,90,34,-10
-48,-59,-11,53,-18,-35,66,82,117,87,34,-13
-46,-52,-6,49,-20,-29,70,80,117,86,34,-14
-43,-44,-1,43,-21,-22,72,81,121,87,34,-14
-42,-41,1,41,-21,-20,74,84,123,85,33,-13
-42,-46,-4,44,-19,-25,74,87,122,82,30,-14
-43,-53,-10,48,-16,-31,67,84,119,82,25,-13
-43,-61,-18,52,-12,-39,59,79,113,82,19,-13
-41,-64,-23,52,-9,-43,56,75,106,77,17,-14
-39,-63,-24,51,-7,-43,57,73,98,69,18,-14
-38,-60,-22,49,-8,-41,59,72,93,66,20,-11
-38,-58,-20,48,-9,-39,61,72,92,67,23,-5
-39,-57,-18,48,-10,-37,67,75,92,68,26,0
-39,-57,-18,48,-10,-37,72,77,92,68,28,3
-38,-58,-20,48,-9,-39,72,77,90,67,29,5
-38,-57,-19,47,-9,-38,68,74,87,67,29,7
-39,-58,-19,48,-10,-38,67,70,86,68,28,13
-39,-58,-19,48,-10,-38,68,68,86,68,28,18
-38,-56,-18,47,-10,-37,66,67,87,67,29,18
-38,-53,-15,45,-11,-34,63,67,87,67,29,15
-39,-50,-11,44,-14,-30,60,68,86,68,28,11
-39,-48,-9,43,-15,-28,58,68,86,68,28,9
-37,-47,-10,42,-13,-28,57,66,87,67,29,8
-34,-47,-13,40,-10,-30,57,63,86,67,29,9
-31,-47,-16,39,-7,-31,58,60,87,68,28,8
-29,-47,-18,38,-5,-32,58,58,87,68,28,8
-28,-49,-21,38,-3,-35,57,57,86,66,29,11
-28,-52,-24,40,-2,-38,57,57,86,63,29,17
-29,-55,-26,42,-1,-40,58,58,87,60,28,23
-29,-57,-28,43,0,-42,58,58,87,58,28,28
-27,-58,-31,42,2,-44,57,57,84,57,29,29
-24,-58,-34,41,5,-46,57,57,79,57,29,29
-21,-58,-37,39,8,-47,58,58,73,58,28,28
-19,-58,-39,38,10,-48,58,58,68,58,28,28
-18,-56,-38,37,10,-47,56,56,67,57,29,29
-18,-53,-35,35,8,-44,53,53,67,57,29,29
-19,-50,-31,34,6,-40,51,50,67,57,28,28
-19,-48,-29,33,5,-38,48,48,67,57,28,28
-16,-47,-31,31,7,-39,46,47,69,58,30,30
-10,-47,-37,28,13,-42,43,47,72,58,33,33
-5,-47,-42,26,18,-44,41,47,75,57,36,36
0,-47,-47,23,23,-47,39,47,77,57,38,38
1,-49,-50,24,25,-49,38,49,78,59,39,39
3,-52,-55,24,29,-53,38,52,78,62,39,39
5,-55,-60,25,32,-57,39,54,77,65,38,38
8,-57,-65,24,36,-61,39,57,77,67,38,38
10,-58,-68,24,39,-63,38,61,79,68,39,40
13,-57,-70,22,41,-63,39,66,81,68,39,42
15,-58,-73,21,44,-65,38,72,83,67,38,44
18,-58,-76,20,47,-67,38,76,86,67,38,47
21,-55,-76,17,48,-65,39,79,88,70,41,49
27,-49,-76,11,51,-62,39,81,91,76,46,52
33,-43,-76,5,54,-59,38,83,93,82,52,54
38,-39,-77,0,57,-58,38,85,96,86,56,57
39,-38,-77,0,58,-57,42,90,98,87,60,59
39,-38,-77,0,58,-57,50,95,101,87,62,62
38,-39,-77,0,57,-58,58,101,103,86,64,64
38,-39,-77,0,57,-58,65,105,106,86,67,67
39,-38,-77,0,58,-57,75,109,110,89,69,69
39,-38,-77,0,58,-57,88,111,115,95,72,72
38,-39,-77,0,57,-58,102,114,120,101,75,75
38,-39,-77,0,57,-58,114,116,125,106,77,77
40,-37,-77,-1,58,-57,121,117,126,107,78,78
42,-34,-76,-4,59,-55,124,116,126,107,78,78
44,-31,-75,-6,59,-53,129,117,125,107,78,77
47,-29,-76,-9,61,-52,135,117,125,107,78,77
49,-28,-77,-10,63,-52,136,114,125,105,76,78
52,-28,-80,-12,66,-54,135,108,125,102,73,77
54,-28,-82,-13,68,-55,139,104,126,99,70,78
57,-28,-85,-14,71,-56,138,99,126,97,68,78
60,-30,-90,-15,75,-60,121,89,123,96,67,77
66,-33,-99,-16,82,-66,91,76,118,96,67,77
72,-36,-108,-18,90,-72,61,64,114,98,68,78
77,-38,-115,-19,96,-76,36,52,109,98,68,78
78,-39,-117,-19,97,-78,11,35,98,90,64,75
78,-39,-117,-19,97,-78,-15,15,83,77,55,69
77,-38,-115,-19,96,-76,-46,-7,65,62,46,63
77,-38,-115,-19,96,-76,-73,-25,50,50,40,58
78,-39,-117,-19,97,-78,-82,-32,45,46,37,57
81,-39,-120,-21,100,-79,-79,-29,47,47,38,57
84,-38,-122,-23,103,-80,-77,-28,48,48,39,57
86,-38,-124,-24,105,-81,-78,-28,48,47,38,57
87,-39,-126,-24,106,-82,-75,-29,47,49,39,60
87,-39,-126,-24,106,-82,-69,-29,47,52,42,66
86,-38,-124,-24,105,-81,-63,-28,48,55,45,72
86,-38,-124,-24,105,-81,-58,-28,48,57,47,77
86,-39,-125,-23,105,-82,-57,-29,46,58,48,78
86,-42,-128,-22,107,-85,-57,-29,43,58,48,78
87,-45,-132,-21,109,-88,-58,-28,41,57,47,78
87,-47,-134,-20,110,-90,-58,-28,39,57,47,78
85,-48,-133,-18,109,-90,-57,-30,37,58,48,76
82,-47,-129,-17,105,-88,-57,-33,34,58,48,73
80,-48,-128,-16,104,-88,-58,-36,31,57,47,70
78,-48,-126,-15,102,-87,-58,-38,29,57,47,68
77,-45,-122,-16,99,-83,-56,-39,28,58,49,67
77,-40,-117,-18,97,-78,-53,-39,28,57,52,67
78,-34,-112,-22,95,-73,-51,-38,29,58,55,68
78,-29,-107,-24,92,-68,-48,-38,29,58,57,68
75,-28,-103,-23,89,-65,-46,-39,28,57,58,67
69,-28,-97,-20,83,-62,-43,-39,28,57,57,67
64,-28,-92,-18,78,-60,-41,-38,29,58,58,68
59,-28,-87,-15,73,-57,-39,-38,29,58,58,68
54,-31,-85,-11,69,-58,-37,-39,28,57,55,66
49,-37,-86,-6,67,-61,-34,-39,28,57,49,63
44,-42,-86,-1,65,-64,-32,-38,29,58,44,61
40,-47,-87,3,63,-67,-29,-38,29,58,39,58
37,-49,-86,6,61,-67,-27,-38,27,55,37,56
34,-52,-86,9,60,-69,-24,-38,24,49,34,53
32,-54,-86,11,59,-70,-21,-39,21,43,32,50
29,-57,-86,14,57,-71,-19,-39,19,39,29,48
28,-58,-86,15,57,-72,-18,-38,18,38,28,47
28,-58,-86,15,57,-72,-18,-38,18,38,28,47
29,-57,-86,14,57,-71,-19,-39,19,39,29,48
29,-57,-86,14,57,-71,-19,-39,19,39,29,48
29,-58,-87,14,58,-72,-18,-38,18,38,28,47
29,-58,-87,14,58,-72,-18,-38,18,38,28,47
28,-57,-85,14,56,-71,-19,-39,19,39,29,48
28,-57,-85,14,56,-71,-19,-39,19,39,29,48
30,-58,-88,14,59,-73,-18,-37,18,38,28,47
33,-58,-91,12,62,-74,-18,-34,18,38,28,47
36,-57,-93,10,64,-75,-18,-31,19,39,29,48
38,-57,-95,9,66,-76,-18,-29,19,39,29,48
39,-58,-97,9,68,-77,-19,-28,18,39,29,47
39,-58,-97,9,68,-77,-19,-28,18,39,29,47
38,-57,-95,9,66,-76,-18,-29,19,38,28,48
38,-57,-95,9,66,-76,-18,-29,19,38,28,48
39,-58,-97,9,68,-77,-19,-28,18,39,29,47
39,-58,-97,9,68,-77,-19,-29,18,39,29,47
38,-57,-95,9,66,-76,-18,-28,19,38,28,48
39,-57,-96,9,67,-76,-18,-28,19,38,28,48
38,-58,-96,10,67,-77,-19,-29,18,39,29,47
38,-58,-96,10,67,-77,-19,-29,18,39,29,47
39,-57,-96,9,67,-76,-16,-27,19,38,28,47
39,-57,-96,9,67,-76,-10,-24,19,38,28,47
38,-59,-97,10,67,-78,-5,-23,18,40,30,48
38,-62,-100,12,69,-81,-3,-23,18,42,33,48
40,-63,-103,11,71,-83,-6,-24,20,43,34,47
42,-63,-105,10,73,-84,-12,-24,23,43,34,47
43,-63,-106,10,74,-84,-17,-23,26,42,33,48
43,-63,-106,10,74,-84,-19,-23,28,42,33,48
42,-61,-103,9,72,-82,-16,-25,29,45,34,47
42,-58,-100,8,71,-79,-10,-28,29,47,33,47
44,-56,-100,6,72,-78,-6,-30,28,46,34,48
47,-53,-100,3,73,-76,-2,-29,28,43,34,48
50,-50,-100,0,75,-75,6,-26,29,42,33,47
52,-48,-100,-2,76,-74,10,-20,29,43,33,47
53,-49,-102,-2,77,-75,-1,-16,27,41,35,48
53,-52,-105,0,79,-78,-20,-14,24,39,38,48
52,-53,-105,0,78,-79,-25,-13,23,38,38,47
52,-53,-105,0,78,-79,-17,-13,23,39,35,47
53,-53,-106,0,79,-79,-7,-14,24,37,31,48
53,-53,-106,0,79,-79,-1,-14,24,35,29,48
52,-51,-103,0,77,-77,3,-13,22,31,28,47
52,-48,-100,-2,76,-74,4,-13,19,29,28,47
53,-47,-100,-3,76,-73,0,-14,17,29,29,49
53,-47,-100,-3,76,-73,-7,-14,14,32,29,52
52,-47,-99,-2,75,-73,-8,-13,12,36,27,52
52,-47,-99,-2,75,-73,-5,-13,12,38,24,49
54,-49,-103,-2,78,-76,-3,-14,19,39,24,45
57,-52,-109,-2,83,-80,-3,-14,27,38,27,43
58,-53,-111,-2,84,-82,-4,-12,30,40,31,42
57,-53,-110,-2,83,-81,-4,-10,28,42,33,42
59,-53,-112,-3,85,-82,-2,-6,31,43,33,44
62,-53,-115,-4,88,-84,0,-1,36,43,33,47
64,-51,-115,-6,89,-83,1,3,43,42,36,48
67,-48,-115,-9,91,-81,3,8,47,42,42,47
69,-46,-115,-11,92,-80,3,9,47,45,43,49
71,-47,-118,-12,94,-82,3,9,44,47,40,52
76,-51,-127,-12,101,-89,5,8,40,46,36,53
80,-57,-137,-11,108,-97,8,8,38,43,33,53
84,-57,-141,-13,112,-99,8,11,41,45,35,52
86,-54,-140,-16,113,-97,5,17,46,51,41,52
88,-50,-138,-19,113,-94,1,22,51,55,47,54
91,-48,-139,-21,115,-93,0,27,56,57,52,57
92,-46,-138,-23,115,-92,3,32,63,59,53,59
91,-43,-134,-24,112,-88,11,37,70,62,52,62
93,-41,-134,-26,113,-87,18,43,76,64,54,65
95,-39,-134,-28,114,-86,22,50,80,66,57,67
99,-38,-137,-30,118,-87,28,58,85,71,58,68
101,-38,-139,-31,120,-88,35,65,90,76,58,67
102,-39,-141,-31,121,-90,46,73,94,80,57,69
102,-39,-141,-31,121,-90,59,80,96,81,57,72
101,-36,-137,-32,119,-86,71,83,98,82,60,73
101,-30,-131,-35,116,-80,86,82,100,82,66,73
101,-24,-125,-38,113,-74,105,82,106,81,70,72
101,-19,-120,-41,110,-69,122,82,111,81,72,73
102,-18,-120,-42,111,-69,127,79,110,82,73,72
102,-19,-121,-41,111,-70,125,74,104,82,72,72
101,-17,-118,-42,109,-67,129,70,96,81,73,74
101,-14,-115,-43,108,-64,132,65,88,81,73,77
104,-14,-118,-45,111,-66,121,56,83,82,71,78
110,-17,-127,-46,118,-72,102,46,82,82,68,78
116,-20,-136,-48,126,-78,89,37,82,81,66,76
121,-23,-144,-49,132,-83,79,27,82,79,63,73
122,-25,-147,-48,134,-86,52,13,78,74,61,72
122,-28,-150,-47,136,-89,10,-6,70,69,58,72
121,-29,-150,-46,135,-89,-34,-30,62,64,55,73
121,-29,-150,-46,135,-89,-70,-49,55,59,53,73
122,-28,-150,-47,136,-89,-88,-56,47,54,53,72
125,-28,-153,-48,139,-90,-94,-57,37,49,53,72
127,-30,-157,-48,142,-93,-104,-62,25,44,49,73
130,-33,-163,-48,146,-98,-115,-71,15,42,44,73
131,-34,-165,-48,148,-99,-116,-72,14,45,42,72
131,-34,-165,-48,148,-99,-109,-65,21,51,46,72
130,-32,-162,-49,146,-97,-102,-58,28,54,50,73
130,-29,-159,-50,144,-94,-98,-54,33,53,53,73
131,-28,-159,-51,145,-93,-93,-50,34,53,51,72
128,-25,-153,-51,140,-89,-85,-48,34,53,45,69
117,-17,-134,-50,125,-75,-71,-46,33,51,37,64
101,-4,-105,-48,103,-54,-56,-47,33,48,30,59
90,11,-79,-50,84,-34,-49,-50,34,46,28,55
84,28,-56,-56,70,-14,-51,-56,34,44,29,53
75,46,-29,-60,52,8,-57,-61,31,37,27,54
62,68,6,-65,28,37,-62,-76,4,24,24,62
47,102,55,-74,-4,78,-62,-121,-77,4,25,84
33,140,107,-86,-37,123,-61,-201,-226,-23,34,120
20,167,147,-93,-63,157,-68,-312,-439,-60,49,174
11,185,174,-98,-81,179,-77,-440,-709,-122,62,240
4,202,198,-103,-97,200,-74,-572,-1022,-228,58,313
-1,227,228,-113,-114,227,-73,-695,-1332,-364,40,398
-8,268,276,-130,-142,272,-99,-803,-1579,-499,18,500
-16,316,332,-150,-174,324,-145,-901,-1782,-635,-20,599
-23,356,379,-166,-201,367,-190,-1000,-2002,-794,-92,661
-28,391,419,-181,-223,405,-230,-1103,-2228,-964,-188,690
-29,436,465,-203,-247,450,-276,-1208,-2411,-1111,-278,711
-23,476,499,-226,-261,487,-334,-1323,-2564,-1227,-350,739
-5,480,485,-237,-245,482,-403,-1463,-2729,-1317,-404,780
25,434,409,-229,-192,421,-472,-1592,-2868,-1375,-434,829
71,338,267,-204,-98,302,-526,-1651,-2902,-1391,-440,870
124,214,90,-169,17,152,-572,-1674,-2881,-1412,-453,896
174,94,-80,-134,127,7,-632,-1738,-2920,-1513,-521,905
225,-36,-261,-94,243,-148,-690,-1814,-2977,-1650,-623,876
287,-212,-499,-37,393,-355,-711,-1809,-2919,-1715,-698,783
365,-412,-777,23,571,-594,-721,-1714,-2743,-1700,-737,637
463,-584,-1047,60,755,-815,-773,-1576,-2520,-1659,-761,471
565,-709,-1274,72,919,-991,-857,-1427,-2285,-1604,-777,323
646,-795,-1441,74,1043,-1118,-923,-1288,-2052,-1521,-780,230
699,-858,-1557,79,1128,-1207,-939,-1153,-1834,-1424,-779,150
730,-920,-1650,95,1190,-1285,-893,-1002,-1648,-1338,-786,-1
739,-976,-1715,118,1227,-1345,-800,-838,-1474,-1246,-794,-218
720,-1008,-1728,144,1224,-1368,-692,-677,-1279,-1115,-787,-438
676,-1005,-1681,164,1178,-1343,-588,-535,-1077,-962,-758,-596
614,-958,-1572,172,1093,-1265,-491,-428,-912,-834,-714,-635
541,-875,-1416,167,978,-1145,-403,-348,-778,-730,-652,-586
464,-773,-1237,154,850,-1005,-317,-279,-641,-619,-572,-529
383,-664,-1047,140,715,-855,-239,-219,-500,-497,-473,-478
297,-555,-852,129,574,-703,-182,-177,-375,-377,-363,-404
214,-450,-664,118,439,-557,-142,-148,-270,-266,-255,-312
144,-357,-501,106,322,-429,-106,-123,-177,-170,-165,-225
93,-281,-374,94,233,-327,-72,-93,-93,-87,-93,-154
64,-232,-296,84,180,-264,-44,-53,-16,-14,-32,-103
50,-200,-250,75,150,-225,-20,-8,53,46,19,-70
44,-167,-211,61,127,-189,-1,25,108,92,60,-53
40,-137,-177,48,108,-157,11,47,150,123,87,-48
36,-124,-160,44,98,-142,14,64,180,143,95,-48
34,-125,-159,45,96,-142,10,78,202,159,92,-48
34,-126,-160,46,97,-143,7,89,221,178,92,-46
34,-126,-160,46,97,-143,10,98,235,196,96,-43
32,-125,-157,46,94,-141,23,108,244,203,96,-44
29,-125,-154,48,91,-139,39,112,247,200,93,-50
29,-126,-155,48,92,-140,46,106,247,199,89,-60
29,-126,-155,48,92,-140,47,94,247,199,87,-70
26,-125,-151,49,88,-138,50,90,251,199,87,-75
20,-123,-143,51,81,-133,55,94,260,199,90,-74
15,-118,-133,51,74,-125,62,102,268,202,96,-67
13,-113,-126,50,69,-119,67,110,275,207,101,-59
15,-109,-124,47,69,-116,68,114,283,211,101,-56
18,-107,-125,44,71,-116,67,116,290,214,97,-57
19,-106,-125,43,72,-115,69,120,294,212,96,-59
19,-106,-125,43,72,-115,71,124,296,209,97,-61
18,-107,-125,44,71,-116,74,126,298,208,95,-66
18,-107,-125,44,71,-116,77,126,301,209,92,-71
18,-105,-123,43,70,-114,79,126,304,208,93,-75
18,-102,-120,42,69,-111,81,129,309,208,96,-77
19,-101,-120,41,69,-110,83,135,318,212,97,-76
19,-101,-120,41,69,-110,86,143,328,217,97,-73
17,-103,-120,43,68,-111,87,150,332,220,97,-71
14,-106,-120,46,67,-113,87,154,331,219,97,-72
13,-108,-121,47,67,-114,86,158,331,218,94,-75
13,-111,-124,49,68,-117,86,160,334,218,88,-80
13,-112,-125,49,69,-118,88,160,337,220,84,-85
13,-112,-125,49,69,-118,91,160,339,222,82,-90
15,-110,-125,47,70,-117,93,163,344,226,81,-94
17,-107,-124,45,70,-115,96,168,349,228,81,-96
21,-105,-126,42,73,-115,98,173,353,229,82,-97
23,-102,-125,39,74,-113,101,178,358,231,85,-97
24,-101,-125,38,74,-113,103,184,368,240,90,-95
24,-101,-125,38,74,-113,106,192,381,250,95,-92
23,-104,-127,40,75,-115,107,199,391,254,99,-91
24,-107,-131,41,77,-119,107,206,397,252,101,-91
23,-104,-127,40,75,-115,106,213,404,255,103,-92
23,-98,-121,37,72,-109,106,221,411,261,106,-92
25,-94,-119,34,72,-106,108,228,417,266,107,-91
28,-92,-120,32,74,-106,111,236,425,270,106,-91
30,-90,-120,30,75,-105,112,245,438,279,107,-92
33,-88,-121,27,77,-104,112,255,453,289,110,-92
35,-84,-119,24,77,-101,110,263,464,295,115,-91
38,-79,-117,20,77,-98,110,270,470,300,120,-91
39,-74,-113,17,76,-93,116,278,478,307,123,-92
39,-69,-108,15,73,-88,127,288,488,315,125,-92
38,-65,-103,13,70,-84,138,299,500,319,127,-90
38,-63,-101,12,69,-82,147,312,512,320,129,-87
39,-63,-102,12,70,-82,156,325,524,325,134,-86
39,-63,-102,12,70,-82,166,340,536,333,139,-86
39,-60,-99,10,69,-79,178,357,551,340,143,-87
39,-55,-94,8,66,-74,191,375,565,344,145,-87
38,-49,-87,5,62,-68,200,387,575,347,146,-84
38,-44,-82,3,60,-63,209,397,582,349,146,-79
39,-40,-79,0,59,-59,225,405,591,354,145,-77
39,-35,-74,-2,56,-54,240,412,602,359,145,-77
37,-29,-66,-4,51,-47,245,414,608,361,145,-78
35,-21,-56,-7,45,-38,240,413,612,361,145,-78
31,-14,-45,-8,38,-29,238,416,617,361,146,-77
29,-9,-38,-10,33,-23,236,419,622,361,146,-77
30,-10,-40,-10,35,-25,223,413,625,358,145,-78
33,-13,-46,-10,39,-29,198,400,624,352,142,-81
34,-12,-46,-11,40,-29,173,385,621,347,137,-83
34,-9,-43,-12,38,-26,148,370,616,343,132,-86
34,-10,-44,-12,39,-27,125,355,607,336,128,-88
34,-16,-50,-9,42,-33,97,337,595,326,123,-90
32,-22,-54,-5,43,-38,63,316,579,313,117,-95
29,-24,-53,-2,41,-38,33,299,564,300,109,-100
28,-22,-50,-3,39,-36,29,298,557,291,101,-102
28,-16,-44,-6,36,-30,38,309,556,284,94,-99
29,-7,-36,-11,32,-21,32,313,552,279,87,-92
29,1,-28,-15,28,-13,16,312,547,274,82,-84
27,7,-20,-17,23,-6,15,313,546,272,83,-78
24,12,-12,-18,18,0,29,319,549,272,89,-74
23,18,-5,-20,14,6,41,328,552,273,96,-70
24,26,2,-25,11,14,47,338,551,273,101,-65
22,32,10,-27,6,21,48,344,548,270,102,-57
19,37,18,-28,0,27,48,345,542,265,102,-50
17,43,26,-30,-4,34,48,346,537,259,100,-45
15,50,35,-32,-10,42,48,346,533,254,98,-43
10,56,46,-33,-18,51,46,343,525,250,93,-42
5,61,56,-33,-25,58,44,338,515,245,88,-40
2,67,65,-34,-31,66,41,332,504,239,84,-36
0,74,74,-37,-37,74,39,327,494,231,82,-30
-2,84,86,-41,-44,85,39,324,487,225,81,-25
-7,93,100,-43,-53,96,39,322,480,220,82,-20
-12,102,114,-45,-63,108,37,320,471,215,81,-14
-17,109,126,-46,-71,117,34,314,461,210,79,-6
-20,115,135,-47,-77,125,33,305,452,206,75,1
-22,120,142,-49,-82,131,34,294,445,201,73,7
-26,126,152,-50,-89,139,33,288,441,195,73,10
-32,133,165,-50,-98,149,30,284,436,187,73,12
-36,139,175,-51,-105,157,26,278,426,179,70,17
-41,143,184,-51,-112,163,24,270,410,172,65,26
-47,151,198,-52,-122,174,23,262,393,165,59,33
-55,159,214,-52,-134,186,23,255,379,158,54,38
-62,161,223,-49,-142,192,24,248,368,150,49,38
-66,157,223,-45,-144,190,23,241,359,139,44,35
-69,154,223,-42,-146,188,24,234,346,128,39,31
-72,154,226,-41,-149,190,24,226,331,119,34,28
-74,158,232,-42,-153,195,22,218,317,113,33,30
-73,163,236,-45,-154,199,19,211,305,108,34,36
-69,165,234,-48,-151,199,18,204,294,102,32,43
-64,165,229,-50,-146,197,19,197,282,94,29,50
-62,164,226,-51,-144,195,18,188,269,87,28,56
-63,164,227,-50,-145,195,15,178,257,83,28,61
-61,165,226,-52,-143,195,11,169,244,80,29,64
-58,165,223,-53,-140,194,5,163,232,78,29,67
-57,164,221,-53,-139,192,0,155,222,77,28,69
-58,164,222,-53,-140,193,-3,148,215,74,28,72
-56,165,221,-54,-138,193,-3,142,211,68,30,73
-53,163,216,-55,-134,189,0,138,206,60,33,72
-53,154,207,-50,-130,180,1,129,196,54,34,74
-57,140,197,-41,-127,168,3,119,180,49,34,76
-58,129,187,-35,-122,158,6,114,165,45,32,79
-58,123,181,-32,-119,152,8,112,151,40,29,79
-56,120,176,-32,-116,148,8,109,136,35,28,73
-53,118,171,-32,-112,144,4,103,121,30,29,65
-51,113,164,-31,-107,138,2,99,109,25,27,60
-49,104,153,-27,-101,128,3,94,100,20,24,58
-44,96,140,-26,-92,118,5,86,91,16,24,55
-40,89,129,-24,-84,109,8,76,81,14,24,49
-38,82,120,-22,-79,101,9,67,71,13,21,44
-38,75,113,-18,-75,94,8,60,61,14,15,40
-38,69,107,-15,-72,88,9,51,52,12,12,35
-35,64,99,-14,-67,81,12,41,45,10,13,30
-31,59,90,-14,-60,74,16,34,39,7,14,26
-29,51,80,-11,-54,65,18,30,35,4,14,24
-28,41,69,-6,-48,55,17,26,31,2,10,22
-29,31,60,-1,-44,45,14,20,26,0,5,20
-27,25,52,1,-39,38,13,15,18,0,2,15
-25,21,46,2,-35,33,13,10,11,0,3,10
-22,13,35,4,-28,24,14,6,6,0,4,6
-20,3,23,8,-21,13,14,4,4,0,4,4
-16,-4,12,10,-14,4,13,3,2,0,4,2
-14,-8,6,11,-10,-1,13,3,0,-3,4,0
-15,-10,5,12,-10,-2,15,4,-1,-5,2,0
-18,-12,6,15,-12,-3,17,4,-3,-8,0,-2
-19,-17,2,18,-10,-7,20,3,-4,-9,0,-7
-19,-22,-3,20,-8,-12,23,3,-4,-9,0,-12
-18,-25,-7,21,-5,-16,25,5,-3,-8,0,-16
-18,-24,-6,21,-6,-15,28,7,0,-8,0,-18
-19,-23,-4,21,-7,-13,29,11,1,-9,1,-20
-19,-23,-4,21,-7,-13,29,13,3,-9,3,-23
-17,-25,-8,21,-4,-16,28,14,3,-7,3,-25
-14,-27,-13,20,0,-20,28,13,0,-4,0,-28
-13,-31,-18,22,2,-24,30,15,0,-3,0,-30
-13,-33,-20,23,3,-26,33,18,0,-4,0,-33
-13,-34,-21,23,4,-27,35,19,1,-2,0,-34
-13,-33,-20,23,3,-26,37,19,3,0,0,-33
-15,-35,-20,25,2,-27,41,18,5,0,0,-35
-18,-38,-20,28,1,-29,46,18,8,0,0,-38
-18,-39,-21,28,1,-30,49,22,10,0,0,-39
-15,-39,-24,27,4,-31,48,30,13,3,0,-39
-12,-39,-27,25,7,-33,46,39,15,5,0,-38
-9,-39,-30,24,10,-34,46,46,17,8,0,-38
-7,-37,-30,22,11,-33,51,50,21,10,0,-39
-4,-34,-30,19,13,-32,57,52,26,13,0,-39
-2,-33,-31,17,14,-32,57,55,33,15,0,-37
0,-33,-33,16,16,-33,53,60,40,17,2,-34
1,-34,-35,16,18,-34,52,67,47,21,6,-33
3,-33,-36,15,19,-34,53,75,55,27,12,-34
4,-34,-38,15,21,-36,51,82,62,31,17,-32
4,-34,-38,15,21,-36,48,89,70,36,22,-29
3,-31,-34,14,18,-32,49,95,77,43,27,-28
3,-26,-29,11,16,-27,52,100,84,51,32,-28
5,-20,-25,7,15,-22,51,105,91,54,37,-29
7,-15,-22,4,14,-18,50,113,98,56,42,-29
10,-11,-21,0,15,-16,62,125,108,62,43,-28
13,-9,-22,-2,17,-15,82,140,118,70,42,-28
14,-9,-23,-2,18,-16,90,154,126,76,45,-29
14,-9,-23,-2,18,-16,90,166,133,80,51,-29
12,-6,-18,-3,15,-12,97,176,142,86,55,-27
10,-1,-11,-4,10,-6,111,186,156,94,57,-24
7,0,-7,-3,7,-3,125,197,169,100,59,-22
4,2,-2,-3,3,0,136,206,181,105,61,-20
3,10,7,-6,-2,8,148,210,190,109,65,-16
3,23,20,-13,-8,21,158,209,197,114,71,-11
4,37,33,-20,-14,35,163,209,205,122,75,-4
4,46,42,-25,-19,44,162,209,213,129,78,0
3,49,46,-26,-21,47,156,206,212,131,76,-1
3,48,45,-25,-21,46,148,201,205,127,73,-7
4,48,44,-26,-20,46,144,198,203,122,73,-10
4,48,44,-26,-20,46,137,194,204,118,73,-12
3,45,42,-24,-19,43,112,178,199,114,68,-17
3,37,34,-20,-15,35,73,151,189,109,57,-26
5,27,22,-16,-8,24,32,121,178,102,44,-33
8,16,8,-12,0,12,0,94,168,94,35,-37
9,10,1,-9,4,5,-19,77,157,87,34,-41
9,5,-4,-7,6,0,-29,67,142,80,38,-45
7,0,-7,-3,7,-3,-44,52,122,73,36,-52
4,-7,-11,1,7,-9,-60,37,102,65,27,-57
4,-10,-14,3,9,-12,-62,32,92,58,19,-56
7,-10,-17,1,12,-13,-52,39,94,53,14,-50
11,-6,-17,-2,14,-11,-42,48,100,52,13,-44
13,-1,-14,-6,13,-7,-36,55,105,53,13,-39
14,0,-14,-7,14,-7,-29,60,107,51,14,-38
14,0,-14,-7,14,-7,-21,62,107,48,14,-38
12,0,-12,-6,12,-6,-14,63,107,47,12,-38
10,0,-10,-5,10,-5,-9,63,107,47,10,-38
6,0,-6,-3,6,-3,-9,62,104,48,7,-40
4,0,-4,-2,4,-2,-12,62,98,47,4,-45
4,0,-4,-2,4,-2,-15,63,94,48,2,-52
4,0,-4,-2,4,-2,-15,63,92,48,0,-57
2,0,-2,-1,2,-1,-11,61,90,46,0,-57
-2,0,2,1,-2,1,-5,59,88,43,0,-53
-7,0,7,3,-7,3,-2,56,85,42,0,-52
-12,0,12,6,-12,6,-1,53,82,42,3,-53
-17,0,17,8,-17,8,2,52,81,43,5,-52
-22,3,25,9,-23,14,7,52,81,43,7,-49
-27,5,32,11,-29,18,9,53,82,42,10,-46
-32,8,40,12,-36,24,8,52,82,43,13,-43
-36,10,46,13,-41,28,10,53,81,42,14,-41
-41,13,54,14,-47,33,13,53,79,42,13,-40
-46,14,60,16,-53,37,13,51,76,43,14,-36
-51,14,65,18,-58,39,12,49,73,43,14,-34
-55,11,66,22,-60,38,18,46,72,40,11,-35
-57,6,63,25,-60,34,27,43,73,35,6,-40
-59,0,59,29,-59,29,28,41,71,31,0,-46
-62,-3,59,32,-60,28,25,39,69,29,-3,-51
-64,-3,61,33,-62,29,24,38,66,29,-4,-54
-67,0,67,33,-67,33,27,38,64,29,-4,-57
-69,0,69,34,-69,34,31,40,60,26,-3,-59
-72,0,72,36,-72,36,33,40,55,21,-3,-62
-73,0,73,36,-73,36,32,34,49,16,-5,-63
-73,-3,70,38,-71,33,29,26,44,14,-8,-63
-72,-5,67,38,-69,31,28,22,41,14,-8,-63
-72,-8,64,40,-68,28,29,23,39,14,-5,-63
-73,-9,64,41,-68,27,27,24,37,11,-2,-61
-73,-9,64,41,-68,27,25,24,34,5,-3,-58
-71,-8,63,39,-67,27,22,23,33,3,-5,-56
-71,-5,66,38,-68,30,22,24,33,3,-11,-57
-79,0,79,39,-79,39,28,23,34,3,-19,-60
-92,12,104,40,-98,58,36,21,34,0,-27,-66
-102,31,133,35,-117,82,41,13,33,-1,-30,-69
-109,53,162,28,-135,107,43,1,31,-2,-29,-69
-118,78,196,20,-157,137,41,-14,20,-6,-29,-64
-130,105,235,12,-182,170,39,-47,-21,-19,-32,-54
-144,136,280,4,-212,208,38,-116,-130,-51,-36,-33
-157,166,323,-4,-240,244,35,-224,-314,-100,-35,1
-166,185,351,-9,-258,268,29,-360,-563,-162,-28,55
-172,196,368,-12,-270,282,20,-511,-868,-243,-19,127
-178,208,386,-15,-282,297,17,-667,-1218,-360,-24,206
-183,231,414,-24,-298,322,9,-816,-1564,-502,-43,294
-187,270,457,-41,-322,363,-25,-948,-1838,-642,-70,397
-189,315,504,-63,-346,409,-81,-1065,-2050,-782,-112,497
-189,351,540,-81,-364,445,-133,-1175,-2263,-942,-186,560
-186,378,564,-96,-375,471,-180,-1285,-2481,-1111,-281,587
-181,413,594,-116,-387,503,-235,-1398,-2669,-1259,-370,608
-168,446,614,-139,-391,530,-305,-1526,-2834,-1376,-444,638
-142,450,592,-154,-367,521,-392,-1678,-3009,-1472,-503,682
-100,408,508,-154,-304,458,-482,-1818,-3151,-1538,-543,736
-47,316,363,-134,-205,339,-553,-1883,-3172,-1558,-554,786
11,192,181,-101,-85,186,-613,-1900,-3118,-1573,-565,824
71,71,0,-71,35,35,-688,-1949,-3120,-1658,-623,842
134,-54,-188,-40,161,-121,-767,-2012,-3146,-1775,-713,822
209,-221,-430,6,319,-325,-814,-1997,-3057,-1817,-770,742
298,-409,-707,55,502,-558,-837,-1888,-2840,-1773,-784,611
400,-560,-960,80,680,-760,-876,-1720,-2575,-1701,-783,461
501,-660,-1161,79,831,-910,-926,-1534,-2309,-1622,-780,326
584,-724,-1308,70,946,-1016,-951,-1366,-2067,-1530,-778,237
639,-771,-1410,66,1024,-1090,-929,-1215,-1854,-1431,-779,157
667,-824,-1491,78,1079,-1157,-853,-1052,-1665,-1337,-781,6
668,-880,-1548,106,1108,-1214,-740,-876,-1480,-1236,-782,-215
645,-914,-1559,134,1102,-1236,-628,-705,-1272,-1100,-772,-453
598,-913,-1511,157,1054,-1212,-528,-555,-1057,-943,-747,-635
530,-870,-1400,170,965,-1135,-433,-439,-881,-808,-700,-686
447,-791,-1238,172,842,-1014,-341,-351,-742,-699,-631,-632
358,-693,-1051,167,704,-872,-250,-273,-606,-586,-543,-567
268,-586,-854,159,561,-720,-169,-205,-470,-467,-444,-512
178,-479,-657,150,417,-568,-116,-159,-356,-356,-340,-439
92,-377,-469,142,280,-423,-84,-131,-262,-258,-242,-347
19,-285,-304,133,161,-294,-51,-103,-174,-169,-158,-257
-34,-211,-177,122,71,-194,-16,-68,-88,-90,-90,-183
-61,-164,-103,112,21,-133,12,-25,-12,-21,-35,-131
-67,-135,-68,101,0,-101,32,19,51,34,8,-100
-67,-107,-40,87,-13,-73,50,54,104,79,47,-82
-67,-80,-13,73,-27,-46,64,79,146,112,75,-73
-68,-67,1,67,-34,-33,69,98,182,134,85,-73
-68,-67,1,67,-34,-33,65,115,210,149,82,-77
-65,-68,-3,66,-31,-35,60,131,230,167,83,-77
-60,-68,-8,64,-26,-38,61,146,244,185,89,-74
-54,-68,-14,61,-20,-41,67,157,252,192,94,-71
-49,-68,-19,58,-15,-43,76,161,257,190,96,-72
-44,-66,-22,55,-11,-44,78,156,258,191,98,-75
-40,-64,-24,52,-8,-44,74,147,261,197,100,-80
-38,-61,-23,49,-7,-42,71,147,267,202,104,-84
-39,-58,-19,48,-10,-38,72,156,278,206,109,-83
-38,-56,-18,47,-10,-37,74,168,291,213,116,-76
-35,-54,-19,44,-8,-36,77,180,305,224,123,-66
-31,-51,-20,41,-5,-35,79,191,322,236,128,-59
-29,-48,-19,38,-5,-33,84,200,336,245,130,-57
-29,-47,-18,38,-5,-32,93,209,345,250,132,-59
-32,-47,-15,39,-8,-31,106,220,349,252,135,-61
-35,-48,-13,41,-11,-30,119,230,354,255,135,-64
-38,-49,-11,43,-13,-30,131,240,362,260,134,-67
-39,-44,-5,41,-17,-24,143,249,373,266,140,-68
-39,-36,3,37,-21,-16,156,259,388,274,152,-68
-38,-30,8,34,-23,-11,168,269,407,284,160,-67
-38,-25,13,31,-25,-6,177,279,424,294,163,-64
-40,-21,19,30,-29,-1,181,286,431,299,167,-58
-42,-16,26,29,-34,5,183,290,429,301,169,-50
-43,-8,35,25,-39,13,189,294,430,303,169,-45
-43,-1,42,22,-42,20,195,297,436,306,166,-46
-41,-1,40,21,-40,19,189,293,441,308,162,-52
-36,-6,30,21,-33,12,175,285,445,310,161,-60
-30,-11,19,20,-24,4,163,282,452,315,161,-65
-25,-13,12,19,-18,0,152,280,458,318,162,-66
-22,-15,7,18,-14,-4,130,268,452,310,156,-71
-23,-20,3,21,-13,-8,96,244,435,296,145,-78
-25,-29,-4,27,-10,-16,59,216,420,287,133,-86
-28,-39,-11,33,-8,-25,27,191,411,284,124,-91
-30,-46,-16,38,-7,-31,10,177,405,279,120,-92
-32,-47,-15,39,-8,-31,3,172,398,271,121,-91
-36,-48,-12,42,-12,-30,-7,165,388,262,122,-94
-38,-48,-10,43,-14,-29,-18,160,380,254,122,-99
-38,-47,-9,42,-14,-28,-14,166,382,253,120,-104
-35,-44,-9,39,-13,-26,1,182,393,259,117,-106
-32,-40,-8,36,-12,-24,18,200,410,270,116,-106
-29,-35,-6,32,-11,-20,30,215,425,280,116,-106
-28,-32,-4,30,-12,-18,37,222,432,284,118,-107
-28,-29,-1,28,-13,-15,41,223,433,282,121,-110
-29,-27,2,28,-15,-12,46,225,436,285,122,-113
-32,-24,8,28,-20,-8,51,227,444,290,122,-116
-36,-23,13,29,-24,-5,53,230,453,291,120,-117
-41,-23,18,32,-29,-2,53,232,460,287,118,-117
-44,-24,20,34,-32,-2,53,237,465,287,115,-116
-46,-24,22,35,-34,-1,56,244,470,290,113,-116
-50,-21,29,35,-39,4,61,254,478,293,110,-117
-55,-16,39,35,-47,11,66,264,488,296,107,-117
-62,-11,51,36,-56,20,69,273,496,298,106,-116
-70,-6,64,38,-67,29,71,280,503,300,106,-116
-77,0,77,38,-77,38,76,287,512,304,108,-117
-84,9,93,37,-88,51,84,294,522,310,110,-118
-91,21,112,35,-101,66,89,300,533,314,113,-113
-98,34,132,32,-115,83,91,304,542,316,116,-107
-108,43,151,32,-129,97,93,311,549,318,116,-108
-118,47,165,35,-141,106,95,319,554,321,116,-114
-126,49,175,38,-150,112,98,325,557,322,118,-119
-133,51,184,41,-158,117,100,329,560,322,121,-121
-140,56,196,42,-168,126,104,334,562,319,120,-122
-147,61,208,43,-177,134,109,339,565,314,114,-122
-155,64,219,45,-187,141,115,342,566,308,108,-121
-162,66,228,48,-195,147,120,344,566,303,103,-121
-168,71,239,48,-203,155,122,348,564,300,100,-122
-173,79,252,47,-212,165,124,353,562,298,98,-125
-175,85,260,45,-217,172,131,359,559,293,93,-127
-175,92,267,41,-221,179,137,365,557,285,85,-127
-174,105,279,34,-226,192,127,365,553,279,77,-122
-174,120,294,27,-234,207,107,362,548,275,70,-114
-176,131,307,22,-241,219,98,359,542,269,64,-108
-179,138,317,20,-248,227,100,357,534,261,59,-103
-180,145,325,17,-252,235,101,352,525,253,55,-99
-180,153,333,13,-256,243,98,344,515,246,53,-94
-179,159,338,10,-258,248,95,337,508,240,52,-86
-180,166,346,7,-263,256,92,332,503,236,53,-76
-179,177,356,1,-267,266,90,329,499,229,52,-69
-179,190,369,-5,-274,279,88,327,494,222,49,-64
-181,200,381,-9,-281,290,84,323,487,214,45,-59
-184,206,390,-11,-287,298,80,319,477,206,41,-51
-185,213,398,-14,-291,305,74,312,465,199,35,-42
-185,220,405,-17,-295,312,69,305,452,192,30,-32
-184,228,412,-22,-298,320,66,297,441,185,27,-24
-184,236,420,-26,-302,328,64,289,432,178,24,-16
-185,242,427,-28,-306,334,60,283,423,169,22,-9
-185,246,431,-30,-308,338,54,276,413,159,20,0
-183,250,433,-33,-308,341,51,267,402,151,17,10
-181,255,436,-37,-308,345,49,256,389,143,14,20
-178,261,439,-41,-308,350,45,248,377,136,13,27
-176,266,442,-45,-309,354,40,242,365,128,13,31
-172,269,441,-48,-306,355,36,233,353,122,14,38
-167,271,438,-52,-302,354,34,222,340,118,14,48
-160,276,436,-58,-298,356,33,213,328,114,13,58
-153,282,435,-64,-294,358,33,206,316,109,13,65
-147,280,427,-66,-287,353,33,200,304,103,14,71
-142,271,413,-64,-277,342,33,193,292,99,14,75
-139,265,404,-63,-271,334,34,185,278,93,13,81
-136,263,399,-63,-267,331,34,177,263,88,13,85
-135,261,396,-63,-265,328,32,171,250,84,14,87
-132,256,388,-62,-260,322,29,166,239,80,14,87
-127,246,373,-59,-250,309,28,161,225,73,12,87
-119,233,352,-57,-235,292,29,154,209,65,9,87
-114,222,336,-54,-225,279,28,145,196,59,8,85
-112,212,324,-50,-218,268,25,134,184,54,8,83
-110,203,313,-46,-211,258,20,126,173,51,10,80
-107,193,300,-43,-203,246,15,119,160,48,13,78
-105,183,288,-39,-196,235,12,112,148,46,14,76
-103,173,276,-35,-189,224,12,104,138,44,14,74
-98,164,262,-33,-180,213,16,99,133,40,13,70
-93,155,248,-31,-170,201,22,95,129,35,13,64
-91,144,235,-26,-163,189,24,85,119,32,14,61
-92,131,223,-19,-157,177,24,71,103,30,14,59
-90,118,208,-14,-149,163,24,65,87,26,12,55
-84,106,190,-11,-137,148,24,63,73,20,9,50
-78,96,174,-9,-126,135,22,60,60,16,8,43
-74,89,163,-7,-118,126,19,54,50,14,8,36
-71,82,153,-5,-112,117,19,52,46,12,8,32
-69,75,144,-3,-106,109,22,53,47,10,8,30
-65,68,133,-1,-99,100,25,50,46,6,10,26
-59,61,120,-1,-89,90,27,44,41,4,13,20
-56,53,109,1,-82,81,31,42,35,5,12,16
-54,45,99,4,-76,72,37,42,30,8,6,14
-50,39,89,5,-69,64,41,42,26,9,2,12
-44,35,79,4,-61,57,42,39,24,8,2,10
-41,32,73,4,-57,52,42,39,24,10,6,7
-39,30,69,4,-54,49,40,41,27,13,12,4
-38,27,65,5,-51,46,36,44,31,14,14,3
-35,24,59,5,-47,41,30,47,33,14,14,1
-31,23,54,4,-42,38,26,48,32,14,13,-2
-25,24,49,0,-37,36,24,48,29,17,14,-7
-22,22,44,0,-33,33,22,48,30,22,13,-9
-19,19,38,0,-28,28,22,51,35,27,13,-9
-17,19,36,-1,-26,27,27,56,44,29,16,-8
-14,22,36,-4,-25,29,35,64,54,28,21,-8
-13,24,37,-5,-25,30,42,71,63,30,26,-10
-13,24,37,-5,-25,30,49,78,70,36,28,-13
-13,24,37,-5,-25,30,59,87,75,42,30,-13
-13,27,40,-7,-26,33,74,100,79,49,32,-9
-15,32,47,-8,-31,39,93,116,85,57,35,-8
-18,37,55,-9,-36,46,111,131,93,65,38,-9
-19,40,59,-10,-39,49,122,139,102,71,40,-8
-19,42,61,-11,-40,51,128,140,112,76,42,-5
-19,44,63,-12,-41,53,135,141,123,81,44,-2
-19,46,65,-13,-42,55,143,144,133,85,47,0
-18,49,67,-15,-42,58,148,147,137,87,48,0
-15,52,67,-18,-41,59,148,147,137,87,48,0
-12,53,65,-20,-38,59,140,142,134,86,47,0
-9,53,62,-22,-35,57,129,134,131,86,47,0
-8,52,60,-22,-34,56,123,127,130,88,49,0
-9,52,61,-21,-35,56,117,121,130,90,51,-3
-7,54,61,-23,-34,57,98,108,132,93,54,-5
-4,54,58,-25,-31,56,66,90,133,93,54,-7
-3,47,50,-22,-26,48,34,70,124,86,49,-12
-3,34,37,-15,-20,35,7,49,106,73,38,-20
-4,21,25,-8,-14,23,-19,22,83,60,26,-29
-4,11,15,-3,-9,13,-41,-2,63,51,16,-37
-3,7,10,-2,-6,8,-52,-13,54,44,12,-40
-1,8,9,-3,-5,8,-53,-11,56,40,13,-39
1,9,8,-5,-3,8,-52,-6,58,36,13,-39
3,9,6,-6,-1,7,-55,-1,58,34,13,-39
4,8,4,-6,0,6,-64,2,57,35,16,-37
4,8,4,-6,0,6,-72,7,57,39,22,-31
3,10,7,-6,-2,8,-67,11,59,47,25,-24
3,13,10,-8,-3,11,-50,13,61,55,24,-19
3,12,9,-7,-3,10,-35,14,64,59,23,-20
3,6,3,-4,0,4,-26,14,67,58,23,-26
4,1,-3,-2,3,-1,-19,13,68,57,25,-32
4,0,-4,-2,4,-2,-14,13,68,58,28,-38
3,0,-3,-1,3,-1,-16,13,65,57,29,-39
0,0,0,0,0,0,-22,13,60,54,29,-38
-1,0,1,0,-1,0,-22,14,54,51,27,-41
-2,0,2,1,-2,1,-16,14,52,48,24,-46
-6,0,6,3,-6,3,-12,13,56,47,23,-49
-11,2,13,4,-12,7,-13,13,65,47,23,-48
-18,7,25,5,-21,16,-14,15,69,49,24,-46
-26,12,38,7,-32,25,-14,18,68,51,24,-44
-31,14,45,8,-38,29,-12,19,67,54,23,-41
-33,14,47,9,-40,30,-10,19,67,56,22,-39
-34,14,48,10,-41,31,-7,19,68,59,27,-38
-37,17,54,10,-45,35,-4,19,68,62,32,-38
-42,20,62,11,-52,41,-3,18,65,63,32,-38
-49,20,69,14,-59,44,-1,15,60,64,26,-38
-56,16,72,20,-64,44,2,11,54,60,20,-39
-61,11,72,25,-66,41,6,9,49,54,15,-41
-64,6,70,29,-67,38,11,9,46,51,12,-45
-67,4,71,31,-69,37,16,12,43,49,9,-51
-69,2,71,33,-70,36,22,16,41,45,7,-54
-71,0,71,35,-71,35,27,18,39,40,5,-57
-74,0,74,37,-74,37,30,17,39,38,2,-59
-77,0,77,38,-77,38,29,14,39,38,0,-61
-78,0,78,39,-78,39,27,13,37,39,0,-64
-78,0,78,39,-78,39,25,14,34,38,0,-67
-76,0,76,38,-76,38,21,13,33,39,0,-68
-73,0,73,36,-73,36,19,10,34,39,0,-68
-72,0,72,36,-72,36,20,7,33,37,0,-66
-72,0,72,36,-72,36,23,4,30,34,0,-64
-73,0,73,36,-73,36,23,2,27,33,1,-61
-73,0,73,36,-73,36,20,0,24,33,3,-59
-72,0,72,36,-72,36,18,-1,23,34,4,-56
-72,0,72,36,-72,36,19,-3,23,34,4,-53
-73,-1,72,37,-72,35,17,-4,24,33,3,-52
-73,-3,70,38,-71,33,14,-4,24,34,3,-53
-72,-4,68,38,-70,32,13,-3,22,33,4,-52
-73,-4,69,38,-71,32,14,-3,20,33,4,-49
-72,-3,69,37,-70,33,13,-4,17,34,4,-46
-72,-3,69,37,-70,33,13,-4,14,34,4,-43
-73,-3,70,38,-71,33,16,-3,13,32,3,-42
-73,-3,70,38,-71,33,22,-3,13,29,3,-42
-72,-4,68,38,-70,32,23,-4,14,28,4,-42
-72,-4,68,38,-70,32,20,-7,13,28,4,-42
-73,-3,70,38,-71,33,18,-11,14,29,3,-43
-73,-1,72,37,-72,35,18,-13,14,29,3,-43
-72,1,73,35,-72,37,18,-12,13,27,5,-41
-69,3,72,33,-70,37,15,-9,10,25,8,-36
-66,4,70,31,-68,37,12,-9,7,23,8,-30
-63,4,67,29,-65,35,9,-12,4,23,4,-25
-62,2,64,30,-63,33,8,-14,3,25,4,-23
-62,0,62,31,-62,31,8,-14,3,28,7,-23
-63,0,63,31,-63,31,9,-14,3,28,11,-24
-63,0,63,31,-63,31,8,-14,3,24,13,-23
-61,0,61,30,-61,30,9,-11,5,23,12,-24
-61,0,61,30,-61,30,11,-5,8,24,7,-27
-68,2,70,33,-69,36,18,-2,8,22,0,-31
-81,12,93,34,-87,52,29,0,10,19,-7,-36
-92,29,121,31,-106,75,39,2,22,20,-9,-43
-98,52,150,23,-124,101,46,9,43,26,-9,-50
-107,77,184,15,-145,130,49,20,63,30,-9,-54
-120,104,224,8,-172,164,51,19,59,24,-12,-52
-133,134,267,0,-200,200,55,-18,2,6,-15,-38
-146,164,310,-9,-228,237,58,-98,-116,-23,-15,-12
-156,185,341,-14,-248,263,54,-204,-291,-62,-10,30
-162,197,359,-17,-260,278,48,-333,-530,-122,-4,88
-167,203,370,-18,-268,286,51,-483,-852,-227,-6,158
-172,211,383,-19,-277,297,56,-645,-1213,-367,-18,241
-178,233,411,-27,-294,322,38,-795,-1521,-507,-32,342
-183,266,449,-41,-316,357,-3,-928,-1767,-645,-62,443
-186,305,491,-59,-338,398,-51,-1045,-2009,-811,-133,511
-185,346,531,-80,-358,438,-100,-1154,-2249,-996,-237,542
-182,393,575,-105,-378,484,-152,-1261,-2449,-1165,-339,561
-172,438,610,-133,-391,524,-215,-1382,-2618,-1299,-420,587
-150,463,613,-156,-381,538,-296,-1534,-2800,-1397,-477,636
-112,452,564,-170,-338,508,-385,-1685,-2967,-1454,-507,700
-61,394,455,-166,-258,424,-456,-1767,-3029,-1463,-511,756
-2,298,300,-148,-151,299,-518,-1805,-3026,-1473,-518,797
58,191,133,-124,-37,162,-604,-1896,-3090,-1576,-580,835
121,68,-53,-94,87,7,-704,-2026,-3203,-1741,-685,855
192,-95,-287,-48,239,-191,-777,-2094,-3222,-1846,-767,821
280,-287,-567,3,423,-427,-825,-2059,-3105,-1862,-810,722
393,-458,-851,32,622,-654,-887,-1933,-2899,-1837,-840,573
519,-587,-1106,34,812,-846,-964,-1758,-2651,-1792,-865,417
628,-672,-1300,22,964,-986,-1027,-1592,-2403,-1724,-878,319
707,-733,-1440,13,1073,-1086,-1048,-1441,-2175,-1638,-884,244
756,-802,-1558,23,1157,-1180,-1005,-1268,-1965,-1549,-895,80
777,-878,-1655,50,1216,-1266,-910,-1070,-1758,-1448,-909,-179
776,-934,-1710,79,1243,-1322,-801,-876,-1531,-1311,-910,-456
749,-952,-1701,101,1225,-1326,-692,-701,-1297,-1150,-889,-669
687,-923,-1610,118,1148,-1266,-577,-554,-1096,-1003,-843,-746
601,-858,-1459,128,1030,-1158,-457,-430,-926,-874,-772,-713
508,-777,-1285,134,896,-1031,-337,-314,-753,-741,-683,-672
416,-684,-1100,134,758,-892,-229,-210,-577,-597,-578,-639
317,-572,-889,127,603,-730,-148,-139,-424,-457,-455,-563
216,-447,-663,115,439,-555,-90,-97,-301,-329,-325,-443
125,-330,-455,102,290,-392,-37,-60,-191,-214,-210,-325
55,-236,-291,90,173,-263,14,-16,-89,-112,-117,-229
16,-170,-186,77,101,-178,56,32,2,-24,-39,-156
2,-125,-127,61,64,-126,88,82,81,49,26,-104
-2,-80,-78,41,38,-79,120,123,147,110,85,-68
-7,-37,-30,22,11,-33,145,151,200,155,129,-44
-9,-14,-5,11,-2,-9,149,170,240,183,146,-34
-9,-9,0,9,-4,-4,136,184,270,201,143,-30
-7,-6,1,6,-4,-2,126,197,298,221,140,-24
-4,0,4,2,-4,2,123,207,320,242,144,-16
-3,-1,2,2,-2,0,117,208,328,250,145,-14
-1,-9,-8,5,3,-8,101,197,325,248,142,-20
2,-18,-20,8,11,-19,78,177,318,248,139,-29
8,-26,-34,9,21,-30,50,152,310,250,137,-38
7,-32,-39,12,23,-35,24,127,301,241,131,-49
2,-39,-41,18,21,-40,-1,106,289,222,121,-59
-2,-46,-44,24,21,-45,-32,85,274,203,111,-65
-4,-52,-48,28,22,-50,-60,67,260,191,104,-67
-3,-52,-49,27,23,-50,-69,61,258,191,100,-67
0,-49,-49,24,24,-49,-59,65,265,197,101,-67
0,-47,-47,23,23,-47,-46,71,269,201,103,-68
0,-47,-47,23,23,-47,-37,76,268,200,106,-71
0,-48,-48,24,24,-48,-29,80,269,200,106,-74
0,-48,-48,24,24,-48,-22,84,275,202,106,-77
0,-46,-46,23,23,-46,-14,90,281,205,109,-78
0,-43,-43,21,21,-43,-6,98,288,207,115,-78
0,-43,-43,21,21,-43,-1,106,298,211,117,-76
-2,-46,-44,24,21,-45,2,114,308,217,117,-74
-6,-50,-44,28,19,-47,5,120,313,219,117,-71
-11,-56,-45,33,17,-50,8,124,312,219,117,-71
-16,-59,-43,37,13,-51,10,127,312,218,114,-75
-21,-62,-41,41,10,-51,12,130,315,218,109,-83
-26,-63,-37,44,5,-50,16,130,318,219,104,-92
-32,-63,-31,47,0,-47,21,130,320,222,102,-99
-35,-60,-25,47,-5,-42,26,132,324,225,102,-103
-38,-55,-17,46,-10,-36,28,138,329,228,105,-102
-39,-49,-10,44,-14,-29,29,144,332,229,109,-100
-41,-45,-4,43,-18,-24,32,149,337,231,114,-98
-46,-40,6,43,-26,-17,37,152,347,240,119,-95
-54,-35,19,44,-36,-8,44,155,363,253,121,-93
-62,-32,30,47,-46,-1,51,156,377,261,122,-90
-69,-29,40,49,-54,5,56,159,386,263,122,-90
-77,-28,49,52,-63,10,60,164,393,263,122,-95
-87,-28,59,57,-73,15,65,171,398,263,122,-103
-97,-30,67,63,-82,18,71,179,401,262,121,-111
-104,-32,72,68,-88,20,79,186,405,262,118,-119
-109,-35,74,72,-91,19,85,194,414,265,114,-124
-111,-38,73,74,-92,17,89,204,425,271,109,-129
-113,-39,74,76,-93,17,95,214,431,273,104,-133
-115,-39,76,77,-95,18,100,221,433,272,102,-138
-118,-38,80,78,-99,21,102,225,436,275,101,-143
-120,-38,82,79,-101,22,102,227,443,281,101,-145
-123,-39,84,81,-103,22,101,231,453,283,101,-146
-125,-42,83,83,-104,20,101,236,463,282,101,-146
-126,-43,83,84,-104,20,102,242,472,284,103,-145
-126,-43,83,84,-104,20,105,249,479,289,106,-145
-125,-41,84,83,-104,21,110,258,488,294,107,-146
-125,-36,89,80,-107,26,115,268,497,296,107,-146
-126,-31,95,78,-110,32,117,278,506,297,106,-145
-126,-26,100,76,-113,37,116,288,513,300,106,-145
-125,-21,104,73,-114,41,118,296,521,304,107,-148
-125,-16,109,70,-117,46,123,303,531,309,106,-154
-126,-10,116,68,-121,53,128,310,541,313,107,-156
-129,-3,126,66,-127,61,130,318,551,316,107,-156
-132,3,135,64,-133,69,131,326,561,318,106,-155
-135,7,142,64,-138,74,134,336,570,321,106,-156
-136,10,146,63,-141,78,138,346,580,322,108,-155
-135,12,147,61,-141,79,143,356,591,322,111,-152
-136,17,153,59,-144,85,147,365,598,321,112,-149
-139,25,164,57,-151,94,150,372,603,321,112,-147
-142,32,174,55,-158,103,151,378,607,322,112,-144
-144,36,180,54,-162,108,152,382,612,322,112,-141
-148,42,190,53,-169,116,148,387,615,321,111,-140
-154,49,203,52,-178,126,145,392,618,318,108,-141
-156,56,212,50,-184,134,150,399,619,315,104,-140
-156,63,219,46,-187,141,159,406,619,312,99,-137
-155,74,229,40,-192,151,157,410,617,312,94,-132
-155,87,242,34,-198,164,145,410,615,312,92,-125
-157,95,252,31,-204,173,138,406,613,310,91,-117
-160,99,259,30,-209,179,140,401,611,304,91,-110
-161,105,266,28,-213,185,140,399,607,298,91,-103
-161,113,274,24,-217,193,137,399,602,294,91,-95
-160,120,280,20,-220,200,134,400,597,289,93,-86
-161,127,288,17,-224,207,131,400,592,285,95,-76
-160,136,296,12,-228,216,129,399,587,280,98,-69
-160,147,307,6,-233,227,127,396,582,275,98,-65
-161,154,315,3,-238,234,123,392,575,270,94,-59
-164,158,322,3,-243,240,119,387,565,265,89,-52
-165,164,329,0,-247,246,113,382,555,259,84,-42
-165,171,336,-3,-250,253,108,377,544,251,82,-33
-164,179,343,-7,-253,261,105,372,536,244,81,-24
-161,186,347,-12,-254,266,103,368,530,237,82,-17
-159,193,352,-17,-255,272,99,362,522,229,81,-9
-157,198,355,-20,-256,276,94,355,512,221,79,0
-153,202,355,-24,-254,278,89,344,500,216,76,10
-147,206,353,-29,-250,279,84,331,488,211,73,20
-144,212,356,-34,-250,284,78,321,477,205,72,26
-142,220,362,-39,-252,291,71,314,467,198,72,31
-138,227,365,-44,-251,296,64,308,457,191,73,39
-133,234,367,-50,-250,300,59,300,448,187,73,52
-129,245,374,-58,-251,309,56,292,438,182,72,64
-126,255,381,-64,-253,318,53,285,428,177,72,74
-124,258,382,-67,-253,320,52,279,419,172,74,81
-119,254,373,-67,-246,313,52,275,410,167,76,88
-112,252,364,-70,-238,308,53,270,397,162,79,96
-104,252,356,-74,-230,304,53,265,381,157,81,104
-100,252,352,-76,-226,302,50,260,367,154,83,108
-98,250,348,-76,-223,299,45,255,356,152,86,110
-93,244,337,-75,-215,290,41,250,344,148,87,114
-85,237,322,-76,-203,279,39,246,332,143,87,119
-78,230,308,-76,-193,269,37,240,318,138,86,123
-71,226,297,-77,-184,261,32,232,303,133,86,125
-62,221,283,-79,-172,252,25,225,288,128,87,126
-51,216,267,-82,-159,241,17,221,273,126,87,125
-45,210,255,-82,-150,232,10,216,262,126,86,126
-43,203,246,-80,-144,224,5,210,255,126,86,126
-40,195,235,-77,-137,215,3,207,251,124,88,125
-35,185,220,-75,-127,202,5,205,247,119,90,123
-33,173,206,-70,-119,189,15,201,238,115,92,120
-33,161,194,-64,-113,177,31,196,225,112,92,118
-33,150,183,-58,-108,166,48,195,211,110,90,115
-30,142,172,-56,-101,157,62,198,199,108,87,110
-26,140,166,-57,-96,153,72,200,189,105,86,102
-21,141,162,-60,-91,151,78,199,182,103,87,94
-16,139,155,-61,-85,147,86,200,178,100,85,89
-11,133,144,-61,-77,138,97,201,176,98,82,88
-6,128,134,-61,-70,131,106,195,172,95,81,85
-1,126,127,-62,-64,126,113,184,167,92,82,80
0,125,125,-62,-62,125,120,176,162,91,80,75
0,123,123,-61,-61,123,126,169,158,92,74,70
0,119,119,-59,-59,119,123,157,151,90,71,64
2,114,112,-58,-55,113,115,141,143,87,71,59
5,108,103,-56,-49,105,109,131,138,86,74,56
8,101,93,-54,-42,97,104,123,134,84,75,54
9,89,80,-49,-35,84,83,103,124,76,66,49
8,74,66,-41,-29,70,47,70,106,63,50,39
9,61,52,-35,-21,56,8,33,85,52,35,26
12,52,40,-32,-14,46,-22,2,66,42,26,13
15,41,26,-28,-5,33,-44,-19,49,34,21,5
17,29,12,-23,2,20,-60,-32,35,24,16,1
20,18,-2,-19,11,8,-78,-46,20,11,11,-2
23,10,-13,-16,18,-1,-97,-59,5,0,5,-7
24,8,-16,-16,20,-4,-102,-63,-3,-6,2,-9
23,9,-14,-16,18,-2,-95,-56,-4,-5,0,-8
25,8,-17,-16,21,-4,-88,-49,-3,-2,0,-9
27,5,-22,-16,24,-8,-84,-44,-4,0,0,-12
29,3,-26,-16,27,-11,-77,-41,-3,0,0,-14
29,3,-26,-16,27,-11,-67,-39,-1,0,0,-14
29,4,-25,-16,27,-10,-58,-39,1,0,0,-13
29,3,-26,-16,27,-11,-50,-39,2,0,3,-13
28,4,-24,-16,26,-10,-45,-36,5,-1,4,-13
25,4,-21,-14,23,-8,-40,-31,8,-3,4,-13
22,2,-20,-12,21,-9,-37,-27,9,-3,4,-14
19,-2,-21,-8,20,-11,-34,-24,9,0,4,-17
17,-4,-21,-6,19,-12,-33,-22,7,0,2,-21
15,-4,-19,-5,17,-11,-33,-20,5,0,-2,-27
11,-3,-14,-4,12,-8,-34,-17,3,0,-5,-30
6,-1,-7,-2,6,-4,-33,-14,2,0,-4,-29
1,1,0,-1,0,0,-34,-13,6,0,-2,-27
-2,3,5,0,-3,4,-34,-14,11,0,0,-25
-5,4,9,0,-7,6,-33,-13,15,1,0,-22
-7,4,11,1,-9,7,-30,-10,17,6,0,-19
-11,4,15,3,-13,9,-26,-8,20,11,0,-19
-16,4,20,6,-18,12,-20,-5,26,13,0,-22
-21,3,24,9,-22,13,-17,0,32,14,0,-25
-26,1,27,12,-26,14,-15,6,37,14,0,-27
-33,-1,32,17,-32,15,-10,9,39,13,0,-31
-43,-3,40,23,-41,18,0,9,38,13,0,-36
-53,-5,48,29,-50,21,8,9,39,14,0,-41
-60,-7,53,33,-56,23,16,12,42,14,0,-46
-63,-10,53,36,-58,21,21,15,43,13,0,-49
-63,-12,51,37,-57,19,23,17,42,14,-2,-51
-63,-15,48,39,-55,16,24,20,44,13,-5,-54
-66,-17,49,41,-57,16,24,22,46,13,-8,-56
-68,-20,48,44,-58,14,23,25,48,14,-9,-59
-68,-23,45,45,-56,11,23,27,48,14,-9,-62
-66,-24,42,45,-54,9,24,30,47,13,-8,-63
-63,-24,39,43,-51,7,24,32,47,13,-8,-62
-62,-22,40,42,-51,9,23,35,48,15,-9,-63
-62,-19,43,40,-52,12,23,38,48,17,-9,-66
-62,-18,44,40,-53,13,26,39,46,20,-8,-69
-62,-18,44,40,-53,13,32,39,43,22,-8,-72
-64,-19,45,41,-54,13,34,39,44,26,-8,-73
-67,-19,48,43,-57,14,33,41,49,31,-8,-72
-68,-18,50,43,-59,16,35,45,56,36,-9,-74
-67,-18,49,42,-58,15,40,51,61,38,-9,-76
-69,-19,50,44,-59,15,45,53,64,39,-8,-78
-72,-22,50,47,-61,14,47,52,66,38,-8,-78
-72,-26,46,49,-59,10,48,54,70,39,-9,-77
-69,-29,40,49,-54,5,48,60,76,41,-9,-77
-66,-27,39,46,-52,6,48,65,78,44,-8,-78
-64,-21,43,42,-53,11,48,67,78,47,-5,-78
-61,-17,44,39,-52,13,47,68,78,48,-2,-77
-58,-18,40,38,-49,11,47,68,78,48,0,-77
-57,-19,38,38,-47,9,49,66,76,46,0,-78
-58,-20,38,39,-48,9,52,63,74,41,0,-78
-57,-16,41,36,-49,12,53,63,72,37,1,-76
-57,-11,46,34,-51,17,52,66,72,34,3,-74
-59,-7,52,33,-55,22,54,69,73,33,3,-72
-65,-7,58,36,-61,25,56,72,72,33,1,-72
-70,-11,59,40,-64,24,58,72,73,35,-1,-73
-72,-16,56,44,-64,20,58,69,73,38,-3,-73
-72,-20,52,46,-62,16,57,66,72,38,-5,-72
-69,-23,46,46,-57,11,57,63,69,35,-5,-72
-67,-24,43,45,-55,9,58,63,65,32,0,-73
-67,-24,43,45,-55,9,58,63,60,29,6,-73
-68,-22,46,45,-57,12,57,61,55,28,10,-70
-68,-19,49,43,-58,15,57,55,50,28,9,-65
-67,-18,49,42,-58,15,58,50,45,29,8,-60
-68,-18,50,43,-59,16,58,48,40,29,9,-58
-67,-19,48,43,-57,14,57,47,38,28,8,-57
-67,-19,48,43,-57,14,57,47,38,28,5,-57
-68,-18,50,43,-59,16,58,48,39,29,2,-58
-68,-18,50,43,-59,16,58,48,39,29,0,-58
-67,-19,48,43,-57,14,57,47,38,27,0,-57
-64,-19,45,41,-54,13,54,44,35,21,0,-57
-61,-18,43,39,-52,12,51,41,32,15,0,-58
-59,-18,41,38,-50,11,49,39,29,10,0,-58
-56,-19,37,37,-46,9,46,37,28,8,0,-57
-54,-19,35,36,-44,8,44,35,28,8,0,-57
-51,-18,33,34,-42,7,41,32,29,8,0,-58
-48,-19,29,33,-38,5,39,29,29,8,0,-58
-47,-18,29,32,-38,5,38,28,29,9,0,-57
-47,-18,29,32,-38,5,38,28,29,12,0,-54
-48,-19,29,33,-38,5,39,28,28,15,0,-51
-48,-19,29,33,-38,5,39,28,28,17,0,-49
-46,-18,28,32,-37,5,38,29,29,20,0,-46
-44,-18,26,31,-35,4,38,32,32,22,2,-44
-42,-19,23,30,-32,2,39,35,35,25,5,-41
-40,-19,21,29,-30,1,39,37,37,27,7,-39
-36,-18,18,27,-27,0,38,40,39,30,10,-37
-31,-18,13,24,-22,-2,35,45,41,32,12,-35
-26,-19,7,22,-16,-6,32,51,44,35,15,-32
-21,-19,2,20,-11,-8,29,56,47,37,17,-30
-16,-18,-2,17,-7,-10,28,58,48,40,20,-27
-11,-15,-4,13,-3,-9,28,58,48,42,22,-25
-6,-12,-6,9,0,-9,29,57,47,44,25,-22
-1,-10,-9,5,4,-9,28,57,47,46,27,-20
0,-7,-7,3,3,-7,29,59,49,49,30,-17
0,-5,-5,2,2,-5,29,65,55,51,32,-15
0,-2,-2,1,1,-2,28,70,60,54,35,-12
0,0,0,0,0,0,27,75,65,56,37,-10
0,0,0,0,0,0,32,81,70,59,40,-7
2,0,-2,-1,2,-1,42,88,75,61,41,-5
5,0,-5,-2,5,-2,53,96,80,64,44,-2
8,0,-8,-4,8,-4,63,103,85,66,46,0
9,1,-8,-5,8,-3,72,109,88,69,49,0
9,6,-3,-7,6,1,81,114,91,71,51,2
8,11,3,-9,2,7,93,120,93,74,54,5
8,16,8,-12,0,12,103,125,95,77,57,7
9,21,12,-15,-1,16,108,124,98,78,58,10
12,26,14,-19,-1,20,107,119,103,78,58,12
15,32,17,-23,-1,24,108,114,110,77,57,15
17,37,20,-27,-1,28,109,110,116,78,58,18
20,39,19,-29,0,29,100,101,115,77,57,19
22,38,16,-30,3,27,82,88,109,77,57,19
25,39,14,-32,5,26,64,76,105,79,58,19
28,40,12,-34,8,26,48,65,100,79,59,19
29,34,5,-31,12,19,25,47,90,73,54,17
29,21,-8,-25,18,6,-6,19,72,60,44,11
28,6,-22,-17,25,-8,-43,-12,53,45,33,5
28,-5,-33,-11,30,-19,-76,-39,35,33,22,1
29,-10,-39,-9,34,-24,-91,-51,23,24,15,0
29,-9,-38,-10,33,-23,-89,-49,13,17,11,0
28,-8,-36,-10,32,-22,-86,-47,3,9,5,0
28,-9,-37,-9,32,-23,-86,-47,-6,1,0,0
29,-8,-37,-10,33,-22,-85,-47,-8,1,1,0
32,-5,-37,-13,34,-21,-80,-44,-3,9,9,0
35,-2,-37,-16,36,-19,-75,-41,3,19,18,0
38,0,-38,-19,38,-19,-69,-39,7,26,26,0
39,0,-39,-19,39,-19,-66,-38,9,29,29,0
39,0,-39,-19,39,-19,-64,-39,9,29,29,0
39,0,-39,-19,39,-19,-61,-38,9,29,29,0
39,0,-39,-19,39,-19,-58,-38,9,29,29,0
38,0,-38,-19,38,-19,-57,-40,7,27,27,0
35,-2,-37,-16,36,-19,-57,-45,2,22,22,0
32,-5,-37,-13,34,-21,-58,-51,-2,15,15,0
30,-8,-38,-11,34,-23,-58,-56,-7,10,10,0
26,-9,-35,-8,30,-22,-57,-58,-9,8,8,0
21,-9,-30,-6,25,-19,-54,-58,-9,8,8,0
16,-9,-25,-3,20,-17,-51,-58,-9,8,8,0
11,-9,-20,-1,15,-14,-48,-58,-9,8,8,0
6,-8,-14,1,10,-11,-47,-57,-7,9,9,0
2,-5,-7,1,4,-6,-47,-54,-2,12,12,0
-2,-2,0,2,-1,-1,-48,-51,3,15,15,0
-6,0,6,3,-6,3,-48,-48,8,18,18,0
-12,0,12,6,-12,6,-46,-47,8,19,19,0
-19,0,19,9,-19,9,-41,-47,3,19,18,0
-28,0,28,14,-28,14,-36,-48,-3,19,19,0
-36,0,36,18,-36,18,-31,-48,-7,19,19,0
-40,0,40,20,-40,20,-26,-47,-9,18,17,-1
-42,-2,40,22,-41,19,-21,-47,-9,15,11,-6
-44,-5,39,24,-41,17,-16,-48,-8,12,6,-11
-46,-7,39,26,-42,16,-10,-48,-8,9,1,-17
-48,-10,38,29,-43,14,-8,-47,-9,8,0,-20
-48,-12,36,30,-42,12,-8,-47,-12,8,0,-22
-47,-15,32,31,-39,8,-9,-48,-15,9,0,-25
-47,-18,29,32,-38,5,-9,-48,-18,9,0,-28
-48,-19,29,33,-38,5,-8,-47,-19,8,0,-29
-51,-19,32,35,-41,6,-8,-47,-19,8,0,-29
-54,-18,36,36,-45,9,-9,-48,-18,9,0,-28
-57,-18,39,37,-48,10,-9,-47,-18,9,0,-28
-58,-19,39,38,-48,10,-8,-48,-19,8,0,-28
-58,-19,39,38,-48,10,-8,-48,-19,8,0,-28
-57,-18,39,37,-48,10,-9,-47,-18,9,0,-29
-57,-18,39,37,-48,10,-9,-47,-18,9,0,-29
-58,-19,39,38,-48,10,-8,-48,-19,8,0,-28
-58,-19,39,38,-48,10,-8,-48,-19,8,0,-25
-57,-18,39,37,-48,10,-9,-47,-18,9,0,-22
-57,-18,39,37,-48,10,-9,-47,-18,9,0,-19
-58,-19,39,38,-48,10,-8,-48,-19,8,0,-18
-58,-19,39,38,-48,10,-8,-48,-19,8,0,-18
-57,-18,39,37,-48,10,-9,-47,-18,9,0,-19
-57,-18,39,37,-48,10,-9,-47,-18,9,0,-19
-58,-19,39,38,-48,10,-7,-48,-19,7,0,-18
-58,-19,39,38,-48,10,-1,-48,-19,5,0,-18
-56,-18,38,37,-47,10,0,-47,-18,3,0,-19
-54,-18,36,36,-45,9,0,-44,-15,3,2,-19
-52,-20,32,36,-42,6,0,-41,-12,3,5,-18
-52,-22,30,37,-41,4,0,-40,-10,3,7,-18
-52,-24,28,38,-40,2,0,-37,-7,4,10,-19
-52,-24,28,38,-40,2,0,-34,-4,7,13,-19
-53,-23,30,38,-41,3,1,-34,-3,10,14,-18
-56,-23,33,39,-44,5,3,-37,-3,13,14,-18
-58,-24,34,41,-46,5,3,-40,-4,13,14,-19
-58,-24,34,41,-46,5,2,-40,-4,10,14,-19
-56,-22,34,39,-45,6,7,-36,-3,8,12,-18
-54,-19,35,36,-44,8,13,-31,-3,9,9,-18
-52,-18,34,35,-43,8,10,-26,-5,7,9,-19
-52,-19,33,35,-42,7,0,-24,-7,4,12,-19
-53,-17,36,35,-44,9,-4,-23,-9,4,14,-18
-53,-15,38,34,-45,11,0,-23,-9,7,14,-15
-52,-13,39,32,-45,13,6,-24,-8,9,13,-12
-53,-14,39,33,-46,12,11,-24,-8,9,13,-9
-52,-13,39,32,-45,13,16,-23,-9,8,15,-8
-52,-10,42,31,-47,16,19,-23,-9,8,17,-9
-53,-8,45,30,-49,18,16,-24,-8,10,19,-8
-53,-8,45,30,-49,18,7,-24,-8,12,19,-8
-52,-9,43,30,-47,17,2,-23,-9,14,17,-10
-49,-8,41,28,-45,16,3,-23,-9,14,15,-16
-46,-9,37,27,-41,14,4,-24,-7,12,13,-20
-43,-9,34,26,-38,12,4,-24,-2,9,13,-23
-43,-7,36,25,-39,14,3,-22,1,9,14,-24
-46,-5,41,25,-43,18,0,-19,0,12,14,-24
-48,-3,45,25,-46,21,0,-18,0,14,13,-23
-48,-4,44,26,-46,20,0,-19,-1,13,12,-20
-46,-3,43,24,-44,20,0,-17,2,15,17,-17
-43,-1,42,22,-42,20,3,-11,10,20,26,-15
-42,0,42,21,-42,21,4,-6,16,27,29,-12
-43,1,44,21,-43,22,4,-4,19,33,26,-9
-41,-1,40,21,-40,19,3,-3,17,32,21,-8
-36,-7,29,21,-32,11,4,-4,11,26,19,-8
-31,-10,21,20,-26,5,3,-3,7,22,19,-9
-26,-9,17,17,-21,4,3,-1,7,23,22,-9
-22,-7,15,14,-18,4,5,2,10,24,25,-8
-19,-5,14,12,-16,4,7,6,16,23,28,-5
-18,-2,16,10,-17,7,9,10,21,24,29,-2
-19,0,19,9,-19,9,9,12,27,27,28,0
-18,0,18,9,-18,9,7,15,30,31,29,0
-16,0,16,8,-16,8,5,21,32,36,32,0
-11,0,11,5,-11,5,2,26,35,41,35,0
-5,0,5,2,-5,2,2,31,40,46,38,0
-3,0,3,1,-3,1,6,36,44,48,39,0
-3,2,5,0,-4,3,12,40,47,47,39,3
-4,5,9,0,-6,7,14,45,48,48,39,4
-4,8,12,-2,-8,10,15,50,51,51,41,4
-3,9,12,-3,-7,10,25,56,55,54,45,4
-3,9,12,-3,-7,10,43,63,60,56,50,4
-4,8,12,-2,-8,10,60,71,65,58,55,3
-4,7,11,-1,-7,9,72,79,70,61,60,3
-3,11,14,-4,-8,12,82,83,75,65,64,5
-3,19,22,-8,-12,20,92,86,82,73,66,10
-4,27,31,-11,-17,29,101,87,91,82,69,17
-4,32,36,-14,-20,34,109,87,99,90,72,22
-2,35,37,-16,-19,36,113,85,103,91,73,24
1,40,39,-20,-19,39,113,82,102,88,73,24
6,46,40,-26,-17,43,110,82,101,86,73,23
11,51,40,-31,-14,45,100,81,99,86,73,23
15,52,37,-33,-11,44,79,71,93,86,71,23
17,46,29,-31,-6,37,47,52,86,84,69,23
20,39,19,-29,0,29,11,34,78,79,67,24
23,32,9,-27,7,20,-20,18,69,72,65,24
24,25,1,-24,11,13,-44,-2,54,62,58,22
24,18,-6,-21,15,6,-63,-32,31,49,48,17
23,9,-14,-16,18,-2,-82,-62,6,37,39,10
24,2,-22,-13,23,-10,-100,-85,-13,27,34,5
23,-1,-24,-11,23,-12,-109,-92,-20,20,34,3
23,0,-23,-11,23,-11,-108,-86,-16,15,34,3
25,0,-25,-12,25,-12,-106,-79,-11,12,32,3
26,1,-25,-13,25,-12,-105,-76,-7,12,27,1
19,7,-12,-13,15,-2,-95,-67,1,16,21,-2
6,20,14,-13,-4,17,-77,-53,16,24,18,-7
-4,38,42,-17,-23,40,-59,-44,29,32,21,-9
-10,60,70,-25,-40,65,-46,-43,40,39,27,-8
-19,84,103,-32,-61,93,-40,-42,57,46,29,-9
-34,110,144,-38,-89,127,-39,-49,63,47,26,-11
-51,141,192,-45,-121,166,-37,-85,15,33,22,-3
-66,172,238,-53,-152,205,-34,-164,-113,0,21,18
-78,193,271,-57,-174,232,-35,-291,-331,-52,27,63
-87,204,291,-58,-189,247,-38,-453,-624,-128,34,128
-95,214,309,-59,-202,261,-37,-622,-962,-237,29,200
-102,235,337,-66,-219,286,-38,-781,-1303,-372,9,281
-111,274,385,-81,-248,329,-64,-926,-1601,-519,-17,383
-121,324,445,-101,-283,384,-114,-1057,-1854,-674,-56,494
-129,361,490,-116,-309,425,-163,-1181,-2104,-847,-124,573
-134,389,523,-127,-328,456,-206,-1302,-2358,-1031,-217,612
-137,434,571,-148,-354,502,-252,-1427,-2580,-1200,-313,634
-135,493,628,-179,-381,560,-310,-1565,-2770,-1341,-399,657
-123,529,652,-203,-387,590,-383,-1722,-2965,-1460,-471,691
-94,517,611,-211,-352,564,-463,-1878,-3141,-1551,-524,738
-48,444,492,-198,-270,468,-533,-1985,-3214,-1596,-550,791
11,325,314,-168,-151,319,-594,-2053,-3207,-1624,-570,841
71,209,138,-140,-33,173,-666,-2154,-3246,-1713,-631,877
133,92,-41,-112,87,25,-746,-2271,-3323,-1849,-731,876
208,-77,-285,-65,246,-181,-802,-2298,-3288,-1928,-816,801
299,-293,-592,-3,445,-442,-835,-2207,-3107,-1924,-867,655
401,-485,-886,42,643,-685,-876,-2053,-2870,-1891,-905,481
504,-618,-1122,57,813,-870,-933,-1879,-2630,-1848,-935,321
600,-704,-1304,52,952,-1004,-981,-1709,-2394,-1774,-951,214
679,-764,-1443,42,1061,-1103,-1001,-1545,-2170,-1672,-954,137
735,-827,-1562,46,1148,-1194,-976,-1374,-1971,-1574,-959,7
762,-896,-1658,67,1210,-1277,-904,-1191,-1784,-1477,-965,-204
750,-948,-1698,99,1224,-1323,-801,-1000,-1568,-1344,-961,-465
702,-969,-1671,133,1186,-1320,-684,-816,-1332,-1181,-940,-708
632,-952,-1584,160,1108,-1268,-570,-662,-1128,-1038,-900,-839
549,-896,-1445,173,997,-1170,-466,-542,-967,-924,-839,-843
456,-807,-1263,175,859,-1035,-364,-439,-810,-798,-745,-789
358,-697,-1055,169,706,-876,-269,-347,-648,-651,-623,-714
260,-586,-846,163,553,-716,-198,-274,-503,-507,-494,-620
167,-481,-648,157,407,-564,-151,-222,-382,-380,-373,-514
82,-380,-462,149,272,-421,-111,-181,-276,-272,-269,-406
13,-287,-300,137,156,-293,-71,-144,-178,-179,-184,-307
-32,-218,-186,125,77,-202,-37,-98,-88,-97,-112,-227
-53,-174,-121,113,34,-147,-11,-47,-10,-26,-51,-170
-60,-139,-79,99,9,-109,10,-6,50,28,-1,-138
-62,-108,-46,85,-8,-77,28,18,93,66,35,-127
-64,-90,-26,77,-19,-58,36,37,127,93,55,-125
-66,-86,-20,76,-23,-53,35,54,157,115,61,-126
-68,-87,-19,77,-24,-53,33,70,180,136,64,-125
-68,-87,-19,77,-24,-53,35,85,197,154,66,-123
-68,-86,-18,77,-25,-52,43,96,209,163,68,-121
-68,-87,-19,77,-24,-53,53,102,217,162,68,-120
-67,-86,-19,76,-24,-52,60,99,219,160,67,-123
-66,-86,-20,76,-23,-53,61,92,218,163,67,-128
-70,-87,-17,78,-26,-52,65,94,221,166,68,-132
-76,-87,-11,81,-32,-49,70,105,229,168,70,-132
-78,-86,-8,82,-35,-47,73,116,238,171,75,-127
-75,-83,-8,79,-33,-45,73,120,247,176,80,-120
-71,-80,-9,75,-31,-44,73,122,258,182,82,-115
-68,-78,-10,73,-29,-44,76,124,268,188,82,-115
-67,-77,-10,72,-28,-43,79,127,275,190,82,-118
-67,-77,-10,72,-28,-43,84,133,277,189,82,-120
-67,-78,-11,72,-28,-44,89,138,279,190,80,-123
-67,-78,-11,72,-28,-44,94,143,284,193,78,-125
-68,-77,-9,72,-29,-43,99,149,289,196,79,-126
-71,-74,-3,72,-34,-38,104,156,293,198,84,-126
-74,-72,2,73,-38,-35,108,164,300,202,87,-125
-76,-72,4,74,-40,-34,111,171,309,207,87,-123
-79,-74,5,76,-42,-34,111,177,312,209,87,-120
-81,-77,4,79,-42,-36,108,182,311,209,87,-117
-82,-78,4,80,-43,-37,106,186,313,208,85,-117
-82,-77,5,79,-43,-36,106,189,318,208,80,-122
-81,-78,3,79,-42,-37,107,189,324,209,76,-129
-81,-80,1,80,-41,-39,110,189,328,209,73,-137
-82,-82,0,82,-41,-41,113,191,333,208,72,-143
-82,-83,-1,82,-40,-42,115,196,338,208,72,-145
-81,-80,1,80,-41,-39,118,202,343,209,74,-146
-78,-75,3,76,-40,-36,120,207,347,210,79,-146
-77,-71,6,74,-41,-32,122,210,354,218,84,-145
-77,-71,6,74,-41,-32,124,212,364,229,89,-142
-78,-74,4,76,-41,-35,127,215,373,236,93,-139
-77,-77,0,77,-38,-38,129,220,381,238,95,-136
-78,-78,0,78,-39,-39,132,227,388,239,98,-136
-78,-77,1,77,-39,-38,134,234,396,242,101,-139
-77,-78,-1,77,-38,-39,137,243,402,245,102,-141
-74,-80,-6,77,-34,-43,140,252,409,249,101,-141
-71,-82,-11,76,-30,-46,141,262,419,257,102,-139
-69,-82,-13,75,-28,-47,141,272,433,269,105,-137
-65,-80,-15,72,-25,-47,140,282,442,274,108,-135
-60,-75,-15,67,-22,-45,140,291,445,273,111,-135
-56,-70,-14,63,-21,-42,141,302,451,274,111,-136
-53,-64,-11,58,-21,-37,141,312,461,279,111,-136
-52,-62,-10,57,-21,-36,139,319,474,284,113,-135
-49,-62,-13,55,-18,-37,134,323,489,288,118,-135
-45,-63,-18,54,-13,-40,127,328,503,296,124,-136
-40,-63,-23,51,-8,-43,124,338,515,306,129,-136
-38,-61,-23,49,-7,-42,130,354,527,315,131,-135
-38,-56,-18,47,-10,-37,143,374,536,320,130,-132
-39,-50,-11,44,-14,-30,155,393,544,323,131,-129
-42,-45,-3,43,-19,-24,164,410,550,327,134,-126
-43,-41,2,42,-22,-19,176,426,562,334,137,-126
-43,-36,7,39,-25,-14,192,440,579,342,139,-130
-42,-31,11,36,-26,-10,205,454,598,348,142,-130
-42,-23,19,32,-30,-2,214,466,616,353,145,-127
-44,-14,30,29,-37,8,223,478,629,358,146,-125
-46,-4,42,25,-44,19,233,490,639,366,145,-123
-48,3,51,22,-49,27,244,502,647,372,146,-119
-48,10,58,19,-53,34,254,513,653,378,149,-114
-47,17,64,15,-55,40,258,519,662,381,151,-110
-48,24,72,12,-60,48,257,521,672,383,151,-108
-47,32,79,7,-63,55,259,523,682,386,150,-105
-47,37,84,5,-65,60,261,524,690,389,150,-102
-49,39,88,5,-68,63,250,517,692,389,152,-102
-52,36,88,8,-70,62,226,504,689,387,154,-105
-52,31,83,10,-67,57,205,491,687,382,156,-107
-49,28,77,10,-63,52,188,480,686,375,154,-107
-47,31,78,8,-62,54,158,465,677,364,146,-106
-47,37,84,5,-65,60,114,445,660,350,133,-106
-49,38,87,5,-68,62,75,423,639,332,120,-108
-51,35,86,8,-68,60,50,402,618,314,110,-111
-53,34,87,9,-70,60,39,391,603,301,104,-111
-53,39,92,7,-72,65,38,389,593,294,102,-106
-53,45,98,4,-75,71,38,390,586,289,101,-97
-53,49,102,2,-77,75,34,389,581,284,101,-86
-52,57,109,-2,-80,83,34,390,579,282,102,-79
-49,67,116,-9,-82,91,37,393,580,282,102,-75
-47,76,123,-14,-85,99,39,395,578,283,101,-70
-47,80,127,-16,-87,103,39,396,574,284,98,-62
-48,83,131,-17,-89,107,37,393,565,280,95,-54
-48,85,133,-18,-90,109,34,388,556,272,92,-49
-47,87,134,-20,-90,110,34,382,547,264,91,-46
-47,90,137,-21,-92,113,34,377,539,256,92,-44
-49,94,143,-22,-96,118,32,373,532,249,91,-40
-55,99,154,-22,-104,126,26,369,523,242,88,-33
-59,103,162,-22,-110,132,22,362,510,236,85,-25
-61,108,169,-23,-115,138,20,354,497,231,82,-17
-64,116,180,-26,-122,148,17,348,488,226,81,-11
-67,126,193,-29,-130,159,11,343,484,221,81,-7
-68,134,202,-33,-135,168,7,338,481,217,82,0
-67,140,207,-36,-137,173,4,330,476,215,82,8
-68,151,219,-41,-143,185,3,321,469,212,81,18
-71,165,236,-47,-153,200,3,312,461,206,81,25
-74,171,245,-48,-159,208,3,302,455,201,82,31
-79,170,249,-45,-164,209,3,292,449,197,82,36
-84,171,255,-43,-169,213,5,283,438,192,81,41
-92,176,268,-42,-180,222,7,276,422,187,79,46
-101,182,283,-40,-192,232,9,270,407,183,77,48
-109,185,294,-38,-201,239,8,265,396,178,74,47
-111,183,294,-36,-202,238,9,260,383,171,70,48
-108,177,285,-34,-196,231,12,256,368,161,65,51
-107,173,280,-33,-193,226,14,250,354,151,61,53
-110,171,281,-30,-195,226,15,242,342,144,58,52
-111,168,279,-28,-195,223,12,235,330,139,57,54
-108,166,274,-29,-191,220,6,228,318,136,58,59
-105,164,269,-29,-187,216,2,220,306,135,57,65
-103,162,265,-29,-184,213,2,212,296,133,54,71
-99,159,258,-30,-178,208,5,207,289,127,52,73
-94,154,248,-30,-171,201,8,203,283,117,52,72
-91,147,238,-28,-164,192,8,194,271,108,53,73
-91,140,231,-24,-161,185,4,181,254,100,54,76
-91,132,223,-20,-157,177,4,171,236,93,51,78
-88,124,212,-18,-150,168,7,167,220,85,45,75
-85,120,205,-17,-145,162,9,162,208,79,41,70
-82,118,200,-18,-141,159,9,155,199,75,39,64
-81,114,195,-16,-138,154,9,147,191,70,37,62
-79,106,185,-13,-132,145,12,140,181,62,34,62
-75,98,173,-11,-124,135,15,130,168,53,34,62
-70,91,161,-10,-115,126,17,118,153,45,34,60
-67,82,149,-7,-108,115,19,107,139,42,32,55
-67,73,140,-3,-103,106,19,101,127,42,26,50
-67,64,131,1,-99,97,17,92,117,42,22,45
-64,56,120,4,-92,88,14,82,107,40,23,41
-61,49,110,6,-85,79,14,74,97,38,24,36
-59,43,102,8,-80,72,17,70,87,35,25,31
-56,35,91,10,-73,63,19,65,77,31,22,26
-54,27,81,13,-67,54,19,60,68,26,16,22
-51,21,72,15,-61,46,18,55,58,22,13,15
-48,16,64,16,-56,40,18,50,50,19,13,7
-47,11,58,18,-52,34,20,46,46,19,14,2
-48,3,51,22,-49,27,22,43,47,19,14,0
-47,-2,45,24,-46,21,24,42,48,18,14,0
-44,-6,38,25,-41,16,24,42,48,15,14,0
-42,-11,31,26,-36,10,23,43,47,13,13,0
-43,-16,27,29,-35,5,24,43,44,14,11,0
-42,-20,22,31,-32,1,23,42,41,13,6,-1
-40,-23,17,31,-28,-3,23,40,36,10,1,-6
-38,-23,15,30,-26,-4,24,38,32,8,0,-10
-38,-23,15,30,-26,-4,27,38,29,8,0,-13
-39,-25,14,32,-26,-5,30,39,29,9,0,-14
-41,-30,11,35,-26,-9,35,41,32,9,0,-17
-44,-37,7,40,-25,-15,41,44,35,8,0,-21
-47,-45,2,46,-24,-21,46,46,38,8,0,-26
-48,-49,-1,48,-23,-25,48,48,39,9,0,-30
-48,-48,0,48,-24,-24,48,48,39,9,0,-32
-48,-47,1,47,-24,-23,47,47,38,8,0,-35
-48,-47,1,47,-24,-23,48,47,38,8,0,-37
-47,-48,-1,47,-23,-24,47,48,39,9,0,-39
-44,-48,-4,46,-20,-26,47,51,41,12,0,-39
-41,-47,-6,44,-17,-26,49,54,44,15,0,-38
-39,-47,-8,43,-15,-27,54,60,46,17,0,-38
-38,-48,-10,43,-14,-29,60,65,49,20,0,-39
-39,-51,-12,45,-13,-31,66,70,51,23,3,-39
-38,-53,-15,45,-11,-34,68,74,54,24,4,-38
-35,-53,-18,44,-8,-35,65,79,59,24,4,-38
-33,-53,-20,43,-6,-36,61,84,66,24,3,-39
-33,-53,-20,43,-6,-36,57,89,74,26,3,-39
-34,-52,-18,43,-8,-35,59,93,80,31,3,-39
-34,-49,-15,41,-9,-32,64,95,84,36,3,-39
-33,-47,-14,40,-9,-30,69,98,88,39,4,-38
-30,-47,-17,38,-6,-32,74,103,93,39,4,-38
-27,-48,-21,37,-3,-34,82,110,99,39,3,-39
-25,-47,-22,36,-1,-34,88,120,104,41,2,-39
-22,-48,-26,35,2,-37,80,130,108,43,6,-38
-17,-48,-31,32,7,-39,61,137,110,46,14,-38
-11,-47,-36,29,12,-41,50,143,113,49,21,-39
-5,-44,-39,24,17,-41,56,148,118,55,23,-39
-3,-42,-39,22,18,-40,67,153,125,60,23,-38
-3,-40,-37,21,17,-38,75,160,132,65,23,-35
