I,II,III,aVR,aVL,aVF,V1,V2,V3,V4,V5,V6
-39,-68,-29,53,-4,-48,156,458,517,546,380,195
-39,-68,-29,53,-4,-48,156,458,517,546,380,195
-39,-68,-29,53,-4,-48,156,458,517,546,380,195
-39,-68,-29,53,-4,-48,156,458,517,546,380,195
-29,-68,-39,48,4,-53,146,468,517,556,395,204
-29,-68,-39,48,4,-53,146,468,517,556,400,214
-29,-68,-39,48,4,-53,146,468,517,556,405,224
-29,-68,-39,48,4,-53,146,468,517,556,409,234
-29,-58,-29,43,0,-43,146,463,502,546,400,224
-29,-58,-29,43,0,-43,146,458,497,536,400,224
-29,-58,-29,43,0,-43,146,453,492,527,400,224
-29,-58,-29,43,0,-43,146,448,488,517,400,224
-29,-58,-29,43,0,-43,146,429,463,492,380,219
-29,-58,-29,43,0,-43,146,419,448,468,361,214
-29,-58,-29,43,0,-43,146,409,434,444,341,209
-29,-58,-29,43,0,-43,146,400,419,419,322,204
-34,-68,-34,51,0,-51,136,380,395,390,297,185
-39,-68,-29,53,-4,-48,136,361,370,361,273,165
-43,-68,-24,56,-9,-46,136,341,346,331,248,146
-48,-68,-19,58,-14,-43,136,322,322,302,224,126
-53,-78,-24,65,-14,-51,131,302,297,263,190,107
-58,-87,-29,73,-14,-58,126,283,273,234,165,97
-63,-97,-34,80,-14,-65,122,263,248,204,141,87
-68,-107,-39,87,-14,-73,117,244,224,175,117,78
-73,-112,-39,92,-17,-75,117,229,200,146,92,63
-78,-117,-39,97,-19,-78,117,214,185,126,78,48
-82,-122,-39,102,-21,-80,117,200,170,107,63,34
-87,-126,-39,107,-24,-82,117,185,156,87,48,19
-92,-141,-48,117,-21,-95,117,175,136,73,34,14
-97,-146,-48,122,-24,-97,117,165,126,58,19,9
-102,-151,-48,126,-26,-100,117,156,117,43,4,4
-107,-156,-48,131,-29,-102,117,146,107,29,-9,0
-107,-161,-53,134,-26,-107,117,131,92,19,-24,-9
-107,-165,-58,136,-24,-112,117,126,87,9,-29,-19
-107,-170,-63,139,-21,-117,117,122,82,0,-34,-29
-107,-175,-68,141,-19,-122,117,117,78,-9,-39,-39
-117,-185,-68,151,-24,-126,117,112,63,-24,-48,-34
-117,-185,-68,151,-24,-126,117,107,58,-29,-48,-29
-117,-185,-68,151,-24,-126,117,102,53,-34,-48,-24
-117,-185,-68,151,-24,-126,117,97,48,-39,-48,-19
-117,-185,-68,151,-24,-126,117,87,39,-43,-53,-29
-117,-185,-68,151,-24,-126,117,87,39,-48,-58,-39
-117,-185,-68,151,-24,-126,117,87,39,-53,-63,-48
-117,-185,-68,151,-24,-126,117,87,39,-58,-68,-58
-117,-195,-78,156,-19,-136,117,78,29,-68,-68,-53
-117,-195,-78,156,-19,-136,117,78,29,-68,-68,-48
-117,-195,-78,156,-19,-136,117,78,29,-68,-68,-43
-117,-195,-78,156,-19,-136,117,78,29,-68,-68,-39
-126,-204,-78,165,-24,-141,117,78,29,-78,-68,-43
-126,-204,-78,165,-24,-141,117,78,29,-78,-68,-48
-126,-204,-78,165,-24,-141,117,78,29,-78,-68,-53
-126,-204,-78,165,-24,-141,117,78,29,-78,-68,-58
-126,-204,-78,165,-24,-141,117,78,29,-78,-78,-48
-126,-204,-78,165,-24,-141,117,78,29,-78,-78,-48
-126,-204,-78,165,-24,-141,117,78,29,-78,-78,-48
-126,-204,-78,165,-24,-141,117,78,29,-78,-78,-48
-126,-190,-63,158,-31,-126,112,73,14,-82,-82,-63
-126,-175,-48,151,-39,-112,107,68,9,-87,-87,-68
-126,-161,-34,143,-46,-97,102,63,4,-92,-92,-73
-126,-146,-19,136,-53,-82,97,58,0,-97,-97,-78
-126,-126,0,126,-63,-63,92,53,-9,-102,-102,-82
-126,-117,9,122,-68,-53,87,48,-9,-107,-107,-87
-126,-107,19,117,-73,-43,82,43,-9,-112,-112,-92
-126,-97,29,112,-78,-34,78,39,-9,-117,-117,-97
-126,-92,34,109,-80,-29,68,29,-19,-126,-117,-102
-126,-87,39,107,-82,-24,68,29,-19,-126,-117,-107
-126,-82,43,104,-85,-19,68,29,-19,-126,-117,-112
-126,-78,48,102,-87,-14,68,29,-19,-126,-117,-117
-126,-68,58,97,-92,-4,68,29,-19,-136,-117,-117
-126,-68,58,97,-92,-4,68,29,-19,-136,-117,-117
-126,-68,58,97,-92,-4,68,29,-19,-136,-117,-117
-126,-68,58,97,-92,-4,68,29,-19,-136,-117,-117
-126,-63,63,95,-95,0,68,29,-29,-126,-117,-117
-126,-58,68,92,-97,4,68,29,-29,-126,-117,-117
-126,-53,73,90,-100,9,68,29,-29,-126,-117,-117
-126,-48,78,87,-102,14,68,29,-29,-126,-117,-117
-126,-39,87,82,-107,24,58,19,-29,-136,-126,-126
-126,-39,87,82,-107,24,58,19,-29,-136,-126,-126
-126,-39,87,82,-107,24,58,19,-29,-136,-126,-126
-126,-39,87,82,-107,24,58,19,-29,-136,-126,-126
-136,-34,102,85,-119,34,58,9,-39,-146,-126,-126
-136,-29,107,82,-122,39,58,9,-39,-146,-126,-126
-136,-24,112,80,-124,43,58,9,-39,-146,-126,-126
-136,-19,117,78,-126,48,58,9,-39,-146,-126,-126
-126,-4,122,65,-124,58,48,9,-48,-146,-131,-131
-126,0,126,63,-126,63,48,9,-48,-146,-136,-136
-126,4,131,61,-129,68,48,9,-48,-146,-141,-141
-126,9,136,58,-131,73,48,9,-48,-146,-146,-146
-126,19,146,53,-136,82,48,9,-39,-156,-146,-136
-126,19,146,53,-136,82,48,9,-39,-156,-146,-136
-126,19,146,53,-136,82,48,9,-39,-156,-146,-136
-126,19,146,53,-136,82,48,9,-39,-156,-146,-136
-136,29,165,53,-151,97,39,9,-39,-156,-146,-141
-136,29,165,53,-151,97,39,9,-39,-156,-146,-146
-136,29,165,53,-151,97,39,9,-39,-156,-146,-151
-136,29,165,53,-151,97,39,9,-39,-156,-146,-156
-126,29,156,48,-141,92,48,9,-39,-156,-146,-146
-126,29,156,48,-141,92,48,9,-39,-156,-146,-146
-126,29,156,48,-141,92,48,9,-39,-156,-146,-146
-126,29,156,48,-141,92,48,9,-39,-156,-146,-146
-126,39,165,43,-146,102,48,9,-39,-156,-156,-156
-126,39,165,43,-146,102,48,9,-39,-156,-156,-156
-126,39,165,43,-146,102,48,9,-39,-156,-156,-156
-126,39,165,43,-146,102,48,9,-39,-156,-156,-156
-126,29,156,48,-141,92,39,9,-39,-165,-146,-151
-126,29,156,48,-141,92,39,9,-39,-165,-146,-146
-126,29,156,48,-141,92,39,9,-39,-165,-146,-141
-126,29,156,48,-141,92,39,9,-39,-165,-146,-136
-126,39,165,43,-146,102,39,9,-39,-165,-136,-136
-126,39,165,43,-146,102,39,9,-39,-165,-136,-136
-126,39,165,43,-146,102,39,9,-39,-165,-136,-136
-126,39,165,43,-146,102,39,9,-39,-165,-136,-136
-117,48,165,34,-141,107,48,19,-29,-156,-136,-131
-117,48,165,34,-141,107,48,19,-29,-156,-136,-126
-117,48,165,34,-141,107,48,19,-29,-156,-136,-122
-117,48,165,34,-141,107,48,19,-29,-156,-136,-117
-107,53,161,26,-134,107,58,24,-19,-156,-131,-126
-107,58,165,24,-136,112,68,29,-19,-156,-126,-126
-107,63,170,21,-139,117,78,34,-19,-156,-122,-126
-107,68,175,19,-141,122,87,39,-19,-156,-117,-126
-82,82,165,0,-124,124,97,53,-4,-136,-112,-122
-82,82,165,0,-124,124,97,58,0,-136,-107,-122
-82,92,175,-4,-129,134,107,63,4,-131,-102,-117
-82,97,180,-7,-131,139,117,73,4,-126,-97,-107
-82,107,190,-12,-136,148,122,78,24,-117,-92,-112
-78,112,190,-17,-134,151,126,82,29,-117,-92,-112
-68,126,195,-29,-131,161,131,87,34,-112,-87,-112
-63,126,190,-31,-126,158,136,97,39,-107,-82,-102
-58,117,175,-29,-117,146,126,102,39,-102,-82,-87
-53,117,170,-31,-112,143,126,107,39,-102,-82,-82
-48,112,161,-31,-104,136,112,112,39,-102,-78,-82
-43,112,156,-34,-100,134,87,112,39,-102,-78,-82
-39,107,146,-34,-92,126,63,112,39,-112,-78,-78
-34,102,136,-34,-85,119,43,122,39,-107,-73,-73
-29,97,126,-34,-78,112,19,131,48,-97,-68,-73
-29,92,122,-31,-75,107,4,131,53,-92,-63,-68
-39,102,141,-31,-90,122,-14,122,53,-82,-63,-48
-39,102,141,-31,-90,122,-34,112,53,-82,-63,-48
-39,102,141,-31,-90,122,-53,92,53,-82,-63,-53
-39,102,141,-31,-90,122,-68,73,48,-92,-63,-53
-58,87,146,-14,-102,117,-78,58,29,-107,-82,-63
-63,73,136,-4,-100,104,-87,29,9,-122,-92,-73
-63,63,126,0,-95,95,-92,9,0,-131,-97,-78
-63,58,122,2,-92,90,-92,4,-9,-136,-102,-82
-58,53,112,2,-85,82,-87,-4,-14,-141,-102,-82
-58,53,112,2,-85,82,-78,-9,-14,-141,-102,-82
-53,58,112,-2,-82,85,-73,-4,-9,-136,-107,-82
-53,58,112,-2,-82,85,-68,-9,-9,-136,-107,-82
-53,58,112,-2,-82,85,-63,-4,-14,-136,-107,-92
-53,58,112,-2,-82,85,-53,-4,-14,-141,-107,-92
-48,53,102,-2,-75,78,-53,-9,-19,-146,-117,-97
-48,48,97,0,-73,73,-48,-9,-24,-151,-122,-112
-58,53,112,2,-85,82,-43,-9,-34,-146,-122,-107
-63,48,112,7,-87,80,-39,-9,-34,-146,-126,-107
-68,43,112,12,-90,78,-39,-14,-39,-151,-131,-112
-68,43,112,12,-90,78,-39,-14,-39,-151,-136,-117
-68,34,102,17,-85,68,-29,-9,-48,-151,-136,-126
-68,34,102,17,-85,68,-24,-9,-53,-151,-136,-117
-68,34,102,17,-85,68,-24,-14,-53,-161,-136,-117
-68,29,97,19,-82,63,-24,-14,-53,-161,-141,-131
-68,19,87,24,-78,53,-29,-14,-43,-161,-131,-126
-73,19,92,26,-82,56,-29,-19,-43,-161,-136,-126
-82,14,97,34,-90,56,-19,-19,-43,-161,-136,-131
-102,14,117,43,-109,65,-14,-14,-43,-161,-136,-131
-117,14,131,51,-124,73,9,-9,-39,-156,-146,-136
-131,4,136,63,-134,70,19,-4,-39,-156,-146,-136
-146,0,146,73,-146,73,29,-4,-43,-161,-156,-141
-151,-4,146,78,-148,70,29,-4,-43,-161,-156,-141
-161,-9,151,85,-156,70,29,-4,-43,-165,-156,-151
-170,-9,161,90,-165,75,29,-9,-43,-170,-156,-151
-170,-14,156,92,-163,70,29,-9,-43,-170,-165,-151
-170,-19,151,95,-161,65,34,-9,-48,-175,-165,-161
-170,-34,136,102,-153,51,34,-9,-53,-175,-161,-161
-170,-39,131,104,-151,46,34,-9,-53,-175,-165,-161
-170,-39,131,104,-151,46,39,-9,-53,-175,-165,-156
-170,-39,131,104,-151,46,39,-9,-53,-175,-165,-156
-175,-48,126,112,-151,39,39,-9,-53,-175,-165,-161
-175,-48,126,112,-151,39,39,-9,-53,-175,-165,-161
-175,-48,126,112,-151,39,39,-14,-53,-175,-165,-161
-175,-53,122,114,-148,34,39,-14,-53,-175,-165,-165
-175,-53,122,114,-148,34,48,-4,-53,-170,-165,-161
-175,-48,126,112,-151,39,48,-4,-53,-170,-165,-151
-175,-48,126,112,-151,39,48,-4,-53,-170,-165,-146
-170,-48,122,109,-146,36,48,0,-53,-170,-165,-141
-170,-58,112,114,-141,26,48,-9,-43,-170,-165,-146
-170,-58,112,114,-141,26,48,-9,-43,-170,-165,-151
-170,-58,112,114,-141,26,48,-9,-43,-170,-165,-156
-170,-63,107,117,-139,21,48,-9,-43,-170,-165,-165
-161,-63,97,112,-129,17,58,0,-43,-170,-156,-161
-161,-63,97,112,-129,17,58,-4,-43,-170,-156,-156
-161,-63,97,112,-129,17,58,-4,-43,-170,-156,-146
-165,-63,102,114,-134,19,58,-4,-43,-170,-156,-141
-156,-53,102,104,-129,24,48,-4,-43,-170,-165,-146
-156,-58,97,107,-126,19,48,-4,-43,-170,-165,-156
-156,-58,97,107,-126,19,53,0,-43,-175,-165,-161
-156,-58,97,107,-126,19,53,0,-43,-175,-165,-161
-156,-58,97,107,-126,19,63,9,-34,-161,-156,-141
-156,-48,107,102,-131,29,73,29,-19,-151,-161,-141
-165,-53,112,109,-139,29,82,48,-4,-146,-156,-122
-175,-53,122,114,-148,34,97,68,0,-146,-161,-151
-180,-39,141,109,-161,51,117,87,19,-146,-175,-209
-195,-24,170,109,-183,73,141,126,58,-131,-175,-204
-195,-4,190,100,-192,92,161,185,117,-92,-165,-165
-190,4,195,92,-192,100,190,278,180,-48,-141,-165
-161,14,175,73,-168,95,209,395,273,29,-92,-146
-112,34,146,39,-129,90,209,522,380,136,-9,-87
-73,34,107,19,-90,70,185,585,478,234,82,-4
-29,14,43,7,-36,29,170,556,488,268,122,24
34,9,-24,-21,29,-7,141,473,405,224,117,0
131,-4,-136,-63,134,-70,78,351,273,180,136,53
195,14,-180,-104,187,-82,-4,151,117,136,180,190
258,48,-209,-153,234,-80,-73,-141,-92,73,253,331
307,82,-224,-195,265,-70,-161,-463,-346,-34,302,453
385,117,-268,-251,326,-75,-278,-785,-683,-209,283,541
458,180,-278,-319,368,-48,-395,-1112,-995,-395,283,673
531,283,-248,-407,390,17,-512,-1415,-1185,-478,361,858
619,409,-209,-514,414,100,-644,-1708,-1342,-517,468,1019
727,546,-180,-636,453,183,-795,-1991,-1537,-600,527,1180
829,624,-204,-727,517,209,-927,-2205,-1737,-688,566,1376
941,629,-312,-785,627,158,-1044,-2332,-1893,-717,678,1590
1039,570,-468,-805,753,51,-1127,-2366,-1956,-688,810,1727
1107,453,-653,-780,880,-100,-1176,-2318,-1966,-678,878,1747
1132,341,-790,-736,961,-224,-1210,-2220,-1908,-673,907,1683
1073,219,-854,-646,963,-317,-1205,-2064,-1790,-629,927,1576
917,63,-854,-490,885,-395,-1132,-1854,-1639,-610,893,1385
658,-53,-712,-302,685,-383,-1005,-1634,-1464,-634,824,1156
405,-126,-531,-139,468,-329,-868,-1444,-1234,-566,814,1083
253,-126,-380,-63,317,-253,-736,-1229,-956,-419,873,1063
122,-97,-219,-12,170,-158,-580,-956,-688,-263,868,971
0,-102,-102,51,51,-102,-390,-658,-453,-156,756,761
-78,-126,-48,102,-14,-87,-214,-429,-302,-107,536,483
-102,-117,-14,109,-43,-65,-97,-292,-224,-107,312,278
-82,-82,0,82,-41,-41,-48,-190,-165,-102,175,161
-73,-53,19,63,-46,-17,-9,-102,-112,-82,102,63
-73,-43,29,58,-51,-7,14,-48,-63,-78,29,14
-78,-39,39,58,-58,0,29,-19,-34,-78,-4,19
-92,-39,53,65,-73,7,39,0,-9,-68,-14,9
-102,-48,53,75,-78,2,48,19,14,-68,-19,-14
-112,-39,73,75,-92,17,63,24,14,-63,-29,-43
-122,-19,102,70,-112,41,78,29,24,-48,-19,-24
-126,-9,117,68,-122,53,82,29,29,-34,-14,-4
-126,-9,117,68,-122,53,87,39,34,-29,-4,-29
-126,-9,117,68,-122,53,82,53,43,-24,-14,-58
-126,-9,117,68,-122,53,82,63,48,-24,-34,-48
-117,-19,97,68,-107,39,78,82,58,-24,-63,-53
-126,-19,107,73,-117,43,78,92,68,-34,-73,-78
-126,-19,107,73,-117,43,78,82,68,-43,-73,-87
-126,-19,107,73,-117,43,82,78,68,-43,-73,-87
-126,-19,107,73,-117,43,82,78,68,-39,-68,-87
-126,-14,112,70,-119,48,87,78,68,-39,-68,-87
-131,-14,117,73,-124,51,97,82,68,-29,-63,-92
-131,-14,117,73,-124,51,97,87,78,-29,-63,-92
-131,-14,117,73,-124,51,97,92,82,-29,-73,-102
-131,-14,117,73,-124,51,102,97,82,-24,-73,-107
-122,-9,112,65,-117,51,102,97,82,-24,-78,-117
-122,-9,112,65,-117,51,102,102,87,-24,-78,-112
-122,-4,117,63,-119,56,102,102,87,-24,-78,-97
-122,-4,117,63,-119,56,107,102,87,-24,-78,-87
-131,-14,117,73,-124,51,107,102,97,-19,-73,-87
-131,-14,117,73,-124,51,107,102,102,-19,-73,-92
-131,-9,122,70,-126,56,107,107,102,-19,-73,-102
-126,-9,117,68,-122,53,107,107,102,-14,-73,-107
-126,-9,117,68,-122,53,107,117,107,-14,-63,-102
-126,-14,112,70,-119,48,107,117,107,-9,-63,-112
-126,-14,112,70,-119,48,112,117,107,-9,-63,-102
-126,-14,112,70,-119,48,112,117,112,-4,-63,-97
-117,-14,102,65,-109,43,112,112,102,-4,-68,-107
-117,-14,102,65,-109,43,112,112,102,-4,-63,-107
-117,-14,102,65,-109,43,112,112,102,-4,-63,-107
-117,-14,102,65,-109,43,112,112,102,-4,-68,-112
-126,-19,107,73,-117,43,112,122,107,-14,-68,-102
-126,-19,107,73,-117,43,112,122,107,-9,-68,-102
-126,-14,112,70,-119,48,112,122,107,-4,-68,-102
-126,-14,112,70,-119,48,112,126,107,0,-63,-97
-126,-14,112,70,-119,48,122,126,112,9,-63,-107
-126,-14,112,70,-119,48,122,126,117,4,-63,-102
-126,-14,112,70,-119,48,122,131,117,4,-58,-102
-126,-14,112,70,-119,48,122,131,117,9,-58,-102
-126,-9,117,68,-122,53,112,122,112,0,-68,-102
-122,-9,112,65,-117,51,112,126,112,0,-68,-107
-122,-4,117,63,-119,56,112,126,112,0,-63,-117
-122,-4,117,63,-119,56,112,126,117,14,-63,-102
-122,-4,117,63,-119,56,112,126,126,14,-63,-97
-122,0,122,61,-122,61,112,126,126,14,-58,-97
-122,0,122,61,-122,61,112,131,131,19,-53,-97
-122,0,122,61,-122,61,112,136,131,24,-53,-97
-122,9,131,56,-126,70,102,136,136,29,-58,-107
-122,9,131,56,-126,70,102,136,136,29,-63,-107
-122,9,131,56,-126,70,102,141,131,34,-63,-102
-122,9,131,56,-126,70,102,146,131,39,-63,-102
-131,9,141,61,-136,75,102,146,136,43,-53,-92
-131,9,141,61,-136,75,102,146,136,43,-48,-92
-131,9,141,61,-136,75,102,146,146,48,-43,-87
-131,9,141,61,-136,75,107,151,146,53,-39,-87
-131,9,141,61,-136,75,107,161,161,58,-34,-78
-131,9,141,61,-136,75,107,161,165,68,-29,-73
-131,9,141,61,-136,75,107,161,170,73,-29,-73
-126,14,141,56,-134,78,107,161,175,78,-24,-68
-117,24,141,46,-129,82,107,161,170,92,-29,-73
-117,24,141,46,-129,82,107,165,175,97,-24,-63
-112,24,136,43,-124,80,107,170,185,102,-19,-63
-112,29,141,41,-126,85,107,175,190,107,-9,-63
-112,29,141,41,-126,85,107,185,195,112,4,-48
-112,29,141,41,-126,85,107,190,209,122,9,-43
-112,29,141,41,-126,85,107,190,214,131,19,-39
-107,34,141,36,-124,87,107,195,219,141,24,-39
-107,43,151,31,-129,97,107,200,219,146,19,-29
-107,48,156,29,-131,102,107,209,229,156,34,-29
-102,48,151,26,-126,100,107,214,239,165,34,-29
-102,48,151,26,-126,100,107,224,248,175,48,-34
-107,48,156,29,-131,102,107,229,263,185,58,-29
-107,53,161,26,-134,107,112,239,278,200,68,-14
-107,53,161,26,-134,107,112,244,283,209,78,-9
-102,53,156,24,-129,104,112,248,292,224,92,-4
-92,48,141,21,-117,95,112,253,307,239,112,0
-92,53,146,19,-119,100,112,268,317,253,122,14
-87,53,141,17,-114,97,112,278,331,268,131,19
-87,58,146,14,-117,102,112,287,341,273,146,24
-92,68,161,12,-126,114,122,307,341,292,146,24
-87,73,161,7,-124,117,122,317,351,307,156,29
-82,73,156,4,-119,114,122,326,366,326,170,43
-82,73,156,4,-119,114,122,331,375,341,185,43
-82,78,161,2,-122,119,122,341,395,356,195,39
-73,82,156,-4,-114,119,122,351,405,375,209,53
-73,82,156,-4,-114,119,122,356,414,390,219,63
-68,82,151,-7,-109,117,122,366,424,400,229,63
-63,87,151,-12,-107,119,122,366,419,409,244,78
-58,97,156,-19,-107,126,117,375,424,419,253,78
-53,97,151,-21,-102,124,117,385,429,434,263,92
-53,97,151,-21,-102,124,117,390,434,439,273,92
-48,107,156,-29,-102,131,117,395,444,448,278,102
-43,112,156,-34,-100,134,112,395,453,458,292,117
-43,112,156,-34,-100,134,112,400,453,458,297,126
-39,112,151,-36,-95,131,112,400,453,468,302,126
-29,112,141,-41,-85,126,112,400,453,468,312,131
-24,117,141,-46,-82,129,112,400,453,473,317,131
-24,117,141,-46,-82,129,107,400,453,473,322,136
-19,122,141,-51,-80,131,102,400,444,473,322,141
-19,122,141,-51,-80,131,102,405,444,468,322,141
-19,126,146,-53,-82,136,102,405,439,463,322,146
-14,126,141,-56,-78,134,102,400,434,458,322,165
-14,126,141,-56,-78,134,102,400,419,444,317,156
-14,131,146,-58,-80,139,87,390,409,414,307,131
-14,131,146,-58,-80,139,87,375,395,395,292,126
-14,131,146,-58,-80,139,92,361,380,375,278,122
-19,131,151,-56,-85,141,92,351,356,346,258,112
-24,131,156,-53,-90,143,87,326,336,326,219,102
-29,131,161,-51,-95,146,82,312,307,292,200,92
-34,131,165,-48,-100,148,78,292,287,268,175,92
-39,122,161,-41,-100,141,68,273,263,239,151,63
-34,117,151,-41,-92,134,68,239,229,200,126,34
-39,112,151,-36,-95,131,68,219,200,170,102,14
-43,107,151,-31,-97,129,68,204,180,146,78,4
-48,102,151,-26,-100,126,68,185,161,117,53,0
-63,92,156,-14,-109,124,73,175,141,87,29,-4
-68,82,151,-7,-109,117,73,151,122,68,4,-19
-73,68,141,2,-107,104,73,141,102,43,-9,-24
-78,58,136,9,-107,97,73,126,82,24,-29,-34
-73,63,136,4,-104,100,63,117,82,14,-39,-58
-73,58,131,7,-102,95,63,102,68,0,-43,-73
-78,53,131,12,-104,92,63,87,58,-14,-53,-87
-78,48,126,14,-102,87,68,82,43,-29,-68,-92
-82,39,122,21,-102,80,68,73,39,-43,-87,-97
-82,34,117,24,-100,75,68,68,29,-53,-97,-97
-87,29,117,29,-102,73,68,68,19,-58,-107,-97
-87,29,117,29,-102,73,68,53,9,-73,-112,-92
-97,29,126,34,-112,78,58,43,9,-73,-117,-112
-97,29,126,34,-112,78,58,43,0,-78,-112,-112
-97,24,122,36,-109,73,53,39,-4,-82,-117,-117
-97,24,122,36,-109,73,53,34,-9,-82,-117,-117
-97,29,126,34,-112,78,53,34,-14,-97,-122,-112
-102,29,131,36,-117,80,53,29,-19,-102,-126,-112
-102,29,131,36,-117,80,53,29,-24,-107,-126,-112
-102,29,131,36,-117,80,53,29,-24,-107,-131,-112
-102,24,126,39,-114,75,53,19,-24,-107,-146,-117
-102,24,126,39,-114,75,53,14,-24,-117,-146,-131
-102,24,126,39,-114,75,53,9,-29,-117,-141,-136
-107,24,131,41,-119,78,53,9,-29,-126,-141,-136
-97,34,131,31,-114,82,58,9,-39,-126,-156,-136
-97,34,131,31,-114,82,58,4,-43,-122,-156,-146
-97,29,126,34,-112,78,58,4,-43,-122,-161,-146
-97,29,126,34,-112,78,58,4,-48,-122,-161,-141
-97,29,126,34,-112,78,53,4,-39,-131,-151,-141
-97,29,126,34,-112,78,53,4,-39,-136,-151,-146
-97,29,126,34,-112,78,53,4,-39,-141,-151,-151
-97,29,126,34,-112,78,53,0,-39,-141,-156,-151
-107,29,136,39,-122,82,43,0,-48,-141,-146,-141
-107,29,136,39,-122,82,43,0,-48,-141,-146,-141
-112,29,141,41,-126,85,43,0,-53,-141,-146,-141
-112,29,141,41,-126,85,43,0,-53,-146,-146,-136
-102,29,131,36,-117,80,53,0,-53,-146,-156,-136
-102,29,131,36,-117,80,48,0,-53,-146,-151,-136
-97,29,126,34,-112,78,48,0,-53,-146,-151,-141
-97,29,126,34,-112,78,48,0,-53,-146,-151,-141
-102,29,131,36,-117,80,43,0,-53,-146,-161,-141
-102,29,131,36,-117,80,43,0,-53,-146,-161,-141
-102,29,131,36,-117,80,43,0,-53,-146,-161,-146
-102,29,131,36,-117,80,43,0,-58,-146,-161,-146
-102,29,131,36,-117,80,53,0,-58,-141,-161,-156
-97,29,126,34,-112,78,53,0,-53,-141,-161,-156
-97,29,126,34,-112,78,48,0,-53,-146,-161,-156
-102,29,131,36,-117,80,48,0,-53,-146,-161,-161
-102,29,131,36,-117,80,48,9,-43,-156,-156,-165
-102,29,131,36,-117,80,48,9,-43,-156,-156,-151
-102,29,131,36,-117,80,48,9,-43,-156,-156,-146
-102,29,131,36,-117,80,53,9,-43,-156,-156,-141
-102,29,131,36,-117,80,43,0,-43,-151,-146,-136
-102,29,131,36,-117,80,43,4,-43,-151,-146,-141
-102,29,131,36,-117,80,43,4,-43,-161,-146,-151
-102,29,131,36,-117,80,43,4,-43,-161,-146,-165
-102,29,131,36,-117,80,43,4,-53,-161,-156,-156
-102,29,131,36,-117,80,43,4,-53,-161,-151,-156
-102,29,131,36,-117,80,43,4,-53,-161,-151,-156
-102,29,131,36,-117,80,43,4,-48,-161,-151,-156
-92,34,126,29,-109,80,43,14,-39,-161,-151,-161
-92,34,126,29,-109,80,43,14,-39,-156,-151,-161
-92,29,122,31,-107,75,43,14,-39,-156,-151,-161
-92,29,122,31,-107,75,43,14,-39,-161,-151,-165
-102,39,141,31,-122,90,53,4,-48,-161,-151,-156
-102,43,146,29,-124,95,53,4,-43,-161,-151,-156
-102,43,146,29,-124,95,53,4,-43,-165,-156,-156
-102,43,146,29,-124,95,53,4,-43,-165,-156,-156
-102,34,136,34,-119,85,53,4,-34,-156,-156,-156
-102,34,136,34,-119,85,53,9,-29,-151,-156,-146
-102,39,141,31,-122,90,53,9,-29,-151,-156,-156
-102,39,141,31,-122,90,53,9,-34,-151,-156,-156
-92,24,117,34,-104,70,43,14,-34,-161,-156,-156
-97,24,122,36,-109,73,43,14,-24,-161,-156,-156
-97,24,122,36,-109,73,43,14,-24,-156,-151,-156
-97,24,122,36,-109,73,43,9,-24,-156,-151,-156
-97,34,131,31,-114,82,43,9,-34,-146,-151,-146
-97,39,136,29,-117,87,43,9,-34,-141,-151,-141
-97,39,136,29,-117,87,43,9,-29,-141,-151,-141
-92,39,131,26,-112,85,43,9,-29,-141,-151,-141
-92,39,131,26,-112,85,43,9,-29,-151,-151,-146
-92,39,131,26,-112,85,43,9,-34,-151,-151,-151
-92,39,131,26,-112,85,43,9,-34,-151,-146,-156
-92,39,131,26,-112,85,43,14,-34,-151,-146,-161
-92,34,126,29,-109,80,53,14,-34,-141,-136,-156
-92,34,126,29,-109,80,48,14,-34,-141,-136,-146
-92,34,126,29,-109,80,48,14,-34,-141,-136,-131
-92,39,131,26,-112,85,48,14,-34,-141,-136,-126
-97,39,136,29,-117,87,58,19,-14,-141,-136,-156
-92,48,141,21,-117,95,73,29,-9,-131,-136,-136
-82,58,141,12,-112,100,73,39,-9,-131,-131,-112
-78,58,136,9,-107,97,78,39,-9,-126,-136,-117
-78,63,141,7,-109,102,87,48,0,-117,-126,-107
-78,68,146,4,-112,107,87,48,0,-117,-126,-107
-78,73,151,2,-114,112,87,48,0,-117,-126,-107
-78,78,156,0,-117,117,87,48,0,-117,-126,-107
-63,73,136,-4,-100,104,92,53,14,-97,-112,-107
-63,73,136,-4,-100,104,97,58,19,-97,-107,-112
-63,82,146,-9,-104,114,112,63,24,-92,-102,-112
-63,87,151,-12,-107,119,126,73,24,-87,-97,-107
-58,87,146,-14,-102,117,141,87,34,-87,-92,-97
-48,92,141,-21,-95,117,146,92,39,-87,-92,-92
-34,107,141,-36,-87,124,151,97,43,-82,-87,-87
-24,107,131,-41,-78,119,156,107,48,-78,-82,-73
-19,112,131,-46,-75,122,146,102,48,-63,-73,-82
-14,117,131,-51,-73,124,146,107,48,-63,-73,-82
-9,117,126,-53,-68,122,131,112,48,-63,-68,-87
-4,122,126,-58,-65,124,107,112,48,-63,-68,-92
0,122,122,-61,-61,122,73,122,48,-73,-78,-82
4,122,117,-63,-56,119,53,131,48,-68,-73,-73
9,122,112,-65,-51,117,29,141,58,-58,-68,-68
9,122,112,-65,-51,117,14,141,63,-53,-63,-58
0,122,122,-61,-61,122,4,131,63,-53,-63,-53
0,122,122,-61,-61,122,-14,122,63,-53,-63,-58
0,122,122,-61,-61,122,-34,102,63,-53,-63,-68
0,122,122,-61,-61,122,-48,82,58,-63,-63,-73
0,117,117,-58,-58,117,-68,68,39,-68,-73,-68
-4,102,107,-48,-56,104,-78,39,19,-82,-82,-73
-4,92,97,-43,-51,95,-82,19,9,-92,-87,-73
-4,87,92,-41,-48,90,-82,14,0,-97,-92,-73
-9,73,82,-31,-46,78,-87,0,-14,-102,-102,-87
-9,73,82,-31,-46,78,-78,0,-14,-102,-102,-92
-4,78,82,-36,-43,80,-73,9,-9,-97,-107,-97
-4,78,82,-36,-43,80,-68,9,-9,-97,-107,-102
-4,87,92,-41,-48,90,-53,4,-4,-87,-97,-92
-4,87,92,-41,-48,90,-43,4,-4,-92,-97,-82
0,82,82,-41,-41,82,-43,0,-9,-97,-107,-78
0,78,78,-39,-39,78,-39,0,-14,-102,-112,-82
-9,73,82,-31,-46,78,-24,0,-14,-107,-102,-102
-14,68,82,-26,-48,75,-19,0,-14,-107,-107,-107
-19,63,82,-21,-51,73,-19,-4,-19,-112,-112,-117
-19,63,82,-21,-51,73,-19,-4,-19,-112,-117,-126
-19,63,82,-21,-51,73,-19,0,-29,-112,-126,-122
-19,63,82,-21,-51,73,-14,0,-34,-112,-126,-107
-19,63,82,-21,-51,73,-14,-4,-34,-122,-126,-102
-19,58,78,-19,-48,68,-14,-4,-34,-122,-131,-112
-9,58,68,-24,-39,63,-9,4,-34,-122,-131,-122
-14,58,73,-21,-43,65,-9,0,-34,-122,-136,-126
-24,53,78,-14,-51,65,0,0,-34,-122,-136,-136
-43,53,97,-4,-70,75,4,4,-34,-122,-136,-141
-58,53,112,2,-85,82,19,0,-29,-117,-136,-126
-73,43,117,14,-95,80,29,4,-29,-117,-136,-126
-87,39,126,24,-107,82,39,4,-34,-122,-146,-131
-92,34,126,29,-109,80,39,4,-34,-122,-146,-131
-102,29,131,36,-117,80,39,4,-34,-126,-146,-151
-112,29,141,41,-126,85,39,0,-34,-131,-146,-151
-112,24,136,43,-124,80,39,0,-34,-131,-156,-151
-112,19,131,46,-122,75,43,0,-39,-136,-156,-161
-122,4,126,58,-124,65,43,0,-43,-126,-161,-151
-122,0,122,61,-122,61,43,0,-43,-126,-165,-151
-122,0,122,61,-122,61,48,0,-43,-126,-165,-146
-122,0,122,61,-122,61,48,0,-43,-126,-165,-146
-126,0,126,63,-126,63,39,0,-43,-126,-165,-161
-126,0,126,63,-126,63,39,0,-43,-126,-165,-161
-126,0,126,63,-126,63,39,-4,-43,-126,-165,-161
-126,-4,122,65,-124,58,39,-4,-43,-126,-165,-165
-117,4,122,56,-119,63,39,-4,-43,-131,-165,-165
-117,9,126,53,-122,68,39,-4,-43,-131,-165,-161
-117,9,126,53,-122,68,39,-4,-43,-131,-165,-161
-112,9,122,51,-117,65,39,0,-43,-131,-165,-161
-122,0,122,61,-122,61,39,0,-43,-141,-165,-161
-122,0,122,61,-122,61,39,0,-43,-141,-165,-161
-122,0,122,61,-122,61,39,0,-43,-141,-165,-161
-122,-4,117,63,-119,56,39,0,-43,-141,-165,-165
-122,-4,117,63,-119,56,39,0,-43,-131,-165,-165
-122,-4,117,63,-119,56,39,-4,-43,-131,-165,-165
-122,-4,117,63,-119,56,39,-4,-43,-131,-165,-161
-126,-4,122,65,-124,58,39,-4,-43,-131,-165,-161
-117,-4,112,61,-114,53,48,-4,-43,-122,-165,-151
-117,-9,107,63,-112,48,48,-4,-43,-122,-165,-156
-117,-9,107,63,-112,48,53,0,-43,-126,-165,-156
-117,-9,107,63,-112,48,53,0,-43,-126,-165,-151
-117,0,117,58,-117,58,43,0,-34,-122,-165,-180
-126,0,126,63,-126,63,53,19,-29,-122,-170,-151
-136,-4,131,70,-134,63,63,29,-24,-117,-175,-161
-156,4,161,75,-158,82,78,39,-9,-126,-170,-180
-161,9,170,75,-165,90,107,78,9,-117,-175,-190
-156,24,180,65,-168,102,131,126,48,-82,-175,-175
-175,43,219,65,-197,131,151,175,107,-53,-175,-175
-170,53,224,58,-197,139,170,258,180,-19,-151,-214
-141,63,204,39,-173,134,180,375,263,48,-112,-195
-92,73,165,9,-129,119,190,502,370,156,-29,-117
-43,73,117,-14,-80,95,175,575,468,263,53,-53
0,53,53,-26,-26,53,151,566,488,317,112,-14
63,29,-34,-46,48,-2,131,492,434,292,126,0
141,24,-117,-82,129,-46,97,400,331,268,156,73
214,34,-180,-124,197,-73,24,219,185,224,209,190
258,58,-200,-158,229,-70,-53,-63,-4,161,283,302
326,92,-234,-209,280,-70,-141,-385,-268,63,331,414
414,117,-297,-265,356,-90,-248,-697,-605,-122,302,551
488,170,-317,-329,402,-73,-375,-1015,-936,-326,283,663
561,263,-297,-412,429,-17,-502,-1307,-1166,-429,341,819
658,400,-258,-529,458,70,-634,-1600,-1322,-478,448,1000
756,536,-219,-646,488,158,-775,-1883,-1498,-561,517,1190
839,634,-204,-736,522,214,-907,-2127,-1737,-678,556,1395
941,649,-292,-795,617,178,-1034,-2293,-1942,-746,629,1571
1058,600,-458,-829,758,70,-1127,-2366,-2044,-756,732,1678
1127,492,-634,-810,880,-70,-1176,-2327,-2064,-756,780,1717
1151,380,-771,-766,961,-195,-1200,-2230,-2025,-771,780,1634
1093,239,-854,-666,973,-307,-1205,-2083,-1927,-756,780,1468
946,92,-854,-519,900,-380,-1141,-1893,-1756,-717,775,1268
707,-24,-732,-341,719,-378,-1024,-1673,-1571,-702,707,1078
473,-97,-570,-187,522,-334,-888,-1473,-1342,-624,717,1005
302,-117,-419,-92,361,-268,-775,-1278,-1073,-478,785,985
170,-87,-258,-41,214,-173,-639,-1024,-795,-312,790,873
48,-63,-112,7,80,-87,-458,-727,-531,-175,688,702
-48,-78,-29,63,-9,-53,-263,-488,-361,-126,488,473
-82,-78,4,80,-43,-36,-136,-341,-273,-117,263,239
-73,-43,29,58,-51,-7,-68,-239,-204,-102,136,102
-53,-14,39,34,-46,12,-29,-131,-141,-73,73,34
-43,4,48,19,-46,26,-4,-58,-82,-48,19,14
-48,0,48,24,-48,24,9,-19,-43,-29,-14,9
-63,0,63,31,-63,31,19,0,-19,-29,-34,-29
-82,0,82,41,-82,41,29,9,-4,-19,-48,-63
-92,0,92,46,-92,46,43,14,4,-14,-48,-43
-92,19,112,36,-102,65,48,9,14,-9,-39,-34
-97,19,117,39,-107,68,53,9,19,-4,-34,-53
-107,29,136,39,-122,82,58,19,14,0,-24,-58
-107,29,136,39,-122,82,63,34,34,4,-34,-58
-107,19,126,43,-117,73,73,63,39,24,-43,-48
-107,19,126,43,-117,73,78,82,58,24,-63,-73
-97,19,117,39,-107,68,68,82,68,14,-73,-126
-107,19,126,43,-117,73,68,73,58,4,-92,-122
-107,19,126,43,-117,73,73,68,58,4,-92,-117
-107,19,126,43,-117,73,73,68,58,9,-87,-112
-107,24,131,41,-119,78,78,68,58,9,-87,-107
-112,24,136,43,-124,80,78,73,58,9,-82,-102
-112,24,136,43,-124,80,78,78,68,9,-82,-102
-112,24,136,43,-124,80,78,82,73,9,-92,-112
-112,24,136,43,-124,80,82,87,73,14,-92,-117
-112,9,122,51,-117,65,82,87,73,24,-87,-131
-112,9,122,51,-117,65,82,92,78,24,-87,-131
-112,14,126,48,-119,70,82,92,78,24,-87,-122
-112,14,126,48,-119,70,87,92,78,24,-87,-117
-112,14,126,48,-119,70,87,92,87,29,-82,-102
-112,14,126,48,-119,70,87,92,92,29,-82,-102
-112,19,131,46,-122,75,87,97,92,29,-82,-107
-107,19,126,43,-117,73,87,97,92,34,-82,-107
-97,29,126,34,-112,78,78,97,87,24,-82,-122
-97,24,122,36,-109,73,78,97,87,29,-82,-131
-97,24,122,36,-109,73,82,97,87,29,-82,-122
-97,24,122,36,-109,73,82,97,92,34,-82,-117
-107,24,131,41,-119,78,82,102,92,43,-78,-107
-107,24,131,41,-119,78,82,102,92,43,-73,-107
-107,24,131,41,-119,78,82,102,92,43,-73,-107
-107,24,131,41,-119,78,82,102,92,43,-78,-112
-107,29,136,39,-122,82,92,102,97,43,-68,-122
-107,29,136,39,-122,82,92,102,97,48,-68,-122
-107,34,141,36,-124,87,92,102,97,53,-68,-122
-107,34,141,36,-124,87,92,107,97,58,-63,-117
-97,34,131,31,-114,82,82,107,102,58,-63,-107
-97,34,131,31,-114,82,82,107,107,53,-63,-102
-97,34,131,31,-114,82,82,112,107,53,-58,-102
-97,34,131,31,-114,82,82,112,107,58,-58,-102
-97,29,126,34,-112,78,82,112,102,58,-68,-107
-92,29,122,31,-107,75,82,117,102,58,-68,-117
-92,34,126,29,-109,80,82,117,102,58,-63,-131
-92,34,126,29,-109,80,82,117,107,73,-63,-122
-102,24,126,39,-114,75,92,117,117,73,-63,-107
-102,29,131,36,-117,80,92,117,117,73,-58,-107
-102,29,131,36,-117,80,92,122,122,78,-53,-107
-102,29,131,36,-117,80,92,126,122,82,-53,-107
-92,29,122,31,-107,75,82,126,131,97,-43,-107
-92,29,122,31,-107,75,82,126,136,97,-43,-107
-92,29,122,31,-107,75,82,131,136,102,-39,-102
-92,29,122,31,-107,75,82,136,141,107,-34,-102
-92,29,122,31,-107,75,82,126,146,102,-43,-82
-92,29,122,31,-107,75,82,126,146,102,-39,-82
-92,29,122,31,-107,75,82,126,156,107,-34,-78
-92,29,122,31,-107,75,87,131,156,112,-29,-78
-82,39,122,21,-102,80,87,151,161,126,-24,-82
-82,39,122,21,-102,80,87,151,165,136,-19,-82
-82,39,122,21,-102,80,87,151,170,141,-19,-87
-78,43,122,17,-100,82,87,151,175,146,-14,-87
-87,34,122,26,-104,78,97,161,190,161,0,-78
-87,34,122,26,-104,78,97,165,195,165,4,-63
-82,34,117,24,-100,75,97,170,204,170,9,-58
-82,39,122,21,-102,80,97,175,209,175,19,-53
-92,29,122,31,-107,75,97,185,214,190,34,-58
-92,29,122,31,-107,75,97,190,229,200,39,-53
-92,29,122,31,-107,75,97,190,234,209,48,-48
-87,34,122,26,-104,78,97,195,239,219,53,-48
-78,43,122,17,-100,82,87,200,239,224,48,-24
-78,48,126,14,-102,87,87,209,248,234,63,-19
-73,48,122,12,-97,85,87,214,258,244,63,-14
-73,48,122,12,-97,85,87,224,268,253,78,-14
-58,48,107,4,-82,78,87,229,273,263,78,-19
-58,53,112,2,-85,82,92,239,287,278,87,-14
-58,53,112,2,-85,82,92,244,292,287,97,-19
-53,53,107,0,-80,80,92,248,302,302,112,-24
-63,48,112,7,-87,80,92,253,307,307,122,0
-63,53,117,4,-90,85,92,268,317,322,131,14
-58,53,112,2,-85,82,92,278,331,336,141,19
-58,58,117,0,-87,87,92,287,341,341,156,24
-53,58,112,-2,-82,85,102,297,361,361,165,24
-48,63,112,-7,-80,87,102,307,370,375,175,29
-43,63,107,-9,-75,85,102,317,385,395,190,43
-43,63,107,-9,-75,85,102,322,395,409,204,43
-43,68,112,-12,-78,90,92,331,395,414,214,58
-34,73,107,-19,-70,90,92,341,405,434,229,73
-34,73,107,-19,-70,90,92,346,414,448,239,82
-29,73,102,-21,-65,87,92,356,424,458,248,82
-24,78,102,-26,-63,90,82,356,429,468,253,92
-19,87,107,-34,-63,97,78,366,434,478,263,87
-14,87,102,-36,-58,95,78,375,439,492,273,97
-14,87,102,-36,-58,95,78,380,444,497,283,92
0,97,97,-48,-48,97,78,375,444,497,287,92
4,102,97,-53,-46,100,73,375,453,507,302,107
4,102,97,-53,-46,100,73,380,453,507,307,117
9,102,92,-56,-41,97,73,380,453,517,312,117
19,102,82,-61,-31,92,82,390,463,517,322,122
24,107,82,-65,-29,95,82,390,463,522,326,122
24,107,82,-65,-29,95,78,390,463,522,331,126
29,112,82,-70,-26,97,73,390,453,522,331,131
19,102,82,-61,-31,92,73,395,453,527,331,131
19,107,87,-63,-34,97,73,395,448,522,331,136
24,107,82,-65,-29,95,73,390,444,517,331,156
24,107,82,-65,-29,95,73,390,429,502,326,146
34,112,78,-73,-21,95,58,390,419,483,317,141
34,112,78,-73,-21,95,58,375,405,463,302,136
34,112,78,-73,-21,95,63,361,390,444,287,131
29,112,82,-70,-26,97,63,351,366,414,268,122
24,112,87,-68,-31,100,53,326,346,375,239,112
19,112,92,-65,-36,102,53,312,317,341,219,102
14,112,97,-63,-41,104,53,292,297,317,195,102
9,102,92,-56,-41,97,48,273,273,287,170,73
-4,97,102,-46,-53,100,48,248,248,258,146,48
-9,92,102,-41,-56,97,48,229,219,229,122,34
-14,87,102,-36,-58,95,48,214,200,204,97,29
-19,82,102,-31,-61,92,48,195,180,175,73,29
-24,68,92,-21,-58,80,53,185,161,146,58,9
-29,63,92,-17,-61,78,53,161,141,126,34,-9
-34,53,87,-9,-61,70,53,151,122,102,19,-19
-39,48,87,-4,-63,68,53,136,102,82,0,-34
-43,43,87,0,-65,65,43,136,102,73,-19,-43
-43,39,82,2,-63,61,43,122,87,58,-24,-53
-48,34,82,7,-65,58,43,107,78,43,-34,-63
-48,29,78,9,-63,53,48,102,63,29,-48,-63
-63,24,87,19,-75,56,48,92,58,24,-58,-73
-63,24,87,19,-75,56,48,87,48,14,-68,-78
-68,24,92,21,-80,58,48,87,39,9,-78,-82
-68,29,97,19,-82,63,48,73,29,-4,-82,-82
-68,29,97,19,-82,63,48,53,29,-14,-92,-92
-68,29,97,19,-82,63,48,53,19,-19,-92,-92
-68,24,92,21,-80,58,43,48,14,-24,-102,-97
-68,24,92,21,-80,58,43,43,9,-24,-107,-97
-68,19,87,24,-78,53,43,43,4,-39,-102,-112
-73,19,92,26,-82,56,43,39,0,-43,-107,-112
-73,19,92,26,-82,56,43,39,-4,-48,-107,-112
-73,19,92,26,-82,56,43,39,-4,-48,-112,-112
-73,4,78,34,-75,41,43,39,-4,-39,-126,-102
-73,4,78,34,-75,41,43,34,-4,-48,-126,-112
-73,4,78,34,-75,41,43,29,-9,-48,-122,-112
-78,4,82,36,-80,43,43,29,-9,-58,-122,-107
-78,4,82,36,-80,43,58,39,-9,-58,-117,-117
-78,4,82,36,-80,43,58,34,-14,-53,-117,-126
-78,0,78,39,-78,39,58,34,-14,-53,-122,-126
-78,0,78,39,-78,39,58,34,-19,-53,-122,-122
-87,9,97,39,-92,53,53,24,-19,-63,-122,-117
-87,9,97,39,-92,53,53,24,-19,-68,-122,-117
-87,9,97,39,-92,53,53,24,-19,-73,-122,-117
-87,9,97,39,-92,53,53,19,-19,-73,-126,-112
-78,9,87,34,-82,48,53,19,-29,-73,-136,-126
-78,9,87,34,-82,48,53,19,-29,-73,-136,-131
-82,9,92,36,-87,51,53,19,-34,-73,-136,-136
-82,9,92,36,-87,51,53,19,-34,-78,-136,-136
-92,0,92,46,-92,46,43,19,-24,-78,-126,-122
-92,0,92,46,-92,46,39,19,-24,-78,-122,-117
-87,0,87,43,-87,43,39,19,-24,-78,-122,-117
-87,0,87,43,-87,43,39,19,-24,-78,-122,-112
-82,9,92,36,-87,51,43,9,-34,-87,-131,-126
-82,9,92,36,-87,51,43,9,-34,-87,-131,-131
-82,9,92,36,-87,51,43,9,-34,-87,-131,-141
-82,9,92,36,-87,51,43,9,-39,-87,-131,-146
-73,9,82,31,-78,46,53,19,-29,-82,-122,-136
-68,9,78,29,-73,43,53,19,-24,-82,-122,-126
-68,9,78,29,-73,43,48,19,-24,-87,-122,-117
-73,9,82,31,-78,46,48,19,-24,-87,-122,-112
-82,9,92,36,-87,51,48,19,-24,-78,-126,-126
-82,9,92,36,-87,51,48,19,-24,-78,-126,-122
-82,9,92,36,-87,51,48,19,-24,-78,-126,-126
-82,9,92,36,-87,51,53,19,-24,-78,-126,-131
-82,0,82,41,-82,41,43,19,-34,-82,-126,-112
-82,0,82,41,-82,41,43,24,-34,-82,-126,-112
-82,0,82,41,-82,41,43,24,-34,-92,-126,-117
-82,0,82,41,-82,41,43,24,-34,-92,-126,-126
-82,0,82,41,-82,41,43,24,-24,-92,-126,-131
-82,0,82,41,-82,41,43,24,-24,-92,-122,-136
-82,0,82,41,-82,41,43,24,-24,-92,-122,-141
-82,0,82,41,-82,41,43,24,-19,-92,-122,-146
-82,14,97,34,-90,56,43,24,-19,-92,-122,-136
-82,14,97,34,-90,56,43,24,-19,-87,-122,-131
-82,9,92,36,-87,51,43,24,-19,-87,-122,-126
-82,9,92,36,-87,51,43,24,-19,-92,-122,-126
-82,9,92,36,-87,51,43,34,-19,-92,-122,-136
-82,14,97,34,-90,56,43,34,-14,-92,-122,-136
-82,14,97,34,-90,56,43,34,-14,-97,-126,-136
-82,14,97,34,-90,56,43,34,-14,-97,-126,-136
-82,14,97,34,-90,56,43,24,-24,-97,-126,-126
-82,14,97,34,-90,56,43,29,-19,-92,-126,-117
-82,19,102,31,-92,61,43,29,-19,-92,-126,-126
-82,19,102,31,-92,61,43,29,-24,-92,-126,-126
-82,14,97,34,-90,56,53,43,-14,-82,-117,-136
-87,14,102,36,-95,58,53,43,-4,-82,-117,-136
-87,14,102,36,-95,58,53,43,-4,-78,-112,-136
-87,14,102,36,-95,58,53,39,-4,-78,-112,-136
-78,14,92,31,-85,53,53,29,-4,-87,-112,-126
-78,19,97,29,-87,58,53,29,-4,-82,-112,-122
-78,19,97,29,-87,58,53,29,0,-82,-112,-122
-73,19,92,26,-82,56,53,29,0,-82,-112,-122
-82,19,102,31,-92,61,43,39,0,-82,-112,-131
-82,19,102,31,-92,61,43,39,-4,-82,-112,-131
-82,19,102,31,-92,61,43,39,-4,-82,-107,-131
-82,19,102,31,-92,61,43,43,-4,-82,-107,-131
-82,34,117,24,-100,75,43,34,-4,-73,-117,-131
-82,34,117,24,-100,75,39,34,-4,-73,-117,-126
-82,34,117,24,-100,75,39,34,-4,-73,-117,-117
-82,39,122,21,-102,80,39,34,-4,-73,-117,-117
-87,39,126,24,-107,82,48,48,4,-63,-107,-117
-73,39,112,17,-92,75,53,48,0,-63,-107,-87
-63,39,102,12,-82,70,53,48,0,-63,-102,-102
-63,43,107,9,-85,75,53,39,0,-73,-102,-141
-58,48,107,4,-82,78,68,39,9,-68,-107,-126
-58,48,107,4,-82,78,73,48,19,-58,-97,-112
-58,48,107,4,-82,78,78,48,19,-58,-97,-107
-58,48,107,4,-82,78,82,48,19,-58,-97,-102
-58,48,107,4,-82,78,87,48,19,-58,-97,-97
-34,58,92,-12,-63,75,87,58,24,-48,-82,-102
-34,63,97,-14,-65,80,87,68,29,-48,-78,-102
-34,78,112,-21,-73,95,97,78,34,-43,-73,-97
-34,87,122,-26,-78,104,107,92,34,-39,-68,-87
-43,82,126,-19,-85,104,112,92,43,-29,-63,-82
-39,82,122,-21,-80,102,117,92,48,-29,-63,-82
-29,92,122,-31,-75,107,122,92,53,-24,-58,-82
-24,87,112,-31,-68,100,126,97,58,-19,-53,-73
-29,97,126,-34,-78,112,136,112,68,-4,-53,-68
-24,97,122,-36,-73,109,136,117,68,-4,-53,-63
-19,92,112,-36,-65,102,122,122,68,-4,-48,-63
-14,92,107,-39,-61,100,97,122,68,-4,-48,-63
-9,92,102,-41,-56,97,82,122,68,-14,-48,-68
-4,92,97,-43,-51,95,63,131,68,-9,-43,-63
0,92,92,-46,-46,92,39,141,78,0,-39,-63
0,92,92,-46,-46,92,24,141,82,4,-34,-58
9,92,82,-51,-36,87,4,151,82,14,-34,-39
9,92,82,-51,-36,87,-14,141,82,14,-34,-39
9,92,82,-51,-36,87,-34,122,82,14,-34,-43
9,92,82,-51,-36,87,-48,102,78,4,-34,-43
0,87,87,-43,-43,87,-78,78,48,0,-43,-43
-4,73,78,-34,-41,75,-87,48,29,-14,-53,-53
-4,63,68,-29,-36,65,-92,29,19,-24,-58,-58
-4,58,63,-26,-34,61,-92,24,9,-29,-63,-63
0,53,53,-26,-26,53,-87,19,14,-43,-63,-53
0,53,53,-26,-26,53,-78,19,14,-43,-63,-53
4,58,53,-31,-24,56,-73,29,19,-39,-68,-53
4,58,53,-31,-24,56,-68,29,19,-39,-68,-53
4,68,63,-36,-29,65,-63,24,14,-39,-68,-63
4,68,63,-36,-29,65,-53,24,14,-43,-68,-63
9,63,53,-36,-21,58,-53,19,9,-48,-78,-68
9,58,48,-34,-19,53,-48,19,4,-53,-82,-82
0,53,53,-26,-26,53,-34,9,-14,-58,-82,-78
-4,48,53,-21,-29,51,-29,9,-14,-58,-87,-78
-9,43,53,-17,-31,48,-29,4,-19,-63,-92,-82
-9,43,53,-17,-31,48,-29,4,-19,-63,-97,-87
-9,34,43,-12,-26,39,-29,19,-14,-63,-97,-92
-9,34,43,-12,-26,39,-24,19,-14,-63,-97,-87
-9,34,43,-12,-26,39,-24,14,-9,-73,-97,-92
-9,29,39,-9,-24,34,-24,14,-4,-73,-102,-112
-9,39,48,-14,-29,43,-19,4,-14,-73,-102,-107
-14,39,53,-12,-34,46,-19,0,-14,-73,-107,-107
-24,34,58,-4,-41,46,-9,0,-14,-73,-107,-112
-43,34,78,4,-61,56,-4,4,-14,-73,-107,-112
-58,34,92,12,-75,63,9,19,-9,-68,-97,-107
-73,24,97,24,-85,61,19,24,-9,-68,-97,-107
-87,19,107,34,-97,63,29,24,-14,-73,-107,-112
-92,14,107,39,-100,61,29,24,-14,-73,-107,-112
-92,9,102,41,-97,56,39,24,-4,-78,-107,-117
-102,9,112,46,-107,61,39,19,-4,-82,-107,-112
-102,4,107,48,-104,56,39,19,-4,-82,-117,-107
-102,0,102,51,-102,51,43,19,-9,-87,-117,-112
-102,-4,97,53,-100,46,34,9,-24,-97,-131,-117
-102,-9,92,56,-97,41,34,9,-24,-97,-136,-122
-102,-9,92,56,-97,41,39,9,-24,-97,-136,-122
-102,-9,92,56,-97,41,39,9,-24,-97,-136,-126
-117,-19,97,68,-107,39,39,19,-34,-97,-126,-126
-117,-19,97,68,-107,39,39,19,-34,-97,-126,-122
-117,-19,97,68,-107,39,39,14,-34,-97,-126,-117
-117,-24,92,70,-104,34,39,14,-34,-97,-126,-117
-107,-24,82,65,-95,29,39,14,-24,-102,-136,-122
-107,-19,87,63,-97,34,39,14,-24,-102,-136,-122
-107,-19,87,63,-97,34,39,14,-24,-102,-136,-126
-102,-19,82,61,-92,31,39,19,-24,-102,-136,-131
-102,-19,82,61,-92,31,48,19,-14,-102,-126,-122
-102,-19,82,61,-92,31,48,19,-14,-102,-126,-122
-102,-19,82,61,-92,31,48,19,-14,-102,-126,-122
-102,-24,78,63,-90,26,48,19,-14,-102,-126,-126
-102,-24,78,63,-90,26,39,19,-24,-102,-136,-136
-102,-24,78,63,-90,26,39,14,-24,-102,-136,-136
-102,-24,78,63,-90,26,39,14,-24,-102,-136,-131
-107,-24,82,65,-95,29,39,14,-24,-102,-136,-131
-117,-14,102,65,-109,43,39,14,-14,-102,-136,-122
-117,-19,97,68,-107,39,39,14,-14,-102,-136,-126
-117,-19,97,68,-107,39,43,19,-14,-107,-136,-126
-117,-19,97,68,-107,39,43,19,-14,-107,-136,-122
-107,-19,87,63,-97,34,53,29,-4,-102,-136,-102
-107,-19,87,63,-97,34,53,29,-9,-102,-141,-151
-107,-14,92,61,-100,39,53,48,-4,-97,-146,-170
-117,-4,112,61,-114,53,78,68,0,-97,-141,-151
-131,0,131,65,-131,65,97,97,29,-87,-146,-151
-146,14,161,65,-153,87,122,146,68,-73,-146,-165
-136,34,170,51,-153,102,141,195,126,-53,-136,-175
-122,53,175,34,-148,114,161,268,209,0,-122,-165
-112,63,175,24,-143,119,170,385,312,87,-73,-126
-82,73,156,4,-119,114,170,512,439,195,9,-97
-24,82,107,-29,-65,95,146,585,517,302,102,-63
29,63,34,-46,-2,48,131,575,527,336,161,4
63,29,-34,-46,48,-2,122,531,463,322,175,58
131,14,-117,-73,124,-51,78,448,361,287,214,112
224,34,-190,-129,207,-78,4,268,195,244,268,219
297,68,-229,-183,263,-80,-63,-4,-14,190,351,380
356,102,-253,-229,305,-75,-151,-307,-278,102,409,551
434,136,-297,-285,366,-80,-268,-629,-624,-92,390,639
507,190,-317,-348,412,-63,-385,-936,-985,-317,351,712
570,273,-297,-422,434,-12,-502,-1239,-1224,-429,419,907
649,400,-248,-524,448,75,-634,-1532,-1400,-478,546,1146
756,536,-219,-646,488,158,-805,-1815,-1605,-580,614,1356
849,644,-204,-746,527,219,-946,-2059,-1854,-727,644,1532
941,678,-263,-810,602,207,-1063,-2244,-2059,-824,717,1727
1039,639,-400,-839,719,119,-1146,-2327,-2152,-834,810,1903
1098,522,-575,-810,836,-26,-1195,-2308,-2181,-873,829,1912
1093,400,-692,-746,893,-146,-1220,-2230,-2152,-907,790,1732
1054,268,-785,-661,919,-258,-1195,-2083,-2025,-883,800,1566
917,112,-805,-514,861,-346,-1112,-1873,-1854,-844,805,1424
668,-24,-692,-322,680,-358,-995,-1654,-1659,-829,746,1263
444,-87,-531,-178,488,-309,-888,-1473,-1420,-751,746,1161
292,-97,-390,-97,341,-244,-785,-1278,-1132,-585,805,1141
161,-78,-239,-41,200,-158,-639,-1005,-834,-400,780,1058
39,-63,-102,12,70,-82,-448,-717,-570,-253,639,868
-39,-78,-39,58,0,-58,-283,-488,-400,-204,409,541
-63,-68,-4,65,-29,-36,-165,-341,-312,-195,204,268
-53,-34,19,43,-36,-7,-97,-229,-224,-161,107,151
-24,-4,19,14,-21,7,-58,-131,-141,-102,73,102
-34,14,48,9,-41,31,-24,-58,-82,-78,29,43
-48,9,58,19,-53,34,-9,-29,-63,-78,-14,0
-43,9,53,17,-48,31,-9,-9,-29,-68,-24,0
-53,9,63,21,-58,36,0,9,4,-39,-19,24
-63,9,73,26,-68,41,14,14,24,-24,-29,-4
-63,19,82,21,-73,51,19,19,24,-29,-19,-63
-78,29,107,24,-92,68,24,19,19,-14,-4,-43
-78,39,117,19,-97,78,29,19,24,-9,4,-9
-68,39,107,14,-87,73,34,34,24,-14,-4,-19
-68,39,107,14,-87,73,43,53,39,-14,-24,-39
-87,39,126,24,-107,82,48,63,58,-14,-34,-53
-87,39,126,24,-107,82,48,82,68,4,-43,-48
-78,29,107,24,-92,68,48,82,78,-4,-53,-73
-78,29,107,24,-92,68,53,78,78,-4,-53,-78
-78,29,107,24,-92,68,53,78,78,0,-48,-82
-78,34,112,21,-95,73,58,78,78,0,-48,-87
-82,34,117,24,-100,75,58,82,68,-9,-53,-78
-82,34,117,24,-100,75,58,87,78,-9,-53,-73
-82,34,117,24,-100,75,58,92,82,-9,-63,-78
-82,34,117,24,-100,75,63,97,82,-4,-63,-78
-73,29,102,21,-87,65,63,87,92,-4,-58,-102
-73,29,102,21,-87,65,63,92,97,-4,-58,-102
-73,34,107,19,-90,70,63,92,97,-4,-58,-92
-73,34,107,19,-90,70,68,92,97,-4,-58,-87
-73,34,107,19,-90,70,58,92,87,0,-53,-73
-73,34,107,19,-90,70,58,92,92,0,-53,-73
-73,39,112,17,-92,75,58,97,92,0,-53,-78
-68,39,107,14,-87,73,58,97,92,4,-53,-78
-68,39,107,14,-87,73,58,97,107,-4,-53,-87
-68,34,102,17,-85,68,58,97,107,0,-53,-102
-68,34,102,17,-85,68,63,97,107,0,-53,-97
-68,34,102,17,-85,68,63,97,112,4,-53,-97
-78,34,112,21,-95,73,63,102,112,4,-48,-92
-78,34,112,21,-95,73,63,102,112,4,-43,-87
-78,34,112,21,-95,73,63,102,112,4,-43,-82
-78,34,112,21,-95,73,63,102,112,4,-48,-82
-68,39,107,14,-87,73,53,112,107,4,-48,-82
-68,39,107,14,-87,73,53,112,107,9,-48,-82
-68,43,112,12,-90,78,53,112,107,14,-48,-82
-68,43,112,12,-90,78,53,117,107,19,-43,-78
-68,34,102,17,-85,68,63,107,112,29,-34,-68
-68,34,102,17,-85,68,63,107,117,24,-34,-63
-68,34,102,17,-85,68,63,112,117,24,-29,-63
-68,34,102,17,-85,68,63,112,117,29,-29,-63
-78,29,107,24,-92,68,63,112,122,29,-29,-73
-73,29,102,21,-87,65,63,117,122,29,-29,-78
-73,34,107,19,-90,70,63,117,122,29,-24,-87
-73,34,107,19,-90,70,63,117,126,43,-24,-73
-73,34,107,19,-90,70,63,117,136,34,-24,-58
-73,39,112,17,-92,75,63,117,136,34,-19,-58
-73,39,112,17,-92,75,63,122,141,39,-14,-58
-73,39,112,17,-92,75,63,126,141,43,-14,-58
-63,43,107,9,-85,75,73,126,141,58,-14,-58
-63,48,112,7,-87,80,73,126,146,58,-14,-58
-63,53,117,4,-90,85,73,131,146,63,-9,-53
-63,58,122,2,-92,90,73,136,151,68,-4,-53
-63,48,112,7,-87,80,63,136,165,73,-4,-48
-63,48,112,7,-87,80,63,136,165,73,0,-53
-63,48,112,7,-87,80,63,136,175,78,4,-53
-63,48,112,7,-87,80,68,141,175,82,9,-58
-53,48,102,2,-78,75,68,141,170,87,14,-53
-53,48,102,2,-78,75,68,141,175,97,19,-43
-53,48,102,2,-78,75,68,141,180,102,19,-39
-48,53,102,-2,-75,78,68,141,185,107,24,-29
-58,53,112,2,-85,82,68,151,190,131,29,-39
-58,53,112,2,-85,82,68,156,195,136,34,-34
-53,53,107,0,-80,80,68,161,204,141,39,-39
-53,58,112,-2,-82,85,68,165,209,146,48,-43
-43,58,102,-7,-73,80,58,175,214,151,63,-24
-43,58,102,-7,-73,80,58,180,229,161,68,-14
-43,58,102,-7,-73,80,58,180,234,170,78,-4
-39,63,102,-12,-70,82,58,185,239,180,82,0
-39,73,112,-17,-75,92,58,190,248,195,78,0
-39,78,117,-19,-78,97,58,200,258,204,92,0
-34,78,112,-21,-73,95,58,204,268,214,92,0
-34,78,112,-21,-73,95,58,214,278,224,107,-4
-39,68,107,-14,-73,87,58,209,283,234,117,9
-39,73,112,-17,-75,92,63,219,297,248,126,24
-39,73,112,-17,-75,92,63,224,302,258,136,29
-34,73,107,-19,-70,90,63,229,312,273,151,34
-34,78,112,-21,-73,95,53,244,336,287,161,34
-34,82,117,-24,-75,100,53,258,346,302,170,43
-29,82,112,-26,-70,97,53,268,361,317,180,43
-29,87,117,-29,-73,102,53,278,370,322,195,43
-24,97,122,-36,-73,109,63,278,370,341,204,58
-19,102,122,-41,-70,112,63,287,380,356,214,68
-14,102,117,-43,-65,109,63,297,395,375,229,87
-14,102,117,-43,-65,109,63,302,405,390,244,92
-14,97,112,-41,-63,104,63,312,405,395,244,82
-4,102,107,-48,-56,104,63,322,414,414,258,92
-4,102,107,-48,-56,104,63,326,424,429,268,97
0,102,102,-51,-51,102,63,336,434,439,278,92
4,97,92,-51,-43,95,53,326,439,448,302,122
9,107,97,-58,-43,102,48,336,444,458,312,126
14,107,92,-61,-39,100,48,346,448,473,322,146
14,107,92,-61,-39,100,48,351,453,478,331,151
19,117,97,-68,-39,107,48,356,453,488,326,136
24,122,97,-73,-36,109,43,356,463,497,341,146
24,122,97,-73,-36,109,43,361,463,497,346,151
29,122,92,-75,-31,107,43,361,463,507,351,146
29,112,82,-70,-26,97,43,370,463,497,361,161
34,117,82,-75,-24,100,43,370,463,502,366,161
34,117,82,-75,-24,100,39,370,463,502,370,165
39,122,82,-80,-21,102,34,370,453,502,370,170
48,131,82,-90,-17,107,24,366,444,497,361,165
48,136,87,-92,-19,112,24,366,439,492,361,165
53,136,82,-95,-14,109,24,361,434,488,361,180
53,136,82,-95,-14,109,24,361,419,473,356,165
53,131,78,-92,-12,104,19,361,419,453,356,165
53,131,78,-92,-12,104,19,346,405,434,341,165
53,131,78,-92,-12,104,24,331,390,414,326,165
48,131,82,-90,-17,107,24,322,366,385,307,161
43,131,87,-87,-21,109,14,307,336,366,268,146
39,131,92,-85,-26,112,14,292,307,331,248,131
34,131,97,-82,-31,114,14,273,287,307,224,126
29,122,92,-75,-31,107,9,253,263,278,200,92
14,117,102,-65,-43,109,19,239,248,239,165,68
9,112,102,-61,-46,107,19,219,219,209,141,53
4,107,102,-56,-48,104,19,204,200,185,117,48
0,102,102,-51,-51,102,19,185,180,156,92,48
4,97,92,-51,-43,95,14,185,161,136,73,29
0,92,92,-46,-46,92,14,161,141,117,53,9
-4,82,87,-39,-46,85,14,151,122,92,43,0
-9,78,87,-34,-48,82,14,136,102,73,29,-14
-24,82,107,-29,-65,95,14,126,92,43,4,-34
-24,78,102,-26,-63,90,14,112,78,29,-4,-43
-29,73,102,-21,-65,87,14,97,68,14,-19,-53
-29,68,97,-19,-63,82,19,92,53,0,-39,-53
-43,68,112,-12,-78,90,29,82,48,-4,-39,-63
-43,63,107,-9,-75,85,29,78,39,-14,-48,-68
-48,58,107,-4,-78,82,29,78,29,-19,-58,-73
-48,58,107,-4,-78,82,29,63,19,-34,-63,-73
-48,48,97,0,-73,73,29,53,19,-43,-73,-82
-48,48,97,0,-73,73,29,53,9,-48,-73,-82
-48,43,92,2,-70,68,24,48,4,-53,-82,-87
-48,43,92,2,-70,68,24,43,0,-53,-87,-87
-48,39,87,4,-68,63,24,43,4,-58,-92,-92
-53,39,92,7,-73,65,24,39,0,-63,-97,-92
-53,39,92,7,-73,65,24,39,-4,-68,-97,-92
-53,39,92,7,-73,65,24,39,-4,-68,-102,-92
-63,34,97,14,-80,65,24,39,-4,-58,-107,-92
-63,34,97,14,-80,65,24,34,-4,-68,-107,-102
-63,34,97,14,-80,65,24,29,-9,-68,-102,-102
-68,34,102,17,-85,68,24,29,-9,-78,-102,-97
-58,34,92,12,-75,63,19,29,-19,-87,-107,-97
-58,34,92,12,-75,63,19,24,-24,-82,-107,-107
-58,29,87,14,-73,58,19,24,-24,-82,-112,-107
-58,29,87,14,-73,58,19,24,-29,-82,-112,-102
-58,29,87,14,-73,58,24,24,-29,-73,-112,-102
-58,29,87,14,-73,58,24,24,-29,-78,-112,-107
-58,29,87,14,-73,58,24,24,-29,-82,-112,-112
-58,29,87,14,-73,58,24,19,-29,-82,-117,-112
-58,39,97,9,-78,68,24,19,-29,-82,-117,-102
-58,39,97,9,-78,68,24,19,-29,-82,-117,-102
-63,39,102,12,-82,70,24,19,-34,-82,-117,-102
-63,39,102,12,-82,70,24,19,-34,-87,-117,-97
-63,39,102,12,-82,70,34,19,-34,-97,-117,-107
-63,39,102,12,-82,70,29,19,-34,-97,-112,-107
-58,39,97,9,-78,68,29,19,-34,-97,-112,-112
-58,39,97,9,-78,68,29,19,-34,-97,-112,-112
-63,39,102,12,-82,70,24,19,-34,-97,-112,-102
-63,39,102,12,-82,70,24,19,-34,-97,-112,-102
-63,39,102,12,-82,70,24,19,-34,-97,-112,-107
-63,39,102,12,-82,70,24,19,-39,-97,-112,-107
-63,29,92,17,-78,61,34,29,-29,-92,-112,-112
-58,29,87,14,-73,58,34,29,-24,-92,-112,-117
-58,29,87,14,-73,58,29,29,-24,-97,-112,-122
-63,29,92,17,-78,61,29,29,-24,-97,-112,-131
-63,29,92,17,-78,61,29,29,-24,-87,-107,-131
-63,29,92,17,-78,61,29,29,-24,-87,-107,-112
-63,29,92,17,-78,61,29,29,-24,-87,-107,-102
-63,29,92,17,-78,61,34,29,-24,-87,-107,-92
-63,29,92,17,-78,61,34,19,-24,-82,-107,-97
-63,29,92,17,-78,61,34,24,-24,-82,-107,-102
-63,29,92,17,-78,61,34,24,-24,-92,-107,-112
-63,29,92,17,-78,61,34,24,-24,-92,-107,-126
-63,29,92,17,-78,61,24,24,-24,-92,-107,-122
-63,29,92,17,-78,61,24,24,-24,-92,-102,-117
-63,29,92,17,-78,61,24,24,-24,-92,-102,-112
-63,29,92,17,-78,61,24,24,-19,-92,-102,-107
-63,34,97,14,-80,65,34,34,-19,-102,-112,-117
-63,34,97,14,-80,65,34,34,-19,-97,-112,-122
-63,29,92,17,-78,61,34,34,-19,-97,-112,-126
-63,29,92,17,-78,61,34,34,-19,-102,-112,-136
-63,39,102,12,-82,70,34,34,-19,-97,-102,-122
-63,43,107,9,-85,75,34,34,-14,-92,-102,-117
-63,43,107,9,-85,75,34,34,-14,-92,-107,-112
-63,43,107,9,-85,75,34,34,-14,-87,-107,-107
-73,43,117,14,-95,80,24,34,-4,-87,-107,-117
-73,43,117,14,-95,80,24,39,0,-82,-107,-117
-73,48,122,12,-97,85,24,39,0,-82,-107,-136
-73,48,122,12,-97,85,24,39,-4,-82,-107,-146
-73,34,107,19,-90,70,24,34,-14,-92,-107,-131
-78,34,112,21,-95,73,24,34,-4,-92,-107,-126
-78,34,112,21,-95,73,24,34,-4,-87,-102,-122
-78,34,112,21,-95,73,24,29,-4,-87,-102,-117
-78,43,122,17,-100,82,24,29,-4,-78,-102,-131
-78,48,126,14,-102,87,24,29,-4,-73,-102,-131
-78,48,126,14,-102,87,24,29,0,-73,-102,-136
-73,48,122,12,-97,85,24,29,0,-73,-102,-141
-63,48,112,7,-87,80,24,39,9,-73,-102,-126
-63,48,112,7,-87,80,24,39,4,-73,-102,-122
-63,48,112,7,-87,80,24,39,4,-73,-97,-117
-63,48,112,7,-87,80,24,43,4,-73,-97,-112
-63,53,117,4,-90,85,24,34,4,-63,-97,-117
-63,53,117,4,-90,85,19,34,4,-63,-97,-117
-63,53,117,4,-90,85,19,34,4,-63,-97,-112
-63,58,122,2,-92,90,19,34,4,-63,-97,-117
-63,58,122,2,-92,90,9,29,4,-63,-107,-107
-63,58,122,2,-92,90,14,29,9,-63,-107,-107
-58,58,117,0,-87,87,24,29,9,-63,-102,-102
-63,63,126,0,-95,95,34,29,9,-63,-102,-102
-63,58,122,2,-92,90,29,34,14,-48,-92,-82
-53,73,126,-9,-90,100,34,43,14,-58,-97,-117
-48,87,136,-19,-92,112,39,48,14,-48,-92,-126
-48,87,136,-19,-92,112,48,48,19,-48,-87,-87
-39,97,136,-29,-87,117,58,48,19,-48,-87,-87
-39,97,136,-29,-87,117,58,48,19,-48,-87,-87
-39,97,136,-29,-87,117,58,48,19,-48,-87,-87
-39,97,136,-29,-87,117,58,48,19,-48,-87,-87
-24,102,126,-39,-75,114,58,53,34,-29,-73,-82
-24,102,126,-39,-75,114,58,58,39,-29,-68,-82
-24,112,136,-43,-80,124,68,63,43,-24,-63,-78
-24,117,141,-46,-82,129,78,73,43,-19,-58,-68
-34,117,151,-41,-92,134,92,78,53,-9,-63,-73
-29,122,151,-46,-90,136,97,82,58,-9,-63,-73
-19,136,156,-58,-87,146,102,87,63,-4,-58,-73
-14,136,151,-61,-82,143,107,97,68,0,-53,-63
-9,136,146,-63,-78,141,117,102,68,4,-53,-68
-4,136,141,-65,-73,139,117,107,68,4,-53,-63
0,131,131,-65,-65,131,102,112,68,4,-48,-63
4,131,126,-68,-61,129,78,112,68,4,-48,-63
0,122,122,-61,-61,122,63,112,68,4,-48,-48
4,122,117,-63,-56,119,43,122,68,9,-43,-43
9,122,112,-65,-51,117,19,131,78,19,-39,-43
9,122,112,-65,-51,117,4,131,82,24,-34,-39
19,131,112,-75,-46,122,-14,131,73,24,-34,-34
19,131,112,-75,-46,122,-34,122,73,24,-34,-39
19,131,112,-75,-46,122,-53,102,73,24,-34,-48
19,131,112,-75,-46,122,-68,82,68,14,-34,-53
9,136,126,-73,-58,131,-97,58,48,19,-34,-48
4,122,117,-63,-56,119,-107,29,29,4,-43,-53
4,112,107,-58,-51,109,-112,9,19,-4,-48,-53
4,107,102,-56,-48,104,-112,4,9,-9,-53,-53
9,102,92,-56,-41,97,-107,0,4,-14,-63,-63
9,102,92,-56,-41,97,-97,0,4,-14,-63,-63
14,107,92,-61,-39,100,-92,9,9,-9,-68,-63
14,107,92,-61,-39,100,-87,9,9,-9,-68,-63
4,107,102,-56,-48,104,-82,4,14,0,-58,-58
4,107,102,-56,-48,104,-73,4,14,-4,-58,-53
9,102,92,-56,-41,97,-73,0,9,-9,-68,-53
9,97,87,-53,-39,92,-68,0,4,-14,-73,-63
9,92,82,-51,-36,87,-63,0,-4,-19,-82,-78
4,87,82,-46,-39,85,-58,0,-4,-19,-87,-78
0,82,82,-41,-41,82,-58,-4,-9,-24,-92,-82
0,82,82,-41,-41,82,-58,-4,-9,-24,-97,-87
0,82,82,-41,-41,82,-48,9,-9,-14,-87,-87
0,82,82,-41,-41,82,-43,9,-14,-14,-87,-78
0,82,82,-41,-41,82,-43,4,-14,-24,-87,-78
0,78,78,-39,-39,78,-43,4,-14,-24,-92,-92
0,78,78,-39,-39,78,-39,4,-24,-14,-92,-87
-4,78,82,-36,-43,80,-39,0,-24,-14,-97,-87
-14,73,87,-29,-51,80,-29,0,-24,-14,-97,-92
-34,73,107,-19,-70,90,-24,4,-24,-14,-97,-92
-39,82,122,-21,-80,102,-19,0,-19,-9,-107,-92
-53,73,126,-9,-90,100,-9,4,-19,-9,-107,-97
-68,68,136,0,-102,102,0,4,-24,-14,-117,-107
-73,63,136,4,-104,100,0,4,-24,-14,-117,-112
-82,48,131,17,-107,90,9,14,-14,-9,-107,-117
-92,48,141,21,-117,95,9,9,-14,-14,-107,-112
-92,43,136,24,-114,90,9,9,-14,-14,-117,-107
-92,39,131,26,-112,85,14,9,-19,-19,-117,-112
-92,43,136,24,-114,90,4,0,-34,-19,-122,-117
-92,39,131,26,-112,85,4,0,-34,-19,-126,-122
-92,39,131,26,-112,85,9,0,-34,-19,-126,-122
-92,39,131,26,-112,85,9,0,-34,-19,-126,-126
-97,29,126,34,-112,78,19,0,-34,-19,-136,-122
-97,29,126,34,-112,78,19,0,-34,-19,-136,-122
-97,29,126,34,-112,78,19,-4,-34,-19,-136,-122
-97,24,122,36,-109,73,19,-4,-34,-19,-136,-126
-97,24,122,36,-109,73,19,4,-34,-14,-136,-136
-97,29,126,34,-112,78,19,4,-34,-14,-136,-131
-97,29,126,34,-112,78,19,4,-34,-14,-136,-131
-92,29,122,31,-107,75,19,9,-34,-14,-136,-131
-102,29,131,36,-117,80,9,0,-34,-14,-136,-126
-102,29,131,36,-117,80,9,0,-34,-14,-136,-122
-102,29,131,36,-117,80,9,0,-34,-14,-136,-117
-102,24,126,39,-114,75,9,0,-34,-14,-136,-117
-92,24,117,34,-104,70,9,0,-34,-24,-136,-131
-92,24,117,34,-104,70,9,-4,-34,-24,-136,-136
-92,24,117,34,-104,70,9,-4,-34,-24,-136,-136
-97,24,122,36,-109,73,9,-4,-34,-24,-136,-141
-97,24,122,36,-109,73,9,-4,-34,-24,-136,-136
-97,19,117,39,-107,68,9,-4,-34,-24,-136,-136
-97,19,117,39,-107,68,14,0,-34,-29,-136,-131
-97,19,117,39,-107,68,14,0,-34,-29,-136,-122
-107,19,126,43,-117,73,14,9,-24,-24,-136,-141
-107,29,136,39,-122,82,24,9,-19,-24,-141,-170
-117,24,141,46,-129,82,43,29,-4,-19,-146,-161
-117,34,151,41,-134,92,58,58,19,-19,-151,-151
-122,39,161,41,-141,100,78,78,39,-9,-156,-180
-136,53,190,41,-163,122,92,117,68,-4,-156,-185
-136,73,209,31,-173,141,122,175,126,34,-146,-175
-131,82,214,24,-173,148,141,268,209,97,-131,-156
-122,92,214,14,-168,153,161,395,312,185,-82,-146
-82,102,185,-9,-134,143,161,502,439,292,0,-126
-24,102,126,-39,-75,114,136,566,536,400,102,-53
39,82,43,-61,-2,63,131,566,536,444,151,14
102,58,-43,-80,73,7,112,522,453,409,165,58
180,43,-136,-112,158,-46,68,429,331,366,195,112
244,63,-180,-153,212,-58,-4,248,156,331,268,229
297,97,-200,-197,248,-51,-92,-34,-53,287,361,419
346,122,-224,-234,285,-51,-180,-346,-336,180,409,570
414,156,-258,-285,336,-51,-307,-658,-702,-24,370,629
497,219,-278,-358,387,-29,-434,-985,-1054,-239,351,732
580,322,-258,-451,419,31,-561,-1278,-1293,-351,419,946
678,458,-219,-568,448,119,-702,-1581,-1478,-419,527,1166
775,595,-180,-685,478,207,-863,-1864,-1683,-522,585,1356
858,692,-165,-775,512,263,-1005,-2108,-1922,-658,624,1542
961,707,-253,-834,607,226,-1112,-2264,-2098,-707,717,1766
1039,639,-400,-839,719,119,-1185,-2318,-2181,-707,839,1942
1098,541,-556,-819,827,-7,-1234,-2278,-2181,-727,878,1903
1102,409,-692,-756,897,-141,-1259,-2191,-2122,-751,878,1751
1044,278,-766,-661,905,-244,-1234,-2054,-1995,-727,897,1644
897,141,-756,-519,827,-307,-1151,-1854,-1815,-688,883,1493
668,14,-653,-341,661,-319,-1024,-1634,-1610,-673,814,1312
424,-58,-483,-183,453,-270,-907,-1454,-1371,-595,814,1229
283,-68,-351,-107,317,-209,-805,-1259,-1093,-439,863,1210
170,-39,-209,-65,190,-124,-649,-976,-805,-253,829,1117
39,-24,-63,-7,51,-43,-448,-688,-541,-126,668,868
-58,-48,9,53,-34,-19,-283,-468,-380,-97,429,512
-82,-39,43,61,-63,2,-175,-331,-283,-78,234,258
-43,4,48,19,-46,26,-117,-239,-204,-34,136,161
-24,24,48,0,-36,36,-68,-141,-131,14,92,102
-24,24,48,0,-36,36,-34,-68,-92,29,29,43
-39,29,68,4,-53,48,-29,-39,-53,29,-14,19
-53,29,82,12,-68,56,-9,-19,-29,48,-14,29
-63,19,82,21,-73,51,0,0,-4,68,-9,14
-73,39,112,17,-92,75,-4,4,4,63,-19,-53
-82,58,141,12,-112,100,9,0,4,68,-9,-63
-87,68,156,9,-122,112,14,0,9,82,4,-34
-87,68,156,9,-122,112,19,9,14,87,-4,-19
-78,68,146,4,-112,107,24,24,24,82,-14,-39
-78,68,146,4,-112,107,24,34,48,92,-34,-48
-78,58,136,9,-107,97,29,53,58,92,-43,-43
-78,58,136,9,-107,97,29,63,68,92,-53,-48
-87,58,146,14,-117,102,29,63,68,92,-63,-78
-87,58,146,14,-117,102,34,58,68,92,-63,-87
-87,58,146,14,-117,102,34,58,68,97,-58,-97
-87,63,151,12,-119,107,39,58,68,97,-58,-107
-92,53,146,19,-119,100,48,63,68,97,-53,-87
-92,53,146,19,-119,100,48,68,78,97,-53,-82
-92,53,146,19,-119,100,48,73,82,97,-63,-87
-92,53,146,19,-119,100,53,78,82,102,-63,-87
-92,48,141,21,-117,95,43,78,92,92,-68,-112
-92,48,141,21,-117,95,43,82,97,92,-68,-112
-92,53,146,19,-119,100,43,82,97,92,-68,-102
-92,53,146,19,-119,100,48,82,97,92,-68,-97
-92,63,156,14,-124,109,48,73,87,97,-63,-82
-92,63,156,14,-124,109,48,73,92,97,-63,-82
-92,68,161,12,-126,114,48,78,92,97,-63,-87
-87,68,156,9,-122,112,48,78,92,102,-63,-87
-87,68,156,9,-122,112,48,87,87,92,-63,-97
-87,63,151,12,-119,107,48,87,87,97,-63,-112
-87,63,151,12,-119,107,53,87,87,97,-63,-107
-87,63,151,12,-119,107,53,87,92,102,-63,-107
-87,63,151,12,-119,107,53,92,102,112,-58,-102
-87,63,151,12,-119,107,53,92,102,112,-53,-97
-87,63,151,12,-119,107,53,92,102,112,-53,-92
-87,63,151,12,-119,107,53,92,102,112,-58,-92
-78,68,146,4,-112,107,43,92,107,112,-58,-97
-78,68,146,4,-112,107,43,92,107,117,-58,-102
-78,73,151,2,-114,112,43,92,107,122,-58,-107
-78,73,151,2,-114,112,43,97,107,126,-53,-107
-78,63,141,7,-109,102,53,87,112,126,-53,-102
-78,63,141,7,-109,102,53,87,117,122,-53,-92
-78,63,141,7,-109,102,53,92,117,122,-48,-87
-78,63,141,7,-109,102,53,92,117,126,-48,-82
-87,58,146,14,-117,102,53,102,131,126,-48,-82
-82,58,141,12,-112,100,53,107,131,126,-48,-87
-82,63,146,9,-114,104,53,107,131,126,-43,-97
-82,63,146,9,-114,104,53,107,136,141,-43,-82
-73,63,136,4,-104,100,53,107,126,136,-43,-78
-73,68,141,2,-107,104,53,107,126,131,-39,-78
-73,68,141,2,-107,104,53,112,131,131,-34,-78
-73,68,141,2,-107,104,53,117,131,131,-34,-78
-73,68,141,2,-107,104,63,126,141,126,-34,-87
-73,68,141,2,-107,104,63,126,146,126,-34,-87
-73,68,141,2,-107,104,63,131,146,131,-29,-82
-73,68,141,2,-107,104,63,136,151,136,-24,-82
-73,68,141,2,-107,104,53,126,156,141,-24,-63
-73,68,141,2,-107,104,53,126,156,141,-19,-63
-73,68,141,2,-107,104,53,126,165,146,-14,-58
-73,68,141,2,-107,104,58,131,165,151,-9,-58
-82,68,151,7,-117,109,58,141,170,165,-4,-58
-82,68,151,7,-117,109,58,141,175,175,0,-53
-82,68,151,7,-117,109,58,141,180,180,0,-53
-78,73,151,2,-114,112,58,141,185,185,4,-48
-78,73,151,2,-114,112,58,151,190,190,9,-53
-78,73,151,2,-114,112,58,156,195,195,14,-43
-73,73,146,0,-109,109,58,161,204,200,19,-43
-73,78,151,-2,-112,114,58,165,209,204,29,-43
-63,78,141,-7,-102,109,68,165,204,219,24,-39
-63,78,141,-7,-102,109,68,170,219,229,29,-34
-63,78,141,-7,-102,109,68,170,224,239,39,-29
-58,82,141,-12,-100,112,68,175,229,248,43,-29
-58,82,141,-12,-100,112,68,190,244,263,58,-24
-58,87,146,-14,-102,117,68,200,258,273,73,-19
-53,87,141,-17,-97,114,68,204,273,283,73,-14
-53,87,141,-17,-97,114,68,214,287,292,87,-14
-39,87,126,-24,-82,107,58,219,283,302,97,0
-39,92,131,-26,-85,112,63,229,297,317,107,14
-39,92,131,-26,-85,112,63,234,302,326,117,19
-34,92,126,-29,-80,109,63,239,312,341,131,24
-43,97,141,-26,-92,119,63,244,336,356,151,34
-43,102,146,-29,-95,124,63,258,346,370,161,43
-39,102,141,-31,-90,122,63,268,361,385,170,43
-39,107,146,-34,-92,126,63,278,370,390,185,43
-34,107,141,-36,-87,124,73,278,370,409,185,48
-29,112,141,-41,-85,126,73,287,380,424,195,58
-24,112,136,-43,-80,124,73,297,395,444,209,78
-24,112,136,-43,-80,124,73,302,405,458,224,82
-24,117,141,-46,-82,129,73,312,424,463,234,78
-14,122,136,-53,-75,129,73,322,434,483,248,92
-14,122,136,-53,-75,129,73,326,444,497,258,102
-9,122,131,-56,-70,126,73,336,453,507,268,102
-14,117,131,-51,-73,124,73,336,448,517,292,126
-9,126,136,-58,-73,131,68,346,453,527,302,126
-4,126,131,-61,-68,129,68,356,458,541,312,141
-4,126,131,-61,-68,129,68,361,463,546,322,141
0,126,126,-63,-63,126,68,366,473,556,326,131
4,131,126,-68,-61,129,63,366,483,566,341,146
4,131,126,-68,-61,129,63,370,483,566,346,156
9,131,122,-70,-56,126,63,370,483,575,351,156
19,131,112,-75,-46,122,63,380,483,575,361,165
24,136,112,-80,-43,124,63,380,483,580,366,170
24,136,112,-80,-43,124,58,380,483,580,370,180
29,141,112,-85,-41,126,53,380,473,580,370,190
29,141,112,-85,-41,126,53,375,473,575,361,175
29,146,117,-87,-43,131,53,375,468,570,361,175
34,146,112,-90,-39,129,53,370,463,566,361,190
34,146,112,-90,-39,129,53,370,448,551,356,175
24,151,126,-87,-51,139,39,361,429,527,346,165
24,151,126,-87,-51,139,39,346,414,502,331,165
24,151,126,-87,-51,139,43,331,400,478,317,165
19,151,131,-85,-56,141,43,322,375,444,297,161
14,141,126,-78,-56,134,34,307,346,424,258,136
9,141,131,-75,-61,136,34,292,317,390,239,122
4,141,136,-73,-65,139,34,273,297,366,214,117
0,131,131,-65,-65,131,29,253,273,336,190,82
4,126,122,-65,-58,124,39,239,258,287,165,63
0,122,122,-61,-61,122,39,219,229,258,141,53
-4,117,122,-56,-63,119,39,204,209,234,117,53
-9,112,122,-51,-65,117,39,185,190,204,92,58
-14,102,117,-43,-65,109,34,175,161,175,68,29
-19,92,112,-36,-65,102,34,151,141,156,43,0
-24,78,102,-26,-63,90,34,141,122,131,29,-19
-29,68,97,-19,-63,82,34,126,102,112,9,-43
-43,63,107,-9,-75,85,34,117,92,92,-19,-53
-43,58,102,-7,-73,80,34,102,78,78,-24,-53
-48,53,102,-2,-75,78,34,87,68,63,-34,-53
-48,48,97,0,-73,73,39,82,53,48,-48,-43
-63,48,112,7,-87,80,39,73,58,43,-58,-63
-63,43,107,9,-85,75,39,68,48,34,-68,-78
-68,39,107,14,-87,73,39,68,39,29,-78,-92
-68,39,107,14,-87,73,39,53,29,14,-82,-102
-68,39,107,14,-87,73,39,53,29,4,-92,-97
-68,39,107,14,-87,73,39,53,19,0,-92,-92
-68,34,102,17,-85,68,34,48,14,-4,-102,-92
-68,34,102,17,-85,68,34,43,9,-4,-107,-87
-68,29,97,19,-82,63,43,34,4,-19,-112,-97
-73,29,102,21,-87,65,43,29,0,-24,-117,-102
-73,29,102,21,-87,65,43,29,-4,-29,-117,-107
-73,29,102,21,-87,65,43,29,-4,-29,-122,-112
-73,24,97,24,-85,61,34,29,-4,-19,-126,-107
-73,24,97,24,-85,61,34,24,-4,-29,-126,-112
-73,24,97,24,-85,61,34,19,-9,-29,-122,-107
-78,24,102,26,-90,63,34,19,-9,-39,-122,-97
-87,24,112,31,-100,68,39,19,-9,-48,-126,-102
-87,24,112,31,-100,68,39,14,-14,-43,-126,-117
-87,19,107,34,-97,63,39,14,-14,-43,-131,-122
-87,19,107,34,-97,63,39,14,-19,-43,-131,-122
-87,19,107,34,-97,63,34,14,-29,-53,-131,-112
-87,19,107,34,-97,63,34,14,-29,-58,-131,-117
-87,19,107,34,-97,63,34,14,-29,-63,-131,-122
-87,19,107,34,-97,63,34,9,-29,-63,-136,-122
-78,19,97,29,-87,58,34,19,-29,-63,-126,-122
-78,19,97,29,-87,58,34,19,-29,-63,-126,-122
-82,19,102,31,-92,61,34,19,-34,-63,-126,-122
-82,19,102,31,-92,61,34,19,-34,-68,-126,-117
-82,9,92,36,-87,51,43,19,-34,-78,-136,-117
-82,9,92,36,-87,51,39,19,-34,-78,-131,-117
-78,9,87,34,-82,48,39,19,-34,-78,-131,-122
-78,9,87,34,-82,48,39,19,-34,-78,-131,-122
-82,9,92,36,-87,51,34,9,-34,-78,-131,-112
-82,9,92,36,-87,51,34,9,-34,-78,-131,-112
-82,9,92,36,-87,51,34,9,-34,-78,-131,-117
-82,9,92,36,-87,51,34,9,-39,-78,-131,-117
-82,9,92,36,-87,51,34,9,-39,-73,-131,-126
-78,9,87,34,-82,48,34,9,-34,-73,-131,-126
-78,9,87,34,-82,48,29,9,-34,-78,-131,-126
-82,9,92,36,-87,51,29,9,-34,-78,-131,-131
-82,0,82,41,-82,41,39,9,-34,-87,-126,-131
-82,0,82,41,-82,41,39,9,-34,-87,-126,-122
-82,0,82,41,-82,41,39,9,-34,-87,-126,-122
-82,0,82,41,-82,41,43,9,-34,-87,-126,-122
-92,0,92,46,-92,46,34,9,-34,-82,-126,-117
-92,0,92,46,-92,46,34,14,-34,-82,-126,-122
-92,0,92,46,-92,46,34,14,-34,-92,-126,-131
-92,0,92,46,-92,46,34,14,-34,-92,-126,-146
-87,9,97,39,-92,53,34,14,-34,-82,-136,-141
-82,9,92,36,-87,51,34,14,-34,-82,-131,-136
-78,9,87,34,-82,48,34,14,-34,-82,-131,-131
-73,9,82,31,-78,46,34,14,-29,-82,-131,-126
-73,4,78,34,-75,41,34,14,-29,-82,-131,-126
-73,4,78,34,-75,41,34,14,-29,-78,-131,-131
-73,0,73,36,-73,36,34,14,-29,-78,-131,-136
-73,0,73,36,-73,36,34,14,-29,-82,-131,-146
-82,0,82,41,-82,41,43,24,-19,-82,-122,-141
-82,4,87,39,-85,46,43,24,-14,-82,-122,-136
-82,4,87,39,-85,46,43,24,-14,-87,-126,-131
-82,4,87,39,-85,46,43,24,-14,-87,-126,-126
-82,-4,78,43,-80,36,34,14,-24,-87,-126,-131
-82,-4,78,43,-80,36,34,19,-19,-82,-126,-126
-82,0,82,41,-82,41,34,19,-19,-82,-126,-141
-82,0,82,41,-82,41,34,19,-24,-82,-126,-146
-82,4,87,39,-85,46,43,24,-14,-73,-126,-141
-87,4,92,41,-90,48,43,24,-4,-73,-126,-136
-87,4,92,41,-90,48,43,24,-4,-68,-122,-131
-87,4,92,41,-90,48,43,19,-4,-68,-122,-126
-87,-4,82,46,-85,39,43,19,-4,-78,-122,-141
-87,0,87,43,-87,43,43,19,-4,-73,-122,-141
-87,0,87,43,-87,43,43,19,0,-73,-122,-146
-82,0,82,41,-82,41,43,19,0,-73,-122,-151
-82,0,82,41,-82,41,43,19,0,-73,-122,-136
-82,0,82,41,-82,41,43,19,-4,-73,-122,-131
-82,0,82,41,-82,41,43,19,-4,-73,-117,-126
-82,0,82,41,-82,41,43,24,-4,-73,-117,-122
-92,-4,87,48,-90,41,43,24,-4,-73,-117,-126
-92,-4,87,48,-90,41,39,24,-4,-73,-117,-126
-92,-4,87,48,-90,41,39,24,-4,-73,-117,-122
-92,0,92,46,-92,46,39,24,-4,-73,-117,-126
-97,0,97,48,-97,48,39,29,-4,-73,-117,-117
-92,0,92,46,-92,46,43,29,0,-73,-117,-117
-82,0,82,41,-82,41,53,29,0,-73,-112,-112
-82,4,87,39,-85,46,63,29,0,-73,-112,-112
-92,4,97,43,-95,51,58,24,9,-78,-112,-122
-82,4,87,39,-85,46,53,24,4,-78,-107,-117
-78,4,82,36,-80,43,48,29,0,-68,-102,-117
-78,4,82,36,-80,43,48,34,4,-68,-102,-117
-78,19,97,29,-87,58,48,29,0,-73,-112,-107
-78,19,97,29,-87,58,58,29,9,-78,-107,-117
-68,29,97,19,-82,63,73,34,19,-73,-97,-107
-68,29,97,19,-82,63,78,39,19,-68,-97,-107
-68,29,97,19,-82,63,82,43,19,-63,-97,-107
-68,29,97,19,-82,63,87,48,19,-58,-97,-107
-43,43,87,0,-65,65,87,53,34,-48,-92,-102
-43,43,87,0,-65,65,87,58,39,-48,-87,-102
-43,53,97,-4,-70,75,97,63,43,-43,-82,-97
-43,58,102,-7,-73,80,107,73,43,-39,-78,-87
-43,48,92,-2,-68,70,122,87,53,-29,-73,-73
-39,53,92,-7,-65,73,126,92,58,-29,-73,-73
-29,68,97,-19,-63,82,131,97,63,-24,-68,-73
-24,68,92,-21,-58,80,136,107,68,-19,-63,-63
-29,68,97,-19,-63,82,146,112,68,-4,-63,-58
-24,68,92,-21,-58,80,146,117,68,-4,-63,-53
-19,63,82,-21,-51,73,131,122,68,-4,-58,-53
-14,63,78,-24,-46,70,107,122,68,-4,-58,-53
-9,63,73,-26,-41,68,82,122,68,-4,-58,-39
-4,63,68,-29,-36,65,63,131,68,0,-53,-34
0,63,63,-31,-31,63,39,141,78,9,-48,-34
0,63,63,-31,-31,63,24,141,82,14,-43,-29
0,63,63,-31,-31,63,14,141,92,24,-43,-29
0,63,63,-31,-31,63,-4,131,92,24,-43,-29
0,63,63,-31,-31,63,-24,112,92,24,-43,-34
0,63,63,-31,-31,63,-39,92,87,14,-43,-34
0,68,68,-34,-34,68,-63,68,58,9,-43,-34
-4,53,58,-24,-31,56,-78,39,39,-4,-53,-43
-4,43,48,-19,-26,46,-87,19,29,-14,-58,-48
-4,39,43,-17,-24,41,-92,14,19,-19,-63,-53
-19,24,43,-2,-31,34,-87,9,4,-34,-73,-58
-19,24,43,-2,-31,34,-78,9,4,-34,-73,-63
-14,29,43,-7,-29,36,-73,19,9,-29,-78,-68
-14,29,43,-7,-29,36,-68,19,9,-29,-78,-73
-14,39,53,-12,-34,46,-63,14,14,-19,-68,-68
-14,39,53,-12,-34,46,-53,14,14,-24,-68,-63
-9,34,43,-12,-26,39,-53,9,9,-29,-78,-63
-9,29,39,-9,-24,34,-48,9,4,-34,-82,-73
-9,24,34,-7,-21,29,-34,9,4,-48,-82,-82
-14,19,34,-2,-24,26,-29,9,4,-48,-87,-87
-19,14,34,2,-26,24,-29,4,0,-53,-92,-97
-19,14,34,2,-26,24,-29,4,0,-53,-97,-107
-19,4,24,7,-21,14,-19,9,-9,-53,-107,-102
-19,4,24,7,-21,14,-14,9,-14,-53,-107,-87
-19,4,24,7,-21,14,-14,4,-14,-63,-107,-82
-19,0,19,9,-19,9,-14,4,-14,-63,-112,-92
-9,9,19,0,-14,14,-9,4,-14,-63,-112,-107
-14,9,24,2,-19,17,-9,0,-14,-63,-117,-107
-24,4,29,9,-26,17,0,0,-14,-63,-117,-112
-43,4,48,19,-46,26,4,4,-14,-63,-117,-112
-58,-4,53,31,-56,24,9,9,-9,-58,-107,-97
-73,-14,58,43,-65,21,19,14,-9,-58,-107,-97
-87,-19,68,53,-78,24,29,14,-14,-63,-117,-102
-92,-24,68,58,-80,21,29,14,-14,-63,-117,-102
-112,-29,82,70,-97,26,39,4,-14,-68,-117,-122
-122,-29,92,75,-107,31,39,0,-14,-73,-117,-122
-122,-34,87,78,-104,26,39,0,-14,-73,-126,-122
-122,-39,82,80,-102,21,43,0,-19,-78,-126,-131
-122,-43,78,82,-100,17,43,0,-24,-78,-131,-131
-122,-48,73,85,-97,12,43,0,-24,-78,-136,-131
-122,-48,73,85,-97,12,48,0,-24,-78,-136,-126
-122,-48,73,85,-97,12,48,0,-24,-78,-136,-126
-126,-48,78,87,-102,14,48,9,-24,-78,-146,-131
-126,-48,78,87,-102,14,48,9,-24,-78,-146,-131
-126,-48,78,87,-102,14,48,4,-24,-78,-146,-131
-126,-53,73,90,-100,9,48,4,-24,-78,-146,-136
-126,-53,73,90,-100,9,48,4,-24,-92,-146,-136
-126,-48,78,87,-102,14,48,4,-24,-92,-146,-131
-126,-48,78,87,-102,14,48,4,-24,-92,-146,-131
-122,-48,73,85,-97,12,48,9,-24,-92,-146,-131
-122,-48,73,85,-97,12,48,9,-24,-102,-136,-141
-122,-48,73,85,-97,12,48,9,-24,-102,-136,-141
-122,-48,73,85,-97,12,48,9,-24,-102,-136,-141
-122,-53,68,87,-95,7,48,9,-24,-102,-136,-146
-122,-63,58,92,-90,-2,48,9,-24,-102,-146,-141
-122,-63,58,92,-90,-2,48,4,-24,-102,-146,-136
-122,-63,58,92,-90,-2,48,4,-24,-102,-146,-126
-126,-63,63,95,-95,0,48,4,-24,-102,-146,-122
-126,-63,63,95,-95,0,48,14,-24,-102,-146,-126
-126,-68,58,97,-92,-4,48,14,-24,-102,-146,-136
-126,-68,58,97,-92,-4,53,19,-24,-107,-146,-141
-126,-68,58,97,-92,-4,53,19,-24,-107,-146,-141
-126,-58,68,92,-97,4,63,19,-14,-112,-146,-122
-126,-58,68,92,-97,4,63,19,-9,-112,-151,-122
-136,-53,82,95,-109,14,73,29,-4,-117,-146,-131
-146,-43,102,95,-124,29,87,58,9,-107,-161,-141
-151,-39,112,95,-131,36,107,97,29,-107,-165,-141
-165,-34,131,100,-148,48,122,136,58,-102,-165,-156
-165,-14,151,90,-158,68,151,185,107,-92,-165,-204
-161,4,165,78,-163,85,170,268,190,-58,-151,-214
-141,14,156,63,-148,85,190,385,292,19,-102,-146
-92,34,126,29,-109,80,190,502,409,136,-19,-78
-53,34,87,9,-70,61,185,566,488,244,63,-14
-9,14,24,-2,-17,19,170,566,497,297,122,24
53,-9,-63,-21,58,-36,161,522,444,273,146,58
122,-24,-146,-48,134,-85,107,429,331,239,165,102
195,-14,-209,-90,202,-112,24,229,165,185,200,161
258,19,-239,-139,248,-109,-53,-53,-43,122,273,283
317,53,-263,-185,290,-104,-141,-366,-297,34,331,463
395,87,-307,-241,351,-109,-258,-668,-644,-131,312,590
468,141,-326,-305,397,-92,-385,-995,-985,-326,292,702
541,234,-307,-387,424,-36,-502,-1307,-1234,-439,361,858
639,361,-278,-500,458,41,-644,-1590,-1400,-478,478,1058
736,497,-239,-617,488,129,-785,-1873,-1586,-541,546,1268
829,595,-234,-712,531,180,-936,-2108,-1805,-658,585,1424
932,619,-312,-775,622,153,-1063,-2274,-1981,-717,678,1581
1039,561,-478,-800,758,41,-1156,-2327,-2054,-688,829,1776
1117,473,-644,-795,880,-85,-1205,-2298,-2054,-658,927,1893
1141,361,-780,-751,961,-209,-1239,-2210,-2015,-663,946,1839
1093,229,-863,-661,978,-317,-1234,-2083,-1908,-649,976,1703
946,82,-863,-514,905,-390,-1161,-1873,-1737,-610,980,1542
707,-53,-761,-326,734,-407,-1034,-1644,-1551,-614,912,1361
453,-146,-600,-153,527,-373,-897,-1464,-1322,-566,883,1239
283,-156,-439,-63,361,-297,-775,-1268,-1044,-439,941,1171
161,-136,-297,-12,229,-217,-629,-1005,-756,-283,936,1078
48,-122,-170,36,109,-146,-439,-707,-512,-146,805,917
-48,-136,-87,92,19,-112,-253,-478,-341,-97,585,629
-82,-146,-63,114,-9,-104,-126,-331,-253,-97,341,356
-63,-112,-48,87,-7,-80,-58,-219,-195,-82,204,209
-34,-82,-48,58,7,-65,-9,-122,-122,-34,131,141
-43,-73,-29,58,-7,-51,14,-48,-63,-9,68,92
-58,-68,-9,63,-24,-39,19,-19,-34,-19,4,29
-63,-68,-4,65,-29,-36,19,0,-9,-19,-14,-9
-73,-78,-4,75,-34,-41,39,19,14,-9,-9,4
-92,-68,24,80,-58,-21,63,24,24,-4,-19,14
-102,-58,43,80,-73,-7,58,19,14,0,-9,-4
-107,-48,58,78,-82,4,63,19,19,4,4,-14
-107,-39,68,73,-87,14,68,39,43,19,14,-9
-107,-39,68,73,-87,14,73,63,53,34,4,9
-107,-48,58,78,-82,4,73,73,68,34,-24,-29
-107,-48,58,78,-82,4,68,82,78,24,-34,-82
-107,-48,58,78,-82,4,78,82,87,14,-43,-87
-107,-48,58,78,-82,4,78,82,78,9,-53,-92
-107,-48,58,78,-82,4,82,78,78,4,-53,-87
-107,-48,58,78,-82,4,82,78,78,4,-48,-82
-107,-43,63,75,-85,9,87,78,78,0,-48,-78
-102,-43,58,73,-80,7,87,92,78,0,-53,-73
-102,-43,58,73,-80,7,87,97,87,0,-53,-73
-102,-43,58,73,-80,7,87,102,92,0,-63,-82
-102,-43,58,73,-80,7,92,107,92,4,-63,-87
-112,-48,63,80,-87,7,92,97,92,-4,-68,-92
-112,-48,63,80,-87,7,92,102,97,-4,-68,-92
-112,-43,68,78,-90,12,92,102,97,-4,-68,-82
-112,-43,68,78,-90,12,97,102,97,-4,-68,-78
-112,-53,58,82,-85,2,107,102,97,-9,-63,-82
-112,-53,58,82,-85,2,107,102,102,-9,-63,-82
-112,-48,63,80,-87,7,107,107,102,-9,-63,-87
-107,-48,58,78,-82,4,107,107,102,-4,-63,-87
-107,-48,58,78,-82,4,97,107,107,-14,-63,-92
-107,-53,53,80,-80,0,97,107,107,-9,-63,-102
-107,-53,53,80,-80,0,102,107,107,-9,-63,-92
-107,-53,53,80,-80,0,102,107,112,-4,-63,-87
-107,-43,63,75,-85,9,102,122,122,-4,-58,-78
-107,-43,63,75,-85,9,102,122,122,-4,-53,-78
-107,-43,63,75,-85,9,102,122,122,-4,-53,-78
-107,-43,63,75,-85,9,102,122,122,-4,-58,-82
-107,-48,58,78,-82,4,112,122,126,-14,-58,-92
-107,-48,58,78,-82,4,112,122,126,-9,-58,-92
-107,-43,63,75,-85,9,112,122,126,-4,-58,-92
-107,-43,63,75,-85,9,112,126,126,0,-53,-87
-107,-53,53,80,-80,0,112,126,122,0,-53,-87
-107,-53,53,80,-80,0,112,126,126,-4,-53,-82
-107,-53,53,80,-80,0,112,131,126,-4,-48,-82
-107,-53,53,80,-80,0,112,131,126,0,-48,-82
-107,-48,58,78,-82,4,112,131,131,0,-48,-82
-102,-48,53,75,-78,2,112,136,131,0,-48,-87
-102,-43,58,73,-80,7,112,136,131,0,-43,-97
-102,-43,58,73,-80,7,112,136,136,14,-43,-82
-102,-53,48,78,-75,-2,112,136,136,4,-43,-78
-102,-48,53,75,-78,2,112,136,136,4,-39,-78
-102,-48,53,75,-78,2,112,141,141,9,-34,-78
-102,-48,53,75,-78,2,112,146,141,14,-34,-78
-102,-48,53,75,-78,2,112,146,151,19,-43,-87
-102,-48,53,75,-78,2,112,146,156,19,-43,-87
-102,-48,53,75,-78,2,112,151,156,24,-39,-82
-102,-48,53,75,-78,2,112,156,161,29,-34,-82
-102,-48,53,75,-78,2,122,156,156,39,-24,-68
-102,-48,53,75,-78,2,122,156,156,43,-19,-63
-102,-48,53,75,-78,2,122,156,165,53,-14,-53
-102,-48,53,75,-78,2,126,161,165,63,-9,-48
-102,-48,53,75,-78,2,117,161,180,68,-4,-58
-102,-48,53,75,-78,2,117,161,185,78,0,-53
-102,-48,53,75,-78,2,117,161,190,82,0,-53
-97,-43,53,70,-75,4,117,161,195,87,4,-48
-87,-43,43,65,-65,0,117,170,200,102,0,-34
-87,-43,43,65,-65,0,117,175,204,107,4,-24
-82,-43,39,63,-61,-2,117,180,214,112,9,-24
-82,-39,43,61,-63,2,117,185,219,117,19,-24
-82,-39,43,61,-63,2,126,195,214,131,34,-29
-82,-39,43,61,-63,2,126,200,229,141,39,-24
-82,-39,43,61,-63,2,126,200,234,151,48,-19
-78,-34,43,56,-61,4,126,204,239,161,53,-19
-87,-34,53,61,-70,9,126,219,258,175,58,0
-87,-29,58,58,-73,14,126,229,268,185,73,9
-82,-29,53,56,-68,12,126,234,278,195,73,19
-82,-29,53,56,-68,12,126,244,287,204,87,24
-78,-29,48,53,-63,9,126,248,292,204,97,19
-78,-24,53,51,-65,14,131,258,307,219,107,24
-78,-24,53,51,-65,14,131,263,312,229,117,19
-73,-24,48,48,-61,12,131,268,322,244,131,14
-73,-19,53,46,-63,17,131,273,336,248,141,43
-73,-14,58,43,-65,21,131,287,346,263,151,63
-68,-14,53,41,-61,19,131,297,361,278,161,73
-68,-9,58,39,-63,24,131,307,370,283,175,82
-63,-9,53,36,-58,21,141,317,380,302,185,78
-58,-4,53,31,-56,24,141,326,390,317,195,78
-53,-4,48,29,-51,21,141,336,405,336,209,87
-53,-4,48,29,-51,21,141,341,414,351,224,82
-53,0,53,26,-53,26,141,351,424,356,244,92
-43,4,48,19,-46,26,141,361,434,375,258,112
-43,4,48,19,-46,26,141,366,444,390,268,126
-39,4,43,17,-41,24,141,375,453,400,278,131
-43,9,53,17,-48,31,141,385,468,419,292,141
-39,19,58,9,-48,39,136,395,473,429,302,136
-34,19,53,7,-43,36,136,405,478,444,312,146
-34,19,53,7,-43,36,136,409,483,448,322,141
-29,19,48,4,-39,34,136,414,492,458,336,156
-24,24,48,0,-36,36,131,414,502,468,351,175
-24,24,48,0,-36,36,131,419,502,468,356,190
-19,24,43,-2,-31,34,131,419,502,478,361,195
-19,24,43,-2,-31,34,131,419,502,483,370,195
-14,29,43,-7,-29,36,131,419,502,492,375,190
-14,29,43,-7,-29,36,126,419,502,497,380,190
-9,34,43,-12,-26,39,122,419,492,502,380,190
-9,24,34,-7,-21,29,122,424,492,497,380,200
-9,29,39,-9,-24,34,122,424,488,492,380,204
-4,29,34,-12,-19,31,122,419,483,488,380,224
-4,29,34,-12,-19,31,122,419,468,473,375,214
-4,34,39,-14,-21,36,107,419,458,453,366,200
-4,34,39,-14,-21,36,107,405,444,434,351,195
-4,34,39,-14,-21,36,112,390,429,414,336,190
-9,34,43,-12,-26,39,112,380,405,385,317,180
-4,24,29,-9,-17,26,102,356,385,346,278,170
-9,24,34,-7,-21,29,102,341,356,312,258,161
-14,24,39,-4,-26,31,102,322,336,287,234,161
-19,14,34,2,-26,24,97,302,312,258,209,131
-34,0,34,17,-34,17,97,278,278,229,175,92
-39,-4,34,21,-36,14,97,258,248,200,151,73
-43,-9,34,26,-39,12,97,244,229,175,126,63
-48,-14,34,31,-41,9,97,224,209,146,102,58
-43,-19,24,31,-34,2,82,204,180,102,78,39
-48,-24,24,36,-36,0,82,180,161,78,53,19
-53,-34,19,43,-36,-7,82,170,141,48,39,9
-58,-39,19,48,-39,-9,82,156,122,24,19,-4
-53,-43,9,48,-31,-17,82,146,112,4,-9,-14
-53,-48,4,51,-29,-21,82,131,97,-9,-14,-24
-58,-53,4,56,-31,-24,82,117,87,-24,-24,-34
-58,-58,0,58,-29,-29,87,112,73,-39,-39,-34
-73,-68,4,70,-39,-31,87,102,58,-63,-48,-53
-73,-73,0,73,-36,-36,87,97,48,-73,-58,-58
-78,-78,0,78,-39,-39,87,97,39,-78,-68,-63
-78,-78,0,78,-39,-39,87,82,29,-92,-73,-63
-78,-78,0,78,-39,-39,87,73,29,-87,-82,-63
-78,-78,0,78,-39,-39,87,73,19,-87,-82,-63
-78,-82,-4,80,-36,-43,82,68,14,-87,-92,-68
-78,-82,-4,80,-36,-43,82,63,9,-82,-97,-68
-78,-87,-9,82,-34,-48,92,63,14,-78,-92,-82
-82,-87,-4,85,-39,-46,92,58,9,-82,-97,-82
-82,-87,-4,85,-39,-46,92,58,4,-87,-97,-82
-82,-87,-4,85,-39,-46,92,58,4,-87,-102,-82
-92,-92,0,92,-46,-46,82,48,-4,-78,-117,-82
-92,-92,0,92,-46,-46,82,43,-4,-87,-117,-92
-92,-92,0,92,-46,-46,82,39,-9,-87,-112,-92
-97,-92,4,95,-51,-43,82,39,-9,-97,-112,-87
-97,-92,4,95,-51,-43,78,48,-9,-97,-117,-97
-97,-92,4,95,-51,-43,78,43,-14,-92,-117,-107
-97,-97,0,97,-48,-48,78,43,-14,-92,-122,-107
-97,-97,0,97,-48,-48,78,43,-19,-92,-122,-102
-97,-87,9,92,-53,-39,82,34,-29,-92,-122,-92
-97,-87,9,92,-53,-39,82,34,-29,-97,-122,-97
-97,-87,9,92,-53,-39,82,34,-29,-102,-122,-102
-97,-87,9,92,-53,-39,82,29,-29,-102,-126,-102
-87,-78,9,82,-48,-34,73,29,-29,-92,-126,-107
-87,-78,9,82,-48,-34,73,29,-29,-92,-126,-112
-92,-78,14,85,-53,-31,73,29,-34,-92,-126,-117
-92,-78,14,85,-53,-31,73,29,-34,-97,-126,-117
-102,-87,14,95,-58,-36,82,29,-34,-107,-126,-112
-102,-87,14,95,-58,-36,78,29,-34,-107,-122,-107
-97,-87,9,92,-53,-39,78,29,-34,-107,-122,-107
-97,-87,9,92,-53,-39,78,29,-34,-107,-122,-102
-92,-87,4,90,-48,-41,73,29,-24,-97,-122,-107
-92,-87,4,90,-48,-41,73,29,-24,-97,-122,-112
-92,-87,4,90,-48,-41,73,29,-24,-97,-122,-122
-92,-87,4,90,-48,-41,73,29,-29,-97,-122,-126
-102,-87,14,95,-58,-36,82,29,-39,-97,-122,-112
-97,-87,9,92,-53,-39,82,29,-34,-102,-122,-107
-97,-87,9,92,-53,-39,78,29,-34,-112,-122,-102
-102,-87,14,95,-58,-36,78,29,-34,-117,-122,-102
-102,-87,14,95,-58,-36,78,29,-24,-126,-126,-122
-102,-87,14,95,-58,-36,78,29,-24,-126,-126,-122
-102,-87,14,95,-58,-36,78,29,-24,-126,-126,-131
-102,-87,14,95,-58,-36,82,29,-24,-126,-126,-141
-92,-78,14,85,-53,-31,73,19,-34,-131,-126,-117
-92,-78,14,85,-53,-31,73,24,-34,-131,-126,-112
-92,-78,14,85,-53,-31,73,24,-34,-141,-126,-112
-92,-78,14,85,-53,-31,73,24,-34,-141,-126,-117
-102,-78,24,90,-63,-26,73,24,-34,-131,-126,-122
-102,-78,24,90,-63,-26,73,24,-34,-131,-122,-126
-102,-78,24,90,-63,-26,73,24,-34,-131,-122,-131
-102,-78,24,90,-63,-26,73,24,-29,-131,-122,-136
-102,-73,29,87,-65,-21,73,34,-29,-122,-131,-117
-102,-73,29,87,-65,-21,73,34,-29,-117,-131,-112
-102,-78,24,90,-63,-26,73,34,-29,-117,-131,-107
-102,-78,24,90,-63,-26,73,34,-29,-122,-131,-107
-92,-87,4,90,-48,-41,73,34,-29,-131,-122,-112
-92,-82,9,87,-51,-36,73,34,-24,-131,-122,-117
-92,-82,9,87,-51,-36,73,34,-24,-136,-126,-122
-92,-82,9,87,-51,-36,73,34,-24,-136,-126,-126
-92,-82,9,87,-51,-36,82,24,-24,-146,-126,-122
-92,-82,9,87,-51,-36,82,29,-19,-141,-126,-107
-92,-78,14,85,-53,-31,82,29,-19,-141,-126,-112
-92,-78,14,85,-53,-31,82,29,-24,-141,-126,-107
-92,-73,19,82,-56,-26,82,34,-24,-141,-126,-122
-97,-73,24,85,-61,-24,82,34,-14,-141,-126,-126
-97,-73,24,85,-61,-24,82,34,-14,-136,-122,-131
-97,-73,24,85,-61,-24,82,29,-14,-136,-122,-136
-97,-82,14,90,-56,-34,73,39,-14,-146,-122,-122
-97,-78,19,87,-58,-29,73,39,-14,-141,-122,-112
-97,-78,19,87,-58,-29,73,39,-9,-141,-122,-107
-92,-78,14,85,-53,-31,73,39,-9,-141,-122,-102
-102,-68,34,85,-68,-17,73,39,-9,-146,-122,-117
-102,-68,34,85,-68,-17,73,39,-14,-151,-122,-122
-102,-68,34,85,-68,-17,73,39,-14,-156,-117,-126
-102,-68,34,85,-68,-17,73,43,-14,-161,-117,-131
-92,-73,19,82,-56,-26,73,43,-14,-151,-117,-117
-92,-73,19,82,-56,-26,68,43,-14,-151,-117,-107
-92,-73,19,82,-56,-26,68,43,-14,-151,-117,-92
-92,-68,24,80,-58,-21,68,43,-14,-151,-117,-87
-97,-68,29,82,-63,-19,68,48,-14,-151,-117,-102
-92,-68,24,80,-58,-21,73,48,-9,-151,-117,-107
-82,-68,14,75,-48,-26,82,48,-9,-151,-112,-107
-82,-63,19,73,-51,-21,92,48,-9,-151,-112,-112
-82,-48,34,65,-58,-7,87,53,-4,-146,-112,-92
-82,-43,39,63,-61,-2,92,53,4,-156,-107,-78
-78,-39,39,58,-58,0,97,58,0,-156,-107,-78
-68,-29,39,48,-53,4,102,68,4,-146,-97,-87
-68,-29,39,48,-53,4,107,68,9,-146,-97,-87
-68,-29,39,48,-53,4,112,68,14,-146,-97,-87
-68,-29,39,48,-53,4,117,68,19,-146,-97,-87
-43,-14,29,29,-36,7,122,82,34,-126,-82,-92
-43,-14,29,29,-36,7,126,87,39,-126,-78,-92
-43,-4,39,24,-41,17,141,92,43,-122,-73,-87
-43,0,43,21,-43,21,156,102,43,-117,-68,-78
-34,9,43,12,-39,26,161,117,53,-107,-63,-63
-29,14,43,7,-36,29,165,122,58,-107,-63,-63
-19,29,48,-4,-34,39,170,126,63,-102,-58,-63
-14,29,43,-7,-29,36,175,136,68,-97,-53,-53
-19,19,39,0,-29,29,161,141,68,-92,-53,-53
-14,19,34,-2,-24,26,156,146,68,-92,-53,-53
-9,14,24,-2,-17,19,136,151,68,-92,-48,-58
-4,14,19,-4,-12,17,107,151,68,-92,-48,-63
0,14,14,-7,-7,14,82,151,68,-82,-39,-53
4,14,9,-9,-2,12,63,161,68,-78,-34,-43
9,14,4,-12,2,9,39,170,78,-68,-29,-39
9,14,4,-12,2,9,24,170,82,-63,-24,-29
0,14,14,-7,-7,14,14,165,73,-53,-29,-29
0,14,14,-7,-7,14,-4,151,73,-53,-34,-29
0,14,14,-7,-7,14,-24,126,73,-53,-39,-34
0,14,14,-7,-7,14,-39,102,68,-63,-43,-34
0,9,9,-4,-4,9,-48,78,48,-68,-43,-29
-4,-4,0,4,-2,-2,-58,48,29,-82,-53,-34
-4,-14,-9,9,2,-12,-63,29,19,-92,-58,-34
-4,-19,-14,12,4,-17,-63,24,9,-97,-63,-34
-9,-24,-14,17,2,-19,-48,29,4,-92,-73,-48
-9,-24,-14,17,2,-19,-39,29,4,-92,-73,-53
-4,-19,-14,12,4,-17,-34,39,9,-87,-78,-58
-4,-19,-14,12,4,-17,-29,39,9,-87,-78,-63
-4,-19,-14,12,4,-17,-24,24,4,-87,-78,-58
-4,-19,-14,12,4,-17,-14,24,4,-92,-78,-53
0,-24,-24,12,12,-24,-14,19,0,-97,-87,-53
0,-29,-29,14,14,-29,-9,19,-4,-102,-92,-63
9,-24,-34,7,21,-29,-14,19,-4,-117,-92,-73
4,-29,-34,12,19,-31,-9,19,-4,-117,-97,-78
0,-34,-34,17,17,-34,-9,14,-9,-122,-102,-87
0,-34,-34,17,17,-34,-9,14,-9,-122,-107,-97
0,-34,-34,17,17,-34,0,9,-19,-131,-107,-92
0,-34,-34,17,17,-34,4,9,-24,-131,-107,-78
0,-34,-34,17,17,-34,4,4,-24,-141,-107,-73
0,-39,-39,19,19,-39,4,4,-24,-141,-112,-82
-4,-39,-34,21,14,-36,19,9,-24,-131,-112,-102
-14,-39,-24,26,4,-31,19,9,-24,-131,-117,-107
-29,-43,-14,36,-7,-29,29,14,-24,-131,-117,-117
-53,-43,9,48,-31,-17,34,24,-24,-131,-117,-122
-68,-43,24,56,-46,-9,39,19,-19,-126,-126,-107
-82,-53,29,68,-56,-12,48,24,-19,-126,-126,-107
-97,-58,39,78,-68,-9,58,24,-24,-131,-136,-112
-102,-63,39,82,-70,-12,58,24,-24,-131,-136,-112
-102,-68,34,85,-68,-17,58,14,-34,-136,-136,-126
-112,-68,43,90,-78,-12,58,9,-34,-141,-136,-131
-112,-73,39,92,-75,-17,58,9,-34,-141,-146,-136
-112,-78,34,95,-73,-21,63,9,-39,-146,-146,-151
-122,-82,39,102,-80,-21,63,9,-34,-136,-151,-146
-122,-87,34,104,-78,-26,63,9,-34,-136,-156,-141
-122,-87,34,104,-78,-26,68,9,-34,-136,-156,-131
-122,-87,34,104,-78,-26,68,9,-34,-136,-156,-126
-126,-87,39,107,-82,-24,68,9,-43,-146,-146,-141
-126,-87,39,107,-82,-24,68,9,-43,-146,-146,-141
-126,-87,39,107,-82,-24,68,4,-43,-146,-146,-141
-126,-92,34,109,-80,-29,68,4,-43,-146,-146,-146
-126,-92,34,109,-80,-29,68,4,-34,-141,-146,-136
-126,-87,39,107,-82,-24,68,4,-34,-141,-146,-131
-126,-87,39,107,-82,-24,68,4,-34,-141,-146,-131
-122,-87,34,104,-78,-26,68,9,-34,-141,-146,-131
-122,-87,34,104,-78,-26,68,9,-34,-141,-156,-141
-122,-87,34,104,-78,-26,68,9,-34,-141,-156,-141
-122,-87,34,104,-78,-26,68,9,-34,-141,-156,-141
-122,-92,29,107,-75,-31,68,9,-34,-141,-156,-146
-122,-92,29,107,-75,-31,68,9,-34,-141,-156,-146
-122,-92,29,107,-75,-31,68,4,-34,-141,-156,-146
-122,-92,29,107,-75,-31,68,4,-34,-141,-156,-141
-126,-92,34,109,-80,-29,68,4,-34,-141,-156,-141
-126,-92,34,109,-80,-29,68,14,-34,-141,-156,-141
-126,-97,29,112,-78,-34,68,14,-34,-141,-156,-146
-126,-97,29,112,-78,-34,73,19,-34,-146,-156,-146
-126,-97,29,112,-78,-34,73,19,-34,-146,-156,-141
-126,-87,39,107,-82,-24,73,29,-34,-131,-146,-141
-126,-87,39,107,-82,-24,82,39,-29,-122,-151,-141
-136,-82,53,109,-95,-14,92,48,-14,-126,-165,-161
-146,-82,63,114,-104,-9,117,68,0,-126,-170,-170
-151,-78,73,114,-112,-2,146,107,29,-107,-165,-161
-165,-63,102,114,-134,19,170,165,87,-82,-175,-156
-165,-34,131,100,-148,48,190,234,146,-63,-165,-185
-141,-24,117,82,-129,46,209,336,219,-9,-141,-195
-112,-4,107,58,-109,51,219,463,322,87,-73,-136
-73,4,78,34,-75,41,209,561,429,204,9,-58
-24,4,29,9,-26,17,195,575,488,273,82,-14
19,-24,-43,2,31,-34,170,527,448,278,112,4
92,-39,-131,-26,112,-85,141,453,356,244,126,39
170,-34,-204,-68,187,-119,87,322,224,209,165,141
244,-14,-258,-114,251,-136,4,63,48,146,219,239
287,29,-258,-158,273,-114,-82,-248,-180,73,292,341
356,73,-283,-214,319,-104,-200,-561,-483,-63,312,483
434,117,-317,-275,375,-100,-317,-893,-839,-258,283,610
507,190,-317,-348,412,-63,-434,-1229,-1132,-424,302,751
590,302,-287,-446,439,7,-561,-1532,-1293,-478,409,917
688,429,-258,-558,473,85,-692,-1815,-1449,-517,517,1117
795,546,-248,-671,522,148,-834,-2069,-1644,-600,575,1317
897,595,-302,-746,600,146,-966,-2254,-1834,-678,634,1503
1000,580,-419,-790,710,80,-1073,-2352,-1961,-678,766,1659
1098,502,-595,-800,846,-46,-1146,-2357,-1995,-649,888,1776
1146,395,-751,-771,949,-178,-1195,-2278,-1976,-639,936,1795
1132,273,-858,-702,995,-292,-1220,-2171,-1917,-624,956,1722
1044,122,-922,-583,983,-400,-1195,-2005,-1781,-590,985,1576
839,-24,-863,-407,851,-444,-1083,-1786,-1610,-600,932,1376
580,-131,-712,-224,646,-422,-936,-1566,-1405,-595,863,1224
366,-185,-551,-90,458,-368,-800,-1356,-1137,-488,893,1161
224,-165,-390,-29,307,-278,-668,-1132,-858,-341,932,1083
112,-126,-239,7,175,-183,-502,-839,-610,-195,878,932
0,-141,-141,70,70,-141,-322,-570,-405,-107,707,712
-78,-165,-87,122,4,-126,-165,-380,-292,-87,468,444
-73,-156,-82,114,4,-119,-78,-263,-224,-87,253,248
-53,-131,-78,92,12,-104,-19,-170,-165,-63,146,141
-53,-112,-58,82,2,-85,19,-82,-92,-34,92,82
-53,-112,-58,82,2,-85,43,-19,-43,-29,29,63
-68,-107,-39,87,-14,-73,58,9,-14,-39,-4,29
-82,-97,-14,90,-34,-56,58,19,9,-39,-14,-19
-82,-97,-14,90,-34,-56,58,29,14,-29,-19,-24
-92,-87,4,90,-48,-41,73,24,14,-24,-19,-14
-102,-78,24,90,-63,-26,78,29,14,-19,-9,-14
-107,-68,39,87,-73,-14,73,29,19,-4,-4,-24
-97,-58,39,78,-68,-9,87,39,34,9,-4,-29
-97,-68,29,82,-63,-19,102,73,53,14,-14,-19
-107,-68,39,87,-73,-14,112,92,68,24,-24,-19
-107,-78,29,92,-68,-24,107,92,68,14,-43,-82
-107,-78,29,92,-68,-24,107,92,78,14,-53,-117
-117,-78,39,97,-78,-19,107,92,68,4,-63,-117
-117,-78,39,97,-78,-19,112,87,68,4,-63,-107
-117,-78,39,97,-78,-19,112,87,68,9,-58,-97
-117,-73,43,95,-80,-14,117,87,68,9,-58,-87
-112,-82,29,97,-70,-26,117,102,78,19,-53,-82
-112,-82,29,97,-70,-26,117,107,87,19,-53,-82
-112,-82,29,97,-70,-26,117,112,92,19,-63,-92
-112,-82,29,97,-70,-26,122,117,92,24,-63,-97
-112,-78,34,95,-73,-21,112,107,82,24,-68,-102
-112,-78,34,95,-73,-21,112,112,87,24,-68,-102
-112,-73,39,92,-75,-17,112,112,87,24,-68,-92
-112,-73,39,92,-75,-17,117,112,87,24,-68,-87
-112,-73,39,92,-75,-17,117,112,87,29,-63,-92
-112,-73,39,92,-75,-17,117,112,92,29,-63,-92
-112,-68,43,90,-78,-12,117,117,92,29,-63,-97
-107,-68,39,87,-73,-14,117,117,92,34,-63,-97
-107,-68,39,87,-73,-14,126,126,97,34,-63,-92
-107,-73,34,90,-70,-19,126,126,97,39,-63,-102
-107,-73,34,90,-70,-19,131,126,97,39,-63,-92
-107,-73,34,90,-70,-19,131,126,102,43,-63,-87
-107,-73,34,90,-70,-19,131,122,102,43,-58,-87
-107,-73,34,90,-70,-19,131,122,102,43,-53,-87
-107,-73,34,90,-70,-19,131,122,102,43,-53,-87
-107,-73,34,90,-70,-19,131,122,102,43,-58,-92
-107,-78,29,92,-68,-24,131,131,107,53,-58,-97
-107,-78,29,92,-68,-24,131,131,107,58,-58,-102
-107,-73,34,90,-70,-19,131,131,107,63,-58,-107
-107,-73,34,90,-70,-19,131,136,107,68,-53,-107
-107,-63,43,85,-75,-9,122,126,112,68,-53,-97
-107,-63,43,85,-75,-9,122,126,117,63,-53,-92
-107,-63,43,85,-75,-9,122,131,117,63,-48,-92
-107,-63,43,85,-75,-9,122,131,117,68,-48,-92
-107,-68,39,87,-73,-14,122,131,122,68,-58,-97
-102,-68,34,85,-68,-17,122,136,122,68,-58,-107
-102,-63,39,82,-70,-12,122,136,122,68,-53,-122
-102,-63,39,82,-70,-12,122,136,126,82,-53,-112
-102,-63,39,82,-70,-12,131,146,126,82,-53,-102
-102,-58,43,80,-73,-7,131,146,126,82,-48,-97
-102,-58,43,80,-73,-7,131,151,131,87,-43,-92
-102,-58,43,80,-73,-7,131,156,131,92,-43,-87
-112,-58,53,85,-82,-2,131,146,141,97,-34,-97
-112,-58,53,85,-82,-2,131,146,146,97,-34,-97
-112,-58,53,85,-82,-2,131,151,146,102,-29,-92
-112,-58,53,85,-82,-2,131,156,151,107,-24,-92
-112,-58,53,85,-82,-2,122,165,156,122,-34,-78
-112,-58,53,85,-82,-2,122,165,156,122,-29,-73
-112,-58,53,85,-82,-2,122,165,165,126,-24,-63
-112,-58,53,85,-82,-2,126,170,165,131,-19,-58
-102,-48,53,75,-78,2,126,170,170,136,-14,-63
-102,-48,53,75,-78,2,126,170,175,146,-9,-63
-102,-48,53,75,-78,2,126,170,180,151,-9,-68
-97,-43,53,70,-75,4,126,170,185,156,-4,-68
-107,-53,53,80,-80,0,136,180,190,161,9,-48
-107,-53,53,80,-80,0,136,185,195,165,14,-34
-102,-53,48,78,-75,-2,136,190,204,170,19,-29
-102,-48,53,75,-78,2,136,195,209,175,29,-24
-92,-48,43,70,-68,-2,136,204,214,190,24,-34
-92,-48,43,70,-68,-2,136,209,229,200,29,-34
-92,-48,43,70,-68,-2,136,209,234,209,39,-34
-87,-43,43,65,-65,0,136,214,239,219,43,-39
-97,-43,53,70,-75,4,136,219,248,234,58,-19
-97,-39,58,68,-78,9,136,229,258,244,73,-9
-92,-39,53,65,-73,7,136,234,268,253,73,0
-92,-39,53,65,-73,7,136,244,278,263,87,4
-87,-39,48,63,-68,4,136,258,283,273,97,0
-87,-34,53,61,-70,9,141,268,297,287,107,4
-87,-34,53,61,-70,9,141,273,302,297,117,0
-82,-34,48,58,-65,7,141,278,312,312,131,-4
-82,-29,53,56,-68,12,141,283,326,326,141,24
-82,-24,58,53,-70,17,141,297,336,341,151,43
-78,-24,53,51,-65,14,141,307,351,356,161,53
-78,-19,58,48,-68,19,141,317,361,361,175,63
-73,-19,53,46,-63,17,151,326,380,380,185,58
-68,-14,53,41,-61,19,151,336,390,395,195,58
-63,-14,48,39,-56,17,151,346,405,414,209,68
-63,-14,48,39,-56,17,151,351,414,429,224,63
-73,-9,63,41,-68,26,151,361,414,434,234,82
-63,-4,58,34,-61,26,151,370,424,453,248,102
-63,-4,58,34,-61,26,151,375,434,468,258,117
-58,-4,53,31,-56,24,151,385,444,478,268,122
-43,9,53,17,-48,31,151,395,453,497,292,126
-39,19,58,9,-48,39,146,405,463,507,302,126
-34,19,53,7,-43,36,146,414,473,522,312,141
-34,19,53,7,-43,36,146,419,483,527,322,141
-39,19,58,9,-48,39,146,424,473,536,326,146
-34,24,58,4,-46,41,141,424,483,546,341,165
-34,24,58,4,-46,41,141,429,483,546,346,180
-29,24,53,2,-41,39,141,429,483,556,351,185
-19,24,43,-2,-31,34,141,439,492,566,370,180
-14,29,43,-7,-29,36,141,439,492,570,375,180
-14,29,43,-7,-29,36,136,439,492,570,380,185
-9,34,43,-12,-26,39,131,439,483,570,380,190
-9,34,43,-12,-26,39,131,439,483,556,370,190
-9,39,48,-14,-29,43,131,434,478,551,370,195
-4,39,43,-17,-24,41,131,424,473,546,370,214
-4,39,43,-17,-24,41,131,419,458,531,366,204
-14,43,58,-14,-36,51,117,409,448,512,346,180
-14,43,58,-14,-36,51,117,395,434,492,331,175
-14,43,58,-14,-36,51,122,380,419,473,317,170
-19,43,63,-12,-41,53,122,370,395,444,297,161
-14,34,48,-9,-31,41,112,346,370,405,258,141
-19,34,53,-7,-36,43,112,331,336,370,239,131
-24,34,58,-4,-41,46,112,312,312,346,214,131
-29,24,53,2,-41,39,107,292,283,317,190,102
-24,19,43,2,-34,31,97,258,258,278,165,73
-29,14,43,7,-36,29,97,239,229,248,141,53
-34,9,43,12,-39,26,97,224,209,224,117,43
-39,4,43,17,-41,24,97,204,190,195,92,39
-43,-9,34,26,-39,12,92,195,161,165,58,19
-48,-14,34,31,-41,9,92,170,141,146,34,0
-53,-24,29,39,-41,2,92,161,122,122,19,-9
-58,-29,29,43,-43,0,92,146,102,102,0,-24
-63,-34,29,48,-46,-2,92,136,102,92,-9,-39
-63,-39,24,51,-43,-7,92,122,87,78,-14,-43
-68,-43,24,56,-46,-9,92,107,78,63,-24,-48
-68,-48,19,58,-43,-14,97,102,63,48,-39,-43
-73,-58,14,65,-43,-21,87,92,48,43,-48,-63
-73,-63,9,68,-41,-26,87,87,39,34,-58,-68
-78,-68,9,73,-43,-29,87,87,29,29,-68,-73
-78,-68,9,73,-43,-29,87,73,19,14,-73,-73
-87,-68,19,78,-53,-24,87,73,29,4,-73,-73
-87,-68,19,78,-53,-24,87,73,19,0,-73,-73
-87,-73,14,80,-51,-29,82,68,14,-4,-82,-78
-87,-73,14,80,-51,-29,82,63,9,-4,-87,-78
-87,-78,9,82,-48,-34,82,53,4,-19,-92,-87
-92,-78,14,85,-53,-31,82,48,0,-24,-97,-92
-92,-78,14,85,-53,-31,82,48,-4,-29,-97,-97
-92,-78,14,85,-53,-31,82,48,-4,-29,-102,-102
-92,-82,9,87,-51,-36,82,48,-4,-19,-117,-97
-92,-82,9,87,-51,-36,82,43,-4,-29,-117,-102
-92,-82,9,87,-51,-36,82,39,-9,-29,-112,-97
-97,-82,14,90,-56,-34,82,39,-9,-39,-112,-87
-97,-82,14,90,-56,-34,78,39,-19,-48,-117,-92
-97,-82,14,90,-56,-34,78,34,-24,-43,-117,-107
-97,-87,9,92,-53,-39,78,34,-24,-43,-122,-112
-97,-87,9,92,-53,-39,78,34,-29,-43,-122,-112
-97,-87,9,92,-53,-39,82,34,-19,-34,-112,-107
-97,-87,9,92,-53,-39,82,34,-19,-39,-112,-107
-97,-87,9,92,-53,-39,82,34,-19,-43,-112,-107
-97,-87,9,92,-53,-39,82,29,-19,-43,-117,-102
-87,-78,9,82,-48,-34,82,29,-29,-53,-117,-107
-87,-78,9,82,-48,-34,82,29,-29,-53,-117,-112
-92,-78,14,85,-53,-31,82,29,-34,-53,-117,-117
-92,-78,14,85,-53,-31,82,29,-34,-58,-117,-117
-92,-78,14,85,-53,-31,82,29,-24,-48,-117,-112
-92,-78,14,85,-53,-31,78,29,-24,-48,-112,-107
-87,-78,9,82,-48,-34,78,29,-24,-48,-112,-107
-87,-78,9,82,-48,-34,78,29,-24,-48,-112,-102
-102,-78,24,90,-63,-26,82,29,-24,-58,-122,-117
-102,-78,24,90,-63,-26,82,29,-24,-58,-122,-122
-102,-78,24,90,-63,-26,82,29,-24,-58,-122,-131
-102,-78,24,90,-63,-26,82,29,-29,-58,-122,-136
-102,-78,24,90,-63,-26,73,29,-29,-53,-122,-131
-97,-78,19,87,-58,-29,73,29,-24,-53,-122,-126
-97,-78,19,87,-58,-29,68,29,-24,-58,-122,-122
-102,-78,24,90,-63,-26,68,29,-24,-58,-122,-122
-92,-78,14,85,-53,-31,68,29,-34,-68,-136,-136
-92,-78,14,85,-53,-31,68,29,-34,-68,-136,-131
-92,-78,14,85,-53,-31,68,29,-34,-68,-136,-136
-92,-78,14,85,-53,-31,73,29,-34,-68,-136,-141
-102,-68,34,85,-68,-17,73,19,-34,-73,-126,-117
-102,-68,34,85,-68,-17,73,24,-34,-73,-126,-112
-102,-68,34,85,-68,-17,73,24,-34,-82,-126,-112
-102,-68,34,85,-68,-17,73,24,-34,-82,-126,-117
-102,-68,34,85,-68,-17,73,24,-34,-82,-126,-131
-102,-68,34,85,-68,-17,73,24,-34,-82,-122,-136
-102,-68,34,85,-68,-17,73,24,-34,-82,-122,-141
-102,-68,34,85,-68,-17,73,24,-29,-82,-122,-146
-102,-63,39,82,-70,-12,82,34,-29,-92,-122,-126
-102,-63,39,82,-70,-12,82,34,-29,-87,-122,-122
-102,-68,34,85,-68,-17,82,34,-29,-87,-122,-117
-102,-68,34,85,-68,-17,82,34,-29,-92,-122,-117
-92,-68,24,80,-58,-21,82,24,-29,-92,-122,-122
-92,-63,29,78,-61,-17,82,24,-24,-92,-122,-126
-92,-63,29,78,-61,-17,82,24,-24,-97,-126,-131
-92,-63,29,78,-61,-17,82,24,-24,-97,-126,-136
-102,-63,39,82,-70,-12,73,24,-34,-107,-136,-131
-102,-63,39,82,-70,-12,73,29,-29,-102,-136,-117
-102,-58,43,80,-73,-7,73,29,-29,-102,-136,-122
-102,-58,43,80,-73,-7,73,29,-34,-102,-136,-117
-102,-63,39,82,-70,-12,73,24,-24,-112,-136,-122
-107,-63,43,85,-75,-9,73,24,-14,-112,-136,-126
-107,-63,43,85,-75,-9,73,24,-14,-107,-131,-131
-107,-63,43,85,-75,-9,73,19,-14,-107,-131,-136
-107,-63,43,85,-75,-9,73,29,-24,-117,-131,-126
-107,-58,48,82,-78,-4,73,29,-24,-112,-131,-122
-107,-58,48,82,-78,-4,73,29,-19,-112,-131,-122
-102,-58,43,80,-73,-7,73,29,-19,-112,-131,-122
-92,-58,34,75,-63,-12,73,29,-9,-112,-131,-112
-92,-58,34,75,-63,-12,73,29,-14,-112,-131,-112
-92,-58,34,75,-63,-12,73,29,-14,-112,-126,-112
-92,-58,34,75,-63,-12,73,34,-14,-112,-126,-112
-92,-53,39,73,-65,-7,73,34,-14,-112,-126,-102
-92,-53,39,73,-65,-7,68,34,-14,-112,-126,-97
-92,-53,39,73,-65,-7,68,34,-14,-112,-126,-87
-92,-48,43,70,-68,-2,68,34,-14,-112,-126,-87
-78,-39,39,58,-58,0,78,39,-14,-112,-117,-68
-73,-39,34,56,-53,-2,73,39,-19,-122,-117,-68
-73,-29,43,51,-58,7,82,39,-9,-131,-112,-102
-82,-34,48,58,-65,7,102,48,0,-122,-112,-112
-68,-29,39,48,-53,4,117,48,9,-107,-107,-78
-58,-24,34,41,-46,4,117,58,9,-107,-107,-78
-58,-19,39,39,-48,9,117,58,9,-107,-107,-78
-58,-14,43,36,-51,14,117,58,9,-107,-107,-78
-58,-9,48,34,-53,19,117,58,9,-107,-107,-78
-43,4,48,19,-46,26,126,68,24,-97,-92,-82
-43,4,48,19,-46,26,126,78,29,-97,-87,-82
-43,14,58,14,-51,36,136,87,34,-92,-82,-78
-43,19,63,12,-53,41,146,102,34,-87,-78,-68
-43,24,68,9,-56,46,151,107,53,-87,-73,-63
-39,34,73,2,-56,53,156,112,58,-87,-73,-63
-29,53,82,-12,-56,68,161,117,63,-82,-68,-63
-24,58,82,-17,-53,70,165,126,68,-78,-63,-53
-14,48,63,-17,-39,56,151,122,68,-73,-63,-53
-4,48,53,-21,-29,51,146,126,68,-73,-63,-53
4,43,39,-24,-17,41,126,131,68,-73,-58,-58
14,43,29,-29,-7,36,97,131,68,-73,-58,-63
9,43,34,-26,-12,39,78,131,68,-82,-58,-48
14,43,29,-29,-7,36,63,141,68,-78,-53,-43
19,43,24,-31,-2,34,43,151,78,-68,-48,-43
19,43,24,-31,-2,34,34,151,82,-63,-43,-39
19,43,24,-31,-2,34,4,141,78,-73,-53,-29
19,43,24,-31,-2,34,-14,131,73,-73,-53,-29
19,43,24,-31,-2,34,-34,112,68,-73,-53,-34
19,43,24,-31,-2,34,-48,92,58,-82,-53,-34
9,39,29,-24,-9,34,-63,68,39,-97,-63,-24
4,24,19,-14,-7,21,-68,39,19,-112,-73,-34
4,14,9,-9,-2,12,-68,19,9,-122,-78,-39
4,9,4,-7,0,7,-63,14,0,-126,-82,-43
0,4,4,-2,-2,4,-58,19,4,-131,-92,-34
0,4,4,-2,-2,4,-48,19,4,-131,-92,-34
4,9,4,-7,0,7,-43,29,9,-126,-97,-34
4,9,4,-7,0,7,-39,29,9,-126,-97,-34
14,19,4,-17,4,12,-34,24,-4,-136,-97,-43
14,19,4,-17,4,12,-24,24,-4,-141,-97,-43
19,14,-4,-17,12,4,-24,19,-9,-146,-107,-48
19,9,-9,-14,14,0,-19,19,-14,-151,-112,-63
9,4,-4,-7,7,0,-14,19,-14,-156,-112,-68
4,0,-4,-2,4,-2,-9,19,-14,-156,-117,-68
0,-4,-4,2,2,-4,-9,14,-19,-161,-122,-73
0,-4,-4,2,2,-4,-9,14,-19,-161,-126,-78
0,-4,-4,2,2,-4,-9,9,-29,-161,-117,-78
0,-4,-4,2,2,-4,-4,9,-34,-161,-117,-68
0,-4,-4,2,2,-4,-4,4,-34,-170,-117,-68
0,-9,-9,4,4,-9,-4,4,-34,-170,-122,-82
0,0,0,0,0,0,0,14,-34,-180,-131,-78
-4,0,4,2,-4,2,0,9,-34,-180,-136,-78
-14,-4,9,9,-12,2,9,9,-34,-180,-136,-82
-34,-4,29,19,-31,12,14,14,-34,-180,-136,-82
-58,-14,43,36,-51,14,29,9,-29,-190,-136,-82
-73,-24,48,48,-61,12,39,14,-29,-195,-136,-87
-87,-29,58,58,-73,14,48,14,-34,-204,-146,-97
-92,-34,58,63,-75,12,48,14,-34,-209,-146,-102
-102,-29,73,65,-87,21,39,4,-34,-224,-146,-102
-112,-29,82,70,-97,26,39,0,-34,-229,-146,-102
-112,-34,78,73,-95,21,39,0,-34,-229,-156,-102
-112,-39,73,75,-92,17,43,0,-39,-234,-156,-112
-102,-43,58,73,-80,7,43,0,-43,-234,-161,-117
-102,-48,53,75,-78,2,43,0,-43,-234,-165,-122
-102,-48,53,75,-78,2,48,0,-43,-234,-165,-122
-102,-48,53,75,-78,2,48,0,-43,-234,-165,-126
-107,-48,58,78,-82,4,48,0,-43,-224,-165,-117
-107,-48,58,78,-82,4,48,0,-43,-224,-165,-112
-107,-48,58,78,-82,4,48,-4,-43,-224,-165,-107
-107,-53,53,80,-80,0,48,-4,-43,-224,-165,-107
-117,-53,63,85,-90,4,58,4,-43,-229,-165,-112
-117,-48,68,82,-92,9,58,4,-43,-229,-165,-112
-117,-48,68,82,-92,9,58,4,-43,-229,-165,-117
-112,-48,63,80,-87,7,58,9,-43,-229,-165,-122
-102,-48,53,75,-78,2,48,0,-43,-239,-165,-117
-102,-48,53,75,-78,2,48,0,-43,-239,-165,-112
-102,-48,53,75,-78,2,48,0,-43,-239,-165,-107
-102,-53,48,78,-75,-2,48,0,-43,-239,-165,-107
-102,-43,58,73,-80,7,48,0,-43,-244,-175,-122
-102,-43,58,73,-80,7,48,-4,-43,-248,-175,-126
-102,-43,58,73,-80,7,48,-4,-43,-253,-175,-126
-107,-43,63,75,-85,9,48,-4,-43,-258,-175,-131
-107,-43,63,75,-85,9,48,-4,-43,-258,-165,-117
-107,-48,58,78,-82,4,48,-4,-43,-258,-165,-117
-107,-48,58,78,-82,4,53,0,-43,-263,-165,-112
-107,-48,58,78,-82,4,53,0,-43,-263,-165,-102
-117,-39,78,78,-97,19,63,9,-34,-258,-165,-131
-117,-48,68,82,-92,9,73,19,-29,-248,-180,-170
-117,-43,73,80,-95,14,82,29,-24,-253,-175,-151
-136,-34,102,85,-119,34,97,58,-9,-244,-180,-141
-151,-29,122,90,-136,46,117,97,29,-244,-185,-151
-146,-24,122,85,-134,48,131,136,68,-229,-185,-146
-146,-4,141,75,-143,68,161,204,136,-190,-175,-136
-141,14,156,63,-148,85,190,317,219,-117,-141,-97
-112,24,136,43,-124,80,200,444,322,-29,-82,-78
-63,43,107,9,-85,75,190,531,419,68,0,-68
-4,43,48,-19,-26,46,165,556,478,136,63,-14
48,14,-34,-31,41,-9,151,517,439,141,92,43
122,0,-122,-61,122,-61,122,434,356,107,107,78
200,-4,-204,-97,202,-104,48,292,214,73,126,151
263,24,-239,-143,251,-107,-34,53,39,29,190,268
317,58,-258,-187,287,-100,-102,-248,-180,-34,273,429
375,82,-292,-229,334,-104,-209,-561,-473,-161,292,551
463,136,-326,-300,395,-95,-336,-902,-819,-385,263,600
546,219,-326,-383,436,-53,-463,-1229,-1093,-541,283,712
629,322,-307,-475,468,7,-580,-1532,-1263,-585,390,927
736,448,-287,-592,512,80,-712,-1805,-1410,-624,488,1137
834,566,-268,-700,551,148,-863,-2059,-1625,-717,527,1317
927,614,-312,-771,619,151,-1005,-2244,-1844,-795,585,1493
1039,600,-439,-819,739,80,-1102,-2342,-1961,-795,727,1698
1127,512,-614,-819,871,-51,-1166,-2347,-1986,-756,839,1815
1176,405,-771,-790,973,-183,-1215,-2288,-1976,-775,858,1737
1171,283,-888,-727,1029,-302,-1239,-2181,-1917,-790,868,1586
1073,141,-932,-607,1002,-395,-1205,-2005,-1781,-746,868,1449
878,4,-873,-441,875,-434,-1102,-1786,-1610,-746,814,1288
610,-112,-722,-248,666,-417,-966,-1576,-1415,-732,756,1127
385,-156,-541,-114,463,-348,-849,-1385,-1166,-624,795,1073
244,-136,-380,-53,312,-258,-707,-1151,-878,-458,844,1044
112,-97,-209,-7,161,-153,-531,-858,-610,-312,819,951
0,-102,-102,51,51,-102,-341,-580,-405,-224,678,702
-58,-117,-58,87,0,-87,-195,-400,-283,-204,439,385
-53,-97,-43,75,-4,-70,-97,-283,-224,-204,244,209
-24,-63,-39,43,7,-51,-48,-180,-156,-180,126,151
-14,-43,-29,29,7,-36,-9,-92,-92,-161,53,112
-24,-43,-19,34,-2,-31,14,-39,-53,-165,-9,53
-39,-39,0,39,-19,-19,19,-19,-34,-156,-43,48
-53,-48,4,51,-29,-21,29,9,-9,-146,-43,68
-73,-48,24,61,-48,-12,39,19,14,-146,-48,43
-82,-29,53,56,-68,12,43,14,14,-141,-48,-14
-92,-9,82,51,-87,36,48,9,24,-136,-39,-24
-87,-9,78,48,-82,34,63,19,29,-122,-24,14
-87,-9,78,48,-82,34,68,29,34,-126,-24,19
-78,-9,68,43,-73,29,63,43,34,-122,-34,9
-78,-19,58,48,-68,19,63,53,48,-112,-53,-9
-78,-19,58,48,-68,19,68,73,58,-112,-82,-14
-87,-29,58,58,-73,14,78,82,68,-122,-92,-19
-87,-19,68,53,-78,24,78,73,68,-122,-92,-39
-87,-19,68,53,-78,24,82,68,68,-122,-92,-48
-87,-19,68,53,-78,24,82,68,68,-117,-87,-58
-87,-14,73,51,-80,29,87,68,68,-117,-87,-68
-82,-14,68,48,-75,26,87,82,58,-117,-82,-48
-82,-14,68,48,-75,26,87,87,68,-117,-82,-43
-82,-14,68,48,-75,26,87,92,73,-117,-92,-48
-82,-14,68,48,-75,26,92,97,73,-112,-92,-48
-82,-19,63,51,-73,21,82,87,73,-112,-97,-73
-82,-19,63,51,-73,21,82,92,78,-112,-97,-82
-82,-14,68,48,-75,26,82,92,78,-112,-97,-82
-82,-14,68,48,-75,26,87,92,78,-112,-97,-87
-92,-14,78,53,-85,31,87,92,78,-107,-82,-68
-92,-14,78,53,-85,31,87,92,82,-107,-82,-63
-92,-9,82,51,-87,36,87,97,82,-107,-82,-63
-87,-9,78,48,-82,34,87,97,82,-102,-82,-58
-87,0,87,43,-87,43,97,107,97,-92,-92,-73
-87,-4,82,46,-85,39,97,107,97,-87,-92,-92
-87,-4,82,46,-85,39,102,107,97,-87,-92,-92
-87,-4,82,46,-85,39,102,107,102,-82,-92,-97
-78,-4,73,41,-75,34,92,102,102,-73,-87,-87
-78,-4,73,41,-75,34,92,102,102,-73,-82,-78
-78,-4,73,41,-75,34,92,102,102,-73,-82,-68
-78,-4,73,41,-75,34,92,102,102,-73,-87,-63
-78,-9,68,43,-73,29,92,112,97,-63,-87,-73
-78,-9,68,43,-73,29,92,112,97,-58,-87,-82
-78,-4,73,41,-75,34,92,112,97,-53,-87,-92
-78,-4,73,41,-75,34,92,117,97,-48,-82,-97
-78,4,82,36,-80,43,92,117,102,-48,-82,-92
-78,4,82,36,-80,43,92,117,107,-53,-82,-82
-78,4,82,36,-80,43,92,122,107,-53,-78,-78
-78,4,82,36,-80,43,92,122,107,-48,-78,-73
-78,0,78,39,-78,39,92,112,112,-39,-78,-78
-73,0,73,36,-73,36,92,117,112,-39,-78,-87
-73,4,78,34,-75,41,92,117,112,-39,-73,-102
-73,4,78,34,-75,41,92,117,117,-24,-73,-92
-73,-4,68,39,-70,31,92,126,117,-34,-73,-78
-73,0,73,36,-73,36,92,126,117,-34,-68,-78
-73,0,73,36,-73,36,92,131,122,-29,-63,-78
-73,0,73,36,-73,36,92,136,122,-24,-63,-78
-73,0,73,36,-73,36,102,126,131,-14,-53,-78
-73,0,73,36,-73,36,102,126,136,-9,-53,-78
-73,0,73,36,-73,36,102,131,136,0,-48,-73
-73,0,73,36,-73,36,102,136,141,9,-43,-73
-73,9,82,31,-78,46,92,136,146,4,-53,-73
-73,9,82,31,-78,46,92,136,146,4,-48,-73
-73,9,82,31,-78,46,92,136,156,9,-43,-68
-73,9,82,31,-78,46,97,141,156,14,-39,-68
-73,9,82,31,-78,46,97,161,161,29,-34,-58
-73,9,82,31,-78,46,97,161,165,39,-29,-53
-73,9,82,31,-78,46,97,161,170,43,-29,-53
-68,14,82,26,-75,48,97,161,175,48,-24,-48
-68,14,82,26,-75,48,97,161,180,53,-19,-53
-68,14,82,26,-75,48,97,165,185,58,-14,-43
-63,14,78,24,-70,46,97,170,195,63,-9,-43
-63,19,82,21,-73,51,97,175,200,68,0,-43
-63,19,82,21,-73,51,97,185,214,92,4,-39
-63,19,82,21,-73,51,97,190,229,102,9,-34
-63,19,82,21,-73,51,97,190,234,112,19,-29
-58,24,82,17,-70,53,97,195,239,122,24,-29
-58,14,73,21,-65,43,97,200,239,117,29,-24
-58,19,78,19,-68,48,97,209,248,126,43,-19
-53,19,73,17,-63,46,97,214,258,136,43,-14
-53,19,73,17,-63,46,97,224,268,146,58,-14
-48,29,78,9,-63,53,107,239,283,165,68,-9
-48,34,82,7,-65,58,112,248,297,180,78,4
-48,34,82,7,-65,58,112,253,302,190,87,9
-43,34,78,4,-61,56,112,258,312,204,102,14
-34,39,73,-2,-53,56,112,263,317,219,102,24
-34,43,78,-4,-56,61,112,278,326,234,112,34
-29,43,73,-7,-51,58,112,287,341,248,122,34
-29,48,78,-9,-53,63,112,297,351,253,136,34
-34,48,82,-7,-58,65,112,307,370,273,156,39
-29,53,82,-12,-56,68,112,317,380,287,165,48
-24,53,78,-14,-51,65,112,326,395,307,180,68
-24,53,78,-14,-51,65,112,331,405,322,195,73
-14,58,73,-21,-43,65,112,351,405,326,204,68
-4,63,68,-29,-36,65,112,361,414,346,219,82
-4,63,68,-29,-36,65,112,366,424,361,229,92
0,63,63,-31,-31,63,112,375,434,370,239,92
-4,68,73,-31,-39,70,102,375,439,370,244,107
0,78,78,-39,-39,78,97,385,444,380,253,107
4,78,73,-41,-34,75,97,395,448,395,263,122
4,78,73,-41,-34,75,97,400,453,400,273,122
0,68,68,-34,-34,68,107,405,453,419,268,117
4,73,68,-39,-31,70,102,405,463,429,283,126
4,73,68,-39,-31,70,102,409,463,429,287,131
9,73,63,-41,-26,68,102,409,463,439,292,126
19,73,53,-46,-17,63,102,419,463,448,312,136
24,78,53,-51,-14,65,102,419,463,453,317,141
24,78,53,-51,-14,65,97,419,463,453,322,151
29,82,53,-56,-12,68,92,419,453,453,322,161
39,92,53,-65,-7,73,82,419,453,448,312,156
39,97,58,-68,-9,78,82,414,448,444,312,156
43,97,53,-70,-4,75,82,405,444,439,312,170
43,97,53,-70,-4,75,82,400,429,424,307,156
34,92,58,-63,-12,75,78,390,419,405,297,146
34,92,58,-63,-12,75,78,375,405,385,283,146
34,92,58,-63,-12,75,82,361,390,366,268,146
29,92,63,-61,-17,78,82,351,366,336,248,141
34,82,48,-58,-7,65,73,326,346,307,219,126
29,82,53,-56,-12,68,73,312,317,273,200,112
24,82,58,-53,-17,70,73,292,297,248,175,107
19,73,53,-46,-17,63,68,273,273,219,151,73
14,68,53,-41,-19,61,58,248,248,180,136,53
9,63,53,-36,-21,58,58,229,219,151,112,43
4,58,53,-31,-24,56,58,214,200,126,87,43
0,53,53,-26,-26,53,58,195,180,97,63,48
-14,39,53,-12,-34,46,63,185,161,73,48,24
-19,34,53,-7,-36,43,63,161,141,58,24,0
-24,24,48,0,-36,36,63,151,122,39,9,-14
-29,19,48,4,-39,34,63,136,102,24,-9,-34
-24,14,39,4,-31,26,53,126,92,4,-29,-43
-24,9,34,7,-29,21,53,112,78,-9,-34,-43
-29,4,34,12,-31,19,53,97,68,-24,-43,-43
-29,0,29,14,-29,14,58,92,53,-39,-58,-34
-34,-9,24,21,-29,7,68,82,48,-48,-68,-48
-34,-14,19,24,-26,2,68,78,39,-53,-78,-58
-39,-19,19,29,-29,0,68,78,29,-53,-87,-68
-39,-19,19,29,-29,0,68,63,19,-63,-92,-73
-48,-9,39,29,-43,14,58,53,19,-63,-102,-78
-48,-9,39,29,-43,14,58,53,9,-68,-102,-73
-48,-14,34,31,-41,9,53,48,4,-73,-112,-73
-48,-14,34,31,-41,9,53,43,0,-73,-117,-68
-39,-9,29,24,-34,9,53,43,4,-78,-122,-78
-43,-9,34,26,-39,12,53,39,0,-82,-126,-82
-43,-9,34,26,-39,12,53,39,-4,-87,-126,-87
-43,-9,34,26,-39,12,53,39,-4,-87,-131,-92
-53,-14,39,34,-46,12,63,39,-4,-78,-126,-87
-53,-14,39,34,-46,12,63,34,-4,-87,-126,-92
-53,-14,39,34,-46,12,63,29,-9,-87,-122,-87
-58,-14,43,36,-51,14,63,29,-9,-97,-122,-78
-58,-14,43,36,-51,14,63,29,-9,-107,-136,-92
-58,-14,43,36,-51,14,58,24,-14,-102,-136,-107
-58,-19,39,39,-48,9,53,24,-14,-102,-141,-112
-58,-19,39,39,-48,9,48,24,-19,-102,-141,-112
-48,-19,29,34,-39,4,43,24,-19,-92,-141,-97
-48,-19,29,34,-39,4,43,24,-19,-97,-141,-97
-48,-19,29,34,-39,4,43,24,-19,-102,-141,-97
-48,-19,29,34,-39,4,43,19,-19,-102,-146,-92
-48,-9,39,29,-43,14,43,19,-29,-102,-146,-97
-48,-9,39,29,-43,14,43,19,-29,-102,-146,-102
-53,-9,43,31,-48,17,43,19,-34,-102,-146,-107
-53,-9,43,31,-48,17,43,19,-34,-107,-146,-107
-63,-14,48,39,-56,17,53,19,-24,-107,-146,-102
-63,-19,43,41,-53,12,48,19,-24,-107,-141,-97
-58,-24,34,41,-46,4,48,19,-24,-107,-141,-97
-58,-29,29,43,-43,0,48,19,-24,-107,-141,-92
-53,-19,34,36,-43,7,53,19,-24,-97,-131,-92
-53,-19,34,36,-43,7,53,19,-24,-97,-131,-92
-53,-19,34,36,-43,7,53,19,-24,-97,-131,-97
-53,-19,34,36,-43,7,53,19,-29,-97,-131,-97
-63,-19,43,41,-53,12,53,19,-29,-102,-141,-107
-58,-19,39,39,-48,9,53,19,-24,-102,-141,-107
-58,-19,39,39,-48,9,48,19,-24,-107,-141,-107
-63,-19,43,41,-53,12,48,19,-24,-107,-141,-112
-53,-19,34,36,-43,7,48,29,-34,-97,-146,-112
-53,-19,34,36,-43,7,48,29,-34,-97,-146,-102
-53,-19,34,36,-43,7,48,29,-34,-97,-146,-102
-53,-19,34,36,-43,7,53,29,-34,-97,-146,-102
-53,-19,34,36,-43,7,53,19,-24,-92,-146,-102
-53,-19,34,36,-43,7,53,24,-24,-92,-146,-102
-53,-19,34,36,-43,7,53,24,-24,-102,-146,-107
-53,-19,34,36,-43,7,53,24,-24,-102,-146,-117
-53,-19,34,36,-43,7,53,24,-24,-102,-146,-107
-53,-19,34,36,-43,7,53,24,-24,-102,-141,-107
-53,-19,34,36,-43,7,53,24,-24,-102,-141,-107
-53,-19,34,36,-43,7,53,24,-19,-102,-141,-107
-63,-19,43,41,-53,12,63,34,-19,-102,-131,-107
-63,-24,39,43,-51,7,63,34,-19,-97,-131,-112
-63,-34,29,48,-46,-2,63,34,-19,-97,-131,-117
-63,-39,24,51,-43,-7,63,34,-19,-102,-131,-126
-63,-39,24,51,-43,-7,63,34,-9,-92,-122,-122
-63,-34,29,48,-46,-2,63,34,-4,-92,-122,-117
-63,-34,29,48,-46,-2,63,34,-4,-97,-126,-112
-63,-34,29,48,-46,-2,63,34,-4,-97,-126,-107
-63,-43,19,53,-41,-12,63,34,-4,-97,-126,-117
-63,-43,19,53,-41,-12,63,39,0,-92,-126,-107
-63,-39,24,51,-43,-7,63,39,0,-92,-126,-117
-63,-39,24,51,-43,-7,63,39,-4,-92,-126,-117
-53,-43,9,48,-31,-17,63,43,-4,-102,-126,-112
-58,-43,14,51,-36,-14,63,43,4,-102,-126,-107
-58,-43,14,51,-36,-14,63,43,4,-97,-122,-102
-58,-43,14,51,-36,-14,63,39,4,-97,-122,-97
-58,-43,14,51,-36,-14,63,48,-4,-107,-122,-102
-58,-39,19,48,-39,-9,63,48,-4,-102,-122,-102
-58,-39,19,48,-39,-9,63,48,0,-102,-122,-107
-53,-39,14,46,-34,-12,63,48,0,-102,-122,-112
-53,-39,14,46,-34,-12,63,48,9,-102,-122,-107
-53,-39,14,46,-34,-12,63,48,4,-102,-122,-102
-53,-39,14,46,-34,-12,63,48,4,-102,-117,-97
-53,-39,14,46,-34,-12,63,53,4,-102,-117,-92
-63,-43,19,53,-41,-12,63,43,14,-92,-117,-97
-63,-43,19,53,-41,-12,58,43,14,-92,-117,-97
-63,-43,19,53,-41,-12,58,43,14,-92,-117,-92
-63,-39,24,51,-43,-7,58,43,14,-92,-117,-97
-58,-29,29,43,-43,0,58,48,14,-82,-117,-87
-53,-29,24,41,-39,-2,73,58,9,-82,-117,-97
-43,-29,14,36,-29,-7,82,68,9,-73,-122,-82
-39,-19,19,29,-29,0,97,68,9,-68,-117,-58
-39,-19,19,29,-29,0,107,78,19,-58,-107,-68
-39,-19,19,29,-29,0,107,78,19,-58,-107,-78
-39,-19,19,29,-29,0,107,78,19,-58,-107,-87
-39,-19,19,29,-29,0,107,78,19,-58,-107,-97
-24,-4,19,14,-21,7,107,82,29,-39,-92,-87
-24,-4,19,14,-21,7,107,87,39,-39,-87,-82
-24,4,29,9,-26,17,117,92,48,-34,-82,-73
-24,9,34,7,-29,21,126,102,53,-29,-78,-58
-14,9,24,2,-19,17,141,117,63,-9,-73,-58
-9,14,24,-2,-17,19,146,122,68,-9,-73,-63
0,29,29,-14,-14,29,151,126,73,-4,-68,-68
4,29,24,-17,-9,26,156,136,78,0,-63,-63
0,39,39,-19,-19,39,165,131,78,-4,-63,-53
4,39,34,-21,-14,36,165,136,78,-4,-63,-43
9,34,24,-21,-7,29,151,141,78,-4,-58,-39
14,34,19,-24,-2,26,126,141,78,-4,-58,-34
24,34,9,-29,7,21,92,141,68,-14,-58,-34
34,34,0,-34,17,17,73,151,68,-9,-53,-34
43,34,-9,-39,26,12,48,161,78,0,-48,-39
48,34,-14,-41,31,9,34,161,82,4,-43,-39
39,34,-4,-36,21,14,4,161,82,4,-43,-24
39,34,-4,-36,21,14,-14,151,82,4,-43,-19
39,34,-4,-36,21,14,-34,131,82,4,-43,-19
39,34,-4,-36,21,14,-48,112,78,-4,-43,-14
19,29,9,-24,4,19,-58,87,68,-9,-43,-19
14,14,0,-14,7,7,-68,58,48,-24,-53,-34
14,4,-9,-9,12,-2,-73,39,39,-34,-58,-43
14,0,-14,-7,14,-7,-73,34,29,-39,-63,-53
19,4,-14,-12,17,-4,-68,29,24,-53,-63,-43
19,4,-14,-12,17,-4,-58,29,24,-53,-63,-43
24,9,-14,-17,19,-2,-53,39,29,-48,-68,-43
24,9,-14,-17,19,-2,-48,39,29,-48,-68,-43
34,19,-14,-26,24,2,-43,43,24,-48,-68,-53
34,19,-14,-26,24,2,-34,43,24,-53,-68,-53
39,14,-24,-26,31,-4,-34,39,19,-58,-78,-58
39,9,-29,-24,34,-9,-29,39,14,-63,-82,-73
39,-4,-43,-17,41,-24,-24,29,4,-58,-92,-73
34,-9,-43,-12,39,-26,-19,29,4,-58,-97,-68
29,-14,-43,-7,36,-29,-19,24,0,-63,-102,-68
29,-14,-43,-7,36,-29,-19,24,0,-63,-107,-68
19,-24,-43,2,31,-34,-9,29,0,-53,-107,-73
19,-24,-43,2,31,-34,-4,29,-4,-53,-107,-68
19,-24,-43,2,31,-34,-4,24,-4,-63,-107,-73
19,-29,-48,4,34,-39,-4,24,-4,-63,-112,-92
29,-19,-48,-4,39,-34,-9,24,-14,-63,-112,-87
24,-19,-43,-2,34,-31,-9,19,-14,-63,-117,-87
14,-24,-39,4,26,-31,0,19,-14,-63,-117,-92
-4,-24,-19,14,7,-21,4,24,-14,-63,-117,-92
-19,-34,-14,26,-2,-24,24,29,0,-58,-107,-87
-34,-43,-9,39,-12,-26,39,34,0,-58,-107,-87
-48,-48,0,48,-24,-24,53,34,-4,-63,-117,-92
-53,-53,0,53,-26,-26,58,34,-4,-63,-117,-92
-73,-58,14,65,-43,-21,58,34,-4,-78,-117,-92
-82,-58,24,70,-53,-17,58,29,-4,-82,-117,-92
-82,-63,19,73,-51,-21,58,29,-4,-82,-126,-92
-82,-68,14,75,-48,-26,63,29,-9,-87,-126,-102
-82,-73,9,78,-46,-31,53,29,-14,-92,-131,-112
-82,-78,4,80,-43,-36,53,29,-14,-97,-136,-112
-82,-78,4,80,-43,-36,58,29,-14,-102,-136,-107
-82,-78,4,80,-43,-36,58,29,-14,-107,-136,-107
-87,-78,9,82,-48,-34,68,29,-14,-107,-136,-112
-87,-78,9,82,-48,-34,68,29,-14,-107,-136,-112
-87,-78,9,82,-48,-34,68,24,-14,-107,-136,-112
-87,-82,4,85,-46,-39,68,24,-14,-107,-136,-117
-87,-73,14,80,-51,-29,58,24,-14,-107,-146,-117
-87,-68,19,78,-53,-24,58,24,-14,-102,-146,-112
-87,-68,19,78,-53,-24,58,24,-14,-97,-146,-112
-82,-68,14,75,-48,-26,58,29,-14,-92,-146,-112
-92,-78,14,85,-53,-31,58,29,-14,-102,-136,-122
-92,-78,14,85,-53,-31,58,29,-14,-102,-136,-122
-92,-78,14,85,-53,-31,58,29,-14,-102,-136,-122
-92,-82,9,87,-51,-36,58,29,-14,-102,-136,-126
-82,-73,9,78,-46,-31,58,29,-14,-102,-136,-122
-82,-73,9,78,-46,-31,58,24,-14,-102,-136,-117
-82,-73,9,78,-46,-31,58,24,-14,-102,-136,-107
-87,-73,14,80,-51,-29,58,24,-14,-102,-136,-102
-87,-73,14,80,-51,-29,68,24,-14,-112,-136,-112
-87,-78,9,82,-48,-34,68,24,-14,-112,-136,-117
-87,-78,9,82,-48,-34,73,29,-14,-117,-136,-117
-87,-78,9,82,-48,-34,73,29,-14,-117,-136,-112
-87,-78,9,82,-48,-34,82,39,-14,-112,-136,-92
-87,-78,9,82,-48,-34,82,48,9,-102,-131,-92
-87,-73,14,80,-51,-29,82,68,14,-87,-136,-102
-87,-63,24,75,-56,-19,97,78,19,-97,-161,-151
-102,-68,34,85,-68,-17,117,107,39,-97,-165,-190
-136,-63,73,100,-104,4,151,156,78,-73,-156,-175
-136,-43,92,90,-114,24,180,214,126,-43,-146,-156
-131,-24,107,78,-119,41,190,278,200,-9,-131,-156
-122,-14,107,68,-114,46,209,385,292,39,-92,-136
-82,-4,78,43,-80,36,209,512,409,136,-9,-87
-24,-4,19,14,-21,7,204,605,517,253,92,-4
19,-24,-43,2,31,-34,190,605,556,326,151,43
73,-58,-131,-7,102,-95,170,551,502,312,165,39
151,-73,-224,-39,187,-148,146,468,380,278,195,82
234,-63,-297,-85,265,-180,82,317,234,244,239,209
307,-29,-336,-139,322,-183,-4,53,43,200,322,370
346,4,-341,-175,344,-168,-102,-258,-200,112,390,522
414,39,-375,-226,395,-168,-219,-580,-536,-63,400,629
507,102,-405,-305,456,-151,-336,-897,-888,-268,370,751
580,185,-395,-383,488,-104,-453,-1200,-1137,-390,419,936
678,302,-375,-490,527,-36,-595,-1493,-1322,-439,517,1107
785,448,-336,-617,561,56,-736,-1786,-1517,-522,585,1268
878,546,-331,-712,605,107,-868,-2039,-1756,-649,614,1483
971,580,-390,-775,680,95,-995,-2215,-1971,-746,688,1698
1049,551,-497,-800,773,26,-1078,-2308,-2074,-766,800,1864
1107,453,-653,-780,880,-100,-1137,-2298,-2093,-785,868,1893
1132,331,-800,-732,966,-234,-1161,-2220,-2074,-810,868,1800
1093,190,-902,-641,997,-356,-1166,-2074,-1976,-795,868,1683
976,43,-932,-509,954,-444,-1093,-1883,-1805,-746,873,1503
746,-92,-839,-326,793,-466,-966,-1664,-1610,-732,795,1273
512,-175,-688,-168,600,-431,-849,-1464,-1390,-673,775,1161
341,-195,-536,-73,439,-366,-746,-1268,-1112,-536,824,1161
219,-165,-385,-26,302,-275,-619,-1024,-834,-380,829,1078
87,-141,-229,26,158,-185,-439,-746,-570,-244,727,888
-9,-146,-136,78,63,-141,-263,-507,-370,-175,527,619
-43,-156,-112,100,34,-134,-126,-331,-263,-146,312,375
-34,-122,-87,78,26,-104,-58,-209,-195,-112,175,229
-14,-92,-78,53,31,-85,-19,-112,-122,-63,112,122
-14,-73,-58,43,21,-65,4,-39,-73,-39,58,63
-19,-68,-48,43,14,-58,29,0,-34,-39,4,48
-24,-78,-53,51,14,-65,29,19,0,-39,-14,39
-43,-78,-34,61,-4,-56,39,29,24,-39,-9,14
-63,-68,-4,65,-29,-36,53,43,43,-34,-19,4
-63,-58,4,61,-34,-26,68,48,53,-19,0,24
-68,-48,19,58,-43,-14,73,39,48,-4,14,34
-68,-48,19,58,-43,-14,78,48,43,0,14,-9
-68,-48,19,58,-43,-14,82,63,53,4,14,-39
-68,-48,19,58,-43,-14,92,82,68,14,-4,-19
-58,-48,9,53,-34,-19,87,102,78,14,-24,-14
-68,-48,19,58,-43,-14,97,102,87,14,-43,-39
-78,-58,19,68,-48,-19,97,102,97,24,-43,-39
-78,-58,19,68,-48,-19,102,97,97,24,-43,-39
-78,-58,19,68,-48,-19,102,97,97,29,-39,-39
-78,-53,24,65,-51,-14,107,97,97,29,-39,-39
-73,-53,19,63,-46,-17,97,102,87,19,-43,-48
-73,-53,19,63,-46,-17,97,107,97,19,-43,-53
-73,-53,19,63,-46,-17,97,112,102,19,-53,-68
-73,-53,19,63,-46,-17,102,117,102,24,-53,-78
-73,-58,14,65,-43,-21,112,117,102,24,-58,-87
-73,-58,14,65,-43,-21,112,122,107,24,-58,-82
-73,-53,19,63,-46,-17,112,122,107,24,-58,-68
-73,-53,19,63,-46,-17,117,122,107,24,-58,-58
-73,-53,19,63,-46,-17,107,122,117,29,-43,-58
-73,-53,19,63,-46,-17,107,122,122,29,-43,-63
-73,-48,24,61,-48,-12,107,126,122,29,-43,-73
-68,-48,19,58,-43,-14,107,126,122,34,-43,-78
-68,-39,29,53,-48,-4,107,126,126,34,-53,-78
-68,-43,24,56,-46,-9,107,126,126,39,-53,-82
-68,-43,24,56,-46,-9,112,126,126,39,-53,-68
-68,-43,24,56,-46,-9,112,126,131,43,-53,-58
-78,-53,24,65,-51,-14,112,131,131,53,-48,-63
-78,-53,24,65,-51,-14,112,131,131,53,-43,-68
-78,-53,24,65,-51,-14,112,131,131,53,-43,-73
-78,-53,24,65,-51,-14,112,131,131,53,-48,-82
-78,-58,19,68,-48,-19,112,141,136,63,-39,-68
-78,-58,19,68,-48,-19,112,141,136,68,-39,-63
-78,-53,24,65,-51,-14,112,141,136,73,-39,-58
-78,-53,24,65,-51,-14,112,146,136,78,-34,-48
-78,-53,24,65,-51,-14,112,136,141,78,-34,-53
-78,-53,24,65,-51,-14,112,136,146,73,-34,-53
-78,-53,24,65,-51,-14,112,141,146,73,-29,-58
-78,-53,24,65,-51,-14,112,141,146,78,-29,-63
-78,-48,29,63,-53,-9,112,141,151,87,-29,-58
-73,-48,24,61,-48,-12,112,146,151,87,-29,-58
-73,-43,29,58,-51,-7,112,146,151,87,-24,-63
-73,-43,29,58,-51,-7,112,146,156,102,-24,-43
-73,-43,29,58,-51,-7,112,146,156,97,-24,-53
-73,-39,34,56,-53,-2,112,146,156,92,-19,-58
-73,-39,34,56,-53,-2,112,151,161,92,-14,-63
-73,-39,34,56,-53,-2,112,156,161,92,-14,-68
-63,-39,24,51,-43,-7,112,156,170,107,-14,-63
-63,-39,24,51,-43,-7,112,156,175,107,-14,-58
-63,-39,24,51,-43,-7,112,161,175,112,-9,-48
-63,-39,24,51,-43,-7,112,165,180,117,-4,-43
-73,-48,24,61,-48,-12,122,165,185,131,4,-43
-73,-48,24,61,-48,-12,122,165,185,131,9,-43
-73,-48,24,61,-48,-12,122,165,195,136,14,-39
-73,-48,24,61,-48,-12,126,170,195,141,19,-39
-73,-48,24,61,-48,-12,117,180,200,146,14,-29
-73,-48,24,61,-48,-12,117,180,204,156,19,-24
-73,-48,24,61,-48,-12,117,180,209,161,19,-24
-68,-43,24,56,-46,-9,117,180,214,165,24,-19
-58,-43,14,51,-36,-14,117,190,219,190,39,-24
-58,-43,14,51,-36,-14,117,195,224,195,43,-14
-53,-43,9,48,-31,-17,117,200,234,200,48,-14
-53,-39,14,46,-34,-12,117,204,239,204,58,-14
-53,-39,14,46,-34,-12,117,214,244,229,63,0
-53,-39,14,46,-34,-12,117,219,258,239,68,4
-53,-39,14,46,-34,-12,117,219,263,248,78,9
-48,-34,14,41,-31,-9,117,224,268,258,82,9
-58,-34,24,46,-41,-4,117,229,278,263,87,14
-58,-29,29,43,-43,0,117,239,287,273,102,19
-53,-29,24,41,-39,-2,117,244,297,283,102,24
-53,-29,24,41,-39,-2,117,253,307,292,117,24
-48,-29,19,39,-34,-4,117,258,312,312,126,34
-48,-24,24,36,-36,0,122,268,326,326,136,43
-48,-24,24,36,-36,0,122,273,331,336,146,43
-43,-24,19,34,-31,-2,122,278,341,351,161,43
-34,-19,14,26,-24,-2,112,283,356,375,170,48
-34,-14,19,24,-26,2,112,297,366,390,180,63
-29,-14,14,21,-21,0,112,307,380,405,190,68
-29,-9,19,19,-24,4,112,317,390,409,204,73
-24,-9,14,17,-19,2,112,322,390,419,204,73
-19,-4,14,12,-17,4,112,326,400,434,214,78
-14,-4,9,9,-12,2,112,331,414,453,229,92
-14,-4,9,9,-12,2,112,331,424,468,244,92
-24,0,24,12,-24,12,112,351,444,478,263,97
-14,4,19,4,-17,12,112,361,453,502,278,112
-14,4,19,4,-17,12,112,366,463,522,287,122
-9,4,14,2,-12,9,112,375,473,536,297,122
-4,0,4,2,-4,2,102,375,468,536,312,146
0,9,9,-4,-4,9,97,385,473,546,322,146
4,9,4,-7,0,7,97,395,478,561,331,161
4,9,4,-7,0,7,97,400,483,566,341,161
9,9,0,-9,4,4,107,395,483,575,346,151
14,14,0,-14,7,7,102,395,492,585,361,165
14,14,0,-14,7,7,102,400,492,585,366,175
19,14,-4,-17,12,4,102,400,492,595,370,175
29,24,-4,-26,17,9,92,409,492,595,370,180
34,29,-4,-31,19,12,92,409,492,600,375,180
34,29,-4,-31,19,12,87,409,492,600,380,185
39,34,-4,-36,21,14,82,409,483,600,380,190
39,43,4,-41,17,24,73,414,483,605,380,190
39,48,9,-43,14,29,73,414,478,600,380,195
43,48,4,-46,19,26,73,409,473,595,380,214
43,48,4,-46,19,26,73,409,458,580,375,204
43,48,4,-46,19,26,78,409,458,561,375,190
43,43,0,-43,21,21,78,395,444,541,361,185
43,39,-4,-41,24,17,82,380,429,522,346,180
39,34,-4,-36,21,14,82,370,405,492,326,170
