I,II,III,aVR,aVL,aVF,V1,V2,V3,V4,V5,V6
29,19,-9,-24,19,4,224,29,-224,-97,-165,390
29,19,-9,-24,19,4,224,29,-224,-97,-165,390
29,19,-9,-24,19,4,224,29,-224,-97,-165,390
29,19,-9,-24,19,4,224,29,-224,-97,-165,390
39,29,-9,-34,24,9,229,29,-214,-87,-161,390
39,29,-9,-34,24,9,234,29,-204,-87,-156,390
39,29,-9,-34,24,9,239,29,-195,-87,-151,390
39,29,-9,-34,24,9,244,29,-185,-87,-146,390
29,19,-9,-24,19,4,239,29,-190,-87,-146,390
29,19,-9,-24,19,4,234,29,-195,-87,-146,390
29,19,-9,-24,19,4,229,29,-200,-87,-146,390
29,19,-9,-24,19,4,224,29,-204,-87,-146,390
39,24,-14,-31,26,4,234,19,-204,-87,-136,390
48,29,-19,-39,34,4,234,19,-204,-87,-136,390
58,34,-24,-46,41,4,234,19,-204,-87,-136,390
68,39,-29,-53,48,4,234,19,-204,-87,-136,390
63,29,-34,-46,48,-2,224,19,-214,-97,-146,400
58,29,-29,-43,43,0,224,19,-214,-97,-146,400
53,29,-24,-41,39,2,224,19,-214,-97,-146,400
48,29,-19,-39,34,4,224,19,-214,-97,-146,400
34,24,-9,-29,21,7,234,19,-224,-97,-136,400
29,19,-9,-24,19,4,234,19,-224,-97,-136,400
24,14,-9,-19,17,2,234,19,-224,-97,-136,400
19,9,-9,-14,14,0,234,19,-224,-97,-136,400
19,9,-9,-14,14,0,239,9,-234,-87,-126,400
19,9,-9,-14,14,0,244,9,-234,-87,-126,400
19,9,-9,-14,14,0,248,9,-234,-87,-126,400
19,9,-9,-14,14,0,253,9,-234,-87,-126,400
24,0,-24,-12,24,-12,253,9,-239,-92,-136,409
29,0,-29,-14,29,-14,253,9,-244,-97,-136,409
34,0,-34,-17,34,-17,253,9,-248,-102,-136,409
39,0,-39,-19,39,-19,253,9,-253,-107,-136,409
39,14,-24,-26,31,-4,253,19,-239,-102,-126,409
39,19,-19,-29,29,0,253,19,-234,-97,-126,409
39,24,-14,-31,26,4,253,19,-229,-92,-126,409
39,29,-9,-34,24,9,253,19,-224,-87,-126,409
43,19,-24,-31,34,-2,244,19,-234,-92,-126,409
48,19,-29,-34,39,-4,244,19,-234,-97,-126,409
53,19,-34,-36,43,-7,244,19,-234,-102,-126,409
58,19,-39,-39,48,-9,244,19,-234,-107,-126,409
48,14,-34,-31,41,-9,229,14,-239,-117,-136,419
48,9,-39,-29,43,-14,224,9,-244,-117,-136,419
48,4,-43,-26,46,-19,219,4,-248,-117,-136,419
48,0,-48,-24,48,-24,214,0,-253,-117,-136,419
39,4,-34,-21,36,-14,234,4,-248,-112,-122,419
39,9,-29,-24,34,-9,244,9,-244,-107,-117,419
39,14,-24,-26,31,-4,253,14,-239,-102,-112,419
39,19,-19,-29,29,0,263,19,-234,-97,-107,419
24,19,-4,-21,14,7,263,19,-224,-87,-97,419
19,19,0,-19,9,9,263,19,-224,-87,-97,419
14,19,4,-17,4,12,263,19,-224,-87,-97,419
9,19,9,-14,0,14,263,19,-224,-87,-97,419
14,9,-4,-12,9,2,263,9,-224,-92,-97,429
19,9,-9,-14,14,0,263,9,-224,-97,-97,429
24,9,-14,-17,19,-2,263,9,-224,-102,-97,429
29,9,-19,-19,24,-4,263,9,-224,-107,-97,429
39,9,-29,-24,34,-9,263,19,-224,-102,-97,429
39,9,-29,-24,34,-9,263,19,-224,-97,-97,429
39,9,-29,-24,34,-9,263,19,-224,-92,-97,429
39,9,-29,-24,34,-9,263,19,-224,-87,-97,429
34,0,-34,-17,34,-17,253,9,-214,-92,-97,429
29,0,-29,-14,29,-14,253,9,-214,-97,-97,429
24,0,-24,-12,24,-12,253,9,-214,-102,-97,429
19,0,-19,-9,19,-9,253,9,-214,-107,-97,429
0,9,9,-4,-4,9,258,14,-214,-97,-92,439
-9,9,19,0,-14,14,263,19,-214,-97,-87,439
-19,9,29,4,-24,19,268,24,-214,-97,-82,439
-29,9,39,9,-34,24,273,29,-214,-97,-78,439
-9,14,24,-2,-17,19,273,29,-214,-92,-73,439
0,19,19,-9,-9,19,273,29,-214,-87,-68,439
9,24,14,-17,-2,19,273,29,-214,-82,-63,439
19,29,9,-24,4,19,273,29,-214,-78,-58,439
29,19,-9,-24,19,4,273,24,-224,-92,-63,448
29,19,-9,-24,19,4,273,19,-224,-97,-68,448
29,19,-9,-24,19,4,273,14,-224,-102,-73,448
29,19,-9,-24,19,4,273,9,-224,-107,-78,448
19,29,9,-24,4,19,273,19,-209,-87,-63,448
19,29,9,-24,4,19,273,19,-204,-78,-58,448
19,29,9,-24,4,19,273,19,-200,-68,-53,448
19,29,9,-24,4,19,273,19,-195,-58,-48,448
39,24,-14,-31,26,4,273,14,-204,-68,-53,448
48,19,-29,-34,39,-4,273,9,-214,-78,-58,448
58,14,-43,-36,51,-14,273,4,-224,-87,-63,448
68,9,-58,-39,63,-24,273,0,-234,-97,-68,448
48,4,-43,-26,46,-19,273,-9,-234,-97,-68,458
39,0,-39,-19,39,-19,273,-9,-234,-97,-68,458
29,-4,-34,-12,31,-19,273,-9,-234,-97,-68,458
19,-9,-29,-4,24,-19,273,-9,-234,-97,-68,458
19,4,-14,-12,17,-4,273,0,-229,-92,-63,458
19,9,-9,-14,14,0,273,0,-224,-87,-58,458
19,14,-4,-17,12,4,273,0,-219,-82,-53,458
19,19,0,-19,9,9,273,0,-214,-78,-48,458
34,29,-4,-31,19,12,287,0,-214,-87,-48,458
39,29,-9,-34,24,9,292,0,-214,-87,-48,458
43,29,-14,-36,29,7,297,0,-214,-87,-48,458
48,29,-19,-39,34,4,302,0,-214,-87,-48,458
58,29,-29,-43,43,0,297,-9,-214,-92,-58,468
68,29,-39,-48,53,-4,292,-9,-214,-97,-58,468
78,29,-48,-53,63,-9,287,-9,-214,-102,-58,468
87,29,-58,-58,73,-14,283,-9,-214,-107,-58,468
107,24,-82,-65,95,-29,268,-19,-229,-112,-68,468
117,19,-97,-68,107,-39,263,-29,-234,-117,-68,468
126,14,-112,-70,119,-48,258,-39,-239,-122,-68,468
136,9,-126,-73,131,-58,253,-48,-244,-126,-68,468
126,9,-117,-68,122,-53,253,-39,-253,-117,-68,468
117,9,-107,-63,112,-48,253,-39,-253,-117,-68,468
107,9,-97,-58,102,-43,253,-39,-253,-117,-68,468
97,9,-87,-53,92,-39,253,-39,-253,-117,-68,468
107,24,-82,-65,95,-29,263,-29,-253,-107,-63,478
107,29,-78,-68,92,-24,263,-29,-253,-107,-58,478
107,34,-73,-70,90,-19,263,-29,-253,-107,-53,478
102,34,-68,-68,85,-17,258,-34,-258,-112,-53,468
117,29,-87,-73,102,-29,258,-43,-268,-122,-53,478
122,29,-92,-75,107,-31,248,-48,-268,-122,-53,478
131,24,-107,-78,119,-41,248,-48,-268,-126,-53,483
151,34,-117,-92,134,-41,258,-43,-253,-126,-48,483
151,39,-112,-95,131,-36,258,-43,-258,-126,-48,483
151,34,-117,-92,134,-41,258,-43,-263,-126,-58,483
156,39,-117,-97,136,-39,258,-43,-268,-126,-58,488
161,48,-112,-104,136,-31,263,-43,-268,-117,-53,492
170,58,-112,-114,141,-26,263,-43,-263,-112,-43,483
175,63,-112,-119,143,-24,278,-43,-258,-112,-34,483
180,82,-97,-131,139,-7,287,-39,-253,-107,-29,483
185,87,-97,-136,141,-4,297,-34,-244,-97,-24,488
165,82,-82,-124,124,0,302,-39,-239,-87,-14,488
161,82,-78,-122,119,2,297,-43,-234,-82,-14,488
151,82,-68,-117,109,7,297,-43,-229,-82,-14,488
141,82,-58,-112,100,12,297,-43,-224,-73,0,492
141,97,-43,-119,92,26,322,-43,-214,-82,0,497
146,107,-39,-126,92,34,322,-39,-209,-78,0,497
146,126,-19,-136,82,53,322,-43,-209,-78,9,497
165,126,-39,-146,102,43,317,-39,-204,-68,9,497
180,107,-73,-143,126,17,326,-53,-219,-73,0,497
175,107,-68,-141,122,19,317,-63,-224,-78,4,502
161,97,-63,-129,112,17,312,-68,-229,-82,4,502
165,122,-43,-143,104,39,312,-73,-239,-87,4,502
185,131,-53,-158,119,39,297,-68,-229,-92,14,507
209,126,-82,-168,146,21,278,-78,-224,-92,14,507
229,146,-82,-187,156,31,273,-97,-224,-92,14,507
248,156,-92,-202,170,31,273,-117,-229,-97,19,507
224,156,-68,-190,146,43,268,-107,-234,-87,19,507
219,156,-63,-187,141,46,253,-122,-239,-92,14,502
209,156,-53,-183,131,51,253,-126,-244,-97,14,502
204,156,-48,-180,126,53,253,-131,-244,-97,14,502
209,156,-53,-183,131,51,219,-146,-244,-102,4,512
209,151,-58,-180,134,46,200,-151,-253,-107,4,512
209,146,-63,-178,136,41,185,-151,-263,-112,4,512
209,151,-58,-180,134,46,165,-151,-273,-117,9,517
214,170,-43,-192,129,63,161,-146,-268,-102,24,507
219,175,-43,-197,131,65,161,-136,-263,-92,34,507
224,180,-43,-202,134,68,170,-131,-253,-87,43,512
234,185,-48,-209,141,68,170,-122,-239,-78,53,517
248,200,-48,-224,148,75,156,-126,-253,-78,43,522
244,180,-63,-212,153,58,151,-131,-258,-92,43,522
248,175,-73,-212,161,51,146,-131,-263,-92,48,522
253,170,-82,-212,168,43,141,-136,-268,-87,48,522
239,136,-102,-187,170,17,151,-141,-283,-102,39,517
224,122,-102,-173,163,9,170,-146,-302,-107,24,517
204,112,-92,-158,148,9,190,-141,-302,-112,19,522
185,97,-87,-141,136,4,200,-141,-302,-117,14,527
190,87,-102,-139,146,-7,200,-151,-322,-126,-4,531
185,73,-112,-129,148,-19,209,-165,-326,-131,-19,531
185,63,-122,-124,153,-29,209,-185,-336,-141,-24,522
190,53,-136,-122,163,-41,200,-200,-336,-146,-34,517
185,39,-146,-112,165,-53,200,-209,-346,-136,-24,512
185,39,-146,-112,165,-53,204,-209,-346,-136,-29,517
175,34,-141,-104,158,-53,204,-209,-346,-136,-29,527
175,24,-151,-100,163,-63,195,-219,-356,-136,-29,531
170,9,-161,-90,165,-75,200,-229,-356,-136,-24,531
161,9,-151,-85,156,-70,209,-234,-356,-136,-24,531
156,19,-136,-87,146,-58,219,-239,-356,-141,-24,531
156,19,-136,-87,146,-58,224,-248,-361,-141,-24,531
156,4,-151,-80,153,-73,224,-258,-370,-151,-24,531
151,0,-151,-75,151,-75,224,-268,-375,-151,-24,536
151,0,-151,-75,151,-75,224,-278,-375,-151,-24,541
156,0,-156,-78,156,-78,219,-287,-366,-151,-29,541
156,-4,-161,-75,158,-82,219,-297,-366,-151,-24,541
165,-4,-170,-80,168,-87,224,-307,-370,-151,-19,541
165,-4,-170,-80,168,-87,224,-312,-370,-151,-19,541
156,-9,-165,-73,161,-87,219,-317,-370,-151,-14,541
161,-4,-165,-78,163,-85,229,-322,-370,-161,-4,551
161,0,-161,-80,161,-80,229,-322,-375,-161,-4,551
161,-4,-165,-78,163,-85,229,-331,-375,-161,-4,551
161,0,-161,-80,161,-80,229,-331,-370,-161,-4,541
141,4,-136,-73,139,-65,234,-322,-361,-151,9,551
180,14,-165,-97,173,-75,229,-322,-351,-161,0,551
180,9,-170,-95,175,-80,229,-331,-366,-161,-9,556
165,9,-156,-87,161,-73,248,-331,-366,-156,0,561
141,4,-136,-73,139,-65,253,-322,-366,-165,-14,561
122,-19,-141,-51,131,-80,244,-322,-366,-180,-43,561
126,-39,-165,-43,146,-102,258,-307,-361,-180,-58,556
102,-53,-156,-24,129,-104,297,-273,-326,-161,-34,566
68,-73,-141,2,104,-107,302,-273,-307,-141,-14,566
78,-39,-117,-19,97,-78,292,-287,-278,-107,9,566
102,-4,-107,-48,104,-56,292,-292,-253,-73,63,561
131,-14,-146,-58,139,-80,258,-312,-239,-19,131,566
200,4,-195,-102,197,-95,219,-312,-224,39,214,570
297,48,-248,-173,273,-100,195,-258,-156,136,341,566
390,73,-317,-231,353,-122,180,-175,-82,234,473,566
507,82,-424,-295,466,-170,131,-107,-39,297,570,566
639,122,-517,-380,578,-197,73,-48,-9,346,653,575
751,180,-570,-466,661,-195,19,-14,24,385,727,570
795,253,-541,-524,668,-143,-34,-9,87,434,771,570
814,380,-434,-597,624,-26,-97,-53,146,463,780,570
819,517,-302,-668,561,107,-151,-248,87,385,697,575
722,624,-97,-673,409,263,-165,-585,-112,175,492,580
527,673,146,-600,190,409,-165,-995,-356,-92,234,575
351,678,326,-514,12,502,-175,-1385,-580,-317,14,575
209,614,405,-412,-97,509,-209,-1727,-790,-492,-122,575
68,570,502,-319,-217,536,-209,-1932,-932,-590,-200,585
-78,590,668,-256,-373,629,-122,-1937,-941,-580,-190,580
-151,580,732,-214,-441,656,-63,-1844,-897,-536,-170,580
-122,507,629,-192,-375,568,-68,-1771,-932,-556,-214,585
-68,424,492,-178,-280,458,-117,-1698,-971,-585,-234,590
-53,361,414,-153,-234,387,-117,-1556,-941,-566,-219,585
9,346,336,-178,-163,341,-53,-1337,-858,-512,-180,585
87,322,234,-204,-73,278,58,-1107,-771,-468,-161,590
73,234,161,-153,-43,197,122,-922,-692,-434,-146,590
58,122,63,-90,-2,92,146,-785,-649,-409,-136,595
73,68,-4,-70,39,31,165,-653,-605,-380,-112,595
73,39,-34,-56,53,2,200,-551,-531,-336,-68,590
73,29,-43,-51,58,-7,195,-488,-488,-292,-48,600
126,48,-78,-87,102,-14,195,-439,-458,-258,-19,595
165,78,-87,-122,126,-4,224,-380,-414,-219,4,595
131,48,-82,-90,107,-17,234,-356,-405,-204,4,595
141,34,-107,-87,124,-36,229,-336,-409,-219,-9,590
146,29,-117,-87,131,-43,229,-322,-400,-224,-14,595
161,19,-141,-90,151,-61,229,-317,-395,-229,-14,600
165,4,-161,-85,163,-78,239,-317,-400,-229,-14,595
156,-4,-161,-75,158,-82,253,-302,-400,-219,-14,605
156,-4,-161,-75,158,-82,253,-292,-395,-209,-9,600
156,0,-156,-78,156,-78,253,-278,-385,-204,-4,600
146,4,-141,-75,143,-68,248,-258,-380,-200,-4,605
156,0,-156,-78,156,-78,239,-253,-380,-200,-4,614
161,-9,-170,-75,165,-90,234,-253,-385,-204,-4,605
161,-14,-175,-73,168,-95,234,-253,-385,-204,-4,600
161,-19,-180,-70,170,-100,244,-244,-385,-200,-4,600
156,-19,-175,-68,165,-97,253,-239,-385,-195,-4,600
156,-29,-185,-63,170,-107,258,-244,-385,-200,-4,605
156,-29,-185,-63,170,-107,263,-248,-385,-204,-4,610
165,-24,-190,-70,178,-107,263,-244,-385,-204,-4,610
161,-34,-195,-63,178,-114,263,-224,-361,-195,0,610
156,-34,-190,-61,173,-112,268,-214,-356,-195,0,614
151,-34,-185,-58,168,-109,273,-200,-356,-195,0,619
151,-34,-185,-58,168,-109,278,-195,-351,-200,0,619
141,-24,-165,-58,153,-95,283,-180,-346,-200,0,614
141,-24,-165,-58,153,-95,283,-165,-336,-190,0,629
141,-24,-165,-58,153,-95,278,-156,-336,-190,4,629
141,-24,-165,-58,153,-95,273,-151,-326,-195,4,629
141,-29,-170,-56,156,-100,273,-161,-322,-190,4,629
136,-29,-165,-53,151,-97,283,-156,-312,-185,9,629
136,-29,-165,-53,151,-97,292,-156,-307,-185,14,629
136,-34,-170,-51,153,-102,302,-165,-307,-180,19,629
126,-43,-170,-41,148,-107,297,-180,-312,-185,14,634
126,-48,-175,-39,151,-112,292,-185,-312,-185,14,639
126,-58,-185,-34,156,-122,287,-190,-307,-190,14,644
136,-63,-200,-36,168,-131,283,-195,-312,-195,14,639
151,-48,-200,-51,175,-124,292,-195,-287,-185,24,639
165,-34,-200,-65,183,-117,292,-195,-297,-185,24,639
185,-29,-214,-78,200,-122,287,-190,-302,-185,24,634
180,-24,-204,-78,192,-114,287,-185,-307,-185,29,634
156,-48,-204,-53,180,-126,292,-175,-317,-190,19,624
151,-48,-200,-51,175,-124,287,-175,-322,-195,19,639
146,-39,-185,-53,165,-112,307,-180,-322,-200,29,649
151,-39,-190,-56,170,-114,312,-180,-326,-200,29,653
151,-29,-180,-61,165,-104,317,-185,-331,-200,39,644
151,-29,-180,-61,165,-104,312,-190,-341,-200,39,649
151,-29,-180,-61,165,-104,307,-190,-341,-200,39,649
131,-39,-170,-46,151,-104,307,-195,-341,-200,39,649
126,-34,-161,-46,143,-97,297,-204,-351,-200,53,649
131,-39,-170,-46,151,-104,302,-209,-361,-200,53,653
131,-48,-180,-41,156,-114,307,-214,-366,-195,53,658
126,-53,-180,-36,153,-117,312,-219,-370,-185,58,663
136,-43,-180,-46,158,-112,312,-224,-361,-175,68,663
131,-43,-175,-43,153,-109,312,-229,-366,-180,68,658
131,-34,-165,-48,148,-100,312,-229,-366,-180,73,658
136,-34,-170,-51,153,-102,317,-234,-366,-170,78,663
126,-34,-161,-46,143,-97,307,-244,-356,-170,87,663
126,-43,-170,-41,148,-107,307,-239,-356,-175,87,663
126,-34,-161,-46,143,-97,307,-239,-356,-175,87,663
131,-34,-165,-48,148,-100,307,-239,-356,-175,102,668
136,-34,-170,-51,153,-102,312,-248,-346,-161,107,668
141,-29,-170,-56,156,-100,317,-239,-336,-151,112,673
146,-14,-161,-65,153,-87,322,-229,-336,-151,122,673
146,-9,-156,-68,151,-82,326,-229,-336,-161,126,673
151,-9,-161,-70,156,-85,322,-244,-336,-161,117,673
151,-9,-161,-70,156,-85,317,-239,-326,-156,122,673
161,-9,-170,-75,165,-90,307,-239,-326,-151,126,673
161,-9,-170,-75,165,-90,302,-244,-307,-151,126,673
141,-19,-161,-61,151,-90,317,-248,-312,-141,117,678
141,-9,-151,-65,146,-80,317,-244,-307,-136,126,683
141,-9,-151,-65,146,-80,317,-234,-302,-141,131,688
146,-14,-161,-65,153,-87,312,-234,-307,-146,131,688
165,-4,-170,-80,168,-87,307,-248,-302,-146,131,688
170,-9,-180,-80,175,-95,307,-253,-302,-151,136,688
170,-14,-185,-78,178,-100,312,-248,-297,-156,136,688
170,-19,-190,-75,180,-104,312,-248,-297,-151,136,688
151,-29,-180,-61,165,-104,307,-258,-297,-141,146,697
151,-19,-170,-65,161,-95,307,-253,-292,-146,151,692
151,0,-151,-75,151,-75,307,-253,-292,-146,151,692
141,0,-141,-70,141,-70,297,-253,-292,-141,151,692
151,-4,-156,-73,153,-80,287,-253,-302,-141,151,683
151,-14,-165,-68,158,-90,287,-244,-302,-146,156,692
141,-19,-161,-61,151,-90,287,-239,-297,-146,156,692
141,-24,-165,-58,153,-95,292,-239,-297,-146,156,702
146,-24,-170,-61,158,-97,307,-239,-287,-146,161,702
141,-24,-165,-58,153,-95,312,-234,-283,-141,170,702
136,-19,-156,-58,146,-87,317,-224,-283,-141,175,702
131,-9,-141,-61,136,-75,322,-219,-278,-141,185,702
141,-4,-146,-68,143,-75,312,-219,-287,-141,190,712
156,0,-156,-78,156,-78,302,-224,-287,-136,190,707
161,0,-161,-80,161,-80,292,-234,-287,-136,185,707
165,0,-165,-82,165,-82,283,-239,-292,-136,185,712
146,-14,-161,-65,153,-87,278,-244,-302,-146,195,707
146,-14,-161,-65,153,-87,278,-239,-292,-141,200,707
141,-19,-161,-61,151,-90,278,-239,-287,-141,200,717
131,-14,-146,-58,139,-80,278,-244,-287,-136,204,722
151,9,-141,-80,146,-65,268,-248,-297,-146,204,712
161,9,-151,-85,156,-70,263,-253,-297,-146,200,712
165,9,-156,-87,161,-73,258,-253,-302,-151,195,717
165,9,-156,-87,161,-73,258,-253,-302,-156,195,722
165,9,-156,-87,161,-73,268,-273,-312,-151,209,727
170,9,-161,-90,165,-75,253,-278,-312,-151,209,727
170,9,-161,-90,165,-75,248,-283,-317,-161,204,727
170,9,-161,-90,165,-75,248,-283,-317,-161,204,727
170,9,-161,-90,165,-75,248,-292,-326,-165,195,717
170,9,-161,-90,165,-75,239,-302,-326,-165,200,722
170,9,-161,-90,165,-75,234,-307,-336,-175,200,727
170,19,-151,-95,161,-65,234,-312,-346,-165,204,736
185,24,-161,-104,173,-68,229,-322,-346,-170,204,736
190,29,-161,-109,175,-65,229,-336,-356,-170,209,736
200,53,-146,-126,173,-46,234,-346,-356,-180,209,741
214,58,-156,-136,185,-48,219,-356,-361,-185,209,741
190,43,-146,-117,168,-51,214,-361,-370,-180,219,741
175,43,-131,-109,153,-43,219,-370,-370,-180,219,746
161,48,-112,-104,136,-31,219,-370,-370,-180,224,746
151,48,-102,-100,126,-26,224,-385,-375,-175,224,746
165,39,-126,-102,146,-43,209,-405,-390,-175,224,746
165,39,-126,-102,146,-43,204,-405,-395,-175,224,746
146,48,-97,-97,122,-24,200,-409,-395,-180,229,746
161,58,-102,-109,131,-21,190,-409,-395,-185,229,751
185,68,-117,-126,151,-24,190,-409,-395,-190,234,761
190,73,-117,-131,153,-21,190,-424,-400,-190,234,756
195,78,-117,-136,156,-19,195,-434,-400,-195,239,756
200,82,-117,-141,158,-17,200,-434,-400,-190,253,756
200,82,-117,-141,158,-17,190,-434,-409,-185,263,766
204,78,-126,-141,165,-24,195,-434,-409,-180,258,766
209,78,-131,-143,170,-26,180,-434,-405,-180,253,756
209,78,-131,-143,170,-26,175,-434,-400,-175,253,751
209,78,-131,-143,170,-26,170,-424,-390,-165,258,756
195,78,-117,-136,156,-19,170,-424,-390,-165,263,761
185,58,-126,-122,156,-34,175,-424,-385,-165,273,761
175,48,-126,-112,151,-39,175,-419,-385,-165,278,766
161,53,-107,-107,134,-26,195,-395,-361,-151,287,766
156,58,-97,-107,126,-19,200,-385,-351,-141,283,771
151,63,-87,-107,119,-12,200,-380,-346,-136,283,771
151,73,-78,-112,114,-2,200,-380,-341,-131,292,771
156,73,-82,-114,119,-4,214,-361,-331,-122,307,780
141,58,-82,-100,112,-12,214,-361,-326,-126,307,775
146,53,-92,-100,119,-19,214,-366,-322,-122,302,775
161,53,-107,-107,134,-26,229,-366,-307,-107,307,775
165,53,-112,-109,139,-29,234,-351,-297,-107,302,775
151,48,-102,-100,126,-26,234,-341,-292,-107,302,771
156,48,-107,-102,131,-29,234,-331,-287,-102,302,775
156,53,-102,-104,129,-24,244,-322,-273,-102,302,785
156,53,-102,-104,129,-24,248,-307,-253,-92,307,795
156,53,-102,-104,129,-24,248,-297,-248,-87,307,785
156,48,-107,-102,131,-29,253,-292,-244,-82,307,780
156,48,-107,-102,131,-29,263,-287,-239,-78,297,780
156,58,-97,-107,126,-19,263,-273,-224,-68,297,795
151,68,-82,-109,117,-7,263,-268,-224,-73,297,795
136,68,-68,-102,102,0,263,-273,-224,-73,302,795
131,63,-68,-97,100,-2,263,-278,-224,-73,307,790
131,43,-87,-87,109,-21,258,-273,-229,-78,302,795
122,43,-78,-82,100,-17,258,-268,-224,-73,302,795
122,34,-87,-78,104,-26,263,-258,-214,-68,302,800
122,34,-87,-78,104,-26,268,-244,-209,-68,302,805
131,34,-97,-82,114,-31,278,-234,-214,-73,297,810
126,24,-102,-75,114,-39,278,-234,-209,-73,287,810
117,24,-92,-70,104,-34,273,-229,-204,-73,287,805
117,24,-92,-70,104,-34,273,-229,-200,-78,287,800
117,24,-92,-70,104,-34,273,-229,-200,-73,297,810
117,24,-92,-70,104,-34,278,-229,-214,-73,297,805
122,34,-87,-78,104,-26,278,-224,-214,-73,297,805
122,39,-82,-80,102,-21,278,-224,-219,-73,292,805
131,43,-87,-87,109,-21,283,-209,-209,-63,302,814
122,48,-73,-85,97,-12,292,-204,-204,-68,302,819
126,53,-73,-90,100,-9,297,-195,-204,-68,302,829
141,58,-82,-100,112,-12,302,-185,-204,-68,302,829
131,53,-78,-92,104,-12,292,-180,-195,-63,312,824
126,48,-78,-87,102,-14,297,-175,-195,-63,307,824
102,39,-63,-70,82,-12,297,-175,-200,-63,307,824
97,34,-63,-65,80,-14,292,-170,-200,-73,307,824
92,34,-58,-63,75,-12,297,-161,-190,-73,317,834
87,29,-58,-58,73,-14,297,-161,-190,-68,312,829
82,24,-58,-53,70,-17,287,-156,-190,-68,312,829
73,24,-48,-48,61,-12,278,-141,-175,-68,312,824
87,34,-53,-61,70,-9,278,-141,-180,-73,302,829
102,29,-73,-65,87,-21,278,-141,-180,-73,302,829
112,24,-87,-68,100,-31,278,-141,-180,-73,302,834
122,19,-102,-70,112,-41,278,-141,-175,-73,302,844
97,19,-78,-58,87,-29,278,-141,-175,-68,312,844
87,24,-63,-56,75,-19,287,-131,-165,-63,312,844
87,39,-48,-63,68,-4,287,-131,-161,-63,317,854
97,39,-58,-68,78,-9,287,-131,-161,-63,317,858
102,48,-53,-75,78,-2,278,-117,-156,-68,317,854
102,58,-43,-80,73,7,278,-112,-156,-68,317,854
102,43,-58,-73,80,-7,278,-112,-151,-68,317,858
102,29,-73,-65,87,-21,278,-112,-151,-63,317,858
122,53,-68,-87,95,-7,268,-97,-141,-53,322,858
126,53,-73,-90,100,-9,273,-92,-141,-48,326,858
131,58,-73,-95,102,-7,273,-87,-136,-48,331,858
136,58,-78,-97,107,-9,273,-87,-122,-48,336,858
131,43,-87,-87,109,-21,258,-78,-122,-48,341,858
136,43,-92,-90,114,-24,258,-78,-126,-53,331,863
131,43,-87,-87,109,-21,263,-78,-126,-58,331,863
126,43,-82,-85,104,-19,263,-68,-131,-58,331,868
131,58,-73,-95,102,-7,273,-58,-136,-58,331,868
131,58,-73,-95,102,-7,273,-73,-136,-48,341,873
126,48,-78,-87,102,-14,278,-73,-141,-48,341,878
126,48,-78,-87,102,-14,287,-73,-141,-48,341,883
141,58,-82,-100,112,-12,283,-82,-156,-53,336,873
146,63,-82,-104,114,-9,278,-82,-161,-58,331,878
151,68,-82,-109,117,-7,273,-87,-165,-58,326,883
165,68,-97,-117,131,-14,268,-97,-170,-63,322,888
151,53,-97,-102,124,-21,268,-87,-161,-68,326,893
136,43,-92,-90,114,-24,268,-87,-161,-63,331,893
141,58,-82,-100,112,-12,263,-87,-161,-53,336,893
141,58,-82,-100,112,-12,258,-97,-161,-48,336,893
131,68,-63,-100,97,2,258,-92,-161,-43,346,893
122,53,-68,-87,95,-7,263,-87,-165,-53,346,893
112,39,-73,-75,92,-17,268,-82,-170,-63,346,893
102,39,-63,-70,82,-12,268,-87,-175,-58,346,888
107,39,-68,-73,87,-14,258,-92,-185,-68,346,888
112,39,-73,-75,92,-17,258,-92,-190,-68,346,893
112,43,-68,-78,90,-12,258,-97,-190,-68,341,897
112,39,-73,-75,92,-17,263,-102,-195,-73,336,902
122,29,-92,-75,107,-31,263,-92,-185,-68,336,902
122,29,-92,-75,107,-31,263,-92,-190,-68,341,902
122,39,-82,-80,102,-21,263,-92,-190,-68,341,907
117,39,-78,-78,97,-19,268,-92,-185,-63,346,912
117,43,-73,-80,95,-14,258,-97,-195,-68,346,907
117,43,-73,-80,95,-14,258,-102,-195,-73,346,907
117,43,-73,-80,95,-14,258,-107,-204,-78,336,912
112,43,-68,-78,90,-12,258,-112,-204,-82,336,927
112,43,-68,-78,90,-12,253,-117,-219,-87,331,922
112,43,-68,-78,90,-12,248,-117,-219,-87,331,922
102,43,-58,-73,80,-7,244,-122,-219,-87,331,927
102,43,-58,-73,80,-7,244,-122,-224,-92,326,932
102,39,-63,-70,82,-12,253,-126,-234,-97,326,941
102,43,-58,-73,80,-7,253,-126,-234,-102,326,932
102,48,-53,-75,78,-2,258,-126,-234,-102,326,932
102,58,-43,-80,73,7,263,-122,-229,-97,331,941
112,68,-43,-90,78,12,253,-107,-229,-97,331,819
112,63,-48,-87,80,7,258,-117,-229,-97,331,702
117,48,-68,-82,92,-9,253,-126,-229,-97,322,590
136,53,-82,-95,109,-14,253,-126,-229,-97,322,395
126,48,-78,-87,102,-14,248,-126,-239,-97,322,302
112,43,-68,-78,90,-12,248,-126,-239,-97,322,297
97,39,-58,-68,78,-9,248,-126,-239,-92,322,297
82,34,-48,-58,65,-7,253,-122,-239,-92,326,302
97,48,-48,-73,73,0,248,-131,-244,-97,331,297
107,53,-53,-80,80,0,244,-136,-244,-102,331,297
122,58,-63,-90,92,-2,239,-136,-244,-112,326,297
117,63,-53,-90,85,4,224,-131,-244,-117,322,297
107,58,-48,-82,78,4,224,-131,-234,-117,312,297
97,58,-39,-78,68,9,224,-136,-239,-117,312,297
87,58,-29,-73,58,14,224,-136,-239,-126,312,292
73,53,-19,-63,46,17,224,-141,-244,-126,302,292
73,43,-29,-58,51,7,224,-151,-244,-141,292,278
73,43,-29,-58,51,7,224,-156,-248,-141,292,273
73,39,-34,-56,53,2,229,-161,-253,-146,292,268
68,39,-29,-53,48,4,234,-161,-253,-146,283,268
68,43,-24,-56,46,9,229,-146,-244,-131,292,268
68,48,-19,-58,43,14,229,-141,-234,-131,297,268
73,58,-14,-65,43,21,234,-141,-229,-131,302,268
73,63,-9,-68,41,26,234,-146,-229,-131,302,268
78,43,-34,-61,56,4,234,-146,-234,-131,297,268
78,43,-34,-61,56,4,234,-146,-234,-131,287,268
82,48,-34,-65,58,7,229,-146,-234,-136,292,268
82,48,-34,-65,58,7,224,-151,-234,-136,292,263
63,43,-19,-53,41,12,224,-141,-229,-131,297,268
63,39,-24,-51,43,7,219,-141,-229,-136,297,263
63,39,-24,-51,43,7,219,-141,-229,-141,302,263
63,43,-19,-53,41,12,234,-141,-234,-141,302,263
53,34,-19,-43,36,7,229,-136,-244,-151,302,258
63,39,-24,-51,43,7,224,-136,-244,-156,297,248
63,39,-24,-51,43,7,219,-136,-248,-161,297,244
63,29,-34,-46,48,-2,219,-136,-248,-161,297,239
53,39,-14,-46,34,12,229,-141,-253,-161,297,229
58,39,-19,-48,39,9,219,-146,-253,-161,302,229
58,39,-19,-48,39,9,214,-151,-253,-165,307,229
48,29,-19,-39,34,4,214,-156,-253,-165,307,229
43,34,-9,-39,26,12,229,-146,-258,-165,297,229
63,34,-29,-48,46,2,229,-146,-258,-165,292,224
58,34,-24,-46,41,4,204,-146,-258,-165,292,219
39,34,-4,-36,21,14,200,-146,-258,-165,292,214
48,43,-4,-46,26,19,209,-141,-253,-161,297,224
53,48,-4,-51,29,21,209,-141,-253,-156,302,219
58,58,0,-58,29,29,209,-141,-248,-151,307,219
58,63,4,-61,26,34,209,-136,-244,-146,317,219
53,48,-4,-51,29,21,204,-146,-253,-151,312,204
58,43,-14,-51,36,14,200,-146,-258,-156,307,200
73,43,-29,-58,51,7,195,-156,-258,-161,297,190
82,48,-34,-65,58,7,195,-146,-258,-161,292,185
73,29,-43,-51,58,-7,200,-141,-248,-151,292,175
58,29,-29,-43,43,0,204,-136,-248,-165,287,170
48,29,-19,-39,34,4,209,-136,-248,-165,287,170
39,29,-9,-34,24,9,214,-131,-248,-165,292,170
39,29,-9,-34,24,9,204,-131,-248,-170,283,165
43,34,-9,-39,26,12,200,-126,-248,-170,287,165
53,34,-19,-43,36,7,200,-126,-248,-170,287,170
58,29,-29,-43,43,0,200,-126,-258,-170,287,170
58,34,-24,-46,41,4,209,-117,-248,-165,292,175
58,34,-24,-46,41,4,209,-117,-244,-161,297,180
58,39,-19,-48,39,9,200,-117,-239,-156,297,175
58,48,-9,-53,34,19,195,-126,-239,-151,302,180
48,53,4,-51,21,29,190,-117,-234,-151,302,180
43,53,9,-48,17,31,195,-117,-234,-146,297,175
34,43,9,-39,12,26,200,-117,-239,-146,297,170
34,43,9,-39,12,26,214,-117,-239,-146,297,165
43,43,0,-43,21,21,200,-117,-248,-151,287,161
53,39,-14,-46,34,12,204,-117,-248,-156,292,161
68,39,-29,-53,48,4,204,-117,-248,-156,292,161
82,39,-43,-61,63,-2,200,-117,-248,-156,292,161
82,19,-63,-51,73,-21,200,-126,-248,-161,283,141
58,9,-48,-34,53,-19,204,-122,-239,-161,292,146
29,9,-19,-19,24,-4,214,-102,-229,-151,312,165
9,9,0,-9,4,4,204,-107,-229,-156,312,165
9,9,0,-9,4,4,185,-117,-244,-156,302,146
19,24,4,-21,7,14,185,-117,-244,-146,302,146
29,29,0,-29,14,14,185,-117,-244,-146,302,146
39,34,-4,-36,21,14,185,-117,-244,-146,302,146
48,39,-9,-43,29,14,185,-117,-244,-146,302,146
48,39,-9,-43,29,14,170,-122,-248,-161,287,126
53,43,-9,-48,31,17,170,-126,-248,-161,287,126
58,53,-4,-56,31,24,161,-126,-248,-161,287,126
68,58,-9,-63,39,24,161,-122,-248,-165,287,131
78,73,-4,-75,41,34,170,-112,-234,-161,302,141
73,73,0,-73,36,36,170,-112,-234,-156,302,141
68,63,-4,-65,36,29,170,-112,-234,-151,292,141
68,63,-4,-65,36,29,170,-112,-234,-146,292,146
68,68,0,-68,34,34,165,-112,-229,-141,287,146
68,73,4,-70,31,39,180,-97,-224,-141,297,141
63,73,9,-68,26,41,200,-92,-219,-146,307,136
58,87,29,-73,14,58,214,-82,-214,-146,312,131
58,97,39,-78,9,68,224,-82,-195,-126,317,126
58,92,34,-75,12,63,229,-73,-190,-117,317,126
63,92,29,-78,17,61,224,-73,-185,-112,317,126
63,92,29,-78,17,61,224,-68,-180,-112,317,126
73,82,9,-78,31,46,244,-53,-165,-92,341,131
73,87,14,-80,29,51,263,-39,-151,-92,341,136
78,97,19,-87,29,58,268,-19,-141,-87,341,136
78,117,39,-97,19,78,273,-9,-136,-87,351,136
87,117,29,-102,29,73,278,9,-117,-87,361,146
87,107,19,-97,34,63,278,9,-126,-78,361,146
78,107,29,-92,24,68,268,4,-126,-78,366,151
58,97,39,-78,9,68,263,4,-126,-78,366,151
68,131,63,-100,2,97,268,4,-117,-63,375,151
68,122,53,-95,7,87,239,-4,-117,-73,370,146
82,107,24,-95,29,65,214,-19,-122,-78,366,146
92,117,24,-104,34,70,204,-43,-131,-82,361,146
112,122,9,-117,51,65,170,-73,-161,-107,351,146
102,126,24,-114,39,75,151,-82,-175,-112,346,136
112,131,19,-122,46,75,122,-107,-190,-122,336,131
117,136,19,-126,48,78,107,-122,-204,-131,331,131
107,126,19,-117,43,73,87,-141,-219,-141,326,126
102,131,29,-117,36,80,73,-146,-214,-146,326,122
102,131,29,-117,36,80,63,-151,-219,-151,326,117
102,131,29,-117,36,80,58,-151,-224,-156,326,112
87,126,39,-107,24,82,58,-141,-224,-156,322,107
82,126,43,-104,19,85,63,-141,-224,-156,326,107
78,122,43,-100,17,82,63,-136,-224,-151,326,107
73,117,43,-95,14,80,73,-136,-219,-151,326,112
68,112,43,-90,12,78,63,-141,-214,-161,317,112
78,126,48,-102,14,87,63,-141,-219,-156,317,122
68,107,39,-87,14,73,63,-141,-224,-175,317,117
68,102,34,-85,17,68,63,-136,-229,-180,322,112
73,112,39,-92,17,75,68,-131,-224,-165,322,107
73,92,19,-82,26,56,78,-126,-224,-165,317,92
73,82,9,-78,31,46,97,-122,-229,-165,307,82
68,78,9,-73,29,43,117,-107,-214,-165,307,78
48,58,9,-53,19,34,122,-102,-214,-165,317,68
43,53,9,-48,17,31,122,-102,-234,-175,312,63
39,43,4,-41,17,24,131,-107,-239,-180,302,63
39,39,0,-39,19,19,131,-117,-248,-190,302,53
34,24,-9,-29,21,7,112,-131,-253,-200,287,39
39,14,-24,-26,31,-4,112,-131,-258,-204,287,29
39,9,-29,-24,34,-9,117,-131,-263,-209,283,29
29,0,-29,-14,29,-14,117,-131,-268,-214,283,34
29,4,-24,-17,26,-9,112,-126,-273,-204,287,24
29,0,-29,-14,29,-14,117,-126,-268,-204,287,24
24,9,-14,-17,19,-2,126,-122,-263,-204,292,24
24,29,4,-26,9,17,136,-117,-258,-209,297,24
19,19,0,-19,9,9,136,-112,-258,-200,287,24
19,14,-4,-17,12,4,136,-112,-253,-209,287,19
14,9,-4,-12,9,2,136,-112,-253,-209,287,19
14,9,-4,-12,9,2,136,-112,-248,-209,287,19
24,4,-19,-14,21,-7,122,-122,-248,-219,273,9
29,4,-24,-17,26,-9,122,-126,-248,-229,273,4
43,0,-43,-21,43,-21,126,-131,-253,-229,273,0
48,-4,-53,-21,51,-29,126,-131,-253,-229,268,-4
24,-4,-29,-9,26,-17,122,-122,-248,-224,273,0
14,0,-14,-7,14,-7,122,-117,-244,-219,278,4
9,4,-4,-7,7,0,122,-117,-244,-214,283,9
4,0,-4,-2,4,-2,122,-126,-239,-209,287,14
34,9,-24,-21,29,-7,122,-126,-244,-229,278,4
34,34,0,-34,17,17,136,-117,-214,-219,283,4
14,4,-9,-9,12,-2,131,-117,-214,-219,283,-4
14,-19,-34,2,24,-26,122,-117,-209,-229,263,-29
29,-29,-58,0,43,-43,122,-117,-209,-234,253,-43
43,-34,-78,-4,61,-56,136,-107,-219,-253,239,-63
34,-58,-92,12,63,-75,146,-87,-239,-268,209,-82
29,-58,-87,14,58,-73,151,-73,-244,-268,195,-97
24,-63,-87,19,56,-75,161,-68,-209,-258,209,-97
0,-63,-63,31,31,-63,165,-58,-180,-219,239,-87
-29,-58,-29,43,0,-43,175,-43,-151,-165,283,-58
-34,-43,-9,39,-12,-26,165,-48,-117,-122,346,-14
4,-24,-29,9,17,-26,151,-58,-92,-58,444,48
102,34,-68,-68,85,-17,131,-39,-58,19,546,141
209,87,-122,-148,165,-17,97,14,9,117,683,253
292,102,-190,-197,241,-43,53,87,63,214,824,361
400,131,-268,-265,334,-68,4,165,117,307,961,478
522,180,-341,-351,431,-80,-53,224,165,366,1063,566
605,209,-395,-407,500,-92,-107,239,209,424,1137,639
649,312,-336,-480,492,-12,-141,253,283,483,1200,727
668,458,-209,-563,439,124,-185,190,331,512,1229,805
634,605,-29,-619,331,287,-248,-53,234,385,1098,800
517,712,195,-614,161,453,-273,-448,-14,97,824,707
312,771,458,-541,-73,614,-273,-888,-307,-239,478,546
146,766,619,-456,-236,692,-273,-1259,-551,-473,239,409
24,722,697,-373,-336,710,-268,-1532,-692,-590,122,312
-107,697,805,-295,-456,751,-229,-1668,-785,-658,63,244
-234,688,922,-226,-578,805,-170,-1654,-814,-668,34,190
-278,619,897,-170,-588,758,-141,-1571,-790,-644,14,122
-268,497,766,-114,-517,631,-156,-1488,-795,-653,-9,39
-253,414,668,-80,-461,541,-185,-1395,-805,-653,-9,-4
-200,390,590,-95,-395,490,-185,-1254,-766,-614,34,9
-136,336,473,-100,-305,405,-151,-1054,-712,-580,63,-9
-117,234,351,-58,-234,292,-97,-883,-673,-575,53,-63
-92,175,268,-41,-180,222,-34,-707,-614,-541,68,-92
-29,151,180,-61,-104,165,9,-522,-531,-478,107,-87
-14,97,112,-41,-63,104,39,-400,-478,-429,141,-78
-4,58,63,-26,-34,61,73,-326,-434,-385,165,-82
14,58,43,-36,-14,51,87,-263,-370,-351,195,-63
9,48,39,-29,-14,43,78,-214,-322,-307,224,-48
19,58,39,-39,-9,48,78,-185,-307,-287,229,-39
43,48,4,-46,19,26,78,-170,-297,-283,229,-48
39,34,-4,-36,21,14,87,-146,-297,-278,234,-68
39,29,-9,-34,24,9,92,-126,-283,-273,239,-68
48,19,-29,-34,39,-4,97,-117,-273,-268,248,-68
48,4,-43,-26,46,-19,112,-112,-273,-258,258,-78
48,-14,-63,-17,56,-39,117,-97,-273,-268,253,-87
48,-24,-73,-12,61,-48,117,-97,-268,-258,253,-92
48,-29,-78,-9,63,-53,117,-92,-258,-253,253,-92
39,-34,-73,-2,56,-53,112,-82,-253,-248,248,-87
68,-19,-87,-24,78,-53,112,-73,-244,-244,253,-82
73,-19,-92,-26,82,-56,107,-68,-248,-244,258,-87
73,-14,-87,-29,80,-51,107,-63,-248,-239,263,-87
73,-9,-82,-31,78,-46,117,-48,-248,-229,268,-82
58,-19,-78,-19,68,-48,131,-43,-244,-219,268,-78
48,-29,-78,-9,63,-53,131,-48,-239,-219,268,-78
39,-29,-68,-4,53,-48,131,-53,-234,-219,268,-78
39,-24,-63,-7,51,-43,126,-48,-229,-214,268,-82
58,-9,-68,-24,63,-39,117,-48,-229,-224,263,-82
68,-4,-73,-31,70,-39,112,-48,-229,-224,263,-78
78,0,-78,-39,78,-39,107,-43,-234,-224,263,-73
92,4,-87,-48,90,-41,102,-48,-234,-229,263,-73
102,-9,-112,-46,107,-61,112,-48,-224,-234,258,-92
102,-14,-117,-43,109,-65,117,-39,-219,-229,253,-82
102,-19,-122,-41,112,-70,117,-34,-224,-234,253,-87
102,-24,-126,-39,114,-75,117,-34,-219,-244,248,-92
82,-29,-112,-26,97,-70,107,-34,-204,-234,244,-97
78,-29,-107,-24,92,-68,107,-29,-195,-234,244,-92
78,-29,-107,-24,92,-68,107,-29,-190,-239,244,-87
78,-34,-112,-21,95,-73,107,-39,-190,-239,244,-82
68,-29,-97,-19,82,-63,107,-34,-190,-239,248,-87
68,-29,-97,-19,82,-63,107,-29,-185,-234,248,-82
68,-34,-102,-17,85,-68,107,-24,-175,-234,248,-78
78,-34,-112,-21,95,-73,107,-19,-175,-234,248,-82
92,-24,-117,-34,104,-70,117,-19,-170,-234,239,-82
107,-14,-122,-46,114,-68,117,-19,-180,-234,239,-82
126,-14,-141,-56,134,-78,112,-14,-185,-234,239,-87
122,-14,-136,-53,129,-75,112,-9,-190,-234,244,-87
112,-39,-151,-36,131,-95,102,-9,-200,-244,253,-112
112,-39,-151,-36,131,-95,92,-9,-204,-244,253,-102
112,-29,-141,-41,126,-85,107,-14,-204,-244,263,-97
122,-29,-151,-46,136,-90,107,-14,-209,-239,263,-97
112,-19,-131,-46,122,-75,92,-24,-229,-244,258,-107
112,-19,-131,-46,122,-75,87,-24,-244,-248,253,-102
112,-19,-131,-46,122,-75,82,-19,-248,-253,248,-102
92,-29,-122,-31,107,-75,82,-19,-253,-258,244,-102
102,-29,-131,-36,117,-80,92,-4,-248,-248,248,-107
112,-29,-141,-41,126,-85,97,-4,-253,-248,248,-107
117,-34,-151,-41,134,-92,102,-4,-253,-244,248,-107
117,-34,-151,-41,134,-92,107,-4,-253,-234,253,-107
107,-24,-131,-41,119,-78,92,-4,-253,-224,258,-97
102,-24,-126,-39,114,-75,87,-4,-258,-229,263,-102
102,-14,-117,-43,109,-65,82,0,-258,-229,273,-102
107,-14,-122,-46,114,-68,82,0,-258,-219,283,-97
112,-24,-136,-43,124,-80,73,-9,-258,-219,278,-107
117,-34,-151,-41,134,-92,73,-4,-258,-224,273,-107
122,-24,-146,-48,134,-85,73,-4,-258,-224,268,-107
131,-24,-156,-53,143,-90,73,-4,-258,-224,278,-102
126,-34,-161,-46,143,-97,78,-14,-253,-209,287,-102
122,-39,-161,-41,141,-100,82,-4,-239,-200,287,-97
117,-34,-151,-41,134,-92,87,4,-234,-200,292,-97
107,-39,-146,-34,126,-92,92,4,-229,-209,292,-97
92,-48,-141,-21,117,-95,82,-4,-229,-209,287,-97
92,-48,-141,-21,117,-95,82,4,-219,-204,287,-97
102,-48,-151,-26,126,-100,78,9,-219,-200,287,-97
102,-48,-151,-26,126,-100,78,9,-200,-200,283,-97
102,-39,-141,-31,122,-90,78,14,-200,-185,287,-82
102,-19,-122,-41,112,-70,73,19,-190,-175,302,-78
102,-9,-112,-46,107,-61,68,29,-180,-175,312,-73
107,-4,-112,-51,109,-58,58,29,-180,-175,317,-73
102,4,-97,-53,100,-46,58,29,-180,-170,307,-82
102,0,-102,-51,102,-51,63,29,-175,-170,312,-82
97,-4,-102,-46,100,-53,73,39,-165,-170,312,-82
92,-9,-102,-41,97,-56,78,43,-161,-161,312,-82
92,-19,-112,-36,102,-65,68,39,-170,-170,312,-73
102,-19,-122,-41,112,-70,63,39,-165,-175,317,-78
112,-9,-122,-51,117,-65,58,34,-165,-175,317,-78
112,-19,-131,-46,122,-75,43,29,-165,-170,317,-78
117,-14,-131,-51,124,-73,34,39,-165,-161,336,-73
122,-14,-136,-53,129,-75,34,48,-165,-156,341,-58
117,-9,-126,-53,122,-68,34,53,-161,-146,341,-53
122,-4,-126,-58,124,-65,39,53,-161,-136,341,-39
117,-29,-146,-43,131,-87,29,48,-170,-146,351,-39
112,-34,-146,-39,129,-90,29,48,-165,-141,356,-39
107,-34,-141,-36,124,-87,29,53,-165,-141,356,-39
102,-29,-131,-36,117,-80,29,53,-161,-141,361,-39
107,-24,-131,-41,119,-78,39,48,-170,-141,366,-39
117,-19,-136,-48,126,-78,29,48,-170,-136,366,-43
117,-19,-136,-48,126,-78,19,43,-170,-136,361,-43
117,-19,-136,-48,126,-78,9,43,-175,-136,361,-39
122,-14,-136,-53,129,-75,4,39,-185,-136,370,-43
136,-4,-141,-65,139,-73,4,43,-175,-131,375,-43
146,0,-146,-73,146,-73,4,43,-170,-131,375,-34
151,14,-136,-82,143,-61,4,39,-170,-126,380,-29
146,14,-131,-80,139,-58,-9,43,-161,-131,385,-29
141,9,-131,-75,136,-61,-19,39,-161,-126,385,-29
131,4,-126,-68,129,-61,-29,39,-165,-126,385,-24
117,0,-117,-58,117,-58,-34,39,-165,-126,390,-19
117,9,-107,-63,112,-48,-29,39,-165,-112,395,-24
122,9,-112,-65,117,-51,-39,34,-165,-112,395,-24
122,9,-112,-65,117,-51,-39,29,-170,-122,390,-24
122,9,-112,-65,117,-51,-34,29,-170,-122,390,-24
141,19,-122,-80,131,-51,-43,24,-161,-107,405,-9
151,19,-131,-85,141,-56,-53,19,-161,-107,414,0
161,19,-141,-90,151,-61,-58,19,-170,-117,419,9
170,29,-141,-100,156,-56,-58,19,-180,-107,429,24
165,19,-146,-92,156,-63,-68,9,-190,-112,419,19
161,19,-141,-90,151,-61,-63,-4,-200,-112,424,14
161,39,-122,-100,141,-41,-53,-14,-200,-122,424,14
165,39,-126,-102,146,-43,-63,-24,-204,-126,424,9
170,43,-126,-107,148,-41,-87,-39,-214,-131,424,0
175,43,-131,-109,153,-43,-92,-48,-214,-131,424,4
180,48,-131,-114,156,-41,-102,-48,-214,-131,429,4
190,48,-141,-119,165,-46,-107,-63,-219,-126,429,4
185,48,-136,-117,161,-43,-102,-58,-219,-112,434,9
175,48,-126,-112,151,-39,-97,-53,-219,-107,439,14
146,58,-87,-102,117,-14,-92,-53,-214,-107,448,19
151,68,-82,-109,117,-7,-92,-48,-209,-107,453,29
151,68,-82,-109,117,-7,-102,-48,-209,-107,444,19
151,63,-87,-107,119,-12,-102,-63,-214,-112,439,14
151,58,-92,-104,122,-17,-97,-73,-214,-122,439,14
151,53,-97,-102,124,-21,-92,-73,-214,-122,448,14
151,63,-87,-107,119,-12,-87,-58,-214,-122,444,14
156,58,-97,-107,126,-19,-78,-53,-214,-122,434,4
161,58,-102,-109,131,-21,-87,-48,-209,-126,424,-14
161,58,-102,-109,131,-21,-87,-43,-204,-126,419,-29
151,48,-102,-100,126,-26,-68,-39,-190,-117,419,-29
136,48,-87,-92,112,-19,-63,-34,-185,-117,419,-29
126,29,-97,-78,112,-34,-53,-29,-175,-117,424,-34
117,19,-97,-68,107,-39,-48,-19,-170,-117,424,-34
107,19,-87,-63,97,-34,-39,-14,-161,-117,414,-39
107,19,-87,-63,97,-34,-34,-4,-156,-112,400,-39
107,19,-87,-63,97,-34,-34,0,-156,-112,390,-43
112,24,-87,-68,100,-31,-34,0,-156,-112,390,-48
97,19,-78,-58,87,-29,-9,9,-151,-126,385,-68
73,0,-73,-36,73,-36,-9,9,-151,-136,375,-82
68,-9,-78,-29,73,-43,-9,4,-151,-136,361,-92
73,-14,-87,-29,80,-51,4,4,-141,-126,356,-102
78,-19,-97,-29,87,-58,19,14,-126,-136,351,-117
63,-19,-82,-21,73,-51,19,19,-126,-136,351,-126
68,-14,-82,-26,75,-48,19,24,-126,-131,351,-126
68,-4,-73,-31,70,-39,29,29,-117,-131,351,-122
58,-24,-82,-17,70,-53,24,29,-122,-136,351,-131
58,-34,-92,-12,75,-63,24,34,-122,-136,346,-141
58,-48,-107,-4,82,-78,29,34,-122,-136,341,-146
58,-58,-117,0,87,-87,39,34,-122,-136,326,-146
53,-39,-92,-7,73,-65,34,43,-126,-146,322,-146
53,-29,-82,-12,68,-56,29,43,-126,-151,317,-151
43,-29,-73,-7,58,-51,24,34,-126,-151,317,-156
43,-34,-78,-4,61,-56,19,24,-126,-151,317,-165
53,-29,-82,-12,68,-56,29,24,-131,-146,312,-170
43,-24,-68,-9,56,-46,34,24,-126,-141,312,-180
43,-29,-73,-7,58,-51,43,29,-117,-136,312,-185
43,-24,-68,-9,56,-46,53,39,-112,-136,312,-190
53,-24,-78,-14,65,-51,53,39,-112,-151,307,-195
48,-34,-82,-7,65,-58,53,39,-112,-151,297,-195
39,-34,-73,-2,56,-53,48,43,-112,-151,297,-200
39,-34,-73,-2,56,-53,48,43,-112,-156,297,-204
43,-43,-87,0,65,-65,48,43,-102,-151,297,-200
39,-43,-82,2,61,-63,53,43,-117,-151,297,-209
39,-34,-73,-2,56,-53,53,48,-117,-151,297,-214
34,-29,-63,-2,48,-46,53,48,-122,-151,292,-219
29,-43,-73,7,51,-58,53,43,-131,-161,287,-224
14,-48,-63,17,39,-56,58,39,-126,-165,283,-224
14,-53,-68,19,41,-61,58,39,-126,-165,278,-219
24,-58,-82,17,53,-70,58,39,-126,-165,273,-224
24,-53,-78,14,51,-65,53,39,-117,-161,283,-234
19,-48,-68,14,43,-58,63,39,-117,-161,278,-239
-4,-48,-43,26,19,-46,68,34,-122,-161,278,-244
-9,-43,-34,26,12,-39,68,34,-122,-170,278,-248
-9,-39,-29,24,9,-34,73,39,-122,-170,287,-244
-9,-39,-29,24,9,-34,73,43,-122,-165,283,-253
-9,-39,-29,24,9,-34,63,53,-122,-165,283,-258
-14,-34,-19,24,2,-26,53,73,-107,-165,283,-268
-19,-24,-4,21,-7,-14,63,63,-102,-161,278,-268
-14,-29,-14,21,0,-21,63,63,-102,-161,273,-273
-14,-34,-19,24,2,-26,63,63,-102,-161,268,-273
-14,-39,-24,26,4,-31,63,63,-97,-161,263,-268
-19,-29,-9,24,-4,-19,58,58,-107,-161,253,-268
-19,-24,-4,21,-7,-14,63,63,-97,-161,253,-268
-9,-9,0,9,-4,-4,58,58,-92,-165,258,-258
9,-9,-19,0,14,-14,53,53,-92,-170,258,-253
14,-14,-29,0,21,-21,53,48,-97,-175,258,-263
14,-9,-24,-2,19,-17,53,53,-97,-175,258,-268
14,-29,-43,7,29,-36,53,53,-92,-175,258,-268
14,-48,-63,17,39,-56,53,53,-92,-170,258,-273
9,-39,-48,14,29,-43,53,63,-92,-170,268,-263
0,-43,-43,21,21,-43,58,63,-92,-165,268,-263
-9,-43,-34,26,12,-39,58,63,-87,-165,268,-263
-19,-48,-29,34,4,-39,58,58,-73,-165,268,-263
-19,-39,-19,29,0,-29,53,58,-82,-165,263,-268
-9,-34,-24,21,7,-29,53,58,-87,-170,253,-268
-9,-29,-19,19,4,-24,58,58,-87,-175,253,-273
-9,-24,-14,17,2,-19,58,68,-92,-175,253,-273
-4,-14,-9,9,2,-12,43,73,-92,-165,263,-273
-4,-9,-4,7,0,-7,39,63,-87,-156,273,-268
-9,-14,-4,12,-2,-9,39,68,-87,-156,273,-263
-9,-9,0,9,-4,-4,43,73,-82,-156,273,-258
-9,-9,0,9,-4,-4,34,68,-97,-161,263,-263
-9,-14,-4,12,-2,-9,34,63,-102,-165,263,-263
-9,-19,-9,14,0,-14,34,53,-107,-165,263,-263
0,-29,-29,14,14,-29,34,39,-112,-170,263,-263
-4,-34,-29,19,12,-31,34,29,-117,-180,263,-273
-9,-43,-34,26,12,-39,34,29,-122,-180,263,-278
4,-29,-34,12,19,-31,29,29,-126,-175,263,-283
14,-29,-43,7,29,-36,24,19,-131,-175,258,-287
9,-14,-24,2,17,-19,19,19,-126,-170,258,-287
4,-24,-29,9,17,-26,19,19,-126,-180,258,-287
0,-34,-34,17,17,-34,19,19,-126,-190,258,-287
-4,-29,-24,17,9,-26,14,9,-126,-185,258,-292
-4,-34,-29,19,12,-31,29,9,-117,-175,268,-287
-4,-29,-24,17,9,-26,34,14,-122,-175,268,-287
-9,-19,-9,14,0,-14,39,14,-122,-175,263,-287
-14,-19,-4,17,-4,-12,48,14,-126,-180,258,-287
-9,-4,4,7,-7,0,43,14,-126,-185,258,-292
-4,0,4,2,-4,2,39,14,-131,-185,263,-297
0,14,14,-7,-7,14,34,14,-131,-185,263,-297
0,19,19,-9,-9,19,34,14,-126,-180,268,-297
-4,0,4,2,-4,2,43,14,-126,-190,268,-297
-9,-4,4,7,-7,0,43,14,-126,-190,268,-302
-14,-9,4,12,-9,-2,43,14,-136,-190,258,-302
-24,-14,9,19,-17,-2,43,14,-136,-190,258,-292
-34,-29,4,31,-19,-12,39,9,-136,-200,253,-302
-34,-34,0,34,-17,-17,34,9,-131,-195,253,-307
-43,-39,4,41,-24,-17,29,4,-126,-190,253,-307
-43,-43,0,43,-21,-21,29,4,-126,-190,248,-307
-39,-48,-9,43,-14,-29,14,4,-141,-204,248,-317
-34,-43,-9,39,-12,-26,9,0,-146,-209,248,-326
-29,-39,-9,34,-9,-24,9,-4,-151,-209,248,-326
-24,-29,-4,26,-9,-17,9,-4,-151,-204,253,-317
-14,-14,0,14,-7,-7,14,9,-141,-204,253,-307
-14,-14,0,14,-7,-7,24,0,-141,-204,253,-312
-9,-24,-14,17,2,-19,24,-9,-141,-204,244,-312
9,-14,-24,2,17,-19,29,-9,-141,-204,244,-395
4,-19,-24,7,14,-21,34,-9,-151,-204,253,-439
-14,-24,-9,19,-2,-17,34,-9,-151,-204,253,-405
-34,-29,4,31,-19,-12,34,-9,-151,-200,253,-366
-53,-34,19,43,-36,-7,39,-4,-151,-200,258,-322
-43,-24,19,34,-31,-2,39,-4,-136,-200,258,-317
-39,-24,14,31,-26,-4,39,-9,-136,-200,263,-317
-29,-24,4,26,-17,-9,39,-9,-136,-204,263,-317
-39,-24,14,31,-26,-4,29,-4,-136,-204,263,-317
-29,-24,4,26,-17,-9,24,-14,-141,-204,248,-326
-29,-29,0,29,-14,-14,19,-19,-151,-204,244,-326
-29,-34,-4,31,-12,-19,14,-19,-156,-214,239,-331
-34,-43,-9,39,-12,-26,9,-24,-165,-214,224,-331
-34,-29,4,31,-19,-12,0,-24,-156,-219,229,-326
-34,-24,9,29,-21,-7,0,-29,-161,-219,234,-331
-34,-24,9,29,-21,-7,4,-34,-165,-224,239,-336
-39,-19,19,29,-29,0,9,-34,-165,-224,234,-336
-29,-19,9,24,-19,-4,14,-29,-161,-219,234,-326
-29,-19,9,24,-19,-4,14,-24,-156,-219,239,-326
-24,-14,9,19,-17,-2,19,-24,-156,-219,244,-326
-24,-14,9,19,-17,-2,19,-29,-161,-219,244,-326
-34,-34,0,34,-17,-17,29,-29,-165,-209,248,-326
-39,-34,4,36,-21,-14,29,-29,-165,-209,239,-326
-39,-29,9,34,-24,-9,24,-29,-165,-214,244,-326
-43,-29,14,36,-29,-7,19,-34,-165,-214,244,-331
-63,-34,29,48,-46,-2,19,-34,-161,-219,244,-336
-63,-39,24,51,-43,-7,14,-34,-161,-224,239,-341
-63,-39,24,51,-43,-7,14,-34,-161,-229,239,-341
-63,-34,29,48,-46,-2,29,-34,-165,-229,234,-341
-63,-29,34,46,-48,2,29,-34,-161,-214,239,-336
-53,-19,34,36,-43,7,29,-29,-156,-214,239,-336
-53,-14,39,34,-46,12,29,-24,-156,-214,244,-331
-53,-19,34,36,-43,7,34,-19,-151,-209,248,-326
-43,-9,34,26,-39,12,24,-24,-151,-209,239,-326
-39,-9,29,24,-34,9,14,-29,-156,-209,244,-326
-39,-9,29,24,-34,9,9,-34,-161,-214,248,-326
-48,-19,29,34,-39,4,9,-39,-165,-214,248,-326
-68,-34,34,51,-51,0,24,-39,-151,-214,248,-322
-53,-34,19,43,-36,-7,24,-39,-151,-214,244,-322
-63,-34,29,48,-46,-2,0,-39,-151,-214,244,-322
-87,-34,53,61,-70,9,-4,-39,-151,-214,244,-322
-78,-39,39,58,-58,0,4,-39,-151,-224,244,-331
-73,-39,34,56,-53,-2,4,-43,-156,-224,244,-336
-68,-34,34,51,-51,0,4,-48,-156,-224,244,-336
-68,-34,34,51,-51,0,4,-48,-156,-224,248,-336
-87,-34,53,61,-70,9,14,-43,-146,-214,258,-322
-87,-34,53,61,-70,9,14,-39,-151,-214,258,-317
-78,-29,48,53,-63,9,14,-43,-151,-214,253,-317
-73,-19,53,46,-63,17,19,-29,-151,-209,253,-312
-63,-29,34,46,-48,2,9,-29,-141,-209,253,-312
-68,-29,39,48,-53,4,9,-29,-141,-224,248,-317
-68,-29,39,48,-53,4,9,-34,-141,-224,248,-317
-68,-29,39,48,-53,4,9,-34,-141,-224,253,-317
-68,-29,39,48,-53,4,9,-34,-131,-209,263,-312
-63,-24,39,43,-51,7,4,-29,-131,-209,268,-312
-53,-24,29,39,-41,2,4,-29,-131,-209,268,-307
-48,-29,19,39,-34,-4,4,-29,-141,-209,268,-307
-58,-39,19,48,-39,-9,-4,-39,-141,-219,258,-317
-78,-43,34,61,-56,-4,-4,-39,-136,-229,248,-326
-58,-43,14,51,-36,-14,14,-39,-131,-219,253,-326
-58,-39,19,48,-39,-9,19,-39,-131,-209,253,-326
-68,-39,29,53,-48,-4,0,-29,-126,-214,253,-322
-78,-29,48,53,-63,9,-9,-29,-126,-214,263,-317
-78,-29,48,53,-63,9,-9,-29,-126,-214,263,-312
-78,-29,48,53,-63,9,-9,-29,-126,-214,263,-307
-78,-29,48,53,-63,9,-9,-29,-126,-214,263,-302
-97,-39,58,68,-78,9,0,-34,-122,-214,268,-302
-102,-43,58,73,-80,7,4,-39,-122,-209,268,-302
-107,-43,63,75,-85,9,0,-39,-122,-204,268,-302
-107,-48,58,78,-82,4,4,-34,-122,-204,268,-297
-87,-24,63,56,-75,19,0,-29,-117,-209,268,-302
-82,-24,58,53,-70,17,-4,-34,-126,-214,263,-307
-78,-34,43,56,-61,4,-9,-39,-136,-219,248,-312
-68,-34,34,51,-51,0,-14,-43,-146,-224,244,-312
-73,-19,53,46,-63,17,0,-39,-126,-204,258,-297
-68,-14,53,41,-61,19,14,-19,-117,-200,268,-297
-68,-14,53,41,-61,19,34,-9,-107,-200,278,-297
-68,0,68,34,-68,34,48,4,-97,-195,283,-297
-58,0,58,29,-58,29,73,19,-73,-180,297,-278
-58,-4,53,31,-56,24,82,34,-63,-165,297,-273
-53,-4,48,29,-51,21,82,39,-53,-156,297,-268
-53,-4,48,29,-51,21,87,48,-43,-151,297,-263
-63,-4,58,34,-61,26,92,58,-39,-136,317,-253
-63,0,63,31,-63,31,107,68,-24,-131,322,-244
-58,9,68,24,-63,39,107,82,-14,-122,326,-239
-58,29,87,14,-73,58,107,87,-9,-117,341,-234
-29,39,68,-4,-48,53,112,87,0,-107,331,-234
-29,29,58,0,-43,43,102,87,-9,-97,331,-234
-39,29,68,4,-53,48,82,82,-9,-97,336,-229
-58,19,78,19,-68,48,68,82,-9,-97,336,-229
-48,53,102,-2,-75,78,53,78,-24,-102,346,-229
-39,43,82,-2,-61,63,14,63,-29,-122,341,-234
-14,29,43,-7,-29,36,-19,43,-39,-136,336,-234
4,39,34,-21,-14,36,-39,14,-53,-151,331,-234
0,39,39,-19,-19,39,-58,-19,-82,-175,322,-224
-24,39,63,-7,-43,51,-73,-24,-97,-180,317,-234
-29,39,68,-4,-48,53,-97,-43,-112,-190,307,-239
-39,39,78,0,-58,58,-107,-53,-126,-200,302,-239
-39,34,73,2,-56,53,-102,-73,-136,-204,292,-248
-43,34,78,4,-61,56,-102,-78,-126,-204,287,-248
-43,29,73,7,-58,51,-97,-82,-126,-204,283,-248
-43,24,68,9,-56,46,-87,-82,-126,-204,278,-248
-58,39,97,9,-78,68,-82,-73,-117,-195,292,-239
-63,48,112,7,-87,80,-73,-73,-117,-195,297,-234
-68,53,122,7,-95,87,-68,-68,-117,-190,297,-229
-73,58,131,7,-102,95,-53,-68,-112,-190,297,-219
-58,48,107,4,-82,78,-43,-63,-102,-175,307,-224
-48,68,117,-9,-82,92,-43,-63,-102,-165,307,-209
-58,53,112,2,-85,82,-43,-63,-102,-180,307,-209
-58,53,112,2,-85,82,-43,-58,-102,-180,312,-209
-53,48,102,2,-78,75,-53,-58,-102,-185,302,-219
-53,24,78,14,-65,51,-58,-58,-107,-185,297,-229
-53,9,63,21,-58,36,-53,-58,-117,-185,287,-234
-58,0,58,29,-58,29,-48,-48,-107,-185,287,-234
-87,-9,78,48,-82,34,-39,-34,-97,-175,287,-234
-102,-14,87,58,-95,36,-34,-34,-117,-185,283,-239
-117,-24,92,70,-104,34,-19,-39,-122,-190,273,-239
-126,-29,97,78,-112,34,-14,-48,-131,-200,273,-248
-112,-39,73,75,-92,17,-14,-63,-141,-209,263,-253
-107,-43,63,75,-85,9,-14,-63,-141,-214,258,-263
-107,-43,63,75,-85,9,-9,-63,-141,-219,248,-263
-117,-48,68,82,-92,9,-9,-63,-141,-224,244,-258
-122,-48,73,85,-97,12,-19,-63,-141,-234,253,-258
-126,-58,68,92,-97,4,-19,-68,-141,-234,248,-258
-136,-53,82,95,-109,14,-14,-68,-141,-234,248,-258
-141,-39,102,90,-122,31,-9,-68,-141,-239,248,-258
-126,-39,87,82,-107,24,-9,-73,-141,-229,248,-268
-126,-43,82,85,-104,19,-9,-73,-136,-239,248,-273
-131,-48,82,90,-107,17,-9,-73,-136,-239,248,-273
-131,-48,82,90,-107,17,-9,-73,-131,-239,248,-273
-126,-58,68,92,-97,4,-24,-78,-131,-248,239,-278
-126,-53,73,90,-100,9,-24,-87,-131,-258,234,-278
-117,-53,63,85,-90,4,-19,-97,-136,-258,229,-278
-117,-53,63,85,-90,4,-19,-102,-136,-258,219,-278
-136,-58,78,97,-107,9,-24,-97,-131,-248,229,-273
-141,-58,82,100,-112,12,-24,-87,-126,-248,229,-268
-141,-58,82,100,-112,12,-24,-82,-126,-248,229,-263
-141,-68,73,104,-107,2,-24,-87,-122,-248,229,-258
-151,-68,82,109,-117,7,-14,-68,-107,-229,239,-239
-131,-53,78,92,-104,12,-9,-68,-107,-239,244,-239
-122,-43,78,82,-100,17,-4,-87,-117,-248,224,-248
-131,-58,73,95,-102,7,-4,-97,-131,-258,214,-263
-156,-78,78,117,-117,0,-4,-87,-122,-253,214,-258
-151,-73,78,112,-114,2,0,-58,-112,-253,219,-268
-161,-87,73,124,-117,-7,0,-39,-122,-268,200,-297
-156,-97,58,126,-107,-19,34,-14,-107,-258,185,-322
-151,-82,68,117,-109,-7,73,19,-73,-239,190,-312
-156,-92,63,124,-109,-14,78,9,-53,-209,209,-312
-165,-117,48,141,-107,-34,78,-4,-34,-175,244,-283
-161,-82,78,122,-119,-2,78,-9,0,-122,307,-219
-131,-53,78,92,-104,12,63,-19,24,-58,395,-146
-82,-43,39,63,-61,-2,24,-19,48,9,507,-73
-34,-29,4,31,-19,-12,0,24,97,97,634,29
58,-14,-73,-21,65,-43,-34,97,161,204,766,126
195,14,-180,-104,187,-82,-82,195,224,307,902,234
336,92,-244,-214,290,-75,-141,283,292,395,1044,351
429,170,-258,-300,344,-43,-185,326,356,473,1137,453
473,253,-219,-363,346,17,-239,312,409,522,1190,541
483,380,-102,-431,292,139,-302,219,448,541,1210,610
468,546,78,-507,195,312,-366,-24,370,453,1137,644
390,673,283,-531,53,478,-400,-400,131,195,883,561
175,712,536,-444,-180,624,-390,-839,-170,-151,527,409
-48,717,766,-334,-407,741,-390,-1229,-405,-414,268,263
-161,692,854,-265,-507,773,-405,-1522,-585,-570,122,156
-253,639,893,-192,-573,766,-385,-1698,-727,-678,24,48
-361,619,980,-129,-671,800,-326,-1693,-746,-688,-4,-14
-405,600,1005,-97,-705,802,-278,-1590,-692,-644,4,-53
-385,527,912,-70,-649,719,-273,-1498,-697,-653,-19,-126
-370,434,805,-31,-588,619,-302,-1415,-727,-663,-39,-180
-336,361,697,-12,-517,529,-302,-1273,-697,-644,-14,-195
-302,297,600,2,-451,448,-258,-1063,-634,-610,14,-214
-292,214,507,39,-400,361,-195,-854,-566,-575,34,-239
-268,136,405,65,-336,270,-141,-678,-488,-522,48,-258
-214,82,297,65,-256,190,-107,-512,-424,-478,68,-273
-170,58,229,56,-200,143,-87,-370,-351,-429,102,-273
-170,29,200,70,-185,114,-53,-278,-297,-375,146,-258
-161,-9,151,85,-156,70,-39,-234,-244,-331,165,-258
-136,-9,126,73,-131,58,-9,-185,-204,-297,185,-244
-136,-9,126,73,-131,58,9,-146,-180,-278,209,-224
-151,-9,141,80,-146,65,19,-131,-151,-263,219,-224
-146,-29,117,87,-131,43,9,-107,-156,-253,214,-234
-146,-29,117,87,-131,43,14,-87,-146,-253,219,-234
-136,-34,102,85,-119,34,19,-78,-141,-253,229,-234
-136,-43,92,90,-114,24,34,-73,-146,-248,239,-244
-156,-58,97,107,-126,19,48,-63,-146,-248,229,-244
-156,-63,92,109,-124,14,48,-58,-141,-239,234,-248
-156,-63,92,109,-124,14,48,-48,-131,-234,239,-248
-165,-63,102,114,-134,19,43,-34,-126,-229,239,-244
-141,-58,82,100,-112,12,34,-34,-126,-229,239,-239
-131,-58,73,95,-102,7,29,-29,-131,-234,239,-244
-126,-53,73,90,-100,9,29,-24,-131,-234,239,-244
-122,-48,73,85,-97,12,39,-9,-131,-229,239,-239
-112,-53,58,82,-85,2,43,-19,-141,-229,234,-258
-107,-68,39,87,-73,-14,43,-29,-141,-229,229,-263
-102,-73,29,87,-65,-21,43,-39,-141,-229,224,-268
-87,-73,14,80,-51,-29,39,-39,-141,-224,219,-278
-87,-63,24,75,-56,-19,43,-24,-136,-219,229,-273
-97,-63,34,80,-65,-14,43,-19,-131,-214,234,-263
-107,-63,43,85,-75,-9,43,-9,-131,-209,239,-253
-112,-63,48,87,-80,-7,43,-9,-126,-209,244,-248
-117,-73,43,95,-80,-14,58,-9,-112,-200,244,-253
-122,-73,48,97,-85,-12,68,0,-102,-190,244,-239
-126,-73,53,100,-90,-9,73,4,-102,-190,248,-239
-131,-73,58,102,-95,-7,78,4,-92,-195,248,-239
-136,-73,63,104,-100,-4,63,-4,-82,-195,253,-239
-136,-68,68,102,-102,0,58,0,-78,-195,253,-239
-131,-63,68,97,-100,2,53,0,-78,-200,253,-239
-126,-63,63,95,-95,0,48,-9,-82,-200,253,-239
-136,-63,73,100,-104,4,68,-4,-68,-200,258,-234
-136,-58,78,97,-107,9,68,0,-58,-195,258,-229
-136,-58,78,97,-107,9,68,4,-43,-195,258,-224
-126,-53,73,90,-100,9,68,9,-39,-195,258,-229
-117,-48,68,82,-92,9,68,9,-34,-195,248,-229
-107,-43,63,75,-85,9,68,9,-43,-195,248,-229
-92,-48,43,70,-68,-2,63,14,-48,-195,248,-234
-102,-53,48,78,-75,-2,63,19,-53,-195,253,-234
-112,-73,39,92,-75,-17,63,9,-48,-185,244,-244
-112,-78,34,95,-73,-21,53,9,-48,-185,244,-229
-112,-73,39,92,-75,-17,68,4,-43,-185,253,-219
-102,-78,24,90,-63,-26,68,4,-43,-180,253,-214
-112,-68,43,90,-78,-12,53,4,-53,-180,253,-214
-112,-68,43,90,-78,-12,48,4,-58,-180,253,-209
-112,-68,43,90,-78,-12,43,9,-53,-180,253,-209
-131,-78,53,104,-92,-12,43,9,-48,-180,253,-209
-126,-78,48,102,-87,-14,43,9,-68,-190,258,-214
-112,-78,34,95,-73,-21,48,4,-78,-190,258,-214
-102,-82,19,92,-61,-31,53,0,-82,-185,258,-214
-97,-82,14,90,-56,-34,58,-4,-87,-175,263,-214
-97,-73,24,85,-61,-24,68,4,-78,-175,273,-214
-102,-73,29,87,-65,-21,68,4,-82,-180,273,-219
-102,-63,39,82,-70,-12,68,9,-82,-180,278,-219
-97,-63,34,80,-65,-14,73,9,-82,-170,283,-214
-102,-63,39,82,-70,-12,68,19,-92,-161,283,-204
-107,-73,34,90,-70,-19,63,24,-92,-165,283,-204
-112,-63,48,87,-80,-7,58,24,-92,-165,283,-204
-112,-63,48,87,-80,-7,53,24,-92,-165,297,-200
-102,-68,34,85,-68,-17,53,14,-92,-151,297,-200
-102,-68,34,85,-68,-17,53,24,-82,-141,297,-195
-102,-58,43,80,-73,-7,53,34,-82,-141,302,-195
-107,-58,48,82,-78,-4,53,34,-82,-151,302,-195
-122,-68,53,95,-87,-7,43,24,-82,-161,302,-185
-122,-68,53,95,-87,-7,43,34,-73,-156,307,-185
-112,-68,43,90,-78,-12,39,39,-73,-151,312,-185
-112,-68,43,90,-78,-12,39,39,-53,-151,312,-185
-112,-58,53,85,-82,-2,53,39,-53,-126,312,-180
-112,-48,63,80,-87,7,53,39,-43,-117,322,-175
-112,-48,63,80,-87,7,53,43,-34,-117,326,-170
-107,-53,53,80,-80,0,48,39,-34,-117,326,-170
-92,-48,43,70,-68,-2,53,48,-39,-122,326,-170
-92,-48,43,70,-68,-2,53,48,-39,-122,331,-170
-97,-48,48,73,-73,0,58,58,-34,-122,331,-170
-102,-48,53,75,-78,2,58,63,-34,-112,331,-170
-107,-53,53,80,-80,0,43,53,-24,-107,341,-165
-102,-48,53,75,-78,2,43,58,-19,-107,346,-165
-97,-34,63,65,-80,14,43,58,-19,-102,346,-161
-102,-39,63,70,-82,12,34,58,-19,-92,346,-156
-92,-39,53,65,-73,7,34,58,-19,-97,346,-156
-92,-43,48,68,-70,2,34,68,-19,-97,351,-146
-102,-43,58,73,-80,7,34,73,-14,-92,351,-146
-102,-43,58,73,-80,7,39,73,-14,-87,351,-136
-82,-43,39,63,-61,-2,39,68,-19,-87,361,-126
-82,-43,39,63,-61,-2,39,68,-19,-82,366,-126
-82,-39,43,61,-63,2,39,73,-24,-82,366,-126
-82,-29,53,56,-68,12,39,73,-24,-82,370,-126
-68,-19,48,43,-58,14,29,78,-24,-82,375,-117
-58,-19,39,39,-48,9,19,78,-24,-78,375,-122
-58,-24,34,41,-46,4,9,73,-24,-78,370,-122
-58,-29,29,43,-43,0,0,73,-29,-78,370,-117
-48,-29,19,39,-34,-4,-4,73,-39,-78,380,-122
-39,-24,14,31,-26,-4,-4,73,-29,-73,385,-122
-34,-24,9,29,-21,-7,-4,68,-24,-73,385,-112
-34,-14,19,24,-26,2,-4,58,-24,-68,390,-107
-34,-14,19,24,-26,2,-14,63,-24,-73,395,-97
-34,-19,14,26,-24,-2,-19,58,-24,-68,395,-97
-39,-24,14,31,-26,-4,-24,58,-29,-68,395,-92
-48,-29,19,39,-34,-4,-24,58,-29,-68,400,-87
-39,-24,14,31,-26,-4,-19,58,-29,-63,409,-78
-34,-19,14,26,-24,-2,-29,53,-29,-63,414,-73
-34,-14,19,24,-26,2,-29,48,-34,-73,414,-68
-34,-9,24,21,-29,7,-24,48,-34,-73,419,-63
-24,-4,19,14,-21,7,-24,43,-29,-63,419,-53
-24,0,24,12,-24,12,-34,39,-24,-58,424,-48
-24,4,29,9,-26,17,-39,39,-29,-63,424,-43
-24,19,43,2,-34,31,-39,39,-34,-48,429,-34
-39,14,53,12,-46,34,-53,29,-34,-53,429,-34
-43,9,53,17,-48,31,-53,14,-43,-53,434,-34
-43,24,68,9,-56,46,-48,4,-43,-63,434,-29
-39,19,58,9,-48,39,-63,-4,-48,-68,434,-29
-29,19,48,4,-39,34,-63,0,-58,-63,444,-19
-19,24,43,-2,-31,34,-63,-9,-58,-63,444,-14
-9,34,43,-12,-26,39,-68,-9,-58,-63,448,-14
4,39,34,-21,-14,36,-68,-24,-63,-58,448,-14
-9,29,39,-9,-24,34,-68,-24,-58,-63,458,-4
-19,29,48,-4,-34,39,-68,-24,-63,-58,458,-4
-48,39,87,4,-68,63,-68,-29,-63,-58,463,-4
-43,48,92,-2,-68,70,-73,-29,-63,-58,463,0
-29,53,82,-12,-56,68,-73,-24,-58,-53,473,0
-24,53,78,-14,-51,65,-73,-34,-58,-53,468,-4
-19,53,73,-17,-46,63,-68,-39,-53,-58,468,-4
-14,53,68,-19,-41,61,-63,-34,-48,-53,478,-4
-34,39,73,-2,-53,56,-58,-24,-53,-48,468,-4
-39,29,68,4,-53,48,-48,-24,-48,-43,463,-4
-43,24,68,9,-56,46,-58,-24,-39,-43,458,-14
-53,19,73,17,-63,46,-58,-24,-29,-39,458,-19
-48,24,73,12,-61,48,-43,-14,-24,-48,453,-29
-58,29,87,14,-73,58,-43,-14,-29,-48,448,-29
-63,14,78,24,-70,46,-39,-14,-29,-48,448,-34
-68,9,78,29,-73,43,-39,-9,-34,-48,444,-34
-58,19,78,19,-68,48,-19,-4,-24,-48,444,-43
-58,19,78,19,-68,48,-14,4,-19,-43,429,-39
-58,19,78,19,-68,48,-14,9,-19,-43,419,-39
-53,24,78,14,-65,51,-14,9,-19,-43,419,-39
-63,24,87,19,-75,56,9,29,-14,-48,419,-48
-82,9,92,36,-87,51,9,29,-14,-58,414,-53
-82,4,87,39,-85,46,9,24,-14,-58,405,-53
-73,4,78,34,-75,41,24,24,-4,-48,405,-53
-82,-9,73,46,-78,31,24,29,-9,-53,395,-63
-102,-19,82,61,-92,31,19,29,-9,-58,390,-78
-102,-24,78,63,-90,26,14,29,-9,-58,385,-82
-107,-24,82,65,-95,29,19,29,0,-63,380,-82
-107,-14,92,61,-100,39,39,39,-4,-68,375,-73
-107,-14,92,61,-100,39,43,43,-4,-68,375,-82
-107,-19,87,63,-97,34,53,43,-4,-68,375,-87
-107,-19,87,63,-97,34,68,43,-4,-68,366,-87
-112,-14,97,63,-104,41,68,53,9,-68,370,-92
-112,-9,102,61,-107,46,68,53,9,-73,366,-92
-122,-14,107,68,-114,46,68,43,9,-73,366,-92
-122,-24,97,73,-109,36,68,34,9,-73,366,-97
-112,-29,82,70,-97,26,53,43,9,-78,370,-87
-122,-24,97,73,-109,36,53,43,9,-73,370,-92
-122,-29,92,75,-107,31,58,48,14,-68,370,-92
-122,-24,97,73,-109,36,63,58,14,-68,370,-92
-112,-14,97,63,-104,41,63,48,4,-82,356,-78
-117,-24,92,70,-104,34,63,48,4,-82,346,-78
-126,-24,102,75,-114,39,58,53,4,-82,346,-82
-126,-24,102,75,-114,39,58,53,4,-87,346,-87
-107,-24,82,65,-95,29,68,43,4,-82,356,-78
-107,-24,82,65,-95,29,73,43,-9,-82,356,-82
-102,-14,87,58,-95,36,73,48,-9,-82,356,-82
-102,-9,92,56,-97,41,73,48,-14,-82,351,-82
-107,-24,82,65,-95,29,63,48,-4,-92,341,-87
-122,-29,92,75,-107,31,68,48,0,-97,341,-87
-122,-34,87,78,-104,26,68,53,0,-97,341,-82
-112,-39,73,75,-92,17,68,58,0,-97,341,-87
-112,-29,82,70,-97,26,63,58,0,-92,341,-87
-117,-29,87,73,-102,29,73,58,0,-92,336,-92
-141,-34,107,87,-124,36,78,53,-4,-92,336,-97
-146,-34,112,90,-129,39,78,53,-4,-102,336,-102
-131,-29,102,80,-117,36,82,53,-14,-102,336,-97
-126,-29,97,78,-112,34,82,53,-14,-97,331,-107
-122,-29,92,75,-107,31,73,58,-14,-97,331,-112
-122,-24,97,73,-109,36,63,73,0,-97,331,-122
-107,-14,92,61,-100,39,73,68,-4,-102,322,-112
-102,-19,82,61,-92,31,73,63,-4,-102,322,-117
-102,-24,78,63,-90,26,73,58,-4,-102,322,-117
-102,-29,73,65,-87,21,73,53,0,-102,322,-112
-126,-19,107,73,-117,43,82,73,19,-87,341,-82
-156,-9,146,82,-151,68,87,87,29,-78,351,-68
-151,-9,141,80,-146,65,78,78,29,-78,341,-73
-146,-9,136,78,-141,63,78,78,29,-78,341,-78
-141,-9,131,75,-136,61,78,78,29,-78,341,-82
-136,-9,126,73,-131,58,78,78,29,-78,341,-87
-131,-19,112,75,-122,46,82,73,34,-92,326,-97
-131,-24,107,78,-119,41,82,68,34,-92,326,-97
-131,-24,107,78,-119,41,73,68,34,-92,326,-97
-126,-29,97,78,-112,34,73,73,34,-97,326,-92
-97,-4,92,51,-95,43,73,92,43,-97,322,-102
-92,-4,87,48,-90,41,73,92,39,-97,322,-102
-87,-14,73,51,-80,29,73,92,34,-97,312,-102
-78,-14,63,46,-70,24,73,92,29,-97,312,-97
-78,-19,58,48,-68,19,73,78,24,-92,312,-92
-78,-14,63,46,-70,24,82,87,29,-92,317,-92
-82,-14,68,48,-75,26,97,87,34,-97,322,-92
-87,0,87,43,-87,43,107,92,39,-97,322,-92
-92,-9,82,51,-87,36,97,87,43,-102,317,-97
-97,-14,82,56,-90,34,92,92,43,-97,317,-97
-97,-14,82,56,-90,34,78,87,43,-97,317,-97
-102,-14,87,58,-95,36,68,87,43,-102,317,-97
-102,-14,87,58,-95,36,73,82,29,-97,326,-102
-102,-9,92,56,-97,41,87,78,34,-102,322,-97
-97,0,97,48,-97,48,87,78,34,-102,317,-97
-97,19,117,39,-107,68,87,68,29,-107,322,-97
-73,9,82,31,-78,46,73,58,29,-112,307,-112
-68,0,68,34,-68,34,63,48,9,-117,302,-117
-73,0,73,36,-73,36,43,34,0,-131,302,-117
-87,-9,78,48,-82,34,29,24,-9,-146,297,-122
-92,0,92,46,-92,46,29,14,-34,-161,283,-126
-97,-14,82,56,-90,34,4,-4,-48,-180,273,-136
-87,-34,53,61,-70,9,-14,-29,-68,-195,263,-141
-82,-29,53,56,-68,12,-19,-63,-92,-209,253,-146
-73,-14,58,43,-65,21,-14,-73,-97,-214,263,-141
-92,-9,82,51,-87,36,-4,-63,-97,-209,258,-146
-92,-4,87,48,-90,41,-4,-68,-97,-209,248,-146
-97,0,97,48,-97,48,9,-63,-97,-209,244,-141
-92,9,102,41,-97,56,19,-58,-97,-200,253,-136
-92,24,117,34,-104,70,24,-58,-87,-195,258,-131
-87,34,122,26,-104,78,34,-58,-87,-190,263,-126
-82,43,126,19,-104,85,48,-53,-87,-185,268,-122
-87,53,141,17,-114,97,58,-48,-87,-175,273,-117
-92,58,151,17,-122,104,63,-43,-87,-175,278,-117
-97,58,156,19,-126,107,63,-34,-87,-170,278,-117
-102,58,161,21,-131,109,73,-29,-82,-170,278,-112
-97,73,170,12,-134,122,82,-19,-73,-161,283,-97
-87,97,185,-4,-136,141,92,-14,-73,-146,287,-82
-97,87,185,4,-141,136,102,-9,-73,-156,292,-82
-97,92,190,2,-143,141,112,0,-73,-151,302,-82
-97,82,180,7,-139,131,136,9,-53,-141,312,-73
-102,63,165,19,-134,114,156,19,-48,-136,307,-82
-107,53,161,26,-134,107,185,29,-48,-131,297,-87
-117,48,165,34,-141,107,214,48,-29,-126,297,-87
-97,43,141,26,-119,92,224,53,-9,-117,297,-97
-82,43,126,19,-104,85,229,53,-29,-126,292,-102
-68,39,107,14,-87,73,244,48,-34,-131,283,-102
-48,39,87,4,-68,63,248,39,-43,-141,283,-112
-53,39,92,7,-73,65,229,43,-29,-136,287,-97
-58,43,102,7,-80,73,219,43,-24,-126,297,-97
-68,53,122,7,-95,87,214,43,-19,-117,302,-87
-87,58,146,14,-117,102,204,43,-14,-107,312,-73
-92,43,136,24,-114,90,180,43,-14,-107,312,-73
-97,29,126,34,-112,78,175,39,-14,-107,307,-73
-107,29,136,39,-122,82,175,39,-14,-107,307,-73
-112,39,151,36,-131,95,175,39,-14,-112,307,-73
-82,48,131,17,-107,90,161,34,-29,-122,302,-73
-68,43,112,12,-90,78,156,34,-29,-131,297,-78
-58,39,97,9,-78,68,151,34,-34,-131,292,-78
-43,39,82,2,-63,61,146,34,-34,-131,287,-78
-53,29,82,12,-68,56,131,29,-29,-131,292,-82
-58,34,92,12,-75,63,131,19,-34,-141,292,-82
-53,34,87,9,-70,61,136,9,-43,-141,292,-82
-58,34,92,12,-75,63,136,4,-48,-141,287,-82
-68,19,87,24,-78,53,117,-9,-58,-151,273,-97
-73,9,82,31,-78,46,102,-9,-68,-161,268,-102
-73,0,73,36,-73,36,87,-14,-82,-170,263,-107
-73,-19,53,46,-63,17,73,-29,-92,-180,258,-112
-43,-9,34,26,-39,12,63,-9,-87,-190,268,-112
-53,-4,48,29,-51,21,78,-19,-87,-180,263,-102
-73,-4,68,39,-70,31,82,-9,-78,-170,253,-92
-73,-9,63,41,-68,26,82,-19,-92,-190,244,-107
-68,-29,39,48,-53,4,102,-19,-112,-214,224,-141
-73,-43,29,58,-51,-7,117,-9,-112,-224,200,-161
-102,-68,34,85,-68,-17,117,9,-112,-229,180,-170
-126,-78,48,102,-87,-14,122,24,-87,-219,185,-175
-122,-63,58,92,-90,-2,131,19,-63,-180,219,-146
-107,-63,43,85,-75,-9,117,0,-43,-151,258,-126
-107,-58,48,82,-78,-4,87,-24,-34,-117,312,-87
-63,-24,39,43,-51,7,78,-19,9,-53,405,-24
34,14,-19,-24,26,-2,63,29,73,39,522,68
141,34,-107,-87,124,-36,43,126,146,156,653,170
239,58,-180,-148,209,-61,29,258,244,283,819,292
370,102,-268,-236,319,-82,-4,361,336,419,961,419
488,170,-317,-329,402,-73,-63,419,419,522,1088,527
570,258,-312,-414,441,-26,-141,400,488,590,1171,614
624,375,-248,-500,436,63,-244,248,492,590,1205,697
610,536,-73,-573,341,231,-336,-58,409,522,1171,746
512,683,170,-597,170,427,-390,-483,195,317,995,727
322,790,468,-556,-73,629,-424,-1000,-117,-4,707,634
117,819,702,-468,-292,761,-458,-1483,-463,-341,405,502
-48,780,829,-366,-439,805,-497,-1834,-727,-580,195,400
-165,717,883,-275,-524,800,-478,-1981,-883,-707,82,302
-287,692,980,-202,-634,836,-405,-1961,-936,-736,34,234
-351,697,1049,-173,-700,873,-336,-1844,-883,-707,43,204
-351,668,1019,-158,-685,844,-336,-1703,-854,-688,43,161
-317,570,888,-126,-602,729,-356,-1561,-849,-702,14,82
-278,468,746,-95,-512,607,-331,-1371,-805,-683,9,39
-224,405,629,-90,-427,517,-273,-1132,-717,-634,48,34
-170,341,512,-85,-341,427,-195,-893,-610,-556,82,9
-117,248,366,-65,-241,307,-141,-683,-517,-492,102,-29
-87,165,253,-39,-170,209,-107,-502,-429,-439,112,-63
-73,117,190,-21,-131,153,-53,-375,-351,-395,146,-63
-68,102,170,-17,-119,136,-9,-268,-268,-341,175,-58
-73,68,141,2,-107,104,29,-195,-204,-292,200,-58
-82,29,112,26,-97,70,63,-151,-180,-258,224,-63
-73,19,92,26,-82,56,78,-126,-165,-234,234,-63
-58,19,78,19,-68,48,68,-107,-146,-219,244,-58
-58,39,97,9,-78,68,68,-68,-131,-200,258,-39
-63,39,102,12,-82,70,87,-53,-131,-204,258,-48
-73,14,87,29,-80,51,87,-43,-146,-209,244,-68
-78,9,87,34,-82,48,92,-29,-136,-214,239,-78
-73,0,73,36,-73,36,97,-24,-131,-219,239,-87
-78,-14,63,46,-70,24,112,-24,-136,-219,239,-107
-78,-29,48,53,-63,9,122,-29,-141,-229,229,-117
-78,-34,43,56,-61,4,117,-29,-141,-219,234,-122
-78,-34,43,56,-61,4,112,-24,-136,-214,239,-122
-87,-34,53,61,-70,9,102,-14,-136,-209,239,-117
-68,-34,34,51,-51,0,102,-4,-126,-209,239,-126
-63,-39,24,51,-43,-7,97,0,-131,-214,239,-136
-63,-39,24,51,-43,-7,97,4,-131,-214,239,-141
-63,-39,24,51,-43,-7,107,19,-131,-209,239,-141
-58,-29,29,43,-43,0,112,9,-122,-190,248,-131
-58,-39,19,48,-39,-9,112,0,-122,-190,248,-126
-58,-39,19,48,-39,-9,112,-9,-122,-190,248,-122
-48,-34,14,41,-31,-9,107,-9,-122,-185,248,-122
-29,-34,-4,31,-12,-19,102,4,-112,-190,248,-131
-29,-34,-4,31,-12,-19,102,9,-112,-195,244,-136
-29,-34,-4,31,-12,-19,102,19,-117,-200,239,-141
-24,-34,-9,29,-7,-21,102,19,-117,-209,234,-151
-24,-24,0,24,-12,-12,122,9,-117,-204,244,-161
-24,-24,0,24,-12,-12,136,19,-112,-190,244,-141
-24,-24,0,24,-12,-12,146,24,-117,-185,248,-136
-24,-24,0,24,-12,-12,156,24,-112,-185,248,-131
-48,-34,14,41,-31,-9,136,34,-102,-185,244,-131
-58,-39,19,48,-39,-9,136,39,-97,-185,244,-131
-63,-43,19,53,-41,-12,136,39,-97,-190,244,-131
-68,-53,14,61,-41,-19,136,29,-102,-190,244,-131
-63,-58,4,61,-34,-26,146,29,-97,-200,248,-126
-58,-58,0,58,-29,-29,146,29,-87,-195,248,-122
-53,-63,-9,58,-21,-36,146,29,-73,-195,248,-117
-39,-63,-24,51,-7,-43,146,29,-68,-195,248,-122
-43,-58,-14,51,-14,-36,136,29,-43,-204,239,-131
-39,-53,-14,46,-12,-34,136,29,-53,-204,239,-131
-29,-58,-29,43,0,-43,131,34,-58,-204,239,-136
-43,-63,-19,53,-12,-41,131,39,-63,-204,244,-136
-43,-68,-24,56,-9,-46,141,48,-53,-195,244,-146
-43,-68,-24,56,-9,-46,131,48,-48,-195,244,-131
-43,-58,-14,51,-14,-36,146,43,-39,-195,253,-122
-34,-58,-24,46,-4,-41,146,43,-34,-190,253,-117
-29,-48,-19,39,-4,-34,151,53,-43,-190,253,-117
-24,-48,-24,36,0,-36,146,53,-48,-190,253,-112
-19,-48,-29,34,4,-39,141,58,-43,-190,253,-112
-34,-58,-24,46,-4,-41,141,58,-39,-190,253,-112
-48,-58,-9,53,-19,-34,141,73,-29,-190,248,-102
-43,-58,-14,51,-14,-36,146,73,-29,-190,248,-87
-43,-63,-19,53,-12,-41,151,73,-24,-185,248,-73
-48,-63,-14,56,-17,-39,156,73,-19,-175,253,-58
-39,-53,-14,46,-12,-34,156,73,-29,-165,263,-48
-43,-53,-9,48,-17,-31,156,73,-34,-170,263,-53
-43,-43,0,43,-21,-21,156,78,-34,-170,268,-53
-39,-43,-4,41,-17,-24,161,78,-34,-161,273,-48
-29,-34,-4,31,-12,-19,170,82,-43,-151,263,-43
-29,-43,-14,36,-7,-29,170,92,-43,-156,263,-39
-29,-34,-4,31,-12,-19,170,97,-43,-156,263,-34
-24,-34,-9,29,-7,-21,170,102,-43,-156,278,-24
-29,-48,-19,39,-4,-34,175,102,-58,-151,287,-14
-34,-48,-14,41,-9,-31,180,112,-53,-141,287,-9
-39,-39,0,39,-19,-19,185,122,-58,-141,292,-9
-48,-39,9,43,-29,-14,190,122,-63,-151,292,-9
-53,-48,4,51,-29,-21,180,112,-78,-146,283,0
-53,-48,4,51,-29,-21,180,122,-73,-136,287,0
-43,-48,-4,46,-19,-26,175,126,-78,-126,292,0
-43,-48,-4,46,-19,-26,175,126,-63,-122,292,0
-53,-39,14,46,-34,-12,180,131,-68,-107,302,9
-53,-29,24,41,-39,-2,180,136,-63,-97,312,19
-53,-29,24,41,-39,-2,180,146,-58,-97,317,29
-48,-34,14,41,-31,-9,175,146,-63,-97,317,34
-39,-24,14,31,-26,-4,161,156,-63,-82,326,34
-34,-29,4,31,-19,-12,161,156,-58,-82,331,34
-34,-34,0,34,-17,-17,165,165,-48,-82,331,34
-34,-39,-4,36,-14,-21,165,170,-43,-73,331,34
-48,-43,4,46,-26,-19,165,170,-34,-68,341,39
-43,-39,4,41,-24,-17,170,175,-29,-68,346,39
-39,-24,14,31,-26,-4,175,175,-29,-63,346,43
-43,-29,14,36,-29,-7,170,175,-29,-53,346,48
-39,-19,19,29,-29,0,170,185,-24,-48,356,58
-34,-24,9,29,-21,-7,170,195,-19,-48,361,68
-39,-24,14,31,-26,-4,170,200,-9,-43,361,68
-34,-24,9,29,-21,-7,175,200,-4,-39,361,78
-19,-34,-14,26,-2,-24,175,200,0,-39,366,87
-14,-34,-19,24,2,-26,175,204,9,-34,375,87
-9,-29,-19,19,4,-24,175,214,14,-34,380,87
-4,-19,-14,12,4,-17,175,219,24,-34,390,87
9,-9,-19,0,14,-14,165,229,29,-24,405,102
19,-9,-29,-4,24,-19,156,234,34,-19,405,102
19,-14,-34,-2,26,-24,146,234,39,-19,400,107
19,-19,-39,0,29,-29,136,239,39,-19,400,117
19,-29,-48,4,34,-39,141,244,48,-19,409,126
29,-24,-53,-2,41,-39,141,248,58,-14,414,131
34,-24,-58,-4,46,-41,141,248,63,-14,414,146
34,-14,-48,-9,41,-31,141,244,63,-9,419,156
53,9,-43,-31,48,-17,136,248,63,-14,434,156
63,9,-53,-36,58,-21,126,244,63,-9,434,156
68,9,-58,-39,63,-24,117,244,58,-9,434,161
68,9,-58,-39,63,-24,112,244,58,-9,439,165
82,24,-58,-53,70,-17,122,234,58,-4,448,180
92,29,-63,-61,78,-17,107,229,58,-4,453,180
97,34,-63,-65,80,-14,102,224,53,-14,453,180
102,39,-63,-70,82,-12,102,224,53,-14,458,180
87,34,-53,-61,70,-9,112,209,63,-9,468,190
82,29,-53,-56,68,-12,102,204,63,-9,473,195
78,24,-53,-51,65,-14,97,204,53,-19,473,200
73,29,-43,-51,58,-7,97,204,43,-9,478,209
68,24,-43,-46,56,-9,87,204,53,-4,478,219
63,19,-43,-41,53,-12,92,190,43,-4,483,219
63,34,-29,-48,46,2,102,180,43,-14,483,224
68,29,-39,-48,53,-4,92,170,39,-19,483,224
73,39,-34,-56,53,2,92,165,24,-19,483,224
78,43,-34,-61,56,4,92,156,29,-14,483,229
82,53,-29,-68,56,12,87,156,34,-9,488,229
92,58,-34,-75,63,12,87,141,34,0,488,229
73,39,-34,-56,53,2,87,141,19,-9,483,219
58,29,-29,-43,43,0,87,141,14,-9,478,219
24,29,4,-26,9,17,87,136,14,-14,478,219
24,29,4,-26,9,17,82,136,14,-19,473,224
29,19,-9,-24,19,4,97,126,14,-29,463,219
24,14,-9,-19,17,2,102,112,9,-34,448,209
19,9,-9,-14,14,0,112,102,9,-43,439,204
14,4,-9,-9,12,-2,122,102,9,-43,439,200
9,19,9,-14,0,14,131,112,-9,-43,434,204
19,19,0,-19,9,9,146,112,-9,-43,424,200
29,24,-4,-26,17,9,141,112,-4,-48,414,185
34,29,-4,-31,19,12,146,112,0,-48,409,175
24,29,4,-26,9,17,156,112,0,-48,405,175
9,29,19,-19,-4,24,161,112,0,-48,400,175
0,9,9,-4,-4,9,170,112,4,-48,400,170
-9,0,9,4,-9,4,175,117,4,-48,395,170
-19,0,19,9,-19,9,185,112,0,-53,375,165
-29,0,29,14,-29,14,190,112,0,-53,361,165
-39,0,39,19,-39,19,190,107,-4,-58,351,161
-43,4,48,19,-46,26,190,97,-9,-63,351,156
-34,-4,29,19,-31,12,200,92,-14,-78,351,151
-53,-19,34,36,-43,7,195,87,-14,-87,346,141
-53,-24,29,39,-41,2,190,78,-14,-87,336,136
-43,-24,19,34,-31,-2,200,73,-4,-78,336,131
-29,-19,9,24,-19,-4,204,68,-14,-87,331,126
-43,-19,24,31,-34,2,204,68,-19,-87,331,117
-39,-14,24,26,-31,4,204,68,-24,-82,331,117
-39,-4,34,21,-36,14,214,68,-19,-82,331,122
-53,-9,43,31,-48,17,204,58,-14,-78,326,131
-58,-14,43,36,-51,14,200,63,-14,-78,326,122
-63,-24,39,43,-51,7,200,63,-14,-78,326,117
-68,-29,39,48,-53,4,204,63,-14,-78,317,117
-63,-19,43,41,-53,12,214,68,0,-68,322,131
-63,-9,53,36,-58,21,214,73,0,-73,317,131
-73,-9,63,41,-68,26,214,68,0,-73,317,131
-73,-14,58,43,-65,21,214,63,0,-73,317,126
-68,-14,53,41,-61,19,209,63,0,-73,317,126
-73,-14,58,43,-65,21,209,63,0,-73,312,122
-68,-24,43,46,-56,9,214,68,4,-73,307,122
-63,-24,39,43,-51,7,219,78,4,-78,302,122
-53,-24,29,39,-41,2,219,68,-4,-73,307,117
-58,-34,24,46,-41,-4,219,68,-4,-73,297,117
-68,-34,34,51,-51,0,214,73,-4,-73,297,112
-68,-34,34,51,-51,0,214,73,-4,-78,297,107
-58,-39,19,48,-39,-9,224,73,4,-73,287,107
-58,-34,24,46,-41,-4,229,73,-9,-73,287,102
-53,-19,34,36,-43,7,229,78,-9,-73,287,102
-53,-9,43,31,-48,17,229,78,-14,-73,283,102
-58,-19,39,39,-48,9,229,78,-9,-82,287,102
-73,-19,53,46,-63,17,234,78,0,-87,292,107
-73,-19,53,46,-63,17,234,82,4,-87,297,117
-63,-19,43,41,-53,12,234,87,9,-87,302,117
-68,-29,39,48,-53,4,224,87,9,-82,292,107
-68,-29,39,48,-53,4,229,87,9,-82,287,102
-87,-34,53,61,-70,9,229,82,4,-82,287,97
-87,-34,53,61,-70,9,224,82,4,-92,287,92
-73,-29,43,51,-58,7,239,82,9,-92,287,97
-68,-29,39,48,-53,4,239,82,14,-87,283,87
-63,-29,34,46,-48,2,229,87,19,-87,283,82
-63,-24,39,43,-51,7,219,102,39,-87,283,73
-48,-14,34,31,-41,9,229,92,43,-82,283,82
-43,-19,24,31,-34,2,229,92,43,-82,283,78
-43,-24,19,34,-31,-2,229,92,43,-82,283,78
-43,-29,14,36,-29,-7,229,92,48,-82,283,82
-48,-29,19,39,-34,-4,239,102,39,-78,292,73
-58,-24,34,41,-46,4,248,112,48,-73,292,73
-58,-9,48,34,-53,19,248,112,53,-73,297,82
-48,-9,39,29,-43,14,248,112,53,-73,297,87
-48,-14,34,31,-41,9,248,117,48,-78,287,87
-53,-9,43,31,-48,17,248,122,48,-78,287,82
-58,-29,29,43,-43,0,248,122,53,-78,287,82
-63,-48,14,56,-39,-17,248,122,53,-73,287,78
-48,-14,34,31,-41,9,239,112,48,-78,287,87
-48,-14,34,31,-41,9,244,112,43,-78,287,87
-48,-9,39,29,-43,14,244,112,43,-82,287,87
-48,-9,39,29,-43,14,244,107,53,-87,287,87
-39,-14,24,26,-31,4,239,107,53,-92,292,92
-29,-14,14,21,-21,0,239,107,48,-92,283,92
-29,-14,14,21,-21,0,244,107,48,-92,283,87
-29,-14,14,21,-21,0,244,117,43,-87,283,87
-34,0,34,17,-34,17,239,117,39,-97,273,87
-34,0,34,17,-34,17,234,102,39,-87,283,92
-39,-9,29,24,-34,9,234,102,34,-87,283,97
-39,-9,29,24,-34,9,239,102,34,-87,283,102
-24,-4,19,14,-21,7,234,102,29,-97,283,92
-19,-4,14,12,-17,4,229,102,24,-97,283,97
-14,-4,9,9,-12,2,224,97,19,-92,283,102
0,-9,-9,4,4,-9,219,87,14,-92,283,107
-19,-24,-4,21,-7,-14,224,87,4,-112,292,102
-29,-34,-4,31,-12,-19,229,87,4,-112,292,102
-19,-19,0,19,-9,-9,229,87,4,-107,292,102
-14,-19,-4,17,-4,-12,229,78,4,-107,287,102
-34,-9,24,21,-29,7,234,87,14,-92,287,97
-43,-24,19,34,-31,-2,234,87,9,-102,287,102
-53,-39,14,46,-34,-12,234,87,4,-112,287,107
-63,-39,24,51,-43,-7,229,78,0,-107,287,107
-53,-24,29,39,-41,2,219,82,0,-97,287,102
-43,-19,24,31,-34,2,219,82,-4,-97,287,102
-39,-9,29,24,-34,9,219,78,-4,-97,283,102
-34,-9,24,21,-29,7,224,73,-9,-102,278,102
-19,-19,0,19,-9,-9,219,68,-9,-117,278,97
-14,-19,-4,17,-4,-12,214,63,-14,-117,283,92
-9,-9,0,9,-4,-4,209,58,-14,-117,283,92
-9,-9,0,9,-4,-4,209,53,-9,-112,287,92
-19,-14,4,17,-12,-4,209,53,-9,-112,287,87
-19,-14,4,17,-12,-4,209,53,-9,-112,287,87
-19,-14,4,17,-12,-4,209,53,-19,-112,278,92
-24,-14,9,19,-17,-2,209,53,-19,-112,278,107
-29,-14,14,21,-21,0,209,58,-9,-112,292,112
-34,-14,19,24,-26,2,209,58,-4,-107,292,112
-48,-14,34,31,-41,9,209,53,0,-102,292,117
-53,-14,39,34,-46,12,214,53,0,-102,287,122
-43,-24,19,34,-31,-2,214,53,-19,-107,278,112
-43,-24,19,34,-31,-2,214,48,-19,-112,278,102
-43,-24,19,34,-31,-2,219,43,-19,-112,278,102
-43,-19,24,31,-34,2,224,43,-14,-107,283,112
-53,-14,39,34,-46,12,214,53,-19,-107,283,117
-53,-14,39,34,-46,12,219,39,-24,-107,283,117
-48,-24,24,36,-36,0,214,24,-29,-107,273,122
-29,-14,14,21,-21,0,214,19,-34,-107,273,43
-9,4,14,2,-12,9,209,29,-24,-107,273,4
-4,4,9,0,-7,7,209,29,-24,-107,273,34
0,4,4,-2,-2,4,209,29,-24,-102,273,68
4,4,0,-4,2,2,214,34,-24,-102,278,107
-4,0,4,2,-4,2,214,34,-34,-107,278,122
-9,-4,4,7,-7,0,214,29,-39,-112,273,122
-9,-9,0,9,-4,-4,214,29,-43,-122,263,122
-29,-14,14,21,-21,0,204,34,-48,-126,253,122
-39,-9,29,24,-34,9,195,34,-39,-117,263,122
-39,-9,29,24,-34,9,195,29,-43,-117,263,122
-39,-9,29,24,-34,9,195,29,-43,-126,263,117
-43,-14,29,29,-36,7,195,24,-48,-126,253,117
-39,-24,14,31,-26,-4,195,34,-58,-122,248,122
-34,-24,9,29,-21,-7,195,29,-63,-122,244,117
-29,-29,0,29,-14,-14,200,24,-68,-126,239,112
-29,-29,0,29,-14,-14,204,24,-68,-126,224,112
-34,-29,4,31,-19,-12,200,19,-63,-122,234,117
-39,-29,9,34,-24,-9,200,24,-58,-122,239,122
-39,-24,14,31,-26,-4,204,24,-58,-122,244,126
-43,-24,19,34,-31,-2,204,19,-63,-122,244,131
-39,-29,9,34,-24,-9,204,29,-68,-112,244,122
-29,-24,4,26,-17,-9,204,29,-68,-112,229,122
-14,-14,0,14,-7,-7,200,29,-68,-117,229,122
-4,-9,-4,7,0,-7,195,24,-68,-117,224,117
-19,-24,-4,21,-7,-14,190,14,-63,-122,234,122
-24,-29,-4,26,-9,-17,190,14,-63,-126,229,117
-29,-29,0,29,-14,-14,195,14,-63,-131,229,117
-34,-24,9,29,-21,-7,214,14,-68,-131,224,117
-34,-14,19,24,-26,2,219,19,-58,-126,229,122
-24,-9,14,17,-19,2,214,19,-58,-126,229,122
-24,-9,14,17,-19,2,209,19,-63,-126,234,126
-24,-19,4,21,-14,-7,209,19,-63,-122,239,131
-14,-9,4,12,-9,-2,204,19,-68,-131,234,122
0,-9,-9,4,4,-9,190,19,-68,-131,234,122
9,-9,-19,0,14,-14,180,19,-68,-136,234,122
9,-19,-29,4,19,-24,175,19,-68,-136,229,122
-9,-24,-14,17,2,-19,190,19,-63,-136,229,126
-4,-24,-19,14,7,-21,200,19,-63,-136,224,126
-24,-24,0,24,-12,-12,185,19,-63,-136,224,126
-58,-24,34,41,-46,4,190,19,-63,-136,224,126
-39,-24,14,31,-26,-4,190,19,-63,-131,234,136
-24,-19,4,21,-14,-7,190,14,-68,-126,234,131
-9,-9,0,9,-4,-4,190,9,-68,-122,234,131
0,-4,-4,2,2,-4,190,9,-68,-117,239,131
-19,-9,9,14,-14,0,190,9,-78,-126,234,131
-19,-14,4,17,-12,-4,190,9,-82,-126,229,131
-9,-14,-4,12,-2,-9,190,0,-82,-126,219,126
-4,-9,-4,7,0,-7,195,9,-82,-122,214,126
-4,-9,-4,7,0,-7,204,19,-73,-117,219,131
-9,-9,0,9,-4,-4,204,19,-73,-126,219,131
-9,-9,0,9,-4,-4,204,14,-73,-122,224,136
-9,-9,0,9,-4,-4,204,14,-73,-117,234,141
-14,-9,4,12,-9,-2,204,14,-73,-122,224,146
-14,-4,9,9,-12,2,200,19,-73,-122,229,146
-9,-4,4,7,-7,0,200,19,-73,-122,229,151
-9,-9,0,9,-4,-4,200,19,-82,-122,229,151
0,-9,-9,4,4,-9,195,19,-82,-122,229,141
0,-14,-14,7,7,-14,190,19,-78,-122,229,141
0,-14,-14,7,7,-14,175,19,-73,-122,224,131
0,-9,-9,4,4,-9,165,9,-73,-122,224,131
0,4,4,-2,-2,4,161,29,-58,-117,234,141
-4,4,9,0,-7,7,165,29,-58,-107,229,146
-14,-4,9,9,-12,2,170,29,-63,-102,229,151
-14,-4,9,9,-12,2,185,29,-63,-97,229,156
-24,-14,9,19,-17,-2,175,19,-63,-112,219,151
-24,-19,4,21,-14,-7,185,19,-63,-117,224,151
-19,-19,0,19,-9,-9,190,19,-63,-117,224,151
-14,-19,-4,17,-4,-12,190,19,-63,-117,224,151
-19,-29,-9,24,-4,-19,190,29,-73,-112,224,151
-19,-19,0,19,-9,-9,195,34,-73,-112,224,156
-24,-19,4,21,-14,-7,195,34,-73,-112,224,156
-29,-19,9,24,-19,-4,185,29,-82,-117,224,146
-19,-29,-9,24,-4,-19,180,19,-73,-126,214,136
-14,-29,-14,21,0,-21,180,19,-78,-126,214,141
-9,-29,-19,19,4,-24,180,19,-78,-122,214,141
0,-29,-29,14,14,-29,180,24,-78,-122,214,136
19,-9,-29,-4,24,-19,180,24,-78,-117,214,136
9,-9,-19,0,14,-14,180,29,-78,-117,214,141
-4,-9,-4,7,0,-7,185,34,-78,-112,219,141
4,-9,-14,2,9,-12,185,34,-73,-112,219,141
-4,-9,-4,7,0,-7,195,29,-78,-112,219,141
-19,-19,0,19,-9,-9,204,29,-73,-107,219,141
-19,-19,0,19,-9,-9,204,34,-58,-102,224,151
-9,-9,0,9,-4,-4,200,43,-43,-97,229,151
-14,-14,0,14,-7,-7,195,39,-58,-107,229,141
-14,-19,-4,17,-4,-12,195,34,-63,-107,229,141
-14,-24,-9,19,-2,-17,190,29,-68,-107,234,141
-9,-19,-9,14,0,-14,185,29,-73,-107,234,141
-9,-29,-19,19,4,-24,180,29,-78,-117,219,141
-14,-29,-14,21,0,-21,170,29,-78,-112,214,146
-14,-19,-4,17,-4,-12,175,29,-78,-107,209,146
-9,-19,-9,14,0,-14,170,29,-78,-107,204,146
-9,-9,0,9,-4,-4,175,39,-73,-97,219,141
-9,-14,-4,12,-2,-9,180,39,-73,-97,219,141
0,-14,-14,7,7,-14,175,39,-82,-97,219,131
0,-14,-14,7,7,-14,170,29,-82,-102,209,131
-14,-24,-9,19,-2,-17,161,39,-73,-102,219,136
-9,-24,-14,17,2,-19,170,43,-73,-102,219,146
-14,-24,-9,19,-2,-17,180,43,-73,-102,219,151
-34,-29,4,31,-19,-12,180,34,-78,-107,214,156
14,-9,-24,-2,19,-17,170,39,-68,-97,229,151
24,-9,-34,-7,29,-21,170,43,-68,-97,219,141
0,-9,-9,4,4,-9,180,43,-68,-97,224,146
-19,0,19,9,-19,9,195,58,-58,-87,224,156
-9,0,9,4,-9,4,195,48,-58,-97,214,146
-9,0,9,4,-9,4,195,48,-58,-97,214,146
-9,0,9,4,-9,4,195,48,-58,-97,214,146
-9,0,9,4,-9,4,195,48,-58,-97,214,146
-14,-9,4,12,-9,-2,185,34,-63,-102,209,126
-14,-14,0,14,-7,-7,180,29,-63,-102,209,126
-14,-14,0,14,-7,-7,165,29,-63,-102,209,126
-9,-19,-9,14,0,-14,161,34,-63,-107,209,131
9,-4,-14,-2,12,-9,170,34,-53,-107,204,131
14,-4,-19,-4,17,-12,170,34,-58,-107,204,131
19,-14,-34,-2,26,-24,170,34,-63,-107,195,131
29,-14,-43,-7,36,-29,170,34,-68,-107,195,136
29,-9,-39,-9,34,-24,165,24,-63,-107,200,141
29,-4,-34,-12,31,-19,180,39,-58,-102,209,141
24,-4,-29,-9,26,-17,200,43,-53,-102,219,141
19,9,-9,-14,14,0,214,53,-48,-97,224,141
4,0,-4,-2,4,-2,214,53,-58,-97,214,141
0,-14,-14,7,7,-14,209,53,-63,-97,209,136
0,-24,-24,12,12,-24,195,43,-68,-102,204,131
-4,-34,-29,19,12,-31,185,39,-73,-112,200,126
4,-48,-53,21,29,-51,180,34,-73,-112,209,126
4,-48,-53,21,29,-51,195,39,-63,-112,204,126
9,-43,-53,17,31,-48,195,48,-58,-107,200,122
9,-29,-39,9,24,-34,195,48,-58,-107,204,117
19,-43,-63,12,41,-53,200,58,-58,-112,200,117
9,-58,-68,24,39,-63,200,58,-68,-107,195,117
-9,-63,-53,36,21,-58,190,53,-68,-112,195,122
-39,-78,-39,58,0,-58,185,53,-68,-117,190,122
-43,-73,-29,58,-7,-51,195,58,-73,-112,190,117
-48,-92,-43,70,-2,-68,180,53,-78,-122,185,107
-39,-117,-78,78,19,-97,170,43,-87,-126,180,102
-34,-117,-82,75,24,-100,175,24,-102,-131,175,97
-24,-107,-82,65,29,-95,180,19,-97,-136,175,97
-43,-107,-63,75,9,-85,190,34,-97,-131,170,87
-43,-107,-63,75,9,-85,190,34,-97,-131,161,82
-48,-107,-58,78,4,-82,204,43,-97,-131,156,82
-48,-107,-58,78,4,-82,224,48,-92,-131,156,82
-53,-102,-48,78,-2,-75,229,48,-78,-126,161,82
-53,-102,-48,78,-2,-75,239,48,-73,-122,165,82
-53,-102,-48,78,-2,-75,253,53,-68,-117,170,82
-63,-102,-39,82,-12,-70,253,53,-78,-126,170,82
-63,-107,-43,85,-9,-75,258,53,-78,-126,170,78
-63,-117,-53,90,-4,-85,258,58,-78,-122,165,73
-63,-126,-63,95,0,-95,268,58,-73,-122,161,73
-48,-122,-73,85,12,-97,268,63,-73,-126,170,68
-29,-97,-68,63,19,-82,268,63,-73,-117,170,82
-29,-107,-78,68,24,-92,268,63,-73,-131,170,82
-19,-102,-82,61,31,-92,268,68,-73,-131,175,82
-19,-82,-63,51,21,-73,268,68,-63,-117,185,92
-24,-82,-58,53,17,-70,273,68,-58,-107,190,92
-29,-73,-43,51,7,-58,287,68,-58,-97,190,97
-39,-58,-19,48,-9,-39,302,78,-39,-87,200,107
-39,-53,-14,46,-12,-34,297,73,-29,-78,204,117
-43,-53,-9,48,-17,-31,287,73,-48,-87,204,112
-48,-58,-9,53,-19,-34,287,68,-53,-92,200,112
-48,-58,-9,53,-19,-34,278,58,-63,-102,204,102
-39,-48,-9,43,-14,-29,283,63,-48,-92,214,112
-29,-34,-4,31,-12,-19,287,73,-43,-87,219,117
-24,-14,9,19,-17,-2,297,82,-39,-82,219,131
-29,0,29,14,-29,14,302,92,-34,-78,224,151
-9,-14,-4,12,-2,-9,283,82,-43,-78,214,141
0,-29,-29,14,14,-29,283,78,-43,-78,209,141
4,-29,-34,12,19,-31,287,78,-43,-78,209,141
14,-19,-34,2,24,-26,292,78,-43,-82,209,141
19,-4,-24,-7,21,-14,273,82,-39,-68,214,146
19,-4,-24,-7,21,-14,263,82,-39,-73,219,146
14,-4,-19,-4,17,-12,253,82,-43,-68,224,151
14,0,-14,-7,14,-7,244,82,-43,-63,229,156
9,9,0,-9,4,4,219,78,-43,-63,234,156
0,14,14,-7,-7,14,209,68,-43,-73,234,161
0,14,14,-7,-7,14,204,58,-48,-73,234,165
-9,14,24,-2,-17,19,195,53,-48,-73,229,170
-4,9,14,-2,-9,12,180,43,-58,-82,224,161
-4,9,14,-2,-9,12,170,48,-58,-82,219,161
0,9,9,-4,-4,9,161,48,-63,-82,214,161
4,0,-4,-2,4,-2,151,39,-63,-82,209,161
43,19,-24,-31,34,-2,141,39,-58,-73,209,161
34,43,9,-39,12,26,156,68,-39,-63,224,170
53,43,-9,-48,31,17,170,78,-48,-63,214,161
53,29,-24,-41,39,2,161,58,-63,-82,204,146
29,9,-19,-19,24,-4,170,58,-53,-87,195,141
4,14,9,-9,-2,12,185,78,-34,-87,200,141
24,9,-14,-17,19,-2,204,107,-24,-82,180,122
39,0,-39,-19,39,-19,209,112,-19,-82,165,107
24,14,-9,-19,17,2,200,117,-4,-63,170,107
-9,14,24,-2,-17,19,195,117,4,-34,200,117
-9,9,19,0,-14,14,195,112,14,0,244,146
24,34,9,-29,7,21,185,97,39,34,297,190
73,53,-19,-63,46,17,161,97,73,97,375,253
102,43,-58,-73,80,-7,141,107,117,175,478,326
161,48,-112,-104,136,-31,117,170,175,263,605,419
292,102,-190,-197,241,-43,92,283,248,370,746,527
419,131,-287,-275,353,-78,53,370,302,463,863,624
561,161,-400,-361,480,-119,-4,409,351,522,946,702
683,229,-453,-456,568,-112,-68,424,395,570,1010,775
746,331,-414,-539,580,-41,-161,390,448,600,1044,854
756,488,-268,-622,512,109,-234,200,419,570,1015,902
702,614,-87,-658,395,263,-297,-151,263,405,873,888
546,702,156,-624,195,429,-331,-595,4,126,619,805
380,771,390,-575,-4,580,-351,-1044,-278,-161,351,692
244,756,512,-500,-134,634,-390,-1434,-551,-385,151,575
112,692,580,-402,-234,636,-414,-1698,-761,-551,14,468
-9,649,658,-319,-334,653,-366,-1766,-854,-619,-53,390
-107,649,756,-270,-431,702,-278,-1683,-824,-600,-53,346
-170,619,790,-224,-480,705,-239,-1561,-780,-566,-43,326
-180,546,727,-183,-453,636,-263,-1459,-775,-575,-48,273
-165,463,629,-148,-397,546,-273,-1327,-766,-585,-48,229
-141,409,551,-134,-346,480,-224,-1117,-688,-536,-14,214
-107,346,453,-119,-280,400,-141,-878,-595,-473,14,195
-58,273,331,-107,-195,302,-68,-678,-507,-419,24,161
-24,224,248,-100,-136,236,-4,-473,-419,-356,48,151
29,180,151,-104,-61,165,48,-297,-326,-292,78,146
24,126,102,-75,-39,114,78,-185,-253,-244,112,136
-24,78,102,-26,-63,90,102,-122,-200,-209,136,141
-24,68,92,-21,-58,80,117,-78,-156,-165,165,151
9,87,78,-48,-34,82,126,-39,-107,-131,195,165
0,87,87,-43,-43,87,146,-9,-73,-102,229,175
-14,68,82,-26,-48,75,126,14,-73,-97,219,165
-4,48,53,-21,-29,51,117,24,-82,-102,195,151
0,48,48,-24,-24,48,122,39,-78,-107,190,146
14,43,29,-29,-7,36,126,43,-78,-112,190,141
19,34,14,-26,2,24,141,43,-87,-112,190,126
19,24,4,-21,7,14,165,58,-78,-112,180,126
29,24,-4,-26,17,9,165,58,-73,-102,185,122
39,29,-9,-34,24,9,165,63,-63,-97,190,122
39,34,-4,-36,21,14,161,73,-58,-92,190,126
43,34,-9,-39,26,12,161,92,-48,-82,200,126
43,29,-14,-36,29,7,156,97,-53,-87,200,117
39,29,-9,-34,24,9,156,102,-53,-87,200,112
34,29,-4,-31,19,12,165,117,-53,-82,200,112
29,19,-9,-24,19,4,161,112,-53,-78,190,97
29,9,-19,-19,24,-4,161,97,-53,-82,190,97
29,9,-19,-19,24,-4,161,82,-53,-87,190,97
39,14,-24,-26,31,-4,156,78,-53,-87,190,92
48,24,-24,-36,36,0,151,92,-48,-78,185,92
48,24,-24,-36,36,0,151,97,-43,-78,185,97
48,24,-24,-36,36,0,151,107,-43,-78,185,102
53,24,-29,-39,41,-2,151,107,-39,-82,185,102
58,29,-29,-43,43,0,165,97,-34,-82,185,87
63,34,-29,-48,46,2,175,107,-24,-73,185,102
68,39,-29,-53,48,4,180,112,-24,-73,190,102
73,43,-29,-58,51,7,185,112,-14,-78,190,102
68,29,-39,-48,53,-4,175,122,-24,-68,195,102
68,29,-39,-48,53,-4,175,126,-19,-68,195,102
73,29,-43,-51,58,-7,175,126,-19,-73,195,102
78,24,-53,-51,65,-14,175,117,-24,-73,195,102
68,29,-39,-48,53,-4,185,117,-24,-63,209,107
58,29,-29,-43,43,0,185,117,-19,-58,209,112
48,24,-24,-36,36,0,185,117,-9,-58,209,117
48,24,-24,-36,36,0,185,117,-9,-58,209,112
53,43,-9,-48,31,17,180,117,4,-58,200,112
68,53,-14,-61,41,19,175,117,-4,-58,200,112
87,53,-34,-70,61,9,165,122,-9,-58,200,107
82,53,-29,-68,56,12,161,126,-14,-58,204,107
63,29,-34,-46,48,-2,165,126,-4,-58,204,102
63,29,-34,-46,48,-2,161,126,-9,-58,204,112
63,39,-24,-51,43,7,180,122,-9,-58,214,117
73,39,-34,-56,53,2,185,122,-14,-53,214,117
73,29,-43,-51,58,-7,190,122,-24,-53,204,107
73,29,-43,-51,58,-7,185,122,-29,-53,204,112
73,29,-43,-51,58,-7,180,126,-24,-53,204,112
53,19,-34,-36,43,-7,180,126,-19,-53,204,112
78,34,-43,-56,61,-4,175,131,-34,-63,200,97
102,39,-63,-70,82,-12,175,131,-39,-63,200,97
122,39,-82,-80,102,-21,175,131,-39,-58,200,97
136,43,-92,-90,114,-24,175,131,-39,-48,204,97
107,29,-78,-68,92,-24,180,136,-34,-39,214,107
82,24,-58,-53,70,-17,185,141,-34,-43,214,102
63,29,-34,-46,48,-2,190,151,-29,-43,219,102
48,24,-24,-36,36,0,200,156,-24,-34,224,107
58,34,-24,-46,41,4,190,156,-24,-34,224,107
58,24,-34,-41,46,-4,190,161,-24,-39,224,107
58,34,-24,-46,41,4,190,161,-24,-39,224,107
63,34,-29,-48,46,2,190,161,-24,-39,239,112
73,29,-43,-51,58,-7,190,151,-24,-24,239,102
73,29,-43,-51,58,-7,190,161,-14,-14,239,107
73,39,-34,-56,53,2,190,170,-14,-14,244,107
68,39,-29,-53,48,4,190,170,-14,-24,244,107
48,29,-19,-39,34,4,190,151,-19,-24,234,97
43,19,-24,-31,34,-2,190,161,-14,-19,239,97
48,9,-39,-29,43,-14,185,165,-19,-14,244,97
43,0,-43,-21,43,-21,185,165,-4,-14,244,97
43,9,-34,-26,39,-12,190,170,-9,-9,244,92
53,29,-24,-41,39,2,190,175,-4,0,253,97
63,39,-24,-51,43,7,190,185,0,0,258,102
78,43,-34,-61,56,4,185,185,-4,0,258,102
73,39,-34,-56,53,2,180,185,-19,-4,248,112
73,29,-43,-51,58,-7,180,185,-19,-4,253,112
68,19,-48,-43,58,-14,185,195,-14,-4,253,112
63,9,-53,-36,58,-21,185,200,-14,4,253,112
58,0,-58,-29,58,-29,185,200,-4,14,263,122
63,9,-53,-36,58,-21,190,204,0,9,268,117
68,29,-39,-48,53,-4,195,204,0,9,268,117
63,29,-34,-46,48,-2,190,204,0,14,268,117
63,19,-43,-41,53,-12,185,195,-9,14,268,107
63,14,-48,-39,56,-17,180,204,-9,9,273,117
53,14,-39,-34,46,-12,175,209,-4,9,273,117
53,14,-39,-34,46,-12,175,209,-4,9,273,126
82,9,-73,-46,78,-31,170,204,4,9,268,112
92,14,-78,-53,85,-31,165,204,9,14,268,107
102,24,-78,-63,90,-26,161,209,9,14,263,102
112,39,-73,-75,92,-17,156,209,14,14,263,97
87,29,-58,-58,73,-14,170,214,19,14,278,107
78,19,-58,-48,68,-19,165,214,24,19,278,102
58,4,-53,-31,56,-24,161,209,29,19,273,102
39,-9,-48,-14,43,-29,156,209,29,19,273,107
48,4,-43,-26,46,-19,161,224,34,29,283,117
58,14,-43,-36,51,-14,170,229,48,34,287,122
63,19,-43,-41,53,-12,180,229,58,34,287,136
63,34,-29,-48,46,2,190,224,63,39,292,146
82,39,-43,-61,63,-2,185,219,53,34,268,141
92,39,-53,-65,73,-7,175,214,53,39,248,136
97,39,-58,-68,78,-9,165,214,48,39,229,136
97,39,-58,-68,78,-9,161,214,48,39,214,136
92,29,-63,-61,78,-17,161,200,39,34,209,136
92,29,-63,-61,78,-17,146,190,39,34,200,131
87,29,-58,-58,73,-14,141,180,34,24,185,126
82,29,-53,-56,68,-12,141,175,34,24,175,122
82,19,-63,-51,73,-21,131,161,29,19,170,117
82,19,-63,-51,73,-21,122,156,24,19,170,117
82,19,-63,-51,73,-21,117,156,9,9,165,117
82,29,-53,-56,68,-12,117,156,-4,19,165,122
73,19,-53,-46,63,-17,107,156,-4,24,161,122
73,19,-53,-46,63,-17,112,141,-14,24,161,122
78,39,-39,-58,58,0,122,131,-14,14,156,126
87,39,-48,-63,68,-4,112,122,-19,9,151,126
87,39,-48,-63,68,-4,102,117,-39,14,161,131
87,43,-43,-65,65,0,102,107,-39,14,161,141
87,53,-34,-70,61,9,97,107,-39,14,165,146
92,58,-34,-75,63,12,97,92,-43,19,165,151
97,68,-29,-82,63,19,87,73,-58,14,156,141
97,68,-29,-82,63,19,87,73,-63,19,156,141
78,78,0,-78,39,39,87,68,-63,19,161,141
92,87,-4,-90,48,41,82,68,-63,19,161,146
92,82,-9,-87,51,36,73,68,-63,14,165,151
92,82,-9,-87,51,36,73,53,-68,14,165,151
92,82,-9,-87,51,36,78,43,-68,9,170,156
92,82,-9,-87,51,36,82,43,-68,14,185,161
92,73,-19,-82,56,26,82,34,-68,19,185,180
97,68,-29,-82,63,19,87,34,-68,24,180,180
102,68,-34,-85,68,17,73,34,-63,24,175,170
102,68,-34,-85,68,17,68,34,-58,29,175,165
92,58,-34,-75,63,12,73,34,-48,39,175,175
78,58,-19,-68,48,19,73,34,-48,39,175,175
68,39,-29,-53,48,4,78,34,-43,39,180,170
58,29,-29,-43,43,0,78,39,-43,39,180,170
58,34,-24,-46,41,4,87,48,-29,39,175,170
58,39,-19,-48,39,9,92,53,-19,43,165,175
58,43,-14,-51,36,14,92,53,-14,43,161,175
63,53,-9,-58,36,21,92,48,-9,43,165,175
73,53,-19,-63,46,17,97,58,-4,53,170,170
63,39,-24,-51,43,7,97,58,-4,48,170,161
73,34,-39,-53,56,-2,97,53,-4,53,165,156
92,34,-58,-63,75,-12,112,53,4,68,170,151
78,34,-43,-56,61,-4,122,68,0,63,156,146
53,29,-24,-41,39,2,126,68,0,58,156,136
48,29,-19,-39,34,4,131,68,0,58,156,136
39,34,-4,-36,21,14,146,68,9,53,156,141
53,34,-19,-43,36,7,146,68,14,48,151,131
58,34,-24,-46,41,4,141,73,14,48,151,122
63,29,-34,-46,48,-2,141,73,14,48,151,117
68,29,-39,-48,53,-4,146,73,14,48,141,117
63,29,-34,-46,48,-2,136,82,29,58,146,112
63,29,-34,-46,48,-2,136,82,29,53,141,112
53,19,-34,-36,43,-7,136,73,29,53,141,112
53,4,-48,-29,51,-21,136,63,29,53,141,107
43,0,-43,-21,43,-21,136,68,43,68,156,117
24,4,-19,-14,21,-7,141,73,48,73,156,112
14,0,-14,-7,14,-7,151,82,58,78,156,112
4,4,0,-4,2,2,161,97,63,78,156,112
9,19,9,-14,0,14,151,92,53,63,151,107
9,14,4,-12,2,9,151,87,53,63,141,107
4,19,14,-12,-4,17,146,87,53,63,141,102
9,24,14,-17,-2,19,146,82,53,58,141,97
34,14,-19,-24,26,-2,156,73,53,63,151,102
39,14,-24,-26,31,-4,161,73,39,63,151,92
48,24,-24,-36,36,0,161,78,39,63,151,87
53,29,-24,-41,39,2,161,78,34,63,146,82
48,29,-19,-39,34,4,151,87,39,73,146,82
34,29,-4,-31,19,12,156,87,48,68,146,87
34,29,-4,-31,19,12,156,92,53,68,146,97
43,29,-14,-36,29,7,156,97,58,68,146,97
48,19,-29,-34,39,-4,151,87,43,68,136,87
48,19,-29,-34,39,-4,151,87,39,63,131,82
29,14,-14,-21,21,0,146,82,29,58,131,78
29,14,-14,-21,21,0,136,82,24,43,131,73
14,4,-9,-9,12,-2,156,87,34,53,136,82
9,0,-9,-4,9,-4,161,92,34,58,136,78
4,-4,-9,0,7,-7,156,102,34,58,141,78
-4,-4,0,4,-2,-2,151,122,48,58,146,73
14,14,0,-14,7,7,151,122,63,63,156,78
24,19,-4,-21,14,7,151,122,63,63,156,78
29,24,-4,-26,17,9,151,122,63,63,156,82
34,29,-4,-31,19,12,151,122,68,63,156,92
39,39,0,-39,19,19,151,112,58,58,146,82
19,19,0,-19,9,9,156,117,78,68,146,78
19,24,4,-21,7,14,156,117,82,58,136,68
19,29,9,-24,4,19,156,117,87,58,136,68
19,34,14,-26,2,24,156,117,92,58,136,68
19,39,19,-29,0,29,156,117,97,58,136,68
24,29,4,-26,9,17,141,122,102,43,117,48
24,24,0,-24,12,12,141,117,102,43,112,48
24,24,0,-24,12,12,131,117,102,43,107,48
29,19,-9,-24,19,4,131,122,102,39,102,53
43,39,-4,-41,24,17,131,131,126,43,117,63
43,43,0,-43,21,21,131,131,126,48,117,63
43,39,-4,-41,24,17,131,131,126,53,107,63
48,43,-4,-46,26,19,131,131,126,58,107,68
53,43,-9,-48,31,17,117,117,126,53,102,68
58,43,-14,-51,36,14,122,126,126,53,102,63
58,39,-19,-48,39,9,131,126,126,48,102,58
58,48,-9,-53,34,19,136,131,126,48,97,53
53,48,-4,-51,29,21,141,136,131,68,107,68
48,43,-4,-46,26,19,151,141,131,78,112,68
48,43,-4,-46,26,19,151,136,131,82,117,68
43,43,0,-43,21,21,156,136,131,82,122,68
34,29,-4,-31,19,12,141,131,117,82,122,73
34,29,-4,-31,19,12,146,126,122,73,117,78
39,34,-4,-36,21,14,136,126,122,68,112,78
39,48,9,-43,14,29,126,117,117,58,117,78
63,53,-9,-58,36,21,122,107,112,48,102,73
68,48,-19,-58,43,14,112,97,87,48,97,68
63,53,-9,-58,36,21,92,82,73,39,97,68
48,48,0,-48,24,24,78,73,58,29,92,63
34,68,34,-51,0,51,92,63,39,24,82,48
29,53,24,-41,2,39,73,43,19,4,68,39
39,34,-4,-36,21,14,58,19,-4,-9,53,34
43,39,-4,-41,24,17,58,-14,-34,-24,39,29
48,43,-4,-46,26,19,58,-29,-43,-34,43,39
24,48,24,-36,0,36,63,-24,-48,-34,43,29
19,53,34,-36,-7,43,58,-34,-53,-39,39,24
9,58,48,-34,-19,53,68,-34,-58,-43,39,24
9,68,58,-39,-24,63,78,-34,-63,-43,43,24
4,73,68,-39,-31,70,82,-29,-48,-39,43,24
4,73,68,-39,-31,70,92,-24,-43,-34,43,24
4,73,68,-39,-31,70,107,-14,-39,-29,43,24
0,97,97,-48,-48,97,117,-4,-24,-19,58,34
-4,107,112,-51,-58,109,122,-4,-19,-19,63,39
-9,112,122,-51,-65,117,122,0,-14,-14,63,43
-14,117,131,-51,-73,124,131,0,-4,-14,63,53
-19,126,146,-53,-82,136,151,9,14,0,68,48
-9,146,156,-68,-82,151,161,14,14,9,73,63
-19,131,151,-56,-85,141,170,19,14,-4,78,63
-19,131,151,-56,-85,141,180,29,14,-4,87,63
-9,136,146,-63,-78,141,204,43,39,9,102,73
-4,122,126,-58,-65,124,224,58,48,19,102,63
0,117,117,-58,-58,117,253,73,53,29,97,58
0,117,117,-58,-58,117,283,97,78,39,102,58
0,122,122,-61,-61,122,292,117,97,53,117,63
-4,122,126,-58,-65,124,297,122,87,48,117,63
-9,117,126,-53,-68,122,312,122,92,48,112,68
-9,117,126,-53,-68,122,317,117,92,43,117,63
9,122,112,-65,-51,117,302,102,97,48,122,68
19,122,102,-70,-41,112,297,102,102,48,122,58
24,126,102,-75,-39,114,297,102,107,48,117,58
19,126,107,-73,-43,117,292,102,112,48,117,63
19,117,97,-68,-39,107,268,87,97,39,117,53
19,97,78,-58,-29,87,253,78,92,39,112,53
14,92,78,-53,-31,85,244,73,87,39,112,53
14,97,82,-56,-34,90,234,68,82,34,112,53
19,92,73,-56,-26,82,219,53,63,24,97,48
19,82,63,-51,-21,73,214,53,58,14,92,39
14,73,58,-43,-21,65,209,53,48,14,87,34
14,68,53,-41,-19,61,204,53,43,14,82,29
24,68,43,-46,-9,56,190,63,53,14,87,34
29,73,43,-51,-7,58,180,58,53,4,87,34
43,73,29,-58,7,51,175,53,48,4,87,34
48,73,24,-61,12,48,165,53,48,4,82,34
34,53,19,-43,7,36,151,48,34,-4,82,19
24,48,24,-36,0,36,141,48,29,-4,82,14
19,43,24,-31,-2,34,131,43,19,-4,82,9
14,29,14,-21,0,21,122,29,14,-4,82,4
34,9,-24,-21,29,-7,112,9,0,-34,63,-4
4,14,9,-9,-2,12,117,19,0,-34,58,-4
-14,14,29,0,-21,21,122,19,0,-34,58,4
-4,19,24,-7,-14,21,112,0,-14,-34,48,-9
-9,9,19,0,-14,14,102,9,-24,-58,29,-34
-24,-14,9,19,-17,-2,117,9,-24,-87,-4,-82
-14,-19,-4,17,-4,-12,136,29,-24,-92,-34,-102
0,-19,-19,9,9,-19,151,53,-19,-82,-39,-107
-24,-34,-9,29,-7,-21,141,48,4,-53,-24,-97
-58,-14,43,36,-51,14,165,48,34,-14,34,-68
-48,9,58,19,-53,34,165,43,73,48,97,-9
-4,14,19,-4,-12,17,136,29,107,102,180,43
43,34,-9,-39,26,12,102,48,151,175,278,117
141,73,-68,-107,104,2,92,126,234,283,409,219
268,97,-170,-183,219,-36,78,248,331,400,556,322
380,102,-278,-241,329,-87,43,370,414,527,697,429
497,151,-346,-324,422,-97,-4,448,497,639,844,546
600,239,-361,-419,480,-61,-63,497,585,736,976,673
673,366,-307,-519,490,29,-136,453,658,805,1068,785
688,536,-151,-612,419,192,-239,253,663,814,1083,863
639,702,63,-671,287,383,-302,-112,507,668,976,883
448,819,370,-634,39,595,-336,-600,214,366,707,790
204,868,663,-536,-229,766,-341,-1102,-112,-9,346,639
48,868,819,-458,-385,844,-380,-1512,-395,-307,68,488
-29,805,834,-387,-431,819,-419,-1766,-619,-483,-82,370
-151,771,922,-309,-536,846,-366,-1825,-712,-551,-151,292
-253,775,1029,-261,-641,902,-287,-1756,-697,-541,-161,244
-283,717,1000,-217,-641,858,-278,-1664,-697,-531,-180,170
-258,619,878,-180,-568,749,-297,-1561,-712,-546,-209,82
-200,536,736,-168,-468,636,-302,-1420,-707,-546,-204,29
-185,463,649,-139,-417,556,-273,-1210,-639,-527,-185,14
-161,409,570,-124,-366,490,-204,-961,-541,-478,-161,19
-117,326,444,-104,-280,385,-131,-732,-429,-414,-131,0
-68,253,322,-92,-195,287,-78,-522,-322,-341,-112,-24
-24,214,239,-95,-131,226,-43,-356,-253,-268,-78,-34
0,161,161,-80,-80,161,-9,-258,-209,-224,-48,-39
4,107,102,-56,-48,104,19,-204,-156,-185,-14,-48
-4,87,92,-41,-48,90,43,-161,-92,-131,19,-53
-4,78,82,-36,-43,80,48,-117,-58,-107,39,-43
-9,68,78,-29,-43,73,58,-87,-39,-92,39,-48
0,58,58,-29,-29,58,58,-58,-24,-92,43,-48
4,48,43,-26,-19,46,58,-34,-14,-87,43,-48
4,48,43,-26,-19,46,48,-24,-24,-92,24,-63
9,48,39,-29,-14,43,53,-9,-19,-97,24,-68
24,43,19,-34,2,31,58,-4,-19,-102,29,-73
29,34,4,-31,12,19,73,-4,-29,-102,34,-87
4,19,14,-12,-4,17,102,9,-34,-92,34,-97
0,14,14,-7,-7,14,107,9,-34,-82,39,-102
-4,14,19,-4,-12,17,112,14,-29,-78,43,-102
-19,14,34,2,-26,24,112,24,-29,-73,43,-97
-9,24,34,-7,-21,29,107,34,-39,-73,43,-87
-4,19,24,-7,-14,21,97,39,-43,-78,43,-97
-4,19,24,-7,-14,21,92,43,-43,-78,43,-102
-4,19,24,-7,-14,21,97,58,-43,-73,43,-102
-19,9,29,4,-24,19,102,58,-39,-63,53,-97
-19,-9,9,14,-14,0,102,48,-34,-63,53,-97
-19,-19,0,19,-9,-9,102,39,-29,-63,53,-97
-9,-24,-14,17,2,-19,97,39,-24,-58,53,-102
-9,-9,0,9,-4,-4,78,43,-24,-68,48,-97
-9,-4,4,7,-7,0,73,48,-24,-68,48,-87
-9,0,9,4,-9,4,68,58,-29,-68,48,-78
-4,4,9,0,-7,7,63,58,-29,-73,48,-73
14,9,-4,-12,9,2,87,58,-14,-58,58,-97
24,14,-9,-19,17,2,97,68,-4,-43,58,-82
34,19,-14,-26,24,2,102,73,-4,-39,63,-82
43,24,-19,-34,31,2,107,73,4,-39,63,-82
19,4,-14,-12,17,-4,97,73,4,-48,68,-82
9,0,-9,-4,9,-4,97,78,9,-48,68,-82
4,-4,-9,0,7,-7,97,78,9,-53,68,-82
0,-14,-14,7,7,-14,97,68,4,-53,68,-82
19,-14,-34,-2,26,-24,97,73,14,-63,68,-82
29,-9,-39,-9,34,-24,97,78,19,-58,63,-82
39,-9,-48,-14,43,-29,97,82,29,-58,58,-82
58,-4,-63,-26,61,-34,97,87,29,-58,53,-92
39,-9,-48,-14,43,-29,97,87,48,-68,53,-92
39,-4,-43,-17,41,-24,97,87,43,-68,53,-92
43,-9,-53,-17,48,-31,92,92,43,-68,53,-97
24,-14,-39,-4,31,-26,92,97,43,-68,58,-97
4,-29,-34,12,19,-31,92,107,53,-63,68,-112
4,-29,-34,12,19,-31,82,107,58,-58,68,-102
4,-19,-24,7,14,-21,97,102,68,-53,78,-97
14,-19,-34,2,24,-26,97,102,73,-43,78,-97
14,-14,-29,0,21,-21,92,107,73,-43,68,-97
14,-9,-24,-2,19,-17,87,112,68,-43,68,-92
14,-4,-19,-4,17,-12,82,122,73,-43,68,-92
-4,-9,-4,7,0,-7,82,126,78,-43,68,-92
9,-9,-19,0,14,-14,82,126,82,-34,73,-107
24,-9,-34,-7,29,-21,87,122,78,-34,73,-107
34,-14,-48,-9,41,-31,92,117,78,-29,73,-107
39,-14,-53,-12,46,-34,97,112,78,-19,78,-107
48,-14,-63,-17,56,-39,87,117,78,-19,87,-117
43,-14,-58,-14,51,-36,87,122,73,-24,87,-122
43,-4,-48,-19,46,-26,87,131,73,-24,92,-122
48,-4,-53,-21,51,-29,92,136,73,-14,97,-117
43,-14,-58,-14,51,-36,92,126,58,-24,92,-126
39,-24,-63,-7,51,-43,92,131,53,-29,87,-126
34,-14,-48,-9,41,-31,92,131,48,-29,82,-126
34,-14,-48,-9,41,-31,92,131,43,-29,92,-122
24,-9,-34,-7,29,-21,82,141,43,-14,92,-117
24,-9,-34,-7,29,-21,82,151,53,-4,92,-107
24,0,-24,-12,24,-12,82,161,53,-4,97,-102
19,0,-19,-9,19,-9,82,161,53,-14,97,-97
14,-9,-24,-2,19,-17,73,151,43,-14,87,-107
14,-9,-24,-2,19,-17,73,161,53,-9,92,-107
24,-9,-34,-7,29,-21,68,165,53,-4,97,-107
24,-9,-34,-7,29,-21,68,165,73,-4,97,-107
14,-14,-29,0,21,-21,82,161,58,0,87,-107
14,-9,-24,-2,19,-17,82,165,63,9,97,-107
14,-14,-29,0,21,-21,82,175,68,9,102,-107
19,-24,-43,2,31,-34,78,175,63,9,102,-112
29,-9,-39,-9,34,-24,82,185,63,19,112,-112
34,-9,-43,-12,39,-26,82,185,68,24,117,-112
34,-9,-43,-12,39,-26,87,195,78,29,117,-112
34,-9,-43,-12,39,-26,87,200,82,43,117,-112
43,-9,-53,-17,48,-31,78,200,82,53,126,-107
53,0,-53,-26,53,-26,73,204,87,48,131,-107
63,19,-43,-41,53,-12,68,204,87,48,131,-102
63,19,-43,-41,53,-12,53,204,87,53,131,-97
48,4,-43,-26,46,-19,48,204,97,58,151,-97
43,-4,-48,-19,46,-26,43,214,97,58,156,-87
29,-9,-39,-9,34,-24,39,219,102,63,156,-87
24,-14,-39,-4,31,-26,39,219,102,68,156,-78
48,0,-48,-24,48,-24,39,224,107,78,165,-78
53,14,-39,-34,46,-12,39,224,117,82,170,-78
58,34,-24,-46,41,4,39,229,122,82,170,-78
63,58,-4,-61,34,26,39,229,131,82,175,-78
58,48,-9,-53,34,19,29,234,131,92,200,-87
68,39,-29,-53,48,4,19,234,131,97,200,-92
68,24,-43,-46,56,-9,9,229,131,97,195,-92
68,9,-58,-39,63,-24,0,229,126,97,195,-87
73,9,-63,-41,68,-26,-14,244,136,107,204,-82
87,14,-73,-51,80,-29,-14,248,146,112,209,-82
97,14,-82,-56,90,-34,-14,248,151,112,209,-73
102,24,-78,-63,90,-26,-14,244,151,117,214,-68
131,39,-92,-85,112,-26,-24,248,161,131,234,-53
141,39,-102,-90,122,-31,-29,244,161,136,239,-48
146,39,-107,-92,126,-34,-34,244,156,136,244,-39
146,39,-107,-92,126,-34,-34,244,156,136,253,-29
146,48,-97,-97,122,-24,-43,224,156,131,258,-29
151,48,-102,-100,126,-26,-58,219,156,131,258,-34
151,48,-102,-100,126,-26,-63,214,151,122,253,-39
151,48,-102,-100,126,-26,-63,214,151,122,253,-43
131,48,-82,-90,107,-17,-58,219,161,131,263,-39
122,48,-73,-85,97,-12,-63,214,161,136,268,-29
112,48,-63,-80,87,-7,-63,214,151,131,268,-19
102,58,-43,-80,73,7,-58,214,141,146,273,-4
107,58,-48,-82,78,4,-73,204,151,141,278,-4
112,58,-53,-85,82,2,-73,190,141,141,287,-4
122,78,-43,-100,82,17,-68,180,141,131,292,0
136,78,-58,-107,97,9,-82,170,136,126,297,0
126,82,-43,-104,85,19,-87,170,126,131,287,-4
126,82,-43,-104,85,19,-82,165,126,131,287,-4
126,87,-39,-107,82,24,-82,170,126,131,292,-9
131,87,-43,-109,87,21,-78,161,122,136,292,-14
122,82,-39,-102,80,21,-78,161,117,136,283,-24
117,78,-39,-97,78,19,-78,161,112,136,283,-24
92,82,-9,-87,51,36,-78,156,112,131,287,-24
102,87,-14,-95,58,36,-82,156,112,126,287,-19
112,82,-29,-97,70,26,-68,151,112,107,273,-34
112,73,-39,-92,75,17,-63,141,107,102,253,-53
112,63,-48,-87,80,7,-53,136,107,92,239,-68
112,53,-58,-82,85,-2,-43,141,107,92,234,-82
82,53,-29,-68,56,12,-29,151,107,102,219,-87
78,48,-29,-63,53,9,-19,151,107,102,209,-92
73,48,-24,-61,48,12,-29,151,112,97,200,-107
63,48,-14,-56,39,17,-29,151,117,97,195,-117
48,43,-4,-46,26,19,-19,151,122,82,180,-122
19,39,19,-29,0,29,-14,151,117,78,175,-126
-4,14,19,-4,-12,17,-4,151,117,73,175,-136
-29,0,29,14,-29,14,0,156,112,68,170,-141
-24,-4,19,14,-21,7,0,151,112,53,156,-161
-19,-9,9,14,-14,0,4,151,107,53,136,-165
-14,-14,0,14,-7,-7,4,146,97,48,122,-175
-4,-14,-9,9,2,-12,4,136,87,43,117,-185
4,-4,-9,0,7,-7,14,141,92,39,117,-185
-14,-9,4,12,-9,-2,9,136,92,29,112,-190
-14,-4,9,9,-12,2,4,126,92,29,102,-190
-4,4,9,0,-7,7,14,122,102,39,102,-190
-9,-9,0,9,-4,-4,9,122,97,24,87,-200
-34,-19,14,26,-24,-2,9,117,87,19,87,-214
-39,-24,14,31,-26,-4,9,112,78,19,87,-219
-48,-24,24,36,-36,0,19,107,78,14,87,-219
-39,-14,24,26,-31,4,9,117,82,19,102,-214
-29,-14,14,21,-21,0,4,122,82,19,102,-219
-19,-19,0,19,-9,-9,4,122,82,19,102,-219
-9,-19,-9,14,0,-14,9,122,82,19,92,-214
-14,-9,4,12,-9,-2,0,112,78,14,78,-224
-14,0,14,7,-14,7,0,112,78,4,73,-229
-24,0,24,12,-24,12,0,102,78,0,73,-234
-24,-4,19,14,-21,7,0,92,78,-4,73,-244
-24,-14,9,19,-17,-2,4,102,78,-4,73,-258
-34,-14,19,24,-26,2,4,102,78,-4,68,-268
-34,-24,9,29,-21,-7,9,107,82,-4,63,-273
-34,-24,9,29,-21,-7,14,117,82,-9,58,-278
-39,-29,9,34,-24,-9,24,117,82,-9,58,-268
-48,-43,4,46,-26,-19,24,117,82,-4,53,-263
-63,-48,14,56,-39,-17,19,122,82,0,58,-263
-68,-53,14,61,-41,-19,19,122,82,0,63,-263
-63,-53,9,58,-36,-21,9,122,87,4,73,-263
-68,-43,24,56,-46,-9,14,122,78,4,73,-268
-68,-24,43,46,-56,9,14,126,82,4,73,-268
-73,-9,63,41,-68,26,14,126,82,4,68,-268
-73,-19,53,46,-63,17,14,126,82,4,68,-273
-82,-19,63,51,-73,21,19,126,87,0,68,-273
-78,-19,58,48,-68,19,19,131,87,0,68,-268
-63,-19,43,41,-53,12,19,136,87,0,68,-273
-68,-29,39,48,-53,4,19,136,78,0,63,-278
-68,-29,39,48,-53,4,24,136,78,-4,53,-278
-87,-34,53,61,-70,9,24,131,73,-9,48,-278
-87,-34,53,61,-70,9,19,131,73,-24,43,-278
-92,-39,53,65,-73,7,14,131,78,-14,43,-283
-87,-39,48,63,-68,4,14,131,82,-9,39,-292
-82,-39,43,61,-63,2,4,136,87,-9,39,-297
-82,-34,48,58,-65,7,-4,151,107,-9,39,-307
-78,-24,53,51,-65,14,4,151,112,-4,43,-302
-73,-29,43,51,-58,7,4,151,112,-4,48,-302
-73,-34,39,53,-56,2,4,151,112,-4,53,-297
-73,-39,34,56,-53,-2,4,151,117,-4,58,-287
-87,-29,58,58,-73,14,0,141,107,0,58,-287
-97,-24,73,61,-85,24,4,151,117,4,58,-287
-97,-9,87,53,-92,39,0,151,122,4,63,-278
-87,-9,78,48,-82,34,-4,151,122,4,63,-273
-82,-14,68,48,-75,26,4,146,122,0,53,-273
-82,-9,73,46,-78,31,4,151,117,0,53,-278
-82,-29,53,56,-68,12,4,151,117,0,53,-278
-82,-48,34,65,-58,-7,4,151,112,4,53,-283
-68,-29,39,48,-53,4,-4,151,97,-9,43,-287
-68,-34,34,51,-51,0,0,151,92,-9,43,-292
-68,-34,34,51,-51,0,0,151,92,-14,43,-297
-68,-39,29,53,-48,-4,0,146,102,-19,43,-302
-68,-39,29,53,-48,-4,-14,136,87,-24,48,-317
-58,-34,24,46,-41,-4,-14,136,78,-24,39,-317
-58,-29,29,43,-43,0,-9,136,73,-24,39,-322
-58,-24,34,41,-46,4,-9,146,63,-19,39,-322
-53,-14,39,34,-46,12,-14,136,68,-19,48,-312
-53,-9,43,31,-48,17,-19,122,68,-9,58,-307
-58,-14,43,36,-51,14,-19,122,63,-9,58,-302
-58,-9,48,34,-53,19,-14,122,63,-9,58,-297
-63,-9,53,36,-58,21,4,131,68,-9,68,-302
-68,-4,63,36,-65,29,14,131,63,-9,68,-302
-73,0,73,36,-73,36,24,126,58,-4,68,-302
-68,0,68,34,-68,34,34,117,53,-4,68,-302
-68,-4,63,36,-65,29,24,107,43,-24,63,-312
-78,-14,63,46,-70,24,24,107,43,-24,58,-317
-68,0,68,34,-68,34,19,107,43,-19,53,-322
-63,0,63,31,-63,31,14,97,43,-19,43,-326
-63,0,63,31,-63,31,0,97,34,-9,53,-331
-63,-14,48,39,-56,17,0,97,29,-24,53,-326
-63,-29,34,46,-48,2,0,97,24,-39,53,-322
-63,-29,34,46,-48,2,-4,87,19,-39,53,-322
-63,-14,48,39,-56,17,-4,92,19,-39,53,-326
-63,-9,53,36,-58,21,-4,92,14,-39,53,-326
-68,0,68,34,-68,34,-4,87,14,-39,48,-326
-73,0,73,36,-73,36,0,82,9,-43,43,-326
-73,-9,63,41,-68,26,-4,82,14,-39,43,-331
-73,-9,63,41,-68,26,-9,82,14,-39,48,-336
-73,0,73,36,-73,36,-14,82,19,-39,48,-336
-78,0,78,39,-78,39,-14,82,29,-34,53,-336
-78,-4,73,41,-75,34,-4,73,39,-34,53,-341
-78,-4,73,41,-75,34,-4,73,39,-34,53,-341
-78,-4,73,41,-75,34,-4,73,29,-34,43,-336
-82,-4,78,43,-80,36,-4,73,29,-34,43,-322
-73,-4,68,39,-70,31,-19,58,24,-48,43,-326
-73,-4,68,39,-70,31,-24,58,24,-48,39,-336
-82,-4,78,43,-80,36,-29,53,24,-48,34,-341
-82,-4,78,43,-80,36,-29,53,19,-53,24,-346
-87,-4,82,46,-85,39,-39,58,19,-48,24,-346
-92,-4,87,48,-90,41,-39,58,19,-53,24,-356
-97,-4,92,51,-95,43,-34,58,19,-53,24,-356
-102,0,102,51,-102,51,-29,63,24,-48,29,-346
-92,9,102,41,-97,56,-34,78,24,-39,34,-336
-92,4,97,43,-95,51,-24,68,24,-39,39,-331
-87,-9,78,48,-82,34,-24,58,24,-39,34,-322
-68,-4,63,36,-65,29,-19,58,24,-39,39,-395
-63,-4,58,34,-61,26,-24,48,14,-43,34,-439
-63,-4,58,34,-61,26,-24,48,14,-48,29,-414
-63,-4,58,34,-61,26,-24,48,14,-48,24,-385
-63,-4,58,34,-61,26,-19,53,14,-53,24,-351
-68,-4,63,36,-65,29,-19,43,9,-53,24,-356
-68,-4,63,36,-65,29,-19,39,9,-53,29,-356
-63,-4,58,34,-61,26,-19,39,9,-58,29,-356
-78,-4,73,41,-75,34,-29,43,9,-58,29,-356
-87,-4,82,46,-85,39,-19,53,19,-48,29,-346
-87,-9,78,48,-82,34,-19,48,14,-48,29,-346
-87,-14,73,51,-80,29,-19,48,14,-58,29,-351
-92,-24,68,58,-80,21,-19,43,9,-58,19,-351
-82,-34,48,58,-65,7,-24,53,9,-63,19,-356
-82,-34,48,58,-65,7,-29,48,4,-63,19,-361
-82,-39,43,61,-63,2,-29,43,0,-68,19,-366
-87,-39,48,63,-68,4,-29,43,0,-68,9,-366
-82,-29,53,56,-68,12,-34,39,0,-63,9,-380
-78,-29,48,53,-63,9,-34,43,0,-63,14,-385
-68,-24,43,46,-56,9,-29,43,-4,-63,19,-390
-63,-24,39,43,-51,7,-29,39,-14,-63,19,-395
-73,-29,43,51,-58,7,-29,39,-9,-63,24,-400
-78,-24,53,51,-65,14,-29,39,-9,-63,14,-395
-78,-14,63,46,-70,24,-34,39,-9,-68,19,-390
-82,-9,73,46,-78,31,-39,34,-9,-68,19,-390
-102,-14,87,58,-95,36,-39,34,-14,-73,19,-405
-102,-19,82,61,-92,31,-43,34,-14,-78,14,-409
-102,-19,82,61,-92,31,-43,34,-14,-82,14,-409
-102,-14,87,58,-95,36,-29,34,-19,-82,9,-409
-97,-24,73,61,-85,24,-24,39,-9,-68,9,-419
-82,-19,63,51,-73,21,-29,39,-9,-68,4,-424
-78,-19,58,48,-68,19,-34,39,-14,-68,4,-424
-73,-29,43,51,-58,7,-34,39,-14,-63,4,-424
-82,-29,53,56,-68,12,-43,39,-9,-63,14,-414
-78,-29,48,53,-63,9,-53,39,-9,-63,19,-414
-78,-29,48,53,-63,9,-58,39,-9,-68,24,-414
-87,-39,48,63,-68,4,-58,39,-9,-68,24,-414
-92,-39,53,65,-73,7,-53,29,-14,-68,19,-424
-73,-34,39,53,-56,2,-53,29,-14,-68,9,-429
-78,-29,48,53,-63,9,-78,29,-14,-68,4,-434
-97,-24,73,61,-85,24,-82,29,-14,-68,0,-439
-78,-24,53,51,-65,14,-73,34,-4,-58,4,-434
-73,-19,53,46,-63,17,-73,34,-9,-58,9,-434
-68,-9,58,39,-63,24,-73,34,-9,-58,14,-429
-68,-4,63,36,-65,29,-73,39,-9,-58,24,-424
-92,-19,73,56,-82,26,-58,48,0,-48,24,-414
-97,-24,73,61,-85,24,-53,48,-4,-48,24,-414
-92,-24,68,58,-80,21,-48,39,-4,-48,19,-419
-92,-19,73,56,-82,26,-39,48,-4,-43,19,-419
-82,-34,48,58,-65,7,-43,43,-9,-53,14,-429
-87,-39,48,63,-68,4,-48,39,-14,-68,4,-434
-87,-43,43,65,-65,0,-53,29,-19,-68,0,-434
-87,-48,39,68,-63,-4,-58,24,-24,-68,0,-434
-82,-43,39,63,-61,-2,-63,29,-19,-73,4,-419
-82,-34,48,58,-65,7,-63,39,-14,-73,14,-419
-78,-29,48,53,-63,9,-58,43,-9,-73,19,-414
-78,-29,48,53,-63,9,-53,48,-14,-73,24,-414
-63,-19,43,41,-53,12,-53,43,-19,-73,14,-424
-58,-24,34,41,-46,4,-53,39,-19,-73,14,-424
-53,-24,29,39,-41,2,-63,34,-19,-73,9,-434
-48,-19,29,34,-39,4,-68,19,-24,-73,9,-434
-53,-29,24,41,-39,-2,-68,29,-29,-73,9,-429
-63,-34,29,48,-46,-2,-68,29,-29,-68,4,-429
-78,-48,29,63,-53,-9,-68,29,-34,-68,4,-429
-82,-53,29,68,-56,-12,-58,29,-34,-68,4,-429
-92,-43,48,68,-70,2,-63,29,-34,-63,4,-434
-92,-48,43,70,-68,-2,-58,29,-34,-68,9,-434
-87,-48,39,68,-63,-4,-58,29,-34,-68,9,-434
-82,-48,34,65,-58,-7,-63,29,-34,-68,9,-434
-73,-34,39,53,-56,2,-53,29,-29,-63,9,-424
-68,-19,48,43,-58,14,-48,34,-24,-63,9,-419
-68,-14,53,41,-61,19,-48,34,-19,-63,9,-419
-68,-9,58,39,-63,24,-58,29,-24,-68,9,-429
-73,-24,48,48,-61,12,-63,39,-24,-68,0,-429
-73,-29,43,51,-58,7,-63,39,-29,-68,0,-424
-73,-34,39,53,-56,2,-63,39,-29,-63,0,-424
-68,-39,29,53,-48,-4,-63,43,-29,-63,0,-429
-53,-39,14,46,-34,-12,-73,34,-29,-68,-9,-434
-68,-39,29,53,-48,-4,-73,39,-29,-68,-9,-434
-87,-39,48,63,-68,4,-68,43,-29,-63,-4,-439
-82,-39,43,61,-63,2,-68,43,-24,-63,-4,-444
-73,-39,34,56,-53,-2,-53,43,-34,-73,-14,-444
-87,-48,39,68,-63,-4,-48,39,-34,-68,-14,-444
-87,-48,39,68,-63,-4,-53,39,-24,-63,-9,-434
-78,-39,39,58,-58,0,-63,43,-14,-58,-4,-434
-87,-48,39,68,-63,-4,-63,39,-19,-68,-14,-424
-92,-48,43,70,-68,-2,-58,34,-24,-68,-14,-424
-97,-48,48,73,-73,0,-58,29,-29,-68,-9,-424
-97,-39,58,68,-78,9,-58,29,-34,-68,-9,-424
-97,-43,53,70,-75,4,-58,29,-29,-68,-19,-424
-102,-48,53,75,-78,2,-73,29,-29,-63,-19,-419
-102,-43,58,73,-80,7,-73,29,-29,-58,-19,-419
-97,-48,48,73,-73,0,-82,29,-29,-58,-19,-419
-87,-48,39,68,-63,-4,-78,39,-14,-68,-24,-424
-87,-53,34,70,-61,-9,-73,39,-14,-68,-24,-424
-78,-53,24,65,-51,-14,-78,39,-24,-68,-24,-434
-78,-53,24,65,-51,-14,-82,29,-24,-73,-34,-434
-68,-43,24,56,-46,-9,-92,29,-34,-73,-43,-434
-58,-43,14,51,-36,-14,-82,34,-34,-73,-43,-429
-58,-43,14,51,-36,-14,-73,34,-34,-73,-43,-429
-73,-48,24,61,-48,-12,-73,24,-39,-78,-48,-429
-82,-68,14,75,-48,-26,-73,19,-43,-68,-63,-434
-82,-48,34,65,-58,-7,-92,14,-39,-78,-63,-434
-78,-48,29,63,-53,-9,-92,14,-53,-78,-48,-429
-73,-39,34,56,-53,-2,-97,14,-48,-73,-48,-424
-73,-48,24,61,-48,-12,-92,24,-39,-68,-43,-419
-78,-58,19,68,-48,-19,-102,24,-34,-73,-48,-419
-82,-48,34,65,-58,-7,-97,29,-24,-73,-53,-414
-87,-48,39,68,-63,-4,-92,34,-19,-68,-53,-409
-97,-43,53,70,-75,4,-82,43,-24,-58,-53,-414
-97,-43,53,70,-75,4,-78,43,-24,-58,-53,-419
-82,-48,34,65,-58,-7,-73,39,-34,-68,-53,-419
-97,-43,53,70,-75,4,-63,39,-34,-68,-53,-419
-97,-43,53,70,-75,4,-58,43,-34,-68,-63,-414
-92,-48,43,70,-68,-2,-68,39,-29,-68,-63,-409
-97,-58,39,78,-68,-9,-82,39,-29,-63,-68,-409
-87,-68,19,78,-53,-24,-97,29,-29,-68,-68,-409
-82,-58,24,70,-53,-17,-87,29,-34,-78,-73,-419
-78,-58,19,68,-48,-19,-87,29,-39,-78,-78,-419
-73,-58,14,65,-43,-21,-87,29,-43,-78,-82,-419
-68,-58,9,63,-39,-24,-87,29,-48,-78,-87,-419
-73,-58,14,65,-43,-21,-82,29,-39,-68,-87,-409
-78,-58,19,68,-48,-19,-78,29,-39,-68,-87,-409
-82,-58,24,70,-53,-17,-73,29,-39,-68,-87,-409
-87,-58,29,73,-58,-14,-68,29,-39,-68,-87,-409
-97,-58,39,78,-68,-9,-73,29,-39,-68,-92,-409
-97,-58,39,78,-68,-9,-78,29,-39,-68,-97,-409
-97,-58,39,78,-68,-9,-82,29,-39,-68,-102,-409
-97,-58,39,78,-68,-9,-87,29,-39,-68,-107,-409
-102,-48,53,75,-78,2,-78,29,-39,-68,-117,-405
-107,-48,58,78,-82,4,-78,29,-39,-68,-117,-400
-112,-48,63,80,-87,7,-78,29,-39,-68,-117,-395
-117,-48,68,82,-92,9,-78,29,-39,-68,-117,-390
-97,-48,48,73,-73,0,-87,39,-48,-68,-122,-400
-87,-48,39,68,-63,-4,-87,39,-48,-68,-126,-400
-78,-48,29,63,-53,-9,-87,39,-48,-68,-131,-400
-68,-48,19,58,-43,-14,-87,39,-48,-68,-136,-400
-87,-58,29,73,-58,-14,-87,29,-58,-78,-146,-400
-97,-68,29,82,-63,-19,-87,29,-58,-78,-156,-400
-107,-78,29,92,-68,-24,-87,29,-58,-78,-165,-400
-117,-87,29,102,-73,-29,-87,29,-58,-78,-175,-400
-107,-68,39,87,-73,-14,-78,39,-53,-73,-185,-395
-97,-58,39,78,-68,-9,-78,39,-48,-68,-185,-390
-87,-48,39,68,-63,-4,-78,39,-43,-63,-185,-385
-78,-39,39,58,-58,0,-78,39,-39,-58,-185,-380
-97,-58,39,78,-68,-9,-87,29,-48,-68,-190,-380
-107,-68,39,87,-73,-14,-87,29,-48,-68,-195,-380
-117,-78,39,97,-78,-19,-87,29,-48,-68,-200,-380
-126,-87,39,107,-82,-24,-87,29,-48,-68,-204,-380
-112,-73,39,92,-75,-17,-82,39,-48,-68,-204,-370
-107,-68,39,87,-73,-14,-78,39,-48,-68,-204,-370
-102,-63,39,82,-70,-12,-73,39,-48,-68,-204,-370
-97,-58,39,78,-68,-9,-68,39,-48,-68,-204,-370
-107,-63,43,85,-75,-9,-78,39,-58,-68,-209,-380
-107,-68,39,87,-73,-14,-78,39,-58,-68,-214,-380
-107,-73,34,90,-70,-19,-78,39,-58,-68,-219,-380
-107,-78,29,92,-68,-24,-78,39,-58,-68,-224,-380
-92,-68,24,80,-58,-21,-82,29,-58,-78,-239,-390
-87,-68,19,78,-53,-24,-87,29,-58,-78,-244,-390
-82,-68,14,75,-48,-26,-92,29,-58,-78,-248,-390
-78,-68,9,73,-43,-29,-97,29,-58,-78,-253,-390
-82,-78,4,80,-43,-36,-97,29,-58,-78,-263,-380
-87,-78,9,82,-48,-34,-97,29,-58,-78,-263,-380
-92,-78,14,85,-53,-31,-97,29,-58,-78,-263,-380
-97,-78,19,87,-58,-29,-97,29,-58,-78,-263,-380
-102,-78,24,90,-63,-26,-82,39,-48,-68,-273,-370
-107,-78,29,92,-68,-24,-78,39,-48,-68,-273,-370
-112,-78,34,95,-73,-21,-73,39,-48,-68,-273,-370
-117,-78,39,97,-78,-19,-68,39,-48,-68,-273,-370
-112,-78,34,95,-73,-21,-78,39,-53,-78,-283,-370
-107,-78,29,92,-68,-24,-78,39,-58,-78,-283,-370
-102,-78,24,90,-63,-26,-78,39,-63,-78,-283,-370
-97,-78,19,87,-58,-29,-78,39,-68,-78,-283,-370
-102,-82,19,92,-61,-31,-68,39,-58,-78,-283,-361
-107,-87,19,97,-63,-34,-68,39,-58,-78,-283,-361
-112,-92,19,102,-65,-36,-68,39,-58,-78,-283,-361
-117,-97,19,107,-68,-39,-68,39,-58,-78,-283,-361
-112,-87,24,100,-68,-31,-73,39,-68,-78,-292,-361
-107,-87,19,97,-63,-34,-78,39,-68,-78,-292,-361
-102,-87,14,95,-58,-36,-82,39,-68,-78,-292,-361
-97,-87,9,92,-53,-39,-87,39,-68,-78,-292,-361
-97,-78,19,87,-58,-29,-78,39,-58,-78,-292,-361
-97,-78,19,87,-58,-29,-78,39,-58,-78,-292,-361
-97,-78,19,87,-58,-29,-78,39,-58,-78,-292,-361
-97,-78,19,87,-58,-29,-78,39,-58,-78,-292,-361
-102,-68,34,85,-68,-17,-78,48,-58,-73,-283,-356
-107,-68,39,87,-73,-14,-78,48,-58,-68,-283,-351
-112,-68,43,90,-78,-12,-78,48,-58,-63,-283,-346
-117,-68,48,92,-82,-9,-78,48,-58,-58,-283,-341
-102,-63,39,82,-70,-12,-78,48,-48,-68,-283,-341
-97,-58,39,78,-68,-9,-78,48,-48,-68,-283,-341
-92,-53,39,73,-65,-7,-78,48,-48,-68,-283,-341
-87,-48,39,68,-63,-4,-78,48,-48,-68,-283,-341
-82,-53,29,68,-56,-12,-82,39,-53,-68,-287,-351
-78,-58,19,68,-48,-19,-87,39,-58,-68,-292,-351
-73,-63,9,68,-41,-26,-92,39,-63,-68,-297,-351
-68,-68,0,68,-34,-34,-97,39,-68,-68,-302,-351
-82,-68,14,75,-48,-26,-92,48,-63,-68,-292,-351
-87,-68,19,78,-53,-24,-87,48,-58,-68,-292,-351
-92,-68,24,80,-58,-21,-82,48,-53,-68,-292,-351
-97,-68,29,82,-63,-19,-78,48,-48,-68,-292,-351
-107,-68,39,87,-73,-14,-78,48,-53,-68,-292,-341
-107,-68,39,87,-73,-14,-78,48,-58,-68,-292,-341
-107,-68,39,87,-73,-14,-78,48,-63,-68,-292,-341
-107,-68,39,87,-73,-14,-78,48,-68,-68,-292,-341
-117,-78,39,97,-78,-19,-78,39,-68,-78,-292,-341
-117,-78,39,97,-78,-19,-78,39,-68,-78,-292,-341
-117,-78,39,97,-78,-19,-78,39,-68,-78,-292,-341
-117,-78,39,97,-78,-19,-78,39,-68,-78,-292,-341
-107,-78,29,92,-68,-24,-87,48,-58,-87,-283,-331
-107,-78,29,92,-68,-24,-87,48,-58,-87,-283,-331
-107,-78,29,92,-68,-24,-87,48,-58,-87,-283,-331
-107,-78,29,92,-68,-24,-87,48,-58,-87,-283,-331
-92,-68,24,80,-58,-21,-78,48,-43,-82,-273,-322
-87,-68,19,78,-53,-24,-78,48,-39,-78,-273,-322
-82,-68,14,75,-48,-26,-78,48,-34,-73,-273,-322
-78,-68,9,73,-43,-29,-78,48,-29,-68,-273,-322
-82,-63,19,73,-51,-21,-82,53,-43,-82,-287,-331
-82,-63,19,73,-51,-21,-82,48,-43,-82,-287,-331
-82,-58,24,70,-53,-17,-92,48,-43,-82,-287,-331
-78,-58,19,68,-48,-19,-92,53,-43,-87,-287,-326
-78,-48,29,63,-53,-9,-92,58,-39,-78,-273,-317
-82,-53,29,68,-56,-12,-92,53,-39,-78,-273,-317
-87,-68,19,78,-53,-24,-92,48,-39,-78,-283,-317
-87,-73,14,80,-51,-29,-92,43,-39,-78,-283,-312
-78,-58,19,68,-48,-19,-97,58,-29,-58,-278,-297
-68,-53,14,61,-41,-19,-82,78,-19,-53,-268,-297
-63,-53,9,58,-36,-21,-63,87,-9,-53,-258,-297
-58,-39,19,48,-39,-9,-48,102,0,-48,-253,-297
-68,-39,29,53,-48,-4,-29,122,14,-29,-244,-287
-68,-43,24,56,-46,-9,-14,131,24,-19,-239,-283
-63,-43,19,53,-41,-12,-9,131,34,-14,-234,-278
-63,-43,19,53,-41,-12,0,136,43,-14,-229,-273
-58,-43,14,51,-36,-14,4,141,39,-4,-214,-258
-53,-39,14,46,-34,-12,19,146,53,-4,-214,-253
-43,-29,14,36,-29,-7,19,156,63,0,-214,-253
-39,-9,29,24,-34,9,19,156,68,0,-204,-253
-9,4,14,2,-12,9,24,175,82,9,-195,-248
-9,0,9,4,-9,4,24,175,78,19,-195,-244
-19,4,24,7,-21,14,14,170,82,19,-190,-234
-39,0,39,19,-39,19,9,170,87,19,-190,-229
-29,14,43,7,-36,29,-19,170,73,19,-200,-239
-29,-4,24,17,-26,9,-63,161,68,4,-204,-244
-14,-29,-14,21,0,-21,-102,146,58,-4,-209,-244
-4,-29,-24,17,9,-26,-126,122,43,-14,-214,-244
4,-29,-34,12,19,-31,-146,87,34,-39,-214,-244
-14,-29,-14,21,0,-21,-151,82,19,-43,-219,-253
-14,-29,-14,21,0,-21,-165,63,4,-53,-229,-258
-19,-29,-9,24,-4,-19,-165,53,-9,-63,-234,-258
-34,-39,-4,36,-14,-21,-156,34,-19,-68,-239,-258
-43,-34,9,39,-26,-12,-161,29,-9,-68,-239,-258
-48,-34,14,41,-31,-9,-161,24,-9,-68,-239,-258
-53,-34,19,43,-36,-7,-156,24,-9,-68,-239,-258
-53,-34,19,43,-36,-7,-165,24,-9,-78,-239,-253
-53,-29,24,41,-39,-2,-161,24,-9,-78,-239,-253
-53,-29,24,41,-39,-2,-161,29,-9,-73,-244,-253
-53,-29,24,41,-39,-2,-151,29,-4,-73,-248,-248
-34,-19,14,26,-24,-2,-151,34,4,-63,-239,-234
-19,9,29,4,-24,19,-151,34,4,-48,-229,-219
-24,4,29,9,-26,17,-151,34,4,-58,-219,-219
-19,14,34,2,-26,24,-151,39,4,-53,-204,-219
-34,4,39,14,-36,21,-141,39,14,-58,-214,-219
-43,-14,29,29,-36,7,-136,39,9,-58,-219,-229
-53,-24,29,39,-41,2,-122,39,0,-58,-229,-234
-68,-29,39,48,-53,4,-107,48,9,-58,-229,-234
-68,-48,19,58,-43,-14,-102,43,9,-68,-239,-244
-73,-63,9,68,-41,-26,-102,43,-9,-78,-244,-248
-78,-82,-4,80,-36,-43,-92,39,-14,-82,-253,-248
-78,-97,-19,87,-29,-58,-92,29,-24,-92,-253,-258
-73,-82,-9,78,-31,-46,-97,29,-24,-97,-258,-263
-68,-73,-4,70,-31,-39,-92,34,-24,-97,-258,-273
-68,-58,9,63,-39,-24,-82,39,-24,-97,-263,-273
-78,-48,29,63,-53,-9,-78,43,-24,-97,-263,-268
-82,-63,19,73,-51,-21,-97,34,-24,-97,-263,-268
-87,-78,9,82,-48,-34,-97,29,-24,-97,-268,-268
-97,-78,19,87,-58,-29,-92,29,-24,-97,-268,-268
-102,-68,34,85,-68,-17,-87,29,-24,-102,-268,-268
-97,-78,19,87,-58,-29,-97,14,-39,-112,-278,-278
-97,-82,14,90,-56,-34,-97,14,-39,-122,-278,-283
-102,-87,14,95,-58,-36,-97,14,-43,-122,-278,-283
-102,-87,14,95,-58,-36,-97,14,-43,-122,-278,-283
-97,-82,14,90,-56,-34,-92,19,-24,-117,-273,-278
-97,-73,24,85,-61,-24,-92,19,-24,-122,-273,-278
-87,-68,19,78,-53,-24,-87,19,-29,-117,-273,-278
-87,-63,24,75,-56,-19,-87,24,-29,-112,-278,-278
-102,-63,39,82,-70,-12,-82,14,-19,-102,-273,-268
-112,-58,53,85,-82,-2,-82,19,-19,-102,-268,-268
-117,-53,63,85,-90,4,-82,19,-24,-102,-263,-268
-122,-58,63,90,-92,2,-82,9,-24,-102,-258,-268
-92,-68,24,80,-58,-21,-82,19,-19,-112,-278,-268
-82,-63,19,73,-51,-21,-78,19,-29,-112,-273,-278
-112,-73,39,92,-75,-17,-73,29,-19,-112,-273,-278
-131,-78,53,104,-92,-12,-63,39,-14,-102,-263,-273
-107,-68,39,87,-73,-14,-63,39,-14,-107,-263,-287
-92,-82,9,87,-51,-36,-58,39,-24,-117,-287,-307
-131,-107,24,119,-78,-41,-29,58,-14,-122,-297,-317
-146,-117,29,131,-87,-43,-14,92,0,-122,-312,-322
-141,-122,19,131,-80,-51,-14,107,14,-102,-307,-331
-146,-131,14,139,-80,-58,-9,107,34,-82,-287,-322
-146,-126,19,136,-82,-53,-9,102,53,-39,-253,-312
-122,-102,19,112,-70,-41,-19,87,68,4,-200,-268
-102,-73,29,87,-65,-21,-24,78,92,58,-112,-195
-73,-43,29,58,-51,-7,-43,78,136,146,19,-102
14,-19,-34,2,24,-26,-68,122,195,244,146,0
117,-14,-131,-51,124,-73,-112,185,248,331,268,107
244,4,-239,-124,241,-117,-161,273,292,414,385,204
366,34,-331,-200,348,-148,-219,341,331,473,497,292
458,92,-366,-275,412,-136,-273,366,366,522,570,366
531,195,-336,-363,434,-70,-317,370,429,561,614,444
580,370,-209,-475,395,80,-370,317,488,610,644,522
556,517,-39,-536,297,239,-434,112,429,531,551,536
439,595,156,-517,141,375,-478,-263,209,273,297,444
253,644,390,-448,-68,517,-478,-683,-73,-43,-9,312
87,668,580,-378,-246,624,-468,-1054,-287,-278,-248,195
-53,614,668,-280,-361,641,-463,-1356,-468,-434,-385,97
-204,531,736,-163,-470,634,-444,-1532,-619,-541,-483,0
-351,512,863,-80,-607,688,-385,-1537,-639,-551,-512,-63
-395,522,917,-63,-656,719,-326,-1444,-595,-507,-492,-112
