I,II,III,aVR,aVL,aVF,V1,V2,V3,V4,V5,V6
0,-58,-58,29,29,-58,-136,546,253,9,-97,-39
0,-58,-58,29,29,-58,-136,546,253,9,-97,-39
0,-58,-58,29,29,-58,-136,546,253,9,-97,-39
0,-58,-58,29,29,-58,-136,546,253,9,-97,-39
19,-73,-92,26,56,-82,-107,536,268,0,-92,-29
29,-78,-107,24,68,-92,-87,527,273,0,-87,-19
39,-82,-122,21,80,-102,-68,517,278,0,-82,-9
48,-87,-136,19,92,-112,-48,507,283,0,-78,0
29,-68,-97,19,63,-82,-53,458,244,-48,-107,-24
19,-58,-78,19,48,-68,-58,419,214,-87,-136,-48
9,-48,-58,19,34,-53,-63,380,185,-126,-165,-73
0,-39,-39,19,19,-39,-68,341,156,-165,-195,-97
4,-48,-53,21,29,-51,-58,302,131,-156,-214,-112
9,-58,-68,24,39,-63,-58,263,117,-156,-224,-117
14,-68,-82,26,48,-75,-58,224,102,-156,-234,-122
19,-78,-97,29,58,-87,-58,185,87,-156,-244,-126
-4,-92,-87,48,41,-90,-29,200,68,-190,-268,-126
-29,-97,-68,63,19,-82,-9,214,48,-214,-283,-126
-53,-102,-48,78,-2,-75,9,229,29,-239,-297,-126
-78,-107,-29,92,-24,-68,29,244,9,-263,-312,-126
-82,-117,-34,100,-24,-75,19,239,-24,-322,-341,-151
-87,-126,-39,107,-24,-82,9,234,-48,-370,-370,-165
-92,-136,-43,114,-24,-90,0,229,-73,-419,-400,-180
-97,-146,-48,122,-24,-97,-9,224,-97,-468,-429,-195
-107,-161,-53,134,-26,-107,-9,190,-131,-488,-468,-219
-107,-165,-58,136,-24,-112,-9,156,-156,-507,-497,-234
-107,-170,-63,139,-21,-117,-9,122,-180,-527,-527,-248
-107,-175,-68,141,-19,-122,-9,87,-204,-546,-556,-263
-136,-200,-63,168,-36,-131,19,107,-234,-575,-566,-278
-165,-214,-48,190,-58,-131,39,126,-253,-595,-575,-283
-195,-229,-34,212,-80,-131,58,146,-273,-614,-585,-287
-224,-244,-19,234,-102,-131,78,165,-292,-634,-595,-292
-214,-224,-9,219,-102,-117,78,165,-322,-668,-619,-312
-214,-214,0,214,-107,-107,78,165,-341,-702,-634,-322
-214,-204,9,209,-112,-97,78,165,-361,-736,-649,-331
-214,-195,19,204,-117,-87,78,165,-380,-771,-663,-341
-204,-204,0,204,-102,-102,102,131,-395,-780,-678,-356
-195,-204,-9,200,-92,-107,117,107,-409,-780,-692,-370
-185,-204,-19,195,-82,-112,131,82,-424,-780,-707,-385
-175,-204,-29,190,-73,-117,146,58,-439,-780,-722,-400
-161,-195,-34,178,-63,-114,131,24,-458,-800,-727,-409
-156,-195,-39,175,-58,-117,126,0,-468,-810,-732,-409
-151,-195,-43,173,-53,-119,122,-24,-478,-819,-736,-409
-146,-195,-48,170,-48,-122,117,-48,-488,-829,-741,-409
-156,-195,-39,175,-58,-117,102,-73,-492,-844,-761,-424
-165,-195,-29,180,-68,-112,97,-97,-497,-858,-771,-439
-175,-195,-19,185,-78,-107,92,-122,-502,-873,-780,-453
-185,-195,-9,190,-87,-102,87,-146,-507,-888,-790,-468
-200,-229,-29,214,-85,-129,97,-170,-517,-893,-780,-453
-214,-253,-39,234,-87,-146,107,-195,-517,-897,-771,-448
-229,-278,-48,253,-90,-163,117,-219,-517,-902,-761,-444
-244,-302,-58,273,-92,-180,126,-244,-517,-907,-751,-439
-229,-283,-53,256,-87,-168,136,-234,-522,-893,-741,-439
-224,-263,-39,244,-92,-151,136,-234,-527,-878,-741,-439
-219,-244,-24,231,-97,-134,136,-234,-531,-863,-741,-439
-214,-224,-9,219,-102,-117,136,-234,-536,-849,-741,-439
-204,-219,-14,212,-95,-117,136,-244,-512,-819,-722,-429
-195,-214,-19,204,-87,-117,136,-244,-497,-800,-712,-429
-185,-209,-24,197,-80,-117,136,-244,-483,-780,-702,-429
-175,-204,-29,190,-73,-117,136,-244,-468,-761,-692,-429
-151,-161,-9,156,-70,-85,146,-253,-458,-741,-663,-414
-136,-126,9,131,-73,-58,146,-263,-448,-732,-644,-400
-122,-92,29,107,-75,-31,146,-273,-439,-722,-624,-385
-107,-58,48,82,-78,-4,146,-283,-429,-712,-605,-370
-102,-73,29,87,-65,-21,126,-297,-409,-697,-600,-375
-97,-78,19,87,-58,-29,107,-312,-400,-683,-595,-380
-92,-82,9,87,-51,-36,87,-326,-390,-668,-590,-385
-87,-87,0,87,-43,-43,68,-341,-380,-653,-585,-390
-102,-87,14,95,-58,-36,87,-356,-341,-605,-551,-356
-107,-87,19,97,-63,-34,107,-361,-312,-556,-517,-322
-112,-87,24,100,-68,-31,126,-366,-283,-507,-483,-287
-117,-87,29,102,-73,-29,146,-370,-253,-458,-448,-253
-141,-97,43,119,-92,-26,122,-366,-229,-444,-434,-229
-156,-107,48,131,-102,-29,107,-361,-214,-429,-419,-214
-170,-117,53,143,-112,-31,92,-356,-200,-414,-405,-200
-185,-126,58,156,-122,-34,78,-351,-185,-400,-390,-185
-175,-112,63,143,-119,-24,102,-336,-165,-390,-361,-170
-165,-107,58,136,-112,-24,117,-322,-156,-390,-341,-165
-156,-102,53,129,-104,-24,131,-307,-146,-390,-322,-161
-146,-97,48,122,-97,-24,146,-292,-136,-390,-302,-156
-122,-73,48,97,-85,-12,126,-331,-117,-370,-283,-131
-97,-58,39,78,-68,-9,117,-361,-97,-351,-263,-117
-73,-43,29,58,-51,-7,107,-390,-78,-331,-244,-102
-48,-29,19,39,-34,-4,97,-419,-58,-312,-224,-87
-43,-19,24,31,-34,2,82,-434,-58,-283,-219,-97
-39,-19,19,29,-29,0,78,-439,-58,-263,-214,-97
-34,-19,14,26,-24,-2,73,-444,-58,-244,-209,-97
-29,-19,9,24,-19,-4,68,-448,-58,-224,-204,-97
-14,9,24,2,-19,17,92,-453,-39,-204,-175,-78
-9,39,48,-14,-29,43,107,-458,-19,-185,-156,-68
-4,68,73,-31,-39,70,122,-463,0,-165,-136,-58
0,97,97,-48,-48,97,136,-468,19,-146,-117,-48
-9,112,122,-51,-65,117,146,-434,48,-136,-97,-24
-19,117,136,-48,-78,126,146,-409,68,-126,-78,-9
-29,122,151,-46,-90,136,146,-385,87,-117,-58,4
-39,126,165,-43,-102,146,146,-361,107,-107,-39,19
-58,97,156,-19,-107,126,146,-331,126,-87,-24,24
-68,68,136,0,-102,102,146,-302,136,-78,-19,29
-78,39,117,19,-97,78,146,-273,146,-68,-14,34
-87,9,97,39,-92,53,146,-244,156,-58,-9,39
-73,29,102,21,-87,65,122,-273,151,-68,-24,29
-58,48,107,4,-82,78,107,-302,146,-78,-29,19
-43,68,112,-12,-78,90,92,-331,141,-87,-34,9
-29,87,117,-29,-73,102,78,-361,136,-97,-39,0
-24,122,146,-48,-85,134,78,-366,126,-112,-19,14
-19,146,165,-63,-92,156,78,-370,126,-117,-9,19
-14,170,185,-78,-100,178,78,-375,126,-122,0,24
-9,195,204,-92,-107,200,78,-380,126,-126,9,29
29,185,156,-107,-63,170,68,-361,146,-82,14,53
58,175,117,-117,-29,146,68,-341,165,-48,19,68
87,165,78,-126,4,122,68,-322,185,-14,24,82
117,156,39,-136,39,97,68,-302,204,19,29,97
87,161,73,-124,7,117,63,-322,195,14,39,87
68,165,97,-117,-14,131,58,-341,195,9,39,87
48,170,122,-109,-36,146,53,-361,195,4,39,87
29,175,146,-102,-58,161,48,-380,195,0,39,87
34,180,146,-107,-56,163,58,-366,195,0,48,97
39,185,146,-112,-53,165,68,-361,195,0,58,97
43,190,146,-117,-51,168,78,-356,195,0,68,97
48,195,146,-122,-48,170,87,-351,195,0,78,97
68,156,87,-112,-9,122,92,-307,200,29,92,112
78,126,48,-102,14,87,97,-263,204,48,97,117
87,97,9,-92,39,53,102,-219,209,68,102,122
97,68,-29,-82,63,19,107,-175,214,87,107,126
58,43,-14,-51,36,14,82,-190,190,68,92,112
19,29,9,-24,4,19,58,-195,175,48,78,97
-19,14,34,2,-26,24,34,-200,161,29,63,82
-58,0,58,29,-58,29,9,-204,146,9,48,68
-53,14,68,19,-61,41,19,-195,136,0,58,78
-48,19,68,14,-58,43,19,-185,136,0,58,78
-43,24,68,9,-56,46,19,-175,136,0,58,78
-39,29,68,4,-53,48,19,-165,136,0,58,78
-58,53,112,2,-85,82,24,-126,146,4,68,68
-68,68,136,0,-102,102,29,-97,156,9,68,68
-78,82,161,-2,-119,122,34,-68,165,14,68,68
-87,97,185,-4,-136,141,39,-39,175,19,68,68
-53,107,161,-26,-107,134,48,-24,161,34,82,73
-19,107,126,-43,-73,117,58,-9,156,39,87,78
14,107,92,-61,-39,100,68,4,151,43,92,82
48,107,58,-78,-4,82,78,19,146,48,97,87
39,107,68,-73,-14,87,68,-4,151,68,107,73
29,107,78,-68,-24,92,68,-19,156,78,107,68
19,107,87,-63,-34,97,68,-34,161,87,107,63
9,107,97,-58,-43,102,68,-48,165,97,107,58
0,68,68,-34,-34,68,68,-29,151,97,112,63
-9,29,39,-9,-24,34,68,-19,146,97,117,68
-19,-9,9,14,-14,0,68,-9,141,97,122,73
-29,-48,-19,39,-4,-34,68,0,136,97,126,78
-14,19,34,-2,-24,26,73,29,156,122,136,92
0,78,78,-39,-39,78,78,58,165,136,146,97
14,136,122,-75,-53,129,82,87,175,151,156,102
29,195,165,-112,-68,180,87,117,185,165,165,107
43,170,126,-107,-41,148,73,97,170,156,156,102
48,156,107,-102,-29,131,58,87,165,156,156,97
53,141,87,-97,-17,114,43,78,161,156,156,92
58,126,68,-92,-4,97,29,68,156,156,156,87
68,126,58,-97,4,92,43,53,151,165,175,107
78,126,48,-102,14,87,58,48,146,165,185,117
87,126,39,-107,24,82,73,43,141,165,195,126
97,126,29,-112,34,78,87,39,136,165,204,136
58,112,53,-85,2,82,87,63,126,165,209,156
29,107,78,-68,-24,92,87,78,126,165,214,165
0,102,102,-51,-51,102,87,92,126,165,219,175
-29,97,126,-34,-78,112,87,107,126,165,224,185
-4,87,92,-41,-48,90,78,146,146,180,234,195
9,87,78,-48,-34,82,68,185,156,195,234,195
24,87,63,-56,-19,75,58,224,165,209,234,195
39,87,48,-63,-4,68,48,263,175,224,234,195
39,68,29,-53,4,48,39,258,151,209,214,185
39,48,9,-43,14,29,29,253,126,195,204,175
39,29,-9,-34,24,9,19,248,102,180,195,165
39,9,-29,-24,34,-9,9,244,78,165,185,156
29,43,14,-36,7,29,14,283,87,180,190,146
19,78,58,-48,-19,68,19,322,87,185,195,146
9,112,102,-61,-46,107,24,361,87,190,200,146
0,146,146,-73,-73,146,29,400,87,195,204,146
126,136,9,-131,58,73,68,497,195,312,312,234
146,136,-9,-141,78,63,58,478,224,302,302,234
68,136,68,-102,0,102,19,419,165,234,244,175
19,107,87,-63,-34,97,29,439,136,195,195,146
0,107,107,-53,-53,107,58,497,195,185,175,126
0,175,175,-87,-87,175,48,517,234,195,165,107
48,204,156,-126,-53,180,29,507,214,214,156,68
97,146,48,-122,24,97,19,507,234,283,156,48
68,117,48,-92,9,82,-9,517,273,400,214,68
29,224,195,-126,-82,209,-87,517,292,556,302,87
78,312,234,-195,-78,273,-146,546,409,780,478,195
126,341,214,-234,-43,278,-136,663,595,1112,771,400
175,400,224,-287,-24,312,-175,790,741,1522,1122,644
234,497,263,-366,-14,380,-263,810,761,1893,1415,810
341,624,283,-483,29,453,-351,683,702,2215,1688,976
468,722,253,-595,107,488,-409,517,575,2498,1961,1190
536,761,224,-649,156,492,-458,370,380,2625,2137,1356
605,810,204,-707,200,507,-488,224,97,2469,2088,1385
624,732,107,-678,258,419,-439,175,-146,1942,1737,1259
468,448,-19,-458,244,214,-263,283,-312,1132,1141,985
244,185,-58,-214,151,63,-9,380,-478,400,536,653
0,78,78,-39,-39,78,263,380,-624,-78,117,341
-185,58,244,63,-214,151,478,429,-741,-429,-165,97
-204,39,244,82,-224,141,575,527,-897,-624,-331,-58
-165,0,165,82,-165,82,575,585,-1073,-663,-409,-165
-224,0,224,112,-224,112,497,585,-1210,-712,-478,-273
-331,-39,292,185,-312,126,390,556,-1249,-732,-507,-312
-351,-146,204,248,-278,29,283,517,-1229,-644,-468,-283
-195,-117,78,156,-136,-19,165,488,-1161,-507,-390,-234
-19,-9,9,14,-14,0,58,497,-1044,-390,-312,-195
-39,-19,19,29,-29,0,-29,488,-897,-322,-273,-175
-87,-58,29,73,-58,-14,-107,468,-732,-253,-214,-156
-29,-19,9,24,-19,-4,-146,556,-517,-185,-136,-87
78,78,0,-78,39,39,-126,683,-331,-87,-39,-9
58,146,87,-102,-14,117,-126,692,-234,-19,-9,0
0,156,156,-78,-78,156,-146,683,-185,39,-19,-19
19,185,165,-102,-73,175,-117,673,-107,146,19,0
19,185,165,-102,-73,175,-107,634,-68,204,48,9
4,141,136,-73,-65,139,-122,639,-53,204,29,0
-9,107,117,-48,-63,112,-126,644,-39,204,19,0
-24,73,97,-24,-61,85,-131,649,-24,204,9,0
-39,39,78,0,-58,58,-136,653,-9,204,0,0
-24,24,48,0,-36,36,-97,673,4,195,14,4
-19,9,29,4,-24,19,-68,692,19,195,19,9
-14,-4,9,9,-12,2,-39,712,34,195,24,14
-9,-19,-9,14,0,-14,-9,732,48,195,29,19
9,29,19,-19,-4,24,0,707,68,204,39,9
19,68,48,-43,-14,58,9,683,78,214,39,9
29,107,78,-68,-24,92,19,658,87,224,39,9
39,146,107,-92,-34,126,29,634,97,234,39,9
48,151,102,-100,-26,126,4,658,97,214,29,0
48,156,107,-102,-29,131,-9,673,97,195,19,0
48,161,112,-104,-31,136,-24,688,97,175,9,0
48,165,117,-107,-34,141,-39,702,97,156,0,0
63,107,43,-85,9,75,-24,702,112,185,19,19
78,58,-19,-68,48,19,-9,702,126,204,29,29
92,9,-82,-51,87,-36,4,702,141,224,39,39
107,-39,-146,-34,126,-92,19,702,156,244,48,48
78,-48,-126,-14,102,-87,-4,673,141,219,24,24
48,-48,-97,0,73,-73,-19,644,126,204,9,9
19,-48,-68,14,43,-58,-34,614,112,190,-4,-4
-9,-48,-39,29,14,-43,-48,585,97,175,-19,-19
29,-4,-34,-12,31,-19,-34,605,122,200,4,0
58,39,-19,-48,39,9,-29,624,136,214,19,9
87,82,-4,-85,46,39,-24,644,151,229,34,19
117,126,9,-122,53,68,-19,663,165,244,48,29
117,117,0,-117,58,58,-48,663,136,209,29,0
117,107,-9,-112,63,48,-68,663,117,185,9,-19
117,97,-19,-107,68,39,-87,663,97,161,-9,-39
117,87,-29,-102,73,29,-107,663,78,136,-29,-58
151,107,-43,-129,97,31,-92,678,73,146,-19,-53
175,117,-58,-146,117,29,-87,683,68,156,-9,-48
200,126,-73,-163,136,26,-82,688,63,165,0,-43
224,136,-87,-180,156,24,-78,692,58,175,9,-39
175,107,-68,-141,122,19,-78,727,68,165,24,-29
136,87,-48,-112,92,19,-78,751,78,165,29,-19
97,68,-29,-82,63,19,-78,775,87,165,34,-9
58,48,-9,-53,34,19,-78,800,97,165,39,0
58,34,-24,-46,41,4,-78,756,87,175,39,9
58,29,-29,-43,43,0,-78,722,87,175,39,9
58,24,-34,-41,46,-4,-78,688,87,175,39,9
58,19,-39,-39,48,-9,-78,653,87,175,39,9
48,14,-34,-31,41,-9,-43,614,107,195,58,9
39,9,-29,-24,34,-9,-19,585,126,204,68,9
29,4,-24,-17,26,-9,4,556,146,214,78,9
19,0,-19,-9,19,-9,29,527,165,224,87,9
39,14,-24,-26,31,-4,24,502,156,219,73,0
58,29,-29,-43,43,0,19,478,146,214,68,0
78,43,-34,-61,56,4,14,453,136,209,63,0
97,58,-39,-78,68,9,9,429,126,204,58,0
87,24,-63,-56,75,-19,4,409,117,180,48,-9
78,0,-78,-39,78,-39,0,390,117,156,39,-19
68,-24,-92,-21,80,-58,-4,370,117,131,29,-29
58,-48,-107,-4,82,-78,-9,351,117,107,19,-39
68,-58,-126,-4,97,-92,-39,341,97,92,14,-53
68,-68,-136,0,102,-102,-58,341,78,78,9,-58
68,-78,-146,4,107,-112,-78,341,58,63,4,-63
68,-87,-156,9,112,-122,-97,341,39,48,0,-68
48,-78,-126,14,87,-102,-63,380,68,87,24,-43
29,-78,-107,24,68,-92,-39,409,87,117,39,-29
9,-78,-87,34,48,-82,-14,439,107,146,53,-14
-9,-78,-68,43,29,-73,9,468,126,175,68,0
0,-48,-48,24,24,-48,19,448,112,146,43,-19
0,-29,-29,14,14,-29,19,439,107,126,29,-29
0,-9,-9,4,4,-9,19,429,102,107,14,-39
0,9,9,-4,-4,9,19,419,97,87,0,-48
34,29,-4,-31,19,12,-14,409,87,87,-9,-43
68,48,-19,-58,43,14,-39,409,87,87,-9,-39
102,68,-34,-85,68,17,-63,409,87,87,-9,-34
136,87,-48,-112,92,19,-87,409,87,87,-9,-29
122,48,-73,-85,97,-12,-97,380,53,53,-29,-43
107,9,-97,-58,102,-43,-107,361,29,29,-39,-58
92,-29,-122,-31,107,-75,-117,341,4,4,-48,-73
78,-68,-146,-4,112,-107,-126,322,-19,-19,-58,-87
68,-68,-136,0,102,-102,-78,351,4,-4,-48,-63
58,-68,-126,4,92,-97,-29,370,19,0,-39,-48
48,-68,-117,9,82,-92,19,390,34,4,-29,-34
39,-68,-107,14,73,-87,68,409,48,9,-19,-19
53,-58,-112,2,82,-85,48,400,34,-19,-29,-29
58,-48,-107,-4,82,-78,39,400,19,-39,-39,-29
63,-39,-102,-12,82,-70,29,400,4,-58,-48,-29
68,-29,-97,-19,82,-63,19,400,-9,-78,-58,-29
34,-58,-92,12,63,-75,14,326,-43,-112,-92,-58
9,-78,-87,34,48,-82,9,263,-68,-146,-126,-78
-14,-97,-82,56,34,-90,4,200,-92,-180,-161,-97
-39,-117,-78,78,19,-97,0,136,-117,-214,-195,-117
-24,-112,-87,68,31,-100,19,151,-151,-253,-224,-136
-9,-107,-97,58,43,-102,29,156,-175,-283,-244,-146
4,-102,-107,48,56,-104,39,161,-200,-312,-263,-156
19,-97,-117,39,68,-107,48,165,-224,-341,-283,-165
0,-126,-126,63,63,-126,39,151,-248,-361,-302,-180
-9,-156,-146,82,68,-151,39,136,-263,-370,-322,-185
-19,-185,-165,102,73,-175,39,122,-278,-380,-341,-190
-29,-214,-185,122,78,-200,39,107,-292,-390,-361,-195
-48,-224,-175,136,63,-200,48,68,-331,-424,-385,-219
-58,-224,-165,141,53,-195,58,39,-361,-458,-409,-234
-68,-224,-156,146,43,-190,68,9,-390,-492,-434,-248
-78,-224,-146,151,34,-185,78,-19,-419,-527,-458,-263
-97,-244,-146,170,24,-195,82,-24,-448,-551,-473,-283
-107,-253,-146,180,19,-200,87,-29,-468,-566,-488,-292
-117,-263,-146,190,14,-204,92,-34,-488,-580,-502,-302
-126,-273,-146,200,9,-209,97,-39,-507,-595,-517,-312
-107,-248,-141,178,17,-195,87,-48,-531,-619,-546,-331
-97,-234,-136,165,19,-185,78,-48,-546,-644,-566,-341
-87,-219,-131,153,21,-175,68,-48,-561,-668,-585,-351
-78,-204,-126,141,24,-165,58,-48,-575,-692,-605,-361
-112,-229,-117,170,2,-173,39,-58,-614,-722,-624,-366
-136,-253,-117,195,-9,-185,29,-68,-644,-741,-644,-370
-161,-278,-117,219,-21,-197,19,-78,-673,-761,-663,-375
-185,-302,-117,244,-34,-209,9,-87,-702,-780,-683,-380
-136,-234,-97,185,-19,-165,19,-58,-692,-780,-673,-361
-97,-175,-78,136,-9,-126,29,-39,-683,-780,-663,-351
-58,-117,-58,87,0,-87,39,-19,-673,-780,-653,-341
-19,-58,-39,39,9,-48,48,0,-663,-780,-644,-331
-58,-78,-19,68,-19,-48,48,-19,-678,-780,-649,-346
-87,-97,-9,92,-39,-53,48,-39,-683,-780,-653,-361
-117,-117,0,117,-58,-58,48,-58,-688,-780,-658,-375
-146,-136,9,141,-78,-63,48,-78,-692,-780,-663,-390
-185,-190,-4,187,-90,-97,73,-78,-678,-771,-639,-375
-214,-234,-19,224,-97,-126,97,-78,-663,-761,-624,-361
-244,-278,-34,261,-104,-156,122,-78,-649,-751,-610,-346
-273,-322,-48,297,-112,-185,146,-78,-634,-741,-595,-331
-253,-312,-58,283,-97,-185,112,-102,-644,-736,-600,-346
-234,-302,-68,268,-82,-185,78,-126,-653,-732,-605,-361
-214,-292,-78,253,-68,-185,43,-151,-663,-727,-610,-375
-195,-283,-87,239,-53,-185,9,-175,-673,-722,-614,-390
-165,-224,-58,195,-53,-141,19,-185,-644,-697,-600,-375
-136,-175,-39,156,-48,-107,29,-185,-624,-673,-585,-361
-107,-126,-19,117,-43,-73,39,-185,-605,-649,-570,-346
-78,-78,0,78,-39,-39,48,-185,-585,-624,-556,-331
-97,-107,-9,102,-43,-58,73,-175,-566,-600,-527,-317
-107,-136,-29,122,-39,-82,87,-165,-546,-575,-507,-302
-117,-165,-48,141,-34,-107,102,-156,-527,-551,-488,-287
-126,-195,-68,161,-29,-131,117,-146,-507,-527,-468,-273
-122,-161,-39,141,-41,-100,122,-117,-483,-507,-444,-253
-117,-136,-19,126,-48,-78,126,-87,-468,-488,-429,-244
-112,-112,0,112,-56,-56,131,-58,-453,-468,-414,-234
-107,-87,19,97,-63,-34,136,-29,-439,-448,-400,-224
-87,-97,-9,92,-39,-53,117,-68,-400,-419,-366,-195
-78,-107,-29,92,-24,-68,97,-97,-370,-400,-341,-175
-68,-117,-48,92,-9,-82,78,-126,-341,-380,-317,-156
-58,-126,-68,92,4,-97,58,-156,-312,-361,-292,-136
-82,-141,-58,112,-12,-100,53,-165,-297,-341,-278,-136
-97,-156,-58,126,-19,-107,48,-165,-292,-331,-273,-136
-112,-170,-58,141,-26,-114,43,-165,-287,-322,-268,-136
-126,-185,-58,156,-34,-122,39,-165,-283,-312,-263,-136
-107,-170,-63,139,-21,-117,19,-131,-263,-297,-258,-126
-87,-156,-68,122,-9,-112,9,-107,-253,-283,-253,-126
-68,-141,-73,104,2,-107,0,-82,-244,-268,-248,-126
-48,-126,-78,87,14,-102,-9,-58,-234,-253,-244,-126
-58,-112,-53,85,-2,-82,-14,-78,-224,-248,-234,-141
-68,-107,-39,87,-14,-73,-19,-87,-224,-244,-234,-146
-78,-102,-24,90,-26,-63,-24,-97,-224,-239,-234,-151
-87,-97,-9,92,-39,-53,-29,-107,-224,-234,-234,-156
-43,-48,-4,46,-19,-26,4,-102,-185,-209,-204,-136
-9,-9,0,9,-4,-4,29,-97,-156,-185,-185,-117
24,29,4,-26,9,17,53,-92,-126,-161,-165,-97
58,68,9,-63,24,39,78,-87,-97,-136,-146,-78
48,39,-9,-43,29,14,58,-87,-87,-136,-136,-78
48,9,-39,-29,43,-14,48,-87,-87,-136,-136,-78
48,-19,-68,-14,58,-43,39,-87,-87,-136,-136,-78
24,-34,-58,4,41,-46,39,-73,-78,-122,-112,-78
24,-9,-34,-7,29,-21,9,-48,-87,-122,-107,-82
39,4,-34,-21,36,-14,-14,-34,-82,-126,-117,-92
82,24,-58,-53,70,-17,-48,0,-78,-122,-117,-102
48,43,-4,-46,26,19,-68,29,-68,-112,-122,-97
14,73,58,-43,-21,65,-63,24,-78,-117,-112,-102
14,102,87,-58,-36,95,-68,29,-78,-122,-112,-102
0,102,102,-51,-51,102,-68,19,-73,-117,-107,-92
-34,78,112,-21,-73,95,-58,9,-73,-122,-97,-92
-14,78,92,-31,-53,85,-4,87,-34,-97,-63,-63
29,112,82,-70,-26,97,29,97,0,-63,-48,-39
39,122,82,-80,-21,102,63,131,39,-34,-39,-29
43,136,92,-90,-24,114,97,161,68,-9,-29,-19
14,117,102,-65,-43,109,82,136,68,-14,-29,-14
-4,126,131,-61,-68,129,78,126,63,-19,-14,-14
0,122,122,-61,-61,122,78,112,73,-24,-14,-9
29,112,82,-70,-26,97,73,92,68,-29,-14,-24
39,97,58,-68,-9,78,29,53,53,-24,-19,-24
14,87,73,-51,-29,80,-24,4,53,-19,-19,-24
14,97,82,-56,-34,90,-53,-53,58,-14,-24,-24
48,92,43,-70,2,68,-87,-82,73,4,-14,-19
58,87,29,-73,14,58,-112,-92,58,19,4,9
48,53,4,-51,21,29,-117,-92,48,39,19,14
39,0,-39,-19,39,-19,-126,-92,43,39,29,24
29,-9,-39,-9,34,-24,-131,-78,39,39,43,29
34,39,4,-36,14,21,-102,-43,58,43,68,53
43,53,9,-48,17,31,-78,-19,58,43,68,63
48,53,4,-51,21,29,-68,-19,48,39,63,63
53,58,4,-56,24,31,-48,-9,48,39,48,73
136,102,-34,-119,85,34,-58,9,68,43,68,63
195,146,-48,-170,122,48,-73,29,68,43,68,63
234,141,-92,-187,163,24,-82,53,63,48,58,68
273,136,-136,-204,204,0,-97,73,63,48,68,73
209,82,-126,-146,168,-21,-117,-4,58,58,63,58
170,34,-136,-102,153,-51,-117,-63,58,63,58,48
131,19,-112,-75,122,-46,-122,-122,58,73,63,48
58,-29,-87,-14,73,-58,-122,-165,58,92,63,48
53,24,-29,-39,41,-2,-92,-136,97,131,107,92
53,73,19,-63,17,46,-58,-117,126,161,136,122
48,122,73,-85,-12,97,-43,-102,151,185,161,146
39,170,131,-104,-46,151,-29,-92,175,200,175,161
58,165,107,-112,-24,136,-53,-82,141,180,151,122
68,170,102,-119,-17,136,-58,-92,122,161,136,97
73,141,68,-107,2,104,-73,-97,107,141,126,78
82,107,24,-95,29,65,-87,-92,92,122,112,53
97,48,-48,-73,73,0,-78,-92,82,131,117,63
107,39,-68,-73,87,-14,-73,-92,82,136,122,68
117,-4,-122,-56,119,-63,-58,-68,82,156,136,78
126,-29,-156,-48,141,-92,-53,-63,87,175,151,92
82,0,-82,-41,82,-41,-39,-24,92,190,170,102
68,14,-53,-41,61,-19,-39,-4,97,209,190,112
58,24,-34,-41,46,-4,-39,9,102,224,195,122
63,34,-29,-48,46,2,-34,9,102,234,200,126
39,39,0,-39,19,19,-53,9,92,219,190,107
9,34,24,-21,-7,29,-58,34,87,214,180,97
43,68,24,-56,9,46,-63,58,78,214,175,87
58,82,24,-70,17,53,-68,82,73,209,165,73
48,92,43,-70,2,68,-68,58,82,209,175,73
39,102,63,-70,-12,82,-58,34,82,219,185,78
73,117,43,-95,14,80,-53,14,102,239,200,82
97,126,29,-112,34,78,-53,-9,102,239,200,82
87,107,19,-97,34,63,-58,9,92,234,185,68
68,82,14,-75,26,48,-53,34,92,229,170,68
87,92,4,-90,41,48,-48,73,92,248,180,78
78,97,19,-87,29,58,-43,97,102,248,180,87
63,68,4,-65,29,36,-48,68,107,239,185,78
73,34,-39,-53,56,-2,-53,43,107,248,185,78
112,19,-92,-65,102,-36,-58,24,102,258,180,78
131,9,-122,-70,126,-56,-82,-14,87,248,175,73
112,39,-73,-75,92,-17,-78,-58,102,229,175,63
97,48,-48,-73,73,0,-78,-78,112,229,175,48
87,29,-58,-58,73,-14,-78,-102,126,229,175,48
102,73,-29,-87,65,21,-82,-136,112,229,170,39
82,87,4,-85,39,46,-82,-122,107,239,175,53
73,58,-14,-65,43,21,-73,-82,102,253,180,58
58,24,-34,-41,46,-4,-43,-48,122,273,195,78
39,34,-4,-36,21,14,-34,-34,126,287,204,82
14,68,53,-41,-19,61,-58,-19,97,278,204,68
-4,73,78,-34,-41,75,-68,-29,73,258,190,53
-19,43,63,-12,-41,53,-78,-29,53,239,170,39
-29,14,43,7,-36,29,-87,-29,34,214,156,24
34,24,-9,-29,21,7,-78,24,68,244,180,58
78,34,-43,-56,61,-4,-68,63,92,263,200,78
136,48,-87,-92,112,-19,-58,107,117,283,224,102
156,63,-92,-109,124,-14,-43,151,141,312,258,126
126,48,-78,-87,102,-14,-34,131,141,297,258,126
126,63,-63,-95,95,0,-39,117,141,297,253,117
136,63,-73,-100,104,-4,-43,92,141,287,253,107
112,63,-48,-87,80,7,-43,63,131,253,248,92
78,9,-68,-43,73,-29,-78,-34,92,214,175,48
48,-19,-68,-14,58,-43,-78,-53,97,204,161,48
24,-117,-141,46,82,-129,-87,-63,97,214,161,34
-4,-63,-58,34,26,-61,-82,-63,126,239,161,14
-58,39,97,9,-78,68,-34,-34,200,326,219,53
-19,97,117,-39,-68,107,-19,-14,268,409,287,97
136,190,53,-163,41,122,-87,-53,292,444,312,87
229,229,0,-229,114,114,-151,-87,317,502,312,68
151,165,14,-158,68,90,-165,-43,419,658,405,122
97,204,107,-151,-4,156,-180,73,595,907,566,224
175,268,92,-222,41,180,-195,234,839,1195,785,361
253,219,-34,-236,143,92,-234,351,1039,1507,1054,536
336,302,-34,-319,185,134,-346,302,1063,1820,1298,673
439,527,87,-483,175,307,-463,156,1005,2152,1517,795
502,663,161,-583,170,412,-531,29,1029,2527,1786,971
605,722,117,-663,244,419,-634,-87,1019,2810,2025,1195
736,761,24,-749,356,392,-702,-185,878,2835,2117,1376
790,649,-141,-719,466,253,-634,-136,678,2513,2000,1429
756,478,-278,-617,517,100,-453,-14,444,1781,1600,1307
600,297,-302,-448,451,-2,-287,-29,97,878,1015,1058
317,165,-151,-241,234,7,-122,-185,-273,253,570,761
87,161,73,-124,7,117,78,-292,-561,-78,287,478
-9,165,175,-78,-92,170,214,-322,-814,-292,87,258
-117,82,200,17,-158,141,224,-331,-1024,-414,-48,102
-200,-58,141,129,-170,41,165,-312,-1166,-463,-122,4
-165,-141,24,153,-95,-58,78,-287,-1185,-448,-146,-34
-97,-175,-78,136,-9,-126,-34,-307,-1083,-390,-136,-39
-24,-141,-117,82,46,-129,-146,-331,-932,-331,-146,-68
-9,-43,-34,26,12,-39,-253,-361,-785,-263,-122,-53
-53,9,63,21,-58,36,-322,-356,-580,-141,-29,19
9,19,9,-14,0,14,-375,-346,-395,-43,34,48
92,39,-53,-65,73,-7,-366,-322,-278,9,48,34
14,-39,-53,12,34,-46,-287,-234,-161,78,97,78
-112,-204,-92,158,-9,-148,-214,-136,-73,131,131,107
-24,-180,-156,102,65,-168,-190,-39,-4,156,151,131
180,63,-117,-122,148,-26,-141,87,107,234,219,190
165,73,-92,-119,129,-9,-151,131,161,268,248,195
131,-4,-136,-63,134,-70,-161,136,165,268,239,175
126,-68,-195,-29,161,-131,-151,165,185,283,239,165
112,-92,-204,-9,158,-148,-151,161,209,283,258,141
82,-107,-190,12,136,-148,-165,161,224,278,239,126
63,-117,-180,26,122,-148,-151,146,229,287,239,141
43,-126,-170,41,107,-148,-131,146,248,302,248,141
-9,-126,-117,68,53,-122,-112,141,244,307,268,151
-9,-97,-87,53,39,-92,-97,122,239,307,258,131
43,-24,-68,-9,56,-46,-126,136,244,307,258,141
92,14,-78,-53,85,-31,-156,151,263,317,263,141
117,43,-73,-80,95,-14,-175,161,253,317,263,136
165,78,-87,-122,126,-4,-219,170,253,307,258,136
175,58,-117,-117,146,-29,-214,195,253,302,253,126
175,43,-131,-109,153,-43,-204,234,253,297,248,126
170,43,-126,-107,148,-41,-204,214,253,292,239,126
151,48,-102,-100,126,-26,-209,200,248,287,224,112
131,29,-102,-80,117,-36,-200,156,214,263,209,97
112,29,-82,-70,97,-26,-200,112,200,244,195,82
97,24,-73,-61,85,-24,-190,97,190,229,180,73
87,29,-58,-58,73,-14,-180,97,195,224,175,78
112,0,-112,-56,112,-56,-146,146,234,253,214,102
97,-24,-122,-36,109,-73,-141,180,258,273,214,112
82,-63,-146,-9,114,-104,-136,204,283,287,219,117
107,-78,-185,-14,146,-131,-146,214,302,297,224,126
122,-14,-136,-53,129,-75,-170,229,287,283,224,117
117,-4,-122,-56,119,-63,-180,273,283,287,239,126
68,-48,-117,-9,92,-82,-180,273,278,278,244,136
39,-63,-102,12,70,-82,-185,273,278,263,244,136
29,-34,-63,2,46,-48,-185,268,283,263,224,126
14,-48,-63,17,39,-56,-175,253,287,263,219,122
-24,-73,-48,48,12,-61,-170,268,297,258,219,122
-39,-53,-14,46,-12,-34,-165,307,302,258,224,126
19,-24,-43,2,31,-34,-180,312,312,273,229,136
53,-24,-78,-14,65,-51,-200,292,317,263,224,146
92,-34,-126,-29,109,-80,-219,273,312,258,219,146
136,-34,-170,-51,153,-102,-214,283,322,263,224,156
117,-53,-170,-31,143,-112,-209,273,322,268,229,170
92,-53,-146,-19,119,-100,-209,253,317,253,219,170
82,-48,-131,-17,107,-90,-219,229,302,234,204,161
82,-43,-126,-19,104,-85,-209,209,297,219,195,170
82,-19,-102,-31,92,-61,-185,200,287,219,185,161
58,-39,-97,-9,78,-68,-175,175,268,224,180,156
78,-68,-146,-4,112,-107,-165,165,263,214,180,156
63,-92,-156,14,109,-124,-146,165,263,219,180,156
73,-68,-141,-2,107,-104,-126,190,273,234,190,161
97,-63,-161,-17,129,-112,-117,234,273,239,180,156
122,-63,-185,-29,153,-124,-117,214,273,204,161,151
141,-87,-229,-26,185,-158,-107,234,263,219,161,156
117,-39,-156,-39,136,-97,-117,253,287,224,151,151
97,-9,-107,-43,102,-58,-117,278,292,224,146,146
68,0,-68,-34,68,-34,-122,302,297,219,141,136
19,0,-19,-9,19,-9,-131,317,292,209,131,126
14,-53,-68,19,41,-61,-146,283,292,195,117,117
34,-78,-112,21,73,-95,-151,268,292,190,117,122
53,-92,-146,19,100,-119,-146,253,297,185,117,131
73,-131,-204,29,139,-168,-151,229,302,185,117,136
58,-97,-156,19,107,-126,-161,239,297,170,126,141
43,-53,-97,4,70,-75,-161,229,292,180,122,141
14,-29,-43,7,29,-36,-165,234,283,180,117,141
-4,-4,0,4,-2,-2,-175,244,253,175,102,122
4,0,-4,-2,4,-2,-175,219,239,146,73,102
29,-29,-58,0,43,-43,-170,209,229,136,58,87
58,-29,-87,-14,73,-58,-161,204,239,126,48,102
39,-29,-68,-4,53,-48,-151,190,239,102,34,82
-19,-92,-73,56,26,-82,-156,180,229,87,24,63
-34,-141,-107,87,36,-124,-180,200,209,58,4,48
-43,-190,-146,117,51,-168,-180,214,219,68,4,58
-78,-244,-165,161,43,-204,-170,234,229,68,0,58
-58,-209,-151,134,46,-180,-156,283,200,58,4,63
-19,-170,-151,95,65,-161,-151,331,195,63,14,73
48,-136,-185,43,117,-161,-141,385,214,63,24,82
92,-126,-219,17,156,-173,-131,414,219,68,19,97
82,-136,-219,26,151,-178,-126,424,195,34,0,78
43,-131,-175,43,109,-153,-131,429,175,9,-29,58
14,-141,-156,63,85,-148,-146,414,156,-19,-68,24
-29,-170,-141,100,56,-156,-151,395,122,-53,-97,4
-34,-180,-146,107,56,-163,-141,385,141,-39,-82,4
-9,-175,-165,92,78,-170,-117,400,131,-34,-87,9
39,-161,-200,61,119,-180,-107,419,122,-48,-82,14
78,-136,-214,29,146,-175,-102,414,122,-68,-97,14
4,-126,-131,61,68,-129,-97,414,122,-73,-112,4
-29,-131,-102,80,36,-117,-92,400,107,-82,-122,-4
-53,-136,-82,95,14,-109,-87,375,92,-107,-136,-4
-73,-126,-53,100,-9,-90,-97,346,78,-126,-156,-19
-43,-151,-107,97,31,-129,-97,336,53,-146,-165,-53
-19,-141,-122,80,51,-131,-78,336,39,-156,-180,-58
14,-146,-161,65,87,-153,-63,346,29,-180,-195,-63
19,-151,-170,65,95,-161,-63,361,9,-209,-214,-78
-43,-180,-136,112,46,-158,-68,375,-9,-263,-268,-107
-117,-224,-107,170,-4,-165,-87,361,-68,-317,-317,-141
-161,-239,-78,200,-41,-158,-82,351,-97,-351,-346,-161
-165,-248,-82,207,-41,-165,-58,351,-102,-370,-366,-165
-141,-195,-53,168,-43,-124,-68,336,-126,-409,-385,-185
-131,-175,-43,153,-43,-109,-87,322,-151,-434,-414,-209
-58,-151,-92,104,17,-122,-87,322,-175,-458,-434,-224
9,-87,-97,39,53,-92,-107,312,-209,-497,-473,-258
-39,-102,-63,70,12,-82,-97,283,-234,-536,-502,-273
-107,-122,-14,114,-46,-68,-92,263,-258,-570,-527,-302
-165,-170,-4,168,-80,-87,-78,239,-273,-580,-551,-312
-219,-185,34,202,-126,-75,-63,248,-287,-590,-561,-317
-195,-204,-9,200,-92,-107,-39,248,-312,-610,-585,-312
-200,-224,-24,212,-87,-124,-29,239,-336,-649,-605,-341
-170,-209,-39,190,-65,-124,-29,219,-370,-678,-634,-351
-170,-204,-34,187,-68,-119,-19,219,-405,-712,-658,-370
-214,-263,-48,239,-82,-156,-29,219,-444,-746,-697,-375
-258,-317,-58,287,-100,-187,-29,195,-468,-766,-727,-395
-297,-366,-68,331,-114,-217,-34,209,-507,-790,-751,-414
-263,-405,-141,334,-61,-273,-43,214,-517,-814,-761,-434
-185,-356,-170,270,-7,-263,-19,195,-502,-805,-746,-424
-180,-341,-161,261,-9,-251,-9,204,-502,-810,-751,-424
-214,-380,-165,297,-24,-273,-4,200,-502,-819,-756,-439
-214,-385,-170,300,-21,-278,0,190,-497,-829,-751,-444
-219,-356,-136,287,-41,-246,14,200,-502,-824,-756,-429
-224,-317,-92,270,-65,-204,24,204,-512,-829,-766,-424
-229,-292,-63,261,-82,-178,34,219,-507,-829,-780,-419
-244,-292,-48,268,-97,-170,48,224,-502,-829,-775,-424
-224,-302,-78,263,-73,-190,43,204,-531,-849,-810,-453
-219,-302,-82,261,-68,-192,14,175,-546,-873,-819,-468
-209,-297,-87,253,-61,-192,-9,156,-570,-883,-854,-483
-214,-287,-73,251,-70,-180,-24,146,-585,-893,-863,-502
-244,-263,-19,253,-112,-141,-19,151,-580,-893,-849,-492
-219,-258,-39,239,-90,-148,-14,141,-575,-878,-849,-483
-190,-263,-73,226,-58,-168,-14,117,-570,-873,-849,-478
-185,-263,-78,224,-53,-170,-9,97,-570,-878,-839,-478
-195,-214,-19,204,-87,-117,-14,112,-566,-863,-834,-473
-195,-190,4,192,-100,-92,-34,122,-561,-863,-834,-492
-185,-200,-14,192,-85,-107,-63,126,-566,-868,-839,-502
-185,-185,0,185,-92,-92,-43,131,-546,-849,-824,-507
-200,-204,-4,202,-97,-104,-24,146,-517,-805,-800,-483
-185,-248,-63,217,-61,-156,-24,146,-497,-780,-785,-478
-170,-287,-117,229,-26,-202,-29,136,-492,-775,-766,-468
-195,-322,-126,258,-34,-224,-29,141,-473,-751,-746,-458
-200,-307,-107,253,-46,-207,-43,146,-478,-717,-732,-439
-175,-287,-112,231,-31,-200,-48,161,-448,-688,-707,-419
-180,-302,-122,241,-29,-212,-58,175,-409,-673,-697,-409
-200,-307,-107,253,-46,-207,-78,190,-405,-649,-683,-405
-209,-278,-68,244,-70,-173,-53,200,-405,-644,-668,-395
-200,-268,-68,234,-65,-168,-34,209,-375,-619,-634,-375
-214,-239,-24,226,-95,-131,-19,195,-366,-595,-610,-375
-214,-200,14,207,-114,-92,-19,170,-361,-610,-610,-385
-170,-156,14,163,-92,-70,-24,156,-326,-580,-575,-366
-136,-151,-14,143,-61,-82,-9,156,-312,-546,-541,-346
-107,-117,-9,112,-48,-63,9,180,-283,-492,-517,-322
-78,-87,-9,82,-34,-48,29,185,-253,-458,-507,-287
-73,-97,-24,85,-24,-61,19,161,-244,-448,-502,-292
-82,-87,-4,85,-39,-46,9,141,-224,-414,-473,-283
-58,-78,-19,68,-19,-48,19,122,-214,-395,-458,-263
-29,-68,-39,48,4,-53,9,102,-204,-405,-444,-273
-146,-224,-78,185,-34,-151,9,82,-190,-375,-395,-244
-156,-244,-87,200,-34,-165,-82,4,-273,-453,-473,-312
-151,-185,-34,168,-58,-109,-78,9,-263,-439,-473,-312
-165,-195,-29,180,-68,-112,-29,78,-185,-351,-390,-263
-136,-161,-24,148,-56,-92,-24,107,-151,-326,-361,-244
-117,-136,-19,126,-48,-78,-19,126,-126,-302,-341,-224
-97,-112,-14,104,-41,-63,-14,146,-102,-278,-322,-204
-78,-87,-9,82,-34,-48,-9,165,-78,-253,-302,-185
-63,-58,4,61,-34,-26,-29,156,-68,-273,-297,-190
-58,-39,19,48,-39,-9,-39,156,-68,-283,-292,-195
-53,-19,34,36,-43,7,-48,156,-68,-292,-287,-200
-48,0,48,24,-48,24,-58,156,-68,-302,-283,-204
-87,-43,43,65,-65,0,-48,131,-68,-278,-263,-195
-117,-78,39,97,-78,-19,-48,117,-68,-253,-253,-195
-146,-112,34,129,-90,-39,-48,102,-68,-229,-244,-195
-175,-146,29,161,-102,-58,-48,87,-68,-204,-234,-195
-126,-87,39,107,-82,-24,-24,97,-29,-180,-219,-175
-87,-29,58,58,-73,14,0,97,0,-156,-204,-165
-48,29,78,9,-63,53,24,97,29,-131,-190,-156
-9,87,97,-39,-53,92,48,97,58,-107,-175,-146
-4,48,53,-21,-29,51,34,53,78,-107,-161,-156
0,19,19,-9,-9,19,29,19,87,-107,-156,-156
4,-9,-14,2,9,-12,24,-14,97,-107,-151,-156
9,-39,-48,14,29,-43,19,-48,107,-107,-146,-156
19,-24,-43,2,31,-34,43,-39,117,-102,-141,-146
29,-19,-48,-4,39,-34,58,-39,117,-97,-136,-146
39,-14,-53,-12,46,-34,73,-39,117,-92,-131,-146
48,-9,-58,-19,53,-34,87,-39,117,-87,-126,-146
39,9,-29,-24,34,-9,53,-48,92,-78,-131,-151
39,29,-9,-34,24,9,29,-58,78,-78,-136,-156
39,48,9,-43,14,29,4,-68,63,-78,-141,-161
39,68,29,-53,4,48,-19,-78,48,-78,-146,-165
24,63,39,-43,-7,51,-39,-63,63,-78,-136,-156
19,58,39,-39,-9,48,-48,-48,68,-78,-136,-156
14,53,39,-34,-12,46,-58,-34,73,-78,-136,-156
9,48,39,-29,-14,43,-68,-19,78,-78,-136,-156
14,58,43,-36,-14,51,-53,-29,102,-58,-112,-131
19,58,39,-39,-9,48,-39,-29,117,-39,-97,-117
24,58,34,-41,-4,46,-24,-29,131,-19,-82,-102
29,58,29,-43,0,43,-9,-29,146,0,-68,-87
39,68,29,-53,4,48,-24,-48,131,-24,-82,-92
39,68,29,-53,4,48,-29,-58,126,-39,-87,-97
39,68,29,-53,4,48,-34,-68,122,-53,-92,-102
39,68,29,-53,4,48,-39,-78,117,-68,-97,-107
19,53,34,-36,-7,43,-19,-73,122,-48,-78,-102
9,48,39,-29,-14,43,0,-68,126,-39,-68,-97
0,43,43,-21,-21,43,19,-63,131,-29,-58,-92
-9,39,48,-14,-29,43,39,-58,136,-19,-48,-87
-39,-4,34,21,-36,14,39,-34,136,-29,-63,-92
-68,-39,29,53,-48,-4,39,-19,136,-29,-68,-97
-97,-73,24,85,-61,-24,39,-4,136,-29,-73,-102
-126,-107,19,117,-73,-43,39,9,136,-29,-78,-107
-107,-78,29,92,-68,-24,24,-4,126,-39,-73,-117
-87,-48,39,68,-63,-4,19,-19,126,-48,-68,-117
-68,-19,48,43,-58,14,14,-34,126,-58,-63,-117
-48,9,58,19,-53,34,9,-48,126,-68,-58,-117
-14,0,14,7,-14,7,0,-78,126,-58,-53,-117
19,0,-19,-9,19,-9,-9,-97,126,-58,-48,-117
53,0,-53,-26,53,-26,-19,-117,126,-58,-43,-117
87,0,-87,-43,87,-43,-29,-136,126,-58,-39,-117
68,-14,-82,-26,75,-48,4,-146,151,-19,-14,-97
48,-29,-78,-9,63,-53,29,-146,165,19,0,-87
29,-43,-73,7,51,-58,53,-146,180,58,14,-78
9,-58,-68,24,39,-63,78,-146,195,97,29,-68
0,-39,-39,19,19,-39,53,-165,175,73,29,-87
0,-19,-19,9,9,-19,39,-185,165,58,29,-97
0,0,0,0,0,0,24,-204,156,43,29,-107
0,19,19,-9,-9,19,9,-224,146,29,29,-117
-9,4,14,2,-12,9,0,-239,136,34,29,-126
-19,0,19,9,-19,9,0,-244,126,39,29,-126
-29,-4,24,17,-26,9,0,-248,117,43,29,-126
-39,-9,29,24,-34,9,0,-253,107,48,29,-126
4,43,39,-24,-17,41,24,-209,136,63,53,-107
39,87,48,-63,-4,68,48,-175,156,78,78,-87
73,131,58,-102,7,95,73,-141,175,92,102,-68
107,175,68,-141,19,122,97,-107,195,107,126,-48
68,136,68,-102,0,102,92,-122,185,131,126,-39
29,97,68,-63,-19,82,87,-126,185,146,126,-39
-9,58,68,-24,-39,63,82,-131,185,161,126,-39
-48,19,68,14,-58,43,78,-136,185,175,126,-39
-19,4,24,7,-21,14,58,-141,170,165,117,-53
0,-9,-9,4,4,-9,39,-146,156,165,107,-58
19,-24,-43,2,31,-34,19,-151,141,165,97,-63
39,-39,-78,0,58,-58,0,-156,126,165,87,-68
34,-9,-43,-12,39,-26,9,-126,141,170,102,-53
29,9,-19,-19,24,-4,9,-107,156,175,117,-39
24,29,4,-26,9,17,9,-87,170,180,131,-24
19,48,29,-34,-4,39,9,-68,185,185,146,-9
4,43,39,-24,-17,41,0,-97,195,180,146,-14
0,39,39,-19,-19,39,0,-126,195,175,146,-19
-4,34,39,-14,-21,36,0,-156,195,170,146,-24
-9,29,39,-9,-24,34,0,-185,195,165,146,-29
-9,43,53,-17,-31,48,-9,-175,175,161,136,-29
-9,48,58,-19,-34,53,-9,-175,165,156,136,-29
-9,53,63,-21,-36,58,-9,-175,156,151,136,-29
-9,58,68,-24,-39,63,-9,-175,146,146,136,-29
-14,43,58,-14,-36,51,4,-180,156,161,151,-19
-19,39,58,-9,-39,48,19,-185,156,175,165,-9
-24,34,58,-4,-41,46,34,-190,156,190,180,0
-29,29,58,0,-43,43,48,-195,156,204,195,9
-78,117,195,-19,-136,156,58,-156,175,175,156,-9
-19,165,185,-73,-102,175,48,-107,195,175,126,-29
9,165,156,-87,-73,161,78,-58,224,175,97,-39
0,165,165,-82,-82,165,97,-68,244,204,117,-29
9,195,185,-102,-87,190,87,-136,244,244,136,-39
39,136,97,-87,-29,117,87,-165,302,351,185,-29
48,39,-9,-43,29,14,68,-156,380,517,312,29
78,97,19,-87,29,58,0,-156,478,712,448,97
136,214,78,-175,29,146,-78,-126,614,927,624,185
195,263,68,-229,63,165,-136,-87,751,1200,888,351
224,302,78,-263,73,190,-175,-39,839,1551,1210,546
312,351,39,-331,136,195,-204,-19,849,1942,1522,732
448,458,9,-453,219,234,-263,-78,761,2313,1825,907
527,605,78,-566,224,341,-380,-253,585,2625,2108,1102
556,692,136,-624,209,414,-468,-409,390,2762,2254,1249
585,683,97,-634,244,390,-497,-507,146,2596,2176,1298
556,585,29,-570,263,307,-468,-527,-87,2010,1776,1151
448,331,-117,-390,283,107,-341,-419,-234,1141,1122,849
214,58,-156,-136,185,-48,-107,-312,-380,361,497,488
-9,-29,-19,19,4,-24,107,-273,-585,-185,19,136
-107,-19,87,63,-97,34,273,-253,-771,-546,-273,-126
-224,-9,214,117,-219,102,419,-165,-878,-653,-380,-234
-361,19,380,170,-370,200,507,-87,-985,-634,-390,-283
-361,0,361,180,-361,180,527,-87,-1073,-634,-400,-302
-244,-78,165,161,-204,43,517,-126,-1063,-614,-390,-312
-156,-58,97,107,-126,19,458,-185,-985,-536,-351,-302
-156,19,175,68,-165,97,331,-273,-917,-458,-292,-273
-195,39,234,78,-214,136,224,-341,-858,-400,-244,-263
-244,0,244,122,-244,122,97,-361,-751,-341,-224,-263
-292,-29,263,161,-278,117,-39,-370,-605,-273,-195,-244
-195,-19,175,107,-185,78,-78,-312,-390,-126,-78,-136
78,87,9,-82,34,48,-29,-204,-156,48,58,-29
214,224,9,-219,102,117,-48,-214,-48,107,87,-19
97,253,156,-175,-29,204,-97,-253,-39,78,48,-87
19,204,185,-112,-82,195,-87,-204,-19,97,58,-87
19,175,156,-97,-68,165,-92,-195,0,117,73,-82
19,146,126,-82,-53,136,-97,-185,19,126,78,-78
19,117,97,-68,-39,107,-102,-175,39,136,82,-73
19,87,68,-53,-24,78,-107,-165,58,146,87,-68
9,53,43,-31,-17,48,-82,-185,92,165,117,-48
0,19,19,-9,-9,19,-58,-204,126,175,136,-29
-9,-14,-4,12,-2,-9,-34,-224,161,185,156,-9
-19,-48,-29,34,4,-39,-9,-244,195,195,175,9
-9,0,9,4,-9,4,-14,-244,180,200,165,0
0,48,48,-24,-24,48,-19,-244,175,204,156,-9
9,97,87,-53,-39,92,-24,-244,170,209,146,-19
19,146,126,-82,-53,136,-29,-244,165,214,136,-29
19,141,122,-80,-51,131,-19,-209,185,224,156,-19
19,136,117,-78,-48,126,-9,-175,204,234,165,-9
19,131,112,-75,-46,122,0,-141,224,244,175,0
19,126,107,-73,-43,117,9,-107,244,253,185,9
39,146,107,-92,-34,126,0,-92,234,239,175,0
48,156,107,-102,-29,131,-9,-87,224,234,175,0
58,165,107,-112,-24,136,-19,-82,214,229,175,0
68,175,107,-122,-19,141,-29,-78,204,224,175,0
92,170,78,-131,7,124,-34,-53,219,244,190,19
107,165,58,-136,24,112,-39,-29,234,253,195,29
122,161,39,-141,41,100,-43,-4,248,263,200,39
136,156,19,-146,58,87,-48,19,263,273,204,48
107,131,24,-119,41,78,-34,9,258,258,195,39
78,107,29,-92,24,68,-29,0,253,253,185,29
48,82,34,-65,7,58,-24,-9,248,248,175,19
19,58,39,-39,-9,48,-19,-19,244,244,165,9
9,58,48,-34,-19,53,-4,-9,268,253,180,29
0,58,58,-29,-29,58,9,-9,283,263,185,39
-9,58,68,-24,-39,63,24,-9,297,273,190,48
-19,58,78,-19,-48,68,39,-9,312,283,195,58
-4,43,48,-19,-26,46,29,-19,287,273,180,48
0,39,39,-19,-19,39,19,-29,273,263,175,39
4,34,29,-19,-12,31,9,-39,258,253,170,29
9,29,19,-19,-4,24,0,-48,244,244,165,19
34,48,14,-41,9,31,9,-34,248,239,170,29
48,58,9,-53,19,34,19,-19,253,234,175,29
63,68,4,-65,29,36,29,-4,258,229,180,29
78,78,0,-78,39,39,39,9,263,224,185,29
78,87,9,-82,34,48,14,29,229,214,170,19
78,87,9,-82,34,48,0,39,204,204,156,9
78,87,9,-82,34,48,-14,48,180,195,141,0
78,87,9,-82,34,48,-29,58,156,185,126,-9
68,78,9,-73,29,43,-48,24,146,165,107,-29
58,78,19,-68,19,48,-58,0,136,156,97,-39
48,78,29,-63,9,53,-68,-24,126,146,87,-48
39,78,39,-58,0,58,-78,-48,117,136,78,-58
9,48,39,-29,-14,43,-53,-24,151,156,92,-39
-9,19,29,-4,-19,24,-29,-9,175,175,107,-19
-29,-9,19,19,-24,4,-4,4,200,195,122,0
-48,-39,9,43,-29,-14,19,19,224,214,136,19
-14,9,24,2,-19,17,19,53,234,190,131,4
19,48,29,-34,-4,39,19,78,234,175,126,0
53,87,34,-70,9,61,19,102,234,161,122,-4
87,126,39,-107,24,82,19,126,234,146,117,-9
78,97,19,-87,29,58,29,112,239,161,107,-9
78,78,0,-78,39,39,29,107,244,175,107,-9
78,58,-19,-68,48,19,29,102,248,190,107,-9
78,39,-39,-58,58,0,29,97,253,204,107,-9
63,43,-19,-53,41,12,14,82,244,190,102,-24
58,48,-9,-53,34,19,9,68,234,175,97,-29
53,53,0,-53,26,26,4,53,224,161,92,-34
48,58,9,-53,19,34,0,39,214,146,87,-39
24,39,14,-31,4,26,19,34,195,126,73,-53
0,29,29,-14,-14,29,29,29,185,117,68,-58
-24,19,43,2,-34,31,39,24,175,107,63,-63
-48,9,58,19,-53,34,48,19,165,97,58,-68
-58,-14,43,36,-51,14,34,19,146,78,43,-78
-58,-29,29,43,-43,0,29,19,136,68,29,-87
-58,-43,14,51,-36,-14,24,19,126,58,14,-97
-58,-58,0,58,-29,-29,19,19,117,48,0,-107
-19,-19,0,19,-9,-9,19,29,112,39,-19,-112
19,9,-9,-14,14,0,19,39,107,29,-29,-117
58,39,-19,-48,39,9,19,48,102,19,-39,-122
97,68,-29,-82,63,19,19,58,97,9,-48,-126
53,82,29,-68,12,56,9,68,82,-14,-58,-126
19,87,68,-53,-24,78,9,78,68,-29,-68,-126
-14,92,107,-39,-61,100,9,87,53,-43,-78,-126
-48,97,146,-24,-97,122,9,97,39,-58,-87,-126
-24,63,87,-19,-56,75,9,97,24,-82,-102,-131
0,29,29,-14,-14,29,9,97,19,-97,-117,-136
24,-4,-29,-9,26,-17,9,97,14,-112,-131,-141
48,-39,-87,-4,68,-63,9,97,9,-126,-146,-146
34,-34,-68,0,51,-51,24,68,0,-151,-165,-156
19,-29,-48,4,34,-39,39,39,-9,-165,-175,-165
4,-24,-29,9,17,-26,53,9,-19,-180,-185,-175
-9,-19,-9,14,0,-14,68,-19,-29,-195,-195,-185
-48,-39,9,43,-29,-14,58,-4,-58,-219,-219,-200
-78,-58,19,68,-48,-19,58,0,-78,-244,-234,-204
-107,-78,29,92,-68,-24,58,4,-97,-268,-248,-209
-136,-97,39,117,-87,-29,58,9,-117,-292,-263,-214
-126,-122,4,124,-65,-58,63,19,-151,-322,-292,-234
-126,-136,-9,131,-58,-73,68,19,-185,-351,-322,-253
-126,-151,-24,139,-51,-87,73,19,-219,-380,-351,-273
-126,-165,-39,146,-43,-102,78,19,-253,-409,-380,-292
-161,-175,-14,168,-73,-95,87,-9,-283,-458,-409,-312
-185,-185,0,185,-92,-92,87,-39,-312,-497,-439,-322
-209,-195,14,202,-112,-90,87,-68,-341,-536,-468,-331
-234,-204,29,219,-131,-87,87,-97,-370,-575,-497,-341
-204,-180,24,192,-114,-78,107,-102,-390,-590,-507,-346
-175,-156,19,165,-97,-68,117,-107,-409,-605,-517,-351
-146,-131,14,139,-80,-58,126,-112,-429,-619,-527,-356
-117,-107,9,112,-63,-48,136,-117,-448,-634,-536,-361
-112,-112,0,112,-56,-56,126,-102,-468,-649,-551,-366
-107,-117,-9,112,-48,-63,126,-97,-478,-663,-566,-370
-102,-122,-19,112,-41,-70,126,-92,-488,-678,-580,-375
-97,-126,-29,112,-34,-78,126,-87,-497,-692,-595,-380
-122,-151,-29,136,-46,-90,112,-97,-527,-717,-610,-400
-146,-175,-29,161,-58,-102,97,-107,-556,-741,-624,-409
-170,-200,-29,185,-70,-114,82,-117,-585,-766,-639,-419
-195,-224,-29,209,-82,-126,68,-126,-614,-790,-653,-429
-209,-248,-39,229,-85,-143,73,-156,-634,-805,-668,-439
-224,-263,-39,244,-92,-151,78,-185,-644,-810,-683,-448
-239,-278,-39,258,-100,-158,82,-214,-653,-814,-697,-458
-253,-292,-39,273,-107,-165,87,-244,-663,-819,-712,-468
-224,-268,-43,246,-90,-156,97,-253,-683,-824,-722,-468
-204,-244,-39,224,-82,-141,107,-253,-692,-829,-722,-468
-185,-219,-34,202,-75,-126,117,-253,-702,-834,-722,-468
-165,-195,-29,180,-68,-112,126,-253,-712,-839,-722,-468
-180,-195,-14,187,-82,-104,117,-224,-697,-829,-712,-458
-185,-195,-9,190,-87,-102,117,-204,-683,-819,-702,-448
-190,-195,-4,192,-92,-100,117,-185,-668,-810,-692,-439
-195,-195,0,195,-97,-97,117,-165,-653,-800,-683,-429
-204,-175,29,190,-117,-73,107,-204,-653,-790,-673,-434
-204,-165,39,185,-122,-63,97,-234,-653,-790,-673,-439
-204,-156,48,180,-126,-53,87,-263,-653,-790,-673,-444
-204,-146,58,175,-131,-43,78,-292,-653,-790,-673,-448
-195,-126,68,161,-131,-29,97,-258,-619,-756,-634,-419
-185,-107,78,146,-131,-14,117,-234,-595,-722,-605,-390
-175,-87,87,131,-131,0,136,-209,-570,-688,-575,-361
-165,-68,97,117,-131,14,156,-185,-546,-653,-546,-331
-156,-92,63,124,-109,-14,131,-190,-531,-629,-531,-322
-156,-117,39,136,-97,-39,117,-195,-517,-614,-517,-322
-156,-141,14,148,-85,-63,102,-200,-502,-600,-502,-322
-156,-165,-9,161,-73,-87,87,-204,-488,-585,-488,-322
-165,-180,-14,173,-75,-97,68,-219,-473,-580,-488,-336
-165,-185,-19,175,-73,-102,58,-224,-458,-575,-488,-341
-165,-190,-24,178,-70,-107,48,-229,-444,-570,-488,-346
-165,-195,-29,180,-68,-112,39,-234,-429,-566,-488,-351
-136,-161,-24,148,-56,-92,53,-219,-414,-551,-468,-336
-117,-136,-19,126,-48,-78,68,-204,-400,-536,-458,-331
-97,-112,-14,104,-41,-63,82,-190,-385,-522,-448,-326
-78,-87,-9,82,-34,-48,97,-175,-370,-507,-439,-322
-97,-73,24,85,-61,-24,107,-131,-346,-468,-409,-283
-117,-68,48,92,-82,-9,107,-97,-331,-439,-380,-253
-136,-63,73,100,-104,4,107,-63,-317,-409,-351,-224
-156,-58,97,107,-126,19,107,-29,-302,-380,-322,-195
-126,-43,82,85,-104,19,87,-39,-292,-370,-302,-190
-107,-39,68,73,-87,14,78,-39,-283,-370,-283,-185
-87,-34,53,61,-70,9,68,-39,-273,-370,-263,-180
-68,-29,39,48,-53,4,58,-39,-263,-370,-244,-175
-82,-48,34,65,-58,-7,48,-73,-248,-361,-234,-165
-87,-68,19,78,-53,-24,48,-97,-234,-351,-234,-165
-92,-87,4,90,-48,-41,48,-122,-219,-341,-234,-165
-97,-107,-9,102,-43,-58,48,-146,-204,-331,-234,-165
-117,-92,24,104,-70,-34,39,-126,-195,-287,-229,-156
-126,-87,39,107,-82,-24,29,-117,-185,-253,-224,-156
-136,-82,53,109,-95,-14,19,-107,-175,-219,-219,-156
-146,-78,68,112,-107,-4,9,-97,-165,-185,-214,-156
-126,-53,73,90,-100,9,29,-73,-151,-175,-200,-136
-107,-29,78,68,-92,24,39,-48,-136,-175,-185,-126
-87,-4,82,46,-85,39,48,-24,-122,-175,-170,-117
-68,19,87,24,-78,53,58,0,-107,-175,-156,-107
-53,4,58,24,-56,31,43,-24,-97,-170,-151,-92
-63,14,78,24,-70,46,48,-34,-87,-151,-122,-87
-39,9,48,14,-43,29,43,-48,-87,-141,-102,-78
-9,4,14,2,-12,9,34,-73,-82,-136,-97,-73
24,19,-4,-21,14,7,29,-58,-73,-136,-102,-78
-19,24,43,-2,-31,34,29,-48,-58,-131,-102,-68
-39,34,73,2,-56,53,24,-48,-53,-141,-107,-68
-34,53,87,-9,-61,70,19,-39,-39,-151,-112,-73
-43,24,68,9,-56,46,9,-24,-24,-146,-117,-78
-63,-19,43,41,-53,12,9,-19,-14,-151,-107,-82
-63,-29,34,46,-48,2,9,29,-4,-146,-87,-78
-29,-4,24,17,-26,9,0,19,9,-131,-78,-68
-19,4,24,7,-21,14,19,14,24,-107,-63,-63
-24,19,43,2,-34,31,29,14,29,-97,-58,-58
-43,19,63,12,-53,41,39,9,29,-97,-58,-43
-53,39,92,7,-73,65,48,9,24,-97,-43,-34
-39,53,92,-7,-65,73,63,29,48,-92,-24,-14
0,63,63,-31,-31,63,63,43,48,-87,-14,-14
0,68,68,-34,-34,68,43,48,43,-82,-4,-4
-24,78,102,-26,-63,90,14,43,43,-78,9,4
-39,102,141,-31,-90,122,4,4,58,-68,9,14
-9,112,122,-51,-65,117,-9,-4,73,-43,24,19
4,131,126,-68,-61,129,-24,-9,73,-19,39,48
0,112,112,-56,-56,112,-29,-14,68,9,48,53
14,48,34,-31,-9,41,-39,-14,73,0,43,58
19,39,19,-29,0,29,-43,0,78,0,53,58
24,53,29,-39,-2,41,-43,14,92,4,68,68
34,43,9,-39,12,26,-48,29,97,4,68,63
58,63,4,-61,26,34,-87,9,78,4,68,58
73,87,14,-80,29,51,-117,9,78,9,58,63
112,146,34,-129,39,90,-141,9,87,29,82,68
136,204,68,-170,34,136,-170,9,87,34,87,73
107,151,43,-129,31,97,-165,4,78,24,63,63
78,97,19,-87,29,58,-165,-4,73,19,68,63
43,63,19,-53,12,41,-161,-34,68,14,73,63
34,34,0,-34,17,17,-146,-43,68,14,68,58
63,48,-14,-56,39,17,-131,-53,63,19,68,58
58,39,-19,-48,39,9,-112,-48,58,34,73,58
73,24,-48,-48,61,-12,-87,-48,63,43,92,58
92,14,-78,-53,85,-31,-58,-58,58,43,97,53
82,39,-43,-61,63,-2,-39,-48,68,58,102,58
68,63,-4,-65,36,29,-29,-43,68,63,97,53
73,97,24,-85,24,61,-29,-34,58,78,92,48
68,131,63,-100,2,97,-9,-34,53,92,97,48
24,82,58,-53,-17,70,0,-53,53,78,112,48
-4,29,34,-12,-19,31,0,-53,53,73,112,43
-29,-19,9,24,-19,-4,-4,-43,43,73,112,39
-58,-29,29,43,-43,0,-4,-34,43,68,112,39
-34,-39,-4,36,-14,-21,4,14,48,87,117,34
-19,-29,-9,24,-4,-19,4,43,58,107,122,43
-24,-9,14,17,-19,2,4,73,63,117,122,48
-9,4,14,2,-12,9,0,92,68,131,131,53
9,19,9,-14,0,14,-14,78,82,156,146,73
43,34,-9,-39,26,12,-24,58,92,165,151,78
43,39,-4,-41,24,17,-48,29,107,175,156,73
39,43,4,-41,17,24,-58,24,126,185,161,78
92,73,-19,-82,56,26,-73,-4,117,175,151,58
117,82,-34,-100,75,24,-78,-34,112,170,146,43
82,82,0,-82,41,41,-82,-63,102,165,141,34
58,82,24,-70,17,53,-78,-92,92,170,146,29
53,68,14,-61,19,41,-58,-63,97,170,156,29
39,48,9,-43,14,29,-53,-48,92,161,151,24
14,29,14,-21,0,21,-48,-34,78,151,146,14
-19,-4,14,12,-17,4,-34,-14,73,141,131,9
34,39,4,-36,14,21,-34,24,82,156,136,19
58,78,19,-68,19,48,-24,39,92,161,141,29
48,87,39,-68,4,63,-24,48,102,161,151,34
63,92,29,-78,17,61,-24,63,107,170,156,39
82,92,9,-87,36,51,-9,87,126,200,175,53
82,97,14,-90,34,56,-14,82,126,200,185,63
73,117,43,-95,14,80,-4,63,136,200,195,73
68,117,48,-92,9,82,9,68,151,209,204,68
14,43,29,-29,-7,36,0,48,161,204,195,68
-14,34,48,-9,-31,41,-4,29,141,200,190,58
-68,14,82,26,-75,48,-14,14,141,195,190,58
-122,-58,63,90,-92,2,-14,24,141,195,190,58
-97,-73,24,85,-61,-24,-9,24,151,200,195,68
-87,-43,43,65,-65,0,-24,4,156,200,195,63
-68,14,82,26,-75,48,-43,-4,141,204,204,58
-53,43,97,4,-75,70,-58,-29,131,200,200,53
-34,9,43,12,-39,26,-73,-48,117,185,185,43
-9,-24,-14,17,2,-19,-87,-58,102,175,185,34
24,-39,-63,7,43,-51,-102,-63,87,170,185,24
48,-53,-102,2,75,-78,-117,-73,73,165,180,9
73,-19,-92,-26,82,-56,-97,-68,73,175,180,14
58,4,-53,-31,56,-24,-73,-63,73,185,190,19
43,14,-29,-29,36,-7,-53,-43,82,190,195,34
48,53,4,-51,21,29,-39,-29,82,200,195,39
48,53,4,-51,21,29,-4,39,92,219,229,78
112,122,9,-117,51,65,24,73,131,224,239,92
136,165,29,-151,53,97,9,63,122,195,214,68
68,68,0,-68,34,34,-48,24,87,126,151,0
-4,-29,-24,17,9,-26,-39,82,126,107,131,-14
-14,-24,-9,19,-2,-17,-4,180,214,200,190,24
58,29,-29,-43,43,0,4,209,268,336,258,63
146,97,-48,-122,97,24,-39,151,336,448,297,58
126,170,43,-148,41,107,-78,92,439,619,380,97
73,239,165,-156,-46,202,-102,97,580,854,527,175
112,322,209,-217,-48,265,-117,151,780,1107,717,287
175,351,175,-263,0,263,-151,209,985,1385,956,429
253,434,180,-344,36,307,-204,244,1063,1742,1244,605
380,580,200,-480,90,390,-253,185,1019,2122,1542,790
463,614,151,-539,156,383,-307,78,1005,2513,1834,976
468,605,136,-536,165,370,-434,-39,976,2825,2103,1185
502,663,161,-583,170,412,-531,-195,746,2888,2205,1322
585,605,19,-595,283,312,-497,-253,444,2615,2074,1351
619,400,-219,-509,419,90,-370,-126,214,1947,1698,1249
556,219,-336,-387,446,-58,-224,-29,-53,1058,1180,1049
405,204,-200,-305,302,2,-92,-102,-424,336,683,771
180,151,-29,-165,104,61,4,-214,-761,-165,283,434
-34,-9,24,21,-29,7,73,-263,-1005,-507,-24,156
-156,-102,53,129,-104,-24,87,-273,-1176,-644,-180,9
-185,-107,78,146,-131,-14,39,-273,-1293,-673,-253,-92
-185,-82,102,134,-143,9,0,-312,-1317,-678,-283,-161
-219,-48,170,134,-195,61,-19,-341,-1205,-600,-268,-161
-224,-4,219,114,-222,107,-58,-307,-990,-439,-195,-122
-146,39,185,53,-165,112,-102,-248,-771,-312,-107,-58
-63,24,87,19,-75,56,-126,-234,-570,-204,9,19
-68,-14,53,41,-61,19,-185,-234,-375,-107,82,73
-53,-19,34,36,-43,7,-234,-229,-248,-43,97,68
0,39,39,-19,-19,39,-219,-190,-151,24,122,58
-34,39,73,-2,-53,56,-141,-107,-63,97,156,82
-73,-58,14,65,-43,-21,-73,0,34,165,204,126
-34,-97,-63,65,14,-80,-78,29,73,180,219,117
4,4,0,-4,2,2,-112,-9,73,136,180,73
122,180,58,-151,31,119,-92,0,87,146,190,82
195,200,4,-197,95,102,-73,14,122,170,229,97
146,117,-29,-131,87,43,-82,-9,131,170,214,87
126,39,-87,-82,107,-24,-63,0,146,195,219,87
97,0,-97,-48,97,-48,-53,-24,165,204,244,73
53,-29,-82,-12,68,-56,-58,-43,175,209,229,68
43,-43,-87,0,65,-65,-48,-24,190,200,219,87
43,-58,-102,7,73,-80,-34,0,219,214,229,92
9,-63,-73,26,41,-68,-19,19,224,219,248,107
29,-39,-68,4,48,-53,-9,24,229,219,239,92
53,-19,-73,-17,63,-46,-48,43,219,209,229,78
73,-24,-97,-24,85,-61,-78,53,234,209,224,73
68,-39,-107,-14,87,-73,-97,58,219,200,214,63
87,-48,-136,-19,112,-92,-141,63,214,180,200,58
63,-68,-131,2,97,-100,-131,97,219,170,209,58
48,-73,-122,12,85,-97,-117,146,224,170,209,58
29,-63,-92,17,61,-78,-112,136,229,170,204,58
-4,-48,-43,26,19,-46,-112,131,229,170,195,43
24,-19,-43,-2,34,-31,-107,141,204,170,185,29
43,19,-24,-31,34,-2,-102,131,200,165,185,24
68,53,-14,-61,41,19,-87,151,200,165,185,24
97,97,0,-97,48,48,-73,185,214,175,195,39
122,87,-34,-104,78,26,-48,180,234,190,234,78
107,92,-14,-100,61,39,-43,170,239,204,234,92
92,82,-9,-87,51,36,-39,151,244,214,239,102
117,97,-19,-107,68,39,-48,117,244,219,244,117
107,131,24,-119,41,78,-58,92,239,229,239,102
78,112,34,-95,21,73,-53,117,234,248,248,107
4,39,34,-21,-14,36,-39,97,229,253,248,112
-48,-4,43,26,-46,19,-29,78,229,253,244,107
-14,19,34,-2,-24,26,-48,78,224,229,219,92
4,9,4,-7,0,7,-48,68,219,224,209,73
0,-9,-9,4,4,-9,-53,87,219,214,204,58
19,14,-4,-17,12,4,-58,131,214,209,204,48
34,14,-19,-24,26,-2,-58,131,224,195,204,53
34,-14,-48,-9,41,-31,-73,107,219,175,195,58
39,-53,-92,7,65,-73,-87,82,204,161,185,53
48,-82,-131,17,90,-107,-78,87,204,156,185,58
24,-87,-112,31,68,-100,-68,68,209,185,190,48
-14,-82,-68,48,26,-75,-73,48,209,185,180,43
-39,-73,-34,56,-2,-53,-87,24,200,180,165,29
-53,-63,-9,58,-21,-36,-82,4,200,180,156,34
-4,4,9,0,-7,7,-73,39,209,185,170,39
9,29,19,-19,-4,24,-68,58,200,195,170,39
68,43,-24,-56,46,9,-63,92,204,190,175,43
92,63,-29,-78,61,17,-48,136,214,200,180,48
68,73,4,-70,31,39,-78,156,204,180,175,43
68,63,-4,-65,36,29,-97,185,195,170,161,29
68,48,-19,-58,43,14,-126,151,185,122,136,14
63,9,-53,-36,58,-21,-146,156,165,122,131,9
78,14,-63,-46,70,-24,-117,165,185,151,141,24
78,9,-68,-43,73,-29,-97,170,195,165,146,29
68,-14,-82,-26,75,-48,-82,175,204,175,151,29
39,-48,-87,4,63,-68,-73,170,204,180,151,29
24,-43,-68,9,46,-56,-53,156,190,146,146,24
24,-19,-43,-2,34,-31,-43,161,185,131,146,24
24,14,-9,-19,17,2,-24,165,185,117,146,29
24,24,0,-24,12,12,-14,161,185,107,146,29
19,9,-9,-14,14,0,-19,117,185,87,131,14
14,4,-9,-9,12,-2,-14,73,185,92,122,4
-4,-19,-14,12,4,-17,-14,43,180,87,112,-4
-14,-43,-29,29,7,-36,-19,19,156,78,92,-34
-4,-39,-34,21,14,-36,-19,14,156,68,97,-48
19,-58,-78,19,48,-68,-14,14,151,78,97,-58
48,-48,-97,0,73,-73,-4,19,165,87,102,-39
29,-39,-68,4,48,-53,4,14,170,82,102,-53
-4,-58,-53,31,24,-56,-39,14,141,58,82,-73
4,-63,-68,29,36,-65,-82,43,122,29,63,-87
19,-68,-87,24,53,-78,-102,68,131,39,63,-78
9,-78,-87,34,48,-82,-112,97,141,39,58,-78
14,-58,-73,21,43,-65,-92,126,112,14,68,-78
29,-34,-63,2,46,-48,-82,156,107,4,73,-63
73,-14,-87,-29,80,-51,-68,190,126,-9,78,-48
92,-19,-112,-36,102,-65,-53,200,131,-19,68,-29
92,-39,-131,-26,112,-85,-29,165,112,-19,43,-53
73,-34,-107,-19,90,-70,-24,136,87,-29,19,-78
63,-43,-107,-9,85,-75,-29,87,63,-43,-14,-117
39,-73,-112,17,75,-92,-24,34,24,-63,-39,-141
-14,-122,-107,68,46,-114,-19,43,29,-78,-53,-151
-29,-146,-117,87,43,-131,0,78,4,-82,-68,-156
-19,-161,-141,90,61,-151,4,117,-19,-107,-73,-161
-19,-165,-146,92,63,-156,4,131,-34,-136,-97,-170
-78,-170,-92,124,7,-131,14,131,-29,-156,-107,-165
-97,-190,-92,143,-2,-141,14,126,-48,-170,-112,-170
-107,-209,-102,158,-2,-156,14,112,-68,-200,-122,-165
-112,-214,-102,163,-4,-158,0,92,-87,-224,-136,-175
-107,-204,-97,156,-4,-151,9,102,-112,-234,-146,-185
-97,-170,-73,134,-12,-122,29,112,-126,-234,-161,-185
-78,-151,-73,114,-2,-112,43,131,-136,-248,-175,-185
-87,-131,-43,109,-21,-87,43,156,-156,-268,-195,-195
-97,-126,-29,112,-34,-78,24,131,-180,-326,-253,-244
-126,-146,-19,136,-53,-82,-9,87,-244,-385,-297,-278
-126,-136,-9,131,-58,-73,-19,48,-278,-424,-322,-297
-87,-122,-34,104,-26,-78,-9,19,-287,-448,-336,-302
-97,-117,-19,107,-39,-68,34,-14,-297,-468,-336,-297
-131,-146,-14,139,-58,-80,48,-29,-317,-483,-356,-307
-102,-170,-68,136,-17,-119,82,-29,-336,-497,-366,-307
-78,-156,-78,117,0,-117,97,-39,-366,-527,-395,-326
-82,-146,-63,114,-9,-104,58,-97,-419,-590,-444,-380
-107,-151,-43,129,-31,-97,34,-146,-463,-649,-478,-429
-122,-185,-63,153,-29,-124,19,-200,-497,-683,-512,-458
-131,-185,-53,158,-39,-119,4,-219,-531,-717,-531,-483
-117,-195,-78,156,-19,-136,29,-200,-527,-712,-536,-468
-131,-214,-82,173,-24,-148,39,-200,-531,-727,-546,-488
-112,-200,-87,156,-12,-143,39,-209,-546,-732,-566,-488
-122,-195,-73,158,-24,-134,48,-200,-561,-741,-580,-497
-165,-239,-73,202,-46,-156,58,-175,-585,-751,-590,-483
-209,-268,-58,239,-75,-163,78,-185,-605,-766,-600,-492
-248,-292,-43,270,-102,-168,92,-156,-639,-785,-605,-502
-214,-307,-92,261,-61,-200,102,-136,-644,-805,-595,-512
-151,-253,-102,202,-24,-178,97,-151,-653,-795,-605,-502
-151,-234,-82,192,-34,-158,87,-146,-668,-800,-614,-502
-190,-268,-78,229,-56,-173,73,-156,-683,-810,-624,-517
-195,-268,-73,231,-61,-170,58,-170,-692,-819,-624,-522
-204,-273,-68,239,-68,-170,73,-195,-707,-819,-619,-531
-214,-268,-53,241,-80,-161,73,-204,-717,-819,-629,-531
-224,-278,-53,251,-85,-165,73,-204,-712,-814,-644,-531
-244,-312,-68,278,-87,-190,78,-214,-707,-810,-639,-541
-239,-326,-87,283,-75,-207,87,-204,-732,-829,-644,-566
-239,-331,-92,285,-73,-212,73,-204,-732,-844,-644,-575
-234,-331,-97,283,-68,-214,63,-195,-741,-844,-668,-585
-244,-326,-82,285,-80,-204,63,-175,-741,-844,-668,-600
-244,-268,-24,256,-109,-146,53,-131,-727,-849,-639,-585
-200,-229,-29,214,-85,-129,43,-102,-722,-829,-634,-570
-151,-200,-48,175,-51,-124,29,-87,-717,-819,-629,-561
-126,-165,-39,146,-43,-102,19,-68,-717,-819,-614,-556
-151,-161,-9,156,-70,-85,9,-78,-688,-790,-600,-551
-165,-170,-4,168,-80,-87,-4,-82,-668,-785,-600,-561
-170,-214,-43,192,-63,-129,-29,-92,-658,-785,-605,-561
-185,-234,-48,209,-68,-141,-4,-102,-624,-761,-590,-556
-219,-229,-9,224,-104,-119,34,-107,-595,-717,-561,-531
-214,-239,-24,226,-95,-131,43,-126,-566,-683,-551,-527
-209,-244,-34,226,-87,-139,48,-156,-551,-668,-536,-517
-244,-244,0,244,-122,-122,58,-170,-522,-634,-522,-507
-229,-214,14,222,-122,-100,63,-165,-527,-600,-488,-488
-185,-190,-4,187,-90,-97,68,-151,-497,-570,-463,-468
-170,-200,-29,185,-70,-114,68,-136,-458,-556,-453,-458
-170,-200,-29,185,-70,-114,58,-122,-453,-531,-439,-453
-136,-195,-58,165,-39,-126,53,-87,-453,-507,-414,-439
-92,-200,-107,146,7,-153,53,-63,-424,-473,-380,-414
-73,-185,-112,129,19,-148,48,-63,-414,-439,-356,-409
-39,-161,-122,100,41,-141,29,-73,-409,-444,-356,-414
-29,-112,-82,70,26,-97,-9,-122,-409,-448,-346,-414
-19,-92,-73,56,26,-82,-19,-146,-409,-439,-326,-414
-14,-43,-29,29,7,-36,-24,-146,-395,-409,-317,-409
-9,0,9,4,-9,4,-29,-165,-380,-400,-322,-395
-34,-19,14,26,-24,-2,-39,-165,-356,-361,-297,-366
-73,-19,53,46,-63,17,-39,-151,-322,-317,-258,-341
-78,-19,58,48,-68,19,-19,-136,-297,-287,-234,-307
-78,-19,58,48,-68,19,-19,-122,-273,-287,-209,-302
-82,-48,34,65,-58,-7,-14,-102,-258,-248,-204,-302
-87,-107,-19,97,-34,-63,-24,-92,-253,-229,-190,-302
-97,-126,-29,112,-34,-78,-34,-107,-253,-244,-195,-302
-82,-136,-53,109,-14,-95,-29,-146,-239,-234,-170,-297
-58,-107,-48,82,-4,-78,-34,-141,-229,-214,-161,-297
-39,-87,-48,63,4,-68,-34,-126,-209,-214,-175,-287
-58,-87,-29,73,-14,-58,-39,-136,-190,-209,-180,-287
-97,-112,-14,104,-41,-63,-39,-102,-175,-204,-161,-283
-175,-73,102,124,-139,14,-73,-190,-161,-161,-136,-239
-117,0,117,58,-117,58,-39,-244,-165,-136,-97,-224
-82,0,82,41,-82,41,-24,-229,-151,-126,-82,-209
-58,0,58,29,-58,29,-9,-214,-136,-117,-78,-204
-34,0,34,17,-34,17,4,-200,-122,-107,-73,-200
-9,0,9,4,-9,4,19,-185,-107,-97,-68,-195
-14,-14,0,14,-7,-7,9,-136,-87,-87,-58,-209
4,-43,-48,19,26,-46,0,-92,-87,-87,-48,-209
29,-73,-102,21,65,-87,-14,-58,-82,-92,-53,-214
82,-97,-180,7,131,-139,-39,-4,-78,-87,-48,-219
53,-53,-107,0,80,-80,-34,4,-48,-68,-29,-185
48,-14,-63,-17,56,-39,-34,4,-39,-63,-24,-170
68,34,-34,-51,51,0,-34,14,-19,-58,-19,-161
73,53,-19,-63,46,17,-29,9,4,-43,-9,-141
9,4,-4,-7,7,0,-48,-43,4,-58,-9,-161
-24,-9,14,17,-19,2,-68,-43,4,-63,0,-161
-24,9,34,7,-29,21,-97,-102,9,-58,0,-156
-58,4,63,26,-61,34,-126,-136,19,-58,-4,-165
-34,34,68,0,-51,51,-112,-151,19,-43,4,-156
-34,39,73,-2,-53,56,-107,-161,24,-39,9,-146
-24,63,87,-19,-56,75,-102,-165,24,-34,29,-141
9,73,63,-41,-26,68,-92,-175,39,-29,34,-131
48,82,34,-65,7,58,-82,-219,29,-43,34,-136
48,87,39,-68,4,63,-92,-263,24,-48,34,-131
24,97,73,-61,-24,85,-112,-317,24,-53,39,-126
24,126,102,-75,-39,114,-107,-380,29,-58,39,-122
39,122,82,-80,-21,102,-112,-346,43,-29,63,-102
48,126,78,-87,-14,102,-117,-307,43,0,87,-68
39,92,53,-65,-7,73,-112,-268,39,34,107,-58
29,39,9,-34,9,24,-112,-229,39,48,122,-43
53,58,4,-56,24,31,-82,-229,53,39,122,-48
68,92,24,-80,21,58,-58,-219,68,34,136,-34
87,102,14,-95,36,58,-39,-209,73,24,136,-34
102,97,-4,-100,53,46,-34,-224,68,9,131,-43
73,48,-24,-61,48,12,-43,-234,82,19,131,-24
78,43,-34,-61,56,4,-48,-234,97,43,156,-14
68,39,-29,-53,48,4,-58,-234,102,53,161,-4
39,-14,-53,-12,46,-34,-63,-229,102,68,156,9
43,-19,-63,-12,53,-41,-92,-239,112,68,161,14
43,-4,-48,-19,46,-26,-107,-268,112,68,165,19
68,14,-53,-41,61,-19,-112,-278,117,73,161,19
92,68,-24,-80,58,21,-122,-287,122,82,165,29
87,78,-9,-82,48,34,-122,-258,126,87,156,24
92,73,-19,-82,56,26,-117,-244,141,97,170,29
102,73,-29,-87,65,21,-107,-239,146,97,170,29
107,73,-34,-90,70,19,-117,-239,146,92,165,24
68,63,-4,-65,36,29,-97,-278,151,97,165,34
48,63,14,-56,17,39,-87,-302,146,102,165,34
19,63,43,-41,-12,53,-58,-336,146,107,175,39
-14,29,43,-7,-29,36,-39,-366,151,112,190,48
9,14,4,-12,2,9,-43,-400,131,102,175,34
39,-4,-43,-17,41,-24,-53,-424,112,97,170,19
63,14,-48,-39,56,-17,-58,-448,102,87,165,9
87,0,-87,-43,87,-43,-53,-448,92,92,170,4
78,4,-73,-41,75,-34,-29,-453,112,122,185,34
58,19,-39,-39,48,-9,-14,-448,117,131,195,48
58,29,-29,-43,43,0,-4,-453,122,146,214,63
63,34,-29,-48,46,2,4,-463,126,156,219,78
73,24,-48,-48,61,-12,-14,-463,131,156,224,87
48,4,-43,-26,46,-19,-39,-483,131,156,229,78
19,-14,-34,-2,26,-24,-48,-478,136,156,234,78
53,4,-48,-29,51,-21,-58,-473,136,161,244,78
92,39,-53,-65,73,-7,-78,-458,131,151,239,73
73,53,-19,-63,46,17,-97,-453,131,151,234,73
63,68,4,-65,29,36,-107,-448,131,161,239,78
97,87,-9,-92,53,39,-122,-439,151,180,248,82
112,73,-39,-92,75,17,-92,-473,156,190,263,87
117,68,-48,-92,82,9,-73,-497,151,190,268,87
112,48,-63,-80,87,-7,-43,-517,156,190,263,92
146,63,-82,-104,114,-9,-14,-522,161,214,283,107
112,58,-53,-85,82,2,-14,-531,180,229,297,126
53,34,-19,-43,36,7,-14,-536,200,229,307,131
19,4,-14,-12,17,-4,-14,-536,214,239,312,136
14,-4,-19,-4,17,-12,-14,-531,224,248,312,141
29,-9,-39,-9,34,-24,-34,-536,209,248,322,136
34,9,-24,-21,29,-7,-39,-556,204,239,322,131
43,9,-34,-26,39,-12,-39,-551,204,239,322,112
58,-19,-78,-19,68,-48,-39,-551,209,239,322,107
92,43,-48,-68,70,-2,-19,-575,209,248,336,117
92,87,-4,-90,48,41,-14,-585,229,258,346,136
92,78,-14,-85,53,31,0,-570,248,273,356,156
87,63,-24,-75,56,19,34,-561,292,292,375,190
78,53,-24,-65,51,14,24,-605,278,287,361,165
78,82,4,-80,36,43,9,-629,244,287,366,151
73,82,9,-78,31,46,0,-668,214,278,356,136
73,48,-24,-61,48,12,-9,-697,190,268,341,122
58,24,-34,-41,46,-4,-19,-702,185,248,331,112
63,19,-43,-41,53,-12,-29,-702,180,244,322,112
58,14,-43,-36,51,-14,-39,-707,175,239,307,107
68,14,-53,-41,61,-19,-48,-707,170,234,297,107
63,34,-29,-48,46,2,-34,-702,175,253,322,122
58,39,-19,-48,39,9,-34,-683,190,258,331,136
73,73,0,-73,36,36,-39,-668,195,268,336,141
97,92,-4,-95,51,43,-43,-663,200,268,346,146
24,4,-19,-14,21,-7,-82,-727,131,224,287,63
117,87,-29,-102,73,29,-68,-746,190,244,302,97
107,126,19,-117,43,73,-29,-785,244,273,297,117
34,156,122,-95,-43,139,9,-746,292,302,317,141
63,170,107,-117,-21,139,34,-697,341,317,336,141
58,97,39,-78,9,68,34,-736,356,356,356,112
68,68,0,-68,34,34,19,-766,405,448,395,97
204,122,-82,-163,143,19,-58,-756,507,580,458,117
258,200,-58,-229,158,70,-131,-722,678,775,585,185
122,204,82,-163,19,143,-136,-619,888,1019,756,287
126,204,78,-165,24,141,-131,-483,1083,1298,946,429
370,356,-14,-363,192,170,-146,-400,1200,1634,1195,614
400,502,102,-451,148,302,-175,-429,1244,2005,1483,810
297,566,268,-431,14,417,-209,-536,1288,2405,1795,1005
488,702,214,-595,136,458,-317,-644,1278,2727,2054,1205
717,819,102,-768,307,461,-463,-771,1117,2830,2196,1351
780,810,29,-795,375,419,-488,-829,873,2684,2191,1439
805,692,-112,-749,458,290,-380,-780,663,2171,1952,1415
722,463,-258,-592,490,102,-195,-741,385,1302,1454,1254
453,204,-248,-329,351,-21,-4,-824,-14,522,936,995
200,63,-136,-131,168,-36,122,-985,-409,68,556,688
63,48,-14,-56,39,17,170,-1161,-722,-253,248,380
-58,73,131,-7,-95,102,136,-1307,-1010,-497,4,126
-146,58,204,43,-175,131,68,-1385,-1185,-595,-126,-24
-136,-24,112,80,-124,43,0,-1424,-1249,-600,-175,-102
-122,-87,34,104,-78,-26,-68,-1424,-1176,-561,-170,-141
-136,-53,82,95,-109,14,-87,-1293,-971,-429,-107,-102
-78,48,126,14,-102,87,-82,-1117,-722,-253,-9,-19
53,82,29,-68,12,56,-136,-1034,-541,-136,68,39
48,14,-34,-31,41,-9,-244,-1024,-405,-97,92,34
-43,-39,4,41,-24,-17,-283,-971,-258,-43,117,29
-19,9,29,4,-24,19,-209,-863,-112,34,180,68
63,68,4,-65,29,36,-122,-722,34,117,244,102
43,68,24,-56,9,46,-73,-634,131,165,292,117
34,58,24,-46,4,41,-78,-634,170,209,307,117
122,102,-19,-112,70,41,-63,-653,200,244,317,131
219,141,-78,-180,148,31,-63,-663,234,263,317,131
156,82,-73,-119,114,4,-82,-688,209,219,287,117
122,43,-78,-82,100,-17,-58,-653,229,224,292,131
117,19,-97,-68,107,-39,-24,-605,253,253,307,146
102,34,-68,-68,85,-17,0,-590,283,268,341,146
73,58,-14,-65,43,21,9,-570,302,278,336,156
97,43,-53,-70,75,-4,-9,-575,297,287,312,156
122,29,-92,-75,107,-31,-14,-566,317,302,317,151
112,24,-87,-68,100,-31,-19,-561,312,307,331,156
156,48,-107,-102,131,-29,-29,-570,307,307,317,131
156,92,-63,-124,109,14,-39,-585,312,307,312,131
151,112,-39,-131,95,36,-39,-590,331,307,312,131
122,122,0,-122,61,61,-29,-600,322,297,307,126
117,136,19,-126,48,78,-43,-610,322,278,297,126
122,112,-9,-117,65,51,-19,-624,322,268,297,117
126,102,-24,-114,75,39,0,-605,322,268,297,117
126,107,-19,-117,73,43,9,-644,322,268,292,117
112,117,4,-114,53,61,14,-678,317,268,283,102
97,102,4,-100,46,53,14,-653,307,278,292,107
82,97,14,-90,34,56,14,-639,307,283,292,102
73,87,14,-80,29,51,24,-595,312,292,292,102
68,87,19,-78,24,53,34,-536,331,312,302,117
82,92,9,-87,36,51,48,-517,351,322,331,141
68,102,34,-85,17,68,43,-502,356,322,322,141
53,97,43,-75,4,70,39,-497,361,317,317,136
78,117,39,-97,19,78,19,-507,361,307,312,136
82,126,43,-104,19,85,34,-541,351,292,302,146
68,82,14,-75,26,48,43,-536,341,297,317,156
9,-14,-24,2,17,-19,63,-575,331,287,322,165
-29,-82,-53,56,12,-68,78,-614,326,273,322,165
29,-14,-43,-7,36,-29,53,-585,312,268,312,175
63,9,-53,-36,58,-21,39,-575,307,273,307,170
73,24,-48,-48,61,-12,19,-536,307,273,307,170
107,82,-24,-95,65,29,0,-473,302,278,312,175
131,102,-29,-117,80,36,-9,-429,287,268,307,165
141,92,-48,-117,95,21,-34,-419,278,244,292,156
156,73,-82,-114,119,-4,-58,-409,258,224,278,136
175,63,-112,-119,143,-24,-58,-370,253,214,273,126
151,43,-107,-97,129,-31,-29,-370,283,248,302,141
122,34,-87,-78,104,-26,-14,-380,297,253,307,141
107,29,-78,-68,92,-24,-9,-395,302,253,307,131
102,24,-78,-63,90,-26,14,-405,317,258,312,141
97,34,-63,-65,80,-14,9,-375,326,268,317,156
58,9,-48,-34,53,-19,9,-361,317,273,317,156
63,-24,-87,-19,75,-56,9,-331,322,263,322,161
34,-53,-87,9,61,-70,19,-292,331,268,326,165
39,-29,-68,-4,53,-48,34,-292,317,263,312,156
58,-24,-82,-17,70,-53,39,-273,312,258,297,146
78,-24,-102,-26,90,-63,34,-317,307,214,273,136
92,-48,-141,-21,117,-95,39,-322,292,219,268,136
117,24,-92,-70,104,-34,53,-322,302,219,273,151
126,78,-48,-102,87,14,58,-317,302,224,273,165
126,112,-14,-119,70,48,58,-312,302,224,273,175
107,136,29,-122,39,82,53,-317,292,219,268,185
92,87,-4,-90,48,41,39,-351,297,224,273,175
92,68,-24,-80,58,21,34,-366,312,229,283,180
92,58,-34,-75,63,12,39,-380,331,234,292,190
92,24,-68,-58,80,-21,34,-405,351,244,302,195
87,48,-39,-68,63,4,24,-448,331,209,292,195
82,73,-9,-78,46,31,24,-492,322,209,278,190
63,78,14,-70,24,46,19,-522,307,200,263,185
53,82,29,-68,12,56,9,-546,273,185,239,161
34,48,14,-41,9,31,4,-473,244,151,229,146
29,0,-29,-14,29,-14,4,-395,219,146,224,136
29,-19,-48,-4,39,-34,9,-312,214,141,224,156
-19,-39,-19,29,0,-29,14,-239,200,122,219,141
-14,-19,-4,17,-4,-12,4,-239,190,117,200,126
24,-4,-29,-9,26,-17,-14,-200,180,87,180,117
68,9,-58,-39,63,-24,-9,-165,200,97,180,131
87,19,-68,-53,78,-24,4,-126,219,97,175,136
78,43,-34,-61,56,4,14,-112,190,78,170,117
78,73,-4,-75,41,34,24,-87,185,73,170,112
107,97,-9,-102,58,43,39,-58,204,63,170,107
112,97,-14,-104,63,41,53,-53,209,58,156,107
112,78,-34,-95,73,21,68,-82,195,48,146,112
82,73,-9,-78,46,31,73,-97,185,39,126,107
63,53,-9,-58,36,21,68,-131,175,24,97,87
29,14,-14,-21,21,0,73,-170,151,4,78,82
19,-24,-43,2,31,-34,68,-131,170,9,82,87
39,-29,-68,-4,53,-48,87,-78,161,14,78,87
82,-24,-107,-29,95,-65,92,-19,151,0,82,87
117,-9,-126,-53,122,-68,92,14,151,-19,68,82
39,-39,-78,0,58,-58,92,14,131,-43,43,78
-9,-73,-63,41,26,-68,92,0,107,-63,24,63
-48,-107,-58,78,4,-82,92,-24,82,-97,0,58
-82,-126,-43,104,-19,-85,78,-53,58,-126,-29,39
-73,-122,-48,97,-12,-85,63,-87,9,-156,-58,0
-68,-92,-24,80,-21,-58,68,-102,-19,-175,-82,-9
-53,-78,-24,65,-14,-51,68,-107,-43,-209,-107,-19
-68,-63,4,65,-36,-29,53,-107,-78,-248,-136,-39
-112,-92,19,102,-65,-36,34,-92,-97,-287,-195,-78
-165,-136,29,151,-97,-53,0,-107,-156,-336,-239,-112
-190,-151,39,170,-114,-56,-9,-117,-185,-366,-263,-131
-175,-161,14,168,-95,-73,0,-117,-190,-380,-278,-136
-165,-151,14,158,-90,-68,43,-170,-195,-409,-287,-141
-180,-175,4,178,-92,-85,68,-204,-209,-424,-307,-151
-131,-195,-63,163,-34,-129,112,-224,-224,-439,-317,-151
-87,-175,-87,131,0,-131,136,-253,-248,-468,-346,-170
-68,-131,-63,100,-2,-97,122,-263,-278,-512,-395,-185
-68,-112,-43,90,-12,-78,112,-273,-307,-551,-419,-214
-58,-122,-63,90,2,-92,112,-287,-326,-566,-444,-224
-43,-97,-53,70,4,-75,112,-268,-346,-580,-453,-229
-68,-126,-58,97,-4,-92,122,-234,-351,-590,-463,-224
-112,-156,-43,134,-34,-100,126,-209,-356,-619,-478,-244
-122,-151,-29,136,-46,-90,122,-195,-370,-639,-502,-244
-161,-156,4,158,-82,-75,126,-161,-385,-663,-522,-253
-175,-156,19,165,-97,-68,122,-190,-434,-697,-561,-258
-190,-151,39,170,-114,-56,126,-234,-468,-717,-590,-278
-200,-141,58,170,-129,-41,126,-239,-517,-741,-614,-297
-136,-122,14,129,-75,-53,122,-253,-536,-766,-624,-317
-87,-102,-14,95,-36,-58,151,-239,-522,-756,-619,-302
-102,-117,-14,109,-43,-65,156,-214,-522,-751,-624,-297
-156,-185,-29,170,-63,-107,156,-204,-522,-751,-629,-307
-175,-219,-43,197,-65,-131,156,-200,-517,-751,-624,-307
-185,-214,-29,200,-78,-122,141,-204,-527,-756,-634,-312
-195,-200,-4,197,-95,-102,131,-204,-541,-761,-649,-317
-204,-200,4,202,-104,-97,122,-195,-541,-761,-668,-322
-224,-224,0,224,-112,-112,117,-195,-541,-761,-668,-336
-224,-234,-9,229,-107,-122,117,-185,-551,-766,-668,-341
-229,-234,-4,231,-112,-119,102,-195,-546,-775,-663,-341
-229,-229,0,229,-114,-114,92,-195,-551,-771,-683,-341
-244,-219,24,231,-134,-97,92,-185,-546,-766,-678,-346
-268,-175,92,222,-180,-41,78,-180,-531,-751,-653,-336
-239,-161,78,200,-158,-41,73,-190,-527,-722,-653,-326
-204,-156,48,180,-126,-53,63,-214,-522,-702,-653,-322
-195,-146,48,170,-122,-48,58,-234,-522,-692,-644,-322
-190,-136,53,163,-122,-41,58,-209,-517,-683,-624,-307
-185,-141,43,163,-114,-48,43,-190,-512,-678,-619,-317
-170,-180,-9,175,-80,-95,19,-175,-517,-678,-619,-317
-165,-195,-29,180,-68,-112,43,-161,-497,-653,-600,-312
-175,-136,39,156,-107,-48,73,-146,-468,-624,-575,-292
-156,-112,43,134,-100,-34,82,-146,-448,-605,-570,-292
-136,-82,53,109,-95,-14,87,-156,-444,-605,-561,-287
-156,-48,107,102,-131,29,97,-151,-424,-585,-551,-283
-185,-53,131,119,-158,39,78,-126,-424,-575,-546,-292
-175,-63,112,119,-143,24,68,-102,-400,-551,-531,-283
-195,-107,87,151,-141,-9,53,-78,-366,-541,-531,-283
-229,-141,87,185,-158,-26,29,-53,-366,-522,-527,-287
-204,-112,92,158,-148,-9,39,-29,-336,-483,-488,-258
-180,-102,78,141,-129,-12,53,-4,-287,-434,-448,-229
-180,-73,107,126,-143,17,63,-4,-258,-385,-419,-219
-165,-34,131,100,-148,48,58,-14,-234,-375,-414,-219
-131,-4,126,68,-129,61,19,-9,-234,-385,-409,-229
-107,-14,92,61,-100,39,9,9,-234,-380,-395,-229
-87,4,92,41,-90,48,4,53,-219,-356,-390,-224
-68,19,87,24,-78,53,0,78,-204,-351,-400,-209
-58,-19,39,39,-48,9,-9,68,-170,-317,-390,-204
-73,-29,43,51,-58,7,-9,63,-136,-268,-356,-185
-53,-39,14,46,-34,-12,9,58,-112,-234,-336,-156
-29,-48,-19,39,-4,-34,9,53,-87,-229,-317,-156
-87,-39,48,63,-68,4,29,24,-92,-200,-297,-146
-165,-146,19,156,-92,-63,-24,-14,-117,-229,-317,-195
-239,-214,24,226,-131,-95,-78,-58,-146,-244,-346,-234
-200,-175,24,187,-112,-75,-78,-29,-141,-244,-346,-229
-58,9,68,24,-63,39,-39,78,-87,-185,-283,-165
-68,34,102,17,-85,68,-24,102,-68,-165,-273,-151
-68,48,117,9,-92,82,-19,117,-48,-156,-263,-146
-68,63,131,2,-100,97,-14,131,-29,-146,-253,-141
-68,78,146,-4,-107,112,-9,146,-9,-136,-244,-136
-73,87,161,-7,-117,124,-19,146,-9,-136,-229,-141
-53,82,136,-14,-95,109,-29,151,-9,-136,-224,-141
-29,78,107,-24,-68,92,-43,146,-4,-141,-234,-146
24,78,53,-51,-14,65,-68,161,0,-136,-234,-151
-34,53,87,-9,-61,70,-92,141,0,-126,-234,-156
-58,43,102,7,-80,73,-112,122,-9,-131,-239,-161
-58,43,102,7,-80,73,-131,112,-9,-136,-244,-170
-73,14,87,29,-80,51,-146,87,-4,-131,-244,-170
-73,0,73,36,-73,36,-122,141,19,-122,-214,-161
-53,19,73,17,-63,46,-97,229,43,-102,-185,-151
0,73,73,-36,-36,73,-82,258,73,-73,-165,-136
19,102,82,-61,-31,92,-68,312,107,-48,-151,-136
-14,107,122,-46,-68,114,-48,356,131,-29,-131,-117
-53,97,151,-21,-102,124,-29,395,151,-19,-126,-97
-82,107,190,-12,-136,148,-9,439,165,-9,-107,-82
-87,102,190,-7,-139,146,14,478,195,0,-102,-63
-53,112,165,-29,-109,139,4,439,175,-14,-117,-82
-58,107,165,-24,-112,136,-24,390,161,-19,-122,-92
-87,107,195,-9,-141,151,-63,331,151,-24,-122,-102
-92,126,219,-17,-156,173,-78,263,146,-29,-126,-112
-53,112,165,-29,-109,139,-78,278,156,-24,-102,-117
-29,107,136,-39,-82,122,-87,297,151,-19,-87,-87
-24,63,87,-19,-56,75,-87,317,141,-9,-78,-82
-19,0,19,9,-19,9,-92,336,136,-19,-73,-73
-4,9,14,-2,-9,12,-82,341,151,-14,-58,-58
9,34,24,-21,-7,29,-78,356,165,-4,-39,-43
29,34,4,-31,12,19,-78,370,170,0,-34,-43
43,19,-24,-31,34,-2,-92,361,165,0,-34,-53
48,29,-19,-39,34,4,-87,380,165,9,-34,-53
78,73,-4,-75,41,34,-78,400,175,24,-9,-53
92,117,24,-104,34,70,-73,419,175,24,-4,-53
87,112,24,-100,31,68,-63,444,170,29,-9,-48
53,97,43,-75,4,70,-97,468,170,19,-4,-43
14,92,78,-53,-31,85,-126,463,170,19,0,-39
0,92,92,-46,-46,92,-146,478,175,24,-4,-39
-14,126,141,-56,-78,134,-170,492,180,34,0,-29
-53,97,151,-21,-102,124,-170,512,175,53,14,-14
-63,63,126,0,-95,95,-156,527,180,68,43,0
-68,34,102,17,-85,68,-136,531,175,73,58,9
-78,4,82,36,-80,43,-136,531,165,73,68,14
-58,29,87,14,-73,58,-107,536,180,63,68,19
-29,63,92,-17,-61,78,-97,546,185,63,58,14
-9,97,107,-43,-58,102,-68,546,195,63,58,14
4,97,92,-51,-43,95,-48,551,209,63,63,19
4,68,63,-36,-29,65,-53,527,195,43,53,0
9,43,34,-26,-12,39,-63,522,170,39,43,-19
9,58,48,-34,-19,53,-68,517,156,29,34,-34
9,39,29,-24,-9,34,-63,536,141,34,34,-43
0,48,48,-24,-24,48,-68,527,156,48,53,-24
-19,58,78,-19,-48,68,-73,517,156,53,58,-19
-19,63,82,-21,-51,73,-82,497,156,63,73,-14
-14,63,78,-24,-46,70,-92,473,156,68,73,-9
0,73,73,-36,-36,73,-68,463,151,78,87,0
-19,63,82,-21,-51,73,-68,444,151,78,92,-9
-43,53,97,-4,-70,75,-53,448,156,78,97,-9
-4,82,87,-39,-46,85,-39,453,156,82,107,-9
29,68,39,-48,-4,53,-43,444,156,73,117,-4
-4,53,58,-24,-31,56,-48,444,151,73,117,-4
-29,39,68,-4,-48,53,-43,444,146,82,126,0
-9,29,39,-9,-24,34,-43,448,161,102,141,4
-24,39,63,-7,-43,51,-53,492,170,112,151,19
-39,39,78,0,-58,58,-53,527,170,122,161,19
-63,24,87,19,-75,56,-43,566,180,131,161,24
-48,43,92,2,-70,68,-34,619,190,165,185,39
-29,39,68,-4,-48,53,-24,610,180,156,175,34
-53,4,58,24,-56,31,-24,605,180,151,180,34
-53,-34,19,43,-36,-7,-24,605,175,156,180,34
-24,-53,-29,39,2,-41,-24,610,165,161,175,34
-14,-39,-24,26,4,-31,-58,575,161,156,180,24
-24,-19,4,21,-14,-7,-68,536,165,151,185,24
-29,-19,9,24,-19,-4,-73,522,175,156,190,9
-29,-48,-19,39,-4,-34,-78,502,190,161,195,9
9,19,9,-14,0,14,-82,478,175,165,190,0
24,78,53,-51,-14,65,-92,458,180,170,190,0
39,82,43,-61,-2,63,-92,463,185,180,190,0
48,82,34,-65,7,58,-73,463,214,195,200,14
19,87,68,-53,-24,78,-53,473,229,200,209,29
9,122,112,-65,-51,117,-48,492,224,209,229,34
-4,126,131,-61,-68,129,-39,497,224,209,234,39
-14,97,112,-41,-63,104,-29,512,229,209,234,43
-19,63,82,-21,-51,73,-19,497,214,204,234,39
-4,58,63,-26,-34,61,-19,488,209,204,234,34
0,53,53,-26,-26,53,-19,473,204,204,229,24
19,53,34,-36,-7,43,-19,463,200,204,229,19
-19,29,48,-4,-34,39,-34,483,185,200,239,19
-48,-9,39,29,-43,14,-43,507,190,200,244,29
-58,-19,39,39,-48,9,-58,527,185,204,244,29
-58,-43,14,51,-36,-14,-73,536,180,200,248,29
24,14,-9,-19,17,2,-73,610,170,175,248,34
-39,0,39,19,-39,19,-78,629,151,175,244,19
-78,-39,39,58,-58,0,-78,649,146,175,219,29
-24,-19,4,21,-14,-7,-78,649,146,185,219,34
53,53,0,-53,26,26,-14,688,214,239,258,63
87,107,19,-97,34,63,43,746,287,297,307,102
58,68,9,-63,24,39,39,736,278,234,268,68
29,-24,-53,-2,41,-39,0,697,244,151,195,-9
34,-53,-87,9,61,-70,-4,683,258,131,175,-39
4,9,4,-7,0,7,0,658,283,170,190,-14
-58,68,126,-4,-92,97,-14,668,331,263,234,9
-87,73,161,7,-124,117,-58,653,380,414,317,39
-68,63,131,2,-100,97,-126,624,463,629,448,87
-4,126,131,-61,-68,129,-190,605,575,844,605,156
136,234,97,-185,19,165,-258,653,673,1078,805,268
248,331,82,-290,82,207,-278,761,805,1424,1151,492
283,380,97,-331,92,239,-273,849,893,1844,1556,756
317,507,190,-412,63,348,-302,810,819,2230,1893,956
429,649,219,-539,104,434,-380,644,629,2532,2166,1117
522,653,131,-588,195,392,-444,473,395,2698,2361,1288
541,561,19,-551,261,290,-473,302,126,2596,2342,1361
512,468,-43,-490,278,212,-424,234,-126,2147,2015,1259
419,297,-122,-358,270,87,-273,331,-229,1424,1429,1015
224,107,-117,-165,170,-4,-58,409,-326,663,790,678
-19,34,53,-7,-36,43,136,351,-536,14,234,287
-180,0,180,90,-180,90,292,341,-707,-444,-122,4
-224,-43,180,134,-202,68,419,444,-805,-644,-273,-122
-253,-117,136,185,-195,9,512,541,-917,-683,-331,-214
-307,-180,126,244,-217,-26,488,546,-1049,-702,-400,-302
-273,-131,141,202,-207,4,390,517,-1117,-722,-424,-346
-278,-87,190,183,-234,51,292,463,-1068,-649,-380,-331
-400,-165,234,283,-317,34,209,385,-990,-561,-307,-283
-366,-185,180,275,-273,-2,102,341,-902,-497,-263,-239
-180,-136,43,158,-112,-46,4,351,-746,-419,-224,-204
-131,-165,-34,148,-48,-100,-78,331,-580,-307,-161,-165
-219,-190,29,204,-124,-80,-141,322,-414,-204,-92,-122
-219,-122,97,170,-158,-12,-190,380,-244,-107,-24,-73
-156,-43,112,100,-134,34,-151,453,-92,4,63,-9
-117,-34,82,75,-100,24,-136,483,-43,48,87,19
-58,-29,29,43,-43,0,-102,527,9,97,122,39
-9,14,24,-2,-17,19,-78,536,68,131,175,43
24,68,43,-46,-9,56,-68,551,117,161,190,58
39,48,9,-43,14,29,-73,531,146,175,195,82
53,29,-24,-41,39,2,-73,536,180,195,209,82
34,19,-14,-26,24,2,-73,536,190,204,234,92
68,39,-29,-53,48,4,-78,522,200,209,229,73
53,39,-14,-46,34,12,-53,522,234,239,239,97
43,24,-19,-34,31,2,-29,522,273,258,253,112
9,0,-9,-4,9,-4,4,517,283,268,263,122
0,-19,-19,9,9,-19,14,512,302,268,268,136
4,4,0,-4,2,2,4,517,297,263,263,131
9,24,14,-17,-2,19,9,556,302,258,258,126
9,58,48,-34,-19,53,4,536,307,253,248,122
-4,97,102,-46,-53,100,-4,522,307,248,234,102
-9,39,48,-14,-29,43,0,492,297,248,234,107
-14,0,14,7,-14,7,-4,453,297,244,234,102
-14,-43,-29,29,7,-36,0,444,302,244,234,102
-9,-78,-68,43,29,-73,4,448,322,253,244,117
-4,-53,-48,29,21,-51,4,502,307,244,253,126
-29,-24,4,26,-17,-9,-14,541,287,244,244,122
-53,-9,43,31,-48,17,-34,570,268,239,239,112
-39,29,68,4,-53,48,-68,585,244,229,234,107
24,78,53,-51,-14,65,-63,610,234,219,224,92
58,73,14,-65,21,43,-53,663,234,229,229,97
48,14,-34,-31,41,-9,-34,673,234,224,224,102
58,-14,-73,-21,65,-43,-19,683,239,214,214,97
63,-14,-78,-24,70,-46,-24,663,253,224,219,102
53,-39,-92,-7,73,-65,-19,644,258,234,219,102
19,-73,-92,26,56,-82,-19,653,268,239,224,107
9,-63,-73,26,41,-68,-19,688,273,248,234,117
9,-19,-29,4,19,-24,-9,688,273,239,224,97
-4,-14,-9,9,2,-12,-24,673,268,224,204,87
-14,-19,-4,17,-4,-12,-39,658,253,214,185,68
-19,-14,4,17,-12,-4,-29,673,253,214,175,58
0,-29,-29,14,14,-29,-9,697,287,239,204,68
4,-34,-39,14,21,-36,-4,702,307,244,209,73
24,-34,-58,4,41,-46,-9,702,317,244,209,68
53,-34,-87,-9,70,-61,4,707,336,248,214,82
29,-4,-34,-12,31,-19,0,678,336,239,209,82
-19,-19,0,19,-9,-9,0,634,317,234,200,78
-24,-43,-19,34,-2,-31,0,605,312,214,195,78
-63,-63,0,63,-31,-31,9,585,312,209,190,78
-48,-19,29,34,-39,4,-9,527,307,209,185,73
-19,-4,14,12,-17,4,-19,497,302,209,170,58
9,4,-4,-7,7,0,-39,405,297,170,146,43
34,-9,-43,-12,39,-26,-48,351,283,180,141,39
48,4,-43,-26,46,-19,-39,370,287,185,136,34
58,9,-48,-34,53,-19,-29,385,283,185,136,39
58,-4,-63,-26,61,-34,-24,400,278,180,136,39
39,-29,-68,-4,53,-48,-24,405,263,170,131,39
34,-24,-58,-4,46,-41,-14,414,258,170,136,34
53,-9,-63,-21,58,-36,-4,444,263,170,136,34
73,14,-58,-43,65,-21,14,473,273,170,136,39
92,14,-78,-53,85,-31,24,492,283,175,136,39
78,4,-73,-41,75,-34,43,507,297,170,156,68
63,4,-58,-34,61,-26,53,502,312,190,161,82
34,-14,-48,-9,41,-31,58,512,322,200,165,97
14,-34,-48,9,31,-41,58,527,312,204,161,92
-19,-53,-34,36,7,-43,48,531,283,170,131,73
-29,-97,-68,63,19,-82,43,541,268,165,117,58
-34,-112,-78,73,21,-95,43,556,273,161,107,73
-87,-126,-39,107,-24,-82,43,561,268,141,92,53
-102,-102,0,102,-51,-51,39,551,258,141,78,24
-82,-82,0,82,-41,-41,14,570,239,117,63,9
-58,-63,-4,61,-26,-34,14,585,248,131,68,19
-58,-48,9,53,-34,-19,24,605,258,136,68,19
-48,-48,0,48,-24,-24,14,590,229,102,48,-4
-29,-43,-14,36,-7,-29,14,585,224,92,43,-4
19,-43,-63,12,41,-53,19,585,244,78,39,-4
43,-68,-112,12,78,-90,24,561,248,68,19,0
48,-58,-107,4,78,-82,29,522,234,58,4,0
24,-43,-68,9,46,-56,24,497,224,48,-9,-9
9,-43,-53,17,31,-48,9,453,214,34,-34,-34
-19,-63,-43,41,12,-53,4,405,190,14,-48,-43
-39,-53,-14,46,-12,-34,24,370,200,4,-58,-48
-29,-29,0,29,-14,-14,58,361,180,4,-68,-48
4,4,0,-4,2,2,78,356,161,-14,-68,-48
29,48,19,-39,4,34,92,326,151,-39,-87,-53
-14,-14,0,14,-7,-7,102,307,161,-58,-117,-78
-29,-73,-43,51,7,-58,102,283,146,-73,-131,-102
-34,-131,-97,82,31,-114,102,248,131,-102,-151,-117
-34,-175,-141,104,53,-158,87,209,117,-126,-175,-146
-53,-195,-141,124,43,-168,102,234,107,-126,-175,-151
-58,-190,-131,124,36,-161,126,258,107,-126,-180,-136
-53,-200,-146,126,46,-173,146,292,112,-141,-185,-122
-78,-209,-131,143,26,-170,151,331,107,-161,-195,-117
-73,-185,-112,129,19,-148,136,346,78,-214,-248,-161
-97,-185,-87,141,-4,-136,107,331,9,-268,-297,-200
-92,-156,-63,124,-14,-109,102,322,-29,-302,-326,-224
-48,-122,-73,85,12,-97,117,322,-43,-322,-346,-234
-68,-112,-43,90,-12,-78,146,268,-58,-346,-370,-248
-102,-146,-43,124,-29,-95,146,234,-73,-366,-395,-258
-73,-175,-102,124,14,-139,165,214,-87,-385,-409,-258
-48,-165,-117,107,34,-141,165,185,-112,-419,-444,-278
-82,-175,-92,129,4,-134,156,156,-165,-468,-497,-317
-136,-190,-53,163,-41,-122,151,136,-200,-512,-527,-351
-180,-234,-53,207,-63,-143,156,112,-224,-531,-556,-366
-219,-244,-24,231,-97,-134,161,122,-248,-551,-570,-375
-190,-229,-39,209,-75,-134,170,112,-253,-575,-595,-380
-180,-224,-43,202,-68,-134,175,102,-268,-610,-614,-409
-136,-185,-48,161,-43,-117,170,82,-292,-634,-644,-419
-122,-156,-34,139,-43,-95,175,82,-317,-663,-668,-439
-165,-190,-24,178,-70,-107,195,43,-341,-683,-688,-429
-200,-209,-9,204,-95,-109,214,-9,-361,-697,-707,-444
-229,-224,4,226,-117,-109,229,-24,-395,-717,-722,-458
-185,-229,-43,207,-70,-136,239,-48,-400,-736,-722,-473
-141,-204,-63,173,-39,-134,248,-29,-414,-746,-732,-478
-151,-204,-53,178,-48,-129,244,0,-434,-761,-751,-483
-200,-258,-58,229,-70,-158,234,14,-453,-780,-771,-502
-214,-278,-63,246,-75,-170,224,24,-468,-800,-780,-512
-200,-258,-58,229,-70,-158,204,19,-507,-834,-800,-517
-195,-229,-34,212,-80,-131,190,19,-531,-858,-824,-522
-190,-214,-24,202,-82,-119,175,29,-541,-878,-854,-527
-195,-224,-29,209,-82,-126,165,29,-551,-897,-863,-541
-185,-234,-48,209,-68,-141,190,4,-551,-902,-873,-546
-190,-234,-43,212,-73,-139,190,-29,-546,-912,-868,-546
-190,-229,-39,209,-75,-134,195,-53,-551,-907,-888,-546
-204,-219,-14,212,-95,-117,209,-68,-546,-902,-883,-551
-239,-219,19,229,-129,-100,204,-82,-556,-907,-873,-546
-219,-229,-9,224,-104,-119,200,-102,-556,-897,-878,-541
-195,-248,-53,222,-70,-151,190,-136,-556,-897,-883,-541
-195,-263,-68,229,-63,-165,185,-165,-561,-907,-878,-546
-200,-239,-39,219,-80,-139,204,-180,-522,-888,-844,-522
-204,-229,-24,217,-90,-126,209,-180,-502,-883,-834,-522
-200,-253,-53,226,-73,-153,204,-185,-492,-883,-829,-512
-204,-253,-48,229,-78,-151,248,-190,-458,-858,-805,-497
-204,-229,-24,217,-90,-126,248,-224,-458,-849,-800,-488
-185,-239,-53,212,-65,-146,239,-273,-458,-839,-805,-497
-165,-244,-78,204,-43,-161,224,-331,-473,-849,-805,-502
-185,-244,-58,214,-63,-151,214,-375,-473,-839,-805,-507
-195,-200,-4,197,-95,-102,224,-322,-448,-795,-756,-478
-165,-161,4,163,-85,-78,234,-278,-409,-756,-717,-439
-165,-156,9,161,-87,-73,239,-234,-361,-732,-692,-409
-180,-141,39,161,-109,-51,234,-190,-346,-697,-663,-385
-190,-131,58,161,-124,-36,224,-185,-341,-683,-649,-380
-180,-141,39,161,-109,-51,229,-180,-317,-649,-614,-356
-195,-131,63,163,-129,-34,229,-200,-312,-614,-590,-351
-195,-112,82,153,-139,-14,214,-229,-312,-619,-590,-356
-161,-97,63,129,-112,-17,185,-268,-312,-619,-580,-366
-146,-112,34,129,-90,-39,175,-273,-312,-614,-561,-366
-136,-97,39,117,-87,-29,170,-253,-297,-590,-551,-361
-126,-87,39,107,-82,-24,165,-253,-283,-585,-556,-346
-141,-82,58,112,-100,-12,175,-244,-278,-551,-522,-317
-161,-58,102,109,-131,21,175,-229,-253,-502,-473,-283
-146,-34,112,90,-129,39,195,-214,-239,-468,-439,-239
-126,-9,117,68,-122,53,195,-200,-224,-463,-405,-224
-107,-117,-9,112,-48,-63,78,-180,-287,-483,-444,-283
-87,-136,-48,112,-19,-92,78,-156,-283,-468,-419,-263
-78,-126,-48,102,-14,-87,92,-146,-258,-448,-400,-248
-78,-126,-48,102,-14,-87,107,-136,-234,-429,-380,-234
-78,-126,-48,102,-14,-87,122,-126,-209,-409,-361,-219
-78,-126,-48,102,-14,-87,136,-117,-185,-390,-341,-204
-112,-87,24,100,-68,-31,161,-102,-146,-346,-297,-180
-112,-63,48,87,-80,-7,175,-92,-117,-312,-263,-161
-107,-39,68,73,-87,14,185,-92,-82,-283,-244,-146
-73,-9,63,41,-68,26,185,-73,-48,-244,-214,-131
-107,4,112,51,-109,58,175,-102,-43,-239,-219,-131
-117,24,141,46,-129,82,161,-131,-48,-248,-219,-141
-102,53,156,24,-129,104,146,-151,-43,-258,-219,-156
-102,53,156,24,-129,104,136,-185,-34,-258,-214,-161
-117,4,122,56,-119,63,146,-170,-19,-244,-200,-156
-112,-9,102,61,-107,46,156,-112,-4,-219,-175,-141
-73,9,82,31,-78,46,156,-112,14,-185,-161,-122
-68,4,73,31,-70,39,156,-87,39,-156,-151,-117
-82,24,107,29,-95,65,131,-63,29,-170,-165,-131
-102,29,131,36,-117,80,117,-53,24,-185,-185,-136
-112,53,165,29,-139,109,102,-39,14,-200,-190,-146
-97,63,161,17,-129,112,92,-29,19,-214,-209,-151
-58,53,112,2,-85,82,107,-4,43,-190,-190,-151
-58,48,107,4,-82,78,102,0,53,-175,-180,-141
-82,48,131,17,-107,90,87,-4,68,-161,-165,-131
-82,68,151,7,-117,109,97,-19,87,-146,-156,-122
-34,78,112,-21,-73,95,92,-34,117,-117,-126,-107
-9,97,107,-43,-58,102,87,-34,122,-97,-107,-68
-4,78,82,-36,-43,80,92,-34,122,-73,-92,-53
0,39,39,-19,-19,39,92,-34,126,-68,-82,-34
-19,39,58,-9,-39,48,68,0,117,-78,-92,-43
-29,63,92,-17,-61,78,58,24,117,-82,-87,-34
-34,63,97,-14,-65,80,43,48,107,-92,-97,-39
-43,48,92,-2,-68,70,14,48,87,-107,-112,-53
-34,53,87,-9,-61,70,9,39,102,-97,-122,-43
-9,82,92,-36,-51,87,9,39,117,-73,-97,-43
0,112,112,-56,-56,112,4,39,122,-63,-92,-43
-9,92,102,-41,-56,97,4,43,122,-48,-97,-39
-9,58,68,-24,-39,63,14,19,122,-53,-102,-39
-14,43,58,-14,-36,51,29,-14,122,-58,-97,-39
4,34,29,-19,-12,31,53,-29,126,-58,-102,-43
24,58,34,-41,-4,46,73,-43,131,-53,-97,-39
-14,39,53,-12,-34,46,73,-29,136,-43,-92,-19
-24,24,48,0,-36,36,87,-19,151,-39,-73,-9
-29,14,43,7,-36,29,107,-19,156,-43,-68,-4
-39,4,43,17,-41,24,107,-24,156,-53,-68,-4
-43,34,78,4,-61,56,92,-63,151,-48,-78,-4
-29,63,92,-17,-61,78,78,-97,136,-43,-87,-14
-24,92,117,-34,-70,104,82,-141,126,-39,-87,-19
-24,87,112,-31,-68,100,78,-180,122,-34,-82,-19
-34,48,82,-7,-58,65,78,-146,126,-34,-68,-9
-29,14,43,7,-36,29,73,-102,122,-29,-63,-9
-29,19,48,4,-39,34,73,-58,126,-29,-58,-4
-29,-9,19,19,-24,4,82,9,131,-14,-43,4
-43,-34,9,39,-26,-12,78,14,131,-9,-48,9
-78,-48,29,63,-53,-9,73,29,126,-4,-48,9
-92,-68,24,80,-58,-21,63,34,122,4,-39,9
-102,-92,9,97,-56,-41,53,34,117,9,-43,9
-39,-39,0,39,-19,-19,78,48,122,24,-29,19
-19,-4,14,12,-17,4,78,43,131,39,-14,19
-4,29,34,-12,-19,31,92,63,146,53,0,29
73,102,29,-87,21,65,107,82,156,73,19,39
73,92,19,-82,26,56,102,58,161,73,4,24
14,73,58,-43,-21,65,97,43,161,73,0,24
-34,53,87,-9,-61,70,102,29,161,82,4,29
-39,39,78,0,-58,58,102,19,180,102,14,34
-19,39,58,-9,-39,48,97,-4,180,92,4,19
-19,39,58,-9,-39,48,92,-19,170,92,4,9
-29,24,53,2,-41,39,97,-29,170,92,-4,4
0,43,43,-21,-21,43,102,-24,170,117,9,9
-14,53,68,-19,-41,61,102,-4,175,122,4,4
-53,34,87,9,-70,61,102,0,180,122,14,4
-68,9,78,29,-73,43,102,9,180,131,19,4
-53,4,58,24,-56,31,102,24,175,141,19,4
-39,19,58,9,-48,39,92,24,161,141,19,14
-43,48,92,-2,-68,70,87,0,156,131,19,14
-43,58,102,-7,-73,80,87,0,156,131,19,0
-39,39,78,0,-58,58,87,-4,161,131,19,0
4,87,82,-46,-39,85,73,-24,131,126,0,-14
14,117,102,-65,-43,109,53,-39,122,122,-4,-19
24,92,68,-58,-21,80,43,-29,112,122,-9,-24
29,63,34,-46,-2,48,53,-24,126,126,-4,-14
48,102,53,-75,-2,78,68,-14,156,141,19,0
68,161,92,-114,-12,126,78,-4,156,161,43,4
82,190,107,-136,-12,148,92,-9,161,170,53,9
102,185,82,-143,9,134,107,-4,170,180,58,14
78,146,68,-112,4,107,92,-19,161,185,58,14
73,126,53,-100,9,90,87,-29,161,185,58,14
58,107,48,-82,4,78,82,-43,161,185,53,9
58,92,34,-75,12,63,78,-53,161,185,53,9
9,63,53,-36,-21,58,73,-34,151,190,53,4
-29,29,58,0,-43,43,73,-9,151,190,58,9
-48,24,73,12,-61,48,68,9,141,195,58,4
-58,4,63,26,-61,34,63,19,131,190,63,0
-73,24,97,24,-85,61,82,102,151,195,73,14
-39,107,146,-34,-92,126,78,73,131,175,68,9
19,165,146,-92,-63,156,68,53,126,165,43,0
43,107,63,-75,-9,85,68,53,165,175,53,14
-63,-14,48,39,-56,17,63,43,185,170,34,14
-87,-9,78,48,-82,34,63,34,190,161,4,-24
-29,87,117,-29,-73,102,68,53,209,146,-14,-39
-9,112,122,-51,-65,117,68,63,244,141,-19,-48
-14,102,117,-43,-65,109,53,58,278,180,0,-39
24,117,92,-70,-34,104,48,43,341,278,73,-24
58,146,87,-102,-14,117,34,63,409,458,185,19
48,190,141,-119,-46,165,-19,78,488,688,326,78
87,209,122,-148,-17,165,-68,78,580,912,468,165
141,234,92,-187,24,163,-122,107,722,1146,644,273
185,312,126,-248,29,219,-190,165,819,1449,922,444
278,478,200,-378,39,339,-258,156,824,1805,1239,619
400,683,283,-541,58,483,-273,87,766,2215,1595,824
463,819,356,-641,53,588,-263,29,683,2640,1971,1083
419,795,375,-607,21,585,-361,-107,473,2884,2225,1283
405,683,278,-544,63,480,-453,-258,151,2815,2235,1356
551,619,68,-585,241,344,-366,-224,-48,2459,2030,1332
649,458,-190,-553,419,134,-161,-78,-117,1737,1546,1180
400,141,-258,-270,329,-58,48,-58,-287,858,854,829
39,9,-29,-24,34,-9,224,-146,-541,126,244,414
-146,43,190,51,-168,117,400,-195,-741,-375,-156,102
-219,0,219,109,-219,109,497,-204,-902,-658,-375,-92
-273,-112,161,192,-217,24,517,-200,-1029,-722,-468,-190
-273,-156,117,214,-195,-19,512,-200,-1073,-673,-468,-214
-307,-131,175,219,-241,21,429,-244,-1078,-624,-468,-224
-273,-92,180,183,-226,43,283,-331,-1058,-575,-483,-258
-131,-68,63,100,-97,-2,165,-356,-980,-512,-458,-263
-68,-29,39,48,-53,4,131,-268,-805,-385,-346,-175
-82,-9,73,46,-78,31,92,-195,-610,-253,-234,-112
-102,-68,34,85,-68,-17,-14,-195,-463,-185,-204,-107
-92,-97,-4,95,-43,-51,-78,-126,-307,-112,-151,-68
-92,4,97,43,-95,51,-82,-9,-151,-19,-82,-24
-92,92,185,0,-139,139,-73,0,-87,29,-63,-24
-48,73,122,-12,-85,97,-63,-24,-73,53,-63,-39
-29,63,92,-17,-61,78,-58,-9,-29,82,-53,-19
9,48,39,-29,-14,43,-34,29,19,117,-34,0
39,73,34,-56,2,53,-19,34,73,136,4,4
53,107,53,-80,0,80,-19,43,117,151,4,19
58,97,39,-78,9,68,-29,29,141,161,4,34
63,78,14,-70,24,46,-24,39,180,185,24,34
34,68,34,-51,0,51,-19,43,195,200,53,43
58,87,29,-73,14,58,-19,34,209,209,53,24
53,102,48,-78,2,75,-4,24,224,229,63,29
53,102,48,-78,2,75,9,14,253,239,68,34
29,92,63,-61,-17,78,34,0,253,239,68,34
29,87,58,-58,-14,73,34,-14,263,229,63,39
39,68,29,-53,4,48,34,-14,283,239,87,53
39,63,24,-51,7,43,48,19,302,248,102,58
34,73,39,-53,-2,56,53,-4,322,258,112,63
14,87,73,-51,-29,80,53,-24,336,268,117,53
24,78,53,-51,-14,65,53,0,317,258,117,58
34,78,43,-56,-4,61,43,14,307,253,117,53
48,73,24,-61,12,48,43,58,302,253,117,53
68,78,9,-73,29,43,43,117,312,263,126,68
82,73,-9,-78,46,31,48,117,297,253,126,63
58,73,14,-65,21,43,43,122,287,244,107,53
34,58,24,-46,4,41,39,117,278,229,92,39
48,68,19,-58,14,43,19,97,263,209,78,29
73,141,68,-107,2,104,29,73,278,224,97,53
78,151,73,-114,2,112,34,87,283,248,122,78
39,107,68,-73,-14,87,48,58,287,258,136,102
19,92,73,-56,-26,82,58,29,297,263,146,117
24,78,53,-51,-14,65,29,14,278,244,136,107
24,39,14,-31,4,26,19,-9,268,234,131,102
0,-9,-9,4,4,-9,4,-4,263,219,131,102
0,-14,-14,7,7,-14,-9,24,253,209,136,107
-9,39,48,-14,-29,43,0,14,239,209,136,117
-24,53,78,-14,-51,65,-4,-9,229,195,126,117
-34,58,92,-12,-63,75,-9,-34,209,185,117,107
-39,73,112,-17,-75,92,9,-29,204,185,117,107
-24,34,58,-4,-41,46,14,9,234,214,151,122
-24,14,39,4,-31,26,14,29,248,214,161,131
-9,0,9,4,-9,4,4,43,253,209,165,131
14,-14,-29,0,21,-21,14,63,268,209,175,151
43,48,4,-46,19,26,9,58,268,195,170,136
39,68,29,-53,4,48,0,39,248,195,161,126
78,78,0,-78,39,39,-9,34,244,180,156,122
82,92,9,-87,36,51,-9,39,244,180,151,117
73,102,29,-87,21,65,24,34,268,195,180,146
78,102,24,-90,26,63,48,48,283,209,190,156
82,97,14,-90,34,56,63,0,297,185,190,165
82,68,-14,-75,48,26,87,-9,302,209,209,185
97,87,-9,-92,53,39,78,-4,307,214,204,190
97,97,0,-97,48,48,68,-4,302,214,204,195
87,87,0,-87,43,43,53,-4,297,209,204,195
58,68,9,-63,24,39,34,-14,283,200,200,195
19,48,29,-34,-4,39,19,0,258,180,190,180
14,48,34,-31,-9,41,14,24,253,170,185,180
9,58,48,-34,-19,53,19,48,253,161,180,185
4,43,39,-24,-17,41,14,63,253,156,175,185
34,34,0,-34,17,17,24,53,273,151,175,185
43,34,-9,-39,26,12,34,34,283,161,170,180
39,14,-24,-26,31,-4,39,29,287,161,165,175
43,-4,-48,-19,46,-26,39,29,273,156,151,151
53,24,-29,-39,41,-2,14,-9,244,122,122,131
78,29,-48,-53,63,-9,4,-43,219,107,107,117
107,63,-43,-85,75,9,0,-73,214,92,97,131
87,97,9,-92,39,53,-4,-112,200,63,82,112
34,63,29,-48,2,46,0,-102,204,68,78,107
24,34,9,-29,7,21,-4,-63,200,58,73,97
19,4,-14,-12,17,-4,14,-29,224,87,87,112
-9,-29,-19,19,4,-24,43,9,248,107,97,117
-39,-39,0,39,-19,-19,58,34,219,97,87,117
-48,-34,14,41,-31,-9,63,58,214,92,82,122
-29,-34,-4,31,-12,-19,73,87,234,82,78,126
-34,-58,-24,46,-4,-41,82,92,239,78,58,136
-19,-48,-29,34,4,-39,78,82,229,58,63,122
-34,-24,9,29,-21,-7,63,78,214,48,48,107
-39,-14,24,26,-31,4,39,53,200,34,24,78
-58,-24,34,41,-46,4,24,24,170,14,9,63
-48,-24,24,36,-36,0,48,58,200,19,14,73
-9,0,9,4,-9,4,78,117,190,24,9,78
53,34,-19,-43,36,7,92,180,180,9,14,82
107,78,-29,-92,68,24,102,219,180,-9,0,82
63,48,-14,-56,39,17,82,219,146,-39,-29,58
48,14,-34,-31,41,-9,73,204,107,-63,-53,34
43,-19,-63,-12,53,-41,63,180,68,-102,-82,19
43,-39,-82,-2,63,-61,39,151,29,-136,-117,-9
29,-68,-97,19,63,-82,43,122,14,-161,-151,-39
29,-63,-92,17,61,-78,68,102,0,-175,-170,-39
39,-73,-112,17,75,-92,87,92,-9,-204,-190,-39
19,-82,-102,31,61,-92,92,87,-29,-239,-214,-48
14,-68,-82,26,48,-75,102,78,-34,-268,-244,-73
-9,-87,-78,48,34,-82,87,48,-78,-307,-268,-92
-4,-78,-73,41,34,-75,97,24,-92,-326,-273,-97
39,-63,-102,12,70,-82,126,9,-82,-331,-268,-87
-24,-102,-78,63,26,-90,131,-14,-92,-351,-292,-82
-102,-175,-73,139,-14,-124,126,-29,-112,-366,-317,-92
-117,-244,-126,180,4,-185,141,-29,-131,-380,-331,-92
-136,-273,-136,204,0,-204,136,-39,-161,-409,-366,-112
-122,-204,-82,163,-19,-143,122,-43,-190,-463,-414,-141
-136,-161,-24,148,-56,-92,112,-48,-219,-502,-439,-175
-141,-146,-4,143,-68,-75,112,-58,-239,-517,-463,-190
-141,-97,43,119,-92,-26,112,-34,-258,-531,-473,-200
-161,-131,29,146,-95,-51,126,-58,-283,-546,-497,-195
-200,-165,34,183,-117,-65,126,-92,-297,-580,-517,-224
-204,-165,39,185,-122,-63,117,-136,-322,-605,-546,-234
-239,-175,63,207,-151,-56,117,-161,-346,-634,-570,-253
-229,-161,68,195,-148,-46,117,-185,-375,-663,-595,-253
-229,-151,78,190,-153,-36,126,-234,-400,-688,-619,-268
-224,-136,87,180,-156,-24,131,-244,-439,-717,-639,-283
-146,-112,34,129,-90,-39,131,-263,-448,-746,-644,-297
-107,-107,0,107,-53,-53,146,-283,-483,-756,-658,-297
-131,-136,-4,134,-63,-70,146,-273,-512,-771,-683,-297
-195,-219,-24,207,-85,-122,141,-278,-541,-790,-707,-312
-224,-268,-43,246,-90,-156,136,-287,-566,-810,-722,-317
-190,-224,-34,207,-78,-129,151,-283,-580,-810,-717,-307
-175,-180,-4,178,-85,-92,151,-273,-590,-819,-727,-307
-161,-151,9,156,-85,-70,151,-253,-585,-824,-741,-307
-156,-146,9,151,-82,-68,156,-244,-580,-829,-736,-317
-165,-190,-24,178,-70,-107,175,-234,-590,-834,-746,-317
-170,-214,-43,192,-63,-129,161,-244,-585,-844,-741,-322
-170,-234,-63,202,-53,-148,151,-244,-590,-839,-761,-326
-185,-248,-63,217,-61,-156,151,-234,-585,-834,-756,-336
-224,-244,-19,234,-102,-131,136,-239,-590,-844,-746,-341
-209,-258,-48,234,-80,-153,131,-248,-585,-829,-751,-346
-190,-283,-92,236,-48,-187,122,-273,-580,-824,-756,-356
-195,-302,-107,248,-43,-204,117,-292,-580,-829,-751,-370
-180,-234,-53,207,-63,-143,126,-302,-551,-790,-712,-341
-165,-180,-14,173,-75,-97,122,-297,-531,-775,-697,-336
-141,-161,-19,151,-61,-90,107,-297,-522,-766,-688,-322
-126,-117,9,122,-68,-53,141,-297,-488,-732,-658,-302
-146,-122,24,134,-85,-48,151,-307,-497,-727,-658,-302
-126,-141,-14,134,-56,-78,141,-331,-497,-722,-668,-322
-107,-156,-48,131,-29,-102,126,-366,-512,-736,-673,-336
-126,-165,-39,146,-43,-102,117,-385,-512,-732,-678,-351
-131,-131,0,131,-65,-65,126,-346,-492,-688,-629,-317
-107,-102,4,104,-56,-48,136,-307,-448,-649,-590,-283
-112,-107,4,109,-58,-51,141,-268,-395,-624,-566,-258
-131,-102,29,117,-80,-36,136,-229,-375,-590,-536,-239
-146,-97,48,122,-97,-24,122,-200,-370,-570,-531,-244
-141,-102,39,122,-90,-31,112,-170,-346,-541,-507,-229
-161,-87,73,124,-117,-7,97,-165,-341,-512,-492,-234
-165,-63,102,114,-134,19,68,-170,-341,-522,-502,-248
-117,-68,48,92,-82,-9,58,-185,-322,-502,-478,-229
-87,-92,-4,90,-41,-48,68,-185,-322,-488,-444,-219
-63,-87,-24,75,-19,-56,82,-161,-307,-453,-419,-204
-39,-87,-48,63,4,-68,97,-156,-292,-439,-409,-180
-73,-82,-9,78,-31,-46,92,-156,-287,-419,-400,-180
-112,-58,53,85,-82,-2,87,-151,-263,-375,-366,-165
-117,-34,82,75,-100,24,102,-146,-248,-346,-346,-141
-117,-9,107,63,-112,48,97,-141,-234,-346,-326,-146
-102,-9,92,56,-97,41,112,-141,-204,-317,-297,-141
-97,-48,48,73,-73,0,102,-141,-195,-297,-278,-136
-97,-48,48,73,-73,0,92,-165,-190,-312,-278,-131
-73,-39,34,56,-53,-2,97,-214,-170,-302,-248,-122
-68,-14,53,41,-61,19,87,-190,-141,-263,-224,-97
-68,0,68,34,-68,34,82,-165,-122,-244,-234,-82
-107,-4,102,56,-104,48,73,-165,-102,-219,-234,-78
-165,-34,131,100,-148,48,68,-122,-87,-195,-209,-68
-165,-102,63,134,-114,-19,53,-122,-53,-170,-185,-53
-156,-102,53,129,-104,-24,29,-190,-53,-195,-180,-73
-141,-73,68,107,-104,-2,43,-200,-43,-185,-161,-53
-107,-39,68,73,-87,14,87,-165,0,-126,-97,0
-87,-19,68,53,-78,24,78,-185,-14,-131,-112,-14
-68,-9,58,39,-63,24,68,-195,-19,-136,-117,-19
-48,0,48,24,-48,24,58,-204,-24,-141,-122,-24
-29,9,39,9,-34,24,48,-214,-29,-146,-126,-29
-58,24,82,17,-70,53,48,-190,-24,-136,-112,-39
-53,24,78,14,-65,51,48,-170,-29,-136,-107,-43
-43,24,68,9,-56,46,43,-161,-29,-141,-117,-53
-4,29,34,-12,-19,31,29,-131,-29,-136,-117,-63
-29,19,48,4,-39,34,48,-112,0,-112,-97,-34
-39,14,53,12,-46,34,63,-102,9,-102,-92,-14
-24,19,43,2,-34,31,78,-82,29,-92,-87,0
-24,-4,19,14,-21,7,97,-78,53,-73,-78,24
-4,-4,0,4,-2,-2,117,-63,58,-73,-78,24
24,29,4,-26,9,17,126,-14,63,-63,-58,34
87,97,9,-92,39,53,126,-24,73,-43,-48,48
117,141,24,-129,46,82,126,-9,87,-29,-43,48
68,122,53,-95,7,87,92,-29,92,-39,-48,39
4,87,82,-46,-39,85,58,-43,92,-48,-58,39
-48,73,122,-12,-85,97,24,-53,87,-58,-53,34
-78,43,122,17,-100,82,-4,-68,97,-68,-63,34
-14,73,87,-29,-51,80,9,-53,117,-48,-43,43
9,87,78,-48,-34,82,4,-58,122,-39,-34,53
9,107,97,-58,-43,102,-9,-73,131,-29,-19,63
34,146,112,-90,-39,129,0,-97,146,-19,-9,73
68,136,68,-102,0,102,0,-117,146,-14,-4,63
87,136,48,-112,19,92,-9,-122,141,-9,0,87
87,97,9,-92,39,53,-9,-126,131,0,0,87
87,39,-48,-63,68,-4,-14,-131,126,-9,-4,92
43,24,-19,-34,31,2,-34,-107,117,0,4,87
9,43,34,-26,-12,39,-39,-92,117,4,19,102
-19,39,58,-9,-39,48,-48,-78,107,4,19,102
-53,19,73,17,-63,46,-73,-87,87,0,14,92
-48,24,73,12,-61,48,-68,-63,102,9,9,97
-19,63,82,-21,-51,73,-68,-39,117,34,39,102
-4,102,107,-48,-56,104,-73,-14,122,43,48,107
-9,92,102,-41,-56,97,-73,14,122,58,48,117
19,87,68,-53,-24,78,-73,14,122,48,68,126
34,92,58,-63,-12,75,-68,-4,122,48,78,136
73,102,29,-87,21,65,-53,-4,126,53,78,141
112,146,34,-129,39,90,-43,-4,131,63,87,156
78,170,92,-124,-7,131,-34,-9,126,82,102,165
73,180,107,-126,-17,143,-19,-9,131,97,122,175
73,195,122,-134,-24,158,0,-19,126,102,126,180
68,209,141,-139,-36,175,0,-34,117,102,126,180
78,185,107,-131,-14,146,-9,-53,126,102,126,170
97,170,73,-134,12,122,-19,-68,117,102,117,161
107,156,48,-131,29,102,-9,-92,112,102,117,156
112,107,-4,-109,58,51,-9,-112,112,102,122,156
97,87,-9,-92,53,39,0,-122,102,92,117,141
87,63,-24,-75,56,19,-4,-122,92,97,112,136
73,78,4,-75,34,41,-4,-122,92,97,107,136
58,58,0,-58,29,29,4,-97,92,112,112,141
39,48,9,-43,14,29,9,-68,102,136,131,161
0,48,48,-24,-24,48,14,-39,107,141,136,165
-19,43,63,-12,-41,53,14,-19,112,151,151,170
-34,34,68,0,-51,51,14,-4,117,156,151,175
-4,29,34,-12,-19,31,-4,-39,107,146,141,170
-19,14,34,2,-26,24,-29,-82,102,136,141,156
-39,0,39,19,-39,19,-39,-102,102,126,141,151
4,24,19,-14,-7,21,-48,-122,97,122,146,146
43,48,4,-46,19,26,-34,-102,112,126,146,131
14,53,39,-34,-12,46,-29,-82,122,131,146,131
-4,58,63,-26,-34,61,-14,-63,131,146,156,136
19,68,48,-43,-14,58,-4,-39,161,170,170,141
39,82,43,-61,-2,63,9,-34,161,175,185,156
48,87,39,-68,4,63,14,-29,151,180,190,156
48,78,29,-63,9,53,29,-19,151,185,185,161
87,102,14,-95,36,58,43,4,151,214,204,175
78,97,19,-87,29,58,39,-4,151,209,204,180
43,73,29,-58,7,51,34,-9,161,209,209,180
34,43,9,-39,12,26,29,-9,165,219,209,180
53,34,-19,-43,36,7,24,-4,165,229,204,180
53,53,0,-53,26,26,9,0,151,229,204,190
43,87,43,-65,0,65,9,-19,146,219,204,190
39,102,63,-70,-12,82,14,-14,146,219,204,175
39,87,48,-63,-4,68,19,-14,151,219,204,175
53,122,68,-87,-7,95,4,-34,122,195,180,156
43,146,102,-95,-29,124,-14,-48,112,180,170,146
34,117,82,-75,-24,100,-24,-39,102,170,161,136
19,82,63,-51,-21,73,-14,-34,117,165,161,141
-4,53,58,-24,-31,56,0,-14,141,185,185,151
-19,63,82,-21,-51,73,9,14,136,209,209,161
-39,43,82,-2,-61,63,24,29,136,224,219,170
-53,-9,43,31,-48,17,39,53,141,239,224,180
-34,-4,29,19,-31,12,19,14,126,224,219,165
-4,9,14,-2,-9,12,0,-9,122,214,214,161
14,24,9,-19,2,17,-19,-39,117,204,204,151
48,43,-4,-46,26,19,-39,-63,112,195,200,146
53,53,0,-53,26,26,-24,-73,122,219,224,156
48,48,0,-48,24,24,-24,-68,141,229,234,175
63,73,9,-68,26,41,-29,-68,151,244,239,185
87,82,-4,-85,46,39,-34,-78,161,248,248,195
-92,-4,87,48,-90,41,-53,-180,141,214,219,161
0,39,39,-19,-19,39,-19,-170,141,195,204,165
204,185,-19,-195,112,82,39,-82,195,234,229,195
170,156,-14,-163,92,70,19,-73,204,234,229,200
82,102,19,-92,31,61,-24,-122,165,229,229,180
117,156,39,-136,39,97,-4,-122,170,219,209,180
156,224,68,-190,43,146,9,-92,219,214,209,175
175,229,53,-202,61,141,-9,-63,244,239,214,175
122,151,29,-136,46,90,-34,-58,268,268,224,165
-24,39,63,-7,-43,51,-29,-43,312,356,278,180
-68,48,117,9,-92,82,-4,-14,409,488,361,214
19,180,161,-100,-70,170,-39,-29,497,658,444,244
58,248,190,-153,-65,219,-117,-29,590,854,575,283
73,244,170,-158,-48,207,-141,68,790,1137,771,409
214,302,87,-258,63,195,-112,224,985,1507,1078,629
366,497,131,-431,117,314,-122,283,1039,1893,1405,854
429,722,292,-575,68,507,-195,224,1010,2254,1703,1029
502,839,336,-671,82,588,-292,146,1015,2640,2010,1239
556,844,287,-700,134,566,-400,78,922,2903,2244,1468
502,771,268,-636,117,519,-512,-34,639,2835,2264,1561
522,590,68,-556,226,329,-502,-68,341,2400,2030,1498
590,351,-239,-470,414,56,-346,-9,97,1629,1576,1346
566,287,-278,-427,422,4,-126,-9,-170,839,1058,1112
448,341,-107,-395,278,117,68,-117,-444,283,624,834
165,239,73,-202,46,156,175,-244,-741,-190,214,483
-180,19,200,80,-190,109,214,-312,-1049,-551,-112,190
-341,-63,278,202,-309,107,204,-366,-1234,-692,-283,14
-273,-48,224,161,-248,87,141,-414,-1317,-692,-331,-78
-209,-43,165,126,-187,61,48,-468,-1293,-644,-322,-97
-185,-14,170,100,-178,78,0,-468,-1137,-536,-268,-82
-92,48,141,21,-117,95,-39,-434,-902,-405,-185,-29
9,58,48,-34,-19,53,-102,-424,-688,-287,-92,39
53,39,-14,-46,34,12,-190,-419,-492,-175,-9,112
53,19,-34,-36,43,-7,-239,-370,-336,-117,19,136
14,-39,-53,12,34,-46,-224,-331,-219,-63,53,136
-73,-102,-29,87,-21,-65,-180,-341,-122,-19,82,161
-112,-102,9,107,-61,-46,-141,-380,-68,19,92,151
-48,-14,34,31,-41,9,-102,-385,-14,63,102,136
-19,-14,4,17,-12,-4,-87,-346,48,107,126,170
19,-9,-29,-4,24,-19,-53,-283,107,165,161,195
48,34,-14,-41,31,9,-29,-253,170,209,214,204
63,87,24,-75,19,56,-19,-219,224,248,229,224
73,63,-9,-68,41,26,-29,-185,229,234,219,229
82,39,-43,-61,63,-2,-24,-136,248,244,229,229
58,24,-34,-41,46,-4,-19,-92,244,244,248,239
87,39,-48,-63,68,-4,-19,-63,239,239,239,219
82,73,-9,-78,46,31,-39,-39,239,239,229,209
82,73,-9,-78,46,31,-58,-24,253,248,234,209
58,63,4,-61,26,34,-68,-14,239,248,234,204
58,58,0,-58,29,29,-102,-4,234,239,229,204
63,29,-34,-46,48,-2,-73,19,229,229,224,195
68,14,-53,-41,61,-19,-48,68,234,229,219,195
68,14,-53,-41,61,-19,-34,58,239,229,209,195
53,19,-34,-36,43,-7,-24,53,239,229,195,180
43,9,-34,-26,39,-12,-43,14,224,209,204,170
34,9,-24,-21,29,-7,-53,-34,219,204,204,161
29,4,-24,-17,26,-9,-53,-53,219,204,204,156
29,9,-19,-19,24,-4,-53,-58,234,214,214,165
73,34,-39,-53,56,-2,-39,-39,244,219,244,195
68,63,-4,-65,36,29,-43,-24,248,224,234,200
63,78,14,-70,24,46,-48,-19,253,224,229,200
97,117,19,-107,39,68,-68,-29,253,219,224,204
97,170,73,-134,12,122,-48,-14,273,224,239,204
87,161,73,-124,7,117,-34,29,283,248,258,214
34,97,63,-65,-14,80,-9,29,292,258,268,224
0,63,63,-31,-31,63,9,29,307,263,273,224
14,73,58,-43,-21,65,-4,9,297,244,253,214
14,58,43,-36,-14,51,-9,-9,287,234,239,200
-9,34,43,-12,-26,39,-19,0,283,219,229,190
-9,53,63,-21,-36,58,-29,34,273,209,224,185
19,82,63,-51,-21,73,-19,34,292,229,234,200
34,82,48,-58,-7,65,-24,19,297,224,234,204
53,73,19,-63,17,46,-29,4,292,224,234,200
78,73,-4,-75,41,34,-9,19,302,234,244,204
68,58,-9,-63,39,24,-24,-4,292,234,244,190
43,53,9,-48,17,31,-43,-29,278,214,229,180
34,53,19,-43,7,36,-73,-58,253,190,209,161
34,53,19,-43,7,36,-82,-82,239,170,195,161
58,92,34,-75,12,63,-58,-63,253,180,204,175
48,78,29,-63,9,53,-48,-58,239,185,209,175
82,53,-29,-68,56,12,-39,-39,239,175,219,180
82,34,-48,-58,65,-7,-19,-9,244,180,229,185
82,43,-39,-63,61,2,-29,9,234,180,214,180
97,43,-53,-70,75,-4,-29,39,234,180,200,165
112,39,-73,-75,92,-17,-39,4,234,141,175,151
122,9,-112,-65,117,-51,-39,9,224,151,170,146
112,39,-73,-75,92,-17,-39,9,229,156,165,141
97,48,-48,-73,73,0,-39,14,224,156,165,146
73,39,-34,-56,53,2,-43,19,219,151,165,146
29,19,-9,-24,19,4,-53,14,204,141,161,146
14,24,9,-19,2,17,-53,29,209,146,165,146
24,48,24,-36,0,36,-53,53,214,151,175,151
34,82,48,-58,-7,65,-43,78,224,156,185,161
43,92,48,-68,-2,70,-43,92,234,165,195,165
48,92,43,-70,2,68,-29,68,229,161,195,170
43,102,58,-73,-7,80,-24,34,234,170,190,170
24,92,68,-58,-21,80,-24,14,234,170,185,170
14,82,68,-48,-26,75,-29,0,214,165,170,151
0,68,68,-34,-34,68,-29,14,209,146,170,136
9,29,19,-19,-4,24,-24,24,209,146,165,126
24,19,-4,-21,14,7,-14,39,229,146,165,146
-9,9,19,0,-14,14,-4,43,239,131,161,131
-24,-4,19,14,-21,7,-14,0,219,117,146,122
-4,-14,-9,9,2,-12,-34,-4,200,87,131,107
19,-24,-43,2,31,-34,-29,-14,209,97,136,117
19,-39,-58,9,39,-48,-14,-19,219,97,136,117
24,-19,-43,-2,34,-31,4,-4,180,68,126,92
39,4,-34,-21,36,-14,14,19,165,63,122,92
82,24,-58,-53,70,-17,29,48,175,53,117,92
102,19,-82,-61,92,-31,43,53,170,48,97,97
97,9,-87,-53,92,-39,63,53,175,43,97,102
73,24,-48,-48,61,-12,63,48,175,39,87,97
58,24,-34,-41,46,-4,53,24,175,29,68,78
29,4,-24,-17,26,-9,53,-4,161,14,58,73
-4,-39,-34,21,14,-36,39,-39,170,4,48,63
-9,-48,-39,29,14,-43,48,-39,151,4,39,58
9,-48,-58,19,34,-53,43,-34,131,-14,39,53
19,-39,-58,9,39,-48,34,-53,122,-39,19,43
-34,-68,-34,51,0,-51,24,-9,117,-68,9,34
-48,-92,-43,70,-2,-68,24,19,97,-82,-4,24
-53,-117,-63,85,4,-90,24,39,78,-112,-24,24
-53,-126,-73,90,9,-100,9,53,58,-136,-48,9
-48,-107,-58,78,4,-82,4,43,19,-141,-58,0
-39,-73,-34,56,-2,-53,19,43,0,-146,-73,0
-19,-53,-34,36,7,-43,29,53,-14,-165,-87,0
-29,-34,-4,31,-12,-19,24,68,-39,-190,-107,-9
-39,-53,-14,46,-12,-34,29,48,-48,-239,-146,-58
-78,-87,-9,82,-34,-48,9,9,-107,-287,-190,-92
-87,-92,-4,90,-41,-48,14,-24,-136,-317,-214,-112
-58,-92,-34,75,-12,-63,39,-48,-141,-331,-229,-117
-92,-82,9,87,-51,-36,68,-82,-146,-336,-224,-107
-141,-117,24,129,-82,-46,68,-97,-151,-346,-239,-112
-126,-146,-19,136,-53,-82,87,-97,-156,-356,-244,-107
-117,-136,-19,126,-48,-78,87,-107,-170,-380,-268,-122
-92,-102,-9,97,-41,-56,68,-136,-224,-434,-322,-151
-97,-92,4,95,-51,-43,63,-156,-268,-483,-351,-185
-92,-112,-19,102,-36,-65,68,-180,-302,-507,-380,-200
-82,-97,-14,90,-34,-56,73,-170,-336,-531,-395,-209
-68,-131,-63,100,-2,-97,87,-180,-366,-551,-419,-204
-82,-165,-82,124,0,-124,87,-200,-395,-590,-439,-234
-63,-165,-102,114,19,-134,78,-229,-434,-619,-468,-244
-73,-175,-102,124,14,-139,78,-239,-473,-653,-492,-263
-136,-180,-43,158,-46,-112,92,-214,-483,-663,-507,-258
-200,-190,9,195,-104,-90,107,-214,-497,-678,-522,-268
-258,-195,63,226,-161,-65,117,-175,-527,-697,-531,-278
-244,-190,53,217,-148,-68,122,-146,-527,-717,-527,-287
-209,-200,9,204,-109,-95,122,-156,-522,-736,-536,-302
-239,-244,-4,241,-117,-124,117,-146,-531,-751,-556,-307
-307,-341,-34,324,-136,-187,107,-151,-541,-771,-575,-326
-341,-405,-63,373,-139,-234,97,-161,-546,-790,-585,-336
-258,-317,-58,287,-100,-187,107,-200,-551,-775,-580,-322
-195,-229,-34,212,-80,-131,112,-234,-561,-771,-580,-317
-131,-156,-24,143,-53,-90,117,-258,-556,-761,-585,-312
-78,-107,-29,92,-24,-68,126,-292,-551,-751,-570,-317
-107,-170,-63,139,-21,-117,131,-297,-570,-771,-595,-346
-141,-204,-63,173,-39,-134,112,-312,-575,-795,-605,-361
-170,-234,-63,202,-53,-148,97,-317,-590,-805,-639,-375
-214,-258,-43,236,-85,-151,92,-312,-595,-814,-649,-395
-253,-214,39,234,-146,-87,107,-287,-580,-805,-619,-375
-239,-200,39,219,-139,-80,122,-287,-575,-780,-614,-356
-219,-195,24,207,-122,-85,131,-302,-570,-766,-610,-341
-224,-185,39,204,-131,-73,146,-312,-570,-761,-595,-331
-204,-141,63,173,-134,-39,151,-283,-566,-751,-585,-307
-185,-122,63,153,-124,-29,141,-258,-561,-746,-580,-317
-156,-136,19,146,-87,-58,122,-239,-566,-746,-580,-317
-136,-126,9,131,-73,-58,151,-219,-546,-722,-561,-312
-156,-122,34,139,-95,-43,151,-224,-561,-712,-551,-297
-146,-141,4,143,-75,-68,131,-244,-566,-702,-551,-302
-136,-156,-19,146,-58,-87,107,-273,-585,-712,-546,-302
-165,-165,0,165,-82,-82,87,-287,-590,-702,-541,-302
-170,-122,48,146,-109,-36,78,-292,-575,-688,-531,-297
-146,-82,63,114,-104,-9,68,-297,-546,-658,-512,-283
-151,-78,73,114,-112,-2,53,-302,-507,-644,-507,-278
-170,-63,107,117,-139,21,29,-307,-502,-619,-497,-278
-170,-122,48,146,-109,-36,19,-307,-497,-605,-478,-268
-161,-180,-19,170,-70,-100,24,-297,-463,-570,-439,-239
-175,-219,-43,197,-65,-131,24,-312,-448,-536,-409,-229
-175,-248,-73,212,-51,-161,9,-336,-439,-541,-405,-229
-161,-224,-63,192,-48,-143,14,-312,-414,-512,-385,-214
-156,-239,-82,197,-36,-161,29,-263,-400,-488,-356,-209
-156,-224,-68,190,-43,-146,48,-190,-370,-444,-336,-200
-156,-214,-58,185,-48,-136,68,-136,-341,-419,-331,-180
-131,-170,-39,151,-46,-104,73,-102,-312,-385,-302,-156
-122,-107,14,114,-68,-46,78,-63,-283,-336,-258,-126
-78,-43,34,61,-56,-4,102,-24,-263,-302,-229,-87
-29,19,48,4,-39,34,107,14,-244,-297,-200,-78
-29,-4,24,17,-26,9,92,0,-214,-263,-190,-82
-39,-58,-19,48,-9,-39,73,-14,-204,-248,-180,-87
-53,-73,-19,63,-17,-46,53,-53,-200,-268,-190,-92
-43,-78,-34,61,-4,-56,48,-117,-180,-263,-170,-92
-29,-63,-34,46,2,-48,63,-126,-180,-244,-151,-87
-19,-48,-29,34,4,-39,63,-117,-170,-234,-165,-73
-48,-53,-4,51,-21,-29,58,-131,-161,-219,-170,-68
-97,-82,14,90,-56,-34,58,-102,-156,-204,-151,-58
-112,-73,39,92,-75,-17,39,-68,-146,-204,-131,-53
-117,-73,43,95,-80,-14,29,-63,-141,-204,-131,-63
-146,-73,73,109,-109,0,9,-78,-146,-209,-136,-73
-151,-63,87,107,-119,12,-9,-97,-141,-200,-151,-78
9,63,53,-36,-21,58,14,-122,-97,-136,-73,-9
107,146,39,-126,34,92,48,-97,-48,-68,-19,48
68,87,19,-78,24,53,24,-126,-58,-87,-34,39
29,39,9,-34,9,24,0,-146,-68,-97,-39,29
-9,-9,0,9,-4,-4,-24,-165,-78,-107,-43,19
-48,-58,-9,53,-19,-34,-48,-185,-87,-117,-48,9
-82,-24,58,53,-70,17,-29,-151,-68,-92,-9,14
-73,-4,68,39,-70,31,-19,-131,-58,-78,9,24
-58,14,73,21,-65,43,-14,-122,-43,-68,14,29
-14,39,53,-12,-34,46,-19,-92,-29,-48,29,34
-24,53,78,-14,-51,65,-29,-73,-29,-39,29,39
-9,73,82,-31,-46,78,-34,-63,-29,-43,24,43
29,102,73,-65,-21,87,-39,-43,-19,-48,19,43
53,102,48,-78,2,75,-39,-39,-4,-43,19,53
24,48,24,-36,0,36,-9,-58,14,-43,24,48
14,39,24,-26,-4,31,9,-34,24,-34,39,53
39,63,24,-51,7,43,19,-68,39,-14,43,63
29,63,34,-46,-2,48,29,-78,58,0,43,58
14,92,78,-53,-31,85,24,-43,53,0,48,48
-14,97,112,-41,-63,104,19,-24,53,0,48,58
-34,122,156,-43,-95,139,14,0,48,0,63,63
-29,131,161,-51,-95,146,14,19,58,0,63,73
0,117,117,-58,-58,117,19,53,82,9,78,78
0,107,107,-53,-53,107,4,68,92,19,82,82
-24,102,126,-39,-75,114,-19,73,107,29,92,87
-24,117,141,-46,-82,129,-19,68,126,39,97,92
0,122,122,-61,-61,122,-63,43,122,43,102,78
19,136,117,-78,-48,126,-97,24,102,48,107,97
19,112,92,-65,-36,102,-122,4,78,58,107,92
19,68,48,-43,-14,58,-151,-14,58,48,102,92
19,58,39,-39,-9,48,-141,-19,53,39,97,92
19,73,53,-46,-17,63,-126,-24,58,34,107,102
24,63,39,-43,-7,51,-117,-29,53,24,102,97
24,39,14,-31,4,26,-122,-58,39,9,92,82
34,9,-24,-21,29,-7,-112,-43,48,14,82,87
68,24,-43,-46,56,-9,-97,-39,58,34,107,92
87,39,-48,-63,68,-4,-87,-34,58,39,112,97
87,4,-82,-46,85,-39,-73,-24,53,48,107,107
68,-9,-78,-29,73,-43,-68,-34,53,58,107,112
53,-4,-58,-24,56,-31,-58,-53,53,58,117,117
63,4,-58,-34,61,-26,-39,-53,58,63,117,117
73,48,-24,-61,48,12,-24,-53,63,73,126,126
39,68,29,-53,4,48,0,-53,82,102,136,141
34,73,39,-53,-2,56,19,-48,102,117,161,156
34,82,48,-58,-7,65,43,-53,112,122,170,165
29,92,63,-61,-17,78,48,-63,117,122,175,170
9,68,58,-39,-24,63,29,-63,112,102,156,141
9,63,53,-36,-21,58,0,-68,97,92,136,122
0,58,58,-29,-29,58,-9,-82,87,82,126,107
-14,19,34,-2,-24,26,-29,-92,82,73,122,97
4,24,19,-14,-7,21,-43,-63,87,92,141,107
19,24,4,-21,7,14,-53,-24,82,107,151,117
29,63,34,-46,-2,48,-58,14,87,117,161,131
39,68,29,-53,4,48,-53,78,92,141,180,151
58,53,-4,-56,31,24,-58,73,87,131,170,146
48,58,9,-53,19,34,-63,68,87,122,165,136
58,58,0,-58,29,29,-73,53,87,117,170,126
73,53,-19,-63,46,17,-82,34,87,107,161,117
58,39,-19,-48,39,9,-63,9,87,117,170,126
9,24,14,-17,-2,19,-68,-24,92,126,180,126
-43,9,53,17,-48,31,-58,-34,102,136,190,136
-34,34,68,0,-51,51,-48,-43,107,151,204,146
9,53,43,-31,-17,48,-39,-63,107,151,190,136
-4,53,58,-24,-31,56,-29,-73,102,151,185,131
-9,53,63,-21,-36,58,-9,-82,97,161,190,131
29,58,29,-43,0,43,4,-87,112,180,200,131
29,43,14,-36,7,29,-4,-102,122,190,204,141
29,29,0,-29,14,14,-4,-117,112,190,209,146
19,0,-19,-9,19,-9,4,-126,112,190,204,156
48,4,-43,-26,46,-19,14,-122,112,214,224,175
34,29,-4,-31,19,12,14,-131,131,209,219,180
-4,24,29,-9,-17,26,4,-146,141,209,229,180
-19,14,34,2,-26,24,-4,-156,146,219,234,180
-4,24,29,-9,-17,26,-14,-161,146,229,234,180
24,43,19,-34,2,31,-48,-141,131,229,244,170
34,68,34,-51,0,51,-58,-136,126,219,244,170
48,73,24,-61,12,48,-63,-107,126,219,244,156
68,48,-19,-58,43,14,-68,-82,131,219,244,156
73,63,-9,-68,41,26,-58,-73,112,219,244,156
63,68,4,-65,29,36,-63,-68,112,219,248,156
53,19,-34,-36,43,-7,-58,-39,112,224,253,156
39,-34,-73,-2,56,-53,-34,-14,136,234,268,170
39,0,-39,-19,39,-19,-34,-34,141,229,268,161
48,63,14,-56,17,39,-39,-34,126,229,278,161
53,97,43,-75,4,70,-39,-48,117,219,273,161
63,97,34,-80,14,65,-39,-53,112,209,263,161
43,48,4,-46,19,26,-24,-48,117,219,253,161
34,29,-4,-31,19,12,-19,-39,122,234,253,161
14,9,-4,-12,9,2,-14,-34,126,248,248,156
9,-4,-14,-2,12,-9,-9,-24,131,263,248,156
14,-4,-19,-4,17,-12,-19,-19,141,268,248,156
9,-19,-29,4,19,-24,-24,0,151,268,253,165
24,-4,-29,-9,26,-17,-34,14,151,273,253,165
48,-4,-53,-21,51,-29,-43,19,151,268,258,165
14,63,48,-39,-17,56,-92,-73,122,234,219,131
-87,58,146,14,-117,102,-87,-82,122,214,214,117
-29,126,156,-48,-92,141,-39,-53,156,234,239,136
-4,97,102,-46,-53,100,-58,-53,165,234,229,122
-34,53,87,-9,-61,70,-102,-43,165,229,209,112
48,136,87,-92,-19,112,-112,-43,209,278,239,122
107,175,68,-141,19,122,-107,-82,258,351,278,126
48,131,82,-90,-17,107,-107,-112,341,483,361,156
14,161,146,-87,-65,153,-102,-58,502,707,507,244
102,234,131,-168,-14,183,-126,34,683,941,668,356
214,283,68,-248,73,175,-161,131,878,1190,868,488
322,405,82,-363,119,244,-165,234,1034,1517,1127,663
380,541,161,-461,109,351,-195,234,1078,1878,1405,839
395,614,219,-505,87,417,-268,156,1063,2249,1678,1015
575,771,195,-673,190,483,-375,97,1083,2571,1956,1234
805,907,102,-856,351,505,-502,19,990,2732,2166,1449
751,800,48,-775,351,424,-605,-107,688,2557,2122,1488
570,536,-34,-553,302,251,-527,-126,400,1995,1795,1395
507,297,-209,-402,358,43,-273,-19,200,1224,1337,1263
414,175,-239,-295,326,-31,-43,-73,-102,522,858,1024
229,170,-58,-200,143,56,63,-312,-497,19,409,649
43,195,151,-119,-53,173,141,-507,-819,-331,63,292
-146,131,278,7,-212,204,214,-595,-1019,-517,-122,97
-263,-29,234,146,-248,102,214,-595,-1156,-575,-195,-4
-263,-92,170,178,-217,39,156,-605,-1239,-570,-234,-63
-248,-19,229,134,-239,104,58,-653,-1195,-522,-209,-63
-302,24,326,139,-314,175,-9,-610,-1010,-429,-146,-43
-253,39,292,107,-273,165,-43,-492,-790,-312,-68,9
-82,122,204,-19,-143,163,-87,-439,-610,-204,9,58
19,122,102,-70,-41,112,-185,-409,-463,-107,63,92
43,-19,-63,-12,53,-41,-253,-346,-326,-43,107,107
107,-87,-195,-9,151,-141,-248,-268,-209,14,151,126
112,-58,-170,-26,141,-114,-209,-244,-122,68,175,131
34,-78,-112,21,73,-95,-161,-234,-43,107,195,156
4,-68,-73,31,39,-70,-117,-214,34,141,219,185
43,14,-29,-29,36,-7,-102,-224,102,185,239,200
14,53,39,-34,-12,46,-102,-224,136,204,248,200
-78,53,131,12,-104,92,-131,-200,131,200,258,204
-78,0,78,39,-78,39,-117,-165,146,214,263,229
-58,-48,9,53,-34,-19,-92,-117,175,244,278,244
-48,-58,-9,53,-19,-34,-78,-102,209,258,312,244
-53,-58,-4,56,-24,-31,-78,-82,234,268,307,253
-24,-48,-24,36,0,-36,-78,-73,234,263,287,263
-4,-39,-34,21,14,-36,-73,-48,248,273,297,258
-19,-19,0,19,-9,-9,-68,-29,239,273,317,263
19,29,9,-24,4,19,-68,-24,229,268,307,239
58,63,4,-61,26,34,-82,-39,214,268,302,239
92,63,-29,-78,61,17,-97,-43,224,268,302,239
102,53,-48,-78,75,2,-102,-53,204,258,297,234
136,48,-87,-92,112,-19,-131,-63,195,239,287,234
146,63,-82,-104,114,-9,-97,-87,209,239,278,224
146,73,-73,-109,109,0,-68,-78,214,239,278,224
141,97,-43,-119,92,26,-48,-126,219,239,273,224
122,126,4,-124,58,65,-34,-170,219,239,263,209
92,78,-14,-85,53,31,-63,-161,214,229,248,195
73,58,-14,-65,43,21,-82,-161,209,224,244,190
58,34,-24,-46,41,4,-92,-131,209,224,239,190
48,19,-29,-34,39,-4,-102,-87,224,234,244,204
73,34,-39,-53,56,-2,-68,-43,234,244,278,229
58,53,-4,-56,31,24,-53,-4,239,244,273,229
43,58,14,-51,14,36,-39,24,244,239,273,224
68,87,19,-78,24,53,-39,39,244,229,273,224
87,136,48,-112,19,92,-53,39,234,229,263,209
87,131,43,-109,21,87,-63,68,234,248,268,204
43,73,29,-58,7,51,-63,53,234,253,263,200
19,43,24,-31,-2,34,-68,39,239,253,253,185
48,48,0,-48,24,24,-63,53,253,258,263,195
53,29,-24,-41,39,2,-58,48,258,263,268,200
34,0,-34,-17,34,-17,-58,73,268,263,278,209
39,14,-24,-26,31,-4,-58,122,273,268,292,224
39,29,-9,-34,24,9,-63,97,258,253,287,214
24,24,0,-24,12,12,-82,48,248,234,273,204
14,9,-4,-12,9,2,-102,0,229,219,258,185
9,4,-4,-7,7,0,-97,-19,224,214,253,175
24,9,-14,-17,19,-2,-63,-34,234,229,258,195
24,14,-9,-19,17,2,-53,-48,239,224,258,200
39,24,-14,-31,26,4,-53,-68,234,214,253,195
63,34,-29,-48,46,2,-34,-82,239,209,253,209
78,63,-14,-70,46,24,-43,-102,229,204,239,190
58,48,-9,-53,34,19,-48,-136,209,204,229,175
82,24,-58,-53,70,-17,-53,-156,204,190,224,165
73,4,-68,-39,70,-31,-48,-165,204,190,219,156
63,43,-19,-53,41,12,-34,-141,214,204,224,165
68,53,-14,-61,41,19,-29,-107,214,209,219,156
73,58,-14,-65,43,21,-34,-136,214,175,204,146
73,39,-34,-56,53,2,-29,-126,204,190,209,146
53,43,-9,-48,31,17,-34,-112,224,200,229,165
39,39,0,-39,19,19,-39,-92,234,204,234,175
14,14,0,-14,7,7,-48,-73,244,204,239,180
-29,-19,9,24,-19,-4,-63,-63,244,200,239,185
4,-14,-19,4,12,-17,-82,-82,229,175,214,156
53,0,-53,-26,53,-26,-92,-82,224,161,204,141
102,24,-78,-63,90,-26,-92,-82,224,146,195,131
151,24,-126,-87,139,-51,-102,-92,224,136,185,117
131,48,-82,-90,107,-17,-87,-102,239,136,195,136
112,73,-39,-92,75,17,-73,-122,253,161,200,151
78,78,0,-78,39,39,-63,-126,263,175,204,165
53,82,29,-68,12,56,-58,-126,253,185,200,161
43,53,9,-48,17,31,-53,-156,224,151,175,151
58,0,-58,-29,58,-29,-43,-180,209,146,165,136
78,-24,-102,-26,90,-63,-29,-200,214,141,161,151
48,-48,-97,0,73,-73,-14,-229,209,122,151,131
24,-39,-63,7,43,-51,-24,-229,175,107,146,117
34,-34,-68,0,51,-51,-43,-200,151,78,131,107
48,-29,-78,-9,63,-53,-39,-175,156,87,136,122
39,-29,-68,-4,53,-48,-24,-146,161,87,136,126
-14,-43,-29,29,7,-36,-4,-122,107,68,136,112
-39,-53,-14,46,-12,-34,4,-97,87,63,141,112
-34,-68,-34,51,0,-51,19,-68,92,53,146,112
-53,-107,-53,80,0,-80,34,-63,82,48,136,117
-14,-87,-73,51,29,-80,58,-58,97,29,141,126
-4,-53,-48,29,21,-51,63,-48,97,19,136,126
14,-34,-48,9,31,-41,58,-58,97,4,122,112
19,-34,-53,7,36,-43,63,-73,82,-14,117,112
-24,-78,-53,51,14,-65,53,-87,78,-29,92,82
-29,-87,-58,58,14,-73,58,-78,53,-34,68,68
-9,-87,-78,48,34,-82,48,-63,29,-58,53,53
0,-78,-78,39,39,-78,34,-73,14,-87,19,34
-39,-87,-48,63,4,-68,24,-48,19,-87,9,19
-48,-102,-53,75,2,-78,14,-39,0,-92,-4,4
-48,-117,-68,82,9,-92,4,-39,-19,-112,-24,0
-43,-117,-73,80,14,-95,-19,-43,-39,-126,-48,-19
-34,-117,-82,75,24,-100,-19,-73,-73,-156,-73,-48
-19,-92,-73,56,26,-82,0,-82,-87,-175,-92,-48
4,-82,-87,39,46,-85,14,-82,-97,-209,-112,-48
0,-73,-73,36,36,-73,14,-78,-117,-248,-136,-58
