I,II,III,aVR,aVL,aVF,V1,V2,V3,V4,V5,V6
180,122,-58,-151,119,31,92,73,9,-9,-14,4
175,112,-63,-143,119,24,92,73,9,-9,-24,4
175,107,-68,-141,122,19,92,73,9,-19,-24,-4
175,102,-73,-139,124,14,97,73,4,-19,-29,-9
165,112,-53,-139,109,29,87,68,-4,-19,-39,-9
165,112,-53,-139,109,29,92,68,0,-14,-39,-9
161,112,-48,-136,104,31,92,68,0,-14,-34,-9
156,107,-48,-131,102,29,87,68,0,-14,-34,-9
156,97,-58,-126,107,19,97,78,0,-14,-34,-9
161,102,-58,-131,109,21,97,78,0,-14,-34,-4
161,102,-58,-131,109,21,97,78,0,-14,-34,-4
161,92,-68,-126,114,12,97,78,0,-19,-39,-9
165,102,-63,-134,114,19,97,68,0,-19,-39,-9
165,102,-63,-134,114,19,97,68,0,-19,-39,-9
165,107,-58,-136,112,24,97,68,0,-19,-39,-9
165,107,-58,-136,112,24,97,68,0,-19,-39,-9
165,97,-68,-131,117,14,92,68,9,-14,-39,-9
170,97,-73,-134,122,12,92,73,9,-14,-34,-9
175,97,-78,-136,126,9,87,73,9,-14,-34,-9
175,92,-82,-134,129,4,87,73,9,-14,-34,-9
165,92,-73,-129,119,9,87,63,0,-24,-43,-14
161,92,-68,-126,114,12,87,63,0,-24,-43,-14
156,97,-58,-126,107,19,87,63,0,-24,-43,-14
151,97,-53,-124,102,21,87,63,0,-24,-48,-14
161,97,-63,-129,112,17,87,73,0,-24,-39,-14
161,97,-63,-129,112,17,87,73,0,-24,-34,-14
161,97,-63,-129,112,17,87,78,0,-19,-34,-14
161,97,-63,-129,112,17,87,78,4,-19,-34,-14
161,107,-53,-134,107,26,87,63,-4,-19,-34,-14
161,107,-53,-134,107,26,87,63,-4,-19,-34,-14
161,107,-53,-134,107,26,87,63,-4,-19,-34,-14
161,107,-53,-134,107,26,87,63,-4,-24,-34,-14
161,107,-53,-134,107,26,87,63,-4,-24,-34,-14
161,107,-53,-134,107,26,87,68,4,-24,-39,-14
161,97,-63,-129,112,17,97,78,14,-24,-39,-19
156,97,-58,-126,107,19,117,107,19,-14,-39,-14
151,87,-63,-119,107,12,131,122,34,-14,-39,-24
151,82,-68,-117,109,7,136,136,58,0,-34,-24
151,112,-39,-131,95,36,136,141,73,19,-24,-14
151,136,-14,-143,82,61,126,131,73,29,-4,-4
156,146,-9,-151,82,68,126,146,107,68,29,4
190,165,-24,-178,107,70,122,175,170,122,63,39
204,170,-34,-187,119,68,112,224,258,200,122,82
224,209,-14,-217,119,97,122,268,356,297,204,141
263,273,9,-268,126,141,122,297,424,400,297,224
283,322,39,-302,122,180,102,278,458,502,400,312
326,405,78,-366,124,241,68,244,478,605,502,414
385,522,136,-453,124,329,0,156,458,702,629,522
429,605,175,-517,126,390,-73,73,453,824,761,644
473,683,209,-578,131,446,-122,19,483,956,883,756
512,732,219,-622,146,475,-165,-14,527,1063,990,849
551,775,224,-663,163,500,-234,-73,527,1132,1058,932
570,814,244,-692,163,529,-287,-151,463,1112,1068,966
551,795,244,-673,153,519,-312,-209,380,985,976,932
551,751,200,-651,175,475,-297,-200,331,849,844,868
556,673,117,-614,219,395,-273,-165,302,727,727,780
522,570,48,-546,236,309,-287,-200,170,556,585,688
468,492,24,-480,222,258,-302,-287,-39,356,419,575
429,439,9,-434,209,224,-331,-385,-273,141,263,458
361,351,-9,-356,185,170,-375,-497,-507,-73,102,331
297,287,-9,-292,153,139,-395,-551,-663,-244,-39,219
263,268,4,-265,129,136,-370,-531,-683,-307,-102,156
253,253,0,-253,126,126,-331,-468,-610,-307,-117,117
244,214,-29,-229,136,92,-273,-395,-541,-292,-126,87
185,141,-43,-163,114,48,-239,-336,-473,-287,-136,58
156,131,-24,-143,90,53,-190,-278,-375,-229,-112,48
195,175,-19,-185,107,78,-126,-190,-287,-156,-73,53
180,190,9,-185,85,100,-68,-126,-204,-112,-53,53
161,180,19,-170,70,100,-43,-87,-146,-73,-29,63
165,204,39,-185,63,122,-29,-58,-107,-34,4,73
165,195,29,-180,68,112,-19,-48,-73,-24,9,73
170,185,14,-178,78,100,-9,-29,-53,-14,14,63
170,185,14,-178,78,100,0,-4,-43,-4,14,63
156,170,14,-163,70,92,14,9,-29,4,14,63
161,165,4,-163,78,85,39,24,-19,0,4,39
161,165,4,-163,78,85,63,48,-9,0,9,34
156,146,-9,-151,82,68,68,58,4,0,4,34
151,146,-4,-148,78,70,68,48,9,0,-4,29
151,136,-14,-143,82,61,68,48,9,0,-4,29
146,131,-14,-139,80,58,63,48,9,0,-4,24
141,131,-9,-136,75,61,63,48,4,0,-4,24
131,122,-9,-126,70,56,58,39,-4,-9,-9,19
131,122,-9,-126,70,56,58,48,0,-9,-14,14
131,122,-9,-126,70,56,68,58,4,-4,-14,4
136,122,-14,-129,75,53,73,63,9,-4,-19,-4
136,117,-19,-126,78,48,82,68,24,-4,-19,-4
136,117,-19,-126,78,48,78,68,24,0,-14,0
136,107,-29,-122,82,39,78,63,24,0,-9,9
131,97,-34,-114,82,31,78,68,24,4,-9,14
131,107,-24,-119,78,41,78,63,9,-4,-9,9
131,112,-19,-122,75,46,73,63,9,-4,-14,4
131,112,-19,-122,75,46,73,68,14,-9,-14,0
131,102,-29,-117,80,36,73,68,19,-14,-19,-4
122,92,-29,-107,75,31,82,68,19,-14,-19,4
122,92,-29,-107,75,31,82,68,24,-9,-14,0
126,92,-34,-109,80,29,78,68,24,-9,-9,0
126,92,-34,-109,80,29,78,58,19,-9,-9,4
126,102,-24,-114,75,39,68,58,14,-9,-9,-4
126,102,-24,-114,75,39,68,58,14,-9,-9,-9
126,102,-24,-114,75,39,68,58,19,-9,-9,-9
126,102,-24,-114,75,39,68,68,19,-9,-9,-9
122,92,-29,-107,75,31,68,68,19,-19,-24,-9
107,82,-24,-95,65,29,68,68,24,-19,-24,-9
112,92,-19,-102,65,36,68,63,24,-14,-24,-4
107,92,-14,-100,61,39,68,63,24,-14,-24,-4
112,92,-19,-102,65,36,68,53,14,-9,-24,-4
112,92,-19,-102,65,36,68,53,9,-9,-19,-4
112,87,-24,-100,68,31,68,53,9,-9,-19,-9
112,87,-24,-100,68,31,68,53,9,-4,-19,-9
102,87,-14,-95,58,36,68,53,19,-4,-24,0
102,82,-19,-92,61,31,68,53,19,-9,-24,0
102,82,-19,-92,61,31,63,53,19,-9,-24,0
102,82,-19,-92,61,31,63,53,19,-9,-24,0
97,73,-24,-85,61,24,63,53,9,-9,-14,-9
97,78,-19,-87,58,29,63,53,9,-9,-14,-4
97,78,-19,-87,58,29,58,53,9,-4,-14,-4
97,78,-19,-87,58,29,58,53,9,-4,-14,-4
87,82,-4,-85,46,39,63,53,14,-9,-14,4
87,78,-9,-82,48,34,63,53,24,-9,-9,4
87,73,-14,-80,51,29,63,53,29,0,-9,4
87,68,-19,-78,53,24,58,53,29,0,-9,4
87,78,-9,-82,48,34,53,39,14,-4,-9,-4
87,78,-9,-82,48,34,53,39,14,-4,-9,-4
87,78,-9,-82,48,34,53,39,14,0,-9,-4
92,82,-9,-87,51,36,53,39,14,4,-4,0
92,82,-9,-87,51,36,58,48,24,4,-4,0
92,82,-9,-87,51,36,58,53,29,4,4,4
92,82,-9,-87,51,36,58,58,34,9,4,4
92,92,0,-92,46,46,58,63,34,14,4,4
102,102,0,-102,51,51,58,53,34,14,4,9
107,107,0,-107,53,53,53,53,34,14,9,14
107,117,9,-112,48,63,53,53,34,14,9,14
112,117,4,-114,53,61,53,53,34,14,9,14
107,117,9,-112,48,63,53,53,34,19,9,14
107,117,9,-112,48,63,53,53,34,19,9,19
112,117,4,-114,53,61,53,58,43,19,14,19
112,122,9,-117,51,65,53,58,43,24,19,29
117,117,0,-117,58,58,63,53,43,34,19,29
117,117,0,-117,58,58,58,53,43,39,29,29
117,112,-4,-114,61,53,58,53,43,39,29,29
117,117,0,-117,58,58,58,53,53,39,29,34
117,126,9,-122,53,68,48,68,53,39,29,34
117,126,9,-122,53,68,53,68,53,43,34,39
122,126,4,-124,58,65,53,68,53,43,34,43
126,126,0,-126,63,63,53,73,58,48,39,48
122,136,14,-129,53,75,53,63,58,53,39,48
122,136,14,-129,53,75,43,58,63,58,48,48
126,146,19,-136,53,82,43,58,68,58,48,48
126,146,19,-136,53,82,39,58,68,58,53,53
136,156,19,-146,58,87,39,68,68,63,48,68
141,165,24,-153,58,95,43,78,73,73,53,73
146,180,34,-163,56,107,43,78,78,78,58,73
146,190,43,-168,51,117,43,78,78,78,58,73
136,185,48,-161,43,117,34,73,78,78,68,73
141,180,39,-161,51,109,34,68,82,78,73,78
146,175,29,-161,58,102,34,63,87,87,78,82
151,175,24,-163,63,100,29,63,92,92,82,87
141,185,43,-163,48,114,29,68,97,92,87,82
146,195,48,-170,48,122,29,68,102,97,92,82
146,195,48,-170,48,122,29,68,107,107,92,87
146,200,53,-173,46,126,29,68,107,107,97,92
156,209,53,-183,51,131,29,78,97,126,102,102
156,214,58,-185,48,136,29,82,107,126,107,107
165,214,48,-190,58,131,24,82,112,136,117,112
170,239,68,-204,51,153,24,82,117,141,122,122
161,229,68,-195,46,148,9,82,122,131,126,122
161,229,68,-195,46,148,9,82,126,136,131,131
170,234,63,-202,53,148,9,87,126,151,136,136
170,234,63,-202,53,148,9,87,131,156,146,146
161,244,82,-202,39,163,9,87,146,170,161,151
170,258,87,-214,41,173,4,87,151,180,161,156
175,258,82,-217,46,170,0,87,156,185,165,156
175,268,92,-222,41,180,0,87,161,185,175,161
185,263,78,-224,53,170,-4,78,156,185,170,156
185,273,87,-229,48,180,-4,82,161,190,175,165
190,287,97,-239,46,192,-9,82,165,190,175,165
190,287,97,-239,46,192,-14,82,170,200,185,170
190,287,97,-239,46,192,-9,82,185,219,200,190
190,292,102,-241,43,197,-9,82,185,224,204,195
190,307,117,-248,36,212,-9,82,190,224,204,200
195,307,112,-251,41,209,-9,82,195,229,209,204
195,312,117,-253,39,214,-19,78,195,219,204,204
190,312,122,-251,34,217,-24,78,190,224,209,214
190,312,122,-251,34,217,-24,78,185,224,214,214
190,312,122,-251,34,217,-24,82,180,229,214,214
200,331,131,-265,34,231,-24,82,200,244,229,219
204,336,131,-270,36,234,-24,87,200,248,234,224
204,336,131,-270,36,234,-29,87,200,253,239,229
204,336,131,-270,36,234,-34,87,200,253,239,234
200,331,131,-265,34,231,-34,73,190,248,229,224
195,336,141,-265,26,239,-34,73,190,244,234,224
190,331,141,-261,24,236,-34,73,190,239,234,224
185,331,146,-258,19,239,-34,68,185,234,234,229
195,331,136,-263,29,234,-39,68,185,244,234,229
195,331,136,-263,29,234,-39,58,185,244,234,229
195,331,136,-263,29,234,-39,58,185,239,234,224
195,331,136,-263,29,234,-39,58,180,239,234,224
185,331,146,-258,19,239,-39,53,165,224,219,214
190,326,136,-258,26,231,-39,53,165,224,219,214
190,322,131,-256,29,226,-39,43,156,214,219,209
190,322,131,-256,29,226,-39,43,151,204,204,204
180,312,131,-246,24,222,-39,39,151,200,204,209
175,297,122,-236,26,209,-34,39,146,195,195,200
170,297,126,-234,21,212,-34,39,141,190,190,200
170,292,122,-231,24,207,-24,39,136,190,185,195
180,283,102,-231,39,192,-19,39,117,180,180,185
170,278,107,-224,31,192,-19,34,107,165,165,170
170,268,97,-219,36,183,-14,34,102,156,161,161
165,248,82,-207,41,165,-4,34,92,146,146,151
151,224,73,-187,39,148,-9,29,92,136,131,136
146,219,73,-183,36,146,-4,29,87,131,122,126
141,214,73,-178,34,143,0,34,78,122,107,117
136,209,73,-173,31,141,4,34,68,107,97,107
131,195,63,-163,34,129,14,29,63,97,102,102
131,190,58,-161,36,124,14,29,58,92,92,92
122,180,58,-151,31,119,19,29,53,78,82,82
117,165,48,-141,34,107,24,29,48,73,73,73
117,165,48,-141,34,107,19,29,39,63,53,63
107,151,43,-129,31,97,24,29,34,53,48,53
97,141,43,-119,26,92,24,29,19,48,34,43
97,131,34,-114,31,82,34,29,19,39,29,39
97,117,19,-107,39,68,43,24,19,39,29,34
92,117,24,-104,34,70,39,24,9,24,29,24
87,102,14,-95,36,58,39,24,0,19,14,19
87,92,4,-90,41,48,39,24,0,9,14,19
82,102,19,-92,31,61,43,29,-4,9,0,14
82,102,19,-92,31,61,48,29,-9,-4,-9,0
73,87,14,-80,29,51,48,24,-14,-4,-19,-4
73,87,14,-80,29,51,48,24,-19,-9,-19,-9
73,82,9,-78,31,46,39,19,-9,-9,-14,-14
73,68,-4,-70,39,31,43,19,-14,-14,-19,-14
63,63,0,-63,31,31,43,19,-19,-19,-24,-14
63,53,-9,-58,36,21,43,19,-24,-24,-24,-19
73,58,-14,-65,43,21,53,19,-29,-24,-29,-24
73,58,-14,-65,43,21,53,19,-34,-29,-34,-29
63,58,-4,-61,34,26,53,19,-39,-39,-34,-34
63,63,0,-63,31,31,53,19,-39,-39,-39,-34
53,53,0,-53,26,26,43,19,-39,-43,-34,-29
48,48,0,-48,24,24,43,19,-39,-43,-39,-29
48,43,-4,-46,26,19,43,14,-39,-43,-43,-29
53,39,-14,-46,34,12,43,14,-39,-48,-43,-29
53,43,-9,-48,31,17,58,24,-39,-48,-43,-39
53,43,-9,-48,31,17,58,24,-43,-48,-43,-39
48,34,-14,-41,31,9,58,24,-48,-48,-43,-43
43,34,-9,-39,26,12,53,24,-53,-53,-48,-43
43,24,-19,-34,31,2,53,14,-43,-58,-48,-43
48,24,-24,-36,36,0,53,14,-43,-58,-48,-43
48,34,-14,-41,31,9,53,14,-43,-58,-48,-43
39,19,-19,-29,29,0,53,4,-43,-58,-53,-48
39,19,-19,-29,29,0,53,14,-53,-58,-53,-39
48,19,-29,-34,39,-4,53,19,-53,-58,-53,-43
39,14,-24,-26,31,-4,53,19,-53,-58,-53,-43
39,14,-24,-26,31,-4,53,19,-53,-58,-53,-39
39,19,-19,-29,29,0,43,9,-58,-68,-63,-48
39,24,-14,-31,26,4,43,9,-58,-68,-63,-48
39,24,-14,-31,26,4,43,9,-58,-68,-63,-48
39,29,-9,-34,24,9,43,4,-53,-68,-63,-48
29,24,-4,-26,17,9,43,4,-53,-68,-53,-48
29,24,-4,-26,17,9,43,4,-53,-68,-58,-48
29,24,-4,-26,17,9,43,4,-53,-68,-58,-53
29,19,-9,-24,19,4,43,4,-58,-68,-58,-53
39,19,-19,-29,29,0,43,9,-58,-63,-58,-53
34,19,-14,-26,24,2,43,9,-58,-63,-53,-48
34,19,-14,-26,24,2,43,9,-58,-63,-53,-48
34,19,-14,-26,24,2,43,4,-58,-63,-58,-48
34,24,-9,-29,21,7,43,4,-53,-53,-48,-39
39,24,-14,-31,26,4,43,4,-53,-53,-48,-39
39,29,-9,-34,24,9,43,4,-53,-53,-48,-39
39,29,-9,-34,24,9,43,4,-58,-53,-48,-43
29,19,-9,-24,19,4,43,9,-58,-63,-48,-43
24,19,-4,-21,14,7,43,9,-58,-68,-48,-39
24,19,-4,-21,14,7,39,0,-58,-68,-48,-39
24,24,0,-24,12,12,39,0,-53,-63,-48,-39
24,14,-9,-19,17,2,39,9,-43,-53,-48,-39
24,14,-9,-19,17,2,39,9,-43,-53,-48,-39
24,14,-9,-19,17,2,39,9,-43,-53,-48,-39
24,14,-9,-19,17,2,43,14,-43,-53,-48,-39
24,24,0,-24,12,12,43,14,-53,-53,-48,-39
24,24,0,-24,12,12,43,14,-53,-53,-48,-39
24,24,0,-24,12,12,43,14,-53,-53,-48,-39
24,24,0,-24,12,12,43,14,-53,-53,-48,-39
24,24,0,-24,12,12,43,14,-43,-58,-48,-39
24,29,4,-26,9,17,39,9,-43,-58,-48,-39
24,29,4,-26,9,17,39,9,-43,-58,-48,-39
19,29,9,-24,4,19,43,9,-43,-53,-48,-43
29,29,0,-29,14,14,34,9,-53,-53,-48,-34
29,29,0,-29,14,14,29,9,-53,-53,-48,-34
24,24,0,-24,12,12,29,9,-53,-53,-48,-34
24,24,0,-24,12,12,29,4,-48,-48,-48,-29
24,24,0,-24,12,12,39,14,-34,-58,-39,-29
24,24,0,-24,12,12,34,14,-34,-58,-39,-29
24,24,0,-24,12,12,34,14,-34,-48,-34,-29
24,24,0,-24,12,12,34,14,-34,-48,-34,-29
34,24,-9,-29,21,7,34,14,-34,-48,-43,-34
34,19,-14,-26,24,2,39,14,-34,-48,-43,-34
29,19,-9,-24,19,4,39,14,-34,-48,-43,-34
24,14,-9,-19,17,2,39,14,-34,-48,-39,-34
24,24,0,-24,12,12,39,14,-29,-34,-34,-24
19,24,4,-21,7,14,34,14,-29,-34,-34,-24
19,24,4,-21,7,14,34,14,-29,-39,-39,-24
24,29,4,-26,9,17,34,14,-29,-39,-39,-24
24,19,-4,-21,14,7,34,14,-29,-48,-34,-34
24,19,-4,-21,14,7,34,14,-29,-43,-34,-34
24,19,-4,-21,14,7,34,14,-24,-43,-34,-34
24,29,4,-26,9,17,34,14,-24,-43,-34,-34
34,29,-4,-31,19,12,34,14,-29,-34,-34,-24
29,24,-4,-26,17,9,29,14,-29,-34,-34,-24
29,24,-4,-26,17,9,29,14,-24,-29,-34,-24
29,24,-4,-26,17,9,29,14,-24,-29,-34,-19
24,29,4,-26,9,17,39,24,-19,-29,-34,-29
24,24,0,-24,12,12,39,24,-19,-34,-34,-29
24,29,4,-26,9,17,34,24,-19,-34,-34,-29
24,29,4,-26,9,17,34,24,-19,-29,-29,-24
24,29,4,-26,9,17,24,14,-29,-34,-34,-24
24,29,4,-26,9,17,29,14,-24,-29,-34,-24
14,24,9,-19,2,17,29,14,-24,-29,-34,-24
14,24,9,-19,2,17,24,14,-24,-29,-29,-24
9,24,14,-17,-2,19,34,14,-14,-29,-29,-34
9,24,14,-17,-2,19,34,14,-14,-29,-29,-34
9,19,9,-14,0,14,34,14,-14,-34,-29,-34
9,19,9,-14,0,14,29,14,-14,-39,-34,-34
19,19,0,-19,9,9,29,24,-14,-29,-34,-29
19,19,0,-19,9,9,34,24,-14,-24,-34,-29
19,19,0,-19,9,9,34,24,-14,-24,-34,-29
14,14,0,-14,7,7,29,24,-19,-29,-34,-29
4,14,9,-9,-2,12,19,14,-29,-39,-34,-39
9,14,4,-12,2,9,24,14,-24,-39,-34,-39
9,14,4,-12,2,9,24,14,-24,-39,-29,-39
9,14,4,-12,2,9,24,14,-24,-39,-29,-39
19,14,-4,-17,12,4,34,24,-14,-29,-29,-39
19,14,-4,-17,12,4,34,24,-19,-34,-29,-39
19,14,-4,-17,12,4,34,24,-19,-34,-29,-39
9,14,4,-12,2,9,34,24,-19,-34,-29,-39
9,14,4,-12,2,9,24,14,-19,-34,-29,-39
9,14,4,-12,2,9,24,14,-19,-34,-29,-39
9,9,0,-9,4,4,24,19,-19,-34,-29,-39
9,9,0,-9,4,4,24,24,-19,-39,-29,-39
9,4,-4,-7,7,0,24,14,-29,-34,-34,-29
9,4,-4,-7,7,0,24,14,-29,-34,-34,-34
9,9,0,-9,4,4,24,14,-29,-39,-39,-34
4,14,9,-9,-2,12,24,14,-29,-39,-39,-39
4,0,-4,-2,4,-2,24,14,-19,-48,-48,-39
0,0,0,0,0,0,24,14,-19,-39,-43,-34
0,4,4,-2,-2,4,24,9,-24,-34,-39,-34
4,4,0,-4,2,2,24,9,-29,-34,-39,-34
4,0,-4,-2,4,-2,24,9,-29,-29,-39,-43
4,0,-4,-2,4,-2,24,9,-29,-39,-39,-43
4,4,0,-4,2,2,24,9,-29,-43,-48,-43
4,4,0,-4,2,2,24,9,-29,-43,-48,-48
4,14,9,-9,-2,12,34,14,-29,-43,-39,-43
9,14,4,-12,2,9,34,14,-34,-43,-39,-43
9,14,4,-12,2,9,34,9,-34,-43,-39,-48
9,14,4,-12,2,9,34,9,-34,-43,-39,-48
9,9,0,-9,4,4,24,9,-29,-48,-39,-48
4,-4,-9,0,7,-7,24,9,-29,-48,-43,-53
4,-9,-14,2,9,-12,24,9,-24,-53,-43,-53
9,-4,-14,-2,12,-9,24,9,-24,-53,-43,-53
0,-4,-4,2,2,-4,34,19,-24,-48,-53,-43
0,-4,-4,2,2,-4,34,19,-24,-48,-53,-43
0,0,0,0,0,0,34,19,-34,-53,-48,-43
0,0,0,0,0,0,34,19,-34,-53,-48,-43
4,4,0,-4,2,2,24,9,-29,-53,-58,-53
4,4,0,-4,2,2,24,9,-29,-53,-53,-53
4,4,0,-4,2,2,24,9,-29,-53,-53,-53
4,4,0,-4,2,2,24,9,-29,-53,-53,-53
9,4,-4,-7,7,0,34,9,-29,-53,-53,-43
14,9,-4,-12,9,2,34,9,-29,-53,-53,-43
19,19,0,-19,9,9,34,9,-29,-48,-58,-43
24,24,0,-24,12,12,34,9,-29,-48,-58,-43
14,14,0,-14,7,7,43,9,-29,-48,-48,-53
14,9,-4,-12,9,2,43,9,-29,-53,-48,-53
14,4,-9,-9,12,-2,43,9,-29,-53,-48,-53
14,0,-14,-7,14,-7,43,9,-29,-58,-48,-53
4,-4,-9,0,7,-7,43,4,-29,-58,-48,-48
0,-4,-4,2,2,-4,43,4,-29,-58,-48,-48
0,-4,-4,2,2,-4,43,9,-29,-48,-48,-48
0,0,0,0,0,0,43,9,-29,-48,-53,-48
4,9,4,-7,0,7,43,9,-43,-43,-53,-58
9,9,0,-9,4,4,43,4,-43,-48,-48,-58
14,9,-4,-12,9,2,39,4,-43,-48,-48,-53
19,9,-9,-14,14,0,39,4,-43,-43,-48,-53
19,0,-19,-9,19,-9,39,14,-39,-43,-48,-43
19,4,-14,-12,17,-4,39,14,-39,-43,-48,-43
19,4,-14,-12,17,-4,39,14,-39,-43,-48,-43
19,4,-14,-12,17,-4,39,14,-39,-43,-48,-43
19,4,-14,-12,17,-4,34,14,-39,-43,-53,-58
19,4,-14,-12,17,-4,34,14,-39,-43,-53,-58
14,4,-9,-9,12,-2,34,14,-39,-43,-53,-58
14,0,-14,-7,14,-7,34,14,-39,-43,-48,-58
14,-9,-24,-2,19,-17,34,14,-39,-43,-58,-48
14,0,-14,-7,14,-7,34,14,-39,-43,-58,-48
14,0,-14,-7,14,-7,34,9,-43,-48,-58,-53
14,4,-9,-9,12,-2,34,9,-43,-48,-58,-53
14,0,-14,-7,14,-7,34,9,-34,-48,-48,-53
14,0,-14,-7,14,-7,34,9,-34,-48,-48,-53
14,4,-9,-9,12,-2,34,14,-34,-48,-48,-53
14,4,-9,-9,12,-2,34,14,-34,-53,-48,-53
14,9,-4,-12,9,2,34,4,-43,-53,-58,-63
4,0,-4,-2,4,-2,34,4,-43,-53,-58,-63
4,0,-4,-2,4,-2,34,4,-43,-48,-58,-63
9,0,-9,-4,9,-4,34,4,-43,-48,-58,-58
9,0,-9,-4,9,-4,39,4,-34,-58,-48,-58
9,0,-9,-4,9,-4,39,4,-34,-58,-48,-58
9,0,-9,-4,9,-4,39,4,-39,-53,-48,-58
9,0,-9,-4,9,-4,39,4,-39,-53,-48,-63
9,-4,-14,-2,12,-9,39,4,-48,-43,-63,-63
9,-4,-14,-2,12,-9,39,4,-48,-48,-63,-63
4,-4,-9,0,7,-7,39,0,-48,-53,-63,-63
4,-4,-9,0,7,-7,39,0,-48,-58,-63,-63
14,-4,-19,-4,17,-12,39,0,-34,-58,-53,-53
14,-4,-19,-4,17,-12,39,4,-34,-53,-53,-53
14,-4,-19,-4,17,-12,39,4,-34,-53,-53,-58
9,-9,-19,0,14,-14,39,4,-34,-53,-58,-58
19,4,-14,-12,17,-4,39,14,-39,-53,-58,-53
-9,-29,-19,19,4,-24,39,9,-48,-58,-68,-58
0,-24,-24,12,12,-24,29,0,-39,-58,-58,-58
0,-19,-19,9,9,-19,29,0,-39,-58,-58,-58
0,-14,-14,7,7,-14,29,0,-39,-58,-58,-58
0,-9,-9,4,4,-9,29,0,-39,-58,-58,-58
-9,-19,-9,14,0,-14,29,0,-48,-58,-58,-58
-9,-19,-9,14,0,-14,29,0,-48,-58,-58,-58
-9,-19,-9,14,0,-14,29,0,-48,-58,-58,-58
-9,-19,-9,14,0,-14,29,0,-48,-58,-58,-58
0,-19,-19,9,9,-19,29,0,-48,-58,-68,-68
0,-19,-19,9,9,-19,29,0,-48,-58,-68,-68
0,-19,-19,9,9,-19,29,0,-48,-58,-68,-68
0,-19,-19,9,9,-19,29,0,-48,-58,-68,-68
9,-19,-29,4,19,-24,39,9,-48,-58,-58,-58
9,-19,-29,4,19,-24,39,9,-48,-58,-58,-58
9,-19,-29,4,19,-24,39,9,-48,-58,-58,-58
9,-19,-29,4,19,-24,39,9,-48,-58,-58,-58
4,-29,-34,12,19,-31,39,0,-48,-58,-58,-68
0,-29,-29,14,14,-29,39,0,-48,-58,-58,-68
-4,-29,-24,17,9,-26,39,0,-48,-58,-58,-68
-9,-29,-19,19,4,-24,39,0,-48,-58,-58,-68
0,-19,-19,9,9,-19,39,0,-48,-58,-58,-68
0,-19,-19,9,9,-19,39,0,-48,-58,-58,-68
0,-19,-19,9,9,-19,39,0,-48,-58,-58,-68
0,-19,-19,9,9,-19,39,0,-48,-58,-58,-68
9,-19,-29,4,19,-24,39,9,-48,-58,-58,-68
9,-19,-29,4,19,-24,39,9,-48,-58,-58,-68
9,-19,-29,4,19,-24,39,9,-48,-58,-58,-68
9,-19,-29,4,19,-24,39,9,-48,-58,-58,-68
0,-19,-19,9,9,-19,39,9,-48,-58,-58,-68
0,-19,-19,9,9,-19,39,9,-48,-58,-58,-68
0,-19,-19,9,9,-19,39,9,-48,-58,-58,-68
0,-19,-19,9,9,-19,39,9,-48,-58,-58,-68
9,-14,-24,2,17,-19,39,9,-48,-48,-58,-58
9,-9,-19,0,14,-14,39,9,-48,-48,-58,-58
9,-4,-14,-2,12,-9,39,9,-48,-48,-58,-58
9,0,-9,-4,9,-4,39,9,-48,-48,-58,-58
0,0,0,0,0,0,39,9,-39,-48,-48,-58
0,0,0,0,0,0,39,9,-39,-48,-48,-58
0,0,0,0,0,0,39,9,-39,-48,-48,-58
0,0,0,0,0,0,39,9,-39,-48,-48,-58
9,9,0,-9,4,4,43,19,-39,-39,-48,-48
9,9,0,-9,4,4,48,19,-39,-39,-48,-48
9,9,0,-9,4,4,53,19,-39,-39,-48,-48
9,9,0,-9,4,4,58,19,-39,-39,-48,-48
0,14,14,-7,-7,14,58,9,-39,-39,-39,-48
0,29,29,-14,-14,29,58,9,-39,-39,-39,-48
0,34,34,-17,-17,34,58,9,-39,-39,-39,-48
0,34,34,-17,-17,34,63,14,-34,-34,-34,-48
0,29,29,-14,-14,29,68,29,-24,-24,-43,-39
0,24,24,-12,-12,24,68,29,-24,-24,-39,-39
0,34,34,-17,-17,34,63,29,-24,-24,-39,-39
4,34,29,-19,-12,31,58,29,-24,-29,-43,-39
4,24,19,-14,-7,21,58,29,-14,-29,-34,-39
9,24,14,-17,-2,19,58,34,-9,-29,-34,-34
14,24,9,-19,2,17,53,34,-4,-24,-29,-34
14,24,9,-19,2,17,48,34,-4,-24,-24,-24
9,19,9,-14,0,14,39,19,-9,-34,-34,-24
9,19,9,-14,0,14,29,14,-19,-29,-34,-29
19,29,9,-24,4,19,24,9,-24,-29,-34,-29
19,29,9,-24,4,19,14,0,-29,-34,-34,-29
9,29,19,-19,-4,24,0,-9,-43,-34,-34,-34
9,29,19,-19,-4,24,-9,-19,-48,-39,-34,-34
14,29,14,-21,0,21,-9,-19,-48,-39,-34,-39
14,29,14,-21,0,21,-14,-19,-48,-39,-34,-39
24,39,14,-31,4,26,-4,-14,-48,-34,-34,-29
24,34,9,-29,7,21,-4,-14,-53,-34,-34,-29
19,34,14,-26,2,24,-4,-19,-53,-34,-34,-29
19,34,14,-26,2,24,-4,-19,-53,-39,-39,-29
9,24,14,-17,-2,19,-9,-34,-58,-39,-34,-39
9,24,14,-17,-2,19,-14,-34,-58,-39,-34,-39
14,24,9,-19,2,17,-14,-34,-53,-39,-34,-39
14,19,4,-17,4,12,-14,-34,-53,-39,-34,-39
19,19,0,-19,9,9,-4,-19,-53,-43,-43,-39
24,19,-4,-21,14,7,-4,-19,-63,-43,-43,-39
29,19,-9,-24,19,4,-4,-19,-63,-53,-48,-39
39,19,-19,-29,29,0,-4,-19,-63,-53,-48,-39
39,24,-14,-31,26,4,-14,-29,-58,-53,-48,-48
34,24,-9,-29,21,7,-19,-34,-58,-53,-43,-48
29,24,-4,-26,17,9,-19,-39,-58,-53,-43,-48
29,14,-14,-21,21,0,-14,-39,-63,-53,-48,-48
19,9,-9,-14,14,0,0,-24,-63,-63,-48,-39
19,4,-14,-12,17,-4,0,-24,-58,-63,-48,-39
19,-14,-34,-2,26,-24,0,-19,-58,-63,-53,-43
19,-24,-43,2,31,-34,0,-19,-53,-63,-53,-43
34,-14,-48,-9,41,-31,0,-9,-43,-53,-53,-43
34,-14,-48,-9,41,-31,0,-9,-43,-63,-58,-43
29,-24,-53,-2,41,-39,4,-9,-43,-63,-58,-48
19,-24,-43,2,31,-34,14,-4,-43,-58,-58,-53
9,-34,-43,12,26,-39,19,-9,-48,-48,-58,-53
9,-34,-43,12,26,-39,24,-9,-48,-53,-58,-53
4,-34,-39,14,21,-36,24,-4,-43,-53,-63,-58
4,-34,-39,14,21,-36,24,-4,-43,-58,-63,-58
-4,-43,-39,24,17,-41,34,-4,-53,-68,-63,-63
-9,-53,-43,31,17,-48,34,-4,-58,-68,-73,-63
-9,-58,-48,34,19,-53,34,-4,-63,-78,-73,-73
-9,-63,-53,36,21,-58,39,-4,-73,-78,-78,-78
0,-58,-58,29,29,-58,39,0,-73,-87,-78,-78
0,-53,-53,26,26,-53,43,0,-68,-82,-78,-78
-4,-48,-43,26,19,-46,43,0,-68,-82,-73,-78
-9,-48,-39,29,14,-43,39,0,-68,-82,-73,-78
-19,-58,-39,39,9,-48,39,0,-58,-82,-82,-87
-14,-53,-39,34,12,-46,39,0,-58,-82,-82,-82
-14,-53,-39,34,12,-46,39,0,-58,-82,-82,-82
-14,-63,-48,39,17,-56,39,0,-58,-87,-87,-87
-19,-63,-43,41,12,-53,39,0,-58,-78,-87,-78
-19,-63,-43,41,12,-53,39,0,-58,-78,-87,-78
-19,-58,-39,39,9,-48,39,0,-58,-78,-87,-78
-19,-58,-39,39,9,-48,39,0,-58,-78,-87,-78
-19,-58,-39,39,9,-48,43,0,-48,-73,-87,-78
-14,-58,-43,36,14,-51,43,4,-48,-73,-82,-78
-9,-58,-48,34,19,-53,39,4,-48,-73,-82,-78
-9,-63,-53,36,21,-58,39,4,-48,-73,-82,-78
-4,-63,-58,34,26,-61,39,4,-58,-73,-73,-73
-4,-63,-58,34,26,-61,39,4,-58,-73,-73,-73
-4,-58,-53,31,24,-56,39,4,-58,-73,-73,-73
-4,-58,-53,31,24,-56,39,4,-58,-73,-78,-73
-4,-48,-43,26,19,-46,39,4,-58,-73,-78,-82
-4,-48,-43,26,19,-46,39,4,-58,-73,-73,-82
-4,-48,-43,26,19,-46,39,9,-58,-68,-73,-82
-4,-48,-43,26,19,-46,39,9,-53,-68,-73,-82
-4,-48,-43,26,19,-46,39,4,-53,-68,-73,-73
-4,-48,-43,26,19,-46,39,4,-53,-68,-73,-73
-4,-48,-43,26,19,-46,39,4,-53,-68,-73,-73
-4,-48,-43,26,19,-46,39,4,-53,-73,-73,-73
-14,-58,-43,36,14,-51,39,4,-53,-63,-73,-73
-14,-68,-53,41,19,-61,39,0,-43,-53,-68,-73
-4,-48,-43,26,19,-46,48,19,-34,-53,-68,-78
-9,-48,-39,29,14,-43,68,39,-29,-53,-68,-82
-24,-58,-34,41,4,-46,73,53,-14,-53,-68,-92
-34,-53,-19,43,-7,-36,78,58,-9,-48,-73,-92
-24,-43,-19,34,-2,-31,68,53,4,-39,-53,-82
-14,-19,-4,17,-4,-12,68,63,24,-9,-34,-73
-9,-9,0,9,-4,-4,68,87,48,9,-19,-63
-4,-19,-14,12,4,-17,63,107,112,63,24,-39
39,24,-14,-31,26,4,73,156,209,141,82,4
68,63,-4,-65,36,29,73,209,307,239,146,63
87,97,9,-92,39,53,73,239,375,331,239,136
136,175,39,-156,48,107,53,229,409,444,341,224
170,258,87,-214,41,173,9,165,419,536,453,317
209,366,156,-287,26,261,-58,87,409,653,580,434
273,478,204,-375,34,341,-122,14,424,795,732,566
297,536,239,-417,29,387,-180,-39,463,917,854,678
336,575,239,-456,48,407,-234,-82,507,1024,941,761
405,658,253,-531,75,456,-312,-141,507,1083,1010,844
424,688,263,-556,80,475,-385,-239,453,1054,1010,878
414,668,253,-541,80,461,-409,-297,370,936,917,844
405,614,209,-509,97,412,-405,-287,331,810,814,790
400,546,146,-473,126,346,-400,-253,302,697,707,722
366,473,107,-419,129,290,-414,-287,170,546,566,629
322,395,73,-358,124,234,-429,-375,-39,356,429,527
273,331,58,-302,107,195,-468,-492,-263,151,273,419
234,283,48,-258,92,165,-512,-595,-507,-53,112,312
180,229,48,-204,65,139,-522,-658,-683,-234,-19,209
136,180,43,-158,46,112,-488,-649,-712,-307,-82,146
87,126,39,-107,24,82,-439,-585,-649,-307,-97,117
48,87,39,-68,4,63,-370,-502,-570,-302,-107,78
48,73,24,-61,12,48,-307,-414,-492,-268,-107,58
29,63,34,-46,-2,48,-239,-336,-405,-209,-82,48
9,68,58,-39,-24,63,-175,-258,-317,-165,-63,34
14,92,78,-53,-31,85,-126,-195,-253,-131,-63,24
14,92,78,-53,-31,85,-102,-165,-195,-102,-48,24
19,87,68,-53,-24,78,-87,-146,-156,-63,-24,24
29,87,58,-58,-14,73,-78,-117,-122,-43,-9,24
14,68,53,-41,-19,61,-68,-97,-102,-34,-4,14
14,58,43,-36,-14,51,-48,-73,-82,-24,4,4
9,43,34,-26,-12,39,-24,-48,-78,-24,4,4
-4,9,14,-2,-9,12,-9,-34,-58,-29,-14,-9
-14,9,24,2,-19,17,4,-19,-48,-48,-39,-34
0,9,9,-4,-4,9,19,-9,-43,-48,-43,-34
-4,-9,-4,7,0,-7,9,-19,-48,-48,-43,-29
-4,-19,-14,12,4,-17,9,-19,-48,-48,-43,-29
-9,-24,-14,17,2,-19,4,-19,-48,-48,-43,-34
-14,-24,-9,19,-2,-17,4,-19,-53,-48,-43,-34
-24,-24,0,24,-12,-12,9,-9,-53,-48,-39,-43
-24,-24,0,24,-12,-12,9,0,-48,-48,-43,-43
-24,-24,0,24,-12,-12,19,9,-43,-43,-43,-48
-19,-24,-4,21,-7,-14,24,14,-39,-43,-48,-53
-19,-29,-9,24,-4,-19,34,14,-34,-53,-58,-58
-19,-29,-9,24,-4,-19,29,9,-34,-48,-53,-58
-19,-39,-19,29,0,-29,29,0,-34,-48,-48,-53
-24,-48,-24,36,0,-36,29,0,-34,-43,-48,-53
-24,-39,-14,31,-4,-26,24,0,-29,-43,-39,-53
-24,-34,-9,29,-7,-21,24,4,-29,-43,-43,-53
-24,-34,-9,29,-7,-21,29,14,-24,-48,-43,-53
-24,-43,-19,34,-2,-31,34,19,-19,-53,-48,-53
-24,-43,-19,34,-2,-31,34,9,-29,-53,-58,-53
-24,-43,-19,34,-2,-31,34,9,-24,-48,-53,-58
-19,-43,-24,31,2,-34,29,9,-24,-48,-48,-58
-19,-43,-24,31,2,-34,29,0,-29,-48,-48,-53
-29,-34,-4,31,-12,-19,29,0,-24,-48,-48,-63
-29,-34,-4,31,-12,-19,29,0,-24,-48,-48,-68
-29,-34,-4,31,-12,-19,29,0,-19,-48,-48,-68
-29,-34,-4,31,-12,-19,29,9,-19,-48,-48,-68
-29,-43,-14,36,-7,-29,29,9,-29,-39,-43,-68
-39,-53,-14,46,-12,-34,29,9,-24,-39,-43,-68
-29,-43,-14,36,-7,-29,29,4,-24,-34,-43,-63
-29,-43,-14,36,-7,-29,29,4,-24,-34,-43,-63
-43,-48,-4,46,-19,-26,19,4,-24,-48,-53,-63
-43,-53,-9,48,-17,-31,19,4,-29,-48,-48,-63
-43,-63,-19,53,-12,-41,19,4,-29,-48,-48,-68
-43,-68,-24,56,-9,-46,19,4,-29,-43,-48,-68
-43,-68,-24,56,-9,-46,29,4,-29,-53,-53,-68
-43,-73,-29,58,-7,-51,29,4,-29,-58,-53,-68
-43,-73,-29,58,-7,-51,24,4,-29,-58,-53,-68
-43,-73,-29,58,-7,-51,24,4,-29,-58,-53,-68
-48,-73,-24,61,-12,-48,14,4,-19,-58,-53,-68
-48,-68,-19,58,-14,-43,14,4,-19,-58,-53,-63
-48,-68,-19,58,-14,-43,9,4,-19,-53,-53,-63
-48,-68,-19,58,-14,-43,9,4,-19,-53,-53,-63
-39,-58,-19,48,-9,-39,24,14,-24,-48,-53,-63
-39,-58,-19,48,-9,-39,24,14,-14,-48,-48,-63
-39,-58,-19,48,-9,-39,24,14,-9,-39,-48,-63
-39,-58,-19,48,-9,-39,19,14,-9,-39,-48,-63
-39,-48,-9,43,-14,-29,14,9,-4,-34,-43,-53
-39,-48,-9,43,-14,-29,14,9,-4,-34,-39,-53
-39,-48,-9,43,-14,-29,14,9,-4,-29,-34,-53
-34,-43,-9,39,-12,-26,14,9,-4,-24,-24,-48
-24,-34,-9,29,-7,-21,19,14,-4,-24,-24,-48
-24,-34,-9,29,-7,-21,19,14,0,-24,-14,-43
-24,-34,-9,29,-7,-21,19,14,4,-19,-14,-43
-24,-24,0,24,-12,-12,19,14,4,-14,-14,-43
-29,-29,0,29,-14,-14,19,14,-4,-19,-19,-48
-29,-29,0,29,-14,-14,14,14,-4,-24,-19,-43
-34,-24,9,29,-21,-7,14,14,-4,-29,-24,-43
-34,-29,4,31,-19,-12,14,14,-4,-34,-29,-43
-29,-29,0,29,-14,-14,4,4,4,-19,-19,-43
-29,-29,0,29,-14,-14,4,4,4,-19,-19,-39
-24,-29,-4,26,-9,-17,4,9,14,-19,-14,-39
-24,-24,0,24,-12,-12,4,9,14,-14,-9,-29
-24,-14,9,19,-17,-2,4,14,14,-14,-19,-29
-29,-9,19,19,-24,4,0,14,14,-9,-9,-29
-34,-9,24,21,-29,7,0,14,14,-9,-9,-29
-39,0,39,19,-39,19,0,14,24,-9,-9,-24
-29,-4,24,17,-26,9,0,19,24,-9,-9,-24
-29,-9,19,19,-24,4,4,19,24,-4,-4,-19
-24,-14,9,19,-17,-2,4,19,24,-4,-4,-14
-19,-19,0,19,-9,-9,4,24,29,0,0,-9
-24,-24,0,24,-12,-12,9,34,39,4,-9,-9
-24,-29,-4,26,-9,-17,4,29,43,9,0,-9
-19,-24,-4,21,-7,-14,9,29,48,9,0,-9
-19,-29,-9,24,-4,-19,9,29,48,9,4,-4
-19,-14,4,17,-12,-4,0,19,48,24,14,0
-14,0,14,7,-14,7,4,29,53,34,24,4
-9,19,29,-4,-19,24,4,29,58,39,34,4
-9,34,43,-12,-26,39,4,29,58,39,39,4
-19,29,48,-4,-34,39,-4,29,48,29,39,14
-14,24,39,-4,-26,31,-4,29,53,29,43,19
-9,19,29,-4,-19,24,-4,29,58,39,48,24
-4,19,24,-7,-14,21,-9,34,63,43,53,29
-4,19,24,-7,-14,21,-9,39,68,43,48,34
0,29,29,-14,-14,29,-9,39,73,48,53,34
0,29,29,-14,-14,29,-9,39,78,58,53,39
0,34,34,-17,-17,34,-9,39,78,58,58,43
9,53,43,-31,-17,48,-9,39,87,78,73,53
9,58,48,-34,-19,53,-9,43,97,78,78,58
19,58,39,-39,-9,48,-14,43,102,87,87,63
24,82,58,-53,-17,70,-14,43,107,92,92,73
14,73,58,-43,-21,65,-19,43,102,92,87,63
14,73,58,-43,-21,65,-19,43,107,97,92,73
24,78,53,-51,-14,65,-19,48,107,112,97,78
24,78,53,-51,-14,65,-19,48,112,117,107,87
24,87,63,-56,-19,75,-29,48,126,112,122,92
34,102,68,-68,-17,85,-34,48,131,122,122,97
39,102,63,-70,-12,82,-39,48,136,126,126,97
39,112,73,-75,-17,92,-39,48,141,126,136,102
48,112,63,-80,-7,87,-34,48,136,136,136,97
48,117,68,-82,-9,92,-34,53,141,141,136,107
53,126,73,-90,-9,100,-39,53,146,141,131,107
53,122,68,-87,-7,95,-43,53,151,151,136,112
63,136,73,-100,-4,104,-48,53,156,170,146,122
63,146,82,-104,-9,114,-48,53,156,175,156,126
63,165,102,-114,-19,134,-48,53,161,175,161,131
68,170,102,-119,-17,136,-48,53,165,180,170,136
78,185,107,-131,-14,146,-58,58,170,170,165,146
73,185,112,-129,-19,148,-63,58,170,175,170,156
73,185,112,-129,-19,148,-63,58,170,175,175,156
73,185,112,-129,-19,148,-63,63,170,180,175,156
82,190,107,-136,-12,148,-53,63,190,195,190,161
87,190,102,-139,-7,146,-53,68,190,200,195,165
87,185,97,-136,-4,141,-58,68,190,204,200,170
87,180,92,-134,-2,136,-63,68,190,204,200,175
87,180,92,-134,-2,136,-63,53,180,200,190,175
87,190,102,-139,-7,146,-63,53,180,195,195,175
87,190,102,-139,-7,146,-63,53,180,190,195,175
87,195,107,-141,-9,151,-63,48,175,185,195,180
97,200,102,-148,-2,151,-68,48,165,185,195,180
97,204,107,-151,-4,156,-68,39,165,185,195,180
97,209,112,-153,-7,161,-68,39,165,180,195,175
97,214,117,-156,-9,165,-68,39,161,180,195,175
97,224,126,-161,-14,175,-78,43,165,180,190,175
102,219,117,-161,-7,168,-78,43,165,185,190,175
102,214,112,-158,-4,163,-78,34,156,180,190,170
102,214,112,-158,-4,163,-78,34,151,175,175,165
82,209,126,-146,-21,168,-68,19,141,165,165,151
78,190,112,-134,-17,151,-63,19,136,156,156,141
73,185,112,-129,-19,148,-63,19,131,146,151,141
73,175,102,-124,-14,139,-53,19,126,141,146,136
82,161,78,-122,2,119,-58,19,126,141,151,136
73,161,87,-117,-7,124,-58,14,117,126,136,122
73,156,82,-114,-4,119,-53,14,112,117,131,112
68,141,73,-104,-2,107,-43,14,102,107,117,102
58,122,63,-90,-2,92,-29,9,82,87,112,97
48,112,63,-80,-7,87,-24,9,78,82,102,87
39,102,63,-70,-12,82,-19,14,68,73,87,78
29,92,63,-61,-17,78,-14,14,58,58,78,68
34,68,34,-51,0,51,-14,0,53,48,63,53
34,63,29,-48,2,46,-14,0,48,43,53,43
24,53,29,-39,-2,41,-9,0,43,29,43,34
19,39,19,-29,0,29,-4,0,39,24,34,24
19,43,24,-31,-2,34,-9,0,29,19,34,24
9,34,24,-21,-7,29,-4,0,24,14,29,14
0,29,29,-14,-14,29,-4,0,9,14,14,4
0,24,24,-12,-12,24,4,0,9,9,9,0
0,19,19,-9,-9,19,14,-4,9,9,9,-4
-4,19,24,-7,-14,21,9,-4,0,-4,9,-14
-9,4,14,2,-12,9,9,-4,-9,-9,-4,-19
-9,-4,4,7,-7,0,9,-4,-9,-19,-4,-19
-14,-14,0,14,-7,-7,4,0,-14,-24,-14,-34
-14,-14,0,14,-7,-7,9,0,-19,-43,-29,-48
-24,-29,-4,26,-9,-17,9,-4,-24,-48,-43,-53
-24,-29,-4,26,-9,-17,9,-4,-29,-58,-48,-58
-29,-43,-14,36,-7,-29,9,-19,-39,-68,-53,-73
-34,-58,-24,46,-4,-41,14,-19,-43,-73,-58,-73
-48,-63,-14,56,-17,-39,14,-19,-48,-78,-63,-73
-53,-73,-19,63,-17,-46,14,-19,-53,-82,-63,-78
-63,-78,-14,70,-24,-46,24,-9,-48,-82,-78,-82
-63,-87,-24,75,-19,-56,24,-9,-53,-87,-82,-87
-73,-97,-24,85,-24,-61,24,-9,-58,-97,-82,-92
-73,-102,-29,87,-21,-65,24,-9,-58,-97,-87,-92
-73,-97,-24,85,-24,-61,14,-19,-58,-92,-87,-87
-78,-97,-19,87,-29,-58,14,-19,-58,-92,-87,-87
-78,-97,-19,87,-29,-58,14,-24,-58,-92,-87,-87
-73,-97,-24,85,-24,-61,14,-24,-58,-97,-82,-87
-82,-102,-19,92,-31,-61,19,-14,-58,-97,-82,-78
-82,-102,-19,92,-31,-61,19,-14,-63,-97,-82,-78
-87,-112,-24,100,-31,-68,19,-14,-68,-97,-82,-82
-92,-112,-19,102,-36,-65,14,-14,-73,-102,-87,-82
-82,-112,-29,97,-26,-70,14,-14,-63,-97,-97,-92
-78,-112,-34,95,-21,-73,14,-14,-63,-97,-97,-92
-78,-102,-24,90,-26,-63,14,-14,-63,-97,-97,-92
-87,-117,-29,102,-29,-73,14,-24,-63,-97,-102,-97
-102,-126,-24,114,-39,-75,9,-29,-78,-107,-102,-107
-97,-126,-29,112,-34,-78,4,-29,-82,-107,-102,-112
-112,-131,-19,122,-46,-75,0,-34,-87,-107,-102,-112
-117,-131,-14,124,-51,-73,-4,-39,-92,-107,-102,-107
-107,-122,-14,114,-46,-68,4,-39,-87,-117,-102,-97
-107,-122,-14,114,-46,-68,4,-39,-87,-117,-102,-97
-107,-126,-19,117,-43,-73,4,-39,-87,-117,-102,-97
-107,-126,-19,117,-43,-73,4,-43,-82,-117,-102,-97
-107,-131,-24,119,-41,-78,4,-34,-82,-117,-102,-107
-107,-131,-24,119,-41,-78,4,-34,-82,-117,-107,-107
-107,-131,-24,119,-41,-78,4,-34,-82,-117,-107,-112
-107,-136,-29,122,-39,-82,4,-34,-87,-117,-107,-112
-97,-141,-43,119,-26,-92,4,-29,-78,-112,-107,-112
-102,-146,-43,124,-29,-95,4,-29,-78,-112,-102,-107
-102,-151,-48,126,-26,-100,4,-29,-78,-112,-102,-107
-102,-156,-53,129,-24,-104,4,-34,-78,-112,-107,-107
-107,-156,-48,131,-29,-102,4,-34,-82,-112,-97,-107
-107,-151,-43,129,-31,-97,4,-34,-82,-112,-97,-107
-112,-141,-29,126,-41,-85,4,-34,-82,-112,-97,-107
-117,-136,-19,126,-48,-78,4,-34,-87,-112,-97,-112
-117,-146,-29,131,-43,-87,14,-19,-78,-112,-97,-102
-122,-146,-24,134,-48,-85,14,-19,-78,-117,-97,-97
-122,-146,-24,134,-48,-85,9,-29,-78,-117,-97,-97
-122,-141,-19,131,-51,-80,9,-29,-73,-112,-97,-97
-117,-141,-24,129,-46,-82,4,-39,-73,-102,-97,-97
-112,-141,-29,126,-41,-85,0,-39,-73,-102,-97,-97
-107,-141,-34,124,-36,-87,-4,-39,-73,-102,-97,-97
-102,-141,-39,122,-31,-90,-4,-34,-73,-102,-97,-97
-112,-136,-24,124,-43,-80,4,-34,-73,-112,-97,-97
-112,-131,-19,122,-46,-75,4,-34,-73,-112,-97,-97
-112,-126,-14,119,-48,-70,4,-34,-73,-112,-97,-97
-112,-122,-9,117,-51,-65,4,-34,-73,-112,-97,-97
-112,-126,-14,119,-48,-70,-4,-34,-63,-102,-87,-97
-112,-126,-14,119,-48,-70,-9,-39,-63,-97,-87,-97
-112,-131,-19,122,-46,-75,-9,-39,-63,-92,-87,-97
-117,-136,-19,126,-48,-78,-4,-39,-63,-82,-87,-102
-107,-146,-39,126,-34,-92,-4,-29,-73,-97,-97,-102
-107,-146,-39,126,-34,-92,-9,-29,-73,-102,-97,-102
-112,-151,-39,131,-36,-95,-9,-29,-73,-107,-97,-102
-112,-151,-39,131,-36,-95,-9,-34,-68,-107,-97,-97
-112,-146,-34,129,-39,-90,0,-34,-63,-107,-97,-87
-112,-141,-29,126,-41,-85,-4,-34,-63,-107,-97,-87
-112,-136,-24,124,-43,-80,-4,-34,-63,-97,-92,-87
-112,-131,-19,122,-46,-75,-4,-34,-63,-97,-92,-87
-102,-131,-29,117,-36,-80,-4,-24,-63,-97,-92,-92
-102,-136,-34,119,-34,-85,0,-24,-63,-97,-92,-92
-107,-136,-29,122,-39,-82,0,-24,-63,-97,-92,-92
-112,-141,-29,126,-41,-85,0,-24,-63,-97,-87,-92
-122,-131,-9,126,-56,-70,0,-29,-58,-82,-82,-102
-126,-131,-4,129,-61,-68,-4,-34,-58,-82,-82,-102
-126,-131,-4,129,-61,-68,-4,-39,-58,-87,-87,-102
-122,-126,-4,124,-58,-65,-4,-43,-58,-87,-87,-102
-112,-117,-4,114,-53,-61,-4,-34,-58,-87,-82,-92
-112,-117,-4,114,-53,-61,-4,-34,-58,-82,-82,-92
-112,-117,-4,114,-53,-61,-4,-34,-53,-82,-82,-92
-112,-107,4,109,-58,-51,-4,-34,-53,-82,-82,-92
-112,-122,-9,117,-51,-65,4,-24,-48,-87,-92,-92
-117,-131,-14,124,-51,-73,0,-24,-48,-92,-92,-92
-117,-136,-19,126,-48,-78,0,-24,-43,-92,-92,-92
-117,-141,-24,129,-46,-82,0,-24,-43,-97,-92,-87
-112,-126,-14,119,-48,-70,0,-24,-48,-97,-92,-97
-112,-131,-19,122,-46,-75,0,-24,-48,-102,-92,-97
-112,-126,-14,119,-48,-70,-4,-24,-48,-102,-92,-97
-112,-126,-14,119,-48,-70,-4,-24,-48,-97,-87,-92
-102,-117,-14,109,-43,-65,-4,-24,-48,-97,-82,-92
-102,-117,-14,109,-43,-65,0,-24,-43,-87,-82,-92
-112,-122,-9,117,-51,-65,0,-24,-43,-82,-82,-92
-112,-122,-9,117,-51,-65,-4,-24,-43,-78,-78,-92
-117,-122,-4,119,-56,-63,-4,-24,-43,-73,-73,-87
-117,-122,-4,119,-56,-63,-4,-24,-43,-68,-68,-82
-117,-126,-9,122,-53,-68,-4,-24,-43,-68,-63,-78
-117,-126,-9,122,-53,-68,-9,-24,-43,-68,-63,-73
-117,-117,0,117,-58,-58,-9,-29,-53,-73,-73,-78
-117,-117,0,117,-58,-58,-4,-34,-53,-73,-73,-78
-117,-117,0,117,-58,-58,-4,-39,-53,-78,-73,-78
-122,-122,0,122,-61,-61,-9,-43,-58,-87,-73,-78
-122,-131,-9,126,-56,-70,-9,-34,-58,-97,-78,-87
-117,-131,-14,124,-51,-73,-4,-34,-53,-97,-82,-87
-117,-131,-14,124,-51,-73,-4,-34,-53,-97,-82,-87
-117,-131,-14,124,-51,-73,-4,-34,-53,-97,-87,-87
-117,-136,-19,126,-48,-78,-4,-34,-53,-92,-87,-97
-117,-141,-24,129,-46,-82,-4,-34,-58,-92,-87,-97
-117,-146,-29,131,-43,-87,-4,-34,-58,-87,-87,-97
-126,-151,-24,139,-51,-87,-4,-34,-58,-82,-87,-97
-136,-141,-4,139,-65,-73,-4,-34,-58,-82,-87,-97
-136,-141,-4,139,-65,-73,-4,-34,-58,-82,-87,-97
-136,-146,-9,141,-63,-78,-4,-29,-58,-82,-87,-97
-136,-146,-9,141,-63,-78,-4,-24,-58,-87,-87,-97
-131,-151,-19,141,-56,-85,-14,-34,-58,-92,-82,-87
-126,-151,-24,139,-51,-87,-14,-34,-58,-92,-82,-92
-122,-146,-24,134,-48,-85,-14,-34,-58,-97,-87,-92
-122,-141,-19,131,-51,-80,-14,-34,-58,-97,-87,-97
-131,-151,-19,141,-56,-85,-14,-34,-58,-102,-97,-97
-136,-156,-19,146,-58,-87,-14,-34,-58,-97,-92,-92
-136,-156,-19,146,-58,-87,-14,-39,-63,-97,-87,-92
-131,-161,-29,146,-51,-95,-14,-39,-68,-102,-87,-92
-141,-175,-34,158,-53,-104,-14,-39,-68,-102,-97,-97
-141,-175,-34,158,-53,-104,-14,-39,-68,-107,-97,-102
-141,-170,-29,156,-56,-100,-14,-39,-68,-107,-107,-107
-141,-170,-29,156,-56,-100,-14,-39,-68,-102,-107,-117
-151,-161,-9,156,-70,-85,-24,-53,-68,-102,-102,-117
-146,-161,-14,153,-65,-87,-24,-53,-73,-102,-97,-112
-146,-161,-14,153,-65,-87,-24,-58,-73,-102,-92,-112
-146,-161,-14,153,-65,-87,-24,-58,-73,-102,-87,-107
-156,-170,-14,163,-70,-92,-24,-53,-68,-107,-97,-107
-161,-180,-19,170,-70,-100,-24,-48,-68,-107,-102,-112
-161,-180,-19,170,-70,-100,-24,-43,-63,-112,-102,-112
-156,-170,-14,163,-70,-92,-24,-39,-63,-112,-102,-112
-156,-185,-29,170,-63,-107,-24,-48,-73,-117,-112,-112
-156,-190,-34,173,-61,-112,-24,-48,-73,-117,-112,-112
-156,-190,-34,173,-61,-112,-24,-48,-82,-122,-107,-112
-156,-195,-39,175,-58,-117,-24,-48,-82,-122,-107,-112
-156,-200,-43,178,-56,-122,-24,-48,-78,-117,-107,-112
-161,-200,-39,180,-61,-119,-24,-48,-78,-112,-102,-112
-165,-200,-34,183,-65,-117,-24,-48,-78,-107,-102,-112
-170,-200,-29,185,-70,-114,-24,-48,-78,-102,-102,-112
-170,-195,-24,183,-73,-109,-24,-58,-78,-102,-92,-122
-170,-195,-24,183,-73,-109,-24,-58,-78,-102,-92,-122
-170,-190,-19,180,-75,-104,-24,-58,-78,-97,-97,-122
-170,-190,-19,180,-75,-104,-24,-58,-78,-97,-97,-122
-180,-204,-24,192,-78,-114,-34,-58,-78,-107,-107,-112
-180,-204,-24,192,-78,-114,-34,-58,-78,-112,-107,-112
-180,-204,-24,192,-78,-114,-34,-58,-78,-112,-107,-112
-180,-204,-24,192,-78,-114,-34,-58,-78,-117,-107,-112
-190,-219,-29,204,-80,-124,-24,-63,-78,-117,-107,-126
-195,-219,-24,207,-85,-122,-24,-63,-78,-117,-107,-126
-195,-219,-24,207,-85,-122,-24,-58,-78,-107,-107,-126
-195,-214,-19,204,-87,-117,-24,-58,-78,-107,-112,-126
-185,-204,-19,195,-82,-112,-34,-68,-92,-122,-122,-136
-185,-204,-19,195,-82,-112,-34,-73,-92,-126,-117,-136
-185,-204,-19,195,-82,-112,-39,-73,-92,-126,-117,-131
-185,-204,-19,195,-82,-112,-39,-73,-92,-122,-117,-131
-185,-209,-24,197,-80,-117,-34,-68,-78,-112,-107,-126
-185,-209,-24,197,-80,-117,-29,-63,-78,-112,-107,-122
-185,-214,-29,200,-78,-122,-24,-58,-78,-112,-107,-117
-185,-219,-34,202,-75,-126,-19,-53,-78,-112,-107,-112
-195,-224,-29,209,-82,-126,-19,-63,-78,-122,-112,-117
-195,-229,-34,212,-80,-131,-24,-63,-78,-122,-112,-117
-200,-234,-34,217,-82,-134,-29,-63,-78,-122,-112,-117
-200,-244,-43,222,-78,-143,-34,-63,-78,-122,-107,-117
-190,-239,-48,214,-70,-143,-24,-53,-78,-112,-117,-122
-190,-224,-34,207,-78,-129,-24,-53,-78,-112,-117,-126
-190,-219,-29,204,-80,-124,-24,-58,-82,-117,-117,-136
-190,-209,-19,200,-85,-114,-24,-58,-82,-117,-117,-141
-200,-219,-19,209,-90,-119,-34,-68,-82,-117,-107,-136
-200,-224,-24,212,-87,-124,-34,-68,-82,-117,-107,-131
-200,-224,-24,212,-87,-124,-34,-63,-82,-117,-107,-126
-200,-229,-29,214,-85,-129,-34,-63,-82,-122,-107,-122
-209,-244,-34,226,-87,-139,-34,-63,-82,-131,-112,-126
-219,-253,-34,236,-92,-143,-34,-63,-82,-131,-117,-131
-219,-253,-34,236,-92,-143,-34,-63,-82,-126,-122,-136
-214,-253,-39,234,-87,-146,-34,-63,-82,-126,-126,-136
-200,-244,-43,222,-78,-143,-39,-63,-92,-126,-117,-126
-195,-234,-39,214,-78,-136,-39,-63,-92,-126,-117,-126
-190,-224,-34,207,-78,-129,-39,-63,-97,-122,-117,-126
-185,-214,-29,200,-78,-122,-39,-63,-97,-122,-117,-131
-190,-234,-43,212,-73,-139,-29,-63,-87,-112,-112,-122
-195,-239,-43,217,-75,-141,-29,-63,-87,-117,-112,-122
-204,-244,-39,224,-82,-141,-29,-68,-87,-122,-112,-122
-209,-248,-39,229,-85,-143,-29,-68,-87,-126,-112,-122
-200,-239,-39,219,-80,-139,-29,-68,-92,-136,-122,-131
-200,-239,-39,219,-80,-139,-29,-63,-92,-131,-122,-131
-200,-239,-39,219,-80,-139,-29,-63,-92,-131,-122,-136
-204,-244,-39,224,-82,-141,-29,-63,-92,-131,-126,-136
-214,-229,-14,222,-100,-122,-39,-63,-78,-112,-107,-122
-204,-214,-9,209,-97,-112,-29,-68,-87,-117,-117,-126
-214,-229,-14,222,-100,-122,-39,-68,-87,-126,-117,-136
-214,-234,-19,224,-97,-126,-39,-68,-87,-126,-117,-136
-214,-239,-24,226,-95,-131,-39,-68,-87,-126,-117,-136
-214,-244,-29,229,-92,-136,-39,-68,-87,-126,-117,-136
-214,-253,-39,234,-87,-146,-29,-68,-87,-126,-117,-136
-214,-253,-39,234,-87,-146,-29,-68,-87,-126,-117,-136
-214,-253,-39,234,-87,-146,-29,-68,-87,-126,-117,-136
-214,-253,-39,234,-87,-146,-29,-68,-87,-126,-117,-136
-224,-244,-19,234,-102,-131,-19,-68,-78,-117,-107,-136
-224,-244,-19,234,-102,-131,-19,-68,-78,-117,-107,-136
-224,-244,-19,234,-102,-131,-19,-68,-78,-117,-107,-136
-224,-244,-19,234,-102,-131,-19,-68,-78,-117,-107,-136
-214,-239,-24,226,-95,-131,-29,-68,-78,-117,-107,-126
-214,-234,-19,224,-97,-126,-29,-68,-78,-117,-107,-126
-214,-229,-14,222,-100,-122,-29,-68,-78,-117,-107,-126
-214,-224,-9,219,-102,-117,-29,-68,-78,-117,-107,-126
-214,-224,-9,219,-102,-117,-24,-63,-68,-107,-107,-122
-214,-224,-9,219,-102,-117,-19,-58,-68,-107,-107,-117
-214,-224,-9,219,-102,-117,-14,-53,-68,-107,-107,-112
-214,-214,0,214,-107,-107,-9,-48,-68,-107,-107,-107
-204,-204,0,204,-102,-102,-9,-58,-68,-107,-97,-107
-204,-209,-4,207,-100,-107,-4,-53,-63,-102,-92,-107
-204,-209,-4,207,-100,-107,0,-48,-63,-92,-92,-107
-204,-209,-4,207,-100,-107,0,-48,-63,-92,-87,-107
-214,-185,29,200,-122,-78,-4,-39,-63,-102,-87,-117
-209,-180,29,195,-119,-75,-9,-39,-63,-107,-92,-117
-209,-180,29,195,-119,-75,-9,-39,-63,-107,-92,-117
-204,-180,24,192,-114,-78,-9,-34,-58,-107,-92,-112
-200,-190,9,195,-104,-90,-14,-43,-53,-92,-87,-112
-200,-190,9,195,-104,-90,-19,-43,-53,-92,-82,-102
-204,-195,9,200,-107,-92,-19,-48,-53,-92,-82,-102
-204,-195,9,200,-107,-92,-29,-53,-58,-87,-82,-107
-195,-185,9,190,-102,-87,-34,-58,-68,-87,-82,-107
-195,-185,9,190,-102,-87,-43,-68,-68,-92,-82,-107
-195,-185,9,190,-102,-87,-58,-78,-82,-92,-82,-102
-195,-185,9,190,-102,-87,-68,-87,-87,-97,-82,-102
-190,-185,4,187,-97,-90,-68,-97,-78,-87,-73,-97
-190,-185,4,187,-97,-90,-73,-97,-78,-87,-73,-97
-190,-185,4,187,-97,-90,-73,-102,-78,-82,-73,-97
-190,-190,0,190,-95,-95,-73,-102,-82,-82,-73,-97
-204,-190,14,197,-109,-87,-73,-97,-92,-87,-82,-107
-204,-190,14,197,-109,-87,-73,-97,-92,-97,-87,-107
-204,-190,14,197,-109,-87,-78,-102,-97,-112,-92,-107
-204,-190,14,197,-109,-87,-82,-102,-97,-117,-92,-107
-190,-180,9,185,-100,-85,-92,-102,-82,-112,-92,-97
-190,-185,4,187,-97,-90,-92,-102,-82,-107,-92,-97
-185,-185,0,185,-92,-92,-92,-97,-82,-97,-92,-97
-180,-185,-4,183,-87,-95,-92,-97,-92,-92,-92,-97
-185,-195,-9,190,-87,-102,-82,-97,-92,-112,-97,-107
-175,-195,-19,185,-78,-107,-82,-97,-92,-112,-97,-107
-175,-200,-24,187,-75,-112,-82,-97,-97,-112,-97,-107
-180,-200,-19,190,-80,-109,-87,-102,-97,-112,-92,-107
-175,-209,-34,192,-70,-122,-87,-107,-107,-112,-92,-97
-175,-219,-43,197,-65,-131,-82,-107,-112,-112,-97,-97
-175,-219,-43,197,-65,-131,-78,-102,-112,-112,-97,-97
-175,-219,-43,197,-65,-131,-78,-102,-107,-112,-97,-97
-165,-224,-58,195,-53,-141,-78,-97,-97,-102,-92,-102
-165,-229,-63,197,-51,-146,-78,-97,-92,-102,-92,-102
-161,-229,-68,195,-46,-148,-68,-87,-92,-102,-92,-102
-161,-229,-68,195,-46,-148,-68,-87,-92,-112,-97,-102
-175,-239,-63,207,-56,-151,-63,-97,-92,-117,-102,-117
-185,-239,-53,212,-65,-146,-53,-92,-92,-117,-107,-122
-195,-248,-53,222,-70,-151,-48,-87,-87,-122,-112,-122
-195,-248,-53,222,-70,-151,-43,-87,-87,-131,-117,-122
-200,-258,-58,229,-70,-158,-34,-78,-82,-122,-112,-117
-200,-258,-58,229,-70,-158,-34,-73,-82,-126,-112,-117
-200,-258,-58,229,-70,-158,-24,-68,-87,-126,-112,-122
-204,-268,-63,236,-70,-165,-24,-63,-87,-126,-122,-122
-214,-273,-58,244,-78,-165,-24,-73,-87,-126,-122,-141
-214,-278,-63,246,-75,-170,-19,-73,-92,-126,-126,-146
-214,-278,-63,246,-75,-170,-19,-78,-92,-126,-126,-146
-214,-278,-63,246,-75,-170,-14,-78,-87,-122,-126,-146
-219,-273,-53,246,-82,-163,-19,-78,-87,-112,-112,-136
-224,-273,-48,248,-87,-161,-29,-78,-87,-112,-112,-136
-224,-268,-43,246,-90,-156,-34,-68,-87,-112,-112,-136
-219,-258,-39,239,-90,-148,-39,-68,-87,-112,-112,-131
-209,-268,-58,239,-75,-163,-29,-68,-97,-122,-126,-136
-209,-278,-68,244,-70,-173,-29,-68,-97,-136,-136,-146
-214,-278,-63,246,-75,-170,-29,-68,-97,-146,-141,-151
-214,-278,-63,246,-75,-170,-29,-68,-97,-156,-146,-156
-224,-283,-58,253,-82,-170,-29,-68,-87,-151,-141,-151
-224,-283,-58,253,-82,-170,-29,-68,-87,-146,-136,-146
-224,-283,-58,253,-82,-170,-24,-68,-87,-136,-131,-141
-219,-283,-63,251,-78,-173,-24,-63,-87,-131,-122,-136
-214,-273,-58,244,-78,-165,-29,-63,-87,-122,-112,-136
-214,-278,-63,246,-75,-170,-29,-63,-87,-122,-112,-136
-219,-278,-58,248,-80,-168,-29,-63,-87,-122,-112,-131
-219,-278,-58,248,-80,-168,-29,-63,-87,-122,-112,-131
-219,-278,-58,248,-80,-168,-29,-63,-87,-131,-117,-141
-219,-283,-63,251,-78,-173,-29,-63,-87,-131,-126,-141
-219,-287,-68,253,-75,-178,-29,-63,-87,-131,-131,-141
-219,-292,-73,256,-73,-183,-29,-63,-87,-131,-131,-141
-229,-283,-53,256,-87,-168,-29,-68,-97,-136,-131,-151
-229,-283,-53,256,-87,-168,-29,-68,-92,-136,-131,-151
-229,-283,-53,256,-87,-168,-29,-73,-92,-136,-131,-151
-229,-283,-53,256,-87,-168,-29,-73,-92,-136,-131,-151
-229,-292,-63,261,-82,-178,-39,-63,-92,-126,-131,-141
-229,-292,-63,261,-82,-178,-39,-63,-92,-131,-131,-141
-229,-292,-63,261,-82,-178,-39,-63,-92,-131,-131,-141
-229,-292,-63,261,-82,-178,-39,-58,-92,-131,-136,-141
-229,-302,-73,265,-78,-187,-29,-48,-73,-131,-136,-156
-234,-312,-78,273,-78,-195,-19,-29,-48,-131,-136,-161
-229,-292,-63,261,-82,-178,4,-4,-34,-122,-126,-151
-229,-268,-39,248,-95,-153,29,9,-9,-87,-102,-131
-239,-258,-19,248,-109,-139,19,14,14,-58,-82,-131
-278,-273,4,275,-141,-134,0,4,4,-58,-92,-141
-273,-283,-9,278,-131,-146,-9,9,29,-29,-58,-131
-200,-234,-34,217,-82,-134,-4,48,102,63,14,-78
-156,-190,-34,173,-61,-112,-14,97,200,151,92,-24
-156,-161,-4,158,-75,-82,-14,141,278,219,156,24
-117,-117,0,117,-58,-58,-24,170,336,292,219,107
-78,-58,19,68,-48,-19,-43,170,380,385,331,204
-43,24,68,9,-56,46,-78,136,419,507,453,336
14,141,126,-78,-56,134,-136,48,390,614,570,453
58,224,165,-141,-53,195,-209,-53,346,717,692,566
92,292,200,-192,-53,246,-268,-126,346,839,824,678
131,370,239,-251,-53,305,-292,-161,361,927,922,771
161,395,234,-278,-36,314,-331,-229,331,946,961,824
170,424,253,-297,-41,339,-385,-307,268,897,932,839
161,434,273,-297,-56,353,-409,-366,175,800,849,805
151,361,209,-256,-29,285,-385,-375,117,653,707,722
136,253,117,-195,9,185,-341,-351,39,483,551,614
73,180,107,-126,-17,143,-346,-385,-102,331,419,512
9,131,122,-70,-56,126,-351,-463,-292,151,273,390
-39,48,87,-4,-63,68,-341,-551,-517,-73,87,253
-146,-68,78,107,-112,4,-356,-644,-741,-317,-112,78
-229,-161,68,195,-148,-46,-395,-697,-839,-458,-234,-34
-234,-180,53,207,-143,-63,-380,-668,-810,-483,-258,-68
-224,-204,19,214,-122,-92,-361,-634,-756,-473,-263,-87
-234,-253,-19,244,-107,-136,-351,-570,-688,-448,-273,-117
-224,-268,-43,246,-90,-156,-326,-483,-590,-414,-263,-126
-204,-258,-53,231,-75,-156,-297,-405,-492,-375,-248,-117
-195,-244,-48,219,-73,-146,-244,-326,-395,-331,-219,-112
-190,-209,-19,200,-85,-114,-185,-244,-302,-258,-190,-102
-190,-200,-9,195,-90,-104,-151,-204,-234,-209,-156,-102
-204,-204,0,204,-102,-102,-126,-175,-195,-180,-131,-92
-204,-204,0,204,-102,-102,-117,-165,-170,-151,-107,-92
-209,-204,4,207,-107,-100,-107,-156,-141,-112,-82,-82
-200,-195,4,197,-102,-95,-87,-131,-122,-92,-73,-73
-195,-200,-4,197,-95,-102,-73,-97,-97,-82,-63,-63
-200,-204,-4,202,-97,-104,-68,-63,-68,-87,-73,-68
-229,-234,-4,231,-112,-119,-63,-58,-68,-97,-87,-92
-244,-263,-19,253,-112,-141,-68,-78,-73,-97,-92,-102
-239,-263,-24,251,-107,-143,-58,-87,-73,-97,-92,-97
-229,-263,-34,246,-97,-148,-58,-87,-78,-97,-92,-97
-224,-258,-34,241,-95,-146,-63,-87,-82,-97,-92,-102
-219,-248,-29,234,-95,-139,-63,-87,-92,-97,-92,-102
-219,-239,-19,229,-100,-129,-48,-73,-87,-107,-87,-102
-219,-239,-19,229,-100,-129,-48,-58,-78,-107,-92,-102
-219,-239,-19,229,-100,-129,-39,-43,-68,-102,-92,-107
-214,-239,-24,226,-95,-131,-34,-34,-58,-102,-97,-112
-204,-244,-39,224,-82,-141,-43,-39,-63,-112,-107,-117
-204,-244,-39,224,-82,-141,-48,-48,-63,-107,-102,-117
-204,-253,-48,229,-78,-151,-48,-63,-63,-107,-97,-112
-209,-263,-53,236,-78,-158,-48,-68,-63,-102,-97,-112
-214,-263,-48,239,-82,-156,-43,-58,-63,-87,-92,-112
-219,-258,-39,239,-90,-148,-43,-53,-58,-82,-92,-112
-224,-258,-34,241,-95,-146,-39,-43,-48,-82,-87,-112
-229,-268,-39,248,-95,-153,-34,-39,-39,-82,-87,-112
-229,-258,-29,244,-100,-143,-34,-43,-43,-97,-92,-112
-229,-258,-29,244,-100,-143,-34,-48,-43,-97,-92,-117
-224,-258,-34,241,-95,-146,-39,-53,-48,-102,-92,-117
-224,-258,-34,241,-95,-146,-39,-68,-58,-107,-97,-112
-224,-248,-24,236,-100,-136,-48,-58,-53,-97,-97,-112
-224,-248,-24,236,-100,-136,-48,-58,-53,-97,-97,-117
-224,-248,-24,236,-100,-136,-48,-58,-48,-97,-97,-117
-224,-248,-24,236,-100,-136,-48,-48,-48,-97,-97,-117
-224,-258,-34,241,-95,-146,-39,-39,-39,-92,-97,-107
-234,-268,-34,251,-100,-151,-39,-39,-34,-87,-92,-107
-224,-258,-34,241,-95,-146,-39,-43,-34,-78,-87,-102
-224,-258,-34,241,-95,-146,-39,-43,-34,-73,-82,-102
-219,-248,-29,234,-95,-139,-48,-53,-43,-92,-87,-112
-219,-248,-29,234,-95,-139,-48,-53,-48,-97,-87,-112
-219,-253,-34,236,-92,-143,-48,-53,-48,-102,-92,-117
-219,-253,-34,236,-92,-143,-48,-53,-48,-102,-97,-117
-219,-244,-24,231,-97,-134,-48,-53,-39,-92,-102,-117
-219,-248,-29,234,-95,-139,-48,-53,-39,-97,-102,-117
-219,-248,-29,234,-95,-139,-53,-53,-39,-97,-102,-117
-219,-248,-29,234,-95,-139,-53,-53,-39,-97,-102,-117
-214,-253,-39,234,-87,-146,-43,-53,-39,-87,-92,-107
-214,-253,-39,234,-87,-146,-43,-53,-39,-87,-92,-102
-214,-258,-43,236,-85,-151,-48,-53,-39,-82,-92,-102
-214,-263,-48,239,-82,-156,-48,-53,-39,-82,-92,-102
-224,-244,-19,234,-102,-131,-43,-53,-43,-78,-87,-92
-224,-244,-19,234,-102,-131,-43,-53,-34,-78,-78,-92
-224,-244,-19,234,-102,-131,-43,-53,-29,-68,-73,-92
-224,-244,-19,234,-102,-131,-48,-53,-29,-68,-68,-92
-224,-234,-9,229,-107,-122,-63,-58,-24,-82,-78,-92
-224,-234,-9,229,-107,-122,-63,-58,-24,-82,-78,-92
-224,-234,-9,229,-107,-122,-63,-58,-24,-78,-78,-92
-219,-229,-9,224,-104,-119,-63,-58,-24,-73,-73,-87
-214,-219,-4,217,-104,-112,-58,-43,-24,-73,-73,-87
-209,-219,-9,214,-100,-114,-58,-43,-19,-73,-63,-82
-204,-219,-14,212,-95,-117,-58,-43,-14,-68,-63,-82
-200,-209,-9,204,-95,-109,-58,-43,-14,-63,-63,-82
-209,-214,-4,212,-102,-109,-48,-43,-14,-63,-73,-87
-204,-214,-9,209,-97,-112,-53,-43,-14,-63,-68,-82
-204,-209,-4,207,-100,-107,-53,-43,-14,-63,-68,-82
-200,-214,-14,207,-92,-114,-53,-43,-14,-63,-68,-82
-195,-224,-29,209,-82,-126,-53,-43,-14,-68,-68,-73
-195,-224,-29,209,-82,-126,-53,-43,-14,-68,-68,-68
-190,-224,-34,207,-78,-129,-53,-39,-4,-68,-63,-68
-190,-219,-29,204,-80,-124,-53,-39,-4,-63,-58,-58
-195,-219,-24,207,-85,-122,-63,-43,-14,-43,-48,-68
-195,-214,-19,204,-87,-117,-68,-43,-14,-39,-39,-68
-195,-214,-19,204,-87,-117,-68,-43,-14,-39,-39,-68
-195,-204,-9,200,-92,-107,-68,-43,-4,-39,-39,-63
-195,-200,-4,197,-95,-102,-58,-39,-4,-48,-39,-63
-195,-195,0,195,-97,-97,-53,-39,-4,-43,-34,-58
-190,-190,0,190,-95,-95,-53,-39,-4,-43,-34,-53
-185,-185,0,185,-92,-92,-53,-34,0,-39,-29,-48
-170,-175,-4,173,-82,-90,-53,-34,0,-34,-39,-48
-170,-175,-4,173,-82,-90,-63,-39,4,-29,-29,-48
-165,-165,0,165,-82,-82,-63,-39,9,-29,-29,-48
-165,-165,0,165,-82,-82,-68,-39,9,-29,-24,-43
-165,-156,9,161,-87,-73,-68,-39,19,-9,-4,-29
-161,-146,14,153,-87,-65,-63,-29,24,4,4,-24
-156,-131,24,143,-90,-53,-63,-29,29,14,14,-24
-156,-122,34,139,-95,-43,-63,-29,29,19,19,-24
-156,-126,29,141,-92,-48,-73,-29,29,9,14,-24
-151,-131,19,141,-85,-56,-73,-29,34,9,14,-19
-146,-136,9,141,-78,-63,-73,-29,39,19,14,-14
-141,-136,4,139,-73,-65,-78,-24,43,24,14,-9
-151,-146,4,148,-78,-70,-78,-19,48,19,9,-4
-146,-136,9,141,-78,-63,-78,-19,53,19,14,-4
-146,-136,9,141,-78,-63,-78,-19,58,24,14,0
-146,-131,14,139,-80,-58,-78,-19,58,19,19,4
-146,-122,24,134,-85,-48,-78,-9,58,34,34,14
-146,-117,29,131,-87,-43,-78,-4,68,39,39,19
-136,-117,19,126,-78,-48,-82,-4,73,53,48,24
-131,-92,39,112,-85,-26,-82,-4,78,63,53,34
-126,-87,39,107,-82,-24,-97,-14,82,73,68,43
-122,-82,39,102,-80,-21,-97,-14,87,78,73,53
-107,-73,34,90,-70,-19,-97,-9,87,92,78,58
-102,-68,34,85,-68,-17,-97,-9,92,97,87,68
-102,-68,34,85,-68,-17,-97,0,97,97,82,63
-92,-53,39,73,-65,-7,-102,0,102,102,82,68
-87,-53,34,70,-61,-9,-107,0,107,102,87,68
-87,-43,43,65,-65,0,-107,0,112,97,97,73
-78,-48,29,63,-53,-9,-102,0,117,107,102,78
-78,-39,39,58,-58,0,-102,4,122,112,107,87
-73,-24,48,48,-61,12,-107,4,126,112,107,87
-73,-24,48,48,-61,12,-112,4,131,122,117,92
-63,-14,48,39,-56,17,-126,4,146,141,131,112
-63,-9,53,36,-58,21,-126,4,146,146,136,117
-63,4,68,29,-65,36,-126,4,151,146,136,122
-58,4,63,26,-61,34,-126,4,156,151,141,126
-48,0,48,24,-48,24,-122,9,161,141,136,117
-53,0,53,26,-53,26,-122,9,161,146,141,126
-53,0,53,26,-53,26,-117,9,161,146,146,126
-53,0,53,26,-53,26,-112,14,161,151,146,126
-43,0,43,21,-43,21,-122,4,180,156,161,141
-39,4,43,17,-41,24,-122,9,180,161,165,146
-39,4,43,17,-41,24,-126,9,180,165,170,151
-39,4,43,17,-41,24,-131,9,180,165,170,156
-29,14,43,7,-36,29,-122,14,180,165,161,151
-29,24,53,2,-41,39,-122,14,180,165,165,146
-29,24,53,2,-41,39,-122,14,180,165,165,141
-29,29,58,0,-43,43,-122,9,175,165,165,141
-29,29,58,0,-43,43,-136,9,175,165,175,151
-29,29,58,0,-43,43,-136,0,175,165,175,151
-29,29,58,0,-43,43,-136,0,175,161,175,146
-29,29,58,0,-43,43,-136,0,170,161,175,146
-19,39,58,-9,-39,48,-126,4,156,151,156,136
-14,34,48,-9,-31,41,-126,4,156,146,151,136
-14,29,43,-7,-29,36,-126,-4,146,131,146,131
-14,29,43,-7,-29,36,-126,-4,141,117,126,126
-24,39,63,-7,-43,51,-126,-9,141,117,136,131
-29,24,53,2,-41,39,-122,-9,136,117,126,122
-34,24,58,4,-46,41,-122,-9,131,117,122,122
-34,19,53,7,-43,36,-112,-9,126,122,117,117
-34,14,48,9,-41,31,-97,-9,107,122,117,117
-43,14,58,14,-51,36,-97,-14,97,107,107,102
-43,9,53,17,-48,31,-92,-14,92,97,107,92
-48,-4,43,26,-46,19,-82,-14,82,87,97,82
-53,-19,34,36,-43,7,-87,-19,82,78,92,78
-58,-24,34,41,-46,4,-82,-19,78,73,82,68
-63,-29,34,46,-48,2,-78,-14,68,63,68,58
-68,-34,34,51,-51,0,-73,-14,58,48,58,48
-82,-53,29,68,-56,-12,-63,-19,43,29,43,29
-82,-53,29,68,-56,-12,-63,-19,39,24,34,14
-92,-58,34,75,-63,-12,-58,-19,34,9,24,0
-97,-68,29,82,-63,-19,-53,-19,29,4,14,-14
-92,-58,34,75,-63,-12,-48,-19,29,4,14,-9
-97,-73,24,85,-61,-24,-43,-19,24,-4,9,-14
-102,-82,19,92,-61,-31,-43,-19,9,-9,-4,-19
-97,-92,4,95,-51,-43,-34,-19,9,-19,-9,-19
-87,-97,-9,92,-39,-53,-34,-24,9,-9,-19,-24
-92,-97,-4,95,-43,-51,-39,-24,0,-24,-19,-34
-97,-112,-14,104,-41,-63,-39,-24,-9,-29,-34,-39
-97,-122,-24,109,-36,-73,-39,-24,-9,-39,-34,-39
-102,-112,-9,107,-46,-61,-24,-19,-4,-39,-29,-34
-102,-112,-9,107,-46,-61,-19,-19,-9,-53,-39,-48
-112,-126,-14,119,-48,-70,-19,-24,-14,-53,-48,-53
-112,-126,-14,119,-48,-70,-19,-24,-19,-58,-48,-58
-112,-136,-24,124,-43,-80,-19,-19,-9,-48,-53,-63
-112,-146,-34,129,-39,-90,-14,-19,-14,-53,-58,-63
-122,-146,-24,134,-48,-85,-14,-19,-19,-58,-63,-63
-122,-151,-29,136,-46,-90,-14,-19,-24,-63,-63,-68
-112,-146,-34,129,-39,-90,-14,-19,-39,-63,-68,-82
-112,-146,-34,129,-39,-90,-14,-19,-43,-68,-73,-87
-122,-146,-24,134,-48,-85,-14,-19,-48,-78,-73,-92
-122,-141,-19,131,-51,-80,-14,-19,-48,-78,-78,-92
-112,-141,-29,126,-41,-85,-14,-19,-48,-92,-73,-82
-117,-136,-19,126,-48,-78,-14,-19,-48,-92,-78,-78
-117,-131,-14,124,-51,-73,-14,-24,-48,-92,-82,-73
-112,-126,-14,119,-48,-70,-14,-24,-48,-97,-82,-68
-102,-136,-34,119,-34,-85,0,-24,-39,-87,-82,-73
-102,-141,-39,122,-31,-90,0,-24,-43,-87,-82,-78
-107,-156,-48,131,-29,-102,0,-24,-48,-87,-82,-87
-112,-161,-48,136,-31,-104,-4,-24,-53,-92,-87,-92
-112,-146,-34,129,-39,-90,-4,-24,-43,-92,-78,-82
-107,-141,-34,124,-36,-87,-4,-24,-43,-87,-78,-82
-107,-126,-19,117,-43,-73,-4,-24,-43,-82,-78,-82
-117,-136,-19,126,-48,-78,-4,-34,-43,-78,-82,-87
-117,-126,-9,122,-53,-68,-4,-34,-53,-87,-82,-87
-107,-126,-19,117,-43,-73,-4,-29,-53,-87,-82,-92
-117,-131,-14,124,-51,-73,-4,-29,-53,-87,-82,-92
-117,-131,-14,124,-51,-73,-4,-29,-53,-87,-82,-87
-112,-126,-14,119,-48,-70,4,-29,-58,-97,-92,-78
-107,-122,-14,114,-46,-68,4,-29,-58,-97,-92,-78
-102,-122,-19,112,-41,-70,4,-29,-58,-97,-92,-78
-97,-117,-19,107,-39,-68,4,-34,-53,-97,-92,-78
-97,-131,-34,114,-31,-82,4,-29,-43,-82,-87,-78
-97,-131,-34,114,-31,-82,4,-24,-43,-78,-87,-78
-97,-131,-34,114,-31,-82,4,-19,-43,-73,-82,-82
-97,-136,-39,117,-29,-87,4,-14,-48,-68,-78,-82
-92,-122,-29,107,-31,-75,4,-19,-48,-82,-78,-82
-92,-117,-24,104,-34,-70,4,-19,-48,-82,-73,-78
-87,-112,-24,100,-31,-68,4,-19,-48,-82,-73,-78
-82,-107,-24,95,-29,-65,4,-24,-48,-82,-78,-78
-73,-102,-29,87,-21,-65,4,-14,-43,-92,-87,-78
-68,-102,-34,85,-17,-68,4,-14,-43,-92,-87,-78
-68,-97,-29,82,-19,-63,4,-14,-43,-92,-87,-78
-68,-97,-29,82,-19,-63,4,-14,-48,-92,-87,-82
-68,-107,-39,87,-14,-73,14,-9,-48,-82,-78,-82
-73,-107,-34,90,-19,-70,14,-9,-48,-87,-78,-78
-73,-107,-34,90,-19,-70,9,-19,-48,-87,-78,-78
-73,-102,-29,87,-21,-65,9,-19,-43,-82,-78,-78
-63,-87,-24,75,-19,-56,9,-9,-43,-82,-78,-78
-63,-82,-19,73,-21,-51,9,-9,-43,-82,-78,-78
-63,-78,-14,70,-24,-46,9,-9,-43,-82,-78,-78
-63,-73,-9,68,-26,-41,14,-4,-43,-82,-78,-78
-53,-63,-9,58,-21,-36,24,-4,-43,-82,-68,-73
-53,-63,-9,58,-21,-36,24,-4,-43,-82,-68,-68
-53,-63,-9,58,-21,-36,24,-4,-43,-82,-68,-63
-53,-63,-9,58,-21,-36,24,-4,-43,-82,-68,-58
-48,-53,-4,51,-21,-29,24,4,-34,-82,-68,-58
-43,-48,-4,46,-19,-26,19,0,-34,-78,-68,-58
-39,-48,-9,43,-14,-29,19,0,-34,-73,-68,-58
-39,-48,-9,43,-14,-29,24,0,-34,-63,-68,-63
-34,-39,-4,36,-14,-21,14,0,-34,-63,-58,-63
-29,-39,-9,34,-9,-24,9,0,-34,-63,-58,-63
-29,-43,-14,36,-7,-29,9,0,-34,-63,-58,-63
-24,-43,-19,34,-2,-31,9,-4,-29,-58,-58,-58
-24,-34,-9,29,-7,-21,19,4,-24,-68,-68,-48
-24,-34,-9,29,-7,-21,14,4,-24,-68,-68,-48
-24,-34,-9,29,-7,-21,14,4,-24,-58,-63,-48
-24,-34,-9,29,-7,-21,14,4,-24,-58,-63,-48
-14,-24,-9,19,-2,-17,14,4,-14,-48,-53,-43
-14,-29,-14,21,0,-21,19,4,-14,-48,-53,-43
-19,-29,-9,24,-4,-19,19,4,-14,-48,-53,-43
-24,-34,-9,29,-7,-21,19,4,-14,-48,-48,-43
-24,-29,-4,26,-9,-17,19,4,-14,-48,-53,-53
-29,-24,4,26,-17,-9,14,4,-19,-53,-53,-53
-29,-19,9,24,-19,-4,14,4,-24,-63,-58,-53
-24,-9,14,17,-19,2,14,4,-29,-68,-58,-53
-19,-9,9,14,-14,0,14,14,-19,-63,-43,-43
-14,-9,4,12,-9,-2,14,14,-19,-53,-43,-43
-9,-9,0,9,-4,-4,14,14,-14,-48,-43,-43
-4,0,4,2,-4,2,14,14,-14,-43,-43,-43
4,0,-4,-2,4,-2,24,14,-9,-43,-34,-34
0,-4,-4,2,2,-4,19,14,-9,-43,-34,-34
0,-4,-4,2,2,-4,19,14,-4,-39,-34,-34
0,-4,-4,2,2,-4,19,14,-4,-39,-34,-29
-4,-4,0,4,-2,-2,19,4,0,-29,-24,-29
-4,-14,-9,9,2,-12,19,4,0,-34,-24,-29
-4,-14,-9,9,2,-12,14,4,0,-34,-24,-29
-4,-19,-14,12,4,-17,14,4,0,-29,-19,-24
0,-4,-4,2,2,-4,14,14,-9,-39,-24,-24
4,0,-4,-2,4,-2,19,14,-4,-29,-24,-24
0,0,0,0,0,0,19,14,-4,-24,-24,-24
4,4,0,-4,2,2,14,14,-4,-19,-19,-24
0,4,4,-2,-2,4,14,14,-4,-29,-29,-24
0,4,4,-2,-2,4,14,14,-4,-29,-29,-24
0,0,0,0,0,0,14,14,-4,-34,-29,-24
0,0,0,0,0,0,9,14,-4,-39,-34,-24
4,9,4,-7,0,7,19,24,4,-29,-24,-19
9,9,0,-9,4,4,24,24,4,-24,-24,-19
14,9,-4,-12,9,2,24,24,4,-24,-24,-19
14,4,-9,-9,12,-2,19,24,0,-29,-24,-19
9,4,-4,-7,7,0,9,14,0,-29,-34,-29
9,4,-4,-7,7,0,14,14,4,-29,-34,-29
4,4,0,-4,2,2,14,14,4,-29,-29,-29
0,4,4,-2,-2,4,14,14,4,-29,-29,-29
9,-4,-14,-2,12,-9,14,14,4,-19,-29,-29
9,-4,-14,-2,12,-9,14,14,0,-24,-29,-29
9,-4,-14,-2,12,-9,14,14,0,-24,-29,-29
0,-4,-4,2,2,-4,14,14,0,-24,-29,-29
4,0,-4,-2,4,-2,24,24,0,-24,-29,-19
9,4,-4,-7,7,0,24,24,0,-24,-29,-19
14,4,-9,-9,12,-2,24,29,0,-24,-29,-19
19,9,-9,-14,14,0,24,34,0,-29,-29,-19
19,4,-14,-12,17,-4,14,29,0,-34,-34,-29
19,4,-14,-12,17,-4,14,24,0,-34,-34,-34
19,9,-9,-14,14,0,14,19,0,-39,-39,-34
14,14,0,-14,7,7,14,14,0,-39,-39,-39
24,9,-14,-17,19,-2,24,24,0,-39,-39,-29
19,9,-9,-14,14,0,24,24,0,-29,-34,-24
19,14,-4,-17,12,4,24,19,-4,-24,-29,-24
24,14,-9,-19,17,2,24,19,-9,-24,-29,-24
24,9,-14,-17,19,-2,14,19,0,-19,-34,-24
24,9,-14,-17,19,-2,14,19,0,-29,-29,-24
24,14,-9,-19,17,2,14,19,0,-34,-34,-24
24,14,-9,-19,17,2,14,19,0,-34,-29,-29
34,19,-14,-26,24,2,24,19,0,-34,-39,-24
39,24,-14,-31,26,4,24,24,-4,-34,-39,-24
39,29,-9,-34,24,9,24,24,-4,-34,-39,-29
39,34,-4,-36,21,14,24,29,-4,-34,-39,-29
29,24,-4,-26,17,9,24,19,0,-29,-34,-19
24,14,-9,-19,17,2,24,19,0,-29,-34,-24
24,14,-9,-19,17,2,24,19,4,-34,-29,-24
29,24,-4,-26,17,9,24,19,4,-34,-24,-24
29,4,-24,-17,26,-9,24,29,4,-39,-39,-24
29,4,-24,-17,26,-9,24,29,4,-39,-43,-24
29,9,-19,-19,24,-4,24,29,-4,-43,-43,-24
29,9,-19,-19,24,-4,24,29,-4,-43,-48,-24
34,24,-9,-29,21,7,34,19,0,-34,-39,-24
34,24,-9,-29,21,7,34,19,0,-34,-34,-24
34,24,-9,-29,21,7,34,19,0,-34,-34,-24
34,24,-9,-29,21,7,34,19,0,-34,-34,-24
34,29,-4,-31,19,12,29,19,-9,-34,-34,-34
34,29,-4,-31,19,12,24,19,-9,-34,-34,-34
34,34,0,-34,17,17,19,19,-9,-29,-39,-34
34,34,0,-34,17,17,14,19,-9,-29,-39,-34
43,39,-4,-41,24,17,24,19,-9,-29,-39,-34
43,39,-4,-41,24,17,24,19,-9,-34,-39,-34
43,39,-4,-41,24,17,24,19,-9,-34,-39,-34
43,39,-4,-41,24,17,24,19,-9,-39,-39,-34
43,24,-19,-34,31,2,34,24,0,-48,-39,-39
39,24,-14,-31,26,4,34,24,0,-48,-39,-39
39,24,-14,-31,26,4,34,29,0,-39,-39,-39
39,29,-9,-34,24,9,34,29,0,-39,-43,-39
43,39,-4,-41,24,17,34,29,-4,-34,-43,-29
48,39,-9,-43,29,14,34,24,-4,-39,-39,-29
53,39,-14,-46,34,12,29,24,-4,-39,-39,-24
58,39,-19,-48,39,9,29,24,-4,-34,-39,-24
58,39,-19,-48,39,9,29,24,0,-43,-39,-29
58,43,-14,-51,36,14,29,24,0,-43,-39,-34
58,43,-14,-51,36,14,29,24,0,-43,-39,-39
58,43,-14,-51,36,14,29,24,0,-43,-39,-43
68,53,-14,-61,41,19,34,34,-9,-34,-34,-43
68,53,-14,-61,41,19,34,34,-9,-34,-34,-39
63,53,-9,-58,36,21,34,34,-9,-34,-34,-34
63,48,-14,-56,39,17,34,34,-9,-34,-29,-29
63,39,-24,-51,43,7,34,24,-9,-34,-29,-29
63,48,-14,-56,39,17,34,24,-9,-34,-29,-29
63,48,-14,-56,39,17,34,19,-14,-39,-29,-34
63,53,-9,-58,36,21,34,19,-14,-39,-29,-34
63,53,-9,-58,36,21,43,29,-14,-39,-39,-34
63,48,-14,-56,39,17,43,29,-14,-39,-39,-34
63,48,-14,-56,39,17,43,34,-14,-39,-39,-34
63,43,-19,-53,41,12,43,34,-14,-43,-39,-34
73,43,-29,-58,51,7,43,34,-4,-43,-39,-34
63,39,-24,-51,43,7,43,34,-4,-43,-39,-34
63,43,-19,-53,41,12,43,34,-4,-39,-39,-34
68,48,-19,-58,43,14,43,34,-4,-39,-39,-29
68,58,-9,-63,39,24,39,24,-14,-39,-39,-29
68,58,-9,-63,39,24,39,24,-14,-39,-39,-29
68,58,-9,-63,39,24,39,24,-19,-34,-39,-29
68,58,-9,-63,39,24,39,24,-19,-34,-39,-34
78,58,-19,-68,48,19,39,34,-9,-24,-34,-24
78,63,-14,-70,46,24,39,34,-9,-29,-34,-24
73,68,-4,-70,39,31,39,29,-9,-34,-34,-24
73,73,0,-73,36,36,39,29,-9,-39,-34,-24
73,73,0,-73,36,36,48,39,-4,-29,-24,-24
73,73,0,-73,36,36,48,43,-4,-24,-24,-24
73,73,0,-73,36,36,48,43,-4,-24,-24,-29
68,68,0,-68,34,34,48,43,-4,-24,-29,-29
78,82,4,-80,36,43,68,53,0,-34,-29,-24
97,87,-9,-92,53,39,68,48,0,-29,-39,-19
92,97,4,-95,43,51,68,48,0,-29,-29,-19
87,97,9,-92,39,53,68,48,0,-29,-29,-19
82,97,14,-90,34,56,68,48,0,-29,-29,-19
78,97,19,-87,29,58,68,48,0,-29,-29,-19
87,112,24,-100,31,68,78,58,9,-14,-24,-14
87,117,29,-102,29,73,78,58,9,-9,-19,-9
87,117,29,-102,29,73,82,63,14,0,-9,-4
87,122,34,-104,26,78,87,68,14,14,-4,0
78,112,34,-95,21,73,87,58,14,9,-9,-9
78,126,48,-102,14,87,82,58,14,4,-9,-9
82,131,48,-107,17,90,78,58,14,-4,-14,-9
82,131,48,-107,17,90,78,58,14,-9,-14,-9
97,131,34,-114,31,82,68,63,19,0,-14,-4
102,131,29,-117,36,80,63,63,24,4,-9,-4
102,131,29,-117,36,80,58,63,24,4,-4,4
97,126,29,-112,34,78,58,58,24,4,-4,4
97,136,39,-117,29,87,48,53,29,9,4,9
107,146,39,-126,34,92,43,48,29,9,4,9
107,146,39,-126,34,92,34,39,29,4,4,9
107,146,39,-126,34,92,19,29,14,4,4,14
107,156,48,-131,29,102,9,19,0,-9,0,4
112,156,43,-134,34,100,9,19,0,-9,-4,0
112,156,43,-134,34,100,4,19,0,-9,-9,0
112,156,43,-134,34,100,4,14,0,-4,-14,0
122,141,19,-131,51,80,4,14,-4,-4,-4,0
117,141,24,-129,46,82,4,9,-4,-4,-4,0
117,141,24,-129,46,82,4,9,-4,-9,-9,0
117,141,24,-129,46,82,0,4,-9,-19,-14,0
117,146,29,-131,43,87,-4,4,-9,-9,-4,0
122,151,29,-136,46,90,-4,4,-4,-9,-4,0
122,151,29,-136,46,90,-4,4,-4,-9,-4,0
126,156,29,-141,48,92,-4,9,-4,-4,-4,0
131,151,19,-141,56,85,4,9,-14,-14,-14,0
136,146,9,-141,63,78,4,9,-14,-24,-19,0
146,141,-4,-143,75,68,4,9,-14,-24,-19,0
146,131,-14,-139,80,58,4,9,-19,-24,-19,0
131,122,-9,-126,70,56,0,4,-19,-24,-14,9
126,122,-4,-124,65,58,0,0,-19,-24,-14,9
126,112,-14,-119,70,48,4,0,-24,-24,-19,9
126,112,-14,-119,70,48,9,4,-24,-24,-19,9
136,117,-19,-126,78,48,19,14,-9,-24,-29,0
136,107,-29,-122,82,39,19,19,-9,-24,-34,-4
136,107,-29,-122,82,39,19,19,-4,-24,-34,-4
141,112,-29,-126,85,41,29,29,-4,-24,-34,-4
141,107,-34,-124,87,36,19,19,-4,-34,-34,4
136,92,-43,-114,90,24,24,19,-4,-34,-29,0
126,87,-39,-107,82,24,34,24,-4,-29,-24,-4
117,73,-43,-95,80,14,39,29,0,-29,-19,-4
126,82,-43,-104,85,19,53,39,-9,-34,-29,-14
122,82,-39,-102,80,21,53,43,-4,-34,-34,-19
122,82,-39,-102,80,21,53,43,-4,-39,-34,-19
122,82,-39,-102,80,21,63,43,-9,-39,-34,-24
117,73,-43,-95,80,14,53,43,0,-39,-43,-14
117,68,-48,-92,82,9,53,43,0,-48,-43,-24
117,63,-53,-90,85,4,58,43,-4,-48,-48,-29
117,63,-53,-90,85,4,58,39,-4,-48,-48,-29
117,63,-53,-90,85,4,63,39,-9,-43,-58,-39
112,63,-48,-87,80,7,63,39,-9,-43,-53,-39
107,58,-48,-82,78,4,58,39,-9,-43,-53,-39
107,58,-48,-82,78,4,58,48,-9,-43,-53,-39
122,68,-53,-95,87,7,58,48,-9,-34,-48,-24
122,73,-48,-97,85,12,58,48,-9,-34,-43,-24
122,68,-53,-95,87,7,58,48,-9,-39,-43,-29
117,73,-43,-95,80,14,58,48,-9,-39,-39,-29
107,73,-34,-90,70,19,58,48,-9,-39,-48,-29
107,78,-29,-92,68,24,58,48,-9,-39,-48,-29
107,78,-29,-92,68,24,58,48,-9,-39,-48,-29
107,78,-29,-92,68,24,63,48,-9,-34,-48,-29
122,78,-43,-100,82,17,63,53,0,-34,-43,-29
126,78,-48,-102,87,14,58,53,0,-34,-43,-29
126,73,-53,-100,90,9,58,53,0,-34,-43,-29
122,73,-48,-97,85,12,58,53,0,-34,-43,-24
122,73,-48,-97,85,12,58,53,0,-34,-43,-34
122,78,-43,-100,82,17,58,53,0,-34,-43,-34
122,78,-43,-100,82,17,58,53,0,-34,-48,-34
122,78,-43,-100,82,17,58,53,0,-34,-48,-34
131,87,-43,-109,87,21,58,53,0,-24,-34,-24
131,87,-43,-109,87,21,58,58,0,-19,-34,-24
131,87,-43,-109,87,21,58,58,4,-19,-34,-24
131,87,-43,-109,87,21,58,53,4,-19,-34,-24
131,87,-43,-109,87,21,68,53,4,-29,-34,-24
131,87,-43,-109,87,21,68,53,4,-29,-34,-24
131,87,-43,-109,87,21,68,53,4,-34,-34,-24
131,87,-43,-109,87,21,68,53,4,-34,-34,-24
141,97,-43,-119,92,26,78,58,4,-34,-39,-24
141,107,-34,-124,87,36,78,68,4,-34,-48,-29
117,97,-19,-107,68,39,87,87,19,-34,-48,-43
122,87,-34,-104,78,26,112,112,34,-14,-39,-43
122,102,-19,-112,70,41,117,117,58,-9,-34,-43
131,122,-9,-126,70,56,117,122,82,9,-14,-34
141,146,4,-143,68,75,117,131,92,29,4,-14
146,146,0,-146,73,73,107,136,117,58,19,-4
170,165,-4,-168,87,80,102,165,161,102,63,29
214,209,-4,-212,109,102,102,214,248,180,122,73
234,239,4,-236,114,122,102,268,346,287,204,131
263,283,19,-273,122,151,102,287,414,380,297,204
312,370,58,-341,126,214,82,297,468,492,400,302
346,444,97,-395,124,270,58,263,507,595,512,395
375,522,146,-448,114,334,0,185,497,683,619,502
429,614,185,-522,122,400,-63,92,463,785,741,624
483,683,200,-583,141,441,-112,39,473,917,873,746
531,751,219,-641,156,485,-146,4,507,1044,990,858
580,814,234,-697,173,524,-204,-43,517,1122,1078,941
590,844,253,-717,168,549,-268,-131,473,1112,1078,976
590,863,273,-727,158,568,-322,-209,380,1005,1015,951
590,839,248,-714,170,544,-307,-229,312,858,883,888
585,741,156,-663,214,448,-273,-195,283,717,736,790
561,639,78,-600,241,358,-258,-190,180,556,585,678
517,561,43,-539,236,302,-253,-258,-19,366,439,575
458,488,29,-473,214,258,-263,-356,-253,141,263,458
380,409,29,-395,175,219,-297,-468,-507,-82,82,312
326,346,19,-336,153,183,-346,-551,-673,-253,-48,190
302,307,4,-305,148,156,-351,-541,-702,-317,-112,136
283,283,0,-283,141,141,-322,-497,-639,-317,-117,107
253,244,-9,-248,131,117,-292,-444,-570,-312,-136,68
263,219,-43,-241,153,87,-248,-366,-492,-307,-146,39
253,200,-53,-226,153,73,-190,-278,-395,-258,-131,39
234,204,-29,-219,131,87,-136,-209,-317,-204,-102,43
239,239,0,-239,119,119,-87,-126,-244,-151,-82,43
239,268,29,-253,104,148,-43,-68,-156,-92,-39,53
244,292,48,-268,97,170,-19,-29,-87,-24,4,63
244,283,39,-263,102,161,-9,-19,-53,4,19,73
219,253,34,-236,92,143,-9,-19,-34,4,34,63
229,273,43,-251,92,158,9,4,-14,14,34,63
234,287,53,-261,90,170,34,39,-9,14,34,63
229,273,43,-251,92,158,39,43,0,0,14,58
219,253,34,-236,92,143,53,58,0,0,0,43
214,214,0,-214,107,107,58,68,4,0,-4,34
219,195,-24,-207,122,85,68,68,14,4,0,29
219,185,-34,-202,126,75,68,68,19,9,4,29
214,180,-34,-197,124,73,63,68,24,14,9,24
209,180,-29,-195,119,75,63,68,24,19,14,24
200,190,-9,-195,104,90,68,58,14,0,0,24
200,190,-9,-195,104,90,68,68,19,0,-4,24
200,190,-9,-195,104,90,78,78,24,4,-4,19
204,190,-14,-197,109,87,82,82,29,4,-9,14
195,185,-9,-190,102,87,82,82,24,-4,-9,9
195,185,-9,-190,102,87,78,78,24,0,-4,9
195,175,-19,-185,107,78,78,68,24,0,0,14
190,165,-24,-178,107,70,78,68,24,4,0,14
190,170,-19,-180,104,75,73,78,19,4,0,14
190,180,-9,-185,100,85,73,82,19,4,-4,14
190,185,-4,-187,97,90,78,92,24,0,-4,14
190,180,-9,-185,100,85,82,97,29,-4,-9,14
180,170,-9,-175,95,80,82,87,19,-4,-19,14
180,170,-9,-175,95,80,82,87,24,0,-14,9
185,170,-14,-178,100,78,78,87,24,0,-9,9
185,170,-14,-178,100,78,78,78,19,0,-9,14
165,161,-4,-163,85,78,78,78,14,0,-9,14
165,161,-4,-163,85,78,78,78,14,0,-9,9
165,161,-4,-163,85,78,78,78,19,0,-9,9
165,161,-4,-163,85,78,78,87,19,0,-9,9
156,141,-14,-148,85,63,68,78,19,-9,-14,0
146,131,-14,-139,80,58,68,78,24,-9,-14,0
156,141,-14,-148,85,63,68,73,24,-4,-14,4
156,141,-14,-148,85,63,68,73,24,-4,-14,4
151,141,-9,-146,80,65,68,73,24,-9,-24,-4
151,141,-9,-146,80,65,68,73,19,-9,-19,-4
151,136,-14,-143,82,61,68,73,19,-9,-19,-9
151,136,-14,-143,82,61,68,73,19,-4,-19,-9
146,126,-19,-136,82,53,68,63,19,-4,-24,0
141,122,-19,-131,80,51,68,63,19,-9,-24,0
136,122,-14,-129,75,53,63,63,19,-9,-24,0
131,122,-9,-126,70,56,63,63,19,-9,-24,0
136,131,-4,-134,70,63,63,63,19,-9,-24,-9
136,136,0,-136,68,68,63,63,19,-9,-24,-4
136,136,0,-136,68,68,58,63,19,-4,-24,-4
136,136,0,-136,68,68,58,63,19,-4,-24,-4
126,131,4,-129,61,68,53,63,14,-9,-24,-4
126,126,0,-126,63,63,53,63,24,-9,-19,-4
126,122,-4,-124,65,58,53,63,29,0,-19,-4
126,117,-9,-122,68,53,48,63,29,0,-19,-4
126,126,0,-126,63,63,53,58,24,-4,-19,-4
126,126,0,-126,63,63,53,58,24,-4,-19,-4
126,126,0,-126,63,63,53,58,24,0,-19,-4
131,131,0,-131,65,65,53,58,24,4,-14,0
131,131,0,-131,65,65,48,63,24,-4,-24,0
131,131,0,-131,65,65,48,63,29,-4,-14,4
131,131,0,-131,65,65,48,63,34,0,-14,4
131,141,9,-136,61,75,48,63,34,4,-14,4
131,141,9,-136,61,75,48,63,43,14,-4,9
136,146,9,-141,63,78,43,63,43,14,0,14
136,156,19,-146,58,87,43,63,43,14,0,14
141,156,14,-148,63,85,43,63,43,14,0,14
146,156,9,-151,68,82,43,63,34,19,0,14
146,156,9,-151,68,82,43,63,34,19,0,19
151,156,4,-153,73,80,43,68,43,19,4,19
151,161,9,-156,70,85,43,68,43,24,9,29
165,165,0,-165,82,82,53,63,53,24,9,29
165,175,9,-170,78,92,48,63,53,29,19,29
165,180,14,-173,75,97,48,63,53,29,19,29
165,195,29,-180,68,112,48,63,63,29,19,34
165,185,19,-175,73,102,39,68,63,29,19,34
165,185,19,-175,73,102,43,68,63,34,24,39
170,185,14,-178,78,100,43,68,63,34,24,43
175,185,9,-180,82,97,43,73,68,39,29,48
180,200,19,-190,80,109,53,82,68,53,39,58
180,204,24,-192,78,114,43,78,73,58,48,58
185,219,34,-202,75,126,43,78,78,58,48,58
185,224,39,-204,73,131,39,78,78,58,53,63
185,214,29,-200,78,122,29,68,68,53,48,58
190,224,34,-207,78,129,34,78,73,63,53,63
195,239,43,-217,75,141,34,78,78,68,58,63
195,248,53,-222,70,151,34,78,78,68,58,63
195,258,63,-226,65,161,43,87,87,78,68,73
200,258,58,-229,70,158,43,87,92,78,73,78
204,258,53,-231,75,156,43,87,97,87,78,82
209,263,53,-236,78,158,39,92,102,92,82,87
219,273,53,-246,82,163,29,87,107,102,87,102
224,283,58,-253,82,170,29,87,112,107,92,102
224,283,58,-253,82,170,29,87,117,117,92,107
224,287,63,-256,80,175,29,87,117,117,97,112
214,287,73,-251,70,180,29,87,117,117,102,102
214,292,78,-253,68,185,29,92,126,117,107,107
224,292,68,-258,78,180,24,92,131,126,117,112
229,317,87,-273,70,202,24,92,136,131,122,122
229,307,78,-268,75,192,9,92,131,131,117,122
229,307,78,-268,75,192,9,92,136,136,122,131
239,312,73,-275,82,192,9,97,136,151,126,136
239,312,73,-275,82,192,9,97,141,156,136,146
239,322,82,-280,78,202,9,97,156,161,141,161
248,336,87,-292,80,212,4,97,161,170,141,165
253,336,82,-295,85,209,0,97,165,175,146,165
253,346,92,-300,80,219,0,97,170,175,156,170
258,341,82,-300,87,212,-4,97,165,185,161,165
253,351,97,-302,78,224,-4,102,170,190,165,175
253,366,112,-309,70,239,-9,102,175,190,165,175
248,366,117,-307,65,241,-14,102,180,200,175,180
258,366,107,-312,75,236,-9,102,185,209,190,190
258,370,112,-314,73,241,-9,102,185,214,195,195
258,385,126,-322,65,256,-9,102,190,214,195,200
263,385,122,-324,70,253,-9,102,195,219,200,204
263,390,126,-326,68,258,-9,97,200,229,204,204
258,390,131,-324,63,261,-14,97,200,234,209,214
258,390,131,-324,63,261,-14,97,200,234,214,214
258,390,131,-324,63,261,-14,102,200,239,214,214
258,390,131,-324,63,261,-24,92,200,239,209,209
263,395,131,-329,65,263,-24,97,200,239,214,214
263,395,131,-329,65,263,-29,97,200,239,219,219
263,395,131,-329,65,263,-34,97,200,234,219,224
273,405,131,-339,70,268,-34,92,200,244,219,234
273,414,141,-344,65,278,-34,92,200,244,224,234
273,414,141,-344,65,278,-34,92,200,244,224,234
273,419,146,-346,63,283,-34,87,195,244,224,239
263,414,151,-339,56,283,-39,87,195,234,234,229
263,409,146,-336,58,278,-39,78,195,234,234,229
263,405,141,-334,61,273,-39,78,195,229,234,224
263,400,136,-331,63,268,-39,78,190,229,234,224
253,400,146,-326,53,273,-39,63,175,234,219,224
258,395,136,-326,61,265,-39,63,175,234,219,224
258,390,131,-324,63,261,-39,53,165,224,219,219
258,390,131,-324,63,261,-39,53,161,214,204,214
248,390,141,-319,53,265,-29,58,151,200,195,209
244,375,131,-309,56,253,-24,58,146,195,185,200
239,375,136,-307,51,256,-24,58,141,190,180,200
239,370,131,-305,53,251,-14,58,136,190,175,195
239,361,122,-300,58,241,-19,48,126,180,170,185
229,356,126,-292,51,241,-19,43,117,165,156,170
229,346,117,-287,56,231,-14,43,112,156,151,161
224,326,102,-275,61,214,-4,43,102,146,136,151
209,302,92,-256,58,197,0,39,102,136,141,146
204,297,92,-251,56,195,4,39,97,131,131,136
200,292,92,-246,53,192,9,43,87,122,117,126
195,287,92,-241,51,190,14,43,78,107,107,117
180,263,82,-222,48,173,4,39,63,97,92,102
180,258,78,-219,51,168,4,39,58,92,82,92
170,248,78,-209,46,163,9,39,53,78,73,82
165,234,68,-200,48,151,14,39,48,73,63,73
165,234,68,-200,48,151,29,48,39,63,63,63
156,219,63,-187,46,141,34,48,34,53,58,53
146,209,63,-178,41,136,34,48,19,48,43,43
146,200,53,-173,46,126,43,48,19,39,39,39
146,185,39,-165,53,112,43,34,9,29,19,34
141,185,43,-163,48,114,39,34,0,14,19,24
136,170,34,-153,51,102,39,34,-9,9,4,19
136,161,24,-148,56,92,39,34,-9,0,4,19
131,161,29,-146,51,95,43,48,-4,0,0,24
131,161,29,-146,51,95,48,48,-9,-14,-9,9
122,146,24,-134,48,85,48,43,-14,-14,-19,4
122,146,24,-134,48,85,48,43,-19,-19,-19,0
122,136,14,-129,53,75,48,39,-19,-19,-24,-14
122,126,4,-124,58,65,53,39,-24,-24,-29,-14
112,126,14,-119,48,70,53,39,-29,-29,-34,-14
112,122,9,-117,51,65,53,39,-34,-34,-34,-19
102,112,9,-107,46,61,53,39,-29,-34,-39,-24
102,107,4,-104,48,56,53,39,-34,-39,-43,-29
92,102,9,-97,41,56,53,39,-39,-48,-43,-34
92,102,9,-97,41,56,53,39,-39,-48,-48,-34
102,107,4,-104,48,56,53,29,-48,-53,-43,-39
97,107,9,-102,43,58,53,29,-48,-53,-48,-39
97,107,9,-102,43,58,53,24,-48,-53,-53,-39
102,107,4,-104,48,56,53,24,-48,-58,-53,-39
92,92,0,-92,46,46,58,24,-39,-58,-53,-39
92,92,0,-92,46,46,58,24,-43,-58,-53,-39
87,82,-4,-85,46,39,58,24,-48,-58,-53,-43
82,82,0,-82,41,41,53,24,-53,-63,-58,-43
82,92,9,-87,36,51,53,34,-53,-58,-58,-43
87,92,4,-90,41,48,53,34,-53,-58,-58,-43
87,102,14,-95,36,58,53,34,-53,-58,-58,-43
78,87,9,-82,34,48,53,24,-53,-58,-63,-48
87,87,0,-87,43,43,43,14,-53,-68,-63,-48
97,87,-9,-92,53,39,43,19,-53,-68,-63,-53
87,82,-4,-85,46,39,43,19,-53,-68,-63,-53
87,82,-4,-85,46,39,43,19,-53,-68,-63,-48
78,82,4,-80,36,43,53,29,-58,-68,-63,-48
78,82,4,-80,36,43,53,29,-58,-68,-63,-48
78,78,0,-78,39,39,53,29,-58,-68,-63,-48
78,78,0,-78,39,39,53,24,-53,-68,-63,-48
87,78,-9,-82,48,34,53,24,-53,-68,-63,-48
87,82,-4,-85,46,39,53,24,-53,-68,-68,-48
87,87,0,-87,43,43,53,24,-53,-68,-68,-53
87,87,0,-87,43,43,53,24,-58,-68,-68,-53
78,87,9,-82,34,48,43,19,-58,-73,-68,-53
73,87,14,-80,29,51,43,19,-58,-73,-63,-48
73,87,14,-80,29,51,43,19,-58,-73,-63,-48
73,87,14,-80,29,51,43,14,-58,-73,-68,-48
73,82,9,-78,31,46,43,14,-53,-63,-68,-48
78,82,4,-80,36,43,43,14,-53,-63,-68,-48
78,87,9,-82,34,48,43,14,-53,-63,-68,-48
78,87,9,-82,34,48,43,14,-58,-63,-68,-53
78,87,9,-82,34,48,43,19,-58,-73,-68,-53
73,87,14,-80,29,51,43,19,-58,-78,-68,-48
73,87,14,-80,29,51,39,9,-58,-78,-68,-48
73,92,19,-82,26,56,39,9,-53,-73,-68,-48
73,82,9,-78,31,46,48,9,-63,-63,-58,-39
73,82,9,-78,31,46,48,9,-63,-63,-58,-39
73,82,9,-78,31,46,48,9,-63,-63,-58,-39
73,82,9,-78,31,46,53,14,-63,-63,-58,-39
73,92,19,-82,26,56,53,14,-63,-63,-58,-39
73,92,19,-82,26,56,53,14,-63,-63,-58,-39
73,92,19,-82,26,56,53,14,-63,-63,-58,-39
73,92,19,-82,26,56,53,14,-63,-63,-58,-39
82,92,9,-87,36,51,53,24,-53,-58,-48,-39
82,97,14,-90,34,56,48,19,-53,-58,-48,-39
82,97,14,-90,34,56,48,19,-53,-58,-48,-39
78,97,19,-87,29,58,53,19,-53,-53,-48,-43
68,87,19,-78,24,53,53,19,-53,-63,-58,-43
68,87,19,-78,24,53,48,19,-53,-63,-58,-43
63,82,19,-73,21,51,48,19,-53,-63,-58,-43
63,82,19,-73,21,51,48,14,-48,-58,-58,-39
73,92,19,-82,26,56,48,14,-53,-58,-58,-29
73,92,19,-82,26,56,43,14,-53,-58,-58,-29
73,92,19,-82,26,56,43,14,-53,-48,-53,-29
73,92,19,-82,26,56,43,14,-53,-48,-53,-29
63,82,19,-73,21,51,34,14,-53,-58,-53,-34
63,78,14,-70,24,46,39,14,-53,-58,-53,-34
58,78,19,-68,19,48,39,14,-53,-58,-53,-34
53,73,19,-63,17,46,39,14,-53,-58,-48,-34
63,82,19,-73,21,51,39,14,-48,-53,-43,-34
58,82,24,-70,17,53,34,14,-48,-53,-43,-34
58,82,24,-70,17,53,34,14,-48,-58,-48,-34
63,87,24,-75,19,56,34,14,-48,-58,-48,-34
53,78,24,-65,14,51,34,14,-39,-48,-43,-43
53,78,24,-65,14,51,34,14,-39,-43,-43,-43
53,78,24,-65,14,51,34,14,-34,-43,-43,-43
53,87,34,-70,9,61,34,14,-34,-43,-43,-43
63,78,14,-70,24,46,34,24,-39,-43,-43,-43
58,73,14,-65,21,43,29,24,-39,-43,-43,-43
58,73,14,-65,21,43,29,24,-34,-39,-43,-43
58,73,14,-65,21,43,29,24,-34,-39,-43,-39
43,73,29,-58,7,51,29,24,-29,-48,-53,-39
43,63,19,-53,12,41,29,24,-29,-53,-53,-39
43,63,19,-53,12,41,24,24,-29,-53,-53,-39
43,58,14,-51,14,36,24,24,-29,-48,-48,-34
43,58,14,-51,14,36,24,24,-39,-58,-53,-34
43,58,14,-51,14,36,29,24,-34,-48,-53,-34
34,53,19,-43,7,36,29,24,-34,-43,-53,-34
34,53,19,-43,7,36,24,24,-34,-39,-48,-34
29,58,29,-43,0,43,24,14,-24,-48,-48,-43
29,53,24,-41,2,39,24,14,-24,-48,-48,-43
29,43,14,-36,7,29,24,14,-24,-53,-48,-43
29,39,9,-34,9,24,19,14,-24,-58,-53,-43
39,39,0,-39,19,19,19,14,-34,-48,-43,-48
39,39,0,-39,19,19,24,14,-34,-43,-43,-48
39,39,0,-39,19,19,24,14,-34,-43,-43,-48
34,34,0,-34,17,17,19,14,-39,-48,-43,-48
24,34,9,-29,7,21,19,14,-29,-58,-43,-39
29,34,4,-31,12,19,24,14,-24,-58,-43,-39
29,34,4,-31,12,19,24,14,-24,-58,-39,-39
29,34,4,-31,12,19,24,14,-24,-58,-39,-39
29,34,4,-31,12,19,14,14,-24,-48,-48,-48
29,34,4,-31,12,19,14,14,-29,-53,-48,-48
29,34,4,-31,12,19,14,14,-29,-53,-48,-48
19,34,14,-26,2,24,14,14,-29,-53,-48,-48
19,24,4,-21,7,14,14,14,-29,-53,-48,-48
19,24,4,-21,7,14,14,14,-29,-53,-48,-48
19,19,0,-19,9,9,14,19,-29,-53,-48,-48
19,19,0,-19,9,9,14,24,-29,-58,-48,-48
19,19,0,-19,9,9,24,14,-29,-53,-53,-39
19,14,-4,-17,12,4,24,14,-29,-53,-53,-43
19,14,-4,-17,12,4,24,14,-29,-58,-58,-43
14,14,0,-14,7,7,24,14,-29,-58,-58,-48
14,14,0,-14,7,7,14,14,-29,-68,-58,-58
9,19,9,-14,0,14,14,14,-29,-58,-53,-53
9,29,19,-19,-4,24,14,9,-34,-53,-48,-53
14,34,19,-24,-2,26,14,9,-39,-53,-48,-53
14,19,4,-17,4,12,24,9,-39,-48,-48,-53
14,19,4,-17,4,12,24,9,-39,-58,-48,-53
14,24,9,-19,2,17,24,9,-39,-63,-58,-53
14,24,9,-19,2,17,24,9,-39,-63,-58,-58
14,24,9,-19,2,17,24,14,-39,-63,-58,-53
19,24,4,-21,7,14,24,14,-43,-63,-58,-53
19,24,4,-21,7,14,24,9,-43,-63,-58,-58
19,24,4,-21,7,14,24,9,-43,-63,-58,-58
29,34,4,-31,12,19,34,19,-39,-48,-48,-48
24,24,0,-24,12,12,34,19,-39,-48,-53,-53
24,24,0,-24,12,12,34,19,-34,-53,-53,-53
29,34,4,-31,12,19,34,19,-34,-53,-53,-53
14,19,4,-17,4,12,24,9,-34,-68,-63,-63
9,14,4,-12,2,9,24,9,-34,-68,-63,-63
4,14,9,-9,-2,12,24,9,-43,-73,-58,-63
0,9,9,-4,-4,9,24,9,-43,-73,-58,-63
14,14,0,-14,7,7,34,9,-39,-63,-68,-63
14,14,0,-14,7,7,34,9,-39,-63,-63,-63
14,14,0,-14,7,7,34,9,-39,-63,-63,-63
14,14,0,-14,7,7,34,9,-39,-63,-63,-63
14,19,4,-17,4,12,34,9,-39,-63,-63,-63
14,19,4,-17,4,12,34,9,-39,-63,-63,-63
14,24,9,-19,2,17,34,9,-39,-58,-68,-63
14,24,9,-19,2,17,34,9,-39,-58,-68,-63
24,19,-4,-21,14,7,34,9,-39,-58,-58,-63
24,19,-4,-21,14,7,34,9,-39,-63,-58,-63
24,19,-4,-21,14,7,34,9,-39,-63,-58,-63
24,19,-4,-21,14,7,34,9,-39,-68,-58,-63
24,24,0,-24,12,12,34,14,-39,-68,-58,-58
19,24,4,-21,7,14,34,14,-39,-68,-58,-58
19,24,4,-21,7,14,34,19,-39,-58,-58,-58
19,29,9,-24,4,19,34,19,-39,-58,-63,-58
29,24,-4,-26,17,9,43,19,-34,-53,-63,-58
29,19,-9,-24,19,4,43,14,-34,-58,-58,-58
29,14,-14,-21,21,0,39,14,-34,-58,-58,-53
29,9,-19,-19,24,-4,39,14,-34,-53,-58,-53
19,9,-9,-14,14,0,39,14,-39,-63,-58,-63
19,14,-4,-17,12,4,39,14,-39,-63,-58,-63
19,14,-4,-17,12,4,39,14,-39,-63,-58,-63
19,14,-4,-17,12,4,39,14,-39,-63,-58,-63
29,24,-4,-26,17,9,34,14,-29,-63,-63,-68
29,24,-4,-26,17,9,34,14,-29,-63,-63,-68
24,24,0,-24,12,12,34,14,-29,-63,-63,-68
24,19,-4,-21,14,7,34,14,-29,-63,-58,-68
24,9,-14,-17,19,-2,34,14,-39,-63,-68,-58
24,19,-4,-21,14,7,34,14,-39,-63,-68,-58
24,19,-4,-21,14,7,34,9,-43,-68,-68,-63
24,24,0,-24,12,12,34,9,-43,-68,-68,-63
14,24,9,-19,2,17,34,9,-34,-68,-58,-63
14,19,4,-17,4,12,34,9,-34,-68,-58,-63
14,19,4,-17,4,12,34,14,-34,-68,-58,-63
14,14,0,-14,7,7,34,14,-34,-73,-58,-63
19,14,-4,-17,12,4,34,14,-34,-63,-58,-63
14,9,-4,-12,9,2,34,14,-34,-63,-58,-63
19,14,-4,-17,12,4,34,14,-34,-58,-58,-63
29,19,-9,-24,19,4,34,14,-34,-58,-58,-58
19,9,-9,-14,14,0,39,14,-34,-68,-58,-58
19,9,-9,-14,14,0,39,14,-34,-68,-58,-58
19,9,-9,-14,14,0,39,14,-39,-63,-58,-58
19,9,-9,-14,14,0,39,14,-39,-63,-58,-63
9,4,-4,-7,7,0,29,14,-48,-63,-73,-73
9,4,-4,-7,7,0,29,14,-48,-68,-73,-73
4,4,0,-4,2,2,29,9,-48,-73,-73,-73
4,4,0,-4,2,2,29,9,-48,-78,-73,-73
14,4,-9,-9,12,-2,29,9,-34,-68,-63,-63
14,4,-9,-9,12,-2,29,14,-34,-63,-63,-63
14,4,-9,-9,12,-2,29,14,-34,-63,-63,-68
9,0,-9,-4,9,-4,29,14,-34,-63,-68,-68
19,4,-14,-12,17,-4,29,14,-39,-73,-68,-73
9,0,-9,-4,9,-4,29,9,-48,-78,-68,-78
9,-9,-19,0,14,-14,29,9,-48,-68,-68,-68
9,-9,-19,0,14,-14,29,9,-48,-68,-68,-68
9,-9,-19,0,14,-14,29,9,-48,-68,-68,-68
9,-9,-19,0,14,-14,29,9,-48,-68,-68,-68
9,-9,-19,0,14,-14,29,9,-48,-78,-68,-68
9,-9,-19,0,14,-14,29,9,-48,-78,-68,-68
9,-9,-19,0,14,-14,29,9,-48,-78,-68,-68
9,-9,-19,0,14,-14,29,9,-48,-78,-68,-68
9,0,-9,-4,9,-4,29,0,-58,-78,-68,-78
9,0,-9,-4,9,-4,29,0,-58,-78,-68,-78
9,0,-9,-4,9,-4,29,0,-58,-78,-68,-78
9,0,-9,-4,9,-4,29,0,-58,-78,-68,-78
0,-4,-4,2,2,-4,29,0,-58,-68,-68,-78
0,-9,-9,4,4,-9,29,0,-58,-68,-68,-78
0,-14,-14,7,7,-14,29,0,-58,-68,-68,-78
0,-19,-19,9,9,-19,29,0,-58,-68,-68,-78
9,-9,-19,0,14,-14,29,0,-48,-78,-68,-78
9,-9,-19,0,14,-14,29,0,-48,-78,-68,-78
9,-9,-19,0,14,-14,29,0,-48,-78,-68,-78
9,-9,-19,0,14,-14,29,0,-48,-78,-68,-78
0,-19,-19,9,9,-19,29,0,-58,-78,-78,-78
0,-19,-19,9,9,-19,29,0,-58,-78,-78,-78
0,-19,-19,9,9,-19,29,0,-58,-78,-78,-78
0,-19,-19,9,9,-19,29,0,-58,-78,-78,-78
9,-19,-29,4,19,-24,29,0,-48,-87,-78,-78
9,-19,-29,4,19,-24,29,0,-48,-87,-78,-78
9,-19,-29,4,19,-24,29,0,-48,-87,-78,-78
9,-19,-29,4,19,-24,29,0,-48,-87,-78,-78
0,-29,-29,14,14,-29,39,0,-58,-78,-78,-78
0,-29,-29,14,14,-29,39,0,-58,-78,-78,-78
0,-29,-29,14,14,-29,39,0,-58,-78,-78,-78
0,-29,-29,14,14,-29,39,0,-58,-78,-78,-78
0,-19,-19,9,9,-19,29,0,-58,-78,-78,-78
0,-19,-19,9,9,-19,29,0,-58,-78,-78,-78
0,-19,-19,9,9,-19,29,0,-58,-78,-78,-78
0,-19,-19,9,9,-19,29,0,-58,-78,-78,-78
9,-9,-19,0,14,-14,39,9,-48,-68,-68,-68
9,-9,-19,0,14,-14,39,9,-48,-68,-68,-68
9,-9,-19,0,14,-14,39,9,-48,-68,-68,-68
9,-9,-19,0,14,-14,39,9,-48,-68,-68,-68
9,-4,-14,-2,12,-9,39,9,-39,-58,-58,-68
9,0,-9,-4,9,-4,39,9,-39,-58,-58,-68
9,4,-4,-7,7,0,39,9,-39,-58,-58,-68
9,9,0,-9,4,4,39,9,-39,-58,-58,-68
0,9,9,-4,-4,9,48,9,-39,-58,-58,-58
0,9,9,-4,-4,9,48,9,-39,-58,-58,-58
0,9,9,-4,-4,9,48,9,-39,-58,-58,-58
0,9,9,-4,-4,9,48,9,-39,-58,-58,-58
0,29,29,-14,-14,29,48,9,-29,-48,-48,-58
0,29,29,-14,-14,29,48,9,-29,-48,-48,-58
0,24,24,-12,-12,24,53,14,-24,-43,-43,-58
0,24,24,-12,-12,24,58,19,-24,-34,-43,-58
9,24,14,-17,-2,19,68,29,-24,-34,-39,-48
9,39,29,-24,-9,34,63,29,-24,-34,-39,-48
14,43,29,-29,-7,36,58,29,-24,-39,-43,-48
14,43,29,-29,-7,36,58,29,-24,-39,-43,-48
9,34,24,-21,-7,29,58,34,-19,-39,-43,-53
14,34,19,-24,-2,26,53,34,-14,-34,-39,-53
14,34,19,-24,-2,26,48,34,-14,-34,-34,-43
9,29,19,-19,-4,24,48,29,-14,-34,-34,-43
19,39,19,-29,0,29,39,14,-19,-29,-43,-48
29,48,19,-39,4,34,34,9,-19,-29,-43,-48
29,48,19,-39,4,34,24,0,-19,-34,-43,-48
29,48,19,-39,4,34,9,-9,-34,-34,-43,-43
24,39,14,-31,4,26,0,-9,-48,-48,-43,-43
24,39,14,-31,4,26,0,-9,-48,-48,-43,-48
19,39,19,-29,0,29,-4,-9,-48,-48,-43,-48
14,39,24,-26,-4,31,-4,-14,-48,-43,-43,-48
19,43,24,-31,-2,34,-4,-14,-53,-43,-43,-39
19,43,24,-31,-2,34,-4,-19,-53,-43,-43,-39
24,43,19,-34,2,31,-4,-19,-53,-48,-48,-39
29,43,14,-36,7,29,-9,-24,-58,-58,-53,-39
19,43,24,-31,-2,34,-14,-24,-68,-58,-43,-48
24,43,19,-34,2,31,-14,-24,-63,-58,-43,-48
24,39,14,-31,4,26,-14,-24,-63,-58,-43,-48
29,39,9,-34,9,24,-14,-19,-63,-53,-43,-48
24,29,4,-26,9,17,-14,-29,-63,-63,-53,-48
29,29,0,-29,14,14,-14,-29,-63,-73,-58,-48
39,29,-9,-34,24,9,-14,-29,-63,-73,-58,-48
39,24,-14,-31,26,4,-14,-29,-68,-73,-58,-48
43,34,-9,-39,26,12,-9,-24,-58,-63,-53,-39
39,34,-4,-36,21,14,-9,-29,-58,-63,-53,-39
39,24,-14,-31,26,4,-4,-29,-63,-63,-58,-39
39,24,-14,-31,26,4,0,-24,-63,-63,-58,-39
29,14,-14,-21,21,0,-9,-29,-68,-73,-58,-48
29,0,-29,-14,29,-14,-9,-29,-68,-73,-63,-53
29,-4,-34,-12,31,-19,-9,-34,-63,-73,-63,-53
34,-4,-39,-14,36,-21,0,-29,-63,-73,-63,-53
43,4,-39,-24,41,-17,0,-24,-53,-73,-58,-53
39,-4,-43,-17,41,-24,4,-19,-53,-73,-58,-58
29,-4,-34,-12,31,-19,14,-9,-53,-68,-58,-63
19,-14,-34,-2,26,-24,19,0,-48,-68,-58,-63
9,-19,-29,4,19,-24,24,-4,-48,-63,-58,-63
4,-24,-29,9,17,-26,24,-4,-43,-63,-63,-68
4,-29,-34,12,19,-31,24,-9,-43,-68,-63,-68
4,-34,-39,14,21,-36,34,-14,-48,-68,-63,-73
-9,-34,-24,21,7,-29,24,-4,-53,-73,-78,-82
-9,-39,-29,24,9,-34,24,-4,-58,-87,-82,-92
-9,-43,-34,26,12,-39,29,-4,-68,-92,-92,-97
-9,-43,-34,26,12,-39,29,-9,-73,-97,-97,-97
0,-53,-53,26,26,-53,43,-9,-58,-92,-97,-87
-4,-53,-48,29,21,-51,43,-9,-58,-92,-92,-87
-9,-58,-48,34,19,-53,39,-9,-58,-92,-92,-87
-9,-58,-48,34,19,-53,39,0,-58,-92,-92,-87
-14,-53,-39,34,12,-46,39,0,-58,-82,-82,-82
-14,-53,-39,34,12,-46,39,0,-58,-82,-82,-82
-14,-63,-48,39,17,-56,39,0,-58,-87,-87,-87
-19,-63,-43,41,12,-53,39,0,-58,-87,-87,-87
-9,-63,-53,36,21,-58,29,0,-68,-97,-97,-97
-9,-58,-48,34,19,-53,29,0,-68,-97,-97,-97
-9,-58,-48,34,19,-53,29,0,-68,-97,-97,-97
-9,-58,-48,34,19,-53,34,0,-68,-92,-97,-97
-14,-58,-43,36,14,-51,43,-4,-58,-82,-82,-87
-9,-58,-48,34,19,-53,39,-4,-58,-82,-82,-87
-9,-63,-53,36,21,-58,39,-4,-58,-82,-82,-87
-14,-63,-48,39,17,-56,39,-4,-58,-82,-82,-82
-14,-63,-48,39,17,-56,29,4,-68,-92,-92,-92
-14,-58,-43,36,14,-51,29,4,-68,-92,-92,-92
-14,-58,-43,36,14,-51,29,4,-68,-92,-97,-92
-14,-58,-43,36,14,-51,29,4,-68,-92,-97,-92
-24,-68,-43,46,9,-56,29,-4,-58,-92,-82,-92
-24,-68,-43,46,9,-56,29,0,-58,-87,-82,-92
-24,-68,-43,46,9,-56,29,0,-53,-87,-82,-92
-24,-68,-43,46,9,-56,29,-4,-53,-87,-82,-92
-14,-68,-53,41,19,-61,29,4,-63,-87,-92,-82
-14,-68,-53,41,19,-61,29,4,-63,-87,-92,-82
-14,-68,-53,41,19,-61,29,4,-63,-92,-92,-82
-14,-68,-53,41,19,-61,29,4,-63,-92,-92,-82
-24,-68,-43,46,9,-56,39,0,-53,-82,-87,-82
-14,-58,-43,36,14,-51,39,19,-53,-82,-87,-87
-19,-68,-48,43,14,-58,48,29,-39,-73,-87,-92
-43,-78,-34,61,-4,-56,63,43,-24,-82,-87,-102
-43,-63,-19,53,-12,-41,68,48,-19,-68,-82,-102
-43,-43,0,43,-21,-21,68,73,4,-48,-63,-92
-24,-29,-4,26,-9,-17,68,73,14,-19,-43,-82
-9,-9,0,9,-4,-4,68,87,39,0,-39,-73
-4,-9,-4,7,0,-7,63,107,102,53,-4,-48
19,4,-14,-12,17,-4,73,165,209,141,63,-4
58,43,-14,-51,36,14,82,219,297,229,136,53
78,87,9,-82,34,48,82,229,356,322,229,117
117,175,58,-146,29,117,63,229,409,424,331,204
161,268,107,-214,26,187,19,175,419,517,444,307
200,336,136,-268,31,236,-68,78,409,624,561,424
244,439,195,-341,24,317,-151,-4,414,756,692,546
297,546,248,-422,24,397,-200,-48,453,888,824,658
346,595,248,-470,48,422,-244,-82,497,1015,932,761
385,629,244,-507,70,436,-322,-151,507,1083,1010,824
395,658,263,-527,65,461,-395,-239,453,1054,1010,858
395,658,263,-527,65,461,-409,-278,380,956,936,844
395,624,229,-509,82,427,-405,-248,351,829,834,790
390,546,156,-468,117,351,-419,-234,312,697,717,722
385,483,97,-434,143,290,-424,-287,180,546,566,639
351,405,53,-378,148,229,-439,-375,-19,366,429,546
292,322,29,-307,131,175,-488,-483,-244,170,283,439
234,273,39,-253,97,156,-522,-575,-478,-34,131,322
180,219,39,-200,70,129,-522,-629,-663,-214,-9,209
117,170,53,-143,31,112,-488,-619,-692,-307,-82,136
97,146,48,-122,24,97,-429,-546,-629,-297,-87,117
68,117,48,-92,9,82,-361,-463,-551,-292,-97,87
58,102,43,-80,7,73,-317,-405,-483,-278,-107,58
58,122,63,-90,-2,92,-258,-336,-395,-219,-92,48
39,126,87,-82,-24,107,-195,-268,-317,-165,-73,34
14,102,87,-58,-36,95,-146,-224,-263,-131,-63,14
14,102,87,-58,-36,95,-112,-185,-204,-92,-39,14
9,107,97,-58,-43,102,-97,-146,-156,-63,-4,34
19,97,78,-58,-29,87,-78,-117,-131,-43,0,24
34,97,63,-65,-14,80,-58,-87,-102,-43,-4,24
34,87,53,-61,-9,70,-48,-73,-82,-43,-14,14
9,53,43,-31,-17,48,-43,-58,-87,-53,-34,-4
4,39,34,-21,-14,36,-19,-34,-68,-48,-43,-19
4,29,24,-17,-9,26,4,-19,-48,-39,-39,-24
9,39,29,-24,-9,34,9,-19,-53,-39,-43,-34
4,19,14,-12,-4,17,9,-19,-48,-39,-34,-39
4,9,4,-7,0,7,9,-19,-48,-39,-34,-39
0,4,4,-2,-2,4,4,-19,-48,-39,-34,-43
-4,4,9,0,-7,7,4,-19,-53,-39,-34,-43
4,-4,-9,0,7,-7,19,-9,-53,-53,-48,-43
4,-4,-9,0,7,-7,19,0,-48,-58,-53,-43
4,-4,-9,0,7,-7,29,9,-43,-58,-53,-48
9,-4,-14,-2,12,-9,34,14,-39,-63,-58,-53
0,-9,-9,4,4,-9,24,14,-34,-53,-58,-58
0,-9,-9,4,4,-9,19,9,-34,-48,-53,-58
0,-19,-19,9,9,-19,19,0,-34,-48,-48,-53
-4,-29,-24,17,9,-26,19,0,-34,-43,-48,-53
-4,-24,-19,14,7,-21,24,0,-39,-53,-48,-63
-4,-14,-9,9,2,-12,24,4,-39,-53,-53,-63
-4,-9,-4,7,0,-7,29,14,-34,-58,-53,-63
-4,-14,-9,9,2,-12,34,19,-29,-63,-58,-63
-14,-24,-9,19,-2,-17,34,9,-29,-53,-58,-53
-14,-24,-9,19,-2,-17,34,9,-24,-48,-53,-58
-9,-24,-14,17,2,-19,29,9,-24,-48,-48,-58
-9,-24,-14,17,2,-19,29,0,-29,-48,-48,-53
-19,-24,-4,21,-7,-14,29,9,-34,-58,-58,-53
-19,-24,-4,21,-7,-14,29,9,-34,-58,-58,-58
-19,-24,-4,21,-7,-14,29,9,-29,-58,-58,-58
-19,-24,-4,21,-7,-14,29,19,-29,-58,-58,-58
-19,-43,-24,31,2,-34,29,9,-29,-58,-53,-58
-29,-53,-24,41,-2,-39,29,9,-24,-58,-53,-58
-19,-43,-24,31,2,-34,29,4,-24,-53,-53,-53
-19,-43,-24,31,2,-34,29,4,-24,-53,-53,-53
-34,-34,0,34,-17,-17,19,-4,-24,-48,-53,-63
-34,-34,0,34,-17,-17,19,-4,-29,-48,-48,-63
-34,-39,-4,36,-14,-21,19,-4,-29,-48,-48,-68
-34,-39,-4,36,-14,-21,19,-4,-29,-43,-48,-68
-43,-43,0,43,-21,-21,29,4,-29,-48,-63,-68
-43,-53,-9,48,-17,-31,29,4,-29,-58,-63,-68
-43,-58,-14,51,-14,-36,24,4,-29,-63,-63,-68
-43,-63,-19,53,-12,-41,24,4,-29,-68,-63,-68
-48,-63,-14,56,-17,-39,14,-4,-29,-68,-63,-78
-48,-58,-9,53,-19,-34,14,-4,-29,-68,-63,-73
-48,-58,-9,53,-19,-34,9,-4,-29,-63,-63,-73
-48,-58,-9,53,-19,-34,9,-4,-29,-63,-63,-73
-39,-48,-9,43,-14,-29,14,-4,-34,-58,-63,-63
-39,-48,-9,43,-14,-29,14,-4,-24,-58,-58,-63
-39,-48,-9,43,-14,-29,14,-4,-19,-48,-58,-63
-39,-48,-9,43,-14,-29,9,-4,-19,-48,-58,-63
-39,-39,0,39,-19,-19,14,0,-14,-53,-58,-63
-39,-39,0,39,-19,-19,14,0,-14,-53,-58,-63
-39,-39,0,39,-19,-19,14,0,-14,-48,-58,-63
-34,-34,0,34,-17,-17,14,0,-14,-43,-53,-58
-43,-39,4,41,-24,-17,19,4,-24,-53,-63,-68
-43,-43,0,43,-21,-21,19,4,-19,-53,-53,-63
-43,-48,-4,46,-19,-26,19,4,-14,-48,-53,-63
-43,-43,0,43,-21,-21,19,4,-14,-43,-53,-63
-43,-43,0,43,-21,-21,9,-4,-14,-43,-43,-58
-39,-39,0,39,-19,-19,4,-4,-14,-43,-39,-53
-39,-29,9,34,-24,-9,4,-4,-14,-43,-39,-53
-34,-29,4,31,-19,-12,4,-4,-14,-43,-39,-53
-39,-29,9,34,-24,-9,4,4,-4,-34,-39,-53
-39,-29,9,34,-24,-9,4,4,-4,-29,-39,-48
-34,-29,4,31,-19,-12,4,9,4,-24,-34,-48
-34,-24,9,29,-21,-7,4,9,4,-14,-29,-39
-29,-14,14,21,-21,0,4,4,4,-9,-29,-39
-29,-9,19,19,-24,4,0,4,4,-9,-19,-39
-29,-9,19,19,-24,4,0,4,4,-14,-19,-39
-29,0,29,14,-29,14,0,4,14,-19,-19,-34
-19,-9,9,14,-14,0,0,9,14,-19,-19,-34
-19,-9,9,14,-14,0,4,9,14,-14,-14,-29
-14,-9,4,12,-9,-2,4,9,14,-14,-14,-24
-9,-9,0,9,-4,-4,4,14,19,-9,-9,-19
-14,-4,9,9,-12,2,14,24,29,4,0,-19
-14,-9,4,12,-9,-2,4,19,34,9,9,-19
-9,-4,4,7,-7,0,4,19,39,9,9,-19
-9,-9,0,9,-4,-4,0,19,39,9,14,-14
-19,0,19,9,-19,9,-9,9,29,4,9,-9
-14,9,24,2,-19,17,-4,19,34,14,14,-4
-9,24,34,-7,-21,29,-4,19,39,19,19,-4
-9,34,43,-12,-26,39,-4,19,39,19,19,-4
-9,24,34,-7,-21,29,-4,29,48,19,19,4
-4,24,29,-9,-17,26,-4,29,53,19,24,9
0,24,24,-12,-12,24,-4,29,58,29,29,14
4,29,24,-17,-9,26,-9,34,63,34,34,19
4,34,29,-19,-12,31,-9,39,58,43,48,24
9,48,39,-29,-14,43,-9,39,63,48,53,24
9,53,43,-31,-17,48,-9,39,68,58,53,29
9,63,53,-36,-21,58,-9,39,68,58,58,34
9,63,53,-36,-21,58,-19,39,68,58,53,34
9,68,58,-39,-24,63,-19,43,78,58,58,39
19,68,48,-43,-14,58,-24,43,82,68,68,43
24,92,68,-58,-21,80,-24,43,87,73,73,53
14,87,73,-51,-29,80,-19,43,92,73,78,53
14,82,68,-48,-26,75,-19,43,97,78,82,63
24,82,58,-53,-17,70,-19,48,97,92,87,68
24,78,53,-51,-14,65,-19,48,102,97,97,78
24,82,58,-53,-17,70,-19,48,117,107,112,82
34,102,68,-68,-17,85,-24,48,122,122,112,87
39,107,68,-73,-14,87,-29,48,126,131,117,87
39,122,82,-80,-21,102,-29,48,131,136,126,92
39,126,87,-82,-24,107,-34,48,136,141,131,107
39,136,97,-87,-29,117,-34,53,141,141,136,117
43,151,107,-97,-31,129,-39,53,146,136,136,117
43,151,107,-97,-31,129,-43,53,151,141,146,122
63,141,78,-102,-7,109,-48,53,146,141,141,122
63,146,82,-104,-9,114,-48,53,146,146,146,126
63,161,97,-112,-17,129,-48,53,151,146,146,131
68,161,92,-114,-12,126,-48,53,156,151,151,136
58,165,107,-112,-24,136,-58,48,170,165,165,146
53,165,112,-109,-29,139,-63,48,170,175,170,156
53,165,112,-109,-29,139,-63,48,170,180,175,156
53,165,112,-109,-29,139,-63,53,170,190,175,156
63,185,122,-124,-29,153,-63,43,175,190,170,151
68,190,122,-129,-26,156,-63,48,170,190,175,156
68,190,122,-129,-26,156,-68,48,165,190,180,161
68,190,122,-129,-26,156,-73,48,161,185,180,165
68,180,112,-124,-21,146,-73,43,170,195,180,165
68,190,122,-129,-26,156,-73,43,170,195,185,165
68,190,122,-129,-26,156,-73,43,170,195,185,165
68,195,126,-131,-29,161,-73,39,165,195,185,170
68,204,136,-136,-34,170,-78,39,165,195,185,180
68,204,136,-136,-34,170,-78,29,165,195,185,180
68,204,136,-136,-34,170,-78,29,165,190,185,175
68,204,136,-136,-34,170,-78,29,161,190,185,175
68,204,136,-136,-34,170,-87,24,146,175,190,175
73,200,126,-136,-26,163,-87,24,146,175,190,175
73,195,122,-134,-24,158,-87,14,136,165,190,170
73,195,122,-134,-24,158,-87,14,131,156,175,165
63,185,122,-124,-29,153,-87,9,122,151,165,156
58,170,112,-114,-26,141,-82,9,117,146,156,141
53,170,117,-112,-31,143,-82,9,112,141,151,136
53,165,112,-109,-29,139,-73,9,107,141,146,126
53,151,97,-102,-21,124,-68,0,97,131,141,126
43,151,107,-97,-31,129,-68,-4,87,117,126,112
43,146,102,-95,-29,124,-63,-4,82,107,122,102
39,131,92,-85,-26,112,-53,-4,73,97,107,92
34,102,68,-68,-17,85,-48,0,73,87,102,87
29,92,63,-61,-17,78,-43,0,68,82,92,78
24,82,58,-53,-17,70,-39,4,58,73,78,68
19,73,53,-46,-17,63,-34,4,48,58,68,58
4,48,43,-26,-19,46,-24,0,43,48,63,53
4,43,39,-24,-17,41,-24,0,39,43,53,43
-4,34,39,-14,-21,36,-19,0,34,29,43,34
-9,19,29,-4,-19,24,-14,0,29,24,34,24
0,24,24,-12,-12,24,-9,-9,19,14,14,4
-9,14,24,-2,-17,19,-4,-9,14,4,9,-4
-19,9,29,4,-24,19,-4,-9,0,0,-4,-14
-19,4,24,7,-21,14,4,-9,0,-9,-9,-19
-9,0,9,4,-9,4,4,-14,-9,-9,-9,-14
-14,0,14,7,-14,7,0,-14,-19,-24,-9,-24
-19,-14,4,17,-12,-4,0,-14,-29,-29,-24,-29
-19,-24,-4,21,-7,-14,0,-14,-29,-39,-24,-29
-29,-39,-9,34,-9,-24,4,-19,-34,-48,-39,-43
-34,-43,-9,39,-12,-26,9,-19,-39,-63,-48,-58
-48,-63,-14,56,-17,-39,9,-24,-43,-63,-58,-63
-53,-68,-14,61,-19,-41,9,-24,-48,-68,-58,-68
-53,-63,-9,58,-21,-36,0,-19,-48,-58,-53,-73
-53,-68,-14,61,-19,-41,4,-19,-53,-63,-58,-73
-63,-63,0,63,-31,-31,4,-19,-58,-68,-63,-73
-63,-63,0,63,-31,-31,4,-19,-63,-73,-63,-78
-63,-68,-4,65,-29,-36,14,-29,-58,-82,-68,-73
-63,-78,-14,70,-24,-46,14,-29,-63,-87,-73,-78
-73,-87,-14,80,-29,-51,14,-29,-68,-97,-73,-82
-73,-92,-19,82,-26,-56,14,-29,-68,-97,-78,-82
-82,-102,-19,92,-31,-61,14,-19,-68,-92,-73,-87
-87,-107,-19,97,-34,-63,14,-19,-68,-92,-78,-87
-87,-112,-24,100,-31,-68,14,-24,-68,-92,-82,-87
-82,-117,-34,100,-24,-75,14,-24,-68,-97,-82,-87
-73,-117,-43,95,-14,-80,9,-24,-68,-107,-92,-97
-73,-112,-39,92,-17,-75,9,-24,-73,-107,-92,-97
-78,-117,-39,97,-19,-78,9,-24,-78,-107,-92,-102
-82,-112,-29,97,-26,-70,4,-24,-82,-112,-97,-102
-87,-117,-29,102,-29,-73,4,-34,-82,-126,-107,-102
-87,-122,-34,104,-26,-78,4,-34,-82,-126,-107,-102
-92,-117,-24,104,-34,-70,4,-34,-82,-126,-107,-102
-107,-136,-29,122,-39,-82,4,-43,-82,-126,-112,-107
-107,-136,-29,122,-39,-82,4,-34,-92,-131,-102,-107
-97,-136,-39,117,-29,-87,4,-29,-92,-126,-102,-112
-107,-141,-34,124,-36,-87,4,-29,-92,-122,-102,-112
-107,-141,-34,124,-36,-87,4,-29,-92,-117,-102,-107
-117,-151,-34,134,-41,-92,-4,-39,-87,-107,-102,-107
-117,-151,-34,134,-41,-92,-4,-39,-87,-107,-102,-107
-117,-156,-39,136,-39,-97,-4,-39,-87,-107,-102,-107
-117,-156,-39,136,-39,-97,-4,-43,-82,-107,-102,-107
-126,-156,-29,141,-48,-92,-4,-43,-92,-117,-102,-107
-126,-151,-24,139,-51,-87,-4,-43,-92,-117,-107,-107
-126,-146,-19,136,-53,-82,-4,-43,-92,-117,-107,-112
-126,-146,-19,136,-53,-82,-4,-43,-97,-117,-107,-112
-126,-156,-29,141,-48,-92,-4,-39,-87,-112,-107,-102
-131,-156,-24,143,-53,-90,-4,-39,-87,-112,-102,-97
-131,-156,-24,143,-53,-90,-4,-39,-87,-112,-102,-97
-131,-156,-24,143,-53,-90,-4,-43,-87,-112,-107,-97
-141,-151,-9,146,-65,-80,-4,-53,-92,-122,-107,-107
-136,-151,-14,143,-61,-82,-4,-53,-92,-122,-107,-107
-136,-146,-9,141,-63,-78,-4,-53,-92,-122,-107,-107
-136,-146,-9,141,-63,-78,-4,-53,-97,-122,-107,-112
-131,-151,-19,141,-56,-85,-4,-39,-87,-122,-107,-112
-131,-156,-24,143,-53,-90,-4,-39,-87,-126,-107,-107
-126,-161,-34,143,-46,-97,-9,-48,-87,-126,-107,-107
-122,-161,-39,141,-41,-100,-9,-48,-82,-122,-107,-107
-112,-146,-34,129,-39,-90,-19,-48,-82,-117,-102,-107
-112,-141,-29,126,-41,-85,-19,-48,-82,-112,-97,-107
-112,-136,-24,124,-43,-80,-19,-48,-82,-107,-92,-107
-112,-131,-19,122,-46,-75,-14,-43,-82,-102,-87,-107
-122,-141,-19,131,-51,-80,-4,-34,-73,-112,-97,-97
-122,-141,-19,131,-51,-80,-4,-34,-73,-112,-97,-97
-122,-141,-19,131,-51,-80,-4,-34,-73,-112,-97,-97
-122,-141,-19,131,-51,-80,-4,-34,-73,-112,-97,-97
-122,-156,-34,139,-43,-95,-4,-34,-73,-117,-107,-97
-122,-156,-34,139,-43,-95,-9,-39,-73,-117,-107,-97
-122,-161,-39,141,-41,-100,-9,-39,-73,-117,-107,-97
-126,-165,-39,146,-43,-102,-4,-39,-73,-112,-107,-102
-126,-161,-34,143,-46,-97,-4,-29,-73,-112,-97,-92
-126,-156,-29,141,-48,-92,-9,-29,-73,-112,-97,-92
-131,-156,-24,143,-53,-90,-9,-29,-73,-112,-97,-92
-131,-151,-19,141,-56,-85,-9,-34,-68,-107,-97,-87
-122,-146,-24,134,-48,-85,0,-34,-63,-107,-87,-97
-122,-141,-19,131,-51,-80,-4,-34,-63,-107,-87,-97
-122,-136,-14,129,-53,-75,-4,-34,-63,-97,-82,-97
-122,-131,-9,126,-56,-70,-4,-34,-63,-97,-82,-97
-112,-141,-29,126,-41,-85,-14,-34,-63,-87,-82,-92
-112,-146,-34,129,-39,-90,-9,-34,-63,-87,-82,-92
-117,-146,-29,131,-43,-87,-9,-34,-63,-87,-82,-92
-122,-151,-29,136,-46,-90,-9,-34,-63,-87,-78,-92
-112,-146,-34,129,-39,-90,-9,-34,-58,-82,-73,-82
-117,-141,-24,129,-46,-82,-14,-34,-58,-82,-73,-82
-117,-136,-19,126,-48,-78,-14,-34,-58,-87,-78,-82
-112,-126,-14,119,-48,-70,-14,-34,-58,-87,-78,-82
-102,-117,-14,109,-43,-65,-4,-34,-48,-97,-82,-82
-102,-117,-14,109,-43,-65,-4,-34,-48,-92,-82,-82
-102,-117,-14,109,-43,-65,-4,-34,-43,-92,-82,-82
-102,-107,-4,104,-48,-56,-4,-34,-43,-92,-82,-82
-112,-122,-9,117,-51,-65,-4,-34,-48,-82,-73,-92
-117,-131,-14,124,-51,-73,-9,-34,-48,-82,-73,-92
-117,-136,-19,126,-48,-78,-9,-34,-43,-78,-73,-92
-117,-141,-24,129,-46,-82,-9,-34,-43,-78,-73,-87
-112,-122,-9,117,-51,-65,0,-34,-48,-78,-73,-78
-112,-122,-9,117,-51,-65,0,-34,-48,-82,-73,-78
-112,-112,0,112,-56,-56,-4,-34,-48,-82,-73,-78
-112,-107,4,109,-58,-51,-4,-34,-48,-78,-68,-73
-102,-117,-14,109,-43,-65,-4,-24,-48,-87,-73,-73
-102,-117,-14,109,-43,-65,0,-24,-43,-78,-73,-73
-112,-122,-9,117,-51,-65,0,-24,-43,-73,-73,-73
-112,-122,-9,117,-51,-65,-4,-24,-43,-68,-68,-73
-97,-112,-14,104,-41,-63,-4,-24,-43,-68,-68,-73
-97,-112,-14,104,-41,-63,-4,-24,-43,-68,-68,-73
-97,-117,-19,107,-39,-68,-4,-24,-43,-73,-68,-73
-97,-117,-19,107,-39,-68,-9,-24,-43,-78,-73,-73
-97,-107,-9,102,-43,-58,-9,-24,-43,-87,-73,-78
-97,-107,-9,102,-43,-58,-4,-24,-43,-82,-73,-78
-97,-107,-9,102,-43,-58,-4,-24,-43,-82,-73,-78
-102,-112,-9,107,-46,-61,-9,-24,-48,-87,-73,-78
-102,-117,-14,109,-43,-65,-9,-24,-48,-78,-73,-68
-97,-122,-24,109,-36,-73,-4,-24,-43,-78,-73,-68
-97,-126,-29,112,-34,-78,-4,-24,-43,-78,-68,-68
-97,-131,-34,114,-31,-82,-4,-24,-43,-78,-68,-68
-107,-122,-14,114,-46,-68,4,-24,-43,-78,-68,-78
-107,-122,-14,114,-46,-68,4,-24,-48,-82,-68,-78
-107,-122,-14,114,-46,-68,4,-24,-48,-82,-68,-78
-117,-122,-4,119,-56,-63,4,-24,-48,-82,-68,-78
-117,-122,-4,119,-56,-63,0,-29,-58,-82,-78,-87
-117,-122,-4,119,-56,-63,-4,-34,-58,-82,-78,-87
-117,-126,-9,122,-53,-68,-9,-34,-58,-82,-78,-87
-117,-126,-9,122,-53,-68,-14,-34,-58,-87,-78,-87
-117,-136,-19,126,-48,-78,-4,-34,-58,-92,-82,-78
-117,-141,-24,129,-46,-82,-4,-34,-58,-92,-82,-82
-117,-141,-24,129,-46,-82,-4,-34,-58,-97,-87,-82
-122,-141,-19,131,-51,-80,-4,-34,-58,-97,-87,-87
-122,-136,-14,129,-53,-75,-14,-34,-58,-92,-82,-87
-126,-136,-9,131,-58,-73,-14,-34,-58,-78,-73,-82
-126,-131,-4,129,-61,-68,-14,-39,-63,-68,-63,-82
-122,-131,-9,126,-56,-70,-14,-39,-68,-63,-58,-82
-131,-151,-19,141,-56,-85,-14,-29,-58,-82,-73,-82
-131,-156,-24,143,-53,-90,-14,-29,-58,-97,-78,-82
-131,-156,-24,143,-53,-90,-14,-29,-58,-107,-92,-82
-131,-161,-29,146,-51,-95,-14,-29,-58,-112,-97,-87
-136,-170,-34,153,-51,-102,-14,-34,-68,-112,-107,-102
-136,-170,-34,153,-51,-102,-14,-34,-73,-112,-107,-102
-141,-170,-29,156,-56,-100,-14,-39,-73,-112,-107,-107
-146,-170,-24,158,-61,-97,-14,-39,-73,-112,-107,-107
-146,-170,-24,158,-61,-97,-14,-39,-78,-92,-102,-97
-151,-180,-29,165,-61,-104,-14,-39,-78,-87,-102,-102
-151,-180,-29,165,-61,-104,-14,-39,-73,-87,-97,-102
-146,-170,-24,158,-61,-97,-14,-39,-73,-82,-92,-102
-156,-180,-24,168,-65,-102,-24,-48,-73,-92,-102,-112
-156,-180,-24,168,-65,-102,-24,-48,-73,-97,-102,-112
-156,-175,-19,165,-68,-97,-24,-48,-82,-107,-97,-112
-156,-175,-19,165,-68,-97,-24,-48,-82,-112,-97,-112
-151,-170,-19,161,-65,-95,-14,-39,-68,-107,-97,-107
-151,-170,-19,161,-65,-95,-14,-39,-68,-102,-92,-102
-151,-170,-19,161,-65,-95,-14,-39,-68,-97,-92,-97
-151,-170,-19,161,-65,-95,-14,-39,-68,-92,-92,-92
-161,-180,-19,170,-70,-100,-24,-48,-68,-102,-82,-102
-161,-185,-24,173,-68,-104,-24,-48,-68,-102,-82,-102
-161,-185,-24,173,-68,-104,-24,-48,-68,-97,-87,-102
-161,-190,-29,175,-65,-109,-24,-48,-68,-97,-87,-102
-170,-200,-29,185,-70,-114,-14,-48,-78,-107,-92,-102
-170,-204,-34,187,-68,-119,-14,-48,-78,-112,-97,-102
-170,-209,-39,190,-65,-124,-14,-48,-78,-112,-102,-102
-170,-214,-43,192,-63,-129,-14,-48,-78,-117,-107,-102
-170,-209,-39,190,-65,-124,-19,-63,-78,-112,-102,-117
-175,-209,-34,192,-70,-122,-24,-63,-78,-107,-97,-117
-175,-209,-34,192,-70,-122,-29,-58,-78,-92,-92,-117
-175,-204,-29,190,-73,-117,-34,-58,-78,-87,-92,-117
-175,-195,-19,185,-78,-107,-24,-48,-82,-97,-97,-107
-175,-195,-19,185,-78,-107,-24,-53,-82,-107,-97,-107
-175,-195,-19,185,-78,-107,-29,-53,-82,-112,-102,-102
-175,-195,-19,185,-78,-107,-29,-53,-82,-112,-107,-102
-175,-204,-29,190,-73,-117,-24,-53,-68,-112,-97,-112
-175,-209,-34,192,-70,-122,-19,-53,-68,-112,-97,-112
-175,-219,-43,197,-65,-131,-14,-53,-68,-112,-97,-112
-175,-229,-53,202,-61,-141,-9,-53,-68,-112,-97,-112
-175,-224,-48,200,-63,-136,-9,-53,-68,-107,-102,-107
-175,-219,-43,197,-65,-131,-14,-53,-68,-102,-102,-107
-180,-214,-34,197,-73,-124,-19,-53,-68,-97,-102,-107
-180,-214,-34,197,-73,-124,-24,-53,-68,-92,-97,-107
-180,-204,-24,192,-78,-114,-34,-63,-78,-97,-97,-117
-180,-195,-14,187,-82,-104,-34,-63,-78,-102,-97,-117
-180,-195,-14,187,-82,-104,-34,-68,-82,-112,-97,-122
-180,-190,-9,185,-85,-100,-34,-68,-82,-117,-97,-122
-190,-195,-4,192,-92,-100,-24,-68,-82,-107,-107,-122
-190,-204,-14,197,-87,-109,-24,-68,-82,-107,-107,-122
-190,-209,-19,200,-85,-114,-24,-63,-82,-107,-107,-122
-190,-219,-29,204,-80,-124,-24,-63,-82,-112,-107,-122
-180,-224,-43,202,-68,-134,-24,-53,-73,-102,-97,-117
-190,-234,-43,212,-73,-139,-24,-53,-73,-102,-97,-112
-190,-234,-43,212,-73,-139,-24,-53,-73,-97,-97,-107
-185,-234,-48,209,-68,-141,-24,-53,-73,-97,-97,-97
-175,-224,-48,200,-63,-136,-19,-53,-63,-97,-97,-107
-175,-224,-48,200,-63,-136,-19,-53,-63,-97,-97,-107
-175,-224,-48,200,-63,-136,-19,-53,-68,-92,-97,-107
-175,-224,-48,200,-63,-136,-19,-53,-68,-92,-97,-112
-185,-224,-39,204,-73,-131,-29,-63,-78,-102,-102,-122
-185,-219,-34,202,-75,-126,-29,-63,-78,-107,-102,-122
-190,-214,-24,202,-82,-119,-29,-68,-78,-112,-102,-122
-190,-209,-19,200,-85,-114,-29,-68,-78,-117,-102,-122
-190,-209,-19,200,-85,-114,-29,-68,-82,-126,-112,-131
-190,-209,-19,200,-85,-114,-29,-63,-82,-122,-112,-131
-190,-209,-19,200,-85,-114,-29,-63,-82,-122,-112,-136
-195,-214,-19,204,-87,-117,-29,-63,-82,-122,-117,-136
-204,-248,-43,226,-80,-146,-39,-63,-87,-131,-126,-122
-204,-253,-48,229,-78,-151,-48,-58,-78,-126,-117,-117
-200,-239,-39,219,-80,-139,-39,-58,-68,-112,-112,-117
-195,-234,-39,214,-78,-136,-39,-58,-68,-107,-107,-117
-190,-229,-39,209,-75,-134,-39,-58,-68,-102,-102,-117
-185,-224,-39,204,-73,-131,-39,-58,-68,-97,-97,-117
-195,-229,-34,212,-80,-131,-29,-58,-68,-107,-97,-117
-195,-234,-39,214,-78,-136,-29,-58,-68,-107,-97,-117
-195,-239,-43,217,-75,-141,-29,-58,-68,-107,-97,-117
-195,-244,-48,219,-73,-146,-29,-58,-68,-107,-97,-117
-185,-224,-39,204,-73,-131,-39,-63,-78,-107,-97,-117
-185,-214,-29,200,-78,-122,-39,-68,-78,-107,-97,-117
-185,-204,-19,195,-82,-112,-39,-73,-78,-107,-97,-117
-185,-195,-9,190,-87,-102,-39,-78,-78,-107,-97,-117
-195,-200,-4,197,-95,-102,-29,-73,-78,-112,-107,-117
-195,-204,-9,200,-92,-107,-29,-68,-78,-117,-107,-117
-195,-209,-14,202,-90,-112,-29,-63,-78,-122,-107,-117
-195,-214,-19,204,-87,-117,-29,-58,-78,-126,-107,-117
-185,-214,-29,200,-78,-122,-29,-58,-68,-122,-97,-117
-185,-214,-29,200,-78,-122,-29,-58,-68,-117,-97,-117
-185,-214,-29,200,-78,-122,-29,-58,-68,-112,-97,-117
-185,-214,-29,200,-78,-122,-29,-58,-68,-107,-97,-117
-195,-204,-9,200,-92,-107,-19,-58,-68,-97,-87,-107
-195,-204,-9,200,-92,-107,-19,-58,-68,-97,-87,-107
-195,-204,-9,200,-92,-107,-19,-58,-68,-97,-87,-107
-195,-204,-9,200,-92,-107,-19,-58,-68,-97,-87,-107
-195,-195,0,195,-97,-97,-9,-48,-58,-92,-82,-97
-195,-195,0,195,-97,-97,-9,-48,-58,-87,-78,-97
-195,-185,9,190,-102,-87,-9,-48,-58,-82,-73,-97
-195,-185,9,190,-102,-87,-9,-48,-58,-78,-68,-97
-195,-200,-4,197,-95,-102,0,-43,-63,-87,-78,-107
-195,-200,-4,197,-95,-102,9,-39,-63,-82,-82,-107
-195,-200,-4,197,-95,-102,14,-39,-63,-87,-82,-107
-195,-185,9,190,-102,-87,14,-39,-63,-92,-87,-107
-190,-175,14,183,-102,-80,0,-39,-53,-87,-82,-97
-190,-170,19,180,-104,-75,0,-39,-53,-87,-82,-97
-185,-165,19,175,-102,-73,0,-34,-48,-87,-82,-92
-180,-161,19,170,-100,-70,-4,-34,-43,-82,-78,-92
-180,-170,9,175,-95,-80,-9,-34,-43,-82,-73,-82
-185,-175,9,180,-97,-82,-9,-39,-43,-82,-73,-82
-185,-175,9,180,-97,-82,-19,-43,-48,-78,-73,-87
-175,-165,9,170,-92,-78,-24,-48,-48,-78,-73,-87
-185,-165,19,175,-102,-73,-34,-58,-48,-73,-63,-87
-185,-165,19,175,-102,-73,-48,-68,-63,-73,-63,-82
-185,-165,19,175,-102,-73,-58,-78,-68,-78,-63,-82
-180,-165,14,173,-97,-75,-58,-78,-68,-78,-63,-87
-180,-156,24,168,-102,-65,-73,-87,-68,-78,-63,-78
-180,-156,24,168,-102,-65,-73,-92,-68,-73,-63,-78
-180,-161,19,170,-100,-70,-73,-92,-73,-73,-63,-78
-185,-161,24,173,-104,-68,-73,-97,-73,-73,-63,-78
-185,-170,14,178,-100,-78,-73,-87,-82,-87,-78,-82
-185,-170,14,178,-100,-78,-78,-92,-87,-97,-82,-87
-185,-170,14,178,-100,-78,-82,-92,-87,-97,-82,-92
-180,-170,9,175,-95,-80,-82,-92,-82,-97,-82,-97
-170,-170,0,170,-85,-85,-82,-102,-73,-87,-73,-92
-165,-165,0,165,-82,-82,-82,-97,-73,-82,-73,-87
-161,-161,0,161,-80,-80,-82,-97,-82,-82,-73,-82
-156,-156,0,156,-78,-78,-82,-97,-82,-92,-78,-78
-156,-170,-14,163,-70,-92,-82,-97,-82,-102,-87,-78
-156,-180,-24,168,-65,-102,-82,-97,-87,-102,-87,-78
-161,-185,-24,173,-68,-104,-87,-102,-87,-102,-82,-78
-165,-190,-24,178,-70,-107,-87,-107,-87,-102,-82,-78
-156,-195,-39,175,-58,-117,-82,-97,-92,-87,-73,-87
-156,-190,-34,173,-61,-112,-78,-92,-92,-82,-68,-87
-156,-185,-29,170,-63,-107,-78,-92,-87,-78,-63,-87
-156,-195,-39,175,-58,-117,-78,-87,-87,-73,-63,-92
-156,-190,-34,173,-61,-112,-78,-97,-82,-87,-78,-92
-151,-190,-39,170,-56,-114,-68,-87,-82,-92,-82,-92
-151,-190,-39,170,-56,-114,-68,-87,-82,-107,-92,-92
-156,-200,-43,178,-56,-122,-63,-87,-82,-112,-97,-97
-175,-204,-29,190,-73,-117,-53,-73,-92,-107,-97,-112
-185,-219,-34,202,-75,-126,-48,-68,-87,-107,-97,-112
-185,-224,-39,204,-73,-131,-43,-68,-87,-112,-97,-112
-190,-229,-39,209,-75,-134,-43,-63,-82,-112,-102,-117
-200,-234,-34,217,-82,-134,-43,-73,-82,-117,-102,-107
-200,-239,-39,219,-80,-139,-34,-73,-87,-117,-102,-112
-204,-253,-48,229,-78,-151,-34,-73,-87,-117,-112,-112
-204,-263,-58,234,-73,-161,-34,-73,-87,-126,-112,-122
-214,-278,-63,246,-75,-170,-29,-63,-82,-126,-117,-136
-214,-278,-63,246,-75,-170,-29,-68,-82,-126,-117,-136
-214,-278,-63,246,-75,-170,-24,-68,-78,-122,-117,-136
-219,-278,-58,248,-80,-168,-24,-68,-78,-122,-112,-136
-214,-278,-63,246,-75,-170,-29,-78,-87,-112,-102,-126
-214,-273,-58,244,-78,-165,-29,-68,-87,-112,-102,-126
-209,-263,-53,236,-78,-158,-29,-68,-87,-112,-102,-122
-209,-258,-48,234,-80,-153,-29,-68,-87,-112,-102,-122
-200,-258,-58,229,-70,-158,-29,-68,-78,-126,-107,-126
-204,-258,-53,231,-75,-156,-29,-68,-78,-126,-107,-126
-204,-258,-53,231,-75,-156,-29,-68,-78,-126,-107,-126
-204,-253,-48,229,-78,-151,-29,-68,-78,-126,-107,-126
-204,-263,-58,234,-73,-161,-29,-68,-87,-126,-117,-126
-204,-263,-58,234,-73,-161,-24,-68,-87,-122,-117,-126
-200,-263,-63,231,-68,-163,-24,-63,-87,-122,-112,-126
-195,-263,-68,229,-63,-165,-29,-63,-87,-122,-112,-126
-200,-273,-73,236,-63,-173,-19,-63,-78,-122,-112,-126
-209,-278,-68,244,-70,-173,-19,-63,-78,-122,-112,-122
-214,-283,-68,248,-73,-175,-19,-63,-78,-122,-112,-122
-219,-283,-63,251,-78,-173,-19,-63,-78,-122,-112,-122
-219,-273,-53,246,-82,-163,-29,-63,-87,-131,-126,-126
-219,-273,-53,246,-82,-163,-29,-63,-87,-131,-126,-131
-219,-273,-53,246,-82,-163,-29,-63,-87,-131,-122,-136
-219,-273,-53,246,-82,-163,-29,-58,-87,-126,-122,-141
-209,-283,-73,246,-68,-178,-29,-58,-73,-112,-117,-126
-209,-283,-73,246,-68,-178,-29,-63,-73,-107,-112,-122
-209,-283,-73,246,-68,-178,-29,-63,-73,-102,-107,-117
-209,-283,-73,246,-68,-178,-29,-63,-73,-97,-102,-112
-219,-292,-73,256,-73,-183,-19,-53,-63,-112,-102,-122
-200,-263,-63,231,-68,-163,-9,-43,-73,-102,-102,-131
-209,-263,-53,236,-78,-158,-19,-48,-73,-112,-117,-141
-219,-283,-63,251,-78,-173,-29,-58,-73,-102,-107,-126
-214,-263,-48,239,-82,-156,-19,-29,-48,-102,-107,-122
-209,-263,-53,236,-78,-158,4,-14,-34,-122,-117,-131
-209,-268,-58,239,-75,-163,19,0,-19,-107,-112,-141
-209,-258,-48,234,-80,-153,19,14,4,-68,-82,-122
-209,-234,-24,222,-92,-129,29,24,24,-19,-53,-102
-224,-224,0,224,-112,-112,19,29,39,0,-29,-92
-229,-244,-14,236,-107,-129,4,39,63,14,-24,-87
-204,-229,-24,217,-90,-126,-4,68,131,43,4,-63
-156,-180,-24,168,-65,-102,4,131,239,131,78,4
-126,-136,-9,131,-58,-73,4,180,326,253,190,78
-97,-78,19,87,-58,-29,-14,170,380,356,292,156
-53,-4,48,29,-51,21,-29,165,419,468,405,268
-4,92,97,-43,-51,95,-68,136,448,595,531,385
39,175,136,-107,-48,156,-141,34,405,697,663,507
82,273,190,-178,-53,231,-200,-78,356,790,766,610
122,341,219,-231,-48,280,-234,-131,361,868,863,712
161,375,214,-268,-26,295,-283,-161,390,936,951,805
190,424,234,-307,-21,329,-326,-219,346,966,990,868
180,453,273,-317,-46,363,-390,-307,263,907,956,863
170,458,287,-314,-58,373,-414,-366,185,780,844,810
185,380,195,-283,-4,287,-390,-361,136,619,688,712
161,258,97,-209,31,178,-356,-346,53,468,536,600
97,190,92,-143,2,141,-351,-395,-107,317,400,497
29,117,87,-73,-29,102,-341,-463,-312,131,253,380
-39,29,68,4,-53,48,-326,-556,-546,-102,63,234
-102,-34,68,68,-85,17,-346,-639,-751,-322,-117,82
-156,-82,73,119,-114,-4,-380,-678,-819,-434,-219,-9
-195,-126,68,161,-131,-29,-380,-663,-785,-453,-234,-39
-204,-165,39,185,-122,-63,-370,-619,-736,-458,-253,-78
-204,-209,-4,207,-100,-107,-346,-551,-658,-434,-253,-107
-185,-229,-43,207,-70,-136,-307,-453,-531,-375,-229,-97
-204,-234,-29,219,-87,-131,-273,-375,-444,-302,-190,-92
-219,-239,-19,229,-100,-129,-234,-312,-370,-258,-170,-92
-190,-209,-19,200,-85,-114,-180,-234,-283,-209,-136,-82
-185,-185,0,185,-92,-92,-146,-175,-214,-170,-112,-63
-185,-175,9,180,-97,-82,-126,-156,-170,-141,-87,-63
-170,-165,4,168,-87,-80,-107,-146,-151,-112,-63,-53
-190,-185,4,187,-97,-90,-97,-131,-122,-92,-53,-53
-204,-200,4,202,-104,-97,-92,-117,-97,-82,-43,-53
-170,-156,14,163,-92,-70,-78,-82,-68,-58,-34,-48
-161,-156,4,158,-82,-75,-63,-58,-48,-58,-48,-63
-195,-214,-19,204,-87,-117,-58,-58,-63,-107,-82,-92
-190,-224,-34,207,-78,-129,-48,-58,-58,-97,-73,-92
-190,-234,-43,212,-73,-139,-48,-58,-58,-97,-73,-87
-195,-239,-43,217,-75,-141,-53,-58,-58,-97,-73,-87
-200,-239,-39,219,-80,-139,-53,-58,-63,-97,-73,-82
-200,-229,-29,214,-85,-129,-58,-68,-53,-92,-73,-73
-200,-229,-29,214,-85,-129,-58,-58,-48,-87,-73,-73
-200,-229,-29,214,-85,-129,-48,-48,-43,-78,-68,-78
-195,-229,-34,212,-80,-131,-43,-43,-39,-73,-68,-82
-195,-219,-24,207,-85,-122,-39,-34,-43,-78,-73,-97
-195,-214,-19,204,-87,-117,-39,-39,-43,-78,-73,-97
-195,-219,-24,207,-85,-122,-34,-48,-43,-82,-73,-92
-200,-224,-24,212,-87,-124,-29,-48,-43,-82,-78,-92
-200,-239,-39,219,-80,-139,-24,-48,-48,-73,-68,-92
-200,-239,-39,219,-80,-139,-24,-43,-48,-73,-73,-92
-200,-244,-43,222,-78,-143,-19,-34,-43,-78,-73,-92
-200,-258,-58,229,-70,-158,-14,-29,-39,-82,-78,-92
-200,-253,-53,226,-73,-153,-24,-29,-29,-82,-78,-102
-200,-248,-48,224,-75,-148,-24,-29,-24,-78,-73,-107
-195,-244,-48,219,-73,-146,-29,-29,-24,-78,-68,-107
-195,-239,-43,217,-75,-141,-29,-39,-29,-78,-68,-102
-204,-229,-24,217,-90,-126,-39,-39,-34,-68,-68,-97
-204,-229,-24,217,-90,-126,-39,-39,-34,-68,-68,-97
-204,-229,-24,217,-90,-126,-39,-39,-29,-68,-68,-92
-204,-229,-24,217,-90,-126,-39,-29,-29,-68,-68,-87
-195,-248,-53,222,-70,-151,-39,-39,-29,-78,-82,-97
-204,-258,-53,231,-75,-156,-39,-39,-24,-78,-82,-97
-195,-248,-53,222,-70,-151,-39,-43,-24,-73,-82,-92
-195,-248,-53,222,-70,-151,-39,-43,-24,-73,-82,-92
-209,-239,-29,224,-90,-134,-29,-34,-14,-73,-78,-87
-209,-239,-29,224,-90,-134,-29,-34,-19,-68,-68,-82
-209,-244,-34,226,-87,-139,-29,-34,-19,-63,-63,-82
-209,-244,-34,226,-87,-139,-29,-34,-19,-53,-58,-78
-209,-244,-34,226,-87,-139,-29,-34,-19,-58,-73,-87
-209,-248,-39,229,-85,-143,-29,-34,-19,-68,-73,-87
-209,-248,-39,229,-85,-143,-34,-34,-19,-73,-73,-87
-209,-248,-39,229,-85,-143,-34,-34,-19,-78,-73,-87
-195,-248,-53,222,-70,-151,-34,-34,-19,-68,-68,-87
-195,-244,-48,219,-73,-146,-34,-34,-19,-68,-63,-82
-195,-244,-48,219,-73,-146,-39,-34,-19,-63,-58,-82
-195,-244,-48,219,-73,-146,-39,-34,-19,-63,-53,-82
-204,-224,-19,214,-92,-122,-43,-43,-24,-68,-63,-82
-204,-224,-19,214,-92,-122,-43,-43,-14,-68,-58,-82
-204,-224,-19,214,-92,-122,-43,-43,-9,-58,-58,-82
-204,-224,-19,214,-92,-122,-48,-43,-9,-58,-58,-82
-204,-234,-29,219,-87,-131,-43,-43,-4,-53,-58,-73
-204,-244,-39,224,-82,-141,-43,-39,-4,-53,-58,-73
-204,-253,-48,229,-78,-151,-43,-34,-4,-48,-58,-73
-200,-258,-58,229,-70,-158,-43,-29,-4,-43,-53,-68
-200,-244,-43,222,-78,-143,-48,-34,-14,-53,-63,-78
-200,-239,-39,219,-80,-139,-48,-34,-9,-53,-53,-73
-200,-234,-34,217,-82,-134,-48,-34,-4,-48,-53,-73
-200,-219,-19,209,-90,-119,-48,-34,-4,-43,-53,-73
-200,-229,-29,214,-85,-129,-48,-43,-4,-43,-53,-68
-195,-224,-29,209,-82,-126,-53,-43,-4,-43,-48,-63
-195,-214,-19,204,-87,-117,-53,-43,-4,-43,-48,-63
-190,-214,-24,202,-82,-119,-53,-43,-4,-43,-48,-63
-175,-204,-29,190,-73,-117,-63,-43,-14,-48,-48,-73
-175,-195,-19,185,-78,-107,-63,-43,-14,-48,-48,-68
-170,-185,-14,178,-78,-100,-63,-39,-4,-48,-43,-68
-170,-170,0,170,-85,-85,-63,-39,-4,-43,-39,-58
-175,-185,-9,180,-82,-97,-58,-34,0,-24,-34,-53
-175,-185,-9,180,-82,-97,-58,-34,4,-19,-19,-48
-175,-190,-14,183,-80,-102,-53,-34,9,-19,-14,-43
-175,-185,-9,180,-82,-97,-48,-34,24,-19,-9,-34
-165,-185,-19,175,-73,-102,-48,-19,14,-9,-19,-43
-165,-185,-19,175,-73,-102,-43,-19,14,-4,-14,-39
-161,-185,-24,173,-68,-104,-43,-19,14,-4,-14,-34
-156,-185,-29,170,-63,-107,-43,-14,19,0,-9,-29
-151,-175,-24,163,-63,-100,-53,-24,29,-4,-9,-19
-151,-175,-24,163,-63,-100,-63,-29,34,0,0,-19
-146,-165,-19,156,-63,-92,-63,-29,39,0,0,-19
-146,-165,-19,156,-63,-92,-68,-29,39,0,4,-14
-156,-165,-9,161,-73,-87,-58,-19,29,4,9,-19
-151,-156,-4,153,-73,-80,-53,-9,34,14,14,-14
-146,-141,4,143,-75,-68,-53,-9,39,19,19,-14
-146,-131,14,139,-80,-58,-53,-9,39,19,19,-14
-136,-126,9,131,-73,-58,-63,-19,29,19,19,4
-131,-122,9,126,-70,-56,-63,-19,34,19,24,9
-126,-117,9,122,-68,-53,-63,-19,39,29,29,14
-122,-107,14,114,-68,-46,-68,-14,43,34,34,19
-122,-117,4,119,-63,-56,-68,0,58,34,29,14
-117,-107,9,112,-63,-48,-68,0,63,39,34,14
-117,-107,9,112,-63,-48,-68,0,68,48,34,19
-117,-102,14,109,-65,-43,-68,0,68,48,39,24
-117,-102,14,109,-65,-43,-58,0,73,68,48,34
-117,-107,9,112,-63,-48,-58,4,87,68,58,39
-107,-117,-9,112,-48,-63,-63,4,97,78,73,43
-102,-102,0,102,-51,-51,-63,4,107,82,82,53
-92,-87,4,90,-48,-41,-78,4,102,82,78,43
-92,-82,9,87,-51,-36,-78,4,107,87,82,53
-82,-73,9,78,-46,-31,-78,9,107,102,87,58
-82,-68,14,75,-48,-26,-78,9,112,107,97,68
-73,-63,9,68,-41,-26,-87,9,117,112,112,82
-63,-43,19,53,-41,-12,-92,9,122,122,112,87
-58,-39,19,48,-39,-9,-97,9,126,126,117,87
-58,-24,34,41,-46,4,-97,9,131,126,126,92
-53,-34,19,43,-36,-7,-92,9,136,136,131,107
-58,-29,29,43,-43,0,-92,14,141,141,136,117
-58,-19,39,39,-48,9,-97,14,146,141,136,117
-63,-24,39,43,-51,7,-102,14,151,151,146,122
-48,-24,24,36,-36,0,-107,24,165,161,151,131
-43,-19,24,31,-34,2,-107,24,165,165,156,136
-39,-4,34,21,-36,14,-107,24,170,165,156,141
-29,-4,24,17,-26,9,-107,24,175,170,161,146
-39,-9,29,24,-34,9,-97,19,180,165,161,136
-43,-9,34,26,-39,12,-102,19,180,165,161,146
-43,-9,34,26,-39,12,-102,19,180,161,161,146
-43,-9,34,26,-39,12,-102,24,180,161,156,146
-29,4,34,12,-31,19,-112,34,190,170,165,151
-19,14,34,2,-26,24,-112,39,190,180,175,156
-14,19,34,-2,-24,26,-117,39,190,190,185,161
-9,24,34,-7,-21,29,-122,39,190,195,190,165
0,34,34,-17,-17,34,-122,34,195,200,195,170
0,43,43,-21,-21,43,-122,34,200,204,204,175
0,43,43,-21,-21,43,-122,34,204,209,209,180
0,48,48,-24,-24,48,-122,29,204,214,214,190
0,39,39,-19,-19,39,-117,29,195,209,209,180
0,39,39,-19,-19,39,-117,19,195,204,204,180
0,39,39,-19,-19,39,-117,19,195,195,200,175
0,39,39,-19,-19,39,-117,19,190,190,195,175
0,39,39,-19,-19,39,-117,24,195,195,200,185
4,34,29,-19,-12,31,-117,24,195,195,200,185
4,29,24,-17,-9,26,-117,14,185,185,200,180
4,29,24,-17,-9,26,-117,14,180,175,185,175
-4,19,24,-7,-14,21,-117,0,161,165,180,165
-9,4,14,2,-12,9,-112,0,156,156,165,151
-14,4,19,4,-17,12,-112,0,151,146,156,146
-14,0,14,7,-14,7,-102,0,146,141,146,136
-14,4,19,4,-17,12,-97,0,136,141,151,131
-24,4,29,9,-26,17,-97,-4,126,126,136,122
-24,0,24,12,-24,12,-92,-4,122,117,131,117
-29,-14,14,21,-21,0,-82,-4,112,107,117,112
-34,-24,9,29,-21,-7,-87,-9,112,102,122,107
-39,-24,14,31,-26,-4,-82,-9,107,102,112,97
-43,-24,19,34,-31,-2,-78,-4,97,97,97,87
-48,-24,24,36,-36,0,-73,-4,87,87,87,78
-43,-43,0,43,-21,-21,-68,0,73,78,92,73
-43,-43,0,43,-21,-21,-63,0,68,73,82,63
-53,-48,4,51,-29,-21,-53,0,63,58,73,53
-58,-58,0,58,-29,-29,-43,0,58,53,63,43
-63,-63,0,63,-31,-31,-48,-9,58,43,53,43
-78,-82,-4,80,-36,-43,-43,-9,53,34,48,34
-92,-97,-4,95,-43,-51,-43,-9,39,29,34,24
-97,-112,-14,104,-41,-63,-34,-9,39,19,29,19
-87,-126,-39,107,-24,-82,-29,-4,29,14,14,4
-92,-126,-34,109,-29,-80,-29,-4,19,-4,9,-4
-97,-141,-43,119,-26,-92,-24,-4,9,-14,-9,-9
-97,-151,-53,124,-21,-102,-19,-4,9,-29,-14,-9
-102,-146,-43,124,-29,-95,-14,-9,14,-19,-9,-14
-102,-141,-39,122,-31,-90,-9,-9,9,-34,-19,-29
-112,-151,-39,131,-36,-95,-9,-14,4,-34,-29,-34
-112,-146,-34,129,-39,-90,-9,-14,0,-39,-29,-39
-102,-136,-34,119,-34,-85,-19,-19,0,-34,-29,-34
-102,-146,-43,124,-29,-95,-14,-19,-4,-34,-29,-34
-112,-146,-34,129,-39,-90,-14,-19,-9,-34,-29,-34
-112,-151,-39,131,-36,-95,-14,-19,-14,-34,-24,-39
-112,-141,-29,126,-41,-85,-4,-19,-19,-43,-39,-53
-112,-146,-34,129,-39,-90,-4,-19,-24,-48,-43,-58
-122,-151,-29,136,-46,-90,-4,-19,-29,-58,-43,-63
-122,-151,-29,136,-46,-90,-4,-19,-29,-58,-48,-63
-112,-165,-53,139,-29,-109,-4,-19,-29,-53,-43,-58
-117,-165,-48,141,-34,-107,-4,-19,-29,-53,-48,-58
-117,-165,-48,141,-34,-107,-4,-24,-29,-53,-53,-58
-112,-165,-53,139,-29,-109,-4,-24,-29,-58,-53,-58
-112,-170,-58,141,-26,-114,0,-14,-19,-53,-43,-48
-112,-170,-58,141,-26,-114,0,-14,-24,-48,-43,-48
-117,-180,-63,148,-26,-122,0,-14,-29,-43,-43,-53
-122,-180,-58,151,-31,-119,-4,-14,-34,-43,-48,-53
-122,-175,-53,148,-34,-114,-4,-24,-34,-58,-58,-63
-117,-170,-53,143,-31,-112,-4,-24,-34,-58,-58,-63
-117,-156,-39,136,-39,-97,-4,-24,-34,-58,-58,-63
-126,-165,-39,146,-43,-102,-4,-34,-34,-58,-63,-68
-122,-156,-34,139,-43,-95,4,-29,-34,-78,-73,-68
-107,-156,-48,131,-29,-102,4,-19,-34,-78,-73,-73
