I,II,III,aVR,aVL,aVF,V1,V2,V3,V4,V5,V6
-126,19,146,53,-136,82,102,29,58,-34,-131,-48
-112,24,136,43,-124,80,117,58,78,-34,-131,-39
-112,34,146,39,-129,90,117,63,78,-39,-136,-29
-122,34,156,43,-139,95,112,63,78,-48,-161,-58
-126,34,161,46,-143,97,102,14,43,-39,-146,-43
-117,39,156,39,-136,97,102,19,24,-29,-131,-39
-131,39,170,46,-151,104,102,24,9,-9,-97,-29
-136,39,175,48,-156,107,102,19,0,0,-82,-24
-122,43,165,39,-143,104,87,29,0,-9,-78,-4
-122,58,180,31,-151,119,78,34,-4,-14,-63,-4
-117,63,180,26,-148,122,68,9,-9,-19,-58,-4
-112,58,170,26,-141,114,58,-9,-19,-34,-63,-19
-112,43,156,34,-134,100,78,14,0,-24,-68,-9
-112,39,151,36,-131,95,92,63,9,-14,-53,-9
-117,34,151,41,-134,92,102,48,29,-14,-48,-19
-117,29,146,43,-131,87,126,39,39,-14,-48,4
-141,43,185,48,-163,114,126,19,34,-4,-58,-4
-136,48,185,43,-161,117,117,19,29,-4,-53,-19
-122,53,175,34,-148,114,117,9,24,0,-53,-39
-126,58,185,34,-156,122,122,9,24,0,-43,-53
-107,68,175,19,-141,122,122,-34,43,14,-58,-48
-73,73,146,0,-109,109,122,-39,63,29,-53,-48
-63,78,141,-7,-102,109,122,-39,82,39,-39,-43
-53,82,136,-14,-95,109,117,-34,102,43,-34,-34
-68,68,136,0,-102,102,122,-19,63,19,-43,-34
-73,68,141,2,-107,104,122,-14,24,4,-48,-39
-87,63,151,12,-119,107,122,-9,-9,-9,-53,-39
-92,63,156,14,-124,109,122,-4,-43,-29,-58,-39
-92,68,161,12,-126,114,117,4,-9,-29,-43,-34
-87,73,161,7,-124,117,107,29,14,-14,-39,-39
-87,73,161,7,-124,117,126,48,39,14,-24,-34
-92,68,161,12,-126,114,141,58,63,29,-19,-24
-92,73,165,9,-129,119,141,53,43,24,-43,-39
-92,82,175,4,-134,129,126,58,39,29,-34,-48
-82,87,170,-2,-126,129,122,68,48,29,-34,-63
-82,92,175,-4,-129,134,117,39,34,24,-43,-78
-78,78,156,0,-117,117,112,14,29,0,-43,-82
-87,78,165,4,-126,122,112,9,29,-19,-43,-82
-87,82,170,2,-129,126,122,19,43,-9,-48,-82
-82,82,165,0,-124,124,126,29,48,-14,-48,-78
-68,63,131,2,-100,97,122,19,34,-24,-53,-87
-63,73,136,-4,-100,104,107,19,24,-9,-58,-87
-58,73,131,-7,-95,102,112,14,9,0,-48,-87
-58,73,131,-7,-95,102,107,0,0,9,-53,-82
-48,82,131,-17,-90,107,92,14,-9,4,-53,-68
-48,82,131,-17,-90,107,82,34,-4,-4,-73,-68
-48,82,131,-17,-90,107,73,29,-14,-4,-63,-63
-58,87,146,-14,-102,117,63,-4,-19,-4,-53,-58
-39,78,117,-19,-78,97,68,-24,-9,-19,-43,-48
-39,73,112,-17,-75,92,78,4,-14,-29,-43,-39
-43,68,112,-12,-78,90,87,14,-24,-34,-43,-34
-43,53,97,-4,-70,75,97,29,-14,-39,-43,-34
-58,63,122,-2,-90,92,107,4,24,-29,-53,-48
-68,63,131,2,-100,97,102,-9,29,-43,-53,-58
-73,68,141,2,-107,104,97,-24,19,-48,-48,-68
-78,73,151,2,-114,112,97,-14,19,-48,-39,-68
-73,82,156,-4,-114,119,87,0,29,-39,-43,-73
-63,73,136,-4,-100,104,82,9,48,-24,-48,-73
-53,73,126,-9,-90,100,78,14,58,-4,-53,-82
-58,68,126,-4,-92,97,82,4,48,-9,-53,-73
-63,53,117,4,-90,85,82,-4,29,-29,-48,-73
-58,63,122,-2,-90,92,78,-4,9,-29,-53,-87
-78,48,126,14,-102,87,82,9,24,-29,-53,-78
-82,43,126,19,-104,85,87,19,4,-29,-48,-68
-63,48,112,7,-87,80,82,-9,14,-34,-53,-78
-58,53,112,2,-85,82,87,-19,19,-29,-53,-87
-63,48,112,7,-87,80,87,-4,29,-19,-39,-82
-68,43,112,12,-90,78,87,4,43,-14,-39,-92
-58,53,112,2,-85,82,82,-4,29,-9,-43,-92
-58,58,117,0,-87,87,82,-14,9,-9,-58,-102
-53,43,97,4,-75,70,82,-14,-4,-24,-78,-112
-53,39,92,7,-73,65,92,-14,-9,-24,-73,-92
-53,53,107,0,-80,80,87,0,24,-29,-78,-73
-48,53,102,-2,-75,78,87,0,29,-24,-102,-73
-63,48,112,7,-87,80,87,4,29,-29,-117,-73
-68,73,141,-2,-104,107,87,9,29,-34,-126,-73
-48,78,126,-14,-87,102,92,0,19,-29,-92,-63
-43,78,122,-17,-82,100,97,-4,-4,-24,-82,-68
-48,78,126,-14,-87,102,92,-19,-14,-14,-63,-82
-43,97,141,-26,-92,119,87,-19,-34,-9,-39,-92
-24,87,112,-31,-68,100,58,-9,-14,9,-63,-107
-14,58,73,-21,-43,65,43,-9,-24,53,-48,-117
-24,68,92,-21,-58,80,53,-9,-4,170,48,-63
-48,68,117,-9,-82,92,34,-4,-19,244,136,-39
-68,58,126,4,-97,92,14,-48,-146,297,219,0
-29,68,97,-19,-63,82,19,-141,-375,356,322,78
24,92,68,-58,-21,80,14,-244,-585,424,497,200
14,122,107,-68,-46,114,-24,-317,-727,546,751,419
14,195,180,-104,-82,187,-73,-385,-902,702,1068,717
92,302,209,-197,-58,256,-165,-497,-1112,863,1444,1019
175,366,190,-270,-7,278,-273,-595,-1263,1015,1834,1356
209,385,175,-297,17,280,-385,-668,-1376,1054,2132,1644
278,444,165,-361,56,305,-468,-839,-1503,966,2313,1922
361,531,170,-446,95,351,-541,-1083,-1673,751,2430,2215
370,600,229,-485,70,414,-634,-1200,-1903,497,2522,2459
346,580,234,-463,56,407,-663,-1083,-2098,307,2615,2620
361,531,170,-446,95,351,-610,-956,-2166,92,2654,2752
361,458,97,-409,131,278,-595,-1088,-2176,-229,2635,2898
317,346,29,-331,143,187,-575,-1249,-2176,-497,2605,3050
297,156,-141,-226,219,7,-497,-1083,-2117,-658,2522,3089
317,-53,-370,-131,344,-212,-414,-805,-1981,-844,2259,2991
297,-224,-522,-36,409,-373,-380,-712,-1790,-1000,1830,2718
273,-302,-575,14,424,-439,-346,-673,-1590,-1093,1249,2215
248,-302,-551,26,400,-427,-239,-536,-1420,-1171,585,1576
204,-341,-546,68,375,-444,-122,-424,-1254,-1249,0,995
131,-409,-541,139,336,-475,-63,-317,-1078,-1263,-390,502
73,-439,-512,183,292,-475,-29,-204,-927,-1224,-580,126
82,-409,-492,163,287,-451,19,-131,-800,-1127,-649,-73
68,-366,-434,148,251,-400,63,-78,-644,-946,-600,-141
-9,-326,-317,168,153,-322,92,-24,-497,-751,-507,-126
-39,-287,-248,163,104,-268,107,9,-424,-624,-458,-151
9,-253,-263,122,136,-258,102,92,-370,-522,-419,-190
0,-200,-200,100,100,-200,92,156,-273,-380,-312,-161
-53,-126,-73,90,9,-100,107,126,-219,-283,-234,-122
-48,-63,-14,56,-17,-39,117,39,-195,-224,-200,-117
-24,-34,-9,29,-7,-21,122,34,-68,-141,-185,-82
-34,-9,24,21,-29,7,102,112,53,-92,-200,-63
-48,29,78,9,-63,53,92,112,53,-97,-141,-63
-39,29,68,4,-53,48,87,19,0,-87,-43,-82
-29,39,68,-4,-48,53,73,39,14,-43,-39,-78
-29,43,73,-7,-51,58,78,73,39,-29,-43,-63
-24,58,82,-17,-53,70,87,73,63,-4,-24,-48
-14,73,87,-29,-51,80,63,43,63,-4,-9,-58
-24,92,117,-34,-70,104,58,34,68,0,-14,-78
-34,82,117,-24,-75,100,73,53,73,4,-24,-87
-34,82,117,-24,-75,100,78,68,107,9,-24,-82
-9,97,107,-43,-58,102,102,73,122,14,-34,-92
-19,68,87,-24,-53,78,92,73,117,48,-43,-87
-24,78,102,-26,-63,90,78,78,117,68,-53,-102
-19,73,92,-26,-56,82,73,78,122,82,-43,-102
-24,68,92,-21,-58,80,63,68,131,87,-29,-97
-19,63,82,-21,-51,73,82,78,185,97,-4,-97
-34,63,97,-14,-65,80,87,92,175,97,14,-97
-24,63,87,-19,-56,75,87,107,185,97,19,-102
-24,48,73,-12,-48,61,92,122,190,97,24,-107
-9,39,48,-14,-29,43,87,87,161,97,4,-102
-24,39,63,-7,-43,51,82,58,141,102,-9,-102
-19,39,58,-9,-39,48,68,24,122,97,-14,-97
-9,39,48,-14,-29,43,48,-39,102,92,-19,-92
-19,29,48,-4,-34,39,48,-19,117,92,0,-92
-29,29,58,0,-43,43,53,39,126,92,24,-97
-29,29,58,0,-43,43,63,29,126,97,29,-102
-39,34,73,2,-56,53,78,34,131,102,29,-102
-53,53,107,0,-80,80,92,73,141,87,4,-82
-34,58,92,-12,-63,75,97,102,126,82,-4,-78
-24,48,73,-12,-48,61,92,117,126,78,-19,-73
-48,48,97,0,-73,73,97,112,131,68,-19,-87
-39,53,92,-7,-65,73,102,73,136,82,0,-97
-43,68,112,-12,-78,90,102,43,131,92,4,-107
-14,82,97,-34,-56,90,107,24,112,97,9,-87
-14,107,122,-46,-68,114,117,19,107,102,19,-63
-24,92,117,-34,-70,104,112,43,136,112,24,-53
-24,73,97,-24,-61,85,112,78,136,126,19,-68
-4,68,73,-31,-39,70,102,117,136,131,-4,-97
4,68,63,-36,-29,65,102,131,165,131,-19,-102
-24,68,92,-21,-58,80,92,92,161,112,-24,-97
-29,68,97,-19,-63,82,97,73,161,87,-24,-102
-39,68,107,-14,-73,87,107,82,151,87,-14,-87
-43,68,112,-12,-78,90,112,63,126,82,-19,-82
-29,68,97,-19,-63,82,112,58,126,97,-4,-92
-19,73,92,-26,-56,82,107,53,131,102,-4,-87
-9,97,107,-43,-58,102,112,39,136,122,-4,-87
19,102,82,-61,-31,92,107,24,146,131,-14,-92
14,82,68,-48,-26,75,122,48,151,117,-14,-78
-14,73,87,-29,-51,80,126,63,161,126,-4,-68
-19,63,82,-21,-51,73,126,78,156,122,0,-53
-9,53,63,-21,-36,58,131,58,151,112,0,-39
9,63,53,-36,-21,58,136,78,170,122,0,-39
-14,68,82,-26,-48,75,146,87,195,126,4,-39
-29,68,97,-19,-63,82,136,117,204,136,9,-43
-19,73,92,-26,-56,82,126,136,209,141,9,-63
-24,92,117,-34,-70,104,122,97,190,151,-14,-78
-29,102,131,-36,-80,117,136,68,180,141,-29,-78
-14,112,126,-48,-70,119,112,73,161,136,-24,-73
-4,112,117,-53,-61,114,107,58,161,136,-4,-58
-14,92,107,-39,-61,100,117,82,190,136,-9,-58
-24,87,112,-31,-68,100,117,78,209,136,-14,-58
-29,82,112,-26,-70,97,126,82,214,136,-34,-82
-29,78,107,-24,-68,92,126,126,219,146,-39,-97
-9,97,107,-43,-58,102,102,126,219,170,-19,-87
14,112,97,-63,-41,104,112,112,195,190,-14,-87
0,126,126,-63,-63,126,126,58,200,175,-9,-87
0,141,141,-70,-70,141,126,43,234,195,14,-82
-4,112,117,-53,-61,114,122,48,234,195,9,-53
4,107,102,-56,-48,104,97,73,219,195,14,-53
-4,112,117,-53,-61,114,92,53,204,200,24,-53
-9,107,117,-48,-63,112,102,29,200,209,29,-48
-19,102,122,-41,-70,112,117,53,214,214,19,-29
-29,97,126,-34,-78,112,112,78,219,209,39,-19
-43,92,136,-24,-90,114,112,136,234,214,63,9
-58,82,141,-12,-100,112,117,161,239,239,78,39
-39,68,107,-14,-73,87,112,146,239,229,53,24
-19,63,82,-21,-51,73,107,136,248,234,29,14
9,82,73,-46,-31,78,117,122,248,234,14,9
9,78,68,-43,-29,73,122,102,248,224,14,0
-9,78,87,-34,-48,82,131,102,273,258,48,-14
-14,78,92,-31,-53,85,112,112,302,263,68,-19
-4,78,82,-36,-43,80,107,146,317,292,87,-24
-9,82,92,-36,-51,87,117,185,336,317,122,-34
14,102,87,-58,-36,95,102,151,331,312,122,-43
29,102,73,-65,-21,87,97,112,331,292,122,-34
14,107,92,-61,-39,100,97,87,322,287,112,0
4,117,112,-61,-53,114,92,112,322,292,97,0
-14,112,126,-48,-70,119,87,136,356,317,112,-4
-9,122,131,-56,-70,126,87,126,366,331,136,24
-19,117,136,-48,-78,126,107,117,370,356,165,58
-29,107,136,-39,-82,122,107,141,366,366,185,78
-14,92,107,-39,-61,100,107,170,356,375,195,82
-4,82,87,-39,-46,85,107,170,375,400,209,87
-9,78,87,-34,-48,82,102,165,405,419,219,82
0,73,73,-36,-36,73,102,185,414,434,239,87
24,82,58,-53,-17,70,102,185,414,424,229,112
34,87,53,-61,-9,70,82,190,414,419,219,117
34,87,53,-61,-9,70,78,190,424,414,229,131
24,87,63,-56,-19,75,78,190,439,414,239,151
29,87,58,-58,-14,73,68,195,429,429,253,156
24,92,68,-58,-21,80,78,195,419,439,283,185
19,107,87,-63,-34,97,82,204,414,458,307,195
19,107,87,-63,-34,97,82,185,419,488,322,195
29,107,78,-68,-24,92,58,156,434,478,317,200
24,107,82,-65,-29,95,53,141,453,473,326,204
34,107,73,-70,-19,90,48,136,448,478,351,219
63,107,43,-85,9,75,43,117,439,478,351,234
48,102,53,-75,-2,78,39,136,439,473,346,258
34,107,73,-70,-19,90,29,165,463,492,366,273
24,131,107,-78,-41,119,29,185,463,492,375,273
9,141,131,-75,-61,136,34,185,478,502,375,287
34,131,97,-82,-31,114,34,146,468,517,390,322
39,117,78,-78,-19,97,34,136,463,517,400,326
34,107,73,-70,-19,90,34,141,448,531,409,331
39,87,48,-63,-4,68,43,141,448,561,429,346
53,102,48,-78,2,75,58,146,453,546,429,336
78,131,53,-104,12,92,58,170,453,522,424,336
82,141,58,-112,12,100,48,161,444,522,429,346
87,156,68,-122,9,112,39,161,458,517,429,336
78,151,73,-114,2,112,34,131,444,522,429,351
78,146,68,-112,4,107,14,92,409,517,405,341
78,141,63,-109,7,102,14,87,390,507,380,336
78,136,58,-107,9,97,24,87,385,512,385,351
87,136,48,-112,19,92,24,131,409,497,409,346
58,126,68,-92,-4,97,39,146,424,497,419,341
53,117,63,-85,-4,90,43,126,429,502,429,341
78,126,48,-102,14,87,43,141,390,473,429,331
82,131,48,-107,17,90,43,117,385,463,400,341
58,131,73,-95,-7,102,39,117,385,458,361,331
14,112,97,-63,-41,104,39,117,395,463,356,312
24,112,87,-68,-31,100,34,122,385,448,341,307
58,131,73,-95,-7,102,24,131,366,434,341,273
48,136,87,-92,-19,112,14,122,346,424,341,258
58,131,73,-95,-7,102,9,97,322,405,361,268
68,126,58,-97,4,92,0,82,317,390,356,263
63,136,73,-100,-4,104,14,87,287,385,331,253
53,141,87,-97,-17,114,19,82,253,361,312,244
53,146,92,-100,-19,119,24,53,224,331,297,204
53,170,117,-112,-31,143,39,39,195,312,292,180
48,165,117,-107,-34,141,48,43,190,302,287,175
43,161,117,-102,-36,139,48,53,165,278,244,180
39,146,107,-92,-34,126,43,68,156,263,219,185
29,122,92,-75,-31,107,43,82,156,239,190,185
39,122,82,-80,-21,102,34,58,170,200,180,156
39,126,87,-82,-24,107,29,34,156,190,175,156
53,126,73,-90,-9,100,14,14,122,161,151,146
48,126,78,-87,-14,102,0,-19,112,136,126,122
43,131,87,-87,-21,109,0,-29,126,141,112,92
34,136,102,-85,-34,119,4,4,122,117,92,87
29,136,107,-82,-39,122,14,43,122,112,92,82
19,141,122,-80,-51,131,34,87,117,122,73,63
19,122,102,-70,-41,112,39,29,97,112,82,58
19,122,102,-70,-41,112,43,-14,63,97,82,58
19,112,92,-65,-36,102,43,14,24,97,73,43
34,107,73,-70,-19,90,39,19,4,97,68,14
19,97,78,-58,-29,87,43,19,34,97,53,19
19,102,82,-61,-31,92,48,39,53,78,39,24
19,102,82,-61,-31,92,53,73,68,58,39,53
19,87,68,-53,-24,78,58,92,78,58,39,68
29,112,82,-70,-26,97,63,68,78,73,48,53
34,131,97,-82,-31,114,63,63,87,82,29,39
58,136,78,-97,-9,107,58,73,87,63,29,24
29,126,97,-78,-34,112,43,48,63,63,14,9
14,102,87,-58,-36,95,43,34,58,48,14,24
29,102,73,-65,-21,87,53,29,63,39,4,24
53,102,48,-78,2,75,53,14,58,24,4,24
53,92,39,-73,7,65,58,-4,63,19,-9,29
34,87,53,-61,-9,70,48,-9,92,39,-19,29
39,87,48,-63,-4,68,43,14,87,43,-19,0
29,92,63,-61,-17,78,34,9,63,34,-19,-34
19,92,73,-56,-26,82,34,9,97,39,-24,-58
9,78,68,-43,-29,73,34,14,63,39,-14,-43
9,68,58,-39,-24,63,48,34,48,29,-9,-39
29,82,53,-56,-12,68,63,34,43,24,-9,-19
43,87,43,-65,0,65,63,29,34,24,-4,-14
24,78,53,-51,-14,65,48,48,34,24,-19,-29
0,82,82,-41,-41,82,39,43,43,29,-19,-34
-9,82,92,-36,-51,87,39,39,24,29,-24,-39
14,87,73,-51,-29,80,29,68,9,29,-29,-58
48,112,63,-80,-7,87,24,43,9,24,-29,-48
39,112,73,-75,-17,92,34,14,9,24,-29,-43
29,102,73,-65,-21,87,34,-14,14,24,-29,-43
29,102,73,-65,-21,87,29,-53,24,24,-29,-58
19,63,43,-41,-12,53,34,-39,19,9,-43,-68
19,58,39,-39,-9,48,34,-14,9,0,-63,-58
19,73,53,-46,-17,63,29,19,-9,-14,-73,-58
19,68,48,-43,-14,58,34,34,-24,-24,-73,-63
19,68,48,-43,-14,58,43,34,-19,-14,-58,-48
19,68,48,-43,-14,58,43,48,-29,-9,-43,-43
19,63,43,-41,-12,53,39,53,0,-4,-39,-39
19,63,43,-41,-12,53,29,53,24,4,-39,-39
0,73,73,-36,-36,73,39,43,14,0,-29,-48
0,73,73,-36,-36,73,39,24,0,4,-29,-48
4,78,73,-41,-34,75,53,39,0,9,-29,-53
4,78,73,-41,-34,75,78,58,0,4,-34,-53
0,68,68,-34,-34,68,87,53,4,14,-73,-58
19,73,53,-46,-17,63,73,29,14,19,-112,-53
9,82,73,-46,-31,78,63,24,34,29,-131,-39
34,53,19,-43,7,36,63,53,53,29,-146,-24
29,48,19,-39,4,34,63,48,19,14,-102,-34
19,68,48,-43,-14,58,73,19,-9,9,-68,-39
9,78,68,-43,-29,73,73,-19,-24,4,-34,-48
-9,82,92,-36,-51,87,68,14,-34,-4,0,-63
-4,78,82,-36,-43,80,48,24,-14,-19,-14,-78
14,73,58,-43,-21,65,43,29,-4,-29,-34,-78
29,78,48,-53,-9,63,43,9,-19,-43,-58,-78
43,73,29,-58,7,51,58,19,-9,-63,-58,-78
39,63,24,-51,7,43,68,48,4,-48,-68,-53
43,63,19,-53,12,41,78,48,4,-39,-82,-53
48,73,24,-61,12,48,87,34,4,-34,-58,-68
39,73,34,-56,2,53,97,34,4,-34,-58,-87
19,73,53,-46,-17,63,82,24,4,-24,-53,-78
14,78,63,-46,-24,70,73,19,9,-29,-58,-78
14,78,63,-46,-24,70,63,9,0,-43,-73,-63
34,97,63,-65,-14,80,48,4,-19,-43,-73,-63
39,92,53,-65,-7,73,63,19,14,-58,-78,-58
39,97,58,-68,-9,78,68,24,43,-39,-87,-58
29,92,63,-61,-17,78,78,14,58,-43,-102,-58
19,87,68,-53,-24,78,92,29,68,-48,-112,-58
34,87,53,-61,-9,70,117,39,48,-48,-112,-87
39,68,29,-53,4,48,117,39,24,-53,-117,-107
48,68,19,-58,14,43,97,48,19,-53,-117,-122
68,73,4,-70,31,39,87,48,14,-53,-112,-136
43,92,48,-68,-2,70,68,48,34,-48,-107,-126
29,102,73,-65,-21,87,73,29,53,-34,-107,-117
43,126,82,-85,-19,104,73,19,68,-34,-107,-112
39,136,97,-87,-29,117,63,4,107,-39,-122,-117
29,112,82,-70,-26,97,82,9,78,-53,-122,-117
29,112,82,-70,-26,97,97,34,39,-63,-122,-126
39,102,63,-70,-12,82,117,29,24,-34,-112,-126
4,87,82,-46,-39,85,141,34,14,-19,-92,-122
14,102,87,-58,-36,95,141,48,29,-14,-102,-126
48,107,58,-78,-4,82,117,58,43,-34,-112,-136
39,107,68,-73,-14,87,107,58,53,-48,-112,-156
24,102,78,-63,-26,90,97,43,53,-53,-112,-175
48,102,53,-75,-2,78,112,48,78,-43,-102,-180
29,117,87,-73,-29,102,122,82,92,-34,-107,-180
43,141,97,-92,-26,119,122,92,112,-24,-107,-180
43,156,112,-100,-34,134,122,68,126,-9,-107,-180
48,175,126,-112,-39,151,102,39,87,-19,-112,-175
48,161,112,-104,-31,136,97,53,68,-39,-97,-165
39,146,107,-92,-34,126,102,87,78,-48,-82,-141
39,131,92,-85,-26,112,97,102,73,-53,-87,-136
48,117,68,-82,-9,92,107,97,82,-34,-73,-126
53,112,58,-82,-2,85,102,87,102,4,-58,-122
53,92,39,-73,7,65,107,78,117,4,-53,-112
58,73,14,-65,21,43,112,68,126,-4,-48,-102
53,82,29,-68,12,56,92,107,122,-4,-29,-102
58,97,39,-78,9,68,87,131,117,-9,-29,-97
73,107,34,-90,19,70,82,136,112,0,-24,-87
78,112,34,-95,21,73,73,136,97,9,-24,-87
53,97,43,-75,4,70,82,112,87,24,0,-63
43,92,48,-68,-2,70,92,102,107,53,9,-58
29,92,63,-61,-17,78,112,92,107,63,9,-58
14,87,73,-51,-29,80,122,78,78,73,19,-68
24,92,68,-58,-21,80,112,68,68,34,9,-68
43,97,53,-70,-4,75,97,78,73,-9,9,-53
63,112,48,-87,7,80,87,53,78,-9,0,-48
87,141,53,-114,17,97,73,43,78,-9,-4,-53
102,141,39,-122,31,90,68,73,73,0,-24,-63
92,136,43,-114,24,90,63,78,63,-14,-39,-68
92,141,48,-117,21,95,43,29,53,-24,-63,-73
97,122,24,-109,36,73,39,14,34,-24,-73,-78
73,122,48,-97,12,85,53,34,48,-9,-29,-78
78,136,58,-107,9,97,68,63,68,0,-14,-68
87,141,53,-114,17,97,73,58,82,9,0,-39
82,141,58,-112,12,100,78,39,78,14,19,-14
92,146,53,-119,19,100,58,39,78,4,0,-24
107,141,34,-124,36,87,53,39,63,4,-24,-29
117,122,4,-119,56,63,48,53,43,0,-43,-34
102,136,34,-119,34,85,39,39,9,-14,-53,-58
97,141,43,-119,26,92,43,48,19,-9,-29,-63
92,136,43,-114,24,90,48,68,34,-9,-4,-63
87,141,53,-114,17,97,53,58,43,-4,24,-43
82,141,58,-112,12,100,78,29,39,9,63,-24
87,141,53,-114,17,97,48,-4,39,4,43,-29
97,141,43,-119,26,92,48,-14,63,0,29,-39
97,141,43,-119,26,92,48,-4,73,0,19,-43
92,161,68,-126,12,114,48,9,73,-4,4,-53
102,151,48,-126,26,100,58,9,34,-4,4,-68
102,151,48,-126,26,100,63,24,4,-19,9,-58
78,136,58,-107,9,97,73,58,-19,-19,19,-34
68,136,68,-102,0,102,82,73,4,-19,24,-19
82,131,48,-107,17,90,78,14,43,-9,14,-19
87,136,48,-112,19,92,68,4,53,-4,14,-29
87,151,63,-119,12,107,63,29,73,-4,14,-39
87,151,63,-119,12,107,53,39,73,-14,14,-73
97,141,43,-119,26,92,48,9,39,-29,14,-73
102,126,24,-114,39,75,48,0,-4,-29,14,-63
102,141,39,-122,31,90,43,-4,-29,-24,9,-39
122,161,39,-141,41,100,39,19,-48,-24,9,-19
102,131,29,-117,36,80,73,34,-29,-9,19,-34
102,131,29,-117,36,80,78,39,-19,4,19,-43
112,146,34,-129,39,90,68,53,9,0,19,-58
117,156,39,-136,39,97,68,68,29,-9,19,-73
122,146,24,-134,48,85,78,43,14,-29,4,-73
126,136,9,-131,58,73,78,48,14,-34,0,-68
117,151,34,-134,41,92,82,73,29,-39,-4,-63
82,141,58,-112,12,100,82,82,39,-39,-9,-53
53,136,82,-95,-14,109,73,73,24,-24,-4,-68
97,141,43,-119,26,92,58,73,9,-19,4,-68
136,146,9,-141,63,78,48,78,-4,-14,14,-73
136,156,19,-146,58,87,48,39,-9,-4,19,-82
141,156,14,-148,63,85,58,-19,0,-24,0,-73
156,170,14,-163,70,92,48,-4,-4,-39,-14,-82
151,170,19,-161,65,95,48,0,-14,-68,-14,-58
112,156,43,-134,34,100,58,0,-4,-63,-9,-58
107,136,29,-122,39,82,63,-19,14,-73,-29,-63
107,146,39,-126,34,92,68,9,19,-68,-43,-53
112,156,43,-134,34,100,68,34,19,-63,-58,-43
126,165,39,-146,43,102,63,34,19,-58,-78,-43
126,165,39,-146,43,102,58,34,-9,-43,-34,-53
107,161,53,-134,26,107,68,43,9,-39,-9,-53
122,146,24,-134,48,85,78,43,-14,-34,9,-53
141,141,0,-141,70,70,78,29,-24,-29,19,-68
141,146,4,-143,68,75,68,24,-4,-34,0,-68
141,146,4,-143,68,75,68,24,48,-34,4,-58
141,136,-4,-139,73,65,68,24,78,-29,4,-58
122,136,14,-129,53,75,68,29,78,-34,-4,-63
122,141,19,-131,51,80,63,58,58,-14,9,-63
122,141,19,-131,51,80,68,87,48,-4,14,-63
122,126,4,-124,58,65,78,43,58,4,19,-63
136,126,-9,-131,73,58,68,19,58,19,29,-82
136,117,-19,-126,78,48,78,82,63,19,24,-78
136,117,-19,-126,78,48,78,58,43,9,24,-63
92,112,19,-102,36,65,78,34,29,29,39,-58
117,112,-4,-114,61,53,73,48,24,29,48,-68
131,141,9,-136,61,75,58,68,14,9,29,-82
146,156,9,-151,68,82,53,87,9,-4,24,-82
126,156,29,-141,48,92,58,43,4,0,24,-82
107,151,43,-129,31,97,53,29,19,4,24,-58
131,161,29,-146,51,95,53,53,53,4,9,-43
161,170,9,-165,75,90,53,68,78,9,4,-58
122,180,58,-151,31,119,53,63,102,19,9,-53
107,165,58,-136,24,112,48,53,126,19,9,-53
97,131,34,-114,31,82,-43,58,48,29,19,-58
107,117,9,-112,48,63,-43,24,-4,0,19,-112
175,136,-39,-156,107,48,43,-14,-4,-43,19,-146
195,175,-19,-185,107,78,107,0,-9,-29,29,-78
170,175,4,-173,82,90,92,24,-19,-24,14,-68
156,175,19,-165,68,97,78,39,-29,-19,9,-68
141,175,34,-158,53,104,63,53,-39,-14,4,-68
126,175,48,-151,39,112,48,68,-48,-9,0,-68
141,165,24,-153,58,95,58,43,-39,-9,-9,-73
146,165,19,-156,63,92,58,29,-29,-9,-9,-78
151,165,14,-158,68,90,58,14,-19,-9,-9,-82
156,165,9,-161,73,87,58,0,-9,-9,-9,-87
146,175,29,-161,58,102,58,19,-4,-19,-34,-78
146,175,29,-161,58,102,58,29,0,-29,-48,-68
146,175,29,-161,58,102,58,39,4,-39,-63,-58
146,175,29,-161,58,102,58,48,9,-48,-78,-48
146,185,39,-165,53,112,53,63,9,-58,-58,-63
146,185,39,-165,53,112,48,68,9,-58,-48,-68
146,185,39,-165,53,112,43,73,9,-58,-39,-73
146,185,39,-165,53,112,39,78,9,-58,-29,-78
136,170,34,-153,51,102,53,58,4,-48,-9,-73
136,156,19,-146,58,87,58,39,0,-48,0,-68
136,141,4,-139,65,73,63,19,-4,-48,9,-63
136,126,-9,-131,73,58,68,0,-9,-48,19,-58
141,126,-14,-134,78,56,63,14,4,-53,4,-78
146,126,-19,-136,82,53,58,19,9,-58,0,-87
151,126,-24,-139,87,51,53,24,14,-63,-4,-97
156,126,-29,-141,92,48,48,29,19,-68,-9,-107
141,136,-4,-139,73,65,58,-4,9,-48,0,-87
136,136,0,-136,68,68,58,-29,0,-39,0,-78
126,136,9,-131,58,73,58,-34,-24,-29,14,-68
122,151,29,-136,46,90,48,-43,-24,-34,0,-73
151,175,24,-163,63,100,39,-4,-9,-48,-24,-87
156,175,19,-165,68,97,39,9,-24,-58,-29,-102
136,165,29,-151,53,97,39,24,-19,-63,-19,-92
141,156,14,-148,63,85,39,29,-9,-73,-14,-78
136,141,4,-139,65,73,43,4,-9,-58,-9,-68
146,136,-9,-141,78,63,43,-19,0,-53,-4,-68
146,136,-9,-141,78,63,58,9,14,-53,-4,-48
131,141,9,-136,61,75,58,14,9,-58,-9,-29
126,156,29,-141,48,92,63,34,9,-68,-24,-58
131,161,29,-146,51,95,63,9,-9,-68,-34,-58
151,170,19,-161,65,95,63,29,-14,-68,-34,-58
146,175,29,-161,58,102,63,48,-14,-58,-14,-53
156,175,19,-165,68,97,68,29,0,-39,-4,-73
156,165,9,-161,73,87,73,14,0,-24,-14,-73
151,175,24,-163,63,100,73,-4,-4,-14,-4,-82
151,175,24,-163,63,100,73,-53,-9,-4,-4,-92
136,151,14,-143,61,82,58,-53,-9,-19,-14,-97
131,136,4,-134,63,70,58,-9,0,-24,-24,-102
126,131,4,-129,61,68,63,58,9,-29,-14,-107
117,126,9,-122,53,68,63,63,29,-43,-14,-122
112,122,9,-117,51,65,92,39,43,-53,-24,-87
97,126,29,-112,34,78,97,29,48,-53,-29,-68
102,122,19,-112,41,70,92,29,53,-53,-29,-63
117,117,0,-117,58,58,97,19,58,-48,-34,-63
141,131,-9,-136,75,61,87,29,39,-58,-9,-68
156,151,-4,-153,80,73,82,-4,14,-58,-24,-82
185,165,-19,-175,102,73,78,-9,-9,-48,-19,-92
190,180,-9,-185,100,85,73,-9,-34,-43,-4,-97
180,180,0,-180,90,90,68,4,-14,-34,0,-82
180,175,-4,-178,92,85,63,14,-9,-34,0,-73
180,175,-4,-178,92,85,63,24,-4,-34,4,-68
170,170,0,-170,85,85,63,34,4,-34,9,-58
165,161,-4,-163,85,78,73,48,19,-29,4,-58
170,165,-4,-168,87,80,58,53,24,-43,0,-58
170,170,0,-170,85,85,48,82,29,-43,-4,-68
165,170,4,-168,80,87,68,107,34,-29,0,-68
151,170,19,-161,65,95,82,68,43,-19,9,-58
151,175,24,-163,63,100,82,39,39,-4,4,-53
151,185,34,-168,58,109,68,19,39,9,24,-43
161,190,29,-175,65,109,63,4,53,19,34,-39
175,190,14,-183,80,102,43,0,29,19,29,-39
175,175,0,-175,87,87,34,-9,9,14,34,-53
170,175,4,-173,82,90,29,0,4,4,39,-53
175,180,4,-178,85,92,34,24,14,24,39,-53
190,175,-14,-183,102,80,48,43,19,-4,0,-53
200,161,-39,-180,119,61,58,48,19,-34,-29,-58
200,165,-34,-183,117,65,58,53,14,-39,-58,-63
200,161,-39,-180,119,61,78,53,4,-48,-73,-68
180,170,-9,-175,95,80,73,29,14,-34,-43,-73
175,170,-4,-173,90,82,63,39,19,-43,-24,-73
170,170,0,-170,85,85,58,53,39,-48,-14,-78
165,170,4,-168,80,87,53,43,43,-43,24,-78
170,165,-4,-168,87,80,53,-14,34,-34,24,-68
195,170,-24,-183,109,73,48,-34,19,-39,14,-58
200,170,-29,-185,114,70,48,-14,-9,-39,4,-39
200,170,-29,-185,114,70,48,-14,-43,-34,-4,-24
185,156,-29,-170,107,63,48,14,-34,-24,4,-29
180,151,-29,-165,104,61,48,19,-9,-19,4,-39
170,146,-24,-158,97,61,43,24,-9,-29,14,-53
165,146,-19,-156,92,63,39,29,-24,-29,29,-68
175,165,-9,-170,92,78,48,34,-14,-19,29,-78
170,170,0,-170,85,85,53,34,-9,-14,29,-73
170,165,-4,-168,87,80,53,39,14,-4,29,-63
170,170,0,-170,85,85,53,39,29,9,29,-63
156,175,19,-165,68,97,58,4,4,-9,29,-48
165,175,9,-170,78,92,39,-4,-9,-29,24,-63
175,190,14,-183,80,102,24,-14,-24,-39,9,-92
161,180,19,-170,70,100,19,-9,-4,-48,0,-97
170,175,4,-173,82,90,29,9,-4,-39,-9,-97
185,170,-14,-178,100,78,43,-9,-4,-48,-14,-97
185,165,-19,-175,102,73,58,-19,-9,-48,-14,-97
175,151,-24,-163,100,63,68,-4,-9,-43,0,-82
151,151,0,-151,75,75,58,24,19,-53,9,-73
156,165,9,-161,73,87,53,34,34,-48,9,-68
151,175,24,-163,63,100,53,34,34,-48,0,-73
151,165,14,-158,68,90,53,43,39,-63,-14,-78
165,165,0,-165,82,82,68,19,48,-63,-4,-78
175,165,-9,-170,92,78,78,4,73,-53,4,-73
190,161,-29,-175,109,65,82,-14,78,-43,-4,-78
185,151,-34,-168,109,58,87,-29,78,-43,-4,-82
175,165,-9,-170,92,78,73,-14,48,-29,-9,-82
180,165,-14,-173,97,75,68,-9,29,-24,0,-82
180,161,-19,-170,100,70,63,0,-4,-19,-14,-87
170,156,-14,-163,92,70,48,0,-24,-9,-19,-102
151,195,43,-173,53,119,87,29,-4,-29,-19,-73
151,214,63,-183,43,139,68,58,-53,-68,-53,-87
219,195,-24,-207,122,85,34,68,-63,-82,-68,-136
239,204,-34,-222,136,85,34,9,-43,34,48,-73
195,204,9,-200,92,107,14,-43,-19,175,165,-19
185,175,-9,-180,97,82,-24,0,-39,258,209,-9
195,175,-19,-185,107,78,-39,-43,-200,317,273,48
190,200,9,-195,90,104,-53,-263,-507,366,361,102
219,209,-9,-214,114,100,-82,-346,-756,439,527,195
258,224,-34,-241,146,95,-112,-287,-893,575,824,414
297,263,-34,-280,165,114,-165,-448,-1015,746,1171,688
341,356,14,-348,163,185,-263,-683,-1185,946,1532,1005
385,444,58,-414,163,251,-346,-717,-1337,1151,1917,1361
405,483,78,-444,163,280,-419,-732,-1473,1239,2244,1708
458,522,63,-490,197,292,-492,-868,-1634,1112,2469,2000
536,580,43,-558,246,312,-585,-1005,-1864,819,2591,2264
580,629,48,-605,265,339,-663,-1112,-2039,600,2723,2483
595,658,63,-627,265,361,-707,-1151,-2117,453,2849,2654
644,653,9,-649,317,331,-732,-1146,-2156,180,2840,2810
649,590,-58,-619,353,265,-741,-1151,-2205,-175,2742,3001
561,429,-131,-495,346,148,-692,-1122,-2205,-414,2757,3196
512,219,-292,-366,402,-36,-600,-1029,-2127,-600,2766,3225
570,68,-502,-319,536,-217,-527,-897,-1995,-844,2562,3069
566,-48,-614,-258,590,-331,-444,-771,-1805,-1024,2098,2801
492,-214,-707,-139,600,-461,-366,-644,-1654,-1132,1464,2327
439,-390,-829,-24,634,-610,-268,-541,-1517,-1239,800,1678
395,-439,-834,21,614,-636,-151,-395,-1332,-1263,224,1019
307,-419,-727,56,517,-573,-78,-224,-1141,-1224,-200,488
278,-429,-707,75,492,-568,-29,-102,-1005,-1176,-453,141
292,-405,-697,56,495,-551,4,-9,-868,-1122,-561,-43
263,-307,-570,21,417,-439,34,24,-692,-966,-507,-117
234,-239,-473,2,353,-356,58,29,-541,-771,-419,-141
234,-224,-458,-4,346,-341,63,92,-468,-658,-409,-200
204,-200,-405,-2,305,-302,92,156,-400,-556,-361,-229
200,-136,-336,-31,268,-236,107,97,-307,-409,-263,-161
214,-63,-278,-75,246,-170,117,58,-224,-322,-170,-117
200,-14,-214,-92,207,-114,122,63,-156,-287,-117,-131
190,29,-161,-109,175,-65,112,53,-102,-239,-92,-131
175,78,-97,-126,136,-9,102,63,-34,-165,-73,-92
185,78,-107,-131,146,-14,97,117,19,-78,-24,-43
190,73,-117,-131,153,-21,73,126,48,-43,-14,-63
185,73,-112,-129,148,-19,68,151,78,-29,-14,-73
185,82,-102,-134,143,-9,68,141,107,-4,9,-82
190,92,-97,-141,143,-2,34,102,112,-4,29,-117
180,107,-73,-143,126,17,48,63,102,-4,19,-112
161,102,-58,-131,109,21,73,73,92,-4,14,-97
151,107,-43,-129,97,31,87,78,112,-4,19,-68
165,126,-39,-146,102,43,122,73,112,-4,14,-53
185,117,-68,-151,126,24,117,97,117,-4,-14,-63
190,136,-53,-163,122,41,97,107,126,0,-24,-82
204,141,-63,-173,134,39,87,112,141,0,-14,-87
209,146,-63,-178,136,41,73,107,161,-9,0,-87
200,141,-58,-170,129,41,73,73,161,0,9,-87
180,141,-39,-161,109,51,68,53,117,9,24,-87
185,141,-43,-163,114,48,58,34,92,19,24,-92
180,126,-53,-153,117,36,53,14,63,29,24,-97
180,117,-63,-148,122,26,68,29,78,43,34,-92
161,117,-43,-139,102,36,73,39,92,53,29,-82
161,117,-43,-139,102,36,68,43,107,53,34,-68
165,117,-48,-141,107,34,58,19,122,53,39,-53
180,126,-53,-153,117,36,53,34,112,48,29,-63
185,126,-58,-156,122,34,53,78,117,43,43,-78
200,126,-73,-163,136,26,58,53,112,43,39,-92
204,131,-73,-168,139,29,68,43,112,43,29,-102
180,146,-34,-163,107,56,68,58,97,39,4,-82
200,146,-53,-173,126,46,68,73,78,34,-14,-78
209,131,-78,-170,143,26,58,73,73,29,-39,-73
185,126,-58,-156,122,34,58,53,73,19,-48,-87
185,146,-39,-165,112,53,63,58,97,24,-24,-102
180,165,-14,-173,97,75,63,53,102,34,-24,-126
209,185,-24,-197,117,80,68,58,92,39,-24,-122
209,214,4,-212,102,109,78,78,97,43,-19,-112
185,200,14,-192,85,107,82,82,112,63,24,-87
180,180,0,-180,90,90,82,97,107,78,39,-97
195,175,-19,-185,107,78,73,117,102,82,34,-122
200,175,-24,-187,112,75,73,112,126,82,39,-122
185,165,-19,-175,102,73,68,87,161,73,39,-112
185,165,-19,-175,102,73,68,73,180,58,43,-122
180,165,-14,-173,97,75,73,87,190,68,58,-112
180,165,-14,-173,97,75,73,73,185,73,58,-112
190,161,-29,-175,109,65,73,73,170,63,43,-102
195,161,-34,-178,114,63,68,73,161,63,34,-97
200,180,-19,-190,109,80,73,63,151,78,24,-97
224,180,-43,-202,134,68,68,53,146,82,4,-102
219,165,-53,-192,136,56,82,82,151,102,29,-92
190,161,-29,-175,109,65,87,102,161,126,53,-87
185,156,-29,-170,107,63,87,122,156,136,73,-78
195,151,-43,-173,119,53,92,107,151,141,87,-68
195,165,-29,-180,112,68,97,97,151,131,73,-78
161,175,14,-168,73,95,107,87,165,126,63,-78
136,180,43,-158,46,112,97,97,165,126,53,-82
136,190,53,-163,41,122,87,97,161,122,39,-102
146,190,43,-168,51,117,78,82,175,131,39,-97
156,190,34,-173,61,112,97,68,180,122,29,-87
185,190,4,-187,90,97,78,87,175,117,39,-73
209,180,-29,-195,119,75,78,87,190,117,63,-48
190,170,-19,-180,104,75,63,92,195,112,63,-48
180,175,-4,-178,92,85,58,78,209,107,53,-48
175,180,4,-178,85,92,63,73,209,102,29,-73
175,185,9,-180,82,97,58,107,209,107,19,-87
175,170,-4,-173,90,82,48,126,195,131,39,-87
200,161,-39,-180,119,61,63,122,165,151,43,-87
185,151,-34,-168,109,58,82,78,165,136,48,-87
185,141,-43,-163,114,48,87,73,195,156,73,-82
204,136,-68,-170,136,34,92,107,200,151,43,-73
219,146,-73,-183,146,36,78,151,200,146,34,-73
214,165,-48,-190,131,58,82,151,200,146,29,-73
214,175,-39,-195,126,68,102,146,209,151,19,-68
209,180,-29,-195,119,75,92,107,239,170,29,-82
204,185,-19,-195,112,82,82,87,248,180,58,-97
195,190,-4,-192,100,92,78,102,268,200,92,-92
185,190,4,-187,90,97,78,82,278,239,117,-87
175,165,-9,-170,92,78,82,92,253,229,92,-78
185,161,-24,-173,104,68,87,107,248,224,78,-73
204,180,-24,-192,114,78,107,117,234,214,73,-63
195,175,-19,-185,107,78,122,122,219,195,82,-58
185,175,-9,-180,97,82,102,92,214,195,82,-63
190,175,-14,-183,102,80,53,73,224,175,78,-58
209,175,-34,-192,122,70,19,78,219,180,73,-53
214,180,-34,-197,124,73,0,87,219,180,82,-53
209,170,-39,-190,124,65,19,92,253,200,102,-53
204,151,-53,-178,129,48,39,82,283,195,122,-43
170,136,-34,-153,102,51,63,87,302,204,131,-9
141,126,-14,-134,78,56,82,141,331,224,136,-9
156,136,-19,-146,87,58,68,161,336,234,126,-43
175,151,-24,-163,100,63,68,146,326,244,136,-24
180,151,-29,-165,104,61,87,131,312,263,151,0
185,146,-39,-165,112,53,87,151,287,268,156,9
200,146,-53,-173,126,46,87,170,297,268,175,19
200,141,-58,-170,129,41,87,161,317,292,190,29
185,141,-43,-163,114,48,82,146,346,312,200,29
185,141,-43,-163,114,48,82,156,356,326,219,39
209,146,-63,-178,136,41,63,156,366,336,204,43
219,156,-63,-187,141,46,43,161,375,341,200,39
219,161,-58,-190,139,51,39,161,395,346,214,43
209,165,-43,-187,126,61,39,161,419,356,229,53
209,175,-34,-192,122,70,29,165,409,351,234,58
209,180,-29,-195,119,75,39,175,390,351,253,87
209,195,-14,-202,112,90,43,195,375,361,268,97
214,195,-19,-204,117,87,43,185,370,380,273,97
214,185,-29,-200,122,78,29,170,405,400,283,112
200,185,-14,-192,107,85,34,161,434,405,297,126
200,185,-14,-192,107,85,39,161,439,419,326,151
219,185,-34,-202,126,75,43,146,439,429,331,175
219,175,-43,-197,131,65,29,122,405,429,351,195
219,175,-43,-197,131,65,19,126,414,444,375,214
224,195,-29,-209,126,82,19,122,400,439,390,219
224,200,-24,-212,124,87,24,97,400,444,395,239
244,200,-43,-222,143,78,9,97,419,463,409,253
244,185,-58,-214,151,63,4,117,424,458,409,248
234,175,-58,-204,146,58,0,151,419,468,409,244
234,156,-78,-195,156,39,4,180,429,492,419,248
224,146,-78,-185,151,34,9,165,453,473,405,253
244,170,-73,-207,158,48,9,180,453,453,385,268
244,175,-68,-209,156,53,0,161,444,458,375,292
244,185,-58,-214,151,63,-9,151,458,458,361,297
234,195,-39,-214,136,78,-4,146,453,458,385,287
234,195,-39,-214,136,78,-14,122,419,448,385,273
234,195,-39,-214,136,78,-4,131,400,434,385,263
234,195,-39,-214,136,78,14,146,395,434,414,273
258,200,-58,-229,158,70,4,175,429,458,458,278
234,195,-39,-214,136,78,9,175,444,478,478,283
234,190,-43,-212,139,73,4,141,448,502,497,292
263,204,-58,-234,161,73,-4,141,409,492,507,292
283,200,-82,-241,183,58,-4,136,409,483,488,283
263,200,-63,-231,163,68,-9,136,414,478,458,273
224,180,-43,-202,134,68,-9,136,429,483,463,253
239,180,-58,-209,148,61,-14,141,424,468,458,248
258,204,-53,-231,156,75,-24,122,375,434,429,244
244,204,-39,-224,141,82,-24,102,336,414,409,239
248,195,-53,-222,151,70,-19,68,292,385,409,258
253,185,-68,-219,161,58,-19,43,268,361,385,263
239,170,-68,-204,153,51,-29,82,278,370,385,263
229,170,-58,-200,143,56,-29,102,273,351,370,253
229,170,-58,-200,143,56,-29,97,273,326,361,214
229,190,-39,-209,134,75,-19,107,273,312,361,190
244,190,-53,-217,148,68,-19,87,258,312,356,175
248,200,-48,-224,148,75,-19,82,234,297,312,170
253,200,-53,-226,153,73,-24,82,224,292,287,165
253,190,-63,-222,158,63,-24,82,224,278,258,156
239,195,-43,-217,141,75,-29,73,234,248,263,126
224,195,-29,-209,126,82,-19,63,214,248,263,126
224,190,-34,-207,129,78,-19,58,175,229,244,117
204,185,-19,-195,112,82,-19,39,161,214,224,92
204,185,-19,-195,112,82,-29,-4,161,185,190,87
200,185,-14,-192,107,85,-24,4,151,136,161,87
200,180,-19,-190,109,80,-14,19,146,107,151,87
195,180,-14,-187,104,82,4,39,136,92,122,73
190,151,-39,-170,114,56,9,9,131,92,136,68
185,141,-43,-163,114,48,14,-14,102,87,141,68
180,122,-58,-151,119,31,14,34,68,97,136,53
190,107,-82,-148,136,12,9,58,53,107,136,24
180,112,-68,-146,124,21,9,19,58,97,126,-4
185,122,-63,-153,124,29,9,9,53,78,107,-14
190,126,-63,-158,126,31,9,14,43,58,102,0
195,117,-78,-156,136,19,9,4,29,58,97,0
185,126,-58,-156,122,34,14,0,19,48,87,-9
190,141,-48,-165,119,46,14,4,29,43,58,-19
214,141,-73,-178,143,34,9,24,29,9,48,-29
185,126,-58,-156,122,34,-4,9,4,-4,24,-39
156,126,-29,-141,92,48,14,19,9,4,24,-39
156,131,-24,-143,90,53,34,29,14,0,14,-43
165,136,-29,-151,97,53,43,29,9,-9,14,-48
151,131,-19,-141,85,56,58,24,14,-9,0,-48
161,131,-29,-146,95,51,48,24,24,0,9,-29
175,136,-39,-156,107,48,34,43,0,4,9,-48
175,146,-29,-161,102,58,14,34,-43,-4,9,-73
175,151,-24,-163,100,63,4,29,-29,0,4,-87
195,146,-48,-170,122,48,14,34,-24,-9,-9,-92
204,136,-68,-170,136,34,39,43,-19,-19,-9,-97
234,151,-82,-192,158,34,63,34,-4,-24,-14,-87
258,156,-102,-207,180,26,73,19,4,-24,-14,-92
234,165,-68,-200,151,48,63,4,24,-19,-14,-92
195,170,-24,-183,109,73,48,-14,43,-9,-9,-82
170,170,0,-170,85,85,43,-34,34,-4,-9,-73
180,175,-4,-178,92,85,29,-19,29,0,-9,-78
214,170,-43,-192,129,63,19,14,0,-19,-9,-92
204,161,-43,-183,124,58,34,34,-9,-24,-9,-92
195,141,-53,-168,124,43,39,53,-14,-29,-9,-97
195,131,-63,-163,129,34,39,63,-14,-34,-9,-117
204,117,-87,-161,146,14,39,43,-4,-48,-14,-117
204,117,-87,-161,146,14,34,43,-9,-48,-24,-107
204,136,-68,-170,136,34,24,53,-24,-53,-24,-107
204,136,-68,-170,136,34,24,43,-34,-53,-14,-112
195,112,-82,-153,139,14,34,9,-29,-43,-4,-107
185,107,-78,-146,131,14,34,9,-39,-39,4,-102
175,97,-78,-136,126,9,29,0,-9,-34,4,-97
165,92,-73,-129,119,9,19,-14,14,-24,0,-97
170,107,-63,-139,117,21,4,-4,4,-19,-9,-97
175,112,-63,-143,119,24,0,-14,-19,-4,-9,-97
185,122,-63,-153,124,29,9,9,-29,9,-9,-102
190,126,-63,-158,126,31,29,39,-39,14,-14,-102
170,131,-39,-151,104,46,19,43,-34,-14,-14,-126
185,141,-43,-163,114,48,4,29,-24,-29,-34,-131
170,156,-14,-163,92,70,-4,34,-4,-39,-34,-126
190,131,-58,-161,124,36,-4,73,14,-58,-29,-122
180,107,-73,-143,126,17,0,68,0,-48,-29,-131
165,117,-48,-141,107,34,14,39,-19,-39,-29,-136
151,117,-34,-134,92,41,19,0,-24,-29,-29,-146
126,112,-14,-119,70,48,19,34,-24,-24,-29,-161
131,112,-19,-122,75,46,4,43,-19,-34,-24,-161
151,112,-39,-131,95,36,-4,48,-24,-48,-34,-156
165,122,-43,-143,104,39,-9,29,-53,-68,-48,-151
180,122,-58,-151,119,31,0,39,-58,-92,-39,-146
180,112,-68,-146,124,21,0,39,-39,-68,-48,-136
190,112,-78,-151,134,17,0,19,-24,-58,-63,-141
200,122,-78,-161,139,21,0,-14,-9,-53,-39,-161
195,122,-73,-158,134,24,0,-34,4,-53,-39,-185
180,136,-43,-158,112,46,9,-14,24,-43,-53,-175
180,146,-34,-163,107,56,14,0,39,-48,-58,-175
185,151,-34,-168,109,58,19,9,39,-63,-73,-161
209,175,-34,-192,122,70,19,24,29,-63,-73,-161
200,185,-14,-192,107,85,14,9,9,-63,-58,-161
195,195,0,-195,97,97,9,4,4,-39,-58,-165
180,195,14,-187,82,104,9,-14,-14,-39,-63,-170
165,195,29,-180,68,112,14,-9,-39,-39,-63,-175
156,175,19,-165,68,97,39,29,-14,-24,-53,-200
156,146,-9,-151,82,68,39,58,-4,-24,-58,-214
161,136,-24,-148,92,56,19,97,24,-19,-58,-224
175,131,-43,-153,109,43,9,126,53,-14,-53,-234
161,136,-24,-148,92,56,19,117,39,-14,-63,-224
146,141,-4,-143,75,68,34,87,34,-14,-68,-214
161,161,0,-161,80,80,43,68,24,-29,-73,-209
156,165,9,-161,73,87,43,43,39,-48,-92,-214
170,146,-24,-158,97,61,24,19,29,-48,-92,-229
175,151,-24,-163,100,63,19,24,0,-53,-92,-244
190,146,-43,-168,117,51,19,0,-4,-19,-82,-248
161,136,-24,-148,92,56,24,-14,-4,0,-63,-248
156,136,-19,-146,87,58,43,9,29,29,-68,-253
175,136,-39,-156,107,48,39,29,43,14,-82,-253
151,131,-19,-141,85,56,48,39,53,4,-87,-263
122,122,0,-122,61,61,58,34,53,4,-92,-273
151,97,-53,-124,102,21,73,34,48,-19,-102,-287
136,97,-39,-117,87,29,82,73,43,-34,-107,-287
156,107,-48,-131,102,29,82,87,43,-48,-107,-287
161,107,-53,-134,107,26,82,68,39,-58,-107,-287
161,156,-4,-158,82,75,73,34,14,-53,-102,-268
156,161,4,-158,75,82,68,43,0,-58,-78,-253
141,165,24,-153,58,95,73,73,14,-53,-53,-224
136,170,34,-153,51,102,68,82,14,-43,-48,-214
151,165,14,-158,68,90,68,63,9,-29,-58,-244
161,161,0,-161,80,80,53,48,14,-4,-58,-268
165,141,-24,-153,95,58,48,34,14,-19,-68,-287
175,122,-53,-148,114,34,43,19,9,-43,-78,-307
156,112,-43,-134,100,34,39,53,14,-39,-53,-292
156,117,-39,-136,97,39,39,73,19,-39,-48,-273
165,117,-48,-141,107,34,39,73,24,-24,-39,-248
165,112,-53,-139,109,29,34,68,19,-9,-34,-234
165,126,-39,-146,102,43,39,48,19,-19,-19,-219
170,131,-39,-151,104,46,43,43,39,-4,-19,-214
170,141,-29,-156,100,56,58,39,39,-9,-29,-214
170,146,-24,-158,97,61,63,29,9,-14,-29,-224
156,136,-19,-146,87,58,68,48,19,-4,-19,-204
161,126,-34,-143,97,46,58,87,24,-19,0,-180
165,126,-39,-146,102,43,53,92,29,9,9,-165
175,141,-34,-158,104,53,43,112,29,39,24,-161
175,161,-14,-168,95,73,48,112,43,39,14,-165
161,165,4,-163,78,85,43,97,43,24,9,-165
156,180,24,-168,65,102,24,29,43,14,-4,-165
156,170,14,-163,70,92,19,-4,34,14,-4,-165
146,156,9,-151,68,82,9,19,48,9,14,-165
156,165,9,-161,73,87,19,53,58,9,14,-156
170,165,-4,-168,87,80,19,53,63,9,14,-126
170,161,-9,-165,90,75,19,39,48,4,19,-102
165,170,4,-168,80,87,24,48,48,14,9,-122
175,170,-4,-173,90,82,24,48,43,14,-4,-136
180,156,-24,-168,102,65,24,63,34,9,-14,-151
161,175,14,-168,73,95,19,48,9,-4,-14,-185
102,117,14,-109,43,65,-9,78,39,-34,-34,-190
141,126,-14,-134,78,56,9,136,53,-29,-4,-131
204,175,-29,-190,117,73,9,126,29,-9,19,-107
195,170,-24,-183,109,73,19,97,19,-4,19,-107
185,165,-19,-175,102,73,19,78,9,0,19,-107
175,161,-14,-168,95,73,19,58,0,4,19,-107
165,156,-9,-161,87,73,19,39,-9,9,19,-107
141,141,0,-141,70,70,9,73,-9,4,29,-117
122,151,29,-136,46,90,0,92,4,-14,9,-131
126,161,34,-143,46,97,0,112,19,-24,-14,-141
107,156,48,-131,29,102,0,117,4,-29,-19,-151
92,156,63,-124,14,109,19,102,9,-9,4,-131
92,146,53,-119,19,100,29,87,19,-4,14,-107
112,146,34,-129,39,90,34,58,39,4,19,-112
136,146,9,-141,63,78,43,29,58,14,24,-117
136,146,9,-141,63,78,43,48,58,29,29,-122
122,151,29,-136,46,90,39,43,48,29,29,-117
97,146,48,-122,24,97,29,34,39,24,9,-151
82,141,58,-112,12,100,24,-9,9,29,4,-156
107,161,53,-134,26,107,24,4,4,39,-9,-151
107,165,58,-136,24,112,24,19,4,48,4,-141
117,170,53,-143,31,112,24,24,9,48,0,-136
126,165,39,-146,43,102,24,34,9,53,-14,-122
112,165,53,-139,29,109,19,48,-14,24,-4,-112
112,165,53,-139,29,109,14,24,-29,-4,-4,-102
112,156,43,-134,34,100,9,4,-48,-43,-14,-107
112,146,34,-129,39,90,9,29,-58,-73,-24,-102
107,141,34,-124,36,87,14,87,-39,-53,-24,-112
97,136,39,-117,29,87,14,73,-19,-53,-24,-131
92,131,39,-112,26,85,29,63,-9,-53,-29,-117
78,136,58,-107,9,97,29,68,0,-43,-29,-107
97,156,58,-126,19,107,24,78,9,-53,-34,-112
126,165,39,-146,43,102,29,78,9,-48,-34,-122
136,175,39,-156,48,107,39,87,14,-48,-24,-126
146,190,43,-168,51,117,43,53,14,-48,-43,-141
146,175,29,-161,58,102,48,53,19,-24,-24,-136
122,161,39,-141,41,100,53,58,24,-14,-4,-126
97,146,48,-122,24,97,53,68,29,-9,4,-112
82,126,43,-104,19,85,53,73,29,-4,9,-102
92,141,48,-117,21,95,43,53,19,-4,4,-112
92,141,48,-117,21,95,43,43,14,-4,0,-117
102,146,43,-124,29,95,43,34,9,-9,-4,-122
122,156,34,-139,43,95,29,14,4,-24,-9,-126
122,151,29,-136,46,90,29,39,19,-24,-9,-136
117,151,34,-134,41,92,58,58,24,-9,0,-136
107,146,39,-126,34,92,82,68,29,-9,0,-131
102,146,43,-124,29,95,92,78,29,-4,-14,-131
92,146,53,-119,19,100,78,73,14,-9,-14,-136
102,141,39,-122,31,90,73,82,24,-9,-14,-136
102,136,34,-119,34,85,68,53,9,-14,-24,-136
97,117,19,-107,39,68,63,29,-9,-24,-24,-151
78,122,43,-100,17,82,58,39,4,-24,-14,-146
78,131,53,-104,12,92,63,53,24,-4,-19,-141
82,136,53,-109,14,95,63,68,34,0,-19,-131
92,131,39,-112,26,85,58,68,39,-4,-19,-126
92,136,43,-114,24,90,34,78,19,0,-29,-131
92,131,39,-112,26,85,39,73,4,9,-14,-136
87,126,39,-107,24,82,34,58,-4,19,-14,-136
87,122,34,-104,26,78,24,68,-9,4,-24,-141
92,122,29,-107,31,75,29,78,14,-4,-53,-136
97,122,24,-109,36,73,34,63,24,-4,-43,-136
92,126,34,-109,29,80,39,19,39,-4,-34,-136
117,131,14,-124,51,73,39,4,48,-9,-34,-136
107,136,29,-122,39,82,29,39,14,-14,-39,-136
102,141,39,-122,31,90,29,53,-24,-14,-43,-141
102,136,34,-119,34,85,29,73,-43,-14,-48,-151
102,141,39,-122,31,90,29,68,-39,-19,-63,-165
117,126,9,-122,53,68,24,34,-29,-29,-63,-161
126,126,0,-126,63,63,19,9,-34,-29,-58,-165
136,126,-9,-131,73,58,19,9,-29,-24,-48,-161
141,122,-19,-131,80,51,24,-4,-19,-14,-48,-151
122,97,-24,-109,73,36,14,9,-24,-4,-43,-151
112,92,-19,-102,65,36,14,9,-29,9,-39,-151
87,82,-4,-85,46,39,24,-4,-53,0,-29,-131
87,78,-9,-82,48,34,9,-4,-78,-9,-24,-141
102,107,4,-104,48,56,0,9,-58,-14,-48,-175
92,112,19,-102,36,65,0,29,-14,-19,-58,-175
97,126,29,-112,34,78,0,43,-4,-24,-63,-175
117,141,24,-129,46,82,4,29,14,-39,-73,-175
102,126,24,-114,39,75,9,29,0,-43,-63,-165
87,112,24,-100,31,68,9,43,-9,-43,-48,-151
73,97,24,-85,24,61,9,53,-14,-48,-48,-151
78,107,29,-92,24,68,4,53,-24,-48,-48,-156
78,107,29,-92,24,68,0,29,-43,-39,-48,-170
82,97,14,-90,34,56,-4,24,-58,-53,-63,-185
82,97,14,-90,34,56,0,19,-63,-53,-53,-170
87,97,9,-92,39,53,0,14,-43,-43,-43,-161
102,102,0,-102,51,51,0,19,-48,-24,-53,-151
97,92,-4,-95,51,43,0,19,-48,-24,-53,-151
102,112,9,-107,46,61,0,19,-48,-24,-48,-151
112,117,4,-114,53,61,0,9,-48,-24,-39,-151
82,117,34,-100,24,75,-19,4,-34,-43,-53,-146
102,146,43,-124,29,95,-68,-19,-63,-48,-39,-141
151,195,43,-173,53,119,-68,-68,-73,-39,-48,-151
122,195,73,-158,24,134,-29,-19,-24,-29,-73,-185
53,175,122,-114,-34,148,-24,58,14,4,-48,-195
73,156,82,-114,-4,119,-63,19,-34,43,-29,-180
107,126,19,-117,43,73,-73,-63,-117,78,9,-146
87,117,29,-102,29,73,-14,-78,-165,141,122,-68
68,136,68,-102,0,102,-9,-112,-307,200,224,9
82,161,78,-122,2,119,-43,-185,-595,229,361,122
73,161,87,-117,-7,124,-53,-248,-854,302,575,322
73,185,112,-129,-19,148,-82,-326,-1029,390,844,590
180,263,82,-222,48,173,-156,-458,-1180,444,1161,873
273,307,34,-290,119,170,-263,-575,-1342,517,1512,1171
268,297,29,-283,119,163,-375,-649,-1464,653,1888,1546
297,346,48,-322,124,197,-468,-712,-1532,751,2283,1991
351,424,73,-387,139,248,-541,-839,-1664,605,2537,2391
322,463,141,-392,90,302,-556,-985,-1903,273,2659,2713
356,473,117,-414,119,295,-566,-1054,-2117,24,2830,2971
429,473,43,-451,192,258,-610,-1034,-2176,-161,2986,3162
400,458,58,-429,170,258,-624,-1029,-2166,-414,3035,3347
444,414,-29,-429,236,192,-644,-1083,-2244,-722,3006,3508
522,253,-268,-387,395,-7,-624,-1054,-2303,-922,2991,3645
414,-4,-419,-204,417,-212,-522,-951,-2225,-980,2952,3713
287,-175,-463,-56,375,-319,-409,-917,-2054,-1068,2688,3557
263,-283,-546,9,405,-414,-366,-878,-1864,-1220,2127,3103
239,-390,-629,75,434,-509,-317,-702,-1683,-1317,1434,2454
165,-448,-614,141,390,-531,-229,-463,-1517,-1356,702,1659
102,-458,-561,178,331,-509,-131,-317,-1351,-1351,68,863
63,-458,-522,197,292,-490,-87,-273,-1180,-1293,-346,283
53,-439,-492,192,273,-466,-97,-287,-1024,-1205,-561,-53
0,-405,-405,202,202,-405,-34,-214,-839,-1044,-590,-170
-68,-395,-326,231,129,-361,92,-24,-624,-810,-458,-136
-68,-356,-287,212,109,-322,136,87,-502,-653,-390,-141
-58,-292,-234,175,87,-263,131,151,-439,-580,-400,-209
-87,-248,-161,168,36,-204,151,244,-331,-497,-370,-229
-63,-204,-141,134,39,-173,117,214,-239,-448,-322,-219
-9,-131,-122,70,56,-126,87,58,-165,-370,-219,-175
-34,-73,-39,53,2,-56,112,-43,-87,-239,-107,-131
-112,-68,43,90,-78,-12,141,24,-34,-141,-73,-122
-126,-29,97,78,-112,34,122,161,4,-117,-73,-102
-107,29,136,39,-122,82,97,224,19,-87,-63,-92
-107,34,141,36,-124,87,97,219,43,-53,-39,-87
-117,34,151,41,-134,92,107,229,68,-39,-34,-82
-122,43,165,39,-143,104,122,204,92,-14,-4,-78
-122,53,175,34,-148,114,102,151,92,-14,19,-97
-112,78,190,17,-151,134,82,136,102,0,34,-112
-122,73,195,24,-158,134,92,161,112,14,43,-117
-122,78,200,21,-161,139,92,180,151,29,63,-107
-97,97,195,0,-146,146,112,190,170,43,73,-112
-102,82,185,9,-143,134,102,180,170,58,53,-117
-102,97,200,2,-151,148,87,175,165,78,43,-141
-92,97,190,-2,-141,143,82,165,165,92,53,-151
-92,97,190,-2,-141,143,73,146,170,97,68,-156
-107,97,204,4,-156,151,82,141,195,87,73,-141
-131,92,224,19,-178,158,87,141,165,87,82,-136
-131,87,219,21,-175,153,87,141,156,87,78,-136
-141,68,209,36,-175,139,92,141,141,87,73,-136
-151,58,209,46,-180,134,102,151,146,117,78,-141
-170,58,229,56,-200,143,102,156,151,131,78,-141
-170,58,229,56,-200,143,92,156,156,136,87,-136
-165,58,224,53,-195,141,78,126,161,141,97,-131
-156,63,219,46,-187,141,78,136,165,136,97,-141
-146,68,214,39,-180,141,82,175,175,131,112,-146
-126,73,200,26,-163,136,92,146,175,131,107,-151
-117,82,200,17,-158,141,107,131,180,131,97,-151
-141,97,239,21,-190,168,92,146,190,136,102,-131
-122,97,219,12,-170,158,87,161,175,141,102,-126
-112,82,195,14,-153,139,73,161,175,146,97,-122
-136,78,214,29,-175,146,68,141,180,146,107,-136
-146,63,209,41,-178,136,87,141,214,146,122,-126
-161,68,229,46,-195,148,92,141,219,151,122,-126
-141,73,214,34,-178,143,102,151,209,151,122,-97
-151,87,239,31,-195,163,117,175,214,151,126,-63
-156,92,248,31,-202,170,112,170,224,146,131,-63
-151,82,234,34,-192,158,112,175,214,146,117,-78
-126,87,214,19,-170,151,102,185,204,136,82,-107
-112,97,209,7,-161,153,102,170,224,122,58,-112
-122,87,209,17,-165,148,82,141,224,122,68,-117
-117,87,204,14,-161,146,78,131,219,107,73,-131
-117,87,204,14,-161,146,78,151,204,117,87,-126
-112,87,200,12,-156,143,73,141,175,122,87,-131
-112,63,175,24,-143,119,78,117,175,131,102,-122
-117,63,180,26,-148,122,78,102,170,131,102,-117
-122,82,204,19,-163,143,87,78,165,146,102,-117
-107,82,190,12,-148,136,87,53,165,151,92,-122
-122,82,204,19,-163,143,97,92,180,141,87,-112
-151,82,234,34,-192,158,97,131,200,156,92,-107
-156,82,239,36,-197,161,92,170,204,156,92,-97
-146,82,229,31,-187,156,92,175,209,151,87,-87
-122,73,195,24,-158,134,102,161,224,161,97,-82
-141,68,209,36,-175,139,117,146,244,175,112,-78
-151,58,209,46,-180,134,112,151,248,195,126,-78
-136,53,190,41,-163,122,107,146,248,209,136,-92
-126,53,180,36,-153,117,102,151,239,200,107,-92
-126,53,180,36,-153,117,117,146,229,180,78,-87
-107,53,161,26,-134,107,92,175,209,165,68,-78
-92,43,136,24,-114,90,87,185,209,156,73,-58
-97,53,151,21,-124,102,92,180,214,165,82,-58
-102,68,170,17,-136,119,97,156,229,165,82,-58
-102,82,185,9,-143,134,112,141,229,165,68,-82
-97,97,195,0,-146,146,117,165,229,175,68,-97
-97,112,209,-7,-153,161,92,209,234,200,87,-107
-82,112,195,-14,-139,153,102,219,204,219,92,-107
-107,112,219,-2,-163,165,117,190,204,204,97,-107
-117,112,229,2,-173,170,117,200,234,224,122,-102
-102,87,190,7,-146,139,117,190,258,209,102,-92
-82,87,170,-2,-126,129,97,200,258,204,102,-92
-82,97,180,-7,-131,139,97,165,258,204,107,-92
-78,97,175,-9,-126,136,112,126,268,209,107,-87
-82,82,165,0,-124,124,126,122,287,219,107,-78
-87,78,165,4,-126,122,122,126,287,219,126,-87
-97,73,170,12,-134,122,122,165,297,229,151,-78
-107,63,170,21,-139,117,126,170,297,258,165,-68
-112,58,170,26,-141,114,117,161,283,248,165,-63
-107,63,170,21,-139,117,107,165,287,253,156,-63
-92,92,185,0,-139,139,112,165,283,253,156,-58
-107,97,204,4,-156,151,112,161,278,244,170,-58
-117,97,214,9,-165,156,117,141,287,278,180,-43
-112,97,209,7,-161,153,92,141,302,283,185,-39
-92,97,190,-2,-141,143,82,165,302,312,190,-34
-87,102,190,-7,-139,146,87,195,307,336,209,-34
-73,102,175,-14,-124,139,82,195,307,326,209,-39
-58,92,151,-17,-104,122,78,170,322,302,209,-34
-73,87,161,-7,-117,124,78,161,326,292,200,-4
-82,87,170,-2,-126,129,73,200,341,292,185,-9
-97,87,185,4,-141,136,78,209,366,312,190,-29
-87,102,190,-7,-139,146,78,195,375,331,204,-4
-92,102,195,-4,-143,148,97,180,380,361,224,24
-97,97,195,0,-146,146,97,200,375,375,234,39
-82,107,190,-12,-136,148,107,204,370,361,248,48
-82,102,185,-9,-134,143,107,190,385,380,258,58
-97,102,200,-2,-148,151,102,170,409,395,263,58
-97,102,200,-2,-148,151,102,175,414,405,278,68
-73,102,175,-14,-124,139,73,190,400,424,287,92
-63,107,170,-21,-117,139,43,200,395,439,297,107
-63,107,170,-21,-117,139,29,204,400,453,326,131
-73,107,180,-17,-126,143,19,209,409,473,356,161
-63,117,180,-26,-122,148,29,200,429,473,356,165
-63,131,195,-34,-129,163,39,195,429,478,380,195
-63,156,219,-46,-141,187,43,200,434,492,400,204
-58,165,224,-53,-141,195,43,175,448,517,409,204
-53,146,200,-46,-126,173,24,190,463,512,409,219
-63,126,190,-31,-126,158,24,209,483,512,424,224
-58,107,165,-24,-112,136,24,239,478,522,453,239
-34,87,122,-26,-78,104,24,253,468,527,458,253
-43,73,117,-14,-80,95,14,234,453,541,478,283
-43,68,112,-12,-78,90,9,234,473,570,502,302
-39,82,122,-21,-80,102,14,224,468,580,517,307
-39,82,122,-21,-80,102,24,195,478,600,522,326
-19,97,117,-39,-68,107,9,165,492,570,517,341
-19,87,107,-34,-63,97,4,165,492,536,507,336
-29,82,112,-26,-70,97,0,180,483,517,497,331
-29,68,97,-19,-63,82,4,190,488,512,497,336
-39,58,97,-9,-68,78,19,200,483,527,512,346
-19,73,92,-26,-56,82,19,219,473,522,522,366
-19,68,87,-24,-53,78,9,204,453,541,541,395
-19,68,87,-24,-53,78,0,200,458,556,556,405
-29,78,107,-24,-68,92,4,185,468,546,551,400
-29,78,107,-24,-68,92,-14,161,439,536,531,380
-29,78,107,-24,-68,92,-14,170,424,522,512,366
-29,78,107,-24,-68,92,-4,185,424,522,522,370
-9,58,68,-24,-39,63,-14,200,453,507,522,385
-39,48,87,-4,-63,68,0,195,463,507,517,390
-43,39,82,2,-63,61,4,156,463,512,512,400
-19,48,68,-14,-43,58,4,151,419,483,497,400
-14,53,68,-19,-41,61,-9,122,390,444,473,395
-39,53,92,-7,-65,73,-19,117,375,429,448,380
-82,34,117,24,-100,75,-24,112,370,424,458,356
-73,34,107,19,-90,70,-34,112,346,400,458,346
-39,58,97,-9,-68,78,-34,122,326,380,424,317
-48,68,117,-9,-82,92,-34,112,307,375,400,307
-39,68,107,-14,-73,87,-29,87,283,361,395,322
-29,68,97,-19,-63,82,-29,73,278,351,366,322
-48,58,107,-4,-78,82,-19,92,278,341,361,307
-63,53,117,4,-90,85,-9,102,273,322,341,292
-68,48,117,9,-92,82,0,87,273,297,326,248
-73,63,136,4,-104,100,19,87,273,283,322,219
-82,53,136,14,-109,95,0,87,278,278,307,195
-82,43,126,19,-104,85,-9,82,253,258,263,190
-82,24,107,29,-95,65,-24,82,244,248,239,185
-87,-4,82,46,-85,39,-34,82,244,229,209,175
-78,-19,58,48,-68,19,-14,63,234,190,190,126
-87,-19,68,53,-78,24,9,43,204,180,185,117
-82,-24,58,53,-70,17,24,29,156,151,161,97
-97,-29,68,63,-82,19,39,0,131,126,136,63
-97,-24,73,61,-85,24,4,-14,122,126,117,53
-112,-19,92,65,-102,36,-4,4,102,87,102,58
-122,-19,102,70,-112,41,-9,29,87,68,107,63
-136,-14,122,75,-129,53,-4,58,68,63,92,53
-146,-9,136,78,-141,63,9,39,78,63,92,34
-156,-4,151,80,-153,73,14,24,53,48,92,29
-165,-9,156,87,-161,73,14,82,24,48,82,9
-161,-9,151,85,-156,70,9,117,14,48,78,-24
-151,-24,126,87,-139,51,14,58,19,39,58,-24
-136,-24,112,80,-124,43,19,39,14,19,39,-24
-122,-29,92,75,-107,31,24,34,4,0,34,0
-107,-48,58,78,-82,4,29,14,-9,0,29,9
-107,-29,78,68,-92,24,24,14,4,4,19,-9
-102,-14,87,58,-95,36,24,14,19,4,0,-29
-78,-14,63,46,-70,24,19,29,24,-24,0,-48
-107,-29,78,68,-92,24,4,9,4,-34,-14,-68
-146,-34,112,90,-129,39,4,14,0,-34,-14,-58
-146,-34,112,90,-129,39,14,29,4,-39,-24,-63
-136,-34,102,85,-119,34,14,34,0,-48,-24,-68
-151,-43,107,97,-129,31,19,34,4,-48,-39,-68
-156,-48,107,102,-131,29,9,19,24,-58,-53,-58
-146,-48,97,97,-122,24,4,34,9,-63,-58,-78
-151,-43,107,97,-129,31,-4,19,-24,-82,-63,-102
-156,-43,112,100,-134,34,-4,9,0,-87,-73,-117
-165,-48,117,107,-141,34,-4,14,-29,-87,-78,-122
-165,-48,117,107,-141,34,9,24,-39,-97,-78,-126
-146,-24,122,85,-134,48,24,14,-39,-102,-82,-117
-131,-9,122,70,-126,56,24,0,-43,-102,-82,-122
-141,-24,117,82,-129,46,9,14,-19,-92,-78,-122
-165,-34,131,100,-148,48,0,4,4,-78,-68,-122
-175,-48,126,112,-151,39,0,-4,0,-68,-63,-122
-151,-58,92,104,-122,17,-9,19,0,-58,-58,-136
-131,-34,97,82,-114,31,-4,39,-4,-68,-53,-126
-146,-34,112,90,-129,39,14,43,0,-63,-48,-122
-161,-43,117,102,-139,36,24,48,9,-58,-43,-122
-165,-43,122,104,-143,39,29,43,24,-53,-39,-136
-156,-58,97,107,-126,19,43,29,14,-48,-34,-136
-156,-58,97,107,-126,19,43,34,9,-48,-43,-126
-156,-39,117,97,-136,39,39,48,-4,-53,-43,-126
-156,-39,117,97,-136,39,43,43,-14,-53,-34,-131
-146,-53,92,100,-119,19,43,19,-24,-48,-39,-136
-146,-58,87,102,-117,14,43,29,-39,-48,-34,-141
-146,-68,78,107,-112,4,39,29,-14,-48,-39,-146
-146,-73,73,109,-109,0,29,24,4,-43,-48,-156
-141,-82,58,112,-100,-12,24,29,14,-63,-63,-165
-136,-82,53,109,-95,-14,19,14,9,-63,-78,-165
-126,-78,48,102,-87,-14,29,34,19,-63,-92,-170
-122,-78,43,100,-82,-17,48,58,29,-73,-112,-170
-141,-68,73,104,-107,2,58,29,4,-87,-112,-175
-136,-53,82,95,-109,14,43,-9,-14,-97,-131,-170
-161,-34,126,97,-143,46,34,-29,-24,-102,-131,-156
-151,-53,97,102,-124,21,34,-14,-34,-117,-126,-141
-161,-78,82,119,-122,2,34,0,-63,-136,-122,-151
-165,-68,97,117,-131,14,43,-19,-87,-146,-126,-156
-170,-68,102,119,-136,17,43,-48,-97,-156,-131,-165
-185,-73,112,129,-148,19,39,-4,-102,-170,-136,-180
-195,-87,107,141,-151,9,48,4,-68,-156,-131,-190
-180,-92,87,136,-134,-2,53,9,-53,-146,-131,-185
-170,-87,82,129,-126,-2,63,-9,-63,-141,-136,-180
-161,-92,68,126,-114,-12,87,0,-48,-141,-117,-175
-180,-112,68,146,-124,-21,68,29,-34,-117,-117,-165
-180,-112,68,146,-124,-21,58,29,-34,-97,-131,-170
-180,-102,78,141,-129,-12,48,14,-34,-82,-107,-190
-195,-102,92,148,-143,-4,39,14,-34,-73,-107,-214
-195,-122,73,158,-134,-24,39,29,-24,-87,-131,-214
-190,-126,63,158,-126,-31,43,29,-9,-107,-146,-214
-180,-136,43,158,-112,-46,48,24,-9,-136,-170,-200
-151,-126,24,139,-87,-51,48,24,-19,-151,-180,-200
-151,-107,43,129,-97,-31,43,14,-29,-165,-170,-204
-146,-87,58,117,-102,-14,39,4,-24,-146,-175,-204
-151,-78,73,114,-112,-2,39,-19,-34,-151,-185,-204
-156,-68,87,112,-122,9,43,-19,-48,-156,-190,-204
-146,-58,87,102,-117,14,48,9,-43,-141,-180,-214
-136,-68,68,102,-102,0,48,19,-43,-141,-175,-214
-122,-58,63,90,-92,2,29,39,-24,-136,-165,-209
-97,-43,53,70,-75,4,19,48,-4,-131,-151,-204
-131,-58,73,95,-102,7,34,34,14,-122,-156,-209
-156,-63,92,109,-124,14,53,9,24,-112,-156,-204
-151,-53,97,102,-124,21,68,-4,29,-117,-156,-204
-165,-58,107,112,-136,24,73,-24,58,-126,-170,-214
-151,-73,78,112,-114,2,53,-4,19,-131,-165,-214
-136,-63,73,100,-104,4,39,24,-29,-141,-161,-224
-112,-63,48,87,-80,-7,29,24,-53,-112,-146,-224
-131,-68,63,100,-97,-2,24,34,-73,-97,-122,-219
-141,-58,82,100,-112,12,43,29,-29,-68,-122,-209
-117,-58,58,87,-87,0,29,29,4,-82,-131,-204
-136,-63,73,100,-104,4,29,19,34,-92,-131,-209
-161,-73,87,117,-124,7,29,-4,53,-92,-131,-214
-156,-97,58,126,-107,-19,43,4,29,-102,-126,-204
-175,-97,78,136,-126,-9,53,43,4,-102,-126,-200
-161,-87,73,124,-117,-7,53,58,-14,-102,-122,-195
-161,-87,73,124,-117,-7,53,39,-39,-97,-117,-190
-151,-43,107,97,-129,31,43,14,-34,-87,-107,-180
-146,-34,112,90,-129,39,39,24,-29,-87,-78,-175
-151,-24,126,87,-139,51,43,53,4,-78,-48,-156
-146,-14,131,80,-139,58,39,63,24,-63,-39,-156
-136,-19,117,78,-126,48,48,39,29,-48,-39,-156
-122,-24,97,73,-109,36,43,19,43,-14,-29,-161
-112,-43,68,78,-90,12,48,0,53,-19,-29,-161
-97,-63,34,80,-65,-14,53,-19,58,-34,-29,-161
-107,-58,48,82,-78,-4,53,19,58,-29,-9,-151
-107,-48,58,78,-82,4,58,43,58,-39,-9,-136
-97,-43,53,70,-75,4,63,48,58,-34,-4,-117
-97,-43,53,70,-75,4,63,48,48,-29,-4,-107
-112,-29,82,70,-97,26,73,48,58,-14,0,-107
-112,-24,87,68,-100,31,73,53,78,4,0,-117
-117,-14,102,65,-109,43,82,58,78,4,-9,-131
-122,-9,112,65,-117,51,82,58,48,4,-9,-156
-131,-24,107,78,-119,41,82,48,29,-14,-19,-151
-122,-39,82,80,-102,21,78,68,24,-39,-9,-131
-112,-43,68,78,-90,12,78,53,19,-19,-9,-122
-97,-34,63,65,-80,14,73,53,9,0,-4,-122
-87,-24,63,56,-75,19,73,68,19,-9,-14,-136
-102,-19,82,61,-92,31,73,68,24,-34,-19,-136
-107,-4,102,56,-104,48,58,14,29,-53,-34,-136
-107,-14,92,61,-100,39,58,-4,24,-63,-34,-136
-107,-24,82,65,-95,29,53,9,24,-53,-14,-136
-97,-9,87,53,-92,39,58,43,29,-48,-14,-126
-82,-4,78,43,-80,36,53,43,29,-43,-14,-97
-82,-4,78,43,-80,36,48,29,9,-43,-9,-73
-92,0,92,46,-92,46,58,39,14,-34,0,-78
-78,-4,73,41,-75,34,63,39,14,-24,-14,-87
-68,-24,43,46,-56,9,68,53,9,-19,-24,-97
-82,-9,73,46,-78,31,68,39,-9,-24,-24,-126
-87,-19,68,53,-78,24,78,53,0,-39,-43,-151
-92,-29,63,61,-78,17,78,78,14,-48,-53,-151
-97,-29,68,63,-82,19,78,73,24,-53,-58,-131
-102,-34,68,68,-85,17,97,48,19,-48,-53,-112
-97,-39,58,68,-78,9,68,0,29,-58,-68,-126
-87,-43,43,65,-65,0,68,-34,53,-68,-78,-136
-87,-48,39,68,-63,-4,68,-48,63,-73,-82,-141
-92,-34,58,63,-75,12,68,-58,63,-82,-92,-151
-68,-19,48,43,-58,14,58,-39,19,-78,-87,-161
-53,-14,39,34,-46,12,53,-4,-24,-78,-78,-156
-63,-24,39,43,-51,7,53,48,-63,-63,-63,-136
-58,-19,39,39,-48,9,53,82,-53,-48,-53,-126
-68,-14,53,41,-61,19,53,19,-14,-34,-63,-117
-78,-9,68,43,-73,29,48,-4,-4,-34,-63,-117
-92,4,97,43,-95,51,48,4,14,-39,-63,-117
-107,4,112,51,-109,58,43,0,14,-53,-63,-141
-92,-24,68,58,-80,21,39,-14,19,-78,-78,-156
-82,-48,34,65,-58,-7,39,-19,4,-87,-82,-151
-78,-43,34,61,-56,-4,34,-19,9,-92,-92,-131
-53,-34,19,43,-36,-7,29,9,19,-102,-97,-117
-68,-58,9,63,-39,-24,58,19,-9,-78,-78,-122
-73,-63,9,68,-41,-26,58,9,-39,-63,-68,-122
-68,-53,14,61,-41,-19,43,9,-48,-68,-58,-126
-68,-48,19,58,-43,-14,39,9,-68,-78,-48,-131
-63,-48,14,56,-39,-17,29,-9,-58,-97,-58,-136
-58,-58,0,58,-29,-29,29,0,-43,-102,-58,-136
-68,-43,24,56,-46,-9,34,29,-14,-107,-58,-136
-102,-53,48,78,-75,-2,34,43,9,-107,-58,-131
-112,-48,63,80,-87,7,34,9,-9,-107,-68,-156
-68,-24,43,46,-56,9,19,-4,-19,-107,-73,-165
-29,0,29,14,-29,14,9,-14,-29,-107,-78,-180
-29,29,58,0,-43,43,9,-68,-29,-102,-87,-200
-39,14,53,12,-46,34,14,-82,-19,-92,-87,-195
-39,14,53,12,-46,34,9,-43,-14,-97,-92,-200
-58,0,58,29,-58,29,14,-14,-14,-117,-82,-170
-112,-29,82,70,-97,26,29,9,4,-102,-68,-165
-107,-48,58,78,-82,4,29,-9,-14,-102,-58,-175
-87,-39,48,63,-68,4,29,9,-29,-97,-53,-170
-63,-29,34,46,-48,2,24,24,-48,-92,-48,-165
-29,-19,9,24,-19,-4,14,14,-68,-87,-48,-170
-39,-14,24,26,-31,4,0,34,-68,-87,-39,-180
-68,-14,53,41,-61,19,9,53,-29,-87,-48,-190
-63,-24,39,43,-51,7,19,63,-34,-87,-63,-200
-53,-24,29,39,-41,2,19,58,-24,-87,-87,-224
-48,-19,29,34,-39,4,29,24,-43,-102,-87,-200
-43,-19,24,31,-34,2,39,-4,-19,-102,-73,-175
-39,-29,9,34,-24,-9,48,-34,-19,-97,-63,-161
-53,-29,24,41,-39,-2,58,-58,-48,-102,-63,-151
-58,-24,34,41,-46,4,48,-19,-43,-92,-63,-165
-63,-24,39,43,-51,7,48,19,-39,-82,-63,-170
-68,-39,29,53,-48,-4,53,-14,-14,-73,-63,-175
-58,-39,19,48,-39,-9,39,-29,0,-58,-58,-200
-63,-34,29,48,-46,-2,48,29,9,-73,-73,-185
-58,-29,29,43,-43,0,48,0,-4,-87,-73,-170
-97,-29,68,63,-82,19,48,-29,-14,-73,-58,-165
-68,-24,43,46,-56,9,43,-19,-14,-78,-48,-175
-58,-4,53,31,-56,24,48,0,4,-87,-68,-175
-39,9,48,14,-43,29,53,29,9,-102,-73,-170
-53,9,63,21,-58,36,68,-4,14,-97,-73,-165
-68,4,73,31,-70,39,73,-9,39,-92,-73,-136
-39,0,39,19,-39,19,58,14,9,-102,-78,-131
-14,4,19,4,-17,12,43,19,-9,-97,-73,-146
-58,9,68,24,-63,39,29,4,-29,-87,-58,-141
-78,-9,68,43,-73,29,9,-14,-48,-87,-48,-141
-29,-14,14,21,-21,0,53,39,0,-68,-29,-97
-29,-58,-29,43,0,-43,102,63,-14,-68,-39,-112
-29,-58,-29,43,0,-43,92,24,-4,-63,-39,-136
-29,-29,0,29,-14,-14,48,-48,19,-58,-39,-156
-39,-14,24,26,-31,4,39,-29,4,-68,-48,-141
-48,-9,39,29,-43,14,39,-9,0,-68,-48,-136
-58,-4,53,31,-56,24,39,9,-4,-68,-48,-131
-68,0,68,34,-68,34,39,29,-9,-68,-48,-126
-53,-4,48,29,-51,21,53,19,-9,-68,-48,-126
-48,-9,39,29,-43,14,58,19,-9,-68,-48,-126
-43,-14,29,29,-36,7,63,19,-9,-68,-48,-126
-39,-19,19,29,-29,0,68,19,-9,-68,-48,-126
-34,-9,24,21,-29,7,68,4,9,-78,-48,-122
-29,-9,19,19,-24,4,68,-9,19,-78,-48,-117
-24,-9,14,17,-19,2,68,-24,29,-78,-48,-112
-19,-9,9,14,-14,0,68,-39,39,-78,-48,-107
-19,-9,9,14,-14,0,63,-19,29,-58,-39,-112
-19,-9,9,14,-14,0,58,-9,29,-48,-39,-117
-19,-9,9,14,-14,0,53,0,29,-39,-39,-122
-19,-9,9,14,-14,0,48,9,29,-29,-39,-126
-19,-14,4,17,-12,-4,48,-4,9,-39,-48,-126
-19,-19,0,19,-9,-9,48,-9,0,-48,-48,-126
-19,-24,-4,21,-7,-14,48,-14,-9,-58,-48,-126
-19,-29,-9,24,-4,-19,48,-19,-19,-68,-48,-126
-29,-19,9,24,-19,-4,39,-9,-9,-78,-53,-117
-39,-19,19,29,-29,0,39,-9,0,-87,-58,-117
-48,-19,29,34,-39,4,39,-9,9,-97,-63,-117
-58,-19,39,39,-48,9,39,-9,19,-107,-68,-117
-58,-9,48,34,-53,19,53,-9,9,-97,-68,-131
-58,-9,48,34,-53,19,58,-9,9,-97,-68,-136
-58,-9,48,34,-53,19,63,-9,9,-97,-68,-141
-58,-9,48,34,-53,19,68,-9,9,-97,-68,-146
-48,-19,29,34,-39,4,78,-19,-9,-102,-78,-136
-48,-29,19,39,-34,-4,78,-19,-19,-107,-78,-126
-48,-39,9,43,-29,-14,78,-19,-29,-112,-78,-117
-48,-48,0,48,-24,-24,78,-19,-39,-117,-78,-107
-34,-34,0,34,-17,-17,78,-9,-24,-102,-63,-102
-29,-29,0,29,-14,-14,78,0,-19,-97,-58,-97
-24,-24,0,24,-12,-12,78,9,-14,-92,-53,-92
-19,-19,0,19,-9,-9,78,19,-9,-87,-48,-87
-34,-24,9,29,-21,-7,78,9,-14,-102,-53,-87
-48,-29,19,39,-34,-4,78,0,-19,-107,-58,-87
-63,-34,29,48,-46,-2,78,-9,-24,-112,-63,-87
-78,-39,39,58,-58,0,78,-19,-29,-117,-68,-87
-58,-39,19,48,-39,-9,73,-14,-39,-107,-68,-102
-48,-39,9,43,-29,-14,68,-9,-39,-107,-68,-117
-39,-39,0,39,-19,-19,63,-4,-39,-107,-68,-131
-29,-39,-9,34,-9,-24,58,0,-39,-107,-68,-146
-29,-39,-9,34,-9,-24,48,4,-34,-97,-68,-156
-29,-39,-9,34,-9,-24,48,9,-29,-97,-68,-156
-29,-39,-9,34,-9,-24,48,14,-24,-97,-68,-156
-29,-39,-9,34,-9,-24,48,19,-19,-97,-68,-156
-19,-29,-9,24,-4,-19,39,0,-24,-97,-78,-146
-19,-29,-9,24,-4,-19,39,-9,-29,-97,-78,-146
-19,-29,-9,24,-4,-19,39,-19,-34,-97,-78,-146
-19,-29,-9,24,-4,-19,39,-29,-39,-97,-78,-146
-24,-39,-14,31,-4,-26,48,-39,-43,-97,-73,-136
-29,-39,-9,34,-9,-24,48,-39,-48,-97,-68,-136
-34,-39,-4,36,-14,-21,48,-39,-53,-97,-63,-136
-39,-39,0,39,-19,-19,48,-39,-58,-97,-58,-136
-34,-29,4,31,-19,-12,53,-19,-39,-97,-68,-131
-29,-29,0,29,-14,-14,58,-9,-29,-97,-68,-126
-24,-29,-4,26,-9,-17,63,0,-19,-97,-68,-122
-19,-29,-9,24,-4,-19,68,9,-9,-97,-68,-117
-34,-39,-4,36,-14,-21,53,-9,0,-87,-68,-117
-39,-39,0,39,-19,-19,48,-19,0,-87,-68,-117
-43,-39,4,41,-24,-17,43,-29,0,-87,-68,-117
-48,-39,9,43,-29,-14,39,-39,0,-87,-68,-117
-39,-43,-4,41,-17,-24,58,-24,-14,-68,-63,-117
-39,-48,-9,43,-14,-29,68,-9,-19,-58,-58,-117
-39,-53,-14,46,-12,-34,78,4,-24,-48,-53,-117
-39,-58,-19,48,-9,-39,87,19,-29,-39,-48,-117
-48,-53,-4,51,-21,-29,78,4,-24,-48,-58,-126
-48,-48,0,48,-24,-24,68,-9,-19,-48,-58,-126
-48,-43,4,46,-26,-19,58,-24,-14,-48,-58,-126
-48,-39,9,43,-29,-14,48,-39,-9,-48,-58,-126
-39,-34,4,36,-21,-14,48,-24,-14,-53,-48,-122
-29,-29,0,29,-14,-14,48,-19,-19,-58,-48,-117
-19,-24,-4,21,-7,-14,48,-14,-24,-63,-48,-112
-9,-19,-9,14,0,-14,48,-9,-29,-68,-48,-107
-9,-9,0,9,-4,-4,53,-4,-9,-58,-58,-117
-9,-9,0,9,-4,-4,58,0,0,-58,-58,-117
-9,-9,0,9,-4,-4,63,4,9,-58,-58,-117
-9,-9,0,9,-4,-4,68,9,19,-58,-58,-117
-9,0,9,4,-9,4,58,-4,19,-73,-58,-107
-9,9,19,0,-14,14,58,-9,19,-78,-58,-107
-9,19,29,-4,-19,24,58,-14,19,-82,-58,-107
-9,29,39,-9,-24,34,58,-19,19,-87,-58,-107
0,24,24,-12,-12,24,68,-14,9,-63,-43,-92
0,19,19,-9,-9,19,68,-9,0,-48,-39,-87
-4,14,19,-4,-12,17,68,14,-24,-34,-19,-82
-4,24,29,-9,-17,26,58,34,-24,-34,-29,-92
-4,24,29,-9,-17,26,58,53,4,-53,-58,-112
-19,19,39,0,-29,29,58,58,-4,-58,-58,-122
-58,4,63,26,-61,34,58,63,4,-58,-43,-107
-73,-9,63,41,-68,26,58,58,19,-63,-34,-87
-43,-9,34,26,-39,12,53,19,19,-48,-34,-97
-9,-9,0,9,-4,-4,53,-9,19,-43,-34,-107
14,-4,-19,-4,17,-12,68,14,24,-43,-39,-97
24,4,-19,-14,21,-7,68,14,9,-48,-48,-87
0,-4,-4,2,2,-4,53,4,0,-58,-82,-102
-4,-4,0,4,-2,-2,53,-39,-19,-58,-102,-97
4,0,-4,-2,4,-2,53,-39,-24,-58,-112,-92
-9,0,9,4,-9,4,53,-39,-24,-48,-102,-82
-4,-4,0,4,-2,-2,48,-19,-29,-58,-87,-102
0,-19,-19,9,9,-19,43,4,-29,-63,-82,-102
0,-14,-14,7,7,-14,34,24,-34,-73,-58,-112
4,-19,-24,7,14,-21,24,14,-39,-82,-43,-122
14,-24,-39,4,26,-31,9,-29,-39,-78,-43,-126
14,-29,-43,7,29,-36,9,-29,-39,-73,-53,-122
14,-24,-39,4,26,-31,14,-4,-39,-68,-43,-117
9,-19,-29,4,19,-24,14,-43,-29,-73,-43,-122
-4,-29,-24,17,9,-26,48,-43,-24,-82,-53,-102
-29,-19,9,24,-19,-4,58,-39,-19,-82,-58,-87
-34,-19,14,26,-24,-2,58,-24,-14,-82,-58,-87
-29,-19,9,24,-19,-4,68,-19,-9,-78,-63,-92
-43,-24,19,34,-31,-2,68,9,-14,-87,-53,-97
-48,-24,24,36,-36,0,63,-14,-24,-97,-73,-112
-39,-29,9,34,-24,-9,58,-9,-34,-97,-73,-122
-53,-34,19,43,-36,-7,53,0,-43,-102,-63,-126
-53,-34,19,43,-36,-7,39,-9,-34,-102,-73,-126
-43,-39,4,41,-24,-17,34,-14,-39,-102,-87,-131
-34,-39,-4,36,-14,-21,34,-19,-43,-102,-97,-141
-34,-43,-9,39,-12,-26,34,-24,-43,-102,-107,-146
-24,-39,-14,31,-4,-26,34,-34,-48,-112,-102,-131
-14,-29,-14,21,0,-21,19,-43,-53,-131,-97,-126
-9,-19,-9,14,0,-14,9,-29,-58,-136,-92,-131
-9,-14,-4,12,-2,-9,29,-19,-63,-126,-78,-126
-19,-19,0,19,-9,-9,48,-29,-43,-112,-63,-112
-24,-19,4,21,-14,-7,53,-29,-39,-92,-73,-112
-29,-14,14,21,-21,0,43,-19,-29,-73,-58,-107
-24,-14,9,19,-17,-2,43,-4,-4,-58,-53,-107
-14,-24,-9,19,-2,-17,24,-19,-24,-82,-73,-122
-19,-39,-19,29,0,-29,4,-39,-48,-102,-82,-151
-29,-39,-9,34,-9,-24,-9,-39,-58,-126,-92,-165
-29,-34,-4,31,-12,-19,-14,-24,-53,-122,-107,-180
-34,-24,9,29,-21,-7,9,-19,-58,-112,-92,-170
-24,-34,-9,29,-7,-21,19,-19,-58,-112,-87,-165
-24,-24,0,24,-12,-12,19,-19,-63,-87,-82,-161
-24,-24,0,24,-12,-12,39,-24,-73,-68,-63,-156
-9,-19,-9,14,0,-14,48,-29,-63,-73,-78,-161
0,-14,-14,7,7,-14,43,-19,-58,-102,-92,-161
9,-9,-19,0,14,-14,43,-4,-39,-126,-117,-165
19,-4,-24,-7,21,-14,43,-14,-34,-141,-112,-165
-4,-19,-14,12,4,-17,39,-43,-19,-126,-97,-161
9,-24,-34,7,21,-29,29,-53,-19,-126,-92,-156
4,-34,-39,14,21,-36,24,-24,-34,-122,-87,-141
-4,-43,-39,24,17,-41,19,-14,-53,-112,-82,-131
-4,-34,-29,19,12,-31,29,-4,-68,-97,-68,-117
-4,-24,-19,14,7,-21,29,-19,-48,-97,-73,-117
-9,-14,-4,12,-2,-9,24,-34,-53,-112,-68,-122
-9,0,9,4,-9,4,19,-48,-73,-117,-58,-126
-19,4,24,7,-21,14,19,-24,-63,-112,-48,-136
-24,4,29,9,-26,17,24,-14,-58,-102,-48,-131
-24,-4,19,14,-21,7,24,0,-34,-87,-48,-122
-24,-4,19,14,-21,7,24,9,-19,-68,-48,-122
-24,-19,4,21,-14,-7,24,-4,-29,-78,-58,-107
0,-19,-19,9,9,-19,9,-4,-39,-87,-63,-122
24,-4,-29,-9,26,-17,0,-4,-48,-87,-78,-151
24,-14,-39,-4,31,-26,0,9,-24,-87,-87,-156
4,-24,-29,9,17,-26,4,4,-34,-92,-78,-141
9,-24,-34,7,21,-29,14,-19,-34,-107,-82,-136
0,-24,-24,12,12,-24,24,-34,-39,-112,-82,-131
-19,-34,-14,26,-2,-24,29,-24,-39,-112,-68,-112
-34,-39,-4,36,-14,-21,43,-9,-24,-97,-48,-92
-29,-19,9,24,-19,-4,43,-4,-24,-78,-39,-87
-34,-4,29,19,-31,12,48,-9,-39,-63,-39,-92
-34,-9,24,21,-29,7,53,-4,-48,-63,-43,-97
-14,4,19,4,-17,12,48,0,-53,-73,-39,-97
0,9,9,-4,-4,9,48,4,-34,-73,-34,-92
19,9,-9,-14,14,0,43,4,-34,-73,-48,-97
19,4,-14,-12,17,-4,39,9,-39,-82,-53,-102
14,9,-4,-12,9,2,48,19,-24,-78,-39,-102
14,9,-4,-12,9,2,48,9,-19,-73,-29,-102
9,4,-4,-7,7,0,48,4,-29,-68,-43,-107
-4,0,4,2,-4,2,39,-9,-24,-58,-48,-122
-14,19,34,-2,-24,26,39,-29,14,-68,-107,-151
14,19,4,-17,4,12,29,-97,-63,-97,-122,-165
-4,0,4,2,-4,2,4,-126,-151,-53,-39,-117
-14,-9,4,12,-9,-2,-4,-48,-161,53,87,-43
48,9,-39,-29,43,-14,-4,-34,-146,165,175,-39
78,29,-48,-53,63,-9,-34,-117,-263,209,219,-29
39,39,0,-39,19,19,-68,-190,-483,219,312,68
43,34,-9,-39,26,12,-92,-234,-653,258,478,209
73,34,-39,-53,56,-2,-122,-297,-756,322,722,370
92,107,14,-100,39,61,-161,-405,-922,439,1049,649
122,224,102,-173,9,163,-244,-556,-1171,580,1415,1029
165,268,102,-217,31,185,-331,-673,-1381,702,1786,1385
209,287,78,-248,65,183,-414,-707,-1444,732,2093,1683
278,375,97,-326,90,236,-527,-741,-1503,595,2283,1971
331,492,161,-412,85,326,-639,-927,-1742,322,2352,2244
351,492,141,-422,104,317,-722,-1161,-2000,58,2444,2527
356,444,87,-400,134,265,-761,-1190,-2098,-141,2537,2718
390,424,34,-407,178,229,-756,-1102,-2147,-424,2508,2830
429,370,-58,-400,244,156,-732,-1137,-2205,-785,2420,2957
405,239,-165,-322,285,36,-712,-1132,-2196,-1024,2381,3079
346,48,-297,-197,322,-124,-634,-985,-2088,-1127,2337,3215
356,-151,-507,-102,431,-329,-512,-844,-1971,-1234,2074,3167
346,-341,-688,-2,517,-514,-429,-732,-1859,-1381,1586,2835
292,-429,-722,68,507,-575,-405,-653,-1708,-1444,1034,2322
239,-458,-697,109,468,-578,-375,-614,-1546,-1483,409,1634
165,-546,-712,190,439,-629,-326,-531,-1361,-1522,-185,888
73,-644,-717,285,395,-680,-209,-326,-1146,-1449,-527,326
43,-614,-658,285,351,-636,-78,-156,-946,-1332,-649,19
82,-536,-619,226,351,-578,-39,-92,-810,-1205,-688,-170
78,-502,-580,212,329,-541,-43,-58,-702,-1054,-658,-239
0,-483,-483,241,241,-483,-4,4,-614,-868,-585,-253
-58,-434,-375,246,158,-405,48,68,-551,-741,-546,-278
-48,-400,-351,224,151,-375,34,92,-497,-688,-507,-307
-39,-326,-287,183,124,-307,-4,48,-409,-585,-419,-297
-53,-253,-200,153,73,-226,0,0,-317,-439,-292,-248
-29,-229,-200,129,85,-214,0,39,-244,-370,-229,-214
4,-190,-195,92,100,-192,-4,112,-175,-346,-185,-190
4,-146,-151,70,78,-148,14,112,-112,-307,-122,-131
-19,-126,-107,73,43,-117,24,92,-43,-253,-102,-92
-29,-117,-87,73,29,-102,9,87,-19,-204,-102,-82
-29,-97,-68,63,19,-82,19,92,-19,-141,-87,-102
-39,-82,-43,61,2,-63,29,112,0,-117,-82,-102
-43,-58,-14,51,-14,-36,43,97,19,-82,-53,-102
-43,-34,9,39,-26,-12,24,53,14,-73,-29,-126
-34,-29,4,31,-19,-12,4,29,29,-87,-43,-146
-34,-43,-9,39,-12,-26,14,43,34,-92,-53,-146
-24,-48,-24,36,0,-36,14,53,68,-97,-53,-131
9,-39,-48,14,29,-43,34,53,82,-102,-63,-131
4,-53,-58,24,31,-56,34,58,58,-63,-68,-146
4,-39,-43,17,24,-41,19,58,48,-39,-63,-170
14,-39,-53,12,34,-46,14,53,43,-19,-39,-180
14,-39,-53,12,34,-46,4,39,43,-9,-9,-185
9,-43,-53,17,31,-48,4,34,78,-14,-9,-170
-4,-43,-39,24,17,-41,9,34,58,-19,4,-156
4,-43,-48,19,26,-46,9,34,58,-24,4,-146
4,-58,-63,26,34,-61,14,34,53,-29,4,-136
14,-48,-63,17,39,-56,19,24,34,-29,9,-151
4,-39,-43,17,24,-41,24,9,24,-24,0,-151
14,-29,-43,7,29,-36,19,-9,14,-29,0,-146
29,-19,-48,-4,39,-34,9,-58,4,-34,0,-141
9,-29,-39,9,24,-34,4,-19,29,-43,14,-136
0,-29,-29,14,14,-29,4,48,58,-43,34,-136
0,-29,-29,14,14,-29,9,48,78,-39,34,-136
-9,-24,-14,17,2,-19,19,63,102,-34,29,-131
-14,-9,4,12,-9,-2,29,73,97,-29,4,-136
4,-9,-14,2,9,-12,29,82,78,-24,-4,-136
14,-24,-39,4,26,-31,19,78,73,-19,-19,-136
-9,-29,-19,19,4,-24,19,53,73,-19,-19,-156
-4,-39,-34,21,14,-36,29,58,107,-14,0,-146
-14,-29,-14,21,0,-21,34,53,122,-4,4,-156
9,-19,-29,4,19,-24,43,58,122,0,9,-136
4,0,-4,-2,4,-2,58,78,136,4,19,-112
-14,-4,9,9,-12,2,53,53,126,4,29,-102
-24,-14,9,19,-17,-2,43,48,107,19,19,-117
-14,-9,4,12,-9,-2,24,48,87,24,-9,-146
-14,0,14,7,-14,7,14,24,97,24,-29,-151
-24,-4,19,14,-21,7,9,19,112,9,-24,-151
-19,-9,9,14,-14,0,9,24,122,-9,-14,-161
-19,-14,4,17,-12,-4,14,58,122,-4,4,-151
-14,-19,-4,17,-4,-12,14,63,107,-4,9,-151
-9,-24,-14,17,2,-19,24,68,97,19,14,-146
-9,-24,-14,17,2,-19,29,73,92,34,14,-136
-9,-4,4,7,-7,0,43,68,87,63,14,-131
9,-4,-14,-2,12,-9,48,63,87,82,4,-131
19,4,-14,-12,17,-4,34,58,97,68,9,-141
-4,4,9,0,-7,7,29,63,112,68,14,-136
-4,4,9,0,-7,7,19,68,112,53,14,-126
9,4,-4,-7,7,0,14,39,112,34,9,-117
9,-9,-19,0,14,-14,29,39,97,24,-14,-112
-14,-19,-4,17,-4,-12,39,29,107,29,-34,-107
-29,-34,-4,31,-12,-19,29,39,102,39,-53,-107
-19,-43,-24,31,2,-34,19,39,92,43,-78,-122
-24,-24,0,24,-12,-12,9,43,82,43,-68,-141
-29,-24,4,26,-17,-9,29,39,82,34,-58,-146
-14,-24,-9,19,-2,-17,9,68,73,29,-29,-146
-4,-34,-29,19,12,-31,9,78,82,29,14,-136
-9,-34,-24,21,7,-29,9,58,97,39,34,-107
-14,-29,-14,21,0,-21,9,29,112,39,34,-97
-14,-24,-9,19,-2,-17,19,9,112,39,19,-112
-9,-19,-9,14,0,-14,19,29,112,48,19,-117
-4,-24,-19,14,7,-21,4,78,102,53,9,-126
14,-24,-39,4,26,-31,14,92,68,53,4,-136
-4,-24,-19,14,7,-21,29,68,63,19,0,-146
-9,-24,-14,17,2,-19,29,82,87,19,14,-151
4,-43,-48,19,26,-46,29,68,112,19,-4,-117
14,-48,-63,17,39,-56,9,82,112,19,-4,-112
4,-43,-48,19,26,-46,9,53,112,24,0,-107
0,-48,-48,24,24,-48,24,19,122,34,0,-97
4,-39,-43,17,24,-41,19,24,136,48,-9,-117
9,-29,-39,9,24,-34,4,29,141,53,9,-136
9,-19,-29,4,19,-24,-4,68,156,68,34,-136
9,-14,-24,2,17,-19,-9,73,161,102,48,-136
9,-34,-43,12,26,-39,-9,68,161,92,39,-122
19,-34,-53,7,36,-43,-9,68,170,97,29,-122
39,-9,-48,-14,43,-29,4,63,170,97,29,-117
29,-9,-39,-9,34,-24,14,53,170,87,43,-117
0,0,0,0,0,0,29,43,190,102,43,-107
-14,0,14,7,-14,7,4,43,204,97,39,-97
-14,0,14,7,-14,7,-4,68,204,117,34,-87
-29,4,34,12,-31,19,0,97,209,131,43,-82
-14,0,14,7,-14,7,-4,102,204,146,63,-92
0,-14,-14,7,7,-14,-9,82,204,136,82,-82
-14,-24,-9,19,-2,-17,-9,78,195,141,92,-48
-24,-29,-4,26,-9,-17,-14,122,195,156,97,-48
-14,-9,4,12,-9,-2,-19,131,224,161,97,-73
9,4,-4,-7,7,0,-19,117,239,165,107,-53
19,4,-14,-12,17,-4,0,102,248,180,122,-29
29,0,-29,-14,29,-14,0,122,248,180,126,-19
24,0,-24,-12,24,-12,0,126,234,170,136,-14
24,-4,-29,-9,26,-17,0,112,248,195,141,0
9,-4,-14,-2,12,-9,-4,92,273,214,141,4
9,-4,-14,-2,12,-9,-4,97,278,229,151,19
43,4,-39,-24,41,-17,-24,87,292,234,146,24
53,9,-43,-31,48,-17,-43,82,297,234,141,19
53,9,-43,-31,48,-17,-48,73,312,234,156,24
43,9,-34,-26,39,-12,-48,63,331,239,170,34
43,19,-24,-31,34,-2,-58,87,331,229,180,48
43,24,-19,-34,31,2,-48,97,322,234,204,78
43,39,-4,-41,24,17,-43,117,317,248,224,87
48,39,-9,-43,29,14,-43,107,322,273,234,87
34,24,-9,-29,21,7,-58,112,322,287,239,92
14,19,4,-17,4,12,-53,122,326,287,258,97
9,14,4,-12,2,9,-48,141,307,297,292,112
24,9,-14,-17,19,-2,-43,146,283,302,302,126
34,4,-29,-19,31,-12,-58,126,292,312,292,146
34,9,-24,-21,29,-7,-68,126,326,336,307,156
39,34,-4,-36,21,14,-68,117,336,341,312,151
39,43,4,-41,17,24,-63,87,361,356,307,161
53,58,4,-56,24,31,-58,68,346,346,283,190
58,48,-9,-53,34,19,-53,78,326,322,263,200
53,43,-9,-48,31,17,-48,102,297,312,244,209
58,29,-29,-43,43,0,-34,122,283,317,234,229
68,24,-43,-46,56,-9,-34,117,317,331,278,229
87,43,-43,-65,65,0,-39,131,336,326,317,239
87,43,-43,-65,65,0,-53,112,346,346,366,258
87,48,-39,-68,63,4,-68,102,380,361,409,258
78,48,-29,-63,53,9,-58,87,370,351,409,263
68,48,-19,-58,43,14,-73,63,331,341,395,253
58,48,-9,-53,34,19,-68,73,307,326,380,248
48,48,0,-48,24,24,-53,87,297,326,395,263
87,29,-58,-58,73,-14,-73,97,317,312,405,287
68,19,-48,-43,58,-14,-68,97,326,312,400,292
73,9,-63,-41,68,-26,-73,63,326,317,395,302
107,19,-87,-63,97,-34,-82,63,283,287,380,302
117,29,-87,-73,102,-29,-82,63,292,273,370,297
97,34,-63,-65,80,-14,-87,68,307,273,351,283
58,19,-39,-39,48,-9,-87,73,331,283,366,258
73,24,-48,-48,61,-12,-92,82,336,273,370,248
78,43,-34,-61,56,4,-82,87,307,268,370,253
58,48,-9,-53,34,19,-82,82,287,268,361,258
58,43,-14,-51,36,14,-78,63,263,258,370,287
58,39,-19,-48,39,9,-78,53,258,253,356,302
53,29,-24,-41,39,2,-78,92,239,273,356,302
43,24,-19,-34,31,2,-78,102,224,263,341,292
43,19,-24,-31,34,-2,-78,87,214,248,331,253
43,34,-9,-39,26,12,-68,87,204,244,331,229
58,39,-19,-48,39,9,-78,58,219,234,322,209
63,43,-19,-53,41,12,-87,43,204,209,283,200
68,39,-29,-53,48,4,-102,34,204,195,263,190
68,24,-43,-46,56,-9,-112,24,214,170,239,175
58,19,-39,-39,48,-9,-87,9,204,165,244,151
39,19,-19,-29,29,0,-68,4,185,170,244,156
34,14,-19,-24,26,-2,-58,4,146,156,224,151
9,9,0,-9,4,4,-48,-9,131,146,204,131
43,14,-29,-29,36,-7,-78,-19,112,122,180,126
53,19,-34,-36,43,-7,-82,4,82,68,161,126
68,19,-48,-43,58,-14,-82,34,58,34,161,126
78,24,-53,-51,65,-14,-73,68,29,14,141,112
78,29,-48,-53,63,-9,-82,9,24,0,131,102
68,34,-34,-51,51,0,-82,-24,-4,-19,122,97
58,29,-29,-43,43,0,-87,14,-39,-24,102,78
63,29,-34,-46,48,-2,-97,29,-53,-29,87,43
53,24,-29,-39,41,-2,-87,4,-14,-19,87,29
48,24,-24,-36,36,0,-78,9,4,-19,78,24
43,19,-24,-31,34,-2,-68,29,19,-19,82,43
39,0,-39,-19,39,-19,-58,34,29,0,87,48
24,0,-24,-12,24,-12,-63,14,43,-9,63,29
24,14,-9,-19,17,2,-63,14,58,-14,29,9
43,14,-29,-29,36,-7,-68,29,63,-48,14,-9
9,0,-9,-4,9,-4,-82,9,43,-63,-14,-29
-4,-29,-24,17,9,-26,-73,-4,4,-63,14,-19
0,-34,-34,17,17,-34,-63,0,-14,-68,24,-24
14,-39,-53,12,34,-46,-63,-4,-43,-78,43,-29
4,-53,-58,24,31,-56,-58,-14,-63,-78,48,-29
4,-39,-43,17,24,-41,-68,-14,-39,-68,48,-29
19,-29,-48,4,34,-39,-73,4,-48,-63,48,-48
19,-14,-34,-2,26,-24,-82,-4,-78,-73,48,-73
19,-4,-24,-7,21,-14,-82,-9,-48,-68,43,-87
34,-19,-53,-7,43,-36,-92,4,-53,-78,24,-78
39,-29,-68,-4,53,-48,-78,24,-48,-87,19,-78
63,-14,-78,-24,70,-46,-63,24,-34,-92,9,-63
82,-9,-92,-36,87,-51,-63,19,-24,-92,4,-63
63,-19,-82,-21,73,-51,-53,29,-19,-92,14,-73
29,-14,-43,-7,36,-29,-58,14,-14,-87,19,-73
9,-14,-24,2,17,-19,-53,0,-39,-87,19,-73
24,-9,-34,-7,29,-21,-58,19,-58,-87,19,-87
43,0,-43,-21,43,-21,-58,39,-53,-102,14,-92
29,-4,-34,-12,31,-19,-43,43,-48,-102,9,-92
14,-19,-34,2,24,-26,-39,48,-39,-102,4,-97
9,-24,-34,7,21,-29,-39,43,-24,-102,0,-117
19,-34,-53,7,36,-43,-29,9,-34,-97,-4,-117
19,-29,-48,4,34,-39,-34,-4,-39,-97,-14,-107
19,-4,-24,-7,21,-14,-43,-9,-53,-102,-14,-107
19,0,-19,-9,19,-9,-43,-34,-63,-102,-4,-112
19,-4,-24,-7,21,-14,-29,-34,-43,-82,4,-102
19,0,-19,-9,19,-9,-24,-9,-48,-68,14,-102
19,0,-19,-9,19,-9,-24,4,-14,-53,14,-102
19,4,-14,-12,17,-4,-29,14,14,-34,9,-107
19,-9,-29,-4,24,-19,-29,24,19,-39,19,-102
19,-24,-43,2,31,-34,-29,14,9,-34,19,-97
24,-34,-58,4,41,-46,-14,39,14,-29,19,-97
24,-48,-73,12,48,-61,9,68,19,-34,14,-92
19,-29,-48,4,34,-39,4,48,9,-53,-9,-107
39,-14,-53,-12,46,-34,-14,19,4,-58,-34,-112
29,4,-24,-17,26,-9,-29,9,9,-58,-39,-107
53,-14,-68,-19,61,-41,-34,34,14,-68,-39,-102
53,-29,-82,-12,68,-56,-19,43,0,-78,-24,-87
48,-19,-68,-14,58,-43,4,29,-19,-78,-19,-68
43,-19,-63,-12,53,-41,19,4,-24,-78,-14,-53
29,-24,-53,-2,41,-39,29,53,-24,-82,-9,-43
19,-24,-43,2,31,-34,9,34,-9,-73,-19,-73
34,-24,-58,-4,46,-41,4,19,-4,-68,-34,-78
43,-14,-58,-14,51,-36,4,-19,-24,-68,-53,-82
53,-14,-68,-19,61,-41,19,-29,-19,-73,-48,-87
29,-34,-63,2,46,-48,24,9,0,-78,-48,-68
14,-34,-48,9,31,-41,29,19,4,-78,-63,-63
0,-24,-24,12,12,-24,34,14,9,-82,-39,-73
-29,-24,4,26,-17,-9,39,24,14,-92,-39,-87
-19,-14,4,17,-12,-4,24,34,19,-78,-34,-87
-4,-9,-4,7,0,-7,24,39,29,-78,-39,-87
14,-9,-24,-2,19,-17,24,39,24,-87,-53,-73
53,9,-43,-31,48,-17,19,43,9,-82,-53,-73
58,9,-48,-34,53,-19,29,14,9,-68,-29,-78
58,19,-39,-39,48,-9,29,-4,24,-39,-29,-78
48,19,-29,-34,39,-4,34,-39,24,-34,-34,-78
39,19,-19,-29,29,0,43,-48,19,-29,-34,-78
29,9,-19,-19,24,-4,48,-24,9,-43,-48,-97
29,-9,-39,-9,34,-24,48,-19,-4,-53,-58,-107
34,-9,-43,-12,39,-26,29,-4,0,-58,-63,-112
48,-4,-53,-21,51,-29,19,0,4,-63,-63,-117
29,-14,-43,-7,36,-29,29,24,24,-34,-43,-107
9,-14,-24,2,17,-19,53,29,43,-14,-39,-97
19,0,-19,-9,19,-9,73,43,58,-9,-34,-92
9,0,-9,-4,9,-4,82,53,97,-9,-43,-97
24,-4,-29,-9,26,-17,58,39,97,-19,-63,-122
29,4,-24,-17,26,-9,48,43,68,-24,-63,-136
43,4,-39,-24,41,-17,43,19,63,9,-53,-141
14,0,-14,-7,14,-7,43,4,63,29,-34,-141
4,19,14,-12,-4,17,68,29,78,39,-34,-131
29,29,0,-29,14,14,58,48,92,24,-43,-126
9,34,24,-21,-7,29,63,58,102,14,-43,-131
-14,34,48,-9,-31,41,68,53,102,14,-43,-136
9,4,-4,-7,7,0,87,53,117,9,-34,-131
0,0,0,0,0,0,102,92,131,14,-39,-122
24,4,-19,-14,21,-7,107,107,151,19,-39,-112
34,0,-34,-17,34,-17,112,87,165,29,-39,-102
48,19,-29,-34,39,-4,97,29,136,29,-39,-117
48,14,-34,-31,41,-9,87,24,117,19,-19,-117
39,9,-29,-24,34,-9,87,39,126,19,0,-102
39,4,-34,-21,36,-14,78,34,122,24,0,-107
19,4,-14,-12,17,-4,97,39,112,68,19,-97
4,4,0,-4,2,2,92,39,122,112,39,-102
-14,-9,4,12,-9,-2,97,39,126,117,48,-102
-29,-24,4,26,-17,-9,102,39,126,112,58,-102
-14,-9,4,12,-9,-2,82,63,136,92,53,-107
9,0,-9,-4,9,-4,78,73,146,68,48,-107
43,4,-39,-24,41,-17,73,63,156,58,48,-102
68,4,-63,-36,65,-29,63,48,156,48,43,-107
102,34,-68,-68,85,-17,92,-24,146,43,29,-58
43,14,-29,-29,36,-7,102,63,185,43,68,-48
0,0,0,0,0,0,122,151,195,43,78,-53
-9,0,9,4,-9,4,117,78,136,48,39,-58
0,0,0,0,0,0,112,53,122,58,29,-48
0,0,0,0,0,0,107,39,117,58,19,-39
0,0,0,0,0,0,102,24,112,58,9,-29
0,0,0,0,0,0,97,9,107,58,0,-19
9,-9,-19,0,14,-14,87,29,92,43,24,-14
24,4,-19,-14,21,-7,68,43,102,24,9,-24
63,19,-43,-41,53,-12,58,58,112,14,-9,-29
78,19,-58,-48,68,-19,48,58,92,9,-9,-34
29,19,-9,-24,19,4,58,63,97,14,19,-39
14,9,-4,-12,9,2,68,58,107,14,43,-29
19,9,-9,-14,14,0,73,39,126,19,63,-48
29,9,-19,-19,24,-4,82,19,146,24,82,-68
48,4,-43,-26,46,-19,78,43,131,24,78,-53
53,14,-39,-34,46,-12,68,43,107,19,68,-39
48,14,-34,-31,41,-9,53,39,82,9,39,-63
53,14,-39,-34,46,-12,43,0,39,9,24,-58
58,4,-53,-31,56,-24,48,24,39,0,24,-68
39,0,-39,-19,39,-19,53,39,43,9,43,-73
29,-4,-34,-12,31,-19,58,43,53,9,43,-82
19,-19,-39,0,29,-29,63,53,58,14,34,-82
0,-4,-4,2,2,-4,58,53,48,0,39,-63
-4,0,4,2,-4,2,53,24,39,-4,34,-53
-9,-4,4,7,-7,0,48,0,24,-19,19,-58
-14,-9,4,12,-9,-2,48,19,19,-24,4,-53
9,14,4,-12,2,9,48,48,9,-34,0,-82
29,29,0,-29,14,14,43,24,19,-53,-4,-112
53,43,-9,-48,31,17,53,4,19,-73,-14,-107
68,68,0,-68,34,34,48,0,19,-82,-19,-107
58,48,-9,-53,34,19,29,19,9,-73,-4,-102
58,39,-19,-48,39,9,29,19,9,-68,-4,-102
39,29,-9,-34,24,9,34,29,14,-68,4,-97
19,24,4,-21,7,14,34,-4,14,-68,-14,-102
34,9,-24,-21,29,-7,43,0,14,-78,-19,-97
24,4,-19,-14,21,-7,43,0,14,-82,-14,-97
14,0,-14,-7,14,-7,39,4,14,-92,-19,-92
14,-9,-24,-2,19,-17,34,4,9,-102,-29,-92
19,4,-14,-12,17,-4,43,-4,14,-87,-14,-102
14,4,-9,-9,12,-2,43,-4,14,-82,-9,-107
19,9,-9,-14,14,0,43,-4,14,-82,-4,-112
34,19,-14,-26,24,2,29,-14,14,-92,0,-117
29,29,0,-29,14,14,29,-4,0,-87,-14,-136
29,34,4,-31,12,19,48,0,-4,-68,-9,-136
24,34,9,-29,7,21,63,-4,-9,-63,-14,-131
24,39,14,-31,4,26,63,-9,-19,-53,-34,-131
24,39,14,-31,4,26,48,24,0,-63,-34,-122
34,34,0,-34,17,17,43,63,24,-78,-34,-117
34,29,-4,-31,19,12,39,63,24,-97,-43,-112
29,9,-19,-19,24,-4,34,68,19,-122,-43,-122
19,19,0,-19,9,9,43,39,9,-126,-29,-117
19,24,4,-21,7,14,53,24,14,-102,-29,-112
24,24,0,-24,12,12,58,9,9,-92,-24,-102
34,14,-19,-24,26,-2,58,-19,0,-92,-19,-97
43,34,-9,-39,26,12,63,0,9,-87,-34,-97
43,34,-9,-39,26,12,78,14,4,-78,-24,-97
39,34,-4,-36,21,14,82,19,4,-68,-29,-92
39,34,-4,-36,21,14,82,48,9,-82,-43,-92
39,29,-9,-34,24,9,68,48,14,-73,-48,-97
39,24,-14,-31,26,4,63,34,14,-63,-34,-97
29,24,-4,-26,17,9,58,-9,19,-53,-19,-97
48,24,-24,-36,36,0,48,-24,19,-48,-14,-97
58,24,-34,-41,46,-4,48,-4,14,-53,-9,-92
53,24,-29,-39,41,-2,48,4,-4,-53,-4,-92
53,14,-39,-34,46,-12,48,19,-4,-53,0,-97
53,14,-39,-34,46,-12,48,9,19,-58,-4,-107
34,14,-19,-24,26,-2,43,4,9,-73,-19,-107
29,19,-9,-24,19,4,39,0,-4,-78,-19,-107
24,24,0,-24,12,12,39,19,-9,-78,-14,-97
14,24,9,-19,2,17,43,24,-9,-73,-19,-82
29,14,-14,-21,21,0,53,24,24,-63,-9,-87
34,14,-19,-24,26,-2,53,19,48,-48,0,-92
24,9,-14,-17,19,-2,63,0,53,-58,14,-78
39,9,-29,-24,34,-9,48,-4,58,-68,24,-92
39,14,-24,-26,31,-4,39,14,34,-63,9,-117
14,4,-9,-9,12,-2,39,39,43,-58,0,-117
4,4,0,-4,2,2,39,58,19,-53,-4,-117
9,4,-4,-7,7,0,43,48,4,-58,-14,-117
9,4,-4,-7,7,0,48,34,14,-48,-19,-126
0,-4,-4,2,2,-4,48,43,19,-43,-9,-122
-9,-14,-4,12,-2,-9,48,48,29,-43,-14,-131
0,0,0,0,0,0,43,43,34,-39,-19,-146
0,4,4,-2,-2,4,43,43,4,-48,-19,-156
4,-9,-14,2,9,-12,43,53,-9,-63,-34,-165
4,-14,-19,4,12,-17,53,63,-14,-63,-24,-146
9,-19,-29,4,19,-24,58,73,4,-53,-14,-131
19,-14,-34,-2,26,-24,43,39,-9,-53,-43,-141
9,-24,-34,7,21,-29,39,19,-19,-63,-53,-141
9,-4,-14,-2,12,-9,34,0,-29,-73,-58,-141
14,0,-14,-7,14,-7,29,-29,-39,-82,-58,-141
34,0,-34,-17,34,-17,-29,-24,4,-43,-24,-175
14,0,-14,-7,14,-7,-19,-19,-4,-39,-39,-170
-14,9,24,2,-19,17,0,-48,-43,-29,-19,-151
24,29,4,-26,9,17,-39,-19,-92,-39,-63,-156
92,19,-73,-56,82,-26,-53,-9,-92,-53,-87,-165
43,19,-24,-31,34,-2,4,-9,-14,14,9,-141
9,39,29,-24,-9,34,34,-4,19,117,117,-97
87,58,-29,-73,58,14,-14,-39,-107,190,141,-48
78,19,-58,-48,68,-19,-39,-73,-326,200,175,-29
4,-24,-29,9,17,-26,-34,-136,-546,239,322,53
92,4,-87,-48,90,-41,-73,-307,-697,361,595,263
170,78,-92,-124,131,-7,-151,-434,-834,488,883,483
141,126,-14,-134,78,56,-224,-448,-1005,590,1180,727
165,180,14,-173,75,97,-312,-527,-1176,732,1551,1093
229,229,0,-229,114,114,-405,-678,-1327,878,1917,1439
268,268,0,-268,134,134,-458,-751,-1454,917,2225,1747
312,326,14,-319,148,170,-502,-819,-1615,761,2410,2078
361,385,24,-373,168,204,-566,-956,-1834,458,2464,2352
375,414,39,-395,168,226,-653,-1122,-2059,180,2518,2562
380,414,34,-397,173,224,-717,-1210,-2196,-73,2547,2742
419,400,-19,-409,219,190,-780,-1205,-2244,-385,2566,2888
463,356,-107,-409,285,124,-790,-1190,-2264,-712,2605,3001
473,224,-248,-348,361,-12,-761,-1141,-2235,-932,2581,3089
463,34,-429,-248,446,-197,-658,-1068,-2176,-1088,2396,3157
444,-156,-600,-143,522,-378,-556,-936,-2093,-1224,2054,3030
390,-302,-692,-43,541,-497,-483,-722,-1932,-1327,1561,2605
336,-409,-746,36,541,-578,-385,-468,-1683,-1395,936,1995
263,-468,-732,102,497,-600,-278,-375,-1420,-1473,263,1307
200,-517,-717,158,458,-617,-200,-512,-1273,-1527,-292,649
190,-566,-756,187,473,-661,-146,-566,-1180,-1468,-570,214
161,-585,-746,212,453,-666,-87,-287,-985,-1332,-658,-43
68,-541,-610,236,339,-575,-14,-39,-751,-1151,-668,-170
29,-463,-492,217,261,-478,34,-43,-634,-936,-575,-175
68,-424,-492,178,280,-458,48,0,-600,-771,-517,-190
78,-409,-488,165,283,-448,43,151,-517,-678,-497,-248
9,-366,-375,178,192,-370,63,165,-400,-614,-419,-229
-34,-292,-258,163,112,-275,58,29,-326,-536,-312,-200
9,-239,-248,114,129,-244,39,-19,-273,-429,-239,-185
14,-190,-204,87,109,-197,43,82,-185,-336,-185,-141
-24,-146,-122,85,48,-134,4,131,-122,-297,-151,-102
-29,-97,-68,63,19,-82,-24,73,-82,-234,-112,-53
-9,-87,-78,48,34,-82,0,87,-9,-126,-73,-4
0,-68,-68,34,34,-68,19,112,14,-73,-53,-29
-9,-63,-53,36,21,-58,39,141,48,-58,-53,-34
-14,-48,-34,31,9,-41,63,136,82,-34,-29,-39
-14,-34,-19,24,2,-26,53,102,92,-34,-9,-68
-4,-9,-4,7,0,-7,29,63,82,-43,-14,-107
-4,-14,-9,9,2,-12,34,73,73,-43,-24,-126
4,-9,-14,2,9,-12,29,78,92,-43,-24,-131
39,9,-29,-24,34,-9,43,73,92,-43,-34,-151
48,-4,-53,-21,51,-29,53,92,87,-24,-43,-136
53,9,-43,-31,48,-17,39,97,87,-9,-53,-151
68,9,-58,-39,63,-24,34,97,92,0,-43,-151
73,9,-63,-41,68,-26,24,87,102,0,-29,-146
53,9,-43,-31,48,-17,29,92,146,9,-9,-151
24,4,-19,-14,21,-7,29,92,126,9,4,-146
19,0,-19,-9,19,-9,24,92,126,9,4,-146
4,-19,-24,7,14,-21,24,92,122,9,4,-146
14,-14,-29,0,21,-21,14,107,112,34,0,-136
-4,-9,-4,7,0,-7,14,107,112,43,-9,-131
-4,-4,0,4,-2,-2,4,102,112,43,-9,-122
0,0,0,0,0,0,-9,68,112,43,-9,-112
4,9,4,-7,0,7,-14,58,92,14,-4,-102
9,9,0,-9,4,4,-14,87,87,4,14,-107
24,9,-14,-17,19,-2,-9,48,73,0,14,-112
29,14,-14,-21,21,0,0,24,63,-4,9,-112
24,4,-19,-14,21,-7,9,48,73,-4,9,-97
43,0,-43,-21,43,-21,9,73,68,-4,4,-97
53,-19,-73,-17,63,-46,0,82,78,-4,-4,-97
29,-29,-58,0,43,-43,0,73,92,-9,0,-117
19,-39,-58,9,39,-48,4,73,122,-19,-9,-136
4,-29,-34,12,19,-31,4,63,122,-14,-34,-156
24,-19,-43,-2,34,-31,9,63,107,-14,-58,-146
14,0,-14,-7,14,-7,19,78,107,-14,-78,-131
0,-9,-9,4,4,-9,39,92,107,9,-19,-102
-4,-24,-19,14,7,-21,43,107,97,39,9,-97
9,-24,-34,7,21,-29,39,126,87,58,19,-107
14,-19,-34,2,24,-26,43,122,107,73,39,-92
14,-9,-24,-2,19,-17,14,87,131,53,24,-102
19,-9,-29,-4,24,-19,9,63,151,39,24,-112
19,-9,-29,-4,24,-19,9,68,161,48,34,-102
24,-9,-34,-7,29,-21,4,43,156,53,29,-102
19,-29,-48,4,34,-39,14,53,131,43,29,-92
19,-34,-53,7,36,-43,19,53,122,43,24,-87
19,-19,-39,0,29,-29,34,43,112,58,19,-87
39,-24,-63,-7,51,-43,39,34,107,63,4,-92
34,-14,-48,-9,41,-31,29,63,107,48,9,-102
4,-14,-19,4,12,-17,29,82,122,58,14,-97
0,-14,-14,7,7,-14,24,102,122,53,14,-87
9,-14,-24,2,17,-19,24,87,122,43,9,-78
19,-9,-29,-4,24,-19,29,92,136,48,4,-63
-4,-9,-4,7,0,-7,39,87,165,58,4,-58
-19,-14,4,17,-12,-4,29,102,180,73,4,-58
-9,-14,-4,12,-2,-9,19,107,190,82,0,-73
-4,-14,-9,9,2,-12,19,78,170,102,-19,-73
0,-14,-14,7,7,-14,39,58,161,102,-29,-68
24,-14,-39,-4,31,-26,19,73,141,107,-19,-58
43,-24,-68,-9,56,-46,19,68,141,117,4,-39
9,-24,-34,7,21,-29,34,82,175,156,39,-24
-14,-19,-4,17,-4,-12,39,68,200,175,53,-19
-34,-14,19,24,-26,2,53,63,209,195,53,-39
-48,-9,39,29,-43,14,58,97,219,224,68,-48
-29,4,34,12,-31,19,34,131,200,209,58,-53
4,4,0,-4,2,2,34,131,165,200,53,-58
0,4,4,-2,-2,4,39,92,161,156,48,-63
9,4,-4,-7,7,0,29,92,185,146,63,-63
9,-19,-29,4,19,-24,39,92,190,136,43,-39
14,-29,-43,7,29,-36,29,122,190,126,34,-34
0,-29,-29,14,14,-29,39,107,190,122,29,-29
-9,-39,-29,24,9,-34,63,87,200,122,19,-19
0,-29,-29,14,14,-29,58,73,224,141,19,-29
0,-29,-29,14,14,-29,43,68,229,141,39,-39
-4,-29,-24,17,9,-26,34,97,244,151,63,-29
-9,-34,-24,21,7,-29,29,92,248,180,78,-19
0,-39,-39,19,19,-39,48,102,244,185,73,-9
9,-34,-43,12,26,-39,58,117,248,195,68,-4
29,-4,-34,-12,31,-19,82,126,244,200,73,4
19,0,-19,-9,19,-9,102,131,239,195,92,9
-9,-9,0,9,-4,-4,102,131,248,214,78,0
-14,-9,4,12,-9,-2,73,141,263,214,68,0
-4,-9,-4,7,0,-7,58,175,263,239,58,0
-9,-4,4,7,-7,0,58,214,268,258,63,-4
4,14,9,-9,-2,12,53,190,283,273,102,4
19,14,-4,-17,12,4,48,151,302,273,131,14
4,19,14,-12,-4,17,48,126,312,287,151,48
-4,29,34,-12,-19,31,43,151,331,312,165,48
0,34,34,-17,-17,34,29,180,341,302,161,39
19,43,24,-31,-2,34,29,175,336,302,165,63
24,39,14,-31,4,26,48,170,326,312,175,92
29,29,0,-29,14,14,48,200,307,307,175,107
19,19,0,-19,9,9,34,185,297,302,190,117
14,14,0,-14,7,7,29,151,317,322,200,126
-4,14,19,-4,-12,17,19,112,346,336,204,126
-9,14,24,-2,-17,19,14,97,356,346,219,136
19,34,14,-26,2,24,9,107,366,375,244,156
34,48,14,-41,9,31,-4,112,375,390,258,156
39,58,19,-48,9,39,-4,112,395,405,292,165
34,68,34,-51,0,51,0,112,419,424,326,180
48,63,14,-56,17,39,0,151,439,434,336,200
53,63,9,-58,21,36,9,185,448,448,361,234
58,73,14,-65,21,43,14,229,463,473,380,248
68,68,0,-68,34,34,14,244,488,507,390,253
68,68,0,-68,34,34,-4,209,488,502,380,258
53,68,14,-61,19,41,-4,190,492,502,395,263
53,68,14,-61,19,41,-4,180,473,512,424,278
73,68,-4,-70,39,31,-4,156,448,517,429,292
63,58,-4,-61,34,26,-29,156,448,527,453,331
63,58,-4,-61,34,26,-48,175,473,551,483,351
68,78,9,-73,29,43,-58,185,473,556,502,356
68,82,14,-75,26,48,-63,175,488,570,512,375
87,92,4,-90,41,48,-48,136,492,580,531,405
87,78,-9,-82,48,34,-34,136,492,575,536,405
78,68,-9,-73,43,29,-19,151,483,585,541,405
78,48,-29,-63,53,9,4,161,488,610,556,414
63,34,-29,-48,46,2,9,146,488,605,546,405
78,53,-24,-65,51,14,9,161,483,590,541,405
73,53,-19,-63,46,17,0,141,468,600,546,414
68,58,-9,-63,39,24,-9,131,478,605,546,405
82,48,-34,-65,58,7,-24,126,478,585,556,419
87,48,-39,-68,63,4,-43,112,448,566,541,409
92,48,-43,-70,68,2,-43,131,434,541,527,405
97,48,-48,-73,73,0,-34,156,434,531,541,419
112,43,-68,-78,90,-12,-29,180,478,546,551,424
87,39,-48,-63,68,-4,-9,185,502,556,546,419
87,34,-53,-61,70,-9,0,156,517,570,541,419
117,48,-68,-82,92,-9,4,161,488,551,527,409
112,43,-68,-78,90,-12,4,131,483,522,497,400
87,43,-43,-65,65,0,0,126,483,507,468,390
43,24,-19,-34,31,2,0,122,492,502,473,370
53,24,-29,-39,41,-2,-4,122,483,478,468,366
58,29,-29,-43,43,0,4,131,424,439,444,331
39,29,-9,-34,24,9,4,122,375,414,419,317
39,19,-19,-29,29,0,9,97,322,380,414,326
39,9,-29,-24,34,-9,9,82,287,351,385,322
43,0,-43,-21,43,-21,4,126,287,351,361,317
43,-4,-48,-19,46,-26,0,141,273,331,331,312
53,-9,-63,-21,58,-36,-4,131,263,307,307,278
63,4,-58,-34,61,-26,0,136,253,292,292,258
43,14,-29,-29,36,-7,14,141,258,297,307,224
34,24,-9,-29,21,7,19,141,234,278,283,209
24,24,0,-24,12,12,19,146,224,268,278,195
9,14,4,-12,2,9,24,151,224,248,268,175
14,4,-9,-9,12,-2,29,126,239,244,273,151
0,0,0,0,0,0,39,112,224,258,273,156
0,-9,-9,4,4,-9,39,102,190,253,253,151
-19,-19,0,19,-9,-9,39,78,180,253,234,131
-14,-4,9,9,-12,2,34,58,190,234,195,126
-14,0,14,7,-14,7,34,73,180,195,170,126
-9,0,9,4,-9,4,39,92,175,175,165,126
-9,4,14,2,-12,9,53,117,165,170,141,112
-39,4,43,17,-41,24,48,58,180,170,151,107
-58,4,63,26,-61,34,53,24,161,156,151,107
-78,-4,73,41,-75,34,53,63,136,156,141,92
-82,-9,73,46,-78,31,48,78,131,156,136,63
-82,-24,58,53,-70,17,53,48,126,131,107,43
-78,-24,53,51,-65,14,58,48,122,97,78,34
-73,-29,43,51,-58,7,63,63,112,63,63,48
-68,-48,19,58,-43,-14,68,63,97,48,48,48
-78,-29,48,53,-63,9,78,68,97,68,63,29
-73,-4,68,39,-70,31,82,82,107,73,48,19
-48,4,53,21,-51,29,82,112,107,48,53,9
-78,0,78,39,-78,39,73,107,82,43,43,0
-92,-24,68,58,-80,21,73,87,68,53,39,-4
-87,-24,63,56,-75,19,82,78,63,58,24,-14
-73,-24,48,48,-61,12,82,58,48,58,19,-24
-82,-34,48,58,-65,7,87,34,43,68,0,-29
-92,-39,53,65,-73,7,82,34,53,63,4,-9
-78,-39,39,58,-58,0,73,53,29,53,9,-29
-78,-34,43,56,-61,4,58,43,-14,29,14,-53
-78,-34,43,56,-61,4,53,39,0,19,14,-68
-78,-39,39,58,-58,0,48,43,4,4,-4,-53
-78,-48,29,63,-53,-9,58,63,9,-19,-9,-48
-58,-34,24,46,-41,-4,68,63,24,-39,-19,-29
-43,-29,14,36,-29,-7,63,58,34,-53,-24,-24
-39,-39,0,39,-19,-19,48,48,29,-39,-43,-48
-48,-34,14,41,-31,-9,39,34,24,-29,-58,-63
-43,-34,9,39,-26,-12,39,19,-9,-24,-78,-78
-4,-29,-24,17,9,-26,29,39,-39,-19,-97,-107
19,-34,-53,7,36,-43,24,34,-29,-43,-87,-112
9,-43,-53,17,31,-48,34,24,-19,-53,-78,-112
0,-63,-63,31,31,-63,34,14,-4,-63,-68,-117
0,-73,-73,36,36,-73,29,-4,14,-73,-58,-136
0,-73,-73,36,36,-73,34,4,29,-63,-73,-126
0,-58,-58,29,29,-58,34,24,39,-58,-82,-117
0,-24,-24,12,12,-24,29,53,39,-58,-82,-117
0,-9,-9,4,4,-9,34,63,43,-53,-73,-122
29,-14,-43,-7,36,-29,29,34,9,-63,-87,-131
48,-9,-58,-19,53,-34,24,39,-39,-68,-92,-141
68,-9,-78,-29,73,-43,14,34,-48,-73,-107,-151
87,-4,-92,-41,90,-48,0,24,-63,-73,-126,-165
68,-24,-92,-21,80,-58,-19,4,-48,-78,-112,-156
68,-34,-102,-17,85,-68,-29,-24,-58,-73,-107,-146
73,-39,-112,-17,92,-75,-24,-19,-53,-68,-102,-141
73,-48,-122,-12,97,-85,-9,-9,-48,-73,-102,-131
78,-29,-107,-24,92,-68,9,9,-48,-78,-102,-141
97,-14,-112,-41,104,-63,4,0,-43,-78,-122,-141
87,4,-82,-46,85,-39,4,9,-29,-73,-122,-131
112,-14,-126,-48,119,-70,14,53,-14,-78,-117,-122
117,-34,-151,-41,134,-92,24,48,-24,-68,-126,-122
117,-29,-146,-43,131,-87,34,19,-39,-68,-136,-117
117,-34,-151,-41,134,-92,34,-19,-39,-68,-146,-117
107,-43,-151,-31,129,-97,29,14,-34,-73,-156,-122
107,-39,-146,-34,126,-92,14,29,-39,-53,-136,-141
122,-34,-156,-43,139,-95,14,29,-43,-48,-131,-146
131,-19,-151,-56,141,-85,19,4,-73,-48,-131,-151
141,-14,-156,-63,148,-85,39,9,-78,-53,-107,-156
126,-39,-165,-43,146,-102,34,19,-53,-48,-117,-136
122,-43,-165,-39,143,-104,29,9,-34,-39,-131,-131
117,-39,-156,-39,136,-97,24,-14,-14,-34,-107,-141
97,-43,-141,-26,119,-92,19,-24,4,-34,-107,-156
107,-34,-141,-36,124,-87,19,-9,9,-43,-117,-141
112,-29,-141,-41,126,-85,24,-9,19,-48,-126,-136
122,-29,-151,-46,136,-90,29,-14,14,-63,-146,-117
151,-9,-161,-70,156,-85,29,-14,0,-63,-151,-112
126,-24,-151,-51,139,-87,24,0,14,-73,-131,-122
117,-19,-136,-48,126,-78,19,4,34,-48,-126,-126
97,-24,-122,-36,109,-73,19,-4,39,-48,-126,-131
78,-29,-107,-24,92,-68,24,9,39,-48,-122,-136
68,-24,-92,-21,80,-58,63,9,43,-24,-107,-131
68,-39,-107,-14,87,-73,78,9,43,-14,-97,-117
73,-34,-107,-19,90,-70,73,19,63,0,-82,-97
87,-24,-112,-31,100,-68,78,19,82,14,-63,-78
68,-14,-82,-26,75,-48,92,39,82,29,-68,-87
58,-14,-73,-21,65,-43,112,29,82,43,-78,-97
78,0,-78,-39,78,-39,126,29,78,43,-87,-112
78,0,-78,-39,78,-39,131,24,97,39,-112,-136
63,-14,-78,-24,70,-46,141,24,102,9,-131,-122
48,-4,-53,-21,51,-29,146,43,78,-4,-141,-117
43,-4,-48,-19,46,-26,156,34,78,19,-141,-102
-4,-9,-4,7,0,-7,170,34,82,29,-131,-82
4,-24,-29,9,17,-26,190,34,102,53,-107,-92
39,-29,-68,-4,53,-48,175,39,112,43,-102,-97
29,-39,-68,4,48,-53,175,34,117,39,-87,-112
14,-53,-68,19,41,-61,175,14,112,43,-73,-126
14,-68,-82,26,48,-75,200,48,136,53,-58,-122
-19,-68,-48,43,14,-58,219,102,161,73,-48,-112
-19,-58,-39,39,9,-48,229,131,190,92,-34,-102
-34,-58,-24,46,-4,-41,239,126,214,117,-19,-92
-24,-19,4,21,-14,-7,244,63,180,146,-9,-102
-19,-14,4,17,-12,-4,244,53,165,156,9,-97
-24,-9,14,17,-19,2,253,63,180,175,29,-78
-19,-4,14,12,-17,4,253,53,180,200,29,-78
-14,4,19,4,-17,12,258,82,185,204,24,-68
-14,4,19,4,-17,12,248,97,200,229,29,-63
-19,-9,9,14,-14,0,248,112,209,214,24,-53
-19,-24,-4,21,-7,-14,248,126,214,190,19,-43
-43,-24,19,34,-31,-2,239,126,224,180,19,-53
-48,-19,29,34,-39,4,244,122,224,165,9,-48
-43,-19,24,31,-34,2,248,97,224,165,4,-39
-48,-24,24,36,-36,0,248,68,214,165,-4,-39
-43,-24,19,34,-31,-2,234,78,185,141,-4,-29
-43,-24,19,34,-31,-2,229,82,185,141,-9,-29
-48,-19,29,34,-39,4,234,87,165,122,-24,-34
-53,-19,34,36,-43,7,229,87,117,102,-29,-48
-43,-19,24,31,-34,2,224,97,126,97,-29,-48
-34,-29,4,31,-19,-12,214,117,131,78,-19,-34
-24,-29,-4,26,-9,-17,209,102,136,102,-19,-29
-9,-14,-4,12,-2,-9,200,102,136,126,-14,-34
4,-14,-19,4,12,-17,204,102,146,122,-29,-43
-4,-19,-14,12,4,-17,200,97,141,102,-39,-48
-4,-14,-9,9,2,-12,180,39,136,87,-58,-53
0,-34,-34,17,17,-34,175,14,122,82,-63,-58
-9,-43,-34,26,12,-39,170,53,112,73,-58,-68
0,-29,-29,14,14,-29,175,92,117,68,-63,-68
14,-24,-39,4,26,-31,170,97,117,63,-68,-48
14,-24,-39,4,26,-31,165,87,97,53,-68,-34
14,-19,-34,2,24,-26,170,68,102,43,-58,-29
29,-24,-53,-2,41,-39,170,58,102,43,-73,-29
39,-43,-82,2,61,-63,170,63,97,39,-82,-29
24,-29,-53,2,39,-41,165,39,78,24,-82,-48
39,-34,-73,-2,56,-53,165,53,87,9,-97,-48
43,-48,-92,2,68,-70,165,87,92,0,-102,-43
48,-53,-102,2,75,-78,165,92,92,-4,-102,-19
53,-63,-117,4,85,-90,185,78,78,0,-92,4
34,-58,-92,12,63,-75,165,34,63,0,-82,-9
29,-53,-82,12,56,-68,165,14,73,0,-87,-29
14,-48,-63,17,39,-56,165,14,68,4,-87,-43
-4,-24,-19,14,7,-21,165,19,53,4,-92,-63
24,-34,-58,4,41,-46,156,29,48,9,-92,-107
43,-43,-87,0,65,-65,141,43,34,0,-87,-117
39,-68,-107,14,73,-87,131,78,24,4,-78,-112
48,-78,-126,14,87,-102,122,92,63,9,-73,-117
63,-63,-126,0,95,-95,122,19,63,4,-92,-97
78,-48,-126,-14,102,-87,117,-14,53,-4,-112,-97
87,-24,-112,-31,100,-68,117,-14,53,-19,-131,-97
97,-14,-112,-41,104,-63,112,-29,34,-43,-151,-122
87,-43,-131,-21,109,-87,112,-29,34,-58,-151,-141
92,-68,-161,-12,126,-114,117,-19,14,-58,-151,-141
92,-63,-156,-14,124,-109,117,-4,14,-53,-156,-126
112,-53,-165,-29,139,-109,117,39,19,-53,-156,-117
87,-53,-141,-17,114,-97,122,29,24,-43,-131,-97
82,-43,-126,-19,104,-85,117,19,19,-34,-126,-92
87,-19,-107,-34,97,-63,97,19,34,-43,-122,-92
87,0,-87,-43,87,-43,87,19,39,-58,-117,-92
87,-9,-97,-39,92,-53,97,0,9,-39,-117,-107
87,-19,-107,-34,97,-63,107,0,4,-24,-117,-107
73,-4,-78,-34,75,-41,122,19,14,-9,-117,-107
34,-14,-48,-9,41,-31,131,24,19,9,-117,-102
24,-24,-48,0,36,-36,122,19,24,19,-117,-107
78,-24,-102,-26,90,-63,107,24,29,19,-112,-107
126,-24,-151,-51,139,-87,97,34,34,19,-107,-112
136,-19,-156,-58,146,-87,97,0,48,24,-107,-122
126,-4,-131,-61,129,-68,117,-39,34,4,-136,-141
136,14,-122,-75,129,-53,117,-24,24,-9,-161,-161
126,19,-107,-73,117,-43,126,-19,9,-39,-170,-146
82,9,-73,-46,78,-31,146,-19,14,-34,-175,-156
58,9,-48,-34,53,-19,161,-14,39,-29,-156,-131
58,19,-39,-39,48,-9,165,19,48,-19,-141,-112
63,29,-34,-46,48,-2,165,48,53,-9,-126,-92
78,39,-39,-58,58,0,161,53,58,0,-117,-82
68,34,-34,-51,51,0,126,39,29,-9,-117,-87
48,34,-14,-41,31,9,126,34,39,-9,-126,-92
63,24,-39,-43,51,-7,126,19,4,-9,-141,-97
82,24,-58,-53,70,-17,117,-9,-14,-9,-165,-117
68,39,-29,-53,48,4,122,4,-9,-19,-156,-107
63,39,-24,-51,43,7,126,14,29,-14,-141,-97
58,29,-29,-43,43,0,131,24,43,-4,-131,-97
34,29,-4,-31,19,12,136,39,29,-4,-131,-102
43,19,-24,-31,34,-2,131,43,34,4,-126,-97
43,14,-29,-29,36,-7,136,58,29,14,-131,-92
43,-4,-48,-19,46,-26,146,0,43,24,-136,-87
58,-9,-68,-24,63,-39,136,-39,48,39,-136,-102
53,-4,-58,-24,56,-31,131,14,78,29,-151,-117
58,0,-58,-29,58,-29,126,-9,63,19,-151,-112
19,0,-19,-9,19,-9,122,-34,53,39,-136,-117
48,4,-43,-26,46,-19,112,-19,53,39,-126,-136
58,19,-39,-39,48,-9,117,14,48,4,-126,-122
68,29,-39,-48,53,-4,122,48,48,-14,-131,-112
43,24,-19,-34,31,2,136,19,48,-14,-131,-102
19,14,-4,-17,12,4,141,19,68,-14,-131,-68
48,14,-34,-31,41,-9,136,58,53,-24,-156,-82
82,24,-58,-53,70,-17,131,78,48,-29,-161,-117
48,34,-14,-41,31,9,126,78,43,-29,-156,-131
39,19,-19,-29,29,0,117,73,39,-39,-156,-151
-9,14,24,-2,-17,19,141,-126,97,9,-126,-48
-29,-19,9,24,-19,-4,92,-53,112,9,-165,-112
-68,-29,39,48,-53,4,63,82,-4,-34,-195,-146
-19,0,19,9,-19,9,68,58,-117,-68,-195,-126
-9,9,19,0,-14,14,97,43,-78,-53,-180,-117
0,19,19,-9,-9,19,117,39,-48,-48,-175,-117
9,29,19,-19,-4,24,136,34,-19,-43,-170,-117
19,39,19,-29,0,29,156,29,9,-39,-165,-117
29,39,9,-34,9,24,146,39,19,-34,-190,-117
39,39,0,-39,19,19,136,39,19,-29,-204,-117
48,39,-9,-43,29,14,126,39,19,-24,-219,-117
58,39,-19,-48,39,9,117,39,19,-19,-234,-117
58,34,-24,-46,41,4,112,14,14,-39,-224,-131
58,29,-29,-43,43,0,107,0,9,-48,-214,-146
58,24,-34,-41,46,-4,102,-14,4,-58,-204,-161
58,19,-39,-39,48,-9,97,-29,0,-68,-195,-175
43,4,-39,-24,41,-17,97,-14,9,-63,-195,-165
29,0,-29,-14,29,-14,97,-9,9,-58,-195,-156
14,-4,-19,-4,17,-12,97,-4,9,-53,-195,-146
0,-9,-9,4,4,-9,97,0,9,-48,-195,-136
9,4,-4,-7,7,0,107,0,-9,-48,-185,-122
9,9,0,-9,4,4,107,0,-19,-48,-175,-117
9,14,4,-12,2,9,107,0,-29,-48,-165,-112
9,19,9,-14,0,14,107,0,-39,-48,-156,-107
29,29,0,-29,14,14,112,0,-29,-29,-146,-97
39,29,-9,-34,24,9,117,0,-19,-19,-146,-97
48,29,-19,-39,34,4,122,0,-9,-9,-146,-97
58,29,-29,-43,43,0,126,0,0,0,-146,-97
48,14,-34,-31,41,-9,126,9,4,4,-165,-112
39,9,-29,-24,34,-9,126,9,9,9,-175,-117
29,4,-24,-17,26,-9,126,9,14,14,-185,-122
19,0,-19,-9,19,-9,126,9,19,19,-195,-126
24,0,-24,-12,24,-12,136,9,14,24,-170,-107
24,14,-9,-19,17,2,136,14,34,14,-175,-112
48,29,-19,-39,34,4,146,19,53,14,-185,-112
48,29,-19,-39,34,4,156,9,43,19,-175,-112
29,29,0,-29,14,14,170,14,29,9,-170,-117
34,19,-14,-26,24,2,175,9,29,4,-170,-107
58,19,-39,-39,48,-9,175,-9,39,4,-175,-126
87,19,-68,-53,78,-24,180,-29,48,4,-180,-146
87,24,-63,-56,75,-19,204,-14,58,-9,-195,-112
82,34,-48,-58,65,-7,204,-14,58,-19,-204,-87
68,34,-34,-51,51,0,200,-19,58,-34,-234,-102
63,34,-29,-48,46,2,200,-58,39,-39,-248,-87
73,48,-24,-61,48,12,190,-19,19,-39,-248,-102
58,48,-9,-53,34,19,190,9,14,-29,-229,-102
53,48,-4,-51,29,21,190,29,14,-29,-229,-107
48,39,-9,-43,29,14,190,53,9,-24,-239,-102
34,34,0,-34,17,17,200,24,14,-14,-219,-117
34,29,-4,-31,19,12,209,-24,19,-4,-209,-122
34,14,-19,-24,26,-2,219,-68,19,-4,-209,-141
34,0,-34,-17,34,-17,234,-68,29,4,-209,-151
48,4,-43,-26,46,-19,219,-4,14,14,-214,-165
58,9,-48,-34,53,-19,209,-14,19,4,-219,-180
73,14,-58,-43,65,-21,214,-19,14,-4,-229,-161
78,29,-48,-53,63,-9,204,-9,9,-4,-234,-146
78,24,-53,-51,65,-14,195,-4,14,-14,-209,-126
97,19,-78,-58,87,-29,195,-9,19,-9,-200,-122
97,14,-82,-56,90,-34,200,-4,29,-9,-180,-112
97,14,-82,-56,90,-34,200,-43,34,-9,-190,-112
97,34,-63,-65,80,-14,190,-39,24,-9,-200,-126
82,43,-39,-63,61,2,180,-39,14,-4,-190,-136
68,53,-14,-61,41,19,165,-34,4,-4,-190,-141
63,58,-4,-61,34,26,151,-34,-9,-4,-195,-151
68,68,0,-68,34,34,146,-19,0,-4,-204,-146
63,63,0,-63,31,31,141,-14,14,-4,-204,-136
68,63,-4,-65,36,29,136,-9,29,-9,-204,-126
82,68,-14,-75,48,26,117,-14,43,-24,-204,-117
78,63,-14,-70,46,24,122,-19,29,-39,-224,-151
78,53,-24,-65,51,14,146,-29,14,-29,-224,-165
73,39,-34,-56,53,2,165,-48,0,-34,-234,-175
73,29,-43,-51,58,-7,170,-68,-19,-34,-258,-190
82,39,-43,-61,63,-2,141,-39,0,-9,-234,-175
102,43,-58,-73,80,-7,131,-14,24,0,-219,-165
112,48,-63,-80,87,-7,122,-29,24,4,-214,-156
117,39,-78,-78,97,-19,112,-39,19,4,-200,-161
97,29,-68,-63,82,-19,126,-39,9,-29,-219,-161
97,24,-73,-61,85,-24,141,-24,14,-24,-234,-161
102,14,-87,-58,95,-36,151,-9,9,-34,-244,-156
112,-4,-117,-53,114,-61,156,-9,0,-53,-253,-156
107,0,-107,-53,107,-53,141,-19,-19,-48,-248,-165
102,-4,-107,-48,104,-56,146,-24,-34,-48,-229,-165
92,-9,-102,-41,97,-56,141,-39,-43,-48,-224,-161
87,-14,-102,-36,95,-58,131,-29,-48,-73,-229,-161
92,-4,-97,-43,95,-51,131,4,-34,-82,-263,-165
97,4,-92,-51,95,-43,131,4,-34,-82,-258,-165
92,19,-73,-56,82,-26,131,-24,-29,-82,-253,-165
117,34,-82,-75,100,-24,126,-24,-29,-87,-258,-165
102,19,-82,-61,92,-31,117,-4,-58,-102,-268,-165
92,14,-78,-53,85,-31,107,-4,-82,-112,-268,-161
87,0,-87,-43,87,-43,97,0,-87,-122,-268,-161
82,-4,-87,-39,85,-46,87,-19,-68,-136,-278,-165
87,4,-82,-46,85,-39,92,-43,-58,-141,-273,-170
97,19,-78,-58,87,-29,87,-58,-73,-136,-263,-175
107,34,-73,-70,90,-19,87,-48,-78,-126,-248,-170
112,43,-68,-78,90,-12,92,-53,-78,-112,-244,-161
107,34,-73,-70,90,-19,92,-48,-43,-102,-244,-146
102,34,-68,-68,85,-17,92,-48,-19,-87,-244,-141
82,29,-53,-56,68,-12,102,-63,-14,-97,-239,-117
87,29,-58,-58,73,-14,87,-63,-9,-107,-239,-122
82,43,-39,-63,61,2,87,-48,-34,-97,-248,-136
63,34,-29,-48,46,2,87,-29,-14,-87,-253,-136
58,34,-24,-46,41,4,87,-14,-29,-78,-253,-136
68,34,-34,-51,51,0,92,-29,-34,-78,-258,-136
87,43,-43,-65,65,0,92,-43,-48,-102,-278,-151
87,34,-53,-61,70,-9,87,-34,-58,-112,-273,-141
87,24,-63,-56,75,-19,82,-29,-63,-126,-283,-146
107,39,-68,-73,87,-14,73,-34,-73,-136,-292,-156
102,39,-63,-70,82,-12,63,-24,-73,-122,-268,-165
102,19,-82,-61,92,-31,63,-14,-78,-122,-258,-175
97,9,-87,-53,92,-39,73,-4,-73,-107,-224,-156
97,0,-97,-48,97,-48,78,4,-43,-82,-190,-141
117,4,-112,-61,114,-53,68,0,-24,-73,-209,-161
107,4,-102,-56,104,-48,68,0,-9,-73,-219,-170
107,34,-73,-70,90,-19,68,0,4,-73,-224,-180
112,48,-63,-80,87,-7,68,-9,19,-73,-224,-190
190,78,-112,-134,151,-17,48,-73,-14,-92,-239,-156
102,19,-82,-61,92,-31,48,-107,-63,-39,-234,-92
82,29,-53,-56,68,-12,78,-126,-73,-68,-234,-122
112,48,-63,-80,87,-7,87,-136,-131,-185,-258,-185
122,48,-73,-85,97,-12,82,-78,-180,-170,-253,-214
112,39,-73,-75,92,-17,73,-9,-131,-14,-253,-200
107,48,-58,-78,82,-4,73,-34,-39,107,-234,-156
146,97,-48,-122,97,24,34,-126,-107,170,-112,-146
165,117,-48,-141,107,34,9,-209,-297,229,78,-117
131,92,-39,-112,85,26,14,-224,-497,346,244,4
131,73,-58,-102,95,7,-4,-219,-678,468,409,165
161,97,-63,-129,112,17,-53,-287,-873,585,678,366
141,146,4,-143,68,75,-107,-429,-1063,717,995,629
165,219,53,-192,56,136,-195,-605,-1224,888,1356,927
258,297,39,-278,109,168,-287,-775,-1376,1063,1732,1273
356,366,9,-361,173,187,-400,-849,-1522,1122,2039,1581
400,405,4,-402,197,204,-512,-907,-1683,976,2235,1854
419,444,24,-431,197,234,-585,-1044,-1883,673,2357,2127
453,483,29,-468,212,256,-614,-1141,-2108,424,2488,2396
478,512,34,-495,222,273,-619,-1151,-2244,248,2644,2644
488,488,0,-488,244,244,-634,-1224,-2303,-14,2684,2801
512,444,-68,-478,290,187,-683,-1317,-2352,-370,2615,2903
561,341,-219,-451,390,61,-692,-1210,-2361,-678,2581,3040
551,151,-400,-351,475,-124,-629,-1000,-2264,-854,2522,3157
502,-48,-551,-226,527,-300,-507,-878,-2103,-1019,2269,3108
448,-204,-653,-122,551,-429,-385,-839,-1912,-1141,1825,2840
385,-302,-688,-41,536,-495,-307,-790,-1722,-1229,1229,2347
331,-380,-712,24,522,-546,-239,-678,-1546,-1327,536,1649
278,-439,-717,80,497,-578,-151,-541,-1361,-1390,-107,961
209,-507,-717,148,463,-612,-58,-448,-1190,-1371,-512,419
141,-527,-668,192,405,-597,-19,-336,-1054,-1302,-736,24
165,-483,-649,158,407,-566,-4,-195,-917,-1220,-863,-200
175,-434,-610,129,392,-522,43,-92,-741,-1063,-849,-244
107,-434,-541,163,324,-488,107,-39,-590,-829,-692,-239
97,-400,-497,151,297,-448,122,-63,-527,-678,-624,-287
126,-317,-444,95,285,-380,102,-78,-478,-595,-614,-317
122,-244,-366,61,244,-305,107,9,-356,-468,-517,-258
78,-219,-297,70,187,-258,107,97,-214,-370,-434,-224
63,-190,-253,63,158,-222,82,63,-146,-336,-400,-239
102,-117,-219,7,161,-168,73,14,-73,-258,-346,-239
136,-78,-214,-29,175,-146,73,34,14,-175,-307,-258
175,-39,-214,-68,195,-126,68,39,0,-126,-258,-239
151,-24,-175,-63,163,-100,48,48,-14,-78,-258,-229
126,-14,-141,-56,134,-78,48,73,-9,-58,-258,-209
107,4,-102,-56,104,-48,53,63,-4,-29,-234,-190
92,24,-68,-58,80,-21,24,24,-24,-24,-214,-195
97,24,-73,-61,85,-24,24,0,-14,-43,-219,-214
92,4,-87,-48,90,-41,34,14,-4,-63,-219,-214
97,-4,-102,-46,100,-53,34,24,34,-82,-209,-200
126,0,-126,-63,126,-63,53,24,53,-102,-209,-200
122,-19,-141,-51,131,-80,39,29,63,-73,-219,-195
112,-9,-122,-51,117,-65,19,29,68,-48,-229,-209
112,-14,-126,-48,119,-70,9,24,78,-29,-219,-209
102,-19,-122,-41,112,-70,-4,9,92,-19,-204,-204
87,-4,-92,-41,90,-48,0,-4,92,-53,-219,-214
73,-4,-78,-34,75,-41,0,-4,48,-78,-219,-214
82,-4,-87,-39,85,-46,-4,-4,24,-102,-234,-219
82,-19,-102,-31,92,-61,-4,-4,-4,-126,-248,-224
73,-9,-82,-31,78,-46,4,24,0,-107,-253,-214
53,-9,-63,-21,58,-36,14,39,4,-92,-263,-209
53,-9,-63,-21,58,-36,14,48,9,-87,-263,-200
58,-9,-68,-24,63,-39,9,29,14,-82,-263,-190
58,4,-53,-31,56,-24,19,9,29,-78,-268,-204
58,9,-48,-34,53,-19,24,29,39,-73,-248,-224
68,14,-53,-41,61,-19,34,-19,39,-63,-248,-244
68,24,-43,-46,56,-9,48,-53,43,-53,-253,-258
63,14,-48,-39,56,-17,39,-4,43,-43,-268,-239
92,9,-82,-51,87,-36,29,34,29,-43,-278,-234
112,-9,-122,-51,117,-65,9,58,29,-43,-292,-229
97,-19,-117,-39,107,-68,0,63,34,-48,-292,-244
78,-24,-102,-26,90,-63,9,63,58,-39,-258,-258
63,-19,-82,-21,73,-51,14,53,63,-34,-248,-273
82,-14,-97,-34,90,-56,24,53,53,-34,-239,-258
73,0,-73,-36,73,-36,39,68,58,-34,-224,-239
53,-9,-63,-21,58,-36,53,53,68,-29,-214,-219
43,-24,-68,-9,56,-46,53,48,58,-19,-214,-224
53,-24,-78,-14,65,-51,43,48,48,-19,-234,-244
53,-19,-73,-17,63,-46,43,24,68,-24,-244,-239
48,-14,-63,-17,56,-39,24,14,73,-29,-253,-229
58,-9,-68,-24,63,-39,19,4,73,-39,-248,-239
63,-4,-68,-29,65,-36,19,24,63,-24,-234,-229
73,0,-73,-36,73,-36,14,14,39,-14,-234,-229
63,-24,-87,-19,75,-56,19,19,39,-34,-244,-244
58,-24,-82,-17,70,-53,19,24,34,-43,-248,-244
53,-4,-58,-24,56,-31,29,19,29,-39,-253,-248
68,-4,-73,-31,70,-39,29,14,29,-43,-268,-258
53,-14,-68,-19,61,-41,19,14,43,-29,-248,-263
24,-14,-39,-4,31,-26,9,24,63,-9,-239,-263
19,-14,-34,-2,26,-24,-4,34,68,-4,-234,-258
29,-14,-43,-7,36,-29,-14,9,73,-4,-234,-253
24,-34,-58,4,41,-46,9,0,63,0,-244,-248
-4,-39,-34,21,14,-36,29,-9,78,9,-248,-244
-24,-48,-24,36,0,-36,29,0,78,24,-253,-244
-19,-53,-34,36,7,-43,29,0,73,34,-263,-258
-19,-34,-14,26,-2,-24,29,4,87,34,-268,-248
-19,-34,-14,26,-2,-24,48,9,92,24,-273,-234
0,-34,-34,17,17,-34,29,48,87,19,-258,-214
14,-43,-58,14,36,-51,29,68,102,19,-229,-185
14,-24,-39,4,26,-31,9,53,92,24,-214,-175
14,-9,-24,-2,19,-17,0,29,92,19,-209,-175
19,4,-14,-12,17,-4,0,14,78,14,-219,-200
29,19,-9,-24,19,4,-9,39,63,19,-214,-214
19,4,-14,-12,17,-4,-19,48,58,9,-224,-219
34,-4,-39,-14,36,-21,-4,43,29,4,-239,-224
9,-14,-24,2,17,-19,14,0,29,-34,-253,-229
0,-24,-24,12,12,-24,19,-4,58,-39,-248,-229
14,-24,-39,4,26,-31,34,-4,78,-19,-253,-200
34,-19,-53,-7,43,-36,19,24,82,-9,-248,-200
34,-4,-39,-14,36,-21,24,9,87,4,-239,-200
39,0,-39,-19,39,-19,43,-9,102,24,-234,-195
29,-4,-34,-12,31,-19,24,-19,97,34,-234,-200
29,-9,-39,-9,34,-24,-4,-19,92,34,-214,-214
24,-14,-39,-4,31,-26,-29,14,97,43,-190,-209
19,-24,-43,2,31,-34,-48,14,92,73,-175,-204
9,-43,-53,17,31,-48,-48,24,102,53,-200,-209
19,-43,-63,12,41,-53,-48,39,112,48,-224,-219
39,-19,-58,-9,48,-39,-34,48,112,39,-239,-224
29,-19,-48,-4,39,-34,-24,53,112,19,-239,-234
29,-9,-39,-9,34,-24,-19,39,112,43,-224,-219
34,-9,-43,-12,39,-26,-43,34,117,48,-214,-204
53,-9,-63,-21,58,-36,-53,53,107,78,-204,-190
58,-4,-63,-26,61,-34,-48,78,102,102,-180,-180
73,4,-68,-39,70,-31,-43,68,122,117,-156,-180
87,-4,-92,-41,90,-48,-39,43,146,107,-141,-170
73,-9,-82,-31,78,-46,-29,34,161,112,-136,-136
63,-9,-73,-26,68,-41,-24,73,185,126,-136,-136
48,-9,-58,-19,53,-34,-29,82,219,136,-126,-165
58,4,-53,-31,56,-24,-29,68,229,146,-117,-151
53,4,-48,-29,51,-21,-9,53,234,165,-102,-131
48,0,-48,-24,48,-24,-9,73,229,170,-97,-126
63,9,-53,-36,58,-21,-9,92,229,185,-92,-126
63,4,-58,-34,61,-26,-9,92,248,214,-82,-117
48,4,-43,-26,46,-19,-14,87,278,239,-78,-117
48,4,-43,-26,46,-19,-14,107,287,258,-63,-107
63,0,-63,-31,63,-31,-14,97,273,283,-48,-82
73,0,-73,-36,73,-36,-34,92,268,292,-43,-68
73,-4,-78,-34,75,-41,-39,82,273,302,-19,-43
63,-9,-73,-26,68,-41,-39,73,283,317,4,-14
73,-14,-87,-29,80,-51,-39,78,297,307,9,-14
73,-14,-87,-29,80,-51,-29,78,302,302,29,9
73,-4,-78,-34,75,-41,-24,87,312,307,43,14
78,-9,-87,-34,82,-48,-24,68,331,322,48,9
68,-14,-82,-26,75,-48,-43,78,361,341,58,24
53,-19,-73,-17,63,-46,-43,82,385,346,73,39
53,-24,-78,-14,65,-51,-43,97,385,361,102,63
73,-29,-102,-21,87,-65,-43,97,380,370,107,87
78,-19,-97,-29,87,-58,-58,87,356,366,107,107
82,-9,-92,-36,87,-51,-68,97,366,375,131,117
92,19,-73,-56,82,-26,-68,97,351,366,146,112
97,34,-63,-65,80,-14,-63,78,351,366,151,122
107,34,-73,-70,90,-19,-73,58,366,385,175,156
107,19,-87,-63,97,-34,-73,68,366,380,195,170
97,9,-87,-53,92,-39,-73,92,356,390,214,185
97,-9,-107,-43,102,-58,-63,112,361,414,244,209
92,-19,-112,-36,102,-65,-58,102,370,400,229,190
107,4,-102,-56,104,-48,-58,112,366,385,219,190
102,9,-92,-56,97,-41,-68,87,351,395,219,200
97,19,-78,-58,87,-29,-78,73,361,400,214,190
117,29,-87,-73,102,-29,-92,73,370,409,239,200
126,39,-87,-82,107,-24,-112,53,351,409,229,195
136,48,-87,-92,112,-19,-112,68,346,405,219,195
146,58,-87,-102,117,-14,-102,87,356,414,239,214
156,39,-117,-97,136,-39,-92,97,370,414,258,224
117,19,-97,-68,107,-39,-68,97,375,419,263,224
102,0,-102,-51,102,-51,-53,63,370,429,268,229
117,0,-117,-58,117,-58,-43,63,322,405,263,224
131,9,-122,-70,126,-56,-63,34,302,395,248,224
117,14,-102,-65,109,-43,-78,19,297,390,224,214
82,0,-82,-41,82,-41,-87,4,302,395,234,195
102,4,-97,-53,100,-46,-102,-4,287,380,234,190
131,29,-102,-80,117,-36,-107,14,283,370,224,180
117,29,-87,-73,102,-29,-112,14,278,366,204,170
122,19,-102,-70,112,-41,-112,0,268,351,204,185
126,9,-117,-68,122,-53,-117,-4,278,341,180,185
136,4,-131,-70,134,-63,-126,9,263,326,156,185
131,4,-126,-68,129,-61,-126,14,244,302,136,185
136,4,-131,-70,134,-63,-126,-4,229,273,122,156
141,24,-117,-82,129,-46,-117,-9,214,253,117,141
131,43,-87,-87,109,-21,-112,-4,219,263,136,117
131,53,-78,-92,104,-12,-107,-4,204,258,107,112
131,53,-78,-92,104,-12,-107,0,204,263,97,107
126,43,-82,-85,104,-19,-102,4,214,258,82,97
122,24,-97,-73,109,-36,-102,-4,190,229,87,78
107,19,-87,-63,97,-34,-97,-14,156,229,87,87
107,9,-97,-58,102,-43,-102,-19,102,209,68,87
87,0,-87,-43,87,-43,-107,-39,73,195,48,73
97,4,-92,-51,95,-43,-122,-53,68,180,9,43
92,9,-82,-51,87,-36,-122,-34,53,136,-14,39
92,9,-82,-51,87,-36,-117,-9,43,112,-19,34
87,14,-73,-51,80,-29,-102,19,29,102,-43,14
87,14,-73,-51,80,-29,-87,-24,58,82,-43,24
78,14,-63,-46,70,-24,-82,-53,53,68,-43,29
68,4,-63,-36,65,-29,-82,-9,43,68,-53,19
73,0,-73,-36,73,-36,-87,9,53,68,-58,-4
58,9,-48,-34,53,-19,-92,-34,48,73,-78,-43
58,14,-43,-36,51,-14,-97,-39,43,58,-97,-63
58,14,-43,-36,51,-14,-102,-29,34,43,-102,-58
58,0,-58,-29,58,-29,-107,-34,19,48,-107,-68
39,-4,-43,-17,41,-24,-82,-39,0,34,-117,-68
34,4,-29,-19,31,-12,-63,-34,0,14,-146,-78
48,0,-48,-24,48,-24,-48,-14,-9,-34,-156,-87
9,-19,-29,4,19,-24,-43,-29,-43,-63,-180,-97
-14,-39,-24,26,4,-31,-53,-19,-29,-43,-180,-107
-9,-43,-34,26,12,-39,-43,-9,-14,-39,-190,-112
4,-48,-53,21,29,-51,-43,-9,-9,-39,-190,-117
-4,-63,-58,34,26,-61,-39,-14,4,-29,-204,-117
-9,-63,-53,36,21,-58,-29,-43,9,-34,-195,-87
0,-58,-58,29,29,-58,-34,-34,-19,-34,-185,-97
-4,-48,-43,26,19,-46,-43,-53,-68,-48,-175,-112
-9,-43,-34,26,12,-39,-43,-68,-58,-48,-170,-117
0,-58,-58,29,29,-58,-58,-53,-68,-39,-180,-131
0,-68,-68,34,34,-68,-48,-34,-68,-48,-185,-146
19,-53,-73,17,46,-63,-39,-34,-58,-53,-195,-146
34,-48,-82,7,58,-65,-43,-39,-53,-53,-200,-161
34,-48,-82,7,58,-65,-43,-29,-19,-68,-219,-180
9,-43,-53,17,31,-48,-48,-43,4,-68,-224,-180
0,-43,-43,21,21,-43,-43,-58,0,-73,-234,-180
24,-39,-63,7,43,-51,-48,-39,0,-78,-244,-195
39,-19,-58,-9,48,-39,-48,-53,-19,-87,-229,-190
29,-14,-43,-7,36,-29,-34,-63,-19,-82,-224,-180
19,-19,-39,0,29,-29,-29,-73,-14,-78,-219,-175
19,-14,-34,-2,26,-24,-29,-92,-4,-73,-214,-185
4,-58,-63,26,34,-61,-43,-102,-39,-68,-229,-185
-9,-78,-68,43,29,-73,-53,-92,-68,-68,-239,-175
-24,-78,-53,51,14,-65,-68,-73,-107,-73,-239,-175
-39,-97,-58,68,9,-78,-73,-73,-141,-73,-229,-180
-24,-97,-73,61,24,-85,-63,-82,-126,-82,-239,-175
-9,-97,-87,53,39,-92,-53,-68,-126,-87,-229,-170
4,-102,-107,48,56,-104,-48,-63,-87,-92,-229,-165
19,-102,-122,41,70,-112,-48,-63,-53,-92,-234,-165
14,-87,-102,36,58,-95,-39,-53,-63,-78,-224,-180
19,-73,-92,26,56,-82,-39,-73,-78,-63,-224,-185
29,-53,-82,12,56,-68,-24,-58,-78,-48,-224,-195
34,-39,-73,2,53,-56,0,-39,-78,-43,-229,-200
34,-48,-82,7,58,-65,-9,-48,-97,-63,-239,-195
48,-43,-92,-2,70,-68,-34,-68,-102,-68,-258,-190
34,-34,-68,0,51,-51,-53,-68,-97,-68,-258,-175
53,-63,-117,4,85,-90,-63,-34,-92,-78,-253,-161
39,-63,-102,12,70,-82,-68,-19,-92,-87,-244,-175
29,-48,-78,9,53,-63,-63,-39,-97,-87,-244,-185
19,-43,-63,12,41,-53,-68,-68,-87,-87,-244,-200
0,-43,-43,21,21,-43,-78,-24,-73,-92,-244,-219
-19,-58,-39,39,9,-48,-73,-34,-63,-97,-258,-219
-4,-63,-58,34,26,-61,-73,-39,-63,-107,-268,-214
4,-58,-63,26,34,-61,-68,-68,-87,-122,-283,-209
14,-63,-78,24,46,-70,-48,-68,-87,-141,-273,-204
24,-58,-82,17,53,-70,-43,-29,-97,-112,-253,-185
34,-53,-87,9,61,-70,-39,-19,-102,-97,-258,-180
43,-39,-82,-2,63,-61,-34,-24,-107,-87,-224,-190
39,-34,-73,-2,56,-53,-29,-14,-112,-82,-214,-204
39,-43,-82,2,61,-63,-34,-19,-87,-92,-239,-200
43,-39,-82,-2,63,-61,-34,-29,-68,-97,-253,-195
53,-39,-92,-7,73,-65,-34,-43,-63,-112,-278,-175
82,-19,-102,-31,92,-61,-39,-53,-68,-112,-287,-170
63,-34,-97,-14,80,-65,-53,-43,-63,-117,-258,-175
48,-29,-78,-9,63,-53,-58,-34,-53,-97,-253,-175
24,-34,-58,4,41,-46,-58,-39,-58,-102,-253,-175
0,-39,-39,19,19,-39,-53,-19,-68,-107,-248,-175
4,-34,-39,14,21,-36,-34,-9,-58,-97,-244,-175
9,-48,-58,19,34,-53,-29,-9,-63,-92,-244,-165
19,-43,-63,12,41,-53,-43,0,-48,-82,-239,-151
39,-34,-73,-2,56,-53,-48,0,-34,-73,-229,-136
43,-24,-68,-9,56,-46,-48,0,-19,-58,-229,-161
39,-24,-63,-7,51,-43,-34,-19,-14,-43,-234,-175
63,-9,-73,-26,68,-41,-24,-29,-14,-43,-239,-195
68,-9,-78,-29,73,-43,-24,-43,9,-48,-258,-224
58,-29,-87,-14,73,-58,-39,-58,-9,-78,-283,-224
58,-24,-82,-17,70,-53,-39,-43,-39,-102,-287,-234
68,-29,-97,-19,82,-63,-34,-58,-43,-87,-283,-234
34,-39,-73,2,53,-56,-24,-63,-43,-87,-268,-229
24,-29,-53,2,39,-41,-14,-43,-29,-78,-268,-234
39,-29,-68,-4,53,-48,-29,-19,-14,-92,-278,-234
9,-34,-43,12,26,-39,-29,-4,-4,-102,-278,-244
-24,-43,-19,34,-2,-31,-29,-4,-4,-102,-278,-253
4,-48,-53,21,29,-51,-14,-9,-19,-97,-287,-263
-9,-48,-39,29,14,-43,-4,24,-24,-92,-292,-268
9,-39,-48,14,29,-43,-4,34,-24,-87,-292,-273
14,-39,-53,12,34,-46,-4,9,-29,-78,-292,-278
19,4,-14,-12,17,-4,-4,-43,-39,-87,-302,-278
19,4,-14,-12,17,-4,0,-43,-48,-97,-283,-273
9,4,-4,-7,7,0,14,-24,-29,-97,-263,-253
9,4,-4,-7,7,0,19,-24,-24,-92,-263,-253
14,0,-14,-7,14,-7,34,0,-9,-58,-258,-248
14,-4,-19,-4,17,-12,24,9,14,-14,-244,-248
9,-24,-34,7,21,-29,24,19,34,-9,-239,-244
9,-43,-53,17,31,-48,24,29,48,-14,-234,-239
14,-34,-48,9,31,-41,24,34,29,-29,-214,-253
19,-29,-48,4,34,-39,29,34,19,-48,-214,-253
34,-29,-63,-2,48,-46,34,14,9,-53,-209,-248
39,-34,-73,-2,56,-53,34,-9,-9,-58,-209,-253
19,-34,-53,7,36,-43,24,-24,4,-63,-219,-244
14,-34,-48,9,31,-41,14,-24,29,-53,-224,-244
4,-29,-34,12,19,-31,14,-24,34,-63,-239,-248
-4,-29,-24,17,9,-26,4,-29,9,-73,-244,-263
-24,-53,-29,39,2,-41,0,-9,14,-68,-234,-239
-24,-68,-43,46,9,-56,-9,19,24,-87,-224,-219
-24,-73,-48,48,12,-61,-14,14,34,-63,-224,-209
-19,-63,-43,41,12,-53,-24,24,39,-39,-219,-209
4,-43,-48,19,26,-46,4,19,48,-29,-214,-209
4,-29,-34,12,19,-31,14,9,43,-43,-214,-204
14,-4,-19,-4,17,-12,9,-53,39,-53,-224,-200
29,-4,-34,-12,31,-19,19,-82,24,-53,-219,-195
14,-14,-29,0,21,-21,-4,-68,0,-63,-209,-195
19,0,-19,-9,19,-9,-9,-34,-19,-58,-209,-195
29,4,-24,-17,26,-9,-24,-34,-43,-53,-209,-175
24,4,-19,-14,21,-7,-39,-48,-87,-53,-204,-161
9,-4,-14,-2,12,-9,-24,-24,-58,-63,-195,-146
19,-14,-34,-2,26,-24,-14,0,-53,-63,-200,-146
24,-39,-63,7,43,-51,-4,39,-53,-68,-200,-146
4,-29,-34,12,19,-31,0,48,-68,-82,-190,-165
14,-29,-43,7,29,-36,-19,34,-53,-78,-195,-180
14,-39,-53,12,34,-46,-29,39,-43,-78,-200,-180
14,-39,-53,12,34,-46,-39,14,-39,-73,-200,-161
14,-43,-58,14,36,-51,-29,-29,-48,-58,-190,-141
19,-43,-63,12,41,-53,-43,-58,-63,-48,-190,-151
19,-43,-63,12,41,-53,-39,-73,-43,-48,-195,-156
9,-43,-53,17,31,-48,-34,-68,-39,-43,-195,-156
-4,-24,-19,14,7,-21,-29,-58,-43,-43,-200,-161
4,-24,-29,9,17,-26,-29,-63,-53,-48,-209,-175
4,-24,-29,9,17,-26,-34,-53,-63,-58,-204,-175
-19,-39,-19,29,0,-29,-34,-24,-68,-53,-195,-161
-29,-39,-9,34,-9,-24,-34,-14,-24,-48,-190,-156
-4,-24,-19,14,7,-21,-34,-53,-19,-53,-195,-151
9,-19,-29,4,19,-24,-39,-53,-34,-53,-200,-156
19,-4,-24,-7,21,-14,-39,-19,-39,-58,-204,-161
29,-4,-34,-12,31,-19,-43,0,-63,-73,-209,-190
9,-29,-39,9,24,-34,-39,-14,-53,-68,-224,-200
4,-48,-53,21,29,-51,-29,-19,-63,-68,-229,-200
-4,-39,-34,21,14,-36,-24,-19,-53,-63,-239,-185
4,-24,-29,9,17,-26,-19,9,-39,-63,-244,-175
-14,-43,-29,29,7,-36,-9,-14,-24,-53,-229,-180
-14,-43,-29,29,7,-36,-9,-39,-29,-43,-224,-180
-4,-29,-24,17,9,-26,-24,-53,-14,-53,-219,-185
0,-19,-19,9,9,-19,-29,-68,-9,-68,-214,-190
19,-39,-58,9,39,-48,-39,-102,-48,-82,-224,-185
29,-48,-78,9,53,-63,-39,-107,-63,-92,-224,-175
24,-34,-58,4,41,-46,-34,-92,-63,-102,-224,-165
-4,-43,-39,24,17,-41,-34,-92,-68,-107,-224,-151
-29,-58,-29,43,0,-43,-39,-78,-58,-97,-214,-161
9,-53,-63,21,36,-58,-48,-53,-58,-87,-209,-156
43,-48,-92,2,68,-70,-53,-24,-58,-78,-204,-156
39,-39,-78,0,58,-58,-48,-39,-48,-63,-204,-161
39,-39,-78,0,58,-58,-39,-73,-39,-48,-209,-151
58,-24,-82,-17,70,-53,-48,-53,-43,-48,-219,-161
58,-24,-82,-17,70,-53,-48,-43,-53,-63,-214,-136
24,-39,-63,7,43,-51,-39,-39,-43,-43,-204,-136
0,-48,-48,24,24,-48,-24,-63,-34,-63,-204,-151
0,-39,-39,19,19,-39,-19,-39,-29,-68,-209,-151
4,-29,-34,12,19,-31,-19,-19,-29,-73,-214,-151
19,-19,-39,0,29,-29,-24,-24,-29,-78,-224,-161
19,0,-19,-9,19,-9,-34,-24,-53,-78,-190,-146
0,4,4,-2,-2,4,-19,-24,-29,-78,-185,-141
14,0,-14,-7,14,-7,-4,-34,-48,-78,-185,-136
34,4,-29,-19,31,-12,0,-58,-53,-78,-195,-146
24,-4,-29,-9,26,-17,-9,-39,-78,-82,-214,-146
