I,II,III,aVR,aVL,aVF,V1,V2,V3,V4,V5,V6
-58,-87,-29,73,-14,-58,-19,761,273,-68,117,-175
-58,-87,-29,73,-14,-58,-19,761,273,-68,117,-175
-58,-87,-29,73,-14,-58,-19,761,273,-68,117,-175
-58,-87,-29,73,-14,-58,-19,761,273,-68,117,-175
-78,-87,-9,82,-34,-48,-14,756,273,-63,126,-175
-87,-87,0,87,-43,-43,-9,751,273,-58,126,-175
-97,-87,9,92,-53,-39,-4,746,273,-53,126,-175
-107,-87,19,97,-63,-34,0,741,273,-48,126,-175
-112,-92,19,102,-65,-36,9,736,283,-48,117,-185
-117,-97,19,107,-68,-39,9,732,283,-48,117,-195
-122,-102,19,112,-70,-41,9,727,283,-48,117,-204
-126,-107,19,117,-73,-43,9,722,283,-48,117,-214
-136,-102,34,119,-85,-34,19,712,283,-39,107,-229
-136,-97,39,117,-87,-29,19,702,283,-39,107,-234
-136,-92,43,114,-90,-24,19,692,283,-39,107,-239
-136,-87,48,112,-92,-19,19,683,283,-39,107,-244
-141,-87,53,114,-97,-17,9,668,283,-43,97,-263
-146,-87,58,117,-102,-14,9,663,283,-48,87,-273
-151,-87,63,119,-107,-12,9,658,283,-53,78,-283
-156,-87,68,122,-112,-9,9,653,283,-58,68,-292
-165,-97,68,131,-117,-14,14,639,283,-58,68,-302
-165,-97,68,131,-117,-14,19,634,283,-58,68,-302
-165,-97,68,131,-117,-14,24,629,283,-58,68,-302
-165,-97,68,131,-117,-14,29,624,283,-58,68,-302
-180,-102,78,141,-129,-12,39,614,283,-58,53,-322
-185,-107,78,146,-131,-14,39,614,283,-58,48,-331
-190,-112,78,151,-134,-17,39,614,283,-58,43,-341
-195,-117,78,156,-136,-19,39,614,283,-58,39,-351
-185,-112,73,148,-129,-19,39,614,292,-48,48,-361
-185,-107,78,146,-131,-14,39,614,292,-48,48,-361
-185,-102,82,143,-134,-9,39,614,292,-48,48,-361
-185,-97,87,141,-136,-4,39,614,292,-48,48,-361
-195,-102,92,148,-143,-4,39,614,292,-53,48,-370
-195,-107,87,151,-141,-9,39,614,292,-58,48,-370
-195,-112,82,153,-139,-14,39,614,292,-63,48,-370
-195,-117,78,156,-136,-19,39,614,292,-68,48,-370
-200,-126,73,163,-136,-26,29,629,302,-58,39,-375
-204,-126,78,165,-141,-24,29,634,302,-58,39,-380
-209,-126,82,168,-146,-21,29,639,302,-58,39,-385
-214,-126,87,170,-151,-19,29,644,302,-58,39,-390
-224,-126,97,175,-161,-14,34,649,297,-63,39,-395
-224,-126,97,175,-161,-14,39,653,292,-68,39,-400
-224,-126,97,175,-161,-14,43,658,287,-73,39,-405
-224,-126,97,175,-161,-14,48,663,283,-78,39,-409
-214,-126,87,170,-151,-19,48,678,297,-63,48,-419
-214,-126,87,170,-151,-19,48,683,302,-58,48,-419
-214,-126,87,170,-151,-19,48,688,307,-53,48,-419
-214,-126,87,170,-151,-19,48,692,312,-48,48,-419
-224,-136,87,180,-156,-24,48,702,307,-48,48,-409
-224,-136,87,180,-156,-24,48,702,302,-48,48,-409
-224,-136,87,180,-156,-24,48,702,297,-48,48,-409
-224,-136,87,180,-156,-24,48,702,292,-48,48,-409
-234,-146,87,190,-161,-29,48,702,292,-48,43,-419
-234,-146,87,190,-161,-29,48,702,292,-48,39,-429
-234,-146,87,190,-161,-29,48,702,292,-48,34,-439
-234,-146,87,190,-161,-29,48,702,292,-48,29,-448
-229,-136,92,183,-161,-21,39,712,292,-58,29,-448
-224,-136,87,180,-156,-24,39,712,292,-58,29,-448
-219,-136,82,178,-151,-26,39,712,292,-58,29,-448
-214,-136,78,175,-146,-29,39,712,292,-58,29,-448
-219,-146,73,183,-146,-36,48,702,283,-53,29,-463
-224,-146,78,185,-151,-34,48,702,283,-48,29,-468
-229,-146,82,187,-156,-31,48,702,283,-43,29,-473
-234,-146,87,190,-161,-29,48,702,283,-39,29,-478
-234,-156,78,195,-156,-39,39,697,283,-48,24,-492
-234,-156,78,195,-156,-39,39,692,283,-48,19,-497
-234,-156,78,195,-156,-39,39,688,283,-48,14,-502
-234,-156,78,195,-156,-39,39,683,283,-48,9,-507
-244,-156,87,200,-165,-34,48,683,283,-43,19,-497
-244,-156,87,200,-165,-34,48,683,283,-39,29,-497
-244,-156,87,200,-165,-34,48,683,283,-34,39,-497
-244,-156,87,200,-165,-34,48,683,283,-29,48,-497
-244,-165,78,204,-161,-43,39,683,278,-34,39,-512
-244,-165,78,204,-161,-43,39,683,273,-39,29,-517
-244,-165,78,204,-161,-43,39,683,268,-43,19,-522
-244,-165,78,204,-161,-43,39,683,263,-48,9,-527
-248,-175,73,212,-161,-51,39,673,253,-63,-4,-536
-253,-175,78,214,-165,-48,39,673,253,-68,-9,-546
-258,-175,82,217,-170,-46,39,673,253,-73,-14,-556
-263,-175,87,219,-175,-43,39,673,253,-78,-19,-566
-263,-185,78,224,-170,-53,39,663,263,-63,-4,-556
-263,-185,78,224,-170,-53,39,663,263,-58,0,-556
-263,-185,78,224,-170,-53,39,663,263,-53,4,-556
-263,-185,78,224,-170,-53,39,663,263,-48,9,-556
-268,-195,73,231,-170,-61,48,653,268,-48,19,-561
-273,-195,78,234,-175,-58,48,653,273,-48,19,-566
-278,-195,82,236,-180,-56,48,653,278,-48,19,-570
-283,-195,87,239,-185,-53,48,653,283,-48,19,-575
-283,-195,87,239,-185,-53,39,639,283,-58,14,-585
-283,-195,87,239,-185,-53,39,634,283,-58,9,-595
-283,-195,87,239,-185,-53,39,629,283,-58,4,-605
-283,-195,87,239,-185,-53,39,624,283,-58,0,-614
-283,-185,97,234,-190,-43,39,624,268,-73,-14,-624
-283,-185,97,234,-190,-43,39,624,263,-78,-19,-624
-283,-185,97,234,-190,-43,39,624,258,-82,-24,-624
-283,-185,97,234,-190,-43,39,624,253,-87,-29,-624
-292,-200,92,246,-192,-53,48,624,258,-82,-19,-624
-292,-204,87,248,-190,-58,48,624,263,-78,-9,-624
-292,-209,82,251,-187,-63,48,624,268,-73,0,-624
-292,-214,78,253,-185,-68,48,624,273,-68,9,-624
-292,-209,82,251,-187,-63,48,634,263,-82,0,-639
-292,-204,87,248,-190,-58,48,634,263,-87,-9,-644
-292,-200,92,246,-192,-53,48,634,263,-92,-19,-649
-292,-195,97,244,-195,-48,48,634,263,-97,-29,-653
-307,-204,102,256,-204,-51,48,634,253,-107,-39,-663
-312,-214,97,263,-204,-58,48,634,253,-107,-39,-673
-317,-224,92,270,-204,-65,48,634,253,-107,-39,-683
-322,-234,87,278,-204,-73,48,634,253,-107,-39,-692
-317,-219,97,268,-207,-61,43,629,248,-112,-39,-697
-312,-214,97,263,-204,-58,39,624,244,-117,-39,-702
-307,-209,97,258,-202,-56,34,619,239,-122,-39,-707
-302,-204,97,253,-200,-53,29,614,234,-126,-39,-712
-307,-209,97,258,-202,-56,29,605,234,-122,-39,-722
-312,-214,97,263,-204,-58,29,605,234,-117,-39,-722
-317,-219,97,268,-207,-61,29,605,234,-112,-39,-722
-322,-224,97,273,-209,-63,29,605,234,-107,-39,-722
-312,-229,82,270,-197,-73,19,600,224,-122,-53,-736
-312,-234,78,273,-195,-78,19,595,224,-136,-58,-741
-312,-239,73,275,-192,-82,19,590,224,-151,-63,-746
-312,-244,68,278,-190,-87,19,585,224,-165,-68,-751
-326,-248,78,287,-202,-85,34,575,229,-151,-58,-756
-331,-253,78,292,-204,-87,39,575,234,-146,-58,-761
-336,-258,78,297,-207,-90,43,575,239,-141,-58,-766
-341,-263,78,302,-209,-92,48,575,244,-136,-58,-771
-351,-273,78,312,-214,-97,43,566,244,-146,-53,-775
-351,-273,78,312,-214,-97,39,566,244,-146,-48,-780
-351,-273,78,312,-214,-97,34,566,244,-146,-43,-785
-351,-273,78,312,-214,-97,29,566,244,-146,-39,-790
-351,-263,87,307,-219,-87,39,570,244,-146,-43,-805
-351,-263,87,307,-219,-87,39,575,244,-146,-48,-810
-351,-263,87,307,-219,-87,39,580,244,-146,-53,-814
-351,-263,87,307,-219,-87,39,585,244,-146,-58,-819
-351,-263,87,307,-219,-87,39,595,244,-156,-58,-834
-351,-263,87,307,-219,-87,39,605,244,-156,-58,-839
-351,-263,87,307,-219,-87,39,614,244,-156,-58,-844
-351,-263,87,307,-219,-87,39,624,244,-156,-58,-849
-351,-273,78,312,-214,-97,39,614,244,-165,-58,-854
-351,-273,78,312,-214,-97,39,614,244,-165,-58,-858
-351,-273,78,312,-214,-97,39,614,244,-165,-58,-863
-351,-273,78,312,-214,-97,39,614,244,-165,-58,-868
-361,-278,82,319,-222,-97,48,629,244,-165,-58,-868
-361,-283,78,322,-219,-102,48,634,244,-165,-58,-868
-361,-287,73,324,-217,-107,48,639,244,-165,-58,-868
-361,-292,68,326,-214,-112,48,644,244,-165,-58,-868
-361,-302,58,331,-209,-122,39,653,239,-165,-48,-868
-361,-302,58,331,-209,-122,39,653,234,-165,-48,-868
-361,-302,58,331,-209,-122,39,653,229,-165,-48,-868
-361,-302,58,331,-209,-122,39,653,224,-165,-48,-868
-361,-297,63,329,-212,-117,29,663,204,-180,-63,-888
-361,-292,68,326,-214,-112,29,673,195,-185,-68,-897
-361,-287,73,324,-217,-107,29,683,185,-190,-73,-907
-361,-283,78,322,-219,-102,29,692,175,-195,-78,-917
-361,-287,73,324,-217,-107,39,707,165,-185,-87,-922
-361,-292,68,326,-214,-112,39,722,165,-185,-87,-927
-361,-297,63,329,-212,-117,39,736,165,-185,-87,-932
-361,-302,58,331,-209,-122,39,751,165,-185,-87,-936
-361,-297,63,329,-212,-117,39,766,151,-190,-92,-941
-361,-292,68,326,-214,-112,39,771,146,-195,-97,-946
-361,-287,73,324,-217,-107,39,775,141,-200,-102,-951
-361,-283,78,322,-219,-102,39,780,136,-204,-107,-956
-366,-287,78,326,-222,-104,39,790,131,-195,-107,-971
-370,-292,78,331,-224,-107,39,800,126,-195,-107,-976
-375,-297,78,336,-226,-109,39,810,122,-195,-107,-980
-380,-302,78,341,-229,-112,39,819,117,-195,-107,-985
-380,-287,92,334,-236,-97,39,810,112,-204,-122,-1000
-380,-283,97,331,-239,-92,39,810,107,-204,-126,-1005
-380,-278,102,329,-241,-87,39,810,102,-204,-131,-1010
-380,-273,107,326,-244,-82,39,810,97,-204,-136,-1015
-390,-287,102,339,-246,-92,39,790,87,-200,-131,-1019
-390,-292,97,341,-244,-97,39,780,87,-195,-126,-1024
-390,-297,92,344,-241,-102,39,771,87,-190,-122,-1029
-390,-302,87,346,-239,-107,39,761,87,-185,-117,-1034
-390,-307,82,348,-236,-112,39,741,78,-190,-122,-1034
-390,-312,78,351,-234,-117,39,732,68,-195,-126,-1034
-390,-317,73,353,-231,-122,39,722,58,-200,-131,-1034
-390,-322,68,356,-229,-126,39,712,48,-204,-136,-1034
-390,-312,78,351,-234,-117,48,707,43,-195,-126,-1039
-390,-312,78,351,-234,-117,48,702,39,-195,-126,-1044
-390,-312,78,351,-234,-117,48,697,34,-195,-126,-1049
-390,-312,78,351,-234,-117,48,692,29,-195,-126,-1054
-400,-322,78,361,-239,-122,48,692,19,-200,-136,-1063
-400,-322,78,361,-239,-122,48,692,9,-204,-146,-1073
-400,-322,78,361,-239,-122,48,692,0,-209,-156,-1083
-400,-322,78,361,-239,-122,48,692,-9,-214,-165,-1093
-395,-312,82,353,-239,-114,43,702,-24,-204,-170,-1112
-395,-312,82,353,-239,-114,39,702,-24,-195,-175,-1122
-395,-307,87,351,-241,-109,34,712,-29,-195,-175,-1132
-390,-297,92,344,-241,-102,34,717,-34,-195,-175,-1141
-385,-302,82,344,-234,-109,43,712,-34,-200,-180,-1146
-385,-302,82,344,-234,-109,43,717,-39,-190,-185,-1151
-385,-307,78,346,-231,-114,43,722,-43,-190,-190,-1151
-380,-312,68,346,-224,-122,43,722,-48,-195,-195,-1156
-375,-302,73,339,-224,-114,39,717,-63,-204,-204,-1166
-375,-287,87,331,-231,-100,48,717,-68,-204,-209,-1171
-375,-278,97,326,-236,-90,53,712,-68,-195,-209,-1171
-366,-268,97,317,-231,-85,53,707,-73,-195,-214,-1171
-370,-263,107,317,-239,-78,63,717,-78,-185,-214,-1171
-370,-263,107,317,-239,-78,68,727,-73,-185,-209,-1171
-370,-268,102,319,-236,-82,73,732,-78,-180,-204,-1166
-370,-273,97,322,-234,-87,78,736,-87,-180,-204,-1166
-380,-273,107,326,-244,-82,73,741,-102,-185,-214,-1180
-375,-268,107,322,-241,-80,68,741,-107,-185,-224,-1190
-370,-263,107,317,-239,-78,68,746,-102,-190,-234,-1200
-370,-258,112,314,-241,-73,63,746,-107,-195,-239,-1215
-356,-268,87,312,-222,-90,73,761,-112,-185,-229,-1224
-351,-258,92,305,-222,-82,63,771,-117,-170,-229,-1224
-346,-248,97,297,-222,-75,58,780,-117,-170,-219,-1215
-336,-229,107,283,-222,-61,48,790,-112,-161,-209,-1205
-336,-214,122,275,-229,-46,39,795,-102,-141,-195,-1200
-336,-204,131,270,-234,-36,24,800,-102,-131,-180,-1195
-331,-204,126,268,-229,-39,14,805,-112,-126,-190,-1195
-336,-214,122,275,-229,-46,-4,810,-131,-141,-204,-1205
-341,-214,126,278,-234,-43,-29,795,-156,-151,-219,-1224
-341,-224,117,283,-229,-53,-39,780,-180,-175,-239,-1239
-351,-244,107,297,-229,-68,-43,775,-209,-185,-258,-1254
-351,-248,102,300,-226,-73,-48,775,-229,-195,-273,-1263
-356,-278,78,317,-217,-100,-39,771,-234,-200,-287,-1273
-361,-283,78,322,-219,-102,-29,780,-239,-204,-292,-1283
-361,-283,78,322,-219,-102,-24,785,-244,-209,-297,-1293
-366,-287,78,326,-222,-104,-19,790,-248,-214,-302,-1302
-366,-287,78,326,-222,-104,-9,790,-258,-204,-292,-1293
-366,-292,73,329,-219,-109,-14,785,-268,-204,-302,-1302
-366,-292,73,329,-219,-109,-14,785,-283,-209,-302,-1302
-370,-297,73,334,-222,-112,-14,785,-287,-219,-307,-1307
-366,-302,63,334,-214,-119,-4,790,-287,-214,-302,-1317
-375,-322,53,348,-214,-134,0,790,-287,-209,-307,-1322
-385,-326,58,356,-222,-134,0,790,-287,-209,-312,-1327
-395,-331,63,363,-229,-134,9,790,-292,-209,-317,-1337
-409,-341,68,375,-239,-136,14,790,-312,-214,-326,-1342
-414,-341,73,378,-244,-134,14,785,-322,-224,-331,-1351
-414,-346,68,380,-241,-139,14,785,-326,-234,-341,-1361
-419,-356,63,387,-241,-146,14,780,-336,-239,-351,-1371
-419,-366,53,392,-236,-156,-4,756,-356,-244,-361,-1385
-419,-370,48,395,-234,-161,-9,751,-370,-253,-370,-1390
-414,-370,43,392,-229,-163,-9,741,-375,-253,-375,-1390
-414,-370,43,392,-229,-163,-9,741,-380,-253,-375,-1390
-414,-375,39,395,-226,-168,-9,741,-385,-258,-380,-1400
-414,-375,39,395,-226,-168,-9,741,-395,-263,-385,-1405
-414,-375,39,395,-226,-168,-4,741,-400,-268,-385,-1405
-414,-375,39,395,-226,-168,-4,741,-400,-273,-390,-1405
-414,-380,34,397,-224,-173,4,741,-405,-273,-405,-1405
-414,-380,34,397,-224,-173,4,746,-414,-273,-405,-1410
-414,-380,34,397,-224,-173,4,746,-424,-273,-409,-1410
-414,-380,34,397,-224,-173,4,736,-429,-273,-409,-1410
-419,-380,39,400,-229,-170,-4,736,-439,-263,-409,-1420
-424,-380,43,402,-234,-168,-4,727,-439,-268,-409,-1420
-424,-375,48,400,-236,-163,-4,727,-439,-268,-409,-1420
-419,-375,43,397,-231,-165,0,727,-434,-258,-409,-1415
-419,-380,39,400,-229,-170,0,717,-448,-268,-395,-1405
-419,-380,39,400,-229,-170,0,712,-448,-273,-395,-1405
-419,-380,39,400,-229,-170,0,712,-453,-273,-400,-1405
-419,-375,43,397,-231,-165,0,707,-463,-268,-400,-1410
-419,-375,43,397,-231,-165,9,717,-458,-258,-409,-1420
-419,-375,43,397,-231,-165,9,712,-458,-258,-409,-1420
-419,-375,43,397,-231,-165,9,712,-458,-258,-409,-1420
-419,-375,43,397,-231,-165,19,712,-458,-258,-409,-1420
-429,-366,63,397,-246,-151,9,707,-468,-248,-419,-1429
-439,-366,73,402,-256,-146,4,702,-468,-248,-424,-1429
-439,-366,73,402,-256,-146,4,697,-468,-248,-424,-1429
-444,-366,78,405,-261,-143,4,692,-468,-239,-419,-1424
-444,-366,78,405,-261,-143,0,692,-468,-248,-419,-1424
-429,-366,63,397,-246,-151,9,688,-468,-248,-419,-1424
-419,-351,68,385,-244,-141,24,688,-468,-239,-400,-1415
-419,-346,73,383,-246,-136,39,697,-448,-219,-390,-1405
-434,-346,87,390,-261,-129,48,702,-434,-224,-390,-1415
-458,-346,112,402,-285,-117,58,712,-409,-204,-409,-1429
-463,-326,136,395,-300,-95,92,751,-356,-175,-414,-1444
-453,-312,141,383,-297,-85,146,814,-268,-131,-395,-1444
-453,-312,141,383,-297,-85,195,878,-185,-78,-375,-1444
-444,-287,156,366,-300,-65,214,932,-102,-29,-341,-1420
-444,-253,190,348,-317,-31,214,971,-19,53,-278,-1371
-429,-200,229,314,-329,14,219,1029,87,151,-195,-1322
-400,-146,253,273,-326,53,244,1112,190,234,-131,-1268
-346,-112,234,229,-290,61,253,1156,244,307,-58,-1210
-268,-48,219,158,-244,85,219,1146,292,409,58,-1102
-175,58,234,58,-204,146,122,1078,326,541,214,-966
-58,200,258,-70,-158,229,-29,946,287,668,400,-795
68,375,307,-222,-119,341,-209,756,224,810,614,-575
175,570,395,-373,-109,483,-380,580,224,985,844,-370
258,751,492,-505,-117,622,-517,439,234,1171,1049,-200
336,868,531,-602,-97,700,-629,361,204,1317,1239,-39
409,1005,595,-707,-92,800,-727,287,219,1483,1449,141
488,1195,707,-841,-109,951,-854,156,253,1654,1659,317
502,1342,839,-922,-168,1090,-990,-78,175,1751,1790,439
468,1429,961,-949,-246,1195,-1058,-346,39,1747,1825,468
380,1410,1029,-895,-324,1220,-1044,-517,-48,1703,1766,419
248,1254,1005,-751,-378,1129,-956,-551,-97,1590,1595,263
107,1039,932,-573,-412,985,-893,-566,-224,1346,1298,24
0,844,844,-422,-422,844,-932,-629,-483,941,897,-258
-78,639,717,-280,-397,678,-951,-649,-775,497,502,-517
-161,483,644,-161,-402,563,-863,-629,-1005,112,190,-712
-209,414,624,-102,-417,519,-780,-585,-1171,-175,-53,-849
-224,356,580,-65,-402,468,-736,-488,-1190,-312,-204,-961
-234,283,517,-24,-375,400,-663,-322,-1068,-253,-214,-995
-229,239,468,-4,-348,353,-561,-151,-897,-141,-175,-1005
-224,180,405,21,-314,292,-473,-9,-766,-68,-146,-1019
-229,122,351,53,-290,236,-400,92,-688,-48,-131,-1029
-268,53,322,107,-295,187,-341,165,-653,-48,-146,-1049
-307,4,312,151,-309,158,-283,224,-610,-39,-180,-1068
-292,-39,253,165,-273,107,-224,292,-541,-19,-190,-1093
-292,-92,200,192,-246,53,-165,356,-507,-24,-190,-1098
-302,-136,165,219,-234,14,-126,390,-488,-39,-214,-1107
-312,-156,156,234,-234,0,-102,405,-488,-43,-244,-1127
-312,-175,136,244,-224,-19,-87,414,-497,-58,-263,-1141
-336,-204,131,270,-234,-36,-68,419,-512,-97,-292,-1156
-361,-239,122,300,-241,-58,-53,419,-522,-122,-317,-1166
-361,-239,122,300,-241,-58,-43,409,-541,-161,-351,-1190
-366,-229,136,297,-251,-46,-34,409,-556,-190,-366,-1205
-370,-244,126,307,-248,-58,-24,414,-551,-185,-375,-1215
-361,-253,107,307,-234,-73,-14,424,-546,-180,-390,-1220
-351,-263,87,307,-219,-87,-14,429,-551,-195,-405,-1224
-366,-278,87,322,-226,-95,0,419,-561,-204,-424,-1234
-385,-287,97,336,-241,-95,24,424,-561,-209,-444,-1234
-385,-297,87,341,-236,-104,29,424,-561,-209,-444,-1234
-375,-307,68,341,-222,-119,34,429,-551,-209,-434,-1229
-375,-312,63,344,-219,-124,53,448,-556,-209,-434,-1224
-366,-307,58,336,-212,-124,48,463,-546,-209,-424,-1220
-366,-317,48,341,-207,-134,58,473,-546,-209,-424,-1220
-366,-317,48,341,-207,-134,68,483,-536,-209,-429,-1220
-366,-317,48,341,-207,-134,68,492,-536,-214,-434,-1224
-356,-317,39,336,-197,-139,68,497,-541,-214,-434,-1210
-361,-317,43,339,-202,-136,73,507,-541,-214,-434,-1210
-361,-322,39,341,-200,-141,78,512,-546,-209,-434,-1205
-361,-322,39,341,-200,-141,82,522,-551,-209,-434,-1200
-361,-322,39,341,-200,-141,82,527,-556,-209,-434,-1195
-361,-322,39,341,-200,-141,87,531,-551,-209,-434,-1190
-356,-322,34,339,-195,-143,87,536,-551,-209,-434,-1185
-356,-322,34,339,-195,-143,92,536,-541,-204,-434,-1180
-351,-317,34,334,-192,-141,92,541,-536,-204,-429,-1171
-346,-317,29,331,-187,-143,92,546,-536,-204,-429,-1156
-341,-322,19,331,-180,-151,92,546,-536,-204,-429,-1146
-336,-322,14,329,-175,-153,97,546,-536,-200,-429,-1137
-336,-312,24,324,-180,-143,97,531,-527,-190,-414,-1132
-336,-312,24,324,-180,-143,97,531,-531,-190,-414,-1127
-336,-317,19,326,-178,-148,92,522,-531,-190,-414,-1122
-336,-317,19,326,-178,-148,92,517,-527,-190,-414,-1117
-341,-307,34,324,-187,-136,92,512,-512,-185,-424,-1102
-341,-307,34,324,-187,-136,92,517,-512,-185,-424,-1098
-336,-307,29,322,-183,-139,97,512,-512,-185,-424,-1093
-326,-307,19,317,-173,-143,102,512,-507,-175,-419,-1088
-312,-302,9,307,-161,-146,97,512,-502,-165,-405,-1078
-307,-297,9,302,-158,-143,97,507,-497,-156,-395,-1063
-297,-297,0,297,-148,-148,97,507,-492,-156,-395,-1049
-292,-292,0,292,-146,-146,102,507,-488,-151,-390,-1034
-292,-292,0,292,-146,-146,102,502,-488,-146,-390,-1024
-292,-292,0,292,-146,-146,97,497,-488,-146,-390,-1015
-287,-287,0,287,-143,-143,97,497,-478,-146,-385,-1005
-287,-287,0,287,-143,-143,97,497,-478,-136,-385,-995
-287,-283,4,285,-146,-139,107,497,-473,-122,-375,-985
-283,-283,0,283,-141,-141,112,492,-468,-122,-375,-971
-283,-278,4,280,-143,-136,117,492,-468,-117,-375,-951
-287,-273,14,280,-151,-129,117,497,-463,-112,-375,-941
-287,-263,24,275,-156,-119,117,492,-458,-112,-361,-936
-283,-263,19,273,-151,-122,122,502,-458,-112,-356,-927
-283,-263,19,273,-151,-122,122,502,-453,-102,-351,-917
-278,-253,24,265,-151,-114,117,512,-448,-102,-351,-912
-273,-263,9,268,-141,-126,107,517,-434,-87,-346,-893
-268,-263,4,265,-136,-129,112,522,-429,-87,-351,-883
-258,-263,-4,261,-126,-134,112,527,-424,-82,-336,-873
-248,-253,-4,251,-122,-129,112,536,-419,-82,-326,-858
-248,-253,-4,251,-122,-129,117,536,-409,-82,-312,-844
-248,-248,0,248,-124,-124,117,531,-405,-73,-307,-839
-253,-248,4,251,-129,-122,117,541,-400,-68,-307,-834
-253,-248,4,251,-129,-122,117,546,-395,-63,-302,-819
-253,-239,14,246,-134,-112,122,551,-395,-58,-307,-810
-253,-239,14,246,-134,-112,122,551,-385,-58,-302,-805
-248,-239,9,244,-129,-114,122,546,-385,-53,-297,-800
-248,-234,14,241,-131,-109,126,531,-380,-48,-292,-790
-239,-229,9,234,-124,-109,126,531,-366,-39,-273,-771
-234,-229,4,231,-119,-112,126,536,-361,-29,-268,-756
-234,-229,4,231,-119,-112,126,531,-356,-19,-268,-746
-229,-229,0,229,-114,-114,126,527,-351,-14,-263,-732
-219,-214,4,217,-112,-104,136,527,-351,-9,-248,-707
-214,-214,0,214,-107,-107,136,522,-341,-9,-244,-692
-209,-214,-4,212,-102,-109,136,517,-341,-4,-239,-678
-204,-209,-4,207,-100,-107,131,517,-341,0,-229,-668
-209,-219,-9,214,-100,-114,122,502,-331,9,-229,-658
-204,-214,-9,209,-97,-112,122,497,-331,9,-229,-649
-200,-214,-14,207,-92,-114,122,492,-331,9,-229,-639
-195,-209,-14,202,-90,-112,122,478,-331,14,-229,-629
-180,-200,-19,190,-80,-109,117,463,-326,19,-219,-610
-175,-200,-24,187,-75,-112,117,463,-326,24,-209,-595
-175,-200,-24,187,-75,-112,117,468,-331,29,-200,-575
-170,-195,-24,183,-73,-109,107,473,-331,34,-190,-556
-175,-185,-9,180,-82,-97,112,463,-322,34,-195,-541
-165,-185,-19,175,-73,-102,107,458,-326,34,-190,-536
-156,-175,-19,165,-68,-97,102,458,-331,29,-190,-527
-156,-175,-19,165,-68,-97,97,453,-336,29,-190,-517
-161,-180,-19,170,-70,-100,92,453,-346,29,-180,-502
-156,-185,-29,170,-63,-107,87,458,-346,29,-170,-488
-151,-185,-34,168,-58,-109,87,453,-346,29,-170,-478
-151,-190,-39,170,-56,-114,82,458,-356,29,-170,-468
-136,-180,-43,158,-46,-112,78,458,-370,14,-180,-458
-131,-175,-43,153,-43,-109,68,463,-375,9,-180,-448
-126,-175,-48,151,-39,-112,63,453,-385,9,-180,-429
-126,-175,-48,151,-39,-112,58,458,-390,0,-180,-419
-136,-170,-34,153,-51,-102,53,458,-405,0,-185,-405
-131,-170,-39,151,-46,-104,53,458,-414,-4,-185,-395
-126,-170,-43,148,-41,-107,43,448,-429,-4,-185,-395
-126,-170,-43,148,-41,-107,39,444,-444,-4,-185,-395
-126,-165,-39,146,-43,-102,39,444,-458,-24,-195,-385
-112,-165,-53,139,-29,-109,29,439,-468,-29,-195,-375
-112,-161,-48,136,-31,-104,24,429,-473,-34,-195,-356
-112,-161,-48,136,-31,-104,24,424,-488,-39,-195,-346
-112,-170,-58,141,-26,-114,14,409,-502,-39,-195,-341
-112,-170,-58,141,-26,-114,9,400,-507,-43,-200,-336
-107,-165,-58,136,-24,-112,0,395,-517,-48,-200,-331
-107,-165,-58,136,-24,-112,-4,385,-536,-53,-204,-326
-107,-151,-43,129,-31,-97,-9,366,-541,-68,-214,-317
-102,-146,-43,124,-29,-95,-14,351,-551,-68,-214,-317
-102,-146,-43,124,-29,-95,-24,341,-561,-73,-209,-317
-107,-151,-43,129,-31,-97,-34,331,-570,-73,-209,-307
-97,-141,-43,119,-26,-92,-43,317,-580,-78,-209,-297
-97,-136,-39,117,-29,-87,-48,307,-585,-78,-209,-297
-107,-126,-19,117,-43,-73,-53,297,-585,-73,-209,-302
-112,-126,-14,119,-48,-70,-53,287,-585,-73,-209,-302
-117,-136,-19,126,-48,-78,-63,278,-595,-82,-214,-297
-126,-136,-9,131,-58,-73,-63,263,-595,-82,-219,-292
-131,-131,0,131,-65,-65,-63,258,-595,-78,-224,-287
-146,-126,19,136,-82,-53,-63,244,-605,-78,-229,-283
-136,-117,19,126,-78,-48,-58,244,-610,-87,-239,-273
-141,-117,24,129,-82,-46,-58,234,-614,-92,-239,-278
-146,-117,29,131,-87,-43,-58,229,-619,-92,-244,-283
-151,-112,39,131,-95,-36,-58,214,-619,-92,-244,-283
-151,-102,48,126,-100,-26,-43,209,-619,-97,-244,-278
-161,-107,53,134,-107,-26,-43,200,-624,-97,-244,-273
-175,-107,68,141,-122,-19,-43,190,-629,-102,-253,-278
-180,-102,78,141,-129,-12,-43,180,-629,-102,-253,-278
-185,-97,87,141,-136,-4,-43,165,-629,-97,-253,-268
-190,-97,92,143,-141,-2,-48,151,-624,-102,-253,-268
-185,-92,92,139,-139,0,-53,141,-629,-107,-263,-263
-190,-87,102,139,-146,7,-58,126,-634,-117,-268,-263
-190,-97,92,143,-141,-2,-43,107,-644,-107,-273,-258
-190,-97,92,143,-141,-2,-43,92,-644,-107,-278,-263
-190,-97,92,143,-141,-2,-34,87,-644,-107,-278,-268
-195,-97,97,146,-146,0,-34,82,-649,-107,-283,-273
-190,-87,102,139,-146,7,-43,63,-649,-112,-283,-263
-190,-87,102,139,-146,7,-39,48,-649,-112,-283,-263
-195,-87,107,141,-151,9,-39,29,-653,-112,-287,-268
-200,-92,107,146,-153,7,-39,9,-649,-112,-292,-278
-195,-97,97,146,-146,0,-39,-14,-653,-122,-283,-268
-200,-97,102,148,-151,2,-29,-39,-663,-122,-283,-263
-200,-92,107,146,-153,7,-24,-63,-668,-122,-283,-253
-204,-87,117,146,-161,14,-24,-82,-673,-122,-287,-244
-200,-87,112,143,-156,12,-34,-112,-678,-112,-287,-244
-200,-87,112,143,-156,12,-29,-126,-678,-112,-287,-239
-200,-87,112,143,-156,12,-29,-141,-678,-122,-287,-234
-209,-87,122,148,-165,17,-24,-156,-673,-126,-292,-229
-204,-82,122,143,-163,19,-34,-175,-678,-136,-283,-224
-200,-87,112,143,-156,12,-34,-195,-683,-122,-278,-219
-195,-87,107,141,-151,9,-34,-209,-688,-122,-278,-209
-190,-87,102,139,-146,7,-34,-224,-692,-122,-278,-204
-195,-82,112,139,-153,14,-29,-239,-697,-122,-273,-200
-200,-82,117,141,-158,17,-29,-239,-702,-122,-273,-195
-200,-82,117,141,-158,17,-24,-234,-702,-122,-273,-190
-200,-78,122,139,-161,21,-19,-234,-707,-122,-273,-185
-195,-87,107,141,-151,9,-29,-244,-712,-112,-268,-180
-195,-87,107,141,-151,9,-29,-244,-717,-112,-268,-180
-195,-82,112,139,-153,14,-29,-239,-722,-112,-268,-180
-195,-82,112,139,-153,14,-29,-239,-727,-112,-268,-180
-190,-82,107,136,-148,12,-29,-234,-736,-102,-268,-165
-190,-78,112,134,-151,17,-24,-229,-736,-102,-268,-161
-190,-73,117,131,-153,21,-24,-219,-736,-107,-268,-156
-190,-73,117,131,-153,21,-24,-209,-736,-107,-268,-151
-180,-73,107,126,-143,17,-29,-195,-727,-97,-263,-136
-180,-68,112,124,-146,21,-29,-190,-727,-97,-258,-126
-175,-68,107,122,-141,19,-29,-185,-727,-97,-248,-122
-175,-68,107,122,-141,19,-29,-180,-727,-92,-244,-117
-175,-68,107,122,-141,19,-19,-170,-717,-82,-244,-112
-175,-68,107,122,-141,19,-19,-170,-717,-82,-244,-107
-175,-68,107,122,-141,19,-19,-165,-717,-82,-244,-102
-175,-68,107,122,-141,19,-19,-165,-717,-82,-244,-97
-175,-68,107,122,-141,19,-14,-151,-727,-82,-244,-92
-175,-68,107,122,-141,19,-14,-146,-727,-82,-244,-87
-175,-63,112,119,-143,24,-14,-141,-717,-82,-244,-82
-175,-58,117,117,-146,29,-14,-136,-717,-78,-244,-78
-165,-48,117,107,-141,34,-4,-141,-732,-87,-229,-63
-165,-48,117,107,-141,34,-4,-146,-732,-87,-224,-53
-165,-48,117,107,-141,34,0,-151,-727,-87,-224,-48
-165,-48,117,107,-141,34,0,-156,-727,-82,-224,-43
-170,-48,122,109,-146,36,-4,-175,-727,-82,-234,-53
-170,-48,122,109,-146,36,-4,-190,-727,-82,-234,-53
-165,-48,117,107,-141,34,-9,-200,-727,-82,-234,-53
-165,-48,117,107,-141,34,-14,-209,-727,-73,-229,-53
-175,-58,117,117,-146,29,-4,-229,-717,-73,-224,-39
-175,-58,117,117,-146,29,-9,-239,-717,-73,-219,-34
-175,-58,117,117,-146,29,-9,-253,-717,-73,-214,-29
-175,-58,117,117,-146,29,-9,-263,-717,-73,-209,-24
-161,-48,112,104,-136,31,-19,-273,-717,-78,-204,-14
-156,-48,107,102,-131,29,-19,-283,-722,-78,-204,-9
-151,-48,102,100,-126,26,-19,-287,-722,-78,-204,-4
-146,-48,97,97,-122,24,-14,-292,-722,-78,-204,0
-156,-58,97,107,-126,19,-9,-312,-722,-73,-195,14
-156,-58,97,107,-126,19,-9,-322,-722,-68,-185,24
-156,-58,97,107,-126,19,-9,-331,-722,-68,-185,29
-156,-58,97,107,-126,19,-9,-336,-722,-63,-185,29
-151,-43,107,97,-129,31,-9,-346,-717,-68,-175,43
-151,-43,107,97,-129,31,-9,-356,-717,-68,-175,48
-151,-53,97,102,-124,21,-14,-370,-717,-68,-175,53
-151,-53,97,102,-124,21,-14,-385,-717,-68,-175,58
-136,-39,97,87,-117,29,-4,-405,-717,-58,-175,58
-136,-39,97,87,-117,29,-4,-419,-722,-63,-175,58
-141,-43,97,92,-119,26,0,-429,-722,-63,-175,58
-141,-43,97,92,-119,26,0,-439,-722,-63,-175,58
-141,-48,92,95,-117,21,-9,-429,-722,-73,-175,63
-136,-48,87,92,-112,19,-9,-434,-722,-73,-175,68
-136,-43,92,90,-114,24,-14,-434,-722,-73,-175,73
-141,-43,97,92,-119,26,-14,-434,-722,-73,-180,78
-136,-34,102,85,-119,34,-4,-434,-732,-63,-170,78
-136,-34,102,85,-119,34,-4,-429,-732,-63,-170,78
-136,-34,102,85,-119,34,0,-429,-732,-63,-170,78
-136,-39,97,87,-117,29,4,-424,-732,-68,-170,78
-136,-39,97,87,-117,29,0,-414,-736,-73,-170,87
-136,-34,102,85,-119,34,-9,-414,-741,-78,-175,87
-136,-29,107,82,-122,39,-14,-414,-741,-78,-175,82
-136,-29,107,82,-122,39,-19,-409,-741,-78,-185,82
-136,-19,117,78,-126,48,-9,-395,-751,-87,-185,87
-136,-19,117,78,-126,48,-9,-380,-751,-87,-185,87
-141,-19,122,80,-131,51,-9,-370,-751,-87,-185,87
-141,-19,122,80,-131,51,-9,-361,-751,-82,-185,82
-141,-29,112,85,-126,41,-9,-346,-766,-82,-185,92
-141,-24,117,82,-129,46,-9,-331,-771,-87,-190,92
-136,-24,112,80,-124,43,-9,-322,-775,-92,-195,92
-136,-29,107,82,-122,39,-9,-312,-775,-92,-204,92
-131,-19,112,75,-122,46,0,-297,-780,-92,-195,92
-131,-19,112,75,-122,46,0,-283,-785,-97,-195,92
-131,-19,112,75,-122,46,0,-268,-790,-92,-200,87
-126,-24,102,75,-114,39,0,-253,-805,-87,-200,87
-117,-19,97,68,-107,39,-9,-244,-805,-97,-200,97
-117,-24,92,70,-104,34,-9,-234,-810,-97,-200,102
-117,-24,92,70,-104,34,-9,-224,-814,-107,-200,102
-117,-19,97,68,-107,39,-9,-214,-819,-107,-200,107
-131,-19,112,75,-122,46,0,-200,-829,-117,-209,97
-136,-24,112,80,-124,43,0,-190,-829,-117,-209,97
-136,-24,112,80,-124,43,0,-190,-829,-117,-209,97
-141,-19,122,80,-131,51,0,-180,-829,-122,-209,92
-136,-19,117,78,-126,48,9,-170,-819,-122,-209,92
-131,-19,112,75,-122,46,4,-180,-824,-122,-209,97
-126,-24,102,75,-114,39,0,-180,-829,-122,-209,102
-122,-24,97,73,-109,36,0,-185,-834,-131,-209,107
-126,-19,107,73,-117,43,-4,-190,-844,-122,-219,107
-126,-19,107,73,-117,43,-4,-190,-844,-122,-219,107
-126,-19,107,73,-117,43,-4,-190,-844,-126,-219,107
-126,-19,107,73,-117,43,-4,-195,-844,-131,-224,107
-117,-14,102,65,-109,43,-4,-209,-854,-141,-219,112
-117,-14,102,65,-109,43,-4,-219,-854,-141,-219,112
-117,-14,102,65,-109,43,-4,-229,-854,-141,-214,112
-117,-19,97,68,-107,39,-4,-234,-854,-146,-209,112
-117,-19,97,68,-107,39,-4,-248,-854,-141,-204,122
-117,-19,97,68,-107,39,-4,-253,-854,-141,-204,122
-117,-19,97,68,-107,39,-4,-258,-849,-136,-209,117
-117,-19,97,68,-107,39,-4,-263,-844,-131,-214,117
-122,-19,102,70,-112,41,-4,-273,-839,-131,-204,122
-122,-24,97,73,-109,36,-4,-287,-844,-131,-204,122
-126,-29,97,78,-112,34,-4,-302,-844,-131,-204,122
-131,-39,92,85,-112,26,0,-312,-849,-131,-204,122
-122,-29,92,75,-107,31,0,-331,-858,-136,-195,122
-122,-29,92,75,-107,31,-9,-331,-858,-136,-200,122
-126,-29,97,78,-112,34,-9,-331,-863,-136,-200,122
-126,-29,97,78,-112,34,-9,-331,-863,-136,-195,122
-126,-29,97,78,-112,34,-4,-356,-868,-136,-195,131
-126,-29,97,78,-112,34,-4,-366,-868,-141,-195,131
-126,-29,97,78,-112,34,-9,-370,-868,-146,-200,126
-126,-29,97,78,-112,34,-9,-380,-873,-151,-204,126
-122,-29,92,75,-107,31,-4,-395,-878,-151,-204,126
-117,-29,87,73,-102,29,-4,-405,-878,-151,-204,126
-112,-24,87,68,-100,31,-9,-414,-873,-146,-200,131
-107,-24,82,65,-95,29,-9,-424,-873,-146,-200,131
-122,-14,107,68,-114,46,-19,-434,-883,-161,-200,131
-122,-24,97,73,-109,36,-19,-439,-883,-161,-200,131
-122,-29,92,75,-107,31,-14,-439,-888,-161,-200,131
-122,-29,92,75,-107,31,-14,-434,-888,-161,-200,131
-117,-19,97,68,-107,39,-14,-444,-897,-156,-200,131
-117,-19,97,68,-107,39,-14,-448,-893,-156,-200,131
-112,-19,92,65,-102,36,-19,-458,-893,-156,-200,131
-107,-19,87,63,-97,34,-19,-463,-893,-156,-200,126
-117,-29,87,73,-102,29,-14,-468,-888,-151,-195,131
-117,-24,92,70,-104,34,-14,-473,-888,-151,-195,136
-117,-24,92,70,-104,34,-14,-478,-888,-146,-190,141
-117,-24,92,70,-104,34,-14,-478,-893,-146,-190,146
-117,-29,87,73,-102,29,-19,-463,-888,-151,-195,146
-117,-29,87,73,-102,29,-19,-463,-888,-156,-195,146
-117,-29,87,73,-102,29,-19,-453,-893,-156,-190,146
-117,-29,87,73,-102,29,-14,-448,-893,-156,-190,151
-107,-29,78,68,-92,24,-4,-439,-893,-156,-190,161
-107,-29,78,68,-92,24,-4,-434,-893,-156,-190,161
-107,-29,78,68,-92,24,-4,-429,-897,-156,-190,156
-107,-29,78,68,-92,24,-4,-419,-897,-161,-200,156
-117,-29,87,73,-102,29,-4,-414,-897,-161,-195,156
-117,-29,87,73,-102,29,-4,-414,-897,-156,-195,156
-117,-34,82,75,-100,24,-4,-414,-897,-156,-190,156
-117,-34,82,75,-100,24,-4,-414,-897,-156,-190,156
-107,-29,78,68,-92,24,-14,-419,-897,-161,-200,156
-107,-19,87,63,-97,34,-19,-419,-897,-161,-200,156
-107,-14,92,61,-100,39,-19,-424,-897,-161,-200,156
-107,-9,97,58,-102,43,-14,-424,-902,-156,-200,156
-102,-19,82,61,-92,31,-14,-419,-902,-156,-195,161
-102,-19,82,61,-92,31,-14,-414,-902,-156,-190,161
-102,-19,82,61,-92,31,-14,-414,-902,-156,-190,161
-102,-14,87,58,-95,36,-14,-405,-902,-156,-185,151
-92,-14,78,53,-85,31,-14,-405,-893,-165,-180,156
-97,-19,78,58,-87,29,-14,-409,-893,-165,-180,161
-107,-19,87,63,-97,34,-14,-409,-897,-165,-185,165
-97,-19,78,58,-87,29,-14,-409,-897,-165,-185,170
-107,-9,97,58,-102,43,-24,-419,-907,-165,-195,161
-107,-9,97,58,-102,43,-24,-429,-907,-156,-195,161
-107,-9,97,58,-102,43,-24,-439,-907,-156,-195,161
-107,-9,97,58,-102,43,-29,-448,-907,-156,-195,161
-107,-19,87,63,-97,34,-19,-453,-907,-161,-190,165
-107,-19,87,63,-97,34,-19,-463,-912,-165,-195,165
-107,-19,87,63,-97,34,-19,-473,-912,-170,-195,161
-107,-19,87,63,-97,34,-14,-483,-907,-170,-195,161
-97,-29,68,63,-82,19,-24,-497,-917,-165,-195,165
-97,-29,68,63,-82,19,-24,-502,-917,-165,-195,165
-97,-29,68,63,-82,19,-24,-507,-917,-165,-195,161
-102,-29,73,65,-87,21,-29,-512,-922,-165,-195,161
-92,-19,73,56,-82,26,-29,-512,-927,-175,-195,170
-82,-9,73,46,-78,31,-34,-512,-927,-185,-195,170
-87,-9,78,48,-82,34,-24,-502,-927,-185,-190,165
-97,-29,68,63,-82,19,-14,-502,-927,-180,-190,165
-107,-39,68,73,-87,14,-29,-497,-927,-165,-195,165
-102,-24,78,63,-90,26,-19,-492,-936,-175,-190,175
-97,-19,78,58,-87,29,-19,-488,-936,-175,-185,175
-92,-14,78,53,-85,31,-19,-483,-936,-175,-180,175
-87,-9,78,48,-82,34,-19,-478,-936,-175,-175,175
-82,-9,73,46,-78,31,-19,-473,-936,-175,-185,175
-82,-9,73,46,-78,31,-19,-468,-932,-165,-185,175
-82,-4,78,43,-80,36,-19,-453,-932,-165,-180,175
-78,4,82,36,-80,43,-14,-444,-932,-165,-175,175
-73,4,78,34,-75,41,-14,-448,-927,-161,-170,180
-73,9,82,31,-78,46,-14,-444,-927,-151,-165,185
-73,9,82,31,-78,46,-14,-439,-927,-151,-161,195
-68,9,78,29,-73,43,-14,-439,-927,-156,-156,200
-73,24,97,24,-85,61,-9,-419,-917,-156,-151,195
-73,34,107,19,-90,70,0,-405,-917,-156,-151,195
-73,39,112,17,-92,75,4,-395,-912,-146,-146,200
-63,43,107,9,-85,75,4,-385,-912,-146,-146,204
-58,43,102,7,-80,73,4,-366,-902,-126,-136,214
-58,48,107,4,-82,78,9,-356,-893,-126,-131,214
-58,48,107,4,-82,78,14,-351,-893,-122,-126,219
-58,48,107,4,-82,78,19,-346,-897,-122,-126,219
-48,34,82,7,-65,58,9,-341,-907,-131,-117,229
-43,34,78,4,-61,56,9,-341,-907,-126,-117,234
-39,34,73,2,-56,53,14,-336,-897,-126,-117,239
-39,34,73,2,-56,53,14,-336,-897,-126,-112,239
-34,39,73,-2,-53,56,4,-346,-907,-117,-122,229
-29,53,82,-12,-56,68,-4,-341,-907,-102,-122,229
-24,68,92,-21,-58,80,-9,-336,-902,-102,-112,239
-14,92,107,-39,-61,100,-19,-331,-893,-92,-102,248
9,107,97,-58,-43,102,-48,-341,-888,-87,-87,253
14,117,102,-65,-43,109,-63,-351,-893,-82,-73,258
24,117,92,-70,-34,104,-73,-361,-907,-82,-82,258
24,107,82,-65,-29,95,-92,-370,-932,-102,-97,248
14,97,82,-56,-34,90,-97,-395,-961,-102,-97,244
9,87,78,-48,-34,82,-97,-419,-980,-126,-112,234
-4,68,73,-31,-39,70,-92,-434,-1005,-136,-126,224
-9,63,73,-26,-41,68,-87,-444,-1019,-146,-136,219
-14,34,48,-9,-31,41,-78,-444,-1010,-146,-136,229
-19,29,48,-4,-34,39,-68,-439,-1010,-146,-136,229
-19,29,48,-4,-34,39,-63,-439,-1010,-146,-136,229
-24,24,48,0,-36,36,-58,-439,-1010,-146,-136,229
-24,24,48,0,-36,36,-58,-448,-1019,-156,-136,229
-24,19,43,2,-34,31,-63,-463,-1029,-156,-146,219
-24,19,43,2,-34,31,-63,-473,-1044,-161,-146,219
-29,14,43,7,-36,29,-63,-483,-1049,-170,-151,214
-29,19,48,4,-39,34,-53,-483,-1049,-161,-151,214
-43,0,43,21,-43,21,-48,-488,-1049,-161,-151,209
-58,-4,53,31,-56,24,-48,-492,-1049,-165,-151,204
-73,-9,63,41,-68,26,-39,-497,-1054,-170,-151,195
-78,-9,68,43,-73,29,-34,-512,-1049,-170,-156,195
-82,-9,73,46,-78,31,-34,-522,-1054,-175,-156,190
-82,-14,68,48,-75,26,-34,-527,-1054,-180,-161,185
-87,-24,63,56,-75,19,-34,-536,-1058,-180,-165,180
-78,-43,34,61,-56,-4,-43,-570,-1078,-204,-175,175
-78,-48,29,63,-53,-9,-48,-585,-1093,-214,-185,170
-73,-48,24,61,-48,-12,-48,-605,-1098,-214,-190,170
-73,-48,24,61,-48,-12,-48,-614,-1102,-214,-190,170
-73,-43,29,58,-51,-7,-48,-624,-1102,-214,-180,170
-73,-43,29,58,-51,-7,-48,-624,-1107,-214,-180,165
-73,-43,29,58,-51,-7,-43,-624,-1107,-214,-175,165
-73,-43,29,58,-51,-7,-43,-624,-1102,-214,-175,165
-82,-48,34,65,-58,-7,-43,-634,-1112,-214,-180,165
-82,-48,34,65,-58,-7,-43,-629,-1117,-214,-180,161
-82,-48,34,65,-58,-7,-43,-629,-1122,-214,-185,161
-82,-48,34,65,-58,-7,-43,-639,-1122,-214,-185,161
-78,-48,29,63,-53,-9,-43,-634,-1122,-214,-175,161
-82,-48,34,65,-58,-7,-43,-639,-1122,-219,-175,161
-82,-43,39,63,-61,-2,-43,-634,-1122,-219,-175,161
-78,-43,34,61,-56,-4,-39,-629,-1117,-209,-175,165
-68,-39,29,53,-48,-4,-29,-629,-1107,-209,-170,165
-68,-39,29,53,-48,-4,-29,-634,-1102,-214,-170,165
-68,-39,29,53,-48,-4,-29,-634,-1102,-214,-175,165
-68,-34,34,51,-51,0,-29,-639,-1107,-209,-175,161
-68,-24,43,46,-56,9,-39,-649,-1112,-209,-175,161
-68,-24,43,46,-56,9,-39,-653,-1112,-209,-175,161
-68,-24,43,46,-56,9,-39,-653,-1112,-209,-175,161
-68,-24,43,46,-56,9,-29,-653,-1112,-209,-175,161
-78,-24,53,51,-65,14,-29,-658,-1102,-200,-175,151
-87,-24,63,56,-75,19,-34,-663,-1102,-200,-180,151
-87,-24,63,56,-75,19,-34,-668,-1102,-200,-180,151
-92,-24,68,58,-80,21,-34,-673,-1102,-190,-175,156
-92,-24,68,58,-80,21,-19,-673,-1102,-190,-156,156
-87,-24,63,56,-75,19,-19,-678,-1102,-190,-156,156
-87,-19,68,53,-78,24,-4,-668,-1093,-180,-156,165
-97,-14,82,56,-90,34,19,-658,-1083,-170,-156,165
-112,-4,107,58,-109,51,39,-644,-1039,-156,-156,146
-107,-4,102,56,-104,48,78,-605,-976,-126,-146,151
-112,4,117,53,-114,61,122,-527,-902,-87,-131,156
-122,9,131,56,-126,70,156,-463,-824,-53,-122,156
-122,39,161,41,-141,100,165,-419,-761,0,-92,175
-112,92,204,9,-158,148,165,-375,-688,68,-39,209
-92,146,239,-26,-165,192,175,-307,-595,161,34,248
-48,190,239,-70,-143,214,209,-219,-507,248,117,307
9,244,234,-126,-112,239,234,-156,-414,341,219,380
102,307,204,-204,-51,256,224,-141,-322,444,331,478
229,409,180,-319,24,295,122,-200,-273,575,478,614
370,546,175,-458,97,361,-92,-326,-268,707,673,800
517,736,219,-627,148,478,-312,-497,-258,883,897,1010
663,951,287,-807,187,619,-483,-619,-204,1093,1151,1229
790,1127,336,-958,226,732,-614,-717,-185,1259,1371,1424
873,1249,375,-1061,248,812,-722,-800,-195,1405,1556,1605
951,1415,463,-1183,244,939,-805,-888,-136,1610,1776,1766
1044,1590,546,-1317,248,1068,-941,-1068,-92,1795,1995,1937
1102,1742,639,-1422,231,1190,-1117,-1356,-126,1898,2156,2083
1068,1820,751,-1444,158,1285,-1224,-1629,-185,1947,2220,2137
936,1751,814,-1344,61,1283,-1195,-1781,-224,1932,2166,2078
800,1566,766,-1183,17,1166,-1112,-1825,-273,1810,2000,1912
668,1371,702,-1019,-17,1037,-1112,-1849,-429,1551,1703,1678
536,1156,619,-846,-41,888,-1146,-1873,-702,1141,1307,1390
400,902,502,-651,-51,702,-1078,-1839,-980,717,907,1107
302,746,444,-524,-70,595,-961,-1781,-1195,390,619,907
268,717,448,-492,-90,583,-902,-1742,-1356,131,414,780
258,658,400,-458,-70,529,-849,-1639,-1434,-19,278,683
253,590,336,-422,-41,463,-756,-1473,-1366,-19,234,629
234,566,331,-400,-48,448,-644,-1317,-1244,48,244,595
190,522,331,-356,-70,427,-531,-1195,-1161,82,234,556
165,444,278,-305,-56,361,-424,-1093,-1127,78,204,502
141,366,224,-253,-41,295,-351,-1039,-1088,78,180,453
122,307,185,-214,-31,246,-283,-995,-1044,97,165,424
92,239,146,-165,-26,192,-224,-946,-1000,87,161,395
68,185,117,-126,-24,151,-185,-917,-971,78,131,370
58,170,112,-114,-26,141,-146,-912,-956,63,112,356
48,156,107,-102,-29,131,-117,-917,-956,39,87,346
48,146,97,-97,-24,122,-92,-922,-976,-4,58,326
39,146,107,-92,-34,126,-78,-932,-1005,-39,19,292
24,136,112,-80,-43,124,-68,-936,-1019,-48,-9,268
-9,112,122,-51,-65,117,-63,-927,-1029,-53,-24,229
-19,73,92,-26,-56,82,-43,-927,-1029,-82,-39,214
-24,53,78,-14,-51,65,-34,-917,-1034,-112,-53,209
-29,39,68,-4,-48,53,-24,-902,-1039,-126,-73,200
-29,39,68,-4,-48,53,-24,-902,-1044,-122,-87,195
-29,39,68,-4,-48,53,-24,-878,-1049,-126,-92,180
-34,34,68,0,-51,51,-9,-839,-1049,-146,-92,180
-43,24,68,9,-56,46,4,-814,-1058,-161,-122,161
-43,24,68,9,-56,46,19,-785,-1058,-151,-141,141
-43,14,58,14,-51,36,24,-771,-1058,-141,-131,136
-53,0,53,26,-53,26,24,-751,-1063,-151,-131,141
-43,-4,39,24,-41,17,29,-741,-1054,-151,-122,141
-43,-14,29,29,-36,7,39,-736,-1054,-151,-122,146
-43,-14,29,29,-36,7,48,-732,-1044,-151,-126,151
-43,-14,29,29,-36,7,48,-727,-1044,-156,-131,151
-43,-4,39,24,-41,17,48,-732,-1034,-146,-122,141
-48,-4,43,26,-46,19,53,-722,-1029,-146,-122,136
-48,-9,39,29,-43,14,58,-717,-1029,-141,-122,136
-48,-9,39,29,-43,14,63,-707,-1029,-141,-122,136
-58,-14,43,36,-51,14,63,-712,-1024,-141,-112,136
-58,-19,39,39,-48,9,68,-717,-1019,-141,-112,136
-53,-24,29,39,-41,2,68,-722,-1019,-141,-112,136
-53,-29,24,41,-39,-2,73,-732,-1010,-136,-112,136
-53,-14,39,34,-46,12,73,-736,-1000,-136,-97,136
-53,-14,39,34,-46,12,73,-741,-995,-136,-97,141
-53,-19,34,36,-43,7,73,-751,-990,-136,-97,141
-53,-19,34,36,-43,7,78,-761,-985,-131,-97,141
-53,-19,34,36,-43,7,78,-775,-971,-122,-82,141
-53,-19,34,36,-43,7,78,-785,-971,-122,-82,141
-53,-24,29,39,-41,2,73,-805,-966,-122,-82,141
-53,-24,29,39,-41,2,73,-819,-956,-122,-82,141
-48,-14,34,31,-41,9,73,-844,-951,-117,-82,141
-48,-14,34,31,-41,9,73,-849,-951,-117,-82,141
-43,-14,29,29,-36,7,78,-863,-951,-117,-82,141
-34,-14,19,24,-26,2,82,-873,-946,-107,-78,141
-34,-14,19,24,-26,2,78,-888,-941,-107,-73,141
-34,-14,19,24,-26,2,78,-897,-936,-97,-63,146
-29,-19,9,24,-19,-4,78,-902,-932,-97,-63,151
-29,-19,9,24,-19,-4,82,-907,-927,-92,-58,156
-29,-19,9,24,-19,-4,82,-883,-927,-87,-58,146
-29,-19,9,24,-19,-4,78,-868,-927,-87,-58,146
-24,-14,9,19,-17,-2,78,-849,-917,-87,-53,146
-24,-14,9,19,-17,-2,78,-829,-917,-78,-53,146
-24,-19,4,21,-14,-7,82,-785,-912,-73,-39,156
-19,-19,0,19,-9,-9,92,-756,-907,-73,-34,161
-19,-14,4,17,-12,-4,102,-722,-907,-68,-29,170
-24,-9,14,17,-19,2,107,-683,-902,-63,-24,170
-14,-9,4,12,-9,-2,97,-634,-897,-63,-29,161
-9,-9,0,9,-4,-4,102,-590,-897,-63,-24,165
-9,-9,0,9,-4,-4,102,-556,-893,-53,-19,170
-4,0,4,2,-4,2,97,-512,-888,-53,-19,170
4,9,4,-7,0,7,107,-473,-883,-43,-14,170
4,9,4,-7,0,7,112,-444,-878,-39,-19,170
9,9,0,-9,4,4,112,-414,-873,-29,-4,170
14,19,4,-17,4,12,112,-380,-868,-24,4,175
14,19,4,-17,4,12,107,-346,-868,-34,0,185
14,24,9,-19,2,17,107,-326,-863,-24,4,185
9,24,14,-17,-2,19,107,-292,-858,-19,4,185
9,24,14,-17,-2,19,107,-263,-854,-14,9,195
9,14,4,-12,2,9,122,-244,-834,0,14,200
9,14,4,-12,2,9,122,-229,-824,0,19,200
14,14,0,-14,7,7,122,-219,-824,4,24,200
14,19,4,-17,4,12,126,-219,-819,9,29,204
24,24,0,-24,12,12,126,-200,-810,14,48,214
29,24,-4,-26,17,9,126,-185,-800,19,53,219
29,24,-4,-26,17,9,126,-180,-790,24,53,219
34,24,-9,-29,21,7,126,-175,-780,24,58,224
34,29,-4,-31,19,12,126,-165,-780,19,53,219
39,29,-9,-34,24,9,126,-170,-771,19,58,224
43,29,-14,-36,29,7,126,-175,-771,24,63,229
48,34,-14,-41,31,9,122,-175,-771,29,73,229
43,34,-9,-39,26,12,112,-165,-756,39,68,234
48,39,-9,-43,29,14,112,-165,-751,39,73,239
53,39,-14,-46,34,12,112,-165,-746,39,78,244
58,43,-14,-51,36,14,112,-175,-741,43,82,248
73,53,-19,-63,46,17,117,-180,-727,43,97,244
78,53,-24,-65,51,14,117,-180,-727,43,102,244
78,53,-24,-65,51,14,117,-175,-732,43,107,248
82,58,-24,-70,53,17,107,-170,-732,43,112,253
87,48,-39,-68,63,4,102,-170,-727,53,117,263
97,48,-48,-73,73,0,97,-175,-727,53,122,263
107,58,-48,-82,78,4,92,-175,-727,48,122,268
107,58,-48,-82,78,4,87,-180,-727,48,122,273
102,68,-34,-85,68,17,92,-185,-727,39,122,268
107,68,-39,-87,73,14,87,-185,-727,39,131,273
112,73,-39,-92,75,17,87,-195,-727,39,131,273
112,73,-39,-92,75,17,82,-195,-736,39,131,273
117,63,-53,-90,85,4,68,-214,-736,34,131,273
122,68,-53,-95,87,7,58,-219,-736,29,131,273
126,68,-58,-97,92,4,53,-239,-741,29,131,283
126,68,-58,-97,92,4,48,-244,-741,19,131,283
126,73,-53,-100,90,9,43,-253,-741,29,146,287
131,73,-58,-102,95,7,43,-263,-736,24,146,297
136,73,-63,-104,100,4,34,-283,-736,24,146,297
136,73,-63,-104,100,4,29,-297,-736,24,146,297
136,68,-68,-102,102,0,9,-307,-736,4,146,297
151,68,-82,-109,117,-7,0,-312,-741,0,146,297
151,73,-78,-112,114,-2,-4,-322,-741,-4,146,307
151,73,-78,-112,114,-2,-4,-326,-751,-9,146,307
151,78,-73,-114,112,2,-4,-317,-756,-9,146,302
151,82,-68,-117,109,7,-9,-322,-751,-14,141,297
156,92,-63,-124,109,14,-19,-322,-751,-19,141,292
156,97,-58,-126,107,19,-24,-326,-761,-24,136,287
146,92,-53,-119,100,19,-29,-317,-756,-24,136,297
151,97,-53,-124,102,21,-34,-322,-756,-19,136,297
151,97,-53,-124,102,21,-43,-322,-756,-19,141,297
146,92,-53,-119,100,19,-53,-322,-756,-14,141,307
136,92,-43,-114,90,24,-63,-317,-751,-29,141,297
136,97,-39,-117,87,29,-68,-317,-751,-29,141,297
126,107,-19,-117,73,43,-73,-317,-746,-24,141,292
122,107,-14,-114,68,46,-73,-317,-741,-24,141,292
112,107,-4,-109,58,51,-78,-317,-732,-34,151,283
107,107,0,-107,53,53,-73,-331,-722,-34,151,283
107,112,4,-109,51,58,-68,-336,-712,-29,151,283
97,117,19,-107,39,68,-63,-351,-712,-29,151,283
107,107,0,-107,53,53,-78,-356,-702,-39,141,273
102,107,4,-104,48,56,-78,-361,-702,-43,141,268
97,107,9,-102,43,58,-78,-361,-702,-43,136,263
92,112,19,-102,36,65,-78,-370,-697,-43,136,263
92,112,19,-102,36,65,-82,-375,-688,-48,146,253
82,107,24,-95,29,65,-82,-385,-683,-48,146,253
68,107,39,-87,14,73,-82,-395,-678,-53,136,244
63,112,48,-87,7,80,-82,-405,-668,-53,136,239
43,102,58,-73,-7,80,-68,-405,-658,-43,122,229
34,97,63,-65,-14,80,-68,-414,-644,-43,117,219
34,97,63,-65,-14,80,-68,-419,-639,-43,102,214
24,97,73,-61,-24,85,-68,-429,-634,-48,92,204
9,87,78,-48,-34,82,-53,-419,-619,-48,97,200
4,87,82,-46,-39,85,-53,-424,-614,-48,92,195
0,87,87,-43,-43,87,-43,-419,-610,-48,92,190
-9,87,97,-39,-53,92,-43,-414,-610,-48,87,185
-4,78,82,-36,-43,80,-43,-409,-605,-53,87,175
-4,78,82,-36,-43,80,-39,-409,-600,-53,87,175
-9,78,87,-34,-48,82,-39,-414,-600,-53,82,170
-14,73,87,-29,-51,80,-39,-419,-590,-53,78,161
-9,68,78,-29,-43,73,-43,-434,-600,-58,68,170
-14,68,82,-26,-48,75,-39,-439,-605,-63,68,165
-14,73,87,-29,-51,80,-39,-444,-605,-68,68,165
-19,78,97,-29,-58,87,-43,-444,-605,-73,63,165
-14,78,92,-31,-53,85,-34,-463,-590,-63,63,161
-14,78,92,-31,-53,85,-29,-468,-590,-63,63,161
-14,78,92,-31,-53,85,-29,-473,-590,-73,63,161
-24,78,102,-26,-63,90,-24,-478,-585,-78,58,161
-24,82,107,-29,-65,95,-24,-497,-585,-87,58,156
-24,78,102,-26,-63,90,-24,-507,-585,-73,63,151
-24,78,102,-26,-63,90,-24,-512,-585,-73,63,151
-24,78,102,-26,-63,90,-24,-517,-585,-73,63,146
-19,73,92,-26,-56,82,-29,-512,-575,-73,58,136
-24,73,97,-24,-61,85,-29,-512,-575,-73,58,136
-24,73,97,-24,-61,85,-24,-507,-570,-73,58,136
-24,78,102,-26,-63,90,-19,-507,-570,-73,58,136
-9,78,87,-34,-48,82,-29,-517,-570,-73,63,141
-9,78,87,-34,-48,82,-29,-517,-570,-73,63,141
-9,82,92,-36,-51,87,-29,-512,-570,-73,63,141
-9,82,92,-36,-51,87,-29,-512,-570,-73,63,141
-24,78,102,-26,-63,90,-29,-512,-566,-63,63,131
-24,78,102,-26,-63,90,-24,-512,-561,-63,63,131
-24,78,102,-26,-63,90,-24,-507,-556,-68,63,131
-24,73,97,-24,-61,85,-24,-502,-551,-68,63,131
-24,73,97,-24,-61,85,-29,-502,-541,-58,53,131
-24,78,102,-26,-63,90,-29,-502,-541,-58,53,136
-19,78,97,-29,-58,87,-29,-502,-541,-58,58,136
-19,78,97,-29,-58,87,-29,-502,-541,-53,58,136
-19,87,107,-34,-63,97,-19,-497,-531,-53,68,126
-19,87,107,-34,-63,97,-19,-492,-531,-53,68,126
-19,87,107,-34,-63,97,-19,-483,-531,-53,68,126
-19,87,107,-34,-63,97,-19,-478,-531,-53,68,126
-19,87,107,-34,-63,97,-24,-473,-531,-63,58,126
-19,87,107,-34,-63,97,-24,-468,-531,-63,58,126
-19,92,112,-36,-65,102,-24,-463,-522,-63,58,126
-19,97,117,-39,-68,107,-24,-458,-522,-58,58,126
-19,92,112,-36,-65,102,-34,-468,-527,-58,53,126
-19,87,107,-34,-63,97,-34,-468,-527,-58,58,131
-19,82,102,-31,-61,92,-29,-468,-522,-58,58,131
-19,78,97,-29,-58,87,-29,-468,-522,-53,58,131
-14,87,102,-36,-58,95,-29,-473,-512,-53,68,131
-14,87,102,-36,-58,95,-24,-483,-512,-53,68,131
-9,87,97,-39,-53,92,-24,-488,-512,-53,68,131
-9,87,97,-39,-53,92,-24,-492,-512,-43,73,131
0,87,87,-43,-43,87,-34,-502,-502,-43,63,131
0,87,87,-43,-43,87,-39,-512,-502,-43,63,131
0,87,87,-43,-43,87,-39,-527,-502,-43,63,131
0,87,87,-43,-43,87,-39,-536,-502,-43,63,131
-9,78,87,-34,-48,82,-34,-541,-502,-48,58,126
-9,78,87,-34,-48,82,-29,-546,-507,-48,58,126
-9,78,87,-34,-48,82,-24,-546,-507,-48,58,126
-9,78,87,-34,-48,82,-14,-546,-507,-48,58,126
-9,87,97,-39,-53,92,-9,-536,-517,-48,48,117
-9,87,97,-39,-53,92,-9,-536,-517,-48,58,122
-9,87,97,-39,-53,92,-9,-536,-517,-53,58,122
-9,87,97,-39,-53,92,-9,-531,-517,-53,58,117
-14,102,117,-43,-65,109,-14,-522,-512,-48,48,117
-14,102,117,-43,-65,109,-19,-512,-512,-48,48,117
-14,92,107,-39,-61,100,-29,-507,-512,-48,48,117
-14,92,107,-39,-61,100,-34,-502,-512,-48,48,117
-9,107,117,-48,-63,112,-24,-502,-512,-58,58,117
-9,107,117,-48,-63,112,-24,-507,-517,-63,58,117
-14,102,117,-43,-65,109,-19,-507,-517,-63,58,117
-14,102,117,-43,-65,109,-19,-507,-517,-63,58,117
-14,97,112,-41,-63,104,-19,-517,-517,-53,48,117
-9,97,107,-43,-58,102,-19,-522,-517,-53,48,117
-9,102,112,-46,-61,107,-24,-522,-517,-53,48,117
-14,102,117,-43,-65,109,-24,-522,-517,-53,43,117
-9,102,112,-46,-61,107,-34,-531,-517,-63,43,107
-9,102,112,-46,-61,107,-34,-536,-517,-63,43,107
-9,102,112,-46,-61,107,-29,-546,-517,-63,43,107
-9,97,107,-43,-58,102,-24,-551,-517,-68,43,107
-9,92,102,-41,-56,97,-24,-551,-512,-68,43,97
-9,92,102,-41,-56,97,-29,-551,-517,-68,39,97
-9,92,102,-41,-56,97,-29,-551,-517,-63,39,92
-9,87,97,-39,-53,92,-29,-546,-517,-58,29,92
-9,87,97,-39,-53,92,-29,-556,-507,-68,39,107
-9,87,97,-39,-53,92,-29,-546,-507,-68,39,107
-14,87,102,-36,-58,95,-29,-541,-507,-68,39,107
-14,87,102,-36,-58,95,-29,-536,-507,-63,39,102
-14,87,102,-36,-58,95,-29,-541,-507,-63,39,102
-14,92,107,-39,-61,100,-29,-536,-507,-68,34,102
-9,92,102,-41,-56,97,-29,-536,-507,-73,29,102
-9,87,97,-39,-53,92,-29,-536,-502,-73,19,102
-14,87,102,-36,-58,95,-29,-546,-502,-78,19,97
-14,87,102,-36,-58,95,-29,-546,-502,-87,19,92
-14,87,102,-36,-58,95,-29,-546,-502,-87,14,82
-9,82,92,-36,-51,87,-29,-546,-512,-87,14,78
-9,87,97,-39,-53,92,-29,-536,-502,-87,14,82
-9,82,92,-36,-51,87,-29,-536,-507,-87,14,82
-9,82,92,-36,-51,87,-29,-536,-512,-97,14,78
-9,87,97,-39,-53,92,-29,-536,-517,-97,14,78
-19,87,107,-34,-63,97,-29,-517,-517,-97,0,68
-19,82,102,-31,-61,92,-29,-512,-517,-97,-4,68
-14,82,97,-34,-56,90,-29,-517,-517,-97,-9,68
-14,87,102,-36,-58,95,-29,-512,-517,-102,-14,63
-24,87,112,-31,-68,100,-19,-502,-527,-102,-14,58
-24,87,112,-31,-68,100,-24,-502,-531,-102,-14,58
-24,82,107,-29,-65,95,-29,-492,-536,-102,-14,58
-24,82,107,-29,-65,95,-29,-488,-541,-112,-14,58
-19,78,97,-29,-58,87,-34,-483,-541,-112,-14,48
-19,78,97,-29,-58,87,-34,-483,-541,-112,-14,48
-19,78,97,-29,-58,87,-34,-483,-541,-117,-14,48
-19,78,97,-29,-58,87,-34,-488,-541,-122,-19,48
-19,73,92,-26,-56,82,-34,-507,-561,-122,-19,43
-19,73,92,-26,-56,82,-34,-512,-561,-122,-24,43
-19,73,92,-26,-56,82,-34,-517,-561,-122,-24,43
-19,68,87,-24,-53,78,-34,-517,-561,-126,-24,43
-29,58,87,-14,-58,73,-43,-541,-556,-131,-19,43
-29,58,87,-14,-58,73,-43,-556,-561,-131,-19,43
-29,58,87,-14,-58,73,-43,-570,-561,-126,-24,39
-29,58,87,-14,-58,73,-43,-585,-561,-122,-29,39
-39,63,102,-12,-70,82,-34,-605,-566,-122,-29,43
-34,63,97,-14,-65,80,-34,-619,-570,-122,-29,43
-34,63,97,-14,-65,80,-34,-634,-570,-122,-29,43
-34,58,92,-12,-63,75,-29,-644,-575,-122,-29,43
-34,58,92,-12,-63,75,-29,-663,-570,-126,-39,34
-34,58,92,-12,-63,75,-39,-673,-566,-126,-43,34
-39,58,97,-9,-68,78,-39,-683,-566,-126,-43,34
-39,58,97,-9,-68,78,-39,-692,-561,-126,-39,34
-29,68,97,-19,-63,82,-34,-712,-575,-126,-39,34
-29,68,97,-19,-63,82,-34,-717,-575,-131,-39,34
-29,68,97,-19,-63,82,-39,-717,-575,-136,-43,29
-29,68,97,-19,-63,82,-39,-722,-580,-141,-48,29
-19,68,87,-24,-53,78,-43,-722,-575,-131,-58,19
-19,68,87,-24,-53,78,-43,-717,-575,-131,-58,19
-19,73,92,-26,-56,82,-48,-712,-570,-126,-53,24
-19,73,92,-26,-56,82,-48,-707,-570,-126,-53,24
-24,73,97,-24,-61,85,-48,-712,-570,-131,-53,14
-24,63,87,-19,-56,75,-48,-702,-570,-131,-53,14
-24,58,82,-17,-53,70,-43,-688,-575,-131,-53,14
-24,58,82,-17,-53,70,-43,-668,-575,-131,-53,14
-24,58,82,-17,-53,70,-43,-673,-585,-136,-53,24
-29,58,87,-14,-58,73,-43,-673,-580,-136,-53,24
-29,58,87,-14,-58,73,-48,-678,-580,-136,-53,24
-29,58,87,-14,-58,73,-48,-678,-580,-136,-53,19
-29,68,97,-19,-63,82,-34,-663,-575,-141,-58,14
-29,73,102,-21,-65,87,-34,-658,-575,-141,-58,9
-29,73,102,-21,-65,87,-34,-653,-575,-136,-53,4
-29,73,102,-21,-65,87,-34,-644,-580,-136,-53,0
-19,58,78,-19,-48,68,-48,-624,-585,-141,-58,9
-19,58,78,-19,-48,68,-48,-619,-585,-146,-58,9
-19,58,78,-19,-48,68,-48,-605,-590,-146,-53,9
-19,58,78,-19,-48,68,-43,-595,-590,-146,-53,14
-19,58,78,-19,-48,68,-34,-580,-590,-146,-53,4
-19,58,78,-19,-48,68,-34,-580,-590,-146,-53,4
-19,58,78,-19,-48,68,-34,-580,-595,-146,-53,0
-19,58,78,-19,-48,68,-34,-575,-595,-151,-63,0
-29,58,87,-14,-58,73,-43,-580,-600,-141,-78,-9
-29,58,87,-14,-58,73,-43,-580,-605,-136,-78,-9
-29,53,82,-12,-56,68,-43,-580,-610,-136,-73,-9
-29,53,82,-12,-56,68,-43,-580,-614,-136,-73,-9
-29,53,82,-12,-56,68,-43,-575,-614,-141,-63,-9
-29,58,87,-14,-58,73,-48,-575,-614,-141,-63,-9
-29,58,87,-14,-58,73,-48,-580,-614,-141,-63,-9
-29,58,87,-14,-58,73,-43,-580,-619,-136,-63,-9
-34,58,92,-12,-63,75,-43,-575,-619,-136,-63,-4
-34,58,92,-12,-63,75,-43,-570,-619,-136,-63,-4
-34,58,92,-12,-63,75,-43,-570,-619,-136,-68,-4
-34,63,97,-14,-65,80,-43,-561,-619,-136,-68,-14
-24,63,87,-19,-56,75,-53,-561,-624,-146,-63,-14
-29,58,87,-14,-58,73,-53,-566,-629,-146,-63,-14
-39,58,97,-9,-68,78,-53,-566,-639,-146,-68,-14
-29,58,87,-14,-58,73,-53,-566,-644,-146,-68,-14
-19,68,87,-24,-53,78,-43,-566,-653,-156,-68,-14
-19,68,87,-24,-53,78,-43,-566,-653,-146,-68,-14
-19,68,87,-24,-53,78,-43,-566,-653,-146,-68,-14
-19,68,87,-24,-53,78,-48,-566,-653,-146,-68,-14
-29,68,97,-19,-63,82,-48,-575,-663,-151,-73,-19
-29,68,97,-19,-63,82,-48,-580,-668,-156,-78,-19
-29,68,97,-19,-63,82,-48,-585,-668,-161,-78,-24
-29,68,97,-19,-63,82,-43,-590,-663,-161,-78,-24
-19,68,87,-24,-53,78,-53,-600,-673,-146,-78,-19
-19,68,87,-24,-53,78,-53,-600,-673,-146,-78,-19
-19,68,87,-24,-53,78,-53,-600,-673,-146,-78,-24
-24,68,92,-21,-58,80,-58,-600,-678,-146,-78,-24
-34,58,92,-12,-63,75,-48,-600,-692,-146,-78,-24
-34,58,92,-12,-63,75,-43,-600,-692,-146,-78,-24
-29,58,87,-14,-58,73,-43,-600,-692,-146,-73,-19
-29,58,87,-14,-58,73,-43,-600,-692,-141,-73,-19
-24,68,92,-21,-58,80,-43,-585,-692,-141,-82,-29
-24,68,92,-21,-58,80,-43,-580,-692,-141,-82,-29
-19,68,87,-24,-53,78,-43,-575,-692,-141,-82,-29
-19,68,87,-24,-53,78,-43,-570,-692,-141,-82,-29
-29,63,92,-17,-61,78,-48,-556,-702,-151,-82,-34
-29,68,97,-19,-63,82,-48,-551,-702,-151,-82,-34
-29,63,92,-17,-61,78,-43,-546,-697,-156,-82,-29
-29,63,92,-17,-61,78,-43,-541,-697,-156,-82,-29
-19,63,82,-21,-51,73,-43,-527,-697,-151,-82,-29
-19,63,82,-21,-51,73,-43,-522,-702,-151,-82,-29
-19,63,82,-21,-51,73,-43,-512,-712,-151,-78,-29
-19,63,82,-21,-51,73,-43,-507,-712,-151,-78,-29
-19,63,82,-21,-51,73,-43,-497,-707,-151,-78,-39
-19,68,87,-24,-53,78,-43,-492,-707,-151,-78,-43
-19,73,92,-26,-56,82,-43,-488,-712,-151,-78,-43
-19,78,97,-29,-58,87,-48,-483,-712,-151,-87,-43
-19,73,92,-26,-56,82,-39,-483,-717,-151,-87,-48
-19,73,92,-26,-56,82,-39,-478,-717,-151,-87,-48
-19,78,97,-29,-58,87,-39,-478,-717,-151,-87,-48
-19,78,97,-29,-58,87,-39,-478,-722,-151,-87,-48
-19,78,97,-29,-58,87,-39,-497,-722,-141,-78,-48
-19,78,97,-29,-58,87,-39,-507,-732,-151,-82,-48
-9,87,97,-39,-53,92,-39,-522,-732,-151,-82,-48
-19,87,107,-34,-63,97,-39,-541,-732,-151,-92,-48
-39,58,97,-9,-68,78,-39,-556,-741,-156,-97,-58
-34,68,102,-17,-68,85,-48,-561,-741,-156,-92,-48
-29,68,97,-19,-63,82,-48,-566,-741,-156,-87,-48
-24,68,92,-21,-58,80,-48,-570,-741,-156,-82,-48
-19,68,87,-24,-53,78,-48,-575,-741,-156,-78,-48
-14,78,92,-31,-53,85,-48,-585,-741,-156,-82,-48
-14,78,92,-31,-53,85,-48,-585,-736,-146,-87,-48
-14,82,97,-34,-56,90,-48,-575,-736,-146,-87,-48
-9,92,102,-41,-56,97,-43,-570,-736,-146,-87,-48
-4,92,97,-43,-51,95,-43,-570,-732,-131,-78,-48
-4,97,102,-46,-53,100,-43,-570,-732,-122,-78,-48
-4,97,102,-46,-53,100,-43,-570,-732,-122,-78,-43
0,97,97,-48,-48,97,-43,-575,-732,-126,-78,-43
4,102,97,-53,-46,100,-39,-575,-732,-126,-73,-39
4,112,107,-58,-51,109,-29,-570,-732,-126,-73,-39
4,117,112,-61,-53,114,-24,-570,-727,-117,-68,-34
14,122,107,-68,-46,114,-24,-570,-727,-117,-68,-29
9,131,122,-70,-56,126,-24,-570,-727,-107,-68,-29
9,136,126,-73,-58,131,-19,-570,-717,-107,-63,-29
9,136,126,-73,-58,131,-14,-575,-717,-102,-58,-24
9,136,126,-73,-58,131,-9,-580,-722,-102,-58,-24
9,131,122,-70,-56,126,0,-585,-722,-112,-48,-24
14,131,117,-73,-51,124,0,-585,-722,-107,-48,-19
19,131,112,-75,-46,122,4,-580,-712,-107,-48,-14
19,131,112,-75,-46,122,4,-580,-712,-107,-43,-14
24,122,97,-73,-36,109,-4,-595,-722,-107,-43,-24
29,131,102,-80,-36,117,-14,-595,-722,-92,-43,-24
34,141,107,-87,-36,124,-19,-595,-717,-92,-34,-14
43,161,117,-102,-36,139,-29,-595,-707,-82,-24,-4
68,185,117,-126,-24,151,-48,-605,-697,-68,0,9
73,195,122,-134,-24,158,-63,-605,-697,-63,14,14
82,195,112,-139,-14,153,-73,-605,-707,-63,4,14
82,185,102,-134,-9,143,-92,-605,-727,-82,-9,4
78,185,107,-131,-14,146,-122,-610,-746,-82,-19,0
78,175,97,-126,-9,136,-126,-624,-766,-107,-34,-9
68,156,87,-112,-9,122,-126,-629,-790,-117,-48,-19
68,151,82,-109,-7,117,-126,-629,-805,-126,-58,-24
63,122,58,-92,2,90,-112,-624,-795,-126,-58,-24
58,117,58,-87,0,87,-97,-614,-795,-126,-58,-24
58,117,58,-87,0,87,-87,-610,-795,-126,-58,-24
53,112,58,-82,-2,85,-78,-605,-795,-126,-58,-24
53,112,58,-82,-2,85,-78,-600,-800,-126,-58,-24
53,107,53,-80,0,80,-82,-600,-805,-126,-68,-34
53,107,53,-80,0,80,-82,-595,-814,-131,-68,-34
48,102,53,-75,-2,78,-82,-590,-814,-141,-73,-39
39,107,68,-73,-14,87,-73,-585,-824,-141,-78,-39
24,87,63,-56,-19,75,-68,-585,-824,-141,-82,-43
9,82,73,-46,-31,78,-68,-585,-824,-146,-87,-48
-4,78,82,-36,-43,80,-58,-585,-829,-151,-92,-58
-9,68,78,-29,-43,73,-63,-575,-834,-151,-87,-68
-14,68,82,-26,-48,75,-63,-580,-839,-156,-87,-73
-14,63,78,-24,-46,70,-63,-580,-839,-161,-92,-78
-19,53,73,-17,-46,63,-63,-585,-844,-161,-97,-82
-29,53,82,-12,-56,68,-63,-610,-868,-185,-107,-87
-29,48,78,-9,-53,63,-68,-614,-878,-195,-117,-92
-24,48,73,-12,-48,61,-68,-624,-878,-195,-122,-92
-24,48,73,-12,-48,61,-68,-624,-878,-195,-122,-92
-14,43,58,-14,-36,51,-78,-644,-878,-195,-122,-92
-14,43,58,-14,-36,51,-78,-653,-883,-195,-122,-97
-14,43,58,-14,-36,51,-73,-663,-883,-195,-117,-97
-14,43,58,-14,-36,51,-73,-673,-878,-195,-117,-97
-14,48,63,-17,-39,56,-73,-688,-878,-195,-122,-107
-14,48,63,-17,-39,56,-73,-688,-883,-195,-122,-112
-14,48,63,-17,-39,56,-73,-692,-888,-195,-126,-112
-14,48,63,-17,-39,56,-73,-707,-888,-195,-126,-112
-29,39,68,-4,-48,53,-82,-712,-888,-204,-136,-112
-34,39,73,-2,-53,56,-82,-727,-888,-209,-136,-112
-34,43,78,-4,-56,61,-82,-732,-888,-209,-136,-112
-29,43,73,-7,-51,58,-78,-736,-883,-200,-136,-107
-29,48,78,-9,-53,63,-73,-741,-883,-190,-131,-117
-29,48,78,-9,-53,63,-68,-751,-878,-195,-131,-117
-29,48,78,-9,-53,63,-63,-756,-878,-195,-136,-117
-29,53,82,-12,-56,68,-58,-766,-883,-190,-136,-122
-29,53,82,-12,-56,68,-68,-785,-897,-200,-136,-122
-29,53,82,-12,-56,68,-68,-800,-897,-200,-136,-122
-29,53,82,-12,-56,68,-68,-810,-897,-200,-136,-122
-29,53,82,-12,-56,68,-58,-819,-897,-200,-136,-122
-29,43,73,-7,-51,58,-68,-834,-907,-200,-136,-131
-39,43,82,-2,-61,63,-73,-849,-907,-200,-141,-131
-39,43,82,-2,-61,63,-73,-863,-907,-200,-141,-131
-43,43,87,0,-65,65,-73,-878,-907,-190,-136,-126
-34,53,87,-9,-61,70,-68,-897,-907,-190,-136,-126
-29,63,92,-17,-61,78,-58,-902,-897,-170,-136,-126
-39,58,97,-9,-68,78,-43,-902,-897,-170,-126,-126
-39,53,92,-7,-65,73,-39,-902,-888,-180,-126,-126
-53,53,107,0,-80,80,-29,-897,-883,-175,-126,-117
-58,63,122,-2,-90,92,-9,-888,-849,-165,-126,-122
-73,73,146,0,-109,109,24,-858,-805,-126,-131,-136
-82,78,161,2,-122,119,68,-785,-746,-102,-102,-146
-102,78,180,12,-141,129,117,-692,-673,-68,-92,-136
-102,82,185,9,-143,134,146,-619,-619,-39,-87,-141
-92,126,219,-17,-156,173,146,-580,-556,24,-53,-122
-58,190,248,-65,-153,219,131,-502,-458,112,19,-73
-9,253,263,-122,-136,258,175,-390,-366,204,102,-9
43,297,253,-170,-104,275,214,-287,-273,297,185,48
112,331,219,-222,-53,275,219,-248,-204,370,273,136
214,400,185,-307,14,292,170,-248,-122,483,400,244
361,512,151,-436,104,331,19,-312,-82,610,566,395
536,678,141,-607,197,409,-219,-453,-68,761,771,595
683,893,209,-788,236,551,-429,-590,9,976,1010,810
824,1093,268,-958,278,680,-575,-692,68,1171,1244,1019
951,1239,287,-1095,331,763,-688,-800,48,1298,1424,1190
1063,1366,302,-1215,380,834,-785,-873,53,1444,1615,1361
1161,1517,356,-1339,402,936,-893,-985,136,1644,1844,1556
1244,1664,419,-1454,412,1041,-1068,-1220,136,1790,2034,1727
1259,1790,531,-1525,363,1161,-1234,-1507,68,1864,2156,1825
1161,1820,658,-1490,251,1239,-1268,-1717,29,1888,2176,1844
1000,1693,692,-1346,153,1193,-1200,-1820,0,1815,2064,1727
849,1488,639,-1168,104,1063,-1166,-1854,-87,1629,1815,1498
722,1322,600,-1022,61,961,-1215,-1878,-307,1312,1473,1244
585,1098,512,-841,36,805,-1205,-1859,-610,888,1078,966
463,873,409,-668,26,641,-1078,-1790,-858,512,727,712
395,766,370,-580,12,568,-995,-1747,-1054,253,512,556
361,727,366,-544,-2,546,-941,-1678,-1200,68,361,453
331,653,322,-492,4,488,-858,-1522,-1224,-9,263,370
317,619,302,-468,7,461,-746,-1322,-1122,34,253,322
283,590,307,-436,-12,448,-610,-1161,-1019,87,253,287
248,522,273,-385,-12,397,-497,-1029,-971,87,229,239
200,434,234,-317,-17,334,-419,-946,-946,78,195,190
170,366,195,-268,-12,280,-351,-888,-902,87,170,161
146,322,175,-234,-14,248,-292,-839,-873,78,141,126
117,258,141,-187,-12,200,-234,-795,-858,63,122,92
87,214,126,-151,-19,170,-185,-761,-839,48,97,63
68,195,126,-131,-29,161,-161,-756,-849,34,68,43
68,204,136,-136,-34,170,-136,-756,-868,0,48,19
53,195,141,-124,-43,168,-117,-751,-883,-19,9,4
29,170,141,-100,-56,156,-102,-761,-893,-34,-14,-14
29,161,131,-95,-51,146,-102,-780,-922,-63,-39,-39
14,151,136,-82,-61,143,-92,-790,-946,-92,-63,-63
0,126,126,-63,-63,126,-92,-805,-951,-117,-92,-92
-9,107,117,-48,-63,112,-82,-824,-966,-122,-107,-117
-9,78,87,-34,-48,82,-63,-819,-971,-146,-122,-122
-24,63,87,-19,-56,75,-48,-800,-971,-146,-122,-112
-24,73,97,-24,-61,85,-24,-775,-961,-141,-122,-122
-24,82,107,-29,-65,95,-9,-746,-951,-141,-131,-131
-43,63,107,-9,-75,85,-4,-732,-961,-141,-131,-136
-63,48,112,7,-87,80,-4,-722,-956,-131,-131,-141
-53,53,107,0,-80,80,-9,-717,-966,-136,-141,-156
-53,43,97,4,-75,70,0,-707,-966,-141,-141,-156
-53,43,97,4,-75,70,9,-697,-956,-146,-146,-156
-53,43,97,4,-75,70,9,-688,-956,-156,-151,-161
-43,34,78,4,-61,56,19,-692,-956,-156,-151,-170
-48,34,82,7,-65,58,24,-683,-951,-156,-151,-175
-48,29,78,9,-63,53,29,-678,-951,-151,-151,-175
-48,29,78,9,-63,53,34,-668,-951,-151,-151,-175
-48,39,87,4,-68,63,43,-649,-946,-151,-161,-175
-48,39,87,4,-68,63,48,-639,-941,-151,-161,-175
-43,39,82,2,-63,61,48,-629,-941,-151,-161,-175
-43,39,82,2,-63,61,53,-624,-932,-146,-161,-175
-43,53,97,-4,-70,75,53,-614,-917,-146,-156,-180
-43,53,97,-4,-70,75,53,-605,-917,-146,-156,-180
-43,48,92,-2,-68,70,53,-600,-917,-146,-156,-185
-43,48,92,-2,-68,70,58,-595,-917,-141,-156,-190
-53,43,97,4,-75,70,58,-590,-907,-141,-151,-180
-53,39,92,7,-73,65,58,-590,-912,-141,-151,-180
-53,29,82,12,-68,56,53,-600,-912,-141,-151,-180
-53,24,78,14,-65,51,53,-605,-907,-141,-151,-180
-53,43,97,4,-75,70,53,-614,-902,-136,-141,-180
-48,43,92,2,-70,68,53,-614,-902,-136,-141,-180
-39,43,82,-2,-61,63,58,-624,-902,-136,-141,-180
-24,43,68,-9,-46,56,63,-629,-897,-126,-136,-180
-34,43,78,-4,-56,61,68,-629,-902,-126,-131,-180
-34,43,78,-4,-56,61,68,-634,-897,-117,-122,-175
-29,39,68,-4,-48,53,68,-634,-893,-117,-122,-170
-29,39,68,-4,-48,53,73,-634,-888,-112,-117,-165
-29,39,68,-4,-48,53,73,-610,-888,-107,-117,-165
-29,39,68,-4,-48,53,68,-605,-888,-107,-117,-165
-24,43,68,-9,-46,56,68,-595,-878,-107,-112,-165
-24,43,68,-9,-46,56,68,-585,-878,-97,-112,-165
-14,39,53,-12,-34,46,68,-546,-873,-92,-92,-165
-9,39,48,-14,-29,43,73,-522,-868,-92,-92,-161
-9,43,53,-17,-31,48,78,-492,-868,-87,-92,-151
-14,48,63,-17,-39,56,78,-458,-863,-82,-92,-151
-14,48,63,-17,-39,56,78,-429,-868,-82,-78,-151
-9,48,58,-19,-34,53,82,-395,-868,-82,-73,-146
-9,48,58,-19,-34,53,82,-370,-863,-73,-68,-141
-4,58,63,-26,-34,61,78,-336,-858,-73,-68,-141
-4,58,63,-26,-34,61,78,-302,-854,-58,-58,-141
-4,58,63,-26,-34,61,82,-268,-849,-58,-68,-141
0,58,58,-29,-29,58,82,-234,-844,-53,-58,-141
4,68,63,-36,-29,65,82,-195,-839,-53,-53,-136
4,68,63,-36,-29,65,87,-165,-819,-43,-48,-136
4,73,68,-39,-31,70,87,-151,-814,-34,-43,-136
0,73,73,-36,-36,73,87,-122,-810,-29,-43,-136
0,73,73,-36,-36,73,87,-97,-805,-24,-39,-126
19,73,53,-46,-17,63,102,-87,-785,-19,-24,-112
19,73,53,-46,-17,63,102,-73,-775,-19,-19,-112
24,73,48,-48,-12,61,102,-63,-775,-14,-14,-112
24,78,53,-51,-14,65,107,-63,-771,-9,-9,-107
24,82,58,-53,-17,70,97,-63,-756,-4,0,-107
29,82,53,-56,-12,68,97,-68,-751,0,4,-102
29,82,53,-56,-12,68,97,-82,-746,4,4,-102
34,82,48,-58,-7,65,97,-97,-741,4,9,-97
34,97,63,-65,-14,80,97,-102,-732,9,14,-92
39,97,58,-68,-9,78,97,-112,-722,9,19,-87
43,97,53,-70,-4,75,97,-122,-722,14,24,-82
48,102,53,-75,-2,78,92,-126,-722,19,34,-82
53,112,58,-82,-2,85,92,-141,-712,19,39,-78
58,117,58,-87,0,87,92,-146,-712,19,43,-73
63,117,53,-90,4,85,92,-151,-712,19,48,-68
68,122,53,-95,7,87,92,-165,-712,24,53,-63
82,122,39,-102,21,80,87,-165,-697,24,48,-58
87,122,34,-104,26,78,87,-161,-697,24,53,-58
87,122,34,-104,26,78,87,-151,-702,24,58,-53
92,126,34,-109,29,80,78,-141,-702,24,63,-48
87,117,29,-102,29,73,73,-131,-712,24,68,-39
97,117,19,-107,39,68,68,-126,-717,24,73,-39
107,126,19,-117,43,73,63,-117,-722,19,73,-34
107,126,19,-117,43,73,58,-112,-727,19,73,-29
102,126,24,-114,39,75,63,-97,-727,19,73,-34
107,126,19,-117,43,73,58,-87,-727,19,82,-29
112,131,19,-122,46,75,58,-87,-727,19,82,-29
112,131,19,-122,46,75,53,-78,-736,19,82,-29
122,141,19,-131,51,80,39,-63,-732,14,92,-19
131,146,14,-139,58,80,29,-43,-736,9,92,-19
141,146,4,-143,68,75,24,-39,-746,9,92,-9
146,146,0,-146,73,73,19,-19,-751,0,92,-9
146,141,-4,-143,75,68,14,0,-751,0,97,-14
151,141,-9,-146,80,65,14,19,-756,-4,97,-4
156,141,-14,-148,85,63,4,29,-766,-4,97,-4
156,141,-14,-148,85,63,0,43,-775,-4,97,-4
151,146,-4,-148,78,70,0,58,-780,-4,107,-4
161,146,-14,-153,87,65,-9,58,-780,-9,107,-4
156,151,-4,-153,80,73,-14,53,-775,-14,107,4
151,151,0,-151,75,75,-14,53,-780,-19,107,4
161,161,0,-161,80,80,-34,53,-785,-9,117,14
161,161,0,-161,80,80,-39,48,-780,-14,112,14
165,165,0,-165,82,82,-48,48,-780,-19,112,14
165,165,0,-165,82,82,-53,43,-790,-24,107,14
165,170,4,-168,80,87,-58,24,-800,-29,107,14
170,175,4,-173,82,90,-63,9,-805,-29,107,14
170,175,4,-173,82,90,-73,0,-810,-34,112,14
165,170,4,-168,80,87,-82,-9,-814,-34,112,24
165,161,-4,-163,85,78,-92,-29,-810,-48,122,24
165,165,0,-165,82,82,-97,-43,-810,-48,122,24
156,175,19,-165,68,97,-102,-58,-805,-43,122,19
151,175,24,-163,63,100,-102,-73,-800,-43,122,19
151,175,24,-163,63,100,-112,-82,-790,-34,122,19
146,175,29,-161,58,102,-112,-97,-780,-34,122,19
146,180,34,-163,56,107,-112,-102,-771,-29,122,19
136,185,48,-161,43,117,-112,-117,-771,-29,122,19
126,185,58,-156,34,122,-117,-126,-756,-29,122,9
122,185,63,-153,29,124,-117,-136,-751,-34,122,4
117,185,68,-151,24,126,-117,-141,-746,-34,117,0
112,190,78,-151,17,134,-117,-156,-736,-34,117,0
102,190,87,-146,7,139,-112,-156,-722,-19,126,-9
92,185,92,-139,0,139,-112,-161,-712,-19,126,-9
78,185,107,-131,-14,146,-112,-165,-702,-24,117,-19
73,190,117,-131,-21,153,-112,-170,-688,-24,117,-24
73,180,107,-126,-17,143,-107,-170,-668,-24,117,-19
63,175,112,-119,-24,143,-107,-170,-653,-24,117,-24
63,175,112,-119,-24,143,-107,-165,-649,-24,107,-24
53,175,122,-114,-34,148,-107,-165,-644,-29,102,-29
39,175,136,-107,-48,156,-92,-161,-629,-29,97,-43
34,175,141,-104,-53,158,-92,-170,-614,-29,92,-48
29,175,146,-102,-58,161,-82,-170,-600,-29,92,-53
19,175,156,-97,-68,165,-82,-170,-590,-29,87,-58
24,175,151,-100,-63,163,-92,-175,-575,-34,87,-58
24,175,151,-100,-63,163,-87,-175,-561,-34,87,-58
19,175,156,-97,-68,165,-87,-180,-551,-34,82,-63
14,170,156,-92,-70,163,-87,-185,-531,-34,78,-73
0,161,161,-80,-80,161,-78,-175,-522,-34,78,-82
-4,156,161,-75,-82,158,-68,-175,-517,-34,78,-87
-4,156,161,-75,-82,158,-63,-175,-507,-34,78,-87
-9,156,165,-73,-87,161,-63,-170,-497,-34,73,-87
-4,156,161,-75,-82,158,-63,-161,-483,-24,73,-82
-4,156,161,-75,-82,158,-58,-156,-473,-24,73,-82
-4,156,161,-75,-82,158,-58,-151,-463,-34,73,-82
-14,156,170,-70,-92,163,-53,-146,-448,-39,68,-82
-14,161,175,-73,-95,168,-53,-141,-439,-48,68,-92
-14,156,170,-70,-92,163,-53,-136,-429,-34,73,-92
-14,156,170,-70,-92,163,-53,-126,-419,-34,73,-87
-14,156,170,-70,-92,163,-53,-117,-409,-34,73,-87
-9,141,151,-65,-80,146,-58,-112,-400,-34,58,-87
-14,141,156,-63,-85,148,-58,-102,-390,-34,58,-87
-14,141,156,-63,-85,148,-53,-87,-375,-34,58,-87
-14,146,161,-65,-87,153,-48,-78,-366,-34,58,-87
-9,146,156,-68,-82,151,-58,-68,-356,-34,53,-92
-9,146,156,-68,-82,151,-58,-58,-346,-34,53,-92
-9,151,161,-70,-85,156,-58,-43,-336,-34,53,-92
-9,151,161,-70,-85,156,-58,-34,-326,-34,53,-92
-24,146,170,-61,-97,158,-58,-34,-307,-34,53,-92
-24,146,170,-61,-97,158,-53,-34,-297,-34,53,-92
-24,146,170,-61,-97,158,-53,-29,-287,-39,53,-92
-24,141,165,-58,-95,153,-53,-24,-278,-39,53,-92
-24,146,170,-61,-97,158,-48,-14,-258,-34,63,-82
-24,156,180,-65,-102,168,-48,-14,-239,-29,63,-78
-19,161,180,-70,-100,170,-48,-14,-219,-24,68,-78
-19,165,185,-73,-102,175,-48,-14,-200,-14,68,-78
-9,161,170,-75,-90,165,-48,-14,-180,-24,58,-78
-9,156,165,-73,-87,161,-48,-14,-161,-24,58,-78
-9,151,161,-70,-85,156,-48,-9,-141,-24,58,-78
-9,146,156,-68,-82,151,-48,-9,-122,-24,58,-78
-19,146,165,-63,-92,156,-53,0,-107,-14,68,-87
-19,146,165,-63,-92,156,-53,0,-92,-14,68,-87
-19,151,170,-65,-95,161,-53,0,-68,-14,68,-87
-19,156,175,-68,-97,165,-53,0,-53,-9,68,-87
-9,156,165,-73,-87,161,-53,0,-34,-19,63,-78
-9,156,165,-73,-87,161,-53,0,-19,-19,68,-73
-9,156,165,-73,-87,161,-48,0,0,-19,68,-73
-9,156,165,-73,-87,161,-48,0,14,-14,68,-73
-14,146,161,-65,-87,153,-39,4,39,-14,68,-73
-14,146,161,-65,-87,153,-34,4,53,-14,68,-73
-9,146,156,-68,-82,151,-34,9,68,-14,68,-73
-9,146,156,-68,-82,151,-34,14,82,-4,73,-73
-19,156,175,-68,-97,165,-43,24,97,-4,63,-73
-19,156,175,-68,-97,165,-48,24,112,-4,63,-73
-19,156,175,-68,-97,165,-48,19,126,-4,63,-73
-19,156,175,-68,-97,165,-48,19,141,-4,63,-73
-9,146,156,-68,-82,151,-48,24,156,-9,68,-78
-9,146,156,-68,-82,151,-48,19,165,-9,68,-78
-9,146,156,-68,-82,151,-48,19,180,-9,68,-78
-9,146,156,-68,-82,151,-43,19,195,-9,68,-78
-9,156,165,-73,-87,161,-39,29,214,0,68,-68
-9,156,165,-73,-87,161,-39,29,224,0,78,-63
-9,156,165,-73,-87,161,-39,29,234,-4,78,-63
-9,156,165,-73,-87,161,-39,34,244,-4,78,-68
-14,151,165,-68,-90,158,-39,39,258,0,68,-68
-14,151,165,-68,-90,158,-39,43,268,0,68,-68
-14,141,156,-63,-85,148,-43,43,278,0,68,-68
-14,141,156,-63,-85,148,-43,43,287,0,68,-68
-9,146,156,-68,-82,151,-43,53,307,9,78,-68
-9,146,156,-68,-82,151,-43,48,312,4,78,-68
-14,141,156,-63,-85,148,-39,48,322,4,78,-68
-14,141,156,-63,-85,148,-39,48,331,4,78,-68
-4,146,151,-70,-78,148,-29,39,351,4,78,-68
0,146,146,-73,-73,146,-29,34,361,4,78,-68
0,151,151,-75,-75,151,-34,34,370,4,78,-68
-4,151,156,-73,-80,153,-34,34,380,4,73,-68
-19,146,165,-63,-92,156,-34,29,390,4,73,-68
-19,141,161,-61,-90,151,-34,29,400,4,73,-68
-19,136,156,-58,-87,146,-29,24,409,4,73,-68
-19,126,146,-53,-82,136,-24,24,419,0,73,-68
-19,131,151,-56,-85,141,-24,14,439,4,73,-58
-19,131,151,-56,-85,141,-29,14,448,0,68,-58
-19,131,151,-56,-85,141,-29,14,463,0,68,-63
-19,126,146,-53,-82,136,-29,19,478,0,58,-63
-9,117,126,-53,-68,122,-29,9,492,0,63,-58
-9,117,126,-53,-68,122,-29,9,497,0,68,-58
-14,117,131,-51,-73,124,-29,4,502,0,73,-58
-14,117,131,-51,-73,124,-29,0,507,4,78,-63
-14,107,122,-46,-68,114,-29,0,512,-4,78,-73
-14,112,126,-48,-70,119,-29,0,517,-9,73,-73
-9,112,122,-51,-65,117,-29,-4,522,-14,68,-73
-9,107,117,-48,-63,112,-29,-9,531,-14,58,-73
-24,107,131,-41,-78,119,-29,0,546,-14,58,-73
-24,107,131,-41,-78,119,-29,0,551,-19,58,-73
-24,107,131,-41,-78,119,-29,0,556,-14,53,-78
-19,102,122,-41,-70,112,-29,0,551,-9,53,-78
-19,87,107,-34,-63,97,-19,9,561,-19,43,-73
-19,82,102,-31,-61,92,-19,19,566,-19,43,-73
-19,82,102,-31,-61,92,-19,29,570,-29,43,-78
-19,87,107,-34,-63,97,-19,39,575,-29,43,-78
-19,97,117,-39,-68,107,-29,63,600,-29,43,-78
-19,92,112,-36,-65,102,-29,73,614,-29,43,-78
-14,92,107,-39,-61,100,-29,73,629,-29,43,-78
-14,97,112,-41,-63,104,-29,82,644,-34,43,-82
-14,87,102,-36,-58,95,-19,92,673,-34,43,-78
-14,87,102,-36,-58,95,-24,92,688,-34,43,-78
-14,82,97,-34,-56,90,-29,102,702,-34,43,-78
-14,82,97,-34,-56,90,-29,107,717,-43,43,-78
-29,68,97,-19,-63,82,-24,117,732,-34,43,-78
-29,68,97,-19,-63,82,-24,122,746,-34,43,-78
-29,68,97,-19,-63,82,-24,126,761,-39,43,-78
-29,68,97,-19,-63,82,-24,126,775,-43,39,-78
-29,63,92,-17,-61,78,-24,122,790,-43,39,-82
-29,63,92,-17,-61,78,-24,122,805,-43,34,-82
-29,63,92,-17,-61,78,-24,122,819,-43,34,-82
-29,58,87,-14,-58,73,-24,126,834,-48,34,-82
-29,58,87,-14,-58,73,-14,122,839,-53,39,-82
-29,58,87,-14,-58,73,-14,117,844,-53,39,-82
-29,58,87,-14,-58,73,-14,112,854,-48,34,-87
-29,58,87,-14,-58,73,-14,107,863,-43,29,-87
-29,53,82,-12,-56,68,-14,117,868,-53,39,-92
-24,53,78,-14,-51,65,-14,112,873,-53,39,-92
-24,53,78,-14,-51,65,-14,107,883,-53,39,-92
-24,48,73,-12,-48,61,-9,107,888,-53,39,-92
-34,39,73,-2,-53,56,-19,87,883,-48,39,-92
-34,39,73,-2,-53,56,-29,87,888,-48,34,-92
-39,39,78,0,-58,58,-29,87,888,-48,34,-92
-39,39,78,0,-58,58,-29,87,893,-48,39,-92
-34,39,73,-2,-53,56,-14,87,893,-58,39,-92
-29,39,68,-4,-48,53,-14,82,897,-63,39,-92
-24,39,63,-7,-43,51,-19,82,902,-68,34,-97
-19,39,58,-9,-39,48,-19,78,902,-73,29,-97
-29,39,68,-4,-48,53,-24,68,902,-63,29,-97
-29,39,68,-4,-48,53,-24,63,907,-63,29,-97
-29,43,73,-7,-51,58,-29,58,917,-58,34,-92
-29,43,73,-7,-51,58,-29,53,922,-58,34,-92
-24,53,78,-14,-51,65,-19,43,932,-73,24,-102
-24,43,68,-9,-46,56,-19,39,932,-73,24,-102
-24,39,63,-7,-43,51,-14,39,927,-73,24,-102
-24,39,63,-7,-43,51,-14,43,927,-73,24,-102
-24,29,53,-2,-39,41,-14,34,941,-68,24,-92
-29,29,58,0,-43,43,-14,29,951,-68,24,-92
-29,29,58,0,-43,43,-19,19,956,-68,24,-92
-29,29,58,0,-43,43,-19,14,961,-68,24,-97
-29,29,58,0,-43,43,-14,9,961,-63,19,-97
-29,34,63,-2,-46,48,-14,4,966,-63,19,-97
-29,34,63,-2,-46,48,-14,0,971,-58,24,-97
-29,34,63,-2,-46,48,-14,0,971,-58,24,-97
-19,39,58,-9,-39,48,-19,0,971,-63,19,-107
-19,39,58,-9,-39,48,-19,-4,976,-68,19,-107
-19,39,58,-9,-39,48,-19,0,976,-68,24,-107
-19,39,58,-9,-39,48,-14,0,980,-68,24,-102
-29,29,58,0,-43,43,-14,14,995,-68,24,-92
-29,29,58,0,-43,43,-14,14,1000,-68,24,-92
-29,29,58,0,-43,43,-14,14,1000,-68,24,-97
-29,29,58,0,-43,43,-14,19,1005,-73,14,-97
-29,19,48,4,-39,34,-14,34,1010,-73,9,-107
-29,19,48,4,-39,34,-14,34,1015,-68,9,-107
-29,14,43,7,-36,29,-14,34,1019,-68,14,-107
-29,14,43,7,-36,29,-14,34,1024,-68,14,-107
-29,4,34,12,-31,19,-14,43,1039,-73,4,-107
-29,9,39,9,-34,24,-19,48,1044,-73,4,-107
-29,9,39,9,-34,24,-19,48,1049,-73,4,-107
-29,9,39,9,-34,24,-14,53,1049,-68,4,-107
-24,19,43,2,-34,31,-14,58,1054,-78,14,-102
-24,19,43,2,-34,31,-14,63,1058,-78,14,-102
-24,19,43,2,-34,31,-14,63,1063,-78,9,-102
-24,24,48,0,-36,36,-14,73,1068,-78,9,-112
-24,14,39,4,-31,26,-14,82,1073,-78,14,-102
-29,9,39,9,-34,24,-14,78,1078,-78,14,-102
-39,9,48,14,-43,29,-14,78,1078,-78,9,-102
-29,9,39,9,-34,24,-14,78,1083,-78,9,-102
-39,0,39,19,-39,19,-14,87,1088,-78,19,-102
-39,0,39,19,-39,19,-14,87,1093,-68,19,-102
-39,0,39,19,-39,19,-14,87,1098,-68,19,-102
-39,0,39,19,-39,19,-19,87,1102,-68,19,-102
-29,0,29,14,-29,14,-19,82,1107,-73,14,-97
-29,0,29,14,-29,14,-19,82,1107,-78,9,-97
-29,0,29,14,-29,14,-19,82,1112,-82,9,-102
-29,0,29,14,-29,14,-14,82,1122,-82,9,-102
-29,-9,19,19,-24,4,-4,82,1137,-78,19,-97
-29,-9,19,19,-24,4,-4,82,1141,-78,19,-97
-29,-9,19,19,-24,4,-4,82,1146,-78,19,-102
-34,-9,24,21,-29,7,-9,82,1146,-78,19,-102
-34,-9,24,21,-29,7,-19,73,1151,-78,9,-102
-34,-9,24,21,-29,7,-14,73,1151,-78,9,-102
-29,-9,19,19,-24,4,-14,73,1151,-78,14,-97
-29,-9,19,19,-24,4,-14,73,1151,-73,14,-97
-34,-9,24,21,-29,7,-14,73,1161,-73,14,-107
-34,-9,24,21,-29,7,-14,73,1161,-73,14,-107
-29,-9,19,19,-24,4,-14,73,1161,-73,14,-107
-29,-9,19,19,-24,4,-14,73,1161,-73,14,-107
-39,-19,19,29,-29,0,-9,82,1161,-73,24,-112
-39,-9,29,24,-34,9,-9,82,1161,-73,24,-112
-39,-9,29,24,-34,9,-4,82,1166,-78,24,-107
-39,-4,34,21,-36,14,-4,82,1166,-78,24,-107
-39,-14,24,26,-31,4,-14,92,1166,-73,14,-107
-39,-14,24,26,-31,4,-14,92,1161,-73,14,-107
-39,-14,24,26,-31,4,-14,97,1151,-73,19,-107
-39,-14,24,26,-31,4,-14,97,1151,-73,19,-107
-29,-19,9,24,-19,-4,-14,87,1156,-73,19,-97
-29,-19,9,24,-19,-4,-14,92,1156,-73,19,-102
-29,-19,9,24,-19,-4,-14,97,1151,-73,19,-102
-29,-19,9,24,-19,-4,-19,102,1151,-73,9,-102
-39,-24,14,31,-26,-4,-9,97,1146,-73,14,-107
-39,-24,14,31,-26,-4,-9,107,1146,-73,19,-107
-39,-19,19,29,-29,0,-9,112,1146,-73,24,-107
-39,-19,19,29,-29,0,-9,117,1141,-73,29,-107
-29,-19,9,24,-19,-4,-9,102,1132,-73,29,-107
-29,-19,9,24,-19,-4,-9,107,1132,-73,24,-107
-29,-19,9,24,-19,-4,-9,117,1132,-73,24,-107
-29,-19,9,24,-19,-4,-9,122,1132,-73,24,-107
-19,-14,4,17,-12,-4,-9,102,1132,-78,24,-107
-29,-19,9,24,-19,-4,0,107,1132,-68,29,-97
-29,-19,9,24,-19,-4,0,107,1132,-68,39,-97
-29,-19,9,24,-19,-4,0,107,1132,-68,39,-97
-29,-19,9,24,-19,-4,0,107,1132,-68,39,-97
-29,-19,9,24,-19,-4,0,107,1132,-68,39,-97
-29,-29,0,29,-14,-14,-9,97,1132,-68,39,-107
-29,-29,0,29,-14,-14,-9,97,1132,-68,39,-107
-29,-29,0,29,-14,-14,-9,97,1132,-68,39,-107
-29,-29,0,29,-14,-14,-9,97,1132,-68,39,-107
-29,-29,0,29,-14,-14,-9,92,1132,-68,29,-107
-29,-29,0,29,-14,-14,-9,87,1132,-68,29,-107
-29,-29,0,29,-14,-14,-9,82,1132,-68,29,-107
-29,-29,0,29,-14,-14,-9,78,1132,-68,29,-107
-29,-34,-4,31,-12,-19,0,73,1137,-68,39,-107
-29,-39,-9,34,-9,-24,0,68,1141,-68,39,-107
-29,-43,-14,36,-7,-29,0,63,1146,-68,39,-107
-29,-48,-19,39,-4,-34,0,58,1151,-68,39,-107
-29,-48,-19,39,-4,-34,0,48,1161,-68,39,-97
-29,-48,-19,39,-4,-34,0,48,1161,-68,39,-97
-29,-48,-19,39,-4,-34,0,48,1161,-68,39,-97
-29,-48,-19,39,-4,-34,0,48,1161,-68,39,-97
-29,-48,-19,39,-4,-34,-9,43,1161,-68,39,-107
-29,-48,-19,39,-4,-34,-9,39,1161,-68,39,-107
-29,-48,-19,39,-4,-34,-9,34,1161,-68,39,-107
-29,-48,-19,39,-4,-34,-9,29,1161,-68,39,-107
-29,-48,-19,39,-4,-34,0,29,1166,-58,39,-107
-29,-48,-19,39,-4,-34,0,29,1171,-58,39,-107
-29,-48,-19,39,-4,-34,0,29,1176,-58,39,-107
-29,-48,-19,39,-4,-34,0,29,1180,-58,39,-107
-29,-39,-9,34,-9,-24,0,29,1190,-68,39,-107
-29,-39,-9,34,-9,-24,0,29,1190,-68,39,-107
-29,-39,-9,34,-9,-24,0,29,1190,-68,39,-107
-29,-39,-9,34,-9,-24,0,29,1190,-68,39,-107
-29,-48,-19,39,-4,-34,-9,39,1190,-68,39,-107
-29,-48,-19,39,-4,-34,-9,39,1190,-68,39,-107
-29,-48,-19,39,-4,-34,-9,39,1190,-68,39,-107
-29,-48,-19,39,-4,-34,-9,39,1190,-68,39,-107
-29,-48,-19,39,-4,-34,0,53,1190,-68,39,-107
-29,-48,-19,39,-4,-34,0,58,1190,-68,39,-107
-29,-48,-19,39,-4,-34,0,63,1190,-68,39,-107
-24,-48,-24,36,0,-36,0,68,1190,-68,39,-107
-34,-58,-24,46,-4,-41,0,73,1195,-58,39,-97
-34,-53,-19,43,-7,-36,0,87,1195,-58,43,-97
-29,-43,-14,36,-7,-29,4,97,1195,-58,48,-97
-24,-43,-19,34,-2,-31,4,107,1200,-53,48,-97
-14,-29,-14,21,0,-21,14,122,1210,-43,58,-97
-14,-29,-14,21,0,-21,14,126,1210,-43,58,-92
-9,-29,-19,19,4,-24,14,126,1210,-48,58,-92
-4,-24,-19,14,7,-21,19,126,1210,-48,63,-87
-4,-14,-9,9,2,-12,19,131,1210,-39,73,-87
-4,-9,-4,7,0,-7,24,131,1215,-29,78,-82
4,-4,-9,0,7,-7,24,131,1215,-29,78,-78
9,4,-4,-7,7,0,24,136,1215,-19,78,-78
0,0,0,0,0,0,29,141,1215,-29,82,-87
0,0,0,0,0,0,34,141,1215,-24,87,-82
0,0,0,0,0,0,39,141,1210,-24,87,-82
0,-4,-4,2,2,-4,39,136,1210,-24,87,-82
4,-14,-19,4,12,-17,43,141,1220,-9,97,-68
9,-14,-24,2,17,-19,53,151,1229,-9,97,-63
9,-14,-24,2,17,-19,58,156,1229,-9,102,-63
14,-14,-29,0,21,-21,63,161,1229,-9,102,-63
29,4,-24,-17,26,-9,43,165,1234,-4,102,-63
34,14,-19,-24,26,-2,39,170,1244,-4,112,-53
43,34,-9,-39,26,12,29,175,1259,4,122,-43
58,58,0,-58,29,29,9,175,1273,19,136,-29
63,58,-4,-61,34,26,-4,165,1283,24,141,-34
73,58,-14,-65,43,21,-14,165,1273,24,131,-34
73,48,-24,-61,48,12,-34,165,1254,4,117,-43
68,39,-29,-53,48,4,-53,151,1234,-4,117,-48
68,19,-48,-43,58,-14,-58,146,1224,-19,102,-48
58,0,-58,-29,58,-29,-58,141,1200,-29,87,-58
58,-4,-63,-26,61,-34,-58,141,1185,-39,78,-63
53,-24,-78,-14,65,-51,-48,146,1195,-39,78,-63
39,-29,-68,-4,53,-48,-29,156,1205,-39,87,-63
39,-29,-68,-4,53,-48,-24,161,1205,-39,87,-63
34,-34,-68,0,51,-51,-19,165,1205,-39,87,-63
34,-34,-68,0,51,-51,-19,165,1200,-39,87,-63
43,-39,-82,-2,63,-61,-34,161,1195,-48,78,-73
43,-39,-82,-2,63,-61,-34,161,1185,-53,78,-73
39,-43,-82,2,61,-63,-34,161,1185,-63,73,-78
29,-48,-78,9,53,-63,-24,165,1185,-63,68,-78
4,-68,-73,31,39,-70,-19,165,1185,-53,63,-82
-9,-73,-63,41,26,-68,-19,165,1185,-58,58,-87
-24,-78,-53,51,14,-65,-9,165,1180,-63,53,-97
-29,-78,-48,53,9,-63,-4,165,1176,-63,48,-97
-34,-87,-53,61,9,-70,-4,165,1180,-68,48,-102
-34,-92,-58,63,12,-75,-4,170,1180,-73,43,-107
-39,-102,-63,70,12,-82,-4,170,1176,-73,39,-112
-39,-112,-73,75,17,-92,-14,161,1161,-87,39,-117
-39,-117,-78,78,19,-97,-19,165,1161,-107,19,-131
-34,-117,-82,75,24,-100,-19,156,1161,-107,14,-131
-34,-117,-82,75,24,-100,-19,156,1161,-107,14,-131
-34,-122,-87,78,26,-104,-19,146,1161,-107,14,-131
-34,-122,-87,78,26,-104,-29,156,1156,-107,14,-136
-34,-122,-87,78,26,-104,-24,156,1156,-107,19,-136
-34,-122,-87,78,26,-104,-24,156,1161,-107,19,-136
-34,-126,-92,80,29,-109,-24,156,1161,-107,14,-136
-34,-126,-92,80,29,-109,-14,161,1156,-107,24,-131
-34,-126,-92,80,29,-109,-14,161,1151,-107,19,-131
-34,-126,-92,80,29,-109,-14,151,1151,-107,19,-131
-39,-126,-87,82,24,-107,-14,151,1151,-107,19,-131
-43,-126,-82,85,19,-104,-24,131,1151,-102,9,-141
-43,-122,-78,82,17,-100,-24,131,1151,-102,9,-141
-39,-122,-82,80,21,-102,-19,131,1156,-92,9,-136
-39,-126,-87,82,24,-107,-19,131,1156,-92,14,-136
-48,-126,-78,87,14,-102,-9,126,1151,-97,14,-126
-48,-126,-78,87,14,-102,-9,126,1151,-97,9,-126
-48,-122,-73,85,12,-97,-9,122,1146,-92,9,-131
-48,-122,-73,85,12,-97,-9,122,1141,-92,9,-131
-48,-131,-82,90,17,-107,-9,117,1141,-92,9,-131
-48,-131,-82,90,17,-107,-9,117,1141,-92,9,-131
-48,-131,-82,90,17,-107,0,117,1141,-92,9,-131
-48,-131,-82,90,17,-107,0,117,1141,-92,9,-131
-48,-131,-82,90,17,-107,4,126,1132,-92,14,-141
-48,-131,-82,90,17,-107,4,126,1132,-92,14,-141
-53,-131,-78,92,12,-104,4,126,1132,-82,19,-136
-53,-131,-78,92,12,-104,9,136,1132,-82,19,-136
-68,-141,-73,104,2,-107,9,161,1132,-82,19,-136
-68,-136,-68,102,0,-102,24,190,1141,-73,19,-126
-58,-122,-63,90,2,-92,29,219,1151,-73,29,-126
-63,-122,-58,92,-2,-90,48,244,1166,-58,39,-126
-87,-112,-24,100,-31,-68,78,292,1200,-39,39,-131
-102,-112,-9,107,-46,-61,122,351,1234,-19,34,-136
-102,-97,4,100,-53,-46,175,444,1312,34,53,-136
-112,-97,14,104,-63,-41,224,546,1385,68,63,-146
-112,-82,29,97,-70,-26,234,619,1439,107,87,-131
-82,-29,53,56,-68,12,224,688,1512,170,141,-92
-48,34,82,7,-65,58,239,785,1600,258,214,-34
0,78,78,-39,-39,78,273,888,1683,341,287,19
73,112,39,-92,17,75,292,951,1747,414,370,87
161,175,14,-168,73,95,268,951,1825,517,468,175
302,273,-29,-287,165,122,170,902,1888,649,614,312
488,414,-73,-451,280,170,-48,780,1917,785,800,502
663,619,-43,-641,353,287,-278,610,1971,966,1034,712
819,834,14,-827,402,424,-439,483,2059,1171,1273,936
951,976,24,-963,463,500,-575,361,2069,1307,1468,1117
1068,1083,14,-1076,527,549,-678,244,2039,1424,1639,1278
1180,1239,58,-1210,561,649,-775,141,2083,1600,1839,1459
1278,1420,141,-1349,568,780,-922,-48,2127,1781,2049,1644
1332,1566,234,-1449,549,900,-1107,-361,2088,1888,2210,1786
1278,1644,366,-1461,456,1005,-1215,-639,2049,1952,2283,1854
1151,1586,434,-1368,358,1010,-1180,-800,2030,1927,2244,1805
980,1410,429,-1195,275,919,-1102,-863,1991,1805,2064,1629
819,1215,395,-1017,212,805,-1137,-917,1825,1532,1756,1390
683,1019,336,-851,173,678,-1185,-961,1527,1137,1366,1107
556,795,239,-675,158,517,-1098,-941,1244,732,980,819
453,629,175,-541,139,402,-971,-902,1034,444,727,624
375,570,195,-473,90,383,-897,-878,868,253,561,517
341,512,170,-427,85,341,-844,-780,790,126,429,414
341,448,107,-395,117,278,-741,-595,844,136,390,361
317,414,97,-366,109,256,-610,-424,956,190,400,341
273,375,102,-324,85,239,-492,-302,1019,204,380,297
229,297,68,-263,80,183,-390,-209,1039,175,336,229
190,219,29,-204,80,124,-322,-146,1073,175,312,180
161,151,-9,-156,85,70,-263,-97,1098,175,297,151
136,87,-48,-112,92,19,-204,-39,1127,165,268,117
117,43,-73,-80,95,-14,-146,4,1132,151,248,102
107,39,-68,-73,87,-14,-97,19,1141,146,234,82
97,19,-78,-58,87,-29,-73,24,1132,131,204,73
87,0,-87,-43,87,-43,-58,24,1122,97,175,48
63,-9,-73,-26,68,-41,-48,29,1098,58,146,24
39,-24,-63,-7,51,-43,-34,29,1068,34,112,-4
19,-53,-73,17,46,-63,-24,39,1049,34,87,-39
-4,-82,-78,43,36,-80,-14,48,1034,14,73,-63
-9,-87,-78,48,34,-82,-4,53,1029,0,63,-73
0,-97,-97,48,48,-97,4,73,1024,-14,48,-78
-9,-117,-107,63,48,-112,14,87,1019,-19,34,-82
-34,-131,-97,82,31,-114,29,107,1019,-39,24,-82
-34,-122,-87,78,26,-104,34,131,1010,-53,4,-102
-34,-131,-97,82,31,-114,48,161,1010,-53,4,-122
-34,-131,-97,82,31,-114,53,185,1000,-53,-4,-136
-34,-126,-92,80,29,-109,63,204,1005,-53,-4,-131
-43,-141,-97,92,26,-119,78,229,995,-53,-4,-136
-43,-151,-107,97,31,-129,87,239,995,-53,-4,-136
-43,-151,-107,97,31,-129,97,248,1005,-53,-9,-136
-43,-151,-107,97,31,-129,97,258,1005,-58,-14,-141
-43,-161,-117,102,36,-139,107,268,995,-58,-4,-131
-48,-161,-112,104,31,-136,112,283,1000,-58,-4,-136
-48,-165,-117,107,34,-141,117,292,1000,-53,-4,-136
-48,-165,-117,107,34,-141,122,307,1000,-53,-4,-136
-48,-175,-126,112,39,-151,122,312,995,-53,-14,-136
-48,-175,-126,112,39,-151,126,317,1000,-53,-14,-136
-43,-175,-131,109,43,-153,126,322,1000,-53,-14,-136
-43,-175,-131,109,43,-153,131,322,1010,-48,-14,-136
-43,-161,-117,102,36,-139,122,326,1005,-48,-19,-146
-43,-161,-117,102,36,-139,122,331,1005,-48,-19,-141
-43,-165,-122,104,39,-143,122,331,1005,-48,-19,-141
-43,-165,-122,104,39,-143,126,331,1005,-43,-19,-141
-43,-175,-131,109,43,-153,126,326,1005,-43,-14,-141
-43,-175,-131,109,43,-153,126,326,1000,-43,-14,-141
-43,-180,-136,112,46,-158,122,317,1000,-43,-14,-141
-43,-180,-136,112,46,-158,122,312,1005,-43,-14,-141
-48,-180,-131,114,41,-156,131,302,1010,-29,-4,-131
-48,-180,-131,114,41,-156,131,302,1010,-29,-4,-131
-43,-180,-136,112,46,-158,136,292,1010,-29,-4,-131
-34,-180,-146,107,56,-163,141,287,1015,-19,0,-131
-34,-170,-136,102,51,-153,146,292,1015,-24,0,-141
-34,-170,-136,102,51,-153,146,292,1015,-19,4,-136
-29,-175,-146,102,58,-161,146,297,1015,-24,0,-131
-29,-175,-146,102,58,-161,151,302,1015,-24,0,-126
-29,-175,-146,102,58,-161,151,331,1005,-9,0,-117
-29,-175,-146,102,58,-161,146,341,1005,-9,0,-117
-24,-170,-146,97,61,-158,146,356,1015,-9,4,-117
-24,-170,-146,97,61,-158,146,370,1015,0,4,-117
-24,-175,-151,100,63,-163,146,409,1010,-4,24,-126
-19,-175,-156,97,68,-165,151,434,1015,-4,24,-122
-19,-170,-151,95,65,-161,156,463,1015,0,24,-112
-24,-165,-141,95,58,-153,156,497,1019,4,24,-112
-14,-175,-161,95,73,-168,165,531,1015,14,29,-107
-9,-175,-165,92,78,-170,170,561,1015,14,34,-97
-9,-175,-165,92,78,-170,170,580,1019,24,39,-87
-4,-165,-161,85,78,-163,165,610,1024,24,39,-82
-4,-165,-161,85,78,-163,165,644,1019,19,39,-82
-4,-165,-161,85,78,-163,170,668,1024,19,29,-82
0,-165,-165,82,82,-165,170,692,1029,24,39,-82
4,-156,-161,75,82,-158,170,722,1034,24,43,-78
4,-165,-170,80,87,-168,175,741,1039,24,48,-78
4,-161,-165,78,85,-163,175,756,1039,34,53,-78
0,-161,-161,80,80,-161,175,785,1039,39,53,-78
0,-161,-161,80,80,-161,175,810,1039,43,58,-68
9,-151,-161,70,85,-156,180,829,1049,48,63,-63
9,-151,-161,70,85,-156,180,844,1058,48,68,-63
14,-151,-165,68,90,-158,180,854,1058,53,73,-63
14,-146,-161,65,87,-153,185,854,1063,58,78,-58
14,-151,-165,68,90,-158,185,873,1063,53,82,-48
19,-151,-170,65,95,-161,185,888,1063,58,82,-43
19,-151,-170,65,95,-161,185,893,1063,63,78,-43
24,-151,-175,63,100,-163,185,897,1063,63,78,-39
34,-146,-180,56,107,-163,185,912,1073,68,92,-34
39,-146,-185,53,112,-165,185,912,1083,68,97,-29
43,-146,-190,51,117,-168,185,912,1083,73,102,-24
48,-141,-190,46,119,-165,180,917,1083,78,112,-24
53,-141,-195,43,124,-168,170,927,1083,78,112,-19
58,-136,-195,39,126,-165,170,927,1083,78,112,-14
63,-136,-200,36,131,-168,170,927,1083,78,112,-9
68,-131,-200,31,134,-165,170,917,1083,82,112,-4
73,-131,-204,29,139,-168,175,917,1078,82,107,-9
78,-131,-209,26,143,-170,175,922,1078,82,112,-9
78,-131,-209,26,143,-170,175,932,1073,82,117,-4
82,-126,-209,21,146,-168,165,941,1073,82,122,0
87,-117,-204,14,146,-161,161,932,1063,82,117,0
97,-117,-214,9,156,-165,156,927,1058,82,122,0
107,-107,-214,0,161,-161,151,927,1054,78,122,4
107,-107,-214,0,161,-161,146,922,1049,78,122,9
112,-117,-229,2,170,-173,141,917,1039,78,122,24
117,-117,-234,0,175,-175,136,917,1039,78,131,29
122,-112,-234,-4,178,-173,136,907,1039,78,131,29
122,-112,-234,-4,178,-173,131,907,1029,78,131,29
117,-112,-229,-2,173,-170,126,902,1015,63,122,29
122,-107,-229,-7,175,-168,117,902,1010,58,122,29
126,-107,-234,-9,180,-170,112,888,1000,58,122,39
126,-107,-234,-9,180,-170,107,888,995,48,122,39
131,-102,-234,-14,183,-168,92,883,976,58,126,43
141,-102,-244,-19,192,-173,92,878,971,53,126,53
151,-102,-253,-24,202,-178,82,863,961,53,126,53
156,-102,-258,-26,207,-180,78,854,951,53,126,53
156,-107,-263,-24,209,-185,78,844,941,43,136,53
170,-107,-278,-31,224,-192,68,839,936,39,136,53
170,-102,-273,-34,222,-187,63,829,936,34,136,63
170,-102,-273,-34,222,-187,63,824,927,29,136,63
161,-102,-263,-29,212,-183,43,819,912,29,126,63
161,-102,-263,-29,212,-183,39,810,907,24,122,63
165,-97,-263,-34,214,-180,29,805,897,19,122,63
165,-97,-263,-34,214,-180,24,795,878,14,117,63
175,-92,-268,-41,222,-180,29,775,868,19,117,63
180,-87,-268,-46,224,-178,24,761,863,19,117,63
180,-87,-268,-46,224,-178,14,751,858,14,122,63
175,-92,-268,-41,222,-180,4,741,854,14,122,73
165,-102,-268,-31,217,-185,-4,717,844,9,122,73
165,-97,-263,-34,214,-180,-9,707,839,9,122,73
156,-87,-244,-34,200,-165,-14,697,839,14,122,68
151,-87,-239,-31,195,-163,-14,688,839,14,122,68
151,-87,-239,-31,195,-163,-24,678,834,14,122,68
146,-87,-234,-29,190,-161,-24,663,839,14,122,68
146,-82,-229,-31,187,-156,-24,658,844,19,122,68
136,-78,-214,-29,175,-146,-24,644,839,19,122,68
126,-68,-195,-29,161,-131,-29,624,829,29,122,68
122,-68,-190,-26,156,-129,-29,614,829,24,122,63
117,-68,-185,-24,151,-126,-29,610,829,24,117,58
112,-63,-175,-24,143,-119,-29,595,834,24,117,58
102,-63,-165,-19,134,-114,-34,580,829,39,117,58
92,-68,-161,-12,126,-114,-34,570,829,39,117,58
78,-68,-146,-4,112,-107,-34,561,829,34,107,48
73,-63,-136,-4,104,-100,-34,551,834,34,107,43
73,-73,-146,0,109,-109,-19,541,834,43,107,39
63,-78,-141,7,102,-109,-19,531,839,43,107,34
63,-78,-141,7,102,-109,-19,527,834,43,97,34
53,-78,-131,12,92,-104,-19,517,829,39,92,29
48,-68,-117,9,82,-92,-14,512,824,39,97,24
43,-68,-112,12,78,-90,-14,502,829,39,92,19
39,-68,-107,14,73,-87,-4,502,834,39,92,14
29,-68,-97,19,63,-82,-4,502,834,39,87,9
24,-78,-102,26,63,-90,4,497,834,43,87,9
24,-78,-102,26,63,-90,9,497,834,43,87,9
19,-78,-97,29,58,-87,9,492,829,43,82,4
14,-82,-97,34,56,-90,9,488,834,43,78,-4
9,-82,-92,36,51,-87,0,492,814,34,68,-14
4,-87,-92,41,48,-90,9,488,800,34,68,-19
4,-87,-92,41,48,-90,14,483,790,34,68,-19
0,-87,-87,43,43,-87,14,483,780,34,63,-19
-4,-87,-82,46,39,-85,14,483,780,43,63,-14
-4,-87,-82,46,39,-85,19,488,775,43,63,-14
-4,-87,-82,46,39,-85,19,492,771,34,63,-14
-14,-87,-73,51,29,-80,24,497,771,29,58,-14
-4,-92,-87,48,41,-90,24,502,766,29,58,-14
-4,-97,-92,51,43,-95,24,497,761,43,63,-14
-4,-97,-92,51,43,-95,24,497,756,43,63,-9
-4,-97,-92,51,43,-95,24,497,751,43,63,-9
-9,-92,-82,51,36,-87,29,492,746,34,58,-29
-14,-92,-78,53,31,-85,29,492,741,34,58,-29
-14,-92,-78,53,31,-85,34,497,741,34,58,-29
-14,-87,-73,51,29,-80,39,497,736,34,58,-29
-9,-97,-87,53,39,-92,29,488,722,34,53,-24
-9,-97,-87,53,39,-92,29,488,717,34,53,-24
-9,-92,-82,51,36,-87,29,492,712,34,53,-24
-9,-92,-82,51,36,-87,29,492,707,34,53,-24
-14,-107,-92,61,39,-100,39,492,707,43,53,-14
-14,-107,-92,61,39,-100,43,492,707,43,53,-14
-14,-107,-92,61,39,-100,43,497,707,39,53,-14
-14,-112,-97,63,41,-104,43,502,707,39,53,-14
-14,-102,-87,58,36,-95,39,492,702,39,53,-24
-14,-97,-82,56,34,-90,39,492,697,39,53,-19
-9,-97,-87,53,39,-92,39,492,692,39,58,-19
-9,-97,-87,53,39,-92,39,492,688,43,58,-19
-9,-97,-87,53,39,-92,29,488,683,43,48,-19
-9,-97,-87,53,39,-92,29,483,678,43,48,-19
-9,-97,-87,53,39,-92,29,483,673,43,48,-19
-9,-97,-87,53,39,-92,29,478,668,43,48,-19
-9,-97,-87,53,39,-92,34,478,658,43,58,-19
-9,-97,-87,53,39,-92,34,478,658,43,58,-19
-9,-92,-82,51,36,-87,34,478,668,43,58,-19
-9,-87,-78,48,34,-82,34,478,668,48,58,-19
0,-97,-97,48,48,-97,34,478,653,48,53,-19
0,-97,-97,48,48,-97,34,478,653,48,58,-14
0,-97,-97,48,48,-97,39,478,658,48,58,-14
0,-97,-97,48,48,-97,39,478,658,53,58,-14
-4,-107,-102,56,48,-104,29,468,653,53,48,-14
-4,-107,-102,56,48,-104,34,463,649,53,48,-14
0,-107,-107,53,53,-107,34,463,644,53,48,-14
0,-107,-107,53,53,-107,34,463,639,63,53,-14
0,-92,-92,46,46,-92,43,453,629,63,53,-4
0,-87,-87,43,43,-87,39,453,629,63,53,-4
0,-82,-82,41,41,-82,39,448,629,63,53,-4
0,-78,-78,39,39,-78,39,448,629,63,53,-4
0,-82,-82,41,41,-82,39,444,629,68,58,0
0,-87,-87,43,43,-87,39,439,624,68,58,0
0,-92,-92,46,46,-92,39,439,624,68,58,0
0,-97,-97,48,48,-97,43,439,624,68,58,0
0,-97,-97,48,48,-97,39,429,614,68,58,-9
0,-97,-97,48,48,-97,39,429,614,68,68,-4
0,-97,-97,48,48,-97,39,429,614,63,68,-4
0,-97,-97,48,48,-97,39,434,614,63,68,-9
-4,-92,-87,48,41,-90,48,429,614,68,58,0
-4,-92,-87,48,41,-90,48,434,610,68,58,0
-4,-102,-97,53,46,-100,43,434,605,68,58,0
-4,-102,-97,53,46,-100,43,434,600,68,58,0
0,-107,-107,53,53,-107,34,439,595,68,58,0
0,-107,-107,53,53,-107,34,439,585,63,58,0
-4,-112,-107,58,51,-109,39,444,580,63,58,0
-4,-112,-107,58,51,-109,39,448,575,63,58,0
4,-97,-102,46,53,-100,48,448,566,63,58,-9
9,-97,-107,43,58,-102,48,444,566,63,58,-9
9,-92,-102,41,56,-97,43,444,566,63,58,-9
4,-92,-97,43,51,-95,43,444,566,63,53,-9
0,-82,-82,41,41,-82,34,439,556,63,53,-9
0,-82,-82,41,41,-82,34,439,556,63,53,-9
0,-82,-82,41,41,-82,39,434,556,63,53,-9
0,-87,-87,43,43,-87,43,434,556,58,53,-9
-9,-92,-82,51,36,-87,43,434,541,63,53,-9
-9,-92,-82,51,36,-87,39,434,536,58,48,-9
-9,-92,-82,51,36,-87,39,434,536,58,48,-14
-9,-97,-87,53,39,-92,39,439,536,58,39,-14
-9,-97,-87,53,39,-92,48,424,531,58,39,-9
-9,-97,-87,53,39,-92,48,429,527,58,39,-9
-14,-97,-82,56,34,-90,48,429,522,58,39,-9
-14,-97,-82,56,34,-90,48,429,517,63,39,-14
-4,-87,-82,46,39,-85,39,424,512,53,48,-24
-4,-82,-78,43,36,-80,39,419,507,48,43,-24
0,-82,-82,41,41,-82,39,409,502,43,39,-24
0,-87,-87,43,43,-87,39,400,502,43,29,-24
-4,-97,-92,51,43,-95,48,390,492,48,39,-14
-4,-97,-92,51,43,-95,48,390,492,39,39,-14
-4,-97,-92,51,43,-95,48,390,492,39,34,-19
0,-102,-102,51,51,-102,48,390,483,39,34,-19
0,-107,-107,53,53,-107,48,375,473,39,24,-24
0,-112,-112,56,56,-112,48,370,468,39,24,-24
0,-112,-112,56,56,-112,48,366,463,29,24,-29
0,-107,-107,53,53,-107,48,361,458,29,24,-29
-9,-107,-97,58,43,-102,39,361,453,19,14,-29
-9,-112,-102,61,46,-107,39,356,448,19,14,-29
-4,-112,-107,58,51,-109,39,341,444,19,14,-29
-4,-107,-102,56,48,-104,39,336,439,14,14,-34
-14,-107,-92,61,39,-100,39,326,429,14,9,-39
-14,-107,-92,61,39,-100,34,317,424,14,4,-39
-14,-112,-97,63,41,-104,29,317,419,14,0,-39
-14,-112,-97,63,41,-104,29,312,414,4,-4,-39
-9,-112,-102,61,46,-107,34,297,414,14,-4,-39
-9,-107,-97,58,43,-102,34,297,414,14,-4,-39
-9,-102,-92,56,41,-97,34,297,414,9,-4,-39
-9,-97,-87,53,39,-92,34,292,414,4,-9,-39
-9,-112,-102,61,46,-107,34,273,395,4,-9,-34
-9,-112,-102,61,46,-107,34,268,395,4,-14,-34
-9,-112,-102,61,46,-107,34,263,395,4,-14,-34
-9,-117,-107,63,48,-112,34,263,395,0,-14,-34
-19,-117,-97,68,39,-107,24,263,380,-14,-19,-43
-19,-117,-97,68,39,-107,24,263,375,-14,-19,-43
-19,-117,-97,68,39,-107,24,263,375,-9,-24,-48
-19,-117,-97,68,39,-107,24,263,375,-4,-29,-48
-19,-112,-92,65,36,-102,34,253,361,-14,-19,-43
-14,-112,-97,63,41,-104,34,248,356,-14,-19,-43
-14,-112,-97,63,41,-104,34,244,356,-14,-19,-43
-14,-117,-102,65,43,-109,39,244,351,-14,-19,-43
-14,-126,-112,70,48,-119,39,248,351,-9,-19,-34
-14,-126,-112,70,48,-119,29,253,351,-9,-24,-34
-19,-126,-107,73,43,-117,29,258,346,-9,-24,-34
-19,-126,-107,73,43,-117,29,263,346,-9,-19,-34
-19,-126,-107,73,43,-117,34,253,331,-9,-29,-34
-19,-126,-107,73,43,-117,34,248,331,-14,-29,-34
-19,-126,-107,73,43,-117,29,248,331,-19,-34,-39
-19,-126,-107,73,43,-117,29,244,326,-24,-39,-39
-19,-126,-107,73,43,-117,24,248,322,-24,-39,-48
-19,-126,-107,73,43,-117,24,248,322,-24,-39,-48
-19,-122,-102,70,41,-112,19,248,326,-19,-34,-43
-19,-122,-102,70,41,-112,19,248,326,-19,-34,-43
-24,-122,-97,73,36,-109,19,239,322,-24,-34,-43
-24,-131,-107,78,41,-119,19,244,317,-24,-34,-43
-24,-136,-112,80,43,-124,24,253,307,-24,-34,-43
-24,-136,-112,80,43,-124,24,268,302,-24,-34,-43
-24,-126,-102,75,39,-114,34,263,292,-29,-43,-43
-29,-126,-97,78,34,-112,34,263,297,-29,-43,-43
-29,-126,-97,78,34,-112,29,258,297,-29,-43,-43
-29,-126,-97,78,34,-112,29,258,297,-29,-43,-48
-19,-126,-107,73,43,-117,24,268,292,-24,-48,-39
-19,-122,-102,70,41,-112,24,268,292,-24,-48,-39
-19,-122,-102,70,41,-112,24,268,292,-19,-43,-39
-19,-122,-102,70,41,-112,24,273,287,-19,-43,-39
-19,-126,-107,73,43,-117,29,268,273,-24,-48,-48
-19,-126,-107,73,43,-117,29,268,273,-29,-48,-48
-19,-126,-107,73,43,-117,29,278,268,-29,-43,-48
-19,-126,-107,73,43,-117,34,283,268,-29,-43,-43
-29,-136,-107,82,39,-122,34,287,268,-19,-43,-43
-29,-136,-107,82,39,-122,34,287,268,-19,-43,-43
-29,-136,-107,82,39,-122,34,287,263,-19,-43,-48
-29,-136,-107,82,39,-122,34,292,263,-24,-53,-48
-29,-136,-107,82,39,-122,34,292,253,-34,-48,-48
-29,-136,-107,82,39,-122,34,287,253,-29,-48,-48
-29,-141,-112,85,41,-126,34,283,253,-29,-43,-48
-29,-141,-112,85,41,-126,34,278,253,-29,-43,-48
-19,-131,-112,75,46,-122,24,273,244,-34,-53,-48
-19,-126,-107,73,43,-117,19,273,244,-34,-53,-48
-19,-126,-107,73,43,-117,19,268,244,-34,-53,-48
-19,-126,-107,73,43,-117,24,268,239,-29,-53,-48
-24,-126,-102,75,39,-114,34,263,229,-39,-53,-43
-24,-126,-102,75,39,-114,34,268,229,-39,-53,-43
-24,-126,-102,75,39,-114,34,268,229,-39,-58,-43
-24,-122,-97,73,36,-109,34,278,229,-39,-58,-53
-14,-122,-107,68,46,-114,24,268,219,-39,-63,-53
-19,-126,-107,73,43,-117,24,263,219,-39,-63,-53
-29,-126,-97,78,34,-112,24,263,214,-39,-68,-53
-19,-126,-107,73,43,-117,24,263,214,-39,-68,-53
-19,-126,-107,73,43,-117,24,263,214,-48,-68,-53
-19,-126,-107,73,43,-117,24,263,214,-39,-68,-53
-19,-126,-107,73,43,-117,24,263,214,-39,-68,-53
-19,-126,-107,73,43,-117,19,263,214,-39,-68,-53
-19,-136,-117,78,48,-126,19,268,204,-34,-63,-48
-19,-136,-117,78,48,-126,19,268,200,-39,-68,-48
-19,-136,-117,78,48,-126,19,268,200,-43,-68,-53
-19,-136,-117,78,48,-126,24,268,204,-43,-68,-53
-19,-126,-107,73,43,-117,24,258,195,-39,-68,-39
-19,-126,-107,73,43,-117,24,258,195,-39,-68,-39
-19,-126,-107,73,43,-117,24,258,195,-39,-68,-43
-24,-126,-102,75,39,-114,19,258,190,-39,-68,-43
-14,-126,-112,70,48,-119,19,258,185,-39,-68,-43
-14,-126,-112,70,48,-119,24,258,185,-39,-68,-43
-9,-126,-117,68,53,-122,24,258,185,-39,-63,-39
-9,-126,-117,68,53,-122,24,258,185,-34,-63,-39
-24,-136,-112,80,43,-124,24,258,185,-43,-73,-39
-24,-136,-112,80,43,-124,24,258,185,-43,-73,-39
-19,-136,-117,78,48,-126,24,258,185,-43,-73,-39
-19,-136,-117,78,48,-126,24,258,185,-43,-73,-39
-19,-126,-107,73,43,-117,19,253,170,-43,-82,-53
-19,-117,-97,68,39,-107,19,248,165,-43,-82,-53
-19,-117,-97,68,39,-107,24,244,165,-48,-82,-48
-19,-112,-92,65,36,-102,24,239,161,-48,-82,-48
-9,-122,-112,65,51,-117,24,239,170,-43,-82,-39
-9,-122,-112,65,51,-117,24,239,165,-43,-82,-39
-9,-122,-112,65,51,-117,24,244,156,-43,-78,-39
-9,-122,-112,65,51,-117,24,244,156,-43,-78,-39
-19,-126,-107,73,43,-117,24,234,161,-43,-78,-39
-19,-126,-107,73,43,-117,24,239,161,-43,-78,-43
-19,-126,-107,73,43,-117,24,244,156,-43,-78,-43
-19,-126,-107,73,43,-117,19,248,156,-43,-87,-43
-29,-136,-107,82,39,-122,29,248,151,-34,-78,-39
-29,-141,-112,85,41,-126,29,253,151,-34,-78,-39
-29,-141,-112,85,41,-126,29,253,151,-34,-78,-39
-29,-146,-117,87,43,-131,29,253,146,-34,-78,-39
-19,-141,-122,80,51,-131,19,239,136,-43,-87,-39
-19,-136,-117,78,48,-126,19,244,136,-43,-92,-39
-19,-131,-112,75,46,-122,19,253,136,-43,-92,-39
-19,-126,-107,73,43,-117,19,258,136,-43,-92,-39
-19,-122,-102,70,41,-112,19,248,136,-39,-82,-29
0,-126,-126,63,63,-126,19,244,136,-39,-78,-29
-9,-126,-117,68,53,-122,19,244,126,-39,-87,-39
-9,-126,-117,68,53,-122,19,244,126,-39,-87,-39
-9,-126,-117,68,53,-122,19,244,126,-39,-87,-39
-9,-126,-117,68,53,-122,19,244,126,-39,-87,-39
-19,-126,-107,73,43,-117,19,234,117,-39,-87,-39
-19,-126,-107,73,43,-117,19,234,117,-39,-87,-39
-19,-126,-107,73,43,-117,19,234,117,-39,-87,-39
-19,-126,-107,73,43,-117,19,234,117,-39,-87,-39
-19,-126,-107,73,43,-117,19,244,126,-39,-87,-39
-19,-126,-107,73,43,-117,19,244,126,-39,-87,-39
-19,-126,-107,73,43,-117,19,244,126,-39,-87,-39
-19,-126,-107,73,43,-117,19,244,126,-39,-87,-39
-9,-126,-117,68,53,-122,19,234,122,-48,-97,-39
-9,-126,-117,68,53,-122,19,234,117,-48,-97,-39
-9,-126,-117,68,53,-122,19,234,112,-48,-97,-39
-9,-126,-117,68,53,-122,19,234,107,-48,-97,-39
-14,-136,-122,75,53,-129,19,224,107,-39,-87,-39
-19,-136,-117,78,48,-126,19,224,107,-39,-87,-39
-24,-136,-112,80,43,-124,19,224,107,-39,-87,-39
-29,-136,-107,82,39,-122,19,224,107,-39,-87,-39
-19,-136,-117,78,48,-126,19,224,97,-39,-87,-39
-19,-136,-117,78,48,-126,19,224,97,-39,-87,-39
-19,-136,-117,78,48,-126,19,224,97,-39,-87,-39
-19,-136,-117,78,48,-126,19,224,97,-39,-87,-39
-19,-136,-117,78,48,-126,9,219,97,-48,-92,-39
-19,-136,-117,78,48,-126,9,214,97,-48,-97,-39
-19,-136,-117,78,48,-126,9,209,97,-48,-102,-39
-19,-136,-117,78,48,-126,9,204,97,-48,-107,-39
-19,-136,-117,78,48,-126,19,204,92,-48,-97,-39
-19,-136,-117,78,48,-126,19,204,87,-48,-97,-39
-19,-136,-117,78,48,-126,19,204,82,-48,-97,-39
-19,-136,-117,78,48,-126,19,204,78,-48,-97,-39
-9,-136,-126,73,58,-131,19,204,87,-39,-97,-39
-9,-136,-126,73,58,-131,19,204,87,-39,-97,-39
-9,-136,-126,73,58,-131,19,204,87,-39,-97,-39
-9,-136,-126,73,58,-131,19,204,87,-39,-97,-39
-19,-126,-107,73,43,-117,29,204,78,-48,-97,-39
-14,-126,-112,70,48,-119,29,204,78,-48,-97,-39
-14,-126,-112,70,48,-119,29,204,82,-39,-97,-39
-14,-122,-107,68,46,-114,29,214,82,-39,-92,-39
-9,-112,-102,61,46,-107,24,219,82,-39,-87,-29
-4,-112,-107,58,51,-109,24,224,87,-34,-87,-29
-4,-107,-102,56,48,-104,24,229,87,-24,-87,-29
-4,-107,-102,56,48,-104,24,234,87,-24,-87,-24
0,-107,-107,53,53,-107,34,224,87,-19,-87,-24
4,-102,-107,48,56,-104,39,224,87,-19,-82,-19
4,-92,-97,43,51,-95,48,229,87,-19,-82,-19
4,-87,-92,41,48,-90,53,229,92,-9,-78,-14
14,-82,-97,34,56,-90,43,239,92,-9,-68,-9
19,-73,-92,26,56,-82,43,244,92,0,-68,-9
19,-68,-87,24,53,-78,48,248,102,0,-63,-9
19,-68,-87,24,53,-78,53,248,102,4,-58,-4
29,-78,-107,24,68,-92,58,248,107,-4,-68,-4
29,-82,-112,26,70,-97,58,244,107,-4,-68,-4
34,-82,-117,24,75,-100,58,244,107,0,-68,0
39,-82,-122,21,80,-102,63,248,117,0,-68,4
39,-78,-117,19,78,-97,63,248,117,9,-53,14
43,-73,-117,14,80,-95,63,248,117,9,-53,14
48,-58,-107,4,78,-82,53,253,117,24,-53,14
53,-43,-97,-4,75,-70,48,258,122,24,-43,24
73,-34,-107,-19,90,-70,29,258,131,34,-34,34
87,-9,-97,-39,92,-53,9,253,141,48,-19,48
92,0,-92,-46,92,-46,-4,248,141,53,-4,53
102,0,-102,-51,102,-51,-14,244,131,53,-14,53
97,-24,-122,-36,109,-73,-24,234,102,24,-39,34
87,-39,-126,-24,107,-82,-43,219,82,14,-39,29
82,-53,-136,-14,109,-95,-48,204,63,-9,-53,19
68,-78,-146,4,107,-112,-48,200,39,-19,-68,9
68,-73,-141,2,104,-107,-39,209,34,-19,-78,4
63,-92,-156,14,109,-124,-29,214,43,-19,-78,4
58,-97,-156,19,107,-126,-19,224,43,-19,-78,4
58,-97,-156,19,107,-126,-14,229,43,-19,-78,4
53,-92,-146,19,100,-119,-9,244,34,-29,-78,4
53,-92,-146,19,100,-119,-9,244,29,-29,-78,4
53,-97,-151,21,102,-124,-14,239,24,-29,-87,-4
53,-97,-151,21,102,-124,-14,239,14,-34,-87,-4
48,-107,-156,29,102,-131,-14,239,14,-34,-82,-9
39,-117,-156,39,97,-136,-4,244,14,-34,-87,-9
24,-141,-165,58,95,-153,0,244,14,-34,-92,-14
9,-151,-161,70,85,-156,0,244,14,-39,-97,-19
-4,-156,-151,80,73,-153,0,253,0,-53,-112,-29
-9,-156,-146,82,68,-151,4,253,-4,-53,-117,-29
-14,-156,-141,85,63,-148,4,248,-9,-58,-117,-34
-14,-161,-146,87,65,-153,4,248,-9,-63,-122,-39
-9,-161,-151,85,70,-156,-4,234,-24,-73,-136,-43
-9,-170,-161,90,75,-165,-14,219,-39,-87,-136,-48
-9,-175,-165,92,78,-170,-19,214,-48,-97,-146,-53
-4,-175,-170,90,82,-173,-19,204,-48,-97,-151,-53
-9,-175,-165,92,78,-170,-9,209,-39,-87,-151,-43
-14,-180,-165,97,75,-173,-9,204,-39,-87,-151,-43
-19,-180,-161,100,70,-170,-9,209,-43,-87,-151,-48
-24,-180,-156,102,65,-168,-4,214,-43,-87,-146,-48
-24,-180,-156,102,65,-168,-14,224,-39,-87,-136,-48
-24,-185,-161,104,68,-173,-14,224,-39,-87,-141,-48
-24,-185,-161,104,68,-173,-14,229,-43,-87,-141,-53
-24,-185,-161,104,68,-173,-14,229,-48,-87,-146,-53
-14,-175,-161,95,73,-168,-4,219,-48,-87,-146,-53
-19,-175,-156,97,68,-165,-4,219,-48,-87,-146,-53
-24,-175,-151,100,63,-163,-4,209,-48,-92,-146,-53
-24,-170,-146,97,61,-158,-4,209,-48,-92,-146,-53
-19,-180,-161,100,70,-170,0,209,-43,-82,-156,-48
-19,-185,-165,102,73,-175,0,209,-43,-82,-151,-48
-19,-185,-165,102,73,-175,0,204,-39,-87,-151,-48
-19,-185,-165,102,73,-175,0,204,-39,-87,-156,-48
-19,-170,-151,95,65,-161,0,200,-53,-82,-156,-53
-19,-170,-151,95,65,-161,0,200,-58,-82,-156,-53
-19,-170,-151,95,65,-161,0,195,-58,-82,-156,-53
-19,-170,-151,95,65,-161,0,195,-58,-82,-156,-53
-29,-170,-141,100,56,-156,19,195,-53,-73,-146,-48
-29,-170,-141,100,56,-156,19,195,-48,-73,-146,-43
-39,-170,-131,104,46,-151,14,195,-43,-73,-151,-39
-39,-170,-131,104,46,-151,14,195,-39,-73,-151,-34
-43,-170,-126,107,41,-148,14,195,-39,-63,-136,-39
-34,-170,-136,102,51,-153,19,195,-39,-63,-146,-39
-29,-161,-131,95,51,-146,29,200,-39,-63,-146,-39
-29,-146,-117,87,43,-131,24,209,-29,-63,-146,-39
-48,-161,-112,104,31,-136,39,229,-19,-63,-146,-39
-73,-170,-97,122,12,-134,58,244,4,-48,-146,-48
-78,-151,-73,114,-2,-112,97,283,58,-19,-136,-53
-73,-122,-48,97,-12,-85,151,361,131,29,-112,-48
-92,-136,-43,114,-24,-90,195,453,200,63,-102,-48
-102,-146,-43,124,-29,-95,224,527,244,87,-92,-48
-82,-112,-29,97,-26,-70,224,590,307,136,-58,-24
-53,-48,4,51,-29,-21,224,658,390,219,4,24
-9,4,14,2,-12,9,248,766,488,307,78,82
48,48,0,-48,24,24,283,858,570,380,161,136
141,92,-48,-117,95,21,283,893,644,473,244,214
248,175,-73,-212,161,51,239,863,732,585,370,322
400,292,-107,-346,253,92,92,775,785,717,536,488
585,453,-131,-519,358,161,-146,605,805,873,732,688
751,658,-92,-705,422,283,-346,434,878,1073,985,917
888,863,-24,-875,456,419,-497,307,956,1268,1215,1122
1019,995,-24,-1007,522,485,-624,175,927,1376,1381,1293
1137,1122,-14,-1129,575,553,-717,58,917,1503,1551,1454
1239,1298,58,-1268,590,678,-814,-73,980,1688,1781,1654
1317,1459,141,-1388,588,800,-980,-322,995,1839,1981,1830
1342,1576,234,-1459,553,905,-1137,-644,936,1917,2093,1932
1249,1605,356,-1427,446,980,-1176,-893,888,1942,2117,1942
1083,1488,405,-1285,339,946,-1102,-976,868,1888,2010,1844
912,1293,380,-1102,265,836,-1054,-1019,780,1698,1781,1639
761,1117,356,-939,202,736,-1127,-1083,546,1366,1434,1371
634,902,268,-768,183,585,-1146,-1117,248,941,1024,1078
507,668,161,-588,173,414,-1039,-1078,4,585,678,819
424,561,136,-492,143,348,-922,-1049,-175,346,473,663
385,522,136,-453,124,329,-868,-1005,-302,175,326,556
380,463,82,-422,148,273,-795,-849,-302,117,244,483
361,419,58,-390,151,239,-692,-653,-219,156,234,439
317,385,68,-351,124,226,-561,-492,-126,200,244,419
263,317,53,-290,104,185,-444,-370,-63,204,214,366
219,219,0,-219,109,109,-361,-268,-34,195,161,307
190,161,-29,-175,109,65,-302,-224,0,185,146,268
170,102,-68,-136,119,17,-244,-175,34,185,131,239
146,39,-107,-92,126,-34,-175,-117,63,175,102,214
126,4,-122,-65,124,-58,-126,-92,68,170,82,190
107,0,-107,-53,107,-53,-97,-97,68,146,58,170
97,-9,-107,-43,102,-58,-73,-92,39,112,19,151
87,-19,-107,-34,97,-63,-58,-92,19,78,-19,117
82,-29,-112,-26,97,-70,-58,-97,-4,48,-39,102
58,-34,-92,-12,75,-63,-43,-87,-4,34,-63,82
39,-63,-102,12,70,-82,-24,-78,-4,24,-78,58
34,-92,-126,29,80,-109,-14,-68,-9,14,-92,34
19,-117,-136,48,78,-126,-4,-63,-14,0,-112,24
9,-126,-136,58,73,-131,14,-53,-29,-24,-126,19
9,-126,-136,58,73,-131,24,-48,-34,-39,-141,4
4,-131,-136,63,70,-134,29,-29,-43,-48,-151,-4
-4,-131,-126,68,61,-129,43,-4,-43,-43,-151,-4
-14,-141,-126,78,56,-134,48,24,-34,-43,-161,-14
-14,-151,-136,82,61,-143,63,39,-34,-43,-161,-29
-14,-165,-151,90,68,-158,73,58,-29,-43,-161,-34
-14,-170,-156,92,70,-163,78,63,-39,-43,-161,-39
-14,-180,-165,97,75,-173,87,73,-39,-43,-161,-39
-14,-180,-165,97,75,-173,97,82,-29,-43,-165,-39
-14,-180,-165,97,75,-173,97,92,-29,-48,-170,-43
-14,-170,-156,92,70,-163,97,107,-29,-48,-180,-43
-19,-170,-151,95,65,-161,102,117,-24,-48,-180,-48
-19,-175,-156,97,68,-165,107,122,-24,-43,-180,-48
-19,-175,-156,97,68,-165,112,131,-24,-43,-180,-48
-9,-175,-165,92,78,-170,112,136,-19,-34,-180,-39
-9,-175,-165,92,78,-170,117,141,-14,-34,-180,-39
-4,-175,-170,90,82,-173,117,146,-14,-34,-180,-39
-4,-175,-170,90,82,-173,122,146,-4,-29,-180,-39
-14,-180,-165,97,75,-173,122,161,-9,-39,-175,-48
-14,-180,-165,97,75,-173,122,165,-9,-39,-175,-43
-14,-185,-170,100,78,-178,122,165,-9,-39,-175,-43
-14,-185,-170,100,78,-178,126,165,-9,-34,-175,-43
-14,-185,-170,100,78,-178,126,151,-9,-34,-170,-34
-14,-185,-170,100,78,-178,126,151,-14,-34,-170,-34
-14,-190,-175,102,80,-183,122,141,-14,-34,-170,-34
-14,-190,-175,102,80,-183,122,136,-9,-34,-170,-34
-9,-180,-170,95,80,-175,122,136,-4,-29,-170,-34
-9,-180,-170,95,80,-175,122,136,-4,-29,-170,-34
-4,-180,-175,92,85,-178,126,126,-4,-29,-170,-34
4,-180,-185,87,95,-183,131,122,0,-19,-165,-34
4,-180,-185,87,95,-183,126,131,4,-19,-170,-34
4,-180,-185,87,95,-183,126,126,9,-9,-161,-29
9,-185,-195,87,102,-190,126,126,14,-9,-161,-24
9,-185,-195,87,102,-190,131,126,19,-4,-156,-19
0,-175,-175,87,87,-175,131,151,9,-9,-156,-29
0,-175,-175,87,87,-175,126,156,9,-9,-156,-29
4,-170,-175,82,90,-173,126,165,19,-9,-151,-29
4,-170,-175,82,90,-173,126,175,19,0,-151,-29
14,-175,-190,80,102,-183,136,214,14,4,-141,-19
19,-175,-195,78,107,-185,141,229,19,4,-141,-14
19,-170,-190,75,104,-180,146,248,19,9,-141,-4
14,-165,-180,75,97,-173,146,273,24,14,-141,-4
14,-175,-190,80,102,-183,146,297,29,14,-146,-14
19,-175,-195,78,107,-185,151,326,29,14,-141,-9
19,-175,-195,78,107,-185,151,346,34,24,-136,-4
24,-165,-190,70,107,-178,146,375,39,24,-136,-4
24,-165,-190,70,107,-178,146,400,34,29,-126,4
24,-165,-190,70,107,-178,151,424,39,29,-136,4
29,-165,-195,68,112,-180,151,448,43,34,-126,4
34,-156,-190,61,112,-173,151,478,48,34,-122,9
43,-156,-200,56,122,-178,156,497,58,24,-126,9
43,-151,-195,53,119,-173,156,512,63,34,-122,9
39,-151,-190,56,114,-170,156,541,68,39,-122,9
39,-151,-190,56,114,-170,156,566,73,43,-117,19
43,-151,-195,53,119,-173,161,580,73,48,-112,24
39,-151,-190,56,114,-170,161,600,82,48,-107,24
39,-151,-190,56,114,-170,161,614,82,53,-102,24
34,-146,-180,56,107,-163,165,619,87,58,-97,29
53,-141,-195,43,124,-168,156,649,82,63,-87,39
58,-141,-200,41,129,-170,156,663,87,68,-82,43
58,-141,-200,41,129,-170,156,668,92,73,-82,43
63,-141,-204,39,134,-173,156,673,97,73,-78,48
73,-136,-209,31,141,-173,156,692,87,68,-78,53
78,-136,-214,29,146,-175,156,697,97,68,-78,58
82,-136,-219,26,151,-178,156,702,97,73,-78,63
87,-131,-219,21,153,-175,151,712,97,78,-73,63
82,-131,-214,24,148,-173,151,732,97,68,-73,68
87,-126,-214,19,151,-170,151,741,97,68,-73,73
92,-126,-219,17,156,-173,151,751,97,68,-73,78
97,-122,-219,12,158,-170,151,751,97,73,-73,82
102,-122,-224,9,163,-173,146,766,102,82,-68,78
107,-122,-229,7,168,-175,146,775,102,82,-63,78
107,-122,-229,7,168,-175,146,790,97,82,-58,82
112,-117,-229,2,170,-173,136,805,97,82,-53,87
117,-117,-234,0,175,-175,131,824,97,92,-58,92
126,-117,-244,-4,185,-180,126,829,92,92,-53,97
136,-107,-244,-14,190,-175,122,839,87,87,-53,107
136,-107,-244,-14,190,-175,117,844,82,87,-53,117
151,-107,-258,-21,204,-183,102,849,63,78,-53,112
156,-107,-263,-24,209,-185,97,858,63,78,-43,117
161,-102,-263,-29,212,-183,97,858,63,78,-43,117
161,-102,-263,-29,212,-183,92,868,53,78,-43,117
156,-92,-248,-31,202,-170,87,868,48,63,-53,107
161,-87,-248,-36,204,-168,78,873,43,58,-53,107
165,-87,-253,-39,209,-170,73,863,34,58,-53,117
165,-87,-253,-39,209,-170,68,868,29,48,-53,117
175,-82,-258,-46,217,-170,63,878,9,48,-58,131
180,-82,-263,-48,222,-173,63,878,4,43,-58,141
185,-82,-268,-51,226,-175,53,868,-4,43,-58,141
185,-82,-268,-51,226,-175,48,863,-14,43,-58,141
175,-87,-263,-43,219,-175,39,878,-24,43,-58,141
190,-87,-278,-51,234,-183,29,878,-29,39,-58,141
190,-82,-273,-53,231,-178,24,873,-29,34,-58,151
190,-82,-273,-53,231,-178,24,873,-39,29,-58,151
190,-82,-273,-53,231,-178,14,873,-58,29,-58,151
190,-82,-273,-53,231,-178,9,868,-58,24,-63,151
195,-78,-273,-58,234,-175,0,868,-63,19,-63,151
195,-78,-273,-58,234,-175,-4,863,-78,14,-68,151
204,-73,-278,-65,241,-175,0,868,-68,9,-68,151
209,-68,-278,-70,244,-173,-4,858,-73,9,-68,151
209,-68,-278,-70,244,-173,-14,854,-78,4,-63,151
204,-73,-278,-65,241,-175,-24,849,-82,4,-63,161
195,-73,-268,-61,231,-170,-34,849,-92,0,-63,161
195,-68,-263,-63,229,-165,-39,844,-97,0,-63,161
185,-58,-244,-63,214,-151,-43,839,-97,4,-63,156
180,-58,-239,-61,209,-148,-43,834,-97,4,-63,156
180,-68,-248,-56,214,-158,-43,834,-107,14,-63,165
175,-68,-244,-53,209,-156,-43,819,-97,14,-63,165
175,-63,-239,-56,207,-151,-43,814,-87,19,-63,165
165,-58,-224,-53,195,-141,-43,800,-87,19,-63,165
156,-68,-224,-43,190,-146,-48,805,-97,19,-73,156
151,-68,-219,-41,185,-143,-48,800,-97,14,-73,151
146,-68,-214,-39,180,-141,-48,800,-97,14,-78,146
141,-63,-204,-39,173,-134,-48,790,-92,14,-78,146
131,-53,-185,-39,158,-119,-43,785,-87,29,-68,156
122,-58,-180,-31,151,-119,-43,775,-87,29,-68,156
107,-58,-165,-24,136,-112,-43,766,-87,24,-78,146
102,-53,-156,-24,129,-104,-43,756,-82,24,-78,141
92,-48,-141,-21,117,-95,-29,761,-78,43,-68,136
82,-48,-131,-17,107,-90,-29,756,-68,43,-68,131
82,-43,-126,-19,104,-85,-29,756,-68,43,-78,131
73,-39,-112,-17,92,-75,-29,751,-68,39,-82,126
68,-43,-112,-12,90,-78,-24,746,-68,29,-97,112
63,-48,-112,-7,87,-80,-24,736,-68,29,-102,107
58,-53,-112,-2,85,-82,-14,736,-68,29,-102,102
48,-58,-107,4,78,-82,-14,736,-73,29,-107,97
34,-68,-102,17,68,-85,-4,746,-68,24,-107,97
34,-68,-102,17,68,-85,0,751,-63,24,-107,97
29,-68,-97,19,63,-82,0,751,-63,24,-112,92
24,-73,-97,24,61,-85,0,751,-53,24,-117,82
29,-73,-102,21,65,-87,-9,756,-63,24,-117,82
24,-78,-102,26,63,-90,0,751,-68,24,-117,78
24,-78,-102,26,63,-90,4,746,-68,24,-117,78
19,-78,-97,29,58,-87,4,746,-68,24,-122,78
4,-78,-82,36,43,-80,4,756,-63,24,-131,73
4,-78,-82,36,43,-80,9,761,-63,24,-131,73
4,-78,-82,36,43,-80,9,766,-63,14,-131,73
-4,-78,-73,41,34,-75,14,771,-58,9,-136,73
4,-82,-87,39,46,-85,14,775,-58,19,-136,73
4,-87,-92,41,48,-90,14,771,-58,34,-131,73
4,-87,-92,41,48,-90,14,771,-58,34,-131,78
4,-87,-92,41,48,-90,14,771,-58,34,-131,78
-9,-92,-82,51,36,-87,19,771,-68,24,-136,78
-14,-92,-78,53,31,-85,19,775,-68,24,-136,78
-14,-92,-78,53,31,-85,24,785,-63,24,-136,78
-14,-87,-73,51,29,-80,29,790,-63,24,-136,78
0,-78,-78,39,39,-78,24,790,-63,24,-151,63
0,-78,-78,39,39,-78,19,790,-63,24,-151,63
0,-73,-73,36,36,-73,14,795,-63,24,-151,63
0,-73,-73,36,36,-73,9,795,-63,24,-151,63
4,-78,-82,36,43,-80,19,800,-53,24,-141,68
4,-78,-82,36,43,-80,24,805,-53,24,-141,73
4,-78,-82,36,43,-80,24,814,-53,19,-141,78
4,-82,-87,39,46,-85,24,824,-53,19,-141,82
-4,-92,-87,48,41,-90,19,824,-43,29,-151,73
-4,-87,-82,46,39,-85,19,824,-43,29,-151,78
0,-87,-87,43,43,-87,19,824,-43,29,-146,78
0,-87,-87,43,43,-87,19,824,-43,34,-146,78
0,-78,-78,39,39,-78,19,829,-53,24,-146,78
0,-78,-78,39,39,-78,19,824,-53,24,-146,78
0,-78,-78,39,39,-78,19,824,-53,24,-146,78
0,-78,-78,39,39,-78,19,819,-53,24,-146,78
0,-78,-78,39,39,-78,14,834,-53,24,-156,78
0,-78,-78,39,39,-78,14,839,-53,24,-156,78
0,-73,-73,36,36,-73,14,844,-43,24,-156,78
0,-68,-68,34,34,-68,14,849,-43,29,-156,78
0,-68,-68,34,34,-68,14,854,-39,29,-141,78
0,-68,-68,34,34,-68,14,858,-39,29,-136,82
0,-68,-68,34,34,-68,19,863,-34,29,-136,82
0,-68,-68,34,34,-68,19,868,-34,34,-136,82
-4,-73,-68,39,31,-70,29,873,-34,24,-141,73
-4,-78,-73,41,34,-75,34,873,-34,24,-146,73
0,-82,-82,41,41,-82,34,878,-34,24,-151,73
0,-87,-87,43,43,-87,34,883,-34,34,-151,73
0,-82,-82,41,41,-82,34,893,-34,34,-151,82
0,-78,-78,39,39,-78,29,893,-34,34,-151,82
0,-73,-73,36,36,-73,29,888,-34,34,-151,82
0,-68,-68,34,34,-68,29,888,-34,34,-151,82
0,-78,-78,39,39,-78,29,888,-24,39,-146,97
0,-78,-78,39,39,-78,29,888,-29,39,-146,97
0,-78,-78,39,39,-78,29,893,-29,39,-146,97
0,-78,-78,39,39,-78,34,897,-29,39,-146,97
0,-78,-78,39,39,-78,39,902,-29,39,-156,97
0,-78,-78,39,39,-78,39,907,-29,39,-146,102
0,-78,-78,39,39,-78,39,912,-29,34,-146,102
0,-78,-78,39,39,-78,39,922,-29,34,-146,97
14,-63,-78,24,46,-70,39,917,-24,39,-146,107
14,-63,-78,24,46,-70,39,922,-24,39,-146,107
14,-73,-87,29,51,-80,34,922,-24,39,-146,107
14,-73,-87,29,51,-80,34,922,-24,39,-146,107
9,-78,-87,34,48,-82,34,927,-24,39,-156,97
9,-78,-87,34,48,-82,34,927,-29,34,-156,97
4,-82,-87,39,46,-85,39,932,-29,34,-156,97
4,-82,-87,39,46,-85,39,936,-29,34,-156,97
-4,-78,-73,41,34,-75,39,946,-29,24,-156,87
0,-78,-78,39,39,-78,39,941,-29,24,-156,87
0,-73,-73,36,36,-73,34,941,-29,24,-156,87
-4,-73,-68,39,31,-70,34,941,-29,24,-161,87
0,-82,-82,41,41,-82,43,941,-29,24,-161,97
0,-82,-82,41,41,-82,43,946,-29,24,-161,97
0,-82,-82,41,41,-82,48,946,-29,24,-161,97
0,-87,-87,43,43,-87,53,951,-29,19,-161,97
-9,-82,-73,46,31,-78,43,951,-34,14,-170,97
-9,-82,-73,46,31,-78,39,951,-39,9,-175,97
-9,-82,-73,46,31,-78,39,951,-39,9,-175,92
-9,-87,-78,48,34,-82,39,956,-39,9,-185,92
0,-78,-78,39,39,-78,39,951,-39,9,-185,107
0,-78,-78,39,39,-78,39,956,-39,9,-185,107
-4,-78,-73,41,34,-75,39,956,-39,9,-185,107
-4,-78,-73,41,34,-75,39,956,-39,14,-185,102
-4,-78,-73,41,34,-75,39,951,-34,14,-180,102
-4,-73,-68,39,31,-70,39,956,-39,9,-180,102
0,-73,-73,36,36,-73,39,956,-43,4,-180,102
0,-78,-78,39,39,-78,39,956,-43,4,-185,102
-14,-82,-68,48,26,-75,39,956,-53,9,-175,102
-14,-87,-73,51,29,-80,39,956,-53,0,-175,102
-14,-92,-78,53,31,-85,39,956,-53,0,-180,97
-9,-102,-92,56,41,-97,39,956,-63,0,-180,97
-9,-97,-87,53,39,-92,39,956,-53,-9,-190,102
-9,-102,-92,56,41,-97,39,956,-58,-9,-190,102
-9,-102,-92,56,41,-97,39,956,-63,-19,-190,97
-9,-97,-87,53,39,-92,39,956,-68,-19,-190,97
-19,-97,-78,58,29,-87,48,961,-58,-9,-200,97
-19,-102,-82,61,31,-92,48,961,-58,-9,-200,97
-14,-102,-87,58,36,-95,48,951,-58,-9,-200,97
-14,-97,-82,56,34,-90,48,951,-58,-14,-200,92
-14,-97,-82,56,34,-90,39,951,-68,-24,-200,97
-14,-97,-82,56,34,-90,34,941,-73,-24,-200,97
-14,-102,-87,58,36,-95,29,941,-78,-24,-200,97
-14,-102,-87,58,36,-95,29,936,-82,-34,-200,97
-9,-107,-97,58,43,-102,43,941,-82,-34,-209,107
-9,-107,-97,58,43,-102,43,941,-82,-34,-209,107
-9,-107,-97,58,43,-102,43,941,-82,-39,-209,107
-9,-107,-97,58,43,-102,43,936,-82,-43,-214,107
-19,-112,-92,65,36,-102,43,936,-92,-43,-214,97
-19,-112,-92,65,36,-102,43,932,-92,-43,-219,92
-19,-112,-92,65,36,-102,43,927,-92,-43,-219,87
-19,-117,-97,68,39,-107,43,927,-92,-48,-219,82
-29,-117,-87,73,29,-102,43,936,-97,-53,-224,82
-29,-117,-87,73,29,-102,43,936,-102,-53,-224,82
-29,-117,-87,73,29,-102,43,936,-102,-48,-229,78
-29,-117,-87,73,29,-102,43,936,-102,-43,-234,78
-29,-102,-73,65,21,-87,34,946,-102,-53,-224,82
-24,-102,-78,63,26,-90,34,941,-102,-53,-224,82
-24,-102,-78,63,26,-90,34,936,-97,-53,-224,82
-24,-107,-82,65,29,-95,39,936,-97,-53,-224,82
-24,-117,-92,70,34,-104,48,932,-97,-58,-224,92
-24,-117,-92,70,34,-104,39,936,-97,-58,-229,92
-29,-117,-87,73,29,-102,39,941,-102,-58,-229,92
-29,-117,-87,73,29,-102,39,946,-102,-58,-224,92
-19,-107,-87,63,34,-97,53,941,-97,-53,-214,102
-19,-107,-87,63,34,-97,53,941,-97,-53,-214,102
-19,-107,-87,63,34,-97,48,946,-97,-53,-219,97
-19,-107,-87,63,34,-97,48,946,-102,-53,-224,97
-19,-117,-97,68,39,-107,43,946,-97,-63,-234,97
-19,-117,-97,68,39,-107,43,951,-97,-63,-234,97
-19,-112,-92,65,36,-102,39,956,-92,-58,-229,102
-19,-112,-92,65,36,-102,39,961,-92,-58,-229,102
-34,-112,-78,73,21,-95,39,951,-102,-73,-234,97
-34,-122,-87,78,26,-104,39,956,-102,-73,-239,92
-34,-126,-92,80,29,-109,43,966,-107,-73,-244,87
-34,-126,-92,80,29,-109,43,980,-107,-73,-248,82
-34,-117,-82,75,24,-100,43,971,-107,-78,-248,73
-39,-117,-78,78,19,-97,43,966,-102,-78,-248,73
-39,-117,-78,78,19,-97,39,956,-102,-78,-248,73
-39,-117,-78,78,19,-97,39,951,-102,-78,-248,68
-29,-117,-87,73,29,-102,43,961,-102,-82,-244,78
-29,-112,-82,70,26,-97,43,961,-97,-82,-244,78
-29,-112,-82,70,26,-97,43,961,-92,-78,-239,78
-29,-112,-82,70,26,-97,43,966,-92,-78,-239,78
-29,-117,-87,73,29,-102,48,966,-87,-73,-234,87
-29,-117,-87,73,29,-102,48,961,-87,-78,-234,87
-29,-117,-87,73,29,-102,48,966,-92,-78,-229,87
-29,-117,-87,73,29,-102,53,966,-92,-78,-229,92
-39,-117,-78,78,19,-97,43,966,-92,-78,-229,82
-39,-117,-78,78,19,-97,43,961,-92,-78,-229,82
-39,-117,-78,78,19,-97,43,956,-97,-78,-229,78
-39,-117,-78,78,19,-97,43,956,-97,-82,-239,78
-29,-126,-97,78,34,-112,43,956,-87,-92,-253,87
-29,-126,-97,78,34,-112,43,951,-87,-87,-253,87
-29,-131,-102,80,36,-117,43,946,-87,-87,-248,87
-29,-131,-102,80,36,-117,43,941,-87,-87,-248,87
-29,-131,-102,80,36,-117,53,936,-78,-82,-244,87
-29,-126,-97,78,34,-112,48,936,-78,-82,-239,87
-29,-126,-97,78,34,-112,48,932,-78,-82,-234,87
-29,-126,-97,78,34,-112,53,932,-82,-78,-229,87
-34,-117,-82,75,24,-100,53,927,-73,-78,-239,82
-34,-117,-82,75,24,-100,53,932,-73,-78,-239,82
-34,-117,-82,75,24,-100,53,932,-73,-78,-244,82
-34,-112,-78,73,21,-95,53,941,-73,-78,-244,73
-34,-122,-87,78,26,-104,48,936,-73,-78,-229,82
-39,-126,-87,82,24,-107,43,927,-73,-78,-229,82
-48,-126,-78,87,14,-102,39,922,-78,-78,-234,82
-39,-126,-87,82,24,-107,34,917,-78,-78,-234,82
-29,-126,-97,78,34,-112,34,917,-78,-87,-234,92
-29,-126,-97,78,34,-112,34,917,-78,-78,-234,92
-29,-126,-97,78,34,-112,34,917,-78,-78,-234,92
-29,-126,-97,78,34,-112,29,917,-78,-78,-234,92
-29,-117,-87,73,29,-102,39,922,-78,-73,-229,87
