I,II,III,aVR,aVL,aVF,V1,V2,V3,V4,V5,V6
48,-9,-58,-19,53,-34,9,-9,-19,165,-39,-468
48,-9,-58,-19,53,-34,9,-9,-19,165,-39,-468
48,-9,-58,-19,53,-34,9,-9,-19,165,-39,-468
48,-9,-58,-19,53,-34,9,-9,-19,165,-39,-468
78,0,-78,-39,78,-39,19,0,-19,161,-43,-478
97,9,-87,-53,92,-39,19,0,-19,156,-48,-478
117,19,-97,-68,107,-39,19,0,-19,151,-53,-478
136,29,-107,-82,122,-39,19,0,-19,146,-58,-478
112,0,-112,-56,112,-56,4,-9,-39,131,-73,-488
87,-29,-117,-29,102,-73,-9,-19,-48,126,-78,-497
63,-58,-122,-2,92,-90,-24,-29,-58,122,-82,-507
39,-87,-126,24,82,-107,-39,-39,-68,117,-87,-517
34,-63,-97,14,65,-80,-29,-34,-63,122,-73,-497
29,-48,-78,9,53,-63,-29,-29,-58,126,-68,-488
24,-34,-58,4,41,-46,-29,-24,-53,131,-63,-478
19,-19,-39,0,29,-29,-29,-19,-48,136,-58,-468
43,-29,-73,-7,58,-51,-39,-34,-63,131,-68,-478
58,-39,-97,-9,78,-68,-48,-39,-68,126,-68,-478
73,-48,-122,-12,97,-85,-58,-43,-73,122,-68,-478
87,-58,-146,-14,117,-102,-68,-48,-78,117,-68,-478
48,-92,-141,21,95,-117,-73,-43,-87,112,-73,-488
19,-117,-136,48,78,-126,-78,-39,-87,107,-78,-488
-9,-141,-131,75,61,-136,-82,-34,-87,102,-82,-488
-39,-165,-126,102,43,-146,-87,-29,-87,97,-87,-488
-19,-146,-126,82,53,-136,-78,-19,-78,107,-82,-478
0,-126,-126,63,63,-126,-78,-19,-78,107,-78,-478
19,-107,-126,43,73,-117,-78,-19,-78,107,-73,-478
39,-87,-126,24,82,-107,-78,-19,-78,107,-68,-478
34,-102,-136,34,85,-119,-97,-34,-82,97,-87,-483
29,-117,-146,43,87,-131,-107,-39,-87,87,-97,-488
24,-131,-156,53,90,-143,-117,-43,-92,78,-107,-492
19,-146,-165,63,92,-156,-126,-48,-97,68,-117,-497
14,-151,-165,68,90,-158,-107,-53,-102,58,-126,-507
9,-156,-165,73,87,-161,-97,-58,-107,58,-126,-507
4,-161,-165,78,85,-163,-87,-63,-112,58,-126,-507
0,-165,-165,82,82,-165,-78,-68,-117,58,-126,-507
34,-126,-161,46,97,-143,-68,-48,-107,73,-117,-492
68,-97,-165,14,117,-131,-68,-39,-97,78,-107,-478
102,-68,-170,-17,136,-119,-68,-29,-87,82,-97,-463
136,-39,-175,-48,156,-107,-68,-19,-78,87,-87,-448
97,-68,-165,-14,131,-117,-58,-34,-87,78,-92,-453
68,-87,-156,9,112,-122,-58,-39,-87,78,-97,-458
39,-107,-146,34,92,-126,-58,-43,-87,78,-102,-463
9,-126,-136,58,73,-131,-58,-48,-87,78,-107,-468
39,-107,-146,34,92,-126,-63,-58,-92,63,-122,-468
58,-97,-156,19,107,-126,-68,-68,-97,58,-126,-468
78,-87,-165,4,122,-126,-73,-78,-102,53,-131,-468
97,-78,-175,-9,136,-126,-78,-87,-107,48,-136,-468
58,-78,-136,9,97,-107,-48,-68,-92,63,-122,-444
19,-78,-97,29,58,-87,-29,-48,-78,78,-107,-429
-19,-78,-58,48,19,-68,-9,-29,-63,92,-92,-414
-58,-78,-19,68,-19,-48,9,-9,-48,107,-78,-400
-24,-63,-39,43,7,-51,4,-14,-48,97,-87,-390
0,-48,-48,24,24,-48,0,-19,-48,97,-87,-390
24,-34,-58,4,41,-46,-4,-24,-48,97,-87,-390
48,-19,-68,-14,58,-43,-9,-29,-48,97,-87,-390
24,-34,-58,4,41,-46,0,-39,-63,82,-92,-400
9,-48,-58,19,34,-53,0,-39,-68,78,-97,-400
-4,-63,-58,34,26,-61,0,-39,-73,73,-102,-400
-19,-78,-58,48,19,-68,0,-39,-78,68,-107,-400
0,-53,-53,26,26,-53,-14,-29,-73,68,-107,-385
19,-39,-58,9,39,-48,-19,-29,-68,68,-107,-380
39,-24,-63,-7,51,-43,-24,-29,-63,68,-107,-375
58,-9,-68,-24,63,-39,-29,-29,-58,68,-107,-370
63,-29,-92,-17,78,-61,-48,-34,-68,48,-117,-385
68,-39,-107,-14,87,-73,-58,-39,-78,39,-126,-390
73,-48,-122,-12,97,-85,-68,-43,-87,29,-136,-395
78,-58,-136,-9,107,-97,-78,-48,-97,19,-146,-400
92,-48,-141,-21,117,-95,-87,-58,-97,9,-146,-395
97,-39,-136,-29,117,-87,-97,-58,-97,9,-146,-390
102,-29,-131,-36,117,-80,-107,-58,-97,9,-146,-385
107,-19,-126,-43,117,-73,-117,-58,-97,9,-146,-380
92,-39,-131,-26,112,-85,-126,-73,-122,-14,-170,-400
78,-58,-136,-9,107,-97,-136,-78,-136,-29,-185,-409
63,-78,-141,7,102,-109,-146,-82,-151,-43,-200,-419
48,-97,-146,24,97,-122,-156,-87,-165,-58,-214,-429
63,-87,-151,12,107,-119,-156,-87,-175,-63,-219,-429
78,-78,-156,0,117,-117,-156,-87,-175,-68,-224,-429
92,-68,-161,-12,126,-114,-156,-87,-175,-73,-229,-429
107,-58,-165,-24,136,-112,-156,-87,-175,-78,-234,-429
102,-63,-165,-19,134,-114,-146,-102,-185,-92,-248,-429
97,-68,-165,-14,131,-117,-146,-107,-185,-97,-253,-429
92,-73,-165,-9,129,-119,-146,-112,-185,-102,-258,-429
87,-78,-165,-4,126,-122,-146,-117,-185,-107,-263,-429
87,-82,-170,-2,129,-126,-151,-131,-204,-126,-273,-439
87,-87,-175,0,131,-131,-156,-146,-214,-136,-283,-439
87,-92,-180,2,134,-136,-161,-161,-224,-146,-292,-439
87,-97,-185,4,136,-141,-165,-175,-234,-156,-302,-439
58,-107,-165,24,112,-136,-161,-165,-244,-161,-317,-439
29,-117,-146,43,87,-131,-156,-165,-244,-165,-322,-439
0,-126,-126,63,63,-126,-151,-165,-244,-170,-326,-439
-29,-136,-107,82,39,-122,-146,-165,-244,-175,-331,-439
0,-122,-122,61,61,-122,-131,-165,-239,-161,-317,-424
19,-107,-126,43,73,-117,-126,-165,-234,-156,-312,-419
39,-92,-131,26,85,-112,-122,-165,-229,-151,-307,-414
58,-78,-136,9,97,-107,-117,-165,-224,-146,-302,-409
82,-63,-146,-9,114,-104,-117,-161,-209,-141,-297,-405
97,-58,-156,-19,126,-107,-117,-156,-204,-136,-292,-400
112,-53,-165,-29,139,-109,-117,-151,-200,-131,-287,-395
126,-48,-175,-39,151,-112,-117,-146,-195,-126,-283,-390
107,-39,-146,-34,126,-92,-112,-136,-170,-97,-258,-370
97,-39,-136,-29,117,-87,-107,-126,-156,-78,-234,-351
87,-39,-126,-24,107,-82,-102,-117,-141,-58,-209,-331
78,-39,-117,-19,97,-78,-97,-107,-126,-39,-185,-312
58,-73,-131,7,95,-102,-87,-112,-126,-39,-175,-322
39,-97,-136,29,87,-117,-87,-117,-126,-39,-175,-322
19,-122,-141,51,80,-131,-87,-122,-126,-39,-175,-322
0,-146,-146,73,73,-146,-87,-126,-126,-39,-175,-322
29,-102,-131,36,80,-117,-58,-102,-87,0,-136,-287
48,-58,-107,4,78,-82,-29,-78,-58,29,-107,-263
68,-14,-82,-26,75,-48,0,-53,-29,58,-78,-239
87,29,-58,-58,73,-14,29,-29,0,87,-48,-214
92,29,-63,-61,78,-17,29,-39,9,102,-43,-209
97,29,-68,-63,82,-19,29,-39,9,107,-39,-204
102,29,-73,-65,87,-21,29,-39,9,112,-34,-200
107,29,-78,-68,92,-24,29,-39,9,117,-29,-195
92,29,-63,-61,78,-17,34,-29,24,126,-19,-180
78,29,-48,-53,63,-9,39,-29,29,136,-9,-175
63,29,-34,-46,48,-2,43,-29,34,146,0,-170
48,29,-19,-39,34,4,48,-29,39,156,9,-165
19,4,-14,-12,17,-4,43,-43,34,141,-4,-175
0,-9,-9,4,4,-9,39,-48,29,136,-9,-175
-19,-24,-4,21,-7,-14,34,-53,24,131,-14,-175
-39,-39,0,39,-19,-19,29,-58,19,126,-19,-175
-29,-39,-9,34,-9,-24,34,-63,9,126,-19,-180
-19,-39,-19,29,0,-29,39,-68,9,126,-19,-185
-9,-39,-29,24,9,-34,43,-73,9,126,-19,-190
0,-39,-39,19,19,-39,48,-78,9,126,-19,-195
14,-24,-39,4,26,-31,34,-92,4,112,-29,-185
29,-19,-48,-4,39,-34,29,-97,0,107,-29,-185
43,-14,-58,-14,51,-36,24,-102,-4,102,-29,-185
58,-9,-68,-24,63,-39,19,-107,-9,97,-29,-185
29,-29,-58,0,43,-43,29,-102,0,102,-19,-180
0,-39,-39,19,19,-39,29,-97,0,107,-19,-175
-29,-48,-19,39,-4,-34,29,-92,0,112,-19,-170
-58,-58,0,58,-29,-29,29,-87,0,117,-19,-165
-39,-39,0,39,-19,-19,19,-78,9,126,-9,-156
-19,-29,-9,24,-4,-19,19,-78,9,126,-9,-156
0,-19,-19,9,9,-19,19,-78,9,126,-9,-156
19,-9,-29,-4,24,-19,19,-78,9,126,-9,-156
24,-29,-53,2,39,-41,0,-82,-4,117,-14,-161
29,-39,-68,4,48,-53,-9,-87,-9,107,-19,-165
34,-48,-82,7,58,-65,-19,-92,-14,97,-24,-170
39,-58,-97,9,68,-78,-29,-97,-19,87,-29,-175
29,-48,-78,9,53,-63,-19,-87,-9,92,-24,-161
29,-48,-78,9,53,-63,-19,-87,-9,97,-19,-156
29,-48,-78,9,53,-63,-19,-87,-9,102,-14,-151
29,-48,-78,9,53,-63,-19,-87,-9,107,-9,-146
43,-48,-92,2,68,-70,-19,-87,-9,97,-9,-156
48,-48,-97,0,73,-73,-19,-87,-9,97,-9,-156
53,-48,-102,-2,78,-75,-19,-87,-9,97,-9,-156
24,-48,-73,12,48,-61,-4,-68,-9,122,4,-146
4,-34,-39,14,21,-36,24,-68,-4,131,19,-117
19,-29,-48,4,34,-39,19,-48,4,151,24,-126
-24,-29,-4,26,-9,-17,24,-24,29,146,34,-122
-112,-68,43,90,-78,-12,29,-43,48,146,39,-117
-87,-97,-9,92,-39,-53,4,-63,19,122,34,-131
-4,-78,-73,41,34,-75,0,-58,19,112,9,-156
29,-58,-87,14,58,-73,0,-39,29,131,24,-136
9,-68,-78,29,43,-73,4,-34,29,131,19,-131
-4,-92,-87,48,41,-90,0,-29,24,141,19,-131
19,-73,-92,26,56,-82,4,-24,34,151,29,-126
14,-39,-53,12,34,-46,9,-19,48,165,39,-117
-34,-73,-39,53,2,-56,14,-14,63,180,63,-107
-14,-68,-53,41,19,-61,9,-24,48,165,48,-112
48,-29,-78,-9,63,-53,9,-29,43,161,43,-126
97,-9,-107,-43,102,-58,9,-48,58,156,48,-131
136,0,-136,-68,136,-68,29,-53,43,151,43,-136
136,19,-117,-78,126,-48,43,-14,63,175,63,-107
87,29,-58,-58,73,-14,48,29,82,195,82,-87
19,34,14,-26,2,24,78,43,102,219,102,-68
19,63,43,-41,-12,53,92,92,122,253,122,-48
68,78,9,-73,29,43,87,107,117,248,126,-43
78,82,4,-80,36,43,78,112,117,244,122,-63
39,63,24,-51,7,43,68,122,112,234,107,-68
4,29,24,-17,-9,26,58,126,107,229,102,-68
9,19,9,-14,0,14,53,131,102,224,87,-82
-19,0,19,9,-19,9,53,126,97,229,92,-87
9,9,0,-9,4,4,43,112,78,204,78,-102
39,19,-19,-29,29,0,29,82,63,195,63,-117
53,53,0,-53,26,26,39,102,68,195,73,-97
48,43,-4,-46,26,19,58,107,63,195,78,-92
0,19,19,-9,-9,19,68,122,73,195,78,-92
9,34,24,-21,-7,29,53,112,68,195,78,-107
53,43,-9,-48,31,17,53,92,63,209,73,-107
19,19,0,-19,9,9,43,92,48,180,68,-112
19,9,-9,-14,14,0,19,87,34,170,34,-136
29,19,-9,-24,19,4,34,87,19,165,39,-141
29,14,-14,-21,21,0,48,102,43,180,34,-126
4,0,-4,-2,4,-2,34,102,43,180,48,-126
-29,-14,14,21,-21,0,29,102,34,165,48,-131
-73,-58,14,65,-43,-21,14,112,24,165,39,-146
-29,-48,-19,39,-4,-34,4,78,14,151,24,-165
9,-39,-48,14,29,-43,4,73,9,141,14,-170
63,-19,-82,-21,73,-51,9,73,4,131,4,-170
112,4,-107,-58,109,-51,19,78,0,122,-4,-175
102,4,-97,-53,100,-46,24,73,0,117,-9,-170
68,-4,-73,-31,70,-39,19,78,-4,112,-14,-190
78,19,-58,-48,68,-19,24,82,0,117,-9,-180
102,43,-58,-73,80,-7,43,102,19,141,9,-165
78,29,-48,-53,63,-9,48,107,14,141,4,-165
14,4,-9,-9,12,-2,43,97,14,141,9,-165
-39,-48,-9,43,-14,-29,39,97,14,141,9,-165
-63,-82,-19,73,-21,-51,29,87,14,131,0,-170
-19,-68,-48,43,14,-58,24,97,14,122,0,-195
14,-48,-63,17,39,-56,9,97,4,117,-4,-195
9,-43,-53,17,31,-48,9,97,4,117,-4,-195
0,-39,-39,19,19,-39,14,92,4,117,-4,-195
-24,-58,-34,41,4,-46,4,92,0,112,-9,-200
-39,-73,-34,56,-2,-53,4,92,0,122,-14,-200
-29,-82,-53,56,12,-68,4,87,-4,107,-24,-204
-58,-126,-68,92,4,-97,-9,73,-34,92,-48,-229
-48,-112,-63,80,7,-87,-4,87,-14,102,-43,-219
0,-48,-48,24,24,-48,14,107,-4,112,-24,-204
24,-24,-48,0,36,-36,24,122,19,131,-19,-204
0,-29,-29,14,14,-29,29,126,39,141,-9,-204
4,-29,-34,12,19,-31,29,126,14,131,-19,-204
24,-29,-53,2,39,-41,29,126,14,131,-29,-209
4,-58,-63,26,34,-61,29,126,14,122,-34,-214
0,-58,-58,29,29,-58,24,117,9,112,-34,-214
19,-24,-43,2,31,-34,43,136,29,136,-14,-209
24,4,-19,-14,21,-7,63,151,48,156,4,-190
24,-24,-48,0,36,-36,58,161,48,151,-9,-204
14,-34,-48,9,31,-41,58,170,58,151,-4,-200
-58,-53,4,56,-31,-24,78,170,53,151,4,-190
-14,-34,-19,24,2,-26,78,170,53,156,9,-185
34,-43,-78,4,56,-61,87,180,53,161,9,-180
24,-53,-78,14,51,-65,87,195,53,161,4,-180
-9,-97,-87,53,39,-92,78,156,34,136,-14,-195
-9,-87,-78,48,34,-82,68,141,24,122,-29,-209
-29,-92,-63,61,17,-78,58,136,14,112,-39,-224
-73,-141,-68,107,-2,-104,43,107,-4,97,-48,-248
-200,-224,-24,212,-87,-124,19,82,-24,87,-63,-244
43,-78,-122,17,82,-100,29,102,-4,107,-43,-224
200,107,-92,-153,146,7,107,175,68,185,29,-156
48,122,73,-85,-12,97,170,219,126,234,87,-97
-92,14,107,39,-100,61,141,190,102,204,58,-117
-43,-53,-9,48,-17,-31,73,122,34,146,0,-185
-14,-39,-24,26,4,-31,53,102,14,126,-19,-209
-19,-4,14,12,-17,4,68,97,29,136,-14,-209
-34,-9,24,21,-29,7,92,117,53,161,0,-190
-117,-97,19,107,-68,-39,97,102,43,141,0,-209
-97,-126,-29,112,-34,-78,78,82,14,107,-34,-244
39,-43,-82,2,61,-63,82,122,39,141,-9,-229
78,9,-68,-43,73,-29,112,224,136,234,82,-161
78,24,-53,-51,65,-14,146,312,234,356,219,-73
19,9,-9,-14,14,0,107,356,302,453,346,4
-29,0,29,14,-29,14,78,429,390,614,546,161
151,141,-9,-146,80,65,82,595,556,854,854,424
312,268,-43,-290,178,112,87,795,751,1132,1210,697
375,346,-29,-361,202,158,107,1083,1010,1473,1644,1054
570,492,-78,-531,324,207,146,1512,1371,1869,2132,1449
678,595,-82,-636,380,256,165,1966,1771,2283,2605,1825
629,610,-19,-619,324,295,146,2181,2020,2586,2986,2147
707,707,0,-707,353,353,78,2000,1952,2635,3147,2342
878,883,4,-880,436,444,24,1639,1664,2430,3020,2376
883,980,97,-932,392,539,0,1317,1346,2093,2659,2254
805,1029,224,-917,290,627,0,922,1005,1649,2132,1995
780,1098,317,-939,231,707,29,385,556,1088,1473,1605
595,1005,409,-800,92,707,87,-136,82,483,727,1054
253,766,512,-509,-129,639,170,-580,-351,-107,-48,400
87,658,570,-373,-241,614,258,-976,-707,-585,-649,-146
-34,619,653,-292,-344,636,317,-1259,-951,-829,-961,-488
-180,488,668,-153,-424,578,258,-1449,-1151,-976,-1117,-712
-170,370,541,-100,-356,456,82,-1581,-1361,-1098,-1205,-819
-161,307,468,-73,-314,387,-63,-1576,-1415,-1102,-1141,-785
-170,278,448,-53,-309,363,-146,-1459,-1337,-1010,-1019,-717
-131,253,385,-61,-258,319,-175,-1278,-1185,-897,-888,-644
-117,209,326,-46,-222,268,-165,-1034,-985,-732,-727,-546
-195,107,302,43,-248,204,-165,-824,-805,-585,-605,-478
-253,87,341,82,-297,214,-156,-668,-649,-458,-507,-439
-200,122,322,39,-261,222,-117,-492,-492,-331,-395,-375
-102,63,165,19,-134,114,-107,-375,-400,-248,-341,-370
-48,-4,43,26,-46,19,-82,-253,-297,-170,-287,-366
-87,-48,39,68,-63,-4,-39,-141,-219,-92,-214,-326
-136,-126,9,131,-73,-58,-48,-126,-204,-82,-204,-341
-112,-122,-9,117,-51,-65,-48,-107,-185,-78,-200,-331
-68,-97,-29,82,-19,-63,-24,-78,-151,-43,-170,-336
-39,-58,-19,48,-9,-39,-19,-68,-131,-39,-161,-317
-58,-68,-9,63,-24,-39,-9,-43,-117,-34,-161,-302
-63,-112,-48,87,-7,-80,-24,-43,-117,-39,-170,-317
-102,-156,-53,129,-24,-104,-19,-34,-112,-39,-170,-326
-117,-141,-24,129,-46,-82,0,-24,-92,-19,-165,-302
-107,-136,-29,122,-39,-82,14,-9,-78,-9,-136,-302
-92,-112,-19,102,-36,-65,19,-4,-73,-9,-126,-287
-73,-73,0,73,-36,-36,29,4,-73,0,-122,-283
-53,-63,-9,58,-21,-36,39,9,-58,9,-112,-273
4,-19,-24,7,14,-21,48,19,-43,19,-102,-273
39,-14,-53,-12,46,-34,58,53,-29,29,-102,-273
9,-39,-48,14,29,-43,48,43,-19,43,-102,-268
-4,-34,-29,19,12,-31,58,43,-9,43,-92,-253
-9,-4,4,7,-7,0,73,48,-4,48,-78,-234
-39,-29,9,34,-24,-9,73,48,-4,48,-78,-229
-82,-68,14,75,-48,-26,58,29,-29,34,-97,-244
-112,-92,19,102,-65,-36,48,14,-43,14,-102,-253
-97,-112,-14,104,-41,-63,43,9,-53,14,-107,-253
-107,-117,-9,112,-48,-63,24,29,-58,9,-112,-278
-29,-73,-43,51,7,-58,39,58,-48,24,-97,-263
14,-63,-78,24,46,-70,43,53,-39,19,-97,-258
24,-48,-73,12,48,-61,48,53,-29,34,-102,-244
4,-43,-48,19,26,-46,58,43,-19,48,-87,-224
-43,-78,-34,61,-4,-56,48,24,-34,24,-97,-229
-29,-63,-34,46,2,-48,48,39,-29,19,-92,-253
0,-34,-34,17,17,-34,58,43,-29,34,-87,-229
-14,-43,-29,29,7,-36,58,53,-34,29,-92,-244
-4,-78,-73,41,34,-75,43,29,-43,-4,-126,-258
-39,-102,-63,70,12,-82,39,24,-48,4,-131,-268
-34,-97,-63,65,14,-80,58,48,-43,9,-117,-248
0,-78,-78,39,39,-78,43,34,-53,4,-122,-278
4,-136,-141,65,73,-139,34,14,-78,-19,-136,-273
-9,-112,-102,61,46,-107,24,14,-78,-19,-136,-273
-9,-39,-29,24,9,-34,58,34,-63,-19,-131,-263
-43,-53,-9,48,-17,-31,43,24,-78,-29,-131,-283
-97,-156,-58,126,-19,-107,24,9,-92,-43,-151,-302
-92,-146,-53,119,-19,-100,39,39,-63,-24,-136,-273
-68,-122,-53,95,-7,-87,39,48,-43,-14,-122,-273
-92,-151,-58,122,-17,-104,34,39,-63,-29,-136,-287
-97,-136,-39,117,-29,-87,19,43,-63,-29,-146,-278
-39,-107,-68,73,14,-87,19,34,-73,-29,-141,-278
-9,-87,-78,48,34,-82,34,53,-63,-29,-131,-273
4,-73,-78,34,41,-75,24,78,-58,-14,-122,-273
-43,-82,-39,63,-2,-61,29,68,-53,-19,-126,-268
-78,-107,-29,92,-24,-68,34,68,-53,-24,-117,-268
-68,-126,-58,97,-4,-92,39,63,-53,-34,-131,-268
-87,-151,-63,119,-12,-107,43,39,-58,-43,-141,-283
-87,-117,-29,102,-29,-73,34,58,-53,-29,-122,-253
-87,-92,-4,90,-41,-48,53,63,-48,-24,-107,-244
-24,-53,-29,39,2,-41,58,73,-43,-19,-97,-244
53,-34,-87,-9,70,-61,58,78,-48,-19,-87,-239
9,-53,-63,21,36,-58,48,58,-63,-34,-107,-248
-34,-97,-63,65,14,-80,43,53,-63,-53,-117,-239
-24,-107,-82,65,29,-95,34,53,-63,-58,-126,-239
-4,-107,-102,56,48,-104,24,48,-63,-39,-131,-239
0,-82,-82,41,41,-82,14,58,-68,-39,-107,-229
9,-82,-92,36,51,-87,14,58,-68,-39,-107,-224
-19,-102,-82,61,31,-92,4,53,-82,-53,-112,-219
19,-82,-102,31,61,-92,4,53,-68,-34,-112,-209
34,-48,-82,7,58,-65,19,68,-63,-29,-92,-195
0,-73,-73,36,36,-73,19,68,-58,-39,-92,-200
-29,-102,-73,65,21,-87,9,68,-53,-43,-97,-195
-48,-102,-53,75,2,-78,29,68,-48,-24,-102,-180
-68,-97,-29,82,-19,-63,24,63,-53,-34,-107,-190
-82,-92,-9,87,-36,-51,19,78,-58,-39,-97,-180
-73,-107,-34,90,-19,-70,9,58,-68,-43,-112,-180
-87,-131,-43,109,-21,-87,-14,39,-87,-63,-126,-195
-63,-117,-53,90,-4,-85,-14,48,-78,-68,-117,-185
-39,-87,-48,63,4,-68,24,82,-53,-43,-107,-151
-19,-58,-39,39,9,-48,34,92,-43,-39,-92,-136
4,-63,-68,29,36,-65,24,92,-43,-43,-112,-156
4,-97,-102,46,53,-100,4,78,-68,-68,-122,-161
9,-78,-87,34,48,-82,14,87,-68,-58,-122,-161
0,-87,-87,43,43,-87,9,87,-58,-58,-122,-156
-53,-117,-63,85,4,-90,-4,82,-68,-68,-126,-156
-48,-112,-63,80,7,-87,-9,78,-73,-87,-136,-165
-19,-112,-92,65,36,-102,-9,92,-68,-87,-136,-165
0,-102,-102,51,51,-102,0,122,-58,-73,-122,-156
14,-102,-117,43,65,-109,0,117,-53,-73,-131,-136
39,-112,-151,36,95,-131,-4,117,-48,-82,-136,-156
19,-117,-136,48,78,-126,-4,112,-63,-97,-141,-156
-9,-131,-122,70,56,-126,0,107,-53,-102,-151,-156
-14,-131,-117,73,51,-124,0,107,-53,-102,-151,-156
39,-78,-117,19,78,-97,-19,102,-58,-117,-161,-156
43,-87,-131,21,87,-109,-19,102,-73,-122,-190,-175
29,-107,-136,39,82,-122,-19,102,-63,-122,-190,-175
34,-63,-97,14,65,-80,-9,122,-53,-112,-180,-146
34,-68,-102,17,68,-85,-4,131,-48,-122,-165,-170
9,-107,-117,48,63,-112,-14,107,-82,-146,-204,-170
-14,-117,-102,65,43,-109,-9,102,-102,-161,-214,-175
-34,-131,-97,82,31,-114,-9,92,-112,-165,-229,-175
-24,-141,-117,82,46,-129,-9,78,-112,-180,-239,-190
19,-107,-126,43,73,-117,-4,78,-117,-185,-248,-185
-14,-107,-92,61,39,-100,-4,78,-122,-185,-258,-190
-78,-156,-78,117,0,-117,-19,73,-126,-195,-278,-204
-73,-151,-78,112,2,-114,-29,63,-136,-200,-287,-219
-24,-146,-122,85,48,-134,-34,48,-146,-214,-302,-219
9,-141,-151,65,80,-146,-34,39,-156,-214,-307,-229
43,-117,-161,36,102,-139,-29,29,-156,-214,-312,-229
48,-87,-136,19,92,-112,-14,43,-146,-209,-302,-209
87,-78,-165,-4,126,-122,-14,48,-146,-209,-307,-209
68,-63,-131,-2,100,-97,-24,53,-146,-204,-317,-204
63,-58,-122,-2,92,-90,-24,58,-146,-204,-307,-204
58,-92,-151,17,104,-122,-29,48,-161,-224,-317,-214
34,-117,-151,41,92,-134,-39,29,-170,-234,-322,-219
14,-126,-141,56,78,-134,-53,9,-185,-244,-336,-229
39,-131,-170,46,104,-151,-53,-9,-190,-248,-341,-244
87,-73,-161,-7,124,-117,-43,9,-156,-229,-322,-209
102,-53,-156,-24,129,-104,-29,24,-151,-204,-297,-195
107,-53,-161,-26,134,-107,-29,24,-146,-214,-292,-195
156,-53,-209,-51,183,-131,-39,24,-141,-209,-287,-185
117,-58,-175,-29,146,-117,-34,43,-112,-185,-248,-141
48,-48,-97,0,73,-73,-29,63,-92,-136,-214,-126
9,-39,-48,14,29,-43,-9,73,-68,-92,-180,-92
-19,-24,-4,21,-7,-14,4,82,-43,-53,-136,-48
-34,-24,9,29,-21,-7,0,82,-43,-48,-141,-53
-19,-19,0,19,-9,-9,-4,82,-34,-39,-122,-48
0,14,14,-7,-7,14,9,102,-14,-19,-97,-34
34,24,-9,-29,21,7,4,97,9,-14,-87,-24
24,-19,-43,-2,34,-31,9,78,-14,-14,-78,-39
9,-19,-29,4,19,-24,14,87,-4,-4,-87,-39
34,19,-14,-26,24,2,34,117,29,29,-58,-9
53,63,9,-58,21,36,58,126,48,48,-14,14
58,53,-4,-56,31,24,73,117,43,53,-4,4
48,48,0,-48,24,24,53,117,43,68,-9,4
9,29,19,-19,-4,24,34,117,43,63,-14,4
-29,-34,-4,31,-12,-19,29,117,43,48,-19,4
-68,-39,29,53,-48,-4,43,126,58,63,0,14
-34,-4,29,19,-31,12,58,141,87,92,34,29
63,53,-9,-58,36,21,78,146,87,112,39,39
107,63,-43,-85,75,9,82,146,82,117,39,43
48,43,-4,-46,26,19,97,156,87,122,34,58
19,58,39,-39,-9,48,112,161,107,131,48,73
39,82,43,-61,-2,63,126,165,112,141,53,78
48,78,29,-63,9,53,117,165,102,126,43,58
92,68,-24,-80,58,21,102,161,87,117,29,29
117,92,-24,-104,70,34,112,170,97,112,39,53
102,73,-29,-87,65,21,107,165,92,112,34,82
102,43,-58,-73,80,-7,87,146,73,112,14,43
122,24,-97,-73,109,-36,82,141,63,102,14,29
97,43,-53,-70,75,-4,92,146,73,102,29,63
92,48,-43,-70,68,2,87,141,73,112,34,63
97,48,-48,-73,73,0,82,131,68,112,34,34
73,29,-43,-51,58,-7,63,136,68,112,34,68
58,-19,-78,-19,68,-48,63,136,68,112,34,68
-24,-39,-14,31,-4,-26,68,141,73,102,34,68
-29,-39,-9,34,-9,-24,73,141,78,112,34,78
4,-14,-19,4,12,-17,68,141,68,102,43,78
-9,-4,4,7,-7,0,63,141,53,102,34,78
-34,-14,19,24,-26,2,58,136,53,102,34,68
-43,-4,39,24,-41,17,53,136,53,97,34,63
-14,-14,0,14,-7,-7,48,117,48,63,19,58
4,4,0,-4,2,2,43,131,48,92,29,58
14,29,14,-21,0,21,53,146,68,122,43,63
14,19,4,-17,4,12,48,161,68,122,39,73
24,4,-19,-14,21,-7,39,136,48,97,34,82
43,9,-34,-26,39,-12,34,117,43,97,34,63
43,-24,-68,-9,56,-46,24,112,39,87,34,63
39,-39,-78,0,58,-58,9,107,34,87,24,63
-24,-68,-43,46,9,-56,0,107,24,73,4,43
24,-19,-43,-2,34,-31,14,126,34,102,24,63
117,53,-63,-85,90,-4,48,156,58,122,53,92
136,78,-58,-107,97,9,68,165,68,136,58,107
122,63,-58,-92,90,2,43,156,58,122,53,97
107,48,-58,-78,82,-4,29,146,48,117,48,87
92,34,-58,-63,75,-12,14,136,39,112,43,78
78,19,-58,-48,68,-19,0,126,29,107,39,68
34,0,-34,-17,34,-17,4,136,29,122,39,63
48,4,-43,-26,46,-19,19,112,24,117,34,82
87,0,-87,-43,87,-43,9,117,24,122,29,63
68,-9,-78,-29,73,-43,9,126,39,102,29,58
19,-29,-48,4,34,-39,24,107,39,112,39,63
24,-29,-53,2,39,-41,19,87,19,102,39,58
97,9,-87,-53,92,-39,24,92,19,97,19,43
122,48,-73,-85,97,-12,34,112,29,122,39,73
87,48,-39,-68,63,4,48,112,34,122,48,82
78,9,-68,-43,73,-29,43,112,24,122,39,68
107,24,-82,-65,95,-29,48,112,29,122,39,68
107,53,-53,-80,80,0,53,112,39,126,39,73
43,24,-19,-34,31,2,58,117,53,136,63,82
4,9,4,-7,0,7,68,126,53,141,53,87
9,39,29,-24,-9,34,73,131,53,146,53,82
0,48,48,-24,-24,48,78,122,73,151,63,87
-14,48,63,-17,-39,56,97,131,68,156,73,92
4,43,39,-24,-17,41,97,131,73,161,63,97
-24,39,63,-7,-43,51,87,146,78,161,63,102
-73,29,102,21,-87,65,102,131,82,165,63,107
-29,58,87,-14,-58,73,112,161,87,180,73,107
53,102,48,-78,2,75,126,161,92,195,82,117
87,126,39,-107,24,82,136,161,102,200,82,102
73,126,53,-100,9,90,146,165,107,200,73,102
39,92,53,-65,-7,73,131,161,107,195,63,107
34,87,53,-61,-9,70,131,165,107,190,63,107
-4,63,68,-29,-36,65,126,161,107,195,73,107
14,68,53,-41,-19,61,112,146,92,170,63,97
39,63,24,-51,7,43,97,126,82,175,53,78
68,102,34,-85,17,68,97,141,92,175,53,92
68,87,19,-78,24,53,117,151,92,175,58,92
24,58,34,-41,-4,46,126,170,107,175,58,87
53,82,29,-68,12,56,112,161,97,175,58,78
92,82,-9,-87,51,36,112,151,97,195,68,92
63,58,-4,-61,34,26,102,151,87,170,68,92
68,48,-19,-58,43,14,78,146,78,165,39,73
48,43,-4,-46,26,19,73,141,53,151,43,58
63,39,-24,-51,43,7,82,141,82,170,43,68
53,24,-29,-39,41,-2,63,136,78,165,53,63
34,9,-24,-21,29,-7,53,131,63,146,48,53
0,-14,-14,7,7,-14,39,165,58,151,43,48
-4,-9,-4,7,0,-7,24,161,58,151,43,53
-4,-4,0,4,-2,-2,19,175,63,156,48,63
9,9,0,-9,4,4,19,195,68,161,53,78
43,9,-34,-26,39,-12,14,204,48,151,43,68
53,-14,-68,-19,61,-41,0,195,34,131,24,53
29,-39,-68,4,48,-53,-14,195,14,112,4,24
48,-29,-78,-9,63,-53,-19,195,4,102,-4,24
53,0,-53,-26,53,-26,19,229,39,141,29,48
43,24,-19,-34,31,2,43,253,53,161,43,58
-4,39,43,-17,-24,41,58,253,63,170,58,68
-43,24,68,9,-56,46,73,263,73,180,68,78
-39,0,39,19,-39,19,48,239,58,151,39,53
4,-4,-9,0,7,-7,34,234,34,131,19,29
39,-4,-43,-17,41,-24,9,229,9,117,4,19
34,-19,-53,-7,43,-36,0,224,-4,107,-4,9
39,0,-39,-19,39,-19,19,229,0,112,4,19
39,9,-29,-24,34,-9,24,239,4,117,14,19
39,24,-14,-31,26,4,29,248,14,136,14,24
63,43,-19,-53,41,12,34,253,19,131,9,24
48,-4,-53,-21,51,-29,0,219,-14,102,-19,-4
48,-19,-68,-14,58,-43,-9,209,-14,92,-29,-14
87,14,-73,-51,80,-29,-4,214,-24,82,-24,-9
102,9,-92,-56,97,-41,-9,214,-19,82,-34,-19
48,-4,-53,-21,51,-29,-4,219,-4,97,-14,-14
39,0,-39,-19,39,-19,0,214,-14,102,-9,-9
43,4,-39,-24,41,-17,4,219,-9,107,-14,-9
9,-19,-29,4,19,-24,9,224,-4,102,-14,-9
-4,-29,-24,17,9,-26,19,224,-9,82,-19,-24
19,-14,-34,-2,26,-24,24,224,-9,92,-19,-29
19,4,-14,-12,17,-4,39,229,0,107,-9,-19
14,-34,-48,9,31,-41,29,229,-9,97,-34,-43
34,-14,-48,-9,41,-31,34,239,0,102,-19,-34
-9,4,14,2,-12,9,58,248,14,112,-4,-19
53,53,0,-53,26,26,63,258,24,126,4,-9
122,73,-48,-97,85,12,78,278,34,141,9,0
97,63,-34,-80,65,14,87,292,34,131,4,-4
78,43,-34,-61,56,4,87,268,34,126,4,-4
92,68,-24,-80,58,21,87,268,34,122,0,-4
87,78,-9,-82,48,34,87,278,34,122,0,-4
-14,-24,-9,19,-2,-17,43,244,4,107,-29,-53
-14,9,24,2,-19,17,48,258,24,126,-4,-29
82,107,24,-95,29,65,78,278,53,156,14,0
63,107,43,-85,9,75,68,283,58,146,19,9
-48,63,112,-7,-80,87,73,287,68,136,29,9
-63,14,78,24,-70,46,73,287,53,126,19,0
-73,-82,-9,78,-31,-46,34,239,14,87,-19,-48
-34,-58,-24,46,-4,-41,34,248,24,97,-19,-43
107,92,-14,-100,61,39,78,302,58,136,14,-4
180,136,-43,-158,112,46,102,312,82,151,29,4
156,136,-19,-146,87,58,136,336,102,180,48,24
87,87,0,-87,43,43,136,356,112,175,53,9
78,34,-43,-56,61,-4,92,336,87,151,29,-24
117,68,-48,-92,82,9,92,380,136,204,92,14
107,141,34,-124,36,87,146,478,253,356,248,131
48,195,146,-122,-48,170,185,590,400,551,473,307
19,224,204,-122,-92,214,185,732,536,761,732,531
180,268,87,-224,46,178,141,868,653,941,1000,746
331,356,24,-344,153,190,126,1078,819,1190,1337,1010
375,414,39,-395,168,226,136,1415,1098,1522,1751,1366
473,414,-58,-444,265,178,117,1825,1429,1869,2181,1703
785,614,-170,-700,478,222,146,2269,1820,2254,2644,2078
941,863,-78,-902,509,392,204,2513,2108,2596,3054,2469
883,912,29,-897,427,470,156,2293,2000,2596,3128,2625
936,922,-14,-929,475,453,43,1844,1644,2283,2845,2522
922,1000,78,-961,422,539,19,1493,1337,1917,2425,2332
775,1019,244,-897,265,631,29,1049,956,1434,1849,2015
663,951,287,-807,187,619,0,434,429,805,1112,1498
488,810,322,-649,82,566,39,-87,-4,200,346,878
322,727,405,-524,-41,566,161,-444,-331,-263,-292,302
185,668,483,-427,-148,575,248,-790,-639,-634,-756,-156
4,610,605,-307,-300,607,317,-1063,-854,-810,-980,-409
-161,595,756,-217,-458,675,336,-1166,-956,-829,-980,-448
-258,448,707,-95,-483,578,200,-1259,-1137,-922,-990,-468
-268,239,507,14,-387,373,-34,-1351,-1298,-1024,-1024,-522
-151,239,390,-43,-270,314,-136,-1273,-1249,-980,-951,-483
-73,302,375,-114,-224,339,-126,-1054,-1068,-849,-800,-390
-165,229,395,-31,-280,312,-117,-829,-897,-712,-678,-322
-117,165,283,-24,-200,224,-165,-668,-746,-595,-585,-302
0,195,195,-97,-97,195,-165,-512,-590,-458,-468,-244
-102,82,185,9,-143,134,-136,-366,-453,-351,-375,-190
-131,-82,48,107,-90,-17,-165,-268,-400,-317,-370,-204
29,-43,-73,7,51,-58,-151,-165,-317,-239,-307,-180
97,68,-29,-82,63,19,-48,-24,-190,-122,-195,-82
0,0,0,0,0,0,-39,0,-156,-112,-175,-87
24,-63,-87,19,56,-75,-78,-39,-185,-156,-209,-126
43,-39,-82,-2,63,-61,-53,-9,-146,-107,-180,-117
58,9,-48,-34,53,-19,-39,9,-122,-97,-161,-92
24,9,-14,-17,19,-2,-19,43,-102,-87,-151,-73
4,-24,-29,9,17,-26,-24,53,-97,-87,-151,-82
-19,-58,-39,39,9,-48,-24,43,-107,-92,-161,-92
-19,-43,-24,31,2,-34,-9,43,-92,-78,-156,-68
4,-39,-43,17,24,-41,0,48,-82,-73,-126,-68
34,-14,-48,-9,41,-31,0,43,-82,-78,-117,-53
39,4,-34,-21,36,-14,0,34,-87,-78,-131,-58
43,-4,-48,-19,46,-26,0,29,-87,-78,-131,-58
87,19,-68,-53,78,-24,0,29,-87,-78,-131,-68
107,4,-102,-56,104,-48,0,53,-87,-78,-141,-78
68,-43,-112,-12,90,-78,4,43,-87,-73,-141,-73
34,-53,-87,9,61,-70,19,43,-78,-73,-131,-58
9,-39,-48,14,29,-43,39,48,-73,-68,-117,-39
-39,-78,-39,58,0,-58,43,48,-73,-68,-117,-34
-24,-78,-53,51,14,-65,29,29,-97,-92,-141,-48
-14,-63,-48,39,17,-56,19,14,-102,-112,-151,-58
39,-43,-82,2,61,-63,14,9,-102,-112,-161,-58
68,-9,-78,-29,73,-43,-4,29,-97,-117,-170,-82
87,-14,-102,-36,95,-58,14,43,-87,-107,-165,-78
82,-34,-117,-24,100,-75,14,34,-87,-117,-165,-73
43,-48,-92,2,68,-70,14,29,-87,-107,-170,-58
-24,-73,-48,48,12,-61,19,14,-87,-97,-156,-39
-53,-78,-24,65,-14,-51,14,4,-87,-117,-156,-48
-19,-53,-34,36,7,-43,9,19,-78,-117,-151,-68
29,-14,-43,-7,36,-29,14,24,-73,-97,-146,-39
34,-14,-48,-9,41,-31,9,34,-73,-97,-151,-48
34,-29,-63,-2,48,-46,19,24,-73,-117,-161,-43
0,-43,-43,21,21,-43,19,24,-68,-102,-161,-43
4,-29,-34,12,19,-31,43,53,-53,-92,-141,-14
39,0,-39,-19,39,-19,34,43,-53,-92,-141,-34
78,-53,-131,-12,104,-92,24,29,-63,-102,-141,-24
87,-24,-112,-31,100,-68,24,34,-58,-97,-136,-19
112,53,-58,-82,85,-2,68,58,-39,-92,-126,-4
102,43,-58,-73,80,-7,63,53,-48,-97,-122,-19
43,-39,-82,-2,63,-61,43,43,-68,-107,-131,-24
43,-19,-63,-12,53,-41,58,78,-34,-82,-117,9
63,14,-48,-39,56,-17,58,92,-9,-68,-102,14
34,-4,-39,-14,36,-21,53,87,-24,-78,-117,4
29,0,-29,-14,29,-14,39,73,-34,-87,-126,14
78,19,-58,-48,68,-19,39,63,-43,-87,-122,14
97,29,-68,-63,82,-19,53,82,-34,-87,-112,19
102,34,-68,-68,85,-17,43,107,-29,-73,-102,19
58,19,-39,-39,48,-9,29,92,-29,-78,-122,29
39,-9,-48,-14,43,-29,24,87,-34,-82,-117,24
63,-34,-97,-14,80,-65,19,78,-39,-92,-136,19
58,-63,-122,2,90,-92,14,48,-48,-102,-151,0
43,-39,-82,-2,63,-61,-9,53,-48,-112,-151,19
19,-34,-53,7,36,-43,4,53,-48,-112,-146,19
58,-14,-73,-21,65,-43,4,58,-48,-112,-146,9
112,-14,-126,-48,119,-70,0,58,-58,-117,-146,4
82,-19,-102,-31,92,-61,0,58,-48,-122,-141,14
43,-48,-92,2,68,-70,4,63,-43,-131,-146,24
58,-43,-102,-7,80,-73,4,73,-39,-126,-151,24
82,-29,-112,-26,97,-70,4,78,-34,-97,-151,24
63,-14,-78,-24,70,-46,4,97,-19,-97,-131,39
58,-24,-82,-17,70,-53,4,97,-19,-97,-126,48
14,-53,-68,19,41,-61,-4,92,-34,-112,-126,58
39,-43,-82,2,61,-63,-4,92,-19,-92,-122,73
82,0,-82,-41,82,-41,-9,82,-34,-97,-126,68
78,-24,-102,-26,90,-63,-19,78,-39,-117,-131,53
78,-53,-131,-12,104,-92,-39,73,-43,-131,-141,48
87,-53,-141,-17,114,-97,-29,68,-48,-122,-151,53
63,-39,-102,-12,82,-70,-14,63,-48,-131,-161,43
43,-24,-68,-9,56,-46,-9,78,-48,-136,-146,53
48,-29,-78,-9,63,-53,-9,58,-53,-141,-156,53
29,-43,-73,7,51,-58,-24,39,-68,-161,-165,39
68,-19,-87,-24,78,-53,-34,53,-63,-156,-165,48
107,19,-87,-63,97,-34,-4,82,-43,-131,-156,82
141,58,-82,-100,112,-12,-4,87,-39,-126,-141,97
180,63,-117,-122,148,-26,-24,82,-43,-131,-161,78
175,24,-151,-100,163,-63,-34,73,-48,-156,-175,73
185,48,-136,-117,161,-43,-14,87,-48,-146,-170,73
180,43,-136,-112,158,-46,-9,92,-39,-146,-165,78
131,19,-112,-75,122,-46,-14,92,-48,-156,-165,78
87,-4,-92,-41,90,-48,-34,68,-68,-190,-180,63
78,-24,-102,-26,90,-63,-39,73,-68,-195,-185,58
58,-34,-92,-12,75,-63,-34,92,-63,-185,-175,63
34,-53,-87,9,61,-70,-39,78,-63,-190,-190,78
92,-34,-126,-29,109,-80,-43,82,-68,-200,-200,63
97,-29,-126,-34,112,-78,-43,82,-82,-214,-200,68
92,-34,-126,-29,109,-80,-39,82,-73,-219,-204,73
112,-24,-136,-43,124,-80,-39,87,-73,-219,-200,78
151,-4,-156,-73,153,-80,-63,68,-107,-248,-224,58
151,-29,-180,-61,165,-104,-78,53,-131,-268,-268,29
131,-63,-195,-34,163,-129,-92,39,-131,-283,-283,19
131,-34,-165,-48,148,-100,-97,43,-131,-287,-287,39
146,-9,-156,-68,151,-82,-87,58,-112,-278,-268,24
136,-39,-175,-48,156,-107,-92,39,-141,-302,-302,24
126,-39,-165,-43,146,-102,-82,39,-156,-317,-307,19
122,-43,-165,-39,143,-104,-78,34,-161,-322,-317,19
126,-53,-180,-36,153,-117,-78,24,-170,-331,-326,4
175,-19,-195,-78,185,-107,-73,19,-175,-341,-336,9
146,-19,-165,-63,156,-92,-73,14,-180,-346,-346,4
87,-68,-156,-9,122,-112,-87,4,-185,-361,-366,-9
58,-58,-117,0,87,-87,-82,9,-180,-351,-351,-9
82,-48,-131,-17,107,-90,-82,9,-185,-361,-361,-4
92,-39,-131,-26,112,-85,-78,14,-190,-356,-361,-9
102,-9,-112,-46,107,-61,-68,19,-185,-351,-361,-4
122,14,-107,-68,114,-46,-58,19,-185,-366,-356,9
165,19,-146,-92,156,-63,-53,19,-185,-366,-356,14
151,29,-122,-90,136,-46,-58,19,-185,-361,-361,24
151,29,-122,-90,136,-46,-53,19,-185,-361,-346,29
141,4,-136,-73,139,-65,-43,24,-180,-356,-351,34
102,-19,-122,-41,112,-70,-48,19,-180,-361,-351,34
68,-29,-97,-19,82,-63,-58,14,-185,-366,-361,29
78,-34,-112,-21,95,-73,-53,9,-180,-366,-361,19
136,14,-122,-75,129,-53,-48,14,-156,-356,-351,39
161,34,-126,-97,143,-46,-39,24,-161,-341,-336,48
175,34,-141,-104,158,-53,-43,19,-165,-361,-341,43
234,34,-200,-134,217,-82,-58,14,-170,-366,-346,48
209,29,-180,-119,195,-75,-48,39,-141,-341,-312,82
156,29,-126,-92,141,-48,-39,63,-122,-302,-283,87
131,29,-102,-80,117,-36,-14,78,-97,-268,-253,112
117,34,-82,-75,100,-24,4,92,-73,-239,-214,146
156,131,-24,-143,90,53,53,156,-4,-180,-151,204
117,87,-29,-102,73,29,34,151,14,-165,-141,204
102,53,-48,-78,75,2,4,126,4,-180,-156,195
92,63,-29,-78,61,17,-4,126,9,-170,-146,200
146,9,-136,-78,141,-63,-29,107,-19,-185,-165,165
141,24,-117,-82,129,-46,-14,131,0,-170,-146,185
136,39,-97,-87,117,-29,0,146,19,-156,-126,195
131,53,-78,-92,104,-12,14,161,39,-141,-107,204
126,68,-58,-97,92,4,29,175,58,-126,-87,214
112,92,-19,-102,65,36,58,209,68,-92,-58,244
146,122,-24,-134,85,48,78,200,73,-78,-43,278
204,141,-63,-173,134,39,73,219,82,-53,-29,273
204,156,-48,-180,126,53,78,244,107,-53,-9,283
136,117,-19,-126,78,48,63,239,102,-68,-19,273
131,107,-24,-119,78,41,48,224,78,-82,-19,263
195,136,-58,-165,126,39,43,234,73,-92,-39,244
209,165,-43,-187,126,61,43,258,78,-73,-19,268
161,161,0,-161,80,80,53,268,78,-63,-9,287
146,117,-29,-131,87,43,43,268,63,-63,-19,273
170,126,-43,-148,107,41,43,268,63,-63,-19,273
165,151,-14,-158,90,68,43,268,68,-58,-19,278
102,97,-4,-100,53,46,43,258,58,-68,-14,268
73,68,-4,-70,39,31,48,263,53,-73,-34,263
87,82,-4,-85,46,39,48,263,48,-78,-43,248
87,78,-9,-82,48,34,48,248,63,-82,-43,244
102,87,-14,-95,58,36,58,258,63,-68,-24,263
141,92,-48,-117,95,21,58,268,63,-63,-24,273
131,97,-34,-114,82,31,48,292,63,-63,-14,283
102,97,-4,-100,53,46,63,287,63,-58,-4,292
112,102,-9,-107,61,46,63,297,53,-53,4,292
170,131,-39,-151,104,46,68,297,53,-48,14,302
180,141,-39,-161,109,51,68,297,58,-53,14,287
141,126,-14,-134,78,56,68,302,58,-63,4,287
102,92,-9,-97,56,41,48,292,48,-68,0,278
102,87,-14,-95,58,36,43,292,48,-73,-4,273
68,63,-4,-65,36,29,34,283,48,-68,0,268
92,68,-24,-80,58,21,14,263,34,-92,-14,253
107,68,-39,-87,73,14,9,253,24,-87,-24,253
136,112,-24,-124,80,43,9,268,34,-87,-24,268
136,102,-34,-119,85,34,29,278,34,-87,-19,268
92,78,-14,-85,53,31,39,297,48,-87,-19,263
102,78,-24,-90,63,26,24,287,39,-87,-19,244
122,73,-48,-97,85,12,24,278,39,-68,-9,258
73,43,-29,-58,51,7,14,278,29,-92,-9,258
58,29,-29,-43,43,0,-9,273,19,-97,-39,239
68,43,-24,-56,46,9,9,287,24,-82,-19,258
92,58,-34,-75,63,12,34,297,63,-53,-4,283
92,63,-29,-78,61,17,29,302,68,-48,19,292
82,68,-14,-75,48,26,34,307,63,-58,29,297
92,63,-29,-78,61,17,39,331,68,-43,29,297
112,78,-34,-95,73,21,34,317,68,-43,34,297
136,92,-43,-114,90,24,39,322,73,-39,43,302
175,117,-58,-146,117,29,48,331,78,-34,53,312
170,141,-29,-156,100,56,58,356,87,-14,63,317
161,122,-39,-141,100,41,48,351,92,-14,63,317
117,102,-14,-109,65,43,39,356,92,-14,63,302
117,117,0,-117,58,58,39,361,102,-4,73,317
151,117,-34,-134,92,41,58,370,107,9,87,322
151,122,-29,-136,90,46,73,380,112,14,92,322
112,117,4,-114,53,61,78,366,112,9,97,322
82,82,0,-82,41,41,82,361,112,4,97,322
87,73,-14,-80,51,29,82,351,122,4,87,326
131,82,-48,-107,90,17,82,351,112,-4,78,312
165,97,-68,-131,117,14,73,351,102,-9,73,312
161,97,-63,-129,112,17,78,351,102,-9,73,312
146,107,-39,-126,92,34,97,361,112,0,87,322
136,107,-29,-122,82,39,102,366,122,9,102,322
126,112,-14,-119,70,48,107,370,136,34,107,326
141,122,-19,-131,80,51,112,370,146,34,107,326
107,102,-4,-104,56,48,112,361,136,29,102,317
97,107,9,-102,43,58,117,366,151,34,107,326
126,161,34,-143,46,97,136,385,156,39,126,351
131,175,43,-153,43,109,146,400,175,53,131,361
117,141,24,-129,46,82,131,385,165,39,122,341
126,126,0,-126,63,63,126,361,141,34,117,331
151,112,-39,-131,95,36,122,346,131,29,102,317
136,68,-68,-102,102,0,117,331,122,14,92,302
112,87,-24,-100,68,31,126,326,122,9,102,312
136,131,-4,-134,70,63,131,331,126,24,117,322
136,180,43,-158,46,112,146,341,141,43,141,346
131,170,39,-151,46,104,136,346,136,39,131,336
131,146,14,-139,58,80,112,326,117,19,122,322
68,131,63,-100,2,97,117,307,112,14,122,322
112,146,34,-129,39,90,102,287,102,14,117,317
161,131,-29,-146,95,51,97,278,92,14,107,312
141,126,-14,-134,78,56,78,273,82,4,107,312
117,102,-14,-109,65,43,68,239,82,0,112,317
126,122,-4,-124,65,58,58,229,82,-4,112,322
117,126,9,-122,53,68,48,229,82,-4,117,326
122,180,58,-151,31,119,92,263,112,19,136,366
209,175,-34,-192,122,70,68,219,82,-9,112,322
200,136,-63,-168,131,36,48,180,53,-29,92,302
102,117,14,-109,43,65,58,185,58,-19,107,312
78,102,24,-90,26,63,53,170,48,-19,87,292
161,141,-19,-151,90,61,53,180,63,-19,87,292
180,170,-9,-175,95,80,63,209,73,-9,107,312
112,97,-14,-104,63,41,43,190,63,-29,87,297
78,43,-34,-61,56,4,39,175,58,-29,82,287
102,58,-43,-80,73,7,53,204,82,-14,107,297
87,39,-48,-63,68,-4,48,209,73,-24,107,287
29,9,-19,-19,24,-4,48,229,82,-9,122,292
58,43,-14,-51,36,14,73,297,156,73,204,356
136,58,-78,-97,107,-9,82,370,234,185,317,434
195,122,-73,-158,134,24,126,458,331,336,492,551
273,244,-29,-258,151,107,146,561,468,522,736,756
322,263,-58,-292,190,102,117,663,585,702,1005,961
346,258,-87,-302,217,85,82,800,732,912,1312,1215
439,385,-53,-412,246,165,87,1039,936,1210,1727,1566
580,522,-58,-551,319,231,78,1307,1176,1532,2152,1932
795,610,-185,-702,490,212,19,1620,1420,1820,2493,2230
1000,712,-287,-856,644,212,9,2025,1751,2137,2849,2547
971,795,-175,-883,573,309,48,2318,2039,2400,3142,2849
971,883,-87,-927,529,397,29,2156,1971,2332,3089,2918
1034,990,-43,-1012,539,473,-53,1659,1576,1922,2659,2727
873,1010,136,-941,368,573,-68,1190,1190,1439,2083,2430
688,990,302,-839,192,646,-58,727,819,936,1468,2015
683,1107,424,-895,129,766,0,248,419,414,800,1537
605,1141,536,-873,34,839,136,-97,92,-43,180,995
331,902,570,-617,-119,736,219,-375,-175,-419,-380,439
29,727,697,-378,-334,712,287,-585,-356,-634,-697,58
-24,766,790,-370,-407,778,385,-732,-453,-683,-775,-97
-4,722,727,-358,-366,724,375,-902,-614,-771,-824,-195
-112,527,639,-207,-375,583,287,-1073,-854,-922,-863,-253
-209,414,624,-102,-417,519,180,-1137,-1015,-1015,-858,-248
-151,385,536,-117,-344,461,68,-1127,-1024,-990,-805,-219
-63,370,434,-153,-248,402,-19,-1054,-951,-897,-702,-185
9,346,336,-178,-163,341,-48,-888,-829,-800,-600,-136
48,341,292,-195,-122,317,-68,-678,-668,-663,-478,-58
9,283,273,-146,-131,278,-117,-522,-541,-546,-370,9
-63,190,253,-63,-158,222,-136,-395,-434,-458,-278,73
43,180,136,-112,-46,158,-68,-258,-312,-356,-195,117
185,190,4,-187,90,97,14,-97,-170,-248,-82,170
156,165,9,-161,73,87,68,34,-53,-141,9,229
126,136,9,-131,58,73,78,68,-29,-112,29,224
131,112,-19,-122,75,46,39,58,-39,-136,14,195
146,122,-24,-134,85,48,39,78,-14,-102,39,195
156,146,-9,-151,82,68,39,87,4,-97,53,219
117,122,4,-119,56,63,43,112,19,-92,58,239
92,63,-29,-78,61,17,24,112,19,-97,53,229
87,43,-43,-65,65,0,19,87,9,-107,34,200
97,63,-34,-80,65,14,29,82,14,-97,29,214
131,73,-58,-102,95,7,34,82,14,-97,48,204
170,102,-68,-136,119,17,29,73,4,-107,48,209
122,97,-24,-109,73,36,29,63,0,-107,43,195
92,73,-19,-82,56,26,29,58,0,-107,43,195
102,82,-19,-92,61,31,29,58,0,-107,43,185
87,53,-34,-70,61,9,29,82,0,-107,34,175
102,39,-63,-70,82,-12,24,68,0,-117,29,165
122,53,-68,-87,95,-7,39,63,0,-122,34,175
151,92,-58,-122,104,17,58,63,-4,-122,43,190
156,78,-78,-117,117,0,63,58,-14,-126,39,190
102,39,-63,-70,82,-12,53,48,-34,-136,29,180
63,24,-39,-43,51,-7,48,34,-43,-151,24,175
68,14,-53,-41,61,-19,48,29,-48,-146,19,180
48,19,-29,-34,39,-4,34,48,-48,-146,14,161
102,53,-48,-78,75,2,43,58,-39,-151,4,156
131,53,-78,-92,104,-12,43,43,-39,-165,0,151
126,58,-68,-92,97,-4,43,34,-39,-161,-9,156
92,53,-39,-73,65,7,48,14,-39,-156,0,165
39,29,-9,-34,24,9,48,4,-43,-165,-4,156
48,43,-4,-46,26,19,48,19,-39,-165,4,136
73,73,0,-73,36,36,58,24,-39,-146,14,165
53,63,9,-58,21,36,58,34,-43,-146,14,156
73,63,-9,-68,41,26,78,43,-24,-146,19,180
58,73,14,-65,21,43,87,63,0,-112,43,200
82,112,29,-97,26,70,122,112,34,-82,87,248
136,165,29,-151,53,97,122,122,53,-63,112,248
170,87,-82,-129,126,2,82,82,29,-82,87,224
175,102,-73,-139,124,14,63,73,19,-87,78,214
195,165,-29,-180,112,68,87,82,24,-92,73,214
180,141,-39,-161,109,51,63,63,0,-107,63,185
117,48,-68,-82,92,-9,43,63,-19,-112,58,195
112,58,-53,-85,82,2,58,97,14,-92,78,234
126,82,-43,-104,85,19,58,112,39,-82,97,244
92,53,-39,-73,65,7,53,107,24,-97,87,239
82,24,-58,-53,70,-17,39,82,9,-117,63,224
126,29,-97,-78,112,-34,29,53,-14,-126,53,209
141,24,-117,-82,129,-46,34,53,-19,-136,48,200
141,14,-126,-78,134,-56,14,58,-29,-131,43,185
126,53,-73,-90,100,-9,29,73,-4,-112,53,209
126,58,-68,-92,97,-4,34,87,4,-102,78,219
170,68,-102,-119,136,-17,39,97,14,-97,78,229
185,73,-112,-129,148,-19,43,87,19,-92,82,224
136,73,-63,-104,100,4,14,87,9,-102,73,244
97,73,-24,-85,61,24,24,82,9,-102,78,244
122,87,-34,-104,78,26,19,82,9,-102,78,234
161,82,-78,-122,119,2,9,78,0,-107,78,229
107,48,-58,-78,82,-4,4,73,-4,-126,63,224
53,0,-53,-26,53,-26,4,73,-4,-141,58,229
53,-14,-68,-19,61,-41,0,78,-4,-141,53,224
63,-19,-82,-21,73,-51,-4,78,-4,-117,53,219
73,29,-43,-51,58,-7,4,102,9,-107,78,239
87,53,-34,-70,61,9,14,107,19,-97,87,244
63,58,-4,-61,34,26,14,107,14,-102,92,248
107,102,-4,-104,56,48,24,112,39,-73,102,258
165,141,-24,-153,95,58,24,102,19,-82,97,263
165,122,-43,-143,104,39,19,97,9,-107,92,248
170,97,-73,-134,122,12,4,92,0,-126,82,244
185,102,-82,-143,134,9,19,87,-9,-122,73,248
175,107,-68,-141,122,19,14,78,4,-107,78,258
170,122,-48,-146,109,36,19,97,9,-107,97,268
190,117,-73,-153,131,21,19,82,9,-107,92,268
185,102,-82,-143,134,9,4,68,0,-122,87,253
175,78,-97,-126,136,-9,0,82,9,-141,82,248
165,87,-78,-126,122,4,34,112,24,-122,87,278
151,97,-53,-124,102,21,39,117,24,-122,97,287
141,73,-68,-107,104,2,24,112,14,-131,73,263
141,43,-97,-92,119,-26,0,87,9,-146,63,248
146,68,-78,-107,112,-4,14,97,9,-136,63,248
136,63,-73,-100,104,-4,14,97,19,-136,63,253
82,39,-43,-61,63,-2,4,92,9,-146,58,253
117,58,-58,-87,87,0,4,97,4,-161,58,248
165,82,-82,-124,124,0,9,112,9,-156,58,253
204,117,-87,-161,146,14,24,141,19,-136,73,268
239,141,-97,-190,168,21,29,136,24,-131,63,292
244,122,-122,-183,183,0,14,117,14,-156,48,273
204,97,-107,-151,156,-4,14,112,-4,-175,43,273
156,63,-92,-109,124,-14,19,107,0,-185,34,273
131,43,-87,-87,109,-21,19,107,-4,-190,34,273
170,97,-73,-134,122,12,19,102,-19,-195,34,263
170,87,-82,-129,126,2,19,102,-34,-200,4,244
151,68,-82,-109,117,-7,19,102,-24,-200,4,244
151,112,-39,-131,95,36,29,122,-14,-190,14,273
161,102,-58,-131,109,21,9,112,-14,-200,14,244
146,48,-97,-97,122,-24,-14,78,-53,-234,-29,239
131,24,-107,-78,119,-41,-24,63,-78,-258,-43,229
122,-4,-126,-58,124,-65,-39,43,-92,-273,-63,224
146,9,-136,-78,141,-63,-48,43,-82,-273,-63,229
214,58,-156,-136,185,-48,-43,48,-87,-273,-63,244
204,73,-131,-139,168,-29,-43,53,-92,-268,-63,248
165,39,-126,-102,146,-43,-58,53,-97,-273,-73,244
136,39,-97,-87,117,-29,-48,48,-87,-268,-68,253
161,39,-122,-100,141,-41,-53,39,-97,-283,-78,258
170,39,-131,-104,151,-46,-53,34,-107,-283,-78,253
180,58,-122,-119,151,-31,-48,29,-107,-283,-78,258
190,63,-126,-126,158,-31,-34,34,-97,-278,-73,268
224,68,-156,-146,190,-43,-34,39,-97,-278,-73,268
200,78,-122,-139,161,-21,-43,43,-97,-273,-78,273
190,78,-112,-134,151,-17,-43,48,-97,-273,-63,273
219,68,-151,-143,185,-41,-58,39,-87,-263,-48,273
209,58,-151,-134,180,-46,-68,29,-92,-263,-48,278
204,63,-141,-134,173,-39,-82,19,-102,-263,-58,278
244,73,-170,-158,207,-48,-82,9,-102,-258,-58,273
239,131,-107,-185,173,12,-73,34,-53,-219,-14,317
219,151,-68,-185,143,41,-58,63,-43,-185,24,351
190,151,-39,-170,114,56,-58,78,-34,-185,43,370
204,151,-53,-178,129,48,-68,92,-24,-170,63,400
195,136,-58,-165,126,39,-73,92,-19,-170,82,419
156,136,-19,-146,87,58,-78,102,-14,-136,97,419
146,136,-9,-141,78,63,-68,102,-4,-107,112,439
146,141,-4,-143,75,68,-63,102,4,-82,136,468
122,151,29,-136,46,90,-63,107,14,-78,151,458
126,156,29,-141,48,92,-63,112,24,-68,170,468
136,190,53,-163,41,122,-43,136,43,-48,195,488
161,200,39,-180,61,119,-43,136,68,-43,204,502
131,131,0,-131,65,65,-53,102,34,-68,185,468
107,117,9,-112,48,63,-53,97,34,-73,156,458
122,141,19,-131,51,80,-39,112,58,-53,165,478
131,170,39,-151,46,104,-19,107,68,-48,190,492
165,170,4,-168,80,87,0,122,73,-43,190,488
175,175,0,-175,87,87,-14,136,73,-29,185,483
156,165,9,-161,73,87,-29,151,73,-34,180,478
136,112,-24,-124,80,43,-29,165,73,-48,175,473
102,107,4,-104,48,56,-24,190,78,-58,175,483
131,151,19,-141,56,85,-9,219,107,-34,200,497
224,219,-4,-222,114,107,9,239,107,-19,195,507
263,239,-24,-251,143,107,14,253,102,-19,185,512
175,185,9,-180,82,97,29,253,102,-19,175,497
126,175,48,-151,39,112,43,258,117,-14,185,502
126,175,48,-151,39,112,58,263,117,-9,185,497
117,146,29,-131,43,87,48,263,102,-29,170,468
156,151,-4,-153,80,73,58,263,102,-29,161,453
165,190,24,-178,70,107,73,278,117,-34,175,483
136,185,48,-161,43,117,73,278,117,-34,175,517
122,170,48,-146,36,109,58,263,102,-34,161,483
170,156,-14,-163,92,70,58,278,117,-29,165,478
156,180,24,-168,65,102,73,292,131,-24,185,522
161,190,29,-175,65,109,73,297,136,-9,195,531
175,195,19,-185,78,107,73,297,136,-4,200,512
195,219,24,-207,85,122,68,302,146,-9,209,541
224,204,-19,-214,122,92,73,312,146,-4,209,546
185,219,34,-202,75,126,82,326,151,-9,209,551
224,253,29,-239,97,141,92,336,156,4,209,566
214,239,24,-226,95,131,107,346,170,9,214,575
156,219,63,-187,46,141,112,346,161,14,209,575
87,180,92,-134,-2,136,117,341,165,19,214,566
34,161,126,-97,-46,143,122,341,170,19,219,561
73,151,78,-112,-2,114,117,317,161,-24,204,556
102,170,68,-136,17,119,112,336,156,4,214,556
122,195,73,-158,24,134,122,356,170,34,229,561
131,185,53,-158,39,119,117,375,165,34,224,570
122,170,48,-146,36,109,117,356,170,24,229,590
122,165,43,-143,39,104,122,341,170,29,229,570
102,122,19,-112,41,70,122,341,170,24,229,570
78,97,19,-87,29,58,117,341,170,29,219,570
68,117,48,-92,9,82,117,346,165,34,214,566
82,126,43,-104,19,85,112,341,161,34,209,561
122,141,19,-131,51,80,107,346,161,43,214,585
136,161,24,-148,56,92,97,346,161,48,209,580
156,185,29,-170,63,107,97,346,165,58,219,590
161,200,39,-180,61,119,97,346,170,68,229,585
136,204,68,-170,34,136,87,356,175,63,244,614
107,209,102,-158,2,156,78,370,185,58,263,644
156,195,39,-175,58,117,58,331,165,63,253,624
204,209,4,-207,100,107,43,326,146,58,258,605
175,204,29,-190,73,117,58,312,136,53,239,595
122,185,63,-153,29,124,53,322,122,48,229,556
122,175,53,-148,34,114,24,283,97,29,224,551
131,165,34,-148,48,100,19,278,102,39,219,566
126,170,43,-148,41,107,9,287,117,53,239,610
122,180,58,-151,31,119,0,297,131,68,258,653
117,146,29,-131,43,87,-29,273,97,34,224,614
117,146,29,-131,43,87,-24,268,97,39,224,600
131,165,34,-148,48,100,-14,273,107,43,219,590
131,175,43,-153,43,109,-9,268,97,39,209,590
112,161,48,-136,31,104,-9,248,82,24,200,585
73,151,78,-112,-2,114,-9,244,97,34,229,595
102,180,78,-141,12,129,14,258,117,53,258,619
87,175,87,-131,0,131,29,283,126,68,263,624
122,175,53,-148,34,114,19,273,117,48,248,605
146,175,29,-161,58,102,9,263,107,39,234,595
170,175,4,-173,82,90,0,253,97,29,219,585
195,175,-19,-185,107,78,-9,244,87,19,204,575
131,156,24,-143,53,90,4,248,97,39,219,585
126,161,34,-143,46,97,19,229,92,39,219,610
146,156,9,-151,68,82,9,239,92,48,219,595
107,146,39,-126,34,92,9,253,107,34,224,595
24,97,73,-61,-24,85,9,229,112,19,219,590
14,78,63,-46,-24,70,0,204,87,4,214,575
73,97,24,-85,24,61,0,204,82,-4,190,551
82,117,34,-100,24,75,4,219,87,14,204,570
39,107,68,-73,-14,87,9,200,82,0,190,570
29,58,29,-43,0,43,-4,190,63,-4,175,546
58,63,4,-61,26,34,-9,180,58,-9,170,536
58,82,24,-70,17,53,-14,170,58,-9,165,531
53,73,19,-63,17,46,-4,190,73,0,185,541
73,78,4,-75,34,41,9,204,73,4,180,546
136,126,-9,-131,73,58,19,214,73,9,185,541
185,156,-29,-170,107,63,29,209,92,14,200,546
170,141,-29,-156,100,56,39,200,82,4,190,536
180,131,-48,-156,114,41,39,200,82,4,180,536
141,122,-19,-131,80,51,29,214,82,0,180,536
82,107,24,-95,29,65,43,200,82,0,180,536
73,97,24,-85,24,61,53,214,82,0,170,531
112,102,-9,-107,61,46,58,209,82,9,180,536
102,87,-14,-95,58,36,58,204,87,9,180,517
43,48,4,-46,19,26,58,204,87,4,170,512
43,34,-9,-39,26,12,48,200,78,0,165,507
63,48,-14,-56,39,17,53,204,78,-4,161,507
48,43,-4,-46,26,19,53,200,78,0,165,507
92,68,-24,-80,58,21,43,185,63,-24,151,497
97,63,-34,-80,65,14,48,165,58,-24,151,478
107,92,-14,-100,61,39,58,180,73,-19,151,492
87,68,-19,-78,53,24,87,190,78,-14,156,492
24,29,4,-26,9,17,107,209,97,-9,156,488
48,53,4,-51,21,29,102,204,102,0,161,483
82,63,-19,-73,51,21,102,200,107,19,175,502
48,48,0,-48,24,24,92,204,102,-4,180,507
48,48,0,-48,24,24,68,204,97,-9,156,492
48,63,14,-56,17,39,92,219,92,4,170,502
73,78,4,-75,34,41,112,229,131,34,180,517
73,82,9,-78,31,46,102,234,136,39,200,517
63,87,24,-75,19,56,102,239,131,29,204,512
24,58,34,-41,-4,46,82,239,122,29,195,507
14,58,43,-36,-14,51,73,209,117,24,190,502
9,58,48,-34,-19,53,73,200,117,24,190,502
19,68,48,-43,-14,58,78,195,117,24,190,507
39,63,24,-51,7,43,63,195,107,9,185,497
43,34,-9,-39,26,12,39,175,92,-4,170,483
14,4,-9,-9,12,-2,14,165,73,-19,156,453
29,9,-19,-19,24,-4,0,156,63,-24,151,453
82,48,-34,-65,58,7,4,161,87,-4,156,478
102,73,-29,-87,65,21,14,175,92,4,161,478
82,87,4,-85,39,46,14,165,92,4,165,478
73,73,0,-73,36,36,14,165,92,4,165,478
39,58,19,-48,9,39,19,165,92,9,170,478
53,63,9,-58,21,36,14,165,82,4,165,468
58,73,14,-65,21,43,0,165,73,4,165,473
24,68,43,-46,-9,56,0,165,73,9,170,478
24,78,53,-51,-14,65,0,151,63,4,161,473
29,68,39,-48,-4,53,-4,151,63,0,170,468
34,63,29,-48,2,46,-9,151,68,9,170,468
63,63,0,-63,31,31,-14,146,68,-4,165,463
24,14,-9,-19,17,2,-34,141,53,-9,156,444
19,9,-9,-14,14,0,-39,141,63,-4,156,444
53,53,0,-53,26,26,-29,156,63,0,170,458
63,58,-4,-61,34,26,-29,165,78,14,170,458
43,53,9,-48,17,31,-24,165,87,24,175,458
48,68,19,-58,14,43,-19,156,73,24,175,458
68,82,14,-75,26,48,-14,156,73,24,165,453
48,68,19,-58,14,43,-9,156,73,14,161,448
19,58,39,-39,-9,48,-14,156,63,0,156,434
39,73,34,-56,2,53,-14,156,58,4,156,429
34,92,58,-63,-12,75,-4,161,63,14,165,439
24,53,29,-39,-2,41,-19,161,48,0,141,414
14,53,39,-34,-12,46,-14,165,58,9,146,419
-48,53,102,-2,-75,78,9,170,73,14,161,429
-4,82,87,-39,-46,85,14,175,82,24,170,434
43,82,39,-63,2,61,29,190,92,34,175,439
58,97,39,-78,9,68,24,209,82,24,170,424
58,82,24,-70,17,53,19,190,82,19,170,424
92,112,19,-102,36,65,14,195,82,14,165,424
107,126,19,-117,43,73,9,209,82,14,165,424
73,82,9,-78,31,46,-4,204,73,9,156,414
34,39,4,-36,14,21,-9,190,63,0,151,400
34,29,-4,-31,19,12,0,200,63,19,161,409
34,48,14,-41,9,31,9,204,78,29,165,419
-29,34,63,-2,-46,48,4,200,58,9,136,390
-102,-43,58,73,-80,7,-24,170,34,-19,117,351
-131,-82,48,107,-90,-17,-34,180,34,-29,117,361
-82,-29,53,56,-68,12,4,219,63,9,156,405
29,112,82,-70,-26,97,68,283,117,68,209,453
92,126,34,-109,29,80,63,292,122,82,224,453
58,29,-29,-43,43,0,39,287,92,53,195,414
0,-39,-39,19,19,-39,29,287,82,39,170,390
-9,-63,-53,36,21,-58,14,287,97,53,185,375
58,19,-39,-39,48,-9,53,361,175,156,307,473
68,92,24,-80,21,58,97,448,283,317,473,600
19,87,68,-53,-24,78,87,502,351,444,658,736
48,58,9,-53,19,34,29,556,419,585,888,932
151,112,-39,-131,95,36,4,683,546,795,1195,1195
302,258,-43,-280,173,107,9,854,732,1073,1581,1527
463,424,-39,-444,251,192,9,1093,971,1395,2034,1922
551,551,0,-551,275,275,48,1464,1293,1790,2542,2347
629,634,4,-631,312,319,58,1878,1654,2166,2986,2713
746,736,-9,-741,378,363,48,2200,1952,2479,3328,3025
893,922,29,-907,431,475,58,2235,2049,2596,3459,3220
976,1039,63,-1007,456,551,24,1883,1800,2352,3176,3147
912,1039,126,-976,392,583,-48,1395,1376,1859,2591,2840
805,1078,273,-941,265,675,-68,990,1015,1376,1966,2474
624,1058,434,-841,95,746,-68,492,585,805,1259,1986
419,927,507,-673,-43,717,-39,-9,82,180,434,1317
283,834,551,-558,-134,692,92,-248,-204,-263,-214,683
107,746,639,-427,-265,692,248,-351,-336,-497,-590,244
-24,658,683,-317,-353,671,317,-546,-492,-663,-785,-39
-43,605,649,-280,-346,627,326,-775,-653,-761,-883,-204
-112,536,649,-212,-380,592,307,-907,-785,-824,-873,-234
-258,424,683,-82,-470,553,248,-980,-936,-888,-829,-200
-278,356,634,-39,-456,495,136,-1029,-1044,-932,-805,-180
-151,341,492,-95,-322,417,29,-985,-1019,-897,-732,-126
-87,278,366,-95,-226,322,-39,-878,-936,-829,-658,-78
-29,234,263,-102,-146,248,-87,-736,-834,-751,-575,-39
-29,292,322,-131,-175,307,-78,-531,-658,-585,-419,48
-82,278,361,-97,-222,319,-87,-366,-492,-429,-278,131
4,229,224,-117,-109,226,-126,-287,-409,-356,-224,146
126,219,92,-173,17,156,-112,-175,-317,-278,-151,180
126,195,68,-161,29,131,-58,-53,-200,-170,-58,248
136,195,58,-165,39,126,-39,39,-117,-92,19,292
161,190,29,-175,65,109,-39,97,-78,-58,53,302
175,185,9,-180,82,97,-14,131,-63,-29,73,292
185,204,19,-195,82,112,-9,146,-43,-29,82,307
146,175,29,-161,58,102,0,175,-29,-29,82,317
122,112,-9,-117,65,51,-14,180,-29,-39,73,297
151,126,-24,-139,87,51,-4,190,-14,-29,78,297
195,180,-14,-187,104,82,19,200,4,0,87,322
263,224,-39,-244,151,92,39,214,19,19,122,322
336,287,-48,-312,192,119,48,219,24,29,136,336
297,278,-19,-287,158,129,39,234,14,34,131,326
278,258,-19,-268,148,119,39,234,19,39,131,331
297,273,-24,-285,161,124,39,239,24,43,131,326
292,248,-43,-270,168,102,39,268,29,48,122,322
253,195,-58,-224,156,68,24,268,19,43,102,302
219,180,-39,-200,129,70,29,268,19,34,102,302
195,190,-4,-192,100,92,39,273,14,29,107,307
146,146,0,-146,73,73,34,273,4,19,97,297
136,151,14,-143,61,82,48,292,14,34,117,317
122,170,48,-146,36,109,58,297,24,43,131,331
151,195,43,-173,53,119,73,312,39,73,146,356
156,234,78,-195,39,156,73,351,58,97,161,356
224,239,14,-231,104,126,63,356,43,73,136,326
268,219,-48,-244,158,85,53,336,29,48,117,307
278,204,-73,-241,175,65,43,322,14,43,92,297
258,180,-78,-219,168,51,39,297,0,39,87,292
200,170,-29,-185,114,70,53,292,9,48,102,302
204,200,-4,-202,104,97,58,322,29,58,122,292
224,244,19,-234,102,131,73,341,43,87,141,331
200,248,48,-224,75,148,78,366,53,97,151,331
234,234,0,-234,117,117,73,366,43,68,141,317
224,219,-4,-222,114,107,68,366,48,82,141,317
253,234,-19,-244,136,107,87,395,63,92,161,346
312,263,-48,-287,180,107,73,385,63,92,161,326
312,200,-112,-256,212,43,68,370,58,87,136,322
302,219,-82,-261,192,68,63,375,58,87,136,322
307,287,-19,-297,163,134,102,400,73,87,141,331
278,268,-9,-273,143,129,92,395,58,78,141,312
229,165,-63,-197,146,51,82,370,24,53,102,287
248,175,-73,-212,161,51,97,390,43,63,107,302
287,200,-87,-244,187,56,97,390,53,63,112,287
278,170,-107,-224,192,31,92,370,24,39,87,258
219,146,-73,-183,146,36,78,356,24,48,82,263
224,146,-78,-185,151,34,78,346,14,48,82,268
200,136,-63,-168,131,36,92,366,24,48,87,278
161,122,-39,-141,100,41,82,390,29,63,92,283
170,156,-14,-163,92,70,97,400,43,78,102,307
185,165,-19,-175,102,73,102,409,53,82,126,317
244,180,-63,-212,153,58,107,414,63,82,126,326
273,190,-82,-231,178,53,112,400,68,82,131,322
229,195,-34,-212,131,80,82,409,58,82,141,336
185,190,4,-187,90,97,92,405,58,82,146,341
204,200,-4,-202,104,97,87,405,58,82,146,336
239,190,-48,-214,143,70,78,400,48,78,146,336
209,200,-9,-204,109,95,87,400,48,73,151,341
180,175,-4,-178,92,85,92,405,53,63,146,356
204,185,-19,-195,112,82,92,414,58,68,141,361
239,204,-34,-222,136,85,92,419,63,97,141,366
253,219,-34,-236,143,92,73,405,58,78,136,356
263,209,-53,-236,158,78,63,390,48,68,126,351
234,180,-53,-207,143,63,43,370,24,43,112,346
273,190,-82,-231,178,53,34,356,29,53,102,346
297,239,-58,-268,178,90,43,370,29,58,117,361
273,219,-53,-246,163,82,39,370,29,48,122,356
253,195,-58,-224,156,68,24,370,29,43,122,361
244,200,-43,-222,143,78,39,370,29,63,122,375
273,214,-58,-244,165,78,24,361,24,53,107,370
287,229,-58,-258,173,85,19,370,19,48,117,375
326,224,-102,-275,214,61,9,346,9,43,102,370
341,209,-131,-275,236,39,-14,322,-9,24,87,351
297,175,-122,-236,209,26,-34,312,-19,14,87,341
263,175,-87,-219,175,43,-4,336,-4,34,97,375
224,175,-48,-200,136,63,-4,336,-4,34,112,390
190,141,-48,-165,119,46,-24,326,-14,24,92,370
200,107,-92,-153,146,7,-29,302,-29,0,63,351
214,136,-78,-175,146,29,-14,312,-29,9,63,346
214,136,-78,-175,146,29,-14,312,-19,9,63,346
170,117,-53,-143,112,31,-24,307,-29,0,58,341
190,126,-63,-158,126,31,-29,297,-29,-9,58,341
224,141,-82,-183,153,29,-29,307,-29,-9,58,341
248,165,-82,-207,165,41,-19,331,-24,4,73,351
268,180,-87,-224,178,46,-19,322,-24,4,63,370
283,165,-117,-224,200,24,-24,312,-29,-4,43,346
263,156,-107,-209,185,24,-24,307,-43,-19,34,341
234,136,-97,-185,165,19,-19,302,-34,-24,19,336
229,131,-97,-180,163,17,-19,302,-34,-24,14,331
312,214,-97,-263,204,58,-14,317,-39,-24,29,336
346,244,-102,-295,224,70,0,326,-43,-14,14,331
361,263,-97,-312,229,82,14,336,-24,0,29,346
395,346,-48,-370,222,148,39,366,-4,24,53,390
370,302,-68,-336,219,117,19,341,-9,4,43,351
322,224,-97,-273,209,63,-4,302,-53,-29,-9,336
273,175,-97,-224,185,39,-14,283,-82,-53,-34,317
229,122,-107,-175,168,7,-29,258,-102,-68,-63,302
239,136,-102,-187,170,17,-19,273,-87,-58,-58,302
292,185,-107,-239,200,39,-14,283,-87,-58,-53,322
268,200,-68,-234,168,65,-14,292,-87,-53,-48,331
214,165,-48,-190,131,58,-29,297,-87,-58,-53,331
200,156,-43,-178,122,56,-19,287,-78,-53,-53,326
229,156,-73,-192,151,41,-24,273,-87,-68,-68,326
244,156,-87,-200,165,34,-24,263,-97,-68,-73,317
258,175,-82,-217,170,46,-19,253,-97,-68,-78,317
248,180,-68,-214,158,56,-19,244,-107,-73,-78,322
273,175,-97,-224,185,39,-24,244,-107,-73,-82,317
239,175,-63,-207,151,56,-39,244,-107,-68,-92,317
219,165,-53,-192,136,56,-43,244,-107,-68,-82,312
244,141,-102,-192,173,19,-43,244,-102,-68,-87,317
229,126,-102,-178,165,12,-48,234,-102,-68,-87,317
219,126,-92,-173,156,17,-58,224,-107,-68,-97,312
253,131,-122,-192,187,4,-53,214,-102,-63,-97,302
263,180,-82,-222,173,48,-43,229,-68,-39,-68,341
258,200,-58,-229,158,70,-29,248,-63,-9,-43,361
244,200,-43,-222,143,78,-29,253,-58,-14,-39,366
273,200,-73,-236,173,63,-39,258,-53,-4,-34,380
283,175,-107,-229,195,34,-43,253,-24,14,-9,390
244,175,-68,-209,156,53,-48,268,-14,48,9,390
234,175,-58,-204,146,58,-39,273,0,78,29,409
234,180,-53,-207,143,63,-34,278,14,102,58,439
209,170,-39,-190,124,65,-48,273,19,102,63,439
214,175,-39,-195,126,68,-53,278,24,117,82,448
224,209,-14,-217,119,97,-39,302,39,141,107,468
248,219,-29,-234,139,95,-43,302,58,151,117,483
239,180,-58,-209,148,61,-34,302,48,165,122,463
224,185,-39,-204,131,73,-24,312,63,180,117,468
248,229,-19,-239,134,104,0,341,102,219,151,502
268,278,9,-273,129,143,29,351,126,244,200,531
273,258,-14,-265,143,122,34,336,126,248,204,527
263,253,-9,-258,136,122,14,331,122,263,195,522
224,234,9,-229,107,122,-4,326,117,258,185,517
185,170,-14,-178,100,78,-9,322,112,244,175,512
151,151,0,-151,75,75,-9,317,112,244,180,507
180,180,0,-180,90,90,0,326,136,268,209,517
273,234,-39,-253,156,97,14,326,131,283,209,522
312,239,-73,-275,192,82,14,322,122,283,204,522
224,180,-43,-202,134,68,0,297,107,268,180,502
185,175,-9,-180,97,82,4,287,117,268,185,502
195,180,-14,-187,104,82,9,278,112,268,180,492
195,156,-39,-175,117,58,-9,263,92,244,161,458
209,170,-39,-190,124,65,0,273,107,253,175,458
214,209,-4,-212,109,102,24,297,126,258,195,492
180,204,24,-192,78,114,34,307,131,268,200,531
161,190,29,-175,65,109,29,302,122,278,190,502
204,185,-19,-195,112,82,43,287,112,287,185,478
185,209,24,-197,80,117,63,292,122,287,195,512
185,219,34,-202,75,126,68,287,122,297,195,512
195,224,29,-209,82,126,73,278,117,297,190,483
200,234,34,-217,82,134,53,283,126,297,190,497
214,204,-9,-209,112,97,53,283,126,297,190,497
161,204,43,-183,58,124,58,287,131,287,190,497
185,224,39,-204,73,131,63,287,136,297,190,507
229,214,-14,-222,122,100,48,268,126,287,175,507
214,209,-4,-212,109,102,43,258,102,278,161,497
190,185,-4,-187,97,90,39,244,92,268,156,478
180,180,0,-180,90,90,34,234,82,253,151,463
185,190,4,-187,90,97,39,229,87,224,151,453
190,209,19,-200,85,114,43,248,87,258,165,458
185,234,48,-209,68,141,63,268,107,292,185,468
170,224,53,-197,58,139,68,287,107,297,185,483
204,229,24,-217,90,126,73,278,112,292,170,483
239,244,4,-241,117,124,73,263,112,292,170,463
253,219,-34,-236,143,92,68,263,112,283,170,463
263,214,-48,-239,156,82,58,263,112,283,161,463
204,209,4,-207,100,107,58,263,112,287,180,463
180,195,14,-187,82,104,63,263,112,287,180,463
180,185,4,-183,87,95,68,273,117,297,190,492
156,180,24,-168,65,102,68,278,122,302,190,492
161,161,0,-161,80,80,63,263,102,292,165,468
161,141,-19,-151,90,61,58,248,92,283,151,439
131,112,-19,-122,75,46,43,244,82,258,141,444
97,82,-14,-90,56,34,29,244,78,234,136,448
156,92,-63,-124,109,14,29,234,87,263,146,444
214,131,-82,-173,148,24,24,239,87,273,161,439
195,151,-43,-173,119,53,48,234,97,283,151,444
151,156,4,-153,73,80,53,253,102,292,151,419
151,146,-4,-148,78,70,39,239,82,292,151,414
161,146,-14,-153,87,65,48,248,92,302,151,429
156,161,4,-158,75,82,53,273,112,317,175,473
151,180,29,-165,61,104,58,297,131,331,200,517
146,156,9,-151,68,82,24,263,97,302,175,483
146,156,9,-151,68,82,24,258,107,312,185,473
161,175,14,-168,73,95,29,263,126,322,190,468
161,185,24,-173,68,104,29,258,126,322,190,473
141,161,19,-151,61,90,19,234,107,312,175,473
161,170,9,-165,75,90,19,224,97,307,170,468
190,170,-19,-180,104,75,14,214,92,302,165,448
122,151,29,-136,46,90,14,204,82,297,161,434
151,151,0,-151,75,75,19,214,87,302,165,453
200,180,-19,-190,109,80,19,214,87,307,170,453
219,190,-29,-204,124,80,24,234,97,307,175,468
200,190,-9,-195,104,90,34,239,102,302,185,478
151,175,24,-163,63,100,24,224,87,322,175,468
156,185,29,-170,63,107,24,219,92,322,185,458
165,170,4,-168,80,87,24,204,78,297,161,448
146,151,4,-148,70,78,19,200,68,287,156,424
131,141,9,-136,61,75,9,195,63,287,151,429
117,117,0,-117,58,58,9,185,58,283,141,429
117,97,-19,-107,68,39,-4,180,39,268,122,395
117,117,0,-117,58,58,9,180,43,268,117,395
141,131,-9,-136,75,61,24,190,58,283,122,414
141,156,14,-148,63,85,34,200,63,283,126,414
151,161,9,-156,70,85,34,200,68,283,136,424
165,165,0,-165,82,82,34,190,82,287,146,424
180,185,4,-183,87,95,34,180,78,287,151,424
204,219,14,-212,95,117,43,180,68,297,151,419
156,146,-9,-151,82,68,29,175,53,287,146,400
102,122,19,-112,41,70,14,165,39,283,146,400
87,107,19,-97,34,63,0,185,29,273,141,380
97,102,4,-100,46,53,-9,165,14,258,122,361
122,102,-19,-112,70,41,-9,146,24,253,107,380
146,102,-43,-124,95,29,-9,126,34,248,92,400
87,82,-4,-85,46,39,-9,122,34,248,92,385
63,82,19,-73,21,51,-4,136,34,253,97,380
58,87,29,-73,14,58,4,151,43,273,126,385
73,78,4,-75,34,41,4,156,43,263,126,380
102,92,-9,-97,56,41,0,141,39,253,107,366
122,102,-19,-112,70,41,-14,131,29,244,82,351
151,117,-34,-134,92,41,9,136,29,248,92,370
146,122,-24,-134,85,48,-9,141,29,244,102,361
82,97,14,-90,34,56,-9,131,19,244,92,375
87,112,24,-100,31,68,0,136,29,248,107,375
92,126,34,-109,29,80,9,136,39,253,117,370
43,78,34,-61,4,56,9,126,39,258,107,356
165,165,0,-165,82,82,48,131,34,258,117,366
126,156,29,-141,48,92,39,136,39,263,107,361
107,117,9,-112,48,63,19,131,24,253,87,341
87,87,0,-87,43,43,9,126,19,244,78,331
68,58,-9,-63,39,24,0,122,14,234,68,322
48,29,-19,-39,34,4,-9,117,9,224,58,312
-4,9,14,-2,-9,12,-4,126,9,229,68,307
0,14,14,-7,-7,14,9,102,4,224,63,326
29,9,-19,-19,24,-4,0,107,4,229,58,307
0,0,0,0,0,0,0,117,19,209,58,302
-78,-58,19,68,-48,-19,-4,82,9,200,39,292
-92,-87,4,90,-48,-41,-19,58,-19,180,29,273
-39,-78,-39,58,0,-58,-24,58,-29,165,0,244
-34,-68,-34,51,0,-51,-24,73,-29,180,9,258
-78,-68,9,73,-43,-29,-14,73,-14,180,14,278
-97,-107,-9,102,-43,-58,-24,73,-24,180,9,263
-78,-92,-14,85,-31,-53,-24,73,-19,180,14,263
-87,-63,24,75,-56,-19,-24,73,-9,185,19,268
-122,-117,4,119,-63,-56,-39,63,-19,180,14,263
-131,-146,-14,139,-58,-80,-48,58,-34,170,-4,253
-97,-131,-34,114,-31,-82,-63,48,-48,161,-14,234
-78,-136,-58,107,-9,-97,-78,24,-43,151,-14,224
-53,-112,-58,82,2,-85,-68,34,-39,156,0,239
-4,-92,-87,48,41,-90,-68,34,-34,161,-4,244
-4,-73,-68,39,31,-70,-78,48,-29,161,0,248
-24,-58,-34,41,4,-46,-63,34,-24,165,4,253
-34,-58,-24,46,-4,-41,-53,63,-14,185,9,263
4,-34,-39,14,21,-36,-48,63,-14,195,24,273
-4,-29,-24,17,9,-26,-48,63,-9,195,29,258
-63,-48,14,56,-39,-17,-48,68,-9,190,24,258
-102,-63,39,82,-70,-12,-29,68,0,204,39,278
-112,-58,53,85,-82,-2,-14,78,9,209,43,283
-156,-73,82,114,-119,4,-4,78,19,224,58,287
-141,-58,82,100,-112,12,-4,68,14,209,53,283
-107,-58,48,82,-78,-4,-39,39,-9,200,29,263
-68,-24,43,46,-56,9,-48,43,-4,195,24,268
-58,-43,14,51,-36,-14,-39,43,-9,190,24,258
-92,-78,14,85,-53,-31,-39,53,0,185,19,244
-53,-43,9,48,-31,-17,-43,53,14,200,34,244
-14,-24,-9,19,-2,-17,-34,53,19,224,48,268
-43,-29,14,36,-29,-7,-34,63,14,204,53,278
-39,-19,19,29,-29,0,-48,68,9,204,29,268
-87,-39,48,63,-68,4,-48,63,-14,195,24,258
-102,-58,43,80,-73,-7,-34,63,14,209,24,263
-141,-87,53,114,-97,-17,-48,58,9,200,34,253
-190,-117,73,153,-131,-21,-53,53,-4,175,29,239
-200,-161,39,180,-119,-61,-63,53,-19,161,9,224
-200,-165,34,183,-117,-65,-73,24,-29,151,-4,219
-195,-170,24,183,-109,-73,-73,14,-34,146,-14,219
-175,-165,9,170,-92,-78,-68,9,-39,141,-24,224
-170,-156,14,163,-92,-70,-63,14,-43,136,-34,209
-170,-180,-9,175,-80,-95,-78,0,-53,122,-43,200
-204,-204,0,204,-102,-102,-92,-4,-68,107,-53,175
-195,-195,0,195,-97,-97,-97,-9,-73,102,-53,180
-185,-190,-4,187,-90,-97,-87,-4,-58,122,-39,195
-200,-190,9,195,-104,-90,-82,9,-53,131,-34,195
-253,-200,53,226,-153,-73,-87,0,-53,131,-29,195
-297,-239,58,268,-178,-90,-92,0,-53,131,-29,195
-297,-248,48,273,-173,-100,-87,-19,-63,112,-48,190
-258,-239,19,248,-139,-109,-92,-19,-73,102,-58,175
-229,-224,4,226,-117,-109,-107,-19,-82,97,-63,175
-239,-224,14,231,-126,-104,-107,-19,-82,97,-63,175
-258,-229,29,244,-143,-100,-97,-9,-68,112,-58,180
-273,-244,29,258,-151,-107,-92,-4,-63,117,-43,185
-287,-253,34,270,-161,-109,-87,0,-53,136,-39,195
-278,-258,19,268,-148,-119,-82,0,-48,131,-39,200
-297,-302,-4,300,-146,-153,-102,-24,-78,107,-63,170
-292,-302,-9,297,-141,-156,-107,-24,-73,102,-68,170
-248,-253,-4,251,-122,-129,-97,-9,-78,97,-58,185
-229,-244,-14,236,-107,-129,-97,0,-68,102,-63,185
-239,-253,-14,246,-112,-134,-92,4,-48,107,-48,195
-214,-244,-29,229,-92,-136,-87,0,-63,112,-48,195
-175,-234,-58,204,-58,-146,-82,4,-63,117,-58,190
-175,-253,-78,214,-48,-165,-78,9,-63,112,-63,185
-248,-292,-43,270,-102,-168,-82,-4,-73,87,-78,170
-273,-297,-24,285,-124,-161,-82,-9,-78,92,-78,165
-322,-297,24,309,-173,-136,-73,-9,-73,102,-68,175
-375,-356,19,366,-197,-168,-87,-14,-87,87,-92,151
-331,-351,-19,341,-156,-185,-87,-24,-87,82,-97,141
-351,-336,14,344,-183,-161,-68,-24,-82,82,-92,146
-263,-292,-29,278,-117,-161,-68,-24,-82,87,-92,146
-170,-278,-107,224,-31,-192,-58,-14,-82,92,-97,146
-209,-283,-73,246,-68,-178,-58,9,-78,102,-92,151
-253,-307,-53,280,-100,-180,-58,-14,-73,97,-82,161
-263,-287,-24,275,-119,-156,-58,-14,-68,92,-78,170
-292,-283,9,287,-151,-136,-58,-4,-63,92,-68,180
-180,-209,-29,195,-75,-119,-24,29,-34,126,-39,209
-287,-292,-4,290,-141,-148,-68,4,-53,97,-63,185
-258,-302,-43,280,-107,-173,-87,-4,-73,97,-73,185
-209,-253,-43,231,-82,-148,-87,9,-68,107,-58,195
-273,-268,4,270,-139,-131,-92,4,-78,107,-58,195
-287,-317,-29,302,-129,-173,-112,-14,-92,78,-78,175
-209,-287,-78,248,-65,-183,-102,-24,-92,78,-78,175
-190,-234,-43,212,-73,-139,-82,4,-63,117,-48,190
-263,-209,53,236,-158,-78,-58,19,-29,136,-24,219
-278,-224,53,251,-165,-85,-63,19,-24,141,-19,229
-253,-244,9,248,-131,-117,-78,14,-34,141,-39,219
-292,-273,19,283,-156,-126,-58,34,-24,146,-24,224
-331,-297,34,314,-183,-131,-53,63,9,180,19,239
-234,-263,-29,248,-102,-146,-73,97,48,234,73,268
-117,-170,-53,143,-31,-112,-58,185,136,366,209,366
-126,-87,39,107,-82,-24,-19,297,263,561,444,551
-87,-29,58,58,-73,14,-29,419,400,761,732,775
43,43,0,-43,21,21,-82,536,536,961,1029,1019
165,122,-43,-143,104,39,-117,707,692,1200,1366,1302
268,219,-48,-244,158,85,-126,985,912,1512,1781,1649
287,248,-39,-268,163,104,-117,1395,1224,1878,2239,2025
287,273,-14,-280,151,129,-87,1849,1615,2293,2713,2410
385,424,39,-405,173,231,-58,2142,1932,2635,3103,2771
580,600,19,-590,280,309,-126,2030,1883,2654,3186,2918
771,668,-102,-719,436,283,-239,1620,1527,2322,2884,2806
814,736,-78,-775,446,329,-283,1249,1180,1898,2396,2596
668,883,214,-775,226,549,-204,912,868,1483,1869,2347
351,883,531,-617,-90,707,-136,405,439,941,1210,1927
9,634,624,-322,-307,629,-126,-117,-53,287,375,1268
-68,463,531,-197,-300,497,-43,-463,-419,-253,-370,575
-78,366,444,-143,-261,405,24,-741,-707,-634,-883,48
-326,248,575,39,-451,412,82,-985,-902,-819,-1117,-234
-522,283,805,119,-663,544,200,-1058,-936,-800,-1088,-283
-463,312,775,75,-619,544,170,-1122,-1049,-834,-1049,-273
-278,248,527,14,-402,387,-4,-1254,-1259,-966,-1083,-307
-258,180,439,39,-348,309,-136,-1254,-1298,-971,-1039,-297
-473,48,522,212,-497,285,-185,-1141,-1195,-878,-936,-234
-556,-92,463,324,-509,185,-244,-1015,-1093,-800,-873,-214
-409,-78,331,244,-370,126,-273,-854,-951,-692,-771,-175
-292,9,302,141,-297,156,-244,-658,-766,-517,-614,-87
-326,-53,273,190,-300,109,-263,-522,-639,-409,-522,-43
-444,-239,204,341,-324,-17,-312,-434,-566,-366,-488,-58
-488,-326,161,407,-324,-82,-287,-302,-453,-268,-414,-4
-331,-244,87,287,-209,-78,-204,-151,-326,-161,-302,73
-126,-185,-58,156,-34,-122,-175,-97,-273,-112,-263,87
-170,-200,-29,185,-70,-114,-146,-48,-224,-68,-229,107
-180,-195,-14,187,-82,-104,-126,-19,-190,-34,-195,112
-185,-165,19,175,-102,-73,-117,0,-170,-29,-180,131
-239,-185,53,212,-146,-65,-102,34,-156,-24,-175,146
-278,-239,39,258,-158,-100,-112,43,-156,-29,-180,131
-297,-287,9,292,-153,-139,-126,39,-161,-34,-190,112
-292,-287,4,290,-148,-141,-117,43,-151,-19,-195,126
-263,-297,-34,280,-114,-165,-112,53,-146,-14,-175,117
-229,-287,-58,258,-85,-173,-117,53,-151,-19,-175,122
-244,-248,-4,246,-119,-126,-97,58,-146,-9,-180,122
-258,-239,19,248,-139,-109,-78,58,-136,0,-170,136
-234,-195,39,214,-136,-78,-58,63,-126,9,-161,141
-234,-190,43,212,-139,-73,-39,92,-117,19,-161,146
-239,-229,9,234,-124,-109,-63,97,-97,34,-161,141
-239,-239,0,239,-119,-119,-58,102,-87,34,-151,146
-229,-224,4,226,-117,-109,-48,112,-82,39,-136,156
-244,-263,-19,253,-112,-141,-53,117,-82,39,-136,151
-253,-263,-9,258,-122,-136,-53,97,-97,24,-151,156
-258,-258,0,258,-129,-129,-58,82,-102,14,-151,156
-219,-248,-29,234,-95,-139,-58,78,-102,24,-151,165
-204,-224,-19,214,-92,-122,-73,97,-97,29,-151,151
-175,-229,-53,202,-61,-141,-68,112,-107,24,-151,141
-170,-248,-78,209,-46,-163,-73,92,-107,9,-156,141
-200,-263,-63,231,-68,-163,-78,78,-107,14,-165,151
-258,-287,-29,273,-114,-158,-78,53,-107,19,-156,165
-292,-292,0,292,-146,-146,-78,43,-117,9,-161,175
-263,-268,-4,265,-129,-136,-78,68,-107,9,-151,156
-219,-229,-9,224,-104,-119,-68,82,-102,29,-141,185
-219,-229,-9,224,-104,-119,-68,102,-102,29,-141,175
-209,-234,-24,222,-92,-129,-58,92,-97,19,-156,180
-244,-239,4,241,-124,-117,-58,92,-87,34,-151,180
-239,-214,24,226,-131,-95,-34,122,-68,43,-126,209
-204,-175,29,190,-117,-73,-43,112,-63,43,-122,190
-185,-239,-53,212,-65,-146,-68,68,-87,24,-141,175
-185,-219,-34,202,-75,-126,-82,63,-97,19,-146,175
-170,-151,19,161,-95,-65,-53,78,-92,14,-146,185
-190,-170,19,180,-104,-75,-73,63,-117,0,-151,165
-204,-229,-24,217,-90,-126,-78,39,-136,-9,-165,165
-170,-195,-24,183,-73,-109,-58,68,-102,14,-146,195
-117,-146,-29,131,-43,-87,-53,78,-78,29,-126,195
-112,-151,-39,131,-36,-95,-53,68,-92,19,-136,180
-156,-175,-19,165,-68,-97,-68,43,-102,9,-165,170
-126,-175,-48,151,-39,-112,-78,24,-122,0,-170,161
-126,-185,-58,156,-34,-122,-73,34,-122,-9,-170,156
-141,-200,-58,170,-41,-129,-92,48,-126,-4,-170,146
-180,-190,-9,185,-85,-100,-87,53,-107,0,-165,170
-195,-204,-9,200,-92,-107,-82,58,-102,4,-146,170
-165,-214,-48,190,-58,-131,-78,58,-97,4,-151,170
-165,-229,-63,197,-51,-146,-73,39,-97,4,-151,156
-214,-224,-9,219,-102,-117,-97,48,-107,-4,-161,156
-253,-229,24,241,-139,-102,-82,43,-107,-4,-156,156
-229,-219,9,224,-119,-104,-82,43,-107,-4,-156,146
-190,-229,-39,209,-75,-134,-87,39,-117,-9,-156,141
-200,-224,-24,212,-87,-124,-78,29,-126,-29,-170,131
-219,-244,-24,231,-97,-134,-73,24,-122,-43,-175,131
-185,-229,-43,207,-70,-136,-73,24,-117,-43,-180,122
-141,-204,-63,173,-39,-134,-73,19,-112,-19,-180,112
-112,-165,-53,139,-29,-109,-58,43,-107,-19,-161,122
-87,-151,-63,119,-12,-107,-53,48,-107,-19,-156,126
-102,-156,-53,129,-24,-104,-58,48,-122,-34,-156,131
-48,-122,-73,85,12,-97,-53,53,-107,-14,-151,141
-73,-126,-53,100,-9,-90,-58,43,-112,-29,-151,141
-136,-180,-43,158,-46,-112,-68,39,-117,-48,-161,122
-195,-239,-43,217,-75,-141,-87,34,-122,-63,-175,112
-244,-268,-24,256,-109,-146,-78,29,-126,-53,-190,112
-204,-219,-14,212,-95,-117,-63,43,-112,-39,-185,122
-170,-180,-9,175,-80,-95,-58,68,-107,-39,-165,131
-112,-161,-48,136,-31,-104,-58,58,-107,-39,-170,131
-78,-151,-73,114,-2,-112,-73,48,-117,-53,-175,117
-107,-151,-43,129,-31,-97,-53,58,-97,-48,-165,122
-126,-136,-9,131,-58,-73,-4,92,-73,-24,-146,161
-151,-122,29,136,-90,-46,14,102,-63,-19,-122,180
-170,-141,29,156,-100,-56,14,102,-63,-24,-131,165
-161,-190,-29,175,-65,-109,-14,68,-97,-68,-165,141
-146,-185,-39,165,-53,-112,-14,68,-107,-68,-180,131
-146,-209,-63,178,-41,-136,-29,58,-107,-78,-195,126
-190,-253,-63,222,-63,-158,-53,43,-126,-97,-214,117
-190,-239,-48,214,-70,-143,-58,34,-131,-112,-209,122
-175,-229,-53,202,-61,-141,-48,43,-126,-107,-204,126
-170,-209,-39,190,-65,-124,-29,68,-117,-87,-185,141
-170,-200,-29,185,-70,-114,-19,58,-112,-82,-190,165
-151,-219,-68,185,-41,-143,-39,43,-126,-107,-219,136
-165,-234,-68,200,-48,-151,-53,34,-151,-126,-229,126
-190,-258,-68,224,-61,-163,-63,24,-151,-136,-244,117
-190,-268,-78,229,-56,-173,-78,19,-161,-141,-248,107
-126,-190,-63,158,-31,-126,-58,34,-146,-136,-224,131
-102,-165,-63,134,-19,-114,-39,53,-141,-122,-229,136
-97,-151,-53,124,-21,-102,-19,73,-112,-102,-204,161
-73,-73,0,73,-36,-36,9,112,-82,-73,-170,214
-63,-92,-29,78,-17,-61,-4,92,-87,-97,-180,170
-78,-146,-68,112,-4,-107,-34,58,-131,-136,-234,161
-92,-170,-78,131,-7,-124,-48,43,-161,-165,-258,146
-102,-200,-97,151,-2,-148,-68,24,-180,-185,-287,136
-92,-180,-87,136,-2,-134,-63,24,-170,-185,-287,136
-48,-136,-87,92,19,-112,-53,29,-175,-185,-287,146
-82,-126,-43,104,-19,-85,-48,34,-180,-180,-287,146
-146,-165,-19,156,-63,-92,-58,34,-185,-185,-297,136
-175,-190,-14,183,-80,-102,-78,29,-204,-204,-312,112
-151,-204,-53,178,-48,-129,-92,19,-224,-234,-341,102
-141,-219,-78,180,-31,-148,-102,14,-244,-248,-361,82
-131,-214,-82,173,-24,-148,-107,9,-253,-263,-380,73
-141,-200,-58,170,-41,-129,-92,4,-263,-273,-390,82
-107,-195,-87,151,-9,-141,-92,0,-263,-278,-395,82
-131,-185,-53,158,-39,-119,-102,-4,-263,-278,-405,87
-141,-185,-43,163,-48,-114,-102,-9,-263,-283,-395,87
-141,-224,-82,183,-29,-153,-117,-24,-268,-297,-405,73
-170,-253,-82,212,-43,-168,-126,-39,-278,-312,-409,73
-195,-268,-73,231,-61,-170,-141,-53,-292,-326,-424,68
-175,-278,-102,226,-36,-190,-141,-68,-297,-336,-429,58
-136,-209,-73,173,-31,-141,-122,-48,-258,-307,-409,87
-122,-170,-48,146,-36,-109,-107,-34,-258,-283,-385,107
-117,-151,-34,134,-41,-92,-107,-34,-258,-292,-380,112
-68,-131,-63,100,-2,-97,-117,-34,-258,-287,-375,126
-58,-136,-78,97,9,-107,-112,-14,-229,-278,-341,151
-97,-136,-39,117,-29,-87,-107,4,-219,-244,-322,156
-107,-136,-29,122,-39,-82,-87,14,-204,-214,-302,180
-107,-131,-24,119,-41,-78,-73,24,-190,-190,-273,214
-112,-122,-9,117,-51,-65,-68,19,-170,-180,-258,224
-87,-117,-29,102,-29,-73,-63,24,-161,-165,-239,234
-58,-82,-24,70,-17,-53,-39,48,-141,-141,-214,253
-14,-73,-58,43,21,-65,-34,48,-117,-131,-204,268
-29,-112,-82,70,26,-97,-34,43,-126,-126,-190,258
-48,-117,-68,82,9,-92,-34,58,-112,-112,-195,263
-29,-82,-53,56,12,-68,-19,92,-73,-73,-161,297
-14,-43,-29,29,7,-36,0,107,-48,-48,-112,326
0,-43,-43,21,21,-43,29,97,-39,-34,-97,326
0,-39,-39,19,19,-39,14,97,-34,-9,-97,326
-29,-48,-19,39,-4,-34,0,97,-29,-4,-97,326
-58,-102,-43,80,-7,-73,0,97,-24,-9,-97,326
-136,-122,14,129,-75,-53,19,112,0,0,-78,346
-131,-92,39,112,-85,-26,39,131,39,34,-34,370
-63,-39,24,51,-43,-7,63,141,48,58,-19,390
-48,-34,14,41,-31,-9,73,146,53,68,-9,405
-112,-87,24,100,-68,-31,58,131,39,63,-24,390
-146,-97,48,122,-97,-24,63,122,48,63,-19,395
-131,-97,34,114,-82,-31,68,112,43,63,-24,390
-126,-126,0,126,-63,-63,48,97,24,39,-43,361
-117,-131,-14,124,-51,-73,43,87,34,48,-39,356
-117,-102,14,109,-65,-43,53,102,48,43,-19,385
-156,-117,39,136,-97,-39,48,102,48,43,-14,419
-180,-141,39,161,-109,-51,29,87,34,43,-24,385
-136,-141,-4,139,-65,-73,29,78,39,53,-24,361
-146,-102,43,124,-95,-29,43,87,53,53,-9,395
-136,-78,58,107,-97,-9,43,87,58,63,-4,395
-117,-58,58,87,-87,0,43,82,58,63,-4,366
-92,-34,58,63,-75,12,39,78,58,63,9,385
-68,-58,9,63,-39,-24,43,78,58,63,14,380
-112,-53,58,82,-85,2,53,82,63,53,19,375
-78,-29,48,53,-63,9,63,82,68,63,24,380
-39,-24,14,31,-26,-4,63,92,78,73,29,400
-58,-24,34,41,-46,4,63,92,63,73,24,400
-87,-43,43,65,-65,0,63,87,63,73,29,390
-102,-43,58,73,-80,7,63,87,63,68,34,385
-97,-58,39,78,-68,-9,58,63,53,29,19,370
-102,-53,48,78,-75,-2,53,73,48,53,29,370
-117,-43,73,80,-95,14,63,82,63,78,43,375
-141,-68,73,104,-107,2,58,92,58,73,39,385
-122,-68,53,95,-87,-7,53,78,48,53,29,385
-102,-58,43,80,-73,-7,53,58,43,48,24,366
-102,-87,14,95,-58,-36,48,53,39,34,19,366
-107,-97,9,102,-58,-43,39,48,34,29,4,366
-141,-97,43,119,-92,-26,58,58,24,39,14,375
-151,-107,43,129,-97,-31,63,58,24,34,14,375
-136,-112,24,124,-80,-43,68,68,29,39,24,405
-146,-112,34,129,-90,-39,68,73,34,39,24,405
-156,-136,19,146,-87,-58,53,63,29,29,14,380
-161,-151,9,156,-85,-70,48,53,24,29,4,361
-195,-175,19,185,-107,-78,34,53,19,14,0,375
-234,-200,34,217,-134,-82,19,58,19,0,0,390
-170,-195,-24,183,-73,-109,29,43,29,29,9,395
-107,-161,-53,134,-26,-107,34,43,19,29,24,390
-122,-146,-24,134,-48,-85,68,34,19,29,14,395
-161,-146,14,153,-87,-65,82,48,14,29,14,370
-126,-126,0,126,-63,-63,82,29,14,29,14,361
-102,-117,-14,109,-43,-65,97,43,24,39,14,380
-92,-92,0,92,-46,-46,107,73,43,53,39,429
-82,-63,19,73,-51,-21,117,102,63,68,63,478
-97,-92,4,95,-51,-43,82,73,34,48,39,448
-107,-87,19,97,-63,-34,92,73,39,58,48,444
-102,-63,39,82,-70,-12,107,82,53,68,53,444
-112,-48,63,80,-87,7,117,82,48,68,53,453
-63,-34,29,48,-46,-2,68,63,34,43,43,439
34,73,39,-53,-2,56,97,97,68,82,82,478
14,34,19,-24,-2,26,92,73,48,82,63,453
-73,-63,9,68,-41,-26,73,39,24,53,34,414
-87,-39,48,63,-68,4,68,29,19,48,29,429
-107,-53,53,80,-80,0,68,34,29,48,34,434
-126,-58,68,92,-97,4,68,39,29,48,39,439
-146,-63,82,104,-114,9,68,43,29,48,43,444
-165,-68,97,117,-131,14,68,48,29,48,48,448
-185,-53,131,119,-158,39,92,58,39,63,53,453
-156,-34,122,95,-139,43,107,43,34,68,53,473
-102,-24,78,63,-90,26,97,58,34,82,53,453
-107,-19,87,63,-97,34,97,78,48,73,58,448
-156,-63,92,109,-124,14,87,53,43,58,53,448
-151,-78,73,114,-112,-2,78,29,19,43,48,439
-78,-53,24,65,-51,-14,78,29,14,34,24,419
-53,-29,24,41,-39,-2,82,43,19,53,39,444
-97,-48,48,73,-73,0,82,39,9,39,34,448
-107,-97,9,102,-58,-43,73,34,-4,34,19,429
-78,-92,-14,85,-31,-53,73,29,-4,29,14,424
-78,-73,4,75,-41,-34,73,24,0,29,9,424
-136,-126,9,131,-73,-58,63,29,14,34,24,434
-161,-146,14,153,-87,-65,68,39,14,34,14,439
-141,-122,19,131,-80,-51,68,43,14,34,14,434
-136,-117,19,126,-78,-48,68,34,34,34,24,439
-126,-131,-4,129,-61,-68,68,24,4,24,14,424
-102,-151,-48,126,-26,-100,48,14,-4,14,-4,419
-126,-170,-43,148,-41,-107,19,19,-14,0,-14,414
-170,-195,-24,183,-73,-109,14,-4,-24,-9,-24,409
-136,-151,-14,143,-61,-82,29,29,-9,19,0,424
-73,-102,-29,87,-21,-65,48,34,4,39,24,448
-58,-73,-14,65,-21,-43,63,39,24,48,39,448
-92,-68,24,80,-58,-21,78,48,39,53,43,463
-107,-97,9,102,-58,-43,68,43,29,53,34,478
-102,-97,4,100,-53,-46,73,48,29,53,34,478
-131,-117,14,124,-73,-51,73,43,29,63,43,478
-102,-107,-4,104,-48,-56,63,29,14,43,34,468
-53,-73,-19,63,-17,-46,53,24,14,53,34,468
-9,-14,-4,12,-2,-9,58,43,34,58,43,492
4,-9,-14,2,9,-12,82,58,43,63,58,502
-24,-19,4,21,-14,-7,97,82,68,68,68,507
-14,-19,-4,17,-4,-12,82,58,58,63,63,488
4,-24,-29,9,17,-26,82,43,48,78,68,502
-43,-53,-9,48,-17,-31,73,39,29,48,63,502
-58,-68,-9,63,-24,-39,48,29,9,39,29,483
-78,-73,4,75,-41,-34,68,29,9,29,29,473
-63,-68,-4,65,-29,-36,92,34,43,53,34,488
-73,-73,0,73,-36,-36,87,34,43,53,48,488
-92,-78,14,85,-53,-31,92,34,34,39,48,483
-102,-92,9,97,-56,-41,92,34,14,34,24,458
-92,-87,4,90,-48,-41,82,14,9,24,14,453
-78,-82,-4,80,-36,-43,82,14,9,19,9,453
-48,-68,-19,58,-14,-43,87,19,9,14,4,458
-43,-53,-9,48,-17,-31,87,48,9,14,4,458
-43,-73,-29,58,-7,-51,78,48,4,4,-4,453
-78,-92,-14,85,-31,-53,68,58,-4,-4,-14,434
-68,-78,-9,73,-29,-43,68,68,-4,-4,-14,444
-73,-68,4,70,-39,-31,82,92,19,24,9,463
-92,-63,29,78,-61,-17,92,107,24,34,14,468
-151,-68,82,109,-117,7,92,97,24,34,19,473
-200,-102,97,151,-148,-2,92,97,24,34,19,478
-190,-117,73,153,-131,-21,92,82,19,14,4,468
-151,-112,39,131,-95,-36,92,78,4,4,-9,448
-122,-102,19,112,-70,-41,82,73,-9,0,-19,444
-131,-107,24,119,-78,-41,87,68,-14,0,-24,439
-136,-117,19,126,-78,-48,82,63,-19,-14,-29,439
-136,-126,9,131,-73,-58,73,63,-24,-19,-24,439
-136,-131,4,134,-70,-63,63,63,-24,-9,-29,444
-112,-131,-19,122,-46,-75,53,58,-29,-24,-39,444
-141,-156,-14,148,-63,-85,53,63,-43,-29,-48,439
-146,-146,0,146,-73,-73,58,73,-24,-24,-39,444
-112,-87,24,100,-68,-31,78,97,-14,-19,-14,463
-102,-68,34,85,-68,-17,87,117,9,-4,-4,468
-97,-78,19,87,-58,-29,78,102,14,-9,-4,458
-68,-68,0,68,-34,-34,78,87,-4,-14,-9,458
-24,-58,-34,41,4,-46,78,82,-9,-19,-24,453
-19,-78,-58,48,19,-68,78,78,-14,-34,-34,448
-48,-63,-14,56,-17,-39,87,82,-9,-34,-24,458
-39,-34,4,36,-21,-14,92,97,0,-14,-9,468
-53,0,53,26,-53,26,107,117,19,9,14,492
-73,-24,48,48,-61,12,97,131,19,9,4,483
-68,-43,24,56,-46,-9,73,122,9,-4,-4,463
-117,-53,63,85,-90,4,87,112,4,-14,-4,458
-58,-34,24,46,-41,-4,82,102,-4,-19,-9,448
4,-43,-48,19,26,-46,87,102,-14,-24,-19,439
-29,-63,-34,46,2,-48,78,117,-14,-24,-34,424
-58,-92,-34,75,-12,-63,78,92,-14,-29,-34,424
-53,-78,-24,65,-14,-51,78,92,-14,-34,-39,424
-68,-78,-9,73,-29,-43,78,102,-14,-34,-39,424
-82,-112,-29,97,-26,-70,73,97,-24,-29,-29,414
-14,-78,-63,46,24,-70,48,92,-34,-48,-34,400
-53,-68,-14,61,-19,-41,48,122,-14,-29,-24,419
-170,-146,24,158,-97,-61,48,117,-9,-19,-29,419
-156,-170,-14,163,-70,-92,34,102,-19,-39,-39,409
-92,-141,-48,117,-21,-95,43,102,-24,-39,-29,409
-131,-151,-19,141,-56,-85,53,112,-14,-19,-19,419
-200,-156,43,178,-122,-56,73,112,-4,-9,-9,434
-185,-112,73,148,-129,-19,87,126,19,9,4,444
-43,-78,-34,61,-4,-56,63,126,4,-4,0,424
68,-97,-165,14,117,-131,29,122,-24,-34,-29,405
0,-146,-146,73,73,-146,48,131,-4,-19,-24,400
-78,-141,-63,109,-7,-102,82,190,48,34,29,444
-29,-68,-39,48,4,-53,122,273,136,126,122,512
29,24,-4,-26,17,9,156,370,263,278,278,629
0,58,58,-29,-29,58,156,453,361,434,463,756
0,0,0,0,0,0,87,507,419,566,653,893
14,-43,-58,14,36,-51,24,605,507,727,893,1068
136,92,-43,-114,90,24,39,824,722,1005,1259,1371
424,385,-39,-405,231,173,146,1210,1078,1424,1761,1795
522,424,-97,-473,309,163,156,1629,1439,1810,2230,2161
434,312,-122,-373,278,95,107,1995,1761,2147,2625,2459
541,473,-68,-507,305,202,136,2210,2039,2469,3015,2810
785,795,9,-790,387,402,165,2098,2049,2566,3215,3074
878,893,14,-885,431,453,82,1737,1751,2322,3040,3069
795,814,19,-805,387,417,-19,1317,1337,1859,2542,2820
717,814,97,-766,309,456,-58,854,907,1327,1908,2474
614,883,268,-749,173,575,-9,307,448,766,1239,2064
390,907,517,-649,-63,712,136,-126,73,239,561,1600
204,834,629,-519,-212,732,268,-512,-292,-273,-126,1015
0,639,639,-319,-319,639,297,-936,-678,-741,-707,468
-151,512,663,-180,-407,588,307,-1259,-951,-1005,-1029,117
-200,448,649,-124,-424,549,278,-1420,-1132,-1122,-1127,-48
-326,370,697,-21,-512,534,161,-1512,-1293,-1195,-1127,-87
-414,278,692,68,-553,485,34,-1527,-1356,-1210,-1083,-82
-336,190,527,73,-431,358,-87,-1459,-1317,-1166,-1029,-102
-200,126,326,36,-263,226,-165,-1307,-1195,-1093,-956,-107
-224,82,307,70,-265,195,-156,-1083,-995,-927,-814,-48
-322,87,409,117,-366,248,-107,-824,-736,-702,-624,58
-283,97,380,92,-331,239,-97,-658,-570,-556,-507,97
-190,53,244,68,-217,148,-117,-561,-492,-488,-434,102
-161,-43,117,102,-139,36,-97,-434,-390,-405,-370,107
-136,-122,14,129,-75,-53,-73,-331,-317,-356,-336,102
-107,-136,-29,122,-39,-82,-58,-258,-258,-326,-302,102
-136,-58,78,97,-107,9,29,-136,-126,-209,-185,185
-122,43,165,39,-143,104,126,-29,-19,-97,-92,263
-92,4,97,43,-95,51,122,-43,-24,-92,-97,219
-68,0,68,34,-68,34,107,-58,-34,-117,-112,200
-92,-53,39,73,-65,-7,97,-58,-48,-141,-136,175
-102,-141,-39,122,-31,-90,63,-82,-78,-175,-170,122
-146,-165,-19,156,-63,-92,68,-78,-63,-161,-165,112
-156,-141,14,148,-85,-63,87,-63,-43,-136,-156,136
-141,-126,14,134,-78,-56,102,-43,-29,-122,-122,136
-122,-92,29,107,-75,-31,107,-34,-24,-117,-107,151
-102,-82,19,92,-61,-31,87,-24,-29,-117,-112,126
-73,-92,-19,82,-26,-56,78,-29,-29,-117,-112,117
-4,-68,-63,36,29,-65,68,-29,-29,-117,-112,97
39,-82,-122,21,80,-102,58,-4,-29,-117,-122,78
19,-126,-146,53,82,-136,39,-29,-39,-131,-136,53
4,-141,-146,68,75,-143,39,-43,-48,-151,-141,48
0,-131,-131,65,65,-131,43,-53,-63,-165,-141,48
-29,-175,-146,102,58,-161,34,-68,-82,-185,-156,34
-43,-175,-131,109,43,-153,39,-68,-87,-175,-156,29
-53,-161,-107,107,26,-134,39,-73,-82,-180,-151,29
-19,-141,-122,80,51,-131,43,-68,-73,-165,-146,39
-9,-107,-97,58,43,-102,34,-39,-58,-156,-141,24
4,-102,-107,48,56,-104,53,-4,-53,-151,-131,29
-4,-122,-117,63,56,-119,53,-14,-48,-156,-126,34
-48,-136,-87,92,19,-112,53,-19,-43,-141,-126,48
-122,-161,-39,141,-41,-100,58,-34,-39,-126,-107,68
-146,-175,-29,161,-58,-102,48,-39,-48,-136,-112,58
-107,-151,-43,129,-31,-97,39,-19,-39,-136,-102,39
-53,-112,-58,82,2,-85,39,-9,-34,-117,-92,68
-43,-112,-68,78,12,-90,29,4,-34,-117,-92,58
-39,-126,-87,82,24,-107,14,-19,-39,-126,-112,43
-68,-141,-73,104,2,-107,9,-24,-39,-112,-112,43
-58,-126,-68,92,4,-97,29,0,-29,-102,-92,73
-19,-97,-78,58,29,-87,14,-14,-34,-102,-92,53
0,-156,-156,78,78,-156,-9,-39,-43,-107,-102,58
0,-131,-131,65,65,-131,-24,-34,-39,-107,-97,58
14,-58,-73,21,43,-65,4,-9,-19,-107,-87,68
-4,-73,-68,39,31,-70,-14,-14,-29,-117,-82,48
-68,-175,-107,122,19,-141,-43,-48,-68,-136,-107,34
-73,-165,-92,119,9,-129,-29,-29,-43,-122,-97,58
-58,-141,-82,100,12,-112,-29,-29,-29,-117,-87,53
-92,-170,-78,131,-7,-124,-34,-48,-53,-136,-107,34
-82,-141,-58,112,-12,-100,-19,-34,-39,-122,-107,53
-19,-87,-68,53,24,-78,0,-34,-34,-107,-92,63
14,-43,-58,14,36,-51,34,-4,-9,-92,-73,78
34,-4,-39,-14,36,-21,43,29,9,-63,-53,87
29,-4,-34,-12,31,-19,34,24,0,-82,-68,87
29,-29,-58,0,43,-43,34,19,-4,-92,-58,82
73,-48,-122,-12,97,-85,34,9,-9,-107,-73,78
87,-73,-161,-7,124,-117,34,-19,-19,-122,-82,58
34,-87,-122,26,78,-104,14,-29,-39,-136,-92,63
-9,-102,-92,56,41,-97,24,-34,-39,-141,-97,58
9,-102,-112,46,61,-107,19,-34,-39,-146,-107,43
43,-122,-165,39,104,-143,9,-39,-48,-156,-117,34
14,-122,-136,53,75,-129,0,-34,-58,-165,-131,29
-24,-156,-131,90,53,-143,4,-34,-53,-180,-136,34
-9,-156,-146,82,68,-151,4,-29,-48,-180,-141,29
14,-146,-161,65,87,-153,4,-29,-43,-156,-141,24
-24,-136,-112,80,43,-124,9,-19,-39,-165,-126,34
-48,-151,-102,100,26,-126,14,-19,-39,-165,-126,39
-112,-185,-73,148,-19,-129,9,-24,-53,-180,-131,43
-107,-180,-73,143,-17,-126,14,-24,-39,-161,-131,53
-63,-141,-78,102,7,-109,19,-29,-43,-170,-126,63
-68,-161,-92,114,12,-126,19,-29,-48,-185,-131,53
-68,-185,-117,126,24,-151,9,-29,-53,-195,-141,53
-58,-180,-122,119,31,-151,29,-29,-58,-180,-151,63
-29,-131,-102,80,36,-117,48,-14,-43,-161,-141,82
-14,-92,-78,53,31,-85,58,19,-29,-156,-117,102
24,-73,-97,24,61,-85,63,19,-19,-151,-117,112
39,-63,-102,12,70,-82,53,19,-19,-161,-117,107
29,-97,-126,34,78,-112,39,0,-34,-185,-126,92
19,-97,-117,39,68,-107,63,14,-24,-170,-126,112
4,-97,-102,46,53,-100,58,4,-29,-175,-122,112
-4,-131,-126,68,61,-129,34,-14,-43,-190,-151,78
19,-161,-180,70,100,-170,9,-34,-63,-219,-175,58
39,-136,-175,48,107,-156,14,-29,-68,-214,-180,53
43,-141,-185,48,114,-163,4,-34,-63,-219,-185,53
4,-165,-170,80,87,-168,-14,-43,-78,-234,-195,48
-14,-151,-136,82,61,-143,-4,-29,-63,-229,-190,53
0,-131,-131,65,65,-131,9,-4,-48,-214,-175,68
4,-102,-107,48,56,-104,34,34,-29,-185,-146,92
4,-82,-87,39,46,-85,48,39,-14,-170,-141,126
43,-92,-136,24,90,-114,29,9,-29,-190,-175,92
29,-107,-136,39,82,-122,24,-4,-53,-214,-190,78
4,-131,-136,63,70,-134,24,-19,-53,-229,-209,63
4,-141,-146,68,75,-143,19,-29,-63,-239,-219,48
14,-112,-126,48,70,-119,9,-43,-73,-248,-229,48
-4,-136,-131,70,63,-134,9,-43,-82,-248,-258,29
-43,-170,-126,107,41,-148,9,-43,-68,-244,-258,29
-63,-141,-78,102,7,-109,19,-24,-53,-229,-248,58
-4,-102,-97,53,46,-100,24,-14,-39,-219,-224,43
19,-107,-126,43,73,-117,14,-29,-63,-234,-253,53
43,-82,-126,19,85,-104,19,-24,-73,-239,-253,58
73,-63,-136,-4,104,-100,19,-24,-73,-234,-258,68
82,-48,-131,-17,107,-90,19,-19,-68,-229,-253,68
136,-9,-146,-63,141,-78,24,-19,-68,-234,-258,78
112,-4,-117,-53,114,-61,24,-19,-68,-234,-263,78
58,-48,-107,-4,82,-78,9,-24,-68,-244,-278,68
9,-87,-97,39,53,-92,0,-43,-92,-268,-292,58
4,-107,-112,51,58,-109,-14,-68,-117,-292,-312,53
-14,-126,-112,70,48,-119,-24,-87,-141,-302,-322,39
-34,-126,-92,80,29,-109,-29,-107,-156,-312,-331,34
-9,-92,-82,51,36,-87,-14,-92,-141,-307,-322,53
39,-78,-117,19,78,-97,-14,-87,-136,-307,-326,53
29,-58,-87,14,58,-73,-24,-82,-131,-302,-336,58
34,-48,-82,7,58,-65,-24,-78,-126,-302,-326,58
29,-87,-117,29,73,-102,-34,-97,-146,-326,-336,43
4,-117,-122,56,63,-119,-48,-117,-161,-341,-351,34
-14,-131,-117,73,51,-124,-68,-136,-180,-356,-375,19
9,-141,-151,65,80,-146,-73,-156,-190,-366,-390,0
48,-78,-126,14,87,-102,-48,-131,-146,-331,-356,43
63,-43,-107,-9,85,-75,-19,-102,-131,-302,-326,68
68,-29,-97,-19,82,-63,-4,-87,-117,-307,-317,78
117,-14,-131,-51,124,-73,0,-73,-102,-297,-307,97
102,-48,-151,-26,126,-100,-9,-68,-87,-292,-297,107
48,-58,-107,4,78,-82,-9,-53,-82,-263,-283,107
24,-68,-92,21,58,-80,4,-48,-73,-239,-268,126
9,-73,-82,31,46,-78,14,-43,-63,-219,-244,156
-29,-92,-63,61,17,-78,9,-58,-68,-219,-253,146
-39,-107,-68,73,14,-87,4,-63,-63,-214,-239,146
-43,-92,-48,68,2,-70,19,-48,-48,-200,-219,156
-34,-102,-68,68,17,-85,14,-58,-29,-200,-214,161
-24,-112,-87,68,31,-100,19,-58,-39,-190,-195,161
-9,-87,-78,48,34,-82,24,-39,-24,-170,-195,175
43,-24,-68,-9,56,-46,43,0,14,-126,-156,219
92,43,-48,-68,70,-2,68,19,39,-97,-102,258
97,29,-68,-63,82,-19,82,14,34,-97,-92,258
87,29,-58,-58,73,-14,63,9,34,-78,-97,258
48,14,-34,-31,41,-9,43,4,34,-78,-102,258
9,-43,-53,17,31,-48,39,0,34,-87,-107,258
-53,-73,-19,63,-17,-46,39,-4,39,-87,-107,248
-43,-53,-9,48,-17,-31,48,4,68,-63,-73,263
29,-9,-39,-9,34,-24,63,4,68,-48,-68,273
48,-14,-63,-17,56,-39,63,0,63,-48,-68,278
-39,-73,-34,56,-2,-53,73,9,58,-43,-73,258
-87,-78,9,82,-48,-34,82,14,78,-34,-58,258
-87,-73,14,80,-51,-29,92,19,82,-24,-53,248
-97,-97,0,97,-48,-48,78,19,73,-39,-63,214
-48,-78,-29,63,-9,-53,87,19,82,-34,-63,126
-19,-34,-14,26,-2,-24,102,34,97,-34,-48,82
-29,-34,-4,31,-12,-19,102,34,97,-29,-48,43
-24,-43,-19,34,-2,-31,87,19,82,-24,-63,-63
-9,-48,-39,29,14,-43,87,29,87,-9,-48,-126
-39,-14,24,26,-31,4,102,39,102,-4,-29,-122
-48,4,53,21,-51,29,102,39,107,9,-19,-151
-48,19,68,14,-58,43,102,34,107,14,-14,-209
-48,0,48,24,-48,24,53,-19,58,-24,-53,-292
-48,-146,-97,97,24,-122,-4,-97,-9,-102,-131,-380
39,-68,-107,14,73,-87,19,-78,9,-78,-107,-380
9,-58,-68,24,39,-63,24,-73,24,-63,-97,-380
-9,-48,-39,29,14,-43,29,-68,29,-58,-87,-380
-29,-39,-9,34,-9,-24,34,-63,34,-53,-78,-380
-48,-29,19,39,-34,-4,39,-58,39,-48,-68,-380
-82,-19,63,51,-73,21,53,-29,43,-24,-43,-390
-68,-4,63,36,-65,29,68,-43,43,-19,-43,-375
-29,0,29,14,-29,14,58,-29,48,-4,-43,-400
-48,0,48,24,-48,24,58,-9,68,-14,-39,-409
-107,-39,68,73,-87,14,48,-29,73,-9,-43,-419
-102,-48,53,75,-78,2,39,-48,48,-24,-48,-439
-29,-19,9,24,-19,-4,39,-43,43,-34,-73,-468
-4,9,14,-2,-9,12,43,-24,48,-14,-58,-453
-29,9,39,9,-34,24,43,-24,53,-9,-43,-453
-39,-29,9,34,-24,-9,34,-24,43,-4,-48,-468
-9,-14,-4,12,-2,-9,34,-24,48,0,-43,-468
-9,14,24,-2,-17,19,34,-24,58,9,-39,-463
-63,-39,24,51,-43,-7,34,-14,73,14,-34,-463
-82,-58,24,70,-53,-17,39,-9,73,14,-43,-468
-58,-34,24,46,-41,-4,39,-9,73,14,-43,-483
-48,-29,19,39,-34,-4,39,-24,92,14,-34,-488
-29,-9,19,19,-24,4,58,-9,97,34,-14,-473
4,-4,-9,0,7,-7,58,4,102,43,-14,-468
-9,0,9,4,-9,4,48,34,107,48,-4,-463
-43,0,43,21,-43,21,63,34,112,58,4,-458
-43,19,63,12,-53,41,73,58,131,82,14,-444
4,53,48,-29,-21,51,87,63,141,97,34,-429
4,68,63,-36,-29,65,97,68,156,102,43,-439
-43,58,102,-7,-73,80,107,78,165,102,43,-434
-73,24,97,24,-85,61,117,63,161,92,43,-444
-73,19,92,26,-82,56,122,68,156,92,43,-448
-107,-4,102,56,-104,48,122,63,151,102,53,-453
-82,0,82,41,-82,41,112,48,131,82,43,-468
-34,9,43,12,-39,26,107,24,112,68,24,-488
9,53,43,-31,-17,48,107,34,122,68,24,-473
24,43,19,-34,2,31,126,39,122,68,29,-473
-4,19,24,-7,-14,21,136,53,136,68,29,-478
-14,14,29,0,-21,21,122,53,136,68,39,-488
-14,4,19,4,-17,12,122,43,136,87,48,-473
-82,-29,53,56,-68,12,112,43,126,63,48,-473
-117,-48,68,82,-92,9,87,39,117,58,19,-492
-97,-29,68,63,-82,19,102,48,97,58,29,-492
-53,-9,43,31,-48,17,122,53,131,82,34,-478
-34,0,34,17,-34,17,112,53,131,82,48,-478
-24,9,34,7,-29,21,112,53,122,68,48,-483
-53,-34,19,43,-36,-7,97,53,107,63,34,-512
-53,-39,14,46,-34,-12,82,24,97,53,24,-522
-48,-43,4,46,-26,-19,78,14,92,48,19,-527
-29,-39,-9,34,-9,-24,78,9,87,43,14,-527
-24,-14,9,19,-17,-2,102,29,92,53,29,-512
-24,-24,0,24,-12,-12,97,19,92,53,24,-512
-58,-34,24,46,-41,-4,92,19,87,53,19,-527
-48,-9,39,29,-43,14,97,19,92,63,24,-512
0,34,34,-17,-17,34,102,39,117,92,48,-488
24,63,39,-43,-7,51,112,58,122,102,53,-488
9,82,73,-46,-31,78,112,53,122,102,58,-488
4,73,68,-39,-31,70,112,58,122,102,58,-488
-29,43,73,-7,-51,58,107,48,122,102,58,-492
-14,34,48,-9,-31,41,102,48,112,92,48,-507
-9,29,39,-9,-24,34,87,48,102,87,43,-507
-43,9,53,17,-48,31,87,48,102,87,43,-507
-48,0,48,24,-48,24,68,19,87,73,19,-522
-48,-19,29,34,-39,4,53,4,73,58,14,-536
-48,-34,14,41,-31,-9,39,-9,63,58,0,-546
-24,-43,-19,34,-2,-31,24,-29,48,34,-19,-561
-73,-87,-14,80,-29,-51,-9,-63,9,19,-48,-585
-87,-97,-9,92,-39,-53,-19,-73,14,14,-48,-590
-63,-58,4,61,-34,-26,-14,-68,9,9,-34,-580
-63,-58,4,61,-34,-26,-19,-68,19,14,-34,-585
-102,-68,34,85,-68,-17,-9,-68,19,14,-19,-570
-107,-68,39,87,-73,-14,-9,-78,4,14,-19,-566
-97,-68,29,82,-63,-19,-9,-78,4,14,-29,-566
-126,-97,29,112,-78,-34,-9,-78,4,4,-34,-566
-151,-97,53,124,-102,-21,-4,-78,9,4,-24,-566
-126,-73,53,100,-90,-9,-4,-78,9,14,-19,-566
-126,-43,82,85,-104,19,4,-73,19,29,-4,-551
-131,-73,58,102,-95,-7,-9,-73,9,19,-24,-570
-136,-97,39,117,-87,-29,-24,-87,-4,0,-34,-585
-195,-112,82,153,-139,-14,-9,-92,-4,-4,-34,-585
-146,-97,48,122,-97,-24,-14,-97,-9,-4,-39,-590
-92,-112,-19,102,-36,-65,-9,-92,-14,-4,-48,-595
-63,-63,0,63,-31,-31,14,-53,14,14,-34,-575
-48,-34,14,41,-31,-9,29,-63,34,29,-14,-561
0,39,39,-19,-19,39,43,-48,53,43,0,-546
29,97,68,-63,-19,82,58,-24,73,63,19,-531
43,92,48,-68,-2,70,82,-9,82,78,48,-512
-34,-9,24,21,-29,7,39,-53,43,29,-4,-556
-63,-39,24,51,-43,-7,39,-53,43,39,-14,-566
4,39,34,-21,-14,36,78,-9,78,68,19,-536
-87,-24,63,56,-75,19,63,-14,48,48,-9,-566
-190,-141,48,165,-119,-46,34,-14,14,9,-48,-614
-102,-63,39,82,-70,-12,63,53,43,48,-9,-575
4,39,34,-21,-14,36,92,82,73,78,19,-551
-39,-4,34,21,-36,14,58,68,48,48,-14,-580
-141,-68,73,104,-107,2,73,107,63,63,0,-561
-97,-68,29,82,-63,-19,97,131,82,73,9,-551
-29,-97,-68,63,19,-82,78,112,53,39,-24,-595
-87,-131,-43,109,-21,-87,82,151,78,63,-9,-600
-126,-107,19,117,-73,-43,131,224,165,165,92,-531
-78,-82,-4,80,-36,-43,126,273,224,258,190,-463
-87,-87,0,87,-43,-43,107,326,302,375,346,-346
-117,0,117,58,-117,58,126,497,478,624,644,-92
24,141,117,-82,-46,129,141,702,663,883,980,170
263,180,-82,-222,173,48,87,893,819,1093,1268,395
297,190,-107,-244,202,41,78,1229,1098,1424,1673,722
356,326,-29,-341,192,148,136,1737,1527,1878,2200,1146
619,566,-53,-592,336,256,185,2132,1908,2283,2684,1551
717,717,0,-717,358,358,185,2171,2039,2508,3015,1873
658,766,107,-712,275,436,117,1893,1864,2459,3079,2020
702,766,63,-734,319,414,14,1512,1517,2156,2815,1937
766,824,58,-795,353,441,-19,1161,1190,1761,2357,1717
912,1156,244,-1034,334,700,87,775,888,1356,1849,1468
897,1322,424,-1110,236,873,195,297,507,863,1210,1049
497,1034,536,-766,-19,785,224,-234,43,248,434,419
68,688,619,-378,-275,653,268,-727,-419,-341,-312,-234
-107,551,658,-222,-383,605,317,-1112,-795,-761,-814,-712
-287,414,702,-63,-495,558,278,-1385,-1078,-985,-1068,-1005
-424,302,727,61,-575,514,170,-1527,-1259,-1102,-1156,-1122
-258,400,658,-70,-458,529,92,-1512,-1312,-1088,-1068,-1063
-161,424,585,-131,-373,505,4,-1410,-1249,-1015,-946,-980
-287,268,556,9,-422,412,-97,-1293,-1161,-951,-883,-980
-278,156,434,61,-356,295,-165,-1093,-1039,-858,-790,-946
-156,141,297,7,-226,219,-175,-858,-839,-692,-658,-878
-156,117,273,19,-214,195,-175,-668,-649,-536,-527,-819
-156,87,244,34,-200,165,-165,-531,-512,-429,-429,-771
-122,53,175,34,-148,114,-117,-375,-385,-331,-336,-717
-122,4,126,58,-124,65,-68,-219,-263,-229,-263,-683
-107,-14,92,61,-100,39,-43,-107,-180,-161,-209,-668
-68,-9,58,39,-63,24,-29,-53,-131,-122,-175,-658
-9,-39,-29,24,9,-34,-39,-58,-117,-122,-175,-673
-73,-112,-39,92,-17,-75,-48,-48,-117,-117,-180,-692
-82,-112,-29,97,-26,-70,-24,-29,-97,-87,-151,-697
-97,-87,9,92,-53,-39,-19,-19,-82,-87,-141,-678
-161,-112,48,136,-104,-31,-9,4,-73,-87,-141,-663
-209,-170,39,190,-124,-65,-24,4,-78,-97,-151,-678
-219,-190,29,204,-124,-80,-24,-4,-87,-97,-151,-678
-214,-161,53,187,-134,-53,-9,4,-73,-78,-146,-653
-185,-141,43,163,-114,-48,0,19,-63,-68,-117,-653
-151,-102,48,126,-100,-26,0,24,-63,-68,-107,-639
-165,-112,53,139,-109,-29,-14,14,-87,-82,-126,-663
-170,-141,29,156,-100,-56,-19,0,-87,-87,-131,-663
-136,-136,0,136,-68,-68,-24,-9,-87,-92,-136,-673
-126,-170,-43,148,-41,-107,-29,4,-87,-97,-151,-683
-131,-175,-43,153,-43,-109,-29,-14,-78,-87,-141,-673
-131,-151,-19,141,-56,-85,-19,-14,-68,-82,-131,-663
-122,-102,19,112,-70,-41,-4,-9,-63,-73,-117,-649
-136,-107,29,122,-82,-39,-4,-9,-63,-68,-117,-649
-146,-126,19,136,-82,-53,-14,-24,-92,-82,-136,-658
-161,-131,29,146,-95,-51,-29,-43,-102,-102,-141,-663
-131,-131,0,131,-65,-65,-39,-53,-107,-102,-146,-658
-126,-117,9,122,-68,-53,-63,-39,-107,-107,-151,-678
-78,-87,-9,82,-34,-48,-43,-9,-87,-97,-131,-668
-53,-82,-29,68,-12,-56,-34,-14,-78,-97,-126,-658
-63,-73,-9,68,-26,-41,-24,-14,-68,-78,-126,-639
-102,-73,29,87,-65,-21,-9,-24,-58,-58,-107,-614
-112,-73,39,92,-75,-17,4,-34,-43,-53,-92,-610
-68,-34,34,51,-51,0,9,-9,-29,-48,-82,-624
-9,19,29,-4,-19,24,24,4,-19,-24,-73,-590
4,34,29,-19,-12,31,29,24,-14,-19,-73,-595
-34,-29,4,31,-19,-12,14,0,-39,-53,-102,-614
-97,-82,14,90,-56,-34,9,-14,-48,-53,-112,-629
-122,-107,14,114,-68,-46,29,0,-48,-58,-102,-614
-117,-117,0,117,-58,-58,14,-24,-63,-73,-112,-649
-107,-165,-58,136,-24,-112,14,-34,-63,-73,-117,-649
-107,-141,-34,124,-36,-87,14,-24,-58,-68,-117,-644
-92,-68,24,80,-58,-21,58,4,-39,-63,-112,-629
-112,-82,29,97,-70,-26,53,4,-48,-68,-112,-644
-136,-161,-24,148,-56,-92,34,-19,-73,-92,-136,-658
-112,-136,-24,124,-43,-80,48,9,-43,-73,-126,-634
-68,-97,-29,82,-19,-63,48,19,-24,-63,-117,-639
-73,-112,-39,92,-17,-75,43,9,-43,-78,-136,-658
-131,-131,0,131,-65,-65,43,19,-34,-73,-136,-649
-117,-117,0,117,-58,-58,48,14,-34,-68,-122,-639
-131,-112,19,122,-75,-46,68,39,-14,-63,-102,-624
-161,-112,48,136,-104,-31,63,68,0,-43,-82,-614
-161,-112,48,136,-104,-31,63,58,-4,-58,-97,-619
-156,-136,19,146,-87,-58,63,48,-14,-73,-97,-629
-107,-156,-48,131,-29,-102,63,34,-24,-92,-122,-639
-87,-180,-92,134,2,-136,63,0,-39,-112,-141,-663
-126,-165,-39,146,-43,-102,53,19,-34,-107,-136,-639
-156,-161,-4,158,-75,-82,73,24,-29,-102,-126,-634
-122,-141,-19,131,-51,-80,78,34,-24,-97,-122,-639
-73,-141,-68,107,-2,-104,78,39,-29,-97,-117,-639
-112,-151,-39,131,-36,-95,87,48,-19,-102,-117,-634
-151,-185,-34,168,-58,-109,92,53,-14,-112,-117,-619
-136,-185,-48,161,-43,-117,92,63,-9,-107,-117,-614
-112,-175,-63,143,-24,-119,92,68,-4,-78,-112,-610
-97,-151,-53,124,-21,-102,73,73,-9,-92,-107,-605
-87,-151,-63,119,-12,-107,63,68,-9,-97,-107,-605
-117,-170,-53,143,-31,-112,43,58,-24,-117,-112,-605
-78,-151,-73,114,-2,-112,34,53,-9,-102,-112,-600
-39,-122,-82,80,21,-102,9,48,-24,-112,-112,-600
-58,-151,-92,104,17,-122,-9,39,-39,-136,-122,-619
-73,-185,-112,129,19,-148,-39,29,-53,-156,-136,-629
-78,-190,-112,134,17,-151,-39,19,-68,-151,-151,-629
-97,-195,-97,146,0,-146,-39,14,-68,-151,-165,-634
-122,-190,-68,156,-26,-129,-39,29,-68,-156,-156,-629
-122,-204,-82,163,-19,-143,-43,9,-73,-161,-170,-634
-146,-229,-82,187,-31,-156,-63,-9,-87,-180,-185,-653
-97,-190,-92,143,-2,-141,-63,4,-73,-170,-170,-634
-58,-126,-68,92,4,-97,-24,43,-43,-141,-146,-580
-24,-63,-39,43,7,-51,-14,58,-29,-131,-117,-546
14,-34,-48,9,31,-41,-24,63,-24,-131,-122,-546
0,-68,-68,34,34,-68,-19,63,-48,-146,-136,-546
-9,-48,-39,29,14,-43,4,78,-48,-136,-131,-541
-34,-58,-24,46,-4,-41,14,82,-39,-136,-126,-531
-102,-87,14,95,-58,-36,14,82,-48,-146,-126,-527
-122,-117,4,119,-63,-56,-19,63,-68,-185,-156,-556
-107,-141,-34,124,-36,-87,-39,63,-78,-195,-165,-566
-102,-156,-53,129,-24,-104,-48,78,-82,-190,-161,-566
-102,-180,-78,141,-12,-129,-68,58,-92,-200,-180,-556
-58,-151,-92,104,17,-122,-82,63,-92,-200,-180,-570
-58,-136,-78,97,9,-107,-82,63,-102,-214,-180,-566
-68,-131,-63,100,-2,-97,-78,63,-87,-219,-185,-561
-53,-112,-58,82,2,-85,-78,68,-82,-219,-180,-556
-48,-102,-53,75,2,-78,-97,53,-112,-244,-195,-575
-73,-136,-63,104,-4,-100,-97,43,-131,-258,-229,-595
-117,-180,-63,148,-26,-122,-97,34,-126,-268,-234,-595
-141,-161,-19,151,-61,-90,-87,43,-122,-268,-229,-566
-97,-136,-39,117,-29,-87,-92,34,-117,-273,-219,-590
-78,-156,-78,117,0,-117,-112,9,-151,-302,-263,-590
-58,-146,-87,102,14,-117,-117,4,-170,-322,-278,-595
-34,-141,-107,87,36,-124,-126,-4,-180,-331,-297,-595
-53,-136,-82,95,14,-109,-117,-4,-165,-331,-287,-595
-29,-97,-68,63,19,-82,-102,0,-165,-331,-287,-585
-82,-92,-9,87,-36,-51,-92,4,-165,-326,-287,-585
-165,-136,29,151,-97,-53,-97,4,-165,-331,-297,-595
-146,-141,4,143,-75,-68,-82,9,-161,-336,-297,-595
-92,-136,-43,114,-24,-90,-82,0,-165,-351,-312,-590
-53,-131,-78,92,12,-104,-78,-4,-170,-351,-317,-595
-14,-107,-92,61,39,-100,-68,-9,-165,-351,-322,-590
-29,-107,-78,68,24,-92,-73,-19,-180,-370,-336,-595
0,-107,-107,53,53,-107,-73,-19,-185,-375,-346,-600
-29,-102,-73,65,21,-87,-82,-19,-190,-375,-361,-600
-43,-107,-63,75,9,-85,-82,-19,-195,-380,-356,-605
-58,-136,-78,97,9,-107,-73,-9,-185,-395,-361,-600
-102,-165,-63,134,-19,-114,-78,-19,-190,-400,-361,-600
-141,-180,-39,161,-51,-109,-87,-29,-200,-405,-370,-605
-136,-190,-53,163,-41,-122,-82,-39,-200,-405,-370,-614
-102,-141,-39,122,-31,-90,-53,-29,-161,-375,-341,-580
-92,-122,-29,107,-31,-75,-29,-14,-161,-351,-317,-566
-92,-122,-29,107,-31,-75,-19,-14,-161,-361,-312,-566
-48,-122,-73,85,12,-97,-19,-14,-161,-356,-307,-556
-19,-126,-107,73,43,-117,-9,-9,-136,-346,-283,-527
-39,-117,-78,78,19,-97,-9,4,-122,-312,-263,-527
-29,-107,-78,68,24,-92,4,9,-102,-283,-244,-507
-9,-92,-82,51,36,-87,14,14,-82,-258,-214,-478
-39,-97,-58,68,9,-78,19,29,-73,-248,-209,-478
-29,-97,-68,63,19,-82,24,34,-63,-234,-190,-468
-14,-68,-53,41,19,-61,48,58,-43,-209,-165,-448
14,-63,-78,24,46,-70,53,58,-19,-200,-156,-434
-39,-141,-102,90,31,-122,39,58,-34,-209,-146,-458
-87,-165,-78,126,-4,-122,34,68,-24,-200,-156,-458
-97,-151,-53,124,-21,-102,43,97,9,-165,-126,-429
-112,-131,-19,122,-46,-75,58,107,29,-146,-82,-405
-63,-107,-43,85,-9,-75,73,87,24,-146,-78,-400
-48,-78,-29,63,-9,-53,53,78,24,-126,-78,-395
-63,-63,0,63,-31,-31,34,68,24,-126,-78,-390
-78,-92,-14,85,-31,-53,29,58,24,-136,-78,-385
-122,-107,14,114,-68,-46,29,58,48,-131,-68,-385
-102,-73,29,87,-65,-21,39,73,78,-102,-34,-370
-19,-14,4,17,-12,-4,53,78,78,-82,-29,-361
9,-4,-14,-2,12,-9,53,78,73,-78,-29,-356
-78,-58,19,68,-48,-19,53,73,63,-73,-34,-351
-126,-68,58,97,-92,-4,63,73,78,-63,-19,-336
-126,-68,58,97,-92,-4,73,73,78,-53,-14,-331
-136,-97,39,117,-87,-29,58,68,63,-68,-24,-351
-68,-68,0,68,-34,-34,53,73,73,-58,-14,-366
-29,-14,14,21,-21,0,63,92,87,-63,0,-336
-29,-4,24,17,-26,9,58,97,87,-63,0,-302
-14,-4,9,9,-12,2,39,87,73,-63,-14,-336
9,-9,-19,0,14,-14,24,78,68,-63,-14,-351
-19,14,34,2,-26,24,34,87,73,-63,0,-307
-29,24,53,2,-41,39,29,87,68,-53,4,-297
-29,29,58,0,-43,43,24,82,58,-53,4,-317
-63,-4,58,34,-61,26,0,63,43,-78,-19,-312
-78,-68,9,73,-43,-29,-4,48,29,-92,-34,-331
-161,-102,58,131,-109,-21,-4,39,19,-117,-48,-351
-165,-117,48,141,-107,-34,-4,24,9,-122,-63,-361
-112,-97,14,104,-63,-41,-14,24,9,-112,-48,-341
-107,-82,24,95,-65,-29,-14,24,-4,-112,-53,-341
-112,-87,24,100,-68,-31,-14,19,-4,-112,-48,-351
-102,-73,29,87,-65,-21,-14,19,-4,-117,-43,-356
-87,-68,19,78,-53,-24,-9,9,0,-131,-34,-356
-82,-43,39,63,-61,-2,-4,34,9,-92,-9,-341
-87,-14,73,51,-80,29,14,58,39,-53,19,-322
-102,-19,82,61,-92,31,19,82,48,-43,29,-297
-112,-34,78,73,-95,21,0,53,34,-78,9,-307
-102,-39,63,70,-82,12,-4,29,24,-87,-4,-336
-112,-82,29,97,-70,-26,-14,19,14,-107,-19,-346
-126,-107,19,117,-73,-43,-29,9,4,-117,-43,-356
-126,-82,43,104,-85,-19,-14,29,14,-92,-29,-356
-112,-78,34,95,-73,-21,-4,29,14,-92,-24,-356
-73,-68,4,70,-39,-31,4,39,19,-82,-9,-326
-58,-53,4,56,-31,-24,9,43,24,-78,-4,-326
-39,-34,4,36,-21,-14,19,48,34,-68,9,-326
-34,-24,9,29,-21,-7,19,53,43,-58,14,-331
-58,-24,34,41,-46,4,9,68,53,-63,24,-302
-87,-24,63,56,-75,19,0,87,68,-68,39,-273
-39,-24,14,31,-26,-4,4,68,73,-43,48,-273
9,-4,-14,-2,12,-9,4,73,68,-39,63,-283
-19,-4,14,12,-17,4,34,68,73,-34,53,-283
-73,-19,53,46,-63,17,43,87,73,-29,53,-312
-48,-24,24,36,-36,0,29,63,48,-43,39,-326
-24,-29,-4,26,-9,-17,39,73,53,-39,34,-312
-14,-19,-4,17,-4,-12,43,97,68,-29,53,-268
-4,-4,0,4,-2,-2,48,122,82,-19,73,-224
-126,-126,0,126,-63,-63,4,63,48,-48,19,-307
-78,-97,-19,87,-29,-58,24,73,68,-29,39,-297
4,19,14,-12,-4,17,68,122,107,9,92,-253
-92,0,92,46,-92,46,107,141,126,19,102,-239
-204,-117,87,161,-146,-14,78,97,78,-19,58,-273
-165,-107,58,136,-112,-24,58,82,63,-34,48,-283
-126,-97,29,112,-78,-34,48,78,58,-39,39,-283
-87,-87,0,87,-43,-43,39,73,53,-43,29,-283
-48,-78,-29,63,-9,-53,29,68,48,-48,19,-283
-97,-97,0,97,-48,-48,43,87,58,-39,34,-273
-97,-92,4,95,-51,-43,58,73,53,-39,34,-248
-73,-97,-24,85,-24,-61,48,87,53,-29,34,-263
-107,-107,0,107,-53,-53,48,107,68,-43,39,-263
-151,-131,19,141,-85,-56,63,92,78,-34,43,-244
-131,-136,-4,134,-63,-70,58,78,58,-43,48,-244
-43,-102,-58,73,7,-80,63,87,58,-48,34,-253
-4,-68,-63,36,29,-65,73,112,68,-24,58,-219
-29,-82,-53,56,12,-68,92,102,63,-43,48,-224
-39,-126,-87,82,24,-107,82,92,43,-53,29,-253
-9,-117,-107,63,48,-112,82,82,39,-63,19,-268
-9,-92,-82,51,36,-87,82,73,39,-68,9,-278
-73,-107,-34,90,-19,-70,97,73,58,-48,39,-263
-102,-97,4,100,-53,-46,107,78,63,-43,34,-253
-87,-43,43,65,-65,0,112,78,68,-39,39,-253
-87,-9,78,48,-82,34,117,63,92,-34,53,-244
-73,-14,58,43,-65,21,112,58,68,-39,43,-239
-43,-24,19,34,-31,-2,87,53,63,-43,34,-234
-63,-34,29,48,-46,-2,53,63,58,-53,34,-229
-102,-48,53,75,-78,2,43,43,53,-58,34,-224
-73,-48,24,61,-48,-12,34,53,48,-63,19,-229
-4,-34,-29,19,12,-31,29,43,43,-58,24,-224
14,-39,-53,12,34,-46,19,34,43,-63,19,-244
-14,-68,-53,41,19,-61,9,29,39,-73,4,-248
-58,-87,-29,73,-14,-58,4,39,39,-68,14,-234
-63,-78,-14,70,-24,-46,4,48,39,-63,24,-224
-102,-87,14,95,-58,-36,0,48,39,-48,43,-214
-82,-68,14,75,-48,-26,-14,39,24,-63,43,-214
-68,-78,-9,73,-29,-43,-34,0,4,-78,24,-239
-39,-43,-4,41,-17,-24,-39,4,4,-87,14,-239
-39,-63,-24,51,-7,-43,-24,4,-4,-97,9,-253
-82,-97,-14,90,-34,-56,-19,14,0,-107,0,-273
-58,-63,-4,61,-26,-34,-24,9,4,-97,9,-312
-24,-53,-29,39,2,-41,-24,4,9,-78,19,-307
-58,-68,-9,63,-24,-39,-34,9,4,-102,19,-317
-58,-68,-9,63,-24,-39,-58,9,0,-107,-9,-346
-82,-73,9,78,-46,-31,-39,0,-9,-97,0,-356
-73,-68,4,70,-39,-31,-14,4,24,-73,4,-341
-87,-73,14,80,-51,-29,-19,4,24,-73,19,-341
-112,-78,34,95,-73,-21,-14,4,14,-87,19,-346
-102,-102,0,102,-51,-51,-29,4,-4,-102,9,-346
-82,-97,-14,90,-34,-56,-43,-14,-9,-112,4,-346
-58,-92,-34,75,-12,-63,-48,-14,-9,-117,4,-341
-19,-78,-58,48,19,-68,-48,-9,-9,-122,4,-331
-14,-73,-58,43,21,-65,-34,9,0,-117,14,-341
-14,-92,-78,53,31,-85,-39,0,-4,-122,4,-346
-48,-112,-63,80,7,-87,-43,0,-14,-126,-4,-366
-39,-97,-58,68,9,-78,-39,0,-14,-122,-4,-356
0,-48,-48,24,24,-48,-4,29,9,-87,19,-331
14,-14,-29,0,21,-21,14,48,24,-73,34,-322
-9,9,19,0,-14,14,24,43,34,-68,48,-312
-24,4,29,9,-26,17,34,48,43,-63,58,-302
-19,-19,0,19,-9,-9,29,34,34,-82,43,-317
24,-14,-39,-4,31,-26,24,29,24,-92,29,-331
58,-4,-63,-26,61,-34,9,24,14,-97,19,-331
53,-9,-63,-21,58,-36,9,19,14,-97,14,-331
9,-29,-39,9,24,-34,4,4,4,-112,9,-346
-19,-48,-29,34,4,-39,4,4,4,-117,14,-351
-48,-63,-14,56,-17,-39,4,4,9,-107,9,-351
-53,-73,-19,63,-17,-46,4,0,9,-122,0,-356
-73,-112,-39,92,-17,-75,4,0,-9,-126,-4,-361
-68,-117,-48,92,-9,-82,9,4,4,-122,0,-356
-24,-73,-48,48,12,-61,29,24,9,-117,19,-336
-4,-68,-63,36,29,-65,39,39,29,-102,24,-331
-29,-102,-73,65,21,-87,34,34,29,-117,14,-346
-29,-107,-78,68,24,-92,29,19,4,-122,9,-351
-14,-112,-97,63,41,-104,24,14,-4,-126,-4,-361
-39,-146,-107,92,34,-126,19,9,-14,-141,-14,-370
-58,-156,-97,107,19,-126,14,0,-9,-161,-24,-370
-39,-141,-102,90,31,-122,14,0,-9,-151,-19,-370
-43,-122,-78,82,17,-100,24,4,0,-136,-4,-356
-53,-161,-107,107,26,-134,9,4,-9,-146,-24,-375
-58,-175,-117,117,29,-146,-14,-19,-29,-161,-34,-385
-117,-180,-63,148,-26,-122,0,-34,-34,-170,-34,-390
-68,-156,-87,112,9,-122,-4,-48,-43,-175,-39,-400
-14,-161,-146,87,65,-153,0,-53,-53,-180,-48,-409
9,-117,-126,53,68,-122,9,-29,-34,-161,-34,-400
19,-102,-122,41,70,-112,19,-43,-24,-156,-24,-395
63,-43,-107,-9,85,-75,29,-34,-14,-151,-19,-390
87,0,-87,-43,87,-43,39,-14,-4,-141,-9,-385
-34,-92,-58,63,12,-75,34,-19,4,-126,-9,-366
-73,-156,-82,114,4,-119,9,-43,-24,-156,-24,-400
-209,-273,-63,241,-73,-168,-9,-82,-53,-185,-53,-439
-151,-136,14,143,-82,-61,58,-19,9,-117,19,-380
48,-4,-53,-21,51,-29,82,14,39,-97,39,-341
-4,-82,-78,43,36,-80,24,-24,4,-136,0,-380
-219,-180,39,200,-129,-70,34,-14,14,-117,9,-361
-200,-146,53,173,-126,-46,43,-4,14,-117,19,-356
29,-82,-112,26,70,-97,-9,-48,-39,-156,-14,-375
92,-48,-141,-21,117,-95,-43,-48,-43,-151,-9,-375
0,-29,-29,14,14,-29,9,14,34,-82,58,-317
-29,-39,-9,34,-9,-24,29,53,63,-68,82,-312
-9,-112,-102,61,46,-107,-4,43,48,-82,58,-346
29,-117,-146,43,87,-131,-24,78,87,-19,122,-307
146,14,-131,-80,139,-58,9,165,185,102,258,-200
234,97,-136,-165,185,-19,9,229,263,229,414,-73
146,78,-68,-112,107,4,-9,302,351,400,644,122
131,82,-48,-107,90,17,-53,400,458,590,932,356
234,151,-82,-192,158,34,-78,531,585,800,1249,639
336,258,-78,-297,207,90,-78,741,775,1093,1654,985
483,366,-117,-424,300,124,-87,1034,1019,1400,2083,1351
688,478,-209,-583,448,134,-97,1429,1332,1737,2498,1688
775,561,-214,-668,495,173,-68,1888,1717,2127,2918,2069
717,649,-68,-683,392,290,-19,2156,1991,2381,3186,2361
741,678,-63,-710,402,307,-92,1922,1830,2215,3010,2327
834,688,-146,-761,490,270,-214,1405,1385,1732,2464,2020
824,844,19,-834,402,431,-195,1029,1054,1317,1937,1732
790,1039,248,-915,270,644,-107,658,771,922,1405,1410
653,976,322,-814,165,649,-78,146,317,346,697,849
429,717,287,-573,70,502,-53,-287,-126,-244,-68,136
224,522,297,-373,-36,409,34,-517,-385,-614,-619,-429
34,444,409,-239,-187,427,131,-683,-512,-790,-873,-722
-43,458,502,-207,-273,480,229,-844,-614,-858,-951,-868
-82,439,522,-178,-302,480,268,-985,-727,-893,-941,-907
-229,297,527,-34,-378,412,209,-1107,-917,-995,-946,-902
-356,112,468,122,-412,290,78,-1215,-1112,-1117,-971,-932
-385,19,405,183,-395,212,-48,-1259,-1185,-1151,-956,-936
-351,-24,326,187,-339,151,-117,-1161,-1112,-1093,-873,-897
-224,29,253,97,-239,141,-126,-961,-971,-966,-741,-810
-58,126,185,-34,-122,156,-136,-766,-795,-819,-614,-722
-92,92,185,0,-139,139,-165,-619,-649,-692,-502,-658
-248,34,283,107,-265,158,-146,-434,-488,-531,-361,-556
-156,53,209,51,-183,131,-112,-273,-356,-414,-239,-473
9,9,0,-9,4,4,-136,-209,-307,-385,-214,-473
-107,-126,-19,117,-43,-73,-126,-146,-263,-346,-175,-468
-248,-219,29,234,-139,-95,-97,-68,-214,-312,-141,-458
-180,-200,-19,190,-80,-109,-82,-43,-180,-283,-122,-478
-117,-156,-39,136,-39,-97,-78,-29,-161,-283,-112,-463
-102,-161,-58,131,-21,-109,-68,0,-146,-283,-112,-453
-73,-200,-126,136,26,-163,-82,4,-146,-292,-122,-473
-82,-219,-136,151,26,-178,-82,4,-151,-302,-131,-492
-78,-190,-112,134,17,-151,-68,14,-141,-283,-126,-468
-48,-170,-122,109,36,-146,-58,29,-136,-273,-97,-468
-14,-131,-117,73,51,-124,-58,34,-141,-273,-87,-453
-58,-146,-87,102,14,-117,-68,43,-141,-273,-92,-468
-92,-180,-87,136,-2,-134,-68,39,-136,-273,-92,-468
-87,-180,-92,134,2,-136,-68,39,-131,-273,-92,-478
-107,-219,-112,163,2,-165,-68,63,-126,-273,-102,-488
-87,-248,-161,168,36,-204,-78,43,-136,-283,-112,-497
-73,-239,-165,156,46,-202,-68,43,-136,-287,-112,-488
-48,-204,-156,126,53,-180,-53,48,-141,-287,-107,-473
-48,-224,-175,136,63,-200,-53,48,-151,-292,-117,-473
-92,-234,-141,163,24,-187,-34,53,-141,-273,-107,-468
-122,-229,-107,175,-7,-168,-29,53,-131,-268,-92,-458
-107,-219,-112,163,2,-165,-19,63,-117,-244,-78,-439
-117,-195,-78,156,-19,-136,-24,97,-97,-224,-63,-444
-58,-175,-117,117,29,-146,-24,107,-107,-239,-68,-453
-24,-180,-156,102,65,-168,-24,92,-107,-253,-78,-453
-24,-180,-156,102,65,-168,-24,82,-107,-248,-92,-444
-53,-190,-136,122,41,-163,-19,63,-107,-244,-87,-429
-107,-214,-107,161,0,-161,-14,58,-102,-244,-78,-419
-87,-190,-102,139,7,-146,-9,78,-87,-234,-63,-439
-53,-151,-97,102,21,-124,4,87,-78,-204,-48,-409
-63,-151,-87,107,12,-119,9,102,-73,-195,-43,-419
-82,-165,-82,124,0,-124,19,82,-73,-214,-53,-414
-136,-170,-34,153,-51,-102,19,82,-68,-200,-53,-414
-151,-146,4,148,-78,-70,43,112,-53,-190,-34,-385
-136,-107,29,122,-82,-39,34,102,-53,-190,-34,-405
-117,-209,-92,163,-12,-151,-4,43,-82,-229,-68,-419
-117,-219,-102,168,-7,-161,-34,24,-97,-244,-78,-429
-102,-180,-78,141,-12,-129,-19,24,-97,-258,-82,-429
-122,-229,-107,175,-7,-168,-53,-4,-126,-283,-92,-458
-170,-283,-112,226,-29,-197,-82,-9,-151,-292,-107,-458
-151,-244,-92,197,-29,-168,-78,19,-122,-268,-87,-419
-112,-190,-78,151,-17,-134,-87,29,-102,-253,-68,-409
-122,-190,-68,156,-26,-129,-102,19,-122,-263,-78,-414
-165,-214,-48,190,-58,-131,-122,4,-136,-268,-92,-419
-136,-204,-68,170,-34,-136,-126,-14,-151,-273,-92,-424
-136,-204,-68,170,-34,-136,-117,-4,-146,-278,-87,-424
-151,-209,-58,180,-46,-134,-131,9,-146,-268,-82,-429
-156,-195,-39,175,-58,-117,-131,19,-146,-283,-92,-409
-146,-204,-58,175,-43,-131,-131,19,-151,-287,-78,-405
-92,-209,-117,151,12,-163,-131,14,-156,-297,-87,-400
-68,-219,-151,143,41,-185,-131,-9,-165,-307,-92,-409
-87,-190,-102,139,7,-146,-136,-4,-156,-297,-87,-385
-117,-180,-63,148,-26,-122,-122,-4,-146,-287,-78,-380
-82,-156,-73,119,-4,-114,-122,0,-136,-278,-73,-385
-34,-151,-117,92,41,-134,-126,0,-136,-273,-68,-385
-68,-170,-102,119,17,-136,-126,-14,-146,-292,-73,-385
-112,-204,-92,158,-9,-148,-122,-14,-141,-307,-78,-375
-102,-204,-102,153,0,-153,-122,-9,-136,-307,-82,-375
-82,-195,-112,139,14,-153,-122,-9,-131,-283,-82,-375
-68,-156,-87,112,9,-122,-107,0,-112,-278,-63,-366
-48,-141,-92,95,21,-117,-102,0,-107,-273,-58,-361
-68,-146,-78,107,4,-112,-107,-4,-117,-283,-58,-356
-19,-112,-92,65,36,-102,-102,-4,-97,-258,-53,-346
19,-73,-92,26,56,-82,-82,9,-92,-253,-34,-331
0,-92,-92,46,46,-92,-78,19,-87,-263,-34,-336
-14,-117,-102,65,43,-109,-82,29,-82,-268,-39,-331
-19,-112,-92,65,36,-102,-58,39,-78,-248,-43,-317
-43,-131,-87,87,21,-109,-73,19,-92,-253,-58,-326
-73,-141,-68,107,-2,-104,-78,29,-97,-263,-48,-326
-78,-170,-92,124,7,-131,-87,4,-107,-273,-63,-336
-107,-209,-102,158,-2,-156,-112,-19,-126,-297,-78,-361
-97,-209,-112,153,7,-161,-117,-14,-117,-297,-68,-361
-87,-195,-107,141,9,-151,-82,14,-102,-278,-58,-326
-82,-180,-97,131,7,-139,-78,19,-102,-278,-43,-312
-73,-200,-126,136,26,-163,-92,14,-112,-287,-63,-331
-58,-219,-161,139,51,-190,-107,-9,-126,-322,-82,-336
-39,-185,-146,112,53,-165,-92,0,-126,-312,-82,-336
-34,-180,-146,107,56,-163,-92,0,-117,-312,-82,-331
-73,-195,-122,134,24,-158,-102,-4,-126,-322,-87,-331
-122,-229,-107,175,-7,-168,-107,-24,-141,-346,-112,-351
-146,-258,-112,202,-17,-185,-107,-14,-146,-351,-117,-361
-180,-278,-97,229,-41,-187,-97,9,-146,-341,-107,-361
-219,-307,-87,263,-65,-197,-97,0,-151,-346,-122,-351
-131,-258,-126,195,-2,-192,-97,4,-141,-351,-122,-366
-97,-224,-126,161,14,-175,-92,4,-151,-361,-122,-361
-73,-200,-126,136,26,-163,-82,4,-136,-361,-126,-356
-24,-161,-136,92,56,-148,-78,9,-131,-356,-122,-351
-4,-117,-112,61,53,-114,-82,19,-131,-361,-107,-351
-14,-126,-112,70,48,-119,-78,24,-141,-356,-131,-361
-43,-146,-102,95,29,-124,-73,29,-126,-346,-126,-351
-53,-102,-48,78,-2,-75,-58,53,-112,-326,-112,-312
-53,-112,-58,82,2,-85,-63,53,-102,-331,-107,-346
-68,-165,-97,117,14,-131,-82,29,-131,-361,-146,-346
-82,-190,-107,136,12,-148,-87,24,-146,-380,-156,-351
-92,-219,-126,156,17,-173,-97,14,-151,-390,-170,-351
-58,-200,-141,129,41,-170,-82,24,-131,-380,-156,-346
9,-146,-156,68,82,-151,-63,39,-126,-370,-151,-331
0,-126,-126,63,63,-126,-48,53,-122,-356,-146,-326
-39,-156,-117,97,39,-136,-48,63,-117,-351,-151,-331
-78,-180,-102,129,12,-141,-63,48,-126,-361,-156,-346
-63,-185,-122,124,29,-153,-73,39,-136,-380,-175,-346
-63,-190,-126,126,31,-158,-78,34,-146,-385,-185,-356
-63,-175,-112,119,24,-143,-78,29,-146,-390,-195,-356
-82,-151,-68,117,-7,-109,-63,34,-136,-385,-185,-341
-58,-136,-78,97,9,-107,-53,39,-126,-375,-180,-336
-92,-117,-24,104,-34,-70,-53,43,-117,-361,-180,-326
-112,-107,4,109,-58,-51,-43,48,-107,-351,-161,-322
-82,-112,-29,97,-26,-70,-68,24,-126,-366,-170,-326
-82,-126,-43,104,-19,-85,-97,0,-151,-380,-175,-326
-78,-126,-48,102,-14,-87,-131,-24,-180,-395,-190,-331
-29,-122,-92,75,31,-107,-151,-48,-200,-405,-195,-341
43,-34,-78,-4,61,-56,-190,-68,-190,-380,-161,-307
14,-43,-58,14,36,-51,-204,-73,-200,-380,-161,-302
-24,-102,-78,63,26,-90,-234,-73,-229,-414,-180,-312
-29,-112,-82,70,26,-97,-244,-63,-229,-424,-180,-312
68,-39,-107,-14,87,-73,-234,-29,-204,-390,-146,-273
39,-53,-92,7,65,-73,-234,-39,-200,-380,-136,-258
19,-68,-87,24,53,-78,-234,-39,-195,-370,-126,-253
0,-82,-82,41,41,-82,-234,-39,-190,-361,-117,-248
-19,-97,-78,58,29,-87,-234,-39,-185,-351,-107,-244
-58,-112,-53,85,-2,-82,-229,-9,-165,-322,-78,-229
-48,-102,-53,75,2,-78,-214,-24,-161,-312,-63,-200
-14,-102,-87,58,36,-95,-224,-9,-151,-292,-48,-209
-39,-107,-68,73,14,-87,-224,9,-126,-297,-29,-204
-87,-126,-39,107,-24,-82,-214,0,-107,-283,-9,-185
-82,-126,-43,104,-19,-85,-214,-9,-117,-278,0,-185
-9,-87,-78,48,34,-82,-204,4,-107,-268,-9,-195
14,-48,-63,17,39,-56,-190,34,-87,-229,19,-161
-19,-34,-14,26,-2,-24,-156,48,-53,-209,39,-131
-29,-58,-29,43,0,-43,-151,63,-43,-190,48,-136
0,-29,-29,14,14,-29,-136,78,-19,-170,68,-126
0,14,14,-7,-7,14,-122,92,9,-146,87,-112
-29,-43,-14,36,-7,-29,-131,78,-9,-156,87,-122
-43,-78,-34,61,-4,-56,-136,68,-24,-170,63,-136
-14,-68,-53,41,19,-61,-146,53,-39,-185,48,-161
0,-78,-78,39,39,-78,-156,24,-34,-200,43,-175
-19,-87,-68,53,24,-78,-126,43,-34,-190,53,-156
-14,-92,-78,53,31,-85,-126,53,-24,-180,53,-146
-58,-97,-39,78,-9,-68,-136,78,-14,-175,63,-136
-122,-107,14,114,-68,-46,-122,73,-4,-165,73,-126
-117,-117,0,117,-58,-58,-122,78,-14,-175,53,-146
-73,-112,-39,92,-17,-75,-117,63,-24,-175,53,-146
-78,-126,-48,102,-14,-87,-117,48,-29,-185,43,-170
-131,-165,-34,148,-48,-100,-117,39,-39,-200,24,-180
-136,-175,-39,156,-48,-107,-107,48,-24,-195,29,-165
-122,-156,-34,139,-43,-95,-92,58,-19,-190,34,-165
-141,-156,-14,148,-63,-85,-82,58,-14,-175,48,-165
-102,-126,-24,114,-39,-75,-82,48,-24,-190,43,-175
-53,-102,-48,78,-2,-75,-87,34,-24,-190,43,-175
0,-53,-53,26,26,-53,-78,53,-14,-185,43,-161
24,-58,-82,17,53,-70,-48,68,-14,-180,48,-161
4,-78,-82,36,43,-80,-29,92,0,-175,48,-165
-29,-82,-53,56,12,-68,-39,87,14,-165,53,-170
-43,-92,-48,68,2,-70,-34,82,19,-136,68,-151
-126,-126,0,126,-63,-63,-39,87,14,-151,73,-146
-175,-146,29,161,-102,-58,-58,87,9,-146,48,-161
-146,-102,43,124,-95,-29,-39,102,9,-136,68,-146
-92,-68,24,80,-58,-21,-14,122,53,-102,82,-117
-63,-43,19,53,-41,-12,-19,136,63,-92,107,-102
-43,-19,24,31,-34,2,-14,151,63,-97,117,-92
-78,-73,4,75,-41,-34,-19,161,68,-87,107,-107
-92,-87,4,90,-48,-41,-24,141,68,-92,102,-112
-102,-102,0,102,-51,-51,-19,141,73,-92,102,-112
-97,-107,-9,102,-43,-58,-9,146,78,-92,102,-107
-73,-82,-9,78,-31,-46,14,180,92,-82,122,-92
-73,-92,-19,82,-26,-56,9,185,92,-82,122,-92
-107,-102,4,104,-56,-48,4,200,87,-82,122,-107
-97,-78,19,87,-58,-29,9,214,92,-73,131,-92
-82,-73,9,78,-46,-31,14,244,97,-68,131,-92
-82,-73,9,78,-46,-31,24,273,102,-63,131,-97
-122,-82,39,102,-80,-21,24,278,102,-68,131,-102
-151,-122,29,136,-90,-46,24,292,102,-73,126,-107
-122,-117,4,119,-63,-56,29,292,102,-78,122,-97
-53,-92,-39,73,-7,-65,24,302,92,-82,117,-107
4,-63,-68,29,36,-65,9,312,82,-82,117,-102
24,-48,-73,12,48,-61,9,322,82,-78,122,-97
-19,-34,-14,26,-2,-24,34,331,97,-58,131,-87
-48,-39,9,43,-29,-14,43,346,112,-48,151,-78
-78,-39,39,58,-58,0,53,361,131,-24,161,-63
-82,-34,48,58,-65,7,63,370,146,-24,165,-53
-122,-87,34,104,-78,-26,14,322,87,-58,131,-92
-126,-97,29,112,-78,-34,-19,297,73,-73,117,-102
-92,-58,34,75,-63,-12,-39,287,48,-87,117,-97
-82,-58,24,70,-53,-17,-68,273,39,-92,102,-107
-107,-68,39,87,-73,-14,-78,263,43,-82,112,-102
-107,-58,48,82,-78,-4,-78,253,24,-82,117,-97
-92,-48,43,70,-68,-2,-78,253,19,-82,112,-97
-117,-68,48,92,-82,-9,-78,253,14,-92,112,-97
-97,-63,34,80,-65,-14,-97,253,0,-112,102,-97
-48,-34,14,41,-31,-9,-102,253,0,-102,107,-97
-24,0,24,12,-24,12,-97,258,9,-87,122,-82
-4,-24,-19,14,7,-21,-117,258,0,-97,102,-102
-39,-48,-9,43,-14,-29,-112,263,4,-92,107,-97
-126,-53,73,90,-100,9,-87,268,14,-92,122,-87
-107,-29,78,68,-92,24,-82,273,19,-87,131,-82
-82,-34,48,58,-65,7,-68,287,24,-82,136,-78
-102,-43,58,73,-80,7,-78,297,19,-92,117,-97
-117,-73,43,95,-80,-14,-87,268,14,-97,112,-102
-97,-58,39,78,-68,-9,-97,263,9,-102,102,-107
-97,-58,39,78,-68,-9,-107,268,4,-102,97,-112
-92,-122,-29,107,-31,-75,-131,234,-34,-136,78,-131
-63,-146,-82,104,9,-114,-146,200,-63,-156,53,-165
-112,-156,-43,134,-34,-100,-126,200,-53,-146,63,-156
-102,-58,43,80,-73,-7,-78,244,-9,-107,97,-107
29,112,82,-70,-26,97,-14,317,48,-39,165,-39
-4,131,136,-63,-70,134,4,336,73,-19,185,-19
-63,-34,29,48,-46,-2,-73,268,-4,-87,107,-97
-73,-146,-73,109,0,-109,-122,209,-63,-156,39,-161
-117,-102,14,109,-65,-43,-68,253,-19,-117,82,-131
-82,-9,73,46,-78,31,-24,283,14,-73,136,-82
-29,-39,-9,34,-9,-24,-39,287,4,-73,136,-92
-19,-48,-29,34,4,-39,-39,336,43,-29,180,-58
19,14,-4,-17,12,4,-14,424,126,63,273,4
68,-19,-87,-24,78,-53,-43,458,165,107,326,14
9,-92,-102,41,56,-97,-58,488,214,209,424,63
-58,-9,48,34,-53,19,0,610,370,434,688,268
-9,126,136,-58,-73,131,39,751,546,692,1024,551
-14,102,117,-43,-65,109,-14,868,673,912,1361,805
-9,92,102,-41,-56,97,-78,1039,839,1161,1727,1107
258,307,48,-283,104,178,-48,1376,1137,1542,2230,1522
629,570,-58,-600,344,256,-9,1815,1527,1986,2757,1966
746,644,-102,-695,424,270,-19,2191,1888,2371,3172,2313
