I,II,III,aVR,aVL,aVF,V1,V2,V3,V4,V5,V6
87,0,-87,-43,87,-43,-19,-39,-9,-19,-19,0
87,0,-87,-43,87,-43,-19,-39,-9,-19,-19,0
87,0,-87,-43,87,-43,-19,-39,-9,-19,-19,0
87,0,-87,-43,87,-43,-19,-39,-9,-19,-19,0
87,-9,-97,-39,92,-53,-9,-39,-19,-29,-19,0
87,-9,-97,-39,92,-53,-9,-39,-19,-29,-19,0
87,-9,-97,-39,92,-53,-9,-39,-19,-29,-19,0
87,-9,-97,-39,92,-53,-9,-39,-19,-29,-19,0
87,0,-87,-43,87,-43,-19,-39,-19,-29,-19,0
87,0,-87,-43,87,-43,-19,-39,-19,-29,-19,0
87,0,-87,-43,87,-43,-19,-39,-19,-29,-19,0
87,0,-87,-43,87,-43,-19,-39,-19,-29,-19,0
97,-9,-107,-43,102,-58,-19,-39,-19,-29,-29,0
97,-9,-107,-43,102,-58,-19,-39,-19,-29,-29,0
97,-9,-107,-43,102,-58,-19,-39,-19,-29,-29,0
97,-9,-107,-43,102,-58,-19,-39,-19,-29,-29,0
87,0,-87,-43,87,-43,-19,-48,-19,-29,-29,0
87,0,-87,-43,87,-43,-19,-48,-19,-29,-29,0
87,0,-87,-43,87,-43,-19,-48,-19,-29,-29,0
87,0,-87,-43,87,-43,-19,-48,-19,-29,-29,0
87,0,-87,-43,87,-43,-19,-48,-19,-29,-29,-9
87,0,-87,-43,87,-43,-19,-48,-19,-29,-29,-9
87,0,-87,-43,87,-43,-19,-48,-19,-29,-29,-9
87,0,-87,-43,87,-43,-19,-48,-19,-29,-29,-9
87,0,-87,-43,87,-43,-19,-58,-29,-39,-29,-9
87,0,-87,-43,87,-43,-19,-58,-29,-39,-29,-9
87,0,-87,-43,87,-43,-19,-58,-29,-39,-29,-9
87,0,-87,-43,87,-43,-19,-58,-29,-39,-29,-9
87,0,-87,-43,87,-43,-19,-58,-29,-39,-39,-9
87,0,-87,-43,87,-43,-19,-58,-29,-39,-39,-9
87,0,-87,-43,87,-43,-19,-58,-29,-39,-39,-9
87,0,-87,-43,87,-43,-19,-58,-29,-39,-39,-9
87,0,-87,-43,87,-43,-29,-58,-29,-48,-39,-19
87,0,-87,-43,87,-43,-29,-58,-29,-48,-39,-19
87,0,-87,-43,87,-43,-29,-58,-29,-48,-39,-19
87,0,-87,-43,87,-43,-29,-58,-29,-48,-39,-19
87,0,-87,-43,87,-43,-19,-58,-29,-48,-39,-9
87,0,-87,-43,87,-43,-19,-58,-29,-48,-39,-9
87,0,-87,-43,87,-43,-19,-58,-29,-48,-39,-9
87,0,-87,-43,87,-43,-19,-58,-29,-48,-39,-9
87,0,-87,-43,87,-43,-19,-68,-39,-48,-39,-19
87,0,-87,-43,87,-43,-19,-68,-39,-48,-39,-19
87,0,-87,-43,87,-43,-19,-68,-39,-48,-39,-19
87,0,-87,-43,87,-43,-19,-68,-39,-48,-39,-19
87,0,-87,-43,87,-43,-19,-68,-29,-48,-48,-19
87,0,-87,-43,87,-43,-19,-68,-29,-48,-48,-19
87,0,-87,-43,87,-43,-19,-68,-29,-48,-48,-19
87,0,-87,-43,87,-43,-19,-68,-29,-48,-48,-19
87,0,-87,-43,87,-43,-19,-68,-39,-58,-48,-19
87,0,-87,-43,87,-43,-19,-68,-39,-58,-48,-19
87,0,-87,-43,87,-43,-19,-68,-39,-58,-48,-19
87,0,-87,-43,87,-43,-19,-68,-39,-58,-48,-19
87,0,-87,-43,87,-43,-29,-68,-39,-48,-48,-19
87,0,-87,-43,87,-43,-29,-68,-39,-48,-48,-19
87,0,-87,-43,87,-43,-29,-68,-39,-48,-48,-19
87,0,-87,-43,87,-43,-29,-68,-39,-48,-48,-19
87,-9,-97,-39,92,-53,-19,-58,-29,-48,-48,-9
87,-9,-97,-39,92,-53,-19,-58,-29,-48,-48,-9
87,-9,-97,-39,92,-53,-19,-58,-29,-48,-48,-9
87,-9,-97,-39,92,-53,-19,-58,-29,-48,-48,-9
87,0,-87,-43,87,-43,-29,-68,-39,-48,-39,-9
87,0,-87,-43,87,-43,-29,-68,-39,-48,-39,-9
87,0,-87,-43,87,-43,-29,-68,-39,-48,-39,-9
87,0,-87,-43,87,-43,-29,-68,-39,-48,-39,-9
87,0,-87,-43,87,-43,-19,-68,-29,-48,-48,-9
87,0,-87,-43,87,-43,-19,-68,-29,-48,-48,-9
87,0,-87,-43,87,-43,-19,-68,-29,-48,-48,-9
87,0,-87,-43,87,-43,-19,-68,-29,-48,-48,-9
87,0,-87,-43,87,-43,-29,-68,-39,-58,-48,-9
87,0,-87,-43,87,-43,-29,-68,-39,-58,-48,-9
87,0,-87,-43,87,-43,-29,-68,-39,-58,-48,-9
87,0,-87,-43,87,-43,-29,-68,-39,-58,-48,-9
87,0,-87,-43,87,-43,-19,-68,-39,-48,-48,-9
87,0,-87,-43,87,-43,-19,-68,-39,-48,-48,-9
87,0,-87,-43,87,-43,-19,-68,-39,-48,-48,-9
87,0,-87,-43,87,-43,-19,-68,-39,-48,-48,-9
87,0,-87,-43,87,-43,-29,-68,-39,-58,-39,-9
87,0,-87,-43,87,-43,-29,-68,-39,-58,-39,-9
87,0,-87,-43,87,-43,-29,-68,-39,-58,-39,-9
87,0,-87,-43,87,-43,-29,-68,-39,-58,-39,-9
87,9,-78,-48,82,-34,-19,-68,-39,-58,-48,-9
87,9,-78,-48,82,-34,-19,-68,-39,-58,-48,-9
87,9,-78,-48,82,-34,-19,-68,-39,-58,-48,-9
87,9,-78,-48,82,-34,-19,-68,-39,-58,-48,-9
87,0,-87,-43,87,-43,-29,-68,-39,-58,-48,-9
87,0,-87,-43,87,-43,-29,-68,-39,-58,-48,-9
87,0,-87,-43,87,-43,-29,-68,-39,-58,-48,-9
87,0,-87,-43,87,-43,-29,-68,-39,-58,-48,-9
87,9,-78,-48,82,-34,-29,-68,-39,-58,-48,-9
87,9,-78,-48,82,-34,-29,-68,-39,-58,-48,-9
87,9,-78,-48,82,-34,-29,-68,-39,-58,-48,-9
87,9,-78,-48,82,-34,-29,-68,-39,-58,-48,-9
87,9,-78,-48,82,-34,-19,-78,-39,-58,-48,-9
87,9,-78,-48,82,-34,-19,-78,-39,-58,-48,-9
87,9,-78,-48,82,-34,-19,-78,-39,-58,-48,-9
87,9,-78,-48,82,-34,-19,-78,-39,-58,-48,-9
78,9,-68,-43,73,-29,-19,-78,-39,-58,-48,-9
78,9,-68,-43,73,-29,-19,-78,-39,-58,-48,-9
78,9,-68,-43,73,-29,-19,-78,-39,-58,-48,-9
78,9,-68,-43,73,-29,-19,-78,-39,-58,-48,-9
78,9,-68,-43,73,-29,-19,-78,-39,-48,-48,-9
78,9,-68,-43,73,-29,-19,-78,-39,-48,-48,-9
78,9,-68,-43,73,-29,-19,-78,-39,-48,-48,-9
78,9,-68,-43,73,-29,-19,-78,-39,-48,-48,-9
78,9,-68,-43,73,-29,-19,-68,-39,-48,-48,0
78,9,-68,-43,73,-29,-19,-68,-39,-48,-48,0
78,9,-68,-43,73,-29,-19,-68,-39,-48,-48,0
78,9,-68,-43,73,-29,-19,-68,-39,-48,-48,0
78,9,-68,-43,73,-29,-19,-78,-39,-58,-58,-9
78,9,-68,-43,73,-29,-19,-78,-39,-58,-58,-9
78,9,-68,-43,73,-29,-19,-78,-39,-58,-58,-9
78,9,-68,-43,73,-29,-19,-78,-39,-58,-58,-9
78,9,-68,-43,73,-29,-19,-68,-39,-58,-58,-9
78,9,-68,-43,73,-29,-19,-68,-39,-58,-58,-9
78,9,-68,-43,73,-29,-19,-68,-39,-58,-58,-9
78,9,-68,-43,73,-29,-19,-68,-39,-58,-58,-9
78,19,-58,-48,68,-19,-19,-68,-29,-48,-48,0
78,19,-58,-48,68,-19,-19,-68,-29,-48,-48,0
78,19,-58,-48,68,-19,-19,-68,-29,-48,-48,0
78,19,-58,-48,68,-19,-19,-68,-29,-48,-48,0
78,19,-58,-48,68,-19,-29,-78,-39,-58,-48,-9
78,19,-58,-48,68,-19,-29,-78,-39,-58,-48,-9
78,19,-58,-48,68,-19,-29,-78,-39,-58,-48,-9
78,19,-58,-48,68,-19,-29,-78,-39,-58,-48,-9
78,19,-58,-48,68,-19,-19,-68,-29,-48,-48,-9
78,19,-58,-48,68,-19,-19,-68,-29,-48,-48,-9
78,19,-58,-48,68,-19,-19,-68,-29,-48,-48,-9
78,19,-58,-48,68,-19,-19,-68,-29,-48,-48,-9
78,19,-58,-48,68,-19,-19,-78,-39,-58,-48,0
78,19,-58,-48,68,-19,-19,-78,-39,-58,-48,0
78,19,-58,-48,68,-19,-19,-78,-39,-58,-48,0
78,19,-58,-48,68,-19,-19,-78,-39,-58,-48,0
78,9,-68,-43,73,-29,-19,-78,-39,-58,-48,0
78,9,-68,-43,73,-29,-19,-78,-39,-58,-48,0
78,9,-68,-43,73,-29,-19,-78,-39,-58,-48,0
78,9,-68,-43,73,-29,-19,-78,-39,-58,-48,0
78,19,-58,-48,68,-19,-19,-78,-29,-58,-48,0
78,19,-58,-48,68,-19,-19,-78,-29,-58,-48,0
78,19,-58,-48,68,-19,-19,-78,-29,-58,-48,0
78,19,-58,-48,68,-19,-19,-78,-29,-58,-48,0
78,19,-58,-48,68,-19,-29,-78,-39,-58,-48,-9
78,19,-58,-48,68,-19,-29,-78,-39,-58,-48,-9
78,19,-58,-48,68,-19,-29,-78,-39,-58,-48,-9
78,19,-58,-48,68,-19,-29,-78,-39,-58,-48,-9
78,19,-58,-48,68,-19,-29,-78,-39,-58,-58,-9
78,19,-58,-48,68,-19,-29,-78,-39,-58,-58,-9
78,19,-58,-48,68,-19,-29,-78,-39,-58,-58,-9
78,19,-58,-48,68,-19,-29,-78,-39,-58,-58,-9
78,19,-58,-48,68,-19,-29,-78,-39,-58,-48,-9
78,19,-58,-48,68,-19,-29,-78,-39,-58,-48,-9
78,19,-58,-48,68,-19,-29,-78,-39,-58,-48,-9
78,19,-58,-48,68,-19,-29,-78,-39,-58,-48,-9
78,19,-58,-48,68,-19,-29,-78,-39,-58,-48,-9
78,19,-58,-48,68,-19,-29,-78,-39,-58,-48,-9
78,19,-58,-48,68,-19,-29,-78,-39,-58,-48,-9
78,19,-58,-48,68,-19,-29,-78,-39,-58,-48,-9
68,19,-48,-43,58,-14,-29,-78,-48,-58,-58,-9
68,19,-48,-43,58,-14,-29,-78,-48,-58,-58,-9
68,19,-48,-43,58,-14,-29,-78,-48,-58,-58,-9
68,19,-48,-43,58,-14,-29,-78,-48,-58,-58,-9
78,29,-48,-53,63,-9,-29,-78,-39,-58,-58,-9
78,29,-48,-53,63,-9,-29,-78,-39,-58,-58,-9
78,29,-48,-53,63,-9,-29,-78,-39,-58,-58,-9
78,29,-48,-53,63,-9,-29,-78,-39,-58,-58,-9
78,29,-48,-53,63,-9,-29,-87,-39,-58,-58,-9
78,29,-48,-53,63,-9,-29,-87,-39,-58,-58,-9
78,29,-48,-53,63,-9,-29,-87,-39,-58,-58,-9
78,29,-48,-53,63,-9,-29,-87,-39,-58,-58,-9
78,19,-58,-48,68,-19,-29,-78,-39,-48,-48,0
78,19,-58,-48,68,-19,-29,-78,-39,-48,-48,0
78,19,-58,-48,68,-19,-29,-78,-39,-48,-48,0
78,19,-58,-48,68,-19,-29,-78,-39,-48,-48,0
68,29,-39,-48,53,-4,-29,-78,-39,-48,-48,0
68,29,-39,-48,53,-4,-29,-78,-39,-48,-48,0
68,29,-39,-48,53,-4,-29,-78,-39,-48,-48,0
68,29,-39,-48,53,-4,-29,-78,-39,-48,-48,0
68,29,-39,-48,53,-4,-29,-78,-39,-58,-48,0
68,29,-39,-48,53,-4,-29,-78,-39,-58,-48,0
68,29,-39,-48,53,-4,-29,-78,-39,-58,-48,0
68,29,-39,-48,53,-4,-29,-78,-39,-58,-48,0
78,29,-48,-53,63,-9,-29,-78,-48,-58,-48,-9
78,29,-48,-53,63,-9,-29,-78,-48,-58,-48,-9
78,29,-48,-53,63,-9,-29,-78,-48,-58,-48,-9
78,29,-48,-53,63,-9,-29,-78,-48,-58,-48,-9
68,29,-39,-48,53,-4,-29,-78,-39,-58,-58,-9
68,29,-39,-48,53,-4,-29,-78,-39,-58,-58,-9
68,29,-39,-48,53,-4,-29,-78,-39,-58,-58,-9
68,24,-43,-46,56,-9,-29,-82,-39,-58,-63,-9
73,24,-48,-48,61,-12,-24,-82,-39,-63,-63,-9
73,24,-48,-48,61,-12,-24,-82,-43,-63,-63,-9
73,24,-48,-48,61,-12,-24,-78,-43,-63,-68,-14
73,24,-48,-48,61,-12,-24,-78,-43,-63,-73,-14
78,24,-53,-51,65,-14,-34,-78,-43,-63,-73,-9
78,24,-53,-51,65,-14,-34,-78,-39,-63,-68,-9
78,29,-48,-53,63,-9,-34,-78,-39,-58,-53,-9
82,29,-53,-56,68,-12,-34,-78,-39,-58,-48,-9
82,29,-53,-56,68,-12,-34,-78,-43,-58,-58,-19
82,29,-53,-56,68,-12,-34,-78,-43,-58,-58,-14
82,29,-53,-56,68,-12,-34,-78,-43,-58,-58,-14
82,39,-43,-61,63,-2,-39,-78,-39,-53,-48,-4
87,53,-34,-70,61,9,-39,-68,-24,-39,-39,0
87,53,-34,-70,61,9,-34,-68,-24,-34,-34,0
92,53,-39,-73,65,7,-34,-68,-24,-29,-29,4
92,63,-29,-78,61,17,-34,-63,-14,-19,-29,4
92,68,-24,-80,58,21,-34,-68,-4,-24,-24,19
97,73,-24,-85,61,24,-29,-68,0,-24,-19,24
102,78,-24,-90,63,26,-24,-58,0,-19,-14,24
102,78,-24,-90,63,26,-24,-53,9,-9,-4,34
102,68,-34,-85,68,17,-14,-53,9,-9,-14,29
102,68,-34,-85,68,17,-14,-53,14,-9,-9,29
112,78,-34,-95,73,21,-14,-43,19,-4,-9,29
112,78,-34,-95,73,21,-19,-43,19,-4,-9,34
117,68,-48,-92,82,9,-19,-34,19,4,4,39
117,68,-48,-92,82,9,-19,-34,19,4,4,43
126,73,-53,-100,90,9,-19,-34,29,14,14,48
126,78,-48,-102,87,14,-14,-34,34,19,14,58
131,78,-53,-104,92,12,-14,-24,48,24,29,63
136,73,-63,-104,100,4,-14,-19,48,24,29,63
136,73,-63,-104,100,4,-14,-19,43,24,34,68
141,73,-68,-107,104,2,-19,-19,43,29,34,68
146,78,-68,-112,107,4,-34,-19,34,19,34,63
146,82,-63,-114,104,9,-39,-14,34,24,39,68
146,82,-63,-114,104,9,-43,-14,34,29,39,68
156,82,-73,-119,114,4,-48,-4,39,34,43,78
161,87,-73,-124,117,7,-63,-14,29,34,43,87
161,87,-73,-124,117,7,-63,-14,29,34,39,82
161,87,-73,-124,117,7,-63,-19,24,24,34,82
156,82,-73,-119,114,4,-58,-24,14,24,34,78
156,63,-92,-109,124,-14,-48,-29,4,14,24,58
151,53,-97,-102,124,-21,-48,-34,-9,4,14,58
151,48,-102,-100,126,-26,-48,-34,-19,-4,9,48
151,43,-107,-97,129,-31,-48,-43,-24,-14,4,43
146,34,-112,-90,129,-39,-58,-43,-34,-19,-9,43
141,34,-107,-87,124,-36,-58,-53,-34,-24,-14,43
136,34,-102,-85,119,-34,-58,-58,-34,-29,-19,39
131,34,-97,-82,114,-31,-58,-63,-34,-34,-19,34
126,29,-97,-78,112,-34,-58,-63,-43,-39,-24,19
126,24,-102,-75,114,-39,-58,-73,-48,-48,-29,14
126,24,-102,-75,114,-39,-53,-73,-53,-48,-34,9
117,19,-97,-68,107,-39,-53,-73,-53,-53,-39,4
117,14,-102,-65,109,-43,-43,-63,-39,-53,-39,14
112,14,-97,-63,104,-41,-43,-63,-39,-53,-39,19
112,19,-92,-65,102,-36,-39,-63,-39,-53,-39,19
107,19,-87,-63,97,-34,-24,-63,-34,-48,-34,19
102,14,-87,-58,95,-36,-24,-63,-34,-48,-34,4
87,14,-73,-51,80,-29,-24,-68,-34,-48,-39,0
87,14,-73,-51,80,-29,-29,-73,-39,-53,-48,-4
82,9,-73,-46,78,-31,-29,-78,-39,-63,-53,-9
68,9,-58,-39,63,-24,-29,-87,-53,-78,-63,-19
63,4,-58,-34,61,-26,-29,-92,-58,-82,-63,-19
58,4,-53,-31,56,-24,-29,-97,-58,-82,-68,-19
58,4,-53,-31,56,-24,-29,-97,-58,-82,-68,-19
68,0,-68,-34,68,-34,-19,-97,-53,-73,-68,-19
68,0,-68,-34,68,-34,-19,-97,-53,-73,-73,-19
68,4,-63,-36,65,-29,-19,-92,-53,-73,-73,-19
68,4,-63,-36,65,-29,-19,-92,-48,-73,-73,-19
63,4,-58,-34,61,-26,-19,-92,-58,-82,-73,-19
63,4,-58,-34,61,-26,-19,-92,-58,-82,-68,-19
63,4,-58,-34,61,-26,-19,-92,-63,-82,-68,-19
63,4,-58,-34,61,-26,-19,-92,-63,-82,-73,-19
63,4,-58,-34,61,-26,-24,-87,-58,-78,-73,-19
63,4,-58,-34,61,-26,-24,-87,-58,-78,-73,-14
63,9,-53,-36,58,-21,-24,-87,-53,-78,-68,-14
63,9,-53,-36,58,-21,-24,-92,-53,-78,-68,-14
68,9,-58,-39,63,-24,-14,-92,-53,-68,-58,-4
68,9,-58,-39,63,-24,-14,-92,-53,-68,-58,-4
68,9,-58,-39,63,-24,-9,-92,-58,-78,-63,-9
68,9,-58,-39,63,-24,-9,-92,-58,-78,-63,-9
68,9,-58,-39,63,-24,-24,-92,-53,-87,-63,-9
68,9,-58,-39,63,-24,-24,-92,-53,-87,-68,-9
68,9,-58,-39,63,-24,-24,-92,-53,-82,-68,-4
68,9,-58,-39,63,-24,-24,-97,-53,-78,-68,-4
63,19,-43,-41,53,-12,-19,-107,-43,-68,-63,-4
58,19,-39,-39,48,-9,-14,-102,-43,-63,-63,-4
58,24,-34,-41,46,-4,-9,-97,-43,-63,-53,-4
53,14,-39,-34,46,-12,-4,-82,-43,-63,-53,-4
53,4,-48,-29,51,-21,4,-58,-24,-43,-43,14
58,14,-43,-36,51,-14,24,-24,0,-14,-19,34
58,14,-43,-36,51,-14,34,0,24,14,19,53
78,24,-53,-51,65,-14,43,34,43,48,63,87
112,24,-87,-68,100,-31,43,82,63,92,107,122
151,14,-136,-82,143,-61,39,156,73,146,161,161
219,29,-190,-124,204,-80,29,244,97,204,229,224
317,53,-263,-185,290,-104,-4,351,117,283,326,326
444,73,-370,-258,407,-148,-48,468,141,361,439,429
561,102,-458,-331,509,-178,-68,619,200,483,570,551
683,151,-531,-417,607,-190,-73,829,302,653,746,692
819,209,-610,-514,714,-200,-82,1078,439,868,956,873
951,287,-663,-619,807,-187,-92,1327,585,1078,1166,1024
1054,390,-663,-722,858,-136,-122,1473,692,1239,1317,1141
1112,502,-610,-807,861,-53,-195,1464,746,1307,1376,1210
1112,580,-531,-846,822,24,-239,1337,702,1200,1263,1137
1039,570,-468,-805,753,51,-248,1127,580,946,966,888
936,551,-385,-744,661,82,-258,814,390,610,600,590
780,541,-239,-661,509,151,-268,424,204,317,331,385
527,517,-9,-522,268,253,-229,78,63,82,126,239
268,492,224,-380,21,358,-175,-224,-63,-107,-53,107
97,434,336,-265,-119,385,-122,-478,-219,-302,-214,-9
-24,287,312,-131,-168,300,-58,-575,-375,-488,-375,-146
-73,151,224,-39,-148,187,4,-551,-463,-600,-492,-268
-87,112,200,-12,-143,156,24,-527,-488,-619,-522,-297
-97,68,165,14,-131,117,9,-502,-517,-619,-527,-297
-87,-4,82,46,-85,39,0,-439,-570,-639,-541,-317
-73,-78,-4,75,-34,-41,9,-361,-600,-658,-551,-351
-53,-117,-63,85,4,-90,24,-302,-575,-619,-536,-346
-53,-107,-53,80,0,-80,-24,-331,-517,-561,-488,-317
-34,-82,-48,58,7,-65,-78,-351,-453,-478,-414,-268
-14,-63,-48,39,17,-56,-68,-297,-366,-375,-341,-209
4,-34,-39,14,21,-36,-63,-263,-278,-302,-263,-151
29,4,-24,-17,26,-9,-82,-248,-200,-219,-190,-92
53,39,-14,-46,34,12,-58,-190,-107,-136,-107,-24
58,63,4,-61,26,34,-43,-146,-58,-82,-53,4
53,53,0,-53,26,26,-43,-141,-53,-73,-48,9
68,68,0,-68,34,34,-39,-122,-53,-68,-58,0
68,63,-4,-65,36,29,-39,-107,-58,-73,-68,-4
68,73,4,-70,31,39,-34,-97,-58,-68,-58,-4
68,63,-4,-65,36,29,-34,-97,-63,-68,-53,0
63,63,0,-63,31,31,-34,-97,-63,-63,-53,0
58,53,-4,-56,31,24,-19,-97,-58,-63,-53,-4
58,53,-4,-56,31,24,-19,-102,-48,-63,-53,-4
58,53,-4,-56,31,24,-19,-102,-39,-68,-58,0
63,53,-9,-58,36,21,-19,-102,-34,-73,-58,0
58,43,-14,-51,36,14,-9,-82,-43,-63,-58,-4
53,39,-14,-46,34,12,-9,-78,-48,-63,-63,-4
48,39,-9,-43,29,14,-9,-73,-48,-58,-63,-9
43,34,-9,-39,26,12,-4,-73,-48,-58,-53,-9
53,34,-19,-43,36,7,-9,-73,-34,-48,-43,4
53,39,-14,-46,34,12,-9,-73,-29,-48,-39,9
53,39,-14,-46,34,12,-9,-73,-29,-48,-39,9
53,39,-14,-46,34,12,-9,-73,-24,-43,-29,14
53,48,-4,-51,29,21,-9,-73,-34,-34,-29,14
53,48,-4,-51,29,21,-9,-63,-34,-29,-29,19
53,48,-4,-51,29,21,-9,-63,-34,-24,-29,24
53,48,-4,-51,29,21,-9,-58,-34,-24,-29,24
53,43,-9,-48,31,17,-9,-68,-29,-43,-43,14
53,43,-9,-48,31,17,-9,-68,-29,-43,-39,9
53,43,-9,-48,31,17,-9,-68,-29,-43,-43,4
53,43,-9,-48,31,17,-9,-68,-29,-43,-48,0
43,43,0,-43,21,21,0,-68,-29,-39,-48,4
48,43,-4,-46,26,19,0,-68,-29,-39,-48,4
48,43,-4,-46,26,19,0,-58,-29,-34,-43,4
48,43,-4,-46,26,19,0,-58,-24,-29,-43,9
48,43,-4,-46,26,19,4,-58,-24,-34,-34,9
53,43,-9,-48,31,17,4,-58,-19,-34,-34,14
53,43,-9,-48,31,17,0,-58,-19,-39,-34,14
53,43,-9,-48,31,17,0,-58,-24,-43,-39,9
53,34,-19,-43,36,7,0,-53,-24,-34,-39,9
53,34,-19,-43,36,7,0,-53,-19,-29,-34,9
53,34,-19,-43,36,7,0,-53,-14,-24,-34,9
53,34,-19,-43,36,7,0,-53,-14,-24,-29,14
53,43,-9,-48,31,17,0,-39,-4,-19,-29,14
53,43,-9,-48,31,17,0,-39,-4,-19,-29,19
53,43,-9,-48,31,17,0,-39,-9,-19,-29,19
53,43,-9,-48,31,17,0,-39,-9,-19,-29,19
48,34,-14,-41,31,9,9,-34,-9,-19,-39,19
48,34,-14,-41,31,9,9,-34,-9,-19,-39,19
48,39,-9,-43,29,14,9,-34,-9,-19,-34,19
48,39,-9,-43,29,14,9,-29,-9,-19,-34,14
48,29,-19,-39,34,4,9,-29,-9,-29,-39,14
48,29,-19,-39,34,4,9,-29,-9,-29,-39,14
48,29,-19,-39,34,4,9,-29,-9,-24,-34,14
48,29,-19,-39,34,4,9,-24,-9,-19,-34,14
48,29,-19,-39,34,4,19,-24,-4,-14,-34,14
53,29,-24,-41,39,2,19,-24,-4,-14,-24,19
53,29,-24,-41,39,2,19,-24,-4,-14,-24,24
53,34,-19,-43,36,7,19,-24,-4,-14,-24,24
53,43,-9,-48,31,17,9,-14,4,-14,-14,34
53,43,-9,-48,31,17,9,-14,4,-9,-14,34
53,43,-9,-48,31,17,9,-4,9,0,-14,34
53,43,-9,-48,31,17,9,-4,9,4,-14,34
63,43,-19,-53,41,12,9,-14,0,-4,-24,24
63,43,-19,-53,41,12,9,-14,0,0,-14,24
63,43,-19,-53,41,12,9,-14,0,0,-14,29
63,43,-19,-53,41,12,9,-14,0,0,-19,29
53,43,-9,-48,31,17,19,0,9,9,-14,34
53,43,-9,-48,31,17,19,0,9,9,-14,34
53,43,-9,-48,31,17,19,0,9,9,-14,34
53,43,-9,-48,31,17,19,0,9,9,-9,34
53,43,-9,-48,31,17,19,0,19,9,-9,34
58,43,-14,-51,36,14,19,4,19,9,-9,39
58,43,-14,-51,36,14,19,4,19,19,0,43
58,48,-9,-53,34,19,19,4,29,19,4,43
58,48,-9,-53,34,19,9,4,19,14,4,43
58,48,-9,-53,34,19,9,4,19,14,4,48
58,48,-9,-53,34,19,9,4,19,19,4,48
58,48,-9,-53,34,19,9,9,19,19,4,48
53,48,-4,-51,29,21,19,9,29,29,14,48
53,48,-4,-51,29,21,19,14,34,29,19,48
53,43,-9,-48,31,17,14,14,34,29,19,48
53,43,-9,-48,31,17,14,19,39,29,14,48
53,53,0,-53,26,26,19,19,39,29,4,58
53,53,0,-53,26,26,19,19,39,34,9,58
53,53,0,-53,26,26,14,24,39,34,19,58
58,53,-4,-56,31,24,14,24,39,39,19,63
58,43,-14,-51,36,14,19,24,39,39,19,53
63,43,-19,-53,41,12,19,29,39,39,19,58
63,53,-9,-58,36,21,19,29,39,43,24,58
63,53,-9,-58,36,21,14,34,43,43,24,58
58,43,-14,-51,36,14,24,48,48,48,29,53
58,43,-14,-51,36,14,19,48,48,48,29,53
63,43,-19,-53,41,12,19,48,48,48,34,58
63,43,-19,-53,41,12,19,48,48,48,34,58
63,53,-9,-58,36,21,9,53,63,58,34,63
68,53,-14,-61,41,19,9,53,63,58,34,63
68,53,-14,-61,41,19,9,63,63,63,39,63
68,48,-19,-58,43,14,9,68,63,68,43,63
73,58,-14,-65,43,21,14,68,63,68,48,78
73,63,-9,-68,41,26,14,68,73,78,48,78
73,63,-9,-68,41,26,14,73,73,78,53,82
78,63,-14,-70,46,24,14,73,73,78,53,82
68,58,-9,-63,39,24,19,78,68,68,43,73
73,58,-14,-65,43,21,19,82,68,68,48,73
73,58,-14,-65,43,21,19,82,73,73,53,73
73,58,-14,-65,43,21,19,82,73,78,53,78
73,48,-24,-61,48,12,24,102,73,78,53,68
78,48,-29,-63,53,9,24,107,73,82,53,68
78,48,-29,-63,53,9,24,107,78,82,53,68
78,48,-29,-63,53,9,24,107,78,87,58,73
78,58,-19,-68,48,19,24,102,78,102,73,78
82,63,-19,-73,51,21,24,102,82,102,73,82
82,63,-19,-73,51,21,24,107,82,97,68,82
78,58,-19,-68,48,19,24,117,78,97,68,87
78,68,-9,-73,43,29,19,126,87,102,68,87
82,68,-14,-75,48,26,19,131,87,102,63,87
82,68,-14,-75,48,26,19,131,87,97,63,82
87,68,-19,-78,53,24,19,131,87,97,63,82
87,58,-29,-73,58,14,19,136,78,87,53,73
92,63,-29,-78,61,17,19,141,82,92,58,78
92,63,-29,-78,61,17,19,141,82,97,63,78
82,58,-24,-70,53,17,19,141,82,97,63,78
82,48,-34,-65,58,7,19,146,87,102,68,73
87,53,-34,-70,61,9,19,146,87,102,68,73
87,53,-34,-70,61,9,19,151,92,107,73,78
82,53,-29,-68,56,12,19,156,92,107,73,78
73,53,-19,-63,46,17,19,156,82,97,68,68
73,53,-19,-63,46,17,19,156,82,97,63,63
78,53,-24,-65,51,14,19,151,82,97,53,63
78,53,-24,-65,51,14,19,151,82,97,43,58
78,53,-24,-65,51,14,19,156,82,97,53,58
78,53,-24,-65,51,14,9,156,82,97,53,53
78,53,-24,-65,51,14,9,156,78,92,48,53
78,53,-24,-65,51,14,9,156,78,82,48,48
78,53,-24,-65,51,14,14,165,68,92,43,43
78,53,-24,-65,51,14,14,165,63,92,43,43
78,53,-24,-65,51,14,14,161,63,92,43,43
78,48,-29,-63,53,9,14,161,63,87,43,43
78,58,-19,-68,48,19,14,151,73,87,39,39
78,58,-19,-68,48,19,4,146,63,87,39,39
78,58,-19,-68,48,19,4,146,63,87,39,39
78,63,-14,-70,46,24,9,146,63,82,39,39
68,58,-9,-63,39,24,9,146,58,73,39,39
68,58,-9,-63,39,24,0,141,58,73,34,43
68,58,-9,-63,39,24,0,136,58,73,34,43
68,58,-9,-63,39,24,4,131,48,68,34,39
78,63,-14,-70,46,24,4,117,58,63,34,43
78,68,-9,-73,43,29,4,107,58,63,29,48
78,82,4,-80,36,43,4,102,63,63,29,53
73,87,14,-80,29,51,4,97,63,68,39,68
73,87,14,-80,29,51,-4,92,58,63,24,53
73,87,14,-80,29,51,-4,82,53,58,24,48
73,87,14,-80,29,51,0,82,48,53,19,48
68,87,19,-78,24,53,0,78,43,39,14,43
68,87,19,-78,24,53,0,63,39,43,14,43
68,87,19,-78,24,53,0,58,39,43,14,39
68,82,14,-75,26,48,0,53,39,39,19,39
68,82,14,-75,26,48,4,48,39,39,24,39
68,82,14,-75,26,48,-4,29,39,39,29,43
63,82,19,-73,21,51,-4,29,39,39,29,48
58,82,24,-70,17,53,0,24,39,39,29,58
58,82,24,-70,17,53,0,19,34,34,34,63
58,82,24,-70,17,53,-4,14,24,24,24,53
58,82,24,-70,17,53,-4,9,24,19,24,53
58,82,24,-70,17,53,0,4,24,14,19,53
58,82,24,-70,17,53,0,4,24,14,14,48
63,82,19,-73,21,51,-4,-9,19,9,9,48
63,78,14,-70,24,46,-4,-9,14,4,4,43
63,78,14,-70,24,46,-4,-14,14,0,0,39
63,73,9,-68,26,41,-4,-14,14,0,-4,34
58,78,19,-68,19,48,-4,-14,4,-14,-4,29
58,78,19,-68,19,48,-4,-19,0,-14,-9,29
58,73,14,-65,21,43,-4,-24,0,-19,-9,29
58,73,14,-65,21,43,-4,-24,0,-19,-9,29
48,73,24,-61,12,48,0,-34,0,-9,-9,29
53,73,19,-63,17,46,0,-34,0,-9,-4,29
53,73,19,-63,17,46,0,-34,-4,-9,-4,29
53,73,19,-63,17,46,-4,-34,-4,-14,-14,29
53,73,19,-63,17,46,-4,-34,-14,-24,-24,19
53,73,19,-63,17,46,-4,-39,-14,-24,-24,19
48,73,24,-61,12,48,-4,-39,-14,-24,-24,19
43,73,29,-58,7,51,-4,-39,-14,-24,-24,19
53,73,19,-63,17,46,-14,-39,-9,-14,-24,29
53,73,19,-63,17,46,-14,-39,-9,-19,-19,19
53,73,19,-63,17,46,-14,-43,-4,-19,-14,19
53,73,19,-63,17,46,-14,-43,-4,-14,-4,24
53,82,29,-68,12,56,-4,-39,4,-14,-4,24
53,78,24,-65,14,51,-4,-39,4,-14,-4,29
53,78,24,-65,14,51,-4,-39,-4,-14,-4,29
48,73,24,-61,12,48,-4,-39,-4,-24,-14,24
48,82,34,-65,7,58,-4,-39,-9,-34,-24,9
48,82,34,-65,7,58,-4,-39,-9,-34,-29,9
53,82,29,-68,12,56,-4,-34,-9,-34,-29,9
53,82,29,-68,12,56,-4,-34,-9,-34,-29,9
53,73,19,-63,17,46,-14,-39,-9,-24,-24,14
53,73,19,-63,17,46,-14,-39,-9,-24,-24,14
53,73,19,-63,17,46,-9,-39,-9,-24,-24,4
53,73,19,-63,17,46,-9,-39,-9,-24,-24,4
53,87,34,-70,9,61,-19,-39,-9,-24,-9,14
48,87,39,-68,4,63,-19,-39,-4,-19,-9,19
48,87,39,-68,4,63,-19,-39,-4,-19,-9,19
48,87,39,-68,4,63,-19,-39,-4,-19,-4,19
39,97,58,-68,-9,78,-9,-39,-19,-24,-9,19
39,92,53,-65,-7,73,-9,-39,-19,-29,-19,14
43,92,48,-68,-2,70,-9,-39,-19,-34,-24,4
43,97,53,-70,-4,75,-9,-39,-19,-39,-34,-4
39,92,53,-65,-7,73,-9,-34,-19,-43,-43,-14
39,87,48,-63,-4,68,-9,-34,-19,-43,-43,-14
39,82,43,-61,-2,63,-9,-34,-19,-43,-43,-14
39,82,43,-61,-2,63,-9,-34,-19,-43,-43,-14
34,82,48,-58,-7,65,-14,-43,-14,-39,-34,0
34,82,48,-58,-7,65,-14,-48,-14,-34,-34,0
39,82,43,-61,-2,63,-19,-48,-14,-29,-34,0
39,82,43,-61,-2,63,-19,-48,-19,-24,-39,0
39,97,58,-68,-9,78,-19,-39,-19,-34,-29,0
39,102,63,-70,-12,82,-19,-39,-19,-34,-24,0
39,107,68,-73,-14,87,-19,-39,-19,-29,-24,0
39,112,73,-75,-17,92,-19,-39,-24,-29,-29,0
39,97,58,-68,-9,78,-19,-39,-24,-43,-43,-9
39,97,58,-68,-9,78,-19,-39,-24,-43,-48,-14
39,97,58,-68,-9,78,-19,-39,-24,-53,-58,-19
39,97,58,-68,-9,78,-19,-39,-29,-53,-63,-34
39,102,63,-70,-12,82,-19,-48,-29,-39,-58,-24
39,102,63,-70,-12,82,-14,-48,-24,-39,-53,-19
39,102,63,-70,-12,82,-14,-53,-24,-34,-43,-19
39,102,63,-70,-12,82,-14,-53,-24,-34,-39,-19
39,107,68,-73,-14,87,-19,-53,-24,-43,-48,-24
39,107,68,-73,-14,87,-19,-53,-24,-43,-43,-24
34,107,73,-70,-19,90,-19,-53,-24,-43,-43,-24
34,112,78,-73,-21,95,-19,-53,-24,-43,-43,-24
34,112,78,-73,-21,95,-19,-53,-24,-48,-43,-24
34,112,78,-73,-21,95,-19,-53,-29,-48,-48,-29
34,112,78,-73,-21,95,-19,-53,-29,-48,-48,-29
34,112,78,-73,-21,95,-19,-53,-29,-48,-48,-29
34,112,78,-73,-21,95,-19,-53,-14,-39,-39,-29
34,112,78,-73,-21,95,-19,-53,-14,-39,-39,-24
34,112,78,-73,-21,95,-19,-53,-19,-39,-43,-24
34,112,78,-73,-21,95,-19,-53,-19,-39,-43,-24
34,112,78,-73,-21,95,-9,-63,-19,-48,-43,-29
34,112,78,-73,-21,95,-9,-63,-19,-48,-43,-29
34,112,78,-73,-21,95,-9,-63,-19,-48,-43,-29
34,112,78,-73,-21,95,-9,-63,-19,-48,-43,-29
24,107,82,-65,-29,95,-9,-58,-29,-58,-53,-39
24,102,78,-63,-26,90,-9,-58,-24,-58,-53,-39
24,97,73,-61,-24,85,-9,-58,-24,-58,-53,-39
24,92,68,-58,-21,80,-9,-58,-24,-58,-53,-39
24,92,68,-58,-21,80,-9,-58,-24,-48,-43,-39
24,92,68,-58,-21,80,-9,-63,-24,-53,-43,-39
24,92,68,-58,-21,80,-9,-63,-24,-53,-43,-39
24,92,68,-58,-21,80,-9,-58,-24,-53,-43,-39
34,102,68,-68,-17,85,-9,-48,-19,-53,-53,-39
34,102,68,-68,-17,85,-9,-53,-19,-53,-58,-43
34,102,68,-68,-17,85,-9,-58,-14,-53,-58,-43
34,102,68,-68,-17,85,-9,-58,-14,-53,-63,-48
34,97,63,-65,-14,80,-9,-58,-29,-53,-63,-48
34,92,58,-63,-12,75,-9,-58,-29,-63,-63,-48
34,87,53,-61,-9,70,-9,-58,-29,-63,-58,-48
34,82,48,-58,-7,65,-9,-58,-29,-58,-58,-39
24,92,68,-58,-21,80,0,-58,-19,-48,-48,-29
24,92,68,-58,-21,80,0,-63,-19,-48,-48,-29
24,92,68,-58,-21,80,0,-63,-19,-48,-48,-29
24,92,68,-58,-21,80,0,-63,-19,-48,-48,-34
24,82,58,-53,-17,70,-9,-63,-29,-58,-58,-43
24,87,63,-56,-19,75,-14,-63,-29,-58,-58,-43
24,87,63,-56,-19,75,-14,-63,-29,-58,-58,-43
24,87,63,-56,-19,75,-9,-58,-34,-58,-68,-48
24,87,63,-56,-19,75,-9,-58,-24,-48,-58,-48
24,87,63,-56,-19,75,-9,-63,-24,-53,-58,-48
24,82,58,-53,-17,70,-9,-63,-24,-53,-58,-53
29,82,53,-56,-12,68,-9,-68,-24,-53,-63,-58
29,78,48,-53,-9,63,-9,-68,-24,-68,-73,-48
29,78,48,-53,-9,63,-9,-68,-24,-68,-73,-48
29,78,48,-53,-9,63,-9,-68,-29,-63,-68,-48
24,78,53,-51,-14,65,-9,-68,-29,-63,-68,-43
24,68,43,-46,-9,56,-9,-63,-34,-53,-53,-39
24,68,43,-46,-9,56,-9,-63,-34,-53,-53,-39
24,73,48,-48,-12,61,-9,-63,-34,-53,-53,-39
24,73,48,-48,-12,61,-9,-63,-34,-53,-53,-43
14,73,58,-43,-21,65,-9,-68,-24,-53,-58,-34
14,73,58,-43,-21,65,-9,-73,-24,-53,-58,-34
19,73,53,-46,-17,63,-9,-73,-24,-58,-58,-34
19,73,53,-46,-17,63,-9,-68,-24,-63,-58,-34
19,63,43,-41,-12,53,-9,-68,-39,-68,-63,-39
19,63,43,-41,-12,53,-9,-68,-39,-68,-68,-43
19,63,43,-41,-12,53,-9,-68,-39,-68,-73,-48
19,68,48,-43,-14,58,-9,-68,-34,-73,-78,-53
24,68,43,-46,-9,56,-9,-68,-24,-68,-73,-43
24,63,39,-43,-7,51,-9,-68,-29,-63,-68,-43
24,63,39,-43,-7,51,-9,-68,-29,-58,-63,-43
24,63,39,-43,-7,51,-9,-68,-24,-53,-58,-39
14,63,48,-39,-17,56,-9,-68,-29,-63,-68,-48
19,68,48,-43,-14,58,-9,-68,-29,-63,-68,-43
19,68,48,-43,-14,58,-9,-68,-29,-63,-58,-43
14,68,53,-41,-19,61,-9,-68,-29,-63,-58,-43
14,58,43,-36,-14,51,0,-68,-29,-58,-48,-43
14,58,43,-36,-14,51,-4,-68,-29,-58,-48,-43
19,58,39,-39,-9,48,-4,-68,-34,-58,-53,-43
19,58,39,-39,-9,48,-4,-68,-34,-58,-53,-43
19,68,48,-43,-14,58,-9,-58,-14,-48,-43,-39
24,68,43,-46,-9,56,-9,-58,-14,-48,-39,-29
24,68,43,-46,-9,56,-9,-58,-14,-48,-34,-24
24,68,43,-46,-9,56,-9,-58,-14,-48,-29,-19
24,68,43,-46,-9,56,-9,-58,-19,-58,-39,-34
24,63,39,-43,-7,51,-9,-58,-24,-63,-48,-39
24,63,39,-43,-7,51,-9,-58,-29,-68,-58,-43
24,63,39,-43,-7,51,-9,-58,-34,-78,-68,-48
24,48,24,-36,0,36,0,-58,-29,-68,-68,-58
24,43,19,-34,2,31,0,-58,-29,-68,-73,-58
24,39,14,-31,4,26,0,-58,-29,-73,-78,-63
19,24,4,-21,7,14,0,-58,-29,-73,-78,-63
19,29,9,-24,4,19,0,-58,-19,-68,-63,-58
19,29,9,-24,4,19,0,-58,-19,-63,-58,-53
14,29,14,-21,0,21,0,-58,-24,-58,-53,-48
14,34,19,-24,-2,26,0,-58,-24,-53,-53,-43
19,43,24,-31,-2,34,0,-63,-24,-48,-53,-34
19,43,24,-31,-2,34,0,-63,-19,-48,-53,-29
19,43,24,-31,-2,34,0,-63,-19,-48,-48,-29
14,43,29,-29,-7,36,0,-63,-24,-48,-48,-39
24,39,14,-31,4,26,0,-53,-24,-58,-58,-29
24,34,9,-29,7,21,0,-58,-24,-58,-58,-29
24,29,4,-26,9,17,0,-63,-24,-58,-58,-29
24,24,0,-24,12,12,0,-63,-24,-58,-58,-29
24,24,0,-24,12,12,9,-53,-24,-53,-58,-39
24,19,-4,-21,14,7,9,-53,-24,-53,-58,-39
24,19,-4,-21,14,7,9,-53,-24,-53,-58,-39
24,19,-4,-21,14,7,9,-53,-24,-53,-58,-39
24,19,-4,-21,14,7,9,-53,-14,-43,-48,-29
24,19,-4,-21,14,7,9,-53,-14,-43,-43,-29
24,19,-4,-21,14,7,9,-53,-14,-43,-39,-29
24,19,-4,-21,14,7,9,-53,-14,-43,-34,-29
24,24,0,-24,12,12,0,-48,-14,-43,-43,-29
24,24,0,-24,12,12,0,-48,-14,-43,-43,-29
24,24,0,-24,12,12,0,-43,-14,-43,-48,-29
24,24,0,-24,12,12,0,-43,-14,-43,-48,-29
24,19,-4,-21,14,7,0,-53,-24,-58,-53,-34
24,19,-4,-21,14,7,0,-53,-24,-58,-58,-39
34,14,-19,-24,26,-2,0,-53,-24,-58,-63,-43
34,14,-19,-24,26,-2,0,-53,-24,-58,-68,-53
14,-4,-19,-4,17,-12,19,-43,-19,-58,-58,-43
19,0,-19,-9,19,-9,19,-39,-19,-43,-53,-43
19,0,-19,-9,19,-9,19,-39,-9,-39,-29,-19
19,9,-9,-14,14,0,9,-48,0,-29,-19,-19
19,9,-9,-14,14,0,9,-48,0,-29,-19,-19
19,9,-9,-14,14,0,9,-48,0,-29,-19,-19
19,9,-9,-14,14,0,9,-48,0,-29,-19,-19
19,9,-9,-14,14,0,9,-48,0,-39,-29,-19
19,9,-9,-14,14,0,9,-48,0,-39,-29,-19
19,9,-9,-14,14,0,9,-48,0,-39,-29,-19
19,9,-9,-14,14,0,9,-48,0,-39,-29,-19
29,9,-19,-19,24,-4,9,-39,-9,-39,-39,-29
29,9,-19,-19,24,-4,9,-39,-9,-39,-39,-29
29,9,-19,-19,24,-4,9,-39,-9,-39,-39,-29
29,9,-19,-19,24,-4,9,-39,-9,-39,-39,-29
19,0,-19,-9,19,-9,9,-48,-9,-29,-29,-29
19,0,-19,-9,19,-9,9,-48,-9,-29,-29,-29
19,0,-19,-9,19,-9,9,-48,-9,-29,-29,-29
19,0,-19,-9,19,-9,9,-48,-9,-29,-29,-29
19,-9,-29,-4,24,-19,19,-39,-19,-39,-39,-34
19,-9,-29,-4,24,-19,19,-39,-19,-48,-48,-39
19,-9,-29,-4,24,-19,19,-39,-19,-58,-58,-43
19,-9,-29,-4,24,-19,19,-39,-19,-68,-68,-48
19,-9,-29,-4,24,-19,19,-39,-9,-53,-53,-48
19,-9,-29,-4,24,-19,19,-39,-9,-48,-48,-48
19,-9,-29,-4,24,-19,19,-39,-9,-43,-43,-48
19,-9,-29,-4,24,-19,19,-39,-9,-39,-39,-48
19,-4,-24,-7,21,-14,9,-39,0,-34,-34,-34
19,0,-19,-9,19,-9,9,-39,0,-29,-29,-29
19,4,-14,-12,17,-4,9,-39,0,-24,-24,-24
19,9,-9,-14,14,0,9,-39,0,-19,-19,-19
19,0,-19,-9,19,-9,9,-39,0,-29,-29,-24
19,0,-19,-9,19,-9,9,-39,0,-29,-29,-29
19,0,-19,-9,19,-9,9,-39,0,-29,-29,-34
19,0,-19,-9,19,-9,9,-39,0,-29,-29,-39
29,-9,-39,-9,34,-24,9,-48,-9,-39,-34,-48
29,-9,-39,-9,34,-24,9,-48,-9,-39,-39,-48
29,-9,-39,-9,34,-24,9,-48,-9,-39,-43,-48
29,-9,-39,-9,34,-24,9,-48,-9,-39,-48,-48
19,-9,-29,-4,24,-19,9,-39,-9,-39,-48,-48
19,-9,-29,-4,24,-19,9,-39,-9,-39,-48,-48
19,-9,-29,-4,24,-19,9,-39,-9,-39,-48,-48
19,-9,-29,-4,24,-19,9,-39,-9,-39,-48,-48
29,-19,-48,-4,39,-34,19,-39,-9,-29,-43,-39
29,-19,-48,-4,39,-34,19,-39,-9,-29,-39,-39
29,-19,-48,-4,39,-34,19,-39,-9,-29,-34,-39
29,-19,-48,-4,39,-34,19,-39,-9,-29,-29,-39
19,-9,-29,-4,24,-19,9,-39,0,-29,-19,-29
19,-9,-29,-4,24,-19,9,-39,0,-29,-19,-29
19,-9,-29,-4,24,-19,9,-39,0,-29,-19,-29
19,-9,-29,-4,24,-19,9,-39,0,-29,-19,-29
19,-9,-29,-4,24,-19,19,-39,-9,-39,-24,-43
19,-9,-29,-4,24,-19,19,-39,-9,-39,-29,-48
19,-9,-29,-4,24,-19,19,-39,-9,-39,-34,-53
19,-9,-29,-4,24,-19,19,-39,-9,-39,-39,-58
19,-9,-29,-4,24,-19,9,-39,-9,-39,-39,-48
19,-9,-29,-4,24,-19,9,-39,-9,-39,-39,-48
19,-9,-29,-4,24,-19,9,-39,-9,-39,-39,-48
19,-9,-29,-4,24,-19,9,-39,-9,-39,-39,-48
29,-9,-39,-9,34,-24,9,-39,0,-29,-29,-48
29,-9,-39,-9,34,-24,9,-39,0,-29,-29,-48
29,-9,-39,-9,34,-24,9,-39,0,-29,-29,-48
29,-9,-39,-9,34,-24,9,-39,0,-29,-29,-48
29,-9,-39,-9,34,-24,19,-39,0,-29,-29,-39
29,-9,-39,-9,34,-24,19,-39,0,-29,-29,-39
29,-9,-39,-9,34,-24,19,-39,0,-29,-29,-39
29,-9,-39,-9,34,-24,19,-39,0,-29,-29,-39
19,0,-19,-9,19,-9,9,-39,0,-39,-39,-39
19,0,-19,-9,19,-9,9,-39,0,-39,-39,-39
19,0,-19,-9,19,-9,9,-39,0,-39,-39,-39
19,0,-19,-9,19,-9,9,-39,0,-39,-39,-39
29,-14,-43,-7,36,-29,9,-39,-9,-48,-48,-43
29,-19,-48,-4,39,-34,9,-39,-9,-48,-48,-48
29,-24,-53,-2,41,-39,9,-39,-9,-48,-48,-53
29,-29,-58,0,43,-43,9,-39,-9,-48,-48,-58
19,-29,-48,4,34,-39,14,-29,0,-43,-43,-48
19,-29,-48,4,34,-39,19,-29,0,-39,-39,-48
19,-29,-48,4,34,-39,24,-29,0,-34,-34,-48
19,-29,-48,4,34,-39,29,-29,0,-29,-29,-48
29,-24,-53,-2,41,-39,24,-39,0,-19,-24,-34
29,-19,-48,-4,39,-34,19,-39,0,-19,-19,-29
29,-19,-48,-4,39,-34,14,-43,0,-19,-19,-24
34,-14,-48,-9,41,-31,14,-43,0,-24,-14,-19
24,-14,-39,-4,31,-26,14,-34,4,-34,-24,-29
24,-14,-39,-4,31,-26,14,-29,4,-34,-29,-34
24,-14,-39,-4,31,-26,14,-29,4,-34,-34,-34
19,-14,-34,-2,26,-24,14,-29,4,-34,-39,-39
29,-19,-48,-4,39,-34,24,-29,0,-43,-39,-48
29,-19,-48,-4,39,-34,24,-29,0,-39,-29,-48
34,-24,-58,-4,46,-41,24,-29,0,-39,-29,-48
34,-29,-63,-2,48,-46,24,-29,4,-39,-29,-48
34,-19,-53,-7,43,-36,14,-29,14,-24,-24,-39
34,-19,-53,-7,43,-36,14,-29,14,-19,-19,-34
34,-9,-43,-12,39,-26,9,-29,19,-9,-4,-19
39,-4,-43,-17,41,-24,9,-29,24,0,0,-9
39,4,-34,-21,36,-14,14,-19,34,-4,4,-9
43,4,-39,-24,41,-17,14,-19,34,0,9,-4
43,14,-29,-29,36,-7,14,-14,43,9,9,-4
43,19,-24,-31,34,-2,14,-9,53,14,14,0
39,9,-29,-24,34,-9,29,-9,53,4,14,-9
43,9,-34,-26,39,-12,34,0,48,9,14,-14
43,4,-39,-24,41,-17,34,4,53,19,19,-9
43,0,-43,-21,43,-21,34,4,48,19,14,-9
53,0,-53,-26,53,-26,34,4,63,29,29,0
63,9,-53,-36,58,-21,34,14,68,34,29,0
63,9,-53,-36,58,-21,29,14,68,34,29,4
68,9,-58,-39,63,-24,29,14,68,34,34,4
68,19,-48,-43,58,-14,29,14,68,34,34,14
78,24,-53,-51,65,-14,29,14,78,43,43,14
78,29,-48,-53,63,-9,34,14,82,48,43,19
82,29,-53,-56,68,-12,34,24,87,53,48,24
87,24,-63,-56,75,-19,24,29,78,53,39,14
87,24,-63,-56,75,-19,24,29,73,53,43,19
92,24,-68,-58,80,-21,19,29,73,58,43,19
97,29,-68,-63,82,-19,14,29,73,58,53,24
97,24,-73,-61,85,-24,19,34,82,63,68,39
97,24,-73,-61,85,-24,14,34,82,68,68,39
107,24,-82,-65,95,-29,9,43,87,73,73,48
112,19,-92,-65,102,-36,4,43,87,73,73,48
112,9,-102,-61,107,-46,4,53,78,82,78,53
112,9,-102,-61,107,-46,4,48,73,73,73,53
107,4,-102,-56,104,-48,9,43,63,73,73,48
107,-4,-112,-51,109,-58,9,39,53,63,63,39
92,-4,-97,-43,95,-51,0,29,48,43,53,29
92,-9,-102,-41,97,-56,0,24,39,34,48,19
92,-14,-107,-39,100,-61,0,9,34,24,43,14
87,-24,-112,-31,100,-68,0,4,24,19,29,4
92,-14,-107,-39,100,-61,0,-14,14,4,19,4
87,-14,-102,-36,95,-58,0,-19,14,0,9,0
82,-14,-97,-34,90,-56,0,-24,14,-4,4,-4
78,-19,-97,-29,87,-58,0,-24,4,-9,-4,-9
78,-29,-107,-24,92,-68,0,-24,0,-19,-19,-19
78,-34,-112,-21,95,-73,4,-24,-4,-19,-24,-29
68,-43,-112,-12,90,-78,4,-24,-4,-24,-29,-39
68,-53,-122,-7,95,-87,4,-24,0,-24,-29,-43
58,-53,-112,-2,85,-82,4,-24,9,-14,-24,-34
53,-48,-102,-2,78,-75,9,-24,9,-14,-19,-29
43,-48,-92,2,68,-70,24,-24,14,-9,-9,-24
34,-53,-87,9,61,-70,24,-24,14,-9,-4,-24
29,-43,-73,7,51,-58,24,-29,4,-19,-19,-29
29,-43,-73,7,51,-58,19,-34,0,-24,-29,-34
24,-48,-73,12,48,-61,19,-39,0,-34,-34,-39
19,-48,-68,14,43,-58,19,-39,-4,-39,-34,-39
24,-53,-78,14,51,-65,19,-43,0,-39,-24,-39
19,-53,-73,17,46,-63,19,-48,0,-34,-29,-39
19,-53,-73,17,46,-63,19,-48,0,-29,-29,-39
19,-58,-78,19,48,-68,19,-48,-4,-24,-29,-48
9,-58,-68,24,39,-63,29,-48,-4,-34,-34,-39
9,-53,-63,21,36,-58,29,-43,-4,-34,-34,-39
9,-53,-63,21,36,-58,29,-43,0,-34,-34,-39
14,-53,-68,19,41,-61,29,-43,0,-34,-34,-39
14,-53,-68,19,41,-61,19,-43,-9,-43,-34,-53
14,-53,-68,19,41,-61,19,-43,-14,-43,-39,-58
14,-53,-68,19,41,-61,19,-43,-14,-43,-48,-63
14,-53,-68,19,41,-61,24,-39,-9,-39,-53,-68
14,-53,-68,19,41,-61,24,-39,0,-34,-43,-48
14,-48,-63,17,39,-56,24,-39,4,-29,-29,-43
14,-48,-63,17,39,-56,24,-43,4,-24,-19,-39
9,-48,-58,19,34,-53,24,-43,4,-19,-9,-34
9,-39,-48,14,29,-43,24,-43,-4,-29,-24,-43
9,-39,-48,14,29,-43,29,-43,-9,-39,-34,-48
9,-39,-48,14,29,-43,29,-43,-9,-39,-39,-48
9,-39,-48,14,29,-43,24,-43,-4,-39,-43,-48
9,-43,-53,17,31,-48,34,-43,-4,-48,-39,-58
9,-48,-58,19,34,-53,34,-43,-4,-43,-39,-53
9,-53,-63,21,36,-58,34,-48,-4,-39,-39,-53
4,-58,-63,26,34,-61,39,-48,-4,-39,-34,-53
0,-58,-58,29,29,-58,53,-34,14,-24,-14,-34
0,-63,-63,31,31,-63,58,-19,14,-14,-14,-34
4,-73,-78,34,41,-75,63,4,14,-4,-4,-34
4,-63,-68,29,36,-65,73,29,43,14,24,-14
9,-43,-53,17,31,-48,82,63,68,53,48,14
29,-43,-73,7,51,-58,92,107,112,112,97,43
58,-43,-102,-7,80,-73,92,161,131,156,141,78
102,-53,-156,-24,129,-104,92,239,131,190,185,112
180,-43,-224,-68,202,-134,68,312,141,234,239,170
297,-19,-317,-139,307,-168,29,409,156,292,326,263
405,-14,-419,-195,412,-217,-4,497,156,351,424,356
512,14,-497,-263,505,-241,-29,614,170,429,517,458
629,43,-585,-336,607,-270,-48,775,209,531,629,561
771,92,-678,-431,724,-292,-82,946,283,663,766,683
888,151,-736,-519,812,-292,-102,1137,400,839,936,814
971,219,-751,-595,861,-265,-112,1317,527,990,1078,927
1044,302,-741,-673,893,-219,-131,1415,605,1073,1151,985
1063,375,-688,-719,875,-156,-136,1415,629,1044,1093,936
1015,385,-629,-700,822,-122,-122,1327,595,917,902,746
912,385,-527,-649,719,-70,-112,1137,522,741,683,536
771,424,-346,-597,558,39,-112,844,448,590,531,424
536,453,-82,-495,309,185,-73,522,390,444,390,336
283,478,195,-380,43,336,-14,165,317,268,234,239
92,473,380,-283,-143,427,0,-136,219,117,122,165
-39,385,424,-173,-231,405,43,-283,92,-48,-9,58
-92,219,312,-63,-202,265,107,-302,-73,-234,-180,-97
-102,131,234,-14,-168,183,131,-307,-200,-346,-278,-180
-107,102,209,2,-158,156,131,-292,-214,-326,-239,-161
-126,68,195,29,-161,131,195,-229,-165,-278,-204,-151
-136,-4,131,70,-134,63,244,-175,-190,-307,-258,-200
-141,-78,63,109,-102,-7,195,-195,-297,-395,-346,-263
-151,-136,14,143,-82,-61,141,-204,-390,-473,-429,-326
-151,-185,-34,168,-58,-109,131,-195,-419,-502,-458,-366
-141,-190,-48,165,-46,-119,87,-234,-405,-488,-444,-356
-112,-161,-48,136,-31,-104,19,-287,-356,-424,-380,-307
-73,-131,-58,102,-7,-95,-14,-263,-297,-351,-312,-258
-58,-112,-53,85,-2,-82,-4,-219,-229,-268,-229,-200
-34,-78,-43,56,4,-61,-9,-190,-136,-165,-146,-131
-9,-43,-34,26,12,-39,-4,-146,-68,-82,-73,-73
4,-24,-29,9,17,-26,4,-92,-24,-53,-48,-48
9,-29,-39,9,24,-34,0,-73,-14,-58,-58,-58
9,-14,-24,2,17,-19,19,-68,-14,-43,-53,-43
9,-4,-14,-2,12,-9,24,-58,-9,-39,-39,-43
9,-14,-24,2,17,-19,24,-58,-9,-39,-29,-39
4,-14,-19,4,12,-17,24,-58,-4,-34,-24,-39
0,-24,-24,12,12,-24,29,-48,-14,-24,-24,-34
0,-24,-24,12,12,-24,29,-53,-9,-24,-24,-34
0,-24,-24,12,12,-24,29,-53,-4,-29,-29,-29
4,-24,-29,9,17,-26,29,-53,-4,-34,-29,-29
4,-34,-39,14,21,-36,29,-53,-4,-43,-39,-39
4,-39,-43,17,24,-41,29,-48,-9,-43,-43,-43
4,-39,-43,17,24,-41,29,-43,-9,-39,-43,-53
4,-43,-48,19,26,-46,34,-43,-9,-39,-34,-58
-4,-43,-39,24,17,-41,39,-34,-4,-29,-34,-53
-4,-39,-34,21,14,-36,39,-34,0,-29,-29,-48
-4,-39,-34,21,14,-36,39,-34,0,-29,-29,-48
-4,-39,-34,21,14,-36,39,-34,4,-24,-19,-43
-4,-29,-24,17,9,-26,29,-43,14,-14,-9,-34
-4,-29,-24,17,9,-26,29,-34,14,-9,-9,-29
-4,-29,-24,17,9,-26,29,-34,14,-4,-9,-24
-4,-29,-24,17,9,-26,29,-29,14,-4,-9,-24
4,-24,-29,9,17,-26,29,-29,9,-24,-24,-39
4,-24,-29,9,17,-26,29,-29,9,-24,-19,-39
4,-24,-29,9,17,-26,29,-29,9,-24,-24,-39
4,-24,-29,9,17,-26,29,-29,9,-24,-29,-39
-4,-34,-29,19,12,-31,39,-19,9,-19,-19,-43
0,-34,-34,17,17,-34,39,-19,9,-19,-19,-43
0,-34,-34,17,17,-34,39,-9,9,-14,-14,-43
0,-34,-34,17,17,-34,39,-9,14,-9,-14,-39
9,-43,-53,17,31,-48,34,-19,4,-4,-14,-39
14,-43,-58,14,36,-51,34,-19,9,-4,-14,-34
14,-43,-58,14,36,-51,29,-19,9,-9,-14,-34
14,-43,-58,14,36,-51,29,-19,4,-14,-19,-39
4,-39,-43,17,24,-41,39,-14,14,-4,-9,-29
4,-34,-39,14,21,-36,39,-14,19,0,-4,-29
4,-29,-34,12,19,-31,39,-14,24,4,-4,-29
4,-24,-29,9,17,-26,39,-14,24,4,0,-24
14,-14,-29,0,21,-21,39,-9,34,9,9,-14
14,-14,-29,0,21,-21,39,-9,34,9,9,-9
14,-14,-29,0,21,-21,39,-9,29,9,9,-9
14,-14,-29,0,21,-21,39,-9,29,9,9,-9
19,-24,-43,2,31,-34,29,-4,19,4,-4,-19
19,-24,-43,2,31,-34,29,-4,19,0,-9,-29
19,-19,-39,0,29,-29,29,-4,19,-4,-9,-39
19,-19,-39,0,29,-29,29,0,19,-9,-14,-53
19,-29,-48,4,34,-39,29,0,19,-4,-14,-48
19,-29,-48,4,34,-39,29,0,19,0,-9,-43
19,-29,-48,4,34,-39,29,0,19,9,0,-39
19,-29,-48,4,34,-39,29,4,19,19,4,-34
9,-19,-29,4,19,-24,39,4,24,14,4,-24
14,-19,-34,2,24,-26,39,4,24,14,14,-19
14,-19,-34,2,24,-26,39,4,24,14,14,-14
14,-14,-29,0,21,-21,39,4,24,14,14,-14
14,-24,-39,4,26,-31,29,4,24,0,9,-19
14,-24,-39,4,26,-31,29,4,24,0,4,-24
14,-24,-39,4,26,-31,29,14,29,4,0,-29
14,-24,-39,4,26,-31,29,14,29,4,-4,-34
24,-24,-48,0,36,-36,29,14,29,9,0,-29
24,-24,-48,0,36,-36,29,14,29,19,14,-24
24,-24,-48,0,36,-36,29,14,29,24,19,-14
24,-24,-48,0,36,-36,29,14,29,29,19,-9
14,-24,-39,4,26,-31,29,19,19,24,9,-19
14,-24,-39,4,26,-31,29,19,19,19,4,-24
14,-24,-39,4,26,-31,29,19,19,14,0,-29
14,-24,-39,4,26,-31,29,19,19,9,0,-34
14,-34,-48,9,31,-41,29,19,29,19,0,-34
19,-34,-53,7,36,-43,29,24,29,19,0,-29
19,-34,-53,7,36,-43,29,24,29,29,9,-24
19,-29,-48,4,34,-39,29,24,39,29,14,-24
29,-19,-48,-4,39,-34,29,24,48,43,29,-19
29,-19,-48,-4,39,-34,29,24,48,43,34,-9
29,-19,-48,-4,39,-34,29,24,48,48,39,-4
29,-19,-48,-4,39,-34,29,29,48,48,43,0
34,-19,-53,-7,43,-36,29,29,39,43,29,-4
34,-19,-53,-7,43,-36,29,34,43,39,29,-9
34,-24,-58,-4,46,-41,24,34,43,34,24,-14
34,-24,-58,-4,46,-41,24,39,48,29,14,-19
34,-34,-68,0,51,-51,29,39,39,29,14,-29
34,-34,-68,0,51,-51,29,39,39,34,19,-29
34,-34,-68,0,51,-51,24,43,39,34,29,-29
39,-34,-73,-2,56,-53,24,43,39,39,29,-24
39,-24,-63,-7,51,-43,19,34,48,48,34,-9
43,-24,-68,-9,56,-46,19,39,48,48,39,0
43,-14,-58,-14,51,-36,19,39,48,53,48,4
43,-14,-58,-14,51,-36,14,43,53,53,53,9
39,-14,-53,-12,46,-34,24,48,48,58,48,9
39,-14,-53,-12,46,-34,19,48,48,58,48,4
43,-14,-58,-14,51,-36,19,48,48,58,53,4
43,-14,-58,-14,51,-36,19,48,48,58,53,0
43,-24,-68,-9,56,-46,19,53,63,58,43,-4
48,-24,-73,-12,61,-48,19,53,63,58,43,-4
48,-24,-73,-12,61,-48,19,63,63,63,48,-4
48,-29,-78,-9,63,-53,19,68,63,68,53,-4
53,-29,-82,-12,68,-56,14,78,58,63,48,0
53,-24,-78,-14,65,-51,14,78,63,68,48,0
53,-24,-78,-14,65,-51,14,82,58,63,53,4
58,-24,-82,-17,70,-53,14,82,53,58,53,4
58,-9,-68,-24,63,-39,9,87,48,58,53,4
63,-9,-73,-26,68,-41,9,92,48,58,58,4
63,-9,-73,-26,68,-41,9,92,53,63,63,4
63,-9,-73,-26,68,-41,9,92,53,68,63,9
63,-9,-73,-26,68,-41,-4,92,63,78,68,14
68,-9,-78,-29,73,-43,-4,97,63,82,73,19
68,-9,-78,-29,73,-43,-4,97,68,82,78,24
68,-9,-78,-29,73,-43,-4,97,68,87,87,34
78,0,-78,-39,78,-39,-4,92,58,82,78,29
82,4,-78,-43,80,-36,-4,92,63,82,73,24
82,4,-78,-43,80,-36,-4,97,63,78,63,14
78,0,-78,-39,78,-39,-4,107,58,78,58,9
78,-4,-82,-36,80,-43,-9,117,58,92,63,0
82,-9,-92,-36,87,-51,-9,122,58,92,63,0
82,-14,-97,-34,90,-56,-9,122,58,87,68,-4
87,-19,-107,-34,97,-63,-9,122,58,87,73,-4
87,-9,-97,-39,92,-53,-9,117,58,78,63,-4
92,-4,-97,-43,95,-51,-9,122,63,82,68,0
92,-4,-97,-43,95,-51,-9,122,63,87,73,0
82,-9,-92,-36,87,-51,-9,122,63,87,73,0
92,-9,-102,-41,97,-56,-19,136,58,73,58,-4
97,-4,-102,-46,100,-53,-19,136,58,73,58,-4
97,-4,-102,-46,100,-53,-19,141,63,78,63,0
92,-4,-97,-43,95,-51,-19,146,63,78,63,0
92,4,-87,-48,90,-41,-19,136,73,82,78,4
92,4,-87,-48,90,-41,-19,136,73,87,82,4
97,4,-92,-51,95,-43,-19,131,73,92,82,9
97,4,-92,-51,95,-43,-19,131,73,97,82,9
97,4,-92,-51,95,-43,-19,136,58,92,78,0
97,4,-92,-51,95,-43,-29,136,53,87,73,-4
97,4,-92,-51,95,-43,-29,136,43,78,63,-4
97,4,-92,-51,95,-43,-29,136,39,63,58,-9
87,0,-87,-43,87,-43,-24,136,39,63,43,-24
87,-4,-92,-41,90,-48,-24,136,34,63,43,-24
87,-9,-97,-39,92,-53,-24,131,34,63,43,-24
87,-19,-107,-34,97,-63,-24,131,34,58,43,-24
87,-9,-97,-39,92,-53,-24,122,43,68,43,-9
87,-9,-97,-39,92,-53,-34,117,34,68,48,-9
87,-9,-97,-39,92,-53,-34,117,34,68,53,-9
87,-4,-92,-41,90,-48,-29,117,34,63,58,-9
87,9,-78,-48,82,-34,-39,107,39,73,68,0
87,9,-78,-48,82,-34,-48,102,39,73,63,4
87,9,-78,-48,82,-34,-48,97,39,73,63,4
87,9,-78,-48,82,-34,-43,92,29,68,63,0
87,9,-78,-48,82,-34,-34,87,29,58,48,-9
87,9,-78,-48,82,-34,-34,78,29,53,39,-9
87,19,-68,-53,78,-24,-34,73,34,48,34,-9
82,19,-63,-51,73,-21,-34,68,34,48,39,0
82,29,-53,-56,68,-12,-34,63,43,53,43,9
82,29,-53,-56,68,-12,-34,53,43,58,53,9
82,29,-53,-56,68,-12,-29,53,43,63,58,14
78,29,-48,-53,63,-9,-29,48,43,58,63,14
78,24,-53,-51,65,-14,-29,53,29,53,48,4
78,19,-58,-48,68,-19,-29,48,29,53,43,0
78,9,-68,-43,73,-29,-29,43,29,48,43,0
78,4,-73,-41,75,-34,-24,39,29,48,43,0
78,-4,-82,-36,80,-43,-14,29,39,39,39,-9
73,-4,-78,-34,75,-41,-14,29,39,39,39,-9
68,-4,-73,-31,70,-39,-9,24,39,39,39,-4
68,-4,-73,-31,70,-39,-9,19,34,34,43,-4
78,4,-73,-41,75,-34,-14,24,43,43,53,4
78,4,-73,-41,75,-34,-14,19,43,39,53,4
78,4,-73,-41,75,-34,-9,14,43,34,48,4
78,4,-73,-41,75,-34,-9,14,43,34,43,0
73,-4,-78,-34,75,-41,-9,9,29,29,29,-9
73,-9,-82,-31,78,-46,-4,9,24,24,24,-14
73,-9,-82,-31,78,-46,0,4,24,19,19,-19
73,-14,-87,-29,80,-51,4,4,24,19,14,-24
68,-29,-97,-19,82,-63,4,4,14,9,9,-34
68,-29,-97,-19,82,-63,4,0,9,4,0,-39
68,-34,-102,-17,85,-68,4,-4,9,-4,-4,-43
68,-34,-102,-17,85,-68,4,-4,9,-9,-9,-48
68,-29,-97,-19,82,-63,0,-4,14,-4,0,-43
73,-24,-97,-24,85,-61,0,-4,19,0,4,-39
73,-19,-92,-26,82,-56,0,-4,19,4,4,-34
73,-14,-87,-29,80,-51,-4,-4,24,4,-4,-29
73,-14,-87,-29,80,-51,-4,4,24,4,0,-29
73,-14,-87,-29,80,-51,-4,0,24,4,4,-29
68,-14,-82,-26,75,-48,-4,0,24,4,9,-29
63,-14,-78,-24,70,-46,-4,0,24,4,14,-29
63,-14,-78,-24,70,-46,4,-9,19,4,9,-19
63,-14,-78,-24,70,-46,4,-9,19,0,9,-29
63,-14,-78,-24,70,-46,4,-14,24,0,9,-29
63,-14,-78,-24,70,-46,4,-14,24,4,14,-24
53,-24,-78,-14,65,-51,4,-9,24,4,4,-24
53,-29,-82,-12,68,-56,4,-9,24,4,4,-19
53,-29,-82,-12,68,-56,4,-9,14,4,4,-19
48,-34,-82,-7,65,-58,4,-9,14,-4,-4,-24
48,-34,-82,-7,65,-58,4,-9,9,-14,-9,-43
48,-34,-82,-7,65,-58,4,-9,9,-14,-19,-48
53,-34,-87,-9,70,-61,4,-4,9,-14,-24,-53
53,-34,-87,-9,70,-61,4,-4,9,-14,-29,-58
53,-34,-87,-9,70,-61,4,0,9,-4,-14,-53
53,-34,-87,-9,70,-61,4,0,9,-4,-14,-53
53,-34,-87,-9,70,-61,9,0,9,-4,-14,-63
53,-34,-87,-9,70,-61,9,0,9,-4,-14,-63
53,-29,-82,-12,68,-56,9,0,19,4,0,-58
48,-29,-78,-9,63,-53,9,0,24,9,0,-48
48,-29,-78,-9,63,-53,9,0,24,9,0,-43
48,-29,-78,-9,63,-53,9,0,24,9,4,-39
48,-24,-73,-12,61,-48,9,-9,29,0,14,-24
48,-24,-73,-12,61,-48,9,-9,29,0,9,-24
53,-19,-73,-17,63,-46,9,-9,29,0,9,-29
53,-9,-63,-21,58,-36,9,-9,29,0,4,-34
48,-19,-68,-14,58,-43,9,-4,24,-14,-9,-39
48,-19,-68,-14,58,-43,9,-4,19,-14,-14,-43
48,-19,-68,-14,58,-43,9,-4,14,-14,-19,-48
48,-14,-63,-17,56,-39,9,-4,9,-14,-24,-53
34,-24,-58,-4,46,-41,14,-4,19,-9,-9,-43
34,-24,-58,-4,46,-41,14,-9,24,-4,-4,-39
39,-24,-63,-7,51,-43,9,-9,29,0,0,-34
39,-24,-63,-7,51,-43,9,-9,29,4,0,-29
39,-24,-63,-7,51,-43,19,-9,19,4,0,-29
39,-24,-63,-7,51,-43,19,-9,19,4,4,-29
39,-24,-63,-7,51,-43,19,-9,19,9,4,-29
39,-24,-63,-7,51,-43,19,-9,14,9,0,-29
48,-29,-78,-9,63,-53,9,0,14,0,-9,-43
48,-29,-78,-9,63,-53,9,0,14,-4,-9,-43
48,-29,-78,-9,63,-53,9,0,14,-19,-14,-43
48,-29,-78,-9,63,-53,9,0,9,-24,-14,-53
48,-34,-82,-7,65,-58,9,0,9,-9,-24,-53
48,-34,-82,-7,65,-58,14,0,14,-9,-24,-48
48,-34,-82,-7,65,-58,14,-4,14,-4,-19,-48
48,-34,-82,-7,65,-58,14,-4,14,-4,-19,-48
39,-29,-68,-4,53,-48,19,-4,14,4,-14,-34
39,-29,-68,-4,53,-48,19,-4,14,4,-4,-34
34,-29,-63,-2,48,-46,19,-4,14,4,0,-34
34,-24,-58,-4,46,-41,19,-4,14,4,4,-34
34,-24,-58,-4,46,-41,9,-4,14,-9,-4,-34
34,-24,-58,-4,46,-41,9,-4,9,-9,-9,-39
34,-24,-58,-4,46,-41,9,-4,9,-9,-9,-39
34,-24,-58,-4,46,-41,9,-4,9,-9,-9,-39
43,-14,-58,-14,51,-36,9,-14,24,-4,-4,-29
43,-14,-58,-14,51,-36,9,-14,24,0,0,-24
43,-14,-58,-14,51,-36,9,-14,19,4,0,-24
43,-14,-58,-14,51,-36,9,-14,19,9,4,-24
43,-24,-68,-9,56,-46,9,-4,9,4,0,-29
43,-24,-68,-9,56,-46,9,-4,9,0,-4,-29
43,-24,-68,-9,56,-46,9,-4,9,-4,-9,-29
43,-24,-68,-9,56,-46,9,-4,9,-9,-14,-29
43,-29,-73,-7,58,-51,9,-9,9,-9,-4,-39
43,-34,-78,-4,61,-56,9,-9,14,-9,-4,-39
43,-39,-82,-2,63,-61,9,-9,14,-9,-4,-39
43,-43,-87,0,65,-65,9,-9,14,-9,-4,-39
43,-39,-82,-2,63,-61,9,-9,14,-9,-14,-39
43,-34,-78,-4,61,-56,9,-14,14,-14,-14,-39
43,-29,-73,-7,58,-51,9,-14,14,-14,-14,-39
43,-24,-68,-9,56,-46,9,-9,14,-14,-14,-39
43,-24,-68,-9,56,-46,9,-9,9,-4,-4,-29
43,-24,-68,-9,56,-46,9,-14,9,-4,-9,-34
43,-24,-68,-9,56,-46,9,-19,14,-4,-9,-34
43,-24,-68,-9,56,-46,9,-19,14,-4,-14,-39
34,-24,-58,-4,46,-41,9,-19,9,-14,-14,-39
34,-24,-58,-4,46,-41,9,-19,9,-24,-14,-39
34,-24,-58,-4,46,-41,9,-19,9,-24,-9,-39
34,-24,-58,-4,46,-41,9,-19,9,-19,-9,-29
43,-24,-68,-9,56,-46,0,-19,9,-19,-9,-29
43,-24,-68,-9,56,-46,0,-24,9,-19,-9,-29
43,-24,-68,-9,56,-46,0,-24,9,-19,-9,-29
43,-24,-68,-9,56,-46,0,-24,9,-19,-9,-34
34,-34,-68,0,51,-51,9,-24,9,-9,-9,-34
34,-29,-63,-2,48,-46,4,-24,9,-9,-9,-34
34,-29,-63,-2,48,-46,4,-24,9,-9,-9,-34
34,-29,-63,-2,48,-46,9,-19,4,-9,-19,-39
34,-29,-63,-2,48,-46,9,-29,14,-9,-9,-34
34,-29,-63,-2,48,-46,9,-34,14,-14,-9,-29
34,-34,-68,0,51,-51,9,-34,14,-14,-9,-29
39,-34,-73,-2,56,-53,9,-39,14,-14,-14,-29
39,-39,-78,0,58,-58,9,-34,4,-19,-19,-34
39,-39,-78,0,58,-58,9,-29,4,-19,-24,-39
39,-39,-78,0,58,-58,9,-24,0,-14,-24,-43
34,-39,-73,2,53,-56,9,-19,0,-14,-29,-43
34,-43,-78,4,56,-61,9,-24,4,-24,-24,-48
34,-48,-82,7,58,-65,9,-24,4,-24,-24,-48
34,-48,-82,7,58,-65,9,-24,4,-24,-24,-48
34,-53,-87,9,61,-70,9,-24,4,-24,-24,-53
34,-43,-78,4,56,-61,9,-19,4,-19,-19,-48
34,-43,-78,4,56,-61,9,-24,4,-14,-19,-43
39,-43,-82,2,61,-63,9,-24,4,-14,-19,-39
39,-43,-82,2,61,-63,9,-19,4,-14,-19,-34
29,-43,-73,7,51,-58,9,-19,9,-19,-29,-43
29,-43,-73,7,51,-58,9,-19,9,-19,-29,-43
29,-43,-73,7,51,-58,9,-19,9,-19,-29,-43
29,-39,-68,4,48,-53,9,-19,14,-24,-29,-43
24,-43,-68,9,46,-56,9,-29,4,-14,-19,-53
24,-53,-78,14,51,-65,9,-29,0,-14,-19,-53
24,-58,-82,17,53,-70,9,-29,0,-14,-19,-53
24,-63,-87,19,56,-75,9,-29,4,-14,-19,-48
24,-53,-78,14,51,-65,9,-29,9,-14,-29,-39
29,-48,-78,9,53,-63,9,-29,9,-14,-29,-34
29,-48,-78,9,53,-63,9,-29,9,-14,-19,-34
24,-48,-73,12,48,-61,9,-29,9,-14,-19,-34
34,-58,-92,12,63,-75,19,-19,0,-19,-29,-43
34,-58,-92,12,63,-75,14,-19,0,-19,-29,-43
39,-58,-97,9,68,-78,14,-19,-4,-19,-34,-43
39,-58,-97,9,68,-78,14,-19,-4,-19,-34,-43
29,-58,-87,14,58,-73,9,-19,-4,-29,-29,-53
34,-58,-92,12,63,-75,9,-19,-4,-29,-29,-48
34,-58,-92,12,63,-75,9,-19,-4,-29,-29,-48
34,-58,-92,12,63,-75,9,-19,-4,-29,-29,-48
34,-58,-92,12,63,-75,9,-29,4,-14,-19,-39
34,-63,-97,14,65,-80,9,-29,4,-14,-19,-39
34,-63,-97,14,65,-80,9,-29,4,-14,-19,-39
34,-63,-97,14,65,-80,9,-29,4,-19,-19,-39
43,-58,-102,7,73,-80,9,-29,0,-9,-9,-29
43,-53,-97,4,70,-75,9,-29,0,-9,-14,-29
43,-48,-92,2,68,-70,9,-29,0,-14,-19,-34
39,-53,-92,7,65,-73,9,-29,0,-14,-19,-34
39,-48,-87,4,63,-68,9,-29,0,-24,-29,-43
39,-48,-87,4,63,-68,9,-29,0,-24,-29,-43
34,-48,-82,7,58,-65,9,-29,-4,-24,-29,-43
34,-43,-78,4,56,-61,9,-29,-4,-24,-34,-43
39,-53,-92,7,65,-73,9,-24,-4,-29,-34,-43
39,-53,-92,7,65,-73,9,-24,0,-29,-34,-39
39,-53,-92,7,65,-73,9,-24,0,-29,-29,-39
34,-53,-87,9,61,-70,9,-24,-4,-29,-29,-48
34,-53,-87,9,61,-70,9,-24,4,-19,-19,-43
34,-53,-87,9,61,-70,9,-29,4,-19,-19,-39
34,-53,-87,9,61,-70,9,-34,4,-19,-19,-34
34,-53,-87,9,61,-70,9,-34,4,-19,-19,-29
34,-43,-78,4,56,-61,9,-34,4,-14,-9,-19
34,-48,-82,7,58,-65,9,-34,4,-14,-9,-19
34,-48,-82,7,58,-65,9,-34,4,-14,-9,-19
34,-48,-82,7,58,-65,9,-34,4,-14,-9,-19
34,-48,-82,7,58,-65,9,-24,4,-14,-9,-29
34,-48,-82,7,58,-65,9,-24,4,-14,-14,-29
34,-48,-82,7,58,-65,9,-24,4,-14,-19,-29
34,-48,-82,7,58,-65,9,-24,4,-14,-24,-29
34,-53,-87,9,61,-70,9,-29,4,-24,-24,-39
34,-53,-87,9,61,-70,9,-29,4,-24,-24,-39
34,-53,-87,9,61,-70,9,-24,4,-24,-29,-39
34,-53,-87,9,61,-70,9,-24,4,-24,-29,-39
24,-58,-82,17,53,-70,9,-34,4,-24,-19,-34
24,-58,-82,17,53,-70,9,-34,4,-19,-19,-29
34,-63,-97,14,65,-80,9,-34,4,-14,-19,-24
34,-63,-97,14,65,-80,9,-34,4,-9,-19,-24
34,-53,-87,9,61,-70,19,-24,9,-19,-19,-24
29,-58,-87,14,58,-73,9,-29,0,-14,-24,-34
29,-48,-78,9,53,-63,9,-29,0,-19,-19,-29
39,-48,-87,4,63,-68,9,-29,9,-9,-19,-29
39,-48,-87,4,63,-68,9,-29,9,-9,-19,-29
39,-48,-87,4,63,-68,9,-29,9,-9,-19,-29
39,-48,-87,4,63,-68,9,-29,9,-9,-19,-29
39,-48,-87,4,63,-68,9,-29,0,-19,-29,-29
39,-48,-87,4,63,-68,9,-29,0,-19,-29,-29
39,-48,-87,4,63,-68,9,-29,0,-19,-29,-29
39,-48,-87,4,63,-68,9,-29,0,-19,-29,-29
39,-48,-87,4,63,-68,9,-29,9,-19,-19,-39
39,-48,-87,4,63,-68,9,-29,9,-19,-19,-39
39,-48,-87,4,63,-68,9,-29,9,-19,-19,-39
39,-48,-87,4,63,-68,9,-29,9,-19,-19,-39
29,-58,-87,14,58,-73,9,-29,9,-19,-29,-39
29,-58,-87,14,58,-73,9,-29,9,-19,-29,-39
29,-58,-87,14,58,-73,9,-29,9,-19,-29,-39
29,-58,-87,14,58,-73,9,-29,9,-19,-29,-39
29,-58,-87,14,58,-73,9,-29,9,-19,-29,-29
29,-58,-87,14,58,-73,9,-29,9,-19,-29,-29
29,-58,-87,14,58,-73,9,-29,9,-19,-29,-29
29,-58,-87,14,58,-73,9,-29,9,-19,-29,-29
29,-48,-78,9,53,-63,9,-19,9,-9,-19,-29
29,-48,-78,9,53,-63,9,-19,9,-9,-19,-29
29,-48,-78,9,53,-63,9,-19,9,-9,-19,-29
29,-48,-78,9,53,-63,9,-19,9,-9,-19,-29
29,-58,-87,14,58,-73,9,-29,9,-9,-9,-29
29,-58,-87,14,58,-73,9,-29,9,-9,-9,-29
29,-58,-87,14,58,-73,9,-29,9,-9,-9,-29
29,-58,-87,14,58,-73,9,-29,9,-9,-9,-29
29,-58,-87,14,58,-73,9,-19,9,-19,-14,-39
29,-58,-87,14,58,-73,9,-19,9,-19,-19,-39
29,-58,-87,14,58,-73,9,-19,9,-19,-24,-39
29,-58,-87,14,58,-73,9,-19,9,-19,-29,-39
19,-58,-78,19,48,-68,19,-19,9,-19,-29,-39
19,-58,-78,19,48,-68,19,-19,9,-19,-29,-39
19,-58,-78,19,48,-68,19,-19,9,-19,-29,-39
19,-58,-78,19,48,-68,19,-19,9,-19,-29,-39
19,-58,-78,19,48,-68,19,-19,9,-19,-19,-29
19,-58,-78,19,48,-68,19,-19,9,-19,-19,-29
19,-58,-78,19,48,-68,19,-19,9,-19,-19,-29
19,-58,-78,19,48,-68,19,-19,9,-19,-19,-29
19,-58,-78,19,48,-68,19,-29,19,-9,-14,-19
19,-58,-78,19,48,-68,19,-29,19,-9,-9,-19
19,-58,-78,19,48,-68,19,-29,19,-9,-4,-19
19,-58,-78,19,48,-68,19,-29,19,-9,0,-19
19,-48,-68,14,43,-58,19,-29,9,-9,-9,-19
19,-48,-68,14,43,-58,19,-29,9,-9,-9,-19
19,-48,-68,14,43,-58,19,-29,9,-9,-9,-19
19,-48,-68,14,43,-58,19,-29,9,-9,-9,-19
19,-48,-68,14,43,-58,19,-29,9,-19,-19,-29
19,-48,-68,14,43,-58,19,-29,9,-19,-19,-29
19,-48,-68,14,43,-58,19,-29,9,-19,-19,-29
19,-48,-68,14,43,-58,19,-29,9,-19,-19,-29
19,-58,-78,19,48,-68,19,-29,9,-19,-19,-29
19,-58,-78,19,48,-68,19,-29,9,-19,-19,-29
19,-58,-78,19,48,-68,19,-29,9,-19,-19,-29
19,-58,-78,19,48,-68,19,-29,9,-19,-19,-29
19,-58,-78,19,48,-68,19,-29,9,-19,-19,-29
19,-58,-78,19,48,-68,19,-29,9,-19,-19,-29
19,-58,-78,19,48,-68,19,-29,9,-19,-19,-29
19,-58,-78,19,48,-68,19,-29,9,-19,-19,-29
19,-58,-78,19,48,-68,19,-19,9,-19,-19,-29
19,-58,-78,19,48,-68,19,-19,9,-19,-19,-29
19,-58,-78,19,48,-68,19,-19,9,-19,-19,-29
19,-58,-78,19,48,-68,19,-19,9,-19,-19,-29
19,-58,-78,19,48,-68,19,-19,9,-19,-19,-29
19,-58,-78,19,48,-68,19,-19,9,-19,-19,-29
19,-58,-78,19,48,-68,19,-19,9,-19,-19,-29
19,-58,-78,19,48,-68,19,-19,9,-19,-19,-29
19,-48,-68,14,43,-58,19,-29,19,-19,-19,-19
19,-48,-68,14,43,-58,19,-29,19,-19,-19,-19
19,-48,-68,14,43,-58,19,-29,19,-19,-19,-19
19,-48,-68,14,43,-58,19,-29,19,-19,-19,-19
9,-53,-63,21,36,-58,19,-24,19,-9,-24,-29
14,-53,-68,19,41,-61,24,-24,19,-14,-24,-29
14,-53,-68,19,41,-61,24,-24,14,-14,-24,-29
14,-53,-68,19,41,-61,24,-19,14,-14,-29,-34
24,-53,-78,14,51,-65,14,-29,4,-24,-24,-24
19,-53,-73,17,46,-63,14,-29,4,-24,-29,-29
19,-53,-73,17,46,-63,14,-29,9,-24,-29,-29
19,-48,-68,14,43,-58,14,-29,9,-19,-19,-29
24,-39,-63,7,43,-51,14,-19,19,-9,-9,-19
24,-39,-63,7,43,-51,14,-19,24,-9,-9,-19
24,-39,-63,7,43,-51,14,-19,24,-9,-9,-14
24,-39,-63,7,43,-51,14,-19,24,-9,-9,-14
34,-29,-63,-2,48,-46,9,-29,19,-4,-9,-14
39,-24,-63,-7,51,-43,9,-29,24,0,-9,-9
39,-24,-63,-7,51,-43,14,-29,24,4,-4,-9
43,-24,-68,-9,56,-46,14,-29,24,9,0,-4
43,-14,-58,-14,51,-36,4,-24,34,14,-9,-14
43,-9,-53,-17,48,-31,4,-19,43,14,-4,-9
48,-4,-53,-21,51,-29,9,-19,48,9,0,-4
53,0,-53,-26,53,-26,14,-9,48,9,4,-4
63,-9,-73,-26,68,-41,14,-14,48,9,9,0
63,-9,-73,-26,68,-41,14,-14,48,9,4,0
63,-9,-73,-26,68,-41,14,-14,53,9,4,-4
73,0,-73,-36,73,-36,14,-4,58,14,0,-9
73,0,-73,-36,73,-36,9,-4,58,19,14,0
78,0,-78,-39,78,-39,9,-4,58,24,24,4
78,0,-78,-39,78,-39,9,-4,58,29,29,9
87,4,-82,-46,85,-39,9,-4,68,43,43,14
78,9,-68,-43,73,-29,14,-4,73,39,34,19
82,9,-73,-46,78,-31,14,4,78,43,39,24
87,4,-82,-46,85,-39,14,9,78,43,39,24
87,4,-82,-46,85,-39,14,9,73,43,43,29
92,4,-87,-48,90,-41,0,9,63,39,34,19
97,9,-87,-53,92,-39,-4,9,63,39,43,24
97,14,-82,-56,90,-34,-9,14,63,43,48,29
97,14,-82,-56,90,-34,-14,14,63,48,48,29
117,24,-92,-70,104,-34,-19,24,68,63,63,39
122,19,-102,-70,112,-41,-24,24,68,63,63,39
122,19,-102,-70,112,-41,-24,24,68,63,58,34
122,19,-102,-70,112,-41,-24,19,63,53,53,34
117,24,-92,-70,104,-34,-19,24,63,63,53,39
117,14,-102,-65,109,-43,-19,19,53,53,43,29
112,4,-107,-58,109,-51,-19,14,39,43,34,29
112,0,-112,-56,112,-56,-19,14,29,34,29,19
112,-4,-117,-53,114,-61,-19,-4,24,14,24,14
107,-14,-122,-46,114,-68,-19,-4,14,9,9,4
102,-14,-117,-43,109,-65,-19,-14,14,4,4,4
97,-14,-112,-41,104,-63,-19,-19,14,0,0,0
82,-14,-97,-34,90,-56,-19,-24,14,4,0,-4
78,-19,-97,-29,87,-58,-19,-24,4,0,-4,-9
78,-24,-102,-26,90,-63,-19,-34,0,-9,-9,-14
78,-24,-102,-26,90,-63,-14,-34,-4,-9,-14,-19
68,-29,-97,-19,82,-63,-14,-24,-4,-14,-19,-24
68,-34,-102,-17,85,-68,-14,-24,0,-14,-19,-24
63,-34,-97,-14,80,-65,-14,-24,0,-14,-19,-19
63,-29,-92,-17,78,-61,-9,-24,0,-14,-19,-19
58,-39,-97,-9,78,-68,4,-24,4,-19,-24,-29
53,-43,-97,-4,75,-70,4,-24,4,-19,-24,-34
39,-43,-82,2,61,-63,4,-29,4,-19,-29,-39
39,-43,-82,2,61,-63,0,-34,0,-24,-39,-43
34,-48,-82,7,58,-65,0,-48,-9,-43,-43,-48
29,-48,-78,9,53,-63,0,-48,-14,-48,-43,-48
24,-53,-78,14,51,-65,0,-53,-19,-53,-43,-48
19,-53,-73,17,46,-63,0,-58,-19,-53,-48,-48
19,-53,-73,17,46,-63,9,-58,-9,-43,-48,-39
19,-58,-78,19,48,-68,9,-58,-14,-43,-48,-48
19,-58,-78,19,48,-68,9,-58,-14,-43,-53,-48
19,-53,-73,17,46,-63,9,-53,-14,-43,-53,-48
9,-53,-63,21,36,-58,9,-43,-9,-43,-43,-48
14,-53,-68,19,41,-61,9,-43,-9,-43,-43,-48
14,-53,-68,19,41,-61,9,-43,-9,-43,-39,-48
14,-53,-68,19,41,-61,9,-43,-14,-43,-39,-48
14,-43,-58,14,36,-51,9,-53,-14,-43,-43,-39
14,-43,-58,14,36,-51,14,-48,-9,-39,-43,-39
14,-43,-58,14,36,-51,14,-48,-9,-39,-43,-34
14,-39,-53,12,34,-46,14,-48,-4,-39,-39,-34
4,-39,-43,17,24,-41,4,-53,-4,-39,-39,-34
0,-39,-39,19,19,-39,4,-53,-4,-39,-39,-34
0,-39,-39,19,19,-39,4,-53,-4,-39,-39,-34
0,-39,-39,19,19,-39,9,-53,-9,-48,-43,-39
-9,-48,-39,29,14,-43,19,-53,-9,-48,-43,-39
-9,-48,-39,29,14,-43,14,-53,-4,-48,-43,-39
-9,-48,-39,29,14,-43,14,-53,-4,-48,-48,-39
-9,-48,-39,29,14,-43,14,-53,-4,-43,-48,-34
-9,-48,-39,29,14,-43,24,-48,-4,-39,-39,-43
-14,-48,-34,31,9,-41,19,-48,4,-29,-34,-43
-19,-39,-19,29,0,-29,34,-34,14,-24,-24,-34
-29,-53,-24,41,-2,-39,39,-29,14,-24,-24,-34
-24,-63,-39,43,7,-51,53,-4,14,-14,-14,-24
-4,-63,-58,34,26,-61,63,29,24,4,4,-14
-19,-53,-34,36,7,-43,73,53,48,43,39,14
-9,-43,-34,26,12,-39,82,78,92,82,78,43
9,-34,-43,12,26,-39,92,122,122,126,122,78
43,-43,-87,0,65,-65,92,180,131,161,156,102
102,-43,-146,-29,124,-95,87,263,151,204,219,161
190,-29,-219,-80,204,-124,58,351,156,273,297,244
297,-24,-322,-136,309,-173,14,439,146,331,395,336
414,-4,-419,-204,417,-212,-19,556,170,419,497,439
522,24,-497,-273,509,-236,-39,697,219,522,619,551
644,73,-570,-358,607,-248,-63,858,292,653,766,683
761,131,-629,-446,695,-248,-92,1049,400,829,936,834
873,200,-673,-536,773,-236,-102,1239,527,1000,1098,946
946,292,-653,-619,800,-180,-112,1385,634,1132,1220,1044
985,395,-590,-690,788,-97,-126,1424,697,1180,1239,1073
956,424,-531,-690,744,-53,-131,1366,692,1083,1107,941
883,414,-468,-649,675,-26,-112,1215,610,888,849,702
771,414,-356,-592,563,29,-122,951,507,678,619,512
585,424,-161,-505,373,131,-102,639,429,512,458,395
361,439,78,-400,141,258,-43,302,336,317,292,258
131,444,312,-287,-90,378,-29,-39,209,117,122,136
-39,405,444,-183,-241,424,4,-253,82,-48,-9,48
-131,258,390,-63,-261,324,87,-302,-63,-224,-170,-87
-161,122,283,19,-222,202,131,-297,-209,-375,-317,-219
-156,82,239,36,-197,161,122,-292,-273,-395,-326,-229
-165,68,234,48,-200,151,165,-248,-224,-336,-273,-190
-175,-4,170,90,-173,82,224,-185,-209,-336,-287,-219
-161,-78,82,119,-122,2,195,-175,-297,-395,-346,-273
-170,-126,43,148,-107,-41,131,-195,-400,-483,-409,-317
-180,-175,4,178,-92,-85,122,-185,-439,-512,-448,-346
-180,-180,0,180,-90,-90,97,-204,-414,-478,-424,-346
-161,-161,0,161,-80,-80,29,-268,-375,-424,-380,-297
-151,-151,0,151,-75,-75,-14,-263,-317,-361,-312,-248
-126,-122,4,124,-65,-58,4,-219,-248,-287,-248,-200
-102,-97,4,100,-53,-46,0,-190,-175,-214,-185,-141
-68,-63,4,65,-36,-29,-4,-146,-97,-122,-102,-82
-43,-34,9,39,-26,-12,4,-92,-24,-53,-39,-39
-48,-29,19,39,-34,-4,0,-73,-14,-29,-19,-39
-58,-14,43,36,-51,14,19,-58,-24,-39,-24,-34
-58,-4,53,31,-56,24,24,-48,-19,-39,-19,-34
-58,-14,43,36,-51,14,24,-48,-19,-43,-19,-29
-63,-14,48,39,-56,17,24,-48,-14,-43,-24,-29
-68,-34,34,51,-51,0,29,-39,-14,-34,-24,-43
-68,-34,34,51,-51,0,29,-43,-9,-34,-24,-43
-68,-34,34,51,-51,0,29,-43,-4,-39,-29,-39
-63,-34,29,48,-46,-2,29,-43,-4,-43,-29,-39
-63,-24,39,43,-51,7,29,-43,4,-39,-19,-34
-63,-29,34,46,-48,2,29,-39,0,-34,-24,-34
-63,-29,34,46,-48,2,29,-34,0,-24,-24,-39
-63,-34,29,48,-46,-2,34,-34,0,-19,-14,-39
-63,-43,19,53,-41,-12,39,-34,4,-19,-14,-24
-63,-39,24,51,-43,-7,39,-34,9,-19,-9,-19
-63,-39,24,51,-43,-7,39,-34,9,-19,-9,-19
-63,-39,24,51,-43,-7,39,-34,14,-14,0,-14
-63,-39,24,51,-43,-7,29,-34,14,-24,-9,-24
-63,-39,24,51,-43,-7,29,-24,14,-19,-9,-19
-63,-39,24,51,-43,-7,29,-24,14,-14,-9,-14
-63,-39,24,51,-43,-7,29,-19,14,-14,-9,-14
-63,-34,29,48,-46,-2,39,-19,9,-14,-9,-19
-63,-34,29,48,-46,-2,39,-19,9,-14,0,-19
-63,-34,29,48,-46,-2,39,-19,9,-14,0,-19
-63,-34,29,48,-46,-2,39,-19,9,-14,0,-19
-63,-34,29,48,-46,-2,39,-19,9,-9,-9,-14
-58,-34,24,46,-41,-4,39,-19,9,-9,-9,-14
-58,-34,24,46,-41,-4,39,-9,9,-4,-4,-14
-58,-34,24,46,-41,-4,39,-9,14,0,-4,-9
-58,-34,24,46,-41,-4,43,-9,14,4,4,-19
-53,-34,19,43,-36,-7,43,-9,19,4,4,-14
-53,-34,19,43,-36,-7,39,-9,19,0,4,-14
-53,-34,19,43,-36,-7,39,-9,14,-4,0,-19
-63,-24,39,43,-51,7,39,-4,14,-4,0,-9
-63,-24,39,43,-51,7,39,-4,19,0,4,-9
-63,-24,39,43,-51,7,39,-4,24,4,4,-9
-63,-24,39,43,-51,7,39,-4,24,4,9,-4
-63,-34,29,48,-46,-2,29,-9,24,0,9,-14
-63,-34,29,48,-46,-2,29,-9,24,0,9,-9
-63,-34,29,48,-46,-2,29,-9,19,0,9,-9
-63,-34,29,48,-46,-2,29,-9,19,0,9,-9
-58,-34,24,46,-41,-4,39,4,19,9,9,0
-58,-34,24,46,-41,-4,39,4,19,9,9,0
-58,-29,29,43,-43,0,39,4,19,9,14,0
-58,-29,29,43,-43,0,39,9,19,9,14,-4
-58,-29,29,43,-43,0,39,9,29,0,19,-4
-58,-29,29,43,-43,0,39,9,29,0,19,-4
-58,-29,29,43,-43,0,39,9,29,4,24,-4
-58,-29,29,43,-43,0,39,14,29,9,24,-4
-48,-29,19,39,-34,-4,39,14,34,14,14,-4
-43,-29,14,36,-29,-7,39,14,34,14,24,0
-43,-29,14,36,-29,-7,39,14,34,14,24,4
-43,-24,19,34,-31,-2,39,14,34,14,24,4
-43,-24,19,34,-31,-2,29,14,24,19,24,4
-43,-24,19,34,-31,-2,29,14,24,19,24,4
-43,-24,19,34,-31,-2,29,24,29,24,24,4
-43,-24,19,34,-31,-2,29,24,29,24,24,4
-43,-34,9,39,-26,-12,29,24,29,24,24,-4
-43,-34,9,39,-26,-12,29,24,29,29,34,-4
-43,-34,9,39,-26,-12,29,24,29,29,34,0
-43,-34,9,39,-26,-12,29,24,29,29,29,0
-43,-34,9,39,-26,-12,29,19,29,29,34,4
-43,-34,9,39,-26,-12,29,19,29,29,34,4
-43,-34,9,39,-26,-12,29,19,29,29,34,4
-43,-34,9,39,-26,-12,29,19,29,29,39,4
-43,-34,9,39,-26,-12,29,19,29,19,34,-4
-39,-34,4,36,-21,-14,29,24,29,19,29,0
-39,-34,4,36,-21,-14,29,24,29,29,34,4
-39,-29,9,34,-24,-9,29,24,39,29,34,4
-39,-19,19,29,-29,0,29,34,39,24,34,-4
-39,-19,19,29,-29,0,29,34,39,24,34,0
-39,-19,19,29,-29,0,29,34,39,29,34,0
-39,-19,19,29,-29,0,29,39,39,29,34,0
-43,-29,14,36,-29,-7,29,29,39,34,43,9
-43,-29,14,36,-29,-7,29,34,43,39,48,9
-43,-34,9,39,-26,-12,24,34,43,43,48,9
-43,-34,9,39,-26,-12,24,39,48,48,43,9
-34,-24,9,29,-21,-7,29,39,48,39,43,19
-34,-24,9,29,-21,-7,29,39,48,43,48,19
-34,-24,9,29,-21,-7,24,43,48,43,58,19
-29,-24,4,26,-17,-9,24,43,48,48,58,24
-39,-24,14,31,-26,-4,19,43,48,58,48,14
-34,-24,9,29,-21,-7,19,48,48,58,48,19
-34,-14,19,24,-26,2,19,48,48,63,53,19
-34,-14,19,24,-26,2,14,53,53,63,53,19
-39,-14,24,26,-31,4,24,58,58,58,58,14
-39,-14,24,26,-31,4,19,58,58,58,58,14
-34,-14,19,24,-26,2,19,58,58,58,63,19
-34,-14,19,24,-26,2,19,58,58,58,63,19
-34,-14,19,24,-26,2,19,63,53,68,63,24
-29,-14,14,21,-21,0,19,63,53,68,63,24
-29,-14,14,21,-21,0,19,73,53,73,68,24
-29,-19,9,24,-19,-4,19,78,53,78,73,24
-24,-19,4,21,-14,-7,14,68,63,68,78,39
-24,-14,9,19,-17,-2,14,68,73,78,78,39
-24,-14,9,19,-17,-2,14,73,73,78,82,43
-19,-14,4,17,-12,-4,14,73,73,78,82,43
-19,-9,9,14,-14,0,19,78,68,78,73,34
-14,-9,4,12,-9,-2,19,82,68,78,78,34
-14,-9,4,12,-9,-2,19,82,73,82,82,34
-14,-9,4,12,-9,-2,19,82,73,87,82,39
-14,-9,4,12,-9,-2,14,102,73,87,82,39
-9,-9,0,9,-4,-4,14,107,73,92,82,39
-9,-9,0,9,-4,-4,14,107,78,92,82,39
-9,-9,0,9,-4,-4,14,107,78,97,87,43
0,-9,-9,4,4,-9,4,102,68,102,92,43
4,-4,-9,0,7,-7,4,102,73,102,92,43
4,-4,-9,0,7,-7,4,107,73,97,87,39
0,-9,-9,4,4,-9,4,117,68,97,87,39
0,-9,-9,4,4,-9,9,126,78,102,97,39
4,-9,-14,2,9,-12,9,131,78,102,92,39
4,-9,-14,2,9,-12,9,131,78,97,92,34
9,-9,-19,0,14,-14,9,131,78,97,92,34
9,0,-9,-4,9,-4,0,126,78,97,92,34
14,4,-9,-9,12,-2,0,131,82,102,97,39
14,4,-9,-9,12,-2,0,131,82,107,102,39
4,0,-4,-2,4,-2,0,131,82,107,102,39
4,-9,-14,2,9,-12,0,126,68,102,87,24
9,-4,-14,-2,12,-9,0,126,68,102,87,24
9,-4,-14,-2,12,-9,0,131,73,107,92,29
4,-4,-9,0,7,-7,0,136,73,107,92,29
14,-4,-19,-4,17,-12,0,146,73,97,102,39
14,-4,-19,-4,17,-12,0,146,73,97,102,34
19,-4,-24,-7,21,-14,0,141,73,97,97,34
19,-4,-24,-7,21,-14,0,141,73,97,92,29
9,4,-4,-7,7,0,0,136,63,97,82,19
9,4,-4,-7,7,0,-9,136,63,97,82,14
9,4,-4,-7,7,0,-9,136,58,92,78,14
9,4,-4,-7,7,0,-9,136,58,82,78,9
19,-4,-24,-7,21,-14,-4,136,68,82,63,14
19,-4,-24,-7,21,-14,-4,136,63,82,63,14
19,-4,-24,-7,21,-14,-4,131,63,82,63,14
19,-9,-29,-4,24,-19,-4,131,63,78,63,14
19,-9,-29,-4,24,-19,-4,122,53,78,58,9
19,-9,-29,-4,24,-19,-14,117,43,78,58,9
19,-9,-29,-4,24,-19,-14,117,43,78,58,9
19,-4,-24,-7,21,-14,-9,117,43,73,58,9
19,0,-19,-9,19,-9,-9,117,48,73,68,19
19,0,-19,-9,19,-9,-19,112,48,73,63,24
19,0,-19,-9,19,-9,-19,107,48,73,63,24
19,0,-19,-9,19,-9,-14,102,39,68,63,19
19,9,-9,-14,14,0,-14,97,39,63,63,9
19,9,-9,-14,14,0,-14,87,39,63,58,9
19,19,0,-19,9,9,-14,82,43,63,58,9
14,19,4,-17,4,12,-14,78,43,68,68,19
14,9,-4,-12,9,2,-14,73,43,68,58,19
14,9,-4,-12,9,2,-14,63,43,68,63,19
14,9,-4,-12,9,2,-9,63,43,68,63,24
9,9,0,-9,4,4,-9,58,43,58,63,24
9,9,0,-9,4,4,-9,53,43,63,63,34
9,9,0,-9,4,4,-9,48,48,63,63,29
9,4,-4,-7,7,0,-9,43,53,58,68,29
9,4,-4,-7,7,0,-4,39,58,58,73,29
9,4,-4,-7,7,0,4,39,58,58,58,29
4,4,0,-4,2,2,4,39,58,58,58,29
0,4,4,-2,-2,4,9,34,58,58,58,34
0,4,4,-2,-2,4,9,29,53,53,63,34
9,4,-4,-7,7,0,4,24,43,43,53,24
9,4,-4,-7,7,0,4,19,43,39,53,24
9,4,-4,-7,7,0,9,14,43,34,48,24
9,4,-4,-7,7,0,9,14,43,34,43,19
4,-4,-9,0,7,-7,14,19,48,39,48,19
4,-9,-14,2,9,-12,14,19,43,34,43,14
4,-9,-14,2,9,-12,14,14,43,29,39,9
4,-14,-19,4,12,-17,14,14,43,29,34,4
0,-19,-19,9,9,-19,14,14,34,24,34,9
0,-19,-19,9,9,-19,14,9,29,24,29,9
0,-24,-24,12,12,-24,14,4,29,19,29,9
0,-24,-24,12,12,-24,14,4,29,19,29,9
0,-14,-14,7,7,-14,9,-4,39,19,19,0
4,-14,-19,4,12,-17,9,-4,39,19,24,0
4,-14,-19,4,12,-17,9,-4,34,19,24,0
4,-14,-19,4,12,-17,4,-4,34,14,14,0
4,-14,-19,4,12,-17,14,4,34,14,24,9
4,-14,-19,4,12,-17,14,0,34,14,24,9
0,-14,-14,7,7,-14,14,0,34,14,24,9
-4,-14,-9,9,2,-12,14,0,34,14,24,9
4,-24,-29,9,17,-26,14,0,29,14,19,0
4,-24,-29,9,17,-26,14,0,29,9,19,-9
4,-24,-29,9,17,-26,14,-4,34,9,19,-9
4,-24,-29,9,17,-26,14,-4,34,14,24,-4
4,-24,-29,9,17,-26,14,-9,24,14,14,-14
4,-29,-34,12,19,-31,14,-9,24,14,14,-9
4,-29,-34,12,19,-31,14,-9,14,14,14,-9
0,-34,-34,17,17,-34,14,-9,14,4,4,-14
0,-24,-24,12,12,-24,14,0,29,4,14,-9
0,-24,-24,12,12,-24,14,0,29,4,9,-9
4,-24,-29,9,17,-26,14,4,29,4,9,-9
4,-24,-29,9,17,-26,14,4,29,4,9,-9
4,-24,-29,9,17,-26,14,0,19,14,14,-4
4,-24,-29,9,17,-26,14,0,19,14,14,-4
4,-24,-29,9,17,-26,19,0,19,14,14,-14
4,-24,-29,9,17,-26,19,0,19,14,14,-14
4,-29,-34,12,19,-31,19,0,29,4,9,-14
0,-29,-29,14,14,-29,19,0,34,9,9,-9
0,-29,-29,14,14,-29,19,0,34,9,9,-9
0,-29,-29,14,14,-29,19,0,34,9,14,-9
0,-29,-29,14,14,-29,19,0,29,9,14,-4
0,-34,-34,17,17,-34,19,0,29,9,9,-4
4,-34,-39,14,21,-36,19,0,29,9,9,-9
4,-29,-34,12,19,-31,19,0,29,9,4,-14
0,-29,-29,14,14,-29,19,-4,19,4,14,-14
0,-29,-29,14,14,-29,19,-4,19,4,14,-14
0,-29,-29,14,14,-29,19,-4,19,4,14,-14
0,-24,-24,12,12,-24,19,-4,19,4,14,-14
4,-34,-39,14,21,-36,14,-4,34,14,24,-9
4,-34,-39,14,21,-36,14,-9,34,14,24,-9
9,-34,-43,12,26,-39,9,-9,34,14,24,-9
9,-34,-43,12,26,-39,9,-9,29,14,19,-9
9,-24,-34,7,21,-29,9,0,19,4,9,-19
9,-24,-34,7,21,-29,9,0,19,4,14,-19
9,-24,-34,7,21,-29,9,0,19,9,14,-19
9,-24,-34,7,21,-29,9,0,14,9,9,-19
9,-29,-39,9,24,-34,9,0,24,14,9,-14
9,-29,-39,9,24,-34,9,0,24,14,9,-14
9,-29,-39,9,24,-34,9,0,24,4,4,-14
9,-29,-39,9,24,-34,9,0,19,4,4,-24
9,-24,-34,7,21,-29,9,0,19,0,4,-24
9,-24,-34,7,21,-29,14,0,24,0,4,-19
9,-24,-34,7,21,-29,14,-4,24,4,9,-19
9,-24,-34,7,21,-29,14,-4,24,4,9,-19
9,-29,-39,9,24,-34,9,-4,24,4,9,-14
9,-29,-39,9,24,-34,9,-4,24,4,14,-14
4,-29,-34,12,19,-31,9,-4,24,4,14,-14
4,-24,-29,9,17,-26,9,-4,24,4,14,-14
4,-34,-39,14,21,-36,9,-4,24,0,14,-14
4,-34,-39,14,21,-36,9,-4,19,0,9,-19
4,-34,-39,14,21,-36,9,-4,19,0,9,-19
4,-34,-39,14,21,-36,9,-4,19,0,9,-19
4,-24,-29,9,17,-26,9,-4,24,9,9,-19
4,-24,-29,9,17,-26,9,-4,24,9,9,-14
4,-24,-29,9,17,-26,9,-4,19,9,4,-14
4,-24,-29,9,17,-26,9,-4,19,9,4,-14
4,-24,-29,9,17,-26,9,-4,19,0,14,-19
4,-24,-29,9,17,-26,9,-4,19,0,14,-19
4,-24,-29,9,17,-26,9,-4,19,0,14,-19
4,-24,-29,9,17,-26,9,-4,19,0,14,-19
4,-24,-29,9,17,-26,0,-9,9,0,4,-29
4,-24,-29,9,17,-26,0,-9,14,0,4,-29
4,-24,-29,9,17,-26,0,-9,14,0,4,-29
4,-24,-29,9,17,-26,0,-9,14,0,4,-29
4,-34,-39,14,21,-36,9,-9,14,0,4,-29
4,-34,-39,14,21,-36,9,-14,14,-4,4,-29
4,-34,-39,14,21,-36,9,-14,14,-4,4,-29
4,-34,-39,14,21,-36,9,-9,14,-4,4,-29
4,-24,-29,9,17,-26,0,-19,9,-4,4,-19
4,-24,-29,9,17,-26,0,-24,9,-4,0,-24
4,-24,-29,9,17,-26,0,-29,14,-4,0,-24
4,-24,-29,9,17,-26,0,-29,14,-4,-4,-29
4,-24,-29,9,17,-26,0,-19,9,-4,-4,-29
4,-24,-29,9,17,-26,0,-19,9,-14,-4,-29
4,-24,-29,9,17,-26,0,-19,9,-14,0,-29
4,-24,-29,9,17,-26,0,-19,9,-9,0,-19
4,-24,-29,9,17,-26,0,-19,9,-9,0,-29
4,-24,-29,9,17,-26,0,-24,9,-9,0,-29
4,-24,-29,9,17,-26,0,-24,9,-9,0,-29
4,-24,-29,9,17,-26,0,-24,9,-9,0,-34
4,-34,-39,14,21,-36,0,-34,9,-19,0,-34
4,-29,-34,12,19,-31,-4,-34,9,-19,0,-34
4,-29,-34,12,19,-31,-4,-34,9,-19,0,-34
4,-29,-34,12,19,-31,0,-29,4,-19,-9,-39
4,-29,-34,12,19,-31,0,-29,4,-19,-9,-39
4,-29,-34,12,19,-31,0,-34,4,-24,-9,-39
4,-34,-39,14,21,-36,0,-34,4,-24,-9,-43
9,-34,-43,12,26,-39,0,-39,4,-24,-14,-48
9,-29,-39,9,24,-34,0,-39,4,-29,-14,-39
9,-29,-39,9,24,-34,0,-39,4,-29,-14,-39
9,-29,-39,9,24,-34,0,-39,0,-24,-9,-39
4,-29,-34,12,19,-31,0,-39,0,-24,-9,-34
4,-39,-43,17,24,-41,0,-34,4,-24,-14,-39
4,-39,-43,17,24,-41,0,-34,4,-24,-14,-39
4,-34,-39,14,21,-36,0,-34,4,-24,-14,-39
4,-34,-39,14,21,-36,0,-34,4,-24,-14,-43
-4,-34,-29,19,12,-31,0,-39,-4,-24,-19,-43
-4,-34,-29,19,12,-31,0,-43,-4,-24,-19,-43
0,-34,-34,17,17,-34,0,-43,-4,-29,-19,-43
0,-34,-34,17,17,-34,0,-39,-4,-34,-19,-43
0,-34,-34,17,17,-34,0,-39,0,-34,-9,-34
0,-34,-34,17,17,-34,0,-39,0,-29,-9,-34
0,-34,-34,17,17,-34,0,-39,0,-24,-9,-34
0,-29,-29,14,14,-29,0,-39,4,-24,-9,-34
-4,-29,-24,17,9,-26,0,-39,4,-34,-19,-43
-4,-34,-29,19,12,-31,0,-39,0,-34,-19,-43
-4,-34,-29,19,12,-31,0,-39,0,-34,-19,-43
-4,-34,-29,19,12,-31,0,-39,4,-34,-19,-39
4,-34,-39,14,21,-36,0,-39,0,-34,-19,-48
9,-29,-39,9,24,-34,0,-39,0,-34,-19,-43
9,-29,-39,9,24,-34,0,-39,0,-34,-9,-43
4,-29,-34,12,19,-31,0,-39,0,-34,-9,-43
-4,-29,-24,17,9,-26,0,-48,0,-39,-19,-53
-4,-29,-24,17,9,-26,-4,-48,0,-39,-19,-53
0,-29,-29,14,14,-29,-4,-48,-4,-39,-24,-53
0,-29,-29,14,14,-29,-4,-48,-4,-39,-24,-53
0,-29,-29,14,14,-29,-9,-48,-4,-39,-19,-53
4,-29,-34,12,19,-31,-9,-48,-4,-39,-19,-48
4,-29,-34,12,19,-31,-9,-48,-4,-39,-19,-48
4,-29,-34,12,19,-31,-9,-48,-4,-39,-19,-48
4,-29,-34,12,19,-31,0,-48,-4,-34,-19,-48
4,-34,-39,14,21,-36,0,-48,-4,-34,-19,-48
4,-34,-39,14,21,-36,0,-48,-4,-34,-19,-48
4,-34,-39,14,21,-36,0,-48,-4,-39,-19,-48
4,-34,-39,14,21,-36,0,-48,0,-39,-19,-48
4,-34,-39,14,21,-36,0,-48,0,-39,-24,-48
4,-34,-39,14,21,-36,0,-48,0,-43,-29,-53
0,-43,-43,21,21,-43,0,-48,0,-43,-29,-53
0,-43,-43,21,21,-43,-9,-48,0,-43,-19,-43
0,-39,-39,19,19,-39,-9,-48,0,-43,-19,-43
-4,-34,-29,19,12,-31,-9,-48,-4,-43,-19,-43
-4,-24,-19,14,7,-21,-9,-48,-4,-43,-24,-43
9,-34,-43,12,26,-39,0,-53,-4,-39,-34,-43
9,-34,-43,12,26,-39,0,-53,0,-39,-34,-39
9,-34,-43,12,26,-39,0,-53,0,-39,-29,-39
4,-34,-39,14,21,-36,0,-53,-4,-39,-29,-48
4,-34,-39,14,21,-36,0,-43,-4,-39,-19,-48
4,-34,-39,14,21,-36,0,-48,-4,-39,-19,-48
4,-34,-39,14,21,-36,0,-53,-4,-39,-19,-48
4,-34,-39,14,21,-36,0,-53,-4,-39,-19,-48
4,-34,-39,14,21,-36,-9,-53,-4,-43,-29,-48
4,-39,-43,17,24,-41,-9,-53,-4,-43,-29,-48
4,-39,-43,17,24,-41,-9,-53,-4,-43,-29,-48
4,-39,-43,17,24,-41,-9,-53,-4,-43,-29,-48
4,-29,-34,12,19,-31,-9,-53,-4,-34,-24,-48
4,-29,-34,12,19,-31,-9,-53,-4,-34,-24,-48
4,-29,-34,12,19,-31,-9,-53,-4,-34,-24,-48
4,-29,-34,12,19,-31,-9,-53,-4,-34,-24,-48
-4,-34,-29,19,12,-31,0,-48,-4,-43,-24,-48
-4,-34,-29,19,12,-31,0,-48,-4,-43,-24,-48
-4,-34,-29,19,12,-31,0,-43,-4,-43,-29,-48
-4,-34,-29,19,12,-31,0,-43,-4,-43,-29,-48
-4,-39,-34,21,14,-36,0,-43,-4,-39,-19,-48
-4,-39,-34,21,14,-36,0,-43,-4,-39,-19,-48
4,-43,-48,19,26,-46,0,-43,-4,-39,-19,-48
4,-43,-48,19,26,-46,0,-43,-4,-39,-19,-53
4,-24,-29,9,17,-26,0,-43,-9,-39,-19,-43
0,-29,-29,14,14,-29,0,-48,-19,-43,-24,-43
0,-29,-29,14,14,-29,0,-48,-9,-39,-29,-48
0,-29,-29,14,14,-29,0,-48,-9,-39,-29,-58
0,-29,-29,14,14,-29,0,-48,-9,-39,-29,-58
0,-29,-29,14,14,-29,0,-48,-9,-39,-29,-58
0,-29,-29,14,14,-29,0,-48,-9,-39,-29,-58
0,-29,-29,14,14,-29,0,-48,-9,-29,-19,-48
0,-29,-29,14,14,-29,0,-48,-9,-29,-19,-48
0,-29,-29,14,14,-29,0,-48,-9,-29,-19,-48
0,-29,-29,14,14,-29,0,-48,-9,-29,-19,-48
9,-39,-48,14,29,-43,0,-48,-9,-39,-29,-48
9,-39,-48,14,29,-43,0,-48,-9,-39,-29,-48
9,-39,-48,14,29,-43,0,-48,-9,-39,-29,-48
9,-39,-48,14,29,-43,0,-48,-9,-39,-29,-48
9,-39,-48,14,29,-43,-9,-58,-19,-39,-19,-48
9,-39,-48,14,29,-43,-9,-58,-19,-39,-19,-48
9,-39,-48,14,29,-43,-9,-58,-19,-39,-19,-48
9,-39,-48,14,29,-43,-9,-58,-19,-39,-19,-48
9,-39,-48,14,29,-43,0,-58,-9,-39,-19,-48
9,-39,-48,14,29,-43,0,-58,-9,-39,-19,-48
9,-39,-48,14,29,-43,0,-58,-9,-39,-19,-48
9,-39,-48,14,29,-43,0,-58,-9,-39,-19,-48
9,-48,-58,19,34,-53,0,-58,-19,-48,-19,-48
9,-48,-58,19,34,-53,0,-58,-19,-48,-19,-48
9,-48,-58,19,34,-53,0,-58,-19,-48,-19,-48
9,-48,-58,19,34,-53,0,-58,-19,-48,-19,-48
9,-39,-48,14,29,-43,0,-48,-19,-48,-19,-48
9,-39,-48,14,29,-43,0,-48,-19,-48,-19,-48
9,-39,-48,14,29,-43,0,-48,-19,-48,-19,-48
9,-39,-48,14,29,-43,0,-48,-19,-48,-19,-48
9,-39,-48,14,29,-43,0,-48,-9,-48,-19,-39
9,-39,-48,14,29,-43,0,-48,-9,-48,-19,-39
9,-39,-48,14,29,-43,0,-48,-9,-48,-19,-39
9,-39,-48,14,29,-43,0,-48,-9,-48,-19,-39
9,-29,-39,9,24,-34,-9,-58,-19,-48,-19,-48
9,-29,-39,9,24,-34,-9,-58,-19,-48,-19,-48
9,-29,-39,9,24,-34,-9,-58,-19,-48,-19,-48
9,-29,-39,9,24,-34,-9,-58,-19,-48,-19,-48
9,-39,-48,14,29,-43,0,-58,-19,-48,-19,-48
9,-39,-48,14,29,-43,0,-58,-19,-48,-19,-48
9,-39,-48,14,29,-43,0,-58,-19,-48,-19,-48
9,-39,-48,14,29,-43,0,-58,-19,-48,-19,-48
9,-39,-48,14,29,-43,-9,-58,-19,-48,-19,-48
9,-39,-48,14,29,-43,-9,-58,-19,-48,-19,-48
9,-39,-48,14,29,-43,-9,-58,-19,-48,-19,-48
9,-39,-48,14,29,-43,-9,-58,-19,-48,-19,-48
9,-39,-48,14,29,-43,0,-48,-19,-48,-19,-48
9,-39,-48,14,29,-43,0,-48,-19,-48,-19,-48
9,-39,-48,14,29,-43,0,-48,-19,-48,-19,-48
9,-39,-48,14,29,-43,0,-48,-19,-48,-19,-48
9,-39,-48,14,29,-43,-9,-58,-19,-48,-29,-48
9,-39,-48,14,29,-43,-9,-58,-19,-48,-29,-48
9,-39,-48,14,29,-43,-9,-58,-19,-48,-29,-48
9,-39,-48,14,29,-43,-9,-58,-19,-48,-29,-48
9,-39,-48,14,29,-43,0,-48,-19,-48,-19,-48
9,-39,-48,14,29,-43,0,-48,-19,-48,-19,-48
9,-39,-48,14,29,-43,0,-48,-19,-48,-19,-48
9,-39,-48,14,29,-43,0,-48,-19,-48,-19,-48
9,-39,-48,14,29,-43,0,-58,-19,-48,-19,-48
9,-39,-48,14,29,-43,0,-58,-19,-48,-19,-48
9,-39,-48,14,29,-43,0,-58,-19,-48,-19,-48
9,-39,-48,14,29,-43,0,-58,-19,-48,-19,-48
19,-29,-48,4,34,-39,-9,-58,-19,-48,-29,-48
19,-29,-48,4,34,-39,-9,-58,-19,-48,-29,-48
19,-29,-48,4,34,-39,-9,-58,-19,-48,-29,-48
19,-29,-48,4,34,-39,-9,-58,-19,-48,-29,-48
19,-39,-58,9,39,-48,0,-58,-19,-48,-29,-48
19,-39,-58,9,39,-48,0,-58,-19,-48,-29,-48
19,-39,-58,9,39,-48,0,-58,-19,-48,-29,-48
19,-39,-58,9,39,-48,0,-58,-19,-48,-29,-48
19,-39,-58,9,39,-48,-9,-58,-19,-48,-29,-48
19,-39,-58,9,39,-48,-9,-58,-19,-48,-29,-48
19,-39,-58,9,39,-48,-9,-58,-19,-48,-29,-48
19,-39,-58,9,39,-48,-9,-58,-19,-48,-29,-48
19,-29,-48,4,34,-39,-9,-58,-19,-48,-29,-58
19,-29,-48,4,34,-39,-9,-58,-19,-48,-29,-58
19,-29,-48,4,34,-39,-9,-58,-19,-48,-29,-58
19,-29,-48,4,34,-39,-9,-58,-19,-48,-29,-58
19,-29,-48,4,34,-39,-9,-58,-19,-48,-19,-48
19,-29,-48,4,34,-39,-9,-58,-19,-48,-19,-48
19,-29,-48,4,34,-39,-9,-58,-19,-48,-19,-48
19,-29,-48,4,34,-39,-9,-58,-19,-48,-19,-48
19,-39,-58,9,39,-48,-9,-58,-19,-58,-29,-48
19,-39,-58,9,39,-48,-9,-58,-19,-58,-29,-48
19,-39,-58,9,39,-48,-9,-58,-19,-58,-29,-48
19,-39,-58,9,39,-48,-9,-58,-19,-58,-29,-48
9,-39,-48,14,29,-43,-9,-58,-29,-48,-29,-58
9,-39,-48,14,29,-43,-9,-58,-29,-48,-29,-58
9,-39,-48,14,29,-43,-9,-58,-29,-48,-29,-58
9,-39,-48,14,29,-43,-9,-58,-29,-48,-29,-58
19,-39,-58,9,39,-48,-9,-58,-29,-48,-19,-48
19,-39,-58,9,39,-48,-9,-58,-29,-48,-19,-48
19,-39,-58,9,39,-48,-9,-58,-29,-48,-19,-48
19,-39,-58,9,39,-48,-9,-58,-29,-48,-19,-48
19,-39,-58,9,39,-48,-9,-48,-29,-48,-19,-58
19,-43,-63,12,41,-53,-9,-53,-29,-48,-24,-58
24,-43,-68,9,46,-56,-4,-53,-29,-53,-24,-58
24,-43,-68,9,46,-56,-4,-53,-34,-53,-24,-58
24,-34,-58,4,41,-46,-14,-58,-24,-53,-29,-53
24,-34,-58,4,41,-46,-14,-58,-24,-53,-34,-53
19,-34,-53,7,36,-43,-14,-58,-24,-53,-39,-58
19,-34,-53,7,36,-43,-14,-58,-19,-53,-39,-58
19,-39,-58,9,39,-48,-14,-48,-29,-48,-29,-58
24,-39,-63,7,43,-51,-14,-48,-29,-48,-29,-58
24,-39,-63,7,43,-51,-14,-48,-24,-48,-29,-58
24,-39,-63,7,43,-51,-14,-48,-24,-48,-29,-53
24,-29,-53,2,39,-41,-14,-48,-24,-58,-29,-63
24,-19,-43,-2,34,-31,-19,-48,-19,-53,-19,-53
29,-14,-43,-7,36,-29,-19,-48,-14,-48,-19,-48
29,-14,-43,-7,36,-29,-14,-48,-14,-43,-14,-48
34,-4,-39,-14,36,-21,-14,-48,-4,-29,0,-34
34,4,-29,-19,31,-12,-14,-43,4,-19,0,-34
34,9,-24,-21,29,-7,-14,-39,14,-14,4,-29
39,14,-24,-26,31,-4,-9,-39,19,-14,9,-24
43,9,-34,-26,39,-12,-4,-39,9,-9,14,-34
43,9,-34,-26,39,-12,-4,-34,19,0,24,-24
43,9,-34,-26,39,-12,-4,-34,19,0,24,-19
43,9,-34,-26,39,-12,-4,-34,24,0,29,-19
53,9,-43,-31,48,-17,4,-14,39,14,29,-9
53,9,-43,-31,48,-17,0,-14,39,14,29,-4
58,9,-48,-34,53,-19,0,-14,39,14,34,-4
58,9,-48,-34,53,-19,0,-14,39,14,34,-4
58,24,-34,-41,46,-4,-4,-14,48,14,43,-4
58,29,-29,-43,43,0,-4,-14,53,19,43,0
63,29,-34,-46,48,-2,-9,-4,58,24,48,4
68,24,-43,-46,56,-9,-14,0,58,24,48,4
78,24,-53,-51,65,-14,-14,0,53,24,53,9
82,24,-58,-53,70,-17,-19,0,53,29,53,9
87,29,-58,-58,73,-14,-24,0,53,29,63,14
87,34,-53,-61,70,-9,-29,4,53,34,68,19
97,34,-63,-65,80,-14,-34,-4,43,29,68,19
107,34,-73,-70,90,-19,-39,4,48,34,73,29
112,29,-82,-70,97,-26,-43,4,48,34,73,29
112,29,-82,-70,97,-26,-43,4,48,34,68,24
112,19,-92,-65,102,-36,-53,0,34,24,53,14
107,14,-92,-61,100,-39,-48,-4,24,24,53,9
107,4,-102,-56,104,-48,-48,-9,14,14,43,0
102,-4,-107,-48,104,-56,-48,-14,0,4,34,0
92,-9,-102,-41,97,-56,-39,-14,-9,-4,29,-9
92,-14,-107,-39,100,-61,-39,-24,-14,-14,24,-14
87,-24,-112,-31,100,-68,-39,-24,-24,-19,9,-24
82,-24,-107,-29,95,-65,-39,-34,-24,-24,4,-24
87,-14,-102,-36,95,-58,-39,-48,-24,-29,-9,-29
82,-14,-97,-34,90,-56,-39,-53,-24,-34,-9,-34
78,-19,-97,-29,87,-58,-39,-53,-34,-39,-14,-39
78,-24,-102,-26,90,-63,-39,-63,-39,-48,-19,-43
78,-34,-112,-21,95,-73,-34,-63,-43,-58,-14,-48
68,-39,-107,-14,87,-73,-34,-63,-43,-63,-19,-53
68,-43,-112,-12,90,-78,-34,-63,-39,-63,-19,-53
63,-43,-107,-9,85,-75,-34,-63,-39,-63,-19,-48
63,-29,-92,-17,78,-61,-39,-53,-39,-53,-19,-39
58,-29,-87,-14,73,-58,-24,-53,-34,-48,-14,-39
53,-34,-87,-9,70,-61,-24,-53,-34,-48,-14,-43
39,-34,-73,-2,56,-53,-24,-58,-34,-48,-19,-48
29,-43,-73,7,51,-58,-24,-63,-39,-43,-29,-63
24,-48,-73,12,48,-61,-19,-68,-39,-53,-34,-68
19,-48,-68,14,43,-58,-14,-68,-43,-58,-34,-68
14,-53,-68,19,41,-61,-9,-73,-48,-63,-34,-68
9,-53,-63,21,36,-58,-9,-78,-48,-73,-39,-68
9,-53,-63,21,36,-58,-9,-78,-48,-73,-39,-68
9,-58,-68,24,39,-63,-9,-78,-53,-73,-39,-78
9,-58,-68,24,39,-63,-9,-78,-53,-73,-43,-78
19,-43,-63,12,41,-53,-9,-73,-53,-63,-34,-68
19,-43,-63,12,41,-53,-9,-73,-48,-63,-34,-68
24,-43,-68,9,46,-56,-9,-73,-48,-63,-34,-68
24,-43,-68,9,46,-56,-9,-73,-48,-63,-29,-68
14,-53,-68,19,41,-61,-9,-73,-53,-73,-29,-68
14,-53,-68,19,41,-61,-9,-73,-53,-73,-34,-68
14,-53,-68,19,41,-61,-4,-68,-48,-68,-34,-68
14,-53,-68,19,41,-61,-4,-68,-48,-68,-34,-63
14,-48,-63,17,39,-56,-4,-68,-43,-68,-29,-63
14,-48,-63,17,39,-56,-4,-73,-43,-68,-29,-63
9,-48,-58,19,34,-53,-4,-73,-43,-68,-29,-63
9,-48,-58,19,34,-53,-4,-73,-43,-68,-29,-63
9,-48,-58,19,34,-53,0,-73,-48,-68,-34,-78
9,-48,-58,19,34,-53,0,-73,-48,-68,-34,-78
9,-48,-58,19,34,-53,-4,-73,-43,-68,-34,-78
9,-48,-58,19,34,-53,-4,-73,-43,-68,-39,-78
9,-48,-58,19,34,-53,-4,-82,-53,-73,-48,-73
19,-39,-58,9,39,-48,-14,-87,-43,-68,-48,-73
14,-39,-53,12,34,-46,-9,-87,-43,-78,-43,-73
9,-39,-48,14,29,-43,4,-82,-34,-63,-34,-63
9,-43,-53,17,31,-48,19,-68,-24,-53,-34,-63
14,-53,-68,19,41,-61,14,-53,-34,-53,-34,-73
14,-53,-68,19,41,-61,24,-29,-24,-34,-4,-53
19,-43,-63,12,41,-53,43,4,19,4,39,-14
19,-43,-63,12,41,-53,53,29,43,43,68,14
29,-43,-73,7,51,-58,63,63,63,68,102,39
63,-53,-117,-4,90,-85,63,122,73,112,136,63
122,-43,-165,-39,143,-104,48,195,92,156,200,112
209,-19,-229,-95,219,-124,29,302,117,234,278,195
317,-14,-331,-151,324,-173,-4,409,126,312,385,297
424,4,-419,-214,422,-207,-39,527,151,400,507,409
541,43,-497,-292,519,-226,-48,707,229,551,658,541
673,102,-570,-387,622,-234,-63,927,351,732,854,702
810,170,-639,-490,724,-234,-73,1176,488,946,1054,863
932,258,-673,-595,802,-207,-92,1405,624,1137,1234,1005
1024,370,-653,-697,839,-141,-141,1512,722,1278,1356,1112
1073,483,-590,-778,832,-53,-204,1464,736,1278,1376,1141
1044,522,-522,-783,783,0,-229,1298,663,1122,1185,1000
961,492,-468,-727,714,12,-239,1049,502,829,849,702
839,463,-375,-651,607,43,-248,697,312,492,522,444
634,453,-180,-544,407,136,-239,317,146,219,273,278
370,429,58,-400,156,244,-190,-9,14,14,78,122
151,395,244,-273,-46,319,-136,-302,-112,-185,-92,0
-9,317,326,-153,-168,322,-92,-507,-278,-380,-263,-126
-102,161,263,-29,-183,212,-19,-546,-424,-536,-424,-273
-141,63,204,39,-173,134,34,-522,-473,-619,-512,-366
-146,24,170,61,-158,97,34,-507,-497,-619,-512,-375
-146,-29,117,87,-131,43,19,-453,-536,-629,-507,-375
-146,-112,34,129,-90,-39,19,-390,-580,-649,-531,-395
-131,-165,-34,148,-48,-100,29,-322,-580,-649,-541,-419
-122,-195,-73,158,-24,-134,24,-292,-546,-610,-517,-405
-102,-165,-63,134,-19,-114,-43,-331,-497,-531,-458,-366
-92,-131,-39,112,-26,-85,-68,-322,-414,-439,-375,-326
-63,-112,-48,87,-7,-80,-48,-248,-317,-346,-302,-268
-43,-92,-48,68,2,-70,-53,-224,-239,-273,-234,-209
-29,-53,-24,41,-2,-39,-53,-209,-170,-200,-161,-151
-4,-29,-24,17,9,-26,-29,-151,-97,-107,-78,-92
0,-14,-14,7,7,-14,-14,-117,-58,-73,-43,-73
4,-14,-19,4,12,-17,-24,-112,-53,-73,-48,-68
0,-19,-19,9,9,-19,-19,-92,-63,-78,-48,-78
0,-24,-24,12,12,-24,-19,-78,-63,-73,-58,-82
0,-14,-14,7,7,-14,-14,-68,-58,-68,-48,-82
0,-24,-24,12,12,-24,-14,-68,-58,-68,-43,-78
-4,-24,-19,14,7,-21,-14,-68,-53,-63,-43,-78
-9,-34,-24,21,7,-29,0,-78,-43,-43,-39,-73
-9,-34,-24,21,7,-29,0,-82,-39,-43,-34,-73
-9,-34,-24,21,7,-29,0,-82,-34,-48,-34,-68
-4,-34,-29,19,12,-31,0,-82,-34,-53,-29,-68
-4,-34,-29,19,12,-31,0,-63,-43,-63,-39,-73
-4,-39,-34,21,14,-36,0,-58,-48,-63,-43,-73
-4,-39,-34,21,14,-36,0,-53,-48,-58,-43,-78
-4,-43,-39,24,17,-41,4,-53,-48,-58,-34,-78
4,-43,-48,19,26,-46,0,-63,-43,-48,-34,-73
4,-39,-43,17,24,-41,0,-63,-39,-48,-29,-68
4,-39,-43,17,24,-41,0,-63,-39,-48,-29,-68
4,-39,-43,17,24,-41,0,-63,-34,-43,-19,-63
-4,-39,-34,21,14,-36,0,-63,-34,-43,-19,-63
-4,-39,-34,21,14,-36,0,-53,-34,-39,-19,-58
-4,-39,-34,21,14,-36,0,-53,-34,-34,-19,-53
-4,-39,-34,21,14,-36,0,-48,-34,-34,-19,-53
4,-34,-39,14,21,-36,0,-58,-29,-34,-19,-48
4,-34,-39,14,21,-36,0,-58,-29,-34,-9,-48
4,-34,-39,14,21,-36,0,-58,-29,-34,-9,-48
4,-34,-39,14,21,-36,0,-58,-29,-34,-9,-48
-4,-34,-29,19,12,-31,0,-48,-29,-39,-14,-63
0,-34,-34,17,17,-34,0,-48,-29,-39,-19,-63
0,-34,-34,17,17,-34,0,-39,-29,-34,-19,-63
0,-34,-34,17,17,-34,0,-39,-24,-29,-24,-58
0,-24,-24,12,12,-24,14,-39,-34,-24,-14,-58
4,-24,-29,9,17,-26,14,-39,-29,-24,-14,-53
4,-24,-29,9,17,-26,9,-39,-29,-29,-14,-53
4,-24,-29,9,17,-26,9,-39,-34,-34,-19,-58
14,-14,-29,0,21,-21,9,-34,-24,-24,-9,-53
14,-14,-29,0,21,-21,9,-34,-19,-19,-4,-48
14,-14,-29,0,21,-21,9,-34,-14,-14,-4,-43
14,-14,-29,0,21,-21,9,-34,-14,-14,0,-34
4,-24,-29,9,17,-26,9,-29,-24,-14,-4,-48
4,-24,-29,9,17,-26,9,-29,-24,-19,-9,-48
4,-24,-29,9,17,-26,9,-29,-29,-24,-14,-53
4,-24,-29,9,17,-26,9,-29,-29,-29,-19,-58
9,-34,-43,12,26,-39,9,-24,-19,-29,-19,-58
9,-34,-43,12,26,-39,9,-24,-19,-29,-19,-58
9,-29,-39,9,24,-34,9,-24,-19,-29,-14,-58
9,-29,-39,9,24,-34,9,-19,-19,-29,-14,-63
9,-29,-39,9,24,-34,9,-19,-19,-19,-9,-53
9,-29,-39,9,24,-34,9,-19,-19,-19,-9,-53
9,-29,-39,9,24,-34,9,-19,-19,-14,-4,-53
9,-29,-39,9,24,-34,9,-14,-19,-9,-4,-53
9,-29,-39,9,24,-34,9,-14,-4,-4,-4,-43
14,-29,-43,7,29,-36,9,-14,-4,-4,4,-39
14,-29,-43,7,29,-36,9,-14,-4,-4,4,-34
14,-24,-39,4,26,-31,9,-14,-4,-4,4,-34
14,-24,-39,4,26,-31,9,-14,-14,-9,4,-34
14,-24,-39,4,26,-31,9,-14,-14,-9,4,-34
14,-24,-39,4,26,-31,9,-4,-9,-4,4,-34
14,-24,-39,4,26,-31,9,-4,-9,-4,4,-34
14,-24,-39,4,26,-31,9,-4,-9,-14,-4,-39
14,-24,-39,4,26,-31,9,-4,-9,-9,4,-43
14,-24,-39,4,26,-31,9,-4,-9,-9,4,-43
14,-24,-39,4,26,-31,9,-4,-9,-9,0,-48
14,-34,-48,9,31,-41,19,0,-9,0,-4,-43
14,-34,-48,9,31,-41,19,0,-9,0,-4,-43
14,-34,-48,9,31,-41,19,0,-9,0,-4,-43
14,-34,-48,9,31,-41,19,0,-9,0,0,-43
14,-24,-39,4,26,-31,19,0,0,9,4,-34
19,-24,-43,2,31,-34,19,4,0,9,9,-29
19,-24,-43,2,31,-34,19,4,0,19,24,-24
19,-19,-39,0,29,-29,19,4,9,19,34,-24
9,-29,-39,9,24,-34,19,4,9,14,29,-34
9,-29,-39,9,24,-34,19,4,9,14,24,-29
9,-29,-39,9,24,-34,19,4,9,19,19,-29
9,-29,-39,9,24,-34,19,9,9,19,14,-29
14,-29,-43,7,29,-36,19,19,0,9,4,-39
14,-29,-43,7,29,-36,19,24,4,9,9,-39
14,-34,-48,9,31,-41,14,24,4,9,9,-39
14,-34,-48,9,31,-41,14,29,9,9,4,-39
24,-29,-53,2,39,-41,19,19,14,14,9,-34
24,-24,-48,0,36,-36,19,19,19,24,19,-29
24,-19,-43,-2,34,-31,14,24,24,29,34,-24
29,-14,-43,-7,36,-29,14,24,29,39,39,-14
19,-4,-24,-7,21,-14,9,34,29,39,39,-14
24,-4,-29,-9,26,-17,9,39,29,39,39,-9
24,4,-19,-14,21,-7,9,39,29,43,43,-9
24,4,-19,-14,21,-7,4,43,34,43,43,-9
29,0,-29,-14,29,-14,9,48,39,48,48,-14
29,-4,-34,-12,31,-19,9,48,39,48,48,-14
34,-9,-43,-12,39,-26,14,48,39,48,53,-9
34,-14,-48,-9,41,-31,19,48,39,48,53,-9
34,-9,-43,-12,39,-26,9,53,43,48,43,-14
39,-4,-43,-17,41,-24,9,53,43,48,43,-14
39,0,-39,-19,39,-19,9,63,43,53,48,-14
39,0,-39,-19,39,-19,9,68,43,58,53,-14
34,-4,-39,-14,36,-21,14,68,34,48,48,-19
34,-4,-39,-14,36,-21,14,68,43,58,48,-19
34,-9,-43,-12,39,-26,14,73,43,58,53,-14
39,-14,-53,-12,46,-34,14,73,43,58,53,-14
39,-19,-58,-9,48,-39,19,87,43,63,63,-4
43,-19,-63,-12,53,-41,19,92,48,68,68,-4
43,-19,-63,-12,53,-41,19,92,58,78,73,-4
43,-19,-63,-12,53,-41,19,92,63,87,73,0
43,-9,-53,-17,48,-31,14,102,53,82,63,0
48,-9,-58,-19,53,-34,14,107,53,82,63,0
48,-9,-58,-19,53,-34,14,107,58,78,63,0
48,-9,-58,-19,53,-34,14,107,58,78,68,4
48,0,-48,-24,48,-24,14,112,68,92,73,-4
53,4,-48,-29,51,-21,14,112,73,92,73,-4
53,4,-48,-29,51,-21,14,117,73,87,68,-9
48,0,-48,-24,48,-24,14,126,68,87,68,-9
39,-9,-48,-14,43,-29,9,117,58,82,68,-19
43,-9,-53,-17,48,-31,9,122,58,82,63,-19
43,-9,-53,-17,48,-31,9,122,58,78,63,-24
48,-9,-58,-19,53,-34,9,122,58,78,63,-24
48,-9,-58,-19,53,-34,19,136,68,87,63,-14
53,-4,-58,-24,56,-31,19,141,73,92,68,-9
53,-4,-58,-24,56,-31,19,141,73,97,73,-9
43,-9,-53,-17,48,-31,19,141,73,97,73,-9
43,-9,-53,-17,48,-31,19,146,68,92,68,-14
48,-4,-53,-21,51,-29,19,146,68,92,68,-14
48,-4,-53,-21,51,-29,19,151,73,97,73,-9
43,-4,-48,-19,46,-26,19,156,73,97,73,-9
43,-14,-58,-14,51,-36,29,156,63,87,68,-24
43,-14,-58,-14,51,-36,29,156,63,87,63,-34
48,-14,-63,-17,56,-39,29,151,63,87,53,-39
48,-14,-63,-17,56,-39,29,151,63,87,43,-48
39,-14,-53,-12,46,-34,19,156,73,92,53,-34
39,-14,-53,-12,46,-34,9,156,73,97,63,-34
39,-14,-53,-12,46,-34,9,156,68,97,68,-29
39,-14,-53,-12,46,-34,9,156,68,92,78,-29
39,-14,-53,-12,46,-34,14,165,58,87,58,-43
39,-14,-53,-12,46,-34,14,165,53,82,53,-43
39,-14,-53,-12,46,-34,14,161,53,78,48,-43
39,-19,-58,-9,48,-39,14,161,53,68,43,-43
39,-19,-58,-9,48,-39,24,161,63,78,48,-39
39,-19,-58,-9,48,-39,14,156,53,78,48,-39
39,-19,-58,-9,48,-39,14,156,53,78,48,-39
39,-14,-53,-12,46,-34,19,156,53,73,48,-39
39,-9,-48,-14,43,-29,19,146,58,73,48,-39
39,-9,-48,-14,43,-29,9,141,58,73,43,-34
39,-9,-48,-14,43,-29,9,136,58,73,43,-34
39,-9,-48,-14,43,-29,14,131,48,68,43,-39
39,-9,-48,-14,43,-29,14,136,48,63,43,-29
39,-9,-48,-14,43,-29,14,126,48,63,39,-29
39,0,-39,-19,39,-19,14,122,53,63,39,-29
34,0,-34,-17,34,-17,14,117,53,68,48,-19
34,0,-34,-17,34,-17,14,102,53,68,48,-29
34,0,-34,-17,34,-17,14,92,53,68,53,-29
34,0,-34,-17,34,-17,19,92,53,68,53,-24
29,0,-29,-14,29,-14,19,87,53,58,53,-24
29,0,-29,-14,29,-14,9,73,39,43,39,-14
29,0,-29,-14,29,-14,9,68,39,43,34,-19
29,-4,-34,-12,31,-19,9,63,39,39,34,-19
29,-4,-34,-12,31,-19,14,58,39,39,34,-19
39,-4,-43,-17,41,-24,14,48,39,48,39,-19
34,-4,-39,-14,36,-21,14,48,39,48,39,-19
29,-4,-34,-12,31,-19,19,43,39,48,39,-14
29,-4,-34,-12,31,-19,19,39,34,43,43,-14
29,-4,-34,-12,31,-19,19,24,24,43,43,-14
29,-4,-34,-12,31,-19,14,19,24,39,43,-14
29,-4,-34,-12,31,-19,14,14,24,34,39,-14
29,-4,-34,-12,31,-19,9,14,24,34,34,-19
24,-4,-29,-9,26,-17,4,9,19,19,19,-19
24,-9,-34,-7,29,-21,4,9,14,14,14,-24
24,-9,-34,-7,29,-21,4,4,14,9,9,-29
24,-14,-39,-4,31,-26,4,4,14,9,4,-34
19,-19,-39,0,29,-29,4,4,14,14,9,-34
19,-19,-39,0,29,-29,4,0,9,14,9,-29
19,-24,-43,2,31,-34,4,-4,9,9,14,-24
19,-24,-43,2,31,-34,4,-4,9,9,19,-19
19,-24,-43,2,31,-34,9,-4,0,0,9,-19
24,-24,-48,0,36,-36,9,-4,0,0,14,-19
24,-24,-48,0,36,-36,9,-4,-4,0,14,-19
24,-24,-48,0,36,-36,4,-4,-4,-4,4,-19
24,-24,-48,0,36,-36,4,-4,-4,-4,4,-24
24,-24,-48,0,36,-36,4,-9,-4,-4,4,-29
19,-24,-43,2,31,-34,4,-9,-4,-4,4,-34
14,-24,-39,4,26,-31,4,-9,-4,-4,4,-39
24,-24,-48,0,36,-36,4,-9,-9,-4,0,-39
24,-24,-48,0,36,-36,4,-9,-9,-9,0,-48
24,-24,-48,0,36,-36,4,-14,-4,-9,0,-48
24,-24,-48,0,36,-36,4,-14,-4,-4,4,-43
24,-24,-48,0,36,-36,4,-9,-4,-4,-4,-34
24,-29,-53,2,39,-41,4,-9,-4,-4,-4,-29
24,-29,-53,2,39,-41,4,-9,-14,-4,-4,-29
19,-34,-53,7,36,-43,4,-9,-14,-14,-14,-34
19,-24,-43,2,31,-34,4,-19,-9,-4,-9,-29
19,-24,-43,2,31,-34,4,-19,-9,-4,-9,-29
24,-24,-48,0,36,-36,4,-14,-9,-4,-4,-29
24,-24,-48,0,36,-36,4,-14,-9,-4,0,-29
14,-34,-48,9,31,-41,4,-9,-9,-14,-4,-29
14,-34,-48,9,31,-41,4,-9,-9,-14,-4,-34
14,-34,-48,9,31,-41,9,-9,-9,-14,-4,-48
14,-34,-48,9,31,-41,9,-9,-9,-14,-4,-53
24,-29,-53,2,39,-41,9,-9,-9,-4,4,-48
19,-29,-48,4,34,-39,9,-9,-4,0,9,-39
19,-29,-48,4,34,-39,9,-9,-4,0,14,-34
19,-29,-48,4,34,-39,9,-9,-4,0,24,-29
19,-19,-39,0,29,-29,9,-9,0,-9,14,-24
19,-24,-43,2,31,-34,9,-9,0,-9,9,-24
24,-24,-48,0,36,-36,9,-9,0,-9,9,-29
24,-19,-43,-2,34,-31,9,-9,0,-9,4,-34
19,-29,-48,4,34,-39,9,-4,-9,-24,0,-39
19,-29,-48,4,34,-39,9,-4,-9,-24,-4,-43
19,-29,-48,4,34,-39,9,-4,-9,-24,-9,-48
19,-24,-43,2,31,-34,9,-4,-9,-24,-14,-53
14,-34,-48,9,31,-41,14,-4,-4,-19,-4,-39
14,-34,-48,9,31,-41,14,-9,-4,-14,-4,-39
19,-34,-53,7,36,-43,9,-9,-4,-9,-4,-39
19,-34,-53,7,36,-43,9,-9,-9,-4,-9,-39
19,-29,-48,4,34,-39,9,-9,0,-4,-4,-29
19,-24,-43,2,31,-34,9,-9,0,-4,4,-29
19,-19,-39,0,29,-29,9,-9,0,0,9,-29
19,-14,-34,-2,26,-24,9,-9,-4,0,9,-29
9,-19,-29,4,19,-24,9,-9,-4,-14,4,-43
9,-19,-29,4,19,-24,9,-9,-4,-14,0,-43
9,-19,-29,4,19,-24,9,-9,-4,-24,-9,-43
9,-19,-29,4,19,-24,9,-9,-9,-24,-14,-53
9,-34,-43,12,26,-39,19,-9,-9,-29,-24,-63
9,-34,-43,12,26,-39,24,-9,-4,-29,-24,-58
9,-34,-43,12,26,-39,24,-14,-4,-24,-19,-58
9,-34,-43,12,26,-39,24,-14,-4,-24,-19,-58
9,-39,-48,14,29,-43,19,-14,-4,-19,-9,-43
9,-39,-48,14,29,-43,19,-14,-4,-14,-4,-43
4,-39,-43,17,24,-41,19,-14,-4,-9,-4,-43
4,-34,-39,14,21,-36,19,-14,-4,-4,-4,-43
4,-24,-29,9,17,-26,19,-14,-4,-19,-4,-43
4,-24,-29,9,17,-26,19,-14,-9,-19,-9,-48
4,-24,-29,9,17,-26,19,-14,-9,-19,-9,-48
4,-24,-29,9,17,-26,19,-14,-9,-19,-9,-48
4,-24,-29,9,17,-26,19,-14,-4,-19,-9,-48
4,-24,-29,9,17,-26,19,-14,-4,-19,-9,-43
4,-24,-29,9,17,-26,19,-14,-9,-19,-14,-43
4,-24,-29,9,17,-26,19,-14,-9,-19,-14,-43
14,-34,-48,9,31,-41,19,-24,-9,-19,-24,-58
14,-34,-48,9,31,-41,19,-24,-9,-19,-24,-58
14,-34,-48,9,31,-41,19,-24,-9,-19,-24,-58
14,-34,-48,9,31,-41,19,-24,-9,-19,-24,-58
4,-34,-39,14,21,-36,29,-19,0,-9,-19,-53
4,-34,-39,14,21,-36,29,-19,4,-9,-14,-48
4,-34,-39,14,21,-36,29,-19,4,-9,-9,-43
4,-34,-39,14,21,-36,29,-19,4,-9,-4,-39
4,-24,-29,9,17,-26,19,-29,4,0,-4,-39
4,-24,-29,9,17,-26,19,-34,4,-4,-4,-39
4,-24,-29,9,17,-26,19,-34,4,-4,-4,-39
4,-24,-29,9,17,-26,19,-29,4,-4,-4,-39
4,-34,-39,14,21,-36,19,-19,-4,-14,-19,-53
4,-34,-39,14,21,-36,19,-24,-9,-24,-29,-63
4,-34,-39,14,21,-36,19,-29,-9,-34,-34,-68
4,-34,-39,14,21,-36,19,-29,-14,-43,-43,-78
4,-43,-48,19,26,-46,19,-19,-9,-29,-39,-68
4,-43,-48,19,26,-46,19,-19,-9,-34,-34,-68
4,-43,-48,19,26,-46,19,-19,-9,-29,-24,-68
4,-43,-48,19,26,-46,19,-19,-9,-19,-19,-58
4,-34,-39,14,21,-36,19,-19,-9,-19,-9,-53
4,-34,-39,14,21,-36,19,-24,-9,-19,-9,-48
4,-34,-39,14,21,-36,19,-24,-9,-19,-9,-43
4,-34,-39,14,21,-36,19,-24,-9,-19,-9,-43
4,-34,-39,14,21,-36,9,-34,-9,-29,-19,-53
4,-29,-34,12,19,-31,4,-34,-9,-29,-19,-53
4,-29,-34,12,19,-31,4,-34,-9,-29,-19,-53
4,-29,-34,12,19,-31,9,-29,-14,-29,-29,-58
4,-39,-43,17,24,-41,19,-19,-14,-19,-29,-58
4,-39,-43,17,24,-41,19,-24,-14,-24,-29,-58
4,-43,-48,19,26,-46,19,-24,-14,-24,-29,-63
9,-43,-53,17,31,-48,19,-29,-14,-24,-34,-68
9,-39,-48,14,29,-43,9,-39,-14,-29,-34,-68
9,-39,-48,14,29,-43,9,-39,-14,-29,-34,-68
9,-39,-48,14,29,-43,9,-39,-19,-24,-29,-68
4,-39,-43,17,24,-41,9,-39,-19,-24,-29,-63
4,-29,-34,12,19,-31,19,-34,-14,-24,-24,-58
4,-29,-34,12,19,-31,19,-34,-14,-24,-24,-58
4,-24,-29,9,17,-26,19,-34,-14,-24,-24,-58
4,-24,-29,9,17,-26,19,-34,-14,-24,-24,-63
-4,-29,-24,17,9,-26,19,-29,-24,-34,-34,-73
-4,-34,-29,19,12,-31,19,-34,-24,-34,-39,-73
0,-39,-39,19,19,-39,19,-34,-24,-39,-43,-73
0,-43,-43,21,21,-43,19,-29,-24,-43,-48,-73
0,-43,-43,21,21,-43,9,-29,-19,-43,-39,-73
0,-43,-43,21,21,-43,9,-29,-19,-39,-39,-73
0,-43,-43,21,21,-43,9,-29,-19,-34,-39,-73
0,-39,-39,19,19,-39,9,-29,-14,-34,-39,-73
4,-39,-43,17,24,-41,9,-29,-14,-34,-34,-68
4,-43,-48,19,26,-46,9,-29,-19,-34,-29,-63
4,-43,-48,19,26,-46,9,-29,-19,-34,-24,-58
4,-43,-48,19,26,-46,9,-29,-14,-34,-19,-48
4,-34,-39,14,21,-36,9,-39,-19,-34,-24,-58
9,-29,-39,9,24,-34,9,-39,-19,-34,-29,-53
9,-29,-39,9,24,-34,9,-39,-19,-34,-24,-53
4,-29,-34,12,19,-31,9,-39,-19,-34,-29,-53
4,-39,-43,17,24,-41,19,-39,-19,-39,-39,-58
4,-39,-43,17,24,-41,14,-39,-19,-39,-39,-63
9,-39,-48,14,29,-43,14,-39,-24,-39,-43,-68
9,-39,-48,14,29,-43,14,-39,-24,-39,-43,-73
0,-39,-39,19,19,-39,9,-39,-24,-39,-39,-63
4,-39,-43,17,24,-41,9,-39,-24,-39,-39,-58
4,-39,-43,17,24,-41,9,-39,-24,-39,-39,-58
4,-39,-43,17,24,-41,9,-39,-24,-39,-39,-58
4,-29,-34,12,19,-31,9,-29,-14,-34,-29,-58
4,-34,-39,14,21,-36,9,-29,-14,-34,-29,-58
4,-34,-39,14,21,-36,9,-29,-14,-34,-29,-58
4,-34,-39,14,21,-36,9,-29,-14,-39,-29,-58
4,-34,-39,14,21,-36,9,-39,-19,-39,-19,-48
4,-34,-39,14,21,-36,9,-39,-19,-39,-24,-48
4,-34,-39,14,21,-36,9,-39,-19,-43,-29,-53
0,-43,-43,21,21,-43,9,-39,-19,-43,-29,-53
0,-39,-39,19,19,-39,9,-39,-19,-34,-29,-63
0,-39,-39,19,19,-39,9,-39,-19,-34,-29,-63
-4,-39,-34,21,14,-36,9,-39,-24,-34,-29,-63
-4,-34,-29,19,12,-31,9,-39,-24,-34,-34,-63
0,-43,-43,21,21,-43,9,-34,-24,-48,-43,-63
0,-43,-43,21,21,-43,9,-34,-19,-48,-43,-58
0,-43,-43,21,21,-43,9,-34,-19,-48,-39,-58
-4,-43,-39,24,17,-41,9,-34,-24,-48,-39,-68
-4,-34,-29,19,12,-31,19,-24,-24,-43,-29,-58
-4,-34,-29,19,12,-31,19,-29,-24,-39,-29,-58
-4,-34,-29,19,12,-31,19,-34,-24,-34,-29,-58
-4,-34,-29,19,12,-31,19,-34,-24,-29,-29,-58
4,-43,-48,19,26,-46,9,-34,-24,-29,-39,-58
4,-48,-53,21,29,-51,9,-34,-24,-34,-39,-58
4,-48,-53,21,29,-51,9,-34,-24,-39,-39,-58
4,-48,-53,21,29,-51,9,-34,-24,-43,-39,-58
-4,-48,-43,26,19,-46,19,-34,-24,-43,-34,-68
-4,-48,-43,26,19,-46,19,-34,-24,-43,-34,-68
-4,-48,-43,26,19,-46,19,-34,-24,-43,-34,-68
-4,-48,-43,26,19,-46,19,-34,-24,-43,-34,-68
-4,-43,-39,24,17,-41,19,-39,-14,-39,-29,-63
-4,-43,-39,24,17,-41,19,-39,-14,-34,-24,-58
-4,-43,-39,24,17,-41,19,-34,-14,-29,-24,-53
-4,-43,-39,24,17,-41,19,-34,-14,-24,-19,-48
-14,-39,-24,26,4,-31,19,-34,-24,-39,-29,-58
-14,-39,-24,26,4,-31,19,-34,-24,-39,-29,-58
-4,-43,-39,24,17,-41,19,-34,-24,-39,-29,-58
-4,-43,-39,24,17,-41,19,-34,-24,-39,-29,-63
-4,-53,-48,29,21,-51,19,-34,-29,-58,-48,-73
0,-48,-48,24,24,-48,19,-29,-19,-53,-53,-73
0,-48,-48,24,24,-48,19,-39,-19,-48,-39,-68
-9,-48,-39,29,14,-43,19,-39,-19,-43,-34,-63
-9,-48,-39,29,14,-43,19,-39,-19,-39,-29,-58
-9,-48,-39,29,14,-43,19,-39,-19,-34,-24,-53
-9,-48,-39,29,14,-43,19,-39,-19,-29,-19,-48
-9,-39,-29,24,9,-34,9,-39,-19,-39,-24,-48
-9,-39,-29,24,9,-34,9,-39,-19,-39,-29,-48
-9,-39,-29,24,9,-34,9,-39,-19,-39,-34,-48
-9,-39,-29,24,9,-34,9,-39,-19,-39,-39,-48
-9,-48,-39,29,14,-43,19,-39,-29,-48,-48,-53
-9,-48,-39,29,14,-43,19,-39,-29,-48,-48,-58
-9,-48,-39,29,14,-43,19,-39,-29,-48,-48,-63
-9,-48,-39,29,14,-43,19,-39,-29,-48,-48,-68
-9,-58,-48,34,19,-53,19,-39,-19,-48,-39,-58
-9,-58,-48,34,19,-53,19,-39,-19,-48,-39,-58
-9,-58,-48,34,19,-53,19,-39,-19,-48,-39,-58
-9,-58,-48,34,19,-53,19,-39,-19,-48,-39,-58
-9,-43,-34,26,12,-39,19,-39,-9,-34,-24,-43
-9,-39,-29,24,9,-34,19,-39,-9,-29,-19,-39
-9,-34,-24,21,7,-29,19,-39,-9,-24,-14,-34
-9,-29,-19,19,4,-24,19,-39,-9,-19,-9,-29
-19,-39,-19,29,0,-29,19,-39,-19,-24,-24,-43
-19,-39,-19,29,0,-29,19,-39,-19,-29,-29,-48
-19,-39,-19,29,0,-29,19,-39,-19,-34,-34,-53
-19,-39,-19,29,0,-29,19,-39,-19,-39,-39,-58
-19,-43,-24,31,2,-34,19,-29,-19,-48,-48,-63
-19,-48,-29,34,4,-39,19,-29,-19,-48,-48,-68
-19,-53,-34,36,7,-43,19,-29,-19,-48,-48,-73
-19,-58,-39,39,9,-48,19,-29,-19,-48,-48,-78
-9,-58,-48,34,19,-53,29,-29,-19,-43,-43,-63
-9,-58,-48,34,19,-53,29,-29,-19,-39,-39,-58
-9,-58,-48,34,19,-53,29,-29,-19,-34,-34,-53
-9,-58,-48,34,19,-53,29,-29,-19,-29,-29,-48
-9,-48,-39,29,14,-43,24,-39,-19,-34,-29,-58
-9,-48,-39,29,14,-43,19,-39,-19,-39,-29,-58
-9,-48,-39,29,14,-43,14,-39,-19,-43,-29,-58
-9,-48,-39,29,14,-43,9,-39,-19,-48,-29,-58
-9,-48,-39,29,14,-43,19,-29,-19,-39,-39,-58
-9,-48,-39,29,14,-43,19,-29,-19,-39,-39,-58
-9,-48,-39,29,14,-43,19,-29,-19,-39,-39,-58
-9,-48,-39,29,14,-43,19,-29,-19,-39,-39,-58
-19,-39,-19,29,0,-29,19,-39,-19,-39,-29,-48
-19,-39,-19,29,0,-29,19,-39,-19,-39,-29,-48
-19,-39,-19,29,0,-29,19,-39,-19,-39,-29,-48
-19,-39,-19,29,0,-29,19,-39,-19,-39,-29,-48
-9,-43,-34,26,12,-39,19,-29,-29,-48,-39,-58
-9,-48,-39,29,14,-43,19,-29,-29,-48,-39,-58
-9,-53,-43,31,17,-48,19,-29,-29,-48,-39,-58
-9,-58,-48,34,19,-53,19,-29,-29,-48,-39,-58
-9,-58,-48,34,19,-53,19,-29,-19,-39,-29,-48
-9,-58,-48,34,19,-53,19,-29,-19,-39,-29,-48
-9,-58,-48,34,19,-53,19,-29,-19,-39,-29,-48
-9,-58,-48,34,19,-53,19,-29,-19,-39,-29,-48
-9,-53,-43,31,17,-48,19,-39,-19,-39,-29,-43
-9,-48,-39,29,14,-43,19,-39,-19,-39,-29,-39
-9,-43,-34,26,12,-39,19,-39,-19,-39,-29,-34
-9,-39,-29,24,9,-34,19,-39,-19,-39,-29,-29
-9,-43,-34,26,12,-39,19,-29,-19,-39,-39,-34
-9,-48,-39,29,14,-43,19,-29,-19,-39,-39,-39
-9,-53,-43,31,17,-48,19,-29,-19,-39,-39,-43
-9,-58,-48,34,19,-53,19,-29,-19,-39,-39,-48
-9,-48,-39,29,14,-43,19,-39,-19,-29,-34,-48
-9,-48,-39,29,14,-43,19,-39,-19,-29,-29,-48
-9,-48,-39,29,14,-43,19,-39,-19,-29,-24,-48
-9,-48,-39,29,14,-43,19,-39,-19,-29,-19,-48
-9,-39,-29,24,9,-34,9,-39,-29,-34,-24,-58
-9,-39,-29,24,9,-34,9,-39,-29,-39,-29,-58
-9,-39,-29,24,9,-34,9,-39,-29,-43,-34,-58
-9,-39,-29,24,9,-34,9,-39,-29,-48,-39,-58
-19,-48,-29,34,4,-39,19,-39,-19,-39,-29,-48
-19,-48,-29,34,4,-39,19,-39,-19,-39,-29,-48
-19,-48,-29,34,4,-39,19,-39,-19,-39,-29,-48
-19,-48,-29,34,4,-39,19,-39,-19,-39,-29,-48
-19,-48,-29,34,4,-39,19,-39,-29,-48,-34,-58
-19,-48,-29,34,4,-39,19,-39,-29,-48,-39,-58
-19,-48,-29,34,4,-39,19,-39,-29,-48,-43,-58
-19,-48,-29,34,4,-39,19,-39,-29,-48,-48,-58
-19,-58,-39,39,9,-48,19,-39,-19,-39,-39,-58
-19,-58,-39,39,9,-48,19,-39,-19,-39,-39,-58
-19,-58,-39,39,9,-48,19,-39,-19,-39,-39,-58
-19,-58,-39,39,9,-48,19,-39,-19,-39,-39,-58
-9,-48,-39,29,14,-43,19,-29,-9,-34,-34,-43
-9,-48,-39,29,14,-43,19,-29,-9,-29,-29,-39
-9,-48,-39,29,14,-43,19,-29,-9,-24,-24,-34
-9,-48,-39,29,14,-43,19,-29,-9,-19,-19,-29
-9,-39,-29,24,9,-34,9,-39,-19,-34,-34,-34
-9,-39,-29,24,9,-34,9,-39,-19,-39,-39,-39
-9,-43,-34,26,12,-39,9,-43,-19,-43,-48,-43
-4,-43,-39,24,17,-41,14,-43,-19,-53,-53,-48
-14,-53,-39,34,12,-46,14,-43,-24,-43,-43,-58
-14,-53,-39,34,12,-46,14,-39,-24,-43,-48,-63
-14,-53,-39,34,12,-46,14,-39,-24,-43,-53,-63
-19,-53,-34,36,7,-43,14,-39,-24,-43,-58,-68
-19,-53,-34,36,7,-43,14,-29,-9,-39,-43,-58
-19,-48,-29,34,4,-39,14,-29,-9,-29,-29,-48
-14,-48,-34,31,9,-41,14,-29,-9,-24,-24,-39
-14,-48,-34,31,9,-41,14,-29,-4,-19,-19,-29
-24,-48,-24,36,0,-36,14,-29,-14,-29,-29,-29
-24,-48,-24,36,0,-36,14,-29,-14,-29,-29,-34
-24,-39,-14,31,-4,-26,9,-29,-9,-24,-19,-29
-19,-34,-14,26,-2,-24,9,-29,-4,-19,-19,-29
-9,-34,-24,21,7,-29,14,-19,-4,-14,-14,-29
-4,-34,-29,19,12,-31,14,-19,-4,-9,-9,-24
-4,-24,-19,14,7,-21,14,-14,4,0,-9,-24
-4,-19,-14,12,4,-17,14,-9,14,4,-4,-19
-9,-4,4,7,-7,0,29,-9,24,14,4,-9
-4,0,4,2,-4,2,34,0,29,19,14,-4
-4,0,4,2,-4,2,34,4,43,29,29,9
-4,0,4,2,-4,2,34,4,48,29,34,19
4,-9,-14,2,9,-12,34,-4,39,24,24,14
14,0,-14,-7,14,-7,34,4,39,24,19,9
14,0,-14,-7,14,-7,29,4,34,19,14,9
19,0,-19,-9,19,-9,29,4,29,14,14,4
29,0,-29,-14,29,-14,19,4,39,24,4,0
39,4,-34,-21,36,-14,19,4,48,34,14,-4
39,9,-29,-24,34,-9,24,4,53,39,14,-4
43,9,-34,-26,39,-12,24,14,58,43,19,-4
39,14,-24,-26,31,-4,14,19,58,43,24,9
39,14,-24,-26,31,-4,14,19,53,43,34,19
43,14,-29,-29,36,-7,9,19,53,48,39,24
48,19,-29,-34,39,-4,4,19,53,48,53,34
58,24,-34,-41,46,-4,9,29,58,58,68,48
58,24,-34,-41,46,-4,4,34,63,68,68,48
68,24,-43,-46,56,-9,0,48,73,78,73,58
73,19,-53,-46,63,-17,-4,53,78,82,73,58
63,9,-53,-36,58,-21,-4,48,73,68,58,48
63,9,-53,-36,58,-21,-4,39,63,53,53,43
58,4,-53,-31,56,-24,0,29,48,48,53,34
58,-4,-63,-26,61,-34,0,19,34,34,43,19
53,-24,-78,-14,65,-51,0,14,19,24,24,19
53,-29,-82,-12,68,-56,0,14,9,14,19,9
53,-34,-87,-9,70,-61,0,4,4,4,14,4
48,-43,-92,-2,70,-68,0,4,-4,0,0,-4
34,-34,-68,0,51,-51,-9,-14,-4,4,0,4
29,-34,-63,2,46,-48,-9,-19,-4,0,0,0
24,-34,-58,4,41,-46,-9,-24,-4,-4,4,-4
19,-39,-58,9,39,-48,-9,-24,-14,-9,4,-9
19,-34,-53,7,36,-43,-9,-34,-9,-9,0,-14
19,-34,-53,7,36,-43,-4,-34,-14,-9,-4,-19
9,-39,-48,14,29,-43,-4,-34,-14,-14,-9,-24
9,-43,-53,17,31,-48,-4,-34,-9,-14,-9,-24
4,-53,-58,24,31,-56,4,-24,-14,-29,-24,-29
4,-48,-53,21,29,-51,9,-24,-19,-34,-29,-29
0,-48,-48,24,24,-48,24,-24,-19,-34,-29,-29
-4,-53,-48,29,21,-51,24,-24,-24,-39,-34,-34
-29,-63,-34,46,2,-48,14,-29,-14,-29,-29,-39
-29,-63,-34,46,2,-48,9,-34,-19,-34,-39,-43
-34,-68,-34,51,0,-51,9,-39,-19,-43,-43,-48
-39,-68,-29,53,-4,-48,9,-39,-24,-48,-43,-48
-43,-73,-29,58,-7,-51,19,-43,-29,-43,-34,-48
-48,-73,-24,61,-12,-48,19,-48,-29,-43,-39,-48
-48,-73,-24,61,-12,-48,19,-48,-29,-43,-39,-48
-48,-78,-29,63,-9,-53,19,-48,-34,-43,-39,-58
-48,-73,-24,61,-12,-48,19,-58,-34,-53,-48,-68
-48,-63,-14,56,-17,-39,19,-53,-34,-53,-53,-68
-48,-58,-9,53,-19,-34,19,-53,-29,-53,-58,-68
-43,-53,-9,48,-17,-31,19,-53,-29,-53,-63,-68
-34,-63,-29,48,-2,-46,19,-53,-29,-53,-48,-58
-34,-63,-29,48,-2,-46,19,-53,-34,-53,-48,-58
-34,-63,-29,48,-2,-46,19,-53,-34,-53,-53,-58
-34,-63,-29,48,-2,-46,24,-48,-29,-48,-53,-58
-43,-63,-19,53,-12,-41,14,-39,-29,-39,-43,-48
-43,-58,-14,51,-14,-36,14,-39,-24,-39,-39,-43
-43,-58,-14,51,-14,-36,14,-43,-24,-39,-39,-39
-48,-58,-9,53,-19,-34,14,-43,-24,-39,-39,-34
-48,-48,0,48,-24,-24,14,-43,-24,-39,-48,-39
-48,-48,0,48,-24,-24,19,-43,-29,-48,-53,-48
-48,-48,0,48,-24,-24,19,-43,-29,-48,-53,-53
-48,-48,0,48,-24,-24,14,-43,-24,-48,-53,-58
-48,-58,-9,53,-19,-34,24,-43,-24,-48,-48,-48
-48,-58,-9,53,-19,-34,24,-43,-24,-43,-48,-43
-48,-58,-9,53,-19,-34,24,-48,-24,-39,-48,-43
-53,-58,-4,56,-24,-31,29,-48,-24,-39,-43,-43
-58,-68,-9,63,-24,-39,43,-24,-14,-34,-34,-34
-58,-73,-14,65,-21,-43,48,-9,-14,-34,-34,-43
-53,-82,-29,68,-12,-56,53,-4,-4,-14,-24,-43
-43,-82,-39,63,-2,-61,63,29,14,14,14,-14
-39,-73,-34,56,-2,-53,73,63,48,63,58,24
-39,-63,-24,51,-7,-43,82,87,73,102,97,63
-19,-53,-34,36,7,-43,102,131,112,146,141,97
24,-53,-78,14,51,-65,102,200,122,180,175,131
82,-53,-136,-14,109,-95,78,283,122,214,229,180
180,-48,-229,-65,204,-139,58,370,126,253,287,244
297,-34,-331,-131,314,-183,14,468,117,292,356,307
414,-14,-429,-200,422,-222,-29,585,131,361,439,390
541,4,-536,-273,539,-265,-58,717,180,463,541,492
673,34,-639,-353,656,-302,-82,888,244,605,688,624
810,92,-717,-451,763,-312,-102,1088,341,780,878,775
912,170,-741,-541,827,-285,-112,1278,478,961,1049,907
976,273,-702,-624,839,-214,-122,1415,575,1093,1171,1005
1005,366,-639,-685,822,-136,-136,1444,629,1112,1161,1005
966,395,-570,-680,768,-87,-131,1376,605,995,990,854
893,395,-497,-644,695,-51,-122,1215,522,790,741,614
771,414,-356,-592,563,29,-131,941,439,610,541,444
575,434,-141,-505,358,146,-102,610,380,444,390,326
312,439,126,-375,92,283,-43,263,307,278,234,219
102,444,341,-273,-119,392,-9,-58,209,136,122,156
-58,375,434,-158,-246,405,34,-253,92,-9,19,78
-161,229,390,-34,-275,309,117,-292,-53,-185,-141,-68
-190,122,312,34,-251,217,151,-297,-190,-336,-278,-190
-185,102,287,41,-236,195,131,-292,-244,-366,-297,-200
-195,68,263,63,-229,165,165,-248,-204,-317,-253,-170
-204,-14,190,109,-197,87,224,-185,-209,-317,-278,-209
-190,-97,92,143,-141,-2,195,-195,-307,-395,-346,-273
-180,-146,34,163,-107,-56,141,-214,-400,-463,-400,-307
-190,-185,4,187,-97,-90,131,-195,-429,-483,-429,-326
-190,-200,-9,195,-90,-104,97,-224,-414,-458,-414,-317
-180,-161,19,170,-100,-70,29,-278,-366,-395,-351,-278
-151,-131,19,141,-85,-56,-14,-273,-317,-331,-292,-229
-136,-112,24,124,-80,-43,-4,-219,-258,-278,-248,-200
-102,-87,14,95,-58,-36,-9,-190,-185,-214,-195,-151
-68,-63,4,65,-36,-29,-14,-156,-107,-141,-131,-102
-43,-43,0,43,-21,-21,-4,-102,-53,-73,-78,-68
-48,-39,9,43,-29,-14,9,-73,-34,-48,-58,-48
-58,-24,34,41,-46,4,9,-58,-34,-39,-48,-39
-58,-14,43,36,-51,14,14,-48,-29,-29,-29,-34
-58,-24,34,41,-46,4,14,-48,-29,-24,-14,-24
-63,-24,39,43,-51,7,14,-48,-24,-14,-4,-19
-58,-24,34,41,-46,4,19,-58,-24,-19,-9,-24
-58,-24,34,41,-46,4,19,-63,-19,-24,-14,-24
-58,-24,34,41,-46,4,19,-63,-14,-34,-24,-19
-53,-24,29,39,-41,2,19,-63,-14,-43,-29,-19
-53,-29,24,41,-39,-2,29,-53,-24,-53,-34,-29
-53,-39,14,46,-34,-12,29,-48,-29,-53,-43,-34
-53,-43,9,48,-31,-17,29,-43,-29,-48,-48,-43
-53,-53,0,53,-26,-26,34,-43,-29,-48,-43,-48
-53,-63,-9,58,-21,-36,29,-34,-24,-29,-43,-53
-53,-58,-4,56,-24,-31,29,-34,-19,-29,-39,-48
-53,-58,-4,56,-24,-31,29,-34,-19,-29,-39,-48
-53,-58,-4,56,-24,-31,29,-34,-14,-24,-29,-43
-53,-48,4,51,-29,-21,39,-43,-14,-24,-19,-34
-53,-48,4,51,-29,-21,39,-34,-14,-19,-19,-29
-53,-48,4,51,-29,-21,39,-34,-14,-14,-19,-24
-53,-48,4,51,-29,-21,39,-29,-14,-14,-19,-24
-53,-43,9,48,-31,-17,29,-29,0,-19,-19,-19
-53,-43,9,48,-31,-17,29,-29,0,-14,-9,-19
-53,-43,9,48,-31,-17,29,-29,0,-9,-9,-19
-53,-43,9,48,-31,-17,29,-29,0,-4,-9,-19
-53,-43,9,48,-31,-17,29,-29,-9,-14,-14,-34
-48,-43,4,46,-26,-19,29,-29,-9,-19,-19,-34
-48,-43,4,46,-26,-19,29,-19,-9,-19,-19,-34
-48,-43,4,46,-26,-19,29,-19,-4,-19,-24,-29
-48,-53,-4,51,-21,-29,34,-9,4,-4,-24,-39
-43,-53,-9,48,-17,-31,34,-9,9,-4,-24,-34
-43,-53,-9,48,-17,-31,29,-9,9,-9,-24,-34
-43,-53,-9,48,-17,-31,29,-9,4,-14,-29,-39
-43,-48,-4,46,-19,-26,39,-14,4,-9,-19,-19
-43,-43,0,43,-21,-21,39,-14,9,0,-4,-9
-43,-39,4,41,-24,-17,39,-14,14,9,4,0
-43,-34,9,39,-26,-12,39,-14,14,14,19,14
-34,-34,0,34,-17,-17,29,0,4,4,4,4
-34,-34,0,34,-17,-17,29,0,4,0,0,0
-34,-34,0,34,-17,-17,29,0,0,-4,-4,-9
-34,-34,0,34,-17,-17,29,0,0,-9,-9,-19
-29,-43,-14,36,-7,-29,39,-4,9,0,-9,-19
-29,-43,-14,36,-7,-29,39,-4,9,0,-9,-19
-29,-39,-9,34,-9,-24,39,-4,9,0,-4,-19
-29,-39,-9,34,-9,-24,39,0,9,0,-4,-24
-29,-29,0,29,-14,-14,39,0,9,0,-19,-24
-29,-29,0,29,-14,-14,39,0,9,0,-19,-24
-29,-29,0,29,-14,-14,39,0,9,4,-14,-24
-29,-29,0,29,-14,-14,39,4,9,9,-14,-24
-29,-39,-9,34,-9,-24,39,14,14,4,-4,-14
-24,-39,-14,31,-4,-26,39,14,14,4,4,-9
-24,-39,-14,31,-4,-26,39,14,14,4,4,-4
-24,-34,-9,29,-7,-21,39,14,14,4,4,-4
-34,-43,-9,39,-12,-26,29,4,4,9,4,-4
-34,-43,-9,39,-12,-26,29,4,4,9,4,-4
-34,-43,-9,39,-12,-26,29,14,9,14,4,-4
-34,-43,-9,39,-12,-26,29,14,9,14,4,-4
-34,-34,0,34,-17,-17,29,4,9,14,4,-4
-34,-34,0,34,-17,-17,29,4,9,19,14,-4
-34,-34,0,34,-17,-17,29,4,9,19,14,0
-34,-34,0,34,-17,-17,29,4,9,19,9,0
-24,-34,-9,29,-7,-21,19,9,9,9,-4,-4
-24,-34,-9,29,-7,-21,19,9,9,9,-4,-4
-24,-34,-9,29,-7,-21,19,9,9,9,-4,-4
-24,-34,-9,29,-7,-21,19,9,9,9,0,-4
-24,-43,-19,34,-2,-31,19,19,19,14,9,-4
-19,-43,-24,31,2,-34,19,24,19,19,9,0
-19,-43,-24,31,2,-34,19,24,19,34,19,4
-19,-39,-19,29,0,-29,19,24,29,39,24,4
-19,-39,-19,29,0,-29,19,24,19,34,24,4
-19,-39,-19,29,0,-29,19,24,19,34,24,9
-19,-39,-19,29,0,-29,19,24,19,39,24,9
-19,-39,-19,29,0,-29,19,29,19,39,24,9
-14,-29,-14,21,0,-21,19,29,29,29,19,4
-14,-29,-14,21,0,-21,19,34,34,29,19,0
-14,-34,-19,24,2,-26,14,34,34,29,14,-4
-14,-34,-19,24,2,-26,14,39,39,29,4,-9
-14,-34,-19,24,2,-26,19,39,29,29,14,0
-14,-34,-19,24,2,-26,19,39,29,34,19,0
-14,-34,-19,24,2,-26,14,43,29,34,29,0
-9,-34,-24,21,7,-29,14,43,29,39,29,4
-19,-39,-19,29,0,-29,19,43,29,39,29,4
-14,-43,-29,29,7,-36,19,48,29,39,29,9
-14,-39,-24,26,4,-31,19,48,29,43,34,9
-14,-43,-29,29,7,-36,14,53,34,43,34,9
-19,-39,-19,29,0,-29,14,58,39,53,43,19
-19,-34,-14,26,-2,-24,9,58,39,58,48,24
-14,-29,-14,21,0,-21,9,58,39,63,58,34
-14,-24,-9,19,-2,-17,9,58,39,68,63,39
-4,-24,-19,14,7,-21,9,63,34,63,39,19
0,-24,-24,12,12,-24,9,63,34,58,34,14
0,-24,-24,12,12,-24,9,73,34,58,34,9
0,-29,-29,14,14,-29,9,78,34,58,34,4
4,-34,-39,14,21,-36,14,78,43,68,48,19
4,-34,-39,14,21,-36,14,78,53,78,48,19
4,-39,-43,17,24,-41,14,82,53,78,53,24
9,-43,-53,17,31,-48,14,82,53,78,53,24
9,-29,-39,9,24,-34,0,78,58,87,58,34
14,-29,-43,7,29,-36,0,82,58,87,68,34
14,-29,-43,7,29,-36,0,82,63,92,78,34
14,-29,-43,7,29,-36,0,82,63,97,82,39
4,-19,-24,7,14,-21,4,92,53,82,68,29
9,-19,-29,4,19,-24,4,97,53,82,63,29
9,-19,-29,4,19,-24,4,97,58,78,58,29
9,-19,-29,4,19,-24,4,97,58,78,58,34
19,-19,-39,0,29,-29,-4,102,58,87,73,34
24,-14,-39,-4,31,-26,-4,102,63,92,73,34
24,-14,-39,-4,31,-26,-4,107,63,92,68,29
19,-19,-39,0,29,-29,-4,117,58,97,68,29
19,-19,-39,0,29,-29,0,126,48,97,63,29
24,-19,-43,-2,34,-31,0,131,48,92,53,29
24,-19,-43,-2,34,-31,0,131,48,82,48,24
29,-19,-48,-4,39,-34,0,131,48,78,43,24
29,-19,-48,-4,39,-34,-9,126,58,92,53,29
34,-14,-48,-9,41,-31,-9,131,63,102,68,39
34,-14,-48,-9,41,-31,-9,131,63,112,82,43
24,-19,-43,-2,34,-31,-9,131,63,117,92,48
24,-19,-43,-2,34,-31,-9,136,58,102,78,34
29,-14,-43,-7,36,-29,-9,136,58,102,78,34
29,-14,-43,-7,36,-29,-9,141,63,107,82,39
24,-14,-39,-4,31,-26,-9,146,63,107,82,39
29,-14,-43,-7,36,-29,-19,156,53,97,82,29
34,-14,-48,-9,41,-31,-19,156,53,97,82,24
43,-14,-58,-14,51,-36,-19,151,53,97,78,24
48,-14,-63,-17,56,-39,-19,151,53,97,73,19
43,-14,-58,-14,51,-36,-19,156,53,97,63,19
39,-14,-53,-12,46,-34,-29,156,53,97,63,14
34,-14,-48,-9,41,-31,-29,156,48,92,58,14
29,-14,-43,-7,36,-29,-29,156,48,82,58,9
39,-24,-63,-7,51,-43,-24,156,48,92,63,14
39,-24,-63,-7,51,-43,-24,156,43,92,63,14
39,-24,-63,-7,51,-43,-24,151,43,92,63,14
39,-29,-68,-4,53,-48,-24,151,43,87,63,14
39,-19,-58,-9,48,-39,-24,141,43,78,48,9
39,-19,-58,-9,48,-39,-34,136,34,78,48,9
39,-19,-58,-9,48,-39,-34,136,34,78,48,9
39,-14,-53,-12,46,-34,-29,136,34,73,48,9
34,-9,-43,-12,39,-26,-29,126,39,73,48,9
29,-9,-39,-9,34,-24,-39,122,39,73,43,14
24,-9,-34,-7,29,-21,-39,117,39,73,43,14
19,-9,-29,-4,24,-19,-34,112,29,68,43,9
29,-9,-39,-9,34,-24,-34,107,39,68,48,14
29,-9,-39,-9,34,-24,-34,97,39,73,48,19
29,0,-29,-14,29,-14,-34,92,43,78,53,24
24,0,-24,-12,24,-12,-34,87,43,87,68,39
24,9,-14,-17,19,-2,-34,82,53,97,73,43
24,9,-14,-17,19,-2,-34,73,53,97,82,48
24,9,-14,-17,19,-2,-29,73,53,97,87,58
19,9,-9,-14,14,0,-29,68,53,87,92,63
9,4,-4,-7,7,0,-24,73,39,68,68,43
9,0,-9,-4,9,-4,-19,68,39,63,53,29
9,-9,-19,0,14,-14,-14,63,39,53,43,19
9,-14,-24,2,17,-19,-4,58,39,48,34,9
9,-14,-24,2,17,-19,-4,58,39,48,29,9
4,-14,-19,4,12,-17,-4,58,39,48,29,9
0,-14,-14,7,7,-14,0,53,39,48,29,14
0,-14,-14,7,7,-14,0,48,34,43,34,14
0,-4,-4,2,2,-4,4,43,39,48,48,29
0,-4,-4,2,2,-4,4,39,43,48,53,34
0,-4,-4,2,2,-4,9,34,48,48,53,39
0,-4,-4,2,2,-4,9,34,53,53,53,39
-14,-4,9,9,-12,2,14,29,48,58,48,48
-14,-9,4,12,-9,-2,14,29,43,53,43,43
-14,-9,4,12,-9,-2,14,24,43,48,39,39
-14,-14,0,14,-7,-7,14,24,43,48,34,34
-9,-29,-19,19,4,-24,14,24,34,34,29,24
-9,-29,-19,19,4,-24,14,19,29,34,19,19
-9,-34,-24,21,7,-29,14,14,29,29,14,14
-9,-34,-24,21,7,-29,14,14,29,29,9,9
-19,-39,-19,29,0,-29,19,14,29,19,9,4
-14,-43,-29,29,7,-36,19,14,29,19,14,0
-14,-48,-34,31,9,-41,19,14,24,19,14,-4
-14,-53,-39,34,12,-46,14,14,24,14,4,-9
-24,-48,-24,36,0,-36,14,14,24,19,19,0
-24,-43,-19,34,-2,-31,14,9,24,24,24,9
-29,-39,-9,34,-9,-24,14,9,24,29,29,19
-34,-34,0,34,-17,-17,14,9,24,34,34,29
-29,-29,0,29,-14,-14,14,9,19,29,14,19
-24,-24,0,24,-12,-12,14,9,19,19,9,9
-19,-19,0,19,-9,-9,14,4,24,14,4,9
-14,-14,0,14,-7,-7,14,4,24,14,4,14
-24,-29,-4,26,-9,-17,14,0,24,14,-4,9
-24,-39,-14,31,-4,-26,14,0,24,14,-4,9
-24,-43,-19,34,-2,-31,14,0,14,14,-4,4
-29,-53,-24,41,-2,-39,14,0,14,4,-14,-4
-29,-53,-24,41,-2,-39,24,0,9,4,-4,-9
-29,-53,-24,41,-2,-39,24,0,9,4,-9,-9
-24,-53,-29,39,2,-41,24,4,9,4,-9,-9
-24,-53,-29,39,2,-41,24,4,9,4,-9,-9
-24,-48,-24,36,0,-36,24,0,19,4,-4,4
-24,-43,-19,34,-2,-31,24,0,19,4,-4,4
-24,-39,-14,31,-4,-26,29,0,19,4,-4,-4
-24,-34,-9,29,-7,-21,29,0,19,4,-4,-4
-24,-29,-4,26,-9,-17,19,9,19,9,4,0
-29,-29,0,29,-14,-14,19,9,24,19,9,9
-29,-29,0,29,-14,-14,19,9,24,24,14,14
-29,-29,0,29,-14,-14,19,9,24,29,24,19
-29,-39,-9,34,-9,-24,29,9,19,24,19,19
-29,-43,-14,36,-7,-29,29,9,19,19,9,14
-24,-43,-19,34,-2,-31,29,9,19,14,4,4
-24,-39,-14,31,-4,-26,29,9,19,9,-4,-4
-39,-39,0,39,-19,-19,29,4,29,14,4,4
-39,-39,0,39,-19,-19,29,4,29,14,4,4
-39,-39,0,39,-19,-19,29,4,29,14,4,4
-39,-34,4,36,-21,-14,29,4,29,14,4,4
-34,-43,-9,39,-12,-26,24,4,29,9,-9,0
-34,-43,-9,39,-12,-26,24,0,24,4,-14,-9
-29,-43,-14,36,-7,-29,19,0,19,0,-19,-19
-29,-43,-14,36,-7,-29,19,0,9,-4,-29,-29
-19,-43,-24,31,2,-34,19,0,19,0,-14,-14
-19,-43,-24,31,2,-34,19,0,19,4,-4,-9
-19,-43,-24,31,2,-34,19,0,19,14,0,-4
-19,-43,-24,31,2,-34,19,0,14,19,0,0
-19,-43,-24,31,2,-34,19,9,14,4,0,4
-19,-39,-19,29,0,-29,19,9,14,4,0,4
-19,-34,-14,26,-2,-24,19,9,14,-4,-4,4
-19,-29,-9,24,-4,-19,19,9,9,-4,-4,-4
-19,-43,-24,31,2,-34,19,9,19,0,-14,-14
-19,-43,-24,31,2,-34,24,9,24,0,-14,-9
-19,-43,-24,31,2,-34,24,4,24,4,-9,-9
-19,-43,-24,31,2,-34,24,4,24,4,-9,-9
-19,-29,-9,24,-4,-19,19,4,14,14,0,-4
-19,-29,-9,24,-4,-19,19,4,14,14,4,-4
-24,-29,-4,26,-9,-17,19,4,14,14,4,-4
-24,-24,0,24,-12,-12,19,4,14,14,4,-4
-24,-24,0,24,-12,-12,19,4,24,9,4,0
-24,-24,0,24,-12,-12,19,4,19,9,0,0
-24,-24,0,24,-12,-12,19,4,19,9,0,4
-24,-24,0,24,-12,-12,19,4,19,9,0,9
-34,-34,0,34,-17,-17,19,-4,14,0,-9,4
-34,-34,0,34,-17,-17,19,-4,14,0,-9,4
-34,-34,0,34,-17,-17,19,-4,9,0,-14,0
-34,-34,0,34,-17,-17,19,-4,9,0,-14,-4
-34,-24,9,29,-21,-7,19,-4,9,0,-14,-19
-34,-24,9,29,-21,-7,19,-4,9,0,-14,-19
-34,-24,9,29,-21,-7,19,-4,9,0,-14,-19
-34,-24,9,29,-21,-7,19,-4,9,0,-14,-19
-34,-24,9,29,-21,-7,9,-9,9,9,-4,-14
-34,-24,9,29,-21,-7,9,-9,14,9,-4,-9
-34,-24,9,29,-21,-7,9,-9,14,9,-4,-4
-34,-24,9,29,-21,-7,9,-9,14,9,-4,0
-34,-34,0,34,-17,-17,9,0,4,4,-9,-9
-34,-34,0,34,-17,-17,9,-4,4,-4,-14,-9
-34,-34,0,34,-17,-17,9,-4,4,-9,-19,-9
-34,-34,0,34,-17,-17,9,0,4,-14,-24,-9
-43,-34,9,39,-26,-12,19,0,4,0,-9,4
-43,-34,9,39,-26,-12,19,-4,9,4,-9,4
-43,-34,9,39,-26,-12,19,-9,19,9,-4,9
-43,-34,9,39,-26,-12,19,-9,24,14,-4,9
-34,-24,9,29,-21,-7,9,-19,19,4,-4,0
-34,-24,9,29,-21,-7,9,-19,19,-4,-4,0
-34,-24,9,29,-21,-7,9,-19,19,-4,0,0
-34,-24,9,29,-21,-7,9,-19,19,0,0,9
-24,-14,9,19,-17,-2,9,-9,9,-9,-14,4
-24,-14,9,19,-17,-2,9,-14,9,-9,-19,0
-24,-14,9,19,-17,-2,9,-14,9,-9,-24,-4
-24,-14,9,19,-17,-2,9,-14,9,-9,-29,-14
-34,-19,14,26,-24,-2,19,-24,19,0,-24,-14
-34,-19,14,26,-24,-2,14,-24,19,0,-19,-14
-34,-24,9,29,-21,-7,14,-24,19,0,-14,-14
-34,-29,4,31,-19,-12,19,-19,14,0,-19,-19
-34,-29,4,31,-19,-12,9,-19,4,-4,-24,-9
-34,-29,4,31,-19,-12,9,-24,4,-14,-29,-9
-34,-34,0,34,-17,-17,9,-24,4,-19,-34,-14
-29,-34,-4,31,-12,-19,9,-29,4,-24,-43,-19
-29,-29,0,29,-14,-14,9,-29,4,-19,-34,-19
-29,-29,0,29,-14,-14,9,-29,4,-19,-34,-19
-29,-29,0,29,-14,-14,9,-29,0,-14,-29,-19
-34,-29,4,31,-19,-12,9,-29,0,-14,-29,-14
-43,-19,24,31,-34,2,19,-24,14,-14,-24,0
-43,-19,24,31,-34,2,19,-24,14,-14,-24,0
-43,-14,29,29,-36,7,19,-24,14,-14,-24,0
-43,-14,29,29,-36,7,19,-24,14,-14,-24,-4
-34,-24,9,29,-21,-7,9,-29,4,-14,-29,-14
-34,-24,9,29,-21,-7,9,-34,4,-14,-29,-14
-29,-24,4,26,-17,-9,9,-34,4,-19,-29,-14
-29,-24,4,26,-17,-9,9,-29,4,-24,-29,-14
-29,-24,4,26,-17,-9,9,-29,0,-14,-29,-14
-29,-24,4,26,-17,-9,9,-29,0,-9,-29,-14
-29,-24,4,26,-17,-9,9,-29,0,-4,-29,-14
-29,-19,9,24,-19,-4,9,-29,4,-4,-29,-14
-34,-29,4,31,-19,-12,9,-29,-4,-19,-39,-19
-34,-34,0,34,-17,-17,9,-29,-9,-24,-39,-24
-34,-34,0,34,-17,-17,9,-29,-9,-29,-39,-29
-34,-34,0,34,-17,-17,9,-29,-4,-34,-39,-29
-43,-34,9,39,-26,-12,9,-29,0,-29,-39,-19
-39,-29,9,34,-24,-9,9,-29,0,-24,-39,-14
-39,-29,9,34,-24,-9,9,-29,0,-19,-29,-14
-43,-29,14,36,-29,-7,9,-29,0,-14,-29,-14
-34,-29,4,31,-19,-12,9,-29,9,-9,-19,-4
-34,-29,4,31,-19,-12,4,-29,9,-9,-19,-4
-29,-29,0,29,-14,-14,4,-29,4,-9,-24,-4
-29,-29,0,29,-14,-14,4,-29,4,-9,-24,-4
-34,-29,4,31,-19,-12,0,-29,9,-14,-34,-19
-34,-29,4,31,-19,-12,0,-29,4,-19,-39,-19
-39,-29,9,34,-24,-9,0,-29,0,-24,-43,-24
-43,-29,14,36,-29,-7,0,-29,-4,-29,-48,-29
-34,-29,4,31,-19,-12,9,-19,-4,-19,-34,-14
-34,-34,0,34,-17,-17,9,-19,-4,-14,-29,-9
-34,-34,0,34,-17,-17,9,-19,-4,-9,-24,-4
-34,-34,0,34,-17,-17,9,-19,-4,-9,-19,0
-34,-24,9,29,-21,-7,9,-29,0,-9,-19,-9
-34,-24,9,29,-21,-7,9,-29,0,-9,-24,-9
-34,-24,9,29,-21,-7,9,-29,0,-14,-29,-14
-39,-34,4,36,-21,-14,9,-29,0,-14,-29,-14
-39,-39,0,39,-19,-19,0,-29,0,-14,-29,-4
-39,-39,0,39,-19,-19,0,-29,0,-14,-29,-4
-43,-39,4,41,-24,-17,0,-29,-4,-14,-29,-4
-43,-34,9,39,-26,-12,0,-29,-4,-14,-34,-4
-39,-24,14,31,-26,-4,0,-34,4,-19,-29,0
-39,-24,14,31,-26,-4,0,-34,9,-19,-24,9
-39,-24,14,31,-26,-4,0,-34,9,-19,-14,14
-43,-24,19,34,-31,-2,0,-34,4,-19,-9,9
-34,-24,9,29,-21,-7,9,-24,-4,-19,-19,-4
-34,-24,9,29,-21,-7,9,-29,-4,-19,-29,-9
-34,-24,9,29,-21,-7,9,-34,-4,-19,-39,-14
-34,-24,9,29,-21,-7,9,-34,-4,-19,-48,-19
-43,-29,14,36,-29,-7,9,-24,4,-14,-43,-9
-43,-39,4,41,-24,-17,9,-24,4,-14,-39,-9
-43,-43,0,43,-21,-21,9,-24,4,-14,-34,-9
-43,-48,-4,46,-19,-26,9,-24,4,-14,-29,-9
-43,-39,4,41,-24,-17,9,-24,4,-4,-24,0
-43,-39,4,41,-24,-17,9,-24,4,-4,-24,0
-43,-39,4,41,-24,-17,9,-24,4,-4,-24,0
-43,-39,4,41,-24,-17,9,-24,4,-4,-24,0
-43,-34,9,39,-26,-12,9,-39,-4,-19,-29,-4
-43,-34,9,39,-26,-12,9,-39,-4,-24,-34,-9
-43,-34,9,39,-26,-12,9,-34,-4,-29,-43,-14
-43,-34,9,39,-26,-12,9,-34,-4,-34,-48,-19
-34,-29,4,31,-19,-12,9,-34,-4,-29,-48,-9
-34,-29,4,31,-19,-12,9,-34,-4,-29,-48,-9
-24,-34,-9,29,-7,-21,9,-34,-4,-29,-48,-9
-24,-34,-9,29,-7,-21,9,-34,-4,-29,-48,-14
-43,-34,9,39,-26,-12,9,-34,0,-9,-19,4
-39,-29,9,34,-24,-9,19,-29,0,-4,-4,24
-39,-29,9,34,-24,-9,9,-39,9,9,9,29
-48,-29,19,39,-34,-4,19,-39,0,-4,0,24
-48,-29,19,39,-34,-4,19,-39,0,-9,-9,19
-48,-29,19,39,-34,-4,19,-39,0,-14,-19,14
-48,-29,19,39,-34,-4,19,-39,0,-19,-29,9
-39,-29,9,34,-24,-9,9,-29,-9,-29,-34,4
-39,-29,9,34,-24,-9,9,-29,-9,-29,-39,0
-39,-29,9,34,-24,-9,9,-29,-9,-29,-43,-4
-39,-29,9,34,-24,-9,9,-29,-9,-29,-48,-9
-39,-29,9,34,-24,-9,9,-29,-9,-29,-39,-9
-39,-29,9,34,-24,-9,9,-29,-9,-29,-39,-9
-39,-29,9,34,-24,-9,9,-29,-9,-29,-39,-9
-39,-29,9,34,-24,-9,9,-29,-9,-29,-39,-9
-39,-29,9,34,-24,-9,9,-39,-4,-24,-24,4
-39,-29,9,34,-24,-9,9,-39,0,-19,-19,9
-39,-29,9,34,-24,-9,9,-39,4,-14,-14,14
-39,-29,9,34,-24,-9,9,-39,9,-9,-9,19
-39,-29,9,34,-24,-9,9,-29,4,-24,-19,14
-39,-29,9,34,-24,-9,9,-29,0,-29,-29,9
-39,-29,9,34,-24,-9,9,-29,-4,-34,-39,4
-39,-29,9,34,-24,-9,9,-29,-9,-39,-48,0
-39,-39,0,39,-19,-19,9,-29,-9,-29,-58,-4
-39,-39,0,39,-19,-19,9,-29,-9,-29,-58,-9
-39,-39,0,39,-19,-19,9,-29,-9,-29,-58,-14
-39,-39,0,39,-19,-19,9,-29,-9,-29,-58,-19
-39,-29,9,34,-24,-9,9,-29,0,-19,-53,-14
-39,-29,9,34,-24,-9,9,-29,0,-19,-48,-9
-39,-29,9,34,-24,-9,9,-29,0,-19,-43,-4
-39,-29,9,34,-24,-9,9,-29,0,-19,-39,0
-39,-24,14,31,-26,-4,0,-29,0,-9,-34,4
-39,-19,19,29,-29,0,0,-29,0,-9,-29,9
-39,-14,24,26,-31,4,0,-29,0,-9,-24,14
-39,-9,29,24,-34,9,0,-29,0,-9,-19,19
-39,-24,14,31,-26,-4,9,-29,-9,-24,-29,4
-39,-29,9,34,-24,-9,9,-29,-9,-29,-39,0
-39,-34,4,36,-21,-14,9,-29,-9,-34,-48,-4
-39,-39,0,39,-19,-19,9,-29,-9,-39,-58,-9
-39,-39,0,39,-19,-19,9,-29,-9,-29,-48,0
-39,-39,0,39,-19,-19,9,-29,-9,-29,-48,0
-39,-39,0,39,-19,-19,9,-29,-9,-29,-48,0
-39,-39,0,39,-19,-19,9,-29,-9,-29,-48,0
-39,-39,0,39,-19,-19,9,-29,0,-24,-43,9
-39,-39,0,39,-19,-19,9,-29,0,-19,-39,9
-39,-39,0,39,-19,-19,9,-29,0,-14,-34,9
-39,-39,0,39,-19,-19,9,-29,0,-9,-29,9
-39,-48,-9,43,-14,-29,9,-29,-9,-24,-34,4
-39,-48,-9,43,-14,-29,9,-29,-9,-29,-39,0
-39,-48,-9,43,-14,-29,9,-29,-9,-34,-43,-4
-39,-48,-9,43,-14,-29,9,-29,-9,-39,-48,-9
-39,-48,-9,43,-14,-29,9,-29,-9,-39,-58,-9
-39,-48,-9,43,-14,-29,9,-29,-9,-39,-58,-9
-39,-48,-9,43,-14,-29,9,-29,-9,-39,-58,-9
-39,-48,-9,43,-14,-29,9,-29,-9,-39,-58,-9
-48,-48,0,48,-24,-24,9,-29,0,-34,-53,0
-48,-48,0,48,-24,-24,9,-29,0,-29,-48,0
-48,-48,0,48,-24,-24,9,-29,0,-24,-43,0
-48,-48,0,48,-24,-24,9,-29,0,-19,-39,0
-48,-39,9,43,-29,-14,9,-29,0,-19,-29,0
-48,-39,9,43,-29,-14,9,-29,0,-19,-29,0
-48,-39,9,43,-29,-14,9,-29,0,-19,-29,0
-48,-39,9,43,-29,-14,9,-29,0,-19,-29,0
-48,-39,9,43,-29,-14,9,-29,0,-29,-39,0
-48,-39,9,43,-29,-14,9,-29,0,-29,-39,0
-48,-39,9,43,-29,-14,9,-29,0,-29,-39,0
-48,-39,9,43,-29,-14,9,-29,0,-29,-39,0
-39,-39,0,39,-19,-19,9,-29,-9,-29,-39,0
-39,-39,0,39,-19,-19,9,-29,-9,-29,-39,0
-39,-39,0,39,-19,-19,9,-29,-9,-29,-39,0
-39,-39,0,39,-19,-19,9,-29,-9,-29,-39,0
-48,-39,9,43,-29,-14,0,-29,0,-24,-34,9
-48,-43,4,46,-26,-19,0,-34,0,-19,-34,9
-43,-43,0,43,-21,-21,4,-34,0,-19,-29,9
-43,-43,0,43,-21,-21,4,-34,-4,-14,-24,9
-43,-39,4,41,-24,-17,4,-39,-4,-14,-19,9
-43,-34,9,39,-26,-12,4,-39,-4,-14,-24,14
-48,-29,19,39,-34,-4,4,-39,-4,-14,-29,14
-48,-24,24,36,-36,0,4,-39,0,-14,-29,19
-48,-29,19,39,-34,-4,4,-29,0,-19,-29,9
-43,-29,14,36,-29,-7,4,-29,0,-19,-29,9
-43,-29,14,36,-29,-7,4,-29,4,-19,-29,9
-43,-29,14,36,-29,-7,4,-29,4,-19,-29,14
-43,-29,14,36,-29,-7,14,-29,4,-19,-39,9
-43,-19,24,31,-34,2,9,-29,9,-14,-29,14
-39,-14,24,26,-31,4,9,-29,14,-9,-29,14
-39,-14,24,26,-31,4,14,-29,14,-4,-24,9
-43,-4,39,24,-41,17,4,-29,14,0,-9,24
-43,4,48,19,-46,26,4,-24,24,9,-9,24
-43,9,53,17,-48,31,4,-19,34,14,-4,29
-39,14,53,12,-46,34,9,-19,39,14,0,34
-34,9,43,12,-39,26,14,-14,29,19,4,34
-34,9,43,12,-39,26,14,-14,39,29,14,43
-34,9,43,12,-39,26,14,-19,39,29,14,48
-34,9,43,12,-39,26,14,-24,43,29,19,48
-24,29,53,-2,-39,41,14,-4,48,34,19,48
-24,29,53,-2,-39,41,9,-4,48,34,19,53
-19,29,48,-4,-34,39,9,-4,48,34,24,53
-19,29,48,-4,-34,39,9,-4,48,34,24,53
-9,29,39,-9,-24,34,9,-4,58,43,24,53
-9,29,39,-9,-24,34,14,-4,63,48,24,58
-4,24,29,-9,-17,26,14,4,68,53,29,63
0,14,14,-7,-7,14,14,9,68,53,29,63
9,24,14,-17,-2,19,4,0,63,53,34,58
14,24,9,-19,2,17,0,0,63,58,34,58
19,29,9,-24,4,19,-4,0,63,58,43,63
19,34,14,-26,2,24,-9,4,63,63,48,68
19,24,4,-21,7,14,-14,14,63,58,39,78
29,24,-4,-26,17,9,-19,24,68,63,43,87
34,19,-14,-26,24,2,-24,24,68,63,43,87
34,19,-14,-26,24,2,-24,24,68,63,39,82
24,24,0,-24,12,12,-24,19,73,63,48,87
19,24,4,-21,7,14,-19,14,63,63,53,87
19,19,0,-19,9,9,-19,9,53,53,48,82
14,14,0,-14,7,7,-19,4,39,43,43,87
24,0,-24,-12,24,-12,-9,4,29,34,34,68
24,-4,-29,-9,26,-17,-9,-4,24,24,24,63
19,-14,-34,-2,26,-24,-9,-4,14,19,4,53
14,-14,-29,0,21,-21,-9,-14,14,14,-4,53
