I,II,III,aVR,aVL,aVF,V1,V2,V3,V4,V5,V6
-175,-146,29,161,-102,-58,-48,-107,-107,-87,-78,-107
-175,-146,29,161,-102,-58,-48,-107,-107,-87,-78,-107
-175,-146,29,161,-102,-58,-48,-107,-107,-87,-78,-107
-175,-146,29,161,-102,-58,-48,-107,-107,-87,-78,-107
-185,-136,48,161,-117,-43,-58,-107,-112,-87,-87,-107
-185,-136,48,161,-117,-43,-58,-107,-117,-87,-87,-107
-185,-136,48,161,-117,-43,-58,-107,-122,-87,-87,-107
-185,-136,48,161,-117,-43,-58,-107,-126,-87,-87,-107
-175,-126,48,151,-112,-39,-68,-112,-136,-97,-97,-107
-175,-126,48,151,-112,-39,-68,-117,-136,-97,-97,-107
-175,-126,48,151,-112,-39,-68,-122,-136,-97,-97,-107
-175,-126,48,151,-112,-39,-68,-126,-136,-97,-97,-107
-175,-136,39,156,-107,-48,-68,-136,-146,-107,-97,-117
-175,-136,39,156,-107,-48,-68,-136,-146,-107,-97,-117
-175,-136,39,156,-107,-48,-68,-136,-146,-107,-97,-117
-175,-136,39,156,-107,-48,-68,-136,-146,-107,-97,-117
-180,-126,53,153,-117,-36,-68,-136,-146,-107,-97,-117
-185,-126,58,156,-122,-34,-68,-136,-146,-107,-97,-117
-190,-126,63,158,-126,-31,-68,-136,-146,-107,-97,-117
-195,-126,68,161,-131,-29,-68,-136,-146,-107,-97,-117
-195,-136,58,165,-126,-39,-78,-146,-156,-117,-102,-122
-195,-136,58,165,-126,-39,-78,-146,-156,-117,-107,-126
-195,-136,58,165,-126,-39,-78,-146,-156,-117,-112,-131
-195,-136,58,165,-126,-39,-78,-146,-156,-117,-117,-136
-185,-136,48,161,-117,-43,-78,-156,-161,-117,-126,-136
-185,-136,48,161,-117,-43,-78,-156,-165,-117,-126,-136
-185,-136,48,161,-117,-43,-78,-156,-170,-117,-126,-136
-185,-136,48,161,-117,-43,-78,-156,-175,-117,-126,-136
-195,-146,48,170,-122,-48,-78,-165,-165,-117,-122,-126
-195,-146,48,170,-122,-48,-78,-165,-165,-117,-117,-126
-195,-146,48,170,-122,-48,-78,-165,-165,-117,-112,-126
-195,-146,48,170,-122,-48,-78,-165,-165,-117,-107,-126
-195,-136,58,165,-126,-39,-78,-156,-165,-117,-97,-117
-195,-136,58,165,-126,-39,-78,-156,-165,-117,-97,-117
-195,-136,58,165,-126,-39,-78,-156,-165,-117,-97,-117
-195,-136,58,165,-126,-39,-78,-156,-165,-117,-97,-117
-195,-136,58,165,-126,-39,-78,-165,-175,-126,-107,-126
-195,-136,58,165,-126,-39,-78,-165,-175,-126,-107,-126
-195,-136,58,165,-126,-39,-78,-165,-175,-126,-107,-126
-195,-136,58,165,-126,-39,-78,-165,-175,-126,-107,-126
-204,-146,58,175,-131,-43,-78,-165,-175,-126,-97,-117
-204,-146,58,175,-131,-43,-78,-165,-175,-126,-97,-117
-204,-146,58,175,-131,-43,-78,-165,-175,-126,-97,-117
-204,-146,58,175,-131,-43,-78,-165,-175,-126,-97,-117
-214,-136,78,175,-146,-29,-78,-165,-175,-136,-107,-126
-214,-136,78,175,-146,-29,-78,-165,-175,-136,-107,-126
-214,-136,78,175,-146,-29,-78,-165,-175,-136,-107,-126
-214,-136,78,175,-146,-29,-78,-165,-175,-136,-107,-126
-224,-126,97,175,-161,-14,-78,-165,-175,-136,-117,-126
-224,-126,97,175,-161,-14,-78,-165,-175,-136,-117,-126
-224,-126,97,175,-161,-14,-78,-165,-175,-136,-117,-126
-224,-126,97,175,-161,-14,-78,-165,-175,-136,-117,-126
-224,-136,87,180,-156,-24,-78,-165,-175,-136,-107,-117
-224,-136,87,180,-156,-24,-78,-165,-175,-136,-107,-117
-224,-136,87,180,-156,-24,-78,-165,-175,-136,-107,-117
-224,-136,87,180,-156,-24,-78,-165,-175,-136,-107,-117
-224,-141,82,183,-153,-29,-78,-165,-165,-126,-97,-126
-224,-146,78,185,-151,-34,-78,-165,-165,-126,-97,-126
-224,-151,73,187,-148,-39,-78,-165,-165,-126,-97,-126
-224,-156,68,190,-146,-43,-78,-165,-165,-126,-97,-126
-224,-156,68,190,-146,-43,-78,-175,-175,-136,-107,-126
-224,-156,68,190,-146,-43,-78,-175,-175,-136,-107,-126
-224,-156,68,190,-146,-43,-78,-175,-175,-136,-107,-126
-224,-156,68,190,-146,-43,-78,-175,-175,-136,-107,-126
-224,-146,78,185,-151,-34,-78,-175,-175,-136,-107,-126
-224,-146,78,185,-151,-34,-78,-175,-175,-136,-107,-126
-224,-146,78,185,-151,-34,-78,-175,-175,-136,-107,-126
-224,-146,78,185,-151,-34,-78,-175,-175,-136,-107,-126
-224,-136,87,180,-156,-24,-87,-175,-175,-136,-107,-126
-219,-136,82,178,-151,-26,-87,-175,-175,-141,-107,-126
-219,-136,82,178,-151,-26,-87,-175,-175,-141,-112,-126
-219,-131,87,175,-153,-21,-87,-175,-175,-136,-112,-126
-209,-122,87,165,-148,-17,-78,-175,-175,-136,-112,-117
-209,-122,87,165,-148,-17,-82,-170,-175,-136,-107,-117
-209,-122,87,165,-148,-17,-82,-170,-175,-136,-107,-112
-204,-117,87,161,-146,-14,-78,-170,-170,-131,-102,-112
-204,-117,87,161,-146,-14,-73,-165,-165,-136,-87,-112
-204,-117,87,161,-146,-14,-73,-165,-161,-126,-87,-107
-204,-117,87,161,-146,-14,-73,-161,-161,-126,-87,-102
-200,-107,92,153,-146,-7,-73,-161,-156,-126,-82,-102
-200,-87,112,143,-156,12,-68,-156,-141,-107,-87,-97
-200,-78,122,139,-161,21,-58,-151,-136,-102,-82,-92
-195,-73,122,134,-158,24,-53,-146,-131,-97,-78,-87
-190,-68,122,129,-156,26,-53,-146,-126,-97,-68,-87
-190,-73,117,131,-153,21,-53,-136,-136,-87,-58,-87
-185,-68,117,126,-151,24,-53,-136,-131,-87,-58,-78
-175,-63,112,119,-143,24,-48,-126,-126,-82,-58,-78
-170,-63,107,117,-139,21,-48,-126,-122,-78,-58,-78
-161,-48,112,104,-136,31,-48,-117,-112,-78,-63,-78
-165,-48,117,107,-141,34,-48,-122,-112,-78,-63,-73
-165,-53,112,109,-139,29,-53,-126,-122,-82,-63,-73
-165,-58,107,112,-136,24,-63,-131,-122,-92,-63,-78
-170,-58,112,114,-141,26,-68,-131,-122,-102,-63,-78
-170,-63,107,117,-139,21,-68,-126,-122,-97,-63,-78
-165,-63,102,114,-134,19,-73,-126,-122,-92,-63,-78
-165,-58,107,112,-136,24,-87,-136,-122,-92,-63,-78
-165,-63,102,114,-134,19,-107,-146,-131,-102,-63,-78
-156,-63,92,109,-124,14,-117,-151,-131,-97,-63,-73
-146,-53,92,100,-119,19,-136,-156,-136,-97,-63,-73
-141,-53,87,97,-114,17,-151,-170,-141,-97,-63,-73
-146,-63,82,104,-114,9,-156,-195,-151,-97,-63,-63
-161,-82,78,122,-119,-2,-165,-214,-170,-117,-73,-68
-165,-92,73,129,-119,-9,-170,-229,-190,-136,-87,-82
-170,-107,63,139,-117,-21,-170,-239,-200,-151,-92,-92
-170,-112,58,141,-114,-26,-170,-229,-209,-151,-97,-92
-165,-117,48,141,-107,-34,-165,-224,-209,-151,-102,-97
-161,-122,39,141,-100,-41,-165,-224,-214,-156,-107,-97
-156,-117,39,136,-97,-39,-165,-219,-214,-156,-107,-97
-156,-117,39,136,-97,-39,-146,-219,-204,-151,-102,-97
-156,-112,43,134,-100,-34,-141,-209,-190,-141,-92,-92
-156,-102,53,129,-104,-24,-136,-209,-185,-131,-78,-87
-151,-102,48,126,-100,-26,-131,-209,-180,-131,-73,-87
-136,-102,34,119,-85,-34,-141,-204,-185,-126,-82,-87
-136,-102,34,119,-85,-34,-141,-204,-185,-126,-82,-82
-141,-102,39,122,-90,-31,-141,-204,-180,-126,-82,-82
-156,-102,53,129,-104,-24,-131,-200,-180,-126,-78,-82
-175,-102,73,139,-124,-14,-126,-195,-175,-131,-78,-82
-185,-107,78,146,-131,-14,-122,-195,-175,-131,-78,-87
-190,-112,78,151,-134,-17,-117,-195,-185,-141,-87,-92
-195,-126,68,161,-131,-29,-117,-209,-195,-151,-102,-102
-195,-126,68,161,-131,-29,-126,-214,-209,-170,-112,-122
-204,-131,73,168,-139,-29,-117,-219,-214,-170,-122,-131
-209,-136,73,173,-141,-31,-117,-224,-214,-175,-131,-136
-209,-136,73,173,-141,-31,-117,-229,-214,-180,-131,-136
-209,-131,78,170,-143,-26,-107,-219,-214,-175,-126,-141
-204,-136,68,170,-136,-34,-107,-219,-219,-175,-126,-146
-204,-136,68,170,-136,-34,-107,-219,-219,-175,-131,-146
-204,-136,68,170,-136,-34,-107,-219,-219,-170,-131,-141
-214,-146,68,180,-141,-39,-102,-209,-209,-170,-131,-131
-219,-146,73,183,-146,-36,-102,-209,-209,-170,-131,-131
-219,-146,73,183,-146,-36,-102,-209,-209,-170,-131,-131
-219,-146,73,183,-146,-36,-97,-204,-209,-170,-131,-131
-209,-146,63,178,-136,-41,-97,-214,-219,-180,-141,-131
-209,-141,68,175,-139,-36,-97,-214,-214,-180,-141,-131
-204,-141,63,173,-134,-39,-97,-214,-214,-180,-141,-131
-204,-141,63,173,-134,-39,-97,-214,-214,-175,-141,-131
-204,-131,73,168,-139,-29,-87,-209,-214,-170,-126,-131
-204,-126,78,165,-141,-24,-87,-209,-209,-165,-126,-131
-204,-126,78,165,-141,-24,-87,-209,-204,-161,-126,-126
-204,-126,78,165,-141,-24,-82,-209,-204,-151,-126,-126
-204,-117,87,161,-146,-14,-87,-209,-204,-151,-131,-136
-204,-117,87,161,-146,-14,-92,-209,-204,-151,-131,-131
-204,-117,87,161,-146,-14,-97,-204,-204,-151,-131,-131
-200,-117,82,158,-141,-17,-102,-204,-204,-151,-131,-131
-200,-122,78,161,-139,-21,-102,-204,-200,-161,-131,-122
-204,-122,82,163,-143,-19,-92,-204,-190,-161,-131,-131
-195,-122,73,158,-134,-24,-92,-195,-185,-156,-131,-131
-204,-131,73,168,-139,-29,-82,-185,-190,-156,-122,-136
-204,-131,73,168,-139,-29,-68,-156,-180,-156,-126,-131
-200,-131,68,165,-134,-31,-48,-112,-156,-136,-126,-131
-180,-117,63,148,-122,-26,-24,-39,-102,-102,-122,-131
-165,-87,78,126,-122,-4,0,53,-9,-43,-87,-122
-170,-58,112,114,-141,26,43,161,92,29,-34,-78
-151,-19,131,85,-141,56,53,209,185,117,24,-29
-92,29,122,31,-107,75,24,214,258,209,78,9
-48,82,131,-17,-90,107,4,229,385,336,170,73
-34,136,170,-51,-102,153,-9,278,536,492,278,156
9,180,170,-95,-80,175,-34,307,683,619,366,219
87,239,151,-163,-31,195,-63,331,834,761,458,283
146,326,180,-236,-17,253,-102,375,1019,941,575,375
175,419,244,-297,-34,331,-146,380,1180,1093,683,468
234,483,248,-358,-7,366,-219,356,1293,1195,771,527
283,527,244,-405,19,385,-307,341,1366,1263,819,566
326,566,239,-446,43,402,-395,292,1400,1293,854,605
351,605,253,-478,48,429,-522,151,1356,1283,878,634
336,663,326,-500,4,495,-673,-87,1224,1224,883,649
273,688,414,-480,-70,551,-800,-390,1024,1112,858,668
195,688,492,-441,-148,590,-917,-697,766,956,824,663
156,614,458,-385,-151,536,-1039,-946,488,717,697,590
141,473,331,-307,-95,402,-1107,-1088,209,419,497,444
63,331,268,-197,-102,300,-1156,-1249,-122,107,302,312
-43,268,312,-112,-178,290,-1224,-1542,-585,-229,136,204
-87,234,322,-73,-204,278,-1302,-1844,-1029,-522,-14,97
-107,180,287,-36,-197,234,-1332,-1976,-1273,-683,-117,29
-146,122,268,12,-207,195,-1302,-1937,-1312,-732,-165,-9
-165,82,248,41,-207,165,-1220,-1795,-1254,-712,-195,-39
-165,63,229,51,-197,146,-1088,-1595,-1127,-658,-195,-53
-180,34,214,73,-197,124,-932,-1376,-995,-600,-195,-58
-204,4,209,100,-207,107,-766,-1146,-858,-546,-195,-87
-214,4,219,104,-217,112,-614,-941,-722,-473,-175,-87
-204,24,229,90,-217,126,-517,-780,-595,-395,-146,-78
-200,14,214,92,-207,114,-434,-658,-512,-336,-131,-87
-209,-24,185,117,-197,80,-351,-541,-424,-292,-136,-107
-204,-58,146,131,-175,43,-278,-444,-361,-253,-136,-117
-195,-82,112,139,-153,14,-244,-400,-331,-244,-136,-117
-204,-97,107,151,-156,4,-204,-351,-312,-234,-136,-117
-234,-107,126,170,-180,9,-165,-307,-292,-224,-126,-102
-229,-117,112,173,-170,-2,-141,-278,-283,-214,-141,-112
-209,-126,82,168,-146,-21,-117,-263,-278,-219,-156,-136
-219,-136,82,178,-151,-26,-92,-239,-258,-209,-151,-136
-229,-156,73,192,-151,-41,-78,-209,-239,-209,-151,-141
-229,-165,63,197,-146,-51,-73,-200,-234,-195,-146,-141
-229,-165,63,197,-146,-51,-73,-200,-229,-204,-146,-141
-224,-170,53,197,-139,-58,-78,-200,-239,-204,-156,-141
-224,-175,48,200,-136,-63,-68,-195,-239,-204,-156,-146
-219,-175,43,197,-131,-65,-63,-190,-234,-204,-156,-151
-219,-175,43,197,-131,-65,-58,-175,-234,-204,-165,-151
-224,-165,58,195,-141,-53,-34,-165,-234,-204,-165,-161
-229,-175,53,202,-141,-61,-29,-151,-229,-195,-165,-161
-239,-175,63,207,-151,-56,-24,-151,-224,-190,-165,-161
-244,-165,78,204,-161,-43,-24,-151,-219,-190,-161,-161
-234,-165,68,200,-151,-48,-34,-151,-209,-190,-151,-151
-234,-165,68,200,-151,-48,-34,-146,-209,-190,-151,-151
-234,-170,63,202,-148,-53,-34,-146,-209,-190,-151,-151
-234,-170,63,202,-148,-53,-29,-136,-209,-190,-151,-151
-224,-170,53,197,-139,-58,-14,-131,-214,-200,-156,-151
-224,-170,53,197,-139,-58,-14,-131,-214,-200,-156,-151
-219,-170,48,195,-134,-61,-14,-131,-204,-200,-156,-151
-219,-170,48,195,-134,-61,-14,-126,-204,-195,-161,-151
-229,-170,58,200,-143,-56,-19,-117,-195,-195,-161,-161
-229,-175,53,202,-141,-61,-19,-112,-195,-190,-156,-156
-229,-175,53,202,-141,-61,-19,-112,-190,-190,-151,-156
-234,-175,58,204,-146,-58,-14,-107,-190,-190,-151,-156
-234,-185,48,209,-141,-68,-4,-97,-200,-190,-146,-165
-229,-185,43,207,-136,-70,-4,-97,-200,-190,-146,-165
-229,-185,43,207,-136,-70,-4,-97,-195,-190,-141,-165
-229,-185,43,207,-136,-70,0,-87,-190,-185,-141,-165
-224,-185,39,204,-131,-73,0,-97,-180,-185,-151,-165
-224,-185,39,204,-131,-73,0,-97,-180,-185,-156,-165
-224,-185,39,204,-131,-73,0,-87,-175,-185,-161,-165
-219,-185,34,202,-126,-75,0,-87,-175,-185,-165,-165
-219,-185,34,202,-126,-75,0,-82,-175,-180,-156,-165
-224,-185,39,204,-131,-73,0,-68,-165,-180,-151,-165
-224,-185,39,204,-131,-73,4,-63,-165,-180,-151,-161
-224,-185,39,204,-131,-73,4,-58,-165,-175,-151,-161
-224,-185,39,204,-131,-73,4,-63,-165,-165,-151,-151
-214,-185,29,200,-122,-78,4,-63,-161,-165,-151,-151
-204,-185,19,195,-112,-82,4,-53,-161,-165,-151,-151
-214,-185,29,200,-122,-78,4,-43,-151,-165,-151,-151
-219,-195,24,207,-122,-85,9,-43,-146,-165,-151,-146
-219,-195,24,207,-122,-85,9,-39,-141,-161,-146,-146
-209,-200,9,204,-109,-95,9,-34,-141,-161,-141,-146
-209,-200,9,204,-109,-95,9,-29,-136,-156,-141,-146
-209,-190,19,200,-114,-85,24,-14,-131,-156,-131,-141
-209,-190,19,200,-114,-85,24,-4,-126,-151,-131,-141
-209,-190,19,200,-114,-85,24,0,-122,-151,-131,-146
-209,-190,19,200,-114,-85,24,4,-117,-146,-131,-146
-195,-195,0,195,-97,-97,29,24,-102,-146,-136,-136
-195,-195,0,195,-97,-97,29,29,-97,-146,-136,-136
-195,-195,0,195,-97,-97,34,43,-87,-136,-136,-131
-195,-195,0,195,-97,-97,34,43,-82,-136,-136,-131
-200,-195,4,197,-102,-95,43,63,-68,-126,-126,-131
-200,-200,0,200,-100,-100,53,78,-58,-117,-122,-131
-200,-204,-4,202,-97,-104,53,87,-48,-112,-117,-122
-195,-209,-14,202,-90,-112,53,97,-48,-102,-112,-122
-195,-204,-9,200,-92,-107,48,97,-48,-107,-117,-112
-195,-200,-4,197,-95,-102,48,112,-34,-102,-112,-112
-190,-195,-4,192,-92,-100,53,122,-24,-97,-112,-112
-185,-180,4,183,-95,-87,53,141,-14,-92,-112,-107
-175,-190,-14,183,-80,-102,68,161,-4,-82,-102,-117
-170,-190,-19,180,-75,-104,78,175,4,-78,-97,-117
-170,-185,-14,178,-78,-100,82,190,14,-73,-97,-102
-165,-185,-19,175,-73,-102,87,209,24,-63,-87,-97
-165,-190,-24,178,-70,-107,87,224,29,-68,-92,-102
-165,-190,-24,178,-70,-107,92,239,48,-58,-92,-102
-156,-190,-34,173,-61,-112,97,253,58,-48,-87,-102
-151,-190,-39,170,-56,-114,97,268,78,-34,-82,-102
-156,-190,-34,173,-61,-112,107,302,102,-19,-73,-87
-161,-185,-24,173,-68,-104,112,322,117,-4,-63,-82
-165,-175,-9,170,-78,-92,117,341,131,4,-53,-78
-165,-170,-4,168,-80,-87,122,356,146,14,-43,-78
-175,-156,19,165,-97,-68,126,366,151,19,-43,-82
-170,-156,14,163,-92,-70,131,375,170,29,-39,-78
-161,-156,4,158,-82,-75,136,390,180,39,-39,-73
-161,-156,4,158,-82,-75,141,405,195,43,-39,-68
-151,-146,4,148,-78,-70,146,424,209,58,-34,-53
-151,-146,4,148,-78,-70,151,439,229,68,-29,-48
-146,-141,4,143,-75,-68,156,458,244,82,-24,-48
-146,-136,9,141,-78,-63,156,463,248,87,-19,-48
-136,-146,-9,141,-63,-78,156,483,258,87,-9,-43
-136,-146,-9,141,-63,-78,165,492,273,97,-4,-39
-131,-136,-4,134,-63,-70,165,507,283,107,9,-34
-126,-131,-4,129,-61,-68,165,512,292,112,14,-24
-136,-126,9,131,-73,-58,175,517,312,122,14,-14
-136,-122,14,129,-75,-53,185,527,317,126,24,-14
-136,-126,9,131,-73,-58,190,541,326,131,29,-14
-136,-131,4,134,-70,-63,190,541,331,136,34,-9
-146,-126,19,136,-82,-53,195,546,336,141,34,-9
-136,-126,9,131,-73,-58,195,551,341,146,34,-9
-136,-126,9,131,-73,-58,195,556,346,156,43,0
-136,-126,9,131,-73,-58,200,561,356,165,48,0
-141,-117,24,129,-82,-46,200,570,361,170,48,9
-141,-117,24,129,-82,-46,200,570,366,170,58,9
-141,-117,24,129,-82,-46,200,575,366,170,58,14
-141,-117,24,129,-82,-46,200,575,366,170,58,14
-141,-112,29,126,-85,-41,209,566,356,180,58,9
-141,-112,29,126,-85,-41,209,556,356,185,58,14
-131,-112,19,122,-75,-46,209,551,356,185,63,14
-146,-107,39,126,-92,-34,209,541,356,185,63,14
-156,-117,39,136,-97,-39,209,531,356,175,58,14
-156,-117,39,136,-97,-39,200,522,351,175,58,19
-156,-107,48,131,-102,-29,195,502,341,175,53,19
-156,-97,58,126,-107,-19,195,488,331,165,53,19
-156,-102,53,129,-104,-24,180,453,322,161,53,9
-156,-102,53,129,-104,-24,175,439,302,161,53,9
-165,-102,63,134,-114,-19,165,419,297,161,53,9
-165,-102,63,134,-114,-19,165,395,283,156,53,9
-170,-102,68,136,-119,-17,161,361,263,156,53,19
-170,-102,68,136,-119,-17,151,336,244,146,43,14
-175,-102,73,139,-124,-14,141,317,229,136,43,14
-180,-97,82,139,-131,-7,141,292,204,136,43,14
-180,-107,73,143,-126,-17,131,263,195,122,43,4
-175,-107,68,141,-122,-19,112,239,170,112,34,4
-170,-107,63,139,-117,-21,97,214,156,112,34,4
-170,-107,63,139,-117,-21,92,190,146,97,34,0
-185,-107,78,146,-131,-14,92,165,131,87,39,-4
-190,-112,78,151,-134,-17,87,151,117,82,34,0
-195,-117,78,156,-136,-19,73,131,102,73,29,4
-200,-122,78,161,-139,-21,58,112,87,63,24,9
-190,-136,53,163,-122,-41,53,87,73,53,14,0
-200,-141,58,170,-129,-41,43,68,58,43,9,-4
-200,-146,53,173,-126,-46,43,58,43,34,4,-9
-200,-151,48,175,-124,-51,39,43,34,34,4,-24
-209,-151,58,180,-134,-46,34,29,19,29,0,-14
-209,-151,58,180,-134,-46,29,9,4,19,-4,-14
-214,-151,63,183,-139,-43,24,-4,0,9,-9,-14
-214,-151,63,183,-139,-43,19,-14,-14,0,-9,-14
-214,-170,43,192,-129,-63,14,-29,-24,-9,-14,-24
-214,-170,43,192,-129,-63,9,-43,-34,-14,-19,-34
-214,-175,39,195,-126,-68,4,-48,-39,-19,-19,-34
-219,-180,39,200,-129,-70,0,-58,-48,-24,-24,-34
-229,-180,48,204,-139,-65,-9,-78,-58,-29,-24,-43
-224,-185,39,204,-131,-73,-9,-82,-63,-34,-34,-43
-224,-190,34,207,-129,-78,-9,-82,-68,-39,-39,-48
-229,-195,34,212,-131,-80,-9,-92,-73,-43,-39,-48
-219,-204,14,212,-117,-95,-4,-87,-68,-43,-39,-48
-224,-209,14,217,-119,-97,-4,-92,-73,-48,-48,-48
-224,-209,14,217,-119,-97,-9,-92,-78,-53,-48,-53
-224,-209,14,217,-119,-97,-14,-97,-82,-58,-48,-58
-224,-219,4,222,-114,-107,-19,-102,-82,-58,-43,-58
-224,-219,4,222,-114,-107,-19,-107,-87,-58,-43,-58
-219,-219,0,219,-109,-109,-19,-107,-87,-58,-48,-58
-219,-224,-4,222,-107,-114,-19,-112,-92,-63,-48,-58
-229,-229,0,229,-114,-114,-19,-112,-92,-58,-48,-58
-229,-229,0,229,-114,-114,-19,-112,-92,-58,-48,-63
-229,-229,0,229,-114,-114,-19,-112,-97,-58,-48,-63
-234,-234,0,234,-117,-117,-19,-112,-102,-58,-48,-63
-239,-224,14,231,-126,-104,-19,-117,-102,-63,-58,-63
-239,-224,14,231,-126,-104,-19,-117,-102,-63,-58,-68
-234,-229,4,231,-119,-112,-19,-117,-112,-63,-58,-68
-229,-229,0,229,-114,-114,-19,-117,-112,-68,-58,-68
-239,-229,9,234,-124,-109,-29,-122,-117,-68,-58,-68
-244,-229,14,236,-129,-107,-29,-122,-117,-73,-58,-73
-244,-224,19,234,-131,-102,-29,-122,-112,-73,-58,-73
-253,-224,29,239,-141,-97,-29,-122,-112,-73,-63,-68
-244,-234,9,239,-126,-112,-24,-122,-112,-73,-63,-68
-239,-234,4,236,-122,-114,-24,-122,-112,-73,-63,-68
-239,-234,4,236,-122,-114,-24,-117,-112,-73,-63,-68
-239,-234,4,236,-122,-114,-24,-117,-112,-68,-63,-63
-239,-224,14,231,-126,-104,-24,-117,-107,-73,-63,-73
-239,-224,14,231,-126,-104,-24,-117,-107,-73,-63,-73
-234,-224,9,229,-122,-107,-29,-117,-112,-73,-63,-78
-234,-224,9,229,-122,-107,-29,-117,-112,-73,-63,-78
-239,-234,4,236,-122,-114,-14,-107,-97,-63,-53,-68
-239,-234,4,236,-122,-114,-14,-102,-92,-68,-53,-63
-239,-234,4,236,-122,-114,-14,-102,-92,-68,-48,-63
-234,-229,4,231,-119,-112,-14,-102,-92,-68,-48,-63
-224,-239,-14,231,-104,-126,-14,-107,-102,-68,-58,-63
-224,-239,-14,231,-104,-126,-9,-107,-102,-68,-58,-63
-224,-239,-14,231,-104,-126,-9,-107,-97,-68,-53,-63
-234,-239,-4,236,-114,-122,-9,-102,-97,-73,-53,-58
-239,-244,-4,241,-117,-124,-9,-97,-97,-58,-53,-48
-239,-244,-4,241,-117,-124,-9,-97,-97,-58,-53,-53
-239,-244,-4,241,-117,-124,-9,-97,-92,-58,-48,-58
-244,-239,4,241,-124,-117,-9,-97,-92,-58,-48,-58
-244,-248,-4,246,-119,-126,-9,-92,-92,-68,-48,-53
-244,-244,0,244,-122,-122,-9,-92,-87,-63,-43,-53
-244,-244,0,244,-122,-122,-9,-92,-87,-63,-43,-48
-244,-244,0,244,-122,-122,-9,-92,-87,-63,-43,-48
-234,-253,-19,244,-107,-136,-9,-102,-97,-68,-43,-58
-239,-248,-9,244,-114,-129,-9,-97,-87,-68,-43,-53
-248,-248,0,248,-124,-124,-9,-97,-87,-68,-43,-53
-248,-248,0,248,-124,-124,-9,-97,-87,-68,-43,-53
-253,-248,4,251,-129,-122,-9,-87,-78,-68,-43,-43
-253,-244,9,248,-131,-117,-14,-87,-78,-73,-43,-48
-244,-244,0,244,-122,-122,-14,-87,-78,-73,-48,-48
-248,-244,4,246,-126,-119,-9,-87,-78,-68,-48,-43
-239,-244,-4,241,-117,-124,-19,-97,-82,-73,-48,-48
-239,-244,-4,241,-117,-124,-19,-92,-82,-73,-43,-48
-239,-244,-4,241,-117,-124,-19,-92,-82,-73,-39,-48
-239,-244,-4,241,-117,-124,-19,-92,-82,-73,-39,-48
-229,-244,-14,236,-107,-129,-19,-102,-82,-73,-43,-48
-239,-244,-4,241,-117,-124,-19,-92,-82,-68,-39,-48
-239,-239,0,239,-119,-119,-19,-92,-82,-68,-39,-48
-229,-239,-9,234,-109,-124,-19,-92,-82,-68,-39,-48
-244,-239,4,241,-124,-117,-19,-92,-73,-68,-39,-48
-248,-239,9,244,-129,-114,-19,-92,-73,-68,-43,-48
-248,-239,9,244,-129,-114,-19,-92,-73,-68,-43,-48
-253,-239,14,246,-134,-112,-19,-97,-73,-68,-48,-48
-244,-229,14,236,-129,-107,-19,-97,-82,-82,-48,-53
-248,-234,14,241,-131,-109,-19,-92,-82,-82,-43,-53
-248,-234,14,241,-131,-109,-19,-92,-82,-82,-39,-53
-248,-234,14,241,-131,-109,-24,-97,-82,-82,-39,-53
-253,-234,19,244,-136,-107,-14,-97,-82,-82,-39,-53
-253,-234,19,244,-136,-107,-14,-102,-82,-82,-43,-53
-248,-234,14,241,-131,-109,-14,-107,-87,-82,-48,-53
-244,-234,9,239,-126,-112,-14,-107,-87,-82,-48,-53
-234,-248,-14,241,-109,-131,-29,-107,-87,-82,-43,-63
-234,-248,-14,241,-109,-131,-29,-107,-87,-82,-43,-63
-234,-248,-14,241,-109,-131,-29,-112,-92,-82,-43,-63
-239,-248,-9,244,-114,-129,-29,-112,-92,-87,-43,-63
-248,-239,9,244,-129,-114,-29,-117,-92,-87,-43,-53
-244,-239,4,241,-124,-117,-29,-117,-97,-87,-43,-58
-244,-239,4,241,-124,-117,-29,-117,-97,-87,-43,-58
-248,-239,9,244,-129,-114,-34,-117,-97,-87,-43,-58
-258,-234,24,246,-141,-104,-24,-126,-112,-87,-43,-58
-253,-234,19,244,-136,-107,-29,-131,-117,-87,-48,-63
-253,-234,19,244,-136,-107,-29,-136,-117,-92,-48,-63
-253,-234,19,244,-136,-107,-29,-141,-117,-92,-48,-63
-244,-244,0,244,-122,-122,-29,-131,-112,-92,-48,-58
-244,-248,-4,246,-119,-126,-29,-131,-112,-92,-48,-58
-244,-253,-9,248,-117,-131,-29,-131,-112,-92,-48,-58
-244,-258,-14,251,-114,-136,-29,-131,-112,-92,-48,-58
-244,-248,-4,246,-119,-126,-29,-131,-112,-92,-48,-63
-239,-248,-9,244,-114,-129,-34,-131,-117,-92,-48,-63
-239,-248,-9,244,-114,-129,-34,-131,-122,-92,-53,-63
-244,-248,-4,246,-119,-126,-34,-141,-122,-92,-53,-63
-244,-244,0,244,-122,-122,-24,-141,-112,-82,-53,-63
-244,-244,0,244,-122,-122,-29,-141,-117,-87,-43,-63
-244,-244,0,244,-122,-122,-29,-141,-117,-92,-43,-63
-244,-244,0,244,-122,-122,-29,-141,-126,-92,-48,-63
-234,-234,0,234,-117,-117,-29,-146,-126,-102,-43,-58
-234,-234,0,234,-117,-117,-29,-146,-126,-102,-48,-63
-239,-234,4,236,-122,-114,-29,-146,-117,-112,-48,-63
-244,-234,9,239,-126,-112,-29,-146,-117,-112,-43,-58
-239,-234,4,236,-122,-114,-34,-136,-126,-97,-53,-58
-239,-234,4,236,-122,-114,-34,-141,-131,-97,-53,-63
-239,-234,4,236,-122,-114,-39,-141,-131,-87,-53,-63
-234,-234,0,234,-117,-117,-39,-141,-131,-87,-53,-63
-234,-244,-9,239,-112,-126,-43,-151,-122,-87,-48,-63
-234,-244,-9,239,-112,-126,-43,-151,-126,-92,-48,-63
-234,-244,-9,239,-112,-126,-39,-151,-126,-92,-48,-63
-234,-244,-9,239,-112,-126,-39,-151,-126,-97,-48,-63
-214,-244,-29,229,-92,-136,-43,-156,-126,-92,-39,-63
-224,-244,-19,234,-102,-131,-43,-156,-126,-92,-39,-63
-234,-244,-9,239,-112,-126,-43,-156,-126,-92,-39,-63
-224,-244,-19,234,-102,-131,-39,-156,-126,-97,-39,-63
-224,-244,-19,234,-102,-131,-29,-156,-131,-97,-53,-58
-229,-244,-14,236,-107,-129,-34,-156,-131,-97,-53,-58
-244,-244,0,244,-122,-122,-39,-156,-126,-97,-48,-58
-248,-244,4,246,-126,-119,-39,-156,-126,-92,-48,-58
-239,-239,0,239,-119,-119,-39,-161,-131,-102,-53,-68
-229,-234,-4,231,-112,-119,-48,-161,-136,-102,-58,-68
-229,-229,0,229,-114,-114,-39,-161,-136,-102,-58,-68
-234,-224,9,229,-122,-107,-34,-161,-136,-102,-58,-63
-244,-224,19,234,-131,-102,-34,-161,-126,-112,-48,-53
-244,-224,19,234,-131,-102,-39,-161,-122,-112,-48,-58
-244,-224,19,234,-131,-102,-39,-165,-122,-107,-48,-58
-244,-229,14,236,-129,-107,-39,-165,-122,-107,-53,-58
-239,-234,4,236,-122,-114,-39,-165,-126,-107,-53,-63
-234,-234,0,234,-117,-117,-39,-165,-126,-107,-53,-63
-229,-234,-4,231,-112,-119,-39,-165,-126,-107,-53,-63
-224,-234,-9,229,-107,-122,-43,-165,-126,-107,-53,-63
-224,-244,-19,234,-102,-131,-34,-156,-126,-97,-43,-58
-229,-239,-9,234,-109,-124,-29,-151,-126,-102,-43,-58
-229,-239,-9,234,-109,-124,-29,-151,-126,-107,-43,-63
-229,-239,-9,234,-109,-124,-29,-156,-126,-112,-39,-58
-229,-229,0,229,-114,-114,-29,-156,-126,-102,-48,-53
-234,-234,0,234,-117,-117,-29,-156,-126,-97,-48,-48
-224,-234,-9,229,-107,-122,-39,-156,-126,-107,-48,-58
-224,-234,-9,229,-107,-122,-39,-156,-126,-107,-48,-58
-224,-234,-9,229,-107,-122,-39,-156,-126,-107,-48,-58
-224,-234,-9,229,-107,-122,-39,-156,-126,-107,-48,-58
-229,-234,-4,231,-112,-119,-39,-165,-136,-112,-39,-48
-229,-234,-4,231,-112,-119,-39,-165,-136,-112,-43,-48
-229,-229,0,229,-114,-114,-39,-165,-136,-107,-43,-48
-229,-229,0,229,-114,-114,-39,-165,-136,-107,-43,-48
-229,-219,9,224,-119,-104,-34,-161,-126,-107,-39,-48
-229,-219,9,224,-119,-104,-34,-161,-126,-107,-39,-43
-224,-214,9,219,-117,-102,-29,-161,-122,-102,-34,-43
-224,-204,19,214,-122,-92,-24,-156,-117,-97,-29,-43
-234,-214,19,224,-126,-97,-14,-146,-102,-78,-19,-39
-234,-214,19,224,-126,-97,-14,-141,-102,-78,-19,-34
-229,-204,24,217,-126,-90,-14,-141,-97,-78,-14,-34
-229,-195,34,212,-131,-80,-9,-126,-92,-68,-9,-29
-229,-185,43,207,-136,-70,-9,-122,-87,-73,-14,-24
-224,-180,43,202,-134,-68,-4,-117,-82,-68,-9,-19
-219,-175,43,197,-131,-65,-4,-117,-78,-68,0,-19
-219,-170,48,195,-134,-61,-4,-117,-78,-58,0,-19
-214,-175,39,195,-126,-68,4,-107,-73,-48,9,-9
-204,-170,34,187,-119,-68,9,-97,-68,-43,9,-9
-200,-170,29,185,-114,-70,9,-97,-63,-39,9,-9
-200,-165,34,183,-117,-65,9,-97,-63,-39,14,-9
-204,-161,43,183,-124,-58,9,-112,-63,-39,4,-14
-204,-161,43,183,-124,-58,4,-117,-73,-43,4,-14
-204,-161,43,183,-124,-58,-4,-122,-73,-53,4,-19
-200,-156,43,178,-122,-56,-9,-122,-73,-53,4,-19
-195,-151,43,173,-119,-53,-14,-117,-82,-58,0,-29
-185,-151,34,168,-109,-58,-24,-117,-82,-53,-4,-29
-180,-146,34,163,-107,-56,-43,-126,-82,-53,-9,-29
-175,-141,34,158,-104,-53,-58,-126,-82,-53,-4,-19
-170,-151,19,161,-95,-65,-68,-131,-82,-48,4,-4
-165,-141,24,153,-95,-58,-87,-136,-87,-48,4,-4
-165,-141,24,153,-95,-58,-102,-151,-92,-48,4,-4
-170,-141,29,156,-100,-56,-107,-165,-102,-58,4,-4
-170,-165,4,168,-87,-80,-107,-185,-122,-68,4,-9
-170,-180,-9,175,-80,-95,-112,-200,-141,-87,-9,-24
-170,-200,-29,185,-70,-114,-112,-209,-151,-102,-14,-34
-175,-214,-39,195,-68,-126,-112,-209,-151,-102,-19,-34
-165,-219,-53,192,-56,-136,-117,-214,-151,-102,-34,-48
-165,-224,-58,195,-53,-141,-117,-214,-156,-107,-39,-48
-165,-219,-53,192,-56,-136,-117,-209,-156,-107,-39,-48
-165,-214,-48,190,-58,-131,-107,-209,-151,-102,-39,-48
-170,-200,-29,185,-70,-114,-92,-190,-131,-92,-24,-34
-175,-190,-14,183,-80,-102,-87,-190,-131,-82,-14,-29
-175,-190,-14,183,-80,-102,-82,-190,-131,-82,-14,-29
-175,-190,-14,183,-80,-102,-82,-185,-126,-87,-14,-29
-165,-190,-24,178,-70,-107,-82,-185,-126,-87,-24,-24
-170,-190,-19,180,-75,-104,-82,-185,-122,-87,-24,-24
-185,-190,-4,187,-90,-97,-73,-180,-122,-87,-19,-24
-195,-190,4,192,-100,-92,-68,-175,-117,-82,-19,-24
-214,-195,19,204,-117,-87,-63,-185,-122,-82,-29,-29
-219,-200,19,209,-119,-90,-58,-185,-136,-92,-39,-34
-224,-214,9,219,-117,-102,-58,-200,-151,-102,-53,-43
-234,-219,14,226,-124,-102,-58,-200,-161,-112,-53,-53
-244,-224,19,234,-131,-102,-58,-200,-165,-122,-63,-73
-248,-229,19,239,-134,-104,-58,-200,-165,-126,-73,-78
-248,-229,19,239,-134,-104,-58,-200,-165,-131,-73,-78
-248,-229,19,239,-134,-104,-58,-200,-165,-136,-78,-82
-253,-234,19,244,-136,-107,-58,-200,-170,-136,-78,-87
-253,-234,19,244,-136,-107,-58,-200,-170,-136,-82,-87
-253,-234,19,244,-136,-107,-58,-200,-170,-131,-82,-82
-253,-234,19,244,-136,-107,-53,-200,-170,-131,-82,-82
-248,-224,24,236,-136,-100,-63,-209,-170,-141,-82,-82
-248,-224,24,236,-136,-100,-63,-209,-170,-141,-82,-82
-248,-224,24,236,-136,-100,-58,-204,-170,-141,-82,-82
-248,-224,24,236,-136,-100,-58,-204,-170,-141,-82,-82
-248,-214,34,231,-141,-90,-48,-204,-165,-131,-82,-82
-244,-209,34,226,-139,-87,-48,-204,-165,-131,-82,-82
-244,-204,39,224,-141,-82,-48,-204,-165,-126,-82,-82
-244,-200,43,222,-143,-78,-48,-200,-165,-126,-78,-82
-234,-185,48,209,-141,-68,-48,-200,-161,-136,-78,-82
-234,-185,48,209,-141,-68,-48,-200,-156,-136,-78,-78
-234,-185,48,209,-141,-68,-43,-200,-156,-131,-78,-78
-234,-185,48,209,-141,-68,-43,-200,-156,-131,-73,-78
-234,-185,48,209,-141,-68,-43,-190,-156,-131,-63,-73
-234,-185,48,209,-141,-68,-43,-185,-156,-131,-63,-73
-229,-185,43,207,-136,-70,-43,-185,-156,-131,-63,-73
-229,-190,39,209,-134,-75,-43,-185,-151,-131,-63,-73
-244,-190,53,217,-148,-68,-34,-175,-141,-112,-53,-63
-244,-190,53,217,-148,-68,-34,-175,-146,-117,-63,-73
-234,-190,43,212,-139,-73,-34,-175,-141,-126,-73,-97
-244,-190,53,217,-148,-68,-29,-156,-141,-136,-87,-102
-239,-190,48,214,-143,-70,-9,-122,-117,-107,-87,-102
-219,-175,43,197,-131,-65,14,-58,-73,-73,-73,-92
-214,-165,48,190,-131,-58,48,43,0,-34,-58,-73
-209,-136,73,173,-141,-31,82,161,92,39,-4,-39
-170,-97,73,134,-122,-12,92,229,195,117,53,9
-141,-48,92,95,-117,21,73,244,287,209,136,58
-117,4,122,56,-119,63,73,268,405,336,229,122
-63,58,122,2,-92,90,58,326,546,463,307,185
-9,102,112,-46,-61,107,24,356,683,590,385,239
48,170,122,-109,-36,146,4,370,834,732,468,312
136,239,102,-187,17,170,-24,405,1010,893,566,385
175,312,136,-244,19,224,-68,429,1171,1034,673,458
204,385,180,-295,12,283,-131,444,1283,1146,761,527
273,429,156,-351,58,292,-209,429,1366,1195,810,575
346,478,131,-412,107,305,-317,380,1381,1224,844,605
361,536,175,-448,92,356,-424,268,1356,1224,888,644
317,595,278,-456,19,436,-556,58,1254,1185,893,688
283,629,346,-456,-31,488,-683,-244,1054,1083,868,697
214,649,434,-431,-109,541,-819,-570,805,936,824,683
156,585,429,-370,-136,507,-941,-839,536,727,717,619
131,453,322,-292,-95,387,-1029,-980,268,439,527,492
73,312,239,-192,-82,275,-1078,-1141,-43,126,331,341
-53,219,273,-82,-163,246,-1146,-1444,-478,-180,175,244
-146,175,322,-14,-234,248,-1224,-1766,-902,-453,43,175
-165,131,297,17,-231,214,-1273,-1947,-1156,-614,-58,107
-175,92,268,41,-222,180,-1263,-1947,-1234,-683,-117,48
-204,43,248,80,-226,146,-1190,-1825,-1195,-673,-136,19
-234,24,258,104,-246,141,-1068,-1634,-1078,-619,-136,4
-219,14,234,102,-226,124,-922,-1415,-956,-561,-146,-19
-224,-24,200,124,-212,87,-756,-1185,-829,-517,-165,-48
-253,-34,219,143,-236,92,-605,-961,-692,-463,-156,-58
-253,-14,239,134,-246,112,-488,-790,-566,-385,-117,-48
-258,-14,244,136,-251,114,-395,-658,-473,-317,-92,-39
-258,-43,214,151,-236,85,-302,-541,-395,-273,-87,-58
-263,-78,185,170,-224,53,-239,-434,-322,-234,-87,-78
-253,-92,161,173,-207,34,-195,-380,-283,-204,-87,-78
-253,-107,146,180,-200,19,-165,-341,-273,-204,-87,-78
-244,-107,136,175,-190,14,-136,-317,-273,-204,-87,-82
-248,-117,131,183,-190,7,-112,-297,-263,-204,-92,-92
-258,-136,122,197,-190,-7,-78,-263,-248,-200,-97,-97
-268,-146,122,207,-195,-12,-43,-229,-229,-200,-92,-97
-258,-146,112,202,-185,-17,-39,-209,-219,-200,-102,-102
-258,-146,112,202,-185,-17,-34,-209,-214,-195,-107,-112
-258,-146,112,202,-185,-17,-34,-200,-219,-195,-107,-112
-263,-161,102,212,-183,-29,-29,-190,-209,-195,-117,-102
-263,-165,97,214,-180,-34,-19,-185,-209,-195,-117,-107
-258,-165,92,212,-175,-36,-14,-180,-204,-195,-117,-112
-258,-165,92,212,-175,-36,-9,-165,-204,-195,-126,-112
-248,-165,82,207,-165,-41,4,-165,-195,-204,-126,-122
-248,-175,73,212,-161,-51,9,-151,-190,-195,-126,-122
-253,-175,78,214,-165,-48,14,-151,-185,-190,-126,-122
-253,-165,87,209,-170,-39,14,-151,-180,-190,-122,-122
-258,-175,82,217,-170,-46,24,-151,-180,-180,-112,-112
-263,-175,87,219,-175,-43,24,-146,-180,-180,-112,-112
-268,-180,87,224,-178,-46,24,-146,-180,-180,-112,-112
-273,-180,92,226,-183,-43,29,-136,-180,-180,-112,-112
-268,-170,97,219,-183,-36,24,-122,-175,-180,-117,-102
-263,-170,92,217,-178,-39,24,-122,-175,-180,-117,-102
-253,-170,82,212,-168,-43,24,-122,-165,-180,-117,-102
-248,-170,78,209,-163,-46,24,-117,-165,-175,-122,-102
-253,-170,82,212,-168,-43,39,-107,-156,-175,-112,-102
-258,-175,82,217,-170,-46,39,-102,-156,-170,-107,-97
-263,-175,87,219,-175,-43,39,-102,-151,-170,-102,-97
-273,-175,97,224,-185,-39,43,-97,-151,-170,-102,-97
-258,-175,82,217,-170,-46,43,-97,-151,-170,-117,-97
-248,-175,73,212,-161,-51,43,-97,-151,-170,-117,-97
-244,-175,68,209,-156,-53,43,-97,-146,-170,-112,-97
-239,-175,63,207,-151,-56,48,-87,-141,-165,-112,-97
-239,-185,53,212,-146,-65,48,-87,-141,-165,-126,-107
-244,-185,58,214,-151,-63,48,-87,-141,-165,-126,-107
-248,-185,63,217,-156,-61,48,-78,-136,-165,-126,-107
-248,-185,63,217,-156,-61,48,-78,-136,-165,-126,-107
-248,-185,63,217,-156,-61,39,-68,-136,-161,-126,-117
-253,-185,68,219,-161,-58,39,-58,-126,-161,-122,-117
-253,-185,68,219,-161,-58,43,-58,-126,-161,-122,-112
-253,-185,68,219,-161,-58,43,-58,-126,-156,-122,-112
-253,-185,68,219,-161,-58,53,-53,-126,-156,-107,-97
-244,-185,58,214,-151,-63,53,-53,-122,-156,-102,-92
-234,-185,48,209,-141,-68,53,-43,-122,-156,-97,-87
-244,-185,58,214,-151,-63,53,-34,-112,-156,-92,-82
-248,-185,63,217,-156,-61,48,-43,-117,-165,-102,-82
-248,-185,63,217,-156,-61,48,-39,-112,-161,-97,-87
-239,-190,48,214,-143,-70,48,-34,-112,-161,-92,-92
-239,-190,48,214,-143,-70,48,-29,-107,-156,-92,-97
-248,-175,73,212,-161,-51,53,-14,-102,-156,-102,-92
-248,-170,78,209,-163,-46,53,-4,-97,-151,-102,-92
-248,-165,82,207,-165,-41,53,0,-92,-151,-102,-97
-248,-161,87,204,-168,-36,53,4,-87,-146,-102,-97
-234,-146,87,190,-161,-29,58,4,-92,-146,-107,-107
-234,-146,87,190,-161,-29,58,9,-87,-146,-107,-107
-234,-146,87,190,-161,-29,63,24,-78,-136,-107,-102
-234,-146,87,190,-161,-29,63,24,-73,-136,-107,-102
-219,-131,87,175,-153,-21,53,24,-78,-151,-112,-112
-219,-131,87,175,-153,-21,63,39,-68,-146,-112,-112
-219,-131,87,175,-153,-21,63,48,-58,-146,-112,-102
-214,-131,82,173,-148,-24,63,58,-58,-141,-112,-102
-224,-141,82,183,-153,-29,73,73,-39,-131,-102,-97
-224,-141,82,183,-153,-29,78,92,-24,-122,-92,-92
-219,-141,78,180,-148,-31,87,107,-14,-112,-87,-87
-214,-131,82,173,-148,-24,92,131,-4,-102,-82,-78
-204,-136,68,170,-136,-34,97,151,14,-82,-73,-68
-200,-141,58,170,-129,-41,107,165,24,-78,-68,-68
-200,-141,58,170,-129,-41,112,180,34,-73,-68,-53
-195,-146,48,170,-122,-48,117,200,43,-63,-58,-48
-185,-141,43,163,-114,-48,117,214,58,-68,-53,-53
-185,-141,43,163,-114,-48,122,229,78,-58,-53,-53
-175,-141,34,158,-104,-53,126,244,87,-48,-48,-53
-170,-141,29,156,-100,-56,126,258,107,-34,-43,-53
-180,-151,29,165,-104,-61,146,292,122,-39,-48,-58
-180,-146,34,163,-107,-56,151,312,136,-24,-43,-53
-180,-136,43,158,-112,-46,156,331,151,-14,-39,-48
-175,-131,43,153,-109,-43,161,346,165,-4,-34,-48
-165,-126,39,146,-102,-43,156,366,170,9,-39,-43
-161,-126,34,143,-97,-46,161,375,190,19,-29,-39
-151,-126,24,139,-87,-51,165,390,200,29,-24,-34
-151,-126,24,139,-87,-51,170,405,214,34,-19,-29
-156,-117,39,136,-97,-39,175,424,229,39,-9,-14
-161,-117,43,139,-102,-36,180,439,248,48,0,-9
-161,-112,48,136,-104,-31,185,458,263,63,9,-9
-165,-107,58,136,-112,-24,185,463,268,68,19,-9
-156,-97,58,126,-107,-19,195,483,278,78,24,4
-156,-97,58,126,-107,-19,204,492,292,87,24,9
-151,-87,63,119,-107,-12,204,507,302,97,34,14
-146,-82,63,114,-104,-9,204,512,312,102,34,24
-136,-82,53,109,-95,-14,195,507,322,122,43,34
-136,-73,63,104,-100,-4,204,517,326,126,53,34
-136,-73,63,104,-100,-4,209,531,336,131,58,34
-136,-73,63,104,-100,-4,209,531,341,136,63,39
-136,-78,58,107,-97,-9,224,546,346,131,63,29
-126,-78,48,102,-87,-14,224,551,351,136,63,29
-126,-78,48,102,-87,-14,224,556,356,146,73,39
-126,-78,48,102,-87,-14,229,561,366,156,78,39
-131,-68,63,100,-97,-2,229,561,380,161,68,39
-131,-68,63,100,-97,-2,229,561,385,161,78,39
-131,-68,63,100,-97,-2,229,566,385,161,78,43
-131,-68,63,100,-97,-2,229,566,385,161,78,43
-122,-63,58,92,-90,-2,239,575,395,170,87,58
-122,-63,58,92,-90,-2,239,566,395,175,87,63
-112,-63,48,87,-80,-7,239,561,395,175,92,63
-126,-58,68,92,-97,4,239,551,395,175,92,63
-126,-58,68,92,-97,4,239,531,385,175,97,53
-126,-58,68,92,-97,4,229,522,380,175,97,58
-126,-48,78,87,-102,14,224,502,370,175,92,58
-126,-39,87,82,-107,24,224,488,361,165,92,58
-126,-34,92,80,-109,29,219,473,361,170,92,58
-126,-34,92,80,-109,29,214,458,341,170,92,58
-136,-34,102,85,-119,34,204,439,336,170,92,58
-136,-34,102,85,-119,34,204,414,322,165,92,58
-141,-34,107,87,-124,36,190,380,302,156,82,58
-141,-34,107,87,-124,36,180,356,283,146,73,53
-146,-34,112,90,-129,39,170,336,268,136,73,53
-151,-29,122,90,-136,46,170,312,244,136,73,53
-146,-29,117,87,-131,43,165,283,244,122,73,43
-146,-29,117,87,-131,43,151,258,219,112,63,43
-146,-29,117,87,-131,43,141,234,204,112,63,43
-151,-29,122,90,-136,46,141,209,195,97,63,39
-161,-29,131,95,-146,51,131,195,180,87,58,39
-161,-34,126,97,-143,46,126,180,165,82,53,39
-161,-39,122,100,-141,41,112,161,151,73,48,39
-161,-43,117,102,-139,36,97,141,136,63,43,39
-156,-39,117,97,-136,39,102,112,112,43,24,29
-161,-43,117,102,-139,36,92,87,97,34,19,24
-156,-48,107,102,-131,29,92,73,82,24,14,19
-151,-53,97,102,-124,21,87,53,73,24,14,4
-141,-53,87,97,-114,17,73,48,58,29,19,4
-141,-53,87,97,-114,17,68,29,43,19,14,4
-146,-53,92,100,-119,19,63,14,39,9,9,4
-146,-53,92,100,-119,19,58,4,24,0,9,4
-136,-53,82,95,-109,14,53,0,14,-9,14,-4
-136,-53,82,95,-109,14,48,-14,4,-14,9,-14
-136,-58,78,97,-107,9,43,-19,0,-19,9,-14
-141,-63,78,102,-109,7,39,-29,-9,-24,4,-14
-146,-73,73,109,-109,0,39,-39,-19,-29,0,-24
-146,-78,68,112,-107,-4,39,-43,-24,-34,-14,-24
-151,-82,68,117,-109,-7,39,-43,-29,-39,-24,-29
-161,-87,73,124,-117,-7,39,-53,-34,-43,-29,-29
-156,-78,78,117,-117,0,34,-58,-29,-53,-29,-29
-156,-82,73,119,-114,-4,34,-63,-34,-58,-39,-29
-151,-82,68,117,-109,-7,29,-63,-39,-63,-39,-34
-146,-82,63,114,-104,-9,24,-68,-43,-68,-39,-39
-146,-87,58,117,-102,-14,29,-82,-43,-58,-34,-29
-146,-92,53,119,-100,-19,29,-87,-48,-58,-34,-29
-141,-97,43,119,-92,-26,29,-87,-48,-58,-39,-29
-141,-107,34,124,-87,-36,29,-92,-53,-63,-39,-29
-151,-102,48,126,-100,-26,29,-102,-58,-78,-48,-39
-151,-102,48,126,-100,-26,29,-102,-63,-78,-48,-43
-151,-102,48,126,-100,-26,29,-102,-73,-78,-48,-43
-156,-107,48,131,-102,-29,29,-102,-82,-78,-48,-43
-151,-97,53,124,-102,-21,19,-97,-73,-82,-48,-43
-151,-97,53,124,-102,-21,19,-97,-73,-82,-48,-48
-146,-102,43,124,-95,-29,19,-97,-82,-82,-48,-48
-141,-102,39,122,-90,-31,19,-97,-82,-87,-48,-48
-136,-92,43,114,-90,-24,19,-112,-87,-87,-39,-43
-136,-92,43,114,-90,-24,19,-112,-87,-92,-39,-43
-131,-87,43,109,-87,-21,19,-112,-82,-92,-39,-39
-136,-87,48,112,-92,-19,19,-112,-82,-92,-43,-29
-141,-87,53,114,-97,-17,24,-102,-82,-82,-34,-29
-141,-87,53,114,-97,-17,24,-102,-82,-82,-34,-29
-146,-87,58,117,-102,-14,24,-97,-82,-82,-34,-29
-151,-87,63,119,-107,-12,24,-97,-82,-78,-34,-24
-146,-87,58,117,-102,-14,14,-107,-87,-78,-39,-29
-141,-87,53,114,-97,-17,14,-107,-87,-82,-43,-34
-131,-87,43,109,-87,-21,9,-107,-92,-87,-48,-43
-126,-87,39,107,-82,-24,9,-107,-92,-92,-53,-48
-131,-87,43,109,-87,-21,14,-107,-87,-92,-58,-58
-131,-87,43,109,-87,-21,14,-102,-82,-97,-63,-53
-131,-87,43,109,-87,-21,14,-102,-82,-97,-63,-53
-126,-82,43,104,-85,-19,14,-102,-82,-97,-68,-53
-126,-82,43,104,-85,-19,14,-97,-82,-92,-58,-53
-126,-82,43,104,-85,-19,19,-97,-82,-87,-58,-53
-126,-82,43,104,-85,-19,19,-97,-78,-82,-53,-53
-136,-82,53,109,-95,-14,19,-92,-78,-82,-53,-48
-136,-78,58,107,-97,-9,19,-87,-78,-82,-58,-39
-131,-78,53,104,-92,-12,19,-87,-78,-87,-63,-43
-126,-78,48,102,-87,-14,19,-87,-73,-92,-63,-48
-126,-73,53,100,-90,-9,19,-87,-73,-97,-68,-48
-126,-82,43,104,-85,-19,19,-82,-73,-97,-58,-43
-126,-78,48,102,-87,-14,19,-82,-68,-92,-53,-43
-126,-78,48,102,-87,-14,19,-82,-68,-92,-53,-39
-126,-78,48,102,-87,-14,19,-82,-68,-92,-53,-39
-122,-68,53,95,-87,-7,19,-82,-58,-82,-43,-29
-122,-63,58,92,-90,-2,19,-78,-48,-78,-43,-24
-126,-63,63,95,-95,0,19,-78,-48,-73,-43,-24
-122,-63,58,92,-90,-2,19,-78,-48,-68,-43,-24
-131,-63,68,97,-100,2,9,-78,-58,-78,-43,-34
-126,-58,68,92,-97,4,4,-78,-58,-82,-43,-39
-112,-58,53,85,-82,-2,4,-78,-58,-82,-48,-39
-112,-58,53,85,-82,-2,9,-78,-58,-78,-48,-34
-117,-48,68,82,-92,9,19,-78,-63,-73,-58,-39
-122,-48,73,85,-97,12,19,-73,-63,-73,-53,-39
-126,-48,78,87,-102,14,19,-73,-63,-73,-48,-39
-131,-48,82,90,-107,17,19,-73,-63,-73,-48,-39
-131,-48,82,90,-107,17,19,-82,-63,-73,-48,-43
-141,-48,92,95,-117,21,19,-73,-63,-68,-48,-48
-141,-43,97,92,-119,26,19,-73,-63,-68,-53,-53
-131,-43,87,87,-109,21,19,-73,-63,-68,-58,-58
-122,-43,78,82,-100,17,9,-68,-63,-78,-68,-58
-122,-43,78,82,-100,17,9,-63,-63,-78,-73,-58
-117,-43,73,80,-95,14,9,-58,-63,-78,-73,-58
-117,-43,73,80,-95,14,9,-58,-63,-78,-78,-58
-107,-34,73,70,-90,19,9,-48,-53,-78,-58,-43
-112,-39,73,75,-92,17,9,-34,-53,-73,-43,-34
-112,-39,73,75,-92,17,9,-24,-53,-68,-29,-24
-112,-39,73,75,-92,17,4,-19,-53,-63,-19,-14
-122,-39,82,80,-102,21,14,-19,-63,-63,-19,-14
-126,-39,87,82,-107,24,14,-24,-63,-63,-24,-14
-126,-39,87,82,-107,24,14,-29,-68,-63,-29,-14
-126,-39,87,82,-107,24,14,-29,-68,-63,-29,-14
-117,-43,73,80,-95,14,9,-19,-68,-73,-39,-29
-117,-43,73,80,-95,14,9,-19,-68,-73,-43,-34
-117,-43,73,80,-95,14,9,-24,-73,-73,-48,-39
-122,-43,78,82,-100,17,9,-24,-73,-78,-53,-43
-122,-43,78,82,-100,17,0,-29,-73,-87,-63,-43
-117,-43,73,80,-95,14,0,-29,-78,-87,-63,-48
-117,-43,73,80,-95,14,0,-29,-78,-87,-63,-48
-122,-43,78,82,-100,17,-4,-29,-78,-87,-63,-48
-131,-39,92,85,-112,26,-4,-29,-82,-97,-73,-58
-126,-39,87,82,-107,24,-9,-34,-87,-97,-78,-63
-126,-39,87,82,-107,24,-9,-39,-87,-102,-78,-63
-126,-39,87,82,-107,24,-9,-43,-87,-102,-78,-63
-126,-29,97,78,-112,34,-9,-34,-82,-92,-73,-53
-126,-34,92,80,-109,29,-9,-34,-82,-92,-68,-48
-126,-39,87,82,-107,24,-9,-34,-82,-92,-63,-43
-126,-43,82,85,-104,19,-9,-34,-82,-92,-58,-39
-117,-34,82,75,-100,24,-9,-34,-82,-92,-58,-43
-112,-34,78,73,-95,21,-14,-34,-87,-92,-58,-43
-112,-34,78,73,-95,21,-14,-34,-92,-92,-63,-43
-117,-34,82,75,-100,24,-14,-43,-92,-92,-63,-43
-126,-24,102,75,-114,39,-14,-53,-102,-97,-68,-48
-126,-19,107,73,-117,43,-19,-53,-107,-107,-63,-53
-126,-14,112,70,-119,48,-19,-53,-107,-117,-68,-58
-126,-9,117,68,-122,53,-19,-53,-117,-122,-78,-63
-117,-4,112,61,-114,53,-29,-68,-126,-112,-82,-68
-117,0,117,58,-117,58,-29,-68,-126,-112,-87,-73
-122,4,126,58,-124,65,-29,-68,-117,-122,-87,-73
-126,9,136,58,-131,73,-29,-68,-117,-122,-82,-68
-126,9,136,58,-131,73,-24,-68,-126,-126,-82,-68
-122,9,131,56,-126,70,-24,-73,-131,-126,-82,-73
-117,9,126,53,-122,68,-29,-73,-131,-117,-82,-73
-107,9,117,48,-112,63,-29,-73,-131,-117,-82,-73
-112,9,122,51,-117,65,-24,-63,-126,-117,-92,-78
-117,9,126,53,-122,68,-24,-63,-126,-122,-97,-82
-122,9,131,56,-126,70,-19,-63,-122,-122,-102,-87
-126,9,136,58,-131,73,-19,-63,-117,-126,-107,-92
-117,0,117,58,-117,58,-24,-68,-117,-131,-97,-87
-126,0,126,63,-126,63,-24,-68,-117,-131,-97,-82
-136,0,136,68,-136,68,-24,-68,-117,-131,-97,-78
-126,0,126,63,-126,63,-19,-68,-117,-136,-97,-73
-122,0,122,61,-122,61,-29,-68,-126,-136,-92,-87
-122,0,122,61,-122,61,-34,-68,-131,-136,-92,-87
-131,0,131,65,-131,65,-39,-68,-131,-136,-87,-87
-131,0,131,65,-131,65,-39,-68,-136,-131,-87,-87
-122,9,131,56,-126,70,-39,-82,-131,-131,-92,-78
-112,9,122,51,-117,65,-48,-82,-136,-131,-97,-78
-112,9,122,51,-117,65,-39,-82,-136,-131,-97,-78
-117,9,126,53,-122,68,-34,-82,-136,-131,-97,-73
-126,19,146,53,-136,82,-24,-73,-126,-131,-92,-63
-126,19,146,53,-136,82,-29,-73,-122,-131,-87,-68
-126,19,146,53,-136,82,-29,-78,-122,-126,-82,-68
-126,14,141,56,-134,78,-29,-78,-122,-126,-82,-68
-107,29,136,39,-122,82,-39,-68,-126,-126,-82,-63
-126,29,156,48,-141,92,-29,-68,-117,-126,-82,-63
-136,29,165,53,-151,97,-29,-78,-126,-126,-82,-82
-126,29,156,48,-141,92,-43,-78,-146,-136,-92,-92
-146,29,175,58,-161,102,-39,-78,-146,-136,-97,-97
-136,39,175,48,-156,107,-39,-87,-146,-146,-107,-87
-136,39,175,48,-156,107,-39,-87,-146,-146,-107,-87
-136,39,175,48,-156,107,-39,-87,-146,-146,-107,-87
-136,39,175,48,-156,107,-39,-87,-146,-146,-107,-87
-141,29,170,56,-156,100,-39,-78,-136,-141,-117,-78
-141,29,170,56,-156,100,-39,-78,-136,-141,-122,-78
-141,34,175,53,-158,104,-39,-78,-136,-136,-122,-78
-141,34,175,53,-158,104,-39,-78,-136,-136,-122,-78
-131,43,175,43,-153,109,-43,-82,-136,-136,-112,-78
-131,43,175,43,-153,109,-43,-82,-136,-136,-107,-73
-126,48,175,39,-151,112,-39,-82,-131,-131,-97,-73
-126,58,185,34,-156,122,-34,-78,-126,-126,-87,-73
-136,58,195,39,-165,126,-34,-68,-122,-122,-87,-68
-136,58,195,39,-165,126,-34,-63,-122,-126,-87,-63
-131,68,200,31,-165,134,-34,-63,-117,-131,-82,-63
-131,78,209,26,-170,143,-29,-48,-112,-126,-78,-58
-122,78,200,21,-161,139,-19,-48,-107,-122,-78,-58
-117,82,200,17,-158,141,-14,-48,-102,-117,-78,-58
-112,87,200,12,-156,143,-14,-53,-97,-117,-73,-63
-112,92,204,9,-158,148,-14,-58,-97,-107,-78,-68
-117,97,214,9,-165,156,-14,-48,-92,-107,-87,-63
-107,102,209,2,-158,156,-9,-39,-87,-102,-87,-68
-102,102,204,0,-153,153,-9,-39,-82,-97,-87,-73
-102,107,209,-2,-156,158,-9,-39,-82,-97,-82,-78
-107,107,214,0,-161,161,0,-43,-92,-87,-73,-58
-107,102,209,2,-158,156,-4,-48,-102,-92,-73,-53
-107,97,204,4,-156,151,-14,-53,-102,-102,-73,-53
-102,97,200,2,-151,148,-19,-53,-102,-102,-73,-48
-92,102,195,-4,-143,148,-29,-48,-92,-97,-63,-48
-87,102,190,-7,-139,146,-34,-48,-92,-92,-63,-48
-87,107,195,-9,-141,151,-48,-58,-92,-92,-63,-48
-87,112,200,-12,-143,156,-58,-58,-92,-92,-53,-39
-78,117,195,-19,-136,156,-58,-63,-92,-87,-53,-43
-68,131,200,-31,-134,165,-78,-68,-97,-87,-53,-43
-63,136,200,-36,-131,168,-92,-82,-102,-87,-53,-43
-63,141,204,-39,-134,173,-97,-97,-112,-97,-53,-43
-73,122,195,-24,-134,158,-117,-107,-122,-117,-53,-43
-73,112,185,-19,-129,148,-122,-122,-141,-136,-68,-53
-73,97,170,-12,-122,134,-122,-131,-151,-151,-73,-58
-78,87,165,-4,-122,126,-122,-131,-151,-151,-78,-53
-78,78,156,0,-117,117,-117,-126,-151,-151,-92,-58
-78,68,146,4,-112,107,-117,-126,-156,-156,-97,-58
-78,68,146,4,-112,107,-117,-122,-156,-156,-97,-58
-78,68,146,4,-112,107,-107,-122,-151,-151,-97,-58
-78,73,151,2,-114,112,-102,-122,-151,-141,-97,-58
-78,82,161,-2,-119,122,-97,-122,-151,-131,-92,-58
-73,82,156,-4,-114,119,-92,-122,-151,-131,-97,-63
-68,82,151,-7,-109,117,-92,-117,-146,-136,-102,-68
-68,73,141,-2,-104,107,-92,-117,-156,-136,-97,-53
-73,73,146,0,-109,109,-92,-117,-151,-136,-92,-53
-87,73,161,7,-124,117,-82,-112,-151,-136,-82,-53
-97,73,170,12,-134,122,-78,-107,-146,-131,-78,-53
-97,68,165,14,-131,117,-63,-97,-136,-141,-87,-68
-102,63,165,19,-134,114,-58,-97,-146,-151,-97,-73
-107,48,156,29,-131,102,-58,-112,-156,-161,-112,-82
-117,43,161,36,-139,102,-58,-112,-161,-170,-112,-92
-136,34,170,51,-153,102,-58,-112,-165,-170,-126,-112
-141,24,165,58,-153,95,-58,-112,-165,-175,-141,-117
-141,19,161,61,-151,90,-58,-112,-165,-180,-146,-117
-141,14,156,63,-148,85,-58,-112,-165,-185,-156,-122
-146,19,165,63,-156,92,-58,-112,-161,-175,-151,-122
-146,19,165,63,-156,92,-58,-112,-161,-175,-151,-117
-146,19,165,63,-156,92,-58,-112,-161,-170,-146,-107
-146,19,165,63,-156,92,-53,-112,-161,-170,-141,-102
-141,19,161,61,-151,90,-53,-112,-161,-165,-131,-97
-141,19,161,61,-151,90,-53,-112,-161,-161,-122,-92
-141,19,161,61,-151,90,-48,-107,-161,-156,-112,-87
-141,19,161,61,-151,90,-48,-107,-161,-151,-102,-82
-151,24,175,63,-163,100,-39,-107,-156,-161,-112,-92
-146,24,170,61,-158,97,-39,-107,-156,-161,-112,-92
-146,24,170,61,-158,97,-39,-107,-156,-156,-112,-92
-146,24,170,61,-158,97,-39,-102,-156,-156,-107,-92
-136,29,165,53,-151,97,-48,-107,-151,-161,-122,-97
-136,29,165,53,-151,97,-48,-112,-146,-165,-126,-97
-136,29,165,53,-151,97,-43,-117,-146,-165,-131,-102
-136,29,165,53,-151,97,-43,-122,-146,-170,-131,-107
-146,19,165,63,-156,92,-34,-112,-146,-170,-141,-112
-146,19,165,63,-156,92,-34,-107,-146,-170,-141,-112
-141,19,161,61,-151,90,-34,-107,-146,-170,-141,-112
-141,14,156,63,-148,85,-34,-107,-141,-170,-141,-112
-136,24,161,56,-148,92,-53,-107,-151,-161,-151,-112
-146,24,170,61,-158,97,-43,-107,-146,-156,-161,-122
-146,34,180,56,-163,107,-34,-87,-141,-146,-161,-136
-136,34,170,51,-153,102,-19,-68,-122,-146,-165,-131
-131,14,146,58,-139,80,-9,-34,-107,-156,-156,-131
-131,19,151,56,-141,85,14,9,-73,-131,-141,-122
-126,29,156,48,-141,92,39,92,0,-73,-87,-92
-122,48,170,36,-146,109,63,190,112,29,-24,-39
-92,78,170,7,-131,124,63,258,204,126,24,0
-63,146,209,-41,-136,178,53,283,297,219,78,48
-19,209,229,-95,-124,219,43,307,405,336,161,112
34,263,229,-148,-97,246,48,366,556,473,258,175
78,307,229,-192,-75,268,43,405,702,619,356,248
136,356,219,-246,-41,287,24,429,854,780,478,331
185,424,239,-305,-26,331,-4,463,1029,971,624,434
234,497,263,-366,-14,380,-39,468,1190,1151,751,536
273,570,297,-422,-12,434,-82,444,1312,1283,849,614
292,624,331,-458,-19,478,-141,400,1385,1361,907,653
326,653,326,-490,0,490,-200,351,1429,1410,932,683
361,712,351,-536,4,531,-287,248,1395,1410,956,702
346,761,414,-553,-34,588,-409,48,1283,1361,961,727
292,795,502,-544,-104,649,-517,-234,1083,1259,936,736
214,834,619,-524,-202,727,-605,-551,824,1083,883,722
156,800,644,-478,-244,722,-697,-829,527,854,785,678
122,649,527,-385,-202,588,-775,-971,278,585,605,551
73,458,385,-265,-156,422,-834,-1063,4,263,370,370
-4,346,351,-170,-178,348,-893,-1259,-429,-151,97,185
-87,273,361,-92,-224,317,-951,-1522,-932,-570,-141,39
-126,219,346,-46,-236,283,-1019,-1693,-1254,-810,-273,-48
-136,161,297,-12,-217,229,-1058,-1722,-1351,-878,-322,-87
-126,131,258,-2,-192,195,-1054,-1659,-1322,-878,-322,-97
-136,122,258,7,-197,190,-961,-1507,-1215,-814,-302,-92
-161,102,263,29,-212,183,-854,-1327,-1073,-727,-283,-97
-185,92,278,46,-231,185,-727,-1137,-946,-653,-273,-107
-195,92,287,51,-241,190,-585,-941,-810,-600,-273,-126
-185,102,287,41,-236,195,-478,-751,-673,-512,-244,-117
-180,112,292,34,-236,202,-385,-600,-551,-424,-219,-107
-180,122,302,29,-241,212,-292,-463,-434,-341,-195,-97
-195,107,302,43,-248,204,-219,-356,-341,-283,-165,-97
-195,82,278,56,-236,180,-185,-302,-302,-253,-156,-107
-165,78,244,43,-204,161,-165,-273,-283,-253,-156,-117
-146,78,224,34,-185,151,-136,-239,-263,-244,-156,-112
-161,58,219,51,-190,139,-112,-200,-263,-253,-170,-112
-151,48,200,51,-175,124,-87,-165,-258,-268,-185,-126
-131,39,170,46,-151,104,-53,-131,-229,-248,-190,-126
-141,19,161,61,-151,90,-39,-102,-200,-219,-180,-131
-141,9,151,65,-146,80,-24,-92,-175,-204,-175,-131
-141,0,141,70,-141,70,-14,-92,-180,-214,-185,-141
-146,-4,141,75,-143,68,-14,-82,-180,-214,-175,-131
-146,-9,136,78,-141,63,-9,-78,-180,-214,-175,-136
-141,-9,131,75,-136,61,-9,-73,-175,-214,-175,-141
-141,-9,131,75,-136,61,-9,-58,-175,-214,-185,-141
-136,-9,126,73,-131,58,4,-58,-170,-229,-190,-151
-131,-19,112,75,-122,46,9,-43,-170,-224,-195,-151
-131,-19,112,75,-122,46,14,-43,-170,-224,-200,-151
-126,-9,117,68,-122,53,14,-43,-170,-229,-200,-151
-141,-9,131,75,-136,61,24,-34,-165,-219,-190,-151
-146,-9,136,78,-141,63,24,-29,-161,-219,-190,-151
-151,-14,136,82,-143,61,24,-29,-156,-219,-190,-151
-156,-14,141,85,-148,63,29,-19,-151,-219,-190,-151
-151,-4,146,78,-148,70,34,-4,-136,-209,-190,-161
-146,-4,141,75,-143,68,34,-4,-136,-209,-195,-161
-136,-4,131,70,-134,63,34,-4,-126,-209,-200,-161
-131,-4,126,68,-129,61,34,0,-126,-204,-209,-161
-131,-4,126,68,-129,61,29,-9,-136,-204,-195,-156
-131,-9,122,70,-126,56,29,-4,-136,-200,-185,-146
-131,-9,122,70,-126,56,29,-4,-131,-200,-175,-141
-136,-9,126,73,-131,58,34,0,-131,-200,-170,-136
-146,-9,136,78,-141,63,34,9,-131,-190,-165,-136
-141,-9,131,75,-136,61,34,9,-131,-190,-165,-136
-141,-9,131,75,-136,61,34,9,-126,-190,-161,-136
-141,-9,131,75,-136,61,39,19,-122,-185,-161,-136
-146,-9,136,78,-141,63,39,9,-131,-190,-180,-141
-146,-9,136,78,-141,63,39,9,-131,-195,-185,-146
-146,-9,136,78,-141,63,39,19,-126,-200,-190,-151
-141,-9,131,75,-136,61,39,19,-126,-204,-195,-156
-131,-14,117,73,-124,51,48,29,-122,-190,-185,-141
-136,-19,117,78,-126,48,48,39,-107,-190,-170,-136
-136,-24,112,80,-124,43,53,39,-102,-190,-161,-126
-136,-29,107,82,-122,39,53,39,-97,-185,-151,-122
-136,-19,117,78,-126,48,53,34,-97,-185,-161,-131
-126,-19,107,73,-117,43,53,34,-92,-185,-161,-131
-117,-19,97,68,-107,39,53,43,-92,-185,-161,-131
-126,-19,107,73,-117,43,53,53,-82,-185,-161,-131
-122,-29,92,75,-107,31,58,63,-78,-175,-170,-136
-122,-29,92,75,-107,31,58,68,-73,-170,-165,-136
-112,-34,78,73,-95,21,58,73,-73,-170,-161,-136
-112,-34,78,73,-95,21,58,78,-68,-165,-161,-136
-112,-34,78,73,-95,21,63,82,-63,-165,-170,-122
-112,-34,78,73,-95,21,63,92,-58,-161,-170,-122
-112,-34,78,73,-95,21,63,97,-53,-161,-170,-126
-112,-34,78,73,-95,21,63,102,-48,-156,-170,-126
-107,-19,87,63,-97,34,68,102,-53,-156,-161,-126
-107,-19,87,63,-97,34,68,107,-48,-156,-156,-126
-107,-19,87,63,-97,34,73,122,-39,-146,-151,-122
-107,-19,87,63,-97,34,73,122,-34,-146,-146,-122
-102,-14,87,58,-95,36,73,131,-19,-146,-131,-117
-102,-14,87,58,-95,36,82,146,-9,-136,-131,-112
-102,-14,87,58,-95,36,82,156,0,-131,-131,-97
-97,-14,82,56,-90,34,82,165,0,-122,-131,-92
-87,-14,73,51,-80,29,78,175,9,-117,-136,-97
-87,-14,73,51,-80,29,78,190,24,-112,-131,-102
-82,-14,68,48,-75,26,82,200,34,-107,-131,-107
-78,-4,73,41,-75,34,82,219,43,-102,-131,-107
-87,4,92,41,-90,48,87,224,63,-92,-122,-107
-82,4,87,39,-85,46,97,234,73,-87,-117,-107
-82,9,92,36,-87,51,102,244,82,-82,-117,-92
-78,9,87,34,-82,48,107,258,92,-73,-107,-87
-78,4,82,36,-80,43,97,283,107,-68,-97,-78
-78,4,82,36,-80,43,102,297,126,-58,-92,-73
-68,4,73,31,-70,39,107,312,136,-48,-82,-68
-63,4,68,29,-65,36,107,326,156,-34,-73,-63
-53,4,58,24,-56,31,126,346,180,-24,-73,-63
-53,9,63,21,-58,36,131,361,195,-4,-73,-63
-53,19,73,17,-63,46,136,375,209,9,-73,-63
-48,24,73,12,-61,48,141,385,224,24,-73,-68
-48,29,78,9,-63,53,136,414,229,24,-58,-53
-43,29,73,7,-58,51,141,424,248,29,-48,-48
-34,29,63,2,-48,46,146,439,258,34,-43,-43
-34,29,63,2,-48,46,151,453,273,34,-39,-39
-43,19,63,12,-53,41,156,463,297,48,-34,-34
-43,19,63,12,-53,41,161,478,317,58,-29,-29
-39,24,63,7,-51,43,165,497,331,73,-24,-29
-39,29,68,4,-53,48,165,502,336,78,-19,-29
-39,39,78,0,-58,58,165,522,346,87,-24,-34
-39,39,78,0,-58,58,175,531,361,97,-24,-29
-34,48,82,-7,-58,65,175,546,370,107,-14,-24
-29,53,82,-12,-56,68,175,551,380,112,-14,-14
-29,53,82,-12,-56,68,175,551,380,117,-19,-14
-29,63,92,-17,-61,78,185,556,385,117,-14,-14
-29,63,92,-17,-61,78,190,566,395,117,-14,-14
-29,63,92,-17,-61,78,190,561,400,117,-14,-9
-29,58,87,-14,-58,73,195,566,405,126,-9,-9
-19,58,78,-19,-48,68,195,570,409,136,-4,-9
-19,58,78,-19,-48,68,195,575,414,151,9,0
-19,58,78,-19,-48,68,200,580,424,165,19,0
-14,58,73,-21,-43,65,190,580,439,180,24,4
-14,58,73,-21,-43,65,190,580,444,180,39,9
-14,58,73,-21,-43,65,190,585,444,180,43,19
-14,58,73,-21,-43,65,190,585,444,180,48,24
-19,73,92,-26,-56,82,200,585,434,175,43,19
-24,73,97,-24,-61,85,200,575,434,175,39,24
-19,73,92,-26,-56,82,200,570,434,170,39,24
-39,78,117,-19,-78,97,200,561,434,165,34,24
-29,78,107,-24,-68,92,200,551,414,165,39,24
-29,78,107,-24,-68,92,190,541,409,165,39,29
-29,87,117,-29,-73,102,185,522,400,165,34,29
-29,97,126,-34,-78,112,185,507,390,156,34,29
-29,92,122,-31,-75,107,170,492,390,156,48,29
-29,92,122,-31,-75,107,165,478,370,161,53,29
-39,92,131,-26,-85,112,156,458,366,165,58,29
-39,92,131,-26,-85,112,156,434,351,165,63,29
-43,92,136,-24,-90,114,156,419,336,141,53,19
-43,92,136,-24,-90,114,151,395,312,126,34,14
-48,92,141,-21,-95,117,146,375,292,112,24,14
-53,97,151,-21,-102,124,151,351,263,107,14,14
-48,87,136,-19,-92,112,146,341,263,82,14,14
-48,87,136,-19,-92,112,131,317,239,73,4,14
-48,87,136,-19,-92,112,122,292,224,73,4,14
-53,87,141,-17,-97,114,122,268,214,58,4,9
-53,87,141,-17,-97,114,112,244,185,58,0,0
-53,82,136,-14,-95,109,107,229,165,53,-4,0
-53,78,131,-12,-92,104,92,209,146,43,-9,0
-53,73,126,-9,-90,100,78,190,126,34,-14,0
-68,78,146,-4,-107,112,78,185,122,34,-24,-14
-82,73,156,4,-119,114,73,165,107,24,-29,-14
-87,68,156,9,-122,112,78,156,92,14,-34,-14
-92,63,156,14,-124,109,78,141,82,14,-34,-24
-87,48,136,19,-112,92,73,136,68,19,-24,-19
-82,43,126,19,-104,85,68,117,53,9,-24,-14
-82,39,122,21,-102,80,63,102,48,0,-24,-9
-78,34,112,21,-95,73,58,92,34,-9,-19,-4
-78,29,107,24,-92,68,53,78,24,-29,-29,-19
-78,34,112,21,-95,73,48,63,14,-34,-39,-34
-78,34,112,21,-95,73,43,58,9,-39,-43,-39
-82,34,117,24,-100,75,39,48,0,-43,-53,-43
-92,43,136,24,-114,90,39,43,0,-48,-43,-34
-87,39,126,24,-107,82,39,43,-4,-53,-53,-34
-87,34,122,26,-104,78,39,48,-9,-58,-58,-39
-92,29,122,31,-107,75,39,43,-14,-63,-58,-39
-102,29,131,36,-117,80,43,39,-19,-73,-68,-34
-107,24,131,41,-119,78,43,34,-24,-78,-78,-29
-107,24,131,41,-119,78,39,34,-29,-82,-78,-29
-107,24,131,41,-119,78,34,29,-34,-87,-78,-29
-107,14,122,46,-114,68,29,24,-43,-87,-87,-43
-107,14,122,46,-114,68,29,19,-48,-87,-92,-48
-102,14,117,43,-109,65,29,19,-48,-87,-102,-53
-102,9,112,46,-107,61,29,14,-53,-92,-107,-58
-92,14,107,39,-100,61,29,14,-53,-107,-92,-53
-92,14,107,39,-100,61,29,14,-53,-107,-87,-53
-92,14,107,39,-100,61,29,14,-58,-107,-82,-48
-97,9,107,43,-102,58,29,14,-63,-107,-78,-43
-112,4,117,53,-114,61,39,9,-58,-97,-68,-34
-112,0,112,56,-112,56,39,9,-53,-92,-68,-39
-107,-9,97,58,-102,43,39,9,-58,-87,-68,-39
-102,-14,87,58,-95,36,39,9,-53,-87,-68,-39
-102,-4,97,53,-100,46,39,4,-68,-97,-82,-48
-107,-4,102,56,-104,48,39,4,-68,-102,-87,-63
-107,0,107,53,-107,53,39,4,-63,-102,-92,-73
-117,0,117,58,-117,58,39,4,-63,-102,-102,-78
-112,9,122,51,-117,65,34,4,-73,-102,-112,-87
-102,9,112,46,-107,61,34,4,-73,-102,-112,-87
-97,9,107,43,-102,58,34,9,-73,-102,-112,-87
-92,9,102,41,-97,56,34,9,-73,-97,-112,-82
-102,0,102,51,-102,51,34,19,-63,-92,-107,-68
-102,0,102,51,-102,51,34,19,-58,-92,-102,-63
-97,0,97,48,-97,48,29,19,-58,-92,-97,-63
-97,0,97,48,-97,48,29,19,-53,-92,-92,-58
-92,9,102,41,-97,56,43,19,-48,-82,-78,-48
-92,9,102,41,-97,56,43,24,-43,-87,-73,-43
-92,9,102,41,-97,56,43,24,-43,-87,-63,-43
-87,14,102,36,-95,58,43,24,-43,-87,-58,-43
-78,14,92,31,-85,53,34,29,-43,-92,-68,-43
-78,14,92,31,-85,53,39,29,-43,-87,-68,-43
-78,14,92,31,-85,53,39,29,-39,-82,-63,-43
-87,14,102,36,-95,58,39,34,-39,-82,-63,-39
-78,19,97,29,-87,58,39,29,-48,-78,-78,-43
-73,19,92,26,-82,56,39,29,-48,-78,-82,-53
-68,19,87,24,-78,53,39,29,-43,-78,-82,-63
-68,24,92,21,-80,58,39,29,-43,-78,-87,-68
-68,9,78,29,-73,43,48,39,-34,-87,-78,-58
-68,9,78,29,-73,43,48,43,-29,-82,-73,-53
-68,4,73,31,-70,39,48,48,-29,-82,-73,-43
-68,0,68,34,-68,34,48,53,-29,-82,-73,-39
-53,9,63,21,-58,36,39,43,-39,-78,-82,-48
-53,14,68,19,-61,41,39,48,-29,-78,-82,-43
-58,14,73,21,-65,43,39,48,-29,-78,-82,-43
-53,14,68,19,-61,41,39,48,-29,-78,-82,-43
-63,14,78,24,-70,46,48,58,-24,-73,-78,-34
-58,19,78,19,-68,48,43,58,-19,-73,-73,-39
-43,19,63,12,-53,41,43,58,-14,-68,-73,-39
-43,19,63,12,-53,41,48,58,-9,-58,-68,-34
-43,9,53,17,-48,31,48,58,-14,-63,-58,-19
-43,9,53,17,-48,31,48,63,-14,-63,-53,-19
-43,9,53,17,-48,31,48,63,-14,-63,-48,-19
-43,9,53,17,-48,31,48,63,-14,-63,-48,-19
-39,19,58,9,-48,39,48,43,-14,-53,-48,-29
-43,19,63,12,-53,41,48,53,-14,-48,-48,-29
-39,24,63,7,-51,43,48,53,-14,-48,-53,-29
-24,24,48,0,-36,36,48,53,-14,-48,-58,-29
-19,24,43,-2,-31,34,39,43,-14,-58,-58,-39
-14,24,39,-4,-26,31,39,43,-14,-58,-63,-39
-4,24,29,-9,-17,26,39,43,-14,-58,-63,-39
0,24,24,-12,-12,24,39,39,-14,-58,-68,-39
-9,34,43,-12,-26,39,48,39,-14,-53,-58,-24
-24,29,53,-2,-39,41,48,43,-14,-53,-53,-24
-34,29,63,2,-48,46,48,43,-14,-53,-48,-24
-43,29,73,7,-58,51,43,39,-14,-53,-48,-24
-43,29,73,7,-58,51,34,39,-24,-58,-63,-34
-39,29,68,4,-53,48,34,34,-24,-63,-73,-34
-29,29,58,0,-43,43,34,29,-29,-68,-82,-34
-19,29,48,-4,-34,39,34,29,-29,-73,-87,-34
-19,24,43,-2,-31,34,39,29,-29,-63,-78,-34
-19,24,43,-2,-31,34,39,29,-29,-63,-73,-34
-19,24,43,-2,-31,34,39,24,-34,-63,-68,-34
-24,24,48,0,-36,36,39,24,-34,-68,-63,-34
-14,19,34,-2,-24,26,39,19,-34,-68,-53,-29
-9,14,24,-2,-17,19,39,19,-39,-68,-53,-29
-9,9,19,0,-14,14,39,19,-39,-68,-53,-24
-14,4,19,4,-17,12,34,19,-39,-68,-53,-19
-14,0,14,7,-14,7,34,19,-34,-78,-53,-29
-9,0,9,4,-9,4,29,14,-39,-78,-58,-34
-9,0,9,4,-9,4,29,9,-39,-82,-58,-34
-9,0,9,4,-9,4,29,4,-39,-82,-58,-34
0,9,9,-4,-4,9,29,4,-53,-73,-58,-39
0,4,4,-2,-2,4,29,4,-53,-73,-58,-39
0,0,0,0,0,0,29,4,-53,-73,-58,-39
0,-4,-4,2,2,-4,29,4,-53,-73,-58,-39
0,4,4,-2,-2,4,29,4,-53,-78,-63,-53
4,4,0,-4,2,2,24,4,-58,-82,-68,-53
4,4,0,-4,2,2,24,4,-63,-87,-78,-53
0,4,4,-2,-2,4,24,-4,-63,-92,-82,-53
9,-4,-14,-2,12,-9,24,-4,-53,-82,-82,-48
9,-9,-19,0,14,-14,19,-4,-58,-87,-73,-43
9,-14,-24,2,17,-19,19,-4,-58,-92,-73,-39
9,-19,-29,4,19,-24,19,-4,-68,-92,-78,-34
9,-29,-39,9,24,-34,19,-9,-68,-82,-68,-29
9,-29,-39,9,24,-34,19,-9,-68,-82,-68,-34
4,-29,-34,12,19,-31,19,-9,-58,-92,-63,-34
0,-29,-29,14,14,-29,19,-9,-58,-92,-53,-29
0,-19,-19,9,9,-19,24,-9,-68,-97,-58,-34
4,-19,-24,7,14,-21,24,-14,-73,-97,-63,-43
9,-19,-29,4,19,-24,19,-14,-73,-87,-68,-48
19,-19,-39,0,29,-29,19,-14,-73,-87,-73,-53
19,-29,-48,4,34,-39,4,-24,-73,-97,-87,-53
19,-29,-48,4,34,-39,4,-24,-78,-102,-87,-53
19,-29,-48,4,34,-39,9,-24,-78,-102,-87,-53
19,-29,-48,4,34,-39,9,-24,-78,-107,-87,-53
29,-29,-58,0,43,-43,4,-29,-87,-102,-87,-53
19,-29,-48,4,34,-39,4,-29,-87,-102,-87,-53
9,-29,-39,9,24,-34,4,-29,-87,-102,-87,-53
19,-29,-48,4,34,-39,9,-29,-87,-107,-87,-53
29,-29,-58,0,43,-43,9,-39,-92,-117,-97,-68
34,-29,-63,-2,48,-46,4,-39,-92,-117,-102,-68
29,-29,-58,0,43,-43,0,-39,-87,-117,-102,-68
34,-29,-63,-2,48,-46,0,-39,-87,-112,-107,-68
39,-39,-78,0,58,-58,9,-34,-82,-112,-107,-63
43,-39,-82,-2,63,-61,0,-34,-87,-112,-107,-58
39,-39,-78,0,58,-58,9,-34,-87,-112,-102,-53
29,-39,-68,4,48,-53,14,-34,-87,-112,-97,-43
48,-39,-87,-4,68,-63,4,-53,-97,-112,-107,-63
58,-39,-97,-9,78,-68,0,-63,-92,-102,-97,-78
58,-39,-97,-9,78,-68,0,-58,-92,-97,-87,-68
68,-34,-102,-17,85,-68,-9,-58,-102,-117,-102,-68
68,-39,-107,-14,87,-73,-9,-58,-107,-136,-117,-78
63,-39,-102,-12,82,-70,0,-48,-107,-131,-117,-68
58,-39,-97,-9,78,-68,0,-48,-107,-126,-117,-68
53,-39,-92,-7,73,-65,0,-48,-107,-122,-117,-68
48,-39,-87,-4,68,-63,0,-48,-107,-117,-117,-68
63,-39,-102,-12,82,-70,-9,-58,-107,-131,-107,-73
63,-39,-102,-12,82,-70,-9,-58,-107,-131,-112,-78
63,-34,-97,-14,80,-65,-9,-58,-107,-126,-112,-82
63,-34,-97,-14,80,-65,-9,-58,-107,-126,-112,-87
63,-34,-97,-14,80,-65,-4,-53,-107,-126,-97,-78
63,-34,-97,-14,80,-65,-4,-53,-107,-126,-97,-73
68,-29,-97,-19,82,-63,0,-53,-102,-122,-92,-73
68,-19,-87,-24,78,-53,4,-48,-97,-117,-87,-73
78,-9,-87,-34,82,-48,-4,-48,-102,-107,-87,-58
78,-9,-87,-34,82,-48,-4,-43,-102,-107,-87,-53
82,0,-82,-41,82,-41,-4,-43,-97,-107,-82,-53
82,9,-73,-46,78,-31,0,-29,-92,-97,-78,-48
73,9,-63,-41,68,-26,19,-34,-78,-92,-78,-53
78,14,-63,-46,70,-24,24,-29,-73,-87,-78,-48
82,19,-63,-51,73,-21,24,-29,-68,-87,-73,-48
82,24,-58,-53,70,-17,24,-29,-68,-78,-78,-48
87,19,-68,-53,78,-24,14,-29,-73,-78,-78,-48
97,24,-73,-61,85,-24,19,-19,-68,-73,-78,-48
102,24,-78,-63,90,-26,19,-19,-63,-68,-78,-48
102,29,-73,-65,87,-21,19,-19,-63,-68,-73,-48
97,29,-68,-63,82,-19,19,-24,-53,-68,-63,-34
97,24,-73,-61,85,-24,14,-29,-63,-73,-63,-34
97,19,-78,-58,87,-29,4,-34,-63,-82,-63,-39
102,19,-82,-61,92,-31,0,-34,-63,-82,-63,-39
92,14,-78,-53,85,-31,-9,-29,-73,-78,-73,-48
97,14,-82,-56,90,-34,-14,-29,-73,-73,-73,-48
97,19,-78,-58,87,-29,-29,-39,-73,-73,-73,-48
97,24,-73,-61,85,-24,-39,-39,-73,-73,-63,-39
117,39,-78,-78,97,-19,-48,-53,-73,-68,-63,-24
126,53,-73,-90,100,-9,-68,-58,-78,-68,-63,-24
131,58,-73,-95,102,-7,-82,-73,-82,-68,-63,-24
131,63,-68,-97,100,-2,-87,-87,-92,-78,-63,-24
122,43,-78,-82,100,-17,-97,-97,-112,-87,-73,-39
122,34,-87,-78,104,-26,-102,-112,-131,-107,-87,-53
122,19,-102,-70,112,-41,-102,-122,-141,-122,-92,-63
117,9,-107,-63,112,-48,-102,-122,-141,-122,-97,-63
117,-9,-126,-53,122,-68,-97,-126,-151,-126,-92,-58
117,-19,-136,-48,126,-78,-97,-126,-156,-136,-97,-58
117,-19,-136,-48,126,-78,-97,-122,-156,-141,-97,-58
117,-19,-136,-48,126,-78,-87,-122,-151,-141,-97,-58
107,-4,-112,-51,109,-58,-82,-102,-131,-131,-92,-53
107,4,-102,-56,104,-48,-78,-102,-131,-122,-82,-48
112,4,-107,-58,109,-51,-73,-102,-131,-122,-82,-48
117,4,-112,-61,114,-53,-73,-97,-126,-126,-82,-48
107,-4,-112,-51,109,-58,-73,-97,-136,-126,-87,-48
102,-4,-107,-48,104,-56,-73,-97,-131,-126,-92,-53
87,-4,-92,-41,90,-48,-63,-92,-131,-126,-92,-58
78,-4,-82,-36,80,-43,-58,-87,-126,-122,-97,-63
78,0,-78,-39,78,-39,-53,-87,-126,-122,-87,-68
73,-4,-78,-34,75,-41,-48,-87,-136,-131,-97,-73
68,-19,-87,-24,78,-53,-48,-102,-146,-141,-112,-82
58,-24,-82,-17,70,-53,-48,-102,-151,-151,-112,-92
53,-34,-87,-9,70,-61,-48,-112,-165,-141,-112,-97
53,-43,-97,-4,75,-70,-48,-112,-165,-146,-122,-97
58,-48,-107,-4,82,-78,-48,-112,-165,-151,-122,-92
63,-53,-117,-4,90,-85,-48,-112,-165,-156,-126,-92
58,-68,-126,4,92,-97,-48,-112,-161,-165,-136,-107
58,-68,-126,4,92,-97,-48,-112,-161,-165,-141,-107
58,-68,-126,4,92,-97,-48,-112,-161,-161,-141,-102
58,-68,-126,4,92,-97,-43,-112,-161,-161,-141,-102
63,-58,-122,-2,92,-90,-43,-112,-161,-170,-141,-102
63,-58,-122,-2,92,-90,-43,-112,-161,-170,-141,-102
63,-58,-122,-2,92,-90,-39,-107,-161,-170,-141,-102
63,-58,-122,-2,92,-90,-39,-107,-161,-170,-141,-102
73,-63,-136,-4,104,-100,-39,-107,-156,-170,-151,-112
78,-63,-141,-7,109,-102,-39,-107,-156,-170,-151,-112
78,-63,-141,-7,109,-102,-39,-107,-156,-165,-151,-112
78,-63,-141,-7,109,-102,-39,-102,-156,-165,-146,-112
73,-68,-141,-2,107,-104,-39,-102,-151,-156,-141,-102
68,-68,-136,0,102,-102,-39,-102,-146,-156,-136,-97
63,-68,-131,2,97,-100,-34,-102,-146,-151,-131,-97
58,-68,-126,4,92,-97,-34,-102,-146,-151,-122,-97
68,-78,-146,4,107,-112,-34,-102,-146,-161,-122,-102
68,-78,-146,4,107,-112,-34,-97,-146,-161,-122,-102
73,-78,-151,2,112,-114,-34,-97,-146,-161,-122,-102
73,-82,-156,4,114,-119,-34,-97,-141,-161,-122,-102
78,-73,-151,-2,114,-112,-34,-97,-141,-151,-131,-102
68,-73,-141,2,104,-107,-34,-97,-136,-156,-131,-102
78,-73,-151,-2,114,-112,-34,-87,-131,-156,-131,-107
78,-73,-151,-2,114,-112,-29,-68,-131,-146,-136,-102
73,-82,-156,4,114,-119,-9,-34,-117,-146,-136,-112
82,-78,-161,-2,122,-119,4,9,-82,-122,-131,-112
87,-58,-146,-14,117,-102,39,82,-9,-73,-117,-102
102,-39,-141,-31,122,-90,53,170,92,0,-73,-87
141,0,-141,-70,141,-70,63,248,175,68,-43,-68
151,39,-112,-95,131,-36,63,273,258,161,19,-19
126,102,-24,-114,75,39,63,297,375,297,131,82
170,175,4,-173,82,90,58,326,517,463,248,165
253,229,-24,-241,139,102,24,346,644,610,346,229
302,287,-14,-295,158,136,4,361,785,771,458,312
351,366,14,-358,168,190,-24,375,961,971,585,414
409,439,29,-424,190,234,-58,390,1141,1151,712,507
448,512,63,-480,192,287,-102,366,1273,1293,819,595
488,575,87,-531,200,331,-170,312,1356,1390,888,644
531,605,73,-568,229,339,-248,263,1400,1439,922,673
566,653,87,-610,239,370,-336,190,1405,1459,956,702
570,702,131,-636,219,417,-448,19,1322,1439,971,746
507,746,239,-627,134,492,-556,-244,1141,1346,966,746
409,775,366,-592,21,570,-644,-551,873,1180,922,741
351,751,400,-551,-24,575,-746,-849,585,961,834,697
336,629,292,-483,21,461,-844,-1029,317,683,663,580
307,429,122,-368,92,275,-893,-1112,63,351,419,409
239,268,29,-253,104,148,-932,-1259,-331,-43,165,244
156,175,19,-165,68,97,-990,-1512,-844,-463,-43,107
117,122,4,-119,56,63,-1068,-1693,-1224,-751,-185,19
107,92,-14,-100,61,39,-1107,-1751,-1371,-858,-253,-39
97,53,-43,-75,70,4,-1102,-1708,-1361,-868,-292,-87
78,34,-43,-56,61,-4,-1019,-1576,-1273,-834,-302,-102
73,14,-58,-43,65,-21,-912,-1405,-1132,-766,-292,-97
48,14,-34,-31,41,-9,-785,-1205,-995,-692,-283,-107
39,14,-24,-26,31,-4,-634,-1000,-858,-629,-283,-126
48,24,-24,-36,36,0,-527,-819,-732,-561,-263,-117
63,43,-19,-53,41,12,-444,-668,-610,-463,-219,-87
63,53,-9,-58,36,21,-361,-531,-492,-380,-175,-78
68,19,-48,-43,58,-14,-278,-424,-400,-322,-165,-87
78,-14,-92,-31,85,-53,-214,-341,-331,-283,-146,-97
68,-29,-97,-19,82,-63,-175,-292,-292,-263,-146,-107
58,-39,-97,-9,78,-68,-146,-258,-283,-253,-156,-102
63,-48,-112,-7,87,-80,-122,-229,-273,-263,-170,-112
82,-48,-131,-17,107,-90,-107,-195,-258,-268,-195,-126
63,-58,-122,-2,92,-90,-73,-151,-239,-248,-180,-126
53,-78,-131,12,92,-104,-48,-112,-219,-229,-170,-131
73,-87,-161,7,117,-124,-34,-102,-214,-224,-185,-131
82,-97,-180,7,131,-139,-34,-102,-209,-224,-185,-131
68,-102,-170,17,119,-136,-29,-92,-204,-224,-185,-131
68,-107,-175,19,122,-141,-19,-87,-200,-224,-185,-136
73,-107,-180,17,126,-143,-14,-82,-190,-224,-185,-141
73,-107,-180,17,126,-143,-9,-68,-185,-224,-195,-141
73,-107,-180,17,126,-143,4,-58,-175,-214,-190,-141
73,-117,-190,21,131,-153,9,-43,-170,-204,-185,-141
68,-117,-185,24,126,-151,14,-43,-165,-200,-180,-141
68,-107,-175,19,122,-141,14,-43,-161,-200,-170,-141
68,-117,-185,24,126,-151,14,-53,-161,-200,-170,-141
68,-117,-185,24,126,-151,14,-48,-161,-200,-170,-141
68,-122,-190,26,129,-156,14,-48,-161,-200,-170,-141
68,-122,-190,26,129,-156,19,-39,-161,-200,-170,-141
63,-122,-185,29,124,-153,24,-24,-156,-200,-175,-141
58,-122,-180,31,119,-151,24,-24,-156,-200,-175,-141
58,-122,-180,31,119,-151,24,-24,-146,-200,-175,-141
53,-122,-175,34,114,-148,24,-19,-146,-195,-180,-141
63,-131,-195,34,129,-163,19,-19,-146,-195,-180,-131
63,-136,-200,36,131,-168,19,-14,-146,-190,-175,-126
63,-136,-200,36,131,-168,19,-14,-141,-190,-170,-126
58,-136,-195,39,126,-165,24,-9,-141,-190,-170,-126
68,-126,-195,29,131,-161,24,-4,-141,-200,-165,-136
73,-126,-200,26,136,-163,24,-9,-141,-200,-165,-136
73,-126,-200,26,136,-163,24,-14,-136,-200,-161,-136
73,-126,-200,26,136,-163,29,-9,-131,-195,-161,-136
68,-126,-195,29,131,-161,29,-9,-131,-195,-175,-146
68,-126,-195,29,131,-161,29,-9,-131,-195,-175,-146
68,-126,-195,29,131,-161,29,0,-126,-195,-175,-146
73,-126,-200,26,136,-163,29,0,-126,-195,-175,-146
63,-136,-200,36,131,-168,29,0,-126,-180,-175,-136
58,-136,-195,39,126,-165,29,9,-117,-180,-170,-136
58,-136,-195,39,126,-165,34,9,-117,-180,-170,-131
58,-136,-195,39,126,-165,34,9,-117,-175,-170,-131
68,-136,-204,34,136,-170,34,14,-117,-185,-170,-131
78,-136,-214,29,146,-175,34,14,-112,-185,-170,-131
87,-136,-224,24,156,-180,34,24,-112,-185,-170,-131
78,-136,-214,29,146,-175,34,34,-102,-185,-170,-131
73,-136,-209,31,141,-173,39,34,-97,-185,-170,-117
73,-136,-209,31,141,-173,39,39,-92,-180,-165,-117
82,-141,-224,29,153,-183,39,43,-92,-180,-161,-117
82,-141,-224,29,153,-183,39,48,-87,-175,-161,-117
92,-141,-234,24,163,-187,43,63,-82,-165,-151,-112
92,-141,-234,24,163,-187,43,73,-78,-161,-151,-112
92,-141,-234,24,163,-187,43,78,-73,-161,-151,-117
92,-141,-234,24,163,-187,43,82,-68,-156,-151,-117
97,-136,-234,19,165,-185,39,82,-73,-156,-156,-117
97,-136,-234,19,165,-185,39,87,-68,-156,-156,-117
97,-136,-234,19,165,-185,43,102,-58,-146,-156,-112
97,-136,-234,19,165,-185,43,102,-53,-146,-156,-112
102,-141,-244,19,173,-192,53,112,-39,-146,-141,-122
102,-141,-244,19,173,-192,63,126,-29,-136,-141,-122
102,-141,-244,19,173,-192,63,136,-19,-131,-141,-112
107,-141,-248,17,178,-195,63,146,-19,-122,-141,-112
107,-141,-248,17,178,-195,68,156,-9,-117,-136,-112
107,-141,-248,17,178,-195,68,170,4,-112,-131,-112
112,-141,-253,14,183,-197,73,180,14,-107,-131,-112
117,-131,-248,7,183,-190,73,200,24,-102,-131,-107
107,-131,-239,12,173,-185,78,200,43,-82,-122,-97
112,-131,-244,9,178,-187,87,214,53,-78,-117,-97
112,-126,-239,7,175,-183,92,229,63,-73,-117,-82
117,-126,-244,4,180,-185,97,248,73,-63,-107,-78
117,-122,-239,2,178,-180,97,263,87,-68,-102,-73
117,-122,-239,2,178,-180,102,278,107,-58,-102,-73
126,-122,-248,-2,187,-185,107,292,117,-48,-97,-73
131,-122,-253,-4,192,-187,107,307,136,-34,-92,-73
141,-122,-263,-9,202,-192,107,322,151,-29,-87,-68
141,-117,-258,-12,200,-187,112,341,165,-14,-82,-63
141,-107,-248,-17,195,-178,117,361,180,-4,-78,-58
146,-102,-248,-21,197,-175,122,375,195,4,-73,-58
136,-97,-234,-19,185,-165,126,395,209,9,-68,-53
141,-97,-239,-21,190,-168,131,405,229,19,-58,-48
151,-97,-248,-26,200,-173,136,419,239,29,-53,-43
151,-97,-248,-26,200,-173,141,434,253,34,-48,-39
161,-92,-253,-34,207,-173,146,453,268,48,-43,-43
161,-87,-248,-36,204,-168,151,468,287,58,-39,-39
165,-78,-244,-43,204,-161,156,488,302,73,-34,-39
165,-68,-234,-48,200,-151,156,492,307,78,-29,-39
156,-68,-224,-43,190,-146,165,502,317,78,-14,-34
156,-68,-224,-43,190,-146,175,512,331,87,-14,-29
161,-58,-219,-51,190,-139,175,527,341,97,-4,-24
165,-53,-219,-56,192,-136,175,531,351,102,-4,-14
175,-48,-224,-63,200,-136,165,536,361,112,-4,-14
175,-43,-219,-65,197,-131,175,546,366,117,4,-14
175,-48,-224,-63,200,-136,180,561,375,122,9,-14
175,-53,-229,-61,202,-141,180,561,380,126,14,-9
165,-58,-224,-53,195,-141,185,566,385,131,14,0
175,-58,-234,-58,204,-146,185,570,390,136,14,0
175,-58,-234,-58,204,-146,185,575,395,146,24,9
175,-58,-234,-58,204,-146,190,580,405,156,29,9
170,-58,-229,-56,200,-143,200,580,409,170,29,0
170,-58,-229,-56,200,-143,200,580,414,170,39,0
170,-58,-229,-56,200,-143,200,585,414,170,39,4
170,-58,-229,-56,200,-143,200,585,414,170,39,4
170,-53,-224,-58,197,-139,200,585,414,170,39,19
170,-53,-224,-58,197,-139,200,575,414,175,39,24
180,-53,-234,-63,207,-143,200,570,414,175,43,24
165,-48,-214,-58,190,-131,200,561,414,175,43,24
165,-58,-224,-53,195,-141,200,561,414,175,48,24
165,-58,-224,-53,195,-141,190,551,409,175,48,29
165,-48,-214,-58,190,-131,185,531,400,175,43,29
165,-39,-204,-63,185,-122,185,517,390,165,43,29
165,-43,-209,-61,187,-126,180,492,370,161,53,39
165,-43,-209,-61,187,-126,175,478,351,161,53,39
156,-43,-200,-56,178,-122,165,458,346,161,53,39
156,-43,-200,-56,178,-122,165,434,331,156,53,39
156,-43,-200,-56,178,-122,161,419,312,136,63,39
161,-43,-204,-58,183,-124,151,395,292,126,53,34
161,-43,-204,-58,183,-124,141,375,278,117,53,34
161,-39,-200,-61,180,-119,141,351,253,117,53,34
146,-39,-185,-53,165,-112,146,322,244,112,43,34
146,-39,-185,-53,165,-112,131,297,219,102,34,34
146,-39,-185,-53,165,-112,122,273,204,102,34,34
141,-39,-180,-51,161,-109,122,248,195,87,34,29
131,-39,-170,-46,151,-104,102,234,170,68,29,9
131,-43,-175,-43,153,-109,97,219,156,63,24,9
131,-48,-180,-41,156,-114,82,200,141,53,19,9
131,-53,-185,-39,158,-119,68,180,126,43,14,9
141,-48,-190,-46,165,-119,73,156,102,34,4,-4
131,-53,-185,-39,158,-119,63,136,87,24,0,-4
131,-58,-190,-36,161,-124,63,126,73,14,-4,-4
131,-63,-195,-34,163,-129,58,112,63,14,-4,-14
122,-63,-185,-29,153,-124,63,107,58,19,0,-14
122,-63,-185,-29,153,-124,58,87,43,9,-4,-14
117,-63,-180,-26,148,-122,53,73,39,0,-9,-14
117,-63,-180,-26,148,-122,48,63,24,-9,-9,-14
126,-73,-200,-26,163,-136,43,48,4,-9,-14,-14
126,-73,-200,-26,163,-136,39,34,-4,-14,-19,-24
126,-78,-204,-24,165,-141,34,29,-9,-19,-19,-24
122,-82,-204,-19,163,-143,29,19,-19,-24,-24,-24
122,-73,-195,-24,158,-134,19,9,-29,-39,-34,-34
126,-78,-204,-24,165,-141,19,4,-34,-43,-43,-34
126,-82,-209,-21,168,-146,19,4,-39,-48,-48,-39
122,-87,-209,-17,165,-148,19,-4,-43,-53,-48,-39
122,-87,-209,-17,165,-148,14,-9,-48,-53,-48,-48
117,-92,-209,-12,163,-151,14,-14,-53,-58,-58,-48
117,-92,-209,-12,163,-151,9,-14,-58,-63,-58,-53
117,-92,-209,-12,163,-151,4,-19,-63,-68,-58,-58
112,-92,-204,-9,158,-148,9,-24,-53,-68,-53,-48
107,-92,-200,-7,153,-146,9,-29,-58,-68,-53,-48
107,-92,-200,-7,153,-146,9,-29,-58,-68,-58,-48
102,-97,-200,-2,151,-148,9,-34,-63,-73,-58,-48
92,-97,-190,2,141,-143,0,-34,-73,-78,-68,-58
92,-92,-185,0,139,-139,0,-34,-73,-78,-68,-63
92,-87,-180,-2,136,-134,0,-34,-78,-78,-68,-63
87,-87,-175,0,131,-131,0,-34,-82,-78,-68,-63
92,-97,-190,2,141,-143,9,-39,-82,-82,-68,-53
92,-97,-190,2,141,-143,9,-39,-82,-82,-68,-58
97,-102,-200,2,148,-151,9,-39,-92,-82,-68,-58
102,-102,-204,0,153,-153,9,-39,-92,-87,-68,-58
107,-112,-219,2,163,-165,0,-43,-97,-78,-68,-58
107,-112,-219,2,163,-165,0,-43,-97,-82,-68,-63
112,-107,-219,-2,165,-163,0,-43,-92,-82,-68,-63
107,-107,-214,0,161,-161,0,-43,-92,-82,-73,-58
102,-107,-209,2,156,-158,4,-43,-92,-82,-63,-58
102,-107,-209,2,156,-158,4,-43,-92,-82,-63,-58
97,-107,-204,4,151,-156,4,-39,-92,-82,-63,-58
92,-107,-200,7,146,-153,4,-39,-92,-78,-63,-53
102,-107,-209,2,156,-158,4,-39,-87,-82,-63,-53
102,-107,-209,2,156,-158,4,-39,-87,-82,-63,-53
107,-107,-214,0,161,-161,0,-39,-92,-82,-63,-58
107,-107,-214,0,161,-161,0,-39,-92,-82,-63,-58
112,-107,-219,-2,165,-163,4,-39,-87,-82,-73,-48
112,-107,-219,-2,165,-163,4,-34,-82,-87,-73,-43
112,-107,-219,-2,165,-163,4,-34,-82,-87,-68,-43
117,-102,-219,-7,168,-161,4,-34,-82,-87,-68,-43
107,-102,-209,-2,158,-156,4,-29,-82,-82,-68,-43
107,-102,-209,-2,158,-156,9,-29,-82,-78,-68,-43
107,-102,-209,-2,158,-156,9,-29,-78,-73,-63,-43
97,-102,-200,2,148,-151,9,-24,-78,-73,-63,-39
107,-97,-204,-4,156,-151,9,-9,-68,-68,-63,-39
112,-97,-209,-7,161,-153,9,-9,-68,-68,-63,-43
117,-97,-214,-9,165,-156,9,-9,-63,-68,-58,-48
117,-92,-209,-12,163,-151,9,-9,-63,-68,-58,-48
107,-92,-200,-7,153,-146,9,-4,-73,-68,-58,-43
107,-87,-195,-9,151,-141,9,-4,-68,-63,-53,-43
107,-87,-195,-9,151,-141,9,-4,-68,-63,-53,-39
107,-87,-195,-9,151,-141,9,-4,-68,-63,-53,-39
117,-87,-204,-14,161,-146,9,-4,-78,-58,-53,-39
112,-82,-195,-14,153,-139,9,0,-68,-58,-53,-34
102,-82,-185,-9,143,-134,9,0,-68,-58,-53,-34
102,-82,-185,-9,143,-134,9,0,-68,-58,-53,-34
112,-73,-185,-19,148,-129,9,-9,-63,-58,-43,-24
117,-68,-185,-24,151,-126,4,-9,-58,-63,-43,-29
131,-68,-200,-31,165,-134,4,-9,-53,-63,-48,-29
131,-68,-200,-31,165,-134,9,-9,-48,-58,-48,-24
126,-68,-195,-29,161,-131,19,0,-53,-53,-48,-29
122,-68,-190,-26,156,-129,19,4,-53,-53,-43,-29
117,-68,-185,-24,151,-126,19,4,-53,-53,-39,-29
112,-68,-180,-21,146,-124,19,4,-53,-53,-39,-29
112,-58,-170,-26,141,-114,19,-4,-53,-43,-43,-29
102,-58,-161,-21,131,-109,19,4,-53,-39,-39,-29
102,-53,-156,-24,129,-104,19,4,-53,-39,-39,-29
112,-53,-165,-29,139,-109,19,4,-53,-39,-39,-29
112,-63,-175,-24,143,-119,9,-4,-53,-48,-39,-29
112,-63,-175,-24,143,-119,9,-4,-53,-48,-43,-29
117,-63,-180,-26,148,-122,9,-4,-53,-48,-43,-29
117,-63,-180,-26,148,-122,9,-9,-53,-48,-48,-29
117,-53,-170,-31,143,-112,9,-9,-53,-53,-39,-34
112,-58,-170,-26,141,-114,9,-4,-53,-53,-34,-34
112,-58,-170,-26,141,-114,9,-4,-53,-53,-29,-34
112,-58,-170,-26,141,-114,4,-9,-53,-53,-29,-34
107,-48,-156,-29,131,-102,4,-9,-53,-43,-19,-34
107,-48,-156,-29,131,-102,4,-14,-53,-43,-24,-34
112,-48,-161,-31,136,-104,4,-19,-58,-43,-29,-34
117,-48,-165,-34,141,-107,4,-19,-58,-43,-29,-34
107,-53,-161,-26,134,-107,0,-9,-58,-43,-34,-24
107,-53,-161,-26,134,-107,0,-9,-58,-43,-34,-24
107,-53,-161,-26,134,-107,0,-14,-63,-43,-34,-24
102,-53,-156,-24,129,-104,0,-14,-63,-48,-34,-24
112,-53,-165,-29,139,-109,0,-19,-63,-58,-34,-24
117,-53,-170,-31,143,-112,0,-19,-68,-58,-34,-29
117,-53,-170,-31,143,-112,0,-19,-68,-58,-34,-29
112,-53,-165,-29,139,-109,-4,-19,-68,-58,-34,-29
102,-58,-161,-21,131,-109,4,-19,-73,-48,-34,-19
107,-58,-165,-24,136,-112,0,-24,-78,-48,-39,-24
107,-58,-165,-24,136,-112,0,-29,-78,-53,-39,-24
107,-58,-165,-24,136,-112,0,-34,-78,-53,-39,-24
107,-48,-156,-29,131,-102,0,-24,-73,-53,-39,-29
107,-53,-161,-26,134,-107,0,-24,-73,-53,-39,-29
107,-58,-165,-24,136,-112,0,-24,-73,-53,-39,-29
107,-63,-170,-21,139,-117,0,-24,-73,-53,-39,-29
117,-53,-170,-31,143,-112,0,-29,-82,-63,-39,-34
122,-53,-175,-34,148,-114,-4,-34,-87,-63,-39,-34
122,-53,-175,-34,148,-114,-4,-39,-92,-63,-43,-34
117,-53,-170,-31,143,-112,-4,-53,-92,-63,-43,-34
117,-39,-156,-39,136,-97,-14,-63,-92,-63,-48,-43
117,-39,-156,-39,136,-97,-19,-63,-97,-68,-43,-43
117,-39,-156,-39,136,-97,-19,-63,-97,-73,-48,-43
117,-39,-156,-39,136,-97,-19,-63,-107,-73,-58,-43
126,-39,-165,-43,146,-102,-19,-68,-107,-63,-53,-48
126,-39,-165,-43,146,-102,-19,-68,-107,-63,-58,-53
122,-39,-161,-41,141,-100,-19,-68,-97,-73,-58,-53
117,-39,-156,-39,136,-97,-19,-68,-97,-73,-53,-48
112,-48,-161,-31,136,-104,-14,-68,-107,-78,-53,-48
112,-48,-161,-31,136,-104,-14,-73,-112,-78,-53,-53
112,-48,-161,-31,136,-104,-19,-73,-112,-68,-53,-53
117,-48,-165,-34,141,-107,-19,-73,-112,-68,-53,-53
107,-39,-146,-34,126,-92,-24,-73,-102,-68,-58,-53
107,-39,-146,-34,126,-92,-24,-73,-107,-73,-58,-53
107,-39,-146,-34,126,-92,-19,-73,-107,-73,-58,-53
107,-39,-146,-34,126,-92,-19,-73,-107,-78,-58,-53
107,-48,-156,-29,131,-102,-14,-78,-107,-73,-68,-53
97,-48,-146,-24,122,-97,-14,-78,-107,-73,-68,-53
87,-48,-136,-19,112,-92,-14,-78,-107,-73,-68,-53
97,-48,-146,-24,122,-97,-9,-78,-107,-78,-68,-53
102,-48,-151,-26,126,-100,-19,-87,-112,-78,-63,-48
102,-48,-151,-26,126,-100,-24,-87,-112,-78,-63,-48
92,-48,-141,-21,117,-95,-29,-87,-107,-78,-58,-48
92,-48,-141,-21,117,-95,-29,-87,-107,-73,-58,-48
102,-48,-151,-26,126,-100,-19,-82,-112,-73,-53,-39
112,-48,-161,-31,136,-104,-29,-82,-117,-73,-58,-39
112,-48,-161,-31,136,-104,-19,-82,-117,-73,-58,-39
107,-48,-156,-29,131,-102,-14,-82,-117,-73,-58,-34
107,-58,-165,-24,136,-112,-14,-73,-117,-73,-58,-34
107,-58,-165,-24,136,-112,-19,-73,-112,-73,-58,-39
107,-58,-165,-24,136,-112,-19,-78,-112,-68,-58,-39
107,-63,-170,-21,139,-117,-19,-78,-112,-68,-63,-39
126,-58,-185,-34,156,-122,-19,-78,-117,-68,-53,-43
136,-48,-185,-43,161,-117,-29,-87,-126,-78,-63,-53
117,-58,-175,-29,146,-117,-19,-87,-117,-68,-53,-43
117,-58,-175,-29,146,-117,-14,-87,-117,-68,-53,-43
117,-58,-175,-29,146,-117,-19,-87,-107,-68,-58,-48
107,-68,-175,-19,141,-122,-19,-87,-107,-68,-58,-48
107,-68,-175,-19,141,-122,-19,-87,-107,-68,-58,-48
107,-68,-175,-19,141,-122,-19,-87,-107,-68,-58,-48
107,-68,-175,-19,141,-122,-19,-87,-107,-68,-58,-48
102,-58,-161,-21,131,-109,-19,-87,-117,-82,-48,-48
102,-58,-161,-21,131,-109,-19,-87,-117,-82,-53,-48
102,-53,-156,-24,129,-104,-19,-87,-117,-78,-53,-48
102,-53,-156,-24,129,-104,-19,-87,-117,-78,-53,-48
112,-43,-156,-34,134,-100,-24,-82,-117,-78,-48,-48
112,-43,-156,-34,134,-100,-24,-82,-117,-78,-48,-43
117,-39,-156,-39,136,-97,-19,-82,-112,-73,-43,-43
117,-29,-146,-43,131,-87,-14,-78,-107,-68,-39,-43
107,-39,-146,-34,126,-92,-4,-78,-112,-68,-29,-39
107,-39,-146,-34,126,-92,-4,-73,-112,-68,-29,-34
112,-29,-141,-41,126,-85,-4,-73,-107,-68,-24,-34
112,-19,-131,-46,122,-75,0,-58,-102,-58,-19,-29
122,-19,-141,-51,131,-80,9,-53,-87,-43,-24,-24
126,-14,-141,-56,134,-78,14,-48,-82,-39,-19,-19
131,-9,-141,-61,136,-75,14,-48,-78,-39,-9,-19
131,-4,-136,-63,134,-70,14,-48,-78,-29,-9,-19
126,9,-117,-68,122,-53,14,-39,-63,-29,0,-9
136,14,-122,-75,129,-53,19,-29,-58,-24,0,-9
141,14,-126,-78,134,-56,19,-29,-53,-19,0,-9
141,19,-122,-80,131,-51,19,-29,-53,-19,4,-9
146,29,-117,-87,131,-43,29,-34,-53,-19,-4,-4
146,24,-122,-85,134,-48,24,-39,-63,-24,-4,-4
146,19,-126,-82,136,-53,14,-43,-63,-34,-4,-9
151,19,-131,-85,141,-56,9,-43,-63,-34,-4,-9
161,4,-156,-82,158,-75,0,-39,-63,-39,-4,-9
165,4,-161,-85,163,-78,-4,-39,-63,-34,-4,-9
165,9,-156,-87,161,-73,-19,-48,-63,-34,-4,-9
165,14,-151,-90,158,-68,-29,-48,-63,-34,4,0
175,14,-161,-95,168,-73,-39,-43,-53,-19,4,14
185,24,-161,-104,173,-68,-58,-48,-58,-19,4,14
190,24,-165,-107,178,-70,-73,-63,-63,-19,4,14
190,24,-165,-107,178,-70,-78,-78,-73,-29,4,14
170,4,-165,-87,168,-80,-87,-107,-102,-48,-4,9
170,-4,-175,-82,173,-90,-92,-122,-122,-68,-19,-4
170,-19,-190,-75,180,-104,-92,-131,-131,-82,-24,-14
165,-29,-195,-68,180,-112,-92,-131,-131,-82,-29,-14
156,-39,-195,-58,175,-117,-78,-126,-131,-82,-34,-19
156,-48,-204,-53,180,-126,-78,-126,-136,-87,-39,-19
156,-48,-204,-53,180,-126,-78,-122,-136,-87,-39,-19
156,-48,-204,-53,180,-126,-68,-122,-131,-82,-39,-19
165,-53,-219,-56,192,-136,-63,-112,-112,-73,-24,-14
165,-43,-209,-61,187,-126,-58,-112,-112,-63,-14,-9
170,-43,-214,-63,192,-129,-53,-112,-112,-63,-14,-9
175,-43,-219,-65,197,-131,-53,-107,-107,-68,-14,-9
180,-34,-214,-73,197,-124,-63,-107,-107,-68,-4,-4
180,-34,-214,-73,197,-124,-63,-107,-102,-68,-4,-4
170,-34,-204,-68,187,-119,-53,-102,-102,-68,0,-4
165,-34,-200,-65,183,-117,-48,-97,-97,-63,0,-4
151,-39,-190,-56,170,-114,-34,-97,-97,-53,0,0
141,-43,-185,-48,163,-114,-29,-97,-107,-63,-9,-4
131,-58,-190,-36,161,-124,-29,-112,-117,-73,-24,-14
117,-63,-180,-26,148,-122,-29,-112,-122,-82,-24,-24
107,-82,-190,-12,148,-136,-19,-112,-126,-82,-34,-34
102,-92,-195,-4,148,-143,-19,-112,-126,-87,-43,-39
102,-97,-200,-2,151,-148,-19,-112,-126,-92,-43,-39
102,-102,-204,0,153,-153,-19,-112,-126,-97,-48,-43
107,-97,-204,-4,156,-151,-29,-112,-131,-87,-58,-58
107,-97,-204,-4,156,-151,-29,-112,-131,-87,-63,-58
107,-97,-204,-4,156,-151,-29,-112,-131,-82,-63,-53
107,-97,-204,-4,156,-151,-24,-112,-131,-82,-63,-53
102,-97,-200,-2,151,-148,-24,-112,-131,-82,-63,-43
102,-97,-200,-2,151,-148,-24,-112,-131,-82,-63,-43
102,-97,-200,-2,151,-148,-19,-107,-131,-82,-63,-43
102,-97,-200,-2,151,-148,-19,-107,-131,-82,-63,-43
112,-82,-195,-14,153,-139,-29,-107,-136,-92,-63,-53
117,-82,-200,-17,158,-141,-29,-107,-136,-92,-63,-53
117,-82,-200,-17,158,-141,-29,-107,-136,-87,-63,-53
117,-82,-200,-17,158,-141,-29,-102,-136,-87,-58,-53
117,-87,-204,-14,161,-146,-19,-102,-131,-87,-58,-53
117,-87,-204,-14,161,-146,-19,-102,-126,-87,-58,-48
117,-87,-204,-14,161,-146,-14,-102,-126,-82,-58,-48
117,-87,-204,-14,161,-146,-14,-102,-126,-82,-53,-48
107,-87,-195,-9,151,-141,-4,-102,-117,-73,-43,-34
107,-87,-195,-9,151,-141,-4,-97,-117,-73,-43,-34
112,-87,-200,-12,156,-143,-4,-97,-117,-73,-43,-34
112,-92,-204,-9,158,-148,-4,-97,-112,-73,-43,-34
107,-92,-200,-7,153,-146,-14,-107,-122,-73,-63,-53
97,-82,-180,-7,139,-131,-4,-78,-107,-68,-53,-43
87,-92,-180,2,134,-136,4,-58,-102,-68,-53,-39
97,-102,-200,2,148,-151,9,-48,-102,-68,-48,-53
112,-102,-214,-4,163,-158,19,-14,-78,-68,-58,-63
131,-87,-219,-21,175,-153,43,48,-34,-34,-53,-53
126,-68,-195,-29,161,-131,87,141,58,24,-19,-24
141,-39,-180,-51,161,-109,122,248,161,107,24,0
161,0,-161,-80,161,-80,131,307,253,195,82,39
190,58,-131,-124,161,-36,112,331,356,297,156,97
234,112,-122,-173,178,-4,102,366,483,434,248,161
278,156,-122,-217,200,17,78,405,624,570,336,224
341,209,-131,-275,236,39,43,414,751,697,414,287
400,268,-131,-334,265,68,24,429,912,839,517,361
429,356,-73,-392,251,141,-4,463,1098,1039,653,473
468,439,-29,-453,248,204,-48,488,1268,1210,780,566
527,522,-4,-524,265,258,-122,463,1381,1322,868,624
595,566,-29,-580,312,268,-209,448,1473,1390,917,663
619,605,-14,-612,317,295,-307,419,1517,1429,941,702
634,663,29,-649,302,346,-434,287,1483,1420,976,741
639,712,73,-675,283,392,-575,58,1351,1361,990,766
575,746,170,-661,202,458,-692,-253,1141,1239,966,785
497,766,268,-631,114,517,-829,-600,873,1083,922,780
458,712,253,-585,102,483,-951,-868,585,854,814,717
444,570,126,-507,158,348,-1029,-1000,307,556,624,580
385,419,34,-402,175,226,-1068,-1141,-4,234,419,439
287,336,48,-312,119,192,-1137,-1415,-468,-102,234,322
204,283,78,-244,63,180,-1215,-1708,-932,-414,82,224
175,219,43,-197,65,131,-1254,-1869,-1185,-605,-29,146
175,180,4,-178,85,92,-1224,-1859,-1254,-673,-97,87
175,141,-34,-158,104,53,-1151,-1727,-1215,-673,-136,58
156,122,-34,-139,95,43,-1029,-1527,-1088,-610,-136,43
122,92,-29,-107,75,31,-873,-1298,-946,-541,-117,39
117,73,-43,-95,80,14,-707,-1088,-810,-488,-126,9
117,53,-63,-85,90,-4,-556,-873,-673,-414,-126,0
97,63,-34,-80,65,14,-448,-692,-546,-336,-97,0
92,63,-29,-78,61,17,-366,-561,-444,-278,-63,9
92,24,-68,-58,80,-21,-283,-444,-356,-234,-58,0
87,-9,-97,-39,92,-53,-209,-356,-292,-195,-58,-19
78,-24,-102,-26,90,-63,-165,-292,-253,-175,-58,-19
78,-29,-107,-24,92,-68,-126,-263,-244,-165,-58,-19
87,-29,-117,-29,102,-73,-97,-229,-244,-165,-68,-34
92,-39,-131,-26,112,-85,-63,-200,-234,-165,-82,-53
92,-58,-151,-17,122,-104,-39,-165,-219,-161,-87,-68
82,-78,-161,-2,122,-119,-14,-131,-190,-141,-92,-68
63,-87,-151,12,107,-119,0,-102,-161,-131,-92,-63
63,-107,-170,21,117,-139,4,-102,-156,-126,-87,-63
92,-107,-200,7,146,-153,4,-102,-161,-136,-87,-73
78,-112,-190,17,134,-151,9,-92,-170,-136,-97,-73
78,-117,-195,19,136,-156,19,-87,-170,-136,-97,-78
82,-117,-200,17,141,-158,24,-82,-165,-136,-97,-82
82,-117,-200,17,141,-158,29,-68,-165,-136,-107,-82
73,-107,-180,17,126,-143,43,-68,-146,-136,-97,-82
73,-117,-190,21,131,-153,48,-53,-141,-126,-97,-82
68,-117,-185,24,126,-151,53,-53,-136,-122,-97,-82
68,-107,-175,19,122,-141,53,-53,-131,-122,-92,-82
58,-117,-175,29,117,-146,53,-43,-131,-112,-82,-73
58,-117,-175,29,117,-146,53,-39,-131,-112,-82,-73
58,-122,-180,31,119,-151,53,-39,-131,-112,-82,-73
58,-122,-180,31,119,-151,58,-29,-131,-112,-82,-73
58,-122,-180,31,119,-151,63,-24,-136,-122,-87,-82
58,-122,-180,31,119,-151,63,-24,-136,-122,-87,-82
63,-122,-185,29,124,-153,63,-24,-126,-122,-87,-82
63,-122,-185,29,124,-153,63,-19,-126,-117,-92,-82
63,-122,-185,29,124,-153,68,-19,-117,-117,-102,-82
63,-126,-190,31,126,-158,68,-14,-117,-112,-97,-78
63,-126,-190,31,126,-158,68,-14,-112,-112,-92,-78
58,-126,-185,34,122,-156,73,-9,-112,-112,-92,-78
68,-126,-195,29,131,-161,73,0,-112,-112,-87,-68
73,-126,-200,26,136,-163,73,0,-112,-112,-87,-68
73,-126,-200,26,136,-163,73,0,-107,-112,-82,-68
73,-126,-200,26,136,-163,78,9,-102,-107,-82,-68
68,-126,-195,29,131,-161,87,9,-102,-107,-78,-78
68,-126,-195,29,131,-161,87,9,-102,-107,-78,-78
68,-126,-195,29,131,-161,87,19,-97,-107,-78,-78
73,-126,-200,26,136,-163,87,19,-97,-107,-78,-78
73,-126,-200,26,136,-163,87,19,-97,-112,-87,-87
68,-126,-195,29,131,-161,87,29,-87,-112,-82,-87
68,-126,-195,29,131,-161,92,29,-87,-112,-82,-82
68,-126,-195,29,131,-161,92,29,-87,-107,-82,-82
68,-117,-185,24,126,-151,92,34,-87,-107,-92,-73
78,-117,-195,19,136,-156,92,34,-82,-107,-92,-73
87,-117,-204,14,146,-161,92,43,-82,-107,-92,-73
78,-117,-195,19,136,-156,92,53,-73,-107,-92,-73
73,-117,-190,21,131,-153,87,63,-78,-102,-82,-68
73,-117,-190,21,131,-153,87,68,-73,-92,-78,-68
82,-122,-204,19,143,-163,87,73,-73,-87,-73,-68
82,-122,-204,19,143,-163,87,78,-68,-78,-73,-68
92,-112,-204,9,148,-158,102,82,-53,-87,-73,-53
92,-112,-204,9,148,-158,102,92,-48,-82,-73,-53
92,-112,-204,9,148,-158,102,97,-43,-82,-73,-58
92,-112,-204,9,148,-158,102,102,-39,-78,-73,-58
97,-97,-195,0,146,-146,97,122,-34,-78,-68,-58
97,-97,-195,0,146,-146,97,126,-29,-78,-68,-58
97,-97,-195,0,146,-146,102,141,-19,-68,-68,-53
97,-97,-195,0,146,-146,102,141,-14,-68,-68,-53
102,-82,-185,-9,143,-134,102,141,-9,-68,-73,-63
102,-82,-185,-9,143,-134,112,156,0,-58,-73,-63
102,-82,-185,-9,143,-134,112,165,9,-53,-73,-53
107,-82,-190,-12,148,-136,112,175,9,-43,-73,-53
97,-82,-180,-7,139,-131,126,185,19,-39,-68,-53
97,-82,-180,-7,139,-131,126,200,34,-34,-63,-53
102,-82,-185,-9,143,-134,131,209,43,-29,-63,-53
107,-73,-180,-17,143,-126,131,229,53,-24,-63,-48
117,-82,-200,-17,158,-141,136,248,53,-24,-53,-48
122,-82,-204,-19,163,-143,146,263,63,-19,-48,-48
122,-78,-200,-21,161,-139,151,278,73,-14,-48,-34
126,-78,-204,-24,165,-141,156,297,82,-4,-39,-29
126,-73,-200,-26,163,-136,165,312,107,0,-34,-34
126,-73,-200,-26,163,-136,170,326,126,9,-34,-34
136,-73,-209,-31,173,-141,175,341,136,19,-29,-34
141,-73,-214,-34,178,-143,175,356,156,34,-24,-34
151,-73,-224,-39,187,-148,175,390,161,39,-19,-19
151,-68,-219,-41,185,-143,180,409,175,53,-14,-14
151,-58,-209,-46,180,-134,185,429,190,63,-9,-9
156,-53,-209,-51,183,-131,190,444,204,73,-4,-9
156,-39,-195,-58,175,-117,204,463,229,78,0,-4
161,-39,-200,-61,180,-119,209,473,248,87,9,0
170,-39,-209,-65,190,-124,214,488,258,97,14,4
170,-39,-209,-65,190,-124,219,502,273,102,19,9
180,-34,-214,-73,197,-124,214,522,278,107,34,4
180,-29,-209,-75,195,-119,219,536,297,117,39,9
185,-19,-204,-82,195,-112,224,556,312,131,43,9
185,-9,-195,-87,190,-102,224,561,317,136,48,9
180,0,-180,-90,180,-90,224,570,326,146,43,14
175,0,-175,-87,175,-87,234,580,341,156,43,19
175,9,-165,-92,170,-78,234,595,351,165,53,24
175,14,-161,-95,168,-73,234,600,361,170,53,34
165,19,-146,-92,156,-63,244,614,370,180,63,43
165,24,-141,-95,153,-58,253,624,375,185,73,43
165,19,-146,-92,156,-63,258,639,385,190,78,43
165,14,-151,-90,158,-68,258,639,390,195,82,48
175,29,-146,-102,161,-58,253,634,395,200,73,39
185,29,-156,-107,170,-63,253,639,400,204,73,39
185,29,-156,-107,170,-63,253,644,405,214,82,48
185,29,-156,-107,170,-63,258,649,414,224,87,48
180,29,-151,-104,165,-61,268,658,419,229,97,53
180,29,-151,-104,165,-61,268,658,424,229,107,58
180,29,-151,-104,165,-61,268,663,424,229,107,68
180,29,-151,-104,165,-61,268,663,424,229,107,73
180,24,-156,-102,168,-65,268,663,434,239,107,78
180,24,-156,-102,168,-65,268,653,434,244,107,82
190,24,-165,-107,178,-70,268,649,434,244,112,82
175,29,-146,-102,161,-58,268,639,434,244,112,82
185,39,-146,-112,165,-53,268,624,414,234,107,73
185,39,-146,-112,165,-53,258,610,409,234,107,78
185,48,-136,-117,161,-43,253,585,400,234,102,78
185,58,-126,-122,156,-34,253,566,390,224,102,78
175,53,-122,-114,148,-34,248,551,380,219,102,78
175,53,-122,-114,148,-34,244,536,361,219,102,78
165,53,-112,-109,139,-29,234,517,356,219,102,78
165,53,-112,-109,139,-29,234,492,341,214,102,78
161,63,-97,-112,129,-17,219,468,341,209,107,87
161,63,-97,-112,129,-17,209,444,322,204,102,82
156,63,-92,-109,124,-14,200,424,307,200,107,82
151,68,-82,-109,117,-7,200,400,283,204,112,82
146,58,-87,-102,117,-14,195,375,263,180,112,73
146,58,-87,-102,117,-14,180,346,239,170,102,73
146,58,-87,-102,117,-14,170,317,224,170,102,73
141,58,-82,-100,112,-12,170,287,214,156,102,68
131,58,-73,-95,102,-7,151,263,200,136,87,58
131,53,-78,-92,104,-12,146,248,185,131,82,58
131,48,-82,-90,107,-17,131,229,170,122,78,58
131,43,-87,-87,109,-21,117,209,156,112,73,58
136,43,-92,-90,114,-24,122,180,131,102,63,43
131,43,-87,-87,109,-21,112,156,117,92,58,43
136,43,-92,-90,114,-24,112,141,102,82,53,43
141,43,-97,-92,119,-26,107,122,92,82,53,34
131,43,-87,-87,109,-21,92,107,78,78,48,24
131,43,-87,-87,109,-21,87,87,63,68,43,24
126,43,-82,-85,104,-19,82,73,58,58,39,24
126,43,-82,-85,104,-19,78,63,43,48,39,24
117,24,-92,-70,104,-34,63,58,43,48,24,24
117,24,-92,-70,104,-34,58,43,34,43,19,14
117,19,-97,-68,107,-39,53,39,29,39,19,14
112,14,-97,-63,104,-41,48,29,19,34,14,14
122,14,-107,-68,114,-46,48,19,0,19,14,14
126,9,-117,-68,122,-53,48,14,-4,14,4,14
126,4,-122,-65,124,-58,48,14,-9,9,0,9
122,0,-122,-61,122,-61,48,4,-14,4,0,9
112,9,-102,-61,107,-46,43,-9,-19,14,9,9
107,4,-102,-56,104,-48,43,-14,-24,9,0,9
107,4,-102,-56,104,-48,39,-14,-29,4,0,4
107,4,-102,-56,104,-48,34,-19,-34,0,0,0
107,4,-102,-56,104,-48,29,-24,-34,-9,-4,0
107,4,-102,-56,104,-48,29,-29,-39,-9,-4,0
112,4,-107,-58,109,-51,29,-29,-39,-9,-9,0
112,0,-112,-56,112,-56,29,-34,-43,-14,-9,0
112,-4,-117,-53,114,-61,29,-24,-43,-19,-9,0
112,-4,-117,-53,114,-61,29,-24,-43,-19,-9,-4
112,-4,-117,-53,114,-61,29,-24,-48,-19,-9,-4
107,-9,-117,-48,112,-63,29,-24,-53,-19,-9,-4
112,-9,-122,-51,117,-65,29,-39,-53,-24,-9,-4
112,-9,-122,-51,117,-65,29,-39,-53,-24,-9,-9
117,-14,-131,-51,124,-73,29,-39,-63,-24,-9,-9
122,-14,-136,-53,129,-75,29,-39,-63,-29,-9,-9
122,-14,-136,-53,129,-75,39,-34,-68,-19,-9,0
117,-14,-131,-51,124,-73,39,-34,-68,-24,-9,-4
117,-9,-126,-53,122,-68,39,-34,-63,-24,-9,-4
107,-9,-117,-48,112,-63,39,-34,-63,-24,-14,0
107,-19,-126,-43,117,-73,34,-43,-53,-24,-4,-9
112,-19,-131,-46,122,-75,34,-43,-53,-24,-4,-9
112,-19,-131,-46,122,-75,34,-39,-53,-24,-4,-9
112,-19,-131,-46,122,-75,34,-39,-53,-19,-4,-4
122,-19,-141,-51,131,-80,34,-39,-58,-24,-14,-4
122,-19,-141,-51,131,-80,34,-39,-58,-24,-14,-4
126,-19,-146,-53,136,-82,29,-39,-63,-24,-14,-9
126,-19,-146,-53,136,-82,29,-39,-63,-24,-14,-9
112,-9,-122,-51,117,-65,43,-29,-58,-14,-4,-9
112,-9,-122,-51,117,-65,43,-24,-53,-19,-4,-4
112,-9,-122,-51,117,-65,43,-24,-53,-19,0,-4
117,-4,-122,-56,119,-63,43,-24,-53,-19,0,-4
112,-14,-126,-48,119,-70,43,-19,-53,-14,0,-14
107,-14,-122,-46,114,-68,48,-19,-53,-9,0,-14
102,-14,-117,-43,109,-65,48,-19,-48,-4,4,-14
87,-14,-102,-36,95,-58,48,-14,-48,-4,4,-9
92,-19,-112,-36,102,-65,39,-19,-48,-4,0,-9
102,-19,-122,-41,112,-70,39,-19,-48,-9,-4,-14
112,-19,-131,-46,122,-75,39,-19,-43,-14,-4,-19
117,-14,-131,-51,124,-73,39,-19,-43,-19,-9,-19
107,-14,-122,-46,114,-68,48,-14,-43,-19,0,-4
107,-9,-117,-48,112,-63,48,-14,-39,-14,4,-4
107,-9,-117,-48,112,-63,48,-14,-39,-14,4,0
107,-9,-117,-48,112,-63,48,-14,-39,-14,4,0
107,-9,-117,-48,112,-63,48,-4,-39,-9,14,9
102,-4,-107,-48,104,-56,48,0,-29,-9,14,14
92,-4,-97,-43,95,-51,48,0,-29,-9,14,14
92,-4,-97,-43,95,-51,48,0,-29,-9,14,14
107,-4,-112,-51,109,-58,39,-9,-29,-9,4,4
117,0,-117,-58,117,-58,34,-9,-29,-14,4,0
136,0,-136,-68,136,-68,34,-9,-29,-14,0,0
141,0,-141,-70,141,-70,39,-9,-29,-9,0,4
136,0,-136,-68,136,-68,48,-9,-34,-4,0,9
131,0,-131,-65,131,-65,48,-4,-34,-4,4,9
126,0,-126,-63,126,-63,48,-4,-34,-4,9,9
122,0,-122,-61,122,-61,48,-4,-34,-4,9,9
112,0,-112,-56,112,-56,48,-14,-24,4,14,19
102,0,-102,-51,102,-51,48,-4,-24,9,19,19
102,4,-97,-53,100,-46,48,-4,-24,9,19,19
112,4,-107,-58,109,-51,48,-4,-24,9,19,19
122,-4,-126,-58,124,-65,48,-4,-24,9,19,9
122,-4,-126,-58,124,-65,48,-4,-24,9,14,9
126,-4,-131,-61,129,-68,48,-4,-24,9,14,9
126,-4,-131,-61,129,-68,48,-9,-24,9,9,9
126,-4,-131,-61,129,-68,58,-9,-24,14,9,14
122,-9,-131,-56,126,-70,58,-4,-24,14,14,14
122,-9,-131,-56,126,-70,58,-4,-24,14,19,14
122,-9,-131,-56,126,-70,53,-9,-24,14,19,14
126,-19,-146,-53,136,-82,43,0,-24,14,19,14
126,-19,-146,-53,136,-82,43,-4,-24,14,14,14
131,-19,-151,-56,141,-85,43,-9,-29,14,9,14
136,-19,-156,-58,146,-87,43,-9,-29,14,9,14
122,-14,-136,-53,129,-75,48,-9,-19,14,14,24
117,-14,-131,-51,124,-73,48,-9,-19,14,14,24
112,-14,-126,-48,119,-70,48,-14,-24,14,14,24
102,-14,-117,-43,109,-65,48,-14,-24,9,14,24
112,-24,-136,-43,124,-80,48,-19,-24,0,14,14
117,-24,-141,-46,129,-82,48,-19,-29,0,14,9
117,-24,-141,-46,129,-82,48,-19,-29,0,14,9
112,-24,-136,-43,124,-80,43,-19,-29,0,14,9
112,-19,-131,-46,122,-75,43,-29,-43,0,4,9
117,-19,-136,-48,126,-78,39,-34,-48,0,0,4
117,-19,-136,-48,126,-78,39,-39,-48,-4,0,4
117,-19,-136,-48,126,-78,39,-43,-48,-4,0,4
126,-9,-136,-58,131,-73,29,-43,-53,-14,0,9
126,-14,-141,-56,134,-78,29,-43,-53,-14,0,9
126,-19,-146,-53,136,-82,29,-43,-53,-14,0,9
126,-24,-151,-51,139,-87,29,-43,-53,-14,0,9
122,-24,-146,-48,134,-85,39,-43,-53,-4,9,4
122,-24,-146,-48,134,-85,34,-43,-58,-4,9,4
117,-24,-141,-46,129,-82,34,-43,-63,-4,4,4
107,-24,-131,-41,119,-78,34,-53,-63,-4,4,4
107,-29,-136,-39,122,-82,34,-43,-53,-14,4,4
107,-29,-136,-39,122,-82,29,-43,-58,-19,14,4
107,-29,-136,-39,122,-82,29,-43,-58,-24,14,4
107,-29,-136,-39,122,-82,29,-43,-68,-24,9,4
97,-29,-126,-34,112,-78,29,-48,-68,-14,-4,9
97,-29,-126,-34,112,-78,29,-48,-68,-14,-9,4
92,-29,-122,-31,107,-75,29,-48,-58,-24,-9,4
87,-29,-117,-29,102,-73,29,-48,-58,-24,-4,9
92,-29,-122,-31,107,-75,34,-58,-68,-19,-4,9
92,-29,-122,-31,107,-75,34,-63,-73,-19,-4,4
92,-29,-122,-31,107,-75,29,-63,-73,-9,-4,4
97,-29,-126,-34,112,-78,29,-63,-73,-9,-4,4
97,-19,-117,-39,107,-68,24,-63,-73,-19,0,4
97,-19,-117,-39,107,-68,24,-63,-78,-24,0,4
97,-19,-117,-39,107,-68,29,-63,-78,-24,0,4
97,-19,-117,-39,107,-68,29,-63,-78,-29,0,4
117,-29,-146,-43,131,-87,24,-68,-78,-34,-9,-4
107,-29,-136,-39,122,-82,24,-68,-78,-34,-9,-4
97,-29,-126,-34,112,-78,24,-68,-78,-34,-9,-4
107,-29,-136,-39,122,-82,29,-68,-78,-39,-9,-4
112,-39,-151,-36,131,-95,29,-68,-73,-29,-4,-9
112,-39,-151,-36,131,-95,24,-68,-73,-29,-4,-9
102,-39,-141,-31,122,-90,19,-68,-68,-29,0,-9
102,-39,-141,-31,122,-90,19,-68,-68,-24,0,-9
97,-39,-136,-29,117,-87,19,-63,-63,-24,4,0
102,-39,-141,-31,122,-90,9,-63,-68,-24,0,0
97,-39,-136,-29,117,-87,19,-63,-68,-24,0,0
87,-39,-126,-24,107,-82,24,-63,-68,-24,0,4
87,-48,-136,-19,112,-92,24,-73,-68,-24,0,4
87,-48,-136,-19,112,-92,19,-73,-63,-24,0,0
87,-48,-136,-19,112,-92,19,-78,-63,-19,0,0
87,-53,-141,-17,114,-97,19,-78,-63,-19,-4,0
87,-48,-136,-19,112,-92,19,-68,-78,-19,4,4
87,-48,-136,-19,112,-92,19,-68,-78,-19,4,4
87,-48,-136,-19,112,-92,19,-68,-78,-19,4,4
87,-48,-136,-19,112,-92,14,-68,-78,-19,4,4
87,-39,-126,-24,107,-82,14,-68,-78,-29,4,-4
97,-39,-136,-29,117,-87,19,-68,-78,-29,0,0
87,-48,-136,-19,112,-92,19,-78,-78,-29,-9,-9
87,-48,-136,-19,112,-92,19,-78,-78,-29,-9,-9
87,-48,-136,-19,112,-92,19,-78,-78,-29,-9,-9
87,-48,-136,-19,112,-92,19,-78,-78,-29,-9,-9
92,-48,-141,-21,117,-95,19,-78,-78,-34,0,0
92,-48,-141,-21,117,-95,19,-78,-78,-34,-4,0
92,-43,-136,-24,114,-90,19,-78,-78,-29,-4,0
92,-43,-136,-24,114,-90,19,-78,-78,-29,-4,0
82,-53,-136,-14,109,-95,24,-63,-68,-29,0,0
82,-53,-136,-14,109,-95,24,-63,-68,-29,0,4
87,-48,-136,-19,112,-92,29,-63,-63,-24,4,4
87,-39,-126,-24,107,-82,34,-58,-58,-19,9,4
87,-39,-126,-24,107,-82,34,-58,-63,-9,9,9
87,-39,-126,-24,107,-82,34,-53,-63,-9,9,14
92,-29,-122,-31,107,-75,34,-53,-58,-9,14,14
92,-19,-112,-36,102,-65,39,-39,-53,0,19,19
102,-9,-112,-46,107,-61,58,-34,-43,14,24,24
107,-4,-112,-51,109,-58,63,-29,-34,19,29,29
112,0,-112,-56,112,-56,63,-29,-24,19,39,29
112,4,-107,-58,109,-51,63,-29,-19,29,39,29
107,9,-97,-58,102,-43,63,-29,-14,29,39,39
117,14,-102,-65,109,-43,68,-19,-9,34,39,39
122,14,-107,-68,114,-46,68,-19,-4,39,39,39
122,19,-102,-70,112,-41,68,-19,-4,39,43,39
122,19,-102,-70,112,-41,68,-24,-14,29,34,34
126,14,-112,-70,119,-48,63,-29,-24,24,34,34
131,9,-122,-70,126,-56,53,-34,-24,14,34,29
141,9,-131,-75,136,-61,48,-34,-24,14,34,29
136,0,-136,-68,136,-68,48,-19,-14,29,43,39
136,-4,-141,-65,139,-73,43,-19,-14,34,43,39
131,-4,-136,-63,134,-70,29,-29,-14,34,43,39
126,-4,-131,-61,129,-68,19,-29,-14,34,53,48
126,-4,-131,-61,129,-68,0,-34,-24,29,53,53
136,4,-131,-70,134,-63,-19,-39,-29,29,53,53
141,4,-136,-73,139,-65,-34,-53,-34,29,53,53
141,4,-136,-73,139,-65,-39,-68,-43,19,53,53
131,-24,-156,-53,143,-90,-58,-92,-73,0,34,48
131,-34,-165,-48,148,-100,-63,-112,-92,-19,19,34
131,-48,-180,-41,156,-114,-63,-126,-102,-34,14,24
126,-58,-185,-34,156,-122,-63,-131,-102,-34,9,24
126,-58,-185,-34,156,-122,-48,-126,-92,-34,14,9
126,-68,-195,-29,161,-131,-48,-126,-97,-39,9,9
126,-68,-195,-29,161,-131,-48,-122,-97,-39,9,9
126,-68,-195,-29,161,-131,-39,-122,-92,-34,9,9
136,-58,-195,-39,165,-126,-43,-112,-92,-24,14,14
136,-43,-180,-46,158,-112,-39,-112,-92,-14,24,19
141,-39,-180,-51,161,-109,-34,-112,-92,-14,24,19
146,-34,-180,-56,163,-107,-34,-107,-87,-19,24,19
146,-24,-170,-61,158,-97,-34,-107,-87,-19,14,14
141,-24,-165,-58,153,-95,-34,-107,-82,-19,14,14
126,-24,-151,-51,139,-87,-24,-102,-82,-19,19,14
117,-24,-141,-46,129,-82,-19,-97,-78,-14,19,14
97,-34,-131,-31,114,-82,-14,-107,-78,-14,19,9
92,-43,-136,-24,114,-90,-9,-107,-87,-24,9,4
87,-63,-151,-12,119,-107,-9,-122,-97,-34,-4,-4
78,-73,-151,-2,114,-112,-9,-122,-102,-43,-4,-14
63,-82,-146,9,104,-114,0,-112,-107,-34,-4,-14
53,-92,-146,19,100,-119,0,-112,-107,-39,-14,-19
48,-97,-146,24,97,-122,0,-112,-107,-43,-14,-19
43,-102,-146,29,95,-124,0,-112,-107,-48,-19,-24
58,-117,-175,29,117,-146,9,-112,-102,-48,-19,-29
58,-117,-175,29,117,-146,9,-112,-102,-48,-24,-29
58,-117,-175,29,117,-146,9,-112,-102,-43,-24,-24
58,-117,-175,29,117,-146,14,-112,-102,-43,-24,-24
53,-117,-170,31,112,-143,14,-112,-102,-53,-14,-24
53,-117,-170,31,112,-143,14,-112,-102,-53,-14,-24
53,-117,-170,31,112,-143,19,-107,-102,-53,-14,-24
53,-117,-170,31,112,-143,19,-107,-102,-53,-14,-24
53,-112,-165,29,109,-139,9,-107,-97,-53,-14,-34
58,-112,-170,26,114,-141,9,-107,-97,-53,-14,-34
58,-112,-170,26,114,-141,9,-107,-97,-48,-14,-34
58,-112,-170,26,114,-141,9,-102,-97,-48,-9,-34
43,-117,-161,36,102,-139,19,-102,-102,-48,-9,-24
39,-117,-156,39,97,-136,19,-102,-97,-48,-9,-19
34,-117,-151,41,92,-134,24,-102,-97,-43,-9,-19
29,-117,-146,43,87,-131,24,-102,-97,-43,-4,-19
34,-117,-151,41,92,-134,14,-92,-97,-34,-4,-24
39,-117,-156,39,97,-136,14,-87,-97,-34,-4,-24
48,-117,-165,34,107,-141,14,-87,-97,-34,-4,-24
53,-122,-175,34,114,-148,14,-87,-92,-34,-4,-24
68,-122,-190,26,129,-156,14,-87,-92,-34,-4,-24
58,-122,-180,31,119,-151,24,-87,-87,-29,-4,-24
58,-122,-180,31,119,-151,34,-68,-92,-29,-4,-19
58,-131,-190,36,124,-161,39,-58,-82,-39,-9,-24
82,-131,-214,24,148,-173,48,-34,-68,-39,-29,-34
92,-126,-219,17,156,-173,82,29,-24,-4,-14,-34
58,-117,-175,29,117,-146,117,131,58,43,19,-14
73,-78,-151,2,112,-114,151,239,141,107,53,19
102,-39,-141,-31,122,-90,161,307,224,185,92,48
141,19,-122,-80,131,-51,141,331,317,278,156,87
185,82,-102,-134,143,-9,112,346,434,385,239,151
229,126,-102,-178,165,12,97,395,575,522,326,214
253,170,-82,-212,168,43,82,434,722,668,414,287
312,229,-82,-270,197,73,63,448,873,800,507,351
390,307,-82,-348,236,112,34,483,1039,951,614,424
448,400,-48,-424,248,175,-9,507,1200,1102,712,507
497,483,-14,-490,256,234,-82,492,1322,1215,800,575
556,556,0,-556,278,278,-170,478,1405,1293,858,624
600,614,14,-607,292,314,-278,458,1449,1322,883,663
634,692,58,-663,287,375,-395,346,1415,1322,907,692
619,751,131,-685,244,441,-536,136,1302,1273,932,717
566,795,229,-680,168,512,-673,-156,1122,1180,917,727
497,824,326,-661,85,575,-810,-512,863,1034,883,722
458,790,331,-624,63,561,-941,-819,585,814,785,688
414,658,244,-536,85,451,-1029,-980,317,546,624,570
336,517,180,-427,78,348,-1088,-1132,24,244,419,429
248,434,185,-341,31,309,-1156,-1405,-409,-82,244,302
175,390,214,-283,-19,302,-1234,-1727,-863,-375,102,214
126,346,219,-236,-46,283,-1273,-1917,-1146,-546,0,156
97,278,180,-187,-41,229,-1254,-1927,-1234,-624,-58,97
107,219,112,-163,-2,165,-1190,-1815,-1205,-624,-107,58
107,190,82,-148,12,136,-1078,-1634,-1098,-590,-107,34
73,170,97,-122,-12,134,-922,-1405,-956,-531,-107,19
29,141,112,-85,-41,126,-756,-1185,-839,-488,-117,0
19,131,112,-75,-46,122,-605,-961,-702,-424,-117,-29
39,161,122,-100,-41,141,-488,-780,-566,-346,-87,-19
53,151,97,-102,-21,124,-385,-629,-463,-268,-63,-9
53,112,58,-82,-2,85,-292,-502,-385,-224,-68,-29
29,78,48,-53,-9,63,-200,-395,-312,-175,-68,-39
9,53,43,-31,-17,48,-156,-331,-263,-146,-58,-39
29,48,19,-39,4,34,-136,-302,-253,-156,-58,-48
39,39,0,-39,19,19,-107,-278,-244,-156,-68,-63
4,29,24,-17,-9,26,-63,-239,-234,-146,-63,-63
-24,19,43,2,-34,31,-39,-204,-209,-131,-68,-58
-4,0,4,2,-4,2,-14,-170,-200,-141,-82,-78
24,-19,-43,-2,34,-31,0,-141,-180,-141,-82,-92
14,-19,-34,2,24,-26,4,-131,-175,-136,-78,-82
24,-19,-43,-2,34,-31,4,-131,-170,-136,-87,-82
19,-14,-34,-2,26,-24,0,-126,-180,-136,-87,-82
19,-19,-39,0,29,-29,9,-126,-180,-136,-87,-87
24,-19,-43,-2,34,-31,14,-126,-175,-136,-87,-92
24,-19,-43,-2,34,-31,19,-117,-175,-136,-97,-92
14,-19,-34,2,24,-26,34,-107,-175,-136,-87,-102
14,-29,-43,7,29,-36,39,-92,-170,-126,-87,-102
9,-29,-39,9,24,-34,43,-92,-165,-122,-87,-102
9,-19,-29,4,19,-24,43,-92,-161,-122,-82,-102
9,-19,-29,4,19,-24,43,-82,-151,-131,-92,-102
9,-19,-29,4,19,-24,43,-78,-151,-131,-92,-102
9,-24,-34,7,21,-29,43,-78,-151,-131,-92,-102
9,-24,-34,7,21,-29,48,-68,-151,-131,-92,-102
19,-14,-34,-2,26,-24,53,-63,-156,-122,-97,-102
19,-14,-34,-2,26,-24,53,-63,-156,-122,-97,-102
24,-14,-39,-4,31,-26,53,-63,-146,-122,-97,-102
24,-14,-39,-4,31,-26,53,-58,-146,-117,-102,-102
14,-14,-29,0,21,-21,58,-58,-136,-117,-102,-102
14,-19,-34,2,24,-26,58,-53,-136,-112,-97,-97
14,-19,-34,2,24,-26,58,-53,-131,-112,-92,-97
9,-19,-29,4,19,-24,63,-48,-131,-112,-92,-97
19,-29,-48,4,34,-39,63,-39,-131,-122,-97,-97
24,-29,-53,2,39,-41,63,-39,-131,-122,-97,-97
24,-29,-53,2,39,-41,63,-39,-126,-122,-92,-97
24,-29,-53,2,39,-41,68,-29,-122,-117,-92,-97
19,-29,-48,4,34,-39,78,-29,-122,-107,-87,-97
19,-29,-48,4,34,-39,78,-29,-122,-107,-87,-97
19,-29,-48,4,34,-39,78,-19,-117,-107,-87,-97
24,-29,-53,2,39,-41,78,-19,-117,-107,-87,-97
34,-39,-73,2,53,-56,78,-9,-117,-102,-78,-97
29,-39,-68,4,48,-53,78,0,-107,-102,-73,-97
29,-39,-68,4,48,-53,82,0,-107,-102,-73,-92
29,-39,-68,4,48,-53,82,0,-107,-97,-73,-92
29,-29,-58,0,43,-43,82,-4,-107,-97,-82,-92
39,-29,-68,-4,53,-48,82,-4,-102,-97,-82,-92
48,-29,-78,-9,63,-53,82,4,-102,-97,-82,-92
39,-29,-68,-4,53,-48,82,14,-92,-97,-82,-92
24,-19,-43,-2,34,-31,87,24,-97,-87,-82,-97
24,-19,-43,-2,34,-31,87,29,-92,-82,-78,-97
34,-24,-58,-4,46,-41,87,34,-92,-82,-73,-97
34,-24,-58,-4,46,-41,87,39,-87,-78,-73,-97
39,-14,-53,-12,46,-34,82,34,-92,-82,-82,-92
43,-14,-58,-14,51,-36,82,43,-87,-82,-82,-92
48,-14,-63,-17,56,-39,82,48,-82,-87,-82,-97
53,-14,-68,-19,61,-41,82,53,-78,-87,-82,-97
53,-9,-63,-21,58,-36,97,73,-63,-78,-73,-87
48,-9,-58,-19,53,-34,97,78,-58,-78,-68,-87
43,-9,-53,-17,48,-31,102,92,-48,-68,-63,-82
39,-9,-48,-14,43,-29,102,92,-43,-68,-58,-82
43,-14,-58,-14,51,-36,102,102,-39,-78,-63,-82
43,-14,-58,-14,51,-36,112,117,-29,-68,-63,-82
43,-14,-58,-14,51,-36,112,126,-19,-63,-63,-73
48,-14,-63,-17,56,-39,112,136,-19,-53,-63,-73
39,-14,-53,-12,46,-34,117,146,-19,-48,-58,-73
39,-14,-53,-12,46,-34,117,161,-4,-43,-53,-73
43,-14,-58,-14,51,-36,122,170,4,-39,-53,-73
48,-4,-53,-21,51,-29,122,190,14,-34,-53,-68
58,-14,-73,-21,65,-43,126,200,24,-24,-43,-78
63,-14,-78,-24,70,-46,136,214,34,-19,-39,-78
63,-9,-73,-26,68,-41,141,229,43,-14,-39,-63
68,-9,-78,-29,73,-43,146,248,53,-4,-29,-58
78,-4,-82,-36,80,-43,146,273,58,0,-24,-63
78,-4,-82,-36,80,-43,151,287,78,9,-24,-63
87,-4,-92,-41,90,-48,156,302,87,19,-19,-63
92,-4,-97,-43,95,-51,156,317,107,34,-14,-63
87,4,-82,-46,85,-39,175,341,131,29,-19,-58
82,9,-73,-46,78,-31,180,361,146,43,-14,-53
78,19,-58,-48,68,-19,185,380,161,53,-9,-48
78,24,-53,-51,65,-14,190,395,175,63,-4,-48
87,19,-68,-53,78,-24,185,414,180,68,0,-43
92,19,-73,-56,82,-26,190,424,200,78,9,-39
102,19,-82,-61,92,-31,195,439,209,87,14,-34
102,19,-82,-61,92,-31,200,453,224,92,19,-29
92,24,-68,-58,80,-21,204,483,229,107,34,-14
92,29,-63,-61,78,-17,209,497,248,117,39,-9
97,39,-58,-68,78,-9,214,517,263,131,43,-9
97,48,-48,-73,73,0,214,522,268,136,48,-9
102,53,-48,-78,75,2,214,531,278,136,53,-4
107,58,-48,-82,78,4,224,541,292,146,53,0
117,73,-43,-95,80,14,224,556,302,156,63,4
126,82,-43,-104,85,19,224,561,312,161,63,14
122,87,-34,-104,78,26,224,566,322,170,53,14
117,92,-24,-104,70,34,234,575,326,175,63,14
112,87,-24,-100,68,31,239,590,336,180,68,14
107,82,-24,-95,65,29,239,590,341,185,73,19
117,97,-19,-107,68,39,234,595,346,190,73,19
126,97,-29,-112,78,34,234,600,351,195,73,19
126,97,-29,-112,78,34,234,605,356,204,82,29
126,97,-29,-112,78,34,239,610,366,214,87,29
112,102,-9,-107,61,46,248,619,370,219,87,29
112,107,-4,-109,58,51,248,619,375,219,97,29
112,112,0,-112,56,56,248,624,375,219,97,34
112,117,4,-114,53,61,248,624,375,219,97,34
112,122,9,-117,51,65,248,624,385,219,97,29
112,122,9,-117,51,65,248,614,385,224,97,34
122,122,0,-122,61,61,248,610,385,224,102,34
107,126,19,-117,43,73,248,600,385,224,102,34
117,136,19,-126,48,78,248,590,375,224,107,24
117,136,19,-126,48,78,239,580,370,224,107,29
117,146,29,-131,43,87,234,561,361,224,102,29
117,156,39,-136,39,97,234,546,351,214,102,29
117,161,43,-139,36,102,229,512,351,219,102,29
117,161,43,-139,36,102,224,497,331,219,102,29
107,161,53,-134,26,107,214,478,326,219,102,29
107,161,53,-134,26,107,214,453,312,214,102,29
107,151,43,-129,31,97,219,429,302,214,102,34
112,151,39,-131,36,95,209,405,283,204,92,34
112,151,39,-131,36,95,200,385,268,195,92,39
112,156,43,-134,34,100,200,361,244,195,92,43
102,146,43,-124,29,95,195,341,248,190,97,53
97,146,48,-122,24,97,180,317,229,180,92,53
92,146,53,-119,19,100,170,292,219,180,97,53
82,146,63,-114,9,104,170,268,214,165,102,48
82,136,53,-109,14,95,161,234,180,146,87,29
82,131,48,-107,17,90,156,219,165,141,82,29
82,126,43,-104,19,85,141,200,151,131,78,29
82,122,39,-102,21,80,126,180,136,122,73,29
82,122,39,-102,21,80,112,161,112,122,63,14
73,122,48,-97,12,85,102,136,97,112,58,14
73,122,48,-97,12,85,102,122,82,102,53,14
73,122,48,-97,12,85,97,102,73,102,53,4
82,122,39,-102,21,80,92,87,68,87,39,-4
82,122,39,-102,21,80,87,68,53,78,34,-4
78,122,43,-100,17,82,82,53,48,68,29,-4
78,122,43,-100,17,82,78,43,34,58,29,-4
78,112,34,-95,21,73,63,29,24,48,34,-14
78,112,34,-95,21,73,58,14,14,43,29,-24
78,107,29,-92,24,68,53,9,9,39,29,-24
73,102,29,-87,21,65,48,0,0,34,24,-24
73,92,19,-82,26,56,48,-9,-9,39,24,-14
78,87,9,-82,34,48,48,-14,-14,34,14,-14
78,82,4,-80,36,43,48,-14,-19,29,9,-19
73,78,4,-75,34,41,48,-24,-24,24,9,-19
63,82,19,-73,21,51,34,-39,-29,24,19,-29
58,82,24,-70,17,53,34,-43,-34,19,9,-29
58,87,29,-73,14,58,29,-43,-39,14,9,-34
58,92,34,-75,12,63,24,-48,-43,9,9,-39
58,87,29,-73,14,58,24,-53,-53,0,4,-39
58,82,24,-70,17,53,29,-58,-58,0,4,-39
63,78,14,-70,24,46,34,-58,-58,0,0,-39
63,68,4,-65,29,36,39,-63,-63,-4,0,-39
58,63,4,-61,26,34,39,-63,-53,0,0,-34
53,63,9,-58,21,36,39,-63,-53,0,0,-34
48,63,14,-56,17,39,39,-63,-58,0,0,-29
39,58,19,-48,9,39,39,-63,-63,0,0,-24
39,68,29,-53,4,48,29,-68,-73,-14,-9,-34
43,68,24,-56,9,46,29,-68,-73,-14,-9,-39
53,63,9,-58,21,36,29,-68,-82,-14,-9,-39
63,63,0,-63,31,31,29,-68,-82,-19,-9,-39
63,63,0,-63,31,31,29,-73,-87,-29,-19,-48
58,63,4,-61,26,34,29,-73,-87,-34,-19,-53
58,68,9,-63,24,39,29,-73,-82,-34,-19,-53
48,68,19,-58,14,43,29,-73,-82,-34,-24,-48
58,68,9,-63,24,39,24,-73,-82,-34,-24,-48
63,68,4,-65,29,36,24,-73,-82,-34,-24,-48
63,68,4,-65,29,36,24,-68,-82,-34,-24,-48
63,68,4,-65,29,36,24,-68,-82,-29,-24,-43
58,53,-4,-56,31,24,34,-58,-68,-24,-14,-34
53,48,-4,-51,29,21,34,-58,-68,-24,-14,-34
53,43,-9,-48,31,17,29,-58,-73,-24,-14,-39
48,39,-9,-43,29,14,29,-58,-73,-24,-14,-39
43,48,4,-46,19,26,34,-58,-68,-19,-4,-39
43,48,4,-46,19,26,34,-53,-63,-19,-4,-34
43,48,4,-46,19,26,34,-53,-63,-14,0,-34
48,53,4,-51,21,29,34,-53,-63,-9,0,-34
53,53,0,-53,26,26,34,-58,-63,-9,-9,-43
58,53,-4,-56,31,24,39,-58,-63,-9,-9,-43
63,53,-9,-58,36,21,39,-58,-58,-9,-4,-43
58,53,-4,-56,31,24,39,-53,-58,-14,-4,-39
48,58,9,-53,19,34,39,-48,-68,-19,-14,-29
53,58,4,-56,24,31,39,-48,-68,-19,-14,-34
58,58,0,-58,29,29,39,-48,-63,-19,-9,-39
58,63,4,-61,26,34,39,-48,-63,-19,-9,-39
58,63,4,-61,26,34,39,-34,-63,-19,-9,-43
58,68,9,-63,24,39,39,-34,-58,-14,-4,-43
58,68,9,-63,24,39,39,-34,-58,-14,-4,-39
58,68,9,-63,24,39,39,-34,-58,-14,-4,-39
48,58,9,-53,19,34,48,-34,-48,0,4,-29
43,63,19,-53,12,41,48,-29,-39,0,4,-24
34,63,29,-48,2,46,48,-29,-39,0,4,-24
34,63,29,-48,2,46,48,-29,-39,0,4,-24
34,73,39,-53,-2,56,48,-29,-39,9,4,-24
39,78,39,-58,0,58,43,-29,-39,4,4,-29
53,78,24,-65,14,51,43,-29,-39,4,0,-29
53,78,24,-65,14,51,48,-29,-39,9,0,-24
53,68,14,-61,19,41,39,-29,-43,4,9,-19
53,68,14,-61,19,41,39,-24,-43,4,14,-19
53,68,14,-61,19,41,39,-24,-43,4,19,-19
53,68,14,-61,19,41,39,-24,-43,4,19,-19
53,68,14,-61,19,41,39,-24,-34,-4,19,-29
43,68,24,-56,9,46,39,-14,-34,0,19,-29
43,73,29,-58,7,51,39,-14,-34,0,14,-29
53,73,19,-63,17,46,39,-14,-34,0,9,-29
48,73,24,-61,12,48,39,-24,-43,0,9,-29
43,73,29,-58,7,51,39,-24,-43,0,4,-29
43,73,29,-58,7,51,39,-24,-43,0,4,-29
39,73,34,-56,2,53,39,-29,-43,0,0,-29
43,82,39,-63,2,61,39,-29,-43,4,0,-24
43,78,34,-61,4,56,39,-24,-43,4,4,-24
48,78,29,-63,9,53,39,-24,-43,4,9,-24
53,78,24,-65,14,51,34,-29,-43,4,9,-24
48,78,29,-63,9,53,34,-29,-43,-4,9,-34
48,78,29,-63,9,53,34,-34,-43,-4,4,-34
53,78,24,-65,14,51,34,-39,-48,-4,0,-34
58,78,19,-68,19,48,34,-39,-48,-4,0,-34
48,63,14,-56,17,39,19,-48,-58,-4,4,-24
48,63,14,-56,17,39,19,-48,-58,-4,4,-24
48,63,14,-56,17,39,19,-53,-63,-4,4,-24
43,63,19,-53,12,41,19,-53,-63,-9,4,-24
43,73,29,-58,7,51,19,-48,-53,-9,-4,-24
48,73,24,-61,12,48,19,-48,-58,-9,-4,-29
48,73,24,-61,12,48,19,-48,-58,-9,-4,-29
43,73,29,-58,7,51,14,-48,-58,-9,-4,-29
43,78,34,-61,4,56,19,-39,-58,0,4,-19
48,78,29,-63,9,53,19,-43,-58,0,0,-24
48,78,29,-63,9,53,24,-48,-53,-4,0,-24
48,78,29,-63,9,53,29,-53,-48,-4,0,-24
39,68,29,-53,4,48,29,-63,-63,-14,0,-29
39,63,24,-51,7,43,29,-63,-63,-14,0,-29
39,58,19,-48,9,39,29,-63,-63,-14,0,-29
39,53,14,-46,12,34,29,-63,-63,-14,0,-29
29,58,29,-43,0,43,19,-73,-73,-24,0,-34
34,63,29,-48,2,46,14,-73,-78,-24,0,-34
34,68,34,-51,0,51,14,-73,-82,-24,-4,-34
29,73,43,-51,-7,58,14,-82,-82,-24,-4,-34
34,87,53,-61,-9,70,14,-82,-73,-24,-14,-43
39,87,48,-63,-4,68,9,-82,-78,-29,-4,-43
43,87,43,-65,0,65,9,-82,-78,-34,-4,-43
48,87,39,-68,4,63,9,-82,-87,-34,-9,-43
58,82,24,-70,17,53,9,-78,-97,-29,-14,-48
58,78,19,-68,19,48,9,-78,-97,-24,-19,-53
53,73,19,-63,17,46,9,-78,-87,-29,-19,-53
48,68,19,-58,14,43,9,-78,-87,-24,-14,-48
43,78,34,-61,4,56,4,-87,-97,-24,-14,-48
43,78,34,-61,4,56,4,-92,-102,-29,-14,-53
43,78,34,-61,4,56,0,-92,-102,-24,-14,-53
48,78,29,-63,9,53,0,-92,-102,-29,-14,-53
48,87,39,-68,4,63,-4,-92,-92,-29,-19,-53
48,87,39,-68,4,63,-4,-92,-97,-34,-19,-53
48,87,39,-68,4,63,0,-92,-97,-34,-19,-53
48,87,39,-68,4,63,0,-92,-97,-39,-19,-53
58,78,19,-68,19,48,-14,-97,-107,-43,-29,-63
48,78,29,-63,9,53,-14,-97,-107,-43,-29,-63
39,78,39,-58,0,58,-14,-97,-107,-43,-29,-63
48,78,29,-63,9,53,-9,-97,-107,-48,-29,-63
43,68,24,-56,9,46,-4,-97,-107,-39,-34,-58
43,68,24,-56,9,46,-4,-97,-102,-39,-34,-58
34,68,34,-51,0,51,-4,-97,-92,-39,-29,-58
34,68,34,-51,0,51,0,-97,-87,-34,-29,-58
39,68,29,-53,4,48,0,-92,-92,-34,-29,-48
43,68,24,-56,9,46,-9,-92,-97,-34,-29,-48
39,68,29,-53,4,48,0,-92,-97,-34,-24,-48
29,68,39,-48,-4,53,4,-92,-97,-34,-19,-43
39,78,39,-58,0,58,-4,-102,-102,-43,-29,-53
39,78,39,-58,0,58,-9,-102,-102,-43,-29,-58
39,78,39,-58,0,58,-9,-107,-107,-39,-29,-58
39,73,34,-56,2,53,-9,-107,-112,-39,-34,-58
58,78,19,-68,19,48,-9,-107,-117,-48,-34,-63
58,78,19,-68,19,48,-9,-107,-117,-48,-43,-63
48,78,29,-63,9,53,-9,-107,-117,-48,-43,-63
39,87,48,-63,-4,68,-9,-97,-107,-48,-39,-68
39,78,39,-58,0,58,-19,-107,-117,-58,-39,-68
39,78,39,-58,0,58,-19,-107,-117,-58,-39,-68
39,78,39,-58,0,58,-19,-107,-117,-58,-39,-68
39,78,39,-58,0,58,-19,-107,-117,-58,-39,-68
34,87,53,-61,-9,70,-9,-97,-107,-63,-29,-58
34,87,53,-61,-9,70,-9,-97,-107,-63,-34,-58
34,92,58,-63,-12,75,-9,-97,-107,-58,-34,-58
34,92,58,-63,-12,75,-9,-97,-107,-58,-34,-58
43,82,39,-63,2,61,-4,-92,-107,-48,-19,-48
43,82,39,-63,2,61,-4,-92,-107,-48,-19,-43
48,87,39,-68,4,63,0,-92,-102,-43,-14,-43
48,97,48,-73,0,73,4,-87,-97,-39,-9,-43
58,97,39,-78,9,68,-4,-87,-92,-19,-19,-43
58,97,39,-78,9,68,-4,-82,-92,-19,-19,-43
63,107,43,-85,9,75,-4,-82,-87,-19,-14,-48
63,117,53,-90,4,85,0,-68,-82,-9,-9,-48
58,122,63,-90,-2,92,14,-53,-73,-14,-4,-34
58,122,63,-90,-2,92,24,-48,-63,-9,0,-29
58,122,63,-90,-2,92,29,-48,-53,-9,9,-29
53,122,68,-87,-7,95,34,-48,-48,0,9,-29
58,136,78,-97,-9,107,24,-48,-48,-4,9,-9
68,141,73,-104,-2,107,29,-39,-48,-4,9,-9
73,141,68,-107,2,104,29,-39,-48,-4,9,-9
73,146,73,-109,0,109,29,-39,-53,-9,14,-9
68,141,73,-104,-2,107,19,-43,-63,0,9,-9
68,131,63,-100,2,97,14,-48,-73,-4,4,-14
68,122,53,-95,7,87,4,-53,-73,-14,0,-24
73,117,43,-95,14,80,0,-53,-73,-14,-4,-29
82,117,34,-100,24,75,9,-48,-68,0,0,-19
87,122,34,-104,26,78,4,-48,-63,4,4,-19
87,131,43,-109,21,87,-9,-58,-58,4,9,-19
87,141,53,-114,17,97,-19,-58,-53,4,24,-9
107,141,34,-124,36,87,-29,-73,-63,9,24,-4
117,151,34,-134,41,92,-48,-78,-68,9,24,-4
122,151,29,-136,46,90,-63,-92,-73,9,24,-4
122,151,29,-136,46,90,-68,-107,-82,0,24,-4
112,122,9,-117,51,65,-87,-126,-102,-29,4,-19
112,112,0,-112,56,56,-92,-141,-122,-48,-9,-34
112,97,-14,-104,63,41,-92,-151,-131,-63,-14,-43
107,87,-19,-97,63,34,-92,-151,-131,-63,-19,-43
97,82,-14,-90,56,34,-87,-146,-122,-58,-19,-48
97,78,-19,-87,58,29,-87,-146,-126,-58,-19,-48
97,82,-14,-90,56,34,-87,-141,-126,-53,-14,-48
97,87,-9,-92,53,39,-78,-141,-122,-43,-9,-48
107,82,-24,-95,65,29,-73,-122,-102,-43,-9,-53
107,92,-14,-100,61,39,-68,-122,-102,-34,-4,-48
112,92,-19,-102,65,36,-63,-122,-102,-34,-9,-48
117,92,-24,-104,70,34,-63,-117,-97,-39,-14,-48
107,82,-24,-95,65,29,-53,-117,-107,-39,-4,-34
102,82,-19,-92,61,31,-53,-117,-102,-39,-4,-34
87,82,-4,-85,46,39,-43,-112,-102,-39,0,-34
78,82,4,-80,36,43,-39,-107,-97,-34,0,-34
68,78,9,-73,29,43,-43,-117,-102,-43,-9,-39
63,73,9,-68,26,41,-39,-117,-117,-53,-19,-43
58,58,0,-58,29,29,-39,-131,-131,-63,-34,-53
48,53,4,-51,21,29,-39,-131,-141,-73,-34,-63
48,48,0,-48,24,24,-39,-131,-146,-73,-48,-82
43,43,0,-43,21,21,-39,-131,-146,-78,-63,-87
43,43,0,-43,21,21,-39,-131,-146,-82,-68,-87
43,43,0,-43,21,21,-39,-131,-146,-87,-78,-92
48,48,0,-48,24,24,-39,-131,-151,-87,-68,-87
48,48,0,-48,24,24,-39,-131,-151,-87,-73,-87
48,48,0,-48,24,24,-39,-131,-151,-82,-73,-82
48,48,0,-48,24,24,-34,-131,-151,-82,-73,-82
53,48,-4,-51,29,21,-34,-131,-151,-82,-63,-82
53,48,-4,-51,29,21,-34,-131,-151,-82,-63,-82
53,48,-4,-51,29,21,-29,-126,-151,-82,-63,-82
53,48,-4,-51,29,21,-29,-126,-151,-82,-63,-82
43,53,9,-48,17,31,-29,-126,-136,-82,-63,-82
48,53,4,-51,21,29,-29,-126,-136,-82,-63,-82
48,53,4,-51,21,29,-29,-126,-136,-78,-63,-82
48,53,4,-51,21,29,-29,-122,-136,-78,-58,-82
39,58,19,-48,9,39,-19,-112,-131,-78,-68,-92
39,58,19,-48,9,39,-19,-112,-126,-78,-68,-87
39,58,19,-48,9,39,-14,-112,-126,-73,-68,-87
39,58,19,-48,9,39,-14,-112,-126,-73,-63,-87
48,58,9,-53,19,34,-14,-122,-136,-78,-63,-92
48,58,9,-53,19,34,-14,-117,-136,-82,-63,-92
53,58,4,-56,24,31,-14,-117,-136,-87,-63,-92
53,53,0,-53,26,26,-14,-117,-131,-92,-63,-92
39,63,24,-51,7,43,-4,-107,-122,-82,-43,-63
29,53,24,-41,2,39,4,-87,-107,-68,-34,-53
58,53,-4,-56,31,24,4,-78,-112,-68,-43,-68
68,43,-24,-56,46,9,9,-58,-102,-68,-58,-92
63,43,-19,-53,41,12,19,-24,-87,-58,-48,-92
63,48,-14,-56,39,17,43,39,-34,-14,-34,-82
87,68,-19,-78,53,24,68,122,58,43,-19,-73
102,107,4,-104,48,56,92,219,151,117,14,-48
131,165,34,-148,48,100,102,287,244,195,73,-9
161,214,53,-187,53,134,82,312,356,307,156,58
204,268,63,-236,70,165,73,366,483,453,248,131
268,312,43,-290,112,178,58,424,634,600,346,204
322,366,43,-344,139,204,34,453,780,736,444,268
380,414,34,-397,173,224,24,478,951,888,556,351
439,483,43,-461,197,263,4,522,1127,1058,663,444
488,566,78,-527,204,322,-19,536,1278,1210,771,527
517,629,112,-573,202,370,-73,502,1371,1312,839,595
566,663,97,-614,234,380,-151,458,1415,1351,888,644
590,712,122,-651,234,417,-239,390,1429,1371,922,673
605,771,165,-688,219,468,-356,239,1366,1351,966,722
580,829,248,-705,165,539,-478,-19,1215,1293,971,746
497,863,366,-680,65,614,-585,-341,985,1171,956,756
419,873,453,-646,-17,663,-683,-649,717,985,893,732
380,790,409,-585,-14,600,-785,-868,429,717,736,629
336,639,302,-488,17,470,-854,-990,151,390,507,463
258,507,248,-383,4,378,-912,-1171,-229,29,263,302
170,424,253,-297,-41,339,-990,-1473,-712,-326,68,175
97,361,263,-229,-82,312,-1058,-1717,-1098,-570,-73,87
78,297,219,-187,-70,258,-1117,-1800,-1263,-673,-136,39
68,248,180,-158,-56,214,-1117,-1771,-1273,-702,-156,9
58,209,151,-134,-46,180,-1044,-1639,-1185,-663,-156,-9
58,190,131,-124,-36,161,-941,-1449,-1058,-610,-156,-34
43,161,117,-102,-36,139,-795,-1249,-936,-551,-165,-58
19,141,122,-80,-51,131,-649,-1029,-810,-497,-185,-97
9,141,131,-75,-61,136,-517,-844,-683,-444,-175,-107
19,161,141,-90,-61,151,-429,-683,-566,-356,-146,-87
24,161,136,-92,-56,148,-346,-541,-453,-278,-112,-68
