I,II,III,aVR,aVL,aVF,V1,V2,V3,V4,V5,V6
-29,-117,-87,73,29,-102,156,9,0,-107,-136,-107
-29,-117,-87,73,29,-102,156,9,0,-107,-136,-107
-29,-117,-87,73,29,-102,156,9,0,-107,-136,-107
-29,-117,-87,73,29,-102,156,9,0,-107,-136,-107
-19,-126,-107,73,43,-117,165,19,4,-107,-136,-107
-19,-126,-107,73,43,-117,165,19,9,-107,-136,-107
-19,-126,-107,73,43,-117,165,19,14,-107,-136,-107
-19,-126,-107,73,43,-117,165,19,19,-107,-136,-107
-19,-122,-102,70,41,-112,161,19,19,-97,-146,-117
-19,-117,-97,68,39,-107,156,19,19,-97,-146,-117
-19,-112,-92,65,36,-102,151,19,19,-97,-146,-117
-19,-107,-87,63,34,-97,146,19,19,-97,-146,-117
-9,-97,-87,53,39,-92,151,29,24,-97,-141,-107
-9,-97,-87,53,39,-92,156,29,29,-97,-136,-107
-9,-97,-87,53,39,-92,161,29,34,-97,-131,-107
-9,-97,-87,53,39,-92,165,29,39,-97,-126,-107
-9,-107,-97,58,43,-102,165,34,39,-82,-122,-97
-9,-107,-97,58,43,-102,165,39,39,-78,-117,-97
-9,-107,-97,58,43,-102,165,43,39,-73,-112,-97
-9,-107,-97,58,43,-102,165,48,39,-68,-107,-97
-9,-97,-87,53,39,-92,175,53,43,-58,-97,-97
-9,-97,-87,53,39,-92,175,58,48,-58,-97,-97
-9,-97,-87,53,39,-92,175,63,53,-58,-97,-97
-9,-97,-87,53,39,-92,175,68,58,-58,-97,-97
0,-87,-87,43,43,-87,175,78,63,-53,-92,-97
0,-87,-87,43,43,-87,175,78,68,-48,-87,-97
0,-87,-87,43,43,-87,175,78,73,-43,-82,-97
0,-87,-87,43,43,-87,175,78,78,-39,-78,-97
14,-68,-82,26,48,-75,180,92,92,-24,-68,-82
19,-58,-78,19,48,-68,185,97,97,-19,-68,-78
24,-48,-73,12,48,-61,190,102,102,-14,-68,-73
29,-39,-68,4,48,-53,195,107,107,-9,-68,-68
29,-39,-68,4,48,-53,185,122,117,-4,-53,-68
29,-39,-68,4,48,-53,185,126,117,0,-48,-68
29,-39,-68,4,48,-53,185,131,117,4,-43,-68
29,-39,-68,4,48,-53,185,136,117,9,-39,-68
29,-29,-58,0,43,-43,195,141,131,14,-39,-58
29,-29,-58,0,43,-43,195,146,136,19,-39,-58
29,-29,-58,0,43,-43,195,151,141,24,-39,-58
29,-29,-58,0,43,-43,195,156,146,29,-39,-58
29,-19,-48,-4,39,-34,204,170,156,43,-24,-48
29,-19,-48,-4,39,-34,204,175,165,48,-19,-48
29,-19,-48,-4,39,-34,204,180,175,53,-14,-48
29,-19,-48,-4,39,-34,204,185,185,58,-9,-48
39,-4,-43,-17,41,-24,219,204,204,78,0,-34
39,0,-39,-19,39,-19,224,214,214,87,9,-29
39,4,-34,-21,36,-14,229,224,224,97,19,-24
39,9,-29,-24,34,-9,234,234,234,107,29,-19
43,24,-19,-34,31,2,244,244,248,126,43,-9
48,29,-19,-39,34,4,244,253,263,136,48,-9
53,34,-19,-43,36,7,244,263,278,146,53,-9
58,39,-19,-48,39,9,244,273,292,156,58,-9
58,58,0,-58,29,29,253,283,312,170,68,4
58,68,9,-63,24,39,253,292,322,185,78,9
58,78,19,-68,19,48,253,302,331,200,87,14
58,87,29,-73,14,58,253,312,341,214,97,19
63,107,43,-85,9,75,263,331,356,239,112,29
68,117,48,-92,9,82,263,341,370,253,126,39
73,126,53,-100,9,90,263,351,385,268,141,48
78,136,58,-107,9,97,263,361,400,283,156,58
82,156,73,-119,4,114,263,366,409,307,165,68
87,165,78,-126,4,122,263,370,419,322,175,78
92,175,82,-134,4,129,263,375,429,336,185,87
97,185,87,-141,4,136,263,380,439,351,195,97
87,195,107,-141,-9,151,273,390,448,356,204,107
87,195,107,-141,-9,151,273,390,448,361,214,117
87,195,107,-141,-9,151,273,390,448,366,224,126
87,195,107,-141,-9,151,273,390,448,370,234,136
102,204,102,-153,0,153,268,380,448,385,248,141
107,214,107,-161,0,161,263,380,448,390,253,146
112,224,112,-168,0,168,258,380,448,395,258,151
117,234,117,-175,0,175,253,380,448,400,263,156
126,234,107,-180,9,170,253,370,444,400,273,156
126,234,107,-180,9,170,253,370,439,400,273,156
126,234,107,-180,9,170,253,370,434,400,273,156
126,234,107,-180,9,170,253,370,429,400,273,156
122,229,107,-175,7,168,239,361,409,395,268,156
117,224,107,-170,4,165,234,351,400,390,263,156
112,219,107,-165,2,163,229,341,390,385,258,156
107,214,107,-161,0,161,224,331,380,380,253,156
102,195,92,-148,4,143,224,322,370,370,248,146
97,185,87,-141,4,136,224,312,361,361,244,146
92,175,82,-134,4,129,224,302,351,351,239,146
87,165,78,-126,4,122,224,292,341,341,234,146
87,180,92,-134,-2,136,209,278,326,326,224,136
87,185,97,-136,-4,141,204,263,312,312,214,126
87,190,102,-139,-7,146,200,248,297,297,204,117
87,195,107,-141,-9,151,195,234,283,283,195,107
78,175,97,-126,-9,136,185,209,253,258,180,92
78,156,78,-117,0,117,185,195,234,244,165,87
78,136,58,-107,9,97,185,180,214,229,151,82
78,117,39,-97,19,78,185,165,195,214,136,78
63,102,39,-82,12,70,180,151,180,195,122,68
58,87,29,-73,14,58,175,136,165,175,107,58
53,73,19,-63,17,46,170,122,151,156,92,48
48,58,9,-53,19,34,165,107,136,136,78,39
48,53,4,-51,21,29,165,92,122,122,68,24
48,48,0,-48,24,24,165,87,107,107,58,19
48,43,-4,-46,26,19,165,82,92,92,48,14
48,39,-9,-43,29,14,165,78,78,78,39,9
39,24,-14,-31,26,4,161,68,58,63,19,-4
39,19,-19,-29,29,0,156,58,48,48,9,-9
39,14,-24,-26,31,-4,151,48,39,34,0,-14
39,9,-29,-24,34,-9,146,39,29,19,-9,-19
29,-4,-34,-12,31,-19,136,24,9,0,-19,-34
29,-9,-39,-9,34,-24,136,19,0,-9,-29,-39
29,-14,-43,-7,36,-29,136,14,-9,-19,-39,-43
29,-19,-48,-4,39,-34,136,9,-19,-29,-48,-48
39,-29,-68,-4,53,-48,146,-4,-24,-39,-53,-58
39,-29,-68,-4,53,-48,146,-9,-29,-39,-58,-58
39,-29,-68,-4,53,-48,146,-14,-34,-39,-63,-58
39,-29,-68,-4,53,-48,146,-19,-39,-39,-68,-58
24,-34,-58,4,41,-46,136,-19,-43,-53,-73,-63
19,-39,-58,9,39,-48,136,-19,-48,-58,-78,-68
14,-43,-58,14,36,-51,136,-19,-53,-63,-82,-73
9,-48,-58,19,34,-53,136,-19,-58,-68,-87,-78
9,-48,-58,19,34,-53,126,-24,-63,-73,-97,-78
9,-48,-58,19,34,-53,126,-29,-68,-78,-97,-78
9,-48,-58,19,34,-53,126,-34,-73,-82,-97,-78
9,-48,-58,19,34,-53,126,-39,-78,-87,-97,-78
4,-53,-58,24,31,-56,117,-43,-87,-87,-107,-82
0,-58,-58,29,29,-58,117,-48,-87,-87,-107,-87
-4,-63,-58,34,26,-61,117,-53,-87,-87,-107,-92
-9,-68,-58,39,24,-63,117,-58,-87,-87,-107,-97
4,-78,-82,36,43,-80,117,-48,-87,-97,-97,-87
9,-78,-87,34,48,-82,117,-48,-87,-97,-97,-87
14,-78,-92,31,53,-85,117,-48,-87,-97,-97,-87
19,-78,-97,29,58,-87,117,-48,-87,-97,-97,-87
9,-73,-82,31,46,-78,117,-58,-92,-97,-107,-87
9,-68,-78,29,43,-73,117,-58,-97,-97,-107,-87
9,-63,-73,26,41,-68,117,-58,-102,-97,-107,-87
9,-58,-68,24,39,-63,117,-58,-107,-97,-107,-87
0,-63,-63,31,31,-63,117,-58,-107,-107,-117,-97
0,-68,-68,34,34,-68,117,-58,-107,-107,-117,-97
0,-73,-73,36,36,-73,117,-58,-107,-107,-117,-97
0,-78,-78,39,39,-78,117,-58,-107,-107,-117,-97
9,-78,-87,34,48,-82,117,-58,-117,-117,-117,-97
9,-78,-87,34,48,-82,117,-58,-117,-117,-117,-97
9,-78,-87,34,48,-82,117,-58,-117,-117,-117,-97
9,-78,-87,34,48,-82,117,-58,-117,-117,-117,-97
0,-78,-78,39,39,-78,117,-58,-117,-117,-126,-97
0,-78,-78,39,39,-78,117,-58,-117,-117,-126,-97
0,-78,-78,39,39,-78,117,-58,-117,-117,-126,-97
0,-78,-78,39,39,-78,117,-58,-117,-117,-126,-97
9,-78,-87,34,48,-82,126,-58,-126,-122,-136,-97
9,-78,-87,34,48,-82,126,-58,-126,-126,-136,-97
9,-78,-87,34,48,-82,126,-58,-126,-131,-136,-97
9,-78,-87,34,48,-82,126,-58,-126,-136,-136,-97
0,-68,-68,34,34,-68,136,-53,-122,-131,-126,-97
0,-68,-68,34,34,-68,136,-48,-117,-126,-126,-97
0,-68,-68,34,34,-68,136,-43,-112,-122,-126,-97
0,-68,-68,34,34,-68,136,-39,-107,-117,-126,-97
0,-68,-68,34,34,-68,136,-39,-107,-107,-126,-97
0,-68,-68,34,34,-68,136,-39,-107,-107,-126,-97
0,-68,-68,34,34,-68,136,-39,-107,-107,-126,-97
0,-68,-68,34,34,-68,136,-39,-107,-107,-126,-97
0,-68,-68,34,34,-68,146,-29,-102,-97,-126,-97
0,-68,-68,34,34,-68,146,-29,-97,-97,-126,-97
0,-68,-68,34,34,-68,146,-29,-92,-97,-126,-97
0,-68,-68,34,34,-68,146,-29,-87,-97,-126,-97
0,-63,-63,31,31,-63,136,-29,-87,-102,-136,-97
0,-58,-58,29,29,-58,136,-29,-87,-107,-136,-97
0,-53,-53,26,26,-53,136,-29,-87,-112,-136,-97
0,-48,-48,24,24,-48,136,-29,-87,-117,-136,-97
-9,-53,-43,31,17,-48,141,-24,-82,-102,-122,-87
-9,-58,-48,34,19,-53,146,-19,-78,-97,-117,-87
-9,-63,-53,36,21,-58,151,-14,-73,-92,-112,-87
-9,-68,-58,39,24,-63,156,-9,-68,-87,-107,-87
-19,-78,-58,48,19,-68,156,-9,-68,-87,-117,-97
-19,-78,-58,48,19,-68,156,-9,-68,-87,-117,-97
-19,-78,-58,48,19,-68,156,-9,-68,-87,-117,-97
-19,-78,-58,48,19,-68,156,-9,-68,-87,-117,-97
-14,-58,-43,36,14,-51,156,0,-58,-78,-107,-87
-9,-48,-39,29,14,-43,156,0,-58,-78,-107,-87
-4,-39,-34,21,14,-36,156,0,-58,-78,-107,-87
0,-29,-29,14,14,-29,156,0,-58,-78,-107,-87
9,-29,-39,9,24,-34,156,9,-53,-68,-102,-78
9,-29,-39,9,24,-34,156,9,-48,-68,-97,-78
9,-29,-39,9,24,-34,156,9,-43,-68,-92,-78
9,-29,-39,9,24,-34,156,9,-39,-68,-87,-78
0,-29,-29,14,14,-29,156,0,-39,-58,-87,-78
0,-29,-29,14,14,-29,156,0,-39,-58,-87,-78
0,-29,-29,14,14,-29,156,0,-39,-58,-87,-78
0,-29,-29,14,14,-29,156,0,-39,-58,-87,-78
9,-29,-39,9,24,-34,156,0,-39,-48,-87,-78
9,-29,-39,9,24,-34,156,0,-39,-48,-87,-78
9,-29,-39,9,24,-34,156,0,-39,-48,-87,-78
9,-29,-39,9,24,-34,156,0,-39,-48,-87,-78
0,-29,-29,14,14,-29,146,0,-48,-53,-87,-68
0,-29,-29,14,14,-29,146,0,-48,-58,-87,-68
0,-29,-29,14,14,-29,146,0,-48,-63,-87,-68
0,-29,-29,14,14,-29,146,0,-48,-68,-87,-68
4,-29,-34,12,19,-31,146,0,-48,-53,-78,-58
9,-29,-39,9,24,-34,146,0,-48,-48,-78,-58
14,-29,-43,7,29,-36,146,0,-48,-43,-78,-58
19,-29,-48,4,34,-39,146,0,-48,-39,-78,-58
19,-19,-39,0,29,-29,146,0,-58,-43,-87,-58
19,-19,-39,0,29,-29,146,0,-58,-48,-87,-58
19,-19,-39,0,29,-29,146,0,-58,-53,-87,-58
19,-19,-39,0,29,-29,146,0,-58,-58,-87,-58
29,-9,-39,-9,34,-24,156,0,-58,-48,-78,-48
29,-9,-39,-9,34,-24,156,0,-58,-48,-78,-48
29,-9,-39,-9,34,-24,156,0,-58,-48,-78,-48
29,-9,-39,-9,34,-24,156,0,-58,-48,-78,-48
29,-14,-43,-7,36,-29,146,0,-58,-58,-82,-58
29,-19,-48,-4,39,-34,146,0,-58,-58,-87,-58
29,-24,-53,-2,41,-39,146,0,-58,-58,-92,-58
29,-29,-58,0,43,-43,146,0,-58,-58,-97,-58
19,-19,-39,0,29,-29,146,0,-68,-58,-87,-48
19,-19,-39,0,29,-29,146,0,-68,-58,-87,-48
19,-19,-39,0,29,-29,146,0,-68,-58,-87,-48
19,-19,-39,0,29,-29,146,0,-68,-58,-87,-48
24,-9,-34,-7,29,-21,146,-9,-68,-58,-87,-48
29,-9,-39,-9,34,-24,146,-9,-68,-58,-87,-48
34,-9,-43,-12,39,-26,146,-9,-68,-58,-87,-48
39,-9,-48,-14,43,-29,146,-9,-68,-58,-87,-48
24,-24,-48,0,36,-36,136,-9,-73,-68,-97,-58
19,-29,-48,4,34,-39,136,-9,-78,-68,-97,-58
14,-34,-48,9,31,-41,136,-9,-82,-68,-97,-58
9,-39,-48,14,29,-43,136,-9,-87,-68,-97,-58
14,-24,-39,4,26,-31,146,-19,-87,-78,-97,-58
19,-19,-39,0,29,-29,146,-19,-87,-78,-97,-58
24,-14,-39,-4,31,-26,146,-19,-87,-78,-97,-58
29,-9,-39,-9,34,-24,146,-19,-87,-78,-97,-58
24,-24,-48,0,36,-36,136,-9,-78,-63,-87,-68
19,-29,-48,4,34,-39,136,-9,-78,-58,-87,-68
14,-34,-48,9,31,-41,136,-9,-78,-53,-87,-68
9,-39,-48,14,29,-43,136,-9,-78,-48,-87,-68
0,-48,-48,24,24,-48,136,-14,-82,-53,-102,-58
0,-48,-48,24,24,-48,136,-19,-87,-58,-107,-58
0,-48,-48,24,24,-48,136,-24,-92,-63,-112,-58
0,-48,-48,24,24,-48,136,-29,-97,-68,-117,-58
9,-39,-48,14,29,-43,146,-24,-87,-78,-107,-68
9,-39,-48,14,29,-43,146,-19,-87,-78,-107,-68
9,-39,-48,14,29,-43,146,-14,-87,-78,-107,-68
9,-39,-48,14,29,-43,146,-9,-87,-78,-107,-68
0,-48,-48,24,24,-48,136,-14,-92,-87,-107,-58
0,-48,-48,24,24,-48,136,-19,-97,-87,-107,-58
0,-48,-48,24,24,-48,136,-24,-102,-87,-107,-58
0,-48,-48,24,24,-48,136,-29,-107,-87,-107,-58
4,-43,-48,19,26,-46,136,-19,-97,-78,-97,-58
9,-39,-48,14,29,-43,136,-19,-97,-78,-97,-58
14,-34,-48,9,31,-41,136,-19,-97,-78,-97,-58
19,-29,-48,4,34,-39,136,-19,-97,-78,-97,-58
19,-39,-58,9,39,-48,136,-19,-107,-78,-97,-68
19,-39,-58,9,39,-48,136,-19,-107,-78,-97,-68
19,-39,-58,9,39,-48,136,-14,-102,-73,-102,-73
19,-24,-43,2,31,-34,141,-14,-102,-73,-102,-78
29,-19,-48,-4,39,-34,141,-14,-92,-68,-102,-78
29,-19,-48,-4,39,-34,141,-14,-92,-68,-102,-73
24,-14,-39,-4,31,-26,141,-14,-92,-63,-102,-63
24,-9,-34,-7,29,-21,151,-4,-82,-53,-92,-48
19,-9,-29,-4,24,-19,156,-9,-78,-34,-82,-39
19,9,-9,-14,14,0,165,-9,-73,-34,-82,-29
24,19,-4,-21,14,7,170,-9,-68,-34,-78,-29
24,34,9,-29,7,21,170,-4,-63,-29,-73,-24
14,39,24,-26,-4,31,180,9,-68,-24,-82,-34
19,39,19,-29,0,29,185,9,-68,-24,-82,-34
19,43,24,-31,-2,34,185,14,-58,-19,-73,-24
19,43,24,-31,-2,34,190,19,-48,-9,-68,-24
34,68,34,-51,0,51,200,9,-48,-9,-68,-14
39,82,43,-61,-2,63,200,19,-43,-9,-68,-9
48,87,39,-68,4,63,200,19,-34,-9,-53,-4
53,97,43,-75,4,70,200,14,-34,-9,-53,0
48,102,53,-75,-2,78,185,19,-29,4,-58,-4
43,97,53,-70,-4,75,180,19,-29,9,-48,-4
43,92,48,-68,-2,70,175,19,-29,9,-39,-4
43,82,39,-63,2,61,175,19,-24,9,-39,-9
43,73,29,-58,7,51,180,19,-34,9,-34,-9
43,63,19,-53,12,41,175,19,-34,9,-34,-4
48,63,14,-56,17,39,170,14,-39,9,-34,0
48,68,19,-58,14,43,156,4,-39,4,-34,9
43,87,43,-65,0,65,136,-9,-58,-9,-39,0
43,97,53,-70,-4,75,126,-14,-63,-9,-43,0
43,97,53,-70,-4,75,117,-19,-68,-14,-58,-9
29,82,53,-56,-12,68,107,-29,-73,-19,-68,-14
34,53,19,-43,7,36,107,-43,-87,-24,-73,-34
24,43,19,-34,2,31,107,-48,-97,-24,-73,-34
34,63,29,-48,2,46,112,-48,-97,-24,-68,-19
48,68,19,-58,14,43,112,-43,-97,-29,-68,-14
39,78,39,-58,0,58,107,-34,-97,-39,-58,-14
39,68,29,-53,4,48,107,-29,-92,-34,-58,-14
48,68,19,-58,14,43,107,-19,-92,-24,-48,-9
63,82,19,-73,21,51,112,-19,-92,-24,-48,-9
73,73,0,-73,36,36,122,-19,-87,-19,-48,0
68,53,-14,-61,41,19,107,-24,-92,-24,-48,4
63,34,-29,-48,46,2,107,-29,-102,-24,-58,0
58,19,-39,-39,48,-9,107,-34,-97,-34,-63,-4
43,14,-29,-29,36,-7,107,-34,-112,-34,-68,-14
43,-4,-48,-19,46,-26,107,-34,-117,-39,-73,-24
43,-9,-53,-17,48,-31,107,-34,-122,-53,-82,-29
29,-24,-53,-2,41,-39,107,-39,-131,-63,-92,-34
34,-39,-73,2,53,-56,107,-43,-122,-68,-102,-34
34,-39,-73,2,53,-56,112,-43,-122,-68,-107,-43
24,-24,-48,0,36,-36,122,-39,-122,-68,-112,-43
19,-48,-68,14,43,-58,126,-34,-122,-68,-112,-48
4,-73,-78,34,41,-75,117,-34,-141,-78,-107,-53
0,-73,-73,36,36,-73,117,-34,-141,-82,-107,-53
-4,-73,-68,39,31,-70,117,-34,-141,-82,-107,-53
-9,-68,-58,39,24,-63,117,-39,-141,-82,-117,-58
-9,-73,-63,41,26,-68,126,-29,-141,-73,-117,-63
-14,-87,-73,51,29,-80,122,-29,-141,-78,-122,-68
-14,-92,-78,53,31,-85,122,-34,-136,-78,-122,-73
-14,-97,-82,56,34,-90,122,-34,-136,-78,-126,-73
-19,-97,-78,58,29,-87,112,-48,-146,-102,-141,-87
-19,-97,-78,58,29,-87,112,-48,-161,-107,-146,-97
-19,-92,-73,56,26,-82,112,-53,-165,-112,-151,-97
-19,-87,-68,53,24,-78,112,-53,-165,-117,-156,-97
-4,-78,-73,41,34,-75,126,-39,-156,-112,-151,-78
0,-92,-92,46,46,-92,126,-39,-156,-112,-151,-78
0,-92,-92,46,46,-92,126,-39,-156,-112,-151,-78
4,-78,-82,36,43,-80,126,-39,-156,-112,-146,-78
14,-87,-102,36,58,-95,131,-24,-156,-102,-136,-87
0,-97,-97,48,48,-97,131,-24,-161,-102,-136,-92
-4,-102,-97,53,46,-100,131,-29,-161,-107,-141,-92
-9,-102,-92,56,41,-97,131,-29,-161,-107,-146,-97
-9,-97,-87,53,39,-92,122,-29,-151,-92,-146,-87
-9,-97,-87,53,39,-92,122,-24,-146,-92,-146,-87
-9,-97,-87,53,39,-92,122,-24,-146,-92,-146,-87
-19,-97,-78,58,29,-87,122,-24,-146,-87,-146,-82
-14,-97,-82,56,34,-90,122,-34,-156,-97,-146,-92
-4,-97,-92,51,43,-95,117,-34,-156,-92,-141,-92
-4,-97,-92,51,43,-95,117,-34,-161,-92,-141,-92
-19,-97,-78,58,29,-87,117,-39,-161,-97,-141,-102
-14,-97,-82,56,34,-90,122,-29,-161,-92,-146,-78
-9,-97,-87,53,39,-92,126,-29,-161,-97,-146,-87
-4,-92,-87,48,41,-90,126,-19,-156,-97,-146,-87
0,-92,-92,46,46,-92,126,-14,-156,-97,-146,-87
-9,-97,-87,53,39,-92,126,-19,-146,-92,-136,-78
0,-87,-87,43,43,-87,146,14,-122,-82,-126,-78
9,-68,-78,29,43,-73,165,68,-73,-48,-112,-78
29,-29,-58,0,43,-43,190,146,9,29,-87,-63
53,-9,-63,-21,58,-36,219,239,112,102,-29,-19
63,29,-34,-46,48,-2,234,307,190,165,34,24
92,82,-9,-87,51,36,239,361,278,297,141,92
141,122,-19,-131,80,51,239,351,336,448,263,156
195,165,-29,-180,112,68,200,278,326,566,390,248
268,263,-4,-265,136,129,170,195,307,712,570,375
326,366,39,-346,143,202,97,92,297,932,795,531
336,458,122,-397,107,290,-9,-68,244,1102,1000,688
370,551,180,-461,95,366,-97,-248,156,1210,1137,785
434,658,224,-546,104,441,-204,-424,68,1327,1298,893
488,741,253,-614,117,497,-380,-624,-24,1444,1473,1058
541,810,268,-675,136,539,-610,-854,-180,1468,1590,1195
595,844,248,-719,173,546,-854,-1102,-370,1385,1605,1278
575,844,268,-710,153,556,-1029,-1302,-546,1229,1512,1278
527,790,263,-658,131,527,-1122,-1405,-688,1019,1351,1210
512,619,107,-566,202,363,-1156,-1405,-805,756,1112,1063
507,395,-112,-451,309,141,-1156,-1361,-912,478,868,902
468,307,-161,-387,314,73,-1088,-1337,-985,239,644,780
409,273,-136,-341,273,68,-990,-1268,-1024,24,439,683
361,175,-185,-268,273,-4,-863,-1171,-1034,-200,209,551
292,102,-190,-197,241,-43,-717,-1024,-976,-317,48,439
248,92,-156,-170,202,-31,-566,-844,-834,-292,-4,366
234,112,-122,-173,178,-4,-439,-692,-722,-253,-34,307
214,112,-102,-163,158,4,-356,-600,-653,-258,-82,234
151,78,-73,-114,112,2,-268,-507,-585,-253,-131,165
53,-9,-63,-21,58,-36,-190,-419,-527,-263,-190,82
4,-82,-87,39,46,-85,-136,-351,-463,-263,-219,19
34,-68,-102,17,68,-85,-53,-248,-361,-209,-209,0
43,-58,-102,7,73,-80,14,-151,-268,-151,-180,-34
-4,-92,-87,48,41,-90,63,-97,-224,-126,-185,-78
0,-97,-97,48,48,-97,92,-73,-209,-117,-185,-78
9,-82,-92,36,51,-87,107,-43,-219,-117,-185,-58
0,-107,-107,53,53,-107,112,-29,-204,-117,-185,-68
-4,-122,-117,63,56,-119,122,-19,-195,-122,-190,-82
-19,-131,-112,75,46,-122,122,-19,-190,-126,-204,-87
-19,-146,-126,82,53,-136,122,-19,-180,-126,-204,-97
-19,-146,-126,82,53,-136,136,-9,-165,-131,-200,-107
-19,-146,-126,82,53,-136,141,-4,-161,-131,-200,-107
-29,-146,-117,87,43,-131,141,4,-161,-126,-200,-112
-29,-136,-107,82,39,-122,156,24,-161,-126,-195,-117
-39,-146,-107,92,34,-126,161,19,-170,-136,-204,-107
-39,-146,-107,92,34,-126,165,24,-161,-141,-209,-117
-34,-141,-107,87,36,-124,165,24,-156,-141,-219,-107
-34,-136,-102,85,34,-119,161,24,-151,-141,-209,-102
-29,-126,-97,78,34,-112,170,34,-141,-122,-200,-112
-24,-136,-112,80,43,-124,170,34,-131,-117,-200,-117
-19,-126,-107,73,43,-117,175,34,-126,-102,-195,-117
-9,-126,-117,68,53,-122,175,48,-122,-92,-185,-107
-19,-141,-122,80,51,-131,170,53,-126,-102,-180,-107
-34,-136,-102,85,34,-119,170,48,-131,-107,-185,-107
-43,-131,-87,87,21,-109,170,48,-136,-117,-190,-107
-53,-136,-82,95,14,-109,170,43,-131,-122,-195,-107
-48,-131,-82,90,17,-107,170,53,-117,-107,-195,-102
-43,-131,-87,87,21,-109,170,53,-117,-102,-190,-97
-34,-131,-97,82,31,-114,170,53,-117,-97,-175,-92
-29,-131,-102,80,36,-117,175,53,-117,-87,-170,-87
-39,-126,-87,82,24,-107,175,63,-117,-78,-170,-92
-29,-117,-87,73,29,-102,180,73,-117,-78,-170,-92
-9,-97,-87,53,39,-92,180,82,-107,-73,-156,-87
-24,-107,-82,65,29,-95,180,82,-107,-73,-156,-87
-53,-122,-68,87,7,-95,165,73,-117,-82,-170,-97
-53,-122,-68,87,7,-95,165,73,-107,-87,-175,-97
-39,-107,-68,73,14,-87,165,73,-102,-87,-175,-97
-39,-97,-58,68,9,-78,175,73,-102,-92,-175,-97
-34,-112,-78,73,21,-95,185,82,-92,-82,-161,-97
-34,-112,-78,73,21,-95,185,87,-92,-78,-156,-97
-29,-112,-82,70,26,-97,185,92,-92,-73,-156,-92
-24,-112,-87,68,31,-100,185,102,-87,-73,-151,-92
-29,-107,-78,68,24,-92,180,102,-87,-82,-161,-87
-24,-107,-82,65,29,-95,180,102,-73,-78,-151,-78
-24,-102,-78,63,26,-90,185,102,-73,-73,-151,-87
-29,-102,-73,65,21,-87,185,102,-73,-63,-151,-87
-29,-107,-78,68,24,-92,195,102,-63,-58,-146,-82
-24,-102,-78,63,26,-90,195,107,-58,-53,-136,-78
-14,-82,-68,48,26,-75,195,112,-53,-48,-126,-73
0,-73,-73,36,36,-73,195,112,-48,-43,-122,-68
-4,-73,-68,39,31,-70,185,122,-53,-48,-126,-78
-9,-82,-73,46,31,-78,185,122,-48,-53,-131,-68
-19,-92,-73,56,26,-82,185,122,-48,-58,-136,-58
-29,-102,-73,65,21,-87,185,126,-48,-63,-141,-68
-29,-97,-68,63,19,-82,190,131,-39,-48,-136,-78
-19,-87,-68,53,24,-78,195,131,-29,-39,-126,-63
-9,-78,-68,43,29,-73,195,136,-29,-34,-122,-63
-9,-73,-63,41,26,-68,195,141,-29,-29,-122,-68
-39,-63,-24,51,-7,-43,200,146,-24,-24,-122,-82
-43,-78,-34,61,-4,-56,200,146,-19,-24,-122,-82
-39,-78,-39,58,0,-58,200,151,-14,-24,-117,-82
-39,-78,-39,58,0,-58,204,156,-9,-24,-117,-82
-29,-87,-58,58,14,-73,214,165,0,-24,-107,-73
-34,-78,-43,56,4,-61,219,165,0,-14,-97,-53
-34,-78,-43,56,4,-61,224,180,9,-9,-97,-48
-34,-82,-48,58,7,-65,234,185,14,0,-92,-34
-24,-82,-58,53,17,-70,214,185,24,0,-97,-43
-24,-82,-58,53,17,-70,214,195,29,0,-97,-43
-24,-78,-53,51,14,-65,219,200,34,0,-92,-48
-9,-73,-63,41,26,-68,229,214,43,14,-87,-48
0,-58,-58,29,29,-58,244,219,53,24,-73,-29
0,-39,-39,19,19,-39,244,229,58,34,-63,-24
0,-39,-39,19,19,-39,244,239,68,43,-53,-24
0,-43,-43,21,21,-43,244,248,73,53,-53,-24
-9,-34,-24,21,7,-29,234,248,73,53,-58,-24
4,-24,-29,9,17,-26,244,263,87,63,-53,-19
4,-9,-14,2,9,-12,248,273,97,63,-53,-19
4,-9,-14,2,9,-12,248,283,117,68,-48,-14
19,0,-19,-9,19,-9,268,297,131,87,-39,-9
19,4,-14,-12,17,-4,268,302,141,97,-34,-4
19,9,-9,-14,14,0,268,322,151,107,-29,0
9,9,0,-9,4,4,273,326,161,117,-24,9
9,4,-4,-7,7,0,292,346,165,117,-9,19
9,24,14,-17,-2,19,292,346,185,122,9,29
24,34,9,-29,7,21,302,356,195,131,14,34
43,48,4,-46,19,26,302,375,209,146,24,39
29,63,34,-46,-2,48,297,375,219,151,19,34
24,68,43,-46,-9,56,307,385,224,161,29,39
24,68,43,-46,-9,56,307,400,244,185,39,48
39,87,48,-63,-4,68,307,414,263,209,53,63
48,122,73,-85,-12,97,317,429,287,229,68,68
48,122,73,-85,-12,97,322,444,307,234,82,68
43,122,78,-82,-17,100,336,463,317,248,97,73
68,131,63,-100,2,97,346,473,326,263,112,87
63,156,92,-109,-14,124,336,478,346,287,122,87
63,156,92,-109,-14,124,341,492,351,297,131,97
87,185,97,-136,-4,141,346,497,380,317,141,112
92,195,102,-143,-4,148,351,497,390,336,156,126
82,200,117,-141,-17,158,366,502,395,351,170,136
92,214,122,-153,-14,168,370,517,409,370,180,146
102,224,122,-163,-9,173,375,527,419,370,195,156
102,239,136,-170,-17,187,375,536,419,380,214,180
87,229,141,-158,-26,185,361,541,434,395,229,175
82,219,136,-151,-26,178,356,541,444,400,234,175
78,219,141,-148,-31,180,351,536,453,414,244,185
68,209,141,-139,-36,175,346,527,453,439,253,190
78,219,141,-148,-31,180,341,527,444,439,258,185
92,224,131,-158,-19,178,331,522,444,439,258,185
97,239,141,-168,-21,190,331,522,439,439,258,204
97,244,146,-170,-24,195,331,522,429,439,258,214
92,263,170,-178,-39,217,341,527,439,448,283,224
102,278,175,-190,-36,226,346,522,439,448,283,224
112,263,151,-187,-19,207,346,522,439,448,283,224
107,244,136,-175,-14,190,341,507,434,444,283,224
97,253,156,-175,-29,204,326,502,419,429,273,224
107,263,156,-185,-24,209,322,488,405,424,268,224
107,268,161,-187,-26,214,312,478,395,419,263,224
107,248,141,-178,-17,195,307,468,380,414,258,214
102,248,146,-175,-21,197,297,453,361,409,253,204
102,239,136,-170,-17,187,297,444,356,405,248,204
97,234,136,-165,-19,185,297,429,351,395,248,204
97,224,126,-161,-14,175,292,414,341,375,234,204
102,229,126,-165,-12,178,292,405,317,361,214,214
102,234,131,-168,-14,183,287,385,297,341,204,204
92,229,136,-161,-21,183,278,361,273,322,185,190
82,204,122,-143,-19,163,268,336,248,317,175,190
73,185,112,-129,-19,148,258,326,219,292,161,165
78,175,97,-126,-9,136,253,312,209,268,151,156
78,175,97,-126,-9,136,253,292,195,253,136,156
78,156,78,-117,0,117,248,278,185,219,126,146
68,141,73,-104,-2,107,234,263,165,209,117,136
58,126,68,-92,-4,97,229,239,146,195,107,131
58,117,58,-87,0,87,229,224,122,185,97,126
58,117,58,-87,0,87,224,209,102,180,82,126
48,97,48,-73,0,73,209,190,78,146,63,107
48,97,48,-73,0,73,209,175,63,131,43,97
48,92,43,-70,2,68,209,170,53,112,39,97
39,78,39,-58,0,58,195,165,43,87,29,97
39,68,29,-53,4,48,185,146,19,78,14,68
48,68,19,-58,14,43,185,136,4,68,0,63
48,68,19,-58,14,43,180,126,-4,58,-4,58
39,48,9,-43,14,29,180,112,-24,43,-14,58
19,29,9,-24,4,19,180,117,-29,34,-24,43
19,24,4,-21,7,14,180,102,-39,24,-34,29
14,9,-4,-12,9,2,180,97,-43,9,-39,29
4,0,-4,-2,4,-2,180,92,-53,4,-43,19
9,0,-9,-4,9,-4,180,82,-53,-4,-58,24
14,0,-14,-7,14,-7,180,78,-58,-4,-58,24
0,-4,-4,2,2,-4,170,68,-78,-9,-63,24
-4,-4,0,4,-2,-2,165,58,-92,-14,-68,24
4,-14,-19,4,12,-17,161,63,-92,-14,-68,29
0,-14,-14,7,7,-14,161,58,-97,-14,-68,29
0,-19,-19,9,9,-19,165,48,-102,-24,-73,14
0,-34,-34,17,17,-34,165,39,-107,-34,-78,9
-19,-34,-14,26,-2,-24,161,39,-102,-43,-92,0
-19,-29,-9,24,-4,-19,161,39,-107,-48,-92,0
-14,-24,-9,19,-2,-17,161,39,-112,-48,-87,0
-14,-19,-4,17,-4,-12,156,34,-112,-53,-87,0
-19,-29,-9,24,-4,-19,136,19,-126,-53,-97,-9
-19,-29,-9,24,-4,-19,136,19,-131,-53,-102,-9
-14,-19,-4,17,-4,-12,136,24,-131,-53,-102,4
-14,-34,-19,24,2,-26,136,24,-126,-53,-97,4
-24,-34,-9,29,-7,-21,151,24,-112,-43,-87,4
-24,-39,-14,31,-4,-26,156,24,-112,-39,-82,4
-24,-39,-14,31,-4,-26,156,24,-112,-34,-82,9
-24,-39,-14,31,-4,-26,156,19,-126,-34,-87,9
-14,-24,-9,19,-2,-17,146,9,-136,-39,-102,4
0,-19,-19,9,9,-19,146,9,-136,-43,-102,4
-9,-19,-9,14,0,-14,141,14,-136,-34,-102,-4
-19,-39,-19,29,0,-29,141,14,-136,-53,-102,-14
-9,-34,-24,21,7,-29,151,14,-126,-48,-102,-24
0,-29,-29,14,14,-29,165,19,-126,-48,-107,-9
0,-24,-24,12,12,-24,156,19,-136,-48,-107,-9
-9,-29,-19,19,4,-24,141,9,-146,-53,-112,-9
-24,-34,-9,29,-7,-21,131,9,-136,-73,-102,0
-19,-39,-19,29,0,-29,131,14,-141,-58,-107,0
-34,-48,-14,41,-9,-31,131,14,-141,-58,-107,-9
-39,-53,-14,46,-12,-34,136,9,-136,-63,-102,-9
-29,-48,-19,39,-4,-34,146,19,-131,-68,-97,4
-29,-48,-19,39,-4,-34,151,14,-131,-63,-97,-4
-29,-43,-14,36,-7,-29,156,14,-131,-58,-97,-9
-29,-43,-14,36,-7,-29,156,19,-131,-53,-102,-9
-14,-39,-24,26,4,-31,156,14,-122,-53,-102,-19
-4,-34,-29,19,12,-31,156,19,-117,-53,-102,4
0,-39,-39,19,19,-39,161,19,-117,-53,-102,4
-4,-19,-14,12,4,-17,161,14,-122,-48,-112,0
-19,-24,-4,21,-7,-14,161,4,-131,-53,-117,-9
-24,-19,4,21,-14,-7,156,4,-131,-58,-117,-9
-29,-39,-9,34,-9,-24,156,4,-131,-73,-122,-14
-34,-43,-9,39,-12,-26,165,4,-131,-78,-122,-19
-34,-34,0,34,-17,-17,165,14,-131,-58,-122,-29
-39,-34,4,36,-21,-14,165,19,-126,-58,-122,-19
-39,-39,0,39,-19,-19,165,19,-122,-63,-126,-19
-43,-39,4,41,-24,-17,165,19,-126,-63,-126,-24
-39,-34,4,36,-21,-14,165,29,-117,-73,-126,-24
-34,-39,-4,36,-14,-21,175,29,-117,-63,-117,-19
-29,-39,-9,34,-9,-24,180,39,-107,-53,-112,-19
-19,-29,-9,24,-4,-19,180,39,-107,-53,-112,-19
-19,-29,-9,24,-4,-19,190,43,-97,-48,-112,-19
-19,-19,0,19,-9,-9,190,43,-87,-48,-112,-29
-24,-34,-9,29,-7,-21,195,43,-82,-48,-102,-24
-24,-24,0,24,-12,-12,195,43,-82,-48,-102,-19
-14,-24,-9,19,-2,-17,185,34,-97,-58,-112,-19
-29,-24,4,26,-17,-9,185,34,-107,-63,-122,-14
-43,-39,4,41,-24,-17,180,34,-97,-63,-122,-9
-19,-29,-9,24,-4,-19,180,43,-97,-63,-122,-9
-19,-19,0,19,-9,-9,190,48,-82,-48,-117,-9
-19,-19,0,19,-9,-9,190,58,-82,-48,-112,-14
-34,-19,14,26,-24,-2,190,48,-82,-43,-112,-14
-34,-19,14,26,-24,-2,190,39,-82,-43,-117,-14
-19,-14,4,17,-12,-4,190,58,-87,-43,-117,-14
-19,-14,4,17,-12,-4,185,63,-87,-43,-112,0
-19,-9,9,14,-14,0,185,73,-87,-43,-102,0
-14,-4,9,9,-12,2,185,63,-78,-39,-97,0
-24,-14,9,19,-17,-2,195,53,-78,-39,-97,0
-14,-19,-4,17,-4,-12,195,53,-78,-39,-107,0
-24,-19,4,21,-14,-7,195,53,-78,-39,-107,0
-34,0,34,17,-34,17,195,53,-82,-34,-102,0
-24,0,24,12,-24,12,185,53,-73,-24,-102,-14
-19,-4,14,12,-17,4,190,58,-73,-24,-102,-14
-14,-14,0,14,-7,-7,195,68,-58,-14,-92,-4
-9,0,9,4,-9,4,195,73,-58,-14,-92,-4
0,19,19,-9,-9,19,204,73,-63,-14,-82,4
14,24,9,-19,2,17,200,78,-58,-14,-82,4
4,29,24,-17,-9,26,200,78,-53,-9,-73,0
0,24,24,-12,-12,24,200,73,-48,0,-73,0
-4,4,9,0,-7,7,190,63,-58,-9,-78,4
-9,9,19,0,-14,14,185,63,-63,-9,-78,14
-9,9,19,0,-14,14,185,58,-68,-19,-78,14
-14,-9,4,12,-9,-2,185,58,-68,-19,-73,9
-4,-9,-4,7,0,-7,185,73,-63,-14,-73,4
-4,-4,0,4,-2,-2,180,73,-63,-9,-82,4
0,-9,-9,4,4,-9,180,68,-63,-9,-82,9
14,9,-4,-12,9,2,180,68,-63,-14,-82,9
4,9,4,-7,0,7,180,68,-63,-9,-68,14
4,0,-4,-2,4,-2,180,68,-63,-9,-63,14
4,0,-4,-2,4,-2,180,68,-58,-9,-63,4
4,0,-4,-2,4,-2,180,68,-58,-9,-63,4
-4,-19,-14,12,4,-17,180,73,-58,-4,-73,14
-9,-19,-9,14,0,-14,180,68,-63,-9,-73,19
-9,-14,-4,12,-2,-9,185,68,-58,-9,-73,24
4,-4,-9,0,7,-7,185,73,-63,-9,-78,24
19,0,-19,-9,19,-9,180,63,-63,-9,-68,14
19,0,-19,-9,19,-9,175,58,-73,-14,-68,14
9,-4,-14,-2,12,-9,175,58,-78,-19,-68,14
0,-4,-4,2,2,-4,170,58,-82,-19,-73,14
9,0,-9,-4,9,-4,180,58,-82,-24,-82,14
14,4,-9,-9,12,-2,185,58,-78,-24,-82,14
19,4,-14,-12,17,-4,185,63,-78,-29,-82,24
19,9,-9,-14,14,0,185,63,-82,-29,-82,24
19,9,-9,-14,14,0,175,58,-82,-24,-78,19
14,4,-9,-9,12,-2,175,53,-82,-24,-78,19
9,4,-4,-7,7,0,165,43,-82,-34,-73,9
9,9,0,-9,4,4,165,43,-87,-43,-73,9
9,9,0,-9,4,4,156,34,-97,-53,-73,9
14,9,-4,-12,9,2,156,39,-97,-48,-78,24
14,0,-14,-7,14,-7,151,39,-97,-48,-82,24
9,0,-9,-4,9,-4,151,34,-102,-53,-97,24
9,9,0,-9,4,4,161,39,-97,-48,-92,24
9,4,-4,-7,7,0,161,43,-97,-39,-87,9
9,0,-9,-4,9,-4,161,48,-97,-34,-87,4
19,0,-19,-9,19,-9,161,48,-97,-29,-82,4
29,24,-4,-26,17,9,175,48,-87,-43,-78,19
34,29,-4,-31,19,12,175,48,-92,-43,-78,24
29,29,0,-29,14,14,175,48,-97,-34,-82,24
34,34,0,-34,17,17,170,48,-102,-34,-82,14
19,14,-4,-17,12,4,161,39,-102,-43,-92,4
14,-9,-24,-2,19,-17,161,39,-107,-48,-92,4
9,-29,-39,9,24,-34,161,43,-107,-48,-92,9
9,-19,-29,4,19,-24,161,43,-97,-53,-92,9
0,4,4,-2,-2,4,151,29,-107,-43,-92,19
0,-4,-4,2,2,-4,146,29,-107,-43,-87,14
0,-4,-4,2,2,-4,146,29,-112,-53,-87,14
0,-4,-4,2,2,-4,146,29,-112,-39,-87,19
0,-14,-14,7,7,-14,151,29,-107,-48,-87,29
4,-14,-19,4,12,-17,151,34,-112,-48,-87,24
4,-29,-34,12,19,-31,151,39,-112,-53,-87,9
0,-29,-29,14,14,-29,151,39,-117,-58,-87,4
-4,-14,-9,9,2,-12,151,39,-112,-48,-78,9
9,0,-9,-4,9,-4,151,39,-102,-34,-73,9
29,14,-14,-21,21,0,151,43,-87,-19,-63,14
24,4,-19,-14,21,-7,151,43,-82,0,-73,14
-29,-34,-4,31,-12,-19,131,29,-112,-48,-97,4
-9,0,9,4,-9,4,136,29,-117,-68,-97,9
4,0,-4,-2,4,-2,136,29,-107,-63,-87,14
9,0,-9,-4,9,-4,136,29,-107,-58,-87,19
14,0,-14,-7,14,-7,136,29,-107,-53,-87,24
19,0,-19,-9,19,-9,136,29,-107,-48,-87,29
9,-4,-14,-2,12,-9,126,39,-107,-39,-78,19
9,-9,-19,0,14,-14,126,43,-102,-34,-82,14
9,0,-9,-4,9,-4,131,43,-102,-34,-82,9
9,-4,-14,-2,12,-9,131,43,-102,-39,-82,4
0,0,0,0,0,0,131,34,-102,-29,-82,4
-4,0,4,2,-4,2,131,34,-102,-24,-82,9
-4,0,4,2,-4,2,141,43,-92,-14,-73,19
0,9,9,-4,-4,9,146,48,-87,-4,-63,29
0,34,34,-17,-17,34,165,48,-82,-14,-53,39
4,48,43,-26,-19,46,170,48,-78,-14,-48,39
4,68,63,-36,-29,65,170,53,-73,-9,-43,43
4,87,82,-46,-39,85,180,58,-68,-4,-43,43
14,78,63,-46,-24,70,185,68,-58,0,-43,53
19,82,63,-51,-21,73,185,73,-48,9,-34,63
24,82,58,-53,-17,70,190,78,-39,24,-29,63
29,92,63,-61,-17,78,190,78,-39,39,-29,68
24,97,73,-61,-24,85,180,78,-43,29,-29,68
24,92,68,-58,-21,80,180,78,-34,29,-14,68
19,92,73,-56,-26,82,180,73,-34,29,-14,68
14,97,82,-56,-34,90,175,68,-39,34,-29,68
24,102,78,-63,-26,90,180,78,-29,48,-19,73
29,107,78,-68,-24,92,175,78,-29,48,-9,78
34,107,73,-70,-19,90,175,78,-24,48,-9,78
34,112,78,-73,-21,95,170,78,-24,48,-14,73
29,92,63,-61,-17,78,156,68,-29,39,-24,68
29,92,63,-61,-17,78,151,63,-39,39,-24,63
24,97,73,-61,-24,85,136,53,-43,34,-24,63
24,107,82,-65,-29,95,131,48,-58,29,-24,58
14,102,87,-58,-36,95,126,43,-63,19,-24,58
14,97,82,-56,-34,90,122,39,-68,14,-34,48
0,78,78,-39,-39,78,117,29,-73,9,-39,43
-4,53,58,-24,-31,56,112,14,-87,4,-43,34
0,48,48,-24,-24,48,107,9,-97,4,-43,43
14,73,58,-43,-21,65,107,9,-97,4,-39,58
34,82,48,-58,-7,65,102,14,-97,0,-39,63
39,87,48,-63,-4,68,97,14,-97,0,-39,63
39,82,43,-61,-2,63,97,29,-82,4,-39,63
48,87,39,-68,4,63,97,39,-82,14,-29,68
63,107,43,-85,9,75,102,39,-82,14,-29,68
63,112,48,-87,7,80,102,39,-82,14,-29,73
48,78,29,-63,9,53,87,34,-92,4,-29,63
43,53,9,-48,17,31,87,29,-107,0,-39,53
39,34,-4,-36,21,14,87,24,-107,-14,-43,43
24,19,-4,-21,14,7,97,24,-112,-14,-48,43
29,0,-29,-14,29,-14,97,24,-117,-19,-43,39
34,-4,-39,-14,36,-21,97,24,-122,-34,-53,39
24,-19,-43,-2,34,-31,97,19,-131,-43,-63,39
24,-19,-43,-2,34,-31,97,14,-131,-48,-73,34
19,-19,-39,0,29,-29,92,14,-131,-48,-78,14
4,-4,-9,0,7,-7,102,19,-131,-48,-82,14
-4,-29,-24,17,9,-26,107,24,-131,-48,-82,9
-19,-53,-34,36,7,-43,107,24,-141,-58,-87,4
-14,-43,-29,29,7,-36,107,24,-141,-53,-87,-4
-9,-43,-34,26,12,-39,107,24,-141,-53,-87,-4
-4,-39,-34,21,14,-36,107,19,-141,-53,-97,-9
0,-39,-39,19,19,-39,107,19,-146,-53,-97,-14
-14,-58,-43,36,14,-51,92,19,-151,-58,-102,-9
-14,-58,-43,36,14,-51,92,14,-151,-58,-102,-14
-14,-58,-43,36,14,-51,92,14,-156,-58,-107,-14
-19,-63,-43,41,12,-53,92,9,-161,-78,-117,-19
-9,-58,-48,34,19,-53,102,19,-170,-87,-117,-19
-9,-58,-48,34,19,-53,102,14,-170,-87,-117,-19
-9,-58,-48,34,19,-53,102,14,-165,-87,-117,-19
-9,-58,-48,34,19,-53,107,19,-165,-82,-112,-9
-9,-82,-73,46,31,-78,117,19,-156,-73,-122,-9
-14,-82,-68,48,26,-75,117,19,-156,-73,-122,-9
-14,-68,-53,41,19,-61,117,19,-156,-73,-117,-9
0,-68,-68,34,34,-68,122,24,-156,-73,-117,-9
0,-73,-73,36,36,-73,112,34,-170,-82,-107,-14
0,-73,-73,36,36,-73,112,29,-170,-87,-112,-14
0,-68,-68,34,34,-68,112,29,-170,-87,-117,-19
-9,-68,-58,39,24,-63,112,29,-170,-82,-117,-19
0,-63,-63,31,31,-63,112,34,-156,-73,-112,-19
0,-58,-58,29,29,-58,112,34,-156,-73,-107,-19
-9,-53,-43,31,17,-48,112,34,-156,-68,-102,-14
4,-48,-53,21,29,-51,112,34,-156,-68,-97,-14
14,-48,-63,17,39,-56,117,34,-156,-63,-102,-4
14,-48,-63,17,39,-56,117,34,-161,-63,-102,-4
0,-48,-48,24,24,-48,117,29,-161,-68,-102,-14
0,-48,-48,24,24,-48,122,29,-161,-73,-107,0
-9,-68,-58,39,24,-63,117,29,-161,-78,-107,-9
9,-43,-53,17,31,-48,126,39,-156,-78,-107,-9
19,-24,-43,2,31,-34,126,43,-156,-78,-97,-9
19,-39,-58,9,39,-48,117,48,-146,-73,-97,-9
29,-58,-87,14,58,-73,136,82,-122,-53,-97,-9
39,-39,-78,0,58,-58,165,146,-53,-19,-73,0
78,29,-48,-53,63,-9,190,234,29,48,-29,24
92,48,-43,-70,68,2,209,307,122,122,19,48
92,58,-34,-75,63,12,214,375,200,204,73,73
161,122,-39,-141,100,41,229,429,297,336,190,161
239,219,-19,-229,129,100,219,429,346,497,341,263
292,263,-29,-278,161,117,190,366,336,595,468,356
307,302,-4,-305,156,148,131,263,307,732,610,444
346,395,48,-370,148,222,48,131,287,932,824,590
405,507,102,-456,151,305,-39,-19,234,1112,1029,746
439,551,112,-495,163,331,-126,-209,136,1200,1176,854
473,639,165,-556,153,402,-283,-414,39,1298,1317,980
546,780,234,-663,156,507,-488,-644,-73,1405,1473,1117
619,858,239,-739,190,549,-736,-883,-219,1429,1571,1234
644,883,239,-763,202,561,-971,-1112,-400,1337,1576,1298
634,873,239,-753,197,556,-1117,-1273,-566,1161,1483,1298
605,771,165,-688,219,468,-1180,-1327,-688,941,1293,1210
600,580,-19,-590,309,280,-1185,-1298,-785,697,1063,1063
585,414,-170,-500,378,122,-1146,-1254,-863,448,829,922
517,366,-151,-441,334,107,-1078,-1210,-917,239,634,800
458,331,-126,-395,292,102,-971,-1141,-956,34,439,692
400,283,-117,-341,258,82,-854,-1054,-976,-190,229,570
351,239,-112,-295,231,63,-697,-917,-907,-278,97,478
297,209,-87,-253,192,61,-536,-736,-766,-234,63,414
244,170,-73,-207,158,48,-429,-614,-683,-234,4,346
175,131,-43,-153,109,43,-356,-541,-644,-248,-73,263
131,97,-34,-114,82,31,-258,-439,-566,-253,-112,195
102,48,-53,-75,78,-2,-170,-331,-478,-244,-141,151
73,-14,-87,-29,80,-51,-97,-244,-414,-224,-151,126
53,-39,-92,-7,73,-65,-43,-170,-331,-190,-151,97
34,-48,-82,7,58,-65,4,-92,-268,-151,-141,53
34,-63,-97,14,65,-80,53,-29,-224,-117,-117,19
58,-29,-87,-14,73,-58,92,14,-200,-97,-107,29
68,-14,-82,-26,75,-48,117,34,-190,-97,-107,29
48,-24,-73,-12,61,-48,126,53,-195,-97,-112,14
43,-34,-78,-4,61,-56,131,58,-185,-102,-122,-4
29,-39,-68,4,48,-53,126,53,-180,-107,-141,-14
29,-48,-78,9,53,-63,122,48,-170,-107,-146,-29
39,-53,-92,7,65,-73,126,48,-165,-107,-156,-34
39,-48,-87,4,63,-68,131,53,-161,-112,-161,-39
29,-43,-73,7,51,-58,131,63,-161,-112,-165,-48
29,-29,-58,0,43,-43,146,82,-161,-117,-165,-58
24,-39,-63,7,43,-51,151,87,-151,-107,-161,-53
19,-48,-68,14,43,-58,156,92,-141,-112,-161,-58
19,-53,-73,17,46,-63,156,92,-136,-112,-165,-43
14,-58,-73,21,43,-65,151,92,-131,-112,-151,-34
34,-48,-82,7,58,-65,151,92,-126,-107,-151,-43
43,-48,-92,2,68,-70,151,92,-122,-107,-151,-48
53,-29,-82,-12,68,-56,156,92,-122,-97,-146,-48
68,-19,-87,-24,78,-53,156,107,-122,-92,-136,-39
63,-19,-82,-21,73,-51,156,107,-122,-97,-131,-39
53,-9,-63,-21,58,-36,151,107,-122,-97,-136,-39
48,0,-48,-24,48,-24,146,112,-122,-102,-141,-39
43,0,-43,-21,43,-21,141,112,-112,-102,-146,-39
53,4,-48,-29,51,-21,156,126,-102,-87,-141,-34
63,4,-58,-34,61,-26,161,131,-97,-82,-131,-29
78,4,-73,-41,75,-34,165,136,-92,-78,-112,-24
87,4,-82,-46,85,-39,175,141,-87,-68,-102,-19
73,-9,-82,-31,78,-46,170,136,-92,-78,-117,-24
68,-9,-78,-29,73,-43,170,141,-97,-78,-122,-24
73,0,-73,-36,73,-36,165,146,-92,-73,-112,-19
43,-19,-63,-12,53,-41,161,141,-97,-73,-117,-19
43,-29,-73,-7,58,-51,165,136,-87,-68,-117,-9
53,-24,-78,-14,65,-51,165,141,-78,-68,-117,-9
78,-4,-82,-36,80,-43,165,146,-73,-63,-112,-9
87,9,-78,-48,82,-34,175,151,-73,-63,-107,-9
78,0,-78,-39,78,-39,165,161,-73,-63,-102,-9
73,4,-68,-39,70,-31,165,165,-73,-58,-97,-9
73,9,-63,-41,68,-26,165,170,-73,-53,-97,-4
73,14,-58,-43,65,-21,165,180,-68,-53,-92,-4
87,29,-58,-58,73,-14,180,190,-58,-53,-92,0
92,29,-63,-61,78,-17,180,190,-43,-48,-82,9
92,34,-58,-63,75,-12,185,190,-43,-43,-82,0
87,34,-53,-61,70,-9,185,190,-43,-34,-82,0
82,14,-68,-48,75,-26,175,190,-53,-34,-82,-4
82,14,-68,-48,75,-26,175,195,-48,-34,-78,-9
87,29,-58,-58,73,-14,175,200,-43,-34,-73,-14
97,34,-63,-65,80,-14,175,200,-39,-34,-73,-19
102,53,-48,-78,75,2,185,209,-24,-24,-63,-19
107,53,-53,-80,80,0,185,209,-19,-24,-63,-9
107,53,-53,-80,80,0,185,209,-19,-24,-63,0
107,53,-53,-80,80,0,185,214,-19,-24,-63,-9
102,48,-53,-75,78,-2,190,224,-19,-19,-48,4
107,48,-58,-78,82,-4,195,229,-9,-9,-39,24
112,48,-63,-80,87,-7,195,239,-9,-4,-34,29
107,43,-63,-75,85,-9,195,248,-9,0,-34,29
97,63,-34,-80,65,14,200,253,4,-4,-43,24
102,58,-43,-80,73,7,200,253,9,-4,-43,24
117,68,-48,-92,82,9,200,258,14,-4,-39,24
126,78,-48,-102,87,14,204,263,19,-4,-39,24
126,78,-48,-102,87,14,204,263,9,-4,-39,19
122,87,-34,-104,78,26,209,263,9,4,-29,34
122,87,-34,-104,78,26,214,278,19,9,-29,34
122,82,-39,-102,80,21,224,283,24,19,-24,43
112,82,-29,-97,70,26,214,283,34,29,-9,43
112,82,-29,-97,70,26,214,292,39,29,-9,43
112,87,-24,-100,68,31,219,297,43,29,-4,39
126,92,-34,-109,80,29,229,312,53,43,0,39
112,87,-24,-100,68,31,224,302,58,43,0,39
107,97,-9,-102,58,43,224,307,58,43,4,43
102,87,-14,-95,58,36,224,312,63,43,9,43
97,73,-24,-85,61,24,224,317,63,43,4,43
97,82,-14,-90,56,34,224,336,73,48,14,34
112,92,-19,-102,65,36,234,351,87,63,24,39
112,107,-4,-109,58,51,239,361,97,68,29,39
112,107,-4,-109,58,51,239,370,117,78,39,43
126,107,-19,-117,73,43,248,375,122,87,48,58
126,112,-14,-119,70,48,248,380,131,97,53,63
126,117,-9,-122,68,53,248,400,141,107,58,68
117,117,0,-117,58,58,253,405,151,117,63,78
126,122,-4,-124,65,58,273,419,161,126,68,73
126,141,14,-134,56,78,273,424,185,131,87,78
141,151,9,-146,65,80,283,439,200,141,92,78
161,165,4,-163,78,85,283,463,219,156,102,78
151,170,19,-161,65,95,287,473,239,161,117,92
151,175,24,-163,63,100,297,483,244,170,126,107
156,175,19,-165,68,97,297,497,263,195,136,126
175,195,19,-185,78,107,297,512,283,219,151,151
185,229,43,-207,70,136,302,522,287,229,146,161
175,229,53,-202,61,141,302,531,307,234,161,156
161,229,68,-195,46,148,312,546,317,248,175,156
175,239,63,-207,56,151,317,551,326,263,190,165
170,253,82,-212,43,168,317,575,346,268,209,170
170,253,82,-212,43,168,322,590,351,278,219,175
195,283,87,-239,53,185,326,595,380,297,229,185
200,292,92,-246,53,192,331,595,390,317,244,195
200,287,87,-244,56,187,331,600,405,331,258,200
209,302,92,-256,58,197,331,614,419,351,268,204
219,312,92,-265,63,202,331,624,429,351,283,209
219,326,107,-273,56,217,326,634,429,361,302,229
224,346,122,-285,51,234,317,639,424,370,307,229
229,346,117,-287,56,231,317,639,434,370,312,224
234,356,122,-295,56,239,317,634,444,380,322,229
234,356,122,-295,56,239,317,624,444,400,331,229
234,361,126,-297,53,244,317,619,439,409,346,239
248,361,112,-305,68,236,302,619,444,409,346,244
253,370,117,-312,68,244,297,624,444,409,346,268
253,370,117,-312,68,244,292,629,439,409,346,283
224,361,136,-292,43,248,292,624,439,400,356,273
219,356,136,-287,41,246,297,619,439,400,351,273
214,322,107,-268,53,214,297,619,439,400,346,273
195,283,87,-239,53,185,292,605,434,395,341,273
209,307,97,-258,56,202,283,600,429,390,351,273
224,331,107,-278,58,219,273,585,414,385,346,273
229,351,122,-290,53,236,258,575,405,380,341,273
234,346,112,-290,61,229,248,566,390,375,336,263
239,346,107,-292,65,226,258,546,390,380,346,278
239,336,97,-287,70,217,258,541,385,375,346,283
234,331,97,-283,68,214,258,531,380,366,351,287
234,322,87,-278,73,204,253,522,370,346,341,292
229,322,92,-275,68,207,239,507,346,336,341,283
229,322,92,-275,68,207,229,483,326,322,331,273
219,312,92,-265,63,202,214,453,302,307,312,258
209,283,73,-246,68,178,200,424,278,307,302,258
195,258,63,-226,65,161,190,405,248,283,278,244
195,244,48,-219,73,146,185,390,239,258,268,234
190,239,48,-214,70,143,185,370,224,244,253,234
185,214,29,-200,78,122,180,356,214,209,244,224
185,214,29,-200,78,122,165,331,185,195,224,209
175,204,29,-190,73,117,161,307,165,175,214,200
175,200,24,-187,75,112,161,292,141,161,204,190
175,204,29,-190,73,117,156,278,122,151,190,185
175,200,24,-187,75,112,141,263,107,131,190,175
175,204,29,-190,73,117,141,244,92,122,170,165
175,204,29,-190,73,117,141,234,82,107,165,165
165,195,29,-180,68,112,126,224,73,87,156,165
161,175,14,-168,73,95,122,204,58,78,151,136
165,175,9,-170,78,92,126,195,43,68,136,131
161,175,14,-168,73,95,126,185,34,58,131,126
146,156,9,-151,68,82,131,170,14,43,122,126
141,136,-4,-139,73,65,122,165,9,43,122,117
146,131,-14,-139,80,58,122,151,0,34,112,107
146,117,-29,-131,87,43,122,146,-4,19,107,112
141,107,-34,-124,87,36,122,141,-14,14,102,107
141,117,-24,-129,82,46,122,146,-14,-4,97,112
151,117,-34,-134,92,41,122,146,-19,-4,97,112
141,112,-29,-126,85,41,112,141,-39,-9,92,112
141,112,-29,-126,85,41,107,136,-53,-14,87,112
146,117,-29,-131,87,43,97,126,-48,-14,78,107
146,122,-24,-134,85,48,92,117,-48,-14,78,97
151,122,-29,-136,90,46,92,102,-48,-24,73,73
156,112,-43,-134,100,34,87,87,-48,-34,68,58
131,92,-39,-112,85,26,92,97,-53,-34,53,53
126,87,-39,-107,82,24,92,97,-58,-39,53,58
126,82,-43,-104,85,19,92,97,-63,-39,58,63
122,78,-43,-100,82,17,87,92,-63,-43,58,68
126,78,-48,-102,87,14,87,78,-68,-53,48,68
126,78,-48,-102,87,14,87,78,-73,-53,43,68
131,87,-43,-109,87,21,87,82,-73,-53,43,82
131,73,-58,-102,95,7,87,82,-68,-53,48,82
136,82,-53,-109,95,14,82,92,-63,-39,63,92
141,87,-53,-114,97,17,87,92,-63,-39,73,92
146,97,-48,-122,97,24,87,92,-63,-39,78,97
151,107,-43,-129,97,31,87,87,-78,-43,78,97
146,107,-39,-126,92,34,87,87,-78,-43,78,102
156,107,-48,-131,102,29,87,87,-78,-43,82,102
141,102,-39,-122,90,31,82,92,-78,-29,87,92
126,78,-48,-102,87,14,82,92,-78,-43,92,82
122,73,-48,-97,85,12,82,87,-73,-58,87,78
126,68,-58,-97,92,4,97,87,-78,-58,78,87
122,63,-58,-92,90,2,87,82,-92,-58,73,82
107,48,-58,-78,82,-4,73,68,-107,-63,63,78
97,63,-34,-80,65,14,63,58,-97,-82,63,73
107,68,-39,-87,73,14,63,63,-102,-68,58,68
97,68,-29,-82,63,19,63,63,-102,-68,58,53
97,73,-24,-85,61,24,68,58,-97,-73,63,48
107,68,-39,-87,73,14,68,63,-92,-82,58,63
107,68,-39,-87,73,14,73,63,-92,-82,58,53
107,73,-34,-90,70,19,78,68,-92,-82,58,48
107,73,-34,-90,70,19,78,78,-92,-82,53,48
102,68,-34,-85,68,17,78,78,-97,-82,58,48
102,63,-39,-82,70,12,78,78,-97,-82,63,73
97,48,-48,-73,73,0,82,73,-102,-82,68,73
82,58,-24,-70,53,17,82,63,-112,-78,63,68
82,58,-24,-70,53,17,73,63,-102,-78,48,58
82,68,-14,-75,48,26,68,63,-102,-78,48,48
82,53,-29,-68,56,12,68,63,-102,-87,43,34
82,53,-29,-68,56,12,78,63,-102,-87,43,19
82,58,-24,-70,53,17,78,63,-107,-87,43,14
78,63,-14,-70,46,24,78,68,-107,-87,43,29
78,63,-14,-70,46,24,78,68,-107,-92,39,34
73,68,-4,-70,39,31,78,68,-117,-92,39,34
68,43,-24,-56,46,9,78,68,-107,-92,39,43
63,29,-34,-46,48,-2,87,68,-107,-82,48,48
58,19,-39,-39,48,-9,92,78,-97,-73,53,48
58,19,-39,-39,48,-9,92,78,-97,-73,53,48
68,24,-43,-46,56,-9,87,82,-97,-73,48,29
68,39,-29,-53,48,4,82,82,-87,-78,43,9
63,29,-34,-46,48,-2,82,82,-82,-82,48,4
63,43,-19,-53,41,12,78,82,-82,-87,43,0
73,34,-39,-53,56,-2,87,73,-87,-87,34,9
58,34,-24,-46,41,4,87,73,-97,-92,24,14
43,19,-24,-31,34,-2,82,73,-87,-92,24,19
68,29,-39,-48,53,-4,82,82,-87,-92,24,19
78,48,-29,-63,53,9,102,97,-73,-73,39,14
78,48,-29,-63,53,9,102,107,-73,-68,43,4
63,48,-14,-56,39,17,102,97,-73,-58,43,0
63,48,-14,-56,39,17,102,87,-73,-53,39,-4
73,63,-9,-68,41,26,112,97,-73,-43,48,14
78,63,-14,-70,46,24,107,102,-68,-43,63,39
82,68,-14,-75,48,26,107,112,-63,-43,82,48
92,73,-19,-82,56,26,107,102,-48,-39,97,58
78,63,-14,-70,46,24,102,102,-58,-39,82,53
82,48,-34,-65,58,7,97,102,-58,-39,68,48
68,39,-29,-53,48,4,92,102,-58,-39,63,43
53,48,-4,-51,29,21,87,102,-63,-34,63,39
63,43,-19,-53,41,12,78,87,-73,-39,53,24
68,43,-24,-56,46,9,82,87,-73,-43,53,24
73,39,-34,-56,53,2,87,92,-58,-39,63,34
78,58,-19,-68,48,19,87,92,-58,-43,63,34
78,68,-9,-73,43,29,92,107,-43,-39,63,43
92,63,-29,-78,61,17,92,117,-39,-34,63,43
82,58,-24,-70,53,17,97,122,-34,-24,73,39
78,43,-34,-61,56,4,102,122,-29,-9,73,39
92,53,-39,-73,65,7,92,112,-34,-19,68,34
97,68,-29,-82,63,19,87,112,-43,-19,68,43
107,78,-29,-92,68,24,87,107,-53,-29,68,43
112,68,-43,-90,78,12,87,107,-58,-29,73,39
102,58,-43,-80,73,7,87,112,-53,-34,82,34
92,63,-29,-78,61,17,82,112,-53,-29,73,34
87,58,-29,-73,58,14,82,107,-53,-29,73,39
92,78,-14,-85,53,31,82,107,-53,-34,73,39
82,73,-9,-78,46,31,73,102,-58,-39,73,43
73,48,-24,-61,48,12,73,97,-63,-39,73,43
63,34,-29,-48,46,2,73,92,-63,-39,68,34
53,19,-34,-36,43,-7,73,87,-68,-39,63,34
48,14,-34,-31,41,-9,63,92,-73,-19,78,34
48,19,-29,-34,39,-4,63,87,-73,-19,82,39
53,29,-24,-41,39,2,68,87,-63,-14,87,43
73,43,-29,-58,51,7,68,92,-63,-9,87,43
82,58,-24,-70,53,17,73,102,-58,0,97,34
87,58,-29,-73,58,14,68,97,-63,-4,97,34
82,53,-29,-68,56,12,68,97,-63,-9,97,34
78,53,-24,-65,51,14,63,97,-63,-9,92,34
63,24,-39,-43,51,-7,63,87,-73,-4,92,34
63,14,-48,-39,56,-17,68,87,-68,-4,92,34
63,0,-63,-31,63,-31,68,92,-68,-9,92,43
58,-9,-68,-24,63,-39,68,92,-73,-9,92,43
48,0,-48,-24,48,-24,53,78,-82,-9,73,19
43,4,-39,-24,41,-17,48,73,-82,-14,68,19
39,14,-24,-26,31,-4,34,63,-82,-29,68,9
39,29,-9,-34,24,9,29,63,-87,-43,63,9
53,39,-14,-46,34,12,43,73,-78,-39,78,9
63,39,-24,-51,43,7,48,78,-78,-29,78,24
68,29,-39,-48,53,-4,48,78,-78,-24,78,24
68,29,-39,-48,53,-4,53,73,-82,-24,68,24
63,24,-39,-43,51,-7,53,73,-78,-24,78,29
58,14,-43,-36,51,-14,53,73,-78,-19,78,19
53,4,-48,-29,51,-21,53,73,-78,-19,73,19
58,0,-58,-29,58,-29,53,68,-78,-19,73,24
73,29,-43,-51,58,-7,48,68,-87,-24,78,39
73,29,-43,-51,58,-7,48,68,-92,-24,78,43
63,24,-39,-43,51,-7,48,68,-97,-14,73,43
63,24,-39,-43,51,-7,43,68,-102,-14,73,34
53,4,-48,-29,51,-21,43,68,-97,-9,68,24
53,-9,-63,-21,58,-36,43,68,-97,-9,73,24
53,-19,-73,-17,63,-46,43,73,-92,-4,78,29
58,0,-58,-29,58,-29,43,73,-78,-4,82,29
58,19,-39,-39,48,-9,53,63,-92,-9,78,14
58,14,-43,-36,51,-14,48,58,-97,-14,78,4
58,19,-39,-39,48,-9,48,53,-107,-29,73,0
58,24,-34,-41,46,-4,48,48,-112,-19,68,0
39,14,-24,-26,31,-4,43,53,-107,-29,58,-14
73,34,-39,-53,56,-2,43,53,-102,-9,68,24
73,19,-53,-46,63,-17,43,63,-102,-14,78,43
48,0,-48,-24,48,-24,39,68,-97,-19,68,29
39,-9,-48,-14,43,-29,39,63,-107,-24,58,19
39,-9,-48,-14,43,-29,39,58,-107,-29,58,19
39,-9,-48,-14,43,-29,39,53,-107,-34,58,19
39,-9,-48,-14,43,-29,39,48,-107,-39,58,19
48,-9,-58,-19,53,-34,39,48,-117,-34,68,9
48,-9,-58,-19,53,-34,39,53,-112,-24,63,4
48,4,-43,-26,46,-19,43,53,-112,-19,63,0
48,4,-43,-26,46,-19,43,53,-112,-19,63,-4
48,0,-48,-24,48,-24,53,53,-102,-19,73,-4
43,0,-43,-21,43,-21,53,53,-102,-14,73,0
43,0,-43,-21,43,-21,63,63,-92,-4,82,9
48,9,-39,-29,43,-14,68,68,-87,4,92,19
48,39,-9,-43,29,14,78,78,-82,14,92,29
53,48,-4,-51,29,21,82,78,-78,14,97,29
53,63,9,-58,21,36,82,82,-73,19,102,34
53,78,24,-65,14,51,92,87,-68,24,102,34
58,87,29,-73,14,58,87,78,-78,19,92,24
58,92,34,-75,12,63,87,82,-68,19,102,34
58,92,34,-75,12,63,92,87,-58,24,107,34
58,102,43,-80,7,73,92,87,-58,29,107,39
48,102,53,-75,-2,78,92,97,-63,29,107,48
53,92,39,-73,7,65,92,97,-53,29,122,48
53,87,34,-70,9,61,92,92,-53,29,122,48
53,87,34,-70,9,61,87,87,-58,34,107,48
43,87,43,-65,0,65,78,82,-68,34,112,43
48,87,39,-68,4,63,68,78,-68,29,117,48
53,82,29,-68,12,56,63,73,-63,24,112,48
53,82,29,-68,12,56,53,68,-63,19,102,43
43,82,39,-63,2,61,48,68,-63,29,102,34
48,82,34,-65,7,58,43,63,-68,29,102,34
48,87,39,-68,4,63,29,53,-68,24,102,39
53,97,43,-75,4,70,24,48,-78,19,102,39
48,92,43,-70,2,68,29,53,-82,29,112,43
43,87,43,-65,0,65,24,48,-87,24,102,39
24,68,43,-46,-9,56,19,39,-92,19,97,39
14,43,29,-29,-7,36,14,24,-107,14,92,34
-4,29,34,-12,-19,31,4,9,-126,4,102,34
4,43,39,-24,-17,41,0,9,-126,4,107,48
19,43,24,-31,-2,34,-9,14,-126,0,107,53
19,39,19,-29,0,29,-19,14,-126,0,107,53
29,34,4,-31,12,19,-19,19,-122,-4,102,43
39,39,0,-39,19,19,-19,29,-122,4,107,39
53,58,4,-56,24,31,-14,29,-122,4,102,29
53,63,9,-58,21,36,-14,29,-122,4,97,24
43,34,-9,-39,26,12,-34,19,-131,4,87,34
34,4,-29,-19,31,-12,-39,9,-146,0,78,24
24,-19,-43,-2,34,-31,-43,0,-146,-14,73,14
4,-39,-43,17,24,-41,-39,-4,-151,-14,68,14
14,-58,-73,21,43,-65,-34,-4,-156,-9,68,4
14,-63,-78,24,46,-70,-29,-4,-161,-24,63,0
0,-78,-78,39,39,-78,-24,-9,-170,-34,58,-4
-4,-78,-73,41,34,-75,-19,-14,-170,-39,53,-14
-9,-68,-58,39,24,-63,-14,-4,-170,-53,39,-34
-24,-53,-29,39,2,-41,-4,0,-170,-58,24,-43
-34,-78,-43,56,4,-61,0,4,-170,-63,14,-58
-48,-102,-53,75,2,-78,0,4,-180,-78,0,-73
-39,-117,-78,78,19,-97,0,4,-175,-73,19,-53
-39,-122,-82,80,21,-102,0,4,-170,-63,29,-43
-39,-122,-82,80,21,-102,0,0,-165,-53,29,-39
-39,-126,-87,82,24,-107,0,0,-165,-43,39,-34
-43,-126,-82,85,19,-104,-14,-4,-175,-53,19,-48
-43,-126,-82,85,19,-104,-14,-14,-180,-58,14,-53
-43,-126,-82,85,19,-104,-14,-19,-190,-63,4,-53
-48,-131,-82,90,17,-107,-14,-29,-200,-87,-9,-58
-39,-126,-87,82,24,-107,-9,-24,-204,-92,-19,-78
-39,-126,-87,82,24,-107,-4,-24,-200,-97,-19,-78
-39,-126,-87,82,24,-107,0,-19,-190,-102,-19,-78
-39,-126,-87,82,24,-107,9,-9,-185,-102,-14,-68
-53,-146,-92,100,19,-119,4,-19,-185,-87,-9,-53
-63,-151,-87,107,12,-119,0,-19,-185,-82,-4,-48
-68,-141,-73,104,2,-107,-4,-19,-185,-78,4,-43
-58,-146,-87,102,14,-117,-4,-14,-185,-73,9,-39
-78,-146,-68,112,-4,-107,4,-14,-190,-82,0,-53
-78,-151,-73,114,-2,-112,4,-19,-190,-87,-4,-53
-78,-151,-73,114,-2,-112,4,-19,-190,-87,-9,-58
-87,-156,-68,122,-9,-112,4,-19,-190,-82,-9,-58
-82,-156,-73,119,-4,-114,-4,-14,-175,-73,-9,-78
-78,-156,-78,117,0,-117,-4,-14,-175,-73,-9,-87
-82,-156,-73,119,-4,-114,-4,-14,-175,-68,-9,-92
-63,-156,-92,109,14,-124,-4,-14,-175,-68,-9,-102
-63,-156,-92,109,14,-124,-14,-24,-185,-63,0,-87
-63,-156,-92,109,14,-124,-19,-24,-190,-63,4,-82
-78,-156,-78,117,0,-117,-24,-29,-190,-68,9,-87
-78,-156,-78,117,0,-117,-24,-29,-190,-73,9,-68
-48,-126,-78,87,14,-102,-9,-19,-180,-87,-19,-97
-48,-131,-82,90,17,-107,-9,-19,-175,-87,-19,-97
-58,-141,-82,100,12,-112,-9,-4,-175,-87,-29,-97
-58,-156,-97,107,19,-126,0,9,-165,-102,-39,-107
-48,-156,-107,102,29,-131,9,34,-151,-82,-39,-107
-68,-146,-78,107,4,-112,9,58,-122,-48,-24,-97
-48,-126,-78,87,14,-102,14,107,-68,0,19,-63
4,-117,-122,56,63,-119,34,180,14,82,87,0
43,-87,-131,21,87,-109,48,268,112,185,190,53
63,-34,-97,-14,80,-65,43,351,219,317,317,122
102,14,-87,-58,95,-36,24,361,268,448,458,204
156,68,-87,-112,122,-9,-14,297,278,595,624,307
229,156,-73,-192,151,41,-53,214,268,771,834,463
297,239,-58,-268,178,90,-117,131,248,941,1039,629
395,331,-63,-363,229,134,-204,-19,175,1063,1234,785
478,444,-34,-461,256,204,-273,-180,107,1190,1420,951
541,551,9,-546,265,280,-361,-307,68,1307,1600,1117
546,575,29,-561,258,302,-507,-468,-43,1307,1668,1195
522,595,73,-558,224,334,-707,-707,-258,1127,1571,1185
488,639,151,-563,168,395,-893,-976,-497,897,1381,1122
448,629,180,-539,134,405,-1010,-1185,-663,683,1171,1044
409,478,68,-444,170,273,-1083,-1278,-785,473,951,907
385,268,-117,-326,251,75,-1137,-1307,-932,239,712,732
322,151,-170,-236,246,-9,-1176,-1371,-1088,9,478,600
234,122,-112,-178,173,4,-1166,-1405,-1200,-209,283,478
146,78,-68,-112,107,4,-1117,-1366,-1259,-395,107,361
58,39,-19,-48,39,9,-1019,-1268,-1220,-502,-34,248
9,73,63,-41,-26,68,-902,-1112,-1073,-453,-68,185
4,112,107,-58,-51,109,-780,-922,-912,-351,-43,161
0,82,82,-41,-41,82,-663,-761,-780,-302,-63,112
-39,14,53,12,-46,34,-531,-600,-663,-278,-92,58
-63,-19,43,41,-53,12,-405,-448,-536,-224,-82,39
-73,-58,14,65,-43,-21,-317,-322,-429,-185,-73,24
-92,-122,-29,107,-31,-75,-263,-224,-346,-175,-73,-9
-102,-185,-82,143,-9,-134,-200,-141,-283,-151,-53,-48
-102,-214,-112,158,4,-163,-151,-82,-239,-131,-63,-92
-122,-229,-107,175,-7,-168,-141,-68,-234,-146,-78,-126
-117,-224,-107,170,-4,-165,-122,-63,-239,-136,-78,-126
-107,-219,-112,163,2,-165,-107,-43,-229,-126,-78,-126
-102,-219,-117,161,7,-168,-97,-24,-234,-117,-73,-112
-102,-219,-117,161,7,-168,-92,-19,-224,-122,-73,-122
-112,-214,-102,163,-4,-158,-97,-24,-219,-126,-82,-122
-107,-214,-107,161,0,-161,-102,-29,-209,-126,-78,-126
-107,-234,-126,170,9,-180,-102,-29,-204,-126,-82,-131
-117,-244,-126,180,4,-185,-102,-24,-200,-131,-82,-136
-136,-253,-117,195,-9,-185,-107,-14,-200,-131,-82,-146
-146,-253,-107,200,-19,-180,-97,4,-200,-136,-78,-156
-141,-244,-102,192,-19,-173,-73,9,-190,-136,-92,-161
-136,-234,-97,185,-19,-165,-68,14,-180,-141,-102,-175
-126,-219,-92,173,-17,-156,-68,14,-175,-141,-117,-170
-122,-204,-82,163,-19,-143,-73,14,-170,-141,-112,-170
-112,-209,-97,161,-7,-153,-63,24,-165,-122,-97,-156
-112,-224,-112,168,0,-168,-63,24,-161,-117,-82,-156
-112,-219,-107,165,-2,-163,-58,24,-161,-102,-63,-151
-107,-224,-117,165,4,-170,-58,39,-161,-92,-39,-136
-117,-239,-122,178,2,-180,-63,39,-161,-92,-43,-146
-122,-234,-112,178,-4,-173,-63,39,-161,-97,-48,-146
-122,-229,-107,175,-7,-168,-63,43,-161,-107,-53,-146
-122,-234,-112,178,-4,-173,-63,43,-151,-112,-58,-146
-122,-234,-112,178,-4,-173,-68,34,-156,-107,-73,-146
-122,-229,-107,175,-7,-168,-73,34,-156,-112,-73,-146
-117,-224,-107,170,-4,-165,-78,34,-156,-117,-63,-146
-117,-219,-102,168,-7,-161,-78,34,-156,-117,-63,-146
-122,-219,-97,170,-12,-158,-78,39,-156,-112,-73,-131
-117,-214,-97,165,-9,-156,-73,43,-156,-107,-73,-131
-102,-200,-97,151,-2,-148,-73,48,-146,-97,-58,-126
-122,-214,-92,168,-14,-153,-73,43,-146,-92,-58,-126
-136,-219,-82,178,-26,-151,-78,39,-136,-97,-48,-122
-131,-219,-87,175,-21,-153,-78,43,-126,-97,-48,-117
-112,-204,-92,158,-9,-148,-78,48,-122,-92,-43,-112
-107,-195,-87,151,-9,-141,-68,53,-122,-92,-39,-107
-107,-204,-97,156,-4,-151,-58,58,-131,-92,-43,-122
-112,-200,-87,156,-12,-143,-58,58,-131,-87,-48,-136
-112,-195,-82,153,-14,-139,-58,58,-131,-82,-58,-146
-112,-190,-78,151,-17,-134,-58,63,-126,-82,-63,-161
-122,-204,-82,163,-19,-143,-58,63,-126,-92,-58,-146
-122,-224,-102,173,-9,-163,-63,63,-112,-87,-43,-126
-126,-239,-112,183,-7,-175,-63,63,-112,-82,-39,-126
-136,-258,-122,197,-7,-190,-68,63,-112,-73,-34,-117
-131,-248,-117,190,-7,-183,-82,58,-112,-73,-34,-131
-131,-239,-107,185,-12,-173,-87,58,-107,-73,-29,-136
-126,-214,-87,170,-19,-151,-92,58,-102,-73,-24,-141
-117,-200,-82,158,-17,-141,-97,53,-97,-73,-24,-146
-107,-195,-87,151,-9,-141,-87,63,-92,-53,-24,-141
-107,-200,-92,153,-7,-146,-87,63,-87,-53,-24,-126
-112,-204,-92,158,-9,-148,-87,63,-87,-53,-24,-112
-117,-209,-92,163,-12,-151,-87,68,-87,-53,-24,-117
-126,-200,-73,163,-26,-136,-73,73,-68,-48,-29,-131
-117,-195,-78,156,-19,-136,-68,73,-58,-39,-19,-122
-107,-190,-82,148,-12,-136,-68,78,-58,-34,-14,-126
-107,-190,-82,148,-12,-136,-68,82,-58,-29,-14,-136
-117,-180,-63,148,-26,-122,-63,87,-43,-34,-24,-126
-112,-195,-82,153,-14,-139,-63,87,-39,-34,-24,-122
-97,-195,-97,146,0,-146,-63,92,-34,-34,-19,-117
-87,-195,-107,141,9,-151,-58,97,-29,-34,-19,-112
-97,-200,-102,148,2,-151,-78,87,-39,-29,-14,-117
-102,-185,-82,143,-9,-134,-82,87,-39,-14,0,-102
-102,-180,-78,141,-12,-129,-87,102,-29,-4,4,-102
-102,-180,-78,141,-12,-129,-87,107,-24,9,14,-92
-92,-170,-78,131,-7,-124,-87,107,-14,0,19,-82
-92,-170,-78,131,-7,-124,-87,117,-9,0,19,-82
-92,-165,-73,129,-9,-119,-82,122,-4,0,24,-87
-78,-161,-82,119,2,-122,-73,136,4,14,29,-87
-78,-161,-82,119,2,-122,-68,126,24,19,43,-68
-78,-146,-68,112,-4,-107,-68,131,29,24,53,-63
-78,-151,-73,114,-2,-112,-68,136,39,29,63,-63
-78,-161,-82,119,2,-122,-68,141,43,34,63,-63
-97,-151,-53,124,-21,-102,-78,146,34,34,43,-68
-82,-141,-58,112,-12,-100,-68,156,48,43,43,-68
-82,-126,-43,104,-19,-85,-63,161,58,43,39,-73
-82,-126,-43,104,-19,-85,-63,165,78,48,39,-73
-58,-126,-68,92,4,-97,-63,170,102,73,48,-63
-58,-122,-63,90,2,-92,-63,175,112,87,63,-53
-58,-117,-58,87,0,-87,-63,195,122,102,78,-43
-68,-117,-48,92,-9,-82,-58,200,131,117,92,-29
-63,-102,-39,82,-12,-70,-58,200,146,131,97,-29
-58,-82,-24,70,-17,-53,-58,200,165,141,117,-19
-39,-73,-34,56,-2,-53,-48,209,175,156,122,-14
-14,-58,-43,36,14,-51,-48,229,190,175,131,-9
-24,-58,-34,41,4,-46,-53,234,200,175,146,0
-34,-58,-24,46,-4,-41,-43,239,204,180,156,9
-39,-63,-24,51,-7,-43,-43,248,224,200,165,24
-29,-48,-19,39,-4,-34,-43,258,244,219,180,43
-19,-19,0,19,-9,-9,-43,263,253,229,185,48
-19,-14,4,17,-12,-4,-48,268,268,234,200,48
-24,-9,14,17,-19,2,-43,278,273,248,214,53
0,4,4,-2,-2,4,-43,278,278,263,229,68
9,29,19,-19,-4,24,-53,292,307,287,239,63
14,39,24,-26,-4,31,-48,307,312,297,248,68
43,78,34,-61,4,56,-43,312,341,317,258,78
53,97,43,-75,4,70,-39,312,351,336,273,87
34,78,43,-56,-4,61,-48,302,346,351,283,97
34,78,43,-56,-4,61,-48,312,361,370,297,107
34,73,39,-53,-2,56,-48,317,370,370,317,117
24,73,48,-48,-12,61,-53,322,370,380,341,141
34,97,63,-65,-14,80,-58,312,361,385,336,136
34,102,68,-68,-17,85,-63,307,366,380,331,136
34,117,82,-75,-24,100,-68,297,370,385,331,146
29,122,92,-75,-31,107,-73,283,366,400,331,151
29,107,78,-68,-24,92,-78,287,361,390,336,141
43,107,63,-75,-9,85,-87,287,366,390,336,136
48,117,68,-82,-9,92,-87,292,366,390,336,151
48,117,68,-82,-9,92,-87,297,361,390,336,156
34,122,87,-78,-26,104,-97,278,346,385,346,170
34,131,97,-82,-31,114,-92,268,341,380,341,175
34,112,78,-73,-21,95,-92,263,336,375,336,180
19,87,68,-53,-24,78,-97,244,326,366,331,185
9,87,78,-48,-34,82,-97,244,336,370,331,175
19,97,78,-58,-29,87,-97,234,326,366,326,175
19,102,82,-61,-31,92,-102,229,322,361,322,175
19,82,63,-51,-21,73,-102,224,312,356,317,165
0,73,73,-36,-36,73,-112,200,297,331,297,146
-4,63,68,-29,-36,65,-112,190,287,317,278,126
-14,58,73,-21,-43,65,-112,175,278,297,263,107
-19,48,68,-14,-43,58,-117,161,263,268,234,87
-14,34,48,-9,-31,41,-107,151,244,253,229,92
-14,29,43,-7,-29,36,-112,131,229,234,224,87
-24,14,39,4,-31,26,-122,107,209,214,209,78
-34,-19,14,26,-24,-2,-131,82,190,209,204,82
-43,-29,14,36,-29,-7,-122,68,180,190,185,63
-48,-39,9,43,-29,-14,-126,58,170,170,170,48
-58,-39,19,48,-39,-9,-126,43,156,161,151,43
-68,-58,9,63,-39,-24,-131,34,146,131,136,29
-78,-82,-4,80,-36,-43,-136,24,141,122,126,24
-87,-107,-19,97,-34,-63,-141,4,126,107,117,24
-87,-126,-39,107,-24,-82,-141,-4,107,97,107,24
-87,-136,-48,112,-19,-92,-146,-14,92,92,92,29
-87,-146,-58,117,-14,-102,-146,-24,92,58,73,0
-87,-146,-58,117,-14,-102,-141,-39,82,43,53,-9
-87,-151,-63,119,-12,-107,-136,-43,78,24,48,-9
-97,-165,-68,131,-14,-117,-146,-48,73,0,39,-9
-107,-180,-73,143,-17,-126,-146,-48,73,-4,14,-39
-97,-175,-78,136,-9,-126,-146,-58,63,-9,0,-53
-97,-170,-73,134,-12,-122,-151,-68,58,-14,-4,-68
-107,-185,-78,146,-14,-131,-151,-82,43,-24,-14,-78
-117,-190,-73,153,-21,-131,-151,-87,48,-34,-24,-82
-117,-190,-73,153,-21,-131,-151,-102,39,-43,-34,-97
-122,-200,-78,161,-21,-139,-151,-107,34,-58,-39,-97
-131,-204,-73,168,-29,-139,-151,-112,24,-63,-43,-107
-122,-185,-63,153,-29,-124,-151,-117,29,-73,-63,-122
-112,-185,-73,148,-19,-129,-151,-117,29,-73,-68,-122
-122,-190,-68,156,-26,-129,-161,-122,14,-78,-78,-122
-122,-190,-68,156,-26,-129,-165,-126,4,-82,-87,-122
-107,-180,-73,143,-17,-126,-165,-126,14,-78,-78,-102
-107,-180,-73,143,-17,-126,-161,-126,19,-73,-68,-87
-102,-185,-82,143,-9,-134,-151,-131,24,-78,-63,-87
-97,-200,-102,148,2,-151,-146,-136,29,-82,-58,-78
-122,-219,-97,170,-12,-158,-151,-146,24,-87,-82,-97
-126,-224,-97,175,-14,-161,-151,-146,19,-97,-82,-97
-126,-229,-102,178,-12,-165,-151,-146,14,-102,-78,-97
-131,-234,-102,183,-14,-168,-156,-151,14,-112,-78,-97
-131,-219,-87,175,-21,-153,-161,-151,24,-117,-97,-117
-126,-214,-87,170,-19,-151,-156,-146,24,-112,-102,-126
-117,-200,-82,158,-17,-141,-151,-136,29,-107,-102,-122
-112,-209,-97,161,-7,-153,-146,-131,39,-102,-97,-131
-122,-214,-92,168,-14,-153,-141,-136,43,-102,-87,-126
-122,-224,-102,173,-9,-163,-136,-141,43,-107,-82,-122
-122,-229,-107,175,-7,-168,-136,-146,43,-112,-82,-112
-122,-234,-112,178,-4,-173,-136,-156,29,-122,-87,-107
-117,-209,-92,163,-12,-151,-151,-161,19,-122,-102,-126
-107,-195,-87,151,-9,-141,-156,-165,19,-122,-102,-131
-122,-185,-63,153,-29,-124,-165,-165,19,-107,-102,-146
-136,-195,-58,165,-39,-126,-170,-170,19,-122,-102,-161
-126,-200,-73,163,-26,-136,-151,-170,39,-141,-112,-146
-117,-204,-87,161,-14,-146,-136,-165,39,-146,-117,-126
-117,-209,-92,163,-12,-151,-146,-165,29,-151,-117,-122
-126,-224,-97,175,-14,-161,-161,-175,19,-161,-122,-117
-117,-219,-102,168,-7,-161,-146,-170,34,-161,-122,-112
-107,-224,-117,165,4,-170,-141,-161,34,-146,-126,-117
-117,-234,-117,175,0,-175,-136,-156,39,-146,-126,-131
-117,-239,-122,178,2,-180,-126,-156,48,-151,-122,-136
-117,-234,-117,175,0,-175,-131,-165,43,-165,-122,-126
-117,-234,-117,175,0,-175,-131,-170,43,-161,-126,-141
-117,-229,-112,173,-2,-170,-131,-170,43,-156,-131,-151
-117,-229,-112,173,-2,-170,-136,-165,43,-151,-141,-156
-122,-214,-92,168,-14,-153,-146,-170,53,-141,-141,-165
-122,-209,-87,165,-17,-148,-146,-165,58,-141,-141,-141
-126,-214,-87,170,-19,-151,-141,-165,58,-141,-141,-141
-141,-195,-53,168,-43,-124,-141,-170,53,-136,-151,-146
-136,-219,-82,178,-26,-151,-131,-161,58,-136,-141,-136
-131,-224,-92,178,-19,-158,-136,-161,63,-136,-126,-126
-126,-253,-126,190,0,-190,-136,-161,68,-146,-117,-122
-122,-268,-146,195,12,-207,-126,-161,73,-146,-102,-117
-131,-244,-112,187,-9,-178,-141,-170,73,-136,-117,-136
-136,-229,-92,183,-21,-161,-146,-165,78,-136,-122,-136
-136,-219,-82,178,-26,-151,-151,-165,82,-141,-131,-146
-141,-204,-63,173,-39,-134,-156,-165,78,-141,-136,-161
-141,-214,-73,178,-34,-143,-156,-165,87,-151,-136,-156
-141,-224,-82,183,-29,-153,-146,-165,87,-141,-126,-146
-141,-229,-87,185,-26,-158,-141,-156,97,-131,-122,-141
-136,-224,-87,180,-24,-156,-141,-156,97,-131,-122,-136
-131,-224,-92,178,-19,-158,-131,-141,102,-117,-122,-126
-126,-214,-87,170,-19,-151,-131,-141,117,-117,-122,-136
-126,-229,-102,178,-12,-165,-126,-141,126,-117,-112,-131
-122,-219,-97,170,-12,-158,-126,-141,131,-117,-112,-126
-112,-219,-107,165,-2,-163,-126,-151,136,-126,-122,-136
-126,-219,-92,173,-17,-156,-126,-151,126,-131,-131,-131
-141,-234,-92,187,-24,-163,-131,-151,136,-131,-131,-126
-117,-224,-107,170,-4,-165,-131,-141,136,-131,-131,-126
-107,-209,-102,158,-2,-156,-131,-141,141,-117,-112,-126
-107,-204,-97,156,-4,-151,-141,-136,141,-117,-102,-131
-122,-200,-78,161,-21,-139,-151,-151,141,-112,-97,-131
-122,-195,-73,158,-24,-134,-161,-165,141,-112,-97,-131
-126,-190,-63,158,-31,-126,-146,-151,146,-107,-97,-131
-126,-190,-63,158,-31,-126,-146,-141,156,-102,-92,-117
-126,-185,-58,156,-34,-122,-141,-126,165,-97,-82,-117
-122,-180,-58,151,-31,-119,-136,-131,185,-87,-78,-117
-122,-195,-73,158,-24,-134,-126,-131,185,-97,-92,-126
-112,-204,-92,158,-9,-148,-126,-131,185,-97,-107,-136
-122,-209,-87,165,-17,-148,-126,-131,185,-97,-112,-146
-131,-195,-63,163,-34,-129,-126,-131,180,-92,-112,-156
-131,-204,-73,168,-29,-139,-131,-136,190,-87,-102,-141
-126,-209,-82,168,-21,-146,-131,-136,190,-82,-92,-131
-122,-219,-97,170,-12,-158,-131,-131,204,-68,-73,-112
-117,-204,-87,161,-14,-146,-136,-131,204,-63,-63,-102
-117,-195,-78,156,-19,-136,-146,-131,200,-73,-63,-92
-102,-200,-97,151,-2,-148,-151,-126,204,-73,-63,-92
-112,-204,-92,158,-9,-148,-151,-126,209,-68,-53,-97
-117,-219,-102,168,-7,-161,-151,-131,214,-58,-53,-97
-126,-214,-87,170,-19,-151,-151,-141,209,-68,-68,-97
-126,-195,-68,161,-29,-131,-156,-141,200,-78,-78,-92
-122,-180,-58,151,-31,-119,-156,-146,190,-97,-87,-97
-122,-185,-63,153,-29,-124,-156,-146,185,-107,-92,-107
-136,-209,-73,173,-31,-141,-151,-141,195,-92,-73,-117
-141,-209,-68,175,-36,-139,-151,-141,200,-87,-82,-122
-141,-219,-78,180,-31,-148,-146,-146,204,-87,-82,-122
-131,-204,-73,168,-29,-139,-141,-146,209,-92,-82,-126
-126,-195,-68,161,-29,-131,-151,-136,219,-87,-82,-131
-122,-204,-82,163,-19,-143,-151,-136,219,-87,-82,-131
-117,-204,-87,161,-14,-146,-151,-136,224,-87,-87,-141
-112,-204,-92,158,-9,-148,-151,-136,224,-87,-92,-141
-131,-214,-82,173,-24,-148,-165,-146,214,-92,-92,-126
-136,-214,-78,175,-29,-146,-170,-156,209,-97,-92,-117
-136,-209,-73,173,-31,-141,-170,-161,214,-97,-92,-107
-122,-200,-78,161,-21,-139,-175,-161,209,-97,-97,-102
-112,-195,-82,153,-14,-139,-170,-151,204,-92,-92,-122
-107,-195,-87,151,-9,-141,-165,-156,200,-92,-87,-122
-112,-200,-87,156,-12,-143,-156,-156,200,-92,-82,-122
-117,-200,-82,158,-17,-141,-151,-156,200,-87,-82,-122
-107,-219,-112,163,2,-165,-151,-146,209,-87,-92,-112
-102,-219,-117,161,7,-168,-146,-146,214,-92,-92,-112
-97,-224,-126,161,14,-175,-146,-141,214,-102,-92,-102
-97,-224,-126,161,14,-175,-146,-141,209,-107,-92,-102
-136,-185,-48,161,-43,-117,-185,-185,180,-131,-126,-117
-122,-161,-39,141,-41,-100,-185,-180,190,-141,-136,-136
-107,-156,-48,131,-29,-102,-156,-165,195,-136,-136,-165
-122,-170,-48,146,-36,-109,-165,-165,195,-126,-131,-151
-126,-185,-58,156,-34,-122,-165,-165,195,-126,-126,-146
-131,-200,-68,165,-31,-134,-165,-165,195,-126,-122,-141
-136,-214,-78,175,-29,-146,-165,-165,195,-126,-117,-136
-131,-219,-87,175,-21,-153,-161,-165,204,-112,-112,-126
-126,-224,-97,175,-14,-161,-156,-161,209,-102,-112,-131
-122,-214,-92,168,-14,-153,-146,-161,209,-97,-107,-136
-117,-219,-102,168,-7,-161,-141,-161,209,-97,-102,-141
-117,-224,-107,170,-4,-165,-151,-170,200,-112,-112,-131
-122,-224,-102,173,-9,-163,-151,-170,200,-112,-112,-126
-122,-224,-102,173,-9,-163,-141,-161,209,-107,-102,-117
-117,-214,-97,165,-9,-156,-136,-156,214,-102,-92,-107
-107,-185,-78,146,-14,-131,-136,-146,219,-112,-92,-87
-102,-165,-63,134,-19,-114,-131,-146,224,-112,-87,-87
-102,-141,-39,122,-31,-90,-131,-141,229,-107,-82,-82
-102,-117,-14,109,-43,-65,-122,-136,234,-102,-82,-82
-102,-131,-29,117,-36,-80,-117,-146,244,-92,-73,-97
-107,-131,-24,119,-41,-78,-117,-141,253,-87,-63,-92
-112,-136,-24,124,-43,-80,-112,-136,263,-78,-58,-97
-117,-131,-14,124,-51,-73,-112,-136,263,-68,-58,-97
-107,-122,-14,114,-46,-68,-102,-126,268,-53,-48,-92
-102,-122,-19,112,-41,-70,-102,-126,278,-48,-34,-87
-102,-117,-14,109,-43,-65,-102,-131,278,-43,-34,-82
-102,-107,-4,104,-48,-56,-107,-136,273,-34,-48,-78
-92,-92,0,92,-46,-46,-117,-141,268,-43,-58,-87
-87,-87,0,87,-43,-43,-126,-146,263,-58,-58,-87
-82,-87,-4,85,-39,-46,-131,-151,263,-73,-68,-92
-82,-82,0,82,-41,-41,-141,-156,258,-87,-82,-102
-82,-102,-19,92,-31,-61,-136,-151,263,-82,-68,-82
-78,-102,-24,90,-26,-63,-141,-151,263,-78,-63,-73
-78,-97,-19,87,-29,-58,-156,-156,268,-78,-58,-58
-73,-87,-14,80,-29,-51,-161,-156,263,-78,-53,-48
-68,-68,0,68,-34,-34,-161,-151,258,-68,-53,-63
-63,-68,-4,65,-29,-36,-161,-156,253,-73,-63,-78
-73,-82,-9,78,-31,-46,-161,-165,248,-78,-68,-87
-73,-102,-29,87,-21,-65,-161,-180,234,-82,-73,-102
-92,-107,-14,100,-39,-61,-165,-195,224,-82,-82,-102
-92,-82,9,87,-51,-36,-165,-195,224,-82,-78,-87
-87,-73,14,80,-51,-29,-170,-190,224,-87,-78,-82
-97,-68,29,82,-63,-19,-175,-190,224,-87,-78,-82
-92,-97,-4,95,-43,-51,-175,-180,229,-92,-63,-73
-78,-107,-29,92,-24,-68,-175,-165,229,-82,-48,-58
-58,-102,-43,80,-7,-73,-170,-161,229,-82,-43,-48
-53,-112,-58,82,2,-85,-170,-156,229,-82,-39,-34
-68,-126,-58,97,-4,-92,-195,-175,214,-92,-53,-53
-73,-141,-68,107,-2,-104,-195,-185,195,-97,-68,-73
-78,-151,-73,114,-2,-112,-195,-195,190,-112,-78,-92
-92,-156,-63,124,-14,-109,-185,-200,180,-112,-87,-102
-102,-195,-92,148,-4,-143,-175,-185,190,-107,-82,-112
-102,-209,-107,156,2,-158,-175,-180,190,-122,-92,-117
-117,-234,-117,175,0,-175,-175,-180,185,-131,-102,-122
-122,-244,-122,183,0,-183,-175,-180,190,-136,-112,-131
-112,-234,-122,173,4,-178,-170,-190,180,-136,-107,-131
-122,-219,-97,170,-12,-158,-161,-185,180,-136,-112,-131
-126,-244,-117,185,-4,-180,-156,-180,180,-136,-112,-136
-136,-268,-131,202,-2,-200,-156,-180,170,-146,-117,-141
-126,-253,-126,190,0,-190,-156,-180,161,-161,-126,-136
-126,-248,-122,187,-2,-185,-156,-180,161,-161,-126,-131
-126,-239,-112,183,-7,-175,-156,-185,161,-161,-136,-131
-126,-234,-107,180,-9,-170,-156,-185,156,-161,-136,-131
-131,-253,-122,192,-4,-187,-156,-175,161,-156,-141,-146
-131,-253,-122,192,-4,-187,-151,-180,161,-156,-141,-151
-131,-253,-122,192,-4,-187,-146,-180,156,-156,-146,-151
-136,-258,-122,197,-7,-190,-141,-185,151,-175,-156,-156
-141,-273,-131,207,-4,-202,-141,-195,141,-180,-165,-175
-146,-283,-136,214,-4,-209,-141,-200,141,-185,-165,-175
-151,-292,-141,222,-4,-217,-141,-200,146,-190,-165,-175
-156,-302,-146,229,-4,-224,-136,-195,146,-190,-161,-165
-156,-307,-151,231,-2,-229,-141,-195,136,-180,-161,-175
-161,-297,-136,229,-12,-217,-146,-195,136,-180,-161,-175
-161,-273,-112,217,-24,-192,-151,-195,136,-180,-156,-175
-146,-263,-117,204,-14,-190,-151,-190,136,-180,-156,-175
-151,-273,-122,212,-14,-197,-141,-185,141,-180,-146,-170
-146,-278,-131,212,-7,-204,-141,-185,141,-185,-151,-161
-141,-278,-136,209,-2,-207,-141,-180,141,-185,-156,-156
-146,-283,-136,214,-4,-209,-141,-175,141,-180,-156,-146
-156,-292,-136,224,-9,-214,-131,-180,146,-170,-156,-156
-156,-292,-136,224,-9,-214,-131,-180,146,-170,-156,-156
-165,-292,-126,229,-19,-209,-131,-180,146,-165,-156,-151
-151,-292,-141,222,-4,-217,-131,-180,146,-165,-156,-151
-151,-302,-151,226,0,-226,-146,-190,146,-170,-151,-161
-151,-302,-151,226,0,-226,-146,-190,141,-170,-151,-161
-165,-302,-136,234,-14,-219,-146,-195,141,-175,-151,-170
-165,-302,-136,234,-14,-219,-141,-195,141,-180,-156,-156
-156,-283,-126,219,-14,-204,-136,-175,151,-165,-136,-146
-156,-268,-112,212,-21,-190,-126,-165,146,-185,-156,-146
-165,-278,-112,222,-26,-195,-126,-170,136,-204,-175,-165
-165,-302,-136,234,-14,-219,-136,-175,146,-200,-204,-185
-146,-283,-136,214,-4,-209,-126,-151,180,-170,-195,-185
-107,-214,-107,161,0,-161,-87,-97,219,-126,-141,-156
-87,-195,-107,141,9,-151,-82,-48,273,-68,-78,-112
-92,-195,-102,143,4,-148,-102,-4,336,4,-39,-97
-92,-165,-73,129,-9,-119,-78,43,405,68,4,-82
-53,-131,-78,92,12,-104,-43,117,502,180,112,-4
-14,-112,-97,63,41,-104,-34,185,590,322,244,87
19,-97,-117,39,68,-107,-43,170,629,458,380,170
73,-29,-102,-21,87,-65,-73,97,629,634,570,297
151,82,-68,-117,109,7,-126,24,629,854,814,483
200,185,-14,-192,107,85,-195,-97,575,1024,1039,639
244,297,53,-270,95,175,-273,-258,478,1122,1195,756
287,424,136,-356,75,280,-351,-414,400,1220,1366,893
322,507,185,-414,68,346,-448,-546,326,1317,1503,1010
366,556,190,-461,87,373,-580,-688,209,1273,1532,1078
380,531,151,-456,114,341,-736,-868,29,1112,1439,1122
331,483,151,-407,90,317,-922,-1098,-175,907,1278,1112
253,448,195,-351,29,322,-1063,-1288,-346,697,1068,1005
248,317,68,-283,90,192,-1146,-1376,-502,453,819,810
244,131,-112,-187,178,9,-1224,-1420,-658,165,536,610
175,53,-122,-114,148,-34,-1254,-1473,-810,-102,273,458
107,39,-68,-73,87,-14,-1205,-1493,-917,-356,68,351
39,-39,-78,0,58,-58,-1117,-1424,-946,-570,-131,229
-29,-82,-53,56,12,-68,-1000,-1298,-858,-629,-244,126
-43,-73,-29,58,-7,-51,-868,-1107,-688,-527,-219,122
-39,-73,-34,56,-2,-53,-741,-936,-517,-419,-170,122
-68,-112,-43,90,-12,-78,-629,-785,-400,-385,-200,68
-92,-136,-43,114,-24,-90,-502,-634,-273,-341,-219,-9
-92,-146,-53,119,-19,-100,-385,-497,-156,-292,-209,-43
-122,-190,-68,156,-26,-129,-312,-409,-73,-273,-229,-78
-161,-263,-102,212,-29,-183,-248,-336,0,-248,-219,-117
-170,-283,-112,226,-29,-197,-200,-268,63,-209,-190,-131
-122,-248,-126,185,2,-187,-180,-214,97,-185,-175,-136
-97,-244,-146,170,24,-195,-161,-190,102,-175,-165,-136
-117,-278,-161,197,21,-219,-146,-170,102,-165,-165,-136
-136,-273,-136,204,0,-204,-131,-151,97,-175,-170,-141
-141,-278,-136,209,-2,-207,-122,-146,107,-180,-180,-161
-156,-278,-122,217,-17,-200,-122,-151,112,-185,-200,-170
-156,-283,-126,219,-14,-204,-122,-156,122,-185,-204,-185
-126,-287,-161,207,17,-224,-107,-151,146,-170,-195,-170
-117,-283,-165,200,24,-224,-102,-141,151,-170,-190,-165
-117,-278,-161,197,21,-219,-102,-126,151,-165,-185,-165
-107,-263,-156,185,24,-209,-87,-102,151,-165,-175,-165
-117,-253,-136,185,9,-195,-78,-97,141,-175,-175,-175
-117,-253,-136,185,9,-195,-78,-92,151,-180,-180,-185
-112,-248,-136,180,12,-192,-82,-92,156,-180,-190,-175
-112,-244,-131,178,9,-187,-92,-92,161,-180,-180,-170
-122,-244,-122,183,0,-183,-87,-92,165,-175,-185,-175
-122,-253,-131,187,4,-192,-82,-92,170,-175,-190,-185
-122,-244,-122,183,0,-183,-73,-92,170,-165,-190,-190
-117,-244,-126,180,4,-185,-68,-78,170,-161,-185,-185
-102,-253,-151,178,24,-202,-53,-68,180,-156,-165,-175
-102,-244,-141,173,19,-192,-53,-68,180,-156,-165,-165
-97,-234,-136,165,19,-185,-53,-63,180,-161,-165,-156
-92,-234,-141,163,24,-187,-53,-63,190,-161,-165,-146
-92,-229,-136,161,21,-183,-53,-73,195,-151,-161,-156
-92,-229,-136,161,21,-183,-53,-73,195,-151,-161,-156
-87,-229,-141,158,26,-185,-53,-73,195,-151,-151,-156
-87,-229,-141,158,26,-185,-48,-73,195,-146,-151,-156
-97,-239,-141,168,21,-190,-48,-53,204,-136,-141,-141
-87,-234,-146,161,29,-190,-43,-43,204,-136,-141,-141
-68,-219,-151,143,41,-185,-43,-34,214,-131,-126,-136
-82,-234,-151,158,34,-192,-43,-34,214,-131,-126,-136
-107,-244,-136,175,14,-190,-53,-58,200,-131,-131,-141
-112,-239,-126,175,7,-183,-58,-63,204,-126,-136,-146
-102,-219,-117,161,7,-168,-63,-68,204,-117,-136,-151
-107,-204,-97,156,-4,-151,-58,-73,200,-112,-136,-156
-92,-219,-126,156,17,-173,-53,-58,200,-117,-141,-156
-92,-219,-126,156,17,-173,-48,-48,200,-117,-136,-156
-87,-219,-131,153,21,-175,-43,-39,200,-117,-136,-151
-82,-219,-136,151,26,-178,-39,-24,204,-122,-131,-151
-87,-224,-136,156,24,-180,-43,-29,204,-126,-122,-131
-82,-224,-141,153,29,-183,-43,-34,219,-126,-112,-117
-82,-219,-136,151,26,-178,-39,-39,219,-126,-112,-122
-87,-219,-131,153,21,-175,-39,-43,219,-122,-112,-117
-82,-219,-136,151,26,-178,-29,-39,219,-112,-112,-117
-82,-219,-136,151,26,-178,-29,-29,224,-112,-107,-117
-78,-204,-126,141,24,-165,-29,-19,229,-112,-102,-117
-68,-200,-131,134,31,-165,-29,-14,234,-112,-102,-117
-68,-190,-122,129,26,-156,-39,-9,229,-102,-112,-126
-68,-190,-122,129,26,-156,-39,-14,234,-102,-112,-126
-73,-190,-117,131,21,-153,-39,-19,234,-102,-112,-126
-78,-190,-112,134,17,-151,-39,-19,234,-102,-112,-146
-68,-175,-107,122,19,-141,-34,-4,234,-87,-102,-131
-58,-165,-107,112,24,-136,-29,-4,244,-78,-87,-102
-48,-156,-107,102,29,-131,-29,0,244,-73,-78,-87
-48,-151,-102,100,26,-126,-29,4,244,-68,-73,-78
-68,-161,-92,114,12,-126,-14,0,248,-73,-82,-87
-73,-185,-112,129,19,-148,-14,0,253,-73,-82,-92
-68,-195,-126,131,29,-161,-14,4,258,-73,-78,-97
-68,-204,-136,136,34,-170,-9,9,263,-73,-78,-102
-63,-190,-126,126,31,-158,-19,19,263,-68,-73,-87
-63,-165,-102,114,19,-134,-14,19,263,-53,-58,-73
-58,-151,-92,104,17,-122,-9,34,273,-43,-53,-73
-53,-141,-87,97,17,-114,0,39,278,-29,-43,-63
-43,-141,-97,92,26,-119,-19,34,278,-39,-48,-63
-43,-141,-97,92,26,-119,-19,39,283,-39,-48,-63
-43,-136,-92,90,24,-114,-14,39,287,-39,-43,-68
-29,-131,-102,80,36,-117,-4,48,297,-24,-39,-68
-19,-122,-102,70,41,-112,-9,48,307,-14,-24,-58
-19,-97,-78,58,29,-87,-9,53,312,-4,-14,-53
-19,-92,-73,56,26,-82,-9,58,322,4,-4,-53
-19,-92,-73,56,26,-82,-9,63,326,14,-4,-53
-14,-92,-78,53,31,-85,0,73,326,14,-14,-43
4,-82,-87,39,46,-85,9,87,341,24,-4,-39
9,-68,-78,29,43,-73,14,97,351,24,0,-39
14,-68,-82,26,48,-75,14,107,370,29,9,-34
19,-43,-63,12,41,-53,9,107,370,43,14,-19
19,-34,-53,7,36,-43,4,107,375,58,24,-14
19,-24,-43,2,31,-34,0,122,380,73,34,-9
9,-19,-29,4,19,-24,0,122,385,87,43,0
19,-19,-39,0,29,-29,9,131,400,97,58,-9
19,-4,-24,-7,21,-14,9,131,419,102,78,0
34,0,-34,-17,34,-17,19,141,429,112,82,4
53,9,-43,-31,48,-17,19,161,444,126,92,9
39,9,-29,-24,34,-9,24,170,453,131,87,9
34,9,-24,-21,29,-7,34,180,458,141,97,19
34,4,-29,-19,31,-12,34,195,478,165,107,34
48,19,-29,-34,39,-4,34,209,497,190,122,53
53,58,4,-56,24,31,34,209,502,219,131,73
48,63,14,-56,17,39,29,219,522,224,151,78
39,68,29,-53,4,48,34,234,531,239,170,87
58,82,24,-70,17,53,34,239,541,253,190,107
53,97,43,-75,4,70,29,248,546,268,219,107
53,97,43,-75,4,70,29,258,546,278,229,117
78,126,48,-102,14,87,29,258,570,297,239,131
82,136,53,-109,14,95,29,253,575,317,253,146
78,151,73,-114,2,112,29,253,570,322,248,146
82,165,82,-124,0,124,29,263,585,341,258,146
87,175,87,-131,0,131,29,268,595,341,273,146
82,190,107,-136,-12,148,24,273,595,351,292,161
87,200,112,-143,-12,156,24,278,590,361,302,170
92,200,107,-146,-7,153,24,278,600,361,302,175
97,209,112,-153,-7,161,24,273,610,370,307,190
97,209,112,-153,-7,161,24,263,610,390,312,200
87,190,102,-139,-7,146,19,263,600,390,326,195
102,185,82,-143,9,134,9,258,600,390,326,195
107,190,82,-148,12,136,9,258,595,390,326,214
107,185,78,-146,14,131,9,258,585,390,326,224
97,209,112,-153,-7,161,0,244,575,385,336,219
102,229,126,-165,-12,178,4,239,575,380,331,214
107,219,112,-163,-2,165,4,239,575,375,326,209
97,204,107,-151,-4,156,0,224,570,366,322,204
92,200,107,-146,-7,153,-4,214,556,351,317,195
97,204,107,-151,-4,156,-9,204,541,346,307,195
92,204,112,-148,-9,158,-19,200,531,341,297,195
87,180,92,-134,-2,136,-24,195,517,336,287,185
87,185,97,-136,-4,141,-14,185,497,326,273,180
92,180,87,-136,2,134,-14,180,492,317,268,175
92,180,87,-136,2,134,-14,170,488,302,268,170
97,175,78,-136,9,126,-19,161,478,278,253,165
82,165,82,-124,0,124,-9,156,463,253,234,165
82,156,73,-119,4,114,-14,141,444,234,224,156
73,136,63,-104,4,100,-24,122,419,214,204,141
63,97,34,-80,14,65,-34,102,395,209,195,141
73,97,24,-85,24,61,-43,87,385,180,180,117
78,97,19,-87,29,58,-48,78,375,161,170,107
78,107,29,-92,24,68,-48,63,361,151,156,107
78,97,19,-87,29,58,-53,53,351,122,146,97
63,73,9,-68,26,41,-53,53,322,87,122,82
48,48,0,-48,24,24,-53,34,302,68,107,73
43,29,-14,-36,29,7,-48,24,278,53,92,63
39,19,-19,-29,29,0,-48,14,258,43,73,58
29,0,-29,-14,29,-14,-53,14,258,34,73,43
29,0,-29,-14,29,-14,-53,0,248,24,53,39
29,-4,-34,-12,31,-19,-53,-4,244,9,48,43
19,-19,-39,0,29,-29,-68,-9,239,-9,39,48
29,-29,-58,0,43,-43,-73,-9,224,-19,14,19
39,-19,-58,-9,48,-39,-68,-19,209,-29,0,14
39,-9,-48,-14,43,-29,-68,-29,200,-39,-4,9
29,-19,-48,-4,39,-34,-63,-43,180,-53,-14,9
29,-29,-58,0,43,-43,-63,-39,185,-53,-24,-14
29,-34,-63,2,46,-48,-63,-53,175,-63,-34,-29
24,-48,-73,12,48,-61,-63,-58,170,-78,-39,-29
14,-58,-73,21,43,-65,-63,-63,161,-82,-43,-39
24,-48,-73,12,48,-61,-58,-63,156,-87,-53,-29
34,-48,-82,7,58,-65,-53,-58,156,-82,-48,-24
24,-53,-78,14,51,-65,-58,-58,141,-82,-48,-19
24,-53,-78,14,51,-65,-58,-58,131,-82,-48,-14
14,-63,-78,24,46,-70,-73,-63,141,-92,-53,-14
9,-63,-73,26,41,-68,-73,-68,136,-92,-58,-19
9,-68,-78,29,43,-73,-68,-78,131,-102,-68,-39
9,-82,-92,36,51,-87,-68,-87,126,-112,-78,-48
9,-78,-87,34,48,-82,-63,-78,122,-122,-92,-53
9,-78,-87,34,48,-82,-63,-78,117,-126,-92,-48
14,-78,-92,31,53,-85,-63,-78,112,-126,-87,-43
14,-78,-92,31,53,-85,-68,-82,112,-131,-87,-39
9,-87,-97,39,53,-92,-68,-87,107,-141,-107,-53
9,-87,-97,39,53,-92,-68,-87,102,-141,-112,-58
14,-78,-92,31,53,-85,-68,-82,102,-141,-112,-48
14,-92,-107,39,61,-100,-68,-82,107,-141,-107,-53
14,-87,-102,36,58,-95,-73,-87,107,-136,-97,-53
14,-87,-102,36,58,-95,-68,-92,102,-136,-92,-53
14,-82,-97,34,56,-90,-68,-97,97,-136,-92,-48
14,-78,-92,31,53,-85,-68,-107,78,-141,-97,-48
9,-78,-87,34,48,-82,-68,-97,87,-141,-102,-53
19,-78,-97,29,58,-87,-68,-97,87,-141,-102,-53
4,-82,-87,39,46,-85,-73,-92,87,-126,-102,-63
-9,-107,-97,58,43,-102,-73,-92,87,-141,-102,-73
4,-97,-102,46,53,-100,-63,-102,97,-146,-112,-73
19,-87,-107,34,63,-97,-48,-97,97,-146,-117,-58
24,-78,-102,26,63,-90,-58,-97,87,-146,-117,-58
19,-78,-97,29,58,-87,-73,-107,78,-151,-122,-58
9,-82,-92,36,51,-87,-63,-107,68,-175,-126,-63
19,-87,-107,34,63,-97,-63,-102,63,-165,-136,-68
9,-97,-107,43,58,-102,-63,-102,63,-170,-141,-82
9,-102,-112,46,61,-107,-58,-107,68,-180,-141,-87
0,-97,-97,48,48,-97,-58,-107,73,-185,-146,-82
0,-97,-97,48,48,-97,-53,-112,73,-180,-146,-92
0,-92,-92,46,46,-92,-48,-112,73,-175,-146,-97
0,-92,-92,46,46,-92,-48,-107,73,-170,-151,-97
0,-92,-92,46,46,-92,-58,-92,63,-170,-146,-87
4,-92,-97,43,51,-95,-58,-87,68,-170,-141,-63
4,-102,-107,48,56,-104,-53,-87,68,-170,-136,-63
-4,-87,-82,46,39,-85,-53,-92,63,-165,-141,-68
4,-87,-92,41,48,-90,-53,-92,63,-156,-136,-68
4,-78,-82,36,43,-80,-58,-92,63,-156,-136,-68
4,-92,-97,43,51,-95,-58,-92,63,-165,-141,-73
4,-92,-97,43,51,-95,-48,-92,63,-165,-141,-78
4,-82,-87,39,46,-85,-58,-92,68,-165,-141,-87
0,-82,-82,41,41,-82,-58,-87,68,-165,-141,-78
0,-87,-87,43,43,-87,-58,-87,68,-170,-146,-78
-4,-87,-82,46,39,-85,-58,-87,58,-170,-146,-82
0,-78,-78,39,39,-78,-58,-78,68,-161,-146,-78
4,-78,-82,36,43,-80,-48,-78,68,-151,-136,-68
9,-73,-82,31,46,-78,-43,-68,78,-141,-131,-63
19,-58,-78,19,48,-68,-43,-68,78,-141,-131,-58
14,-73,-87,29,51,-80,-53,-73,78,-126,-126,-58
9,-68,-78,29,43,-73,-53,-73,87,-126,-122,-68
0,-87,-87,43,43,-87,-48,-73,92,-126,-107,-63
-4,-82,-78,43,36,-80,-48,-73,92,-126,-102,-58
19,-73,-92,26,56,-82,-48,-73,87,-117,-102,-63
9,-63,-73,26,41,-68,-48,-73,78,-122,-112,-63
0,-68,-68,34,34,-68,-53,-73,87,-122,-112,-63
29,-48,-78,9,53,-63,-53,-63,87,-122,-112,-68
24,-39,-63,7,43,-51,-48,-68,92,-117,-107,-63
19,-39,-58,9,39,-48,-53,-58,92,-117,-102,-63
0,-39,-39,19,19,-39,-58,-68,92,-112,-102,-58
-4,-39,-34,21,14,-36,-63,-78,92,-112,-107,-53
0,-43,-43,21,21,-43,-58,-68,87,-102,-107,-63
0,-53,-53,26,26,-53,-58,-63,87,-102,-102,-48
0,-58,-58,29,29,-58,-53,-53,87,-102,-92,-48
4,-63,-68,29,36,-65,-48,-63,97,-97,-87,-48
9,-48,-58,19,34,-53,-48,-58,107,-92,-82,-39
24,-48,-73,12,48,-61,-48,-53,107,-87,-87,-39
19,-43,-63,12,41,-53,-48,-48,107,-82,-82,-39
14,-19,-34,2,24,-26,-48,-43,102,-73,-73,-39
14,-39,-53,12,34,-46,-48,-39,92,-78,-73,-34
19,-43,-63,12,41,-53,-43,-39,92,-82,-73,-34
24,-53,-78,14,51,-65,-39,-34,107,-78,-63,-24
29,-39,-68,4,48,-53,-39,-34,107,-82,-63,-24
19,-14,-34,-2,26,-24,-48,-29,107,-82,-68,-29
34,-14,-48,-9,41,-31,-53,-29,107,-82,-73,-34
24,-14,-39,-4,31,-26,-53,-34,107,-78,-68,-43
19,-24,-43,2,31,-34,-53,-43,107,-68,-73,-48
9,-39,-48,14,29,-43,-43,-43,97,-78,-78,-43
9,-29,-39,9,24,-34,-48,-43,92,-78,-78,-34
14,-24,-39,4,26,-31,-48,-48,87,-87,-78,-34
14,-39,-53,12,34,-46,-48,-48,87,-87,-73,-39
19,-43,-63,12,41,-53,-39,-43,92,-73,-53,-34
14,-43,-58,14,36,-51,-43,-43,92,-68,-63,-34
14,-53,-68,19,41,-61,-43,-48,92,-68,-63,-29
24,-39,-63,7,43,-51,-43,-48,92,-73,-63,-29
34,-24,-58,-4,46,-41,-43,-39,82,-78,-63,-34
34,-29,-63,-2,48,-46,-43,-39,82,-78,-63,-34
34,-24,-58,-4,46,-41,-43,-39,87,-78,-68,-43
34,-19,-53,-7,43,-36,-43,-39,87,-78,-73,-43
14,-48,-63,17,39,-56,-53,-43,78,-78,-73,-43
9,-48,-58,19,34,-53,-53,-48,73,-78,-73,-39
9,-43,-53,17,31,-48,-48,-48,78,-73,-73,-34
24,-34,-58,4,41,-46,-48,-43,73,-68,-78,-34
29,-39,-68,4,48,-53,-43,-53,73,-73,-68,-43
29,-39,-68,4,48,-53,-48,-58,63,-82,-68,-43
19,-43,-63,12,41,-53,-48,-58,58,-92,-68,-43
9,-43,-53,17,31,-48,-53,-58,53,-97,-73,-43
4,-43,-48,19,26,-46,-53,-58,53,-82,-82,-48
4,-43,-48,19,26,-46,-48,-58,58,-82,-82,-53
4,-48,-53,21,29,-51,-48,-53,58,-87,-82,-48
0,-48,-48,24,24,-48,-48,-53,53,-87,-82,-53
4,-48,-53,21,29,-51,-48,-48,53,-82,-78,-53
4,-53,-58,24,31,-56,-48,-53,53,-82,-78,-48
4,-53,-58,24,31,-56,-58,-63,53,-92,-73,-53
9,-48,-58,19,34,-53,-58,-63,48,-102,-73,-48
0,-39,-39,19,19,-39,-48,-63,48,-92,-73,-43
4,-39,-43,17,24,-41,-48,-58,48,-87,-78,-34
4,-48,-53,21,29,-51,-53,-58,48,-87,-82,-39
0,-48,-48,24,24,-48,-53,-63,43,-92,-97,-43
-9,-39,-29,24,9,-34,-53,-73,39,-102,-97,-63
-9,-53,-43,31,17,-48,-43,-63,48,-107,-87,-58
9,-68,-78,29,43,-73,-43,-63,48,-97,-82,-63
9,-48,-58,19,34,-53,-58,-68,39,-97,-97,-68
19,-43,-63,12,41,-53,-48,-68,39,-87,-87,-58
19,-39,-58,9,39,-48,-48,-68,39,-87,-87,-58
19,-34,-53,7,36,-43,-48,-68,39,-87,-87,-58
19,-29,-48,4,34,-39,-48,-68,39,-87,-87,-58
4,-43,-48,19,26,-46,-58,-73,34,-92,-87,-58
0,-48,-48,24,24,-48,-58,-73,34,-92,-92,-63
-4,-39,-34,21,14,-36,-53,-78,29,-97,-92,-68
-9,-43,-34,26,12,-39,-53,-82,24,-107,-92,-73
4,-43,-48,19,26,-46,-43,-78,34,-97,-92,-82
4,-39,-43,17,24,-41,-43,-73,34,-92,-92,-78
9,-34,-43,12,26,-39,-34,-58,43,-82,-82,-68
19,-19,-39,0,29,-29,-29,-48,48,-73,-73,-58
9,-9,-19,0,14,-14,-19,-58,53,-63,-73,-48
14,0,-14,-7,14,-7,-14,-58,58,-63,-68,-48
14,14,0,-14,7,7,-14,-53,63,-58,-63,-43
14,29,14,-21,0,21,-4,-48,68,-53,-63,-43
19,24,4,-21,7,14,0,-48,58,-58,-63,-34
19,24,4,-21,7,14,0,-43,68,-58,-53,-24
19,19,0,-19,9,9,4,-39,78,-53,-48,-24
19,24,4,-21,7,14,4,-39,78,-48,-48,-19
24,48,24,-36,0,36,4,-29,82,-48,-48,-9
34,53,19,-43,7,36,4,-29,92,-48,-34,-9
39,63,24,-51,7,43,4,-34,92,-48,-34,-9
43,78,34,-61,4,56,0,-39,87,-43,-48,-9
29,63,34,-46,-2,48,-4,-39,87,-39,-39,-9
29,58,29,-43,0,43,-9,-39,87,-39,-29,-9
29,48,19,-39,4,34,-9,-39,92,-39,-29,-14
24,43,19,-34,2,31,-14,-39,92,-39,-34,-24
24,39,14,-31,4,26,-29,-39,87,-39,-34,-24
29,43,14,-36,7,29,-34,-43,78,-39,-34,-24
29,53,24,-41,2,39,-48,-53,73,-43,-34,-19
34,68,34,-51,0,51,-53,-58,58,-48,-34,-19
39,87,48,-63,-4,68,-48,-53,63,-39,-34,-14
43,87,43,-65,0,65,-53,-58,58,-43,-43,-19
34,73,39,-53,-2,56,-58,-68,53,-48,-48,-19
34,53,19,-43,7,36,-63,-82,39,-53,-53,-24
14,34,19,-24,-2,26,-78,-92,24,-63,-63,-39
14,53,39,-34,-12,46,-78,-97,19,-63,-58,-29
19,58,39,-39,-9,48,-82,-97,14,-68,-58,-29
9,58,48,-34,-19,53,-87,-102,9,-68,-58,-34
9,39,29,-24,-9,34,-87,-97,24,-58,-48,-24
19,39,19,-29,0,29,-87,-87,24,-43,-39,-19
34,53,19,-43,7,36,-82,-87,24,-39,-39,-19
34,53,19,-43,7,36,-82,-87,24,-34,-39,-14
39,43,4,-41,17,24,-87,-92,14,-53,-43,-14
34,24,-9,-29,21,7,-87,-97,0,-58,-58,-24
29,9,-19,-19,24,-4,-87,-102,0,-73,-68,-34
14,0,-14,-7,14,-7,-78,-102,-4,-73,-78,-34
4,-29,-34,12,19,-31,-82,-102,-14,-82,-73,-43
4,-43,-48,19,26,-46,-87,-102,-24,-102,-82,-48
-9,-68,-58,39,24,-63,-92,-107,-39,-117,-92,-53
-14,-78,-63,46,24,-70,-97,-112,-43,-126,-102,-63
-4,-73,-68,39,31,-70,-82,-112,-43,-122,-107,-73
-14,-53,-39,34,12,-46,-73,-107,-43,-117,-112,-73
-19,-73,-53,46,17,-63,-68,-102,-43,-112,-112,-78
-29,-92,-63,61,17,-78,-68,-102,-53,-117,-117,-82
-29,-102,-73,65,21,-87,-78,-102,-63,-126,-126,-92
-29,-102,-73,65,21,-87,-78,-102,-63,-131,-126,-92
-29,-97,-68,63,19,-82,-78,-107,-63,-136,-136,-97
-29,-97,-68,63,19,-82,-78,-107,-68,-141,-136,-102
-24,-117,-92,70,34,-104,-78,-97,-63,-136,-131,-97
-24,-117,-92,70,34,-104,-73,-102,-63,-136,-131,-102
-24,-117,-92,70,34,-104,-68,-102,-68,-136,-136,-102
-29,-122,-92,75,31,-107,-63,-107,-73,-156,-146,-107
-24,-112,-87,68,31,-100,-63,-97,-78,-141,-136,-117
-19,-107,-87,63,34,-97,-63,-102,-73,-136,-136,-117
-14,-102,-87,58,36,-95,-63,-102,-63,-131,-136,-117
-9,-97,-87,53,39,-92,-58,-97,-58,-122,-131,-107
-24,-117,-92,70,34,-104,-58,-107,-63,-126,-136,-117
-34,-122,-87,78,26,-104,-58,-107,-68,-131,-141,-117
-39,-112,-73,75,17,-92,-58,-107,-73,-136,-141,-117
-29,-117,-87,73,29,-102,-53,-102,-78,-141,-146,-117
-34,-126,-92,80,29,-109,-63,-102,-82,-151,-146,-112
-29,-131,-102,80,36,-117,-63,-107,-82,-156,-151,-112
-24,-131,-107,78,41,-119,-63,-107,-82,-156,-156,-117
-29,-136,-107,82,39,-122,-63,-107,-82,-151,-156,-117
-43,-151,-107,97,31,-129,-53,-102,-87,-151,-156,-117
-48,-156,-107,102,29,-131,-53,-102,-87,-151,-156,-117
-63,-161,-97,112,17,-129,-53,-102,-87,-146,-156,-112
-53,-165,-112,109,29,-139,-53,-102,-87,-146,-156,-112
-29,-156,-126,92,48,-141,-58,-102,-78,-141,-161,-122
-24,-146,-122,85,48,-134,-58,-102,-82,-141,-161,-122
-34,-136,-102,85,34,-119,-58,-107,-82,-146,-161,-131
-29,-126,-97,78,34,-112,-53,-107,-82,-151,-165,-117
-29,-126,-97,78,34,-112,-48,-97,-82,-136,-165,-107
-48,-151,-102,100,26,-126,-48,-97,-87,-146,-165,-126
-39,-131,-92,85,26,-112,-48,-92,-87,-146,-175,-136
-19,-107,-87,63,34,-97,-39,-78,-78,-151,-165,-126
-29,-126,-97,78,34,-112,-29,-73,-63,-141,-165,-126
-19,-126,-107,73,43,-117,-19,-39,-24,-117,-161,-126
9,-87,-97,39,53,-92,14,29,48,-48,-107,-102
34,-48,-82,7,58,-65,34,102,131,24,-58,-78
53,-19,-73,-17,63,-46,48,170,209,97,-4,-34
73,14,-58,-43,65,-21,73,244,297,200,82,14
82,63,-19,-73,51,21,82,283,385,351,204,97
126,126,0,-126,63,63,63,248,424,497,341,190
209,204,-4,-207,107,100,24,165,405,634,492,297
268,317,48,-292,109,183,-29,73,385,824,717,444
326,429,102,-378,112,265,-107,-39,380,1044,971,629
400,541,141,-470,129,341,-175,-180,341,1229,1185,785
434,629,195,-531,119,412,-244,-336,263,1337,1337,912
448,683,234,-566,107,458,-380,-497,190,1444,1483,1039
502,741,239,-622,131,490,-570,-668,82,1488,1590,1146
556,775,219,-666,168,497,-795,-878,-87,1415,1595,1210
546,785,239,-666,153,512,-1019,-1137,-312,1220,1493,1190
517,790,273,-653,122,531,-1161,-1337,-502,990,1322,1141
502,658,156,-580,173,407,-1215,-1385,-639,756,1112,1044
478,385,-92,-431,285,146,-1254,-1381,-785,458,849,863
419,229,-190,-324,305,19,-1263,-1415,-927,141,566,692
380,204,-175,-292,278,14,-1195,-1405,-1015,-82,331,575
331,156,-175,-244,253,-9,-1098,-1337,-1054,-307,122,463
244,92,-151,-168,197,-29,-980,-1229,-1034,-463,-48,351
170,73,-97,-122,134,-12,-849,-1068,-902,-448,-131,268
126,63,-63,-95,95,0,-712,-888,-751,-370,-141,190
117,43,-73,-80,95,-14,-580,-746,-644,-336,-151,136
102,58,-43,-80,73,7,-473,-634,-556,-331,-170,107
73,39,-34,-56,53,2,-375,-527,-458,-312,-209,53
63,14,-48,-39,56,-17,-292,-419,-375,-283,-219,9
53,-9,-63,-21,58,-36,-219,-326,-302,-258,-219,-19
34,-39,-73,2,53,-56,-161,-239,-209,-219,-229,-63
-4,-112,-107,58,51,-109,-112,-165,-146,-175,-224,-97
-48,-165,-117,107,34,-141,-92,-141,-141,-156,-214,-117
-9,-131,-122,70,56,-126,-58,-122,-131,-146,-204,-107
-4,-122,-117,63,56,-119,-34,-87,-136,-156,-214,-117
-4,-122,-117,63,56,-119,-24,-78,-126,-161,-219,-131
-14,-117,-102,65,43,-109,-24,-78,-122,-165,-234,-136
-9,-117,-107,63,48,-112,-24,-78,-112,-165,-234,-146
-9,-136,-126,73,58,-131,-29,-78,-87,-161,-229,-146
-9,-136,-126,73,58,-131,-24,-73,-82,-161,-229,-146
-19,-136,-117,78,48,-126,-24,-63,-82,-156,-229,-151
-19,-126,-107,73,43,-117,-9,-43,-82,-156,-224,-156
-19,-136,-117,78,48,-126,4,-39,-92,-156,-214,-156
-19,-136,-117,78,48,-126,9,-34,-82,-161,-219,-165
-14,-131,-117,73,51,-124,9,-34,-78,-161,-229,-156
-14,-126,-112,70,48,-119,4,-34,-73,-161,-219,-151
-4,-122,-117,63,56,-119,14,-24,-58,-146,-229,-151
-4,-126,-122,65,58,-124,14,-24,-53,-146,-229,-156
-4,-112,-107,58,51,-109,19,-24,-53,-136,-224,-156
0,-107,-107,53,53,-107,19,-9,-53,-131,-214,-146
9,-117,-126,53,68,-122,24,-9,-53,-117,-195,-146
4,-107,-112,51,58,-109,24,-9,-53,-117,-195,-146
4,-97,-102,46,53,-100,24,-4,-53,-122,-195,-146
4,-97,-102,46,53,-100,24,-4,-43,-122,-195,-146
0,-102,-102,51,51,-102,24,4,-29,-122,-209,-156
-4,-102,-97,53,46,-100,24,4,-29,-122,-209,-156
-4,-102,-97,53,46,-100,24,4,-29,-122,-200,-156
-9,-102,-92,56,41,-97,29,4,-29,-117,-200,-156
-19,-97,-78,58,29,-87,29,9,-34,-126,-209,-156
-9,-87,-78,48,34,-82,34,14,-39,-126,-209,-161
9,-68,-78,29,43,-73,34,19,-34,-122,-195,-161
-4,-78,-73,41,34,-75,34,14,-39,-122,-195,-165
-19,-102,-82,61,31,-92,39,14,-39,-117,-190,-161
-14,-102,-87,58,36,-95,39,14,-29,-117,-195,-156
4,-87,-92,41,48,-90,39,14,-24,-112,-195,-151
9,-78,-87,34,48,-82,48,14,-24,-112,-195,-146
9,-82,-92,36,51,-87,39,14,-14,-102,-180,-146
4,-82,-87,39,46,-85,39,19,-14,-97,-175,-146
4,-82,-87,39,46,-85,39,24,-14,-92,-175,-141
4,-82,-87,39,46,-85,39,34,-9,-92,-170,-141
4,-87,-92,41,48,-90,43,34,-19,-92,-170,-126
4,-87,-92,41,48,-90,43,34,-4,-87,-161,-117
0,-82,-82,41,41,-82,48,34,-4,-82,-161,-126
-9,-82,-73,46,31,-78,48,34,-4,-73,-161,-126
-4,-82,-78,43,36,-80,48,34,-4,-73,-161,-136
-4,-82,-78,43,36,-80,48,39,0,-73,-156,-136
0,-68,-68,34,34,-68,48,43,4,-73,-151,-136
9,-63,-73,26,41,-68,48,43,9,-73,-151,-136
-4,-68,-63,36,29,-65,39,43,9,-68,-156,-141
-9,-73,-63,41,26,-68,39,43,9,-73,-161,-136
-19,-78,-58,48,19,-68,39,43,4,-78,-165,-131
-29,-82,-53,56,12,-68,39,48,0,-82,-170,-146
-29,-82,-53,56,12,-68,43,53,9,-78,-165,-146
-19,-78,-58,48,19,-68,48,53,19,-68,-156,-131
-9,-73,-63,41,26,-68,48,58,19,-63,-151,-131
-9,-73,-63,41,26,-68,48,63,19,-58,-151,-136
-14,-73,-58,43,21,-65,53,68,24,-53,-141,-136
-14,-87,-73,51,29,-80,53,68,29,-53,-141,-131
-4,-87,-82,46,39,-85,53,73,34,-53,-136,-126
0,-87,-87,43,43,-87,58,78,39,-53,-136,-122
-9,-92,-82,51,36,-87,58,78,39,-53,-136,-126
-14,-78,-63,46,24,-70,63,78,39,-43,-126,-112
-14,-73,-58,43,21,-65,68,92,48,-39,-126,-112
-14,-73,-58,43,21,-65,78,97,53,-29,-122,-102
-14,-82,-68,48,26,-75,58,87,53,-29,-117,-107
-14,-82,-68,48,26,-75,58,97,58,-29,-117,-112
-14,-78,-63,46,24,-70,63,102,63,-29,-112,-122
0,-73,-73,36,36,-73,73,117,73,-14,-107,-126
-9,-68,-58,39,24,-63,78,117,82,-19,-107,-117
-9,-48,-39,29,14,-43,78,122,87,-14,-102,-112
-9,-48,-39,29,14,-43,78,126,97,-9,-97,-112
-9,-53,-43,31,17,-48,78,131,102,-4,-102,-112
-4,-43,-39,24,17,-41,78,141,102,4,-92,-102
14,-34,-48,9,31,-41,87,156,117,24,-82,-97
19,-19,-39,0,29,-29,92,165,126,34,-78,-97
24,-19,-43,-2,34,-31,92,175,146,48,-68,-92
24,-19,-43,-2,34,-31,102,180,151,48,-68,-97
19,-14,-34,-2,26,-24,102,185,161,58,-63,-92
14,-9,-24,-2,19,-17,102,204,170,68,-58,-87
0,-9,-9,4,4,-9,107,209,180,78,-53,-78
4,4,0,-4,2,2,107,209,185,78,-58,-78
9,24,14,-17,-2,19,107,209,204,82,-39,-68
29,34,4,-31,12,19,117,219,214,92,-34,-63
53,48,-4,-51,29,21,117,239,229,107,-24,-58
43,58,14,-51,14,36,131,258,239,117,-14,-48
43,68,24,-56,9,46,141,268,244,131,0,-39
48,73,24,-61,12,48,141,283,263,161,14,-24
68,97,29,-82,19,63,141,297,283,190,34,-4
73,131,58,-102,7,95,146,307,307,209,39,-14
68,131,63,-100,2,97,146,317,326,214,53,-19
58,131,73,-95,-7,102,156,331,336,229,68,-19
78,141,63,-109,7,102,161,336,346,244,82,-9
68,146,78,-107,-4,112,161,341,356,268,102,0
63,146,82,-104,-9,114,165,356,361,278,112,9
82,175,92,-129,-4,134,170,361,390,297,122,24
82,185,102,-134,-9,143,175,361,400,317,136,39
87,180,92,-134,-2,136,185,366,405,331,151,58
102,195,92,-148,4,143,185,380,419,351,161,68
117,204,87,-161,14,146,185,390,429,351,175,78
122,219,97,-170,12,158,180,400,429,361,195,102
117,229,112,-173,2,170,170,405,429,370,204,97
112,229,117,-170,-2,173,170,405,434,370,204,97
107,239,131,-173,-12,185,170,400,439,380,209,107
97,239,141,-168,-21,190,170,390,434,400,214,112
102,253,151,-178,-24,202,165,380,429,409,229,107
122,263,141,-192,-9,202,156,375,434,409,229,107
131,283,151,-207,-9,217,156,375,434,409,229,126
136,292,156,-214,-9,224,156,375,429,409,229,136
117,287,170,-202,-26,229,151,361,414,400,234,126
112,287,175,-200,-31,231,151,356,409,400,234,126
107,258,151,-183,-21,204,146,356,405,400,234,126
87,224,136,-156,-24,180,136,341,395,395,234,126
97,229,131,-163,-17,180,136,341,400,380,234,136
107,244,136,-175,-14,190,136,331,385,375,229,136
107,253,146,-180,-19,200,131,326,375,370,224,136
107,239,131,-173,-12,185,131,322,361,366,219,126
102,239,136,-170,-17,187,122,302,336,361,214,126
102,229,126,-165,-12,178,122,297,326,356,209,126
97,224,126,-161,-14,175,122,287,317,346,209,126
97,214,117,-156,-9,165,117,278,302,326,195,126
92,204,112,-148,-9,158,117,268,287,302,185,117
92,204,112,-148,-9,158,112,248,268,283,175,107
82,195,112,-139,-14,153,102,224,244,263,156,92
73,165,92,-119,-9,129,92,200,219,258,146,92
73,170,97,-122,-12,134,92,195,200,248,131,78
78,165,87,-122,-4,126,87,185,190,229,122,68
78,170,92,-124,-7,131,87,170,175,219,107,68
78,156,78,-117,0,117,82,161,165,190,97,58
68,141,73,-104,-2,107,68,146,156,175,68,43
58,126,68,-92,-4,97,63,122,136,156,58,34
58,117,58,-87,0,87,63,107,112,141,48,24
58,117,58,-87,0,87,58,92,92,131,34,19
53,102,48,-78,2,75,68,87,87,122,34,9
58,97,39,-78,9,68,73,78,73,112,14,0
63,87,24,-75,19,56,78,78,63,97,9,0
58,68,9,-63,24,39,68,78,53,78,0,0
48,58,9,-53,19,34,58,58,39,63,-14,-19
58,58,0,-58,29,29,58,48,24,48,-29,-24
58,58,0,-58,29,29,53,39,14,34,-34,-29
48,39,-9,-43,29,14,53,24,-4,14,-43,-29
39,14,-24,-26,31,-4,53,29,0,14,-43,-39
39,4,-34,-21,36,-14,53,14,-9,4,-53,-48
34,-14,-48,-9,41,-31,53,9,-14,-9,-58,-43
24,-29,-53,2,39,-41,53,4,-24,-14,-63,-48
43,-9,-53,-17,48,-31,53,9,-34,-29,-87,-53
53,0,-53,-26,53,-26,53,9,-39,-34,-87,-53
43,4,-39,-24,41,-17,43,4,-58,-43,-92,-53
43,14,-29,-29,36,-7,39,0,-73,-53,-97,-53
39,9,-29,-24,34,-9,24,-14,-82,-63,-107,-58
29,4,-24,-17,26,-9,24,-19,-87,-63,-107,-58
24,-4,-29,-9,26,-17,29,-29,-92,-73,-112,-73
19,-24,-43,2,31,-34,29,-39,-97,-82,-117,-78
19,-24,-43,2,31,-34,24,-39,-92,-73,-122,-87
19,-19,-39,0,29,-29,24,-39,-97,-78,-122,-87
24,-14,-39,-4,31,-26,24,-39,-102,-78,-117,-87
24,-9,-34,-7,29,-21,19,-43,-102,-82,-117,-87
19,-19,-39,0,29,-29,14,-48,-97,-92,-126,-107
19,-19,-39,0,29,-29,19,-48,-102,-92,-131,-107
24,-9,-34,-7,29,-21,24,-43,-102,-92,-131,-92
24,-24,-48,0,36,-36,29,-43,-97,-92,-126,-92
34,-14,-48,-9,41,-31,24,-39,-97,-87,-117,-82
34,-19,-53,-7,43,-36,29,-43,-102,-87,-112,-82
34,-19,-53,-7,43,-36,29,-48,-107,-87,-112,-78
34,-19,-53,-7,43,-36,29,-58,-126,-92,-117,-78
39,-9,-48,-14,43,-29,29,-53,-122,-82,-122,-78
48,-9,-58,-19,53,-34,29,-48,-117,-82,-122,-73
34,-14,-48,-9,41,-31,24,-39,-112,-68,-122,-78
19,-39,-58,9,39,-48,24,-34,-107,-82,-122,-82
39,-24,-63,-7,51,-43,29,-48,-112,-92,-131,-97
48,-19,-68,-14,58,-43,39,-48,-117,-97,-136,-87
48,-14,-63,-17,56,-39,24,-53,-131,-102,-136,-92
39,-19,-58,-9,48,-39,4,-68,-146,-112,-141,-97
48,-4,-53,-21,51,-29,9,-63,-141,-112,-136,-82
58,0,-58,-29,58,-29,14,-53,-141,-97,-136,-78
48,0,-48,-24,48,-24,19,-48,-136,-97,-131,-82
48,4,-43,-26,46,-19,29,-48,-126,-102,-122,-78
58,19,-39,-39,48,-9,19,-39,-131,-117,-122,-78
58,19,-39,-39,48,-9,24,-43,-131,-112,-126,-92
58,24,-34,-41,46,-4,29,-43,-131,-107,-131,-102
58,24,-34,-41,46,-4,29,-39,-131,-102,-141,-107
48,14,-34,-31,41,-9,19,-39,-141,-112,-141,-117
43,4,-39,-24,41,-17,19,-39,-136,-112,-141,-92
34,-14,-48,-9,41,-31,24,-43,-136,-112,-141,-92
14,-9,-24,-2,19,-17,24,-53,-141,-107,-151,-97
29,-4,-34,-12,31,-19,29,-48,-131,-107,-151,-87
34,9,-24,-21,29,-7,29,-43,-131,-107,-146,-87
39,0,-39,-19,39,-19,34,-39,-131,-117,-146,-92
43,4,-39,-24,41,-17,48,-34,-131,-117,-141,-97
48,9,-39,-29,43,-14,39,-43,-126,-117,-131,-97
48,14,-34,-31,41,-9,39,-39,-126,-117,-131,-87
53,14,-39,-34,46,-12,39,-39,-126,-122,-136,-87
53,19,-34,-36,43,-7,39,-39,-136,-122,-136,-92
48,4,-43,-26,46,-19,29,-39,-136,-131,-141,-92
43,0,-43,-21,43,-21,39,-39,-136,-122,-136,-87
39,0,-39,-19,39,-19,43,-29,-126,-112,-136,-87
39,9,-29,-24,34,-9,43,-29,-126,-112,-141,-87
39,9,-29,-24,34,-9,53,-24,-117,-97,-141,-82
39,19,-19,-29,29,0,53,-24,-107,-97,-141,-97
34,4,-29,-19,31,-12,58,-24,-102,-97,-131,-97
34,14,-19,-24,26,-2,58,-24,-102,-97,-131,-97
34,4,-29,-19,31,-12,48,-24,-107,-97,-131,-97
19,4,-14,-12,17,-4,48,-24,-117,-102,-141,-92
4,-9,-14,2,9,-12,43,-24,-107,-102,-141,-87
29,0,-29,-14,29,-14,43,-14,-107,-102,-141,-87
48,14,-34,-31,41,-9,63,-9,-97,-87,-126,-87
48,19,-29,-34,39,-4,63,0,-92,-87,-122,-92
34,24,-9,-29,21,7,63,-9,-87,-82,-122,-92
34,29,-4,-31,19,12,63,-19,-82,-82,-126,-92
39,24,-14,-31,26,4,63,-9,-87,-82,-126,-92
39,24,-14,-31,26,4,58,-4,-87,-82,-122,-78
39,29,-9,-34,24,9,58,4,-87,-82,-112,-78
43,34,-9,-39,26,12,58,-4,-78,-78,-107,-78
34,24,-9,-29,21,7,58,-4,-78,-78,-107,-78
43,19,-24,-31,34,-2,58,-4,-78,-78,-117,-78
34,19,-14,-26,24,2,58,-4,-78,-78,-117,-78
24,39,14,-31,4,26,58,-4,-82,-73,-112,-78
34,34,0,-34,17,17,68,-4,-73,-58,-107,-78
48,34,-14,-41,31,9,73,0,-73,-53,-102,-73
63,29,-34,-46,48,-2,78,9,-58,-39,-87,-58
78,48,-29,-63,53,9,78,14,-58,-34,-82,-53
58,53,-4,-56,31,24,73,9,-63,-48,-87,-58
63,43,-19,-53,41,12,63,9,-68,-53,-92,-63
43,34,-9,-39,26,12,58,4,-73,-53,-87,-73
29,14,-14,-21,21,0,53,-4,-78,-48,-92,-78
39,9,-29,-24,34,-9,58,4,-78,-48,-97,-73
39,19,-19,-29,29,0,58,4,-82,-48,-97,-63
43,24,-19,-34,31,2,63,0,-87,-58,-97,-63
43,9,-34,-26,39,-12,68,0,-87,-58,-92,-68
29,9,-19,-19,24,-4,58,4,-92,-63,-92,-73
24,14,-9,-19,17,2,53,4,-92,-58,-102,-73
24,9,-14,-17,19,-2,53,0,-92,-58,-102,-68
34,29,-4,-31,19,12,53,0,-92,-63,-102,-68
39,39,0,-39,19,19,63,0,-82,-63,-87,-53
43,29,-14,-36,29,7,63,0,-82,-58,-82,-53
48,29,-19,-39,34,4,63,0,-78,-53,-82,-63
53,29,-24,-41,39,2,63,0,-78,-48,-82,-63
39,9,-29,-24,34,-9,58,-4,-87,-43,-92,-73
29,9,-19,-19,24,-4,53,-9,-92,-48,-92,-68
24,14,-9,-19,17,2,53,-9,-87,-48,-92,-63
34,24,-9,-29,21,7,48,-4,-92,-48,-97,-63
34,24,-9,-29,21,7,53,-14,-92,-48,-97,-73
29,19,-9,-24,19,4,48,-19,-102,-53,-97,-73
14,9,-4,-12,9,2,48,-19,-107,-58,-97,-73
0,4,4,-2,-2,4,43,-19,-112,-58,-102,-73
0,0,0,0,0,0,34,-29,-122,-63,-112,-78
4,4,0,-4,2,2,39,-29,-117,-63,-112,-82
9,4,-4,-7,7,0,39,-24,-117,-68,-112,-78
9,9,0,-9,4,4,39,-24,-122,-68,-112,-82
9,0,-9,-4,9,-4,39,-29,-122,-53,-107,-92
4,-4,-9,0,7,-7,39,-34,-122,-53,-107,-87
0,-4,-4,2,2,-4,29,-43,-122,-63,-102,-92
0,0,0,0,0,0,29,-43,-126,-73,-102,-87
4,9,4,-7,0,7,39,-39,-117,-73,-107,-87
14,9,-4,-12,9,2,39,-29,-117,-68,-107,-73
19,0,-19,-9,19,-9,34,-24,-117,-68,-107,-73
19,0,-19,-9,19,-9,34,-24,-122,-73,-117,-73
9,0,-9,-4,9,-4,43,-24,-126,-63,-107,-68
9,-4,-14,-2,12,-9,43,-24,-126,-58,-107,-78
9,-9,-19,0,14,-14,43,-24,-126,-58,-112,-78
19,-9,-29,-4,24,-19,43,-29,-126,-58,-112,-73
19,0,-19,-9,19,-9,43,-39,-126,-73,-97,-68
14,0,-14,-7,14,-7,39,-39,-131,-73,-97,-63
0,-4,-4,2,2,-4,34,-39,-136,-63,-102,-63
-4,-4,0,4,-2,-2,24,-39,-141,-63,-102,-73
-4,-14,-9,9,2,-12,34,-39,-131,-68,-102,-82
-4,-29,-24,17,9,-26,34,-39,-136,-68,-102,-82
-4,-39,-34,21,14,-36,34,-34,-136,-63,-102,-78
0,-19,-19,9,9,-19,34,-34,-126,-63,-102,-78
0,-4,-4,2,2,-4,34,-48,-136,-63,-102,-68
0,-14,-14,7,7,-14,29,-48,-136,-63,-97,-73
0,-14,-14,7,7,-14,29,-48,-141,-73,-97,-73
0,-14,-14,7,7,-14,29,-48,-141,-58,-97,-68
0,-24,-24,12,12,-24,34,-43,-136,-58,-97,-63
4,-34,-39,14,21,-36,34,-34,-141,-58,-87,-53
4,-29,-34,12,19,-31,43,-24,-131,-53,-87,-43
0,-39,-39,19,19,-39,43,-29,-136,-58,-87,-53
-19,-58,-39,39,9,-48,39,-39,-146,-68,-107,-68
-14,-48,-34,31,9,-41,39,-39,-146,-78,-107,-68
-9,-39,-29,24,9,-34,39,-39,-146,-78,-107,-68
-4,-29,-24,17,9,-26,39,-39,-146,-78,-107,-68
0,-19,-19,9,9,-19,39,-39,-146,-78,-107,-68
14,-4,-19,-4,17,-12,39,-39,-146,-68,-97,-63
19,0,-19,-9,19,-9,39,-34,-141,-63,-102,-63
24,19,-4,-21,14,7,43,-34,-141,-63,-102,-63
29,24,-4,-26,17,9,43,-34,-141,-68,-102,-63
19,29,9,-24,4,19,43,-34,-151,-68,-102,-73
14,29,14,-21,0,21,43,-34,-151,-63,-102,-68
14,29,14,-21,0,21,53,-24,-141,-53,-92,-58
19,39,19,-29,0,29,58,-19,-136,-43,-82,-48
19,53,34,-36,-7,43,68,-9,-131,-34,-82,-39
24,58,34,-41,-4,46,73,-9,-126,-34,-78,-39
24,68,43,-46,-9,56,73,-4,-122,-29,-73,-34
24,78,53,-51,-14,65,82,0,-117,-24,-73,-34
19,78,58,-48,-19,68,97,0,-107,-14,-63,-43
19,82,63,-51,-21,73,97,4,-97,-9,-53,-34
19,82,63,-51,-21,73,102,9,-87,0,-48,-34
19,92,73,-56,-26,82,102,9,-87,9,-48,-29
24,112,87,-68,-31,100,92,19,-92,0,-48,-24
34,112,78,-73,-21,95,92,19,-82,0,-34,-19
39,117,78,-78,-19,97,92,14,-82,0,-34,-14
43,126,82,-85,-19,104,87,9,-87,4,-48,-9
43,131,87,-87,-21,109,73,0,-97,4,-48,-14
48,136,87,-92,-19,112,68,0,-97,0,-39,-9
53,136,82,-95,-14,109,68,0,-92,-4,-39,-9
53,141,87,-97,-17,114,63,0,-92,-9,-43,-14
39,122,82,-80,-21,102,68,0,-92,-9,-43,-14
39,112,73,-75,-17,92,63,-4,-97,-9,-43,-14
34,107,73,-70,-19,90,48,-14,-97,-14,-43,-9
34,107,73,-70,-19,90,43,-19,-107,-19,-43,-9
43,126,82,-85,-19,104,29,-34,-122,-19,-43,-19
43,126,82,-85,-19,104,24,-39,-126,-24,-53,-29
29,112,82,-70,-26,97,19,-48,-131,-29,-58,-34
24,92,68,-58,-21,80,14,-63,-146,-34,-63,-43
19,92,73,-56,-26,82,19,-58,-141,-24,-58,-39
34,112,78,-73,-21,95,19,-58,-136,-24,-48,-19
53,117,63,-85,-4,90,14,-53,-131,-29,-43,-9
58,117,58,-87,0,87,9,-53,-126,-29,-39,-4
58,112,53,-85,2,82,19,-39,-122,-24,-48,-4
68,117,48,-92,9,82,19,-29,-122,-14,-39,0
82,136,53,-109,14,95,24,-29,-122,-14,-39,0
82,141,58,-112,12,100,24,-29,-122,-14,-39,4
73,112,39,-92,17,75,9,-34,-131,-24,-48,-4
63,92,29,-78,17,61,9,-39,-146,-29,-58,-14
53,78,24,-65,14,51,9,-43,-146,-43,-63,-24
34,68,34,-51,0,51,19,-43,-151,-43,-68,-24
43,34,-9,-39,26,12,19,-43,-156,-48,-73,-34
43,24,-19,-34,31,2,19,-43,-161,-63,-82,-39
29,4,-24,-17,26,-9,19,-48,-170,-73,-92,-43
24,0,-24,-12,24,-12,19,-53,-170,-78,-102,-53
34,4,-29,-19,31,-12,34,-53,-180,-87,-97,-53
24,24,0,-24,12,12,43,-48,-180,-87,-102,-53
19,4,-14,-12,17,-4,48,-43,-180,-87,-102,-58
9,-14,-24,2,17,-19,48,-43,-190,-97,-107,-63
14,-9,-24,-2,19,-17,39,-43,-180,-92,-107,-63
19,-4,-24,-7,21,-14,39,-43,-180,-92,-107,-63
24,4,-19,-14,21,-7,39,-48,-180,-92,-117,-68
29,9,-19,-19,24,-4,39,-48,-185,-92,-117,-73
19,0,-19,-9,19,-9,43,-48,-190,-97,-122,-78
14,0,-14,-7,14,-7,43,-53,-190,-97,-122,-82
9,0,-9,-4,9,-4,43,-53,-195,-97,-126,-82
0,-4,-4,2,2,-4,43,-58,-200,-117,-136,-87
4,-14,-19,4,12,-17,43,-53,-200,-112,-126,-92
9,-19,-29,4,19,-24,43,-53,-200,-107,-126,-87
14,-24,-39,4,26,-31,43,-48,-195,-102,-126,-82
19,-29,-48,4,34,-39,48,-39,-195,-92,-122,-68
9,-34,-43,12,26,-39,48,-48,-195,-92,-122,-78
4,-34,-39,14,21,-36,48,-48,-195,-92,-122,-78
4,-19,-24,7,14,-21,48,-48,-195,-92,-117,-78
19,-19,-39,0,29,-29,53,-43,-195,-92,-117,-78
19,-19,-39,0,29,-29,53,-53,-209,-102,-126,-82
19,-24,-43,2,31,-34,53,-58,-209,-107,-131,-82
19,-24,-43,2,31,-34,53,-58,-209,-107,-136,-87
9,-29,-39,9,24,-34,53,-58,-209,-102,-136,-87
4,-43,-48,19,26,-46,43,-53,-195,-112,-136,-87
0,-48,-48,24,24,-48,43,-53,-195,-112,-136,-87
-14,-53,-39,34,12,-46,43,-53,-195,-107,-136,-82
-4,-58,-53,31,24,-56,43,-53,-195,-107,-136,-82
14,-53,-68,19,41,-61,48,-53,-204,-102,-131,-92
14,-48,-63,17,39,-56,48,-53,-209,-102,-131,-92
0,-43,-43,21,21,-43,48,-58,-209,-107,-131,-102
0,-39,-39,19,19,-39,53,-58,-209,-112,-136,-87
-19,-58,-39,39,9,-48,48,-58,-200,-117,-126,-87
0,-34,-34,17,17,-34,58,-48,-204,-107,-126,-78
0,-43,-43,21,21,-43,78,-34,-195,-97,-117,-78
0,-48,-48,24,24,-48,78,-19,-175,-82,-107,-78
9,-19,-29,4,19,-24,78,-4,-151,-63,-107,-68
9,0,-9,-4,9,-4,78,19,-122,-48,-92,-78
9,0,-9,-4,9,-4,92,87,-48,0,-68,-63
63,39,-24,-51,43,7,131,190,53,73,-19,-39
112,97,-14,-104,63,41,156,278,170,175,43,-4
122,151,29,-136,46,90,170,331,258,307,151,63
151,219,68,-185,41,143,151,312,287,429,283,175
195,253,58,-224,68,156,122,239,278,546,419,278
258,322,63,-290,97,192,92,165,268,712,600,395
326,444,117,-385,104,280,19,63,268,922,834,551
356,527,170,-441,92,348,-78,-97,214,1122,1058,697
370,580,209,-475,80,395,-165,-287,117,1229,1195,795
424,707,283,-566,70,495,-283,-473,29,1337,1346,922
507,839,331,-673,87,585,-458,-673,-63,1444,1512,1068
551,868,317,-710,117,592,-697,-902,-219,1478,1610,1176
566,873,307,-719,129,590,-941,-1161,-429,1356,1595,1210
556,873,317,-714,119,595,-1127,-1361,-605,1180,1512,1220
527,810,283,-668,122,546,-1200,-1434,-727,980,1351,1171
512,610,97,-561,207,353,-1224,-1424,-844,727,1112,1044
507,424,-82,-466,295,170,-1215,-1400,-951,429,849,883
468,356,-112,-412,290,122,-1156,-1366,-1024,200,624,751
400,322,-78,-361,239,122,-1058,-1298,-1054,-4,419,634
322,244,-78,-283,200,82,-941,-1190,-1073,-219,209,512
263,161,-102,-212,183,29,-795,-1054,-1015,-336,58,409
219,131,-87,-175,153,21,-653,-883,-873,-322,4,336
175,122,-53,-148,114,34,-536,-741,-761,-283,-34,268
156,112,-43,-134,100,34,-434,-639,-692,-287,-82,204
112,87,-24,-100,68,31,-346,-536,-624,-283,-131,146
63,29,-34,-46,48,-2,-268,-448,-556,-273,-180,73
34,4,-29,-19,31,-12,-204,-370,-483,-253,-200,29
34,-9,-43,-12,39,-26,-131,-278,-390,-209,-180,9
14,-39,-53,12,34,-46,-73,-190,-297,-151,-170,-24
-4,-53,-48,29,21,-51,-24,-126,-253,-117,-175,-58
0,-39,-39,19,19,-39,4,-92,-239,-117,-156,-78
0,-53,-53,26,26,-53,19,-82,-248,-126,-156,-87
-9,-58,-48,34,19,-53,24,-68,-244,-126,-170,-97
-14,-63,-48,39,17,-56,34,-58,-234,-131,-180,-112
-29,-63,-34,46,2,-48,34,-58,-229,-136,-200,-117
-29,-68,-39,48,4,-53,34,-58,-219,-136,-204,-126
-29,-82,-53,56,12,-68,48,-48,-214,-141,-190,-122
-29,-87,-58,58,14,-73,53,-43,-209,-141,-190,-117
-39,-92,-53,65,7,-73,53,-34,-209,-136,-190,-117
-39,-87,-48,63,4,-68,68,-14,-209,-136,-185,-117
-29,-87,-58,58,14,-73,73,-19,-200,-126,-175,-107
-29,-87,-58,58,14,-73,78,-14,-190,-131,-180,-117
-24,-82,-58,53,17,-70,78,-14,-185,-131,-190,-107
-24,-78,-53,51,14,-65,73,-14,-180,-131,-180,-102
-34,-87,-53,61,9,-70,73,-4,-175,-126,-180,-112
-34,-97,-63,65,14,-80,73,-4,-170,-126,-180,-117
-34,-87,-53,61,9,-70,78,-4,-170,-117,-175,-117
-29,-87,-58,58,14,-73,78,9,-170,-112,-165,-107
-29,-87,-58,58,14,-73,92,19,-180,-107,-161,-117
-34,-78,-43,56,4,-61,92,19,-180,-107,-165,-117
-34,-68,-34,51,0,-51,92,24,-180,-112,-170,-117
-34,-68,-34,51,0,-51,92,24,-170,-112,-175,-117
-34,-63,-29,48,-2,-46,92,14,-165,-112,-170,-107
-34,-63,-29,48,-2,-46,92,14,-165,-112,-170,-107
-29,-63,-34,46,2,-48,92,14,-165,-112,-161,-107
-29,-63,-34,46,2,-48,97,14,-165,-107,-161,-107
-29,-58,-29,43,0,-43,92,24,-165,-107,-161,-102
-19,-48,-29,34,4,-39,92,34,-165,-107,-161,-102
0,-29,-29,14,14,-29,87,43,-156,-102,-146,-97
-14,-39,-24,26,4,-31,82,43,-156,-102,-146,-97
-39,-63,-24,51,-7,-43,82,43,-156,-117,-161,-102
-43,-73,-29,58,-7,-51,87,43,-146,-117,-165,-107
-34,-68,-34,51,0,-51,92,43,-141,-112,-165,-112
-39,-68,-29,53,-4,-48,107,43,-141,-112,-165,-117
-29,-63,-34,46,2,-48,97,48,-151,-122,-165,-117
-34,-53,-19,43,-7,-36,97,48,-151,-117,-165,-117
-34,-43,-9,39,-12,-26,97,48,-151,-112,-170,-112
-34,-34,0,34,-17,-17,97,53,-146,-112,-170,-112
-19,-39,-19,29,0,-29,92,63,-141,-102,-156,-97
-14,-39,-24,26,4,-31,92,63,-122,-97,-141,-87
-14,-34,-19,24,2,-26,97,63,-117,-92,-136,-97
-19,-34,-14,26,-2,-24,97,63,-112,-82,-131,-97
-24,-48,-24,36,0,-36,107,73,-102,-68,-122,-82
-24,-53,-29,39,2,-41,107,78,-97,-63,-117,-78
-19,-43,-24,31,2,-34,107,82,-92,-58,-112,-73
-9,-43,-34,26,12,-39,107,82,-87,-53,-112,-68
0,-24,-24,12,12,-24,117,92,-82,-53,-102,-82
0,-14,-14,7,7,-14,117,92,-78,-53,-102,-78
-4,-4,0,4,-2,-2,117,92,-78,-53,-102,-73
-9,4,14,2,-12,9,117,97,-78,-53,-102,-87
-9,-9,0,9,-4,-4,122,102,-78,-39,-102,-87
0,-9,-9,4,4,-9,126,102,-68,-29,-97,-73
9,-9,-19,0,14,-14,126,107,-68,-24,-97,-73
9,-14,-24,2,17,-19,126,112,-68,-19,-102,-78
-14,-4,9,9,-12,2,122,117,-63,-24,-102,-78
-14,-19,-4,17,-4,-12,122,117,-58,-24,-102,-73
-4,-19,-14,12,4,-17,122,122,-53,-24,-97,-68
0,-19,-19,9,9,-19,126,126,-48,-24,-97,-63
4,-14,-19,4,12,-17,126,136,-58,-24,-97,-68
4,0,-4,-2,4,-2,131,136,-58,-14,-87,-53
9,4,-4,-7,7,0,136,151,-48,-9,-87,-53
14,4,-9,-9,12,-2,146,156,-43,0,-82,-43
4,4,0,-4,2,2,136,156,-34,0,-78,-53
4,4,0,-4,2,2,136,165,-29,0,-78,-53
4,9,4,-7,0,7,141,170,-24,0,-73,-58
19,14,-4,-17,12,4,151,185,-14,14,-68,-58
19,14,-4,-17,12,4,156,185,4,29,-63,-39
19,29,9,-24,4,19,156,190,9,34,-53,-34
19,24,4,-21,7,14,156,195,19,39,-43,-34
19,14,-4,-17,12,4,156,200,24,43,-43,-34
19,24,4,-21,7,14,156,209,24,48,-43,-34
34,34,0,-34,17,17,165,224,39,63,-34,-29
34,48,14,-41,9,31,170,234,48,68,-29,-29
34,48,14,-41,9,31,170,244,68,78,-19,-24
48,63,14,-56,17,39,180,248,82,87,-29,-29
48,73,24,-61,12,48,180,253,92,97,-24,-24
48,82,34,-65,7,58,180,273,102,107,-19,-19
39,87,48,-63,-4,68,185,278,112,117,-14,-9
34,87,53,-61,-9,70,195,297,107,117,0,0
29,102,73,-65,-21,87,195,297,126,122,19,9
39,107,68,-73,-14,87,204,307,136,131,24,14
53,117,63,-85,-4,90,204,326,151,146,34,19
39,112,73,-75,-17,92,209,326,170,161,39,9
34,107,73,-70,-19,90,219,336,175,170,48,19
34,97,63,-65,-14,80,219,351,195,195,58,34
48,107,58,-78,-4,82,219,366,214,219,73,53
53,141,87,-97,-17,114,224,385,229,239,68,53
48,151,102,-100,-26,126,224,395,248,244,82,48
39,161,122,-100,-41,141,234,409,258,258,97,48
58,180,122,-119,-31,151,239,414,268,273,112,58
53,190,136,-122,-41,163,239,429,287,287,131,68
53,185,131,-119,-39,158,244,444,292,297,141,78
78,209,131,-143,-26,170,248,448,322,317,151,92
82,214,131,-148,-24,173,253,448,331,336,165,107
73,219,146,-146,-36,183,253,458,326,341,170,112
82,234,151,-158,-34,192,253,468,341,361,180,117
92,244,151,-168,-29,197,253,473,351,361,195,122
92,258,165,-175,-36,212,248,478,351,370,214,141
92,258,165,-175,-36,212,258,488,366,385,229,146
92,258,165,-175,-36,212,258,492,375,390,234,146
92,268,175,-180,-41,222,258,492,385,405,244,156
87,268,180,-178,-46,224,258,488,385,429,253,161
73,263,190,-168,-58,226,248,468,366,419,253,156
82,263,180,-173,-48,222,234,463,366,419,248,156
82,273,190,-178,-53,231,229,463,361,419,244,175
78,273,195,-175,-58,234,224,463,351,419,239,185
73,297,224,-185,-75,261,224,468,361,424,258,195
82,307,224,-195,-70,265,229,463,361,429,263,195
92,287,195,-190,-51,241,229,463,361,434,268,195
87,263,175,-175,-43,219,224,448,356,434,273,195
97,278,180,-187,-41,229,219,444,351,419,273,204
107,292,185,-200,-39,239,214,429,336,414,268,204
107,302,195,-204,-43,248,204,419,326,409,263,204
107,287,180,-197,-36,234,200,409,312,405,258,195
92,278,185,-185,-46,231,200,400,302,400,258,204
92,268,175,-180,-41,222,200,395,297,395,258,204
87,263,175,-175,-43,219,200,385,292,385,263,204
87,253,165,-170,-39,209,195,375,283,366,253,204
87,253,165,-170,-39,209,195,366,248,361,244,200
92,253,161,-173,-34,207,190,346,229,341,234,185
87,244,156,-165,-34,200,180,322,204,322,214,165
82,214,131,-148,-24,173,170,297,180,317,204,161
68,214,146,-141,-39,180,156,278,161,292,185,146
68,204,136,-136,-34,170,146,263,151,268,170,136
63,204,141,-134,-39,173,141,244,136,253,151,136
58,185,126,-122,-34,156,131,229,126,219,136,126
63,170,107,-117,-21,139,131,224,97,200,126,117
58,156,97,-107,-19,126,131,200,78,185,117,112
63,146,82,-104,-9,114,136,185,53,175,107,107
68,146,78,-107,-4,112,136,170,34,170,92,107
58,126,68,-92,-4,97,126,151,29,151,82,87
58,126,68,-92,-4,97,122,136,14,141,63,78
58,122,63,-90,-2,92,117,131,4,126,58,78
48,107,58,-78,-4,82,97,126,-4,107,48,78
43,92,48,-68,-2,70,97,112,-24,87,34,48
48,97,48,-73,0,73,97,97,-43,78,19,43
43,102,58,-73,-7,80,92,82,-58,68,14,39
29,87,58,-58,-14,73,92,63,-82,53,4,39
24,78,53,-51,-14,65,73,68,-87,34,-4,29
29,73,43,-51,-7,58,73,53,-97,24,-14,19
29,58,29,-43,0,43,73,48,-102,9,-19,24
24,48,24,-36,0,36,73,43,-112,4,-24,19
24,48,24,-36,0,36,73,29,-122,-4,-29,14
34,48,14,-41,9,31,73,29,-126,-4,-29,14
24,43,19,-34,2,31,63,24,-146,-9,-34,14
24,43,19,-34,2,31,58,19,-161,-14,-39,14
29,48,19,-39,4,34,63,24,-156,-14,-48,19
29,53,24,-41,2,39,63,19,-156,-14,-48,19
34,53,19,-43,7,36,68,9,-156,-24,-53,4
39,43,4,-41,17,24,68,0,-156,-34,-58,0
19,34,14,-26,2,24,63,0,-161,-34,-63,0
19,29,9,-24,4,19,63,0,-165,-39,-63,0
24,24,0,-24,12,12,63,0,-170,-39,-58,0
24,19,-4,-21,14,7,58,-4,-170,-43,-58,0
19,19,0,-19,9,9,58,-9,-175,-43,-68,-9
19,19,0,-19,9,9,58,-9,-180,-43,-73,-9
24,29,4,-26,9,17,58,-4,-180,-43,-73,4
24,14,-9,-19,17,2,58,-4,-175,-43,-68,4
39,34,-4,-36,21,14,53,-9,-180,-48,-78,-4
43,39,-4,-41,24,17,58,-14,-180,-48,-73,-4
48,48,0,-48,24,24,58,-19,-180,-48,-73,0
53,58,4,-56,24,31,58,-29,-195,-53,-78,0
43,58,14,-51,14,36,48,-29,-195,-63,-92,4
48,48,0,-48,24,24,48,-29,-195,-63,-92,4
29,34,4,-31,12,19,43,-24,-195,-48,-92,-4
9,0,-9,-4,9,-4,43,-24,-195,-63,-92,-14
19,19,0,-19,9,9,43,-34,-195,-78,-82,-19
29,29,0,-29,14,14,58,-29,-195,-78,-87,-9
29,39,9,-34,9,24,48,-29,-204,-78,-87,-14
19,39,19,-29,0,29,34,-39,-214,-82,-92,-19
29,48,19,-39,4,34,39,-34,-204,-82,-87,-4
39,48,9,-43,14,29,43,-24,-209,-68,-87,0
29,43,14,-36,7,29,48,-19,-209,-68,-82,-4
29,43,14,-36,7,29,58,-19,-204,-73,-73,0
34,48,14,-41,9,31,48,-19,-209,-82,-73,0
39,48,9,-43,14,29,53,-24,-209,-82,-78,-14
43,53,9,-48,17,31,58,-24,-209,-82,-82,-24
48,53,4,-51,21,29,58,-19,-209,-82,-92,-29
48,63,14,-56,17,39,58,-14,-209,-92,-82,-29
53,63,9,-58,21,36,58,-9,-204,-92,-82,-4
53,53,0,-53,26,26,63,-9,-204,-92,-82,-4
43,68,24,-56,9,46,63,-14,-209,-87,-92,-9
34,58,24,-46,4,41,63,-24,-219,-97,-102,-19
34,68,34,-51,0,51,58,-24,-219,-97,-107,-19
34,53,19,-43,7,36,58,-24,-219,-107,-117,-24
34,53,19,-43,7,36,68,-24,-219,-107,-122,-29
39,63,24,-51,7,43,73,-14,-209,-82,-112,-29
39,63,24,-51,7,43,78,-9,-204,-78,-102,-9
43,58,14,-51,14,36,82,-9,-200,-78,-97,0
43,58,14,-51,14,36,87,-9,-204,-73,-87,4
43,43,0,-43,21,21,78,-9,-204,-78,-92,0
43,39,-4,-41,24,17,87,-9,-204,-73,-87,0
43,39,-4,-41,24,17,92,0,-195,-68,-87,-4
48,48,0,-48,24,24,92,0,-195,-73,-92,-9
58,58,0,-58,29,29,92,4,-185,-63,-82,0
58,68,9,-63,24,39,92,4,-175,-58,-82,-9
53,53,0,-53,26,26,97,4,-170,-53,-73,-4
53,63,9,-58,21,36,97,4,-170,-48,-73,0
53,63,9,-58,21,36,97,4,-185,-53,-82,-9
39,63,24,-51,7,43,97,4,-195,-63,-92,-14
24,48,24,-36,0,36,92,4,-185,-68,-92,-19
48,58,9,-53,19,34,92,14,-185,-73,-92,-29
58,78,19,-68,19,48,102,9,-180,-78,-97,-14
58,78,19,-68,19,48,102,19,-180,-78,-92,-14
43,78,34,-61,4,56,102,9,-180,-73,-92,-9
43,78,34,-61,4,56,102,0,-180,-73,-97,-4
58,78,19,-68,19,48,102,9,-185,-63,-97,-14
58,73,14,-65,21,43,97,14,-185,-63,-92,0
58,73,14,-65,21,43,97,24,-185,-63,-82,0
63,73,9,-68,26,41,97,14,-175,-58,-78,0
53,73,19,-63,17,46,97,14,-175,-48,-68,-4
63,68,4,-65,29,36,97,14,-175,-48,-78,-9
53,68,14,-61,19,41,97,14,-175,-48,-78,-14
43,87,43,-65,0,65,97,14,-180,-43,-73,-19
43,87,43,-65,0,65,107,19,-170,-43,-82,-24
48,82,34,-65,7,58,112,19,-170,-43,-82,-24
53,73,19,-63,17,46,117,24,-156,-34,-73,-14
58,87,29,-73,14,58,117,24,-156,-34,-73,-14
58,102,43,-80,7,73,107,24,-165,-43,-63,-9
73,102,29,-87,21,65,102,29,-165,-43,-63,-4
63,102,39,-82,12,70,102,29,-165,-39,-53,-4
58,92,34,-75,12,63,102,24,-165,-29,-53,0
58,82,24,-70,17,53,102,34,-156,-29,-68,0
58,97,39,-78,9,68,97,34,-161,-29,-68,4
63,107,43,-85,9,75,97,29,-165,-39,-68,0
63,97,34,-80,14,65,97,29,-165,-39,-63,-9
48,82,34,-65,7,58,97,34,-161,-24,-43,0
43,82,39,-63,2,61,92,34,-161,-19,-53,4
43,73,29,-58,7,51,92,29,-161,-19,-53,14
53,87,34,-70,9,61,92,29,-161,-24,-53,19
63,107,43,-85,9,75,92,29,-170,-19,-58,14
63,97,34,-80,14,65,92,29,-170,-19,-53,14
63,97,34,-80,14,65,92,29,-165,-19,-53,4
63,97,34,-80,14,65,92,29,-165,-19,-53,4
43,68,24,-56,9,46,82,24,-165,-14,-53,4
39,68,29,-53,4,48,82,19,-170,-19,-53,9
39,73,34,-56,2,53,87,19,-165,-19,-53,14
53,82,29,-68,12,56,87,24,-170,-19,-58,14
58,87,29,-73,14,58,82,14,-180,-29,-68,-4
58,87,29,-73,14,58,78,9,-190,-34,-68,-4
48,82,34,-65,7,58,78,9,-195,-39,-68,-4
39,82,43,-61,-2,63,73,9,-200,-39,-73,-4
39,63,24,-51,7,43,82,9,-190,-24,-68,-4
43,63,19,-53,12,41,87,9,-185,-24,-63,-4
48,58,9,-53,19,34,87,14,-185,-29,-58,4
48,58,9,-53,19,34,87,14,-190,-29,-53,4
48,58,9,-53,19,34,87,19,-190,-24,-58,-4
43,53,9,-48,17,31,87,14,-190,-24,-58,0
39,53,14,-46,12,34,78,4,-190,-34,-53,-4
39,58,19,-48,9,39,78,4,-195,-43,-53,0
39,63,24,-51,7,43,78,4,-195,-39,-48,4
43,58,14,-51,14,36,78,9,-195,-29,-48,14
43,43,0,-43,21,21,73,9,-195,-24,-48,9
39,39,0,-39,19,19,73,4,-200,-24,-58,4
29,53,24,-41,2,39,63,0,-214,-29,-68,-4
29,53,24,-41,2,39,63,-4,-214,-29,-68,-19
29,53,24,-41,2,39,63,-9,-214,-34,-73,-24
39,58,19,-48,9,39,63,-19,-214,-39,-73,-24
53,78,24,-65,14,51,68,-14,-209,-34,-48,-4
53,78,24,-65,14,51,68,-9,-209,-34,-48,4
43,73,29,-58,7,51,68,-4,-209,-24,-53,9
43,73,29,-58,7,51,63,0,-209,-24,-53,4
43,73,29,-58,7,51,63,-9,-219,-39,-73,4
43,58,14,-51,14,36,63,-9,-224,-39,-73,4
43,48,4,-46,19,26,63,-4,-224,-34,-73,9
48,68,19,-58,14,43,63,-4,-214,-34,-73,9
39,73,34,-56,2,53,73,-9,-214,-34,-73,0
39,63,24,-51,7,43,68,-9,-214,-34,-68,-4
39,63,24,-51,7,43,68,-9,-219,-43,-68,-4
39,63,24,-51,7,43,68,-9,-219,-29,-68,0
39,53,14,-46,12,34,82,-4,-214,-29,-68,14
43,53,9,-48,17,31,82,-4,-219,-29,-68,14
43,39,-4,-41,24,17,82,-4,-219,-34,-68,4
39,39,0,-39,19,19,82,-9,-224,-39,-68,4
29,43,14,-36,7,29,78,-9,-234,-48,-68,0
39,58,19,-48,9,39,73,-9,-229,-43,-63,0
53,73,19,-63,17,46,68,-4,-219,-39,-53,4
43,63,19,-53,12,41,63,-4,-219,-29,-63,4
9,14,4,-12,2,9,63,-9,-229,-39,-68,14
29,19,-9,-24,19,4,78,-9,-214,-29,-58,9
34,29,-4,-31,19,12,68,-19,-224,-34,-63,4
39,39,0,-39,19,19,68,-19,-224,-39,-68,0
43,48,4,-46,19,26,68,-19,-224,-43,-73,-4
48,58,9,-53,19,34,68,-19,-224,-48,-78,-9
58,68,9,-63,24,39,58,-19,-234,-48,-78,0
58,68,9,-63,24,39,58,-14,-229,-43,-82,-4
58,82,24,-70,17,53,63,-14,-229,-43,-82,-9
58,82,24,-70,17,53,63,-14,-229,-48,-82,-14
68,82,14,-75,26,48,63,-14,-229,-53,-73,-4
63,87,24,-75,19,56,63,-14,-229,-53,-73,0
63,92,29,-78,17,61,73,-4,-219,-48,-63,9
68,107,39,-87,14,73,78,0,-214,-43,-53,19
58,122,63,-90,-2,92,97,9,-209,-34,-53,29
63,126,63,-95,0,95,102,9,-204,-34,-48,29
63,136,73,-100,-4,104,102,14,-200,-29,-43,34
63,146,82,-104,-9,114,112,19,-195,-24,-43,34
68,151,82,-109,-7,117,112,9,-195,-24,-53,34
68,161,92,-114,-12,126,107,14,-185,-19,-43,43
68,165,97,-117,-14,131,107,19,-175,-9,-39,43
68,180,112,-124,-21,146,102,19,-175,0,-39,48
68,190,122,-129,-26,156,112,39,-170,0,-29,39
73,190,117,-131,-21,153,112,39,-161,0,-14,39
73,195,122,-134,-24,158,112,34,-161,0,-14,39
73,204,131,-139,-29,168,107,29,-165,4,-29,39
73,195,122,-134,-24,158,112,29,-161,24,-19,53
78,195,117,-136,-19,156,107,29,-156,29,-9,58
82,190,107,-136,-12,148,107,29,-146,34,-9,58
82,190,107,-136,-12,148,102,29,-141,39,-14,53
82,180,97,-131,-7,139,87,29,-151,39,-4,63
87,180,92,-134,-2,136,82,24,-156,39,-4,63
87,185,97,-136,-4,141,68,14,-156,34,-4,68
92,195,102,-143,-4,148,63,9,-165,29,-4,68
102,195,92,-148,4,143,58,-4,-180,24,-14,68
102,195,92,-148,4,143,53,-9,-185,14,-24,58
87,180,92,-134,-2,136,48,-19,-190,4,-29,53
82,161,78,-122,2,119,43,-34,-204,-4,-34,43
82,165,82,-124,0,124,48,-34,-200,9,-29,43
102,190,87,-146,7,139,48,-29,-195,14,-19,58
126,200,73,-163,26,136,43,-19,-190,14,-14,63
136,204,68,-170,34,136,39,-14,-185,19,-9,63
131,195,63,-163,34,129,39,-9,-190,19,-9,73
136,195,58,-165,39,126,39,0,-190,24,0,78
146,209,63,-178,41,136,43,0,-190,19,0,78
141,209,68,-175,36,139,43,0,-190,14,0,82
126,180,53,-153,36,117,19,-14,-209,14,-9,68
122,161,39,-141,41,100,19,-19,-224,9,-19,53
117,146,29,-131,43,87,19,-24,-224,-4,-24,39
102,136,34,-119,34,85,29,-24,-229,-4,-29,34
102,112,9,-107,46,61,39,-24,-234,-9,-34,29
102,102,0,-102,51,51,39,-24,-239,-24,-43,29
87,82,-4,-85,46,39,39,-29,-248,-34,-53,29
82,78,-4,-80,43,36,39,-34,-248,-39,-63,24
82,78,-4,-80,43,36,34,-34,-248,-39,-68,14
73,92,19,-82,26,56,43,-29,-248,-39,-73,14
68,68,0,-68,34,34,48,-24,-248,-39,-73,9
58,43,-14,-51,36,14,48,-24,-258,-48,-78,4
58,43,-14,-51,36,14,58,-34,-258,-53,-78,4
58,43,-14,-51,36,14,58,-34,-258,-53,-78,4
58,48,-9,-53,34,19,58,-39,-258,-53,-87,0
58,48,-9,-53,34,19,58,-39,-263,-53,-87,-4
39,24,-14,-31,26,4,43,-39,-278,-58,-102,-19
34,19,-14,-26,24,2,43,-43,-278,-58,-102,-24
29,14,-14,-21,21,0,43,-43,-283,-58,-107,-24
19,4,-14,-12,17,-4,43,-48,-287,-78,-117,-29
9,-9,-19,0,14,-14,43,-48,-307,-87,-117,-39
9,-9,-19,0,14,-14,43,-53,-307,-87,-117,-39
9,-9,-19,0,14,-14,43,-53,-302,-87,-117,-39
9,-9,-19,0,14,-14,48,-48,-302,-82,-112,-29
0,-24,-24,12,12,-24,39,-48,-292,-82,-122,-34
