I,II,III,aVR,aVL,aVF,V1,V2,V3,V4,V5,V6
214,78,-136,-146,175,-29,156,624,585,409,361,273
214,78,-136,-146,175,-29,156,624,585,409,361,273
214,78,-136,-146,175,-29,156,624,585,409,361,273
214,78,-136,-146,175,-29,156,624,585,409,361,273
283,126,-156,-204,219,-14,190,795,756,483,439,326
341,165,-175,-253,258,-4,214,956,917,556,507,380
400,204,-195,-302,297,4,239,1117,1078,629,575,434
458,244,-214,-351,336,14,263,1278,1239,702,644,488
468,200,-268,-334,368,-34,185,1015,966,556,541,424
468,156,-312,-312,390,-78,117,751,702,409,439,370
468,112,-356,-290,412,-122,48,488,439,263,336,317
468,68,-400,-268,434,-165,-19,224,175,117,234,263
375,-34,-409,-170,392,-222,-107,-165,-195,-73,53,136
292,-126,-419,-82,356,-273,-195,-546,-556,-263,-117,9
209,-219,-429,4,319,-324,-283,-927,-917,-453,-287,-117
126,-312,-439,92,283,-375,-370,-1307,-1278,-644,-458,-244
92,-361,-453,134,273,-407,-341,-1263,-1273,-683,-507,-307
58,-409,-468,175,263,-439,-322,-1220,-1268,-722,-556,-361
24,-458,-483,217,253,-470,-302,-1176,-1263,-761,-605,-414
-9,-507,-497,258,244,-502,-283,-1132,-1259,-800,-653,-468
14,-483,-497,234,256,-490,-268,-1010,-1146,-732,-605,-444
29,-458,-488,214,258,-473,-253,-897,-1044,-673,-566,-419
43,-434,-478,195,261,-456,-239,-785,-941,-614,-527,-395
58,-409,-468,175,263,-439,-224,-673,-839,-556,-488,-370
48,-375,-424,163,236,-400,-200,-590,-751,-483,-424,-322
48,-351,-400,151,224,-375,-175,-517,-663,-419,-370,-273
48,-326,-375,139,212,-351,-151,-444,-575,-356,-317,-224
48,-302,-351,126,200,-326,-126,-370,-488,-292,-263,-175
63,-263,-326,100,195,-295,-107,-312,-424,-248,-214,-136
68,-224,-292,78,180,-258,-87,-253,-370,-204,-175,-107
73,-185,-258,56,165,-222,-68,-195,-317,-161,-136,-78
78,-146,-224,34,151,-185,-48,-136,-263,-117,-97,-48
78,-122,-200,21,139,-161,-19,-102,-209,-82,-68,-24
78,-97,-175,9,126,-136,0,-68,-165,-48,-39,0
78,-73,-151,-2,114,-112,19,-34,-122,-14,-9,24
78,-48,-126,-14,102,-87,39,0,-78,19,19,48
78,-58,-136,-9,107,-97,43,24,-68,29,34,58
78,-58,-136,-9,107,-97,48,39,-58,39,39,58
78,-58,-136,-9,107,-97,53,53,-48,48,43,58
78,-58,-136,-9,107,-97,58,68,-39,58,48,58
73,-53,-126,-9,100,-90,63,82,-29,63,63,73
68,-48,-117,-9,92,-82,68,87,-19,68,68,78
63,-43,-107,-9,85,-75,73,92,-9,73,73,82
58,-39,-97,-9,78,-68,78,97,0,78,78,87
78,-29,-107,-24,92,-68,87,107,4,92,82,97
87,-19,-107,-34,97,-63,87,117,9,97,87,97
97,-9,-107,-43,102,-58,87,126,14,102,92,97
107,0,-107,-53,107,-53,87,136,19,107,97,97
97,-9,-107,-43,102,-58,78,136,29,107,97,97
97,-9,-107,-43,102,-58,78,136,29,107,97,97
97,-9,-107,-43,102,-58,78,136,29,107,97,97
97,-9,-107,-43,102,-58,78,136,29,107,97,97
97,0,-97,-48,97,-48,78,141,34,112,107,107
97,0,-97,-48,97,-48,78,146,39,117,107,107
97,0,-97,-48,97,-48,78,151,43,122,107,107
97,0,-97,-48,97,-48,78,156,48,126,107,107
107,4,-102,-56,104,-48,82,165,58,136,122,112
107,9,-97,-58,102,-43,87,175,68,136,126,117
107,14,-92,-61,100,-39,92,185,78,136,131,122
107,19,-87,-63,97,-34,97,195,87,136,136,126
97,14,-82,-56,90,-34,92,185,78,146,126,117
97,9,-87,-53,92,-39,87,185,78,146,126,117
97,4,-92,-51,95,-43,82,185,78,146,126,117
97,0,-97,-48,97,-48,78,185,78,146,126,117
87,4,-82,-46,85,-39,87,200,87,156,136,126
87,9,-78,-48,82,-34,87,204,97,156,136,126
87,14,-73,-51,80,-29,87,209,107,156,136,126
87,19,-68,-53,78,-24,87,214,117,156,136,126
78,9,-68,-43,73,-29,97,224,126,165,146,136
78,9,-68,-43,73,-29,97,224,126,165,146,136
78,9,-68,-43,73,-29,97,224,126,165,146,136
78,9,-68,-43,73,-29,97,224,126,165,146,136
92,14,-78,-53,85,-31,97,229,131,165,151,136
97,19,-78,-58,87,-29,97,234,136,165,156,136
102,24,-78,-63,90,-26,97,239,141,165,161,136
107,29,-78,-68,92,-24,97,244,146,165,165,136
117,34,-82,-75,100,-24,107,253,156,185,170,151
117,39,-78,-78,97,-19,107,263,165,195,175,156
117,43,-73,-80,95,-14,107,273,175,204,180,161
117,48,-68,-82,92,-9,107,283,185,214,185,165
126,63,-63,-95,95,0,112,292,195,224,190,175
126,68,-58,-97,92,4,117,302,204,224,195,175
126,73,-53,-100,90,9,122,312,214,224,200,175
126,78,-48,-102,87,14,126,322,224,224,204,175
117,73,-43,-95,80,14,136,336,229,234,214,185
117,68,-48,-92,82,9,136,341,234,234,214,185
117,63,-53,-90,85,4,136,346,239,234,214,185
117,58,-58,-87,87,0,136,351,244,234,214,185
112,73,-39,-92,75,17,141,361,263,248,219,195
107,78,-29,-92,68,24,146,370,273,253,224,195
102,82,-19,-92,61,31,151,380,283,258,229,195
97,87,-9,-92,53,39,156,390,292,263,234,195
107,92,-14,-100,61,39,165,409,307,268,239,204
117,97,-19,-107,68,39,165,419,312,273,244,204
126,102,-24,-114,75,39,165,429,317,278,248,204
136,107,-29,-122,82,39,165,439,322,283,253,204
136,126,-9,-131,73,58,185,463,341,307,273,224
136,136,0,-136,68,68,195,478,361,322,283,234
136,146,9,-141,63,78,204,492,380,336,292,244
136,156,19,-146,58,87,214,507,400,351,302,253
126,151,24,-139,51,87,209,507,390,341,302,248
126,146,19,-136,53,82,204,507,390,341,302,244
126,141,14,-134,56,78,200,507,390,341,302,239
126,136,9,-131,58,73,195,507,390,341,302,234
146,151,4,-148,70,78,204,527,409,346,307,248
156,156,0,-156,78,78,204,536,419,351,312,253
165,161,-4,-163,85,78,204,546,429,356,317,258
175,165,-9,-170,92,78,204,556,439,361,322,263
161,180,19,-170,70,100,204,566,444,366,336,273
156,185,29,-170,63,107,204,566,448,370,341,273
151,190,39,-170,56,114,204,566,453,375,346,273
146,195,48,-170,48,122,204,566,458,380,351,273
131,175,43,-153,43,109,195,566,458,390,341,263
126,165,39,-146,43,102,195,566,458,390,341,263
122,156,34,-139,43,95,195,566,458,390,341,263
117,146,29,-131,43,87,195,566,458,390,341,263
136,170,34,-153,51,102,204,575,473,395,356,268
156,185,29,-170,63,107,204,575,478,400,361,273
175,200,24,-187,75,112,204,575,483,405,366,278
195,214,19,-204,87,117,204,575,488,409,370,283
204,224,19,-214,92,122,204,575,497,419,375,287
204,234,29,-219,87,131,204,575,497,419,380,292
204,244,39,-224,82,141,204,575,497,419,385,297
204,253,48,-229,78,151,204,575,497,419,390,302
190,248,58,-219,65,153,195,566,492,419,390,297
185,244,58,-214,63,151,195,566,488,419,390,292
180,239,58,-209,61,148,195,566,483,419,390,287
175,234,58,-204,58,146,195,566,478,419,390,283
165,224,58,-195,53,141,190,561,478,419,390,287
165,224,58,-195,53,141,185,556,478,419,390,292
165,224,58,-195,53,141,180,551,478,419,390,297
165,224,58,-195,53,141,175,546,478,419,390,302
180,244,63,-212,58,153,165,536,478,419,390,302
185,253,68,-219,58,161,165,536,478,419,390,302
190,263,73,-226,58,168,165,536,478,419,390,302
195,273,78,-234,58,175,165,536,478,419,390,302
170,244,73,-207,48,158,175,536,488,434,405,307
156,224,68,-190,43,146,175,536,488,439,409,312
141,204,63,-173,39,134,175,536,488,444,414,317
126,185,58,-156,34,122,175,536,488,448,419,322
136,200,63,-168,36,131,165,512,468,439,414,317
146,214,68,-180,39,141,156,497,458,429,409,312
156,229,73,-192,41,151,146,483,448,419,405,307
165,244,78,-204,43,161,136,468,439,409,400,302
170,234,63,-202,53,148,126,453,424,400,395,312
175,234,58,-204,58,146,126,448,419,400,390,312
180,234,53,-207,63,143,126,444,414,400,385,312
185,234,48,-209,68,141,126,439,409,400,380,312
195,224,29,-209,82,126,112,424,390,385,375,297
195,224,29,-209,82,126,107,409,380,380,370,292
195,224,29,-209,82,126,102,395,370,375,366,287
195,224,29,-209,82,126,97,380,361,370,361,283
204,214,9,-209,97,112,92,366,346,351,351,268
204,204,0,-204,102,102,87,351,331,341,341,263
204,195,-9,-200,107,92,82,336,317,331,331,258
204,185,-19,-195,112,82,78,322,302,322,322,253
185,165,-19,-175,102,73,68,307,287,307,307,248
175,156,-19,-165,97,68,68,292,273,302,302,244
165,146,-19,-156,92,63,68,278,258,297,297,239
156,136,-19,-146,87,58,68,263,244,292,292,234
151,126,-24,-139,87,51,78,244,229,273,283,219
146,117,-29,-131,87,43,78,234,214,263,273,214
141,107,-34,-124,87,36,78,224,200,253,263,209
136,97,-39,-117,87,29,78,214,185,244,253,204
126,82,-43,-104,85,19,73,200,165,234,244,190
126,78,-48,-102,87,14,68,185,156,224,234,185
126,73,-53,-100,90,9,63,170,146,214,224,180
126,68,-58,-97,92,4,58,156,136,204,214,175
141,73,-68,-107,104,2,68,146,122,195,204,170
156,78,-78,-117,117,0,68,146,117,195,204,165
170,82,-87,-126,129,-2,68,146,112,195,204,161
185,87,-97,-136,141,-4,68,146,107,195,204,156
175,78,-97,-126,136,-9,63,136,92,185,190,151
165,68,-97,-117,131,-14,58,126,87,175,185,146
156,58,-97,-107,126,-19,53,117,82,165,180,141
146,48,-97,-97,122,-24,48,107,78,156,175,136
136,39,-97,-87,117,-29,39,102,63,151,170,131
126,39,-87,-82,107,-24,39,97,58,146,165,126
117,39,-78,-78,97,-19,39,92,53,141,161,122
107,39,-68,-73,87,-14,39,87,48,136,156,117
97,34,-63,-65,80,-14,29,78,39,136,156,107
97,29,-68,-63,82,-19,29,78,39,136,156,107
97,24,-73,-61,85,-24,29,78,39,136,156,107
97,19,-78,-58,87,-29,29,78,39,136,156,107
87,9,-78,-48,82,-34,19,63,34,131,141,92
87,0,-87,-43,87,-43,19,58,29,126,136,87
87,-9,-97,-39,92,-53,19,53,24,122,131,82
87,-19,-107,-34,97,-63,19,48,19,117,126,78
107,-4,-112,-51,109,-58,24,63,34,131,141,87
117,9,-107,-63,112,-48,29,68,39,136,146,97
126,24,-102,-75,114,-39,34,73,43,141,151,107
136,39,-97,-87,117,-29,39,78,48,146,156,117
141,48,-92,-95,117,-21,43,68,48,146,156,117
146,48,-97,-97,122,-24,48,68,48,146,156,117
151,48,-102,-100,126,-26,53,68,48,146,156,117
156,48,-107,-102,131,-29,58,68,48,146,156,117
136,43,-92,-90,114,-24,43,63,43,136,151,112
126,39,-87,-82,107,-24,39,58,39,136,146,107
117,34,-82,-75,100,-24,34,53,34,136,141,102
107,29,-78,-68,92,-24,29,48,29,136,136,97
102,14,-87,-58,95,-36,34,58,29,136,146,107
97,9,-87,-53,92,-39,39,58,29,136,146,107
92,4,-87,-48,90,-41,43,58,29,136,146,107
87,0,-87,-43,87,-43,48,58,29,136,146,107
78,-4,-82,-36,80,-43,43,48,19,122,141,102
78,-9,-87,-34,82,-48,39,39,19,117,136,97
78,-14,-92,-31,85,-53,34,29,19,112,131,92
78,-19,-97,-29,87,-58,29,19,19,107,126,87
63,-24,-87,-19,75,-56,24,29,14,107,117,78
58,-29,-87,-14,73,-58,19,29,9,107,117,78
53,-34,-87,-9,70,-61,14,29,4,107,117,78
48,-39,-87,-4,68,-63,9,29,0,107,117,78
63,-34,-97,-14,80,-65,19,34,4,112,131,87
68,-29,-97,-19,82,-63,29,39,9,117,136,97
73,-24,-97,-24,85,-61,39,43,14,122,141,107
78,-19,-97,-29,87,-58,48,48,19,126,146,117
87,-19,-107,-34,97,-63,48,48,19,126,136,112
87,-19,-107,-34,97,-63,48,48,19,126,136,107
87,-19,-107,-34,97,-63,48,48,19,126,136,102
87,-19,-107,-34,97,-63,48,48,19,126,136,97
82,-9,-92,-36,87,-51,48,43,19,126,126,97
78,-9,-87,-34,82,-48,48,39,19,126,126,97
73,-9,-82,-31,78,-46,48,34,19,126,126,97
68,-9,-78,-29,73,-43,48,29,19,126,126,97
87,-4,-92,-41,90,-48,48,39,9,117,126,87
97,0,-97,-48,97,-48,48,39,9,117,126,87
107,4,-102,-56,104,-48,48,39,9,117,126,87
117,9,-107,-63,112,-48,48,39,9,117,126,87
97,-4,-102,-46,100,-53,39,34,4,107,117,78
87,-19,-107,-34,97,-63,39,29,0,107,117,78
78,-34,-112,-21,95,-73,39,24,-4,107,117,78
68,-48,-117,-9,92,-82,39,19,-9,107,117,78
58,-58,-117,0,87,-87,39,19,-9,97,107,68
58,-58,-117,0,87,-87,39,19,-9,97,107,68
58,-58,-117,0,87,-87,39,19,-9,97,107,68
58,-58,-117,0,87,-87,39,19,-9,97,107,68
63,-58,-122,-2,92,-90,48,19,-19,97,107,78
68,-58,-126,-4,97,-92,48,19,-19,97,107,78
73,-58,-131,-7,102,-95,48,19,-19,97,107,78
78,-58,-136,-9,107,-97,48,19,-19,97,107,78
92,-39,-131,-26,112,-85,39,19,-9,97,117,78
97,-29,-126,-34,112,-78,39,19,-9,97,117,78
102,-19,-122,-41,112,-70,39,19,-9,97,117,78
107,-9,-117,-48,112,-63,39,19,-9,97,117,78
102,-19,-122,-41,112,-70,39,9,-19,107,117,78
97,-19,-117,-39,107,-68,39,9,-19,107,117,78
92,-19,-112,-36,102,-65,39,9,-19,107,117,78
87,-19,-107,-34,97,-63,39,9,-19,107,117,78
87,-24,-112,-31,100,-68,39,19,-14,107,117,87
92,-29,-122,-31,107,-75,29,19,-9,107,117,87
107,-39,-146,-34,126,-92,39,24,0,117,126,92
112,-43,-156,-34,134,-100,39,29,9,126,131,92
107,-9,-117,-48,112,-63,39,24,-4,107,122,82
107,-9,-117,-48,112,-63,39,19,-14,102,117,82
112,-9,-122,-51,117,-65,43,14,-19,102,117,82
112,-19,-131,-46,122,-75,43,9,-24,107,117,87
112,-14,-126,-48,119,-70,39,4,-9,112,122,87
117,-24,-141,-46,129,-82,34,4,-4,117,126,92
117,-14,-131,-51,124,-73,24,9,-4,117,126,92
122,-4,-126,-58,124,-65,19,9,4,122,131,92
112,0,-112,-56,112,-56,48,34,29,141,146,107
107,9,-97,-58,102,-43,73,53,39,156,161,122
107,4,-102,-56,104,-48,82,68,53,165,165,131
117,14,-102,-65,109,-43,97,82,73,170,170,136
141,29,-112,-85,126,-41,112,97,78,185,195,151
141,34,-107,-87,124,-36,112,102,92,204,209,161
117,34,-82,-75,100,-24,112,107,92,204,219,165
136,34,-102,-85,119,-34,92,102,92,204,219,165
165,63,-102,-114,134,-19,73,112,97,209,229,180
165,53,-112,-109,139,-29,58,112,97,209,229,185
165,34,-131,-100,148,-48,34,102,78,190,209,175
165,24,-141,-95,153,-58,4,68,58,180,185,165
161,14,-146,-87,153,-65,-4,29,34,170,175,151
151,4,-146,-78,148,-70,-9,29,29,161,175,146
141,-19,-161,-61,151,-90,-14,29,24,151,175,136
131,-39,-170,-46,151,-104,-19,29,24,136,165,126
151,-34,-185,-58,168,-109,-24,19,9,136,146,126
161,-63,-224,-48,192,-143,-29,9,0,117,131,112
170,-78,-248,-46,209,-163,-34,-4,-19,97,117,97
180,-92,-273,-43,226,-183,-39,-14,-24,87,107,92
175,-102,-278,-36,226,-190,-43,-24,-34,87,117,92
185,-107,-292,-39,239,-200,-43,-24,-34,87,117,87
190,-87,-278,-51,234,-183,-29,-24,-29,92,117,87
185,-68,-253,-58,219,-161,-14,-24,-29,92,122,92
146,-73,-219,-36,183,-146,-9,-14,-29,102,112,92
117,-78,-195,-19,156,-136,4,-9,-29,107,122,97
107,-92,-200,-7,153,-146,14,0,-24,107,122,97
97,-97,-195,0,146,-146,14,4,-24,107,117,97
102,-92,-195,-4,148,-143,29,14,-24,107,117,102
97,-97,-195,0,146,-146,29,14,-19,102,117,97
97,-92,-190,-2,143,-141,29,4,-24,92,107,87
102,-92,-195,-4,148,-143,19,-4,-29,87,112,73
107,-97,-204,-4,156,-151,19,-9,-39,82,107,73
102,-112,-214,4,158,-163,19,-9,-43,78,97,63
97,-112,-209,7,153,-161,19,-9,-43,78,97,63
102,-107,-209,2,156,-158,24,-4,-34,87,102,73
112,-97,-209,-7,161,-153,29,-9,-29,87,92,73
102,-107,-209,2,156,-158,19,-9,-29,82,92,68
102,-107,-209,2,156,-158,19,-14,-34,78,92,68
112,-107,-219,-2,165,-163,19,-19,-43,78,92,68
107,-112,-219,2,163,-165,29,-19,-53,87,87,58
102,-117,-219,7,161,-168,29,-19,-53,78,82,58
92,-117,-209,12,151,-163,29,-19,-53,78,82,58
78,-141,-219,31,148,-180,29,-9,-53,82,92,63
73,-156,-229,41,151,-192,34,-24,-63,87,82,53
73,-156,-229,41,151,-192,19,-34,-63,73,78,43
82,-146,-229,31,156,-187,14,-39,-58,68,78,43
82,-161,-244,39,163,-202,14,-43,-58,68,78,48
82,-136,-219,26,151,-178,24,-34,-48,68,82,58
92,-131,-224,19,158,-178,19,-39,-53,63,82,53
92,-126,-219,17,156,-173,19,-39,-53,63,82,53
82,-131,-214,24,148,-173,29,-34,-53,68,82,58
82,-141,-224,29,153,-183,19,-39,-58,58,82,53
97,-136,-234,19,165,-185,14,-34,-58,58,78,48
97,-136,-234,19,165,-185,14,-34,-48,58,78,43
97,-126,-224,14,161,-175,19,-29,-48,63,73,43
82,-146,-229,31,156,-187,9,-29,-48,63,73,53
78,-161,-239,41,158,-200,4,-34,-53,53,68,48
73,-170,-244,48,158,-207,4,-39,-58,53,68,48
63,-175,-239,56,151,-207,4,-39,-58,53,68,48
58,-156,-214,48,136,-185,24,-34,-48,58,73,63
58,-146,-204,43,131,-175,29,-24,-43,68,78,68
58,-146,-204,43,131,-175,34,-14,-39,73,82,73
58,-136,-195,39,126,-165,39,-4,-19,78,87,78
58,-131,-190,36,124,-161,48,4,-14,68,92,68
92,-141,-234,24,163,-187,53,24,-9,87,107,68
122,-122,-244,0,183,-183,43,39,4,92,102,73
141,-73,-214,-34,178,-143,34,53,4,97,97,73
156,-48,-204,-53,180,-126,34,68,39,122,122,82
156,-48,-204,-53,180,-126,43,97,92,170,156,112
141,-39,-180,-51,161,-109,53,146,170,214,209,141
131,-29,-161,-51,146,-95,87,234,268,258,248,180
146,4,-141,-75,143,-68,122,356,395,336,317,229
185,48,-136,-117,161,-43,180,580,585,439,405,287
239,87,-151,-163,195,-31,258,863,810,551,483,341
273,97,-175,-185,224,-39,326,1117,1010,619,536,375
312,102,-209,-207,261,-53,326,1244,1151,673,595,400
375,112,-263,-244,319,-75,278,1302,1254,702,639,439
473,102,-370,-287,422,-134,239,1293,1283,683,649,458
556,78,-478,-317,517,-200,195,1156,1122,556,580,419
556,34,-522,-295,539,-244,97,785,736,361,444,346
497,0,-497,-248,497,-248,-24,244,248,170,297,273
409,-24,-434,-192,422,-229,-146,-356,-273,-29,126,185
322,-87,-409,-117,366,-248,-292,-917,-751,-253,-53,48
234,-219,-453,-7,344,-336,-395,-1332,-1083,-439,-224,-78
146,-370,-517,112,331,-444,-429,-1522,-1278,-585,-385,-219
58,-488,-546,214,302,-517,-405,-1561,-1395,-717,-507,-351
-19,-541,-522,280,251,-531,-356,-1498,-1424,-785,-590,-434
-68,-551,-483,309,207,-517,-312,-1371,-1342,-771,-605,-468
-68,-551,-483,309,207,-517,-292,-1239,-1224,-717,-575,-439
-63,-541,-478,302,207,-509,-283,-1102,-1112,-653,-527,-395
-63,-541,-478,302,207,-509,-263,-966,-990,-585,-488,-385
-34,-536,-502,285,234,-519,-263,-834,-893,-546,-468,-395
4,-517,-522,256,263,-519,-263,-736,-819,-522,-458,-395
29,-473,-502,222,265,-488,-219,-639,-717,-453,-395,-336
43,-434,-478,195,261,-456,-165,-551,-600,-366,-326,-273
53,-405,-458,175,256,-431,-146,-492,-527,-307,-268,-234
63,-351,-414,143,239,-383,-141,-434,-473,-263,-204,-190
73,-287,-361,107,217,-324,-122,-322,-385,-185,-146,-126
43,-268,-312,112,178,-290,-92,-244,-302,-117,-87,-78
0,-263,-263,131,131,-263,-82,-224,-283,-112,-78,-68
0,-200,-200,100,100,-200,-58,-195,-248,-87,-63,-58
9,-165,-175,78,92,-170,-24,-141,-185,-29,-29,-34
48,-136,-185,43,117,-161,9,-97,-122,9,19,9
97,-68,-165,-14,131,-117,43,-43,-63,53,73,48
97,-43,-141,-26,119,-92,63,4,-14,102,117,78
58,-82,-141,12,100,-112,63,14,4,126,126,87
53,-78,-131,12,92,-104,53,34,-4,112,112,87
68,-68,-136,0,102,-102,58,34,-4,107,97,82
68,-68,-136,0,102,-102,63,48,-4,102,97,78
68,-68,-136,0,102,-102,58,48,4,117,97,73
78,-78,-156,0,117,-117,53,53,4,112,92,78
53,-87,-141,17,97,-114,68,58,19,126,117,87
48,-78,-126,14,87,-102,73,63,34,141,136,97
43,-73,-117,14,80,-95,68,73,43,151,151,102
19,-63,-82,21,51,-73,82,82,53,156,161,107
24,-53,-78,14,51,-65,73,92,43,151,146,107
39,-43,-82,2,61,-63,78,102,63,146,146,107
63,-43,-107,-9,85,-75,78,117,73,156,151,107
92,-19,-112,-36,102,-65,82,122,82,156,146,112
82,-19,-102,-31,92,-61,82,112,82,165,156,112
78,-19,-97,-29,87,-58,78,107,78,165,156,102
73,-19,-92,-26,82,-56,78,107,78,165,156,117
63,-24,-87,-19,75,-56,78,112,78,170,170,122
53,-58,-112,2,82,-85,73,112,78,161,165,117
39,-53,-92,7,65,-73,73,122,78,161,156,112
63,-58,-122,-2,92,-90,73,126,82,161,151,107
48,-73,-122,12,85,-97,73,131,92,165,151,102
48,-48,-97,0,73,-73,63,126,97,165,161,107
48,-43,-92,-2,70,-68,63,131,97,165,165,107
58,-43,-102,-7,80,-73,63,131,97,165,165,107
48,-53,-102,2,75,-78,58,131,97,170,161,112
53,-58,-112,2,82,-85,63,146,107,180,165,122
48,-58,-107,4,78,-82,68,151,107,180,170,122
43,-53,-97,4,70,-75,82,175,126,185,180,126
39,-39,-78,0,58,-58,87,185,136,190,185,126
53,-24,-78,-14,65,-51,87,195,151,195,200,136
63,-14,-78,-24,70,-46,87,200,151,204,200,136
63,-4,-68,-29,65,-36,87,204,156,214,209,141
63,14,-48,-39,56,-17,87,209,156,219,214,146
63,0,-63,-31,63,-31,73,204,156,214,200,141
73,-9,-82,-31,78,-46,73,204,156,209,195,136
63,-14,-78,-24,70,-46,78,209,161,204,195,131
63,-19,-82,-21,73,-51,73,209,170,200,195,126
58,-24,-82,-17,70,-53,82,224,170,209,204,141
63,-24,-87,-19,75,-56,78,234,180,209,204,141
58,-19,-78,-19,68,-48,78,239,185,214,214,141
43,-14,-58,-14,51,-36,78,244,190,224,214,151
53,0,-53,-26,53,-26,97,258,200,234,229,161
63,4,-58,-34,61,-26,102,273,214,248,239,170
78,19,-58,-48,68,-19,117,292,234,258,244,175
92,24,-68,-58,80,-21,131,297,244,268,248,175
92,24,-68,-58,80,-21,126,287,244,263,244,170
102,29,-73,-65,87,-21,122,292,248,263,244,170
92,39,-53,-65,73,-7,122,297,253,263,244,175
92,39,-53,-65,73,-7,117,297,258,263,253,175
82,24,-58,-53,70,-17,117,307,263,273,253,165
78,24,-53,-51,65,-14,117,317,268,273,253,170
78,34,-43,-56,61,-4,117,322,273,273,253,170
68,34,-34,-51,51,0,117,336,287,278,253,170
53,24,-29,-39,41,-2,136,366,312,292,273,190
53,24,-29,-39,41,-2,151,380,322,302,273,200
68,34,-34,-51,51,0,156,390,331,307,283,209
92,53,-39,-73,65,7,161,400,336,322,297,219
102,63,-39,-82,70,12,165,409,346,326,302,214
87,68,-19,-78,53,24,161,414,361,331,302,219
78,73,-4,-75,41,34,161,429,370,331,307,224
78,78,0,-78,39,39,165,439,375,336,307,224
78,97,19,-87,29,58,165,448,375,341,297,214
82,102,19,-92,31,61,175,458,390,341,307,219
78,102,24,-90,26,63,175,468,405,346,312,229
73,102,29,-87,21,65,175,488,414,341,322,234
63,102,39,-82,12,70,170,483,414,356,322,234
63,107,43,-85,9,75,180,483,419,366,336,239
58,102,43,-80,7,73,180,497,439,385,356,253
58,102,43,-80,7,73,180,507,453,385,356,253
82,126,43,-104,19,85,190,522,463,385,346,253
92,141,48,-117,21,95,200,527,468,385,346,253
87,156,68,-122,9,112,200,541,473,395,356,258
97,165,68,-131,14,117,200,541,483,400,366,263
97,161,63,-129,17,112,200,531,483,409,370,268
97,156,58,-126,19,107,195,536,488,414,375,268
92,151,58,-122,17,104,195,541,488,424,380,273
92,156,63,-124,14,109,195,556,497,434,385,278
107,175,68,-141,19,122,190,566,492,434,390,278
107,185,78,-146,14,131,195,566,502,434,395,278
102,185,82,-143,9,134,195,566,507,434,395,283
97,190,92,-143,2,141,204,570,522,434,409,287
112,195,82,-153,14,139,204,561,512,424,400,297
122,204,82,-163,19,143,195,556,507,424,395,297
131,204,73,-168,29,139,185,556,507,424,395,297
131,190,58,-161,36,124,180,556,507,429,400,297
117,175,58,-146,29,117,190,556,517,439,400,297
112,175,63,-143,24,119,185,556,517,439,400,302
117,180,63,-148,26,122,185,556,517,434,400,302
102,180,78,-141,12,129,185,556,517,434,409,302
102,200,97,-151,2,148,195,556,522,439,414,312
102,200,97,-151,2,148,195,556,522,444,414,312
102,200,97,-151,2,148,185,556,522,453,419,312
102,200,97,-151,2,148,185,546,527,468,434,322
107,204,97,-156,4,151,175,546,527,468,429,322
112,204,92,-158,9,148,175,546,527,458,429,322
102,204,102,-153,0,153,170,531,517,453,429,322
117,204,87,-161,14,146,170,531,517,453,419,322
117,214,97,-165,9,156,180,531,527,468,429,336
112,219,107,-165,2,163,175,541,536,468,439,346
117,229,112,-173,2,170,175,541,536,473,439,346
117,229,112,-173,2,170,170,531,536,473,439,346
112,239,126,-175,-7,183,165,517,522,473,448,336
117,229,112,-173,2,170,165,507,522,473,448,336
126,229,102,-178,12,165,161,497,517,468,448,331
131,229,97,-180,17,163,156,483,507,458,439,331
131,234,102,-183,14,168,146,473,488,453,429,336
131,229,97,-180,17,163,136,463,483,444,429,336
126,229,102,-178,12,165,126,448,473,439,424,336
126,229,102,-178,12,165,122,444,463,429,424,336
102,234,131,-168,-14,183,107,424,444,424,424,326
92,204,112,-148,-9,158,102,405,434,419,419,322
82,175,92,-129,-4,134,97,395,429,414,409,312
82,165,82,-124,0,124,92,380,409,409,405,307
92,170,78,-131,7,124,97,361,405,395,380,302
112,170,58,-141,26,114,92,346,385,380,370,292
117,175,58,-146,29,117,82,322,366,370,361,297
146,180,34,-163,56,107,82,312,361,361,361,297
156,190,34,-173,61,112,92,307,356,361,366,302
136,195,58,-165,39,126,87,297,341,356,361,297
126,190,63,-158,31,126,82,283,326,351,351,283
126,200,73,-163,26,136,73,273,312,351,351,283
122,185,63,-153,29,124,68,253,287,331,336,263
117,175,58,-146,29,117,63,234,263,312,326,253
107,170,63,-139,21,117,63,219,248,302,317,239
102,146,43,-124,29,95,63,209,239,297,312,234
112,136,24,-124,43,80,58,180,214,292,287,229
112,122,9,-117,51,65,58,165,200,273,273,214
112,112,0,-112,56,56,48,156,190,263,258,204
126,107,-19,-117,73,43,43,146,170,263,253,195
107,112,4,-109,51,58,43,146,161,244,253,190
82,97,14,-90,34,56,48,136,156,229,248,190
63,82,19,-73,21,51,48,131,156,219,239,185
53,82,29,-68,12,56,43,122,141,219,234,180
53,63,9,-58,21,36,34,117,126,214,229,170
53,48,-4,-51,29,21,29,102,122,204,214,165
29,19,-9,-24,19,4,29,92,102,200,204,156
29,4,-24,-17,26,-9,29,82,92,190,200,141
43,29,-14,-36,29,7,43,82,92,190,209,141
63,53,-9,-58,36,21,43,82,92,190,200,141
78,68,-9,-73,43,29,43,78,92,185,195,146
82,82,0,-82,41,41,48,78,87,175,190,141
73,63,-9,-68,41,26,39,78,78,170,185,136
63,58,-4,-61,34,26,39,82,78,170,185,136
68,53,-14,-61,41,19,39,82,68,170,185,136
92,39,-53,-65,73,-7,34,78,63,170,175,131
73,14,-58,-43,65,-21,24,63,58,161,170,122
63,4,-58,-34,61,-26,24,58,58,161,170,117
53,14,-39,-34,46,-12,24,58,58,161,165,112
53,29,-24,-41,39,2,19,53,58,161,165,107
34,9,-24,-21,29,-7,14,39,43,151,151,102
19,-14,-34,-2,26,-24,14,39,43,141,146,97
9,-9,-19,0,14,-14,14,39,43,136,146,92
9,-14,-24,2,17,-19,14,39,43,141,146,92
19,24,4,-21,7,14,24,53,43,151,151,107
43,43,0,-43,21,21,34,53,43,151,151,107
53,53,0,-53,26,26,39,48,48,151,151,112
58,58,0,-58,29,29,43,48,53,151,156,117
43,48,4,-46,19,26,58,53,63,156,161,126
43,48,4,-46,19,26,58,58,63,156,165,126
39,34,-4,-36,21,14,58,58,53,161,170,126
29,34,4,-31,12,19,63,63,53,165,175,126
34,43,9,-39,12,26,53,58,53,161,170,112
48,34,-14,-41,31,9,39,48,48,156,161,102
58,34,-24,-46,41,4,39,43,43,146,156,102
63,48,-14,-56,39,17,39,39,43,141,146,102
58,39,-19,-48,39,9,53,48,43,141,146,97
53,43,-9,-48,31,17,63,48,43,151,146,102
78,48,-29,-63,53,9,48,39,29,151,146,97
73,43,-29,-58,51,7,43,48,29,151,146,87
43,29,-14,-36,29,7,43,39,53,151,156,97
43,24,-19,-34,31,2,43,29,43,146,146,97
34,19,-14,-26,24,2,43,29,29,136,146,87
24,4,-19,-14,21,-7,53,29,39,136,141,87
14,-19,-34,2,24,-26,63,39,29,136,131,87
9,-4,-14,-2,12,-9,53,39,29,131,136,82
9,-9,-19,0,14,-14,53,39,29,131,136,82
0,-14,-14,7,7,-14,63,39,34,136,136,87
4,-9,-14,2,9,-12,63,29,43,136,146,97
4,-14,-19,4,12,-17,63,29,39,136,146,97
-14,-9,4,12,-9,-2,63,29,29,136,146,97
14,-14,-29,0,21,-21,63,24,29,136,146,92
4,0,-4,-2,4,-2,63,34,19,136,131,82
4,14,9,-9,-2,12,63,34,19,136,131,82
19,19,0,-19,9,9,68,39,29,136,131,82
4,19,14,-12,-4,17,68,39,39,136,131,82
-4,-4,0,4,-2,-2,63,24,29,117,117,73
-14,-14,0,14,-7,-7,63,24,29,117,112,73
-34,-19,14,26,-24,-2,63,24,29,117,112,73
-58,-24,34,41,-46,4,63,24,19,112,112,73
-39,-19,19,29,-29,0,73,24,24,122,122,73
-24,-14,9,19,-17,-2,73,29,24,122,126,73
-14,-14,0,14,-7,-7,73,39,24,122,126,73
-14,-9,4,12,-9,-2,78,43,24,122,126,78
-9,-14,-4,12,-2,-9,78,34,34,122,126,78
4,-19,-24,7,14,-21,78,34,34,122,122,73
-9,-24,-14,17,2,-19,78,34,29,122,122,73
-29,-24,4,26,-17,-9,78,39,29,122,122,78
9,-4,-14,-2,12,-9,73,34,29,112,112,68
34,9,-24,-21,29,-7,82,34,14,112,112,68
53,24,-29,-39,41,-2,73,29,14,112,112,68
73,39,-34,-56,53,2,73,29,14,112,112,68
48,29,-19,-39,34,4,82,34,29,122,122,68
53,19,-34,-36,43,-7,82,39,29,122,122,68
53,9,-43,-31,48,-17,78,34,29,117,122,73
43,0,-43,-21,43,-21,73,39,29,117,122,78
0,-14,-14,7,7,-14,63,9,9,97,102,53
24,-9,-34,-7,29,-21,73,24,19,107,97,53
19,-19,-39,0,29,-29,73,43,14,107,107,53
0,-29,-29,14,14,-29,82,43,19,117,126,73
-19,-19,0,19,-9,-9,97,48,19,126,126,78
-14,-14,0,14,-7,-7,92,39,9,122,122,68
-9,-9,0,9,-4,-4,87,39,9,117,117,68
-4,-4,0,4,-2,-2,82,39,9,112,112,68
0,0,0,0,0,0,78,39,9,107,107,68
-14,-9,4,12,-9,-2,58,34,9,92,102,58
-9,-14,-4,12,-2,-9,68,34,14,97,107,63
-14,-14,0,14,-7,-7,68,34,19,102,107,63
-19,9,29,4,-24,19,68,29,19,87,102,63
-9,19,29,-4,-19,24,73,34,19,97,102,73
-4,19,24,-7,-14,21,82,39,24,102,107,73
-4,9,14,-2,-9,12,87,43,29,112,112,78
-4,24,29,-9,-17,26,92,53,39,122,122,78
9,14,4,-12,2,9,82,48,29,117,117,73
9,34,24,-21,-7,29,78,48,24,117,117,73
14,53,39,-34,-12,46,78,43,29,122,122,73
14,68,53,-41,-19,61,97,58,39,141,136,87
0,102,102,-51,-51,102,136,87,58,161,156,107
0,112,112,-56,-56,112,151,102,82,175,165,122
9,136,126,-73,-58,131,170,117,112,185,175,131
24,156,131,-90,-53,143,190,141,136,204,195,151
9,146,136,-78,-63,141,185,146,136,209,204,151
-19,141,161,-61,-90,151,180,151,131,204,209,156
-4,136,141,-65,-73,139,156,146,126,200,204,156
19,146,126,-82,-53,136,126,141,122,195,200,156
29,131,102,-80,-36,117,97,122,117,190,190,146
39,107,68,-73,-14,87,68,102,92,165,170,131
48,92,43,-70,2,68,34,58,68,151,146,117
63,92,29,-78,17,61,29,29,53,146,146,117
63,97,34,-80,14,65,29,19,48,151,156,117
63,87,24,-75,19,56,29,19,43,146,156,112
63,82,19,-73,21,51,29,19,43,136,146,107
73,82,9,-78,31,46,24,19,29,136,136,97
73,48,-24,-61,48,12,29,9,29,107,122,92
82,29,-53,-56,68,-12,24,-4,9,87,107,78
92,9,-82,-51,87,-36,19,-14,4,78,97,73
78,-19,-97,-29,87,-58,14,-14,4,78,97,73
92,-24,-117,-34,104,-70,0,-19,-9,68,82,53
92,-4,-97,-43,95,-51,9,-24,-9,73,78,48
82,14,-68,-48,75,-26,19,-29,-14,73,78,48
53,29,-24,-41,39,2,19,-29,-19,82,73,43
19,34,14,-26,2,24,48,-24,-4,92,87,53
14,29,14,-21,0,21,63,-14,4,97,92,58
9,34,24,-21,-7,29,68,-9,9,102,92,63
4,29,24,-17,-9,26,78,-4,9,97,92,63
-4,14,19,-4,-12,17,68,-14,0,82,87,58
-9,9,19,0,-14,14,68,-24,-9,73,73,48
-9,0,9,4,-9,4,58,-34,-19,68,73,34
-14,-19,-4,17,-4,-12,58,-39,-29,63,68,34
-39,-58,-19,48,-9,-39,53,-53,-48,48,43,9
-63,-73,-9,68,-26,-41,48,-58,-53,39,39,4
-78,-82,-4,80,-36,-43,48,-58,-48,39,39,9
-92,-97,-4,95,-43,-51,58,-58,-48,29,34,4
-78,-78,0,78,-39,-39,63,-48,-39,43,43,9
-63,-58,4,61,-34,-26,68,-43,-34,48,53,19
-39,-39,0,39,-19,-19,73,-39,-34,58,63,29
-19,-14,4,17,-12,-4,78,-29,-24,68,68,39
-24,0,24,12,-24,12,78,-34,-34,68,63,29
-24,9,34,7,-29,21,78,-39,-34,68,63,29
-29,-4,24,17,-26,9,78,-34,-34,73,73,34
-43,-9,34,26,-39,12,87,-39,-34,82,73,34
-53,-19,34,36,-43,7,87,-43,-34,63,58,24
-43,-19,24,31,-34,2,87,-43,-29,63,58,24
-43,-43,0,43,-21,-21,92,-43,-29,68,58,29
-43,-43,0,43,-21,-21,92,-43,-29,68,53,29
-43,-34,9,39,-26,-12,78,-48,-34,53,53,34
-43,-34,9,39,-26,-12,78,-48,-34,53,53,34
-53,-43,9,48,-31,-17,87,-43,-34,58,53,39
-63,-43,19,53,-41,-12,87,-39,-29,58,58,39
-58,-39,19,48,-39,-9,92,-34,-29,68,68,39
-58,-39,19,48,-39,-9,92,-34,-19,68,73,39
-58,-29,29,43,-43,0,97,-29,-19,73,73,43
-58,-39,19,48,-39,-9,97,-29,-19,73,73,43
-48,-48,0,48,-24,-24,87,-34,-34,63,58,39
-48,-53,-4,51,-21,-29,82,-39,-39,63,58,39
-53,-53,0,53,-26,-26,78,-39,-39,63,58,39
-58,-48,9,53,-34,-19,78,-39,-34,63,58,39
-58,-29,29,43,-43,0,87,-43,-24,58,58,39
-68,-19,48,43,-58,14,87,-29,-14,68,68,39
-48,-39,9,43,-29,-14,87,-24,-9,68,58,39
-19,-43,-24,31,2,-34,87,-14,-24,48,43,29
-4,-34,-29,19,12,-31,102,14,9,68,48,48
-24,-53,-29,39,2,-41,102,29,34,82,63,53
-43,-63,-19,53,-12,-41,102,24,24,78,68,43
-58,-29,29,43,-43,0,92,29,48,102,92,63
-29,9,39,9,-34,24,92,48,102,151,126,92
-14,29,43,-7,-29,36,82,97,161,195,170,122
-4,58,63,-26,-34,61,107,185,239,248,209,151
19,63,43,-41,-12,53,131,297,366,317,268,190
68,58,-9,-63,39,24,180,492,556,419,346,258
102,107,4,-104,48,56,268,795,790,512,434,312
136,185,48,-161,43,117,346,1078,1010,590,507,346
214,209,-4,-212,109,102,356,1224,1161,653,566,390
297,209,-87,-253,192,61,317,1254,1244,673,600,419
356,180,-175,-268,265,2,278,1254,1263,634,610,439
390,117,-273,-253,331,-78,244,1137,1093,507,522,380
390,63,-326,-226,358,-131,175,775,697,322,366,287
341,58,-283,-200,312,-112,82,234,180,112,200,185
263,43,-219,-153,241,-87,-39,-336,-331,-78,39,87
224,-9,-234,-107,229,-122,-165,-878,-780,-283,-131,-19
156,-112,-268,-21,212,-190,-287,-1302,-1093,-458,-302,-146
39,-244,-283,102,161,-263,-322,-1512,-1278,-605,-434,-268
-87,-370,-283,229,97,-326,-287,-1532,-1376,-717,-546,-370
-165,-453,-287,309,61,-370,-258,-1468,-1395,-785,-629,-453
-204,-483,-278,344,36,-380,-253,-1390,-1351,-810,-683,-527
-204,-502,-297,353,46,-400,-234,-1288,-1263,-795,-683,-536
-200,-502,-302,351,51,-402,-214,-1171,-1161,-732,-634,-502
-209,-483,-273,346,31,-378,-214,-1024,-1049,-663,-595,-473
-151,-429,-278,290,63,-353,-195,-863,-902,-575,-536,-434
-43,-351,-307,197,131,-329,-146,-707,-741,-483,-458,-366
0,-297,-297,148,148,-297,-92,-590,-619,-405,-375,-307
-24,-268,-244,146,109,-256,-78,-531,-551,-346,-326,-273
-82,-268,-185,175,51,-226,-87,-502,-507,-317,-297,-253
-102,-273,-170,187,34,-222,-82,-453,-453,-263,-244,-200
-92,-229,-136,161,21,-183,-63,-380,-385,-204,-185,-146
-82,-161,-78,122,-2,-119,-43,-302,-322,-156,-146,-117
-68,-117,-48,92,-9,-82,-24,-234,-253,-122,-117,-97
-58,-92,-34,75,-12,-63,9,-165,-170,-68,-73,-58
-58,-78,-19,68,-19,-48,53,-112,-107,-19,-29,-24
-48,-39,9,43,-29,-14,87,-68,-63,19,9,9
-48,-9,39,29,-43,14,122,-43,-14,73,53,58
-58,4,63,26,-61,34,141,-14,4,102,68,78
-58,14,73,21,-65,43,141,4,4,107,87,78
-43,29,73,7,-58,51,131,14,14,112,92,87
-43,24,68,9,-56,46,136,19,24,107,87,82
-58,19,78,19,-68,48,141,39,34,102,87,78
-73,14,87,29,-80,51,136,43,53,117,87,73
-78,0,78,39,-78,39,131,53,63,112,82,78
-87,-4,82,46,-85,39,141,63,68,112,87,87
-87,0,87,43,-87,43,141,63,73,122,97,97
-87,0,87,43,-87,43,131,68,73,126,102,102
-107,4,112,51,-109,58,141,73,73,126,102,107
-97,19,117,39,-107,68,151,82,78,131,107,107
-78,34,112,21,-95,73,156,92,102,136,117,107
-48,39,87,4,-68,63,156,107,117,156,131,107
-14,68,82,-26,-48,75,161,112,131,165,136,112
0,78,78,-39,-39,78,151,112,126,161,131,102
0,78,78,-39,-39,78,146,107,117,156,126,92
0,78,78,-39,-39,78,146,107,112,151,122,107
-4,73,78,-34,-41,75,146,112,107,151,131,112
-19,63,82,-21,-51,73,156,131,117,156,141,112
-39,73,112,-17,-75,92,161,141,126,161,136,112
-19,73,92,-26,-56,82,165,146,141,165,136,112
-39,63,102,-12,-70,82,170,151,161,175,141,112
-29,78,107,-24,-68,92,161,146,161,185,141,117
-29,82,112,-26,-70,97,161,151,156,185,146,117
-19,82,102,-31,-61,92,161,151,151,185,146,117
-29,73,102,-21,-65,87,156,151,146,190,141,122
-39,58,97,-9,-68,78,151,141,156,185,141,112
-58,48,107,4,-82,78,146,141,156,180,141,112
-78,43,122,17,-100,82,151,161,175,180,146,117
-97,48,146,24,-122,97,146,165,185,180,146,117
-58,63,122,-2,-90,92,151,170,200,190,161,122
-34,73,107,-19,-70,90,156,180,200,195,161,126
-19,82,102,-31,-61,92,161,190,204,200,170,136
-4,102,107,-48,-56,104,165,200,204,200,175,146
-9,97,107,-43,-58,102,165,200,200,214,185,146
-14,87,102,-36,-58,95,170,204,204,219,185,146
-39,82,122,-21,-80,102,180,214,214,224,190,146
-53,78,131,-12,-92,104,180,219,229,229,195,146
-53,73,126,-9,-90,100,190,224,229,229,185,161
-43,73,117,-14,-80,95,185,234,239,229,185,161
-43,78,122,-17,-82,100,185,239,244,234,195,161
-53,82,136,-14,-95,109,185,244,248,244,195,170
-39,87,126,-24,-82,107,180,248,263,239,200,170
-34,92,126,-29,-80,109,180,263,273,248,209,180
-24,107,131,-41,-78,119,190,283,287,253,214,185
-14,112,126,-48,-70,119,200,287,292,258,219,185
-34,97,131,-31,-82,114,200,292,297,258,209,175
-34,97,131,-31,-82,114,200,302,307,263,214,180
-53,102,156,-24,-104,129,204,312,317,268,219,190
-63,97,161,-17,-112,129,204,317,326,273,234,195
-48,107,156,-29,-102,131,209,326,341,292,239,204
-39,112,151,-36,-95,131,214,336,346,292,244,209
-24,126,151,-51,-87,139,219,341,351,292,248,209
-19,131,151,-56,-85,141,224,356,366,297,253,209
-24,141,165,-58,-95,153,224,366,375,292,258,204
-24,141,165,-58,-95,153,229,380,380,302,253,209
-9,151,161,-70,-85,156,224,390,385,307,258,214
14,170,156,-92,-70,163,219,400,385,322,268,219
19,165,146,-92,-63,156,239,400,395,317,273,234
0,156,156,-78,-78,156,239,405,409,322,273,239
-14,146,161,-65,-87,153,244,419,419,322,278,244
-19,136,156,-58,-87,146,253,429,424,326,278,244
-29,161,190,-65,-109,175,253,444,444,341,287,244
-34,170,204,-68,-119,187,263,458,458,351,297,248
-48,175,224,-63,-136,200,263,473,473,366,302,258
-63,180,244,-58,-153,212,263,497,483,370,312,263
-58,190,248,-65,-153,219,273,507,488,385,322,273
-43,195,239,-75,-141,217,287,512,497,395,336,278
-34,190,224,-78,-129,207,292,531,522,414,356,292
-19,190,209,-85,-114,200,297,546,541,414,356,292
4,185,180,-95,-87,183,292,541,536,400,341,287
4,190,185,-97,-90,187,297,536,536,395,336,283
-9,195,204,-92,-107,200,292,541,536,400,341,283
-9,195,204,-92,-107,200,287,531,541,400,346,283
9,209,200,-109,-95,204,292,546,546,414,361,302
9,214,204,-112,-97,209,292,556,556,424,366,307
4,219,214,-112,-104,217,297,566,561,439,370,317
4,234,229,-119,-112,231,302,585,575,453,375,326
19,229,209,-124,-95,219,297,575,570,444,370,331
19,234,214,-126,-97,224,302,575,580,444,375,326
14,229,214,-122,-100,222,302,575,585,444,375,326
9,229,219,-119,-104,224,312,580,600,444,390,326
29,239,209,-134,-90,224,302,570,595,453,400,326
34,253,219,-143,-92,236,292,566,585,453,395,326
39,258,219,-148,-90,239,283,566,580,453,395,326
34,248,214,-141,-90,231,278,566,575,458,400,326
24,229,204,-126,-90,217,283,561,580,458,390,336
14,224,209,-119,-97,217,283,566,585,458,390,341
14,224,209,-119,-97,217,287,570,590,453,390,341
-4,219,224,-107,-114,222,292,575,595,453,400,341
-4,234,239,-114,-122,236,287,561,590,448,395,331
-4,239,244,-117,-124,241,283,556,580,444,385,331
-4,244,248,-119,-126,246,268,551,570,444,380,331
-4,248,253,-122,-129,251,263,536,566,448,385,341
0,268,268,-134,-134,268,268,551,590,473,400,356
14,273,258,-143,-122,265,273,556,595,468,409,361
14,278,263,-146,-124,270,273,546,590,468,419,366
39,283,244,-161,-102,263,278,551,595,473,419,370
43,287,244,-165,-100,265,268,536,590,473,424,361
43,287,244,-165,-100,265,263,541,595,468,429,366
53,292,239,-173,-92,265,263,536,590,468,424,361
58,287,229,-173,-85,258,258,522,585,463,419,356
39,278,239,-158,-100,258,258,512,575,468,429,361
29,268,239,-148,-104,253,263,507,580,473,429,366
24,268,244,-146,-109,256,263,502,580,473,429,366
14,268,253,-141,-119,261,263,492,575,468,419,370
4,263,258,-134,-126,261,248,473,556,468,419,366
4,258,253,-131,-124,256,244,463,551,463,419,366
0,258,258,-129,-129,258,239,448,541,463,414,366
0,258,258,-129,-129,258,239,444,531,458,414,366
-19,263,283,-122,-151,273,244,429,522,448,414,370
-24,234,258,-104,-141,246,239,414,512,439,409,370
-29,204,234,-87,-131,219,234,409,507,429,400,366
-24,195,219,-85,-122,207,229,400,488,419,395,366
-19,214,234,-97,-126,224,224,370,478,405,370,346
-4,219,224,-107,-114,222,219,356,463,390,361,331
-4,229,234,-112,-119,231,209,331,448,380,351,331
19,239,219,-129,-100,229,209,322,448,370,351,326
29,248,219,-139,-95,234,219,317,439,356,341,322
9,244,234,-126,-112,239,214,307,419,346,331,317
0,229,229,-114,-114,229,209,292,400,336,317,302
0,229,229,-114,-114,229,200,283,380,331,312,302
14,224,209,-119,-97,217,204,273,366,331,307,302
19,214,195,-117,-87,204,200,253,341,312,297,292
19,209,190,-114,-85,200,200,239,326,302,287,278
24,185,161,-104,-68,173,200,229,317,297,283,273
9,165,156,-87,-73,161,195,209,292,283,268,258
-4,151,156,-73,-80,153,195,195,278,263,253,244
-19,141,161,-61,-90,151,185,185,268,253,239,234
-19,136,156,-58,-87,146,180,175,248,253,234,224
-9,136,146,-63,-78,141,180,165,229,244,224,219
-24,126,151,-51,-87,139,185,156,224,229,219,219
-34,117,151,-41,-92,134,185,151,224,219,209,214
-34,122,156,-43,-95,139,180,141,209,219,204,209
-34,112,146,-39,-90,129,180,131,195,204,195,195
-34,107,141,-36,-87,124,175,122,190,195,185,195
-58,87,146,-14,-102,117,175,117,170,190,180,190
-58,82,141,-12,-100,112,175,112,161,180,180,180
-53,78,131,-12,-92,104,175,97,151,170,175,165
-43,82,126,-19,-85,104,170,92,151,170,161,161
-39,78,117,-19,-78,97,165,82,151,165,151,161
-43,73,117,-14,-80,95,165,78,146,156,141,151
-34,68,102,-17,-68,85,165,78,156,161,141,151
-34,78,112,-21,-73,95,165,82,156,161,146,156
-19,87,107,-34,-63,97,165,82,146,161,151,161
14,87,73,-51,-29,80,161,78,141,161,146,161
-4,63,68,-29,-36,65,161,82,131,161,141,146
-14,53,68,-19,-41,61,161,78,126,161,141,146
-24,63,87,-19,-56,75,161,78,122,161,136,146
-24,78,102,-26,-63,90,156,73,117,161,136,146
-29,63,92,-17,-61,78,156,78,117,156,136,146
-39,43,82,-2,-61,63,161,78,122,151,136,146
-43,53,97,-4,-70,75,165,78,126,151,141,146
-39,53,92,-7,-65,73,170,78,131,161,146,151
-53,53,107,0,-80,80,170,68,122,156,136,141
-53,53,107,0,-80,80,170,63,112,151,131,136
-68,43,112,12,-90,78,165,53,107,146,126,136
-87,29,117,29,-102,73,161,48,102,141,126,136
-73,48,122,12,-97,85,156,58,112,141,117,136
-53,58,112,-2,-82,85,156,58,112,136,117,136
-39,53,92,-7,-65,73,156,53,102,136,117,136
-29,63,92,-17,-61,78,161,53,102,136,117,136
-24,78,102,-26,-63,90,170,53,112,136,117,141
-9,73,82,-31,-46,78,156,48,107,136,112,131
0,78,78,-39,-39,78,156,48,102,131,112,131
4,97,92,-51,-43,95,156,48,102,131,107,131
-14,68,82,-26,-48,75,151,43,87,112,97,126
-34,53,87,-9,-61,70,161,39,82,122,97,131
-24,39,63,-7,-43,51,146,24,63,122,97,126
-43,14,58,14,-51,36,141,29,58,122,97,117
-48,29,78,9,-63,53,151,34,82,122,107,117
-34,34,68,0,-51,51,151,29,82,117,97,117
-29,39,68,-4,-48,53,151,34,78,107,97,107
-24,34,58,-4,-41,46,161,39,97,107,92,107
-29,34,63,-2,-46,48,151,29,82,97,82,117
-29,53,82,-12,-56,68,141,29,78,92,87,112
-24,53,78,-14,-51,65,141,29,73,92,87,112
-29,53,82,-12,-56,68,151,29,73,97,87,117
-19,63,82,-21,-51,73,161,29,82,107,87,117
-24,53,78,-14,-51,65,161,29,78,107,87,117
-48,53,102,-2,-75,78,161,29,68,107,87,117
-24,43,68,-9,-46,56,161,24,68,107,87,112
-19,39,58,-9,-39,48,146,19,63,97,73,107
-14,43,58,-14,-36,51,141,14,58,97,73,102
4,39,34,-21,-14,36,141,14,63,97,73,97
-4,29,34,-12,-19,31,136,9,68,97,73,92
9,19,9,-14,0,14,131,4,53,73,58,73
14,14,0,-14,7,7,131,4,48,68,53,73
9,14,4,-12,2,9,131,4,43,63,53,73
0,14,14,-7,-7,14,131,4,29,53,53,73
14,4,-9,-9,12,-2,122,-9,34,63,43,63
24,4,-19,-14,21,-7,122,-9,34,63,48,63
29,0,-29,-14,29,-14,122,-4,34,63,48,63
24,0,-24,-12,24,-12,126,-4,34,63,48,68
48,9,-39,-29,43,-14,126,-14,39,53,48,58
73,9,-63,-41,68,-26,126,-14,34,53,43,53
68,9,-58,-39,63,-24,126,-14,24,53,43,53
58,14,-43,-36,51,-14,126,-9,19,53,43,58
87,39,-48,-63,68,-4,141,4,34,63,53,68
102,48,-53,-75,78,-2,151,4,24,63,53,68
112,58,-53,-85,82,2,141,0,29,63,53,68
122,68,-53,-95,87,7,141,0,34,63,53,68
92,53,-39,-73,65,7,141,-9,34,63,48,63
102,48,-53,-75,78,-2,141,-9,29,63,43,58
107,43,-63,-75,85,-9,136,-19,24,58,39,58
102,39,-63,-70,82,-12,131,-19,19,58,34,58
87,24,-63,-56,75,-19,141,-19,19,48,34,43
82,-9,-92,-36,87,-51,112,-34,9,29,19,34
97,0,-97,-48,97,-48,112,-34,4,29,19,43
117,39,-78,-78,97,-19,112,-34,9,39,19,53
126,48,-78,-87,102,-14,117,-29,0,29,19,48
117,34,-82,-75,100,-24,117,-34,-9,19,14,43
117,19,-97,-68,107,-39,117,-39,-9,19,9,39
117,4,-112,-61,114,-53,117,-43,-9,19,4,34
117,-9,-126,-53,122,-68,117,-48,-9,19,0,29
102,-4,-107,-48,104,-56,97,-48,-19,9,-9,19
107,-4,-112,-51,109,-58,107,-43,-14,19,0,24
102,0,-102,-51,102,-51,107,-39,-9,29,4,24
97,29,-68,-63,82,-19,107,-39,-9,19,4,24
97,24,-73,-61,85,-24,107,-48,-14,24,9,34
102,19,-82,-61,92,-31,112,-48,-14,24,9,34
102,4,-97,-53,100,-46,112,-48,-14,29,9,39
102,14,-87,-58,95,-36,112,-43,-9,34,14,39
131,19,-112,-75,122,-46,102,-53,-14,34,9,43
146,43,-102,-95,124,-29,97,-48,-14,29,9,43
165,68,-97,-117,131,-14,97,-48,-4,29,14,43
180,87,-92,-134,136,-2,117,-29,9,43,29,58
161,92,-68,-126,114,12,131,-14,14,48,34,63
156,92,-63,-124,109,14,141,-4,24,58,39,73
161,107,-53,-134,107,26,156,4,39,63,43,78
170,117,-53,-143,112,31,170,24,48,78,58,92
180,126,-53,-153,117,36,180,43,73,107,73,102
156,131,-24,-143,90,53,180,53,73,107,82,107
175,136,-39,-156,107,48,161,53,73,107,82,107
204,156,-48,-180,126,53,136,53,73,107,82,107
219,146,-73,-183,146,36,122,58,82,107,87,112
224,126,-97,-175,161,14,97,43,63,87,73,102
229,117,-112,-173,170,2,68,4,43,78,53,92
239,122,-117,-180,178,2,68,-19,34,78,58,97
244,122,-122,-183,183,0,63,-34,24,63,48,92
248,107,-141,-178,195,-17,58,-39,14,58,48,82
253,97,-156,-175,204,-29,53,-43,9,48,39,73
268,92,-175,-180,222,-41,43,-48,-9,48,29,58
278,53,-224,-165,251,-85,39,-63,-29,24,9,43
287,39,-248,-163,268,-104,34,-82,-48,0,-9,29
297,24,-273,-161,285,-124,29,-97,-53,-14,-24,24
283,0,-283,-141,283,-141,24,-102,-53,-19,-29,24
283,-14,-297,-134,290,-156,14,-92,-53,-24,-34,14
278,-4,-283,-136,280,-143,29,-92,-48,-24,-39,9
263,4,-258,-134,261,-126,43,-92,-48,-29,-39,9
229,9,-219,-119,224,-104,48,-87,-48,-24,-43,4
204,19,-185,-112,195,-82,73,-87,-48,-19,-29,14
200,9,-190,-104,195,-90,82,-82,-43,-19,-24,19
195,9,-185,-102,190,-87,82,-82,-43,-19,-24,24
190,0,-190,-95,190,-95,87,-82,-48,-29,-24,24
180,0,-180,-90,180,-90,87,-82,-58,-29,-29,19
175,0,-175,-87,175,-87,87,-92,-68,-34,-43,9
175,-4,-180,-85,178,-92,78,-102,-78,-34,-43,-4
170,-19,-190,-75,180,-104,78,-107,-87,-34,-48,-4
165,-43,-209,-61,187,-126,68,-107,-82,-43,-58,-24
161,-43,-204,-58,183,-124,68,-107,-82,-48,-58,-24
165,-39,-204,-63,185,-122,73,-102,-73,-43,-53,-14
170,-39,-209,-65,190,-124,87,-97,-68,-48,-53,-14
151,-58,-209,-46,180,-134,73,-102,-73,-63,-68,-24
141,-68,-209,-36,175,-139,68,-112,-82,-68,-73,-29
141,-78,-219,-31,180,-148,63,-122,-97,-68,-78,-34
136,-82,-219,-26,178,-151,58,-126,-102,-68,-87,-39
161,-68,-229,-46,195,-148,58,-126,-102,-78,-82,-29
170,-48,-219,-61,195,-134,58,-126,-102,-78,-82,-29
175,-53,-229,-61,202,-141,58,-117,-102,-73,-73,-24
170,-48,-219,-61,195,-134,68,-117,-102,-63,-73,-24
175,-43,-219,-65,197,-131,73,-107,-97,-68,-73,-19
190,-29,-219,-80,204,-124,78,-102,-87,-63,-68,-14
195,-39,-234,-78,214,-136,87,-97,-82,-53,-63,-4
200,-24,-224,-87,212,-124,92,-92,-78,-48,-63,0
204,-29,-234,-87,219,-131,78,-102,-97,-58,-73,-19
200,-34,-234,-82,217,-134,78,-107,-102,-63,-73,-24
185,-48,-234,-68,209,-141,87,-107,-107,-63,-73,-24
170,-53,-224,-58,197,-139,87,-107,-107,-68,-68,-29
185,-58,-244,-63,214,-151,73,-107,-117,-78,-82,-43
185,-58,-244,-63,214,-151,73,-112,-107,-78,-82,-48
185,-48,-234,-68,209,-141,78,-112,-107,-73,-87,-48
185,-58,-244,-63,214,-151,78,-117,-107,-73,-92,-53
209,-48,-258,-80,234,-153,82,-117,-97,-78,-92,-43
224,-43,-268,-90,246,-156,82,-117,-97,-73,-87,-39
234,-34,-268,-100,251,-151,82,-112,-92,-68,-82,-34
244,-19,-263,-112,253,-141,87,-107,-82,-63,-78,-29
204,-39,-244,-82,224,-141,97,-92,-92,-78,-87,-39
234,-19,-253,-107,244,-136,97,-97,-82,-68,-87,-48
263,-19,-283,-122,273,-151,87,-102,-87,-68,-87,-58
244,-34,-278,-104,261,-156,97,-73,-73,-48,-73,-39
200,-73,-273,-63,236,-173,102,-63,-68,-48,-68,-39
200,-73,-273,-63,236,-173,102,-58,-63,-63,-82,-53
268,-4,-273,-131,270,-139,102,-43,-34,-48,-78,-34
312,48,-263,-180,287,-107,102,-39,-19,-24,-53,-14
283,29,-253,-156,268,-112,92,-39,-4,-14,-39,-14
248,19,-229,-134,239,-104,92,9,63,29,4,24
268,48,-219,-158,244,-85,117,87,151,92,73,82
322,92,-229,-207,275,-68,122,180,258,161,131,131
341,107,-234,-224,287,-63,141,317,429,244,209,180
336,97,-239,-217,287,-70,190,561,673,366,307,253
351,117,-234,-234,292,-58,268,854,912,473,390,307
419,151,-268,-285,344,-58,307,1039,1102,556,468,351
531,170,-361,-351,446,-95,297,1117,1215,605,531,409
619,190,-429,-405,524,-119,268,1146,1283,614,580,468
663,185,-478,-424,570,-146,253,1117,1210,527,551,458
692,122,-570,-407,631,-224,214,893,912,331,405,366
653,68,-585,-361,619,-258,141,448,414,92,190,244
527,53,-473,-290,500,-209,58,-82,-117,-126,-9,117
409,-29,-439,-190,424,-234,-39,-614,-624,-351,-209,-29
331,-131,-463,-100,397,-297,-161,-1088,-1034,-546,-390,-175
253,-214,-468,-19,361,-341,-234,-1385,-1278,-683,-541,-307
204,-312,-517,53,361,-414,-219,-1473,-1395,-814,-663,-419
156,-434,-590,139,373,-512,-180,-1429,-1444,-932,-775,-522
97,-502,-600,202,348,-551,-175,-1351,-1410,-985,-839,-575
68,-492,-561,212,314,-527,-156,-1249,-1342,-971,-839,-585
63,-512,-575,224,319,-544,-136,-1171,-1259,-936,-810,-590
53,-522,-575,234,314,-549,-146,-1093,-1176,-878,-780,-570
82,-468,-551,192,317,-509,-146,-980,-1049,-780,-722,-522
131,-390,-522,129,326,-456,-126,-834,-917,-697,-653,-463
165,-366,-531,100,348,-448,-102,-727,-805,-619,-580,-414
180,-366,-546,92,363,-456,-97,-658,-717,-561,-531,-380
180,-356,-536,87,358,-446,-97,-600,-644,-512,-483,-341
190,-331,-522,70,356,-427,-82,-531,-561,-458,-429,-297
209,-287,-497,39,353,-392,-43,-458,-483,-390,-361,-244
209,-248,-458,19,334,-353,-24,-390,-409,-331,-312,-195
214,-195,-409,-9,312,-302,-14,-331,-351,-297,-283,-165
234,-112,-346,-61,290,-229,19,-273,-287,-244,-239,-126
253,-58,-312,-97,283,-185,53,-219,-224,-175,-185,-92
244,-48,-292,-97,268,-170,68,-195,-190,-146,-165,-87
234,-29,-263,-102,248,-146,73,-170,-170,-141,-141,-68
204,-24,-229,-90,217,-126,102,-141,-141,-112,-117,-39
195,-43,-239,-75,217,-141,102,-122,-112,-87,-107,-29
190,-39,-229,-75,209,-134,102,-112,-102,-82,-102,-19
195,-19,-214,-87,204,-117,112,-92,-82,-78,-97,-9
185,-19,-204,-82,195,-112,122,-68,-73,-73,-87,-9
175,-19,-195,-78,185,-107,122,-58,-53,-48,-78,-9
175,-29,-204,-73,190,-117,122,-43,-43,-43,-73,0
185,-24,-209,-80,197,-117,122,-34,-29,-34,-58,0
195,-9,-204,-92,200,-107,122,-34,-24,-24,-48,9
204,0,-204,-102,204,-102,112,-29,-24,-19,-43,14
195,14,-180,-104,187,-82,122,-24,-24,-19,-43,19
195,0,-195,-97,195,-97,117,-29,-29,-24,-58,14
195,-14,-209,-90,202,-112,117,-24,-14,-29,-58,9
204,-39,-244,-82,224,-141,112,-14,-9,-19,-53,4
219,-39,-258,-90,239,-148,112,-14,-4,-19,-58,4
224,-9,-234,-107,229,-122,126,0,0,-14,-43,9
224,0,-224,-112,224,-112,126,0,0,-9,-39,4
224,9,-214,-117,219,-102,131,4,4,-4,-34,24
219,14,-204,-117,212,-95,136,14,9,4,-14,34
239,9,-229,-124,234,-109,131,14,14,-4,-24,43
244,24,-219,-134,231,-97,131,24,19,-4,-29,43
287,29,-258,-158,273,-114,131,29,29,-4,-29,43
292,24,-268,-158,280,-122,131,34,43,0,-24,43
278,34,-244,-156,261,-104,122,29,43,9,-14,43
273,34,-239,-153,256,-102,122,34,39,9,-9,39
278,29,-248,-153,263,-109,122,34,34,9,-9,34
263,14,-248,-139,256,-117,117,34,29,14,-14,34
258,19,-239,-139,248,-109,126,43,43,24,-4,39
244,29,-214,-136,229,-92,126,43,48,24,-4,43
229,43,-185,-136,207,-70,136,63,73,29,0,53
214,68,-146,-141,180,-39,136,68,87,34,0,58
234,58,-175,-146,204,-58,131,68,82,29,0,53
248,53,-195,-151,222,-70,126,73,82,29,-4,48
253,48,-204,-151,229,-78,122,78,87,29,0,48
258,53,-204,-156,231,-75,117,82,87,24,0,48
258,48,-209,-153,234,-80,126,82,102,43,9,58
258,39,-219,-148,239,-90,131,87,107,43,9,58
239,34,-204,-136,222,-85,141,97,117,43,14,58
229,29,-200,-129,214,-85,141,102,131,43,19,58
229,34,-195,-131,212,-80,131,117,122,53,29,63
239,34,-204,-136,222,-85,126,126,131,53,29,63
239,39,-200,-139,219,-80,126,131,136,58,39,63
229,43,-185,-136,207,-70,126,136,141,68,39,73
229,34,-195,-131,212,-80,131,136,141,68,39,63
229,34,-195,-131,212,-80,131,146,146,73,43,73
234,43,-190,-139,212,-73,141,161,156,73,43,78
239,43,-195,-141,217,-75,151,161,156,73,43,78
244,43,-200,-143,222,-78,146,156,165,82,43,78
258,48,-209,-153,234,-80,141,165,180,87,48,82
253,58,-195,-156,224,-68,141,175,195,92,53,92
258,58,-200,-158,229,-70,136,180,209,97,68,97
258,58,-200,-158,229,-70,146,190,214,107,78,107
253,63,-190,-158,222,-63,146,200,219,107,78,112
253,78,-175,-165,214,-48,146,204,224,107,78,112
244,82,-161,-163,202,-39,146,219,239,112,78,112
248,82,-165,-165,207,-41,156,234,244,117,78,112
248,82,-165,-165,207,-41,161,244,253,126,78,112
263,92,-170,-178,217,-39,156,248,263,131,87,112
287,112,-175,-200,231,-31,151,253,268,146,102,112
292,97,-195,-195,244,-48,165,263,287,161,107,126
263,87,-175,-175,219,-43,170,268,302,165,107,131
239,78,-161,-158,200,-41,180,283,312,165,112,136
224,68,-156,-146,190,-43,195,292,317,170,112,136
239,92,-146,-165,192,-26,185,312,326,190,117,136
258,112,-146,-185,202,-17,195,322,341,195,131,141
268,126,-141,-197,204,-7,195,331,356,204,141,151
278,141,-136,-209,207,2,195,351,366,204,156,156
292,165,-126,-229,209,19,190,346,366,204,146,146
307,175,-131,-241,219,21,200,346,370,209,161,151
317,175,-141,-246,229,17,200,361,390,224,180,165
331,180,-151,-256,241,14,200,370,405,219,180,165
322,161,-161,-241,241,0,200,366,405,219,161,165
307,151,-156,-229,231,-2,209,370,409,219,161,165
278,141,-136,-209,207,2,209,385,414,229,170,170
263,126,-136,-195,200,-4,209,385,424,234,180,175
278,151,-126,-214,202,12,209,385,434,244,195,190
283,156,-126,-219,204,14,204,390,439,248,200,190
283,161,-122,-222,202,19,204,395,439,258,204,195
287,175,-112,-231,200,31,204,409,448,268,209,200
307,195,-112,-251,209,41,200,400,448,263,204,200
312,204,-107,-258,209,48,204,400,453,268,209,200
312,204,-107,-258,209,48,204,400,453,273,209,204
312,209,-102,-261,207,53,214,405,463,278,224,209
312,214,-97,-263,204,58,219,414,473,287,234,229
307,224,-82,-265,195,70,214,409,468,287,229,229
302,224,-78,-263,190,73,209,409,468,287,229,229
287,209,-78,-248,183,65,209,409,468,292,234,229
307,214,-92,-261,200,61,219,400,468,292,244,229
317,214,-102,-265,209,56,214,400,468,292,244,234
336,219,-117,-278,226,51,214,400,468,287,244,234
336,219,-117,-278,226,51,214,400,468,287,253,234
331,219,-112,-275,222,53,204,395,468,287,244,224
326,219,-107,-273,217,56,204,390,463,287,239,224
322,219,-102,-270,212,58,195,385,458,292,239,224
317,219,-97,-268,207,61,195,370,458,302,248,234
297,224,-73,-261,185,75,195,370,463,302,253,244
297,224,-73,-261,185,75,195,370,458,292,253,244
283,224,-58,-253,170,82,190,356,444,287,253,244
292,224,-68,-258,180,78,190,356,439,287,244,244
287,229,-58,-258,173,85,200,351,439,292,244,239
287,229,-58,-258,173,85,195,356,448,292,253,248
297,234,-63,-265,180,85,195,351,448,297,253,248
302,229,-73,-265,187,78,190,336,448,297,253,248
302,229,-73,-265,187,78,175,326,424,287,253,248
302,219,-82,-261,192,68,175,322,424,287,253,248
307,219,-87,-263,197,65,170,317,419,283,253,244
307,219,-87,-263,197,65,165,307,409,273,244,244
297,224,-73,-261,185,75,165,312,405,283,253,248
297,219,-78,-258,187,70,165,307,405,278,253,248
292,219,-73,-256,183,73,165,297,400,278,248,248
292,219,-73,-256,183,73,170,297,395,273,248,248
273,229,-43,-251,158,92,165,273,375,258,239,244
268,204,-63,-236,165,70,161,258,366,253,234,244
263,180,-82,-222,173,48,156,253,361,248,224,239
268,175,-92,-222,180,41,151,244,341,244,219,239
268,175,-92,-222,180,41,141,214,317,219,195,224
278,170,-107,-224,192,31,131,200,297,204,185,204
273,170,-102,-222,187,34,117,175,278,195,175,200
292,170,-122,-231,207,24,112,165,273,185,175,190
312,185,-126,-248,219,29,126,156,268,190,170,195
302,195,-107,-248,204,43,126,151,253,180,165,190
302,195,-107,-248,204,43,126,141,239,170,156,175
312,209,-102,-261,207,53,122,136,224,165,156,175
317,185,-131,-251,224,26,112,117,200,151,136,156
312,165,-146,-239,229,9,102,97,175,126,122,146
302,151,-151,-226,226,0,97,82,161,112,107,131
297,117,-180,-207,239,-31,92,73,151,102,97,126
302,122,-180,-212,241,-29,92,63,136,97,92,131
307,112,-195,-209,251,-41,97,48,122,78,78,117
312,107,-204,-209,258,-48,92,39,112,68,63,107
331,107,-224,-219,278,-58,92,29,92,68,58,97
307,97,-209,-202,258,-56,82,29,82,48,48,82
278,78,-200,-178,239,-61,87,19,78,34,43,82
253,58,-195,-156,224,-68,87,14,78,24,34,78
239,53,-185,-146,212,-65,82,4,63,24,29,73
268,63,-204,-165,236,-70,87,14,58,34,39,73
287,68,-219,-178,253,-75,87,4,53,29,29,78
283,58,-224,-170,253,-82,92,0,34,29,24,78
302,63,-239,-183,270,-87,97,-4,24,24,24,73
302,48,-253,-175,278,-102,102,-4,34,19,24,78
307,53,-253,-180,280,-100,102,-4,34,14,14,73
307,48,-258,-178,283,-104,102,-9,34,4,9,73
297,43,-253,-170,275,-104,107,-9,29,-9,4,63
278,24,-253,-151,265,-114,102,-24,24,-14,-4,43
258,19,-239,-139,248,-109,97,-24,19,-14,-9,39
253,14,-239,-134,246,-112,92,-29,4,-14,-14,34
268,0,-268,-134,268,-134,82,-39,-4,-14,-29,24
248,-9,-258,-119,253,-134,73,-34,-4,-24,-24,19
239,-14,-253,-112,246,-134,73,-39,-9,-24,-24,19
229,0,-229,-114,229,-114,73,-39,-14,-24,-29,19
229,19,-209,-124,219,-95,68,-43,-19,-24,-29,19
229,-9,-239,-109,234,-124,63,-53,-29,-34,-34,14
224,-34,-258,-95,241,-146,63,-58,-34,-43,-39,9
224,-29,-253,-97,239,-141,63,-63,-39,-48,-39,4
234,-34,-268,-100,251,-151,63,-68,-43,-43,-39,4
224,-24,-248,-100,236,-136,73,-53,-29,-34,-24,14
229,-14,-244,-107,236,-129,82,-43,-24,-24,-24,19
219,-14,-234,-102,226,-124,87,-39,-14,-14,-24,29
204,-19,-224,-92,214,-122,92,-29,-4,-4,-19,39
214,4,-209,-109,212,-102,112,-24,0,4,-14,48
239,29,-209,-134,224,-90,117,-19,4,0,-9,48
258,39,-219,-148,239,-90,122,-19,0,0,-4,48
273,63,-209,-168,241,-73,131,-14,4,0,0,48
283,53,-229,-168,256,-87,122,-29,0,-4,-14,39
292,34,-258,-163,275,-112,97,-39,-9,-9,-24,24
297,24,-273,-161,285,-124,87,-43,-19,-19,-29,19
297,29,-268,-163,283,-119,78,-48,-24,-24,-39,14
268,4,-263,-136,265,-129,73,-58,-24,-43,-39,4
239,-4,-244,-117,241,-124,82,-58,-24,-34,-39,14
239,-14,-253,-112,246,-134,68,-68,-39,-34,-39,14
209,-34,-244,-87,226,-139,63,-58,-39,-34,-39,9
219,-19,-239,-100,229,-129,68,-48,-14,-24,-29,14
239,-14,-253,-112,246,-134,73,-58,-24,-29,-39,19
248,-9,-258,-119,253,-134,78,-58,-39,-39,-39,14
258,-14,-273,-122,265,-143,92,-58,-29,-39,-43,19
263,-19,-283,-122,273,-151,82,-68,-39,-39,-43,9
273,4,-268,-139,270,-131,73,-68,-39,-43,-39,4
287,9,-278,-148,283,-134,73,-68,-39,-43,-39,4
292,14,-278,-153,285,-131,82,-68,-34,-39,-39,9
278,4,-273,-141,275,-134,82,-68,-34,-39,-39,9
258,-4,-263,-126,261,-134,82,-68,-39,-39,-39,9
219,-4,-224,-107,222,-114,82,-68,-48,-39,-39,9
229,-14,-244,-107,236,-129,82,-73,-48,-39,-39,4
224,-19,-244,-102,234,-131,82,-63,-39,-39,-34,14
229,-14,-244,-107,236,-129,82,-63,-39,-39,-34,14
248,-19,-268,-114,258,-143,87,-58,-29,-39,-34,14
239,-29,-268,-104,253,-148,87,-58,-19,-39,-34,14
239,-24,-263,-107,251,-143,73,-73,-39,-58,-43,4
239,-24,-263,-107,251,-143,73,-73,-39,-58,-53,4
229,-19,-248,-104,239,-134,73,-73,-39,-58,-58,4
214,-14,-229,-100,222,-122,73,-73,-48,-63,-63,4
204,-29,-234,-87,219,-131,73,-78,-53,-63,-73,-4
200,-43,-244,-78,222,-143,73,-78,-53,-63,-68,-4
190,-63,-253,-63,222,-158,73,-73,-53,-63,-68,-4
170,-78,-248,-46,209,-163,78,-73,-53,-63,-68,0
195,-63,-258,-65,226,-161,78,-73,-43,-53,-63,9
229,-48,-278,-90,253,-163,78,-73,-43,-53,-63,4
234,-34,-268,-100,251,-151,78,-73,-48,-53,-58,4
234,-14,-248,-109,241,-131,78,-68,-48,-53,-53,9
244,-19,-263,-112,253,-141,73,-53,-39,-53,-58,4
248,-19,-268,-114,258,-143,82,-53,-53,-53,-63,0
248,-19,-268,-114,258,-143,73,-58,-53,-53,-68,-4
248,-19,-268,-114,258,-143,73,-58,-53,-53,-73,-9
229,-29,-258,-100,244,-143,73,-63,-53,-63,-73,-4
239,-39,-278,-100,258,-158,73,-68,-58,-63,-73,-9
244,-48,-292,-97,268,-170,68,-82,-63,-68,-73,-9
239,-58,-297,-90,268,-178,63,-87,-68,-68,-73,-9
248,-43,-292,-102,270,-168,68,-82,-63,-63,-68,4
239,-39,-278,-100,258,-158,82,-73,-58,-58,-68,4
229,-29,-258,-100,244,-143,87,-68,-58,-53,-63,4
234,-19,-253,-107,244,-136,82,-73,-58,-48,-58,4
200,-29,-229,-85,214,-129,102,-53,-53,-58,-58,9
200,-48,-248,-75,224,-148,97,-63,-63,-68,-58,9
234,-39,-273,-97,253,-156,87,-68,-68,-68,-58,9
229,-48,-278,-90,253,-163,78,-78,-68,-78,-68,4
224,-48,-273,-87,248,-161,78,-78,-68,-78,-68,0
219,-48,-268,-85,244,-158,78,-78,-68,-78,-68,-4
214,-48,-263,-82,239,-156,78,-78,-68,-78,-68,-9
209,-68,-278,-70,244,-173,53,-92,-78,-82,-82,-24
224,-82,-307,-70,265,-195,58,-92,-82,-78,-78,-24
229,-92,-322,-68,275,-207,53,-92,-87,-73,-78,-29
234,-78,-312,-78,273,-195,48,-97,-97,-87,-82,-34
234,-68,-302,-82,268,-185,53,-92,-97,-82,-78,-29
239,-58,-297,-90,268,-178,63,-87,-92,-82,-78,-24
239,-58,-297,-90,268,-178,68,-82,-87,-78,-78,-14
239,-34,-273,-102,256,-153,73,-73,-78,-73,-73,-9
258,-19,-278,-119,268,-148,82,-68,-58,-63,-63,0
263,4,-258,-134,261,-126,78,-58,-53,-58,-58,4
273,29,-244,-151,258,-107,78,-53,-39,-48,-48,9
278,48,-229,-163,253,-90,97,-29,-19,-24,-29,29
258,58,-200,-158,229,-70,117,-24,-29,-24,-19,29
253,53,-200,-153,226,-73,122,-24,-24,-19,-19,34
258,63,-195,-161,226,-65,131,-24,-14,-19,-19,34
268,68,-200,-168,234,-65,141,-14,-9,-9,-9,43
258,68,-190,-163,224,-61,136,-14,-4,0,-9,48
224,63,-161,-143,192,-48,131,-4,-4,0,-4,48
234,58,-175,-146,204,-58,107,-4,-4,0,-9,43
253,68,-185,-161,219,-58,78,-4,-4,0,-14,39
268,58,-209,-163,239,-75,63,-4,0,4,-9,53
283,39,-244,-161,263,-102,39,-24,-24,-19,-24,43
297,29,-268,-163,283,-119,9,-68,-48,-34,-43,34
317,34,-283,-175,300,-124,9,-97,-63,-39,-39,39
326,39,-287,-183,307,-124,19,-87,-58,-43,-39,34
326,29,-297,-178,312,-134,19,-87,-63,-48,-39,24
326,24,-302,-175,314,-139,19,-87,-63,-58,-48,14
336,24,-312,-180,324,-143,14,-87,-78,-58,-58,0
326,-14,-341,-156,334,-178,9,-97,-78,-68,-63,0
326,-29,-356,-148,341,-192,4,-112,-97,-87,-78,-9
326,-43,-370,-141,348,-207,0,-122,-102,-97,-87,-9
302,-68,-370,-117,336,-219,-4,-122,-102,-97,-87,-4
312,-78,-390,-117,351,-234,4,-112,-92,-97,-87,-9
307,-63,-370,-122,339,-217,19,-112,-87,-92,-87,-9
292,-48,-341,-122,317,-195,34,-112,-87,-92,-82,-4
258,-39,-297,-109,278,-168,39,-107,-87,-82,-82,-4
219,-53,-273,-82,246,-163,43,-107,-97,-78,-73,-9
209,-68,-278,-70,244,-173,53,-102,-92,-78,-73,-9
200,-73,-273,-63,236,-173,53,-102,-92,-78,-78,-9
190,-87,-278,-51,234,-183,58,-102,-97,-87,-82,-14
209,-82,-292,-63,251,-187,53,-112,-102,-97,-92,-24
234,-68,-302,-82,268,-185,48,-122,-117,-112,-112,-39
263,-58,-322,-102,292,-190,34,-131,-131,-122,-117,-58
287,-58,-346,-114,317,-202,29,-136,-146,-131,-126,-63
263,-87,-351,-87,307,-219,39,-126,-146,-131,-131,-68
248,-92,-341,-78,295,-217,39,-126,-141,-126,-126,-63
244,-92,-336,-75,290,-214,43,-122,-126,-112,-117,-48
239,-97,-336,-70,287,-217,58,-117,-117,-107,-112,-43
224,-122,-346,-51,285,-234,48,-126,-122,-122,-117,-53
219,-126,-346,-46,283,-236,48,-131,-131,-126,-122,-58
224,-131,-356,-46,290,-244,48,-136,-146,-126,-126,-63
224,-131,-356,-46,290,-244,48,-136,-151,-126,-136,-68
219,-126,-346,-46,283,-236,39,-136,-141,-136,-131,-58
209,-117,-326,-46,268,-222,39,-136,-141,-136,-131,-58
195,-131,-326,-31,261,-229,39,-126,-141,-131,-122,-53
170,-136,-307,-17,239,-222,48,-126,-141,-122,-122,-53
195,-126,-322,-34,258,-224,39,-131,-151,-136,-136,-73
219,-107,-326,-56,273,-217,39,-131,-146,-141,-136,-73
234,-112,-346,-61,290,-229,43,-131,-146,-141,-136,-68
248,-92,-341,-78,295,-217,43,-131,-146,-146,-141,-68
248,-107,-356,-70,302,-231,29,-126,-151,-141,-141,-73
248,-112,-361,-68,305,-236,29,-126,-151,-141,-141,-73
239,-126,-366,-56,302,-246,39,-122,-151,-136,-141,-68
229,-131,-361,-48,295,-246,39,-117,-146,-136,-136,-68
229,-136,-366,-46,297,-251,39,-122,-146,-136,-126,-58
214,-136,-351,-39,283,-244,43,-122,-136,-136,-122,-58
200,-126,-326,-36,263,-226,53,-117,-136,-131,-122,-53
185,-136,-322,-24,253,-229,58,-117,-136,-131,-122,-53
204,-151,-356,-26,280,-253,48,-112,-131,-141,-131,-68
214,-151,-366,-31,290,-258,43,-117,-136,-141,-136,-68
219,-146,-366,-36,292,-256,39,-117,-136,-141,-141,-68
224,-136,-361,-43,292,-248,39,-117,-131,-141,-146,-68
214,-146,-361,-34,287,-253,39,-122,-131,-117,-136,-68
204,-136,-341,-34,273,-239,48,-107,-131,-117,-136,-68
204,-146,-351,-29,278,-248,68,-102,-126,-117,-126,-58
214,-131,-346,-41,280,-239,68,-92,-122,-107,-122,-68
239,-122,-361,-58,300,-241,53,-92,-117,-117,-136,-78
229,-122,-351,-53,290,-236,43,-78,-102,-112,-131,-73
229,-82,-312,-73,270,-197,53,-53,-73,-87,-107,-43
244,-48,-292,-97,268,-170,82,-9,-19,-43,-63,4
263,-29,-292,-117,278,-161,82,19,43,4,-19,34
317,0,-317,-158,317,-158,92,58,122,58,34,63
366,58,-307,-212,336,-124,107,136,219,131,92,102
341,53,-287,-197,314,-117,112,239,346,200,141,131
322,29,-292,-175,307,-131,122,414,527,292,229,190
366,58,-307,-212,336,-124,200,697,780,414,346,273
439,126,-312,-283,375,-92,278,961,1029,531,458,346
497,161,-336,-329,417,-87,278,1088,1180,624,546,429
561,190,-370,-375,466,-90,239,1107,1273,673,619,497
629,180,-448,-405,539,-134,219,1107,1283,644,629,517
692,136,-556,-414,624,-209,195,1000,1122,488,531,448
683,92,-590,-387,636,-248,146,678,727,244,326,326
614,68,-546,-341,580,-239,53,195,200,-4,102,195
517,24,-492,-270,505,-234,-58,-336,-361,-253,-117,39
400,-87,-488,-156,444,-287,-165,-829,-839,-478,-326,-107
302,-239,-541,-31,422,-390,-239,-1195,-1171,-644,-488,-234
224,-351,-575,63,400,-463,-253,-1346,-1327,-780,-619,-356
146,-468,-614,161,380,-541,-229,-1356,-1405,-902,-741,-478
68,-590,-658,261,363,-624,-209,-1302,-1405,-971,-814,-561
39,-649,-688,305,363,-668,-204,-1234,-1361,-1005,-849,-614
78,-629,-707,275,392,-668,-195,-1161,-1293,-990,-858,-624
131,-561,-692,214,412,-627,-204,-1093,-1229,-946,-839,-619
141,-512,-653,185,397,-583,-204,-1005,-1127,-878,-780,-570
131,-488,-619,178,375,-553,-204,-873,-1010,-790,-722,-522
170,-458,-629,143,400,-544,-185,-766,-888,-717,-663,-483
214,-405,-619,95,417,-512,-161,-678,-785,-649,-600,-444
239,-356,-595,58,417,-475,-136,-610,-688,-561,-522,-380
239,-317,-556,39,397,-436,-117,-541,-605,-492,-453,-322
239,-312,-551,36,395,-431,-112,-502,-551,-458,-419,-297
209,-297,-507,43,358,-402,-112,-448,-502,-409,-380,-263
170,-278,-448,53,309,-363,-82,-380,-439,-361,-341,-224
165,-253,-419,43,292,-336,-53,-312,-370,-307,-302,-185
195,-200,-395,2,295,-297,-19,-244,-307,-253,-248,-146
175,-165,-341,-4,258,-253,14,-180,-234,-204,-214,-112
146,-165,-312,9,229,-239,39,-146,-190,-165,-185,-87
204,-146,-351,-29,278,-248,43,-131,-161,-141,-151,-68
273,-92,-366,-90,319,-229,53,-112,-131,-122,-126,-58
273,-53,-326,-109,300,-190,63,-92,-112,-117,-117,-48
258,-68,-326,-95,292,-197,63,-82,-102,-102,-112,-48
244,-73,-317,-85,280,-195,68,-68,-92,-92,-112,-39
224,-87,-312,-68,268,-200,73,-48,-82,-92,-107,-39
204,-102,-307,-51,256,-204,68,-43,-63,-73,-102,-39
195,-126,-322,-34,258,-224,63,-34,-53,-73,-102,-29
195,-117,-312,-39,253,-214,78,-34,-39,-68,-92,-19
204,-97,-302,-53,253,-200,82,-34,-34,-53,-78,-9
214,-82,-297,-65,256,-190,78,-29,-34,-43,-68,-4
204,-63,-268,-70,236,-165,92,-24,-34,-39,-63,0
204,-63,-268,-70,236,-165,92,-9,-34,-39,-63,0
204,-63,-268,-70,236,-165,97,4,-14,-39,-58,0
214,-73,-287,-70,251,-180,97,24,-4,-24,-48,0
229,-58,-287,-85,258,-173,102,34,4,-19,-48,4
224,-58,-283,-82,253,-170,87,24,0,-34,-53,-9
224,-68,-292,-78,258,-180,78,9,-9,-39,-58,-24
224,-78,-302,-73,263,-190,73,0,-14,-43,-63,-14
219,-92,-312,-63,265,-202,68,-4,-19,-43,-53,-14
209,-107,-317,-51,263,-212,82,4,-24,-34,-53,-4
195,-92,-287,-51,241,-190,82,14,-19,-34,-58,-4
219,-87,-307,-65,263,-197,82,19,-9,-34,-58,-4
204,-92,-297,-56,251,-195,82,24,4,-29,-53,-4
219,-68,-287,-75,253,-178,87,34,24,-14,-39,4
224,-63,-287,-80,256,-175,92,43,29,-9,-29,9
239,-63,-302,-87,270,-183,97,48,34,-4,-24,14
234,-73,-307,-80,270,-190,97,53,39,4,-24,24
248,-68,-317,-90,283,-192,97,53,29,-4,-24,14
244,-58,-302,-92,273,-180,97,53,29,-4,-24,14
239,-43,-283,-97,261,-163,107,73,48,0,-19,19
234,-19,-253,-107,244,-136,107,78,58,4,-19,19
234,-29,-263,-102,248,-146,107,78,68,9,-4,29
239,-34,-273,-102,256,-153,107,82,73,19,-4,29
234,-39,-273,-97,253,-156,107,87,82,29,4,34
229,-34,-263,-97,246,-148,107,92,87,34,9,39
229,-34,-263,-97,246,-148,102,87,78,29,-4,34
239,-39,-278,-100,258,-158,102,87,78,24,-9,29
229,-39,-268,-95,248,-153,107,92,82,19,-9,24
229,-39,-268,-95,248,-153,102,92,92,14,-9,19
219,-43,-263,-87,241,-153,112,107,102,29,-4,29
219,-53,-273,-82,246,-163,107,117,112,34,0,34
209,-58,-268,-75,239,-163,107,122,117,43,14,39
190,-63,-253,-63,222,-158,107,126,122,58,19,53
209,-48,-258,-80,234,-153,112,122,126,58,14,43
229,-34,-263,-97,246,-148,112,136,136,63,24,53
253,-9,-263,-122,258,-136,122,156,151,63,29,58
278,4,-273,-141,275,-134,131,161,156,63,34,58
273,-9,-283,-131,278,-146,131,175,170,73,43,63
278,-9,-287,-134,283,-148,131,185,180,78,48,73
263,-4,-268,-129,265,-136,136,195,190,82,53,87
258,-9,-268,-124,263,-139,136,200,200,87,68,97
248,-29,-278,-109,263,-153,126,190,195,87,63,82
234,-34,-268,-100,251,-151,126,200,200,87,58,82
224,-29,-253,-97,239,-141,126,204,204,87,53,78
204,-34,-239,-85,222,-136,126,219,219,92,48,73
219,-14,-234,-102,226,-124,151,239,244,107,68,87
229,-4,-234,-112,231,-119,161,253,253,117,68,92
253,14,-239,-134,246,-112,161,263,263,122,78,97
287,43,-244,-165,265,-100,161,273,268,136,92,102
292,34,-258,-163,275,-112,161,283,268,141,97,107
273,29,-244,-151,258,-107,161,287,283,146,97,112
258,24,-234,-141,246,-104,165,302,292,146,102,117
253,19,-234,-136,244,-107,175,312,297,151,102,117
258,39,-219,-148,239,-90,175,312,317,165,107,126
258,43,-214,-151,236,-85,185,322,331,175,122,131
248,43,-204,-146,226,-80,185,331,346,190,131,141
239,43,-195,-141,217,-75,185,351,356,195,146,146
248,48,-200,-148,224,-75,180,356,346,190,136,136
258,58,-200,-158,229,-70,190,356,351,200,151,141
263,58,-204,-161,234,-73,190,370,370,219,170,156
273,63,-209,-168,241,-73,190,380,385,219,170,156
278,68,-209,-173,244,-70,180,380,385,219,161,146
278,73,-204,-175,241,-65,190,380,390,219,161,146
263,78,-185,-170,224,-53,190,390,395,229,170,151
263,78,-185,-170,224,-53,190,385,405,234,180,156
283,92,-190,-187,236,-48,195,395,405,239,195,165
283,97,-185,-190,234,-43,195,400,409,248,200,170
278,102,-175,-190,226,-36,200,405,409,263,204,180
278,117,-161,-197,219,-21,204,419,419,278,209,190
297,131,-165,-214,231,-17,209,429,434,273,224,209
302,146,-156,-224,229,-4,214,429,444,278,229,209
302,151,-151,-226,226,0,214,429,448,283,229,214
302,161,-141,-231,222,9,224,434,463,287,244,219
287,141,-146,-214,217,-2,214,429,458,283,239,224
278,136,-141,-207,209,-2,204,419,448,278,229,219
268,122,-146,-195,207,-12,195,414,444,273,224,214
248,92,-156,-170,202,-31,190,409,439,273,224,209
258,97,-161,-178,209,-31,200,400,448,278,234,209
258,107,-151,-183,204,-21,195,400,448,283,234,214
268,122,-146,-195,207,-12,195,400,448,283,234,214
258,131,-126,-195,192,2,195,400,448,287,244,214
273,131,-141,-202,207,-4,185,395,439,278,234,214
278,131,-146,-204,212,-7,185,390,434,278,229,214
283,131,-151,-207,217,-9,175,385,429,283,229,214
287,131,-156,-209,222,-12,175,370,429,292,239,224
263,122,-141,-192,202,-9,175,361,434,297,234,214
258,117,-141,-187,200,-12,175,361,429,283,234,214
239,112,-126,-175,183,-7,170,346,414,273,234,214
244,107,-136,-175,190,-14,170,346,409,268,224,214
263,126,-136,-195,200,-4,180,346,409,283,244,229
278,141,-136,-209,207,2,175,356,419,283,253,239
302,161,-141,-231,222,9,175,356,419,287,253,239
322,170,-151,-246,236,9,170,346,419,287,253,239
292,165,-126,-229,209,19,165,322,395,278,248,229
283,151,-131,-217,207,9,165,312,395,278,244,229
278,146,-131,-212,204,7,161,302,390,273,239,224
268,141,-126,-204,197,7,156,287,380,263,224,224
258,131,-126,-195,192,2,141,283,361,258,224,219
258,122,-136,-190,197,-7,136,278,356,248,224,219
253,117,-136,-185,195,-9,131,268,346,244,219,219
253,112,-141,-183,197,-14,131,268,336,234,219,219
268,156,-112,-212,190,21,141,268,341,239,224,234
287,156,-131,-222,209,12,141,258,336,244,224,234
307,156,-151,-231,229,2,141,258,336,248,219,229
336,175,-161,-256,248,7,141,253,322,253,219,229
317,151,-165,-234,241,-7,136,244,307,229,214,229
307,131,-175,-219,241,-21,131,229,287,214,204,214
283,117,-165,-200,224,-24,122,204,268,204,195,214
283,102,-180,-192,231,-39,122,195,263,195,195,209
283,102,-180,-192,231,-39,107,175,244,185,170,190
263,97,-165,-180,214,-34,97,161,224,170,156,180
253,82,-170,-168,212,-43,87,141,204,156,136,161
253,82,-170,-168,212,-43,73,126,185,146,126,156
263,68,-195,-165,229,-63,82,126,175,141,131,161
263,58,-204,-161,234,-73,82,107,156,126,122,156
258,53,-204,-156,231,-75,87,92,146,122,112,146
258,29,-229,-143,244,-100,92,82,141,122,107,146
258,34,-224,-146,241,-95,78,73,126,102,82,131
258,24,-234,-141,246,-104,78,58,112,78,68,117
258,19,-239,-139,248,-109,68,48,102,63,53,107
273,19,-253,-146,263,-117,63,39,82,58,48,97
283,4,-278,-143,280,-136,73,39,63,53,43,102
268,-9,-278,-129,273,-143,78,29,58,43,43,102
258,-24,-283,-117,270,-153,78,24,58,39,39,97
258,-24,-283,-117,270,-153,73,14,43,43,39,92
248,-19,-268,-114,258,-143,73,4,29,29,29,78
248,-19,-268,-114,258,-143,68,-4,24,19,19,78
224,-34,-258,-95,241,-146,68,-9,4,14,14,73
224,-34,-258,-95,241,-146,68,-14,-4,4,14,63
224,-39,-263,-92,244,-151,73,-4,0,14,14,68
239,-34,-273,-102,256,-153,73,-4,4,14,4,63
248,-39,-287,-104,268,-163,73,-9,9,9,0,63
248,-43,-292,-102,270,-168,78,-9,9,0,-4,53
234,-48,-283,-92,258,-165,68,-14,-4,-14,0,48
219,-48,-268,-85,244,-158,68,-14,-9,-14,0,48
219,-48,-268,-85,244,-158,68,-19,-24,-14,0,48
239,-58,-297,-90,268,-178,63,-29,-34,-14,-9,43
219,-78,-297,-70,258,-187,53,-34,-34,-24,-19,34
209,-92,-302,-58,256,-197,53,-39,-39,-24,-24,29
200,-87,-287,-56,244,-187,53,-39,-43,-24,-34,24
200,-78,-278,-61,239,-178,48,-43,-48,-24,-39,19
219,-73,-292,-73,256,-183,48,-43,-48,-24,-34,34
224,-82,-307,-70,265,-195,53,-39,-43,-24,-29,39
234,-63,-297,-85,265,-180,58,-34,-39,-19,-19,43
253,-53,-307,-100,280,-180,63,-29,-34,-4,-9,53
248,-48,-297,-100,273,-173,58,-29,-29,-14,-14,48
258,-43,-302,-107,280,-173,63,-34,-34,-14,-24,39
253,-48,-302,-102,278,-175,63,-43,-34,-14,-34,34
244,-58,-302,-92,273,-180,63,-48,-34,-14,-39,29
224,-63,-287,-80,256,-175,63,-43,-43,-14,-29,39
219,-68,-287,-75,253,-178,58,-39,-43,-19,-29,39
209,-87,-297,-61,253,-192,53,-39,-53,-19,-29,39
195,-92,-287,-51,241,-190,53,-34,-53,-19,-29,39
200,-73,-273,-63,236,-173,58,-34,-48,-19,-29,43
214,-82,-297,-65,256,-190,48,-39,-48,-19,-34,34
224,-82,-307,-70,265,-195,53,-39,-48,-24,-34,34
229,-68,-297,-80,263,-183,58,-39,-43,-24,-39,34
214,-68,-283,-73,248,-175,53,-29,-43,-24,-29,34
200,-63,-263,-68,231,-163,63,-29,-43,-14,-29,43
214,-58,-273,-78,244,-165,48,-39,-58,-14,-29,43
200,-63,-263,-68,231,-163,43,-29,-58,-14,-29,39
200,-68,-268,-65,234,-168,34,-43,-53,-19,-39,34
209,-73,-283,-68,246,-178,34,-58,-63,-29,-48,29
209,-78,-287,-65,248,-183,34,-63,-78,-43,-48,14
209,-92,-302,-58,256,-197,43,-68,-68,-48,-53,9
200,-107,-307,-46,253,-207,34,-58,-68,-39,-53,19
204,-92,-297,-56,251,-195,24,-58,-68,-43,-48,14
214,-97,-312,-58,263,-204,24,-58,-68,-43,-48,14
214,-102,-317,-56,265,-209,34,-58,-63,-39,-48,19
209,-87,-297,-61,253,-192,34,-48,-53,-29,-39,29
200,-92,-292,-53,246,-192,34,-48,-58,-29,-39,29
170,-87,-258,-41,214,-173,34,-48,-68,-29,-39,29
190,-92,-283,-48,236,-187,34,-53,-68,-29,-39,24
209,-68,-278,-70,244,-173,24,-63,-68,-29,-43,34
229,-53,-283,-87,256,-168,24,-63,-68,-29,-43,34
263,-48,-312,-107,287,-180,29,-58,-58,-29,-43,34
268,-48,-317,-109,292,-183,29,-58,-48,-29,-43,34
248,-68,-317,-90,283,-192,24,-63,-68,-29,-39,14
239,-82,-322,-78,280,-202,24,-63,-68,-29,-43,14
219,-92,-312,-63,265,-202,24,-63,-68,-29,-43,14
195,-102,-297,-46,246,-200,24,-63,-78,-34,-43,14
175,-117,-292,-29,234,-204,14,-58,-73,-34,-53,24
170,-122,-292,-24,231,-207,14,-58,-73,-34,-48,24
161,-131,-292,-14,226,-212,14,-53,-73,-34,-48,24
141,-136,-278,-2,209,-207,19,-53,-73,-34,-48,29
151,-126,-278,-12,214,-202,24,-43,-53,-29,-43,34
170,-117,-287,-26,229,-202,29,-43,-53,-24,-43,34
161,-107,-268,-26,214,-187,34,-43,-58,-19,-39,39
146,-92,-239,-26,192,-165,39,-39,-58,-14,-34,48
146,-102,-248,-21,197,-175,34,-43,-58,-24,-34,48
141,-107,-248,-17,195,-178,43,-43,-73,-24,-34,48
131,-112,-244,-9,187,-178,34,-48,-73,-24,-34,48
122,-117,-239,-2,180,-178,34,-48,-73,-24,-34,48
165,-78,-244,-43,204,-161,43,-39,-58,-24,-14,63
190,-68,-258,-61,224,-163,43,-19,-48,-24,-4,68
170,-97,-268,-36,219,-183,48,-19,-48,-19,-14,58
141,-146,-287,2,214,-217,43,-29,-48,-9,-14,58
136,-156,-292,9,214,-224,39,-39,-58,-19,-19,48
126,-151,-278,12,202,-214,29,-53,-73,-24,-34,39
126,-146,-273,9,200,-209,29,-58,-78,-29,-39,39
126,-141,-268,7,197,-204,29,-63,-82,-34,-43,39
126,-136,-263,4,195,-200,29,-68,-87,-39,-48,39
107,-136,-244,14,175,-190,14,-68,-87,-48,-48,29
107,-141,-248,17,178,-195,19,-63,-82,-39,-39,34
97,-141,-239,21,168,-190,14,-58,-78,-29,-34,34
87,-117,-204,14,146,-161,9,-58,-78,-39,-34,34
107,-97,-204,-4,156,-151,19,-53,-73,-29,-34,39
122,-87,-209,-17,165,-148,24,-48,-73,-24,-29,43
131,-87,-219,-21,175,-153,24,-43,-73,-14,-24,53
141,-63,-204,-39,173,-134,24,-34,-68,-4,-14,58
136,-78,-214,-29,175,-146,24,-34,-63,0,-9,63
136,-63,-200,-36,168,-131,19,-29,-63,0,-9,63
141,-48,-190,-46,165,-119,19,-29,-53,4,-4,63
141,-39,-180,-51,161,-109,39,-9,-39,24,9,78
126,-19,-146,-53,136,-82,63,-4,-39,29,24,92
126,-14,-141,-56,134,-78,73,4,-24,39,29,102
136,4,-131,-70,134,-63,87,14,-4,43,34,107
151,19,-131,-85,141,-56,102,34,9,58,48,122
151,14,-136,-82,143,-61,102,43,24,78,53,131
126,14,-112,-70,119,-48,102,53,24,78,63,136
146,14,-131,-80,139,-58,82,53,24,78,63,136
175,29,-146,-102,161,-58,58,53,24,78,63,136
165,24,-141,-95,153,-58,29,34,29,73,63,136
165,0,-165,-82,165,-82,0,14,4,48,43,122
165,-14,-180,-75,173,-97,-34,-29,-19,34,19,107
170,-14,-185,-78,178,-100,-39,-58,-34,29,19,107
170,-4,-175,-82,173,-90,-34,-48,-29,24,29,107
170,-19,-190,-75,180,-104,-29,-48,-34,19,29,102
170,-29,-200,-70,185,-114,-24,-48,-34,9,19,97
180,-34,-214,-73,197,-124,-24,-48,-48,9,9,87
185,-73,-258,-56,222,-165,-34,-58,-68,-9,-14,63
190,-97,-287,-46,239,-192,-43,-73,-87,-29,-29,48
195,-122,-317,-36,256,-219,-53,-82,-92,-39,-39,43
175,-156,-331,-9,253,-244,-63,-82,-92,-39,-39,43
165,-156,-322,-4,244,-239,-48,-78,-87,-34,-24,43
151,-141,-292,-4,222,-217,-29,-73,-78,-24,-19,48
126,-126,-253,0,190,-190,-9,-68,-73,-19,-9,58
82,-117,-200,17,141,-158,0,-58,-68,-4,-4,63
68,-102,-170,17,119,-136,9,-68,-73,-9,0,58
73,-107,-180,17,126,-143,14,-63,-73,-9,-4,58
78,-102,-180,12,129,-141,9,-63,-78,-9,-14,58
82,-107,-190,12,136,-148,9,-63,-87,-19,-24,53
68,-136,-204,34,136,-170,9,-63,-87,-34,-29,48
58,-146,-204,43,131,-175,9,-73,-97,-43,-43,39
53,-161,-214,53,134,-187,0,-82,-107,-48,-43,24
43,-185,-229,70,136,-207,0,-87,-117,-53,-48,24
34,-190,-224,78,129,-207,0,-78,-122,-48,-48,24
24,-190,-214,82,119,-202,0,-78,-122,-48,-48,24
24,-185,-209,80,117,-197,4,-73,-112,-39,-43,34
24,-185,-209,80,117,-197,19,-68,-107,-39,-43,34
34,-185,-219,75,126,-202,14,-68,-102,-34,-34,39
43,-175,-219,65,131,-197,19,-73,-102,-39,-34,39
63,-165,-229,51,146,-197,24,-78,-107,-39,-34,39
78,-151,-229,36,153,-190,29,-78,-102,-39,-39,39
87,-161,-248,36,168,-204,24,-87,-107,-58,-53,34
92,-156,-248,31,170,-202,19,-87,-112,-58,-53,29
92,-175,-268,41,180,-222,14,-78,-117,-53,-43,29
82,-185,-268,51,175,-226,19,-78,-122,-43,-43,24
63,-185,-248,61,156,-217,19,-82,-117,-53,-39,19
63,-175,-239,56,151,-207,19,-82,-107,-53,-39,24
53,-190,-244,68,148,-217,24,-82,-102,-48,-39,34
43,-180,-224,68,134,-202,24,-82,-97,-48,-43,39
63,-190,-253,63,158,-222,9,-97,-102,-43,-43,24
63,-190,-253,63,158,-222,9,-97,-102,-43,-43,24
53,-200,-253,73,153,-226,19,-92,-102,-39,-43,29
43,-200,-244,78,143,-222,19,-87,-97,-39,-39,29
63,-185,-248,61,156,-217,24,-73,-97,-48,-48,29
68,-185,-253,58,161,-219,24,-73,-87,-48,-43,29
73,-175,-248,51,161,-212,29,-68,-87,-43,-43,34
78,-185,-263,53,170,-224,29,-68,-87,-43,-43,34
78,-180,-258,51,168,-219,29,-58,-78,-43,-34,34
78,-180,-258,51,168,-219,34,-58,-78,-34,-29,39
73,-175,-248,51,161,-212,39,-53,-73,-24,-24,43
68,-165,-234,48,151,-200,48,-48,-63,-14,-19,48
29,-224,-253,97,141,-239,48,-53,-73,-29,-29,48
0,-204,-204,102,102,-204,48,-58,-73,-19,-29,48
9,-136,-146,63,78,-141,48,-43,-78,-39,-29,29
48,-141,-190,46,119,-165,48,-24,-63,-39,-24,29
82,-180,-263,48,173,-222,43,4,-39,-19,-19,39
63,-200,-263,68,163,-231,34,0,-34,-14,-34,34
24,-190,-214,82,119,-202,34,-4,-34,-9,-29,34
39,-165,-204,63,122,-185,43,19,9,34,14,63
68,-126,-195,29,131,-161,53,68,92,102,78,112
73,-97,-170,12,122,-134,82,136,180,156,131,151
82,-48,-131,-17,107,-90,97,234,287,209,190,190
126,-4,-131,-61,129,-68,122,366,444,297,258,248
175,19,-156,-97,165,-68,180,610,663,419,356,307
209,48,-161,-129,185,-56,268,912,917,541,453,370
244,78,-165,-161,204,-43,317,1117,1127,629,527,414
322,82,-239,-202,280,-78,307,1205,1249,683,595,478
405,102,-302,-253,353,-100,258,1215,1322,692,639,517
492,112,-380,-302,436,-134,209,1176,1283,634,619,507
546,58,-488,-302,517,-214,156,990,1063,478,522,448
536,-4,-541,-265,539,-273,68,580,619,253,346,356
458,-39,-497,-209,478,-268,-43,48,82,4,131,244
331,-122,-453,-104,392,-287,-175,-522,-468,-244,-78,97
185,-273,-458,43,322,-366,-302,-1024,-936,-478,-287,-68
78,-385,-463,153,270,-424,-375,-1351,-1229,-644,-448,-195
39,-488,-527,224,283,-507,-370,-1454,-1376,-761,-580,-307
58,-556,-614,248,336,-585,-346,-1444,-1444,-863,-683,-429
87,-590,-678,251,383,-634,-326,-1371,-1434,-932,-756,-492
97,-580,-678,241,387,-629,-292,-1244,-1332,-917,-761,-507
78,-570,-649,246,363,-610,-273,-1132,-1234,-863,-712,-488
43,-580,-624,268,334,-602,-273,-1063,-1151,-810,-683,-473
53,-561,-614,253,334,-588,-253,-946,-1049,-751,-644,-453
102,-527,-629,212,366,-578,-234,-814,-932,-683,-605,-424
161,-507,-668,173,414,-588,-234,-736,-829,-619,-556,-395
165,-463,-629,148,397,-546,-219,-658,-746,-551,-502,-366
151,-424,-575,136,363,-500,-204,-590,-649,-483,-434,-312
151,-414,-566,131,358,-490,-195,-531,-575,-424,-375,-253
190,-380,-570,95,380,-475,-180,-473,-522,-380,-341,-219
209,-346,-556,68,383,-451,-161,-409,-483,-341,-302,-195
170,-326,-497,78,334,-412,-131,-351,-429,-302,-283,-175
156,-292,-448,68,302,-370,-102,-292,-361,-258,-244,-146
165,-248,-414,41,290,-331,-58,-234,-287,-195,-190,-107
146,-224,-370,39,258,-297,-24,-170,-224,-136,-136,-63
146,-204,-351,29,248,-278,-9,-136,-170,-97,-107,-48
165,-175,-341,4,253,-258,-4,-122,-131,-63,-73,-29
146,-180,-326,17,236,-253,-4,-92,-102,-43,-58,-9
156,-200,-356,21,256,-278,-4,-82,-92,-39,-48,0
229,-185,-414,-21,322,-300,4,-82,-92,-43,-53,0
219,-170,-390,-24,305,-280,24,-78,-92,-43,-53,9
204,-165,-370,-19,287,-268,34,-58,-82,-43,-48,9
190,-161,-351,-14,270,-256,34,-53,-63,-24,-43,9
185,-165,-351,-9,268,-258,34,-43,-53,-24,-43,19
195,-151,-346,-21,270,-248,29,-34,-58,-14,-29,9
204,-136,-341,-34,273,-239,24,-34,-53,-4,-19,19
214,-126,-341,-43,278,-234,9,-29,-53,0,-14,24
204,-112,-317,-46,261,-214,14,-24,-53,0,-14,29
180,-131,-312,-24,246,-222,14,-14,-53,-9,-24,29
175,-141,-317,-17,246,-229,19,-4,-34,-9,-19,29
180,-161,-341,-9,261,-251,19,9,-24,4,-9,29
190,-156,-346,-17,268,-251,24,14,-14,9,-9,34
209,-136,-346,-36,278,-241,24,14,-14,9,-4,43
214,-126,-341,-43,278,-234,19,9,-19,9,0,34
219,-117,-336,-51,278,-226,19,9,-19,9,4,48
219,-112,-331,-53,275,-222,19,14,-19,14,24,53
224,-122,-346,-51,285,-234,34,34,-4,24,14,43
214,-102,-317,-56,265,-209,34,43,0,24,9,43
244,-92,-336,-75,290,-214,34,48,9,24,9,43
234,-92,-326,-70,280,-209,34,53,24,29,14,43
224,-78,-302,-73,263,-190,34,48,29,39,24,48
224,-73,-297,-75,261,-185,34,53,29,39,29,48
234,-73,-307,-80,270,-190,34,53,29,39,29,48
224,-82,-307,-70,265,-195,29,53,29,43,24,53
239,-97,-336,-70,287,-217,19,43,24,34,14,43
234,-107,-341,-63,287,-224,19,43,19,34,14,43
229,-112,-341,-58,285,-226,29,63,34,39,19,48
224,-107,-331,-58,278,-219,29,68,39,43,19,48
244,-92,-336,-75,290,-214,29,78,53,53,34,58
258,-92,-351,-82,305,-222,29,82,53,58,34,58
263,-92,-356,-85,309,-224,29,87,58,63,43,63
268,-82,-351,-92,309,-217,29,92,58,63,48,68
253,-87,-341,-82,297,-214,24,87,58,68,43,63
239,-97,-336,-70,287,-217,24,87,58,63,39,58
204,-102,-307,-51,256,-204,29,92,63,58,39,53
180,-107,-287,-36,234,-197,24,92,73,53,39,48
195,-112,-307,-41,251,-209,19,92,63,58,29,53
209,-122,-331,-43,270,-226,9,97,73,53,29,53
214,-126,-341,-43,278,-234,4,97,78,53,39,53
209,-131,-341,-39,275,-236,0,97,82,58,39,63
229,-112,-341,-58,285,-226,14,102,78,63,34,58
248,-102,-351,-73,300,-226,14,117,87,73,43,63
273,-82,-356,-95,314,-219,24,136,102,78,48,63
297,-73,-370,-112,334,-222,34,141,107,82,53,58
307,-58,-366,-124,336,-212,48,156,122,92,68,68
317,-48,-366,-134,341,-207,53,175,141,107,78,82
307,-34,-341,-136,324,-187,63,195,161,122,87,102
307,-29,-336,-139,322,-183,68,209,180,136,107,117
292,-48,-341,-122,317,-195,58,200,180,136,107,112
273,-53,-326,-109,300,-190,58,209,180,136,107,112
258,-48,-307,-104,283,-178,58,214,180,136,107,107
234,-53,-287,-90,261,-170,58,229,190,141,107,102
224,-63,-287,-80,256,-175,58,239,200,141,112,102
219,-73,-292,-73,256,-183,63,244,204,146,107,102
229,-73,-302,-78,265,-187,58,244,209,146,112,102
248,-63,-312,-92,280,-187,53,244,209,156,122,102
273,-48,-322,-112,297,-185,68,268,224,165,136,112
263,-39,-302,-112,283,-170,73,278,244,175,136,122
258,-29,-287,-114,273,-158,82,297,258,180,141,131
263,-19,-283,-122,273,-151,97,312,268,190,141,136
273,-4,-278,-134,275,-141,97,312,287,209,146,146
278,4,-273,-141,275,-134,107,322,302,214,161,151
273,9,-263,-141,268,-126,107,331,317,224,170,161
268,14,-253,-141,261,-119,107,351,326,224,185,165
268,24,-244,-146,256,-109,102,356,317,219,180,156
278,29,-248,-153,263,-109,112,356,322,229,190,161
283,24,-258,-153,270,-117,112,370,341,248,204,175
292,24,-268,-158,280,-122,112,380,356,248,200,175
297,29,-268,-163,283,-119,122,385,366,258,200,185
287,34,-253,-161,270,-109,131,390,370,258,200,185
263,39,-224,-151,244,-92,131,405,375,268,209,190
253,39,-214,-146,234,-87,131,405,385,273,219,195
273,39,-234,-156,253,-97,141,405,385,263,214,200
273,39,-234,-156,253,-97,136,409,390,268,219,200
268,39,-229,-153,248,-95,136,414,390,278,224,204
268,48,-219,-158,244,-85,136,429,400,287,229,209
273,43,-229,-158,251,-92,126,424,400,278,229,204
273,48,-224,-161,248,-87,126,419,405,278,229,200
268,43,-224,-156,246,-90,122,414,405,278,224,200
263,43,-219,-153,241,-87,126,414,414,278,234,200
273,58,-214,-165,244,-78,141,419,414,283,239,214
278,78,-200,-178,239,-61,136,419,409,287,239,219
283,87,-195,-185,239,-53,131,424,409,292,244,224
278,82,-195,-180,236,-56,131,429,409,302,253,229
287,78,-209,-183,248,-65,131,429,419,302,253,229
287,78,-209,-183,248,-65,126,429,419,302,253,234
297,82,-214,-190,256,-65,126,429,419,297,253,234
287,82,-204,-185,246,-61,126,429,419,297,263,234
287,82,-204,-185,246,-61,122,419,405,287,253,229
287,82,-204,-185,246,-61,117,409,395,287,248,224
287,82,-204,-185,246,-61,102,400,385,292,248,219
287,82,-204,-185,246,-61,97,380,380,302,258,224
287,92,-195,-190,241,-51,107,390,400,302,253,234
287,97,-190,-192,239,-46,107,390,400,292,253,234
273,102,-170,-187,222,-34,102,375,390,287,253,234
283,107,-175,-195,229,-34,102,375,390,287,244,234
292,102,-190,-197,241,-43,102,366,380,302,263,229
297,102,-195,-200,246,-46,97,375,390,302,273,239
312,107,-204,-209,258,-48,97,375,390,307,273,239
322,102,-219,-212,270,-58,92,366,390,307,273,239
307,117,-190,-212,248,-36,87,361,385,307,273,244
302,112,-190,-207,246,-39,87,351,385,307,273,248
302,117,-185,-209,244,-34,82,341,380,302,273,248
297,122,-175,-209,236,-26,78,326,370,292,263,253
312,107,-204,-209,258,-48,63,326,361,283,263,239
317,102,-214,-209,265,-56,58,317,356,278,263,239
317,102,-214,-209,265,-56,53,302,346,278,258,239
322,102,-219,-212,270,-58,53,297,336,273,258,239
307,107,-200,-207,253,-46,39,273,326,268,253,239
307,87,-219,-197,263,-65,34,258,317,263,244,234
307,68,-239,-187,273,-85,29,253,312,258,229,224
317,68,-248,-192,283,-90,24,244,292,253,219,219
297,58,-239,-178,268,-90,29,224,278,248,219,219
287,53,-234,-170,261,-90,24,209,258,234,214,204
263,53,-209,-158,236,-78,14,185,239,224,209,204
263,53,-209,-158,236,-78,14,175,234,214,214,200
283,68,-214,-175,248,-73,24,165,239,219,214,200
273,68,-204,-170,239,-68,19,161,224,209,204,200
273,58,-214,-165,244,-78,14,151,209,200,190,190
283,63,-219,-173,251,-78,4,146,195,195,185,195
283,43,-239,-163,261,-97,-9,131,170,175,170,175
283,29,-253,-156,268,-112,-14,107,146,156,161,165
278,19,-258,-148,268,-119,-14,87,131,146,151,151
278,-9,-287,-134,283,-148,-14,73,122,141,146,146
278,-19,-297,-129,287,-158,-34,43,102,117,126,136
278,-34,-312,-122,295,-173,-39,29,82,97,107,117
278,-43,-322,-117,300,-183,-53,19,68,87,87,102
292,-48,-341,-122,317,-195,-63,9,43,87,78,87
297,-43,-341,-126,319,-192,-53,9,34,82,82,87
287,-48,-336,-119,312,-192,-39,9,39,73,82,92
283,-53,-336,-114,309,-195,-29,14,48,68,78,92
287,-43,-331,-122,309,-187,-24,14,43,73,78,92
283,-48,-331,-117,307,-190,-29,4,34,58,68,78
278,-58,-336,-109,307,-197,-39,-4,24,48,58,78
248,-82,-331,-82,290,-207,-43,-9,0,43,53,73
244,-92,-336,-75,290,-214,-48,-14,-14,34,53,63
263,-82,-346,-90,305,-214,-34,-9,-4,43,53,68
278,-73,-351,-102,314,-212,-34,-14,-4,43,43,63
287,-73,-361,-107,324,-217,-34,-24,-4,39,39,63
287,-73,-361,-107,324,-217,-29,-29,-9,29,34,53
273,-92,-366,-90,319,-229,-29,-39,-14,24,29,48
258,-97,-356,-80,307,-226,-29,-34,-19,24,29,48
258,-102,-361,-78,309,-231,-29,-34,-34,24,29,48
278,-117,-395,-80,336,-256,-34,-39,-43,24,19,43
258,-131,-390,-63,324,-261,-43,-53,-48,4,24,39
239,-141,-380,-48,309,-261,-43,-58,-48,4,24,39
219,-131,-351,-43,285,-241,-43,-58,-48,4,19,39
209,-117,-326,-46,268,-222,-48,-63,-48,4,19,39
229,-122,-351,-53,290,-236,-53,-68,-63,0,9,29
234,-131,-366,-51,300,-248,-53,-68,-63,-4,9,29
244,-112,-356,-65,300,-234,-53,-68,-63,-4,14,29
263,-102,-366,-80,314,-234,-53,-68,-63,4,19,34
273,-92,-366,-90,319,-229,-48,-53,-43,14,19,43
287,-82,-370,-102,329,-226,-43,-53,-43,14,14,39
287,-82,-370,-102,329,-226,-43,-58,-39,14,9,39
283,-87,-370,-97,326,-229,-43,-58,-34,14,9,39
268,-97,-366,-85,317,-231,-39,-58,-39,14,19,39
268,-97,-366,-85,317,-231,-39,-58,-43,9,19,39
263,-112,-375,-75,319,-244,-39,-63,-58,9,19,39
253,-112,-366,-70,309,-239,-34,-63,-63,9,19,39
224,-117,-341,-53,283,-229,-43,-63,-58,0,19,34
214,-131,-346,-41,280,-239,-58,-68,-58,0,14,24
200,-136,-336,-31,268,-236,-58,-68,-58,-4,14,24
180,-126,-307,-26,244,-217,-58,-68,-53,-4,9,24
195,-126,-322,-34,258,-224,-43,-68,-53,-4,19,24
209,-112,-322,-48,265,-217,-34,-68,-53,4,19,34
253,-97,-351,-78,302,-224,-48,-78,-68,4,19,34
268,-92,-361,-87,314,-226,-53,-68,-68,4,19,29
258,-97,-356,-80,307,-226,-43,-63,-48,14,29,39
268,-102,-370,-82,319,-236,-43,-68,-53,9,19,39
268,-107,-375,-80,322,-241,-43,-63,-63,0,19,29
268,-122,-390,-73,329,-256,-34,-58,-48,0,14,29
253,-136,-390,-58,322,-263,-39,-63,-53,-9,4,24
253,-122,-375,-65,314,-248,-53,-68,-58,-14,9,14
258,-126,-385,-65,322,-256,-58,-73,-63,-14,9,9
253,-131,-385,-61,319,-258,-53,-78,-63,-9,9,9
258,-126,-385,-65,322,-256,-53,-78,-63,0,9,19
248,-131,-380,-58,314,-256,-53,-78,-68,0,9,19
219,-126,-346,-46,283,-236,-53,-78,-78,0,9,19
239,-131,-370,-53,305,-251,-53,-82,-78,0,9,14
229,-136,-366,-46,297,-251,-43,-73,-78,-9,4,14
229,-131,-361,-48,295,-246,-43,-73,-78,-9,4,14
244,-136,-380,-53,312,-258,-39,-68,-68,-9,4,14
229,-146,-375,-41,302,-261,-39,-68,-58,-9,4,14
214,-161,-375,-26,295,-268,-43,-63,-68,-9,9,9
209,-170,-380,-19,295,-275,-43,-63,-68,-9,4,14
195,-175,-370,-9,283,-273,-43,-63,-68,-9,4,19
175,-180,-356,2,265,-268,-43,-63,-78,-14,4,24
195,-165,-361,-14,278,-263,-43,-73,-82,-14,-4,14
209,-151,-361,-29,285,-256,-43,-78,-82,-14,0,14
219,-141,-361,-39,290,-251,-43,-78,-82,-14,0,14
219,-126,-346,-46,283,-236,-39,-82,-82,-14,0,19
244,-126,-370,-58,307,-248,-48,-82,-82,-14,-9,19
278,-126,-405,-75,341,-265,-48,-82,-82,-14,-14,14
283,-126,-409,-78,346,-268,-48,-82,-87,-14,-14,14
283,-122,-405,-80,344,-263,-48,-78,-87,-14,-14,19
283,-131,-414,-75,348,-273,-53,-87,-87,-19,-24,14
278,-136,-414,-70,346,-275,-43,-92,-102,-24,-24,9
268,-141,-409,-63,339,-275,-53,-102,-102,-29,-24,4
258,-146,-405,-56,331,-275,-53,-107,-102,-34,-24,0
224,-161,-385,-31,305,-273,-48,-92,-87,-24,-14,0
219,-165,-385,-26,302,-275,-43,-87,-87,-24,-14,0
209,-170,-380,-19,295,-275,-43,-92,-87,-29,-14,4
190,-175,-366,-7,278,-270,-43,-87,-87,-29,-14,9
224,-131,-356,-46,290,-244,-34,-78,-87,-29,-4,14
214,-136,-351,-39,283,-244,-39,-78,-87,-39,-9,0
209,-156,-366,-26,287,-261,-48,-82,-97,-48,-14,-9
204,-165,-370,-19,287,-268,-48,-87,-97,-48,-19,-9
200,-175,-375,-12,287,-275,-48,-92,-97,-48,-24,-9
195,-185,-380,-4,287,-283,-48,-97,-97,-48,-29,-9
219,-175,-395,-21,307,-285,-53,-87,-97,-43,-19,-4
244,-170,-414,-36,329,-292,-39,-82,-92,-29,-9,4
258,-161,-419,-48,339,-290,-34,-78,-87,-14,-4,9
273,-126,-400,-73,336,-263,-29,-78,-87,-19,-4,14
253,-141,-395,-56,324,-268,-43,-92,-107,-39,-14,0
248,-156,-405,-46,326,-280,-43,-97,-112,-43,-19,-4
239,-180,-419,-29,329,-300,-48,-102,-117,-43,-24,-4
229,-180,-409,-24,319,-295,-53,-102,-117,-43,-24,-9
244,-175,-419,-34,331,-297,-39,-97,-97,-34,-14,0
253,-151,-405,-51,329,-278,-39,-87,-92,-29,-9,4
268,-126,-395,-70,331,-261,-34,-82,-78,-19,0,9
278,-107,-385,-85,331,-246,-9,-58,-58,4,19,29
258,-82,-341,-87,300,-212,4,-53,-58,19,24,34
253,-73,-326,-90,290,-200,14,-43,-43,29,29,43
258,-48,-307,-104,283,-178,29,-34,-24,34,34,48
268,-29,-297,-119,283,-163,43,-14,-9,48,48,63
268,-24,-292,-122,280,-158,43,4,14,68,73,82
244,-24,-268,-109,256,-146,43,14,14,68,82,87
263,-24,-287,-119,275,-156,24,14,14,68,82,87
292,-9,-302,-141,297,-156,0,14,14,68,82,87
287,-43,-331,-122,309,-187,-24,-4,0,58,78,78
283,-78,-361,-102,322,-219,-58,-24,-24,29,53,63
278,-102,-380,-87,329,-241,-97,-68,-48,9,24,48
278,-112,-390,-82,334,-251,-107,-97,-63,0,19,48
287,-102,-390,-92,339,-246,-97,-97,-68,4,24,48
287,-107,-395,-90,341,-251,-97,-97,-73,0,29,43
287,-107,-395,-90,341,-251,-97,-97,-73,-9,24,39
297,-102,-400,-97,348,-251,-102,-97,-87,-9,19,29
322,-117,-439,-102,380,-278,-107,-107,-97,-29,-4,14
336,-126,-463,-104,400,-295,-112,-122,-117,-48,-19,0
351,-136,-488,-107,419,-312,-117,-131,-122,-58,-29,-4
341,-156,-497,-92,419,-326,-122,-131,-122,-58,-29,-4
331,-180,-512,-75,422,-346,-122,-122,-112,-48,-19,0
317,-180,-497,-68,407,-339,-107,-122,-107,-43,-19,0
292,-180,-473,-56,383,-326,-92,-122,-107,-43,-14,4
248,-185,-434,-31,341,-309,-87,-117,-107,-34,-14,4
239,-175,-414,-31,326,-295,-82,-122,-122,-34,-9,4
239,-185,-424,-26,331,-305,-73,-122,-122,-39,-14,0
239,-185,-424,-26,331,-305,-73,-126,-126,-43,-24,-4
239,-195,-434,-21,336,-314,-68,-131,-136,-58,-34,-14
239,-185,-424,-26,331,-305,-63,-122,-122,-48,-24,-4
244,-175,-419,-34,331,-297,-58,-122,-126,-53,-34,-9
253,-170,-424,-41,339,-297,-63,-122,-131,-53,-29,-19
258,-175,-434,-41,346,-305,-58,-117,-136,-53,-29,-14
234,-200,-434,-17,334,-317,-68,-122,-151,-68,-39,-29
209,-209,-419,0,314,-314,-68,-126,-151,-68,-39,-34
195,-214,-409,9,302,-312,-63,-126,-141,-58,-34,-29
180,-224,-405,21,292,-314,-48,-126,-136,-58,-34,-34
175,-244,-419,34,297,-331,-68,-136,-136,-63,-43,-39
180,-244,-424,31,302,-334,-68,-141,-141,-68,-43,-39
195,-244,-439,24,317,-341,-68,-146,-151,-68,-43,-39
204,-239,-444,17,324,-341,-68,-146,-151,-68,-48,-39
219,-224,-444,2,331,-334,-68,-146,-151,-78,-63,-39
219,-204,-424,-7,322,-314,-68,-146,-151,-78,-63,-39
214,-209,-424,-2,319,-317,-68,-136,-151,-73,-53,-34
200,-204,-405,2,302,-305,-58,-136,-151,-63,-53,-34
200,-214,-414,7,307,-314,-58,-151,-161,-73,-58,-53
209,-214,-424,2,317,-319,-58,-151,-156,-73,-58,-53
209,-239,-448,14,329,-344,-53,-151,-156,-68,-58,-48
209,-239,-448,14,329,-344,-53,-151,-156,-68,-63,-48
219,-219,-439,0,329,-329,-53,-146,-151,-68,-48,-39
219,-209,-429,-4,324,-319,-48,-136,-141,-63,-43,-34
209,-209,-419,0,314,-314,-34,-122,-131,-53,-39,-24
200,-200,-400,0,300,-300,-29,-107,-117,-48,-29,-19
204,-190,-395,-7,300,-292,-24,-112,-126,-48,-19,-9
204,-185,-390,-9,297,-287,-24,-112,-117,-48,-14,-9
204,-170,-375,-17,290,-273,-19,-107,-117,-43,-14,-4
204,-175,-380,-14,292,-278,-19,-107,-117,-43,-14,-4
195,-204,-400,4,297,-302,-34,-112,-122,-43,-29,-19
195,-219,-414,12,305,-317,-34,-117,-126,-43,-29,-19
190,-229,-419,19,305,-324,-34,-117,-126,-43,-29,-19
185,-234,-419,24,302,-326,-29,-117,-122,-43,-29,-19
214,-204,-419,-4,317,-312,-58,-151,-161,-87,-58,-48
214,-204,-419,-4,317,-312,-58,-146,-151,-87,-58,-48
195,-244,-439,24,317,-341,-39,-112,-117,-48,-29,-29
195,-229,-424,17,309,-326,-19,-102,-112,-29,-24,-19
229,-180,-409,-24,319,-295,-4,-73,-97,-39,-19,-19
317,-141,-458,-87,387,-300,-4,-48,-73,-34,-4,-4
317,-141,-458,-87,387,-300,-14,-43,-63,-29,-9,-14
244,-156,-400,-43,322,-278,-24,-29,-39,-4,4,-4
244,-126,-370,-58,307,-248,-14,19,34,53,58,43
297,-78,-375,-109,336,-226,14,87,112,107,102,82
278,-78,-356,-100,317,-217,39,146,170,141,131,102
292,-73,-366,-109,329,-219,53,248,278,200,190,131
351,-39,-390,-156,370,-214,92,444,468,292,268,190
366,-9,-375,-178,370,-192,170,727,692,375,336,224
361,0,-361,-180,361,-180,239,1000,912,473,409,268
409,24,-385,-217,397,-180,268,1156,1102,556,497,331
512,63,-448,-287,480,-192,248,1234,1224,614,570,409
639,82,-556,-361,597,-236,209,1254,1263,614,600,439
741,58,-683,-400,712,-312,146,1088,1083,478,512,380
732,4,-727,-368,729,-361,39,678,678,253,336,278
634,-39,-673,-297,653,-356,-92,136,170,34,161,185
575,-63,-639,-256,607,-351,-204,-444,-361,-165,-9,78
507,-146,-653,-180,580,-400,-351,-1015,-849,-390,-200,-58
351,-307,-658,-21,505,-483,-453,-1400,-1161,-566,-361,-195
224,-458,-683,117,453,-570,-478,-1561,-1327,-692,-492,-307
165,-556,-722,195,444,-639,-444,-1571,-1434,-785,-595,-400
107,-619,-727,256,417,-673,-414,-1527,-1483,-873,-688,-492
68,-639,-707,285,387,-673,-390,-1449,-1439,-897,-741,-546
68,-629,-697,280,383,-663,-361,-1327,-1332,-863,-722,-546
112,-590,-702,239,407,-646,-341,-1210,-1220,-800,-663,-512
131,-570,-702,219,417,-636,-331,-1054,-1088,-732,-614,-483
131,-575,-707,222,419,-641,-292,-883,-932,-663,-566,-463
141,-575,-717,217,429,-646,-263,-736,-800,-590,-517,-414
165,-541,-707,187,436,-624,-258,-668,-736,-541,-473,-395
190,-483,-673,146,431,-578,-263,-639,-688,-502,-434,-370
180,-414,-595,117,387,-505,-224,-580,-614,-424,-375,-312
180,-390,-570,104,375,-480,-180,-512,-541,-351,-312,-248
200,-375,-575,87,387,-475,-161,-458,-492,-322,-273,-214
219,-336,-556,58,387,-446,-141,-380,-429,-273,-224,-175
214,-312,-527,48,370,-419,-112,-292,-341,-229,-185,-146
214,-287,-502,36,358,-395,-97,-244,-287,-195,-161,-136
214,-263,-478,24,346,-370,-73,-200,-224,-136,-117,-102
214,-234,-448,9,331,-341,-48,-165,-180,-87,-78,-68
204,-204,-409,0,307,-307,-34,-141,-161,-63,-63,-39
195,-209,-405,7,300,-307,-14,-131,-141,-43,-29,-19
214,-200,-414,-7,314,-307,-4,-112,-122,-29,-9,-9
209,-175,-385,-17,297,-280,-14,-92,-122,-24,-4,-19
200,-165,-366,-17,283,-265,-4,-68,-107,-34,-14,-19
185,-165,-351,-9,268,-258,4,-48,-92,-34,-9,-19
170,-165,-336,-2,253,-251,4,-43,-68,-14,-4,-19
165,-175,-341,4,253,-258,4,-34,-53,-14,-4,-9
180,-156,-336,-12,258,-246,14,-34,-48,0,14,-4
204,-126,-331,-39,268,-229,14,-34,-43,14,29,9
229,-102,-331,-63,280,-217,4,-29,-43,24,39,19
234,-73,-307,-80,270,-190,14,-24,-43,29,43,29
209,-92,-302,-58,256,-197,14,-14,-43,24,39,24
204,-112,-317,-46,261,-214,19,-4,-24,19,39,19
209,-141,-351,-34,280,-246,19,9,-14,29,43,14
219,-146,-366,-36,292,-256,24,14,-4,29,39,14
219,-136,-356,-41,287,-246,14,14,-14,29,39,14
214,-136,-351,-39,283,-244,9,9,-19,29,39,4
209,-136,-346,-36,278,-241,9,9,-19,29,39,19
200,-141,-341,-29,270,-241,9,14,-19,34,53,24
175,-151,-326,-12,251,-239,24,24,-14,34,53,24
156,-141,-297,-7,226,-219,24,34,-9,34,48,24
175,-141,-317,-17,246,-229,24,39,0,34,48,24
156,-151,-307,-2,231,-229,24,43,14,39,53,24
185,-117,-302,-34,244,-209,24,39,19,48,53,39
204,-102,-307,-51,256,-204,24,43,19,48,58,39
234,-92,-326,-70,280,-209,24,43,19,48,58,39
244,-92,-336,-75,290,-214,19,43,19,53,53,43
234,-107,-341,-63,287,-224,19,48,29,53,63,43
214,-117,-331,-48,273,-224,19,53,29,53,63,43
195,-122,-317,-36,256,-219,29,78,48,58,68,48
175,-117,-292,-29,234,-204,29,87,58,63,68,48
175,-126,-302,-24,239,-214,19,82,58,63,68,39
180,-131,-312,-24,246,-222,19,82,53,68,63,39
175,-136,-312,-19,244,-224,19,82,53,73,68,43
170,-131,-302,-19,236,-217,19,82,48,73,68,48
170,-122,-292,-24,231,-207,29,87,58,82,73,48
180,-126,-307,-26,244,-217,34,97,68,82,78,48
170,-126,-297,-21,234,-212,43,112,82,82,87,48
170,-126,-297,-21,234,-212,43,122,102,82,97,48
190,-102,-292,-43,241,-197,34,117,92,92,87,53
209,-92,-302,-58,256,-197,29,126,102,92,87,53
219,-78,-297,-70,258,-187,29,131,107,97,97,53
219,-63,-283,-78,251,-173,29,136,112,107,97,63
219,-73,-292,-73,256,-183,43,141,117,112,112,63
219,-73,-292,-73,256,-183,43,156,126,122,122,73
224,-63,-287,-80,256,-175,53,175,141,126,126,78
229,-63,-292,-82,261,-178,63,180,146,131,131,78
219,-58,-278,-80,248,-168,73,190,165,136,131,82
229,-48,-278,-90,253,-163,73,204,180,146,136,92
219,-34,-253,-92,236,-143,78,219,195,156,141,107
219,-29,-248,-95,234,-139,78,229,209,165,156,117
229,-43,-273,-92,251,-158,68,219,200,161,151,112
224,-53,-278,-85,251,-165,68,229,200,156,146,112
224,-53,-278,-85,251,-165,68,234,200,151,141,107
214,-63,-278,-75,246,-170,68,248,209,151,136,102
200,-48,-248,-75,224,-148,82,263,224,156,156,107
200,-43,-244,-78,222,-143,92,273,234,165,156,112
214,-29,-244,-92,229,-136,92,278,244,170,165,117
239,-4,-244,-117,241,-124,92,283,248,185,180,122
234,-9,-244,-112,239,-126,112,297,268,195,195,136
204,-19,-224,-92,214,-122,112,307,283,204,195,141
180,-29,-209,-75,195,-119,117,326,292,209,200,146
165,-39,-204,-63,185,-122,126,341,297,219,200,146
190,-19,-209,-85,200,-114,126,361,307,229,200,146
209,-4,-214,-102,212,-109,136,370,322,234,209,151
219,4,-214,-112,217,-104,136,380,336,244,214,161
229,14,-214,-122,222,-100,136,400,346,244,224,165
224,24,-200,-124,212,-87,141,405,346,239,214,156
229,29,-200,-129,214,-85,151,405,351,248,229,161
229,24,-204,-126,217,-90,151,419,370,268,248,175
234,24,-209,-129,222,-92,151,429,385,268,248,175
244,29,-214,-136,229,-92,141,429,375,258,239,175
239,34,-204,-136,222,-85,151,429,380,258,239,175
219,39,-180,-129,200,-70,151,439,385,268,248,180
214,39,-175,-126,195,-68,151,434,395,273,258,185
224,43,-180,-134,202,-68,151,434,395,263,258,180
224,39,-185,-131,204,-73,146,439,400,268,258,180
219,34,-185,-126,202,-75,146,444,400,278,258,185
219,39,-180,-129,200,-70,146,458,409,287,258,190
253,68,-185,-161,219,-58,161,468,405,302,273,200
263,87,-175,-175,219,-43,165,468,414,307,278,200
268,97,-170,-183,219,-36,165,468,419,312,278,204
273,112,-161,-192,217,-24,175,473,434,317,292,209
287,107,-180,-197,234,-36,175,473,439,317,297,219
287,117,-170,-202,229,-26,165,468,439,317,297,219
287,117,-170,-202,229,-26,156,468,444,317,302,219
278,102,-175,-190,226,-36,151,468,448,322,312,219
258,87,-170,-173,214,-41,151,458,444,312,307,219
248,87,-161,-168,204,-36,146,458,439,312,302,224
248,92,-156,-170,202,-31,146,458,434,307,297,224
229,92,-136,-161,183,-21,146,458,429,307,302,224
244,112,-131,-178,187,-9,146,448,444,317,312,234
248,112,-136,-180,192,-12,146,448,444,317,307,234
253,112,-141,-183,197,-14,136,448,444,322,307,234
258,112,-146,-185,202,-17,136,439,448,331,317,244
234,107,-126,-170,180,-9,126,439,444,331,312,234
229,97,-131,-163,180,-17,126,439,439,322,312,234
209,87,-122,-148,165,-17,122,424,424,317,312,234
214,78,-136,-146,175,-29,122,424,419,317,302,234
224,92,-131,-158,178,-19,131,434,424,331,322,248
229,102,-126,-165,178,-12,126,444,439,331,331,258
244,117,-126,-180,185,-4,126,444,444,336,331,258
253,122,-131,-187,192,-4,122,434,448,336,331,258
244,122,-122,-183,183,0,107,414,424,346,322,248
244,112,-131,-178,187,-9,107,400,424,346,322,248
248,112,-136,-180,192,-12,102,385,419,341,322,244
248,112,-136,-180,192,-12,97,366,409,331,312,244
248,107,-141,-178,195,-17,92,361,409,322,322,248
248,102,-146,-175,197,-21,87,356,405,317,322,248
244,102,-141,-173,192,-19,82,346,395,317,317,248
244,102,-141,-173,192,-19,82,346,385,312,317,248
258,131,-126,-195,192,2,87,331,375,317,326,253
268,117,-151,-192,209,-17,82,317,366,312,322,253
278,102,-175,-190,226,-36,78,312,361,307,312,248
297,107,-190,-202,244,-41,73,302,341,302,307,248
273,87,-185,-180,229,-48,63,268,322,283,278,224
258,73,-185,-165,222,-56,53,248,297,263,263,204
229,63,-165,-146,197,-51,39,219,273,248,248,200
224,53,-170,-139,197,-58,34,204,263,234,244,190
244,73,-170,-158,207,-48,39,200,263,239,244,195
244,78,-165,-161,204,-43,39,200,253,239,244,200
253,73,-180,-163,217,-53,39,195,244,239,239,195
273,82,-190,-178,231,-53,34,195,234,244,244,204
268,73,-195,-170,231,-61,19,170,200,219,224,190
253,58,-195,-156,224,-68,14,146,175,195,209,175
234,48,-185,-141,209,-68,14,126,161,180,195,156
219,19,-200,-119,209,-90,14,112,151,170,185,146
219,4,-214,-112,217,-104,0,92,136,156,180,141
219,-14,-234,-102,226,-124,0,78,122,136,165,126
219,-29,-248,-95,234,-139,-9,68,112,126,151,117
234,-39,-273,-97,253,-156,-14,58,92,126,146,107
239,-39,-278,-100,258,-158,-14,48,63,117,136,92
229,-48,-278,-90,253,-163,-9,39,58,102,131,92
224,-58,-283,-82,253,-170,-9,34,58,92,122,87
229,-53,-283,-87,256,-168,-14,24,43,92,117,82
244,-43,-287,-100,265,-165,-9,29,53,92,126,82
248,-39,-287,-104,268,-163,-9,24,53,87,117,87
229,-48,-278,-90,253,-163,-4,24,39,87,112,87
234,-43,-278,-95,256,-161,0,24,34,82,112,82
239,-53,-292,-92,265,-173,0,9,29,73,107,68
248,-43,-292,-102,270,-168,-4,4,24,73,92,63
253,-43,-297,-104,275,-170,-9,-4,19,68,82,63
248,-43,-292,-102,270,-168,-9,-9,9,58,73,53
214,-73,-287,-70,251,-180,-9,-19,0,53,78,58
190,-78,-268,-56,229,-173,-9,-14,0,53,78,58
180,-82,-263,-48,222,-173,-9,-14,-9,53,78,58
190,-97,-287,-46,239,-192,-14,-19,-14,53,68,53
185,-112,-297,-36,241,-204,-14,-24,-14,43,53,43
180,-122,-302,-29,241,-212,-14,-29,-19,43,53,39
175,-112,-287,-31,231,-200,-14,-29,-24,43,48,34
180,-97,-278,-41,229,-187,-19,-34,-29,43,48,29
170,-112,-283,-29,226,-197,-24,-39,-34,39,48,29
165,-131,-297,-17,231,-214,-24,-39,-34,34,48,29
165,-122,-287,-21,226,-204,-24,-39,-34,34,53,29
175,-122,-297,-26,236,-209,-24,-39,-34,43,58,34
165,-97,-263,-34,214,-180,-9,-24,-34,53,68,39
180,-82,-263,-48,222,-173,-4,-24,-34,53,63,39
180,-78,-258,-51,219,-168,-4,-29,-29,53,58,43
175,-78,-253,-48,214,-165,-4,-29,-24,53,58,48
175,-58,-234,-58,204,-146,0,-29,-14,43,68,48
190,-48,-239,-70,214,-143,0,-29,-14,39,68,48
200,-53,-253,-73,226,-153,0,-34,-24,39,68,48
204,-43,-248,-80,226,-146,4,-34,-24,39,68,48
195,-48,-244,-73,219,-146,-4,-43,-29,39,58,34
195,-63,-258,-65,226,-161,-19,-48,-39,39,53,24
190,-68,-258,-61,224,-163,-19,-48,-48,34,53,24
180,-58,-239,-61,209,-148,-19,-48,-53,34,48,24
161,-92,-253,-34,207,-173,-24,-48,-43,14,39,14
151,-102,-253,-24,202,-178,-14,-48,-43,24,39,24
170,-112,-283,-29,226,-197,-29,-58,-58,24,39,24
161,-131,-292,-14,226,-212,-34,-48,-58,24,39,19
161,-117,-278,-21,219,-197,-24,-48,-43,34,48,19
180,-112,-292,-34,236,-202,-24,-58,-53,29,39,19
190,-107,-297,-41,244,-202,-24,-58,-68,19,39,9
200,-112,-312,-43,256,-212,-14,-58,-58,19,34,9
190,-112,-302,-39,246,-207,-4,-48,-48,29,39,14
185,-92,-278,-46,231,-185,-14,-48,-48,24,48,14
185,-92,-278,-46,231,-185,-14,-48,-48,24,53,19
175,-92,-268,-41,222,-180,-4,-48,-43,29,58,29
161,-102,-263,-29,212,-183,-19,-53,-53,24,43,14
151,-122,-273,-14,212,-197,-24,-58,-58,19,39,9
122,-131,-253,4,187,-192,-29,-63,-68,14,34,4
141,-151,-292,4,217,-222,-34,-73,-68,9,29,-4
151,-126,-278,-12,214,-202,-24,-63,-58,19,29,0
161,-112,-273,-24,217,-192,-24,-63,-58,19,34,4
185,-107,-292,-39,239,-200,-19,-58,-48,19,39,9
180,-107,-287,-36,234,-197,-19,-58,-39,19,43,14
175,-112,-287,-31,231,-200,-19,-53,-48,19,48,14
170,-112,-283,-29,226,-197,-14,-53,-48,19,43,14
156,-107,-263,-24,209,-185,-9,-53,-48,19,43,14
136,-102,-239,-17,187,-170,-4,-53,-58,14,43,14
141,-112,-253,-14,197,-183,-9,-73,-68,0,39,9
151,-112,-263,-19,207,-187,-14,-78,-73,-4,39,4
156,-117,-273,-19,214,-195,-19,-78,-78,-9,34,0
151,-117,-268,-17,209,-192,-19,-82,-82,-14,29,0
161,-117,-278,-21,219,-197,-9,-78,-68,-9,39,0
180,-117,-297,-31,239,-207,-9,-73,-63,-4,34,-4
170,-117,-287,-26,229,-202,-9,-68,-63,0,34,-4
156,-112,-268,-21,212,-190,-9,-58,-58,4,34,0
170,-107,-278,-31,224,-192,4,-53,-48,14,43,4
180,-107,-287,-36,234,-197,14,-53,-63,14,43,9
185,-107,-292,-39,239,-200,4,-58,-63,14,43,14
190,-107,-297,-41,244,-202,4,-58,-63,14,43,19
151,-117,-268,-17,209,-192,0,-68,-63,4,39,4
151,-117,-268,-17,209,-192,-4,-68,-68,4,34,0
146,-117,-263,-14,204,-190,-14,-78,-73,0,29,0
131,-117,-248,-7,190,-183,-24,-78,-78,0,24,0
141,-117,-258,-12,200,-187,-19,-73,-78,0,29,14
131,-117,-248,-7,190,-183,-4,-63,-78,0,29,14
122,-112,-234,-4,178,-173,0,-58,-82,0,34,14
126,-107,-234,-9,180,-170,-4,-63,-87,0,39,14
200,-97,-297,-51,248,-197,-14,-82,-92,-9,19,0
219,-107,-326,-56,273,-217,-9,-53,-73,-9,29,0
185,-117,-302,-34,244,-209,19,-39,-58,0,48,9
185,-107,-292,-39,239,-200,14,-43,-63,-9,39,0
185,-107,-292,-39,239,-200,9,-48,-68,-9,39,0
185,-107,-292,-39,239,-200,4,-53,-73,-9,39,0
185,-107,-292,-39,239,-200,0,-58,-78,-9,39,0
185,-122,-307,-31,246,-214,-19,-63,-82,-19,34,-9
195,-131,-326,-31,261,-229,-9,-63,-82,-9,39,-4
195,-136,-331,-29,263,-234,-9,-63,-82,0,39,-4
195,-117,-312,-39,253,-214,-9,-68,-87,-9,34,-4
190,-112,-302,-39,246,-207,-19,-78,-102,-24,19,-14
190,-107,-297,-41,244,-202,-14,-78,-102,-24,19,-14
185,-112,-297,-36,241,-204,-14,-78,-102,-19,19,-9
180,-92,-273,-43,226,-183,-14,-73,-97,-14,24,-9
170,-107,-278,-31,224,-192,-4,-68,-87,0,39,4
165,-92,-258,-36,212,-175,-9,-58,-82,0,39,4
165,-78,-244,-43,204,-161,-9,-53,-68,4,43,4
161,-68,-229,-46,195,-148,9,-29,-48,24,58,19
165,-39,-204,-63,185,-122,34,-14,-48,48,73,34
175,-24,-200,-75,187,-112,43,-4,-34,58,78,43
195,4,-190,-100,192,-92,58,4,-14,63,82,48
219,29,-190,-124,204,-80,73,24,0,78,97,63
219,43,-175,-131,197,-65,73,43,24,97,112,73
195,43,-151,-119,173,-53,73,53,24,97,122,78
214,43,-170,-129,192,-63,53,53,24,97,122,78
244,58,-185,-151,214,-63,29,53,24,97,122,78
234,29,-204,-131,219,-87,0,39,9,87,112,68
234,0,-234,-117,234,-117,-29,14,-14,58,92,53
234,-19,-253,-107,244,-136,-63,-34,-39,39,68,39
239,-24,-263,-107,251,-143,-68,-68,-53,29,68,39
244,-34,-278,-104,261,-156,-78,-78,-68,14,58,29
248,-48,-297,-100,273,-173,-78,-78,-73,9,58,24
253,-58,-312,-97,283,-185,-78,-78,-73,0,48,19
268,-63,-331,-102,300,-197,-82,-78,-87,0,39,9
263,-78,-341,-92,302,-209,-78,-97,-97,-19,24,-4
268,-87,-356,-90,312,-222,-82,-112,-117,-39,9,-19
273,-97,-370,-87,322,-234,-87,-122,-122,-48,0,-24
253,-117,-370,-68,312,-244,-92,-122,-122,-48,0,-24
234,-136,-370,-48,302,-253,-87,-107,-107,-43,4,-24
219,-122,-341,-48,280,-231,-68,-102,-97,-34,9,-19
195,-107,-302,-43,248,-204,-48,-97,-92,-29,19,-9
151,-97,-248,-26,200,-173,-39,-87,-87,-14,24,-4
146,-87,-234,-29,190,-161,-34,-97,-97,-9,24,-9
151,-97,-248,-26,200,-173,-24,-92,-92,-9,24,-9
156,-97,-253,-29,204,-175,-24,-92,-92,-9,19,-9
161,-107,-268,-26,214,-187,-19,-92,-97,-19,14,-14
165,-107,-273,-29,219,-190,-29,-97,-102,-29,0,-24
165,-107,-273,-29,219,-190,-29,-112,-117,-43,-14,-39
170,-112,-283,-29,226,-197,-39,-126,-131,-53,-14,-58
170,-126,-297,-21,234,-212,-39,-136,-146,-63,-19,-63
151,-151,-302,0,226,-226,-39,-126,-151,-63,-19,-68
141,-151,-292,4,217,-222,-39,-126,-151,-58,-19,-63
141,-146,-287,2,214,-217,-34,-122,-141,-43,-14,-48
141,-146,-287,2,214,-217,-19,-117,-136,-39,-14,-43
131,-165,-297,17,214,-231,-39,-122,-146,-48,-19,-53
131,-165,-297,17,214,-231,-39,-131,-151,-58,-24,-58
141,-165,-307,12,224,-236,-39,-141,-161,-63,-29,-63
146,-161,-307,7,226,-234,-39,-146,-161,-68,-39,-68
170,-146,-317,-12,244,-231,-34,-131,-156,-73,-39,-58
180,-126,-307,-26,244,-217,-29,-126,-151,-68,-34,-58
185,-131,-317,-26,251,-224,-24,-112,-146,-58,-19,-53
180,-126,-307,-26,244,-217,-9,-107,-141,-43,-14,-53
175,-131,-307,-21,241,-219,-29,-122,-146,-58,-29,-73
180,-126,-307,-26,244,-217,-29,-122,-146,-63,-29,-73
175,-146,-322,-14,248,-234,-24,-122,-151,-63,-29,-68
170,-141,-312,-14,241,-226,-24,-122,-156,-68,-34,-68
156,-156,-312,0,234,-234,-29,-126,-151,-73,-34,-73
131,-161,-292,14,212,-226,-29,-126,-151,-73,-34,-73
97,-175,-273,39,185,-224,-19,-122,-151,-68,-34,-68
63,-180,-244,58,153,-212,-19,-117,-146,-68,-29,-68
107,-165,-273,29,190,-219,-24,-112,-146,-58,-19,-58
126,-156,-283,14,204,-219,-24,-112,-136,-58,-14,-58
146,-136,-283,-4,214,-209,-19,-107,-136,-53,-14,-53
165,-136,-302,-14,234,-219,-19,-107,-136,-53,-14,-53
156,-131,-287,-12,222,-209,-14,-112,-131,-53,-19,-58
156,-131,-287,-12,222,-209,-14,-117,-136,-53,-19,-58
151,-126,-278,-12,214,-202,-14,-117,-136,-53,-19,-58
146,-117,-263,-14,204,-190,-9,-117,-131,-53,-19,-58
146,-97,-244,-24,195,-170,9,-92,-112,-39,-9,-39
165,-107,-273,-29,219,-190,0,-97,-122,-48,-9,-48
156,-117,-273,-19,214,-195,0,-92,-117,-48,-9,-48
146,-122,-268,-12,207,-195,9,-63,-92,-39,-4,-48
112,-131,-244,9,178,-187,14,-53,-87,-29,-9,-48
73,-161,-234,43,153,-197,14,-48,-82,-14,4,-43
73,-161,-234,43,153,-197,14,-43,-63,-9,19,-34
126,-136,-263,4,195,-200,4,-39,-48,4,24,-24
165,-97,-263,-34,214,-180,-4,0,4,34,58,-4
151,-58,-209,-46,180,-134,14,87,102,107,112,43
161,-39,-200,-61,180,-119,39,175,200,161,161,82
234,-24,-258,-104,246,-141,34,268,297,190,190,82
312,19,-292,-165,302,-136,73,483,488,263,258,122
356,78,-278,-217,317,-100,170,785,732,375,346,185
380,87,-292,-234,336,-102,258,1039,932,483,439,248
429,92,-336,-261,383,-122,248,1146,1054,536,488,283
483,112,-370,-297,427,-129,200,1176,1127,536,522,322
551,92,-458,-322,505,-183,161,1156,1117,497,512,322
595,9,-585,-302,590,-287,126,971,907,351,414,263
585,-14,-600,-285,592,-307,48,541,463,126,239,170
497,-9,-507,-244,502,-258,-53,-9,-53,-82,82,78
400,-73,-473,-163,436,-273,-175,-580,-527,-253,-78,-19
370,-146,-517,-112,444,-331,-292,-1112,-946,-439,-239,-136
302,-209,-512,-46,407,-361,-375,-1468,-1239,-595,-390,-244
165,-322,-488,78,326,-405,-390,-1610,-1405,-712,-512,-366
58,-429,-488,185,273,-458,-356,-1571,-1473,-805,-605,-468
0,-492,-492,246,246,-492,-317,-1468,-1454,-844,-658,-522
-29,-531,-502,280,236,-517,-302,-1390,-1400,-868,-702,-585
-9,-541,-531,275,261,-536,-322,-1317,-1332,-863,-722,-605
34,-522,-556,244,295,-539,-312,-1190,-1220,-810,-673,-580
43,-531,-575,244,309,-553,-292,-1044,-1078,-732,-614,-541
43,-527,-570,241,307,-549,-283,-902,-961,-673,-585,-522
92,-468,-561,187,326,-514,-263,-785,-868,-619,-536,-492
117,-424,-541,153,329,-483,-239,-697,-766,-541,-483,-453
122,-405,-527,141,324,-466,-204,-619,-678,-473,-424,-400
131,-375,-507,122,319,-441,-195,-551,-605,-414,-346,-341
151,-312,-463,80,307,-387,-161,-473,-522,-331,-273,-268
170,-239,-409,34,290,-324,-131,-390,-444,-273,-224,-224
170,-209,-380,19,275,-295,-112,-341,-390,-244,-204,-195
146,-175,-322,14,234,-248,-82,-292,-331,-209,-165,-175
136,-141,-278,2,207,-209,-39,-214,-258,-156,-122,-146
107,-126,-234,9,170,-180,-14,-170,-214,-107,-97,-122
97,-136,-234,19,165,-185,-9,-146,-190,-87,-78,-107
97,-126,-224,14,161,-175,-4,-141,-180,-73,-63,-87
107,-92,-200,-7,153,-146,-4,-122,-161,-53,-29,-68
97,-92,-190,-2,143,-141,4,-92,-131,-29,0,-48
92,-107,-200,7,146,-153,14,-63,-102,-14,14,-29
102,-92,-195,-4,148,-143,14,-58,-102,-19,9,-39
97,-87,-185,-4,141,-136,24,-39,-92,-24,9,-39
92,-82,-175,-4,134,-129,24,-34,-73,-9,9,-39
97,-87,-185,-4,141,-136,24,-24,-63,-14,4,-29
82,-97,-180,7,131,-139,34,-14,-58,-4,9,-39
87,-87,-175,0,131,-131,34,-14,-53,4,19,-29
92,-82,-175,-4,134,-129,24,-9,-53,9,24,-24
78,-73,-151,-2,114,-112,34,-4,-53,9,24,-19
68,-63,-131,-2,100,-97,43,-4,-53,9,34,-9
68,-63,-131,-2,100,-97,48,4,-34,9,39,-9
78,-73,-151,-2,114,-112,48,19,-24,24,48,-9
92,-58,-151,-17,122,-104,53,24,-14,29,48,-4
112,-29,-141,-41,126,-85,43,34,-4,29,39,-4
126,-9,-136,-58,131,-73,39,29,-9,29,39,-14
141,9,-131,-75,136,-61,39,29,-9,29,39,0
151,24,-126,-87,139,-51,39,34,-9,34,53,4
136,0,-136,-68,136,-68,43,43,-4,34,63,-4
126,4,-122,-65,124,-58,43,53,0,34,58,-4
156,0,-156,-78,156,-78,43,58,9,34,58,-4
146,-14,-161,-65,153,-87,43,63,24,39,63,-4
141,-9,-151,-65,146,-80,34,63,24,39,68,-9
136,-14,-151,-61,143,-82,34,63,19,39,68,-9
141,-24,-165,-58,153,-95,34,58,14,39,63,-9
126,-43,-170,-41,148,-107,29,53,9,43,53,-4
126,-39,-165,-43,146,-102,39,63,9,43,58,4
117,-39,-156,-39,136,-97,39,63,9,43,63,4
107,-34,-141,-36,124,-87,48,82,29,48,73,9
97,-19,-117,-39,107,-68,48,87,39,53,78,9
122,-4,-126,-58,124,-65,48,87,53,63,82,9
131,-4,-136,-63,134,-70,48,92,53,68,82,9
131,-4,-136,-63,134,-70,48,97,58,73,92,14
131,4,-126,-68,129,-61,48,102,58,73,97,19
131,4,-126,-68,129,-61,58,117,78,92,107,24
141,0,-141,-70,141,-70,63,126,87,92,107,29
131,0,-131,-65,131,-65,73,141,102,92,112,34
131,0,-131,-65,131,-65,73,151,122,92,117,39
136,9,-126,-73,131,-58,63,146,117,92,107,34
151,14,-136,-82,143,-61,58,156,122,92,107,34
156,24,-131,-90,143,-53,58,161,122,97,117,34
151,34,-117,-92,134,-41,58,165,122,107,117,43
136,19,-117,-78,126,-48,58,161,112,102,112,29
131,14,-117,-73,124,-51,53,165,117,102,112,34
131,19,-112,-75,122,-46,58,175,126,97,107,34
131,14,-117,-73,124,-51,63,170,126,92,102,29
131,14,-117,-73,124,-51,78,190,146,102,117,43
141,19,-122,-80,131,-51,82,204,161,117,126,53
131,29,-102,-80,117,-36,92,219,175,131,136,68
131,29,-102,-80,117,-36,97,229,190,146,156,78
131,39,-92,-85,112,-26,102,234,204,165,161,82
126,43,-82,-85,104,-19,107,248,209,165,165,92
126,58,-68,-92,97,-4,112,258,214,165,170,97
117,63,-53,-90,85,4,117,278,229,170,175,102
117,58,-58,-87,87,0,126,283,229,170,180,102
122,53,-68,-87,95,-7,131,292,234,175,175,102
141,58,-82,-100,112,-12,126,297,239,175,180,102
170,73,-97,-122,134,-12,122,302,239,185,190,102
175,87,-87,-131,131,0,131,317,253,200,204,117
156,87,-68,-122,112,9,131,326,273,204,204,122
141,87,-53,-114,97,17,136,346,287,204,209,126
136,87,-48,-112,92,19,146,361,297,209,209,126
131,82,-48,-107,90,17,146,370,307,219,209,126
131,82,-48,-107,90,17,156,380,322,224,219,131
122,78,-43,-100,82,17,156,390,336,234,224,141
112,73,-39,-92,75,17,156,409,346,234,234,146
112,87,-24,-100,68,31,151,405,336,229,229,141
122,97,-24,-109,73,36,161,405,341,239,239,141
126,97,-29,-112,78,34,161,419,361,258,253,151
136,102,-34,-119,85,34,161,429,375,258,248,146
141,107,-34,-124,87,36,161,434,375,268,248,156
131,112,-19,-122,75,46,170,439,380,268,248,156
107,117,9,-112,48,63,170,453,385,278,258,161
97,117,19,-107,39,68,170,453,395,283,268,165
131,136,4,-134,63,70,185,468,400,292,278,175
156,146,-9,-151,82,68,185,478,409,297,287,180
175,156,-19,-165,97,68,190,488,414,307,297,190
200,175,-24,-187,112,75,195,507,429,317,307,200
200,185,-14,-192,107,85,195,497,424,317,297,204
195,195,0,-195,97,97,195,497,434,317,297,200
185,195,9,-190,87,102,190,497,439,317,292,200
175,200,24,-187,75,112,195,502,453,317,302,200
170,195,24,-183,73,109,204,502,453,317,307,209
161,195,34,-178,63,114,195,497,448,317,307,209
151,185,34,-168,58,109,185,497,448,317,312,209
131,161,29,-146,51,95,180,497,448,322,322,209
141,165,24,-153,58,95,190,497,453,326,331,214
141,165,24,-153,58,95,185,497,458,331,331,224
151,170,19,-161,65,95,185,497,463,331,331,229
141,170,29,-156,56,100,185,497,468,336,341,234
131,175,43,-153,43,109,180,492,458,322,336,224
131,170,39,-151,46,104,175,488,453,317,326,224
131,165,34,-148,48,100,161,483,448,317,322,224
131,161,29,-146,51,95,156,468,448,322,326,234
131,180,48,-156,41,114,156,468,468,341,322,234
141,185,43,-163,48,114,156,468,468,331,322,234
136,190,53,-163,41,122,151,453,458,326,322,234
156,195,39,-175,58,117,151,453,458,326,312,234
161,195,34,-178,63,114,161,444,448,341,331,229
161,200,39,-180,61,119,156,453,458,341,341,239
170,209,39,-190,65,124,156,453,458,346,341,239
175,209,34,-192,70,122,151,444,458,346,341,239
161,219,58,-190,51,139,136,429,434,341,336,239
156,209,53,-183,51,131,136,419,434,336,331,239
156,209,53,-183,51,131,131,409,429,326,326,234
151,209,58,-180,46,134,126,395,419,312,312,234
156,195,39,-175,58,117,126,400,414,317,322,234
161,190,29,-175,65,109,126,395,414,317,322,239
161,190,29,-175,65,109,126,385,409,322,317,244
165,190,24,-178,70,107,131,385,405,322,317,248
146,195,48,-170,48,122,126,361,395,307,317,244
141,175,34,-158,53,104,122,346,385,302,312,244
136,156,19,-146,58,87,117,341,380,297,302,239
141,156,14,-148,63,85,112,331,361,292,297,239
151,170,19,-161,65,95,97,302,336,278,283,219
161,170,9,-165,75,90,92,287,317,263,273,204
156,175,19,-165,68,97,82,263,297,253,263,204
175,180,4,-178,85,92,82,253,292,244,263,200
165,165,0,-165,82,82,87,248,278,239,253,204
146,156,9,-151,68,82,87,239,263,229,244,200
136,136,0,-136,68,68,87,224,248,219,229,185
136,131,-4,-134,70,63,82,214,234,214,224,185
141,126,-14,-134,78,56,78,195,214,204,209,175
136,117,-19,-126,78,48,73,175,195,185,200,165
126,112,-14,-119,70,48,73,161,185,175,190,151
122,87,-34,-104,78,26,73,151,180,170,185,146
117,92,-24,-104,70,34,58,122,161,156,170,141
112,82,-29,-97,70,26,58,107,141,136,156,126
107,78,-29,-92,68,24,48,97,126,126,141,117
117,78,-39,-97,78,19,43,87,102,126,136,107
107,58,-48,-82,78,4,43,87,92,126,126,92
92,39,-53,-65,73,-7,48,78,87,112,122,92
82,19,-63,-51,73,-21,48,73,87,102,112,87
82,14,-68,-48,75,-26,43,63,73,102,107,82
97,34,-63,-65,80,-14,53,53,68,87,97,78
112,39,-73,-75,92,-17,48,43,63,78,87,78
102,29,-73,-65,87,-21,48,39,43,73,82,73
117,34,-82,-75,100,-24,48,34,34,63,82,63
107,29,-78,-68,92,-24,53,34,43,53,82,58
112,34,-78,-73,95,-21,53,34,43,53,73,53
112,29,-82,-70,97,-26,53,29,43,48,68,53
102,24,-78,-63,90,-26,58,29,39,39,63,43
87,0,-87,-43,87,-43,58,24,34,43,58,48
73,0,-73,-36,73,-36,58,24,29,43,58,48
73,0,-73,-36,73,-36,58,19,14,43,58,48
92,-9,-102,-41,97,-56,53,9,4,43,48,43
92,-19,-112,-36,102,-65,58,9,4,43,48,39
82,-24,-107,-29,95,-65,63,9,9,43,53,39
73,-9,-82,-31,78,-46,68,14,14,43,53,39
73,9,-63,-41,68,-26,68,14,19,43,58,39
68,-14,-82,-26,75,-48,58,4,9,34,48,34
58,-34,-92,-12,75,-63,53,0,4,24,39,29
53,-24,-78,-14,65,-51,48,-4,0,19,34,24
58,-24,-82,-17,70,-53,43,-9,-4,24,29,24
63,-14,-78,-24,70,-46,48,-4,-4,14,39,34
82,-4,-87,-39,85,-46,53,-4,-4,14,34,29
87,-4,-92,-41,90,-48,53,-9,0,14,29,29
87,-9,-97,-39,92,-53,53,-9,4,14,29,29
82,0,-82,-41,82,-41,58,-9,-4,14,29,19
82,0,-82,-41,82,-41,58,-9,-4,9,29,19
78,-14,-92,-31,85,-53,58,-14,-14,9,29,19
68,-14,-82,-26,75,-48,63,-14,-14,9,29,19
63,-4,-68,-29,65,-36,73,-4,-9,14,39,24
68,-14,-82,-26,75,-48,58,-9,-9,19,34,14
68,-14,-82,-26,75,-48,58,-9,-9,19,34,14
63,0,-63,-31,63,-31,58,-9,-4,24,29,14
63,-24,-87,-19,75,-56,73,-9,-4,14,29,14
53,-24,-78,-14,65,-51,82,-9,-4,24,29,24
73,-24,-97,-24,85,-61,68,-19,-19,24,29,24
63,-34,-97,-14,80,-65,63,-9,-19,24,29,19
58,-24,-82,-17,70,-53,53,-19,-9,9,24,14
73,-24,-97,-24,85,-61,53,-29,-24,0,9,9
78,-24,-102,-26,90,-63,53,-29,-43,-14,4,-4
82,-34,-117,-24,100,-75,63,-29,-39,-19,-4,-9
73,-48,-122,-12,97,-85,63,-29,-29,-9,-4,0
68,-34,-102,-17,85,-68,53,-29,-29,-14,0,-4
68,-39,-107,-14,87,-73,53,-29,-29,-14,0,-4
58,-43,-102,-7,80,-73,63,-29,-24,-9,0,0
43,-39,-82,-2,63,-61,73,-24,-9,0,9,4
34,-43,-78,4,56,-61,73,-19,-9,0,9,9
4,-39,-43,17,24,-41,73,-14,-14,0,9,14
24,-43,-68,9,46,-56,73,-14,-9,0,9,14
24,-34,-58,4,41,-46,82,-14,-14,9,14,14
24,-24,-48,0,36,-36,82,-14,-19,9,14,14
39,-24,-63,-7,51,-43,87,-9,-14,9,14,14
24,-29,-53,2,39,-41,87,-9,-9,9,14,14
34,-48,-82,7,58,-65,82,-19,-24,-9,0,-4
43,-53,-97,4,70,-75,82,-24,-29,-19,-14,-4
43,-53,-97,4,70,-75,82,-29,-34,-29,-24,-4
39,-53,-92,7,65,-73,82,-34,-48,-43,-34,-4
29,-58,-87,14,58,-73,92,-29,-39,-39,-24,-4
34,-63,-97,14,65,-80,92,-29,-34,-34,-19,-4
34,-73,-107,19,70,-90,92,-24,-29,-29,-19,-4
24,-78,-102,26,63,-90,97,-24,-24,-24,-19,0
48,-63,-112,7,80,-87,97,-14,-14,-14,-9,0
73,-58,-131,-7,102,-95,97,-14,-14,-14,-14,-4
68,-53,-122,-7,95,-87,97,-14,-19,-14,-14,-4
58,-43,-102,-7,80,-73,97,-9,-19,-14,-14,0
58,-48,-107,-4,82,-78,92,-9,-14,-24,-14,9
53,-48,-102,-2,78,-75,102,-14,-34,-24,-14,9
43,-48,-92,2,68,-70,92,-24,-39,-24,-14,9
34,-48,-82,7,58,-65,92,-29,-43,-24,-14,9
29,-53,-82,12,56,-68,97,-19,-34,-19,-4,4
43,-58,-102,7,73,-80,102,-19,-29,-14,-4,0
53,-63,-117,4,85,-90,102,-29,-24,-14,-4,0
53,-68,-122,7,87,-95,102,-29,-19,-9,-4,0
39,-82,-122,21,80,-102,112,-29,-29,-19,-14,4
24,-87,-112,31,68,-100,122,-24,-29,-19,-19,4
9,-87,-97,39,53,-92,122,-24,-34,-19,-19,4
9,-87,-97,39,53,-92,112,-34,-39,-19,-19,4
63,-48,-112,-7,87,-80,122,-34,-53,-29,-29,-9
