I,II,III,aVR,aVL,aVF,V1,V2,V3,V4,V5,V6
-126,48,175,39,-151,112,195,97,97,78,107,48
-126,48,175,39,-151,112,195,97,97,78,107,48
-126,48,175,39,-151,112,195,97,97,78,107,48
-126,48,175,39,-151,112,195,97,97,78,107,48
-131,58,190,36,-161,124,195,87,97,68,107,48
-136,58,195,39,-165,126,195,87,97,68,107,48
-141,58,200,41,-170,129,195,87,97,68,107,48
-146,58,204,43,-175,131,195,87,97,68,107,48
-156,53,209,51,-183,131,195,97,107,82,107,53
-156,48,204,53,-180,126,195,97,107,87,107,58
-156,43,200,56,-178,122,195,97,107,92,107,63
-156,39,195,58,-175,117,195,97,107,97,107,68
-151,43,195,53,-173,119,195,97,97,92,107,63
-146,48,195,48,-170,122,195,97,97,87,107,58
-141,53,195,43,-168,124,195,97,97,82,107,53
-136,58,195,39,-165,126,195,97,97,78,107,48
-146,68,214,39,-180,141,195,87,102,82,117,53
-146,68,214,39,-180,141,195,87,107,87,117,58
-146,68,214,39,-180,141,195,87,112,92,117,63
-146,68,214,39,-180,141,195,87,117,97,117,68
-136,68,204,34,-170,136,185,87,107,87,117,58
-136,68,204,34,-170,136,185,87,107,87,117,58
-136,68,204,34,-170,136,185,87,107,87,117,58
-136,68,204,34,-170,136,185,87,107,87,117,58
-146,78,224,34,-185,151,185,97,117,97,117,68
-146,78,224,34,-185,151,185,97,117,97,117,68
-146,78,224,34,-185,151,185,97,117,97,117,68
-146,78,224,34,-185,151,185,97,117,97,117,68
-156,78,234,39,-195,156,195,107,126,107,122,73
-156,78,234,39,-195,156,195,107,126,107,126,78
-156,78,234,39,-195,156,195,107,126,107,131,82
-156,78,234,39,-195,156,195,107,126,107,136,87
-146,68,214,39,-180,141,185,97,122,97,136,78
-146,68,214,39,-180,141,185,97,117,97,136,78
-146,68,214,39,-180,141,185,97,112,97,136,78
-146,68,214,39,-180,141,185,97,107,97,136,78
-151,68,219,41,-185,143,195,97,117,102,136,78
-156,68,224,43,-190,146,195,97,117,107,136,78
-161,68,229,46,-195,148,195,97,117,112,136,78
-165,68,234,48,-200,151,195,97,117,117,136,78
-156,58,214,48,-185,136,185,107,107,107,126,78
-156,58,214,48,-185,136,185,107,107,107,126,78
-156,58,214,48,-185,136,185,107,107,107,126,78
-156,58,214,48,-185,136,185,107,107,107,126,78
-146,68,214,39,-180,141,175,102,107,97,126,78
-146,68,214,39,-180,141,175,97,107,97,126,78
-146,68,214,39,-180,141,175,92,107,97,126,78
-146,68,214,39,-180,141,175,87,107,97,126,78
-136,68,204,34,-170,136,185,87,107,87,117,68
-136,68,204,34,-170,136,185,87,107,87,117,68
-136,68,204,34,-170,136,185,87,107,87,117,68
-136,68,204,34,-170,136,185,87,107,87,117,68
-141,53,195,43,-168,124,175,87,97,87,107,68
-146,48,195,48,-170,122,175,87,97,87,107,68
-151,43,195,53,-173,119,175,87,97,87,107,68
-156,39,195,58,-175,117,175,87,97,87,107,68
-165,43,209,61,-187,126,175,97,107,92,122,78
-165,48,214,58,-190,131,175,97,107,97,126,78
-165,53,219,56,-192,136,175,97,107,102,131,78
-165,58,224,53,-195,141,175,97,107,107,136,78
-161,68,229,46,-195,148,175,87,97,97,126,78
-156,68,224,43,-190,146,175,87,97,97,126,78
-151,68,219,41,-185,143,175,87,97,97,126,78
-146,68,214,39,-180,141,175,87,97,97,126,78
-156,63,219,46,-187,141,175,78,97,92,122,68
-156,58,214,48,-185,136,175,78,97,87,117,68
-156,53,209,51,-183,131,175,78,97,82,112,68
-156,48,204,53,-180,126,175,78,97,78,107,68
-165,48,214,58,-190,131,165,87,97,87,117,68
-165,48,214,58,-190,131,165,87,97,87,117,68
-165,48,214,58,-190,131,165,87,97,87,117,68
-165,48,214,58,-190,131,165,87,97,87,117,68
-156,48,204,53,-180,126,175,87,97,78,117,58
-156,48,204,53,-180,126,175,87,97,78,117,58
-156,48,204,53,-180,126,175,87,97,78,117,58
-156,48,204,53,-180,126,175,87,97,78,117,58
-151,39,190,56,-170,114,175,82,97,82,107,48
-146,39,185,53,-165,112,175,78,97,87,107,48
-141,39,180,51,-161,109,175,73,97,92,107,48
-136,39,175,48,-156,107,175,68,97,97,107,48
-146,48,195,48,-170,122,175,68,87,82,97,48
-146,48,195,48,-170,122,175,68,87,78,97,48
-146,48,195,48,-170,122,175,68,87,73,97,48
-146,48,195,48,-170,122,175,68,87,68,97,48
-156,48,204,53,-180,126,175,82,92,82,102,53
-165,48,214,58,-190,131,175,87,97,87,107,58
-175,48,224,63,-200,136,175,92,102,92,112,63
-185,48,234,68,-209,141,175,97,107,97,117,68
-180,39,219,70,-200,129,165,87,97,87,117,68
-175,39,214,68,-195,126,165,87,97,87,117,68
-170,39,209,65,-190,124,165,87,97,87,117,68
-165,39,204,63,-185,122,165,87,97,87,117,68
-156,39,195,58,-175,117,175,82,87,78,107,58
-156,39,195,58,-175,117,175,78,87,78,107,58
-156,39,195,58,-175,117,175,73,87,78,107,58
-156,39,195,58,-175,117,175,68,87,78,107,58
-161,34,195,63,-178,114,165,73,97,78,97,58
-165,29,195,68,-180,112,165,78,97,78,97,58
-170,24,195,73,-183,109,165,82,97,78,97,58
-175,19,195,78,-185,107,165,87,97,78,97,58
-165,29,195,68,-180,112,165,87,92,73,87,48
-156,29,185,63,-170,107,165,87,87,68,87,48
-146,29,175,58,-161,102,165,87,82,63,87,48
-136,29,165,53,-151,97,165,87,78,58,87,48
-146,29,175,58,-161,102,175,87,82,73,92,53
-156,29,185,63,-170,107,175,87,87,78,97,58
-165,29,195,68,-180,112,175,87,92,82,102,63
-175,29,204,73,-190,117,175,87,97,87,107,68
-165,39,204,63,-185,122,165,78,87,78,97,58
-165,39,204,63,-185,122,165,78,87,78,97,58
-165,39,204,63,-185,122,165,78,87,78,97,58
-165,39,204,63,-185,122,165,78,87,78,97,58
-156,39,195,58,-175,117,165,78,97,87,102,68
-156,39,195,58,-175,117,165,78,97,87,107,68
-156,39,195,58,-175,117,165,78,97,87,112,68
-156,39,195,58,-175,117,165,78,97,87,117,68
-146,48,195,48,-170,122,165,78,87,87,107,63
-146,48,195,48,-170,122,165,78,87,87,107,58
-146,48,195,48,-170,122,165,78,87,87,107,53
-146,48,195,48,-170,122,165,78,87,87,107,48
-146,34,180,56,-163,107,165,78,78,73,92,39
-146,29,175,58,-161,102,165,78,78,68,87,39
-146,24,170,61,-158,97,165,78,78,63,82,39
-146,19,165,63,-156,92,165,78,78,58,78,39
-161,19,180,70,-170,100,165,78,92,68,87,43
-165,19,185,73,-175,102,165,78,97,78,97,48
-170,19,190,75,-180,104,165,78,102,87,107,53
-175,19,195,78,-185,107,165,78,107,97,117,58
-161,34,195,63,-178,114,156,73,102,92,112,48
-156,39,195,58,-175,117,156,68,97,87,107,48
-151,43,195,53,-173,119,156,63,92,82,102,48
-146,48,195,48,-170,122,156,58,87,78,97,48
-156,34,190,61,-173,112,156,63,78,68,87,39
-156,29,185,63,-170,107,156,68,78,68,87,39
-156,24,180,65,-168,102,156,73,78,68,87,39
-156,19,175,68,-165,97,156,78,78,68,87,39
-165,29,195,68,-180,112,165,87,82,78,97,43
-165,29,195,68,-180,112,165,87,87,78,97,48
-165,29,195,68,-180,112,165,87,92,78,97,53
-165,29,195,68,-180,112,165,87,97,78,97,58
-170,39,209,65,-190,124,175,97,102,92,102,68
-175,39,214,68,-195,126,175,97,107,97,107,68
-180,39,219,70,-200,129,175,97,112,102,112,68
-185,39,224,73,-204,131,185,102,122,107,117,73
-165,48,214,58,-190,131,180,97,107,97,112,68
-146,53,200,46,-173,126,180,97,112,97,112,68
-141,53,195,43,-168,124,180,107,107,97,107,68
-146,53,200,46,-173,126,180,107,107,97,107,63
-126,63,190,31,-158,126,190,117,117,107,107,73
-126,68,195,29,-161,131,190,117,126,112,117,78
-122,78,200,21,-161,139,200,126,126,117,126,87
-117,82,200,17,-158,141,204,136,131,122,126,92
-122,92,214,14,-168,153,204,136,146,141,136,107
-131,97,229,17,-180,163,200,136,146,141,146,107
-136,107,244,14,-190,175,200,136,151,146,156,112
-146,107,253,19,-200,180,204,136,156,151,161,117
-131,117,248,7,-190,183,209,131,165,146,156,107
-126,122,248,2,-187,185,209,136,165,146,156,107
-122,122,244,0,-183,183,219,146,165,146,156,107
-117,122,239,-2,-178,180,219,146,165,156,165,107
-97,112,209,-7,-153,161,200,146,156,136,146,97
-82,102,185,-9,-134,143,195,146,156,136,146,97
-82,102,185,-9,-134,143,195,156,156,136,151,102
-73,107,180,-17,-126,143,190,165,165,146,156,107
-58,117,175,-29,-117,146,185,165,175,161,175,126
-58,126,185,-34,-122,156,175,165,185,165,185,136
-58,146,204,-43,-131,175,170,165,190,180,190,146
-53,161,214,-53,-134,187,170,165,190,190,200,151
-53,180,234,-63,-143,207,146,156,180,190,204,161
-48,180,229,-65,-139,204,122,151,170,190,204,161
-48,175,224,-63,-136,200,107,136,161,185,200,151
-68,165,234,-48,-151,200,97,131,156,175,190,151
-68,141,209,-36,-139,175,102,122,146,156,180,136
-63,131,195,-34,-129,163,102,117,136,141,165,131
-58,122,180,-31,-119,151,107,117,136,136,156,126
-53,102,156,-24,-104,129,107,117,136,131,151,122
-78,102,180,-12,-129,141,122,122,126,136,151,131
-87,102,190,-7,-139,146,131,122,122,131,156,126
-102,102,204,0,-153,153,131,126,122,131,161,126
-107,107,214,0,-161,161,131,131,122,131,165,126
-97,112,209,-7,-153,161,126,112,107,117,151,112
-97,112,209,-7,-153,161,122,107,97,112,146,112
-92,102,195,-4,-143,148,112,87,92,102,141,107
-92,87,180,2,-136,134,102,73,73,92,126,97
-112,73,185,19,-148,129,112,73,78,92,126,97
-146,68,214,39,-180,141,117,73,82,92,126,97
-161,63,224,48,-192,143,122,73,87,92,126,92
-165,53,219,56,-192,136,122,73,92,92,117,92
-156,39,195,58,-175,117,126,73,82,82,112,78
-170,39,209,65,-190,124,136,73,82,82,107,78
-170,34,204,68,-187,119,136,73,78,78,102,73
-170,29,200,70,-185,114,141,68,78,78,97,68
-165,19,185,73,-175,102,151,68,87,82,97,63
-175,14,190,80,-183,102,161,68,87,78,97,58
-190,9,200,90,-195,104,165,73,92,78,97,58
-190,9,200,90,-195,104,165,73,92,78,97,58
-190,9,200,90,-195,104,165,82,92,78,97,58
-195,9,204,92,-200,107,165,87,92,78,97,53
-200,4,204,97,-202,104,170,87,92,82,97,53
-224,-4,219,114,-222,107,170,82,87,82,97,43
-214,-9,204,112,-209,97,161,63,73,63,82,29
-190,-9,180,100,-185,85,151,53,63,53,73,24
-180,-9,170,95,-175,80,146,53,63,43,63,19
-170,-9,161,90,-165,75,146,53,63,39,58,19
-185,0,185,92,-185,92,156,68,73,43,68,24
-185,-4,180,95,-183,87,156,68,73,48,68,29
-180,-4,175,92,-178,85,156,68,73,53,68,39
-180,-4,175,92,-178,85,156,73,73,63,73,43
-204,-9,195,107,-200,92,170,82,87,73,82,43
-209,-9,200,109,-204,95,170,82,87,73,82,43
-214,-9,204,112,-209,97,170,78,87,73,82,39
-219,-9,209,114,-214,100,170,78,87,73,82,39
-214,-9,204,112,-209,97,165,82,82,63,82,34
-209,-4,204,107,-207,100,161,78,78,63,82,34
-190,-4,185,97,-187,90,156,68,73,63,82,34
-175,-9,165,92,-170,78,151,63,63,58,78,29
-180,-9,170,95,-175,80,156,73,68,58,78,39
-195,-4,190,100,-192,92,161,73,73,63,78,39
-204,-4,200,104,-202,97,165,82,78,63,82,43
-209,-9,200,109,-204,95,170,82,82,63,82,43
-200,-9,190,104,-195,90,165,78,87,73,82,43
-200,-9,190,104,-195,90,161,78,87,73,87,43
-195,-9,185,102,-190,87,156,82,87,73,87,43
-190,-9,180,100,-185,85,151,82,87,73,87,43
-200,-9,190,104,-195,90,161,82,82,68,97,53
-200,-4,195,102,-197,95,161,78,82,73,102,53
-200,-4,195,102,-197,95,161,78,82,73,102,53
-204,-4,200,104,-202,97,165,82,87,73,102,58
-195,-4,190,100,-192,92,165,82,87,63,82,48
-180,-4,175,92,-178,85,165,82,78,58,78,39
-180,-4,175,92,-178,85,165,87,87,68,68,39
-180,-19,161,100,-170,70,185,92,97,73,78,34
-204,-19,185,112,-195,82,219,126,131,97,87,19
-234,-24,209,129,-222,92,258,190,175,131,97,19
-224,-24,200,124,-212,87,297,248,209,151,97,24
-200,0,200,100,-200,100,336,312,273,195,136,48
-190,43,234,73,-212,139,370,390,366,302,219,107
-170,87,258,41,-214,173,395,468,448,385,287,165
-126,122,248,2,-187,185,453,595,527,453,346,229
-78,195,273,-58,-175,234,522,741,663,580,458,322
-24,297,322,-136,-173,309,536,839,766,712,610,448
43,375,331,-209,-143,353,488,858,785,775,722,580
146,429,283,-287,-68,356,429,868,771,800,810,707
297,512,214,-405,41,363,341,839,741,829,907,829
409,619,209,-514,100,414,195,751,688,868,1024,971
453,688,234,-570,109,461,34,639,595,868,1107,1107
468,751,283,-610,92,517,-92,517,492,829,1161,1200
507,829,322,-668,92,575,-214,434,405,819,1210,1278
527,902,375,-714,75,639,-292,366,375,824,1239,1337
468,995,527,-732,-29,761,-307,268,346,814,1249,1351
395,1029,634,-712,-119,832,-326,170,307,775,1205,1317
366,883,517,-624,-75,700,-356,141,200,634,1029,1151
322,600,278,-461,21,439,-390,82,29,409,732,868
229,429,200,-329,14,314,-429,-87,-126,190,473,629
136,336,200,-236,-31,268,-453,-302,-278,4,283,448
14,200,185,-107,-85,192,-444,-478,-424,-195,68,248
-122,63,185,29,-153,124,-390,-663,-551,-375,-122,39
-185,9,195,87,-190,102,-356,-717,-575,-424,-190,-48
-200,-19,180,109,-190,80,-341,-624,-531,-380,-151,-48
-239,-73,165,156,-202,46,-283,-527,-488,-351,-146,-58
-248,-117,131,183,-190,7,-219,-458,-444,-351,-165,-97
-239,-117,122,178,-180,2,-165,-356,-370,-302,-141,-87
-244,-107,136,175,-190,14,-112,-253,-278,-224,-102,-63
-244,-92,151,168,-197,29,-53,-170,-190,-151,-68,-48
-248,-63,185,156,-217,61,4,-102,-112,-68,-19,-14
-248,-43,204,146,-226,80,53,-34,-43,-14,34,24
-224,-39,185,131,-204,73,82,4,-29,-9,43,34
-165,-29,136,97,-151,53,92,14,-24,-14,48,43
-165,-4,161,85,-163,78,102,34,9,24,82,63
-195,9,204,92,-200,107,122,63,53,58,97,78
-204,9,214,97,-209,112,136,82,73,58,97,73
-200,4,204,97,-202,104,141,97,82,58,87,63
-204,9,214,97,-209,112,161,107,92,78,97,63
-195,0,195,97,-195,97,151,102,87,68,87,48
-185,0,185,92,-185,92,151,97,82,68,87,48
-185,4,190,90,-187,97,151,92,73,68,92,48
-185,4,190,90,-187,97,156,82,68,68,92,48
-195,4,200,95,-197,102,156,82,78,68,92,48
-195,4,200,95,-197,102,161,92,82,73,97,53
-204,4,209,100,-207,107,170,97,97,78,97,53
-204,4,209,100,-207,107,170,102,112,82,97,53
-195,-4,190,100,-192,92,170,102,102,73,87,58
-185,-4,180,95,-183,87,170,102,102,73,87,58
-195,-9,185,102,-190,87,170,102,97,73,87,58
-195,-9,185,102,-190,87,170,97,97,78,87,63
-204,0,204,102,-204,102,175,107,112,82,92,73
-204,0,204,102,-204,102,175,107,117,87,97,68
-204,4,209,100,-207,107,170,112,117,92,102,68
-204,4,209,100,-207,107,170,122,117,102,107,73
-195,4,200,95,-197,102,161,131,107,92,107,63
-180,4,185,87,-183,95,161,126,102,87,107,63
-180,9,190,85,-185,100,161,126,102,87,112,63
-180,9,190,85,-185,100,161,131,107,92,117,63
-190,0,190,95,-190,95,151,126,102,87,117,58
-185,0,185,92,-185,92,151,122,102,87,112,58
-175,0,175,87,-175,87,151,117,107,87,107,58
-170,4,175,82,-173,90,151,112,107,87,102,63
-170,4,175,82,-173,90,161,112,117,97,107,63
-165,0,165,82,-165,82,161,117,112,97,102,58
-180,0,180,90,-180,90,161,117,112,92,102,58
-185,4,190,90,-187,97,161,122,112,92,107,63
-180,-4,175,92,-178,85,161,122,112,87,107,73
-180,-4,175,92,-178,85,161,122,112,87,107,73
-190,-9,180,100,-185,85,161,122,112,87,107,73
-195,-9,185,102,-190,87,161,122,112,92,107,78
-204,9,214,97,-209,112,161,122,107,102,112,92
-214,9,224,102,-219,117,161,126,112,107,117,92
-200,9,209,95,-204,109,161,126,112,107,117,87
-195,9,204,92,-200,107,161,126,107,102,107,87
-185,9,195,87,-190,102,161,126,107,102,117,78
-190,9,200,90,-195,104,161,126,107,102,117,82
-190,9,200,90,-195,104,161,126,107,102,117,82
-190,9,200,90,-195,104,161,126,107,102,117,82
-190,0,190,95,-190,95,156,117,112,97,122,82
-180,9,190,85,-185,100,151,117,112,97,122,82
-180,9,190,85,-185,100,146,117,107,92,117,82
-180,4,185,87,-183,95,141,117,107,92,117,82
-180,4,185,87,-183,95,151,117,122,97,117,87
-165,14,180,75,-173,97,146,117,122,97,117,87
-151,19,170,65,-161,95,141,117,117,97,112,87
-151,19,170,65,-161,95,141,117,117,97,112,87
-146,9,156,68,-151,82,131,117,112,87,107,78
-146,9,156,68,-151,82,131,117,112,87,107,78
-151,9,161,70,-156,85,136,117,107,92,117,82
-151,9,161,70,-156,85,136,117,102,92,117,82
-156,9,165,73,-161,87,126,107,102,92,117,82
-156,9,165,73,-161,87,126,107,102,97,117,82
-156,9,165,73,-161,87,126,107,107,97,117,87
-156,9,165,73,-161,87,126,107,117,97,117,97
-175,24,200,75,-187,112,131,122,126,107,126,107
-170,29,200,70,-185,114,131,122,122,112,131,107
-165,34,200,65,-183,117,131,117,122,112,136,107
-161,39,200,61,-180,119,136,117,122,117,141,107
-151,29,180,61,-165,104,136,131,112,112,136,107
-156,24,180,65,-168,102,131,131,122,117,146,112
-156,24,180,65,-168,102,122,126,112,112,136,112
-146,29,175,58,-161,102,112,126,112,102,136,112
-136,29,165,53,-151,97,112,117,112,102,126,117
-151,34,185,58,-168,109,112,126,117,102,131,112
-151,39,190,56,-170,114,112,131,122,112,141,112
-146,39,185,53,-165,112,112,131,122,112,141,112
-126,48,175,39,-151,112,97,131,112,112,141,122
-122,58,180,31,-151,119,97,131,117,112,146,126
-122,63,185,29,-153,124,102,136,117,122,151,131
-122,68,190,26,-156,129,102,141,122,126,161,136
-131,68,200,31,-165,134,107,141,126,136,170,136
-126,68,195,29,-161,131,102,136,126,136,170,136
-117,73,190,21,-153,131,97,136,131,136,170,141
-126,78,204,24,-165,141,97,146,146,141,170,146
-122,73,195,24,-158,134,87,136,141,131,175,151
-97,78,175,9,-136,126,82,141,136,131,180,156
-87,82,170,2,-129,126,73,141,131,136,185,156
-78,92,170,-7,-124,131,68,146,126,141,190,165
-73,107,180,-17,-126,143,78,156,136,151,195,175
-78,117,195,-19,-136,156,73,156,141,161,204,185
-78,122,200,-21,-139,161,73,161,151,165,204,195
-78,131,209,-26,-143,170,68,161,156,165,209,209
-78,131,209,-26,-143,170,68,161,161,170,224,219
-78,141,219,-31,-148,180,68,165,161,170,234,229
-78,151,229,-36,-153,190,58,170,156,170,239,234
-68,151,219,-41,-143,185,58,175,156,175,244,239
-58,151,209,-46,-134,180,48,185,151,180,253,244
-43,161,204,-58,-124,183,39,190,151,185,258,258
-39,170,209,-65,-124,190,29,195,151,195,268,263
-39,180,219,-70,-129,200,19,195,151,200,273,273
-29,190,219,-80,-124,204,14,195,161,214,283,287
-19,200,219,-90,-119,209,14,200,165,214,292,297
-14,209,224,-97,-119,217,14,204,180,224,312,312
-14,219,234,-102,-124,226,19,209,190,239,331,322
-24,239,263,-107,-143,251,4,204,190,234,336,326
-14,248,263,-117,-139,256,-4,209,190,234,336,331
14,258,244,-136,-114,251,-14,214,185,239,346,341
24,268,244,-146,-109,256,-29,219,180,244,346,346
24,273,248,-148,-112,261,-24,219,180,244,346,356
29,273,244,-151,-107,258,-29,219,180,248,346,361
39,268,229,-153,-95,248,-34,224,180,253,351,361
43,263,219,-153,-87,241,-34,224,180,258,351,366
53,258,204,-156,-75,231,-39,219,185,263,366,370
34,263,229,-148,-97,246,-39,224,195,268,380,390
34,268,234,-151,-100,251,-43,224,195,273,380,390
34,268,234,-151,-100,251,-48,224,195,273,380,390
29,283,253,-156,-112,268,-39,234,200,273,385,400
24,287,263,-156,-119,275,-39,234,200,273,390,405
19,287,268,-153,-124,278,-34,234,209,278,395,405
14,287,273,-151,-129,280,-34,239,209,278,395,405
19,273,253,-146,-117,263,-43,239,200,268,380,390
19,268,248,-143,-114,258,-39,239,200,268,375,385
14,263,248,-139,-117,256,-39,239,200,268,366,370
14,258,244,-136,-114,251,-34,234,195,268,361,361
4,248,244,-126,-119,246,-24,224,195,263,366,356
4,244,239,-124,-117,241,-24,224,195,263,366,346
-9,234,244,-112,-126,239,-14,224,195,263,356,341
-24,219,244,-97,-134,231,-4,224,200,258,351,336
-34,200,234,-82,-134,217,4,234,200,248,336,317
-39,195,234,-78,-136,214,14,224,195,248,317,302
-34,185,219,-75,-126,202,29,224,190,239,302,292
-48,165,214,-58,-131,190,39,219,190,229,287,278
-73,146,219,-36,-146,183,48,204,190,229,283,268
-87,136,224,-24,-156,180,53,200,190,219,273,248
-107,122,229,-7,-168,175,63,195,180,209,258,239
-117,112,229,2,-173,170,73,190,175,209,253,224
-112,92,204,9,-158,148,68,185,161,185,239,204
-107,82,190,12,-148,136,73,175,161,175,219,190
-126,73,200,26,-163,136,82,165,151,165,204,175
-126,58,185,34,-156,122,92,161,151,165,200,170
-151,58,209,46,-180,134,112,170,156,170,195,165
-161,43,204,58,-183,124,117,161,151,161,185,161
-175,34,209,70,-192,122,117,156,146,161,180,156
-180,19,200,80,-190,109,117,146,141,146,175,146
-185,14,200,85,-192,107,117,151,136,141,170,131
-190,0,190,95,-190,95,122,146,131,136,161,122
-185,-9,175,97,-180,82,122,141,117,126,146,107
-200,-9,190,104,-195,90,122,131,112,117,136,102
-204,-14,190,109,-197,87,126,117,112,97,122,87
-204,-24,180,114,-192,78,131,112,107,97,117,82
-200,-34,165,117,-183,65,136,112,107,97,117,78
-200,-34,165,117,-183,65,136,107,102,92,112,73
-200,-24,175,112,-187,75,136,102,107,92,102,73
-209,-34,175,122,-192,70,141,102,102,92,97,68
-214,-43,170,129,-192,63,141,92,102,87,97,68
-224,-43,180,134,-202,68,141,87,102,87,92,68
-229,-43,185,136,-207,70,131,92,102,97,92,73
-229,-48,180,139,-204,65,131,92,92,92,97,68
-234,-53,180,143,-207,63,131,87,87,87,97,63
-234,-58,175,146,-204,58,131,87,87,82,97,58
-214,-58,156,136,-185,48,122,73,73,73,87,48
-209,-63,146,136,-178,41,122,73,68,63,78,39
-204,-68,136,136,-170,34,122,73,68,58,73,39
-204,-68,136,136,-170,34,126,73,68,53,63,34
-214,-73,141,143,-178,34,136,58,68,53,63,34
-219,-78,141,148,-180,31,136,58,68,48,63,39
-224,-78,146,151,-185,34,136,58,68,48,68,39
-224,-82,141,153,-183,29,136,63,68,53,68,43
-214,-73,141,143,-178,34,136,73,73,68,73,43
-234,-73,161,153,-197,43,136,68,73,68,73,39
-234,-73,161,153,-197,43,136,68,68,63,73,39
-224,-73,151,148,-187,39,136,68,68,63,73,34
-219,-82,136,151,-178,26,126,63,73,63,73,34
-219,-87,131,153,-175,21,126,63,73,58,68,29
-204,-87,117,146,-161,14,126,58,68,53,68,24
-200,-92,107,146,-153,7,126,53,68,53,68,24
-204,-82,122,143,-163,19,126,48,63,43,58,24
-214,-82,131,148,-173,24,126,48,68,43,58,29
-219,-82,136,151,-178,26,126,48,68,43,58,29
-219,-82,136,151,-178,26,131,48,63,43,58,24
-214,-78,136,146,-175,29,131,53,63,53,58,24
-219,-78,141,148,-180,31,126,53,63,48,58,24
-224,-78,146,151,-185,34,126,53,58,48,58,24
-219,-78,141,148,-180,31,126,58,58,48,58,24
-200,-82,117,141,-158,17,126,48,58,39,58,24
-200,-82,117,141,-158,17,126,48,58,39,53,24
-200,-92,107,146,-153,7,131,48,58,39,53,24
-200,-92,107,146,-153,7,131,48,58,39,53,24
-214,-87,126,151,-170,19,131,53,53,43,58,29
-229,-87,141,158,-185,26,131,58,53,43,58,29
-224,-87,136,156,-180,24,131,63,53,43,58,29
-219,-87,131,153,-175,21,131,63,53,43,58,24
-214,-87,126,151,-170,19,131,53,58,43,48,14
-204,-87,117,146,-161,14,131,43,58,39,43,14
-219,-92,126,156,-173,17,131,43,58,39,43,19
-219,-92,126,156,-173,17,131,53,63,39,43,19
-224,-102,122,163,-173,9,131,43,58,29,34,9
-229,-102,126,165,-178,12,131,43,53,29,34,9
-214,-107,107,161,-161,0,131,43,39,29,34,4
-209,-107,102,158,-156,-2,131,43,34,29,34,4
-214,-97,117,156,-165,9,131,39,43,29,43,4
-214,-97,117,156,-165,9,131,34,43,24,34,4
-219,-102,117,161,-168,7,136,29,48,19,34,0
-219,-102,117,161,-168,7,136,24,48,19,39,0
-204,-112,92,158,-148,-9,126,34,48,19,39,4
-204,-112,92,158,-148,-9,126,34,48,19,34,4
-204,-112,92,158,-148,-9,126,34,48,19,34,4
-209,-112,97,161,-153,-7,126,34,43,24,34,4
-209,-97,112,153,-161,7,126,34,43,24,24,-4
-209,-97,112,153,-161,7,126,34,43,24,24,-4
-209,-97,112,153,-161,7,126,34,43,19,24,-4
-200,-97,102,148,-151,2,126,34,43,19,24,-4
-204,-102,102,153,-153,0,117,24,43,9,24,-4
-204,-102,102,153,-153,0,117,24,43,9,24,-4
-209,-102,107,156,-158,2,117,24,43,9,24,-4
-209,-102,107,156,-158,2,117,24,43,14,24,-9
-190,-102,87,146,-139,-7,107,14,39,4,14,-14
-185,-102,82,143,-134,-9,107,14,39,9,19,-14
-195,-102,92,148,-143,-4,117,14,34,9,19,-14
-180,-102,78,141,-129,-12,117,14,29,4,19,-19
-180,-102,78,141,-129,-12,117,19,29,14,24,-14
-185,-102,82,143,-134,-9,112,19,34,14,24,-14
-185,-102,82,143,-134,-9,112,19,39,9,24,-9
-190,-102,87,146,-139,-7,112,24,43,9,19,-4
-190,-102,87,146,-139,-7,112,34,34,19,19,-14
-195,-102,92,148,-143,-4,112,39,39,24,29,-9
-195,-102,92,148,-143,-4,112,43,39,24,29,-9
-195,-102,92,148,-143,-4,112,43,39,24,24,-9
-195,-97,97,146,-146,0,117,43,48,24,34,-4
-195,-87,107,141,-151,9,117,39,48,24,34,0
-200,-82,117,141,-158,17,122,39,48,34,39,9
-200,-73,126,136,-163,26,122,39,48,34,39,14
-185,-73,112,129,-148,19,107,34,39,24,29,9
-180,-78,102,129,-141,12,107,34,39,19,29,4
-170,-82,87,126,-129,2,107,34,43,19,34,0
-165,-87,78,126,-122,-4,107,34,43,24,34,-4
-180,-82,97,131,-139,7,117,43,53,34,43,4
-185,-82,102,134,-143,9,117,43,53,39,39,9
-180,-82,97,131,-139,7,117,43,53,39,39,9
-195,-82,112,139,-153,14,117,48,53,39,43,14
-195,-82,112,139,-153,14,112,53,53,39,48,24
-200,-78,122,139,-161,21,112,58,53,43,48,24
-200,-78,122,139,-161,21,112,58,53,43,48,24
-185,-78,107,131,-146,14,112,53,53,39,48,24
-185,-63,122,124,-153,29,102,53,48,39,39,24
-185,-63,122,124,-153,29,102,53,48,39,39,24
-175,-68,107,122,-141,19,97,53,48,43,43,24
-185,-68,117,126,-151,24,97,53,48,48,48,24
-190,-68,122,129,-156,26,107,53,58,58,58,34
-185,-68,117,126,-151,24,102,48,58,53,53,34
-190,-68,122,129,-156,26,102,48,58,53,53,34
-195,-68,126,131,-161,29,102,53,58,53,53,39
-190,-78,112,134,-151,17,92,53,48,43,43,34
-185,-78,107,131,-146,14,92,53,48,43,48,29
-180,-78,102,129,-141,12,92,53,53,43,48,29
-175,-78,97,126,-136,9,92,58,53,43,48,24
-165,-78,87,122,-126,4,87,48,43,34,39,24
-161,-78,82,119,-122,2,87,48,39,34,39,19
-161,-78,82,119,-122,2,87,48,39,34,39,19
-161,-78,82,119,-122,2,87,48,39,43,43,24
-161,-68,92,114,-126,12,87,39,48,43,43,24
-161,-68,92,114,-126,12,87,39,48,43,48,24
-161,-68,92,114,-126,12,87,39,48,43,48,24
-156,-68,87,112,-122,9,87,39,53,43,48,29
-151,-58,92,104,-122,17,82,29,43,39,43,29
-146,-58,87,102,-117,14,78,29,43,39,43,24
-141,-58,82,100,-112,12,73,24,43,34,39,19
-136,-58,78,97,-107,9,68,19,39,34,39,19
-136,-63,73,100,-104,4,68,29,48,34,39,9
-126,-73,53,100,-90,-9,68,29,43,34,39,9
-136,-78,58,107,-97,-9,68,29,43,34,39,14
-151,-87,63,119,-107,-12,73,34,48,34,43,14
-156,-78,78,117,-117,0,82,43,48,34,43,24
-151,-73,78,112,-114,2,82,43,48,34,43,24
-156,-73,82,114,-119,4,78,43,48,34,39,24
-161,-73,87,117,-124,7,78,43,48,34,39,24
-161,-78,82,119,-122,2,82,34,39,34,34,14
-156,-78,78,117,-117,0,82,34,39,34,34,14
-141,-78,63,109,-102,-7,73,29,34,29,29,9
-136,-82,53,109,-95,-14,73,29,34,29,29,9
-151,-82,68,117,-109,-7,78,29,34,24,43,9
-151,-82,68,117,-109,-7,78,24,34,24,43,9
-146,-82,63,114,-104,-9,78,24,34,19,39,9
-146,-82,63,114,-104,-9,78,24,34,19,39,9
-156,-82,73,119,-114,-4,78,29,34,34,39,19
-161,-82,78,122,-119,-2,78,34,39,34,39,24
-161,-82,78,122,-119,-2,73,39,39,34,39,24
-165,-82,82,124,-124,0,68,43,34,29,39,19
-165,-82,82,124,-124,0,68,43,34,29,39,14
-180,-82,97,131,-139,7,73,48,34,34,39,14
-185,-82,102,134,-143,9,78,48,34,34,43,19
-185,-82,102,134,-143,9,78,48,34,34,43,19
-185,-82,102,134,-143,9,78,43,48,34,43,19
-190,-82,107,136,-148,12,78,43,48,34,43,19
-190,-82,107,136,-148,12,78,43,48,34,43,19
-180,-82,97,131,-139,7,78,43,48,34,39,19
-161,-82,78,122,-119,-2,68,34,43,24,29,14
-161,-82,78,122,-119,-2,68,34,39,24,24,9
-151,-82,68,117,-109,-7,68,34,34,24,24,4
-141,-87,53,114,-97,-17,68,34,29,24,19,0
-161,-87,73,124,-117,-7,82,39,29,24,29,0
-175,-92,82,134,-129,-4,82,34,34,24,29,4
-190,-97,92,143,-141,-2,87,39,39,29,34,9
-204,-97,107,151,-156,4,92,48,43,34,39,14
-195,-87,107,141,-151,9,87,48,39,29,34,14
-185,-87,97,136,-141,4,87,43,39,29,34,14
-175,-87,87,131,-131,0,87,43,39,29,34,19
-170,-87,82,129,-126,-2,87,43,39,29,34,19
-170,-87,82,129,-126,-2,78,34,39,24,34,4
-156,-82,73,119,-114,-4,78,34,29,24,34,4
-156,-82,73,119,-114,-4,78,34,29,24,34,4
-161,-82,78,122,-119,-2,78,39,29,24,34,4
-170,-92,78,131,-124,-7,78,29,39,24,34,4
-170,-92,78,131,-124,-7,78,29,39,24,29,4
-170,-92,78,131,-124,-7,78,24,39,24,29,4
-170,-92,78,131,-124,-7,78,24,39,24,29,4
-175,-82,92,129,-134,4,78,29,34,39,34,4
-170,-82,87,126,-129,2,78,34,34,39,34,4
-165,-82,82,124,-124,0,78,39,34,39,34,4
-156,-82,73,119,-114,-4,78,39,34,29,29,4
-161,-87,73,124,-117,-7,78,39,43,29,29,4
-175,-87,87,131,-131,0,78,43,43,29,29,4
-180,-87,92,134,-136,2,78,43,43,29,29,4
-190,-87,102,139,-146,7,78,43,43,29,29,4
-190,-97,92,143,-141,-2,73,39,34,24,24,4
-180,-92,87,136,-134,-2,73,39,34,24,24,4
-175,-92,82,134,-129,-4,73,39,29,24,24,0
-175,-92,82,134,-129,-4,73,39,29,24,24,0
-156,-92,63,124,-109,-14,63,34,29,14,19,-4
-146,-92,53,119,-100,-19,58,34,24,14,19,-4
-141,-92,48,117,-95,-21,58,29,24,14,19,-4
-141,-92,48,117,-95,-21,58,29,24,14,14,-4
-131,-87,43,109,-87,-21,58,19,29,24,14,-4
-131,-87,43,109,-87,-21,58,24,29,24,14,-4
-131,-92,39,112,-85,-26,58,24,24,19,14,-9
-131,-92,39,112,-85,-26,58,24,24,19,14,-9
-131,-92,39,112,-85,-26,63,24,19,14,14,-14
-136,-92,43,114,-90,-24,63,24,19,14,14,-4
-141,-82,58,112,-100,-12,68,34,29,24,29,4
-126,-97,29,112,-78,-34,58,19,29,19,19,-9
-122,-97,24,109,-73,-36,58,19,19,9,14,-19
-117,-97,19,107,-68,-39,58,19,19,9,9,-19
-112,-97,14,104,-63,-41,58,19,19,9,4,-19
-107,-97,9,102,-58,-43,58,19,19,9,0,-19
-117,-92,24,104,-70,-34,58,29,19,19,4,-9
-117,-87,29,102,-73,-29,58,29,19,19,9,-9
-117,-82,34,100,-75,-24,58,29,19,19,14,-9
-117,-78,39,97,-78,-19,58,29,19,19,19,-9
-126,-87,39,107,-82,-24,58,39,19,9,19,-9
-126,-87,39,107,-82,-24,58,39,19,9,19,-9
-126,-87,39,107,-82,-24,58,39,19,9,19,-9
-126,-87,39,107,-82,-24,58,39,19,9,19,-9
-122,-97,24,109,-73,-36,48,29,9,0,14,-9
-117,-97,19,107,-68,-39,48,29,9,0,9,-9
-112,-97,14,104,-63,-41,48,29,9,0,4,-9
-107,-97,9,102,-58,-43,48,29,9,0,0,-9
-122,-97,24,109,-73,-36,58,39,19,9,4,-9
-126,-97,29,112,-78,-34,58,39,19,9,9,-9
-131,-97,34,114,-82,-31,58,39,19,9,14,-9
-136,-97,39,117,-87,-29,58,39,19,9,19,-9
-126,-87,39,107,-82,-24,58,29,19,19,19,0
-126,-87,39,107,-82,-24,58,29,19,19,19,0
-126,-87,39,107,-82,-24,58,29,19,19,19,0
-126,-87,39,107,-82,-24,58,29,19,19,19,0
-126,-78,48,102,-87,-14,58,29,29,19,29,-9
-126,-78,48,102,-87,-14,68,34,34,19,29,-4
-112,-68,43,90,-78,-12,73,39,34,24,29,-4
-97,-63,34,80,-65,-14,73,39,43,29,34,0
-112,-53,58,82,-85,2,78,58,43,34,34,14
-126,-53,73,90,-100,9,82,58,48,39,39,14
-122,-53,68,87,-95,7,87,58,48,39,39,14
-126,-48,78,87,-102,14,92,58,58,43,48,19
-102,-48,53,75,-78,2,97,58,48,39,53,24
-87,-43,43,65,-65,0,97,68,53,43,48,24
-73,-34,39,53,-56,2,92,68,58,53,48,24
-63,-29,34,46,-48,2,82,68,58,53,48,19
-68,-9,58,39,-63,24,92,73,73,68,63,29
-78,-9,68,43,-73,29,97,78,78,73,63,39
-87,-9,78,48,-82,34,102,87,87,78,68,43
-97,-4,92,51,-95,43,102,97,87,78,68,48
-102,4,107,48,-104,56,122,107,97,87,78,58
-107,4,112,51,-109,58,122,107,97,97,87,58
-102,4,107,48,-104,56,112,107,97,87,78,58
-92,-4,87,48,-90,41,107,107,97,87,78,58
-87,-9,78,48,-82,34,97,117,87,78,73,53
-73,-9,63,41,-68,26,92,126,97,87,78,58
-53,-4,48,29,-51,21,87,136,97,97,87,68
-48,0,48,24,-48,24,78,136,107,97,97,78
-39,29,68,4,-53,48,73,126,112,107,102,78
-34,43,78,-4,-56,61,73,126,112,112,112,82
-24,63,87,-19,-56,75,48,117,112,112,117,92
-9,63,73,-26,-41,68,24,112,102,112,117,92
14,58,43,-36,-14,51,0,97,92,97,102,82
9,48,39,-29,-14,43,-9,92,87,87,92,82
0,29,29,-14,-14,29,-14,82,68,73,87,78
4,24,19,-14,-7,21,-14,78,58,63,78,73
-14,19,34,-2,-24,26,0,87,58,73,78,73
-24,4,29,9,-26,17,0,87,58,73,82,73
-43,-4,39,24,-41,17,4,87,58,68,82,78
-58,-4,53,31,-56,24,14,82,53,63,87,78
-78,-14,63,46,-70,24,24,92,63,73,87,78
-78,-9,68,43,-73,29,24,92,63,73,87,78
-82,-4,78,43,-80,36,24,82,58,68,82,73
-87,-4,82,46,-85,39,24,78,48,63,78,73
-82,-14,68,48,-75,26,14,43,39,48,68,63
-82,-29,53,56,-68,12,4,24,14,34,48,48
-82,-43,39,63,-61,-2,0,19,9,19,34,34
-107,-48,58,78,-82,4,0,14,4,14,29,29
-112,-48,63,80,-87,7,4,24,4,24,39,34
-107,-53,53,80,-80,0,4,24,4,24,29,34
-102,-53,48,78,-75,-2,9,24,4,24,29,29
-112,-48,63,80,-87,7,19,24,4,24,29,29
-117,-53,63,85,-90,4,19,34,9,19,29,24
-122,-58,63,90,-92,2,24,29,9,19,29,19
-131,-68,63,100,-97,-2,24,29,9,14,24,14
-146,-73,73,109,-109,0,34,29,9,9,19,9
-170,-82,87,126,-129,2,43,43,24,19,24,19
-180,-87,92,134,-136,2,48,43,24,19,19,19
-185,-102,82,143,-134,-9,53,43,24,19,19,19
-195,-107,87,151,-141,-9,58,48,24,19,19,14
-180,-107,73,143,-126,-17,53,48,14,24,19,14
-195,-112,82,153,-139,-14,53,43,9,24,19,4
-190,-112,78,151,-134,-17,48,34,4,9,9,0
-170,-107,63,139,-117,-21,43,24,-4,4,4,-4
-175,-117,58,146,-117,-29,43,24,-4,0,0,-9
-180,-117,63,148,-122,-26,48,24,-4,0,0,-9
-200,-117,82,158,-141,-17,48,29,-4,0,0,-9
-204,-122,82,163,-143,-19,48,29,-4,0,0,-9
-195,-122,73,158,-134,-24,48,19,-4,0,-9,-14
-190,-122,68,156,-129,-26,48,24,-4,4,-4,-14
-195,-126,68,161,-131,-29,53,24,0,4,-4,-14
-190,-126,63,158,-126,-31,53,24,0,4,-4,-14
-190,-126,63,158,-126,-31,63,29,0,4,4,-9
-190,-126,63,158,-126,-31,63,29,0,4,4,-9
-200,-126,73,163,-136,-26,63,39,0,4,4,-4
-200,-122,78,161,-139,-21,63,39,0,4,4,-4
-195,-112,82,153,-139,-14,53,34,9,4,4,-4
-185,-117,68,151,-126,-24,53,34,4,0,0,-9
-185,-117,68,151,-126,-24,53,34,4,0,0,-9
-195,-112,82,153,-139,-14,53,34,4,4,0,-9
-209,-122,87,165,-148,-17,53,34,4,4,4,-4
-209,-126,82,168,-146,-21,53,34,4,4,4,-4
-209,-126,82,168,-146,-21,53,29,9,4,4,-4
-209,-126,82,168,-146,-21,53,29,9,4,9,-4
-200,-117,82,158,-141,-17,53,43,9,4,9,-4
-190,-117,73,153,-131,-21,53,43,9,4,9,-4
-185,-117,68,151,-126,-24,53,43,14,9,9,-4
-180,-112,68,146,-124,-21,53,39,14,14,14,-4
-170,-122,48,146,-109,-36,43,39,4,4,9,-14
-175,-122,53,148,-114,-34,48,43,9,4,4,-9
-175,-122,53,148,-114,-34,48,43,9,4,0,-9
-170,-122,48,146,-109,-36,48,43,9,0,-9,-9
-170,-122,48,146,-109,-36,58,39,9,9,-9,-9
-209,-126,82,168,-146,-21,87,63,29,24,0,-4
-224,-126,97,175,-161,-14,122,87,63,39,0,-9
-253,-131,122,192,-187,-4,161,141,97,63,19,-9
-253,-131,122,192,-187,-4,200,200,141,82,29,-4
-219,-126,92,173,-156,-17,219,263,175,117,39,0
-200,-102,97,151,-148,-2,244,331,239,175,82,29
-200,-58,141,129,-170,41,297,419,322,268,161,87
-165,-4,161,85,-163,78,366,536,439,366,258,161
-117,58,175,29,-146,117,444,692,556,473,351,244
-73,122,195,-24,-134,158,488,800,658,585,453,351
14,219,204,-117,-95,212,448,810,697,658,556,463
136,302,165,-219,-14,234,361,800,692,702,653,590
239,366,126,-302,56,246,263,800,653,732,751,712
351,463,112,-407,119,287,107,712,580,751,849,844
492,561,68,-527,212,314,-102,551,448,712,912,941
575,614,39,-595,268,326,-287,409,326,663,956,1015
566,663,97,-614,234,380,-390,356,268,673,1005,1112
566,736,170,-651,197,453,-439,336,268,707,1073,1190
556,819,263,-688,146,541,-463,229,248,697,1083,1224
512,893,380,-702,65,636,-492,102,200,668,1058,1210
453,824,370,-639,41,597,-531,63,131,585,971,1132
370,570,200,-470,85,385,-556,43,-9,390,722,907
258,331,73,-295,92,202,-575,-78,-175,161,444,639
165,209,43,-187,61,126,-619,-283,-317,-24,244,448
92,112,19,-102,36,65,-629,-478,-453,-204,58,268
-14,-24,-9,19,-2,-17,-575,-634,-590,-385,-131,68
-107,-107,0,107,-53,-53,-531,-736,-663,-492,-258,-68
-151,-136,14,143,-82,-61,-507,-702,-639,-478,-258,-87
-209,-170,39,190,-124,-65,-429,-575,-566,-419,-224,-78
-258,-204,53,231,-156,-75,-356,-488,-502,-390,-224,-107
-229,-224,4,226,-117,-109,-302,-414,-448,-361,-219,-126
-204,-204,0,204,-102,-102,-248,-312,-356,-292,-170,-102
-214,-190,24,202,-119,-82,-170,-209,-268,-209,-126,-87
-209,-170,39,190,-124,-65,-112,-141,-180,-146,-87,-63
-209,-141,68,175,-139,-36,-63,-73,-122,-92,-43,-24
-214,-117,97,165,-156,-9,-24,-24,-68,-48,-14,14
-195,-97,97,146,-146,0,4,-4,-53,-24,9,24
-185,-82,102,134,-143,9,14,14,-48,-24,24,34
-175,-78,97,126,-136,9,24,24,-34,-9,19,39
-175,-78,97,126,-136,9,29,43,-14,-9,19,34
-170,-73,97,122,-134,12,43,68,4,0,19,24
-185,-87,97,136,-141,4,63,78,14,9,9,14
-180,-87,92,134,-136,2,63,78,14,19,9,19
-175,-87,87,131,-131,0,63,78,14,19,9,19
-180,-82,97,131,-139,7,63,78,9,19,14,19
-185,-82,102,134,-143,9,68,73,9,19,14,19
-185,-82,102,134,-143,9,68,73,9,9,24,19
-185,-82,102,134,-143,9,73,82,14,14,29,24
-195,-82,112,139,-153,14,82,87,29,19,29,24
-195,-82,112,139,-153,14,82,92,43,24,29,24
-170,-82,87,126,-129,2,73,97,34,24,19,9
-156,-82,73,119,-114,-4,73,92,34,24,19,9
-161,-87,73,124,-117,-7,73,87,29,24,19,9
-156,-87,68,122,-112,-9,73,78,29,29,19,14
-170,-78,92,124,-131,7,87,82,43,39,29,19
-175,-78,97,126,-136,9,87,87,48,39,29,19
-180,-73,107,126,-143,17,82,97,48,39,29,24
-185,-73,112,129,-148,19,82,112,48,43,29,34
-190,-82,107,136,-148,12,92,122,53,53,39,34
-180,-82,97,131,-139,7,92,117,53,48,39,34
-185,-78,107,131,-146,14,92,117,58,48,43,34
-190,-78,112,134,-151,17,92,122,68,53,48,34
-190,-78,112,134,-151,17,82,117,68,48,48,39
-185,-78,107,131,-146,14,82,112,63,48,43,39
-175,-78,97,126,-136,9,82,107,63,48,39,39
-170,-73,97,122,-134,12,82,102,58,48,34,43
-165,-73,92,119,-129,9,82,102,58,48,39,34
-156,-78,78,117,-117,0,82,107,53,48,34,29
-165,-78,87,122,-126,4,82,107,53,43,34,29
-165,-73,92,119,-129,9,82,112,53,43,39,34
-151,-73,78,112,-114,2,82,122,53,48,39,34
-151,-73,78,112,-114,2,82,122,53,48,39,34
-161,-78,82,119,-122,2,82,122,53,48,39,34
-165,-78,87,122,-126,4,82,122,53,53,39,39
-165,-68,97,117,-131,14,92,112,68,53,53,43
-175,-68,107,122,-141,19,92,117,73,58,58,43
-161,-68,92,114,-126,12,92,117,73,58,58,39
-156,-68,87,112,-122,9,92,117,68,53,48,39
-151,-63,87,107,-119,12,82,107,58,43,39,29
-151,-58,92,104,-122,17,82,107,58,43,39,34
-146,-53,92,100,-119,19,82,107,58,43,39,34
-141,-48,92,95,-117,21,82,107,58,43,39,34
-156,-58,97,107,-126,19,82,112,63,58,53,39
-151,-48,102,100,-126,26,82,117,63,58,53,43
-156,-48,107,102,-131,29,82,122,58,53,48,48
-161,-53,107,107,-134,26,82,126,58,53,48,53
-170,-63,107,117,-139,21,73,126,63,48,58,48
-156,-53,102,104,-129,24,68,126,63,48,58,48
-141,-48,92,95,-117,21,63,126,58,48,53,48
-141,-48,92,95,-117,21,63,126,58,48,53,48
-136,-39,97,87,-117,29,63,126,58,48,48,48
-136,-39,97,87,-117,29,63,126,63,48,48,48
-141,-39,102,90,-122,31,68,126,63,53,58,53
-141,-39,102,90,-122,31,68,126,63,53,58,53
-146,-29,117,87,-131,43,68,126,63,63,63,63
-146,-29,117,87,-131,43,68,126,63,68,68,63
-146,-29,117,87,-131,43,68,126,68,68,73,68
-146,-29,117,87,-131,43,68,126,78,68,78,78
-156,-29,126,92,-141,48,58,122,68,63,78,73
-141,-29,112,85,-126,41,53,122,63,63,73,68
-126,-29,97,78,-112,34,48,117,63,58,68,63
-112,-29,82,70,-97,26,48,117,63,58,63,58
-112,-24,87,68,-100,31,63,122,63,58,68,68
-117,-24,92,70,-104,34,63,122,73,68,78,73
-117,-19,97,68,-107,39,58,117,63,68,68,73
-107,-9,97,58,-102,43,53,117,63,63,68,73
-117,-19,97,68,-107,39,53,126,73,68,73,82
-131,-14,117,73,-124,51,53,136,78,73,82,82
-131,-9,122,70,-126,56,53,141,82,87,97,87
-126,-9,117,68,-122,53,53,141,82,92,102,92
-112,-4,107,58,-109,51,39,131,73,87,97,82
-102,0,102,51,-102,51,39,131,78,82,97,87
-97,0,97,48,-97,48,43,136,78,87,97,92
-92,0,92,46,-92,46,43,141,82,87,102,97
-87,4,92,41,-90,48,39,141,82,87,102,97
-78,9,87,34,-82,48,34,136,78,87,102,97
-63,19,82,21,-73,51,29,136,78,87,102,102
-68,29,97,19,-82,63,29,146,87,92,102,107
-73,34,107,19,-90,70,39,146,97,92,117,122
-58,39,97,9,-78,68,34,151,97,92,122,126
-58,43,102,7,-80,73,24,151,97,97,126,126
-58,53,112,2,-85,82,19,156,97,102,131,136
-39,63,102,-12,-70,82,9,165,92,102,126,141
-39,68,107,-14,-73,87,4,165,92,112,136,146
-34,68,102,-17,-68,85,4,170,97,117,136,151
-29,73,102,-21,-65,87,0,170,97,117,141,161
-19,92,112,-36,-65,102,-9,180,107,141,156,170
-9,102,112,-46,-61,107,-9,185,112,141,165,180
0,112,112,-56,-56,112,-19,190,112,141,170,185
19,112,92,-65,-36,102,-19,195,117,146,175,190
24,122,97,-73,-36,109,-14,195,122,151,195,204
34,131,97,-82,-31,114,-19,200,122,156,200,219
34,141,107,-87,-36,124,-24,204,122,165,209,224
29,151,122,-90,-46,136,-29,204,122,170,214,234
48,161,112,-104,-31,136,-48,195,117,170,214,224
68,170,102,-119,-17,136,-53,200,117,165,214,229
82,180,97,-131,-7,139,-58,204,126,170,224,239
92,190,97,-141,-2,143,-58,209,131,180,234,244
68,200,131,-134,-31,165,-48,214,141,190,258,263
73,209,136,-141,-31,173,-53,219,151,195,258,273
97,219,122,-158,-12,170,-58,224,156,204,268,287
102,229,126,-165,-12,178,-68,229,161,214,268,297
102,239,136,-170,-17,187,-73,229,161,214,273,307
107,244,136,-175,-14,190,-78,229,161,219,278,312
117,244,126,-180,-4,185,-82,234,161,224,287,312
122,244,122,-183,0,183,-82,234,161,229,292,317
122,248,126,-185,-2,187,-87,239,156,224,297,322
102,253,151,-178,-24,202,-87,244,165,229,312,341
102,258,156,-180,-26,207,-92,244,165,234,312,341
102,258,156,-180,-26,207,-97,244,165,234,312,341
117,258,141,-187,-12,200,-107,234,161,224,312,331
122,258,136,-190,-7,197,-107,234,161,224,312,336
126,253,126,-190,0,190,-102,234,170,229,312,336
131,248,117,-190,7,183,-102,239,170,229,307,336
131,253,122,-192,4,187,-92,229,161,229,297,326
136,248,112,-192,12,180,-87,229,161,229,297,326
136,244,107,-190,14,175,-87,229,161,229,292,317
141,239,97,-190,21,168,-82,224,156,229,292,312
131,229,97,-180,17,163,-82,229,165,224,287,317
122,224,102,-173,9,163,-82,234,165,224,287,307
97,214,117,-156,-9,165,-73,239,165,224,278,302
73,200,126,-136,-26,163,-63,244,170,219,273,297
58,180,122,-119,-31,151,-48,234,161,209,263,278
58,175,117,-117,-29,146,-43,224,156,209,248,263
68,165,97,-117,-14,131,-34,224,151,200,239,253
58,146,87,-102,-14,117,-29,219,151,190,229,239
34,136,102,-85,-34,119,-29,214,151,190,219,239
19,126,107,-73,-43,117,-24,209,151,180,214,219
0,112,112,-56,-56,112,-14,204,141,170,204,209
-9,102,112,-46,-61,107,-4,200,136,170,204,195
0,82,82,-41,-41,82,0,204,131,156,190,185
0,73,73,-36,-36,73,4,195,131,146,170,170
-24,63,87,-19,-56,75,14,185,122,136,156,156
-29,48,78,-9,-53,63,24,180,122,136,151,151
-34,48,82,-7,-58,65,34,175,117,131,151,141
-43,34,78,4,-61,56,39,161,112,122,136,131
-58,24,82,17,-70,53,39,151,107,122,126,122
-63,9,73,26,-68,41,39,136,102,107,117,107
-63,-4,58,34,-61,26,39,131,97,102,102,102
-63,-19,43,41,-53,12,43,126,92,97,92,92
-53,-29,24,41,-39,-2,43,122,78,87,78,78
-63,-29,34,46,-48,2,43,112,73,78,68,73
-87,-24,63,56,-75,19,48,107,73,78,73,78
-97,-34,63,65,-80,14,53,102,68,78,68,73
-102,-43,58,73,-80,7,58,102,68,78,68,68
-112,-43,68,78,-90,12,58,97,63,73,63,63
-102,-48,53,75,-78,2,58,82,48,58,43,48
-112,-63,48,87,-80,-7,63,82,43,53,39,39
-117,-78,39,97,-78,-19,63,73,43,43,39,34
-126,-82,43,104,-85,-19,63,68,43,39,34,29
-126,-78,48,102,-87,-14,73,68,48,43,34,29
-122,-78,43,100,-82,-17,73,73,43,43,39,29
-122,-78,43,100,-82,-17,73,73,43,43,39,29
-117,-78,39,97,-78,-19,73,78,48,43,39,29
-117,-68,48,92,-82,-9,78,73,53,39,34,39
-122,-73,48,97,-85,-12,82,73,48,34,29,29
-126,-78,48,102,-87,-14,87,73,48,34,29,29
-136,-78,58,107,-97,-9,97,73,48,34,24,24
-136,-87,48,112,-92,-19,92,58,43,24,14,19
-131,-87,43,109,-87,-21,87,58,39,19,14,19
-126,-82,43,104,-85,-19,82,58,34,19,19,14
-117,-82,34,100,-75,-24,78,63,29,24,19,14
-112,-82,29,97,-70,-26,87,53,34,29,24,14
-136,-82,53,109,-95,-14,87,48,34,29,24,9
-141,-82,58,112,-100,-12,87,48,29,24,24,9
-136,-82,53,109,-95,-14,87,48,29,24,24,4
-131,-73,58,102,-95,-7,78,53,34,34,24,14
-131,-78,53,104,-92,-12,78,53,34,29,19,9
-117,-78,39,97,-78,-19,78,48,29,24,19,4
-112,-82,29,97,-70,-26,78,43,29,24,19,4
-122,-92,29,107,-75,-31,87,53,34,34,29,9
-136,-92,43,114,-90,-24,87,58,39,34,29,19
-146,-92,53,119,-100,-19,87,63,39,34,29,24
-151,-92,58,122,-104,-17,92,68,34,34,29,24
-136,-97,39,117,-87,-29,92,68,24,29,19,19
-141,-97,43,119,-92,-26,87,63,24,19,19,14
-146,-97,48,122,-97,-24,87,58,19,14,19,9
-141,-97,43,119,-92,-26,87,58,19,9,19,4
-126,-82,43,104,-85,-19,87,53,19,9,19,4
-122,-82,39,102,-80,-21,87,48,19,9,14,4
-117,-92,24,104,-70,-34,92,43,19,9,14,4
-112,-92,19,102,-65,-36,92,39,19,9,14,4
-126,-87,39,107,-82,-24,92,43,24,14,19,9
-141,-87,53,114,-97,-17,92,48,24,14,19,9
-136,-87,48,112,-92,-19,92,53,24,14,19,9
-131,-87,43,109,-87,-21,92,53,24,14,19,4
-117,-87,29,102,-73,-29,82,43,9,14,9,4
-107,-87,19,97,-63,-34,82,34,9,9,4,4
-122,-92,29,107,-75,-31,82,34,9,9,4,9
-122,-92,29,107,-75,-31,82,43,14,9,4,9
-131,-92,39,112,-85,-26,92,53,24,9,14,9
-141,-92,48,117,-95,-21,92,53,24,9,14,9
-131,-97,34,114,-82,-31,92,53,14,9,14,4
-131,-97,34,114,-82,-31,92,53,14,9,14,4
-136,-87,48,112,-92,-19,92,48,14,19,14,4
-136,-87,48,112,-92,-19,92,43,14,14,4,4
-141,-92,48,117,-95,-21,97,39,19,9,4,0
-141,-92,48,117,-95,-21,97,34,19,9,9,0
-146,-92,53,119,-100,-19,97,43,19,19,19,4
-146,-92,53,119,-100,-19,97,43,19,19,14,4
-146,-92,53,119,-100,-19,97,43,19,19,14,4
-151,-92,58,122,-104,-17,97,43,14,24,14,4
-161,-92,68,126,-114,-12,97,53,14,14,14,4
-161,-97,63,129,-112,-17,97,53,14,14,14,4
-161,-102,58,131,-109,-21,97,53,14,9,14,4
-151,-107,43,129,-97,-31,97,53,14,9,14,4
-136,-102,34,119,-85,-34,97,43,24,9,4,4
-136,-102,34,119,-85,-34,97,43,24,9,4,4
-141,-102,39,122,-90,-31,97,43,24,9,4,4
-141,-102,39,122,-90,-31,97,43,24,14,4,0
-151,-102,48,126,-100,-26,107,53,24,14,14,9
-156,-102,53,129,-104,-24,107,53,29,19,19,14
-175,-102,73,139,-124,-14,117,53,29,19,19,19
-170,-102,68,136,-119,-17,117,53,29,14,19,19
-156,-102,53,129,-104,-24,112,53,14,4,4,14
-146,-102,43,124,-95,-29,102,48,14,4,4,4
-131,-102,29,117,-80,-36,97,43,14,0,4,0
-122,-102,19,112,-70,-41,92,43,14,0,0,-4
-136,-92,43,114,-90,-24,102,53,19,4,9,0
-146,-92,53,119,-100,-19,102,58,29,14,19,9
-151,-92,58,122,-104,-17,102,63,34,19,19,14
-156,-92,63,124,-109,-14,102,63,39,24,14,19
-141,-92,48,117,-95,-21,97,58,34,14,4,14
-136,-87,48,112,-92,-19,97,48,29,14,4,9
-136,-87,48,112,-92,-19,102,43,24,24,9,9
-131,-82,48,107,-90,-17,102,39,19,24,9,4
-141,-87,53,114,-97,-17,97,43,24,24,9,4
-141,-87,53,114,-97,-17,97,43,29,19,9,4
-136,-87,48,112,-92,-19,97,43,39,19,14,4
-136,-87,48,112,-92,-19,97,43,43,24,14,4
-136,-92,43,114,-90,-24,97,53,39,14,14,9
-136,-92,43,114,-90,-24,97,53,34,19,9,9
-126,-92,34,109,-80,-29,97,53,29,19,9,4
-136,-92,43,114,-90,-24,97,58,24,19,14,4
-146,-82,63,114,-104,-9,102,63,34,29,19,14
-151,-78,73,114,-112,-2,102,68,34,34,19,14
-151,-78,73,114,-112,-2,102,68,34,34,19,14
-136,-78,58,107,-97,-9,102,63,34,29,19,14
-136,-63,73,100,-104,4,102,63,39,29,19,14
-136,-63,73,100,-104,4,102,63,39,29,19,14
-126,-68,58,97,-92,-4,97,63,39,34,24,14
-136,-68,68,102,-102,0,97,63,39,39,29,14
-136,-68,68,102,-102,0,97,63,39,39,29,14
-126,-68,58,97,-92,-4,92,58,39,34,24,14
-126,-68,58,97,-92,-4,92,58,39,34,24,14
-126,-68,58,97,-92,-4,92,63,39,34,24,19
-126,-68,58,97,-92,-4,92,73,39,34,24,19
-126,-68,58,97,-92,-4,92,73,39,34,29,19
-126,-68,58,97,-92,-4,92,73,43,34,29,24
-126,-68,58,97,-92,-4,92,78,43,34,29,24
-136,-68,68,102,-102,0,87,68,43,34,29,34
-131,-68,63,100,-97,-2,87,68,39,34,29,29
-131,-68,63,100,-97,-2,87,68,39,34,29,29
-131,-68,63,100,-97,-2,87,68,39,43,34,34
-141,-58,82,100,-112,12,97,78,48,43,43,34
-141,-58,82,100,-112,12,97,78,48,43,48,34
-141,-58,82,100,-112,12,97,78,48,43,48,34
-136,-58,78,97,-107,9,97,78,53,43,48,39
-122,-58,63,90,-92,2,87,68,48,39,34,29
-117,-58,58,87,-87,0,87,68,43,39,34,24
-112,-58,53,85,-82,-2,87,63,39,34,29,19
-107,-58,48,82,-78,-4,87,58,29,34,29,19
-117,-58,58,87,-87,0,78,58,39,34,29,19
-107,-63,43,85,-75,-9,78,58,34,34,29,19
-117,-63,53,90,-85,-4,78,58,34,34,29,24
-131,-68,63,100,-97,-2,82,63,39,34,34,24
-122,-78,43,100,-82,-17,82,58,29,24,24,14
-112,-73,39,92,-75,-17,82,53,29,24,24,14
-112,-73,39,92,-75,-17,78,48,29,24,19,14
-112,-73,39,92,-75,-17,78,43,29,24,19,14
-126,-68,58,97,-92,-4,92,48,34,34,34,24
-126,-68,58,97,-92,-4,92,53,39,34,34,24
-117,-68,48,92,-82,-9,82,53,39,29,29,19
-117,-73,43,95,-80,-14,82,58,43,29,29,19
-112,-63,48,87,-80,-7,78,48,34,34,34,19
-112,-63,48,87,-80,-7,78,43,34,34,34,19
-107,-63,43,85,-75,-9,78,43,34,29,29,19
-107,-63,43,85,-75,-9,78,43,34,29,29,19
-126,-73,53,100,-90,-9,87,53,43,34,29,29
-131,-73,58,102,-95,-7,87,53,48,34,29,34
-131,-73,58,102,-95,-7,82,53,48,34,29,34
-136,-73,63,104,-100,-4,78,53,43,29,29,29
-126,-82,43,104,-85,-19,78,63,34,19,29,24
-141,-82,58,112,-100,-12,82,68,34,24,29,24
-146,-82,63,114,-104,-9,87,68,34,24,34,29
-146,-82,63,114,-104,-9,87,68,34,24,34,29
-141,-82,58,112,-100,-12,87,63,29,34,24,19
-141,-82,58,112,-100,-12,87,63,29,34,24,19
-136,-82,53,109,-95,-14,87,63,29,34,24,19
-122,-82,39,102,-80,-21,87,63,29,34,19,19
-122,-82,39,102,-80,-21,78,53,29,24,14,9
-131,-82,48,107,-90,-17,78,53,29,24,14,9
-131,-82,48,107,-90,-17,78,53,29,24,19,9
-131,-87,43,109,-87,-21,78,53,29,24,19,9
-136,-82,53,109,-95,-14,82,63,29,24,19,9
-136,-82,53,109,-95,-14,82,53,34,24,19,14
-136,-82,53,109,-95,-14,87,53,39,29,24,19
-136,-78,58,107,-97,-9,92,58,43,34,29,24
-136,-78,58,107,-97,-9,87,68,39,39,34,24
-136,-78,58,107,-97,-9,87,63,39,39,34,24
-136,-78,58,107,-97,-9,87,63,39,39,34,29
-141,-78,63,109,-102,-7,87,63,39,39,34,29
-136,-87,48,112,-92,-19,78,58,29,24,29,14
-117,-82,34,100,-75,-24,78,53,19,24,24,14
-112,-82,29,97,-70,-26,78,48,19,24,19,14
-112,-82,29,97,-70,-26,78,48,19,24,14,14
-122,-82,39,102,-80,-21,78,48,29,24,24,14
-122,-82,39,102,-80,-21,78,48,29,24,19,14
-122,-82,39,102,-80,-21,78,43,29,24,19,14
-122,-82,39,102,-80,-21,78,43,29,24,19,14
-141,-82,58,112,-100,-12,87,53,34,29,24,14
-141,-82,58,112,-100,-12,87,53,34,29,24,14
-141,-82,58,112,-100,-12,87,53,34,29,24,14
-136,-82,53,109,-95,-14,87,48,34,19,19,14
-141,-87,53,114,-97,-17,97,58,34,29,19,24
-156,-87,68,122,-112,-9,97,63,34,29,19,24
-161,-87,73,124,-117,-7,97,63,34,29,19,24
-170,-87,82,129,-126,-2,97,63,34,29,19,24
-151,-87,63,119,-107,-12,97,58,24,24,24,14
-131,-82,48,107,-90,-17,92,58,24,24,24,14
-117,-82,34,100,-75,-24,87,58,19,24,24,9
-107,-82,24,95,-65,-29,82,58,19,24,24,9
-107,-82,24,95,-65,-29,82,53,29,24,19,14
-107,-82,24,95,-65,-29,78,53,24,24,19,14
-112,-82,29,97,-70,-26,78,48,24,24,19,14
-122,-82,39,102,-80,-21,78,48,24,24,14,14
-112,-78,34,95,-73,-21,78,39,29,24,14,14
-112,-78,34,95,-73,-21,78,43,29,24,14,14
-112,-82,29,97,-70,-26,78,43,24,19,14,9
-112,-82,29,97,-70,-26,78,43,24,19,14,9
-141,-82,58,112,-100,-12,92,63,29,24,24,24
-136,-73,63,104,-100,-4,82,53,29,34,24,24
-112,-73,39,92,-75,-17,78,53,19,24,19,24
-97,-68,29,82,-63,-19,78,58,19,19,19,19
-112,-78,34,95,-73,-21,87,68,24,24,29,29
-126,-78,48,102,-87,-14,87,68,29,29,29,29
-141,-78,63,109,-102,-7,87,68,34,34,29,29
-156,-78,78,117,-117,0,87,68,39,39,29,29
-151,-87,63,119,-107,-12,78,63,29,34,19,19
-146,-87,58,117,-102,-14,78,58,29,29,19,19
-141,-87,53,114,-97,-17,78,53,29,24,19,19
-136,-87,48,112,-92,-19,78,48,29,19,19,19
-126,-87,39,107,-82,-24,78,48,29,19,19,9
-126,-87,39,107,-82,-24,78,48,29,19,19,9
-126,-87,39,107,-82,-24,78,48,29,19,19,9
-126,-87,39,107,-82,-24,78,48,29,19,19,9
-126,-78,48,102,-87,-14,78,48,29,29,19,19
-126,-78,48,102,-87,-14,78,48,29,29,19,19
-126,-78,48,102,-87,-14,78,48,29,29,19,19
-126,-78,48,102,-87,-14,78,48,29,29,19,19
-136,-78,58,107,-97,-9,87,58,39,29,19,19
-136,-78,58,107,-97,-9,87,58,39,29,19,19
-136,-78,58,107,-97,-9,87,58,39,29,19,19
-136,-78,58,107,-97,-9,87,58,39,29,19,19
-122,-87,34,104,-78,-26,82,53,29,19,9,14
-117,-87,29,102,-73,-29,78,48,29,19,9,9
-112,-87,24,100,-68,-31,73,43,29,19,9,4
-107,-87,19,97,-63,-34,68,39,29,19,9,0
-122,-87,34,104,-78,-26,73,48,29,19,19,9
-126,-87,39,107,-82,-24,78,48,29,19,19,9
-131,-87,43,109,-87,-21,82,48,29,19,19,9
-136,-87,48,112,-92,-19,87,48,29,19,19,9
-146,-97,48,122,-97,-24,87,53,39,29,19,19
-146,-97,48,122,-97,-24,87,58,39,29,19,19
-146,-97,48,122,-97,-24,87,63,39,29,19,19
-146,-97,48,122,-97,-24,87,68,39,29,19,19
-131,-87,43,109,-87,-21,82,63,29,19,19,9
-126,-87,39,107,-82,-24,78,58,29,19,19,9
-122,-87,34,104,-78,-26,73,53,29,19,19,9
-117,-87,29,102,-73,-29,68,48,29,19,19,9
-126,-82,43,104,-85,-19,73,58,39,29,29,19
-126,-78,48,102,-87,-14,87,63,43,29,29,24
-112,-63,48,87,-80,-7,97,68,43,34,29,24
-97,-53,43,75,-70,-4,102,68,53,39,34,29
-107,-43,63,75,-85,9,112,87,53,53,43,43
-117,-43,73,80,-95,14,112,87,58,58,48,43
-107,-43,63,75,-85,9,112,87,58,58,48,43
-107,-39,68,73,-87,14,112,87,68,63,58,48
-87,-29,58,58,-73,14,112,87,68,58,58,53
-78,-24,53,51,-65,14,117,97,73,63,58,53
-68,-14,53,41,-61,19,117,97,78,73,63,53
-63,-9,53,36,-58,21,112,97,78,73,68,48
-63,9,73,26,-68,41,122,97,92,87,82,63
-68,9,78,29,-73,43,126,97,97,92,82,68
-73,9,82,31,-78,46,131,102,107,97,87,68
-78,14,92,31,-85,53,131,107,107,97,87,68
-82,4,87,39,-85,46,141,126,107,87,87,78
-87,4,92,41,-90,48,141,126,107,97,97,78
-82,4,87,39,-85,46,131,126,107,87,87,78
-73,-4,68,39,-70,31,126,126,107,87,87,78
-68,-4,63,36,-65,29,126,136,107,87,82,73
-53,0,53,26,-53,26,122,146,117,97,87,78
-34,9,43,12,-39,26,117,156,117,107,97,87
-29,19,48,4,-39,34,107,156,126,107,107,97
-34,24,58,4,-46,41,112,156,131,126,102,97
-34,34,68,0,-51,51,112,156,131,131,112,102
-29,48,78,-9,-53,63,87,146,131,131,117,112
-19,43,63,-12,-41,53,63,141,122,131,117,112
0,48,48,-24,-24,48,43,112,112,126,117,112
0,48,48,-24,-24,48,29,102,107,117,112,112
-4,39,43,-17,-24,41,19,87,87,102,112,107
4,43,39,-24,-17,41,14,78,78,92,107,102
0,29,29,-14,-14,29,29,92,78,102,112,107
-4,14,19,-4,-12,17,29,97,78,102,112,102
-19,4,24,7,-21,14,34,102,78,97,107,102
-29,4,34,12,-31,19,43,102,73,92,107,97
-34,-4,29,19,-31,12,34,102,63,82,102,87
-29,0,29,14,-29,14,34,102,63,82,97,87
-29,4,34,12,-31,19,34,92,58,78,87,82
-29,4,34,12,-31,19,34,87,48,73,78,82
-43,9,53,17,-48,31,39,73,48,73,82,87
-53,0,53,26,-53,26,34,63,34,63,68,78
-63,-9,53,36,-58,21,34,68,39,53,58,68
-97,-9,87,53,-92,39,39,73,43,53,58,68
-92,-24,68,58,-80,21,39,58,39,48,48,53
-87,-34,53,61,-70,9,34,53,34,43,39,53
-82,-39,43,61,-63,2,34,48,29,39,39,48
-92,-39,53,65,-73,7,39,43,24,34,39,48
-107,-34,73,70,-90,19,48,53,29,39,48,53
-112,-39,73,75,-92,17,53,48,29,39,48,48
-122,-48,73,85,-97,12,53,48,29,34,43,43
-136,-53,82,95,-109,14,63,48,29,29,39,39
-151,-63,87,107,-119,12,78,43,34,29,24,29
-151,-68,82,109,-117,7,78,43,34,29,19,29
-146,-82,63,114,-104,-9,78,43,34,29,19,29
-146,-87,58,117,-102,-14,78,48,34,29,19,24
-126,-92,34,109,-80,-29,78,39,29,29,9,19
-136,-102,34,119,-85,-34,73,34,19,24,9,4
-126,-107,19,117,-73,-43,63,24,9,4,0,-4
-102,-107,-4,104,-48,-56,53,14,-4,-4,-4,-14
-117,-102,14,109,-65,-43,63,24,0,-4,-4,-14
-122,-97,24,109,-73,-36,68,24,4,0,0,-9
-141,-92,48,117,-95,-21,68,29,9,4,4,-4
-146,-92,53,119,-100,-19,68,29,14,9,9,0
-126,-102,24,114,-75,-39,58,19,9,4,4,-4
-122,-102,19,112,-70,-41,58,24,4,4,4,-4
-126,-107,19,117,-73,-43,63,24,4,0,0,-4
-122,-107,14,114,-68,-46,63,24,0,-4,-4,-4
-131,-107,24,119,-78,-41,63,19,9,-4,-4,-9
-131,-107,24,119,-78,-41,63,19,9,-4,-4,-9
-141,-107,34,124,-87,-36,63,29,9,-4,-4,-4
-141,-102,39,122,-90,-31,63,29,9,-4,-4,-4
-141,-102,39,122,-90,-31,73,34,19,4,4,4
-136,-107,29,122,-82,-39,73,34,14,0,0,0
-141,-107,34,124,-87,-36,73,34,14,0,0,0
-156,-102,53,129,-104,-24,73,34,14,4,0,0
-156,-102,53,129,-104,-24,63,34,4,4,-4,-4
-151,-107,43,129,-97,-31,63,34,4,4,-4,-4
-146,-107,39,126,-92,-34,63,29,9,4,-4,-4
-141,-107,34,124,-87,-36,63,29,9,4,0,-4
-146,-102,43,124,-95,-29,73,39,19,14,4,0
-141,-97,43,119,-92,-26,73,43,19,14,9,4
-141,-92,48,117,-95,-21,73,48,24,19,14,9
-141,-82,58,112,-100,-12,73,48,24,24,24,14
-141,-82,58,112,-100,-12,63,48,14,24,14,4
-146,-82,63,114,-104,-9,68,53,19,24,14,9
-146,-82,63,114,-104,-9,68,53,19,24,14,9
-141,-82,58,112,-100,-12,68,53,19,19,9,9
-122,-92,29,107,-75,-31,78,48,19,9,0,9
-112,-97,14,104,-63,-41,78,53,19,4,0,-4
-126,-97,29,112,-78,-34,102,78,34,19,-9,-9
-165,-102,63,134,-114,-19,151,122,87,53,9,-9
-185,-82,102,134,-143,9,209,209,151,102,48,4
-180,-58,122,119,-151,31,258,283,204,146,78,19
-161,-43,117,102,-139,36,283,341,258,195,102,48
-141,-9,131,75,-136,61,317,409,322,258,151,87
-107,34,141,36,-124,87,375,507,419,346,239,151
-58,68,126,-4,-92,97,444,663,527,444,322,224
-4,131,136,-63,-70,134,478,771,629,556,414,322
43,239,195,-141,-75,217,468,800,697,649,546,444
136,331,195,-234,-29,263,409,810,712,722,663,580
287,405,117,-346,85,261,292,780,663,741,751,683
419,502,82,-461,168,292,126,683,570,732,829,805
512,590,78,-551,217,334,-73,541,448,712,902,932
595,653,58,-624,268,356,-258,409,326,673,946,1024
653,702,48,-678,302,375,-380,346,258,653,985,1093
683,766,82,-724,300,424,-458,297,239,668,1044,1161
663,849,185,-756,239,517,-483,209,219,678,1054,1195
619,912,292,-766,163,602,-512,82,170,649,1049,1200
570,883,312,-727,129,597,-561,34,112,595,990,1141
478,658,180,-568,148,419,-585,14,-9,419,780,956
346,400,53,-373,146,226,-605,-87,-165,200,492,697
253,278,24,-265,114,151,-639,-283,-317,-4,263,478
170,190,19,-180,75,104,-649,-458,-453,-185,87,307
53,34,-19,-43,36,7,-585,-624,-580,-366,-102,117
-68,-97,-29,82,-19,-63,-551,-766,-683,-502,-258,-58
-112,-126,-14,119,-48,-70,-527,-761,-668,-497,-278,-107
-131,-131,0,131,-65,-65,-439,-595,-575,-419,-214,-87
-180,-156,24,168,-102,-65,-326,-478,-483,-361,-204,-87
-200,-195,4,197,-102,-95,-273,-405,-429,-341,-209,-117
-185,-175,9,180,-97,-82,-219,-312,-346,-283,-180,-92
-175,-131,43,153,-109,-43,-141,-209,-248,-200,-126,-58
-161,-112,48,136,-104,-31,-92,-141,-180,-146,-87,-34
-141,-102,39,122,-90,-31,-63,-82,-122,-92,-63,-24
-146,-87,58,117,-102,-14,-24,-14,-78,-48,-14,4
-146,-87,58,117,-102,-14,4,14,-53,-24,9,24
-107,-82,24,95,-65,-29,14,24,-48,-14,4,14
-107,-68,39,87,-73,-14,34,43,-14,0,9,19
-146,-48,97,97,-122,24,68,73,24,29,29,43
-170,-43,126,107,-148,41,92,87,43,48,39,43
-175,-39,136,107,-156,48,92,87,43,29,19,34
-161,-39,122,100,-141,41,92,78,34,29,19,29
-146,-39,107,92,-126,34,92,78,34,29,19,29
-141,-34,107,87,-124,36,92,78,29,29,24,29
-136,-34,102,85,-119,34,97,73,29,29,24,29
-126,-39,87,82,-107,24,97,63,29,29,14,19
-126,-43,82,85,-104,19,102,73,34,34,19,24
-136,-48,87,92,-112,19,112,78,48,39,19,24
-136,-53,82,95,-109,14,112,82,63,43,19,24
-146,-53,92,100,-119,19,117,97,63,43,24,29
-146,-53,92,100,-119,19,122,102,63,43,29,29
-165,-58,107,112,-136,24,126,107,58,43,34,29
-175,-58,117,117,-146,29,131,107,58,48,39,34
-170,-48,122,109,-146,36,146,117,63,48,48,43
-165,-48,117,107,-141,34,146,117,68,48,48,39
-161,-43,117,102,-139,36,141,122,68,48,48,39
-156,-43,112,100,-134,34,141,131,68,53,48,43
-156,-43,112,100,-134,34,141,122,78,63,39,34
-141,-43,97,92,-119,26,141,117,73,58,39,34
-141,-39,102,90,-122,31,141,117,73,58,43,34
-141,-39,102,90,-122,31,141,122,78,63,48,34
-146,-39,107,92,-126,34,131,112,78,58,43,39
-146,-39,107,92,-126,34,131,112,73,58,43,39
-141,-39,102,90,-122,31,131,112,73,58,43,39
-141,-34,107,87,-124,36,131,112,68,58,43,43
-131,-34,97,82,-114,31,131,102,58,48,29,34
-117,-39,78,78,-97,19,131,107,53,48,24,29
-122,-39,82,80,-102,21,131,107,53,43,24,29
-117,-34,82,75,-100,24,131,112,53,43,29,34
-112,-34,78,73,-95,21,141,112,58,53,34,39
-122,-34,87,78,-104,26,141,112,63,58,39,43
-141,-39,102,90,-122,31,141,112,68,63,43,48
-156,-39,117,97,-136,39,141,112,73,73,48,58
-156,-19,136,87,-146,58,131,112,78,73,63,53
-156,-19,136,87,-146,58,131,117,82,78,68,53
-131,-19,112,75,-122,46,131,117,82,78,68,48
-117,-19,97,68,-107,39,131,117,78,73,58,48
-122,-24,97,73,-109,36,141,117,68,63,48,48
-131,-29,102,80,-117,36,141,117,68,63,48,53
-136,-34,102,85,-119,34,141,117,68,63,48,53
-141,-39,102,90,-122,31,141,117,68,63,48,53
-141,-48,92,95,-117,21,131,126,73,68,53,43
-131,-39,92,85,-112,26,131,126,73,68,53,43
-131,-39,92,85,-112,26,131,126,68,63,48,43
-131,-43,87,87,-109,21,131,126,68,63,48,43
-146,-39,107,92,-126,34,141,126,78,73,63,53
-136,-24,112,80,-124,43,136,126,82,78,68,58
-126,-14,112,70,-119,48,131,126,82,82,68,63
-131,-9,122,70,-126,56,131,126,87,87,73,68
-126,0,126,63,-126,63,122,131,78,78,68,68
-126,0,126,63,-126,63,122,136,82,78,68,68
-131,0,131,65,-131,65,126,141,82,82,78,73
-131,0,131,65,-131,65,126,146,82,82,78,73
-112,4,117,53,-114,61,117,141,78,78,63,68
-107,0,107,53,-107,53,117,136,73,78,58,63
-102,-4,97,53,-100,46,117,131,73,73,53,63
-97,-9,87,53,-92,39,117,126,78,68,48,68
-122,-9,112,65,-117,51,122,136,82,78,68,78
-122,-9,112,65,-117,51,122,141,82,82,73,78
-122,-9,112,65,-117,51,122,141,87,82,78,78
-122,-9,112,65,-117,51,126,146,92,87,82,78
-126,4,131,61,-129,68,122,161,92,87,87,82
-136,4,141,65,-139,73,122,161,102,97,97,92
-141,9,151,65,-146,80,117,156,92,97,87,97
-136,19,156,58,-146,87,112,156,92,92,87,102
-117,19,136,48,-126,78,112,151,92,92,87,107
-122,24,146,48,-134,85,112,156,97,92,92,102
-112,29,141,41,-126,85,112,156,102,102,102,102
-97,29,126,34,-112,78,112,151,102,102,102,102
-82,34,117,24,-100,75,97,151,102,102,102,102
-73,39,112,17,-92,75,97,151,107,102,107,107
-68,39,107,14,-87,73,102,156,107,112,112,112
-63,39,102,12,-82,70,102,161,112,117,122,117
-78,39,117,19,-97,78,97,170,112,117,122,126
-78,39,117,19,-97,78,92,165,107,117,122,126
-73,43,117,14,-95,80,87,165,107,117,122,131
-87,48,136,19,-112,92,87,175,117,122,122,136
-92,63,156,14,-124,109,102,185,122,131,136,151
-78,68,146,4,-112,107,102,190,126,131,141,156
-78,73,151,2,-114,112,97,190,131,136,146,156
-78,82,161,-2,-119,122,97,195,136,141,151,165
-68,82,151,-7,-109,117,87,195,141,141,146,170
-68,87,156,-9,-112,122,82,195,141,151,156,175
-63,87,151,-12,-107,119,82,200,146,156,156,180
-58,92,151,-17,-104,122,78,200,146,156,161,190
-53,107,161,-26,-107,134,78,200,165,175,180,200
-48,122,170,-36,-109,146,78,204,170,180,195,209
-43,136,180,-46,-112,158,68,209,170,185,204,214
-29,141,170,-56,-100,156,68,214,175,195,214,219
-14,151,165,-68,-90,158,53,204,175,185,209,214
4,161,156,-82,-75,158,48,209,170,185,209,229
14,170,156,-92,-70,163,43,214,165,190,214,234
19,180,161,-100,-70,170,39,214,161,190,214,244
29,180,151,-104,-61,165,29,214,165,204,229,248
39,190,151,-114,-56,170,24,219,165,204,234,258
43,200,156,-122,-56,178,19,224,175,214,248,273
43,209,165,-126,-61,187,19,229,180,229,263,283
24,229,204,-126,-90,217,19,244,185,224,278,297
34,239,204,-136,-85,222,14,248,190,224,278,302
63,248,185,-156,-61,217,9,253,190,229,287,312
73,258,185,-165,-56,222,0,258,190,234,287,317
68,258,190,-163,-61,224,4,258,200,239,302,336
68,263,195,-165,-63,229,0,258,200,248,307,341
73,263,190,-168,-58,226,-4,263,200,258,317,341
73,263,190,-168,-58,226,-4,263,200,268,322,346
87,278,190,-183,-51,234,-19,278,195,263,326,351
73,283,209,-178,-68,246,-19,283,204,268,341,370
78,287,209,-183,-65,248,-24,283,204,273,341,370
82,287,204,-185,-61,246,-29,283,204,273,341,370
87,283,195,-185,-53,239,-29,278,190,258,336,366
92,287,195,-190,-51,241,-29,273,190,253,331,366
97,287,190,-192,-46,239,-24,268,200,253,326,361
102,287,185,-195,-41,236,-24,268,200,248,317,356
92,273,180,-183,-43,226,-14,268,209,253,312,366
87,268,180,-178,-46,224,-9,268,209,258,317,366
78,263,185,-170,-53,224,-9,268,209,263,317,356
73,258,185,-165,-56,222,-4,263,204,268,322,351
73,268,195,-170,-61,231,-4,263,204,263,317,346
73,263,190,-168,-58,226,-4,263,204,263,317,336
58,253,195,-156,-68,224,4,263,204,263,307,331
43,239,195,-141,-75,217,14,263,209,258,302,326
39,219,180,-129,-70,200,19,258,200,239,292,307
39,214,175,-126,-68,195,24,244,195,239,278,292
48,204,156,-126,-53,180,34,239,190,229,268,283
39,185,146,-112,-53,165,39,229,190,219,258,268
19,156,136,-87,-58,146,58,234,200,229,244,268
0,146,146,-73,-73,146,63,229,200,219,234,248
-24,131,156,-53,-90,143,73,224,190,209,219,239
-39,122,161,-41,-100,141,82,219,185,209,214,224
-24,122,146,-48,-85,134,73,214,175,190,195,214
-19,112,131,-46,-75,122,73,204,170,175,180,200
-39,102,141,-31,-90,122,78,195,156,161,170,185
-39,87,126,-24,-82,107,82,190,151,156,170,180
-43,78,122,-17,-82,100,92,190,146,161,170,170
-53,63,117,-4,-85,90,97,180,141,151,156,161
-68,53,122,7,-95,87,97,175,136,151,146,151
-73,39,112,17,-92,75,97,165,131,136,136,136
-82,34,117,24,-100,75,102,151,131,136,136,141
-92,19,112,36,-102,65,112,146,131,136,131,131
-92,9,102,41,-97,56,117,141,122,131,122,117
-112,9,122,51,-117,65,122,131,122,126,117,112
-122,-4,117,63,-119,56,117,141,112,107,102,107
-126,-14,112,70,-119,48,122,141,107,107,97,102
-126,-24,102,75,-114,39,126,146,107,107,97,97
-131,-24,107,78,-119,41,126,146,102,102,92,92
-131,-19,112,75,-122,46,126,141,107,102,92,82
-141,-24,117,82,-129,46,131,141,102,102,87,78
-146,-29,117,87,-131,43,131,131,102,97,87,78
-156,-24,131,90,-143,53,131,126,102,97,82,78
-141,-34,107,87,-124,36,126,107,87,82,73,68
-131,-39,92,85,-112,26,122,102,73,73,68,58
-126,-43,82,85,-104,19,117,92,63,63,58,48
-117,-48,68,82,-92,9,112,87,58,53,48,39
-117,-58,58,87,-87,0,122,92,63,48,43,48
-122,-63,58,92,-90,-2,122,92,58,43,39,39
-126,-68,58,97,-92,-4,122,92,58,43,39,39
-136,-68,68,102,-102,0,126,92,58,43,34,34
-156,-68,87,112,-122,9,131,87,63,58,39,43
-161,-68,92,114,-126,12,136,87,68,58,43,48
-165,-63,102,114,-134,19,141,87,73,63,53,48
-165,-63,102,114,-134,19,146,92,78,73,58,53
-151,-53,97,102,-124,21,131,82,78,68,58,43
-165,-53,112,109,-139,29,126,78,73,68,53,39
-161,-53,107,107,-134,26,122,78,63,63,48,39
-146,-53,92,100,-119,19,117,78,58,63,43,34
-131,-43,87,87,-109,21,126,63,53,58,34,24
-131,-48,82,90,-107,17,126,63,53,48,29,19
-117,-48,68,82,-92,9,126,58,48,39,29,14
-112,-53,58,82,-85,2,126,53,48,34,29,14
-122,-58,63,90,-92,2,117,53,53,43,19,24
-126,-63,63,95,-95,0,117,58,58,43,19,29
-126,-68,58,97,-92,-4,117,63,58,43,19,29
-122,-73,48,97,-85,-12,122,68,53,43,19,24
-126,-68,58,97,-92,-4,126,73,63,53,24,34
-141,-68,73,104,-107,2,126,73,63,48,29,34
-156,-68,87,112,-122,9,131,73,58,48,34,34
-161,-68,92,114,-126,12,136,78,58,48,39,34
-146,-63,82,104,-114,9,126,68,58,48,29,24
-141,-63,78,102,-109,7,126,68,58,48,24,24
-136,-73,63,104,-100,-4,131,68,58,48,24,24
-131,-73,58,102,-95,-7,131,68,58,48,24,24
-131,-68,63,100,-97,-2,131,68,63,43,29,29
-141,-68,73,104,-107,2,131,68,63,43,29,29
-131,-68,63,100,-97,-2,131,68,63,43,29,29
-122,-68,53,95,-87,-7,131,63,63,43,29,24
-117,-63,53,90,-85,-4,122,63,48,43,39,24
-107,-58,48,82,-78,-4,122,53,48,39,34,24
-122,-58,63,90,-92,2,122,53,48,39,34,29
-122,-53,68,87,-95,7,122,63,53,39,34,29
-141,-63,78,102,-109,7,122,73,63,48,34,29
-151,-63,87,107,-119,12,122,73,63,48,34,29
-141,-68,73,104,-107,2,122,73,53,48,34,24
-141,-68,73,104,-107,2,122,73,53,48,34,24
-146,-78,68,112,-107,-4,131,73,43,39,24,24
-146,-78,68,112,-107,-4,131,73,43,34,14,24
-151,-82,68,117,-109,-7,136,73,48,29,14,19
-151,-82,68,117,-109,-7,136,73,48,29,19,19
-136,-92,43,114,-90,-24,136,73,48,29,9,14
-136,-92,43,114,-90,-24,136,73,48,29,4,14
-136,-92,43,114,-90,-24,136,73,48,29,4,14
-141,-92,48,117,-95,-21,136,73,43,34,4,14
-151,-82,68,117,-109,-7,126,63,43,43,9,14
-151,-78,73,114,-112,-2,126,63,43,43,14,14
-151,-73,78,112,-114,2,126,63,43,39,19,14
-141,-68,73,104,-107,2,126,63,43,39,24,14
-126,-73,53,100,-90,-9,117,63,34,34,19,4
-126,-73,53,100,-90,-9,117,63,34,29,14,4
-131,-73,58,102,-95,-7,117,63,34,24,9,4
-131,-73,58,102,-95,-7,117,63,34,24,4,0
-131,-78,53,104,-92,-12,126,63,43,34,4,0
-136,-82,53,109,-95,-14,126,63,48,39,9,4
-156,-87,68,122,-112,-9,136,63,48,39,9,9
-151,-92,58,122,-104,-17,136,63,48,34,9,9
-131,-82,48,107,-90,-17,126,58,43,29,4,0
-126,-82,43,104,-85,-19,122,48,43,24,4,-4
-117,-82,34,100,-75,-24,122,39,43,14,4,-4
-112,-82,29,97,-70,-26,122,34,43,9,0,-4
-102,-82,19,92,-61,-31,122,43,34,19,0,-4
-107,-82,24,95,-65,-29,122,48,39,24,9,0
-107,-82,24,95,-65,-29,122,53,39,24,9,0
-107,-82,24,95,-65,-29,122,53,39,24,4,0
-107,-73,34,90,-70,-19,126,58,53,29,9,9
-117,-68,48,92,-82,-9,126,58,58,34,14,9
-131,-68,63,100,-97,-2,131,63,63,48,24,14
-141,-63,78,102,-109,7,131,68,68,53,29,14
-136,-58,78,97,-107,9,117,73,63,43,19,4
-131,-58,73,95,-102,7,117,73,58,39,19,4
-122,-58,63,90,-92,2,117,73,58,39,24,4
-117,-58,58,87,-87,0,117,73,53,43,24,4
-107,-63,43,85,-75,-9,117,63,43,34,19,0
-107,-63,43,85,-75,-9,117,63,43,39,9,0
-97,-63,34,80,-65,-14,117,63,43,39,4,-4
-107,-63,43,85,-75,-9,117,68,43,39,4,-4
-126,-63,63,95,-95,0,122,63,53,39,19,4
-131,-58,73,95,-102,7,122,68,53,43,19,4
-131,-58,73,95,-102,7,122,68,53,43,19,4
-117,-58,58,87,-87,0,122,63,53,39,19,4
-117,-43,73,80,-95,14,122,63,58,39,19,14
-117,-43,73,80,-95,14,122,63,58,39,19,14
-107,-48,58,78,-82,4,117,63,58,43,24,14
-117,-48,68,82,-92,9,117,63,58,48,29,14
-117,-58,58,87,-87,0,126,53,58,48,19,14
-107,-58,48,82,-78,-4,122,48,58,43,14,14
-107,-58,48,82,-78,-4,122,48,58,43,14,14
-107,-58,48,82,-78,-4,122,53,58,43,14,19
-112,-53,58,82,-85,2,112,53,68,53,24,19
-107,-48,58,78,-82,4,112,53,68,53,29,19
-102,-43,58,73,-80,7,112,53,73,53,29,24
-97,-39,58,68,-78,9,112,58,73,53,29,24
-87,-48,39,68,-63,-4,107,58,68,48,24,14
-82,-48,34,65,-58,-7,107,58,58,43,19,9
-82,-48,34,65,-58,-7,107,58,53,39,14,9
-82,-48,34,65,-58,-7,107,58,48,43,14,14
-97,-58,39,78,-68,-9,97,68,48,43,14,14
-102,-58,43,80,-73,-7,97,68,48,43,19,14
-107,-58,48,82,-78,-4,97,68,48,43,19,14
-107,-58,48,82,-78,-4,97,68,53,43,19,19
-107,-48,58,78,-82,4,107,58,58,53,29,29
-107,-48,58,78,-82,4,107,58,63,58,34,24
-107,-48,58,78,-82,4,107,53,68,58,34,19
-107,-48,58,78,-82,4,107,48,68,63,39,19
-97,-39,58,68,-78,9,97,48,58,48,34,9
-87,-43,43,65,-65,0,97,48,53,43,29,9
-97,-43,53,70,-75,4,97,48,53,39,24,14
-112,-48,63,80,-87,7,102,53,58,34,24,14
-126,-53,73,90,-100,9,112,53,58,43,34,24
-122,-53,68,87,-95,7,112,53,58,43,34,24
-126,-58,68,92,-97,4,107,53,58,43,29,24
-131,-63,68,97,-100,2,107,53,58,43,29,24
-136,-58,78,97,-107,9,112,53,58,53,34,24
-136,-58,78,97,-107,9,112,53,58,53,34,24
-126,-58,68,92,-97,4,102,48,53,48,29,19
-126,-63,63,95,-95,0,102,48,53,48,29,19
-126,-63,63,95,-95,0,97,48,43,48,29,9
-122,-63,58,92,-90,-2,97,43,43,43,24,9
-112,-63,48,87,-80,-7,97,43,43,34,14,9
-107,-63,43,85,-75,-9,97,43,43,29,9,9
-112,-63,48,87,-80,-7,107,43,53,39,14,9
-112,-63,48,87,-80,-7,107,43,58,43,19,14
-107,-63,43,85,-75,-9,102,43,58,48,24,14
-107,-63,43,85,-75,-9,97,43,53,48,29,9
-112,-63,48,87,-80,-7,97,53,43,43,19,14
-131,-63,68,97,-100,2,102,58,43,43,19,14
-141,-63,78,102,-109,7,107,58,43,39,24,19
-146,-63,82,104,-114,9,107,58,43,34,24,19
-146,-73,73,109,-109,0,107,73,58,43,24,19
-151,-73,78,112,-114,2,107,73,58,43,24,19
-151,-73,78,112,-114,2,107,73,58,43,24,19
-141,-73,68,107,-104,-2,107,73,58,43,19,19
-141,-63,78,102,-109,7,117,63,58,53,19,29
-151,-63,87,107,-119,12,117,63,58,53,24,29
-151,-63,87,107,-119,12,117,63,58,53,34,29
-151,-68,82,109,-117,7,117,63,58,53,39,29
-141,-73,68,107,-104,-2,112,53,48,34,19,19
-136,-82,53,109,-95,-14,102,43,43,24,9,14
-131,-92,39,112,-85,-26,97,43,39,19,4,9
-126,-97,29,112,-78,-34,92,48,34,14,0,4
-126,-82,43,104,-85,-19,107,39,43,34,9,4
-126,-78,48,102,-87,-14,107,34,48,39,14,4
-126,-73,53,100,-90,-9,107,34,53,43,19,9
-131,-68,63,100,-97,-2,107,34,58,48,24,9
-131,-68,63,100,-97,-2,97,34,58,34,14,14
-117,-63,53,90,-85,-4,97,34,48,34,14,14
-117,-63,53,90,-85,-4,97,34,48,34,14,14
-122,-63,58,92,-90,-2,97,39,48,34,14,14
-131,-63,68,97,-100,2,107,39,39,24,14,14
-131,-63,68,97,-100,2,107,39,39,24,9,14
-131,-63,68,97,-100,2,107,34,39,24,9,14
-131,-63,68,97,-100,2,107,34,39,24,9,14
-131,-53,78,92,-104,12,97,43,43,39,24,4
-131,-53,78,92,-104,12,97,43,43,39,24,4
-131,-53,78,92,-104,12,97,43,43,39,24,4
-126,-53,73,90,-100,9,97,39,43,29,19,4
-131,-73,58,102,-95,-7,107,48,43,19,9,14
-146,-78,68,112,-107,-4,107,53,43,19,9,14
-151,-82,68,117,-109,-7,107,53,43,19,9,14
-161,-87,73,124,-117,-7,107,53,43,19,9,14
-170,-87,82,129,-126,-2,102,48,53,34,14,14
-161,-82,78,122,-119,-2,102,48,53,34,14,14
-156,-82,73,119,-114,-4,102,48,48,34,14,9
-156,-82,73,119,-114,-4,102,48,48,34,14,9
-151,-73,78,112,-114,2,92,53,48,34,14,14
-146,-73,73,109,-109,0,87,53,43,34,19,14
-146,-73,73,109,-109,0,87,48,43,34,24,14
-151,-73,78,112,-114,2,87,48,43,34,24,14
-146,-87,58,117,-102,-14,97,39,48,34,19,4
-141,-87,53,114,-97,-17,97,43,48,34,14,4
-136,-92,43,114,-90,-24,97,43,43,29,9,0
-131,-92,39,112,-85,-26,97,43,43,29,4,0
-151,-92,58,122,-104,-17,112,34,48,34,14,4
-156,-73,82,114,-119,4,112,43,58,43,14,14
-131,-73,58,102,-95,-7,97,34,48,43,9,4
-107,-78,29,92,-68,-24,87,29,29,29,-9,0
-117,-87,29,102,-73,-29,97,39,39,19,0,9
-126,-87,39,107,-82,-24,97,39,39,19,0,9
-136,-87,48,112,-92,-19,97,39,39,19,0,9
-146,-87,58,117,-102,-14,97,39,39,19,0,9
-136,-87,48,112,-92,-19,97,39,39,29,9,0
-136,-87,48,112,-92,-19,97,39,39,29,9,0
-136,-87,48,112,-92,-19,97,39,39,29,9,0
-136,-87,48,112,-92,-19,97,39,39,29,9,0
-146,-78,68,112,-107,-4,97,39,39,29,9,9
-146,-78,68,112,-107,-4,97,39,39,29,9,9
-146,-78,68,112,-107,-4,97,39,39,29,9,9
-146,-78,68,112,-107,-4,97,39,39,29,9,9
-146,-87,58,117,-102,-14,97,48,39,39,9,9
-146,-87,58,117,-102,-14,97,48,39,39,9,9
-146,-87,58,117,-102,-14,97,48,39,39,9,9
-146,-87,58,117,-102,-14,97,48,39,39,9,9
-146,-78,68,112,-107,-4,97,39,48,48,14,9
-146,-78,68,112,-107,-4,97,39,48,48,19,9
-146,-78,68,112,-107,-4,97,39,48,48,24,9
-146,-78,68,112,-107,-4,97,39,48,48,29,9
-156,-87,68,122,-112,-9,97,48,48,39,24,9
-156,-87,68,122,-112,-9,97,48,48,39,19,9
-156,-87,68,122,-112,-9,97,48,48,39,14,9
-156,-87,68,122,-112,-9,97,48,48,39,9,9
-141,-78,63,109,-102,-7,97,39,48,29,9,9
-136,-78,58,107,-97,-9,97,39,48,29,9,9
-131,-78,53,104,-92,-12,97,39,48,29,9,9
-126,-78,48,102,-87,-14,97,39,48,29,9,9
-136,-68,68,102,-102,0,107,48,58,39,19,9
-136,-68,68,102,-102,0,117,53,63,39,19,14
-122,-58,63,90,-92,2,122,58,63,43,19,14
-107,-53,53,80,-80,0,122,58,73,48,24,19
-117,-53,63,85,-90,4,122,68,73,53,34,24
-126,-53,73,90,-100,9,122,68,78,58,39,24
-117,-53,63,85,-90,4,122,68,78,58,39,24
-117,-48,68,82,-92,9,122,68,87,63,48,29
-102,-48,53,75,-78,2,126,63,78,63,43,24
-87,-43,43,65,-65,0,126,68,82,63,39,24
-73,-34,39,53,-56,2,122,63,87,68,39,24
-63,-29,34,46,-48,2,112,58,87,63,39,19
-73,-19,53,46,-63,17,117,63,92,78,53,29
-78,-19,58,48,-68,19,126,68,97,82,53,39
-82,-19,63,51,-73,21,136,78,107,87,58,43
-87,-14,73,51,-80,29,141,87,107,87,58,48
-107,-14,92,61,-100,39,161,107,112,92,63,53
-117,-14,102,65,-109,43,161,107,117,107,78,58
-117,-14,102,65,-109,43,151,107,122,102,73,63
-112,-24,87,68,-100,31,146,107,126,107,78,68
-102,-14,87,58,-95,36,141,117,117,97,73,63
-82,-9,73,46,-78,31,131,126,126,107,78,68
-58,0,58,29,-58,29,122,136,126,117,87,78
-48,9,58,19,-53,34,107,136,136,117,97,87
-39,29,68,4,-53,48,102,126,141,126,112,97
-34,43,78,-4,-56,61,102,126,141,131,122,102
-24,63,87,-19,-56,75,78,117,141,131,126,112
-9,63,73,-26,-41,68,53,112,131,131,126,112
0,58,58,-29,-29,58,39,97,122,126,112,102
-9,48,58,-19,-34,53,29,92,117,117,102,102
-24,29,53,-2,-39,41,24,82,97,102,97,97
-24,24,48,0,-36,36,24,78,87,92,87,92
-34,9,43,12,-39,26,29,78,82,82,73,78
-34,-4,29,19,-31,12,29,78,78,82,73,73
-43,-14,29,29,-36,7,34,78,73,78,68,73
-48,-14,34,31,-41,9,43,73,63,73,68,68
-53,-4,48,29,-51,21,43,63,73,73,68,58
-48,0,48,24,-48,24,43,63,73,73,68,58
-48,4,53,21,-51,29,43,53,68,68,63,53
-48,4,53,21,-51,29,43,48,58,63,58,53
-63,-14,48,39,-56,17,48,39,53,53,63,58
-73,-29,43,51,-58,7,43,24,34,43,48,48
-82,-43,39,63,-61,-2,43,24,34,34,39,39
-117,-48,68,82,-92,9,48,24,34,34,39,39
-126,-58,68,92,-97,4,53,24,34,24,29,34
-126,-73,53,100,-90,-9,53,24,34,24,19,34
-126,-82,43,104,-85,-19,58,24,34,24,19,29
-141,-87,53,114,-97,-17,68,24,34,24,19,29
-136,-82,53,109,-95,-14,68,24,39,34,34,34
-131,-78,53,104,-92,-12,73,19,39,39,39,29
-131,-78,53,104,-92,-12,73,19,39,39,39,24
-136,-73,63,104,-100,-4,82,19,39,39,39,19
-141,-87,53,114,-97,-17,78,14,39,34,19,14
-141,-87,53,114,-97,-17,78,14,34,29,9,9
-136,-97,39,117,-87,-29,78,14,29,24,4,4
-136,-97,39,117,-87,-29,78,19,24,19,0,-4
-151,-107,43,129,-97,-31,92,24,29,24,0,4
-175,-122,53,148,-114,-34,92,24,29,24,0,-4
-180,-131,48,156,-114,-41,87,19,29,9,-9,-9
-170,-136,34,153,-102,-51,82,14,24,4,-14,-14
-161,-126,34,143,-97,-46,73,4,14,0,-19,-19
-161,-126,34,143,-97,-46,78,4,14,0,-19,-19
-175,-126,48,151,-112,-39,78,9,14,0,-19,-19
-175,-131,43,153,-109,-43,78,9,14,0,-19,-19
-161,-131,29,146,-95,-51,78,0,14,0,-9,-14
-161,-131,29,146,-95,-51,78,4,14,4,-4,-14
-170,-136,34,153,-102,-51,82,4,19,4,-4,-14
-170,-136,34,153,-102,-51,82,4,19,4,-4,-14
-170,-131,39,151,-104,-46,82,0,19,4,-4,-19
-170,-126,43,148,-107,-41,82,0,19,4,-4,-19
-180,-122,58,151,-119,-31,82,9,19,4,-4,-14
-180,-112,68,146,-124,-21,82,9,19,4,-4,-14
-151,-126,24,139,-87,-51,82,-4,9,-4,-9,-24
-136,-136,0,136,-68,-68,82,-4,4,-9,-19,-29
-131,-141,-9,136,-61,-75,82,-4,4,-9,-24,-29
-136,-141,-4,139,-65,-73,82,-4,4,-4,-29,-29
-151,-151,0,151,-75,-75,82,14,9,0,-14,-14
-161,-156,4,158,-82,-75,82,14,14,4,-14,-14
-170,-156,14,163,-92,-70,82,9,24,9,-14,-14
-180,-156,24,168,-102,-65,82,9,29,14,-9,-14
-165,-141,24,153,-95,-58,82,24,29,14,-4,-4
-161,-136,24,148,-92,-56,82,24,29,14,0,-4
-161,-131,29,146,-95,-51,82,24,34,19,4,-4
-161,-122,39,141,-100,-41,82,19,34,24,14,-4
-156,-122,34,139,-95,-43,82,19,24,24,4,-4
-156,-122,34,139,-95,-43,87,24,29,24,4,0
-151,-122,29,136,-90,-46,87,24,29,24,4,0
-141,-122,19,131,-80,-51,87,24,29,19,0,0
-161,-131,29,146,-95,-51,107,29,39,19,0,-9
-151,-136,14,143,-82,-61,117,34,48,14,-19,-34
-156,-146,9,151,-82,-68,141,58,63,29,-19,-39
-185,-151,34,168,-109,-58,190,112,107,53,-9,-29
-195,-151,43,173,-119,-53,229,170,141,82,9,-24
-190,-136,53,163,-122,-41,248,234,195,136,39,0
-180,-112,68,146,-124,-21,283,312,278,204,102,39
-131,-58,73,95,-102,7,317,380,361,278,161,87
-58,-14,43,36,-51,14,366,488,448,366,239,141
-19,39,58,-9,-39,48,444,663,575,483,341,234
-14,131,146,-58,-80,139,507,790,707,624,473,361
24,229,204,-126,-90,217,488,829,756,717,614,502
117,292,175,-204,-29,234,400,829,751,761,712,639
248,356,107,-302,70,231,302,810,712,780,790,751
370,453,82,-412,143,268,175,722,649,800,888,863
483,551,68,-517,207,309,14,590,546,790,971,990
556,634,78,-595,239,356,-151,468,434,751,1015,1083
605,692,87,-649,258,390,-283,385,346,741,1073,1171
605,756,151,-680,226,453,-380,336,307,746,1122,1239
556,829,273,-692,141,551,-405,248,287,736,1122,1263
463,893,429,-678,17,661,-405,141,268,717,1098,1259
405,805,400,-605,2,602,-424,82,190,614,980,1151
351,541,190,-446,80,366,-458,34,19,400,702,888
268,322,53,-295,107,187,-468,-97,-156,170,424,619
185,239,53,-212,65,146,-492,-283,-287,-14,234,439
112,131,19,-122,46,75,-512,-488,-424,-195,58,248
4,-4,-9,0,7,-7,-488,-683,-580,-405,-161,19
-87,-97,-9,92,-39,-53,-444,-795,-653,-502,-278,-117
-151,-126,24,139,-87,-51,-429,-722,-590,-439,-248,-107
-200,-170,29,185,-114,-70,-380,-614,-536,-400,-234,-117
-219,-224,-4,222,-107,-114,-307,-566,-502,-409,-263,-156
-219,-253,-34,236,-92,-143,-253,-473,-439,-370,-248,-156
-244,-244,0,244,-122,-122,-190,-341,-346,-292,-200,-122
-244,-219,24,231,-134,-97,-122,-239,-258,-219,-156,-97
-200,-170,29,185,-114,-70,-53,-151,-180,-156,-97,-63
-161,-141,19,151,-90,-61,-14,-82,-112,-92,-63,-34
-126,-136,-9,131,-58,-73,-14,-63,-87,-68,-53,-24
-87,-126,-39,107,-24,-82,4,-63,-82,-63,-48,-24
-68,-92,-24,80,-21,-58,24,-53,-68,-53,-43,-14
-78,-87,-9,82,-34,-48,43,-34,-43,-39,-29,-9
-117,-78,39,97,-78,-19,68,-4,-14,-19,-9,4
-131,-82,48,107,-90,-17,92,19,14,0,0,4
-146,-87,58,117,-102,-14,112,39,34,19,0,14
-146,-92,53,119,-100,-19,112,48,43,29,9,9
-146,-97,48,122,-97,-24,112,48,43,29,9,9
-156,-97,58,126,-107,-19,112,48,39,29,14,9
-165,-102,63,134,-114,-19,117,43,39,29,14,9
-161,-92,68,126,-114,-12,107,34,29,19,4,9
-156,-92,63,124,-109,-14,112,43,34,24,9,14
-161,-92,68,126,-114,-12,122,48,48,29,9,14
-156,-92,63,124,-109,-14,122,53,63,34,9,14
-156,-82,73,119,-114,-4,122,73,63,34,9,19
-146,-82,63,114,-104,-9,122,73,63,34,9,19
-156,-87,68,122,-112,-9,122,73,58,34,9,19
-156,-87,68,122,-112,-9,122,68,58,39,9,24
-151,-97,53,124,-102,-21,117,63,58,29,0,19
-146,-97,48,122,-97,-24,117,58,58,29,0,9
-141,-92,48,117,-95,-21,112,58,53,29,0,4
-136,-92,43,114,-90,-24,112,63,48,34,0,4
-131,-92,39,112,-85,-26,112,63,58,34,0,4
-112,-92,19,102,-65,-36,112,58,53,29,0,4
-107,-87,19,97,-63,-34,112,58,53,29,4,4
-102,-87,14,95,-58,-36,112,63,58,34,9,4
-136,-82,53,109,-95,-14,122,73,73,43,19,14
-146,-78,68,112,-107,-4,122,73,73,48,24,19
-151,-73,78,112,-114,2,122,73,78,53,29,24
-161,-63,97,112,-129,17,122,73,78,58,34,34
-146,-73,73,109,-109,0,112,63,78,48,29,24
-136,-78,58,107,-97,-9,112,68,73,48,24,19
-146,-78,68,112,-107,-4,112,68,73,43,24,19
-146,-73,73,109,-109,0,112,73,73,43,29,24
-141,-82,58,112,-100,-12,112,73,73,39,19,24
-141,-82,58,112,-100,-12,112,73,73,39,19,24
-151,-87,63,119,-107,-12,112,73,73,39,19,24
-156,-87,68,122,-112,-9,112,73,73,43,19,29
-161,-68,92,114,-126,12,122,73,78,53,34,34
-165,-68,97,117,-131,14,122,78,82,58,39,34
-146,-68,78,107,-112,4,122,78,82,58,39,29
-136,-68,68,102,-102,0,122,78,78,53,29,29
-126,-68,58,97,-92,-4,112,87,78,63,34,39
-131,-68,63,100,-97,-2,112,87,78,63,39,43
-131,-68,63,100,-97,-2,112,87,78,63,43,43
-131,-68,63,100,-97,-2,112,87,78,63,48,43
-122,-68,53,95,-87,-7,112,78,73,58,48,39
-112,-58,53,85,-82,-2,112,78,73,58,43,34
-112,-58,53,85,-82,-2,112,78,68,53,34,29
-112,-63,48,87,-80,-7,112,78,68,53,29,24
-136,-73,63,104,-100,-4,112,68,82,68,48,34
-126,-63,63,95,-95,0,107,68,82,68,48,39
-117,-58,58,87,-87,0,102,68,78,68,43,43
-122,-58,63,90,-92,2,102,68,78,68,43,48
-126,-58,68,92,-97,4,102,73,68,58,48,58
-126,-58,68,92,-97,4,102,78,73,58,48,58
-131,-58,73,95,-102,7,107,82,73,63,58,63
-131,-58,73,95,-102,7,107,87,73,63,58,63
-136,-48,87,92,-112,19,107,92,82,73,58,63
-136,-48,87,92,-112,19,107,97,82,78,58,63
-136,-48,87,92,-112,19,107,102,87,78,58,68
-136,-48,87,92,-112,19,107,107,97,78,58,78
-146,-58,87,102,-117,14,97,107,87,73,63,68
-131,-58,73,95,-102,7,92,102,82,73,63,68
-117,-58,58,87,-87,0,87,92,82,68,63,68
-102,-58,43,80,-73,-7,87,87,82,68,63,68
-102,-43,58,73,-80,7,82,92,82,68,68,68
-107,-43,63,75,-85,9,82,92,92,78,78,73
-107,-39,68,73,-87,14,78,87,82,78,68,73
-97,-29,68,63,-82,19,73,87,82,73,68,73
-107,-29,78,68,-92,24,78,97,92,82,78,82
-122,-24,97,73,-109,36,82,107,97,82,82,82
-122,-19,102,70,-112,41,87,112,102,92,92,87
-117,-19,97,68,-107,39,92,112,102,92,92,92
-107,-14,92,61,-100,39,87,112,92,92,82,92
-102,-9,92,56,-97,41,87,112,97,92,87,97
-102,-9,92,56,-97,41,92,117,97,102,92,102
-102,-9,92,56,-97,41,92,122,102,107,102,107
-97,4,102,46,-100,53,78,122,112,107,107,117
-87,9,97,39,-92,53,73,117,107,107,112,117
-73,19,92,26,-82,56,68,117,107,107,117,122
-78,29,107,24,-92,68,68,126,117,112,122,126
-87,24,112,31,-100,68,78,117,117,112,117,131
-68,29,97,19,-82,63,73,122,117,112,122,136
-63,34,97,14,-80,65,63,122,117,117,126,136
-58,43,102,7,-80,73,58,126,117,122,131,146
-43,43,87,0,-65,65,48,126,117,117,131,141
-39,48,87,-4,-63,68,43,126,112,122,136,146
-29,48,78,-9,-53,63,43,131,112,122,131,151
-19,53,73,-17,-46,63,39,131,107,117,131,161
-34,73,107,-19,-70,90,48,151,131,146,151,190
-39,82,122,-21,-80,102,48,156,141,151,165,200
-43,92,136,-24,-90,114,39,161,146,156,175,204
-39,92,131,-26,-85,112,39,165,156,165,185,209
-19,102,122,-41,-70,112,24,156,156,165,195,214
-4,112,117,-53,-61,114,19,161,151,165,200,229
0,122,122,-61,-61,122,14,165,146,170,209,234
0,131,131,-65,-65,131,9,165,141,170,214,244
9,151,141,-80,-65,146,0,175,156,185,219,258
19,161,141,-90,-61,151,-4,180,156,185,224,268
24,170,146,-97,-61,158,-9,185,165,195,239,283
24,180,156,-102,-65,168,-9,190,170,209,253,292
14,180,165,-97,-75,173,-9,195,175,214,268,307
24,190,165,-107,-70,178,-14,200,180,214,268,312
53,200,146,-126,-46,173,-19,204,180,219,278,322
63,209,146,-136,-41,178,-29,209,180,224,278,326
73,219,146,-146,-36,183,-39,209,170,224,292,336
78,224,146,-151,-34,185,-48,209,170,229,297,341
87,224,136,-156,-24,180,-58,214,170,234,307,341
92,224,131,-158,-19,178,-63,214,170,239,312,346
92,229,136,-161,-21,183,-63,219,165,234,307,341
73,234,161,-153,-43,197,-58,224,175,239,322,361
73,239,165,-156,-46,202,-58,224,175,244,322,361
73,239,165,-156,-46,202,-58,224,175,244,322,361
82,244,161,-163,-39,202,-68,214,180,253,317,361
92,248,156,-170,-31,202,-68,214,180,253,322,366
102,248,146,-175,-21,197,-63,214,190,258,326,366
112,248,136,-180,-12,192,-63,219,190,258,326,366
97,244,146,-170,-24,195,-58,229,190,258,326,366
87,239,151,-163,-31,195,-48,229,190,258,326,366
73,234,161,-153,-43,197,-43,229,190,258,322,356
63,229,165,-146,-51,197,-34,224,185,258,322,351
58,219,161,-139,-51,190,-34,234,195,244,307,346
53,214,161,-134,-53,187,-34,234,195,244,307,336
34,204,170,-119,-68,187,-24,234,195,244,297,331
14,190,175,-102,-80,183,-14,234,200,239,292,326
19,170,151,-95,-65,161,-9,229,195,219,273,312
19,165,146,-92,-63,156,-4,214,185,219,258,292
29,156,126,-92,-48,141,4,209,175,209,248,278
19,136,117,-78,-48,126,9,200,170,200,239,258
19,117,97,-68,-39,107,19,185,180,200,224,248
9,107,97,-58,-43,102,24,180,180,190,214,229
-4,92,97,-43,-51,95,34,175,170,180,200,219
-9,82,92,-36,-51,87,43,170,165,180,195,204
-19,78,97,-29,-58,87,58,175,170,180,195,204
-29,73,102,-21,-65,87,63,165,170,175,180,190
-63,68,131,-2,-97,100,73,156,161,170,170,175
-78,58,136,9,-107,97,82,151,161,175,170,170
-92,43,136,24,-114,90,82,161,146,156,151,161
-102,24,126,39,-114,75,87,151,141,141,136,151
-117,9,126,53,-122,68,87,146,136,136,126,141
-122,-9,112,65,-117,51,87,136,131,117,117,126
-126,-14,112,70,-119,48,87,136,126,117,122,122
-131,-29,102,80,-117,36,92,136,122,117,112,112
-126,-39,87,82,-107,24,92,136,107,112,97,97
-141,-39,102,90,-122,31,92,131,102,107,87,92
-141,-34,107,87,-124,36,97,122,112,97,82,87
-146,-43,102,95,-124,29,102,112,107,97,78,82
-146,-53,92,100,-119,19,107,107,107,97,78,78
-151,-53,97,102,-124,21,107,97,102,92,73,73
-151,-58,92,104,-122,17,107,102,97,82,63,53
-161,-73,87,117,-124,7,112,102,92,82,58,48
-165,-87,78,126,-122,-4,112,92,92,78,58,48
-175,-92,82,134,-129,-4,112,87,92,78,53,48
-180,-82,97,131,-139,7,122,82,92,78,58,53
-180,-87,92,134,-136,2,122,82,82,73,58,48
-185,-92,92,139,-139,0,122,78,78,68,53,43
-185,-97,87,141,-136,-4,122,78,78,63,48,39
-190,-97,92,143,-141,-2,112,73,73,58,34,29
-190,-102,87,146,-139,-7,112,73,68,53,29,19
-190,-107,82,148,-136,-12,112,73,68,53,29,19
-195,-107,87,151,-141,-9,117,73,68,53,24,14
-195,-107,87,151,-141,-9,117,58,58,43,14,14
-190,-107,82,148,-136,-12,117,58,58,39,14,19
-185,-102,82,143,-134,-9,117,58,58,39,19,19
-175,-102,73,139,-124,-14,117,63,58,43,19,24
-165,-102,63,134,-114,-19,117,73,73,58,34,24
-185,-102,82,143,-134,-9,117,68,73,58,34,19
-185,-102,82,143,-134,-9,117,68,68,53,34,19
-175,-102,73,139,-124,-14,117,68,68,53,34,14
-175,-102,73,139,-124,-14,117,73,73,53,34,24
-180,-107,73,143,-126,-17,117,73,73,48,29,19
-170,-107,63,139,-117,-21,117,68,68,43,29,14
-170,-112,58,141,-114,-26,117,63,68,43,29,14
-170,-112,58,141,-114,-26,117,58,63,34,19,14
-175,-112,63,143,-119,-24,117,58,68,34,19,19
-175,-112,63,143,-119,-24,117,58,68,34,19,19
-170,-112,58,141,-114,-26,122,58,63,34,19,14
-161,-117,43,139,-102,-36,122,58,63,43,9,14
-170,-117,53,143,-112,-31,117,53,63,39,9,14
-180,-117,63,148,-122,-26,117,48,58,39,9,14
-180,-117,63,148,-122,-26,117,48,58,39,9,14
-180,-122,58,151,-119,-31,117,48,68,39,19,14
-190,-122,68,156,-129,-26,117,48,68,39,14,14
-200,-131,68,165,-134,-31,122,48,68,39,14,14
-209,-131,78,170,-143,-26,122,48,68,39,14,14
-209,-117,92,163,-151,-12,122,58,73,43,19,19
-219,-117,102,168,-161,-7,122,58,73,43,19,19
-209,-117,92,163,-151,-12,122,58,73,43,19,19
-200,-117,82,158,-141,-17,122,53,73,43,19,14
-204,-117,87,161,-146,-14,122,63,68,43,19,14
-195,-117,78,156,-136,-19,122,53,68,39,14,14
-209,-122,87,165,-148,-17,122,53,68,39,14,19
-209,-122,87,165,-148,-17,122,63,73,39,14,19
-209,-122,87,165,-148,-17,122,63,63,39,14,9
-219,-122,97,170,-158,-12,122,63,63,39,14,9
-209,-126,82,168,-146,-21,122,63,53,39,14,4
-209,-126,82,168,-146,-21,122,63,53,39,14,4
-209,-126,82,168,-146,-21,112,58,53,29,9,-4
-204,-126,78,165,-141,-24,112,53,53,24,-4,-4
-204,-131,73,168,-139,-29,117,48,58,19,-9,-9
-200,-131,68,165,-134,-31,117,43,58,19,-9,-9
-204,-122,82,163,-143,-19,122,53,58,29,-4,-9
-204,-122,82,163,-143,-19,126,53,58,29,-4,-4
-204,-122,82,163,-143,-19,131,53,58,29,0,0
-209,-122,87,165,-148,-17,136,53,53,34,4,4
-219,-126,92,173,-156,-17,126,53,63,34,4,4
-229,-126,102,178,-165,-12,126,53,63,34,4,4
-239,-126,112,183,-175,-7,126,53,63,29,4,4
-239,-126,112,183,-175,-7,126,53,63,29,4,4
-209,-122,87,165,-148,-17,117,53,58,19,0,-4
-195,-122,73,158,-134,-24,117,53,53,19,-4,-4
-185,-122,63,153,-124,-29,117,53,48,19,-9,-4
-170,-122,48,146,-109,-36,117,53,43,24,-14,-9
-190,-122,68,156,-129,-26,122,63,48,34,-9,0
-204,-122,82,163,-143,-19,126,63,58,39,0,4
-234,-122,112,178,-173,-4,141,63,63,39,4,9
-239,-122,117,180,-178,-2,146,63,68,34,9,9
-229,-112,117,170,-173,2,141,63,53,34,4,9
-224,-112,112,168,-168,0,131,58,53,34,4,4
-214,-112,102,163,-158,-4,126,53,53,29,4,4
-209,-112,97,161,-153,-7,122,53,53,29,0,4
-219,-122,97,170,-158,-12,131,43,53,29,0,4
-224,-122,102,173,-163,-9,131,48,58,34,9,9
-224,-122,102,173,-163,-9,131,53,58,34,9,9
-224,-122,102,173,-163,-9,131,53,58,34,4,9
-214,-112,102,163,-158,-4,117,63,58,24,4,0
-214,-107,107,161,-161,0,117,58,58,24,4,0
-219,-107,112,163,-165,2,122,58,58,34,9,4
-219,-102,117,161,-168,7,122,58,58,34,9,4
-219,-97,122,158,-170,12,126,63,68,39,19,9
-219,-97,122,158,-170,12,126,63,68,39,19,14
-214,-97,117,156,-165,9,126,63,73,43,24,19
-214,-97,117,156,-165,9,126,63,73,53,24,24
-214,-92,122,153,-168,14,126,53,63,48,24,29
-214,-92,122,153,-168,14,126,53,63,48,19,29
-204,-92,112,148,-158,9,126,53,63,43,19,24
-214,-92,122,153,-168,14,126,58,63,39,24,24
-209,-92,117,151,-163,12,122,63,63,48,19,24
-209,-87,122,148,-165,17,122,68,63,53,19,24
-204,-87,117,146,-161,14,122,68,63,53,19,24
-185,-87,97,136,-141,4,122,63,63,48,19,24
-195,-82,112,139,-153,14,122,63,78,58,29,34
-195,-82,112,139,-153,14,122,63,78,58,29,34
-185,-87,97,136,-141,4,117,63,78,63,34,34
-195,-87,107,141,-151,9,117,63,78,68,39,34
-209,-87,122,148,-165,17,126,68,87,68,48,34
-204,-87,117,146,-161,14,122,68,87,63,43,34
-209,-87,122,148,-165,17,122,73,87,63,43,34
-214,-87,126,151,-170,19,122,82,87,63,43,39
-214,-87,126,151,-170,19,112,73,78,53,34,29
-204,-87,117,146,-161,14,112,73,78,53,39,29
-195,-87,107,141,-151,9,112,73,82,53,39,34
-185,-87,97,136,-141,4,112,78,82,53,39,34
-190,-78,112,134,-151,17,117,78,82,53,29,43
-190,-78,112,134,-151,17,117,78,78,53,29,39
-195,-78,117,136,-156,19,117,78,78,53,29,39
-200,-78,122,139,-161,21,117,78,78,63,34,43
-190,-78,112,134,-151,17,107,78,78,63,34,34
-190,-78,112,134,-151,17,107,78,78,63,39,34
-190,-78,112,134,-151,17,107,78,78,63,39,34
-185,-78,107,131,-146,14,107,78,82,63,39,39
-185,-78,107,131,-146,14,107,68,73,58,34,39
-185,-78,107,131,-146,14,107,68,73,58,34,34
-185,-78,107,131,-146,14,107,63,73,53,29,29
-185,-78,107,131,-146,14,107,58,68,53,29,29
-190,-87,102,139,-146,7,107,68,78,53,29,39
-185,-92,92,139,-139,0,107,68,73,53,29,39
-200,-92,107,146,-153,7,107,68,73,53,29,43
-219,-97,122,158,-170,12,112,73,78,53,34,43
-219,-97,122,158,-170,12,112,73,78,53,34,34
-209,-92,117,151,-163,12,112,73,78,53,34,34
-209,-92,117,151,-163,12,107,73,78,53,29,34
-209,-92,117,151,-163,12,107,73,78,53,29,34
-214,-87,126,151,-170,19,112,73,78,53,34,43
-214,-87,126,151,-170,19,112,73,78,53,34,43
-204,-87,117,146,-161,14,102,68,73,48,29,39
-204,-92,112,148,-158,9,102,68,73,48,29,39
-209,-82,126,146,-168,21,117,73,73,63,34,48
-209,-82,126,146,-168,21,117,73,73,63,34,48
-204,-82,122,143,-163,19,117,78,73,58,29,48
-204,-82,122,143,-163,19,117,82,73,58,29,48
-200,-82,117,141,-158,17,117,78,73,53,29,43
-200,-82,117,141,-158,17,117,73,78,53,29,43
-195,-82,112,139,-153,14,112,68,78,53,29,39
-195,-82,112,139,-153,14,107,63,73,48,29,29
-195,-92,102,143,-148,4,107,53,73,48,19,24
-209,-92,117,151,-163,12,112,58,73,53,19,24
-214,-92,122,153,-168,14,117,58,73,53,24,29
-214,-92,122,153,-168,14,117,58,73,53,24,29
-224,-102,122,163,-173,9,117,68,78,63,34,39
-229,-102,126,165,-178,12,117,73,78,63,34,39
-229,-102,126,165,-178,12,117,78,78,63,34,39
-219,-102,117,161,-168,7,117,82,78,63,29,39
-209,-92,117,151,-163,12,112,78,73,58,14,29
-209,-92,117,151,-163,12,107,73,68,53,14,29
-200,-92,107,146,-153,7,102,68,63,48,19,29
-190,-97,92,143,-141,-2,97,63,58,43,19,29
-195,-102,92,148,-143,-4,107,63,63,39,14,24
-204,-112,92,158,-148,-9,102,53,63,34,9,24
-214,-122,92,168,-153,-14,102,53,63,34,9,24
-224,-126,97,175,-161,-14,102,58,63,34,9,24
-229,-112,117,170,-173,2,117,73,78,43,19,34
-234,-107,126,170,-180,9,117,73,78,48,24,34
-239,-102,136,170,-187,17,117,78,78,53,29,39
-248,-97,151,173,-200,26,117,82,78,58,34,39
-239,-107,131,173,-185,12,107,78,78,43,24,34
-224,-102,122,163,-173,9,107,73,68,43,24,34
-224,-102,122,163,-173,9,107,68,68,43,24,34
-229,-102,126,165,-178,12,107,68,68,43,24,34
-224,-102,122,163,-173,9,107,78,68,43,24,24
-219,-102,117,161,-168,7,107,78,68,43,19,24
-214,-102,112,158,-163,4,107,73,68,43,19,24
-209,-102,107,156,-158,2,107,73,68,43,19,24
-224,-102,122,163,-173,9,112,73,73,48,24,34
-229,-102,126,165,-178,12,117,73,73,48,24,34
-234,-102,131,168,-183,14,122,73,73,48,24,34
-234,-102,131,168,-183,14,126,68,73,39,19,34
-234,-107,126,170,-180,9,117,68,73,48,29,34
-244,-107,136,175,-190,14,117,73,73,48,29,34
-244,-107,136,175,-190,14,117,73,73,48,29,34
-248,-107,141,178,-195,17,117,73,73,48,29,34
-229,-107,122,168,-175,7,117,73,68,48,24,24
-209,-102,107,156,-158,2,112,68,63,43,24,24
-195,-102,92,148,-143,-4,107,63,53,39,24,19
-185,-102,82,143,-134,-9,102,58,48,34,24,19
-195,-102,92,148,-143,-4,112,53,53,43,19,14
-195,-102,92,148,-143,-4,107,53,53,43,19,14
-200,-102,97,151,-148,-2,107,48,58,43,19,14
-209,-102,107,156,-158,2,107,48,63,43,14,14
-224,-107,117,165,-170,4,117,53,68,53,24,19
-229,-107,122,168,-175,7,117,63,68,53,24,24
-234,-112,122,173,-178,4,117,68,63,48,24,24
-239,-112,126,175,-183,7,117,73,63,48,24,29
-258,-112,146,185,-202,17,122,82,68,53,34,34
-244,-112,131,178,-187,9,122,82,68,53,24,34
-239,-92,146,165,-192,26,117,92,78,53,29,43
-234,-97,136,165,-185,19,126,87,78,58,29,39
-219,-97,122,158,-170,12,122,73,73,53,24,24
-214,-97,117,156,-165,9,117,68,68,48,19,19
-209,-97,112,153,-161,7,112,63,63,43,14,14
-204,-97,107,151,-156,4,107,58,58,39,9,9
-204,-107,97,156,-151,-4,107,58,58,39,9,9
-204,-107,97,156,-151,-4,107,58,58,39,9,9
-204,-107,97,156,-151,-4,107,58,58,39,9,9
-204,-107,97,156,-151,-4,107,58,58,39,9,9
-195,-97,97,146,-146,0,107,48,58,39,9,9
-195,-97,97,146,-146,0,107,48,58,39,9,9
-195,-97,97,146,-146,0,107,48,58,39,9,9
-195,-97,97,146,-146,0,107,48,58,39,9,9
-209,-107,102,158,-156,-2,117,63,63,43,19,14
-224,-107,117,165,-170,4,117,68,68,48,19,19
-239,-107,131,173,-185,12,117,73,73,53,19,24
-253,-107,146,180,-200,19,117,78,78,58,19,29
-244,-107,136,175,-190,14,117,87,78,58,29,39
-244,-107,136,175,-190,14,117,87,78,58,29,39
-244,-107,136,175,-190,14,117,87,78,58,29,39
-244,-107,136,175,-190,14,117,87,78,58,29,39
-234,-107,126,170,-180,9,117,78,68,48,19,29
-234,-107,126,170,-180,9,117,78,68,48,19,29
-234,-107,126,170,-180,9,117,78,68,48,19,29
-234,-107,126,170,-180,9,117,78,68,48,19,29
-234,-97,136,165,-185,19,117,78,78,58,29,39
-234,-97,136,165,-185,19,117,78,78,58,29,39
-234,-97,136,165,-185,19,117,78,78,58,29,39
-234,-97,136,165,-185,19,117,78,78,58,29,39
-224,-107,117,165,-170,4,117,68,68,48,19,34
-224,-107,117,165,-170,4,117,68,68,48,19,29
-224,-107,117,165,-170,4,117,68,68,48,19,24
-224,-107,117,165,-170,4,117,68,68,48,19,19
-214,-102,112,158,-163,4,117,78,68,48,29,24
-214,-97,117,156,-165,9,117,78,68,48,29,29
-214,-92,122,153,-168,14,126,82,73,48,29,39
-200,-78,122,139,-161,21,131,87,73,53,29,43
-195,-68,126,131,-161,29,141,97,87,73,43,48
-195,-63,131,129,-163,34,141,107,92,82,43,53
-204,-58,146,131,-175,43,141,107,102,92,48,53
-195,-53,141,124,-168,43,141,107,107,97,48,53
-190,-53,136,122,-163,41,131,102,112,92,43,53
-180,-48,131,114,-156,41,141,107,107,87,48,58
-170,-48,122,109,-146,36,146,112,107,82,43,58
-161,-43,117,102,-139,36,146,107,107,82,43,58
-165,-29,136,97,-151,53,151,117,112,87,53,68
-165,-19,146,92,-156,63,151,117,122,97,63,73
-170,-19,151,95,-161,65,156,117,131,107,68,78
-175,-19,156,97,-165,68,161,122,146,117,78,78
-175,-14,161,95,-168,73,161,126,136,107,78,78
-175,-14,161,95,-168,73,170,136,136,107,78,78
-175,-14,161,95,-168,73,170,136,136,117,87,78
-165,-14,151,90,-158,68,161,136,136,107,78,78
-151,-34,117,92,-134,41,156,136,136,107,78,78
-151,-34,117,92,-134,41,156,146,136,107,82,82
-141,-29,112,85,-126,41,151,156,146,117,87,87
-126,-19,107,73,-117,43,146,165,146,126,97,97
-117,-9,107,63,-112,48,146,165,165,126,107,97
-117,9,126,53,-122,68,141,165,170,136,112,107
-112,24,136,43,-124,80,141,165,170,141,122,112
-102,43,146,29,-124,95,117,156,170,141,126,122
-97,53,151,21,-124,102,82,151,151,151,126,131
-87,48,136,19,-112,92,68,136,141,146,122,122
-97,39,136,29,-117,87,58,131,136,136,112,122
-112,19,131,46,-122,75,53,122,117,122,107,117
-102,14,117,43,-109,65,53,117,117,112,107,122
-102,9,112,46,-107,61,58,117,117,112,102,117
-102,-4,97,53,-100,46,58,117,117,112,102,112
-112,-14,97,63,-104,41,63,117,117,107,97,112
-112,-14,97,63,-104,41,73,112,102,102,92,102
-117,-14,102,65,-109,43,73,112,102,102,87,97
-112,-9,102,61,-107,46,73,112,102,102,82,92
-112,-4,107,58,-109,51,73,102,97,97,73,82
-126,4,131,61,-129,68,73,107,97,92,73,92
-126,-4,122,65,-124,58,68,87,92,82,73,87
-131,-19,112,75,-122,46,63,73,73,73,63,78
-136,-34,102,85,-119,34,63,73,73,63,58,68
-156,-39,117,97,-136,39,68,68,68,53,48,68
-165,-43,122,104,-143,39,73,63,63,53,48,63
-165,-53,112,109,-139,29,73,58,58,53,39,63
-165,-58,107,112,-136,24,78,53,53,53,39,58
-190,-68,122,129,-156,26,87,58,68,63,48,58
-200,-73,126,136,-163,26,87,63,68,58,48,53
-209,-78,131,143,-170,26,92,63,73,58,48,48
-224,-87,136,156,-180,24,92,68,78,53,43,43
-229,-92,136,161,-183,21,92,58,73,48,29,29
-239,-97,141,168,-190,21,97,63,73,48,24,29
-234,-97,136,165,-185,19,97,63,68,48,19,29
-224,-107,117,165,-170,4,97,63,63,48,19,29
-214,-107,107,161,-161,0,97,58,63,48,19,24
-214,-112,102,163,-158,-4,102,58,63,53,19,24
-234,-122,112,178,-173,-4,102,53,58,53,19,14
-234,-126,107,180,-170,-9,97,43,53,39,9,9
-234,-126,107,180,-170,-9,102,43,43,24,4,14
-239,-126,112,183,-175,-7,102,43,43,19,0,9
-244,-126,117,185,-180,-4,107,43,43,19,0,9
-263,-126,136,195,-200,4,107,48,43,19,0,9
-253,-131,122,192,-187,-4,97,48,43,19,0,0
-248,-131,117,190,-183,-7,97,48,43,19,0,4
-248,-131,117,190,-183,-7,97,53,43,24,4,4
-258,-136,122,197,-190,-7,102,53,48,24,4,4
-248,-136,112,192,-180,-12,112,53,48,24,4,14
-248,-136,112,192,-180,-12,112,48,48,24,4,9
-248,-136,112,192,-180,-12,112,48,48,24,4,9
-258,-136,122,197,-190,-7,112,58,48,24,4,14
-258,-131,126,195,-192,-2,112,58,48,34,4,14
-244,-131,112,187,-178,-9,112,53,48,34,4,14
-234,-136,97,185,-165,-19,112,53,43,29,0,9
-234,-136,97,185,-165,-19,112,53,43,29,0,9
-248,-131,117,190,-183,-7,112,53,53,43,9,19
-258,-131,126,195,-192,-2,112,63,53,43,14,24
-263,-136,126,200,-195,-4,112,63,53,43,14,24
-268,-136,131,202,-200,-2,112,58,58,43,14,24
-258,-126,131,192,-195,2,102,48,53,39,14,19
-244,-126,117,185,-180,-4,102,53,48,34,9,14
-229,-126,102,178,-165,-12,102,53,43,29,4,9
-219,-126,92,173,-156,-17,102,53,43,29,0,4
-224,-122,102,173,-163,-9,112,58,53,43,14,9
-229,-122,107,175,-168,-7,112,58,53,43,14,14
-239,-122,117,180,-178,-2,117,63,58,43,14,24
-244,-122,122,183,-183,0,117,63,58,43,14,29
-239,-131,107,185,-173,-12,117,63,58,39,9,19
-219,-112,107,165,-163,-2,117,68,58,39,9,19
-219,-107,112,163,-165,2,126,82,78,53,9,14
-244,-136,107,190,-175,-14,151,107,92,58,9,9
-273,-161,112,217,-192,-24,180,151,126,73,0,-9
-273,-151,122,212,-197,-14,239,209,170,102,19,-4
-239,-117,122,178,-180,2,278,273,224,146,48,9
-229,-92,136,161,-183,21,302,331,278,185,92,39
-219,-48,170,134,-195,61,346,409,351,258,151,97
-204,4,209,100,-207,107,405,517,448,366,239,170
-185,29,214,78,-200,122,483,673,566,473,322,244
-141,92,234,24,-187,163,527,800,678,585,424,331
-63,190,253,-63,-158,222,517,829,746,678,546,453
58,283,224,-170,-82,253,448,829,751,741,653,580
200,356,156,-278,21,256,331,810,702,761,741,692
322,453,131,-387,95,292,185,722,629,771,839,824
385,561,175,-473,104,368,4,600,536,771,941,961
478,624,146,-551,165,385,-190,468,405,732,976,1054
566,673,107,-619,229,390,-341,375,307,702,1005,1102
575,746,170,-661,202,458,-400,346,297,727,1063,1190
527,819,292,-673,117,556,-414,278,307,756,1102,1234
463,883,419,-673,21,651,-444,151,268,727,1088,1239
424,854,429,-639,-2,641,-502,82,200,653,1019,1190
380,649,268,-514,56,458,-546,63,58,478,819,1005
297,390,92,-344,102,241,-556,-19,-107,248,531,736
185,258,73,-222,56,165,-580,-195,-248,63,312,536
73,170,97,-122,-12,134,-580,-380,-375,-117,146,366
-43,14,58,14,-51,36,-527,-556,-512,-297,-63,165
-156,-107,48,131,-102,-29,-483,-717,-605,-444,-239,-29
-209,-165,43,187,-126,-61,-458,-722,-610,-468,-268,-87
-239,-190,48,214,-143,-70,-409,-605,-546,-419,-244,-87
-258,-214,43,236,-151,-85,-326,-497,-483,-380,-234,-97
-258,-224,34,241,-146,-95,-263,-414,-429,-351,-229,-117
-224,-204,19,214,-122,-92,-209,-312,-346,-283,-190,-92
-214,-170,43,192,-129,-63,-131,-209,-239,-190,-136,-58
-268,-141,126,204,-197,-7,-63,-122,-141,-107,-87,-24
-307,-131,175,219,-241,21,-4,-53,-63,-43,-43,4
-273,-126,146,200,-209,9,24,-24,-29,-19,-24,14
-204,-107,97,156,-151,-4,43,4,-14,-14,-19,24
-195,-82,112,139,-153,14,63,24,0,4,4,43
-185,-68,117,126,-151,24,82,43,14,19,19,48
-204,-68,136,136,-170,34,97,63,34,29,29,53
-248,-73,175,161,-212,51,122,87,53,48,39,53
-253,-78,175,165,-214,48,122,87,63,48,29,43
-253,-87,165,170,-209,39,122,97,73,48,19,39
-244,-87,156,165,-200,34,122,97,73,48,19,39
-244,-82,161,163,-202,39,122,97,68,48,24,39
-244,-82,161,163,-202,39,126,92,68,48,24,39
-234,-73,161,153,-197,43,136,92,68,48,24,39
-234,-73,161,153,-197,43,141,102,73,53,29,43
-244,-73,170,158,-207,48,151,107,87,58,29,43
-244,-73,170,158,-207,48,151,112,102,63,29,43
-239,-73,165,156,-202,46,151,112,102,73,39,48
-234,-73,161,153,-197,43,151,112,102,73,39,48
-248,-78,170,163,-209,46,151,112,97,73,39,48
-253,-78,175,165,-214,48,151,107,97,78,39,53
-248,-78,170,163,-209,46,146,107,92,68,39,53
-244,-78,165,161,-204,43,146,107,97,68,39,48
-239,-73,165,156,-202,46,141,112,97,68,39,48
-234,-73,161,153,-197,43,141,122,97,73,39,53
-248,-82,165,165,-207,41,151,131,107,82,48,53
-239,-82,156,161,-197,36,151,126,102,78,48,53
-244,-78,165,161,-204,43,151,126,102,78,53,53
-248,-78,170,163,-209,46,151,131,107,82,58,53
-263,-68,195,165,-229,63,161,131,122,97,63,68
-263,-68,195,165,-229,63,161,131,122,97,63,68
-258,-68,190,163,-224,61,161,131,126,97,63,68
-258,-63,195,161,-226,65,161,131,126,97,63,73
-244,-53,190,148,-217,68,161,141,126,97,68,73
-234,-58,175,146,-204,58,161,146,122,97,63,68
-244,-58,185,151,-214,63,161,146,122,92,63,68
-244,-53,190,148,-217,68,161,151,122,92,68,73
-229,-63,165,146,-197,51,151,141,112,87,58,63
-229,-63,165,146,-197,51,151,141,112,87,58,63
-239,-68,170,153,-204,51,151,141,112,87,58,63
-244,-68,175,156,-209,53,151,141,112,92,58,68
-263,-58,204,161,-234,73,161,151,117,92,73,73
-273,-58,214,165,-244,78,161,156,122,97,78,73
-258,-58,200,158,-229,70,161,156,122,97,78,68
-253,-58,195,156,-224,68,161,156,117,92,68,68
-244,-58,185,151,-214,63,151,146,117,102,78,68
-248,-58,190,153,-219,65,151,146,117,102,78,73
-248,-58,190,153,-219,65,151,146,117,102,78,73
-248,-58,190,153,-219,65,151,146,117,102,78,73
-244,-48,195,146,-219,73,161,146,122,107,73,73
-229,-39,190,134,-209,75,161,146,122,107,73,73
-224,-39,185,131,-204,73,161,146,117,102,68,73
-219,-43,175,131,-197,65,161,146,117,102,68,73
-239,-53,185,146,-212,65,151,146,122,107,78,78
-224,-43,180,134,-202,68,146,146,122,107,78,78
-209,-39,170,124,-190,65,141,146,117,107,73,78
-209,-39,170,124,-190,65,141,146,117,107,73,78
-209,-29,180,119,-195,75,141,146,126,107,87,87
-214,-29,185,122,-200,78,141,146,131,107,87,87
-224,-29,195,126,-209,82,146,146,131,112,97,92
-229,-29,200,129,-214,85,146,146,131,112,97,92
-209,-19,190,114,-200,85,136,136,126,107,92,87
-195,-19,175,107,-185,78,136,136,122,107,87,82
-180,-19,161,100,-170,70,136,136,122,102,82,82
-165,-19,146,92,-156,63,136,136,126,97,78,87
-170,-19,151,95,-161,65,126,136,117,92,73,78
-161,-19,141,90,-151,61,122,131,112,92,73,78
-151,-19,131,85,-141,56,117,122,112,87,73,78
-141,-19,122,80,-131,51,117,117,112,87,73,78
-131,-14,117,73,-124,51,122,126,112,97,87,78
-136,-14,122,75,-129,53,122,131,122,107,97,82
-136,-9,126,73,-131,58,117,131,112,107,87,82
-126,0,126,63,-126,63,112,136,112,102,87,82
-126,-4,122,65,-124,58,102,136,112,102,78,92
-141,-4,136,73,-139,65,102,146,117,102,82,92
-141,-4,136,73,-139,65,102,151,122,112,92,97
-136,-9,126,73,-131,58,102,151,122,112,92,102
-141,-14,126,78,-134,56,97,161,131,122,102,112
-151,-9,141,80,-146,65,97,161,136,122,107,117
-165,-9,156,87,-161,73,102,165,136,131,112,122
-180,-9,170,95,-175,80,102,170,141,136,122,126
-170,0,170,85,-170,85,97,161,131,131,112,117
-156,0,156,78,-156,78,92,156,126,126,112,117
-136,4,141,65,-139,73,87,156,126,122,112,122
-136,9,146,63,-141,78,87,165,136,122,112,126
-146,4,151,70,-148,78,87,156,136,122,117,131
-126,9,136,58,-131,73,82,161,136,122,122,136
-122,14,136,53,-129,75,73,161,136,126,126,136
-117,24,141,46,-129,82,68,165,136,131,131,146
-107,39,146,34,-126,92,73,170,151,141,146,161
-107,48,156,29,-131,102,73,175,151,151,156,165
-102,53,156,24,-129,104,78,185,156,156,156,170
-97,63,161,17,-129,112,78,190,156,156,161,180
-82,73,156,4,-119,114,73,195,161,161,170,195
-78,82,161,-2,-119,122,68,195,161,161,175,200
-73,92,165,-9,-119,129,53,195,156,161,175,200
-58,92,151,-17,-104,122,48,195,156,165,175,200
-58,102,161,-21,-109,131,43,195,170,170,195,204
-43,112,156,-34,-100,134,39,200,170,175,200,219
-39,122,161,-41,-100,141,34,204,170,185,209,224
-39,131,170,-46,-104,151,29,204,170,190,214,234
-24,151,175,-63,-100,163,19,204,185,195,219,239
-9,161,170,-75,-90,165,14,209,185,195,224,248
0,170,170,-85,-85,170,9,214,195,204,239,263
4,180,175,-92,-85,178,9,219,200,219,253,273
-14,190,204,-87,-109,197,19,234,204,234,278,287
-4,200,204,-97,-104,202,14,239,209,234,278,292
24,209,185,-117,-80,197,9,244,209,239,287,302
34,219,185,-126,-75,202,0,248,209,244,287,307
34,219,185,-126,-75,202,4,258,209,244,292,326
39,224,185,-131,-73,204,0,258,209,248,297,331
48,224,175,-136,-63,200,-4,263,209,253,307,331
53,224,170,-139,-58,197,-4,263,209,258,312,336
63,239,175,-151,-56,207,-9,258,214,263,317,331
43,244,200,-143,-78,222,-9,263,224,268,331,351
43,248,204,-146,-80,226,-14,263,224,273,331,351
43,248,204,-146,-80,226,-19,263,224,273,331,351
43,253,209,-148,-82,231,-19,273,219,273,326,361
43,258,214,-151,-85,236,-19,273,219,273,331,366
43,258,214,-151,-85,236,-14,273,229,278,336,366
43,258,214,-151,-85,236,-14,278,229,278,336,366
53,258,204,-156,-75,231,-24,268,229,278,336,375
58,258,200,-158,-70,229,-19,268,229,278,336,375
58,258,200,-158,-70,229,-19,268,229,278,331,366
63,258,195,-161,-65,226,-14,263,224,278,331,361
53,253,200,-153,-73,226,-4,253,224,273,317,351
53,244,190,-148,-68,217,-4,253,224,273,317,336
39,229,190,-134,-75,209,4,253,224,273,307,326
24,209,185,-117,-80,197,14,253,229,268,302,317
4,209,204,-107,-100,207,29,258,239,268,297,322
0,204,204,-102,-102,204,34,253,234,268,287,312
4,195,190,-100,-92,192,43,258,229,258,283,307
-9,175,185,-82,-97,180,48,258,229,248,278,297
-14,165,180,-75,-97,173,48,253,219,248,273,278
-29,156,185,-63,-107,170,53,248,219,239,263,258
-48,141,190,-46,-119,165,63,244,209,229,248,248
-58,131,190,-36,-124,161,73,239,204,229,244,234
-53,112,165,-29,-109,139,68,224,190,204,219,224
-48,102,151,-26,-100,126,73,214,190,195,200,209
-68,92,161,-12,-114,126,82,204,180,185,185,195
-68,78,146,-4,-107,112,92,200,180,185,180,190
-82,68,151,7,-117,109,92,190,175,170,180,180
-92,53,146,19,-119,100,97,180,170,161,165,170
-107,43,151,31,-129,97,97,175,165,161,156,161
-112,29,141,41,-126,85,97,165,161,146,146,146
-122,14,136,53,-129,75,107,161,156,141,131,131
-122,0,122,61,-122,61,112,156,151,136,122,122
-112,-9,102,61,-107,46,112,151,136,126,107,107
-122,-9,112,65,-117,51,112,141,131,117,97,102
-126,-14,112,70,-119,48,107,136,131,107,102,97
-136,-24,112,80,-124,43,112,131,126,107,97,92
-141,-34,107,87,-124,36,117,131,126,107,97,87
-151,-34,117,92,-134,41,117,126,122,102,92,82
-136,-24,112,80,-124,43,107,112,107,82,78,73
-141,-34,107,87,-124,36,112,112,102,82,68,68
-141,-43,97,92,-119,26,112,102,102,78,63,68
-146,-43,102,95,-124,29,112,97,102,78,53,68
-161,-53,107,107,-134,26,122,92,102,78,53,63
-161,-58,102,109,-131,21,122,92,92,73,58,58
-165,-63,102,114,-134,19,122,87,87,68,58,53
-165,-68,97,117,-131,14,122,87,87,63,58,48
-156,-58,97,107,-126,19,112,82,82,58,43,48
-151,-63,87,107,-119,12,112,82,78,53,39,39
-146,-68,78,107,-112,4,112,82,78,53,39,39
-146,-68,78,107,-112,4,117,82,78,53,34,34
-161,-78,82,119,-122,2,126,87,78,63,43,43
-170,-78,92,124,-131,7,126,87,78,58,43,48
-180,-73,107,126,-143,17,126,87,78,58,48,48
-185,-73,112,129,-148,19,126,92,78,63,48,53
-175,-73,102,124,-139,14,126,92,82,58,43,43
-195,-73,122,134,-158,24,126,87,82,58,43,39
-195,-73,122,134,-158,24,126,87,78,53,43,39
-185,-73,112,129,-148,19,126,87,78,53,43,34
-180,-63,117,122,-148,26,126,82,82,63,34,43
-180,-68,112,124,-146,21,126,82,82,58,29,39
-165,-68,97,117,-131,14,126,78,78,53,29,34
-161,-73,87,117,-124,7,126,73,78,53,29,34
-156,-73,82,114,-119,4,117,68,78,43,29,24
-156,-73,82,114,-119,4,117,68,78,43,29,29
-151,-73,78,112,-114,2,117,68,73,43,29,29
-141,-73,68,107,-104,-2,122,68,63,43,29,24
-146,-78,68,112,-107,-4,131,63,68,53,39,34
-161,-78,82,119,-122,2,126,63,73,48,39,34
-175,-78,97,126,-136,9,126,63,73,48,39,34
-180,-78,102,129,-141,12,126,68,78,48,39,34
-180,-73,107,126,-143,17,126,68,68,48,39,34
-180,-73,107,126,-143,17,126,68,68,48,34,34
-180,-82,97,131,-139,7,131,68,68,48,34,34
-180,-82,97,131,-139,7,131,68,68,48,34,34
-170,-78,92,124,-131,7,126,58,63,48,34,34
-170,-78,92,124,-131,7,122,58,63,43,29,29
-151,-78,73,114,-112,-2,117,58,63,39,24,24
-131,-78,53,104,-92,-12,112,53,63,34,19,14
-141,-78,63,109,-102,-7,117,58,58,39,24,19
-146,-78,68,112,-107,-4,122,53,58,39,24,24
-175,-82,92,129,-134,4,126,58,58,43,29,34
-190,-82,107,136,-148,12,131,73,63,48,34,39
-190,-82,107,136,-148,12,122,58,63,39,24,34
-190,-82,107,136,-148,12,122,53,63,39,24,29
-170,-87,82,129,-126,-2,122,48,53,39,24,19
-161,-87,73,124,-117,-7,122,43,53,39,24,14
-165,-82,82,124,-124,0,122,48,53,48,34,24
-165,-78,87,122,-126,4,122,53,53,43,24,24
-170,-78,92,124,-131,7,126,58,58,39,24,19
-170,-73,97,122,-134,12,126,63,58,39,29,19
-156,-82,73,119,-114,-4,126,63,58,29,29,24
-156,-82,73,119,-114,-4,126,63,58,29,24,24
-156,-82,73,119,-114,-4,126,63,58,29,24,24
-161,-82,78,122,-119,-2,126,63,53,34,24,24
-170,-87,82,129,-126,-2,126,63,53,34,24,24
-170,-87,82,129,-126,-2,126,63,53,34,24,24
-170,-87,82,129,-126,-2,126,63,53,29,24,24
-161,-87,73,124,-117,-7,126,63,53,29,24,24
-165,-82,82,124,-124,0,126,63,63,39,14,14
-165,-82,82,124,-124,0,126,63,63,39,14,14
-170,-82,87,126,-129,2,126,63,63,39,14,14
-170,-82,87,126,-129,2,126,63,63,43,14,9
-156,-73,82,114,-119,4,126,73,63,43,24,19
-156,-73,82,114,-119,4,126,73,68,48,29,24
-170,-73,97,122,-134,12,136,73,68,48,29,29
-161,-73,87,117,-124,7,136,73,68,43,29,29
-156,-73,82,114,-119,4,136,82,63,43,24,29
-156,-73,82,114,-119,4,131,78,63,43,24,24
-151,-73,78,112,-114,2,131,73,63,39,24,24
-151,-73,78,112,-114,2,131,73,63,39,19,24
-141,-73,68,107,-104,-2,122,63,53,39,9,14
-146,-73,73,109,-109,0,122,68,58,43,19,19
-146,-73,73,109,-109,0,122,73,58,43,19,19
-146,-73,73,109,-109,0,122,73,58,43,14,19
-126,-73,53,100,-90,-9,126,63,58,34,14,19
-126,-68,58,97,-92,-4,126,58,58,34,14,19
-131,-68,63,100,-97,-2,131,58,58,43,19,24
-131,-63,68,97,-100,2,131,58,58,43,19,24
-141,-68,73,104,-107,2,136,63,68,53,19,24
-151,-68,82,109,-117,7,136,63,68,48,19,24
-156,-68,87,112,-122,9,136,63,73,48,24,24
-165,-68,97,117,-131,14,136,63,73,53,24,24
-175,-73,102,124,-139,14,126,73,63,53,34,39
-175,-73,102,124,-139,14,126,73,63,58,29,39
-165,-73,92,119,-129,9,126,73,63,58,29,34
-175,-73,102,124,-139,14,126,78,63,58,34,34
-180,-63,117,122,-148,26,122,73,63,48,29,34
-180,-58,122,119,-151,31,122,78,63,53,29,34
-175,-58,117,117,-146,29,122,78,63,53,29,34
-156,-58,97,107,-126,19,122,73,63,48,29,34
-170,-53,117,112,-143,31,126,78,78,58,39,43
-175,-53,122,114,-148,34,131,82,78,58,39,43
-170,-58,112,114,-141,26,131,87,78,63,43,43
-185,-58,126,122,-156,34,136,92,78,68,48,43
-170,-48,122,109,-146,36,126,92,68,58,39,34
-156,-48,107,102,-131,29,122,87,68,53,34,34
-151,-48,102,100,-126,26,122,87,68,53,34,34
-146,-48,97,97,-122,24,122,92,68,53,34,39
-156,-48,107,102,-131,29,122,82,78,63,34,39
-156,-48,107,102,-131,29,122,82,78,63,39,39
-156,-48,107,102,-131,29,122,82,82,63,39,43
-156,-48,107,102,-131,29,122,87,82,63,39,43
-156,-58,97,107,-126,19,107,78,73,53,39,43
-151,-58,92,104,-122,17,107,78,68,53,39,39
-151,-58,92,104,-122,17,107,78,68,53,39,39
-151,-58,92,104,-122,17,107,78,68,63,43,43
-151,-48,102,100,-126,26,117,87,78,53,43,43
-151,-48,102,100,-126,26,117,87,78,53,48,43
-151,-48,102,100,-126,26,117,87,78,53,48,43
-146,-48,97,97,-122,24,117,87,82,53,48,48
-156,-48,107,102,-131,29,117,87,82,53,53,58
-156,-48,107,102,-131,29,117,87,82,58,53,53
-156,-48,107,102,-131,29,117,82,82,58,48,48
-156,-48,107,102,-131,29,117,78,78,63,48,48
-165,-48,117,107,-141,34,126,87,87,73,58,48
-156,-53,102,104,-129,24,126,87,82,73,58,48
-165,-53,112,109,-139,29,126,87,82,73,58,53
-180,-58,122,119,-151,31,131,92,87,73,63,53
-165,-58,107,112,-136,24,126,82,78,68,58,43
-151,-53,97,102,-124,21,122,82,78,63,53,43
-146,-53,92,100,-119,19,112,82,78,58,43,43
-141,-53,87,97,-114,17,107,82,78,53,39,43
-146,-48,97,97,-122,24,122,82,78,63,43,53
-146,-48,97,97,-122,24,122,82,78,63,43,53
-136,-48,87,92,-112,19,112,78,73,58,39,48
-136,-53,82,95,-109,14,112,78,73,58,39,48
-146,-53,92,100,-119,19,117,78,82,63,53,48
-151,-53,97,102,-124,21,117,73,82,63,53,48
-151,-53,97,102,-124,21,117,73,82,58,48,48
-156,-53,102,104,-129,24,117,73,82,58,48,48
-161,-53,107,107,-134,26,126,73,73,63,48,48
-161,-53,107,107,-134,26,126,73,78,63,48,53
-156,-53,102,104,-129,24,122,73,78,63,48,53
-156,-53,102,104,-129,24,117,73,73,58,48,48
-151,-63,87,107,-119,12,107,63,73,58,43,34
-161,-63,97,112,-129,17,112,68,73,63,39,34
-161,-63,97,112,-129,17,117,68,73,63,39,39
-156,-63,92,109,-124,14,117,68,73,63,34,39
-156,-53,102,104,-129,24,126,82,78,63,43,48
-161,-53,107,107,-134,26,126,82,78,63,43,48
-161,-53,107,107,-134,26,126,82,78,63,43,48
-151,-53,97,102,-124,21,126,82,78,63,39,48
-165,-43,122,104,-143,39,126,82,87,73,39,58
-180,-43,136,112,-158,46,126,82,87,73,43,58
-185,-43,141,114,-163,48,126,82,87,73,53,58
-190,-48,141,119,-165,46,126,82,87,73,58,58
-180,-48,131,114,-156,41,126,92,73,58,53,53
-175,-53,122,114,-148,34,122,82,73,53,48,53
-170,-58,112,114,-141,26,122,82,73,53,48,53
-165,-58,107,112,-136,24,122,87,73,53,48,53
-156,-58,97,107,-126,19,117,78,78,58,43,43
-156,-58,97,107,-126,19,117,73,78,58,43,43
-156,-58,97,107,-126,19,117,73,78,58,43,48
-161,-58,102,109,-131,21,117,73,78,58,43,48
-151,-58,92,104,-122,17,117,73,78,53,34,34
-136,-53,82,95,-109,14,117,73,68,53,34,34
-136,-53,82,95,-109,14,117,73,68,53,34,34
-141,-53,87,97,-114,17,117,78,68,53,34,34
-156,-53,102,104,-129,24,126,87,78,63,39,43
-161,-53,107,107,-134,26,126,87,78,63,39,43
-165,-53,112,109,-139,29,126,82,78,63,43,43
-170,-53,117,112,-143,31,126,82,78,63,48,43
-175,-53,122,114,-148,34,126,73,73,58,53,43
-170,-53,117,112,-143,31,126,73,73,58,53,43
-165,-53,112,109,-139,29,126,73,73,58,53,43
-156,-53,102,104,-129,24,126,68,73,48,48,43
-156,-58,97,107,-126,19,126,68,63,48,39,43
-165,-58,107,112,-136,24,126,73,63,48,39,43
-165,-58,107,112,-136,24,126,73,63,48,39,43
-170,-58,112,114,-141,26,126,73,63,48,39,43
-170,-58,112,114,-141,26,122,68,73,53,43,43
-161,-53,107,107,-134,26,122,68,73,53,43,43
-156,-53,102,104,-129,24,122,68,68,53,43,39
-156,-53,102,104,-129,24,122,68,68,53,43,39
-161,-53,107,107,-134,26,131,73,58,53,39,34
-156,-53,102,104,-129,24,126,73,53,53,39,34
-156,-53,102,104,-129,24,126,68,53,53,39,34
-161,-53,107,107,-134,26,126,68,53,53,34,34
-156,-58,97,107,-126,19,117,63,58,43,24,24
-151,-58,92,104,-122,17,117,63,58,43,24,24
-146,-63,82,104,-114,9,117,58,53,39,24,19
-141,-63,78,102,-109,7,117,53,53,39,24,19
-151,-63,87,107,-119,12,122,63,58,43,24,34
-136,-63,73,100,-104,4,112,63,58,34,24,24
-131,-73,58,102,-95,-7,107,63,58,34,19,14
-146,-78,68,112,-107,-4,107,68,58,39,19,19
-156,-73,82,114,-119,4,112,78,58,48,29,24
-156,-68,87,112,-122,9,117,78,58,48,29,29
-156,-63,92,109,-124,14,122,78,58,48,29,34
-156,-58,97,107,-126,19,126,78,58,48,29,39
-156,-58,97,107,-126,19,126,68,58,39,29,29
-156,-58,97,107,-126,19,126,68,58,39,29,29
-156,-58,97,107,-126,19,126,68,58,39,29,29
-156,-58,97,107,-126,19,126,68,58,39,29,29
-146,-58,87,102,-117,14,117,58,58,48,29,29
-146,-58,87,102,-117,14,117,58,58,48,29,29
-146,-58,87,102,-117,14,117,58,58,48,29,29
-146,-58,87,102,-117,14,117,58,58,48,29,29
-136,-58,78,97,-107,9,107,58,48,39,19,19
-136,-58,78,97,-107,9,107,58,48,39,19,19
-136,-58,78,97,-107,9,107,58,48,39,19,19
-136,-58,78,97,-107,9,107,58,48,39,19,19
-146,-58,87,102,-117,14,107,68,48,39,19,29
-146,-58,87,102,-117,14,107,68,48,39,19,29
-146,-58,87,102,-117,14,107,68,48,39,19,29
-146,-58,87,102,-117,14,107,68,48,39,19,29
-131,-58,73,95,-102,7,107,58,48,39,19,19
-126,-58,68,92,-97,4,107,58,48,39,19,19
-122,-58,63,90,-92,2,107,58,48,39,19,19
-117,-58,58,87,-87,0,107,58,48,39,19,19
-136,-53,82,95,-109,14,117,68,53,43,24,24
-146,-48,97,97,-122,24,117,68,58,48,29,29
-156,-43,112,100,-134,34,117,68,63,53,34,34
-165,-39,126,102,-146,43,117,68,68,58,39,39
-161,-43,117,102,-139,36,117,68,63,53,34,29
-156,-48,107,102,-131,29,117,68,58,48,29,29
-151,-53,97,102,-124,21,117,68,53,43,24,29
-146,-58,87,102,-117,14,117,68,48,39,19,29
-156,-48,107,102,-131,29,107,58,58,39,29,29
-156,-48,107,102,-131,29,107,58,58,39,29,29
-156,-48,107,102,-131,29,107,58,58,39,29,29
-156,-48,107,102,-131,29,107,58,58,39,29,29
-151,-48,102,100,-126,26,107,48,48,39,19,19
-146,-48,97,97,-122,24,107,48,48,39,19,19
-141,-48,92,95,-117,21,107,48,48,39,19,19
-136,-48,87,92,-112,19,107,48,48,39,19,19
-141,-48,92,95,-117,21,107,53,53,48,24,29
-146,-48,97,97,-122,24,107,58,58,48,29,29
-151,-48,102,100,-126,26,107,63,63,48,34,29
-156,-48,107,102,-131,29,107,68,68,48,39,29
-165,-48,117,107,-141,34,117,68,68,58,39,39
-165,-48,117,107,-141,34,117,68,68,58,39,39
-165,-48,117,107,-141,34,117,68,68,58,39,39
-165,-48,117,107,-141,34,126,73,73,58,39,43
-161,-29,131,95,-146,51,141,87,82,63,48,43
-146,-24,122,85,-134,48,141,87,92,68,53,48
-146,-24,122,85,-134,48,141,97,92,73,53,53
-156,-24,131,90,-143,53,141,97,97,78,58,53
-136,-14,122,75,-129,53,131,97,87,68,53,43
-136,-9,126,73,-131,58,131,97,97,73,58,48
-131,0,131,65,-131,65,141,107,97,78,63,58
-126,4,131,61,-129,68,146,117,102,82,58,63
-117,24,141,46,-129,82,156,126,117,102,73,68
-112,29,141,41,-126,85,151,126,117,102,78,68
-102,39,141,31,-122,90,151,126,122,107,82,73
-97,39,136,29,-117,87,156,126,126,112,82,78
-92,39,131,26,-112,85,156,126,126,107,78,68
-87,43,131,21,-109,87,151,126,126,107,78,68
-82,43,126,19,-104,85,156,131,126,107,78,68
-78,43,122,17,-100,82,151,126,126,117,87,68
-87,34,122,26,-104,78,146,136,136,107,87,78
-82,24,107,29,-95,65,146,136,136,107,87,78
-92,24,117,34,-104,70,151,146,136,107,92,82
-92,29,122,31,-107,75,151,156,146,117,97,87
-63,39,102,12,-82,70,136,156,141,117,102,92
-58,48,107,4,-82,78,126,156,146,117,107,97
-53,68,122,-7,-87,95,122,156,146,126,107,102
-43,82,126,-19,-85,104,122,156,141,131,112,102
-24,102,126,-39,-75,114,97,146,151,141,126,122
-9,102,112,-46,-61,107,73,141,141,141,126,122
0,97,97,-48,-48,97,58,126,131,136,122,112
-9,87,97,-39,-53,92,48,122,126,126,112,112
-39,78,117,-19,-78,97,48,122,112,117,112,112
-53,73,126,-9,-90,100,53,117,107,112,107,112
-68,68,136,0,-102,102,63,117,112,117,107,112
-82,53,136,14,-109,95,68,117,117,122,112,112
-68,39,107,14,-87,73,58,117,102,112,92,107
-58,34,92,12,-75,63,63,112,92,102,87,97
-53,29,82,12,-68,56,58,112,87,97,82,92
-39,29,68,4,-53,48,53,112,82,92,78,87
-68,34,102,17,-85,68,68,112,92,92,78,87
-87,34,122,26,-104,78,73,107,87,92,78,92
-102,24,126,39,-114,75,73,87,87,87,78,92
-122,9,131,56,-126,70,73,73,73,82,68,87
-117,-4,112,61,-114,53,63,63,63,63,68,78
-146,-9,136,78,-141,63,68,63,63,63,68,78
-156,-14,141,85,-148,63,73,63,63,63,68,73
-156,-24,131,90,-143,53,73,63,63,63,58,73
-141,-29,112,85,-126,41,68,53,53,53,53,58
-151,-29,122,90,-136,46,78,53,53,53,48,58
-146,-34,112,90,-129,39,78,53,48,48,43,53
-141,-39,102,90,-122,31,82,48,48,48,39,48
-151,-48,102,100,-126,26,92,48,58,43,34,43
-165,-53,112,109,-139,29,102,48,58,39,29,39
-185,-58,126,122,-156,34,107,53,63,39,24,39
-190,-58,131,124,-161,36,107,53,63,39,19,39
-190,-68,122,129,-156,26,117,53,63,39,29,39
-195,-68,126,131,-161,29,117,58,63,39,29,34
-200,-73,126,136,-163,26,122,58,63,43,29,34
-224,-82,141,153,-183,29,122,53,58,43,29,24
-224,-78,146,151,-185,34,117,48,63,39,19,19
-209,-78,131,143,-170,26,112,43,53,34,14,14
-209,-78,131,143,-170,26,112,48,53,29,9,9
-209,-78,131,143,-170,26,117,53,53,29,9,9
-214,-78,136,146,-175,29,102,53,39,24,0,0
-204,-82,122,143,-163,19,97,48,34,19,0,0
-190,-82,107,136,-148,12,92,43,29,14,0,4
-180,-82,97,131,-139,7,87,43,24,14,4,4
-200,-78,122,139,-161,21,97,53,34,24,4,14
-200,-78,122,139,-161,21,102,53,39,24,4,14
-200,-78,122,139,-161,21,107,48,43,24,4,9
-200,-78,122,139,-161,21,112,48,48,24,4,9
-219,-87,131,153,-175,21,112,58,48,34,14,24
-229,-82,146,156,-187,31,112,58,48,34,14,24
-224,-82,141,153,-183,29,112,53,48,34,14,24
-224,-87,136,156,-180,24,112,53,43,29,9,19
-219,-78,141,148,-180,31,112,53,43,29,9,19
-224,-73,151,148,-187,39,112,53,43,34,9,19
-224,-73,151,148,-187,39,112,63,43,34,14,24
-219,-78,141,148,-180,31,112,63,43,34,14,24
-200,-78,122,139,-161,21,107,53,43,24,9,9
-190,-78,112,134,-151,17,102,48,39,24,9,4
-175,-78,97,126,-136,9,97,48,34,24,4,0
-161,-78,82,119,-122,2,92,43,29,24,0,-4
-175,-82,92,129,-134,4,97,48,39,39,4,9
-190,-82,107,136,-148,12,102,48,43,43,14,14
-204,-87,117,146,-161,14,107,53,48,43,19,19
-224,-92,131,158,-178,19,117,63,58,43,24,29
-244,-92,151,168,-197,29,117,63,58,43,24,29
-239,-82,156,161,-197,36,126,73,68,48,29,29
-229,-73,156,151,-192,41,126,78,68,48,29,29
-190,-78,112,134,-151,17,136,73,68,43,19,4
-195,-87,107,141,-151,9,151,97,82,58,9,-9
-234,-92,141,163,-187,24,209,151,126,92,19,0
-244,-92,151,168,-197,29,258,219,180,122,39,4
-209,-97,112,153,-161,7,278,273,214,136,48,9
-190,-63,126,126,-158,31,312,341,268,185,82,29
-209,-9,200,109,-204,95,356,419,361,278,161,97
-185,43,229,70,-207,136,424,536,468,375,258,180
-97,97,195,0,-146,146,492,702,585,492,341,253
-24,170,195,-73,-109,183,517,810,688,595,444,341
14,268,253,-141,-119,261,497,819,736,688,566,473
107,341,234,-224,-63,287,429,819,732,751,673,600
248,424,175,-336,36,300,312,790,683,761,751,722
322,512,190,-417,65,351,156,702,610,761,849,863
395,610,214,-502,90,412,-24,561,507,741,941,980
536,673,136,-605,200,405,-229,409,366,692,966,1044
585,732,146,-658,219,439,-361,336,278,673,995,1112
575,795,219,-685,178,507,-409,326,268,707,1063,1190
585,868,283,-727,151,575,-444,239,239,697,1063,1224
580,932,351,-756,114,641,-492,102,190,658,1039,1200
531,873,341,-702,95,607,-551,34,112,566,941,1122
448,619,170,-534,139,395,-575,4,-19,380,702,907
336,380,43,-358,146,212,-575,-97,-165,161,434,649
204,258,53,-231,75,156,-600,-283,-297,-24,244,468
122,161,39,-141,41,100,-610,-478,-444,-195,68,287
24,24,0,-24,12,12,-556,-624,-570,-366,-122,97
-97,-78,19,87,-58,-29,-502,-746,-644,-473,-248,-48
-141,-126,14,134,-78,-56,-478,-732,-629,-478,-278,-97
-151,-161,-9,156,-70,-85,-409,-614,-575,-429,-263,-107
-180,-185,-4,183,-87,-95,-317,-517,-512,-400,-253,-126
-180,-185,-4,183,-87,-95,-253,-424,-429,-361,-239,-126
