I,II,III,aVR,aVL,aVF,V1,V2,V3,V4,V5,V6
-48,53,102,-2,-75,78,43,48,68,82,78,87
-48,53,102,-2,-75,78,29,48,68,73,73,73
-53,48,102,2,-78,75,29,48,63,73,73,73
-53,48,102,2,-78,75,29,48,63,73,78,73
-39,68,107,-14,-73,87,48,63,78,82,97,87
-53,68,122,-7,-87,95,63,68,87,92,87,92
-63,53,117,4,-90,85,82,73,92,97,97,92
-63,53,117,4,-90,85,97,78,87,107,107,97
-68,73,141,-2,-104,107,92,63,97,107,102,87
-63,73,136,-4,-100,104,87,58,97,107,92,87
-82,48,131,17,-107,90,68,53,87,97,87,87
-87,63,151,12,-119,107,73,53,82,112,87,92
-53,68,122,-7,-87,95,87,63,87,107,102,97
-63,68,131,-2,-97,100,92,68,97,112,107,97
-68,63,131,2,-100,97,112,78,102,117,112,102
-82,63,146,9,-114,104,107,87,107,126,117,107
-82,48,131,17,-107,90,102,82,117,117,107,102
-87,53,141,17,-114,97,97,73,117,112,102,97
-97,63,161,17,-129,112,82,53,107,97,82,87
-102,48,151,26,-126,100,78,58,107,92,87,82
-82,63,146,9,-114,104,87,73,107,97,97,92
-68,78,146,-4,-107,112,87,78,107,102,102,97
-87,82,170,2,-129,126,102,82,122,107,102,97
-87,68,156,9,-122,112,122,92,107,112,102,97
-97,68,165,14,-131,117,131,117,156,161,141,146
-63,97,161,-17,-112,129,122,107,161,165,141,156
-92,63,156,14,-124,109,82,58,107,107,102,102
-122,34,156,43,-139,95,48,9,58,48,53,43
-68,78,146,-4,-107,112,78,48,63,63,73,63
-24,117,141,-46,-82,129,82,48,63,82,92,73
-73,48,122,12,-97,85,117,58,102,122,136,112
-131,-9,122,70,-126,56,175,126,151,200,214,175
-102,39,141,31,-122,90,165,146,180,234,239,195
-68,87,156,-9,-112,122,126,156,219,253,239,200
-73,97,170,-12,-122,134,78,170,234,278,258,195
-82,92,175,-4,-129,134,29,180,248,322,287,185
-19,136,156,-58,-87,146,43,278,317,439,414,258
78,239,161,-158,-41,200,39,317,395,575,566,366
92,273,180,-183,-43,226,19,302,488,741,727,512
53,244,190,-148,-68,217,34,366,658,966,956,692
102,302,200,-202,-48,251,0,434,834,1156,1151,858
229,439,209,-334,9,324,-58,434,985,1288,1312,1024
297,556,258,-427,19,407,-126,366,995,1317,1420,1166
307,610,302,-458,2,456,-263,190,863,1220,1434,1220
356,678,322,-517,17,500,-351,58,751,1088,1434,1283
507,805,297,-656,104,551,-400,-24,580,858,1361,1332
605,849,244,-727,180,546,-463,-151,287,492,1171,1302
566,800,234,-683,165,517,-483,-239,9,141,985,1293
488,819,331,-653,78,575,-497,-400,-244,-165,795,1239
390,844,453,-617,-31,649,-492,-614,-463,-458,527,1054
219,697,478,-458,-129,588,-375,-702,-619,-712,175,668
-34,453,488,-209,-261,470,-258,-751,-775,-971,-239,161
-287,287,575,0,-431,431,-165,-814,-883,-1151,-585,-209
-395,234,629,80,-512,431,-43,-756,-932,-1259,-810,-395
-366,204,570,80,-468,387,0,-678,-1015,-1351,-976,-507
-370,102,473,134,-422,287,19,-575,-1015,-1322,-1005,-497
-400,-9,390,204,-395,190,78,-385,-897,-1141,-873,-414
-336,-43,292,190,-314,124,78,-244,-766,-956,-751,-375
-248,-58,190,153,-219,65,58,-136,-639,-795,-639,-341
-204,-97,107,151,-156,4,24,-63,-536,-658,-551,-331
-185,-141,43,163,-114,-48,-24,-24,-463,-546,-478,-317
-131,-112,19,122,-75,-46,-9,39,-346,-400,-346,-244
-73,-39,34,56,-53,-2,19,73,-234,-248,-214,-161
-92,-29,63,61,-78,17,24,58,-122,-126,-112,-68
-131,-63,68,97,-100,2,63,97,-14,-4,4,29
-126,-34,92,80,-109,29,58,107,39,58,58,63
-82,14,97,34,-90,56,48,97,53,68,63,63
-73,19,92,26,-82,56,34,87,43,48,53,53
-73,19,92,26,-82,56,9,63,14,29,29,29
-73,19,92,26,-82,56,0,48,34,34,29,34
-68,14,82,26,-75,48,-9,34,34,43,29,19
-48,9,58,19,-53,34,-19,19,14,29,14,4
-82,4,87,39,-85,46,9,34,34,53,43,34
-87,-19,68,53,-78,24,14,43,43,58,48,48
-92,-24,68,58,-80,21,29,53,48,68,63,63
-78,-14,63,46,-70,24,43,63,58,82,78,78
-87,4,92,41,-90,48,19,43,39,68,48,58
-97,9,107,43,-102,58,4,29,53,43,29,43
-97,19,117,39,-107,68,14,19,58,43,29,29
-73,29,102,21,-87,65,-19,4,53,43,24,14
-87,14,102,36,-95,58,29,24,73,58,48,29
-107,9,117,48,-112,63,48,39,82,58,58,43
-122,-4,117,63,-119,56,68,43,87,68,48,53
-107,4,112,51,-109,58,82,58,92,82,68,68
-107,24,131,41,-119,78,73,34,73,63,53,48
-107,14,122,46,-114,68,53,14,58,43,29,34
-107,14,122,46,-114,68,58,14,73,58,34,24
-92,19,112,36,-102,65,53,19,68,53,29,14
-117,19,136,48,-126,78,68,34,82,73,43,29
-126,9,136,58,-131,73,102,48,107,97,68,48
-126,0,126,63,-126,63,117,63,97,102,82,63
-117,0,117,58,-117,58,131,73,107,117,97,78
-107,19,126,43,-117,73,117,63,87,117,82,78
-112,19,131,46,-122,75,82,34,68,73,58,48
-112,19,131,46,-122,75,58,43,78,73,43,39
-107,24,131,41,-119,78,53,34,73,58,29,29
-97,29,126,34,-112,78,73,43,82,58,48,43
-117,14,131,51,-124,73,97,63,97,92,68,63
-122,0,122,61,-122,61,117,73,112,107,78,58
-122,-4,117,63,-119,56,117,82,107,117,87,63
-107,4,112,51,-109,58,97,63,92,97,73,48
-107,14,122,46,-114,68,82,53,73,78,53,34
-122,14,136,53,-129,75,63,48,68,68,43,29
-122,4,126,58,-124,65,53,48,68,68,43,34
-107,19,126,43,-117,73,53,58,78,82,68,53
-107,19,126,43,-117,73,97,68,92,107,78,63
-122,14,136,53,-129,75,117,78,107,122,87,68
-126,14,141,56,-134,78,131,82,117,131,87,78
-117,24,141,46,-129,82,112,78,122,117,92,68
-107,29,136,39,-122,82,107,68,117,107,73,63
-122,29,151,46,-136,90,87,43,92,82,39,43
-136,29,165,53,-151,97,82,53,87,87,39,53
-107,19,126,43,-117,73,87,73,102,107,58,48
-107,14,122,46,-114,68,92,78,117,117,68,53
-122,9,131,56,-126,70,107,92,131,126,87,73
-122,9,131,56,-126,70,112,87,141,131,97,68
-122,14,136,53,-129,75,102,82,131,117,73,63
-122,14,136,53,-129,75,92,78,141,112,68,58
-122,9,131,56,-126,70,68,48,126,102,58,39
-131,9,141,61,-136,75,58,63,126,97,53,58
-102,9,112,46,-107,61,68,78,136,112,58,48
-102,14,117,43,-109,65,73,82,136,117,68,43
-117,14,131,51,-124,73,87,87,141,136,92,63
-126,14,141,56,-134,78,97,87,141,141,102,68
-122,-9,112,65,-117,51,82,78,141,131,82,63
-112,0,112,56,-112,56,87,97,136,122,73,58
-107,9,117,48,-112,63,63,78,117,102,48,29
-112,-14,97,63,-104,41,58,68,102,82,39,24
-102,-9,92,56,-97,41,78,92,92,92,39,29
-92,-4,87,48,-90,41,78,92,92,92,43,29
-102,0,102,51,-102,51,82,92,102,97,53,29
-117,-14,102,65,-109,43,87,92,107,102,58,24
-122,-34,87,78,-104,26,102,102,107,97,48,34
-117,-19,97,68,-107,39,107,107,112,102,53,39
-122,-24,97,73,-109,36,117,107,112,97,53,39
-136,-29,107,82,-122,39,92,97,107,92,39,19
-122,-34,87,78,-104,26,107,107,92,87,29,19
-107,-34,73,70,-90,19,112,112,87,82,24,4
-117,-34,82,75,-100,24,126,117,82,82,24,0
-112,-53,58,82,-85,2,136,126,78,82,29,-4
-122,-53,68,87,-95,7,151,141,92,82,34,0
-122,-48,73,85,-97,12,151,146,107,92,39,9
-122,-48,73,85,-97,12,151,151,112,92,39,19
-126,-58,68,92,-97,4,141,141,107,78,34,14
-112,-48,63,80,-87,7,141,151,97,58,24,-4
-97,-58,39,78,-68,-9,131,151,78,53,9,-24
-92,-43,48,68,-70,2,122,156,78,48,0,-34
-87,-68,19,78,-53,-24,122,151,73,43,-9,-34
-141,-131,9,136,-75,-61,190,229,122,122,53,29
-92,-73,19,82,-56,-26,161,204,126,102,43,19
-68,-29,39,48,-53,4,151,180,126,87,14,9
-97,-58,39,78,-68,-9,87,122,73,29,-43,-53
-146,-107,39,126,-92,-34,68,78,39,9,-78,-97
-131,-97,34,114,-82,-31,92,92,58,24,-63,-87
-117,-87,29,102,-73,-29,107,107,68,39,-48,-78
-102,-78,24,90,-63,-26,122,122,78,53,-34,-68
-87,-68,19,78,-53,-24,136,136,87,68,-19,-58
-92,-78,14,85,-53,-31,141,126,92,78,-19,-53
-107,-58,48,82,-78,-4,146,122,97,78,-19,-48
-112,-68,43,90,-78,-12,141,112,102,73,-24,-43
-117,-78,39,97,-78,-19,146,107,107,73,-24,-39
-126,-58,68,92,-97,4,146,92,102,82,-29,-58
-131,-48,82,90,-107,17,146,82,102,73,-34,-68
-136,-48,87,92,-112,19,146,78,102,82,-19,-73
-146,-68,78,107,-112,4,146,73,107,87,9,-63
-165,-82,82,124,-124,0,165,82,112,78,9,-68
-175,-68,107,122,-141,19,185,92,117,82,-9,-63
-185,-82,102,134,-143,9,185,97,122,82,-29,-68
-200,-97,102,148,-151,2,190,107,126,82,-63,-87
-200,-92,107,146,-153,7,185,112,112,82,-78,-112
-195,-58,136,126,-165,39,180,92,107,73,-73,-117
-195,-78,117,136,-156,19,175,78,102,48,-53,-112
-180,-97,82,139,-131,-7,170,82,97,53,-43,-107
-195,-112,82,153,-139,-14,180,102,107,73,-53,-92
-204,-87,117,146,-161,14,190,117,122,82,-43,-87
-209,-82,126,146,-168,21,190,126,131,92,-43,-87
-214,-112,102,163,-158,-4,190,122,141,78,-43,-97
-204,-107,97,156,-151,-4,180,112,131,68,-53,-126
-200,-97,102,148,-151,2,170,92,126,58,-63,-136
-195,-68,126,131,-161,29,156,82,122,43,-63,-126
-195,-73,122,134,-158,24,146,78,122,58,-63,-117
-204,-82,122,143,-163,19,141,107,141,78,-58,-117
-200,-68,131,134,-165,31,151,122,161,97,-29,-87
-195,-68,126,131,-161,29,170,141,180,122,-4,-43
-195,-82,112,139,-153,14,165,131,200,141,14,-53
-180,-68,112,124,-146,21,146,112,190,136,0,-43
-175,-34,141,104,-158,53,126,112,180,131,0,-53
-165,-4,161,85,-163,78,87,92,170,122,-4,-73
-151,9,161,70,-156,85,82,82,156,117,-14,-68
-151,-4,146,78,-148,70,97,97,175,151,24,-43
-151,4,156,73,-153,80,102,117,200,175,63,-9
-151,4,156,73,-153,80,107,141,219,195,92,34
-136,0,136,68,-136,68,107,161,239,214,136,68
-126,19,146,53,-136,82,82,131,214,200,126,58
-117,39,156,39,-136,97,58,112,204,180,112,63
-107,48,156,29,-131,102,24,92,161,151,73,39
-97,63,161,17,-129,112,9,63,136,131,58,34
-97,53,151,21,-124,102,34,82,151,161,87,68
-97,43,141,26,-119,92,43,102,165,175,112,92
-97,29,126,34,-112,78,58,131,180,190,136,117
-97,19,117,39,-107,68,73,151,190,204,161,141
-92,34,126,29,-109,80,48,122,165,170,136,122
-87,43,131,21,-109,87,39,102,146,146,122,112
-78,58,136,9,-107,97,24,82,122,122,102,87
-68,73,141,-2,-104,107,9,58,102,102,78,78
-68,63,131,2,-100,97,29,78,122,136,117,117
-73,53,126,9,-100,90,53,97,131,136,131,131
-73,43,117,14,-95,80,73,117,141,146,146,151
-73,34,107,19,-90,70,102,136,151,161,175,165
-68,43,112,12,-90,78,68,112,126,141,136,136
-68,34,102,17,-85,68,68,102,107,117,122,122
-78,34,112,21,-95,73,58,102,87,97,107,107
-68,34,102,17,-85,68,39,92,68,63,73,87
-68,29,97,19,-82,63,63,107,87,78,102,107
-68,24,92,21,-80,58,78,122,97,97,117,117
-68,19,87,24,-78,53,97,131,107,126,136,131
-68,24,92,21,-80,58,122,146,117,141,146,156
-68,34,102,17,-85,68,92,131,102,117,122,126
-73,29,102,21,-87,65,78,117,82,102,102,112
-73,29,102,21,-87,65,63,102,68,87,87,97
-48,39,87,4,-68,63,53,87,53,73,78,82
-53,34,87,9,-70,61,63,107,68,92,78,97
-63,14,78,24,-70,46,68,117,78,97,97,107
-63,9,73,26,-68,41,68,126,78,107,117,122
-63,14,78,24,-70,46,78,136,97,117,136,136
-43,24,68,9,-56,46,53,117,82,97,107,122
-58,0,58,29,-58,29,24,107,58,68,92,107
-58,14,73,21,-65,43,19,102,39,63,82,97
-34,19,53,7,-43,36,4,92,24,34,68,82
-34,9,43,12,-39,26,24,107,43,48,87,97
-29,4,34,12,-31,19,48,117,48,63,97,107
-34,4,39,14,-36,21,48,126,53,82,107,117
-9,-4,4,7,-7,0,58,136,68,102,122,136
-14,14,29,0,-21,21,53,112,53,82,102,126
-24,29,53,-2,-39,41,39,87,39,63,78,112
-29,19,48,4,-39,34,34,87,34,53,78,102
-24,19,43,2,-34,31,29,78,29,43,68,92
-14,39,53,-12,-34,46,39,87,43,58,87,107
-39,39,78,0,-58,58,53,87,63,73,102,117
-43,19,63,12,-53,41,73,92,53,87,117,126
-48,19,68,14,-58,43,53,97,58,112,131,136
-53,48,102,2,-78,75,73,117,122,146,170,195
-43,63,107,-9,-75,85,53,87,97,126,141,170
-92,14,107,39,-100,61,9,19,39,58,73,92
-107,9,117,48,-112,63,19,9,34,53,63,73
-34,68,102,-17,-68,85,53,39,53,82,102,92
-14,97,112,-41,-63,104,58,39,82,112,126,112
-82,39,122,21,-102,80,117,87,141,170,185,175
-112,29,141,41,-126,85,146,126,180,224,229,214
-78,87,165,-4,-122,126,117,126,219,253,248,239
-53,156,209,-51,-131,183,97,161,263,307,287,263
-43,151,195,-53,-119,173,29,170,278,331,307,234
-39,126,165,-43,-102,146,-14,219,307,390,346,239
29,200,170,-114,-70,185,0,307,395,527,478,326
102,283,180,-192,-39,231,-9,312,488,683,639,434
102,273,170,-187,-34,222,-4,346,610,849,810,585
112,273,161,-192,-24,217,9,424,746,1029,985,732
209,380,170,-295,19,275,-39,434,858,1141,1117,868
317,517,200,-417,58,358,-107,366,907,1190,1244,1019
346,600,253,-473,46,427,-234,200,834,1141,1298,1122
356,658,302,-507,26,480,-361,0,712,1039,1307,1176
448,746,297,-597,75,522,-409,-112,600,936,1322,1263
595,839,244,-717,175,541,-473,-219,395,688,1220,1273
653,829,175,-741,239,502,-522,-317,126,346,1044,1244
585,780,195,-683,195,488,-527,-380,-117,48,902,1239
507,824,317,-666,95,570,-541,-575,-346,-224,741,1180
414,824,409,-619,2,617,-502,-780,-522,-478,478,971
200,649,448,-424,-124,549,-385,-829,-688,-727,102,531
-112,405,517,-146,-314,461,-263,-893,-824,-966,-312,53
-346,292,639,26,-492,466,-131,-941,-854,-1063,-546,-180
-395,292,688,51,-541,490,-39,-883,-888,-1117,-663,-283
-390,229,619,80,-505,424,-9,-819,-956,-1205,-780,-351
-439,107,546,165,-492,326,39,-697,-927,-1151,-775,-317
-453,63,517,195,-485,290,78,-517,-805,-976,-663,-258
-375,78,453,148,-414,265,87,-370,-668,-805,-570,-234
-292,48,341,122,-317,195,92,-239,-556,-668,-502,-224
-273,-34,239,153,-256,102,53,-151,-473,-575,-468,-258
-248,-92,156,170,-202,31,39,-68,-385,-478,-405,-244
-161,-29,131,95,-146,51,78,34,-273,-326,-263,-151
-102,58,161,21,-131,109,82,58,-151,-175,-131,-58
-131,24,156,53,-143,90,112,117,-14,-24,4,39
-175,-24,151,100,-163,63,156,195,78,87,107,112
-141,24,165,58,-153,95,156,175,102,117,122,122
-92,78,170,7,-131,124,131,156,122,117,122,131
-97,63,161,17,-129,112,97,122,102,92,102,102
-102,58,161,21,-131,109,87,107,122,92,97,102
-102,48,151,26,-126,100,78,92,122,97,92,82
-87,39,126,24,-107,82,68,78,102,78,73,63
-97,39,136,29,-117,87,112,97,117,102,102,87
-97,19,117,39,-107,68,122,112,122,107,107,97
-97,19,117,39,-107,68,141,126,122,117,122,107
-78,34,112,21,-95,73,161,141,126,131,136,117
-97,34,131,31,-114,82,141,126,92,107,102,97
-107,29,136,39,-122,82,131,117,102,82,78,82
-107,29,136,39,-122,82,146,112,102,82,73,68
-82,29,112,26,-97,70,117,102,92,82,63,53
-87,19,107,34,-97,63,151,117,112,97,87,63
-97,9,107,43,-102,58,156,126,112,97,97,73
-102,-9,92,56,-97,41,161,126,107,107,87,78
-78,-4,73,41,-75,34,161,136,102,122,107,87
-78,0,78,39,-78,39,141,122,73,87,87,73
-78,-14,63,46,-70,24,112,102,48,53,48,53
-78,-19,58,48,-68,19,107,102,53,53,39,39
-63,-19,43,41,-53,12,92,107,39,34,19,24
-73,-14,58,43,-65,21,87,117,53,58,39,43
-78,-19,58,48,-68,19,102,117,68,78,58,58
-73,-24,48,48,-61,12,97,117,48,78,68,68
-58,-19,39,39,-48,9,92,112,48,87,78,78
-68,0,68,34,-68,34,82,107,43,92,63,82
-73,0,73,36,-73,36,53,82,29,53,48,58
-73,0,73,36,-73,36,34,97,43,58,43,53
-68,4,73,31,-70,39,34,92,43,48,39,48
-58,9,68,24,-63,39,48,82,48,43,53,48
-78,-4,73,41,-75,34,68,92,58,73,68,63
-82,-19,63,51,-73,21,82,92,68,82,73,53
-82,-24,58,53,-70,17,78,92,58,87,78,53
-82,-34,48,58,-65,7,87,82,68,73,63,53
-87,-24,63,56,-75,19,82,73,53,58,43,43
-107,-24,82,65,-95,29,73,68,53,53,34,43
-112,-34,78,73,-95,21,73,68,58,58,34,53
-87,-14,73,51,-80,29,63,68,63,63,53,53
-87,-9,78,48,-82,34,87,68,73,78,58,53
-102,-9,92,56,-97,41,87,68,82,82,63,48
-107,-4,102,56,-104,48,82,63,87,82,58,48
-117,-4,112,61,-114,53,73,58,107,78,63,63
-107,0,107,53,-107,53,68,48,107,78,53,63
-122,0,122,61,-122,61,48,24,87,63,29,48
-136,0,136,68,-136,68,43,34,87,78,39,63
-102,4,107,48,-104,56,43,48,92,92,63,53
-97,4,102,46,-100,53,43,48,97,97,68,53
-107,4,112,51,-109,58,53,58,102,102,82,68
-102,9,112,46,-107,61,53,48,102,102,87,58
-102,14,117,43,-109,65,58,58,92,92,68,63
-102,14,117,43,-109,65,63,58,102,92,68,68
-102,9,112,46,-107,61,53,34,87,87,63,58
-112,9,122,51,-117,65,58,53,87,87,63,87
-73,19,92,26,-82,56,58,48,82,78,58,63
-73,24,97,24,-85,61,53,43,78,78,58,43
-87,24,112,31,-100,68,58,39,78,92,73,48
-97,24,122,36,-109,73,58,29,73,92,73,39
-107,0,107,53,-107,53,68,39,92,97,73,63
-102,9,112,46,-107,61,78,68,97,102,73,68
-102,19,122,41,-112,70,58,58,87,97,58,48
-112,-4,107,58,-109,51,58,58,82,92,58,53
-97,4,102,46,-100,53,68,68,78,82,39,43
-82,4,87,39,-85,46,68,63,73,73,34,29
-87,4,92,41,-90,48,73,58,78,68,34,14
-97,-14,82,56,-90,34,78,53,78,63,29,-4
-107,-34,73,70,-90,19,102,78,87,78,43,9
-97,-19,78,58,-87,29,117,97,102,92,53,29
-97,-24,73,61,-85,24,136,112,112,97,58,43
-107,-29,78,68,-92,24,122,117,117,102,48,39
-97,-24,73,61,-85,24,126,107,102,92,34,39
-87,-24,63,56,-75,19,122,102,97,82,24,14
-102,-24,78,63,-90,26,126,97,92,78,19,0
-102,-43,58,73,-80,7,126,97,87,73,19,-14
-112,-53,58,82,-85,2,146,122,107,92,29,-4
-112,-48,63,80,-87,7,151,136,126,112,39,9
-112,-48,63,80,-87,7,156,151,136,122,43,24
-117,-58,58,87,-87,0,151,151,136,117,43,24
-146,-87,58,117,-102,-14,82,87,78,43,-43,-63
-117,-68,48,92,-82,-9,122,122,87,73,-9,-53
-58,-4,53,31,-56,24,141,141,107,92,9,-43
-78,-29,48,53,-63,9,165,136,126,107,29,-29
-87,-53,34,70,-61,-9,180,156,136,122,39,-19
-97,-68,29,82,-63,-19,195,175,146,126,39,-9
-107,-82,24,95,-65,-29,209,195,156,131,39,0
-117,-97,19,107,-68,-39,224,214,165,136,39,9
-97,-97,0,97,-48,-48,209,200,146,117,14,-19
-107,-78,29,92,-68,-24,195,190,126,97,-9,-48
-107,-87,19,97,-63,-34,170,175,107,73,-39,-78
-107,-97,9,102,-58,-43,156,165,87,53,-63,-107
-126,-102,24,114,-75,-39,180,190,97,73,-58,-87
-131,-107,24,119,-78,-41,195,200,112,73,-53,-78
-136,-122,14,129,-75,-53,209,214,126,92,-29,-63
-146,-156,-9,151,-68,-82,224,229,146,107,9,-34
-141,-156,-14,148,-63,-85,195,214,117,73,-14,-63
-136,-136,0,136,-68,-68,185,200,97,53,-58,-92
-131,-146,-14,139,-58,-80,156,180,78,29,-102,-131
-131,-156,-24,143,-53,-90,131,165,58,4,-161,-185
-141,-156,-14,148,-63,-85,156,200,73,39,-136,-165
-136,-136,0,136,-68,-68,170,200,87,53,-112,-146
-136,-170,-34,153,-51,-102,185,204,102,53,-73,-117
-122,-204,-82,163,-19,-143,200,229,117,82,-43,-87
-122,-195,-73,158,-24,-134,180,204,102,68,-92,-122
-126,-156,-29,141,-48,-92,170,195,92,53,-102,-146
-126,-136,-9,131,-58,-73,151,180,78,39,-122,-175
-126,-151,-24,139,-51,-87,131,151,63,0,-141,-214
-126,-141,-14,134,-56,-78,141,175,92,34,-122,-195
-131,-136,-4,134,-63,-70,151,180,117,58,-102,-175
-136,-112,24,124,-80,-43,156,195,141,78,-73,-136
-146,-122,24,134,-85,-48,165,214,170,126,-43,-97
-146,-107,39,126,-92,-34,131,209,165,102,-68,-126
-141,-87,53,114,-97,-17,112,200,161,97,-68,-126
-136,-82,53,109,-95,-14,102,195,156,97,-73,-112
-136,-92,43,114,-90,-24,68,161,151,92,-82,-151
-136,-97,39,117,-87,-29,78,180,180,126,-58,-112
-136,-73,63,104,-100,-4,87,200,200,151,-29,-92
-131,-53,78,92,-104,12,78,200,219,170,-4,-82
-122,-48,73,85,-97,12,102,209,234,195,14,-48
-117,-48,68,82,-92,9,87,185,219,185,14,-53
-112,-24,87,68,-100,31,73,175,219,185,24,-48
-107,-9,97,58,-102,43,58,170,214,180,24,-34
-87,0,87,43,-87,43,39,161,209,175,39,-29
-87,4,92,41,-90,48,58,175,214,195,68,4
-78,19,97,29,-87,58,68,180,234,209,92,34
-68,24,92,21,-80,58,68,185,219,214,92,34
-58,34,92,12,-75,63,87,180,224,229,117,53
-48,53,102,-2,-75,78,73,161,204,219,112,68
-48,63,112,-7,-80,87,53,151,195,204,112,73
-48,68,117,-9,-82,92,39,151,185,190,112,78
-48,78,126,-14,-87,102,24,141,170,175,112,82
-34,78,112,-21,-73,95,39,136,170,180,136,97
-29,82,112,-26,-70,97,48,141,175,185,151,112
-19,92,112,-36,-65,102,53,146,175,190,161,112
-9,102,112,-46,-61,107,58,146,180,200,165,126
0,102,102,-51,-51,102,39,126,170,190,165,131
-4,102,107,-48,-56,104,34,117,161,165,151,131
-4,102,107,-48,-56,104,24,107,151,151,136,136
-4,102,107,-48,-56,104,24,97,141,141,136,136
9,102,92,-56,-41,97,24,97,126,156,141,136
9,92,82,-51,-36,87,48,102,126,156,151,141
0,92,92,-46,-46,92,63,117,126,161,161,146
9,92,82,-51,-36,87,68,122,126,151,151,146
0,87,87,-43,-43,87,73,112,117,136,151,141
0,82,82,-41,-41,82,68,112,117,136,146,136
0,78,78,-39,-39,78,68,107,117,146,146,136
0,82,82,-41,-41,82,73,107,117,141,136,146
4,73,68,-39,-31,70,78,117,107,122,141,131
4,68,63,-36,-29,65,87,117,102,122,141,131
9,68,58,-39,-24,63,97,117,102,122,146,131
39,78,39,-58,0,58,112,117,102,122,156,131
19,73,53,-46,-17,63,112,126,117,122,126,141
4,53,48,-29,-21,51,117,126,117,117,126,136
0,48,48,-24,-24,48,117,126,107,117,126,136
-4,53,58,-24,-31,56,126,126,117,117,126,136
9,68,58,-39,-24,63,122,112,102,117,122,131
0,48,48,-24,-24,48,102,107,87,107,122,126
4,68,63,-36,-29,65,107,107,78,122,126,126
34,78,43,-56,-4,61,102,102,73,112,126,122
14,68,53,-41,-19,61,102,107,82,102,126,126
9,53,43,-31,-17,48,117,107,87,102,126,126
-4,43,48,-19,-26,46,107,107,92,107,126,126
9,24,14,-17,-2,19,107,107,107,112,131,136
24,39,14,-31,4,26,102,92,92,102,126,122
24,58,34,-41,-4,46,87,78,68,92,107,112
29,53,24,-41,2,39,82,87,53,92,112,107
43,58,14,-51,14,36,78,87,39,92,107,102
53,53,0,-53,26,26,78,97,58,97,126,117
29,48,19,-39,4,34,92,107,82,102,131,126
24,24,0,-24,12,12,112,122,78,107,136,136
19,19,0,-19,9,9,92,136,87,122,141,146
4,19,14,-12,-4,17,4,48,4,48,63,78
34,73,39,-53,-2,56,4,78,19,87,112,102
82,112,29,-97,26,70,0,78,39,107,131,112
48,58,9,-53,19,34,29,97,82,141,161,161
4,9,4,-7,0,7,53,136,122,170,200,180
34,48,14,-41,9,31,29,117,131,170,195,190
63,97,34,-80,14,65,19,97,151,190,204,214
34,87,53,-61,-9,70,-19,48,122,156,170,185
0,58,58,-29,-29,58,-58,9,92,146,141,141
43,117,73,-80,-14,95,-48,102,156,239,219,175
131,219,87,-175,21,153,-58,190,229,361,326,224
156,204,48,-180,53,126,-53,248,317,488,453,317
126,170,43,-148,41,107,-39,307,424,644,624,444
161,224,63,-192,48,143,-78,312,517,780,766,551
268,322,53,-295,107,187,-122,346,639,907,897,683
336,380,43,-358,146,212,-185,375,736,1019,1024,800
356,419,63,-387,146,241,-283,297,751,1054,1088,868
434,497,63,-466,185,280,-341,209,722,1073,1185,1000
551,649,97,-600,226,373,-409,92,658,1044,1268,1102
629,746,117,-688,256,431,-488,-58,566,941,1278,1185
663,736,73,-700,295,405,-507,-151,414,761,1215,1224
702,732,29,-717,336,380,-551,-229,151,434,1034,1185
780,780,0,-780,390,390,-610,-356,-117,82,829,1127
761,829,68,-795,346,448,-653,-536,-341,-204,658,1083
556,756,200,-656,178,478,-688,-800,-580,-517,380,858
307,561,253,-434,26,407,-570,-907,-766,-761,29,483
112,414,302,-263,-95,358,-366,-878,-854,-912,-278,73
-102,356,458,-126,-280,407,-224,-932,-893,-1024,-527,-190
-326,244,570,41,-448,407,-82,-912,-893,-1073,-644,-278
-424,126,551,148,-488,339,0,-814,-946,-1146,-732,-322
-370,112,483,129,-427,297,-19,-751,-985,-1195,-790,-341
-322,126,448,97,-385,287,-9,-629,-888,-1083,-727,-287
-336,63,400,136,-368,231,-9,-497,-775,-946,-663,-297
-336,-48,287,192,-312,119,-19,-400,-707,-834,-639,-351
-244,-58,185,151,-214,63,24,-239,-595,-668,-541,-312
-136,14,151,61,-143,82,53,-112,-473,-517,-429,-248
-112,-4,107,58,-109,51,87,-19,-336,-370,-307,-175
-141,-68,73,104,-107,2,146,82,-195,-209,-156,-73
-122,-19,102,70,-112,41,170,126,-63,-68,-34,9
-82,53,136,14,-109,95,180,146,43,24,53,87
-97,53,151,21,-124,102,165,126,58,48,68,92
-131,4,136,63,-134,70,87,39,14,0,24,43
-102,9,112,46,-107,61,82,19,14,19,34,43
-82,29,112,26,-97,70,82,24,24,39,48,53
-73,39,112,17,-92,75,87,39,63,63,68,73
-58,43,102,7,-80,73,92,53,82,92,87,73
-29,48,78,-9,-53,63,97,68,82,97,92,73
-58,34,92,12,-75,63,122,78,92,102,92,68
-68,9,78,29,-73,43,112,82,92,87,78,68
-78,4,82,36,-80,43,112,87,87,78,73,68
-68,14,82,26,-75,48,112,92,87,73,68,68
-63,24,87,19,-75,56,122,87,63,82,68,63
-68,19,87,24,-78,53,131,87,82,73,58,63
-63,19,82,21,-73,51,165,92,92,87,68,63
-34,19,53,7,-43,36,156,92,92,102,73,63
-53,4,58,24,-56,31,180,112,102,92,68,73
-68,0,68,34,-68,34,185,117,102,78,68,73
-78,-14,63,46,-70,24,190,112,97,73,48,68
-58,-4,53,31,-56,24,190,117,92,73,58,68
-43,-4,39,24,-41,17,175,112,68,78,68,53
-39,-14,24,26,-31,4,161,102,58,63,48,43
-34,-14,19,24,-26,2,170,112,78,82,58,39
-14,-9,4,12,-9,-2,170,126,78,82,58,34
-34,-14,19,24,-26,2,161,117,92,78,58,48
-48,-29,19,39,-34,-4,180,117,107,87,68,58
-53,-43,9,48,-31,-17,180,117,87,78,68,63
-48,-48,0,48,-24,-24,180,112,87,78,68,68
-39,-29,9,34,-24,-9,161,102,68,73,58,58
-43,-29,14,36,-29,-7,131,73,39,34,39,29
-43,-29,14,36,-29,-7,112,82,39,39,29,19
-39,-24,14,31,-26,-4,112,73,24,29,19,9
-24,-29,-4,26,-9,-17,112,73,34,29,34,19
-48,-43,4,46,-26,-19,126,92,48,53,48,43
-58,-58,0,58,-29,-29,136,102,63,58,53,43
-63,-63,0,63,-31,-31,126,112,58,58,58,53
-34,-48,-14,41,-9,-31,107,92,39,43,43,34
-29,-34,-4,31,-12,-19,82,73,14,29,24,14
-39,-29,9,34,-24,-9,53,58,4,24,14,4
-34,-34,0,34,-17,-17,34,48,0,29,14,4
-29,-24,4,26,-17,-9,19,68,19,43,39,19
-29,-29,0,29,-14,-14,48,78,34,58,48,34
-43,-39,4,41,-24,-17,53,87,48,63,58,43
-48,-43,4,46,-26,-19,53,92,58,63,58,58
-39,-43,-4,41,-17,-24,34,73,53,39,53,48
-19,-39,-19,29,0,-29,19,58,39,29,34,34
-24,-39,-14,31,-4,-26,-9,29,4,4,0,4
-29,-39,-9,34,-9,-24,-24,34,-9,9,0,4
-4,-39,-34,21,14,-36,-19,58,9,29,29,9
-9,-43,-34,26,12,-39,-14,68,29,48,39,24
-29,-48,-19,39,-4,-34,0,87,48,68,58,53
-34,-48,-14,41,-9,-31,4,87,63,82,68,58
-24,-29,-4,26,-9,-17,-14,63,43,48,43,34
-14,-24,-9,19,-2,-17,-34,48,34,34,29,19
-4,-24,-19,14,7,-21,-68,9,0,14,9,-9
-4,-19,-14,12,4,-17,-87,14,-19,0,-4,0
24,-19,-43,-2,34,-31,-63,39,0,24,14,4
24,-14,-39,-4,31,-26,-53,53,19,39,29,14
9,-14,-24,2,17,-19,-34,68,43,68,58,48
0,-14,-14,7,7,-14,-19,78,63,82,73,68
4,-14,-19,4,12,-17,-43,58,58,58,48,58
14,0,-14,-7,14,-7,-48,58,39,43,34,39
19,14,-4,-17,12,4,-82,19,4,19,4,-4
14,-4,-19,-4,17,-12,-97,-9,-24,-4,-9,-24
4,-14,-19,4,12,-17,-68,39,4,24,14,0
4,-14,-19,4,12,-17,-48,53,24,43,34,19
-14,-14,0,14,-7,-7,-24,68,53,68,58,39
-39,-34,4,36,-21,-14,0,82,78,92,78,53
-43,-43,0,43,-21,-21,-4,58,53,73,48,29
-39,-19,19,29,-29,0,-9,48,43,63,34,19
-43,-14,29,29,-36,7,-9,34,29,43,14,4
-58,-9,48,34,-53,19,-43,9,9,24,-19,-29
-58,-9,48,34,-53,19,-9,24,34,43,-4,-4
-48,-14,34,31,-41,9,14,43,48,53,4,-4
-63,-19,43,41,-53,12,48,63,63,68,19,4
-63,-43,19,53,-41,-12,78,87,78,82,39,14
-73,-43,29,58,-51,-7,73,73,63,63,24,0
-73,-39,34,56,-53,-2,73,68,68,63,9,-9
-73,-39,34,56,-53,-2,73,63,63,53,-9,-19
-78,-48,29,63,-53,-9,63,43,48,29,-34,-43
-87,-39,48,63,-68,4,92,68,73,48,-19,-34
-78,-48,29,63,-53,-9,102,82,78,63,-9,-34
-78,-34,43,56,-61,4,112,102,102,78,4,-24
-78,-58,19,68,-48,-19,131,112,122,92,19,-4
-102,-63,39,82,-70,-12,117,97,107,73,-4,-29
-102,-63,39,82,-70,-12,112,97,107,63,-14,-39
-97,-58,39,78,-68,-9,107,107,102,58,-24,-48
-97,-58,39,78,-68,-9,87,82,92,58,-43,-73
-53,-9,43,31,-48,17,87,82,82,63,-24,-87
-102,-82,19,92,-61,-31,136,126,131,102,4,-48
-136,-122,14,129,-75,-53,175,185,170,126,24,-29
-107,-97,9,102,-58,-43,175,185,175,117,4,-34
-97,-78,19,87,-58,-29,185,195,175,107,-9,-29
-102,-82,19,92,-61,-31,180,180,156,82,-39,-53
-107,-87,19,97,-63,-34,175,165,136,68,-58,-78
-112,-92,19,102,-65,-36,170,151,117,53,-78,-102
-117,-97,19,107,-68,-39,165,136,97,39,-97,-126
-117,-112,4,114,-61,-53,185,156,122,53,-78,-117
-126,-97,29,112,-78,-34,195,170,136,68,-68,-107
-126,-112,14,119,-70,-48,195,180,151,78,-63,-97
-126,-126,0,126,-63,-63,204,195,165,92,-53,-87
-131,-122,9,126,-70,-56,200,180,146,68,-73,-107
-131,-117,14,124,-73,-51,195,170,131,43,-92,-126
-131,-122,9,126,-70,-56,190,165,117,39,-92,-141
-136,-146,-9,141,-63,-78,185,161,107,29,-78,-141
-136,-151,-14,143,-61,-82,204,175,122,43,-63,-122
-136,-136,0,136,-68,-68,224,190,136,63,-68,-112
-136,-151,-14,143,-61,-82,224,200,151,78,-73,-112
-141,-165,-24,153,-58,-95,229,214,165,92,-92,-126
-141,-151,-9,146,-65,-80,204,209,146,82,-112,-146
-136,-117,19,126,-78,-48,190,190,136,73,-112,-146
-136,-136,0,136,-68,-68,175,175,126,48,-97,-136
-122,-156,-34,139,-43,-95,161,180,117,53,-92,-126
-117,-156,-39,136,-39,-97,165,190,126,78,-97,-112
-117,-126,-9,122,-53,-68,170,195,131,92,-73,-107
-112,-117,-4,114,-53,-61,165,195,131,107,-58,-107
-107,-141,-34,124,-36,-87,161,180,131,97,-43,-117
-97,-136,-39,117,-29,-87,131,161,112,87,-43,-117
-92,-126,-34,109,-29,-80,112,141,107,78,-43,-107
-87,-97,-9,92,-39,-53,87,131,102,63,-34,-78
-87,-102,-14,95,-36,-58,68,126,102,78,-24,-48
-78,-82,-4,80,-36,-43,48,136,102,87,-19,-48
-63,-58,4,61,-34,-26,43,141,102,97,9,-29
-48,-48,0,48,-24,-24,48,151,102,112,34,4
-39,-53,-14,46,-12,-34,29,131,102,122,53,-14
-24,-58,-34,41,4,-46,4,112,92,102,48,9
-19,-34,-14,26,-2,-24,-9,112,82,92,48,14
-9,-14,-4,12,-2,-9,-43,92,73,78,43,9
4,-9,-14,2,9,-12,-43,82,58,68,34,29
0,-19,-19,9,9,-19,-43,78,48,87,48,39
4,-4,-9,0,7,-7,-43,78,53,97,73,48
9,0,-9,-4,9,-4,-43,82,53,102,87,68
29,0,-29,-14,29,-14,-48,82,53,107,117,78
14,9,-4,-12,9,2,-63,68,43,97,117,92
9,19,9,-14,0,14,-68,63,58,92,112,102
4,19,14,-12,-4,17,-82,58,39,78,82,82
0,24,24,-12,-12,24,-78,43,39,73,78,82
0,24,24,-12,-12,24,-58,43,39,87,97,102
0,24,24,-12,-12,24,-53,43,39,87,102,102
0,19,19,-9,-9,19,-43,53,39,87,107,102
0,19,19,-9,-9,19,-34,53,34,87,112,102
-9,14,24,-2,-17,19,-39,34,29,68,97,102
-9,14,24,-2,-17,19,-39,34,29,58,92,102
-4,19,24,-7,-14,21,-43,34,24,48,82,87
0,24,24,-12,-12,24,-48,29,24,43,68,87
9,14,4,-12,2,9,-39,39,19,68,92,92
4,14,9,-9,-2,12,-34,39,14,58,92,92
4,14,9,-9,-2,12,-34,39,9,58,92,97
4,14,9,-9,-2,12,-24,39,4,63,107,97
-4,14,19,-4,-12,17,-39,24,9,73,92,102
-9,4,14,2,-12,9,-29,24,19,68,92,102
-24,4,29,9,-26,17,-29,34,29,68,92,102
-19,4,24,7,-21,14,-39,34,39,53,73,97
-19,14,34,2,-26,24,-29,29,29,63,92,97
-19,24,43,-2,-31,34,-29,24,29,68,97,97
-19,34,53,-7,-36,43,-24,14,29,82,107,102
-19,53,73,-17,-46,63,-14,9,29,82,107,117
-34,43,78,-4,-56,61,-4,19,53,82,107,107
-43,39,82,2,-63,61,9,29,63,92,112,112
-48,39,87,4,-68,63,24,39,78,102,122,117
-29,48,78,-9,-53,63,43,48,92,112,136,122
-43,58,102,-7,-73,80,53,34,82,102,107,117
-53,53,107,0,-80,80,58,29,78,97,107,107
-53,63,117,-4,-85,90,58,24,63,97,107,102
-53,82,136,-14,-95,109,68,19,68,97,107,97
-43,78,122,-17,-82,100,82,34,92,117,122,117
-58,48,107,4,-82,78,82,48,97,117,131,126
-58,58,117,0,-87,87,107,68,107,141,146,141
-34,58,92,-12,-63,75,122,82,122,141,156,151
-43,58,102,-7,-73,80,97,58,112,126,131,131
-48,53,102,-2,-75,78,97,48,97,112,117,117
-63,53,117,4,-90,85,73,39,82,102,102,102
-48,43,92,2,-70,68,58,29,78,92,92,97
-39,48,87,-4,-63,68,78,43,92,117,117,112
-43,58,102,-7,-73,80,78,48,97,122,117,122
-43,43,87,0,-65,65,87,78,112,136,141,136
-34,39,73,-2,-53,56,97,97,126,151,156,151
-19,58,78,-19,-48,68,82,82,112,131,141,141
-39,58,97,-9,-68,78,82,68,112,122,131,126
-39,39,78,0,-58,58,87,58,82,112,122,112
-39,39,78,0,-58,58,53,48,68,112,112,97
-73,0,73,36,-73,36,122,117,131,185,180,165
-63,-14,48,39,-56,17,122,136,136,175,190,161
-14,34,48,-9,-31,41,107,126,136,165,180,161
0,58,58,-29,-29,58,87,107,122,151,161,161
-53,29,82,12,-68,56,24,48,73,92,92,92
-73,9,82,31,-78,46,29,39,73,92,107,92
-4,78,82,-36,-43,80,58,97,102,141,165,136
43,126,82,-85,-19,104,68,107,151,195,200,156
0,78,78,-39,-39,78,107,175,219,283,278,219
-24,58,82,-17,-53,70,126,297,292,385,385,283
43,112,68,-78,-12,90,107,385,356,478,463,322
117,175,58,-146,29,117,82,424,434,595,561,405
126,190,63,-158,31,126,-9,375,463,683,663,453
141,204,63,-173,39,134,-78,341,527,780,775,531
229,292,63,-261,82,178,-73,424,658,946,936,673
336,400,63,-368,136,231,-97,453,775,1078,1083,800
366,458,92,-412,136,275,-136,424,839,1190,1234,966
395,497,102,-446,146,300,-185,356,810,1220,1361,1127
502,600,97,-551,202,348,-283,200,717,1141,1395,1220
610,707,97,-658,256,402,-370,39,614,990,1356,1263
644,727,82,-685,280,405,-468,-122,385,702,1185,1215
653,683,29,-668,312,356,-580,-317,24,287,927,1088
692,692,0,-692,346,346,-619,-463,-263,-24,761,1039
692,780,87,-736,302,434,-634,-663,-478,-263,629,995
517,727,209,-622,153,468,-600,-858,-639,-497,400,810
248,453,204,-351,21,329,-424,-858,-766,-692,87,453
4,258,253,-131,-124,256,-239,-849,-873,-893,-248,53
-180,219,400,-19,-290,309,-136,-902,-902,-1005,-468,-161
-326,175,502,75,-414,339,-82,-922,-932,-1073,-624,-278
-414,48,463,183,-439,256,-107,-932,-1063,-1234,-819,-429
-409,-24,385,217,-397,180,-126,-878,-1093,-1273,-878,-458
-331,19,351,156,-341,185,-97,-736,-995,-1141,-775,-395
-287,14,302,136,-295,158,-78,-566,-844,-956,-663,-356
-297,-107,190,202,-244,41,-9,-380,-688,-766,-551,-302
-273,-175,97,224,-185,-39,14,-209,-575,-610,-463,-263
-175,-131,43,153,-109,-43,4,-92,-473,-478,-390,-229
-92,-82,9,87,-51,-36,19,9,-346,-361,-287,-165
-102,-87,14,95,-58,-36,-9,-4,-283,-307,-234,-151
-141,-107,34,124,-87,-36,-24,-29,-219,-234,-180,-117
-102,-63,39,82,-70,-12,24,29,-112,-112,-63,-39
-39,4,43,17,-41,24,19,39,-48,-39,0,-4
-53,-24,29,39,-41,2,19,29,-14,0,43,43
-102,-68,34,85,-68,-17,53,87,24,48,92,82
-82,-58,24,70,-53,-17,29,73,4,39,73,68
-82,-48,34,65,-58,-7,19,68,34,43,68,73
-78,-43,34,61,-56,-4,9,63,43,53,63,58
-58,-39,19,48,-39,-9,0,58,34,39,43,43
-87,-34,53,61,-70,9,14,48,19,48,58,39
-87,-48,39,68,-63,-4,4,43,14,39,48,39
-87,-43,43,65,-65,0,4,39,4,34,48,39
-68,-24,43,46,-56,9,4,34,0,34,48,39
-78,-24,53,51,-65,14,19,43,0,39,53,48
-87,-29,58,58,-73,14,24,48,24,34,48,53
-87,-29,58,58,-73,14,53,58,39,53,63,58
-63,-29,34,46,-48,2,39,63,43,73,73,63
-82,-24,58,53,-70,17,58,58,48,58,58,53
-97,-29,68,63,-82,19,58,48,43,39,48,43
-107,-43,63,75,-85,9,58,29,34,29,19,29
-87,-34,53,61,-70,9,53,19,24,24,19,19
-97,-14,82,56,-90,34,63,39,29,43,34,39
-97,-24,73,61,-85,24,63,43,39,43,29,43
-97,-24,73,61,-85,24,87,68,78,78,53,53
-82,-19,63,51,-73,21,102,97,97,92,68,63
-97,-4,92,51,-95,43,97,78,87,78,53,53
-107,-9,97,58,-102,43,112,58,87,78,58,48
-107,-14,92,61,-100,39,107,39,53,58,53,39
-97,-9,87,53,-92,39,102,14,39,48,48,29
-97,-14,82,56,-90,34,112,34,53,73,58,48
-102,-19,82,61,-92,31,102,34,48,43,48,39
-102,-24,78,63,-90,26,102,73,73,58,48,48
-97,-24,73,61,-85,24,122,92,82,58,48,58
-82,-9,73,46,-78,31,107,63,68,34,43,48
-107,-14,92,61,-100,39,107,53,68,53,48,53
-117,-19,97,68,-107,39,102,34,68,53,43,34
-122,-14,107,68,-114,46,78,14,48,48,39,24
-102,-19,82,61,-92,31,92,29,68,63,48,43
-97,-14,82,56,-90,34,92,43,63,68,53,43
-107,-19,87,63,-97,34,87,63,73,82,68,53
-102,-34,68,68,-85,17,92,87,87,107,92,73
-97,-9,87,53,-92,39,48,73,78,87,82,58
-97,-9,87,53,-92,39,58,58,73,87,68,43
-112,-14,97,63,-104,41,43,43,68,78,53,24
-117,-14,102,65,-109,43,24,24,58,63,29,9
-112,-24,87,68,-100,31,39,43,82,68,53,34
-97,-29,68,63,-82,19,48,58,87,78,53,43
-107,-39,68,73,-87,14,43,58,73,73,39,39
-117,-48,68,82,-92,9,53,92,78,97,58,63
-97,-43,53,70,-75,4,39,73,63,78,48,29
-97,-43,53,70,-75,4,34,58,48,58,29,14
-112,-43,68,78,-90,12,39,53,34,39,19,14
-112,-39,73,75,-92,17,34,29,14,14,0,-9
-107,-43,63,75,-85,9,48,53,24,19,4,0
-102,-53,48,78,-75,-2,63,68,43,34,19,9
-97,-68,29,82,-63,-19,63,58,39,43,29,4
-102,-78,24,90,-63,-26,78,92,48,58,43,39
-82,-87,-4,85,-39,-46,58,87,34,43,24,4
-82,-82,0,82,-41,-41,43,73,19,29,9,-14
-97,-82,14,90,-56,-34,39,58,9,29,9,-9
-107,-82,24,95,-65,-29,29,39,-4,14,-4,-19
-102,-102,0,102,-51,-51,43,63,24,34,14,0
-92,-97,-4,95,-43,-51,68,97,29,43,24,9
-87,-92,-4,90,-41,-48,63,92,19,43,19,-4
-92,-122,-29,107,-31,-75,78,97,14,43,29,4
-78,-117,-39,97,-19,-78,73,107,9,34,4,-9
-63,-112,-48,87,-7,-80,68,102,4,24,-4,-19
-68,-107,-39,87,-14,-73,68,97,9,19,-9,-29
-78,-122,-43,100,-17,-82,68,92,9,14,-19,-43
-68,-131,-63,100,-2,-97,87,102,24,29,-9,-34
-58,-107,-48,82,-4,-78,97,117,34,43,4,-19
-58,-102,-43,80,-7,-73,112,126,39,48,14,-9
-68,-97,-29,82,-19,-63,92,126,39,53,9,-19
-73,-102,-29,87,-21,-65,87,112,29,34,-4,-19
-68,-102,-34,85,-17,-68,82,112,29,24,-14,-34
-87,-102,-14,95,-36,-58,87,112,29,19,-19,-39
-92,-122,-29,107,-31,-75,87,117,29,14,-19,-43
-97,-122,-24,109,-36,-73,92,117,39,29,0,-34
-102,-117,-14,109,-43,-65,92,117,58,53,9,-29
-107,-117,-9,112,-48,-63,92,117,68,68,14,-24
-117,-126,-9,122,-53,-68,82,102,68,68,14,-34
-126,-136,-9,131,-58,-73,82,107,63,53,0,-48
-117,-146,-29,131,-43,-87,82,102,48,43,-19,-63
-117,-131,-14,124,-51,-73,82,102,53,34,-34,-68
-117,-156,-39,136,-39,-97,92,92,53,24,-48,-63
-136,-156,-19,146,-58,-87,102,97,58,29,-39,-68
-141,-151,-9,146,-65,-80,112,107,68,34,-34,-68
-141,-141,0,141,-70,-70,122,126,73,43,-29,-68
-146,-136,9,141,-78,-63,117,112,73,58,-34,-82
-151,-146,4,148,-78,-70,102,117,73,43,-39,-78
-151,-122,29,136,-90,-46,117,117,73,43,-43,-78
-136,-112,24,124,-80,-43,112,112,73,39,-68,-87
-136,-107,29,122,-82,-39,126,107,78,29,-73,-92
-156,-141,14,148,-85,-63,141,136,78,19,-87,-102
-165,-151,14,158,-90,-68,161,141,78,19,-102,-107
-156,-161,-4,158,-75,-82,165,146,78,19,-102,-112
-156,-170,-14,163,-70,-92,175,151,68,9,-112,-141
-175,-195,-19,185,-78,-107,175,141,68,19,-107,-141
-175,-195,-19,185,-78,-107,175,151,73,34,-107,-126
-165,-195,-29,180,-68,-112,175,156,73,24,-107,-151
-165,-200,-34,183,-65,-117,175,156,73,19,-117,-156
-175,-195,-19,185,-78,-107,180,180,73,29,-102,-146
-185,-185,0,185,-92,-92,190,161,73,19,-126,-161
-175,-161,14,168,-95,-73,190,161,73,19,-122,-161
-175,-165,9,170,-92,-78,190,161,73,29,-117,-161
-185,-165,19,175,-102,-73,180,170,78,24,-122,-156
-185,-165,19,175,-102,-73,180,180,87,24,-122,-151
-180,-146,34,163,-107,-56,180,180,97,24,-126,-151
-180,-156,24,168,-102,-65,180,185,117,29,-131,-156
-185,-165,19,175,-102,-73,175,180,112,19,-141,-170
-185,-165,19,175,-102,-73,170,175,107,19,-141,-185
-180,-165,14,173,-97,-75,161,170,92,14,-146,-180
-170,-161,9,165,-90,-75,156,165,102,14,-146,-185
-180,-161,19,170,-100,-70,146,170,112,39,-126,-165
-180,-161,19,170,-100,-70,146,180,126,58,-112,-151
-175,-161,14,168,-95,-73,151,190,136,78,-82,-131
-165,-146,19,156,-92,-63,151,200,151,102,-48,-117
-156,-136,19,146,-87,-58,122,190,151,97,-63,-112
-156,-131,24,143,-90,-53,107,185,131,87,-68,-117
-146,-122,24,134,-85,-48,92,180,122,63,-73,-122
-136,-102,34,119,-85,-34,82,175,131,78,-78,-117
-117,-112,4,114,-61,-53,73,185,151,92,-43,-73
-136,-122,14,129,-75,-53,78,180,156,112,-9,-53
-117,-102,14,109,-65,-43,92,219,161,122,9,-39
-102,-87,14,95,-58,-36,87,209,165,131,19,-14
-87,-73,14,80,-51,-29,53,200,146,117,29,-14
-87,-53,34,70,-61,-9,34,180,131,126,48,9
-82,-39,43,61,-63,2,24,151,112,131,68,14
-63,-29,34,46,-48,2,14,122,122,136,73,43
-68,-34,34,51,-51,0,14,136,141,126,63,63
-68,-43,24,56,-46,-9,24,136,117,122,73,63
-58,-39,19,48,-39,-9,34,165,122,117,92,73
-43,-43,0,43,-21,-21,24,190,126,112,107,92
-24,-39,-14,31,-4,-26,9,146,82,97,92,87
-24,-39,-14,31,-4,-26,0,131,82,87,92,87
-24,-24,0,24,-12,-12,-14,112,68,92,87,68
-24,-24,0,24,-12,-12,-29,97,53,102,68,58
-9,-24,-14,17,2,-19,-19,122,87,112,112,97
-19,-19,0,19,-9,-9,-14,117,78,112,126,107
-29,-14,14,21,-21,0,-4,117,68,107,141,117
-9,-4,4,7,-7,0,14,136,82,131,156,126
0,9,9,-4,-4,9,0,122,63,97,136,112
0,9,9,-4,-4,9,-4,112,53,82,117,112
-9,4,14,2,-12,9,-9,97,39,68,92,87
-19,0,19,9,-19,9,-19,82,29,58,73,63
-19,0,19,9,-19,9,4,102,68,92,107,92
-19,0,19,9,-19,9,34,112,87,112,122,107
-24,-4,19,14,-21,7,39,122,92,122,141,122
-34,-4,29,19,-31,12,43,131,97,126,156,136
-14,-4,9,9,-12,2,24,122,82,97,122,117
-34,-14,19,24,-26,2,9,107,68,78,92,102
-48,-14,34,31,-41,9,4,97,58,78,87,82
-53,-9,43,31,-48,17,-4,78,53,68,73,68
-39,-14,24,26,-31,4,9,102,78,82,92,82
-53,-24,29,39,-41,2,24,117,87,97,107,102
-68,-34,34,51,-51,0,43,131,97,107,122,122
-58,-43,14,51,-36,-14,68,156,107,107,126,126
-58,-29,29,43,-43,0,63,131,87,87,97,112
-63,-29,34,46,-48,2,48,102,63,82,87,87
-73,-34,39,53,-56,2,53,78,53,78,78,73
-78,-34,43,56,-61,4,48,53,43,68,63,58
-78,-34,43,56,-61,4,73,58,58,73,73,68
-78,-24,53,51,-65,14,92,78,73,87,92,82
-82,-43,39,63,-61,-2,107,82,82,92,102,92
-82,-58,24,70,-53,-17,122,87,92,97,102,102
-87,-39,48,63,-68,4,102,78,87,92,112,97
-82,-29,53,56,-68,12,87,53,68,78,92,87
-82,-19,63,51,-73,21,73,29,48,63,78,73
-92,-19,73,56,-82,26,58,4,24,58,68,58
-102,-43,58,73,-80,7,73,19,53,63,73,73
-92,-24,68,58,-80,21,82,34,68,78,92,78
-92,-24,68,58,-80,21,87,43,73,92,107,92
-102,-34,68,68,-85,17,92,48,82,97,112,102
-102,-24,78,63,-90,26,82,43,78,92,107,97
-97,-4,92,51,-95,43,73,34,78,82,92,92
-87,-14,73,51,-80,29,58,9,53,58,73,78
-87,-24,63,56,-75,19,34,0,48,48,58,73
-68,43,112,12,-90,78,58,-9,58,73,73,63
-97,-24,73,61,-85,24,87,24,87,73,82,87
-126,-78,48,102,-87,-14,122,82,117,97,107,107
-112,-58,53,85,-82,-2,87,82,122,107,102,107
-78,-9,68,43,-73,29,68,78,117,117,117,126
-87,-4,82,46,-85,39,48,58,102,107,117,117
-87,0,87,43,-87,43,29,39,87,107,117,107
-87,4,92,41,-90,48,9,19,73,107,117,97
-87,9,97,39,-92,53,-9,0,58,107,117,87
-87,4,92,41,-90,48,14,14,73,117,117,102
-87,0,87,43,-87,43,29,29,78,117,117,107
-87,-4,82,46,-85,39,43,43,82,117,117,112
-87,-9,78,48,-82,34,58,58,87,117,117,117
-78,0,78,39,-78,39,39,48,63,92,102,102
-78,0,78,39,-78,39,29,39,48,78,87,87
-78,0,78,39,-78,39,19,29,34,63,73,73
-78,0,78,39,-78,39,9,19,19,48,58,58
-87,-19,68,53,-78,24,24,43,34,63,73,78
-87,-29,58,58,-73,14,39,58,48,78,87,87
-87,-39,48,63,-68,4,53,73,63,92,102,97
-87,-48,39,68,-63,-4,68,87,78,107,117,107
-78,-34,43,56,-61,4,53,78,63,97,107,102
-78,-29,48,53,-63,9,39,68,58,97,107,97
-78,-24,53,51,-65,14,24,58,53,97,107,92
-78,-19,58,48,-68,19,9,48,48,97,107,87
-78,-24,53,51,-65,14,29,63,63,102,112,92
-78,-29,48,53,-63,9,39,68,68,107,117,97
-78,-34,43,56,-61,4,48,73,73,112,122,102
-78,-39,39,58,-58,0,58,78,78,117,126,107
-78,-48,29,63,-53,-9,48,63,68,92,102,92
-78,-48,29,63,-53,-9,48,58,58,78,87,78
-78,-48,29,63,-53,-9,48,53,48,63,73,63
-78,-48,29,63,-53,-9,48,48,39,48,58,48
-63,-48,14,56,-39,-17,63,58,43,53,58,53
-58,-48,9,53,-34,-19,68,68,48,58,58,58
-53,-48,4,51,-29,-21,73,78,53,63,58,63
-48,-48,0,48,-24,-24,78,87,58,68,58,68
-34,-48,-14,41,-9,-31,68,82,48,78,63,68
-29,-48,-19,39,-4,-34,58,78,48,78,68,68
-24,-48,-24,36,0,-36,48,73,48,78,73,68
-19,-48,-29,34,4,-39,39,68,48,78,78,68
-24,-43,-19,34,-2,-31,58,82,63,82,87,73
-29,-39,-9,34,-9,-24,78,87,68,87,97,78
-34,-34,0,34,-17,-17,97,92,73,92,107,82
-39,-29,9,34,-24,-9,117,97,78,97,117,87
-53,-39,14,46,-34,-12,112,97,87,87,102,78
-58,-39,19,48,-39,-9,107,97,87,87,97,78
-63,-39,24,51,-43,-7,102,97,87,87,92,78
-68,-39,29,53,-48,-4,97,97,87,87,87,78
-68,-34,34,51,-51,0,117,107,87,87,78,78
-68,-29,39,48,-53,4,126,107,87,87,78,78
-68,-24,43,46,-56,9,136,107,87,87,78,78
-68,-19,48,43,-58,14,146,107,87,87,78,78
-78,-24,53,51,-65,14,146,112,87,73,73,68
-78,-29,48,53,-63,9,146,117,87,68,68,68
-78,-34,43,56,-61,4,146,122,87,63,63,68
-78,-39,39,58,-58,0,146,126,87,58,58,68
-78,-48,29,63,-53,-9,136,112,82,73,73,58
-78,-48,29,63,-53,-9,136,107,78,78,78,58
-78,-48,29,63,-53,-9,136,102,73,82,82,58
-78,-48,29,63,-53,-9,136,97,68,87,87,58
-78,-43,34,61,-56,-4,126,87,78,87,97,63
-78,-39,39,58,-58,0,117,87,78,87,97,68
-78,-34,43,56,-61,4,107,87,78,87,97,73
-78,-29,48,53,-63,9,97,87,78,87,97,78
-87,-19,68,53,-78,24,87,78,68,68,78,68
-87,-19,68,53,-78,24,78,68,58,58,68,58
-87,-19,68,53,-78,24,68,58,48,48,58,48
-87,-19,68,53,-78,24,58,48,39,39,48,39
-87,-19,68,53,-78,24,68,63,48,63,63,53
-87,-19,68,53,-78,24,68,68,58,78,78,68
-87,-19,68,53,-78,24,68,73,68,92,92,82
-87,-19,68,53,-78,24,68,78,78,107,107,97
-87,-29,58,58,-73,14,53,58,58,78,82,73
-87,-29,58,58,-73,14,48,48,48,58,58,58
-87,-29,58,58,-73,14,43,39,39,39,34,43
-87,-29,58,58,-73,14,39,29,29,19,9,29
-92,-48,43,70,-68,-2,53,43,53,43,29,43
-97,-58,39,78,-68,-9,58,58,68,58,48,58
-102,-68,34,85,-68,-17,63,73,82,73,68,73
-107,-78,29,92,-68,-24,68,87,97,87,87,87
-92,-63,29,78,-61,-17,48,58,73,78,73,78
-87,-48,39,68,-63,-4,29,39,58,68,68,68
-82,-34,48,58,-65,7,9,19,43,58,63,58
-78,-19,58,48,-68,19,-9,0,29,48,58,48
-82,-34,48,58,-65,7,4,29,43,63,82,73
-87,-39,48,63,-68,4,19,48,58,78,97,87
-92,-43,48,68,-70,2,34,68,73,92,112,102
-97,-48,48,73,-73,0,48,87,87,107,126,117
-87,-39,48,63,-68,4,43,68,68,82,102,92
-87,-39,48,63,-68,4,39,48,48,68,87,78
-87,-39,48,63,-68,4,34,29,29,53,73,63
-87,-39,48,63,-68,4,29,9,9,39,58,48
-87,-48,39,68,-63,-4,48,34,34,53,63,58
-87,-58,29,73,-58,-14,68,58,48,58,68,68
-87,-68,19,78,-53,-24,87,82,63,63,73,78
-87,-78,9,82,-48,-34,107,107,78,68,78,87
-97,-73,24,85,-61,-24,82,82,53,63,73,68
-97,-68,29,82,-63,-19,68,68,39,58,68,58
-97,-63,34,80,-65,-14,53,53,24,53,63,48
-97,-58,39,78,-68,-9,39,39,9,48,58,39
-87,-73,14,80,-51,-29,63,58,29,73,73,53
-87,-78,9,82,-48,-34,78,78,48,87,87,68
-87,-82,4,85,-46,-39,92,97,68,102,102,82
-87,-87,0,87,-43,-43,107,117,87,117,117,97
-97,-87,9,92,-53,-39,87,92,68,82,92,78
-97,-87,9,92,-53,-39,78,78,48,58,68,58
-97,-87,9,92,-53,-39,68,63,29,34,43,39
-97,-87,9,92,-53,-39,58,48,9,9,19,19
-92,-87,4,90,-48,-41,78,68,24,34,48,43
-87,-87,0,87,-43,-43,87,78,39,58,68,58
-82,-87,-4,85,-39,-46,97,87,53,82,87,73
-68,-87,-19,78,-24,-53,107,102,68,107,107,87
-73,-63,9,68,-41,-26,92,87,53,87,87,73
-68,-68,0,68,-34,-34,68,68,39,63,63,58
-63,-73,-9,68,-26,-41,53,53,24,43,43,43
-63,-58,4,61,-34,-26,39,39,4,24,24,29
-58,-53,4,56,-31,-24,58,48,24,24,29,43
-53,-58,-4,56,-24,-31,68,63,34,43,53,53
-53,-82,-29,68,-12,-56,78,78,48,58,92,78
-48,-87,-39,68,-4,-63,87,92,58,68,107,92
-53,-68,-14,61,-19,-41,92,87,53,68,92,87
-58,-78,-19,68,-19,-48,78,78,48,63,78,73
-68,-87,-19,78,-24,-53,68,73,43,58,48,43
-73,-73,0,73,-36,-36,63,78,39,63,43,29
-78,-39,39,58,-58,0,92,82,48,68,58,53
-87,-58,29,73,-58,-14,112,82,58,58,87,78
-82,-78,4,80,-43,-36,131,102,68,78,107,102
-92,-78,14,85,-53,-31,151,112,78,92,92,107
-107,-39,68,73,-87,14,136,97,78,92,92,87
-107,-29,78,68,-92,24,122,87,73,92,82,73
-107,-53,53,80,-80,0,107,63,68,68,73,48
-102,-53,48,78,-75,-2,102,53,58,53,63,29
-102,-63,39,82,-70,-12,92,48,63,68,78,39
-102,-43,58,73,-80,7,87,53,68,68,92,68
-107,-58,48,82,-78,-4,87,63,78,97,107,97
-107,-63,43,85,-75,-9,73,78,82,97,97,87
-112,-39,73,75,-92,17,63,63,73,78,82,82
-107,-39,68,73,-87,14,63,63,63,73,73,92
-107,-53,53,80,-80,0,39,34,53,63,58,48
-107,-63,43,85,-75,-9,29,24,43,53,43,53
-107,-48,58,78,-82,4,34,39,48,58,63,63
-102,-39,63,70,-82,12,19,34,53,58,68,53
-92,-43,48,68,-70,2,39,39,53,63,68,68
-102,-63,39,82,-70,-12,43,39,58,73,73,58
-112,-43,68,78,-90,12,34,34,63,73,78,58
-112,-34,78,73,-95,21,24,34,63,68,73,68
-97,-29,68,63,-82,19,9,29,63,63,82,68
-107,-19,87,63,-97,34,0,24,63,63,82,73
-102,-14,87,58,-95,36,4,29,87,78,92,82
-97,-19,78,58,-87,29,0,34,68,73,68,63
-92,-19,73,56,-82,26,14,29,68,78,68,63
-87,-24,63,56,-75,19,19,34,68,87,73,73
-92,-24,68,58,-80,21,4,39,82,102,82,82
-97,-29,68,63,-82,19,4,53,87,107,92,82
-102,-29,73,65,-87,21,4,58,87,112,102,82
-107,-34,73,70,-90,19,4,53,87,112,112,82
-97,-19,78,58,-87,29,24,43,87,97,102,73
-92,-9,82,51,-87,36,29,43,82,82,87,58
-87,0,87,43,-87,43,34,39,82,73,68,58
-87,4,92,41,-90,48,39,39,82,78,73,73
-102,0,102,51,-102,51,43,53,87,87,87,78
-102,-4,97,53,-100,46,43,58,92,97,92,87
-102,-9,92,56,-97,41,53,63,97,112,112,92
-97,-14,82,56,-90,34,39,63,97,122,102,92
-107,-14,92,61,-100,39,48,48,82,97,87,87
-117,-14,102,65,-109,43,48,53,78,87,82,82
-107,-14,92,61,-100,39,39,48,73,63,58,73
-107,-14,92,61,-100,39,48,43,68,53,63,68
-97,-24,73,61,-85,24,63,58,78,73,82,82
-97,-24,73,61,-85,24,73,68,87,102,107,92
-97,-14,82,56,-90,34,87,82,97,117,122,112
-97,-14,82,56,-90,34,78,97,107,122,131,102
-102,-19,82,61,-92,31,63,82,82,107,112,82
-102,-19,82,61,-92,31,58,68,73,92,97,73
-78,-9,68,43,-73,29,58,53,63,78,87,63
-92,-9,82,51,-87,36,53,39,58,63,48,53
-102,-24,78,63,-90,26,63,58,78,73,68,68
-102,-24,78,63,-90,26,68,78,78,78,78,78
-102,-14,87,58,-95,36,82,97,97,82,87,87
-92,-14,78,53,-85,31,87,117,107,87,92,97
-107,-43,63,75,-85,9,82,92,78,68,87,78
-107,-34,73,70,-90,19,92,82,63,82,87,73
-82,-34,48,58,-65,7,92,68,53,73,82,63
-92,-39,53,65,-73,7,92,48,48,73,78,48
-97,-53,43,75,-70,-4,112,73,58,87,87,68
-112,-53,58,82,-85,2,107,87,68,97,97,78
-97,-63,34,80,-65,-14,112,102,87,107,112,97
-97,-53,43,75,-70,-4,117,112,97,112,122,107
-102,-39,63,70,-82,12,87,73,63,73,73,68
-102,-48,53,75,-78,2,78,68,48,53,58,43
-92,-48,43,70,-68,-2,68,53,34,34,34,19
-78,-39,39,58,-58,0,58,39,19,14,14,0
-97,-48,48,73,-73,0,92,63,43,34,39,14
-97,-78,19,87,-58,-29,122,82,39,43,53,29
-97,-87,9,92,-53,-39,112,102,48,63,68,43
-92,-87,4,90,-48,-41,122,117,63,78,92,78
-102,-53,48,78,-75,-2,43,19,19,19,43,24
-112,-73,39,92,-75,-17,48,19,19,29,53,34
-68,-9,58,39,-63,24,87,58,43,82,112,63
-34,29,63,2,-48,46,92,39,53,92,122,63
-92,-19,73,56,-82,26,126,78,112,151,156,112
-141,-48,92,95,-117,21,165,146,170,209,195,156
-112,0,112,56,-112,56,156,165,200,214,209,165
-48,58,107,-4,-78,82,156,234,258,263,248,190
-43,68,112,-12,-78,90,136,268,292,307,287,175
-53,43,97,4,-75,70,107,278,317,361,346,195
9,87,78,-48,-34,82,131,346,366,468,473,297
68,161,92,-114,-12,126,117,356,414,585,595,405
73,156,82,-114,-4,119,97,361,497,732,746,541
82,165,82,-124,0,124,102,444,619,897,946,722
170,263,92,-217,39,178,48,473,707,1000,1063,858
278,409,131,-344,73,270,-29,434,790,1063,1166,985
336,497,161,-417,87,329,-126,336,800,1102,1224,1049
326,522,195,-424,65,358,-253,131,707,1015,1200,1054
375,580,204,-478,85,392,-322,-19,566,893,1180,1117
478,668,190,-573,143,429,-390,-170,395,702,1098,1137
527,692,165,-610,180,429,-473,-375,200,453,936,1107
507,663,156,-585,175,409,-512,-492,9,239,839,1127
468,653,185,-561,141,419,-536,-575,-195,58,766,1073
409,580,170,-495,119,375,-473,-624,-317,-117,585,829
258,414,156,-336,51,285,-346,-614,-385,-283,341,473
24,268,244,-146,-109,256,-278,-712,-473,-453,82,151
-219,209,429,4,-324,319,-195,-785,-531,-556,-78,-4
-346,214,561,65,-453,387,-92,-785,-610,-644,-195,-92
-414,204,619,104,-517,412,-78,-824,-712,-746,-312,-156
-478,122,600,178,-539,361,-9,-790,-751,-775,-370,-156
-536,19,556,258,-546,287,68,-678,-771,-839,-463,-209
-502,-24,478,263,-490,226,68,-595,-814,-936,-605,-317
-444,-39,405,241,-424,183,48,-497,-775,-922,-639,-361
-439,-97,341,268,-390,122,34,-424,-732,-873,-639,-419
-458,-200,258,329,-358,29,43,-317,-678,-819,-653,-453
-385,-200,185,292,-285,-7,87,-156,-590,-692,-561,-390
-278,-156,122,217,-200,-17,87,-63,-488,-531,-448,-336
-258,-185,73,222,-165,-56,122,29,-366,-370,-317,-234
-287,-209,78,248,-183,-65,190,165,-239,-229,-190,-136
-253,-151,102,202,-178,-24,185,185,-165,-175,-117,-102
-180,-73,107,126,-143,17,146,156,-82,-117,-82,-73
-161,-58,102,109,-131,21,112,126,-53,-78,-63,-63
-156,-58,97,107,-126,19,92,92,-43,-53,-43,-58
-161,-58,102,109,-131,21,87,78,-4,-24,-19,-34
-161,-63,97,112,-129,17,82,63,14,9,4,-29
-146,-68,78,107,-112,4,78,48,14,19,14,-24
-161,-78,82,119,-122,2,102,78,34,39,29,-4
-156,-97,58,126,-107,-19,92,92,43,29,19,0
-151,-97,53,124,-102,-21,92,107,48,24,19,4
-126,-82,43,104,-85,-19,92,122,58,24,19,9
-126,-68,58,97,-92,-4,73,92,39,34,19,-4
-136,-68,68,102,-102,0,53,78,53,24,19,-4
-136,-63,73,100,-104,4,58,68,58,39,39,-4
-112,-58,53,85,-82,-2,19,53,53,53,53,-4
-122,-68,53,95,-87,-7,53,82,73,73,73,9
-136,-78,58,107,-97,-9,68,97,82,68,78,24
-146,-97,48,122,-97,-24,82,102,87,73,63,34
-126,-92,34,109,-80,-29,92,117,92,82,78,48
-117,-68,48,92,-82,-9,73,97,58,58,63,34
-117,-73,43,95,-80,-14,43,73,39,34,29,14
-117,-68,48,92,-82,-9,39,68,48,43,24,0
-102,-58,43,80,-73,-7,24,68,39,34,9,-14
-117,-58,58,87,-87,0,34,82,58,53,34,4
-126,-68,58,97,-92,-4,63,97,87,78,58,19
-126,-78,48,102,-87,-14,73,112,82,82,73,29
-117,-78,39,97,-78,-19,82,122,97,97,87,39
-117,-58,58,87,-87,0,68,97,78,92,63,29
-122,-58,63,90,-92,2,34,63,48,43,39,0
-122,-58,63,90,-92,2,9,68,48,39,24,-9
-117,-53,63,85,-90,4,4,53,34,19,9,-19
-97,-63,34,80,-65,-14,19,63,53,24,19,-9
-117,-82,34,100,-75,-24,48,82,68,53,39,14
-122,-102,19,112,-70,-41,73,92,82,63,48,14
-122,-112,9,117,-65,-51,78,102,78,68,58,24
-117,-112,4,114,-61,-53,63,87,68,53,34,14
-117,-102,14,109,-65,-43,53,73,43,29,14,-4
-131,-102,29,117,-80,-36,39,63,34,14,4,-14
-131,-112,19,122,-75,-46,34,58,29,9,4,-14
-126,-102,24,114,-75,-39,39,78,39,24,19,-9
-126,-107,19,117,-73,-43,87,87,53,48,29,-4
-141,-117,24,129,-82,-46,112,97,68,63,39,-4
-146,-122,24,134,-85,-48,131,102,78,73,39,0
-146,-97,48,122,-97,-24,122,82,82,43,39,0
-136,-78,58,107,-97,-9,117,68,78,29,14,-4
-151,-63,87,107,-119,12,97,39,53,0,-24,-24
-165,-48,117,107,-141,34,92,43,48,0,-29,-14
-151,-68,82,109,-117,7,112,58,68,19,-4,-14
-156,-82,73,119,-114,-4,122,58,78,39,9,-14
-175,-97,78,136,-126,-9,141,68,87,58,34,0
-180,-107,73,143,-126,-17,151,58,92,73,48,-9
-180,-97,82,139,-131,-7,136,53,78,58,24,-19
-180,-92,87,136,-134,-2,122,48,82,53,19,-19
-180,-92,87,136,-134,-2,92,19,63,43,9,-34
-190,-87,102,139,-146,7,78,34,58,39,4,-9
-161,-97,63,129,-112,-17,92,48,68,29,0,-24
-161,-92,68,126,-114,-12,92,53,68,29,0,-34
-175,-92,82,134,-129,-4,102,58,73,43,14,-19
-185,-92,92,139,-139,0,107,58,73,43,14,-19
-175,-97,78,136,-126,-9,87,58,97,34,9,-19
-170,-78,92,124,-131,7,87,78,97,34,4,-19
-170,-58,112,114,-141,26,58,58,82,24,-14,-43
-180,-73,107,126,-143,17,48,48,73,14,-19,-43
-170,-82,87,126,-129,2,73,63,63,14,-24,-39
-161,-82,78,122,-119,-2,78,63,63,14,-24,-39
-170,-82,87,126,-129,2,87,63,73,19,-19,-39
-185,-102,82,143,-134,-9,97,63,78,24,-19,-43
-175,-107,68,141,-122,-19,92,53,68,19,-29,-43
-165,-87,78,126,-122,-4,97,58,73,24,-24,-39
-165,-87,78,126,-122,-4,107,58,73,19,-24,-39
-175,-87,87,131,-131,0,82,48,68,14,-39,-58
-185,-92,92,139,-139,0,92,39,68,9,-29,-53
-175,-92,82,134,-129,-4,92,43,68,4,-34,-63
-190,-92,97,141,-143,2,102,48,68,4,-34,-63
-190,-112,78,151,-134,-17,107,58,68,4,-29,-63
-185,-97,87,141,-136,-4,102,68,73,19,-19,-63
-180,-87,92,134,-136,2,102,68,87,34,-19,-58
-175,-82,92,129,-134,4,102,68,92,39,-24,-53
-175,-87,87,131,-131,0,92,53,87,29,-34,-63
-185,-97,87,141,-136,-4,102,53,78,14,-43,-73
-175,-107,68,141,-122,-19,102,53,68,14,-48,-82
-175,-92,82,134,-129,-4,102,58,78,14,-48,-82
-175,-117,58,146,-117,-29,112,53,82,14,-48,-73
-180,-122,58,151,-119,-31,117,63,92,9,-58,-78
-180,-122,58,151,-119,-31,122,78,97,4,-63,-78
-175,-117,58,146,-117,-29,126,102,97,4,-68,-78
-175,-117,58,146,-117,-29,117,92,92,9,-82,-92
-190,-136,53,163,-122,-41,102,82,82,-9,-92,-102
-190,-122,68,156,-129,-26,117,78,73,-14,-92,-107
-175,-122,53,148,-114,-34,112,68,63,-24,-112,-122
-175,-126,48,151,-112,-39,126,58,58,-39,-112,-131
-185,-161,24,173,-104,-68,136,97,63,-34,-102,-122
-195,-161,34,178,-114,-63,151,112,68,-29,-112,-117
-185,-161,24,173,-104,-68,151,126,73,-24,-107,-112
-185,-161,24,173,-104,-68,156,141,68,-29,-112,-131
-195,-161,34,178,-114,-63,146,122,48,-39,-126,-146
-195,-156,39,175,-117,-58,136,112,43,-24,-126,-136
-185,-151,34,168,-109,-58,126,97,34,-34,-126,-165
-185,-151,34,168,-109,-58,117,78,24,-39,-136,-175
-195,-165,29,180,-112,-68,151,117,43,-34,-122,-156
-204,-165,39,185,-122,-63,170,112,53,-39,-146,-161
-195,-151,43,173,-119,-53,180,126,63,-34,-141,-151
-195,-165,29,180,-112,-68,190,141,73,-19,-136,-141
-204,-185,19,195,-112,-82,175,122,53,-58,-170,-180
-204,-185,19,195,-112,-82,170,112,39,-73,-190,-200
-200,-165,34,183,-117,-65,165,92,24,-87,-214,-224
-200,-175,24,187,-112,-75,161,78,19,-97,-239,-253
-204,-200,4,202,-104,-97,180,107,39,-87,-229,-229
-204,-204,0,204,-102,-102,200,126,48,-78,-219,-224
-200,-209,-9,204,-95,-109,214,146,48,-73,-214,-200
-190,-209,-19,200,-85,-114,234,165,73,-63,-204,-185
-195,-204,-9,200,-92,-107,214,136,53,-78,-224,-204
-200,-200,0,200,-100,-100,204,122,48,-78,-229,-219
-200,-195,4,197,-102,-95,200,107,39,-78,-219,-229
-195,-175,19,185,-107,-78,190,92,34,-73,-204,-244
-200,-175,24,187,-112,-75,195,122,63,-43,-224,-229
-214,-180,34,197,-124,-73,204,136,63,-39,-224,-224
-219,-180,39,200,-129,-70,214,151,73,-48,-224,-219
-224,-170,53,197,-139,-58,229,165,102,-19,-224,-204
-229,-170,58,200,-143,-56,200,146,92,-39,-239,-204
-253,-180,73,217,-163,-53,185,112,78,-53,-234,-219
-239,-161,78,200,-158,-41,180,122,63,-78,-244,-239
-229,-146,82,187,-156,-31,156,82,48,-102,-263,-248
-239,-165,73,202,-156,-46,161,102,58,-87,-253,-234
-244,-161,82,202,-163,-39,161,112,73,-58,-224,-204
-244,-161,82,202,-163,-39,170,112,82,-34,-195,-195
-229,-165,63,197,-146,-51,180,112,122,-9,-180,-161
-234,-146,87,190,-161,-29,151,87,126,-24,-204,-170
-234,-141,92,187,-163,-24,131,68,87,-34,-209,-190
-224,-122,102,173,-163,-9,112,78,78,-43,-204,-200
-209,-112,97,161,-153,-7,73,82,68,-53,-204,-200
-200,-107,92,153,-146,-7,78,82,68,-34,-175,-170
-200,-107,92,153,-146,-7,87,92,102,-9,-141,-136
-200,-92,107,146,-153,7,92,97,122,29,-112,-122
-200,-92,107,146,-153,7,97,107,141,73,-97,-97
-170,-82,87,126,-129,2,82,97,141,53,-87,-87
-175,-68,107,122,-141,19,63,68,117,34,-87,-87
-180,-53,126,117,-153,36,48,43,92,9,-87,-87
-156,-34,122,95,-139,43,43,39,92,14,-87,-87
-146,-19,126,82,-136,53,53,58,107,19,-68,-73
-146,-19,126,82,-136,53,63,73,122,34,-48,-43
-156,-24,131,90,-143,53,73,82,131,48,-34,-39
-165,-29,136,97,-151,53,78,92,146,68,-14,-34
-141,-19,122,80,-131,51,68,87,151,73,0,-9
-136,-19,117,78,-126,48,73,73,146,73,-4,-9
-136,-24,112,80,-124,43,53,58,126,63,-4,-9
-141,-24,117,82,-129,46,34,43,107,48,-9,-9
-107,-24,82,65,-95,29,39,53,117,68,9,4
-122,-34,87,78,-104,26,39,58,126,78,24,24
-131,-34,97,82,-114,31,48,68,141,107,63,39
-131,-29,102,80,-117,36,53,68,161,126,92,58
-97,-9,87,53,-92,39,34,53,151,122,92,43
-112,-4,107,58,-109,51,14,48,146,136,97,53
-126,0,126,63,-126,63,0,43,141,146,102,63
-117,4,122,56,-119,63,-9,48,136,146,97,58
-112,9,122,51,-117,65,4,48,151,122,78,63
-112,9,122,51,-117,65,0,43,141,112,78,58
-117,4,122,56,-119,63,14,43,146,102,78,63
-117,4,122,56,-119,63,19,43,151,87,73,68
-112,19,131,46,-122,75,43,29,151,87,63,63
-107,34,141,36,-124,87,53,39,151,97,73,63
-107,19,126,43,-117,73,58,34,146,97,73,58
-102,9,112,46,-107,61,63,29,141,97,63,53
-102,0,102,51,-102,51,68,43,161,112,97,73
-92,0,92,46,-92,46,68,34,146,107,92,78
-87,0,87,43,-87,43,68,24,131,102,92,78
-92,-9,82,51,-87,36,68,14,112,107,97,78
-92,-9,82,51,-87,36,58,24,117,97,78,73
-82,14,97,34,-90,56,53,34,126,107,92,68
-82,19,102,31,-92,61,43,39,126,117,102,73
-92,14,107,39,-100,61,34,39,131,117,102,73
-92,0,92,46,-92,46,29,43,126,122,126,87
-87,14,102,36,-95,58,34,43,126,122,122,92
-78,0,78,39,-78,39,34,29,102,107,112,87
-78,-14,63,46,-70,24,24,29,97,107,107,92
-78,-43,34,61,-56,-4,48,78,126,102,102,92
-39,4,43,17,-41,24,39,73,126,92,92,78
-48,0,48,24,-48,24,19,48,87,78,78,68
-58,-9,48,34,-53,19,9,43,82,82,87,68
-58,-9,48,34,-53,19,9,39,78,87,97,68
-58,-9,48,34,-53,19,9,34,73,92,107,68
-58,-9,48,34,-53,19,9,29,68,97,117,68
-43,-19,24,31,-34,2,24,53,78,107,126,78
-48,0,48,24,-48,24,29,63,87,107,126,87
-43,-9,34,26,-39,12,24,68,97,102,122,97
-39,-19,19,29,-29,0,29,78,107,102,122,107
-53,0,53,26,-53,26,14,58,87,82,102,87
-53,9,63,21,-58,36,9,43,73,63,82,78
-53,9,63,21,-58,36,4,34,58,63,82,73
-58,-9,48,34,-53,19,0,24,48,58,97,82
-58,0,58,29,-58,29,19,39,63,82,122,97
-58,19,78,19,-68,48,39,53,78,102,126,112
-58,9,68,24,-63,39,39,63,92,117,131,117
-63,0,63,31,-63,31,43,78,107,131,122,107
-73,14,87,29,-80,51,29,68,92,117,107,92
-68,48,117,9,-92,82,14,34,78,102,102,87
-68,29,97,19,-82,63,0,4,63,73,112,92
-53,9,63,21,-58,36,-14,-4,48,73,112,97
-63,-14,48,39,-56,17,-4,24,58,92,97,107
-68,0,68,34,-68,34,4,48,73,102,112,107
-68,-4,63,36,-65,29,4,68,82,112,117,102
-68,-43,24,56,-46,-9,4,73,92,97,122,87
-73,-43,29,58,-51,-7,0,53,68,82,107,68
-73,-39,34,56,-53,-2,-4,34,58,68,92,58
-73,-14,58,43,-65,21,-14,24,48,48,87,68
-78,-24,53,51,-65,14,-19,19,43,58,82,78
-87,-39,48,63,-68,4,-19,39,53,63,87,63
-82,-29,53,56,-68,12,-4,53,63,78,107,78
-78,-34,43,56,-61,4,19,73,73,97,122,107
-78,-53,24,65,-51,-14,19,63,82,112,131,82
-73,-63,9,68,-41,-26,9,48,73,87,112,87
-68,-43,24,56,-46,-9,9,53,63,73,97,73
-58,-29,29,43,-43,0,-9,39,53,53,78,48
-43,-29,14,36,-29,-7,4,34,39,39,53,48
-58,-53,4,56,-31,-24,14,48,53,48,58,43
-63,-43,19,53,-41,-12,24,58,63,58,73,48
-68,-43,24,56,-46,-9,34,73,68,63,78,63
-58,-48,9,53,-34,-19,39,82,73,68,97,68
-63,-39,24,51,-43,-7,34,68,63,48,82,58
-58,-29,29,43,-43,0,29,63,68,34,63,53
-53,-29,24,41,-39,-2,14,58,39,9,19,19
-48,-24,24,36,-36,0,19,43,29,-4,0,4
-58,-29,29,43,-43,0,39,58,39,14,19,29
-58,-34,24,46,-41,-4,43,63,48,29,34,34
-58,-43,14,51,-36,-14,53,78,58,43,48,39
-58,-48,9,53,-34,-19,63,82,63,58,63,43
-58,-43,14,51,-36,-14,53,63,58,43,58,34
-58,-43,14,51,-36,-14,48,63,58,39,53,34
-53,-39,14,46,-34,-12,39,63,53,34,43,19
-48,-34,14,41,-31,-9,29,58,53,34,29,19
-58,-24,34,41,-46,4,34,58,58,53,58,43
-63,-24,39,43,-51,7,43,58,63,48,63,43
-63,-24,39,43,-51,7,48,58,68,53,68,48
-63,-24,39,43,-51,7,63,58,73,63,87,48
-53,-24,29,39,-41,2,43,48,58,63,68,34
-48,-34,14,41,-31,-9,48,43,58,58,63,34
-53,-34,19,43,-36,-7,43,48,58,58,58,34
-39,-34,4,36,-21,-14,29,43,58,43,34,29
-43,-48,-4,46,-19,-26,43,43,48,39,34,19
-48,-53,-4,51,-21,-29,48,43,48,39,39,19
-53,-58,-4,56,-24,-31,58,39,48,48,48,24
-58,-53,4,56,-31,-24,73,39,48,43,48,39
-43,-48,-4,46,-19,-26,53,39,48,39,53,24
-43,-48,-4,46,-19,-26,48,39,43,43,53,24
-39,-43,-4,41,-17,-24,43,39,43,48,58,24
-9,-29,-19,19,4,-24,43,39,43,53,68,24
-14,-34,-19,24,2,-26,53,39,39,48,34,14
-24,-53,-29,39,2,-41,58,39,39,39,29,9
-24,-58,-34,41,4,-46,58,39,29,34,24,9
-24,-53,-29,39,2,-41,68,39,39,29,19,9
-4,-48,-43,26,19,-46,53,39,53,39,19,19
-19,-68,-48,43,14,-58,34,39,48,29,24,19
-19,-48,-29,34,4,-39,39,43,48,43,34,24
4,-39,-43,17,24,-41,34,43,53,34,39,24
-14,-29,-14,21,0,-21,43,29,58,43,48,24
-19,-34,-14,26,-2,-24,58,29,58,43,48,29
-34,-34,0,34,-17,-17,48,29,58,48,48,34
-19,-43,-24,31,2,-34,48,29,68,53,53,48
-9,-34,-24,21,7,-29,39,34,78,58,58,48
-14,-19,-4,17,-4,-12,29,29,68,53,48,43
-14,-29,-14,21,0,-21,29,48,68,58,63,43
-4,-29,-24,17,9,-26,29,58,68,63,68,43
0,-24,-24,12,12,-24,39,39,63,58,68,39
-29,-29,0,29,-14,-14,53,29,73,53,63,39
-39,-53,-14,46,-12,-34,73,24,53,48,58,39
-48,-58,-9,53,-19,-34,53,19,48,53,53,39
-63,-97,-34,80,-14,-65,112,97,92,87,73,68
-14,-34,-19,24,2,-26,73,78,87,87,73,63
14,-4,-19,-4,17,-12,58,68,87,87,92,73
-19,-29,-9,24,-4,-19,9,19,34,53,63,34
-53,-48,4,51,-29,-21,-14,-19,34,43,43,24
-24,-9,14,17,-19,2,19,9,82,92,97,63
-14,58,73,-21,-43,65,9,9,122,151,146,97
-24,58,82,-17,-53,70,39,68,200,234,219,156
-19,39,58,-9,-39,48,87,204,278,351,317,219
53,87,34,-70,9,61,68,297,331,444,385,253
122,151,29,-136,46,90,58,346,414,546,483,322
126,175,48,-151,39,112,4,317,434,605,570,375
117,180,63,-148,26,122,-68,248,463,663,663,444
170,234,63,-202,53,148,-68,292,575,810,814,580
268,331,63,-300,102,197,-92,336,707,946,956,712
326,400,73,-363,126,236,-136,336,814,1058,1083,849
336,429,92,-383,122,261,-156,336,868,1151,1224,1034
385,517,131,-451,126,324,-224,229,800,1122,1302,1137
502,649,146,-575,178,397,-292,92,697,1015,1288,1200
580,707,126,-644,226,417,-361,-58,556,854,1239,1224
585,678,92,-631,246,385,-478,-258,307,556,1068,1166
614,673,58,-644,278,366,-541,-414,24,239,897,1127
653,761,107,-707,273,434,-590,-541,-234,-14,790,1117
624,780,156,-702,234,468,-624,-712,-429,-253,649,1044
458,610,151,-534,153,380,-512,-741,-512,-429,439,829
268,395,126,-331,70,261,-356,-673,-610,-566,204,492
122,307,185,-214,-31,246,-248,-663,-697,-697,-24,200
-43,278,322,-117,-183,300,-165,-697,-766,-819,-224,24
-239,214,453,12,-346,334,-161,-795,-883,-976,-439,-161
-356,146,502,104,-429,324,-156,-863,-985,-1117,-624,-292
-351,122,473,114,-412,297,-97,-800,-1024,-1185,-732,-341
-331,87,419,122,-375,253,-58,-746,-1015,-1180,-785,-385
-346,4,351,170,-348,178,0,-614,-893,-1034,-722,-366
-336,-87,248,212,-292,80,58,-390,-775,-873,-629,-341
-263,-126,136,195,-200,4,63,-248,-692,-775,-600,-361
-175,-122,53,148,-114,-34,63,-141,-590,-673,-566,-346
-141,-141,0,141,-70,-70,29,-68,-512,-585,-512,-341
-151,-175,-24,163,-63,-100,-19,-63,-458,-522,-458,-336
-131,-156,-24,143,-53,-90,24,-19,-346,-380,-317,-244
-92,-92,0,92,-46,-46,53,0,-229,-239,-190,-156
-87,-102,-14,95,-36,-58,58,0,-126,-136,-107,-102
-112,-141,-29,126,-41,-85,97,68,-53,-48,-34,-34
-82,-117,-34,100,-24,-75,73,87,-43,-29,-24,-34
-58,-92,-34,75,-12,-63,34,68,-48,-39,-34,-39
-53,-78,-24,65,-14,-51,19,58,-14,-24,-29,-24
-43,-68,-24,56,-9,-46,4,48,0,-4,-24,-29
-19,-58,-39,39,9,-48,-9,39,-4,-9,-34,-34
-43,-68,-24,56,-9,-46,14,29,0,4,-9,-24
-48,-87,-39,68,-4,-63,14,24,4,0,-9,-19
-53,-87,-34,70,-9,-61,24,19,4,0,0,-14
-39,-73,-34,56,-2,-53,34,14,9,4,9,-9
-39,-58,-19,48,-9,-39,43,24,-4,4,-4,-24
-48,-58,-9,53,-19,-34,43,29,14,-4,-19,-24
-48,-53,-4,51,-21,-29,68,39,24,9,-14,-24
-24,-48,-24,36,0,-36,48,43,24,24,-14,-24
-39,-43,-4,41,-17,-24,78,39,34,34,-4,-14
-58,-48,9,53,-34,-19,78,29,34,19,0,-14
-73,-63,9,68,-41,-26,78,9,29,14,-14,-19
-58,-53,4,56,-31,-24,73,0,24,14,0,-19
-58,-43,14,51,-36,-14,53,9,14,14,9,-19
-58,-53,4,56,-31,-24,34,4,9,4,-9,-24
-58,-53,4,56,-31,-24,39,19,34,29,0,-24
-43,-48,-4,46,-19,-26,34,39,39,34,0,-24
-68,-53,14,61,-41,-19,43,29,34,34,0,-24
-78,-68,9,73,-43,-29,63,19,48,39,9,-19
-78,-82,-4,80,-36,-43,63,9,29,24,9,-19
-68,-87,-19,78,-24,-53,63,-4,29,19,9,-19
-63,-68,-4,65,-29,-36,73,9,29,24,0,-19
-63,-68,-4,65,-29,-36,53,4,19,-4,-19,-39
-58,-68,-9,63,-24,-39,43,39,39,9,-29,-39
-48,-63,-14,56,-17,-39,53,53,43,9,-39,-39
-34,-58,-24,46,-4,-41,48,24,43,0,-24,-39
-58,-73,-14,65,-21,-43,58,24,48,24,-9,-24
-68,-87,-19,78,-24,-53,63,14,53,29,-4,-34
-73,-92,-19,82,-26,-56,48,4,39,29,0,-34
-43,-82,-39,63,-2,-61,58,24,53,34,0,-19
-39,-73,-34,56,-2,-53,63,34,43,29,-4,-24
-48,-73,-24,61,-12,-48,63,48,48,34,0,-19
-43,-82,-39,63,-2,-61,73,68,58,48,14,-4
-34,-68,-34,51,0,-51,39,43,43,39,4,-19
-39,-68,-29,53,-4,-48,58,29,43,39,0,-24
-58,-73,-14,65,-21,-43,53,14,43,29,-4,-34
-68,-73,-4,70,-31,-39,43,-4,39,14,-19,-39
-53,-82,-29,68,-12,-56,48,14,63,29,4,-24
-39,-78,-39,58,0,-58,58,29,68,39,4,-14
-48,-78,-29,63,-9,-53,53,29,53,34,-9,-19
-58,-78,-19,68,-19,-48,63,63,58,58,9,4
-39,-68,-29,53,-4,-48,58,53,53,43,4,-14
-39,-73,-34,56,-2,-53,53,39,48,29,-9,-24
-53,-78,-24,65,-14,-51,58,34,43,14,-14,-19
-53,-78,-24,65,-14,-51,53,9,34,-4,-29,-39
-48,-78,-29,63,-9,-53,68,39,48,4,-19,-29
-43,-82,-39,63,-2,-61,82,58,63,14,-9,-19
-39,-92,-53,65,7,-73,82,53,53,19,-4,-24
-43,-97,-53,70,4,-75,97,92,58,29,4,9
-19,-87,-68,53,24,-78,92,78,53,14,-4,-19
-24,-73,-48,48,12,-61,82,63,48,9,-9,-34
-43,-63,-19,53,-12,-41,82,48,48,19,0,-24
-58,-53,4,56,-31,-24,78,29,43,14,-4,-29
-53,-68,-14,61,-19,-41,87,53,68,24,0,-9
-43,-58,-14,51,-14,-36,107,87,78,34,4,0
-39,-48,-9,43,-14,-29,97,82,73,34,-4,-14
-43,-73,-29,58,-7,-51,107,87,73,34,0,-4
-24,-63,-39,43,7,-51,92,87,68,29,-9,-9
-14,-63,-48,39,17,-56,78,73,63,24,-14,-19
-24,-63,-39,43,7,-51,68,58,68,24,-14,-29
-39,-82,-43,61,2,-63,58,43,68,24,-19,-43
-34,-97,-63,65,14,-80,73,48,78,29,-4,-34
-19,-78,-58,48,19,-68,78,58,82,43,4,-19
-14,-78,-63,46,24,-70,87,63,82,48,9,-9
-19,-78,-58,48,19,-68,63,58,78,53,0,-19
-29,-63,-34,46,2,-48,48,43,68,34,-14,-14
-19,-63,-43,41,12,-53,34,34,58,24,-24,-34
-34,-63,-29,48,-2,-46,29,24,48,19,-29,-43
-34,-82,-48,58,7,-65,19,19,39,14,-29,-53
-24,-73,-48,48,12,-61,39,29,53,29,-9,-39
-24,-68,-43,46,9,-56,43,39,68,43,0,-29
-24,-68,-43,46,9,-56,48,48,73,48,4,-19
-29,-78,-48,53,9,-63,43,43,68,39,4,-24
-39,-73,-34,56,-2,-53,34,39,58,29,-14,-39
-29,-78,-48,53,9,-63,24,34,39,24,-29,-53
-29,-58,-29,43,0,-43,14,34,39,19,-39,-58
-29,-78,-48,53,9,-63,14,24,34,14,-48,-53
-53,-87,-34,70,-9,-61,24,29,39,24,-39,-53
-53,-92,-39,73,-7,-65,34,39,48,24,-34,-48
-48,-92,-43,70,-2,-68,43,58,53,29,-29,-43
-48,-97,-48,73,0,-73,39,43,53,39,-34,-53
-58,-112,-53,85,-2,-82,19,34,39,19,-48,-63
-63,-92,-29,78,-17,-61,39,29,34,14,-53,-68
-53,-87,-34,70,-9,-61,39,19,29,4,-78,-82
-58,-87,-29,73,-14,-58,58,9,29,-9,-82,-92
-78,-117,-39,97,-19,-78,78,29,34,0,-82,-97
-87,-122,-34,104,-26,-78,92,34,39,0,-92,-97
-78,-126,-48,102,-14,-87,92,39,43,0,-87,-97
-78,-131,-53,104,-12,-92,97,43,39,-9,-92,-122
-87,-136,-48,112,-19,-92,87,34,24,-29,-112,-136
-87,-136,-48,112,-19,-92,87,43,24,-24,-126,-126
-78,-136,-58,107,-9,-97,87,48,19,-43,-141,-156
-78,-141,-63,109,-7,-102,87,48,14,-58,-165,-165
-97,-170,-73,134,-12,-122,112,82,19,-39,-151,-161
-107,-175,-68,141,-19,-122,131,73,24,-39,-165,-170
-97,-165,-68,131,-14,-117,141,82,29,-29,-151,-165
-97,-185,-87,141,-4,-136,151,92,34,-9,-136,-161
-87,-195,-107,141,9,-151,136,92,39,-24,-151,-175
-87,-195,-107,141,9,-151,131,102,39,-24,-151,-180
-82,-175,-92,129,4,-134,126,102,39,-24,-156,-190
-82,-185,-102,134,9,-143,122,107,48,-19,-161,-204
-92,-200,-107,146,7,-153,131,112,58,-19,-170,-204
-97,-204,-107,151,4,-156,131,117,58,-19,-170,-214
-97,-209,-112,153,7,-161,126,122,48,-24,-175,-204
-92,-209,-117,151,12,-163,126,126,63,-24,-175,-204
-92,-219,-126,156,17,-173,122,131,63,-29,-190,-219
-92,-219,-126,156,17,-173,126,131,68,-29,-200,-219
-87,-219,-131,153,21,-175,136,131,68,-29,-195,-214
-78,-204,-126,141,24,-165,141,131,73,-24,-185,-214
-87,-204,-117,146,14,-161,146,141,82,-4,-180,-214
-97,-209,-112,153,7,-161,146,146,73,0,-175,-214
-97,-209,-112,153,7,-161,146,151,73,-9,-170,-214
-97,-200,-102,148,2,-151,151,156,92,19,-165,-204
-78,-195,-117,136,19,-156,136,165,112,34,-161,-195
-97,-200,-102,148,2,-151,136,151,117,43,-136,-190
-78,-175,-97,126,9,-136,146,180,122,43,-126,-190
-63,-156,-92,109,14,-124,136,161,126,43,-126,-180
-73,-156,-82,114,4,-119,122,161,117,34,-136,-180
-78,-141,-63,109,-7,-102,112,161,122,48,-117,-156
-78,-131,-53,104,-12,-92,112,151,122,58,-97,-151
-63,-126,-63,95,0,-95,112,141,151,68,-92,-122
-43,-122,-78,82,17,-100,97,141,165,73,-82,-92
-39,-122,-82,80,21,-102,92,136,136,73,-73,-92
-24,-107,-82,65,29,-95,87,161,136,73,-53,-82
-4,-102,-97,53,46,-100,63,180,136,73,-39,-63
4,-78,-82,36,43,-80,43,146,107,73,-24,-58
4,-78,-82,36,43,-80,39,141,122,78,-4,-39
4,-63,-68,29,36,-65,29,131,122,97,9,-39
4,-63,-68,29,36,-65,19,126,122,122,9,-29
39,-48,-87,4,63,-68,24,141,151,131,48,4
29,-39,-68,4,48,-53,14,126,136,122,58,19
19,-29,-48,4,34,-39,9,117,122,107,68,34
39,-14,-53,-12,46,-34,14,126,131,122,78,48
34,0,-34,-17,34,-17,4,107,122,97,68,39
29,0,-29,-14,29,-14,-4,102,112,92,68,53
14,-4,-19,-4,17,-12,-14,92,97,87,63,43
0,-9,-9,4,4,-9,-29,82,87,87,63,34
19,0,-19,-9,19,-9,-24,92,112,117,87,58
19,0,-19,-9,19,-9,-4,82,117,122,92,68
14,-4,-19,-4,17,-12,-9,73,107,117,102,78
4,-4,-9,0,7,-7,-14,63,97,107,107,87
24,9,-14,-17,19,-2,-29,43,82,87,78,68
4,4,0,-4,2,2,-39,19,68,68,53,63
-9,9,19,0,-14,14,-39,0,58,68,53,53
-14,19,34,-2,-24,26,-43,-29,53,58,43,48
9,19,9,-14,0,14,-14,-14,68,78,73,53
-4,14,19,-4,-12,17,4,0,78,97,87,73
-19,9,29,4,-24,19,29,14,87,112,102,92
-9,4,14,2,-12,9,58,39,97,117,107,97
-14,9,24,2,-19,17,34,9,78,92,73,82
-14,9,24,2,-19,17,9,-14,43,73,58,58
-19,4,24,7,-21,14,4,-34,24,53,43,43
-19,4,24,7,-21,14,-9,-53,4,29,24,29
-9,0,9,4,-9,4,0,-43,29,39,43,39
-9,14,24,-2,-17,19,4,-9,43,58,63,53
-14,0,14,7,-14,7,4,9,53,68,73,63
-14,-9,4,12,-9,-2,4,29,63,78,73,73
-19,-9,9,14,-14,0,-14,14,58,58,68,63
-4,0,4,2,-4,2,-39,-14,29,39,43,48
4,9,4,-7,0,7,-63,-43,0,19,24,29
4,9,4,-7,0,7,-87,-73,-34,9,9,9
4,-9,-14,2,9,-12,-73,-53,-4,29,14,29
14,4,-9,-9,12,-2,-53,-24,19,48,43,39
14,0,-14,-7,14,-7,-39,0,34,68,68,58
4,-14,-19,4,12,-17,-24,19,53,78,82,73
-4,-4,0,4,-2,-2,-29,9,43,58,78,53
0,14,14,-7,-7,14,-34,-4,29,43,53,43
9,4,-4,-7,7,0,-43,-34,-9,14,24,24
9,-4,-14,-2,12,-9,-63,-48,-29,0,0,14
19,-4,-24,-7,21,-14,-58,-29,0,34,34,34
-19,-63,-43,41,12,-53,-19,34,39,63,73,68
0,-29,-29,14,14,-29,-24,43,58,48,58,68
53,29,-24,-41,39,2,-39,34,63,48,53,68
48,19,-29,-34,39,-4,-58,19,39,39,39,48
34,4,-29,-19,31,-12,-73,9,29,24,34,34
29,0,-29,-14,29,-14,-78,0,19,19,29,29
24,-4,-29,-9,26,-17,-82,-9,9,14,24,24
19,-9,-29,-4,24,-19,-87,-19,0,9,19,19
29,-9,-39,-9,34,-24,-63,4,14,34,43,34
29,-9,-39,-9,34,-24,-48,19,29,48,58,48
29,-9,-39,-9,34,-24,-34,34,43,63,73,63
29,-9,-39,-9,34,-24,-19,48,58,78,87,78
29,0,-29,-14,29,-14,-39,34,39,58,73,58
29,0,-29,-14,29,-14,-48,19,29,48,58,48
29,0,-29,-14,29,-14,-58,4,19,39,43,39
29,0,-29,-14,29,-14,-68,-9,9,29,29,29
39,-9,-48,-14,43,-29,-53,14,29,43,39,39
39,-9,-48,-14,43,-29,-39,29,39,48,48,48
39,-9,-48,-14,43,-29,-24,43,48,53,58,58
39,-9,-48,-14,43,-29,-9,58,58,58,68,68
48,-9,-58,-19,53,-34,-19,43,39,39,48,58
48,-9,-58,-19,53,-34,-29,29,29,29,39,48
48,-9,-58,-19,53,-34,-39,14,19,19,29,39
48,-9,-58,-19,53,-34,-48,0,9,9,19,29
58,-19,-78,-19,68,-48,-29,19,29,24,34,48
58,-19,-78,-19,68,-48,-19,29,39,39,48,58
58,-19,-78,-19,68,-48,-9,39,48,53,63,68
58,-19,-78,-19,68,-48,0,48,58,68,78,78
48,-9,-58,-19,53,-34,-9,34,43,48,53,58
48,-9,-58,-19,53,-34,-9,29,39,39,39,48
48,-9,-58,-19,53,-34,-9,24,34,29,24,39
48,-9,-58,-19,53,-34,-9,19,29,19,9,29
43,-14,-58,-14,51,-36,4,29,43,39,24,39
39,-19,-58,-9,48,-39,19,39,48,48,39,48
34,-24,-58,-4,46,-41,34,48,53,58,53,58
29,-29,-58,0,43,-43,48,58,58,68,68,68
19,-24,-43,2,31,-34,34,48,43,53,53,58
19,-19,-39,0,29,-29,29,39,39,39,39,48
19,-14,-34,-2,26,-24,24,29,34,24,24,39
19,-9,-29,-4,24,-19,19,19,29,9,9,29
29,-24,-53,-2,41,-39,39,24,43,19,19,43
29,-29,-58,0,43,-43,48,29,48,29,29,48
29,-34,-63,2,46,-48,58,34,53,39,39,53
29,-39,-68,4,48,-53,68,39,58,48,48,58
24,-29,-53,2,39,-41,58,29,39,39,34,43
19,-29,-48,4,34,-39,48,19,29,29,29,39
14,-29,-43,7,29,-36,39,9,19,19,24,34
9,-29,-39,9,24,-34,29,0,9,9,19,29
9,-34,-43,12,26,-39,43,0,9,14,29,29
9,-39,-48,14,29,-43,48,0,9,19,29,29
9,-43,-53,17,31,-48,53,0,9,24,29,29
9,-48,-58,19,34,-53,58,0,9,29,29,29
0,-43,-43,21,21,-43,58,0,4,19,14,29
0,-39,-39,19,19,-39,58,0,0,9,9,29
0,-34,-34,17,17,-34,58,0,-4,0,4,29
0,-29,-29,14,14,-29,58,0,-9,-9,0,29
-4,-19,-14,12,4,-17,63,0,-4,4,9,39
-9,-19,-9,14,0,-14,68,0,0,9,19,39
-14,-19,-4,17,-4,-12,73,0,4,14,29,39
-19,-19,0,19,-9,-9,78,0,9,19,39,39
-9,-19,-9,14,0,-14,68,-9,0,9,24,39
-9,-19,-9,14,0,-14,58,-9,0,9,19,39
-9,-19,-9,14,0,-14,48,-9,0,9,14,39
-9,-19,-9,14,0,-14,39,-9,0,9,9,39
-9,-19,-9,14,0,-14,24,-9,9,24,19,43
-9,-19,-9,14,0,-14,9,-9,9,29,29,48
-9,-19,-9,14,0,-14,-4,-9,9,34,39,53
-9,-19,-9,14,0,-14,-19,-9,9,39,48,58
-4,-9,-4,7,0,-7,-34,0,9,24,43,48
0,-9,-9,4,4,-9,-39,0,9,19,39,48
4,-9,-14,2,9,-12,-43,0,9,14,34,48
9,-9,-19,0,14,-14,-48,0,9,9,29,48
19,-9,-29,-4,24,-19,-48,-4,0,19,39,39
19,-9,-29,-4,24,-19,-48,-9,0,19,39,39
19,-9,-29,-4,24,-19,-48,-14,0,19,39,39
19,-9,-29,-4,24,-19,-48,-19,0,19,39,39
19,0,-19,-9,19,-9,-53,-4,4,19,29,48
19,0,-19,-9,19,-9,-58,0,9,19,29,48
19,0,-19,-9,19,-9,-63,4,14,19,29,48
19,0,-19,-9,19,-9,-68,9,19,19,29,48
29,-9,-39,-9,34,-24,-68,-4,9,9,29,39
29,-9,-39,-9,34,-24,-68,-9,9,9,29,39
29,-9,-39,-9,34,-24,-68,-14,9,9,29,39
29,-9,-39,-9,34,-24,-68,-19,9,9,29,39
39,0,-39,-19,39,-19,-53,0,14,19,43,43
39,0,-39,-19,39,-19,-48,9,19,29,48,48
39,0,-39,-19,39,-19,-43,19,24,39,53,53
39,0,-39,-19,39,-19,-39,29,29,48,58,58
39,4,-34,-21,36,-14,-53,4,14,39,48,53
39,9,-29,-24,34,-9,-58,-9,9,29,39,48
39,14,-24,-26,31,-4,-63,-24,4,19,29,43
39,19,-19,-29,29,0,-68,-39,0,9,19,39
48,19,-29,-34,39,-4,-48,-19,19,29,29,53
48,19,-29,-34,39,-4,-39,0,29,39,39,58
48,19,-29,-34,39,-4,-29,19,39,48,48,63
48,19,-29,-34,39,-4,-19,39,48,58,58,68
43,19,-24,-31,34,-2,-34,24,43,43,43,53
39,19,-19,-29,29,0,-39,9,39,39,39,48
34,19,-14,-26,24,2,-43,-4,34,34,34,43
29,19,-9,-24,19,4,-48,-19,29,29,29,39
29,9,-19,-19,24,-4,-29,0,48,48,48,48
29,9,-19,-19,24,-4,-19,19,58,58,58,58
29,9,-19,-19,24,-4,-9,39,68,68,68,68
29,9,-19,-19,24,-4,0,58,78,78,78,78
29,19,-9,-24,19,4,-4,34,68,68,58,63
29,19,-9,-24,19,4,-9,19,58,58,48,58
29,19,-9,-24,19,4,-14,4,48,48,39,53
29,19,-9,-24,19,4,-19,-9,39,39,29,48
29,14,-14,-21,21,0,0,19,53,53,39,63
29,9,-19,-19,24,-4,19,39,58,58,48,68
29,4,-24,-17,26,-9,39,58,63,63,58,73
29,0,-29,-14,29,-14,58,78,68,68,68,78
24,-4,-29,-9,26,-17,48,53,48,53,43,58
19,-9,-29,-4,24,-19,39,39,39,39,29,48
14,-14,-29,0,21,-21,29,24,29,24,14,39
9,-19,-29,4,19,-24,19,9,19,9,0,29
9,-29,-39,9,24,-34,43,24,29,24,14,39
9,-29,-39,9,24,-34,58,39,39,39,29,48
9,-29,-39,9,24,-34,73,53,48,53,43,58
9,-29,-39,9,24,-34,87,68,58,68,58,68
0,-29,-29,14,14,-29,82,48,48,53,43,48
0,-29,-29,14,14,-29,78,39,39,39,29,39
9,-29,-39,9,24,-34,73,34,29,24,14,29
0,-9,-9,4,4,-9,68,24,19,9,0,19
0,-24,-24,12,12,-24,68,34,29,24,9,29
0,-39,-39,19,19,-39,78,48,39,34,24,39
-4,-34,-29,19,12,-31,87,63,43,43,39,48
-4,-29,-24,17,9,-26,97,73,53,43,53,58
4,-14,-19,4,12,-17,73,53,34,34,43,48
0,-29,-29,14,14,-29,48,34,29,29,58,53
0,-24,-24,12,12,-24,24,14,19,19,48,48
0,0,0,0,0,0,9,-4,9,14,19,43
0,-14,-14,7,7,-14,9,0,14,19,29,48
-4,-29,-24,17,9,-26,4,0,19,24,14,39
-4,-19,-14,12,4,-17,4,9,24,39,24,43
0,9,9,-4,-4,9,4,-4,29,43,43,58
-9,-4,4,7,-7,0,-4,-34,19,9,43,53
4,-19,-24,7,14,-21,-14,-34,9,14,43,58
4,-14,-19,4,12,-17,-24,-43,0,14,9,43
0,19,19,-9,-9,19,-34,-48,-4,14,4,29
-9,19,29,-4,-19,24,-34,-39,9,29,14,34
-9,-14,-4,12,-2,-9,-34,-43,14,19,24,29
-4,-24,-19,14,7,-21,-24,-34,14,19,34,29
-4,-29,-24,17,9,-26,-14,-34,19,19,43,39
-4,4,9,0,-7,7,-24,-48,14,-4,39,43
-9,-4,4,7,-7,0,-29,-48,14,9,34,58
-9,-4,4,7,-7,0,-48,-43,9,-4,4,34
-4,9,14,-2,-9,12,-53,-43,4,-9,0,39
-9,0,9,4,-9,4,-29,-29,14,4,19,63
-9,-14,-4,12,-2,-9,-39,-43,14,14,24,34
-9,-24,-14,17,2,-19,-34,-39,14,24,29,53
-9,-4,4,7,-7,0,-29,-24,14,34,39,53
4,9,4,-7,0,7,-48,-43,14,14,29,34
14,9,-4,-12,9,2,-34,-43,9,9,14,48
4,-4,-9,0,7,-7,-34,-48,9,9,4,39
4,4,0,-4,2,2,-34,-48,14,9,4,39
-4,-4,0,4,-2,-2,-29,-39,24,14,9,48
9,-9,-19,0,14,-14,-29,-34,24,19,29,48
0,-9,-9,4,4,-9,-24,-29,24,29,39,53
0,0,0,0,0,0,-19,-24,39,34,43,63
9,4,-4,-7,7,0,-39,-14,24,24,19,53
9,14,4,-12,2,9,-29,-24,29,24,19,53
9,19,9,-14,0,14,-29,-24,34,29,24,63
9,24,14,-17,-2,19,-34,-24,39,29,24,63
0,29,29,-14,-14,29,-24,-24,48,39,34,73
0,29,29,-14,-14,29,-24,-24,43,48,43,73
0,24,24,-12,-12,24,-24,-34,39,53,53,73
0,24,24,-12,-12,24,-19,-34,39,58,63,73
4,19,14,-12,-4,17,-9,-29,39,53,48,58
9,24,14,-17,-2,19,-9,-29,43,53,39,58
9,24,14,-17,-2,19,-9,-24,48,68,53,73
4,24,19,-14,-7,21,-4,-19,53,58,53,73
4,14,9,-9,-2,12,0,-19,48,43,48,73
4,14,9,-9,-2,12,14,-19,43,43,58,68
9,14,4,-12,2,9,4,-24,34,39,39,58
9,4,-4,-7,7,0,19,-24,29,29,34,53
-9,-4,4,7,-7,0,29,0,34,43,43,63
0,-4,-4,2,2,-4,19,4,39,34,24,58
0,-4,-4,2,2,-4,29,9,43,39,34,58
0,-4,-4,2,2,-4,29,14,48,48,39,58
0,-19,-19,9,9,-19,29,4,48,58,39,48
0,-14,-14,7,7,-14,34,0,48,53,39,58
0,-19,-19,9,9,-19,14,-4,48,39,34,39
-4,-29,-24,17,9,-26,9,-9,43,34,34,34
-14,-19,-4,17,-4,-12,14,9,53,48,48,48
9,-9,-19,0,14,-14,24,19,53,53,58,53
-4,-9,-4,7,0,-7,29,29,58,58,39,58
-14,-24,-9,19,-2,-17,39,39,58,58,39,58
-9,-24,-14,17,2,-19,29,29,39,48,24,43
-4,-14,-9,9,2,-12,39,19,39,39,19,39
9,-14,-24,2,17,-19,39,9,29,29,9,34
0,-39,-39,19,19,-39,24,0,9,9,4,29
-4,-29,-24,17,9,-26,48,24,4,34,24,48
14,-29,-43,7,29,-36,53,34,4,24,29,53
0,-34,-34,17,17,-34,58,39,9,24,34,53
-9,-43,-34,26,12,-39,78,48,9,24,39,58
-14,-53,-39,34,12,-46,58,39,-9,19,24,39
0,-63,-63,31,31,-63,48,29,-9,14,14,39
0,-53,-53,26,26,-53,39,14,-19,4,0,29
-4,-39,-34,21,14,-36,19,-9,-39,-14,-29,14
4,-53,-58,24,31,-56,34,19,-19,-4,-4,24
14,-58,-73,21,43,-65,48,39,-9,4,9,34
29,-53,-82,12,56,-68,63,58,0,14,29,48
9,-58,-68,24,39,-63,92,78,24,24,43,58
9,-73,-82,31,46,-78,97,58,-9,4,29,39
9,-68,-78,29,43,-73,63,48,-19,4,14,29
14,-53,-68,19,41,-61,48,34,-24,0,9,39
14,-43,-58,14,36,-51,14,0,-29,-9,-4,14
-14,-82,-68,48,26,-75,58,58,19,39,53,63
-9,-68,-58,39,24,-63,48,78,14,43,73,73
34,-9,-43,-12,39,-26,24,58,34,43,73,82
53,19,-34,-36,43,-7,9,68,43,63,68,92
-4,9,14,-2,-9,12,-39,0,34,53,48,68
-24,29,53,-2,-39,41,-39,0,73,97,82,97
19,87,68,-53,-24,78,-19,78,141,204,180,141
73,107,34,-90,19,70,-39,141,204,278,239,165
82,53,-29,-68,56,12,0,268,287,380,336,234
97,48,-48,-73,73,0,14,366,326,458,424,297
165,122,-43,-143,104,39,-29,356,356,517,497,356
229,195,-34,-212,131,80,-48,341,409,614,619,473
229,214,-14,-222,122,100,-102,307,453,692,712,546
248,253,4,-251,122,129,-156,287,541,795,819,653
375,370,-4,-373,190,183,-175,336,663,946,1010,829
502,497,-4,-500,253,246,-253,268,722,1024,1127,961
531,531,0,-531,265,265,-322,141,697,1005,1180,1063
541,561,19,-551,261,290,-351,29,585,922,1190,1146
634,658,24,-646,305,341,-439,-122,414,771,1137,1185
741,751,9,-746,366,380,-512,-297,239,561,1044,1205
751,761,9,-756,370,385,-600,-502,-9,268,897,1156
712,732,19,-722,346,375,-702,-702,-273,-9,756,1093
683,658,-24,-671,353,317,-658,-761,-434,-185,634,966
610,531,-78,-570,344,226,-561,-780,-551,-361,390,639
414,366,-48,-390,231,158,-444,-819,-619,-522,112,297
141,209,68,-175,36,139,-283,-814,-658,-624,-68,102
-63,136,200,-36,-131,168,-170,-795,-746,-751,-244,-63
-161,146,307,7,-234,226,-126,-814,-819,-844,-390,-156
-234,141,375,46,-305,258,-107,-839,-878,-922,-507,-234
-331,39,370,146,-351,204,-117,-863,-956,-1044,-688,-366
-336,-34,302,185,-319,134,-78,-790,-961,-1073,-751,-414
-268,-29,239,148,-253,104,-48,-673,-883,-971,-688,-390
-224,-29,195,126,-209,82,-43,-561,-771,-854,-639,-380
-263,-122,141,192,-202,9,24,-366,-639,-722,-575,-346
-258,-161,97,209,-178,-31,78,-195,-541,-614,-512,-322
-151,-107,43,129,-97,-31,68,-102,-448,-512,-448,-287
-92,-68,24,80,-58,-21,73,9,-336,-380,-346,-214
-112,-102,9,107,-61,-46,43,19,-268,-317,-287,-185
-126,-112,14,119,-70,-48,29,-19,-204,-244,-224,-151
-73,-53,19,63,-46,-17,48,0,-112,-126,-112,-73
-14,0,14,7,-14,7,43,-9,-53,-58,-63,-43
-14,14,29,0,-21,21,43,0,-29,-29,-39,-19
-24,19,43,2,-34,31,48,19,24,4,-9,14
-29,19,48,4,-39,34,53,39,58,43,19,29
-19,19,39,0,-29,29,58,58,73,58,34,43
-29,4,34,12,-31,19,58,43,63,58,34,34
-29,-19,9,24,-19,-4,34,34,63,48,19,29
-29,-24,4,26,-17,-9,19,24,58,43,14,24
-9,-14,-4,12,-2,-9,4,14,58,43,9,19
-29,-14,14,21,-21,0,19,14,34,53,9,19
-39,-19,19,29,-29,0,24,19,53,43,9,24
-39,-19,19,29,-29,0,53,29,63,58,29,29
-14,-19,-4,17,-4,-12,39,34,63,73,43,34
-19,-14,4,17,-12,-4,53,29,63,58,34,19
-29,-19,9,24,-19,-4,48,29,53,39,29,14
-34,-34,0,34,-17,-17,43,19,39,29,4,4
-9,-24,-14,17,2,-19,34,19,24,24,9,0
-14,-24,-9,19,-2,-17,43,29,14,24,24,4
-19,-43,-24,31,2,-34,34,24,9,14,9,4
-24,-53,-29,39,2,-41,48,39,34,39,24,9
-14,-58,-43,36,14,-51,53,58,39,43,29,14
-14,-53,-39,34,12,-46,53,48,29,34,19,9
-19,-58,-39,39,9,-48,73,48,39,39,19,9
-14,-63,-48,39,17,-56,73,48,14,24,9,4
0,-58,-58,29,29,-58,73,43,9,19,0,0
-4,-63,-58,34,26,-61,92,48,9,43,4,19
-14,-68,-53,41,19,-61,82,34,0,14,0,0
-19,-73,-53,46,17,-63,82,58,19,29,4,0
-19,-73,-53,46,17,-63,102,63,24,29,9,0
0,-73,-73,36,36,-73,92,63,9,-4,-9,-14
-19,-82,-63,51,21,-73,97,73,9,4,-9,-4
-24,-92,-68,58,21,-80,97,73,9,-4,-19,-19
-24,-92,-68,58,21,-80,78,73,-9,-19,-29,-24
-9,-102,-92,56,41,-97,78,68,-9,-14,-29,-19
-9,-92,-82,51,36,-87,73,63,-24,-19,-34,-24
-24,-92,-68,58,21,-80,63,63,-24,-14,-29,-19
-24,-102,-78,63,26,-90,63,68,-19,0,-14,-4
-4,-87,-82,46,39,-85,24,58,-29,-4,-24,-9
0,-87,-87,43,43,-87,39,58,-24,0,-29,-14
-9,-92,-82,51,36,-87,29,58,-19,-4,-34,-24
-9,-92,-82,51,36,-87,14,53,-19,-14,-48,-29
-9,-92,-82,51,36,-87,0,43,0,-4,-24,-14
0,-87,-87,43,43,-87,0,39,0,0,-24,-14
-14,-87,-73,51,29,-80,-14,19,-19,-9,-39,-29
-29,-87,-58,58,14,-73,-14,34,-19,9,-19,-14
-9,-73,-63,41,26,-68,-14,34,-4,9,-14,-24
-9,-73,-63,41,26,-68,-14,29,0,9,-19,-24
-24,-73,-48,48,12,-61,-4,34,4,9,-14,-9
-24,-68,-43,46,9,-56,-4,19,4,4,-19,-19
-14,-53,-39,34,12,-46,0,4,4,0,-24,-9
-14,-53,-39,34,12,-46,4,0,14,4,-19,-9
-14,-58,-43,36,14,-51,-4,-29,0,4,-19,-24
-24,-58,-34,41,4,-46,0,-14,0,9,-14,0
14,-58,-73,21,43,-65,-9,4,4,0,-24,-14
14,-53,-68,19,41,-61,-14,4,9,0,-29,-24
0,-53,-53,26,26,-53,-9,4,19,14,-19,-9
-9,-53,-43,31,17,-48,-9,0,24,14,-24,-9
0,-63,-63,31,31,-63,-19,-19,34,14,-14,0
4,-48,-53,21,29,-51,-9,-9,29,14,-14,0
4,-34,-39,14,21,-36,-29,-39,9,4,-29,-24
-4,-53,-48,29,21,-51,-29,-58,-4,-4,-29,-24
4,-34,-39,14,21,-36,-29,-29,9,4,-29,-14
14,-24,-39,4,26,-31,-29,-24,24,14,-24,-9
4,-14,-19,4,12,-17,-24,-19,48,29,-14,-4
-9,-24,-14,17,2,-19,-19,-14,68,43,-9,-4
-19,-29,-9,24,-4,-19,-24,-24,63,39,-9,4
-9,-9,0,9,-4,-4,-19,-29,63,43,-4,9
-9,-9,0,9,-4,-4,-9,-39,58,39,-4,9
-19,-9,9,14,-14,0,-34,-58,48,34,-19,-9
-19,-4,14,12,-17,4,-9,-34,58,39,-9,9
-9,-4,4,7,-7,0,4,-14,68,43,-4,4
-24,-4,19,14,-21,7,29,4,78,53,4,9
-24,-24,0,24,-12,-12,48,29,87,63,19,14
-34,-14,19,24,-26,2,39,9,82,58,4,-4
-34,-9,24,21,-29,7,34,0,87,63,0,-9
-34,-9,24,21,-29,7,29,-9,82,58,-9,-14
-39,-19,19,29,-29,0,14,-34,68,39,-24,-34
-39,-29,9,34,-24,-9,39,4,78,43,-9,-14
-29,-39,-9,34,-9,-24,53,24,78,53,-9,-14
-29,-24,4,26,-17,-9,68,48,97,63,-4,-4
-29,-48,-19,39,-4,-34,92,63,112,73,0,14
-53,-63,-9,58,-21,-36,73,39,87,48,-24,-14
-53,-63,-9,58,-21,-36,63,29,78,34,-34,-29
-48,-58,-9,53,-19,-34,53,29,63,24,-43,-43
-48,-58,-9,53,-19,-34,29,-4,43,19,-63,-73
-53,-87,-34,70,-9,-61,43,24,63,19,-43,-63
-53,-73,-19,63,-17,-46,78,48,73,34,-34,-48
-39,-73,-34,56,-2,-53,92,68,82,43,-43,-43
-39,-78,-39,58,0,-58,126,87,97,48,-34,-34
-58,-92,-34,75,-12,-63,117,87,73,34,-58,-53
-68,-92,-24,80,-21,-58,122,73,58,19,-82,-68
-58,-92,-34,75,-12,-63,112,58,43,4,-92,-82
-58,-92,-34,75,-12,-63,107,43,19,-19,-112,-122
-87,-122,-34,104,-26,-78,131,58,34,-9,-102,-112
-87,-126,-39,107,-24,-82,146,82,43,4,-97,-87
-78,-131,-53,104,-12,-92,161,102,48,-4,-92,-102
-78,-141,-63,109,-7,-102,175,117,53,-9,-97,-97
-107,-161,-53,134,-26,-107,180,117,29,-34,-122,-122
-117,-165,-48,141,-34,-107,180,82,14,-58,-165,-151
-107,-156,-48,131,-29,-102,170,68,0,-73,-180,-165
-107,-175,-68,141,-19,-122,161,53,-14,-78,-195,-180
-117,-190,-73,153,-21,-131,170,68,-9,-82,-190,-180
-117,-195,-78,156,-19,-136,180,92,0,-73,-180,-170
-112,-180,-68,146,-21,-124,190,107,9,-63,-175,-165
-112,-195,-82,153,-14,-139,200,126,29,-48,-170,-165
-122,-195,-73,158,-24,-134,175,112,14,-73,-195,-185
-126,-195,-68,161,-29,-131,161,97,0,-87,-209,-214
-126,-195,-68,161,-29,-131,141,82,-24,-107,-229,-224
-122,-190,-68,156,-26,-129,126,68,-24,-122,-244,-244
-126,-200,-73,163,-26,-136,131,87,-9,-107,-244,-234
-131,-209,-78,170,-26,-143,136,102,0,-97,-239,-229
-131,-219,-87,175,-21,-153,146,117,4,-87,-219,-219
-126,-214,-87,170,-19,-151,151,131,14,-73,-195,-214
-122,-204,-82,163,-19,-143,122,122,14,-73,-229,-229
-126,-200,-73,163,-26,-136,107,117,-4,-87,-244,-244
-122,-190,-68,156,-26,-129,92,112,-14,-117,-258,-258
-117,-170,-53,143,-31,-112,82,107,-4,-107,-273,-263
-112,-175,-63,143,-24,-119,78,122,9,-87,-248,-239
-136,-190,-53,163,-41,-122,87,112,19,-73,-224,-229
-122,-175,-53,148,-34,-114,107,146,29,-68,-214,-224
-112,-165,-53,139,-29,-109,107,131,39,-63,-214,-209
-122,-156,-34,139,-43,-95,87,122,29,-73,-239,-224
-126,-141,-14,134,-56,-78,73,112,34,-68,-234,-214
-126,-131,-4,129,-61,-68,68,92,34,-68,-229,-224
-112,-126,-14,119,-48,-70,63,73,63,-68,-239,-209
-112,-131,-19,122,-46,-75,63,73,92,-43,-224,-200
-117,-131,-14,124,-51,-73,73,68,68,-34,-209,-200
-112,-117,-4,114,-53,-61,82,92,73,-24,-185,-190
-102,-112,-9,107,-46,-61,73,112,78,-14,-165,-170
-82,-92,-9,87,-36,-51,63,87,73,-14,-165,-156
-82,-87,-4,85,-39,-46,58,82,92,-9,-151,-136
-82,-68,14,75,-48,-26,48,73,97,9,-141,-136
-82,-63,19,73,-51,-21,39,68,102,34,-146,-126
-48,-53,-4,51,-21,-29,39,73,131,48,-97,-92
-58,-39,19,48,-39,-9,24,58,117,53,-78,-78
-68,-24,43,46,-56,9,14,48,102,53,-58,-63
-48,-4,43,26,-46,19,14,58,112,82,-39,-48
-39,24,63,7,-51,43,-4,43,122,78,-24,-39
-29,29,58,0,-43,43,-14,43,122,73,-19,-14
-29,29,58,0,-43,43,-24,39,117,68,-19,-14
-29,29,58,0,-43,43,-39,34,117,68,-14,-14
-9,34,43,-12,-26,39,-29,48,136,92,24,14
-9,39,48,-14,-29,43,-4,43,136,102,34,29
-14,39,53,-12,-34,46,-4,39,122,102,48,43
-24,43,68,-9,-46,56,-4,34,107,97,58,58
4,53,48,-29,-21,51,0,34,102,87,43,63
-4,43,48,-19,-26,46,-9,29,97,78,34,63
-9,43,53,-17,-31,48,-9,29,97,87,48,58
-4,48,53,-21,-29,51,-14,19,102,87,53,58
9,63,53,-36,-21,58,-9,29,107,97,82,73
-4,63,68,-29,-36,65,-14,29,107,117,97,92
-19,63,82,-21,-51,73,-14,29,107,131,112,112
-9,63,73,-26,-41,68,-9,39,107,136,117,117
9,78,68,-43,-29,73,-4,48,107,122,92,102
14,78,63,-46,-24,70,-9,43,92,112,87,87
14,73,58,-43,-21,65,4,43,92,102,82,82
19,73,53,-46,-17,63,9,43,92,87,73,78
19,68,48,-43,-14,58,29,34,97,97,82,92
19,82,63,-51,-21,73,34,48,102,117,102,102
14,68,53,-41,-19,61,34,48,102,126,112,107
14,58,43,-36,-14,51,34,48,102,136,112,112
9,63,53,-36,-21,58,34,73,102,131,122,107
24,68,43,-46,-9,56,29,63,87,117,112,107
34,73,39,-53,-2,56,24,53,73,102,107,102
34,68,34,-51,0,51,19,43,53,97,107,97
9,48,39,-29,-14,43,9,34,53,82,87,92
14,63,48,-39,-17,56,14,34,58,87,92,87
9,58,48,-34,-19,53,14,29,53,92,92,92
-4,43,48,-19,-26,46,14,19,53,87,82,92
0,39,39,-19,-19,39,29,53,68,87,92,92
9,53,43,-31,-17,48,34,63,68,82,82,92
24,39,14,-31,4,26,34,58,43,63,68,82
29,24,-4,-26,17,9,24,68,39,58,58,82
-9,4,14,2,-12,9,-19,-9,0,14,14,43
9,34,24,-21,-7,29,39,34,19,34,43,78
29,58,29,-43,0,43,43,24,19,39,58,68
-4,9,14,-2,-9,12,87,53,53,68,82,97
-39,-39,0,39,-19,-19,126,117,68,97,107,107
-24,-24,0,24,-12,-12,107,102,53,87,87,87
-9,-9,0,9,-4,-4,87,87,48,78,78,78
4,4,0,-4,2,2,68,73,43,68,68,68
19,19,0,-19,9,9,48,58,39,58,58,58
9,14,4,-12,2,9,29,53,29,68,68,68
9,9,0,-9,4,4,19,48,29,68,68,68
9,4,-4,-7,7,0,9,43,29,68,68,68
9,0,-9,-4,9,-4,0,39,29,68,68,68
14,0,-14,-7,14,-7,-14,43,39,68,78,68
19,0,-19,-9,19,-9,-19,48,39,68,78,68
24,0,-24,-12,24,-12,-24,53,39,68,78,68
29,0,-29,-14,29,-14,-29,58,39,68,78,68
19,-14,-34,-2,26,-24,-19,58,24,58,68,63
19,-19,-39,0,29,-29,-19,58,19,48,58,58
19,-24,-43,2,31,-34,-19,58,14,39,48,53
19,-29,-48,4,34,-39,-19,58,9,29,39,48
24,-19,-43,-2,34,-31,-14,63,14,43,53,53
29,-19,-48,-4,39,-34,-9,68,19,48,58,58
34,-19,-53,-7,43,-36,-4,73,24,53,63,63
39,-19,-58,-9,48,-39,0,78,29,58,68,68
39,-29,-68,-4,53,-48,-14,58,19,48,58,63
29,-9,-39,-9,34,-24,-19,43,9,39,48,58
29,-19,-48,-4,39,-34,-34,24,0,24,34,53
29,-29,-58,0,43,-43,-39,9,-9,14,24,48
29,-29,-58,0,43,-43,-24,24,0,29,29,58
34,-19,-53,-7,43,-36,-19,24,4,24,34,58
39,-19,-58,-9,48,-39,-14,29,9,39,58,63
39,-39,-78,0,58,-58,-9,34,19,48,97,82
29,-29,-58,0,43,-43,-19,9,14,39,92,78
29,0,-29,-14,29,-14,-19,-4,9,43,78,82
29,0,-29,-14,29,-14,-39,-24,4,43,63,78
24,0,-24,-12,24,-12,-53,-39,0,43,34,58
14,4,-9,-9,12,-2,-34,-14,14,68,43,63
19,39,19,-29,0,29,-24,-14,29,73,63,78
19,19,0,-19,9,9,-14,-9,43,63,97,102
34,0,-34,-17,34,-17,-4,14,58,82,122,126
29,4,-24,-17,26,-9,-19,0,53,78,87,107
19,39,19,-29,0,29,-24,-9,53,82,92,97
14,53,39,-34,-12,46,-39,-24,48,87,87,82
9,34,24,-21,-7,29,-53,-53,43,68,82,58
4,24,19,-14,-7,21,-19,-19,58,78,97,63
4,29,24,-17,-9,26,4,-4,68,87,102,78
4,53,48,-29,-21,51,24,19,78,92,117,112
0,43,43,-21,-21,43,48,48,92,126,131,146
-9,34,43,-12,-26,39,19,39,73,92,92,97
-4,48,53,-21,-29,51,14,24,63,78,87,87
0,48,48,-24,-24,48,19,14,53,68,78,92
0,34,34,-17,-17,34,0,-24,43,53,63,43
-9,9,19,0,-14,14,29,4,63,68,78,73
-9,24,34,-7,-21,29,48,34,73,82,87,82
-4,34,39,-14,-21,36,48,43,82,92,92,82
4,29,24,-17,-9,26,82,63,87,107,92,107
4,19,14,-12,-4,17,63,43,68,97,82,87
4,34,29,-19,-12,31,53,29,63,87,82,78
4,39,34,-21,-14,36,43,19,53,73,73,78
19,39,19,-29,0,29,29,4,43,58,78,68
0,29,29,-14,-14,29,48,19,58,73,97,87
0,29,29,-14,-14,29,58,34,78,82,102,102
0,19,19,-9,-9,19,58,48,63,82,82,87
0,14,14,-7,-7,14,78,53,68,92,87,92
4,24,19,-14,-7,21,53,39,48,82,73,82
9,24,14,-17,-2,19,34,24,39,68,63,73
14,19,4,-17,4,12,19,19,29,53,53,63
19,19,0,-19,9,9,4,4,14,39,43,53
14,4,-9,-9,12,-2,14,9,19,53,53,63
9,4,-4,-7,7,0,29,24,29,58,63,73
9,9,0,-9,4,4,39,39,34,63,68,68
9,14,4,-12,2,9,48,48,43,73,68,78
14,19,4,-17,4,12,24,39,39,82,68,73
14,24,9,-19,2,17,14,29,34,68,63,63
19,29,9,-24,4,19,0,19,29,63,58,58
24,34,9,-29,7,21,-4,9,24,63,68,48
24,19,-4,-21,14,7,-4,24,34,78,68,53
19,4,-14,-12,17,-4,9,34,39,78,73,63
4,0,-4,-2,4,-2,14,53,43,82,78,73
9,-4,-14,-2,12,-9,9,63,48,73,63,78
19,-4,-24,-7,21,-14,9,48,39,48,48,58
19,-4,-24,-7,21,-14,0,43,29,39,39,48
19,-4,-24,-7,21,-14,-4,34,19,39,34,43
19,4,-14,-12,17,-4,-4,29,9,24,19,48
4,-9,-14,2,9,-12,-14,34,14,29,29,48
-4,-19,-14,12,4,-17,-9,39,14,43,43,53
-9,-24,-14,17,2,-19,-4,43,19,58,63,58
9,-19,-29,4,19,-24,4,48,24,73,87,63
9,-4,-14,-2,12,-9,-9,43,14,58,48,48
4,-14,-19,4,12,-17,-9,39,9,39,39,39
9,-9,-19,0,14,-14,-14,34,-4,24,29,34
14,4,-9,-9,12,-2,-9,29,0,9,19,29
19,-9,-29,-4,24,-19,9,34,9,14,24,39
0,-48,-48,24,24,-48,4,39,0,9,24,39
-4,-48,-43,26,19,-46,24,48,-4,29,29,43
14,-58,-73,21,43,-65,34,53,-4,24,29,43
19,-53,-73,17,46,-63,29,58,-9,24,19,34
19,-53,-73,17,46,-63,39,58,-9,24,19,29
9,-48,-58,19,34,-53,24,58,-9,29,19,24
29,-53,-82,12,56,-68,19,58,0,34,24,29
19,-29,-48,4,34,-39,19,43,9,39,34,43
14,-9,-24,-2,19,-17,9,29,0,34,29,43
14,-14,-29,0,21,-21,9,39,0,39,48,48
24,-9,-34,-7,29,-21,9,39,0,43,58,53
48,9,-39,-29,43,-14,-14,34,-9,34,43,53
39,19,-19,-29,29,0,-14,29,4,24,34,48
48,9,-39,-29,43,-14,-9,29,-9,14,24,43
58,19,-39,-39,48,-9,-43,29,-9,14,14,39
24,9,-14,-17,19,-2,-73,-39,-14,9,24,39
53,43,-9,-48,31,17,-73,-48,-9,29,43,53
34,34,0,-34,17,17,-58,-39,19,48,53,73
-9,-19,-9,14,0,-14,9,29,53,92,92,102
-4,0,4,2,-4,2,14,39,63,92,102,92
43,78,34,-61,4,56,9,39,102,122,107,112
34,117,82,-75,-24,100,0,39,122,141,117,117
-4,97,102,-46,-53,100,-29,9,112,136,112,97
9,97,87,-53,-39,92,0,97,180,224,209,131
73,156,82,-114,-4,119,29,219,253,356,307,195
102,161,58,-131,21,109,9,268,326,458,405,253
87,117,29,-102,29,73,34,336,405,595,551,375
117,151,34,-134,41,92,19,375,483,722,692,473
200,253,53,-226,73,153,-9,400,575,829,785,570
297,351,53,-324,122,202,-34,434,678,917,897,683
336,409,73,-373,131,241,-126,366,727,961,976,771
366,478,112,-422,126,295,-204,248,751,1044,1107,927
444,614,170,-529,136,392,-253,122,712,1063,1224,1068
522,717,195,-619,163,456,-331,-63,600,966,1229,1132
541,707,165,-624,187,436,-361,-214,478,805,1171,1176
595,688,92,-641,251,390,-400,-326,268,566,1039,1166
692,741,48,-717,322,395,-502,-502,-14,248,868,1107
751,829,78,-790,336,453,-570,-649,-244,4,761,1117
663,810,146,-736,258,478,-624,-829,-429,-214,619,1024
478,649,170,-563,153,409,-590,-966,-590,-439,370,761
307,463,156,-385,75,309,-434,-936,-697,-585,126,424
141,366,224,-253,-41,295,-307,-936,-805,-736,-102,141
-82,268,351,-92,-217,309,-195,-971,-844,-839,-263,-4
-287,156,444,65,-366,300,-63,-932,-844,-868,-351,-92
-356,107,463,124,-409,285,-19,-902,-917,-951,-497,-204
-322,92,414,114,-368,253,-9,-849,-966,-1019,-624,-283
-322,58,380,131,-351,219,-9,-775,-927,-995,-658,-317
-356,-4,351,180,-353,173,-48,-692,-844,-917,-644,-346
-317,-39,278,178,-297,119,-19,-536,-756,-814,-590,-341
-244,-58,185,151,-214,63,-4,-395,-673,-727,-561,-351
-204,-82,122,143,-163,19,-4,-317,-570,-644,-527,-346
-209,-151,58,180,-134,-46,58,-146,-444,-497,-424,-283
-170,-156,14,163,-92,-70,87,-34,-341,-366,-331,-239
-102,-78,24,90,-63,-26,82,0,-229,-244,-239,-165
-63,-34,29,48,-46,-2,82,19,-141,-151,-141,-97
-87,-73,14,80,-51,-29,29,-19,-117,-136,-117,-92
-92,-82,9,87,-51,-36,9,-19,-102,-97,-82,-63
-53,-29,24,41,-39,-2,4,0,-63,-39,-24,-24
-53,-14,39,34,-46,12,4,0,-48,-14,-4,-19
-53,-9,43,31,-48,17,9,9,-4,14,19,4
-48,-9,39,29,-43,14,14,19,19,48,43,9
-29,-9,19,19,-24,4,19,29,24,58,53,14
-39,-9,29,24,-34,9,34,29,14,58,53,14
-39,-29,9,34,-24,-9,24,24,14,39,29,9
-39,-29,9,34,-24,-9,24,19,9,24,14,4
-19,-14,4,17,-12,-4,24,14,9,14,0,0
-29,-19,9,24,-19,-4,24,14,-14,4,0,-14
-39,-29,9,34,-24,-9,24,19,4,-4,-9,-14
-39,-34,4,36,-21,-14,48,29,14,9,0,-14
-14,-39,-24,26,4,-31,29,34,14,24,4,-14
-19,-34,-14,26,-2,-24,34,29,24,29,19,-4
-29,-39,-9,34,-9,-24,29,29,24,19,19,-4
-34,-53,-19,43,-7,-36,24,19,19,19,0,-9
-9,-43,-34,26,12,-39,14,19,14,24,9,-9
-19,-34,-14,26,-2,-24,19,19,0,29,19,0
-19,-43,-24,31,2,-34,4,14,-9,14,0,-4
-19,-43,-24,31,2,-34,14,29,9,34,9,-4
-4,-39,-34,21,14,-36,14,48,9,34,9,-4
0,-39,-39,19,19,-39,9,48,14,34,-4,-9
0,-48,-48,24,24,-48,24,48,29,39,0,-9
9,-58,-68,24,39,-63,19,48,9,24,-4,-14
29,-58,-87,14,58,-73,14,43,9,19,-9,-19
19,-48,-68,14,43,-58,29,48,14,43,9,4
14,-48,-63,17,39,-56,14,34,0,24,9,-9
14,-48,-63,17,39,-56,9,58,14,48,19,-4
19,-43,-63,12,41,-53,24,63,14,58,29,0
39,-19,-58,-9,48,-39,34,68,29,43,24,0
19,-24,-43,2,31,-34,48,82,39,63,29,14
14,-29,-43,7,29,-36,58,87,48,63,24,4
14,-24,-39,4,26,-31,48,92,39,58,19,4
19,-39,-58,9,39,-48,58,82,39,53,14,4
9,-34,-43,12,26,-39,63,73,24,39,4,-4
-14,-39,-24,26,4,-31,63,68,24,34,4,-4
-24,-53,-29,39,2,-41,73,68,29,39,14,4
0,-24,-24,12,12,-24,48,68,19,29,9,-4
0,-19,-19,9,9,-19,68,68,24,39,9,-4
-14,-19,-4,17,-4,-12,63,68,29,39,9,-9
-19,-14,4,17,-12,-4,53,63,29,34,0,-9
-24,-24,0,24,-12,-12,48,43,34,24,9,-9
-19,-29,-9,24,-4,-19,48,29,29,19,-4,-14
-39,-39,0,39,-19,-19,34,0,4,0,-34,-34
-58,-48,9,53,-34,-19,34,4,0,9,-29,-24
-19,-43,-24,31,2,-34,24,24,14,19,-9,-29
-19,-43,-24,31,2,-34,24,29,19,29,0,-24
-34,-43,-9,39,-12,-26,34,43,24,39,19,-4
-34,-39,-4,36,-14,-21,34,39,24,43,29,-9
-43,-43,0,43,-21,-21,19,24,4,19,0,-24
-43,-43,0,43,-21,-21,14,9,4,14,-9,-29
-43,-48,-4,46,-19,-26,-4,-29,-19,4,-24,-48
-53,-48,4,51,-29,-21,-9,-24,-29,0,-34,-29
-24,-48,-24,36,0,-36,9,0,-24,4,-24,-29
-24,-43,-19,34,-2,-31,24,14,-19,9,-19,-34
-39,-43,-4,41,-17,-24,48,29,-9,29,0,-14
-48,-43,4,46,-26,-19,68,39,-4,34,4,-9
-39,-53,-14,46,-12,-34,58,14,4,24,-4,-9
-34,-39,-4,36,-14,-21,58,19,0,14,-14,-19
-34,-24,9,29,-21,-7,29,-14,-19,-4,-39,-53
-43,-43,0,43,-21,-21,19,-39,-34,-24,-48,-63
-34,-43,-9,39,-12,-26,39,9,-14,-4,-39,-39
-24,-43,-19,34,-2,-31,39,24,-4,4,-24,-29
-34,-43,-9,39,-12,-26,43,39,14,19,-4,-19
-48,-63,-14,56,-17,-39,48,53,29,34,9,-14
-48,-73,-24,61,-12,-48,34,24,14,19,0,-24
-39,-48,-9,43,-14,-29,19,9,14,24,-4,-29
-39,-43,-4,41,-17,-24,9,-9,9,19,-14,-39
-48,-39,9,43,-29,-14,-34,-39,0,14,-39,-68
-48,-24,24,36,-36,0,-9,-19,19,29,-14,-39
-39,-24,14,31,-26,-4,4,4,29,34,-4,-34
-53,-24,29,39,-41,2,29,29,39,43,9,-19
-53,-43,9,48,-31,-17,48,58,48,53,29,-4
-43,-43,0,43,-21,-21,34,39,29,39,0,-24
-43,-39,4,41,-24,-17,24,19,29,34,-19,-39
-43,-39,4,41,-24,-17,14,0,19,19,-43,-53
-48,-48,0,48,-24,-24,-4,-34,0,-9,-73,-82
-53,-63,-9,58,-21,-36,24,4,9,-4,-53,-73
-48,-78,-29,63,-9,-53,34,24,9,4,-48,-73
-53,-68,-14,61,-19,-41,43,48,29,14,-39,-63
-58,-97,-39,78,-9,-68,63,63,43,24,-29,-43
-68,-97,-29,82,-19,-63,43,43,24,4,-43,-73
-63,-92,-29,78,-17,-61,34,29,19,-4,-53,-78
-53,-82,-29,68,-12,-56,24,24,9,-9,-63,-82
-48,-78,-29,63,-9,-53,0,-14,-4,-9,-82,-102
-53,-97,-43,75,-4,-70,9,24,9,-9,-68,-87
-53,-82,-29,68,-12,-56,39,48,24,4,-53,-78
-39,-82,-43,61,2,-63,48,68,39,14,-58,-78
-39,-87,-48,63,4,-68,78,87,58,19,-43,-73
-43,-107,-63,75,9,-85,58,87,39,0,-68,-97
-48,-102,-53,75,2,-78,53,73,29,-9,-92,-107
-34,-97,-63,65,14,-80,34,58,19,-19,-102,-117
-29,-92,-63,61,17,-78,19,43,0,-39,-122,-151
-39,-122,-82,80,21,-102,34,68,9,-14,-107,-136
-39,-126,-87,82,24,-107,48,92,24,14,-87,-107
-29,-131,-102,80,36,-117,63,112,34,19,-68,-117
-29,-141,-112,85,41,-126,78,126,43,29,-58,-107
-43,-131,-87,87,21,-109,82,131,29,19,-68,-122
-48,-117,-68,82,9,-92,82,102,24,0,-107,-141
-34,-87,-53,61,9,-70,73,92,19,-9,-117,-146
-29,-87,-58,58,14,-73,63,82,14,-9,-126,-151
-48,-107,-58,78,4,-82,73,102,19,-9,-122,-156
-58,-117,-58,87,0,-87,82,131,29,-4,-122,-151
-63,-107,-43,85,-9,-75,92,151,39,0,-126,-151
-73,-126,-53,100,-9,-90,102,175,58,9,-131,-156
-73,-136,-63,104,-4,-100,97,170,43,4,-136,-161
-78,-136,-58,107,-9,-97,92,165,39,0,-141,-175
-78,-136,-58,107,-9,-97,82,161,24,-9,-151,-170
-73,-131,-58,102,-7,-95,78,156,34,-14,-156,-175
-87,-136,-48,112,-19,-92,87,170,43,-4,-161,-185
-92,-141,-48,117,-21,-95,97,180,48,0,-161,-190
-92,-146,-53,119,-19,-100,112,190,48,4,-146,-190
-87,-136,-48,112,-19,-92,122,200,53,14,-126,-195
-87,-131,-43,109,-21,-87,122,195,48,9,-151,-195
-97,-131,-34,114,-31,-82,117,185,34,0,-156,-204
-97,-126,-29,112,-34,-78,112,175,29,-24,-161,-214
-97,-112,-14,104,-41,-63,112,165,43,-9,-165,-214
-97,-126,-29,112,-34,-78,112,156,48,-4,-165,-209
-126,-151,-24,139,-51,-87,126,141,48,4,-146,-209
-117,-146,-29,131,-43,-87,151,170,48,4,-141,-214
-112,-146,-34,129,-39,-90,156,151,48,4,-146,-209
-122,-156,-34,139,-43,-95,131,156,39,-14,-165,-219
-126,-141,-14,134,-56,-78,122,151,43,-9,-165,-204
-126,-131,-4,129,-61,-68,122,136,43,-9,-165,-209
-112,-126,-14,119,-48,-70,122,122,73,-9,-180,-190
-117,-112,4,114,-61,-53,112,122,92,19,-161,-165
-117,-112,4,114,-61,-53,112,107,68,34,-131,-161
-107,-97,9,102,-58,-43,112,122,73,48,-92,-146
-92,-92,0,92,-46,-46,92,131,78,63,-58,-122
-73,-73,0,73,-36,-36,78,102,68,53,-68,-97
-73,-68,4,70,-39,-31,68,102,82,48,-53,-78
-73,-48,24,61,-48,-12,53,97,82,58,-43,-78
-73,-43,29,58,-51,-7,39,97,82,73,-48,-68
-48,-39,9,43,-29,-14,29,92,97,82,-14,-34
-58,-29,29,43,-43,0,14,68,78,82,0,-29
-68,-19,48,43,-58,14,4,48,58,78,14,-24
-48,-4,43,26,-46,19,4,48,63,102,29,-19
-34,14,48,9,-41,31,0,58,73,87,29,-14
-29,19,48,4,-39,34,-4,63,73,82,29,4
-34,19,53,7,-43,36,-9,63,68,78,24,0
-39,19,58,9,-48,39,-19,63,68,78,24,-4
-24,9,34,7,-29,21,-14,53,73,87,34,19
-19,9,29,4,-24,19,4,34,68,82,34,19
-19,4,24,7,-21,14,0,14,48,68,39,19
-24,4,29,9,-26,17,-4,-4,29,48,39,19
0,14,14,-7,-7,14,4,14,29,48,34,29
-14,4,19,4,-17,12,0,19,29,48,24,34
-24,4,29,9,-26,17,4,29,34,68,39,34
-24,9,34,7,-29,21,4,29,43,78,43,39
0,19,19,-9,-9,19,-9,4,34,63,53,24
-14,14,29,0,-21,21,-14,-9,29,68,58,34
-29,9,39,9,-34,24,-14,-24,24,68,63,43
-19,4,24,7,-21,14,-9,-29,19,58,58,39
-14,14,29,0,-21,21,-4,-9,24,43,39,29
-14,9,24,2,-19,17,-9,-4,14,43,29,19
-19,0,19,9,-19,9,4,4,19,43,19,19
-19,-4,14,12,-17,4,9,14,24,39,4,19
-9,-4,4,7,-7,0,0,-9,9,29,-4,4
-9,4,14,2,-12,9,-4,-9,4,29,4,4
-14,-14,0,14,-7,-7,-14,-24,-4,19,4,0
-14,-29,-14,21,0,-21,-24,-39,-14,9,-4,-4
-9,-29,-19,19,4,-24,-14,-4,14,19,19,14
4,-19,-24,7,14,-21,-9,4,9,19,14,19
14,-9,-24,-2,19,-17,-4,14,4,19,14,19
14,-9,-24,-2,19,-17,0,24,-4,29,19,19
-4,-24,-19,14,7,-21,-9,4,-4,19,4,4
4,-4,-9,0,7,-7,-4,4,0,19,14,0
4,-4,-9,0,7,-7,-4,0,-4,19,19,4
-4,-14,-9,9,2,-12,-4,-9,-4,9,14,4
-14,-14,0,14,-7,-7,19,34,19,29,29,14
-9,4,14,2,-12,9,34,53,29,34,24,24
0,-4,-4,2,2,-4,43,58,14,24,14,24
0,-14,-14,7,7,-14,43,78,19,29,9,34
-19,-34,-14,26,-2,-24,9,0,-39,-24,-34,-24
-39,-53,-14,46,-12,-34,19,-4,-39,-24,-24,-19
0,-19,-19,9,9,-19,43,34,-19,9,0,-9
4,-19,-24,7,14,-21,29,24,-34,0,4,-9
-48,-78,-29,63,-9,-53,68,68,0,39,29,29
-34,-58,-24,46,-4,-41,53,82,0,29,24,24
-29,-48,-19,39,-4,-34,48,87,0,29,19,19
-24,-39,-14,31,-4,-26,43,92,0,29,14,14
-19,-29,-9,24,-4,-19,39,97,0,29,9,9
-9,-19,-9,14,0,-14,24,82,-4,19,9,0
-9,-19,-9,14,0,-14,19,68,-9,19,9,0
-9,-19,-9,14,0,-14,14,53,-14,19,9,0
-9,-19,-9,14,0,-14,9,39,-19,19,9,0
-19,-19,0,19,-9,-9,29,58,-4,29,24,19
-19,-19,0,19,-9,-9,39,78,9,39,39,29
-19,-19,0,19,-9,-9,48,97,24,48,53,39
-19,-19,0,19,-9,-9,58,117,39,58,68,48
-14,-19,-4,17,-4,-12,48,97,24,29,34,29
-9,-19,-9,14,0,-14,39,78,9,9,9,9
-4,-19,-14,12,4,-17,29,58,-4,-9,-14,-9
0,-19,-19,9,9,-19,19,39,-19,-29,-39,-29
-9,-29,-19,19,4,-24,34,58,0,0,-9,-4
-9,-29,-19,19,4,-24,39,68,9,19,9,9
-9,-29,-19,19,4,-24,43,78,19,39,29,24
-9,-29,-19,19,4,-24,48,87,29,58,48,39
-19,-19,0,19,-9,-9,24,58,14,43,29,19
-19,-9,9,14,-14,0,9,29,0,29,19,9
-19,0,19,9,-19,9,-4,0,-14,14,9,0
-19,9,29,4,-24,19,-19,-29,-29,0,0,-9
-19,19,39,0,-29,29,-4,-4,-9,19,14,9
-19,19,39,0,-29,29,0,9,0,29,29,19
-19,19,39,0,-29,29,4,24,9,39,43,29
-19,19,39,0,-29,29,9,39,19,48,58,39
-29,29,58,0,-43,43,-9,9,4,43,48,29
-29,29,58,0,-43,43,-19,-9,0,39,39,19
-29,29,58,0,-43,43,-29,-29,-4,34,29,9
-19,29,48,-4,-34,39,-39,-43,-9,29,19,0
-29,39,68,-4,-48,53,-19,-19,0,29,34,19
-29,19,48,4,-39,34,-19,-9,9,24,34,29
-29,0,29,14,-29,14,-9,4,19,24,39,39
-34,0,34,17,-34,17,0,19,24,24,43,48
-24,24,48,0,-36,36,-14,-9,9,4,29,34
-24,29,53,-2,-39,41,-29,-24,4,14,34,24
-29,14,43,7,-36,29,-43,-39,4,19,53,29
-29,19,48,4,-39,34,-58,-53,0,19,48,24
-29,29,58,0,-43,43,-39,-39,9,39,48,39
-29,19,48,4,-39,34,-39,-29,19,43,48,43
-34,9,43,12,-39,26,-34,-14,29,48,34,34
-34,24,58,4,-46,41,-24,9,39,63,43,39
-19,58,78,-19,-48,68,-29,-19,19,48,34,24
-19,39,58,-9,-39,48,-34,-34,9,29,48,29
-4,19,24,-7,-14,21,-39,-29,0,39,53,34
-4,19,24,-7,-14,21,-43,-34,-9,43,24,19
-14,29,43,-7,-29,36,-29,-9,4,43,24,24
-19,29,48,-4,-34,39,-24,0,14,53,24,24
-24,-4,19,14,-21,7,-19,-4,24,39,24,14
-24,-14,9,19,-17,-2,-4,4,29,34,24,9
-14,-14,0,14,-7,-7,-14,-9,14,24,14,-9
-14,4,19,4,-17,12,-19,-14,9,9,14,0
-19,-9,9,14,-14,0,-19,-14,9,24,14,9
-19,-14,4,17,-12,-4,-34,-9,4,9,-9,-19
-24,-9,14,17,-19,2,-24,-4,4,9,-9,-19
-19,-19,0,19,-9,-9,-4,4,4,14,-4,4
-19,-43,-24,31,2,-34,-9,-14,4,14,-4,-24
-19,-63,-43,41,12,-53,0,-14,4,14,-4,-4
-9,-29,-19,19,4,-24,0,4,4,4,0,-9
-4,-9,-4,7,0,-7,-19,-4,4,0,0,-24
4,-4,-9,0,7,-7,-4,-4,0,0,-4,-14
-4,-14,-9,9,2,-12,-4,-9,0,4,-4,-29
-19,-24,-4,21,-7,-14,4,9,9,9,-4,-19
-24,-34,-9,29,-7,-21,14,24,14,9,-4,-9
-14,-48,-34,31,9,-41,19,34,19,9,9,-9
-29,-58,-29,43,0,-43,29,43,24,14,14,-4
-39,-48,-9,43,-14,-29,19,34,34,9,9,0
-39,-48,-9,43,-14,-29,9,34,9,-4,-19,-24
-39,-43,-4,41,-17,-24,19,24,4,-9,-24,-29
-39,-43,-4,41,-17,-24,19,24,0,-9,-24,-24
-29,-43,-14,36,-7,-29,29,39,14,4,-9,-9
-29,-48,-19,39,-4,-34,43,53,19,19,4,-4
-29,-48,-19,39,-4,-34,58,58,19,34,19,0
-29,-53,-24,41,-2,-39,73,53,19,43,34,4
-29,-53,-24,41,-2,-39,73,43,14,29,24,-9
-24,-48,-24,36,0,-36,68,43,4,14,9,-29
-19,-43,-24,31,2,-34,63,39,0,4,-9,-34
-19,-43,-24,31,2,-34,58,39,-4,9,-4,-24
-34,-43,-9,39,-12,-26,73,39,-4,9,4,-24
-34,-43,-9,39,-12,-26,73,39,-4,9,4,-19
-34,-43,-9,39,-12,-26,82,39,-4,14,19,-19
-29,-43,-14,36,-7,-29,68,34,-9,14,4,-24
-29,-48,-19,39,-4,-34,73,43,-9,4,0,-24
-39,-43,-4,41,-17,-24,68,53,-9,0,-4,-24
-29,-39,-9,34,-9,-24,53,53,-9,-19,-29,-29
-29,-34,-4,31,-12,-19,58,53,-9,-24,-24,-29
-39,-48,-9,43,-14,-29,58,48,-9,-19,-19,-39
-39,-53,-14,46,-12,-34,63,39,-9,-4,-9,-34
-39,-48,-9,43,-14,-29,73,34,-9,-4,-9,-19
-39,-53,-14,46,-12,-34,58,29,-9,-14,-14,-34
-39,-53,-14,46,-12,-34,48,43,-4,-9,-4,-29
-34,-48,-14,41,-9,-31,48,48,-4,-4,0,-24
-4,-34,-29,19,12,-31,53,53,-4,0,9,-19
-14,-29,-14,21,0,-21,53,58,0,4,-9,-14
-34,-43,-9,39,-12,-26,48,39,-9,0,-9,-19
-34,-43,-9,39,-12,-26,39,29,-19,0,-9,-19
-34,-34,0,34,-17,-17,39,19,-9,0,-9,-19
-24,-34,-9,29,-7,-21,29,9,-9,0,-14,-19
-29,-48,-19,39,-4,-34,14,14,-9,0,-9,-14
-29,-24,4,26,-17,-9,24,24,-4,14,0,-4
-4,-9,-4,7,0,-7,24,29,4,4,4,0
-14,0,14,7,-14,7,24,29,19,4,9,0
-24,-4,19,14,-21,7,14,9,0,0,4,-14
-43,-4,39,24,-41,17,-9,-9,-9,0,0,-19
-34,-14,19,24,-26,2,-24,-29,-9,0,0,-14
-39,-4,34,21,-36,14,-39,-53,-19,-4,-4,-19
-34,9,43,12,-39,26,-29,-43,-14,0,0,-4
-34,0,34,17,-34,17,-19,-19,0,14,19,4
-24,0,24,12,-24,12,-9,-4,14,29,29,14
-9,9,19,0,-14,14,0,9,29,43,43,29
-39,14,53,12,-46,34,-9,-19,29,34,34,9
-39,0,39,19,-39,19,-4,-34,0,24,24,0
-39,4,43,17,-41,24,-39,-48,-14,24,14,-9
-34,19,53,7,-43,36,-53,-68,-24,19,14,0
-43,-34,9,39,-26,-12,4,-9,29,48,63,43
-34,-14,19,24,-26,2,0,9,19,29,43,24
0,39,39,-19,-19,39,-9,19,34,24,34,34
-4,48,53,-21,-29,51,-24,9,34,43,34,34
-43,19,63,12,-53,41,-68,-58,4,24,9,-4
-53,29,82,12,-68,56,-58,-39,34,73,48,19
-4,87,92,-41,-48,90,-29,29,92,146,131,68
19,78,58,-48,-19,68,-9,87,161,214,190,92
14,29,14,-21,0,21,48,229,253,326,287,156
34,34,0,-34,17,17,68,336,317,419,385,214
117,117,0,-117,58,58,24,326,356,497,473,287
185,200,14,-192,85,107,-9,317,414,614,595,405
180,214,34,-197,73,124,-87,273,458,692,697,473
200,244,43,-222,78,143,-122,268,541,790,810,575
317,361,43,-339,136,202,-136,326,649,932,966,732
424,497,73,-461,175,285,-224,268,702,1015,1098,878
453,536,82,-495,185,309,-253,170,712,1044,1195,1019
463,561,97,-512,183,329,-273,82,639,976,1229,1122
541,629,87,-585,226,358,-361,-87,488,814,1180,1146
653,727,73,-690,290,400,-429,-268,326,614,1078,1166
683,761,78,-722,302,419,-531,-463,63,317,917,1107
624,761,136,-692,244,448,-649,-678,-224,24,751,1068
575,771,195,-673,190,483,-634,-780,-390,-146,678,1054
507,688,180,-597,163,434,-541,-810,-492,-312,497,829
336,473,136,-405,100,305,-395,-790,-541,-458,234,483
73,278,204,-175,-65,241,-200,-722,-561,-541,63,248
-131,209,341,-39,-236,275,-78,-727,-629,-644,-97,63
-248,214,463,17,-356,339,-4,-766,-727,-751,-273,-82
-336,204,541,65,-439,373,9,-824,-839,-883,-419,-195
-419,112,531,153,-475,322,-9,-888,-966,-1058,-614,-322
-429,39,468,195,-448,253,39,-805,-985,-1112,-717,-375
-375,24,400,175,-387,212,78,-673,-922,-1034,-722,-405
-346,-29,317,187,-331,143,97,-546,-834,-932,-697,-419
-361,-146,214,253,-287,34,170,-336,-712,-814,-639,-400
-341,-219,122,280,-231,-48,209,-151,-639,-722,-585,-405
-258,-190,68,224,-163,-61,185,-58,-551,-634,-541,-390
-190,-175,14,183,-102,-80,175,24,-458,-522,-458,-336
-180,-185,-4,183,-87,-95,122,39,-414,-448,-405,-322
-180,-170,9,175,-95,-80,92,9,-336,-356,-317,-263
-136,-102,34,119,-85,-34,117,29,-224,-214,-185,-170
-82,-63,19,73,-51,-21,97,19,-161,-156,-131,-141
-102,-107,-4,104,-48,-56,92,39,-102,-107,-92,-82
-87,-92,-4,90,-41,-48,73,53,-82,-78,-78,-68
-82,-78,4,80,-43,-36,68,68,-34,-43,-48,-43
-73,-68,4,70,-39,-31,63,82,-4,-4,-19,-39
-48,-58,-9,53,-19,-34,58,97,4,9,-4,-34
-68,-53,14,61,-41,-19,43,82,0,14,0,-43
-68,-68,0,68,-34,-34,14,63,-4,0,-19,-48
-68,-63,4,65,-36,-29,-4,43,-14,-9,-29,-53
-48,-43,4,46,-26,-19,-24,24,-19,-14,-39,-58
-48,-43,4,46,-26,-19,-4,48,-19,0,-24,-43
-58,-48,9,53,-34,-19,4,68,14,4,-19,-34
-58,-48,9,53,-34,-19,39,92,39,34,4,-24
-34,-48,-14,41,-9,-31,29,112,53,63,24,-14
-34,-43,-9,39,-12,-26,34,82,43,53,19,-29
-48,-39,9,43,-29,-14,19,58,34,29,9,-34
-58,-43,14,51,-36,-14,4,24,19,14,-19,-43
-39,-24,14,31,-26,-4,-14,0,4,4,-19,-48
-48,-24,24,36,-36,0,0,14,4,19,0,-39
-48,-34,14,41,-31,-9,-4,24,9,14,-9,-34
-48,-34,14,41,-31,-9,14,53,43,43,9,-24
-34,-29,4,31,-19,-12,24,87,58,53,19,-14
-39,-24,14,31,-26,-4,4,68,53,43,0,-24
-48,-29,19,39,-34,-4,14,48,58,39,0,-29
-48,-34,14,41,-31,-9,4,29,29,14,-9,-39
-39,-29,9,34,-24,-9,-4,4,19,0,-19,-48
-39,-19,19,29,-29,0,4,24,24,34,0,-19
-43,-19,24,31,-34,2,-4,14,19,14,0,-29
-43,-19,24,31,-34,2,-4,43,43,39,9,-19
-39,-14,24,26,-31,4,14,53,53,48,19,-9
-19,-4,14,12,-17,4,0,19,48,19,9,-19
-39,-14,24,26,-31,4,0,14,48,34,9,-14
-43,-24,19,34,-31,-2,-4,0,48,29,0,-34
-43,-24,19,34,-31,-2,-29,-14,29,19,-9,-43
-39,-29,9,34,-24,-9,-19,-9,39,24,0,-29
-39,-24,14,31,-26,-4,-14,-4,24,19,-4,-34
-53,-29,24,41,-39,-2,-14,4,24,24,0,-29
-53,-43,9,48,-31,-17,-4,19,29,39,14,-14
-29,-29,0,29,-14,-14,-43,0,19,24,0,-34
-29,-29,0,29,-14,-14,-29,-9,14,19,-9,-43
-43,-34,9,39,-26,-12,-39,-19,9,4,-19,-58
-48,-34,14,41,-31,-9,-53,-34,0,-14,-39,-68
-43,-43,0,43,-21,-21,-43,-19,9,-4,-19,-48
-29,-39,-9,34,-9,-24,-39,-19,9,0,-24,-43
-39,-39,0,39,-19,-19,-48,-34,-9,-9,-43,-53
-48,-39,9,43,-29,-14,-43,-14,-9,9,-29,-34
-19,-39,-19,29,0,-29,-53,-24,-14,0,-24,-58
-19,-43,-24,31,2,-34,-53,-29,-9,0,-29,-63
-34,-48,-14,41,-9,-31,-43,-24,-4,0,-24,-53
-34,-48,-14,41,-9,-31,-43,-39,-4,-4,-29,-68
-48,-43,4,46,-26,-19,-29,-19,9,0,-24,-58
-53,-43,9,48,-31,-17,-14,-9,24,4,-19,-48
-58,-48,9,53,-34,-19,-14,-24,14,4,-19,-53
-73,-48,24,61,-48,-12,0,4,19,9,-14,-19
-53,-39,14,46,-34,-12,-4,9,19,0,-24,-39
-53,-34,19,43,-36,-7,-4,4,19,0,-29,-53
-68,-34,34,51,-51,0,4,0,24,14,-19,-43
-78,-34,43,56,-61,4,9,-9,24,14,-24,-48
-87,-63,24,75,-56,-19,19,-4,34,0,-29,-48
-82,-58,24,70,-53,-17,39,19,29,-4,-34,-48
-82,-53,29,68,-56,-12,29,4,9,-19,-53,-73
-92,-82,9,87,-51,-36,39,0,-4,-34,-58,-73
-82,-73,9,78,-46,-31,58,29,4,-24,-63,-78
-73,-73,0,73,-36,-36,68,34,4,-24,-63,-78
-82,-73,9,78,-46,-31,82,39,14,-19,-58,-78
-97,-92,4,95,-51,-43,97,43,19,-14,-58,-82
-97,-122,-24,109,-36,-73,112,34,4,-19,-68,-82
-87,-107,-19,97,-34,-63,117,39,4,-14,-63,-78
-87,-112,-24,100,-31,-68,126,39,0,-19,-63,-78
-97,-117,-19,107,-39,-68,102,29,-9,-24,-78,-97
-97,-107,-9,102,-43,-58,107,29,-9,-39,-87,-92
-87,-102,-14,95,-36,-58,102,34,-9,-43,-92,-102
-102,-97,4,100,-53,-46,107,39,-9,-43,-92,-102
-102,-112,-9,107,-46,-61,107,48,-9,-43,-87,-102
-92,-112,-19,102,-36,-65,112,43,-14,-43,-78,-97
-92,-107,-14,100,-39,-61,112,39,-9,-34,-78,-97
-92,-107,-14,100,-39,-61,112,34,-14,-34,-82,-97
-97,-117,-19,107,-39,-68,102,14,-29,-48,-92,-112
-97,-112,-14,104,-41,-63,102,34,-14,-48,-82,-107
-87,-117,-29,102,-29,-73,102,43,-19,-43,-87,-112
-87,-97,-9,92,-39,-53,102,58,-4,-39,-87,-107
-87,-117,-29,102,-29,-73,112,63,4,-34,-87,-92
-97,-112,-14,104,-41,-63,102,53,0,-43,-92,-117
-92,-112,-19,102,-36,-65,92,48,0,-43,-92,-117
-82,-107,-24,95,-29,-65,82,53,-4,-39,-92,-117
-78,-107,-29,92,-24,-68,58,24,-14,-29,-102,-131
-73,-117,-43,95,-14,-80,48,43,0,-39,-92,-122
-73,-102,-29,87,-21,-65,68,58,4,-34,-92,-117
-58,-102,-43,80,-7,-73,68,68,9,-34,-112,-122
-58,-107,-48,82,-4,-78,87,78,19,-39,-112,-122
-78,-131,-53,104,-12,-92,82,73,14,-48,-117,-131
-87,-131,-43,109,-21,-87,82,63,9,-48,-131,-136
-78,-131,-53,104,-12,-92,68,53,4,-48,-131,-141
-78,-131,-53,104,-12,-92,58,43,-9,-58,-141,-170
-97,-156,-58,126,-19,-107,73,58,4,-53,-136,-165
-97,-156,-58,126,-19,-107,78,82,14,-34,-136,-146
-87,-156,-68,122,-9,-112,82,102,19,-39,-136,-165
-87,-161,-73,124,-7,-117,87,117,24,-39,-146,-165
-102,-165,-63,134,-19,-114,78,122,19,-53,-151,-180
-107,-165,-58,136,-24,-112,73,82,14,-68,-185,-200
-92,-151,-58,122,-17,-104,58,63,9,-73,-190,-204
-87,-165,-78,126,-4,-122,43,43,4,-68,-195,-209
-92,-185,-92,139,0,-139,53,68,9,-73,-190,-209
-97,-185,-87,141,-4,-136,63,92,19,-63,-180,-200
-97,-165,-68,131,-14,-117,73,107,29,-53,-175,-195
-102,-175,-73,139,-14,-124,82,126,48,-39,-170,-195
-102,-175,-73,139,-14,-124,73,107,34,-53,-185,-209
-107,-175,-68,141,-19,-122,63,87,19,-68,-200,-234
-107,-175,-68,141,-19,-122,48,68,-4,-87,-219,-239
-102,-170,-68,136,-17,-119,39,48,-4,-102,-234,-253
-92,-175,-82,134,-4,-129,39,68,9,-92,-234,-244
-92,-180,-87,136,-2,-134,48,82,19,-78,-229,-239
-87,-185,-97,136,4,-141,63,97,24,-63,-209,-229
-78,-175,-97,126,9,-136,73,112,34,-43,-185,-224
-92,-170,-78,131,-7,-124,48,97,34,-43,-214,-229
-107,-170,-63,139,-21,-117,39,78,14,-58,-224,-244
-112,-165,-53,139,-29,-109,29,58,4,-87,-234,-258
-117,-151,-34,134,-41,-92,24,39,14,-78,-244,-263
-112,-151,-39,131,-36,-95,39,63,43,-48,-219,-234
-136,-161,-24,148,-56,-92,58,63,58,-24,-185,-219
-122,-141,-19,131,-51,-80,87,107,73,-9,-165,-209
-112,-126,-14,119,-48,-70,97,102,87,4,-156,-190
-141,-107,34,124,-87,-36,53,34,68,-43,-214,-239
-175,-136,39,156,-107,-48,48,19,68,-48,-234,-253
-161,-131,29,146,-95,-51,68,34,82,-34,-209,-239
-156,-126,29,141,-92,-48,78,48,87,-19,-195,-224
-151,-122,29,136,-90,-46,87,63,92,-4,-180,-209
-146,-117,29,131,-87,-43,97,78,97,9,-165,-195
-126,-107,19,117,-73,-43,87,87,112,14,-146,-175
-126,-78,48,102,-87,-14,87,92,117,19,-136,-165
-117,-78,39,97,-78,-19,78,92,122,19,-131,-156
-107,-78,29,92,-68,-24,78,97,126,24,-122,-146
-107,-68,39,87,-73,-14,68,87,122,43,-97,-131
-102,-58,43,80,-73,-7,68,82,122,43,-82,-117
-97,-58,39,78,-68,-9,68,82,122,63,-48,-97
-97,-78,19,87,-58,-29,68,82,126,78,0,-63
-82,-63,19,73,-51,-21,78,97,117,63,4,-53
-78,-39,39,58,-58,0,87,102,107,63,-9,-43
-73,-43,29,58,-51,-7,78,102,97,58,-24,-43
-73,-48,24,61,-48,-12,73,107,87,53,-53,-58
-63,-39,24,51,-43,-7,73,97,78,58,-39,-48
-58,-9,48,34,-53,19,73,73,68,53,-24,-39
-58,-34,24,46,-41,-4,73,53,58,34,4,-19
-43,-58,-14,51,-14,-36,73,53,48,43,24,0
-43,-48,-4,46,-19,-26,78,68,48,63,14,14
-48,-19,29,34,-39,4,82,78,53,73,34,19
-48,-9,39,29,-43,14,78,82,53,82,43,19
-48,-34,14,41,-31,-9,73,73,53,68,53,9
-43,-43,0,43,-21,-21,53,58,29,48,43,-9
-43,-39,4,41,-24,-17,43,34,19,39,34,-9
-43,-14,29,29,-36,7,29,19,9,24,34,9
-48,-24,24,36,-36,0,19,9,4,39,34,29
-39,-29,9,34,-24,-9,19,29,9,39,29,9
-34,-19,14,26,-24,-2,24,43,14,39,39,19
-29,-24,4,26,-17,-9,39,63,19,43,43,43
-29,-43,-14,36,-7,-29,29,53,24,43,43,14
-34,-43,-9,39,-12,-26,9,39,9,29,34,24
-39,-24,14,31,-26,-4,0,34,4,24,29,14
-39,-9,29,24,-34,9,-29,9,0,14,19,-4
-34,-9,24,21,-29,7,-24,-4,-9,9,4,0
-34,-29,4,31,-19,-12,-4,9,9,29,19,0
-34,-24,9,29,-21,-7,4,29,24,39,34,9
-34,-29,4,31,-19,-12,14,53,34,43,39,29
-19,-39,-19,29,0,-29,19,73,43,48,58,39
-19,-39,-19,29,0,-29,9,48,34,43,53,24
-19,-29,-9,24,-4,-19,0,34,39,34,43,24
-19,-29,-9,24,-4,-19,-19,19,9,14,9,-4
-19,-24,-4,21,-7,-14,-19,-4,0,4,0,-14
-29,-29,0,29,-14,-14,0,14,19,19,14,4
-29,-34,-4,31,-12,-19,4,34,29,29,24,14
-29,-43,-14,36,-7,-29,14,63,39,39,34,24
-29,-48,-19,39,-4,-34,24,82,43,48,43,34
-29,-53,-24,41,-2,-39,0,48,29,34,24,19
-29,-53,-24,41,-2,-39,-9,34,19,19,14,14
-24,-48,-24,36,0,-36,-24,19,4,4,0,-4
-19,-43,-24,31,2,-34,-39,0,-4,-4,-19,-9
-9,-53,-43,31,17,-48,-19,14,4,29,14,19
-14,-53,-39,34,12,-46,-4,29,14,29,24,24
-14,-53,-39,34,12,-46,4,43,24,39,34,34
-14,-53,-39,34,12,-46,24,58,34,53,58,39
-9,-43,-34,26,12,-39,-9,39,9,29,29,14
-9,-53,-43,31,17,-48,-9,24,0,9,14,4
-19,-53,-34,36,7,-43,-19,19,-9,-4,0,-4
-9,-53,-43,31,17,-48,-39,4,-19,-34,-34,-19
-9,-53,-43,31,17,-48,-19,19,0,-9,-9,0
-9,-53,-43,31,17,-48,-9,34,9,9,9,9
-9,-53,-43,31,17,-48,4,43,19,39,34,24
-9,-43,-34,26,12,-39,24,58,29,53,48,48
-9,-29,-19,19,4,-24,0,43,29,39,39,24
-14,-29,-14,21,0,-21,-9,39,24,34,34,24
-14,-24,-9,19,-2,-17,-19,34,24,29,34,24
9,-9,-19,0,14,-14,-24,29,24,24,39,24
-14,-14,0,14,-7,-7,-9,43,43,43,39,39
-24,-34,-9,29,-7,-21,0,48,48,48,48,39
-24,-39,-14,31,-4,-26,4,53,43,58,58,43
-24,-34,-9,29,-7,-21,19,58,58,68,68,48
-14,-19,-4,17,-4,-12,9,48,48,63,48,39
-29,-39,-9,34,-9,-24,-4,48,39,48,43,39
-29,-19,9,24,-19,-4,4,53,34,58,43,43
-4,-9,-4,7,0,-7,4,53,34,43,39,43
-24,-14,9,19,-17,-2,19,58,43,48,53,48
-29,-24,4,26,-17,-9,39,58,48,53,58,48
-43,-29,14,36,-29,-7,34,58,53,63,63,48
-29,-43,-14,36,-7,-29,39,58,68,73,73,58
-29,-34,-4,31,-12,-19,43,63,58,63,53,53
-34,-19,14,26,-24,-2,39,48,48,43,29,43
-34,-29,4,31,-19,-12,43,58,48,34,29,39
-24,-29,-4,26,-9,-17,48,58,48,24,19,34
-14,-24,-9,19,-2,-17,63,53,39,34,39,48
-39,-29,9,34,-24,-9,92,48,53,34,43,48
-43,-53,-9,48,-17,-31,126,48,39,34,48,48
-48,-58,-9,53,-19,-34,122,48,39,43,53,48
-4,0,4,2,-4,2,122,68,43,29,53,68
-14,4,19,4,-17,12,73,39,19,9,34,53
-53,-43,9,48,-31,-17,9,-39,-29,-29,-24,4
-48,-29,19,39,-34,-4,0,-39,-24,-4,4,24
-14,29,43,-7,-29,36,4,-29,-4,24,43,43
-14,48,63,-17,-39,56,0,-48,24,43,58,63
-53,9,63,21,-58,36,39,0,73,102,126,117
-53,29,82,12,-68,56,39,48,102,146,161,136
0,107,107,-53,-53,107,19,68,141,185,180,141
53,165,112,-109,-29,139,9,141,204,248,229,175
34,151,117,-92,-41,134,-48,170,239,302,258,175
39,136,97,-87,-29,117,-73,219,307,400,356,229
97,190,92,-143,2,141,-78,258,385,556,517,336
161,253,92,-207,34,173,-126,224,468,712,668,444
180,263,82,-222,48,173,-122,287,639,907,858,614
229,302,73,-265,78,187,-117,385,805,1078,1034,761
326,448,122,-387,102,285,-195,356,878,1151,1156,888
414,605,190,-509,112,397,-283,248,868,1171,1273,1049
444,678,234,-561,104,456,-390,73,775,1102,1317,1151
473,717,244,-595,114,480,-468,-97,663,990,1307,1215
575,775,200,-675,187,488,-507,-209,502,810,1273,1283
702,829,126,-766,287,478,-600,-366,190,483,1141,1263
732,810,78,-771,326,444,-658,-502,-117,141,976,1244
653,790,136,-722,258,463,-653,-614,-341,-146,844,1239
566,795,229,-680,168,512,-649,-800,-570,-409,653,1093
444,688,244,-566,100,466,-561,-878,-727,-624,361,775
239,473,234,-356,2,353,-424,-888,-863,-834,14,356
-34,297,331,-131,-183,314,-331,-980,-971,-1015,-292,24
-229,224,453,2,-341,339,-209,-1010,-980,-1073,-448,-122
-287,185,473,51,-380,329,-156,-980,-1044,-1156,-624,-273
-302,92,395,104,-348,244,-156,-946,-1102,-1254,-800,-390
-341,-9,331,175,-336,161,-87,-785,-1005,-1151,-775,-366
-317,-43,273,180,-295,114,-48,-575,-863,-985,-683,-336
-219,-29,190,124,-204,80,-48,-439,-756,-863,-619,-341
-156,-58,97,107,-126,19,-53,-317,-653,-756,-580,-341
-165,-141,24,153,-95,-58,-82,-248,-590,-673,-556,-366
-141,-161,-19,151,-61,-90,-58,-165,-483,-536,-473,-322
-73,-117,-43,95,-14,-80,-9,-92,-351,-375,-322,-229
-43,-87,-43,65,0,-65,-14,-97,-248,-253,-219,-165
-82,-122,-39,102,-21,-80,24,-29,-131,-141,-112,-87
-87,-122,-34,104,-26,-78,48,58,-58,-58,-29,-34
-34,-63,-29,48,-2,-46,9,58,-34,-29,-4,-14
4,-19,-24,7,14,-21,-14,68,-4,-19,4,4
4,-29,-34,12,19,-31,-39,34,-19,-24,-14,-14
-4,-29,-24,17,9,-26,-48,19,4,-14,-9,-4
-9,-34,-24,21,7,-29,-58,4,9,0,-4,-14
0,-39,-39,19,19,-39,-68,-9,-4,-9,-14,-24
-29,-48,-19,39,-4,-34,-39,14,4,4,4,-9
-29,-78,-48,53,9,-63,-34,24,4,0,0,-9
-29,-87,-58,58,14,-73,-19,34,0,0,4,-9
-9,-82,-73,46,31,-78,-4,43,0,4,9,-9
-29,-68,-39,48,4,-53,-14,29,-14,0,-4,-24
-39,-68,-29,53,-4,-48,-14,29,4,-14,-19,-24
-39,-63,-24,51,-7,-43,9,34,14,-4,-14,-24
-14,-58,-43,36,14,-51,-9,34,14,4,-14,-24
-29,-73,-43,51,7,-58,34,48,43,29,4,-14
-48,-78,-29,63,-9,-53,48,58,53,29,19,-4
-63,-92,-29,78,-17,-61,63,58,58,39,14,0
-48,-82,-34,65,-7,-58,73,68,63,53,39,9
-48,-58,-9,53,-19,-34,53,58,34,34,24,-4
-48,-63,-14,56,-17,-39,34,43,19,14,0,-14
-48,-58,-9,53,-19,-34,39,48,34,29,4,-19
-34,-48,-14,41,-9,-31,34,58,29,24,0,-24
-48,-58,-9,53,-19,-34,39,68,43,43,9,-4
-58,-68,-9,63,-24,-39,63,68,68,58,29,9
-58,-78,-19,68,-19,-48,68,68,58,53,39,19
-48,-78,-29,63,-9,-53,73,63,68,58,48,29
-48,-63,-14,56,-17,-39,63,53,58,63,29,19
-53,-58,-4,56,-24,-31,43,34,39,24,9,-9
-53,-53,0,53,-26,-26,34,53,48,29,0,-19
-48,-43,4,46,-26,-19,43,53,43,19,-9,-29
-39,-39,0,39,-19,-19,63,53,53,14,4,-14
-58,-53,4,56,-31,-24,87,63,68,43,19,4
-63,-68,-4,65,-29,-36,107,63,82,53,24,0
-63,-73,-9,68,-26,-41,107,63,78,58,29,4
-48,-73,-24,61,-12,-48,117,68,63,48,14,-9
-48,-63,-14,56,-17,-39,112,63,43,29,-4,-24
-63,-63,0,63,-31,-31,102,63,39,19,-14,-29
-63,-73,-9,68,-26,-41,102,68,39,19,-14,-24
-48,-63,-14,56,-17,-39,82,63,39,29,0,-14
-48,-68,-19,58,-14,-43,107,58,43,39,0,-14
-63,-78,-14,70,-24,-46,107,53,48,39,0,-19
-68,-82,-14,75,-26,-48,102,43,48,34,-9,-19
-63,-78,-14,70,-24,-46,68,43,39,24,-4,-24
-48,-68,-19,58,-14,-43,48,39,29,19,-14,-24
-58,-63,-4,61,-26,-34,14,19,0,0,-39,-39
-68,-58,9,63,-39,-24,-4,34,-9,9,-29,-24
-48,-58,-9,53,-19,-34,-4,29,9,19,-4,-29
-48,-63,-14,56,-17,-39,-4,29,19,29,0,-24
-63,-68,-4,65,-29,-36,4,39,29,39,14,-4
-63,-68,-4,65,-29,-36,4,29,34,43,19,-9
-53,-48,4,51,-29,-21,-4,29,34,24,4,-19
-53,-43,9,48,-31,-17,-4,29,43,24,0,-19
-53,-43,9,48,-31,-17,-19,4,29,19,-9,-34
-63,-39,24,51,-43,-7,-19,24,29,19,-14,-9
-43,-48,-4,46,-19,-26,-4,19,39,19,-19,-14
-43,-43,0,43,-21,-21,-4,14,39,19,-19,-24
-58,-43,14,51,-36,-14,4,9,43,34,-4,-9
-68,-43,24,56,-46,-9,9,0,43,34,-4,-9
-68,-43,24,56,-46,-9,19,4,58,34,4,0
-63,-29,34,46,-48,2,29,29,58,34,4,0
-63,-14,48,39,-56,17,9,14,43,24,-9,-24
-73,-34,39,53,-56,2,9,9,34,14,-9,-24
-63,-39,24,51,-43,-7,14,14,34,24,-14,-29
-53,-43,9,48,-31,-17,9,4,34,24,-14,-29
-63,-48,14,56,-39,-17,9,-4,43,29,-9,-29
-78,-73,4,75,-41,-34,9,-14,48,34,-9,-34
-68,-78,-9,73,-29,-43,24,4,48,24,0,-29
-58,-58,0,58,-29,-29,29,19,53,34,4,-19
-58,-58,0,58,-29,-29,39,29,53,34,4,-14
-68,-58,9,63,-39,-24,14,29,48,34,-9,-29
-68,-68,0,68,-34,-34,9,9,34,14,-24,-24
-58,-73,-14,65,-21,-43,4,4,29,4,-34,-43
-73,-78,-4,75,-34,-41,9,0,24,0,-39,-53
-73,-102,-29,87,-21,-65,9,0,19,-4,-39,-63
-68,-102,-34,85,-17,-68,29,14,24,0,-29,-63
-63,-97,-34,80,-14,-65,34,29,39,14,-29,-58
-58,-97,-39,78,-9,-68,39,43,43,19,-34,-53
-58,-107,-48,82,-4,-78,34,43,39,9,-43,-63
-48,-117,-68,82,9,-92,29,43,34,-4,-48,-78
-39,-126,-87,82,24,-107,24,34,19,-4,-58,-92
-39,-112,-73,75,17,-92,19,29,24,-4,-63,-97
-39,-136,-97,87,29,-117,24,14,24,-4,-68,-92
-43,-131,-87,87,21,-109,34,34,43,4,-53,-92
-43,-131,-87,87,21,-109,43,58,58,14,-43,-78
-39,-126,-87,82,24,-107,53,92,68,29,-34,-63
-39,-126,-87,82,24,-107,48,92,73,48,-34,-63
-48,-141,-92,95,21,-117,29,87,63,34,-43,-82
-53,-122,-68,87,7,-95,48,78,63,34,-43,-87
-43,-117,-73,80,14,-95,48,63,63,29,-63,-102
-48,-117,-68,82,9,-92,68,48,68,19,-63,-112
-82,-141,-58,112,-12,-100,92,92,82,43,-53,-102
-97,-141,-43,119,-26,-92,122,112,97,58,-53,-87
-92,-141,-48,117,-21,-95,136,131,112,73,-39,-73
