I,II,III,aVR,aVL,aVF,V1,V2,V3,V4,V5,V6
107,48,-58,-78,82,-4,68,263,361,283,165,97
107,48,-58,-78,82,-4,68,263,361,283,165,97
107,48,-58,-78,82,-4,68,263,361,283,165,97
107,48,-58,-78,82,-4,68,263,361,283,165,97
107,58,-48,-82,78,4,68,273,370,297,170,97
107,58,-48,-82,78,4,68,273,380,302,175,97
107,58,-48,-82,78,4,68,273,390,307,180,97
107,58,-48,-82,78,4,68,273,400,312,185,97
112,53,-58,-82,85,-2,68,283,409,317,200,112
117,48,-68,-82,92,-9,68,283,409,322,204,117
122,43,-78,-82,100,-17,68,283,409,326,209,122
126,39,-87,-82,107,-24,68,283,409,331,214,126
131,29,-102,-80,117,-36,68,273,400,322,204,131
136,29,-107,-82,122,-39,68,273,400,322,204,136
141,29,-112,-85,126,-41,68,273,400,322,204,141
146,29,-117,-87,131,-43,68,273,400,322,204,146
136,53,-82,-95,109,-14,53,258,390,312,190,136
136,68,-68,-102,102,0,48,253,380,302,185,136
136,82,-53,-109,95,14,43,248,370,292,180,136
136,97,-39,-117,87,29,39,244,361,283,175,136
126,82,-43,-104,85,19,48,253,366,292,195,146
126,78,-48,-102,87,14,48,253,370,302,204,156
126,73,-53,-100,90,9,48,253,375,312,214,165
126,68,-58,-97,92,4,48,253,380,322,224,175
131,68,-63,-100,97,2,48,239,366,307,219,165
136,68,-68,-102,102,0,48,234,361,302,214,165
141,68,-73,-104,107,-2,48,229,356,297,209,165
146,68,-78,-107,112,-4,48,224,351,292,204,165
136,78,-58,-107,97,9,48,219,331,278,190,151
136,78,-58,-107,97,9,48,214,322,263,175,136
136,78,-58,-107,97,9,48,209,312,248,161,122
136,78,-58,-107,97,9,48,204,302,234,146,107
146,78,-68,-112,107,4,48,190,292,219,141,117
146,78,-68,-112,107,4,48,185,283,214,136,117
146,78,-68,-112,107,4,48,180,273,209,131,117
146,78,-68,-112,107,4,48,175,263,204,126,117
156,87,-68,-122,112,9,43,165,248,185,122,112
156,87,-68,-122,112,9,39,156,234,175,117,107
156,87,-68,-122,112,9,34,146,219,165,112,102
156,87,-68,-122,112,9,29,136,204,156,107,97
141,63,-78,-102,109,-7,39,126,190,146,97,107
136,48,-87,-92,112,-19,39,126,185,146,97,107
131,34,-97,-82,114,-31,39,126,180,146,97,107
126,19,-107,-73,117,-43,39,126,175,146,97,107
136,24,-112,-80,124,-43,29,117,156,126,82,102
136,29,-107,-82,122,-39,29,107,146,117,78,97
136,34,-102,-85,119,-34,29,97,136,107,73,92
136,39,-97,-87,117,-29,29,87,126,97,68,87
122,29,-92,-75,107,-31,39,82,117,78,58,78
117,29,-87,-73,102,-29,39,78,107,68,48,78
112,29,-82,-70,97,-26,39,73,97,58,39,78
107,29,-78,-68,92,-24,39,68,87,48,29,78
97,14,-82,-56,90,-34,43,63,68,39,14,63
87,9,-78,-48,82,-34,48,58,58,29,9,58
78,4,-73,-41,75,-34,53,53,48,19,4,53
68,0,-68,-34,68,-34,58,48,39,9,0,48
78,-4,-82,-36,80,-43,58,43,34,0,-9,29
78,-9,-87,-34,82,-48,58,39,29,-9,-19,19
78,-14,-92,-31,85,-53,58,34,24,-19,-29,9
78,-19,-97,-29,87,-58,58,29,19,-29,-39,0
68,-9,-78,-29,73,-43,58,19,14,-29,-29,-9
68,0,-68,-34,68,-34,58,19,9,-29,-29,-9
68,9,-58,-39,63,-24,58,19,4,-29,-29,-9
68,19,-48,-43,58,-14,58,19,0,-29,-29,-9
68,14,-53,-41,61,-19,58,19,9,-29,-29,-4
68,9,-58,-39,63,-24,58,19,9,-29,-29,0
68,4,-63,-36,65,-29,58,19,9,-29,-29,4
68,0,-68,-34,68,-34,58,19,9,-29,-29,9
78,4,-73,-41,75,-34,53,19,19,-19,-24,19
78,9,-68,-43,73,-29,48,19,19,-19,-19,19
78,14,-63,-46,70,-24,43,19,19,-19,-14,19
78,19,-58,-48,68,-19,39,19,19,-19,-9,19
87,9,-78,-48,82,-34,39,19,19,-9,-14,14
97,9,-87,-53,92,-39,39,19,19,-9,-19,9
107,9,-97,-58,102,-43,39,19,19,-9,-24,4
117,9,-107,-63,112,-48,39,19,19,-9,-29,0
107,0,-107,-53,107,-53,53,19,29,-9,-29,0
97,0,-97,-48,97,-48,58,19,29,-9,-29,0
87,0,-87,-43,87,-43,63,19,29,-9,-29,0
78,0,-78,-39,78,-39,68,19,29,-9,-29,0
78,-4,-82,-36,80,-43,78,29,19,-19,-39,9
78,-9,-87,-34,82,-48,78,29,19,-19,-39,9
78,-14,-92,-31,85,-53,78,29,19,-19,-39,9
78,-19,-97,-29,87,-58,78,29,19,-19,-39,9
73,-9,-82,-31,78,-46,87,29,19,-19,-39,9
68,-9,-78,-29,73,-43,87,29,19,-19,-39,9
63,-9,-73,-26,68,-41,87,29,19,-19,-39,9
58,-9,-68,-24,63,-39,87,29,19,-19,-39,9
68,9,-58,-39,63,-24,78,24,14,-19,-39,9
68,19,-48,-43,58,-14,68,19,9,-19,-39,9
68,29,-39,-48,53,-4,58,14,4,-19,-39,9
68,39,-29,-53,48,4,48,9,0,-19,-39,9
63,24,-39,-43,51,-7,53,19,9,-9,-24,19
58,9,-48,-34,53,-19,58,19,9,-9,-19,29
53,-4,-58,-24,56,-31,63,19,9,-9,-14,39
48,-19,-68,-14,58,-43,68,19,9,-9,-9,48
58,-4,-63,-26,61,-34,58,4,4,-24,-24,34
68,0,-68,-34,68,-34,58,0,0,-29,-29,29
78,4,-73,-41,75,-34,58,-4,-4,-34,-34,24
87,9,-78,-48,82,-34,58,-9,-9,-39,-39,19
82,19,-63,-51,73,-21,63,0,-9,-48,-43,14
78,19,-58,-48,68,-19,68,0,-9,-48,-48,9
73,19,-53,-46,63,-17,73,0,-9,-48,-53,4
68,19,-48,-43,58,-14,78,0,-9,-48,-58,0
58,9,-48,-34,53,-19,82,0,-9,-39,-48,9
48,9,-39,-29,43,-14,87,0,-9,-39,-48,9
39,9,-29,-24,34,-9,92,0,-9,-39,-48,9
29,9,-19,-19,24,-4,97,0,-9,-39,-48,9
29,29,0,-29,14,14,97,0,0,-29,-39,19
29,39,9,-34,9,24,97,0,0,-29,-39,19
29,48,19,-39,4,34,97,0,0,-29,-39,19
29,58,29,-43,0,43,97,0,0,-29,-39,19
48,63,14,-56,17,39,92,-9,-9,-34,-43,4
68,68,0,-68,34,34,87,-9,-9,-39,-48,0
78,73,-4,-75,41,34,73,-9,-9,-43,-48,-4
87,78,-9,-82,48,34,68,-4,-14,-48,-53,-4
78,73,-4,-75,41,34,78,-4,-9,-43,-43,4
78,63,-14,-70,46,24,82,-4,-4,-39,-43,4
73,58,-14,-65,43,21,78,-4,0,-34,-43,4
63,53,-9,-58,36,21,82,-4,4,-34,-43,0
53,58,4,-56,24,31,82,0,-4,-34,-39,19
53,63,9,-58,21,36,78,-14,-9,-34,-34,34
53,68,14,-61,19,41,68,-24,-14,-34,-29,48
53,73,19,-63,17,46,63,-34,-14,-34,-19,58
63,102,39,-82,12,70,53,-43,-19,-34,-19,63
73,112,39,-92,17,75,43,-48,-19,-29,-19,63
73,117,43,-95,14,80,34,-48,-19,-29,-19,53
73,112,39,-92,17,75,39,-43,-14,-24,-19,48
87,131,43,-109,21,87,34,-43,-9,-19,-9,63
97,131,34,-114,31,82,34,-39,-9,-14,-4,63
97,136,39,-117,29,87,29,-39,-4,-14,-4,63
97,131,34,-114,31,82,34,-39,0,-14,-4,63
107,107,0,-107,53,53,34,-34,4,-14,-4,73
107,92,-14,-100,61,39,43,-14,9,-4,0,73
107,87,-19,-97,63,34,53,-9,19,-4,0,73
107,73,-34,-90,70,19,63,-9,19,-4,0,73
102,68,-34,-85,68,17,68,-4,24,4,-4,78
97,48,-48,-73,73,0,68,0,9,-4,-14,68
92,43,-48,-68,70,-2,73,-4,-14,-29,-24,53
87,34,-53,-61,70,-9,78,-4,-24,-39,-29,43
92,24,-68,-58,80,-21,78,-24,-34,-58,-48,34
92,9,-82,-51,87,-36,78,-24,-43,-63,-58,29
82,9,-73,-46,78,-31,78,-29,-53,-63,-58,29
78,14,-63,-46,70,-24,87,-29,-58,-68,-63,24
78,9,-68,-43,73,-29,87,-34,-63,-73,-78,4
68,9,-58,-39,63,-24,87,-39,-68,-78,-78,4
58,9,-48,-34,53,-19,92,-39,-73,-78,-73,4
58,9,-48,-34,53,-19,97,-43,-73,-82,-73,9
43,0,-43,-21,43,-21,117,-34,-63,-68,-68,14
34,-9,-43,-12,39,-26,126,-29,-58,-73,-73,9
24,-9,-34,-7,29,-21,136,-29,-53,-68,-73,14
19,-19,-39,0,29,-29,146,-24,-43,-68,-73,4
4,-39,-43,17,24,-41,151,-24,-58,-87,-92,-4
4,-43,-48,19,26,-46,156,-24,-68,-92,-102,-24
-4,-48,-43,26,19,-46,161,-24,-68,-102,-117,-34
-9,-63,-53,36,21,-58,165,-24,-68,-102,-122,-39
-4,-48,-43,26,19,-46,161,-24,-78,-107,-122,-39
-9,-43,-34,26,12,-39,161,-24,-78,-107,-122,-39
-14,-39,-24,26,4,-31,161,-24,-78,-107,-117,-34
-14,-34,-19,24,2,-26,161,-29,-87,-112,-117,-34
-14,-43,-29,29,7,-36,161,-29,-82,-112,-122,-34
-14,-43,-29,29,7,-36,161,-29,-82,-112,-122,-34
-19,-43,-24,31,2,-34,161,-29,-78,-112,-122,-34
-29,-48,-19,39,-4,-34,165,-29,-73,-112,-122,-34
-19,-39,-19,29,0,-29,165,-29,-82,-112,-122,-34
-29,-39,-9,34,-9,-24,170,-24,-82,-112,-122,-34
-29,-34,-4,31,-12,-19,170,-24,-82,-112,-126,-39
-29,-34,-4,31,-12,-19,170,-24,-82,-117,-126,-39
-9,-43,-34,26,12,-39,161,-24,-73,-117,-117,-29
0,-43,-43,21,21,-43,161,-34,-73,-117,-117,-29
9,-39,-48,14,29,-43,161,-34,-78,-117,-117,-29
14,-39,-53,12,34,-46,161,-29,-78,-117,-117,-29
4,-48,-53,21,29,-51,175,-24,-73,-102,-117,-29
-4,-58,-53,31,24,-56,175,-24,-73,-102,-112,-24
-9,-58,-48,34,19,-53,175,-24,-73,-102,-112,-24
-19,-58,-39,39,9,-48,175,-19,-68,-97,-112,-24
-14,-53,-39,34,12,-46,175,-24,-78,-102,-117,-34
-9,-43,-34,26,12,-39,170,-29,-78,-107,-126,-43
0,-39,-39,19,19,-39,165,-34,-78,-107,-136,-53
4,-34,-39,14,21,-36,161,-39,-78,-112,-146,-68
-9,-34,-24,21,7,-29,170,-29,-78,-112,-141,-63
-24,-29,-4,26,-9,-17,170,-34,-78,-112,-136,-58
-34,-29,4,31,-19,-12,170,-34,-78,-122,-136,-58
-34,-29,4,31,-19,-12,165,-34,-78,-122,-131,-53
-24,-39,-14,31,-4,-26,185,-24,-58,-92,-112,-39
-9,-48,-39,29,14,-43,185,-29,-58,-97,-112,-39
-9,-48,-39,29,14,-43,185,-29,-58,-92,-117,-43
-24,-58,-34,41,4,-46,190,-9,-43,-82,-102,-39
-24,-53,-29,39,2,-41,195,4,-34,-68,-92,-24
-4,-39,-34,21,14,-36,200,4,-19,-68,-87,-9
9,-39,-48,14,29,-43,200,14,14,-39,-87,-19
0,-19,-19,9,9,-19,204,43,73,9,-58,-9
-29,-4,24,17,-26,9,224,82,131,63,-9,19
-29,0,29,14,-29,14,229,112,190,131,39,53
0,14,14,-7,-7,14,219,136,234,204,117,102
48,43,-4,-46,26,19,200,151,287,297,214,185
87,82,-4,-85,46,39,156,151,341,409,351,302
112,122,9,-117,51,65,122,126,356,497,478,414
151,141,-9,-146,80,65,78,68,317,541,566,502
244,165,-78,-204,161,43,0,-4,273,600,692,644
395,209,-185,-302,290,12,-117,-68,229,692,854,819
546,239,-307,-392,427,-34,-239,-151,136,741,980,966
595,239,-356,-417,475,-58,-307,-224,43,722,1049,1049
614,219,-395,-417,505,-87,-366,-283,-48,668,1029,1063
663,209,-453,-436,558,-122,-434,-361,-180,546,951,1039
692,239,-453,-466,573,-107,-497,-458,-326,385,814,971
658,263,-395,-461,527,-65,-527,-561,-453,195,610,844
580,258,-322,-419,451,-31,-551,-692,-624,-63,322,619
483,244,-239,-363,361,2,-551,-844,-854,-375,-14,336
400,229,-170,-314,285,29,-561,-985,-1083,-683,-322,82
283,234,-48,-258,165,92,-566,-1137,-1317,-966,-561,-112
141,214,73,-178,34,143,-536,-1239,-1503,-1195,-761,-273
53,161,107,-107,-26,134,-502,-1259,-1576,-1302,-878,-380
63,141,78,-102,-7,109,-488,-1229,-1556,-1293,-888,-400
68,141,73,-104,-2,107,-448,-1171,-1498,-1239,-829,-370
19,102,82,-61,-31,92,-390,-1093,-1410,-1180,-810,-351
-19,73,92,-26,-56,82,-336,-1010,-1332,-1146,-795,-351
-34,73,107,-19,-70,90,-278,-932,-1239,-1083,-761,-351
-29,82,112,-26,-70,97,-219,-844,-1127,-990,-717,-341
-34,73,107,-19,-70,90,-165,-741,-990,-883,-663,-326
-63,48,112,7,-87,80,-122,-634,-868,-785,-610,-297
-78,48,126,14,-102,87,-78,-556,-771,-697,-536,-278
-82,48,131,17,-107,90,-34,-492,-673,-619,-488,-239
-87,48,136,19,-112,92,0,-429,-590,-546,-434,-214
-43,58,102,-7,-73,80,9,-370,-517,-492,-409,-195
-14,48,63,-17,-39,56,9,-326,-453,-434,-370,-185
-68,53,122,7,-95,87,29,-283,-380,-380,-331,-165
-73,63,136,4,-104,100,58,-248,-326,-336,-307,-151
-43,73,117,-14,-80,95,87,-224,-287,-307,-292,-151
-43,73,117,-14,-80,95,102,-195,-248,-278,-283,-141
-68,58,126,4,-97,92,117,-175,-229,-248,-248,-126
-58,39,97,9,-78,68,131,-151,-200,-214,-229,-102
-53,24,78,14,-65,51,156,-122,-161,-190,-209,-92
-43,9,53,17,-48,31,165,-92,-131,-170,-190,-87
-68,-9,58,39,-63,24,175,-58,-92,-141,-180,-73
-97,-24,73,61,-85,24,195,-34,-63,-107,-161,-68
-102,-29,73,65,-87,21,214,-4,-39,-97,-151,-63
-63,-34,29,48,-46,-2,214,0,-29,-82,-141,-58
-53,-39,14,46,-34,-12,214,-4,-24,-68,-136,-53
-43,-39,4,41,-24,-17,219,4,-19,-63,-126,-48
-34,-39,-4,36,-14,-21,219,9,-4,-53,-117,-39
-34,-43,-9,39,-12,-26,219,14,0,-53,-117,-39
-19,-34,-14,26,-2,-24,209,9,-4,-48,-126,-39
-14,-43,-29,29,7,-36,209,19,4,-43,-126,-43
-9,-43,-34,26,12,-39,209,29,14,-34,-122,-43
-19,-39,-19,29,0,-29,219,39,24,-19,-112,-39
-43,-34,9,39,-26,-12,229,53,43,-9,-107,-48
-34,-34,0,34,-17,-17,229,53,43,-9,-107,-48
-34,-34,0,34,-17,-17,229,53,48,-9,-107,-43
-39,-34,4,36,-21,-14,229,53,53,-9,-97,-43
-43,-34,9,39,-26,-12,239,63,68,0,-97,-39
-43,-34,9,39,-26,-12,239,63,73,4,-97,-39
-43,-29,14,36,-29,-7,239,73,82,9,-92,-39
-48,-29,19,39,-34,-4,239,82,92,19,-82,-29
-34,-24,9,29,-21,-7,229,82,92,14,-92,-29
-19,-24,-4,21,-7,-14,229,87,92,19,-92,-29
-14,-24,-9,19,-2,-17,229,82,97,14,-97,-34
-9,-24,-14,17,2,-19,229,82,97,19,-92,-34
0,-14,-14,7,7,-14,229,78,97,29,-73,-24
4,-14,-19,4,12,-17,229,82,107,39,-73,-24
9,-24,-34,7,21,-29,229,87,112,43,-73,-24
24,-24,-48,0,36,-36,224,87,126,58,-58,-9
9,-14,-24,2,17,-19,224,102,141,73,-43,0
-4,-4,0,4,-2,-2,224,102,141,87,-34,9
-19,0,19,9,-19,9,224,112,151,97,-34,19
-29,4,34,12,-31,19,224,117,165,102,-29,24
-19,0,19,9,-19,9,219,117,180,107,-19,24
-9,4,14,2,-12,9,214,131,190,122,-14,24
9,9,0,-9,4,4,204,146,195,126,-9,34
24,9,-14,-17,19,-2,200,146,195,141,4,39
19,9,-9,-14,14,0,209,161,219,151,19,48
14,9,-4,-12,9,2,214,175,244,175,43,63
4,9,4,-7,0,7,224,195,263,195,58,78
-19,4,24,7,-21,14,229,204,283,214,73,87
0,4,4,-2,-2,4,214,195,273,204,78,87
14,4,-9,-9,12,-2,209,200,283,214,78,87
19,14,-4,-17,12,4,204,200,297,224,82,87
34,19,-14,-26,24,2,200,204,307,229,82,87
39,39,0,-39,19,19,185,219,322,248,82,87
43,43,0,-43,21,21,180,219,336,263,97,87
73,58,-14,-65,43,21,180,219,351,273,112,82
87,68,-19,-78,53,24,175,229,356,283,117,92
82,58,-24,-70,53,17,185,248,356,297,141,107
78,68,-9,-73,43,29,185,258,375,312,146,112
73,73,0,-73,36,36,185,258,385,317,156,122
78,82,4,-80,36,43,180,263,390,331,170,131
97,92,-4,-95,51,43,165,258,400,351,180,141
102,92,-9,-97,56,41,165,263,414,361,190,146
107,97,-9,-102,58,43,165,273,429,370,209,161
122,107,-14,-114,68,46,161,278,434,375,214,170
122,97,-24,-109,73,36,161,287,434,390,214,165
112,97,-14,-104,63,41,165,287,444,395,219,175
97,97,0,-97,48,48,170,287,453,400,224,180
87,92,4,-90,41,48,175,287,463,405,229,180
92,97,4,-95,43,51,175,297,453,395,229,170
92,107,14,-100,39,61,175,297,453,395,229,170
97,112,14,-104,41,63,175,297,448,395,234,170
97,117,19,-107,39,68,175,287,444,395,239,170
87,136,48,-112,19,92,165,287,448,409,248,190
92,136,43,-114,24,90,161,287,448,409,248,190
92,136,43,-114,24,90,161,283,448,409,248,190
92,141,48,-117,21,95,161,283,453,409,248,195
97,131,34,-114,31,82,151,283,448,400,244,185
92,131,39,-112,26,85,151,278,444,395,239,185
92,126,34,-109,29,80,151,273,439,390,234,185
92,126,34,-109,29,80,151,273,434,385,234,175
102,126,24,-114,39,75,151,268,419,370,224,185
97,126,29,-112,34,78,151,268,409,370,224,185
97,126,29,-112,34,78,151,263,409,366,224,180
97,126,29,-112,34,78,151,253,405,361,224,180
82,126,43,-104,19,85,151,253,409,361,224,190
78,126,48,-102,14,87,151,248,405,366,229,195
73,126,53,-100,9,90,151,244,390,366,229,200
68,126,58,-97,4,92,146,234,385,356,234,204
73,122,48,-97,12,85,141,229,385,351,224,200
73,117,43,-95,14,80,141,224,366,341,219,195
68,117,48,-92,9,82,141,229,361,331,214,195
68,117,48,-92,9,82,141,219,346,322,209,190
63,117,53,-90,4,85,141,209,341,322,209,190
63,117,53,-90,4,85,136,204,326,312,200,185
63,117,53,-90,4,85,136,195,317,302,190,180
53,107,53,-80,0,80,136,190,302,292,180,175
63,107,43,-85,9,75,131,175,292,278,170,165
78,107,29,-92,24,68,117,170,278,268,161,156
87,102,14,-95,36,58,112,156,253,244,151,146
97,102,4,-100,46,53,107,146,244,224,141,141
78,102,24,-90,26,63,112,146,229,224,151,151
87,102,14,-95,36,58,117,136,224,224,151,146
73,102,29,-87,21,65,122,126,204,219,146,141
53,102,48,-78,2,75,126,122,204,214,136,141
53,92,39,-73,7,65,126,126,185,214,136,146
53,92,39,-73,7,65,126,112,175,195,117,131
53,87,34,-70,9,61,126,102,165,180,112,131
53,87,34,-70,9,61,126,92,156,170,92,122
53,87,34,-70,9,61,126,87,146,151,82,107
48,87,39,-68,4,63,126,82,136,136,73,102
43,87,43,-65,0,65,126,78,131,131,63,92
43,78,34,-61,4,56,126,68,117,112,53,92
39,82,43,-61,-2,63,126,63,112,112,53,87
29,82,53,-56,-12,68,126,58,107,107,43,78
9,82,73,-46,-31,78,126,53,97,97,39,68
14,78,63,-46,-24,70,126,53,92,92,39,63
14,78,63,-46,-24,70,117,39,82,87,34,53
9,78,68,-43,-29,73,117,39,82,82,34,53
4,78,73,-41,-34,75,122,39,73,82,34,48
0,78,78,-39,-39,78,122,39,73,78,34,48
9,73,63,-41,-26,68,122,43,63,68,24,48
0,68,68,-34,-34,68,131,43,63,68,24,48
0,68,68,-34,-34,68,131,39,58,63,14,48
4,68,63,-36,-29,65,126,34,48,58,9,43
24,68,43,-46,-9,56,136,39,53,48,9,43
24,68,43,-46,-9,56,136,39,53,58,9,43
24,68,43,-46,-9,56,136,43,58,58,9,43
19,68,48,-43,-14,58,136,43,58,48,9,43
4,68,63,-36,-29,65,136,39,68,58,19,53
4,68,63,-36,-29,65,136,39,68,58,19,53
4,68,63,-36,-29,65,136,39,68,58,19,43
4,73,68,-39,-31,70,136,39,68,58,19,43
19,73,53,-46,-17,63,126,39,58,48,19,43
29,73,43,-51,-7,58,126,39,58,48,14,39
19,73,53,-46,-17,63,126,39,58,48,14,24
19,73,53,-46,-17,63,122,39,58,48,14,19
29,73,43,-51,-7,58,122,39,58,58,4,14
29,73,43,-51,-7,58,122,39,58,58,9,19
29,73,43,-51,-7,58,122,39,58,58,9,19
24,73,48,-48,-12,61,122,39,58,58,9,19
19,78,58,-48,-19,68,131,39,58,58,24,29
19,82,63,-51,-21,73,131,43,58,63,29,34
14,87,73,-51,-29,80,131,43,63,63,29,39
4,87,82,-46,-39,85,131,43,63,63,29,43
9,82,73,-46,-31,78,131,29,53,63,34,43
14,78,63,-46,-24,70,131,29,48,63,29,43
14,73,58,-43,-21,65,131,29,43,48,29,39
19,63,43,-41,-12,53,131,29,43,48,19,34
9,73,63,-41,-26,68,126,39,48,58,29,43
24,78,53,-51,-14,65,126,29,48,58,34,43
24,78,53,-51,-14,65,131,29,48,58,34,43
24,82,58,-53,-17,70,131,29,48,58,34,43
14,78,63,-46,-24,70,131,39,58,58,34,48
9,73,63,-41,-26,68,131,39,58,58,34,48
9,68,58,-39,-24,63,131,39,53,58,34,48
9,63,53,-36,-21,58,131,39,53,58,34,53
24,68,43,-46,-9,56,117,29,43,53,24,48
24,68,43,-46,-9,56,117,24,39,48,19,43
24,68,43,-46,-9,56,122,19,34,43,14,39
24,68,43,-46,-9,56,122,19,34,34,14,34
9,78,68,-43,-29,73,136,29,43,39,24,43
4,78,73,-41,-34,75,136,29,43,39,19,34
0,78,78,-39,-39,78,136,29,43,43,19,34
0,82,82,-41,-41,82,136,29,43,43,29,39
-29,82,112,-26,-70,97,141,29,48,53,19,48
4,92,87,-48,-41,90,131,29,39,43,19,39
14,102,87,-58,-36,95,131,29,39,53,19,39
-9,117,126,-53,-68,122,141,29,48,63,29,58
-29,136,165,-53,-97,151,146,29,48,68,29,68
-19,136,156,-58,-87,146,136,29,48,58,29,58
-9,136,146,-63,-78,141,136,29,48,58,29,58
0,136,136,-68,-68,136,136,29,48,58,29,58
9,136,126,-73,-58,131,136,29,48,58,29,58
24,126,102,-75,-39,114,126,19,48,48,24,48
29,126,97,-78,-34,112,117,19,48,48,24,48
34,126,92,-80,-29,109,117,24,43,48,19,53
43,126,82,-85,-19,104,112,24,43,48,14,53
58,112,53,-85,2,82,112,14,43,48,24,53
58,112,53,-85,2,82,102,14,43,48,24,53
53,112,58,-82,-2,85,102,14,43,43,24,48
53,131,78,-92,-12,104,97,9,34,43,24,48
43,156,112,-100,-34,134,87,4,39,53,34,63
43,170,126,-107,-41,148,73,-4,34,53,34,68
43,185,141,-114,-48,163,63,-14,34,53,39,68
58,204,146,-131,-43,175,48,-14,39,63,43,82
68,219,151,-143,-41,185,43,-14,48,78,58,92
68,219,151,-143,-41,185,29,-9,48,78,63,92
68,209,141,-139,-36,175,29,0,53,82,68,97
78,209,131,-143,-26,170,29,9,58,87,78,102
97,195,97,-146,0,146,24,9,48,82,82,92
97,185,87,-141,4,136,24,14,53,82,82,92
97,165,68,-131,14,117,34,19,58,82,82,92
97,151,53,-124,21,102,43,24,63,82,82,92
102,131,29,-117,36,80,53,48,68,92,78,92
107,131,24,-119,41,78,63,58,78,92,78,92
112,122,9,-117,51,65,73,63,78,92,78,92
112,122,9,-117,51,65,73,63,68,87,68,87
92,97,4,-95,43,51,78,68,48,73,63,78
82,97,14,-90,34,56,78,53,19,43,48,63
73,92,19,-82,26,56,78,43,4,29,39,53
68,78,9,-73,29,43,78,34,0,19,29,43
73,58,-14,-65,43,21,78,43,0,24,29,39
58,53,-4,-56,31,24,78,39,0,24,29,39
48,53,4,-51,21,29,87,39,4,19,24,34
48,48,0,-48,24,24,92,39,9,19,19,24
48,48,0,-48,24,24,87,29,0,9,14,14
39,48,9,-43,14,29,97,34,0,14,14,14
39,48,9,-43,14,29,107,34,4,14,9,19
24,48,24,-36,0,36,112,39,4,14,4,19
4,43,39,-24,-17,41,117,39,0,14,0,19
-4,48,53,-21,-29,51,122,34,-4,14,0,19
-9,43,53,-17,-31,48,126,34,-4,9,0,4
-24,34,58,-4,-41,46,131,24,-9,0,-9,0
-9,24,34,-7,-21,29,126,24,-19,-4,-14,-14
-14,24,39,-4,-26,31,131,24,-19,-14,-24,-19
-14,14,29,0,-21,21,136,24,-19,-14,-24,-19
-14,14,29,0,-21,21,141,24,-19,-19,-34,-29
-34,4,39,14,-36,21,151,34,-19,-9,-34,-29
-43,4,48,19,-46,26,151,34,-19,-9,-29,-24
-48,4,53,21,-51,29,151,29,-29,-14,-29,-24
-48,4,53,21,-51,29,141,29,-34,-14,-34,-24
-34,4,39,14,-36,21,141,19,-34,-24,-34,-24
-34,4,39,14,-36,21,141,19,-29,-24,-34,-24
-39,0,39,19,-39,19,146,19,-24,-24,-34,-24
-39,0,39,19,-39,19,146,19,-24,-24,-34,-24
-39,9,48,14,-43,29,151,34,-24,-24,-34,-24
-39,14,53,12,-46,34,151,34,-24,-24,-39,-29
-39,14,53,12,-46,34,151,34,-24,-29,-39,-29
-34,14,48,9,-41,31,151,34,-24,-29,-39,-29
-48,4,53,21,-51,29,161,29,-19,-19,-29,-24
-53,9,63,21,-58,36,161,34,-19,-19,-29,-19
-63,9,73,26,-68,41,161,43,-14,-19,-29,-14
-78,9,87,34,-82,48,165,53,-4,-14,-29,-9
-63,9,73,26,-68,41,151,39,-19,-19,-29,-19
-43,9,53,17,-48,31,146,34,-24,-24,-34,-24
-29,9,39,9,-34,24,141,34,-24,-24,-39,-29
-9,9,19,0,-14,14,141,29,-29,-29,-39,-34
-14,24,39,-4,-26,31,141,29,-29,-39,-39,-24
-14,24,39,-4,-26,31,141,29,-29,-34,-39,-24
-19,24,43,-2,-31,34,141,29,-29,-34,-39,-29
-29,24,53,2,-41,39,141,29,-29,-34,-39,-29
-39,19,58,9,-48,39,146,34,-19,-24,-29,-19
-43,19,63,12,-53,41,151,34,-19,-34,-34,-24
-39,19,58,9,-48,39,151,34,-19,-34,-34,-24
-43,19,63,12,-53,41,156,34,-19,-34,-34,-29
-87,9,97,39,-92,53,175,58,-9,-9,-24,-9
-87,19,107,34,-97,63,175,68,0,-4,-9,-4
-73,9,82,31,-78,46,170,68,14,-4,-14,-9
-73,14,87,29,-80,51,185,82,43,19,-4,-4
-73,39,112,17,-92,75,200,112,87,58,19,0
-68,48,117,9,-92,82,209,151,141,97,39,0
-39,48,87,-4,-63,68,204,180,190,136,58,9
-39,53,92,-7,-65,73,204,209,248,209,126,58
-29,78,107,-24,-68,92,200,239,307,287,195,122
19,112,92,-65,-36,102,170,253,361,380,283,200
97,151,53,-124,21,102,131,258,414,492,409,292
146,180,34,-163,56,107,68,200,409,575,517,390
209,200,-9,-204,109,95,4,126,366,605,585,463
297,209,-87,-253,192,61,-68,97,346,678,702,561
448,204,-244,-326,346,-19,-165,63,322,775,839,692
600,219,-380,-409,490,-80,-292,-9,258,829,951,819
702,219,-483,-461,592,-131,-395,-73,165,829,1010,888
780,209,-570,-495,675,-180,-473,-117,63,771,1000,902
839,209,-629,-524,734,-209,-541,-185,-68,668,932,888
849,229,-619,-539,734,-195,-629,-283,-219,497,814,824
849,258,-590,-553,719,-165,-712,-429,-405,278,629,727
785,263,-522,-524,653,-129,-751,-610,-610,0,385,561
649,219,-429,-434,539,-104,-756,-771,-829,-307,87,336
570,185,-385,-378,478,-100,-746,-932,-1078,-600,-190,122
507,170,-336,-339,422,-82,-756,-1112,-1346,-897,-429,-53
390,146,-244,-268,317,-48,-732,-1263,-1571,-1132,-610,-190
258,107,-151,-183,204,-21,-683,-1307,-1639,-1224,-692,-273
200,82,-117,-141,158,-17,-639,-1268,-1605,-1215,-692,-283
180,63,-117,-122,148,-26,-605,-1200,-1537,-1156,-663,-273
126,43,-82,-85,104,-19,-536,-1122,-1468,-1122,-663,-283
68,34,-34,-51,51,0,-468,-1054,-1390,-1093,-663,-312
48,63,14,-56,17,39,-405,-971,-1273,-1029,-629,-292
24,82,58,-53,-17,70,-336,-854,-1132,-917,-575,-263
0,82,82,-41,-41,82,-278,-736,-990,-814,-522,-253
-4,73,78,-34,-41,75,-234,-634,-873,-717,-468,-229
-24,78,102,-26,-63,90,-180,-527,-751,-629,-395,-200
-68,78,146,-4,-107,112,-117,-419,-624,-522,-341,-170
-82,78,161,2,-122,119,-73,-346,-527,-444,-283,-151
-97,78,175,9,-136,126,-48,-292,-444,-380,-248,-136
-82,87,170,-2,-126,129,-29,-263,-390,-336,-234,-126
-43,97,141,-26,-92,119,-9,-229,-346,-307,-224,-126
-48,112,161,-31,-104,136,19,-195,-292,-263,-204,-117
-73,102,175,-14,-124,139,48,-151,-239,-219,-170,-92
-73,82,156,-4,-114,119,68,-107,-200,-190,-146,-82
-73,73,146,0,-109,109,73,-68,-170,-161,-126,-73
-58,68,126,-4,-92,97,97,-48,-141,-131,-102,-68
-68,48,117,9,-92,82,112,-24,-102,-107,-92,-53
-82,34,117,24,-100,75,126,4,-82,-92,-82,-43
-63,39,102,12,-82,70,136,14,-63,-82,-82,-48
-48,39,87,4,-68,63,146,29,-43,-73,-82,-53
-78,43,122,17,-100,82,165,53,-14,-48,-63,-39
-82,39,122,21,-102,80,175,82,19,-29,-53,-34
-63,34,97,14,-80,65,175,97,29,-24,-53,-39
-53,29,82,12,-68,56,165,97,29,-19,-58,-43
-43,29,73,7,-58,51,170,102,29,-14,-48,-39
-34,29,63,2,-48,46,170,102,39,-4,-39,-29
-34,24,58,4,-46,41,170,102,39,-4,-39,-29
-39,24,63,7,-51,43,175,117,48,0,-39,-19
-43,14,58,14,-51,36,180,126,63,4,-39,-24
-48,14,63,17,-56,39,185,136,78,14,-34,-24
-68,19,87,24,-78,53,200,146,92,29,-24,-19
-73,24,97,24,-85,61,190,151,92,29,-19,-19
-53,24,78,14,-65,51,190,151,92,29,-19,-19
-43,24,68,9,-56,46,190,151,97,29,-19,-14
-39,24,63,7,-51,43,190,151,102,29,-9,-14
-43,34,78,4,-61,56,200,170,112,43,0,0
-43,34,78,4,-61,56,200,170,122,53,0,0
-43,39,82,2,-63,61,200,180,136,63,4,0
-48,39,87,4,-68,63,200,190,151,78,14,9
-63,43,107,9,-85,75,200,185,146,78,19,14
-58,43,102,7,-80,73,200,195,151,87,24,19
-63,43,107,9,-85,75,200,195,161,87,24,19
-68,43,112,12,-90,78,200,200,165,97,34,24
-53,43,97,4,-75,70,200,204,175,97,34,24
-53,43,97,4,-75,70,200,209,185,107,34,24
-53,34,87,9,-70,61,200,214,190,112,34,24
-43,34,78,4,-61,56,195,214,204,126,48,39
-43,43,87,0,-65,65,195,224,219,131,63,43
-43,53,97,-4,-70,75,195,229,219,146,73,48
-43,58,102,-7,-73,80,195,244,229,156,73,53
-39,63,102,-12,-70,82,195,253,244,161,78,53
-24,68,92,-21,-58,80,185,258,253,156,78,53
-19,73,92,-26,-56,82,185,268,268,170,82,53
-4,78,82,-36,-43,80,180,278,278,175,87,63
4,78,73,-41,-34,75,180,273,283,190,102,68
0,82,82,-41,-41,82,175,278,292,204,102,73
4,87,82,-46,-39,85,175,292,312,224,122,82
4,92,87,-48,-41,90,180,312,326,239,131,92
-9,92,102,-41,-56,97,180,322,341,253,141,97
14,102,87,-58,-36,95,170,326,346,258,151,102
24,102,78,-63,-26,90,170,336,361,273,156,107
24,112,87,-68,-31,100,170,341,380,287,165,112
34,117,82,-75,-24,100,170,351,395,297,170,117
29,112,82,-70,-26,97,165,366,409,326,180,131
24,112,87,-68,-31,100,161,366,424,341,195,136
43,122,78,-82,-17,100,161,366,439,351,209,136
48,126,78,-87,-14,102,156,375,444,361,214,151
58,126,68,-92,-4,97,156,395,453,370,229,146
58,136,78,-97,-9,107,156,405,473,380,234,151
58,141,82,-100,-12,112,156,405,483,380,244,161
68,151,82,-109,-7,117,151,409,488,390,258,170
82,161,78,-122,2,119,146,405,483,400,253,165
82,161,78,-122,2,119,146,409,492,409,258,165
82,165,82,-124,0,124,146,419,502,419,273,175
92,175,82,-134,4,129,141,424,502,424,273,180
97,180,82,-139,7,131,136,434,512,439,292,185
92,185,92,-139,0,139,136,434,522,444,297,195
82,190,107,-136,-12,148,136,434,531,448,302,200
78,190,112,-134,-17,151,136,434,541,453,307,200
82,190,107,-136,-12,148,126,434,531,444,307,209
82,195,112,-139,-14,153,126,434,531,444,307,209
87,195,107,-141,-9,151,126,434,527,444,312,209
87,195,107,-141,-9,151,126,424,522,444,317,209
97,195,97,-146,0,146,126,414,522,439,307,209
102,195,92,-148,4,143,122,414,517,439,307,209
102,195,92,-148,4,143,122,409,512,439,307,209
102,200,97,-151,2,148,122,409,512,439,307,214
97,209,112,-153,-7,161,122,409,507,429,312,214
92,209,117,-151,-12,163,122,405,502,424,307,214
92,204,112,-148,-9,158,122,400,497,419,302,214
92,204,112,-148,-9,158,122,400,492,414,302,204
92,204,112,-148,-9,158,112,395,478,409,292,214
87,204,117,-146,-14,161,112,395,468,409,292,214
87,204,117,-146,-14,161,112,390,468,405,292,209
87,204,117,-146,-14,161,112,380,463,400,292,209
82,214,131,-148,-24,173,112,380,458,395,297,214
78,214,136,-146,-29,175,112,375,453,395,297,214
73,214,141,-143,-34,178,112,370,439,390,292,214
68,214,146,-141,-39,180,107,361,434,375,292,214
87,209,122,-148,-17,165,102,346,414,361,287,209
92,204,112,-148,-9,158,102,331,395,351,278,204
92,204,112,-148,-9,158,102,326,390,341,268,204
97,204,107,-151,-4,156,102,307,375,331,258,200
92,195,102,-143,-4,148,97,297,361,312,258,190
92,195,102,-143,-4,148,87,292,346,302,248,185
92,195,102,-143,-4,148,82,283,336,292,239,180
82,185,102,-134,-9,143,78,278,322,283,229,175
87,195,107,-141,-9,151,87,263,302,273,229,170
97,195,97,-146,0,146,78,258,287,268,219,165
102,190,87,-146,7,139,78,244,263,248,209,161
107,190,82,-148,12,136,78,234,253,234,200,161
78,185,107,-131,-14,146,87,234,248,224,209,161
87,180,92,-134,-2,136,87,224,244,224,209,156
73,175,102,-124,-14,139,87,214,224,219,204,151
53,170,117,-112,-31,143,87,209,224,214,195,151
68,161,92,-114,-12,126,78,195,200,195,175,146
73,161,87,-117,-7,124,78,180,185,175,156,131
78,156,78,-117,0,117,78,170,170,161,151,131
82,156,73,-119,4,114,78,161,156,151,131,122
68,165,97,-117,-14,131,78,161,156,151,136,122
58,165,107,-112,-24,136,78,161,146,136,131,122
48,165,117,-107,-34,141,78,161,141,131,126,117
43,156,112,-100,-34,134,78,156,126,112,122,122
53,151,97,-102,-21,124,78,146,112,102,112,117
48,151,102,-100,-26,126,78,136,107,97,102,107
34,151,117,-92,-41,134,78,126,97,87,97,97
43,146,102,-95,-29,124,78,122,92,82,97,92
53,146,92,-100,-19,119,68,107,73,68,73,82
58,146,87,-102,-14,117,68,107,73,63,73,82
63,146,82,-104,-9,114,73,107,63,63,73,78
68,146,78,-107,-4,112,73,107,63,58,73,78
58,151,92,-104,-17,122,73,107,68,53,78,87
39,146,107,-92,-34,126,82,112,73,58,82,87
29,146,117,-87,-43,131,82,112,73,58,78,87
24,146,122,-85,-48,134,78,112,68,58,78,82
34,136,102,-85,-34,119,78,107,63,48,68,73
34,136,102,-85,-34,119,78,107,63,58,68,73
34,136,102,-85,-34,119,78,112,68,58,68,73
29,136,107,-82,-39,122,78,112,68,48,68,73
24,136,112,-80,-43,124,78,117,68,58,68,82
24,136,112,-80,-43,124,78,117,68,58,68,82
24,136,112,-80,-43,124,78,117,68,58,68,73
24,141,117,-82,-46,129,78,117,68,58,68,73
39,151,112,-95,-36,131,78,117,68,58,68,78
48,151,102,-100,-26,126,78,117,68,58,63,78
39,151,112,-95,-36,131,78,117,68,58,63,68
39,151,112,-95,-36,131,73,117,68,58,63,68
43,141,97,-92,-26,119,73,107,68,58,63,73
48,141,92,-95,-21,117,73,107,68,58,68,78
53,141,87,-97,-17,114,73,107,68,58,68,78
53,141,87,-97,-17,114,73,107,68,58,68,78
43,151,107,-97,-31,129,63,107,68,48,73,73
48,151,102,-100,-26,126,63,112,68,53,78,73
48,151,102,-100,-26,126,63,112,73,53,78,73
43,146,102,-95,-29,124,63,112,73,53,78,73
34,146,112,-90,-39,129,73,107,73,63,82,82
34,146,112,-90,-39,129,73,107,68,63,78,82
29,146,117,-87,-43,131,73,107,63,48,78,78
29,141,112,-85,-41,126,73,107,63,48,68,73
43,141,97,-92,-26,119,63,97,48,39,58,63
63,146,82,-104,-9,114,58,87,48,39,63,63
68,146,78,-107,-4,112,58,87,48,39,63,63
73,151,78,-112,-2,114,53,87,48,39,63,63
68,141,73,-104,-2,107,58,97,58,39,63,68
58,141,82,-100,-12,112,63,97,58,39,63,68
53,141,87,-97,-17,114,68,97,53,39,63,68
48,141,92,-95,-21,117,73,97,53,39,63,73
39,136,97,-87,-29,117,68,97,53,39,63,73
34,136,102,-85,-34,119,68,92,48,39,58,73
29,136,107,-82,-39,122,73,87,43,39,53,73
24,136,112,-80,-43,124,73,87,43,34,53,73
34,146,112,-90,-39,129,68,87,43,29,53,82
34,146,112,-90,-39,129,68,87,43,29,48,73
34,146,112,-90,-39,129,68,87,43,34,48,73
39,151,112,-95,-36,131,68,87,43,34,58,78
34,151,117,-92,-41,134,73,78,39,24,58,87
34,161,126,-97,-46,143,73,78,39,24,48,87
29,161,131,-95,-51,146,73,78,39,24,48,87
19,165,146,-92,-63,156,73,78,39,24,48,87
19,175,156,-97,-68,165,73,73,39,34,58,92
78,185,107,-131,-14,146,58,68,29,19,48,78
87,185,97,-136,-4,141,58,58,29,19,39,68
87,185,97,-136,-4,141,58,58,29,19,39,68
87,185,97,-136,-4,141,58,58,29,19,39,68
87,185,97,-136,-4,141,58,58,29,19,39,68
82,185,102,-134,-9,143,68,68,34,29,39,78
78,185,107,-131,-14,146,58,68,39,29,43,78
73,185,112,-129,-19,148,58,73,39,29,43,82
73,185,112,-129,-19,148,53,73,43,29,43,82
68,180,112,-124,-21,146,53,82,43,29,43,82
68,180,112,-124,-21,146,43,82,43,29,43,82
63,180,117,-122,-26,148,43,82,43,24,43,78
63,200,136,-131,-36,168,39,78,34,24,43,78
73,209,136,-141,-31,173,29,63,39,24,53,82
73,219,146,-146,-36,183,14,53,34,24,53,87
73,229,156,-151,-41,192,4,43,34,24,58,87
87,244,156,-165,-34,200,-9,43,39,34,63,102
102,248,146,-175,-21,197,-34,29,39,39,68,112
107,248,141,-178,-17,195,-48,29,39,39,73,112
112,239,126,-175,-7,183,-48,34,43,43,78,117
126,239,112,-183,7,175,-48,39,48,48,87,122
136,229,92,-183,21,161,-43,58,39,63,82,122
136,224,87,-180,24,156,-43,63,43,63,82,122
136,209,73,-173,31,141,-34,68,48,63,82,122
136,200,63,-168,36,131,-24,73,53,63,82,122
146,190,43,-168,51,117,-4,82,58,63,97,122
146,190,43,-168,51,117,4,87,68,63,97,122
146,180,34,-163,56,107,14,87,68,63,97,122
141,180,39,-161,51,109,14,82,58,58,87,117
151,165,14,-158,68,90,4,68,39,34,63,97
151,165,14,-158,68,90,0,53,9,4,48,82
151,161,9,-156,70,85,-4,43,-4,-9,39,73
156,146,-9,-151,82,68,-9,34,-9,-19,29,63
136,126,-9,-131,73,58,0,34,-24,-24,19,48
117,122,4,-119,56,63,0,29,-29,-24,19,48
102,122,19,-112,41,70,9,29,-29,-29,14,43
97,117,19,-107,39,68,14,29,-29,-29,9,34
78,117,39,-97,19,78,19,29,-19,-19,9,39
68,117,48,-92,9,82,29,34,-19,-14,14,43
68,117,48,-92,9,82,39,34,-14,-14,14,53
53,117,63,-85,-4,90,43,39,-14,-14,14,58
34,97,63,-65,-14,80,48,29,-19,-24,4,39
24,97,73,-61,-24,85,53,24,-24,-24,0,39
19,87,68,-53,-24,78,58,24,-24,-29,-4,24
4,73,68,-39,-31,70,63,14,-29,-39,-19,19
14,82,68,-48,-26,75,63,4,-43,-48,-34,-4
14,82,68,-48,-26,75,63,4,-48,-63,-43,-9
19,73,53,-46,-17,63,63,4,-53,-68,-43,-9
24,73,48,-48,-12,61,63,4,-58,-78,-53,-19
4,73,68,-39,-31,70,78,9,-53,-73,-43,-14
-4,73,78,-34,-41,75,82,14,-48,-68,-39,-4
-9,73,82,-31,-46,78,87,14,-53,-68,-39,0
-9,73,82,-31,-46,78,82,19,-53,-63,-43,4
-9,73,82,-31,-46,78,82,19,-53,-63,-34,14
-14,73,87,-29,-51,80,82,19,-48,-63,-34,14
-24,68,92,-21,-58,80,87,19,-43,-63,-34,14
-29,68,97,-19,-63,82,87,19,-43,-63,-34,14
-24,68,92,-21,-58,80,82,19,-48,-73,-39,0
-9,73,82,-31,-46,78,82,14,-53,-73,-48,-9
4,73,68,-39,-31,70,82,9,-58,-78,-53,-14
24,73,48,-48,-12,61,82,4,-63,-78,-58,-19
24,63,39,-43,-7,51,73,-4,-53,-78,-58,-19
24,68,43,-46,-9,56,73,-4,-58,-78,-58,-19
19,68,48,-43,-14,58,73,0,-58,-78,-58,-19
9,68,58,-39,-24,63,78,4,-53,-73,-58,-19
0,68,68,-34,-34,68,87,4,-53,-73,-43,-14
-4,68,73,-31,-39,70,87,4,-53,-73,-43,-14
-14,68,82,-26,-48,75,87,9,-48,-68,-43,-14
-19,68,87,-24,-53,78,92,9,-48,-68,-39,-14
-24,82,107,-29,-65,95,92,19,-39,-58,-39,-9
-24,82,107,-29,-65,95,92,19,-39,-53,-39,-4
-29,82,112,-26,-70,97,92,19,-39,-53,-39,-4
-39,82,122,-21,-80,102,92,19,-39,-53,-39,0
-29,82,112,-26,-70,97,92,14,-48,-53,-39,-9
-24,78,102,-26,-63,90,92,14,-48,-63,-43,-14
-9,73,82,-31,-46,78,87,14,-48,-63,-43,-14
-4,68,73,-31,-39,70,87,14,-48,-63,-43,-19
0,78,78,-39,-39,78,87,19,-48,-58,-43,-9
-19,68,87,-24,-53,78,87,9,-48,-63,-48,-14
-4,68,73,-31,-39,70,92,19,-34,-53,-43,-19
4,82,78,-43,-36,80,97,34,-14,-29,-24,-14
-24,97,122,-36,-73,109,122,73,39,9,-19,0
-68,97,165,-14,-117,131,151,122,102,48,9,9
-48,97,146,-24,-97,122,146,151,161,97,39,29
-9,112,122,-51,-65,117,136,190,219,151,87,58
-9,136,146,-63,-78,141,131,229,297,248,165,112
0,161,161,-80,-80,161,122,253,361,351,263,190
58,180,122,-119,-31,151,92,268,414,463,370,273
136,219,82,-178,26,151,39,239,448,556,488,370
219,239,19,-229,100,129,-24,165,395,605,575,463
317,258,-58,-287,187,100,-107,97,346,658,673,551
439,263,-175,-351,307,43,-195,63,331,746,819,683
580,268,-312,-424,446,-21,-312,-9,258,810,961,819
732,268,-463,-500,597,-97,-424,-122,146,810,1029,897
819,268,-551,-544,685,-141,-512,-195,24,771,1029,912
888,258,-629,-573,758,-185,-590,-273,-117,649,951,888
966,278,-688,-622,827,-204,-688,-380,-297,478,824,824
976,297,-678,-636,827,-190,-790,-507,-483,268,649,746
893,302,-590,-597,741,-143,-849,-668,-688,0,434,619
775,278,-497,-527,636,-109,-844,-829,-917,-307,146,414
649,234,-414,-441,531,-90,-834,-990,-1156,-610,-141,190
536,209,-326,-373,431,-58,-824,-1161,-1395,-907,-390,-4
409,175,-234,-292,322,-29,-790,-1322,-1639,-1180,-600,-161
258,126,-131,-192,195,-2,-722,-1405,-1786,-1361,-761,-283
200,92,-107,-146,153,-7,-688,-1385,-1790,-1400,-810,-341
200,63,-136,-131,168,-36,-653,-1337,-1742,-1361,-800,-351
146,34,-112,-90,129,-39,-585,-1259,-1673,-1317,-780,-341
107,24,-82,-65,95,-29,-497,-1171,-1576,-1268,-761,-351
107,43,-63,-75,85,-9,-453,-1078,-1459,-1205,-736,-341
73,53,-19,-63,46,17,-424,-990,-1327,-1112,-692,-331
48,63,14,-56,17,39,-385,-873,-1176,-1000,-639,-322
34,73,39,-53,-2,56,-322,-751,-1029,-883,-585,-297
34,78,43,-56,-4,61,-268,-644,-907,-775,-522,-268
0,87,87,-43,-43,87,-214,-536,-780,-658,-448,-229
-53,97,151,-21,-102,124,-161,-463,-663,-570,-370,-190
-87,107,195,-9,-141,151,-117,-400,-570,-497,-317,-156
-92,107,200,-7,-146,153,-87,-351,-488,-444,-283,-126
-73,107,180,-17,-126,143,-58,-307,-414,-385,-253,-117
-39,112,151,-36,-95,131,-39,-263,-361,-341,-234,-117
-34,131,165,-48,-100,148,-9,-219,-297,-297,-219,-112
-53,122,175,-34,-114,148,19,-165,-239,-248,-195,-102
-73,102,175,-14,-124,139,34,-117,-200,-209,-165,-82
-78,87,165,-4,-122,126,48,-87,-180,-180,-131,-68
-68,78,146,-4,-107,112,53,-73,-161,-156,-112,-53
-34,73,107,-19,-70,90,68,-53,-131,-151,-102,-53
24,68,43,-46,-9,56,68,-53,-122,-141,-112,-58
9,68,58,-39,-24,63,78,-29,-92,-122,-102,-63
-39,63,102,-12,-70,82,107,14,-53,-87,-73,-39
-53,58,112,-2,-82,85,107,34,-19,-78,-63,-43
-53,63,117,-4,-85,90,117,48,-9,-53,-63,-39
-68,58,126,4,-97,92,126,63,-4,-39,-48,-24
-63,58,122,2,-92,90,131,73,0,-34,-39,-19
-58,58,117,0,-87,87,131,78,14,-24,-29,-9
-63,53,117,4,-90,85,131,82,19,-24,-29,-9
-63,53,117,4,-90,85,131,78,29,-19,-19,-9
-63,43,107,9,-85,75,131,87,43,-14,-19,-14
-63,43,107,9,-85,75,131,97,58,-4,-14,-14
-78,48,126,14,-102,87,141,107,73,9,-4,-9
-78,63,141,7,-109,102,136,112,73,19,-9,-9
-53,63,117,-4,-85,90,131,112,73,19,-9,-9
-39,63,102,-12,-70,82,126,112,78,19,-9,-4
-29,63,92,-17,-61,78,122,112,82,19,0,-4
-39,53,92,-7,-65,73,131,122,97,39,9,0
-34,53,87,-9,-61,70,131,122,102,43,9,0
-29,58,87,-14,-58,73,131,131,112,48,14,0
-29,58,87,-14,-58,73,131,141,122,58,24,9
-29,73,102,-21,-65,87,131,146,126,78,29,14
-19,73,92,-26,-56,82,131,156,131,87,34,19
-19,73,92,-26,-56,82,131,156,141,87,34,19
-19,73,92,-26,-56,82,131,161,146,97,43,24
-9,73,82,-31,-46,78,122,165,146,87,53,34
-4,73,78,-34,-41,75,122,170,156,97,53,34
0,63,63,-31,-31,63,122,175,161,102,53,34
14,63,48,-39,-17,56,117,175,175,117,68,48
0,78,78,-39,-39,78,117,185,185,131,73,43
-4,82,87,-39,-46,85,117,190,190,146,82,48
-9,82,92,-36,-51,87,117,204,204,156,82,53
-9,82,92,-36,-51,87,117,214,224,161,87,53
-9,78,87,-34,-48,82,126,214,234,175,97,58
-9,82,92,-36,-51,87,126,229,248,190,102,63
0,87,87,-43,-43,87,122,244,258,195,107,78
4,87,82,-46,-39,85,122,244,263,209,122,87
24,92,68,-58,-21,80,107,239,273,214,112,87
34,97,63,-65,-14,80,107,253,292,234,131,92
39,102,63,-70,-12,82,112,273,307,248,141,97
29,102,73,-65,-21,87,112,283,322,263,151,97
34,107,73,-70,-19,90,112,287,331,273,165,107
43,112,68,-78,-12,90,112,297,351,292,175,117
43,126,82,-85,-19,104,112,302,375,312,190,126
53,136,82,-95,-14,109,112,312,395,326,200,136
63,136,73,-100,-4,104,97,336,400,341,200,131
63,131,68,-97,-2,100,92,336,414,351,214,136
87,136,48,-112,19,92,92,336,429,356,229,136
97,136,39,-117,29,87,87,346,434,361,234,151
82,146,63,-114,9,104,97,366,448,390,253,161
78,156,78,-117,0,117,97,375,473,409,263,170
73,161,87,-117,-7,124,97,375,488,419,278,185
78,170,92,-124,-7,131,92,380,497,439,297,200
73,170,97,-122,-12,134,97,395,512,448,312,204
73,170,97,-122,-12,134,97,400,522,458,317,204
73,175,102,-124,-14,139,97,409,531,468,331,214
82,185,102,-134,-9,143,92,414,531,473,331,219
102,180,78,-141,12,129,78,405,531,478,336,214
112,185,73,-148,19,129,78,405,541,483,336,224
117,190,73,-153,21,131,78,405,551,488,336,229
126,190,63,-158,31,126,78,405,561,492,336,229
131,195,63,-163,34,129,68,405,551,492,341,239
131,204,73,-168,29,139,68,405,551,492,346,239
136,209,73,-173,31,141,68,405,546,492,356,239
136,214,78,-175,29,146,68,395,541,492,366,239
126,219,92,-173,17,156,58,395,541,492,361,239
131,214,82,-173,24,148,53,395,536,488,356,239
131,209,78,-170,26,143,53,390,531,483,351,239
131,209,78,-170,26,143,53,390,531,478,346,244
117,209,92,-163,12,151,63,385,531,473,346,253
112,209,97,-161,7,153,63,385,531,473,346,253
112,204,92,-158,9,148,63,385,531,473,346,253
112,204,92,-158,9,148,63,390,531,473,351,244
112,214,102,-163,4,158,63,385,517,468,341,244
107,214,107,-161,0,161,63,385,507,468,341,244
107,214,107,-161,0,161,63,380,507,463,341,239
107,214,107,-161,0,161,63,370,502,458,341,239
107,204,97,-156,4,151,63,361,497,453,336,244
107,204,97,-156,4,151,63,356,492,453,336,244
107,204,97,-156,4,151,63,351,478,448,331,244
107,204,97,-156,4,151,58,341,473,434,331,244
117,190,73,-153,21,131,43,322,458,424,326,229
122,185,63,-153,29,124,43,312,434,409,317,224
122,185,63,-153,29,124,43,312,424,395,307,224
126,185,58,-156,34,122,43,297,405,380,297,219
122,195,73,-158,24,134,43,278,400,370,297,209
122,195,73,-158,24,134,39,273,385,361,287,204
122,195,73,-158,24,134,39,263,375,351,278,200
112,185,73,-148,19,129,39,258,361,341,268,195
102,185,82,-143,9,134,48,253,341,322,268,190
107,185,78,-146,14,131,39,248,326,317,258,185
107,180,73,-143,17,126,39,234,302,297,248,180
107,180,73,-143,17,126,39,224,292,283,239,180
97,165,68,-131,14,117,29,209,273,258,234,175
117,161,43,-139,36,102,29,195,263,253,229,165
112,156,43,-134,34,100,29,180,239,244,219,156
102,151,48,-126,26,100,29,170,234,234,204,151
97,151,53,-124,21,102,29,175,219,234,204,156
92,151,58,-122,17,104,29,161,204,214,185,141
87,146,58,-117,14,102,29,151,190,200,180,141
82,146,63,-114,9,104,29,141,175,190,161,131
82,146,63,-114,9,104,39,136,165,180,161,126
78,146,68,-112,4,107,39,131,156,165,151,122
73,146,73,-109,0,109,39,126,151,161,141,112
73,136,63,-104,4,100,39,117,136,141,131,112
73,122,48,-97,12,85,39,112,122,141,131,117
68,122,53,-95,7,87,39,107,117,136,122,107
53,122,68,-87,-7,95,39,102,107,126,117,97
63,117,53,-90,4,85,39,102,102,122,117,92
73,117,43,-95,14,80,39,92,82,112,92,82
68,117,48,-92,9,82,39,87,82,102,92,82
63,117,53,-90,4,85,43,82,73,97,92,78
58,117,58,-87,0,87,43,78,73,87,92,78
68,122,53,-95,7,87,34,73,63,68,87,68
58,117,58,-87,0,87,43,73,63,68,82,68
58,117,58,-87,0,87,43,68,58,63,68,68
63,117,53,-90,4,85,39,63,48,58,58,63
68,107,39,-87,14,73,48,58,43,48,58,53
63,107,43,-85,9,75,48,58,43,58,58,53
58,107,48,-82,4,78,48,63,48,58,58,53
48,107,58,-78,-4,82,48,63,48,48,58,53
48,117,68,-82,-9,92,39,58,48,58,58,53
53,117,63,-85,-4,90,39,58,48,58,58,53
58,117,58,-87,0,87,39,58,48,58,58,43
63,122,58,-92,2,90,39,58,48,58,58,43
68,112,43,-90,12,78,39,58,48,58,58,48
78,112,34,-95,21,73,39,58,48,58,53,48
68,112,43,-90,12,78,39,58,48,58,53,39
68,112,43,-90,12,78,34,58,48,58,53,39
53,112,58,-82,-2,85,43,68,48,68,63,53
48,112,63,-80,-7,87,43,68,48,68,68,58
43,112,68,-78,-12,90,43,68,48,68,68,58
34,112,78,-73,-21,95,43,68,48,68,68,58
19,102,82,-61,-31,92,53,78,58,78,73,63
19,102,82,-61,-31,92,53,82,58,82,78,63
14,102,87,-58,-36,95,53,82,63,82,78,63
4,97,92,-51,-43,95,53,82,63,82,78,63
24,97,73,-61,-24,85,39,73,58,78,68,48
43,97,53,-70,-4,75,34,68,48,73,58,43
58,97,39,-78,9,68,29,63,39,53,53,34
78,92,14,-85,31,53,24,58,34,48,39,24
63,102,39,-82,12,70,29,68,39,58,43,29
73,107,34,-90,19,70,29,58,39,58,53,34
68,107,39,-87,14,73,34,58,39,58,58,39
63,112,48,-87,7,80,34,58,39,58,63,43
53,112,58,-82,-2,85,43,68,48,68,63,58
39,112,73,-75,-17,92,43,68,48,68,63,58
29,112,82,-70,-26,97,43,68,43,68,63,58
19,112,92,-65,-36,102,43,68,43,68,63,63
19,107,87,-63,-34,97,39,78,53,68,73,53
14,107,92,-61,-39,100,39,73,48,68,68,53
9,107,97,-58,-43,102,43,68,43,68,63,53
4,107,102,-56,-48,104,43,68,43,63,63,53
19,97,78,-58,-29,87,43,63,29,48,53,43
34,97,63,-65,-14,80,39,58,24,48,48,34
48,97,48,-73,0,73,34,53,19,53,48,34
68,102,34,-85,17,68,29,48,14,53,58,39
63,112,48,-87,7,80,24,48,19,43,58,39
63,122,58,-92,2,90,24,48,19,43,48,39
58,122,63,-90,-2,92,24,48,19,43,48,39
48,126,78,-87,-14,102,24,48,19,43,48,39
58,126,68,-92,-4,97,24,53,39,53,58,53
58,141,82,-100,-12,112,29,48,39,53,58,48
58,146,87,-102,-14,117,39,48,29,58,58,48
63,156,92,-109,-14,124,29,48,29,48,58,48
68,156,87,-112,-9,122,29,48,29,48,58,48
73,156,82,-114,-4,119,29,48,29,48,58,48
78,156,78,-117,0,117,29,48,29,48,58,48
68,151,82,-109,-7,117,34,63,43,63,63,53
58,146,87,-102,-14,117,29,68,48,68,73,58
48,141,92,-95,-21,117,34,78,48,73,78,68
43,136,92,-90,-24,114,34,82,53,78,82,73
63,141,78,-102,-7,109,43,73,53,78,82,63
68,141,73,-104,-2,107,34,73,53,78,82,63
68,141,73,-104,-2,107,34,73,53,73,82,58
73,161,87,-117,-7,124,29,68,43,73,82,58
78,161,82,-119,-2,122,14,43,39,63,73,53
82,170,87,-126,-2,129,-4,34,34,63,73,58
87,180,92,-134,-2,136,-19,24,34,63,78,58
107,195,87,-151,9,141,-39,24,39,73,82,73
122,204,82,-163,19,143,-63,19,29,87,92,82
126,209,82,-168,21,146,-78,19,29,87,102,82
131,204,73,-168,29,139,-78,24,34,92,112,87
146,209,63,-178,41,136,-78,29,39,97,126,92
156,195,39,-175,58,117,-63,48,39,102,122,102
156,185,29,-170,63,107,-63,53,43,102,122,102
156,165,9,-161,73,87,-53,58,48,102,122,102
156,151,-4,-153,80,73,-43,63,53,102,122,102
141,141,0,-141,70,70,-34,82,68,122,126,102
136,141,4,-139,65,73,-24,87,78,122,126,102
131,131,0,-131,65,65,-14,87,78,122,126,102
122,131,9,-126,56,70,-14,82,68,117,117,97
122,122,0,-122,61,61,-19,78,48,102,102,78
122,126,4,-124,58,65,-19,63,19,73,87,63
122,126,4,-124,58,65,-19,53,4,58,78,53
126,117,-9,-122,68,53,-19,43,0,48,68,43
136,92,-43,-114,90,24,-29,39,-9,39,48,39
126,82,-43,-104,85,19,-29,29,-19,34,48,39
122,78,-43,-100,82,17,-19,24,-24,24,43,34
126,68,-58,-97,92,4,-14,19,-29,19,39,24
112,78,-34,-95,73,21,0,29,-19,19,48,24
97,78,-19,-87,58,29,9,34,-19,24,53,24
92,78,-14,-85,53,31,19,34,-14,24,53,29
73,78,4,-75,34,41,24,39,-14,24,53,29
63,58,-4,-61,34,26,19,29,-29,4,43,9
53,58,4,-56,24,31,24,24,-34,4,39,9
48,48,0,-48,24,24,29,24,-34,0,34,-4
34,34,0,-34,17,17,34,14,-39,-9,19,-9
24,34,9,-29,7,21,48,14,-48,-14,14,-14
4,34,29,-19,-12,31,53,14,-48,-24,4,-19
-9,24,34,-7,-21,29,58,14,-48,-24,4,-19
-24,24,48,0,-36,36,63,14,-48,-29,-4,-29
-14,24,39,-4,-26,31,53,14,-39,-29,-14,-39
-14,24,39,-4,-26,31,53,14,-39,-29,-9,-34
-9,24,34,-7,-21,29,53,9,-48,-34,-9,-34
0,24,24,-12,-12,24,43,9,-53,-34,-14,-34
9,34,24,-21,-7,29,43,9,-63,-34,-14,-34
14,34,19,-24,-2,26,43,9,-58,-34,-14,-34
14,29,14,-21,0,21,48,9,-53,-34,-14,-34
19,29,9,-24,4,19,48,9,-53,-34,-14,-34
4,19,14,-12,-4,17,53,14,-53,-24,-14,-34
0,24,24,-12,-12,24,53,14,-53,-24,-19,-39
-4,24,29,-9,-17,26,53,14,-53,-29,-19,-39
-4,24,29,-9,-17,26,53,14,-53,-29,-19,-39
4,34,29,-19,-12,31,53,4,-53,-39,-19,-48
14,39,24,-26,-4,31,53,4,-58,-39,-19,-48
19,39,19,-29,0,29,53,9,-58,-39,-19,-48
19,39,19,-29,0,29,58,14,-53,-34,-19,-48
9,29,19,-19,-4,24,68,14,-43,-24,-24,-34
4,29,24,-17,-9,26,68,14,-43,-24,-24,-34
-4,29,34,-12,-19,31,68,19,-39,-19,-24,-34
-9,29,39,-9,-24,34,73,19,-39,-19,-19,-34
-24,34,58,-4,-41,46,73,29,-39,-19,-9,-34
-24,34,58,-4,-41,46,73,29,-39,-14,-9,-34
-29,34,63,-2,-46,48,73,29,-39,-14,-9,-39
-39,34,73,2,-56,53,73,29,-39,-14,-9,-39
-34,29,63,2,-48,46,73,34,-29,-9,-4,-34
-34,29,63,2,-48,46,73,34,-29,-14,-4,-34
-24,29,53,-2,-39,41,68,34,-29,-9,0,-29
-24,29,53,-2,-39,41,68,34,-29,-4,4,-29
-19,29,48,-4,-34,39,58,29,-39,-9,-4,-29
-9,39,48,-14,-29,43,68,39,-39,-4,0,-34
-14,48,63,-17,-39,56,73,39,-24,4,4,-29
-14,53,68,-19,-41,61,78,43,-14,0,4,-34
-24,48,73,-12,-48,61,82,53,9,9,9,-29
-39,48,87,-4,-63,68,102,82,63,48,29,-19
-39,58,97,-9,-68,78,117,141,141,107,68,0
-29,73,102,-21,-65,87,117,190,209,170,117,29
9,87,78,-48,-34,82,112,219,268,239,165,63
68,122,53,-95,7,87,102,234,322,331,244,122
117,141,24,-129,46,82,73,258,385,444,341,204
165,170,4,-168,80,87,29,248,419,546,468,302
209,200,-9,-204,109,95,-34,185,395,614,566,395
297,209,-87,-253,192,61,-107,126,356,658,653,473
439,214,-224,-326,331,-4,-195,73,331,727,780,585
580,209,-370,-395,475,-80,-302,0,258,800,902,702
692,209,-483,-451,588,-136,-414,-92,136,819,990,800
780,209,-570,-495,675,-180,-492,-175,43,800,1029,863
839,209,-629,-524,734,-209,-561,-244,-78,727,1010,878
858,219,-639,-539,749,-209,-649,-331,-229,575,912,844
868,239,-629,-553,749,-195,-741,-458,-414,375,736,766
863,253,-610,-558,736,-178,-829,-639,-649,97,512,629
824,239,-585,-531,705,-173,-873,-849,-907,-239,214,414
717,204,-512,-461,614,-153,-873,-1010,-1156,-570,-92,170
605,180,-424,-392,514,-122,-844,-1151,-1385,-858,-370,-34
488,165,-322,-326,405,-78,-810,-1312,-1629,-1132,-580,-200
326,117,-209,-222,268,-46,-751,-1424,-1815,-1342,-751,-322
190,63,-126,-126,158,-31,-688,-1444,-1869,-1429,-839,-400
170,14,-156,-92,163,-70,-653,-1415,-1839,-1410,-839,-429
165,-14,-180,-75,173,-97,-605,-1337,-1771,-1376,-819,-419
107,-24,-131,-41,119,-78,-536,-1239,-1673,-1327,-810,-429
78,-4,-82,-36,80,-43,-492,-1137,-1546,-1254,-785,-429
63,24,-39,-43,51,-7,-473,-1039,-1424,-1161,-732,-409
58,34,-24,-46,41,4,-434,-932,-1273,-1049,-668,-390
24,34,9,-29,7,21,-361,-790,-1117,-912,-605,-366
4,29,24,-17,-9,26,-297,-683,-976,-785,-531,-336
9,39,29,-24,-9,34,-253,-585,-839,-688,-458,-307
-4,48,53,-21,-29,51,-209,-512,-722,-590,-390,-258
-48,48,97,0,-73,73,-165,-439,-619,-507,-317,-204
-73,58,131,7,-102,95,-117,-370,-527,-434,-273,-175
-63,58,122,2,-92,90,-87,-317,-444,-385,-244,-165
-58,63,122,-2,-90,92,-68,-263,-380,-341,-234,-165
-63,73,136,-4,-100,104,-48,-209,-317,-287,-209,-161
-73,63,136,4,-104,100,-19,-165,-278,-229,-175,-151
-82,53,136,14,-109,95,14,-126,-219,-180,-146,-131
-68,58,126,4,-97,92,29,-87,-180,-141,-122,-117
-48,48,97,0,-73,73,34,-73,-161,-126,-92,-112
-43,34,78,4,-61,56,48,-53,-141,-122,-82,-92
-43,29,73,7,-58,51,68,-24,-102,-92,-73,-78
-39,29,68,4,-53,48,68,0,-73,-82,-73,-92
-39,24,63,7,-51,43,78,24,-53,-68,-63,-87
-43,39,82,2,-63,61,87,43,-19,-39,-53,-73
-63,24,87,19,-75,56,97,68,0,-14,-43,-68
-63,19,82,21,-73,51,107,63,-4,-4,-39,-73
-53,19,73,17,-63,46,112,73,0,-4,-29,-68
-43,19,63,12,-53,41,112,78,14,0,-19,-58
-43,14,58,14,-51,36,112,82,19,-4,-19,-58
-29,24,53,2,-41,39,102,78,14,0,-29,-68
-24,14,39,4,-31,26,102,87,24,4,-29,-73
-19,14,34,2,-26,24,102,97,34,14,-24,-73
-29,19,48,4,-39,34,112,107,43,29,-14,-68
-39,24,63,7,-51,43,112,122,63,39,0,-58
-24,24,48,0,-36,36,112,122,63,39,0,-58
-19,24,43,-2,-31,34,112,122,68,39,0,-53
-19,24,43,-2,-31,34,112,122,73,39,9,-53
-29,24,53,2,-41,39,112,131,78,48,9,-48
-24,24,48,0,-36,36,112,131,82,53,9,-48
-19,29,48,-4,-34,39,112,141,92,58,14,-48
-19,29,48,-4,-34,39,112,151,102,68,24,-39
-19,34,53,-7,-36,43,102,156,117,87,29,-34
-9,34,43,-12,-26,39,102,165,122,97,34,-29
-9,34,43,-12,-26,39,102,165,131,97,34,-29
-9,34,43,-12,-26,39,102,170,136,107,43,-24
-19,34,53,-7,-36,43,112,185,146,117,63,-14
-24,34,58,-4,-41,46,112,190,156,126,63,-14
-29,24,53,2,-41,39,112,195,161,131,63,-14
-24,24,48,0,-36,36,107,195,175,146,78,0
-14,39,53,-12,-34,46,97,190,180,141,73,-4
-4,43,48,-19,-26,46,97,190,180,156,82,0
4,43,39,-24,-17,41,97,200,190,165,82,4
19,43,24,-31,-2,34,97,204,204,170,87,4
19,48,29,-34,-4,39,97,224,224,185,97,4
19,53,34,-36,-7,43,97,239,239,200,102,4
29,58,29,-43,0,43,92,253,248,204,107,14
34,58,24,-46,4,41,92,253,253,219,122,19
34,53,19,-43,7,36,97,248,273,234,131,24
34,58,24,-46,4,41,97,263,292,253,151,34
29,63,34,-46,-2,48,102,283,307,268,161,43
9,63,53,-36,-21,58,102,292,322,283,170,48
34,73,39,-53,-2,56,92,307,336,292,190,63
43,73,29,-58,7,51,92,317,351,312,195,68
43,82,39,-63,2,61,92,322,370,331,204,73
53,87,34,-70,9,61,92,331,385,346,209,78
53,82,29,-68,12,56,78,346,400,356,209,73
53,82,29,-68,12,56,73,346,414,370,224,78
78,92,14,-85,31,53,73,346,429,380,239,78
87,97,9,-92,39,53,68,356,434,390,244,92
78,97,19,-87,29,58,68,375,444,414,268,107
78,107,29,-92,24,68,68,385,463,429,273,112
78,112,34,-95,21,73,68,385,473,434,283,122
87,122,34,-104,26,78,63,390,478,448,297,131
112,131,19,-122,46,75,58,395,492,458,302,136
122,131,9,-126,56,70,58,400,502,468,307,136
131,136,4,-134,63,70,58,409,512,478,322,146
151,146,-4,-148,78,70,53,414,512,483,322,151
146,141,-4,-143,75,68,53,419,517,492,341,165
131,146,14,-139,58,80,58,424,531,502,346,175
112,151,39,-131,36,95,63,429,546,512,351,180
97,151,53,-124,21,102,68,434,561,522,356,180
112,151,39,-131,36,95,58,434,551,512,356,180
122,156,34,-139,43,95,58,434,551,512,356,180
136,156,19,-146,58,87,58,434,546,512,361,180
146,156,9,-151,68,82,58,424,541,512,366,180
146,165,19,-156,63,92,53,424,551,517,356,180
151,165,14,-158,68,90,43,424,546,517,356,180
151,165,14,-158,68,90,39,419,541,517,356,180
151,170,19,-161,65,95,34,419,541,517,356,185
131,170,39,-151,46,104,39,414,546,517,356,195
122,170,48,-146,36,109,43,414,541,512,356,195
117,165,48,-141,34,107,48,414,536,507,356,195
112,165,53,-139,29,109,53,419,531,502,361,185
126,156,29,-141,48,92,43,405,522,488,356,175
126,156,29,-141,48,92,43,405,507,488,351,175
131,156,24,-143,53,90,43,400,502,483,346,170
136,156,19,-146,58,87,43,390,492,478,341,170
136,156,19,-146,58,87,43,390,488,463,336,165
136,156,19,-146,58,87,43,385,483,463,336,165
136,156,19,-146,58,87,43,380,468,458,331,165
136,156,19,-146,58,87,39,370,463,444,331,165
141,151,9,-146,65,80,34,351,453,439,322,161
141,146,4,-143,68,75,34,341,434,429,317,156
136,146,9,-141,63,78,34,341,429,419,312,156
136,146,9,-141,63,78,34,326,414,409,307,151
131,136,4,-134,63,70,43,326,390,390,307,161
122,136,14,-129,53,75,39,322,375,380,297,156
112,136,24,-124,43,80,39,312,366,370,287,151
92,126,34,-109,29,80,39,307,351,361,278,146
97,126,29,-112,34,78,29,287,331,341,268,131
107,126,19,-117,43,73,19,278,317,336,258,126
112,122,9,-117,51,65,19,258,292,317,248,122
117,122,4,-119,56,63,19,244,283,302,239,122
112,126,14,-119,48,70,19,234,268,287,229,122
126,122,-4,-124,65,58,19,224,263,283,229,117
117,117,0,-117,58,58,19,214,244,273,224,112
102,112,9,-107,46,61,19,209,244,263,214,112
92,102,9,-97,41,56,19,195,209,244,204,107
92,102,9,-97,41,56,19,180,195,224,185,92
92,97,4,-95,43,51,19,170,180,209,180,92
92,97,4,-95,43,51,19,161,165,200,161,82
97,92,-4,-95,51,43,19,156,156,190,161,68
97,87,-9,-92,53,39,19,151,146,175,151,63
97,82,-14,-90,56,34,19,146,141,170,141,53
102,68,-34,-85,68,17,19,136,126,151,131,53
92,68,-24,-80,58,21,19,122,112,141,122,58
87,73,-14,-80,51,29,19,117,107,136,112,48
73,78,4,-75,34,41,19,112,97,126,107,39
82,78,-4,-80,43,36,19,112,92,122,107,34
73,68,-4,-70,39,31,19,107,73,107,82,24
68,68,0,-68,34,34,19,107,73,102,82,24
63,68,4,-65,29,36,24,107,63,102,82,19
58,68,9,-63,24,39,24,107,63,97,82,19
63,73,9,-68,26,41,24,102,63,97,92,19
58,68,9,-63,24,39,34,102,63,97,92,19
63,68,4,-65,29,36,34,97,58,92,82,19
73,68,-4,-70,39,31,29,92,48,87,78,14
68,68,0,-68,34,34,29,87,53,78,68,14
63,68,4,-65,29,36,29,87,53,87,68,14
58,68,9,-63,24,39,29,92,58,87,68,14
48,68,19,-58,14,43,29,92,58,78,68,14
53,58,4,-56,24,31,29,87,48,78,58,4
53,58,4,-56,24,31,29,87,48,78,58,4
53,58,4,-56,24,31,29,87,48,78,58,-4
53,63,9,-58,21,36,29,87,48,78,58,-4
43,53,9,-48,17,31,39,78,39,78,58,0
48,53,4,-51,21,29,39,78,39,78,53,0
34,53,19,-43,7,36,39,78,39,78,53,-9
29,53,24,-41,2,39,34,78,39,78,53,-9
48,63,14,-56,17,39,24,78,29,73,53,-14
58,63,4,-61,26,34,24,78,29,68,58,-9
68,63,-4,-65,36,29,24,78,29,63,58,-9
73,63,-9,-68,41,26,24,78,29,58,58,-9
58,63,4,-61,26,34,29,87,39,68,63,4
58,63,4,-61,26,34,34,92,39,73,68,4
53,63,9,-58,21,36,39,92,43,73,68,4
43,58,14,-51,14,36,43,92,43,73,68,4
53,68,14,-61,19,41,34,87,43,73,63,-4
53,68,14,-61,19,41,34,87,39,73,58,-4
48,68,19,-58,14,43,34,87,34,58,58,-9
48,63,14,-56,17,39,34,87,34,58,48,-14
48,53,4,-51,21,29,29,78,19,48,39,-4
63,58,-4,-61,34,26,29,68,19,48,43,-4
63,58,-4,-61,34,26,34,68,19,48,43,-4
63,63,0,-63,31,31,34,68,19,48,43,-4
53,53,0,-53,26,26,24,58,19,48,34,-4
48,53,4,-51,21,29,24,58,19,48,34,-9
48,53,4,-51,21,29,24,58,14,48,34,-14
48,53,4,-51,21,29,24,58,14,48,34,-14
53,58,4,-56,24,31,19,68,14,48,34,-14
53,58,4,-56,24,31,19,63,9,48,29,-14
53,58,4,-56,24,31,24,58,4,48,24,-14
53,58,4,-56,24,31,24,58,4,43,24,-14
53,58,4,-56,24,31,29,58,4,39,34,-4
53,58,4,-56,24,31,29,58,4,39,29,-14
53,58,4,-56,24,31,29,58,4,43,29,-14
58,63,4,-61,26,34,29,58,4,43,39,-9
48,53,4,-51,21,29,24,58,0,34,29,-19
53,63,9,-58,21,36,24,58,0,34,19,-19
53,63,9,-58,21,36,24,58,0,34,19,-19
48,68,19,-58,14,43,24,58,0,34,19,-19
43,87,43,-65,0,65,24,63,9,34,39,-24
39,92,53,-65,-7,73,29,58,9,34,39,-19
39,97,58,-68,-9,78,29,53,9,34,34,-19
43,102,58,-73,-7,80,29,53,14,34,34,-14
63,122,58,-92,2,90,29,43,4,39,39,-19
87,126,39,-107,24,82,29,48,9,48,39,-19
78,117,39,-97,19,78,29,53,14,58,48,-9
68,117,48,-92,9,82,29,58,19,58,48,-9
58,117,58,-87,0,87,29,63,24,58,48,-9
48,117,68,-82,-9,92,29,68,29,58,48,-9
68,117,48,-92,9,82,39,78,29,58,48,-19
68,117,48,-92,9,82,29,78,29,58,53,-19
68,117,48,-92,9,82,29,82,24,58,53,-14
73,117,43,-95,14,80,24,82,24,58,53,-14
82,112,29,-97,26,70,24,73,24,58,43,-14
87,112,24,-100,31,68,14,73,24,58,43,-14
87,112,24,-100,31,68,14,73,24,53,43,-19
92,131,39,-112,26,85,9,68,14,53,43,-19
102,131,29,-117,36,80,-9,53,9,53,53,-14
102,141,39,-122,31,90,-24,43,4,53,53,-9
102,151,48,-126,26,100,-34,34,4,53,58,-9
117,165,48,-141,34,107,-48,34,9,63,63,4
141,170,29,-156,56,100,-73,29,0,58,58,4
146,170,24,-158,61,97,-87,29,0,58,63,4
151,161,9,-156,70,85,-87,34,4,63,68,9
165,161,-4,-163,85,78,-87,39,9,68,78,14
165,151,-14,-158,90,68,-73,58,19,82,82,24
165,146,-19,-156,92,63,-73,63,24,82,82,24
165,131,-34,-148,100,48,-63,68,29,82,82,24
165,122,-43,-143,104,39,-53,73,34,82,82,24
156,122,-34,-139,95,43,-43,92,39,92,87,14
146,122,-24,-134,85,48,-34,97,48,92,87,14
136,112,-24,-124,80,43,-24,97,48,92,87,14
122,112,-9,-117,65,51,-24,92,39,87,78,9
122,87,-34,-104,78,26,-29,82,19,63,63,-9
122,87,-34,-104,78,26,-29,63,-9,34,48,-24
122,82,-39,-102,80,21,-29,48,-24,19,39,-34
126,68,-58,-97,92,4,-29,34,-29,9,29,-43
122,48,-73,-85,97,-12,-24,43,-34,14,29,-39
107,43,-63,-75,85,-9,-19,39,-39,14,29,-39
97,43,-53,-70,75,-4,-4,39,-39,9,24,-43
97,39,-58,-68,78,-9,4,39,-39,9,19,-53
78,29,-48,-53,63,-9,9,39,-29,0,19,-53
68,29,-39,-48,53,-4,19,43,-29,4,24,-53
68,29,-39,-48,53,-4,29,43,-24,4,24,-48
53,29,-24,-41,39,2,34,48,-24,4,24,-48
48,29,-19,-39,34,4,34,34,-43,-19,0,-73
43,29,-14,-36,29,7,34,24,-53,-24,-9,-78
43,19,-24,-31,34,-2,34,19,-58,-34,-19,-97
34,4,-29,-19,31,-12,34,4,-68,-48,-39,-107
24,0,-24,-12,24,-12,39,14,-68,-43,-43,-122
14,-4,-19,-4,17,-12,43,14,-68,-53,-53,-126
9,-19,-29,4,19,-24,48,14,-68,-53,-53,-126
4,-24,-29,9,17,-26,53,14,-68,-58,-63,-136
-9,-9,0,9,-4,-4,53,19,-58,-48,-53,-126
-14,-4,9,9,-12,2,53,24,-58,-48,-48,-122
-14,0,14,7,-14,7,53,24,-68,-53,-48,-122
-9,4,14,2,-12,9,43,29,-73,-53,-53,-122
4,14,9,-9,-2,12,43,19,-73,-63,-63,-131
4,14,9,-9,-2,12,43,19,-68,-63,-63,-131
0,9,9,-4,-4,9,48,19,-63,-63,-63,-131
0,9,9,-4,-4,9,48,19,-63,-63,-63,-131
-9,-4,4,7,-7,0,63,24,-63,-58,-48,-117
-9,-4,4,7,-7,0,63,24,-63,-53,-48,-117
-9,-9,0,9,-4,-4,63,24,-63,-53,-43,-112
-4,-14,-9,9,2,-12,63,24,-63,-48,-39,-107
-9,-24,-14,17,2,-19,63,19,-53,-43,-24,-97
-14,-19,-4,17,-4,-12,63,24,-58,-39,-19,-87
-24,-19,4,21,-14,-7,63,34,-58,-34,-14,-78
-39,-19,19,29,-29,0,68,43,-53,-24,-9,-68
-29,-19,9,24,-19,-4,68,34,-63,-34,-19,-73
-24,-19,4,21,-14,-7,68,34,-63,-34,-24,-82
-24,-19,4,21,-14,-7,68,39,-58,-29,-29,-92
-19,-19,0,19,-9,-9,73,39,-58,-29,-29,-102
-19,-14,4,17,-12,-4,73,29,-48,-34,-34,-107
-14,-14,0,14,-7,-7,73,29,-48,-34,-39,-112
-14,-14,0,14,-7,-7,73,29,-48,-39,-43,-122
-19,-14,4,17,-12,-4,73,29,-48,-43,-48,-126
-29,-4,24,17,-26,9,63,14,-58,-43,-48,-126
-34,0,34,17,-34,17,63,14,-58,-53,-53,-131
-29,4,34,12,-31,19,58,14,-58,-53,-53,-131
-34,9,43,12,-39,26,58,14,-58,-53,-53,-136
-29,19,48,4,-39,34,48,0,-58,-48,-43,-126
-48,0,48,24,-48,24,68,9,-48,-43,-39,-122
-43,-9,34,26,-39,12,73,29,-24,-24,-24,-107
-43,-14,29,29,-36,7,78,43,-4,0,-14,-102
-43,-9,34,26,-39,12,102,82,39,29,9,-78
-39,-9,29,24,-34,9,131,122,102,78,39,-58
-39,0,39,19,-39,19,126,161,161,136,78,-39
-9,14,24,-2,-17,19,117,190,219,200,146,9
19,39,19,-29,0,29,102,219,287,278,204,63
78,73,-4,-75,41,34,73,234,351,351,283,112
146,122,-24,-134,85,48,34,248,405,463,400,195
204,170,-34,-187,119,68,-19,209,419,566,517,302
278,200,-78,-239,178,61,-82,146,395,605,595,375
375,200,-175,-287,275,12,-156,87,356,649,673,463
497,195,-302,-346,400,-53,-244,34,312,707,780,575
629,219,-409,-424,519,-95,-351,-58,219,751,893,692
761,229,-531,-495,646,-151,-453,-161,107,741,951,761
839,239,-600,-539,719,-180,-531,-253,-14,683,941,775
897,239,-658,-568,778,-209,-629,-361,-175,551,854,741
927,248,-678,-588,802,-214,-727,-497,-366,361,697,678
897,268,-629,-583,763,-180,-819,-673,-561,131,502,580
834,273,-561,-553,697,-143,-888,-873,-795,-156,268,414
727,239,-488,-483,607,-124,-902,-1054,-1044,-463,-19,190
600,204,-395,-402,497,-95,-863,-1185,-1263,-746,-278,-4
448,190,-258,-319,353,-34,-824,-1337,-1483,-985,-468,-151
302,175,-126,-239,214,24,-790,-1498,-1698,-1210,-629,-278
180,146,-34,-163,107,56,-732,-1571,-1815,-1351,-761,-400
122,112,-9,-117,65,51,-697,-1551,-1820,-1371,-800,-439
112,82,-29,-97,70,26,-673,-1493,-1781,-1342,-780,-429
78,63,-14,-70,46,24,-605,-1415,-1703,-1298,-771,-439
39,53,14,-46,12,34,-527,-1307,-1595,-1249,-771,-448
19,63,43,-41,-12,53,-492,-1185,-1468,-1185,-736,-448
4,63,58,-34,-26,61,-453,-1068,-1327,-1083,-683,-429
-9,53,63,-21,-36,58,-395,-941,-1185,-980,-629,-419
-14,53,68,-19,-41,61,-331,-810,-1029,-863,-575,-395
-34,48,82,-7,-58,65,-278,-692,-888,-746,-502,-356
-68,58,126,4,-97,92,-234,-614,-771,-649,-439,-326
-63,68,131,-2,-97,100,-200,-541,-673,-570,-390,-307
-78,58,136,9,-107,97,-136,-468,-580,-488,-326,-273
-122,39,161,41,-141,100,-87,-380,-478,-414,-273,-234
-122,29,151,46,-136,90,-58,-307,-405,-356,-234,-214
-97,34,131,31,-114,82,-48,-253,-341,-302,-204,-195
-92,24,117,34,-104,70,-9,-200,-278,-258,-180,-180
-92,14,107,39,-100,61,9,-175,-229,-219,-156,-161
-92,14,107,39,-100,61,24,-146,-190,-190,-126,-141
-78,19,97,29,-87,58,29,-126,-161,-161,-122,-136
-48,9,58,19,-53,34,43,-102,-161,-165,-122,-141
-43,4,48,19,-46,26,48,-82,-141,-151,-112,-141
-53,0,53,26,-53,26,58,-53,-122,-131,-92,-136
-39,0,39,19,-39,19,68,-39,-92,-122,-92,-151
-9,4,14,2,-12,9,68,-14,-63,-107,-82,-146
-24,0,24,12,-24,12,78,14,-29,-68,-63,-131
-73,-24,48,48,-61,12,87,29,0,-34,-43,-126
-82,-39,43,61,-63,2,97,34,-4,-29,-48,-112
-73,-39,34,56,-53,-2,102,43,0,-24,-39,-107
-63,-39,24,51,-43,-7,102,48,14,-14,-29,-97
-63,-43,19,53,-41,-12,102,53,19,-14,-29,-97
-43,-34,9,39,-26,-12,112,58,24,-14,-39,-102
-43,-43,0,43,-21,-21,112,68,34,-14,-39,-112
-43,-43,0,43,-21,-21,112,78,43,-9,-34,-117
-58,-39,19,48,-39,-9,122,87,53,0,-24,-117
-68,-34,34,51,-51,0,112,82,53,0,-24,-131
-53,-34,19,43,-36,-7,112,82,53,0,-29,-136
-48,-34,14,41,-31,-9,112,82,58,0,-34,-136
-48,-34,14,41,-31,-9,112,82,63,0,-29,-141
-34,-24,9,29,-21,-7,112,92,58,0,-29,-131
-24,-24,0,24,-12,-12,112,92,63,4,-29,-126
-14,-19,-4,17,-4,-12,112,102,73,9,-24,-122
-9,-19,-9,14,0,-14,112,112,82,19,-14,-107
-24,-14,9,19,-17,-2,122,122,97,34,-4,-92
-19,-14,4,17,-12,-4,122,136,102,48,4,-87
-24,-14,9,19,-17,-2,122,141,112,53,9,-87
-29,-14,14,21,-21,0,122,151,117,68,24,-82
-34,-14,19,24,-26,2,122,156,131,78,43,-63
-43,-14,29,29,-36,7,122,161,146,87,43,-63
-53,-24,29,39,-41,2,122,165,156,92,43,-63
-53,-24,29,39,-41,2,117,165,175,107,58,-48
-34,-9,24,21,-29,7,107,180,180,102,53,-53
-24,-4,19,14,-21,7,107,180,180,117,63,-48
-14,-4,9,9,-12,2,107,190,190,126,63,-43
0,-4,-4,2,2,-4,107,195,204,131,68,-43
-9,-9,0,9,-4,-4,107,195,214,146,68,-53
-9,-4,4,7,-7,0,107,209,229,161,73,-53
0,0,0,0,0,0,102,224,239,165,78,-43
4,0,-4,-2,4,-2,102,224,244,180,92,-39
19,-9,-29,-4,24,-19,87,219,248,180,87,-48
24,-9,-34,-7,29,-21,87,234,263,195,102,-43
24,-9,-34,-7,29,-21,92,253,273,204,107,-39
9,-14,-24,2,17,-19,92,263,283,214,112,-39
14,-4,-19,-4,17,-12,87,278,297,229,131,-29
24,4,-19,-14,21,-7,92,287,312,244,136,-19
24,24,0,-24,12,12,97,292,331,258,146,-9
34,39,4,-36,14,21,102,302,346,268,151,0
29,39,9,-34,9,24,97,326,370,297,165,9
24,34,9,-29,7,21,92,326,385,312,185,19
43,39,-4,-41,24,17,92,326,400,322,204,24
48,39,-9,-43,29,14,87,336,405,331,214,43
58,34,-24,-46,41,4,87,351,424,356,239,58
68,39,-29,-53,48,4,87,366,444,370,244,63
78,39,-39,-58,58,0,87,370,453,375,253,73
97,43,-53,-70,75,-4,82,380,458,390,268,82
92,48,-43,-70,68,2,68,380,453,385,258,73
92,53,-39,-73,65,7,68,380,463,390,258,68
92,63,-29,-78,61,17,68,385,473,395,268,73
102,78,-24,-90,63,26,63,385,473,395,263,73
102,97,-4,-100,53,46,53,375,463,390,268,63
102,107,4,-104,48,56,48,375,473,395,268,68
97,117,19,-107,39,68,43,375,483,400,268,68
97,122,24,-109,36,73,39,375,492,405,268,63
102,107,4,-104,48,56,43,385,507,419,283,78
102,107,4,-104,48,56,48,395,512,424,287,82
107,102,-4,-104,56,48,53,405,512,429,297,87
107,97,-9,-102,58,43,58,405,512,434,307,92
107,97,-9,-102,58,43,58,395,512,429,307,102
112,97,-14,-104,63,41,53,395,507,429,307,102
112,97,-14,-104,63,41,53,390,502,429,307,102
112,102,-9,-107,61,46,53,390,502,429,307,107
117,117,0,-117,58,58,48,370,492,405,297,102
112,122,9,-117,51,65,43,366,483,395,287,97
112,122,9,-117,51,65,39,361,473,385,278,92
112,126,14,-119,48,70,34,361,463,375,273,78
102,117,14,-109,43,65,34,366,468,375,283,82
97,117,19,-107,39,68,34,366,458,380,283,87
97,117,19,-107,39,68,34,361,458,380,283,87
97,117,19,-107,39,68,34,351,453,380,283,92
112,102,-9,-107,61,46,34,346,439,366,268,87
117,97,-19,-107,68,39,34,336,434,366,268,87
122,92,-29,-107,75,31,34,326,419,361,263,87
126,87,-39,-107,82,24,29,312,414,346,263,87
117,87,-29,-102,73,29,24,302,395,331,253,92
112,87,-24,-100,68,31,24,292,375,322,248,87
102,92,-9,-97,56,41,24,292,370,312,244,87
97,97,0,-97,48,48,24,278,356,302,239,82
87,87,0,-87,43,43,39,278,356,297,239,92
82,87,4,-85,39,46,39,273,346,292,239,87
78,87,9,-82,34,48,43,263,341,287,239,82
63,78,14,-70,24,46,48,258,331,283,239,78
82,68,-14,-75,48,26,43,229,307,258,224,68
97,68,-29,-82,63,19,29,219,287,248,209,58
107,63,-43,-85,75,9,24,200,258,224,195,48
117,63,-53,-90,85,4,19,185,244,204,180,43
82,63,-19,-73,51,21,19,185,219,190,180,43
87,63,-24,-75,56,19,19,175,214,185,180,39
68,63,-4,-65,36,29,19,165,195,175,175,34
43,63,19,-53,12,41,19,161,195,165,165,34
48,63,14,-56,17,39,9,151,170,156,165,39
53,63,9,-58,21,36,9,131,156,136,146,24
58,58,0,-58,29,29,9,117,141,122,141,24
63,58,-4,-61,34,26,9,102,126,112,122,14
63,53,-9,-58,36,21,19,107,126,102,112,9
58,48,-9,-53,34,19,19,102,117,87,102,4
53,43,-9,-48,31,17,19,97,112,82,92,-4
53,29,-24,-41,39,2,19,87,97,63,82,-4
53,14,-39,-34,46,-12,29,78,68,48,68,-14
48,14,-34,-31,41,-9,29,68,58,39,53,-29
34,14,-19,-24,26,-2,29,58,43,24,43,-43
43,9,-34,-26,39,-12,29,53,34,14,39,-53
43,9,-34,-26,39,-12,29,39,34,9,29,-43
39,9,-29,-24,34,-9,29,39,34,4,34,-43
34,9,-24,-21,29,-7,34,39,24,4,39,-48
29,9,-19,-19,24,-4,34,39,24,0,43,-48
24,14,-9,-19,17,2,34,39,34,0,48,-39
9,9,0,-9,4,4,43,43,34,0,53,-29
4,9,4,-7,0,7,43,43,29,-4,48,-19
4,9,4,-7,0,7,39,43,19,-9,48,-14
29,14,-14,-21,21,0,24,34,9,-19,39,-29
34,19,-14,-26,24,2,19,29,4,-9,39,-34
39,24,-14,-31,26,4,14,29,4,-9,39,-39
39,29,-9,-34,24,9,9,24,0,-19,39,-43
24,19,-4,-21,14,7,14,29,4,-9,29,-58
14,19,4,-17,4,12,19,29,9,-9,29,-63
4,19,14,-12,-4,17,24,29,14,-9,29,-78
-4,24,29,-9,-17,26,29,29,19,-9,29,-82
-4,19,24,-7,-14,21,39,29,19,-9,39,-68
0,14,14,-7,-7,14,39,29,19,-9,34,-68
-14,9,24,2,-19,17,39,29,19,-9,34,-78
-19,4,24,7,-21,14,34,29,19,-9,34,-78
-4,9,14,-2,-9,12,29,24,14,-14,43,-68
0,14,14,-7,-7,14,24,19,9,-19,48,-58
4,19,14,-12,-4,17,19,14,4,-24,48,-53
4,24,19,-14,-7,21,14,9,0,-29,48,-48
14,19,4,-17,4,12,4,4,-4,-39,43,-43
19,14,-4,-17,12,4,4,4,-9,-34,48,-43
19,9,-9,-14,14,0,4,0,-9,-34,48,-43
14,0,-14,-7,14,-7,4,-4,-14,-34,48,-43
9,4,-4,-7,7,0,9,-4,-9,-24,53,-43
4,9,4,-7,0,7,14,0,-9,-24,48,-43
-4,14,19,-4,-12,17,19,4,-9,-39,48,-48
-9,14,24,-2,-17,19,24,9,-4,-39,39,-53
4,4,0,-4,2,2,19,9,-9,-48,24,-58
24,9,-14,-17,19,-2,19,0,-9,-48,24,-63
29,9,-19,-19,24,-4,24,0,-9,-48,19,-68
34,14,-19,-24,26,-2,24,0,-9,-48,14,-73
19,4,-14,-12,17,-4,24,0,0,-48,24,-63
9,4,-4,-7,7,0,24,0,0,-48,24,-58
4,4,0,-4,2,2,24,0,-4,-48,24,-53
0,4,4,-2,-2,4,24,0,-4,-48,24,-43
9,-9,-19,0,14,-14,19,0,-14,-48,34,-43
4,-9,-14,2,9,-12,19,-4,-19,-48,29,-43
0,-9,-9,4,4,-9,24,-9,-24,-48,24,-43
-4,-9,-4,7,0,-7,24,-9,-24,-53,24,-43
4,-4,-9,0,7,-7,24,-9,-34,-63,19,-48
4,0,-4,-2,4,-2,19,-9,-34,-68,9,-63
4,4,0,-4,2,2,14,-9,-34,-68,4,-68
9,14,4,-12,2,9,9,-9,-34,-73,9,-68
4,14,9,-9,-2,12,14,-19,-39,-73,19,-68
4,24,19,-14,-7,21,14,-19,-39,-73,9,-68
0,24,24,-12,-12,24,14,-19,-39,-73,9,-68
-9,29,39,-9,-24,34,14,-19,-39,-73,9,-68
-9,19,29,-4,-19,24,24,-24,-29,-82,0,-63
-29,24,53,2,-41,39,29,-9,-19,-63,9,-58
-19,39,58,-9,-39,48,19,0,-9,-48,29,-39
-9,48,58,-19,-34,53,29,0,0,-39,39,-34
-9,48,58,-19,-34,53,29,0,0,-39,39,-29
-9,48,58,-19,-34,53,29,0,0,-39,39,-24
-9,48,58,-19,-34,53,29,0,0,-39,39,-19
19,48,29,-34,-4,39,29,-9,0,-43,29,-29
29,48,19,-39,4,34,19,-9,0,-48,34,-29
39,48,9,-43,14,29,19,-4,-4,-53,34,-24
53,48,-4,-51,29,21,14,-4,-4,-58,34,-24
43,53,9,-48,17,31,14,-4,-4,-48,34,-24
39,53,14,-46,12,34,4,-4,-4,-48,34,-24
29,53,24,-41,2,39,4,-4,-4,-53,34,-29
24,73,48,-48,-12,61,0,-9,-14,-53,34,-29
34,82,48,-58,-7,65,-9,-24,-19,-58,29,-34
34,92,58,-63,-12,75,-24,-34,-24,-63,24,-29
34,102,68,-68,-17,85,-34,-43,-24,-68,24,-29
48,117,68,-82,-9,92,-48,-43,-19,-63,24,-14
73,112,39,-92,17,75,-63,-43,-9,-53,39,14
78,112,34,-95,21,73,-78,-39,-9,-48,53,24
82,102,19,-92,31,61,-78,-29,-4,-39,68,39
97,102,4,-100,46,53,-78,-19,0,-29,87,53
107,97,-9,-102,58,43,-82,-14,-4,-29,78,39
107,97,-9,-102,58,43,-82,-14,-4,-34,73,24
107,87,-19,-97,63,34,-73,-14,-4,-39,68,9
107,82,-24,-95,65,29,-63,-14,-4,-43,63,-4
92,63,-29,-78,61,17,-43,4,0,-24,68,9
87,63,-24,-75,56,19,-34,9,9,-24,68,14
82,53,-29,-68,56,12,-24,9,9,-24,68,19
73,53,-19,-63,46,17,-24,4,0,-29,58,19
73,34,-39,-53,56,-2,-29,0,-14,-34,58,24
73,29,-43,-51,58,-7,-29,-14,-39,-63,48,14
73,19,-53,-46,63,-17,-29,-24,-48,-78,43,9
78,0,-78,-39,78,-39,-29,-34,-48,-87,39,4
58,-9,-68,-24,63,-39,-19,-34,-63,-97,24,-9
29,-14,-43,-7,36,-29,-19,-39,-68,-102,19,-19
4,-14,-19,4,12,-17,-9,-39,-68,-112,9,-34
-9,-19,-9,14,0,-14,-4,-39,-68,-117,0,-53
-9,-19,-9,14,0,-14,-4,-48,-78,-117,-4,-63
-9,-19,-9,14,0,-14,0,-43,-78,-112,-4,-63
0,-19,-19,9,9,-19,4,-43,-73,-112,-9,-58
-4,-19,-14,12,4,-17,4,-39,-73,-112,-14,-58
-4,-29,-24,17,9,-26,0,-39,-78,-122,-14,-58
-4,-29,-24,17,9,-26,4,-43,-82,-122,-19,-58
0,-39,-39,19,19,-39,9,-43,-82,-126,-24,-73
-4,-53,-48,29,21,-51,14,-53,-87,-136,-39,-78
-24,-53,-29,39,2,-41,24,-53,-97,-146,-48,-97
-43,-53,-9,48,-17,-31,34,-53,-97,-161,-63,-107
-58,-63,-4,61,-26,-34,43,-53,-97,-165,-68,-112
-73,-63,9,68,-41,-26,53,-53,-97,-175,-82,-126
-68,-73,-4,70,-31,-39,53,-53,-97,-165,-78,-117
-63,-73,-9,68,-26,-41,53,-53,-97,-165,-68,-102
-53,-73,-19,63,-17,-46,53,-58,-107,-170,-63,-92
-39,-73,-34,56,-2,-53,43,-58,-112,-170,-63,-82
-39,-63,-24,51,-7,-43,34,-48,-102,-161,-58,-73
-43,-63,-19,53,-12,-41,34,-48,-97,-161,-53,-73
-53,-68,-14,61,-19,-41,39,-48,-92,-161,-48,-73
-58,-68,-9,63,-24,-39,39,-48,-92,-161,-43,-73
-87,-58,29,73,-58,-14,53,-34,-102,-170,-58,-82
-97,-53,43,75,-70,-4,53,-34,-102,-170,-68,-97
-107,-53,53,80,-80,0,53,-34,-102,-175,-73,-107
-112,-53,58,82,-85,2,53,-34,-102,-175,-78,-117
-92,-58,34,75,-63,-12,53,-53,-112,-180,-92,-122
-73,-58,14,65,-43,-21,53,-53,-117,-185,-97,-126
-58,-63,-4,61,-26,-34,53,-48,-117,-190,-102,-131
-48,-68,-19,58,-14,-43,58,-43,-112,-190,-107,-136
-58,-73,-14,65,-21,-43,48,-43,-107,-175,-87,-122
-63,-68,-4,65,-29,-36,48,-43,-102,-170,-82,-112
-73,-63,9,68,-41,-26,48,-39,-92,-161,-78,-102
-78,-58,19,68,-48,-19,53,-39,-87,-156,-68,-92
-82,-58,24,70,-53,-17,58,-39,-87,-165,-58,-82
-82,-63,19,73,-51,-21,63,-39,-87,-161,-58,-82
-87,-68,19,78,-53,-24,68,-39,-87,-161,-58,-87
-97,-73,24,85,-61,-24,73,-39,-87,-161,-58,-87
-92,-68,24,80,-58,-21,73,-43,-97,-170,-58,-87
-82,-68,14,75,-48,-26,73,-43,-97,-180,-63,-92
-63,-68,-4,65,-29,-36,68,-43,-97,-180,-63,-92
-53,-68,-14,61,-19,-41,68,-43,-97,-180,-63,-97
-68,-48,19,58,-43,-14,58,-48,-97,-175,-63,-97
-87,-68,19,78,-53,-24,58,-58,-97,-180,-87,-122
-82,-58,24,70,-53,-17,73,-29,-82,-161,-73,-126
-73,-43,29,58,-51,-7,78,-4,-53,-136,-63,-122
-82,-48,34,65,-58,-7,82,4,-39,-126,-58,-117
-107,-58,48,82,-78,-4,92,24,-4,-97,-29,-97
-126,-48,78,87,-102,14,107,53,43,-58,0,-78
-97,-24,73,61,-85,24,107,73,92,-4,39,-58
-58,-9,48,34,-53,19,92,92,141,63,97,-14
-29,-4,24,17,-26,9,73,107,195,136,156,34
0,24,24,-12,-12,24,53,141,248,229,253,117
29,63,34,-46,-2,48,29,151,302,341,390,244
63,92,29,-78,17,61,-4,126,326,419,497,356
151,112,-39,-131,95,36,-58,78,287,453,585,444
283,146,-136,-214,209,4,-136,14,244,502,712,575
414,170,-244,-292,329,-36,-244,-48,200,575,854,732
536,161,-375,-348,456,-107,-356,-141,117,585,941,829
605,141,-463,-373,534,-161,-444,-244,-34,527,941,863
653,141,-512,-397,583,-185,-492,-312,-156,453,902,858
683,131,-551,-407,617,-209,-551,-380,-278,331,805,824
683,122,-561,-402,622,-219,-585,-488,-414,151,649,727
649,156,-492,-402,570,-168,-624,-610,-551,-29,453,580
541,190,-351,-366,446,-80,-639,-751,-712,-278,195,366
414,175,-239,-295,326,-31,-649,-932,-932,-580,-122,92
322,170,-151,-246,236,9,-649,-1102,-1161,-868,-409,-151
214,175,-39,-195,126,68,-653,-1263,-1405,-1112,-619,-307
82,156,73,-119,4,114,-634,-1376,-1581,-1322,-790,-429
-14,141,156,-63,-85,148,-619,-1385,-1634,-1381,-849,-497
-43,131,175,-43,-109,153,-605,-1346,-1605,-1342,-810,-468
-68,112,180,-21,-124,146,-566,-1288,-1546,-1307,-780,-439
-97,82,180,7,-139,131,-497,-1200,-1478,-1288,-771,-439
-136,43,180,46,-158,112,-434,-1107,-1410,-1254,-756,-439
-151,34,185,58,-168,109,-385,-1029,-1337,-1200,-732,-429
-126,43,170,41,-148,107,-336,-941,-1234,-1117,-697,-419
-141,43,185,48,-163,114,-283,-849,-1107,-1029,-653,-405
-161,39,200,61,-180,119,-258,-751,-976,-932,-590,-385
-165,39,204,63,-185,122,-234,-653,-858,-824,-527,-356
-141,39,180,51,-161,109,-200,-570,-751,-736,-468,-326
-126,29,156,48,-141,92,-165,-488,-668,-673,-414,-312
-122,9,131,56,-126,70,-117,-419,-605,-629,-390,-292
-131,19,151,56,-141,85,-87,-366,-531,-570,-351,-283
-126,34,161,46,-143,97,-68,-322,-458,-497,-302,-253
-141,34,175,53,-158,104,-58,-287,-385,-434,-268,-239
-170,24,195,73,-183,109,-39,-253,-336,-375,-234,-219
-180,24,204,78,-192,114,-4,-224,-287,-336,-195,-190
-165,9,175,78,-170,92,9,-195,-248,-307,-170,-175
-146,-9,136,78,-141,63,14,-151,-219,-292,-151,-161
-131,-24,107,78,-119,41,29,-122,-200,-278,-131,-141
-131,-39,92,85,-112,26,48,-92,-170,-258,-122,-136
-146,-48,97,97,-122,24,68,-58,-141,-239,-112,-131
-126,-53,73,90,-100,9,78,-53,-131,-234,-131,-146
-92,-58,34,75,-63,-12,78,-53,-126,-234,-141,-151
-122,-63,58,92,-90,-2,97,-29,-87,-200,-122,-136
-136,-68,68,102,-102,0,107,-14,-82,-185,-117,-141
-131,-68,63,100,-97,-2,112,-4,-78,-180,-107,-136
-126,-68,58,97,-92,-4,112,0,-63,-170,-97,-126
-131,-73,58,102,-95,-7,112,4,-58,-170,-97,-126
-112,-82,29,97,-70,-26,107,9,-43,-156,-82,-112
-112,-92,19,102,-65,-36,102,19,-34,-151,-78,-112
-112,-92,19,102,-65,-36,97,29,-24,-141,-68,-107
-126,-87,39,107,-82,-24,102,39,-14,-126,-53,-97
-126,-78,48,102,-87,-14,102,34,-4,-117,-63,-107
-102,-73,29,87,-65,-21,102,34,-4,-117,-68,-117
-87,-68,19,78,-53,-24,102,34,0,-117,-73,-122
-78,-63,14,70,-46,-24,102,34,4,-117,-68,-131
-87,-63,24,75,-56,-19,112,43,0,-117,-68,-122
-82,-63,19,73,-51,-21,112,43,4,-112,-68,-117
-78,-58,19,68,-48,-19,112,53,14,-107,-63,-112
-78,-58,19,68,-48,-19,112,63,24,-97,-53,-97
-92,-58,34,75,-63,-12,112,58,29,-87,-39,-82
-87,-63,24,75,-56,-19,112,68,34,-78,-34,-78
-92,-68,24,80,-58,-21,112,68,43,-78,-34,-78
-97,-73,24,85,-61,-24,112,73,48,-68,-24,-73
-82,-73,9,78,-46,-31,122,78,48,-68,-24,-73
-82,-73,9,78,-46,-31,122,82,58,-58,-24,-73
-82,-82,0,82,-41,-41,122,87,63,-53,-24,-73
-73,-82,-9,78,-31,-46,117,87,78,-39,-9,-58
-78,-87,-9,82,-34,-48,126,107,87,-24,0,-48
-82,-82,0,82,-41,-41,126,112,92,-9,14,-39
-87,-82,4,85,-46,-39,126,126,107,0,19,-29
-87,-82,4,85,-46,-39,126,136,126,4,29,-24
-68,-73,-4,70,-31,-39,117,126,126,-4,34,-29
-58,-63,-4,61,-26,-34,107,131,131,4,34,-34
-39,-53,-14,46,-12,-34,92,136,131,4,34,-29
-24,-48,-24,36,0,-36,82,126,126,14,43,-29
-29,-34,-4,31,-12,-19,82,131,136,19,39,-34
-34,-29,4,31,-19,-12,87,146,156,39,53,-24
-43,-24,19,34,-31,-2,97,165,170,53,58,-14
-68,-24,43,46,-56,9,102,175,185,68,63,-9
-43,-24,19,34,-31,-2,92,175,190,63,63,-14
-34,-24,9,29,-21,-7,92,180,204,78,68,-9
-34,-14,19,24,-26,2,92,180,224,92,78,-4
-24,-9,14,17,-19,2,92,185,239,102,82,0
-34,-19,14,26,-24,-2,92,209,244,122,102,14
-43,-24,19,34,-31,-2,92,209,258,136,117,19
-29,-19,9,24,-19,-4,97,209,273,146,131,19
-29,-19,9,24,-19,-4,97,219,278,156,136,34
-14,-24,-9,19,-2,-17,97,229,287,180,161,39
-9,-19,-9,14,0,-14,97,239,307,195,165,43
-4,-19,-14,12,4,-17,97,239,317,200,175,53
9,-14,-24,2,17,-19,92,244,322,214,190,63
9,-14,-24,2,17,-19,82,248,336,234,204,68
4,-14,-19,4,12,-17,78,253,346,244,209,68
0,-9,-9,4,4,-9,73,263,356,253,224,78
4,0,-4,-2,4,-2,63,268,356,258,224,82
24,9,-14,-17,19,-2,58,258,346,258,234,97
34,19,-14,-26,24,2,58,258,356,258,239,107
39,29,-9,-34,24,9,58,258,366,258,244,112
48,34,-14,-41,31,9,58,258,375,258,248,112
48,39,-9,-43,29,14,48,258,375,258,234,97
43,48,4,-46,19,26,48,258,375,258,229,92
43,53,9,-48,17,31,48,258,370,258,229,87
39,58,19,-48,9,39,48,248,366,258,229,82
24,63,39,-43,-7,51,53,248,366,253,239,102
24,58,34,-41,-4,46,53,248,361,253,239,102
19,53,34,-36,-7,43,58,244,356,253,239,102
14,53,39,-34,-12,46,63,244,356,253,239,107
24,63,39,-43,-7,51,58,234,341,244,234,117
24,63,39,-43,-7,51,53,229,336,239,229,117
29,58,29,-43,0,43,48,224,331,234,224,117
34,58,24,-46,4,41,43,224,326,229,224,107
34,53,19,-43,7,36,53,224,336,229,229,117
29,48,19,-39,4,34,53,229,331,234,234,126
29,43,14,-36,7,29,53,229,336,234,239,131
29,39,9,-34,9,24,53,224,336,234,244,141
29,53,24,-41,2,39,43,224,322,229,234,131
29,58,29,-43,0,43,43,219,317,229,229,126
29,63,34,-46,-2,48,43,214,302,224,219,122
29,68,39,-48,-4,53,39,204,297,209,214,117
29,63,34,-46,-2,48,39,195,297,204,204,112
24,58,34,-41,-4,46,43,185,278,195,200,107
14,58,43,-36,-14,51,48,185,273,185,195,107
9,58,48,-34,-19,53,53,170,258,175,190,102
4,58,53,-31,-24,56,53,165,248,180,195,107
4,58,53,-31,-24,56,48,165,239,175,190,107
4,58,53,-31,-24,56,48,161,234,170,185,107
-4,48,53,-21,-29,51,48,161,224,165,180,107
9,48,39,-29,-14,43,43,136,204,141,165,87
19,48,29,-34,-4,39,29,131,190,131,151,78
24,43,19,-34,2,31,24,117,165,107,136,68
29,43,14,-36,7,29,19,107,156,87,122,63
14,24,9,-19,2,17,24,102,151,87,126,73
29,14,-14,-21,21,0,29,97,146,87,131,78
19,4,-14,-12,17,-4,34,92,126,82,131,82
4,-4,-9,0,7,-7,39,92,126,78,126,92
-4,9,14,-2,-9,12,34,78,112,58,117,82
-4,24,29,-9,-17,26,29,63,97,39,97,63
-4,34,39,-14,-21,36,24,53,82,24,92,58
-4,48,53,-21,-29,51,19,43,68,14,73,43
-4,39,43,-17,-24,41,24,39,58,4,68,24
-9,29,39,-9,-24,34,29,34,48,-9,53,14
-14,19,34,-2,-24,26,34,29,43,-14,39,0
-14,0,14,7,-14,7,39,19,29,-34,24,-4
-29,-4,24,17,-26,9,43,19,19,-34,24,-4
-39,-4,34,21,-36,14,48,19,19,-39,14,-9
-58,-4,53,31,-56,24,53,19,14,-48,9,-14
-53,-9,43,31,-48,17,58,24,14,-53,9,-14
-43,-9,34,26,-39,12,43,4,0,-58,0,-4
-39,-9,29,24,-34,9,39,0,-4,-63,4,-4
-34,-9,24,21,-29,7,39,-4,-19,-63,9,-9
-29,-9,19,19,-24,4,34,-9,-24,-68,14,-9
-39,-4,34,21,-36,14,34,-9,-14,-68,4,-19
-48,-9,39,29,-43,14,43,-4,-14,-68,4,-19
-48,-9,39,29,-43,14,43,-4,-19,-73,-4,-19
-43,-9,34,26,-39,12,39,-4,-29,-78,-9,-24
-43,-9,34,26,-39,12,43,-4,-19,-73,-4,-19
-43,-9,34,26,-39,12,48,0,-14,-58,0,-14
-43,-9,34,26,-39,12,53,9,-4,-53,4,-9
-48,-9,39,29,-43,14,58,14,0,-58,9,-4
-43,-9,34,26,-39,12,53,0,-4,-63,0,-9
-34,-9,24,21,-29,7,48,0,-9,-68,0,-14
-24,-9,14,17,-19,2,43,0,-14,-73,0,-29
-14,-4,9,9,-12,2,39,0,-19,-78,0,-34
-14,0,14,7,-14,7,29,-4,-24,-82,-14,-43
-9,4,14,2,-12,9,29,-9,-29,-87,-24,-48
-24,9,34,7,-29,21,29,-14,-34,-92,-29,-63
-29,14,43,7,-36,29,24,-19,-39,-97,-34,-68
-29,0,29,14,-29,14,29,-9,-34,-87,-14,-43
-29,-4,24,17,-26,9,34,-9,-29,-78,0,-29
-29,-9,19,19,-24,4,39,-9,-24,-68,9,-19
-34,-14,19,24,-26,2,43,-9,-19,-58,19,-9
-43,-14,29,29,-36,7,53,0,-9,-48,24,-4
-39,-14,24,26,-31,4,53,4,-9,-43,29,-4
-39,-14,24,26,-31,4,53,4,-4,-43,29,-4
-43,-19,24,31,-34,2,53,4,-4,-43,29,-4
-34,-9,24,21,-29,7,53,0,-14,-58,9,-19
-34,-9,24,21,-29,7,53,0,-19,-63,0,-24
-39,-9,29,24,-34,9,53,0,-24,-82,-4,-34
-39,-14,24,26,-31,4,53,0,-24,-87,-19,-43
-48,4,53,21,-51,29,48,-9,-29,-87,-19,-43
-34,19,53,7,-43,36,48,-19,-29,-87,-14,-43
-34,29,63,2,-48,46,53,-19,-29,-87,-14,-43
-34,43,78,-4,-56,61,53,-19,-29,-87,-14,-43
-48,19,68,14,-58,43,63,-9,-19,-82,-9,-24
-58,4,63,26,-61,34,63,-9,-19,-78,-4,-19
-63,-9,53,36,-58,21,63,-9,-24,-73,0,-14
-68,-24,43,46,-56,9,63,-9,-24,-68,4,-4
-63,-19,43,41,-53,12,48,-19,-29,-78,-4,-14
-63,-19,43,41,-53,12,48,-24,-39,-87,-19,-24
-63,-19,43,41,-53,12,53,-29,-48,-97,-34,-34
-63,-19,43,41,-53,12,53,-29,-53,-112,-43,-43
-48,-19,29,34,-39,4,48,-29,-63,-112,-43,-43
-43,-19,24,31,-34,2,48,-29,-63,-107,-48,-53
-39,-19,19,29,-29,0,48,-29,-63,-97,-48,-53
-29,-14,14,21,-21,0,48,-29,-63,-92,-39,-48
-39,-4,34,21,-36,14,43,-39,-58,-82,-29,-34
-34,14,48,9,-41,31,43,-39,-58,-82,-29,-29
-34,24,58,4,-46,41,43,-39,-58,-82,-19,-24
-39,39,78,0,-58,58,43,-39,-58,-82,-9,-19
-29,48,78,-9,-53,63,53,-34,-58,-82,-9,-14
-39,34,73,2,-56,53,58,-29,-39,-73,0,0
-58,19,78,19,-68,48,68,-29,-39,-68,0,0
-48,9,58,19,-53,34,68,-19,-39,-82,-14,-14
-48,9,58,19,-53,34,68,-19,-39,-87,-19,-19
-48,9,58,19,-53,34,68,-19,-39,-92,-24,-24
-48,9,58,19,-53,34,68,-19,-39,-97,-29,-29
-48,29,78,9,-63,53,68,-29,-29,-92,-29,-43
-48,39,87,4,-68,63,58,-29,-29,-87,-24,-48
-48,48,97,0,-73,73,58,-24,-34,-82,-24,-48
-43,58,102,-7,-73,80,53,-24,-34,-78,-24,-53
-29,48,78,-9,-53,63,63,-14,-34,-82,-29,-39
-29,43,73,-7,-51,58,53,-14,-34,-87,-34,-34
-34,39,73,-2,-53,56,53,-14,-34,-97,-39,-34
-34,53,87,-9,-61,70,48,-19,-43,-102,-43,-29
-19,48,68,-14,-43,58,39,-43,-58,-97,-29,-14
-14,53,68,-19,-41,61,24,-53,-63,-92,-24,-9
-9,58,68,-24,-39,63,14,-63,-63,-87,-14,-9
9,68,58,-39,-24,63,0,-63,-58,-73,-4,4
9,97,87,-53,-39,92,-14,-73,-68,-73,-4,9
0,112,112,-56,-56,112,-29,-78,-68,-78,-4,4
-9,117,126,-53,-68,122,-29,-78,-63,-78,-4,4
-9,131,141,-61,-75,136,-29,-78,-58,-78,0,4
0,122,122,-61,-61,122,-34,-58,-48,-68,14,9
0,117,117,-58,-58,117,-34,-53,-43,-63,14,14
0,102,102,-51,-51,102,-24,-48,-39,-58,14,19
0,92,92,-46,-46,92,-14,-43,-34,-53,14,24
19,68,48,-43,-14,58,-4,-24,-39,-53,9,34
29,63,34,-46,-2,48,4,-19,-29,-53,9,34
39,48,9,-43,14,29,14,-19,-29,-53,9,34
43,43,0,-43,21,21,14,-24,-39,-58,0,29
34,19,-14,-26,24,2,14,-14,-43,-58,-9,29
24,19,-4,-21,14,7,19,-24,-68,-82,-19,14
14,14,0,-14,7,7,24,-29,-78,-92,-24,4
9,0,-9,-4,9,-4,29,-34,-78,-97,-29,-4
0,-9,-9,4,4,-9,39,-34,-73,-102,-29,-9
-19,-4,14,12,-17,4,39,-39,-78,-102,-29,-9
-34,4,39,14,-36,21,48,-39,-78,-107,-34,-14
-39,9,48,14,-43,29,53,-39,-78,-107,-39,-24
-34,4,39,14,-36,21,43,-48,-82,-112,-53,-34
-39,0,39,19,-39,19,48,-43,-87,-112,-53,-34
-34,-4,29,19,-31,12,53,-43,-87,-117,-58,-29
-43,-9,34,26,-39,12,53,-39,-92,-122,-63,-29
-48,-14,34,31,-41,9,58,-43,-107,-141,-73,-43
-53,-9,43,31,-48,17,63,-53,-112,-141,-78,-48
-53,-14,39,34,-46,12,68,-58,-112,-146,-82,-68
-63,-24,39,43,-51,7,73,-73,-117,-156,-97,-78
-73,-39,34,56,-53,-2,87,-58,-122,-146,-92,-78
-82,-53,29,68,-56,-12,92,-53,-117,-151,-92,-68
-87,-78,9,82,-48,-34,97,-48,-112,-146,-82,-53
-92,-92,0,92,-46,-46,102,-43,-107,-146,-82,-48
-97,-92,4,95,-51,-43,107,-43,-97,-146,-87,-58
-102,-92,9,97,-56,-41,112,-43,-97,-146,-87,-63
-102,-92,9,97,-56,-41,117,-48,-107,-151,-92,-73
-97,-92,4,95,-51,-43,112,-48,-112,-151,-102,-82
-92,-78,14,85,-53,-31,102,-48,-122,-161,-112,-82
-92,-73,19,82,-56,-26,102,-48,-117,-161,-112,-82
-97,-73,24,85,-61,-24,107,-48,-112,-161,-112,-82
-97,-68,29,82,-63,-19,107,-48,-112,-161,-112,-82
-117,-68,48,92,-82,-9,102,-43,-112,-161,-102,-78
-117,-63,53,90,-85,-4,102,-43,-112,-161,-107,-78
-117,-63,53,90,-85,-4,102,-43,-112,-165,-107,-73
-112,-63,48,87,-80,-7,102,-43,-112,-165,-107,-68
-117,-63,53,90,-85,-4,112,-53,-112,-156,-112,-82
-112,-58,53,85,-82,-2,112,-53,-117,-156,-117,-87
-112,-58,53,85,-82,-2,112,-48,-117,-156,-122,-92
-117,-58,58,87,-87,0,117,-43,-112,-151,-126,-97
-117,-78,39,97,-78,-19,112,-43,-122,-161,-122,-92
-112,-78,34,95,-73,-21,107,-43,-122,-161,-122,-92
-112,-78,34,95,-73,-21,102,-39,-117,-156,-122,-92
-107,-78,29,92,-68,-24,102,-39,-117,-156,-117,-92
-97,-63,34,80,-65,-14,107,-43,-126,-156,-117,-102
-92,-63,29,78,-61,-17,112,-48,-126,-151,-117,-102
-92,-63,29,78,-61,-17,117,-53,-126,-151,-117,-107
-97,-63,34,80,-65,-14,122,-58,-126,-151,-117,-107
-112,-58,53,85,-82,-2,122,-58,-112,-146,-102,-92
-122,-58,63,90,-92,2,122,-53,-107,-151,-102,-92
-122,-58,63,90,-92,2,117,-48,-102,-146,-97,-87
-131,-58,73,95,-102,7,117,-43,-97,-141,-92,-87
-136,-58,78,97,-107,9,136,-39,-97,-136,-102,-87
-117,-58,58,87,-87,0,126,-39,-87,-141,-107,-92
-102,-58,43,80,-73,-7,112,-39,-92,-141,-112,-97
-102,-53,48,78,-75,-2,117,-34,-82,-126,-112,-102
-112,-58,53,85,-82,-2,141,-14,-68,-107,-117,-97
-126,-58,68,92,-97,4,151,-4,-34,-87,-87,-87
-117,-48,68,82,-92,9,165,24,14,-39,-48,-68
-97,-43,53,70,-75,4,156,53,63,4,-19,-48
-78,-29,48,53,-63,9,161,82,131,73,39,-4
-68,-4,63,36,-65,29,151,117,195,165,117,53
-39,24,63,7,-51,43,122,131,248,258,224,136
39,73,34,-56,2,53,68,112,283,351,331,244
82,102,19,-92,31,61,34,78,287,429,448,356
112,122,9,-117,51,65,0,39,248,492,575,483
185,136,-48,-161,117,43,-78,-14,214,561,722,634
287,151,-136,-219,212,7,-185,-87,180,644,902,810
390,180,-209,-285,300,-14,-287,-161,97,692,1029,956
478,209,-268,-344,373,-29,-366,-234,4,673,1078,1029
536,219,-317,-378,427,-48,-434,-302,-97,600,1029,1044
556,219,-336,-387,446,-58,-483,-390,-229,478,932,990
546,219,-326,-383,436,-53,-536,-497,-385,307,766,883
531,244,-287,-387,409,-21,-575,-610,-522,97,541,707
473,248,-224,-361,348,12,-580,-712,-683,-170,263,483
356,214,-141,-285,248,36,-570,-844,-893,-473,-63,219
244,180,-63,-212,153,58,-580,-995,-1122,-771,-361,-14
156,165,9,-161,73,87,-595,-1156,-1366,-1044,-600,-200
43,136,92,-90,-24,114,-585,-1259,-1542,-1263,-800,-351
-4,92,97,-43,-51,95,-570,-1288,-1615,-1371,-907,-448
4,73,68,-39,-31,70,-536,-1268,-1605,-1351,-897,-458
-48,63,112,-7,-80,87,-488,-1200,-1527,-1298,-849,-429
-97,43,141,26,-119,92,-439,-1102,-1459,-1249,-829,-439
-87,24,112,31,-100,68,-395,-1029,-1390,-1224,-824,-448
-92,34,126,29,-109,80,-346,-951,-1298,-1171,-790,-439
-107,43,151,31,-129,97,-278,-863,-1166,-1068,-727,-409
-141,43,185,48,-163,114,-214,-751,-1029,-951,-683,-385
-170,19,190,75,-180,104,-180,-663,-917,-854,-639,-375
-156,29,185,63,-170,107,-156,-605,-819,-766,-585,-366
-141,58,200,41,-170,129,-122,-541,-741,-688,-527,-336
-146,58,204,43,-175,131,-87,-458,-658,-614,-473,-302
-161,39,200,61,-180,119,-68,-390,-585,-561,-409,-273
-180,19,200,80,-190,109,-48,-346,-512,-512,-370,-253
-185,24,209,80,-197,117,-19,-312,-439,-448,-341,-224
-170,53,224,58,-197,139,0,-278,-385,-395,-307,-200
-190,63,253,63,-222,158,9,-253,-336,-346,-283,-190
-180,53,234,63,-207,143,24,-234,-297,-307,-263,-170
-156,39,195,58,-175,117,39,-204,-268,-287,-248,-165
-146,0,146,73,-146,73,63,-180,-248,-273,-229,-170
-151,-24,126,87,-139,51,78,-151,-219,-248,-209,-151
-151,-39,112,95,-131,36,97,-112,-190,-239,-180,-136
-146,-48,97,97,-122,24,107,-78,-151,-209,-170,-122
-126,-63,63,95,-95,0,126,-63,-122,-195,-170,-126
-131,-68,63,100,-97,-2,136,-53,-97,-175,-170,-122
-170,-73,97,122,-134,12,156,-29,-78,-141,-151,-97
-180,-78,102,129,-141,12,165,-34,-82,-136,-156,-97
-170,-78,92,124,-131,7,170,-24,-78,-131,-146,-97
-161,-78,82,119,-122,2,170,-19,-63,-122,-136,-92
-161,-82,78,122,-119,-2,170,-14,-58,-122,-136,-97
-131,-68,63,100,-97,-2,161,-9,-53,-117,-136,-97
-122,-73,48,97,-85,-12,161,0,-43,-112,-136,-102
-112,-68,43,90,-78,-12,161,9,-34,-102,-131,-102
-117,-58,58,87,-87,0,170,19,-24,-87,-122,-97
-131,-53,78,92,-104,12,161,19,-24,-78,-122,-102
-122,-53,68,87,-95,7,161,14,-24,-78,-126,-107
-122,-53,68,87,-95,7,161,9,-19,-78,-131,-107
-126,-53,73,90,-100,9,161,4,-14,-78,-126,-112
-131,-43,87,87,-109,21,161,24,0,-68,-117,-107
-131,-43,87,87,-109,21,161,24,4,-63,-117,-107
-131,-39,92,85,-112,26,161,34,14,-58,-112,-107
-136,-39,97,87,-117,29,161,43,24,-48,-102,-97
-126,-43,82,85,-104,19,170,43,19,-48,-97,-87
-117,-43,73,80,-95,14,170,48,24,-39,-92,-78
-117,-43,73,80,-95,14,170,43,34,-39,-92,-73
-117,-43,73,80,-95,14,170,43,39,-29,-82,-63
-112,-39,73,75,-92,17,170,58,48,-19,-63,-48
-112,-43,68,78,-90,12,170,63,58,-9,-63,-43
-112,-58,53,85,-82,-2,170,68,63,-4,-63,-39
-102,-63,39,82,-70,-12,165,68,78,9,-48,-19
-92,-48,43,70,-68,-2,165,73,82,4,-53,-19
-92,-43,48,68,-70,2,165,73,82,19,-43,-19
-92,-43,48,68,-70,2,165,82,92,29,-43,-19
-87,-43,43,65,-65,0,165,87,107,34,-39,-24
-78,-39,39,58,-58,0,165,92,112,29,-34,-29
-78,-34,43,56,-61,4,165,102,122,43,-34,-34
-68,-29,39,48,-53,4,161,112,126,48,-34,-29
-63,-29,34,46,-48,2,161,107,126,63,-24,-29
-68,-14,53,41,-61,19,146,112,146,68,-24,-14
-63,-9,53,36,-58,21,146,126,165,87,-4,-4
-63,-4,58,34,-61,26,151,146,180,102,4,4
-78,-4,73,41,-75,34,151,156,195,117,14,9
-58,-4,53,31,-56,24,141,146,190,122,24,4
-43,-4,39,24,-41,17,141,151,204,136,29,9
-39,4,43,17,-41,24,141,151,224,151,39,14
-24,9,34,7,-29,21,141,156,239,161,43,19
-48,9,58,19,-53,34,141,185,263,190,63,39
-63,4,68,29,-65,36,141,190,278,204,78,48
-53,9,63,21,-58,36,146,195,292,214,92,53
-58,9,68,24,-63,39,146,209,297,224,97,73
-53,9,63,21,-58,36,136,204,302,234,112,68
-48,19,68,14,-58,43,136,209,317,244,117,73
-43,24,68,9,-56,46,136,204,322,244,126,82
-29,34,63,-2,-46,48,131,204,322,253,141,92
-24,24,48,0,-36,36,136,219,336,263,146,97
-24,24,48,0,-36,36,136,224,346,273,151,97
-24,29,53,-2,-39,41,136,234,356,283,165,107
-14,39,53,-12,-34,46,131,239,356,287,165,112
0,48,48,-24,-24,48,122,229,346,292,170,112
4,58,53,-31,-24,56,117,229,356,297,170,117
4,68,63,-36,-29,65,112,229,366,302,170,117
9,73,63,-41,-26,68,107,229,375,307,170,112
0,82,82,-41,-41,82,102,234,385,307,180,117
-4,87,92,-41,-48,90,107,239,385,307,180,122
-4,87,92,-41,-48,90,112,244,380,307,185,126
-9,87,97,-39,-53,92,117,239,375,307,190,131
0,87,87,-43,-43,87,107,239,385,322,195,151
4,87,82,-46,-39,85,102,239,380,322,200,151
4,87,82,-46,-39,85,102,234,375,322,204,151
4,92,87,-48,-41,90,102,234,375,322,209,156
4,102,97,-53,-46,100,102,234,370,322,204,156
4,102,97,-53,-46,100,102,229,366,317,200,156
9,97,87,-53,-39,92,102,224,361,312,195,156
14,97,82,-56,-34,90,102,224,356,307,195,146
14,107,92,-61,-39,100,102,219,361,302,185,146
9,107,97,-58,-43,102,102,219,351,302,185,146
9,107,97,-58,-43,102,102,214,351,297,185,141
9,107,97,-58,-43,102,102,204,346,292,185,141
19,102,82,-61,-31,92,102,204,331,278,170,136
19,97,78,-58,-29,87,102,200,326,278,170,136
19,92,73,-56,-26,82,102,195,312,273,165,136
19,87,68,-53,-24,78,97,185,307,258,165,136
24,73,48,-48,-12,61,92,175,297,244,161,122
24,68,43,-46,-9,56,92,165,278,234,151,117
19,68,48,-43,-14,58,92,165,273,224,141,117
19,68,48,-43,-14,58,92,151,258,214,131,112
14,78,63,-46,-24,70,92,146,248,209,136,126
14,78,63,-46,-24,70,87,146,239,204,131,126
14,78,63,-46,-24,70,87,141,234,200,126,126
4,68,63,-36,-29,65,87,141,224,195,122,126
9,73,63,-41,-26,68,87,126,224,195,122,122
19,78,58,-48,-19,68,78,122,209,190,112,117
24,78,53,-51,-14,65,78,107,185,170,102,112
29,82,53,-56,-12,68,78,97,175,156,92,112
9,78,68,-43,-29,73,78,97,161,141,92,102
19,73,53,-46,-17,63,78,87,156,136,92,97
4,68,63,-36,-29,65,78,78,136,126,87,92
-14,63,78,-24,-46,70,78,73,136,117,78,92
-24,63,87,-19,-56,75,78,78,117,117,73,97
-24,63,87,-19,-56,75,78,63,107,97,58,82
-24,58,82,-17,-53,70,78,53,97,82,58,82
-24,58,82,-17,-53,70,78,43,87,73,43,73
-24,58,82,-17,-53,70,87,48,87,68,53,68
-29,58,87,-14,-58,73,87,43,78,58,43,63
-34,58,92,-12,-63,75,87,39,73,58,34,53
-34,48,82,-7,-58,65,87,29,58,43,24,53
-29,43,73,-7,-51,58,82,19,39,29,4,39
-29,43,73,-7,-51,58,78,9,29,19,-4,29
-39,43,82,-2,-61,63,73,0,14,4,-9,19
-24,39,63,-7,-43,51,68,-4,4,-4,-9,14
-14,48,63,-17,-39,56,68,-9,4,0,-24,14
-19,48,68,-14,-43,58,68,-9,4,-4,-24,14
-24,48,73,-12,-48,61,73,-9,-4,-4,-24,9
-29,48,78,-9,-53,63,73,-9,-4,-9,-24,9
-19,34,53,-7,-36,43,82,-14,-4,-19,-34,9
-29,29,58,0,-43,43,92,-14,-4,-19,-34,9
-29,29,58,0,-43,43,92,-19,-9,-24,-43,9
-24,29,53,-2,-39,41,87,-24,-19,-29,-48,4
-24,29,53,-2,-39,41,87,-19,-24,-29,-48,-4
-24,29,53,-2,-39,41,87,-19,-24,-19,-48,-4
-24,29,53,-2,-39,41,87,-14,-19,-19,-48,-4
-29,29,58,0,-43,43,87,-14,-19,-29,-48,-4
-48,29,78,9,-63,53,87,-9,-19,-29,-48,-4
-53,29,82,12,-68,56,87,-9,-19,-29,-48,-4
-58,29,87,14,-73,58,87,-9,-19,-29,-48,-14
-63,34,97,14,-80,65,87,-9,-19,-29,-48,-14
-48,43,92,2,-70,68,82,-19,-29,-29,-39,-9
-29,43,73,-7,-51,58,78,-19,-29,-29,-43,-9
-29,43,73,-7,-51,58,73,-19,-29,-29,-43,-19
-19,43,63,-12,-41,53,63,-19,-29,-29,-43,-19
-19,53,73,-17,-46,63,73,-9,-24,-19,-34,-14
-19,53,73,-17,-46,63,73,-9,-19,-19,-29,-9
-19,53,73,-17,-46,63,73,-9,-14,-19,-29,-9
-24,53,78,-14,-51,65,73,-9,-9,-19,-29,-9
-34,48,82,-7,-58,65,78,0,0,-9,-14,-4
-39,43,82,-2,-61,63,82,4,0,-4,-9,-4
-48,39,87,4,-68,63,87,4,4,-4,-9,-4
-63,29,92,17,-78,61,92,4,4,-4,-9,-4
-48,29,78,9,-63,53,87,-4,0,-9,-19,-9
-34,29,63,2,-48,46,82,-9,-9,-14,-29,-14
-24,29,53,-2,-39,41,78,-14,-19,-34,-34,-24
-9,24,34,-7,-21,29,73,-19,-24,-39,-48,-34
-14,24,39,-4,-26,31,68,-9,-19,-29,-39,-24
-4,29,34,-12,-19,31,68,-19,-19,-29,-34,-24
-9,29,39,-9,-24,34,73,-19,-19,-29,-34,-24
-14,34,48,-9,-31,41,73,-19,-19,-29,-34,-24
-4,34,39,-14,-21,36,63,-19,-19,-19,-24,-19
-9,34,43,-12,-26,39,63,-19,-19,-19,-24,-19
-9,34,43,-12,-26,39,63,-19,-24,-19,-24,-19
-9,34,43,-12,-26,39,63,-19,-24,-19,-24,-14
0,39,39,-19,-19,39,68,-19,-24,-19,-14,-14
-4,39,43,-17,-24,41,68,-24,-29,-19,-19,-14
-9,39,48,-14,-29,43,73,-29,-34,-19,-24,-14
-14,39,53,-12,-34,46,73,-29,-34,-24,-24,-14
-29,29,58,0,-43,43,78,-19,-24,-29,-24,-4
-34,29,63,2,-48,46,78,-19,-24,-29,-29,-14
-39,29,68,4,-53,48,78,-19,-24,-24,-29,-14
-39,34,73,2,-56,53,78,-19,-24,-24,-19,-9
-29,43,73,-7,-51,58,63,-29,-29,-34,-19,-9
-24,53,78,-14,-51,65,63,-29,-29,-34,-29,-9
-24,53,78,-14,-51,65,63,-29,-29,-34,-29,-9
-29,58,87,-14,-58,73,63,-29,-29,-34,-29,-9
0,68,68,-34,-34,68,63,-24,-29,-24,-29,-4
-9,73,82,-31,-46,78,68,-29,-29,-24,-39,-9
-9,78,87,-34,-48,82,68,-29,-19,-19,-29,-9
-19,87,107,-34,-63,97,78,-19,-19,-9,-19,0
-19,87,107,-34,-63,97,78,-19,-19,-9,-19,0
-19,87,107,-34,-63,97,78,-19,-19,-9,-19,0
-19,87,107,-34,-63,97,78,-19,-19,-9,-19,0
-4,87,92,-41,-48,90,78,-9,-19,-19,-29,0
0,87,87,-43,-43,87,68,-9,-19,-19,-24,0
4,87,82,-46,-39,85,68,-4,-24,-19,-24,4
14,87,73,-51,-29,80,63,-4,-24,-19,-24,4
14,82,68,-48,-26,75,63,-9,-24,-19,-24,4
9,82,73,-46,-31,78,53,-14,-24,-19,-24,4
0,82,82,-41,-41,82,53,-19,-24,-24,-24,0
-4,102,107,-48,-56,104,48,-29,-34,-24,-24,0
-14,117,131,-51,-73,124,39,-34,-29,-14,-19,9
-14,131,146,-58,-80,139,24,-43,-34,-14,-14,19
-14,146,161,-65,-87,153,14,-53,-34,-14,-4,24
0,165,165,-82,-82,165,0,-53,-29,-4,4,43
34,161,126,-97,-46,143,-24,-68,-29,-9,0,43
48,161,112,-104,-31,136,-39,-68,-29,-9,4,43
63,151,87,-107,-12,119,-39,-63,-24,-4,9,48
87,151,63,-119,12,107,-39,-58,-19,0,19,53
92,136,43,-114,24,90,-29,-43,-19,14,24,43
87,126,39,-107,24,82,-24,-34,-14,14,24,43
82,107,24,-95,29,65,-9,-24,-9,14,24,43
78,92,14,-85,31,53,4,-14,-4,14,24,43
78,92,14,-85,31,53,4,4,0,24,29,53
78,92,14,-85,31,53,14,9,9,24,29,53
78,82,4,-80,36,43,24,9,9,24,29,53
73,82,9,-78,31,46,24,4,0,19,19,48
58,58,0,-58,29,29,9,-9,-29,-4,-4,39
53,58,4,-56,24,31,9,-24,-58,-34,-19,24
48,53,4,-51,21,29,9,-34,-73,-48,-29,14
48,39,-9,-43,29,14,9,-43,-78,-58,-39,4
53,29,-24,-41,39,2,19,-34,-78,-63,-39,0
39,24,-14,-31,26,4,19,-39,-78,-63,-39,0
29,24,-4,-26,17,9,29,-39,-73,-68,-43,-4
29,19,-9,-24,19,4,34,-39,-68,-68,-48,-14
29,19,-9,-24,19,4,29,-39,-68,-58,-48,-14
19,19,0,-19,9,9,39,-34,-68,-53,-43,-14
19,19,0,-19,9,9,48,-34,-63,-53,-43,-9
4,19,14,-12,-4,17,53,-29,-63,-53,-43,-9
-19,0,19,9,-19,9,68,-29,-68,-63,-43,-4
-34,0,34,17,-34,17,73,-34,-73,-63,-48,0
-43,-9,34,26,-39,12,78,-34,-73,-68,-53,-9
-63,-24,39,43,-51,7,82,-43,-78,-78,-68,-9
-48,-14,34,31,-41,9,78,-43,-87,-73,-73,-34
-53,-14,39,34,-46,12,82,-43,-87,-82,-82,-39
-53,-24,29,39,-41,2,87,-43,-87,-82,-82,-39
-53,-24,29,39,-41,2,92,-43,-87,-87,-92,-48
-68,-34,34,51,-51,0,92,-43,-87,-97,-92,-58
-73,-34,39,53,-56,2,92,-43,-87,-97,-87,-53
-73,-34,39,53,-56,2,92,-48,-97,-102,-87,-53
-68,-34,34,51,-51,0,82,-48,-102,-102,-92,-53
-73,-34,39,53,-56,2,92,-48,-102,-102,-92,-53
-73,-34,39,53,-56,2,92,-48,-97,-102,-92,-53
-78,-39,39,58,-58,0,97,-48,-92,-102,-92,-53
-78,-39,39,58,-58,0,97,-48,-92,-102,-92,-53
-73,-39,34,56,-53,-2,97,-43,-102,-102,-102,-63
-68,-34,34,51,-51,0,92,-43,-102,-102,-107,-68
-63,-34,29,48,-46,-2,87,-43,-102,-107,-107,-68
-53,-34,19,43,-36,-7,82,-43,-102,-107,-107,-68
-53,-34,19,43,-36,-7,92,-43,-97,-97,-97,-63
-53,-29,24,41,-39,-2,92,-43,-97,-97,-97,-58
-58,-29,29,43,-43,0,92,-39,-92,-97,-97,-53
-68,-29,39,48,-53,4,97,-34,-82,-92,-97,-48
-73,-34,39,53,-56,2,97,-43,-82,-92,-92,-43
-73,-29,43,51,-58,7,97,-43,-82,-92,-92,-43
-78,-24,53,51,-65,14,97,-39,-78,-87,-92,-43
-78,-19,58,48,-68,19,102,-39,-78,-87,-87,-43
-78,-24,53,51,-65,14,92,-29,-87,-97,-87,-43
-73,-24,48,48,-61,12,92,-29,-87,-92,-87,-43
-73,-24,48,48,-61,12,92,-29,-87,-92,-87,-48
-78,-24,53,51,-65,14,92,-29,-87,-92,-87,-48
-68,-19,48,43,-58,14,92,-43,-97,-92,-87,-58
-63,-19,43,41,-53,12,92,-43,-97,-102,-92,-63
-48,-19,29,34,-39,4,87,-43,-97,-102,-92,-63
-43,-19,24,31,-34,2,87,-43,-97,-102,-92,-68
-68,-9,58,39,-63,24,97,-29,-87,-87,-82,-58
-68,0,68,34,-68,34,97,-9,-68,-73,-78,-43
-43,0,43,21,-43,21,102,-9,-43,-63,-82,-48
-63,4,68,29,-65,36,117,4,-14,-39,-73,-43
-92,0,92,46,-92,46,141,43,39,-9,-39,-39
-97,9,107,43,-102,58,151,82,92,39,-9,-19
-68,39,107,14,-87,73,156,122,151,107,29,9
-39,63,102,-12,-70,82,146,161,219,180,107,58
-19,78,97,-29,-58,87,141,200,287,278,195,131
9,92,82,-51,-36,87,112,204,351,370,292,209
58,112,53,-85,2,82,53,170,366,453,390,283
126,131,4,-129,61,68,-9,102,322,497,468,361
248,161,-87,-204,168,36,-82,39,287,546,566,453
385,170,-214,-278,300,-21,-185,9,268,639,692,580
507,175,-331,-341,419,-78,-292,-43,224,727,829,712
610,180,-429,-395,519,-124,-409,-97,161,771,922,810
692,170,-522,-431,607,-175,-492,-141,87,751,951,858
761,170,-590,-466,675,-209,-561,-195,-24,663,893,844
810,170,-639,-490,724,-234,-619,-273,-175,512,805,800
839,209,-629,-524,734,-209,-717,-390,-346,312,658,736
819,219,-600,-519,710,-190,-790,-556,-541,73,453,610
717,204,-512,-461,614,-153,-819,-746,-766,-214,180,405
619,161,-458,-390,539,-148,-824,-907,-1005,-512,-107,180
541,136,-405,-339,473,-134,-834,-1078,-1254,-805,-356,-4
409,131,-278,-270,344,-73,-814,-1259,-1493,-1063,-546,-141
244,107,-136,-175,190,-14,-761,-1351,-1649,-1239,-688,-248
180,78,-102,-129,141,-12,-712,-1346,-1668,-1293,-751,-312
190,34,-156,-112,173,-61,-688,-1298,-1634,-1254,-732,-322
151,14,-136,-82,143,-61,-634,-1229,-1566,-1215,-712,-312
87,-14,-102,-36,95,-58,-566,-1161,-1488,-1190,-722,-331
58,-4,-63,-26,61,-34,-507,-1102,-1410,-1151,-712,-341
39,24,-14,-31,26,4,-444,-1000,-1283,-1049,-658,-322
14,43,29,-29,-7,36,-375,-883,-1141,-946,-605,-312
9,34,24,-21,-7,29,-326,-766,-1010,-854,-580,-302
-4,34,39,-14,-21,36,-273,-653,-873,-756,-517,-278
-34,48,82,-7,-58,65,-219,-546,-761,-658,-444,-248
-39,48,87,-4,-63,68,-175,-478,-673,-580,-400,-229
-43,39,82,2,-63,61,-151,-424,-595,-522,-370,-219
-78,48,126,14,-102,87,-117,-390,-522,-468,-326,-195
-92,68,161,12,-126,114,-87,-341,-448,-395,-283,-165
-82,68,151,7,-117,109,-58,-297,-385,-346,-253,-146
-97,63,161,17,-129,112,-29,-244,-331,-302,-244,-146
-131,63,195,34,-163,129,0,-200,-268,-268,-209,-131
-131,63,195,34,-163,129,19,-156,-229,-239,-185,-112
-102,43,146,29,-124,95,43,-126,-200,-229,-185,-112
-87,29,117,29,-102,73,48,-107,-190,-209,-170,-117
-87,19,107,34,-97,63,63,-112,-180,-195,-161,-112
-82,14,97,34,-90,56,78,-92,-151,-180,-151,-102
-112,9,122,51,-117,65,107,-53,-122,-151,-131,-97
-146,0,146,73,-146,73,117,-29,-82,-122,-122,-92
-117,4,122,56,-119,63,117,-4,-53,-107,-122,-87
-82,19,102,31,-92,61,126,14,-39,-87,-102,-82
-82,4,87,39,-85,46,136,29,-29,-73,-92,-68
-97,-4,92,51,-95,43,126,29,-29,-63,-92,-68
-92,-9,82,51,-87,36,131,34,-29,-63,-87,-68
-87,-14,73,51,-80,29,131,34,-19,-58,-82,-63
-92,-24,68,58,-80,21,131,34,-19,-63,-87,-68
-82,-19,63,51,-73,21,131,39,-4,-58,-87,-68
-82,-24,58,53,-70,17,131,48,4,-53,-87,-73
-82,-19,63,51,-73,21,131,58,14,-43,-82,-73
-97,-9,87,53,-92,39,141,68,24,-29,-73,-68
-107,-14,92,61,-100,39,141,82,34,-19,-58,-58
-92,-14,78,53,-85,31,141,82,34,-19,-58,-58
-87,-14,73,51,-80,29,141,82,39,-19,-58,-53
-87,-14,73,51,-80,29,141,82,43,-19,-48,-53
-73,-4,68,39,-70,31,141,82,48,-19,-58,-58
-63,-4,58,34,-61,26,141,82,53,-14,-58,-58
-53,0,53,26,-53,26,141,92,63,-9,-53,-58
-48,0,48,24,-48,24,141,102,73,0,-43,-48
-58,4,63,26,-61,34,141,97,78,9,-39,-43
-48,4,53,21,-51,29,141,107,82,19,-34,-39
-48,4,53,21,-51,29,141,107,92,19,-34,-39
-48,4,53,21,-51,29,141,112,97,29,-24,-34
-48,14,63,17,-56,39,141,126,107,39,-4,-24
-53,14,68,19,-61,41,141,131,117,48,-4,-24
-58,4,63,26,-61,34,141,136,122,53,-4,-24
-53,4,58,24,-56,31,136,136,136,68,9,-9
-63,9,73,26,-68,41,136,151,151,73,14,-4
-63,14,78,24,-70,46,136,151,151,87,24,0
-63,14,78,24,-70,46,136,161,161,97,24,4
-58,14,73,21,-65,43,136,165,175,102,29,4
-48,19,68,14,-58,43,136,165,185,97,29,4
-48,24,73,12,-61,48,136,180,200,112,34,4
-39,29,68,4,-53,48,131,195,209,117,39,14
-34,29,63,2,-48,46,131,195,214,131,53,19
-19,34,53,-7,-36,43,117,190,234,146,53,24
-14,39,53,-12,-34,46,117,204,253,165,73,34
-14,43,58,-14,-36,51,122,224,268,180,82,43
-29,43,73,-7,-51,58,122,234,283,195,92,48
-14,53,68,-19,-41,61,112,239,278,200,92,53
-4,53,58,-24,-31,56,112,248,292,214,97,58
-4,63,68,-29,-36,65,112,253,312,229,107,63
4,68,63,-36,-29,65,112,263,326,239,112,68
4,63,58,-34,-26,61,97,278,341,258,131,82
4,63,58,-34,-26,61,92,278,356,273,146,87
29,73,43,-51,-7,58,92,278,370,283,161,87
39,78,39,-58,0,58,87,287,375,292,165,102
39,78,39,-58,0,58,87,297,385,307,180,97
39,87,48,-63,-4,68,87,307,405,322,185,102
39,92,53,-65,-7,73,87,307,414,326,195,112
48,102,53,-75,-2,78,82,312,419,341,209,122
48,112,63,-80,-7,87,87,326,434,351,214,126
43,112,68,-78,-12,90,87,331,444,361,219,126
39,117,78,-78,-19,97,87,341,453,370,234,136
43,126,82,-85,-19,104,82,346,453,375,234,141
58,131,73,-95,-7,102,68,341,444,370,244,136
63,136,73,-100,-4,104,68,336,453,375,248,146
63,141,78,-102,-7,109,68,331,463,380,253,151
68,141,73,-104,-2,107,68,326,473,385,258,151
73,141,68,-107,2,104,58,326,463,375,248,151
73,146,73,-109,0,109,58,326,463,375,248,151
78,146,68,-112,4,107,58,326,458,375,253,151
78,146,68,-112,4,107,58,317,453,375,258,151
73,146,73,-109,0,109,58,317,444,370,248,151
73,146,73,-109,0,109,53,317,439,370,248,151
68,146,78,-107,-4,112,53,312,434,370,248,151
63,151,87,-107,-12,119,53,312,434,370,248,156
63,151,87,-107,-12,119,43,302,429,361,253,156
63,151,87,-107,-12,119,43,297,424,356,248,156
68,146,78,-107,-4,112,43,292,419,351,244,156
73,146,73,-109,0,109,43,292,414,346,244,146
73,156,82,-114,-4,119,43,287,409,341,244,151
68,156,87,-112,-9,122,43,287,400,341,244,156
68,156,87,-112,-9,122,43,283,400,336,244,156
68,156,87,-112,-9,122,43,273,395,331,244,161
58,146,87,-102,-14,117,43,263,380,326,239,156
58,146,87,-102,-14,117,43,258,375,326,239,156
58,146,87,-102,-14,117,43,253,361,322,234,156
58,146,87,-102,-14,117,39,244,356,307,234,156
68,141,73,-104,-2,107,24,224,336,292,229,141
73,136,63,-104,4,100,24,214,317,283,219,136
73,136,63,-104,4,100,24,214,312,273,209,136
78,136,58,-107,9,97,24,200,297,263,200,131
68,146,78,-107,-4,112,29,195,287,263,195,141
63,146,82,-104,-9,114,29,195,278,253,190,136
58,146,87,-102,-14,117,34,190,273,244,185,131
43,136,92,-90,-24,114,39,190,263,234,180,126
43,126,82,-85,-19,104,29,175,244,224,180,122
48,126,78,-87,-14,102,19,170,229,219,170,117
48,122,73,-85,-12,97,19,156,204,200,161,112
48,122,73,-85,-12,97,19,146,195,185,151,112
48,126,78,-87,-14,102,9,126,170,161,141,107
68,122,53,-95,7,87,9,117,165,156,141,97
63,117,53,-90,4,85,9,107,146,146,136,87
53,112,58,-82,-2,85,9,102,146,136,126,82
48,112,63,-80,-7,87,19,97,131,136,126,87
43,112,68,-78,-12,90,19,82,117,117,107,73
39,107,68,-73,-14,87,19,73,102,102,102,73
34,107,73,-70,-19,90,19,63,87,92,82,63
39,97,58,-68,-9,78,9,48,68,73,73,48
39,97,58,-68,-9,78,9,43,58,58,63,43
39,97,58,-68,-9,78,9,39,53,53,53,34
43,87,43,-65,0,65,9,29,39,34,43,34
34,82,48,-58,-7,65,9,24,24,34,34,39
29,82,53,-56,-12,68,9,19,19,29,24,29
14,82,68,-48,-26,75,9,14,9,19,19,19
24,78,53,-51,-14,65,9,14,4,14,19,14
34,87,53,-61,-9,70,9,9,4,9,14,14
29,87,58,-58,-14,73,9,9,4,4,14,14
24,87,63,-56,-19,75,14,9,-4,4,14,9
19,87,68,-53,-24,78,14,9,-4,0,14,9
19,82,63,-51,-21,73,14,4,-14,0,4,9
9,78,68,-43,-29,73,24,4,-14,0,4,9
9,78,68,-43,-29,73,24,0,-19,-4,-4,9
14,78,63,-46,-24,70,19,-4,-29,-9,-9,4
9,68,58,-39,-24,63,19,0,-19,-19,0,4
4,68,63,-36,-29,65,19,0,-14,-9,0,4
0,68,68,-34,-34,68,19,4,-4,-9,0,4
-9,68,78,-29,-43,73,19,4,0,-19,0,4
0,78,78,-39,-39,78,9,9,-9,-9,-9,4
4,78,73,-41,-34,75,9,9,-9,-9,-9,4
9,78,68,-43,-29,73,9,9,-9,-9,-9,-4
14,82,68,-48,-26,75,9,9,-9,-9,-9,-4
4,73,68,-39,-31,70,19,9,0,-9,0,9
9,73,63,-41,-26,68,19,9,0,-9,-4,9
-4,73,78,-34,-41,75,19,9,0,-9,-4,0
-9,73,82,-31,-46,78,14,9,0,-9,-4,0
0,73,73,-36,-36,73,14,9,-9,0,-4,4
0,73,73,-36,-36,73,14,9,-9,0,0,9
0,73,73,-36,-36,73,14,9,-9,0,0,9
-4,73,78,-34,-41,75,14,9,-9,0,0,9
-4,82,87,-39,-46,85,24,19,0,9,4,14
0,82,82,-41,-41,82,24,24,0,14,9,14
0,82,82,-41,-41,82,24,24,4,14,9,14
-4,78,82,-36,-43,80,24,24,4,14,9,14
-14,87,102,-36,-58,95,24,19,14,14,14,24
-14,87,102,-36,-58,95,24,19,9,14,9,24
-19,87,107,-34,-63,97,24,19,4,0,9,19
-19,82,102,-31,-61,92,24,19,4,0,0,14
-9,73,82,-31,-46,78,14,9,-9,-9,-9,4
14,78,63,-46,-24,70,9,0,-9,-9,-4,4
24,78,53,-51,-14,65,9,0,-9,-9,-4,4
34,82,48,-58,-7,65,4,0,-9,-9,-4,4
24,82,58,-53,-17,70,14,9,-9,-9,-4,0
19,82,63,-51,-21,73,14,9,-9,-9,-4,0
19,82,63,-51,-21,73,14,9,-14,-9,-4,0
19,82,63,-51,-21,73,14,9,-14,-9,-4,4
19,68,48,-43,-14,58,9,9,-24,-19,-4,4
14,68,53,-41,-19,61,9,4,-29,-19,-9,4
9,68,58,-39,-24,63,14,0,-34,-19,-14,4
4,68,63,-36,-29,65,14,0,-34,-24,-14,4
4,68,63,-36,-29,65,9,0,-34,-19,-24,14
4,68,63,-36,-29,65,9,0,-34,-19,-29,4
4,68,63,-36,-29,65,9,0,-34,-14,-29,4
9,73,63,-41,-26,68,9,0,-34,-14,-19,9
9,73,63,-41,-26,68,4,0,-29,-14,-9,0
14,82,68,-48,-26,75,4,0,-29,-14,-19,0
14,82,68,-48,-26,75,4,0,-29,-14,-19,0
9,87,78,-48,-34,82,4,0,-29,-14,-19,0
0,97,97,-48,-48,97,14,-4,-29,-14,-9,14
0,102,102,-51,-51,102,9,-19,-39,-14,-9,9
9,107,97,-58,-43,102,9,-19,-39,-19,-19,9
9,117,107,-63,-48,112,19,-14,-24,-9,-14,19
9,117,107,-63,-48,112,19,-9,-19,-9,-9,19
9,117,107,-63,-48,112,19,-4,-14,-9,-4,19
9,117,107,-63,-48,112,19,0,-9,-9,0,19
14,117,102,-65,-43,109,29,9,0,0,0,9
9,117,107,-63,-48,112,19,9,0,0,4,9
4,117,112,-61,-53,114,19,14,-4,0,4,14
4,117,112,-61,-53,114,14,14,-4,0,4,14
19,102,82,-61,-31,92,14,4,-14,0,-4,14
29,102,73,-65,-21,87,4,4,-14,0,-4,14
34,102,68,-68,-17,85,4,4,-14,-4,-4,9
43,122,78,-82,-17,100,0,0,-24,-4,-4,9
34,131,97,-82,-31,114,-19,-14,-29,-4,-4,14
34,141,107,-87,-36,124,-34,-24,-34,-4,-4,19
34,151,117,-92,-41,134,-43,-34,-34,-4,0,19
48,165,117,-107,-34,141,-58,-34,-29,4,4,34
68,180,112,-124,-21,146,-82,-39,-19,9,19,43
78,180,102,-129,-12,141,-97,-39,-19,9,24,43
87,170,82,-129,2,126,-97,-34,-14,14,29,48
107,170,63,-139,21,117,-97,-29,-9,19,39,53
126,161,34,-143,46,97,-102,-19,-19,24,43,53
126,156,29,-141,48,92,-102,-14,-14,24,43,53
126,141,14,-134,56,78,-92,-9,-9,24,43,53
126,131,4,-129,61,68,-82,-4,-4,24,43,53
126,122,-4,-124,65,58,-82,4,0,34,48,53
126,122,-4,-124,65,58,-73,9,9,34,48,53
126,112,-14,-119,70,48,-63,9,9,34,48,53
122,112,-9,-117,65,51,-63,4,0,29,39,48
107,97,-9,-102,58,43,-63,4,-14,24,24,39
102,97,-4,-100,53,46,-58,-4,-39,-4,9,24
97,92,-4,-95,51,43,-53,-9,-48,-19,0,14
97,78,-19,-87,58,29,-48,-14,-48,-29,-9,4
87,58,-29,-73,58,14,-39,-24,-63,-43,-19,0
68,53,-14,-61,41,19,-39,-29,-68,-43,-19,0
53,53,0,-53,26,26,-29,-29,-68,-48,-24,-4
48,48,0,-48,24,24,-24,-29,-68,-48,-29,-14
48,58,9,-53,19,34,-24,-29,-78,-48,-39,-14
48,58,9,-53,19,34,-19,-24,-78,-43,-34,-14
58,58,0,-58,29,29,-14,-24,-73,-43,-34,-9
53,58,4,-56,24,31,-14,-19,-73,-43,-34,-9
34,48,14,-41,9,31,0,-19,-68,-53,-34,-14
14,48,34,-31,-9,41,4,-24,-73,-53,-39,-9
0,39,39,-19,-19,39,9,-24,-73,-58,-43,-19
-24,24,48,0,-36,36,14,-34,-78,-68,-58,-19
-29,24,53,2,-41,39,19,-34,-87,-63,-63,-43
-43,24,68,9,-56,46,24,-34,-87,-73,-73,-48
-53,14,68,19,-61,41,29,-34,-87,-73,-73,-48
-63,14,78,24,-70,46,34,-34,-87,-78,-82,-58
-53,14,68,19,-61,41,34,-34,-87,-87,-82,-58
-53,14,68,19,-61,41,34,-34,-87,-87,-78,-53
-48,14,63,17,-56,39,34,-39,-97,-92,-78,-53
-39,14,53,12,-46,34,24,-39,-102,-92,-82,-53
-29,14,43,7,-36,29,14,-43,-112,-102,-87,-58
-24,14,39,4,-31,26,14,-48,-107,-102,-92,-63
-24,9,34,7,-29,21,19,-53,-102,-102,-97,-68
-19,9,29,4,-24,19,19,-58,-102,-102,-102,-73
-24,9,34,7,-29,21,14,-53,-112,-102,-102,-73
-19,14,34,2,-26,24,14,-53,-112,-102,-107,-78
-14,14,29,0,-21,21,14,-53,-112,-107,-107,-78
-4,14,19,-4,-12,17,14,-53,-112,-107,-107,-78
-19,14,34,2,-26,24,19,-58,-107,-97,-102,-68
-24,19,43,2,-34,31,24,-53,-107,-97,-97,-68
-34,19,53,7,-43,36,29,-43,-102,-97,-92,-68
-48,19,68,14,-58,43,39,-34,-92,-92,-87,-68
-53,19,73,17,-63,46,39,-43,-92,-92,-92,-63
-53,19,73,17,-63,46,39,-43,-92,-92,-92,-63
-58,19,78,19,-68,48,39,-39,-87,-87,-92,-63
-58,19,78,19,-68,48,43,-39,-87,-87,-87,-63
-39,24,63,7,-51,43,34,-48,-97,-87,-97,-63
-24,24,48,0,-36,36,34,-48,-97,-82,-97,-63
-14,24,39,-4,-26,31,34,-48,-97,-82,-97,-68
-9,24,34,-7,-21,29,34,-48,-97,-82,-97,-68
-29,19,48,4,-39,34,39,-39,-92,-73,-82,-63
-43,19,63,12,-53,41,43,-34,-87,-82,-82,-63
-48,19,68,14,-58,43,43,-29,-82,-82,-78,-58
-63,19,82,21,-73,51,48,-24,-78,-82,-73,-58
-97,19,117,39,-107,68,48,-29,-68,-68,-73,-48
-58,19,78,19,-68,48,39,-39,-78,-73,-87,-63
-63,9,73,26,-68,41,53,-29,-82,-73,-82,-68
-92,14,107,39,-100,61,58,-14,-53,-58,-73,-53
-73,29,102,21,-87,65,63,4,-9,-29,-58,-58
-48,48,97,0,-73,73,73,34,34,0,-39,-58
-48,58,107,-4,-78,82,87,73,82,39,-19,-39
-48,73,122,-12,-85,97,87,122,151,102,29,-9
-29,87,117,-29,-73,102,82,151,219,190,97,43
0,102,102,-51,-51,102,73,165,273,263,165,102
48,122,73,-85,-12,97,43,190,326,366,273,185
117,151,34,-134,41,92,0,190,380,488,400,292
209,180,-29,-195,119,75,-63,126,366,556,507,375
307,200,-107,-253,207,46,-136,58,317,590,585,444
419,214,-204,-317,312,4,-224,14,292,668,712,556
541,229,-312,-385,427,-41,-331,-48,219,741,854,702
624,229,-395,-427,509,-82,-434,-141,117,771,951,829
663,219,-444,-441,553,-112,-512,-214,14,761,990,893
751,209,-541,-480,646,-165,-580,-283,-107,678,951,878
839,209,-629,-524,734,-209,-668,-390,-278,507,834,814
897,239,-658,-568,778,-209,-771,-517,-453,307,678,736
863,253,-610,-558,736,-178,-849,-668,-649,78,483,629
785,239,-546,-512,666,-153,-883,-839,-868,-219,204,434
717,204,-512,-461,614,-153,-883,-1000,-1117,-541,-112,190
614,170,-444,-392,529,-136,-883,-1161,-1366,-849,-390,-14
409,126,-283,-268,346,-78,-849,-1332,-1620,-1141,-610,-170
239,97,-141,-168,190,-21,-790,-1454,-1815,-1361,-780,-312
180,73,-107,-126,143,-17,-727,-1464,-1859,-1439,-868,-400
141,34,-107,-87,124,-36,-692,-1424,-1820,-1420,-868,-409
126,-4,-131,-61,129,-68,-653,-1356,-1761,-1385,-849,-400
126,-24,-151,-51,139,-87,-585,-1288,-1683,-1356,-858,-419
97,-14,-112,-41,104,-63,-522,-1185,-1556,-1293,-834,-419
63,14,-48,-39,56,-17,-492,-1078,-1424,-1200,-780,-400
39,34,-4,-36,21,14,-453,-980,-1302,-1088,-736,-390
-4,34,39,-14,-21,36,-390,-868,-1156,-971,-673,-366
-43,29,73,7,-58,51,-326,-741,-1005,-844,-600,-336
-58,29,87,14,-73,58,-273,-634,-878,-736,-536,-307
-82,39,122,21,-102,80,-229,-551,-771,-649,-468,-268
-87,48,136,19,-112,92,-185,-497,-658,-566,-405,-234
-63,58,122,2,-92,90,-156,-439,-566,-502,-361,-214
-63,58,122,2,-92,90,-126,-375,-483,-444,-331,-195
-97,53,151,21,-124,102,-97,-322,-419,-390,-302,-175
-131,73,204,29,-168,139,-68,-278,-375,-336,-278,-161
-122,82,204,19,-163,143,-39,-234,-326,-287,-253,-151
-131,73,204,29,-168,139,-14,-195,-278,-248,-224,-141
-136,58,195,39,-165,126,9,-146,-219,-209,-180,-117
-107,48,156,29,-131,102,24,-112,-190,-185,-161,-102
-73,43,117,14,-95,80,29,-102,-170,-180,-151,-112
-82,39,122,21,-102,80,39,-73,-141,-161,-151,-97
-97,29,126,34,-112,78,48,-48,-112,-131,-141,-92
-97,24,122,36,-109,73,48,-34,-102,-117,-141,-97
-82,29,112,26,-97,70,58,-24,-87,-107,-141,-92
-82,24,107,29,-95,65,68,-9,-68,-82,-131,-97
-82,9,92,36,-87,51,68,-4,-53,-78,-117,-92
-73,9,82,31,-78,46,73,4,-48,-73,-107,-87
-63,9,73,26,-68,41,73,9,-34,-63,-97,-78
-63,4,68,29,-65,36,73,14,-29,-63,-97,-78
-53,14,68,19,-61,41,73,19,-24,-58,-107,-78
-53,4,58,24,-56,31,73,29,-14,-53,-107,-82
-53,4,58,24,-56,31,73,39,-4,-43,-102,-82
-68,9,78,29,-73,43,82,48,4,-29,-92,-78
-87,14,102,36,-95,58,92,63,24,-9,-82,-73
-73,14,87,29,-80,51,92,63,24,-9,-78,-68
-68,14,82,26,-75,48,92,63,29,-9,-73,-58
-68,14,82,26,-75,48,92,63,34,-9,-58,-53
-68,24,92,21,-80,58,82,73,39,0,-68,-58
-63,24,87,19,-75,56,82,73,43,4,-68,-58
-58,29,87,14,-73,58,82,82,53,9,-63,-58
-58,29,87,14,-73,58,82,92,63,19,-53,-48
-48,24,73,12,-61,48,82,87,68,39,-39,-43
-39,24,63,7,-51,43,82,97,73,48,-34,-39
-39,24,63,7,-51,43,82,97,82,48,-34,-39
-39,24,63,7,-51,43,82,102,87,58,-24,-34
-43,34,78,4,-61,56,82,117,107,68,-4,-24
-43,34,78,4,-61,56,82,122,117,78,-4,-24
-43,24,68,9,-56,46,82,126,122,82,-4,-24
-34,24,58,4,-46,41,78,126,136,97,9,-9
-24,39,63,-7,-43,51,78,131,141,92,4,-14
-24,43,68,-9,-46,56,78,131,141,107,14,-9
-24,43,68,-9,-46,56,78,141,151,117,14,-4
-19,43,63,-12,-41,53,78,146,165,122,19,-4
-19,39,58,-9,-39,48,68,156,185,126,29,4
-19,43,63,-12,-41,53,68,170,200,141,34,4
-9,48,58,-19,-34,53,63,185,209,146,39,14
-4,48,53,-21,-29,51,63,185,214,161,53,19
-9,53,63,-21,-36,58,68,190,224,175,53,24
-4,58,63,-26,-34,61,68,204,244,195,73,34
-4,63,68,-29,-36,65,73,224,258,209,82,43
-19,63,82,-21,-51,73,73,234,273,224,92,48
-19,73,92,-26,-56,82,73,248,283,234,112,63
-14,73,87,-29,-51,80,73,258,302,253,117,68
-19,82,102,-31,-61,92,73,263,326,273,126,73
-14,87,102,-36,-58,95,73,273,346,287,131,78
-14,82,97,-34,-56,90,58,287,351,307,141,82
-14,82,97,-34,-56,90,53,287,366,322,156,87
9,92,82,-51,-36,87,53,287,380,331,170,87
19,97,78,-58,-29,87,48,297,385,341,175,102
39,97,58,-68,-9,78,39,297,395,346,180,97
48,107,58,-78,-4,82,39,307,414,361,185,102
58,112,53,-85,2,82,39,307,424,366,195,112
78,122,43,-100,17,82,34,312,429,380,209,122
73,131,58,-102,7,95,39,322,439,395,219,136
73,131,58,-102,7,95,39,331,453,409,229,136
73,136,63,-104,4,100,39,346,468,424,248,146
82,146,63,-114,9,104,34,356,473,434,253,151
92,141,48,-117,21,95,29,346,473,439,263,146
92,146,53,-119,19,100,29,346,483,444,268,156
87,151,63,-119,12,107,29,346,492,448,273,161
87,151,63,-119,12,107,29,346,502,453,278,161
102,151,48,-126,26,100,19,356,492,453,278,161
102,156,53,-129,24,104,19,356,492,453,278,161
107,156,48,-131,29,102,19,356,488,453,283,161
107,156,48,-131,29,102,19,346,483,453,287,161
102,175,73,-139,14,124,29,356,488,468,287,180
102,175,73,-139,14,124,24,356,488,468,287,180
97,175,78,-136,9,126,24,351,488,468,287,180
92,180,87,-136,2,134,24,351,492,468,287,185
87,170,82,-129,2,126,24,351,497,458,292,175
82,170,87,-126,-2,129,24,346,492,453,287,175
82,165,82,-124,0,124,24,341,488,448,283,175
82,165,82,-124,0,124,24,341,483,444,283,165
82,165,82,-124,0,124,24,336,478,439,273,165
78,165,87,-122,-4,126,24,336,468,439,273,165
78,165,87,-122,-4,126,24,331,468,434,273,161
78,165,87,-122,-4,126,24,322,463,429,273,161
68,165,97,-117,-14,131,14,322,448,424,268,175
68,165,97,-117,-14,131,14,317,444,424,268,175
68,165,97,-117,-14,131,14,312,429,419,263,175
68,165,97,-117,-14,131,9,302,424,405,263,175
73,170,97,-122,-12,134,9,292,414,400,253,165
73,165,92,-119,-9,129,14,283,395,390,248,156
68,165,97,-117,-14,131,19,283,390,380,244,151
68,165,97,-117,-14,131,24,268,375,370,239,141
87,156,68,-122,9,112,19,253,356,356,219,131
92,156,63,-124,14,109,9,244,336,341,209,126
97,156,58,-126,19,107,4,229,322,326,200,122
92,146,53,-119,19,100,0,219,302,312,190,117
97,146,48,-122,24,97,-9,200,287,297,180,102
107,146,39,-126,34,92,-19,190,268,287,170,97
112,141,29,-126,41,85,-19,170,239,263,161,92
117,141,24,-129,46,82,-19,156,224,244,151,92
92,146,53,-119,19,100,-9,151,219,239,161,102
97,141,43,-119,26,92,-9,146,214,234,161,97
78,136,58,-107,9,97,-9,141,195,224,156,92
53,131,78,-92,-12,104,-9,141,195,214,146,92
43,126,82,-85,-19,104,-9,136,170,204,136,97
43,122,78,-82,-17,100,-9,122,156,185,117,82
43,112,68,-78,-12,90,-9,112,141,170,112,82
43,107,63,-75,-9,85,-9,102,126,161,92,73
34,107,73,-70,-19,90,0,87,107,161,92,68
29,107,78,-68,-24,92,0,82,97,146,82,63
24,107,82,-65,-29,95,0,78,92,141,73,53
24,97,73,-61,-24,85,0,68,78,122,63,53
29,102,73,-65,-21,87,-9,63,73,102,53,48
29,102,73,-65,-21,87,-9,58,68,97,43,39
19,102,82,-61,-31,92,-9,53,58,87,39,29
34,97,63,-65,-14,80,-9,53,53,82,39,24
24,87,63,-56,-19,75,-4,39,34,68,24,24
19,87,68,-53,-24,78,0,39,34,63,24,24
14,87,73,-51,-29,80,9,39,24,63,24,19
9,87,78,-48,-34,82,14,39,24,58,24,19
4,92,87,-48,-41,90,14,43,34,58,24,19
-9,87,97,-39,-53,92,24,43,34,58,24,19
-14,87,102,-36,-58,95,24,39,29,53,14,19
-14,87,102,-36,-58,95,19,34,19,48,9,14
14,87,73,-51,-29,80,4,24,0,39,0,-9
24,87,63,-56,-19,75,0,19,-4,39,-9,-14
34,87,53,-61,-9,70,-4,19,-4,29,-19,-19
39,87,48,-63,-4,68,-9,14,-9,9,-29,-24
24,78,53,-51,-14,65,0,9,-9,19,-19,-19
24,78,53,-51,-14,65,0,9,-9,19,-19,-14
24,78,53,-51,-14,65,0,9,-9,19,-19,-19
24,82,58,-53,-17,70,0,9,-9,19,-19,-14
19,82,63,-51,-21,73,0,9,-9,19,-29,-19
29,82,53,-56,-12,68,0,9,-9,19,-34,-19
19,82,63,-51,-21,73,0,9,-9,19,-34,-29
19,82,63,-51,-21,73,-4,9,-9,19,-34,-29
14,92,78,-53,-31,85,0,19,0,19,-24,-24
9,92,82,-51,-36,87,4,19,0,19,-19,-19
4,92,87,-48,-41,90,9,19,0,19,-19,-19
-4,92,97,-43,-51,95,14,19,0,19,-19,-19
9,87,78,-48,-34,82,9,14,-4,9,-19,-19
19,82,63,-51,-21,73,4,14,-9,14,-19,-24
24,78,53,-51,-14,65,0,9,-9,14,-24,-29
24,68,43,-46,-9,56,-4,4,-14,14,-29,-34
14,68,53,-41,-19,61,-4,9,-14,24,-24,-24
14,68,53,-41,-19,61,-4,9,-19,24,-29,-24
9,68,58,-39,-24,63,-4,9,-24,9,-29,-29
9,63,53,-36,-21,58,-4,9,-24,9,-39,-34
0,68,68,-34,-34,68,0,19,-24,19,-34,-24
14,78,63,-46,-24,70,0,9,-19,19,-24,-24
14,82,68,-48,-26,75,4,9,-14,19,-19,-24
14,92,78,-53,-31,85,4,9,-9,19,-14,-24
0,82,82,-41,-41,82,4,19,-9,29,-14,-19
-9,82,92,-36,-51,87,4,19,-9,29,-14,-19
-14,82,97,-34,-56,90,4,19,-14,29,-14,-19
-19,82,102,-31,-61,92,4,19,-14,29,-14,-14
-9,78,87,-34,-48,82,0,19,-4,19,-14,-14
-14,78,92,-31,-53,85,0,14,-9,19,-19,-14
-19,78,97,-29,-58,87,4,9,-14,19,-24,-14
-24,78,102,-26,-63,90,4,9,-14,14,-24,-14
-4,78,82,-36,-43,80,4,4,-29,4,-29,-19
4,78,73,-41,-34,75,0,0,-34,0,-39,-34
14,78,63,-46,-24,70,-4,-4,-39,0,-43,-39
29,82,53,-56,-12,68,-9,-9,-43,-4,-39,-39
14,73,58,-43,-21,65,-9,0,-43,4,-29,-29
14,82,68,-48,-26,75,-4,0,-39,4,-39,-29
9,82,73,-46,-31,78,0,0,-34,4,-39,-29
0,87,87,-43,-43,87,4,0,-29,4,-39,-29
4,97,92,-51,-43,95,0,-4,-39,4,-29,-34
9,102,92,-56,-41,97,0,-9,-39,4,-29,-29
19,107,87,-63,-34,97,-4,-14,-39,4,-34,-29
34,112,78,-73,-21,95,-9,-14,-34,4,-34,-24
73,122,48,-97,12,85,-19,-24,-43,0,-39,-29
34,131,97,-82,-31,114,-4,-4,-39,14,-24,-19
-9,136,146,-63,-78,141,9,0,-29,29,-19,-9
0,136,136,-68,-68,136,9,9,-24,29,-9,-9
0,136,136,-68,-68,136,9,9,-19,29,-9,-9
0,136,136,-68,-68,136,9,9,-14,29,-9,-9
0,136,136,-68,-68,136,9,9,-9,29,-9,-9
24,136,112,-80,-43,124,0,9,-9,19,-19,-19
29,136,107,-82,-39,122,-9,9,-9,19,-14,-19
34,136,102,-85,-34,119,-9,14,-14,19,-14,-14
43,136,92,-90,-24,114,-14,14,-14,19,-14,-14
48,131,82,-90,-17,107,-14,14,-14,29,-4,-4
48,131,82,-90,-17,107,-24,14,-14,29,-4,-4
43,131,87,-87,-21,109,-24,14,-14,24,-4,-9
43,151,107,-97,-31,129,-29,9,-24,24,-4,-9
39,170,131,-104,-46,151,-39,-4,-19,34,4,4
34,180,146,-107,-56,163,-53,-14,-24,34,4,9
29,190,161,-109,-65,175,-63,-24,-24,34,9,9
39,204,165,-122,-63,185,-78,-24,-19,43,14,24
63,200,136,-131,-36,168,-92,-29,-19,48,29,24
78,200,122,-139,-21,161,-107,-29,-19,48,34,24
92,190,97,-141,-2,143,-107,-24,-14,53,39,29
117,190,73,-153,21,131,-107,-19,-9,58,48,34
126,165,39,-146,43,102,-92,0,-19,58,39,19
126,156,29,-141,48,92,-92,4,-14,53,34,14
126,136,9,-131,58,73,-82,9,-9,48,29,9
126,122,-4,-124,65,58,-73,14,-4,43,24,4
126,117,-9,-122,68,53,-63,24,0,53,19,4
126,122,-4,-124,65,58,-53,29,9,53,19,4
126,117,-9,-122,68,53,-43,29,9,53,19,4
122,122,0,-122,61,61,-43,24,0,48,9,0
97,97,0,-97,48,48,-39,19,-19,34,4,-4
82,97,14,-90,34,56,-39,4,-48,4,-9,-14
68,92,24,-80,21,58,-39,-4,-63,-9,-19,-19
58,78,19,-68,19,48,-39,-14,-68,-19,-29,-24
78,68,-9,-73,43,29,-43,-19,-78,-29,-43,-43
78,63,-14,-70,46,24,-48,-29,-87,-34,-48,-48
82,63,-19,-73,51,21,-43,-34,-92,-43,-58,-58
97,58,-39,-78,68,9,-43,-39,-97,-48,-68,-73
68,73,4,-70,31,39,-48,-39,-87,-39,-63,-73
48,78,29,-63,9,53,-39,-34,-87,-34,-53,-73
39,82,43,-61,-2,63,-29,-34,-82,-34,-48,-68
14,87,73,-51,-29,80,-24,-29,-82,-34,-43,-68
0,68,68,-34,-34,68,-9,-29,-78,-43,-63,-87
-14,68,82,-26,-48,75,-4,-34,-82,-43,-68,-87
-24,58,82,-17,-53,70,0,-34,-82,-48,-73,-102
-43,43,87,0,-65,65,4,-43,-87,-58,-87,-107
-39,39,78,0,-58,58,19,-39,-97,-63,-92,-112
-43,34,78,4,-61,56,24,-34,-97,-73,-102,-117
-43,19,63,12,-53,41,29,-29,-97,-73,-102,-117
-43,14,58,14,-51,36,34,-24,-97,-78,-112,-126
-48,24,73,12,-61,48,29,-39,-107,-87,-122,-126
-53,24,78,14,-65,51,24,-43,-107,-87,-117,-122
-53,24,78,14,-65,51,19,-53,-117,-92,-117,-122
-48,24,73,12,-61,48,4,-58,-122,-92,-122,-122
-34,34,68,0,-51,51,14,-53,-112,-82,-112,-117
-34,34,68,0,-51,51,14,-48,-107,-82,-112,-112
-39,29,68,4,-53,48,19,-43,-102,-82,-112,-107
-39,29,68,4,-53,48,19,-39,-102,-82,-112,-102
-58,9,68,24,-63,39,34,-34,-92,-73,-107,-92
-58,4,63,26,-61,34,34,-34,-92,-73,-107,-97
-58,-4,53,31,-56,24,34,-34,-92,-78,-102,-97
-53,-14,39,34,-46,12,34,-34,-92,-78,-97,-97
-53,-4,48,29,-51,21,34,-34,-92,-68,-87,-87
-53,0,53,26,-53,26,34,-34,-97,-68,-87,-87
-58,0,58,29,-58,29,34,-29,-97,-68,-87,-87
-68,0,68,34,-68,34,39,-24,-92,-63,-87,-87
-73,0,73,36,-73,36,39,-34,-102,-68,-87,-92
-73,9,82,31,-78,46,39,-34,-102,-73,-92,-102
-78,19,97,29,-87,58,39,-29,-97,-73,-97,-112
-78,29,107,24,-92,68,43,-29,-97,-78,-97,-122
-68,19,87,24,-78,53,34,-29,-97,-87,-112,-126
-53,14,68,19,-61,41,34,-29,-97,-82,-117,-131
-43,9,53,17,-48,31,34,-29,-97,-82,-122,-141
-39,4,43,17,-41,24,34,-29,-97,-82,-126,-146
-58,0,58,29,-58,29,34,-24,-87,-73,-122,-131
-63,0,63,31,-63,31,34,-24,-87,-82,-122,-131
-58,0,58,29,-58,29,29,-24,-87,-82,-117,-126
-63,0,63,31,-63,31,29,-24,-87,-82,-112,-126
-68,19,87,24,-78,53,19,-29,-78,-58,-82,-107
-68,39,107,14,-87,73,19,-19,-68,-53,-78,-102
-102,39,141,31,-122,90,43,0,-53,-43,-73,-87
-112,34,146,39,-129,90,48,14,-34,-19,-63,-82
-102,29,131,36,-117,80,73,43,29,19,-39,-78
-117,29,146,43,-131,87,92,102,102,78,0,-58
-107,39,146,34,-126,92,97,151,170,146,48,-19
-39,63,102,-12,-70,82,78,170,229,200,97,19
29,87,58,-58,-14,73,63,190,268,268,165,73
68,112,43,-90,12,78,34,214,341,370,263,151
107,131,24,-119,41,78,-4,229,395,492,380,234
156,170,14,-163,70,92,-68,161,380,546,468,312
239,200,-39,-219,139,80,-141,87,326,585,546,395
336,219,-117,-278,226,51,-224,39,307,658,663,492
478,234,-244,-356,361,-4,-331,-34,244,727,771,624
