I,II,III,aVR,aVL,aVF,V1,V2,V3,V4,V5,V6
68,48,-19,-58,43,14,87,663,605,312,48,156
68,48,-19,-58,43,14,87,663,605,312,48,156
68,48,-19,-58,43,14,87,663,605,312,48,156
68,48,-19,-58,43,14,87,663,605,312,48,156
58,43,-14,-51,36,14,82,663,595,302,48,146
58,39,-19,-48,39,9,78,663,595,302,48,146
58,34,-24,-46,41,4,73,663,595,302,48,146
58,29,-29,-43,43,0,68,663,595,302,48,146
58,29,-29,-43,43,0,48,658,585,302,58,156
58,29,-29,-43,43,0,39,653,585,302,58,156
58,29,-29,-43,43,0,29,649,585,302,58,156
58,29,-29,-43,43,0,19,644,585,302,58,156
63,34,-29,-48,46,2,4,624,575,287,48,151
68,39,-29,-53,48,4,0,614,566,283,48,146
73,43,-29,-58,51,7,-4,605,556,278,48,141
78,48,-29,-63,53,9,-9,595,546,273,48,136
78,39,-39,-58,58,0,0,575,531,268,29,126
78,39,-39,-58,58,0,0,556,517,263,19,126
78,39,-39,-58,58,0,0,536,502,258,9,126
78,39,-39,-58,58,0,0,517,488,253,0,126
73,29,-43,-51,58,-7,14,497,473,244,-9,136
68,29,-39,-48,53,-4,19,478,458,234,-9,136
63,29,-34,-46,48,-2,24,458,444,224,-9,136
58,29,-29,-43,43,0,29,439,429,214,-9,136
48,19,-29,-34,39,-4,39,405,400,195,-19,136
48,19,-29,-34,39,-4,48,380,380,185,-19,136
48,19,-29,-34,39,-4,58,356,361,175,-19,136
48,19,-29,-34,39,-4,68,331,341,165,-19,136
39,24,-14,-31,26,4,73,297,312,136,-29,122
39,29,-9,-34,24,9,78,273,292,117,-39,117
39,34,-4,-36,21,14,82,248,273,97,-48,112
39,39,0,-39,19,19,87,224,253,78,-58,107
34,29,-4,-31,19,12,102,200,224,53,-68,97
29,29,0,-29,14,14,107,175,204,39,-78,87
24,29,4,-26,9,17,112,151,185,24,-87,78
19,29,9,-24,4,19,117,126,165,9,-97,68
9,19,9,-14,0,14,107,102,141,-9,-107,68
9,9,0,-9,4,4,107,87,126,-29,-117,68
9,0,-9,-4,9,-4,107,73,112,-48,-126,68
9,-9,-19,0,14,-14,107,58,97,-68,-136,68
9,-19,-29,4,19,-24,92,43,82,-87,-156,63
9,-19,-29,4,19,-24,87,29,68,-97,-165,58
9,-19,-29,4,19,-24,82,14,53,-107,-175,53
9,-19,-29,4,19,-24,78,0,39,-117,-185,48
4,-24,-29,9,17,-26,87,-14,29,-126,-195,43
0,-29,-29,14,14,-29,87,-19,19,-136,-204,39
-4,-34,-29,19,12,-31,87,-24,9,-146,-214,34
-9,-39,-29,24,9,-34,87,-29,0,-156,-224,29
-14,-29,-14,21,0,-21,97,-34,-9,-165,-229,29
-19,-29,-9,24,-4,-19,107,-39,-9,-165,-234,29
-24,-29,-4,26,-9,-17,117,-43,-9,-165,-239,29
-29,-29,0,29,-14,-14,126,-48,-9,-165,-244,29
-19,-34,-14,26,-2,-24,126,-63,-24,-180,-253,19
-19,-39,-19,29,0,-29,126,-68,-29,-185,-253,19
-19,-43,-24,31,2,-34,126,-73,-34,-190,-253,19
-19,-48,-29,34,4,-39,126,-78,-39,-195,-253,19
-29,-58,-29,43,0,-43,126,-82,-43,-200,-263,14
-29,-58,-29,43,0,-43,126,-87,-48,-204,-263,9
-29,-58,-29,43,0,-43,126,-92,-53,-209,-263,4
-29,-58,-29,43,0,-43,126,-97,-58,-214,-263,0
-29,-48,-19,39,-4,-34,126,-87,-58,-224,-263,-9
-29,-48,-19,39,-4,-34,126,-87,-58,-224,-263,-9
-29,-48,-19,39,-4,-34,126,-87,-58,-224,-263,-9
-29,-48,-19,39,-4,-34,126,-87,-58,-224,-263,-9
-29,-48,-19,39,-4,-34,141,-82,-48,-214,-263,-19
-29,-48,-19,39,-4,-34,146,-78,-48,-214,-263,-19
-29,-48,-19,39,-4,-34,151,-73,-48,-214,-263,-19
-29,-48,-19,39,-4,-34,156,-68,-48,-214,-263,-19
-29,-48,-19,39,-4,-34,156,-78,-58,-224,-273,-24
-29,-48,-19,39,-4,-34,156,-78,-58,-224,-273,-29
-29,-48,-19,39,-4,-34,156,-78,-58,-224,-273,-34
-29,-48,-19,39,-4,-34,156,-78,-58,-224,-273,-39
-34,-58,-24,46,-4,-41,165,-68,-58,-234,-283,-53
-39,-58,-19,48,-9,-39,165,-68,-58,-234,-292,-58
-43,-58,-14,51,-14,-36,165,-68,-58,-234,-302,-63
-48,-58,-9,53,-19,-34,165,-68,-58,-234,-312,-68
-39,-68,-29,53,-4,-48,165,-78,-63,-239,-326,-82
-39,-68,-29,53,-4,-48,165,-78,-68,-244,-331,-87
-39,-68,-29,53,-4,-48,165,-78,-73,-248,-336,-92
-39,-68,-29,53,-4,-48,165,-78,-78,-253,-341,-97
-39,-58,-19,48,-9,-39,151,-78,-78,-244,-331,-102
-39,-58,-19,48,-9,-39,146,-78,-78,-244,-331,-107
-39,-58,-19,48,-9,-39,141,-78,-78,-244,-331,-112
-39,-58,-19,48,-9,-39,136,-78,-78,-244,-331,-117
-39,-73,-34,56,-2,-53,131,-68,-68,-244,-317,-131
-39,-78,-39,58,0,-58,126,-68,-68,-244,-312,-136
-39,-82,-43,61,2,-63,122,-68,-68,-244,-307,-141
-39,-87,-48,63,4,-68,117,-68,-68,-244,-302,-146
-48,-78,-29,63,-9,-53,117,-58,-63,-234,-307,-151
-48,-78,-29,63,-9,-53,117,-58,-58,-234,-312,-156
-48,-78,-29,63,-9,-53,117,-58,-53,-234,-317,-161
-48,-78,-29,63,-9,-53,117,-58,-48,-234,-322,-165
-43,-73,-29,58,-7,-51,102,-48,-48,-224,-322,-165
-39,-68,-29,53,-4,-48,97,-48,-48,-224,-322,-165
-34,-63,-29,48,-2,-46,92,-48,-48,-224,-322,-165
-29,-58,-29,43,0,-43,87,-48,-48,-224,-322,-165
-24,-63,-39,43,7,-51,82,-48,-48,-224,-307,-146
-19,-68,-48,43,14,-58,78,-48,-48,-224,-302,-126
-14,-73,-58,43,21,-65,73,-48,-48,-224,-297,-107
-9,-78,-68,43,29,-73,68,-48,-48,-224,-292,-87
-14,-78,-63,46,24,-70,58,-39,-39,-214,-287,-73
-19,-78,-58,48,19,-68,58,-39,-39,-214,-283,-68
-24,-78,-53,51,14,-65,58,-39,-39,-214,-278,-63
-29,-78,-48,53,9,-63,58,-39,-39,-214,-273,-58
-19,-68,-48,43,14,-58,48,-39,-29,-209,-263,-48
-9,-68,-58,39,24,-63,39,-39,-29,-204,-263,-48
0,-68,-68,34,34,-68,29,-39,-29,-200,-263,-48
9,-68,-78,29,43,-73,19,-39,-29,-195,-263,-48
0,-58,-58,29,29,-58,9,-39,-29,-185,-258,-48
0,-58,-58,29,29,-58,0,-39,-29,-185,-253,-48
0,-58,-58,29,29,-58,-9,-39,-29,-185,-248,-48
0,-58,-58,29,29,-58,-19,-39,-29,-185,-244,-48
14,-43,-58,14,36,-51,-24,-34,-24,-180,-224,-58
19,-39,-58,9,39,-48,-29,-29,-19,-175,-214,-58
24,-34,-58,4,41,-46,-34,-24,-14,-170,-204,-58
29,-29,-58,0,43,-43,-39,-19,-9,-165,-195,-58
19,-19,-39,0,29,-29,-34,-4,0,-156,-195,-43
19,-19,-39,0,29,-29,-29,0,9,-146,-195,-39
19,-19,-39,0,29,-29,-24,4,19,-136,-195,-34
19,-19,-39,0,29,-29,-19,9,29,-126,-195,-29
29,-29,-58,0,43,-43,-9,24,34,-122,-190,-29
29,-29,-58,0,43,-43,-9,29,39,-117,-185,-29
29,-29,-58,0,43,-43,-9,34,43,-112,-180,-29
29,-29,-58,0,43,-43,-9,39,48,-107,-175,-29
29,-29,-58,0,43,-43,0,39,58,-107,-175,-39
29,-29,-58,0,43,-43,0,39,58,-107,-175,-48
29,-29,-58,0,43,-43,0,39,58,-107,-175,-58
29,-29,-58,0,43,-43,0,39,58,-107,-175,-68
39,-29,-68,-4,53,-48,4,39,48,-117,-175,-73
39,-29,-68,-4,53,-48,9,39,48,-117,-175,-78
39,-29,-68,-4,53,-48,14,39,48,-117,-175,-82
39,-29,-68,-4,53,-48,19,39,48,-117,-175,-87
29,-39,-68,4,48,-53,24,43,58,-107,-161,-97
29,-39,-68,4,48,-53,29,48,58,-107,-156,-97
29,-39,-68,4,48,-53,34,53,58,-107,-151,-97
29,-39,-68,4,48,-53,39,58,58,-107,-146,-97
39,-48,-87,4,63,-68,29,48,48,-112,-156,-112
39,-48,-87,4,63,-68,29,48,48,-117,-156,-117
39,-48,-87,4,63,-68,29,48,48,-122,-156,-122
39,-48,-87,4,63,-68,29,48,48,-126,-156,-126
48,-53,-102,2,75,-78,39,39,34,-141,-165,-136
48,-58,-107,4,78,-82,39,39,29,-146,-175,-146
48,-63,-112,7,80,-87,39,39,24,-151,-185,-156
48,-68,-117,9,82,-92,39,39,19,-156,-195,-165
39,-78,-117,19,78,-97,48,34,9,-165,-200,-175
39,-78,-117,19,78,-97,48,29,9,-165,-204,-175
39,-78,-117,19,78,-97,48,24,9,-165,-209,-175
39,-78,-117,19,78,-97,48,19,9,-165,-214,-175
29,-68,-97,19,63,-82,43,9,4,-170,-214,-180
29,-68,-97,19,63,-82,39,9,0,-175,-214,-185
29,-68,-97,19,63,-82,34,9,-4,-180,-214,-190
29,-68,-97,19,63,-82,29,9,-9,-185,-214,-195
29,-68,-97,19,63,-82,19,0,-14,-195,-214,-195
29,-68,-97,19,63,-82,29,0,-19,-195,-214,-195
29,-63,-92,17,61,-78,39,0,-29,-200,-214,-195
34,-63,-97,14,65,-80,39,0,-34,-200,-209,-195
34,-58,-92,12,63,-75,39,-9,-24,-209,-200,-204
29,-58,-87,14,58,-73,34,-4,-29,-209,-209,-204
24,-53,-78,14,51,-65,29,-4,-34,-209,-209,-204
24,-48,-73,12,48,-61,24,-4,-39,-209,-214,-204
14,-53,-68,19,41,-61,24,-9,-39,-219,-219,-190
19,-53,-73,17,46,-63,29,-14,-39,-219,-224,-175
19,-53,-73,17,46,-63,29,-19,-39,-219,-229,-161
14,-53,-68,19,41,-61,29,-24,-39,-224,-239,-141
19,-48,-68,14,43,-58,19,-24,-43,-234,-239,-136
24,-48,-73,12,48,-61,24,-29,-48,-234,-239,-126
29,-48,-78,9,53,-63,24,-34,-53,-234,-239,-117
34,-53,-87,9,61,-70,29,-39,-53,-234,-239,-112
48,-43,-92,-2,70,-68,19,-43,-58,-244,-239,-112
48,-43,-92,-2,70,-68,9,-48,-63,-244,-239,-117
48,-43,-92,-2,70,-68,9,-48,-68,-244,-239,-126
43,-39,-82,-2,63,-61,9,-53,-73,-244,-239,-131
29,-43,-73,7,51,-58,0,-53,-73,-253,-234,-131
29,-48,-78,9,53,-63,-4,-53,-68,-253,-229,-131
24,-68,-92,21,58,-80,-4,-48,-68,-248,-229,-126
24,-73,-97,24,61,-85,-14,-48,-68,-248,-224,-126
29,-73,-102,21,65,-87,-39,-53,-82,-263,-229,-136
24,-73,-97,24,61,-85,-53,-53,-87,-263,-239,-136
43,-63,-107,9,75,-85,-43,-58,-92,-263,-248,-131
48,-58,-107,4,78,-82,-39,-68,-97,-268,-263,-126
34,-68,-102,17,68,-85,-48,-82,-87,-278,-253,-141
34,-63,-97,14,65,-80,-58,-82,-92,-268,-253,-141
34,-53,-87,9,61,-70,-68,-87,-102,-268,-253,-146
43,-63,-107,9,75,-85,-73,-87,-107,-278,-253,-151
24,-63,-87,19,56,-75,-82,-82,-107,-273,-239,-165
4,-58,-63,26,34,-61,-87,-82,-112,-268,-234,-165
-14,-58,-43,36,14,-51,-87,-82,-107,-263,-229,-161
-24,-58,-34,41,4,-46,-97,-87,-107,-263,-224,-161
24,-43,-68,9,46,-56,-112,-117,-117,-278,-234,-185
48,-39,-87,-4,68,-63,-117,-117,-126,-283,-239,-195
53,-34,-87,-9,70,-61,-117,-126,-131,-283,-244,-209
78,-34,-112,-21,95,-73,-122,-136,-136,-287,-248,-219
53,-39,-92,-7,73,-65,-97,-117,-117,-273,-239,-204
29,-39,-68,4,48,-53,-87,-107,-102,-263,-229,-200
0,-43,-43,21,21,-43,-73,-97,-92,-258,-214,-195
-34,-43,-9,39,-12,-26,-63,-87,-87,-253,-204,-190
-29,-43,-14,36,-7,-29,-58,-78,-82,-248,-200,-200
-34,-48,-14,41,-9,-31,-58,-78,-78,-244,-195,-195
-39,-48,-9,43,-14,-29,-53,-78,-73,-239,-190,-195
-43,-48,-4,46,-19,-26,-48,-78,-68,-229,-180,-195
-29,-48,-19,39,-4,-34,-39,-68,-63,-229,-190,-200
-19,-48,-29,34,4,-39,-39,-68,-63,-229,-190,-200
0,-48,-48,24,24,-48,-39,-68,-63,-229,-190,-204
9,-48,-58,19,34,-53,-39,-68,-63,-229,-195,-204
-19,-43,-24,31,2,-34,-34,-48,-43,-214,-185,-200
-43,-48,-4,46,-19,-26,-19,-39,-39,-204,-175,-195
-68,-48,19,58,-43,-14,-4,-29,-29,-195,-165,-200
-87,-43,43,65,-65,0,14,-19,-19,-185,-156,-195
-78,-58,19,68,-48,-19,29,-29,-24,-190,-165,-204
-78,-63,14,70,-46,-24,24,-29,-34,-200,-170,-204
-78,-68,9,73,-43,-29,29,-34,-39,-209,-180,-209
-73,-82,-9,78,-31,-46,34,-34,-43,-214,-185,-209
-97,-82,14,90,-56,-34,53,-19,-43,-209,-175,-195
-117,-82,34,100,-75,-24,68,-14,-39,-204,-170,-195
-136,-82,53,109,-95,-14,78,-9,-34,-200,-170,-195
-151,-92,58,122,-104,-17,87,-9,-29,-195,-165,-195
-165,-82,82,124,-124,0,87,0,-29,-195,-156,-195
-170,-82,87,126,-129,2,92,0,-24,-195,-151,-195
-175,-82,92,129,-134,4,92,0,-24,-190,-151,-200
-180,-82,97,131,-139,7,87,4,-24,-190,-151,-200
-190,-92,97,141,-143,2,92,4,-14,-180,-146,-190
-204,-92,112,148,-158,9,102,0,-19,-180,-146,-190
-224,-92,131,158,-178,19,107,0,-19,-180,-141,-185
-239,-87,151,163,-195,31,112,0,-19,-180,-141,-185
-248,-97,151,173,-200,26,122,9,-9,-180,-131,-175
-253,-102,151,178,-202,24,122,4,-9,-180,-131,-180
-258,-102,156,180,-207,26,122,0,-9,-190,-131,-180
-263,-102,161,183,-212,29,126,0,-9,-190,-131,-180
-253,-97,156,175,-204,29,141,9,-14,-200,-131,-185
-263,-92,170,178,-217,39,151,9,-14,-190,-131,-180
-263,-82,180,173,-222,48,161,9,-14,-185,-131,-185
-263,-78,185,170,-224,53,165,9,-14,-180,-126,-190
-273,-92,180,183,-226,43,170,19,-14,-170,-131,-180
-278,-102,175,190,-226,36,170,19,-14,-170,-136,-185
-287,-107,180,197,-234,36,175,19,-9,-170,-141,-185
-297,-112,185,204,-241,36,180,19,-9,-165,-146,-180
-307,-102,204,204,-256,51,170,24,-4,-161,-136,-165
-312,-102,209,207,-261,53,175,29,0,-156,-131,-165
-317,-102,214,209,-265,56,185,34,9,-156,-126,-161
-326,-102,224,214,-275,61,190,39,14,-156,-117,-156
-341,-97,244,219,-292,73,180,39,24,-146,-107,-141
-317,-78,239,197,-278,80,170,29,9,-156,-107,-141
-336,-78,258,207,-297,90,165,39,19,-151,-102,-131
-341,-78,263,209,-302,92,165,53,34,-131,-92,-122
-331,-68,263,200,-297,97,175,92,73,-107,-78,-126
-312,-63,248,187,-280,92,180,146,131,-53,-43,-112
-292,-58,234,175,-263,87,170,200,204,39,24,-82
-292,-34,258,163,-275,112,165,268,292,141,102,-29
-302,-14,287,158,-295,136,165,370,390,248,190,34
-292,-9,283,151,-287,136,175,531,531,400,317,126
-263,24,287,119,-275,156,185,736,727,605,527,258
-214,78,292,68,-253,185,185,902,922,834,805,434
-170,146,317,12,-244,231,185,941,1078,1088,1107,649
-151,244,395,-46,-273,319,151,907,1215,1342,1439,888
-131,356,488,-112,-309,422,117,800,1298,1571,1776,1132
-97,458,556,-180,-326,507,82,624,1293,1747,2083,1366
-73,546,619,-236,-346,583,82,483,1254,1849,2347,1586
-24,600,624,-287,-324,612,43,312,1122,1859,2503,1761
68,629,561,-348,-246,595,-19,78,893,1698,2522,1849
122,619,497,-370,-187,558,-48,-151,610,1376,2308,1790
87,590,502,-339,-207,546,4,-312,297,932,1834,1551
24,541,517,-283,-246,529,122,-434,9,453,1239,1195
-97,439,536,-170,-317,488,287,-527,-234,29,624,761
-283,283,566,0,-424,424,448,-688,-556,-458,-68,219
-434,156,590,139,-512,373,522,-1000,-990,-1019,-736,-287
-541,146,688,197,-614,417,502,-1356,-1415,-1473,-1137,-561
-619,175,795,222,-707,485,405,-1668,-1722,-1771,-1322,-653
-658,161,819,248,-739,490,292,-1864,-1908,-1932,-1424,-736
-658,151,810,253,-734,480,214,-1878,-1937,-1942,-1415,-746
-688,151,839,268,-763,495,141,-1805,-1859,-1859,-1307,-678
-732,156,888,287,-810,522,58,-1712,-1751,-1747,-1180,-619
-761,185,946,287,-854,566,14,-1595,-1620,-1620,-1088,-561
-741,204,946,268,-844,575,4,-1415,-1429,-1449,-961,-453
-712,204,917,253,-814,561,0,-1215,-1215,-1268,-844,-356
-673,195,868,239,-771,531,9,-1034,-1010,-1098,-727,-283
-614,185,800,214,-707,492,29,-854,-819,-951,-629,-224
-585,165,751,209,-668,458,34,-663,-624,-790,-531,-165
-570,165,736,202,-653,451,39,-483,-453,-629,-414,-92
-527,185,712,170,-619,448,43,-326,-302,-488,-307,-24
-473,170,644,151,-558,407,43,-204,-185,-385,-234,0
-439,126,566,156,-502,346,43,-117,-117,-312,-195,0
-424,87,512,168,-468,300,63,-63,-63,-263,-170,14
-419,68,488,175,-453,278,78,-19,-9,-219,-146,24
-429,58,488,185,-458,273,82,24,34,-165,-117,29
-439,48,488,195,-463,268,92,48,78,-131,-92,48
-409,39,448,185,-429,244,78,58,82,-122,-73,53
-385,9,395,187,-390,202,73,58,82,-117,-63,58
-395,-34,361,214,-378,163,78,78,92,-102,-48,68
-405,-43,361,224,-383,158,68,97,107,-97,-34,73
-390,-39,351,214,-370,156,63,102,107,-92,-39,63
-370,-53,317,212,-344,131,53,112,117,-82,-43,63
-370,-63,307,217,-339,122,58,136,126,-68,-34,63
-370,-58,312,214,-341,126,53,146,136,-63,-39,68
-370,-48,322,209,-346,136,58,141,136,-53,-34,68
-370,-43,326,207,-348,141,58,136,136,-53,-34,63
-375,-43,331,209,-353,143,63,141,136,-48,-29,53
-370,-58,312,214,-341,126,58,161,136,-43,-39,39
-356,-53,302,204,-329,124,53,161,136,-43,-34,29
-366,-58,307,212,-336,124,53,165,141,-48,-34,19
-361,-73,287,217,-324,107,48,170,151,-43,-24,34
-361,-78,283,219,-322,102,58,175,161,-34,-14,19
-361,-78,283,219,-322,102,63,175,165,-24,-14,9
-356,-78,278,217,-317,100,63,175,165,-19,-9,4
-336,-78,258,207,-297,90,63,175,165,-19,0,-4
-312,-87,224,200,-268,68,58,185,175,-9,4,-14
-312,-92,219,202,-265,63,58,190,175,-4,9,-19
-312,-97,214,204,-263,58,68,200,175,4,14,-19
-336,-102,234,219,-285,65,78,209,185,4,19,-14
-331,-102,229,217,-280,63,78,214,185,4,4,-19
-326,-102,224,214,-275,61,78,214,190,4,4,-24
-322,-92,229,207,-275,68,78,214,190,4,14,-24
-307,-92,214,200,-261,61,78,214,190,4,14,-29
-307,-92,214,200,-261,61,92,209,180,9,4,-39
-312,-92,219,202,-265,63,92,219,185,9,4,-39
-312,-92,219,202,-265,63,92,224,185,9,9,-39
-312,-92,219,202,-265,63,102,229,185,9,9,-34
-302,-92,209,197,-256,58,102,234,185,9,9,-43
-297,-92,204,195,-251,56,97,234,185,9,9,-43
-283,-92,190,187,-236,48,97,234,185,9,4,-43
-268,-87,180,178,-224,46,97,234,190,9,0,-53
-278,-78,200,178,-239,61,107,244,200,19,9,-29
-278,-78,200,178,-239,61,122,248,200,24,14,-24
-283,-78,204,180,-244,63,126,248,200,24,19,-24
-297,-73,224,185,-261,75,141,248,204,34,29,-24
-287,-63,224,175,-256,80,156,253,204,34,34,-24
-283,-68,214,175,-248,73,156,258,209,34,34,-19
-287,-68,219,178,-253,75,161,258,214,34,34,-14
-268,-63,204,165,-236,70,165,258,214,34,29,-9
-253,-53,200,153,-226,73,165,268,224,43,39,9
-258,-53,204,156,-231,75,161,268,224,39,34,24
-263,-53,209,158,-236,78,161,273,224,39,34,39
-263,-58,204,161,-234,73,156,273,224,39,39,53
-239,-48,190,143,-214,70,141,273,229,43,34,68
-244,-43,200,143,-222,78,141,278,224,48,34,78
-229,-39,190,134,-209,75,136,283,229,48,29,82
-219,-39,180,129,-200,70,131,283,224,53,29,82
-195,-29,165,112,-180,68,112,278,234,63,43,73
-180,-19,161,100,-170,70,102,273,234,63,43,73
-170,-14,156,92,-163,70,82,268,244,68,53,78
-165,-9,156,87,-161,73,73,273,253,78,53,78
-156,-9,146,82,-151,68,63,263,244,73,63,73
-141,-9,131,75,-136,61,43,268,239,68,48,63
-141,-14,126,78,-134,56,29,268,234,63,48,53
-146,-14,131,80,-139,58,19,268,234,63,58,34
-146,-14,131,80,-139,58,9,248,224,48,53,14
-126,-19,107,73,-117,43,0,239,214,39,43,4
-112,-29,82,70,-97,26,-9,234,204,29,34,4
-112,-34,78,73,-95,21,-19,224,200,24,29,0
-117,-19,97,68,-107,39,-19,224,200,24,14,-14
-112,-4,107,58,-109,51,-19,224,200,24,9,-19
-112,-4,107,58,-109,51,-14,224,204,34,4,-24
-107,-9,97,58,-102,43,-9,224,209,34,0,-29
-102,-9,92,56,-97,41,-4,219,200,24,9,-24
-102,-9,92,56,-97,41,-4,219,204,29,9,-24
-82,0,82,41,-82,41,-4,229,214,34,14,-29
-82,4,87,39,-85,46,-4,234,224,48,19,-34
-92,-4,87,48,-90,41,-4,229,219,48,19,-43
-82,-4,78,43,-80,36,-4,229,219,53,19,-43
-78,-4,73,41,-75,34,0,244,229,53,24,-43
-73,-4,68,39,-70,31,4,253,234,58,29,-39
-63,0,63,31,-63,31,4,263,229,58,29,-48
-63,4,68,29,-65,36,4,268,234,58,29,-48
-63,4,68,29,-65,36,4,263,239,53,29,-48
-68,4,73,31,-70,39,4,263,244,53,24,-58
-63,4,68,29,-65,36,19,287,248,68,39,-39
-63,4,68,29,-65,36,34,292,258,78,43,-24
-58,0,58,29,-58,29,39,302,273,78,43,-14
-48,0,48,24,-48,24,39,307,278,73,43,0
-24,0,24,12,-24,12,39,322,283,78,48,19
-9,0,9,4,-9,4,43,331,292,87,48,34
-4,0,4,2,-4,2,43,341,297,97,58,48
0,0,0,0,0,0,48,351,307,107,63,63
4,-9,-14,2,9,-12,63,361,312,117,58,58
9,-14,-24,2,17,-19,63,375,322,122,63,58
4,-29,-34,12,19,-31,58,385,326,122,58,68
0,-34,-34,17,17,-34,63,395,336,122,53,68
34,-39,-73,2,53,-56,63,405,331,117,53,43
43,-39,-82,-2,63,-61,68,414,336,122,48,34
48,-43,-92,-2,70,-68,78,419,341,117,48,29
53,-63,-117,4,85,-90,87,424,341,117,43,34
53,-53,-107,0,80,-80,82,439,351,122,53,34
58,-48,-107,-4,82,-78,73,453,356,122,53,29
58,-48,-107,-4,82,-78,68,458,361,126,53,24
63,-48,-112,-7,87,-80,63,488,375,136,63,24
68,-63,-131,-2,100,-97,58,492,380,146,63,14
68,-58,-126,-4,97,-92,53,502,390,146,63,14
73,-63,-136,-4,104,-100,43,507,390,141,58,14
73,-58,-131,-7,102,-95,34,522,400,146,58,14
78,-48,-126,-14,102,-87,29,541,419,156,58,19
78,-58,-136,-9,107,-97,24,551,419,165,68,19
82,-58,-141,-12,112,-100,19,566,429,170,73,19
87,-63,-151,-12,119,-107,19,580,439,185,73,29
97,-63,-161,-17,129,-112,19,595,448,190,87,19
107,-58,-165,-24,136,-112,19,600,458,195,92,19
112,-48,-161,-31,136,-104,19,610,463,200,102,19
112,-29,-141,-41,126,-85,19,619,468,204,112,19
117,-43,-161,-36,139,-102,9,634,468,214,117,19
117,-43,-161,-36,139,-102,9,639,478,219,117,19
117,-39,-156,-39,136,-97,9,644,478,219,117,19
117,-43,-161,-36,139,-102,14,649,478,219,117,19
122,-39,-161,-41,141,-100,9,653,473,214,117,19
122,-34,-156,-43,139,-95,4,649,473,214,117,14
126,-29,-156,-48,141,-92,-4,649,473,209,117,14
131,-24,-156,-53,143,-90,-19,644,473,204,117,19
122,-14,-136,-53,129,-75,-4,639,478,209,126,39
122,-14,-136,-53,129,-75,0,639,483,214,126,43
117,-19,-136,-48,126,-78,4,644,483,219,126,48
117,-19,-136,-48,126,-78,9,644,488,224,126,58
136,-4,-141,-65,139,-73,14,644,483,234,141,78
136,0,-136,-68,136,-68,14,634,483,229,146,92
136,9,-126,-73,131,-58,14,624,473,229,151,102
136,9,-126,-73,131,-58,9,605,473,234,161,117
126,14,-112,-70,119,-48,14,590,463,258,175,156
112,19,-92,-65,102,-36,4,580,458,258,190,180
107,19,-87,-63,97,-34,4,561,444,239,190,195
102,24,-78,-63,90,-26,4,536,419,219,190,200
112,24,-87,-68,100,-31,0,512,405,214,200,214
112,24,-87,-68,100,-31,-4,478,395,195,204,234
102,24,-78,-63,90,-26,0,439,366,190,200,244
97,34,-63,-65,80,-14,4,400,351,180,195,248
102,34,-68,-68,85,-17,-9,370,317,170,180,244
107,24,-82,-65,95,-29,-19,336,297,165,180,239
107,24,-82,-65,95,-29,-24,312,287,161,185,234
107,24,-82,-65,95,-29,-34,287,273,151,185,229
97,24,-73,-61,85,-24,-43,244,239,131,170,234
87,24,-63,-56,75,-19,-53,200,214,107,156,234
78,29,-48,-53,63,-9,-63,156,180,73,141,234
68,29,-39,-48,53,-4,-73,131,156,43,126,229
68,9,-58,-39,63,-24,-68,122,151,29,131,234
58,0,-58,-29,58,-29,-63,97,136,24,131,229
48,-4,-53,-21,51,-29,-53,78,117,14,122,229
43,-9,-53,-17,48,-31,-48,58,107,4,97,224
48,0,-48,-24,48,-24,-34,29,73,-14,87,214
39,4,-34,-21,36,-14,-34,9,48,-29,73,204
34,9,-24,-21,29,-7,-34,0,34,-53,68,190
29,4,-24,-17,26,-9,-39,-19,14,-78,58,185
34,0,-34,-17,34,-17,-53,-34,4,-87,63,185
39,0,-39,-19,39,-19,-53,-48,4,-87,53,175
48,4,-43,-26,46,-19,-58,-63,-4,-92,43,175
53,4,-48,-29,51,-21,-63,-82,-4,-97,39,175
43,-19,-63,-12,53,-41,-58,-87,-4,-102,34,161
34,-19,-53,-7,43,-36,-53,-87,-4,-117,29,161
34,-19,-53,-7,43,-36,-48,-82,-19,-122,34,156
34,-19,-53,-7,43,-36,-48,-78,-29,-126,34,146
34,-14,-48,-9,41,-31,-39,-82,-19,-126,39,151
34,-9,-43,-12,39,-26,-39,-87,-24,-131,29,161
34,-4,-39,-14,36,-21,-39,-92,-29,-131,19,170
29,4,-24,-17,26,-9,-39,-92,-29,-131,19,180
19,4,-14,-12,17,-4,-29,-92,-24,-126,24,190
29,4,-24,-17,26,-9,-29,-87,-24,-126,24,200
34,4,-29,-19,31,-12,-24,-87,-19,-126,24,209
43,4,-39,-24,41,-17,-14,-87,-19,-126,19,219
43,4,-39,-24,41,-17,-4,-73,-14,-122,9,219
34,-4,-39,-14,36,-21,-4,-73,-14,-122,14,219
14,-9,-24,-2,19,-17,-4,-73,-19,-126,14,224
14,-9,-24,-2,19,-17,-4,-68,-19,-126,4,234
24,-14,-39,-4,31,-26,4,-68,-4,-117,9,244
14,-19,-34,2,24,-26,9,-68,-4,-126,4,244
14,-24,-39,4,26,-31,14,-82,-19,-131,0,244
19,-39,-58,9,39,-48,24,-87,-19,-131,0,248
9,-43,-53,17,31,-48,34,-78,-9,-126,-4,248
4,-43,-48,19,26,-46,39,-73,-19,-126,-4,253
0,-43,-43,21,21,-43,43,-73,-24,-131,0,258
0,-48,-48,24,24,-48,58,-68,-24,-131,0,253
4,-39,-43,17,24,-41,58,-58,-14,-141,-9,244
9,-43,-53,17,31,-48,58,-58,-19,-141,-9,234
4,-43,-48,19,26,-46,58,-48,-19,-141,-4,229
9,-43,-53,17,31,-48,63,-43,-19,-141,-4,219
24,-34,-58,4,41,-46,73,-43,-9,-136,-4,234
19,-29,-48,4,34,-39,73,-39,-9,-131,-4,239
34,-29,-63,-2,48,-46,78,-39,-9,-131,0,244
53,-29,-82,-12,68,-56,78,-39,-4,-131,9,248
39,-29,-68,-4,53,-48,68,-29,0,-122,9,263
34,-34,-68,0,51,-51,78,-14,4,-117,9,273
19,-39,-58,9,39,-48,78,-14,9,-102,9,273
14,-39,-53,12,34,-46,78,-14,9,-102,9,278
39,-48,-87,4,63,-68,68,-14,14,-112,9,292
43,-48,-92,2,68,-70,68,-9,14,-112,9,297
43,-48,-92,2,68,-70,68,0,19,-107,19,302
43,-48,-92,2,68,-70,73,4,24,-102,19,307
29,-53,-82,12,56,-68,82,14,34,-92,29,307
29,-53,-82,12,56,-68,78,19,34,-92,29,317
29,-48,-78,9,53,-63,78,24,34,-92,29,317
24,-48,-73,12,48,-61,87,24,39,-87,29,322
34,-63,-97,14,65,-80,87,24,29,-92,24,312
34,-68,-102,17,68,-85,87,19,29,-97,19,307
24,-68,-92,21,58,-80,87,19,29,-102,14,307
24,-73,-97,24,61,-85,87,19,29,-107,14,302
34,-78,-112,21,73,-95,87,19,34,-112,4,302
34,-78,-112,21,73,-95,82,19,39,-112,4,297
34,-87,-122,26,78,-104,73,14,34,-112,0,292
39,-97,-136,29,87,-117,68,14,29,-112,0,283
24,-82,-107,29,65,-95,63,14,24,-107,-4,273
19,-78,-97,29,58,-87,63,14,24,-107,0,273
24,-82,-107,29,65,-95,53,14,24,-102,0,273
24,-78,-102,26,63,-90,48,14,24,-102,0,273
29,-73,-102,21,65,-87,53,14,29,-102,4,263
29,-73,-102,21,65,-87,43,14,29,-97,4,263
24,-78,-102,26,63,-90,34,14,29,-92,4,263
14,-82,-97,34,56,-90,29,19,34,-92,9,263
14,-78,-92,31,53,-85,39,9,29,-97,4,253
0,-78,-78,39,39,-78,29,14,34,-92,4,253
9,-87,-97,39,53,-92,24,14,34,-87,0,244
19,-92,-112,36,65,-102,24,14,39,-87,-4,244
43,-82,-126,19,85,-104,19,9,39,-82,-4,234
29,-82,-112,26,70,-97,9,9,34,-82,-4,229
19,-82,-102,31,61,-92,0,9,29,-82,-4,224
24,-68,-92,21,58,-80,-14,14,24,-78,0,219
34,-68,-102,17,68,-85,-29,9,14,-82,-4,229
34,-68,-102,17,68,-85,-39,9,24,-82,-4,234
34,-68,-102,17,68,-85,-43,4,24,-87,0,239
29,-63,-92,17,61,-78,-48,0,24,-92,4,248
29,-63,-92,17,61,-78,-48,-4,24,-82,-4,263
29,-68,-97,19,63,-82,-48,-4,24,-82,-4,273
29,-68,-97,19,63,-82,-48,-4,29,-82,-4,283
29,-68,-97,19,63,-82,-48,4,39,-78,0,292
14,-63,-78,24,46,-70,-34,4,53,-63,4,297
4,-63,-68,29,36,-65,-24,4,53,-63,4,302
4,-53,-58,24,31,-56,-9,9,48,-63,9,312
4,-39,-43,17,24,-41,4,9,48,-58,14,322
4,-29,-34,12,19,-31,19,19,48,-63,19,322
4,-29,-34,12,19,-31,19,19,48,-58,19,322
14,-24,-39,4,26,-31,24,19,48,-58,9,322
29,-24,-53,-2,41,-39,29,19,53,-58,9,322
14,-14,-29,0,21,-21,48,29,58,-53,9,312
0,0,0,0,0,0,48,34,63,-43,9,322
-4,4,9,0,-7,7,58,39,73,-39,14,331
-4,4,9,0,-7,7,68,39,78,-39,24,331
9,14,4,-12,2,9,87,39,78,-24,29,326
14,24,9,-19,2,17,87,43,78,-24,29,331
9,29,19,-19,-4,24,82,43,78,-34,24,336
0,29,29,-14,-14,29,82,43,78,-48,19,331
0,19,19,-9,-9,19,102,48,82,-39,14,317
4,14,9,-9,-2,12,112,53,87,-24,14,322
4,9,4,-7,0,7,122,58,87,-34,14,326
-9,-4,4,7,-7,0,131,53,92,-53,14,326
-9,4,14,2,-12,9,141,63,102,-53,19,322
0,9,9,-4,-4,9,141,63,102,-53,19,307
0,14,14,-7,-7,14,141,58,92,-43,14,302
-4,14,19,-4,-12,17,141,58,82,-29,14,302
-19,24,43,-2,-31,34,156,53,92,-19,14,292
-14,24,39,-4,-26,31,165,58,92,-19,9,287
-19,19,39,0,-29,29,165,63,92,-19,9,283
-19,19,39,0,-29,29,170,68,87,-34,9,273
-4,9,14,-2,-9,12,170,63,78,-34,4,248
-9,9,19,0,-14,14,161,63,68,-43,0,239
-4,9,14,-2,-9,12,151,63,63,-43,-4,229
0,9,9,-4,-4,9,136,58,63,-43,-9,224
4,4,0,-4,2,2,136,48,53,-34,-9,224
0,-4,-4,2,2,-4,151,48,53,-34,-4,224
-19,0,19,9,-19,9,161,48,53,-34,-4,224
-24,9,34,7,-29,21,161,43,48,-43,-4,224
-19,9,29,4,-24,19,156,53,58,-34,4,229
-24,9,34,7,-29,21,141,53,58,-34,0,234
-24,9,34,7,-29,21,141,58,58,-34,0,239
-24,9,34,7,-29,21,136,58,58,-34,-4,244
-14,-4,9,9,-12,2,126,48,43,-48,-4,263
-19,-9,9,14,-14,0,122,48,43,-48,-4,268
-19,-14,4,17,-12,-4,117,48,43,-48,-4,273
-19,-4,14,12,-17,4,107,53,43,-48,-4,278
-43,-9,34,26,-39,12,107,43,43,-53,-19,278
-53,-24,29,39,-41,2,107,34,34,-58,-24,283
-63,-39,24,51,-43,-7,107,24,24,-63,-29,287
-68,-48,19,58,-43,-14,107,24,14,-73,-39,287
-63,-58,4,61,-34,-26,82,4,4,-82,-43,273
-53,-63,-9,58,-21,-36,78,0,-4,-92,-53,263
-39,-73,-34,56,-2,-53,78,-4,-9,-97,-58,258
-29,-73,-43,51,7,-58,78,-9,-14,-107,-58,253
-29,-53,-24,41,-2,-39,73,-14,-34,-117,-68,244
-43,-78,-34,61,-4,-56,87,-4,-24,-122,-68,253
-58,-87,-29,73,-14,-58,87,-9,-29,-126,-68,244
-58,-87,-29,73,-14,-58,78,-14,-34,-136,-78,239
-58,-87,-29,73,-14,-58,78,-19,-39,-136,-78,234
-58,-87,-29,73,-14,-58,78,-24,-43,-136,-78,229
-58,-87,-29,73,-14,-58,78,-29,-48,-136,-78,224
-58,-92,-34,75,-12,-63,73,-39,-48,-136,-82,214
-58,-92,-34,75,-12,-63,78,-39,-53,-141,-87,204
-53,-97,-43,75,-4,-70,73,-39,-53,-141,-87,195
-53,-102,-48,78,-2,-75,68,-39,-53,-141,-82,185
-48,-102,-53,75,2,-78,58,-39,-68,-151,-102,180
-53,-97,-43,75,-4,-70,48,-43,-73,-151,-102,175
-53,-92,-39,73,-7,-65,39,-48,-78,-151,-107,170
-53,-82,-29,68,-12,-56,34,-53,-78,-151,-107,165
-43,-82,-39,63,-2,-61,34,-63,-78,-141,-97,175
-39,-82,-43,61,2,-63,29,-63,-78,-141,-97,175
-39,-82,-43,61,2,-63,24,-63,-78,-146,-102,180
-34,-78,-43,56,4,-61,19,-58,-78,-146,-102,180
-43,-78,-34,61,-4,-56,19,-63,-87,-156,-112,200
-43,-78,-34,61,-4,-56,14,-68,-87,-156,-112,209
-43,-82,-39,63,-2,-61,14,-73,-82,-156,-112,214
-39,-82,-43,61,2,-63,9,-78,-82,-156,-112,224
-53,-78,-24,65,-14,-51,9,-78,-82,-156,-102,239
-58,-73,-14,65,-21,-43,9,-73,-82,-156,-102,239
-68,-63,4,65,-36,-29,9,-73,-82,-156,-102,244
-78,-48,29,63,-53,-9,9,-73,-82,-156,-102,248
-73,-39,34,56,-53,-2,24,-82,-78,-146,-102,258
-73,-53,19,63,-46,-17,34,-78,-78,-141,-107,263
-68,-53,14,61,-41,-19,34,-78,-78,-141,-107,263
-63,-53,9,58,-36,-21,9,-78,-78,-146,-102,263
-73,-58,14,65,-43,-21,0,-63,-78,-146,-102,263
-58,-53,4,56,-31,-24,14,-63,-78,-146,-102,268
-58,-53,4,56,-31,-24,24,-68,-78,-151,-107,273
-63,-58,4,61,-34,-26,29,-73,-63,-151,-107,273
-63,-39,24,51,-43,-7,29,-68,-53,-136,-92,278
-63,-24,39,43,-51,7,29,-68,-58,-131,-87,278
-53,-29,24,41,-39,-2,34,-63,-58,-136,-82,278
-53,-29,24,41,-39,-2,34,-63,-63,-131,-78,273
-48,-29,19,39,-34,-4,43,-53,-53,-126,-73,283
-53,-34,19,43,-36,-7,58,-43,-43,-122,-68,287
-48,-39,9,43,-29,-14,63,-39,-39,-122,-63,287
-19,-39,-19,29,0,-29,68,-39,-29,-117,-53,273
-24,-34,-9,29,-7,-21,68,-19,-29,-112,-63,263
-48,-29,19,39,-34,-4,73,-19,-24,-102,-63,258
-53,-29,24,41,-39,-2,73,-19,-19,-97,-63,258
-48,-24,24,36,-36,0,73,-9,-19,-92,-63,258
-48,-19,29,34,-39,4,58,-19,-14,-97,-63,244
-53,-19,34,36,-43,7,58,-19,-14,-97,-58,239
-63,-14,48,39,-56,17,53,-19,-19,-97,-58,234
-53,-14,39,34,-46,12,53,-19,-19,-97,-58,229
-48,-9,39,29,-43,14,39,-4,-14,-82,-58,229
-43,-9,34,26,-39,12,39,0,-9,-78,-58,224
-39,-9,29,24,-34,9,39,4,-4,-68,-53,219
-39,-9,29,24,-34,9,39,9,4,-63,-53,209
-48,-19,29,34,-39,4,39,19,9,-53,-39,209
-39,-19,19,29,-29,0,39,19,14,-53,-34,204
-39,-19,19,29,-29,0,39,19,19,-53,-34,204
-43,-24,19,34,-31,-2,29,19,24,-58,-29,195
-34,-29,4,31,-19,-12,34,29,9,-68,-29,180
-34,-29,4,31,-19,-12,39,29,9,-68,-29,165
-29,-24,4,26,-17,-9,48,29,9,-68,-29,161
-29,-24,4,26,-17,-9,53,29,9,-68,-34,156
-19,-24,-4,21,-7,-14,53,39,14,-73,-43,161
-19,-24,-4,21,-7,-14,53,34,14,-78,-48,161
-14,-34,-19,24,2,-26,53,34,14,-78,-48,165
-14,-34,-19,24,2,-26,53,34,9,-78,-43,175
-29,-34,-4,31,-12,-19,68,43,19,-68,-39,195
-34,-34,0,34,-17,-17,68,43,19,-68,-39,214
-34,-43,-9,39,-12,-26,68,39,19,-68,-34,234
-34,-34,0,34,-17,-17,68,39,19,-68,-29,253
-24,-34,-9,29,-7,-21,73,34,19,-73,-29,253
-24,-34,-9,29,-7,-21,73,29,14,-73,-34,248
-24,-34,-9,29,-7,-21,68,29,9,-78,-39,248
-19,-34,-14,26,-2,-24,68,24,4,-82,-43,258
-9,-39,-29,24,9,-34,73,19,0,-82,-48,253
-14,-43,-29,29,7,-36,73,19,0,-82,-48,253
-14,-43,-29,29,7,-36,73,19,0,-82,-53,248
-9,-48,-39,29,14,-43,73,19,0,-82,-53,244
-9,-43,-34,26,12,-39,73,14,-4,-82,-53,234
-9,-43,-34,26,12,-39,63,9,-9,-92,-53,229
-9,-43,-34,26,12,-39,58,9,-14,-92,-53,224
-9,-43,-34,26,12,-39,58,9,-24,-102,-53,219
-9,-48,-39,29,14,-43,48,4,-24,-102,-53,229
-9,-48,-39,29,14,-43,48,0,-24,-97,-53,229
-9,-53,-43,31,17,-48,43,-4,-24,-92,-48,229
-9,-58,-48,34,19,-53,34,-9,-24,-92,-48,229
0,-63,-63,31,31,-63,29,-14,-34,-102,-58,214
4,-63,-68,29,36,-65,29,-19,-29,-102,-58,214
9,-63,-73,26,41,-68,29,-24,-29,-97,-58,219
14,-63,-78,24,46,-70,24,-29,-29,-92,-58,219
19,-63,-82,21,51,-73,14,-39,-39,-92,-63,209
24,-63,-87,19,56,-75,19,-39,-34,-97,-68,204
24,-63,-87,19,56,-75,19,-39,-34,-102,-68,200
19,-58,-78,19,48,-68,14,-39,-34,-107,-68,190
24,-39,-63,7,43,-51,-4,-39,-48,-117,-68,161
24,-58,-82,17,53,-70,0,-29,-39,-102,-63,161
19,-68,-87,24,53,-78,0,-24,-24,-92,-53,161
19,-78,-97,29,58,-87,9,-4,14,-68,-39,146
0,-92,-92,46,46,-92,14,39,73,-4,-4,170
9,-58,-68,24,39,-63,4,112,146,97,63,219
29,-14,-43,-7,36,-29,0,170,224,190,141,253
58,-14,-73,-21,65,-43,-9,273,312,278,229,287
97,-19,-117,-39,107,-68,-9,434,434,400,356,361
165,14,-151,-90,158,-68,-19,619,619,595,556,483
214,68,-146,-141,180,-39,-19,766,814,844,834,668
219,146,-73,-183,146,36,-29,805,980,1098,1146,893
248,234,-14,-241,131,109,-53,761,1107,1351,1468,1132
287,346,58,-317,114,202,-107,634,1171,1571,1786,1376
312,468,156,-390,78,312,-131,488,1176,1737,2093,1620
326,546,219,-436,53,383,-141,366,1137,1830,2337,1849
395,580,185,-488,104,383,-180,195,1015,1810,2474,2025
478,610,131,-544,173,370,-244,-39,785,1639,2464,2103
541,619,78,-580,231,348,-263,-278,492,1307,2220,2034
517,580,63,-549,226,322,-209,-458,180,863,1747,1795
434,512,78,-473,178,295,-82,-570,-87,434,1180,1449
312,380,68,-346,122,224,92,-653,-312,29,575,995
165,214,48,-190,58,131,244,-824,-653,-468,-136,424
4,107,102,-56,-48,104,326,-1146,-1107,-1039,-785,-73
-112,87,200,12,-156,143,317,-1512,-1532,-1483,-1156,-326
-161,87,248,36,-204,168,219,-1815,-1839,-1771,-1342,-448
-190,102,292,43,-241,197,107,-2010,-2005,-1903,-1444,-522
-200,112,312,43,-256,212,29,-2034,-2025,-1903,-1415,-502
-200,112,312,43,-256,212,-43,-1952,-1947,-1810,-1298,-444
-214,126,341,43,-278,234,-136,-1849,-1839,-1698,-1200,-405
-224,156,380,34,-302,268,-190,-1722,-1717,-1590,-1107,-366
-214,185,400,14,-307,292,-200,-1532,-1527,-1439,-980,-297
-185,195,380,-4,-283,287,-195,-1312,-1312,-1259,-854,-219
-156,195,351,-19,-253,273,-185,-1112,-1107,-1088,-746,-156
-126,165,292,-19,-209,229,-156,-922,-907,-932,-639,-97
-97,117,214,-9,-156,165,-131,-732,-712,-761,-531,-39
-34,117,151,-41,-92,134,-117,-580,-551,-610,-414,14
9,165,156,-87,-73,161,-122,-444,-419,-478,-326,63
34,161,126,-97,-46,143,-112,-312,-302,-375,-253,87
58,87,29,-73,14,58,-82,-195,-214,-302,-204,97
73,58,-14,-65,43,21,-63,-122,-161,-253,-180,102
39,48,9,-43,14,29,-29,-68,-107,-219,-156,102
0,19,19,-9,-9,19,-4,-34,-43,-175,-126,126
9,0,-9,-4,9,-4,4,-19,-19,-151,-102,136
58,19,-39,-39,48,-9,-19,-29,-24,-141,-102,131
73,9,-63,-41,68,-26,-14,-29,-24,-136,-92,126
73,-4,-78,-34,75,-41,-9,-9,-14,-112,-78,126
82,-14,-97,-34,90,-56,-9,9,-9,-117,-73,131
87,-9,-97,-39,92,-53,-4,34,0,-112,-78,122
78,-14,-92,-31,85,-53,-4,53,9,-92,-73,131
58,-14,-73,-21,65,-43,9,58,19,-78,-63,141
63,-19,-82,-21,73,-51,14,63,34,-78,-63,151
68,-19,-87,-24,78,-53,19,53,29,-73,-63,156
73,-24,-97,-24,85,-61,19,43,24,-78,-68,156
73,-34,-107,-19,90,-70,24,43,19,-78,-68,151
63,-53,-117,-4,90,-85,29,48,9,-82,-78,151
73,-53,-126,-9,100,-90,34,43,9,-82,-73,156
58,-63,-122,2,90,-92,43,43,14,-87,-73,161
58,-82,-141,12,100,-112,48,43,24,-82,-63,190
63,-78,-141,7,102,-109,68,58,24,-87,-73,180
58,-78,-136,9,97,-107,73,58,29,-82,-73,175
58,-78,-136,9,97,-107,73,58,29,-82,-68,175
73,-78,-151,2,112,-114,73,58,29,-87,-58,170
87,-78,-165,-4,126,-122,58,48,29,-87,-68,161
87,-82,-170,-2,129,-126,58,53,29,-82,-68,156
87,-87,-175,0,131,-131,68,63,29,-73,-68,156
63,-92,-156,14,109,-124,78,73,39,-73,-68,161
53,-102,-156,24,104,-129,68,78,39,-63,-63,161
53,-102,-156,24,104,-129,68,78,43,-63,-63,161
53,-92,-146,19,100,-119,68,78,43,-63,-53,165
63,-92,-156,14,109,-124,68,78,43,-63,-53,165
63,-102,-165,19,114,-134,68,68,34,-68,-63,156
58,-102,-161,21,109,-131,63,73,39,-68,-63,156
58,-102,-161,21,109,-131,58,73,39,-68,-58,156
58,-102,-161,21,109,-131,63,73,39,-68,-58,161
53,-97,-151,21,102,-124,53,68,43,-68,-58,146
53,-92,-146,19,100,-119,48,68,39,-68,-58,141
63,-87,-151,12,107,-119,48,68,34,-68,-63,136
73,-78,-151,2,112,-114,48,68,34,-68,-68,122
73,-92,-165,9,119,-129,43,68,43,-68,-63,131
73,-97,-170,12,122,-134,53,73,43,-63,-63,131
68,-102,-170,17,119,-136,53,73,43,-63,-63,126
53,-102,-156,24,104,-129,63,73,48,-53,-58,122
53,-97,-151,21,102,-124,53,82,48,-53,-53,112
58,-97,-156,19,107,-126,48,82,53,-53,-53,107
53,-92,-146,19,100,-119,48,78,58,-53,-53,102
73,-82,-156,4,114,-119,48,73,58,-53,-58,97
73,-82,-156,4,114,-119,48,73,58,-53,-58,97
63,-82,-146,9,104,-114,43,73,58,-58,-63,102
53,-82,-136,14,95,-109,43,78,58,-58,-63,107
48,-87,-136,19,92,-112,39,78,58,-58,-58,112
58,-92,-151,17,104,-122,39,82,58,-58,-48,136
39,-92,-131,26,85,-112,43,92,58,-48,-43,156
39,-92,-131,26,85,-112,43,102,68,-43,-43,170
34,-97,-131,31,82,-114,43,107,68,-34,-39,180
29,-82,-112,26,70,-97,53,117,78,-24,-34,190
24,-78,-102,26,63,-90,53,117,78,-24,-34,200
14,-78,-92,31,53,-85,43,117,87,-19,-24,214
0,-78,-78,39,39,-78,43,126,97,-9,-24,224
14,-63,-78,24,46,-70,34,136,102,0,-9,239
34,-58,-92,12,63,-75,24,141,102,0,-19,239
39,-58,-97,9,68,-78,19,141,102,0,-14,239
39,-53,-92,7,65,-73,19,141,107,4,0,229
29,-39,-68,4,48,-53,14,151,117,14,9,229
48,-39,-87,-4,68,-63,9,161,126,19,14,239
63,-43,-107,-9,85,-75,4,175,136,24,19,258
63,-43,-107,-9,85,-75,0,185,151,34,29,273
63,-39,-102,-12,82,-70,0,195,165,39,39,263
63,-24,-87,-19,75,-56,0,204,170,43,39,263
58,-24,-82,-17,70,-53,4,214,180,58,39,263
58,-29,-87,-14,73,-58,9,224,190,63,39,263
53,-29,-82,-12,68,-56,14,234,200,73,48,268
53,-29,-82,-12,68,-56,14,239,204,78,48,268
73,-19,-92,-26,82,-56,14,253,214,82,53,263
73,-14,-87,-29,80,-51,14,263,224,97,58,258
63,-29,-92,-17,78,-61,24,283,234,107,68,268
63,-34,-97,-14,80,-65,24,287,239,112,68,268
58,-39,-97,-9,78,-68,29,307,253,112,73,268
53,-43,-97,-4,75,-70,34,322,263,117,78,273
58,-34,-92,-12,75,-63,43,326,268,131,82,268
63,-24,-87,-19,75,-56,43,336,273,136,87,263
68,-19,-87,-24,78,-53,43,336,278,136,92,258
68,-14,-82,-26,75,-48,43,341,283,141,92,244
68,-4,-73,-31,70,-39,39,366,297,156,97,229
63,-4,-68,-29,65,-36,53,370,307,165,102,229
63,-9,-73,-26,68,-41,58,380,322,165,102,224
68,-9,-78,-29,73,-43,58,385,326,161,102,224
78,-19,-97,-29,87,-58,68,409,331,165,107,219
87,-19,-107,-34,97,-63,73,419,341,175,107,219
87,-19,-107,-34,97,-63,73,429,346,185,117,219
87,-19,-107,-34,97,-63,78,439,356,195,122,219
78,-24,-102,-26,90,-63,87,458,366,209,122,209
78,-24,-102,-26,90,-63,82,473,380,219,131,204
68,-34,-102,-17,85,-68,73,483,390,224,131,209
58,-34,-92,-12,75,-63,73,492,405,229,131,204
68,-34,-102,-17,85,-68,82,507,414,239,136,200
73,-29,-102,-21,87,-65,87,522,424,248,136,200
73,-29,-102,-21,87,-65,97,531,434,248,141,204
73,-43,-117,-14,95,-80,107,541,439,253,141,219
82,-53,-136,-14,109,-95,102,541,439,248,131,219
87,-48,-136,-19,112,-92,92,551,444,248,131,214
87,-48,-136,-19,112,-92,87,551,448,253,131,209
92,-48,-141,-21,117,-95,82,575,463,263,141,209
82,-48,-131,-17,107,-90,97,566,463,263,141,200
78,-39,-117,-19,97,-78,102,570,468,263,141,200
78,-39,-117,-19,97,-78,102,570,463,258,136,200
73,-29,-102,-21,87,-65,102,580,468,263,136,200
73,-19,-92,-26,82,-56,107,585,478,268,126,204
68,-29,-97,-19,82,-63,112,590,478,273,136,204
68,-29,-97,-19,82,-63,117,600,488,273,141,204
68,-34,-102,-17,85,-68,126,610,497,283,141,214
68,-39,-107,-14,87,-73,126,614,497,278,131,229
78,-39,-117,-19,97,-78,126,619,507,283,131,234
82,-34,-117,-24,100,-75,126,629,512,287,136,239
82,-19,-102,-31,92,-61,126,639,517,292,141,244
87,-24,-112,-31,100,-68,117,634,507,283,141,248
87,-14,-102,-36,95,-58,117,639,517,287,136,253
87,0,-87,-43,87,-43,117,644,517,287,131,258
87,4,-82,-46,85,-39,122,649,517,287,126,263
78,-4,-82,-36,80,-43,112,653,512,283,117,253
73,-4,-78,-34,75,-41,112,649,512,283,117,248
73,-4,-78,-34,75,-41,107,649,512,278,117,248
73,-4,-78,-34,75,-41,97,644,512,273,117,253
78,-4,-82,-36,80,-43,87,619,502,258,107,248
82,-4,-87,-39,85,-46,78,610,492,253,107,248
82,-9,-92,-36,87,-51,68,605,478,248,107,248
87,-9,-97,-39,92,-53,58,595,468,244,107,253
92,-14,-107,-39,100,-61,39,585,448,239,102,248
87,-9,-97,-39,92,-53,34,566,444,229,97,248
82,0,-82,-41,82,-41,29,546,429,224,92,244
78,0,-78,-39,78,-39,19,517,424,224,92,244
78,14,-63,-46,70,-24,9,512,414,239,107,244
73,19,-53,-46,63,-17,-4,502,409,239,122,248
78,19,-58,-48,68,-19,-9,483,395,219,122,244
82,24,-58,-53,70,-17,-14,458,370,200,122,229
82,29,-53,-56,68,-12,-14,439,366,204,122,229
82,34,-48,-58,65,-7,-24,409,366,195,126,244
73,39,-34,-56,53,2,-24,375,346,200,122,248
68,53,-14,-61,41,19,-24,341,341,200,117,248
68,53,-14,-61,41,19,-43,322,326,190,122,258
68,43,-24,-56,46,9,-48,297,307,185,131,258
63,43,-19,-53,41,12,-48,283,297,180,146,258
58,43,-14,-51,36,14,-53,268,283,170,156,258
58,34,-24,-46,41,4,-43,248,263,170,156,268
58,34,-24,-46,41,4,-43,209,244,156,146,273
58,39,-19,-48,39,9,-43,170,214,131,136,278
58,39,-19,-48,39,9,-43,151,195,112,126,278
48,29,-19,-39,34,4,-43,136,170,92,122,283
39,19,-19,-29,29,0,-43,117,156,82,122,287
29,14,-14,-21,21,0,-39,102,136,68,112,297
24,9,-14,-17,19,-2,-39,87,126,53,87,302
19,19,0,-19,9,9,-34,68,112,29,73,292
9,24,14,-17,-2,19,-34,48,87,19,63,283
4,29,24,-17,-9,26,-34,39,73,0,63,268
0,24,24,-12,-12,24,-39,19,53,-19,58,263
0,19,19,-9,-9,19,-29,19,39,-24,53,263
0,19,19,-9,-9,19,-14,9,43,-29,43,253
4,24,19,-14,-7,21,-4,0,39,-39,34,253
4,24,19,-14,-7,21,4,-14,43,-48,29,253
14,9,-4,-12,9,2,14,-24,29,-48,19,229
4,9,4,-7,0,7,24,-29,24,-68,9,229
4,9,4,-7,0,7,34,-29,4,-78,9,224
4,9,4,-7,0,7,39,-29,-9,-87,4,214
-4,4,9,0,-7,7,58,-34,-9,-82,-9,209
-4,0,4,2,-4,2,58,-39,-14,-92,-19,209
-4,-4,0,4,-2,-2,58,-43,-19,-97,-29,209
-9,-4,4,7,-7,0,58,-43,-19,-102,-29,209
-14,-9,4,12,-9,-2,73,-34,-14,-107,-24,200
-9,-14,-4,12,-2,-9,78,-29,-14,-107,-24,190
-9,-19,-9,14,0,-14,87,-29,-9,-107,-24,180
-4,-24,-19,14,7,-21,102,-29,-9,-107,-29,170
4,-34,-39,14,21,-36,102,-29,-24,-102,-29,156
-4,-43,-39,24,17,-41,102,-34,-24,-102,-24,141
-24,-48,-24,36,0,-36,102,-39,-29,-107,-24,131
-24,-48,-24,36,0,-36,102,-39,-29,-107,-34,126
-4,-58,-53,31,24,-56,97,-48,-34,-117,-48,131
-14,-58,-43,36,14,-51,97,-48,-34,-126,-53,136
-14,-58,-43,36,14,-51,97,-63,-48,-131,-58,141
-9,-68,-58,39,24,-63,102,-68,-48,-131,-58,151
4,-58,-63,26,34,-61,97,-73,-48,-136,-63,161
4,-53,-58,24,31,-56,97,-73,-58,-136,-63,175
4,-48,-53,21,29,-51,97,-78,-63,-141,-58,190
9,-48,-58,19,34,-53,107,-78,-63,-141,-58,195
0,-53,-53,26,26,-53,112,-78,-48,-131,-48,204
0,-63,-63,31,31,-63,117,-78,-48,-131,-48,204
-9,-68,-58,39,24,-63,122,-68,-43,-131,-43,209
-9,-73,-63,41,26,-68,131,-63,-39,-131,-43,209
-29,-82,-53,56,12,-68,141,-73,-39,-131,-48,200
-48,-78,-29,63,-9,-53,151,-68,-39,-131,-53,200
-48,-78,-29,63,-9,-53,165,-68,-39,-136,-53,200
-43,-78,-34,61,-4,-56,175,-68,-34,-141,-48,200
-43,-87,-43,65,0,-65,175,-73,-39,-141,-53,190
-43,-92,-48,68,2,-70,185,-63,-34,-136,-58,185
-53,-97,-43,75,-4,-70,185,-68,-29,-122,-63,170
-53,-97,-43,75,-4,-70,185,-73,-29,-122,-68,161
-34,-107,-73,70,19,-90,195,-73,-29,-136,-78,161
-34,-107,-73,70,19,-90,195,-68,-34,-141,-78,161
-39,-107,-68,73,14,-87,195,-58,-34,-141,-68,161
-43,-107,-63,75,9,-85,200,-53,-34,-141,-68,161
-34,-112,-78,73,21,-95,200,-58,-43,-151,-78,170
-29,-112,-82,70,26,-97,185,-58,-43,-151,-78,180
-24,-107,-82,65,29,-95,175,-58,-43,-151,-78,180
-24,-107,-82,65,29,-95,175,-63,-39,-146,-78,185
-24,-112,-87,68,31,-100,165,-58,-29,-141,-68,185
-24,-107,-82,65,29,-95,165,-58,-29,-136,-68,190
-34,-97,-63,65,14,-80,165,-53,-29,-131,-68,200
-34,-92,-58,63,12,-75,165,-48,-29,-126,-63,204
-24,-87,-63,56,19,-75,161,-39,-19,-112,-53,200
-24,-87,-63,56,19,-75,151,-39,-9,-112,-53,200
-24,-97,-73,61,24,-85,136,-43,-9,-112,-58,200
-19,-107,-87,63,34,-97,126,-43,-9,-112,-58,195
-29,-92,-63,61,17,-78,122,-39,-4,-97,-43,195
-29,-87,-58,58,14,-73,112,-34,-4,-97,-39,195
-19,-92,-73,56,26,-82,92,-29,-4,-92,-39,195
-14,-87,-73,51,29,-80,78,-24,-4,-92,-39,195
-19,-82,-63,51,21,-73,82,-9,4,-82,-39,195
-19,-82,-63,51,21,-73,73,-4,9,-78,-34,195
-24,-87,-63,56,19,-75,63,0,14,-73,-29,195
-34,-92,-58,63,12,-75,58,9,24,-73,-19,195
-14,-73,-58,43,21,-65,58,19,39,-58,-19,190
-19,-68,-48,43,14,-58,48,24,43,-53,-14,185
0,-73,-73,36,36,-73,43,24,43,-48,-14,170
19,-73,-92,26,56,-82,43,24,48,-48,-14,165
19,-82,-102,31,61,-92,63,34,63,-43,-14,170
0,-82,-82,41,41,-82,68,39,63,-43,-14,170
-14,-82,-68,48,26,-75,73,43,63,-43,-14,170
-14,-68,-53,41,19,-61,73,53,63,-39,-9,170
-24,-48,-24,36,0,-36,82,63,73,-34,4,190
-24,-48,-24,36,0,-36,78,68,82,-24,4,195
-24,-48,-24,36,0,-36,78,68,82,-19,9,200
-29,-43,-14,36,-7,-29,78,68,82,-14,14,209
-29,-34,-4,31,-12,-19,82,58,82,-14,4,224
-29,-39,-9,34,-9,-24,87,63,82,-14,4,234
-29,-39,-9,34,-9,-24,92,68,87,-14,4,244
-29,-39,-9,34,-9,-24,97,82,97,-9,9,253
-19,-29,-9,24,-4,-19,92,73,97,-14,9,253
-24,-34,-9,29,-7,-21,92,73,92,-14,4,253
-19,-29,-9,24,-4,-19,97,78,82,-14,4,258
-14,-19,-4,17,-4,-12,102,78,78,-9,4,263
-24,-24,0,24,-12,-12,102,78,78,-9,0,258
-24,-29,-4,26,-9,-17,97,78,78,-9,0,253
-14,-29,-14,21,0,-21,97,78,78,-14,-9,248
0,-34,-34,17,17,-34,97,78,82,-19,-9,244
0,-43,-43,21,21,-43,102,73,73,-19,-4,239
-9,-39,-29,24,9,-34,97,73,73,-14,-9,244
-9,-43,-34,26,12,-39,102,73,78,-14,-9,248
-4,-53,-48,29,21,-51,107,68,78,-19,-4,244
-14,-43,-29,29,7,-36,102,63,73,-14,-9,244
-14,-24,-9,19,-2,-17,97,63,68,-14,-9,244
-24,-9,14,17,-19,2,87,58,63,-24,-14,244
-39,0,39,19,-39,19,82,53,58,-39,-19,234
-39,-4,34,21,-36,14,97,43,68,-39,-14,224
-34,-4,29,19,-31,12,102,43,68,-24,-14,234
-34,-4,29,19,-31,12,107,43,63,-34,-14,244
-48,-14,34,31,-41,9,112,34,63,-53,-14,248
-48,-9,39,29,-43,14,112,34,63,-48,-9,234
-39,0,39,19,-39,19,112,34,63,-53,-9,219
-39,9,48,14,-43,29,112,29,53,-48,-14,214
-43,14,58,14,-51,36,112,29,43,-39,-14,214
-53,9,63,21,-58,36,117,29,53,-48,-24,214
-43,4,48,19,-46,26,126,29,53,-48,-29,209
-43,-4,39,24,-41,17,126,29,53,-48,-29,204
-39,-9,29,24,-34,9,131,29,48,-63,-29,195
-29,-9,19,19,-24,4,136,34,58,-58,-24,200
-39,-9,29,24,-34,9,131,34,48,-63,-29,209
-39,-9,29,24,-34,9,126,34,43,-58,-34,219
-39,-9,29,24,-34,9,117,29,43,-53,-39,234
-39,-9,29,24,-34,9,117,39,43,-53,-39,239
-39,-24,14,31,-26,-4,131,39,43,-53,-34,244
-53,-24,29,39,-41,2,141,39,43,-53,-34,248
-53,-19,34,36,-43,7,141,34,39,-63,-34,253
-34,-29,4,31,-19,-12,136,24,29,-63,-43,253
-34,-29,4,31,-19,-12,122,24,29,-63,-48,253
-29,-29,0,29,-14,-14,122,29,29,-63,-48,253
-24,-29,-4,26,-9,-17,117,29,29,-63,-53,253
-14,-39,-24,26,4,-31,122,29,24,-68,-43,258
-19,-48,-29,34,4,-39,122,29,24,-68,-43,258
-19,-58,-39,39,9,-48,122,29,24,-68,-43,258
-19,-53,-34,36,7,-43,117,34,24,-68,-43,258
-39,-53,-14,46,-12,-34,126,39,29,-63,-39,248
-43,-63,-19,53,-12,-41,126,34,24,-58,-43,253
-48,-73,-24,61,-12,-48,126,29,19,-53,-48,258
-48,-78,-29,63,-9,-53,126,34,14,-53,-58,258
-43,-68,-24,56,-9,-46,126,39,14,-53,-53,253
-34,-73,-39,53,2,-56,126,39,14,-53,-53,253
-19,-82,-63,51,21,-73,131,39,19,-48,-48,258
-9,-82,-73,46,31,-78,136,39,24,-48,-39,263
-14,-78,-63,46,24,-70,141,43,24,-48,-39,253
-24,-58,-34,41,4,-46,146,43,24,-53,-39,253
-34,-53,-19,43,-7,-36,146,43,19,-53,-39,253
-43,-48,-4,46,-19,-26,151,43,19,-53,-39,253
-39,-58,-19,48,-9,-39,156,43,19,-58,-48,253
-34,-58,-24,46,-4,-41,161,34,14,-63,-53,248
-29,-58,-29,43,0,-43,151,34,14,-63,-58,244
-24,-58,-34,41,4,-46,156,29,9,-63,-58,234
-34,-68,-34,51,0,-51,170,39,19,-63,-48,244
-34,-68,-34,51,0,-51,170,39,19,-53,-48,248
-34,-68,-34,51,0,-51,175,39,24,-53,-48,253
-34,-68,-34,51,0,-51,175,34,24,-58,-48,253
-29,-63,-34,46,2,-48,185,39,14,-68,-63,268
-29,-58,-29,43,0,-43,170,24,14,-73,-63,268
-29,-68,-39,48,4,-53,165,19,0,-87,-73,258
-29,-68,-39,48,4,-53,156,9,-9,-97,-87,253
-34,-68,-34,51,0,-51,156,19,-9,-87,-78,263
-39,-68,-29,53,-4,-48,156,19,-9,-87,-78,263
-43,-68,-24,56,-9,-46,156,19,-9,-87,-78,263
-48,-68,-19,58,-14,-43,156,19,-9,-87,-78,263
-43,-63,-19,53,-12,-41,156,14,-14,-97,-78,263
-39,-58,-19,48,-9,-39,156,9,-19,-97,-78,263
-34,-53,-19,43,-7,-36,156,4,-24,-97,-78,263
-29,-48,-19,39,-4,-34,156,0,-29,-97,-78,263
-19,-43,-24,31,2,-34,156,-9,-29,-107,-87,263
-19,-39,-19,29,0,-29,156,-9,-29,-107,-87,263
-19,-34,-14,26,-2,-24,156,-9,-29,-107,-87,263
-19,-29,-9,24,-4,-19,156,-9,-29,-107,-87,263
-39,-39,0,39,-19,-19,156,-19,-39,-107,-78,263
-48,-39,9,43,-29,-14,156,-19,-39,-107,-78,263
-58,-39,19,48,-39,-9,156,-19,-39,-107,-78,263
-68,-39,29,53,-48,-4,156,-19,-39,-107,-78,263
-78,-43,34,61,-56,-4,141,-29,-48,-117,-82,258
-78,-48,29,63,-53,-9,136,-29,-48,-117,-87,253
-78,-53,24,65,-51,-14,131,-29,-48,-117,-92,248
-78,-58,19,68,-48,-19,126,-29,-48,-117,-97,244
-68,-48,19,58,-43,-14,112,-39,-58,-126,-107,239
-58,-48,9,53,-34,-19,107,-39,-58,-126,-107,234
-48,-48,0,48,-24,-24,102,-39,-58,-126,-107,229
-39,-48,-9,43,-14,-29,97,-39,-58,-126,-107,224
-43,-39,4,41,-24,-17,107,-39,-48,-117,-97,224
-48,-39,9,43,-29,-14,107,-39,-48,-117,-97,224
-53,-39,14,46,-34,-12,117,-39,-48,-117,-97,224
-58,-34,24,46,-41,-4,126,-39,-53,-122,-97,224
-68,-34,34,51,-51,0,136,-39,-43,-122,-102,214
-73,-34,39,53,-56,2,136,-39,-43,-122,-92,214
-82,-39,43,61,-63,2,131,-34,-48,-122,-102,214
-92,-39,53,65,-73,7,126,-34,-53,-122,-102,214
-82,-29,53,56,-68,12,131,-43,-58,-122,-117,195
-73,-24,48,48,-61,12,131,-43,-58,-122,-117,185
-58,-24,34,41,-46,4,136,-43,-58,-122,-117,175
-48,-24,24,36,-36,0,136,-43,-58,-122,-117,165
-68,-29,39,48,-53,4,146,-34,-53,-122,-117,165
-73,-29,43,51,-58,7,146,-29,-48,-117,-112,161
-78,-34,43,56,-61,4,151,-29,-43,-112,-107,161
-82,-39,43,61,-63,2,151,-29,-39,-107,-102,161
-73,-43,29,58,-51,-7,165,-39,-39,-117,-102,165
-68,-43,24,56,-46,-9,165,-39,-43,-117,-102,175
-68,-43,24,56,-46,-9,156,-39,-48,-117,-102,180
-68,-43,24,56,-46,-9,156,-34,-53,-117,-102,180
-73,-39,34,56,-53,-2,165,-43,-63,-126,-112,195
-78,-29,48,53,-63,9,165,-43,-63,-126,-112,200
-78,-29,48,53,-63,9,170,-43,-58,-126,-112,204
-82,-43,39,63,-61,-2,180,-39,-58,-122,-117,214
-82,-53,29,68,-56,-12,195,-39,-58,-122,-117,214
-82,-53,29,68,-56,-12,175,-39,-58,-126,-112,214
-92,-53,39,73,-65,-7,165,-34,-58,-126,-112,214
-78,-43,34,61,-56,-4,180,-34,-58,-126,-112,219
-68,-48,19,58,-43,-14,195,-39,-63,-131,-107,224
-73,-48,24,61,-48,-12,195,-43,-53,-131,-107,224
-73,-43,29,58,-51,-7,195,-43,-58,-122,-107,229
-73,-34,39,53,-56,2,195,-48,-68,-122,-107,229
-73,-39,34,56,-53,-2,200,-34,-53,-117,-102,234
-73,-39,34,56,-53,-2,200,-34,-53,-112,-97,234
-82,-34,48,58,-65,7,204,-29,-58,-107,-92,239
-92,-34,58,63,-75,12,214,-24,-53,-102,-87,248
-78,-34,43,56,-61,4,204,-19,-48,-97,-97,239
-48,-29,19,39,-34,-4,204,-29,-48,-97,-92,224
-43,-24,19,34,-31,-2,204,-19,-48,-97,-92,224
-58,-19,39,39,-48,9,209,-19,-43,-92,-92,219
-68,-29,39,48,-53,4,219,-9,-39,-92,-87,229
-58,-34,24,46,-41,-4,219,0,-39,-92,-82,229
-58,-34,24,46,-41,-4,214,0,-34,-87,-78,229
-63,-39,24,51,-43,-7,214,0,-34,-87,-68,229
-63,-24,39,43,-51,7,219,9,-29,-78,-68,219
-53,-24,29,39,-41,2,219,9,-29,-78,-68,219
-53,-29,24,41,-39,-2,214,9,-29,-78,-68,224
-53,-29,24,41,-39,-2,214,9,-29,-78,-68,224
-68,-43,24,56,-46,-9,214,14,-19,-73,-63,224
-78,-48,29,63,-53,-9,214,19,-14,-73,-63,219
-82,-53,29,68,-56,-12,214,24,-14,-73,-63,219
-78,-58,19,68,-48,-19,214,29,-14,-73,-63,214
-68,-68,0,68,-34,-34,214,19,-24,-73,-73,200
-73,-73,0,73,-36,-36,204,19,-24,-78,-78,185
-73,-78,-4,75,-34,-41,204,19,-29,-78,-82,180
-73,-78,-4,75,-34,-41,204,19,-29,-78,-87,165
-78,-63,14,70,-46,-24,200,9,-39,-87,-87,165
-78,-63,14,70,-46,-24,200,0,-39,-87,-92,165
-78,-63,14,70,-46,-24,190,-9,-43,-92,-92,165
-78,-63,14,70,-46,-24,190,-24,-43,-97,-97,161
-87,-63,24,75,-56,-19,190,-24,-53,-97,-97,165
-92,-63,29,78,-61,-17,190,-24,-58,-97,-92,175
-102,-63,39,82,-70,-12,195,-24,-58,-97,-92,180
-112,-63,48,87,-80,-7,195,-24,-58,-97,-97,185
-107,-63,43,85,-75,-9,180,-29,-58,-87,-107,200
-102,-53,48,78,-75,-2,175,-29,-58,-87,-107,204
-97,-53,43,75,-70,-4,175,-29,-53,-87,-102,209
-92,-53,39,73,-65,-7,170,-29,-53,-82,-102,209
-82,-53,29,68,-56,-12,165,-34,-53,-92,-92,219
-78,-53,24,65,-51,-14,165,-34,-53,-92,-92,229
-78,-53,24,65,-51,-14,170,-39,-58,-92,-97,229
-82,-53,29,68,-56,-12,170,-39,-58,-92,-97,234
-92,-39,53,65,-73,7,180,-24,-53,-87,-97,239
-87,-39,48,63,-68,4,180,-19,-48,-82,-92,244
-87,-43,43,65,-65,0,170,-19,-43,-78,-87,244
-87,-43,43,65,-65,0,161,-19,-39,-82,-82,248
-87,-34,53,61,-70,9,165,-19,-29,-73,-82,248
-87,-24,63,56,-75,19,165,-19,-34,-82,-82,248
-97,-14,82,56,-90,34,170,-19,-34,-73,-82,258
-97,0,97,48,-97,48,175,-19,-34,-68,-82,258
-92,-9,82,51,-87,36,185,-9,-34,-73,-78,253
-87,-19,68,53,-78,24,180,-9,-34,-73,-78,248
-78,-34,43,56,-61,4,180,-9,-34,-73,-78,239
-73,-43,29,58,-51,-7,185,-9,-29,-73,-78,234
-73,-53,19,63,-46,-17,180,0,-29,-58,-68,248
-73,-53,19,63,-46,-17,180,0,-29,-53,-68,248
-68,-53,14,61,-41,-19,185,0,-29,-48,-73,244
-63,-53,9,58,-36,-21,195,0,-24,-48,-78,244
-63,-48,14,56,-39,-17,195,-9,-34,-58,-78,234
-68,-39,29,53,-48,-4,190,-9,-34,-58,-78,229
-73,-34,39,53,-56,2,185,-9,-39,-58,-78,219
-73,-29,43,51,-58,7,185,-9,-39,-63,-73,219
-87,-48,39,68,-63,-4,195,24,4,-24,-63,239
-87,-48,39,68,-63,-4,204,63,43,9,-48,244
-68,-34,34,51,-51,0,209,117,112,73,-4,278
-39,-9,29,24,-34,9,200,170,185,165,63,326
0,4,4,-2,-2,4,185,239,253,248,141,370
29,4,-24,-17,26,-9,185,361,361,356,248,444
39,19,-19,-29,29,0,204,561,531,536,424,566
58,63,4,-61,26,34,214,756,746,771,673,727
87,136,48,-112,19,92,204,883,932,1019,961,932
141,214,73,-178,34,143,185,893,1078,1273,1273,1137
190,302,112,-246,39,207,151,800,1176,1507,1576,1366
219,385,165,-302,26,275,107,663,1210,1698,1883,1590
244,488,244,-366,0,366,82,497,1185,1815,2161,1805
297,556,258,-427,19,407,63,346,1107,1869,2366,1995
366,580,214,-473,75,397,14,156,946,1800,2444,2132
439,600,161,-519,139,380,-39,-87,707,1571,2357,2161
444,610,165,-527,139,387,-29,-287,405,1180,2005,2005
400,570,170,-485,114,370,43,-458,82,727,1454,1688
317,483,165,-400,75,324,180,-570,-185,297,868,1283
165,331,165,-248,0,248,346,-683,-448,-136,224,761
0,175,175,-87,-87,175,468,-951,-849,-683,-468,200
-141,107,248,17,-195,178,502,-1322,-1312,-1205,-990,-161
-248,117,366,65,-307,241,453,-1659,-1668,-1561,-1234,-307
-317,107,424,104,-370,265,346,-1922,-1908,-1751,-1381,-390
-336,102,439,117,-387,270,263,-2039,-2005,-1834,-1434,-444
-346,112,458,117,-402,285,185,-2005,-1995,-1795,-1385,-405
-366,112,478,126,-422,295,102,-1903,-1908,-1703,-1278,-346
-380,126,507,126,-444,317,29,-1790,-1790,-1600,-1180,-317
-370,136,507,117,-439,322,-4,-1634,-1639,-1473,-1078,-268
-341,146,488,97,-414,317,-4,-1415,-1429,-1312,-951,-200
-312,146,458,82,-385,302,9,-1205,-1205,-1122,-814,-122
-292,136,429,78,-361,283,19,-1015,-1010,-951,-688,-48
-273,126,400,73,-336,263,29,-834,-829,-805,-600,9
-224,107,331,58,-278,219,43,-653,-634,-644,-502,48
-151,117,268,17,-209,192,48,-502,-492,-502,-385,102
-87,136,224,-24,-156,180,34,-375,-370,-390,-307,141
-73,112,185,-19,-129,148,43,-273,-283,-297,-244,156
-97,58,156,19,-126,107,82,-175,-204,-244,-204,165
-102,39,141,31,-122,90,122,-122,-141,-204,-170,170
-97,29,126,34,-112,78,136,-78,-97,-161,-146,170
-117,19,136,48,-126,78,151,-53,-43,-107,-117,175
-126,29,156,48,-141,92,161,-29,-19,-73,-102,185
-87,39,126,24,-107,82,146,-19,-14,-63,-102,180
-73,29,102,21,-87,65,141,-9,-14,-58,-102,165
-102,-4,97,53,-100,46,146,9,-4,-53,-87,156
-92,-4,87,48,-90,41,156,39,9,-39,-63,161
-68,9,78,29,-73,43,151,63,39,-24,-58,190
-78,14,92,31,-85,53,161,73,58,-4,-43,219
-78,14,92,31,-85,53,165,78,58,0,-43,229
-87,0,87,43,-87,43,180,87,63,0,-43,229
-87,0,87,43,-87,43,185,82,58,4,-43,234
-87,-4,82,46,-85,39,185,78,53,0,-48,234
-92,-14,78,53,-85,31,190,82,48,0,-48,229
-92,-34,58,63,-75,12,200,82,48,4,-58,224
-82,-34,48,58,-65,7,200,82,48,4,-53,224
-97,-43,53,70,-75,4,204,87,53,0,-53,224
-97,-63,34,80,-65,-14,204,92,63,4,-43,248
-102,-78,24,90,-63,-26,204,107,73,9,-43,244
-107,-78,29,92,-68,-24,209,107,78,14,-43,244
-107,-78,29,92,-68,-24,209,107,78,14,-39,248
-92,-78,14,85,-53,-31,209,107,78,9,-29,248
-53,-78,-24,65,-14,-51,195,92,63,4,-43,239
-48,-82,-34,65,-7,-58,195,92,58,4,-48,224
-43,-87,-43,65,0,-65,204,97,53,9,-53,214
-63,-92,-29,78,-17,-61,214,102,58,4,-58,209
-73,-92,-19,82,-26,-56,224,107,48,-4,-53,195
-73,-92,-19,82,-26,-56,224,107,53,-4,-53,190
-73,-82,-9,78,-31,-46,224,107,53,-4,-43,190
-63,-82,-19,73,-21,-51,224,107,53,-4,-43,185
-73,-82,-9,78,-31,-46,229,102,53,-9,-48,170
-78,-82,-4,80,-36,-43,229,112,58,-9,-53,165
-78,-82,-4,80,-36,-43,229,117,58,-9,-53,161
-78,-82,-4,80,-36,-43,239,122,58,-9,-58,161
-82,-82,0,82,-41,-41,239,136,68,9,-43,161
-82,-82,0,82,-41,-41,244,136,68,9,-39,161
-73,-82,-9,78,-31,-46,253,136,68,9,-39,161
-63,-78,-14,70,-24,-46,263,136,73,9,-39,151
-48,-87,-39,68,-4,-63,278,136,73,0,-39,170
-43,-87,-43,65,0,-65,287,141,73,4,-43,170
-43,-87,-43,65,0,-65,287,141,73,4,-48,165
-53,-82,-29,68,-12,-56,297,141,78,14,-48,161
-68,-92,-24,80,-21,-58,307,165,78,24,-34,175
-68,-97,-29,82,-19,-63,312,170,82,24,-34,185
-78,-97,-19,87,-29,-58,322,170,87,24,-34,195
-63,-92,-29,78,-17,-61,331,170,87,24,-39,204
-34,-102,-68,68,17,-85,322,165,78,14,-48,190
-34,-102,-68,68,17,-85,317,161,78,9,-53,190
-34,-102,-68,68,17,-85,317,161,78,9,-53,190
-29,-107,-78,68,24,-92,312,156,78,9,-48,190
-39,-117,-78,78,19,-97,312,165,97,29,-43,200
-68,-112,-43,90,-12,-78,317,180,97,39,-34,214
-78,-107,-29,92,-24,-68,317,195,107,43,-29,224
-92,-107,-14,100,-39,-61,317,204,107,53,-19,229
-87,-102,-14,95,-36,-58,307,200,97,43,-24,219
-82,-97,-14,90,-34,-56,307,195,97,43,-24,219
-82,-97,-14,90,-34,-56,297,190,107,48,-14,224
-87,-97,-9,92,-39,-53,297,195,117,58,-14,224
-73,-82,-9,78,-31,-46,283,195,122,58,4,219
-53,-78,-24,65,-14,-51,268,200,122,58,-9,219
-48,-78,-29,63,-9,-53,258,200,122,58,-9,219
-48,-73,-24,61,-12,-48,253,200,126,63,0,209
-48,-58,-9,53,-19,-34,248,209,136,78,14,204
-29,-58,-29,43,0,-43,244,209,136,78,14,209
-14,-63,-48,39,17,-56,239,214,136,78,14,224
-14,-63,-48,39,17,-56,234,214,141,82,19,234
-34,-39,-4,36,-14,-21,219,214,151,92,24,224
-34,-24,9,29,-21,-7,214,214,151,92,29,224
-39,-24,14,31,-26,-4,214,214,156,102,34,224
-39,-29,9,34,-24,-9,214,214,161,102,39,224
-34,-29,4,31,-19,-12,209,219,170,112,58,214
-34,-29,4,31,-19,-12,209,219,175,117,58,209
-14,-19,-4,17,-4,-12,209,229,185,122,63,200
-14,-14,0,14,-7,-7,209,234,195,136,68,190
-24,-14,9,19,-17,-2,209,239,185,136,68,190
-14,-14,0,14,-7,-7,209,239,190,141,68,190
-9,-14,-4,12,-2,-9,214,253,204,141,73,190
-4,-14,-9,9,2,-12,219,263,214,146,78,195
-19,-9,9,14,-14,0,234,287,219,161,73,200
-34,-4,29,19,-31,12,239,297,224,165,78,204
-48,-4,43,26,-46,19,244,297,229,165,82,209
-68,-4,63,36,-65,29,248,302,234,170,82,204
-68,0,68,34,-68,34,253,307,239,180,82,209
-73,4,78,34,-75,41,268,312,248,185,82,219
-73,4,78,34,-75,41,273,322,263,180,78,224
-68,9,78,29,-73,43,273,326,268,170,73,234
-58,9,68,24,-63,39,273,341,263,175,87,244
-48,9,58,19,-53,34,278,351,273,185,87,248
-48,9,58,19,-53,34,278,361,278,195,97,253
-48,9,58,19,-53,34,283,370,287,204,102,258
-39,14,53,12,-46,34,292,370,292,214,107,248
-39,14,53,12,-46,34,287,385,302,219,112,244
-48,4,53,21,-51,29,278,395,307,219,107,248
-58,4,63,26,-61,34,278,405,317,219,102,244
-43,4,48,19,-46,26,287,429,326,219,97,229
-43,0,43,21,-43,21,292,444,336,229,97,219
-48,-9,39,29,-43,14,302,453,346,229,102,214
-53,-34,19,43,-36,-7,312,463,351,234,102,219
-43,-29,14,36,-29,-7,297,468,361,239,102,204
-39,-19,19,29,-29,0,287,483,366,239,102,195
-39,-14,24,26,-31,4,283,488,370,244,102,185
-34,-9,24,21,-29,7,278,517,385,253,112,180
-24,-14,9,19,-17,-2,278,522,395,258,112,170
-29,-9,19,19,-24,4,278,531,400,263,112,161
-29,-14,14,21,-21,0,273,536,395,263,107,151
-34,-9,24,21,-29,7,268,551,400,273,107,141
-43,-4,39,24,-41,17,273,575,409,268,97,141
-48,-19,29,34,-39,4,278,580,409,273,107,136
-48,-24,24,36,-36,0,283,590,419,273,112,131
-48,-34,14,41,-31,-9,292,600,429,283,112,136
-39,-39,0,39,-19,-19,292,629,439,287,102,141
-29,-39,-9,34,-9,-24,292,639,448,292,102,146
-24,-34,-9,29,-7,-21,292,653,453,297,107,151
-24,-19,4,21,-14,-7,292,668,458,302,112,156
-29,-24,4,26,-17,-9,302,678,468,302,107,170
-29,-24,4,26,-17,-9,302,688,478,307,107,175
-29,-19,9,24,-19,-4,302,697,478,307,107,180
-29,-24,4,26,-17,-9,307,707,478,307,107,185
-24,-34,-9,29,-7,-21,297,707,473,302,107,185
-24,-34,-9,29,-7,-21,297,707,473,302,107,180
-19,-34,-14,26,-2,-24,292,712,473,297,107,180
-14,-34,-19,24,2,-26,283,712,473,292,107,185
0,-29,-29,14,14,-29,287,712,473,292,107,180
4,-24,-29,9,17,-26,283,707,473,292,107,180
4,-24,-29,9,17,-26,278,707,468,292,107,180
9,-19,-29,4,19,-24,273,702,468,292,107,185
9,-19,-29,4,19,-24,253,697,458,283,97,190
9,-19,-29,4,19,-24,248,683,453,278,97,190
9,-14,-24,2,17,-19,244,668,439,278,97,185
9,-19,-29,4,19,-24,234,644,434,283,102,185
14,-4,-19,-4,17,-12,224,629,429,287,107,190
4,0,-4,-2,4,-2,200,619,419,287,122,200
4,0,-4,-2,4,-2,185,600,400,268,122,200
4,4,0,-4,2,2,170,575,370,248,122,190
9,9,0,-9,4,4,156,551,370,253,122,180
14,14,0,-14,7,7,141,517,366,244,126,195
9,19,9,-14,0,14,136,478,341,248,122,200
9,34,24,-21,-7,29,131,439,331,248,117,200
0,53,53,-26,-26,53,126,414,317,253,126,204
0,43,43,-21,-21,43,126,385,297,253,141,209
-4,43,48,-19,-26,46,131,366,287,253,161,214
-9,43,53,-17,-31,48,131,346,273,248,175,219
-4,43,48,-19,-26,46,131,331,253,244,180,224
0,43,43,-21,-21,43,131,297,244,234,175,224
4,48,43,-26,-19,46,131,263,224,214,170,224
9,48,39,-29,-14,43,131,248,214,200,165,219
9,48,39,-29,-14,43,146,239,200,195,170,214
0,39,39,-19,-19,39,151,214,185,190,180,209
-9,34,43,-12,-26,39,161,195,165,180,180,209
-14,29,43,-7,-29,36,165,175,156,170,165,204
-29,29,58,0,-43,43,161,151,131,146,156,214
-39,34,73,2,-56,53,161,126,107,136,141,204
-43,39,82,2,-63,61,161,112,92,117,136,190
-48,34,82,7,-65,58,156,87,73,97,126,185
-43,24,68,9,-56,46,165,68,53,73,122,180
-39,19,58,9,-48,39,170,58,53,68,112,175
-29,19,48,4,-39,34,170,48,43,58,102,180
-24,14,39,4,-31,26,170,34,43,48,97,185
-34,14,48,9,-41,31,185,34,24,43,97,175
-43,19,63,12,-53,41,190,29,24,29,87,180
-43,24,68,9,-56,46,195,29,9,24,87,180
-43,29,73,7,-58,51,195,29,0,19,82,175
-43,29,73,7,-58,51,195,9,-9,4,78,170
-43,29,73,7,-58,51,195,0,-14,-4,68,170
-43,29,73,7,-58,51,195,-9,-19,-9,58,170
-48,34,82,7,-65,58,195,-14,-19,-14,58,170
-39,24,63,7,-51,43,195,-29,-29,-29,43,161
-29,24,53,2,-41,39,195,-29,-34,-29,43,151
-24,24,48,0,-36,36,200,-34,-34,-29,43,141
-14,24,39,-4,-26,31,209,-39,-39,-29,39,131
-24,14,39,4,-31,26,229,-24,-34,-24,39,131
-34,4,39,14,-36,21,229,-24,-34,-24,43,122
-53,0,53,26,-53,26,229,-24,-39,-29,43,117
-53,0,53,26,-53,26,229,-19,-39,-29,34,117
-34,14,48,9,-41,31,234,-9,-34,-19,34,102
-43,19,63,12,-53,41,234,-9,-34,-29,34,97
-43,24,68,9,-56,46,234,-24,-48,-34,34,92
-39,19,58,9,-48,39,239,-29,-48,-34,39,92
-43,14,58,14,-51,36,244,-29,-43,-39,34,82
-43,14,58,14,-51,36,244,-24,-48,-39,34,87
-43,14,58,14,-51,36,244,-24,-48,-43,39,92
-39,9,48,14,-43,29,253,-19,-43,-43,39,87
-24,9,34,7,-29,21,244,-9,-34,-34,29,73
-19,4,24,7,-21,14,244,-9,-39,-34,29,68
-24,4,29,9,-26,17,244,0,-39,-34,34,68
-19,4,24,7,-21,14,248,4,-39,-34,34,63
-29,4,34,12,-31,19,239,4,-39,-24,19,78
-39,9,48,14,-43,29,239,9,-39,-24,14,82
-29,9,39,9,-34,24,244,9,-39,-29,14,87
-14,9,24,2,-19,17,244,9,-34,-34,19,92
-24,-4,19,14,-21,7,234,4,-43,-48,9,102
-24,-14,9,19,-17,-2,244,14,-43,-48,9,107
-34,-24,9,29,-21,-7,244,9,-43,-39,9,102
-34,-29,4,31,-19,-12,244,4,-48,-43,9,102
-9,-53,-43,31,17,-48,234,4,-48,-48,0,92
-4,-58,-53,31,24,-56,224,9,-53,-53,0,92
-4,-63,-58,34,26,-61,214,19,-53,-53,9,92
-4,-68,-63,36,29,-65,209,24,-53,-53,9,92
-14,-58,-43,36,14,-51,204,14,-43,-43,19,102
-19,-53,-34,36,7,-43,185,19,-43,-43,19,112
-24,-43,-19,34,-2,-31,170,24,-43,-43,19,112
-34,-39,-4,36,-14,-21,165,24,-39,-39,19,117
-24,-58,-34,41,4,-46,151,14,-43,-48,19,107
-14,-58,-43,36,14,-51,146,9,-48,-48,19,112
-14,-53,-39,34,12,-46,141,9,-53,-48,19,122
-4,-53,-48,29,21,-51,136,9,-58,-48,24,126
-19,-58,-39,39,9,-48,136,0,-53,-43,34,131
-24,-58,-34,41,4,-46,131,0,-48,-43,34,131
-29,-68,-39,48,4,-53,122,-4,-53,-43,29,131
-29,-78,-48,53,9,-63,117,-4,-58,-43,29,126
-34,-63,-29,48,-2,-46,126,4,-53,-39,43,117
-39,-58,-19,48,-9,-39,131,4,-53,-39,48,117
-34,-63,-29,48,-2,-46,126,4,-53,-34,48,117
-34,-58,-24,46,-4,-41,126,4,-53,-34,48,117
-14,-39,-24,26,4,-31,136,19,-34,-19,68,131
-9,-34,-24,21,7,-29,131,24,-29,-9,82,136
-9,-34,-24,21,7,-29,126,29,-24,0,97,141
-14,-34,-19,24,2,-26,126,39,-14,4,117,146
-24,-14,9,19,-17,-2,136,53,-4,24,122,151
-48,-9,39,29,-43,14,136,63,4,34,131,156
-48,-14,34,31,-41,9,141,68,9,43,136,151
-48,-14,34,31,-41,9,151,73,19,48,141,156
-43,-19,24,31,-34,2,161,87,34,53,131,151
-68,-24,43,46,-56,9,165,87,34,53,131,151
-87,-29,58,58,-73,14,170,87,34,53,131,151
-92,-19,73,56,-82,26,170,92,34,58,136,151
-68,-19,48,43,-58,14,161,87,29,53,126,151
-53,-19,34,36,-43,7,156,87,34,53,122,146
-39,-19,19,29,-29,0,156,82,29,48,122,141
-29,-14,14,21,-21,0,156,78,24,43,122,141
-43,0,43,21,-43,21,165,78,34,48,131,136
-58,0,58,29,-58,29,165,82,34,53,131,136
-73,4,78,34,-75,41,165,87,39,58,131,136
-87,9,97,39,-92,53,165,102,48,68,136,136
-87,14,102,36,-95,58,170,97,48,68,136,126
-92,4,97,43,-95,51,170,92,43,63,131,117
-87,4,92,41,-90,48,175,92,34,58,131,112
-82,9,92,36,-87,51,180,87,29,58,131,107
-102,14,117,43,-109,65,190,92,34,63,136,117
-102,19,122,41,-112,70,195,97,39,68,136,117
-92,29,122,31,-107,75,204,102,43,68,126,117
-78,34,112,21,-95,73,214,107,53,68,126,117
-82,24,107,29,-95,65,214,112,43,68,122,122
-97,29,126,34,-112,78,214,112,43,73,117,136
-102,24,126,39,-114,75,224,112,48,73,117,151
-102,14,117,43,-109,65,234,107,48,68,122,156
-107,4,112,51,-109,58,244,107,53,73,126,161
-112,14,126,48,-119,70,244,112,48,73,126,165
-126,19,146,53,-136,82,239,112,43,63,122,170
-146,19,165,63,-156,92,239,112,39,48,117,165
-141,14,156,63,-148,85,253,122,39,48,122,156
-131,14,146,58,-139,80,258,122,39,63,122,165
-126,14,141,56,-134,78,263,122,34,53,122,175
-136,4,141,65,-139,73,268,112,34,34,122,180
-131,4,136,63,-134,70,268,102,24,34,107,175
-117,9,126,53,-122,68,268,102,24,24,107,161
-112,14,126,48,-119,70,268,97,14,24,102,156
-112,14,126,48,-119,70,268,97,4,29,102,156
-131,4,136,63,-134,70,263,92,9,39,102,156
-122,4,126,58,-124,65,273,97,14,39,97,151
-122,0,122,61,-122,61,273,102,19,39,97,146
-117,0,117,58,-117,58,278,107,19,24,97,136
-136,-14,122,75,-129,53,287,112,19,29,102,131
-156,-19,136,87,-146,58,287,112,9,24,97,131
-165,-24,141,95,-153,58,287,112,4,29,92,131
-175,-29,146,102,-161,58,283,107,4,34,87,136
-156,-29,126,92,-141,48,297,97,4,24,82,131
-156,-34,122,95,-139,43,317,97,4,24,82,126
-170,-24,146,97,-158,61,331,97,4,24,78,122
-170,-9,161,90,-165,75,336,92,0,14,73,117
-170,-4,165,87,-168,80,336,97,9,19,82,122
-170,0,170,85,-170,85,326,102,9,24,78,126
-165,4,170,80,-168,87,331,112,9,29,78,131
-161,9,170,75,-165,90,331,117,9,34,73,136
-170,9,180,80,-175,95,336,117,14,39,78,141
-175,9,185,82,-180,97,336,117,14,39,82,141
-175,9,185,82,-180,97,336,117,14,39,87,141
-175,24,200,75,-187,112,331,122,14,39,92,141
-175,9,185,82,-180,97,317,122,24,39,92,141
-170,-4,165,87,-168,80,312,112,14,39,92,146
-165,-19,146,92,-156,63,307,102,4,39,92,151
-156,-29,126,92,-141,48,302,102,-4,34,87,151
-165,-14,151,90,-158,68,263,97,0,34,97,151
-161,-14,146,87,-153,65,244,97,-4,34,92,146
-151,-19,131,85,-141,56,229,97,-4,39,92,146
-146,-14,131,80,-139,58,214,97,-4,39,97,146
-156,-19,136,87,-146,58,209,102,4,39,102,146
-161,-9,151,85,-156,70,204,102,4,34,107,146
-165,-14,151,90,-158,68,195,102,0,34,112,146
-170,-19,151,95,-161,65,190,102,0,34,117,146
-170,-9,161,90,-165,75,190,112,9,34,126,136
-170,-9,161,90,-165,75,190,102,4,34,122,131
-170,-9,161,90,-165,75,175,102,4,39,117,126
-170,-9,161,90,-165,75,175,97,0,43,117,117
-170,-9,161,90,-165,75,180,92,-9,29,102,102
-170,-9,161,90,-165,75,180,87,-9,34,97,92
-170,-9,161,90,-165,75,185,82,-4,29,92,82
-170,-9,161,90,-165,75,185,73,-4,19,87,68
-204,-14,190,109,-197,87,204,87,4,29,92,63
-195,9,204,92,-200,107,209,92,4,34,112,63
-185,19,204,82,-195,112,204,87,-9,29,102,53
-175,0,175,87,-175,87,195,78,-9,19,97,58
-180,-9,170,95,-175,80,204,78,0,29,97,68
-185,-9,175,97,-180,82,204,78,0,29,97,78
-190,-9,180,100,-185,85,204,78,0,29,97,87
-195,-9,185,102,-190,87,204,78,0,29,97,97
-204,0,204,102,-204,102,209,78,-9,39,107,107
-214,0,214,107,-214,107,214,78,-9,39,107,117
-224,0,224,112,-224,112,219,78,-9,39,107,126
-234,0,234,117,-234,117,224,78,-9,39,107,136
-229,0,229,114,-229,114,224,73,-19,34,102,141
-224,0,224,112,-224,112,224,68,-19,29,97,146
-219,0,219,109,-219,109,224,63,-19,24,92,151
-214,0,214,107,-214,107,224,58,-19,19,87,156
-219,-9,209,114,-214,100,234,68,-9,19,97,156
-224,-9,214,117,-219,102,234,68,-9,19,97,156
-229,-9,219,119,-224,104,234,68,-9,19,97,156
-234,-9,224,122,-229,107,234,68,-9,19,97,156
-224,-9,214,117,-219,102,229,78,-9,29,97,156
-224,-4,219,114,-222,107,234,78,-14,24,97,156
-219,-4,214,112,-217,104,229,78,-14,24,102,156
-219,-4,214,112,-217,104,224,78,-14,24,112,156
-234,-9,224,122,-229,107,234,73,-9,24,102,146
-239,-9,229,124,-234,109,234,73,-14,24,102,146
-239,-9,229,124,-234,109,234,73,-19,24,97,146
-239,-4,234,122,-236,114,239,73,-19,24,97,146
-239,-9,229,124,-234,109,244,73,-9,24,107,141
-244,-14,229,129,-236,107,244,73,-9,24,107,136
-253,-19,234,136,-244,107,244,73,-9,19,102,136
-258,-19,239,139,-248,109,244,78,-9,19,102,131
-258,-19,239,139,-248,109,248,78,-19,19,102,126
-258,-19,239,139,-248,109,248,78,-19,19,102,131
-258,-24,234,141,-246,104,253,78,-14,19,102,131
-253,-24,229,139,-241,102,253,78,-14,19,102,136
-253,-29,224,141,-239,97,248,78,-24,19,92,136
-253,-34,219,143,-236,92,253,82,-24,19,92,131
-258,-34,224,146,-241,95,258,82,-24,19,92,131
-263,-29,234,146,-248,102,263,82,-24,19,92,131
-273,-39,234,156,-253,97,273,82,-9,19,102,122
-278,-53,224,165,-251,85,287,87,-9,24,97,126
-278,-53,224,165,-251,85,292,87,-9,24,97,126
-278,-53,224,165,-251,85,273,87,-9,19,102,126
-287,-43,244,165,-265,100,268,82,-14,19,97,112
-273,-34,239,153,-256,102,278,82,-19,19,92,112
-273,-29,244,151,-258,107,283,78,-24,14,82,112
-278,-29,248,153,-263,109,283,73,-14,14,78,107
-283,-29,253,156,-268,112,292,78,-14,24,87,102
-287,-24,263,156,-275,119,292,78,-19,24,87,102
-283,-39,244,161,-263,102,297,82,-19,14,87,102
-287,-48,239,168,-263,95,297,82,-24,14,87,97
-307,-39,268,173,-287,114,302,92,-29,14,87,107
-317,-43,273,180,-295,114,312,92,-24,14,87,112
-317,-48,268,183,-292,109,312,87,-24,9,87,112
-292,-48,244,170,-268,97,312,78,-19,9,92,97
-297,-43,253,170,-275,104,302,97,-9,19,102,117
-322,-39,283,180,-302,122,307,97,-4,24,102,122
-326,-39,287,183,-307,124,307,97,0,24,102,131
-322,-34,287,178,-305,126,307,107,0,24,102,141
-317,-14,302,165,-309,143,297,107,-4,39,102,151
-317,-9,307,163,-312,148,292,107,-4,39,107,151
-322,0,322,161,-322,161,283,107,-9,39,107,151
-307,4,312,151,-309,158,278,107,-9,39,107,151
-302,9,312,146,-307,161,273,107,-4,48,117,161
-297,19,317,139,-307,168,273,107,0,48,117,165
-292,29,322,131,-307,175,273,107,4,53,122,170
-292,39,331,126,-312,185,273,107,14,53,122,170
-292,24,317,134,-305,170,258,102,0,48,112,161
-283,19,302,131,-292,161,253,97,-4,43,112,156
-283,14,297,134,-290,156,248,92,-9,39,107,156
-287,4,292,141,-290,148,234,87,-14,29,107,146
-278,-9,268,143,-273,129,214,78,-29,14,102,146
-278,-9,268,143,-273,129,204,68,-39,9,97,136
-273,-4,268,139,-270,131,200,58,-48,4,92,136
-273,-4,268,139,-270,131,190,48,-58,0,82,136
-268,4,273,131,-270,139,170,39,-63,-4,73,126
-263,4,268,129,-265,136,170,34,-63,-9,68,122
-253,-4,248,129,-251,122,170,34,-63,-9,68,122
-248,-4,244,126,-246,119,170,34,-68,-9,73,126
-239,-4,234,122,-236,114,175,24,-68,-19,73,126
-239,-4,234,122,-236,114,175,24,-68,-19,68,126
-234,-14,219,124,-226,102,175,19,-68,-19,68,126
-229,-4,224,117,-226,109,175,19,-68,-19,68,126
-229,-4,224,117,-226,109,180,14,-73,-19,73,117
-229,-4,224,117,-226,109,180,9,-73,-14,73,112
-229,-4,224,117,-226,109,175,9,-73,-14,73,112
-224,-4,219,114,-222,107,175,4,-73,-14,73,122
-224,4,229,109,-226,117,180,9,-68,-24,68,117
-229,4,234,112,-231,119,180,9,-68,-24,68,117
-229,9,239,109,-234,124,180,9,-68,-24,63,112
-224,9,234,107,-229,122,180,9,-68,-24,63,107
-214,19,234,97,-224,126,175,14,-68,-19,63,92
-204,24,229,90,-217,126,170,9,-68,-24,63,92
-195,29,224,82,-209,126,170,9,-68,-19,63,92
-185,34,219,75,-202,126,175,9,-73,-24,63,92
-190,29,219,80,-204,124,170,19,-63,-24,63,97
-185,29,214,78,-200,122,175,19,-63,-19,63,92
-180,24,204,78,-192,114,175,19,-63,-14,68,87
-175,19,195,78,-185,107,170,19,-63,-14,68,82
-170,4,175,82,-173,90,161,9,-73,-24,63,78
-170,4,175,82,-173,90,165,9,-68,-24,58,78
-170,4,175,82,-173,90,170,9,-68,-19,53,82
-170,4,175,82,-173,90,170,9,-68,-14,48,82
-161,0,161,80,-161,80,161,9,-78,-19,48,78
-151,-4,146,78,-148,70,165,9,-73,-19,48,78
-146,-9,136,78,-141,63,165,9,-73,-19,53,78
-146,-9,136,78,-141,63,161,9,-73,-19,58,73
-112,0,112,56,-112,56,161,9,-68,-29,58,63
-112,0,112,56,-112,56,156,19,-68,-14,63,73
-126,0,126,63,-126,63,156,43,-43,-4,73,73
-136,0,136,68,-136,68,165,92,-4,29,87,68
-126,4,131,61,-129,68,170,156,73,112,131,102
-117,19,136,48,-126,78,161,219,165,214,209,141
-87,14,102,36,-95,58,156,287,234,307,287,175
-29,-4,24,17,-26,9,156,390,322,385,375,209
29,19,-9,-24,19,4,136,570,463,527,522,292
48,73,24,-61,12,48,136,775,668,751,751,453
68,146,78,-107,-4,112,146,912,854,1010,1039,668
102,234,131,-168,-14,183,136,951,1029,1273,1351,893
141,341,200,-241,-29,270,102,897,1146,1517,1673,1132
200,434,234,-317,-17,334,58,761,1210,1717,1981,1366
244,527,283,-385,-19,405,24,605,1195,1854,2259,1600
287,605,317,-446,-14,461,14,444,1137,1917,2464,1790
356,658,302,-507,26,480,-34,253,985,1859,2571,1937
419,658,239,-539,90,448,-97,9,746,1649,2493,1976
434,610,175,-522,129,392,-87,-209,444,1268,2171,1839
400,551,151,-475,124,351,-14,-380,122,805,1639,1551
326,483,156,-405,85,319,112,-502,-146,385,1073,1176
175,361,185,-268,-4,273,278,-605,-400,-19,448,692
9,214,204,-112,-97,209,400,-863,-780,-546,-253,122
-112,126,239,-7,-175,183,434,-1244,-1254,-1078,-795,-297
-209,117,326,46,-268,222,385,-1590,-1629,-1444,-1058,-453
-326,107,434,109,-380,270,297,-1844,-1869,-1654,-1185,-527
-395,82,478,156,-436,280,204,-1981,-1986,-1737,-1259,-551
-385,102,488,141,-436,295,117,-1956,-1986,-1717,-1210,-531
-366,122,488,122,-427,305,14,-1864,-1898,-1625,-1122,-483
-380,126,507,126,-444,317,-58,-1742,-1790,-1542,-1034,-444
-400,136,536,131,-468,336,-82,-1595,-1649,-1424,-951,-405
-380,146,527,117,-453,336,-82,-1395,-1459,-1273,-834,-346
-331,136,468,97,-400,302,-87,-1205,-1273,-1122,-717,-287
-302,136,439,82,-370,287,-87,-1015,-1088,-980,-610,-224
-273,126,400,73,-336,263,-68,-814,-897,-824,-512,-165
-244,117,361,63,-302,239,-53,-634,-712,-663,-405,-117
-200,126,326,36,-263,226,-48,-473,-551,-512,-297,-53
-136,136,273,0,-204,204,-53,-336,-409,-380,-209,-4
-82,112,195,-14,-139,153,-34,-214,-302,-287,-146,29
-68,68,136,0,-102,102,-24,-126,-234,-224,-107,48
-53,48,102,2,-78,75,-4,-82,-200,-185,-82,63
-68,48,117,9,-92,82,0,-39,-146,-141,-48,73
-117,48,165,34,-141,107,14,14,-82,-87,-9,87
-117,58,175,29,-146,117,14,19,-58,-63,14,107
-78,58,136,9,-107,97,9,19,-63,-53,24,112
-63,48,112,7,-87,80,4,19,-73,-48,34,107
-63,34,97,14,-80,65,9,29,-63,-43,39,107
-63,14,78,24,-70,46,19,48,-48,-29,53,122
-78,19,97,29,-87,58,34,73,-29,-14,58,141
-117,14,131,51,-124,73,53,92,-9,-4,63,141
-126,4,131,61,-129,68,68,107,0,9,73,141
-117,4,122,56,-119,63,78,112,19,14,87,151
-117,9,126,53,-122,68,87,112,19,24,92,156
-117,9,126,53,-122,68,92,112,19,24,92,156
-122,4,126,58,-124,65,102,122,19,29,97,151
-112,14,126,48,-119,70,97,126,9,34,92,146
-92,34,126,29,-109,80,92,122,9,34,92,146
-97,43,141,26,-119,92,92,122,14,29,87,146
-87,43,131,21,-109,87,87,122,24,34,92,170
-102,29,131,36,-117,80,97,136,24,39,102,175
-107,19,126,43,-117,73,102,136,29,43,102,175
-107,9,117,48,-112,63,102,136,29,43,107,180
-92,0,92,46,-92,46,102,136,29,39,117,180
-63,9,73,26,-68,41,92,126,29,29,112,170
-58,4,63,26,-61,34,87,131,29,34,107,165
-53,0,53,26,-53,26,92,141,29,43,102,165
-73,-4,68,39,-70,31,97,151,39,43,97,170
-82,-4,78,43,-80,36,107,161,48,48,107,170
-82,-4,78,43,-80,36,107,165,53,53,112,170
-82,4,87,39,-85,46,107,170,53,58,126,175
-73,4,78,34,-75,41,107,175,53,63,131,175
-87,-4,82,46,-85,39,117,180,58,73,141,180
-97,-4,92,51,-95,43,122,190,68,78,141,185
-102,-4,97,53,-100,46,126,195,73,82,146,190
-107,-4,102,56,-104,48,141,200,78,87,146,200
-122,-4,117,63,-119,56,141,204,87,87,141,209
-122,-4,117,63,-119,56,136,204,87,87,146,209
-112,-4,107,58,-109,51,136,204,87,87,146,209
-102,0,102,51,-102,51,136,204,92,87,146,200
-107,0,107,53,-107,53,131,204,82,78,141,200
-102,0,102,51,-102,51,141,209,82,82,141,200
-102,0,102,51,-102,51,141,209,82,82,141,195
-112,4,117,53,-114,61,151,209,87,92,146,190
-117,0,117,58,-117,58,156,234,97,102,161,190
-117,-9,107,63,-112,48,156,239,102,102,161,195
-126,-14,112,70,-119,48,161,239,107,102,161,200
-112,-14,97,63,-104,41,165,239,107,102,156,204
-102,-14,87,58,-95,36,156,239,97,102,146,190
-102,-14,87,58,-95,36,151,239,97,97,141,190
-102,-14,87,58,-95,36,151,244,97,97,141,190
-97,-19,78,58,-87,29,146,244,97,97,146,190
-92,-19,73,56,-82,26,146,248,117,107,156,185
-107,-14,92,61,-100,39,151,258,117,117,161,195
-102,-9,92,56,-97,41,151,268,126,122,161,200
-102,-9,92,56,-97,41,151,273,126,131,165,200
-102,-19,82,61,-92,31,151,278,136,131,180,195
-102,-19,82,61,-92,31,151,283,136,131,180,190
-107,-24,82,65,-95,29,141,287,146,136,190,190
-117,-29,87,73,-102,29,141,302,156,146,190,185
-117,-24,92,70,-104,34,141,302,151,146,190,180
-102,-19,82,61,-92,31,131,307,151,146,175,180
-102,-19,82,61,-92,31,126,307,151,146,175,180
-107,-14,92,61,-100,39,126,307,156,151,185,170
-107,-19,87,63,-97,34,107,297,146,151,175,156
-87,-19,68,53,-78,24,87,297,146,146,170,151
-73,-24,48,48,-61,12,68,302,146,141,165,156
-73,-24,48,48,-61,12,48,302,151,141,165,156
-97,-19,78,58,-87,29,29,287,136,136,165,146
-102,-4,97,53,-100,46,19,283,131,131,165,146
-112,-4,107,58,-109,51,14,278,131,136,165,146
-117,-9,107,63,-112,48,9,273,131,131,165,146
-122,-24,97,73,-109,36,14,278,141,141,185,146
-122,-29,92,75,-107,31,14,278,146,146,185,151
-102,-24,78,63,-90,26,14,287,156,151,190,151
-102,-24,78,63,-90,26,14,292,165,165,195,151
-107,-24,82,65,-95,29,19,292,151,161,190,146
-102,-24,78,63,-90,26,14,287,151,161,185,141
-102,-24,78,63,-90,26,14,297,161,156,185,136
-102,-24,78,63,-90,26,14,302,165,156,185,136
-112,-9,102,61,-107,46,19,312,161,161,180,136
-122,-4,117,63,-119,56,24,317,165,165,185,136
-131,-4,126,68,-129,61,29,312,170,165,190,136
-146,-4,141,75,-143,68,34,312,175,170,190,126
-146,-4,141,75,-143,68,48,336,190,185,204,122
-141,-4,136,73,-139,65,63,341,200,195,209,122
-131,-9,122,70,-126,56,68,351,214,195,209,117
-117,-9,107,63,-112,48,68,356,219,190,209,117
-112,0,112,56,-112,56,63,366,209,200,214,107
-107,9,117,48,-112,63,63,370,214,204,214,102
-112,19,131,46,-122,75,58,375,214,209,224,97
-117,29,146,43,-131,87,58,380,219,214,229,92
-126,14,141,56,-134,78,63,390,224,224,234,78
-126,14,141,56,-134,78,63,405,234,229,239,78
-136,4,141,65,-139,73,58,414,239,229,234,87
-146,4,151,70,-148,78,63,424,248,229,229,87
-131,9,141,61,-136,75,78,448,268,239,244,87
-131,9,141,61,-136,75,87,463,278,248,244,92
-136,4,141,65,-139,73,102,473,287,248,248,102
-141,-14,126,78,-134,56,117,483,292,253,248,122
-122,0,122,61,-122,61,107,497,302,268,248,136
-117,9,126,53,-122,68,102,512,307,268,248,136
-117,14,131,51,-124,73,102,517,312,273,248,136
-112,19,131,46,-122,75,102,546,326,283,258,141
-102,14,117,43,-109,65,117,556,346,307,263,146
-107,19,126,43,-117,73,122,570,361,312,268,151
-107,14,122,46,-114,68,122,580,366,312,268,156
-112,19,131,46,-122,75,122,600,380,322,273,161
-107,39,146,34,-126,92,122,629,400,336,273,156
-107,29,136,39,-122,82,122,639,400,341,283,156
-102,29,131,36,-117,80,122,653,409,341,287,156
-97,24,122,36,-109,73,126,668,419,351,287,165
-97,29,126,34,-112,78,136,692,424,356,278,161
-87,29,117,29,-102,73,136,697,439,361,278,156
-82,34,117,24,-100,75,136,707,448,366,283,151
-82,48,131,17,-107,90,136,717,458,370,287,146
-87,34,122,26,-104,78,136,736,468,375,292,156
-87,34,122,26,-104,78,136,746,478,385,292,156
-87,39,126,24,-107,82,136,756,478,390,292,156
-87,34,122,26,-104,78,141,766,478,395,292,156
-82,24,107,29,-95,65,141,775,492,400,292,156
-82,24,107,29,-95,65,141,775,492,400,292,151
-78,24,102,26,-90,63,136,780,492,395,292,151
-73,24,97,24,-85,61,126,780,492,390,292,156
-68,34,102,17,-85,68,122,780,492,400,292,151
-63,43,107,9,-85,75,117,775,492,400,292,141
-63,48,112,7,-87,80,112,775,488,400,292,131
-58,58,117,0,-87,87,107,771,488,400,292,126
-58,53,112,2,-85,82,112,771,483,400,283,122
-58,58,117,0,-87,87,112,761,483,395,283,122
-58,68,126,-4,-92,97,112,751,473,395,283,117
-58,68,126,-4,-92,97,107,732,473,400,287,117
-73,58,131,7,-102,95,112,712,458,409,283,131
-82,58,141,12,-112,100,102,697,448,405,287,141
-82,53,136,14,-109,95,102,673,429,380,278,141
-82,53,136,14,-109,95,102,644,400,356,268,131
-82,68,151,7,-117,109,92,624,390,351,273,136
-82,73,156,4,-119,114,82,595,385,341,273,156
-92,78,170,7,-131,124,82,561,361,346,263,165
-97,92,190,2,-143,141,82,527,351,346,253,170
-87,87,175,0,-131,131,63,488,326,346,258,175
-87,73,161,7,-124,117,58,453,307,341,268,180
-92,68,161,12,-126,114,58,429,297,336,283,185
-97,63,161,17,-129,112,53,405,283,326,292,190
-107,63,170,21,-139,117,43,375,253,317,287,195
-107,63,170,21,-139,117,34,336,234,302,273,195
-107,68,175,19,-141,122,24,297,204,278,258,195
-107,68,175,19,-141,122,14,278,185,258,244,190
-107,73,180,17,-143,126,19,244,165,229,248,195
-117,68,185,24,-151,126,24,214,146,219,248,190
-126,68,195,29,-161,131,34,190,122,204,239,190
-131,68,200,31,-165,134,39,165,107,190,214,185
-122,58,180,31,-151,119,48,146,82,175,200,185
-126,53,180,36,-153,117,53,126,58,165,190,175
-126,48,175,39,-151,112,58,117,43,146,190,161
-126,34,161,46,-143,97,58,97,24,126,185,156
-141,19,161,61,-151,90,58,87,-4,112,190,146
-146,19,165,63,-156,92,63,78,-4,107,180,136
-146,24,170,61,-158,97,63,68,-14,97,170,136
-151,24,175,63,-163,100,63,53,-14,87,165,136
-151,19,170,65,-161,95,53,39,-29,78,151,117
-161,19,180,70,-170,100,53,29,-34,58,136,112
-161,19,180,70,-170,100,53,24,-53,48,131,102
-161,19,180,70,-170,100,48,19,-68,39,122,87
-151,9,161,70,-156,85,48,4,-78,24,126,68
-151,9,161,70,-156,85,39,0,-82,14,117,63
-151,9,161,70,-156,85,29,-4,-87,9,107,58
-156,14,170,70,-163,92,19,-4,-87,4,107,53
-161,9,170,75,-165,90,19,-9,-97,-9,92,29
-156,4,161,75,-158,82,19,-9,-102,-9,92,14
-156,0,156,78,-156,78,24,-14,-102,-9,92,0
-151,-4,146,78,-148,70,34,-19,-107,-9,87,-14
-141,-14,126,78,-134,56,43,-24,-122,-24,78,-24
-151,-24,126,87,-139,51,43,-24,-122,-24,82,-34
-170,-29,141,100,-156,56,43,-24,-126,-29,82,-39
-170,-29,141,100,-156,56,43,-19,-126,-29,73,-39
-161,-24,136,92,-148,56,58,-19,-122,-29,68,-24
-170,-19,151,95,-161,65,58,-19,-122,-39,63,-19
-170,-14,156,92,-163,70,58,-34,-136,-43,58,-14
-165,-19,146,92,-156,63,63,-39,-136,-43,58,-4
-161,-24,136,92,-148,56,68,-29,-122,-48,53,9
-161,-24,136,92,-148,56,68,-24,-126,-48,53,19
-161,-24,136,92,-148,56,68,-24,-126,-53,58,29
-156,-29,126,92,-141,48,78,-19,-122,-53,58,29
-151,-29,122,90,-136,46,68,-9,-117,-48,58,29
-146,-34,112,90,-129,39,68,-9,-117,-43,58,29
-151,-34,117,92,-134,41,68,0,-112,-39,63,34
-146,-34,112,90,-129,39,73,4,-107,-34,63,34
-141,-43,97,92,-119,26,63,14,-97,-24,58,34
-146,-39,107,92,-126,34,63,19,-97,-24,53,34
-131,-39,92,85,-112,26,68,19,-97,-29,53,34
-112,-39,73,75,-92,17,68,19,-92,-34,58,34
-112,-39,73,75,-92,17,68,24,-78,-24,68,29
-112,-43,68,78,-90,12,78,43,-73,-19,68,29
-122,-48,73,85,-97,12,78,48,-68,-4,68,19
-122,-48,73,85,-97,12,78,53,-68,-4,68,14
-112,-43,68,78,-90,12,73,63,-48,4,73,24
-112,-39,73,75,-92,17,68,68,-43,4,78,24
-117,-34,82,75,-100,24,63,78,-34,9,92,24
-122,-29,92,75,-107,31,63,82,-24,14,97,24
-112,-34,78,73,-95,21,68,73,-24,14,107,14
-107,-34,73,70,-90,19,58,78,-24,14,107,24
-102,-29,73,65,-87,21,53,82,-24,14,107,24
-102,-29,73,65,-87,21,58,82,-19,19,107,29
-87,-48,39,68,-63,-4,63,78,-9,29,107,29
-82,-48,34,65,-58,-7,68,68,-9,29,107,34
-87,-43,43,65,-65,0,73,63,-9,29,107,43
-82,-43,39,63,-61,-2,78,58,-9,29,112,48
-73,-34,39,53,-56,2,73,68,-9,34,112,63
-73,-29,43,51,-58,7,73,68,0,34,112,63
-73,-34,39,53,-56,2,68,63,0,34,107,63
-68,-39,29,53,-48,-4,68,63,0,34,107,58
-68,-19,48,43,-58,14,63,63,-9,34,97,48
-68,-19,48,43,-58,14,63,63,-14,29,97,48
-58,-29,29,43,-43,0,53,63,-19,29,92,48
-53,-29,24,41,-39,-2,48,63,-24,24,87,48
-39,-34,4,36,-21,-14,43,53,-19,14,92,58
-39,-34,4,36,-21,-14,34,53,-19,19,92,58
-43,-39,4,41,-24,-17,24,53,-19,24,92,58
-53,-43,9,48,-31,-17,19,58,-14,24,97,58
-39,-14,24,26,-31,4,9,48,-19,29,107,68
-48,-9,39,29,-43,14,-9,53,-14,34,112,68
-34,-14,19,24,-26,2,-24,53,-14,39,112,58
-19,-14,4,17,-12,-4,-34,53,-9,39,112,58
4,-9,-14,2,9,-12,-39,53,-14,34,112,63
-9,-4,4,7,-7,0,-39,48,-14,34,112,63
-19,0,19,9,-19,9,-39,43,-14,34,112,63
-14,19,34,-2,-24,26,-43,43,-14,39,117,63
-4,24,29,-9,-17,26,-34,39,-19,34,107,53
4,19,14,-12,-4,17,-39,39,-14,34,102,48
14,14,0,-14,7,7,-39,34,-19,29,102,43
19,14,-4,-17,12,4,-39,29,-24,24,102,43
9,4,-4,-7,7,0,-29,24,-29,19,87,39
9,0,-9,-4,9,-4,-29,24,-34,14,82,29
9,0,-9,-4,9,-4,-29,24,-34,9,78,19
9,0,-9,-4,9,-4,-29,34,-29,9,78,9
19,9,-9,-14,14,0,-34,19,-29,9,78,-4
24,4,-19,-14,21,-7,-43,14,-34,4,73,-9
39,9,-29,-24,34,-9,-48,14,-43,0,73,-9
53,19,-34,-36,43,-7,-53,9,-48,0,73,-9
53,19,-34,-36,43,-7,-58,19,-48,4,78,-19
53,19,-34,-36,43,-7,-68,19,-48,9,78,-29
63,24,-39,-43,51,-7,-73,19,-48,9,68,-39
78,24,-53,-51,65,-14,-78,19,-43,9,68,-48
78,19,-58,-48,68,-19,-68,34,-43,9,63,-63
68,29,-39,-48,53,-4,-68,34,-43,14,58,-58
68,29,-39,-48,53,-4,-58,34,-39,14,58,-53
73,24,-48,-48,61,-12,-48,29,-39,9,63,-58
63,14,-48,-39,56,-17,-39,34,-34,9,58,-58
63,24,-39,-43,51,-7,-39,34,-39,4,58,-48
53,29,-24,-41,39,2,-43,29,-43,-9,53,-39
39,29,-9,-34,24,9,-43,24,-48,-29,48,-39
48,19,-29,-34,39,-4,-39,24,-58,-19,53,-29
63,14,-48,-39,56,-17,-34,24,-58,-4,53,-19
73,9,-63,-41,68,-26,-29,24,-63,-14,53,-9
68,-4,-73,-31,70,-39,-24,14,-63,-34,53,-4
53,-14,-68,-19,61,-41,-14,24,-63,-39,39,-9
58,-9,-68,-24,63,-39,-14,24,-63,-43,39,-24
53,-4,-58,-24,56,-31,-14,19,-73,-39,34,-29
43,-4,-48,-19,46,-26,-14,19,-82,-29,34,-29
39,-14,-53,-12,46,-34,0,9,-73,-39,34,-39
53,-14,-68,-19,61,-41,9,9,-73,-39,29,-43
58,-19,-78,-19,68,-48,9,9,-73,-39,29,-48
68,-19,-87,-24,78,-53,14,9,-78,-53,29,-58
68,-39,-107,-14,87,-73,29,-4,-87,-53,9,-73
58,-39,-97,-9,78,-68,24,-4,-97,-63,0,-82
58,-39,-97,-9,78,-68,19,-4,-102,-63,-9,-92
58,-39,-97,-9,78,-68,9,-9,-102,-63,-19,-97
63,-34,-97,-14,80,-65,19,-9,-112,-73,-19,-107
58,-43,-102,-7,80,-73,34,-9,-112,-73,-14,-107
39,-39,-78,0,58,-58,43,-9,-112,-73,-14,-107
34,-29,-63,-2,48,-46,43,-14,-117,-82,-14,-107
43,-29,-73,-7,58,-51,43,-14,-107,-78,-14,-122
43,-29,-73,-7,58,-51,34,-14,-107,-73,-19,-126
48,-29,-78,-9,63,-53,39,-9,-107,-68,-19,-131
53,-29,-82,-12,68,-56,39,-9,-107,-63,-24,-136
63,-24,-87,-19,75,-56,34,0,-107,-58,-19,-126
58,-19,-78,-19,68,-48,34,0,-102,-58,-14,-131
58,-14,-73,-21,65,-43,34,0,-97,-58,-9,-136
58,4,-53,-31,56,-24,29,4,-92,-58,-4,-141
58,4,-53,-31,56,-24,39,14,-87,-48,0,-122
63,-4,-68,-29,65,-36,39,4,-92,-48,-4,-107
68,-14,-82,-26,75,-48,39,-4,-97,-48,-9,-92
78,-19,-97,-29,87,-58,39,-4,-102,-53,-19,-82
68,-29,-97,-19,82,-63,29,-19,-117,-68,-24,-97
73,-34,-107,-19,90,-70,29,-19,-122,-73,-34,-107
82,-43,-126,-19,104,-85,34,-19,-122,-73,-39,-112
87,-43,-131,-21,109,-87,39,-19,-122,-78,-39,-117
87,-34,-122,-26,104,-78,24,-24,-112,-68,-39,-107
82,-19,-102,-31,92,-61,19,-24,-112,-73,-39,-107
78,-19,-97,-29,87,-58,9,-24,-117,-73,-39,-107
73,-19,-92,-26,82,-56,4,-24,-117,-73,-39,-107
82,-9,-92,-36,87,-51,-9,-24,-117,-68,-34,-97
92,-9,-102,-41,97,-56,-14,-34,-122,-73,-34,-92
102,-9,-112,-46,107,-61,-34,-34,-122,-73,-34,-87
112,-9,-122,-51,117,-65,-39,-39,-126,-73,-29,-87
102,-9,-112,-46,107,-61,-39,-39,-117,-73,-29,-82
102,-9,-112,-46,107,-61,-43,-39,-117,-63,-29,-82
102,-9,-112,-46,107,-61,-43,-39,-112,-63,-29,-82
102,-9,-112,-46,107,-61,-48,-43,-112,-68,-29,-87
97,4,-92,-51,95,-43,-48,-58,-131,-68,-24,-112
107,-9,-117,-48,112,-63,-53,-63,-131,-73,-34,-131
87,-19,-107,-34,97,-63,-58,-58,-126,-58,-34,-131
107,-9,-117,-48,112,-63,-68,-68,-136,-68,-48,-146
107,-19,-126,-43,117,-73,-73,-78,-146,-82,-58,-156
107,-19,-126,-43,117,-73,-78,-78,-146,-87,-58,-165
107,-19,-126,-43,117,-73,-82,-78,-146,-92,-58,-175
107,-19,-126,-43,117,-73,-87,-78,-146,-97,-58,-185
97,-19,-117,-39,107,-68,-87,-78,-146,-87,-58,-195
97,-19,-117,-39,107,-68,-87,-78,-146,-87,-58,-195
97,-19,-117,-39,107,-68,-87,-78,-146,-87,-58,-195
97,-19,-117,-39,107,-68,-87,-78,-146,-87,-58,-195
107,-9,-117,-48,112,-63,-92,-87,-151,-92,-68,-180
107,-9,-117,-48,112,-63,-97,-87,-156,-97,-68,-175
107,-9,-117,-48,112,-63,-102,-87,-161,-102,-68,-170
107,-9,-117,-48,112,-63,-107,-87,-165,-107,-68,-165
117,0,-117,-58,117,-58,-122,-97,-165,-107,-68,-156
126,0,-126,-63,126,-63,-126,-97,-165,-107,-68,-146
136,0,-136,-68,136,-68,-131,-97,-165,-107,-68,-136
146,0,-146,-73,146,-73,-136,-97,-165,-107,-68,-126
136,0,-136,-68,136,-68,-126,-87,-156,-97,-68,-122
126,0,-126,-63,126,-63,-126,-87,-156,-97,-68,-117
117,0,-117,-58,117,-58,-126,-87,-156,-97,-68,-112
107,0,-107,-53,107,-53,-126,-87,-156,-97,-68,-107
117,9,-107,-63,112,-48,-131,-78,-146,-97,-58,-107
117,9,-107,-63,112,-48,-136,-78,-146,-97,-58,-107
117,9,-107,-63,112,-48,-131,-78,-146,-97,-58,-107
117,14,-102,-65,109,-43,-126,-78,-151,-102,-58,-107
122,9,-112,-65,117,-51,-126,-73,-146,-92,-53,-97
122,4,-117,-63,119,-56,-126,-68,-141,-92,-43,-87
117,-4,-122,-56,119,-63,-131,-58,-141,-92,-53,-78
112,-9,-122,-51,117,-65,-136,-53,-141,-92,-53,-68
122,-19,-141,-51,131,-80,-136,-58,-146,-97,-58,-68
122,-14,-136,-53,129,-75,-131,-63,-146,-102,-58,-68
126,-14,-141,-56,134,-78,-122,-68,-146,-107,-58,-68
126,-14,-141,-56,134,-78,-117,-73,-146,-112,-58,-68
122,-14,-136,-53,129,-75,-112,-63,-136,-126,-53,-73
122,-9,-131,-56,126,-70,-107,-58,-136,-126,-53,-73
122,-9,-131,-56,126,-70,-97,-58,-136,-126,-53,-68
122,-9,-131,-56,126,-70,-92,-58,-136,-126,-53,-63
112,-14,-126,-48,119,-70,-78,-48,-122,-136,-53,-68
117,-14,-131,-51,124,-73,-78,-48,-122,-136,-53,-68
117,-14,-131,-51,124,-73,-87,-48,-122,-136,-53,-73
117,-14,-131,-51,124,-73,-87,-43,-122,-136,-53,-82
122,-9,-131,-56,126,-70,-78,-34,-117,-126,-43,-92
117,0,-117,-58,117,-58,-68,-34,-112,-126,-43,-92
117,0,-117,-58,117,-58,-53,-34,-102,-126,-43,-92
112,-14,-126,-48,119,-70,-34,-29,-97,-122,-48,-87
112,0,-112,-56,112,-56,-29,-29,-97,-126,-48,-97
112,4,-107,-58,109,-51,-48,-29,-97,-136,-43,-97
102,9,-92,-56,97,-41,-58,-24,-97,-141,-43,-97
117,24,-92,-70,104,-34,-43,-24,-97,-146,-43,-92
117,19,-97,-68,107,-39,-24,-24,-97,-156,-39,-82
112,9,-102,-61,107,-46,-19,-24,-82,-161,-39,-78
112,4,-107,-58,109,-51,-14,-19,-82,-156,-39,-68
112,4,-107,-58,109,-51,-9,-19,-87,-161,-39,-63
117,-9,-126,-53,122,-68,9,-9,-87,-180,-43,-63
112,-19,-131,-46,122,-75,14,-14,-92,-180,-48,-68
97,-24,-122,-36,109,-73,24,-14,-102,-180,-53,-68
82,-34,-117,-24,100,-75,39,-14,-102,-180,-58,-63
82,-48,-131,-17,107,-90,48,-9,-97,-195,-68,-63
107,-48,-156,-29,131,-102,48,-19,-97,-195,-63,-78
107,-48,-156,-29,131,-102,48,-9,-97,-195,-63,-78
87,-48,-136,-19,112,-92,53,-9,-92,-190,-63,-82
97,-48,-146,-24,122,-97,43,-19,-97,-200,-73,-82
117,-43,-161,-36,139,-102,34,-9,-97,-200,-73,-82
126,-34,-161,-46,143,-97,19,-9,-92,-195,-73,-82
131,-29,-161,-51,146,-95,9,-9,-92,-195,-68,-82
107,-14,-122,-46,114,-68,0,-14,-87,-190,-63,-73
112,-14,-126,-48,119,-70,-4,-19,-87,-185,-58,-73
107,-19,-126,-43,117,-73,-14,-24,-87,-180,-53,-68
102,-19,-122,-41,112,-70,-19,-29,-87,-175,-48,-68
102,-29,-131,-36,117,-80,-29,-39,-102,-180,-48,-58
97,-29,-126,-34,112,-78,-39,-48,-102,-190,-53,-63
97,-29,-126,-34,112,-78,-48,-58,-107,-200,-58,-63
107,-29,-136,-39,122,-82,-58,-68,-112,-209,-63,-68
117,-39,-156,-39,136,-97,-58,-78,-126,-214,-82,-82
112,-43,-156,-34,134,-100,-68,-87,-131,-224,-87,-97
112,-48,-161,-31,136,-104,-68,-97,-141,-229,-92,-102
112,-48,-161,-31,136,-104,-68,-107,-146,-234,-97,-117
107,-43,-151,-31,129,-97,-63,-107,-136,-234,-107,-126
107,-43,-151,-31,129,-97,-63,-107,-136,-234,-112,-126
107,-43,-151,-31,129,-97,-73,-107,-141,-239,-112,-126
107,-43,-151,-31,129,-97,-73,-112,-141,-244,-117,-131
112,-39,-151,-36,131,-95,-73,-112,-131,-234,-107,-141
112,-34,-146,-39,129,-90,-73,-112,-136,-234,-102,-136
107,-29,-136,-39,122,-82,-68,-112,-136,-234,-102,-136
102,-24,-126,-39,114,-75,-68,-112,-136,-234,-107,-136
112,-43,-156,-34,134,-100,-78,-107,-126,-224,-97,-126
112,-34,-146,-39,129,-90,-78,-107,-126,-224,-97,-126
112,-34,-146,-39,129,-90,-73,-107,-122,-224,-92,-126
112,-34,-146,-39,129,-90,-73,-107,-122,-219,-92,-131
112,-29,-141,-41,126,-85,-87,-107,-131,-229,-102,-131
117,-24,-141,-46,129,-82,-97,-112,-131,-229,-102,-122
117,-19,-136,-48,126,-78,-102,-122,-136,-229,-107,-122
112,-14,-126,-48,119,-70,-112,-126,-136,-229,-107,-117
112,-19,-131,-46,122,-75,-122,-126,-136,-229,-112,-112
117,-19,-136,-48,126,-78,-122,-126,-136,-229,-112,-107
117,-24,-141,-46,129,-82,-131,-131,-136,-229,-112,-107
117,-24,-141,-46,129,-82,-141,-136,-136,-239,-112,-102
117,-34,-151,-41,134,-92,-136,-136,-136,-229,-102,-97
117,-34,-151,-41,134,-92,-136,-136,-141,-239,-102,-92
107,-34,-141,-36,124,-87,-131,-136,-141,-229,-102,-78
107,-29,-136,-39,122,-82,-126,-136,-141,-224,-102,-73
102,-19,-122,-41,112,-70,-117,-126,-126,-209,-87,-73
97,-9,-107,-43,102,-58,-112,-126,-122,-209,-87,-73
97,-4,-102,-46,100,-53,-102,-126,-117,-209,-87,-78
92,4,-87,-48,90,-41,-87,-126,-107,-209,-87,-78
82,0,-82,-41,82,-41,-78,-122,-107,-214,-78,-63
82,-4,-87,-39,85,-46,-73,-117,-107,-209,-78,-63
87,-9,-97,-39,92,-53,-63,-112,-107,-204,-82,-68
92,-14,-107,-39,100,-61,-48,-107,-102,-204,-87,-68
82,-24,-107,-29,95,-65,-39,-107,-92,-195,-87,-63
78,-19,-97,-29,87,-58,-34,-107,-92,-195,-87,-63
73,-19,-92,-26,82,-56,-29,-107,-97,-195,-87,-68
73,-19,-92,-26,82,-56,-19,-107,-97,-200,-82,-63
78,29,-48,-53,63,-9,-19,-73,-73,-170,-82,-73
78,48,-29,-63,53,9,-9,-34,-24,-126,-68,-68
97,53,-43,-75,70,4,-4,29,63,-34,-4,-24
117,58,-58,-87,87,0,-14,82,146,58,73,14
136,53,-82,-95,109,-14,-19,151,204,131,151,48
146,53,-92,-100,119,-19,-19,244,292,229,258,122
185,78,-107,-131,146,-14,-29,414,444,390,444,234
244,141,-102,-192,173,19,-39,610,649,614,692,395
302,214,-87,-258,195,63,-39,766,844,873,990,610
317,283,-34,-300,175,124,-48,814,1000,1117,1312,834
356,370,14,-363,170,192,-63,761,1098,1351,1625,1063
395,492,97,-444,148,295,-97,634,1171,1542,1932,1298
419,575,156,-497,131,366,-131,488,1166,1678,2230,1542
453,624,170,-539,141,397,-141,336,1098,1703,2435,1751
512,649,136,-580,187,392,-180,165,936,1605,2503,1869
566,668,102,-617,231,385,-224,-68,678,1385,2396,1878
580,649,68,-614,256,358,-214,-326,366,995,2025,1693
536,590,53,-563,241,322,-151,-517,53,541,1464,1356
453,502,48,-478,202,275,-4,-600,-185,151,868,932
302,361,58,-331,122,209,180,-634,-380,-244,204,390
126,195,68,-161,29,131,331,-795,-692,-741,-517,-219
-14,117,131,-51,-73,124,395,-1137,-1137,-1224,-1039,-619
-92,136,229,-21,-161,183,375,-1454,-1512,-1571,-1283,-775
-141,146,287,-2,-214,217,297,-1727,-1771,-1800,-1429,-858
-170,141,312,14,-241,226,204,-1922,-1927,-1912,-1493,-922
-219,161,380,29,-300,270,126,-1966,-1947,-1883,-1434,-902
-258,170,429,43,-344,300,63,-1864,-1869,-1790,-1317,-824
-263,175,439,43,-351,307,-29,-1761,-1781,-1708,-1220,-756
-244,175,419,34,-331,297,-112,-1683,-1688,-1620,-1137,-707
-214,175,390,19,-302,283,-151,-1522,-1527,-1488,-1039,-629
-195,185,380,4,-287,283,-156,-1342,-1332,-1327,-922,-551
-185,175,361,4,-273,268,-165,-1190,-1156,-1176,-805,-478
-136,156,292,-9,-214,224,-146,-1039,-985,-1039,-707,-429
-58,107,165,-24,-112,136,-141,-858,-819,-907,-619,-380
-14,78,92,-31,-53,85,-146,-688,-658,-766,-531,-317
-9,78,87,-34,-48,82,-141,-522,-497,-614,-414,-248
34,92,58,-63,-12,75,-141,-380,-361,-492,-331,-204
68,58,-9,-63,39,24,-141,-263,-263,-409,-273,-175
63,19,-43,-41,53,-12,-122,-200,-200,-351,-239,-151
68,0,-68,-34,68,-34,-117,-165,-165,-307,-214,-151
78,9,-68,-43,73,-29,-102,-141,-122,-273,-195,-146
68,9,-58,-39,63,-24,-102,-126,-97,-248,-170,-136
68,19,-48,-43,58,-14,-117,-126,-102,-239,-161,-141
92,19,-73,-56,82,-26,-122,-117,-102,-234,-161,-136
112,14,-97,-63,104,-41,-136,-97,-92,-229,-165,-136
112,-14,-126,-48,119,-70,-146,-78,-87,-224,-161,-131
117,-19,-136,-48,126,-78,-151,-73,-78,-219,-146,-122
107,-24,-131,-41,119,-78,-151,-73,-68,-219,-141,-122
97,-34,-131,-31,114,-82,-146,-68,-48,-195,-122,-112
102,-24,-126,-39,114,-75,-141,-53,-29,-180,-117,-112
107,-19,-126,-43,117,-73,-136,-53,-29,-170,-112,-107
112,-19,-131,-46,122,-75,-136,-53,-29,-170,-112,-107
112,-24,-136,-43,124,-80,-131,-43,-29,-165,-107,-112
107,-34,-141,-36,124,-87,-141,-34,-19,-156,-97,-122
112,-24,-136,-43,124,-80,-141,-34,-19,-151,-92,-126
92,-24,-117,-34,104,-70,-136,-29,-14,-151,-92,-131
87,-34,-122,-26,104,-78,-136,-24,-4,-141,-82,-112
87,-29,-117,-29,102,-73,-131,-19,0,-146,-87,-117
87,-19,-107,-34,97,-63,-131,-19,0,-141,-92,-117
92,-9,-102,-41,97,-56,-136,-19,-4,-141,-92,-112
112,0,-112,-56,112,-56,-141,-19,-9,-146,-87,-112
131,-14,-146,-58,139,-80,-146,-19,0,-136,-78,-102
126,-24,-151,-51,139,-87,-146,-14,0,-131,-78,-97
122,-34,-156,-43,139,-95,-136,-4,0,-122,-78,-87
92,-43,-136,-24,114,-90,-126,4,9,-122,-78,-73
97,-34,-131,-31,114,-82,-117,19,19,-112,-73,-63
102,-34,-136,-34,119,-85,-117,19,24,-112,-73,-63
107,-24,-131,-41,119,-78,-117,19,24,-112,-63,-58
122,-24,-146,-48,134,-85,-117,19,24,-112,-63,-58
102,-24,-126,-39,114,-75,-102,29,29,-112,-63,-58
97,-14,-112,-41,104,-63,-102,43,39,-107,-63,-58
97,-4,-102,-46,100,-53,-102,53,43,-102,-58,-58
97,4,-92,-51,95,-43,-92,63,48,-97,-58,-53
102,0,-102,-51,102,-51,-87,73,63,-73,-39,-48
102,-4,-107,-48,104,-56,-87,78,68,-68,-29,-43
112,-9,-122,-51,117,-65,-82,82,73,-63,-24,-39
122,-9,-131,-56,126,-70,-78,87,82,-58,-19,-43
122,-4,-126,-58,124,-65,-73,92,92,-58,-24,-39
122,0,-122,-61,122,-61,-63,102,92,-53,-24,-43
117,4,-112,-61,114,-53,-63,107,92,-53,-24,-53
102,14,-87,-58,95,-36,-53,112,97,-43,-19,-63
107,4,-102,-56,104,-48,-58,117,107,-43,-9,-78
107,0,-107,-53,107,-53,-58,122,112,-43,-14,-78
97,0,-97,-48,97,-48,-53,122,117,-43,-19,-78
112,4,-107,-58,109,-51,-48,122,117,-43,-29,-78
126,0,-126,-63,126,-63,-39,131,117,-34,-29,-92
122,-4,-126,-58,124,-65,-43,131,117,-39,-34,-92
117,-9,-126,-53,122,-68,-43,136,117,-39,-34,-92
117,-19,-136,-48,126,-78,-48,136,117,-39,-29,-92
131,-29,-161,-51,146,-95,-43,141,126,-39,-19,-97
117,-24,-141,-46,129,-82,-34,151,126,-29,-14,-87
122,-19,-141,-51,131,-80,-29,161,136,-24,-14,-82
122,-19,-141,-51,131,-80,-24,165,136,-14,-9,-82
122,-14,-136,-53,129,-75,-14,156,136,-24,-4,-82
122,-9,-131,-56,126,-70,-14,156,136,-24,-4,-82
117,-9,-126,-53,122,-68,-24,156,146,-19,4,-78
107,-9,-117,-48,112,-63,-24,165,156,-9,4,-78
107,-14,-122,-46,114,-68,-34,156,146,-19,9,-87
112,-19,-131,-46,122,-75,-43,151,141,-19,-9,-92
102,-29,-131,-36,117,-80,-48,141,136,-19,-14,-97
87,-34,-122,-26,104,-78,-48,131,136,-14,-9,-112
78,-39,-117,-19,97,-78,-68,122,136,-19,-4,-122
97,-39,-136,-29,117,-87,-78,122,136,-19,-4,-122
112,-43,-156,-34,134,-100,-87,126,136,-19,-4,-112
112,-43,-156,-34,134,-100,-97,126,141,-14,0,-107
102,-29,-131,-36,117,-80,-112,122,136,-19,-9,-92
102,-14,-117,-43,109,-65,-117,117,131,-24,-9,-87
97,-14,-112,-41,104,-63,-117,112,131,-19,-9,-82
97,-19,-117,-39,107,-68,-117,107,131,-24,-9,-78
102,-19,-122,-41,112,-70,-117,107,117,-29,-14,-73
102,-19,-122,-41,112,-70,-122,102,117,-29,-19,-73
122,-9,-131,-56,126,-70,-126,107,122,-29,-19,-78
122,-4,-126,-58,124,-65,-131,107,126,-19,-19,-82
107,-14,-122,-46,114,-68,-126,107,122,-24,-29,-73
112,-24,-136,-43,124,-80,-131,102,122,-24,-29,-73
112,-34,-146,-39,129,-90,-131,112,131,-29,-24,-73
112,-43,-156,-34,134,-100,-131,117,136,-29,-19,-68
122,-53,-175,-34,148,-114,-136,117,131,-19,-14,-58
122,-53,-175,-34,148,-114,-141,122,136,-19,-9,-58
122,-58,-180,-31,151,-119,-146,117,141,-24,-4,-58
117,-63,-180,-26,148,-122,-151,117,146,-24,-4,-68
117,-58,-175,-29,146,-117,-161,122,141,-9,-9,-73
112,-53,-165,-29,139,-109,-151,126,151,0,-4,-73
112,-53,-165,-29,139,-109,-151,136,165,0,-4,-78
117,-48,-165,-34,141,-107,-156,141,170,-4,-4,-78
131,-39,-170,-46,151,-104,-161,146,175,4,0,-63
136,-39,-175,-48,156,-107,-161,156,185,9,0,-63
131,-39,-170,-46,151,-104,-165,165,190,14,9,-63
126,-39,-165,-43,146,-102,-165,175,200,19,14,-63
131,-29,-161,-51,146,-95,-161,195,204,24,14,-78
136,-24,-161,-56,148,-92,-161,209,214,34,24,-78
131,-29,-161,-51,146,-95,-165,219,219,39,24,-68
126,-24,-151,-51,139,-87,-161,229,229,43,24,-68
151,-4,-156,-73,153,-80,-170,234,248,63,39,-68
161,9,-151,-85,156,-70,-165,248,258,73,39,-63
165,19,-146,-92,156,-63,-156,258,268,73,43,-53
170,14,-156,-92,163,-70,-146,268,273,78,43,-34
175,0,-175,-87,175,-87,-136,287,287,87,48,-19
175,0,-175,-87,175,-87,-141,307,297,92,53,-9
170,-4,-175,-82,173,-90,-141,317,307,102,58,0
170,-9,-180,-80,175,-95,-141,351,326,117,73,14
180,0,-180,-90,180,-90,-117,366,356,141,82,4
175,9,-165,-92,170,-78,-112,385,370,146,82,4
175,9,-165,-92,170,-78,-112,400,375,146,78,4
170,19,-151,-95,161,-65,-112,424,390,156,78,4
175,39,-136,-107,156,-48,-122,439,400,161,78,14
175,29,-146,-102,161,-58,-122,444,400,165,87,19
180,29,-151,-104,165,-61,-122,453,409,165,92,24
185,24,-161,-104,173,-68,-117,463,419,175,92,39
185,4,-180,-95,183,-87,-117,488,429,180,92,39
195,0,-195,-97,195,-97,-117,492,439,185,92,39
200,0,-200,-100,200,-100,-117,502,444,190,97,39
200,9,-190,-104,195,-90,-117,512,448,195,102,39
214,19,-195,-117,204,-87,-126,522,458,204,97,29
214,34,-180,-124,197,-73,-126,531,468,209,97,29
214,53,-161,-134,187,-53,-126,541,468,209,97,29
214,63,-151,-139,183,-43,-122,551,468,209,97,29
214,53,-161,-134,187,-53,-117,566,478,224,107,29
209,53,-156,-131,183,-51,-112,570,483,224,107,24
209,53,-156,-131,183,-51,-112,580,488,219,107,24
209,53,-156,-131,183,-51,-117,585,492,214,107,29
224,48,-175,-136,200,-63,-117,575,488,204,92,19
229,43,-185,-136,207,-70,-117,570,483,204,87,14
229,34,-195,-131,212,-80,-117,570,473,204,82,9
234,29,-204,-131,219,-87,-117,566,468,204,78,9
234,43,-190,-139,212,-73,-112,570,473,204,78,9
234,48,-185,-141,209,-68,-112,566,473,200,78,4
234,58,-175,-146,204,-58,-112,561,463,200,78,-4
234,58,-175,-146,204,-58,-117,546,463,204,82,-9
219,63,-156,-141,187,-46,-126,541,453,209,92,4
209,68,-141,-139,175,-36,-141,531,448,209,102,14
209,68,-141,-139,175,-36,-146,512,434,190,97,14
209,73,-136,-141,173,-31,-151,488,409,170,92,4
200,82,-117,-141,158,-17,-170,448,395,165,97,-4
200,82,-117,-141,158,-17,-180,409,385,156,97,0
190,82,-107,-136,148,-12,-180,366,356,161,87,-4
185,92,-92,-139,139,0,-180,322,341,161,78,-14
195,87,-107,-141,151,-9,-195,292,326,151,78,-24
195,73,-122,-134,158,-24,-195,258,307,146,82,-24
190,68,-122,-129,156,-26,-190,234,297,141,92,-24
185,63,-122,-124,153,-29,-190,209,283,131,97,-24
175,53,-122,-114,148,-34,-180,185,263,131,87,-14
175,53,-122,-114,148,-34,-180,151,244,117,78,-9
175,58,-117,-117,146,-29,-180,117,214,92,68,-4
175,58,-117,-117,146,-29,-180,102,195,73,58,-4
165,53,-112,-109,139,-29,-170,78,170,53,53,-4
156,48,-107,-102,131,-29,-170,48,156,43,53,-4
146,48,-97,-97,122,-24,-165,24,136,29,43,0
141,48,-92,-95,117,-21,-165,0,126,14,19,0
136,39,-97,-87,117,-29,-161,-29,92,-4,14,4
126,34,-92,-80,109,-29,-161,-48,68,-19,4,0
122,29,-92,-75,107,-31,-161,-58,53,-43,4,-9
117,14,-102,-65,109,-43,-165,-78,34,-68,0,-9
117,4,-112,-61,114,-53,-180,-92,4,-82,-9,-14
117,0,-117,-58,117,-58,-180,-107,4,-87,-24,-19
122,0,-122,-61,122,-61,-185,-122,-4,-97,-39,-14
122,-4,-126,-58,124,-65,-190,-141,-4,-107,-48,-9
122,-14,-136,-53,129,-75,-190,-156,-19,-117,-68,-29
112,-9,-122,-51,117,-65,-190,-165,-24,-136,-78,-34
112,-4,-117,-53,114,-61,-190,-170,-43,-146,-78,-43
112,0,-112,-56,112,-56,-195,-175,-58,-156,-82,-58
112,-9,-122,-51,117,-65,-200,-190,-58,-151,-87,-63
112,-19,-131,-46,122,-75,-204,-195,-63,-161,-97,-63
112,-29,-141,-41,126,-85,-209,-200,-68,-165,-107,-63
107,-34,-141,-36,124,-87,-214,-200,-68,-170,-107,-63
102,-43,-146,-29,124,-95,-209,-190,-63,-165,-102,-58
107,-43,-151,-31,129,-97,-204,-185,-63,-165,-102,-63
107,-43,-151,-31,129,-97,-195,-185,-58,-165,-102,-68
112,-43,-156,-34,134,-100,-180,-185,-58,-165,-107,-73
117,-29,-146,-43,131,-87,-161,-180,-53,-170,-97,-78
112,-34,-146,-39,129,-90,-161,-180,-53,-170,-92,-82
97,-34,-131,-31,114,-82,-161,-180,-58,-175,-92,-82
102,-29,-131,-36,117,-80,-161,-175,-58,-175,-102,-78
112,-34,-146,-39,129,-90,-151,-165,-43,-165,-97,-68
102,-39,-141,-31,122,-90,-146,-165,-43,-175,-102,-68
102,-43,-146,-29,124,-95,-141,-180,-58,-180,-107,-68
107,-58,-165,-24,136,-112,-131,-185,-58,-180,-107,-63
107,-48,-156,-29,131,-102,-126,-180,-53,-175,-92,-73
102,-43,-146,-29,124,-95,-126,-170,-58,-175,-92,-68
97,-39,-136,-29,117,-87,-126,-165,-58,-180,-87,-63
97,-39,-136,-29,117,-87,-117,-156,-53,-180,-87,-68
102,-48,-151,-26,126,-100,-107,-151,-48,-170,-87,-78
107,-53,-161,-26,134,-107,-107,-146,-48,-170,-87,-78
102,-53,-156,-24,129,-104,-107,-131,-43,-170,-82,-73
107,-53,-161,-26,134,-107,-102,-122,-39,-170,-82,-73
107,-39,-146,-34,126,-92,-87,-117,-29,-170,-97,-82
97,-29,-126,-34,112,-78,-82,-107,-29,-170,-102,-82
107,-24,-131,-41,119,-78,-73,-102,-29,-175,-102,-82
122,-19,-141,-51,131,-80,-68,-97,-24,-180,-97,-82
122,-19,-141,-51,131,-80,-63,-97,-9,-175,-92,-87
122,-24,-146,-48,134,-85,-48,-82,-4,-165,-87,-87
112,-29,-141,-41,126,-85,-43,-82,0,-146,-82,-97
112,-29,-141,-41,126,-85,-39,-82,0,-141,-78,-102
117,-43,-161,-36,139,-102,-48,-82,-4,-146,-87,-92
112,-48,-161,-31,136,-104,-48,-78,-4,-151,-87,-92
102,-53,-156,-24,129,-104,-48,-68,0,-151,-78,-92
92,-58,-151,-17,122,-104,-43,-63,4,-151,-78,-92
82,-63,-146,-9,114,-104,-39,-73,4,-141,-78,-78
87,-63,-151,-12,119,-107,-48,-68,4,-141,-78,-63
92,-58,-151,-17,122,-104,-53,-63,4,-141,-78,-58
92,-58,-151,-17,122,-104,-48,-63,9,-136,-78,-48
102,-53,-156,-24,129,-104,-43,-78,0,-146,-92,-63
102,-48,-151,-26,126,-100,-39,-87,0,-146,-97,-63
92,-39,-131,-26,112,-85,-34,-92,0,-146,-102,-58
92,-34,-126,-29,109,-80,-29,-97,0,-146,-102,-58
87,-19,-107,-34,97,-63,-19,-97,0,-141,-97,-43
82,-19,-102,-31,92,-61,-14,-97,9,-141,-92,-43
78,-29,-107,-24,92,-68,-14,-102,9,-141,-92,-43
78,-39,-117,-19,97,-78,-9,-102,9,-141,-87,-48
78,-34,-112,-21,95,-73,-4,-107,4,-146,-73,-43
78,-39,-117,-19,97,-78,-4,-112,4,-146,-68,-39
87,-53,-141,-17,114,-97,-14,-117,4,-141,-68,-34
92,-58,-151,-17,122,-104,-19,-122,4,-141,-68,-29
92,-58,-151,-17,122,-104,-29,-136,4,-146,-87,-39
87,-53,-141,-17,114,-97,-43,-141,0,-146,-92,-48
78,-53,-131,-12,104,-92,-58,-146,-4,-146,-97,-58
63,-53,-117,-4,90,-85,-68,-146,-4,-151,-97,-68
82,-29,-112,-26,97,-70,-78,-156,-4,-156,-87,-63
78,-29,-107,-24,92,-68,-87,-151,-4,-151,-82,-58
97,-39,-136,-29,117,-87,-92,-151,-9,-146,-82,-63
117,-43,-161,-36,139,-102,-92,-151,-9,-146,-82,-58
117,-34,-151,-41,134,-92,-97,-156,-4,-141,-82,-34
97,-14,-112,-41,104,-63,-107,-156,-4,-131,-73,-34
82,-14,-97,-34,90,-56,-107,-146,4,-122,-63,-24
68,-9,-78,-29,73,-43,-97,-126,19,-107,-58,-9
68,-19,-87,-24,78,-53,-102,-126,19,-117,-68,-14
68,-19,-87,-24,78,-53,-107,-126,19,-117,-68,-19
68,-19,-87,-24,78,-53,-112,-126,19,-117,-68,-24
68,-19,-87,-24,78,-53,-117,-126,19,-117,-68,-29
73,-9,-82,-31,78,-46,-117,-117,24,-107,-68,-29
78,-4,-82,-36,80,-43,-117,-117,24,-112,-68,-29
87,-4,-92,-41,90,-48,-126,-117,29,-112,-63,-29
92,-4,-97,-43,95,-51,-136,-117,34,-112,-53,-29
102,0,-102,-51,102,-51,-141,-107,43,-107,-58,-19
102,0,-102,-51,102,-51,-146,-102,43,-102,-53,-19
107,0,-107,-53,107,-53,-151,-97,43,-97,-53,-19
112,4,-107,-58,109,-51,-151,-92,48,-92,-48,-19
117,-9,-126,-53,122,-68,-146,-82,58,-82,-39,-4
117,-14,-131,-51,124,-73,-146,-82,58,-82,-39,0
112,-19,-131,-46,122,-75,-146,-82,58,-87,-43,9
112,-19,-131,-46,122,-75,-146,-78,58,-87,-43,14
102,-9,-112,-46,107,-61,-151,-87,58,-97,-48,9
102,0,-102,-51,102,-51,-151,-87,58,-97,-53,4
102,4,-97,-53,100,-46,-146,-87,63,-97,-58,-4
107,14,-92,-61,100,-39,-146,-87,63,-97,-63,-9
102,4,-97,-53,100,-46,-146,-82,73,-87,-53,-9
97,4,-92,-51,95,-43,-146,-73,73,-87,-53,-14
87,9,-78,-48,82,-34,-146,-68,73,-87,-53,-14
78,19,-58,-48,68,-19,-146,-63,73,-87,-53,-14
87,9,-78,-48,82,-34,-131,-58,87,-87,-58,-19
82,-14,-97,-34,90,-56,-122,-48,87,-82,-68,-19
82,-24,-107,-29,95,-65,-122,-43,87,-82,-73,-24
82,-34,-117,-24,100,-75,-146,-39,87,-87,-73,-29
63,-34,-97,-14,80,-65,-151,-34,82,-87,-73,-39
78,-24,-102,-26,90,-63,-131,-34,78,-87,-73,-34
78,-19,-97,-29,87,-58,-117,-39,73,-92,-78,-29
73,-19,-92,-26,82,-56,-107,-43,82,-92,-78,-29
82,-14,-97,-34,90,-56,-107,-53,68,-97,-87,-24
82,-4,-87,-39,85,-46,-107,-58,58,-102,-97,-24
92,-14,-107,-39,100,-61,-102,-58,53,-117,-107,-24
92,-19,-112,-36,102,-65,-102,-63,43,-122,-117,-29
82,-29,-112,-26,97,-70,-112,-73,34,-122,-126,-34
73,-34,-107,-19,90,-70,-107,-73,34,-122,-126,-34
73,-39,-112,-17,92,-75,-112,-78,29,-126,-126,-39
97,-39,-136,-29,117,-87,-117,-87,29,-126,-122,-58
92,-29,-122,-31,107,-75,-122,-92,24,-136,-122,-68
68,-29,-97,-19,82,-63,-122,-97,24,-131,-122,-73
63,-34,-97,-14,80,-65,-126,-102,24,-131,-122,-73
68,-34,-102,-17,85,-68,-131,-97,19,-131,-122,-73
53,-19,-73,-17,63,-46,-126,-107,24,-126,-131,-58
43,-19,-63,-12,53,-41,-117,-107,24,-126,-126,-53
29,-14,-43,-7,36,-29,-112,-107,19,-126,-126,-48
34,-14,-48,-9,41,-31,-102,-107,19,-126,-126,-43
43,-24,-68,-9,56,-46,-97,-97,9,-141,-131,-34
43,-29,-73,-7,58,-51,-87,-97,9,-146,-136,-29
43,-34,-78,-4,61,-56,-78,-97,9,-146,-136,-24
39,-39,-78,0,58,-58,-68,-97,14,-151,-141,-24
29,-43,-73,7,51,-58,-58,-97,14,-151,-141,-14
39,-48,-87,4,63,-68,-58,-97,14,-151,-141,-19
39,-53,-92,7,65,-73,-58,-97,14,-151,-146,-19
34,-63,-97,14,65,-80,-68,-97,14,-156,-146,-29
43,-58,-102,7,73,-80,-68,-102,4,-165,-146,-29
43,-58,-102,7,73,-80,-68,-107,0,-165,-146,-39
48,-53,-102,2,75,-78,-63,-112,-4,-165,-146,-39
48,-53,-102,2,75,-78,-63,-117,-9,-165,-151,-39
53,-58,-112,2,82,-85,-78,-117,-24,-170,-151,-39
58,-63,-122,2,90,-92,-82,-122,-24,-175,-156,-43
68,-78,-146,4,107,-112,-87,-122,-24,-175,-156,-43
73,-82,-156,4,114,-119,-92,-122,-29,-175,-151,-39
63,-82,-146,9,104,-114,-97,-131,-19,-170,-141,-39
53,-82,-136,14,95,-109,-97,-131,-19,-165,-146,-39
48,-92,-141,21,95,-117,-97,-136,-19,-161,-146,-39
43,-82,-126,19,85,-104,-97,-136,-19,-156,-146,-39
43,-92,-136,24,90,-114,-102,-146,-29,-170,-156,-48
43,-92,-136,24,90,-114,-102,-146,-34,-170,-161,-53
43,-92,-136,24,90,-114,-107,-141,-39,-175,-165,-53
48,-92,-141,21,95,-117,-107,-141,-43,-180,-170,-43
58,-82,-141,12,100,-112,-107,-151,-48,-190,-175,-43
53,-82,-136,14,95,-109,-112,-156,-48,-190,-175,-39
53,-78,-131,12,92,-104,-117,-161,-48,-190,-180,-39
58,-78,-136,9,97,-107,-122,-165,-48,-190,-180,-39
58,-73,-131,7,95,-102,-122,-161,-39,-185,-175,-34
58,-73,-131,7,95,-102,-131,-165,-39,-190,-170,-34
58,-73,-131,7,95,-102,-136,-165,-39,-185,-165,-34
58,-73,-131,7,95,-102,-136,-165,-43,-190,-161,-34
43,-73,-117,14,80,-95,-122,-151,-39,-175,-151,-24
39,-68,-107,14,73,-87,-117,-146,-34,-165,-151,-24
34,-68,-102,17,68,-85,-117,-141,-29,-156,-146,-24
29,-68,-97,19,63,-82,-122,-136,-24,-151,-146,-24
48,-53,-102,2,75,-78,-122,-136,-14,-151,-136,-29
53,-43,-97,-4,75,-70,-117,-136,-9,-151,-136,-29
58,-34,-92,-12,75,-63,-112,-136,-9,-146,-136,-24
63,-24,-87,-19,75,-56,-112,-136,-9,-141,-136,-24
63,-34,-97,-14,80,-65,-117,-131,0,-126,-126,-29
63,-34,-97,-14,80,-65,-107,-126,4,-126,-126,-29
58,-34,-92,-12,75,-63,-102,-122,4,-126,-122,-29
48,-29,-78,-9,63,-53,-102,-117,4,-126,-117,-34
43,-48,-92,2,68,-70,-82,-107,19,-117,-117,-34
34,-19,-53,-7,43,-36,-68,-97,29,-102,-102,-34
29,-19,-48,-4,39,-34,-58,-92,43,-92,-102,-34
48,-19,-68,-14,58,-43,-58,-73,53,-87,-97,-48
68,4,-63,-36,65,-29,-63,-39,82,-63,-92,-53
58,48,-9,-53,34,19,-53,14,146,0,-53,-34
48,73,24,-61,12,48,-48,73,244,102,34,19
58,73,14,-65,21,43,-48,136,331,229,131,82
97,58,-39,-78,68,9,-48,200,405,312,219,126
126,24,-102,-75,114,-39,-58,326,512,429,351,200
165,39,-126,-102,146,-43,-58,531,707,639,561,326
219,126,-92,-173,156,17,-68,717,912,893,863,512
287,234,-53,-261,170,90,-92,790,1058,1137,1176,722
326,336,9,-331,158,173,-136,741,1161,1356,1493,927
341,439,97,-390,122,268,-190,624,1224,1561,1810,1161
326,536,209,-431,58,373,-239,473,1244,1722,2122,1410
336,590,253,-463,41,422,-258,312,1190,1800,2376,1634
419,610,190,-514,114,400,-273,136,1039,1756,2483,1781
502,629,126,-566,187,378,-322,-82,795,1561,2444,1849
497,639,141,-568,178,390,-346,-312,512,1244,2186,1786
444,600,156,-522,143,378,-287,-492,224,824,1688,1546
380,546,165,-463,107,356,-161,-605,-39,390,1112,1180
263,439,175,-351,43,307,19,-639,-234,-19,478,717
102,263,161,-183,-29,212,219,-707,-483,-492,-297,102
-53,107,161,-26,-107,134,326,-966,-888,-1034,-961,-414
-151,87,239,31,-195,163,356,-1288,-1302,-1459,-1312,-644
-219,112,331,53,-275,222,322,-1551,-1595,-1737,-1473,-736
-268,122,390,73,-329,256,224,-1800,-1800,-1903,-1590,-805
-287,131,419,78,-353,275,141,-1912,-1888,-1927,-1571,-785
-302,136,439,82,-370,287,87,-1849,-1830,-1825,-1454,-717
-302,146,448,78,-375,297,24,-1742,-1737,-1727,-1342,-678
-292,146,439,73,-366,292,-63,-1678,-1654,-1654,-1273,-639
-292,146,439,73,-366,292,-117,-1566,-1527,-1532,-1166,-580
-302,175,478,63,-390,326,-146,-1415,-1342,-1371,-1039,-507
-283,204,488,39,-385,346,-165,-1283,-1171,-1224,-941,-448
-224,175,400,24,-312,287,-170,-1132,-1005,-1073,-854,-400
-161,136,297,12,-229,217,-165,-961,-834,-932,-766,-366
-117,126,244,-4,-180,185,-170,-785,-663,-780,-658,-317
-82,122,204,-19,-143,163,-170,-614,-488,-619,-527,-253
-68,87,156,-9,-112,122,-161,-448,-331,-478,-419,-185
-34,58,92,-12,-63,75,-151,-326,-209,-380,-356,-141
-9,39,48,-14,-29,43,-136,-263,-126,-307,-302,-122
0,19,19,-9,-9,19,-131,-219,-92,-263,-283,-126
0,0,0,0,0,0,-122,-204,-68,-239,-268,-117
9,19,9,-14,0,14,-126,-185,-34,-209,-248,-102
4,39,34,-21,-14,36,-131,-165,-14,-185,-219,-68
4,24,19,-14,-7,21,-146,-146,-4,-170,-204,-58
24,-4,-29,-9,26,-17,-146,-126,0,-165,-200,-73
29,-29,-58,0,43,-43,-151,-122,0,-161,-195,-82
39,-43,-82,2,61,-63,-151,-102,9,-151,-190,-92
68,-34,-102,-17,85,-68,-146,-87,19,-146,-200,-102
63,-34,-97,-14,80,-65,-141,-82,39,-131,-185,-82
58,-29,-87,-14,73,-58,-136,-82,39,-122,-180,-78
53,-29,-82,-12,68,-56,-136,-82,39,-122,-180,-78
43,-34,-78,-4,61,-56,-131,-73,39,-117,-175,-82
34,-53,-87,9,61,-70,-131,-53,48,-107,-165,-68
43,-43,-87,0,65,-65,-131,-53,48,-102,-161,-58
29,-43,-73,7,51,-58,-126,-48,53,-102,-161,-48
29,-53,-82,12,56,-68,-126,-43,63,-92,-151,-14
34,-68,-102,17,68,-85,-107,-29,73,-78,-141,0
29,-68,-97,19,63,-82,-102,-29,78,-73,-141,0
29,-68,-97,19,63,-82,-102,-29,78,-73,-136,4
43,-68,-112,12,78,-90,-102,-29,78,-78,-126,4
58,-58,-117,0,87,-87,-97,-29,78,-87,-126,-4
58,-63,-122,2,90,-92,-97,-24,78,-82,-126,-9
58,-68,-126,4,92,-97,-87,-14,78,-73,-126,-9
34,-73,-107,19,70,-90,-78,-4,87,-73,-126,-4
43,-78,-122,17,82,-100,-78,0,87,-63,-141,-4
43,-82,-126,19,85,-104,-78,0,92,-63,-141,-4
43,-78,-122,17,82,-100,-78,0,92,-63,-131,0
53,-82,-136,14,95,-109,-78,0,92,-63,-131,0
34,-92,-126,29,80,-109,-73,-4,82,-68,-141,0
29,-92,-122,31,75,-107,-73,4,87,-68,-141,0
29,-92,-122,31,75,-107,-73,9,87,-68,-136,0
29,-92,-122,31,75,-107,-63,14,87,-68,-136,4
24,-102,-126,39,75,-114,-63,19,97,-58,-141,4
24,-102,-126,39,75,-114,-68,19,97,-58,-136,4
34,-102,-136,34,85,-119,-68,19,97,-58,-136,4
43,-97,-141,26,92,-119,-68,19,102,-58,-136,-4
43,-92,-136,24,90,-114,-63,14,102,-58,-122,-9
43,-87,-131,21,87,-109,-53,14,102,-53,-122,-14
39,-82,-122,21,80,-102,-53,9,102,-53,-122,-24
24,-73,-97,24,61,-85,-43,4,107,-43,-117,-34
29,-73,-102,21,65,-87,-48,14,97,-53,-107,-48
29,-78,-107,24,68,-92,-48,14,102,-53,-112,-48
19,-78,-97,29,58,-87,-43,9,107,-53,-117,-48
34,-73,-107,19,70,-90,-39,4,107,-53,-126,-48
39,-78,-117,19,78,-97,-39,4,97,-43,-117,-63
34,-82,-117,24,75,-100,-43,4,97,-48,-122,-63
29,-87,-117,29,73,-102,-43,9,97,-48,-122,-63
29,-97,-126,34,78,-112,-48,9,97,-48,-117,-63
24,-87,-112,31,68,-100,-43,14,117,-39,-107,-58
0,-82,-82,41,41,-82,-34,24,117,-29,-102,-48
-4,-78,-73,41,34,-75,-29,34,126,-24,-102,-43
-14,-78,-63,46,24,-70,-24,39,126,-14,-97,-43
4,-63,-68,29,36,-65,-24,48,126,-19,-97,-58
14,-58,-73,21,43,-65,-24,48,126,-24,-102,-63
19,-58,-78,19,48,-68,-34,48,136,-24,-97,-63
19,-58,-78,19,48,-68,-34,58,146,-19,-102,-68
14,-68,-82,26,48,-75,-24,73,156,-4,-87,-63
24,-68,-92,21,58,-80,-24,82,161,0,-97,-63
19,-73,-92,26,56,-82,-19,87,165,4,-92,-63
9,-73,-82,31,46,-78,-9,92,175,14,-78,-73
-4,-58,-53,31,24,-56,-4,102,185,29,-63,-78
9,-58,-68,24,39,-63,-9,102,185,29,-63,-73
19,-63,-82,21,51,-73,-14,107,185,29,-63,-58
14,-63,-78,24,46,-70,-19,107,190,34,-58,-48
4,-43,-48,19,26,-46,-29,107,190,34,-58,-39
4,-24,-29,9,17,-26,-39,107,190,34,-58,-29
0,-19,-19,9,9,-19,-43,107,195,43,-58,-19
0,-19,-19,9,9,-19,-48,107,200,43,-58,-9
-9,-19,-9,14,0,-14,-48,117,204,48,-39,14
-14,-19,-4,17,-4,-12,-53,122,214,58,-39,24
0,-9,-9,4,4,-9,-58,136,229,68,-34,29
-4,-4,0,4,-2,-2,-63,146,244,87,-29,34
0,-9,-9,4,4,-9,-82,141,239,78,-29,34
14,-14,-29,0,21,-21,-92,141,239,82,-29,34
24,-19,-43,-2,34,-31,-97,156,248,82,-24,34
34,-24,-58,-4,46,-41,-102,165,253,87,-19,39
24,-19,-43,-2,34,-31,-102,170,253,92,-14,43
24,-14,-39,-4,31,-26,-102,180,253,97,-9,48
24,-14,-39,-4,31,-26,-102,180,253,97,-4,53
19,-14,-34,-2,26,-24,-102,185,253,102,-4,48
9,-14,-24,2,17,-19,-97,200,268,117,0,43
4,-14,-19,4,12,-17,-82,204,278,126,4,43
4,-19,-24,7,14,-21,-78,214,292,126,4,39
9,-19,-29,4,19,-24,-78,219,297,122,4,39
19,-19,-39,0,29,-29,-68,234,302,126,9,53
19,-19,-39,0,29,-29,-63,244,312,136,9,53
9,-19,-29,4,19,-24,-63,253,317,146,19,53
0,-19,-19,9,9,-19,-58,263,326,156,24,53
9,-4,-14,-2,12,-9,-48,283,336,175,43,53
9,4,-4,-7,7,0,-53,297,351,190,53,58
0,4,4,-2,-2,4,-63,307,361,200,53,73
-9,14,24,-2,-17,19,-63,317,375,209,53,78
0,19,19,-9,-9,19,-58,322,375,209,68,73
4,19,14,-12,-4,17,-48,336,385,219,68,73
4,14,9,-9,-2,12,-34,346,395,219,73,78
4,-4,-9,0,7,-7,-19,356,400,224,73,92
4,-4,-9,0,7,-7,-9,370,419,239,82,87
9,0,-9,-4,9,-4,-14,385,424,239,82,78
9,0,-9,-4,9,-4,-14,390,429,244,82,68
14,0,-14,-7,14,-7,-14,419,444,253,92,63
14,9,-4,-12,9,2,-14,429,468,278,107,78
9,19,9,-14,0,14,-14,444,478,283,112,82
9,19,9,-14,0,14,-19,453,478,283,112,87
4,29,24,-17,-9,26,-24,473,488,292,117,92
9,34,24,-21,-7,29,-34,478,497,297,107,112
9,19,9,-14,0,14,-34,483,497,302,117,117
14,14,0,-14,7,7,-34,492,507,302,122,122
19,4,-14,-12,17,-4,-29,502,517,312,122,136
14,4,-9,-9,12,-2,-34,502,517,326,126,146
19,0,-19,-9,19,-9,-39,502,527,331,131,146
19,0,-19,-9,19,-9,-43,507,531,336,141,146
14,9,-4,-12,9,2,-48,512,536,341,151,146
14,14,0,-14,7,7,-48,507,546,351,156,151
9,24,14,-17,-2,19,-48,512,556,356,156,156
4,39,34,-21,-14,36,-48,517,556,356,156,161
0,43,43,-21,-21,43,-43,522,556,356,156,165
-4,34,39,-14,-21,36,-34,531,570,370,146,156
-4,34,39,-14,-21,36,-34,531,570,370,146,151
0,34,34,-17,-17,34,-39,536,570,366,146,151
4,34,29,-19,-12,31,-48,536,570,361,146,156
4,34,29,-19,-12,31,-43,541,580,366,146,170
4,34,29,-19,-12,31,-48,541,580,370,146,170
0,29,29,-14,-14,29,-53,546,575,375,146,170
0,29,29,-14,-14,29,-58,546,575,380,146,175
0,29,29,-14,-14,29,-58,546,570,375,136,175
0,29,29,-14,-14,29,-53,536,570,366,136,170
0,34,34,-17,-17,34,-48,527,561,361,136,161
0,29,29,-14,-14,29,-48,507,561,361,141,156
4,29,24,-17,-9,26,-43,502,556,366,151,165
-4,29,34,-12,-19,31,-53,492,546,366,161,170
-4,24,29,-9,-17,26,-53,473,527,346,156,165
-4,24,29,-9,-17,26,-53,448,497,326,151,151
4,24,19,-14,-7,21,-63,434,492,326,146,146
4,24,19,-14,-7,21,-73,400,483,312,146,156
-4,24,29,-9,-17,26,-73,361,453,312,136,156
-9,34,43,-12,-26,39,-73,322,439,307,126,151
-19,53,73,-17,-46,63,-87,297,405,292,117,136
-19,43,63,-12,-41,53,-87,268,385,283,112,131
-24,43,68,-9,-46,56,-82,248,375,273,112,126
-29,43,73,-7,-51,58,-82,229,361,258,107,122
-19,43,63,-12,-41,53,-73,204,331,234,82,107
-19,43,63,-12,-41,53,-73,170,312,214,68,107
-19,48,68,-14,-43,58,-73,136,283,185,53,107
-19,48,68,-14,-43,58,-73,122,263,161,39,102
-19,29,48,-4,-34,39,-68,107,239,151,34,107
-29,19,48,4,-39,34,-63,87,224,141,34,102
-39,14,53,12,-46,34,-53,73,204,126,24,102
-43,9,53,17,-48,31,-48,58,195,112,0,97
-39,4,43,17,-41,24,-53,29,170,82,-29,92
-39,4,43,17,-41,24,-53,9,146,68,-43,78
-34,4,39,14,-36,21,-53,0,131,43,-48,58
-29,-4,24,17,-26,9,-58,-19,112,19,-58,48
-19,-14,4,17,-12,-4,-58,-19,92,4,-68,29
-19,-19,0,19,-9,-9,-53,-29,92,0,-82,19
-14,-19,-4,17,-4,-12,-53,-39,82,-9,-97,19
-14,-24,-9,19,-2,-17,-53,-53,82,-19,-107,19
0,-24,-24,12,12,-24,-58,-63,63,-19,-126,4
-4,-19,-14,12,4,-17,-53,-68,63,-39,-136,4
0,-14,-14,7,7,-14,-48,-68,48,-48,-136,0
4,-9,-14,2,9,-12,-48,-68,39,-58,-141,-9
9,-19,-29,4,19,-24,-39,-63,39,-53,-136,-14
14,-19,-34,2,24,-26,-39,-68,34,-63,-146,-14
19,-19,-39,0,29,-29,-39,-73,29,-68,-156,-14
19,-14,-34,-2,26,-24,-39,-73,29,-73,-156,-14
34,-14,-48,-9,41,-31,-48,-87,19,-82,-165,-24
48,-14,-63,-17,56,-39,-48,-87,14,-87,-170,-34
58,-14,-73,-21,65,-43,-43,-92,14,-92,-175,-43
73,-14,-87,-29,80,-51,-34,-97,9,-97,-185,-53
73,-14,-87,-29,80,-51,-34,-92,-4,-112,-185,-68
63,-24,-87,-19,75,-56,-34,-92,-4,-112,-180,-82
43,-29,-73,-7,58,-51,-34,-92,-9,-117,-180,-92
43,-29,-73,-7,58,-51,-34,-87,-9,-117,-190,-97
58,-39,-97,-9,78,-68,-19,-87,-14,-117,-185,-87
53,-39,-92,-7,73,-65,-19,-87,-14,-126,-190,-87
58,-39,-97,-9,78,-68,-19,-102,-29,-131,-195,-87
68,-48,-117,-9,92,-82,-14,-107,-29,-131,-195,-82
63,-43,-107,-9,85,-75,-9,-126,-43,-151,-204,-87
63,-43,-107,-9,85,-75,-9,-131,-58,-156,-209,-78
63,-43,-107,-9,85,-75,-9,-141,-68,-165,-209,-68
68,-48,-117,-9,92,-82,0,-146,-73,-170,-214,-68
63,-48,-112,-7,87,-80,-4,-165,-82,-180,-219,-58
58,-53,-112,-2,85,-82,-9,-175,-87,-180,-224,-58
43,-53,-97,4,70,-75,-14,-175,-87,-180,-224,-53
39,-53,-92,7,65,-73,-14,-180,-87,-180,-229,-53
48,-53,-102,2,75,-78,-19,-195,-97,-185,-244,-43
48,-48,-97,0,73,-73,-24,-195,-97,-190,-248,-43
68,-48,-117,-9,92,-82,-24,-200,-97,-200,-248,-43
92,-48,-141,-21,117,-95,-29,-204,-92,-209,-244,-43
92,-39,-131,-26,112,-85,-43,-219,-97,-219,-253,-48
92,-43,-136,-24,114,-90,-39,-209,-102,-214,-253,-48
82,-48,-131,-17,107,-90,-43,-214,-107,-200,-253,-58
82,-48,-131,-17,107,-90,-48,-219,-117,-200,-253,-63
87,-48,-136,-19,112,-92,-48,-219,-112,-209,-263,-63
82,-48,-131,-17,107,-90,-48,-214,-112,-209,-263,-63
73,-48,-122,-12,97,-85,-48,-204,-107,-204,-253,-63
63,-48,-112,-7,87,-80,-43,-200,-102,-200,-253,-63
78,-53,-131,-12,104,-92,-43,-209,-112,-209,-263,-73
87,-53,-141,-17,114,-97,-58,-204,-112,-209,-263,-63
97,-48,-146,-24,122,-97,-68,-200,-112,-209,-263,-63
102,-48,-151,-26,126,-100,-68,-200,-107,-204,-263,-58
97,-48,-146,-24,122,-97,-68,-200,-97,-195,-253,-68
92,-48,-141,-21,117,-95,-68,-204,-97,-195,-253,-63
78,-43,-122,-17,100,-82,-68,-204,-97,-195,-253,-53
73,-43,-117,-14,95,-80,-68,-204,-97,-195,-248,-48
82,-53,-136,-14,109,-95,-73,-200,-97,-180,-239,-58
82,-58,-141,-12,112,-100,-73,-195,-87,-180,-239,-63
82,-73,-156,-4,119,-114,-78,-195,-87,-180,-244,-68
87,-87,-175,0,131,-131,-78,-190,-87,-180,-244,-78
97,-78,-175,-9,136,-126,-73,-185,-73,-175,-239,-78
97,-78,-175,-9,136,-126,-73,-180,-73,-175,-234,-78
107,-87,-195,-9,151,-141,-82,-175,-73,-170,-234,-78
112,-87,-200,-12,156,-143,-87,-170,-73,-170,-234,-78
126,-68,-195,-29,161,-131,-82,-170,-78,-180,-239,-82
126,-63,-190,-31,158,-126,-92,-170,-78,-175,-239,-87
122,-63,-185,-29,153,-124,-102,-170,-78,-170,-239,-92
112,-63,-175,-24,143,-119,-107,-165,-73,-170,-234,-97
131,-48,-180,-41,156,-114,-107,-156,-68,-175,-234,-107
126,-58,-185,-34,156,-122,-107,-151,-53,-161,-229,-107
