I,II,III,aVR,aVL,aVF,V1,V2,V3,V4,V5,V6
19,9,-10,-14,14,0,897,1298,1210,-644,-1405,185
17,8,-9,-12,13,0,897,1292,1065,-636,-1407,184
14,8,-6,-11,10,1,897,1288,912,-629,-1409,184
10,9,-1,-9,5,4,896,1283,758,-621,-1412,185
9,9,0,-9,4,4,896,1278,614,-614,-1414,185
8,8,0,-8,4,4,897,1270,481,-607,-1417,184
9,8,-1,-8,5,3,897,1263,351,-600,-1419,184
8,9,1,-8,3,5,896,1256,213,-592,-1421,185
8,9,1,-8,3,5,896,1249,87,-585,-1423,185
11,8,-3,-9,7,2,897,1237,-12,-579,-1426,183
13,8,-5,-10,9,1,897,1224,-96,-575,-1428,180
16,9,-7,-12,11,1,896,1211,-184,-570,-1431,176
18,9,-9,-13,13,0,896,1200,-282,-566,-1433,175
24,8,-16,-16,20,-4,897,1190,-397,-563,-1436,174
33,8,-25,-20,29,-8,897,1180,-526,-561,-1438,174
44,9,-35,-26,39,-13,896,1169,-661,-559,-1441,174
48,9,-39,-28,43,-15,896,1161,-770,-556,-1443,174
38,5,-33,-21,35,-14,898,1159,-831,-551,-1446,176
19,0,-19,-9,19,-9,901,1160,-867,-546,-1448,179
0,-6,-6,3,3,-6,904,1162,-909,-541,-1451,183
-9,-9,0,9,-4,-4,906,1161,-965,-536,-1453,184
3,-1,-4,-1,3,-2,907,1154,-1041,-529,-1456,185
28,13,-15,-20,21,-1,907,1146,-1136,-522,-1458,184
54,30,-24,-42,39,3,906,1138,-1238,-514,-1461,185
67,38,-29,-52,48,4,907,1132,-1306,-507,-1463,185
60,34,-26,-47,43,4,906,1124,-1305,-501,-1467,183
43,24,-19,-33,31,2,906,1117,-1268,-497,-1472,180
27,14,-13,-20,20,0,907,1108,-1236,-492,-1478,177
19,9,-10,-14,14,0,907,1102,-1228,-488,-1482,175
17,7,-10,-12,13,-1,904,1099,-1251,-485,-1485,174
18,8,-10,-13,14,-1,902,1098,-1292,-483,-1487,174
18,9,-9,-13,13,0,899,1095,-1333,-480,-1490,175
18,9,-9,-13,13,0,897,1093,-1355,-478,-1492,175
22,6,-16,-14,19,-5,895,1090,-1347,-477,-1495,170
28,4,-24,-16,26,-10,893,1088,-1317,-477,-1497,165
34,1,-33,-17,33,-16,890,1085,-1282,-478,-1500,159
38,0,-38,-19,38,-19,888,1083,-1277,-478,-1502,156
39,0,-39,-19,39,-19,887,1078,-1330,-475,-1504,155
39,0,-39,-19,39,-19,887,1073,-1414,-473,-1506,155
38,0,-38,-19,38,-19,887,1066,-1494,-471,-1509,156
38,0,-38,-19,38,-19,887,1063,-1550,-468,-1511,156
38,1,-37,-19,37,-18,890,1066,-1569,-461,-1514,155
38,3,-35,-20,36,-16,892,1072,-1566,-453,-1516,155
39,6,-33,-22,36,-13,895,1079,-1561,-445,-1519,156
39,8,-31,-23,35,-11,896,1082,-1580,-439,-1521,156
37,9,-28,-23,32,-9,897,1083,-1641,-434,-1526,155
34,8,-26,-21,30,-9,896,1083,-1726,-429,-1531,155
31,9,-22,-20,26,-6,897,1082,-1809,-423,-1537,156
29,9,-20,-19,24,-5,897,1082,-1872,-419,-1541,156
28,6,-22,-17,25,-8,895,1083,-1903,-417,-1544,155
28,4,-24,-16,26,-10,893,1083,-1916,-418,-1545,155
29,1,-28,-15,28,-13,890,1082,-1931,-419,-1548,156
29,0,-29,-14,29,-14,888,1082,-1960,-419,-1550,156
28,0,-28,-14,28,-14,887,1083,-2013,-414,-1553,155
28,0,-28,-14,28,-14,887,1083,-2082,-409,-1555,155
29,1,-28,-15,28,-13,888,1082,-2151,-403,-1558,156
29,0,-29,-14,29,-14,888,1082,-2204,-400,-1560,156
25,-5,-30,-10,27,-17,884,1083,-2229,-399,-1563,152
19,-13,-32,-3,25,-22,878,1083,-2238,-399,-1565,146
12,-23,-35,5,23,-29,872,1082,-2250,-400,-1568,140
9,-28,-37,9,23,-32,868,1082,-2273,-400,-1570,136
12,-26,-38,7,25,-32,867,1087,-2310,-397,-1575,135
18,-19,-37,0,27,-28,867,1092,-2356,-395,-1580,135
25,-12,-37,-6,31,-24,867,1097,-2403,-392,-1585,136
28,-9,-37,-9,32,-23,867,1101,-2439,-390,-1589,136
29,-8,-37,-10,33,-22,868,1105,-2456,-385,-1592,135
28,-8,-36,-10,32,-22,868,1106,-2463,-380,-1594,135
31,-10,-41,-10,36,-25,865,1107,-2472,-374,-1597,136
29,-9,-38,-10,33,-23,867,1111,-2487,-370,-1599,136
15,-4,-19,-5,17,-11,883,1122,-2512,-366,-1602,130
-8,0,8,4,-8,4,906,1131,-2546,-369,-1604,117
-35,2,37,16,-36,19,928,1136,-2586,-381,-1607,99
-48,8,56,20,-52,32,945,1150,-2605,-370,-1609,96
-34,26,60,4,-47,43,958,1185,-2581,-313,-1612,125
-9,47,56,-19,-32,51,970,1228,-2542,-239,-1614,160
8,66,58,-37,-25,62,986,1265,-2515,-181,-1617,182
28,86,58,-57,-15,72,994,1306,-2479,-108,-1619,222
60,112,52,-86,4,82,988,1364,-2411,8,-1623,316
96,140,44,-118,26,92,976,1432,-2328,148,-1628,432
129,166,37,-147,46,101,968,1501,-2250,281,-1634,536
164,194,30,-179,67,112,956,1560,-2177,407,-1638,642
207,230,23,-218,92,126,931,1601,-2102,529,-1641,770
257,272,15,-264,121,143,897,1638,-2026,651,-1643,914
308,315,7,-311,150,161,864,1682,-1950,771,-1646,1061
350,350,0,-350,175,175,839,1716,-1874,894,-1648,1188
374,373,-1,-373,187,186,825,1727,-1791,1028,-1651,1283
394,399,5,-396,194,202,814,1741,-1685,1191,-1653,1382
424,438,14,-431,205,226,798,1774,-1554,1383,-1656,1511
439,448,9,-443,215,228,789,1766,-1492,1492,-1658,1580
416,392,-24,-404,220,184,800,1663,-1575,1433,-1662,1514
380,308,-72,-344,226,118,818,1514,-1709,1328,-1667,1396
357,238,-119,-297,238,59,833,1383,-1799,1292,-1673,1317
322,166,-156,-244,239,5,848,1261,-1928,1165,-1677,1212
249,67,-182,-158,215,-57,870,1124,-2197,778,-1680,1004
152,-55,-207,-48,179,-131,892,959,-2563,224,-1682,732
57,-184,-241,63,149,-212,911,773,-2939,-331,-1685,463
-17,-281,-264,149,123,-272,935,653,-3207,-727,-1687,247
-62,-317,-255,189,96,-286,973,673,-3284,-856,-1690,108
-96,-330,-234,213,69,-282,1018,764,-3274,-872,-1692,-6
-138,-359,-221,248,41,-290,1059,837,-3296,-943,-1695,-147
-174,-379,-205,276,15,-292,1101,877,-3336,-1014,-1697,-261
-187,-363,-176,275,-5,-269,1150,891,-3352,-998,-1702,-289
-189,-326,-137,257,-26,-231,1203,896,-3352,-937,-1707,-278
-196,-295,-99,245,-48,-197,1257,909,-3352,-889,-1712,-282
-203,-273,-70,238,-66,-171,1306,917,-3366,-858,-1716,-291
-205,-255,-50,230,-77,-152,1344,903,-3399,-831,-1719,-282
-204,-234,-30,219,-87,-132,1375,878,-3444,-805,-1721,-263
-202,-208,-6,205,-98,-107,1405,854,-3487,-778,-1724,-246
-203,-194,9,198,-106,-92,1443,839,-3522,-751,-1726,-234
-208,-210,-2,209,-103,-106,1496,836,-3546,-726,-1729,-225
-213,-243,-30,228,-91,-136,1559,838,-3566,-702,-1731,-219
-219,-274,-55,246,-82,-164,1624,840,-3587,-678,-1734,-213
-223,-291,-68,257,-77,-179,1677,839,-3610,-653,-1736,-204
-227,-287,-60,257,-83,-173,1710,837,-3633,-628,-1741,-186
-233,-273,-40,253,-96,-156,1745,838,-3654,-600,-1746,-161
-243,-261,-18,252,-112,-139,1798,843,-3674,-570,-1751,-135
-244,-253,-9,248,-117,-131,1815,839,-3698,-546,-1755,-117
-226,-248,-22,237,-102,-135,1749,814,-3729,-536,-1758,-112
-200,-247,-47,223,-76,-147,1646,775,-3766,-535,-1760,-116
-176,-250,-74,213,-51,-162,1560,737,-3804,-535,-1763,-122
-156,-244,-88,200,-34,-166,1475,712,-3834,-527,-1765,-117
-136,-218,-82,177,-27,-150,1359,707,-3850,-504,-1770,-93
-117,-180,-63,148,-27,-121,1218,711,-3859,-473,-1775,-58
-97,-144,-47,120,-25,-95,1070,712,-3870,-444,-1781,-24
-78,-117,-39,97,-19,-78,957,711,-3883,-419,-1785,0
-59,-102,-43,80,-8,-72,912,717,-3898,-401,-1788,9
-39,-92,-53,65,7,-72,897,726,-3912,-385,-1789,13
-19,-80,-61,49,21,-70,869,735,-3926,-367,-1791,20
0,-68,-68,34,34,-68,839,740,-3942,-351,-1794,28
16,-59,-75,21,45,-67,827,741,-3963,-341,-1799,35
33,-53,-86,10,59,-69,824,741,-3985,-336,-1804,42
52,-47,-99,-2,75,-73,818,740,-4006,-329,-1810,50
67,-39,-106,-14,86,-72,810,740,-4029,-322,-1814,57
76,-27,-103,-24,89,-65,802,741,-4054,-312,-1817,63
81,-14,-95,-33,88,-54,795,741,-4083,-302,-1819,67
89,0,-89,-44,89,-44,786,741,-4112,-291,-1822,72
96,8,-88,-52,92,-40,780,741,-4137,-283,-1824,77
98,11,-87,-54,92,-38,778,740,-4154,-277,-1827,82
97,9,-88,-53,92,-39,779,740,-4166,-273,-1829,86
96,7,-89,-51,92,-41,780,741,-4179,-267,-1831,92
96,8,-88,-52,92,-40,780,741,-4195,-263,-1833,96
97,14,-83,-55,90,-34,776,738,-4215,-260,-1838,99
97,23,-74,-60,85,-25,771,736,-4239,-258,-1843,101
95,32,-63,-63,79,-15,765,733,-4263,-255,-1849,104
96,38,-58,-67,77,-10,761,732,-4283,-253,-1853,106
103,40,-63,-71,83,-11,760,729,-4294,-250,-1856,107
111,39,-72,-75,91,-16,760,727,-4298,-248,-1858,107
119,38,-81,-78,100,-21,761,724,-4303,-245,-1861,107
125,38,-87,-81,106,-24,761,722,-4312,-244,-1863,107
132,40,-92,-86,112,-26,757,717,-4329,-243,-1867,105
140,42,-98,-91,119,-28,751,712,-4351,-243,-1872,102
149,44,-105,-96,127,-30,745,706,-4374,-244,-1878,99
155,47,-108,-101,131,-30,741,702,-4391,-244,-1882,97
157,54,-103,-105,130,-24,740,701,-4395,-240,-1885,96
156,62,-94,-109,125,-16,740,701,-4392,-234,-1887,96
156,71,-85,-113,120,-7,741,702,-4391,-228,-1889,96
156,77,-79,-116,117,-1,741,702,-4391,-224,-1892,96
154,79,-75,-116,114,2,737,698,-4391,-223,-1897,98
151,78,-73,-114,112,2,732,692,-4391,-223,-1902,101
147,77,-70,-112,108,3,726,686,-4393,-224,-1907,104
146,77,-69,-111,107,4,722,683,-4392,-224,-1911,106
145,79,-66,-112,105,6,721,682,-4384,-221,-1914,107
146,81,-65,-113,105,8,721,682,-4372,-219,-1916,107
144,84,-60,-114,102,12,722,683,-4359,-216,-1918,106
145,86,-59,-115,102,13,722,683,-4352,-214,-1921,106
153,91,-62,-122,107,14,719,678,-4356,-211,-1926,107
164,96,-68,-130,116,14,717,673,-4366,-209,-1931,107
176,102,-74,-139,125,14,714,667,-4374,-206,-1936,106
184,106,-78,-145,131,14,712,663,-4381,-204,-1941,106
188,107,-81,-147,134,13,709,658,-4391,-203,-1946,108
189,107,-82,-148,135,12,707,653,-4400,-203,-1951,111
191,106,-85,-148,138,10,704,647,-4409,-204,-1956,114
194,106,-88,-150,141,9,702,644,-4420,-204,-1960,116
199,109,-90,-154,144,9,701,643,-4439,-202,-1963,117
203,111,-92,-157,147,9,701,643,-4464,-200,-1965,117
208,114,-94,-161,151,10,701,644,-4490,-197,-1967,116
213,116,-97,-164,155,9,701,644,-4508,-195,-1970,116
219,120,-99,-169,159,10,702,640,-4511,-194,-1975,117
228,125,-103,-176,165,11,702,634,-4509,-194,-1980,117
239,131,-108,-185,173,11,700,628,-4509,-196,-1986,116
244,135,-109,-189,176,13,701,624,-4509,-195,-1990,116
233,136,-97,-184,165,19,711,623,-4499,-185,-1993,122
214,135,-79,-174,146,28,726,623,-4484,-170,-1994,130
197,136,-61,-166,129,37,742,625,-4469,-155,-1996,140
185,136,-49,-160,117,43,750,624,-4460,-146,-1999,145
181,130,-51,-155,116,39,746,619,-4458,-148,-2004,143
180,122,-58,-151,119,32,736,614,-4459,-155,-2009,136
177,114,-63,-145,120,25,728,609,-4460,-161,-2014,130
175,107,-68,-141,121,19,722,605,-4459,-164,-2019,126
174,102,-72,-138,123,15,715,600,-4461,-165,-2024,123
175,97,-78,-136,126,9,707,595,-4464,-165,-2029,122
174,91,-83,-132,128,4,698,589,-4467,-165,-2034,119
174,87,-87,-130,130,0,692,585,-4469,-165,-2038,117
178,86,-92,-132,135,-3,689,582,-4471,-163,-2041,116
184,86,-98,-135,141,-6,688,580,-4473,-161,-2043,117
190,86,-104,-138,147,-9,686,577,-4476,-158,-2045,116
194,86,-108,-140,151,-11,683,575,-4478,-156,-2048,116
195,89,-106,-142,150,-8,678,572,-4479,-153,-2053,120
195,91,-104,-143,149,-6,673,570,-4479,-151,-2058,125
195,93,-102,-144,148,-4,667,567,-4478,-149,-2064,130
195,96,-99,-145,147,-1,663,566,-4478,-146,-2068,135
193,103,-90,-148,141,6,660,565,-4479,-137,-2071,142
190,111,-79,-150,134,16,658,565,-4479,-126,-2073,150
187,118,-69,-152,128,24,656,566,-4478,-116,-2075,157
185,125,-60,-155,122,32,653,566,-4478,-107,-2077,164
184,134,-50,-159,117,42,646,565,-4479,-97,-2082,172
185,145,-40,-165,112,52,639,565,-4479,-87,-2087,179
183,156,-27,-169,105,64,633,567,-4477,-77,-2092,187
184,164,-20,-174,102,72,624,566,-4478,-68,-2097,194
191,169,-22,-180,106,73,609,558,-4485,-62,-2102,202
199,170,-29,-184,114,70,590,546,-4493,-58,-2107,208
205,169,-36,-187,120,66,573,535,-4498,-54,-2112,214
213,174,-39,-193,126,67,556,527,-4508,-48,-2116,223
227,189,-38,-208,132,75,540,522,-4530,-35,-2121,238
243,208,-35,-225,139,86,522,517,-4560,-19,-2126,257
257,225,-32,-241,144,96,503,510,-4589,-5,-2132,275
272,243,-29,-257,150,107,488,507,-4615,8,-2136,291
291,262,-29,-276,160,116,481,509,-4636,24,-2139,306
315,285,-30,-300,172,127,478,516,-4663,42,-2141,321
341,311,-30,-326,185,140,473,522,-4698,61,-2143,336
360,330,-30,-345,195,150,468,526,-4714,77,-2146,350
364,334,-30,-349,197,152,466,529,-4685,84,-2150,359
361,331,-30,-346,195,150,467,530,-4633,86,-2155,365
360,330,-30,-345,195,150,469,533,-4585,90,-2160,372
361,330,-31,-345,196,149,468,535,-4549,96,-2165,379
357,331,-26,-344,191,152,462,536,-4522,105,-2170,387
351,331,-20,-341,185,155,453,536,-4500,116,-2175,394
346,331,-15,-338,180,158,444,535,-4476,127,-2181,401
341,331,-10,-336,175,160,439,535,-4451,135,-2185,408
334,330,-4,-332,169,163,437,539,-4423,141,-2188,415
326,330,4,-328,161,167,438,545,-4393,145,-2190,423
319,332,13,-325,153,172,439,551,-4361,151,-2192,433
312,331,19,-321,146,175,439,555,-4334,155,-2195,438
305,321,16,-313,144,168,435,556,-4316,156,-2199,436
297,307,10,-302,143,158,429,556,-4304,156,-2204,429
289,293,4,-291,142,148,423,555,-4291,156,-2209,423
283,283,0,-283,141,141,419,555,-4274,156,-2214,419
281,278,-3,-279,142,137,418,556,-4256,152,-2219,414
282,278,-4,-280,143,137,419,556,-4236,146,-2224,409
284,276,-8,-280,146,134,418,555,-4214,140,-2229,404
283,273,-10,-278,146,131,418,555,-4196,136,-2234,400
276,266,-10,-271,143,128,425,559,-4185,133,-2239,395
268,258,-10,-263,139,124,433,565,-4177,131,-2243,390
261,251,-10,-256,135,120,440,571,-4169,128,-2248,386
253,244,-9,-248,131,117,447,574,-4157,126,-2253,380
242,234,-8,-238,125,113,456,575,-4140,123,-2258,369
229,224,-5,-226,117,109,467,575,-4119,122,-2263,356
216,214,-2,-215,109,106,478,574,-4096,120,-2269,343
204,204,0,-204,102,102,487,574,-4079,117,-2273,331
194,191,-3,-192,98,94,493,575,-4073,110,-2276,319
185,175,-10,-180,97,82,496,574,-4073,102,-2277,307
175,159,-16,-167,95,71,500,575,-4074,93,-2279,294
165,146,-19,-155,92,63,506,575,-4069,87,-2282,283
156,139,-17,-147,86,61,518,574,-4057,83,-2287,274
146,136,-10,-141,78,63,535,574,-4040,82,-2292,268
136,131,-5,-133,70,63,552,575,-4023,81,-2297,261
126,126,0,-126,63,63,565,575,-4011,78,-2302,253
119,119,0,-119,59,59,571,571,-4008,71,-2307,242
112,112,0,-112,56,56,574,566,-4010,63,-2312,229
104,105,1,-104,51,53,579,561,-4012,56,-2317,217
97,97,0,-97,48,48,584,556,-4011,48,-2321,204
93,86,-7,-89,50,39,587,547,-4007,37,-2326,190
92,73,-19,-82,55,27,589,536,-4001,24,-2331,175
90,60,-30,-75,60,15,592,526,-3994,11,-2336,160
87,48,-39,-67,63,4,594,517,-3990,0,-2341,146
82,38,-44,-60,63,-3,595,507,-3995,-8,-2346,136
78,29,-49,-53,63,-10,595,497,-4005,-18,-2351,126
74,18,-56,-46,65,-19,594,486,-4016,-29,-2356,116
68,9,-59,-38,63,-25,594,478,-4021,-38,-2360,107
57,3,-54,-30,55,-25,596,475,-4013,-42,-2365,103
43,0,-43,-21,43,-21,599,477,-3996,-42,-2370,102
30,-3,-33,-13,31,-18,602,480,-3980,-44,-2375,100
19,-8,-27,-5,23,-17,604,478,-3972,-47,-2380,97
11,-13,-24,1,17,-18,605,468,-3976,-54,-2385,90
4,-18,-22,7,13,-20,605,453,-3990,-62,-2390,82
-3,-23,-20,13,8,-21,604,440,-4003,-70,-2395,75
-8,-28,-20,18,6,-24,605,429,-4010,-77,-2399,68
-10,-33,-23,21,6,-28,604,419,-4007,-82,-2404,61
-9,-38,-29,23,10,-33,604,409,-3996,-86,-2409,53
-8,-43,-35,25,13,-39,605,398,-3986,-92,-2415,45
-8,-47,-39,27,15,-43,605,390,-3981,-96,-2419,39
-10,-48,-38,29,14,-43,601,386,-3986,-98,-2422,37
-13,-48,-35,30,11,-41,595,385,-3995,-97,-2424,38
-16,-46,-30,31,7,-38,589,383,-4004,-95,-2426,40
-18,-47,-29,32,5,-38,585,380,-4010,-96,-2429,39
-19,-53,-34,36,7,-43,582,374,-4012,-104,-2434,35
-19,-62,-43,40,12,-52,580,366,-4011,-116,-2439,29
-18,-71,-53,44,17,-62,577,359,-4009,-127,-2444,24
-18,-77,-59,47,20,-68,575,351,-4010,-135,-2448,19
-19,-79,-60,49,20,-69,571,342,-4017,-141,-2453,14
-19,-78,-59,48,20,-68,566,331,-4029,-145,-2458,9
-18,-77,-59,47,20,-68,560,320,-4042,-151,-2463,3
-18,-77,-59,47,20,-68,556,312,-4049,-155,-2468,0
-22,-78,-56,50,17,-67,555,310,-4045,-157,-2473,0
-28,-78,-50,53,11,-64,555,311,-4035,-156,-2478,0
-34,-77,-43,55,4,-60,556,313,-4026,-155,-2483,0
-38,-77,-39,57,0,-58,556,312,-4021,-155,-2487,0
-39,-79,-40,59,0,-59,554,308,-4019,-159,-2492,-1
-39,-81,-42,60,1,-61,551,302,-4020,-164,-2497,-3
-38,-84,-46,61,4,-65,548,296,-4021,-170,-2502,-6
-38,-86,-48,62,5,-67,546,292,-4021,-174,-2507,-8
-40,-87,-47,63,3,-67,545,291,-4018,-177,-2512,-11
-42,-87,-45,64,1,-66,545,291,-4016,-179,-2517,-13
-45,-86,-41,65,-2,-63,546,292,-4014,-182,-2522,-16
-47,-86,-39,66,-4,-62,546,292,-4011,-184,-2526,-18
-48,-86,-38,67,-5,-62,544,288,-4002,-187,-2530,-23
-47,-86,-39,66,-4,-62,541,283,-3991,-189,-2536,-28
-48,-87,-39,67,-4,-63,538,276,-3983,-192,-2544,-34
-48,-87,-39,67,-4,-63,536,273,-3972,-194,-2547,-38
-44,-85,-41,64,-1,-63,535,275,-3954,-195,-2543,-39
-39,-82,-43,60,2,-62,535,282,-3934,-195,-2555,-39
-33,-79,-46,56,6,-62,536,288,-3916,-194,-2593,-38
-29,-78,-49,53,10,-63,536,291,-3895,-195,-2572,-38
-28,-77,-49,52,10,-63,535,292,-3865,-194,-2404,-40
-29,-77,-48,53,9,-62,535,292,-3832,-194,-2162,-42
-27,-78,-51,52,12,-64,536,290,-3800,-195,-1941,-45
-28,-78,-50,53,11,-64,536,291,-3769,-195,-1739,-47
-37,-77,-40,57,1,-58,535,297,-3733,-191,-1528,-48
-51,-77,-26,64,-12,-51,535,306,-3696,-185,-1289,-48
-68,-78,-10,73,-29,-44,536,315,-3659,-179,-1025,-47
-77,-78,-1,77,-38,-39,536,321,-3622,-175,-826,-47
-70,-77,-7,73,-31,-42,533,323,-3581,-173,-778,-48
-54,-77,-23,65,-15,-50,531,322,-3535,-174,-808,-48
-38,-78,-40,58,1,-59,528,321,-3489,-176,-816,-48
-29,-78,-49,53,10,-63,527,321,-3447,-175,-801,-48
-27,-74,-47,50,10,-60,524,325,-3414,-169,-785,-47
-28,-68,-40,48,6,-54,522,330,-3387,-161,-771,-47
-30,-62,-32,46,1,-47,519,336,-3359,-153,-756,-48
-29,-58,-29,43,0,-43,517,340,-3329,-146,-741,-48
-25,-57,-32,41,3,-44,516,342,-3299,-139,-729,-46
-19,-57,-38,38,9,-47,516,341,-3266,-131,-717,-43
-13,-58,-45,35,16,-51,517,339,-3230,-124,-705,-40
-9,-58,-49,33,20,-53,517,340,-3202,-117,-692,-39
-8,-57,-49,32,20,-53,517,346,-3189,-111,-680,-38
-8,-57,-49,32,20,-53,517,355,-3186,-107,-668,-38
-8,-58,-50,33,21,-54,516,363,-3181,-102,-656,-39
-8,-58,-50,33,21,-54,516,369,-3172,-97,-644,-39
-12,-57,-45,34,16,-51,518,374,-3161,-90,-632,-35
-18,-57,-39,37,10,-48,521,379,-3148,-82,-619,-29
-24,-58,-34,41,5,-46,524,384,-3132,-74,-607,-23
-28,-58,-30,43,1,-44,526,389,-3123,-68,-595,-19
-31,-57,-26,44,-2,-41,527,392,-3127,-64,-583,-16
-33,-57,-24,45,-4,-40,527,394,-3141,-63,-570,-14
-36,-58,-22,47,-7,-40,527,397,-3153,-61,-559,-11
-38,-58,-20,48,-9,-39,527,399,-3161,-58,-546,-9
-39,-56,-17,47,-11,-36,525,402,-3163,-51,-533,-8
-38,-53,-15,45,-11,-34,522,404,-3162,-43,-518,-8
-39,-50,-11,44,-14,-30,519,407,-3159,-35,-502,-9
-39,-48,-9,43,-15,-28,517,408,-3161,-29,-488,-9
-35,-45,-10,40,-12,-27,514,409,-3172,-27,-478,-8
-29,-43,-14,36,-7,-28,512,409,-3189,-28,-468,-8
-24,-40,-16,32,-4,-28,509,408,-3206,-29,-458,-9
-19,-39,-20,29,0,-29,507,408,-3219,-29,-448,-9
-12,-38,-26,25,7,-32,506,409,-3226,-26,-439,-8
-4,-38,-34,21,15,-36,506,409,-3229,-24,-429,-8
3,-39,-42,18,22,-40,507,408,-3233,-22,-419,-9
8,-39,-47,15,27,-43,507,408,-3239,-19,-409,-9
10,-36,-46,13,28,-41,506,409,-3249,-14,-399,-5
9,-34,-43,12,26,-38,506,409,-3262,-9,-390,0
8,-32,-40,12,24,-36,507,408,-3277,-4,-381,5
8,-29,-37,10,22,-33,507,408,-3288,0,-370,8
10,-21,-31,5,20,-26,505,412,-3293,5,-357,9
13,-9,-22,-2,17,-15,502,418,-3294,13,-342,9
16,1,-15,-8,15,-7,499,424,-3294,22,-325,8
18,8,-10,-13,14,-1,497,428,-3297,28,-312,8
21,10,-11,-15,16,0,494,429,-3307,30,-307,9
23,9,-14,-16,18,-2,492,429,-3321,29,-307,9
26,7,-19,-16,22,-6,489,429,-3336,28,-305,8
28,8,-20,-18,24,-6,488,429,-3346,28,-302,8
29,12,-17,-20,23,-2,487,425,-3350,30,-295,9
29,18,-11,-23,20,3,487,419,-3351,33,-287,9
29,24,-5,-26,17,9,488,413,-3354,36,-280,8
29,28,-1,-28,15,13,488,409,-3356,38,-273,8
27,29,2,-28,12,15,487,406,-3357,40,-267,10
24,29,5,-26,9,17,487,405,-3357,42,-263,13
21,28,7,-24,7,17,488,402,-3356,45,-259,16
19,28,9,-23,5,18,488,400,-3356,47,-253,18
18,32,14,-25,2,23,485,397,-3356,50,-243,21
19,38,19,-28,0,28,483,395,-3356,52,-230,23
18,43,25,-30,-3,34,481,392,-3357,55,-216,26
18,47,29,-32,-5,38,478,390,-3357,57,-204,28
21,50,29,-35,-4,39,471,387,-3354,58,-198,29
23,52,29,-37,-3,40,463,385,-3352,58,-195,29
25,54,29,-39,-2,41,455,383,-3350,57,-190,28
28,57,29,-42,0,43,448,380,-3347,57,-185,28
38,64,26,-51,6,45,441,374,-3341,58,-180,29
51,72,21,-61,15,46,434,366,-3333,58,-175,29
65,79,14,-72,25,46,426,357,-3326,57,-170,28
77,86,9,-81,34,47,419,351,-3318,57,-165,28
84,93,9,-88,37,51,417,353,-3308,59,-158,30
91,101,10,-96,40,55,418,360,-3298,62,-151,33
99,110,11,-104,44,60,419,366,-3289,65,-144,36
106,116,10,-111,48,63,419,369,-3279,67,-136,38
110,114,4,-112,53,59,418,370,-3267,68,-127,39
111,107,-4,-109,57,51,418,370,-3251,68,-117,39
114,101,-13,-107,63,44,418,369,-3234,67,-106,38
116,97,-19,-106,67,39,418,369,-3220,67,-97,38
117,94,-23,-105,70,35,419,371,-3214,69,-93,39
117,92,-25,-104,71,33,419,374,-3211,72,-92,39
116,89,-27,-102,71,31,418,377,-3207,75,-91,38
117,87,-30,-102,73,28,418,379,-3201,77,-87,38
116,86,-30,-101,73,28,420,380,-3194,78,-77,40
116,87,-29,-101,72,29,423,380,-3186,78,-64,42
117,85,-32,-101,74,26,426,379,-3178,76,-51,45
117,86,-31,-101,74,27,428,379,-3172,77,-39,47
113,92,-21,-102,67,35,431,381,-3171,82,-30,49
107,97,-10,-102,58,43,433,384,-3172,86,-24,48
102,91,-11,-96,56,40,436,387,-3168,85,-20,41
97,82,-15,-89,56,33,438,389,-3162,82,-19,34
92,79,-13,-85,52,33,441,392,-3157,81,-18,30
87,74,-13,-80,50,30,443,394,-3156,78,-18,24
83,55,-28,-69,55,13,445,395,-3163,69,-21,13
82,35,-47,-58,64,-6,447,395,-3171,58,-23,0
81,28,-53,-54,67,-12,450,394,-3175,53,-25,-5
82,29,-53,-55,67,-12,452,394,-3175,52,-24,-8
80,24,-56,-52,68,-16,455,395,-3177,53,-20,-11
78,19,-59,-48,68,-20,457,395,-3180,53,-14,-13
75,21,-54,-48,64,-16,461,392,-3183,52,-6,-14
73,28,-45,-50,59,-8,467,390,-3185,52,3,-14
72,34,-38,-53,55,-2,473,389,-3187,54,13,-13
72,38,-34,-55,53,2,477,390,-3186,57,23,-13
74,39,-35,-56,54,2,478,387,-3180,62,32,-14
73,39,-34,-56,53,2,478,385,-3172,67,42,-14
68,39,-29,-53,48,5,478,384,-3165,73,54,-12
63,39,-24,-51,43,7,478,385,-3161,77,67,-9
61,37,-24,-49,42,6,474,383,-3165,77,74,-6
62,34,-28,-48,45,3,468,380,-3171,73,77,-4
63,30,-33,-46,48,-1,460,374,-3176,67,79,-3
63,24,-39,-43,51,-7,453,370,-3180,63,81,-3
62,17,-45,-39,53,-14,451,369,-3187,62,87,-4
62,13,-49,-37,55,-18,452,369,-3195,62,96,-4
67,17,-50,-42,58,-16,452,370,-3200,63,106,-3
72,27,-45,-49,58,-9,452,370,-3205,63,116,-3
76,40,-36,-58,56,2,455,369,-3211,63,125,-4
77,52,-25,-64,51,13,457,369,-3219,63,135,-4
79,57,-22,-68,50,17,458,370,-3227,62,145,-3
81,58,-23,-69,52,17,458,370,-3234,62,155,-3
84,55,-29,-69,56,13,457,368,-3240,64,160,-4
86,53,-33,-69,59,10,457,366,-3244,67,164,-4
89,51,-38,-70,63,6,458,363,-3248,70,169,-3
91,52,-39,-71,65,6,458,361,-3253,72,174,-3
92,55,-37,-73,64,9,455,358,-3259,73,178,-6
92,57,-35,-74,63,11,453,356,-3268,73,179,-8
91,58,-33,-74,62,12,452,354,-3280,72,180,-9
91,57,-34,-74,62,11,452,355,-3288,72,184,-9
92,60,-32,-76,62,14,454,359,-3285,75,194,-7
92,62,-30,-77,61,16,457,365,-3275,77,207,-4
89,63,-26,-76,57,18,463,371,-3262,79,221,0
87,63,-24,-75,55,19,467,374,-3254,81,233,3
86,62,-24,-74,55,19,468,375,-3252,85,239,4
87,62,-25,-74,56,18,468,375,-3253,91,243,4
86,63,-23,-74,54,20,468,375,-3254,98,248,4
86,63,-23,-74,54,20,468,375,-3253,102,252,4
90,62,-28,-76,59,17,464,373,-3255,97,254,1
96,62,-34,-79,65,14,458,370,-3258,88,253,-3
103,62,-41,-82,72,10,450,364,-3262,76,249,-8
111,62,-49,-86,80,6,444,356,-3264,68,247,-13
117,63,-54,-90,85,4,441,350,-3262,66,253,-16
125,63,-62,-94,93,0,439,346,-3259,67,262,-18
134,62,-72,-98,103,-5,436,345,-3258,68,270,-19
140,62,-78,-101,109,-8,434,345,-3259,68,277,-19
137,63,-74,-100,105,-5,435,346,-3257,67,283,-17
123,63,-60,-93,91,1,438,346,-3254,67,291,-14
103,61,-42,-82,72,9,439,345,-3252,70,301,-9
87,58,-29,-72,58,14,439,345,-3250,72,311,-4
84,55,-29,-69,56,13,437,346,-3247,73,315,-2
86,53,-33,-69,59,10,434,346,-3245,73,316,-3
85,52,-33,-68,59,9,431,343,-3243,72,318,-6
86,52,-34,-69,60,9,429,341,-3240,72,321,-8
99,53,-46,-76,72,3,428,339,-3231,73,328,-9
111,53,-58,-82,84,-2,429,340,-3220,73,339,-9
108,52,-56,-80,82,-2,428,343,-3212,72,353,-6
97,52,-45,-74,71,3,428,345,-3206,72,365,-4
92,52,-40,-72,66,6,431,346,-3200,76,371,-2
91,52,-39,-71,65,6,433,346,-3196,81,374,0
92,53,-39,-72,65,7,434,346,-3195,85,379,2
92,53,-39,-72,65,7,434,346,-3196,87,384,3
88,52,-36,-70,62,8,432,343,-3192,85,389,2
86,52,-34,-69,60,9,429,341,-3186,82,394,0
93,53,-40,-73,66,6,426,340,-3180,80,399,0
97,53,-44,-75,70,4,424,340,-3176,81,404,0
87,50,-37,-68,62,6,423,340,-3174,86,410,1
73,48,-25,-60,49,11,423,340,-3172,91,418,3
69,47,-22,-58,45,12,424,343,-3167,94,426,6
72,47,-25,-59,48,11,424,345,-3162,96,433,8
74,48,-26,-61,50,11,423,344,-3160,99,435,9
73,47,-26,-60,49,10,423,341,-3161,101,434,9
67,48,-19,-57,43,14,424,337,-3162,102,432,8
58,48,-10,-53,34,19,424,336,-3162,102,433,8
49,47,-2,-48,25,22,424,337,-3159,100,438,8
40,47,7,-43,16,27,428,340,-3157,97,443,4
28,52,24,-40,2,38,440,345,-3155,92,441,-6
15,57,42,-36,-13,49,460,354,-3152,83,430,-22
3,59,56,-31,-26,57,485,370,-3145,71,411,-37
-3,58,61,-27,-32,59,509,392,-3130,67,399,-47
-3,57,60,-27,-31,58,530,420,-3100,86,414,-45
7,66,59,-36,-26,62,545,458,-3051,142,465,-18
30,91,61,-60,-15,76,551,510,-2977,244,558,41
60,123,63,-91,-1,93,551,573,-2888,372,679,122
88,147,59,-117,14,103,548,642,-2794,500,812,208
121,171,50,-146,35,110,541,714,-2694,634,960,310
168,210,42,-189,63,126,529,787,-2588,782,1123,439
219,253,34,-236,92,143,509,852,-2491,916,1283,581
263,292,29,-277,117,160,481,901,-2419,1005,1421,715
307,331,24,-319,141,177,450,937,-2354,1091,1560,848
360,380,20,-370,170,200,423,969,-2270,1223,1727,993
409,429,20,-419,194,224,397,1001,-2167,1387,1917,1137
441,464,23,-452,209,243,371,1034,-2052,1553,2110,1264
465,486,21,-475,222,253,352,1061,-1942,1707,2286,1367
495,498,3,-496,246,250,346,1069,-1853,1838,2426,1439
516,493,-23,-504,269,235,350,1048,-1802,1926,2512,1468
508,464,-44,-486,276,210,355,988,-1805,1950,2530,1440
477,403,-74,-440,275,164,364,881,-1880,1902,2473,1361
429,305,-124,-367,276,90,383,725,-2045,1770,2338,1239
355,175,-180,-265,267,-2,406,524,-2317,1489,2083,1065
246,24,-222,-135,234,-99,428,298,-2697,1005,1679,829
128,-118,-246,-5,187,-182,446,102,-3091,408,1184,559
34,-220,-254,93,144,-237,460,-2,-3388,-160,691,293
-33,-290,-257,161,112,-273,480,-21,-3553,-571,286,56
-82,-345,-263,213,90,-304,515,23,-3583,-728,38,-136
-114,-378,-264,246,75,-321,560,102,-3534,-721,-72,-275
-131,-379,-248,255,58,-313,609,189,-3473,-680,-92,-359
-144,-362,-218,253,37,-290,662,262,-3416,-634,-66,-398
-166,-347,-181,256,7,-264,720,304,-3366,-580,-31,-404
-188,-328,-140,258,-24,-234,779,317,-3334,-531,-2,-400
-198,-297,-99,247,-49,-198,831,306,-3333,-500,16,-402
-203,-257,-54,230,-74,-155,874,281,-3345,-480,36,-401
-212,-219,-7,215,-102,-113,908,248,-3351,-457,71,-380
-223,-196,27,209,-125,-84,941,225,-3347,-431,112,-353
-228,-197,31,212,-129,-83,986,224,-3337,-407,146,-337
-229,-216,13,222,-121,-101,1046,241,-3320,-382,172,-331
-229,-240,-11,234,-109,-125,1122,265,-3294,-356,194,-327
-233,-261,-28,247,-102,-144,1202,282,-3270,-328,216,-322
-242,-272,-30,257,-106,-151,1266,279,-3260,-304,239,-314
-248,-277,-29,262,-109,-153,1304,260,-3258,-284,260,-303
-241,-282,-41,261,-100,-161,1312,236,-3258,-271,277,-288
-229,-286,-57,257,-86,-171,1323,219,-3251,-259,294,-274
-224,-288,-64,256,-80,-176,1372,220,-3235,-242,317,-263
-219,-287,-68,253,-75,-177,1417,220,-3220,-225,339,-254
-210,-282,-72,246,-69,-177,1403,195,-3221,-217,354,-241
-200,-274,-74,237,-63,-174,1315,159,-3229,-210,368,-225
-197,-262,-65,229,-66,-163,1160,133,-3232,-193,388,-209
-191,-246,-55,218,-68,-150,971,118,-3230,-172,411,-191
-170,-224,-54,197,-58,-139,791,109,-3223,-153,430,-173
-143,-197,-54,170,-44,-125,642,102,-3215,-137,450,-153
-122,-171,-49,146,-36,-110,539,96,-3208,-122,480,-132
-108,-152,-44,130,-32,-98,473,92,-3201,-108,509,-113
-99,-148,-49,123,-25,-98,432,90,-3192,-94,525,-101
-92,-146,-54,119,-19,-100,410,99,-3177,-79,534,-92
-85,-133,-48,109,-18,-90,405,125,-3157,-61,551,-83
-74,-113,-39,93,-17,-76,408,153,-3134,-44,572,-73
-58,-100,-42,79,-8,-71,409,168,-3115,-32,593,-66
-40,-92,-52,66,6,-72,405,174,-3103,-24,608,-58
-26,-86,-60,56,17,-73,396,179,-3100,-18,617,-50
-15,-79,-64,47,24,-71,386,180,-3102,-14,623,-43
-6,-68,-62,37,28,-65,377,173,-3103,-11,631,-39
0,-58,-58,29,29,-58,370,165,-3103,-9,638,-38
5,-55,-60,25,32,-57,365,166,-3101,-8,639,-40
12,-57,-69,22,40,-63,361,174,-3098,-8,638,-42
24,-59,-83,17,53,-71,356,181,-3095,-11,642,-43
33,-58,-91,12,62,-74,351,185,-3093,-13,648,-43
34,-53,-87,9,60,-70,345,180,-3091,-14,654,-40
29,-48,-77,9,53,-62,337,171,-3089,-14,662,-39
25,-44,-69,9,47,-56,327,160,-3085,-14,670,-39
19,-43,-62,12,40,-52,322,155,-3079,-14,677,-39
10,-42,-52,16,31,-47,324,160,-3072,-12,680,-35
-2,-42,-40,22,19,-41,330,169,-3064,-9,682,-29
-15,-43,-28,29,6,-35,332,173,-3056,-4,688,-26
-23,-43,-20,33,-1,-31,331,174,-3050,0,696,-24
-22,-41,-19,31,-1,-30,328,176,-3050,2,702,-22
-15,-39,-24,27,4,-31,326,175,-3053,3,706,-19
-6,-38,-32,22,13,-35,324,169,-3053,4,707,-15
0,-38,-38,19,19,-38,322,161,-3050,4,707,-13
1,-39,-40,19,20,-39,320,159,-3045,0,706,-15
3,-39,-42,18,22,-40,317,160,-3040,-3,706,-18
10,-36,-46,13,28,-41,312,162,-3037,-5,707,-19
18,-34,-52,8,35,-43,307,164,-3035,-4,707,-19
20,-33,-53,6,36,-43,304,165,-3032,-2,706,-18
19,-33,-52,7,35,-42,302,161,-3030,-3,706,-18
16,-34,-50,9,33,-42,298,151,-3028,-8,708,-19
14,-34,-48,10,31,-41,296,141,-3025,-13,711,-19
13,-33,-46,10,29,-39,299,139,-3019,-14,717,-18
13,-33,-46,10,29,-39,301,140,-3015,-13,721,-18
15,-37,-52,11,33,-44,300,141,-3015,-15,721,-21
14,-42,-56,14,35,-49,297,141,-3015,-18,721,-23
6,-45,-51,19,28,-48,295,140,-3009,-19,726,-21
-3,-43,-40,23,18,-41,296,140,-3001,-19,735,-14
-8,-37,-29,22,10,-33,299,141,-2997,-19,741,-6
-9,-33,-24,21,7,-28,301,141,-2996,-19,745,0
-7,-38,-31,22,12,-34,301,140,-2995,-18,747,-1
-4,-47,-43,25,19,-45,297,140,-2995,-18,746,-8
0,-51,-51,25,25,-51,292,141,-2998,-22,741,-14
3,-53,-56,25,29,-54,287,141,-3000,-28,736,-18
6,-52,-58,23,32,-55,282,139,-3001,-33,734,-19
8,-52,-60,22,34,-56,278,136,-3001,-38,735,-19
9,-55,-64,23,36,-59,275,133,-2999,-42,737,-17
9,-57,-66,24,37,-61,273,131,-2996,-43,740,-14
8,-58,-66,25,37,-62,273,130,-2993,-40,748,-9
9,-58,-67,24,38,-62,273,130,-2991,-34,759,-4
8,-56,-64,24,36,-60,271,131,-2990,-28,770,0
8,-53,-61,22,34,-57,268,131,-2991,-24,779,3
9,-50,-59,20,34,-54,267,130,-2989,-25,782,4
9,-48,-57,19,33,-52,267,130,-2986,-28,784,4
7,-45,-52,19,29,-48,269,133,-2983,-29,788,3
8,-43,-51,17,29,-47,268,135,-2981,-29,794,3
15,-42,-57,13,36,-49,263,136,-2978,-28,800,4
23,-42,-65,9,44,-53,258,136,-2976,-28,804,3
23,-42,-65,9,44,-53,256,135,-2975,-31,805,4
19,-39,-58,10,38,-48,257,136,-2975,-33,805,4
18,-34,-52,8,35,-43,259,135,-2976,-34,804,3
18,-29,-47,5,32,-38,258,135,-2976,-34,804,3
19,-28,-47,4,33,-37,253,136,-2974,-31,805,5
23,-29,-52,3,37,-40,248,136,-2971,-29,809,8
32,-27,-59,-2,45,-43,247,132,-2968,-27,817,11
42,-24,-66,-9,54,-45,248,126,-2967,-24,827,13
46,-21,-67,-12,56,-44,244,122,-2965,-19,834,13
43,-19,-62,-12,52,-40,239,121,-2962,-14,838,13
33,-16,-49,-8,41,-32,237,125,-2956,-11,843,17
20,-14,-34,-3,27,-24,238,130,-2948,-9,848,23
10,-12,-22,1,16,-17,240,133,-2940,-5,853,28
8,-9,-17,0,12,-13,239,131,-2932,0,861,33
17,-5,-22,-6,19,-13,233,125,-2926,2,876,39
28,-3,-31,-12,29,-17,224,117,-2918,3,891,47
30,-6,-36,-12,33,-21,218,113,-2910,5,898,55
28,-9,-37,-9,32,-23,214,112,-2903,8,901,62
33,-3,-36,-15,34,-19,209,109,-2900,12,906,67
38,7,-31,-22,34,-12,204,107,-2898,18,915,72
35,17,-18,-26,26,0,200,106,-2895,25,930,79
29,23,-6,-26,17,8,195,107,-2893,33,944,86
27,23,-4,-25,15,9,188,105,-2892,37,953,91
28,23,-5,-25,16,9,180,102,-2892,42,959,96
29,30,1,-29,14,15,173,98,-2893,50,970,104
32,41,9,-36,11,25,166,92,-2893,61,983,115
46,50,4,-48,21,27,155,86,-2890,72,994,126
69,57,-12,-63,40,22,138,79,-2888,81,1003,134
97,63,-34,-80,65,14,115,70,-2888,86,1015,142
116,71,-45,-93,80,13,98,67,-2888,95,1035,154
114,82,-32,-98,73,25,96,76,-2881,112,1068,173
107,95,-12,-101,59,41,101,90,-2870,133,1103,197
114,106,-8,-110,61,49,97,97,-2859,148,1125,218
122,115,-7,-118,64,54,88,101,-2850,159,1139,237
110,124,14,-117,48,69,82,109,-2841,170,1156,250
89,134,45,-111,22,89,78,120,-2831,183,1177,261
76,147,71,-111,2,109,72,129,-2818,195,1198,272
76,159,83,-117,-3,121,64,131,-2807,207,1217,285
92,166,74,-129,9,120,56,125,-2800,217,1232,300
118,173,55,-145,31,114,49,117,-2796,227,1242,315
147,186,39,-166,54,112,39,114,-2792,238,1250,327
168,198,30,-183,69,114,30,116,-2786,247,1257,335
170,202,32,-186,69,117,23,122,-2778,249,1268,340
162,200,38,-181,62,119,19,130,-2767,252,1281,345
156,200,44,-178,56,122,18,135,-2757,261,1293,352
155,203,48,-179,53,125,18,140,-2748,272,1301,360
157,208,51,-182,53,129,18,144,-2739,275,1304,364
160,213,53,-186,53,133,18,146,-2732,273,1306,365
162,215,53,-188,54,134,20,142,-2727,271,1311,365
164,214,50,-189,57,132,23,140,-2723,272,1316,365
168,212,44,-190,62,128,26,147,-2719,275,1317,367
174,213,39,-193,67,126,28,159,-2714,277,1317,369
178,218,40,-198,69,129,28,167,-2704,276,1317,370
180,223,43,-201,68,133,28,174,-2694,273,1317,370
178,221,43,-199,67,132,34,181,-2688,273,1312,368
175,214,39,-194,68,126,42,189,-2684,273,1307,366
173,208,35,-190,69,121,47,192,-2678,268,1305,361
170,204,34,-187,68,119,56,194,-2670,263,1302,356
166,202,36,-184,65,119,75,197,-2662,262,1294,351
161,200,39,-180,61,119,99,203,-2655,263,1284,346
158,193,35,-175,61,114,115,209,-2645,261,1276,339
156,185,29,-170,63,107,124,217,-2636,258,1273,331
152,180,28,-166,62,104,132,226,-2629,256,1274,325
146,175,29,-160,58,102,139,233,-2625,253,1273,318
140,166,26,-153,57,96,149,234,-2623,245,1264,306
132,157,25,-144,53,91,159,233,-2620,235,1250,293
122,150,28,-136,47,89,169,237,-2615,226,1241,283
113,142,29,-127,42,85,178,243,-2610,219,1234,274
107,127,20,-117,43,73,189,244,-2607,214,1226,261
102,112,10,-107,46,61,202,243,-2605,209,1216,249
97,112,15,-104,41,63,215,245,-2602,203,1207,241
96,120,24,-108,36,72,227,247,-2601,196,1196,235
103,128,25,-115,39,76,235,248,-2601,187,1182,223
107,127,20,-117,43,73,242,248,-2601,180,1171,210
94,113,19,-103,37,66,253,248,-2595,175,1170,200
75,94,19,-84,28,56,262,248,-2586,170,1171,191
65,82,17,-73,24,49,263,245,-2581,162,1164,181
63,78,15,-70,24,46,262,240,-2580,152,1152,171
61,78,17,-69,22,47,268,230,-2582,143,1140,163
62,78,16,-70,23,47,277,220,-2585,132,1128,157
70,71,1,-70,34,36,280,212,-2589,119,1115,147
77,63,-14,-70,45,24,282,209,-2591,107,1107,141
72,60,-12,-66,42,24,287,210,-2589,105,1110,143
59,58,-1,-58,30,28,295,213,-2586,107,1116,146
48,51,3,-49,22,27,302,213,-2586,104,1114,141
40,43,3,-41,18,23,306,209,-2586,97,1107,132
31,41,10,-36,10,25,307,204,-2582,91,1103,127
24,46,22,-35,1,34,306,200,-2576,87,1101,126
19,57,38,-38,-9,47,309,197,-2571,85,1103,124
14,63,49,-38,-17,56,312,195,-2570,82,1106,122
7,55,48,-31,-20,51,309,191,-2578,76,1111,118
0,40,40,-20,-20,40,302,185,-2589,69,1112,112
-2,30,32,-14,-17,31,296,178,-2595,61,1103,107
0,24,24,-12,-12,24,292,170,-2595,54,1089,102
4,19,15,-11,-5,17,291,165,-2597,46,1079,98
12,14,2,-13,5,8,291,161,-2600,39,1073,97
22,12,-10,-17,16,1,292,158,-2605,34,1071,97
28,13,-15,-20,21,-1,292,156,-2609,29,1072,97
28,16,-12,-22,20,2,289,152,-2612,24,1075,91
24,18,-6,-21,15,6,287,146,-2614,19,1073,82
22,17,-5,-19,13,6,286,140,-2618,16,1063,78
23,14,-9,-18,16,2,287,136,-2620,14,1054,78
29,13,-16,-21,22,-1,286,135,-2616,12,1057,77
33,13,-20,-23,26,-3,286,135,-2610,9,1067,77
31,13,-18,-22,24,-2,290,136,-2606,3,1069,79
24,13,-11,-18,17,1,296,136,-2604,-3,1068,81
20,14,-6,-17,13,4,298,133,-2606,-7,1069,82
19,14,-5,-16,12,4,297,131,-2609,-8,1072,82
18,10,-8,-14,13,1,292,130,-2612,-10,1073,80
14,4,-10,-9,12,-3,287,130,-2614,-13,1072,78
6,2,-4,-4,5,-1,285,131,-2614,-18,1073,75
-3,3,6,0,-4,4,286,131,-2610,-23,1073,73
-6,6,12,0,-9,9,289,130,-2606,-25,1069,70
-4,8,12,-2,-8,10,291,127,-2604,-28,1063,68
2,7,5,-4,-1,6,291,117,-2609,-34,1059,66
12,4,-8,-8,10,-2,287,103,-2618,-41,1057,63
24,2,-22,-13,23,-10,283,92,-2628,-48,1059,58
29,0,-29,-14,29,-14,282,86,-2634,-52,1058,53
20,-3,-23,-8,21,-13,287,91,-2632,-54,1051,49
2,-8,-10,3,6,-9,295,100,-2626,-57,1040,48
-13,-11,2,12,-7,-4,301,108,-2619,-64,1032,48
-23,-13,10,18,-16,-1,306,111,-2615,-72,1029,48
-22,-15,7,18,-14,-4,311,110,-2612,-76,1028,44
-15,-14,1,14,-8,-6,316,107,-2610,-77,1028,39
-5,-9,-4,7,0,-6,320,107,-2610,-78,1029,36
2,-4,-6,1,4,-5,322,107,-2610,-81,1029,34
9,-5,-14,-2,11,-9,317,102,-2608,-87,1027,31
13,-12,-25,0,19,-18,308,93,-2605,-95,1024,29
16,-21,-37,2,26,-29,298,84,-2603,-104,1021,28
14,-28,-42,7,28,-35,292,78,-2601,-107,1019,28
6,-30,-36,12,21,-33,294,78,-2597,-100,1019,31
-6,-29,-23,17,8,-26,301,81,-2592,-88,1019,33
-21,-26,-5,23,-8,-15,305,82,-2583,-81,1014,34
-28,-20,8,24,-18,-6,306,81,-2576,-78,1010,34
-23,-8,15,15,-19,3,307,84,-2574,-75,1011,33
-10,2,12,4,-11,7,307,86,-2575,-73,1017,34
0,6,6,-3,-3,6,306,85,-2577,-70,1025,33
4,1,-3,-2,3,-1,307,82,-2576,-68,1029,33
-1,-8,-7,4,3,-7,306,81,-2568,-66,1025,35
-8,-14,-6,11,-1,-10,306,82,-2558,-63,1019,38
-6,-7,-1,6,-2,-4,307,79,-2552,-58,1017,41
0,2,2,-1,-1,2,307,77,-2544,-53,1022,42
-1,6,7,-2,-4,6,304,81,-2523,-50,1036,43
-7,4,11,1,-9,7,302,86,-2500,-48,1052,42
-15,0,15,7,-15,7,301,85,-2490,-43,1060,43
-19,0,19,9,-19,9,301,86,-2488,-35,1062,47
-15,3,18,6,-16,10,301,96,-2482,-26,1064,54
-5,8,13,-1,-9,10,297,110,-2475,-19,1067,62
4,9,5,-6,0,7,291,116,-2469,-15,1070,64
13,9,-4,-11,8,2,287,117,-2465,-14,1072,63
16,8,-8,-12,12,0,289,117,-2456,-14,1074,62
14,9,-5,-11,9,2,296,117,-2445,-14,1077,62
9,8,-1,-8,5,3,300,116,-2435,-11,1084,65
4,8,4,-6,0,6,301,116,-2426,-5,1096,71
2,13,11,-7,-4,12,302,120,-2416,4,1109,80
0,18,18,-9,-9,18,302,125,-2406,13,1120,86
-5,20,25,-7,-15,22,301,126,-2398,16,1127,87
-13,19,32,-3,-22,25,301,125,-2391,18,1131,86
-16,17,33,0,-24,25,302,127,-2387,24,1136,91
-14,18,32,-2,-23,25,302,130,-2382,33,1140,96
-9,23,32,-7,-20,27,299,131,-2374,37,1141,97
-4,28,32,-12,-18,30,297,131,-2366,38,1140,96
-1,30,31,-14,-16,30,296,130,-2363,41,1144,101
-3,29,32,-13,-17,30,296,130,-2361,47,1150,106
-11,26,37,-7,-24,31,297,132,-2354,53,1155,107
-18,23,41,-2,-29,32,297,135,-2343,57,1160,106
-16,26,42,-5,-29,34,295,136,-2334,58,1166,110
-9,32,41,-11,-25,36,292,136,-2327,57,1174,116
-5,40,45,-17,-25,42,289,133,-2322,60,1182,117
-4,47,51,-21,-27,49,287,131,-2318,66,1189,116
-3,50,53,-23,-28,51,286,130,-2315,74,1194,119
-3,52,55,-24,-29,53,286,130,-2313,81,1199,121
-4,55,59,-25,-31,57,287,131,-2313,84,1204,121
-4,57,61,-26,-32,59,287,130,-2309,86,1209,121
-3,58,61,-27,-32,59,286,131,-2296,90,1214,126
-3,57,60,-27,-31,58,286,131,-2280,96,1219,134
-4,59,63,-27,-33,61,287,129,-2270,101,1222,141
-4,66,70,-31,-37,68,287,126,-2268,106,1227,145
0,79,79,-39,-39,79,286,123,-2271,111,1240,146
3,94,91,-48,-44,92,286,122,-2273,116,1252,146
5,104,99,-54,-47,101,287,121,-2272,119,1254,146
4,107,103,-55,-49,105,287,121,-2269,121,1249,146
2,103,101,-52,-49,102,285,121,-2269,122,1245,143
0,97,97,-48,-48,97,283,121,-2269,122,1244,141
-1,92,93,-45,-47,92,282,122,-2264,120,1244,142
-3,87,90,-42,-46,88,278,122,-2259,117,1244,145
-4,81,85,-38,-44,83,270,117,-2262,115,1241,147
-4,74,78,-35,-41,76,259,108,-2268,112,1235,146
-2,67,69,-32,-35,68,250,98,-2266,107,1227,143
0,67,67,-33,-33,67,244,88,-2259,102,1223,141
3,76,73,-39,-35,74,239,80,-2255,101,1230,142
8,90,82,-49,-37,86,234,73,-2254,101,1242,145
12,100,88,-56,-38,94,229,68,-2254,101,1249,145
13,106,93,-59,-40,99,224,63,-2254,101,1253,149
13,110,97,-61,-42,103,221,61,-2252,105,1257,163
13,115,102,-64,-44,108,219,62,-2249,111,1262,178
16,124,108,-70,-46,116,218,65,-2245,116,1267,180
19,130,111,-74,-46,120,218,67,-2239,121,1272,175
15,125,110,-70,-47,117,220,69,-2233,123,1276,175
5,113,108,-59,-51,110,223,72,-2226,125,1282,179
-4,103,107,-49,-55,105,228,77,-2218,128,1288,182
-9,97,106,-44,-57,101,233,81,-2210,130,1292,184
-1,95,96,-47,-48,95,236,81,-2206,130,1293,186
16,96,80,-56,-32,88,238,78,-2205,130,1292,189
33,97,64,-65,-15,80,241,77,-2204,133,1295,193
46,97,51,-71,-2,74,243,77,-2204,136,1297,195
52,95,43,-73,4,69,244,78,-2205,133,1296,192
57,92,35,-74,11,63,244,77,-2205,127,1293,186
64,89,25,-76,19,57,243,78,-2204,121,1290,179
68,87,19,-77,24,53,243,78,-2204,117,1288,175
60,84,24,-72,18,54,245,76,-2205,116,1285,174
45,79,34,-62,5,56,247,73,-2205,117,1283,175
31,71,40,-51,-4,55,249,72,-2200,115,1281,173
20,63,43,-41,-11,53,252,72,-2192,112,1278,170
9,59,50,-34,-20,54,256,73,-2184,111,1275,168
-1,54,55,-26,-28,54,262,73,-2181,112,1273,165
-14,44,58,-15,-36,51,267,72,-2183,110,1273,161
-23,34,57,-5,-40,45,272,72,-2186,107,1273,156
-21,32,53,-5,-37,42,275,75,-2182,105,1270,153
-15,33,48,-9,-31,40,277,80,-2172,106,1268,151
-10,32,42,-11,-26,37,280,87,-2163,109,1269,150
-9,29,38,-10,-23,33,282,91,-2156,111,1272,150
-7,26,33,-9,-20,29,283,90,-2155,110,1273,150
-4,24,28,-10,-16,26,283,87,-2155,107,1273,150
0,22,22,-11,-11,22,283,87,-2154,106,1273,151
4,19,15,-11,-5,17,283,87,-2152,107,1273,151
0,15,15,-7,-7,15,281,82,-2151,104,1271,147
-11,9,20,1,-15,14,278,74,-2151,98,1268,141
-27,4,31,11,-29,17,275,66,-2153,91,1267,137
-41,0,41,20,-41,20,273,63,-2155,87,1267,135
-45,0,45,22,-45,22,273,64,-2155,88,1268,137
-43,3,46,20,-44,24,273,67,-2152,91,1268,140
-41,6,47,17,-44,26,270,68,-2149,92,1265,141
-42,4,46,19,-44,25,268,67,-2147,92,1263,140
-45,-3,42,24,-43,19,269,69,-2145,91,1263,142
-47,-12,35,29,-41,11,272,72,-2142,91,1267,145
-46,-15,31,30,-38,8,275,75,-2137,92,1272,148
-43,-10,33,26,-38,11,277,77,-2132,92,1277,150
-41,0,41,20,-41,20,280,78,-2130,91,1278,151
-42,12,54,15,-48,33,282,78,-2131,91,1278,151
-44,18,62,13,-53,40,284,77,-2133,92,1277,150
-43,19,62,12,-52,40,283,78,-2132,92,1277,150
-34,17,51,8,-42,34,279,77,-2128,91,1278,150
-17,14,31,1,-24,22,274,77,-2122,92,1278,150
1,13,12,-7,-5,12,267,78,-2118,91,1277,151
13,13,0,-13,6,6,263,78,-2113,91,1277,151
9,16,7,-12,1,11,265,76,-2107,92,1279,150
-6,18,24,-6,-15,21,271,73,-2099,92,1282,150
-22,19,41,1,-31,30,279,72,-2092,91,1285,153
-32,19,51,6,-41,35,286,72,-2088,91,1287,155
-35,19,54,8,-44,36,289,73,-2085,92,1288,156
-34,19,53,7,-43,36,291,73,-2083,92,1288,155
-35,17,52,9,-43,34,296,72,-2080,91,1287,157
-38,14,52,12,-45,33,301,72,-2075,91,1287,160
-40,13,53,13,-46,33,303,73,-2068,93,1288,161
-39,13,52,13,-45,32,302,73,-2060,96,1288,161
-37,14,51,11,-44,32,301,72,-2051,99,1287,160
-38,14,52,12,-45,33,301,72,-2044,101,1287,160
-46,13,59,16,-52,36,302,76,-2042,102,1289,160
-60,14,74,23,-67,44,302,81,-2043,102,1292,160
-75,13,88,31,-81,50,299,84,-2044,99,1293,161
-82,13,95,34,-88,54,297,82,-2044,97,1293,161
-74,14,88,30,-81,51,296,76,-2041,96,1292,159
-56,14,70,21,-63,42,297,69,-2039,96,1292,156
-38,13,51,12,-44,32,296,64,-2039,96,1293,155
-25,13,38,6,-31,25,296,63,-2039,96,1293,155
-18,17,35,0,-26,26,300,62,-2036,98,1292,158
-18,23,41,-2,-29,32,306,62,-2031,101,1292,163
-23,27,50,-2,-36,38,310,62,-2025,106,1295,171
-28,29,57,0,-42,43,311,62,-2020,111,1297,179
-29,27,56,1,-42,41,312,63,-2017,112,1298,181
-28,24,52,2,-40,38,312,63,-2015,112,1297,180
-32,23,55,4,-43,39,311,61,-2013,112,1299,178
-30,23,53,3,-41,38,311,58,-2010,112,1298,175
-12,24,36,-6,-24,30,312,57,-2007,107,1291,168
10,24,14,-17,-2,19,312,57,-2005,98,1280,158
22,23,1,-22,10,12,311,60,-2005,88,1268,147
20,23,3,-21,8,13,311,62,-2005,82,1263,141
9,24,15,-16,-3,19,313,63,-1999,82,1266,144
-6,24,30,-9,-18,27,316,63,-1992,86,1276,154
-21,23,44,-1,-32,33,317,62,-1987,87,1285,163
-32,23,55,4,-43,39,317,62,-1986,87,1292,169
-37,24,61,6,-49,42,316,64,-1984,88,1295,169
-35,24,59,5,-47,41,316,67,-1981,91,1297,165
-26,23,49,1,-37,36,317,72,-1978,96,1299,163
-19,23,42,-2,-30,32,317,77,-1976,101,1301,164
-23,25,48,-1,-35,36,316,78,-1976,104,1302,166
-33,28,61,2,-47,44,316,77,-1976,106,1302,169
-33,33,66,0,-49,49,317,79,-1974,106,1301,172
-25,38,63,-6,-44,50,317,81,-1971,106,1301,174
-14,39,53,-12,-33,46,315,81,-1970,108,1302,175
-5,39,44,-17,-24,41,312,78,-1970,111,1302,175
0,39,39,-19,-19,39,309,75,-1971,113,1301,175
0,39,39,-19,-19,39,307,73,-1970,112,1301,175
0,38,38,-19,-19,38,306,71,-1971,109,1303,174
3,38,35,-20,-16,36,310,72,-1971,107,1306,170
9,43,34,-26,-12,38,322,76,-1969,106,1308,163
6,47,41,-26,-17,44,341,81,-1970,96,1293,145
-17,45,62,-14,-39,53,367,85,-1978,61,1248,112
-52,35,87,8,-69,61,395,90,-1985,20,1193,74
-77,25,102,26,-89,63,418,100,-1980,0,1163,47
-87,26,113,30,-100,69,436,124,-1950,23,1177,48
-79,49,128,15,-103,88,451,171,-1890,107,1238,88
-65,81,146,-8,-105,113,465,235,-1810,225,1332,152
-54,105,159,-25,-106,132,477,303,-1726,343,1436,221
-35,129,164,-47,-99,146,482,376,-1637,466,1556,304
10,171,161,-90,-75,166,478,454,-1535,616,1702,413
68,220,152,-144,-42,186,466,529,-1435,762,1852,535
116,262,146,-189,-15,204,447,585,-1361,864,1978,643
164,306,142,-235,11,224,423,630,-1296,955,2105,759
230,370,140,-300,45,255,396,678,-1214,1090,2270,914
300,441,141,-370,79,291,366,727,-1119,1253,2459,1083
353,496,143,-424,105,319,337,772,-1024,1407,2637,1224
392,538,146,-465,123,342,314,819,-912,1570,2821,1351
431,577,146,-504,142,361,304,874,-763,1776,3037,1493
460,606,146,-533,157,376,302,925,-609,1982,3242,1625
461,614,153,-537,154,383,301,946,-504,2121,3373,1699
439,582,143,-510,148,362,305,898,-494,2174,3419,1708
404,490,86,-447,159,288,319,744,-616,2145,3390,1657
349,353,4,-351,172,178,341,514,-860,1996,3273,1559
261,199,-62,-230,161,68,363,265,-1195,1681,3041,1420
155,49,-106,-102,130,-28,378,43,-1573,1181,2650,1214
55,-79,-134,12,94,-106,383,-114,-1940,513,2076,916
-29,-189,-160,109,65,-174,387,-208,-2236,-136,1462,580
-96,-287,-191,191,47,-239,406,-244,-2402,-538,1002,293
-140,-354,-214,247,37,-284,440,-220,-2446,-696,740,83
-157,-369,-212,263,27,-290,486,-134,-2403,-709,648,-48
-163,-354,-191,258,14,-272,540,-26,-2322,-659,647,-125
-178,-342,-164,260,-7,-253,598,47,-2253,-612,646,-175
-197,-330,-133,263,-32,-231,657,79,-2213,-580,635,-209
-207,-298,-91,252,-58,-194,713,81,-2203,-551,636,-229
-212,-252,-40,232,-86,-146,763,62,-2209,-522,653,-234
-222,-208,14,215,-118,-97,801,35,-2209,-493,681,-224
-232,-177,55,204,-143,-61,840,19,-2199,-463,715,-207
-233,-173,60,203,-146,-56,896,32,-2177,-433,749,-193
-225,-186,39,205,-132,-73,973,69,-2144,-401,779,-186
-215,-204,11,209,-113,-96,1067,115,-2102,-366,805,-180
-212,-221,-9,216,-101,-115,1163,151,-2064,-332,829,-176
-225,-233,-8,229,-108,-120,1242,163,-2045,-301,854,-169
-242,-242,0,242,-121,-121,1292,157,-2039,-277,878,-158
-244,-250,-6,247,-119,-128,1310,147,-2033,-257,900,-142
-239,-257,-18,248,-110,-137,1329,141,-2022,-241,918,-128
-239,-259,-20,249,-109,-139,1386,140,-2007,-227,935,-120
-243,-258,-15,250,-114,-136,1451,134,-1995,-219,949,-117
-243,-253,-10,248,-116,-131,1463,106,-1997,-220,956,-111
-239,-245,-6,242,-116,-125,1394,65,-2008,-220,963,-99
-236,-235,1,235,-118,-117,1235,27,-2016,-206,980,-84
-227,-221,6,224,-116,-107,1025,-3,-2019,-184,1001,-66
-204,-204,0,204,-102,-102,822,-30,-2019,-164,1017,-47
-175,-180,-5,177,-85,-92,655,-50,-2016,-148,1034,-27
-152,-149,3,150,-77,-73,537,-61,-2009,-134,1062,-8
-137,-121,16,129,-76,-52,459,-67,-2001,-119,1093,6
-129,-106,23,117,-76,-41,406,-71,-1992,-105,1111,16
-123,-98,25,110,-74,-36,373,-65,-1979,-90,1120,22
-115,-86,29,100,-72,-28,363,-42,-1959,-72,1130,30
-104,-70,34,87,-69,-18,365,-13,-1936,-55,1143,37
-88,-60,28,74,-58,-16,364,3,-1916,-43,1155,42
-71,-54,17,62,-44,-18,357,8,-1904,-35,1164,46
-55,-46,9,50,-32,-18,348,9,-1900,-29,1168,53
-41,-36,5,38,-23,-15,337,5,-1902,-24,1170,61
-27,-22,5,24,-16,-8,329,-6,-1903,-21,1173,66
-19,-10,9,14,-14,0,322,-17,-1903,-19,1175,67
-22,-6,16,14,-19,5,319,-18,-1901,-16,1175,67
-32,-8,24,20,-28,8,317,-10,-1898,-14,1175,67
-39,-10,29,24,-34,9,315,-3,-1895,-13,1178,69
-42,-9,33,25,-37,12,312,0,-1893,-14,1183,72
-41,-5,36,23,-38,15,308,-1,-1893,-12,1188,76
-39,0,39,19,-39,19,303,-7,-1893,-9,1193,81
-38,2,40,18,-39,21,296,-15,-1891,-6,1199,84
-38,3,41,17,-39,22,292,-19,-1888,-4,1204,86
-39,4,43,17,-41,23,294,-14,-1887,-3,1205,89
-39,4,43,17,-41,23,301,-5,-1888,-4,1204,91
-36,3,39,16,-37,21,303,0,-1887,-2,1208,92
-34,3,37,15,-35,20,302,0,-1887,0,1214,92
-33,7,40,13,-36,23,300,-1,-1891,0,1216,90
-34,12,46,11,-40,29,297,-7,-1897,0,1215,87
-32,17,49,7,-40,33,294,-19,-1899,0,1211,84
-29,18,47,5,-38,32,292,-32,-1898,-3,1205,82
-27,18,45,4,-36,31,291,-36,-1895,-8,1202,79
-25,18,43,3,-34,30,292,-34,-1893,-13,1200,78
-17,21,38,-2,-27,29,290,-31,-1892,-15,1198,77
-10,23,33,-6,-21,28,287,-29,-1893,-14,1195,78
-7,23,30,-8,-18,26,285,-28,-1891,-12,1191,76
-8,19,27,-5,-17,23,283,-32,-1888,-13,1185,73
-10,16,26,-3,-18,21,280,-41,-1886,-18,1182,70
-12,14,26,-1,-19,20,278,-51,-1883,-23,1180,68
-20,14,34,3,-27,24,278,-54,-1879,-24,1179,68
-31,14,45,8,-38,29,278,-53,-1877,-23,1177,68
-42,10,52,16,-47,31,274,-52,-1880,-25,1169,66
-51,4,55,23,-53,29,268,-52,-1883,-28,1161,63
-55,1,56,27,-55,28,266,-53,-1878,-29,1162,62
-54,3,57,25,-55,30,267,-53,-1870,-29,1169,62
-46,9,55,18,-50,32,270,-52,-1865,-29,1174,65
-39,14,53,12,-46,33,272,-53,-1864,-29,1175,67
-40,9,49,15,-44,29,273,-52,-1863,-28,1176,68
-46,-1,45,23,-45,22,273,-52,-1863,-28,1176,68
-52,-10,42,31,-47,16,271,-53,-1865,-32,1172,67
-53,-14,39,33,-46,12,268,-53,-1868,-38,1167,68
-48,-10,38,29,-43,14,265,-51,-1869,-40,1161,67
-40,-1,39,20,-39,19,263,-48,-1869,-39,1156,67
-32,5,37,13,-34,21,262,-45,-1867,-36,1153,69
-29,9,38,10,-33,23,262,-43,-1865,-34,1151,72
-31,6,37,12,-34,21,263,-41,-1858,-33,1150,73
-37,0,37,18,-37,18,263,-39,-1850,-34,1150,73
-43,-2,41,22,-42,19,261,-36,-1843,-33,1151,72
-47,-3,44,25,-45,20,258,-34,-1839,-33,1151,72
-47,-4,43,25,-45,19,257,-35,-1838,-36,1147,72
-47,-4,43,25,-45,19,257,-38,-1838,-42,1141,72
-50,-3,47,26,-48,22,259,-39,-1839,-45,1138,73
-49,-3,46,26,-47,21,258,-38,-1839,-47,1136,73
-36,-6,30,21,-33,12,251,-41,-1838,-47,1137,71
-17,-12,5,14,-11,-3,241,-46,-1838,-47,1137,68
-3,-18,-15,10,6,-16,232,-52,-1841,-49,1133,65
0,-19,-19,9,9,-19,228,-57,-1843,-52,1127,63
-6,-12,-6,9,0,-9,232,-60,-1843,-54,1124,62
-20,-1,19,10,-19,9,238,-62,-1839,-53,1122,62
-35,4,39,15,-37,21,239,-64,-1835,-50,1120,64
-43,8,51,17,-47,29,239,-67,-1830,-48,1121,67
-35,12,47,11,-41,29,239,-70,-1827,-47,1127,70
-21,17,38,2,-29,27,239,-72,-1825,-48,1135,72
-13,23,36,-5,-24,29,235,-74,-1822,-46,1140,73
-13,28,41,-7,-27,34,229,-73,-1820,-43,1141,72
-19,28,47,-4,-33,37,227,-69,-1819,-42,1139,74
-27,25,52,1,-39,38,228,-63,-1819,-43,1137,77
-32,20,52,6,-42,36,230,-60,-1821,-41,1134,79
-30,18,48,6,-39,33,229,-62,-1820,-39,1135,81
-20,24,44,-2,-32,34,223,-68,-1815,-36,1144,83
-10,32,42,-11,-26,37,215,-76,-1806,-34,1154,86
-7,36,43,-14,-25,39,209,-80,-1797,-31,1157,89
-9,38,47,-14,-28,42,204,-81,-1790,-29,1156,91
-5,41,46,-18,-25,43,200,-83,-1788,-27,1157,92
0,46,46,-23,-23,46,195,-86,-1789,-24,1163,91
-2,51,53,-24,-27,52,191,-87,-1790,-20,1175,92
-8,53,61,-22,-34,57,186,-86,-1790,-15,1188,96
-10,51,61,-20,-35,56,179,-87,-1789,-10,1194,101
-9,52,61,-21,-35,56,171,-91,-1789,-5,1198,109
-7,59,66,-26,-36,62,163,-95,-1790,2,1207,121
-4,70,74,-33,-39,72,156,-101,-1790,11,1218,133
-1,79,80,-39,-40,79,154,-104,-1786,22,1225,144
2,85,83,-43,-40,84,151,-106,-1781,32,1232,154
10,92,82,-51,-36,87,145,-108,-1778,38,1242,162
18,100,82,-59,-32,91,137,-107,-1776,45,1258,172
18,110,92,-64,-37,101,132,-102,-1774,58,1279,184
17,120,103,-68,-43,111,127,-97,-1771,71,1296,197
27,127,100,-77,-36,113,114,-98,-1768,77,1299,207
41,133,92,-87,-25,112,99,-101,-1766,80,1297,216
45,146,101,-95,-28,123,91,-101,-1764,90,1306,228
46,165,119,-105,-36,142,87,-101,-1761,104,1323,241
59,187,128,-123,-34,157,81,-105,-1757,117,1339,252
75,206,131,-140,-28,168,74,-111,-1752,128,1353,265
80,212,132,-146,-26,172,70,-112,-1747,140,1367,280
78,213,135,-145,-28,174,68,-108,-1742,153,1382,298
79,219,140,-149,-30,179,64,-101,-1738,166,1394,313
81,227,146,-154,-32,186,59,-90,-1733,178,1403,324
80,231,151,-155,-35,191,53,-71,-1725,183,1411,330
74,233,159,-153,-42,196,48,-48,-1714,188,1418,334
68,237,169,-152,-50,203,47,-24,-1703,199,1425,341
67,242,175,-154,-54,208,48,-6,-1694,212,1428,349
76,248,172,-162,-48,210,46,2,-1688,216,1427,354
92,252,160,-172,-34,206,43,4,-1683,214,1424,355
111,254,143,-182,-16,198,41,2,-1680,212,1423,355
124,253,129,-188,-2,191,42,3,-1678,213,1423,355
126,250,124,-188,1,187,45,9,-1676,216,1423,357
118,247,129,-182,-5,188,47,17,-1674,218,1423,360
110,249,139,-179,-14,194,47,23,-1667,217,1424,362
103,252,149,-177,-23,200,47,27,-1660,214,1424,361
99,251,152,-175,-26,201,51,34,-1656,214,1420,358
97,245,148,-171,-25,196,56,41,-1654,214,1415,352
95,239,144,-167,-24,191,60,45,-1650,210,1414,344
92,234,142,-163,-25,188,66,47,-1645,204,1411,337
90,232,142,-161,-26,187,77,51,-1640,203,1400,331
91,230,139,-160,-24,184,90,56,-1635,204,1384,327
94,223,129,-158,-17,176,95,62,-1629,202,1370,320
97,215,118,-156,-10,166,96,70,-1621,200,1361,313
94,210,116,-152,-11,163,101,82,-1613,200,1359,306
88,205,117,-146,-14,161,109,94,-1606,200,1357,299
82,196,114,-139,-16,155,119,102,-1600,195,1346,287
75,186,111,-130,-18,148,128,106,-1595,186,1330,275
63,179,116,-121,-26,147,139,111,-1592,178,1318,265
50,172,122,-111,-36,147,152,116,-1590,171,1309,255
42,158,116,-100,-37,137,167,117,-1590,166,1297,243
35,143,108,-89,-36,125,182,116,-1590,162,1285,231
25,135,110,-80,-42,122,194,118,-1588,155,1275,222
15,131,116,-73,-50,123,202,121,-1586,147,1265,215
11,126,115,-68,-52,120,207,122,-1586,139,1252,205
9,118,109,-63,-50,113,212,122,-1586,132,1240,192
5,109,104,-57,-49,106,222,120,-1583,127,1236,181
3,102,99,-52,-48,100,232,117,-1581,123,1235,172
11,102,91,-56,-40,96,234,112,-1582,114,1226,162
22,106,84,-64,-31,95,233,104,-1585,103,1213,153
24,108,84,-66,-30,96,238,93,-1587,97,1199,143
23,107,84,-65,-30,95,246,83,-1589,93,1187,133
30,101,71,-65,-20,86,251,77,-1591,86,1176,122
38,93,55,-65,-8,74,252,73,-1594,79,1167,113
34,87,53,-60,-9,70,254,71,-1596,74,1162,110
21,80,59,-50,-19,69,257,69,-1599,69,1158,108
10,68,58,-39,-24,63,258,62,-1604,60,1145,97
2,55,53,-28,-25,54,258,54,-1609,49,1129,84
-8,46,54,-19,-31,50,257,48,-1609,44,1120,79
-21,43,64,-11,-42,53,257,43,-1605,42,1117,81
-32,43,75,-5,-53,59,259,41,-1603,43,1115,83
-41,43,84,-1,-62,63,262,39,-1604,43,1116,82
-47,39,86,4,-66,62,264,37,-1609,40,1121,79
-48,34,82,7,-65,58,267,34,-1614,35,1126,74
-44,33,77,5,-60,55,270,30,-1613,30,1122,69
-39,34,73,2,-56,53,272,25,-1610,25,1110,64
-37,30,67,3,-52,48,271,18,-1613,18,1095,58
-38,24,62,7,-50,43,268,10,-1622,10,1080,53
-39,22,61,8,-50,41,265,4,-1633,4,1069,51
-39,23,62,8,-50,42,263,0,-1642,0,1063,48
-39,26,65,6,-52,45,260,-1,-1646,-3,1063,42
-39,28,67,5,-53,47,258,-3,-1648,-8,1063,35
-38,27,65,5,-51,46,257,-6,-1651,-11,1055,31
-35,24,59,5,-47,41,258,-8,-1654,-13,1045,29
-28,22,50,3,-39,36,257,-7,-1650,-13,1042,26
-24,19,43,2,-33,31,257,-1,-1641,-13,1044,24
-26,16,42,5,-34,29,261,5,-1632,-16,1039,23
-32,13,45,9,-38,29,267,8,-1628,-22,1030,24
-35,17,52,9,-43,34,269,6,-1634,-28,1023,22
-34,22,56,6,-45,39,268,1,-1646,-33,1016,19
-32,25,57,3,-44,41,264,-2,-1657,-37,1006,15
-33,24,57,4,-45,40,259,-3,-1666,-41,996,10
-38,20,58,9,-48,39,253,-3,-1673,-48,992,5
-42,15,57,13,-49,36,248,-3,-1681,-56,990,1
-40,11,51,14,-45,31,245,-5,-1690,-62,986,-3
-35,9,44,13,-39,26,243,-8,-1697,-66,978,-8
-32,8,40,12,-36,24,244,-13,-1696,-73,967,-10
-33,8,41,12,-37,24,247,-18,-1689,-80,957,-13
-35,9,44,13,-39,26,249,-20,-1684,-86,950,-17
-38,9,47,14,-42,28,252,-19,-1679,-91,943,-22
-41,5,46,18,-43,25,255,-17,-1671,-93,932,-27
-42,0,42,21,-42,21,257,-14,-1661,-95,919,-28
-42,-1,41,21,-41,20,258,-13,-1652,-102,909,-28
-42,-3,39,22,-40,18,257,-13,-1642,-110,903,-28
-47,-7,40,27,-43,16,259,-15,-1626,-115,899,-32
-56,-13,43,34,-49,15,262,-18,-1608,-116,897,-37
-62,-15,47,38,-54,16,263,-19,-1594,-118,895,-41
-63,-14,49,38,-56,17,263,-19,-1580,-121,893,-42
-58,-10,48,34,-53,19,263,-18,-1559,-123,889,-44
-49,-5,44,27,-46,19,263,-18,-1533,-125,884,-47
-43,-1,42,22,-42,20,262,-19,-1507,-127,878,-48
-42,0,42,21,-42,21,262,-19,-1483,-126,873,-48
-47,0,47,23,-47,23,266,-17,-1459,-122,872,-46
-56,0,56,28,-56,28,271,-14,-1435,-117,873,-43
-63,1,64,31,-63,32,275,-13,-1408,-116,869,-41
-67,7,74,30,-70,40,277,-14,-1381,-116,864,-42
-67,15,82,26,-74,48,278,-11,-1359,-117,859,-46
-63,23,86,20,-74,54,277,-9,-1341,-117,858,-51
-60,22,82,19,-71,52,278,-10,-1323,-116,857,-57
-61,12,73,24,-67,42,278,-13,-1303,-116,855,-62
-71,-6,65,38,-68,29,276,-15,-1279,-117,847,-65
-84,-25,59,54,-71,17,273,-17,-1254,-117,836,-67
-90,-35,55,62,-72,10,271,-23,-1233,-115,828,-70
-87,-35,52,61,-69,8,268,-28,-1211,-112,827,-72
-83,-28,55,55,-69,13,265,-27,-1180,-111,836,-73
-79,-20,59,49,-69,19,263,-24,-1147,-112,847,-73
-73,-14,59,43,-66,22,262,-26,-1126,-109,850,-72
-68,-10,58,39,-63,24,262,-29,-1114,-103,849,-69
-67,-5,62,36,-64,28,264,-23,-1103,-95,849,-62
-68,0,68,34,-68,34,267,-15,-1090,-88,853,-54
-66,0,66,33,-66,33,268,-13,-1079,-83,857,-50
-63,0,63,31,-63,31,268,-17,-1069,-82,858,-52
-60,-1,59,30,-59,29,268,-21,-1062,-82,853,-56
-58,-3,55,30,-56,26,268,-23,-1055,-82,845,-61
-59,-6,53,32,-56,23,266,-26,-1048,-80,840,-65
-62,-9,53,35,-57,22,263,-29,-1040,-74,842,-64
-64,-6,58,35,-61,26,262,-25,-1033,-64,852,-57
-66,0,66,33,-66,33,262,-20,-1025,-54,865,-49
-72,1,73,35,-72,37,263,-17,-1019,-50,873,-47
-80,0,80,40,-80,40,262,-18,-1015,-48,877,-48
-85,0,85,42,-85,42,263,-20,-1015,-43,881,-46
-87,0,87,43,-87,43,263,-23,-1015,-35,887,-43
-85,3,88,41,-86,45,261,-27,-1011,-30,889,-44
-82,8,90,37,-86,49,258,-32,-1009,-29,888,-47
-79,10,89,34,-84,49,257,-37,-1017,-27,886,-46
-80,9,89,35,-84,49,257,-41,-1030,-24,883,-43
-88,6,94,41,-91,50,258,-46,-1041,-21,879,-44
-96,4,100,46,-98,52,258,-48,-1044,-19,877,-47
-95,4,99,45,-97,51,257,-42,-1041,-19,881,-45
-88,7,95,40,-91,51,257,-31,-1035,-19,890,-39
-84,12,96,36,-90,54,258,-21,-1030,-16,899,-37
-82,18,100,32,-91,59,258,-14,-1028,-10,906,-38
-78,21,99,28,-88,60,256,-12,-1031,-4,908,-38
-70,23,93,23,-81,58,253,-13,-1037,0,907,-38
-61,26,87,17,-74,56,250,-14,-1045,0,906,-40
-54,28,82,13,-68,55,248,-14,-1049,0,906,-43
-51,29,80,11,-65,54,246,-12,-1042,2,907,-40
-52,28,80,12,-66,54,244,-9,-1031,7,907,-35
-53,30,83,11,-68,56,241,-8,-1026,12,905,-31
-53,36,89,8,-71,62,239,-8,-1028,17,905,-29
-50,49,99,0,-74,74,238,-9,-1032,23,914,-28
-48,65,113,-8,-80,89,238,-9,-1034,28,925,-28
-49,74,123,-12,-86,98,239,-7,-1031,31,926,-28
-52,77,129,-12,-90,103,239,-4,-1028,33,918,-28
-53,78,131,-12,-92,104,237,-3,-1032,36,913,-29
-53,77,130,-12,-91,103,234,-3,-1038,38,911,-29
-52,78,130,-13,-91,104,232,-4,-1038,39,912,-25
-52,78,130,-13,-91,104,229,-4,-1038,39,912,-19
-53,75,128,-11,-90,101,226,-3,-1044,39,909,-18
-53,73,126,-10,-89,99,224,-3,-1052,39,903,-22
-51,73,124,-11,-87,98,224,-5,-1054,37,897,-28
-48,77,125,-14,-86,101,224,-8,-1049,34,893,-33
-44,80,124,-18,-84,102,218,-12,-1047,33,894,-34
-39,82,121,-21,-80,101,206,-17,-1048,33,896,-33
-36,80,116,-22,-76,98,195,-21,-1050,34,896,-35
-34,78,112,-22,-73,95,186,-23,-1053,34,893,-35
-32,77,109,-22,-70,93,180,-24,-1055,33,892,-25
-29,78,107,-24,-68,92,175,-23,-1054,33,892,-15
-27,77,104,-25,-65,90,172,-24,-1051,34,893,-16
-25,77,102,-26,-63,89,170,-24,-1045,34,893,-26
-19,81,100,-31,-59,90,169,-22,-1038,33,890,-33
-10,86,96,-38,-53,91,169,-19,-1031,33,888,-34
-3,86,89,-41,-46,87,170,-17,-1022,37,889,-32
0,82,82,-41,-41,82,170,-14,-1012,42,892,-29
-2,80,82,-39,-42,81,169,-10,-1002,43,893,-25
-11,81,92,-35,-51,86,169,-2,-992,42,892,-20
-22,84,106,-31,-64,95,172,8,-984,44,894,-14
-28,86,114,-29,-71,100,174,17,-977,47,896,-9
-24,86,110,-31,-67,98,174,20,-970,48,896,-9
-12,82,94,-35,-53,88,170,19,-962,48,893,-13
0,79,79,-39,-39,79,167,18,-954,47,890,-16
7,78,71,-42,-32,74,165,18,-947,47,888,-18
10,78,68,-44,-29,73,164,19,-942,48,888,-19
9,78,69,-43,-30,73,164,19,-937,48,888,-19
7,76,69,-41,-31,72,166,19,-929,46,885,-18
4,73,69,-38,-32,71,169,19,-919,43,879,-18
2,72,70,-37,-34,71,171,18,-912,42,874,-20
0,73,73,-36,-36,73,174,18,-904,42,869,-22
-2,71,73,-34,-37,72,176,20,-890,42,864,-28
-7,65,72,-29,-39,68,179,23,-875,39,859,-36
-12,53,65,-20,-38,59,181,24,-872,35,855,-48
-14,41,55,-13,-34,48,184,24,-877,30,850,-60
-12,33,45,-10,-28,39,186,23,-876,26,843,-68
-12,30,42,-9,-27,36,189,23,-869,24,835,-72
-21,25,46,-2,-33,35,192,24,-863,24,831,-73
-38,19,57,9,-47,38,194,24,-858,24,829,-73
-56,17,73,19,-64,45,195,22,-856,22,827,-72
-70,15,85,27,-77,50,195,19,-854,19,824,-73
-75,8,83,33,-79,45,194,18,-851,18,823,-72
-73,-1,72,37,-72,35,194,19,-845,18,823,-72
-72,-11,61,41,-66,25,195,17,-839,19,824,-74
-72,-17,55,44,-63,19,195,14,-834,19,824,-77
-72,-20,52,46,-62,16,193,13,-834,17,822,-81
-69,-19,50,44,-59,15,190,13,-838,14,819,-86
-62,-17,45,39,-53,14,188,15,-840,13,815,-89
-54,-14,40,34,-47,13,185,18,-839,13,811,-91
-51,-11,40,31,-45,14,182,19,-836,14,806,-93
-52,-8,44,30,-48,18,180,19,-834,14,801,-96
-54,-11,43,32,-48,16,179,19,-834,13,797,-99
-54,-14,40,34,-47,13,179,19,-838,13,795,-101
-45,-10,35,27,-40,12,179,17,-841,14,795,-102
-32,-2,30,17,-31,14,179,14,-843,14,795,-102
-19,5,24,7,-21,14,181,11,-843,13,793,-101
-13,9,22,2,-17,15,184,9,-843,13,790,-102
-18,6,24,6,-21,15,185,8,-846,14,789,-101
-30,1,31,14,-30,16,185,9,-852,14,789,-101
-43,-2,41,22,-42,19,184,8,-859,13,790,-102
-51,-3,48,27,-49,22,184,8,-863,14,790,-102
-54,-5,49,29,-51,22,185,12,-859,13,789,-99
-53,-8,45,30,-49,18,185,17,-851,13,789,-93
-52,-9,43,30,-47,17,183,21,-841,14,790,-88
-52,-9,43,30,-47,17,180,23,-835,14,790,-86
-53,-8,45,30,-49,18,178,24,-833,13,787,-90
-53,-9,44,31,-48,17,175,24,-833,13,781,-99
-52,-8,44,30,-48,18,172,23,-833,14,775,-109
-52,-8,44,30,-48,18,170,23,-830,14,771,-116
-54,-10,44,32,-49,17,169,23,-825,13,770,-116
-57,-13,44,35,-50,15,170,23,-820,13,770,-112
-59,-14,45,36,-52,15,168,24,-816,14,771,-110
-58,-14,44,36,-51,15,165,24,-814,14,771,-111
-54,-13,41,33,-47,14,164,23,-811,12,769,-113
-49,-13,36,31,-42,11,164,23,-806,9,766,-116
-44,-14,30,29,-37,8,165,26,-801,7,764,-119
-39,-14,25,26,-32,5,165,32,-796,4,761,-121
-36,-14,22,25,-29,4,163,39,-790,2,757,-122
-34,-14,20,24,-27,3,161,46,-782,0,752,-121
-31,-13,18,22,-24,2,160,50,-772,0,748,-123
-29,-13,16,21,-22,1,160,52,-762,0,746,-125
-28,-14,14,21,-21,0,160,54,-756,0,745,-127
-28,-14,14,21,-21,0,160,57,-752,0,745,-130
-29,-12,17,20,-23,2,162,60,-745,0,745,-133
-32,-9,23,20,-27,7,164,62,-737,0,745,-135
-42,-9,33,25,-37,12,165,63,-733,1,746,-134
-55,-12,43,33,-49,15,165,63,-732,3,746,-131
-63,-18,45,40,-54,13,164,63,-731,4,744,-130
-67,-23,44,45,-55,10,164,63,-728,4,741,-130
-70,-24,46,47,-58,11,165,61,-722,3,740,-131
-69,-24,45,46,-57,10,165,58,-714,3,740,-131
-58,-24,34,41,-46,5,164,57,-705,4,740,-129
-44,-24,20,34,-32,-2,164,57,-697,4,740,-126
-45,-22,23,33,-34,0,165,59,-696,3,742,-124
-55,-19,36,37,-45,8,168,62,-697,3,745,-122
-62,-16,46,39,-54,15,173,63,-694,5,746,-121
-63,-14,49,38,-56,17,179,62,-688,7,746,-121
-62,-13,49,37,-55,18,181,64,-687,12,745,-121
-62,-13,49,37,-55,18,180,67,-687,17,745,-121
-65,-14,51,39,-58,18,178,68,-688,22,746,-122
-65,-14,51,39,-58,18,176,68,-687,24,746,-125
-51,-13,38,32,-44,12,170,67,-688,21,745,-129
-32,-13,19,22,-25,3,162,68,-691,15,746,-134
-24,-14,10,19,-17,-2,156,67,-693,11,745,-139
-24,-14,10,19,-17,-2,151,67,-696,9,745,-141
-21,-10,11,15,-16,0,150,69,-698,8,746,-139
-15,-2,13,8,-14,5,150,72,-700,8,746,-136
-11,5,16,3,-13,10,151,72,-705,9,745,-135
-12,9,21,1,-16,15,151,72,-711,12,745,-136
-21,6,27,7,-24,16,148,77,-713,18,748,-133
-35,-1,34,18,-34,16,142,88,-712,26,754,-127
-46,-10,36,28,-41,13,136,102,-710,35,761,-121
-52,-18,34,35,-43,8,134,114,-710,39,762,-120
-55,-19,36,37,-45,8,144,119,-717,30,748,-132
-60,-18,42,39,-51,12,163,120,-728,10,720,-154
-73,-21,52,47,-62,15,188,127,-739,-13,685,-178
-92,-27,65,59,-78,19,212,138,-748,-36,648,-205
-107,-31,76,69,-91,22,234,147,-754,-57,615,-238
-113,-23,90,68,-101,33,249,163,-747,-55,602,-258
-103,1,104,51,-103,52,259,196,-712,-7,630,-240
-86,32,118,27,-102,75,266,250,-649,83,702,-190
-72,50,122,11,-97,86,274,323,-565,199,806,-127
-55,62,117,-3,-86,89,281,406,-466,335,937,-52
-21,89,110,-34,-65,99,282,488,-360,488,1086,44
25,129,104,-77,-39,116,272,562,-261,628,1236,158
73,172,99,-122,-13,135,250,622,-184,719,1366,279
122,216,94,-169,14,155,221,671,-120,787,1487,408
175,265,90,-220,42,177,195,715,-45,889,1627,548
230,320,90,-275,70,205,171,767,57,1040,1804,702
278,379,101,-328,88,240,145,841,200,1233,2026,870
323,434,111,-378,106,272,121,922,359,1440,2263,1037
371,479,108,-425,131,293,109,981,498,1626,2466,1177
415,507,92,-461,161,299,106,1011,620,1794,2630,1278
440,516,76,-478,182,296,107,1013,743,1961,2767,1333
447,501,54,-474,196,277,113,981,839,2109,2872,1345
444,452,8,-448,218,230,129,902,852,2197,2921,1316
406,354,-52,-380,229,151,150,744,700,2102,2833,1222
300,193,-107,-246,203,43,169,475,306,1686,2508,1026
158,10,-148,-84,153,-69,182,169,-212,1039,2005,761
37,-134,-171,48,104,-152,191,-56,-655,370,1462,491
-49,-238,-189,143,70,-213,203,-164,-941,-172,966,233
-112,-327,-215,219,51,-271,229,-168,-1065,-492,574,-18
-156,-400,-244,278,44,-322,267,-107,-1084,-637,299,-244
-182,-437,-255,309,36,-346,307,-32,-1078,-723,129,-415
-199,-441,-242,320,21,-341,352,39,-1059,-769,47,-519
-217,-425,-208,321,-4,-316,407,105,-1006,-748,36,-560
-235,-394,-159,314,-38,-276,467,159,-941,-688,60,-567
-244,-356,-112,300,-66,-234,522,189,-902,-641,82,-581
-250,-313,-63,281,-93,-188,566,190,-895,-612,100,-595
-263,-270,-7,266,-128,-138,593,159,-903,-583,132,-582
-282,-235,47,258,-164,-94,612,116,-914,-553,174,-553
-296,-220,76,258,-186,-72,640,93,-919,-526,207,-533
-301,-225,76,263,-188,-74,691,100,-911,-499,229,-527
-301,-241,60,271,-180,-90,779,132,-889,-468,245,-525
-300,-259,41,279,-170,-109,884,171,-863,-433,262,-522
-308,-270,38,289,-173,-116,974,193,-850,-400,283,-518
-316,-276,40,296,-178,-118,1033,193,-848,-375,306,-510
-312,-284,28,298,-170,-128,1060,178,-848,-359,325,-496
-299,-294,5,296,-152,-144,1082,162,-842,-349,341,-481
-292,-302,-10,297,-141,-156,1135,162,-827,-334,356,-472
-288,-306,-18,297,-135,-162,1201,163,-815,-319,368,-469
-282,-305,-23,293,-129,-164,1233,142,-817,-314,372,-462
-274,-299,-25,286,-124,-162,1211,106,-830,-313,377,-451
-270,-290,-20,280,-125,-155,1130,78,-838,-302,392,-436
-262,-277,-15,269,-123,-146,989,61,-839,-283,413,-419
-239,-258,-19,248,-110,-138,794,47,-837,-264,430,-400
-208,-232,-24,220,-92,-128,587,32,-834,-248,447,-380
-182,-200,-18,191,-82,-109,422,21,-833,-233,472,-359
-167,-170,-3,168,-82,-86,313,14,-830,-218,500,-340
-161,-155,6,158,-83,-74,248,13,-822,-202,518,-326
-160,-148,12,154,-86,-68,211,20,-809,-185,528,-314
-160,-137,23,148,-91,-57,187,37,-791,-165,540,-303
-154,-124,30,139,-92,-47,172,61,-771,-145,556,-294
-138,-116,22,127,-80,-47,165,83,-754,-130,571,-288
-120,-113,7,116,-63,-53,162,102,-742,-119,582,-284
-110,-108,2,109,-56,-53,155,118,-738,-110,589,-277
-104,-100,4,102,-54,-48,144,126,-740,-103,594,-269
-91,-87,4,89,-47,-41,131,117,-742,-99,597,-264
-73,-75,-2,74,-35,-38,119,100,-745,-97,599,-263
-55,-69,-14,62,-20,-41,110,92,-748,-94,600,-262
-41,-67,-26,54,-7,-46,103,95,-750,-92,599,-262
-34,-68,-34,51,0,-51,99,101,-751,-92,600,-264
-30,-68,-38,49,4,-53,97,106,-750,-95,600,-267
-25,-66,-41,45,8,-53,93,106,-752,-99,596,-270
-20,-63,-43,41,11,-53,85,99,-755,-101,591,-272
-17,-62,-45,39,14,-53,72,87,-757,-102,589,-273
-18,-62,-44,40,13,-53,60,75,-760,-101,589,-273
-21,-63,-42,42,10,-52,55,69,-763,-102,589,-271
-27,-62,-35,44,4,-48,56,71,-765,-102,589,-268
-34,-63,-29,48,-2,-46,61,77,-765,-99,594,-266
-44,-63,-19,53,-12,-41,66,84,-765,-93,602,-263
-56,-61,-5,58,-25,-33,71,92,-768,-87,609,-261
-66,-58,8,62,-37,-25,73,97,-773,-82,610,-258
-69,-57,12,63,-40,-22,71,92,-779,-80,606,-257
-68,-57,11,62,-39,-23,68,83,-784,-81,601,-257
-67,-58,9,62,-38,-24,67,80,-786,-85,598,-259
-64,-58,6,61,-35,-26,68,81,-788,-90,599,-262
-57,-56,1,56,-29,-27,66,82,-796,-93,600,-263
-49,-53,-4,51,-22,-28,63,82,-807,-92,600,-263
-46,-52,-6,49,-20,-29,61,81,-816,-90,596,-262
-47,-52,-5,49,-21,-28,59,79,-822,-91,591,-262
-50,-53,-3,51,-23,-28,54,72,-826,-95,587,-263
-52,-53,-1,52,-25,-27,49,64,-828,-101,585,-263
-53,-52,1,52,-27,-25,46,61,-831,-102,584,-262
-53,-52,1,52,-27,-25,43,62,-837,-101,581,-262
-52,-56,-4,54,-24,-30,39,64,-844,-103,574,-264
-52,-61,-9,56,-21,-35,34,67,-849,-106,566,-267
-54,-65,-11,59,-21,-38,33,70,-845,-107,567,-268
-54,-64,-10,59,-22,-37,33,72,-839,-106,573,-267
-45,-58,-13,51,-16,-35,33,73,-840,-108,577,-268
-31,-53,-22,42,-4,-37,30,73,-847,-111,579,-271
-26,-54,-28,40,1,-41,24,72,-853,-113,580,-276
-27,-61,-34,44,3,-47,19,72,-857,-116,580,-282
-31,-67,-36,49,2,-51,19,73,-860,-120,576,-283
-33,-71,-38,52,2,-54,22,73,-862,-125,571,-283
-33,-76,-43,54,5,-59,26,73,-863,-127,568,-283
-33,-80,-47,56,7,-63,28,73,-863,-126,569,-283
-35,-84,-49,59,7,-66,29,72,-861,-124,571,-281
-38,-86,-48,62,5,-67,28,72,-858,-122,574,-278
-39,-87,-48,63,4,-67,29,73,-856,-121,575,-277
-39,-87,-48,63,4,-67,29,73,-857,-121,574,-277
-39,-85,-46,62,3,-65,27,72,-861,-121,575,-278
-39,-82,-43,60,2,-62,24,69,-866,-121,575,-277
-37,-81,-44,59,3,-62,23,64,-870,-123,572,-278
-37,-81,-44,59,3,-62,23,58,-872,-125,570,-278
-46,-82,-36,64,-5,-59,24,57,-873,-125,571,-276
-59,-81,-22,70,-18,-51,24,57,-872,-122,577,-273
-67,-82,-15,74,-26,-48,20,56,-873,-119,585,-270
-68,-82,-14,75,-27,-48,15,53,-876,-117,589,-268
-65,-80,-15,72,-25,-47,12,50,-883,-118,587,-267
-59,-75,-16,67,-21,-45,13,48,-891,-121,581,-267
-54,-66,-12,60,-21,-39,15,48,-896,-123,577,-268
-49,-59,-10,54,-19,-34,14,48,-897,-122,575,-267
-43,-57,-14,50,-14,-35,10,46,-895,-120,572,-268
-32,-57,-25,44,-3,-41,4,43,-893,-117,569,-268
-17,-57,-40,37,11,-48,4,42,-892,-116,573,-267
-5,-56,-51,30,23,-53,4,40,-892,-116,578,-267
-6,-63,-57,34,25,-60,0,33,-894,-117,580,-270
-19,-77,-58,48,19,-67,-10,22,-896,-120,576,-276
-34,-92,-58,63,12,-75,-20,10,-899,-126,570,-280
-45,-101,-56,73,5,-78,-24,4,-901,-130,566,-279
-51,-96,-45,73,-3,-70,-19,7,-902,-128,567,-272
-50,-79,-29,64,-10,-54,-10,16,-902,-119,576,-261
-39,-56,-17,47,-11,-36,-6,21,-901,-110,591,-251
-26,-37,-11,31,-7,-24,-7,19,-901,-103,607,-245
-23,-29,-6,26,-8,-17,-12,17,-902,-99,612,-242
-27,-29,-2,28,-12,-15,-17,14,-902,-97,610,-239
-30,-26,4,28,-17,-11,-22,11,-901,-94,612,-235
-29,-20,9,24,-19,-5,-27,9,-901,-88,620,-230
-29,-15,14,22,-21,0,-33,8,-903,-83,632,-226
-29,-14,15,21,-22,0,-40,9,-906,-78,642,-224
-26,-14,12,20,-19,-1,-49,8,-909,-76,644,-223
-20,-14,6,17,-13,-4,-60,5,-911,-74,643,-220
-16,-9,7,12,-11,-1,-69,0,-912,-67,647,-213
-14,-2,12,8,-13,5,-76,-3,-912,-56,655,-202
-11,3,14,4,-12,8,-80,-5,-910,-45,662,-194
-3,7,10,-2,-6,8,-84,-7,-907,-36,670,-187
13,13,0,-13,6,6,-94,-14,-906,-29,682,-179
33,21,-12,-27,22,4,-104,-22,-907,-22,700,-168
47,30,-17,-38,32,6,-110,-26,-905,-9,724,-155
55,40,-15,-47,35,12,-114,-24,-902,5,746,-140
63,48,-15,-55,39,16,-126,-21,-899,15,756,-127
68,55,-13,-61,40,21,-142,-15,-897,21,759,-115
61,63,2,-62,29,32,-150,-9,-895,31,768,-103
53,74,21,-63,16,47,-154,-4,-893,43,785,-90
59,87,28,-73,15,57,-161,-5,-889,57,801,-78
74,99,25,-86,24,62,-172,-8,-884,69,815,-66
80,104,24,-92,28,64,-179,-8,-879,79,828,-53
78,106,28,-92,25,67,-183,-5,-874,88,840,-38
78,111,33,-94,22,72,-188,0,-869,101,851,-23
81,120,39,-100,21,79,-193,6,-864,114,860,-11
83,125,42,-104,20,83,-198,14,-860,120,870,-3
86,128,42,-107,22,85,-203,22,-855,124,880,2
90,138,48,-114,21,93,-204,27,-849,132,888,9
95,151,56,-123,19,103,-203,32,-841,143,895,16
99,164,65,-131,17,114,-205,38,-833,148,900,23
101,173,72,-137,14,122,-208,42,-825,146,905,27
101,176,75,-138,13,125,-210,41,-821,144,911,30
98,175,77,-136,10,126,-209,38,-819,145,916,33
93,173,80,-133,6,126,-206,42,-818,149,917,35
91,174,83,-132,4,128,-204,50,-815,154,917,38
97,177,80,-137,8,128,-205,58,-809,156,916,39
108,180,72,-144,18,126,-208,65,-801,156,913,39
118,176,58,-147,30,117,-206,73,-797,156,906,37
124,167,43,-145,40,105,-201,80,-795,156,898,35
129,160,31,-144,49,95,-197,82,-793,151,895,30
134,156,22,-145,56,89,-192,78,-790,143,894,25
141,154,13,-147,64,83,-180,76,-788,138,886,20
146,152,6,-149,70,79,-165,77,-786,136,872,15
141,146,5,-143,68,75,-154,81,-780,134,859,8
127,138,11,-132,58,74,-147,88,-773,131,850,-1
107,132,25,-119,41,78,-141,101,-766,131,847,-9
90,127,37,-108,26,82,-133,113,-762,131,845,-16
83,120,37,-101,23,78,-124,121,-759,127,836,-25
85,113,28,-99,28,70,-115,125,-756,119,822,-35
89,112,23,-100,33,67,-103,129,-753,110,811,-45
91,112,21,-101,35,66,-91,134,-751,103,802,-54
93,106,13,-99,40,59,-76,139,-750,100,792,-65
93,95,2,-94,45,48,-62,144,-751,101,782,-75
85,87,2,-86,41,44,-48,151,-749,101,775,-81
75,83,8,-79,33,45,-37,158,-746,98,768,-84
71,78,7,-74,32,42,-27,164,-744,91,757,-94
69,71,2,-70,33,36,-17,168,-741,83,743,-108
60,59,-1,-59,30,29,-4,172,-738,79,737,-119
46,46,0,-46,23,23,7,174,-735,75,734,-128
39,37,-2,-38,20,17,9,174,-738,65,723,-138
39,34,-5,-36,22,14,8,171,-744,51,706,-148
36,33,-3,-34,19,15,13,167,-748,41,692,-155
33,30,-3,-31,18,13,21,162,-750,35,681,-162
38,23,-15,-30,26,4,26,157,-751,28,668,-172
47,15,-32,-31,39,-8,28,152,-751,20,655,-182
45,12,-33,-28,39,-10,31,149,-750,15,649,-188
33,10,-23,-21,28,-6,37,147,-750,10,646,-192
18,3,-15,-10,16,-6,41,141,-753,3,634,-204
4,-9,-13,2,8,-11,42,133,-759,-6,618,-220
-9,-23,-14,16,2,-18,43,126,-763,-13,606,-229
-17,-32,-15,24,-1,-23,43,122,-765,-17,601,-233
-18,-34,-16,26,-1,-25,43,120,-767,-23,596,-235
-14,-33,-19,23,2,-26,43,117,-772,-30,591,-237
-14,-38,-24,26,5,-31,42,115,-781,-41,586,-242
-18,-46,-28,32,5,-37,42,113,-792,-51,581,-246
-19,-49,-30,34,5,-39,44,109,-798,-54,574,-250
-19,-48,-29,33,5,-38,47,103,-800,-53,567,-252
-18,-49,-31,33,6,-40,47,98,-799,-53,563,-253
-18,-52,-34,35,8,-43,47,93,-799,-56,561,-253
-21,-53,-32,37,5,-42,50,89,-801,-61,558,-251
-26,-52,-26,39,0,-39,56,87,-804,-66,556,-252
-34,-53,-19,43,-7,-36,61,85,-805,-71,557,-257
-41,-56,-15,48,-13,-35,63,83,-808,-76,557,-265
-43,-60,-17,51,-13,-38,60,77,-815,-79,549,-272
-37,-63,-26,50,-5,-44,55,70,-825,-81,538,-276
-25,-61,-36,43,5,-48,47,63,-835,-82,535,-281
-15,-58,-43,36,14,-50,43,58,-842,-85,536,-286
-15,-58,-43,36,14,-50,45,58,-847,-91,530,-287
-22,-62,-40,42,9,-51,51,58,-852,-99,519,-287
-25,-63,-38,44,6,-50,55,55,-858,-106,513,-287
-24,-66,-42,45,9,-54,54,49,-865,-110,512,-290
-22,-74,-52,48,15,-63,49,46,-872,-115,509,-295
-22,-84,-62,53,20,-73,44,47,-876,-120,503,-300
-29,-90,-61,59,16,-75,41,49,-879,-125,499,-304
-39,-91,-52,65,6,-71,42,52,-881,-130,497,-306
-48,-92,-44,70,-2,-68,44,54,-886,-131,494,-308
-55,-95,-40,75,-7,-67,47,57,-891,-130,489,-311
-64,-101,-37,82,-13,-69,50,59,-894,-132,485,-312
-71,-106,-35,88,-18,-70,52,58,-895,-134,483,-311
-72,-103,-31,87,-20,-67,53,55,-902,-138,483,-312
-65,-94,-29,79,-18,-61,53,49,-913,-140,484,-315
-57,-88,-31,72,-13,-59,52,45,-925,-141,477,-319
-50,-86,-36,68,-7,-61,52,43,-934,-144,466,-322
-44,-88,-44,66,0,-66,52,43,-937,-151,456,-320
-39,-91,-52,65,6,-71,52,43,-936,-159,449,-317
-37,-92,-55,64,9,-73,53,41,-935,-163,446,-317
-35,-92,-57,63,11,-74,53,39,-936,-164,444,-320
-30,-90,-60,60,15,-75,51,39,-934,-166,442,-323
-25,-87,-62,56,18,-74,48,41,-932,-169,439,-325
-23,-87,-64,55,20,-75,47,45,-930,-171,437,-327
-23,-90,-67,56,22,-78,48,47,-928,-174,435,-329
-23,-95,-72,59,24,-83,46,48,-922,-177,430,-334
-20,-100,-80,60,30,-90,43,47,-914,-179,425,-339
-14,-104,-90,59,38,-97,43,49,-907,-178,420,-343
-8,-106,-98,57,45,-102,46,52,-900,-175,415,-345
-13,-106,-93,59,40,-99,50,54,-886,-174,409,-346
-25,-103,-78,64,26,-90,52,56,-865,-175,405,-345
-36,-97,-61,66,12,-79,52,63,-841,-173,406,-346
-42,-92,-50,67,4,-71,52,71,-822,-171,411,-346
-42,-94,-52,68,5,-73,55,74,-815,-167,418,-343
-41,-103,-62,72,10,-82,61,73,-809,-165,423,-338
-48,-114,-66,81,9,-90,65,74,-787,-164,424,-330
-57,-122,-65,89,4,-93,68,77,-752,-162,424,-323
-54,-117,-63,85,4,-90,66,77,-717,-157,423,-321
-42,-105,-63,73,10,-84,63,77,-687,-151,423,-324
-32,-97,-65,64,16,-81,61,81,-657,-150,425,-330
-28,-96,-68,62,20,-82,58,86,-631,-151,427,-335
-31,-97,-66,64,17,-81,55,86,-611,-147,431,-336
-36,-97,-61,66,12,-79,53,85,-595,-139,436,-332
-43,-93,-50,68,3,-71,53,93,-575,-128,443,-326
-47,-88,-41,67,-3,-64,56,104,-552,-119,451,-318
-47,-85,-38,66,-4,-61,60,109,-533,-113,456,-313
-44,-86,-42,65,-1,-64,62,107,-517,-112,457,-311
-40,-87,-47,63,3,-67,63,106,-499,-111,457,-313
-35,-86,-51,60,8,-68,63,107,-482,-112,457,-316
-28,-87,-59,57,15,-73,61,106,-471,-111,461,-318
-17,-87,-70,52,26,-78,58,106,-465,-108,469,-318
-5,-84,-79,44,37,-81,57,109,-455,-101,479,-311
3,-79,-82,38,42,-80,57,115,-442,-93,486,-303
0,-76,-76,38,38,-76,57,119,-433,-89,489,-301
-10,-77,-67,43,28,-72,57,121,-430,-88,490,-302
-19,-78,-59,48,20,-68,59,124,-426,-82,496,-299
-23,-78,-55,50,16,-66,62,129,-421,-75,504,-293
-22,-74,-52,48,15,-63,63,133,-413,-69,510,-291
-19,-69,-50,44,15,-59,63,135,-406,-64,515,-292
-18,-66,-48,42,15,-57,62,137,-402,-58,521,-289
-21,-66,-45,43,12,-55,62,140,-400,-50,526,-283
-30,-71,-41,50,5,-56,63,142,-399,-43,524,-283
-41,-76,-35,58,-3,-55,63,145,-399,-39,518,-286
-43,-80,-37,61,-3,-58,62,148,-401,-38,516,-286
-40,-81,-41,60,0,-61,62,150,-404,-39,519,-283
-36,-83,-47,59,5,-65,63,151,-406,-36,527,-283
-34,-85,-51,59,8,-68,63,150,-408,-31,534,-286
-34,-89,-55,61,10,-72,62,151,-411,-24,537,-287
-34,-91,-57,62,11,-74,62,151,-416,-19,536,-286
-31,-90,-59,60,14,-74,63,148,-424,-21,534,-288
-26,-87,-61,56,17,-74,63,143,-432,-27,531,-291
-19,-86,-67,52,24,-76,62,136,-436,-30,530,-291
-14,-87,-73,50,29,-80,62,131,-435,-29,530,-288
-14,-85,-71,49,28,-78,63,131,-429,-26,531,-284
-14,-80,-66,47,26,-73,63,134,-424,-20,533,-283
-10,-70,-60,40,25,-65,62,138,-425,-15,543,-283
-4,-60,-56,32,26,-58,62,140,-431,-10,553,-283
-7,-56,-49,31,21,-52,63,141,-437,-6,556,-280
-19,-57,-38,38,9,-47,63,141,-442,-1,552,-275
-33,-58,-25,45,-4,-41,61,140,-447,3,550,-268
-42,-58,-16,50,-13,-37,58,140,-452,8,550,-263
-41,-57,-16,49,-12,-36,56,140,-452,9,550,-262
-32,-57,-25,44,-3,-41,53,140,-452,8,550,-262
-21,-58,-37,39,8,-47,50,141,-456,10,552,-263
-14,-58,-44,36,15,-51,48,141,-461,13,552,-266
-16,-57,-41,36,12,-49,49,140,-463,14,546,-271
-25,-57,-32,41,3,-44,52,137,-462,14,537,-277
-34,-58,-24,46,-5,-41,52,132,-465,14,535,-277
-38,-58,-20,48,-9,-39,49,127,-471,14,539,-274
-37,-57,-20,47,-8,-38,45,122,-474,12,543,-269
-34,-57,-23,45,-5,-40,40,118,-476,10,545,-264
-33,-58,-25,45,-4,-41,35,115,-481,6,545,-258
-34,-58,-24,46,-5,-41,30,112,-487,4,542,-256
-32,-54,-22,43,-5,-38,26,110,-487,3,538,-265
-26,-46,-20,36,-3,-33,24,107,-483,3,533,-279
-18,-34,-16,26,-1,-25,23,106,-484,3,526,-287
-10,-22,-12,16,1,-17,23,107,-487,3,522,-287
-7,-13,-6,10,0,-9,23,106,-487,4,524,-285
-8,-9,-1,8,-3,-5,23,106,-484,7,533,-280
-10,-8,2,9,-6,-3,24,110,-480,12,541,-270
-13,-9,4,11,-8,-2,24,116,-475,17,548,-260
-15,-7,8,11,-11,0,21,114,-466,19,555,-256
-17,-4,13,10,-15,4,16,108,-455,19,559,-257
-22,-3,19,12,-20,8,9,105,-448,19,562,-257
-24,-3,21,13,-22,9,1,106,-445,19,561,-251
-19,-4,15,11,-17,5,-3,107,-441,17,558,-239
-13,-7,6,10,-9,0,-7,106,-435,14,556,-229
-22,-13,9,17,-15,-2,-12,107,-430,14,557,-233
-36,-18,18,27,-27,0,-17,107,-425,14,557,-248
-35,-17,18,26,-26,0,-21,104,-421,11,547,-259
-19,-11,8,15,-13,-1,-23,98,-419,8,533,-262
-6,-5,1,5,-3,-2,-24,93,-419,11,531,-262
1,-4,-5,1,3,-4,-24,91,-419,17,538,-259
10,-4,-14,-3,12,-9,-22,94,-415,20,542,-254
23,-7,-30,-8,26,-18,-19,103,-408,19,541,-249
40,-12,-52,-14,46,-32,-18,114,-398,18,542,-245
54,-17,-71,-18,62,-44,-18,124,-391,18,545,-244
60,-19,-79,-20,69,-49,-19,125,-388,19,546,-243
58,-19,-77,-19,67,-48,-18,119,-389,19,546,-243
57,-18,-75,-19,66,-46,-19,111,-390,18,545,-243
57,-18,-75,-19,66,-46,-19,106,-390,18,545,-243
57,-19,-76,-19,66,-47,-18,111,-387,22,547,-244
54,-19,-73,-17,63,-46,-15,119,-382,27,550,-244
48,-18,-66,-15,57,-42,-10,123,-375,29,550,-242
41,-18,-59,-11,50,-38,-5,122,-371,28,547,-239
34,-20,-54,-7,44,-37,-1,123,-368,30,544,-238
27,-22,-49,-2,38,-35,2,125,-367,33,541,-238
15,-26,-41,5,28,-33,7,125,-361,33,539,-239
3,-31,-34,14,18,-32,12,122,-356,30,536,-241
-3,-40,-37,21,17,-38,16,121,-359,25,533,-250
-4,-50,-46,27,21,-48,18,121,-367,20,529,-260
-3,-55,-52,29,24,-53,20,122,-371,16,521,-265
-3,-56,-53,29,25,-54,23,121,-370,14,514,-267
-4,-62,-58,33,27,-60,25,122,-369,14,509,-270
-4,-70,-66,37,31,-68,28,122,-369,14,507,-275
-3,-76,-73,39,35,-74,29,120,-371,12,505,-281
-3,-80,-77,41,37,-78,29,117,-374,9,502,-286
-4,-84,-80,44,38,-82,28,117,-374,8,500,-287
-4,-86,-82,45,39,-84,28,121,-371,8,498,-286
-3,-87,-84,45,40,-85,29,122,-367,9,494,-288
-3,-87,-84,45,40,-85,29,122,-366,9,492,-291
-4,-87,-83,45,39,-85,28,121,-366,6,493,-292
-1,-87,-86,44,42,-86,28,121,-369,1,496,-292
5,-85,-90,40,47,-87,29,123,-370,-2,497,-290
13,-82,-95,34,54,-88,29,125,-370,-4,497,-287
10,-80,-90,35,50,-85,27,126,-368,-1,497,-286
-3,-80,-77,41,37,-78,24,126,-366,5,500,-286
-19,-85,-66,52,23,-75,23,126,-366,15,505,-287
-32,-91,-59,61,13,-75,23,126,-368,23,511,-287
-34,-89,-55,61,10,-72,23,125,-372,22,512,-286
-30,-81,-51,55,10,-66,23,122,-374,16,508,-286
-29,-72,-43,50,7,-57,25,120,-374,9,503,-286
-32,-68,-36,50,2,-52,28,117,-374,4,498,-286
-36,-70,-34,53,-1,-52,29,116,-377,3,496,-287
-40,-76,-36,58,-2,-56,29,116,-382,3,496,-287
-48,-80,-32,64,-8,-56,28,116,-389,4,497,-286
-53,-82,-29,67,-12,-55,28,116,-393,4,497,-286
-47,-81,-34,64,-6,-57,29,117,-395,3,496,-287
-30,-79,-49,54,9,-64,29,117,-395,3,496,-290
-12,-75,-63,43,25,-69,27,115,-394,4,497,-295
1,-70,-71,34,36,-70,24,112,-394,4,497,-300
5,-63,-68,29,36,-65,23,112,-396,3,496,-302
4,-56,-60,26,32,-58,23,115,-399,3,496,-302
4,-46,-50,21,27,-48,24,119,-400,4,497,-302
4,-39,-43,17,23,-41,23,121,-400,4,497,-302
0,-42,-42,21,21,-42,24,122,-398,3,496,-300
-6,-53,-47,29,20,-50,24,122,-395,3,496,-297
-13,-64,-51,38,19,-57,22,122,-394,4,497,-296
-18,-71,-53,44,17,-62,19,122,-394,4,497,-296
-19,-73,-54,46,17,-63,18,121,-395,3,496,-297
-19,-73,-54,46,17,-63,18,121,-395,3,496,-297
-18,-72,-54,45,18,-63,19,124,-394,4,497,-297
-18,-72,-54,45,18,-63,19,129,-394,4,497,-297
-21,-73,-52,47,15,-62,17,132,-395,2,495,-296
-26,-73,-47,49,10,-60,14,132,-395,0,492,-296
-34,-72,-38,53,2,-55,13,128,-393,0,491,-298
-39,-72,-33,55,-3,-52,13,123,-390,0,492,-301
-35,-73,-38,54,1,-55,13,121,-388,0,490,-302
-23,-73,-50,48,13,-61,13,121,-386,0,485,-302
-11,-72,-61,41,25,-66,15,122,-382,0,478,-302
-4,-69,-65,36,30,-67,18,122,-376,0,473,-302
-7,-63,-56,35,24,-59,19,121,-371,1,473,-300
-16,-55,-39,35,11,-47,19,121,-367,3,477,-297
-20,-48,-28,34,4,-38,18,122,-362,4,478,-295
-19,-43,-24,31,2,-33,18,122,-357,4,478,-296
-20,-44,-24,32,2,-34,19,119,-354,2,477,-299
-20,-50,-30,35,5,-40,18,113,-351,0,477,-305
-11,-57,-46,34,17,-51,19,109,-349,-1,477,-309
1,-62,-63,30,32,-62,19,107,-346,-3,477,-311
1,-63,-64,31,32,-63,18,107,-346,-4,478,-311
-9,-63,-54,36,22,-58,18,107,-346,-4,478,-311
-19,-62,-43,40,12,-52,20,105,-343,-2,476,-313
-23,-62,-39,42,8,-50,23,102,-337,0,473,-316
-25,-63,-38,44,6,-50,24,101,-334,0,472,-317
-27,-63,-36,45,4,-49,24,101,-335,0,472,-316
-32,-63,-31,47,0,-47,22,101,-336,-1,473,-318
-35,-63,-28,49,-3,-45,20,98,-335,-3,473,-321
-28,-62,-34,45,3,-48,15,93,-337,-4,472,-322
-19,-62,-43,40,12,-52,10,85,-339,-4,472,-322
-23,-63,-40,43,8,-51,6,75,-343,-2,473,-320
-32,-63,-31,47,0,-47,4,69,-345,0,473,-318
-29,-60,-31,44,1,-45,3,68,-346,0,471,-315
-14,-54,-40,34,13,-47,3,72,-345,0,469,-312
0,-50,-50,25,25,-50,3,73,-347,1,465,-311
4,-48,-52,22,28,-50,3,72,-350,3,463,-311
-1,-47,-46,24,22,-46,5,74,-351,4,462,-312
-14,-47,-33,30,9,-40,7,79,-351,4,462,-312
-26,-48,-22,37,-2,-35,10,86,-350,2,462,-312
-32,-48,-16,40,-8,-32,15,94,-351,0,459,-314
-35,-45,-10,40,-12,-27,27,101,-350,0,453,-323
-39,-40,-1,39,-19,-20,45,108,-350,-5,437,-338
-53,-37,16,45,-34,-10,68,119,-352,-19,408,-362
-72,-38,34,55,-53,-2,93,134,-353,-32,379,-384
-83,-39,44,61,-63,2,115,154,-342,-27,378,-392
-82,-34,48,58,-65,7,131,185,-310,16,418,-372
-66,-12,54,39,-60,21,143,234,-247,110,505,-312
-42,18,60,12,-51,39,149,300,-162,239,623,-226
-18,44,62,-13,-40,53,150,374,-71,371,750,-138
9,67,58,-38,-24,62,144,450,22,501,884,-46
57,103,46,-80,5,74,131,527,126,648,1038,69
116,152,36,-134,40,94,110,597,227,792,1200,202
168,201,33,-184,67,117,84,653,305,894,1345,328
216,252,36,-234,90,144,57,700,369,978,1486,453
270,314,44,-292,113,179,31,748,450,1102,1657,600
324,377,53,-350,135,215,8,797,552,1264,1850,755
363,417,54,-390,154,235,-15,840,660,1422,2030,882
390,432,42,-411,174,237,-34,871,767,1568,2187,973
421,435,14,-428,203,224,-43,883,870,1714,2327,1042
448,429,-19,-438,233,205,-41,870,949,1833,2426,1081
450,409,-41,-429,245,184,-32,823,974,1873,2444,1066
423,362,-61,-392,242,150,-16,727,914,1814,2369,990
378,272,-106,-325,242,83,8,563,742,1658,2209,861
310,143,-167,-226,238,-12,37,345,459,1389,1963,685
207,-6,-213,-100,210,-109,64,113,88,986,1623,472
87,-150,-237,31,162,-193,85,-84,-303,477,1197,231
-13,-261,-248,137,117,-254,102,-198,-624,-72,708,-27
-86,-338,-252,212,83,-295,121,-228,-829,-543,242,-279
-140,-399,-259,269,59,-329,153,-202,-911,-794,-79,-490
-176,-439,-263,307,43,-351,196,-140,-899,-842,-234,-643
-193,-438,-245,315,26,-341,245,-53,-847,-807,-267,-734
-199,-409,-210,304,5,-309,297,33,-786,-751,-237,-774
-217,-387,-170,302,-23,-278,353,87,-732,-699,-207,-782
-243,-375,-132,309,-55,-253,409,100,-697,-656,-194,-777
-266,-356,-90,311,-88,-223,461,84,-691,-623,-180,-772
-279,-325,-46,302,-116,-185,504,51,-706,-594,-157,-765
-287,-286,1,286,-144,-142,535,16,-720,-567,-121,-746
-291,-252,39,271,-165,-106,563,-9,-726,-540,-81,-720
-290,-237,53,263,-171,-92,601,-14,-725,-515,-47,-701
-285,-242,43,263,-164,-99,658,0,-717,-491,-24,-693
-278,-259,19,268,-148,-120,732,25,-698,-465,-11,-690
-273,-277,-4,275,-134,-140,812,44,-677,-438,-3,-688
-274,-289,-15,281,-129,-152,879,46,-669,-414,7,-685
-278,-295,-17,286,-130,-156,919,31,-671,-395,22,-677
-273,-300,-27,286,-123,-163,931,11,-672,-382,40,-663
-261,-305,-44,283,-108,-174,936,-1,-666,-370,57,-648
-253,-308,-55,280,-99,-181,975,-3,-653,-355,72,-639
-250,-308,-58,279,-96,-183,1028,-1,-641,-339,84,-635
-242,-302,-60,272,-91,-181,1036,-14,-639,-332,90,-628
-232,-291,-59,261,-86,-175,975,-36,-646,-329,97,-615
-224,-277,-53,250,-85,-165,844,-49,-650,-316,114,-597
-214,-260,-46,237,-84,-153,666,-55,-646,-294,138,-577
-193,-239,-46,216,-73,-142,484,-65,-639,-274,156,-557
-165,-214,-49,189,-58,-131,325,-81,-631,-258,172,-538
-142,-183,-41,162,-50,-112,209,-94,-624,-243,197,-517
-129,-154,-25,141,-52,-89,136,-101,-616,-229,225,-497
-120,-136,-16,128,-52,-76,88,-100,-608,-215,243,-484
-114,-129,-15,121,-49,-72,59,-89,-595,-200,250,-475
-107,-118,-11,112,-48,-64,46,-65,-577,-183,259,-467
-97,-105,-8,101,-44,-56,43,-37,-557,-166,273,-460
-81,-98,-17,89,-32,-57,41,-18,-541,-152,285,-454
-63,-97,-34,80,-14,-65,36,-10,-532,-143,294,-450
-51,-95,-44,73,-3,-69,28,-6,-531,-137,299,-443
-44,-90,-46,67,1,-68,17,-6,-534,-132,301,-435
-39,-80,-41,59,1,-60,8,-15,-536,-129,303,-432
-35,-70,-35,52,0,-52,1,-26,-536,-126,306,-433
-32,-66,-34,49,1,-50,-2,-28,-535,-124,306,-436
-29,-67,-38,48,4,-52,-3,-22,-536,-122,306,-438
-27,-68,-41,47,7,-54,-4,-14,-535,-121,309,-438
-25,-68,-43,46,9,-55,-7,-9,-535,-121,315,-435
-21,-66,-45,43,12,-55,-12,-10,-537,-122,318,-432
-19,-63,-44,41,12,-53,-20,-16,-540,-122,317,-429
-20,-62,-42,41,11,-52,-29,-24,-541,-120,316,-427
-25,-62,-37,43,6,-49,-34,-29,-541,-118,317,-425
-35,-63,-28,49,-3,-45,-30,-25,-541,-115,316,-420
-45,-63,-18,54,-13,-40,-21,-16,-541,-112,316,-415
-48,-61,-13,54,-17,-37,-16,-11,-539,-110,318,-413
-44,-55,-11,49,-16,-33,-18,-9,-536,-107,321,-413
-40,-47,-7,43,-16,-27,-20,-7,-536,-105,321,-414
-39,-40,-1,39,-19,-20,-22,-7,-539,-102,318,-414
-38,-37,1,37,-19,-18,-25,-13,-542,-100,313,-413
-39,-38,1,38,-20,-18,-28,-21,-541,-101,308,-413
-38,-39,-1,38,-18,-20,-29,-26,-539,-104,305,-415
-35,-39,-4,37,-15,-21,-28,-25,-536,-110,306,-418
-29,-37,-8,33,-10,-22,-30,-21,-536,-113,307,-419
-21,-34,-13,27,-4,-23,-32,-16,-540,-112,307,-419
-17,-33,-16,25,0,-24,-35,-10,-541,-111,304,-418
-18,-33,-15,25,-1,-24,-38,-8,-541,-111,298,-418
-20,-34,-14,27,-3,-24,-40,-13,-539,-115,294,-419
-23,-34,-11,28,-6,-22,-42,-21,-537,-120,292,-419
-24,-33,-9,28,-7,-21,-42,-25,-533,-122,291,-418
-24,-33,-9,28,-7,-21,-42,-24,-533,-121,289,-418
-23,-36,-13,29,-5,-24,-45,-25,-542,-123,279,-421
-23,-41,-18,32,-2,-29,-51,-31,-556,-129,266,-426
-25,-44,-19,34,-3,-31,-54,-38,-565,-133,259,-431
-25,-44,-19,34,-3,-31,-53,-42,-566,-135,261,-434
-19,-38,-19,28,0,-28,-51,-41,-565,-136,267,-432
-10,-30,-20,20,5,-25,-48,-36,-566,-136,275,-429
-9,-29,-20,19,5,-24,-47,-29,-565,-135,282,-428
-16,-32,-16,24,0,-24,-47,-25,-565,-135,286,-428
-21,-34,-13,27,-4,-23,-49,-23,-567,-138,285,-429
-23,-34,-11,28,-6,-22,-51,-23,-569,-144,279,-428
-24,-34,-10,29,-7,-22,-54,-23,-570,-147,276,-429
-24,-34,-10,29,-7,-22,-57,-23,-570,-146,277,-429
-22,-32,-10,27,-6,-21,-58,-25,-569,-144,279,-427
-17,-26,-9,21,-4,-17,-58,-27,-569,-141,282,-424
-7,-17,-10,12,1,-13,-57,-31,-570,-140,283,-423
0,-10,-10,5,5,-10,-57,-33,-573,-140,283,-423
-5,-10,-5,7,0,-7,-59,-34,-578,-140,283,-424
-25,-19,6,22,-15,-6,-62,-33,-583,-140,283,-424
-48,-31,17,39,-32,-7,-63,-35,-586,-141,281,-423
-65,-40,25,52,-45,-7,-63,-38,-589,-144,278,-423
-66,-44,22,55,-44,-11,-63,-39,-592,-148,277,-426
-51,-43,8,47,-29,-17,-66,-38,-597,-153,277,-431
-27,-43,-16,35,-5,-29,-72,-39,-604,-159,278,-438
-5,-43,-38,24,16,-40,-80,-41,-611,-164,278,-443
3,-40,-43,18,23,-41,-83,-44,-617,-165,276,-442
1,-32,-33,15,17,-32,-82,-47,-622,-162,273,-436
-1,-21,-20,11,9,-20,-80,-48,-625,-157,272,-430
0,-11,-11,5,5,-11,-80,-47,-624,-152,273,-425
0,-7,-7,3,3,-7,-86,-48,-622,-148,272,-422
2,-8,-10,3,6,-9,-94,-51,-619,-146,271,-419
7,-9,-16,1,11,-12,-99,-54,-618,-146,276,-417
13,-9,-22,-2,17,-15,-101,-57,-618,-146,284,-414
12,-9,-21,-1,16,-15,-104,-58,-619,-144,289,-414
6,-9,-15,1,10,-12,-110,-58,-619,-141,291,-414
0,-7,-7,3,3,-7,-113,-56,-618,-140,292,-412
-7,-4,3,5,-5,0,-112,-54,-618,-141,292,-407
-9,-3,6,6,-7,1,-109,-51,-620,-139,292,-401
-4,-1,3,2,-3,1,-106,-51,-622,-137,294,-396
11,4,-7,-7,9,-1,-108,-56,-625,-134,303,-393
29,11,-18,-20,23,-3,-114,-65,-628,-132,313,-390
35,16,-19,-25,27,-1,-120,-71,-629,-128,319,-388
30,18,-12,-24,21,3,-124,-76,-629,-124,320,-386
29,21,-8,-25,18,6,-128,-81,-628,-117,325,-382
30,26,-4,-28,17,11,-134,-85,-628,-110,335,-377
23,31,8,-27,7,19,-138,-87,-630,-101,350,-370
9,34,25,-21,-8,29,-143,-87,-632,-94,365,-363
-2,32,34,-15,-18,33,-150,-87,-635,-88,374,-356
-8,32,40,-12,-24,36,-157,-90,-638,-84,378,-349
-7,39,46,-16,-26,42,-166,-95,-639,-77,385,-339
0,52,52,-26,-26,52,-173,-100,-639,-67,395,-326
11,65,54,-38,-21,59,-177,-103,-636,-56,406,-315
23,75,52,-49,-14,63,-182,-105,-634,-45,415,-305
37,82,45,-59,-4,63,-191,-109,-635,-39,425,-296
46,88,42,-67,2,65,-204,-112,-641,-32,437,-287
47,98,51,-72,-2,74,-213,-109,-646,-20,455,-274
45,109,64,-77,-9,86,-220,-103,-649,-4,473,-258
56,113,57,-84,0,85,-232,-100,-648,4,482,-244
76,112,36,-94,20,74,-248,-101,-645,7,485,-233
87,111,24,-99,31,67,-257,-101,-642,13,494,-221
90,114,24,-102,33,69,-261,-101,-640,24,510,-208
96,124,28,-110,34,76,-267,-103,-636,36,526,-195
102,137,35,-119,33,86,-275,-106,-631,48,540,-181
97,143,46,-120,25,94,-280,-106,-625,59,554,-164
88,144,56,-116,16,100,-281,-103,-620,69,566,-146
89,150,61,-119,14,105,-286,-97,-617,79,575,-133
101,161,60,-131,20,110,-293,-90,-614,89,582,-124
114,170,56,-142,29,113,-302,-82,-612,93,589,-118
123,177,54,-150,34,115,-310,-75,-610,95,597,-114
129,184,55,-156,37,119,-312,-68,-608,102,603,-107
134,192,58,-163,38,125,-311,-61,-606,113,608,-99
138,198,60,-168,39,129,-313,-52,-603,119,611,-92
140,203,63,-171,38,133,-316,-44,-600,117,612,-88
141,204,63,-172,39,133,-316,-42,-599,115,616,-86
141,204,63,-172,39,133,-310,-43,-599,116,622,-86
140,203,63,-171,38,133,-300,-38,-601,119,625,-87
140,202,62,-171,39,132,-292,-28,-601,124,624,-87
141,207,66,-174,37,136,-293,-18,-596,126,622,-86
141,213,72,-177,34,142,-300,-11,-587,126,617,-86
139,212,73,-175,33,142,-302,-4,-582,126,607,-87
137,206,69,-171,34,137,-298,2,-580,126,597,-90
134,200,66,-167,34,133,-294,5,-578,123,593,-94
131,196,65,-163,33,130,-287,7,-575,118,591,-100
129,193,64,-161,32,128,-273,11,-573,116,584,-104
126,191,65,-158,30,128,-254,16,-571,116,571,-109
125,185,60,-155,32,122,-240,22,-566,116,558,-116
123,177,54,-150,34,115,-231,30,-558,116,551,-123
118,172,54,-145,32,113,-223,41,-552,119,551,-128
110,167,57,-138,26,112,-213,54,-547,122,552,-133
102,159,57,-130,22,108,-201,62,-544,119,545,-141
94,148,54,-121,20,101,-186,66,-542,110,532,-152
87,143,56,-115,15,99,-169,71,-538,101,520,-161
82,142,60,-112,11,101,-151,77,-535,94,511,-170
82,136,54,-109,14,95,-138,77,-538,88,498,-183
83,125,42,-104,20,83,-129,74,-543,81,483,-198
76,117,41,-96,17,79,-121,72,-548,72,469,-210
66,113,47,-89,9,80,-114,72,-550,61,457,-220
61,108,47,-84,7,77,-107,73,-551,52,444,-230
59,100,41,-79,9,70,-100,73,-551,45,432,-243
51,89,38,-70,6,63,-90,71,-550,40,425,-254
38,77,39,-57,0,58,-80,68,-550,36,421,-264
28,68,40,-48,-6,54,-75,68,-553,28,413,-274
22,63,41,-42,-9,52,-71,71,-559,17,403,-283
11,62,51,-36,-20,56,-60,74,-562,10,395,-291
2,60,58,-31,-28,59,-46,74,-564,6,388,-298
12,52,40,-32,-14,46,-41,67,-568,0,376,-308
35,42,7,-38,14,24,-46,56,-573,-10,360,-319
49,35,-14,-42,31,10,-49,48,-577,-18,350,-324
50,30,-20,-40,35,5,-48,41,-582,-25,344,-328
42,25,-17,-33,29,4,-46,33,-589,-34,332,-337
32,17,-15,-24,23,1,-43,23,-597,-44,313,-351
25,9,-16,-17,20,-3,-43,13,-603,-52,297,-360
21,4,-17,-12,19,-6,-43,5,-608,-57,288,-361
14,5,-9,-9,11,-2,-40,1,-612,-58,287,-359
2,8,6,-5,-2,7,-32,0,-616,-57,293,-356
-16,7,23,4,-19,15,-23,0,-624,-58,302,-354
-34,1,35,16,-34,18,-16,-2,-635,-61,308,-355
-39,-1,38,20,-38,18,-11,-6,-643,-65,300,-358
-32,-2,30,17,-31,14,-9,-11,-648,-70,284,-364
-25,-6,19,15,-22,6,-8,-16,-649,-76,269,-368
-20,-12,8,16,-14,-2,-8,-21,-651,-83,260,-369
-15,-14,1,14,-8,-6,-9,-28,-657,-92,253,-370
-7,-14,-7,10,0,-10,-12,-35,-668,-102,248,-372
0,-14,-14,7,7,-14,-17,-43,-679,-113,247,-380
4,-17,-21,6,12,-19,-22,-50,-689,-123,246,-391
2,-21,-23,9,12,-22,-24,-55,-694,-128,238,-397
-2,-23,-21,12,9,-22,-24,-57,-696,-130,226,-399
-4,-22,-18,13,7,-20,-24,-58,-696,-131,223,-401
-3,-19,-16,11,6,-17,-24,-58,-696,-134,224,-404
-6,-18,-12,12,3,-15,-21,-57,-697,-140,220,-405
-11,-19,-8,15,-1,-13,-15,-57,-700,-148,211,-405
-15,-18,-3,16,-6,-10,-12,-60,-704,-154,207,-405
-15,-17,-2,16,-6,-9,-12,-65,-709,-159,209,-407
-10,-22,-12,16,1,-17,-16,-70,-716,-163,207,-411
-4,-31,-27,17,11,-29,-22,-72,-724,-167,201,-417
-5,-35,-30,20,12,-32,-25,-73,-730,-173,198,-420
-11,-35,-24,23,6,-29,-24,-73,-734,-178,196,-423
-15,-32,-17,23,1,-24,-22,-71,-739,-180,192,-425
-14,-29,-15,21,0,-22,-20,-68,-744,-180,186,-428
-12,-28,-16,20,2,-22,-17,-67,-748,-180,182,-429
-12,-29,-17,20,2,-23,-14,-67,-750,-183,180,-428
-17,-28,-11,22,-3,-19,-12,-68,-752,-186,179,-429
-25,-28,-3,26,-11,-15,-10,-68,-754,-189,177,-432
-33,-31,2,32,-17,-14,-7,-66,-757,-190,168,-436
-38,-37,1,37,-19,-18,-4,-64,-760,-193,155,-438
-38,-40,-2,39,-18,-21,-3,-61,-761,-198,144,-438
-34,-42,-8,38,-13,-25,-3,-58,-761,-206,137,-438
-33,-43,-10,38,-11,-26,-3,-57,-760,-211,133,-441
-34,-43,-9,38,-12,-26,-3,-58,-761,-213,131,-446
-31,-40,-9,35,-11,-24,-5,-57,-760,-214,130,-450
-25,-35,-10,30,-7,-22,-8,-54,-760,-214,130,-452
-22,-32,-10,27,-6,-21,-9,-51,-761,-213,131,-454
-23,-33,-10,28,-6,-21,-8,-48,-761,-213,131,-457
-24,-35,-11,29,-6,-23,-10,-47,-758,-214,130,-458
-24,-38,-14,31,-5,-26,-13,-48,-753,-214,130,-458
-22,-39,-17,30,-2,-28,-13,-46,-748,-211,131,-456
-20,-39,-19,29,0,-29,-10,-43,-744,-205,131,-453
-16,-37,-21,26,2,-29,-6,-42,-734,-203,128,-452
-11,-32,-21,21,5,-26,-4,-40,-719,-203,122,-452
-4,-23,-19,13,7,-21,-3,-34,-701,-203,122,-453
2,-15,-17,6,9,-16,-3,-26,-686,-201,128,-453
4,-15,-19,5,11,-17,-3,-21,-681,-198,134,-451
0,-24,-24,12,12,-24,-3,-20,-681,-195,139,-446
-12,-35,-23,23,5,-29,-5,-16,-667,-193,142,-438
-26,-42,-16,34,-5,-29,-7,-10,-637,-191,141,-430
-28,-42,-14,35,-7,-28,-10,-8,-603,-186,139,-428
-21,-39,-18,30,-1,-28,-13,-9,-569,-181,136,-431
-17,-40,-23,28,3,-31,-15,-6,-536,-179,135,-437
-18,-46,-28,32,5,-37,-18,-1,-507,-180,135,-442
-19,-49,-30,34,5,-39,-19,0,-483,-178,137,-444
-19,-49,-30,34,5,-39,-19,-1,-462,-172,143,-441
-19,-45,-26,32,3,-35,-16,4,-437,-165,150,-434
-19,-40,-21,29,1,-30,-11,15,-410,-158,158,-426
-18,-38,-20,28,1,-29,-6,20,-386,-153,163,-422
-15,-41,-26,28,5,-33,-4,19,-364,-151,165,-422
-10,-44,-34,27,12,-39,-3,18,-341,-151,164,-426
-5,-47,-42,26,18,-44,-3,19,-319,-151,164,-432
-3,-48,-45,25,21,-46,-5,18,-304,-149,168,-435
-3,-48,-45,25,21,-46,-8,18,-296,-144,176,-435
-4,-45,-41,24,18,-43,-9,21,-283,-134,185,-429
-4,-40,-36,22,16,-38,-9,27,-268,-124,192,-421
-3,-37,-34,20,15,-35,-9,29,-258,-119,197,-418
-1,-38,-37,19,18,-37,-9,29,-254,-118,201,-419
3,-39,-42,18,22,-40,-7,29,-250,-113,209,-416
11,-39,-50,14,30,-44,-5,32,-246,-104,220,-410
17,-36,-53,9,35,-44,-2,35,-241,-99,226,-408
22,-30,-52,4,37,-41,0,38,-238,-97,228,-409
26,-27,-53,0,39,-40,1,40,-240,-95,230,-406
26,-28,-54,1,40,-41,3,42,-244,-89,233,-401
16,-30,-46,7,31,-38,5,44,-241,-82,233,-399
1,-33,-34,16,17,-33,7,46,-232,-75,233,-400
-8,-34,-26,21,9,-30,10,49,-224,-70,236,-397
-9,-34,-25,21,8,-29,13,52,-220,-68,244,-391
-7,-32,-25,19,9,-28,14,53,-217,-65,253,-390
-4,-30,-26,17,11,-28,14,53,-214,-60,261,-393
-3,-27,-24,15,10,-25,13,52,-212,-53,264,-395
-3,-25,-22,14,9,-23,13,52,-212,-48,263,-395
-3,-22,-19,12,8,-20,14,53,-217,-48,262,-395
-3,-19,-16,11,6,-17,14,53,-226,-52,262,-395
-4,-18,-14,11,5,-16,13,52,-231,-52,264,-392
-4,-19,-15,11,5,-17,13,52,-231,-49,267,-387
-1,-17,-16,9,7,-16,15,54,-224,-45,268,-382
8,-12,-20,2,14,-16,17,56,-216,-41,270,-380
23,-3,-26,-10,24,-14,20,59,-213,-35,278,-379
39,6,-33,-22,36,-13,23,62,-216,-30,289,-379
43,10,-33,-26,38,-11,24,63,-221,-27,292,-379
37,9,-28,-23,32,-9,24,63,-226,-24,288,-379
30,8,-22,-19,26,-7,22,62,-232,-22,286,-380
25,9,-16,-17,20,-3,20,62,-237,-19,286,-380
21,8,-13,-14,17,-2,17,63,-240,-18,287,-377
16,5,-11,-10,13,-3,15,63,-244,-19,286,-372
10,1,-9,-5,9,-4,12,62,-254,-17,287,-367
5,0,-5,-2,5,-2,9,62,-265,-14,288,-365
3,1,-2,-2,2,0,9,63,-268,-13,283,-368
6,6,0,-6,3,3,9,63,-264,-13,275,-373
12,12,0,-12,6,6,6,61,-263,-14,272,-375
17,17,0,-17,8,8,1,58,-266,-14,275,-372
19,19,0,-19,9,9,-1,57,-269,-14,281,-366
16,19,3,-17,6,11,0,57,-271,-14,285,-359
9,18,9,-13,0,13,0,59,-276,-13,287,-350
3,18,15,-10,-6,16,0,62,-281,-13,287,-345
7,19,12,-13,-2,15,-1,63,-283,-14,286,-350
21,21,0,-21,10,10,-3,62,-282,-17,284,-362
40,28,-12,-34,26,8,-4,64,-284,-20,281,-368
55,36,-19,-45,37,8,-4,67,-289,-23,278,-366
56,41,-15,-48,35,13,-4,68,-295,-23,278,-366
45,40,-5,-42,25,17,-4,70,-300,-20,281,-366
30,35,5,-32,12,20,-3,77,-304,-15,284,-363
17,30,13,-23,2,21,-2,85,-307,-10,285,-357
10,29,19,-19,-4,24,-7,85,-305,-8,289,-355
6,32,26,-19,-10,29,-18,80,-302,-8,295,-355
0,34,34,-17,-17,34,-32,76,-302,-8,298,-355
-5,33,38,-14,-21,35,-44,77,-305,-8,297,-350
4,35,31,-19,-13,33,-49,78,-307,-10,295,-338
23,37,14,-30,4,25,-48,78,-307,-13,295,-326
31,39,8,-35,11,23,-47,77,-307,-14,300,-330
29,39,10,-34,9,24,-47,78,-307,-13,303,-345
30,37,7,-33,11,22,-48,77,-304,-15,295,-354
36,31,-5,-33,20,13,-48,77,-299,-18,281,-353
40,24,-16,-32,28,4,-46,79,-294,-16,277,-346
42,16,-26,-29,34,-5,-43,81,-292,-11,284,-338
45,12,-33,-28,39,-10,-42,82,-290,-7,287,-334
53,13,-40,-33,46,-13,-45,81,-287,-8,284,-334
65,15,-50,-40,57,-17,-52,82,-286,-9,281,-338
76,18,-58,-47,67,-20,-57,85,-284,-9,282,-340
76,19,-57,-47,66,-19,-55,89,-278,-7,284,-339
66,19,-47,-42,56,-14,-44,94,-268,-2,289,-333
58,18,-40,-38,49,-11,-31,99,-255,3,295,-327
52,18,-34,-35,43,-8,-21,104,-246,7,300,-323
39,19,-20,-29,29,0,-17,110,-242,10,303,-321
23,19,-4,-21,13,7,-18,115,-243,9,303,-321
15,17,2,-16,6,9,-18,117,-242,7,299,-322
14,14,0,-14,7,7,-15,117,-239,4,294,-321
12,13,1,-12,5,7,-12,117,-239,3,289,-322
11,14,3,-12,4,8,-9,117,-239,3,287,-324
21,12,-9,-16,15,1,-7,115,-236,3,285,-329
36,7,-29,-21,32,-11,-5,112,-230,1,283,-336
35,-2,-37,-16,36,-19,-2,111,-228,-2,281,-347
17,-14,-31,-1,24,-22,2,111,-229,-7,279,-357
0,-23,-23,11,11,-23,6,112,-225,-11,275,-363
-11,-27,-16,19,2,-21,12,111,-216,-13,269,-365
-14,-31,-17,22,1,-24,16,112,-212,-13,266,-366
-10,-37,-27,23,8,-32,18,112,-213,-13,263,-366
-6,-40,-34,23,14,-37,19,110,-215,-15,261,-366
-4,-42,-38,23,17,-40,19,108,-217,-18,259,-366
-3,-44,-41,23,19,-42,18,105,-221,-19,256,-365
-1,-47,-46,24,22,-46,18,103,-226,-19,254,-365
1,-48,-49,23,25,-48,19,99,-231,-18,251,-366
4,-48,-52,22,28,-50,19,94,-236,-18,248,-369
2,-48,-50,23,26,-49,18,88,-242,-19,248,-370
-2,-48,-46,25,22,-47,18,83,-250,-19,251,-370
-4,-46,-42,25,19,-44,19,80,-256,-17,253,-368
-4,-43,-39,23,17,-41,19,78,-261,-14,253,-366
-3,-42,-39,22,18,-40,17,77,-264,-13,251,-365
-3,-45,-42,24,19,-43,14,77,-266,-13,248,-365
-4,-53,-49,28,22,-51,13,78,-271,-14,247,-366
-4,-61,-57,32,26,-59,13,78,-279,-14,247,-366
-2,-62,-60,32,29,-61,13,77,-286,-13,249,-365
2,-56,-58,27,30,-57,13,77,-290,-13,252,-365
5,-49,-54,22,29,-51,15,78,-293,-13,253,-366
4,-47,-51,21,27,-49,18,78,-296,-13,253,-366
2,-50,-52,24,27,-51,19,77,-297,-14,252,-365
-1,-55,-54,28,26,-54,19,77,-297,-14,252,-365
-7,-60,-53,33,23,-56,18,78,-296,-13,253,-366
-13,-62,-49,37,18,-55,18,78,-295,-13,253,-366
-12,-63,-51,37,19,-57,19,76,-300,-14,252,-365
-6,-63,-57,34,25,-60,19,71,-308,-17,252,-365
-1,-61,-60,31,29,-60,17,63,-316,-20,253,-367
2,-58,-60,28,31,-59,14,55,-323,-23,253,-369
7,-57,-64,25,35,-60,13,51,-328,-24,251,-370
14,-57,-71,21,42,-64,13,52,-330,-24,249,-370
25,-57,-82,16,53,-69,13,53,-331,-23,246,-369
33,-57,-90,12,61,-73,13,53,-331,-23,244,-370
31,-59,-90,14,60,-74,15,52,-329,-24,242,-369
19,-62,-81,21,50,-71,18,52,-326,-24,240,-369
7,-63,-70,28,38,-66,19,52,-325,-23,237,-371
0,-63,-63,31,31,-63,19,52,-325,-23,234,-374
2,-62,-64,30,33,-63,18,53,-326,-24,233,-375
13,-62,-75,24,44,-68,18,55,-326,-24,233,-375
26,-63,-89,18,57,-76,19,62,-325,-23,234,-374
37,-62,-99,12,68,-80,19,70,-325,-23,234,-375
38,-63,-101,12,69,-82,17,75,-326,-25,232,-374
32,-63,-95,15,63,-79,14,74,-326,-28,229,-374
25,-62,-87,18,56,-74,13,70,-325,-29,228,-376
20,-62,-82,21,51,-72,13,64,-323,-29,228,-379
16,-64,-80,24,48,-72,13,62,-319,-27,230,-379
11,-67,-78,28,44,-72,13,62,-314,-25,232,-376
4,-68,-72,32,38,-70,15,63,-307,-22,235,-373
-2,-68,-66,35,32,-67,18,63,-299,-20,237,-370
-4,-67,-63,35,29,-65,19,62,-294,-17,240,-368
0,-67,-67,33,33,-67,19,62,-292,-14,243,-366
12,-69,-81,28,46,-75,18,63,-290,-13,244,-365
26,-71,-97,22,61,-84,18,63,-288,-13,244,-365
27,-74,-101,23,64,-87,19,61,-285,-15,243,-367
20,-76,-96,28,58,-86,18,59,-284,-17,240,-372
22,-79,-101,28,61,-90,19,57,-281,-20,236,-377
31,-81,-112,25,71,-96,19,57,-278,-23,234,-379
32,-82,-114,25,73,-98,18,59,-278,-24,234,-378
22,-82,-104,30,63,-93,18,62,-278,-24,237,-375
16,-81,-97,32,56,-89,20,63,-275,-22,239,-374
14,-81,-95,33,54,-88,22,63,-269,-19,239,-374
11,-82,-93,35,52,-87,24,63,-266,-18,238,-374
4,-82,-86,39,45,-84,24,63,-267,-18,238,-374
-6,-82,-76,44,35,-79,22,61,-268,-20,239,-376
-14,-82,-68,48,27,-75,19,58,-268,-23,239,-379
-8,-81,-73,44,32,-77,18,58,-267,-23,238,-379
5,-81,-86,38,45,-83,18,61,-267,-21,238,-376
9,-82,-91,36,50,-86,20,64,-268,-15,239,-372
5,-82,-87,38,46,-84,23,66,-268,-10,239,-367
5,-80,-85,37,45,-82,24,69,-267,-8,238,-364
11,-78,-89,33,50,-83,24,72,-267,-9,238,-361
15,-77,-92,31,53,-84,23,73,-269,-8,239,-360
15,-77,-92,31,53,-84,23,72,-272,-5,239,-360
11,-77,-88,33,49,-82,24,74,-273,-3,237,-362
5,-77,-82,36,43,-79,24,79,-272,-3,232,-367
2,-79,-81,38,41,-80,23,86,-273,-5,224,-374
2,-79,-81,38,41,-80,25,93,-273,-8,216,-381
7,-73,-80,33,43,-76,35,101,-270,-9,211,-388
13,-62,-75,24,44,-68,53,108,-264,-14,202,-398
12,-53,-65,20,38,-59,76,117,-262,-28,179,-416
4,-48,-52,22,28,-50,101,131,-258,-43,154,-434
-7,-48,-41,27,17,-44,123,157,-238,-32,158,-437
-17,-44,-27,30,5,-35,140,199,-191,22,207,-409
-17,-26,-9,21,-4,-17,152,262,-111,131,304,-341
-5,5,10,0,-7,7,159,340,-10,274,433,-246
19,34,15,-26,2,24,161,418,88,407,565,-151
58,64,6,-61,26,35,155,494,181,525,698,-56
118,110,-8,-114,63,51,141,569,281,655,848,61
187,167,-20,-177,103,73,121,640,382,791,1010,198
240,213,-27,-226,133,93,100,698,472,901,1159,330
275,249,-26,-262,150,111,80,745,557,1002,1303,459
316,296,-20,-306,168,138,63,794,662,1147,1481,612
362,348,-14,-355,188,167,47,845,783,1326,1680,773
398,381,-17,-389,207,182,27,879,891,1480,1851,894
426,390,-36,-408,231,177,8,893,981,1601,1985,966
457,387,-70,-422,263,158,1,887,1067,1724,2104,1015
486,375,-111,-430,298,132,6,859,1135,1827,2187,1039
488,347,-141,-417,314,103,12,803,1150,1845,2185,1009
458,291,-167,-374,312,62,18,701,1074,1749,2078,915
409,189,-220,-299,314,-15,33,525,879,1544,1875,759
338,50,-288,-194,313,-119,56,297,577,1240,1594,561
234,-94,-328,-70,281,-211,84,72,221,849,1262,348
112,-222,-334,55,223,-278,113,-100,-128,391,879,126
7,-314,-321,153,164,-317,140,-188,-407,-106,436,-112
-69,-375,-306,222,118,-340,166,-196,-584,-551,-4,-352
-128,-432,-304,280,88,-368,200,-163,-655,-802,-320,-552
-171,-481,-310,326,69,-395,242,-106,-641,-852,-473,-691
-196,-492,-296,344,50,-394,290,-22,-582,-809,-496,-765
-209,-470,-261,339,26,-365,341,66,-511,-740,-450,-788
-220,-443,-223,331,1,-333,398,120,-452,-681,-412,-789
-231,-418,-187,324,-22,-302,457,125,-419,-638,-402,-786
-233,-383,-150,308,-41,-266,512,99,-415,-606,-394,-783
-231,-339,-108,285,-61,-223,558,57,-431,-578,-374,-777
-241,-303,-62,272,-89,-182,592,17,-445,-550,-340,-758
-263,-284,-21,273,-121,-152,623,-8,-448,-523,-299,-732
-282,-288,-6,285,-138,-147,663,-14,-445,-497,-264,-712
-292,-307,-15,299,-138,-161,720,0,-436,-473,-240,-703
-288,-325,-37,306,-125,-181,792,22,-417,-449,-228,-701
-276,-334,-58,305,-109,-196,867,40,-396,-427,-221,-701
-270,-336,-66,303,-102,-201,929,39,-387,-409,-214,-701
-269,-335,-66,302,-101,-200,967,22,-389,-395,-202,-697
-263,-338,-75,300,-94,-206,979,5,-387,-381,-183,-682
-251,-343,-92,297,-79,-217,983,-1,-374,-364,-161,-661
-245,-347,-102,296,-71,-224,1021,5,-352,-343,-138,-645
-242,-347,-105,294,-68,-226,1075,15,-331,-323,-121,-637
-230,-343,-113,286,-58,-228,1083,4,-325,-313,-114,-629
-209,-335,-126,272,-41,-230,1015,-25,-332,-310,-110,-619
-189,-324,-135,256,-27,-229,873,-51,-337,-298,-98,-605
-170,-309,-139,239,-15,-224,685,-64,-333,-277,-77,-588
-147,-291,-144,219,-1,-217,499,-72,-327,-257,-58,-569
-121,-269,-148,195,13,-208,346,-77,-320,-240,-43,-550
-102,-241,-139,171,18,-190,237,-77,-313,-225,-19,-529
-90,-213,-123,151,16,-168,168,-74,-305,-210,9,-508
-82,-197,-115,139,16,-156,122,-70,-296,-196,26,-495
-76,-192,-116,134,20,-154,94,-60,-285,-182,32,-489
-68,-185,-117,126,24,-151,82,-39,-267,-165,37,-485
-59,-174,-115,116,28,-144,82,-10,-247,-147,47,-480
-43,-166,-123,104,40,-144,79,9,-230,-134,59,-475
-25,-162,-137,93,56,-149,69,17,-220,-127,69,-470
-12,-158,-146,85,67,-152,54,20,-219,-124,75,-463
-6,-150,-144,78,69,-147,39,20,-222,-122,77,-455
-1,-139,-138,70,68,-138,30,15,-224,-120,80,-450
2,-129,-131,63,66,-130,28,9,-224,-118,85,-448
5,-124,-129,59,67,-126,30,12,-223,-115,88,-447
7,-125,-132,59,69,-128,33,23,-224,-112,90,-448
11,-126,-137,57,74,-131,33,34,-223,-111,94,-447
19,-126,-145,53,82,-135,31,41,-223,-111,100,-445
30,-124,-154,47,92,-139,25,43,-225,-112,102,-442
38,-122,-160,42,99,-141,18,40,-228,-112,102,-439
35,-121,-156,43,95,-138,8,37,-227,-110,101,-438
18,-121,-139,51,78,-130,1,36,-222,-104,102,-439
-3,-121,-118,62,57,-119,1,44,-215,-98,101,-437
-24,-121,-97,72,36,-109,6,58,-210,-93,101,-435
-30,-122,-92,76,31,-107,10,66,-207,-92,104,-433
-23,-122,-99,72,38,-110,9,67,-207,-95,109,-433
-14,-120,-106,67,46,-113,7,68,-211,-99,113,-434
-10,-117,-107,63,48,-112,5,69,-216,-101,113,-434
-8,-117,-109,62,50,-113,2,64,-221,-101,109,-433
-8,-122,-114,65,53,-118,0,55,-223,-101,103,-433
-8,-130,-122,69,57,-126,0,51,-224,-104,100,-435
-6,-135,-129,70,61,-132,0,51,-224,-110,101,-438
0,-133,-133,66,66,-133,0,54,-224,-112,102,-438
6,-125,-131,59,68,-128,-2,56,-224,-109,102,-435
10,-117,-127,53,68,-122,-5,59,-223,-104,99,-432
9,-113,-122,52,65,-117,-7,59,-220,-101,94,-429
7,-111,-118,52,62,-114,-10,54,-217,-104,89,-428
5,-111,-116,53,60,-113,-13,45,-215,-110,87,-428
3,-111,-114,54,58,-112,-13,41,-212,-112,86,-428
3,-111,-114,54,58,-112,-13,42,-212,-112,84,-428
6,-113,-119,53,62,-116,-16,43,-217,-112,77,-430
11,-116,-127,52,69,-121,-21,43,-223,-115,69,-432
16,-117,-133,50,74,-125,-25,42,-222,-117,68,-434
21,-114,-135,46,78,-124,-25,42,-216,-117,75,-434
27,-108,-135,40,81,-121,-21,43,-212,-116,80,-432
30,-102,-132,36,81,-117,-16,43,-213,-113,81,-429
24,-103,-127,39,75,-115,-11,43,-213,-109,82,-428
13,-109,-122,48,67,-115,-9,43,-213,-106,82,-428
5,-114,-119,54,62,-116,-9,42,-216,-108,79,-429
4,-116,-120,56,62,-118,-12,42,-221,-114,74,-429
3,-117,-120,57,61,-118,-15,43,-226,-118,72,-429
3,-120,-123,58,63,-121,-17,43,-228,-117,72,-429
5,-124,-129,59,67,-126,-20,42,-229,-116,72,-428
10,-128,-138,59,74,-133,-22,40,-232,-116,70,-428
19,-133,-152,57,85,-142,-25,37,-236,-118,64,-430
27,-135,-162,54,94,-148,-27,34,-241,-121,58,-433
28,-134,-162,53,95,-148,-30,33,-246,-122,59,-434
22,-131,-153,54,87,-142,-33,34,-251,-121,65,-434
15,-130,-145,57,80,-137,-34,32,-254,-122,70,-433
10,-131,-141,60,75,-136,-34,29,-257,-125,72,-433
7,-128,-135,60,71,-131,-32,28,-258,-125,73,-433
6,-121,-127,57,66,-124,-29,28,-257,-123,72,-433
13,-111,-124,49,68,-117,-29,28,-258,-120,73,-434
25,-103,-128,39,76,-115,-33,25,-261,-117,73,-434
30,-102,-132,36,81,-117,-33,21,-264,-117,71,-432
29,-109,-138,40,83,-123,-31,16,-264,-120,68,-430
29,-114,-143,42,86,-128,-26,11,-260,-123,67,-427
29,-116,-145,43,87,-130,-23,9,-255,-123,67,-425
26,-117,-143,45,84,-130,-26,8,-250,-119,68,-421
18,-116,-134,49,76,-125,-32,8,-248,-114,70,-416
9,-117,-126,54,67,-121,-34,9,-247,-110,77,-410
4,-117,-121,56,62,-119,-33,9,-247,-107,88,-406
4,-115,-119,55,61,-117,-35,8,-248,-105,94,-404
7,-110,-117,51,62,-113,-41,8,-248,-102,96,-405
10,-102,-112,46,61,-107,-44,9,-247,-101,97,-403
11,-93,-104,41,57,-98,-43,12,-247,-102,97,-397
4,-92,-96,44,50,-94,-42,15,-248,-101,96,-391
-5,-95,-90,50,42,-92,-41,15,-248,-98,99,-386
-10,-96,-86,53,38,-91,-45,10,-247,-95,107,-383
-7,-93,-86,50,39,-89,-53,3,-247,-92,118,-380
1,-90,-91,44,46,-90,-63,-2,-248,-91,122,-379
15,-88,-103,36,59,-95,-73,-7,-248,-91,118,-380
34,-85,-119,25,76,-102,-83,-11,-247,-91,116,-379
52,-80,-132,14,92,-106,-93,-17,-247,-89,121,-377
60,-74,-134,7,97,-104,-100,-20,-248,-83,134,-371
58,-69,-127,5,92,-98,-104,-22,-248,-75,150,-364
59,-67,-126,4,92,-96,-110,-26,-247,-70,159,-357
65,-65,-130,0,97,-97,-118,-31,-247,-66,162,-350
69,-58,-127,-5,98,-92,-126,-36,-248,-58,170,-339
71,-47,-118,-12,94,-82,-133,-41,-248,-45,183,-324
75,-38,-113,-18,94,-75,-138,-44,-247,-31,196,-309
83,-31,-114,-26,98,-72,-142,-47,-244,-18,208,-296
90,-25,-115,-32,102,-70,-150,-49,-243,-10,221,-287
93,-17,-110,-38,101,-63,-161,-49,-243,-4,238,-277
87,-9,-96,-39,91,-52,-167,-45,-243,7,260,-266
78,0,-78,-39,78,-39,-171,-37,-241,22,284,-251
82,8,-74,-45,78,-33,-180,-31,-235,33,297,-235
97,15,-82,-56,89,-33,-191,-26,-228,39,303,-220
103,24,-79,-63,91,-27,-195,-20,-219,48,314,-205
101,34,-67,-67,84,-16,-193,-14,-211,61,332,-191
106,43,-63,-74,84,-10,-199,-15,-207,75,349,-178
118,48,-70,-83,94,-11,-212,-21,-208,87,363,-166
122,45,-77,-83,99,-16,-224,-25,-209,97,377,-153
118,39,-79,-78,98,-20,-231,-25,-209,106,389,-137
116,40,-76,-78,96,-18,-236,-21,-207,118,400,-124
120,49,-71,-84,95,-11,-241,-16,-202,131,409,-115
123,56,-67,-89,95,-5,-246,-11,-197,139,419,-109
124,60,-64,-92,94,-2,-251,-6,-191,143,429,-104
128,66,-62,-97,95,2,-253,-2,-188,150,437,-98
133,74,-59,-103,96,7,-252,1,-185,161,442,-90
137,81,-56,-109,96,12,-254,7,-183,166,444,-83
140,85,-55,-112,97,15,-257,12,-181,166,446,-79
142,87,-55,-114,98,16,-257,13,-178,163,450,-76
144,87,-57,-115,100,15,-255,12,-175,163,456,-74
147,86,-61,-116,104,12,-250,17,-174,167,458,-71
149,85,-64,-117,106,10,-245,28,-172,173,458,-68
153,89,-64,-121,108,12,-243,39,-166,175,458,-67
158,95,-63,-126,110,16,-244,48,-158,175,458,-67
163,96,-67,-129,115,14,-241,58,-154,175,455,-68
165,90,-75,-127,120,7,-233,68,-152,176,450,-71
161,83,-78,-122,119,2,-224,76,-148,172,446,-75
151,79,-72,-115,111,3,-215,83,-143,164,442,-79
139,77,-62,-108,100,7,-199,92,-138,158,432,-84
129,75,-54,-102,91,10,-178,103,-133,156,416,-89
124,69,-55,-96,89,7,-163,109,-127,154,402,-95
123,61,-62,-92,92,0,-158,110,-120,151,395,-103
119,55,-64,-87,91,-4,-152,114,-113,151,395,-109
111,51,-60,-81,85,-4,-145,122,-108,151,396,-114
102,42,-60,-72,81,-9,-136,129,-105,148,390,-121
95,32,-63,-63,79,-15,-126,133,-103,140,376,-131
87,27,-60,-57,73,-16,-115,139,-100,131,364,-141
82,25,-57,-53,69,-16,-103,144,-97,124,355,-150
84,19,-65,-51,74,-23,-90,145,-96,119,344,-162
90,8,-82,-49,86,-37,-78,142,-97,114,331,-175
90,0,-90,-45,90,-45,-66,140,-95,108,320,-184
84,-2,-86,-41,85,-44,-56,140,-92,101,312,-190
81,-6,-87,-37,84,-46,-50,141,-92,91,299,-201
80,-13,-93,-33,86,-53,-45,141,-95,82,284,-216
71,-25,-96,-23,83,-60,-38,140,-98,74,273,-231
57,-38,-95,-9,76,-66,-31,137,-100,66,266,-242
51,-45,-96,-3,73,-70,-28,133,-104,57,256,-253
55,-44,-99,-5,77,-71,-29,126,-109,47,241,-263
59,-40,-99,-9,79,-69,-26,116,-113,39,226,-272
60,-38,-98,-11,79,-68,-17,106,-116,36,214,-279
67,-41,-108,-13,87,-74,-11,97,-118,30,203,-287
76,-49,-125,-13,100,-87,-9,89,-120,22,196,-294
76,-54,-130,-11,103,-92,-7,84,-122,16,195,-298
65,-56,-121,-4,93,-88,-2,80,-124,11,196,-299
48,-60,-108,6,78,-84,2,74,-128,5,190,-306
28,-69,-97,20,62,-83,7,66,-133,-1,175,-318
8,-76,-84,34,46,-80,10,59,-137,-6,165,-323
-5,-81,-76,43,35,-78,12,54,-139,-8,161,-322
-8,-81,-73,44,32,-77,15,52,-142,-9,160,-321
-2,-80,-78,41,38,-79,17,52,-147,-12,160,-324
1,-85,-86,42,43,-85,20,53,-155,-16,162,-328
0,-94,-94,47,47,-94,22,53,-165,-21,163,-333
0,-98,-98,49,49,-98,25,51,-173,-27,155,-338
0,-97,-97,48,48,-97,28,45,-178,-34,138,-343
0,-97,-97,48,48,-97,29,40,-181,-44,124,-348
0,-100,-100,50,50,-100,29,35,-183,-54,114,-350
0,-102,-102,51,51,-102,29,32,-188,-61,109,-350
3,-102,-105,49,54,-103,29,29,-196,-65,106,-349
4,-102,-106,49,55,-104,28,28,-204,-70,107,-354
4,-104,-108,50,56,-106,25,26,-211,-75,108,-362
4,-109,-113,52,58,-111,22,20,-217,-79,102,-368
6,-115,-121,54,63,-118,20,12,-222,-81,90,-369
13,-117,-130,52,71,-123,16,5,-225,-82,85,-371
22,-116,-138,47,80,-127,13,0,-228,-84,86,-374
23,-117,-140,47,81,-128,15,0,-230,-90,85,-375
16,-120,-136,52,76,-128,21,0,-232,-98,79,-374
12,-122,-134,55,73,-128,25,-1,-236,-105,78,-375
13,-124,-137,55,75,-130,25,-6,-241,-109,81,-378
14,-129,-143,57,78,-136,21,-11,-246,-114,81,-381
12,-138,-150,63,81,-144,15,-17,-251,-119,78,-384
3,-142,-145,69,74,-143,12,-20,-254,-124,77,-385
-9,-141,-132,75,61,-136,13,-23,-256,-129,78,-384
-16,-140,-124,78,54,-132,15,-24,-261,-132,76,-386
-15,-140,-125,77,55,-132,17,-27,-269,-134,70,-389
-13,-142,-129,77,58,-135,20,-31,-276,-138,65,-390
-13,-145,-132,79,59,-138,23,-36,-281,-143,63,-389
-15,-145,-130,80,57,-137,23,-40,-284,-147,63,-390
-18,-145,-127,81,54,-136,20,-42,-286,-150,64,-393
-19,-147,-128,83,54,-137,16,-43,-288,-152,59,-396
-19,-153,-134,86,57,-143,13,-43,-291,-154,48,-399
-19,-158,-139,88,60,-148,16,-42,-292,-157,38,-399
-21,-160,-139,90,59,-149,24,-42,-292,-160,34,-395
-27,-161,-134,94,53,-147,33,-44,-292,-160,33,-395
-33,-162,-129,97,48,-145,41,-46,-292,-156,33,-398
-32,-158,-126,95,47,-142,42,-48,-291,-156,34,-401
-26,-153,-127,89,50,-140,40,-48,-288,-159,34,-403
-22,-149,-127,85,52,-138,38,-47,-285,-162,34,-406
-23,-149,-126,86,51,-137,39,-47,-283,-163,34,-408
-24,-153,-129,88,52,-141,37,-48,-283,-166,33,-409
-24,-158,-134,91,55,-146,34,-48,-285,-169,33,-409
-22,-163,-141,92,59,-152,34,-46,-288,-169,34,-408
-19,-165,-146,92,63,-155,37,-43,-291,-166,35,-405
-18,-164,-146,91,64,-155,40,-43,-291,-164,31,-404
-19,-159,-140,89,60,-149,42,-43,-286,-164,25,-404
-18,-151,-133,84,57,-142,43,-41,-278,-164,24,-405
-15,-143,-128,79,56,-135,43,-35,-271,-162,30,-404
-12,-141,-129,76,58,-135,43,-33,-278,-159,37,-405
-12,-146,-134,79,61,-140,43,-33,-293,-156,42,-405
-17,-155,-138,86,60,-146,42,-33,-295,-155,43,-404
-26,-161,-135,93,54,-148,39,-30,-281,-153,42,-401
-29,-157,-128,93,49,-142,39,-27,-263,-146,45,-398
-25,-146,-121,85,48,-133,41,-22,-246,-135,52,-395
-24,-136,-112,80,44,-124,45,-13,-230,-127,64,-394
-27,-134,-107,80,40,-120,48,-3,-217,-123,74,-394
-29,-139,-110,84,40,-124,46,0,-212,-120,79,-394
-29,-147,-118,88,44,-132,41,0,-213,-115,78,-392
-29,-153,-124,91,47,-138,37,3,-212,-108,78,-386
-30,-155,-125,92,47,-140,38,14,-206,-100,80,-378
-26,-157,-131,91,52,-144,40,20,-202,-94,83,-372
-15,-159,-144,87,64,-151,42,19,-200,-92,86,-369
-1,-162,-161,81,80,-161,43,18,-198,-92,86,-370
11,-164,-175,76,93,-169,43,18,-196,-92,86,-373
13,-165,-178,76,95,-171,41,18,-194,-90,89,-376
7,-165,-172,79,89,-168,39,18,-192,-85,97,-376
1,-162,-163,80,82,-162,38,21,-186,-76,106,-371
-1,-157,-156,79,77,-156,39,27,-178,-66,114,-364
-8,-154,-146,81,69,-150,37,29,-172,-61,118,-358
-18,-155,-137,86,59,-146,35,28,-170,-59,122,-354
-28,-156,-128,92,50,-142,33,30,-169,-54,131,-345
-34,-157,-123,95,44,-140,33,33,-166,-46,142,-333
-30,-153,-123,91,46,-138,34,33,-163,-41,147,-331
-19,-148,-129,83,55,-138,33,30,-161,-39,146,-338
-9,-144,-135,76,63,-139,34,27,-161,-37,145,-342
-4,-145,-141,74,68,-143,34,24,-164,-32,146,-341
-5,-147,-142,76,68,-144,33,24,-164,-25,145,-341
-9,-149,-140,79,65,-144,30,27,-162,-20,144,-341
-5,-151,-146,78,70,-148,27,30,-160,-18,148,-338
5,-151,-156,73,80,-153,24,33,-160,-19,156,-333
10,-149,-159,69,84,-154,23,34,-161,-17,165,-330
6,-147,-153,70,79,-150,23,34,-160,-12,172,-331
1,-145,-146,72,73,-145,24,33,-161,-5,176,-330
-2,-143,-141,72,69,-142,24,34,-163,-1,175,-326
-4,-137,-133,70,64,-135,23,33,-166,0,174,-325
-4,-129,-125,66,60,-127,20,33,-169,0,174,-326
-3,-122,-119,62,58,-120,17,34,-169,1,176,-324
-3,-118,-115,60,56,-116,14,34,-164,7,179,-319
-4,-115,-111,59,53,-113,13,32,-157,9,179,-315
-4,-110,-106,57,51,-108,13,26,-151,9,178,-316
-1,-101,-100,51,49,-100,14,21,-152,8,183,-318
2,-90,-92,44,47,-91,14,16,-158,8,192,-321
3,-86,-89,41,46,-87,13,11,-162,9,194,-322
0,-89,-89,44,44,-89,10,6,-164,9,188,-322
-7,-94,-87,50,40,-90,6,1,-166,9,182,-322
-13,-96,-83,54,35,-89,1,-2,-169,9,180,-322
-12,-97,-85,54,36,-91,-1,-4,-169,8,179,-320
-7,-96,-89,51,41,-92,-3,-4,-169,8,179,-314
-1,-97,-96,49,47,-96,-5,-3,-172,10,180,-309
2,-98,-100,48,51,-99,-8,-3,-178,12,180,-306
6,-93,-99,43,52,-96,-9,-4,-178,14,178,-308
14,-84,-98,35,56,-91,-8,-7,-172,14,174,-311
24,-71,-95,23,59,-83,-10,-11,-168,13,177,-310
35,-61,-96,13,65,-78,-16,-16,-169,13,185,-305
39,-56,-95,8,67,-75,-21,-21,-170,14,193,-298
36,-57,-93,10,64,-75,-26,-26,-173,14,198,-290
31,-58,-89,13,60,-73,-31,-30,-177,13,200,-282
26,-57,-83,15,54,-70,-36,-33,-183,13,200,-277
21,-58,-79,18,50,-68,-41,-34,-185,14,199,-281
16,-58,-74,21,45,-66,-46,-34,-184,14,196,-292
11,-55,-66,22,38,-60,-49,-32,-186,13,193,-299
8,-50,-58,21,33,-54,-52,-29,-192,13,190,-298
11,-46,-57,17,34,-51,-53,-28,-197,14,190,-296
19,-46,-65,13,42,-55,-53,-29,-199,17,192,-293
27,-50,-77,11,52,-63,-53,-28,-199,21,197,-289
32,-55,-87,11,59,-71,-53,-25,-196,26,202,-281
35,-59,-94,12,64,-76,-51,-22,-194,30,205,-274
40,-61,-101,10,70,-81,-49,-20,-194,32,207,-269
46,-65,-111,9,78,-88,-47,-17,-194,35,211,-266
54,-71,-125,8,89,-98,-47,-15,-194,38,217,-263
60,-73,-133,6,96,-103,-48,-12,-195,39,218,-262
62,-73,-135,5,98,-104,-48,-9,-198,39,215,-262
64,-73,-137,4,100,-105,-47,-8,-201,39,213,-263
67,-76,-143,4,105,-109,-47,-8,-203,39,213,-263
67,-78,-145,5,106,-111,-48,-9,-204,38,214,-262
64,-78,-142,7,103,-110,-48,-9,-204,35,214,-262
62,-77,-139,7,100,-108,-47,-8,-203,32,214,-263
60,-77,-137,8,98,-107,-47,-8,-202,29,214,-263
54,-79,-133,12,93,-106,-48,-9,-206,28,213,-262
46,-84,-130,19,88,-107,-48,-9,-212,29,210,-262
41,-89,-130,24,85,-109,-46,-8,-214,28,206,-264
39,-94,-133,27,86,-113,-44,-5,-211,25,202,-270
37,-99,-136,31,86,-117,-42,-2,-207,22,198,-275
33,-107,-140,37,86,-123,-42,0,-206,20,195,-279
36,-117,-153,40,94,-135,-42,1,-212,16,194,-287
42,-127,-169,42,105,-148,-40,3,-221,11,191,-298
39,-133,-172,47,105,-152,-36,4,-223,7,187,-303
24,-134,-158,55,91,-146,-31,4,-218,7,181,-303
3,-138,-141,67,72,-139,-26,4,-209,10,179,-300
-14,-143,-129,78,57,-136,-20,4,-204,13,179,-297
-19,-147,-128,83,54,-137,-18,3,-206,13,180,-296
-10,-149,-139,79,64,-144,-18,0,-214,10,180,-296
2,-152,-154,75,78,-153,-19,0,-222,8,179,-297
11,-155,-166,72,88,-160,-19,0,-227,8,179,-296
13,-156,-169,71,91,-162,-18,0,-229,9,180,-297
6,-156,-162,75,84,-159,-18,0,-228,9,182,-297
-6,-156,-150,81,72,-153,-19,0,-229,8,187,-296
-19,-156,-137,87,59,-146,-19,2,-232,8,192,-293
-25,-155,-130,90,52,-142,-18,5,-234,10,196,-290
-25,-152,-127,88,51,-139,-18,8,-234,12,195,-287
-23,-149,-126,86,51,-137,-20,9,-233,14,193,-286
-23,-149,-126,86,51,-137,-22,8,-233,14,191,-286
-23,-154,-131,88,54,-142,-24,9,-235,13,189,-287
-21,-162,-141,91,60,-151,-24,12,-237,13,189,-287
-15,-165,-150,90,67,-157,-24,15,-239,14,191,-286
-6,-159,-153,82,73,-156,-24,18,-239,13,193,-286
-2,-152,-150,77,74,-151,-22,19,-238,14,195,-287
-3,-146,-143,74,70,-144,-20,19,-238,14,195,-286
-4,-147,-143,75,69,-145,-18,18,-239,13,194,-287
-4,-153,-149,78,72,-151,-18,18,-239,13,194,-287
-3,-157,-154,80,75,-155,-19,19,-237,14,195,-286
-3,-156,-153,79,75,-154,-19,18,-231,17,195,-286
-4,-155,-151,79,73,-153,-19,19,-226,20,194,-287
-4,-153,-149,78,72,-151,-19,19,-221,22,194,-287
-2,-146,-144,74,71,-145,-18,18,-216,25,196,-285
0,-133,-133,66,66,-133,-16,18,-211,27,201,-281
7,-118,-125,55,66,-121,-11,20,-207,30,206,-273
13,-108,-121,47,67,-114,-5,22,-204,33,212,-265
12,-109,-121,48,66,-115,-3,24,-203,34,214,-262
2,-122,-124,60,63,-123,-3,24,-204,34,214,-263
