I,II,III,aVR,aVL,aVF,V1,V2,V3,V4,V5,V6
68,-29,-97,-19,82,-63,146,146,136,97,-39,48
68,-29,-97,-19,82,-63,146,146,136,97,-39,48
68,-29,-97,-19,82,-63,146,146,136,97,-39,48
68,-29,-97,-19,82,-63,146,146,136,97,-39,48
73,-19,-92,-26,82,-56,146,146,146,97,-29,58
78,-19,-97,-29,87,-58,146,146,146,97,-29,58
82,-19,-102,-31,92,-61,146,146,146,97,-29,58
87,-19,-107,-34,97,-63,146,146,146,97,-29,58
92,-14,-107,-39,100,-61,146,146,141,92,-34,48
97,-9,-107,-43,102,-58,146,146,136,87,-39,48
102,-4,-107,-48,104,-56,146,146,131,82,-43,48
107,0,-107,-53,107,-53,146,146,126,78,-48,48
97,-14,-112,-41,104,-63,156,136,122,73,-53,43
87,-29,-117,-29,102,-73,156,136,117,68,-58,39
78,-43,-122,-17,100,-82,156,136,112,63,-63,34
68,-58,-126,-4,97,-92,156,136,107,58,-68,29
58,-68,-126,4,92,-97,146,126,92,43,-78,19
58,-68,-126,4,92,-97,146,126,87,39,-87,9
58,-68,-126,4,92,-97,146,126,82,34,-97,0
58,-68,-126,4,92,-97,146,126,78,29,-107,-9
58,-63,-122,2,90,-92,146,126,87,39,-97,0
58,-58,-117,0,87,-87,146,126,87,39,-97,0
58,-53,-112,-2,85,-82,146,126,87,39,-97,0
58,-48,-107,-4,82,-78,146,126,87,39,-97,0
58,-58,-117,0,87,-87,146,117,78,29,-97,-9
58,-58,-117,0,87,-87,146,117,78,29,-97,-9
58,-58,-117,0,87,-87,146,117,78,29,-97,-9
58,-58,-117,0,87,-87,146,117,78,29,-97,-9
53,-73,-126,9,90,-100,136,112,68,19,-107,-9
48,-78,-126,14,87,-102,136,107,68,19,-107,-9
43,-82,-126,19,85,-104,136,102,68,19,-107,-9
39,-87,-126,24,82,-107,136,97,68,19,-107,-9
39,-87,-126,24,82,-107,131,87,68,19,-107,0
39,-87,-126,24,82,-107,126,87,68,19,-107,0
39,-87,-126,24,82,-107,122,87,68,19,-107,0
39,-87,-126,24,82,-107,117,87,68,19,-107,0
53,-78,-131,12,92,-104,107,73,58,9,-117,-9
58,-78,-136,9,97,-107,107,68,58,9,-117,-9
63,-78,-141,7,102,-109,107,63,58,9,-117,-9
68,-78,-146,4,107,-112,107,58,58,9,-117,-9
58,-92,-151,17,104,-122,92,43,53,0,-117,-19
48,-97,-146,24,97,-122,87,39,48,0,-117,-19
39,-102,-141,31,90,-122,82,34,43,0,-117,-19
29,-107,-136,39,82,-122,78,29,39,0,-117,-19
43,-87,-131,21,87,-109,78,19,39,0,-126,-19
48,-78,-126,14,87,-102,78,19,39,0,-126,-19
53,-68,-122,7,87,-95,78,19,39,0,-126,-19
58,-58,-117,0,87,-87,78,19,39,0,-126,-19
53,-73,-126,9,90,-100,87,24,43,4,-112,-14
48,-78,-126,14,87,-102,87,29,48,9,-107,-9
43,-82,-126,19,85,-104,87,34,53,14,-102,-4
39,-87,-126,24,82,-107,87,39,58,19,-97,0
43,-73,-117,14,80,-95,87,48,68,19,-107,0
48,-68,-117,9,82,-92,87,48,68,19,-107,0
53,-63,-117,4,85,-90,87,48,68,19,-107,0
58,-58,-117,0,87,-87,87,48,68,19,-107,0
48,-58,-107,4,78,-82,87,58,68,29,-117,-4
48,-58,-107,4,78,-82,87,58,68,29,-117,-9
48,-58,-107,4,78,-82,87,58,68,29,-117,-14
48,-58,-107,4,78,-82,87,58,68,29,-117,-19
43,-63,-107,9,75,-85,87,58,68,19,-117,-9
39,-68,-107,14,73,-87,87,58,68,19,-117,-9
34,-73,-107,19,70,-90,87,58,68,19,-117,-9
29,-78,-107,24,68,-92,87,58,68,19,-117,-9
39,-82,-122,21,80,-102,87,68,68,29,-107,-9
39,-87,-126,24,82,-107,87,68,68,29,-107,-9
39,-92,-131,26,85,-112,87,68,68,29,-107,-9
39,-97,-136,29,87,-117,87,68,68,29,-107,-9
39,-87,-126,24,82,-107,92,73,78,19,-117,-19
39,-87,-126,24,82,-107,97,78,78,19,-117,-19
39,-87,-126,24,82,-107,102,82,78,19,-117,-19
39,-87,-126,24,82,-107,107,87,78,19,-117,-19
29,-102,-131,36,80,-117,97,78,68,19,-126,-29
29,-107,-136,39,82,-122,97,78,68,19,-126,-29
29,-112,-141,41,85,-126,97,78,68,19,-126,-29
29,-117,-146,43,87,-131,97,78,68,19,-126,-29
39,-112,-151,36,95,-131,112,82,78,19,-122,-14
39,-107,-146,34,92,-126,117,87,78,19,-117,-9
39,-102,-141,31,90,-122,122,92,78,19,-112,-4
39,-97,-136,29,87,-117,126,97,78,19,-107,0
39,-87,-126,24,82,-107,122,97,87,24,-117,-4
39,-87,-126,24,82,-107,117,97,87,29,-117,-9
39,-87,-126,24,82,-107,112,97,87,34,-117,-14
39,-87,-126,24,82,-107,107,97,87,39,-117,-19
39,-87,-126,24,82,-107,112,107,97,39,-112,-14
39,-87,-126,24,82,-107,117,107,97,39,-107,-9
39,-87,-126,24,82,-107,122,107,97,39,-102,-4
39,-87,-126,24,82,-107,126,107,97,39,-97,0
43,-78,-122,17,82,-100,122,97,87,29,-112,-14
48,-78,-126,14,87,-102,117,97,87,29,-117,-19
53,-78,-131,12,92,-104,112,97,87,29,-122,-24
58,-78,-136,9,97,-107,107,97,87,29,-126,-29
58,-82,-141,12,100,-112,112,107,82,24,-126,-29
58,-87,-146,14,102,-117,117,107,78,19,-126,-29
58,-92,-151,17,104,-122,122,107,73,14,-126,-29
58,-97,-156,19,107,-126,126,107,68,9,-126,-29
43,-97,-141,26,92,-119,126,107,78,24,-126,-29
39,-97,-136,29,87,-117,126,107,78,29,-126,-29
34,-97,-131,31,82,-114,126,107,78,34,-126,-29
29,-97,-126,34,78,-112,126,107,78,39,-126,-29
34,-97,-131,31,82,-114,117,92,63,24,-126,-29
39,-97,-136,29,87,-117,117,87,58,19,-126,-29
43,-97,-141,26,92,-119,117,82,53,14,-126,-29
48,-97,-146,24,97,-122,117,78,48,9,-126,-29
39,-102,-141,31,90,-122,117,73,43,-4,-131,-39
29,-107,-136,39,82,-122,117,68,39,-9,-136,-39
19,-112,-131,46,75,-122,117,63,34,-14,-141,-39
9,-117,-126,53,68,-122,117,58,29,-19,-146,-39
9,-126,-136,58,73,-131,107,58,39,-14,-136,-29
9,-126,-136,58,73,-131,107,58,39,-9,-136,-29
9,-126,-136,58,73,-131,107,58,39,-4,-136,-29
9,-126,-136,58,73,-131,107,58,39,0,-136,-29
9,-112,-122,51,65,-117,107,58,29,-9,-146,-39
9,-107,-117,48,63,-112,107,58,29,-9,-146,-39
9,-102,-112,46,61,-107,107,58,29,-9,-146,-39
9,-97,-107,43,58,-102,107,58,29,-9,-146,-39
19,-102,-122,41,70,-112,97,48,39,-9,-146,-48
19,-107,-126,43,73,-117,97,48,39,-9,-146,-48
19,-112,-131,46,75,-122,97,48,39,-9,-146,-48
19,-117,-136,48,78,-126,97,48,39,-9,-146,-48
19,-112,-131,46,75,-122,107,48,39,0,-136,-43
19,-107,-126,43,73,-117,107,48,39,0,-136,-39
19,-102,-122,41,70,-112,107,48,39,0,-136,-34
19,-97,-117,39,68,-107,107,48,39,0,-136,-29
29,-87,-117,29,73,-102,107,39,39,0,-136,-39
29,-87,-117,29,73,-102,107,39,39,0,-136,-39
29,-87,-117,29,73,-102,107,39,39,0,-136,-39
29,-87,-117,29,73,-102,107,39,39,0,-136,-39
24,-92,-117,34,70,-104,97,39,39,0,-136,-48
19,-97,-117,39,68,-107,97,39,39,0,-136,-48
14,-102,-117,43,65,-109,97,39,39,0,-136,-48
9,-107,-117,48,63,-112,97,39,39,0,-136,-48
19,-102,-122,41,70,-112,107,43,43,9,-136,-48
19,-97,-117,39,68,-107,107,48,48,9,-136,-48
19,-92,-112,36,65,-102,107,53,53,9,-136,-48
19,-87,-107,34,63,-97,107,58,58,9,-136,-48
24,-102,-126,39,75,-114,107,58,53,-4,-146,-43
29,-107,-136,39,82,-122,107,58,48,-9,-146,-39
34,-112,-146,39,90,-129,107,58,43,-14,-146,-34
39,-117,-156,39,97,-136,107,58,39,-19,-146,-29
24,-112,-136,43,80,-124,107,68,53,0,-141,-39
19,-107,-126,43,73,-117,107,68,58,9,-136,-39
14,-102,-117,43,65,-109,107,68,63,19,-131,-39
9,-97,-107,43,58,-102,107,68,68,29,-126,-39
19,-87,-107,34,63,-97,97,68,63,14,-136,-39
29,-87,-117,29,73,-102,97,68,58,9,-136,-39
39,-87,-126,24,82,-107,97,68,53,4,-136,-39
48,-87,-136,19,92,-112,97,68,48,0,-136,-39
29,-92,-122,31,75,-107,97,68,53,4,-126,-39
19,-97,-117,39,68,-107,97,68,58,9,-126,-39
9,-102,-112,46,61,-107,97,68,63,14,-126,-39
0,-107,-107,53,53,-107,97,68,68,19,-126,-39
9,-107,-117,48,63,-112,97,78,63,9,-126,-34
19,-107,-126,43,73,-117,97,78,58,9,-126,-29
29,-107,-136,39,82,-122,97,78,53,9,-126,-24
39,-107,-146,34,92,-126,97,78,48,9,-126,-19
34,-97,-131,31,82,-114,87,68,58,9,-126,-24
29,-97,-126,34,78,-112,87,68,58,9,-126,-29
24,-97,-122,36,73,-109,87,68,58,9,-126,-34
19,-97,-117,39,68,-107,87,68,58,9,-126,-39
34,-92,-126,29,80,-109,92,78,58,9,-131,-48
39,-87,-126,24,82,-107,97,78,58,9,-136,-48
43,-82,-126,19,85,-104,102,78,58,9,-141,-48
48,-78,-126,14,87,-102,107,78,58,9,-146,-48
39,-97,-136,29,87,-117,92,63,53,0,-136,-39
29,-107,-136,39,82,-122,87,58,48,0,-136,-39
19,-117,-136,48,78,-126,82,53,43,0,-136,-39
9,-126,-136,58,73,-131,78,48,39,0,-136,-39
19,-112,-131,46,75,-122,92,63,53,4,-126,-39
29,-107,-136,39,82,-122,97,68,58,9,-126,-39
39,-102,-141,31,90,-122,102,73,63,14,-126,-39
48,-97,-146,24,97,-122,107,78,68,19,-126,-39
39,-107,-146,34,92,-126,97,68,58,19,-117,-29
39,-107,-146,34,92,-126,97,68,58,19,-117,-29
39,-107,-146,34,92,-126,97,68,58,19,-117,-29
39,-107,-146,34,92,-126,97,68,58,19,-117,-29
29,-117,-146,43,87,-131,97,68,48,9,-126,-39
29,-117,-146,43,87,-131,97,68,48,9,-126,-39
29,-126,-156,48,92,-141,97,68,48,9,-131,-39
29,-112,-141,41,85,-126,97,68,48,9,-131,-39
39,-97,-136,29,87,-117,97,53,58,19,-131,-29
39,-107,-146,34,92,-126,92,53,58,14,-131,-29
24,-117,-141,46,82,-129,92,53,53,9,-131,-34
34,-117,-151,41,92,-134,92,53,53,9,-131,-34
43,-112,-156,34,100,-134,92,63,53,4,-122,-19
43,-112,-156,34,100,-134,97,63,53,4,-122,-19
34,-131,-165,48,100,-148,97,63,53,4,-122,-19
34,-131,-165,48,100,-148,102,63,53,4,-122,-19
29,-117,-146,43,87,-131,102,63,63,9,-122,-24
24,-117,-141,46,82,-129,97,58,63,14,-122,-29
19,-112,-131,46,75,-122,97,58,63,19,-117,-34
19,-112,-131,46,75,-122,102,58,63,24,-117,-39
29,-102,-131,36,80,-117,107,68,63,24,-112,-29
29,-102,-131,36,80,-117,107,73,63,24,-112,-29
29,-117,-146,43,87,-131,102,73,58,19,-122,-29
29,-117,-146,43,87,-131,117,78,58,9,-122,-34
19,-112,-131,46,75,-122,117,78,53,14,-126,-39
14,-112,-126,48,70,-119,107,78,53,9,-131,-43
14,-102,-117,43,65,-109,107,73,53,4,-136,-48
19,-102,-122,41,70,-112,107,63,53,0,-141,-58
24,-102,-126,39,75,-114,112,78,58,0,-131,-48
29,-97,-126,34,78,-112,112,87,63,4,-136,-48
29,-102,-131,36,80,-117,112,92,68,9,-136,-48
34,-97,-131,31,82,-114,112,97,68,14,-136,-48
24,-97,-122,36,73,-109,112,92,63,4,-131,-43
19,-102,-122,41,70,-112,112,92,63,4,-126,-43
14,-102,-117,43,65,-109,112,87,58,4,-126,-43
9,-107,-117,48,63,-112,112,87,53,4,-131,-43
14,-112,-126,48,70,-119,112,82,53,-4,-131,-43
9,-112,-122,51,65,-117,107,82,53,-4,-131,-43
29,-107,-136,39,82,-122,107,82,48,-4,-136,-48
39,-107,-146,34,92,-126,107,82,48,-9,-136,-48
29,-92,-122,31,75,-107,112,78,48,-4,-136,-48
29,-102,-131,36,80,-117,112,73,48,0,-136,-53
19,-107,-126,43,73,-117,112,68,48,4,-136,-53
19,-107,-126,43,73,-117,112,63,48,9,-136,-48
34,-87,-122,26,78,-104,107,58,48,4,-136,-48
34,-87,-122,26,78,-104,102,58,48,0,-136,-48
34,-92,-126,29,80,-109,97,58,48,-4,-136,-48
34,-107,-141,36,87,-124,92,58,48,-4,-131,-48
19,-97,-117,39,68,-107,107,58,53,9,-136,-48
24,-92,-117,34,70,-104,117,58,53,9,-136,-48
19,-107,-126,43,73,-117,107,53,53,4,-141,-53
24,-112,-136,43,80,-124,107,53,53,4,-141,-63
24,-107,-131,41,78,-119,102,63,43,-4,-151,-73
24,-107,-131,41,78,-119,97,63,43,-4,-151,-73
24,-107,-131,41,78,-119,92,63,43,-4,-151,-73
24,-112,-136,43,80,-124,87,63,43,-4,-151,-73
14,-97,-112,41,63,-104,97,63,43,-4,-146,-68
14,-87,-102,36,58,-95,107,68,48,-4,-146,-58
14,-82,-97,34,56,-90,107,68,48,-4,-141,-53
14,-73,-87,29,51,-80,107,68,53,-4,-141,-48
9,-82,-92,36,51,-87,97,63,53,-4,-131,-48
4,-92,-97,43,51,-95,92,63,48,-4,-131,-48
4,-102,-107,48,56,-104,92,68,48,-4,-131,-48
0,-112,-112,56,56,-112,87,68,48,-4,-131,-48
0,-126,-126,63,63,-126,78,63,43,-14,-141,-39
9,-122,-131,56,70,-126,92,63,39,-14,-141,-39
9,-136,-146,63,78,-141,82,58,34,-14,-141,-39
4,-146,-151,70,78,-148,82,43,29,-14,-141,-39
14,-131,-146,58,80,-139,82,34,39,-4,-131,-48
24,-117,-141,46,82,-129,82,34,39,-4,-131,-48
34,-102,-136,34,85,-119,82,34,29,-9,-136,-53
43,-87,-131,21,87,-109,82,39,29,-9,-141,-53
29,-112,-141,41,85,-126,73,34,29,-14,-146,-58
24,-107,-131,41,78,-119,73,29,24,-19,-146,-63
19,-102,-122,41,70,-112,73,24,19,-24,-151,-68
9,-126,-136,58,73,-131,68,19,14,-29,-156,-73
14,-112,-126,48,70,-119,68,19,14,-24,-151,-63
24,-107,-131,41,78,-119,68,14,14,-19,-146,-63
29,-102,-131,36,80,-117,68,14,14,-14,-146,-68
34,-92,-126,29,80,-109,68,19,14,-9,-141,-68
34,-107,-141,36,87,-124,58,19,14,-14,-141,-58
43,-112,-156,34,100,-134,58,19,9,-19,-141,-53
43,-107,-151,31,97,-129,63,19,9,-24,-136,-48
39,-102,-141,31,90,-122,63,19,9,-29,-136,-39
19,-107,-126,43,73,-117,73,19,19,-24,-146,-43
14,-107,-122,46,68,-114,73,14,14,-19,-151,-53
9,-112,-122,51,65,-117,68,14,14,-19,-151,-58
9,-112,-122,51,65,-117,68,14,14,-14,-151,-63
24,-107,-131,41,78,-119,78,29,24,-4,-146,-53
29,-107,-136,39,82,-122,82,29,29,0,-141,-48
34,-107,-141,36,87,-124,82,34,29,0,-136,-48
48,-102,-151,26,100,-126,82,34,34,0,-126,-48
19,-82,-102,31,61,-92,102,43,53,9,-136,-63
-9,-102,-92,56,41,-97,112,48,53,9,-136,-68
-19,-112,-92,65,36,-102,112,58,63,9,-131,-58
0,-102,-102,51,51,-102,102,58,68,19,-122,-58
53,-73,-126,9,90,-100,102,73,73,14,-122,-53
43,-92,-136,24,90,-114,92,73,87,48,-112,-53
24,-53,-78,14,51,-65,102,97,141,122,-48,-9
82,34,-48,-58,65,-7,102,131,224,229,107,112
131,73,-58,-102,95,7,68,126,258,322,331,312
141,117,-24,-129,82,46,48,126,331,492,644,585
170,180,9,-175,80,95,14,131,434,712,1024,922
229,278,48,-253,90,163,-29,117,512,907,1449,1293
322,414,92,-368,114,253,-48,156,600,1098,1873,1688
405,522,117,-463,143,319,-63,200,722,1307,2239,2034
497,590,92,-544,202,341,-102,200,780,1473,2547,2327
634,649,14,-641,309,331,-165,175,771,1551,2766,2596
722,649,-73,-685,397,287,-214,141,756,1581,2810,2698
751,600,-151,-675,451,224,-248,78,649,1478,2630,2620
790,546,-244,-668,517,151,-287,-14,463,1273,2332,2420
800,434,-366,-617,583,34,-322,-112,258,1010,1952,2117
732,292,-439,-512,585,-73,-317,-200,34,732,1517,1737
663,200,-463,-431,563,-131,-302,-283,-165,488,1112,1342
629,151,-478,-390,553,-163,-273,-346,-312,283,761,990
541,122,-419,-331,480,-148,-234,-419,-453,63,434,678
395,82,-312,-239,353,-114,-244,-488,-590,-200,141,405
229,82,-146,-156,187,-31,-204,-497,-668,-409,-97,161
92,92,0,-92,46,46,-92,-458,-663,-536,-273,-14
-4,68,73,-31,-39,70,-34,-419,-663,-639,-400,-112
-9,58,68,-24,-39,63,-24,-370,-663,-692,-478,-161
4,58,53,-31,-24,56,-39,-336,-605,-639,-478,-170
-9,0,9,4,-9,4,-68,-307,-546,-570,-453,-185
9,-19,-29,4,19,-24,-58,-258,-478,-507,-419,-185
39,14,-24,-26,31,-4,-19,-170,-361,-385,-346,-126
19,14,-4,-17,12,4,19,-107,-248,-278,-268,-97
9,19,9,-14,0,14,43,-78,-175,-214,-239,-102
19,9,-9,-14,14,0,48,-63,-141,-180,-229,-126
9,-4,-14,-2,12,-9,63,-43,-107,-146,-204,-112
-9,-14,-4,12,-2,-9,92,-9,-58,-97,-175,-87
14,-24,-39,4,26,-31,82,4,-39,-63,-175,-87
34,-68,-102,17,68,-85,73,4,-43,-73,-195,-97
9,-78,-87,34,48,-82,92,29,-48,-82,-190,-97
19,-78,-97,29,58,-87,102,53,0,-43,-161,-73
39,-68,-107,14,73,-87,112,58,34,-9,-126,-53
53,-63,-117,4,85,-90,117,63,48,9,-107,-39
63,-73,-136,4,100,-104,97,53,58,19,-112,-39
63,-48,-112,-7,87,-80,92,58,53,14,-112,-39
68,-48,-117,-9,92,-82,92,58,53,14,-117,-43
68,-58,-126,-4,97,-92,97,58,58,14,-122,-58
63,-63,-126,0,95,-95,97,58,58,14,-141,-63
58,-68,-126,4,92,-97,97,68,53,4,-131,-63
63,-82,-146,9,104,-114,102,68,53,4,-131,-58
58,-87,-146,14,102,-117,102,68,58,4,-117,-48
43,-92,-136,24,90,-114,97,63,63,14,-117,-39
34,-92,-126,29,80,-109,87,53,63,14,-122,-43
58,-87,-146,14,102,-117,87,53,63,14,-122,-48
58,-87,-146,14,102,-117,87,48,58,14,-126,-58
29,-107,-136,39,82,-122,87,48,53,9,-126,-68
43,-102,-146,29,95,-124,73,39,39,-4,-131,-68
63,-102,-165,19,114,-134,63,29,39,-4,-131,-68
48,-107,-156,29,102,-131,58,29,48,4,-122,-53
43,-122,-165,39,104,-143,53,19,43,9,-126,-53
48,-107,-156,29,102,-131,68,19,43,0,-117,-43
53,-92,-146,19,100,-119,73,19,43,9,-117,-43
58,-87,-146,14,102,-117,78,19,34,0,-122,-48
68,-82,-151,7,109,-117,87,24,34,0,-122,-48
58,-82,-141,12,100,-112,92,29,43,9,-112,-43
48,-92,-141,21,95,-117,92,29,43,9,-112,-43
39,-102,-141,31,90,-122,92,34,48,9,-112,-43
29,-87,-117,29,73,-102,97,34,58,19,-102,-39
34,-78,-112,21,73,-95,97,39,48,19,-112,-48
34,-82,-117,24,75,-100,92,39,43,9,-112,-48
39,-82,-122,21,80,-102,92,34,39,4,-117,-48
43,-82,-126,19,85,-104,92,34,39,4,-117,-48
43,-92,-136,24,90,-114,82,39,48,4,-107,-43
53,-92,-146,19,100,-119,82,39,43,9,-107,-43
53,-92,-146,19,100,-119,78,34,43,14,-107,-43
53,-87,-141,17,97,-114,78,34,48,29,-107,-43
43,-78,-122,17,82,-100,82,43,58,24,-107,-48
43,-78,-122,17,82,-100,87,43,58,24,-107,-48
34,-82,-117,24,75,-100,92,43,58,19,-107,-53
34,-97,-131,31,82,-114,97,34,48,14,-112,-58
48,-87,-136,19,92,-112,97,39,58,24,-102,-53
53,-87,-141,17,97,-114,97,48,58,24,-102,-48
58,-87,-146,14,102,-117,97,53,63,24,-102,-43
63,-82,-146,9,104,-114,102,58,68,24,-102,-39
58,-87,-146,14,102,-117,107,53,68,24,-97,-43
43,-92,-136,24,90,-114,92,53,68,29,-97,-34
48,-97,-146,24,97,-122,87,53,63,29,-102,-43
43,-102,-146,29,95,-124,82,53,58,24,-107,-43
48,-92,-141,21,95,-117,97,58,63,34,-92,-39
58,-78,-136,9,97,-107,102,63,68,39,-87,-39
82,-68,-151,-7,117,-109,107,68,73,43,-87,-34
92,-68,-161,-12,126,-114,102,68,78,48,-92,-29
82,-82,-165,0,124,-124,92,63,68,43,-97,-43
82,-87,-170,2,126,-129,92,63,68,39,-92,-43
53,-82,-136,14,95,-109,92,68,73,39,-92,-34
43,-87,-131,21,87,-109,92,68,73,34,-97,-34
48,-87,-136,19,92,-112,82,68,68,34,-102,-39
53,-87,-141,17,97,-114,82,68,63,29,-102,-39
63,-97,-161,17,112,-129,82,63,63,24,-107,-43
68,-97,-165,14,117,-131,82,63,63,24,-107,-43
63,-97,-161,17,112,-129,92,73,73,34,-97,-39
53,-102,-156,24,104,-129,92,78,78,43,-92,-34
48,-107,-156,29,102,-131,92,78,82,48,-82,-34
58,-112,-170,26,114,-141,92,78,87,53,-68,-34
48,-107,-156,29,102,-131,87,78,78,39,-73,-24
34,-117,-151,41,92,-134,87,78,78,34,-78,-24
53,-107,-161,26,107,-134,87,78,78,29,-82,-24
68,-107,-175,19,122,-141,87,78,78,29,-87,-24
39,-97,-136,29,87,-117,97,87,97,48,-78,-24
58,-87,-146,14,102,-117,97,92,107,63,-78,-24
68,-87,-156,9,112,-122,97,92,112,73,-78,-24
73,-78,-151,2,112,-114,97,92,117,82,-73,-14
78,-78,-156,0,117,-117,97,92,112,78,-73,-9
82,-73,-156,-4,119,-114,102,97,112,73,-73,-9
97,-63,-161,-17,129,-112,102,102,107,68,-73,-4
102,-58,-161,-21,131,-109,102,102,107,63,-78,-4
78,-68,-146,-4,112,-107,92,92,107,63,-68,-9
68,-78,-146,4,107,-112,92,92,107,73,-68,-9
82,-82,-165,0,124,-124,92,92,107,73,-68,-9
82,-82,-165,0,124,-124,92,92,117,87,-68,-4
92,-87,-180,-2,136,-134,92,82,107,78,-53,-4
102,-82,-185,-9,143,-134,78,82,107,78,-53,-4
112,-73,-185,-19,148,-129,78,82,112,82,-48,4
112,-58,-170,-26,141,-114,78,82,117,92,-48,9
112,-58,-170,-26,141,-114,87,78,107,97,-43,19
117,-58,-175,-29,146,-117,92,78,117,102,-34,29
117,-58,-175,-29,146,-117,92,78,126,107,-19,34
112,-58,-170,-26,141,-114,92,78,131,122,-14,34
102,-58,-161,-21,131,-109,82,73,126,117,-19,29
97,-58,-156,-19,126,-107,82,73,122,102,-24,29
102,-39,-141,-31,122,-90,82,73,117,112,-19,34
97,-39,-136,-29,117,-87,82,68,112,107,-24,39
107,-48,-156,-29,131,-102,82,63,122,122,-24,34
112,-39,-151,-36,131,-95,82,63,131,126,-14,39
112,-39,-151,-36,131,-95,78,63,131,136,-9,34
112,-53,-165,-29,139,-109,68,63,126,136,-9,29
126,-39,-165,-43,146,-102,73,53,117,126,-9,43
131,-34,-165,-48,148,-100,73,53,126,131,0,53
141,-24,-165,-58,153,-95,73,53,131,141,4,63
170,-4,-175,-82,173,-90,73,58,136,146,14,63
165,-24,-190,-70,178,-107,63,48,126,146,14,63
146,-29,-175,-58,161,-102,58,48,126,146,14,63
141,-29,-170,-56,156,-100,58,48,126,151,19,73
136,-29,-165,-53,151,-97,58,48,126,151,19,73
126,-39,-165,-43,146,-102,48,39,117,141,4,58
131,-43,-175,-43,153,-109,43,34,126,151,4,58
131,-48,-180,-41,156,-114,43,34,126,156,4,63
131,-39,-170,-46,151,-104,43,43,131,161,4,58
126,-48,-175,-39,151,-112,34,53,141,170,9,63
136,-48,-185,-43,161,-117,34,53,141,170,14,73
146,-43,-190,-51,168,-117,39,53,141,170,19,78
151,-43,-195,-53,173,-119,39,53,141,175,29,87
156,-29,-185,-63,170,-107,34,58,151,190,39,102
161,-24,-185,-68,173,-104,39,63,156,200,43,107
161,-24,-185,-68,173,-104,43,63,156,204,43,107
156,-19,-175,-68,165,-97,34,68,161,209,43,112
151,-19,-170,-65,161,-95,43,78,165,204,34,102
151,-14,-165,-68,158,-90,43,78,170,214,39,107
151,-14,-165,-68,158,-90,43,82,180,209,43,112
156,-19,-175,-68,165,-97,39,82,185,195,43,112
165,-14,-180,-75,173,-97,43,78,195,209,53,112
165,0,-165,-82,165,-82,43,82,195,214,53,112
165,4,-161,-85,163,-78,43,87,195,219,53,112
156,9,-146,-82,151,-68,43,92,195,224,53,112
165,14,-151,-90,158,-68,39,92,185,214,58,107
170,4,-165,-87,168,-80,34,92,185,214,58,107
185,4,-180,-95,183,-87,34,92,185,214,53,117
190,19,-170,-104,180,-75,29,92,185,214,48,117
185,9,-175,-97,180,-82,29,102,195,214,48,126
175,9,-165,-92,170,-78,34,102,195,214,48,126
190,24,-165,-107,178,-70,48,102,200,214,53,136
195,34,-161,-114,178,-63,53,102,200,214,53,136
180,4,-175,-92,178,-85,48,102,195,209,53,126
180,0,-180,-90,180,-90,48,97,190,200,48,126
180,-9,-190,-85,185,-100,48,97,190,200,48,126
180,0,-180,-90,180,-90,58,102,190,200,48,126
180,4,-175,-92,178,-85,58,112,180,195,58,136
170,9,-161,-90,165,-75,58,102,175,190,58,126
170,14,-156,-92,163,-70,58,102,175,195,58,117
161,19,-141,-90,151,-61,58,102,175,195,63,112
156,4,-151,-80,153,-73,68,102,165,180,58,107
170,9,-161,-90,165,-75,68,102,161,170,48,107
185,4,-180,-95,183,-87,68,92,156,156,34,97
170,-19,-190,-75,180,-104,68,87,151,146,29,87
141,-43,-185,-48,163,-114,73,97,156,151,24,97
131,-34,-165,-48,148,-100,73,97,151,156,29,102
122,-34,-156,-43,139,-95,82,97,156,146,34,102
92,-48,-141,-21,117,-95,73,82,141,136,29,92
82,-43,-126,-19,104,-85,73,82,141,141,19,87
112,0,-112,-56,112,-56,82,102,141,141,29,82
112,-4,-117,-53,114,-61,82,102,136,126,19,68
87,-29,-117,-29,102,-73,87,92,126,122,0,58
97,-29,-126,-34,112,-78,92,92,126,117,0,68
97,-29,-126,-34,112,-78,92,92,126,107,0,63
87,-39,-126,-24,107,-82,92,92,122,97,-4,53
78,-43,-122,-17,100,-82,97,92,122,87,-4,48
68,-39,-107,-14,87,-73,87,87,107,78,-29,34
53,-39,-92,-7,73,-65,87,87,107,68,-29,34
63,-34,-97,-14,80,-65,87,82,102,63,-34,29
78,-34,-112,-21,95,-73,87,73,87,58,-43,24
73,-43,-117,-14,95,-80,82,53,82,48,-39,9
53,-53,-107,0,80,-80,82,48,82,48,-43,9
48,-58,-107,4,78,-82,78,43,78,48,-43,9
43,-68,-112,12,78,-90,63,34,63,48,-58,-4
43,-58,-102,7,73,-80,73,24,53,43,-63,-9
39,-53,-92,7,65,-73,78,24,53,39,-63,-9
39,-53,-92,7,65,-73,82,24,53,24,-63,-9
24,-68,-92,21,58,-80,82,29,48,19,-68,-9
29,-73,-102,21,65,-87,78,14,48,19,-73,-14
39,-73,-112,17,75,-92,73,9,39,19,-78,-14
58,-53,-112,-2,85,-82,68,4,39,14,-78,-19
73,-43,-117,-14,95,-80,63,0,39,14,-82,-29
43,-48,-92,2,68,-70,63,4,39,14,-92,-39
39,-58,-97,9,68,-78,68,0,39,9,-92,-48
39,-43,-82,2,61,-63,73,0,39,4,-97,-48
58,-39,-97,-9,78,-68,78,9,34,0,-97,-53
68,-43,-112,-12,90,-78,82,9,29,-14,-97,-39
53,-63,-117,4,85,-90,82,4,19,-14,-102,-34
43,-78,-122,17,82,-100,82,-4,9,-19,-102,-34
43,-82,-126,19,85,-104,82,-9,4,-19,-107,-29
34,-87,-122,26,78,-104,63,-19,0,-29,-117,-34
29,-87,-117,29,73,-102,63,-19,-4,-34,-122,-39
29,-78,-107,24,68,-92,68,-19,-9,-39,-122,-43
29,-78,-107,24,68,-92,68,-14,-9,-34,-117,-48
29,-87,-117,29,73,-102,82,0,4,-29,-117,-48
29,-78,-107,24,68,-92,82,0,0,-24,-117,-48
29,-78,-107,24,68,-92,82,0,4,-19,-112,-48
0,-92,-92,46,46,-92,82,-4,9,-14,-112,-48
4,-82,-87,39,46,-85,68,-14,4,-19,-117,-53
24,-68,-92,21,58,-80,63,-14,4,-24,-117,-53
34,-68,-102,17,68,-85,58,-14,0,-29,-117,-53
39,-73,-112,17,75,-92,53,-14,-4,-39,-117,-53
39,-92,-131,26,85,-112,63,-14,9,-34,-117,-63
34,-92,-126,29,80,-109,63,-9,14,-24,-112,-58
24,-82,-107,29,65,-95,63,-4,19,-14,-107,-53
19,-82,-102,31,61,-92,63,4,29,-9,-102,-48
43,-63,-107,9,75,-85,68,4,29,-9,-107,-58
48,-58,-107,4,78,-82,68,9,24,-4,-97,-48
53,-63,-117,4,85,-90,63,9,24,-4,-92,-43
58,-48,-107,-4,82,-78,63,14,19,0,-82,-39
63,-63,-126,0,95,-95,63,14,34,14,-78,-34
63,-82,-146,9,104,-114,58,14,34,14,-78,-29
48,-92,-141,21,95,-117,53,9,29,9,-82,-29
39,-97,-136,29,87,-117,48,9,29,9,-82,-24
58,-68,-126,4,92,-97,58,24,39,14,-78,-24
73,-63,-136,-4,104,-100,58,39,48,24,-68,-14
39,-73,-112,17,75,-92,58,43,48,24,-58,-9
34,-58,-92,12,63,-75,63,53,53,24,-48,-9
34,-58,-92,12,63,-75,63,53,63,29,-53,-14
39,-63,-102,12,70,-82,53,53,48,29,-53,-14
39,-73,-112,17,75,-92,53,48,48,29,-53,-19
29,-82,-112,26,70,-97,53,48,53,34,-53,-24
-4,-122,-117,63,56,-119,43,29,39,14,-78,-39
24,-87,-112,31,68,-100,53,39,48,24,-63,-19
78,-58,-136,-9,107,-97,53,48,58,39,-43,4
112,-34,-146,-39,129,-90,73,58,63,39,-19,29
78,-58,-136,-9,107,-97,78,68,58,39,-19,29
68,-68,-136,0,102,-102,87,68,63,43,-9,29
58,-68,-126,4,92,-97,87,68,68,48,-9,29
48,-68,-117,9,82,-92,87,68,73,53,-9,29
39,-68,-107,14,73,-87,87,68,78,58,-9,29
39,-78,-117,19,78,-97,87,73,87,68,-9,29
39,-63,-102,12,70,-82,87,78,87,68,-4,29
48,-48,-97,0,73,-73,87,78,87,68,0,29
48,-58,-107,4,78,-82,82,82,87,63,4,29
24,-78,-102,26,63,-90,82,73,82,58,-4,14
34,-78,-112,21,73,-95,82,73,82,58,-4,14
34,-63,-97,14,65,-80,82,73,82,63,-4,19
34,-63,-97,14,65,-80,87,73,82,63,-4,19
39,-78,-117,19,78,-97,87,82,92,73,4,24
43,-73,-117,14,80,-95,92,82,92,73,4,29
48,-63,-112,7,80,-87,92,82,92,73,4,34
53,-58,-112,2,82,-85,87,78,92,73,4,39
43,-63,-107,9,75,-85,78,78,92,73,0,29
48,-63,-112,7,80,-87,82,78,92,73,0,29
48,-63,-112,7,80,-87,82,82,92,73,-4,29
48,-63,-112,7,80,-87,78,82,92,73,-4,29
34,-82,-117,24,75,-100,68,63,82,68,-4,19
29,-87,-117,29,73,-102,78,58,78,58,-4,14
24,-78,-102,26,63,-90,87,58,78,68,-4,14
14,-82,-97,34,56,-90,78,58,73,68,-4,14
24,-78,-102,26,63,-90,78,53,68,63,-14,24
29,-82,-112,26,70,-97,78,43,63,58,-14,19
29,-92,-122,31,75,-107,73,39,58,48,-14,19
29,-97,-126,34,78,-112,73,39,53,43,-19,19
34,-102,-136,34,85,-119,73,39,53,34,-9,19
34,-97,-131,31,82,-114,73,39,48,34,-9,19
39,-87,-126,24,82,-107,73,43,48,34,-4,24
39,-82,-122,21,80,-102,73,43,53,34,0,24
34,-82,-117,24,75,-100,82,43,63,43,-4,14
29,-87,-117,29,73,-102,82,48,63,43,-14,14
24,-97,-122,36,73,-109,82,48,63,43,-19,14
9,-102,-112,46,61,-107,78,53,63,43,-24,14
34,-87,-122,26,78,-104,68,53,58,43,-19,19
39,-87,-126,24,82,-107,68,53,58,39,-19,19
39,-73,-112,17,75,-92,73,53,58,39,-19,19
39,-82,-122,21,80,-102,73,53,58,39,-19,14
24,-97,-122,36,73,-109,73,43,48,24,-24,9
19,-97,-117,39,68,-107,73,43,48,19,-29,9
19,-87,-107,34,63,-97,73,48,48,14,-34,4
14,-87,-102,36,58,-95,73,48,48,9,-39,0
29,-82,-112,26,70,-97,73,48,39,9,-39,0
34,-97,-131,31,82,-114,73,48,39,14,-34,0
29,-82,-112,26,70,-97,78,58,43,19,-29,9
43,-73,-117,14,80,-95,87,58,43,19,-29,9
39,-92,-131,26,85,-112,68,43,34,14,-43,-4
43,-92,-136,24,90,-114,68,43,34,14,-43,-14
29,-97,-126,34,78,-112,68,43,34,14,-43,-14
24,-97,-122,36,73,-109,68,43,34,14,-43,-14
19,-112,-131,46,75,-122,68,34,24,9,-53,-19
14,-122,-136,53,75,-129,68,34,24,4,-53,-24
9,-126,-136,58,73,-131,68,34,24,0,-58,-29
4,-126,-131,61,68,-129,78,39,29,-4,-58,-29
19,-112,-131,46,75,-122,68,48,24,-14,-53,-29
24,-102,-126,39,75,-114,68,48,24,-14,-53,-29
29,-97,-126,34,78,-112,68,43,19,-14,-53,-29
34,-92,-126,29,80,-109,63,43,9,-14,-53,-29
29,-97,-126,34,78,-112,53,39,14,-4,-53,-19
29,-102,-131,36,80,-117,48,39,19,-4,-53,-19
19,-107,-126,43,73,-117,48,39,24,-4,-53,-19
29,-102,-131,36,80,-117,63,43,29,-4,-53,-19
24,-102,-126,39,75,-114,58,48,29,-4,-63,-29
14,-107,-122,46,68,-114,63,43,29,-4,-63,-29
9,-107,-117,48,63,-112,68,48,29,-4,-63,-29
4,-107,-112,51,58,-109,73,53,29,-4,-63,-29
4,-97,-102,46,53,-100,63,43,29,0,-58,-34
4,-97,-102,46,53,-100,63,48,29,0,-63,-34
4,-107,-112,51,58,-109,63,48,34,0,-63,-34
4,-97,-102,46,53,-100,63,48,34,0,-58,-34
4,-97,-102,46,53,-100,73,58,34,-9,-68,-43
0,-117,-117,58,58,-117,68,58,34,-9,-68,-43
0,-107,-107,53,53,-107,68,58,34,-9,-68,-43
4,-107,-112,51,58,-109,68,53,34,-9,-68,-43
4,-97,-102,46,53,-100,82,63,34,-9,-63,-39
4,-92,-97,43,51,-95,87,68,34,-9,-63,-39
9,-92,-102,41,56,-97,92,68,34,-9,-63,-34
24,-92,-117,34,70,-104,97,68,29,-9,-63,-34
24,-87,-112,31,68,-100,97,58,19,-19,-63,-39
19,-82,-102,31,61,-92,92,58,19,-19,-68,-39
4,-102,-107,48,56,-104,87,48,19,-19,-73,-43
-4,-107,-102,56,48,-104,82,43,14,-19,-82,-53
-19,-117,-97,68,39,-107,68,39,4,-34,-92,-58
-19,-122,-102,70,41,-112,68,34,4,-34,-92,-63
-19,-131,-112,75,46,-122,68,34,4,-34,-92,-68
-19,-136,-117,78,48,-126,73,29,9,-29,-92,-68
-9,-126,-117,68,53,-122,82,39,19,-24,-82,-58
0,-112,-112,56,56,-112,82,43,24,-19,-78,-58
0,-102,-102,51,51,-102,82,48,24,-14,-78,-63
-9,-92,-82,51,36,-87,82,48,24,-9,-87,-68
-19,-151,-131,85,56,-141,73,39,-4,-48,-102,-97
-29,-141,-112,85,41,-126,92,48,19,-29,-92,-97
-34,-122,-87,78,26,-104,92,73,53,4,-73,-82
-53,-112,-58,82,2,-85,102,82,87,39,-34,-63
-34,-82,-48,58,7,-65,102,117,151,131,97,48
14,-24,-39,4,26,-31,73,122,214,278,331,248
82,73,-9,-78,46,31,48,126,287,439,624,497
112,165,53,-139,29,109,19,136,380,629,995,810
161,239,78,-200,41,158,-34,122,463,849,1424,1185
268,346,78,-307,95,212,-68,126,551,1063,1869,1576
370,414,43,-392,163,229,-97,156,649,1263,2244,1932
424,463,39,-444,192,251,-141,170,751,1454,2591,2269
536,570,34,-553,251,302,-161,180,800,1620,2879,2571
673,629,-43,-651,358,292,-195,175,810,1678,2971,2703
702,561,-141,-631,422,209,-253,141,727,1581,2791,2630
712,492,-219,-602,466,136,-297,78,580,1420,2503,2464
761,439,-322,-600,541,58,-307,4,424,1224,2156,2205
751,346,-405,-549,578,-29,-292,-53,258,990,1737,1834
683,214,-468,-448,575,-126,-297,-151,24,712,1283,1415
605,82,-522,-344,563,-219,-302,-273,-214,390,858,1019
531,34,-497,-283,514,-231,-283,-356,-390,126,507,688
434,53,-380,-244,407,-163,-244,-419,-522,-102,239,444
278,53,-224,-165,251,-85,-214,-478,-649,-336,4,219
73,34,-39,-53,56,-2,-185,-497,-717,-527,-204,4
-63,-4,58,34,-61,26,-141,-468,-732,-653,-351,-141
-73,9,82,31,-78,46,-92,-419,-722,-717,-429,-180
-48,19,68,14,-58,43,-82,-380,-683,-702,-429,-190
-63,-48,14,56,-39,-17,-107,-366,-614,-629,-400,-190
-68,-78,-9,73,-29,-43,-97,-307,-527,-551,-356,-185
-29,-29,0,29,-14,-14,-58,-219,-429,-448,-302,-156
-19,-4,14,12,-17,4,-48,-170,-341,-366,-248,-146
-39,-24,14,31,-26,-4,-48,-136,-268,-297,-219,-146
-19,-9,9,14,-14,0,-14,-107,-204,-224,-180,-131
0,-9,-9,4,4,-9,0,-82,-161,-170,-141,-107
-9,-43,-34,26,12,-39,4,-63,-126,-146,-117,-102
0,-92,-92,46,46,-92,4,-48,-107,-136,-117,-97
-4,-102,-97,53,46,-100,24,-24,-87,-112,-107,-87
-4,-78,-73,41,34,-75,73,34,-34,-63,-68,-48
-19,-107,-87,63,34,-97,63,48,-9,-53,-63,-48
-19,-136,-117,78,48,-126,34,34,-9,-53,-73,-63
-9,-107,-97,58,43,-102,43,58,4,-29,-58,-63
-14,-92,-78,53,31,-85,68,63,29,0,-39,-48
-14,-102,-87,58,36,-95,68,63,39,9,-34,-48
-4,-92,-87,48,41,-90,73,68,39,9,-29,-34
0,-97,-97,48,48,-97,73,68,34,4,-29,-34
0,-112,-112,56,56,-112,78,68,34,0,-29,-43
-4,-122,-117,63,56,-119,78,68,29,-4,-43,-43
-4,-117,-112,61,53,-114,78,87,34,-4,-43,-58
4,-122,-126,58,65,-124,82,87,34,-4,-43,-58
4,-117,-122,56,63,-119,82,87,39,-4,-29,-53
-4,-112,-107,58,51,-109,78,82,43,4,-29,-48
-4,-102,-97,53,46,-100,78,73,34,4,-24,-48
19,-97,-117,39,68,-107,78,73,34,4,-24,-48
19,-97,-117,39,68,-107,78,68,29,4,-29,-53
-9,-117,-107,63,48,-112,78,68,24,0,-29,-58
4,-107,-112,51,58,-109,73,58,14,-4,-39,-58
24,-102,-126,39,75,-114,63,58,19,-4,-34,-58
9,-102,-112,46,61,-107,58,68,34,4,-19,-43
4,-112,-117,53,61,-114,53,68,34,9,-19,-43
14,-112,-126,48,70,-119,63,63,24,4,-19,-43
14,-102,-117,43,65,-109,63,58,24,9,-19,-43
14,-102,-117,43,65,-109,63,53,14,-4,-24,-48
19,-102,-122,41,70,-112,68,53,14,-9,-24,-48
19,-107,-126,43,73,-117,68,48,14,-9,-24,-34
19,-122,-141,51,80,-131,63,48,14,-9,-24,-34
19,-136,-156,58,87,-146,58,53,19,-9,-24,-34
19,-126,-146,53,82,-136,58,53,29,0,-14,-29
14,-117,-131,51,73,-124,63,58,29,9,-4,-39
4,-122,-126,58,65,-124,63,58,24,0,-4,-39
0,-122,-122,61,61,-122,68,53,19,-4,-9,-39
-4,-122,-117,63,56,-119,73,53,19,-4,-9,-39
0,-126,-126,63,63,-126,73,58,29,0,-19,-43
14,-122,-136,53,75,-129,73,58,24,0,-19,-43
19,-117,-136,48,78,-126,68,53,24,0,-19,-43
24,-107,-131,41,78,-119,68,53,29,9,-19,-43
24,-97,-122,36,73,-109,78,53,29,4,-9,-39
24,-97,-122,36,73,-109,78,53,29,4,-9,-39
14,-102,-117,43,65,-109,78,53,29,0,-9,-43
14,-117,-131,51,73,-124,78,43,19,-4,-14,-48
14,-117,-131,51,73,-124,78,53,9,-9,-19,-48
14,-117,-131,51,73,-124,78,58,9,-14,-24,-48
14,-117,-131,51,73,-124,78,58,14,-19,-29,-48
14,-112,-126,48,70,-119,82,58,19,-24,-34,-48
9,-122,-131,56,70,-126,82,48,24,-14,-24,-53
-4,-122,-117,63,56,-119,73,43,19,-9,-19,-43
0,-122,-122,61,61,-122,73,39,9,-9,-19,-53
-4,-122,-117,63,56,-119,73,34,0,-14,-19,-53
4,-122,-126,58,65,-124,68,24,0,-19,-19,-43
9,-117,-126,53,68,-122,63,24,0,-19,-19,-48
29,-117,-146,43,87,-131,58,24,0,-19,-24,-48
34,-126,-161,46,97,-143,43,19,0,-19,-34,-48
24,-122,-146,48,85,-134,58,19,4,-4,-19,-39
34,-117,-151,41,92,-134,63,24,9,0,-4,-34
14,-102,-117,43,65,-109,68,34,19,9,4,-19
14,-97,-112,41,63,-104,73,39,24,14,9,-14
24,-117,-141,46,82,-129,63,39,9,9,-4,-29
24,-117,-141,46,82,-129,63,39,4,0,-4,-29
29,-126,-156,48,92,-141,63,34,4,-9,-9,-34
29,-126,-156,48,92,-141,63,34,4,-14,-9,-34
29,-131,-161,51,95,-146,53,34,14,-4,4,-19
24,-131,-156,53,90,-143,53,39,19,4,4,-14
24,-131,-156,53,90,-143,53,39,24,9,9,-14
39,-131,-170,46,104,-151,53,39,29,14,19,-14
29,-126,-156,48,92,-141,58,48,29,14,19,-24
14,-136,-151,61,82,-143,58,48,29,14,19,-24
34,-126,-161,46,97,-143,58,48,29,14,19,-24
48,-126,-175,39,112,-151,58,48,29,19,19,-24
19,-122,-141,51,80,-131,68,53,39,24,29,-19
39,-107,-146,34,92,-126,68,63,48,34,29,-14
48,-102,-151,26,100,-126,68,68,53,39,29,-9
53,-87,-141,17,97,-114,68,73,58,43,34,4
43,-107,-151,31,97,-129,58,73,68,63,48,19
43,-112,-156,34,100,-134,63,78,73,63,53,19
53,-112,-165,29,109,-139,63,82,73,63,58,24
53,-117,-170,31,112,-143,63,82,78,63,58,24
39,-112,-151,36,95,-131,63,87,87,73,63,29
29,-107,-136,39,82,-122,63,92,87,82,68,29
43,-97,-141,26,92,-119,63,97,87,82,73,29
43,-82,-126,19,85,-104,63,102,97,97,78,34
48,-92,-141,21,95,-117,63,102,97,87,92,43
63,-92,-156,14,109,-124,48,102,97,87,92,43
78,-87,-165,4,122,-126,48,102,102,92,97,53
82,-78,-161,-2,122,-119,48,102,107,102,97,58
87,-78,-165,-4,126,-122,48,102,107,117,97,48
97,-78,-175,-9,136,-126,53,107,117,122,102,58
102,-78,-180,-12,141,-129,53,112,126,126,112,63
102,-78,-180,-12,141,-129,53,117,131,141,112,63
92,-78,-170,-7,131,-124,53,117,136,146,122,73
87,-78,-165,-4,126,-122,53,122,141,141,131,78
92,-58,-151,-17,122,-104,53,126,146,161,151,87
87,-58,-146,-14,117,-102,53,126,151,165,161,97
92,-68,-161,-12,126,-114,43,112,141,161,151,87
102,-58,-161,-21,131,-109,43,112,151,165,161,97
107,-58,-165,-24,136,-112,39,112,151,175,165,97
112,-73,-185,-19,148,-129,29,112,146,175,165,97
107,-73,-180,-17,143,-126,24,102,141,175,175,107
102,-73,-175,-14,139,-124,24,102,146,180,185,122
102,-68,-170,-17,136,-119,24,102,146,190,190,136
122,-53,-175,-34,148,-114,24,107,146,195,200,141
136,-53,-190,-41,163,-122,14,97,136,195,200,151
126,-58,-185,-34,156,-122,9,97,136,195,200,151
131,-58,-190,-36,161,-124,9,97,136,200,204,161
136,-58,-195,-39,165,-126,9,97,136,200,204,161
131,-53,-185,-39,158,-119,19,107,146,200,204,151
131,-53,-185,-39,158,-119,14,102,156,209,209,156
126,-53,-180,-36,153,-117,14,102,156,214,214,165
122,-39,-161,-41,141,-100,14,112,161,219,219,165
122,-43,-165,-39,143,-104,14,102,151,209,214,156
136,-48,-185,-43,161,-117,14,102,151,209,209,161
151,-48,-200,-51,175,-124,19,102,151,209,204,161
161,-53,-214,-53,187,-134,19,102,151,214,204,165
146,-48,-195,-48,170,-122,19,102,165,224,219,175
141,-43,-185,-48,163,-114,19,102,165,229,219,175
131,-43,-175,-43,153,-109,19,97,161,229,214,170
117,-39,-156,-39,136,-97,4,97,161,229,209,170
117,-43,-161,-36,139,-102,0,82,146,219,200,161
122,-43,-165,-39,143,-104,-4,78,141,224,204,165
126,-48,-175,-39,151,-112,-9,78,141,214,209,170
136,-58,-195,-39,165,-126,-19,73,136,195,209,170
141,-58,-200,-41,170,-129,-19,58,131,185,200,161
136,-48,-185,-43,161,-117,-14,53,126,185,200,161
131,-48,-180,-41,156,-114,-9,48,122,185,200,161
117,-48,-165,-34,141,-107,-4,43,117,185,200,161
131,-29,-161,-51,146,-95,-14,43,126,185,204,156
141,-34,-175,-53,158,-104,-14,43,126,185,204,156
161,-29,-190,-65,175,-109,-9,43,126,185,200,165
170,-9,-180,-80,175,-95,-9,43,126,185,195,165
141,-39,-180,-51,161,-109,-24,34,112,180,185,156
107,-48,-156,-29,131,-102,-24,34,107,175,185,156
97,-43,-141,-26,119,-92,-14,34,107,170,190,165
78,-43,-122,-17,100,-82,-14,34,102,165,190,165
82,-53,-136,-14,109,-95,-9,43,107,161,180,156
92,-48,-141,-21,117,-95,-9,39,102,151,175,156
102,-48,-151,-26,126,-100,-9,39,102,151,175,156
112,-29,-141,-41,126,-85,0,43,102,151,175,156
92,-39,-131,-26,112,-85,9,48,102,141,170,151
82,-39,-122,-21,102,-80,9,43,97,131,165,136
82,-39,-122,-21,102,-80,9,48,97,131,161,122
73,-39,-112,-17,92,-75,9,53,97,126,161,112
48,-39,-87,-4,68,-63,24,68,92,126,151,107
63,-29,-92,-17,78,-61,29,73,92,122,146,107
78,-29,-107,-24,92,-68,34,68,92,112,136,97
63,-48,-112,-7,87,-80,39,68,92,107,136,87
53,-73,-126,9,90,-100,43,78,102,97,117,82
53,-63,-117,4,85,-90,43,78,92,97,117,82
53,-63,-117,4,85,-90,53,78,92,82,117,78
34,-78,-112,21,73,-95,43,63,73,68,107,63
29,-82,-112,26,70,-97,43,63,73,63,92,58
53,-48,-102,-2,78,-75,53,82,73,63,97,53
48,-63,-112,7,80,-87,53,82,68,48,82,39
19,-97,-117,39,68,-107,58,73,58,43,58,29
24,-78,-102,26,63,-90,63,82,68,53,58,29
29,-78,-107,24,68,-92,63,82,68,48,58,24
24,-87,-112,31,68,-100,63,82,63,43,53,14
19,-92,-112,36,65,-102,68,82,63,39,53,9
9,-97,-107,43,58,-102,68,82,63,48,48,4
-4,-97,-92,51,43,-95,68,87,68,39,48,4
4,-92,-97,43,51,-95,68,87,68,34,43,0
19,-92,-112,36,65,-102,68,82,58,29,34,-4
29,-92,-122,31,75,-107,78,82,68,29,39,0
14,-92,-107,39,61,-100,82,87,73,29,34,0
14,-87,-102,36,58,-95,82,92,73,29,34,0
14,-87,-102,36,58,-95,73,92,63,29,19,-14
14,-97,-112,41,63,-104,73,102,63,39,24,-9
9,-92,-102,41,56,-97,78,102,63,39,24,-9
9,-92,-102,41,56,-97,82,102,63,29,24,-9
-4,-107,-102,56,48,-104,82,107,58,29,19,-9
-4,-107,-102,56,48,-104,73,97,63,29,19,-9
0,-102,-102,51,51,-102,73,97,58,29,19,-4
14,-78,-92,31,53,-85,73,97,63,24,24,-4
24,-63,-87,19,56,-75,73,97,68,24,24,-9
-4,-92,-87,48,41,-90,63,87,63,24,14,-9
-9,-107,-97,58,43,-102,58,78,58,19,14,-19
-9,-97,-87,53,39,-92,53,73,53,14,9,-19
9,-97,-107,43,58,-102,48,78,43,9,9,-24
19,-92,-112,36,65,-102,53,68,43,4,9,-24
4,-102,-107,48,56,-104,53,63,39,4,4,-24
-4,-107,-102,56,48,-104,53,53,34,0,4,-29
-4,-102,-97,53,46,-100,53,48,34,0,0,-29
-14,-117,-102,65,43,-109,43,48,29,-9,0,-29
-19,-117,-97,68,39,-107,43,48,24,-14,-4,-29
-19,-107,-87,63,34,-97,48,48,19,-19,-4,-29
-19,-107,-87,63,34,-97,48,53,19,-14,0,-29
0,-107,-107,53,53,-107,63,53,19,-24,-9,-39
9,-87,-97,39,53,-92,63,48,9,-24,-9,-39
19,-78,-97,29,58,-87,63,43,9,-24,-4,-39
0,-82,-82,41,41,-82,63,34,9,-24,-4,-39
-9,-97,-87,53,39,-92,63,43,9,-24,-9,-43
-4,-87,-82,46,39,-85,63,43,14,-24,-9,-43
-9,-92,-82,51,36,-87,63,43,14,-24,-9,-43
-19,-102,-82,61,31,-92,63,43,14,-29,-9,-43
-14,-122,-107,68,46,-114,63,29,9,-39,-14,-48
-14,-122,-107,68,46,-114,63,29,4,-34,-14,-48
-19,-112,-92,65,36,-102,63,29,0,-29,-14,-48
-19,-112,-92,65,36,-102,63,34,0,-29,-14,-48
-14,-97,-82,56,34,-90,73,29,-4,-39,-19,-58
-19,-97,-78,58,29,-87,78,29,-4,-34,-9,-48
-24,-107,-82,65,29,-95,78,24,0,-34,-4,-43
-29,-97,-68,63,19,-82,82,24,0,-29,4,-39
-24,-107,-82,65,29,-95,73,9,-9,-29,4,-48
-24,-122,-97,73,36,-109,68,4,-14,-34,0,-48
-39,-126,-87,82,24,-107,63,-4,-24,-43,-9,-53
-48,-126,-78,87,14,-102,58,-9,-29,-48,-14,-53
-34,-107,-73,70,19,-90,48,-9,-29,-43,-4,-48
-14,-112,-97,63,41,-104,48,0,-19,-34,0,-34
-43,-131,-87,87,21,-109,48,0,-19,-34,4,-24
-43,-126,-82,85,19,-104,53,4,-14,-34,9,-19
-24,-107,-82,65,29,-95,43,-4,-4,-19,14,-9
-19,-102,-82,61,31,-92,34,-4,-19,-19,24,-4
-19,-102,-82,61,31,-92,34,-9,-19,-19,34,-4
-29,-102,-73,65,21,-87,34,-9,-14,-14,43,-4
-39,-102,-63,70,12,-82,34,-4,0,-4,48,0
-24,-97,-73,61,24,-85,34,0,0,-4,53,0
-14,-97,-82,56,34,-90,34,4,0,0,53,4
4,-92,-97,43,51,-95,34,19,4,0,58,19
-9,-97,-87,53,39,-92,34,19,4,0,53,9
-19,-117,-97,68,39,-107,34,19,4,4,53,9
-24,-112,-87,68,31,-100,34,19,4,4,68,9
-19,-112,-92,65,36,-102,34,19,4,4,68,9
-9,-102,-92,56,41,-97,43,29,4,9,68,14
-24,-102,-78,63,26,-90,43,29,14,9,68,19
-24,-102,-78,63,26,-90,39,29,14,9,68,24
-29,-97,-68,63,19,-82,39,29,14,9,68,19
-14,-82,-68,48,26,-75,43,34,19,34,82,29
4,-82,-87,39,46,-85,43,39,24,24,82,24
0,-92,-92,46,46,-92,39,39,19,19,78,19
4,-97,-102,46,53,-100,39,43,24,19,78,14
-4,-112,-107,58,51,-109,43,53,24,19,78,19
-9,-112,-102,61,46,-107,43,58,29,19,78,24
-19,-117,-97,68,39,-107,43,58,29,24,78,29
-19,-122,-102,70,41,-112,43,58,29,29,82,34
-14,-92,-78,53,31,-85,48,63,43,39,97,34
-4,-102,-97,53,46,-100,48,63,43,39,97,34
4,-102,-107,48,56,-104,48,63,43,34,92,34
19,-102,-122,41,70,-112,48,63,39,34,92,34
9,-97,-107,43,58,-102,58,73,39,24,92,34
0,-97,-97,48,48,-97,58,78,43,29,92,34
-4,-97,-92,51,43,-95,58,78,43,29,92,34
-4,-102,-97,53,46,-100,53,68,39,24,82,34
9,-102,-112,46,61,-107,63,78,48,29,92,29
14,-97,-112,41,63,-104,63,78,48,24,92,34
24,-87,-112,31,68,-100,58,78,48,29,92,34
34,-78,-112,21,73,-95,58,78,43,29,87,29
9,-87,-97,39,53,-92,63,82,43,29,97,39
-9,-92,-82,51,36,-87,63,87,48,34,97,34
14,-73,-87,29,51,-80,68,92,53,34,97,34
24,-87,-112,31,68,-100,68,92,58,24,92,34
0,-107,-107,53,53,-107,58,82,48,34,92,24
-9,-87,-78,48,34,-82,58,87,53,39,92,24
9,-87,-97,39,53,-92,58,87,53,39,92,24
0,-102,-102,51,51,-102,53,78,43,29,78,19
4,-92,-97,43,51,-95,53,78,39,24,78,24
9,-92,-102,41,56,-97,58,82,43,24,82,24
24,-78,-102,26,63,-90,63,87,58,34,92,29
39,-78,-117,19,78,-97,63,87,63,34,92,29
29,-82,-112,26,70,-97,63,92,63,29,87,19
24,-78,-102,26,63,-90,63,92,63,34,92,19
24,-73,-97,24,61,-85,63,87,63,24,87,19
4,-87,-92,41,48,-90,63,78,48,29,82,19
14,-87,-102,36,58,-95,58,82,39,19,82,24
29,-68,-97,19,63,-82,58,78,43,34,82,24
14,-82,-97,34,56,-90,53,68,43,24,78,14
4,-92,-97,43,51,-95,48,63,34,19,78,9
9,-82,-92,36,51,-87,48,53,24,19,87,9
9,-82,-92,36,51,-87,48,58,24,19,87,24
9,-82,-92,36,51,-87,48,58,24,14,82,14
9,-87,-97,39,53,-92,43,53,19,14,78,4
4,-87,-92,41,48,-90,43,58,9,9,68,4
4,-87,-92,41,48,-90,48,58,14,4,68,0
4,-92,-97,43,51,-95,48,58,14,4,58,0
0,-102,-102,51,51,-102,48,58,14,4,48,0
9,-107,-117,48,63,-112,53,43,14,4,48,-9
-9,-112,-102,61,46,-107,53,43,9,-9,48,-9
-29,-117,-87,73,29,-102,53,43,9,-24,48,-9
-9,-92,-82,51,36,-87,53,39,9,-9,53,-9
-9,-102,-92,56,41,-97,43,34,-4,-19,43,-19
-9,-107,-97,58,43,-102,43,29,-9,-29,39,-19
-9,-102,-92,56,41,-97,43,24,-14,-29,34,-24
-9,-102,-92,56,41,-97,39,19,-14,-19,34,-24
0,-92,-92,46,46,-92,48,29,-14,-19,29,-19
0,-92,-92,46,46,-92,48,29,-14,-19,29,-24
0,-87,-87,43,43,-87,58,34,-14,-19,34,-24
9,-87,-97,39,53,-92,58,34,-14,-19,39,-24
0,-92,-92,46,46,-92,48,34,-19,-39,29,-34
-9,-102,-92,56,41,-97,48,34,-19,-39,24,-34
-14,-117,-102,65,43,-109,48,34,-14,-39,24,-29
-14,-122,-107,68,46,-114,48,34,-14,-34,24,-29
-14,-122,-107,68,46,-114,53,43,-9,-29,34,-24
-19,-122,-102,70,41,-112,58,43,-4,-24,34,-24
-34,-122,-87,78,26,-104,68,43,0,-19,39,-24
-39,-117,-78,78,19,-97,73,43,4,-19,39,-24
-24,-107,-82,65,29,-95,63,43,-4,-24,24,-24
-24,-97,-73,61,24,-85,63,43,-4,-19,24,-14
-24,-97,-73,61,24,-85,68,48,0,-24,24,-14
-24,-107,-82,65,29,-95,68,48,0,-34,19,-19
-4,-97,-92,51,43,-95,58,48,0,-39,29,-29
14,-82,-97,34,56,-90,63,53,4,-19,29,-24
29,-73,-102,21,65,-87,63,53,4,-14,29,-24
14,-82,-97,34,56,-90,63,53,4,-14,29,-29
-34,-122,-87,78,26,-104,48,48,-9,-19,4,-29
-29,-112,-82,70,26,-97,48,48,-9,-24,14,-24
-14,-87,-73,51,29,-80,48,58,-4,-24,19,-24
-19,-97,-78,58,29,-87,48,58,-4,-29,19,-29
-14,-92,-78,53,31,-85,58,48,4,-19,29,-29
-9,-92,-82,51,36,-87,58,53,4,-19,29,-29
-19,-102,-82,61,31,-92,58,53,4,-19,24,-24
-29,-112,-82,70,26,-97,63,58,4,-19,19,-24
-29,-112,-82,70,26,-97,63,68,9,-24,9,-34
-14,-112,-97,63,41,-104,53,63,9,-24,9,-29
-4,-107,-102,56,48,-104,53,63,9,-29,9,-29
-4,-97,-92,51,43,-95,68,63,9,-29,14,-29
-19,-117,-97,68,39,-107,68,68,14,-14,14,-24
-29,-122,-92,75,31,-107,68,73,14,-14,14,-24
-29,-131,-102,80,36,-117,58,78,9,-14,9,-29
-9,-117,-107,63,48,-112,58,82,9,-24,9,-29
4,-112,-117,53,61,-114,68,82,24,-14,9,-24
-9,-107,-97,58,43,-102,73,82,24,-14,9,-24
-14,-112,-97,63,41,-104,82,82,19,-14,9,-34
-19,-117,-97,68,39,-107,92,82,19,-14,9,-34
-24,-107,-82,65,29,-95,92,87,29,-4,9,-24
-19,-112,-92,65,36,-102,92,92,24,-9,4,-34
-24,-131,-107,78,41,-119,82,92,24,-14,0,-43
-43,-136,-92,90,24,-114,82,97,24,-14,0,-34
-19,-126,-107,73,43,-117,78,97,19,-19,-4,-34
-9,-126,-117,68,53,-122,82,92,19,-24,-4,-34
-9,-131,-122,70,56,-126,82,87,14,-29,-4,-39
-14,-131,-117,73,51,-124,78,82,14,-29,-4,-43
-24,-92,-68,58,21,-80,97,112,34,-9,14,-24
4,-82,-87,39,46,-85,102,122,34,0,14,-24
0,-126,-126,63,63,-126,82,102,24,-19,-4,-34
-14,-117,-102,65,43,-109,87,92,24,-19,0,-24
-29,-117,-87,73,29,-102,87,87,29,-19,9,-19
-19,-126,-107,73,43,-117,78,78,14,-29,4,-24
-19,-126,-107,73,43,-117,68,68,9,-29,0,-29
-19,-126,-107,73,43,-117,58,58,4,-29,-4,-34
-19,-126,-107,73,43,-117,48,48,0,-29,-9,-39
-19,-117,-97,68,39,-107,48,39,0,-29,-9,-29
-19,-117,-97,68,39,-107,48,39,0,-29,-9,-29
-19,-117,-97,68,39,-107,48,39,0,-29,-9,-29
-19,-117,-97,68,39,-107,48,39,0,-29,-9,-29
-19,-117,-97,68,39,-107,43,29,-9,-39,-9,-39
-19,-117,-97,68,39,-107,39,29,-9,-39,-9,-39
-19,-117,-97,68,39,-107,34,29,-9,-39,-9,-39
-19,-117,-97,68,39,-107,29,29,-9,-39,-9,-39
-34,-126,-92,80,29,-109,19,19,-19,-39,-9,-39
-39,-126,-87,82,24,-107,19,19,-19,-39,-9,-39
-43,-126,-82,85,19,-104,19,19,-19,-39,-9,-39
-48,-126,-78,87,14,-102,19,19,-19,-39,-9,-39
-29,-112,-82,70,26,-97,19,19,-19,-39,-9,-29
-19,-107,-87,63,34,-97,19,19,-19,-39,-9,-29
-9,-102,-92,56,41,-97,19,19,-19,-39,-9,-29
0,-97,-97,48,48,-97,19,19,-19,-39,-9,-29
-9,-112,-102,61,46,-107,29,19,-29,-39,-14,-39
-19,-117,-97,68,39,-107,29,19,-29,-39,-19,-39
-29,-122,-92,75,31,-107,29,19,-29,-39,-24,-39
-39,-126,-87,82,24,-107,29,19,-29,-39,-29,-39
-19,-112,-92,65,36,-102,39,19,-19,-39,-19,-29
-9,-107,-97,58,43,-102,39,19,-19,-39,-19,-29
0,-102,-102,51,51,-102,39,19,-19,-39,-19,-29
9,-97,-107,43,58,-102,39,19,-19,-39,-19,-29
-9,-102,-92,56,41,-97,39,29,-19,-39,-29,-39
-19,-107,-87,63,34,-97,39,29,-19,-39,-29,-39
-29,-112,-82,70,26,-97,39,29,-19,-39,-29,-39
-39,-117,-78,78,19,-97,39,29,-19,-39,-29,-39
-34,-107,-73,70,19,-90,48,29,-19,-48,-39,-39
-29,-107,-78,68,24,-92,48,29,-19,-48,-39,-39
-24,-107,-82,65,29,-95,48,29,-19,-48,-39,-39
-19,-107,-87,63,34,-97,48,29,-19,-48,-39,-39
-24,-112,-87,68,31,-100,48,29,-19,-48,-48,-48
-29,-117,-87,73,29,-102,48,29,-19,-48,-48,-48
-34,-122,-87,78,26,-104,48,29,-19,-48,-48,-48
-39,-126,-87,82,24,-107,48,29,-19,-48,-48,-48
-34,-117,-82,75,24,-100,53,39,-4,-34,-43,-43
-29,-107,-78,68,24,-92,58,48,0,-29,-39,-39
-24,-97,-73,61,24,-85,63,58,4,-24,-34,-34
-19,-87,-68,53,24,-78,68,68,9,-19,-29,-29
-24,-102,-78,63,26,-90,63,63,4,-24,-34,-34
-29,-107,-78,68,24,-92,58,58,0,-29,-39,-39
-34,-112,-78,73,21,-95,53,53,-4,-34,-43,-43
-39,-117,-78,78,19,-97,48,48,-9,-39,-48,-48
-29,-97,-68,63,19,-82,63,63,-4,-34,-39,-34
-19,-87,-68,53,24,-78,68,68,0,-29,-39,-29
-9,-78,-68,43,29,-73,73,73,4,-24,-39,-24
0,-68,-68,34,34,-68,78,78,9,-19,-39,-19
-4,-78,-73,41,34,-75,68,78,9,-19,-39,-29
-9,-87,-78,48,34,-82,68,78,9,-19,-39,-29
-14,-97,-82,56,34,-90,68,78,9,-19,-39,-29
-19,-107,-87,63,34,-97,68,78,9,-19,-39,-29
-29,-107,-78,68,24,-92,78,87,19,-29,-48,-39
-29,-107,-78,68,24,-92,78,87,19,-29,-48,-39
-29,-107,-78,68,24,-92,78,87,19,-29,-48,-39
-29,-107,-78,68,24,-92,78,87,19,-29,-48,-39
-14,-102,-87,58,36,-95,78,97,29,-24,-43,-29
-9,-97,-87,53,39,-92,78,97,29,-19,-39,-29
-4,-92,-87,48,41,-90,78,97,29,-14,-34,-29
0,-87,-87,43,43,-87,78,97,29,-9,-29,-29
-14,-102,-87,58,36,-95,78,107,29,-19,-34,-29
-19,-107,-87,63,34,-97,78,107,29,-19,-39,-29
-24,-112,-87,68,31,-100,78,107,29,-19,-43,-29
-29,-117,-87,73,29,-102,78,107,29,-19,-48,-29
-14,-107,-92,61,39,-100,87,107,29,-9,-48,-29
-9,-107,-97,58,43,-102,87,107,29,-9,-48,-29
-4,-107,-102,56,48,-104,87,107,29,-9,-48,-29
0,-107,-107,53,53,-107,87,107,29,-9,-48,-29
-4,-117,-112,61,53,-114,82,102,29,-9,-48,-29
-9,-117,-107,63,48,-112,78,97,29,-9,-48,-29
-14,-117,-102,65,43,-109,73,92,29,-9,-48,-29
-19,-117,-97,68,39,-107,68,87,29,-9,-48,-29
-29,-112,-82,70,26,-97,58,73,19,-19,-48,-29
-29,-107,-78,68,24,-92,58,68,19,-19,-48,-29
-29,-102,-73,65,21,-87,58,63,19,-19,-48,-29
-29,-97,-68,63,19,-82,58,58,19,-19,-48,-29
-19,-97,-78,58,29,-87,48,58,29,-19,-48,-19
-19,-97,-78,58,29,-87,48,58,29,-19,-48,-19
-19,-97,-78,58,29,-87,48,58,29,-19,-48,-19
-19,-97,-78,58,29,-87,48,58,29,-19,-48,-19
-9,-107,-97,58,43,-102,39,58,19,-19,-58,-29
-9,-107,-97,58,43,-102,39,58,19,-19,-58,-29
-9,-107,-97,58,43,-102,39,58,19,-19,-58,-29
-9,-107,-97,58,43,-102,39,58,19,-19,-58,-29
-24,-117,-92,70,34,-104,29,48,9,-19,-58,-29
-29,-117,-87,73,29,-102,29,48,9,-19,-58,-29
-34,-117,-82,75,24,-100,29,48,9,-19,-58,-29
-39,-117,-78,78,19,-97,29,48,9,-19,-58,-29
-24,-117,-92,70,34,-104,29,48,0,-29,-58,-29
-19,-117,-97,68,39,-107,29,48,0,-29,-58,-29
-14,-117,-102,65,43,-109,29,48,0,-29,-58,-29
-9,-117,-107,63,48,-112,29,48,0,-29,-58,-29
-14,-112,-97,63,41,-104,29,48,9,-19,-48,-19
-19,-107,-87,63,34,-97,29,48,9,-19,-48,-19
-24,-102,-78,63,26,-90,29,48,9,-19,-48,-19
-29,-97,-68,63,19,-82,29,48,9,-19,-48,-19
-19,-107,-87,63,34,-97,29,43,4,-29,-58,-29
-9,-107,-97,58,43,-102,29,39,0,-29,-58,-29
0,-107,-107,53,53,-107,29,34,-4,-29,-58,-29
9,-107,-117,48,63,-112,29,29,-9,-29,-58,-29
-4,-97,-92,51,43,-95,29,29,-9,-29,-58,-29
-9,-97,-87,53,39,-92,29,29,-9,-29,-58,-29
-14,-97,-82,56,34,-90,29,29,-9,-29,-58,-29
-19,-97,-78,58,29,-87,29,29,-9,-29,-58,-29
-19,-112,-92,65,36,-102,19,19,-14,-43,-63,-34
-19,-117,-97,68,39,-107,19,19,-19,-48,-68,-39
-19,-131,-112,75,46,-122,19,19,-24,-53,-78,-43
-19,-122,-102,70,41,-112,19,19,-29,-58,-82,-48
-14,-97,-82,56,34,-90,34,29,-19,-53,-73,-39
-19,-107,-87,63,34,-97,34,34,-19,-53,-73,-39
-39,-117,-78,78,19,-97,39,39,-24,-53,-73,-43
-34,-117,-82,75,24,-100,43,43,-24,-48,-73,-43
-39,-117,-78,78,19,-97,48,43,-14,-43,-78,-48
-43,-122,-78,82,17,-100,58,43,-14,-43,-82,-48
-58,-146,-87,102,14,-117,63,43,-14,-43,-87,-48
-63,-151,-87,107,12,-119,73,43,-14,-43,-92,-48
-53,-136,-82,95,14,-109,63,53,-14,-53,-92,-48
-53,-136,-82,95,14,-109,58,48,-14,-53,-92,-48
-53,-131,-78,92,12,-104,58,48,-14,-53,-87,-48
-48,-131,-82,90,17,-107,63,48,-14,-53,-87,-48
-43,-117,-73,80,14,-95,68,63,-4,-48,-82,-39
-39,-112,-73,75,17,-92,68,63,-4,-43,-82,-39
-34,-122,-87,78,26,-104,63,58,-9,-43,-92,-39
-29,-117,-87,73,29,-102,78,58,-9,-48,-92,-43
-34,-107,-73,70,19,-90,78,63,-4,-39,-92,-43
-43,-112,-68,78,12,-90,68,68,-4,-39,-92,-43
-48,-107,-58,78,4,-82,68,68,-4,-39,-92,-43
-48,-112,-63,80,7,-87,68,63,-4,-39,-92,-48
-39,-107,-68,73,14,-87,73,63,-4,-34,-92,-39
-39,-107,-68,73,14,-87,73,68,-4,-34,-97,-39
-43,-117,-73,80,14,-95,73,68,-4,-34,-97,-39
-43,-117,-73,80,14,-95,73,68,-9,-34,-97,-39
-39,-112,-73,75,17,-92,82,82,-4,-24,-82,-34
-39,-112,-73,75,17,-92,82,82,4,-24,-78,-34
-39,-107,-68,73,14,-87,82,78,9,-24,-78,-34
-39,-107,-68,73,14,-87,82,78,14,-24,-82,-34
-39,-102,-63,70,12,-82,73,63,4,-34,-82,-43
-48,-102,-53,75,2,-78,68,63,4,-34,-82,-43
-34,-97,-63,65,14,-80,68,63,0,-34,-87,-48
-29,-97,-68,63,19,-82,68,63,0,-39,-87,-48
-19,-87,-68,53,24,-78,58,58,-9,-39,-97,-48
-19,-102,-82,61,31,-92,53,53,-9,-39,-97,-53
-29,-112,-82,70,26,-97,48,48,-9,-39,-97,-53
-29,-117,-87,73,29,-102,43,43,-9,-39,-97,-48
-24,-92,-68,58,21,-80,53,48,-4,-34,-92,-43
-24,-87,-63,56,19,-75,53,48,0,-29,-87,-39
-24,-87,-63,56,19,-75,53,48,4,-24,-82,-34
-24,-97,-73,61,24,-85,53,48,9,-14,-73,-29
-34,-92,-58,63,12,-75,58,58,4,-19,-78,-29
-24,-82,-58,53,17,-70,68,58,4,-19,-78,-29
-24,-92,-68,58,21,-80,58,53,4,-24,-82,-34
-14,-92,-78,53,31,-85,58,53,4,-24,-82,-43
-34,-87,-53,61,9,-70,68,63,14,-14,-73,-34
-34,-87,-53,61,9,-70,68,63,14,-14,-73,-34
-34,-87,-53,61,9,-70,68,63,14,-14,-73,-34
-34,-92,-58,63,12,-75,68,63,14,-14,-73,-34
-43,-107,-63,75,9,-85,58,53,4,-24,-87,-43
-43,-107,-63,75,9,-85,68,58,9,-24,-87,-39
-43,-112,-68,78,12,-90,68,58,9,-24,-82,-39
-43,-112,-68,78,12,-90,68,58,14,-24,-82,-39
-39,-112,-73,75,17,-92,63,53,14,-24,-82,-39
-34,-112,-78,73,21,-95,53,53,9,-24,-82,-39
-24,-112,-87,68,31,-100,48,58,9,-24,-82,-39
-19,-112,-92,65,36,-102,39,58,9,-24,-82,-39
-29,-122,-92,75,31,-107,29,58,0,-34,-82,-39
-19,-112,-92,65,36,-102,43,63,0,-34,-82,-39
-19,-122,-102,70,41,-112,34,63,0,-34,-82,-39
-24,-126,-102,75,39,-114,34,53,0,-34,-82,-39
-34,-126,-92,80,29,-109,43,53,9,-34,-82,-39
-34,-126,-92,80,29,-109,43,53,9,-34,-82,-39
-34,-126,-92,80,29,-109,43,53,0,-39,-87,-43
-34,-126,-92,80,29,-109,43,58,0,-39,-92,-43
-34,-126,-92,80,29,-109,34,58,-4,-29,-82,-34
-34,-117,-82,75,24,-100,34,58,-4,-29,-78,-34
-34,-107,-73,70,19,-90,34,58,-4,-29,-78,-34
-39,-126,-87,82,24,-107,29,58,-4,-29,-78,-34
-34,-107,-73,70,19,-90,29,68,-4,-19,-78,-24
-24,-107,-82,65,29,-95,29,63,-4,-19,-78,-24
-19,-107,-87,63,34,-97,29,63,-4,-19,-82,-29
-14,-102,-87,58,36,-95,29,68,-4,-19,-82,-29
-19,-117,-97,68,39,-107,19,63,-4,-29,-82,-34
-4,-122,-117,63,56,-119,19,58,-9,-29,-82,-34
0,-117,-117,58,58,-117,24,53,-9,-29,-78,-34
0,-112,-112,56,56,-112,24,48,-9,-29,-78,-29
0,-117,-117,58,58,-117,14,39,-19,-39,-87,-39
-4,-117,-112,61,53,-114,14,34,-24,-39,-92,-43
-9,-122,-112,65,51,-117,9,34,-24,-43,-92,-43
-9,-122,-112,65,51,-117,9,34,-24,-43,-92,-43
-14,-126,-112,70,48,-119,9,29,-14,-43,-92,-43
-19,-126,-107,73,43,-117,14,29,-9,-39,-92,-39
-24,-126,-102,75,39,-114,14,34,-9,-39,-92,-39
-19,-122,-102,70,41,-112,14,34,-4,-39,-87,-39
9,-92,-102,41,56,-97,24,43,-4,-29,-87,-34
-39,-112,-73,75,17,-92,14,29,-14,-39,-107,-48
-58,-112,-53,85,-2,-82,34,48,-4,-39,-112,-48
-9,-73,-63,41,26,-68,73,78,19,-19,-102,-39
-4,-73,-68,39,31,-70,73,82,34,-4,-102,-43
-14,-92,-78,53,31,-85,53,92,58,9,-92,-53
-14,-102,-87,58,36,-95,53,97,82,53,-39,-29
-73,-73,0,73,-36,-36,53,112,136,131,87,73
-24,24,48,0,-36,36,58,146,219,292,312,263
73,136,63,-104,4,100,39,165,312,473,605,507
102,200,97,-151,2,148,4,170,405,683,946,785
170,297,126,-234,21,212,-29,185,522,927,1361,1137
273,385,112,-329,80,248,-68,204,639,1185,1766,1483
346,483,136,-414,104,309,-92,219,741,1395,2122,1800
419,561,141,-490,139,351,-122,229,819,1590,2440,2093
507,600,92,-553,207,346,-175,214,819,1698,2659,2322
595,619,24,-607,285,322,-234,161,736,1668,2693,2415
663,590,-73,-627,368,258,-278,68,590,1546,2552,2376
683,536,-146,-610,414,195,-307,-14,414,1361,2313,2254
692,434,-258,-563,475,87,-331,-102,190,1127,2000,2049
683,292,-390,-488,536,-48,-375,-219,-53,849,1595,1717
663,180,-483,-422,573,-151,-409,-331,-263,585,1180,1342
639,92,-546,-366,592,-226,-429,-444,-448,322,800,1000
561,24,-536,-292,549,-256,-429,-527,-600,73,483,717
414,4,-409,-209,412,-202,-380,-546,-697,-170,209,463
229,14,-214,-122,222,-100,-312,-546,-766,-400,-68,209
82,4,-78,-43,80,-36,-248,-527,-800,-585,-263,24
-4,9,14,-2,-9,12,-200,-468,-771,-649,-341,-34
-19,0,19,9,-19,9,-190,-439,-712,-653,-361,-63
4,0,-4,-2,4,-2,-175,-405,-644,-610,-351,-82
9,9,0,-9,4,4,-156,-346,-546,-512,-317,-78
-39,-39,0,39,-19,-19,-146,-297,-468,-439,-283,-87
-58,-43,14,51,-36,-14,-107,-239,-390,-375,-268,-107
-29,-14,14,21,-21,0,-58,-175,-307,-307,-248,-107
-48,-39,9,43,-29,-14,-53,-136,-244,-253,-229,-102
-68,-48,19,58,-43,-14,-39,-82,-180,-190,-190,-78
0,-4,-4,2,2,-4,-4,-34,-117,-126,-136,-43
9,-14,-24,2,17,-19,-4,-29,-87,-97,-117,-29
-24,-53,-29,39,2,-41,4,-24,-87,-92,-117,-39
-53,-97,-43,75,-4,-70,4,-24,-82,-102,-126,-58
-58,-107,-48,82,-4,-78,14,-9,-68,-92,-122,-58
-19,-78,-58,48,19,-68,43,34,-29,-63,-112,-43
-19,-97,-78,58,29,-87,43,48,-14,-48,-107,-43
-73,-131,-58,102,-7,-95,39,53,0,-39,-107,-39
-43,-92,-48,68,2,-70,48,73,19,-9,-82,-19
-19,-68,-48,43,14,-58,43,73,19,-14,-78,-24
-9,-68,-58,39,24,-63,43,68,14,-14,-78,-24
-4,-78,-73,41,34,-75,48,63,14,-14,-78,-34
-4,-82,-78,43,36,-80,48,58,9,-14,-92,-34
-9,-87,-78,48,34,-82,48,78,4,-14,-97,-39
-4,-102,-97,53,46,-100,53,78,4,-14,-102,-39
-9,-107,-97,58,43,-102,53,78,9,-14,-92,-34
-24,-112,-87,68,31,-100,48,73,14,-4,-97,-29
-24,-112,-87,68,31,-100,58,73,14,-14,-92,-39
0,-107,-107,53,53,-107,58,73,14,-14,-92,-39
0,-107,-107,53,53,-107,58,68,9,-14,-97,-43
-29,-126,-97,78,34,-112,58,68,4,-19,-97,-48
-19,-122,-102,70,41,-112,58,78,4,-24,-102,-58
-4,-122,-117,63,56,-119,53,78,9,-24,-102,-58
-24,-126,-102,75,39,-114,53,87,24,-14,-92,-43
-34,-141,-107,87,36,-124,53,87,24,-9,-97,-43
-29,-126,-97,78,34,-112,63,97,29,-4,-92,-39
-24,-112,-87,68,31,-100,63,97,34,9,-87,-34
-19,-107,-87,63,34,-97,63,97,29,4,-87,-34
-9,-102,-92,56,41,-97,68,102,34,9,-82,-29
-9,-102,-92,56,41,-97,63,107,34,0,-92,-34
-9,-112,-102,61,46,-107,63,107,34,0,-92,-34
-9,-122,-112,65,51,-117,63,112,39,0,-92,-34
-9,-107,-97,58,43,-102,68,112,48,9,-82,-29
-9,-102,-92,56,41,-97,68,112,53,24,-73,-19
-14,-102,-87,58,36,-95,63,117,53,19,-73,-19
-14,-97,-82,56,34,-90,63,117,53,19,-78,-19
-14,-92,-78,53,31,-85,63,122,58,24,-78,-19
-14,-117,-102,65,43,-109,48,107,43,14,-92,-29
-4,-122,-117,63,56,-119,43,97,34,9,-97,-34
-4,-126,-122,65,58,-124,34,82,29,4,-102,-39
-4,-126,-122,65,58,-124,29,73,29,9,-107,-43
4,-117,-122,56,63,-119,29,63,29,4,-97,-34
4,-107,-112,51,58,-109,29,63,29,4,-97,-29
-4,-102,-97,53,46,-100,29,63,29,0,-97,-29
-4,-107,-102,56,48,-104,29,53,19,-4,-102,-29
-9,-102,-92,56,41,-97,39,53,9,-4,-112,-39
-14,-107,-92,61,39,-100,39,58,9,-4,-112,-39
-19,-112,-92,65,36,-102,39,58,14,-4,-112,-39
-24,-112,-87,68,31,-100,43,58,19,-4,-112,-39
-14,-107,-92,61,39,-100,63,73,39,-4,-102,-34
-24,-102,-78,63,26,-90,53,73,39,0,-97,-24
-14,-97,-82,56,34,-90,53,73,34,0,-97,-34
-14,-92,-78,53,31,-85,53,73,29,-4,-97,-34
-24,-102,-78,63,26,-90,53,63,19,-9,-97,-43
-29,-97,-68,63,19,-82,53,63,19,-9,-97,-48
-19,-97,-78,58,29,-87,53,63,19,-9,-102,-48
-24,-107,-82,65,29,-95,43,58,19,-9,-112,-48
-24,-97,-73,61,24,-85,43,63,29,0,-102,-48
-14,-97,-82,56,34,-90,43,63,29,0,-92,-43
-34,-87,-53,61,9,-70,43,68,34,4,-87,-29
-34,-87,-53,61,9,-70,43,68,34,4,-87,-24
-34,-107,-73,70,19,-90,34,63,19,-4,-92,-39
-34,-107,-73,70,19,-90,34,58,14,-9,-92,-39
-29,-117,-87,73,29,-102,34,48,14,-14,-97,-43
-29,-117,-87,73,29,-102,34,43,14,-14,-97,-43
-14,-102,-87,58,36,-95,43,43,29,0,-92,-39
-14,-92,-78,53,31,-85,43,48,29,4,-92,-34
-9,-82,-73,46,31,-78,43,48,29,4,-87,-34
9,-73,-82,31,46,-78,43,48,29,4,-78,-34
-4,-92,-87,48,41,-90,29,48,19,-4,-82,-43
-24,-107,-82,65,29,-95,29,48,19,-4,-87,-43
-9,-102,-92,56,41,-97,29,48,19,-4,-92,-43
0,-107,-107,53,53,-107,29,48,19,0,-97,-43
-29,-102,-73,65,21,-87,39,53,34,4,-92,-34
-9,-87,-78,48,34,-82,39,63,39,14,-87,-34
0,-82,-82,41,41,-82,39,68,39,19,-82,-34
4,-68,-73,31,39,-70,39,73,39,24,-73,-24
-4,-97,-92,51,43,-95,34,58,34,19,-68,-24
-4,-102,-97,53,46,-100,34,58,34,14,-73,-29
4,-102,-107,48,56,-104,29,58,29,9,-78,-29
4,-107,-112,51,58,-109,24,53,29,4,-87,-34
-9,-97,-87,53,39,-92,34,58,34,9,-78,-29
-19,-97,-78,58,29,-87,34,63,39,24,-78,-29
-4,-92,-87,48,41,-90,34,68,43,29,-78,-29
-4,-82,-78,43,36,-80,34,73,58,48,-78,-24
-9,-97,-87,53,39,-92,43,73,48,43,-73,-19
-4,-102,-97,53,46,-100,29,73,48,39,-73,-24
0,-102,-102,51,51,-102,29,73,53,39,-68,-19
-4,-97,-92,51,43,-95,29,73,58,43,-68,-19
0,-82,-82,41,41,-82,39,78,63,53,-53,-14
9,-78,-87,34,48,-82,43,87,78,63,-43,0
14,-73,-87,29,51,-80,43,97,92,73,-29,9
14,-68,-82,26,48,-75,43,107,102,92,-24,14
19,-78,-97,29,58,-87,53,117,112,92,-24,9
19,-78,-97,29,58,-87,53,122,112,82,-24,9
29,-58,-87,14,58,-73,53,126,112,97,-14,14
29,-58,-87,14,58,-73,53,126,112,97,-14,19
24,-73,-97,24,61,-85,63,117,112,102,-19,14
24,-68,-92,21,58,-80,63,122,122,107,-14,19
19,-73,-92,26,56,-82,58,126,122,117,-14,14
14,-92,-107,39,61,-100,48,131,117,117,-19,9
4,-82,-87,39,46,-85,53,141,107,107,-19,14
4,-82,-87,39,46,-85,53,141,117,112,-9,24
9,-78,-87,34,48,-82,53,141,122,122,-4,34
34,-63,-97,14,65,-80,53,146,126,126,4,34
48,-63,-112,7,80,-87,63,146,126,117,-4,24
39,-68,-107,14,73,-87,58,146,126,117,-4,24
43,-68,-112,12,78,-90,58,146,126,122,0,34
48,-68,-117,9,82,-92,58,146,126,122,0,34
63,-53,-117,-4,90,-85,58,156,136,131,0,24
73,-53,-126,-9,100,-90,53,151,146,141,4,29
78,-53,-131,-12,104,-92,53,151,146,146,9,39
82,-39,-122,-21,102,-80,53,161,151,151,14,39
68,-48,-117,-9,92,-82,63,170,161,161,24,48
78,-48,-126,-14,102,-87,63,170,161,161,24,53
87,-43,-131,-21,109,-87,68,170,161,161,24,53
92,-43,-136,-24,114,-90,68,170,161,165,29,58
87,-29,-117,-29,102,-73,58,170,175,175,43,68
92,-24,-117,-34,104,-70,58,170,175,180,43,68
92,-24,-117,-34,104,-70,58,165,170,180,39,63
87,-19,-107,-34,97,-63,43,165,170,180,34,63
73,-29,-102,-21,87,-65,48,161,156,170,29,63
73,-34,-107,-19,90,-70,43,156,151,175,29,68
73,-43,-117,-14,95,-80,39,156,151,165,29,73
78,-58,-136,-9,107,-97,29,151,146,146,24,73
97,-48,-146,-24,122,-97,19,136,146,146,24,63
97,-39,-136,-29,117,-87,14,131,146,146,24,63
97,-39,-136,-29,117,-87,9,126,146,146,24,63
87,-39,-126,-24,107,-82,4,122,146,146,24,63
82,-34,-117,-24,100,-75,0,112,131,136,24,58
82,-43,-126,-19,104,-85,-4,102,126,136,29,58
92,-43,-136,-24,114,-90,-4,92,122,136,29,68
92,-29,-122,-31,107,-75,-9,82,117,136,29,68
97,-34,-131,-31,114,-82,-14,73,117,146,34,73
87,-29,-117,-29,102,-73,-14,73,117,146,39,78
102,-9,-112,-46,107,-61,-4,73,122,146,48,92
107,4,-102,-56,104,-48,-4,73,122,146,53,97
92,-24,-117,-34,104,-70,-19,73,117,151,63,87
92,-29,-122,-31,107,-75,-19,68,112,141,58,87
92,-39,-131,-26,112,-85,-19,68,112,141,58,87
92,-29,-122,-31,107,-75,-9,73,112,141,58,87
73,-29,-102,-21,87,-65,-9,73,112,131,63,92
63,-29,-92,-17,78,-61,-9,63,107,122,58,87
63,-29,-92,-17,78,-61,-9,63,107,122,53,82
53,-29,-82,-12,68,-56,-9,63,107,117,53,82
53,-19,-73,-17,63,-46,-9,63,102,122,58,82
73,-9,-82,-31,78,-46,-9,63,102,122,58,87
92,-9,-102,-41,97,-56,-9,53,102,117,53,82
82,-29,-112,-26,97,-70,-9,48,102,117,58,78
63,-29,-92,-17,78,-61,-14,58,102,126,63,87
63,-14,-78,-24,70,-46,-14,58,92,126,68,92
63,-9,-73,-26,68,-41,-4,58,92,112,73,92
43,-19,-63,-12,53,-41,-14,43,73,97,68,82
34,-24,-58,-4,46,-41,-4,34,78,97,78,87
63,9,-53,-36,58,-21,4,53,82,102,87,92
63,-4,-68,-29,65,-36,4,53,82,92,78,87
39,-39,-78,0,58,-58,9,43,78,92,58,87
48,-19,-68,-14,58,-43,9,34,73,87,58,78
48,-19,-68,-14,58,-43,4,34,68,78,58,73
39,-29,-68,-4,53,-48,0,34,58,68,53,63
29,-34,-63,2,46,-48,0,34,53,58,53,58
29,-24,-53,-2,41,-39,14,43,63,68,48,53
14,-19,-34,2,24,-26,19,48,68,58,48,53
24,-9,-34,-7,29,-21,24,48,68,53,43,48
39,-4,-43,-17,41,-24,29,43,58,48,34,43
58,-9,-68,-24,63,-39,39,48,48,39,39,39
43,-14,-58,-14,51,-36,43,48,53,39,34,39
43,-14,-58,-14,51,-36,43,48,53,39,34,39
43,-19,-63,-12,53,-41,34,43,43,39,19,24
29,-34,-63,2,46,-48,43,53,43,29,24,19
19,-34,-53,7,36,-43,48,53,43,29,24,19
14,-39,-53,12,34,-46,53,53,43,19,24,19
-4,-58,-53,31,24,-56,53,58,39,19,19,19
-4,-58,-53,31,24,-56,43,48,48,29,9,14
0,-53,-53,26,26,-53,43,48,39,29,9,14
14,-29,-43,7,29,-36,43,48,39,24,14,9
24,-14,-39,-4,31,-26,43,48,39,24,14,0
4,-39,-43,17,24,-41,43,58,48,24,4,9
0,-48,-48,24,24,-48,48,58,48,19,4,0
0,-34,-34,17,17,-34,53,63,48,14,0,0
19,-29,-48,4,34,-39,58,78,43,9,0,-4
19,-29,-48,4,34,-39,73,82,48,9,4,0
4,-43,-48,19,26,-46,73,82,48,14,4,4
-4,-53,-48,29,21,-51,73,78,48,14,9,4
-4,-53,-48,29,21,-51,73,78,53,19,9,9
0,-48,-48,24,24,-48,73,78,48,14,19,19
0,-48,-48,24,24,-48,73,78,43,14,14,19
4,-39,-43,17,24,-41,78,78,39,14,14,19
9,-39,-48,14,29,-43,78,82,39,24,19,19
9,-53,-63,21,36,-58,78,73,29,4,14,14
9,-48,-58,19,34,-53,73,68,19,4,9,9
9,-53,-63,21,36,-58,68,63,19,4,9,4
-19,-73,-53,46,17,-63,63,53,19,4,4,0
-9,-68,-58,39,24,-63,68,58,24,14,19,14
4,-48,-53,21,29,-51,73,63,34,14,19,14
9,-43,-53,17,31,-48,78,68,39,14,19,14
9,-43,-53,17,31,-48,82,73,43,9,19,14
14,-63,-78,24,46,-70,78,68,39,9,14,0
14,-63,-78,24,46,-70,73,68,34,14,14,0
9,-53,-63,21,36,-58,68,68,29,19,14,0
9,-53,-63,21,36,-58,63,73,29,19,14,0
19,-39,-58,9,39,-48,78,82,39,24,19,9
19,-39,-58,9,39,-48,78,87,43,34,29,19
19,-48,-68,14,43,-58,73,87,53,39,34,24
19,-39,-58,9,39,-48,73,92,58,48,43,29
14,-39,-53,12,34,-46,68,82,53,48,39,29
14,-53,-68,19,41,-61,68,82,53,43,39,29
0,-58,-58,29,29,-58,68,78,48,34,34,24
-9,-58,-48,34,19,-53,68,78,48,29,34,24
19,-34,-53,7,36,-43,58,68,39,24,24,19
43,-34,-78,-4,61,-56,58,78,48,34,29,24
19,-48,-68,14,43,-58,58,78,48,34,34,24
24,-39,-63,7,43,-51,63,82,53,34,39,19
24,-39,-63,7,43,-51,58,78,53,29,34,14
19,-43,-63,12,41,-53,43,73,39,29,34,14
9,-53,-63,21,36,-58,39,63,39,29,34,9
-9,-63,-53,36,21,-58,34,58,43,34,34,4
-9,-58,-48,34,19,-53,34,48,48,34,39,14
4,-48,-53,21,29,-51,34,48,48,34,43,19
14,-43,-58,14,36,-51,34,48,48,39,43,29
34,-34,-68,0,51,-51,34,58,53,39,48,48
29,-34,-63,2,46,-48,24,43,43,39,43,39
19,-48,-68,14,43,-58,24,39,43,43,43,39
14,-39,-53,12,34,-46,24,34,43,43,58,39
19,-34,-53,7,36,-43,24,29,43,43,58,39
29,-34,-63,2,46,-48,14,29,34,39,58,29
14,-34,-48,9,31,-41,14,29,43,39,58,29
14,-34,-48,9,31,-41,9,29,43,39,58,29
9,-29,-39,9,24,-34,9,29,43,39,58,19
19,-24,-43,2,31,-34,29,43,48,63,73,34
34,-24,-58,-4,46,-41,34,48,53,53,73,34
24,-34,-58,4,41,-46,34,48,48,48,68,34
24,-39,-63,7,43,-51,39,53,53,48,68,34
24,-34,-58,4,41,-46,53,63,58,48,78,43
29,-24,-53,-2,41,-39,53,68,68,48,78,43
29,-19,-48,-4,39,-34,53,68,73,53,78,43
39,-14,-53,-12,46,-34,53,68,78,58,82,43
14,-4,-19,-4,17,-12,68,82,82,68,87,43
4,-24,-29,9,17,-26,68,82,82,68,87,43
-4,-34,-29,19,12,-31,68,82,82,63,82,43
-9,-43,-34,26,12,-39,68,82,78,63,82,43
0,-34,-34,17,17,-34,78,82,78,53,73,39
0,-29,-29,14,14,-29,78,87,82,58,73,34
4,-24,-29,9,17,-26,78,87,82,58,73,29
14,-24,-39,4,26,-31,73,78,78,53,63,24
19,-34,-53,7,36,-43,78,82,87,53,68,34
14,-39,-53,12,34,-46,82,87,87,53,73,43
14,-39,-53,12,34,-46,82,92,87,63,78,48
14,-39,-53,12,34,-46,87,97,82,68,78,48
4,-43,-48,19,26,-46,78,92,68,63,68,39
-9,-43,-34,26,12,-39,73,87,68,63,68,34
19,-19,-39,0,29,-29,73,82,68,58,68,34
34,-29,-63,-2,48,-46,68,73,68,43,63,34
9,-39,-48,14,29,-43,78,73,68,53,73,34
0,-19,-19,9,9,-19,78,78,73,58,73,34
19,-19,-39,0,29,-29,78,78,73,58,73,34
9,-34,-43,12,26,-39,73,68,63,48,58,29
14,-34,-48,9,31,-41,73,58,53,34,48,14
19,-34,-53,7,36,-43,78,63,53,34,53,14
34,-19,-53,-7,43,-36,82,68,63,43,63,19
48,-19,-68,-14,58,-43,82,68,63,43,63,19
34,-29,-63,-2,48,-46,82,73,63,34,58,14
24,-29,-53,2,39,-41,82,73,63,34,63,19
19,-29,-48,4,34,-39,82,68,63,19,58,24
-4,-48,-43,26,19,-46,82,58,48,19,53,29
9,-39,-48,14,29,-43,78,58,39,19,73,24
29,-19,-48,-4,39,-34,78,58,43,34,73,24
19,-34,-53,7,36,-43,73,53,43,24,68,14
14,-43,-58,14,36,-51,68,53,34,19,68,9
19,-43,-63,12,41,-53,58,53,34,19,58,0
19,-43,-63,12,41,-53,58,58,34,19,58,14
19,-43,-63,12,41,-53,58,58,34,14,53,4
19,-48,-68,14,43,-58,53,53,29,14,48,-4
34,-34,-68,0,51,-51,58,53,29,4,58,4
34,-29,-63,-2,48,-46,68,58,34,4,58,0
34,-29,-63,-2,48,-46,73,63,34,9,48,0
29,-34,-63,2,46,-48,78,68,34,14,39,0
39,-34,-73,-2,56,-53,87,68,39,19,48,4
19,-34,-53,7,36,-43,82,73,39,9,48,9
0,-34,-34,17,17,-34,78,78,43,0,48,14
19,-4,-24,-7,21,-14,73,78,48,19,53,19
39,-4,-43,-17,41,-24,73,68,48,14,58,29
48,-9,-58,-19,53,-34,73,68,48,9,58,29
58,-4,-63,-26,61,-34,73,68,48,14,58,24
68,-4,-73,-31,70,-39,68,68,53,29,63,24
58,4,-53,-31,56,-24,58,78,53,29,63,19
58,4,-53,-31,56,-24,58,78,53,29,58,14
58,9,-48,-34,53,-19,68,82,53,29,58,14
68,9,-58,-39,63,-24,68,82,53,29,58,14
58,0,-58,-29,58,-29,78,82,48,9,48,9
48,-4,-53,-21,51,-29,78,82,48,9,43,4
43,-14,-58,-14,51,-36,78,82,53,9,43,4
43,-14,-58,-14,51,-36,78,82,53,14,43,0
53,-4,-58,-24,56,-31,87,92,53,24,43,4
58,-4,-63,-26,61,-34,87,92,53,24,43,4
53,-4,-58,-24,56,-31,92,92,53,24,48,4
58,0,-58,-29,58,-29,92,92,53,19,48,4
58,-9,-68,-24,63,-39,92,92,53,9,34,-4
53,0,-53,-26,53,-26,92,92,53,19,34,4
48,0,-48,-24,48,-24,97,97,58,19,34,4
43,-9,-53,-17,48,-31,97,97,58,14,29,0
43,-14,-58,-14,51,-36,87,87,48,-4,29,-9
53,-4,-58,-24,56,-31,92,92,53,9,29,-4
58,0,-58,-29,58,-29,92,92,53,9,29,-4
34,-14,-48,-9,41,-31,92,92,53,4,29,-9
9,-29,-39,9,24,-34,87,78,48,14,24,0
29,-14,-43,-7,36,-29,87,78,48,14,34,4
58,14,-43,-36,51,-14,87,87,53,19,39,4
68,9,-58,-39,63,-24,87,87,53,19,39,0
58,-4,-63,-26,61,-34,78,73,53,9,29,0
58,-4,-63,-26,61,-34,78,73,53,9,29,0
43,-14,-58,-14,51,-36,78,68,53,9,24,4
29,-24,-53,-2,41,-39,82,68,53,9,19,4
39,-19,-58,-9,48,-39,78,63,48,14,29,-4
53,-14,-68,-19,61,-41,63,53,48,14,29,0
63,-4,-68,-29,65,-36,58,48,48,9,29,0
63,9,-53,-36,58,-21,68,43,48,9,34,0
53,0,-53,-26,53,-26,63,39,48,9,29,-4
48,-4,-53,-21,51,-29,58,34,43,4,24,-4
53,-14,-68,-19,61,-41,43,29,34,0,14,-9
78,0,-78,-39,78,-39,39,24,29,-14,9,-9
78,-4,-82,-36,80,-43,43,34,34,-4,9,-4
58,-9,-68,-24,63,-39,43,34,34,-4,9,-4
48,-24,-73,-12,61,-48,48,34,29,-4,9,-14
39,-39,-78,0,58,-58,53,34,29,-4,9,-14
48,-19,-68,-14,58,-43,58,43,39,-4,9,-4
58,-14,-73,-21,65,-43,63,43,34,-9,4,-14
58,-24,-82,-17,70,-53,58,39,34,-14,0,-24
43,-19,-63,-12,53,-41,63,39,34,-14,0,-14
73,0,-73,-36,73,-36,78,53,39,-4,14,0
87,0,-87,-43,87,-43,82,53,39,-4,14,4
92,-4,-97,-43,95,-51,82,53,34,-4,14,4
92,-4,-97,-43,95,-51,78,53,34,0,14,4
63,-24,-87,-19,75,-56,97,53,34,-9,-4,-24
92,-4,-97,-43,95,-51,92,63,43,0,4,-24
29,-29,-58,0,43,-43,82,63,43,0,4,-24
43,9,-34,-26,39,-12,97,73,53,0,9,-14
117,48,-68,-82,92,-9,107,78,58,9,19,-9
97,34,-63,-65,80,-14,97,68,48,9,9,0
87,19,-68,-53,78,-24,97,68,48,9,9,0
78,4,-73,-41,75,-34,97,68,48,9,9,0
68,-9,-78,-29,73,-43,97,68,48,9,9,0
73,0,-73,-36,73,-36,97,78,48,0,0,-4
78,0,-78,-39,78,-39,97,78,48,0,0,-9
82,0,-82,-41,82,-41,97,78,48,0,0,-14
87,0,-87,-43,87,-43,97,78,48,0,0,-19
73,0,-73,-36,73,-36,107,78,48,0,0,-19
68,0,-68,-34,68,-34,107,78,48,0,0,-19
63,0,-63,-31,63,-31,107,78,48,0,0,-19
58,0,-58,-29,58,-29,107,78,48,0,0,-19
68,0,-68,-34,68,-34,97,78,39,-9,9,-9
68,0,-68,-34,68,-34,97,78,39,-9,9,-9
68,0,-68,-34,68,-34,97,78,39,-9,9,-9
68,0,-68,-34,68,-34,97,78,39,-9,9,-9
68,0,-68,-34,68,-34,92,68,29,-9,0,-14
68,0,-68,-34,68,-34,87,68,29,-9,0,-19
68,0,-68,-34,68,-34,82,68,29,-9,0,-24
68,0,-68,-34,68,-34,78,68,29,-9,0,-29
78,9,-68,-43,73,-29,68,58,39,0,9,-14
78,9,-68,-43,73,-29,68,58,39,0,9,-9
78,9,-68,-43,73,-29,68,58,39,0,9,-4
78,9,-68,-43,73,-29,68,58,39,0,9,0
92,19,-73,-56,82,-26,78,73,43,4,19,9
97,29,-68,-63,82,-19,87,78,48,9,19,9
102,39,-63,-70,82,-12,97,82,53,14,19,9
107,48,-58,-78,82,-4,107,87,58,19,19,9
102,39,-63,-70,82,-12,107,87,68,19,19,4
97,39,-58,-68,78,-9,107,87,68,19,19,0
92,39,-53,-65,73,-7,107,87,68,19,19,-4
87,39,-48,-63,68,-4,107,87,68,19,19,-9
78,19,-58,-48,68,-19,117,97,58,9,19,0
68,9,-58,-39,63,-24,117,97,58,9,19,0
58,0,-58,-29,58,-29,117,97,58,9,19,0
48,-9,-58,-19,53,-34,117,97,58,9,19,0
78,19,-58,-48,68,-19,122,112,73,14,19,9
97,39,-58,-68,78,-9,126,117,78,19,19,9
117,58,-58,-87,87,0,131,122,82,24,19,9
136,78,-58,-107,97,9,136,126,87,29,19,9
122,68,-53,-95,87,7,126,122,82,19,9,9
107,58,-48,-82,78,4,126,117,78,19,9,9
92,48,-43,-70,68,2,126,112,73,19,9,9
78,39,-39,-58,58,0,126,107,68,19,9,9
78,34,-43,-56,61,-4,122,92,63,14,-4,-4
78,29,-48,-53,63,-9,117,87,58,9,-9,-9
78,24,-53,-51,65,-14,112,82,53,4,-14,-14
78,19,-58,-48,68,-19,107,78,48,0,-19,-19
87,34,-53,-61,70,-9,107,78,58,9,-19,-9
87,39,-48,-63,68,-4,107,78,58,9,-19,-9
87,43,-43,-65,65,0,107,78,58,9,-19,-9
87,48,-39,-68,63,4,107,78,58,9,-19,-9
87,34,-53,-61,70,-9,107,68,58,9,-19,-9
87,29,-58,-58,73,-14,107,68,58,9,-19,-9
87,24,-63,-56,75,-19,107,68,58,9,-19,-9
87,19,-68,-53,78,-24,107,68,58,9,-19,-9
87,29,-58,-58,73,-14,117,78,48,9,-29,-9
87,29,-58,-58,73,-14,117,78,48,9,-29,-9
87,29,-58,-58,73,-14,117,78,48,9,-29,-9
87,29,-58,-58,73,-14,117,78,48,9,-29,-9
97,19,-78,-58,87,-29,107,68,58,19,-24,0
97,34,-63,-65,80,-14,107,68,58,19,-24,0
107,48,-58,-78,82,-4,107,63,58,19,-24,0
107,39,-68,-73,87,-14,102,63,58,14,-24,0
87,19,-68,-53,78,-24,102,53,43,0,-24,-14
92,19,-73,-56,82,-26,102,53,43,0,-24,-14
87,34,-53,-61,70,-9,102,53,43,4,-24,-9
82,34,-48,-58,65,-7,107,53,43,4,-24,-9
82,14,-68,-48,75,-26,97,53,53,4,-24,-9
82,14,-68,-48,75,-26,102,53,53,4,-24,-9
82,19,-63,-51,73,-21,102,53,53,4,-24,-9
82,19,-63,-51,73,-21,97,48,53,4,-24,-9
92,34,-58,-63,75,-12,92,39,43,4,-29,-9
97,34,-63,-65,80,-14,92,39,43,4,-29,-9
97,34,-63,-65,80,-14,87,43,43,4,-34,-9
97,34,-63,-65,80,-14,78,43,43,4,-34,-9
97,29,-68,-63,82,-19,78,48,48,9,-34,-9
97,29,-68,-63,82,-19,87,48,48,0,-34,-14
97,43,-53,-70,75,-4,97,53,53,9,-34,-14
92,43,-48,-68,70,-2,87,58,53,9,-34,-14
107,63,-43,-85,75,9,97,68,63,19,-24,-14
117,63,-53,-90,85,4,97,63,63,19,-24,-19
122,58,-63,-90,92,-2,92,63,63,14,-24,-19
126,58,-68,-92,97,-4,92,68,63,14,-29,-19
107,39,-68,-73,87,-14,82,58,53,4,-39,-19
102,29,-73,-65,87,-21,82,58,48,4,-39,-19
102,24,-78,-63,90,-26,82,63,48,4,-34,-14
97,14,-82,-56,90,-34,82,63,53,4,-29,-14
97,24,-73,-61,85,-24,82,58,53,14,-19,-14
97,29,-68,-63,82,-19,82,58,53,14,-24,-14
97,29,-68,-63,82,-19,82,53,53,14,-24,-14
87,34,-53,-61,70,-9,78,53,53,14,-24,-14
102,34,-68,-68,85,-17,78,53,48,4,-39,-29
107,29,-78,-68,92,-24,78,53,48,0,-39,-29
107,39,-68,-73,87,-14,82,53,48,0,-39,-29
107,24,-82,-65,95,-29,82,53,48,0,-39,-34
87,9,-78,-48,82,-34,82,53,39,0,-39,-24
87,9,-78,-48,82,-34,82,53,39,0,-39,-19
92,19,-73,-56,82,-26,82,58,39,0,-39,-19
92,19,-73,-56,82,-26,82,58,39,0,-39,-19
102,29,-73,-65,87,-21,73,58,48,9,-29,-9
102,19,-82,-61,92,-31,73,58,48,14,-24,-9
92,39,-53,-65,73,-7,78,68,53,19,-19,0
102,53,-48,-78,75,2,87,68,53,19,-19,0
107,53,-53,-80,80,0,87,73,63,24,-19,0
122,53,-68,-87,95,-7,87,73,63,24,-14,-4
117,48,-68,-82,92,-9,87,73,63,24,-9,0
122,48,-73,-85,97,-12,87,73,63,24,-4,4
112,39,-73,-75,92,-17,78,63,53,14,-14,-4
112,34,-78,-73,95,-21,78,63,53,14,-14,-4
112,34,-78,-73,95,-21,78,63,53,14,-19,-4
112,39,-73,-75,92,-17,87,68,58,14,-19,0
122,48,-73,-85,97,-12,97,68,48,14,-14,-9
122,53,-68,-87,95,-7,97,68,53,14,-14,-9
122,53,-68,-87,95,-7,97,63,53,14,-14,-9
122,53,-68,-87,95,-7,92,63,48,14,-14,-9
126,43,-82,-85,104,-19,92,68,58,14,-24,-19
126,43,-82,-85,104,-19,87,68,58,14,-24,-19
117,43,-73,-80,95,-14,87,68,58,14,-24,-19
126,53,-73,-90,100,-9,102,73,58,14,-24,-19
112,34,-78,-73,95,-21,102,73,48,9,-34,-29
102,19,-82,-61,92,-31,102,63,48,4,-34,-29
97,9,-87,-53,92,-39,102,63,48,0,-34,-29
92,0,-92,-46,92,-46,102,63,48,-4,-34,-29
97,14,-82,-56,90,-34,112,73,43,-4,-39,-24
102,29,-73,-65,87,-21,112,78,48,0,-43,-24
107,34,-73,-70,90,-19,112,78,58,4,-43,-24
112,58,-53,-85,82,2,112,78,63,9,-39,-24
122,63,-58,-92,90,2,112,78,53,9,-34,-19
117,39,-78,-78,97,-19,107,78,53,9,-29,-14
117,43,-73,-80,95,-14,107,78,53,9,-24,-9
122,39,-82,-80,102,-21,107,73,53,9,-19,-4
122,39,-82,-80,102,-21,107,82,63,9,-34,-19
122,43,-78,-82,100,-17,107,87,63,9,-34,-19
126,43,-82,-85,104,-19,107,87,63,9,-34,-14
141,43,-97,-92,119,-26,107,87,58,9,-34,-14
136,53,-82,-95,109,-14,122,92,68,19,-19,-14
136,63,-73,-100,104,-4,122,97,68,19,-19,-9
126,48,-78,-87,102,-14,122,92,68,19,-19,-9
122,48,-73,-85,97,-12,122,92,63,19,-24,-14
126,53,-73,-90,100,-9,122,102,73,14,-34,-24
126,53,-73,-90,100,-9,126,102,73,14,-34,-24
126,48,-78,-87,102,-14,131,107,73,14,-34,-24
126,48,-78,-87,102,-14,141,107,78,19,-34,-19
117,34,-82,-75,100,-24,131,102,73,9,-34,-9
117,34,-82,-75,100,-24,131,102,73,9,-29,-9
107,29,-78,-68,92,-24,131,102,68,9,-29,-14
87,24,-63,-56,75,-19,131,97,63,9,-39,-19
136,43,-92,-90,114,-24,122,97,63,9,-43,-19
136,53,-82,-95,109,-14,122,87,87,29,-34,-19
92,53,-39,-73,65,7,122,92,92,43,-34,-24
92,53,-39,-73,65,7,122,102,117,58,-14,-14
131,82,-48,-107,90,17,112,117,151,112,48,29
161,151,-9,-156,85,70,102,131,214,219,214,170
170,190,19,-180,75,104,58,136,278,351,448,370
239,263,24,-251,107,143,39,156,361,522,751,644
326,405,78,-366,124,241,34,180,473,741,1122,980
395,473,78,-434,158,275,-19,185,580,976,1546,1351
478,531,53,-505,212,292,-58,204,688,1205,1932,1717
600,619,19,-610,290,319,-82,219,771,1385,2239,2034
673,678,4,-675,334,341,-141,200,819,1551,2527,2318
722,756,34,-739,344,395,-175,204,858,1678,2747,2547
849,795,-53,-822,451,370,-195,190,814,1639,2732,2591
927,756,-170,-841,549,292,-239,117,658,1468,2493,2464
927,673,-253,-800,590,209,-287,24,492,1254,2176,2254
917,561,-356,-739,636,102,-302,-73,287,1019,1795,1932
888,448,-439,-668,663,4,-317,-190,53,751,1371,1542
819,336,-483,-578,651,-73,-322,-302,-165,488,976,1156
707,209,-497,-458,602,-143,-331,-414,-361,214,614,795
610,170,-439,-390,524,-134,-302,-488,-531,-53,336,522
502,209,-292,-356,397,-41,-244,-527,-629,-258,122,317
307,209,-97,-258,202,56,-195,-527,-688,-429,-78,102
151,219,68,-185,41,143,-122,-488,-702,-575,-244,-43
92,214,122,-153,-14,168,-82,-448,-702,-649,-341,-112
68,146,78,-107,-4,112,-102,-439,-692,-692,-409,-161
82,136,53,-109,14,95,-97,-405,-624,-639,-390,-151
117,175,58,-146,29,117,-68,-336,-536,-531,-317,-117
68,136,68,-102,0,102,-58,-287,-458,-458,-283,-117
48,141,92,-95,-21,117,-29,-219,-361,-375,-248,-117
117,190,73,-153,21,131,0,-146,-258,-278,-180,-87
107,175,68,-141,19,122,4,-117,-195,-224,-151,-92
48,107,58,-78,-4,82,9,-92,-151,-180,-141,-97
87,92,4,-90,41,48,34,-43,-97,-126,-117,-73
146,131,-14,-139,80,58,73,0,-48,-78,-87,-39
141,122,-19,-131,80,51,82,4,-39,-63,-78,-29
102,78,-24,-90,63,26,73,-4,-43,-63,-87,-48
117,97,-19,-107,68,39,82,29,-9,-53,-63,-29
156,117,-39,-136,97,39,102,63,19,-24,-34,-4
117,78,-39,-97,78,19,92,68,34,-9,-29,-14
63,43,-19,-53,41,12,87,63,58,9,-29,-19
92,63,-29,-78,61,17,97,73,68,29,-14,0
107,68,-39,-87,73,14,92,73,68,29,-14,-4
117,68,-48,-92,82,9,92,68,63,24,-19,-4
122,58,-63,-90,92,-2,97,63,63,19,-24,-14
122,53,-68,-87,95,-7,97,58,58,14,-43,-14
112,63,-48,-87,80,7,107,73,53,4,-43,-19
122,53,-68,-87,95,-7,112,78,53,4,-43,-19
122,53,-68,-87,95,-7,112,82,58,4,-29,-14
112,53,-58,-82,85,-2,107,82,63,14,-29,-9
122,53,-68,-87,95,-7,117,92,73,24,-24,-9
146,58,-87,-102,117,-14,117,92,73,24,-24,-9
146,58,-87,-102,117,-14,117,87,68,24,-29,-14
117,39,-78,-78,97,-19,117,87,63,19,-29,-19
131,48,-82,-90,107,-17,117,87,53,4,-43,-34
151,53,-97,-102,124,-21,112,87,58,4,-43,-39
136,53,-82,-95,109,-14,112,97,73,14,-34,-29
131,43,-87,-87,109,-21,112,97,73,19,-39,-34
126,34,-92,-80,109,-29,112,97,82,19,-29,-24
122,43,-78,-82,100,-17,112,97,82,29,-29,-24
117,43,-73,-80,95,-14,112,97,73,19,-34,-29
117,43,-73,-80,95,-14,117,102,73,19,-34,-29
131,58,-73,-95,102,-7,131,117,73,19,-34,-14
136,53,-82,-95,109,-14,131,117,73,19,-34,-14
141,48,-92,-95,117,-21,131,122,78,19,-34,-14
146,68,-78,-107,112,-4,136,122,87,29,-24,-9
141,53,-87,-97,114,-17,131,112,87,48,-14,-9
131,43,-87,-87,109,-21,122,107,82,39,-14,-9
126,39,-87,-82,107,-24,117,97,78,34,-19,-9
122,34,-87,-78,104,-26,112,92,78,34,-19,-9
117,14,-102,-65,109,-43,122,107,78,24,-29,-24
122,14,-107,-68,114,-46,122,107,73,19,-29,-24
117,14,-102,-65,109,-43,117,102,73,14,-29,-24
112,19,-92,-65,102,-36,117,102,78,19,-29,-24
102,34,-68,-68,85,-17,107,87,78,34,-29,-19
102,39,-63,-70,82,-12,107,82,78,34,-29,-19
92,39,-53,-65,73,-7,107,78,78,29,-29,-24
92,29,-63,-61,78,-17,107,63,68,24,-34,-29
112,39,-73,-75,92,-17,107,63,68,24,-24,-19
122,39,-82,-80,102,-21,107,68,68,24,-24,-19
131,39,-92,-85,112,-26,107,68,73,24,-24,-19
141,43,-97,-92,119,-26,112,68,78,24,-24,-19
136,53,-82,-95,109,-14,122,82,92,39,-4,-9
122,53,-68,-87,95,-7,112,82,97,48,0,4
126,53,-73,-90,100,-9,112,82,97,53,0,0
122,53,-68,-87,95,-7,112,82,97,53,0,4
107,48,-58,-78,82,-4,102,82,92,39,-4,-9
107,48,-58,-78,82,-4,102,82,87,39,-9,-19
122,43,-78,-82,100,-17,102,82,82,39,-19,-24
122,29,-92,-75,107,-31,92,78,78,39,-34,-29
122,34,-87,-78,104,-26,102,73,87,48,-29,-29
131,39,-92,-85,112,-26,102,73,87,48,-14,-24
112,53,-58,-82,85,-2,102,78,92,53,-4,-9
112,58,-53,-85,82,2,102,78,92,53,0,-4
122,43,-78,-82,100,-17,92,73,82,48,-14,-9
122,39,-82,-80,102,-21,92,68,73,39,-14,-9
126,24,-102,-75,114,-39,92,58,68,29,-19,-14
126,19,-107,-73,117,-43,92,53,63,24,-19,-14
126,29,-97,-78,112,-34,97,58,78,39,-4,0
122,34,-87,-78,104,-26,102,68,78,43,-4,4
122,39,-82,-80,102,-21,107,73,78,43,0,4
136,43,-92,-90,114,-24,112,78,78,43,9,4
122,24,-97,-73,109,-36,107,68,68,34,-4,-9
102,9,-92,-56,97,-41,107,68,68,34,-9,-14
117,14,-102,-65,109,-43,107,68,68,34,-14,-19
126,9,-117,-68,122,-53,107,68,68,39,-19,-24
102,9,-92,-56,97,-41,107,78,82,39,-9,-14
117,19,-97,-68,107,-39,107,82,87,43,-9,-14
122,19,-102,-70,112,-41,107,82,87,43,-9,-14
122,29,-92,-75,107,-31,107,82,87,43,-4,-4
112,4,-107,-58,109,-51,107,82,87,63,4,9
112,4,-107,-58,109,-51,112,87,92,63,4,9
122,9,-112,-65,117,-51,112,92,92,63,4,14
122,9,-112,-65,117,-51,112,92,97,63,0,14
97,9,-87,-53,92,-39,112,92,97,53,0,0
87,9,-78,-48,82,-34,112,92,97,63,0,0
102,14,-87,-58,95,-36,112,92,97,63,0,0
102,24,-78,-63,90,-26,112,92,107,78,0,4
112,19,-92,-65,102,-36,117,107,117,87,9,19
122,24,-97,-73,109,-36,107,112,117,87,14,24
131,34,-97,-82,114,-31,112,117,122,92,24,39
131,48,-82,-90,107,-17,117,122,126,102,29,48
151,39,-112,-95,131,-36,102,117,117,107,29,39
165,39,-126,-102,146,-43,102,117,126,112,34,48
175,39,-136,-107,156,-48,97,117,136,117,43,53
180,39,-141,-109,161,-51,92,117,141,131,43,53
161,34,-126,-97,143,-46,82,112,131,126,39,43
156,29,-126,-92,141,-48,82,112,131,112,34,39
161,43,-117,-102,139,-36,82,112,131,122,39,39
156,39,-117,-97,136,-39,82,107,131,117,34,39
156,34,-122,-95,139,-43,82,92,141,131,43,43
161,48,-112,-104,136,-31,82,92,151,136,53,58
161,53,-107,-107,134,-26,78,92,151,146,58,63
161,43,-117,-102,139,-36,68,92,146,146,58,68
170,43,-126,-107,148,-41,58,82,141,136,48,58
170,43,-126,-107,148,-41,53,82,146,141,58,63
175,48,-126,-112,151,-39,48,82,146,151,63,68
200,63,-136,-131,168,-36,43,87,146,156,73,63
219,63,-156,-141,187,-46,53,92,151,165,73,73
204,68,-136,-136,170,-34,48,97,156,165,73,73
204,78,-126,-141,165,-24,48,102,161,170,78,82
204,87,-117,-146,161,-14,48,107,165,170,78,82
200,78,-122,-139,161,-21,39,97,165,170,68,82
200,63,-136,-131,168,-36,34,92,175,180,73,87
195,48,-146,-122,170,-48,34,92,175,185,78,97
190,48,-141,-119,165,-46,34,102,180,190,82,97
180,53,-126,-117,153,-36,43,92,170,180,78,82
195,58,-136,-126,165,-39,43,92,170,180,73,82
209,68,-141,-139,175,-36,48,92,170,180,68,78
219,73,-146,-146,183,-36,48,92,170,185,68,78
209,68,-141,-139,175,-36,48,82,165,185,78,97
209,63,-146,-136,178,-41,48,82,165,190,82,97
204,53,-151,-129,178,-48,48,78,161,190,82,92
195,48,-146,-122,170,-48,34,78,161,190,82,92
185,58,-126,-122,156,-34,34,73,161,180,82,97
190,63,-126,-126,158,-31,34,68,161,195,87,107
195,63,-131,-129,163,-34,34,68,165,195,92,117
204,58,-146,-131,175,-43,29,63,165,185,92,122
204,48,-156,-126,180,-53,24,63,156,185,82,117
204,58,-146,-131,175,-43,24,63,156,185,82,112
204,58,-146,-131,175,-43,24,63,156,185,82,107
195,58,-136,-126,165,-39,24,63,156,185,82,102
204,82,-122,-143,163,-19,34,73,170,195,92,117
209,73,-136,-141,173,-31,34,73,175,195,97,117
224,73,-151,-148,187,-39,39,73,180,195,97,126
229,87,-141,-158,185,-26,39,73,185,195,97,126
224,92,-131,-158,178,-19,43,78,185,204,97,126
214,97,-117,-156,165,-9,43,82,185,204,97,126
229,117,-112,-173,170,2,53,87,190,204,102,136
234,131,-102,-183,168,14,53,92,190,204,102,136
219,112,-107,-165,163,2,48,82,195,204,112,126
219,107,-112,-163,165,-2,48,78,190,200,107,126
219,97,-122,-158,170,-12,48,78,190,204,107,126
219,107,-112,-163,165,-2,58,82,190,209,107,126
209,102,-107,-156,158,-2,48,82,175,185,92,136
200,97,-102,-148,151,-2,48,73,165,170,87,126
200,92,-107,-146,153,-7,48,73,161,165,82,117
190,87,-102,-139,146,-7,48,73,156,156,82,112
165,82,-82,-124,124,0,58,78,151,151,92,117
180,87,-92,-134,136,-2,58,82,151,151,97,126
195,82,-112,-139,153,-14,58,78,151,146,97,126
180,58,-122,-119,151,-31,58,78,151,146,107,126
180,53,-126,-117,153,-36,63,68,146,146,82,107
180,73,-107,-126,143,-17,63,68,131,146,78,102
180,82,-97,-131,139,-7,73,68,126,131,73,92
161,78,-82,-119,122,-2,63,53,102,117,58,73
146,63,-82,-104,114,-9,53,48,112,112,48,73
170,97,-73,-134,122,12,63,63,112,112,58,73
165,82,-82,-124,124,0,63,58,107,97,48,63
136,48,-87,-92,112,-19,68,43,97,92,29,58
122,58,-63,-90,92,-2,82,48,97,92,29,58
117,58,-58,-87,87,0,82,53,97,87,29,53
102,48,-53,-75,78,-2,82,58,92,82,24,43
87,43,-43,-65,65,0,87,63,92,78,24,39
97,43,-53,-70,75,-4,97,53,92,78,19,43
102,48,-53,-75,78,-2,97,58,97,68,19,43
131,58,-73,-95,102,-7,97,58,97,63,14,39
165,63,-102,-114,134,-19,97,53,87,58,4,34
156,63,-92,-109,124,-14,97,53,87,58,4,39
131,63,-68,-97,100,-2,102,58,92,58,4,39
122,68,-53,-95,87,7,102,63,92,58,9,39
112,68,-43,-90,78,12,92,63,82,58,0,24
122,78,-43,-100,82,17,92,63,92,58,-4,9
117,82,-34,-100,75,24,97,63,92,58,-4,9
117,82,-34,-100,75,24,102,63,92,48,-4,9
102,68,-34,-85,68,17,102,68,87,48,-9,9
102,53,-48,-78,75,2,102,68,87,58,0,14
107,53,-53,-80,80,0,102,68,78,58,0,24
122,73,-48,-97,85,12,102,68,78,53,4,29
131,82,-48,-107,90,17,102,68,78,53,4,29
117,58,-58,-87,87,0,97,63,87,53,-9,24
117,48,-68,-82,92,-9,97,58,87,48,-14,9
122,63,-58,-92,90,2,97,58,87,43,-24,4
146,68,-78,-107,112,-4,97,68,82,39,-29,-4
136,68,-68,-102,102,0,92,58,73,34,-39,-14
112,53,-58,-82,85,-2,92,53,68,34,-43,-14
92,43,-48,-68,70,-2,92,43,63,29,-43,-19
82,43,-39,-63,61,2,92,39,63,29,-48,-19
87,48,-39,-68,63,4,73,39,63,14,-58,-24
97,48,-48,-73,73,0,73,39,63,14,-63,-29
112,58,-53,-85,82,2,78,39,63,14,-63,-34
126,58,-68,-92,97,-4,78,43,68,24,-58,-39
126,53,-73,-90,100,-9,92,58,58,9,-68,-29
126,68,-58,-97,92,4,92,58,48,4,-68,-29
126,73,-53,-100,90,9,92,58,48,0,-63,-29
97,63,-34,-80,65,14,92,53,48,-4,-63,-29
87,58,-29,-73,58,14,97,43,48,4,-68,-34
102,68,-34,-85,68,17,102,43,53,4,-68,-34
107,63,-43,-85,75,9,107,43,53,4,-68,-34
107,53,-53,-80,80,0,112,43,53,0,-68,-34
122,48,-73,-85,97,-12,107,29,43,9,-63,-39
122,53,-68,-87,95,-7,102,29,43,14,-63,-39
117,68,-48,-92,82,9,97,29,43,19,-63,-39
117,73,-43,-95,80,14,92,34,48,19,-63,-39
112,63,-48,-87,80,7,87,29,43,4,-68,-39
107,58,-48,-82,78,4,87,29,43,4,-58,-29
102,43,-58,-73,80,-7,82,24,48,0,-53,-24
97,48,-48,-73,73,0,82,24,48,0,-43,-19
107,53,-53,-80,80,0,97,34,43,4,-39,-19
112,43,-68,-78,90,-12,97,34,43,4,-39,-19
102,43,-58,-73,80,-7,97,29,39,0,-43,-24
97,48,-48,-73,73,0,97,29,39,0,-43,-24
112,73,-39,-92,75,17,97,29,43,9,-43,-34
122,73,-48,-97,85,12,97,39,58,24,-39,-24
82,58,-24,-70,53,17,97,39,63,29,-34,-19
73,68,-4,-70,39,31,102,43,73,34,-29,-19
102,78,-24,-90,63,26,102,34,78,34,-39,-19
117,82,-34,-100,75,24,92,34,58,29,-34,-14
126,82,-43,-104,85,19,92,29,53,24,-29,-14
126,82,-43,-104,85,19,92,29,53,24,-24,-14
97,73,-24,-85,61,24,92,29,58,34,-19,-9
102,68,-34,-85,68,17,92,29,58,34,-14,-9
102,58,-43,-80,73,7,92,29,58,39,-14,-4
112,53,-58,-82,85,-2,92,39,63,39,-9,9
102,63,-39,-82,70,12,102,48,73,39,-4,0
107,58,-48,-82,78,4,102,39,73,34,-14,-9
97,48,-48,-73,73,0,82,19,63,43,-19,-19
97,58,-39,-78,68,9,78,19,58,29,-19,-19
112,63,-48,-87,80,7,87,29,58,39,-9,-14
117,68,-48,-92,82,9,87,29,58,39,-9,-9
122,73,-48,-97,85,12,87,29,58,39,-9,-4
126,78,-48,-102,87,14,87,29,58,39,-9,0
117,58,-58,-87,87,0,92,34,68,39,0,4
117,73,-43,-95,80,14,97,39,68,39,4,9
126,87,-39,-107,82,24,102,39,68,39,9,14
126,78,-48,-102,87,14,102,43,68,34,14,19
122,68,-53,-95,87,7,92,43,73,34,9,9
131,68,-63,-100,97,2,92,43,73,39,4,4
131,82,-48,-107,90,17,92,43,73,48,0,4
131,82,-48,-107,90,17,97,43,73,53,-4,0
131,63,-68,-97,100,-2,107,48,73,53,9,14
131,63,-68,-97,100,-2,112,53,73,53,14,19
131,68,-63,-100,97,2,112,58,73,53,19,24
131,68,-63,-100,97,2,107,58,73,53,24,29
126,73,-53,-100,90,9,117,68,87,68,34,29
126,73,-53,-100,90,9,122,68,92,73,39,29
122,73,-48,-97,85,12,122,73,97,78,39,29
117,73,-43,-95,80,14,117,73,102,82,43,29
122,63,-58,-92,90,2,102,68,87,73,24,24
126,68,-58,-97,92,4,107,68,87,58,24,14
131,87,-43,-109,87,21,112,73,92,63,24,9
131,92,-39,-112,85,26,97,78,92,58,24,4
122,97,-24,-109,73,36,107,78,102,73,29,19
126,92,-34,-109,80,29,107,73,102,78,34,19
126,82,-43,-104,85,19,102,73,102,78,39,24
126,78,-48,-102,87,14,102,78,102,82,39,29
131,58,-73,-95,102,-7,92,73,92,68,24,24
131,58,-73,-95,102,-7,92,68,87,63,19,19
136,63,-73,-100,104,-4,92,68,87,58,19,19
136,63,-73,-100,104,-4,92,63,92,53,19,14
146,82,-63,-114,104,9,102,63,92,63,29,24
146,87,-58,-117,102,14,102,68,92,63,24,24
146,87,-58,-117,102,14,102,68,92,63,24,24
136,92,-43,-114,90,24,97,73,92,63,24,24
146,87,-58,-117,102,14,97,73,78,48,14,14
146,78,-68,-112,107,4,97,73,78,39,9,9
141,82,-58,-112,100,12,102,73,78,34,4,4
136,63,-73,-100,104,-4,102,73,78,29,0,-4
141,73,-68,-107,104,2,117,78,82,34,9,-14
146,78,-68,-112,107,4,122,82,87,39,9,-9
156,92,-63,-124,109,14,126,92,92,43,9,-9
161,97,-63,-129,112,17,131,97,97,48,9,-9
151,82,-68,-117,109,7,122,92,87,39,0,0
141,68,-73,-104,107,-2,122,87,87,43,4,0
122,82,-39,-102,80,21,126,92,92,48,9,9
122,92,-29,-107,75,31,136,87,92,48,9,9
112,78,-34,-95,73,21,112,73,87,43,-4,-4
122,73,-48,-97,85,12,107,63,82,43,-4,-14
112,63,-48,-87,80,7,102,53,78,43,-4,-14
112,58,-53,-85,82,2,97,43,73,43,-4,-14
117,73,-43,-95,80,14,107,53,73,39,-4,-24
122,73,-48,-97,85,12,107,53,73,34,-4,-24
126,78,-48,-102,87,14,107,53,73,29,-9,-24
131,87,-43,-109,87,21,117,58,78,24,-9,-19
117,73,-43,-95,80,14,107,48,78,34,-4,-19
112,73,-39,-92,75,17,107,48,82,34,-4,-19
107,68,-39,-87,73,14,107,43,82,34,-4,-19
102,63,-39,-82,70,12,102,43,78,34,-4,-19
112,78,-34,-95,73,21,112,58,87,34,4,-14
117,82,-34,-100,75,24,107,58,87,34,4,-9
112,87,-24,-100,68,31,107,58,87,34,4,-4
126,102,-24,-114,75,39,122,63,87,34,4,0
136,87,-48,-112,92,19,107,58,73,29,-4,-14
131,78,-53,-104,92,12,102,43,68,24,-4,-19
131,73,-58,-102,95,7,97,39,63,19,-4,-24
131,68,-63,-100,97,2,92,34,58,14,-4,-29
126,58,-68,-92,97,-4,102,43,53,19,-9,-34
122,58,-63,-90,92,-2,102,48,58,19,-14,-34
117,48,-68,-82,92,-9,102,48,68,19,-14,-34
112,58,-53,-85,82,2,102,48,73,19,-9,-34
122,78,-43,-100,82,17,102,48,63,9,-14,-43
117,58,-58,-87,87,0,97,48,63,9,-19,-43
117,68,-48,-92,82,9,97,48,63,9,-24,-43
122,68,-53,-95,87,7,97,43,63,9,-29,-43
122,63,-58,-92,90,2,107,53,63,9,-24,-39
122,63,-58,-92,90,2,107,58,63,9,-24,-39
126,58,-68,-92,97,-4,107,58,63,9,-24,-34
141,53,-87,-97,114,-17,107,58,58,9,-24,-34
141,73,-68,-107,104,2,112,58,58,9,-19,-39
136,82,-53,-109,95,14,112,58,58,9,-19,-39
122,68,-53,-95,87,7,112,48,58,9,-19,-43
112,68,-43,-90,78,12,112,43,53,9,-24,-53
107,53,-53,-80,80,0,117,48,63,4,-24,-43
107,53,-53,-80,80,0,117,53,63,4,-24,-43
107,48,-58,-78,82,-4,117,63,63,4,-24,-43
107,48,-58,-78,82,-4,122,68,68,9,-24,-39
117,48,-68,-82,92,-9,112,73,68,19,-14,-34
126,53,-73,-90,100,-9,112,73,73,19,-9,-29
126,53,-73,-90,100,-9,112,73,73,19,-9,-29
117,53,-63,-85,90,-4,112,68,73,19,-19,-29
165,63,-102,-114,134,-19,122,87,82,39,-4,-19
107,24,-82,-65,95,-29,122,87,87,29,-24,-39
112,24,-87,-68,100,-31,122,92,102,43,-14,-53
122,53,-68,-87,95,-7,131,112,146,97,34,-34
112,141,29,-126,41,85,151,156,219,219,195,87
161,219,58,-190,51,139,122,161,292,346,429,287
229,287,58,-258,85,173,78,165,356,497,722,536
287,361,73,-324,107,217,48,175,448,707,1093,868
326,424,97,-375,114,261,4,170,541,927,1522,1244
375,512,136,-444,119,324,-29,185,649,1151,1966,1634
497,629,131,-563,183,380,-58,214,775,1410,2391,2000
629,746,117,-688,256,431,-102,229,858,1600,2757,2337
712,814,102,-763,305,458,-141,209,868,1717,3015,2610
741,795,53,-768,344,424,-195,195,858,1747,3069,2732
800,756,-43,-778,422,356,-234,151,756,1629,2888,2679
888,717,-170,-802,529,273,-278,48,580,1429,2591,2513
897,624,-273,-761,585,175,-297,-34,405,1215,2235,2254
858,531,-326,-695,592,102,-263,-92,229,990,1815,1893
829,448,-380,-639,605,34,-258,-180,-4,702,1361,1473
751,307,-444,-529,597,-68,-292,-312,-244,390,917,1058
619,229,-390,-424,505,-80,-283,-385,-400,126,566,717
473,229,-244,-351,358,-7,-234,-448,-531,-102,287,463
326,239,-87,-283,207,75,-195,-488,-629,-317,43,219
200,278,78,-239,61,178,-107,-458,-649,-478,-136,34
82,229,146,-156,-31,187,-63,-419,-663,-614,-273,-82
34,175,141,-104,-53,158,-73,-409,-683,-707,-380,-161
87,214,126,-151,-19,170,-53,-370,-634,-673,-370,-170
102,204,102,-153,0,153,-48,-336,-556,-570,-322,-161
58,146,87,-102,-14,117,-58,-297,-478,-492,-287,-165
87,175,87,-131,0,131,-29,-229,-380,-409,-253,-165
117,200,82,-158,17,141,-19,-200,-302,-346,-219,-156
68,170,102,-119,-17,136,-9,-175,-239,-278,-190,-146
58,165,107,-112,-24,136,24,-126,-165,-195,-122,-112
97,146,48,-122,24,97,39,-102,-122,-141,-92,-97
107,122,14,-114,46,68,43,-92,-97,-117,-78,-82
97,92,-4,-95,51,43,43,-68,-68,-97,-58,-78
82,63,-19,-73,51,21,53,-43,-48,-82,-58,-68
112,78,-34,-95,73,21,82,-4,-24,-63,-39,-48
136,97,-39,-117,87,29,82,9,0,-53,-34,-48
126,78,-48,-102,87,14,63,14,0,-43,-43,-63
97,78,-19,-87,58,29,82,29,24,-29,-29,-53
73,43,-29,-58,51,7,78,14,19,-29,-29,-58
82,24,-58,-53,70,-17,68,4,19,-29,-24,-58
112,63,-48,-87,80,7,87,19,39,-14,-4,-48
136,78,-58,-107,97,9,92,29,43,-4,0,-43
156,82,-73,-119,114,4,102,39,53,4,4,-48
170,92,-78,-131,124,7,107,48,58,14,-4,-43
156,82,-73,-119,114,4,102,48,53,4,-4,-48
151,63,-87,-107,119,-12,102,48,53,4,-4,-48
136,53,-82,-95,109,-14,97,48,58,4,9,-43
112,43,-68,-78,90,-12,87,43,63,14,9,-39
112,53,-58,-82,85,-2,97,53,63,14,4,-39
136,58,-78,-97,107,-9,97,53,63,14,4,-39
136,58,-78,-97,107,-9,97,48,58,14,0,-43
107,39,-68,-73,87,-14,97,48,53,9,0,-48
122,43,-78,-82,100,-17,97,58,53,4,0,-39
141,43,-97,-92,119,-26,92,58,58,4,4,-39
126,39,-87,-82,107,-24,92,68,73,14,19,-24
122,24,-97,-73,109,-36,92,68,73,19,19,-24
122,39,-82,-80,102,-21,97,78,78,24,29,-34
122,53,-68,-87,95,-7,102,78,82,39,29,-34
122,58,-63,-90,92,-2,107,78,78,34,24,-39
126,63,-63,-95,95,0,117,82,82,39,24,-39
126,63,-63,-95,95,0,107,82,87,29,14,-34
126,53,-73,-90,100,-9,102,78,82,29,14,-34
126,43,-82,-85,104,-19,97,78,82,29,14,-34
126,58,-68,-92,97,-4,97,73,87,39,24,-29
136,68,-68,-102,102,0,102,73,97,48,24,-39
131,63,-68,-97,100,-2,102,78,92,39,24,-39
131,63,-68,-97,100,-2,107,78,87,34,19,-39
131,63,-68,-97,100,-2,112,82,87,34,19,-39
136,63,-73,-100,104,-4,122,97,87,29,29,-39
151,63,-87,-107,119,-12,122,97,82,29,29,-34
156,63,-92,-109,124,-14,117,92,82,29,29,-29
161,68,-92,-114,126,-12,117,92,87,39,29,-24
161,58,-102,-109,131,-21,107,82,78,43,34,-14
161,58,-102,-109,131,-21,107,82,78,43,39,-9
151,53,-97,-102,124,-21,107,82,78,39,43,-9
151,39,-112,-95,131,-36,107,73,68,34,43,-9
146,43,-102,-95,124,-29,97,63,53,19,29,-14
141,39,-102,-90,122,-31,97,68,48,14,24,-19
136,34,-102,-85,119,-34,97,68,48,9,19,-24
131,34,-97,-82,114,-31,102,68,48,4,14,-29
136,39,-97,-87,117,-29,122,73,68,24,29,-14
131,43,-87,-87,109,-21,112,73,68,29,39,-4
146,48,-97,-97,122,-24,112,73,63,29,43,-14
151,53,-97,-102,124,-21,112,73,58,24,48,-14
136,63,-73,-100,104,-4,122,78,63,24,58,-4
136,68,-68,-102,102,0,122,82,68,29,58,-9
151,68,-82,-109,117,-7,122,87,73,34,53,-9
151,58,-92,-104,122,-17,112,87,78,39,43,-9
151,48,-102,-100,126,-26,102,73,87,43,43,-14
161,48,-112,-104,136,-31,102,73,87,48,53,-14
141,58,-82,-100,112,-12,102,78,92,58,58,-4
141,58,-82,-100,112,-12,102,78,92,63,58,-4
146,58,-87,-102,117,-14,107,92,97,63,58,0
151,58,-92,-104,122,-17,112,97,92,58,63,0
161,48,-112,-104,136,-31,117,97,92,53,63,-4
165,48,-117,-107,141,-34,122,102,92,53,68,-4
161,53,-107,-107,134,-26,122,92,97,58,73,0
151,53,-97,-102,124,-21,122,97,97,63,73,4
146,53,-92,-100,119,-19,122,97,97,63,78,4
156,53,-102,-104,129,-24,122,97,97,63,87,4
161,53,-107,-107,134,-26,107,97,97,63,87,4
151,48,-102,-100,126,-26,107,97,97,63,87,4
175,63,-112,-119,143,-24,107,97,97,63,87,4
195,68,-126,-131,161,-29,107,97,97,68,87,4
156,53,-102,-104,129,-24,117,87,102,68,87,14
165,58,-107,-112,136,-24,117,92,107,73,87,14
165,53,-112,-109,139,-29,117,92,107,73,87,14
161,58,-102,-109,131,-21,117,92,107,73,92,24
165,48,-117,-107,141,-34,112,87,97,82,112,29
170,53,-117,-112,143,-31,112,87,102,82,112,29
185,63,-122,-124,153,-29,107,87,102,82,112,34
190,68,-122,-129,156,-26,102,82,107,82,107,34
185,68,-117,-126,151,-24,102,73,107,73,117,29
175,68,-107,-122,141,-19,102,73,107,82,117,29
190,73,-117,-131,153,-21,102,73,107,82,117,29
190,82,-107,-136,148,-12,102,73,117,97,117,34
180,68,-112,-124,146,-21,102,78,117,107,131,43
190,63,-126,-126,158,-31,87,82,117,107,131,43
200,63,-136,-131,168,-36,87,87,122,112,136,53
200,68,-131,-134,165,-31,87,92,126,122,136,58
200,78,-122,-139,161,-21,97,102,136,126,151,63
204,78,-126,-141,165,-24,102,107,146,131,161,78
204,78,-126,-141,165,-24,102,112,156,136,175,87
200,78,-122,-139,161,-21,102,117,161,151,180,92
204,68,-136,-136,170,-34,97,107,161,156,180,87
204,68,-136,-136,170,-34,92,112,161,151,180,87
214,87,-126,-151,170,-19,87,117,161,170,190,92
214,87,-126,-151,170,-19,82,117,161,175,190,97
219,87,-131,-153,175,-21,73,102,161,175,200,107
229,97,-131,-163,180,-17,73,102,170,175,209,117
234,97,-136,-165,185,-19,68,102,170,180,214,117
239,82,-156,-161,197,-36,58,102,165,175,214,117
239,92,-146,-165,192,-26,53,92,156,180,214,122
239,92,-146,-165,192,-26,53,92,165,190,224,131
244,97,-146,-170,195,-24,53,92,170,204,229,141
268,112,-156,-190,212,-21,53,97,175,214,239,141
268,107,-161,-187,214,-26,43,92,175,214,248,141
253,107,-146,-180,200,-19,39,87,175,214,248,141
253,112,-141,-183,197,-14,39,82,175,219,253,151
253,117,-136,-185,195,-9,39,78,175,219,253,151
263,122,-141,-192,202,-9,48,82,180,229,263,156
268,122,-146,-195,207,-12,43,82,195,239,268,165
268,122,-146,-195,207,-12,43,87,200,244,273,180
268,136,-131,-202,200,2,43,102,209,248,278,185
268,136,-131,-202,200,2,43,102,200,248,287,185
283,136,-146,-209,214,-4,43,102,200,248,287,190
297,141,-156,-219,226,-7,48,102,200,248,287,190
307,141,-165,-224,236,-12,48,102,200,253,292,195
292,141,-151,-217,222,-4,43,112,195,244,287,204
287,141,-146,-214,217,-2,48,112,195,248,287,204
278,136,-141,-207,209,-2,53,107,190,248,283,200
263,136,-126,-200,195,4,43,107,190,248,278,200
273,136,-136,-204,204,0,43,102,190,244,268,190
278,141,-136,-209,207,2,43,97,190,253,273,195
283,141,-141,-212,212,0,43,97,195,248,278,200
292,136,-156,-214,224,-9,39,92,195,234,278,200
297,141,-156,-219,226,-7,48,97,195,244,287,209
292,156,-136,-224,214,9,53,102,195,244,287,209
287,161,-126,-224,207,17,58,107,195,244,287,209
273,165,-107,-219,190,29,63,112,195,244,287,209
273,165,-107,-219,190,29,53,112,195,244,287,214
278,151,-126,-214,202,12,53,112,195,244,292,214
292,146,-146,-219,219,0,58,112,195,244,292,224
297,156,-141,-226,219,7,58,112,195,244,292,224
287,151,-136,-219,212,7,63,122,204,244,283,219
273,156,-117,-214,195,19,63,122,204,244,283,214
283,175,-107,-229,195,34,73,122,209,244,287,219
283,190,-92,-236,187,48,73,122,209,244,287,214
268,170,-97,-219,183,36,58,112,195,229,283,204
268,165,-102,-217,185,31,58,107,190,219,273,195
268,156,-112,-212,190,21,58,107,190,219,268,185
268,165,-102,-217,185,31,68,112,190,219,263,175
248,161,-87,-204,168,36,68,112,180,200,248,175
239,156,-82,-197,161,36,68,102,175,190,244,165
239,151,-87,-195,163,31,68,102,175,190,239,156
229,146,-82,-187,156,31,68,102,175,185,239,151
224,156,-68,-190,146,43,87,112,165,175,229,146
239,165,-73,-202,156,46,87,112,161,170,224,146
253,165,-87,-209,170,39,87,102,156,161,214,136
239,146,-92,-192,165,26,87,97,151,156,214,126
214,131,-82,-173,148,24,82,97,151,151,190,107
209,141,-68,-175,139,36,82,97,141,146,185,102
204,141,-63,-173,134,39,92,97,141,126,180,92
180,126,-53,-153,117,36,82,82,122,107,165,73
195,126,-68,-161,131,29,92,92,131,102,156,82
229,165,-63,-197,146,51,102,112,131,102,165,82
234,156,-78,-195,156,39,102,112,126,87,156,73
214,126,-87,-170,151,19,107,102,117,82,136,68
200,131,-68,-165,134,31,102,87,102,73,126,63
195,126,-68,-161,131,29,102,82,97,68,126,53
180,112,-68,-146,124,21,102,78,87,63,122,39
165,102,-63,-134,114,19,107,73,82,58,122,29
165,107,-58,-136,112,24,102,58,78,48,107,24
151,107,-43,-129,97,31,97,58,78,39,107,24
161,112,-48,-136,104,31,92,53,73,34,102,19
175,112,-63,-143,119,24,87,43,58,29,92,14
200,117,-82,-158,141,17,97,43,68,34,92,14
190,122,-68,-156,129,26,102,48,73,39,92,19
195,131,-63,-163,129,34,102,53,73,43,97,24
200,136,-63,-168,131,36,92,53,63,48,87,14
190,126,-63,-158,126,31,92,53,63,43,82,0
185,131,-53,-158,119,39,97,53,63,39,82,0
185,131,-53,-158,119,39,102,53,63,24,82,0
170,117,-53,-143,112,31,102,58,58,19,78,0
180,102,-78,-141,129,12,92,58,63,24,78,0
185,102,-82,-143,134,9,92,58,58,29,78,4
200,122,-78,-161,139,21,92,58,63,29,82,4
209,131,-78,-170,143,26,92,58,68,34,82,0
180,126,-53,-153,117,36,92,63,78,43,78,4
175,117,-58,-146,117,29,97,58,78,39,82,0
175,131,-43,-153,109,43,102,58,78,34,82,4
195,136,-58,-165,126,39,107,68,73,29,87,4
195,126,-68,-161,131,29,107,58,63,24,78,-4
180,112,-68,-146,124,21,102,53,58,24,73,-4
170,102,-68,-136,119,17,97,43,53,19,73,-9
170,102,-68,-136,119,17,92,39,53,19,68,-9
165,102,-63,-134,114,19,87,43,63,24,73,-9
165,107,-58,-136,112,24,92,48,63,24,73,-9
170,122,-48,-146,109,36,102,53,63,24,78,-9
175,126,-48,-151,112,39,107,63,68,34,87,-9
185,117,-68,-151,126,24,102,63,63,19,82,-9
185,126,-58,-156,122,34,102,58,48,14,78,-9
185,126,-58,-156,122,34,102,53,43,9,78,-9
156,112,-43,-134,100,34,102,43,39,4,73,-9
165,102,-63,-134,114,19,112,48,48,14,87,4
180,117,-63,-148,122,26,112,53,53,14,87,4
185,117,-68,-151,126,24,112,58,53,14,87,4
185,112,-73,-148,129,19,112,63,53,9,87,4
180,102,-78,-141,129,12,107,48,48,0,73,-14
180,102,-78,-141,129,12,102,48,43,4,73,-19
175,112,-63,-143,119,24,97,48,39,9,73,-24
175,112,-63,-143,119,24,92,53,39,9,73,-29
175,117,-58,-146,117,29,107,53,43,9,78,-19
175,117,-58,-146,117,29,107,58,43,14,87,-9
175,107,-68,-141,122,19,102,58,48,14,92,-4
175,117,-58,-146,117,29,102,63,48,19,102,0
165,126,-39,-146,102,43,117,68,63,24,107,0
161,112,-48,-136,104,31,117,73,63,24,107,0
141,107,-34,-124,87,36,117,73,58,19,102,-4
126,107,-19,-117,73,43,117,78,58,19,102,-4
165,122,-43,-143,104,39,107,68,58,24,102,4
190,122,-68,-156,129,26,107,78,68,34,107,14
165,107,-58,-136,112,24,107,78,68,34,112,19
170,117,-53,-143,112,31,112,82,73,34,117,19
180,122,-58,-151,119,31,122,92,92,39,126,19
185,122,-63,-153,124,29,112,92,78,39,131,24
185,117,-68,-151,126,24,112,87,78,39,136,24
175,112,-63,-143,119,24,112,87,82,43,141,24
165,117,-48,-141,107,34,122,97,97,53,136,29
180,126,-53,-153,117,36,122,97,97,53,141,29
190,131,-58,-161,124,36,122,97,97,58,141,34
209,141,-68,-175,139,36,122,107,102,58,146,48
219,146,-73,-183,146,36,131,112,112,63,156,58
214,136,-78,-175,146,29,131,117,112,73,161,58
214,151,-63,-183,139,43,131,122,112,78,180,58
224,161,-63,-192,143,48,131,126,112,82,185,58
219,151,-68,-185,143,41,122,117,97,82,170,48
200,141,-58,-170,129,41,122,117,102,78,165,48
195,131,-63,-163,129,34,117,117,97,73,161,48
185,126,-58,-156,122,34,117,117,92,68,156,39
175,122,-53,-148,114,34,122,107,92,73,170,53
190,122,-68,-156,129,26,122,107,92,63,170,53
180,112,-68,-146,124,21,117,102,82,58,165,53
180,107,-73,-143,126,17,117,102,82,58,165,53
180,117,-63,-148,122,26,131,102,82,68,170,43
185,122,-63,-153,124,29,131,107,87,68,165,43
185,122,-63,-153,124,29,131,107,87,73,161,43
195,122,-73,-158,134,24,131,107,87,78,161,43
195,156,-39,-175,117,58,136,112,102,78,175,43
200,151,-48,-175,124,51,136,112,102,78,175,43
204,156,-48,-180,126,53,136,112,102,73,170,43
214,161,-53,-187,134,53,136,112,97,73,170,43
224,151,-73,-187,148,39,131,102,92,68,170,53
214,146,-68,-180,141,39,126,97,92,68,170,53
209,141,-68,-175,139,36,122,87,87,63,170,53
209,131,-78,-170,143,26,112,68,78,53,161,53
195,136,-58,-165,126,39,122,78,87,48,165,68
190,136,-53,-163,122,41,122,78,87,43,170,73
190,141,-48,-165,119,46,117,78,87,48,175,73
190,146,-43,-168,117,51,117,78,82,48,175,68
190,141,-48,-165,119,46,107,78,87,63,175,58
175,141,-34,-158,104,53,102,78,87,73,175,53
204,165,-39,-185,122,63,102,78,87,78,175,53
219,156,-63,-187,141,46,97,73,87,73,170,53
204,141,-63,-173,134,39,97,82,87,63,180,63
195,165,-29,-180,112,68,97,87,92,68,180,63
214,170,-43,-192,129,63,97,87,92,68,180,63
204,161,-43,-183,124,58,92,78,82,58,165,58
204,146,-58,-175,131,43,82,73,63,43,161,43
204,141,-63,-173,134,39,87,73,63,43,161,43
214,151,-63,-183,139,43,92,73,73,53,165,48
224,146,-78,-185,151,34,92,68,73,53,161,48
224,151,-73,-187,148,39,102,68,73,53,156,48
219,156,-63,-187,141,46,102,73,73,53,161,48
219,161,-58,-190,139,51,102,73,73,39,156,48
200,146,-53,-173,126,46,102,68,58,39,151,48
200,151,-48,-175,124,51,92,68,58,29,156,39
214,165,-48,-190,131,58,97,68,63,43,151,34
200,146,-53,-173,126,46,97,63,63,34,141,19
190,131,-58,-161,124,36,97,63,53,29,136,9
195,131,-63,-163,129,34,97,73,53,19,146,14
195,131,-63,-163,129,34,97,78,53,19,146,34
195,131,-63,-163,129,34,97,78,53,14,141,29
195,126,-68,-161,131,29,92,73,48,14,136,24
209,126,-82,-168,146,21,92,68,39,4,131,19
209,126,-82,-168,146,21,97,68,43,4,126,9
209,122,-87,-165,148,17,97,68,43,9,112,4
204,112,-92,-158,148,9,97,68,43,14,97,0
204,122,-82,-163,143,19,107,73,53,19,102,9
185,122,-63,-153,124,29,102,73,48,9,107,9
165,122,-43,-143,104,39,97,73,48,0,112,9
185,151,-34,-168,109,58,92,68,48,19,122,9
195,126,-68,-161,131,29,102,78,48,19,122,9
195,117,-78,-156,136,19,102,78,48,9,117,9
195,117,-78,-156,136,19,102,78,48,9,112,4
195,112,-82,-153,139,14,97,78,53,19,112,4
195,122,-73,-158,134,24,97,78,53,9,107,0
195,122,-73,-158,134,24,97,78,53,9,107,-4
195,126,-68,-161,131,29,107,82,53,9,112,-4
204,126,-78,-165,141,24,107,82,53,9,117,-4
204,136,-68,-170,136,34,97,73,39,0,117,4
195,131,-63,-163,129,34,97,73,39,0,112,4
190,122,-68,-156,129,26,97,73,43,0,112,9
190,122,-68,-156,129,26,97,73,43,4,112,9
204,122,-82,-163,143,19,87,63,43,4,102,-4
204,122,-82,-163,143,19,87,63,43,4,102,-4
195,122,-73,-158,134,24,92,63,43,4,107,-4
195,126,-68,-161,131,29,92,63,43,0,107,-4
190,126,-63,-158,126,31,92,68,43,0,102,-4
190,136,-53,-163,122,41,92,73,43,9,102,4
190,136,-53,-163,122,41,97,82,48,9,102,4
190,126,-63,-158,126,31,97,87,48,4,97,0
204,131,-73,-168,139,29,102,97,58,0,102,0
219,151,-68,-185,143,41,112,102,63,19,107,4
229,165,-63,-197,146,51,117,102,63,24,112,4
209,161,-48,-185,129,56,122,102,63,24,117,0
175,131,-43,-153,109,43,126,107,68,34,107,9
185,141,-43,-163,114,48,126,107,68,34,122,14
204,165,-39,-185,122,63,126,117,73,39,131,14
204,156,-48,-180,126,53,126,117,73,39,136,9
190,146,-43,-168,117,51,136,107,73,29,131,0
185,141,-43,-163,114,48,136,112,73,29,126,0
165,126,-39,-146,102,43,136,112,73,29,117,4
146,112,-34,-129,90,39,141,117,73,29,107,4
175,126,-48,-151,112,39,151,131,73,34,117,4
209,141,-68,-175,139,36,141,131,78,34,117,9
239,161,-78,-200,158,41,141,136,82,29,117,9
258,185,-73,-222,165,56,156,141,87,29,122,9
229,170,-58,-200,143,56,165,141,92,34,122,4
204,161,-43,-183,124,58,165,141,92,34,122,4
190,146,-43,-168,117,51,156,141,87,34,117,0
195,156,-39,-175,117,58,156,141,87,24,117,0
204,146,-58,-175,131,43,141,136,82,24,117,4
185,146,-39,-165,112,53,141,131,82,24,117,4
175,136,-39,-156,107,48,146,126,78,24,117,-4
165,126,-39,-146,102,43,151,122,78,24,117,-4
170,141,-29,-156,100,56,141,112,68,24,117,4
185,141,-43,-163,114,48,141,112,63,19,112,-4
190,126,-63,-158,126,31,131,107,63,14,107,-14
180,126,-53,-153,117,36,131,107,63,14,107,-4
190,156,-34,-173,112,61,146,131,78,24,122,0
195,156,-39,-175,117,58,151,131,78,24,122,4
190,151,-39,-170,114,56,151,131,73,24,122,4
180,151,-29,-165,104,61,146,131,73,29,122,4
200,161,-39,-180,119,61,146,131,82,39,131,14
200,170,-29,-185,114,70,141,131,82,39,131,24
195,146,-48,-170,122,48,131,122,73,29,131,14
209,165,-43,-187,126,61,136,131,92,48,146,24
224,195,-29,-209,126,82,146,146,107,58,156,29
204,185,-19,-195,112,82,131,131,92,53,151,19
195,175,-19,-185,107,78,126,126,87,48,146,19
185,165,-19,-175,102,73,122,122,82,43,141,19
175,156,-19,-165,97,68,117,117,78,39,136,19
185,141,-43,-163,114,48,112,107,73,34,122,14
185,151,-34,-168,109,58,107,97,68,29,122,9
195,161,-34,-178,114,63,102,82,63,24,122,4
195,146,-48,-170,122,48,92,73,58,14,122,0
190,146,-43,-168,117,51,87,68,43,9,122,4
209,146,-63,-178,136,41,82,63,43,9,122,4
219,161,-58,-190,139,51,78,58,43,14,122,9
229,161,-68,-195,148,46,78,53,43,14,122,9
209,141,-68,-175,139,36,78,53,39,9,112,0
209,141,-68,-175,139,36,82,53,34,4,112,0
209,146,-63,-178,136,41,82,53,29,0,112,0
209,146,-63,-178,136,41,78,48,24,-4,112,0
204,141,-63,-173,134,39,68,48,34,4,117,0
204,141,-63,-173,134,39,73,48,34,4,117,0
200,141,-58,-170,129,41,73,53,34,4,112,0
195,141,-53,-168,124,43,68,53,34,4,112,0
185,126,-58,-156,122,34,58,48,29,0,112,-9
185,126,-58,-156,122,34,68,48,29,-9,112,-14
185,141,-43,-163,114,48,78,53,34,0,112,-14
180,141,-39,-161,109,51,68,58,34,0,112,-14
185,141,-43,-163,114,48,73,68,43,9,112,-9
195,141,-53,-168,124,43,78,63,43,9,112,-9
200,136,-63,-168,131,36,78,63,43,4,112,-4
204,136,-68,-170,136,34,82,68,43,4,107,0
190,136,-53,-163,122,41,92,78,43,4,107,-9
190,136,-53,-163,122,41,92,78,39,4,107,-9
195,141,-53,-168,124,43,92,82,39,4,112,-4
195,141,-53,-168,124,43,92,82,43,4,117,-4
200,136,-63,-168,131,36,92,87,43,-4,107,-4
204,136,-68,-170,136,34,92,87,43,-4,102,-4
209,131,-78,-170,143,26,92,82,43,-4,102,-4
204,131,-73,-168,139,29,87,82,43,-4,102,-4
209,146,-63,-178,136,41,92,92,43,0,102,0
214,146,-68,-180,141,39,97,92,48,0,107,0
214,161,-53,-187,134,53,107,92,53,4,112,0
214,151,-63,-183,139,43,112,92,58,9,117,-4
204,146,-58,-175,131,43,112,102,58,9,107,-4
204,146,-58,-175,131,43,112,102,58,9,107,0
209,156,-53,-183,131,51,112,107,58,9,107,0
209,156,-53,-183,131,51,112,107,58,9,107,0
200,161,-39,-180,119,61,122,117,68,19,117,9
200,146,-53,-173,126,46,122,117,68,24,122,9
190,161,-29,-175,109,65,126,126,73,29,126,19
200,170,-29,-185,114,70,136,126,73,29,126,19
204,161,-43,-183,124,58,117,122,63,14,112,4
219,161,-58,-190,139,51,117,122,63,14,112,-4
214,156,-58,-185,136,48,117,122,63,14,112,-4
219,156,-63,-187,141,46,117,122,63,14,112,-4
209,165,-43,-187,126,61,131,126,78,19,117,0
209,161,-48,-185,129,56,136,131,82,24,122,4
209,161,-48,-185,129,56,141,136,87,29,122,9
209,165,-43,-187,126,61,156,146,97,34,126,19
219,165,-53,-192,136,56,156,156,87,43,122,9
219,170,-48,-195,134,61,156,156,92,43,122,9
219,170,-48,-195,134,61,156,151,92,43,122,9
219,170,-48,-195,134,61,151,151,87,43,122,9
219,161,-58,-190,139,51,151,146,87,34,117,9
214,161,-53,-187,134,53,146,146,87,34,112,9
200,161,-39,-180,119,61,146,146,87,34,107,9
204,170,-34,-187,119,68,161,151,87,34,102,9
209,175,-34,-192,122,70,141,141,78,34,112,9
209,175,-34,-192,122,70,141,131,78,34,112,9
214,180,-34,-197,124,73,141,131,78,34,112,9
219,185,-34,-202,126,75,141,131,78,34,112,9
209,180,-29,-195,119,75,131,117,58,19,97,4
209,175,-34,-192,122,70,131,117,58,19,92,4
209,161,-48,-185,129,56,131,112,63,19,92,4
209,165,-43,-187,126,61,131,107,63,19,97,4
219,165,-53,-192,136,56,122,97,53,9,87,-4
214,146,-68,-180,141,39,117,97,53,9,87,-4
214,156,-58,-185,136,48,117,97,53,9,87,-4
219,156,-63,-187,141,46,117,92,53,9,87,-4
209,146,-63,-178,136,41,107,82,53,9,82,-9
200,151,-48,-175,124,51,107,87,53,9,82,-9
195,151,-43,-173,119,53,107,87,53,9,82,-4
200,151,-48,-175,124,51,107,87,48,9,82,-4
209,175,-34,-192,122,70,112,97,63,14,87,0
214,190,-24,-202,119,82,112,97,68,19,87,9
209,180,-29,-195,119,75,112,87,73,24,87,14
209,185,-24,-197,117,80,112,82,73,29,82,14
204,180,-24,-192,114,78,107,92,63,24,82,14
204,180,-24,-192,114,78,107,92,63,24,82,14
204,175,-29,-190,117,73,107,97,63,24,82,14
204,175,-29,-190,117,73,112,97,68,29,82,19
195,175,-19,-185,107,78,122,102,68,19,78,14
204,180,-24,-192,114,78,122,102,73,19,78,9
204,180,-24,-192,114,78,122,102,73,19,73,0
195,180,-14,-187,104,82,122,97,73,19,58,-9
224,180,-43,-202,134,68,131,117,82,19,43,-9
234,190,-43,-212,139,73,131,117,78,19,34,-29
239,200,-39,-219,139,80,141,122,102,53,53,-14
209,190,-19,-200,114,85,141,141,136,87,92,4
219,219,0,-219,109,109,131,146,170,151,175,78
229,248,19,-239,104,134,92,141,204,258,370,229
219,307,87,-263,65,197,87,165,297,429,644,468
307,429,122,-368,92,275,78,204,419,649,985,771
453,551,97,-502,178,324,24,200,502,868,1376,1107
522,619,97,-570,212,358,-19,204,610,1093,1790,1459
566,697,131,-631,217,414,-48,244,727,1332,2156,1795
639,785,146,-712,246,466,-63,258,819,1542,2493,2093
722,854,131,-788,295,492,-112,248,858,1678,2762,2366
800,834,34,-817,383,434,-175,204,829,1717,2874,2508
868,834,-34,-851,451,400,-214,161,727,1639,2781,2503
966,824,-141,-895,553,341,-248,97,580,1488,2552,2405
1005,712,-292,-858,649,209,-307,-14,366,1244,2215,2176
985,590,-395,-788,690,97,-322,-112,122,971,1805,1854
936,507,-429,-722,683,39,-307,-200,-82,712,1400,1493
858,375,-483,-617,671,-53,-322,-312,-283,448,995,1117
766,287,-478,-527,622,-95,-331,-414,-468,195,653,795
688,258,-429,-473,558,-85,-312,-468,-600,-43,385,551
541,268,-273,-405,407,-2,-253,-478,-678,-258,141,326
366,307,-58,-336,212,124,-165,-439,-707,-448,-68,141
287,307,19,-297,134,163,-122,-409,-722,-595,-214,14
248,263,14,-256,117,139,-122,-390,-722,-668,-292,-53
195,234,39,-214,78,136,-122,-361,-663,-653,-322,-82
219,253,34,-236,92,143,-87,-307,-566,-561,-273,-73
263,302,39,-283,112,170,-48,-229,-458,-444,-209,-48
283,322,39,-302,122,180,-29,-170,-370,-361,-185,-58
204,248,43,-226,80,146,-19,-131,-302,-307,-180,-87
136,229,92,-183,21,161,9,-68,-219,-239,-141,-68
165,263,97,-214,34,180,53,-9,-126,-146,-82,-24
195,244,48,-219,73,146,58,14,-82,-102,-53,-9
224,229,4,-226,109,117,63,34,-58,-78,-39,-4
253,219,-34,-236,143,92,82,48,-29,-58,-29,0
219,219,0,-219,109,109,92,63,-19,-43,-29,0
200,224,24,-212,87,124,112,92,-4,-34,-29,0
224,204,-19,-214,122,92,102,87,0,-24,-34,-9
234,185,-48,-209,141,68,102,102,19,-4,-24,-4
234,185,-48,-209,141,68,112,117,43,9,-9,14
248,180,-68,-214,158,56,107,112,48,19,0,19
229,190,-39,-209,134,75,107,112,58,29,-4,19
224,200,-24,-212,124,87,112,107,53,29,-9,19
224,195,-29,-209,126,82,112,107,53,24,-9,14
219,180,-39,-200,129,70,117,107,58,19,-9,0
209,170,-39,-190,124,65,117,107,58,14,-24,-4
224,175,-48,-200,136,63,117,126,63,24,-24,0
239,170,-68,-204,153,51,122,126,63,24,-24,0
244,175,-68,-209,156,53,122,126,68,24,-9,4
239,180,-58,-209,148,61,117,122,73,34,-9,9
239,200,-39,-219,139,80,117,122,82,34,-14,9
263,204,-58,-234,161,73,117,122,82,34,-14,9
263,204,-58,-234,161,73,117,117,78,34,-19,4
234,185,-48,-209,141,68,117,117,73,29,-19,0
234,190,-43,-212,139,73,107,117,63,34,-19,9
248,190,-58,-219,153,65,102,117,68,34,-14,9
229,185,-43,-207,136,70,102,126,82,43,0,24
219,170,-48,-195,134,61,102,126,82,48,0,24
224,185,-39,-204,131,73,112,117,92,48,-9,14
229,200,-29,-214,129,85,112,117,92,58,-9,14
234,204,-29,-219,131,87,112,117,82,48,-14,9
244,209,-34,-226,139,87,117,122,82,48,-14,9
239,209,-29,-224,134,90,122,136,92,58,-14,24
234,200,-34,-217,134,82,122,136,92,58,-14,24
229,190,-39,-209,134,75,122,141,97,58,-14,24
224,204,-19,-214,122,92,126,141,107,68,-4,29
229,209,-19,-219,124,95,136,146,117,78,-4,29
229,209,-19,-219,124,95,131,146,112,68,-4,29
234,214,-19,-224,126,97,131,141,107,63,-9,29
239,219,-19,-229,129,100,131,141,107,63,-9,29
239,209,-29,-224,134,90,122,136,97,48,-24,14
248,209,-39,-229,143,85,122,136,92,48,-29,14
248,209,-39,-229,143,85,117,131,92,48,-34,14
248,214,-34,-231,141,90,117,131,97,58,-39,14
258,224,-34,-241,146,95,126,131,97,63,-39,19
258,224,-34,-241,146,95,126,131,97,63,-39,19
248,219,-29,-234,139,95,126,131,97,58,-39,14
248,204,-43,-226,146,80,126,122,87,53,-43,9
244,204,-39,-224,141,82,126,131,87,53,-43,19
239,204,-34,-222,136,85,126,136,87,53,-43,19
234,204,-29,-219,131,87,126,136,92,53,-43,19
229,209,-19,-219,124,95,131,136,97,53,-43,19
229,200,-29,-214,129,85,151,151,107,53,-43,24
219,200,-19,-209,119,90,141,151,107,58,-39,34
229,200,-29,-214,129,85,141,151,102,58,-39,24
229,200,-29,-214,129,85,141,151,97,53,-39,24
224,190,-34,-207,129,78,136,146,92,39,-43,14
224,195,-29,-209,126,82,131,141,87,39,-48,9
239,195,-43,-217,141,75,126,136,82,39,-58,9
239,185,-53,-212,146,65,112,126,78,39,-73,9
248,175,-73,-212,161,51,122,126,78,48,-73,4
258,175,-82,-217,170,46,122,131,78,48,-63,4
239,185,-53,-212,146,65,122,141,82,53,-58,14
239,185,-53,-212,146,65,122,146,82,53,-58,14
229,185,-43,-207,136,70,126,151,82,63,-53,9
219,185,-34,-202,126,75,131,156,82,58,-53,9
214,175,-39,-195,126,68,136,156,87,53,-58,4
204,175,-29,-190,117,73,141,161,92,53,-58,4
219,170,-48,-195,134,61,141,161,87,58,-58,0
219,170,-48,-195,134,61,141,165,87,63,-63,4
224,170,-53,-197,139,58,141,165,87,63,-63,4
244,170,-73,-207,158,48,141,165,87,63,-58,4
224,161,-63,-192,143,48,136,156,78,58,-63,-4
200,146,-53,-173,126,46,136,156,78,53,-68,-4
209,151,-58,-180,134,46,136,156,78,48,-73,-4
214,146,-68,-180,141,39,136,156,78,48,-78,-4
170,122,-48,-146,109,36,122,146,78,43,-87,-9
175,117,-58,-146,117,29,117,141,78,43,-87,-14
170,102,-68,-136,119,17,112,131,73,39,-87,-19
161,97,-63,-129,112,17,107,122,68,34,-82,-14
146,82,-63,-114,104,9,102,117,58,34,-78,-19
141,82,-58,-112,100,12,102,117,63,34,-82,-19
146,87,-58,-117,102,14,97,117,63,34,-87,-14
141,87,-53,-114,97,17,92,112,68,34,-97,-14
136,87,-48,-112,92,19,82,112,78,43,-92,-14
136,87,-48,-112,92,19,82,112,78,53,-87,-9
161,92,-68,-126,114,12,82,112,78,53,-82,-4
170,102,-68,-136,119,17,82,112,87,68,-78,4
156,82,-73,-119,114,4,78,107,82,63,-82,0
151,73,-78,-112,114,-2,58,102,78,58,-82,-4
146,68,-78,-107,112,-4,53,97,78,58,-78,0
131,68,-63,-100,97,2,48,92,78,63,-78,0
136,58,-78,-97,107,-9,43,82,68,63,-87,-9
146,58,-87,-102,117,-14,43,87,78,63,-82,0
151,58,-92,-104,122,-17,39,92,87,63,-73,4
151,58,-92,-104,122,-17,34,97,92,73,-73,4
146,63,-82,-104,114,-9,43,97,97,78,-63,4
146,68,-78,-107,112,-4,43,102,102,73,-63,9
156,92,-63,-124,109,14,43,107,107,92,-53,19
156,97,-58,-126,107,19,43,107,112,97,-53,29
146,97,-48,-122,97,24,48,102,117,107,-43,39
151,107,-43,-129,97,31,53,112,131,117,-34,48
151,107,-43,-129,97,31,53,122,136,131,-29,48
151,92,-58,-122,104,17,48,131,136,136,-29,48
151,87,-63,-119,107,12,34,122,126,126,-34,48
151,82,-68,-117,109,7,34,122,136,131,-29,53
156,82,-73,-119,114,4,34,122,141,141,-29,58
180,92,-87,-136,134,2,34,126,146,146,-24,53
185,92,-92,-139,139,0,43,136,156,146,-24,43
165,87,-78,-126,122,4,39,136,156,146,-24,43
161,87,-73,-124,117,7,39,136,156,151,-19,53
156,87,-68,-122,112,9,39,136,156,151,-19,53
156,82,-73,-119,114,4,29,131,151,141,-29,53
161,82,-78,-122,119,2,24,122,156,151,-24,58
161,82,-78,-122,119,2,24,117,151,156,-19,68
161,97,-63,-129,112,17,24,122,151,161,-14,68
161,87,-73,-124,117,7,19,112,151,161,-14,68
175,87,-87,-131,131,0,14,112,151,161,-14,73
190,92,-97,-141,143,-2,14,112,151,161,-14,73
200,92,-107,-146,153,-7,9,112,151,165,-9,78
180,92,-87,-136,134,2,9,102,146,156,-4,87
180,92,-87,-136,134,2,9,102,146,161,-4,87
175,87,-87,-131,131,0,9,97,141,161,-9,82
165,87,-78,-126,122,4,-4,97,141,161,-14,82
165,97,-68,-131,117,14,14,102,146,170,-4,82
170,102,-68,-136,119,17,14,107,151,185,0,87
175,102,-73,-139,124,14,14,117,161,185,4,92
185,97,-87,-141,136,4,9,122,165,175,4,92
195,97,-97,-146,146,0,14,122,156,175,4,92
195,107,-87,-151,141,9,14,122,156,175,4,92
195,107,-87,-151,141,9,14,122,156,175,4,92
185,107,-78,-146,131,14,14,122,156,175,4,92
170,112,-58,-141,114,26,24,131,165,185,14,107
170,102,-68,-136,119,17,24,131,165,185,19,107
180,102,-78,-141,129,12,29,131,165,185,19,117
180,117,-63,-148,122,26,29,131,165,185,19,117
185,97,-87,-141,136,4,19,117,151,180,9,107
175,97,-78,-136,126,9,14,112,146,175,9,107
190,112,-78,-151,134,17,19,107,146,170,14,117
195,122,-73,-158,134,24,14,102,141,165,14,117
185,112,-73,-148,129,19,9,102,126,151,24,107
180,107,-73,-143,126,17,9,97,122,141,19,107
175,97,-78,-136,126,9,9,97,122,141,19,107
170,107,-63,-139,117,21,19,102,122,141,19,107
165,102,-63,-134,114,19,9,92,112,141,14,112
161,97,-63,-129,112,17,9,82,107,131,9,107
165,92,-73,-129,119,9,9,82,107,131,4,102
161,87,-73,-124,117,7,9,82,107,126,4,102
131,87,-43,-109,87,21,29,87,97,117,4,97
141,97,-43,-119,92,26,29,92,92,112,0,97
151,97,-53,-124,102,21,29,87,87,102,-9,87
131,78,-53,-104,92,12,29,87,82,97,-9,78
136,68,-68,-102,102,0,43,97,92,107,-14,78
141,82,-58,-112,100,12,43,97,82,107,-9,82
146,87,-58,-117,102,14,53,97,82,92,-4,82
131,78,-53,-104,92,12,43,82,63,78,-9,73
112,63,-48,-87,80,7,39,78,53,63,-24,68
131,97,-34,-114,82,31,43,92,53,63,-19,63
122,82,-39,-102,80,21,39,87,48,48,-34,48
87,48,-39,-68,63,4,39,73,39,43,-58,39
92,73,-19,-82,56,26,43,73,43,53,-53,48
97,78,-19,-87,58,29,43,73,48,48,-48,43
92,73,-19,-82,56,26,43,73,48,43,-48,34
87,73,-14,-80,51,29,48,73,53,39,-43,29
87,68,-19,-78,53,24,63,87,63,48,-48,24
73,68,-4,-70,39,31,68,97,68,39,-48,24
82,73,-9,-78,46,31,73,102,68,34,-53,19
97,73,-24,-85,61,24,78,102,58,29,-63,14
92,58,-34,-75,63,12,78,107,48,19,-58,9
73,53,-19,-63,46,17,82,107,53,19,-63,9
68,53,-14,-61,41,19,82,107,53,19,-63,9
63,48,-14,-56,39,17,73,102,43,19,-78,-4
73,58,-14,-65,43,21,73,102,53,29,-73,0
68,63,-4,-65,36,29,78,102,53,29,-73,0
68,63,-4,-65,36,29,82,102,53,19,-73,0
53,48,-4,-51,29,21,82,107,48,19,-78,0
58,48,-9,-53,34,19,92,112,53,19,-68,0
68,53,-14,-61,41,19,92,117,48,19,-68,4
87,78,-9,-82,48,34,92,122,53,14,-63,4
102,92,-9,-97,56,41,92,126,58,14,-63,0
78,68,-9,-73,43,29,82,117,48,14,-82,0
68,48,-19,-58,43,14,78,107,48,9,-82,-9
63,53,-9,-58,36,21,73,102,48,4,-87,-9
78,48,-29,-63,53,9,68,107,43,0,-87,-14
73,58,-14,-65,43,21,73,107,43,4,-78,-24
53,43,-9,-48,31,17,73,102,39,4,-82,-24
39,34,-4,-36,21,14,73,92,34,0,-82,-29
34,34,0,-34,17,17,73,87,34,0,-87,-29
34,39,4,-36,14,21,53,82,24,-4,-87,-24
39,39,0,-39,19,19,53,78,24,-4,-92,-19
48,48,0,-48,24,24,58,73,24,-4,-92,-14
58,48,-9,-53,34,19,58,73,29,4,-87,-9
68,68,0,-68,34,34,63,68,29,-4,-78,-9
87,68,-19,-78,53,24,43,58,19,-14,-97,-19
87,48,-39,-68,63,4,29,48,9,-29,-97,-39
82,48,-34,-65,58,7,39,39,0,-19,-97,-34
78,48,-29,-63,53,9,39,39,0,-19,-97,-29
73,48,-24,-61,48,12,39,39,0,-19,-97,-24
68,48,-19,-58,43,14,39,39,0,-19,-97,-19
58,34,-24,-46,41,4,29,29,0,-29,-112,-29
58,43,-14,-51,36,14,29,29,0,-29,-112,-29
68,53,-14,-61,41,19,29,24,0,-29,-112,-29
68,39,-29,-53,48,4,24,24,0,-34,-112,-29
43,29,-14,-36,29,7,34,29,0,-34,-107,-34
53,29,-24,-41,39,2,34,34,4,-29,-102,-34
53,43,-9,-48,31,17,34,39,9,-19,-97,-29
53,43,-9,-48,31,17,39,43,14,-14,-92,-29
34,24,-9,-29,21,7,39,43,14,-14,-92,-19
34,24,-9,-29,21,7,43,43,14,-14,-92,-19
34,29,-4,-31,19,12,43,43,14,-14,-92,-19
34,29,-4,-31,19,12,39,39,14,-14,-92,-19
39,34,-4,-36,21,14,29,29,14,-14,-78,-29
48,34,-14,-41,31,9,34,29,14,-14,-78,-29
53,34,-19,-43,36,7,34,34,14,-14,-82,-29
58,34,-24,-46,41,4,29,34,14,-14,-82,-29
68,29,-39,-48,53,-4,19,39,9,-14,-87,-24
68,29,-39,-48,53,-4,29,39,9,-19,-82,-24
68,43,-24,-56,46,9,39,43,14,-4,-78,-19
63,43,-19,-53,41,12,29,48,14,0,-73,-14
53,48,-4,-51,29,21,29,39,9,-9,-82,-24
58,43,-14,-51,36,14,29,34,4,-9,-82,-29
58,34,-24,-46,41,4,24,34,0,-14,-82,-29
58,29,-29,-43,43,0,24,39,-4,-14,-87,-29
43,19,-24,-31,34,-2,34,48,0,-4,-78,-24
43,19,-24,-31,34,-2,34,48,0,-4,-78,-19
48,24,-24,-36,36,0,34,53,4,-4,-73,-9
48,24,-24,-36,36,0,34,53,14,-4,-68,-4
58,29,-29,-43,43,0,24,39,4,-4,-68,-14
58,29,-29,-43,43,0,24,39,4,-4,-73,-14
58,24,-34,-41,46,-4,24,34,4,-4,-73,-14
48,24,-24,-36,36,0,19,34,4,-4,-73,-14
58,34,-24,-46,41,4,24,39,14,9,-68,-9
58,39,-19,-48,39,9,29,43,19,9,-58,0
53,58,4,-56,24,31,39,48,24,14,-48,9
48,53,4,-51,21,29,43,53,29,19,-39,14
39,39,0,-39,19,19,43,53,19,14,-48,0
39,39,0,-39,19,19,43,53,19,9,-48,0
43,48,4,-46,19,26,43,58,19,4,-48,-4
43,48,4,-46,19,26,43,58,19,0,-48,-9
