I,II,III,aVR,aVL,aVF,V1,V2,V3,V4,V5,V6
117,214,97,-165,9,156,97,97,58,-78,-87,-39
117,214,97,-165,9,156,97,97,58,-78,-87,-39
117,214,97,-165,9,156,97,97,58,-78,-87,-39
117,214,97,-165,9,156,97,97,58,-78,-87,-39
107,209,102,-158,2,156,82,87,68,-82,-97,-48
97,204,107,-151,-4,156,78,87,68,-87,-97,-58
87,200,112,-143,-12,156,73,87,68,-92,-97,-68
78,195,117,-136,-19,156,68,87,68,-97,-97,-78
73,204,131,-139,-29,168,92,112,87,-78,-92,-92
68,214,146,-141,-39,180,117,126,97,-68,-87,-97
63,224,161,-143,-48,192,141,141,107,-58,-82,-102
58,234,175,-146,-58,204,165,156,117,-48,-78,-107
48,209,161,-129,-56,185,136,156,112,-63,-82,-126
48,195,146,-122,-48,170,117,156,107,-68,-87,-136
48,180,131,-114,-41,156,97,156,102,-73,-92,-146
48,165,117,-107,-34,141,78,156,97,-78,-97,-156
87,214,126,-151,-19,170,92,175,112,-58,-102,-146
126,263,136,-195,-4,200,107,185,126,-48,-107,-136
165,312,146,-239,9,229,122,195,141,-39,-112,-126
204,361,156,-283,24,258,136,204,156,-29,-117,-117
180,317,136,-248,21,226,107,170,146,-39,-102,-107
156,273,117,-214,19,195,87,146,136,-39,-97,-107
131,229,97,-180,17,163,68,122,126,-39,-92,-107
107,185,78,-146,14,131,48,97,117,-39,-87,-107
82,185,102,-134,-9,143,58,117,126,-48,-107,-97
58,185,126,-122,-34,156,58,126,126,-58,-117,-97
34,185,151,-109,-58,168,58,136,126,-68,-126,-97
9,185,175,-97,-82,180,58,146,126,-78,-136,-97
0,185,185,-92,-92,185,82,170,136,-68,-112,-82
0,185,185,-92,-92,185,107,185,136,-58,-97,-68
0,185,185,-92,-92,185,131,200,136,-48,-82,-53
0,185,185,-92,-92,185,156,214,136,-39,-68,-39
9,175,165,-92,-78,170,141,195,126,-24,-48,-48
9,175,165,-92,-78,170,136,185,126,-19,-29,-58
9,175,165,-92,-78,170,131,175,126,-14,-9,-68
9,175,165,-92,-78,170,126,165,126,-9,9,-78
39,200,161,-119,-61,180,126,156,136,-19,-19,-82
68,214,146,-141,-39,180,126,156,146,-19,-39,-87
97,229,131,-163,-17,180,126,156,156,-19,-58,-92
126,244,117,-185,4,180,126,156,165,-19,-78,-97
117,263,146,-190,-14,204,102,170,156,-4,-78,-82
117,273,156,-195,-19,214,87,185,156,0,-78,-68
117,283,165,-200,-24,224,73,200,156,4,-78,-53
117,292,175,-204,-29,234,58,214,156,9,-78,-39
112,273,161,-192,-24,217,68,214,165,-14,-97,-58
107,253,146,-180,-19,200,68,214,165,-29,-107,-68
102,234,131,-168,-14,183,68,214,165,-43,-117,-78
97,214,117,-156,-9,165,68,214,165,-58,-126,-87
122,229,107,-175,7,168,82,229,195,-39,-97,-82
136,244,107,-190,14,175,87,234,224,-19,-78,-78
151,258,107,-204,21,183,92,239,253,0,-58,-73
165,273,107,-219,29,190,97,244,283,19,-39,-68
175,283,107,-229,34,195,107,283,307,43,-29,-58
185,292,107,-239,39,200,107,312,331,58,-19,-58
195,302,107,-248,43,204,107,341,356,73,-9,-58
204,312,107,-258,48,209,107,370,380,87,0,-58
151,297,146,-224,2,222,102,380,370,87,-14,-73
107,283,175,-195,-34,229,97,380,370,87,-29,-78
63,268,204,-165,-70,236,92,380,370,87,-43,-82
19,253,234,-136,-107,244,87,380,370,87,-58,-87
39,278,239,-158,-100,258,87,370,380,97,-48,-78
58,302,244,-180,-92,273,87,370,380,107,-39,-68
78,326,248,-202,-85,287,87,370,380,117,-29,-58
97,351,253,-224,-78,302,87,370,380,126,-19,-48
73,331,258,-202,-92,295,53,385,380,136,-14,-63
58,312,253,-185,-97,283,29,400,380,136,-9,-78
43,292,248,-168,-102,270,4,414,380,136,-4,-92
29,273,244,-151,-107,258,-19,429,380,136,0,-107
19,292,273,-156,-126,283,29,448,400,141,9,-87
19,302,283,-161,-131,292,68,458,409,146,9,-78
19,312,292,-165,-136,302,107,468,419,151,9,-68
19,322,302,-170,-141,312,146,478,429,156,9,-58
58,336,278,-197,-109,307,141,458,405,131,-14,-48
97,341,244,-219,-73,292,136,439,390,107,-29,-48
136,346,209,-241,-36,278,131,419,375,82,-43,-48
175,351,175,-263,0,263,126,400,361,58,-58,-48
185,341,156,-263,14,248,112,409,346,48,-58,-73
195,341,146,-268,24,244,107,419,341,48,-58,-87
204,341,136,-273,34,239,102,429,336,48,-58,-102
214,341,126,-278,43,234,97,439,331,48,-58,-117
185,390,204,-287,-9,297,107,419,346,73,-34,-97
165,429,263,-297,-48,346,107,400,361,87,-19,-78
146,468,322,-307,-87,395,107,380,375,102,-4,-58
126,507,380,-317,-126,444,107,361,390,117,9,-39
156,517,361,-336,-102,439,87,351,409,126,14,-19
185,527,341,-356,-78,434,68,351,419,136,19,0
214,536,322,-375,-53,429,48,351,429,146,24,19
244,546,302,-395,-29,424,29,351,439,156,29,39
185,507,322,-346,-68,414,19,351,414,136,9,19
126,478,351,-302,-112,414,19,351,400,117,0,0
68,448,380,-258,-156,414,19,351,385,97,-9,-19
9,419,409,-214,-200,414,19,351,370,78,-19,-39
48,414,366,-231,-158,390,-4,331,341,63,-39,-29
87,409,322,-248,-117,366,-29,322,312,48,-48,-29
126,405,278,-265,-75,341,-53,312,283,34,-58,-29
165,400,234,-283,-34,317,-78,302,253,19,-68,-29
151,385,234,-268,-41,309,-48,273,229,9,-63,-19
146,380,234,-263,-43,307,-29,244,214,0,-58,-19
141,375,234,-258,-46,305,-9,214,200,-9,-53,-19
136,370,234,-253,-48,302,9,185,185,-19,-48,-19
146,361,214,-253,-34,287,-4,200,195,-9,-39,-34
146,361,214,-253,-34,287,-9,204,195,-9,-29,-39
146,361,214,-253,-34,287,-14,209,195,-9,-19,-43
146,361,214,-253,-34,287,-19,214,195,-9,-9,-48
136,341,204,-239,-34,273,-29,195,170,-29,-29,-39
136,322,185,-229,-24,253,-39,175,146,-39,-39,-39
136,302,165,-219,-14,234,-48,156,122,-48,-48,-39
136,283,146,-209,-4,214,-58,136,97,-58,-58,-39
151,312,161,-231,-4,236,-19,126,117,-39,-29,-34
165,331,165,-248,0,248,19,117,126,-29,-9,-29
180,351,170,-265,4,261,58,107,136,-19,9,-24
195,370,175,-283,9,273,97,97,146,-9,29,-19
175,346,170,-261,2,258,87,87,131,-19,14,-19
165,331,165,-248,0,248,78,87,117,-19,9,-19
156,317,161,-236,-2,239,68,87,102,-19,4,-19
146,302,156,-224,-4,229,58,87,87,-19,0,-19
136,292,156,-214,-9,224,19,68,58,-29,-14,-4
136,283,146,-209,-4,214,-19,48,39,-39,-29,9
136,273,136,-204,0,204,-58,29,19,-48,-43,24
136,263,126,-200,4,195,-97,9,0,-58,-58,39
117,248,131,-183,-7,190,-82,-4,-4,-58,-39,29
97,234,136,-165,-19,185,-78,-9,-9,-58,-29,29
78,219,141,-148,-31,180,-73,-14,-14,-58,-19,29
58,204,146,-131,-43,175,-68,-19,-19,-58,-9,29
48,214,165,-131,-58,190,-53,-4,0,-58,-19,14
48,214,165,-131,-58,190,-48,9,9,-58,-19,0
48,214,165,-131,-58,190,-43,24,19,-58,-19,-14
48,214,165,-131,-58,190,-39,39,29,-58,-19,-29
63,204,141,-134,-39,173,-34,53,39,-48,-29,-14
68,204,136,-136,-34,170,-29,58,39,-48,-29,-9
73,204,131,-139,-29,168,-24,63,39,-48,-29,-4
78,204,126,-141,-24,165,-19,68,39,-48,-29,0
43,190,146,-117,-51,168,14,48,19,-53,-34,-19
19,175,156,-97,-68,165,39,39,9,-58,-39,-39
-4,161,165,-78,-85,163,63,29,0,-63,-43,-58
-29,146,175,-58,-102,161,87,19,-9,-68,-48,-78
9,180,170,-95,-80,175,68,34,-29,-87,-82,-92
39,204,165,-122,-63,185,58,39,-48,-107,-107,-107
68,229,161,-148,-46,195,48,43,-68,-126,-131,-122
97,253,156,-175,-29,204,39,48,-87,-146,-156,-136
131,253,122,-192,4,187,19,9,-78,-146,-151,-136
165,253,87,-209,39,170,0,-19,-68,-146,-146,-136
200,253,53,-226,73,153,-19,-48,-58,-146,-141,-136
234,253,19,-244,107,136,-39,-78,-48,-146,-136,-136
204,268,63,-236,70,165,-14,-34,-4,-102,-87,-112
185,283,97,-234,43,190,0,9,29,-68,-39,-87
165,297,131,-231,17,214,14,53,63,-34,9,-63
146,312,165,-229,-9,239,29,97,97,0,58,-39
141,307,165,-224,-12,236,43,112,107,19,78,-39
136,302,165,-219,-14,234,48,117,117,39,87,-39
131,297,165,-214,-17,231,53,122,126,58,97,-39
126,292,165,-209,-19,229,58,126,136,78,107,-39
107,258,151,-183,-21,204,58,97,107,39,58,-34
87,224,136,-156,-24,180,58,78,87,9,19,-29
68,190,122,-129,-26,156,58,58,68,-19,-19,-24
48,156,107,-102,-29,131,58,39,48,-48,-58,-19
82,195,112,-139,-14,153,43,63,58,-39,-48,0
107,234,126,-170,-9,180,39,78,68,-29,-48,9
131,273,141,-202,-4,207,34,92,78,-19,-48,19
156,312,156,-234,0,234,29,107,87,-9,-48,29
165,307,141,-236,12,224,9,87,78,-19,-48,19
175,302,126,-239,24,214,-9,78,78,-29,-48,19
185,297,112,-241,36,204,-29,68,78,-39,-48,19
195,292,97,-244,48,195,-48,58,78,-48,-48,19
122,239,117,-180,2,178,-39,68,58,-48,-58,-19
58,195,136,-126,-39,165,-39,68,48,-48,-58,-48
-4,151,156,-73,-80,153,-39,68,39,-48,-58,-78
-68,107,175,-19,-122,141,-39,68,29,-48,-58,-107
-34,131,165,-48,-100,148,-19,43,14,-63,-73,-112
-9,156,165,-73,-87,161,0,29,0,-68,-78,-117
14,180,165,-97,-75,173,19,14,-14,-73,-82,-122
39,204,165,-122,-63,185,39,0,-29,-78,-87,-126
53,219,165,-136,-56,192,29,19,-19,-68,-78,-102
58,234,175,-146,-58,204,29,29,-9,-68,-78,-78
63,248,185,-156,-61,217,29,39,0,-68,-78,-53
68,263,195,-165,-63,229,29,48,9,-68,-78,-29
82,253,170,-168,-43,212,19,24,19,-53,-73,-19
97,253,156,-175,-29,204,19,0,19,-48,-68,-19
112,253,141,-183,-14,197,19,-24,19,-43,-63,-19
126,253,126,-190,0,190,19,-48,19,-39,-58,-19
107,239,131,-173,-12,185,4,-43,39,-39,-53,-29
87,224,136,-156,-24,180,0,-39,48,-39,-48,-39
68,209,141,-139,-36,175,-4,-34,58,-39,-43,-48
48,195,146,-122,-48,170,-9,-29,68,-39,-39,-58
58,214,156,-136,-48,185,-34,-19,43,-48,-48,-73
68,224,156,-146,-43,190,-48,-9,29,-48,-58,-78
78,234,156,-156,-39,195,-63,0,14,-48,-68,-82
87,244,156,-165,-34,200,-78,9,0,-48,-78,-87
73,239,165,-156,-46,202,-48,-4,-4,-48,-73,-58
68,234,165,-151,-48,200,-19,-9,-9,-48,-68,-39
63,229,165,-146,-51,197,9,-14,-14,-48,-63,-19
58,224,165,-141,-53,195,39,-19,-19,-48,-58,0
39,190,151,-114,-56,170,19,-29,-34,-68,-68,-24
29,165,136,-97,-53,151,0,-39,-48,-78,-78,-39
19,141,122,-80,-51,131,-19,-48,-63,-87,-87,-53
9,117,107,-63,-48,112,-39,-58,-78,-97,-97,-68
68,165,97,-117,-14,131,-24,-68,-63,-92,-97,-78
78,180,102,-129,-12,141,-19,-87,-58,-87,-92,-87
82,224,141,-153,-29,183,-14,-82,-43,-78,-73,-87
102,258,156,-180,-26,207,-4,-63,-34,-48,-68,-97
82,253,170,-168,-43,212,-4,-34,-4,-34,-48,-82
53,229,175,-141,-61,202,-4,-24,9,-34,-39,-73
73,190,117,-131,-21,153,-9,-14,14,-39,-34,-63
112,204,92,-158,9,148,-14,-4,29,-48,-29,-53
141,244,102,-192,19,173,-9,9,43,-19,14,-53
136,258,122,-197,7,190,0,14,34,0,53,-34
175,292,117,-234,29,204,14,19,39,19,102,-43
204,322,117,-263,43,219,19,24,43,39,141,-58
122,287,165,-204,-21,226,-19,-14,29,14,92,-87
43,248,204,-146,-80,226,-43,-19,14,0,39,-107
-14,195,209,-90,-112,202,-73,-9,-4,-19,-9,-122
-48,165,214,-58,-131,190,-102,-9,0,-29,-34,-117
-4,219,224,-107,-114,222,-68,14,34,-4,-19,-58
29,229,200,-129,-85,214,-63,24,34,-4,-19,-43
53,209,156,-131,-51,183,-39,34,39,9,-19,-19
58,195,136,-126,-39,165,4,43,39,19,-19,14
92,234,141,-163,-24,187,24,34,29,9,-24,43
146,283,136,-214,4,209,34,48,34,4,-19,48
229,331,102,-280,63,217,34,43,24,-4,-19,48
278,370,92,-324,92,231,39,39,9,-34,-29,34
239,341,102,-290,68,222,53,48,-4,-29,-48,53
209,346,136,-278,36,241,63,34,-9,-34,-34,53
244,336,92,-290,75,214,78,4,-24,-48,-43,53
195,322,126,-258,34,224,92,-9,-39,-63,-43,53
136,278,141,-207,-2,209,78,-9,-24,-82,-53,34
73,204,131,-139,-29,168,39,-58,-58,-92,-73,24
9,141,131,-75,-61,136,0,-107,-58,-107,-87,14
-14,73,87,-29,-51,80,-43,-122,-58,-122,-97,0
58,131,73,-95,-7,102,-48,-92,-73,-117,-78,-19
112,219,107,-165,2,163,-58,-63,-78,-112,-68,-24
151,253,102,-202,24,178,-63,-53,-102,-107,-48,-34
165,258,92,-212,36,175,-82,-39,-107,-102,-39,-39
131,244,112,-187,9,178,-63,-92,-82,-92,-29,-9
126,229,102,-178,12,165,-58,-136,-73,-73,-19,0
146,224,78,-185,34,151,-58,-180,-63,-58,-19,34
146,209,63,-178,41,136,-58,-214,-63,-39,4,58
161,214,53,-187,53,134,-34,-175,-73,-29,9,48
170,234,63,-202,53,148,-24,-136,-73,-29,29,53
180,239,58,-209,61,148,-19,-117,-82,-43,4,24
209,229,19,-219,95,124,-14,-87,-82,-53,4,-4
146,200,53,-173,46,126,-34,-92,-107,-78,-9,-29
92,165,73,-129,9,119,-48,-102,-117,-92,-29,-43
87,136,48,-112,19,92,-63,-107,-126,-112,-63,-58
92,126,34,-109,29,80,-68,-112,-136,-131,-78,-68
53,161,107,-107,-26,134,-73,-107,-122,-112,-78,-63
4,146,141,-75,-68,143,-92,-122,-117,-112,-78,-63
-29,126,156,-48,-92,141,-97,-146,-122,-102,-78,-68
-34,146,180,-56,-107,163,-102,-170,-117,-92,-78,-63
-9,165,175,-78,-92,170,-63,-146,-97,-92,-82,-63
4,170,165,-87,-80,168,-39,-122,-87,-92,-82,-48
19,190,170,-104,-75,180,-14,-87,-73,-87,-82,-39
58,209,151,-134,-46,180,-4,-63,-68,-87,-82,-39
39,165,126,-102,-43,146,-34,-107,-78,-112,-92,-58
14,136,122,-75,-53,129,-48,-107,-92,-117,-97,-78
19,136,117,-78,-48,126,-63,-87,-82,-122,-102,-97
39,175,136,-107,-48,156,-87,-87,-87,-131,-122,-122
78,170,92,-124,-7,131,-68,-82,-102,-136,-117,-126
73,190,117,-131,-21,153,-43,-73,-107,-131,-112,-122
73,219,146,-146,-36,183,9,-48,-97,-102,-92,-82
68,239,170,-153,-51,204,53,-39,-97,-97,-87,-58
24,195,170,-109,-73,183,24,-68,-92,-107,-82,-73
4,165,161,-85,-78,163,4,-92,-87,-112,-78,-82
19,161,141,-90,-61,151,-14,-97,-92,-112,-78,-102
39,165,126,-102,-43,146,-24,-102,-78,-112,-73,-102
43,165,122,-104,-39,143,4,-102,-78,-107,-68,-102
43,165,122,-104,-39,143,19,-107,-102,-107,-58,-107
39,141,102,-90,-31,122,24,-112,-126,-126,-78,-117
19,141,122,-80,-51,131,29,-122,-141,-126,-82,-122
29,175,146,-102,-58,161,0,-126,-136,-117,-78,-122
82,204,122,-143,-19,163,-9,-131,-126,-107,-73,-126
78,219,141,-148,-31,180,-9,-131,-117,-92,-58,-122
39,234,195,-136,-78,214,0,-131,-97,-78,-43,-112
-4,214,219,-104,-112,217,4,-107,-78,-78,-48,-92
-24,185,209,-80,-117,197,0,-102,-78,-82,-68,-87
-87,141,229,-26,-158,185,14,-97,-82,-82,-73,-87
-156,87,244,34,-200,165,14,-92,-73,-97,-87,-102
-78,136,214,-29,-146,175,-29,-34,-53,-87,-39,-82
-48,185,234,-68,-141,209,-43,-4,-43,-63,-4,-82
-24,165,190,-70,-107,178,-92,-39,-92,-102,-48,-92
-4,165,170,-80,-87,168,-136,-87,-102,-136,-117,-63
9,204,195,-107,-92,200,-131,-82,-82,-117,-117,-14
34,224,190,-129,-78,207,-112,-63,-82,-87,-87,-53
82,239,156,-161,-36,197,-68,-19,-97,-73,-58,-131
122,258,136,-190,-7,197,43,34,-82,-63,-39,-151
190,302,112,-246,39,207,92,-19,-92,-92,-68,-122
200,326,126,-263,36,226,63,-146,-122,-141,-156,-82
141,302,161,-222,-9,231,29,-219,-68,-131,-185,-73
180,375,195,-278,-7,285,-19,-209,29,-53,-97,-92
244,507,263,-375,-9,385,-58,-204,92,48,19,-58
112,492,380,-302,-134,436,-97,-351,63,170,122,9
19,473,453,-246,-217,463,-165,-614,-19,302,224,78
204,634,429,-419,-112,531,-214,-810,-53,492,370,180
366,746,380,-556,-7,563,-258,-941,-78,697,551,317
331,668,336,-500,-2,502,-317,-1093,-151,878,727,419
283,644,361,-463,-39,502,-336,-1127,-161,1137,932,546
326,732,405,-529,-39,568,-302,-1127,-112,1429,1151,732
488,902,414,-695,36,658,-370,-1273,-190,1615,1356,907
697,1068,370,-883,163,719,-497,-1551,-419,1693,1512,1054
697,1146,448,-922,124,797,-546,-1830,-722,1722,1625,1156
473,1078,605,-775,-65,841,-580,-2117,-1078,1605,1654,1176
268,883,614,-575,-173,749,-678,-2396,-1503,1249,1561,1141
165,492,326,-329,-80,409,-780,-2518,-1859,732,1327,1005
248,73,-175,-161,212,-51,-780,-2410,-2039,165,941,800
414,-307,-722,-53,568,-514,-722,-2239,-2200,-649,356,566
395,-717,-1112,161,753,-915,-688,-2137,-2425,-1522,-312,287
273,-922,-1195,324,734,-1058,-658,-2010,-2420,-1844,-678,117
244,-858,-1102,307,673,-980,-590,-1727,-2113,-1610,-678,112
287,-790,-1078,251,683,-934,-536,-1415,-1781,-1390,-619,107
341,-741,-1083,200,712,-912,-478,-1195,-1537,-1298,-619,29
283,-673,-956,195,619,-814,-385,-1015,-1317,-1141,-590,-34
161,-678,-839,258,500,-758,-341,-854,-1176,-1044,-570,-87
117,-692,-810,287,463,-751,-326,-751,-1102,-1024,-590,-146
126,-619,-746,246,436,-683,-307,-707,-1005,-966,-551,-165
146,-473,-619,163,383,-546,-292,-653,-893,-873,-492,-151
195,-361,-556,82,375,-458,-263,-580,-746,-775,-434,-136
229,-253,-483,12,356,-368,-185,-434,-561,-629,-361,-122
219,-122,-341,-48,280,-231,-97,-292,-395,-492,-273,-126
170,-14,-185,-78,178,-100,-43,-195,-307,-419,-219,-165
122,82,-39,-102,80,21,-29,-122,-224,-346,-175,-175
195,151,-43,-173,119,53,-43,-78,-156,-248,-136,-146
165,73,-92,-119,129,-9,-58,-78,-151,-234,-180,-156
112,63,-48,-87,80,7,-39,-48,-117,-234,-200,-161
68,82,14,-75,26,48,-19,0,-87,-219,-209,-156
34,126,92,-80,-29,109,0,24,-68,-204,-204,-146
0,131,131,-65,-65,131,9,29,-58,-200,-204,-141
-58,102,161,-21,-109,131,24,48,-14,-180,-175,-122
-92,68,161,12,-126,114,43,48,-14,-161,-151,-112
-122,78,200,21,-161,139,39,48,-4,-151,-141,-102
-122,78,200,21,-161,139,34,58,4,-131,-126,-92
-53,156,209,-51,-131,183,53,82,39,-97,-117,-112
0,200,200,-100,-100,200,68,117,73,-87,-117,-126
53,244,190,-148,-68,217,97,170,107,-78,-112,-136
107,287,180,-197,-36,234,117,204,126,-73,-112,-146
97,302,204,-200,-53,253,107,200,112,-87,-126,-131
107,307,200,-207,-46,253,97,195,102,-82,-131,-107
131,336,204,-234,-36,270,78,204,97,-82,-126,-87
141,336,195,-239,-26,265,53,200,92,-78,-112,-73
63,273,209,-168,-73,241,43,165,73,-82,-112,-92
14,239,224,-126,-104,231,39,131,58,-92,-112,-112
43,248,204,-146,-80,226,39,107,43,-107,-126,-122
48,224,175,-136,-63,200,39,87,29,-122,-136,-131
87,219,131,-153,-21,175,68,92,68,-112,-131,-117
63,219,156,-141,-46,187,87,92,82,-97,-126,-117
63,229,165,-146,-51,197,107,92,97,-78,-131,-122
117,248,131,-183,-7,190,112,87,97,-63,-126,-117
87,234,146,-161,-29,190,107,107,117,-63,-117,-122
24,219,195,-122,-85,207,92,122,122,-48,-112,-126
4,219,214,-112,-104,217,78,131,131,-48,-112,-131
-4,209,214,-102,-109,212,73,151,141,-48,-117,-136
-4,175,180,-85,-92,178,87,122,126,-63,-126,-112
-9,161,170,-75,-90,165,82,126,112,-78,-136,-102
-39,151,190,-56,-114,170,117,126,102,-82,-131,-97
-73,136,209,-31,-141,173,131,122,82,-82,-126,-92
-48,151,200,-51,-124,175,112,122,92,-87,-117,-112
0,156,156,-78,-78,156,97,126,68,-92,-117,-141
14,175,161,-95,-73,168,48,136,58,-97,-117,-170
43,175,131,-109,-43,153,14,146,43,-112,-126,-224
63,180,117,-122,-26,148,29,141,73,-82,-107,-214
68,239,170,-153,-51,204,48,141,107,-63,-92,-200
43,258,214,-151,-85,236,68,161,146,-34,-78,-185
19,268,248,-143,-114,258,73,165,165,0,-58,-170
24,268,244,-146,-109,256,48,200,200,9,-34,-136
53,297,244,-175,-95,270,29,229,224,24,-48,-131
68,307,239,-187,-85,273,4,253,248,34,-53,-122
92,322,229,-207,-68,275,-14,273,268,43,-58,-117
73,292,219,-183,-73,256,-19,268,263,19,-92,-117
53,278,224,-165,-85,251,-39,268,258,14,-117,-112
39,263,224,-151,-92,244,-34,273,268,14,-112,-107
0,258,258,-129,-129,258,-24,287,273,9,-107,-82
14,273,258,-143,-122,265,14,287,263,9,-122,-78
68,297,229,-183,-80,263,48,287,258,14,-122,-82
92,317,224,-204,-65,270,82,268,263,4,-102,-78
97,273,175,-185,-39,224,112,258,273,9,-102,-87
97,239,141,-168,-21,190,107,253,263,-19,-117,-112
78,229,151,-153,-36,190,87,278,244,-39,-126,-112
117,258,141,-187,-12,200,78,302,234,-53,-136,-112
122,283,161,-202,-19,222,63,302,209,-78,-151,-122
63,258,195,-161,-65,226,58,302,219,-53,-126,-112
0,244,244,-122,-122,244,58,312,224,-43,-107,-97
-53,229,283,-87,-168,256,63,307,239,-19,-92,-73
-102,214,317,-56,-209,265,58,297,239,-24,-92,-58
-39,224,263,-92,-151,244,68,312,263,-4,-82,-63
-14,244,258,-114,-136,251,78,346,287,14,-68,-68
9,283,273,-146,-131,278,63,370,341,53,-48,-68
68,302,234,-185,-82,268,58,361,370,73,-34,-68
58,273,214,-165,-78,244,39,356,375,82,-43,-73
43,268,224,-156,-90,246,39,361,380,92,-43,-78
19,283,263,-151,-122,273,53,405,400,107,-34,-78
29,297,268,-163,-119,283,58,429,414,117,-29,-68
34,292,258,-163,-112,275,87,453,414,126,-9,-58
48,283,234,-165,-92,258,107,488,424,126,-4,-48
87,283,195,-185,-53,239,112,517,434,122,-4,-39
92,273,180,-183,-43,226,131,556,434,122,19,-29
9,234,224,-122,-107,229,151,522,419,107,9,-48
-29,185,214,-78,-122,200,141,492,405,102,9,-78
-68,161,229,-46,-148,195,151,463,400,97,9,-117
-97,122,219,-12,-158,170,185,444,409,107,24,-131
-43,195,239,-75,-141,217,190,468,429,97,9,-97
-14,244,258,-114,-136,251,185,478,434,92,-19,-63
-24,283,307,-129,-165,295,175,492,434,87,-34,-48
9,307,297,-158,-143,302,161,497,429,87,-53,-39
48,326,278,-187,-114,302,175,497,405,102,-39,-53
63,336,273,-200,-104,305,190,502,395,141,-19,-53
82,336,253,-209,-85,295,200,488,395,141,4,-43
107,326,219,-217,-56,273,190,463,385,136,9,-48
97,292,195,-195,-48,244,131,424,375,112,-14,-19
58,258,200,-158,-70,229,102,400,370,87,-24,-9
68,224,156,-146,-43,190,68,385,361,68,-39,9
68,219,151,-143,-41,185,34,356,346,48,-53,24
43,229,185,-136,-70,207,53,375,370,53,-14,29
14,229,214,-122,-100,222,63,419,366,68,14,43
9,185,175,-97,-82,180,53,453,375,82,48,58
-4,151,156,-73,-80,153,63,473,375,87,63,48
19,185,165,-102,-73,175,68,463,366,92,63,34
39,204,165,-122,-63,185,68,468,366,102,63,29
43,224,180,-134,-68,202,68,473,366,122,73,14
53,258,204,-156,-75,231,53,478,361,112,58,0
53,273,219,-163,-82,246,34,468,341,82,29,-19
34,258,224,-146,-95,241,0,429,326,73,34,-19
34,239,204,-136,-85,222,-9,390,302,58,0,-24
34,214,180,-124,-73,197,-29,370,273,48,-24,-34
63,180,117,-122,-26,148,-4,351,244,29,-19,-19
63,146,82,-104,-9,114,34,312,224,24,-24,-4
53,126,73,-90,-9,100,73,283,219,24,-19,9
63,78,14,-70,24,46,92,253,209,19,-14,24
4,73,68,-39,-31,70,78,229,161,4,-24,14
24,82,58,-53,-17,70,78,219,146,-14,-14,14
29,107,78,-68,-24,92,78,209,117,-29,-14,24
48,117,68,-82,-9,92,73,170,78,-53,-19,14
78,97,19,-87,29,58,53,146,107,-29,4,24
78,92,14,-85,31,53,39,117,112,-24,19,34
63,63,0,-63,31,31,24,92,126,-9,34,43
68,58,-9,-63,39,24,9,63,136,14,48,63
68,48,-19,-58,43,14,14,87,170,24,63,82
29,29,0,-29,14,14,-4,97,165,29,63,82
-19,-14,4,17,-12,-4,9,146,161,34,53,68
-53,-34,19,43,-36,-7,19,175,146,43,53,63
-82,-4,78,43,-80,36,34,165,131,53,68,58
-34,0,34,17,-34,17,34,136,102,43,73,48
0,29,29,-14,-14,29,39,126,87,39,73,34
107,58,-48,-82,78,4,39,117,87,39,82,19
107,63,-43,-85,75,9,58,107,87,53,82,34
92,68,-24,-80,58,21,82,117,112,63,82,43
63,82,19,-73,21,51,112,136,126,78,87,63
78,87,9,-82,34,48,122,136,141,87,87,68
87,58,-29,-73,58,14,117,122,122,68,78,58
39,24,-14,-31,26,4,117,112,112,58,63,53
19,14,-4,-17,12,4,107,107,92,43,43,43
43,34,-9,-39,26,12,82,107,73,24,19,34
87,24,-63,-56,75,-19,58,117,53,19,29,24
68,14,-53,-41,61,-19,53,126,53,14,34,43
82,9,-73,-46,78,-31,53,146,58,24,39,53
97,4,-92,-51,95,-43,39,156,58,19,39,53
39,-39,-78,0,58,-58,24,126,39,0,39,29
-14,-82,-68,48,26,-75,24,97,29,-4,39,4
-82,-136,-53,109,-14,-95,14,73,14,-14,29,-9
-117,-180,-63,148,-26,-122,14,39,-9,-34,14,-29
-68,-136,-68,102,0,-102,14,29,-24,-58,-9,-14
-9,-102,-92,56,41,-97,9,29,-29,-58,-14,9
29,-82,-112,26,70,-97,0,29,-34,-58,-14,24
63,-82,-146,9,104,-114,-19,19,-39,-58,-9,48
53,-39,-92,-7,73,-65,4,43,0,-24,24,29
53,-9,-63,-21,58,-36,43,78,34,0,53,14
4,-34,-39,14,21,-36,78,92,53,14,82,-4
-24,-68,-43,46,9,-56,92,102,73,29,82,-43
-48,-78,-29,63,-9,-53,102,126,78,14,58,-53
-82,-82,0,82,-41,-41,102,136,92,9,34,-53
-117,-92,24,104,-70,-34,112,161,112,9,24,-48
-112,-87,24,100,-68,-31,156,204,141,24,19,-29
-131,-78,53,104,-92,-12,175,200,156,48,39,0
-165,-87,78,126,-122,-4,141,185,161,58,58,4
-234,-117,117,175,-175,0,112,170,165,68,68,0
-248,-146,102,197,-175,-21,92,161,170,78,82,0
-190,-126,63,158,-126,-31,68,141,146,63,53,0
-136,-102,34,119,-85,-34,53,151,136,48,24,0
-87,-97,-9,92,-39,-53,39,170,141,58,19,4
-29,-73,-43,51,7,-58,48,170,126,34,-9,4
-9,-14,-4,12,-2,-9,58,151,102,0,-34,-19
-4,0,4,2,-4,2,97,156,82,4,-24,-4
-14,0,14,7,-14,7,126,170,82,0,-29,4
-29,14,43,7,-36,29,126,195,63,-9,-48,4
-92,-9,82,51,-87,36,87,165,43,-24,-63,4
-29,-19,9,24,-19,-4,87,146,34,-19,-58,4
-29,-24,4,26,-17,-9,87,136,34,-4,-53,19
-9,-29,-19,19,4,-24,78,87,24,-9,-68,9
48,-34,-82,-7,65,-58,58,73,24,-19,-68,9
58,-39,-97,-9,78,-68,58,68,19,-19,-63,14
63,-58,-122,-2,92,-90,68,68,19,-14,-58,43
53,-34,-87,-9,70,-61,78,73,14,0,-43,48
-9,-82,-73,46,31,-78,63,82,34,14,-14,43
-24,-87,-63,56,19,-75,58,82,68,14,4,39
24,-78,-102,26,63,-90,58,78,78,29,34,39
-9,-117,-107,63,48,-112,53,63,87,43,53,43
-68,-126,-58,97,-4,-92,34,34,63,9,24,19
-68,-156,-87,112,9,-122,9,-4,48,-4,-4,4
-58,-185,-126,122,34,-156,4,-4,48,-14,-24,-19
-58,-156,-97,107,19,-126,0,4,48,-24,-43,-39
-58,-136,-78,97,9,-107,-9,9,34,-24,-43,-58
-73,-141,-68,107,-2,-104,-4,4,43,-34,-43,-87
-92,-146,-53,119,-19,-100,4,0,39,-24,-43,-87
-122,-126,-4,124,-58,-65,39,0,43,-19,-43,-63
-102,-97,4,100,-53,-46,82,24,82,24,-19,-34
-97,-102,-4,100,-46,-53,97,29,102,39,-4,-14
-102,-97,4,100,-53,-46,87,39,102,39,-4,9
-82,-87,-4,85,-39,-46,102,48,112,53,0,29
-78,-92,-14,85,-31,-53,102,63,97,39,-4,14
-73,-107,-34,90,-19,-70,112,63,92,24,-9,0
-78,-126,-48,102,-14,-87,107,68,78,9,-19,-19
-97,-161,-63,129,-17,-112,97,73,63,-14,-29,-39
-63,-122,-58,92,-2,-90,73,53,-19,-39,-48,-102
-48,-87,-39,68,-4,-63,92,29,-39,-43,-73,-112
-126,-195,-68,161,-29,-131,92,43,-43,-43,-102,-112
-107,-204,-97,156,-4,-151,92,97,-9,-9,-63,-43
48,-48,-97,0,73,-73,68,126,39,39,9,48
68,-43,-112,-12,90,-78,43,102,24,24,19,34
87,-39,-126,-24,107,-82,29,87,19,19,19,19
107,-34,-141,-36,124,-87,14,73,14,14,19,4
126,-29,-156,-48,141,-92,0,58,9,9,19,-9
97,-39,-136,-29,117,-87,-19,43,24,4,4,-19
39,-73,-112,17,75,-92,-39,19,29,9,4,-29
-24,-78,-53,51,14,-65,-58,19,43,19,19,-29
-73,-92,-19,82,-26,-56,-73,34,53,48,19,-39
-107,-82,24,95,-65,-29,-68,48,53,58,19,-14
-151,-92,58,122,-104,-17,-63,53,48,53,19,4
-146,-117,29,131,-87,-43,-63,58,34,43,14,24
-122,-87,34,104,-78,-26,-63,63,29,29,9,43
-107,-102,4,104,-56,-48,-29,39,9,9,19,14
-136,-131,4,134,-70,-63,0,24,-14,0,24,4
-122,-141,-19,131,-51,-80,34,9,-24,-9,39,-34
-117,-156,-39,136,-39,-97,58,-4,-34,-19,43,-78
-112,-107,4,109,-58,-51,68,-4,-4,4,53,-53
-112,-73,39,92,-75,-17,92,9,24,29,48,-39
-92,-53,39,73,-65,-7,112,39,48,48,48,-19
-48,-9,39,29,-43,14,131,58,97,78,73,19
-68,4,73,31,-70,39,136,87,97,68,53,48
-87,-4,82,46,-85,39,122,92,82,53,39,43
-117,-43,73,80,-95,14,126,97,73,53,24,48
-165,-78,87,122,-126,4,151,102,58,48,9,63
-156,-92,63,124,-109,-14,131,97,63,43,29,87
-117,-97,19,107,-68,-39,122,107,73,43,39,87
-48,-102,-53,75,2,-78,102,97,68,39,43,82
-14,-117,-102,65,43,-109,87,87,58,14,39,63
-39,-131,-92,85,26,-112,53,126,58,14,14,68
-53,-122,-68,87,7,-95,34,122,58,14,24,63
-4,-126,-122,65,58,-124,19,102,48,4,9,58
-39,-136,-97,87,29,-117,4,97,39,-4,4,53
-53,-112,-58,82,2,-85,29,112,48,4,19,53
-73,-126,-53,100,-9,-90,19,68,19,14,24,53
-92,-131,-39,112,-26,-85,9,24,24,19,34,53
-73,-141,-68,107,-2,-104,-4,14,29,24,48,48
-24,-117,-92,70,34,-104,-14,-4,29,24,43,34
-4,-73,-68,39,31,-70,-29,-14,29,34,39,24
0,-82,-82,41,41,-82,-39,-43,9,43,43,9
-19,-122,-102,70,41,-112,-63,-68,9,53,39,0
-24,-117,-92,70,34,-104,-48,-68,4,34,19,9
-19,-122,-102,70,41,-112,-39,-68,4,34,19,0
9,-117,-126,53,68,-122,-34,-68,4,29,9,14
19,-122,-141,51,80,-131,-29,-58,-4,29,24,19
-14,-151,-136,82,61,-143,-29,-63,-39,14,14,14
-34,-156,-122,95,43,-139,-34,-58,-53,0,19,24
-53,-175,-122,114,34,-148,-43,-73,-78,-29,-19,0
-53,-209,-156,131,51,-183,-53,-78,-92,-53,-34,-24
-73,-190,-117,131,21,-153,-43,-87,-107,-73,-24,-9
-92,-185,-92,139,0,-139,-39,-102,-117,-82,-29,-4
-63,-175,-112,119,24,-143,-34,-112,-126,-97,-48,0
-24,-146,-122,85,48,-134,-19,-122,-136,-112,-48,9
-73,-141,-68,107,-2,-104,-39,-82,-141,-122,-58,-19
-131,-175,-43,153,-43,-109,-63,-63,-146,-131,-58,-53
-175,-214,-39,195,-68,-126,-73,-53,-161,-131,-58,-92
-190,-214,-24,202,-82,-119,-82,-43,-165,-131,-58,-122
-151,-175,-24,163,-63,-100,-29,-53,-136,-97,-48,-87
-122,-161,-39,141,-41,-100,0,-53,-117,-82,-43,-39
-92,-131,-39,112,-26,-85,29,-43,-92,-63,-39,4
-39,-102,-63,70,12,-82,43,-43,-78,-48,-34,39
-48,-136,-87,92,19,-112,24,-68,-63,-58,-19,4
-63,-165,-102,114,19,-134,9,-68,-63,-58,-9,-29
-48,-165,-117,107,34,-141,-4,-48,-39,-58,0,-63
-19,-126,-107,73,43,-117,-29,-48,-29,-63,-4,-102
-14,-161,-146,87,65,-153,-19,-73,-58,-87,-43,-102
-43,-170,-126,107,41,-148,-14,-92,-68,-92,-73,-102
-68,-170,-102,119,17,-136,19,-97,-63,-73,-87,-68
-97,-180,-82,139,-7,-131,43,-117,-68,-78,-117,-48
-82,-185,-102,134,9,-143,34,-107,-53,-63,-102,-24
-63,-185,-122,124,29,-153,34,-102,-48,-63,-97,-14
-9,-161,-151,85,70,-156,34,-78,-53,-58,-97,-14
48,-126,-175,39,112,-151,43,-53,-39,-53,-92,4
39,-131,-170,46,104,-151,34,-53,-43,-53,-68,-4
34,-136,-170,51,102,-153,19,-58,-63,-58,-48,-19
24,-165,-190,70,107,-178,-4,-63,-82,-82,-58,-39
0,-170,-170,85,85,-170,-29,-73,-92,-87,-53,-53
-14,-170,-156,92,70,-163,-29,-68,-107,-102,-73,-48
14,-165,-180,75,97,-173,-29,-63,-117,-107,-82,-58
-14,-175,-161,95,73,-168,-19,-53,-126,-107,-82,-58
-78,-185,-107,131,14,-146,0,-43,-126,-107,-82,-53
-97,-190,-92,143,-2,-141,-34,-78,-146,-117,-68,-53
-92,-204,-112,148,9,-158,-78,-112,-165,-122,-78,-58
-131,-234,-102,183,-14,-168,-102,-146,-190,-122,-73,-68
-175,-273,-97,224,-39,-185,-141,-180,-200,-136,-78,-92
-48,-107,-58,78,4,-82,19,-82,-73,-29,19,-92
-126,-165,-39,146,-43,-102,73,-34,-34,14,24,-73
-131,-214,-82,173,-24,-148,43,-68,-73,-24,-48,-63
-14,-185,-170,100,78,-178,-58,-126,-122,-87,-117,-73
48,-117,-165,34,107,-141,-92,-131,-122,-107,-126,-73
-24,-126,-102,75,39,-114,-24,-92,-102,-97,-107,-53
-82,-190,-107,136,12,-148,39,-48,-78,-82,-87,-43
-141,-219,-78,180,-31,-148,24,-14,-34,-63,-48,-24
-161,-195,-34,178,-63,-114,4,-9,-24,-63,-68,-34
-122,-200,-78,161,-21,-139,4,-29,-34,-82,-107,-92
-82,-156,-73,119,-4,-114,0,-4,0,-63,-107,-131
-63,-14,48,39,-56,17,-9,24,78,4,-48,-122
-29,87,117,-29,-73,102,-19,-68,122,68,9,-117
14,151,136,-82,-61,143,-48,-322,92,151,102,-78
29,239,209,-134,-90,224,-58,-575,58,312,263,58
58,302,244,-180,-92,273,-107,-790,34,492,390,200
209,405,195,-307,7,300,-151,-941,29,697,531,346
370,512,141,-441,114,326,-161,-1024,73,976,746,497
409,527,117,-468,146,322,-180,-1039,141,1273,1000,644
492,595,102,-544,195,348,-214,-1058,180,1537,1239,790
585,678,92,-631,246,385,-312,-1205,122,1742,1454,946
570,697,126,-634,222,412,-478,-1512,-107,1859,1590,1024
512,688,175,-600,168,431,-575,-1869,-448,1898,1673,1088
444,658,214,-551,114,436,-658,-2215,-883,1810,1712,1146
375,502,126,-439,124,314,-854,-2522,-1385,1493,1610,1102
331,170,-161,-251,246,4,-1015,-2713,-1839,1015,1327,946
346,-219,-566,-63,456,-392,-1024,-2674,-2039,458,922,761
317,-649,-966,165,641,-807,-966,-2454,-2122,-317,375,536
161,-1098,-1259,468,710,-1178,-893,-2215,-2298,-1259,-234,278
78,-1312,-1390,617,734,-1351,-775,-1952,-2303,-1688,-561,97
97,-1268,-1366,585,732,-1317,-629,-1639,-2025,-1483,-561,34
141,-1229,-1371,544,756,-1300,-527,-1356,-1712,-1254,-522,0
214,-1220,-1434,502,824,-1327,-458,-1146,-1507,-1190,-531,-29
224,-1210,-1434,492,829,-1322,-424,-995,-1366,-1102,-531,-43
151,-1137,-1288,492,719,-1212,-429,-805,-1224,-1015,-522,-97
117,-1034,-1151,458,634,-1093,-453,-673,-1122,-976,-531,-165
107,-941,-1049,417,578,-995,-434,-678,-1024,-936,-522,-165
68,-854,-922,392,495,-888,-312,-663,-883,-844,-512,-112
107,-673,-780,283,444,-727,-185,-522,-736,-746,-483,-78
180,-488,-668,153,424,-578,-97,-346,-580,-619,-400,-73
112,-375,-488,131,300,-431,-19,-234,-414,-483,-263,-58
-63,-346,-283,204,109,-314,24,-175,-307,-380,-180,-39
-122,-356,-234,239,56,-295,0,-131,-253,-326,-156,-87
-58,-326,-268,192,104,-297,4,-68,-214,-268,-117,-117
0,-268,-268,134,134,-268,39,-39,-131,-204,-82,-68
-19,-283,-263,151,122,-273,19,-4,-73,-195,-117,-92
-39,-268,-229,153,95,-248,19,48,-29,-170,-141,-97
-48,-229,-180,139,65,-204,19,78,4,-146,-151,-97
-58,-229,-170,143,56,-200,9,87,29,-131,-165,-102
-102,-229,-126,165,12,-178,4,87,63,-112,-165,-112
-131,-244,-112,187,-9,-178,14,78,53,-102,-151,-112
-156,-214,-58,185,-48,-136,0,68,53,-102,-151,-112
-151,-195,-43,173,-53,-119,-14,68,53,-92,-146,-112
-161,-185,-24,173,-68,-104,-14,92,63,-78,-131,-97
-165,-200,-34,183,-65,-117,-9,117,82,-78,-136,-97
-170,-214,-43,192,-63,-129,9,161,102,-78,-136,-92
-175,-229,-53,202,-61,-141,19,185,107,-82,-141,-87
-185,-234,-48,209,-68,-141,9,161,68,-97,-156,-107
-175,-239,-63,207,-56,-151,0,136,34,-102,-161,-107
-151,-219,-68,185,-41,-143,-19,126,4,-112,-156,-112
-141,-229,-87,185,-26,-158,-43,102,-24,-117,-141,-122
-156,-219,-63,187,-46,-141,-4,112,0,-87,-107,-131
-151,-190,-39,170,-56,-114,29,112,19,-73,-92,-141
-68,-117,-48,92,-9,-82,68,122,39,-63,-92,-141
-9,-78,-68,43,29,-73,107,136,58,-53,-87,-141
-9,-107,-97,58,43,-102,117,165,97,-43,-73,-112
-63,-122,-58,92,-2,-90,117,170,112,-29,-68,-97
-92,-126,-34,109,-29,-80,117,175,126,-9,-73,-87
-68,-122,-53,95,-7,-87,102,175,126,4,-68,-68
-58,-151,-92,104,17,-122,92,161,117,-9,-82,-82
-92,-170,-78,131,-7,-124,82,161,102,-19,-92,-97
-82,-175,-92,129,4,-134,73,156,92,-43,-107,-112
-63,-190,-126,126,31,-158,73,161,82,-68,-126,-126
-73,-200,-126,136,26,-163,73,156,82,-82,-136,-131
-87,-190,-102,139,7,-146,53,175,82,-87,-136,-141
-126,-175,-48,151,-39,-112,73,190,87,-82,-122,-156
-170,-165,4,168,-87,-80,73,200,82,-73,-107,-170
-141,-146,-4,143,-68,-75,78,175,107,-48,-107,-131
-87,-136,-48,112,-19,-92,87,165,97,-43,-107,-112
-68,-112,-43,90,-12,-78,63,161,102,-39,-107,-92
-34,-107,-73,70,19,-90,53,156,102,-43,-117,-97
-39,-165,-126,102,43,-146,34,161,122,-29,-107,-112
-58,-161,-102,109,21,-131,29,161,156,-24,-102,-112
-107,-195,-87,151,-9,-141,24,180,195,-9,-97,-112
-156,-239,-82,197,-36,-161,4,185,214,9,-87,-112
-200,-219,-19,209,-90,-119,-19,219,234,24,-39,-112
-200,-180,19,190,-109,-80,-29,258,244,43,-39,-122
-214,-161,53,187,-134,-53,-43,292,253,58,-29,-126
-219,-136,82,178,-151,-26,-53,322,258,73,-19,-136
-180,-161,19,170,-100,-70,-43,292,248,48,-63,-161
-151,-170,-19,161,-65,-95,-58,268,229,34,-107,-170
-117,-180,-63,148,-26,-122,-48,248,224,24,-122,-180
-107,-180,-73,143,-17,-126,-34,239,214,9,-136,-170
-136,-141,-4,139,-65,-73,19,273,234,24,-107,-122
-117,-102,14,109,-65,-43,58,297,248,43,-73,-82
-126,-68,58,97,-92,-4,97,302,273,48,-19,-34
-156,-97,58,126,-107,-19,131,317,302,68,14,0
-141,-122,19,131,-80,-51,141,346,312,63,9,-19
-146,-122,24,134,-85,-48,136,385,312,68,9,-24
-92,-82,9,87,-51,-36,141,424,322,78,9,-29
-73,-48,24,61,-48,-12,141,439,317,78,4,-43
-87,-73,14,80,-51,-29,126,419,307,63,-14,-73
-107,-87,19,97,-63,-34,117,409,302,53,-29,-87
-117,-102,14,109,-65,-43,112,385,307,58,-48,-92
-122,-117,4,119,-63,-56,97,356,297,34,-82,-107
-97,-126,-29,112,-34,-78,63,361,307,39,-73,-97
-122,-117,4,119,-63,-56,39,395,307,43,-68,-97
-146,-87,58,117,-102,-14,-9,419,336,68,-58,-92
-136,-78,58,107,-97,-9,-48,409,341,73,-53,-87
-122,-82,39,102,-80,-21,-9,414,356,87,-34,-82
-112,-73,39,92,-75,-17,39,419,361,112,-14,-78
-112,-43,68,78,-90,12,102,463,380,141,14,-68
-78,-14,63,46,-70,24,156,488,395,165,39,-48
-102,-24,78,63,-90,26,131,483,419,161,34,-53
-107,-29,78,68,-92,24,117,497,434,156,24,-58
-87,-24,63,56,-75,19,87,507,448,146,9,-63
-102,-29,73,65,-87,21,73,527,453,141,19,-68
-117,-43,73,80,-95,14,53,502,429,131,0,-82
-97,-58,39,78,-68,-9,14,492,414,122,-9,-107
-78,-48,29,63,-53,-9,-4,483,409,112,-19,-141
-48,-53,-4,51,-21,-29,0,483,419,117,-14,-151
-43,-19,24,31,-34,2,34,507,439,122,-29,-87
-43,-9,34,26,-39,12,48,517,444,122,-48,-34
-82,-9,73,46,-78,31,58,531,444,122,-53,0
-78,-24,53,51,-65,14,63,536,439,126,-63,29
-73,9,82,31,-78,46,92,536,439,136,-39,14
-82,24,107,29,-95,65,112,541,434,161,-19,4
-87,29,117,29,-102,73,126,527,439,146,4,4
-87,24,112,31,-100,68,122,502,434,126,9,-9
-58,48,107,4,-82,78,102,522,444,141,19,-9
-58,63,122,-2,-90,92,112,536,458,136,24,-19
-9,78,87,-34,-48,82,117,561,468,136,24,-19
29,122,92,-75,-31,107,122,570,473,136,24,-24
-9,112,122,-51,-65,117,92,531,458,117,14,-14
-43,92,136,-24,-90,114,73,527,424,117,14,-4
-53,29,82,12,-68,56,34,512,405,117,19,4
-73,-24,48,48,-61,12,14,483,375,107,4,-9
-43,0,43,21,-43,21,34,448,341,87,-4,-14
-29,0,29,14,-29,14,39,429,336,82,-4,-9
-29,0,29,14,-29,14,43,409,331,87,4,-14
-24,14,39,4,-31,26,34,390,322,63,-9,-19
-48,29,78,9,-63,53,58,409,322,68,0,0
-92,14,107,39,-100,61,58,390,317,73,34,19
-117,-4,112,61,-114,53,82,370,302,73,29,34
-141,-29,112,85,-126,41,97,370,283,78,34,43
-141,-63,78,102,-109,7,43,341,248,53,24,34
-170,-87,82,129,-126,-2,14,292,224,43,14,24
-209,-97,112,153,-161,7,-14,253,214,39,14,14
-229,-136,92,183,-161,-21,-63,214,200,29,14,4
-209,-117,92,163,-151,-12,-43,219,195,48,34,4
-122,-82,39,102,-80,-21,-29,239,204,53,53,4
-48,-34,14,41,-31,-9,-14,258,200,63,63,14
39,0,-39,-19,39,-19,-4,248,185,63,68,4
29,-58,-87,14,58,-73,-24,224,175,43,48,-9
-9,-92,-82,51,36,-87,-39,195,151,24,39,-14
-63,-151,-87,107,12,-119,-53,170,136,14,29,-19
-97,-185,-87,141,-4,-136,-68,141,117,14,19,-14
-87,-185,-97,136,4,-141,-53,146,131,24,24,4
-117,-195,-78,156,-19,-136,-63,126,117,19,24,4
-156,-229,-73,192,-41,-151,-39,146,102,14,14,-9
-180,-239,-58,209,-61,-148,-19,146,78,14,14,-14
-219,-229,-9,224,-104,-119,-19,122,53,9,-4,-14
-180,-253,-73,217,-53,-163,-24,78,14,-14,-24,-19
-156,-253,-97,204,-29,-175,-24,53,-9,-34,-48,-29
-58,-253,-195,156,68,-224,-29,29,-19,-48,-63,-39
-82,-244,-161,163,39,-202,-29,9,-24,-29,-39,-19
-112,-244,-131,178,9,-187,-14,9,-4,-14,-14,-4
-156,-234,-78,195,-39,-156,4,19,4,4,14,19
-156,-234,-78,195,-39,-156,4,9,14,19,39,29
-73,-209,-136,141,31,-173,0,34,14,34,53,19
-58,-200,-141,129,41,-170,9,53,24,39,63,4
-14,-165,-151,90,68,-158,9,78,24,39,68,-14
73,-102,-175,14,124,-139,-4,107,24,34,68,-34
34,-141,-175,53,104,-158,-34,73,0,24,53,-48
-58,-190,-131,124,36,-161,-43,48,4,14,43,-43
-117,-234,-117,175,0,-175,-48,34,14,19,34,-48
-175,-278,-102,226,-36,-190,-68,9,19,9,19,-63
-161,-258,-97,209,-31,-178,-48,43,43,29,39,-24
-161,-248,-87,204,-36,-168,-34,68,58,53,48,-4
-175,-248,-73,212,-51,-161,-29,97,68,73,48,24
-156,-239,-82,197,-36,-161,-14,117,68,82,43,48
-107,-214,-107,161,0,-161,0,117,43,53,24,19
-58,-200,-141,129,41,-170,0,117,29,39,14,19
-29,-200,-170,114,70,-185,-4,117,14,24,9,9
-4,-219,-214,112,104,-217,-19,107,0,9,9,9
-29,-200,-170,114,70,-185,-29,97,-9,-4,9,19
-43,-185,-141,114,48,-163,-24,107,-4,-9,14,24
-107,-224,-117,165,4,-170,-24,97,-14,-24,19,24
-151,-273,-122,212,-14,-197,-43,82,-24,-39,-4,4
-136,-253,-117,195,-9,-185,-34,73,-39,-39,-9,-4
-141,-239,-97,190,-21,-168,-34,58,-34,-39,-14,-4
-146,-229,-82,187,-31,-156,-24,58,-24,-34,-4,0
-112,-204,-92,158,-9,-148,19,78,-4,-14,9,19
-73,-185,-112,129,19,-148,53,63,-9,-14,-14,14
-58,-185,-126,122,34,-156,34,39,-14,-19,-29,-4
-78,-204,-126,141,24,-165,19,14,-19,-24,-53,-34
-43,-224,-180,134,68,-202,14,-4,-24,-29,-73,-58
-29,-214,-185,122,78,-200,9,-9,-34,-43,-82,-43
-29,-209,-180,119,75,-195,14,4,-29,-58,-92,-39
-34,-224,-190,129,78,-207,19,29,-9,-48,-78,-29
-29,-219,-190,124,80,-204,48,34,-9,-73,-87,-24
4,-170,-175,82,90,-173,48,29,9,-58,-63,-14
14,-165,-180,75,97,-173,78,39,34,-14,-14,14
9,-175,-185,82,97,-180,97,58,78,19,19,39
0,-170,-170,85,85,-170,87,87,102,48,39,53
-102,-195,-92,148,-4,-143,29,107,97,39,34,24
-68,-204,-136,136,34,-170,0,126,102,48,39,14
-97,-209,-112,153,7,-161,-29,156,117,68,43,19
-107,-214,-107,161,0,-161,-68,146,122,68,29,0
-82,-224,-141,153,29,-183,-39,107,122,39,4,-34
-87,-224,-136,156,24,-180,-9,97,117,39,4,-43
-97,-239,-141,168,21,-190,29,92,117,43,4,-29
-122,-209,-87,165,-17,-148,68,92,112,58,14,-39
-165,-248,-82,207,-41,-165,48,97,102,58,4,-34
-170,-244,-73,207,-48,-158,29,102,107,43,-4,-39
-112,-224,-112,168,0,-168,14,102,87,43,-4,-39
-136,-253,-117,195,-9,-185,-4,92,68,43,-14,-34
-185,-273,-87,229,-48,-180,-24,82,43,19,-4,-43
-165,-302,-136,234,-14,-219,-48,53,19,14,-4,-43
-136,-331,-195,234,29,-263,-53,63,9,14,4,-53
-117,-302,-185,209,34,-244,-58,82,0,14,14,-58
-141,-302,-161,222,9,-231,-63,63,-14,-9,-14,-78
-170,-326,-156,248,-7,-241,-53,24,-4,-34,-34,-107
-204,-351,-146,278,-29,-248,-39,-14,-9,-39,-53,-107
-248,-351,-102,300,-73,-226,0,-48,-4,-48,-73,-82
-200,-322,-122,261,-39,-222,34,-24,29,-19,-58,-58
-175,-317,-141,246,-17,-229,39,-9,43,-9,-53,-53
-161,-302,-141,231,-9,-222,19,9,39,-14,-63,-43
-122,-283,-161,202,19,-222,24,29,43,-4,-68,-39
-117,-263,-146,190,14,-204,19,43,48,19,-34,-4
-112,-253,-141,183,14,-197,24,53,63,34,-19,19
-117,-248,-131,183,7,-190,14,68,68,48,-9,39
-136,-258,-122,197,-7,-190,0,82,73,53,0,58
-190,-248,-58,219,-65,-153,-14,-14,39,48,19,24
-97,-175,-78,136,-9,-126,-24,-29,19,34,4,-24
29,-195,-224,82,126,-209,-63,-73,-34,-24,-43,-92
0,-322,-322,161,161,-322,-58,-117,-78,-48,-68,-107
-53,-336,-283,195,114,-309,-43,-87,-63,-34,-48,-73
-107,-351,-244,229,68,-297,-29,-58,-48,-19,-39,-48
-161,-366,-204,263,21,-285,-14,-29,-34,-4,-29,-24
-214,-380,-165,297,-24,-273,0,0,-19,9,-19,0
-161,-326,-165,244,2,-246,-9,9,-29,0,-4,9
-146,-297,-151,222,2,-224,-9,0,-39,0,4,9
-136,-239,-102,187,-17,-170,-9,14,-39,4,29,19
-112,-190,-78,151,-17,-134,-4,43,-43,29,39,19
-92,-161,-68,126,-12,-114,-14,43,0,68,63,-4
-102,-161,-58,131,-21,-109,-14,43,19,82,78,-14
-63,-175,-112,119,24,-143,-19,43,29,92,87,-24
-4,-136,-131,70,63,-134,-24,43,48,97,97,-34
-43,-190,-146,117,51,-168,-43,34,24,68,53,-53
-107,-248,-141,178,17,-195,-48,24,-4,39,14,-43
-126,-287,-161,207,17,-224,-48,14,-19,9,-14,-63
-156,-331,-175,244,9,-253,-58,4,-34,-19,-53,-87
-146,-287,-141,217,-2,-214,-48,-19,-24,0,-34,-58
-151,-258,-107,204,-21,-183,-24,-9,-14,9,-29,-39
-136,-244,-107,190,-14,-175,-4,14,-9,14,-19,-14
-97,-204,-107,151,4,-156,14,29,19,29,14,29
-73,-161,-87,117,7,-124,9,29,34,34,29,48
-48,-151,-102,100,26,-126,-14,14,34,24,29,34
-34,-170,-136,102,51,-153,-19,0,39,29,29,29
-39,-185,-146,112,53,-165,-4,-14,39,29,29,34
-63,-204,-141,134,39,-173,29,9,68,58,53,48
-58,-214,-156,136,48,-185,63,48,92,82,68,48
-24,-224,-200,124,87,-212,87,68,102,102,78,43
-24,-244,-219,134,97,-231,117,87,107,102,78,24
-63,-263,-200,163,68,-231,53,102,82,87,53,24
-82,-258,-175,170,46,-217,4,82,68,73,63,14
-39,-268,-229,153,95,-248,-39,48,43,48,48,4
-78,-283,-204,180,63,-244,-82,29,19,24,43,-4
-92,-287,-195,190,51,-241,-87,43,29,39,43,14
-122,-322,-200,222,39,-261,-117,9,-9,43,34,24
-151,-346,-195,248,21,-270,-146,-24,-14,43,29,34
-141,-375,-234,258,46,-305,-180,-24,-19,43,29,39
-82,-341,-258,212,87,-300,-170,-39,-43,14,14,24
-43,-287,-244,165,100,-265,-165,-34,-58,-4,0,14
-19,-287,-268,153,124,-278,-156,-48,-92,-24,-4,0
-19,-317,-297,168,139,-307,-161,-58,-107,-43,-19,-9
-78,-312,-234,195,78,-273,-122,-68,-87,-39,-9,-24
-117,-317,-200,217,41,-258,-97,-78,-82,-24,9,-39
-131,-312,-180,222,24,-246,-78,-87,-78,-14,19,-29
-165,-317,-151,241,-7,-234,-58,-87,-82,0,53,-29
-126,-287,-161,207,17,-224,-43,-92,-73,24,78,-4
-82,-244,-161,163,39,-202,-34,-87,-53,39,107,34
-39,-214,-175,126,68,-195,-29,-102,-43,39,92,39
24,-200,-224,87,124,-212,-24,-107,-24,43,102,43
-4,-185,-180,95,87,-183,-43,-87,-24,39,92,24
-43,-185,-141,114,48,-163,-58,-82,-19,34,78,14
-34,-180,-146,107,56,-163,-73,-73,-14,24,48,4
-14,-156,-141,85,63,-148,-78,-63,-9,14,39,0
-58,-161,-102,109,21,-131,-53,-14,-34,0,9,-4
-112,-204,-92,158,-9,-148,-53,4,-48,-14,0,-14
-151,-253,-102,202,-24,-178,-39,14,-73,-19,-9,-29
-161,-263,-102,212,-29,-183,-24,24,-87,-24,-19,-34
-156,-268,-112,212,-21,-190,4,-34,-92,-24,-24,-48
-151,-278,-126,214,-12,-202,19,-73,-97,-24,-24,-39
-146,-273,-126,209,-9,-200,34,-102,-97,-19,-24,-34
-117,-268,-151,192,17,-209,34,-141,-107,-19,-24,-39
-117,-312,-195,214,39,-253,14,-161,-97,-19,-29,-24
-131,-341,-209,236,39,-275,0,-156,-102,-19,-29,-9
-117,-341,-224,229,53,-283,-14,-131,-82,-19,-29,4
-87,-302,-214,195,63,-258,-39,-126,-78,-24,-43,14
-107,-351,-244,229,68,-297,-53,-102,-87,-43,-43,-4
-161,-366,-204,263,21,-285,-63,-82,-87,-53,-34,-14
-209,-370,-161,290,-24,-265,-43,-48,-73,-39,-9,9
-263,-385,-122,324,-70,-253,-34,-29,-68,-48,0,19
-302,-414,-112,358,-95,-263,-63,-43,-82,-63,-19,9
-317,-429,-112,373,-102,-270,-73,-63,-97,-73,-29,-4
-297,-419,-122,358,-87,-270,-82,-63,-122,-78,-43,-29
-273,-400,-126,336,-73,-263,-82,-63,-126,-82,-53,-34
-234,-361,-126,297,-53,-244,-78,-78,-107,-68,-43,-29
-209,-331,-122,270,-43,-226,-78,-87,-112,-68,-39,-29
-190,-326,-136,258,-26,-231,-87,-97,-117,-87,-63,-34
-185,-297,-112,241,-36,-204,-97,-112,-112,-87,-73,-34
-146,-297,-151,222,2,-224,-117,-112,-102,-68,-53,-34
-73,-292,-219,183,73,-256,-117,-112,-97,-58,-43,-39
-58,-302,-244,180,92,-273,-107,-107,-92,-43,-24,-34
-78,-312,-234,195,78,-273,-87,-102,-78,-29,-4,-24
-39,-263,-224,151,92,-244,-63,-73,-63,-4,14,-19
4,-234,-239,114,122,-236,-48,-63,-68,4,19,-19
4,-219,-224,107,114,-222,-14,-53,-78,19,39,-24
0,-214,-214,107,107,-214,4,-43,-73,19,48,-43
-185,-253,-68,219,-58,-161,29,-63,-73,-19,9,-34
-283,-380,-97,331,-92,-239,-43,-43,-131,-82,-73,-73
-317,-380,-63,348,-126,-222,-24,0,-131,-73,-78,-73
-297,-341,-43,319,-126,-192,-9,-29,-112,-48,-48,-73
-312,-331,-19,322,-146,-175,-4,-73,-112,-29,-19,-73
-395,-390,4,392,-200,-192,-24,-112,-122,-19,-9,-102
-385,-405,-19,395,-183,-212,-48,-136,-117,-24,-9,-131
-239,-278,-39,258,-100,-158,-24,-73,-53,24,29,-82
-190,-185,4,187,-97,-90,24,0,43,63,58,-4
-326,-258,68,292,-197,-95,14,0,43,24,0,-4
-414,-331,82,373,-248,-124,0,-4,39,14,-29,-34
-297,-200,97,248,-197,-51,48,43,126,82,48,-24
-175,-68,107,122,-141,19,58,48,190,165,107,9
-141,-34,107,87,-124,36,-39,-107,141,209,141,9
-175,24,200,75,-187,112,-107,-370,58,302,244,58
-195,117,312,39,-253,214,-97,-595,34,473,409,200
-53,151,204,-48,-129,178,-161,-795,9,629,551,326
126,151,24,-139,51,87,-326,-1034,-63,780,658,429
126,146,19,-136,53,82,-414,-1156,-63,1019,844,595
122,185,63,-153,29,124,-380,-1156,43,1332,1112,810
185,268,82,-226,51,175,-351,-1234,82,1625,1366,966
209,307,97,-258,56,202,-380,-1473,-19,1800,1532,1073
239,326,87,-283,75,207,-488,-1781,-253,1898,1654,1156
356,395,39,-375,158,217,-678,-2098,-629,1859,1722,1195
395,424,29,-409,183,226,-854,-2435,-1112,1639,1659,1161
331,258,-73,-295,202,92,-946,-2644,-1546,1268,1473,1073
307,-43,-351,-131,329,-197,-927,-2586,-1776,810,1176,956
278,-424,-702,73,490,-563,-839,-2366,-1878,112,678,741
151,-873,-1024,361,588,-949,-766,-2176,-2122,-907,0,424
58,-1156,-1215,549,636,-1185,-697,-2010,-2303,-1561,-453,175
107,-1190,-1298,541,702,-1244,-610,-1756,-2132,-1503,-541,92
180,-1200,-1381,509,780,-1290,-527,-1464,-1820,-1263,-541,39
165,-1268,-1434,551,800,-1351,-448,-1234,-1576,-1180,-570,0
78,-1307,-1385,614,732,-1346,-366,-1034,-1356,-1093,-561,-4
-4,-1273,-1268,639,631,-1271,-312,-873,-1166,-966,-522,-39
-29,-1200,-1171,614,570,-1185,-278,-751,-1034,-897,-512,-97
-19,-1117,-1098,568,539,-1107,-248,-668,-966,-878,-502,-126
-58,-1068,-1010,563,475,-1039,-244,-585,-902,-824,-483,-151
-117,-995,-878,556,380,-936,-214,-453,-785,-727,-424,-117
-141,-888,-746,514,302,-817,-156,-326,-649,-610,-361,-82
-112,-736,-624,424,256,-680,-107,-244,-502,-502,-302,-48
-131,-570,-439,351,153,-505,-112,-204,-356,-380,-248,-19
-190,-483,-292,336,51,-387,-117,-190,-263,-307,-214,-29
-117,-424,-307,270,95,-366,-112,-117,-214,-248,-185,-39
-78,-356,-278,217,100,-317,-68,-39,-151,-175,-122,-29
-117,-351,-234,234,58,-292,-19,19,-87,-136,-112,-39
-146,-326,-180,236,17,-253,29,97,-29,-102,-92,-39
-165,-278,-112,222,-26,-195,78,151,19,-68,-58,-34
-185,-268,-82,226,-51,-175,117,185,58,-43,-29,-34
-219,-292,-73,256,-73,-183,92,170,82,-43,-29,-43
-229,-331,-102,280,-63,-217,82,146,63,-34,-24,-43
-234,-326,-92,280,-70,-209,48,122,53,-34,-34,-43
-209,-331,-122,270,-43,-226,14,107,43,-24,-39,-43
-190,-278,-87,234,-51,-183,-9,107,68,9,-4,-53
-175,-258,-82,217,-46,-170,-19,117,92,19,0,-68
-161,-239,-78,200,-41,-158,-14,146,117,29,9,-78
-146,-219,-73,183,-36,-146,-19,156,126,34,14,-87
-165,-244,-78,204,-43,-161,24,161,141,24,-14,-78
-175,-258,-82,217,-46,-170,58,165,141,34,-24,-68
-170,-248,-78,209,-46,-163,82,185,146,39,-24,-63
-180,-268,-87,224,-46,-178,102,190,151,48,-14,-63
-244,-302,-58,273,-92,-180,78,190,146,34,-19,-43
-268,-307,-39,287,-114,-173,68,180,146,24,-24,-43
-214,-268,-53,241,-80,-161,63,180,146,9,-43,-34
-185,-263,-78,224,-53,-170,58,185,146,-4,-58,-24
-214,-307,-92,261,-61,-200,48,185,136,-24,-48,-48
-287,-336,-48,312,-119,-192,39,180,122,-29,-48,-68
-336,-356,-19,346,-158,-187,29,175,107,-29,-58,-92
-331,-366,-34,348,-148,-200,4,165,78,-34,-58,-107
-278,-331,-53,305,-112,-192,58,161,97,-9,-39,-73
-268,-297,-29,283,-119,-163,92,161,102,9,-34,-58
-214,-248,-34,231,-90,-141,126,156,112,14,-34,-43
-151,-209,-58,180,-46,-134,170,161,122,19,-39,-29
-131,-195,-63,163,-34,-129,141,190,141,29,-29,-24
-117,-170,-53,143,-31,-112,92,234,161,39,-29,-24
-126,-141,-14,134,-56,-78,82,273,185,58,-14,-29
-141,-117,24,129,-82,-46,53,307,200,82,0,-34
-185,-156,29,170,-107,-63,48,292,219,82,9,-34
-195,-185,9,190,-102,-87,48,283,204,82,9,-34
-239,-200,39,219,-139,-80,14,278,204,82,9,-34
-268,-234,34,251,-151,-100,-4,273,200,73,0,-58
-292,-287,4,290,-148,-141,19,268,200,63,-4,-63
-322,-278,43,300,-183,-117,48,268,214,63,-4,-63
-380,-307,73,344,-226,-117,78,287,234,73,-4,-63
-439,-346,92,392,-265,-126,92,292,234,87,0,-63
-385,-307,78,346,-231,-114,97,287,234,92,43,-34
-307,-248,58,278,-183,-95,97,297,234,102,39,-34
-244,-209,34,226,-139,-87,92,302,234,107,43,-29
-170,-165,4,168,-87,-80,92,302,229,112,48,-29
-131,-165,-34,148,-48,-100,97,307,239,117,39,-29
-112,-161,-48,136,-31,-104,87,307,239,122,29,-24
-87,-156,-68,122,-9,-112,102,312,253,131,48,-19
-87,-141,-53,114,-17,-97,122,326,263,136,68,4
-112,-107,4,109,-58,-51,146,341,287,156,87,24
-87,-73,14,80,-51,-29,165,346,307,170,102,34
-92,-43,48,68,-70,2,185,331,336,170,136,53
-117,-78,39,97,-78,-19,200,326,370,185,151,58
-170,-170,0,170,-85,-85,170,341,361,170,122,24
-234,-229,4,231,-119,-112,126,366,351,156,87,4
-239,-248,-9,244,-114,-129,92,390,351,146,53,-14
-278,-273,4,275,-141,-134,53,390,336,126,14,-43
-258,-239,19,248,-139,-109,39,409,341,122,9,-48
-244,-214,29,229,-136,-92,39,429,341,112,9,-48
-219,-190,29,204,-124,-80,43,434,351,117,4,-39
-190,-165,24,178,-107,-70,39,434,346,92,-14,-39
-200,-190,9,195,-104,-90,63,463,361,117,9,-29
-239,-195,43,217,-141,-75,87,512,375,131,29,-29
-278,-180,97,229,-187,-41,87,551,419,165,53,-24
-283,-185,97,234,-190,-43,97,556,439,180,73,-19
-258,-214,43,236,-151,-85,97,536,458,185,68,-9
-248,-209,39,229,-143,-85,107,527,468,200,63,0
-248,-185,63,217,-156,-61,131,556,492,219,68,14
-214,-161,53,187,-134,-53,146,566,512,234,68,39
-195,-136,58,165,-126,-39,151,580,536,248,82,58
-175,-117,58,146,-117,-29,156,595,551,263,92,68
-131,-87,43,109,-87,-21,146,605,566,273,97,78
-122,-68,53,95,-87,-7,151,624,570,287,126,87
-146,-68,78,107,-112,4,126,629,541,268,112,68
-146,-78,68,112,-107,-4,92,629,522,258,107,48
-146,-63,82,104,-114,9,78,629,512,248,102,19
-136,-63,73,100,-104,4,87,639,517,253,112,14
-122,-53,68,87,-95,7,58,634,502,239,102,14
-112,-58,53,85,-82,-2,29,614,492,219,78,14
-141,-73,68,107,-104,-2,-4,600,478,200,68,-4
-126,-102,24,114,-75,-39,-43,575,458,185,53,-29
-131,-82,48,107,-90,-17,0,570,453,175,53,-14
-161,-73,87,117,-124,7,43,570,453,200,58,4
-185,-73,112,129,-148,19,82,551,463,185,68,34
-204,-82,122,143,-163,19,102,522,463,165,58,48
-214,-97,117,156,-165,9,107,551,468,180,78,29
-244,-102,141,173,-192,19,131,575,478,185,92,9
-224,-107,117,165,-170,4,151,610,483,195,102,0
-214,-82,131,148,-173,24,170,629,483,204,112,-14
-200,-58,141,129,-170,41,146,585,492,204,117,-9
-200,-43,156,122,-178,56,131,566,483,214,122,4
-175,-73,102,124,-139,14,97,536,488,224,131,19
-161,-92,68,126,-114,-12,82,492,483,224,122,9
-141,-53,87,97,-114,17,73,488,448,195,102,24
-126,-39,87,82,-107,24,58,497,434,180,82,39
-126,-24,102,75,-114,39,43,507,419,175,73,43
-122,4,126,58,-124,65,14,517,400,141,39,48
-131,34,165,48,-148,100,24,502,380,131,53,68
-151,34,185,58,-168,109,19,458,375,131,82,87
-151,29,180,61,-165,104,39,414,361,126,73,102
-151,19,170,65,-161,95,48,390,341,126,73,112
-117,0,117,58,-117,58,34,380,312,126,82,97
-112,-19,92,65,-102,36,43,351,292,122,82,92
-117,-24,92,70,-104,34,53,331,287,122,92,87
-102,-58,43,80,-73,-7,43,312,278,117,102,82
-131,-53,78,92,-104,12,24,287,268,131,107,97
-82,-43,39,63,-61,-2,19,278,273,131,122,102
-48,-19,29,34,-39,4,14,268,263,136,126,117
0,-9,-9,4,4,-9,4,229,244,131,126,112
-9,-58,-48,34,19,-53,-9,214,224,112,107,92
-39,-82,-43,61,2,-63,-19,195,190,92,97,73
-82,-131,-48,107,-17,-90,-29,180,165,82,87,53
-107,-156,-48,131,-29,-102,-39,161,136,82,78,43
-92,-156,-63,124,-14,-109,-34,151,161,102,97,53
-117,-156,-39,136,-39,-97,-53,126,156,107,102,53
-151,-180,-29,165,-61,-104,-39,141,151,112,97,39
-170,-180,-9,175,-80,-95,-29,136,136,122,102,34
-258,-185,73,222,-165,-56,-39,141,131,122,112,43
-258,-214,43,236,-151,-85,-43,126,102,102,102,39
-273,-219,53,246,-163,-82,-43,131,87,87,87,29
-214,-224,-9,219,-102,-117,-48,136,87,78,82,19
-209,-229,-19,219,-95,-124,-34,117,53,58,73,19
-219,-234,-14,226,-102,-124,-4,117,43,43,63,24
-244,-229,14,236,-129,-107,29,126,24,34,58,39
-224,-234,-9,229,-107,-122,43,117,4,19,48,39
-151,-219,-68,185,-41,-143,24,87,-14,29,48,34
-146,-229,-82,187,-31,-156,19,73,-14,29,43,24
-112,-214,-102,163,-4,-158,4,63,-24,24,34,9
-34,-170,-136,102,51,-153,-24,58,-34,14,19,-4
9,-156,-165,73,87,-161,-29,48,-29,19,34,4
-19,-151,-131,85,56,-141,-24,48,-4,24,43,24
-14,-141,-126,78,56,-134,-14,58,24,43,53,34
-9,-131,-122,70,56,-126,-19,58,48,48,58,34
-53,-165,-112,109,29,-139,-24,73,53,39,73,14
-102,-190,-87,146,-7,-139,-24,87,58,43,78,-4
-165,-224,-58,195,-53,-141,-34,107,58,43,73,-14
-195,-248,-53,222,-70,-151,-34,117,48,34,63,-29
-170,-263,-92,217,-39,-178,-19,73,14,-4,34,-29
-146,-268,-122,207,-12,-195,-19,48,-9,-19,14,-9
-141,-287,-146,214,2,-217,-24,24,-34,-34,0,0
-141,-326,-185,234,21,-256,-39,-9,-58,-48,-9,19
-87,-253,-165,170,39,-209,-29,-4,-39,-24,-9,19
-34,-204,-170,119,68,-187,-4,19,-14,-9,4,24
-29,-209,-180,119,75,-195,14,24,-4,-4,19,24
-4,-224,-219,114,107,-222,14,24,4,0,4,4
4,-209,-214,102,109,-212,-4,53,9,0,0,-29
-4,-200,-195,102,95,-197,-14,58,24,0,-4,-43
-14,-195,-180,104,82,-187,-14,78,43,4,4,-53
14,-175,-190,80,102,-183,19,117,73,24,19,-48
39,-131,-170,46,104,-151,68,126,63,29,9,-24
39,-117,-156,39,97,-136,53,126,63,29,0,-14
4,-122,-126,58,65,-124,43,126,63,29,-19,-14
24,-126,-151,51,87,-139,43,131,63,29,-34,-9
-24,-165,-141,95,58,-153,19,102,43,14,-39,-19
-78,-190,-112,134,17,-151,14,92,39,0,-43,-29
-136,-234,-97,185,-19,-165,9,92,48,9,-24,-34
-185,-258,-73,222,-56,-165,29,73,39,-14,-29,-43
-185,-229,-43,207,-70,-136,-9,63,19,-34,-48,-63
-200,-244,-43,222,-78,-143,-9,68,14,-24,-34,-53
-229,-273,-43,251,-92,-158,-19,82,29,-24,-34,-48
-263,-287,-24,275,-119,-156,-58,107,24,-29,-48,-53
-287,-273,14,280,-151,-129,-58,122,43,-9,-19,-53
-195,-263,-68,229,-63,-165,-39,136,63,19,9,-43
-165,-248,-82,207,-41,-165,-19,161,92,58,39,-19
-117,-234,-117,175,0,-175,-9,146,112,78,48,-19
-97,-248,-151,173,26,-200,-29,107,92,39,14,-53
-117,-263,-146,190,14,-204,-29,97,78,29,-4,-63
-141,-292,-151,217,4,-222,-19,92,68,24,-24,-48
-180,-278,-97,229,-41,-187,-9,92,53,29,-34,-58
-175,-268,-92,222,-41,-180,4,97,63,43,-34,-58
-141,-234,-92,187,-24,-163,9,92,78,34,-34,-58
-43,-185,-141,114,48,-163,19,82,68,39,-24,-53
-29,-185,-156,107,63,-170,24,63,58,43,-24,-43
-136,-229,-92,183,-21,-161,0,43,43,29,-24,-34
-165,-283,-117,224,-24,-200,-29,4,29,24,-24,-34
-185,-336,-151,261,-17,-244,-39,4,29,24,-14,-43
-214,-331,-117,273,-48,-224,-48,14,29,24,-4,-48
-165,-297,-131,231,-17,-214,-73,48,14,19,-19,-58
-131,-297,-165,214,17,-231,-73,53,24,4,-24,-87
-102,-297,-195,200,46,-246,-68,58,19,9,-29,-87
-82,-273,-190,178,53,-231,-39,68,24,9,-34,-63
-58,-248,-190,153,65,-219,-4,58,14,4,-43,-73
-58,-258,-200,158,70,-229,0,39,-4,-9,-53,-82
-68,-258,-190,163,61,-224,-19,24,-43,-39,-78,-87
-53,-253,-200,153,73,-226,-14,9,-73,-53,-97,-97
-82,-248,-165,165,41,-207,14,0,-48,-39,-73,-82
-112,-253,-141,183,14,-197,43,-4,-14,-24,-58,-78
-151,-263,-112,207,-19,-187,58,-4,9,-9,-48,-78
-204,-287,-82,246,-61,-185,68,-4,34,-4,-39,-78
-180,-307,-126,244,-26,-217,34,34,68,48,29,-34
-165,-234,-68,200,-48,-151,14,39,58,63,43,-14
-136,-165,-29,151,-53,-97,29,48,48,68,39,0
-112,-170,-58,141,-26,-114,0,29,39,53,24,-4
-87,-175,-87,131,0,-131,-19,19,29,48,19,-9
-63,-180,-117,122,26,-148,-39,9,19,43,14,-14
-39,-185,-146,112,53,-165,-58,0,9,39,9,-19
-4,-195,-190,100,92,-192,-63,-14,4,24,4,0
-19,-219,-200,119,90,-209,-68,-29,0,19,4,0
-39,-214,-175,126,68,-195,-73,-19,4,19,19,9
-43,-219,-175,131,65,-197,-73,4,4,39,19,9
-68,-224,-156,146,43,-190,-43,9,9,43,29,-14
-112,-239,-126,175,7,-183,-24,4,0,43,39,-24
-107,-268,-161,187,26,-214,-9,0,-19,39,43,-34
-82,-244,-161,163,39,-202,4,-4,-29,29,48,-43
-73,-229,-156,151,41,-192,-4,0,-14,19,24,-48
-107,-239,-131,173,12,-185,0,-4,-24,19,4,-34
-97,-229,-131,163,17,-180,9,-9,-19,19,-4,-48
-97,-224,-126,161,14,-175,9,-14,-14,19,-24,-68
-141,-229,-87,185,-26,-158,24,0,19,19,-34,-39
-190,-229,-39,209,-75,-134,43,29,43,19,-39,-9
-219,-244,-24,231,-97,-134,58,73,63,14,-39,24
-224,-234,-9,229,-107,-122,73,107,107,19,-14,78
-161,-165,-4,163,-78,-85,58,112,117,24,4,68
-97,-131,-34,114,-31,-82,34,112,102,24,9,34
-43,-126,-82,85,19,-104,29,112,92,39,14,9
-9,-117,-107,63,48,-112,43,112,78,48,19,-4
-53,-112,-58,82,2,-85,63,126,97,78,43,34
-58,-97,-39,78,-9,-68,73,146,112,102,58,48
-34,-82,-48,58,7,-65,73,146,112,122,68,58
-43,-78,-34,61,-4,-56,78,146,107,122,68,53
-53,-112,-58,82,2,-85,58,161,82,122,58,68
-53,-112,-58,82,2,-85,43,141,78,112,73,73
9,-126,-136,58,73,-131,34,107,63,92,63,78
-9,-146,-136,78,63,-141,24,87,48,73,63,82
-73,-165,-92,119,9,-129,19,63,39,58,73,58
-141,-214,-73,178,-34,-143,-9,-9,-9,53,63,34
-209,-253,-43,231,-82,-148,-39,-82,-24,43,58,9
-239,-297,-58,268,-90,-178,-73,-122,-39,34,58,-19
-165,-307,-141,236,-12,-224,-78,-112,-58,9,29,-24
-122,-287,-165,204,21,-226,-87,-92,-58,-4,0,-24
-92,-322,-229,207,68,-275,-92,-92,-78,-19,-19,-29
-87,-385,-297,236,104,-341,-112,-87,-78,-34,-48,-29
-107,-366,-258,236,75,-312,-82,-87,-63,-43,-58,-24
-107,-346,-239,226,65,-292,-68,-97,-53,-43,-58,-29
-82,-317,-234,200,75,-275,-58,-107,-43,-48,-68,-9
-78,-297,-219,187,70,-258,-48,-107,-43,-48,-53,0
-87,-287,-200,187,56,-244,-34,-107,-53,-34,-43,9
-82,-263,-180,173,48,-222,-24,-97,-53,-29,-19,24
-78,-253,-175,165,48,-214,-19,-107,-63,-39,-39,4
-53,-258,-204,156,75,-231,-14,-107,-63,-43,-34,-14
-102,-258,-156,180,26,-207,-29,-82,-48,-29,-19,-4
-151,-263,-112,207,-19,-187,-29,-63,-39,-24,-19,-4
-151,-263,-112,207,-19,-187,-29,-39,-29,-24,-34,-4
-141,-244,-102,192,-19,-173,-19,-14,-19,-24,-29,0
-161,-248,-87,204,-36,-168,-48,-14,-53,-39,-53,-19
-200,-283,-82,241,-58,-183,-82,-34,-78,-63,-58,-34
-224,-322,-97,273,-63,-209,-102,-63,-112,-78,-63,-53
-219,-322,-102,270,-58,-212,-122,-92,-136,-92,-68,-63
-200,-297,-97,248,-51,-197,-58,-82,-112,-68,-43,-53
-190,-287,-97,239,-46,-192,-19,-63,-97,-53,-34,-39
-180,-263,-82,222,-48,-173,19,-34,-78,-34,-24,-29
-146,-239,-92,192,-26,-165,43,-14,-68,-19,-14,-29
-165,-268,-102,217,-31,-185,58,-53,-58,-19,0,-19
-190,-292,-102,241,-43,-197,68,-58,-63,-9,9,-19
-185,-287,-102,236,-41,-195,78,-43,-43,0,19,-19
-165,-244,-78,204,-43,-161,78,-48,-39,4,14,-24
-126,-268,-141,197,7,-204,29,-63,-63,-9,0,-78
-141,-268,-126,204,-7,-197,-14,-63,-68,-14,-4,-112
-151,-258,-107,204,-21,-183,-29,-48,-58,4,4,-112
-165,-258,-92,212,-36,-175,-53,-48,-58,0,0,-126
-185,-273,-87,229,-48,-180,-78,-68,-58,-14,-34,-107
-190,-273,-82,231,-53,-178,-82,-82,-58,-24,-58,-102
-161,-248,-87,204,-36,-168,-87,-78,-68,-29,-87,-107
-126,-214,-87,170,-19,-151,-82,-73,-58,-34,-112,-92
-97,-195,-97,146,0,-146,-63,-58,-58,-39,-82,-73
-82,-185,-102,134,9,-143,-48,-58,-73,-39,-68,-58
-73,-200,-126,136,26,-163,-43,-58,-87,-58,-82,-48
-78,-190,-112,134,17,-151,-39,-63,-92,-58,-82,-34
-92,-185,-92,139,0,-139,-24,-43,-92,-68,-78,-29
-53,-175,-122,114,34,-148,-9,-34,-87,-68,-73,-39
-73,-180,-107,126,17,-143,14,-19,-82,-63,-58,-39
-126,-185,-58,156,-34,-122,48,-4,-68,-58,-43,-34
-146,-200,-53,173,-46,-126,53,-9,-53,-58,-43,-39
-151,-214,-63,183,-43,-139,39,-24,-58,-63,-58,-48
-200,-244,-43,222,-78,-143,43,-39,-68,-63,-58,-63
-253,-283,-29,268,-112,-156,34,-53,-63,-78,-68,-92
-244,-292,-48,268,-97,-170,-9,-151,-73,-78,-68,-82
-68,-165,-97,117,14,-131,14,-63,-14,-24,-34,-4
4,-146,-151,70,78,-148,4,19,24,4,-19,24
-24,-195,-170,109,73,-183,-29,9,-4,-9,-19,-24
-78,-214,-136,146,29,-175,-43,-34,-63,-29,-19,-82
-180,-244,-63,212,-58,-153,-14,-43,-92,-48,-9,-102
-229,-268,-39,248,-95,-153,9,-29,-97,-63,-9,-112
-170,-248,-78,209,-46,-163,4,-4,-73,-53,-29,-102
-131,-204,-73,168,-29,-139,43,39,4,-4,-19,-43
-180,-161,19,170,-100,-70,82,78,112,53,0,4
-229,-107,122,168,-175,7,58,92,156,82,19,4
-219,-24,195,122,-207,85,39,122,175,112,48,-14
-165,78,244,43,-204,161,58,87,190,204,136,29
-131,151,283,-9,-207,217,39,-136,122,297,229,78
-68,219,287,-75,-178,253,-58,-488,-19,390,341,146
87,302,214,-195,-63,258,-136,-732,-92,531,478,248
180,278,97,-229,41,187,-200,-893,-136,697,610,336
224,268,43,-246,90,156,-190,-995,-151,907,775,478
400,409,9,-405,195,209,-122,-980,-82,1195,1019,712
531,497,-34,-514,283,231,-136,-1010,-53,1439,1249,907
536,483,-53,-509,295,214,-263,-1185,-161,1605,1444,1015
502,512,9,-507,246,261,-400,-1464,-380,1732,1629,1102
453,580,126,-517,163,353,-488,-1732,-653,1771,1742,1176
356,561,204,-458,75,383,-531,-1981,-1000,1615,1732,1215
297,444,146,-370,75,295,-580,-2210,-1395,1259,1571,1180
341,190,-151,-265,246,19,-634,-2293,-1654,761,1229,1063
317,-229,-546,-43,431,-387,-624,-2225,-1815,58,668,810
112,-697,-810,292,461,-753,-575,-2103,-2093,-980,-82,439
-24,-1019,-995,522,485,-1007,-580,-2020,-2357,-1766,-673,82
29,-1088,-1117,529,573,-1102,-619,-1912,-2322,-1815,-824,-97
68,-1141,-1210,536,639,-1176,-590,-1708,-2064,-1571,-785,-122
34,-1278,-1312,622,673,-1295,-507,-1434,-1790,-1439,-756,-117
9,-1288,-1298,639,653,-1293,-419,-1166,-1517,-1268,-688,-97
87,-1093,-1180,502,634,-1137,-336,-927,-1229,-1034,-570,-92
200,-902,-1102,351,651,-1002,-292,-736,-1019,-897,-522,-87
165,-907,-1073,370,619,-990,-297,-644,-927,-868,-512,-117
48,-980,-1029,466,539,-1005,-297,-590,-888,-849,-522,-156
-39,-961,-922,500,441,-941,-263,-527,-805,-805,-531,-170
-78,-810,-732,444,326,-771,-224,-434,-678,-717,-502,-165
-34,-595,-561,314,263,-578,-195,-307,-512,-561,-419,-141
-14,-492,-478,253,231,-485,-136,-204,-366,-434,-322,-97
-24,-463,-439,244,207,-451,-53,-146,-278,-361,-278,-97
-34,-366,-331,200,148,-348,19,-82,-204,-297,-244,-107
-107,-287,-180,197,36,-234,53,-48,-136,-229,-204,-107
-204,-307,-102,256,-51,-204,87,-48,-92,-195,-180,-117
-190,-292,-102,241,-43,-197,82,0,-43,-165,-175,-117
-175,-258,-82,217,-46,-170,87,58,0,-131,-161,-117
-151,-200,-48,175,-51,-124,92,92,34,-97,-131,-112
-126,-180,-53,153,-36,-117,87,107,58,-73,-107,-112
-131,-195,-63,163,-34,-129,82,126,92,-73,-112,-117
-131,-214,-82,173,-24,-148,92,126,82,-63,-102,-122
-126,-190,-63,158,-31,-126,78,126,82,-63,-107,-126
-92,-175,-82,134,-4,-129,63,136,82,-53,-107,-131
-107,-180,-73,143,-17,-126,63,122,78,-43,-92,-122
-126,-200,-73,163,-26,-136,68,126,92,-48,-97,-126
-146,-219,-73,183,-36,-146,87,151,107,-53,-97,-126
-165,-239,-73,202,-46,-156,97,156,107,-63,-102,-126
-195,-239,-43,217,-75,-141,107,165,117,-53,-102,-141
-204,-239,-34,222,-85,-136,117,175,112,-43,-102,-146
-200,-214,-14,207,-92,-114,117,200,112,-39,-92,-156
-209,-219,-9,214,-100,-114,112,209,112,-29,-73,-170
-214,-214,0,214,-107,-107,126,195,117,-14,-53,-151
-190,-190,0,190,-95,-95,136,180,117,-4,-53,-141
-87,-122,-34,104,-26,-78,151,175,117,0,-68,-122
-9,-87,-78,48,34,-82,165,175,117,4,-78,-102
-9,-92,-82,51,36,-87,141,195,146,14,-58,-82
-53,-92,-39,73,-7,-65,117,200,151,19,-48,-78
-73,-82,-9,78,-31,-46,92,204,156,29,-48,-78
-39,-63,-24,51,-7,-43,53,204,146,34,-39,-68
-29,-78,-48,53,9,-63,78,209,136,29,-48,-48
-63,-92,-29,78,-17,-61,82,219,131,29,-53,-39
-53,-92,-39,73,-7,-65,87,224,131,14,-63,-29
-34,-102,-68,68,17,-85,102,239,131,0,-78,-19
-24,-92,-68,58,21,-80,122,224,161,19,-58,-19
-19,-73,-53,46,17,-63,112,244,180,29,-48,-14
-39,-48,-9,43,-14,-29,141,258,204,48,-24,-14
-63,-29,34,46,-48,2,151,268,219,73,0,-14
-63,-24,39,43,-51,7,126,244,253,82,9,-9
-29,-29,0,29,-14,-14,117,234,244,82,9,-14
-29,-19,9,24,-19,-4,73,229,248,82,9,-19
-14,-29,-14,21,0,-21,43,224,248,73,0,-48
19,-78,-97,29,58,-87,24,234,234,53,-24,-78
29,-53,-82,12,56,-68,29,239,234,43,-34,-82
9,-68,-78,29,43,-73,34,263,239,43,-43,-87
-9,-92,-82,51,36,-87,24,273,224,48,-48,-92
-39,-92,-53,65,7,-73,34,297,253,73,4,-82
-24,-63,-39,43,7,-51,48,317,273,92,9,-82
-24,-53,-29,39,2,-41,58,331,292,107,24,-78
-14,-39,-24,26,4,-31,73,341,307,122,39,-78
0,-34,-34,17,17,-34,73,331,292,92,-4,-92
4,-24,-29,9,17,-26,58,326,278,82,-39,-102
14,-14,-29,0,21,-21,68,326,278,78,-43,-112
0,4,4,-2,-2,4,82,336,273,68,-48,-102
-19,0,19,9,-19,9,92,331,258,68,-58,-78
9,14,4,-12,2,9,97,326,248,73,-63,-73
9,24,14,-17,-2,19,102,302,248,63,-48,-58
-9,-29,-19,19,4,-24,102,287,253,68,-53,-58
-14,-58,-43,36,14,-51,122,297,287,82,-39,-58
-39,-73,-34,56,-2,-53,126,326,302,97,-29,-43
-4,-48,-43,26,19,-46,141,356,326,117,-19,-29
-4,-29,-24,17,9,-26,151,361,336,126,-14,-24
14,-14,-29,0,21,-21,165,385,361,146,-4,-24
19,0,-19,-9,19,-9,175,409,380,151,9,-19
34,14,-19,-24,26,-2,190,419,409,170,19,-4
53,29,-24,-41,39,2,195,424,424,161,14,0
73,4,-68,-39,70,-31,146,409,405,156,9,-19
53,0,-53,-26,53,-26,107,424,395,151,9,-29
34,14,-19,-24,26,-2,43,429,414,165,14,-34
48,9,-39,-29,43,-14,-9,400,409,161,14,-39
34,-19,-53,-7,43,-36,4,390,400,151,24,-39
14,-24,-39,4,26,-31,19,390,400,161,24,-39
-14,-9,4,12,-9,-2,48,429,414,175,34,-34
-9,4,14,2,-12,9,68,448,424,185,39,-19
-39,9,48,14,-43,29,82,468,453,190,43,-34
-48,9,58,19,-53,34,97,488,473,195,43,-39
-34,19,53,7,-43,36,97,502,492,195,39,-43
-53,19,73,17,-63,46,112,527,502,200,58,-48
-63,43,107,9,-85,75,102,536,502,214,73,-48
-48,58,107,-4,-78,82,82,541,492,219,78,-58
-34,97,131,-31,-82,114,82,546,492,224,82,-78
-9,122,131,-56,-70,126,107,561,507,244,102,-73
43,165,122,-104,-39,143,131,590,522,244,112,-48
82,185,102,-134,-9,143,136,595,531,239,97,-24
82,195,112,-139,-14,153,136,605,536,234,97,-19
126,190,63,-158,31,126,131,605,536,234,92,-19
107,180,73,-143,17,126,107,570,507,214,73,-4
73,170,97,-122,-12,134,82,541,483,229,58,14
43,151,107,-97,-31,129,53,492,468,204,48,43
19,122,102,-70,-41,112,4,434,444,175,19,58
58,141,82,-100,-12,112,14,444,439,170,9,48
68,151,82,-109,-7,117,43,448,439,156,14,29
126,161,34,-143,46,97,68,463,434,146,14,19
175,200,24,-187,75,112,92,463,424,136,14,4
156,234,78,-195,39,156,112,429,434,141,9,4
141,258,117,-200,12,187,122,429,414,146,14,14
151,239,87,-195,31,163,112,419,409,151,24,24
151,229,78,-190,36,153,122,395,395,146,14,9
136,229,92,-183,21,161,112,405,390,122,29,24
117,214,97,-165,9,156,97,419,395,122,34,39
82,200,117,-141,-17,158,82,434,400,131,48,43
53,200,146,-126,-46,173,53,448,400,112,39,48
48,180,131,-114,-41,156,14,434,370,112,48,43
24,141,117,-82,-46,129,-29,400,356,112,73,48
19,97,78,-58,-29,87,-48,366,331,107,58,48
14,48,34,-31,-9,41,-78,351,302,107,53,43
63,68,4,-65,29,36,-58,346,283,87,43,29
82,78,-4,-80,43,36,-24,312,263,73,24,14
92,102,9,-97,41,56,9,287,258,63,14,0
122,97,-24,-109,73,36,24,263,248,48,4,-14
63,82,19,-73,21,51,29,248,209,43,-4,4
82,82,0,-82,41,41,29,248,204,34,4,14
87,97,9,-92,39,53,29,248,185,29,4,34
107,97,-9,-102,58,43,24,219,156,14,0,34
112,87,-24,-100,68,31,29,190,141,24,4,39
87,92,4,-90,41,48,39,156,122,14,9,43
48,73,24,-61,12,48,48,126,112,14,14,48
29,78,48,-53,-9,63,58,92,97,24,19,63
53,73,19,-63,17,46,39,112,117,43,43,73
39,68,29,-53,4,48,14,107,107,48,53,73
14,39,24,-26,-4,31,24,141,97,53,53,58
4,34,29,-19,-12,31,29,156,78,63,63,53
-24,43,68,-9,-46,56,34,126,68,43,43,34
24,29,4,-26,9,17,34,78,34,14,24,19
58,39,-19,-48,39,9,39,48,14,-9,0,0
165,48,-117,-107,141,-34,39,19,9,-29,-14,-19
185,68,-117,-126,151,-24,48,29,14,-29,-4,-34
180,78,-102,-129,141,-12,63,48,34,-24,-4,-34
161,97,-63,-129,112,17,82,78,43,-14,0,-24
185,107,-78,-146,131,14,82,87,53,-9,0,-29
195,78,-117,-136,156,-19,97,92,58,9,9,-24
146,43,-102,-95,124,-29,107,92,63,19,14,-24
126,34,-92,-80,109,-29,107,97,58,24,14,-29
151,53,-97,-102,124,-21,92,107,53,24,9,-34
161,53,-107,-107,134,-26,58,92,29,9,9,-24
117,43,-73,-80,95,-14,43,87,34,-4,14,4
107,39,-68,-73,87,-14,34,92,43,-4,19,24
97,34,-63,-65,80,-14,9,87,48,-19,19,34
97,24,-73,-61,85,-24,0,107,43,-29,19,29
82,14,-68,-48,75,-26,-4,117,48,-24,9,14
53,-4,-58,-24,56,-31,-19,131,48,-24,-9,9
58,-14,-73,-21,65,-43,-24,136,39,-34,-34,0
78,-9,-87,-34,82,-48,0,131,48,-48,-48,-24
107,-4,-112,-51,109,-58,0,136,58,-48,-53,-19
117,-14,-131,-51,124,-73,-4,141,68,-48,-53,-24
122,-43,-165,-39,143,-104,-19,136,78,-48,-48,-19
107,4,-102,-56,104,-48,14,161,97,-24,-19,-9
102,48,-53,-75,78,-2,63,185,112,0,4,4
48,39,-9,-43,29,14,107,190,112,14,29,14
14,19,4,-17,4,12,131,190,112,29,24,4
34,19,-14,-26,24,2,102,170,87,14,19,-9
34,24,-9,-29,21,7,82,136,82,9,4,-14
34,24,-9,-29,21,7,73,117,82,9,4,-14
73,39,-34,-56,53,2,97,117,92,24,9,0
126,73,-53,-100,90,9,141,126,102,19,0,-4
156,78,-78,-117,117,0,122,126,102,9,-9,-14
151,63,-87,-107,119,-12,107,126,102,0,-29,-34
200,48,-151,-124,175,-51,102,131,102,-9,-43,-48
209,82,-126,-146,168,-21,107,126,117,14,-19,-24
214,122,-92,-168,153,14,112,141,126,29,4,-9
214,141,-73,-178,143,34,117,165,151,68,53,9
224,180,-43,-202,134,68,146,170,156,73,78,24
204,180,-24,-192,114,78,117,141,156,73,63,-4
180,146,-34,-163,107,56,126,136,161,92,82,-4
141,97,-43,-119,92,26,126,141,185,102,87,-9
97,63,-34,-80,65,14,97,156,190,107,78,-24
14,53,39,-34,-12,46,78,170,190,97,53,-29
58,48,-9,-53,34,19,78,185,190,97,39,-24
39,48,9,-43,14,29,78,209,200,107,24,-4
39,48,9,-43,14,29,68,195,200,97,-9,-9
73,53,-19,-63,46,17,24,170,175,63,-14,-19
68,58,-9,-63,39,24,-9,165,156,58,-14,-14
58,48,-9,-53,34,19,-34,165,141,58,-14,14
34,82,48,-58,-7,65,-58,170,122,68,-4,19
4,43,39,-24,-17,41,-53,161,92,53,-9,4
14,48,34,-31,-9,41,-48,151,87,24,-24,-9
87,68,-19,-78,53,24,-39,136,58,9,-29,-19
78,39,-39,-58,58,0,-34,112,29,-4,-43,-24
39,24,-14,-31,26,4,-14,73,29,-9,-43,-14
58,-9,-68,-24,63,-39,-19,24,19,-14,-53,-14
87,-43,-131,-21,109,-87,-4,14,24,-14,-53,-24
107,-19,-126,-43,117,-73,9,14,29,-14,-53,-29
107,0,-107,-53,107,-53,14,53,24,-24,-53,-29
92,-4,-97,-43,95,-51,24,63,34,-34,-53,-58
73,-9,-82,-31,78,-46,39,73,29,-24,-53,-58
43,9,-34,-26,39,-12,78,87,34,-19,-53,-34
87,63,-24,-75,56,19,126,73,53,24,-14,-9
107,82,-24,-95,65,29,146,58,63,39,4,-4
117,112,-4,-114,61,53,141,48,53,39,9,4
151,146,-4,-148,78,70,161,39,53,53,19,9
102,136,34,-119,34,85,112,39,53,24,24,-63
253,175,-78,-214,165,48,107,58,68,29,9,-58
263,165,-97,-214,180,34,87,73,68,19,0,-43
263,156,-107,-209,185,24,78,78,68,19,0,-39
263,146,-117,-204,190,14,68,82,68,19,0,-34
263,136,-126,-200,195,4,58,87,68,19,0,-29
248,131,-117,-190,183,7,48,63,53,0,-9,-9
195,102,-92,-148,143,4,48,39,39,-9,-14,0
136,102,-34,-119,85,34,48,39,34,-14,-4,19
92,92,0,-92,46,46,53,53,24,0,-9,29
107,131,24,-119,41,78,68,43,48,19,0,29
92,141,48,-117,21,95,73,34,48,24,9,34
126,136,9,-131,58,73,73,24,39,24,14,39
180,185,4,-183,87,95,73,14,39,19,19,43
180,156,-24,-168,102,65,68,9,39,14,0,29
146,122,-24,-134,85,48,68,4,24,9,-4,34
156,107,-48,-131,102,29,73,0,24,4,0,9
156,87,-68,-122,112,9,68,-4,24,0,-4,-19
165,107,-58,-136,112,24,53,-29,19,0,-14,-34
161,122,-39,-141,100,41,53,-19,24,0,-19,-39
175,122,-53,-148,114,34,48,4,24,-4,-19,-39
214,146,-68,-180,141,39,43,19,48,0,4,-19
229,200,-29,-214,129,85,63,73,82,39,39,19
244,209,-34,-226,139,87,63,102,92,53,58,24
248,190,-58,-219,153,65,82,131,107,82,78,39
234,175,-58,-204,146,58,122,161,117,107,97,63
175,146,-29,-161,102,58,102,156,117,97,82,63
156,136,-19,-146,87,58,92,175,131,92,78,58
165,126,-39,-146,102,43,73,175,131,82,68,48
141,107,-34,-124,87,36,58,175,126,53,48,24
122,97,-24,-109,73,36,68,180,131,68,43,19
122,112,-9,-117,65,51,73,161,136,73,63,14
185,112,-73,-148,129,19,82,126,131,68,58,9
165,107,-58,-136,112,24,92,107,126,63,63,4
151,117,-34,-134,92,41,92,97,97,34,39,0
131,87,-43,-109,87,21,68,39,29,14,14,-4
112,68,-43,-90,78,12,43,-19,-4,-9,-4,-9
131,43,-87,-87,109,-21,14,-43,-39,-34,-19,-19
190,78,-112,-134,151,-17,29,-29,-39,-34,-4,0
219,141,-78,-180,148,31,29,-14,-29,-24,0,14
234,151,-82,-192,158,34,34,-19,-39,-14,14,24
224,131,-92,-178,158,19,24,-19,-29,-4,19,39
190,112,-78,-151,134,17,39,-24,-24,-4,0,48
185,102,-82,-143,134,9,48,-29,-24,-4,0,39
204,102,-102,-153,153,0,53,-34,-24,-9,-9,53
204,92,-112,-148,158,-9,58,-29,-34,-9,4,58
190,53,-136,-122,163,-41,39,-48,-58,-24,0,43
190,48,-141,-119,165,-46,24,-48,-63,-29,9,53
190,29,-161,-109,175,-65,4,-68,-78,-48,-24,29
209,-4,-214,-102,212,-109,-14,-78,-82,-63,-34,4
195,29,-165,-112,180,-68,-34,-82,-68,-63,-24,-9
170,48,-122,-109,146,-36,-39,-92,-58,-63,-29,-14
195,73,-122,-134,158,-24,-43,-97,-48,-68,-48,-19
229,117,-112,-173,170,2,-39,-102,-39,-73,-48,-19
200,122,-78,-161,139,21,-29,-63,-39,-68,-53,-34
151,97,-53,-124,102,21,-34,-43,-39,-73,-48,-43
117,68,-48,-92,82,9,-24,-34,-48,-68,-43,-58
112,78,-34,-95,73,21,-14,-24,-48,-63,-39,-63
102,82,-19,-92,61,31,4,-43,-43,-53,-24,-58
102,73,-29,-87,65,21,19,-43,-39,-53,-24,-39
102,78,-24,-90,63,26,34,-34,-29,-48,-24,-24
126,82,-43,-104,85,19,34,-34,-29,-48,-24,-19
141,68,-73,-104,107,-2,53,-58,-43,-68,-14,-39
131,48,-82,-90,107,-17,68,-58,-53,-68,-9,-48
151,58,-92,-104,122,-17,82,-39,-39,-68,-4,-58
185,107,-78,-146,131,14,87,-39,-39,-73,-14,-73
209,117,-92,-163,151,12,97,-29,-34,-63,-9,-78
190,151,-39,-170,114,56,102,-24,-29,-53,-4,-82
175,195,19,-185,78,107,136,-4,-9,-19,14,-53
156,229,73,-192,41,151,161,0,0,-9,19,-39
146,185,39,-165,53,112,136,4,9,0,9,-9
151,156,4,-153,73,80,122,-4,9,-4,9,4
190,151,-39,-170,114,56,107,4,0,-4,4,9
234,156,-78,-195,156,39,102,14,9,-4,4,34
204,122,-82,-163,143,19,97,14,4,-14,-9,-4
170,97,-73,-134,122,12,97,9,-14,-29,-29,-39
131,48,-82,-90,107,-17,87,4,-34,-63,-78,-78
78,24,-53,-51,65,-14,78,-4,-43,-78,-112,-112
78,39,-39,-58,58,0,63,-19,-58,-82,-107,-87
131,58,-73,-95,102,-7,58,-34,-68,-87,-102,-78
126,63,-63,-95,95,0,63,-43,-78,-87,-87,-58
87,68,-19,-78,53,24,78,-53,-78,-87,-73,-34
117,97,-19,-107,68,39,48,-39,-63,-87,-68,-9
151,107,-43,-129,97,31,19,-34,-68,-92,-78,0
141,102,-39,-122,90,31,9,-29,-78,-92,-73,4
126,87,-39,-107,82,24,-14,-24,-73,-107,-78,-4
175,165,-9,-170,92,78,9,-4,-82,-78,-29,-4
204,175,-29,-190,117,73,-4,-53,-92,-92,-34,-14
200,146,-53,-173,126,46,4,-58,-73,-92,-39,-14
82,39,-43,-61,63,-2,29,-29,-43,-78,-48,-4
29,29,0,-29,14,14,43,-14,-43,-58,-29,4
122,136,14,-129,53,75,53,-34,-63,-58,-29,4
200,190,-9,-195,104,90,107,-9,-39,-43,0,24
161,180,19,-170,70,100,161,24,-4,-14,29,24
161,165,4,-163,78,85,151,29,14,-14,9,-24
151,141,-9,-146,80,65,102,19,63,-14,-19,-63
63,136,73,-100,-4,104,78,14,126,14,-29,-53
63,190,126,-126,-31,158,48,14,185,53,-19,-43
253,370,117,-312,68,244,48,-9,200,107,39,9
424,551,126,-488,148,339,78,-136,170,229,151,97
400,619,219,-509,90,419,58,-341,107,370,292,185
331,605,273,-468,29,439,-48,-527,34,551,458,278
366,570,204,-468,80,387,-122,-678,-19,756,629,356
390,502,112,-446,139,307,-151,-839,-73,956,795,429
419,517,97,-468,161,307,-161,-932,-102,1166,990,546
492,644,151,-568,170,397,-195,-961,-102,1410,1200,712
546,766,219,-656,163,492,-263,-1058,-209,1595,1405,888
561,844,283,-702,139,563,-341,-1298,-448,1693,1590,1044
522,902,380,-712,70,641,-351,-1605,-790,1673,1722,1137
453,951,497,-702,-21,724,-336,-1873,-1185,1459,1703,1156
405,873,468,-639,-31,671,-346,-2044,-1571,1054,1522,1122
380,541,161,-461,109,351,-400,-2127,-1839,536,1210,1024
414,131,-283,-273,348,-75,-478,-2127,-2020,-117,736,800
453,-229,-683,-112,568,-456,-488,-2015,-2200,-971,92,468
366,-561,-927,97,646,-744,-453,-1864,-2318,-1678,-478,161
253,-785,-1039,265,646,-912,-424,-1737,-2244,-1776,-668,19
244,-868,-1112,312,678,-990,-375,-1542,-1995,-1532,-629,43
278,-868,-1146,295,712,-1007,-292,-1268,-1693,-1351,-570,97
273,-800,-1073,263,673,-936,-234,-1029,-1420,-1200,-512,78
292,-761,-1054,234,673,-907,-258,-917,-1229,-1083,-512,-34
297,-785,-1083,244,690,-934,-292,-863,-1137,-1063,-580,-146
224,-819,-1044,297,634,-932,-268,-741,-1044,-1024,-590,-156
175,-736,-912,280,544,-824,-180,-570,-907,-897,-502,-97
263,-531,-795,134,529,-663,-107,-468,-795,-795,-453,-63
351,-400,-751,24,551,-575,-78,-444,-707,-736,-444,-78
307,-331,-639,12,473,-485,-48,-405,-600,-649,-409,-92
287,-219,-507,-34,397,-363,-39,-322,-473,-541,-351,-68
366,-82,-448,-141,407,-265,-34,-244,-366,-468,-307,-48
366,4,-361,-185,363,-178,19,-131,-244,-375,-234,-48
283,92,-190,-187,236,-48,102,0,-117,-248,-156,0
263,151,-112,-207,187,19,146,78,-24,-175,-112,29
244,122,-122,-183,183,0,136,117,9,-151,-102,-4
224,131,-92,-178,158,19,136,165,48,-122,-92,-19
214,165,-48,-190,131,58,136,190,78,-92,-68,-29
204,161,-43,-183,124,58,126,195,97,-73,-48,-43
161,141,-19,-151,90,61,107,190,117,-73,-58,-63
141,117,-24,-129,82,46,92,175,92,-73,-63,-82
126,136,9,-131,58,73,53,161,78,-82,-82,-102
141,146,4,-143,68,75,14,156,63,-82,-97,-122
146,180,34,-163,56,107,29,136,68,-63,-82,-107
146,180,34,-163,56,107,48,126,82,-58,-87,-97
146,180,34,-163,56,107,82,136,97,-53,-87,-82
146,180,34,-163,56,107,107,126,97,-53,-92,-68
146,180,34,-163,56,107,107,141,112,-43,-92,-68
156,180,24,-168,65,102,107,146,122,-34,-82,-58
180,204,24,-192,78,114,97,165,136,-29,-63,-53
190,200,9,-195,90,104,82,170,151,-19,-34,-53
131,185,53,-158,39,119,102,170,175,0,-14,-43
102,190,87,-146,7,139,126,170,185,14,-4,-43
151,239,87,-195,31,163,156,180,195,24,-9,-34
175,253,78,-214,48,165,185,195,204,34,-9,-24
219,253,34,-236,92,143,204,219,229,19,-14,-39
200,258,58,-229,70,158,214,229,229,19,-19,-48
204,273,68,-239,68,170,224,239,229,24,-34,-63
263,297,34,-280,114,165,219,244,214,24,-39,-68
278,287,9,-283,134,148,219,219,200,14,-34,-63
248,287,39,-268,104,163,209,209,180,19,-34,-58
263,302,39,-283,112,170,200,195,165,9,-39,-53
287,307,19,-297,134,163,200,190,151,0,-48,-48
268,278,9,-273,129,143,165,185,175,-9,-53,-43
244,268,24,-256,109,146,122,204,190,-9,-58,-43
195,263,68,-229,63,165,117,219,209,0,-48,-48
141,253,112,-197,14,183,92,229,219,14,-39,-53
126,248,122,-187,2,185,102,244,239,29,-19,-29
156,234,78,-195,39,156,117,253,224,34,-9,-24
151,234,82,-192,34,158,97,268,224,39,0,-19
161,214,53,-187,53,134,92,283,219,34,0,-39
161,170,9,-165,75,90,122,287,214,39,9,-63
146,200,53,-173,46,126,156,287,224,43,14,-63
102,190,87,-146,7,139,190,307,239,58,19,-63
58,170,112,-114,-26,141,209,312,234,78,29,-63
73,175,102,-124,-14,139,204,297,229,68,34,-63
122,209,87,-165,17,148,204,287,234,63,9,-73
156,224,68,-190,43,146,200,273,239,53,-4,-78
200,244,43,-222,78,143,200,253,239,43,-19,-87
224,258,34,-241,95,146,214,283,283,58,-19,-63
239,278,39,-258,100,158,204,297,307,73,-29,-34
258,297,39,-278,109,168,219,317,346,92,-9,-4
253,326,73,-290,90,200,239,346,380,107,9,43
268,361,92,-314,87,226,234,356,370,131,19,43
322,405,82,-363,119,244,234,366,366,151,24,34
346,444,97,-395,124,270,234,356,370,156,48,34
351,419,68,-385,141,244,229,356,380,175,53,19
361,366,4,-363,178,185,195,346,370,161,39,14
341,346,4,-344,168,175,156,356,351,146,29,14
380,366,-14,-373,197,175,126,366,341,136,19,14
385,380,-4,-383,195,187,92,351,317,117,4,4
346,346,0,-346,173,173,97,361,312,117,14,9
302,322,19,-312,141,170,107,370,312,112,29,9
268,297,29,-283,119,163,122,366,322,122,39,19
239,273,34,-256,102,153,126,356,317,102,34,19
253,278,24,-265,114,151,122,341,336,112,24,9
229,292,63,-261,82,178,126,366,346,112,29,0
204,326,122,-265,41,224,107,380,385,131,39,-4
214,341,126,-278,43,234,97,361,400,131,43,-9
244,331,87,-287,78,209,87,366,405,131,43,-4
258,346,87,-302,85,217,97,380,409,141,43,0
263,380,117,-322,73,248,122,434,429,156,53,9
302,414,112,-358,95,263,136,468,444,165,58,29
244,390,146,-317,48,268,146,458,439,165,48,24
204,370,165,-287,19,268,146,468,444,165,43,19
190,361,170,-275,9,265,131,473,448,161,34,14
141,341,200,-241,-29,270,131,488,444,161,48,9
117,351,234,-234,-58,292,151,483,458,180,63,9
126,341,214,-234,-43,278,141,483,473,190,68,0
136,356,219,-246,-41,287,151,483,497,200,73,-19
156,356,200,-256,-21,278,185,492,536,224,92,-14
214,400,185,-307,14,292,175,502,546,229,102,4
248,419,170,-334,39,295,165,507,551,229,87,24
244,429,185,-336,29,307,151,517,551,229,87,24
283,424,141,-353,70,283,131,517,546,234,82,19
287,458,170,-373,58,314,146,531,522,214,63,9
278,483,204,-380,36,344,151,541,502,229,58,14
273,497,224,-385,24,361,151,531,492,204,58,29
273,502,229,-387,21,366,131,512,473,175,39,29
283,483,200,-383,41,341,107,478,458,161,43,29
263,463,200,-363,31,331,112,448,448,146,53,19
292,444,151,-368,70,297,112,429,434,136,58,19
312,453,141,-383,85,297,112,395,414,126,63,14
312,473,161,-392,75,317,102,361,385,97,48,-9
307,473,165,-390,70,319,102,361,346,87,34,-14
326,429,102,-378,112,265,82,351,322,78,24,-19
336,395,58,-366,139,226,82,326,287,58,-4,-48
356,444,87,-400,134,265,102,341,292,68,14,-39
370,478,107,-424,131,292,107,361,317,92,34,-19
370,512,141,-441,114,326,112,380,341,126,63,-9
375,561,185,-468,95,373,102,400,361,131,68,0
370,570,200,-470,85,385,112,409,356,141,82,19
346,561,214,-453,65,387,107,380,356,151,112,39
341,546,204,-444,68,375,126,351,346,156,102,53
336,527,190,-431,73,358,136,341,331,165,102,63
317,473,156,-395,80,314,107,297,283,117,82,48
278,429,151,-353,63,290,102,234,244,82,53,43
229,400,170,-314,29,285,97,180,219,53,34,39
200,341,141,-270,29,241,73,126,190,19,14,34
151,307,156,-229,-2,231,68,126,180,24,19,53
180,287,107,-234,36,197,68,141,195,24,34,63
195,283,87,-239,53,185,68,156,195,29,39,82
224,263,39,-244,92,151,63,141,185,24,39,82
244,253,9,-248,117,131,34,151,175,19,29,53
234,248,14,-241,109,131,9,146,151,4,19,34
209,219,9,-214,100,114,-14,146,136,0,9,14
204,214,9,-209,97,112,-39,141,117,4,0,4
283,268,-14,-275,148,126,-14,146,136,19,24,43
302,302,0,-302,151,151,-4,126,126,19,34,63
312,312,0,-312,156,156,39,146,117,19,34,68
336,346,9,-341,163,178,78,146,97,24,43,82
278,361,82,-319,97,222,92,151,102,39,63,92
297,341,43,-319,126,192,102,126,82,34,73,97
302,346,43,-324,129,195,117,122,78,34,78,97
380,351,-29,-366,204,161,126,117,87,39,92,97
366,331,-34,-348,200,148,112,102,68,19,78,82
346,312,-34,-329,190,139,122,107,73,14,73,73
312,302,-9,-307,161,146,136,122,68,14,73,73
322,283,-39,-302,180,122,131,117,63,9,68,58
322,283,-39,-302,180,122,126,92,63,-4,58,58
263,268,4,-265,129,136,136,82,63,-9,43,53
234,278,43,-256,95,161,136,78,53,-19,24,43
248,317,68,-283,90,192,122,78,43,-34,0,34
268,312,43,-290,112,178,117,87,24,-48,-14,29
224,297,73,-261,75,185,122,97,24,-53,-14,43
214,287,73,-251,70,180,131,117,29,-43,-14,48
204,278,73,-241,65,175,126,126,29,-48,-19,43
224,283,58,-253,82,170,102,126,53,-29,4,48
239,287,48,-263,95,168,82,126,68,-14,19,43
239,283,43,-261,97,163,53,131,78,-4,24,48
273,287,14,-280,129,151,34,126,78,-4,24,48
263,283,19,-273,122,151,63,102,78,-34,4,19
263,278,14,-270,124,146,78,97,78,-39,-4,19
244,258,14,-251,114,136,87,92,78,-43,-9,9
219,219,0,-219,109,109,87,78,78,-48,-9,9
283,292,9,-287,136,151,97,112,92,-19,19,19
346,341,-4,-344,175,168,122,146,112,0,43,34
361,336,-24,-348,192,156,141,161,117,9,68,43
395,322,-73,-358,234,124,141,170,122,19,63,34
380,317,-63,-348,222,126,141,156,87,-4,34,4
366,317,-48,-341,207,134,131,126,73,-9,14,-4
351,312,-39,-331,195,136,131,112,63,-9,9,-9
375,322,-53,-348,214,134,165,117,63,4,9,0
346,297,-48,-322,197,124,156,97,53,0,0,24
312,263,-48,-287,180,107,102,78,53,-9,-9,24
244,209,-34,-226,139,87,53,58,53,-19,-29,14
229,156,-73,-192,151,41,14,43,53,-29,-43,9
234,180,-53,-207,143,63,34,63,68,-19,-34,14
234,209,-24,-222,129,92,53,92,87,-9,-24,19
229,219,-9,-224,119,104,73,131,122,24,9,29
234,248,14,-241,109,131,117,151,136,24,19,34
268,317,48,-292,109,183,117,146,151,29,4,4
287,341,53,-314,117,197,156,156,161,53,24,14
292,351,58,-322,117,204,185,175,190,68,29,19
292,375,82,-334,104,229,185,204,200,78,19,14
200,346,146,-273,26,246,141,195,185,68,9,14
234,322,87,-278,73,204,126,195,180,68,19,14
204,302,97,-253,53,200,112,204,185,78,29,29
195,283,87,-239,53,185,87,175,180,68,19,19
253,297,43,-275,104,170,78,170,161,48,9,-4
263,312,48,-287,107,180,78,175,156,48,14,-4
268,312,43,-290,112,178,87,185,156,53,19,19
258,356,97,-307,80,226,97,200,151,68,34,19
239,312,73,-275,82,192,107,209,146,68,53,24
248,312,63,-280,92,187,117,209,156,53,53,19
322,326,4,-324,158,165,131,204,141,53,63,19
312,292,-19,-302,165,136,141,190,126,53,63,24
214,283,68,-248,73,175,151,146,107,48,63,24
195,263,68,-229,63,165,136,102,87,43,53,24
185,244,58,-214,63,151,141,97,82,43,53,14
165,283,117,-224,24,200,146,102,78,43,53,9
229,302,73,-265,78,187,97,87,48,24,48,-29
268,297,29,-283,119,163,73,63,43,-4,43,-78
302,292,-9,-297,156,141,53,39,24,-14,39,-97
326,312,-14,-319,170,148,58,19,14,-29,34,-92
322,351,29,-336,146,190,97,43,39,14,34,-58
312,356,43,-334,134,200,117,48,53,29,34,-43
292,370,78,-331,107,224,112,58,48,29,19,-24
297,390,92,-344,102,241,131,68,53,43,9,-9
317,370,53,-344,131,212,97,53,39,19,4,9
326,351,24,-339,151,187,82,34,43,4,-9,19
326,326,0,-326,163,163,53,19,39,-9,-29,24
312,287,-24,-300,168,131,19,4,34,-34,-48,29
405,346,-58,-375,231,143,14,4,-39,-97,-78,-14
439,341,-97,-390,268,122,0,0,-68,-107,-87,-48
380,317,-63,-348,222,126,29,-9,-53,-87,-58,-29
322,292,-29,-307,175,131,48,-9,-39,-68,-39,-9
263,268,4,-265,129,136,68,-9,-24,-48,-19,9
204,244,39,-224,82,141,87,-9,-9,-29,0,29
268,278,9,-273,129,143,87,9,14,-29,9,48
283,287,4,-285,139,146,87,9,29,-19,24,48
292,326,34,-309,129,180,87,34,53,-4,53,58
317,356,39,-336,139,197,92,73,73,29,68,58
234,312,78,-273,78,195,78,92,87,39,63,19
141,258,117,-200,12,187,63,92,87,34,58,-4
97,190,92,-143,2,141,43,92,78,24,48,-29
73,175,102,-124,-14,139,24,92,78,9,39,-53
136,209,73,-173,31,141,29,68,58,-9,14,-39
156,219,63,-187,46,141,39,53,34,-19,-4,-4
219,248,29,-234,95,139,53,39,24,-29,-14,0
273,273,0,-273,136,136,58,24,14,-39,-34,0
263,322,58,-292,102,190,68,0,14,-43,-24,4
248,356,107,-302,70,231,92,0,14,-39,-29,9
253,375,122,-314,65,248,112,14,9,-39,-29,19
283,419,136,-351,73,278,131,19,29,-29,-4,48
239,395,156,-317,41,275,136,39,43,-19,14,53
204,346,141,-275,31,244,122,43,34,-24,19,24
161,268,107,-214,26,187,126,48,29,-14,24,4
97,195,97,-146,0,146,151,53,19,-9,29,-4
117,209,92,-163,12,151,146,63,43,4,29,19
156,224,68,-190,43,146,141,87,63,14,29,19
224,239,14,-231,104,126,126,92,68,19,24,14
258,244,-14,-251,136,114,117,97,68,4,9,-4
273,263,-9,-268,141,126,92,146,68,29,14,24
287,297,9,-292,139,153,73,151,78,34,34,34
366,317,-48,-341,207,134,58,141,78,29,29,43
361,331,-29,-346,195,151,43,146,78,24,34,53
336,322,-14,-329,175,153,43,112,68,9,19,48
297,283,-14,-290,156,134,19,39,19,-4,4,43
258,253,-4,-256,131,124,-4,-34,4,-24,-4,39
258,219,-39,-239,148,90,-34,-73,-9,-43,-9,29
283,239,-43,-261,163,97,-19,-53,-4,-39,4,48
287,287,0,-287,143,143,-9,-34,0,-24,19,63
278,283,4,-280,136,143,4,-34,-14,-9,43,73
244,248,4,-246,119,126,4,-29,-9,4,58,87
209,239,29,-224,90,134,14,-53,-19,-14,43,78
204,229,24,-217,90,126,19,-68,-24,-14,39,58
224,229,4,-226,109,117,19,-82,-29,-19,24,63
224,219,-4,-222,114,107,19,-87,-43,-19,34,58
229,209,-19,-219,124,95,9,-87,-53,-29,14,39
239,224,-14,-231,126,104,4,-78,-53,-39,19,43
248,224,-24,-236,136,100,-4,-87,-63,-63,-19,14
278,209,-68,-244,173,70,-14,-87,-63,-82,-34,-14
234,200,-34,-217,134,82,-14,-87,-82,-78,-19,-14
190,185,-4,-187,97,90,-9,-92,-87,-73,-19,-14
195,175,-19,-185,107,78,-4,-92,-92,-73,-34,-14
209,185,-24,-197,117,80,9,-92,-97,-73,-29,-9
165,190,24,-178,70,107,24,-48,-87,-82,-24,-4
102,156,53,-129,24,104,24,-24,-87,-92,-19,-14
53,117,63,-85,-4,90,39,-9,-97,-92,-14,-29
34,117,82,-75,-24,100,53,4,-97,-92,-9,-34
78,161,82,-119,-2,122,73,-19,-82,-73,4,-48
112,180,68,-146,21,124,78,-24,-78,-73,4,-39
146,214,68,-180,39,141,82,-19,-68,-68,4,-34
204,248,43,-226,80,146,73,-24,-68,-68,4,-39
214,234,19,-224,97,126,68,-68,-53,-78,-9,-34
209,224,14,-217,97,119,68,-78,-53,-78,-19,-39
234,244,9,-239,112,126,68,-68,-29,-78,-29,-43
273,302,29,-287,122,165,58,-78,-19,-82,-53,-53
312,302,-9,-307,161,146,34,-63,-29,-102,-78,-68
297,317,19,-307,139,168,24,-53,-29,-102,-82,-73
287,341,53,-314,117,197,43,-29,-14,-78,-73,-43
273,356,82,-314,95,219,53,-19,-9,-78,-78,-29
200,283,82,-241,58,183,53,-14,-29,-92,-82,-29
151,224,73,-187,39,148,53,-24,-39,-102,-87,-34
136,190,53,-163,41,122,53,-14,-58,-107,-97,-48
126,165,39,-146,43,102,63,-4,-58,-112,-102,-43
82,141,58,-112,12,100,53,-19,-58,-102,-68,-24
34,117,82,-75,-24,100,39,-39,-82,-97,-48,-19
-19,68,87,-24,-53,78,14,-58,-107,-112,-58,-19
-87,43,131,21,-109,87,-9,-82,-122,-107,-53,-14
-19,82,102,-31,-61,92,4,-92,-122,-92,-43,-4
82,117,34,-100,24,75,19,-102,-117,-87,-34,-9
126,136,9,-131,58,73,43,-107,-112,-78,-14,-4
136,156,19,-146,58,87,78,-112,-97,-68,4,4
122,161,39,-141,41,100,73,-97,-78,-78,-9,-14
131,156,24,-143,53,90,58,-92,-78,-82,-29,-29
97,136,39,-117,29,87,63,-87,-82,-82,-34,-48
58,107,48,-82,4,78,53,-82,-73,-97,-48,-82
87,136,48,-112,19,92,29,-34,-92,-117,-78,-151
78,204,126,-141,-24,165,92,-4,-82,-92,-63,-122
102,224,122,-163,-9,173,92,0,-82,-73,-39,-82
278,263,-14,-270,146,124,68,-9,-82,-78,-39,-63
380,322,-58,-351,219,131,92,4,-43,-58,-48,-43
278,331,53,-305,112,192,151,4,-14,-48,-48,-24
151,287,136,-219,7,212,185,-29,-29,-63,-39,-14
170,307,136,-239,17,222,190,-4,-14,-53,9,-4
287,429,141,-358,73,285,151,58,24,-24,19,-14
307,444,136,-375,85,290,82,29,34,-34,-39,-53
229,361,131,-295,48,246,48,-34,39,-53,-97,-73
229,395,165,-312,31,280,68,4,136,-4,-39,-24
312,536,224,-424,43,380,78,19,200,87,68,58
366,580,214,-473,75,397,9,-165,131,180,151,126
312,570,258,-441,26,414,-87,-478,0,302,253,195
253,634,380,-444,-63,507,-136,-702,-63,512,419,278
297,697,400,-497,-51,549,-151,-854,-78,746,629,375
380,707,326,-544,26,517,-151,-966,-73,976,814,478
458,732,273,-595,92,502,-170,-1010,-53,1205,1000,566
502,771,268,-636,117,519,-224,-1049,-73,1439,1190,653
497,805,307,-651,95,556,-322,-1185,-161,1625,1385,790
444,863,419,-653,12,641,-370,-1434,-361,1732,1542,936
522,1058,536,-790,-7,797,-380,-1712,-653,1761,1664,1049
688,1195,507,-941,90,851,-453,-2000,-1068,1595,1683,1088
746,1039,292,-893,226,666,-610,-2298,-1590,1161,1512,1015
692,678,-14,-685,353,331,-702,-2469,-2025,624,1249,946
629,268,-361,-448,495,-46,-751,-2440,-2205,97,912,839
541,-200,-741,-170,641,-470,-800,-2347,-2327,-649,375,634
375,-639,-1015,131,695,-827,-785,-2215,-2435,-1473,-224,385
214,-863,-1078,324,646,-971,-678,-2039,-2352,-1786,-541,195
156,-907,-1063,375,610,-985,-541,-1776,-2083,-1610,-570,63
102,-927,-1029,412,566,-978,-419,-1424,-1732,-1371,-492,19
29,-936,-966,453,497,-951,-351,-1146,-1420,-1210,-444,39
78,-858,-936,390,507,-897,-356,-966,-1239,-1093,-463,34
209,-727,-936,258,573,-832,-341,-805,-1107,-1034,-512,19
214,-732,-946,258,580,-839,-278,-683,-1005,-995,-551,-19
195,-717,-912,261,553,-814,-219,-590,-907,-927,-522,-39
273,-561,-834,143,553,-697,-156,-497,-785,-824,-463,-24
302,-409,-712,53,507,-561,-136,-405,-668,-736,-424,0
258,-283,-541,12,400,-412,-97,-326,-531,-619,-351,4
209,-141,-351,-34,280,-246,-9,-204,-375,-492,-263,0
209,-24,-234,-92,222,-129,53,-107,-278,-409,-209,0
190,24,-165,-107,178,-70,48,-34,-224,-346,-175,-29
146,53,-92,-100,119,-19,73,58,-146,-268,-136,-48
87,73,-14,-80,51,29,146,146,-73,-204,-122,-39
87,78,-9,-82,48,34,136,146,-48,-190,-136,-63
97,112,14,-104,41,63,146,175,-19,-170,-141,-68
117,170,53,-143,31,112,156,180,0,-151,-131,-68
136,190,53,-163,41,122,156,165,9,-141,-126,-73
112,195,82,-153,14,139,151,165,43,-141,-126,-78
102,185,82,-143,9,134,161,146,34,-131,-122,-82
97,219,122,-158,-12,170,146,126,34,-131,-131,-87
122,244,122,-183,0,183,131,117,34,-122,-136,-92
102,219,117,-161,-7,168,112,102,43,-112,-126,-102
87,180,92,-134,-2,136,97,97,63,-107,-126,-107
73,141,68,-107,2,104,97,112,82,-102,-122,-107
58,102,43,-80,7,73,87,107,87,-102,-122,-107
92,151,58,-122,17,104,82,117,87,-97,-117,-107
126,190,63,-158,31,126,87,117,82,-82,-112,-97
175,253,78,-214,48,165,82,131,82,-73,-97,-92
209,287,78,-248,65,183,73,131,82,-58,-73,-92
200,278,78,-239,61,178,63,136,102,-43,-43,-73
219,287,68,-253,75,178,58,131,117,-34,-34,-73
317,341,24,-329,146,183,58,136,131,-29,-39,-63
390,361,-29,-375,209,165,58,146,146,-24,-39,-53
346,317,-29,-331,187,143,78,156,141,-39,-39,-68
248,278,29,-263,109,153,87,151,131,-39,-39,-78
175,248,73,-212,51,161,97,146,122,-34,-48,-92
156,229,73,-192,41,151,92,136,97,-34,-48,-97
117,219,102,-168,7,161,122,151,126,-14,-34,-82
43,219,175,-131,-65,197,141,170,141,9,-24,-78
14,234,219,-124,-102,226,161,185,161,19,-19,-73
-4,239,244,-117,-124,241,190,209,180,29,-19,-68
43,239,195,-141,-75,217,190,224,204,24,-29,-43
78,258,180,-168,-51,219,170,263,219,19,-29,-34
87,283,195,-185,-53,239,190,297,239,24,-14,-29
92,302,209,-197,-58,256,190,326,248,34,0,-24
102,273,170,-187,-34,222,175,287,224,9,-24,-34
136,244,107,-190,14,175,165,263,175,-14,-48,-53
136,229,92,-183,21,161,122,244,141,-39,-73,-73
151,195,43,-173,53,119,92,224,102,-73,-107,-117
151,161,9,-156,70,85,78,209,117,-68,-112,-122
136,190,53,-163,41,122,87,200,136,-63,-112,-112
92,180,87,-136,2,134,97,209,161,-48,-112,-102
48,161,112,-104,-31,136,92,204,165,-29,-107,-92
29,165,136,-97,-53,151,58,214,190,-24,-73,-63
43,200,156,-122,-56,178,39,229,204,-14,-78,-63
43,214,170,-129,-63,192,14,239,219,-9,-73,-58
53,234,180,-143,-63,207,-4,244,229,-4,-68,-58
68,229,161,-148,-46,195,29,253,229,-14,-78,-78
73,229,156,-151,-41,192,48,258,229,-14,-97,-92
82,229,146,-156,-31,187,92,268,244,-9,-87,-107
68,239,170,-153,-51,204,141,287,253,-9,-78,-102
117,287,170,-202,-26,229,146,312,268,9,-68,-87
195,336,141,-265,26,239,156,326,268,34,-53,-82
244,380,136,-312,53,258,165,322,278,43,-19,-68
273,361,87,-317,92,224,170,326,292,68,-4,-68
234,336,102,-285,65,219,161,341,302,63,-9,-53
185,326,141,-256,21,234,146,366,302,68,-9,-34
195,356,161,-275,17,258,141,390,312,78,-9,-14
170,380,209,-275,-19,295,131,390,307,78,-14,-4
190,366,175,-278,7,270,141,390,326,92,4,-4
195,361,165,-278,14,263,146,400,331,92,19,0
209,356,146,-283,31,251,156,395,346,107,29,14
229,351,122,-290,53,236,156,385,346,92,24,19
224,331,107,-278,58,219,156,370,356,107,29,0
180,331,151,-256,14,241,165,395,366,112,39,-9
136,351,214,-244,-39,283,151,409,405,136,53,-14
126,351,224,-239,-48,287,146,390,419,141,63,-19
122,292,170,-207,-24,231,112,370,395,112,24,-43
112,268,156,-190,-21,212,97,361,370,92,-14,-68
92,263,170,-178,-39,217,97,390,361,78,-43,-87
107,258,151,-183,-21,204,87,400,346,58,-78,-97
97,273,175,-185,-39,224,97,434,380,87,-43,-73
97,283,185,-190,-43,234,107,468,414,117,-24,-48
122,302,180,-212,-29,241,102,497,448,141,-9,-24
112,312,200,-212,-43,256,112,536,473,170,29,0
87,336,248,-212,-80,292,122,531,453,156,29,-14
97,341,244,-219,-73,292,102,522,434,141,29,-39
107,370,263,-239,-78,317,102,512,424,126,29,-73
126,385,258,-256,-65,322,126,512,429,126,43,-82
151,400,248,-275,-48,324,161,507,429,112,24,-53
161,400,239,-280,-39,319,175,488,424,102,-9,-24
131,390,258,-261,-63,324,185,473,414,92,-29,-14
146,366,219,-256,-36,292,190,448,400,87,-53,-9
126,366,239,-246,-56,302,161,453,395,87,-48,-14
92,356,263,-224,-85,309,141,463,395,112,-39,-14
63,336,273,-200,-104,305,117,453,405,97,-24,-4
39,307,268,-173,-114,287,73,434,405,78,-29,-9
78,336,258,-207,-90,297,73,458,444,117,-4,14
78,366,287,-222,-104,326,92,488,478,136,24,19
126,395,268,-261,-70,331,107,527,507,161,48,34
165,453,287,-309,-61,370,122,551,531,185,73,43
180,473,292,-326,-56,383,102,507,488,156,63,24
190,473,283,-331,-46,378,92,488,434,136,53,14
224,429,204,-326,9,317,63,458,395,117,48,4
248,395,146,-322,51,270,53,414,346,87,24,-29
244,409,165,-326,39,287,78,366,302,58,4,-43
244,409,165,-326,39,287,78,341,278,43,-14,-39
229,409,180,-319,24,295,78,317,253,39,-24,-43
219,424,204,-322,7,314,63,292,224,4,-58,-48
200,434,234,-317,-17,334,78,317,239,14,-43,-19
170,414,244,-292,-36,329,68,302,248,24,-4,9
161,390,229,-275,-34,309,82,287,248,29,-4,34
151,361,209,-256,-29,285,87,292,244,39,4,53
161,361,200,-261,-19,280,73,287,234,43,19,43
141,351,209,-246,-34,280,82,263,224,43,24,34
112,356,244,-234,-65,300,92,248,229,48,39,24
102,331,229,-217,-63,280,82,234,229,48,53,14
78,307,229,-192,-75,268,63,219,195,43,39,9
131,307,175,-219,-21,241,58,219,195,34,34,4
170,322,151,-246,9,236,53,219,180,29,19,9
224,322,97,-273,63,209,43,190,156,14,0,-4
253,326,73,-290,90,200,43,214,165,29,19,19
244,336,92,-290,75,214,48,214,161,34,39,34
219,322,102,-270,58,212,53,219,165,48,58,48
214,331,117,-273,48,224,58,219,165,73,78,73
219,307,87,-263,65,197,24,190,156,48,63,58
185,273,87,-229,48,180,-14,146,117,19,43,34
141,214,73,-178,34,143,-19,141,78,-9,14,-4
112,180,68,-146,21,124,-29,117,29,-34,-4,-34
14,146,131,-80,-58,139,-29,92,29,-24,4,-34
4,97,92,-51,-43,95,-34,48,4,-43,-4,-39
-19,73,92,-26,-56,82,-34,24,-4,-58,-19,-48
29,48,19,-39,4,34,-39,0,0,-68,-24,-58
68,73,4,-70,31,39,-24,9,9,-58,-19,-34
82,87,4,-85,39,46,-4,29,34,-53,-14,-4
82,112,29,-97,26,70,19,58,48,-43,-4,34
126,126,0,-126,63,63,24,68,63,-39,0,58
107,92,-14,-100,61,39,48,63,48,-43,-9,34
39,53,14,-46,12,34,78,63,43,-48,-14,14
0,39,39,-19,-19,39,97,68,29,-58,-24,-9
4,53,48,-29,-21,51,102,78,14,-73,-39,-34
48,68,19,-58,14,43,97,48,-19,-78,-29,-19
19,63,43,-41,-12,53,92,29,-24,-82,-24,4
24,63,39,-43,-7,51,92,19,-24,-73,-19,19
29,63,34,-46,-2,48,78,0,-29,-78,-19,24
58,68,9,-63,24,39,63,-4,-29,-87,-19,14
73,63,-9,-68,41,26,53,0,-29,-92,-19,-4
73,48,-24,-61,48,12,34,9,-34,-102,-29,-14
107,43,-63,-75,85,-9,24,9,-48,-122,-43,-29
126,82,-43,-104,85,19,43,24,-29,-107,-39,-14
156,112,-43,-134,100,34,48,39,-9,-78,-24,9
165,126,-39,-146,102,43,48,53,9,-48,-4,24
170,122,-48,-146,109,36,39,58,29,-19,19,48
141,146,4,-143,68,75,24,82,39,-14,19,39
122,156,34,-139,43,95,24,107,53,-9,34,43
53,112,58,-82,-2,85,19,112,53,-14,48,43
4,58,53,-31,-24,56,-4,112,53,-19,34,24
34,78,43,-56,-4,61,0,107,29,-43,14,-29
43,92,48,-68,-2,70,-4,87,24,-48,-4,-63
53,102,48,-78,2,75,0,82,24,-48,-9,-92
102,126,24,-114,39,75,39,97,34,-34,-9,-107
97,146,48,-122,24,97,82,126,24,-29,-19,-68
78,146,68,-112,4,107,63,136,24,-29,-19,-53
24,126,102,-75,-39,114,48,146,24,-29,-29,-48
24,107,82,-65,-29,95,43,161,24,-29,-34,-39
-4,82,87,-39,-46,85,19,141,43,-19,-39,-24
-29,63,92,-17,-61,78,4,141,58,-19,-43,-19
-58,24,82,17,-70,53,-9,151,87,4,-24,-9
-78,4,82,36,-80,43,0,141,97,-4,-29,-4
-73,29,102,21,-87,65,-4,92,63,-39,-53,-39
-82,19,102,31,-92,61,29,68,43,-34,-43,-34
-107,-4,102,56,-104,48,53,53,43,-39,-48,-34
-136,-14,122,75,-129,53,48,48,24,-48,-68,-43
-161,-24,136,92,-148,56,39,9,-4,-63,-73,-48
-68,-29,39,48,-53,4,48,-19,-14,-68,-68,-43
-39,-29,9,34,-24,-9,58,-39,-14,-63,-63,-24
9,-29,-39,9,24,-34,58,-97,-24,-78,-78,-29
58,0,-58,-29,58,-29,58,-68,-19,-82,-82,-58
68,29,-39,-48,53,-4,58,-29,-9,-78,-82,-63
73,43,-29,-58,51,7,68,14,4,-68,-82,-43
63,102,39,-82,12,70,78,63,14,-48,-73,-48
29,78,48,-53,-9,63,63,63,9,-39,-78,-58
34,87,53,-61,-9,70,58,63,19,-53,-82,-68
102,112,9,-107,46,61,58,58,4,-53,-78,-73
87,87,0,-87,43,43,53,43,-9,-53,-82,-73
-9,48,58,-19,-34,53,34,29,-9,-68,-82,-63
-29,9,39,9,-34,24,9,-4,-19,-73,-82,-63
-39,-29,9,34,-24,-9,4,0,-14,-73,-73,-73
-58,-9,48,34,-53,19,0,14,-9,-73,-63,-78
-19,48,68,-14,-43,58,9,53,19,-43,-39,-68
-4,63,68,-29,-36,65,24,63,53,-34,-24,-87
4,78,73,-41,-34,75,43,73,73,-4,-9,-78
4,117,112,-61,-53,114,87,87,102,19,4,-43
14,126,112,-70,-48,119,68,92,97,29,4,-34
9,112,102,-61,-46,107,39,87,82,19,-4,-34
-4,107,112,-51,-58,109,-14,87,48,-4,-29,-29
4,107,102,-56,-48,104,-43,87,24,-14,-48,-29
-4,97,102,-46,-53,100,-9,78,19,-4,-24,-14
-14,87,102,-36,-58,95,24,63,24,-4,-19,-9
-34,73,107,-19,-70,90,43,53,19,-4,-19,-9
-68,43,112,12,-90,78,58,43,14,-14,-19,-9
-87,24,112,31,-100,68,39,19,-9,-34,-34,-4
-48,19,68,14,-58,43,14,0,-19,-43,-43,-14
-34,-9,24,21,-29,7,0,-19,-24,-48,-48,-14
-68,-78,-9,73,-29,-43,-14,-39,-29,-48,-53,-14
-48,-34,14,41,-31,-9,-39,-9,-29,-82,-53,-34
-68,-97,-29,82,-19,-63,-9,-19,-58,-107,-78,-68
-48,-58,-9,53,-19,-34,9,9,-43,-87,-58,-63
-39,-29,9,34,-24,-9,29,29,-29,-68,-48,-58
-29,0,29,14,-29,14,48,48,-14,-48,-39,-53
-19,29,48,-4,-34,39,68,68,0,-29,-29,-48
-14,14,29,0,-21,21,58,19,-4,-48,-43,-58
-48,-14,34,31,-41,9,48,-29,-9,-48,-43,-68
-87,-14,73,51,-80,29,39,-53,-4,-43,-29,-68
-112,-24,87,68,-100,31,34,-63,-4,-19,-29,-78
-58,24,82,17,-70,53,14,-29,-4,-14,-39,-73
-34,53,87,-9,-61,70,4,-4,-9,-24,-39,-73
39,68,29,-53,4,48,-9,19,-24,-39,-43,-73
131,136,4,-134,63,70,-24,43,-29,-58,-48,-73
97,97,0,-97,48,48,-14,29,-29,-48,-34,-48
29,53,24,-41,2,39,0,14,-43,-48,-24,-14
4,29,24,-17,-9,26,19,0,-43,-48,-4,-9
-29,0,29,14,-29,14,29,-14,-43,-48,4,-9
-19,48,68,-14,-43,58,48,-19,-58,-53,-4,-29
-14,82,97,-34,-56,90,73,-9,-63,-48,-19,-48
9,102,92,-56,-41,97,92,14,-73,-48,-29,-63
58,146,87,-102,-14,117,112,29,-58,-39,-14,-58
39,161,122,-100,-41,141,97,39,-19,-9,0,0
29,151,122,-90,-46,136,63,34,-4,-4,9,14
9,112,102,-61,-46,107,48,29,14,14,19,39
-29,78,107,-24,-68,92,53,24,29,29,29,73
-58,43,102,7,-80,73,68,39,48,19,24,73
-48,19,68,14,-58,43,82,68,63,24,19,68
-9,-4,4,7,-7,0,87,78,63,24,9,58
-4,-39,-34,21,14,-36,97,87,58,4,-9,34
19,-9,-29,-4,24,-19,78,102,48,9,-24,24
43,34,-9,-39,26,12,73,92,48,4,-14,14
131,63,-68,-97,100,-2,73,68,39,-9,-29,4
136,87,-48,-112,92,19,73,58,29,-24,-34,-4
78,107,29,-92,24,68,78,39,34,-14,-19,14
24,87,63,-56,-19,75,58,-19,-9,-14,-14,24
-29,78,107,-24,-68,92,39,-78,-19,-19,-4,34
-43,63,107,-9,-75,85,14,-102,-29,-24,9,39
29,73,43,-51,-7,58,-14,-107,-48,-34,14,14
82,112,29,-97,26,70,-48,-102,-48,-34,19,4
122,97,-24,-109,73,36,-78,-117,-68,-34,34,-9
136,53,-82,-95,109,-14,-122,-126,-68,-34,39,-19
102,34,-68,-68,85,-17,-112,-117,-63,-58,9,-14
97,24,-73,-61,85,-24,-107,-117,-63,-63,0,-19
117,24,-92,-70,104,-34,-107,-117,-63,-73,-19,0
117,14,-102,-65,109,-43,-107,-107,-73,-78,-14,9
92,14,-78,-53,85,-31,-78,-102,-73,-78,-24,14
82,29,-53,-56,68,-12,-63,-87,-73,-78,-9,34
73,29,-43,-51,58,-7,-53,-92,-82,-92,-39,19
82,14,-68,-48,75,-26,-43,-87,-82,-102,-43,4
34,-4,-39,-14,36,-21,-34,-78,-97,-102,-48,-9
-14,-29,-14,21,0,-21,-29,-73,-107,-102,-58,-14
-14,-48,-34,31,9,-41,-24,-63,-117,-107,-82,-19
-4,-48,-43,26,19,-46,-9,-53,-126,-112,-87,-19
-24,-14,9,19,-17,-2,-19,-34,-117,-97,-82,-14
-63,-29,34,46,-48,2,-43,-34,-107,-102,-78,-24
-87,-48,39,68,-63,-4,-53,-43,-107,-97,-73,-39
-82,-29,53,56,-68,12,-63,-53,-97,-92,-68,-43
-97,-24,73,61,-85,24,-4,-63,-107,-73,-48,-63
-102,-24,78,63,-90,26,29,-63,-107,-73,-43,-58
-107,-9,97,58,-102,43,63,-53,-102,-68,-39,-58
-87,4,92,41,-90,48,82,-53,-107,-68,-34,-68
-78,-9,68,43,-73,29,92,-97,-126,-87,-48,-68
-82,-29,53,56,-68,12,97,-107,-141,-97,-58,-68
-58,-19,39,39,-48,9,102,-97,-131,-107,-68,-68
-19,29,48,-4,-34,39,97,-107,-136,-122,-92,-73
14,9,-4,-12,9,2,63,-107,-122,-107,-78,-92
4,14,9,-9,-2,12,43,-102,-97,-92,-63,-102
0,29,29,-14,-14,29,53,-82,-58,-53,-34,-78
-9,34,43,-12,-26,39,53,-78,-29,-39,-19,-68
-68,-29,39,48,-53,4,19,-107,-58,-63,-39,-68
-112,-68,43,90,-78,-12,4,-131,-78,-82,-58,-73
-122,-82,39,102,-80,-21,-9,-136,-107,-97,-82,-87
-126,-87,39,107,-82,-24,-14,-141,-117,-112,-102,-82
-97,-78,19,87,-58,-29,-29,-122,-97,-97,-73,-63
-82,-68,14,75,-48,-26,-39,-107,-112,-97,-58,-58
-73,-82,-9,78,-31,-46,-58,-92,-126,-117,-73,-58
-78,-73,4,75,-41,-34,-78,-82,-131,-117,-73,-53
-53,-73,-19,63,-17,-46,-73,-92,-136,-126,-82,-73
4,-68,-73,31,39,-70,-68,-102,-136,-126,-92,-97
4,-78,-82,36,43,-80,-53,-107,-136,-122,-92,-112
-29,-87,-58,58,14,-73,-29,-112,-126,-117,-92,-122
-24,-39,-14,31,-4,-26,-14,-78,-92,-102,-73,-82
-4,0,4,2,-4,2,-9,-63,-78,-92,-78,-58
-29,24,53,2,-41,39,14,-48,-68,-78,-68,-39
-58,39,97,9,-78,68,24,-34,-43,-78,-68,-34
-9,58,68,-24,-39,63,-58,-34,-131,-126,-68,-63
-156,-48,107,102,-131,29,-4,-34,-151,-122,-53,-53
-180,-78,102,129,-141,12,82,-19,-141,-112,-39,-24
-161,-78,82,119,-122,2,97,-39,-141,-117,-58,-24
-156,-58,97,107,-126,19,73,-82,-151,-117,-68,-24
-131,-39,92,85,-112,26,34,-122,-151,-107,-68,-24
-82,-34,48,58,-65,7,29,-126,-126,-102,-78,-43
-92,-53,39,73,-65,-7,63,-131,-102,-112,-97,-63
-200,-78,122,139,-161,21,82,-126,-73,-122,-97,-92
-170,-34,136,102,-153,51,63,-107,-24,-92,-68,-102
-4,97,102,-46,-53,100,0,-82,29,-43,-29,-112
73,190,117,-131,-21,153,-48,-73,87,4,9,-92
87,283,195,-185,-53,239,-48,-126,102,78,68,-48
131,463,331,-297,-100,397,0,-283,82,200,170,48
39,551,512,-295,-236,531,9,-527,39,361,292,175
-117,439,556,-161,-336,497,-78,-771,14,541,429,258
-34,385,419,-175,-226,402,-170,-971,-19,717,570,336
224,531,307,-378,-41,419,-180,-1102,-14,946,756,468
322,624,302,-473,9,463,-170,-1127,73,1254,1029,663
278,614,336,-446,-29,475,-283,-1156,122,1546,1268,810
370,678,307,-524,31,492,-448,-1283,34,1712,1444,897
541,824,283,-683,129,553,-527,-1493,-165,1849,1629,1005
580,912,331,-746,124,622,-566,-1810,-497,1898,1771,1117
512,863,351,-688,80,607,-688,-2235,-980,1712,1732,1137
405,688,283,-546,61,485,-854,-2562,-1493,1307,1532,1063
380,414,34,-397,173,224,-907,-2635,-1839,829,1239,946
356,4,-351,-180,353,-173,-888,-2488,-1981,263,824,780
200,-531,-732,165,466,-631,-839,-2288,-2122,-590,248,546
122,-922,-1044,400,583,-983,-766,-2108,-2308,-1434,-322,287
175,-1049,-1224,436,700,-1137,-697,-1922,-2293,-1698,-590,117
204,-1073,-1278,434,741,-1176,-639,-1688,-2064,-1512,-610,34
239,-1073,-1312,417,775,-1193,-527,-1405,-1800,-1342,-570,39
370,-966,-1337,297,854,-1151,-429,-1176,-1546,-1200,-512,58
370,-917,-1288,273,829,-1102,-424,-1044,-1346,-1093,-512,-14
122,-1000,-1122,439,622,-1061,-380,-922,-1215,-1034,-551,-107
0,-995,-995,497,497,-995,-278,-810,-1093,-966,-522,-107
87,-873,-961,392,524,-917,-190,-727,-966,-868,-463,-58
156,-727,-883,285,519,-805,-136,-605,-805,-775,-424,-63
126,-595,-722,234,424,-658,-126,-444,-649,-688,-385,-68
34,-517,-551,241,292,-534,-146,-307,-502,-610,-361,-73
4,-434,-439,214,222,-436,-126,-214,-395,-512,-322,-87
43,-346,-390,151,217,-368,-63,-185,-326,-429,-268,-117
53,-268,-322,107,187,-295,0,-151,-244,-366,-224,-126
9,-190,-200,90,104,-195,53,-78,-146,-278,-175,-97
-107,-141,-34,124,-36,-87,78,-19,-92,-224,-161,-78
-161,-185,-24,173,-68,-104,58,9,-58,-214,-180,-92
-195,-190,4,192,-100,-92,58,58,-29,-200,-190,-97
-219,-170,48,195,-134,-61,58,82,-9,-185,-185,-97
-244,-190,53,217,-148,-68,48,87,0,-180,-185,-102
-214,-156,58,185,-136,-48,68,102,24,-156,-156,-107
-180,-136,43,158,-112,-46,92,97,4,-141,-131,-112
-141,-73,68,107,-104,-2,92,92,-4,-136,-122,-117
-73,-19,53,46,-63,17,92,97,-14,-122,-107,-122
-53,4,58,24,-56,31,73,97,9,-112,-102,-117
-48,4,53,21,-51,29,68,107,34,-107,-107,-117
-43,4,48,19,-46,26,78,136,58,-102,-107,-112
-39,4,43,17,-41,24,78,146,68,-102,-112,-107
-78,-9,68,43,-73,29,102,161,63,-87,-107,-117
-107,-14,92,61,-100,39,126,165,53,-73,-102,-107
-122,4,126,58,-124,65,141,185,48,-63,-87,-102
-151,-4,146,78,-148,70,151,190,43,-48,-63,-102
-165,-19,146,92,-156,63,122,161,48,-39,-43,-112
-151,-4,146,78,-148,70,107,141,48,-34,-43,-122
-58,53,112,2,-85,82,97,131,48,-34,-58,-122
9,78,68,-43,-29,73,87,126,48,-34,-68,-122
-4,29,34,-12,-19,31,117,131,78,-53,-82,-126
-73,-14,58,43,-65,21,126,122,82,-58,-87,-136
-117,-48,68,82,-92,9,136,112,87,-58,-102,-151
-107,-73,34,90,-70,-19,131,97,78,-63,-107,-156
-87,-58,29,73,-58,-14,126,122,107,-43,-87,-112
-112,-53,58,82,-85,2,112,151,131,-19,-73,-87
-92,-34,58,63,-75,12,97,175,161,-9,-63,-63
-63,-24,39,43,-51,7,92,209,190,0,-58,-39
-73,-14,58,43,-65,21,63,195,175,-19,-63,-43
-78,4,82,36,-80,43,14,214,170,-29,-68,-53
-107,29,136,39,-122,82,4,229,170,-29,-58,-68
-141,48,190,46,-165,119,-24,239,161,-24,-48,-82
-151,9,161,70,-156,85,14,214,156,-24,-48,-63
-117,-29,87,73,-102,29,58,204,126,-34,-58,-63
-117,-53,63,85,-90,4,68,200,112,-43,-68,-63
-102,-97,4,100,-53,-46,92,195,92,-63,-87,-87
-82,-107,-24,95,-29,-65,92,190,102,-58,-82,-107
-78,-53,24,65,-51,-14,107,190,126,-53,-73,-112
-102,-39,63,70,-82,12,122,209,156,-39,-63,-117
-126,-34,92,80,-109,29,122,214,165,-19,-48,-122
-126,-29,97,78,-112,34,131,234,180,-24,-43,-107
-102,4,107,48,-104,56,136,248,185,-24,-68,-112
-92,19,112,36,-102,65,136,258,190,-29,-82,-112
-73,39,112,17,-92,75,141,263,190,-34,-97,-117
-43,48,92,-2,-68,70,156,258,195,-39,-102,-107
-24,63,87,-19,-56,75,156,258,190,-34,-107,-92
0,78,78,-39,-39,78,180,263,200,-24,-82,-78
0,102,102,-51,-51,102,209,278,204,-19,-58,-43
-29,97,126,-34,-78,112,185,278,200,-4,-68,-24
-9,102,112,-46,-61,107,165,268,200,14,-63,-14
-19,102,122,-41,-70,112,146,239,209,19,-39,4
-48,39,87,4,-68,63,122,219,224,39,-34,9
-102,-43,58,73,-80,7,87,234,234,19,-48,-24
-165,-102,63,134,-114,-19,39,268,234,9,-68,-43
-170,-122,48,146,-109,-36,0,302,244,4,-87,-63
-209,-146,63,178,-136,-41,-43,312,239,-9,-112,-92
-234,-126,107,180,-170,-9,0,366,268,14,-87,-97
-263,-117,146,190,-204,14,39,409,292,24,-68,-97
-283,-107,175,195,-229,34,82,439,326,48,-53,-87
-297,-97,200,197,-248,51,117,463,346,43,-53,-87
-234,-97,136,165,-185,19,78,434,317,24,-73,-107
-219,-87,131,153,-175,21,58,434,297,14,-78,-117
-204,-58,146,131,-175,43,14,424,307,24,-78,-122
-156,-48,107,102,-131,29,-19,380,292,14,-82,-126
-131,-29,102,80,-117,36,0,390,317,34,-73,-136
-112,4,117,53,-114,61,19,400,331,53,-63,-136
-102,58,161,21,-131,109,53,448,361,78,-43,-131
-58,112,170,-26,-114,141,78,478,385,97,-29,-117
-78,82,161,-2,-119,122,87,453,370,73,-48,-146
-78,58,136,9,-107,97,97,448,366,58,-73,-165
-53,43,97,4,-75,70,92,439,361,39,-102,-185
-63,19,82,21,-73,51,102,439,346,24,-107,-204
-136,-4,131,70,-134,63,112,434,361,39,-87,-170
-175,-29,146,102,-161,58,92,434,366,53,-78,-156
-214,-29,185,122,-200,78,92,434,380,68,-68,-151
-244,-43,200,143,-222,78,117,444,409,97,-43,-122
-248,-43,204,146,-226,80,117,468,405,92,-39,-102
-258,-58,200,158,-229,70,117,478,405,82,-48,-82
-307,-82,224,195,-265,70,112,492,400,73,-43,-82
-312,-122,190,217,-251,34,102,497,390,68,-43,-87
-263,-78,185,170,-224,53,131,488,361,63,-39,-82
-248,-43,204,146,-226,80,151,483,346,82,-29,-73
-229,-19,209,124,-219,95,165,458,341,63,-14,-53
-204,-4,200,104,-202,97,161,424,326,39,-19,-48
-180,24,204,78,-192,114,126,439,346,58,-14,-34
-195,43,239,75,-217,141,112,448,361,58,-4,-39
-161,63,224,48,-192,143,92,468,370,63,0,-34
-136,112,248,12,-192,180,73,473,375,68,4,-34
-141,126,268,7,-204,197,39,458,395,68,0,-24
-151,131,283,9,-217,207,14,468,385,78,4,-14
-136,92,229,21,-183,161,-29,468,390,87,14,-4
-131,63,195,34,-163,129,-53,453,385,87,4,-19
-117,68,185,24,-151,126,-29,429,336,53,-19,-34
-107,68,175,19,-141,122,-19,429,307,34,-34,-29
-112,68,180,21,-146,124,-9,429,278,24,-39,-34
-112,82,195,14,-153,139,-14,429,244,-14,-68,-39
-107,97,204,4,-156,151,4,405,229,-29,-82,-53
-122,82,204,19,-163,143,9,361,219,-34,-63,-58
-117,63,180,26,-148,122,39,317,200,-43,-82,-68
-112,39,151,36,-131,95,58,292,175,-48,-92,-82
-63,29,92,17,-78,61,14,273,146,-68,-73,-68
-53,19,73,17,-63,46,4,234,117,-73,-73,-63
-53,24,78,14,-65,51,-4,204,102,-73,-63,-58
-34,0,34,17,-34,17,-34,175,82,-78,-53,-53
-68,9,78,29,-73,43,-29,161,82,-53,-24,-34
-34,24,58,4,-46,41,-19,161,107,-34,4,-14
-14,53,68,-19,-41,61,-9,161,117,-9,24,14
19,68,48,-43,-14,58,-4,131,117,4,39,24
-4,29,34,-12,-19,31,-4,136,122,-4,34,9
-58,4,63,26,-61,34,0,117,102,-14,29,-4
-126,-43,82,85,-104,19,4,102,92,-14,24,-19
-175,-68,107,122,-141,19,9,82,78,-4,19,-24
-156,-92,63,124,-109,-14,-14,58,73,-29,9,-29
-185,-117,68,151,-126,-24,-53,29,39,-48,-14,-43
-224,-165,58,195,-141,-53,-58,39,4,-68,-48,-73
-248,-190,58,219,-153,-65,-68,29,-39,-82,-73,-92
-278,-185,92,231,-185,-46,-63,29,-24,-73,-63,-78
-239,-204,34,222,-136,-85,-63,0,-34,-82,-73,-78
-214,-200,14,207,-114,-92,-58,-9,-29,-87,-87,-82
-117,-195,-78,156,-19,-136,-58,-19,-9,-87,-92,-87
-136,-161,-24,148,-56,-92,-58,-4,-9,-73,-73,-73
-161,-136,24,148,-92,-56,-43,19,4,-63,-63,-53
-200,-102,97,151,-148,-2,-24,53,9,-48,-48,-24
-195,-78,117,136,-156,19,-24,68,14,-39,-39,-9
-175,-102,73,139,-124,-14,-19,43,-14,-34,-19,-14
-204,-141,63,173,-134,-39,-9,34,-24,-29,-14,-24
-204,-156,48,180,-126,-53,-9,29,-43,-29,-14,-39
-161,-141,19,151,-90,-61,-24,29,-63,-34,-19,-53
-122,-146,-24,134,-48,-85,-29,9,-82,-48,-39,-63
-146,-161,-14,153,-65,-87,-34,0,-82,-63,-53,-53
-136,-170,-34,153,-51,-102,-34,0,-78,-63,-68,-53
-126,-180,-53,153,-36,-117,-48,-9,-78,-78,-87,-63
-151,-180,-29,165,-61,-104,-29,-19,-63,-78,-53,-53
-170,-180,-9,175,-80,-95,-4,-19,-58,-73,-39,-53
-204,-190,14,197,-109,-87,9,-14,-58,-73,-34,-43
-204,-190,14,197,-109,-87,34,-19,-68,-82,-34,-39
-229,-224,4,226,-117,-109,14,-39,-82,-117,-58,-68
-234,-258,-24,246,-104,-141,-19,-39,-87,-126,-73,-68
-258,-307,-48,283,-104,-178,-58,-39,-92,-136,-82,-78
-287,-375,-87,331,-100,-231,-107,-48,-97,-146,-87,-78
-273,-297,-24,285,-124,-161,-97,-48,-87,-126,-78,-82
-258,-244,14,251,-136,-114,-73,-39,-73,-117,-63,-82
-292,-244,48,268,-170,-97,-53,-48,-73,-117,-48,-87
-307,-253,53,280,-180,-100,-53,-63,-73,-117,-63,-112
-283,-244,39,263,-161,-102,-48,-43,-87,-126,-82,-146
-268,-229,39,248,-153,-95,-53,-39,-82,-126,-102,-151
-253,-219,34,236,-143,-92,-48,-19,-73,-122,-107,-151
-200,-195,4,197,-102,-95,-9,19,-53,-102,-107,-136
-156,-141,14,148,-85,-63,29,39,-43,-92,-97,-126
-126,-117,9,122,-68,-53,14,39,-34,-87,-87,-131
-131,-112,19,122,-75,-46,4,39,-24,-82,-87,-146
-82,-107,-24,95,-29,-65,4,43,-14,-78,-82,-156
-63,-92,-29,78,-17,-61,4,24,-24,-82,-87,-165
-48,-82,-34,65,-7,-58,4,24,-29,-87,-92,-165
-39,-92,-53,65,7,-73,4,34,-19,-68,-73,-161
-19,-82,-63,51,21,-73,29,24,-29,-82,-78,-161
-63,-87,-24,75,-19,-56,-9,9,-48,-107,-102,-146
-122,-136,-14,129,-53,-75,-9,9,-53,-92,-92,-112
-195,-200,-4,197,-95,-102,-19,19,-39,-87,-97,-82
-273,-248,24,261,-148,-112,-58,39,-43,-87,-117,-63
-307,-234,73,270,-190,-80,-63,58,-39,-82,-107,-58
-214,-214,0,214,-107,-107,-48,78,-24,-68,-87,-53
-185,-190,-4,187,-90,-97,-34,107,0,-43,-68,-34
-136,-165,-29,151,-53,-97,-29,97,14,-39,-68,-39
-92,-151,-58,122,-17,-104,-24,48,-4,-73,-92,-48
-87,-146,-58,117,-14,-102,-19,29,-19,-78,-92,-43
-87,-156,-68,122,-9,-112,-4,14,-29,-78,-92,-14
-102,-122,-19,112,-41,-70,9,4,-43,-68,-82,-9
-175,-175,0,175,-87,-87,4,-4,-43,-68,-82,-24
-209,-185,24,197,-117,-80,0,-14,-29,-82,-82,-29
-180,-180,0,180,-90,-90,0,-29,-39,-82,-73,-29
-234,-224,9,229,-122,-107,-4,-53,-48,-82,-73,-24
-283,-244,39,263,-161,-102,-4,-73,-43,-92,-92,-58
-273,-273,0,273,-136,-136,-19,-112,-48,-92,-102,-82
-253,-302,-48,278,-102,-175,-14,-112,-39,-87,-102,-117
-244,-273,-29,258,-107,-151,-9,-102,-29,-82,-102,-146
-214,-224,-9,219,-102,-117,-39,-48,-9,-68,-87,-136
-200,-219,-19,209,-90,-119,-43,-24,24,-63,-82,-146
-190,-214,-24,202,-82,-119,-43,0,43,-39,-78,-126
-190,-185,4,187,-97,-90,-19,29,73,-19,-73,-82
-190,-170,19,180,-104,-75,-19,39,73,9,-53,-78
-204,-180,24,192,-114,-78,-29,29,63,9,-43,-82
-229,-180,48,204,-139,-65,-63,24,34,-4,-48,-82
-229,-175,53,202,-141,-61,-73,19,14,-4,-48,-87
-209,-165,43,187,-126,-61,-53,0,-4,-19,-43,-82
-190,-165,24,178,-107,-70,-34,-14,-14,-34,-48,-87
-180,-170,9,175,-95,-80,-29,-24,-34,-48,-58,-97
-185,-190,-4,187,-90,-97,-29,-34,-53,-73,-68,-107
-200,-82,117,141,-158,17,73,43,-19,-39,-9,-43
-165,-9,156,87,-161,73,131,87,0,-4,24,4
-165,-107,58,136,-112,-24,92,73,-24,-14,-4,-14
-244,-283,-39,263,-102,-161,-24,-9,-87,-58,-63,-122
-214,-263,-48,239,-82,-156,-87,-68,-97,-78,-78,-185
-175,-229,-53,202,-61,-141,-68,-73,-87,-68,-68,-151
-136,-204,-68,170,-34,-136,-58,-78,-78,-68,-68,-117
-97,-180,-82,139,-7,-131,-48,-82,-68,-68,-68,-82
-58,-156,-97,107,19,-126,-39,-87,-58,-68,-68,-48
-78,-180,-102,129,12,-141,-48,-117,-87,-97,-87,-53
-126,-219,-92,173,-17,-156,-58,-146,-107,-107,-102,-68
-180,-229,-48,204,-65,-139,-68,-151,-117,-112,-102,-73
-219,-248,-29,234,-95,-139,-73,-141,-131,-97,-117,-87
-190,-200,-9,195,-90,-104,-48,-102,-92,-73,-107,-92
-190,-170,19,180,-104,-75,-34,-82,-78,-73,-97,-92
-141,-156,-14,148,-63,-85,-24,-63,-73,-78,-92,-92
-73,-87,-14,80,-29,-51,-14,-43,-58,-87,-87,-92
-92,-107,-14,100,-39,-61,-24,-29,-48,-68,-78,-68
-136,-131,4,134,-70,-63,-19,-14,-53,-58,-63,-34
-136,-136,0,136,-68,-68,-9,0,-43,-48,-39,-29
-146,-146,0,146,-73,-73,-9,14,-34,-39,-24,-29
-175,-146,29,161,-102,-58,-39,-24,-43,-34,-24,-39
-200,-151,48,175,-124,-51,-43,-29,-43,-29,-29,-48
-204,-170,34,187,-119,-68,-53,-19,-48,-29,-29,-53
-185,-165,19,175,-102,-73,-63,-19,-29,-19,-4,-39
-151,-107,43,129,-97,-31,-53,-9,4,-9,-4,-24
-126,-92,34,109,-80,-29,-63,-4,4,-14,-9,-34
-112,-107,4,109,-58,-51,-53,0,9,-4,-14,-34
-117,-117,0,117,-58,-58,-24,4,9,0,-19,-24
-165,-156,9,161,-87,-73,-39,9,0,-4,-19,-29
-175,-175,0,175,-87,-87,-43,29,4,-4,-19,-39
-156,-195,-39,175,-58,-117,-58,29,-4,-9,-24,-53
-170,-224,-53,197,-58,-139,-68,29,-19,-34,-39,-82
-156,-234,-78,195,-39,-156,-63,19,-34,-39,-68,-73
-131,-219,-87,175,-21,-153,-53,-14,-39,-43,-63,-73
-43,-219,-175,131,65,-197,-39,-63,-53,-58,-82,-73
-39,-224,-185,131,73,-204,-24,-97,-68,-73,-92,-73
-97,-214,-117,156,9,-165,-34,-78,-58,-68,-78,-63
-151,-234,-82,192,-34,-158,-58,-107,-97,-63,-73,-53
-204,-244,-39,224,-82,-141,-82,-136,-102,-63,-63,-43
-219,-258,-39,239,-90,-148,-112,-131,-107,-63,-48,-39
-136,-195,-58,165,-39,-126,-107,-131,-97,-63,-39,-19
-73,-112,-39,92,-17,-75,-107,-122,-87,-63,-29,-4
-24,-82,-58,53,17,-70,-102,-131,-97,-63,-9,4
0,-82,-82,41,41,-82,-112,-136,-87,-63,0,19
-43,-117,-73,80,14,-95,-117,-112,-68,-53,-4,14
-68,-151,-82,109,7,-117,-117,-97,-63,-43,0,0
-68,-175,-107,122,19,-141,-122,-82,-58,-39,-4,9
-87,-209,-122,148,17,-165,-126,-58,-63,-29,14,9
-78,-219,-141,148,31,-180,-102,-82,-82,-43,0,-4
-73,-204,-131,139,29,-168,-92,-87,-92,-48,9,4
-68,-204,-136,136,34,-170,-87,-112,-112,-68,-24,-19
-43,-219,-175,131,65,-197,-82,-126,-122,-82,-34,-43
-112,-224,-112,168,0,-168,-68,-117,-122,-68,-34,-63
-170,-234,-63,202,-53,-148,-58,-122,-117,-63,-39,-73
-180,-239,-58,209,-61,-148,-48,-122,-112,-63,-58,-82
-180,-224,-43,202,-68,-134,-29,-122,-107,-63,-58,-87
-190,-195,-4,192,-92,-100,-53,-102,-87,-58,-53,-63
-229,-214,14,222,-122,-100,-82,-102,-78,-63,-48,-53
-253,-239,14,246,-134,-112,-97,-112,-78,-58,-43,-48
-248,-224,24,236,-136,-100,-112,-122,-68,-53,-39,-34
-239,-229,9,234,-124,-109,-97,-112,-82,-68,-43,-43
-239,-239,0,239,-119,-119,-87,-102,-97,-82,-53,-39
-239,-234,4,236,-122,-114,-78,-82,-107,-92,-63,-39
-214,-229,-14,222,-100,-122,-82,-73,-126,-107,-73,-48
-219,-258,-39,239,-90,-148,-73,-136,-146,-126,-92,-87
-239,-283,-43,261,-97,-163,-58,-156,-170,-136,-97,-117
-229,-278,-48,253,-90,-163,-43,-156,-170,-146,-102,-146
-204,-234,-29,219,-87,-131,-39,-175,-185,-161,-122,-180
-170,-248,-78,209,-46,-163,-58,-170,-190,-161,-117,-170
-180,-248,-68,214,-56,-158,-73,-161,-185,-151,-112,-151
-185,-239,-53,212,-65,-146,-58,-136,-165,-117,-92,-97
-195,-239,-43,217,-75,-141,-53,-126,-156,-107,-87,-58
-214,-258,-43,236,-85,-151,-53,-146,-156,-122,-92,-63
-219,-263,-43,241,-87,-153,-43,-161,-156,-131,-97,-63
-190,-244,-53,217,-68,-148,-34,-156,-165,-136,-107,-73
-156,-214,-58,185,-48,-136,-14,-151,-156,-141,-112,-63
-165,-229,-63,197,-51,-146,-14,-141,-136,-126,-102,-78
-170,-244,-73,207,-48,-158,-19,-136,-151,-126,-97,-87
-180,-283,-102,231,-39,-192,-34,-131,-165,-146,-122,-102
-204,-297,-92,251,-56,-195,-48,-131,-170,-146,-131,-112
-190,-273,-82,231,-53,-178,-53,-131,-156,-126,-122,-97
-131,-244,-112,187,-9,-178,-48,-131,-146,-117,-112,-97
-131,-229,-97,180,-17,-163,-34,-126,-136,-102,-92,-87
-165,-214,-48,190,-58,-131,-9,-122,-117,-87,-73,-73
-165,-209,-43,187,-61,-126,-29,-131,-107,-87,-63,-73
-151,-214,-63,183,-43,-139,-58,-141,-107,-92,-78,-78
-180,-234,-53,207,-63,-143,-68,-151,-112,-92,-78,-87
-214,-263,-48,239,-82,-156,-92,-161,-102,-107,-87,-112
-185,-273,-87,229,-48,-180,-97,-190,-141,-97,-87,-122
-195,-312,-117,253,-39,-214,-131,-229,-180,-122,-112,-131
-336,-322,14,329,-175,-153,-73,-224,-161,-102,-78,-92
-297,-195,102,246,-200,-46,0,-165,-141,-68,-29,-43
-126,-87,39,107,-82,-24,-14,-141,-151,-87,-48,-53
-92,-117,-24,104,-34,-70,-63,-131,-161,-107,-68,-82
-131,-151,-19,141,-56,-85,-68,-107,-136,-73,-48,-63
-141,-141,0,141,-70,-70,-82,-102,-122,-73,-68,-53
-131,-146,-14,139,-58,-80,-102,-78,-122,-102,-107,-73
-53,-112,-58,82,2,-85,-43,-29,-73,-92,-87,-73
-43,-78,-34,61,-4,-56,0,-24,-39,-73,-68,-73
-190,-131,58,161,-124,-36,-48,-43,-9,-73,-87,-102
-234,-146,87,190,-161,-29,-87,-48,34,-29,-58,-87
-141,4,146,68,-143,75,-48,-126,43,92,53,-19
-97,161,258,-31,-178,209,-48,-390,-29,224,175,58
-39,195,234,-78,-136,214,-146,-732,-112,366,312,141
43,239,195,-141,-75,217,-258,-951,-97,570,483,248
68,297,229,-183,-80,263,-317,-1093,-34,810,688,390
136,380,244,-258,-53,312,-346,-1176,53,1068,902,546
336,507,170,-422,82,339,-341,-1146,161,1381,1132,732
478,590,112,-534,183,351,-400,-1166,209,1644,1356,917
483,590,107,-536,187,348,-556,-1366,68,1790,1512,1024
483,629,146,-556,168,387,-663,-1673,-185,1888,1654,1098
405,658,253,-531,75,456,-717,-2020,-541,1888,1732,1166
258,600,341,-429,-41,470,-795,-2425,-1034,1678,1698,1171
253,434,180,-344,36,307,-839,-2693,-1527,1278,1503,1083
287,102,-185,-195,236,-41,-829,-2693,-1844,741,1117,868
209,-424,-634,107,422,-529,-829,-2552,-2054,-63,502,546
112,-941,-1054,414,583,-997,-805,-2371,-2337,-1102,-214,209
-9,-1254,-1244,631,617,-1249,-697,-2186,-2518,-1786,-678,-39
-175,-1385,-1210,780,517,-1298,-600,-1961,-2357,-1737,-766,-131
-200,-1424,-1224,812,512,-1324,-566,-1708,-2025,-1478,-736,-146
9,-1307,-1317,649,663,-1312,-517,-1429,-1732,-1327,-678,-146
165,-1093,-1259,463,712,-1176,-414,-1132,-1444,-1141,-580,-82
92,-1039,-1132,473,612,-1085,-341,-912,-1234,-995,-522,-48
68,-1063,-1132,497,600,-1098,-297,-810,-1151,-956,-551,-97
136,-1029,-1166,446,651,-1098,-239,-795,-1093,-936,-561,-126
58,-980,-1039,461,549,-1010,-224,-780,-980,-893,-531,-122
9,-917,-927,453,468,-922,-224,-678,-834,-814,-492,-136
4,-771,-775,383,390,-773,-156,-473,-639,-678,-419,-122
-112,-629,-517,370,202,-573,-39,-253,-434,-522,-312,-68
-190,-492,-302,341,56,-397,-24,-97,-278,-400,-229,-29
-131,-346,-214,239,41,-280,-97,-14,-204,-336,-214,-39
-117,-317,-200,217,41,-258,-170,-9,-175,-297,-204,-68
-146,-346,-200,246,26,-273,-175,-29,-180,-273,-209,-107
-195,-361,-165,278,-14,-263,-151,9,-126,-234,-195,-117
-234,-346,-112,290,-61,-229,-117,58,-87,-200,-180,-117
-263,-307,-43,285,-109,-175,-82,82,-58,-165,-151,-112
-292,-307,-14,300,-139,-161,-58,87,-39,-141,-126,-112
-253,-273,-19,263,-117,-146,-34,82,9,-126,-126,-122
-209,-263,-53,236,-78,-158,-14,68,4,-112,-112,-131
-161,-209,-48,185,-56,-129,-19,53,9,-107,-112,-141
-82,-165,-82,124,0,-124,-24,48,14,-92,-107,-151
-112,-151,-39,131,-36,-95,-24,43,39,-58,-78,-131
-136,-151,-14,143,-61,-82,-19,48,63,-48,-78,-126
