I,II,III,aVR,aVL,aVF,V1,V2,V3,V4,V5,V6
-185,92,277,46,-231,184,263,1927,-556,-19,-673,936
-179,60,239,59,-209,149,263,1921,-555,-13,-675,937
-170,43,213,63,-191,128,263,1917,-555,-18,-677,936
-161,35,196,63,-178,115,262,1912,-557,-29,-680,933
-156,33,189,61,-172,111,262,1908,-560,-38,-682,932
-156,34,190,61,-173,112,264,1903,-566,-41,-683,931
-156,34,190,61,-173,112,263,1898,-569,-39,-683,931
-150,30,180,60,-165,105,256,1892,-567,-37,-681,931
-141,33,174,54,-157,103,252,1888,-561,-38,-678,931
-132,53,185,39,-158,119,257,1883,-554,-45,-672,933
-135,72,207,31,-171,139,262,1878,-551,-52,-668,935
-157,76,233,40,-195,154,263,1872,-549,-59,-666,939
-179,73,252,53,-215,162,262,1869,-546,-58,-663,945
-187,74,261,56,-224,167,267,1870,-536,-46,-652,955
-189,81,270,54,-229,175,272,1872,-527,-34,-639,965
-199,94,293,52,-246,193,274,1873,-521,-28,-627,972
-213,101,314,56,-263,207,277,1873,-517,-24,-619,975
-223,100,323,61,-273,211,289,1873,-511,-16,-613,979
-214,101,315,56,-264,208,301,1877,-507,-9,-610,984
-178,117,295,30,-236,206,305,1885,-505,-7,-609,992
-136,130,266,3,-201,198,302,1883,-506,-8,-609,995
-111,126,237,-7,-174,181,293,1861,-510,-12,-611,984
-102,117,219,-7,-160,168,283,1834,-516,-18,-613,971
-103,115,218,-6,-160,166,274,1815,-527,-30,-619,962
-111,107,218,2,-164,162,268,1805,-535,-38,-623,956
-129,75,204,27,-166,139,261,1797,-538,-37,-626,948
-169,34,203,67,-186,118,253,1790,-540,-38,-628,941
-233,0,233,116,-233,116,239,1781,-547,-53,-633,937
-268,-9,259,138,-263,125,229,1776,-551,-67,-634,940
-230,15,245,107,-237,130,227,1778,-544,-65,-625,951
-165,57,222,54,-193,139,233,1785,-531,-53,-610,970
-125,96,221,14,-173,158,242,1791,-517,-42,-594,995
-107,121,228,-7,-167,174,244,1790,-511,-38,-585,1009
-92,128,220,-18,-156,174,233,1778,-519,-45,-585,1000
-82,122,204,-20,-143,163,219,1761,-535,-57,-589,980
-78,112,190,-17,-134,151,208,1743,-554,-69,-593,964
-86,107,193,-10,-139,150,204,1732,-565,-77,-594,956
-109,110,219,0,-164,164,203,1729,-565,-84,-597,952
-140,112,252,14,-196,182,203,1727,-561,-91,-599,951
-171,104,275,33,-223,189,204,1718,-560,-100,-601,948
-185,97,282,44,-233,189,204,1712,-561,-106,-600,950
-171,100,271,35,-221,185,203,1714,-557,-108,-594,962
-151,106,257,22,-204,181,203,1721,-551,-107,-585,975
-147,105,252,21,-199,178,204,1728,-542,-107,-574,981
-150,97,247,26,-198,172,204,1731,-536,-111,-569,980
-148,82,230,33,-189,156,202,1729,-534,-119,-578,971
-145,58,203,43,-174,130,200,1722,-535,-130,-594,956
-148,27,175,60,-161,101,196,1710,-539,-144,-611,935
-141,13,154,64,-147,83,194,1703,-541,-151,-619,922
-112,36,148,38,-130,92,199,1708,-535,-141,-610,927
-87,67,154,10,-120,110,203,1716,-527,-126,-595,940
-90,77,167,6,-128,122,204,1719,-518,-115,-584,949
-111,73,184,19,-147,128,203,1717,-512,-111,-580,951
-132,69,201,31,-166,135,208,1715,-508,-116,-577,948
-141,72,213,34,-177,142,213,1716,-507,-121,-575,946
-133,83,216,25,-174,149,217,1719,-506,-122,-570,947
-125,87,212,19,-168,149,218,1717,-506,-121,-569,946
-136,73,209,31,-172,141,222,1703,-509,-126,-578,937
-160,58,218,51,-189,138,228,1688,-511,-130,-585,931
-187,54,241,66,-214,147,238,1681,-512,-131,-577,940
-203,53,256,75,-229,154,244,1682,-512,-130,-566,950
-202,41,243,80,-222,142,237,1687,-511,-133,-561,948
-199,24,223,87,-211,123,224,1688,-511,-140,-565,936
-213,9,222,102,-217,115,209,1678,-513,-153,-575,922
-223,0,223,111,-223,111,200,1668,-516,-164,-584,912
-213,-1,212,107,-212,105,197,1665,-520,-169,-589,909
-190,8,198,91,-194,103,199,1667,-521,-169,-590,911
-172,32,204,70,-188,118,202,1671,-521,-172,-589,913
-169,47,216,61,-192,131,203,1673,-521,-174,-589,912
-188,37,225,75,-206,131,206,1669,-524,-177,-590,909
-213,14,227,99,-220,120,208,1664,-526,-179,-590,907
-228,-3,225,115,-226,111,211,1658,-528,-183,-587,907
-238,-23,215,130,-226,96,218,1654,-530,-189,-589,902
-253,-54,199,153,-226,72,231,1653,-534,-197,-601,887
-272,-77,195,174,-233,59,243,1658,-536,-200,-609,873
-293,-73,220,183,-256,73,248,1672,-528,-189,-601,872
-306,-48,258,177,-282,105,252,1692,-507,-170,-575,887
-303,-12,291,157,-297,139,264,1717,-473,-149,-536,916
-283,38,321,122,-302,179,277,1736,-439,-126,-492,955
-250,107,357,71,-303,232,282,1743,-417,-98,-447,1007
-209,183,392,13,-300,287,273,1742,-395,-49,-362,1104
-164,257,421,-46,-292,339,247,1742,-356,34,-208,1273
-108,339,447,-115,-277,393,219,1760,-284,144,-12,1484
-32,443,475,-205,-253,459,203,1806,-172,266,189,1701
46,572,526,-309,-240,549,190,1858,-41,392,396,1923
113,718,605,-415,-246,661,165,1888,80,508,603,2144
164,842,678,-503,-257,760,131,1888,155,579,754,2319
199,901,702,-550,-251,801,97,1857,156,571,790,2393
228,874,646,-551,-209,760,86,1820,103,490,694,2316
252,754,502,-503,-125,628,116,1798,17,349,469,2059
239,578,339,-408,-50,458,173,1766,-114,168,161,1694
164,395,231,-279,-33,313,238,1700,-307,-29,-172,1313
55,254,199,-154,-72,226,305,1606,-546,-211,-486,976
-48,187,235,-69,-141,211,370,1508,-798,-350,-743,726
-134,142,276,-4,-205,209,423,1434,-992,-456,-942,544
-197,62,259,67,-228,160,454,1409,-1075,-545,-1093,400
-223,-50,173,136,-198,61,448,1405,-1101,-637,-1208,288
-209,-177,32,193,-120,-72,397,1392,-1139,-744,-1297,207
-185,-294,-109,239,-38,-201,323,1371,-1184,-855,-1369,147
-183,-382,-199,282,8,-290,252,1354,-1214,-949,-1426,101
-194,-423,-229,308,17,-326,200,1360,-1205,-990,-1439,91
-202,-413,-211,307,4,-312,177,1405,-1145,-953,-1385,135
-208,-375,-167,291,-20,-271,170,1471,-1055,-879,-1294,212
-217,-338,-121,277,-48,-229,164,1536,-965,-814,-1202,296
-223,-302,-79,262,-72,-190,160,1589,-874,-752,-1109,383
-222,-266,-44,244,-89,-155,163,1623,-783,-681,-1009,469
-214,-229,-15,221,-99,-122,161,1638,-708,-611,-918,549
-203,-195,8,199,-105,-93,146,1638,-666,-551,-850,615
-195,-161,34,178,-114,-63,140,1629,-639,-498,-791,671
-191,-124,67,157,-129,-28,162,1618,-608,-443,-727,725
-190,-87,103,138,-146,8,199,1610,-575,-391,-664,774
-187,-55,132,121,-159,38,230,1608,-550,-346,-610,813
-194,-34,160,114,-177,63,252,1614,-527,-307,-570,843
-219,-31,188,125,-203,78,267,1628,-503,-275,-547,864
-252,-42,210,147,-231,84,277,1643,-483,-253,-531,877
-278,-60,218,169,-248,79,284,1653,-472,-246,-512,886
-296,-72,224,184,-260,76,286,1654,-468,-247,-497,892
-307,-72,235,189,-271,81,286,1645,-466,-247,-490,898
-307,-63,244,185,-275,90,283,1634,-467,-247,-488,901
-295,-52,243,173,-269,95,280,1628,-470,-251,-483,904
-278,-34,244,156,-261,105,286,1628,-468,-248,-473,911
-261,-3,258,132,-259,127,307,1636,-458,-229,-455,926
-239,37,276,101,-257,156,330,1648,-444,-204,-434,945
-206,81,287,62,-246,184,342,1661,-433,-188,-418,963
-175,106,281,34,-228,193,341,1664,-428,-184,-413,971
-159,97,256,31,-207,176,329,1649,-433,-193,-425,962
-160,68,228,46,-194,148,312,1629,-443,-203,-443,946
-176,42,218,67,-197,130,295,1617,-453,-208,-456,933
-199,24,223,87,-211,123,287,1614,-458,-213,-458,927
-219,18,237,100,-228,127,291,1616,-452,-223,-446,926
-228,23,251,102,-239,137,301,1619,-444,-229,-429,931
-223,37,260,93,-241,148,311,1621,-441,-220,-415,939
-218,47,265,85,-241,156,316,1620,-443,-209,-409,945
-229,44,273,92,-251,158,318,1617,-449,-205,-412,947
-238,29,267,104,-252,148,317,1615,-452,-208,-414,946
-229,9,238,110,-233,123,313,1612,-450,-213,-406,946
-204,0,204,102,-204,102,307,1610,-444,-218,-399,946
-176,10,186,83,-181,98,296,1607,-438,-224,-407,944
-156,28,184,64,-170,106,287,1605,-434,-228,-418,945
-151,38,189,56,-170,113,285,1604,-429,-232,-421,953
-160,39,199,60,-179,119,286,1604,-424,-233,-419,960
-177,31,208,73,-192,119,286,1605,-419,-233,-419,962
-189,24,213,82,-201,118,283,1605,-414,-233,-419,961
-188,22,210,83,-199,116,275,1603,-408,-238,-412,958
-180,23,203,78,-191,113,268,1600,-405,-243,-405,956
-173,25,198,74,-185,111,265,1595,-403,-245,-401,954
-179,24,203,77,-191,113,267,1594,-400,-244,-400,955
-202,18,220,92,-211,119,272,1601,-389,-243,-398,962
-223,18,241,102,-232,129,277,1609,-375,-244,-395,970
-224,30,254,97,-239,142,282,1613,-364,-243,-387,978
-223,39,262,92,-242,150,283,1614,-356,-243,-380,980
-242,30,272,106,-257,151,277,1615,-350,-245,-375,974
-257,19,276,119,-266,147,273,1615,-350,-247,-374,970
-242,25,267,108,-254,146,276,1613,-361,-249,-375,976
-192,47,239,72,-215,143,282,1610,-369,-248,-375,984
-116,76,192,20,-154,134,286,1607,-366,-243,-369,988
-73,96,169,-11,-121,132,287,1605,-356,-239,-361,989
-107,94,201,6,-154,147,286,1604,-349,-235,-352,992
-173,78,251,47,-212,164,286,1604,-346,-234,-346,994
-213,61,274,76,-243,167,287,1606,-343,-232,-342,996
-228,48,276,90,-252,162,287,1605,-341,-233,-341,995
-233,38,271,97,-252,154,281,1599,-340,-238,-341,991
-224,29,253,97,-238,141,273,1590,-340,-247,-345,985
-197,21,218,88,-207,119,264,1581,-343,-258,-354,978
-162,28,190,67,-176,109,258,1576,-345,-263,-360,975
-128,59,187,34,-157,123,255,1577,-345,-256,-357,979
-102,96,198,3,-150,147,257,1580,-341,-248,-351,984
-88,113,201,-12,-144,157,264,1582,-334,-246,-347,987
-96,112,208,-8,-152,160,272,1585,-322,-244,-336,989
-130,96,226,17,-178,161,279,1592,-305,-233,-311,997
-178,69,247,54,-212,158,282,1599,-292,-219,-287,1004
-221,38,259,91,-240,148,284,1602,-290,-208,-282,1008
-239,23,262,108,-250,142,283,1604,-292,-204,-286,1009
-219,42,261,88,-240,151,281,1611,-285,-205,-284,1015
-185,76,261,54,-223,168,282,1624,-268,-204,-273,1028
-167,102,269,32,-218,185,291,1644,-245,-191,-255,1048
-164,107,271,28,-217,189,297,1654,-229,-180,-244,1062
-172,88,260,42,-216,174,289,1639,-229,-185,-252,1058
-189,59,248,65,-218,153,273,1615,-238,-199,-272,1044
-210,34,244,88,-227,139,256,1600,-245,-211,-289,1034
-223,23,246,100,-234,134,247,1599,-244,-209,-292,1033
-218,34,252,92,-235,143,257,1612,-229,-188,-270,1046
-204,61,265,71,-234,163,277,1633,-205,-157,-235,1067
-195,97,292,49,-243,194,297,1654,-174,-130,-200,1090
-185,125,310,30,-247,217,306,1667,-151,-121,-180,1106
-165,130,295,17,-230,212,300,1668,-145,-136,-181,1106
-146,122,268,12,-207,195,287,1664,-150,-155,-194,1093
-140,113,253,13,-196,183,282,1662,-155,-157,-204,1075
-141,111,252,15,-196,181,291,1667,-146,-146,-200,1067
-137,120,257,8,-197,188,315,1682,-117,-130,-179,1081
-126,140,266,-7,-196,203,340,1702,-83,-117,-156,1106
-110,164,274,-27,-192,219,351,1718,-61,-110,-146,1125
-101,179,280,-39,-190,229,351,1726,-53,-107,-141,1136
-112,174,286,-31,-199,230,345,1724,-54,-101,-131,1139
-122,161,283,-19,-202,222,341,1717,-53,-92,-122,1137
-110,158,268,-24,-189,213,342,1714,-40,-82,-119,1133
-97,164,261,-33,-179,212,345,1716,-24,-73,-117,1136
-102,176,278,-37,-190,227,347,1724,-16,-66,-107,1152
-116,189,305,-36,-210,247,346,1731,-14,-63,-92,1175
-122,201,323,-39,-222,262,341,1734,-9,-63,-77,1193
-122,208,330,-43,-226,269,336,1732,-4,-63,-68,1204
-120,208,328,-44,-224,268,331,1727,0,-55,-68,1207
-125,195,320,-35,-222,257,326,1722,3,-48,-77,1205
-138,172,310,-17,-224,241,318,1715,4,-47,-88,1200
-136,164,300,-14,-218,232,312,1712,3,-48,-87,1199
-100,193,293,-46,-196,243,309,1712,6,-43,-66,1207
-49,232,281,-91,-165,256,307,1712,8,-39,-43,1214
-15,247,262,-116,-138,254,300,1706,9,-41,-41,1215
-3,244,247,-120,-125,245,292,1698,8,-47,-52,1214
-15,238,253,-111,-134,245,286,1693,10,-53,-63,1221
-37,234,271,-98,-154,252,283,1688,9,-57,-67,1228
-60,233,293,-86,-176,263,282,1678,1,-61,-65,1230
-72,234,306,-81,-189,270,282,1672,-8,-62,-62,1229
-70,233,303,-81,-186,268,283,1680,-16,-63,-69,1228
-63,233,296,-85,-179,264,283,1687,-18,-63,-73,1229
-59,238,297,-89,-178,267,280,1682,-18,-62,-64,1227
-58,243,301,-92,-179,272,273,1664,-23,-67,-57,1224
-54,245,299,-95,-176,272,258,1640,-42,-83,-67,1219
-48,244,292,-98,-170,268,244,1615,-67,-101,-86,1215
-43,240,283,-98,-163,261,239,1596,-84,-112,-101,1213
-47,239,286,-96,-166,262,238,1586,-91,-116,-107,1214
-65,240,305,-87,-185,272,238,1584,-89,-116,-102,1217
-81,243,324,-81,-202,283,234,1581,-91,-116,-97,1215
-78,244,322,-83,-200,283,226,1567,-110,-123,-102,1204
-68,239,307,-85,-187,273,219,1546,-135,-135,-116,1190
-68,225,293,-78,-180,259,213,1527,-153,-148,-134,1180
-72,209,281,-68,-176,245,204,1504,-173,-164,-150,1171
-73,197,270,-62,-171,233,187,1474,-204,-182,-160,1156
-72,185,257,-56,-164,221,170,1449,-233,-199,-169,1137
-77,167,244,-45,-160,205,165,1439,-246,-209,-183,1119
-86,146,232,-30,-159,189,169,1439,-252,-213,-199,1102
-97,127,224,-15,-160,175,175,1436,-260,-213,-213,1090
-115,112,227,1,-171,169,179,1429,-267,-213,-219,1083
-147,100,247,23,-197,173,178,1414,-270,-220,-212,1080
-183,83,266,50,-224,174,170,1391,-277,-233,-208,1073
-210,53,263,78,-236,158,156,1362,-296,-250,-224,1057
-219,34,253,92,-236,143,146,1342,-316,-262,-247,1044
-202,47,249,77,-225,148,149,1342,-323,-260,-261,1044
-163,80,243,41,-203,161,160,1350,-322,-253,-267,1048
-112,111,223,0,-167,167,169,1353,-320,-250,-269,1043
-74,130,204,-28,-139,167,174,1351,-321,-252,-268,1034
-67,133,200,-33,-133,166,175,1349,-327,-257,-263,1028
-72,126,198,-27,-135,162,175,1346,-335,-262,-267,1024
-68,117,185,-24,-126,151,175,1337,-342,-268,-285,1019
-72,107,179,-17,-125,143,179,1327,-345,-272,-297,1015
-105,94,199,5,-152,146,188,1323,-344,-274,-282,1014
-161,74,235,43,-198,154,194,1326,-341,-273,-258,1015
-222,43,265,89,-243,154,189,1334,-339,-271,-250,1011
-257,15,272,121,-264,143,180,1337,-340,-272,-257,1005
-244,1,245,121,-244,123,175,1325,-346,-277,-272,996
-210,3,213,103,-211,108,174,1312,-350,-282,-282,990
-188,17,205,85,-196,111,176,1311,-348,-287,-279,989
-180,28,208,76,-194,118,175,1312,-345,-291,-273,989
-178,27,205,75,-191,116,168,1299,-351,-298,-276,988
-179,19,198,80,-188,108,161,1279,-360,-306,-286,985
-181,15,196,83,-188,105,161,1260,-368,-313,-295,981
-184,18,202,83,-193,110,164,1253,-374,-316,-297,980
-190,27,217,81,-203,122,165,1262,-378,-315,-290,980
-185,38,223,73,-204,130,165,1272,-380,-312,-283,980
-161,49,210,56,-185,129,164,1270,-379,-311,-285,973
-141,57,198,42,-169,127,164,1263,-379,-311,-291,966
-149,61,210,44,-179,135,165,1261,-385,-311,-295,963
-178,58,236,60,-207,147,165,1262,-389,-311,-296,961
-210,46,256,82,-233,151,163,1260,-386,-313,-299,954
-219,34,253,92,-236,143,161,1254,-380,-316,-301,946
-185,28,213,78,-199,120,156,1244,-380,-320,-304,940
-138,19,157,59,-147,88,151,1234,-384,-325,-311,936
-112,-2,110,57,-111,54,145,1226,-390,-334,-322,931
-106,-23,83,64,-94,30,141,1215,-394,-340,-326,927
-110,-26,84,68,-97,29,140,1200,-395,-337,-311,924
-121,-23,98,72,-109,37,140,1185,-399,-331,-292,922
-137,-31,106,84,-121,37,140,1178,-411,-328,-289,920
-155,-38,117,96,-136,39,140,1179,-423,-326,-296,921
-167,-30,137,98,-152,53,143,1186,-427,-320,-304,927
-174,-10,164,92,-169,77,150,1199,-419,-307,-302,935
-177,12,189,82,-183,100,164,1217,-402,-289,-283,944
-175,28,203,73,-189,115,174,1228,-385,-278,-263,950
-169,29,198,70,-183,113,172,1221,-379,-284,-258,949
-161,24,185,68,-173,104,165,1205,-379,-296,-262,946
-152,21,173,65,-162,97,162,1196,-380,-298,-264,945
-146,19,165,63,-155,92,161,1190,-379,-296,-263,945
-145,14,159,65,-152,86,155,1184,-381,-302,-261,946
-154,13,167,70,-160,90,151,1184,-384,-307,-258,946
-178,20,198,79,-188,109,154,1196,-390,-299,-254,946
-199,24,223,87,-211,123,160,1205,-394,-287,-252,946
-201,13,214,94,-207,113,161,1193,-395,-282,-257,945
-190,-3,187,96,-188,92,156,1176,-395,-282,-262,945
-178,-14,164,96,-171,75,149,1172,-395,-284,-264,947
-174,-14,160,94,-167,73,145,1175,-395,-283,-258,950
-182,-1,181,91,-181,90,151,1178,-393,-278,-245,953
-180,22,202,79,-191,112,160,1179,-390,-273,-229,955
-153,53,206,50,-179,129,164,1180,-387,-271,-218,958
-123,72,195,25,-159,133,161,1180,-385,-272,-218,960
-115,64,179,25,-147,121,154,1178,-381,-275,-232,961
-117,48,165,34,-141,106,146,1176,-379,-277,-247,960
-106,48,154,29,-130,101,140,1174,-382,-277,-247,961
-97,53,150,22,-123,101,136,1171,-384,-277,-239,961
-103,43,146,30,-124,94,130,1164,-385,-282,-234,957
-107,29,136,39,-121,82,122,1156,-384,-291,-238,951
-88,24,112,32,-100,68,113,1152,-387,-301,-250,942
-73,24,97,24,-85,60,107,1151,-389,-306,-262,936
-91,18,109,36,-100,63,104,1150,-390,-302,-262,936
-137,9,146,64,-141,77,106,1151,-390,-292,-249,945
-192,1,193,95,-192,97,111,1150,-389,-285,-225,960
-228,0,228,114,-228,114,116,1150,-389,-282,-209,975
-220,6,226,107,-223,116,119,1151,-392,-287,-215,980
-191,13,204,89,-197,108,117,1151,-394,-296,-228,976
-170,12,182,79,-176,97,109,1147,-396,-306,-228,966
-156,13,169,71,-162,91,102,1141,-395,-311,-219,960
-144,28,172,58,-158,100,103,1135,-389,-307,-212,969
-136,47,183,44,-159,115,106,1132,-380,-297,-209,984
-134,57,191,38,-162,124,105,1131,-372,-287,-206,995
-131,62,193,34,-162,127,106,1131,-366,-278,-200,1004
-118,67,185,25,-151,126,115,1132,-363,-268,-190,1013
-107,72,179,17,-143,125,122,1132,-365,-263,-184,1018
-111,78,189,16,-150,133,113,1132,-373,-265,-190,1016
-125,81,206,22,-165,143,102,1132,-379,-272,-199,1010
-137,80,217,28,-177,148,101,1131,-377,-278,-201,1008
-154,73,227,40,-190,150,106,1131,-370,-282,-195,1009
-178,62,240,58,-209,151,109,1135,-366,-283,-182,1012
-185,57,242,64,-213,149,111,1140,-369,-283,-170,1014
-154,70,224,42,-189,147,114,1144,-377,-281,-165,1014
-113,81,194,16,-153,137,112,1141,-384,-282,-169,1010
-100,73,173,13,-136,123,102,1127,-383,-287,-180,1002
-106,54,160,26,-133,107,92,1112,-380,-291,-189,995
-115,40,155,37,-135,97,89,1107,-382,-292,-191,993
-125,29,154,48,-139,91,91,1107,-389,-292,-189,994
-138,16,154,61,-146,85,94,1104,-396,-291,-192,994
-146,8,154,69,-150,81,96,1102,-399,-291,-195,994
-138,18,156,60,-147,87,97,1101,-397,-292,-190,1000
-118,41,159,38,-138,100,96,1101,-390,-292,-180,1009
-96,66,162,15,-129,114,97,1102,-383,-291,-169,1018
-86,78,164,4,-125,121,97,1102,-379,-291,-164,1023
-98,67,165,15,-131,116,95,1100,-383,-294,-170,1021
-111,53,164,29,-137,108,92,1098,-389,-296,-179,1015
-101,59,160,21,-130,109,89,1095,-393,-296,-183,1011
-79,76,155,1,-117,115,87,1093,-394,-296,-184,1010
-61,91,152,-15,-106,121,83,1091,-397,-299,-189,1008
-48,105,153,-28,-100,129,81,1092,-399,-302,-194,1009
-35,123,158,-44,-96,140,84,1095,-401,-300,-195,1013
-24,131,155,-53,-89,143,82,1093,-404,-301,-199,1010
-17,113,130,-48,-73,121,68,1079,-413,-314,-212,994
-18,83,101,-32,-59,92,49,1059,-427,-334,-232,972
-28,60,88,-16,-58,74,32,1043,-443,-354,-252,954
-46,44,90,1,-68,67,24,1034,-452,-365,-262,946
-71,28,99,21,-85,63,25,1032,-449,-362,-257,950
-104,14,118,45,-111,66,33,1033,-439,-351,-244,960
-146,5,151,70,-148,78,41,1033,-432,-344,-233,969
-178,3,181,87,-179,92,47,1033,-429,-341,-224,975
-182,11,193,85,-187,102,51,1039,-426,-339,-215,978
-154,27,181,63,-167,104,52,1048,-424,-336,-209,979
-102,46,148,28,-125,97,54,1054,-420,-331,-206,981
-68,62,130,3,-99,96,57,1057,-414,-326,-204,984
-89,67,156,11,-122,111,63,1058,-407,-324,-197,990
-142,59,201,41,-171,130,72,1057,-400,-322,-185,999
-189,38,227,75,-208,132,81,1059,-393,-316,-172,1009
-213,19,232,97,-222,125,86,1058,-389,-311,-165,1015
-205,17,222,94,-213,119,82,1051,-394,-316,-170,1008
-186,19,205,83,-195,112,73,1039,-404,-325,-183,995
-177,11,188,83,-182,99,65,1028,-415,-330,-196,985
-170,3,173,83,-171,88,58,1019,-423,-331,-203,980
-149,13,162,68,-155,87,49,1012,-425,-330,-203,978
-106,44,150,31,-128,97,43,1005,-424,-330,-200,979
-44,92,136,-24,-90,114,44,996,-423,-332,-197,981
-4,129,133,-62,-68,131,47,990,-424,-331,-195,984
-21,130,151,-54,-86,140,48,993,-422,-324,-190,992
-65,113,178,-24,-121,145,47,1004,-419,-313,-180,1004
-92,101,193,-4,-142,147,50,1016,-413,-298,-167,1016
-97,101,198,-2,-147,149,53,1023,-409,-287,-156,1023
-89,108,197,-9,-143,152,51,1021,-409,-286,-152,1021
-86,112,198,-13,-142,155,52,1015,-409,-287,-151,1015
-101,104,205,-1,-153,154,63,1012,-404,-281,-146,1012
-112,101,213,5,-162,157,77,1014,-400,-273,-141,1014
-95,120,215,-12,-155,167,81,1019,-401,-271,-140,1020
-64,144,208,-40,-136,176,78,1019,-404,-272,-140,1023
-45,153,198,-54,-121,175,71,1007,-406,-272,-140,1020
-42,151,193,-54,-117,172,63,991,-408,-272,-140,1015
-50,150,200,-50,-125,175,57,980,-417,-279,-142,1013
-49,146,195,-48,-122,170,53,971,-428,-286,-145,1010
-22,133,155,-55,-88,144,48,961,-437,-287,-148,1000
0,117,117,-58,-58,117,39,951,-443,-291,-150,990
-15,110,125,-47,-70,117,26,947,-448,-305,-153,988
-41,107,148,-33,-94,127,14,946,-452,-321,-155,990
-46,103,149,-28,-97,126,9,944,-456,-325,-157,988
-39,101,140,-31,-89,120,8,941,-457,-322,-156,989
-41,107,148,-33,-94,127,9,938,-456,-321,-150,1000
-47,120,167,-36,-107,143,9,936,-453,-321,-141,1014
-47,136,183,-44,-115,159,5,934,-449,-323,-133,1021
-51,141,192,-45,-121,166,0,932,-447,-325,-130,1019
-73,125,198,-26,-135,161,-3,927,-451,-331,-136,1010
-96,103,199,-3,-147,151,-8,922,-457,-340,-149,996
-96,95,191,0,-143,143,-15,920,-460,-351,-164,981
-79,96,175,-8,-127,135,-19,917,-462,-360,-174,971
-57,97,154,-20,-105,125,-14,909,-467,-360,-173,972
-39,96,135,-28,-87,115,-4,902,-472,-351,-165,983
-35,97,132,-31,-83,114,3,904,-474,-340,-157,999
-46,92,138,-23,-92,115,8,911,-473,-331,-151,1009
-68,78,146,-5,-107,112,9,917,-470,-330,-149,1008
-90,59,149,15,-119,104,9,921,-468,-335,-150,1000
-102,45,147,28,-124,96,9,925,-466,-340,-154,995
-111,34,145,38,-128,89,9,922,-467,-345,-160,990
-124,26,150,49,-137,88,8,910,-472,-353,-166,980
-123,28,151,47,-137,89,8,897,-477,-360,-169,971
-91,43,134,24,-112,88,13,894,-481,-363,-169,969
-50,57,107,-3,-78,82,18,896,-482,-365,-169,971
-31,52,83,-10,-57,67,19,897,-483,-369,-174,967
-24,43,67,-9,-45,55,18,897,-483,-374,-179,961
-14,48,62,-17,-38,55,22,896,-480,-376,-181,956
-8,62,70,-27,-39,66,28,896,-478,-375,-180,955
-18,67,85,-24,-51,76,32,898,-478,-369,-177,958
-45,59,104,-7,-74,81,33,897,-482,-366,-179,956
-85,36,121,24,-103,78,33,891,-487,-368,-190,944
-123,15,138,54,-130,76,33,883,-491,-374,-203,932
-142,10,152,66,-147,81,36,879,-493,-378,-208,931
-141,14,155,63,-148,84,38,877,-492,-379,-208,935
-128,9,137,59,-132,73,39,878,-490,-380,-210,936
-113,0,113,56,-113,56,39,878,-488,-384,-213,932
-102,-4,98,53,-100,47,36,873,-487,-394,-218,926
-88,-8,80,48,-84,36,34,868,-487,-404,-223,922
-63,-16,47,39,-55,15,33,866,-489,-408,-227,920
-47,-23,24,35,-35,0,33,867,-488,-409,-229,921
-65,-24,41,44,-53,8,36,872,-482,-409,-225,924
-103,-23,80,63,-91,28,38,877,-473,-409,-219,926
-137,-29,108,83,-122,39,40,880,-467,-407,-214,928
-159,-34,125,96,-142,45,42,882,-463,-405,-209,931
-167,-28,139,97,-153,55,47,886,-461,-401,-202,938
-174,-23,151,98,-162,64,56,892,-458,-395,-195,945
-189,-33,156,111,-172,61,70,901,-451,-386,-188,951
-200,-35,165,117,-182,65,81,911,-440,-371,-176,959
-186,-5,181,95,-183,88,84,920,-421,-347,-153,977
-158,43,201,57,-179,122,86,930,-393,-315,-111,1014
-130,93,223,18,-176,158,93,945,-351,-274,-45,1078
-99,150,249,-25,-174,199,101,959,-305,-224,39,1167
-62,224,286,-81,-174,255,103,970,-261,-158,140,1280
-18,309,327,-145,-172,318,97,983,-209,-76,269,1424
31,397,366,-214,-167,381,86,1005,-134,26,439,1607
91,497,406,-294,-157,451,73,1044,-34,145,635,1811
165,617,452,-391,-143,534,65,1100,86,267,830,2013
246,736,490,-491,-122,613,54,1136,180,360,984,2175
317,823,506,-570,-94,664,31,1115,197,387,1059,2260
367,854,487,-610,-60,670,2,1050,143,334,1027,2250
383,812,429,-597,-23,620,-22,970,37,204,875,2131
364,704,340,-534,12,522,-29,898,-94,34,637,1916
309,547,238,-428,35,392,-7,848,-237,-136,358,1623
211,367,156,-289,27,261,38,791,-415,-314,48,1280
70,195,125,-132,-27,160,91,694,-655,-512,-286,923
-59,74,133,-7,-96,103,129,579,-914,-697,-587,621
-122,33,155,44,-138,94,131,482,-1127,-832,-791,436
-135,12,147,61,-141,79,105,422,-1253,-924,-913,342
-133,-57,76,95,-104,9,65,406,-1272,-996,-987,287
-123,-160,-37,141,-43,-98,22,421,-1233,-1050,-1026,255
-106,-254,-148,180,21,-201,-17,449,-1194,-1084,-1041,238
-96,-325,-229,210,66,-277,-59,480,-1163,-1105,-1039,233
-109,-368,-259,238,75,-313,-103,508,-1127,-1115,-1026,239
-125,-376,-251,250,63,-313,-130,546,-1074,-1092,-990,264
-121,-346,-225,233,52,-285,-120,607,-993,-1015,-916,319
-103,-292,-189,197,43,-240,-89,684,-892,-907,-814,400
-86,-231,-145,158,29,-188,-63,761,-785,-801,-704,495
-78,-178,-100,128,11,-139,-44,815,-690,-713,-598,587
-82,-145,-63,113,-9,-104,-28,829,-623,-648,-510,661
-91,-123,-32,107,-29,-77,-19,812,-586,-599,-443,717
-95,-100,-5,97,-45,-52,-18,782,-577,-554,-400,761
-96,-75,21,85,-58,-27,-14,757,-571,-511,-368,796
-99,-52,47,75,-73,-2,1,752,-547,-467,-336,828
-106,-35,71,70,-88,18,26,764,-514,-427,-304,852
-117,-27,90,72,-103,31,49,783,-489,-395,-278,865
-125,-24,101,74,-113,38,66,803,-469,-368,-259,872
-124,-19,105,71,-114,43,76,820,-448,-341,-246,880
-113,-14,99,63,-106,42,81,833,-430,-322,-235,891
-99,-11,88,55,-93,38,83,840,-423,-321,-221,904
-96,-13,83,54,-89,35,82,839,-428,-325,-209,915
-115,-19,96,67,-105,38,78,828,-438,-322,-204,926
-135,-23,112,79,-123,44,73,814,-447,-317,-204,931
-128,-21,107,74,-117,43,70,809,-448,-321,-202,931
-112,-14,98,63,-105,42,72,809,-440,-326,-200,931
-114,-8,106,61,-110,49,82,811,-426,-320,-197,937
-125,-8,117,66,-121,54,87,810,-418,-312,-199,941
-129,-18,111,73,-120,46,74,801,-428,-314,-212,935
-118,-32,86,75,-102,27,54,786,-446,-324,-227,923
-93,-45,48,69,-70,1,43,770,-459,-335,-235,911
-77,-56,21,66,-49,-17,39,756,-467,-340,-238,902
-99,-70,29,84,-64,-20,37,750,-475,-337,-245,896
-146,-89,57,117,-101,-16,34,746,-482,-335,-256,889
-191,-114,77,152,-134,-18,29,738,-485,-345,-269,877
-202,-123,79,162,-140,-22,28,732,-483,-355,-273,872
-152,-91,61,121,-106,-15,35,735,-478,-349,-259,886
-79,-39,40,59,-59,0,46,744,-473,-336,-240,909
-32,5,37,13,-34,21,56,754,-472,-332,-233,926
-14,28,42,-7,-28,35,62,760,-473,-335,-234,935
-11,26,37,-7,-24,31,63,761,-469,-341,-229,937
-9,19,28,-5,-18,23,62,761,-463,-345,-224,936
-2,26,28,-12,-15,27,64,762,-458,-346,-223,933
-6,38,44,-16,-25,41,71,765,-453,-345,-224,935
-43,35,78,4,-60,56,85,770,-446,-349,-219,947
-101,20,121,40,-111,70,100,774,-439,-355,-214,964
-155,2,157,76,-156,79,110,776,-435,-360,-213,976
-188,-12,176,100,-182,82,112,775,-434,-368,-214,980
-185,-20,165,102,-175,72,104,773,-433,-385,-211,975
-163,-19,144,91,-153,62,92,771,-433,-406,-208,966
-143,-13,130,78,-136,58,85,770,-435,-424,-212,959
-131,-4,127,67,-129,61,82,770,-434,-437,-218,956
-127,2,129,62,-128,65,80,773,-427,-447,-220,957
-118,8,126,55,-122,67,78,775,-419,-456,-219,960
-95,10,105,42,-100,57,72,772,-417,-469,-219,959
-78,-1,77,39,-77,38,63,766,-423,-482,-223,952
-89,-34,55,61,-72,10,54,759,-433,-488,-230,937
-110,-66,44,88,-77,-11,48,751,-446,-491,-238,922
-114,-70,44,92,-79,-13,49,743,-458,-495,-242,919
-99,-50,49,74,-74,0,56,740,-459,-492,-239,925
-77,-22,55,49,-66,16,68,751,-439,-477,-229,938
-75,-1,74,38,-74,36,80,769,-411,-455,-215,954
-116,3,119,56,-117,61,92,785,-393,-434,-200,972
-154,0,154,77,-154,77,101,794,-385,-419,-190,984
-137,0,137,68,-137,68,103,792,-382,-415,-189,984
-95,3,98,46,-96,50,102,785,-380,-414,-194,976
-76,4,80,36,-78,42,99,781,-377,-410,-198,970
-77,0,77,38,-77,38,97,780,-375,-405,-203,966
-78,-4,74,41,-76,35,94,779,-376,-401,-211,964
-73,-1,72,37,-72,35,92,779,-379,-395,-218,965
-62,18,80,22,-71,49,90,781,-381,-387,-218,970
-53,38,91,7,-72,64,91,784,-380,-376,-214,975
-55,36,91,9,-73,63,97,788,-374,-363,-210,977
-66,24,90,21,-78,57,106,794,-362,-347,-201,979
-79,21,100,29,-89,60,112,802,-345,-327,-182,984
-91,23,114,34,-102,68,116,809,-331,-308,-165,989
-96,22,118,37,-107,70,117,811,-328,-298,-165,991
-93,23,116,35,-104,69,117,810,-330,-296,-174,990
-78,32,110,23,-94,71,115,808,-332,-298,-180,988
-59,46,105,6,-82,75,116,809,-331,-293,-184,989
-43,58,101,-7,-72,79,123,815,-325,-273,-186,996
-30,67,97,-18,-63,82,130,819,-317,-246,-185,1004
-18,73,91,-27,-54,82,132,815,-312,-227,-179,1006
-21,73,94,-26,-57,83,131,813,-307,-215,-174,1004
-52,62,114,-5,-83,88,128,822,-300,-206,-179,1006
-89,45,134,22,-111,89,126,837,-292,-196,-189,1009
-103,27,130,38,-116,78,124,848,-288,-181,-194,1010
-98,18,116,40,-107,67,125,853,-283,-163,-191,1009
-84,26,110,29,-97,68,128,855,-273,-145,-176,1012
-69,38,107,15,-88,72,130,854,-259,-131,-161,1018
-58,40,98,9,-78,69,129,853,-243,-125,-159,1027
-57,38,95,9,-76,66,130,857,-225,-114,-161,1037
-70,44,114,13,-92,79,139,870,-207,-87,-152,1046
-85,56,141,14,-113,98,154,886,-187,-51,-133,1056
-88,69,157,9,-122,113,168,897,-165,-21,-110,1070
-79,80,159,0,-119,119,175,901,-147,-1,-97,1082
-67,89,156,-11,-111,122,168,902,-139,6,-102,1082
-66,92,158,-13,-112,125,156,902,-140,8,-111,1078
-87,86,173,0,-130,129,152,901,-143,14,-105,1078
-102,81,183,10,-142,132,155,901,-141,22,-92,1082
-82,91,173,-4,-127,132,162,903,-128,33,-89,1085
-43,105,148,-31,-95,126,169,906,-113,42,-91,1087
-12,112,124,-50,-68,118,171,909,-105,48,-92,1089
3,112,109,-57,-53,110,170,911,-102,52,-92,1092
6,110,104,-58,-49,107,170,912,-96,57,-91,1097
0,111,111,-55,-55,111,174,911,-88,66,-87,1105
-8,118,126,-55,-67,122,181,912,-77,82,-80,1118
-17,125,142,-54,-79,133,189,912,-68,96,-73,1131
-25,129,154,-52,-89,141,194,909,-64,98,-72,1136
-28,143,171,-57,-99,157,199,907,-63,96,-69,1140
-27,178,205,-75,-116,191,207,906,-61,101,-53,1147
-28,207,235,-89,-131,221,209,902,-58,106,-35,1155
-39,200,239,-80,-139,219,197,892,-55,104,-31,1157
-47,168,215,-60,-131,191,177,879,-53,97,-41,1156
-40,140,180,-50,-110,160,158,868,-52,91,-60,1156
-25,126,151,-50,-88,138,146,859,-57,87,-80,1156
-17,129,146,-56,-81,137,144,849,-68,86,-93,1149
-14,139,153,-62,-83,146,145,844,-80,87,-101,1141
-7,147,154,-70,-80,150,145,845,-87,84,-107,1138
0,154,154,-77,-77,154,145,844,-87,81,-103,1140
0,168,168,-84,-84,168,150,831,-83,84,-82,1144
-7,187,194,-90,-100,190,155,815,-81,91,-59,1150
-18,205,223,-93,-120,214,156,807,-89,96,-53,1156
-19,214,233,-97,-126,223,151,801,-104,97,-65,1156
-3,205,208,-101,-105,206,144,786,-124,90,-89,1145
13,187,174,-100,-80,180,136,768,-144,79,-114,1128
9,168,159,-88,-75,163,130,751,-159,68,-131,1113
0,152,152,-76,-76,152,123,734,-177,59,-144,1099
7,140,133,-73,-63,136,112,713,-203,49,-161,1085
26,131,105,-78,-39,118,102,690,-231,40,-182,1074
44,126,82,-85,-19,104,97,668,-251,30,-201,1066
53,125,72,-89,-9,98,92,646,-270,20,-213,1059
45,131,86,-88,-20,108,83,622,-296,9,-215,1048
30,136,106,-83,-38,121,73,601,-320,-2,-218,1035
18,129,111,-73,-46,120,68,591,-327,-13,-230,1023
0,110,110,-55,-55,110,72,589,-325,-18,-246,1015
-42,79,121,-18,-81,100,84,592,-330,-15,-252,1015
-103,50,153,26,-128,101,100,599,-335,-9,-245,1022
-172,34,206,69,-189,120,112,605,-334,-7,-227,1033
-217,25,242,96,-229,133,112,601,-335,-16,-218,1035
-210,14,224,98,-217,119,98,577,-348,-40,-239,1016
-178,4,182,87,-180,93,79,548,-367,-65,-274,992
-157,2,159,77,-158,80,70,534,-383,-79,-297,979
-143,3,146,70,-144,74,68,531,-393,-86,-310,972
-118,4,122,57,-120,63,64,529,-401,-96,-320,959
-93,4,97,44,-95,50,58,527,-408,-110,-325,947
-86,3,89,41,-87,46,53,526,-415,-122,-324,941
-87,0,87,43,-87,43,48,522,-423,-134,-333,937
-81,-8,73,44,-77,32,41,510,-428,-148,-366,923
-69,-18,51,43,-60,16,34,493,-433,-163,-405,904
-57,-20,37,38,-47,8,30,480,-438,-177,-421,886
-56,-19,37,37,-46,9,28,477,-443,-184,-415,878
-74,-18,56,46,-65,19,31,488,-448,-180,-397,883
-95,-18,77,56,-86,29,38,501,-452,-170,-381,895
-98,-18,80,58,-89,31,46,500,-453,-165,-380,905
-92,-14,78,53,-85,32,56,492,-448,-164,-388,911
-93,-5,88,49,-90,41,65,490,-439,-167,-396,913
-101,3,104,49,-102,53,72,491,-429,-169,-399,912
-107,4,111,51,-109,57,75,490,-425,-170,-401,910
-111,0,111,55,-111,55,77,491,-424,-170,-404,907
-114,-1,113,57,-113,56,82,500,-420,-168,-410,903
-116,0,116,58,-116,58,86,515,-414,-165,-413,901
-119,2,121,58,-120,61,88,529,-411,-160,-411,903
-117,4,121,56,-119,62,87,532,-409,-156,-408,902
-107,0,107,53,-107,53,86,513,-407,-155,-414,894
-105,-7,98,56,-101,45,86,490,-408,-155,-423,883
-130,-17,113,73,-121,48,89,481,-414,-156,-426,880
-162,-27,135,94,-148,54,92,482,-418,-156,-428,878
-170,-35,135,102,-152,50,89,480,-415,-156,-434,872
-150,-30,120,90,-135,45,82,473,-409,-156,-443,863
-111,-8,103,59,-107,47,76,467,-407,-155,-448,859
-79,8,87,35,-83,47,73,463,-408,-155,-452,858
-81,-3,78,42,-79,37,72,461,-411,-157,-455,858
-92,-30,62,61,-77,16,72,458,-413,-156,-453,858
-79,-50,29,64,-54,-10,72,450,-414,-148,-444,856
-59,-61,-2,60,-28,-31,72,444,-418,-137,-434,854
-59,-69,-10,64,-24,-39,73,449,-429,-129,-435,853
-78,-77,1,77,-39,-38,73,457,-442,-125,-446,854
-105,-83,22,94,-63,-30,70,457,-449,-127,-460,852
-124,-79,45,101,-84,-17,71,457,-445,-123,-468,853
-122,-57,65,89,-93,4,86,467,-428,-105,-459,860
-104,-23,81,63,-92,29,105,481,-410,-84,-445,871
-83,12,95,35,-89,53,115,487,-403,-74,-438,881
-72,37,109,17,-90,73,117,488,-400,-73,-438,887
-83,41,124,21,-103,82,114,487,-391,-72,-439,888
-104,30,134,37,-119,82,112,487,-377,-72,-439,887
-119,17,136,51,-127,76,112,488,-361,-76,-437,890
-122,9,131,56,-126,70,112,488,-355,-81,-438,888
-114,8,122,53,-118,65,107,485,-370,-86,-448,875
-99,2,101,48,-100,51,94,471,-396,-95,-469,852
-82,-22,60,52,-71,19,74,438,-420,-110,-497,826
-73,-50,23,61,-48,-13,58,410,-433,-124,-520,810
-81,-61,20,71,-50,-20,61,412,-431,-129,-524,815
-107,-62,45,84,-76,-8,76,431,-420,-126,-513,831
-145,-65,80,105,-112,7,89,443,-407,-121,-499,845
-169,-64,105,116,-137,20,96,447,-396,-117,-484,853
-157,-50,107,103,-132,28,95,451,-389,-115,-472,856
-132,-31,101,81,-116,35,92,457,-385,-116,-467,857
-128,-17,111,72,-119,47,94,463,-380,-118,-472,860
-131,-5,126,68,-128,60,101,467,-375,-121,-481,862
-117,11,128,53,-122,69,108,468,-374,-125,-488,862
-102,23,125,39,-113,74,116,468,-375,-130,-488,862
-111,19,130,46,-120,74,122,467,-373,-135,-483,865
-129,5,134,62,-131,69,125,468,-370,-140,-478,867
-131,-4,127,67,-129,61,123,467,-369,-145,-479,867
-118,-12,106,65,-112,47,117,463,-369,-150,-486,863
-106,-23,83,64,-94,30,110,456,-370,-155,-495,858
-105,-37,68,71,-86,15,107,448,-370,-160,-497,857
-126,-50,76,88,-101,13,110,446,-368,-166,-487,864
-153,-61,92,107,-122,15,116,447,-366,-174,-477,872
-165,-71,94,118,-129,11,119,448,-365,-180,-486,874
-158,-73,85,115,-121,6,117,448,-365,-184,-501,869
-133,-62,71,97,-102,4,109,447,-366,-185,-500,860
-93,-38,55,65,-74,8,102,447,-366,-185,-492,854
-44,-3,41,23,-42,19,104,450,-363,-184,-490,856
-18,22,40,-2,-29,31,111,456,-357,-180,-491,866
-46,20,66,13,-56,43,116,466,-344,-172,-491,878
-108,0,108,54,-108,54,124,476,-328,-158,-484,894
-166,-21,145,93,-155,62,139,486,-312,-141,-467,914
-201,-33,168,117,-184,67,150,488,-306,-127,-457,926
-202,-33,169,117,-185,68,144,478,-317,-123,-472,919
-179,-25,154,102,-166,64,132,464,-334,-125,-494,903
-147,-16,131,81,-139,57,128,456,-342,-128,-501,896
-119,-9,110,64,-114,50,130,453,-341,-126,-497,896
-102,-6,96,54,-99,45,131,452,-338,-118,-495,896
-89,-4,85,46,-87,40,131,452,-336,-108,-496,896
-70,-1,69,35,-69,34,131,454,-336,-99,-497,899
-58,0,58,29,-58,29,131,457,-336,-92,-497,901
-69,0,69,34,-69,34,127,460,-332,-87,-497,901
-97,-3,94,50,-95,45,122,462,-326,-82,-497,901
-129,-6,123,67,-126,58,119,466,-323,-79,-496,904
-145,-8,137,76,-141,64,117,468,-322,-78,-496,906
-133,-8,125,70,-129,58,114,465,-321,-77,-501,904
-101,-8,93,54,-97,42,108,459,-321,-77,-510,898
-69,-10,59,39,-64,24,99,451,-322,-80,-521,890
-49,-9,40,29,-44,15,96,447,-322,-79,-527,887
-49,0,49,24,-49,24,106,453,-319,-66,-521,892
-61,8,69,26,-65,38,120,462,-317,-49,-512,900
-72,8,80,32,-76,44,125,463,-316,-38,-510,906
-84,4,88,40,-86,46,125,462,-316,-30,-511,911
-101,3,104,49,-102,53,129,466,-317,-19,-511,917
-115,4,119,55,-117,61,131,468,-317,-9,-511,922
-118,0,118,59,-118,59,124,460,-316,-6,-516,917
-116,-3,113,59,-114,55,113,449,-316,-8,-525,908
-120,-1,119,60,-119,59,105,444,-317,-11,-534,901
-122,0,122,61,-122,61,98,444,-317,-13,-544,897
-113,-9,104,61,-108,47,88,442,-316,-15,-556,892
-106,-22,84,64,-95,31,81,439,-316,-14,-565,888
-118,-25,93,71,-105,34,89,437,-318,-9,-563,887
-146,-23,123,84,-134,50,104,438,-321,-1,-552,887
-179,-27,152,103,-165,62,119,440,-323,7,-540,888
-191,-33,158,112,-174,62,125,439,-325,13,-535,888
-159,-34,125,96,-142,45,121,430,-329,15,-543,884
-108,-30,78,69,-93,24,108,416,-335,14,-559,879
-77,-20,57,48,-67,18,96,402,-340,13,-570,871
-68,-13,55,40,-61,21,87,395,-341,17,-574,867
-68,-19,49,43,-58,15,85,398,-335,28,-572,872
-68,-24,44,46,-56,10,86,407,-323,38,-566,881
-64,-13,51,38,-57,19,86,417,-312,40,-560,889
-66,2,68,32,-67,35,86,423,-306,38,-556,892
-85,7,92,39,-88,49,90,424,-310,42,-555,893
-117,4,121,56,-119,62,96,424,-316,51,-556,892
-147,1,148,73,-147,74,98,424,-314,61,-553,893
-161,3,164,79,-162,83,97,424,-307,67,-551,893
-148,9,157,69,-152,83,94,420,-304,63,-551,889
-131,10,141,60,-136,75,88,414,-306,54,-555,883
-138,-6,132,72,-135,63,77,408,-311,46,-561,878
-150,-23,127,86,-138,52,68,405,-312,47,-565,877
-140,-17,123,78,-131,53,68,406,-304,58,-562,884
-115,5,120,55,-117,62,72,408,-293,71,-556,895
-94,31,125,31,-109,78,71,408,-287,77,-553,902
-86,51,137,17,-111,94,72,408,-283,81,-551,906
-92,58,150,17,-121,104,84,414,-276,90,-546,910
-89,65,154,12,-121,109,100,426,-268,100,-541,916
-56,87,143,-15,-99,115,107,441,-265,105,-540,922
-13,110,123,-48,-68,116,107,448,-263,106,-540,926
4,111,107,-57,-51,109,104,440,-256,111,-540,925
-1,102,103,-50,-52,102,102,425,-248,116,-540,922
-19,101,120,-41,-69,110,102,418,-245,116,-543,924
-39,98,137,-29,-88,117,102,418,-244,116,-545,926
-62,76,138,-7,-100,107,97,423,-240,125,-545,924
-99,46,145,26,-122,95,88,432,-234,135,-541,921
-161,26,187,67,-174,106,76,442,-229,133,-537,926
-207,19,226,94,-216,122,64,448,-228,126,-535,931
-186,19,205,83,-195,112,56,443,-233,124,-539,928
-129,23,152,53,-140,87,53,430,-242,125,-545,922
-90,25,115,32,-102,70,51,417,-250,126,-550,922
-78,24,102,27,-90,63,48,406,-257,126,-555,922
-83,18,101,32,-92,59,40,398,-261,124,-562,913
-106,3,109,51,-107,56,30,391,-267,122,-573,899
-146,-22,124,84,-135,51,22,382,-274,119,-584,887
-174,-39,135,106,-154,48,19,375,-282,117,-593,879
-157,-23,134,90,-145,55,18,373,-284,115,-600,871
-109,9,118,50,-113,63,19,370,-286,112,-604,864
-58,34,92,12,-75,63,18,363,-292,108,-608,855
-22,47,69,-12,-45,58,18,356,-296,106,-610,853
-12,49,61,-18,-36,55,23,359,-293,111,-605,864
-25,44,69,-9,-47,56,32,368,-284,120,-596,880
-49,32,81,8,-65,56,42,377,-273,127,-585,890
-70,20,90,25,-80,55,47,384,-264,131,-579,893
-78,12,90,33,-84,51,44,387,-257,128,-585,890
-81,5,86,38,-83,45,35,385,-253,122,-597,884
-90,-6,84,48,-87,39,25,379,-250,116,-610,873
-93,-14,79,53,-86,32,19,374,-248,112,-618,863
-74,-7,67,40,-70,30,22,380,-247,112,-619,861
-53,0,53,26,-53,26,28,389,-247,112,-618,863
-62,-11,51,36,-56,20,29,392,-248,108,-622,860
-88,-31,57,59,-72,13,28,390,-248,102,-628,854
-103,-42,61,72,-82,9,32,387,-244,99,-632,850
-99,-40,59,69,-79,9,38,385,-239,101,-634,848
-76,-30,46,53,-61,8,41,384,-235,107,-632,851
-58,-27,31,42,-44,2,42,381,-233,111,-637,850
-73,-45,28,59,-50,-8,42,371,-235,109,-654,836
-117,-74,43,95,-80,-15,42,361,-238,102,-675,820
-171,-94,77,132,-124,-8,44,359,-240,99,-685,817
-203,-101,102,152,-152,0,47,364,-239,101,-683,823
-186,-97,89,141,-137,-4,49,373,-236,108,-677,826
-142,-84,58,113,-100,-13,48,379,-234,116,-673,824
-108,-66,42,87,-75,-12,45,377,-233,118,-675,819
-96,-57,39,76,-67,-9,43,370,-234,116,-682,814
-109,-72,37,90,-73,-17,43,368,-232,118,-686,811
-140,-98,42,119,-91,-28,47,369,-229,121,-687,810
-178,-115,63,146,-120,-26,52,372,-224,122,-688,807
-206,-117,89,161,-147,-14,57,374,-219,125,-687,805
-208,-106,102,157,-155,-2,62,375,-216,133,-688,804
-188,-85,103,136,-145,9,67,375,-214,144,-688,804
-163,-63,100,113,-131,18,72,374,-212,153,-687,805
-143,-52,91,97,-117,19,80,374,-209,160,-687,805
-134,-64,70,99,-102,3,92,376,-203,164,-691,801
-131,-73,58,102,-94,-7,105,383,-192,172,-692,799
-123,-52,71,87,-97,9,111,397,-173,193,-681,807
-120,-14,106,67,-113,46,116,419,-142,223,-650,832
-136,13,149,61,-142,81,124,447,-97,258,-597,883
-161,38,199,61,-180,118,130,470,-53,296,-532,953
-177,78,255,49,-216,166,127,477,-24,336,-465,1038
-166,143,309,11,-237,226,118,481,6,396,-371,1153
-114,237,351,-61,-232,294,110,501,68,494,-212,1321
-29,366,395,-168,-212,380,110,554,180,632,5,1538
74,527,453,-300,-189,490,124,643,348,800,252,1784
172,681,509,-426,-168,595,132,720,508,944,470,2005
240,780,540,-510,-150,660,109,726,579,1005,592,2143
285,814,529,-549,-122,671,65,670,556,973,599,2179
324,787,463,-555,-69,625,22,586,466,863,494,2113
345,705,360,-525,-7,532,0,503,338,708,299,1947
329,572,243,-450,43,407,15,440,194,545,44,1684
253,396,143,-324,55,269,63,370,7,367,-266,1342
103,197,94,-150,4,145,128,260,-255,159,-630,954
-53,36,89,8,-71,62,184,131,-546,-40,-973,605
-137,-27,110,82,-123,41,203,24,-788,-184,-1209,386
-156,-43,113,99,-134,35,185,-45,-945,-287,-1353,271
-151,-93,58,122,-104,-17,140,-77,-1002,-380,-1452,196
-138,-183,-45,160,-46,-114,86,-79,-997,-461,-1523,139
-124,-287,-163,205,19,-225,39,-62,-981,-519,-1568,93
-116,-382,-266,249,75,-324,-5,-38,-960,-556,-1592,61
-123,-446,-323,284,100,-384,-59,-12,-925,-579,-1599,49
-142,-472,-330,307,94,-401,-99,25,-866,-568,-1574,66
-166,-458,-292,312,63,-375,-96,93,-777,-497,-1501,122
-194,-420,-226,307,16,-323,-64,187,-663,-388,-1394,208
-228,-379,-151,303,-38,-265,-28,289,-538,-276,-1276,309
-251,-338,-87,294,-82,-212,0,371,-421,-178,-1163,409
-247,-292,-45,269,-101,-168,19,402,-333,-101,-1065,494
-223,-242,-19,232,-102,-130,28,393,-278,-38,-987,564
-197,-190,7,193,-102,-91,28,366,-255,18,-925,625
-177,-146,31,161,-104,-57,32,343,-242,70,-875,675
-168,-118,50,143,-109,-34,51,339,-215,112,-832,714
-169,-103,66,136,-117,-18,81,352,-180,146,-795,742
-174,-93,81,133,-127,-6,112,372,-151,173,-766,760
-176,-83,93,129,-134,5,134,392,-129,196,-748,773
-161,-73,88,117,-124,7,137,405,-107,215,-739,783
-129,-64,65,96,-97,0,128,413,-89,224,-736,789
-81,-58,23,69,-52,-17,114,416,-79,216,-734,788
-52,-61,-9,56,-21,-35,103,414,-77,201,-732,785
-78,-75,3,76,-40,-36,99,409,-78,196,-731,784
-132,-94,38,113,-85,-28,101,405,-81,195,-732,785
-170,-108,62,139,-116,-23,104,405,-85,191,-731,783
-188,-112,76,150,-132,-18,110,408,-87,189,-727,784
-196,-105,91,150,-143,-7,123,409,-83,198,-721,792
-200,-93,107,146,-153,7,135,409,-78,212,-717,803
-197,-84,113,140,-155,14,134,407,-77,217,-719,810
-187,-78,109,132,-148,15,127,405,-77,214,-726,813
-169,-77,92,123,-130,7,123,402,-77,211,-729,813
-156,-77,79,116,-117,1,125,404,-77,213,-727,813
-161,-78,83,119,-122,2,128,412,-79,220,-721,816
-177,-81,96,129,-136,7,131,422,-78,224,-713,818
-188,-87,101,137,-144,7,128,424,-72,212,-705,818
-182,-92,90,137,-136,-1,123,420,-64,196,-698,818
-158,-87,71,122,-114,-8,115,413,-59,193,-691,822
-140,-79,61,109,-100,-9,111,409,-61,199,-691,828
-161,-74,87,117,-124,6,115,408,-72,202,-700,829
-202,-76,126,139,-164,25,124,408,-85,200,-710,829
-230,-85,145,157,-187,30,131,409,-92,196,-712,829
-228,-88,140,158,-184,26,131,409,-92,190,-711,829
-190,-72,118,131,-154,23,123,406,-88,185,-717,826
-138,-47,91,92,-114,22,113,400,-82,180,-726,823
-102,-26,76,64,-89,25,109,395,-77,176,-726,827
-91,-18,73,54,-82,27,111,394,-73,175,-722,833
-103,-27,76,65,-89,24,116,400,-70,175,-722,835
-120,-45,75,82,-97,15,121,412,-68,175,-722,834
-121,-59,62,90,-91,1,123,422,-65,171,-716,831
-112,-63,49,87,-80,-7,122,428,-63,165,-708,829
-113,-54,59,83,-86,2,121,428,-60,162,-701,830
-130,-37,93,83,-111,28,121,428,-54,161,-697,837
-167,-20,147,93,-157,63,125,435,-41,159,-693,849
-201,-10,191,105,-196,90,130,446,-26,156,-688,861
-203,-8,195,105,-199,93,133,452,-15,152,-683,867
-191,-20,171,105,-181,75,131,453,-9,147,-678,864
-193,-48,145,120,-169,48,124,452,-7,139,-676,853
-207,-75,132,141,-169,28,117,452,-8,132,-677,844
-212,-78,134,145,-173,28,117,454,-11,126,-682,846
-199,-61,138,130,-168,38,121,457,-10,122,-687,853
-165,-39,126,102,-145,43,122,460,2,120,-688,855
-133,-21,112,77,-122,45,122,462,21,121,-684,854
-133,-14,119,73,-126,52,121,463,33,124,-676,852
-141,-17,124,79,-132,53,122,463,38,125,-668,849
-124,-24,100,74,-112,38,121,461,41,125,-665,843
-103,-28,75,65,-89,23,121,462,46,125,-663,838
-112,-25,87,68,-99,31,125,467,57,130,-658,843
-133,-12,121,72,-127,54,134,476,70,139,-650,855
-133,9,142,62,-137,75,145,485,82,147,-644,869
-115,27,142,44,-128,84,151,491,91,154,-643,877
-98,28,126,35,-112,77,142,492,94,162,-650,874
-91,6,97,42,-94,51,124,488,96,169,-664,860
-101,-37,64,69,-82,13,111,484,101,171,-683,844
-121,-77,44,99,-82,-16,106,482,113,174,-689,834
-144,-86,58,115,-101,-14,110,487,134,180,-668,840
-166,-74,92,120,-129,9,116,495,153,188,-637,855
-184,-68,116,126,-150,24,118,500,162,193,-625,867
-191,-64,127,127,-159,31,117,501,164,194,-628,872
-176,-51,125,113,-150,37,116,502,170,195,-631,872
-157,-35,122,96,-139,43,120,505,182,201,-629,872
-154,-30,124,92,-139,47,130,514,199,217,-622,878
-156,-29,127,92,-141,49,139,521,216,236,-614,887
-144,-22,122,83,-133,50,142,520,228,248,-614,888
-121,-4,117,62,-119,56,141,516,237,256,-618,887
-99,22,121,38,-110,71,140,522,249,267,-619,890
-87,42,129,22,-108,85,140,534,261,283,-615,896
-92,34,126,29,-109,80,141,543,267,303,-606,899
-108,12,120,48,-114,66,140,549,272,323,-596,901
-124,0,124,62,-124,62,141,556,279,337,-587,904
-134,0,134,67,-134,67,141,564,293,345,-581,910
-140,3,143,68,-141,73,139,575,315,348,-575,922
-152,8,160,72,-156,84,140,591,341,357,-567,938
-181,11,192,85,-186,101,148,611,368,382,-556,951
-207,13,220,97,-213,116,162,631,395,413,-543,959
-200,16,216,92,-208,116,177,644,422,437,-531,965
-167,22,189,72,-178,105,185,651,444,451,-526,966
-130,32,162,49,-146,97,178,657,458,459,-533,963
-104,41,145,31,-124,93,166,662,462,466,-541,960
-100,47,147,26,-123,97,164,666,462,476,-533,965
-99,55,154,22,-126,104,172,671,466,489,-519,974
-75,74,149,0,-112,111,186,680,480,504,-511,981
-49,94,143,-22,-96,118,198,690,499,519,-507,988
-56,102,158,-23,-107,130,204,699,512,531,-501,999
-86,102,188,-8,-137,145,204,706,520,539,-493,1012
-111,101,212,5,-161,156,202,708,529,544,-485,1022
-121,101,222,10,-171,161,200,707,539,549,-478,1028
-115,102,217,6,-166,159,199,706,548,557,-476,1032
-103,98,201,2,-152,149,199,706,554,565,-477,1033
-97,84,181,6,-139,132,199,707,559,567,-481,1033
-89,76,165,6,-127,120,196,707,561,566,-479,1033
-66,94,160,-14,-113,127,187,702,558,564,-465,1037
-38,119,157,-40,-97,138,173,691,552,558,-453,1039
-21,122,143,-50,-82,132,154,671,542,543,-461,1034
-21,109,130,-44,-75,119,137,654,536,528,-480,1029
-40,100,140,-30,-90,120,133,651,540,524,-490,1032
-71,97,168,-13,-119,132,139,657,549,529,-489,1038
-107,96,203,5,-155,149,148,659,552,537,-479,1038
-130,96,226,17,-178,161,155,658,547,541,-472,1034
-119,97,216,11,-167,156,154,657,538,536,-481,1033
-87,101,188,-7,-137,144,147,651,528,524,-495,1033
-60,107,167,-23,-113,137,138,630,521,511,-498,1033
-41,115,156,-37,-98,135,128,604,514,499,-496,1029
-26,123,149,-48,-87,136,115,585,499,487,-501,1024
-8,129,137,-60,-72,133,103,576,481,479,-510,1019
15,136,121,-75,-53,128,98,571,466,475,-517,1016
22,140,118,-81,-48,129,101,569,462,477,-517,1017
-16,140,156,-62,-86,148,107,571,470,482,-510,1027
-80,137,217,-28,-148,177,115,571,478,487,-502,1037
-132,130,262,1,-197,196,121,560,470,486,-503,1040
-155,123,278,16,-216,200,122,544,451,479,-513,1035
-141,117,258,12,-199,187,116,528,433,467,-534,1026
-101,116,217,-7,-159,166,100,510,413,451,-557,1013
-52,121,173,-34,-112,147,76,487,384,433,-575,994
-24,119,143,-47,-83,131,55,465,355,416,-588,974
-44,94,138,-25,-91,116,51,455,340,405,-596,958
-100,51,151,24,-125,101,60,453,336,400,-603,947
-161,8,169,76,-165,88,72,450,331,400,-609,940
-208,-21,187,114,-197,83,81,445,326,400,-610,936
-224,-27,197,125,-210,85,82,437,326,394,-602,934
-216,-23,193,119,-204,85,75,426,326,382,-594,929
-200,-30,170,115,-185,70,61,411,316,366,-603,914
-182,-41,141,111,-161,50,49,397,300,352,-624,898
-168,-42,126,105,-147,42,45,388,284,349,-646,894
-147,-35,112,91,-129,38,47,381,270,351,-664,893
-108,-29,79,68,-93,25,48,368,256,347,-679,883
-75,-25,50,50,-62,12,48,356,245,341,-687,869
-81,-18,63,49,-72,22,47,357,241,341,-685,863
-115,-14,101,64,-108,43,48,365,243,345,-686,863
-147,-16,131,81,-139,57,47,366,246,348,-702,861
-167,-19,148,93,-157,64,51,361,248,350,-716,858
-174,-14,160,94,-167,73,63,358,245,352,-706,857
-174,-5,169,89,-171,82,76,359,240,355,-681,858
-178,-2,176,90,-177,87,79,367,233,359,-669,856
-180,-10,170,95,-175,80,74,371,225,361,-674,850
-173,-32,141,102,-157,54,66,358,216,358,-695,840
-162,-54,108,108,-135,27,59,338,209,352,-718,830
-156,-64,92,110,-124,14,54,329,207,346,-729,825
-159,-66,93,112,-126,13,49,326,208,342,-731,824
-174,-76,98,125,-136,11,40,321,209,335,-735,822
-202,-93,109,147,-155,8,30,313,209,327,-744,819
-237,-110,127,173,-182,8,25,305,208,319,-753,814
-261,-117,144,189,-202,13,27,305,208,316,-756,813
-251,-103,148,177,-199,22,38,319,212,324,-746,820
-206,-74,132,140,-169,29,54,338,221,338,-729,832
-140,-43,97,91,-118,27,72,347,235,351,-720,838
-87,-21,66,54,-76,22,85,346,243,359,-721,839
-83,-17,66,50,-74,24,87,343,238,364,-726,835
-115,-30,85,72,-100,27,79,337,225,365,-734,826
-145,-51,94,98,-119,21,70,328,221,365,-743,813
-160,-70,90,115,-125,10,63,318,223,365,-750,801
-157,-78,79,117,-118,0,60,313,225,367,-751,796
-158,-88,70,123,-114,-9,58,312,224,369,-750,795
-184,-115,69,149,-126,-23,55,311,221,369,-754,793
-212,-139,73,175,-142,-33,53,308,219,369,-756,790
-201,-131,70,166,-135,-30,52,298,219,375,-747,787
-163,-102,61,132,-112,-20,53,288,219,383,-736,785
-129,-80,49,104,-89,-15,51,285,212,389,-740,783
-116,-69,47,92,-81,-11,52,290,201,393,-753,784
-130,-64,66,97,-98,1,59,298,195,401,-764,790
-156,-59,97,107,-126,19,74,309,198,415,-763,802
-173,-48,125,110,-149,38,96,326,211,435,-744,815
-182,-39,143,110,-162,52,115,339,226,451,-724,823
-196,-43,153,119,-174,55,116,339,232,451,-721,820
-218,-55,163,136,-190,54,108,331,229,444,-733,811
-247,-66,181,156,-214,57,104,331,226,447,-744,804
-263,-76,187,169,-225,55,102,331,224,453,-750,800
-245,-85,160,165,-202,37,95,322,222,445,-751,799
-210,-91,119,150,-164,14,87,308,220,430,-751,799
-185,-92,93,138,-139,0,86,304,213,426,-750,799
-179,-91,88,135,-133,-1,91,306,208,432,-750,799
-186,-93,93,139,-139,0,94,306,213,441,-750,802
-198,-93,105,145,-151,6,96,309,226,450,-747,808
-203,-82,121,142,-162,19,97,326,240,461,-738,817
-210,-72,138,141,-174,33,97,344,247,467,-728,823
-232,-81,151,156,-191,35,96,345,242,465,-722,821
-255,-102,153,178,-204,25,93,333,227,455,-721,812
-257,-120,137,188,-197,8,84,321,211,442,-724,802
-242,-130,112,186,-177,-9,74,312,200,430,-733,795
-224,-129,95,176,-159,-17,70,310,201,424,-749,793
-201,-116,85,158,-143,-15,72,311,207,423,-764,794
-164,-89,75,126,-119,-7,76,313,211,424,-766,795
-137,-65,72,101,-104,3,78,312,209,424,-758,795
-147,-65,82,106,-114,8,75,305,205,419,-747,795
-175,-79,96,127,-135,8,69,294,197,411,-741,795
-186,-86,100,136,-143,7,62,285,184,400,-743,793
-181,-83,98,132,-139,7,58,282,175,394,-749,790
-177,-76,101,126,-139,12,59,285,180,401,-754,787
-182,-65,117,123,-149,26,66,290,196,415,-752,788
-196,-50,146,123,-171,48,76,296,213,430,-739,797
-208,-39,169,123,-188,65,85,301,223,438,-727,808
-205,-43,162,124,-183,59,90,303,218,437,-732,813
-192,-62,130,127,-161,34,88,302,203,430,-744,811
-182,-91,91,136,-136,0,80,297,188,423,-746,802
-175,-111,64,143,-119,-23,73,292,180,419,-738,795
-172,-101,71,136,-121,-15,75,292,184,419,-728,798
-173,-73,100,123,-136,13,81,299,197,423,-719,808
-182,-52,130,117,-156,39,83,311,209,427,-708,814
-190,-43,147,116,-168,52,85,321,217,432,-698,817
-183,-44,139,113,-161,47,94,319,221,440,-691,824
-175,-51,124,113,-149,36,101,309,220,447,-690,829
-183,-58,125,120,-154,33,95,299,212,446,-700,824
-200,-62,138,131,-169,38,83,292,204,440,-714,815
-211,-62,149,136,-180,43,79,291,206,433,-722,811
-214,-58,156,136,-185,49,81,295,213,429,-722,813
-211,-53,158,132,-184,52,83,304,214,431,-716,818
-205,-48,157,126,-181,54,82,311,210,434,-708,823
-196,-44,152,120,-174,54,80,307,205,429,-705,823
-183,-40,143,111,-163,51,78,294,200,420,-706,819
-166,-33,133,99,-149,50,78,282,197,413,-709,818
-156,-28,128,92,-142,50,78,273,195,409,-711,818
-163,-33,130,98,-146,48,73,271,194,407,-712,819
-185,-44,141,114,-163,48,65,272,194,405,-712,819
-207,-59,148,133,-177,44,54,273,195,402,-712,819
-222,-68,154,145,-188,43,48,273,195,400,-712,819
-224,-61,163,142,-193,51,50,272,193,399,-710,818
-216,-45,171,130,-193,63,57,272,190,399,-707,818
-205,-35,170,120,-187,67,58,273,187,400,-704,820
-193,-26,167,109,-180,70,58,273,185,400,-702,823
-176,-12,164,94,-170,76,59,272,185,399,-701,825
-168,-3,165,85,-166,81,62,272,185,399,-701,828
-182,-16,166,99,-174,75,63,273,183,400,-704,832
-199,-39,160,119,-179,60,63,273,180,400,-706,834
-190,-48,142,119,-166,47,61,268,179,396,-706,831
-168,-44,124,106,-146,40,62,263,179,390,-703,828
-160,-36,124,98,-142,44,67,262,180,387,-696,833
-164,-33,131,98,-147,49,72,263,180,385,-692,838
-165,-40,125,102,-145,42,70,258,177,380,-695,834
-164,-51,113,107,-138,31,64,250,171,371,-704,821
-168,-54,114,111,-141,30,60,240,164,362,-714,810
-177,-53,124,115,-150,35,58,234,157,353,-721,801
-189,-54,135,121,-162,40,55,233,150,343,-721,794
-192,-57,135,124,-163,39,49,234,142,333,-721,786
-171,-58,113,114,-142,27,42,231,133,322,-726,777
-148,-54,94,101,-121,20,38,228,130,316,-732,770
-151,-46,105,98,-128,29,45,233,140,322,-726,776
-174,-42,132,108,-153,45,59,245,160,337,-710,791
-194,-51,143,122,-168,46,75,258,180,356,-693,808
-203,-65,138,134,-170,36,86,267,193,369,-683,818
-201,-71,130,136,-165,29,84,263,193,364,-686,815
-195,-72,123,133,-159,25,75,251,182,349,-698,802
-194,-80,114,137,-154,17,65,237,170,335,-713,790
-198,-90,108,144,-153,9,58,229,161,330,-721,784
-203,-90,113,146,-158,11,56,230,162,336,-716,790
-202,-73,129,137,-165,28,60,237,168,348,-700,806
-187,-41,146,114,-166,52,73,244,175,360,-684,823
-171,-8,163,89,-167,77,85,247,179,369,-674,837
-170,4,174,83,-172,89,86,247,181,370,-672,840
-175,7,182,84,-178,94,79,247,183,369,-673,839
-167,17,184,75,-175,100,75,250,190,372,-668,839
-149,31,180,59,-164,105,74,253,195,375,-663,839
-133,38,171,47,-152,104,66,247,189,369,-666,833
-123,35,158,44,-140,96,58,236,177,358,-675,821
-121,23,144,49,-132,83,58,225,167,350,-684,811
-128,14,142,57,-135,78,65,222,164,350,-688,808
-141,20,161,60,-151,90,75,233,168,357,-682,819
-163,29,192,67,-177,110,85,246,177,371,-670,836
-199,20,219,89,-209,119,91,247,188,387,-658,845
-233,5,238,114,-235,121,92,240,194,399,-649,848
-245,5,250,120,-247,127,88,235,192,397,-648,850
-230,13,243,108,-236,128,83,234,186,390,-652,849
-194,10,204,92,-199,107,78,232,182,391,-654,844
-160,1,161,79,-160,81,70,229,180,391,-656,835
-153,-1,152,77,-152,75,54,226,176,376,-664,827
-157,2,159,77,-158,80,33,224,171,354,-675,816
-138,8,146,65,-142,77,16,222,167,341,-686,803
-110,13,123,48,-116,68,9,219,165,340,-691,794
-103,15,118,44,-110,66,11,216,164,345,-688,803
-110,18,128,46,-119,73,17,214,164,354,-679,820
-111,22,133,44,-122,77,20,212,165,361,-672,831
-110,24,134,43,-122,79,19,209,165,365,-668,834
-124,17,141,53,-132,79,18,205,161,365,-668,832
-139,9,148,65,-143,78,18,200,156,361,-672,829
-134,13,147,60,-140,80,19,199,154,357,-676,827
-112,26,138,43,-125,82,19,196,152,352,-681,824
-88,36,124,26,-106,80,18,186,144,346,-686,820
-70,45,115,12,-92,80,18,176,133,341,-691,818
-64,59,123,2,-93,91,19,174,125,341,-694,821
-73,64,137,4,-105,100,18,179,122,341,-696,824
-97,45,142,26,-119,93,19,181,121,337,-699,817
-122,11,133,55,-127,72,19,180,122,328,-705,803
-133,-16,117,74,-125,50,18,177,120,318,-714,788
-145,-38,107,91,-126,34,18,171,117,308,-725,777
-181,-60,121,120,-151,30,19,164,114,301,-732,768
-226,-79,147,152,-186,34,22,160,112,297,-735,765
-247,-86,161,166,-204,37,30,165,111,297,-736,769
-238,-87,151,162,-194,32,37,173,111,297,-735,774
-210,-87,123,148,-166,18,39,178,113,293,-736,773
-173,-84,89,128,-131,2,38,179,116,288,-736,767
-137,-69,68,103,-102,0,41,181,120,284,-733,762
-111,-47,64,79,-87,8,46,184,125,285,-728,760
-97,-28,69,62,-83,20,51,187,127,292,-722,763
-96,-19,77,57,-86,29,53,186,126,297,-720,762
-102,-22,80,62,-91,29,51,177,123,293,-729,750
-119,-32,87,75,-103,27,52,170,121,287,-739,736
-154,-38,116,96,-135,39,59,175,126,290,-739,740
-193,-45,148,119,-170,51,70,190,137,303,-729,757
-216,-59,157,137,-186,49,80,209,152,318,-718,770
-227,-75,152,151,-189,38,86,222,164,326,-712,775
-235,-82,153,158,-194,35,86,222,163,319,-714,769
-243,-85,158,164,-200,36,82,215,153,304,-720,758
-244,-93,151,168,-197,29,81,212,143,296,-724,750
-243,-101,142,172,-192,20,81,214,137,292,-726,746
-246,-102,144,174,-195,21,81,211,133,288,-729,743
-255,-101,154,178,-204,26,81,205,131,283,-731,741
-267,-107,160,187,-213,26,82,198,128,281,-732,739
-270,-112,158,191,-214,23,82,191,123,279,-734,737
-247,-104,143,175,-195,19,77,185,115,271,-741,730
-205,-89,116,147,-160,13,69,181,104,260,-753,719
-160,-83,77,121,-118,-3,63,176,94,251,-765,706
-132,-82,50,107,-91,-16,62,177,94,250,-771,697
-139,-76,63,107,-101,-6,68,195,113,267,-763,700
-168,-65,103,116,-135,19,82,225,150,298,-736,723
-193,-54,139,123,-166,42,102,262,201,337,-685,771
-204,-29,175,116,-189,73,119,292,252,383,-613,843
-197,29,226,84,-211,127,122,306,292,438,-526,938
-182,108,290,37,-236,199,110,310,326,505,-418,1057
-170,183,353,-6,-261,268,92,320,376,585,-278,1204
-139,275,414,-68,-276,344,75,353,463,692,-96,1389
-57,413,470,-178,-263,441,67,422,608,836,130,1622
56,575,519,-315,-231,547,60,492,758,979,352,1853
160,708,548,-434,-194,628,43,509,838,1060,499,2011
239,780,541,-509,-151,660,15,472,831,1054,532,2063
287,767,480,-527,-96,623,-13,401,752,952,436,1999
306,684,378,-495,-36,531,-32,329,636,797,248,1837
297,555,258,-426,19,406,-26,284,520,643,27,1607
234,392,158,-313,38,275,10,236,365,481,-239,1308
90,205,115,-147,-12,160,79,136,112,279,-584,936
-79,41,120,19,-99,80,151,1,-191,71,-939,571
-188,-43,145,115,-166,51,193,-119,-455,-87,-1200,321
-230,-84,146,157,-188,31,194,-202,-628,-197,-1362,183
-237,-157,80,197,-158,-38,163,-233,-691,-288,-1465,101
-227,-259,-32,243,-97,-145,117,-227,-685,-365,-1530,48
-211,-356,-145,283,-33,-250,76,-208,-680,-422,-1571,9
-203,-433,-230,318,13,-331,35,-185,-676,-464,-1592,-16
-212,-487,-275,349,31,-381,-21,-159,-647,-498,-1595,-18
-223,-511,-288,367,32,-399,-77,-122,-587,-510,-1575,4
-214,-500,-286,357,36,-393,-101,-67,-504,-475,-1522,56
-193,-457,-264,325,35,-360,-92,8,-401,-393,-1435,134
-185,-391,-206,288,10,-298,-62,102,-279,-281,-1316,235
-198,-321,-123,259,-37,-222,-23,192,-156,-161,-1185,342
-228,-269,-41,248,-93,-155,14,247,-57,-62,-1068,434
-255,-235,20,245,-137,-107,37,257,2,7,-981,504
-254,-209,45,231,-149,-82,34,225,12,48,-929,551
-234,-185,49,209,-141,-68,20,178,1,75,-899,583
-214,-163,51,188,-132,-56,20,151,6,104,-868,611
-204,-144,60,174,-132,-42,34,149,28,134,-836,634
-207,-132,75,169,-141,-28,54,160,50,159,-808,649
-213,-124,89,168,-151,-17,74,176,68,180,-788,660
-209,-113,96,161,-152,-8,86,189,87,200,-774,672
-194,-103,91,148,-142,-6,91,198,103,213,-763,685
-174,-99,75,136,-124,-12,90,206,114,210,-751,693
-161,-100,61,130,-111,-19,84,209,117,201,-742,696
-167,-106,61,136,-114,-22,73,202,114,198,-740,697
-182,-111,71,146,-126,-20,64,191,108,200,-741,697
-186,-112,74,149,-130,-19,63,187,103,197,-737,697
-187,-111,76,149,-131,-17,74,189,101,194,-729,700
-205,-114,91,159,-148,-11,92,191,104,201,-720,707
-229,-117,112,173,-170,-2,106,194,107,212,-716,715
-238,-112,126,175,-182,7,102,197,103,216,-723,719
-228,-100,128,164,-178,14,89,199,97,214,-734,721
-205,-86,119,145,-162,16,83,200,96,212,-738,723
-186,-78,108,132,-147,15,86,200,97,213,-736,726
-189,-81,108,135,-148,13,89,200,93,217,-734,729
-205,-93,112,149,-158,9,91,200,87,219,-732,731
-216,-107,109,161,-162,1,94,198,88,211,-730,732
-212,-113,99,162,-155,-7,96,195,91,201,-724,734
-191,-99,92,145,-141,-3,96,191,90,201,-711,741
-171,-73,98,122,-134,12,92,186,84,208,-698,749
-177,-52,125,114,-151,36,88,180,73,208,-696,752
-196,-46,150,121,-173,52,83,175,64,201,-701,751
-202,-59,143,130,-172,42,76,173,62,193,-702,749
-196,-82,114,139,-155,16,69,174,67,186,-701,746
-193,-96,97,144,-145,0,63,176,70,181,-705,742
-194,-98,96,146,-145,-1,62,179,72,179,-711,740
-196,-88,108,142,-152,10,69,183,76,181,-710,744
-195,-71,124,133,-159,26,80,189,81,184,-707,750
-190,-58,132,124,-161,37,84,191,82,186,-709,750
-181,-52,129,116,-155,38,82,190,82,185,-712,746
-174,-57,117,115,-145,30,80,188,82,181,-707,743
-164,-66,98,115,-131,16,81,185,82,175,-698,741
-146,-68,78,107,-112,5,85,183,80,173,-696,738
-138,-63,75,100,-106,6,90,183,80,174,-697,739
-163,-62,101,112,-132,19,96,191,89,176,-693,748
-208,-66,142,137,-175,38,101,202,100,179,-685,762
-243,-77,166,160,-204,44,104,207,103,180,-676,773
-267,-96,171,181,-219,37,103,208,102,180,-672,775
-292,-121,171,206,-231,25,95,210,102,177,-676,768
-319,-139,180,229,-249,20,87,213,105,175,-682,761
-342,-133,209,237,-275,38,88,216,111,175,-683,765
-339,-105,234,222,-286,64,94,222,122,178,-679,777
-284,-69,215,176,-249,73,103,230,139,183,-672,783
-212,-39,173,125,-192,67,110,241,157,188,-664,784
-178,-24,154,101,-166,65,116,251,167,192,-656,787
-168,-20,148,94,-158,64,121,257,170,194,-650,790
-143,-11,132,77,-137,60,123,254,168,194,-646,787
-105,4,109,50,-107,56,122,246,165,194,-644,781
-79,22,101,28,-90,61,120,238,163,197,-642,776
-75,30,105,22,-90,67,117,234,161,200,-642,772
-92,13,105,39,-98,59,114,233,157,197,-650,766
-119,-13,106,66,-112,46,112,233,152,191,-661,761
-144,-26,118,85,-131,46,110,235,147,188,-665,759
-159,-28,131,93,-145,51,111,238,145,189,-663,760
-160,-33,127,96,-143,47,116,240,150,191,-660,762
-152,-41,111,96,-131,35,124,243,161,193,-652,765
-147,-43,104,95,-125,30,131,247,177,199,-635,769
-149,-42,107,95,-128,32,135,251,192,207,-617,773
-159,-48,111,103,-135,31,135,255,197,212,-608,778
-169,-57,112,113,-140,27,132,257,195,214,-605,783
-166,-56,110,111,-138,27,127,259,193,213,-600,788
-157,-49,108,103,-132,29,125,261,194,213,-595,793
-155,-44,111,99,-133,33,128,266,200,218,-598,797
-162,-46,116,104,-139,35,131,268,207,223,-607,796
-174,-54,120,114,-147,33,127,261,211,220,-614,787
-193,-62,131,127,-162,34,122,256,216,214,-614,779
-221,-60,161,140,-191,50,125,272,230,219,-609,788
-248,-50,198,149,-223,74,137,303,252,238,-598,808
-258,-41,217,149,-237,88,151,333,273,262,-583,828
-249,-32,217,140,-233,92,162,353,289,283,-565,842
-221,-16,205,118,-213,94,168,359,295,291,-547,845
-184,0,184,92,-184,92,169,356,296,288,-533,843
-148,12,160,68,-154,86,169,355,300,281,-528,847
-127,18,145,54,-136,81,169,359,309,277,-530,852
-132,20,152,56,-142,86,170,366,319,283,-529,854
-148,23,171,62,-159,97,170,374,328,294,-524,854
-150,27,177,61,-163,102,168,375,338,300,-514,854
-139,33,172,53,-155,102,166,374,348,301,-507,857
-129,34,163,47,-146,98,161,379,358,304,-509,859
-132,27,159,52,-145,93,156,387,368,310,-512,862
-154,9,163,72,-158,86,156,395,374,316,-503,867
-177,-4,173,90,-175,84,162,402,381,323,-486,875
-173,8,181,82,-177,94,176,413,398,335,-474,887
-150,40,190,55,-170,115,195,429,419,351,-465,902
-137,66,203,35,-170,134,211,447,435,366,-455,920
-132,80,212,26,-172,146,219,461,443,374,-445,934
-124,82,206,21,-165,144,214,461,444,371,-441,936
-114,81,195,16,-154,138,202,450,444,362,-440,932
-107,87,194,10,-150,140,194,440,444,359,-433,931
-106,96,202,5,-154,149,190,434,447,360,-424,934
-111,94,205,8,-158,149,187,435,449,360,-424,939
-116,94,210,11,-163,152,185,442,452,360,-425,944
-115,113,228,1,-171,170,183,449,455,365,-415,952
-115,137,252,-11,-183,194,181,453,457,369,-398,959
-128,139,267,-5,-197,203,174,449,458,365,-388,962
-147,121,268,13,-207,194,166,440,458,354,-388,961
-153,105,258,24,-205,181,160,435,456,341,-397,961
-145,97,242,24,-193,169,156,430,450,332,-410,961
-126,100,226,13,-176,163,154,420,437,327,-422,955
-99,109,208,-5,-153,158,151,410,422,326,-432,947
-68,118,186,-25,-127,152,149,409,413,324,-437,945
-42,124,166,-41,-104,145,146,407,409,319,-435,946
-36,127,163,-45,-99,145,144,388,404,308,-425,941
-45,126,171,-40,-108,148,138,354,390,292,-417,930
-53,122,175,-34,-114,148,125,323,363,271,-430,915
-57,117,174,-30,-115,145,113,304,335,254,-453,903
-59,114,173,-27,-116,143,113,301,324,253,-463,903
-71,112,183,-20,-127,147,123,309,328,264,-456,913
-104,108,212,-2,-158,160,133,318,337,277,-440,925
-140,103,243,18,-191,173,140,322,338,283,-429,932
-149,98,247,25,-198,172,140,317,323,277,-435,926
-138,96,234,21,-186,165,140,308,301,265,-453,914
-131,100,231,15,-181,165,146,304,289,256,-468,907
-130,106,236,12,-183,171,152,296,278,247,-477,903
-130,104,234,13,-182,169,140,272,248,230,-479,893
-130,88,218,21,-174,153,117,240,211,209,-481,877
-133,57,190,38,-161,123,98,219,190,189,-491,862
-139,25,164,57,-151,94,91,210,182,176,-507,851
-146,10,156,68,-151,83,98,205,171,173,-521,843
-153,18,171,67,-162,94,113,201,158,175,-527,839
-161,43,204,59,-182,123,124,195,150,172,-522,837
-168,62,230,53,-199,146,124,184,143,160,-519,832
-173,49,222,62,-197,135,108,163,131,139,-536,815
-181,13,194,84,-187,103,86,140,115,116,-563,794
-199,-17,182,108,-190,82,72,130,103,103,-582,783
-211,-32,179,121,-195,73,68,130,94,98,-592,777
-187,-30,157,108,-172,63,68,131,84,91,-601,764
-142,-17,125,79,-133,54,68,131,71,81,-608,745
-107,-4,103,55,-105,49,66,130,55,68,-611,730
-95,0,95,47,-95,47,66,130,43,58,-616,722
-109,-6,103,57,-106,48,75,131,48,61,-630,723
-137,-17,120,77,-128,51,95,134,66,76,-640,732
-168,-18,150,93,-159,66,123,143,89,98,-624,747
-196,-17,179,106,-187,81,144,154,102,115,-596,760
-223,-31,192,127,-207,80,137,158,90,113,-580,756
-244,-59,185,151,-214,63,109,150,60,97,-585,740
-253,-91,162,172,-207,35,83,129,34,77,-606,722
-250,-111,139,180,-194,14,69,105,19,61,-629,709
-240,-102,138,171,-189,18,69,97,22,52,-641,705
-227,-78,149,152,-188,35,76,101,32,48,-643,706
-215,-62,153,138,-184,45,78,102,36,46,-645,706
-203,-58,145,130,-174,43,77,101,34,43,-648,703
-188,-56,132,122,-160,38,80,104,33,39,-650,699
-170,-54,116,112,-143,31,86,110,34,35,-650,697
-150,-49,101,99,-125,26,87,115,32,31,-642,697
-130,-43,87,86,-108,22,87,113,29,29,-634,697
-114,-41,73,77,-93,16,87,102,29,28,-635,692
-109,-39,70,74,-89,15,90,92,29,28,-642,684
-127,-36,91,81,-109,27,96,97,25,29,-645,682
-157,-36,121,96,-139,42,101,110,19,29,-644,683
-182,-51,131,116,-156,40,103,110,18,27,-644,680
-191,-69,122,130,-156,26,102,100,19,24,-644,674
-179,-75,104,127,-141,14,101,88,14,22,-641,671
-165,-69,96,117,-130,13,101,82,9,20,-639,672
-174,-63,111,118,-142,24,104,84,12,14,-640,676
-192,-52,140,122,-166,44,110,91,24,9,-640,681
-190,-31,159,110,-174,64,116,92,40,11,-631,686
-176,-14,162,95,-169,74,121,91,48,17,-620,688
-178,-24,154,101,-166,65,120,97,37,21,-621,684
-200,-54,146,127,-173,46,114,105,14,19,-634,675
-233,-81,152,157,-192,35,105,107,-1,15,-651,666
-259,-95,164,177,-211,34,101,106,-5,13,-662,659
-263,-95,168,179,-215,36,107,110,2,18,-658,657
-254,-88,166,171,-210,39,115,116,12,24,-646,658
-250,-84,166,167,-208,41,115,114,13,18,-641,656
-244,-80,164,162,-204,42,108,108,9,6,-643,653
-213,-66,147,139,-180,40,104,106,12,2,-644,652
-155,-44,111,99,-133,33,102,107,21,4,-643,652
-76,-25,51,50,-63,13,100,104,29,0,-645,652
-18,-11,7,14,-12,-2,100,104,33,-4,-645,652
-32,-4,28,18,-30,12,108,119,34,0,-635,655
-103,-9,94,56,-98,42,119,137,37,11,-618,661
-182,-31,151,106,-166,60,125,142,45,19,-604,668
-233,-58,175,145,-204,58,126,137,52,20,-599,672
-233,-67,166,150,-199,49,125,135,48,13,-606,671
-203,-60,143,131,-173,41,125,136,36,2,-620,665
-180,-50,130,115,-155,40,126,132,28,-5,-629,656
-171,-43,128,107,-149,42,126,127,24,-8,-630,650
-166,-45,121,105,-143,38,122,124,23,-8,-623,647
-170,-57,113,113,-141,28,117,125,24,-8,-618,648
-194,-78,116,136,-155,19,117,125,23,-10,-625,648
-217,-92,125,154,-171,16,120,125,23,-13,-636,648
-209,-80,129,144,-169,24,124,127,26,-13,-639,650
-187,-56,131,121,-159,37,125,130,32,-10,-632,655
-189,-52,137,120,-163,42,126,132,39,-6,-619,664
-206,-61,145,133,-175,42,126,134,46,-4,-607,672
-207,-61,146,134,-176,42,125,139,51,-3,-602,672
-190,-50,140,120,-165,45,122,144,56,-4,-603,665
-170,-41,129,105,-149,44,119,147,62,-3,-608,656
-162,-38,124,100,-143,43,117,146,67,-3,-607,652
-182,-42,140,112,-161,49,118,143,66,-8,-594,657
-216,-47,169,131,-192,61,121,137,60,-16,-580,666
-236,-47,189,141,-212,71,122,131,51,-23,-585,669
-237,-43,194,140,-215,75,118,126,44,-28,-598,665
-220,-43,177,131,-198,67,110,124,41,-29,-598,656
-192,-43,149,117,-170,53,102,125,42,-29,-587,649
-164,-37,127,100,-145,45,103,128,45,-27,-580,651
-140,-27,113,83,-126,43,110,134,50,-24,-579,660
-126,-16,110,71,-118,47,114,140,59,-20,-580,668
-115,-6,109,60,-112,51,116,145,67,-15,-580,672
-100,4,104,48,-102,54,118,146,67,-9,-577,674
-91,13,104,39,-97,58,120,146,63,-4,-571,677
-102,12,114,45,-108,63,125,146,64,-2,-563,681
-131,5,136,63,-133,70,133,149,70,0,-554,689
-165,1,166,82,-165,83,143,155,78,3,-542,700
-190,0,190,95,-190,95,150,160,85,8,-532,710
-198,-3,195,100,-196,96,147,161,90,8,-528,712
-195,-11,184,103,-189,86,138,160,95,4,-527,708
-197,-21,176,109,-186,77,131,162,102,3,-525,705
-197,-28,169,112,-183,70,127,165,107,1,-525,703
-177,-25,152,101,-164,63,119,162,100,-7,-532,695
-133,-12,121,72,-127,54,106,153,83,-23,-546,682
-71,0,71,35,-71,35,89,143,62,-42,-563,665
-36,8,44,14,-40,26,78,136,49,-56,-574,653
-77,4,81,36,-79,42,84,137,52,-55,-568,657
-157,-6,151,81,-154,72,99,144,65,-45,-550,669
-199,-13,186,106,-192,86,104,148,71,-38,-538,677
-209,-17,192,113,-200,87,102,150,72,-34,-532,681
-235,-23,212,129,-223,94,104,153,75,-31,-527,689
-259,-28,231,143,-245,101,107,156,80,-28,-522,696
-232,-27,205,129,-218,89,99,153,83,-31,-522,694
-176,-17,159,96,-167,71,85,147,82,-37,-525,685
-149,-2,147,75,-148,72,76,143,79,-44,-529,678
-144,11,155,66,-149,83,73,141,74,-51,-534,674
-123,16,139,53,-131,77,69,139,68,-57,-540,669
-98,15,113,41,-105,64,63,136,63,-61,-545,663
-107,11,118,48,-112,64,63,135,64,-65,-544,661
-147,5,152,71,-149,78,67,135,70,-67,-538,662
-193,-2,191,97,-192,94,69,136,77,-69,-530,663
-219,-11,208,115,-213,98,68,136,81,-72,-526,663
-201,-18,183,109,-192,82,66,132,79,-75,-529,661
-160,-20,140,90,-150,60,63,127,74,-80,-534,658
-135,-13,122,74,-128,54,61,123,70,-85,-536,655
-133,-11,122,72,-127,55,58,122,68,-87,-535,653
-144,-29,115,86,-129,43,56,121,67,-84,-538,652
-160,-56,104,108,-132,24,53,121,68,-81,-544,650
-177,-72,105,124,-141,16,50,121,67,-86,-551,645
-191,-73,118,132,-154,22,48,121,64,-95,-555,639
-201,-71,130,136,-165,29,48,122,58,-98,-554,638
-207,-71,136,139,-171,32,48,122,53,-97,-548,638
-213,-77,136,145,-174,29,43,120,54,-96,-540,638
-212,-76,136,144,-174,30,38,121,60,-97,-533,638
-194,-54,140,124,-167,43,44,126,68,-95,-525,642
-172,-21,151,96,-161,65,59,137,76,-89,-518,650
-171,-3,168,87,-169,82,70,150,81,-80,-513,660
-179,2,181,88,-180,91,77,159,85,-70,-508,670
-171,12,183,79,-177,97,78,159,91,-63,-503,678
-144,31,175,56,-159,103,74,149,96,-62,-498,682
-115,58,173,28,-144,115,67,135,96,-67,-495,682
-103,79,182,12,-142,130,62,126,96,-72,-493,682
-130,80,210,25,-170,145,69,131,101,-69,-487,686
-175,69,244,53,-209,156,83,149,109,-59,-479,694
-197,69,266,64,-231,167,90,171,115,-56,-474,704
-190,79,269,55,-229,174,88,184,116,-57,-473,711
-165,86,251,39,-208,168,82,179,117,-57,-472,709
-140,93,233,23,-186,163,74,164,117,-57,-472,703
-132,107,239,12,-185,173,68,156,113,-61,-474,701
-132,117,249,7,-190,183,64,156,108,-67,-477,702
-120,104,224,8,-172,164,60,153,104,-66,-479,696
-100,79,179,10,-139,129,55,147,102,-66,-482,685
-94,64,158,15,-126,111,46,141,98,-77,-485,679
-100,59,159,20,-129,109,36,137,93,-93,-487,678
-104,50,154,27,-129,102,30,133,89,-100,-486,676
-117,34,151,41,-134,92,28,131,87,-98,-480,676
-155,14,169,70,-162,91,30,129,85,-94,-471,683
-192,-1,191,96,-191,95,30,124,83,-95,-467,688
-180,-2,178,91,-179,88,21,113,77,-104,-474,679
-135,3,138,66,-136,70,4,97,66,-120,-491,659
-97,1,98,48,-97,49,-10,78,52,-139,-510,638
-80,-1,79,40,-79,39,-18,64,40,-154,-525,625
-74,12,86,31,-80,49,-17,65,39,-155,-526,626
-70,40,110,15,-90,75,-10,75,46,-148,-519,636
-57,63,120,-3,-88,91,-5,80,50,-142,-512,644
-47,76,123,-14,-85,99,-1,80,51,-137,-504,654
-60,79,139,-9,-99,109,6,88,57,-129,-492,671
-101,75,176,13,-138,125,19,102,68,-116,-474,695
-160,65,225,47,-192,145,35,118,83,-100,-451,717
-210,52,262,79,-236,157,47,129,95,-91,-435,727
-222,36,258,93,-240,147,42,129,95,-100,-439,716
-207,16,223,95,-215,119,24,117,85,-123,-460,688
-201,-11,190,106,-195,89,5,98,74,-148,-483,652
-195,-32,163,113,-179,65,-7,83,64,-167,-499,623
-164,-25,139,94,-151,57,-7,84,59,-172,-503,614
-121,-4,117,62,-119,56,-1,94,54,-170,-501,618
-100,1,101,49,-100,51,0,98,47,-172,-505,617
-106,-10,96,58,-101,43,0,97,42,-178,-511,611
-129,-20,109,74,-119,44,4,98,47,-182,-509,608
-155,-24,131,89,-143,53,15,104,59,-181,-500,611
-167,-20,147,93,-157,63,26,112,70,-175,-488,620
-166,-17,149,91,-157,66,33,117,77,-170,-482,625
-162,-26,136,94,-149,55,31,112,77,-172,-490,613
-163,-40,123,101,-143,41,25,103,73,-178,-504,593
-171,-44,127,107,-149,41,21,103,72,-180,-506,586
-176,-42,134,109,-155,46,19,110,73,-179,-499,589
-164,-46,118,105,-141,36,15,113,69,-182,-493,588
-142,-55,87,98,-114,16,7,106,61,-190,-494,578
-125,-61,64,93,-94,1,-4,88,49,-207,-504,564
-123,-65,58,94,-90,-3,-12,70,40,-221,-515,552
-138,-76,62,107,-100,-7,-13,68,40,-222,-516,553
-168,-89,79,128,-123,-5,-6,82,49,-212,-509,565
-210,-94,116,152,-163,11,1,98,62,-201,-500,580
-243,-89,154,166,-198,32,7,110,71,-195,-493,589
-244,-79,165,161,-204,43,11,111,72,-196,-491,587
-215,-64,151,139,-183,43,13,104,65,-201,-492,577
-175,-42,133,108,-154,45,16,97,58,-209,-490,570
-144,-31,113,87,-128,41,21,93,53,-216,-490,563
-143,-54,89,98,-116,17,31,89,52,-223,-500,552
-163,-93,70,128,-116,-11,41,90,55,-225,-514,542
-184,-108,76,146,-130,-16,44,98,67,-215,-515,543
-197,-94,103,145,-150,4,46,115,88,-196,-497,558
-201,-67,134,134,-167,33,56,139,119,-174,-460,587
-191,-28,163,109,-177,67,73,160,149,-152,-413,625
-164,28,192,68,-178,110,84,169,167,-128,-366,675
-130,96,226,17,-178,161,82,169,182,-86,-295,758
-105,164,269,-29,-187,216,62,174,217,-8,-159,906
-85,234,319,-74,-202,276,35,196,287,103,30,1107
-54,321,375,-133,-214,348,18,248,400,234,238,1324
-2,436,438,-217,-220,437,7,311,536,367,446,1541
79,587,508,-333,-214,547,-8,348,656,483,644,1750
179,741,562,-460,-191,651,-31,348,731,553,792,1917
273,845,572,-559,-149,708,-57,313,735,548,837,1994
337,860,523,-598,-93,691,-69,268,680,472,759,1939
343,764,421,-553,-39,592,-49,244,596,347,560,1725
280,586,306,-433,-13,446,0,228,476,188,271,1389
149,388,239,-268,-45,313,65,182,294,6,-61,1010
-3,221,224,-109,-113,222,132,102,61,-174,-386,659
-113,127,240,-7,-176,183,189,0,-192,-325,-648,398
-172,75,247,48,-209,161,230,-92,-407,-442,-837,225
-208,0,208,104,-208,104,252,-139,-516,-537,-972,101
-224,-113,111,168,-167,-1,244,-152,-548,-628,-1074,3
-214,-242,-28,228,-93,-135,192,-169,-582,-733,-1165,-85
-197,-369,-172,283,-12,-270,109,-198,-633,-848,-1253,-167
-199,-476,-277,337,39,-376,20,-233,-678,-956,-1330,-237
-212,-536,-324,374,56,-430,-49,-245,-687,-1017,-1365,-270
-207,-525,-318,366,55,-421,-79,-200,-631,-989,-1319,-236
-183,-461,-278,322,47,-369,-79,-108,-526,-898,-1212,-147
-157,-388,-231,272,37,-309,-76,-9,-411,-804,-1094,-44
-138,-326,-188,232,25,-257,-74,69,-306,-724,-983,54
-133,-284,-151,208,9,-217,-66,111,-219,-649,-876,141
-132,-253,-121,192,-5,-187,-58,119,-158,-576,-777,214
-122,-219,-97,170,-12,-158,-60,108,-129,-511,-696,275
-114,-187,-73,150,-20,-130,-64,91,-116,-454,-631,327
-134,-169,-35,151,-49,-102,-53,79,-94,-406,-575,370
-181,-167,14,174,-97,-76,-30,73,-62,-366,-525,405
-244,-177,67,210,-155,-55,-10,73,-35,-334,-484,429
-288,-183,105,235,-196,-39,5,78,-15,-305,-451,447
-275,-161,114,218,-194,-23,16,91,5,-275,-428,468
-210,-120,90,165,-150,-15,22,107,24,-249,-410,490
-125,-79,46,102,-85,-16,25,119,35,-238,-392,508
-67,-55,12,61,-39,-21,24,122,38,-238,-375,519
-80,-56,24,68,-52,-16,23,118,40,-239,-358,525
-142,-73,69,107,-105,-2,23,112,42,-238,-341,529
-194,-83,111,138,-152,14,25,112,44,-240,-322,534
-217,-83,134,150,-175,25,30,116,46,-240,-302,539
-215,-76,139,145,-177,31,43,117,51,-231,-284,544
-197,-66,131,131,-164,32,55,117,56,-217,-267,549
-171,-55,116,113,-143,30,58,117,60,-209,-254,553
-143,-48,95,95,-119,23,51,114,59,-211,-247,552
-120,-51,69,85,-94,9,40,101,49,-220,-252,544
-107,-63,44,85,-75,-9,28,83,30,-231,-264,531
-110,-77,33,93,-71,-22,14,68,8,-238,-274,517
-125,-89,36,107,-80,-26,4,62,-7,-243,-275,507
-143,-95,48,119,-95,-23,6,66,-3,-245,-261,509
-152,-94,58,123,-105,-18,15,75,13,-242,-236,522
-140,-83,57,111,-98,-13,25,82,28,-226,-212,538
-128,-70,58,99,-93,-6,32,86,34,-204,-197,553
-150,-64,86,107,-118,11,35,87,30,-194,-195,558
-196,-66,130,131,-163,32,34,87,24,-194,-199,556
-228,-72,156,150,-192,42,30,86,25,-197,-195,555
-236,-77,159,156,-197,41,25,86,31,-199,-186,556
-222,-77,145,149,-183,34,21,87,37,-200,-184,555
-205,-76,129,140,-167,26,22,90,41,-200,-186,554
-209,-83,126,146,-167,21,30,95,47,-198,-177,560
-225,-94,131,159,-178,18,41,100,52,-195,-166,568
-227,-99,128,163,-177,14,43,103,52,-193,-168,570
-209,-98,111,153,-160,6,37,102,49,-194,-181,567
-176,-93,83,134,-129,-5,26,100,45,-198,-190,562
-140,-85,55,112,-97,-15,16,98,43,-203,-191,557
-115,-73,42,94,-78,-15,11,93,41,-203,-184,554
-106,-61,45,83,-75,-8,12,91,41,-201,-173,554
-112,-51,61,81,-86,5,16,96,48,-198,-162,560
-123,-42,81,82,-102,19,22,104,59,-195,-153,567
-126,-30,96,78,-111,33,28,110,68,-193,-145,573
-125,-19,106,72,-115,43,33,111,72,-190,-137,572
-132,-22,110,77,-121,44,33,112,74,-188,-132,562
-152,-34,118,93,-135,42,30,112,70,-189,-130,552
-181,-47,134,114,-157,43,27,111,57,-193,-134,552
-208,-56,152,132,-180,48,25,111,42,-198,-139,559
-220,-59,161,139,-190,51,20,112,36,-201,-141,562
-220,-58,162,139,-191,52,15,112,40,-200,-137,561
-215,-57,158,136,-186,50,12,110,47,-199,-130,559
-199,-57,142,128,-170,42,13,108,51,-199,-123,557
-159,-59,100,109,-129,20,14,104,54,-201,-119,552
-118,-65,53,91,-85,-6,14,102,57,-203,-117,547
-115,-77,38,96,-76,-19,12,102,59,-203,-114,545
-140,-95,45,117,-92,-25,10,106,62,-200,-111,546
-148,-116,32,132,-90,-42,6,108,63,-199,-114,545
-131,-122,9,126,-70,-56,4,110,63,-197,-117,544
-96,-90,6,93,-51,-42,4,115,62,-187,-111,551
-58,-34,24,46,-41,-5,10,120,62,-173,-96,562
-31,6,37,12,-34,21,23,124,66,-163,-82,572
-25,23,48,1,-36,35,36,129,74,-157,-68,578
-46,18,64,14,-55,41,39,136,86,-154,-48,581
-87,-1,86,44,-86,42,32,143,95,-155,-31,580
-130,-26,104,78,-117,39,21,148,95,-158,-30,576
-152,-42,110,97,-131,34,11,150,88,-163,-40,571
-131,-33,98,82,-114,32,4,151,84,-167,-45,568
-80,-8,72,44,-76,32,0,154,85,-166,-41,568
-30,13,43,8,-36,28,0,161,90,-157,-32,574
-7,20,27,-6,-17,23,2,168,99,-144,-21,582
-28,10,38,9,-33,24,7,169,108,-137,-14,589
-85,-8,77,46,-81,34,12,168,121,-136,-10,596
-154,-23,131,88,-142,54,17,177,137,-133,-4,609
-206,-32,174,119,-190,71,22,191,153,-125,5,621
-212,-35,177,123,-194,71,25,199,157,-112,18,623
-184,-31,153,107,-168,61,27,199,155,-96,34,616
-159,-19,140,89,-149,60,32,200,159,-84,49,609
-142,-4,138,73,-140,67,34,203,167,-80,60,608
-118,6,124,56,-121,65,29,205,174,-89,64,615
-90,12,102,39,-96,57,20,207,179,-100,63,626
-68,17,85,25,-76,51,17,212,181,-99,62,632
-60,22,82,19,-71,52,24,220,189,-84,68,637
-74,26,100,24,-87,63,41,234,212,-62,87,645
-102,31,133,35,-117,82,59,252,244,-40,111,655
-130,40,170,45,-150,105,64,268,266,-22,123,662
-148,50,198,49,-173,124,59,280,276,-11,128,666
-150,56,206,47,-178,131,55,287,279,-4,140,672
-134,63,197,35,-165,130,56,293,283,1,159,680
-101,81,182,10,-141,131,62,305,299,10,175,688
-66,102,168,-18,-117,135,71,318,321,21,183,695
-48,109,157,-30,-102,133,75,325,330,27,184,700
-44,100,144,-28,-94,122,74,323,327,29,181,702
-35,88,123,-26,-79,105,69,316,324,27,177,700
-19,81,100,-31,-59,90,63,308,325,24,175,697
-2,86,88,-42,-45,87,62,305,326,23,173,696
13,96,83,-54,-35,89,63,306,324,21,168,693
30,94,64,-62,-17,79,60,306,315,10,156,686
45,92,47,-68,-1,69,57,306,307,0,151,681
49,116,67,-82,-9,91,61,311,311,8,176,692
40,152,112,-96,-36,132,70,319,325,31,217,715
15,169,154,-92,-69,161,77,324,340,50,244,733
-15,167,182,-76,-98,174,79,322,349,57,249,743
-35,160,195,-62,-115,177,72,319,351,55,240,749
-47,156,203,-54,-125,179,61,314,344,49,227,751
-67,155,222,-44,-144,188,52,305,331,45,221,748
-82,156,238,-37,-160,197,48,297,316,43,220,742
-68,155,223,-43,-145,189,46,297,305,40,213,739
-28,155,183,-63,-105,169,44,299,301,35,204,740
13,158,145,-85,-66,151,40,287,303,30,207,740
43,164,121,-103,-39,142,32,265,300,22,213,737
49,164,115,-106,-33,139,19,245,283,9,208,730
41,162,121,-101,-40,141,6,232,256,-4,190,720
35,158,123,-96,-44,140,1,223,233,-15,174,711
26,153,127,-89,-50,140,3,219,220,-18,165,707
-3,141,144,-69,-73,142,4,219,220,-18,165,708
-45,120,165,-37,-105,142,1,216,221,-17,166,708
-76,91,167,-7,-121,129,-5,204,207,-24,157,700
-87,66,153,10,-120,109,-12,185,182,-35,141,686
-80,65,145,7,-112,105,-13,171,163,-45,127,677
-60,84,144,-12,-102,114,-12,160,147,-54,118,671
-37,107,144,-35,-90,125,-19,143,122,-66,114,658
-17,123,140,-53,-78,131,-31,125,93,-79,112,643
-10,124,134,-57,-72,129,-35,120,81,-84,108,633
-12,114,126,-51,-69,120,-31,127,84,-81,103,632
-16,108,124,-46,-70,116,-22,137,90,-69,99,638
-24,104,128,-40,-76,116,-15,141,92,-58,100,643
-42,93,135,-25,-88,114,-13,135,88,-62,106,640
-63,72,135,-4,-99,103,-20,119,75,-79,109,625
-72,40,112,16,-92,76,-33,96,48,-102,95,602
-72,9,81,31,-76,45,-45,76,20,-122,70,579
-74,1,75,36,-74,38,-48,72,8,-128,51,571
-75,10,85,32,-80,47,-41,79,11,-126,41,570
-64,19,83,22,-73,51,-33,84,18,-127,35,564
-47,23,70,12,-58,46,-29,82,20,-133,33,550
-37,24,61,6,-49,42,-30,80,13,-139,35,538
-35,21,56,7,-45,38,-37,75,0,-144,32,530
-30,11,41,9,-35,26,-42,65,-12,-149,16,519
-24,1,25,11,-24,13,-43,51,-21,-154,-1,509
-26,0,26,13,-26,13,-40,42,-27,-158,0,505
-35,3,38,16,-36,20,-40,39,-32,-163,15,506
-45,0,45,22,-45,22,-52,39,-37,-168,19,505
-52,-10,42,31,-47,16,-69,40,-45,-173,8,499
-50,-20,30,35,-40,5,-75,34,-54,-175,-3,491
-47,-21,26,34,-36,2,-70,29,-61,-175,-9,484
-53,-8,45,30,-49,18,-62,33,-63,-174,-3,482
-62,6,68,28,-65,37,-57,41,-63,-174,7,483
-57,5,62,26,-59,33,-61,41,-63,-176,8,481
-37,-8,29,22,-33,10,-67,32,-66,-179,0,475
-13,-21,-8,17,-2,-14,-66,24,-69,-180,-10,468
0,-27,-27,13,13,-27,-59,22,-72,-180,-14,463
-8,-30,-22,19,7,-26,-56,28,-75,-178,-10,463
-26,-33,-7,29,-9,-20,-57,34,-77,-175,-4,463
-25,-36,-11,30,-7,-23,-58,28,-77,-174,-7,458
-14,-39,-25,26,5,-32,-58,16,-77,-174,-16,449
-22,-37,-15,29,-3,-26,-56,14,-81,-174,-21,446
-54,-36,18,45,-36,-9,-53,21,-86,-174,-19,448
-96,-48,48,72,-72,0,-51,26,-85,-176,-18,446
-122,-62,60,92,-91,-1,-52,24,-79,-179,-18,440
-103,-55,48,79,-75,-3,-55,22,-77,-181,-20,436
-56,-34,22,45,-39,-6,-60,19,-80,-183,-26,434
-26,-22,4,24,-15,-9,-67,18,-85,-188,-35,433
-19,-22,-3,20,-8,-12,-71,15,-91,-193,-43,430
-19,-28,-9,23,-5,-18,-73,8,-92,-197,-37,422
-21,-38,-17,29,-2,-27,-73,0,-94,-201,-25,409
-30,-54,-24,42,-3,-39,-72,1,-104,-210,-25,395
-43,-73,-30,58,-6,-51,-72,7,-118,-218,-37,385
-56,-83,-27,69,-14,-55,-74,9,-126,-216,-53,387
-65,-86,-21,75,-22,-53,-74,8,-125,-205,-62,396
-69,-88,-19,78,-25,-53,-68,11,-112,-187,-57,406
-68,-88,-20,78,-24,-54,-59,17,-96,-172,-42,412
-65,-81,-16,73,-24,-48,-57,20,-87,-170,-34,415
-63,-68,-5,65,-29,-36,-58,22,-86,-175,-34,417
-63,-52,11,57,-37,-20,-55,30,-87,-170,-32,422
-61,-40,21,50,-41,-9,-52,38,-86,-161,-29,428
-45,-38,7,41,-26,-15,-57,33,-87,-166,-28,427
-20,-39,-19,29,0,-29,-66,21,-90,-181,-29,421
-5,-33,-28,19,11,-30,-68,19,-95,-186,-28,414
-2,-24,-22,13,10,-23,-64,23,-100,-182,-28,410
-7,-27,-20,17,6,-23,-60,19,-103,-176,-32,407
-13,-36,-23,24,5,-29,-58,10,-106,-174,-40,408
-13,-39,-26,26,6,-32,-58,11,-109,-175,-46,410
-15,-35,-20,25,2,-27,-58,20,-112,-176,-45,413
-32,-33,-1,32,-15,-17,-54,27,-109,-170,-33,414
-54,-34,20,44,-37,-7,-49,29,-104,-159,-15,414
-55,-30,25,42,-40,-2,-48,28,-98,-150,1,413
-39,-24,15,31,-27,-4,-51,28,-93,-146,6,413
-25,-25,0,25,-12,-12,-54,31,-88,-147,-6,414
-14,-26,-12,20,-1,-19,-53,36,-83,-150,-28,414
5,-15,-20,5,12,-17,-50,43,-81,-151,-39,413
25,0,-25,-12,25,-12,-48,48,-81,-150,-36,413
28,4,-24,-16,26,-10,-48,44,-81,-153,-27,415
25,0,-25,-12,25,-12,-51,36,-81,-158,-20,418
45,5,-40,-25,42,-17,-54,30,-83,-164,-19,420
71,14,-57,-42,64,-21,-57,29,-86,-169,-26,420
58,3,-55,-30,56,-26,-60,29,-87,-170,-34,414
1,-26,-27,12,14,-26,-62,29,-87,-169,-39,406
-75,-61,14,68,-44,-23,-62,28,-86,-171,-34,403
-134,-85,49,109,-91,-18,-59,28,-86,-174,-25,406
-129,-80,49,104,-89,-15,-55,32,-87,-172,-25,413
-74,-59,15,66,-44,-22,-56,37,-87,-166,-29,418
-18,-45,-27,31,4,-36,-64,39,-86,-162,-23,416
19,-38,-57,9,38,-47,-73,38,-84,-158,-9,413
41,-18,-59,-11,50,-38,-66,40,-76,-149,4,420
51,12,-39,-31,45,-13,-46,48,-63,-136,14,437
55,43,-12,-49,33,15,-26,63,-47,-119,27,454
60,61,1,-60,29,31,-12,76,-35,-104,40,465
69,57,-12,-63,40,22,-4,74,-35,-100,44,471
77,36,-41,-56,59,-2,-5,58,-46,-107,38,470
72,15,-57,-43,64,-21,-19,43,-66,-122,21,461
55,0,-55,-27,55,-27,-38,31,-83,-140,1,447
34,-8,-42,-13,38,-25,-46,24,-88,-153,-11,438
14,-12,-26,-1,20,-19,-44,20,-86,-159,-14,434
0,-17,-17,8,8,-17,-42,17,-91,-162,-11,432
-8,-20,-12,14,2,-16,-42,18,-100,-162,-6,433
-7,-11,-4,9,-1,-7,-42,22,-99,-157,0,437
-4,6,10,-1,-7,8,-39,30,-87,-149,6,444
-5,27,32,-11,-18,29,-38,42,-72,-139,15,454
-6,44,50,-19,-28,47,-38,52,-63,-131,23,462
6,50,44,-28,-19,47,-41,49,-64,-132,21,460
35,48,13,-41,11,30,-45,38,-73,-142,12,451
74,49,-25,-61,49,12,-51,27,-85,-153,4,443
104,50,-54,-77,79,-2,-56,20,-95,-163,0,439
98,38,-60,-68,79,-11,-58,18,-98,-166,0,437
62,13,-49,-37,55,-18,-58,18,-97,-165,0,434
23,-14,-37,-4,30,-25,-58,19,-96,-164,0,432
-3,-35,-32,19,14,-33,-58,19,-96,-164,0,429
-13,-37,-24,25,5,-30,-56,18,-96,-165,0,428
-11,-23,-12,17,0,-17,-53,19,-96,-165,0,429
-3,-12,-9,7,3,-10,-52,18,-98,-164,-1,428
2,-5,-7,1,4,-6,-53,18,-101,-164,-3,428
5,0,-5,-2,5,-2,-52,19,-103,-165,-5,431
15,5,-10,-10,12,-2,-52,19,-106,-168,-7,434
49,16,-33,-32,41,-8,-55,16,-108,-174,-12,430
89,29,-60,-59,74,-15,-61,10,-111,-182,-17,421
95,43,-52,-69,73,-4,-64,7,-112,-188,-19,417
74,54,-20,-64,47,17,-63,8,-112,-189,-19,418
64,61,-3,-62,33,29,-62,9,-111,-189,-18,419
62,57,-5,-59,33,26,-63,9,-111,-189,-18,419
40,39,-1,-39,20,19,-62,8,-113,-191,-19,417
-7,5,12,1,-9,8,-62,8,-115,-193,-19,414
-70,-39,31,54,-50,-4,-64,9,-118,-196,-18,412
-111,-76,35,93,-73,-20,-67,9,-121,-199,-18,410
-87,-77,10,82,-48,-33,-68,7,-122,-201,-22,406
-15,-44,-29,29,7,-36,-68,4,-122,-203,-27,401
43,0,-43,-21,43,-21,-68,3,-120,-205,-29,396
72,29,-43,-50,57,-7,-68,4,-117,-205,-29,390
83,30,-53,-56,68,-11,-65,2,-117,-200,-29,389
88,12,-76,-50,82,-32,-60,-1,-120,-195,-32,390
100,10,-90,-55,95,-40,-54,-8,-124,-196,-36,388
109,21,-88,-65,98,-33,-49,-13,-129,-202,-38,385
93,23,-70,-58,81,-23,-46,-12,-135,-204,-39,385
56,13,-43,-34,49,-15,-46,-6,-140,-201,-39,388
20,0,-20,-10,20,-10,-52,-1,-140,-198,-38,391
-1,-5,-4,3,1,-4,-58,2,-134,-195,-35,394
0,6,6,-3,-3,6,-53,8,-124,-193,-28,396
9,27,18,-18,-4,22,-39,19,-111,-187,-17,398
0,39,39,-19,-19,39,-25,32,-97,-178,-7,403
-20,37,57,-8,-38,47,-19,41,-87,-167,0,408
-20,25,45,-2,-32,35,-21,40,-90,-162,-1,408
0,9,9,-4,-4,9,-33,29,-104,-166,-9,403
22,-5,-27,-8,24,-16,-50,14,-126,-178,-22,391
31,-14,-45,-8,38,-29,-63,2,-143,-189,-32,381
18,-7,-25,-5,21,-16,-54,0,-142,-183,-32,383
-1,16,17,-7,-9,16,-31,5,-127,-163,-26,398
1,56,55,-28,-27,55,-13,15,-113,-145,-22,416
27,94,67,-60,-20,80,-7,20,-107,-136,-23,428
59,102,43,-80,8,72,-15,11,-108,-138,-26,424
85,85,0,-85,42,42,-32,-7,-117,-149,-31,410
99,68,-31,-83,65,18,-50,-23,-132,-169,-40,397
102,60,-42,-81,72,9,-62,-29,-144,-184,-47,390
99,53,-46,-76,72,3,-59,-23,-141,-176,-44,392
84,51,-33,-67,58,9,-44,-7,-124,-153,-30,402
44,59,15,-51,14,37,-30,12,-105,-137,-13,422
7,74,67,-40,-30,70,-23,27,-93,-134,-1,441
19,81,62,-50,-21,71,-29,26,-94,-139,-2,441
69,82,13,-75,28,47,-42,14,-103,-148,-14,428
109,82,-27,-95,68,27,-55,0,-112,-155,-26,419
124,82,-42,-103,83,20,-65,-10,-118,-162,-35,415
125,80,-45,-102,85,17,-73,-21,-129,-171,-45,409
114,72,-42,-93,78,15,-80,-33,-144,-184,-58,398
90,57,-33,-73,61,12,-84,-48,-164,-199,-72,388
64,41,-23,-52,43,9,-86,-60,-181,-211,-84,381
54,39,-15,-46,34,12,-87,-62,-186,-214,-88,377
59,46,-13,-52,36,16,-87,-58,-181,-210,-84,375
67,46,-21,-56,44,12,-86,-59,-178,-206,-78,373
74,40,-34,-57,54,3,-86,-62,-179,-204,-73,373
85,39,-46,-62,65,-3,-87,-61,-179,-203,-72,378
98,42,-56,-70,77,-7,-86,-55,-176,-203,-72,384
104,40,-64,-72,84,-12,-87,-49,-172,-205,-73,382
97,32,-65,-64,81,-16,-87,-45,-167,-208,-73,376
76,24,-52,-50,64,-14,-86,-37,-159,-207,-72,376
40,17,-23,-28,31,-3,-86,-27,-149,-202,-69,382
-7,6,13,0,-10,9,-87,-19,-138,-195,-65,387
-41,-3,38,22,-39,17,-87,-15,-131,-190,-62,386
-26,0,26,13,-26,13,-85,-12,-134,-191,-65,381
20,8,-12,-14,16,-2,-82,-12,-146,-199,-73,373
44,2,-42,-23,43,-20,-83,-18,-159,-211,-86,362
38,-17,-55,-10,46,-36,-86,-26,-168,-224,-98,350
27,-31,-58,2,42,-44,-85,-30,-171,-235,-106,339
25,-34,-59,4,42,-46,-79,-29,-170,-242,-111,332
40,-30,-70,-5,55,-50,-75,-27,-170,-245,-113,329
62,-27,-89,-17,75,-58,-73,-27,-173,-247,-118,325
70,-36,-106,-17,88,-71,-72,-33,-176,-250,-131,311
62,-53,-115,-4,88,-84,-73,-41,-179,-256,-147,292
50,-61,-111,5,80,-86,-72,-43,-180,-259,-153,282
41,-62,-103,10,72,-82,-69,-37,-180,-259,-148,284
35,-66,-101,15,68,-83,-64,-27,-177,-254,-141,292
25,-74,-99,24,62,-86,-59,-19,-171,-248,-136,299
1,-82,-83,40,42,-82,-55,-20,-167,-248,-138,304
-24,-87,-63,55,19,-75,-53,-27,-165,-252,-144,306
-25,-84,-59,54,17,-71,-52,-29,-164,-251,-145,309
-4,-71,-67,37,31,-69,-53,-25,-162,-246,-139,314
16,-44,-60,14,38,-52,-51,-20,-157,-239,-130,320
24,-15,-39,-4,31,-27,-49,-15,-152,-234,-122,325
18,-5,-23,-6,20,-14,-46,-12,-150,-234,-123,326
4,-11,-15,3,9,-13,-43,-9,-150,-237,-128,325
-4,-15,-11,9,3,-13,-41,-7,-151,-241,-134,326
-5,-19,-14,12,4,-16,-36,-4,-151,-246,-138,327
0,-36,-36,18,18,-36,-27,-2,-150,-250,-145,322
9,-55,-64,23,36,-59,-16,0,-147,-249,-150,314
23,-51,-74,14,48,-62,-12,12,-140,-241,-147,311
34,-22,-56,-6,45,-39,-10,33,-120,-220,-124,326
26,16,-10,-21,18,3,-2,61,-76,-183,-64,378
8,67,59,-37,-25,63,10,89,-19,-132,22,464
1,141,140,-71,-69,140,18,104,28,-74,119,570
14,225,211,-119,-98,218,14,110,67,-8,227,694
45,294,249,-169,-102,271,-5,117,112,70,362,843
94,356,262,-225,-84,309,-33,143,187,169,533,1023
161,444,283,-302,-61,363,-55,203,318,299,737,1236
236,553,317,-394,-40,435,-68,271,465,427,936,1444
304,660,356,-482,-26,508,-81,294,548,498,1064,1585
358,736,378,-547,-10,557,-96,264,543,487,1088,1629
400,753,353,-576,23,553,-110,201,465,396,996,1569
428,702,274,-565,77,488,-117,127,339,246,807,1409
436,591,155,-513,140,373,-110,61,192,76,560,1159
403,435,32,-419,185,233,-83,-11,8,-112,261,833
303,255,-48,-279,175,103,-36,-125,-253,-333,-96,449
166,92,-74,-129,120,9,11,-261,-555,-555,-452,83
64,-3,-67,-30,65,-35,32,-370,-804,-714,-702,-156
11,-57,-68,23,39,-62,17,-434,-955,-813,-838,-271
-13,-141,-128,77,57,-134,-27,-459,-1004,-897,-921,-334
-20,-256,-236,138,108,-246,-86,-454,-987,-976,-979,-380
-11,-356,-345,183,167,-350,-135,-433,-960,-1031,-1015,-415
0,-425,-425,212,212,-425,-174,-405,-938,-1060,-1032,-436
-7,-467,-460,237,226,-463,-220,-375,-901,-1076,-1029,-436
-25,-478,-453,251,214,-465,-260,-336,-841,-1065,-1000,-411
-27,-450,-423,238,198,-436,-265,-275,-759,-1003,-932,-358
-11,-388,-377,199,183,-382,-237,-191,-656,-900,-832,-279
7,-312,-319,152,163,-315,-201,-94,-537,-786,-714,-179
18,-243,-261,112,139,-252,-170,-11,-421,-684,-599,-76
16,-203,-219,93,117,-211,-147,25,-336,-610,-506,3
6,-188,-194,91,100,-191,-133,15,-293,-560,-441,57
1,-177,-178,88,89,-177,-129,-19,-286,-521,-399,96
1,-159,-160,79,80,-159,-126,-51,-290,-483,-365,131
-4,-135,-131,69,63,-133,-108,-57,-269,-440,-321,173
-17,-110,-93,63,38,-101,-76,-35,-225,-395,-267,218
-36,-90,-54,63,9,-72,-41,-3,-184,-356,-219,255
-54,-77,-23,65,-15,-50,-15,25,-155,-326,-187,280
-58,-65,-7,61,-25,-36,-4,43,-131,-304,-173,295
-49,-55,-6,52,-21,-30,-6,51,-112,-295,-174,305
-31,-49,-18,40,-6,-33,-13,54,-100,-304,-175,308
-16,-50,-34,33,9,-42,-21,54,-96,-321,-175,308
-15,-59,-44,37,14,-51,-28,47,-100,-330,-175,303
-19,-73,-54,46,17,-63,-36,37,-108,-330,-175,295
-11,-82,-71,46,30,-76,-42,30,-117,-332,-173,286
8,-83,-91,37,49,-87,-44,29,-124,-335,-170,279
19,-77,-96,29,57,-86,-37,28,-127,-333,-169,278
25,-67,-92,21,58,-79,-29,25,-129,-330,-172,282
39,-56,-95,8,67,-75,-32,21,-135,-336,-182,282
61,-48,-109,-6,85,-78,-44,16,-143,-348,-196,279
74,-49,-123,-12,98,-86,-50,9,-146,-351,-203,277
70,-58,-128,-6,99,-93,-48,4,-145,-345,-201,277
44,-71,-115,13,79,-93,-47,4,-147,-333,-196,278
12,-81,-93,34,52,-87,-44,10,-148,-323,-189,280
-1,-77,-76,39,37,-76,-37,20,-137,-321,-176,288
12,-55,-67,21,39,-61,-24,33,-115,-320,-158,303
48,-18,-66,-15,57,-42,-9,48,-93,-305,-138,327
79,14,-65,-46,72,-25,2,57,-81,-282,-125,347
69,13,-56,-41,62,-21,2,53,-90,-277,-135,347
28,-21,-49,-3,38,-35,-8,36,-113,-290,-160,330
-1,-67,-66,34,32,-66,-24,17,-132,-307,-181,310
-4,-101,-97,52,46,-99,-39,3,-140,-321,-192,295
11,-104,-115,46,63,-109,-46,-1,-139,-331,-199,287
30,-85,-115,27,72,-100,-45,1,-133,-338,-203,283
32,-70,-102,19,67,-86,-37,7,-127,-346,-202,282
19,-67,-86,24,52,-76,-27,12,-123,-351,-196,285
7,-67,-74,30,40,-70,-20,16,-118,-345,-193,291
6,-65,-71,29,38,-68,-18,18,-110,-331,-192,298
17,-57,-74,20,45,-65,-20,19,-101,-319,-184,306
36,-47,-83,5,59,-65,-23,19,-93,-313,-173,311
50,-36,-86,-7,68,-61,-25,17,-90,-310,-167,311
52,-27,-79,-12,65,-53,-24,17,-89,-307,-169,311
36,-18,-54,-9,45,-36,-21,24,-81,-305,-171,315
14,-10,-24,-2,19,-17,-15,35,-67,-303,-170,322
7,-9,-16,1,11,-12,-11,43,-56,-299,-167,330
10,-20,-30,5,20,-25,-12,47,-49,-293,-162,332
1,-48,-49,23,25,-48,-19,49,-46,-289,-159,326
-18,-80,-62,49,22,-71,-27,51,-46,-287,-160,318
-28,-87,-59,57,15,-73,-28,56,-50,-285,-162,319
-19,-68,-49,43,15,-58,-21,64,-51,-280,-162,327
13,-39,-52,13,32,-45,-16,73,-38,-271,-157,334
48,-14,-62,-17,55,-38,-14,81,-18,-261,-148,336
46,-5,-51,-20,48,-28,-13,80,-11,-254,-142,335
20,-10,-30,-5,25,-20,-13,72,-19,-252,-140,332
15,-18,-33,1,24,-25,-14,61,-31,-253,-143,326
25,-25,-50,0,37,-37,-14,53,-39,-253,-146,321
9,-34,-43,12,26,-38,-11,56,-34,-250,-141,326
-29,-44,-15,36,-7,-29,-3,67,-19,-242,-127,339
-58,-52,6,55,-32,-23,7,80,-5,-232,-113,356
-60,-51,9,55,-34,-21,14,90,2,-225,-106,368
-32,-37,-5,34,-13,-21,7,92,3,-225,-111,368
10,-21,-31,5,20,-26,-11,89,-1,-233,-127,357
38,-22,-60,-8,49,-41,-29,83,-6,-248,-149,340
47,-38,-85,-4,66,-61,-38,81,-3,-261,-162,328
48,-45,-93,-1,70,-69,-37,85,9,-260,-149,327
50,-43,-93,-3,71,-68,-30,94,25,-251,-123,334
60,-45,-105,-7,82,-75,-28,98,30,-245,-114,336
76,-46,-122,-15,99,-84,-29,100,28,-244,-120,335
87,-30,-117,-28,102,-73,-26,108,34,-240,-120,340
85,1,-84,-43,84,-41,-15,126,53,-227,-108,357
72,31,-41,-51,56,-5,2,153,80,-202,-89,381
53,47,-6,-50,29,20,19,176,105,-176,-71,404
42,41,-1,-41,21,20,26,178,115,-166,-66,409
37,21,-16,-29,26,2,25,165,113,-172,-71,402
24,5,-19,-14,21,-7,23,158,112,-177,-73,398
10,-2,-12,-4,11,-7,23,162,116,-173,-69,400
13,-5,-18,-4,15,-11,23,167,116,-161,-65,397
34,-3,-37,-15,35,-20,20,169,112,-146,-63,389
55,7,-48,-31,51,-20,16,170,112,-135,-63,378
72,23,-49,-47,60,-13,14,172,117,-131,-63,373
84,35,-49,-59,66,-7,14,181,130,-129,-59,382
88,41,-47,-64,67,-3,20,196,148,-123,-51,401
80,46,-34,-63,57,6,32,216,166,-102,-41,418
66,51,-15,-58,40,18,50,237,186,-70,-30,430
63,55,-8,-59,35,23,69,253,211,-40,-12,440
77,59,-18,-68,47,20,84,264,238,-16,4,450
104,70,-34,-87,69,18,86,273,258,1,12,456
123,80,-43,-101,83,18,80,281,267,14,12,461
105,79,-26,-92,65,26,75,284,266,25,18,466
57,70,13,-63,22,41,76,285,265,34,30,474
16,68,52,-42,-18,60,82,290,275,46,37,483
0,75,75,-37,-37,75,90,299,292,58,39,490
9,80,71,-44,-31,75,92,304,299,68,37,493
41,82,41,-61,0,61,85,304,294,72,31,493
85,80,-5,-82,45,37,74,296,288,72,24,488
122,80,-42,-101,82,19,64,288,286,71,19,483
133,86,-47,-109,90,19,63,287,290,77,21,485
120,95,-25,-107,72,35,70,294,299,88,27,494
99,95,-4,-97,51,45,75,300,304,94,30,500
87,93,6,-90,40,49,77,305,305,95,34,504
93,109,16,-101,38,62,77,309,310,100,51,512
106,135,29,-120,38,82,74,312,318,106,75,523
100,141,41,-120,29,91,68,309,325,105,85,529
84,129,45,-106,19,87,60,304,329,99,78,530
88,124,36,-106,26,80,54,299,332,93,64,533
116,131,15,-123,50,73,49,294,332,88,51,536
153,144,-9,-148,81,67,46,285,326,84,45,533
178,154,-24,-166,101,65,46,277,316,82,43,527
170,152,-18,-161,94,67,51,283,306,82,40,528
132,140,8,-136,62,74,59,297,302,85,39,536
79,130,51,-104,14,90,68,304,303,90,52,547
42,126,84,-84,-21,105,71,294,301,90,67,552
51,125,74,-88,-11,99,56,270,283,76,59,544
101,126,25,-113,38,75,29,237,251,52,31,525
161,125,-36,-143,98,44,7,205,221,31,1,506
200,122,-78,-161,139,22,-2,183,202,20,-16,494
193,121,-72,-157,132,24,-4,180,200,18,-17,491
154,119,-35,-136,94,42,-3,188,205,20,-10,493
129,112,-17,-120,73,47,-7,187,195,14,-11,486
125,103,-22,-114,73,40,-13,175,173,3,-23,472
125,101,-24,-113,74,38,-12,162,155,-2,-36,464
122,107,-15,-114,68,46,-9,151,142,-3,-46,463
122,119,-3,-120,62,58,-12,135,121,-5,-49,459
123,127,4,-125,59,65,-20,117,95,-11,-50,449
117,116,-1,-116,59,57,-26,106,79,-18,-59,435
104,90,-14,-97,59,38,-25,102,74,-23,-75,423
84,60,-24,-72,54,18,-20,100,70,-22,-91,414
64,38,-26,-51,45,6,-14,94,64,-19,-100,410
49,31,-18,-40,33,6,-15,86,61,-21,-100,406
45,33,-12,-39,28,10,-23,74,57,-32,-98,400
56,31,-25,-43,40,3,-38,56,43,-49,-113,384
70,19,-51,-44,60,-16,-53,38,21,-64,-140,365
69,4,-65,-36,67,-30,-60,30,4,-69,-163,358
55,-14,-69,-20,62,-41,-59,30,-8,-68,-176,357
54,-38,-92,-8,73,-65,-57,24,-22,-70,-184,349
62,-59,-121,-1,91,-90,-57,15,-36,-76,-189,335
57,-61,-118,2,87,-89,-58,15,-39,-79,-188,327
38,-51,-89,6,63,-70,-58,22,-32,-78,-187,326
16,-47,-63,15,39,-55,-57,24,-22,-77,-199,324
0,-48,-48,24,24,-48,-55,20,-15,-77,-216,322
-6,-42,-36,24,15,-39,-47,16,-14,-77,-215,322
-4,-28,-24,16,10,-26,-40,17,-20,-77,-199,322
-4,-19,-15,11,5,-17,-41,23,-28,-78,-193,319
-5,-20,-15,12,5,-17,-49,29,-36,-78,-202,314
0,-33,-33,16,16,-33,-56,23,-41,-76,-218,308
10,-49,-59,19,34,-54,-58,8,-43,-70,-231,306
15,-53,-68,19,41,-60,-56,1,-40,-63,-232,309
14,-48,-62,17,38,-55,-56,3,-34,-58,-225,315
13,-50,-63,18,38,-56,-62,3,-35,-58,-225,316
14,-59,-73,22,43,-66,-71,0,-40,-61,-235,313
12,-65,-77,26,44,-71,-72,0,-45,-64,-243,310
9,-67,-76,29,42,-71,-68,2,-50,-63,-247,308
8,-69,-77,30,42,-73,-70,5,-58,-60,-248,303
18,-75,-93,28,55,-84,-81,1,-68,-58,-253,290
51,-82,-133,15,92,-107,-95,-16,-78,-59,-268,269
86,-87,-173,0,129,-130,-106,-38,-85,-60,-287,248
85,-82,-167,-1,126,-124,-103,-41,-89,-49,-291,245
44,-74,-118,15,81,-96,-88,-25,-88,-28,-279,257
-6,-75,-69,40,31,-72,-73,-11,-81,-6,-264,268
-40,-82,-42,61,1,-62,-65,-4,-71,9,-254,272
-32,-76,-44,54,6,-60,-61,-3,-65,19,-253,273
2,-62,-64,30,33,-63,-62,-4,-66,23,-262,273
22,-56,-78,17,50,-67,-63,-3,-70,24,-277,272
21,-61,-82,20,51,-71,-64,-2,-73,26,-287,272
15,-63,-78,24,46,-70,-60,-7,-68,35,-278,274
8,-62,-70,27,39,-66,-52,-13,-57,51,-253,279
-5,-64,-59,34,27,-61,-41,-10,-48,67,-234,288
-22,-72,-50,47,14,-61,-34,-1,-49,79,-233,296
-35,-87,-52,61,8,-69,-36,0,-62,82,-253,294
-44,-107,-63,75,9,-85,-45,-7,-81,81,-282,283
-53,-130,-77,91,12,-103,-48,-9,-91,85,-299,271
-54,-145,-91,99,18,-118,-47,-8,-92,91,-301,261
-28,-137,-109,82,40,-123,-51,-13,-91,88,-304,252
25,-107,-132,41,78,-119,-63,-24,-94,76,-312,243
94,-69,-163,-12,128,-116,-74,-34,-101,70,-323,232
147,-42,-189,-52,168,-115,-81,-39,-107,72,-330,224
149,-44,-193,-52,171,-118,-81,-36,-101,73,-328,226
100,-70,-170,-15,135,-120,-73,-23,-85,77,-317,238
32,-94,-126,31,79,-110,-57,3,-68,93,-303,251
-27,-107,-80,67,26,-93,-39,29,-55,115,-293,260
-54,-117,-63,85,4,-90,-29,30,-51,127,-294,263
-54,-124,-70,89,8,-97,-28,10,-52,127,-303,263
-52,-126,-74,89,11,-100,-29,0,-53,125,-309,264
-56,-124,-68,90,6,-96,-29,1,-52,125,-308,267
-58,-118,-60,88,1,-89,-28,6,-53,127,-303,267
-46,-108,-62,77,8,-85,-27,8,-56,130,-298,264
-7,-91,-84,49,38,-87,-32,9,-60,130,-296,260
40,-75,-115,17,77,-95,-40,9,-62,128,-301,258
59,-75,-134,8,96,-104,-44,8,-62,122,-318,257
54,-85,-139,15,96,-112,-43,8,-62,114,-339,258
57,-84,-141,13,99,-112,-41,9,-65,108,-351,257
68,-75,-143,3,105,-109,-39,9,-71,103,-349,257
58,-73,-131,7,94,-102,-38,6,-72,101,-338,260
32,-80,-112,24,72,-96,-38,1,-68,101,-325,265
18,-81,-99,31,58,-90,-38,-1,-68,102,-319,270
21,-75,-96,27,58,-85,-38,-1,-68,101,-320,272
25,-70,-95,22,60,-82,-39,3,-64,102,-324,272
22,-65,-87,21,54,-76,-39,13,-53,102,-325,271
12,-57,-69,22,40,-63,-36,26,-39,100,-313,277
0,-48,-48,24,24,-48,-31,37,-29,98,-298,288
-6,-51,-45,28,19,-48,-26,38,-33,95,-302,295
-8,-67,-59,37,25,-63,-27,29,-49,93,-323,294
-11,-95,-84,53,36,-89,-33,15,-68,90,-337,286
-17,-118,-101,67,42,-109,-41,2,-80,87,-338,278
-21,-117,-96,69,37,-106,-42,0,-78,87,-331,281
-27,-95,-68,61,20,-81,-36,8,-64,90,-321,295
-47,-78,-31,62,-8,-54,-32,23,-49,94,-310,309
-64,-73,-9,68,-27,-41,-30,36,-37,99,-300,319
-48,-72,-24,60,-12,-48,-24,39,-31,106,-293,324
-4,-72,-68,38,32,-70,-18,32,-31,111,-293,324
33,-73,-106,20,69,-89,-24,24,-38,109,-304,315
48,-73,-121,12,84,-97,-38,20,-46,100,-320,301
41,-72,-113,15,77,-92,-45,17,-46,92,-330,293
21,-69,-90,24,55,-79,-44,17,-40,87,-328,295
6,-64,-70,29,38,-67,-42,22,-39,88,-320,300
1,-59,-60,29,30,-59,-42,27,-42,91,-310,305
-1,-57,-56,29,27,-56,-42,28,-42,90,-304,307
-6,-60,-54,33,24,-57,-42,25,-40,84,-305,306
-13,-66,-53,39,20,-59,-44,21,-38,79,-308,308
-18,-68,-50,43,16,-59,-47,19,-38,78,-311,311
-16,-63,-47,39,15,-55,-48,18,-39,77,-312,312
-5,-50,-45,27,20,-47,-47,18,-39,78,-312,312
7,-31,-38,12,22,-34,-48,19,-38,77,-311,311
16,-18,-34,1,25,-26,-48,19,-38,77,-311,311
19,-26,-45,3,32,-35,-45,17,-39,78,-312,312
18,-46,-64,14,41,-55,-40,15,-41,78,-315,312
20,-55,-75,17,47,-65,-38,12,-44,75,-319,309
28,-50,-78,11,53,-64,-41,9,-46,69,-324,303
42,-45,-87,1,64,-66,-44,8,-49,66,-327,300
53,-45,-98,-4,75,-71,-49,8,-54,64,-332,299
45,-52,-97,3,71,-74,-59,9,-63,58,-342,291
27,-60,-87,16,57,-73,-70,9,-71,49,-353,280
26,-63,-89,18,57,-76,-72,7,-71,49,-355,276
37,-57,-94,10,65,-75,-63,4,-62,58,-346,282
35,-46,-81,5,58,-63,-49,4,-52,69,-333,294
21,-36,-57,7,39,-46,-36,7,-44,79,-323,308
21,-33,-54,6,37,-43,-34,10,-41,83,-322,314
35,-32,-67,-1,51,-49,-40,12,-42,82,-327,312
51,-19,-70,-16,60,-44,-45,15,-44,81,-334,311
56,-4,-60,-26,58,-32,-47,18,-46,79,-339,312
40,-12,-52,-14,46,-32,-49,19,-49,75,-342,310
15,-43,-58,14,36,-50,-51,19,-52,70,-344,304
8,-76,-84,34,46,-80,-54,17,-53,65,-350,298
17,-98,-115,40,66,-106,-57,14,-53,63,-358,293
13,-99,-112,43,62,-105,-58,13,-51,63,-362,291
-7,-91,-84,49,38,-87,-58,13,-48,66,-361,291
-33,-99,-66,66,16,-82,-58,13,-47,70,-361,291
-48,-116,-68,82,10,-92,-58,13,-48,76,-361,291
-40,-107,-67,73,13,-87,-56,14,-46,79,-358,293
-14,-70,-56,42,21,-63,-50,17,-43,84,-350,298
8,-31,-39,11,23,-35,-43,20,-42,92,-340,307
21,-7,-28,-7,24,-17,-39,23,-42,103,-332,315
26,-6,-32,-10,29,-19,-41,24,-43,108,-331,316
34,-17,-51,-8,42,-34,-47,23,-43,107,-338,309
60,-13,-73,-23,66,-43,-46,24,-42,106,-344,303
88,1,-87,-44,87,-43,-40,25,-42,107,-349,301
83,-1,-84,-41,83,-42,-38,20,-44,106,-353,303
48,-26,-74,-11,61,-50,-41,12,-47,103,-359,309
20,-54,-74,17,47,-64,-43,4,-48,100,-362,315
9,-71,-80,31,44,-75,-42,0,-48,100,-362,320
9,-67,-76,29,42,-71,-44,0,-46,105,-356,323
6,-49,-55,21,30,-52,-44,5,-42,118,-343,328
-14,-39,-25,26,5,-32,-37,14,-32,139,-325,336
-39,-37,2,38,-20,-17,-23,24,-22,160,-309,347
-37,-25,12,31,-24,-6,-15,34,-17,165,-307,354
-11,-8,3,9,-7,-2,-16,40,-18,156,-317,353
10,-4,-14,-3,12,-9,-23,33,-18,144,-327,345
16,-12,-28,-2,22,-20,-31,19,-18,137,-334,334
7,-11,-18,2,12,-14,-37,10,-21,135,-338,329
-1,-2,-1,1,0,-1,-41,8,-26,141,-340,331
10,0,-10,-5,10,-5,-45,8,-30,154,-341,328
33,-5,-38,-14,35,-21,-53,5,-32,165,-343,320
37,-13,-50,-12,43,-31,-66,1,-37,156,-350,313
25,-21,-46,-2,35,-33,-81,-5,-44,132,-361,309
30,-27,-57,-1,43,-42,-92,-14,-51,112,-372,302
51,-32,-83,-9,67,-57,-96,-21,-56,106,-379,296
59,-34,-93,-12,76,-63,-96,-25,-59,110,-378,302
50,-34,-84,-8,67,-59,-95,-24,-62,121,-372,316
47,-32,-79,-7,63,-55,-100,-23,-64,131,-367,326
47,-32,-79,-7,63,-55,-106,-23,-67,139,-366,326
30,-37,-67,3,48,-52,-105,-23,-68,142,-364,324
1,-43,-44,21,22,-43,-96,-21,-69,141,-362,322
-16,-37,-21,26,2,-29,-86,-13,-65,140,-359,321
-10,-23,-13,16,1,-18,-78,-7,-62,137,-359,318
20,-16,-36,-2,28,-26,-79,-16,-66,132,-364,314
64,-17,-81,-23,72,-49,-87,-38,-77,127,-375,308
100,-20,-120,-40,110,-70,-97,-57,-86,125,-385,306
117,-23,-140,-47,128,-81,-105,-63,-91,125,-393,306
109,-24,-133,-42,121,-78,-108,-59,-91,125,-395,306
88,-22,-110,-33,99,-66,-107,-47,-88,123,-394,306
78,-12,-90,-33,84,-51,-106,-37,-86,119,-396,307
77,-3,-80,-37,78,-41,-106,-33,-86,113,-402,308
61,-11,-72,-25,66,-41,-106,-36,-88,110,-408,302
42,-29,-71,-6,56,-50,-104,-42,-91,110,-413,294
55,-33,-88,-11,71,-60,-97,-40,-92,115,-413,292
88,-27,-115,-30,101,-71,-89,-31,-92,121,-413,296
95,-38,-133,-28,114,-85,-86,-27,-92,120,-417,295
68,-63,-131,-2,99,-97,-87,-28,-92,114,-425,289
32,-80,-112,24,72,-96,-85,-29,-90,110,-432,284
5,-82,-87,38,46,-84,-80,-29,-87,110,-434,282
0,-80,-80,40,40,-80,-75,-27,-87,114,-433,283
7,-84,-91,38,49,-87,-73,-27,-89,117,-435,281
4,-106,-110,51,57,-108,-73,-32,-95,113,-446,269
-11,-134,-123,72,56,-128,-73,-40,-100,104,-463,252
-26,-139,-113,82,43,-126,-71,-43,-103,100,-470,247
-28,-120,-92,74,32,-106,-69,-37,-102,101,-465,254
-13,-103,-90,58,38,-96,-67,-28,-100,102,-459,260
8,-97,-105,44,56,-101,-67,-20,-97,102,-457,259
14,-98,-112,42,63,-105,-69,-20,-96,99,-461,254
3,-103,-106,50,54,-104,-72,-26,-96,96,-469,249
-1,-112,-111,56,55,-111,-73,-30,-97,99,-476,247
0,-120,-120,60,60,-120,-73,-29,-97,105,-481,248
-2,-122,-120,62,59,-121,-72,-28,-96,105,-484,246
-10,-121,-111,65,50,-116,-72,-28,-96,99,-487,241
-18,-124,-106,71,44,-115,-73,-29,-97,94,-488,236
-23,-129,-106,76,41,-117,-73,-32,-99,92,-490,231
-22,-130,-108,76,43,-119,-71,-36,-105,91,-495,226
-17,-129,-112,73,47,-120,-66,-40,-113,91,-503,221
-10,-136,-126,73,58,-131,-57,-46,-120,93,-511,216
-10,-148,-138,79,64,-143,-47,-47,-121,101,-516,211
-24,-150,-126,87,51,-138,-37,-31,-106,117,-515,205
-50,-141,-91,95,20,-116,-25,4,-73,145,-498,209
-77,-128,-51,102,-13,-89,-8,52,-21,184,-453,240
-95,-110,-15,102,-40,-62,9,93,31,229,-388,297
-92,-74,18,83,-55,-28,13,100,58,267,-329,363
-75,-30,45,52,-60,7,0,73,56,296,-277,434
-60,2,62,29,-61,32,-22,39,51,322,-214,515
-33,51,84,-9,-58,67,-46,34,92,385,-95,646
40,186,146,-113,-53,166,-57,100,238,538,141,888
153,389,236,-271,-41,312,-60,212,452,753,453,1201
261,575,314,-418,-26,444,-70,284,614,924,711,1457
347,697,350,-522,-1,523,-93,288,675,995,842,1597
419,743,324,-581,47,533,-124,242,648,951,827,1616
480,727,247,-603,116,487,-150,183,573,830,704,1540
523,673,150,-598,186,411,-153,153,506,711,554,1409
511,574,63,-542,224,318,-125,131,408,589,359,1200
387,397,10,-392,188,203,-64,36,169,397,27,838
190,184,-6,-187,98,89,8,-127,-190,152,-394,388
37,37,0,-37,18,18,55,-292,-535,-53,-747,24
-33,-37,-4,35,-14,-20,61,-413,-782,-196,-977,-195
-58,-116,-58,87,0,-87,32,-473,-893,-308,-1121,-316
-62,-220,-158,141,48,-189,-17,-481,-901,-403,-1213,-383
-64,-325,-261,194,98,-293,-63,-471,-897,-479,-1278,-431
-67,-415,-348,241,140,-381,-107,-459,-906,-538,-1326,-473
-66,-481,-415,273,174,-448,-167,-444,-900,-586,-1354,-501
-51,-514,-463,282,206,-488,-235,-422,-869,-614,-1358,-510
-16,-509,-493,262,238,-501,-275,-387,-818,-599,-1333,-496
28,-473,-501,222,264,-487,-279,-328,-742,-537,-1273,-451
52,-425,-477,186,264,-451,-260,-236,-627,-436,-1171,-364
49,-382,-431,166,240,-406,-231,-131,-487,-320,-1044,-251
31,-361,-392,165,211,-376,-205,-56,-364,-221,-929,-151
10,-353,-363,171,186,-358,-189,-28,-283,-151,-841,-75
-1,-329,-328,165,163,-328,-182,-39,-250,-96,-775,-15
-3,-287,-284,145,140,-285,-179,-68,-247,-49,-723,36
-5,-245,-240,125,117,-242,-165,-81,-231,-2,-673,84
-12,-211,-199,111,93,-205,-139,-71,-196,44,-624,125
-29,-188,-159,108,65,-173,-108,-50,-162,84,-583,156
-53,-169,-116,111,31,-142,-76,-28,-134,119,-549,179
-72,-148,-76,110,2,-112,-47,-8,-105,157,-519,205
-77,-127,-50,102,-13,-88,-28,8,-77,188,-495,231
-60,-120,-60,90,0,-90,-23,19,-60,192,-483,243
-31,-129,-98,80,33,-113,-32,24,-56,173,-486,241
-22,-144,-122,83,50,-133,-46,19,-60,157,-500,235
-28,-157,-129,92,50,-143,-59,8,-65,152,-514,230
-22,-161,-139,91,58,-150,-65,0,-69,148,-514,227
-3,-157,-154,80,75,-155,-65,0,-69,145,-499,227
8,-154,-162,73,85,-158,-57,0,-64,150,-483,231
4,-155,-159,75,81,-157,-49,0,-58,161,-473,237
-7,-157,-150,82,71,-153,-50,1,-59,166,-476,240
-17,-162,-145,89,64,-153,-59,3,-65,163,-487,239
-16,-169,-153,92,68,-161,-63,3,-69,158,-494,238
-9,-175,-166,92,78,-170,-60,3,-68,155,-493,238
-12,-171,-159,91,73,-165,-55,5,-68,158,-488,240
-27,-158,-131,92,52,-144,-53,11,-69,164,-481,245
-39,-142,-103,90,32,-122,-51,16,-64,162,-472,250
-39,-127,-88,83,24,-107,-49,18,-56,153,-462,255
-22,-116,-94,69,36,-105,-46,18,-50,151,-452,262
-2,-111,-109,56,53,-110,-43,15,-51,155,-447,270
-5,-114,-109,59,52,-111,-42,12,-56,153,-452,274
-26,-121,-95,73,34,-108,-42,9,-62,145,-464,273
-36,-130,-94,83,29,-112,-44,8,-61,136,-468,272
-29,-136,-107,82,39,-121,-47,8,-56,132,-464,273
-19,-132,-113,75,47,-122,-48,9,-49,130,-463,272
-16,-122,-106,69,45,-114,-45,12,-45,130,-467,271
-25,-111,-86,68,30,-98,-37,16,-40,131,-466,276
-44,-103,-59,73,7,-81,-27,22,-35,130,-460,284
-62,-100,-38,81,-12,-69,-21,25,-33,131,-457,288
-72,-101,-29,86,-21,-65,-22,25,-33,128,-458,288
-68,-103,-35,85,-16,-69,-27,21,-34,120,-455,284
-51,-103,-52,77,0,-77,-32,16,-33,107,-449,279
-32,-97,-65,64,16,-81,-33,11,-34,97,-447,276
-18,-86,-68,52,25,-77,-33,9,-35,90,-450,273
-11,-79,-68,45,28,-73,-37,9,-31,80,-457,271
-3,-79,-76,41,36,-77,-50,10,-25,65,-467,266
19,-86,-105,33,62,-95,-68,5,-24,47,-480,256
45,-100,-145,27,95,-122,-86,-1,-30,30,-493,244
39,-130,-169,45,104,-149,-95,-5,-38,19,-499,234
2,-164,-166,81,84,-165,-95,-4,-44,14,-498,231
-28,-179,-151,103,61,-165,-86,-3,-51,13,-494,240
-35,-168,-133,101,49,-150,-73,-2,-52,13,-487,256
-12,-137,-125,74,56,-131,-62,4,-37,16,-477,269
18,-100,-118,41,68,-109,-55,17,-11,21,-464,278
17,-75,-92,29,54,-83,-49,30,10,26,-450,288
-9,-67,-58,38,24,-62,-44,40,21,28,-437,298
-21,-72,-51,46,15,-61,-41,44,26,27,-431,303
-16,-87,-71,51,27,-79,-42,43,28,24,-429,302
-30,-109,-79,69,24,-94,-44,43,30,23,-428,301
-59,-130,-71,94,6,-100,-47,46,33,23,-427,302
-68,-136,-68,102,0,-102,-47,49,34,23,-431,301
-47,-120,-73,83,13,-96,-44,51,33,23,-437,301
-17,-85,-68,51,25,-76,-40,55,34,26,-437,304
7,-47,-54,20,30,-50,-36,60,37,32,-431,309
15,-39,-54,12,34,-46,-30,65,41,34,-427,313
6,-58,-64,26,35,-61,-22,70,48,33,-423,315
-8,-75,-67,41,29,-71,-15,77,60,35,-410,319
-21,-80,-59,50,19,-69,-10,84,73,41,-394,324
-23,-83,-60,53,18,-71,-8,88,80,43,-390,325
-10,-83,-73,46,31,-78,-8,88,79,41,-399,320
16,-77,-93,30,54,-85,-10,85,76,34,-410,312
48,-64,-112,8,80,-88,-10,85,76,28,-417,306
63,-51,-114,-6,88,-82,-3,91,82,33,-420,311
60,-42,-102,-9,81,-72,8,99,92,48,-420,325
56,-35,-91,-10,73,-63,18,101,100,55,-416,334
46,-32,-78,-7,62,-55,22,100,107,56,-411,338
10,-38,-48,14,29,-43,25,108,119,63,-405,346
-46,-53,-7,49,-19,-30,27,127,137,81,-399,359
-99,-75,24,87,-61,-25,31,144,155,105,-388,373
-122,-89,33,105,-77,-28,36,156,170,131,-373,382
-93,-74,19,83,-56,-27,41,165,178,150,-356,385
-17,-34,-17,25,0,-25,43,171,182,162,-340,384
73,7,-66,-40,69,-29,41,179,188,167,-333,386
138,35,-103,-86,120,-34,40,189,198,173,-335,392
131,35,-96,-83,113,-30,49,202,212,192,-335,397
61,13,-48,-37,54,-17,67,217,230,224,-330,402
-14,-14,0,14,-7,-7,90,230,249,254,-320,409
-56,-33,23,44,-39,-5,106,237,267,276,-312,417
-43,-27,16,35,-29,-5,101,239,277,288,-315,418
11,-3,-14,-4,12,-8,78,236,278,294,-324,415
65,20,-45,-42,55,-12,57,231,276,300,-323,413
91,32,-59,-61,75,-13,48,228,275,310,-312,416
83,32,-51,-57,67,-9,50,231,284,326,-302,422
44,19,-25,-31,34,-3,59,239,300,346,-298,430
-14,-5,9,9,-11,2,65,248,311,366,-294,438
-64,-29,35,46,-49,3,64,255,315,380,-288,445
-65,-31,34,48,-49,1,61,259,318,388,-285,449
-20,-10,10,15,-15,0,58,258,323,391,-284,451
28,21,-7,-24,17,7,58,256,329,400,-279,455
59,49,-10,-54,34,19,60,256,336,413,-271,463
73,63,-10,-68,41,26,66,262,347,423,-265,473
80,75,-5,-77,42,35,76,275,361,429,-259,484
98,109,11,-103,43,60,89,292,380,440,-241,501
117,152,35,-134,41,93,101,306,396,454,-217,518
104,154,50,-129,27,102,97,302,399,458,-204,520
62,108,46,-85,8,77,78,283,390,452,-208,508
26,52,26,-39,0,39,57,262,378,443,-222,495
13,14,1,-13,6,7,42,248,367,439,-240,485
19,13,-6,-16,12,3,38,240,352,440,-255,480
40,44,4,-42,18,24,44,240,336,445,-264,480
67,83,16,-75,25,49,51,250,326,450,-270,487
90,111,21,-100,34,66,57,259,322,452,-271,495
98,116,18,-107,40,67,57,249,320,451,-260,496
91,102,11,-96,40,56,52,222,313,447,-246,488
82,80,-2,-81,42,39,41,196,295,439,-247,476
77,62,-15,-69,46,23,28,179,271,431,-264,466
80,57,-23,-68,51,17,21,171,257,427,-281,461
82,63,-19,-72,50,22,22,169,255,428,-290,461
66,71,5,-68,30,38,25,170,260,429,-291,464
38,74,36,-56,1,55,25,168,262,429,-290,464
24,68,44,-46,-10,56,21,158,248,426,-296,458
26,57,31,-41,-2,44,15,143,223,421,-310,448
30,49,19,-39,5,34,14,128,206,416,-322,440
27,47,20,-37,3,33,15,115,193,412,-329,436
18,49,31,-33,-6,40,9,94,169,403,-331,430
2,51,49,-26,-23,50,-3,71,137,390,-333,422
-24,40,64,-8,-44,52,-12,57,118,379,-341,416
-49,18,67,15,-58,42,-14,53,114,371,-357,412
-46,0,46,23,-46,23,-12,50,105,369,-375,403
-12,-9,3,10,-7,-3,-12,43,89,370,-390,391
33,-4,-37,-14,35,-20,-17,33,75,367,-397,378
67,4,-63,-35,65,-29,-28,21,66,357,-401,366
67,-2,-69,-32,68,-35,-39,4,58,343,-412,354
31,-27,-58,-2,44,-42,-46,-10,50,333,-431,343
-17,-49,-32,33,7,-40,-47,-13,45,331,-443,341
-56,-61,-5,58,-25,-33,-41,-7,43,338,-446,345
-58,-61,-3,59,-27,-32,-36,-2,42,342,-450,343
-33,-52,-19,42,-7,-35,-31,-3,39,341,-453,334
-20,-43,-23,31,1,-33,-26,-3,37,341,-450,330
-26,-39,-13,32,-6,-26,-20,-2,35,341,-447,331
-28,-40,-12,34,-8,-26,-18,-7,31,338,-465,327
-19,-41,-22,30,1,-31,-16,-15,26,333,-497,316
-8,-32,-24,20,8,-28,-9,-21,21,329,-509,308
-5,-20,-15,12,5,-17,-1,-21,17,330,-499,303
-17,-24,-7,20,-5,-15,-1,-14,8,331,-485,299
-37,-45,-8,41,-14,-26,-9,-8,-3,331,-480,291
-42,-70,-28,56,-7,-49,-17,-13,-14,329,-490,281
-35,-87,-52,61,8,-69,-19,-28,-19,324,-509,270
-37,-93,-56,65,9,-74,-18,-37,-15,320,-522,266
-56,-94,-38,75,-9,-66,-17,-38,-7,317,-526,267
-80,-104,-24,92,-28,-64,-21,-40,-2,316,-527,267
-99,-121,-22,110,-38,-71,-27,-42,-3,316,-529,264
-99,-125,-26,112,-36,-75,-27,-42,-4,317,-532,262
-85,-114,-29,99,-28,-71,-21,-37,-3,320,-533,265
-72,-98,-26,85,-23,-62,-16,-30,-4,324,-526,272
-59,-85,-26,72,-16,-55,-16,-29,-7,329,-517,278
-29,-79,-50,54,10,-64,-23,-44,-10,331,-521,273
12,-78,-90,33,51,-84,-36,-68,-15,331,-537,259
41,-76,-117,17,79,-96,-50,-83,-25,330,-553,248
45,-75,-120,15,82,-97,-60,-84,-36,330,-563,245
25,-84,-109,29,67,-96,-62,-78,-38,332,-567,241
-1,-99,-98,50,48,-98,-56,-71,-31,337,-567,236
-8,-99,-91,53,41,-95,-49,-63,-27,344,-564,232
-3,-88,-85,45,41,-86,-44,-55,-28,350,-561,233
-26,-90,-64,58,19,-77,-40,-51,-28,348,-561,235
-80,-105,-25,92,-27,-65,-36,-51,-22,342,-559,238
-130,-115,15,122,-72,-50,-31,-56,-14,341,-549,239
-155,-119,36,137,-95,-41,-25,-62,-8,347,-534,239
-148,-127,21,137,-84,-53,-22,-60,-13,353,-531,238
-121,-143,-22,132,-49,-82,-23,-51,-27,356,-542,238
-93,-157,-64,125,-14,-110,-25,-47,-38,354,-560,238
-79,-165,-86,122,3,-125,-26,-48,-38,353,-573,238
-80,-162,-82,121,1,-122,-19,-44,-26,362,-572,239
-94,-151,-57,122,-18,-104,-7,-36,-9,379,-560,239
-110,-140,-30,125,-40,-85,-3,-34,0,387,-554,237
-120,-131,-11,125,-54,-71,-7,-38,0,385,-555,234
-119,-118,1,118,-60,-58,-9,-37,1,387,-554,235
-103,-103,0,103,-51,-51,-6,-31,6,396,-549,243
-77,-92,-15,84,-31,-53,-1,-26,11,402,-542,253
-51,-83,-32,67,-9,-57,2,-22,14,404,-537,261
-38,-69,-31,53,-3,-50,5,-13,11,406,-534,261
-35,-52,-17,43,-9,-34,5,-4,6,408,-534,253
-30,-47,-17,38,-6,-32,0,-9,3,407,-539,242
-23,-56,-33,39,5,-44,-6,-24,3,402,-547,235
-30,-70,-40,50,5,-55,-8,-28,3,398,-553,234
-58,-85,-27,71,-15,-56,-3,-19,3,398,-553,237
-102,-99,3,100,-52,-48,4,-10,6,402,-546,240
-143,-109,34,126,-88,-37,9,-8,12,407,-535,239
-145,-111,34,128,-89,-38,6,-10,14,408,-527,237
-115,-108,7,111,-61,-50,-1,-12,10,403,-527,235
-95,-107,-12,101,-41,-59,-5,-15,7,396,-537,233
-93,-111,-18,102,-37,-64,-4,-17,5,388,-553,231
-86,-111,-25,98,-30,-68,-4,-21,1,381,-566,225
-73,-114,-41,93,-16,-77,-10,-29,-5,374,-573,214
-79,-137,-58,108,-10,-97,-19,-39,-13,365,-576,203
-103,-170,-67,136,-18,-118,-27,-47,-18,357,-576,195
-116,-180,-64,148,-26,-122,-27,-45,-16,357,-572,196
-113,-162,-49,137,-32,-105,-18,-34,-8,365,-567,204
-111,-140,-29,125,-41,-84,-9,-24,0,375,-564,212
-115,-128,-13,121,-51,-70,-2,-19,7,383,-560,219
-117,-124,-7,120,-55,-65,2,-18,10,384,-548,229
-111,-123,-12,117,-49,-67,7,-19,9,381,-533,239
-85,-117,-32,101,-26,-74,10,-18,7,379,-533,246
-50,-106,-56,78,3,-81,10,-18,5,379,-546,246
-33,-97,-64,65,15,-80,5,-21,3,380,-550,239
-38,-89,-51,63,6,-70,-2,-26,3,379,-541,230
-45,-71,-26,58,-9,-48,-3,-30,5,380,-532,230
-47,-49,-2,48,-22,-25,1,-30,10,383,-530,239
-49,-41,8,45,-28,-16,5,-26,17,386,-532,247
-50,-51,-1,50,-24,-26,6,-20,25,391,-532,251
-43,-64,-21,53,-11,-42,12,-18,32,399,-527,255
-36,-71,-35,53,0,-53,21,-18,34,406,-518,261
-48,-72,-24,60,-12,-48,24,-18,31,409,-518,262
-77,-67,10,72,-43,-28,22,-15,24,408,-527,261
-103,-58,45,80,-74,-6,28,-11,26,410,-531,266
-115,-50,65,82,-90,7,39,-7,35,411,-526,275
-115,-47,68,81,-91,10,43,0,40,403,-516,277
-102,-48,54,75,-78,3,37,6,39,386,-507,271
-78,-45,33,61,-55,-6,31,9,38,375,-510,264
-51,-39,12,45,-31,-13,27,6,39,371,-522,260
-38,-42,-4,40,-17,-23,19,0,37,368,-529,255
-39,-55,-16,47,-11,-35,6,-11,32,363,-530,247
-36,-70,-34,53,-1,-52,-7,-28,25,357,-532,239
-34,-83,-49,58,7,-66,-17,-43,19,351,-535,234
-51,-89,-38,70,-6,-63,-16,-48,20,352,-534,236
-92,-88,4,90,-48,-42,-4,-39,28,360,-527,246
-144,-84,60,114,-102,-12,12,-27,39,371,-516,260
-187,-83,104,135,-145,10,26,-19,46,379,-507,271
-190,-94,96,142,-143,1,27,-21,47,376,-509,271
-158,-112,46,135,-102,-33,18,-30,41,362,-518,262
-126,-116,10,121,-68,-53,10,-35,36,350,-524,255
-103,-103,0,103,-51,-51,5,-34,34,343,-526,253
-76,-91,-15,83,-30,-53,1,-35,33,338,-528,251
-49,-84,-35,66,-7,-59,-2,-38,30,332,-533,249
-44,-79,-35,61,-4,-57,-4,-37,27,329,-538,247
-57,-75,-18,66,-19,-46,-4,-31,24,330,-540,247
-63,-70,-7,66,-28,-38,-3,-27,25,332,-540,248
-60,-63,-3,61,-28,-33,-2,-26,30,337,-535,252
-71,-50,21,60,-46,-14,4,-19,37,346,-525,265
-92,-36,56,64,-74,10,13,-10,42,355,-517,280
-94,-36,58,65,-76,11,10,-12,40,352,-520,279
-71,-48,23,59,-47,-12,-4,-28,30,336,-535,260
-44,-55,-11,49,-16,-33,-23,-49,16,314,-556,235
-31,-53,-22,42,-4,-37,-37,-65,3,296,-572,217
-45,-53,-8,49,-18,-30,-34,-65,0,291,-571,215
-78,-53,25,65,-51,-14,-15,-49,7,300,-555,229
-99,-50,49,74,-74,0,7,-29,20,314,-537,248
-99,-44,55,71,-77,5,25,-15,31,325,-527,261
-94,-44,50,69,-72,3,27,-16,33,322,-530,259
-90,-59,31,74,-60,-14,16,-30,24,305,-543,243
-82,-91,-9,86,-36,-50,2,-47,12,289,-558,223
-71,-126,-55,98,-8,-90,-6,-59,3,277,-571,208
-65,-136,-71,100,3,-103,-10,-64,-1,269,-576,202
-66,-120,-54,93,-6,-87,-9,-63,-2,264,-575,206
-70,-106,-36,88,-17,-71,-8,-62,-7,261,-575,211
-77,-102,-25,89,-26,-63,-8,-63,-13,261,-576,216
-87,-100,-13,93,-37,-56,-10,-61,-10,265,-571,221
-96,-89,7,92,-51,-41,-10,-56,4,273,-558,225
-92,-60,32,76,-62,-14,-4,-49,23,282,-543,232
-82,-25,57,53,-69,16,5,-44,38,289,-530,240
-88,-11,77,49,-82,33,10,-42,44,292,-525,246
-113,-22,91,67,-102,34,9,-43,40,291,-526,250
-134,-33,101,83,-117,34,9,-42,38,293,-525,255
-139,-34,105,86,-122,35,12,-39,38,296,-519,261
-129,-32,97,80,-113,32,14,-38,38,296,-515,263
-114,-36,78,75,-96,21,15,-38,38,295,-513,263
-115,-54,61,84,-88,3,24,-38,40,299,-510,263
-124,-74,50,99,-87,-12,40,-33,45,308,-504,268
-110,-59,51,84,-80,-4,54,-21,50,314,-499,278
-70,-11,59,40,-64,24,64,-5,54,319,-492,291
-27,34,61,-3,-44,47,71,2,61,326,-482,300
-4,59,63,-27,-33,61,74,0,67,332,-473,302
-13,60,73,-23,-43,66,68,-8,65,325,-475,299
-42,42,84,0,-63,63,52,-18,53,306,-488,290
-54,12,66,21,-60,39,33,-29,43,289,-505,273
-47,-18,29,32,-38,5,16,-39,36,279,-518,253
-55,-35,20,45,-37,-7,1,-45,31,265,-523,246
-81,-38,43,59,-62,2,-9,-47,26,249,-519,253
-96,-41,55,68,-75,7,-17,-49,22,241,-514,261
-92,-44,48,68,-70,2,-19,-51,19,242,-509,265
-80,-36,44,58,-62,4,-17,-53,19,244,-504,271
-61,-12,49,36,-55,18,-11,-53,21,244,-499,280
-30,22,52,4,-41,37,-7,-51,26,243,-494,283
-3,50,53,-23,-28,51,-7,-51,30,240,-491,280
-18,43,61,-12,-39,52,-10,-56,24,236,-493,276
-70,2,72,34,-71,37,-16,-67,10,231,-501,273
-116,-36,80,76,-98,22,-22,-76,-1,225,-512,272
-131,-55,76,93,-103,10,-27,-83,-9,218,-523,269
-112,-57,55,84,-83,-1,-29,-92,-18,209,-529,265
-72,-48,24,60,-48,-12,-29,-103,-29,199,-530,259
-38,-38,0,38,-19,-19,-28,-108,-37,191,-531,257
-26,-34,-8,30,-9,-21,-28,-104,-42,186,-531,257
-37,-35,2,36,-19,-16,-29,-99,-42,183,-530,258
-62,-38,24,50,-43,-7,-32,-93,-40,181,-527,257
-78,-37,41,57,-59,2,-35,-90,-38,178,-526,258
-85,-32,53,58,-69,10,-37,-90,-38,172,-528,259
-103,-38,65,70,-84,13,-39,-95,-38,167,-533,254
-126,-50,76,88,-101,13,-40,-101,-36,162,-539,246
-125,-50,75,87,-100,12,-36,-99,-31,160,-541,243
-99,-39,60,69,-79,10,-31,-91,-25,161,-540,247
-79,-44,35,61,-57,-4,-27,-84,-23,158,-542,246
