I,II,III,aVR,aVL,aVF,V1,V2,V3,V4,V5,V6
126,214,87,-170,19,151,-107,-126,39,400,195,331
126,214,87,-170,19,151,-107,-126,39,400,195,331
126,214,87,-170,19,151,-107,-126,39,400,195,331
126,214,87,-170,19,151,-107,-126,39,400,195,331
126,209,82,-168,21,146,-107,-136,29,390,195,331
126,204,78,-165,24,141,-107,-136,29,390,195,331
126,200,73,-163,26,136,-107,-136,29,390,195,331
126,195,68,-161,29,131,-107,-136,29,390,195,331
141,209,68,-175,36,139,-107,-136,29,385,195,341
156,214,58,-185,48,136,-107,-136,29,380,195,341
170,219,48,-195,61,134,-107,-136,29,375,195,341
185,224,39,-204,73,131,-107,-136,29,370,195,341
165,234,68,-200,48,151,-97,-126,39,380,195,341
156,234,78,-195,39,156,-97,-126,39,380,195,341
146,234,87,-190,29,161,-97,-126,39,380,195,341
136,234,97,-185,19,165,-97,-126,39,380,195,341
146,224,78,-185,34,151,-107,-136,29,370,204,341
156,224,68,-190,43,146,-107,-136,29,370,204,341
165,224,58,-195,53,141,-107,-136,29,370,204,341
175,224,48,-200,63,136,-107,-136,29,370,204,341
190,234,43,-212,73,139,-117,-146,19,361,204,341
195,234,39,-214,78,136,-117,-146,19,361,204,341
200,234,34,-217,82,134,-117,-146,19,361,204,341
204,234,29,-219,87,131,-117,-146,19,361,204,341
195,224,29,-209,82,126,-117,-136,19,370,204,351
195,224,29,-209,82,126,-117,-136,19,370,204,351
195,224,29,-209,82,126,-117,-136,19,370,204,351
195,224,29,-209,82,126,-117,-136,19,370,204,351
175,214,39,-195,68,126,-112,-126,24,380,204,351
156,214,58,-185,48,136,-107,-117,29,380,204,351
136,214,78,-175,29,146,-102,-107,34,380,204,351
117,214,97,-165,9,156,-97,-97,39,380,204,351
136,204,68,-170,34,136,-102,-102,29,370,204,351
156,204,48,-180,53,126,-107,-107,29,370,204,351
175,204,29,-190,73,117,-112,-112,29,370,204,351
195,204,9,-200,92,107,-117,-117,29,370,204,351
190,204,14,-197,87,109,-126,-117,29,361,204,361
185,204,19,-195,82,112,-126,-117,29,361,204,361
180,204,24,-192,78,114,-126,-117,29,361,204,361
175,204,29,-190,73,117,-126,-117,29,361,204,361
156,195,39,-175,58,117,-117,-117,39,370,214,361
146,195,48,-170,48,122,-117,-117,39,370,214,361
136,195,58,-165,39,126,-117,-117,39,370,214,361
126,195,68,-161,29,131,-117,-117,39,370,214,361
146,204,58,-175,43,131,-117,-112,39,370,214,361
165,214,48,-190,58,131,-117,-107,39,370,214,361
185,224,39,-204,73,131,-117,-102,39,370,214,361
204,234,29,-219,87,131,-117,-97,39,370,214,361
190,244,53,-217,68,148,-117,-92,43,380,214,361
185,244,58,-214,63,151,-117,-87,48,380,214,361
180,244,63,-212,58,153,-117,-82,53,380,214,361
175,244,68,-209,53,156,-117,-78,58,380,214,361
180,239,58,-209,61,148,-122,-78,43,375,214,370
185,234,48,-209,68,141,-126,-78,39,370,214,370
190,229,39,-209,75,134,-131,-78,34,366,214,370
195,224,29,-209,82,126,-136,-78,29,361,214,370
175,214,39,-195,68,126,-131,-68,39,361,214,370
165,214,48,-190,58,131,-126,-68,39,361,214,370
156,214,58,-185,48,136,-122,-68,39,361,214,370
146,214,68,-180,39,141,-117,-68,39,361,214,370
170,224,53,-197,58,139,-126,-82,34,356,141,370
185,224,39,-204,73,131,-126,-87,29,351,78,370
200,224,24,-212,87,124,-126,-92,24,346,14,370
214,224,9,-219,102,117,-126,-97,19,341,-48,370
200,224,24,-212,87,124,-122,-87,24,341,-112,380
185,224,39,-204,73,131,-117,-78,29,341,-175,380
170,224,53,-197,58,139,-112,-68,34,341,-239,380
156,224,68,-190,43,146,-107,-58,39,341,-302,380
170,219,48,-195,61,134,-117,-58,29,336,-312,380
175,214,39,-195,68,126,-117,-58,29,331,-312,380
180,209,29,-195,75,119,-117,-58,29,326,-312,380
185,204,19,-195,82,112,-117,-58,29,322,-312,380
180,209,29,-195,75,119,-107,-58,39,312,-322,380
175,214,39,-195,68,126,-107,-58,39,312,-322,380
170,219,48,-195,61,134,-107,-58,39,312,-322,380
165,224,58,-195,53,141,-107,-58,39,312,-322,380
165,224,58,-195,53,141,-117,-48,29,312,-322,390
165,224,58,-195,53,141,-117,-48,29,312,-322,390
165,224,58,-195,53,141,-117,-48,29,312,-322,390
165,224,58,-195,53,141,-117,-48,29,312,-322,390
175,219,43,-197,65,131,-117,-48,19,302,-331,390
175,214,39,-195,68,126,-117,-48,19,302,-331,390
175,209,34,-192,70,122,-117,-48,19,302,-331,390
175,204,29,-190,73,117,-117,-48,19,302,-331,390
165,204,39,-185,63,122,-117,-39,29,292,-331,390
165,204,39,-185,63,122,-117,-39,29,292,-331,390
165,204,39,-185,63,122,-117,-39,29,292,-331,390
165,204,39,-185,63,122,-117,-39,29,292,-331,390
180,214,34,-197,73,124,-117,-29,29,292,-322,400
185,214,29,-200,78,122,-117,-29,29,292,-322,400
190,214,24,-202,82,119,-117,-29,29,292,-322,400
195,214,19,-204,87,117,-117,-29,29,292,-322,400
185,224,39,-204,73,131,-117,-29,29,283,-322,400
185,224,39,-204,73,131,-117,-29,29,283,-322,400
185,224,39,-204,73,131,-117,-29,29,283,-322,400
185,224,39,-204,73,131,-117,-29,29,283,-322,400
185,214,29,-200,78,122,-122,-39,19,268,-326,400
185,214,29,-200,78,122,-126,-39,19,263,-331,400
185,214,29,-200,78,122,-131,-39,19,258,-336,400
185,214,29,-200,78,122,-136,-39,19,253,-341,400
195,204,9,-200,92,107,-146,-48,9,239,-346,409
195,204,9,-200,92,107,-146,-48,9,234,-351,409
195,204,9,-200,92,107,-146,-48,9,229,-356,409
195,204,9,-200,92,107,-146,-48,9,224,-361,409
175,214,39,-195,68,126,-131,-39,14,229,-346,409
165,214,48,-190,58,131,-126,-39,19,234,-341,409
156,214,58,-185,48,136,-122,-39,24,239,-336,409
146,214,68,-180,39,141,-117,-39,29,244,-331,409
156,219,63,-187,46,141,-117,-39,29,244,-326,409
156,224,68,-190,43,146,-117,-39,29,244,-322,409
156,229,73,-192,41,151,-117,-39,29,244,-317,409
156,234,78,-195,39,156,-117,-39,29,244,-312,409
161,229,68,-195,46,148,-122,-43,19,229,-317,419
165,224,58,-195,53,141,-126,-48,19,224,-322,419
170,219,48,-195,61,134,-131,-53,19,219,-326,419
175,214,39,-195,68,126,-136,-58,19,214,-331,419
170,214,43,-192,63,129,-126,-53,29,204,-322,419
165,214,48,-190,58,131,-126,-48,29,204,-322,419
161,214,53,-187,53,134,-126,-43,29,204,-322,419
156,214,58,-185,48,136,-126,-39,29,204,-322,419
161,204,43,-183,58,124,-136,-39,24,190,-331,419
165,204,39,-185,63,122,-136,-39,19,185,-331,419
170,204,34,-187,68,119,-136,-39,14,180,-331,419
175,204,29,-190,73,117,-136,-39,9,175,-331,419
165,204,39,-185,63,122,-126,-39,9,175,-341,429
165,204,39,-185,63,122,-126,-39,9,175,-341,429
165,204,39,-185,63,122,-126,-39,9,175,-341,429
165,204,39,-185,63,122,-126,-39,9,175,-341,429
170,214,43,-192,63,129,-131,-48,9,165,-341,429
175,214,39,-195,68,126,-136,-48,9,165,-341,429
180,214,34,-197,73,124,-141,-48,9,165,-341,429
185,214,29,-200,78,122,-146,-48,9,165,-341,429
175,214,39,-195,68,126,-141,-39,9,165,-341,429
175,214,39,-195,68,126,-136,-39,9,165,-341,429
175,214,39,-195,68,126,-131,-39,9,165,-341,429
175,214,39,-195,68,126,-126,-39,9,165,-341,429
180,204,24,-192,78,114,-117,-48,9,161,-341,439
185,204,19,-195,82,112,-117,-48,9,156,-341,439
190,204,14,-197,87,109,-117,-48,9,151,-341,439
195,204,9,-200,92,107,-117,-48,9,146,-341,439
195,195,0,-195,97,97,-126,-58,4,131,-346,439
195,195,0,-195,97,97,-126,-58,0,126,-351,439
195,195,0,-195,97,97,-126,-58,-4,122,-356,439
195,195,0,-195,97,97,-126,-58,-9,117,-361,439
195,204,9,-200,92,107,-117,-48,0,117,-356,439
195,204,9,-200,92,107,-117,-48,0,117,-351,439
195,204,9,-200,92,107,-117,-48,0,117,-346,439
195,204,9,-200,92,107,-117,-48,0,117,-341,439
180,204,24,-192,78,114,-107,-43,9,122,-331,448
175,204,29,-190,73,117,-107,-39,9,126,-331,448
170,204,34,-187,68,119,-107,-34,9,131,-331,448
165,204,39,-185,63,122,-107,-29,9,136,-331,448
170,214,43,-192,63,129,-107,-24,9,131,-341,448
175,214,39,-195,68,126,-107,-19,9,126,-341,448
180,214,34,-197,73,124,-107,-14,9,122,-341,448
185,214,29,-200,78,122,-107,-9,9,117,-341,448
185,214,29,-200,78,122,-117,-4,9,117,-331,448
185,214,29,-200,78,122,-117,0,9,117,-331,448
185,214,29,-200,78,122,-117,4,9,117,-331,448
185,214,29,-200,78,122,-117,9,9,117,-331,448
185,209,24,-197,80,117,-126,14,0,117,-341,458
185,204,19,-195,82,112,-126,19,0,117,-341,458
185,200,14,-192,85,107,-126,24,0,117,-341,458
185,195,9,-190,87,102,-126,29,0,117,-341,458
180,185,4,-183,87,95,-112,39,9,117,-336,458
175,185,9,-180,82,97,-107,48,9,117,-331,458
170,185,14,-178,78,100,-102,58,9,117,-326,458
165,185,19,-175,73,102,-97,68,9,117,-322,458
175,200,24,-187,75,112,-97,78,19,122,-312,458
175,204,29,-190,73,117,-97,78,19,126,-312,458
175,209,34,-192,70,122,-97,78,19,131,-312,458
175,214,39,-195,68,126,-97,78,19,136,-312,458
175,209,34,-192,70,122,-102,68,9,131,-322,468
175,204,29,-190,73,117,-107,68,9,126,-322,468
175,200,24,-187,75,112,-112,68,9,122,-322,468
175,195,19,-185,78,107,-117,68,9,117,-322,468
185,195,9,-190,87,102,-117,68,9,107,-322,468
185,195,9,-190,87,102,-117,68,9,107,-322,468
185,195,9,-190,87,102,-117,68,9,107,-322,468
185,195,9,-190,87,102,-117,68,9,107,-322,468
195,200,4,-197,95,102,-117,78,19,117,-312,478
195,204,9,-200,92,107,-117,78,19,117,-312,478
195,209,14,-202,90,112,-117,78,19,117,-312,478
195,214,19,-204,87,117,-117,78,19,117,-312,478
209,214,4,-212,102,109,-117,78,19,117,-322,478
214,214,0,-214,107,107,-117,78,19,117,-322,478
219,214,-4,-217,112,104,-117,78,19,117,-322,478
224,214,-9,-219,117,102,-117,78,19,117,-322,478
195,229,34,-212,80,131,-97,97,39,136,-302,478
175,234,58,-204,58,146,-87,107,48,146,-292,478
156,239,82,-197,36,161,-78,117,58,156,-283,478
136,244,107,-190,14,175,-68,126,68,165,-273,478
126,248,122,-187,2,185,-58,126,73,175,-263,488
126,253,126,-190,0,190,-58,126,78,175,-263,488
126,258,131,-192,-2,195,-58,126,82,175,-263,488
126,263,136,-195,-4,200,-58,126,87,175,-263,488
151,253,102,-202,24,178,-68,112,82,170,-278,488
165,253,87,-209,39,170,-78,107,78,165,-283,488
180,253,73,-217,53,163,-87,102,73,161,-287,488
195,253,58,-224,68,156,-97,97,68,156,-292,488
190,258,68,-224,61,163,-97,112,73,170,-278,497
185,263,78,-224,53,170,-97,117,78,175,-273,497
180,268,87,-224,46,178,-97,122,82,180,-268,497
175,273,97,-224,39,185,-97,126,87,185,-263,497
165,258,92,-212,36,175,-112,131,87,180,-258,502
161,253,92,-207,34,173,-112,131,82,180,-258,502
151,253,102,-202,24,178,-112,131,82,180,-253,502
151,253,102,-202,24,178,-112,131,82,180,-253,497
156,248,92,-202,31,170,-117,126,82,170,-263,502
165,244,78,-204,43,161,-122,122,78,165,-268,497
170,239,68,-204,51,153,-126,122,78,161,-273,497
175,239,63,-207,56,151,-136,126,78,161,-273,497
190,258,68,-224,61,163,-156,136,78,161,-278,497
209,268,58,-239,75,163,-161,141,78,165,-263,507
234,283,48,-258,92,165,-170,146,78,165,-258,507
253,283,29,-268,112,156,-180,146,73,161,-258,512
239,283,43,-261,97,163,-175,156,68,161,-248,512
224,273,48,-248,87,161,-175,146,73,161,-248,502
214,268,53,-241,80,161,-185,146,78,165,-253,502
200,268,68,-234,65,168,-185,141,68,165,-258,507
209,268,58,-239,75,163,-185,141,68,165,-258,517
209,263,53,-236,78,158,-185,141,68,165,-263,517
214,253,39,-234,87,146,-180,131,63,161,-263,517
214,248,34,-231,90,141,-180,131,58,151,-273,517
219,258,39,-239,90,148,-180,122,53,151,-273,512
219,253,34,-236,92,143,-175,122,53,146,-273,507
209,253,43,-231,82,148,-175,117,39,141,-273,507
200,248,48,-224,75,148,-175,117,34,131,-278,507
190,244,53,-217,68,148,-180,107,24,117,-292,512
195,239,43,-217,75,141,-180,97,14,107,-302,517
195,229,34,-212,80,131,-180,97,14,97,-302,517
180,209,29,-195,75,119,-170,92,9,97,-302,522
170,209,39,-190,65,124,-170,97,19,107,-307,522
170,209,39,-190,65,124,-170,92,14,107,-307,522
151,209,58,-180,46,134,-170,97,14,107,-307,522
126,209,82,-168,21,146,-165,107,24,112,-302,527
126,200,73,-163,26,136,-156,102,19,117,-312,517
126,200,73,-163,26,136,-156,112,19,117,-307,531
117,195,78,-156,19,136,-156,112,14,112,-302,531
107,180,73,-143,17,126,-156,122,14,107,-302,531
102,185,82,-143,9,134,-161,136,24,107,-302,541
102,185,82,-143,9,134,-151,136,24,112,-307,541
102,185,82,-143,9,134,-151,136,29,112,-312,531
117,185,68,-151,24,126,-151,141,29,112,-317,531
92,165,73,-129,9,119,-146,146,34,112,-317,536
78,146,68,-112,4,107,-146,146,34,102,-317,536
63,136,73,-100,-4,104,-141,146,19,87,-326,527
48,122,73,-85,-12,97,-146,146,19,78,-331,531
68,126,58,-97,4,92,-146,151,4,78,-341,536
78,131,53,-104,12,92,-141,146,4,78,-336,536
92,136,43,-114,24,90,-141,146,4,82,-336,541
112,146,34,-129,39,90,-136,146,9,82,-336,546
122,151,29,-136,46,90,-131,136,9,78,-346,541
126,151,24,-139,51,87,-136,136,4,73,-346,541
131,146,14,-139,58,80,-141,131,-9,68,-346,541
131,141,9,-136,61,75,-151,122,-14,58,-351,541
117,136,19,-126,48,78,-141,136,-9,68,-341,541
97,131,34,-114,31,82,-131,141,-9,68,-341,546
78,126,48,-102,14,87,-131,146,-4,68,-346,541
58,122,63,-90,-2,92,-131,146,4,68,-346,546
68,126,58,-97,4,92,-131,151,4,73,-326,551
68,136,68,-102,0,102,-136,161,9,73,-326,551
78,141,63,-109,7,102,-136,165,9,73,-326,551
82,141,58,-112,12,100,-131,170,9,73,-331,556
82,141,58,-112,12,100,-131,165,0,63,-341,556
82,141,58,-112,12,100,-126,170,0,63,-336,556
87,146,58,-117,14,102,-131,170,4,68,-336,556
97,146,48,-122,24,97,-136,161,4,68,-336,556
92,146,53,-119,19,100,-151,161,-4,68,-356,566
92,141,48,-117,21,95,-151,156,-9,63,-346,566
92,136,43,-114,24,90,-151,156,-9,63,-346,566
87,122,34,-104,26,78,-151,161,-4,63,-346,566
68,122,53,-95,7,87,-151,175,0,68,-341,566
53,122,68,-87,-7,95,-141,200,9,78,-336,566
58,122,63,-90,-2,92,-141,214,14,82,-326,566
53,122,68,-87,-7,95,-136,224,19,87,-322,566
39,112,73,-75,-17,92,-126,195,19,82,-322,566
24,112,87,-68,-31,100,-126,165,19,82,-322,566
29,112,82,-70,-26,97,-122,136,19,82,-322,570
29,112,82,-70,-26,97,-117,107,24,82,-322,570
39,122,82,-80,-21,102,-126,73,34,82,-322,570
43,117,73,-80,-14,95,-131,34,24,73,-326,570
53,117,63,-85,-4,90,-131,-4,19,73,-331,570
58,122,63,-90,-2,92,-131,-39,19,68,-331,575
58,112,53,-85,2,82,-131,-82,19,68,-331,585
58,131,73,-95,-7,102,-131,-102,14,68,-341,585
68,136,68,-102,0,102,-131,-107,4,58,-356,585
68,126,58,-97,4,92,-131,-117,9,58,-351,585
63,122,58,-92,2,90,-126,-136,9,53,-361,585
58,117,58,-87,0,87,-112,-146,4,48,-370,585
53,102,48,-78,2,75,-102,-151,14,39,-385,585
63,112,48,-87,7,80,-73,-151,29,39,-385,585
63,117,53,-90,4,85,-53,-146,48,63,-385,595
19,117,97,-68,-39,107,-53,-117,87,87,-351,590
34,131,97,-82,-31,114,-53,-39,161,161,-278,590
102,175,73,-139,14,124,-53,78,278,292,-170,590
151,190,39,-170,56,114,-58,209,414,419,-43,600
190,214,24,-202,82,119,-29,351,551,531,43,600
263,234,-29,-248,146,102,-4,473,668,634,117,595
346,234,-112,-290,229,61,-14,556,761,736,204,600
434,248,-185,-341,309,31,-48,605,849,868,341,600
522,292,-229,-407,375,31,-92,644,956,1029,507,605
614,370,-244,-492,429,63,-170,673,1063,1220,697,600
663,444,-219,-553,441,112,-244,702,1205,1439,917,605
678,512,-165,-595,422,173,-317,712,1307,1644,1137,600
741,561,-180,-651,461,190,-419,688,1342,1786,1307,605
839,624,-214,-732,527,204,-522,644,1371,1917,1459,605
912,688,-224,-800,568,231,-590,600,1390,2025,1581,605
912,722,-190,-817,551,265,-624,488,1327,2005,1595,605
868,712,-156,-790,512,278,-668,248,1098,1776,1410,614
746,668,-78,-707,412,295,-683,-97,746,1376,1068,610
570,610,39,-590,265,324,-653,-414,400,917,658,614
448,507,58,-478,195,283,-634,-575,126,531,278,614
414,405,-9,-409,212,197,-683,-653,-73,273,9,614
390,351,-39,-370,214,156,-732,-780,-244,87,-161,614
326,302,-24,-314,175,139,-736,-888,-390,-82,-307,619
229,244,14,-236,107,129,-697,-980,-536,-268,-488,619
146,200,53,-173,46,126,-629,-1088,-688,-434,-649,624
53,190,136,-122,-41,163,-575,-1185,-795,-551,-756,619
-4,165,170,-80,-87,168,-541,-1273,-873,-629,-839,619
-24,156,180,-65,-102,168,-522,-1273,-873,-649,-858,624
-24,156,180,-65,-102,168,-502,-1185,-790,-585,-790,624
-19,156,175,-68,-97,165,-478,-1088,-692,-502,-732,629
-14,165,180,-75,-97,173,-439,-1019,-629,-453,-702,624
19,190,170,-104,-75,180,-395,-936,-561,-395,-658,629
53,209,156,-131,-51,183,-370,-839,-468,-322,-605,629
24,209,185,-117,-80,197,-356,-746,-390,-253,-566,634
0,195,195,-97,-97,195,-326,-673,-322,-219,-531,629
19,224,204,-122,-92,214,-297,-610,-263,-175,-492,634
34,244,209,-139,-87,226,-263,-556,-195,-122,-453,639
14,214,200,-114,-92,207,-239,-488,-151,-78,-414,634
14,175,161,-95,-73,168,-214,-439,-107,-48,-405,634
34,161,126,-97,-46,143,-195,-400,-78,-19,-395,639
58,180,122,-119,-31,151,-161,-361,-39,0,-375,639
82,190,107,-136,-12,148,-151,-322,-14,19,-370,639
102,200,97,-151,2,148,-146,-307,-4,24,-361,639
92,185,92,-139,0,139,-146,-307,0,24,-356,644
92,185,92,-139,0,139,-146,-297,9,29,-356,649
92,185,92,-139,0,139,-141,-292,9,29,-351,649
97,180,82,-139,7,131,-141,-287,9,29,-351,649
87,165,78,-126,4,122,-136,-283,9,29,-341,649
78,165,87,-122,-4,126,-141,-283,9,29,-351,639
78,165,87,-122,-4,126,-141,-283,9,29,-351,639
78,165,87,-122,-4,126,-146,-283,9,29,-346,644
97,180,82,-139,7,131,-146,-278,19,29,-346,644
107,185,78,-146,14,131,-141,-268,24,34,-346,649
117,190,73,-153,21,131,-136,-258,29,39,-341,649
117,195,78,-156,19,136,-131,-253,34,39,-336,658
131,195,63,-163,34,129,-136,-248,34,39,-341,658
136,195,58,-165,39,126,-136,-248,29,43,-341,658
146,190,43,-168,51,117,-136,-244,24,48,-336,663
156,190,34,-173,61,112,-131,-239,19,43,-341,668
131,185,53,-158,39,119,-122,-229,29,53,-331,668
122,180,58,-151,31,119,-117,-229,39,53,-331,668
107,170,63,-139,21,117,-117,-224,39,48,-326,668
102,165,63,-134,19,114,-122,-224,34,48,-326,663
97,165,68,-131,14,117,-117,-219,43,48,-326,658
92,170,78,-131,7,124,-107,-209,43,53,-312,658
92,175,82,-134,4,129,-92,-200,48,63,-302,673
87,175,87,-131,0,131,-82,-185,48,68,-297,678
82,170,87,-126,-2,129,-92,-190,39,53,-312,668
87,170,82,-129,2,126,-92,-190,39,48,-317,673
87,170,82,-129,2,126,-92,-195,43,48,-317,678
78,170,92,-124,-7,131,-92,-195,48,43,-317,678
82,170,87,-126,-2,129,-102,-195,48,53,-317,688
102,175,73,-139,14,124,-97,-200,48,53,-317,688
107,175,68,-141,19,122,-97,-209,48,48,-317,688
112,175,63,-143,24,119,-97,-209,43,48,-317,678
141,185,43,-163,48,114,-97,-200,43,48,-317,678
151,185,34,-168,58,109,-107,-200,39,43,-317,688
156,175,19,-165,68,97,-107,-200,39,39,-317,692
165,185,19,-175,73,102,-97,-195,43,43,-317,697
175,190,14,-183,80,102,-87,-195,39,53,-307,697
175,190,14,-183,80,102,-97,-195,39,53,-307,697
175,190,14,-183,80,102,-97,-195,39,53,-312,692
175,190,14,-183,80,102,-97,-190,39,53,-312,688
161,195,34,-178,63,114,-92,-185,43,58,-302,688
151,195,43,-173,53,119,-92,-175,48,63,-302,697
146,190,43,-168,51,117,-87,-170,58,73,-297,697
136,190,53,-163,41,122,-87,-165,63,78,-297,697
117,190,73,-153,21,131,-87,-161,73,87,-283,697
107,190,82,-148,12,136,-82,-151,78,92,-278,702
97,200,102,-148,-2,151,-82,-141,78,97,-268,707
97,200,102,-148,-2,151,-82,-136,78,97,-263,707
117,190,73,-153,21,131,-87,-136,68,87,-263,707
122,195,73,-158,24,134,-87,-136,68,87,-263,707
126,195,68,-161,29,131,-92,-136,68,82,-263,702
131,195,63,-163,34,129,-97,-126,68,82,-268,702
161,195,34,-178,63,114,-107,-126,63,82,-278,717
161,195,34,-178,63,114,-107,-131,63,78,-273,717
170,195,24,-183,73,109,-107,-136,63,82,-273,707
180,195,14,-187,82,104,-112,-141,58,78,-273,707
185,195,9,-190,87,102,-112,-131,68,78,-273,707
180,200,19,-190,80,109,-107,-131,68,78,-268,712
156,200,43,-178,56,122,-107,-131,73,78,-263,722
141,200,58,-170,41,129,-107,-131,78,82,-263,722
151,204,53,-178,48,129,-102,-122,87,82,-248,727
161,214,53,-187,53,134,-102,-117,87,87,-248,727
170,219,48,-195,61,134,-107,-107,92,92,-239,732
180,224,43,-202,68,134,-107,-102,92,92,-239,732
175,219,43,-197,65,131,-107,-102,78,102,-239,732
180,219,39,-200,70,129,-112,-102,78,102,-234,732
175,214,39,-195,68,126,-117,-97,82,107,-234,736
165,209,43,-187,61,126,-122,-97,82,107,-229,736
175,219,43,-197,65,131,-112,-87,92,107,-239,736
180,219,39,-200,70,129,-112,-87,92,112,-234,736
190,219,29,-204,80,124,-112,-82,92,112,-234,736
190,219,29,-204,80,124,-112,-82,97,122,-224,741
209,214,4,-212,102,109,-122,-73,92,117,-219,741
224,214,-9,-219,117,102,-122,-73,97,117,-219,746
244,219,-24,-231,134,97,-126,-78,97,117,-219,746
258,219,-39,-239,148,90,-136,-78,97,117,-214,751
244,219,-24,-231,134,97,-136,-63,107,126,-204,741
219,219,0,-219,109,109,-141,-58,117,131,-200,746
195,219,24,-207,85,122,-141,-39,122,136,-195,751
180,224,43,-202,68,134,-126,-29,122,141,-195,756
175,234,58,-204,58,146,-126,-19,131,156,-175,746
175,239,63,-207,56,151,-131,-9,131,161,-170,751
190,244,53,-217,68,148,-131,0,131,161,-170,756
200,244,43,-222,78,143,-146,0,136,161,-170,756
214,253,39,-234,87,146,-146,9,136,165,-161,751
214,258,43,-236,85,151,-156,19,136,170,-161,751
219,258,39,-239,90,148,-146,24,141,170,-151,761
214,263,48,-239,82,156,-136,34,151,185,-141,766
253,273,19,-263,117,146,-141,43,156,190,-131,761
268,273,4,-270,131,139,-146,48,156,195,-131,761
273,273,0,-273,136,136,-151,58,161,200,-122,761
283,278,-4,-280,143,136,-156,73,175,204,-107,775
287,278,-9,-283,148,134,-165,87,161,209,-107,771
302,278,-24,-290,163,126,-170,92,161,209,-107,775
322,278,-43,-300,183,117,-175,97,156,214,-107,775
331,278,-53,-305,192,112,-190,102,165,214,-107,785
346,297,-48,-322,197,124,-180,131,175,229,-82,785
361,302,-58,-331,209,122,-185,141,185,244,-73,785
370,302,-68,-336,219,117,-195,146,185,253,-63,785
380,302,-78,-341,229,112,-200,151,190,253,-63,785
370,292,-78,-331,224,107,-195,165,195,258,-48,785
361,292,-68,-326,214,112,-185,185,209,263,-39,785
356,297,-58,-326,207,119,-175,190,214,268,-34,790
346,292,-53,-319,200,119,-170,195,224,278,-29,790
346,283,-63,-314,204,109,-175,214,229,283,-14,795
351,287,-63,-319,207,112,-180,224,239,292,-4,795
346,287,-58,-317,202,114,-190,239,244,307,4,795
341,287,-53,-314,197,117,-195,244,248,307,9,800
341,292,-48,-317,195,122,-180,248,248,312,4,707
361,302,-58,-331,209,122,-190,258,248,322,14,619
361,307,-53,-334,207,126,-200,273,248,326,19,497
361,307,-53,-334,207,126,-200,283,258,336,29,424
380,307,-73,-344,226,117,-214,292,253,331,24,326
395,322,-73,-358,234,124,-214,307,253,336,29,248
400,326,-73,-363,236,126,-214,307,258,341,43,165
405,326,-78,-366,241,124,-209,302,258,341,43,87
409,312,-97,-361,253,107,-214,312,248,341,39,97
424,312,-112,-368,268,100,-214,307,248,341,39,97
439,307,-131,-373,285,87,-219,312,253,341,39,97
448,312,-136,-380,292,87,-224,317,253,341,48,97
434,312,-122,-373,278,95,-234,326,244,351,53,102
424,312,-112,-368,268,100,-239,336,248,351,58,107
400,302,-97,-351,248,102,-244,346,248,351,58,122
385,297,-87,-341,236,104,-244,346,248,351,58,131
375,287,-87,-331,231,100,-244,351,244,346,53,126
356,283,-73,-319,214,104,-244,351,239,341,53,126
361,278,-82,-319,222,97,-244,351,234,336,48,122
366,268,-97,-317,231,85,-244,346,224,331,39,117
356,248,-107,-302,231,70,-248,336,214,317,24,112
336,234,-102,-285,219,65,-253,326,209,312,19,112
322,219,-102,-270,212,58,-244,322,200,307,19,107
307,200,-107,-253,207,46,-248,297,190,302,9,97
307,204,-102,-256,204,51,-248,292,190,287,-4,82
302,204,-97,-253,200,53,-239,287,175,278,-19,78
297,195,-102,-246,200,46,-239,278,165,273,-29,73
292,190,-102,-241,197,43,-239,273,161,253,-43,73
287,190,-97,-239,192,46,-248,248,146,234,-58,58
283,190,-92,-236,187,48,-234,229,136,229,-73,39
278,190,-87,-234,183,51,-229,214,136,219,-78,19
248,185,-63,-217,156,61,-214,195,136,209,-82,-4
224,170,-53,-197,139,58,-209,185,122,190,-97,-14
219,170,-48,-195,134,61,-204,180,97,170,-112,-34
200,170,-29,-185,114,70,-200,175,97,165,-122,-39
190,161,-29,-175,109,65,-195,165,97,165,-136,-43
165,156,-9,-161,87,73,-190,151,97,146,-141,-48
156,156,0,-156,78,78,-185,141,82,136,-156,-58
146,156,9,-151,68,82,-175,131,73,122,-165,-68
131,156,24,-143,53,90,-161,122,73,117,-180,-68
136,151,14,-143,61,82,-170,102,63,107,-195,-82
136,156,19,-146,58,87,-165,102,63,97,-204,-87
122,156,34,-139,43,95,-165,97,63,87,-209,-92
117,161,43,-139,36,102,-165,92,58,82,-224,-97
131,151,19,-141,56,85,-161,73,48,68,-234,-112
136,151,14,-143,61,82,-161,63,39,58,-248,-112
136,141,4,-139,65,73,-161,48,34,53,-253,-117
136,136,0,-136,68,68,-161,48,29,39,-263,-126
107,136,29,-122,39,82,-146,58,34,43,-253,-117
87,136,48,-112,19,92,-141,63,39,48,-248,-117
68,136,68,-102,0,102,-136,63,48,53,-244,-107
24,136,112,-80,-43,124,-126,63,53,53,-239,-102
24,131,107,-78,-41,119,-136,63,53,39,-244,-102
29,131,102,-80,-36,117,-136,58,43,29,-258,-107
24,122,97,-73,-36,109,-151,53,39,24,-263,-107
19,117,97,-68,-39,107,-151,58,39,24,-263,-107
24,107,82,-65,-29,95,-161,58,29,14,-278,-107
34,112,78,-73,-21,95,-165,58,24,9,-283,-112
43,112,68,-78,-12,90,-165,58,24,4,-287,-117
53,112,58,-82,-2,85,-170,53,24,0,-287,-117
39,112,73,-75,-17,92,-161,63,19,9,-273,-107
39,112,73,-75,-17,92,-156,63,19,14,-273,-97
34,107,73,-70,-19,90,-151,58,19,14,-278,-87
24,102,78,-63,-26,90,-151,58,14,14,-278,-78
9,92,82,-51,-36,87,-156,68,14,4,-278,-68
14,97,82,-56,-34,90,-156,68,14,0,-283,-73
9,97,87,-53,-39,92,-151,68,14,0,-283,-58
0,97,97,-48,-48,97,-151,82,14,0,-283,-43
14,112,97,-63,-41,104,-161,78,4,-14,-292,-48
34,112,78,-73,-21,95,-165,68,-9,-24,-297,-63
39,102,63,-70,-12,82,-165,63,-9,-29,-297,-68
39,102,63,-70,-12,82,-165,58,-9,-29,-297,-63
39,102,63,-70,-12,82,-161,58,-9,-29,-287,-58
34,102,68,-68,-17,85,-161,63,-4,-29,-287,-53
19,102,82,-61,-31,92,-161,63,4,-29,-287,-53
19,102,82,-61,-31,92,-165,58,4,-24,-283,-53
39,107,68,-73,-14,87,-175,58,0,-24,-292,-63
43,112,68,-78,-12,90,-180,63,0,-24,-292,-63
53,117,63,-85,-4,90,-180,68,0,-34,-297,-68
78,122,43,-100,17,82,-175,63,-9,-39,-302,-73
43,112,68,-78,-12,90,-170,53,0,-34,-297,-68
19,107,87,-63,-34,97,-165,53,4,-24,-287,-63
0,107,107,-53,-53,107,-165,58,4,-19,-283,-58
-24,87,112,-31,-68,100,-175,63,4,-14,-278,-53
-39,63,102,-12,-70,82,-175,58,0,-39,-283,-53
-43,53,97,-4,-70,75,-175,63,-4,-34,-283,-58
-53,43,97,4,-75,70,-170,63,-9,-39,-287,-63
-58,34,92,12,-75,63,-170,58,-14,-43,-297,-78
-34,24,58,4,-46,41,-180,48,-29,-48,-302,-82
-34,24,58,4,-46,41,-185,48,-34,-63,-307,-78
-43,24,68,9,-56,46,-190,43,-34,-68,-307,-82
-53,24,78,14,-65,51,-190,39,-39,-73,-307,-97
-73,24,97,24,-85,61,-185,29,-48,-82,-317,-97
-58,24,82,17,-70,53,-185,24,-48,-82,-317,-97
-58,24,82,17,-70,53,-185,24,-48,-82,-312,-92
-58,24,82,17,-70,53,-175,29,-48,-68,-307,-82
-58,19,78,19,-68,48,-185,19,-58,-87,-317,-87
-63,14,78,24,-70,46,-185,4,-58,-97,-326,-97
-43,9,53,17,-48,31,-185,-14,-63,-102,-326,-112
-53,4,58,24,-56,31,-180,-29,-68,-102,-326,-122
-63,4,68,29,-65,36,-175,-43,-58,-97,-322,-122
-58,4,63,26,-61,34,-165,-53,-63,-97,-322,-122
-58,4,63,26,-61,34,-161,-53,-63,-92,-326,-126
-78,9,87,34,-82,48,-156,-53,-63,-87,-326,-122
-97,0,97,48,-97,48,-165,-48,-58,-82,-326,-117
-102,0,102,51,-102,51,-161,-48,-58,-73,-317,-107
-136,0,136,68,-136,68,-156,-48,-53,-68,-317,-102
-141,0,141,70,-141,70,-156,-53,-53,-73,-312,-102
-126,-14,112,70,-119,48,-170,-63,-63,-87,-322,-122
-122,-14,107,68,-114,46,-170,-78,-73,-92,-331,-131
-117,-19,97,68,-107,39,-180,-92,-82,-107,-346,-141
-102,-29,73,65,-87,21,-185,-107,-102,-122,-366,-156
-68,-24,43,46,-56,9,-175,-122,-92,-112,-361,-156
-53,-19,34,36,-43,7,-165,-126,-92,-107,-356,-156
-39,-14,24,26,-31,4,-156,-131,-87,-107,-351,-161
-14,-4,9,9,-12,2,-151,-141,-87,-117,-346,-165
-48,0,48,24,-48,24,-141,-136,-78,-107,-341,-151
-87,-4,82,46,-85,39,-136,-126,-78,-92,-326,-146
-126,-4,122,65,-124,58,-136,-117,-73,-82,-317,-131
-136,0,136,68,-136,68,-141,-107,-73,-73,-312,-122
-122,-4,117,63,-119,56,-146,-102,-82,-78,-322,-122
-107,-4,102,56,-104,48,-156,-102,-92,-78,-322,-131
-102,-4,97,53,-100,46,-156,-107,-97,-82,-326,-136
-97,-4,92,51,-95,43,-146,-107,-97,-102,-326,-146
-87,4,92,41,-90,48,-136,-92,-92,-102,-317,-141
-87,4,92,41,-90,48,-131,-82,-92,-102,-326,-131
-87,9,97,39,-92,53,-131,-73,-92,-97,-317,-112
-97,19,117,39,-107,68,-131,-63,-92,-92,-312,-107
-107,14,122,46,-114,68,-131,-63,-92,-92,-322,-112
-87,9,97,39,-92,53,-136,-63,-97,-92,-326,-126
-68,4,73,31,-70,39,-146,-68,-97,-97,-326,-131
-78,0,78,39,-78,39,-146,-68,-92,-97,-326,-136
-73,4,78,34,-75,41,-136,-53,-92,-102,-341,-136
-87,4,92,41,-90,48,-136,-48,-92,-102,-341,-141
-92,4,97,43,-95,51,-136,-48,-92,-107,-336,-146
-78,4,82,36,-80,43,-136,-43,-92,-107,-331,-146
-87,-4,82,46,-85,39,-136,-29,-87,-97,-326,-141
-87,-4,82,46,-85,39,-136,-29,-82,-92,-326,-131
-87,-4,82,46,-85,39,-131,-29,-87,-92,-331,-126
-97,-4,92,51,-95,43,-131,-29,-87,-87,-331,-131
-97,-14,82,56,-90,34,-131,-24,-97,-92,-331,-141
-112,-14,97,63,-104,41,-131,-19,-92,-87,-341,-136
-126,-19,107,73,-117,43,-126,-14,-92,-92,-331,-136
-112,-19,92,65,-102,36,-122,-4,-92,-97,-331,-136
-102,-9,92,56,-97,41,-122,-4,-102,-97,-341,-141
-97,-9,87,53,-92,39,-126,0,-102,-92,-336,-146
-87,-9,78,48,-82,34,-126,0,-102,-97,-336,-151
-82,-14,68,48,-75,26,-136,0,-102,-112,-331,-161
-102,-14,87,58,-95,36,-136,9,-112,-112,-341,-161
-102,-9,92,56,-97,41,-136,19,-112,-107,-341,-161
-102,-9,92,56,-97,41,-136,34,-112,-107,-341,-151
-92,-9,82,51,-87,36,-131,43,-112,-107,-336,-146
-73,-9,63,41,-68,26,-117,63,-102,-102,-331,-146
-87,-9,78,48,-82,34,-117,78,-102,-97,-326,-146
-107,-9,97,58,-102,43,-112,87,-102,-92,-322,-156
-107,-9,97,58,-102,43,-102,97,-102,-97,-322,-156
-122,-9,112,65,-117,51,-92,112,-78,-92,-317,-151
-126,-9,117,68,-122,53,-73,122,-68,-87,-317,-156
-126,-9,117,68,-122,53,-73,131,-53,-82,-312,-151
-122,-9,112,65,-117,51,-63,141,-43,-78,-307,-141
-112,-14,97,63,-104,41,-43,131,-43,-87,-317,-151
-126,-19,107,73,-117,43,-24,126,-39,-87,-317,-151
-117,-19,97,68,-107,39,-9,122,-39,-97,-322,-156
-107,-9,97,58,-102,43,0,117,-34,-107,-326,-161
-97,-4,92,51,-95,43,-14,126,-24,-107,-326,-170
-68,-4,63,36,-65,29,-19,126,-29,-117,-331,-175
-43,0,43,21,-43,21,-34,122,-29,-122,-341,-180
-29,4,34,12,-31,19,-39,117,-29,-122,-346,-180
-58,-14,43,36,-51,14,-29,122,-9,-107,-326,-165
-82,-24,58,53,-70,17,-14,126,0,-102,-322,-161
-117,-34,82,75,-100,24,4,136,9,-97,-312,-156
-141,-43,97,92,-119,26,24,141,19,-92,-302,-146
-151,-43,107,97,-129,31,43,136,29,-78,-302,-146
-136,-39,97,87,-117,29,39,136,29,-78,-302,-151
-136,-34,102,85,-119,34,48,136,29,-82,-302,-156
-136,-39,97,87,-117,29,58,136,29,-92,-307,-170
-122,-39,82,80,-102,21,39,122,29,-102,-317,-185
-117,-34,82,75,-100,24,24,122,29,-97,-317,-185
-126,-24,102,75,-114,39,14,122,29,-97,-317,-185
-122,-14,107,68,-114,46,14,117,24,-102,-317,-190
-107,-24,82,65,-95,29,29,107,19,-112,-341,-204
-107,-29,78,68,-92,24,43,97,19,-117,-331,-204
-131,-34,97,82,-114,31,58,92,19,-107,-336,-209
-131,-39,92,85,-112,26,73,82,14,-112,-341,-214
-122,-53,68,87,-95,7,53,68,9,-126,-346,-229
-102,-53,48,78,-75,-2,48,63,4,-131,-351,-229
-78,-48,29,63,-53,-9,43,48,-4,-136,-356,-234
-53,-48,4,51,-29,-21,19,43,-9,-141,-361,-239
-92,-39,53,65,-73,7,19,58,9,-126,-346,-229
-102,-39,63,70,-82,12,24,63,19,-122,-346,-219
-107,-39,68,73,-87,14,34,68,29,-122,-346,-219
-117,-39,78,78,-97,19,43,73,39,-117,-341,-219
-122,-43,78,82,-100,17,78,73,24,-122,-341,-224
-112,-48,63,80,-87,7,107,63,24,-126,-346,-229
-112,-48,63,80,-87,7,131,63,24,-126,-346,-229
-117,-43,73,80,-95,14,156,68,29,-126,-331,-224
-126,-34,92,80,-109,29,131,63,29,-136,-331,-224
-122,-34,87,78,-104,26,107,63,34,-136,-331,-229
-117,-34,82,75,-100,24,82,63,34,-131,-336,-234
-102,-34,68,68,-85,17,58,63,34,-131,-341,-234
-112,-43,68,78,-90,12,53,68,39,-141,-351,-234
-126,-39,87,82,-107,24,58,68,39,-136,-351,-234
-141,-39,102,90,-122,31,63,68,43,-126,-346,-229
-151,-39,112,95,-131,36,63,68,48,-126,-346,-229
-126,-39,87,82,-107,24,87,58,43,-131,-356,-229
-102,-39,63,70,-82,12,102,53,34,-141,-356,-229
-78,-39,39,58,-58,0,117,48,29,-146,-346,-229
-102,-39,63,70,-82,12,126,48,29,-151,-336,-219
-112,-53,58,82,-85,2,117,68,34,-141,-326,-209
-131,-58,73,95,-102,7,102,68,39,-131,-326,-204
-126,-58,68,92,-97,4,97,68,43,-122,-336,-204
-122,-63,58,92,-90,-2,92,58,43,-122,-346,-219
-107,-63,43,85,-75,-9,63,39,29,-136,-356,-244
-97,-68,29,82,-63,-19,48,39,29,-141,-356,-248
-117,-68,48,92,-82,-9,29,43,34,-131,-356,-248
-117,-63,53,90,-85,-4,9,53,34,-136,-356,-239
-234,-63,170,148,-202,53,131,78,73,-107,-312,-204
-200,-53,146,126,-173,46,180,78,73,-102,-312,-204
-161,-48,112,104,-136,31,209,53,53,-117,-336,-224
-190,-78,112,134,-151,17,219,48,43,-126,-336,-229
-195,-97,97,146,-146,0,224,48,39,-126,-341,-234
-180,-92,87,136,-134,-2,190,43,29,-141,-356,-239
-165,-87,78,126,-122,-4,165,39,29,-146,-361,-244
-151,-82,68,117,-109,-7,141,34,29,-151,-366,-248
-136,-78,58,107,-97,-9,117,29,29,-156,-370,-253
-146,-68,78,107,-112,4,97,19,39,-146,-366,-263
-146,-68,78,107,-112,4,78,19,39,-146,-361,-263
-146,-68,78,107,-112,4,58,19,39,-146,-356,-263
-146,-68,78,107,-112,4,39,19,39,-146,-351,-263
-131,-63,68,97,-100,2,63,29,48,-136,-341,-258
-126,-58,68,92,-97,4,78,29,48,-136,-341,-253
-122,-53,68,87,-95,7,92,29,48,-136,-341,-248
-117,-48,68,82,-92,9,107,29,48,-136,-341,-244
-107,-58,48,82,-78,-4,141,29,39,-136,-341,-248
-107,-58,48,82,-78,-4,165,29,39,-136,-341,-253
-107,-58,48,82,-78,-4,190,29,39,-136,-341,-258
-107,-58,48,82,-78,-4,214,29,39,-136,-341,-263
-122,-68,53,95,-87,-7,190,39,48,-126,-341,-263
-136,-68,68,102,-102,0,175,39,48,-126,-341,-263
-151,-68,82,109,-117,7,161,39,48,-126,-341,-263
-165,-68,97,117,-131,14,146,39,48,-126,-341,-263
-156,-78,78,117,-117,0,122,34,43,-131,-351,-268
-146,-78,68,112,-107,-4,97,29,39,-136,-351,-273
-136,-78,58,107,-97,-9,73,24,34,-141,-351,-278
-126,-78,48,102,-87,-14,48,19,29,-146,-351,-283
-141,-68,73,104,-107,2,39,34,43,-141,-346,-273
-156,-68,87,112,-122,9,39,39,48,-136,-341,-273
-170,-68,102,119,-136,17,39,43,53,-131,-336,-273
-185,-68,117,126,-151,24,39,48,58,-126,-331,-273
-165,-68,97,117,-131,14,24,39,39,-136,-341,-283
-156,-68,87,112,-122,9,19,39,29,-136,-341,-283
-146,-68,78,107,-112,4,14,39,19,-136,-341,-283
-136,-68,68,102,-102,0,9,39,9,-136,-341,-283
-136,-73,63,104,-100,-4,0,29,-4,-141,-351,-283
-136,-78,58,107,-97,-9,0,29,-9,-146,-351,-283
-136,-82,53,109,-95,-14,0,29,-14,-151,-351,-283
-136,-87,48,112,-92,-19,0,29,-19,-156,-351,-283
-126,-82,43,104,-85,-19,9,34,-9,-146,-341,-283
-126,-78,48,102,-87,-14,9,39,0,-146,-341,-283
-126,-73,53,100,-90,-9,9,43,9,-146,-341,-283
-126,-68,58,97,-92,-4,9,48,19,-146,-341,-283
-136,-58,78,97,-107,9,19,53,29,-136,-331,-283
-136,-58,78,97,-107,9,19,58,29,-136,-331,-283
-136,-58,78,97,-107,9,19,63,29,-136,-331,-283
-136,-58,78,97,-107,9,19,68,29,-136,-331,-283
-156,-73,82,114,-119,4,29,58,19,-136,-331,-283
-165,-78,87,122,-126,4,29,58,19,-136,-331,-283
-175,-82,92,129,-134,4,29,58,19,-136,-331,-283
-185,-87,97,136,-141,4,29,58,19,-136,-331,-283
-185,-87,97,136,-141,4,24,68,9,-146,-341,-292
-185,-87,97,136,-141,4,19,68,0,-146,-341,-292
-185,-87,97,136,-141,4,14,68,-9,-146,-341,-292
-185,-87,97,136,-141,4,9,68,-19,-146,-341,-292
-156,-97,58,126,-107,-19,14,53,-34,-161,-356,-302
-136,-97,39,117,-87,-29,19,48,-39,-165,-361,-312
-117,-97,19,107,-68,-39,24,43,-43,-170,-366,-322
-97,-97,0,97,-48,-48,29,39,-48,-175,-370,-331
-112,-97,14,104,-63,-41,68,53,-34,-165,-361,-322
-126,-97,29,112,-78,-34,107,58,-19,-156,-351,-312
-141,-97,43,119,-92,-26,146,63,-4,-146,-341,-302
-156,-97,58,126,-107,-19,185,68,9,-136,-331,-292
-165,-92,73,129,-119,-9,219,78,24,-122,-322,-278
-175,-87,87,131,-131,0,244,87,29,-117,-312,-273
-185,-82,102,134,-143,9,268,97,34,-112,-302,-268
-195,-78,117,136,-156,19,292,107,39,-107,-292,-263
-185,-78,107,131,-146,14,268,107,39,-97,-283,-268
-175,-78,97,126,-136,9,244,107,39,-97,-283,-273
-165,-78,87,122,-126,4,219,107,39,-97,-283,-278
-156,-78,78,117,-117,0,195,107,39,-97,-283,-283
-165,-73,92,119,-129,9,170,117,43,-97,-283,-292
-165,-68,97,117,-131,14,146,117,48,-97,-283,-292
-165,-63,102,114,-134,19,122,117,53,-97,-283,-292
-165,-58,107,112,-136,24,97,117,58,-97,-283,-292
-136,-43,92,90,-114,24,78,102,53,-107,-283,-302
-117,-39,78,78,-97,19,68,97,48,-107,-283,-302
-97,-34,63,65,-80,14,58,92,43,-107,-283,-302
-78,-29,48,53,-63,9,48,87,39,-107,-283,-302
-92,-39,53,65,-73,7,39,97,29,-97,-273,-302
-107,-39,68,73,-87,14,39,107,29,-97,-273,-302
-122,-43,78,82,-100,17,24,112,29,-92,-268,-292
-141,-48,92,95,-117,21,24,122,24,-92,-268,-287
-141,-53,87,97,-114,17,14,117,14,-97,-268,-287
-141,-58,82,100,-112,12,4,112,14,-102,-273,-292
-136,-63,73,100,-104,4,-4,102,4,-107,-278,-302
-126,-68,58,97,-92,-4,-14,92,0,-117,-287,-312
-112,-53,58,82,-85,2,-4,92,-4,-117,-292,-317
-107,-43,63,75,-85,9,-9,97,-9,-112,-292,-322
-107,-29,78,68,-92,24,-29,97,-9,-102,-287,-326
-102,-14,87,58,-95,36,-34,102,-9,-87,-273,-322
-107,-4,102,56,-104,48,-43,122,4,-78,-253,-317
-117,-9,107,63,-112,48,-53,126,4,-73,-248,-307
-131,-14,117,73,-124,51,-58,131,-4,-73,-244,-292
-146,-29,117,87,-131,43,-58,126,-4,-73,-239,-297
-126,-24,102,75,-114,39,-78,117,-9,-73,-244,-297
-112,-24,87,68,-100,31,-78,112,-29,-78,-248,-292
-97,-24,73,61,-85,24,-78,112,-34,-78,-248,-292
-82,-29,53,56,-68,12,-78,112,-39,-78,-253,-292
-68,-39,29,53,-48,-4,-87,92,-58,-92,-258,-307
-58,-43,14,51,-36,-14,-92,92,-68,-112,-273,-312
-43,-43,0,43,-21,-21,-97,78,-87,-131,-283,-326
-34,-48,-14,41,-9,-31,-97,73,-92,-146,-292,-341
-53,-58,-4,56,-24,-31,-97,73,-107,-146,-287,-346
-63,-63,0,63,-31,-31,-97,68,-112,-151,-297,-351
-63,-63,0,63,-31,-31,-92,58,-122,-151,-302,-361
-58,-63,-4,61,-26,-34,-92,48,-131,-156,-312,-361
-73,-58,14,65,-43,-21,-102,48,-131,-165,-312,-375
-92,-73,19,82,-56,-26,-92,43,-136,-165,-312,-375
-97,-73,24,85,-61,-24,-92,43,-136,-165,-317,-385
-92,-73,19,82,-56,-26,-92,34,-141,-165,-317,-385
-97,-73,24,85,-61,-24,-82,34,-141,-175,-317,-385
-107,-73,34,90,-70,-19,-78,39,-131,-170,-312,-380
-107,-68,39,87,-73,-14,-58,43,-122,-161,-312,-380
-107,-63,43,85,-75,-9,-58,53,-117,-156,-307,-366
-131,-53,78,92,-104,12,-43,58,-107,-146,-287,-351
-156,-63,92,109,-124,14,-39,73,-102,-146,-283,-346
-170,-68,102,119,-136,17,-29,82,-102,-146,-273,-341
-180,-68,112,124,-146,21,-14,87,-102,-141,-268,-336
-170,-68,102,119,-136,17,-19,82,-107,-146,-283,-361
-146,-68,78,107,-112,4,-24,82,-107,-151,-287,-366
-146,-73,73,109,-109,0,-29,78,-112,-156,-297,-370
-136,-87,48,112,-92,-19,-39,68,-112,-170,-307,-380
-131,-102,29,117,-80,-36,-48,53,-136,-185,-322,-400
-126,-112,14,119,-70,-48,-58,48,-136,-195,-331,-405
-126,-112,14,119,-70,-48,-58,43,-151,-195,-331,-414
-126,-112,14,119,-70,-48,-53,39,-151,-195,-326,-419
-131,-102,29,117,-80,-36,-43,53,-141,-185,-322,-409
-131,-97,34,114,-82,-31,-39,58,-136,-180,-317,-400
-136,-92,43,114,-90,-24,-29,68,-131,-175,-312,-390
-136,-92,43,114,-90,-24,-29,78,-131,-170,-307,-385
-126,-107,19,117,-73,-43,-43,63,-146,-175,-312,-390
-122,-112,9,117,-65,-51,-53,53,-151,-185,-322,-395
-112,-112,0,112,-56,-56,-58,48,-156,-190,-326,-405
-107,-112,-4,109,-51,-58,-53,43,-165,-195,-331,-409
-112,-112,0,112,-56,-56,-43,53,-161,-185,-326,-409
-117,-112,4,114,-61,-53,-43,48,-151,-185,-326,-409
-122,-112,9,117,-65,-51,-43,48,-146,-180,-317,-405
-136,-107,29,122,-82,-39,-48,53,-136,-180,-317,-405
-131,-97,34,114,-82,-31,-58,43,-141,-190,-322,-414
-131,-102,29,117,-80,-36,-53,43,-146,-190,-331,-409
-131,-102,29,117,-80,-36,-48,48,-151,-190,-336,-409
-131,-102,29,117,-80,-36,-39,53,-156,-190,-336,-409
-141,-97,43,119,-92,-26,-39,63,-141,-175,-331,-400
-146,-97,48,122,-97,-24,-39,53,-141,-175,-326,-400
-156,-92,63,124,-109,-14,-43,53,-151,-175,-331,-400
-161,-92,68,126,-114,-12,-43,48,-156,-180,-317,-400
-165,-97,68,131,-117,-14,-34,58,-146,-175,-307,-409
-165,-112,53,139,-109,-29,-34,63,-141,-170,-307,-409
-170,-117,53,143,-112,-31,-43,63,-141,-165,-307,-409
-180,-122,58,151,-119,-31,-43,73,-136,-156,-307,-409
-165,-131,34,148,-100,-48,-53,63,-146,-165,-307,-419
-161,-131,29,146,-95,-51,-58,58,-146,-165,-312,-419
-165,-131,34,148,-100,-48,-58,58,-146,-161,-317,-419
-170,-131,39,151,-104,-46,-58,58,-146,-161,-322,-419
-136,-126,9,131,-73,-58,-58,48,-151,-170,-331,-419
-117,-122,-4,119,-56,-63,-58,48,-151,-170,-331,-424
-97,-117,-19,107,-39,-68,-63,48,-156,-170,-331,-434
-82,-117,-34,100,-24,-75,-73,43,-170,-180,-336,-444
-97,-117,-19,107,-39,-68,-73,39,-170,-175,-336,-439
-117,-112,4,114,-61,-53,-73,39,-165,-175,-331,-439
-136,-112,24,124,-80,-43,-63,43,-161,-170,-326,-439
-156,-112,43,134,-100,-34,-73,43,-151,-165,-322,-439
-204,-146,58,175,-131,-43,-53,48,-151,-156,-317,-429
-224,-156,68,190,-146,-43,-43,58,-146,-165,-322,-429
-200,-141,58,170,-129,-41,-39,58,-146,-180,-341,-439
-175,-136,39,156,-107,-48,-24,58,-151,-185,-361,-458
-151,-141,9,146,-80,-65,-14,53,-161,-204,-385,-478
-141,-141,0,141,-70,-70,-4,53,-165,-204,-385,-488
-161,-126,34,143,-97,-46,4,78,-126,-161,-346,-468
-156,-107,48,131,-102,-29,24,126,-78,-117,-302,-434
-122,-92,29,107,-75,-31,14,195,-4,-43,-239,-385
-82,-87,-4,85,-39,-46,4,312,92,58,-141,-326
-63,-73,-9,68,-26,-41,19,444,219,175,-43,-258
-53,-48,4,51,-29,-21,48,585,356,287,63,-200
-19,-39,-19,29,0,-29,73,717,473,390,146,-156
63,-39,-102,-12,82,-70,53,819,566,492,234,-122
161,-24,-185,-68,173,-104,19,878,663,644,370,-34
268,39,-229,-153,248,-95,-24,927,780,834,575,107
361,87,-273,-224,317,-92,-102,976,907,1034,775,248
468,131,-336,-300,402,-102,-195,995,1010,1234,976,390
551,200,-351,-375,451,-75,-278,1005,1102,1420,1166,541
614,287,-326,-451,470,-19,-351,990,1166,1581,1346,692
673,380,-292,-527,483,43,-434,966,1205,1742,1527,829
727,453,-273,-590,500,90,-502,922,1234,1869,1688,956
736,488,-248,-612,492,119,-546,810,1161,1859,1712,995
663,478,-185,-570,424,146,-570,590,951,1639,1537,917
522,414,-107,-468,314,153,-566,253,590,1200,1166,717
366,326,-39,-346,202,143,-556,-92,195,702,697,448
283,224,-58,-253,170,82,-546,-283,-87,297,268,165
258,151,-107,-204,183,21,-546,-351,-268,39,-9,-48
195,97,-97,-146,146,0,-595,-468,-429,-146,-180,-165
102,48,-53,-75,78,-2,-629,-605,-605,-326,-326,-278
24,-9,-34,-7,29,-21,-600,-697,-751,-522,-507,-405
-58,-14,43,36,-51,14,-531,-785,-883,-678,-639,-507
-161,-34,126,97,-143,46,-478,-873,-990,-785,-736,-580
-239,-87,151,163,-195,31,-424,-941,-1068,-873,-829,-649
-248,-107,141,178,-195,17,-405,-941,-1078,-883,-849,-673
-239,-97,141,168,-190,21,-385,-844,-995,-819,-790,-653
-234,-87,146,161,-190,29,-370,-766,-897,-746,-732,-619
-190,-87,102,139,-146,7,-361,-707,-844,-697,-702,-624
-175,-73,102,124,-139,14,-346,-634,-795,-658,-668,-619
-161,-63,97,112,-129,17,-341,-556,-732,-614,-634,-610
-131,-73,58,102,-95,-7,-326,-492,-663,-566,-605,-585
-117,-68,48,92,-82,-9,-287,-400,-585,-502,-561,-561
-126,-58,68,92,-97,4,-239,-307,-507,-429,-512,-527
-141,-68,73,104,-107,2,-204,-244,-439,-395,-473,-502
-151,-78,73,114,-112,-2,-180,-185,-395,-361,-453,-497
-161,-78,82,119,-122,2,-156,-126,-351,-312,-424,-488
-170,-73,97,122,-134,12,-117,-78,-292,-263,-385,-463
-156,-82,73,119,-114,-4,-122,-48,-263,-244,-346,-453
-122,-92,29,107,-75,-31,-131,-29,-258,-234,-341,-463
-112,-82,29,97,-70,-26,-107,14,-219,-209,-331,-463
-122,-87,34,104,-78,-26,-92,29,-195,-190,-326,-458
-122,-87,34,104,-78,-26,-87,43,-185,-185,-326,-453
-122,-87,34,104,-78,-26,-78,53,-185,-185,-322,-453
-117,-92,24,104,-70,-34,-73,63,-185,-185,-322,-453
-107,-87,19,97,-63,-34,-82,58,-190,-190,-331,-468
-97,-87,9,92,-53,-39,-92,48,-195,-195,-341,-483
-78,-87,-9,82,-34,-48,-97,39,-200,-200,-341,-488
-58,-87,-29,73,-14,-58,-107,29,-204,-204,-336,-488
-48,-87,-39,68,-4,-63,-102,19,-195,-195,-336,-478
-48,-87,-39,68,-4,-63,-102,14,-190,-190,-336,-473
-48,-87,-39,68,-4,-63,-102,9,-185,-185,-331,-473
-58,-87,-29,73,-14,-58,-102,0,-180,-185,-326,-463
-82,-97,-14,90,-34,-56,-87,-19,-170,-170,-312,-448
-107,-97,9,102,-58,-43,-78,-34,-165,-161,-302,-444
-126,-102,24,114,-75,-39,-68,-43,-161,-151,-287,-434
-146,-102,43,124,-95,-29,-53,-53,-156,-151,-283,-424
-122,-92,29,107,-75,-31,-63,-63,-165,-151,-292,-429
-102,-92,9,97,-56,-41,-58,-63,-156,-151,-292,-434
-87,-97,-9,92,-39,-53,-58,-58,-156,-156,-287,-439
-63,-97,-34,80,-14,-65,-63,-58,-161,-156,-287,-448
-73,-107,-34,90,-19,-70,-73,-73,-170,-170,-317,-468
-73,-102,-29,87,-21,-65,-78,-73,-170,-170,-312,-473
-68,-97,-29,82,-19,-63,-78,-73,-165,-165,-312,-463
-68,-97,-29,82,-19,-63,-82,-68,-165,-165,-317,-463
-87,-102,-14,95,-36,-58,-92,-87,-156,-156,-317,-468
-87,-102,-14,95,-36,-58,-92,-92,-156,-156,-317,-468
-92,-102,-9,97,-41,-56,-92,-102,-151,-151,-312,-468
-107,-102,4,104,-56,-48,-92,-107,-146,-151,-307,-473
-117,-102,14,109,-65,-43,-92,-117,-156,-151,-297,-463
-102,-97,4,100,-53,-46,-87,-131,-156,-151,-297,-463
-102,-97,4,100,-53,-46,-87,-151,-156,-156,-297,-463
-102,-97,4,100,-53,-46,-87,-161,-161,-156,-297,-473
-78,-87,-9,82,-34,-48,-87,-165,-151,-146,-292,-468
-73,-87,-14,80,-29,-51,-97,-170,-156,-141,-287,-453
-73,-97,-24,85,-24,-61,-97,-175,-156,-136,-283,-444
-68,-87,-19,78,-24,-53,-87,-175,-151,-122,-278,-434
-78,-82,-4,80,-36,-43,-78,-170,-136,-131,-273,-444
-78,-82,-4,80,-36,-43,-87,-175,-136,-131,-278,-444
-78,-82,-4,80,-36,-43,-87,-180,-136,-131,-287,-448
-78,-82,-4,80,-36,-43,-87,-180,-136,-131,-292,-453
-68,-87,-19,78,-24,-53,-102,-195,-141,-141,-302,-458
-73,-87,-14,80,-29,-51,-102,-195,-146,-141,-302,-453
-73,-92,-19,82,-26,-56,-97,-200,-146,-136,-297,-458
-78,-92,-14,85,-31,-53,-97,-204,-151,-136,-297,-463
-73,-92,-19,82,-26,-56,-107,-214,-151,-146,-278,-463
-68,-92,-24,80,-21,-58,-102,-209,-146,-141,-278,-458
-63,-82,-19,73,-21,-51,-102,-204,-146,-136,-273,-453
-48,-82,-34,65,-7,-58,-102,-204,-146,-136,-273,-453
-39,-92,-53,65,7,-73,-107,-229,-156,-146,-278,-453
-34,-87,-53,61,9,-70,-107,-234,-156,-146,-283,-453
-29,-87,-58,58,14,-73,-112,-239,-156,-151,-287,-458
-24,-87,-63,56,19,-75,-117,-234,-156,-151,-297,-458
-24,-78,-53,51,14,-65,-112,-239,-136,-131,-283,-444
-43,-78,-34,61,-4,-56,-107,-239,-131,-126,-273,-444
-53,-78,-24,65,-14,-51,-102,-239,-126,-112,-268,-453
-63,-78,-14,70,-24,-46,-102,-239,-126,-107,-263,-453
-39,-68,-29,53,-4,-48,-112,-239,-136,-122,-273,-453
-24,-63,-39,43,7,-51,-117,-239,-136,-126,-268,-448
-29,-63,-34,46,2,-48,-126,-239,-131,-131,-263,-439
-24,-63,-39,43,7,-51,-136,-239,-126,-131,-263,-439
-34,-68,-34,51,0,-51,-122,-244,-126,-136,-258,-444
-34,-68,-34,51,0,-51,-122,-244,-126,-136,-258,-444
-34,-73,-39,53,2,-56,-126,-239,-122,-136,-248,-439
-34,-78,-43,56,4,-61,-126,-239,-122,-141,-248,-439
-34,-68,-34,51,0,-51,-117,-239,-122,-141,-239,-429
-24,-63,-39,43,7,-51,-122,-239,-117,-141,-234,-429
-24,-63,-39,43,7,-51,-126,-234,-107,-136,-234,-424
-29,-63,-34,46,2,-48,-131,-234,-102,-136,-229,-424
-43,-53,-9,48,-17,-31,-122,-229,-97,-126,-214,-409
-53,-53,0,53,-26,-26,-122,-224,-92,-122,-204,-405
-58,-53,4,56,-31,-24,-122,-214,-87,-122,-200,-400
-73,-53,19,63,-46,-17,-122,-209,-78,-112,-185,-390
-53,-53,0,53,-26,-26,-131,-219,-78,-117,-185,-395
-39,-58,-19,48,-9,-39,-131,-219,-78,-117,-190,-395
-19,-58,-39,39,9,-48,-136,-224,-82,-117,-195,-400
-4,-63,-58,34,26,-61,-146,-224,-87,-117,-195,-400
-4,-63,-58,34,26,-61,-146,-214,-87,-117,-195,-409
-14,-63,-48,39,17,-56,-151,-214,-78,-112,-190,-405
-24,-63,-39,43,7,-51,-151,-200,-73,-107,-185,-400
-24,-58,-34,41,4,-46,-136,-195,-73,-102,-185,-395
-14,-48,-34,31,9,-41,-141,-200,-63,-97,-185,-395
0,-43,-43,21,21,-43,-151,-195,-63,-92,-180,-390
29,-39,-68,4,48,-53,-156,-190,-63,-92,-180,-385
53,-39,-92,-7,73,-65,-175,-195,-58,-92,-180,-385
58,-34,-92,-12,75,-63,-180,-175,-39,-78,-170,-370
58,-24,-82,-17,70,-53,-185,-165,-39,-73,-170,-370
63,-19,-82,-21,73,-51,-170,-161,-34,-73,-161,-361
58,-9,-68,-24,63,-39,-156,-151,-24,-58,-151,-356
97,-14,-112,-41,104,-63,-175,-156,-24,-58,-161,-356
112,-19,-131,-46,122,-75,-185,-165,-29,-58,-161,-361
117,-24,-141,-46,129,-82,-195,-170,-29,-58,-151,-366
126,-24,-151,-51,139,-87,-204,-170,-19,-58,-136,-356
107,-24,-131,-41,119,-78,-195,-146,-4,-43,-126,-346
97,-24,-122,-36,109,-73,-190,-131,4,-34,-117,-336
92,-24,-117,-34,104,-70,-185,-117,9,-19,-107,-331
78,-24,-102,-26,90,-63,-190,-102,29,-9,-97,-317
63,-14,-78,-24,70,-46,-185,-82,39,4,-73,-312
68,-9,-78,-29,73,-43,-185,-73,48,19,-63,-307
68,-9,-78,-29,73,-43,-190,-68,48,29,-53,-302
68,-9,-78,-29,73,-43,-190,-63,53,29,-53,-297
92,-4,-97,-43,95,-51,-204,-58,53,34,-48,-283
107,0,-107,-53,107,-53,-204,-39,63,39,-39,-278
126,9,-117,-68,122,-53,-204,-34,63,43,-34,-268
141,9,-131,-75,136,-61,-209,-29,68,53,-29,-263
156,24,-131,-90,143,-53,-209,-14,73,58,-14,-253
165,34,-131,-100,148,-48,-209,-9,82,68,-4,-248
165,39,-126,-102,146,-43,-214,0,87,82,4,-244
165,43,-122,-104,143,-39,-214,0,92,82,9,-234
156,39,-117,-97,136,-39,-224,14,102,97,24,-214
175,39,-136,-107,156,-48,-239,24,102,107,34,-209
175,34,-141,-104,158,-53,-253,39,102,112,39,-239
175,24,-151,-100,163,-63,-258,48,112,122,48,-219
195,34,-161,-114,178,-63,-258,58,102,117,43,-219
209,48,-161,-129,185,-56,-253,73,107,122,48,-209
214,53,-161,-134,187,-53,-248,73,117,126,63,-204
219,53,-165,-136,192,-56,-239,68,122,126,63,-195
244,53,-190,-148,217,-68,-244,73,122,136,68,-185
258,58,-200,-158,229,-70,-244,63,122,136,68,-185
273,58,-214,-165,244,-78,-248,63,126,136,68,-185
283,68,-214,-175,248,-73,-253,63,126,136,78,-185
273,78,-195,-175,234,-58,-263,68,131,151,92,-180
258,78,-180,-168,219,-51,-268,82,141,156,97,-175
229,68,-161,-148,195,-46,-273,97,146,161,97,-161
209,63,-146,-136,178,-41,-273,102,151,165,97,-151
200,73,-126,-136,163,-26,-263,102,151,175,107,-146
190,78,-112,-134,151,-17,-263,107,151,175,112,-146
204,82,-122,-143,163,-19,-263,112,151,175,112,-151
219,82,-136,-151,178,-26,-263,112,146,175,107,-156
229,73,-156,-151,192,-41,-273,107,131,156,92,-170
229,68,-161,-148,195,-46,-273,102,131,146,87,-170
234,63,-170,-148,202,-53,-258,102,126,136,87,-175
239,53,-185,-146,212,-65,-258,82,122,126,78,-185
234,58,-175,-146,204,-58,-268,58,112,122,63,-200
224,58,-165,-141,195,-53,-258,53,97,112,48,-204
214,48,-165,-131,190,-58,-258,43,87,107,39,-209
204,43,-161,-124,183,-58,-258,39,82,87,24,-209
204,48,-156,-126,180,-53,-248,24,82,78,19,-219
195,53,-141,-124,168,-43,-234,4,78,73,4,-234
185,58,-126,-122,156,-34,-229,-9,82,63,0,-248
151,58,-92,-104,122,-17,-214,-29,87,53,-4,-268
146,48,-97,-97,122,-24,-224,-48,78,29,-29,-287
141,43,-97,-92,119,-26,-224,-63,48,4,-53,-307
122,39,-82,-80,102,-21,-224,-78,43,-4,-73,-312
112,24,-87,-68,100,-31,-224,-97,39,-9,-97,-317
92,14,-78,-53,85,-31,-219,-107,48,-24,-102,-336
87,9,-78,-48,82,-34,-214,-122,34,-29,-117,-351
82,4,-78,-43,80,-36,-204,-136,24,-39,-126,-366
73,0,-73,-36,73,-36,-190,-151,24,-39,-141,-370
78,4,-73,-41,75,-34,-175,-170,19,-43,-141,-375
68,9,-58,-39,63,-24,-165,-170,24,-48,-146,-370
43,9,-34,-26,39,-12,-161,-175,29,-53,-146,-366
29,14,-14,-21,21,0,-156,-180,29,-53,-156,-361
43,14,-29,-29,36,-7,-165,-195,19,-68,-165,-380
48,14,-34,-31,41,-9,-170,-209,9,-78,-180,-385
48,4,-43,-26,46,-19,-175,-229,4,-82,-185,-395
48,0,-48,-24,48,-24,-180,-234,0,-97,-195,-409
24,0,-24,-12,24,-12,-170,-224,14,-92,-185,-414
9,0,-9,-4,9,-4,-161,-219,19,-87,-190,-419
-4,0,4,2,-4,2,-151,-219,29,-82,-195,-414
-43,0,43,21,-43,21,-136,-219,34,-82,-200,-414
-34,4,39,14,-36,21,-136,-229,29,-87,-195,-419
-29,4,34,12,-31,19,-136,-244,14,-97,-209,-419
-34,-4,29,19,-31,12,-151,-258,4,-102,-214,-414
-39,-9,29,24,-34,9,-151,-263,0,-102,-214,-409
-39,0,39,19,-39,19,-151,-263,4,-102,-219,-414
-34,4,39,14,-36,21,-156,-263,4,-107,-224,-424
-29,4,34,12,-31,19,-156,-263,9,-112,-229,-434
-24,4,29,9,-26,17,-161,-268,14,-117,-229,-439
-14,14,29,0,-21,21,-170,-283,4,-131,-239,-444
0,14,14,-7,-7,14,-175,-287,0,-131,-244,-448
9,9,0,-9,4,4,-180,-297,-4,-136,-253,-453
14,4,-9,-9,12,-2,-190,-302,-14,-141,-258,-458
-14,-9,4,12,-9,-2,-185,-292,-14,-141,-268,-463
-14,-9,4,12,-9,-2,-185,-292,-14,-146,-273,-473
-24,-14,9,19,-17,-2,-180,-292,-14,-146,-273,-463
-39,-19,19,29,-29,0,-180,-278,-14,-146,-273,-453
-29,-4,24,17,-26,9,-180,-278,-9,-131,-268,-448
-14,4,19,4,-17,12,-185,-283,-19,-131,-268,-453
-14,4,19,4,-17,12,-185,-283,-14,-126,-263,-448
-19,14,34,2,-26,24,-185,-283,-9,-117,-258,-434
-9,14,24,-2,-17,19,-190,-297,-24,-126,-263,-448
-4,14,19,-4,-12,17,-190,-297,-24,-136,-268,-453
-9,14,24,-2,-17,19,-190,-302,-19,-146,-273,-463
0,14,14,-7,-7,14,-195,-312,-24,-151,-273,-473
-14,9,24,2,-19,17,-190,-307,-9,-141,-263,-458
-34,4,39,14,-36,21,-190,-297,-9,-141,-263,-453
-48,0,48,24,-48,24,-185,-287,-9,-151,-268,-453
-48,-4,43,26,-46,19,-175,-287,-19,-156,-273,-453
-34,4,39,14,-36,21,-175,-297,-19,-146,-263,-444
-19,9,29,4,-24,19,-175,-297,-14,-141,-258,-444
0,19,19,-9,-9,19,-180,-292,-14,-141,-258,-444
14,9,-4,-12,9,2,-195,-287,-14,-141,-258,-444
-9,14,24,-2,-17,19,-180,-268,-9,-146,-253,-434
-24,14,39,4,-31,26,-175,-258,-4,-131,-244,-429
-43,14,58,14,-51,36,-165,-253,0,-126,-239,-424
-58,14,73,21,-65,43,-161,-253,4,-122,-239,-429
-24,4,29,9,-26,17,-185,-258,-9,-131,-248,-444
-14,4,19,4,-17,12,-195,-263,-14,-141,-258,-439
-14,4,19,4,-17,12,-204,-273,-14,-141,-263,-444
-14,4,19,4,-17,12,-209,-283,-19,-141,-268,-458
-29,-4,24,17,-26,9,-200,-283,-9,-141,-258,-448
-19,-4,14,12,-17,4,-195,-278,-9,-141,-258,-448
-24,-4,19,14,-21,7,-190,-268,-9,-141,-253,-444
-29,-4,24,17,-26,9,-175,-253,-9,-126,-248,-434
-34,-4,29,19,-31,12,-185,-263,-19,-136,-253,-444
-43,-4,39,24,-41,17,-185,-268,-19,-146,-268,-448
-29,-4,24,17,-26,9,-185,-278,-24,-151,-273,-458
-43,-4,39,24,-41,17,-180,-283,-29,-151,-278,-463
-39,4,43,17,-41,24,-180,-273,-29,-151,-273,-463
-19,4,24,7,-21,14,-175,-278,-34,-156,-273,-463
-4,4,9,0,-7,7,-175,-273,-34,-156,-278,-468
-9,9,19,0,-14,14,-175,-268,-34,-156,-278,-463
-34,4,39,14,-36,21,-170,-253,-14,-141,-263,-444
-43,0,43,21,-43,21,-161,-244,-9,-122,-248,-429
-82,-4,78,43,-80,36,-151,-234,0,-107,-244,-419
-92,-9,82,51,-87,36,-146,-229,4,-102,-234,-414
-68,4,73,31,-70,39,-156,-239,0,-107,-239,-429
-53,14,68,19,-61,41,-161,-244,-4,-112,-244,-434
-39,19,58,9,-48,39,-175,-248,-9,-126,-253,-439
-14,19,34,-2,-24,26,-185,-253,-24,-141,-268,-448
-14,19,34,-2,-24,26,-195,-253,-34,-141,-258,-439
-24,19,43,2,-34,31,-185,-253,-34,-136,-258,-439
-34,19,53,7,-43,36,-175,-253,-29,-136,-258,-444
-34,24,58,4,-46,41,-170,-258,-29,-146,-258,-448
-39,24,63,7,-51,43,-170,-248,-19,-146,-263,-448
-58,14,73,21,-65,43,-165,-244,-19,-141,-258,-448
-78,9,87,34,-82,48,-165,-239,-14,-141,-258,-439
-68,9,78,29,-73,43,-170,-234,-14,-141,-263,-434
-39,4,43,17,-41,24,-185,-224,-14,-141,-263,-444
-19,4,24,7,-21,14,-195,-229,-24,-136,-263,-453
-9,4,14,2,-12,9,-195,-239,-29,-136,-268,-458
0,4,4,-2,-2,4,-185,-244,-29,-151,-268,-468
-19,0,19,9,-19,9,-180,-248,-34,-151,-268,-458
-29,-4,24,17,-26,9,-180,-248,-34,-151,-278,-453
-39,-4,34,21,-36,14,-185,-248,-34,-146,-268,-439
-58,0,58,29,-58,29,-190,-248,-34,-141,-263,-439
-78,0,78,39,-78,39,-180,-244,-29,-126,-258,-429
-58,0,58,29,-58,29,-185,-239,-29,-122,-258,-439
-39,0,39,19,-39,19,-195,-239,-24,-122,-253,-439
-48,0,48,24,-48,24,-195,-234,-14,-117,-248,-439
-48,9,58,19,-53,34,-185,-234,-14,-112,-244,-424
-58,14,73,21,-65,43,-185,-234,-14,-112,-244,-424
-58,19,78,19,-68,48,-185,-239,-14,-117,-239,-424
-39,24,63,7,-51,43,-185,-239,-14,-117,-234,-419
-43,14,58,14,-51,36,-185,-229,-4,-107,-229,-409
-39,14,53,12,-46,34,-185,-224,-4,-102,-229,-405
-34,14,48,9,-41,31,-180,-219,-14,-102,-234,-405
-39,14,53,12,-46,34,-180,-214,-19,-97,-234,-414
-29,4,34,12,-31,19,-185,-219,-29,-112,-248,-429
-43,4,48,19,-46,26,-190,-224,-24,-107,-263,-429
-58,0,58,29,-58,29,-190,-229,-24,-112,-258,-434
-43,0,43,21,-43,21,-190,-229,-24,-117,-263,-439
-34,4,39,14,-36,21,-185,-224,-14,-102,-258,-429
-29,9,39,9,-34,24,-185,-214,-14,-92,-248,-429
-19,14,34,2,-26,24,-180,-209,-14,-92,-244,-429
-14,14,29,0,-21,21,-185,-204,-14,-102,-234,-434
-43,4,48,19,-46,26,-180,-214,-4,-102,-244,-444
-53,9,63,21,-58,36,-175,-214,-4,-97,-244,-444
-63,9,73,26,-68,41,-170,-209,-4,-97,-244,-434
-63,9,73,26,-68,41,-161,-209,-4,-97,-239,-429
-48,29,78,9,-63,53,-170,-219,-14,-87,-239,-434
-58,29,87,14,-73,58,-175,-214,-14,-87,-239,-439
-73,29,102,21,-87,65,-175,-214,-14,-87,-239,-453
-68,29,97,19,-82,63,-170,-214,-14,-97,-244,-458
-48,29,78,9,-63,53,-185,-209,-19,-97,-234,-468
-29,29,58,0,-43,43,-180,-209,-19,-97,-239,-478
-4,29,34,-12,-19,31,-195,-209,-14,-97,-239,-478
24,29,4,-26,9,17,-200,-209,-14,-97,-239,-473
19,14,-4,-17,12,4,-195,-214,-24,-92,-239,-468
-9,9,19,0,-14,14,-190,-214,-19,-87,-239,-463
-14,9,24,2,-19,17,-190,-214,-19,-92,-244,-463
-19,19,39,0,-29,29,-195,-214,-14,-97,-248,-463
-43,29,73,7,-58,51,-185,-200,0,-87,-234,-453
-48,24,73,12,-61,48,-175,-195,0,-87,-224,-448
-58,24,82,17,-70,53,-175,-195,4,-82,-219,-444
-78,24,102,26,-90,63,-165,-195,9,-73,-209,-434
-68,14,82,26,-75,48,-175,-204,4,-82,-214,-444
-63,14,78,24,-70,46,-180,-204,0,-82,-224,-444
-68,14,82,26,-75,48,-180,-200,-4,-82,-229,-444
-63,14,78,24,-70,46,-180,-200,-9,-82,-234,-439
-48,4,53,21,-51,29,-185,-200,-14,-82,-244,-439
-29,0,29,14,-29,14,-204,-204,-19,-87,-244,-444
-24,-4,19,14,-21,7,-209,-209,-24,-97,-244,-448
-19,-19,0,19,-9,-9,-214,-214,-29,-112,-248,-463
-34,-34,0,34,-17,-17,-204,-209,-19,-107,-258,-468
-48,-34,14,41,-31,-9,-200,-209,-19,-97,-258,-468
-78,-29,48,53,-63,9,-190,-209,-19,-92,-258,-468
-92,-24,68,58,-80,21,-170,-214,-24,-92,-258,-473
-87,-9,78,48,-82,34,-180,-214,-34,-107,-258,-463
-87,-9,78,48,-82,34,-180,-214,-29,-107,-244,-458
-112,-9,102,61,-107,46,-180,-209,-24,-92,-244,-458
-112,-9,102,61,-107,46,-180,-209,-24,-92,-244,-458
-112,-19,92,65,-102,36,-175,-209,-24,-92,-244,-448
-102,-24,78,63,-90,26,-175,-209,-24,-92,-244,-444
-87,-24,63,56,-75,19,-175,-219,-29,-92,-244,-444
-73,-29,43,51,-58,7,-195,-219,-29,-92,-244,-444
-73,-29,43,51,-58,7,-200,-234,-39,-102,-248,-453
-63,-29,34,46,-48,2,-200,-239,-39,-102,-258,-453
-48,-29,19,39,-34,-4,-195,-244,-39,-107,-268,-463
-39,-29,9,34,-24,-9,-190,-248,-39,-107,-273,-473
-43,-24,19,34,-31,-2,-170,-239,-39,-102,-268,-473
-43,-29,14,36,-29,-7,-165,-239,-34,-107,-268,-473
-53,-29,24,41,-39,-2,-165,-229,-29,-107,-263,-468
-68,-24,43,46,-56,9,-165,-214,-19,-107,-244,-458
-92,-34,58,63,-75,12,-156,-209,-19,-92,-229,-448
-102,-34,68,68,-85,17,-156,-209,-14,-87,-224,-444
-112,-34,78,73,-95,21,-156,-209,-14,-78,-224,-439
-112,-34,78,73,-95,21,-156,-209,-14,-73,-224,-429
-92,-24,68,58,-80,21,-161,-204,-29,-87,-244,-429
-87,-19,68,53,-78,24,-156,-204,-29,-87,-244,-429
-82,-19,63,51,-73,21,-151,-204,-24,-82,-239,-424
-73,-19,53,46,-63,17,-151,-204,-19,-87,-239,-424
-73,-29,43,51,-58,7,-161,-209,-19,-87,-248,-434
-63,-29,34,46,-48,2,-161,-209,-24,-92,-248,-434
-53,-29,24,41,-39,-2,-161,-209,-24,-92,-239,-434
-92,-29,63,61,-78,17,-165,-204,-19,-92,-229,-424
-112,-29,82,70,-97,26,-156,-204,-19,-82,-229,-414
-131,-29,102,80,-117,36,-161,-204,-19,-82,-229,-409
-126,-24,102,75,-114,39,-156,-204,-19,-82,-239,-409
-122,-24,97,73,-109,36,-151,-214,-24,-92,-248,-424
-97,-34,63,65,-80,14,-151,-224,-29,-107,-258,-439
-87,-39,48,63,-68,4,-146,-224,-29,-112,-258,-444
-107,-39,68,73,-87,14,-146,-219,-24,-102,-258,-444
-107,-34,73,70,-90,19,-146,-209,-24,-107,-258,-434
-146,-43,102,95,-124,29,-112,-185,-4,-78,-224,-419
-170,-73,97,122,-134,12,-131,-204,-14,-92,-234,-419
-141,-68,73,104,-107,2,-170,-229,-43,-126,-258,-439
-131,-48,82,90,-107,17,-170,-224,-43,-126,-258,-434
-165,-48,117,107,-141,34,-136,-204,-19,-97,-244,-419
-156,-58,97,107,-126,19,-146,-214,-29,-107,-244,-424
-156,-58,97,107,-126,19,-146,-214,-29,-107,-244,-429
-156,-58,97,107,-126,19,-146,-214,-29,-107,-244,-434
-156,-58,97,107,-126,19,-146,-214,-29,-107,-244,-439
-141,-68,73,104,-107,2,-151,-219,-43,-122,-258,-453
-126,-68,58,97,-92,-4,-156,-224,-48,-126,-263,-458
-112,-68,43,90,-78,-12,-161,-229,-53,-131,-268,-463
-97,-68,29,82,-63,-19,-165,-234,-58,-136,-273,-468
-107,-68,39,87,-73,-14,-161,-224,-48,-122,-258,-453
-117,-68,48,92,-82,-9,-156,-224,-39,-117,-253,-448
-126,-68,58,97,-92,-4,-151,-224,-29,-112,-248,-444
-136,-68,68,102,-102,0,-146,-224,-19,-107,-244,-439
-146,-73,73,109,-109,0,-151,-229,-29,-117,-253,-429
-146,-78,68,112,-107,-4,-156,-234,-29,-117,-253,-429
-146,-82,63,114,-104,-9,-161,-239,-29,-117,-253,-429
-146,-87,58,117,-102,-14,-165,-244,-29,-117,-253,-429
-146,-82,63,114,-104,-9,-161,-239,-29,-107,-244,-429
-146,-78,68,112,-107,-4,-156,-234,-29,-107,-244,-429
-146,-73,73,109,-109,0,-151,-229,-29,-107,-244,-429
-146,-68,78,107,-112,4,-146,-224,-29,-107,-244,-429
-131,-78,53,104,-92,-12,-146,-229,-34,-122,-258,-434
-126,-78,48,102,-87,-14,-146,-234,-39,-126,-263,-439
-122,-78,43,100,-82,-17,-146,-239,-43,-131,-268,-444
-117,-78,39,97,-78,-19,-146,-244,-48,-136,-273,-448
-117,-68,48,92,-82,-9,-131,-239,-39,-126,-263,-448
-117,-68,48,92,-82,-9,-126,-234,-39,-126,-263,-448
-117,-68,48,92,-82,-9,-122,-229,-39,-126,-263,-448
-117,-68,48,92,-82,-9,-117,-224,-39,-126,-263,-448
-151,-73,78,112,-114,2,-97,-209,-24,-117,-253,-429
-175,-78,97,126,-136,9,-78,-204,-19,-107,-244,-419
-200,-82,117,141,-158,17,-58,-200,-14,-97,-234,-409
-224,-87,136,156,-180,24,-39,-195,-9,-87,-224,-400
-209,-78,131,143,-170,26,-34,-204,-24,-102,-229,-405
-204,-78,126,141,-165,24,-29,-204,-29,-107,-234,-409
-200,-78,122,139,-161,21,-24,-204,-34,-112,-239,-414
-195,-78,117,136,-156,19,-19,-204,-39,-117,-244,-419
-175,-68,107,122,-141,19,0,-214,-29,-112,-244,-429
-165,-68,97,117,-131,14,9,-214,-29,-107,-244,-429
-156,-68,87,112,-122,9,19,-214,-29,-102,-244,-429
-146,-68,78,107,-112,4,29,-214,-29,-97,-244,-429
-131,-78,53,104,-92,-12,39,-224,-34,-107,-253,-429
-126,-78,48,102,-87,-14,48,-224,-39,-107,-253,-429
-122,-78,43,100,-82,-17,58,-224,-43,-107,-253,-429
-117,-78,39,97,-78,-19,68,-224,-48,-107,-253,-429
-126,-73,53,100,-90,-9,58,-234,-48,-107,-253,-439
-126,-68,58,97,-92,-4,58,-234,-48,-107,-253,-439
-126,-63,63,95,-95,0,58,-234,-48,-107,-253,-439
-126,-58,68,92,-97,4,58,-234,-48,-107,-253,-439
-141,-63,78,102,-109,7,73,-224,-39,-107,-244,-429
-156,-68,87,112,-122,9,78,-224,-39,-107,-244,-429
-170,-73,97,122,-134,12,82,-224,-39,-107,-244,-429
-185,-78,107,131,-146,14,87,-224,-39,-107,-244,-429
-170,-68,102,119,-136,17,112,-219,-24,-92,-239,-424
-165,-68,97,117,-131,14,126,-214,-19,-87,-234,-419
-161,-68,92,114,-126,12,141,-209,-14,-82,-229,-414
-156,-68,87,112,-122,9,156,-204,-9,-78,-224,-409
-141,-53,87,97,-114,17,190,-195,0,-68,-214,-400
-136,-48,87,92,-112,19,224,-195,0,-68,-214,-400
-131,-43,87,87,-109,21,258,-195,0,-68,-214,-400
-126,-39,87,82,-107,24,292,-195,0,-68,-214,-400
-117,-29,87,73,-102,29,307,-209,-4,-73,-224,-400
-117,-29,87,73,-102,29,312,-214,-9,-78,-224,-400
-117,-29,87,73,-102,29,317,-219,-14,-82,-224,-400
-117,-29,87,73,-102,29,322,-224,-19,-87,-224,-400
-131,-29,102,80,-117,36,341,-209,-4,-73,-219,-395
-136,-29,107,82,-122,39,351,-204,0,-68,-214,-390
-141,-29,112,85,-126,41,361,-200,4,-63,-209,-385
-146,-29,117,87,-131,43,370,-195,9,-58,-204,-380
-136,-19,117,78,-126,48,375,-195,9,-48,-204,-380
-126,-19,107,73,-117,43,380,-195,9,-48,-204,-380
-117,-19,97,68,-107,39,385,-195,9,-48,-204,-380
-107,-19,87,63,-97,34,390,-195,9,-48,-204,-380
-112,-24,87,68,-100,31,409,-190,14,-34,-190,-370
-122,-29,92,75,-107,31,444,-190,14,-34,-190,-366
-136,-29,107,82,-122,39,478,-190,19,-34,-185,-361
-141,-29,112,85,-126,41,512,-190,24,-34,-185,-361
-141,-39,102,90,-122,31,541,-185,24,-24,-185,-356
-136,-39,97,87,-117,29,561,-190,19,-29,-190,-361
-136,-39,97,87,-117,29,580,-190,19,-34,-195,-361
-136,-34,102,85,-119,34,595,-185,19,-34,-195,-361
-126,-34,92,80,-109,29,566,-190,19,-34,-200,-370
-122,-24,97,73,-109,36,551,-190,19,-29,-185,-361
-112,-9,102,61,-107,46,531,-190,19,-29,-180,-361
-107,-9,97,58,-102,43,512,-195,14,-34,-180,-356
-92,4,97,43,-95,51,527,-204,-4,-39,-180,-356
-78,0,78,39,-78,39,546,-214,-4,-43,-180,-366
-58,0,58,29,-58,29,556,-214,-4,-43,-185,-366
-43,4,48,19,-46,26,575,-219,-19,-48,-190,-361
-63,0,63,31,-63,31,600,-214,-4,-39,-180,-356
-82,-9,73,46,-78,31,614,-209,0,-39,-185,-351
-97,-24,73,61,-85,24,634,-214,0,-43,-185,-346
-117,-34,82,75,-100,24,649,-209,0,-53,-195,-341
-97,-34,63,65,-80,14,639,-214,-24,-63,-200,-351
-92,-39,53,65,-73,7,644,-219,-24,-68,-204,-361
-97,-39,58,68,-78,9,644,-229,-39,-73,-209,-366
-102,-43,58,73,-80,7,644,-234,-43,-82,-219,-370
-97,-34,63,65,-80,14,624,-253,-43,-87,-224,-390
-87,-34,53,61,-70,9,610,-263,-53,-97,-234,-390
-82,-39,43,61,-63,2,595,-263,-53,-107,-234,-395
-92,-53,39,73,-65,-7,590,-268,-58,-107,-234,-395
-87,-53,34,70,-61,-9,595,-278,-63,-112,-248,-405
-73,-53,19,63,-46,-17,600,-287,-73,-117,-248,-405
-78,-53,24,65,-51,-14,605,-287,-78,-122,-248,-405
-87,-53,34,70,-61,-9,614,-283,-73,-122,-244,-400
-82,-58,24,70,-53,-17,614,-287,-73,-122,-253,-409
-87,-53,34,70,-61,-9,595,-278,-68,-117,-248,-395
-102,-53,48,78,-75,-2,575,-278,-68,-117,-244,-395
-117,-63,53,90,-85,-4,556,-268,-63,-117,-244,-395
-136,-68,68,102,-102,0,585,-253,-48,-112,-224,-390
-151,-68,82,109,-117,7,619,-253,-43,-102,-219,-385
-165,-68,97,117,-131,14,644,-253,-34,-97,-214,-390
-165,-68,97,117,-131,14,668,-248,-29,-92,-209,-385
-175,-68,107,122,-141,19,683,-239,-24,-87,-204,-375
-175,-78,97,126,-136,9,692,-244,-24,-92,-209,-380
-175,-78,97,126,-136,9,707,-248,-39,-102,-224,-395
-175,-82,92,129,-134,4,712,-253,-39,-107,-234,-395
-170,-92,78,131,-124,-7,692,-268,-53,-112,-244,-400
-175,-92,82,134,-129,-4,678,-273,-53,-117,-239,-400
-175,-92,82,134,-129,-4,658,-273,-53,-117,-239,-395
-170,-87,82,129,-126,-2,644,-273,-48,-122,-239,-390
-151,-82,68,117,-109,-7,673,-278,-53,-122,-248,-395
-136,-82,53,109,-95,-14,692,-273,-53,-122,-248,-395
-122,-87,34,104,-78,-26,712,-273,-63,-122,-248,-395
-112,-92,19,102,-65,-36,727,-278,-63,-126,-253,-395
-112,-92,19,102,-65,-36,741,-268,-63,-117,-244,-400
-117,-92,24,104,-70,-34,766,-268,-68,-117,-244,-400
-122,-92,29,107,-75,-31,780,-268,-68,-117,-248,-409
-126,-92,34,109,-80,-29,795,-273,-63,-117,-248,-409
-146,-102,43,124,-95,-29,761,-263,-53,-102,-239,-405
-165,-97,68,131,-117,-14,732,-258,-48,-102,-239,-405
-175,-97,78,136,-126,-9,707,-258,-48,-102,-239,-405
-190,-102,87,146,-139,-7,688,-258,-48,-102,-244,-400
-190,-102,87,146,-139,-7,702,-244,-58,-102,-244,-400
-190,-102,87,146,-139,-7,722,-239,-58,-102,-239,-400
-185,-97,87,141,-136,-4,732,-239,-53,-97,-239,-400
-175,-97,78,136,-126,-9,741,-248,-53,-97,-239,-400
-175,-92,82,134,-129,-4,756,-258,-53,-87,-239,-400
-170,-92,78,131,-124,-7,766,-263,-58,-92,-229,-400
-165,-92,73,129,-119,-9,775,-263,-58,-92,-229,-400
-165,-102,63,134,-114,-19,785,-258,-53,-92,-229,-400
-161,-112,48,136,-104,-31,751,-273,-63,-102,-239,-405
-161,-112,48,136,-104,-31,727,-268,-68,-107,-248,-409
-141,-112,29,126,-85,-41,692,-273,-78,-117,-253,-414
-131,-112,19,122,-75,-46,663,-283,-87,-126,-263,-419
-161,-107,53,134,-107,-26,683,-278,-73,-107,-248,-414
-180,-102,78,141,-129,-12,692,-273,-68,-102,-244,-409
-180,-97,82,139,-131,-7,707,-268,-63,-97,-239,-400
-185,-92,92,139,-139,0,722,-263,-53,-92,-234,-395
-190,-107,82,148,-136,-12,746,-263,-53,-102,-244,-400
-190,-117,73,153,-131,-21,756,-268,-63,-112,-248,-405
-185,-122,63,153,-124,-29,771,-273,-68,-112,-253,-409
-185,-122,63,153,-124,-29,785,-273,-68,-117,-253,-409
-117,-122,-4,119,-56,-63,678,-297,-87,-126,-263,-419
-97,-122,-24,109,-36,-73,649,-297,-82,-126,-273,-429
-87,-117,-29,102,-29,-73,629,-283,-82,-126,-278,-419
-97,-126,-29,112,-34,-78,619,-283,-87,-136,-283,-429
-112,-112,0,112,-56,-56,634,-273,-87,-141,-283,-429
-146,-117,29,131,-87,-43,697,-253,-63,-136,-273,-419
-200,-131,68,165,-134,-31,785,-229,-43,-126,-268,-409
-239,-141,97,190,-168,-21,844,-209,-19,-107,-268,-409
-248,-136,112,192,-180,-12,873,-195,9,-92,-258,-400
-253,-126,126,190,-190,0,854,-165,39,-68,-234,-385
-229,-122,107,175,-168,-7,805,-117,82,-4,-190,-356
-161,-97,63,129,-112,-17,756,-19,180,107,-82,-297
-102,-63,39,82,-70,-12,741,122,317,234,34,-209
-73,-58,14,65,-43,-21,732,263,444,346,131,-151
-9,-48,-39,29,14,-43,727,395,551,439,195,-117
63,-29,-92,-17,78,-61,727,507,663,541,292,-73
131,-24,-156,-53,143,-90,751,585,771,683,429,14
209,19,-190,-114,200,-85,766,624,878,863,585,126
283,78,-204,-180,244,-63,736,653,985,1054,785,268
341,141,-200,-241,270,-29,692,683,1107,1263,995,419
414,200,-214,-307,314,-7,610,712,1210,1459,1215,580
517,268,-248,-392,383,9,478,688,1244,1600,1376,712
614,341,-273,-478,444,34,326,644,1273,1742,1537,829
668,424,-244,-546,456,90,219,610,1322,1878,1688,966
649,468,-180,-558,414,143,156,517,1288,1917,1742,1024
566,458,-107,-512,336,175,122,317,1098,1737,1615,966
444,424,-19,-434,231,202,97,0,766,1376,1302,814
297,366,68,-331,114,217,117,-336,390,907,883,566
195,283,87,-239,53,185,156,-546,97,483,453,292
170,190,19,-180,75,104,195,-624,-112,175,146,58
136,136,0,-136,68,68,185,-732,-283,-29,-43,-78
73,87,14,-80,29,51,170,-868,-439,-200,-190,-209
-14,19,34,-2,-24,26,209,-961,-595,-385,-370,-356
-87,-43,43,65,-65,0,248,-1058,-746,-561,-541,-488
-161,-63,97,112,-129,17,263,-1176,-883,-697,-678,-590
-239,-78,161,158,-200,41,268,-1244,-971,-795,-761,-658
-278,-87,190,183,-234,51,297,-1234,-980,-814,-771,-663
-268,-87,180,178,-224,46,297,-1146,-897,-741,-722,-634
-253,-78,175,165,-214,48,273,-1058,-800,-658,-653,-610
-229,-78,151,153,-190,36,273,-1000,-736,-610,-624,-595
-234,-82,151,158,-192,34,317,-927,-678,-551,-580,-570
-258,-82,175,170,-217,46,400,-849,-614,-497,-536,-551
-219,-53,165,136,-192,56,483,-756,-546,-439,-497,-536
-185,-29,156,107,-170,63,561,-653,-458,-375,-453,-512
-185,-29,156,107,-170,63,610,-570,-380,-322,-405,-488
-180,-48,131,114,-156,41,634,-527,-331,-287,-385,-473
-170,-48,122,109,-146,36,629,-478,-287,-253,-356,-458
-151,-48,102,100,-126,26,605,-419,-244,-214,-326,-439
-131,-53,78,92,-104,12,585,-380,-214,-185,-307,-444
-146,-63,82,104,-114,9,570,-351,-185,-165,-287,-444
-151,-73,78,112,-114,2,561,-331,-161,-146,-263,-434
-131,-63,68,97,-100,2,556,-307,-141,-122,-253,-434
-146,-73,73,109,-109,0,575,-287,-122,-107,-239,-424
-161,-78,82,119,-122,2,585,-268,-107,-97,-239,-414
-175,-82,92,129,-134,4,600,-253,-102,-92,-234,-409
-185,-92,92,139,-139,0,610,-239,-97,-87,-234,-405
-185,-87,97,136,-141,4,634,-234,-87,-97,-234,-400
-185,-87,97,136,-141,4,649,-234,-87,-97,-244,-414
-175,-87,87,131,-131,0,668,-234,-87,-97,-244,-419
-165,-87,78,126,-122,-4,683,-234,-87,-97,-239,-419
-136,-87,48,112,-92,-19,649,-234,-82,-97,-248,-414
-126,-87,39,107,-82,-24,629,-229,-82,-92,-248,-414
-117,-87,29,102,-73,-29,610,-224,-82,-87,-244,-419
-117,-87,29,102,-73,-29,590,-224,-82,-87,-239,-414
-122,-87,34,104,-78,-26,566,-219,-78,-92,-248,-414
-126,-87,39,107,-82,-24,556,-219,-78,-82,-244,-414
-126,-92,34,109,-80,-29,546,-214,-78,-73,-234,-409
-126,-92,34,109,-80,-29,541,-209,-78,-73,-234,-405
-122,-92,29,107,-75,-31,570,-209,-78,-82,-234,-405
-112,-92,19,102,-65,-36,605,-209,-68,-82,-234,-405
-107,-97,9,102,-58,-43,634,-204,-68,-87,-229,-405
-92,-97,-4,95,-43,-51,658,-204,-73,-87,-229,-409
-92,-92,0,92,-46,-46,629,-204,-63,-78,-239,-419
-92,-82,9,87,-51,-36,614,-200,-63,-73,-224,-414
-87,-73,14,80,-51,-29,605,-195,-58,-63,-214,-395
-87,-68,19,78,-53,-24,590,-185,-58,-58,-209,-385
-107,-82,24,95,-65,-29,556,-185,-58,-68,-209,-375
-117,-82,34,100,-75,-24,541,-180,-58,-68,-209,-370
-131,-82,48,107,-90,-17,527,-180,-53,-63,-204,-366
-156,-82,73,119,-114,-4,512,-175,-48,-63,-200,-366
-146,-87,58,117,-102,-14,541,-165,-48,-53,-209,-375
-131,-87,43,109,-87,-21,566,-170,-48,-53,-209,-375
-131,-92,39,112,-85,-26,585,-180,-48,-58,-209,-375
-131,-97,34,114,-82,-31,605,-180,-53,-58,-209,-385
-126,-87,39,107,-82,-24,600,-170,-43,-53,-200,-375
-122,-87,34,104,-78,-26,585,-170,-48,-53,-200,-366
-122,-97,24,109,-73,-36,580,-170,-48,-53,-200,-361
-117,-87,29,102,-73,-29,585,-165,-43,-43,-200,-356
-117,-73,43,95,-80,-14,556,-156,-39,-43,-190,-366
-117,-73,43,95,-80,-14,527,-156,-39,-43,-190,-366
-117,-73,43,95,-80,-14,507,-156,-39,-43,-195,-370
-117,-73,43,95,-80,-14,488,-151,-39,-43,-195,-375
-107,-73,34,90,-70,-19,473,-156,-43,-48,-204,-385
-112,-78,34,95,-73,-21,473,-156,-48,-53,-204,-375
-112,-87,24,100,-68,-31,478,-161,-48,-53,-200,-375
-117,-92,24,104,-70,-34,478,-165,-53,-58,-200,-375
-107,-92,14,100,-61,-39,502,-165,-53,-58,-200,-375
-107,-92,14,100,-61,-39,531,-161,-48,-53,-200,-370
-107,-82,24,95,-65,-29,556,-156,-48,-48,-195,-366
-97,-82,14,90,-56,-34,580,-156,-48,-48,-195,-366
-87,-92,-4,90,-41,-48,531,-165,-48,-58,-200,-370
-82,-87,-4,85,-39,-46,507,-165,-48,-58,-204,-375
-78,-87,-9,82,-34,-48,478,-165,-48,-63,-209,-385
-73,-87,-14,80,-29,-51,448,-156,-48,-63,-219,-390
-73,-82,-9,78,-31,-46,439,-146,-39,-53,-204,-370
-82,-78,4,80,-43,-36,439,-141,-34,-48,-195,-366
-82,-73,9,78,-46,-31,439,-136,-29,-34,-190,-370
-82,-68,14,75,-48,-26,434,-131,-29,-29,-185,-366
-73,-73,0,73,-36,-36,458,-131,-19,-34,-180,-356
-73,-73,0,73,-36,-36,488,-131,-19,-29,-170,-351
-92,-78,14,85,-53,-31,512,-131,-14,-24,-161,-341
-102,-82,19,92,-61,-31,536,-131,-9,-14,-156,-341
-97,-73,24,85,-61,-24,527,-131,-9,-14,-161,-346
-92,-68,24,80,-58,-21,522,-126,-9,-9,-161,-346
-87,-68,19,78,-53,-24,512,-117,-4,-4,-151,-341
-82,-68,14,75,-48,-26,507,-112,-4,-4,-151,-341
-78,-63,14,70,-46,-24,483,-112,0,-4,-151,-341
-63,-53,9,58,-36,-21,453,-112,0,-4,-146,-341
-58,-48,9,53,-34,-19,424,-107,4,0,-146,-336
-58,-43,14,51,-36,-14,395,-107,4,0,-141,-336
-68,-53,14,61,-41,-19,414,-97,14,0,-151,-326
-63,-53,9,58,-36,-21,424,-97,14,4,-146,-326
-53,-53,0,53,-26,-26,434,-92,14,4,-146,-326
-53,-53,0,53,-26,-26,444,-92,19,14,-136,-322
-63,-58,4,61,-34,-26,473,-87,34,19,-122,-302
-58,-58,0,58,-29,-29,502,-82,39,19,-122,-297
-48,-53,-4,51,-21,-29,527,-82,39,19,-122,-297
-43,-53,-9,48,-17,-31,546,-78,39,19,-117,-292
-29,-43,-14,36,-7,-29,512,-78,29,19,-117,-302
-34,-43,-9,39,-12,-26,483,-78,39,24,-112,-297
-39,-43,-4,41,-17,-24,458,-63,43,29,-107,-292
-34,-39,-4,36,-14,-21,448,-58,43,34,-107,-287
-19,-39,-19,29,0,-29,419,-73,48,34,-102,-297
-9,-34,-24,21,7,-29,395,-68,43,34,-102,-292
14,-29,-43,7,29,-36,375,-63,39,29,-107,-287
34,-29,-63,-2,48,-46,341,-68,39,24,-112,-287
9,-39,-48,14,29,-43,356,-48,58,43,-97,-278
-9,-34,-24,21,7,-29,370,-39,58,53,-92,-273
-24,-34,-9,29,-7,-21,405,-34,63,58,-78,-258
-48,-29,19,39,-34,-4,439,-24,73,78,-63,-248
-29,-39,-9,34,-9,-24,463,-9,78,73,-63,-244
-24,-39,-14,31,-4,-26,488,-9,78,78,-63,-244
-29,-39,-9,34,-9,-24,512,-4,82,82,-53,-244
-29,-34,-4,31,-12,-19,536,4,97,87,-39,-229
-9,-19,-9,14,0,-14,507,9,97,97,-34,-219
9,-14,-24,2,17,-19,473,14,102,102,-29,-209
34,-9,-43,-12,39,-26,439,19,102,112,-24,-204
48,-4,-53,-21,51,-29,395,24,117,117,-19,-190
53,4,-48,-29,51,-21,385,53,126,126,4,-175
68,9,-58,-39,63,-24,370,63,136,146,14,-170
78,9,-68,-43,73,-29,351,68,136,161,24,-165
87,9,-78,-48,82,-34,336,73,141,165,24,-161
107,4,-102,-56,104,-48,356,78,136,175,29,-165
117,9,-107,-63,112,-48,380,97,151,175,39,-161
131,19,-112,-75,122,-46,405,102,156,175,43,-151
141,19,-122,-80,131,-51,424,107,165,180,48,-146
131,29,-102,-80,117,-36,448,122,180,200,68,-131
126,34,-92,-80,109,-29,473,136,190,214,82,-122
112,34,-78,-73,95,-21,492,156,195,234,97,-112
97,34,-63,-65,80,-14,517,165,200,239,107,-97
102,34,-68,-68,85,-17,488,165,190,239,107,-82
126,39,-87,-82,107,-24,444,170,190,244,112,-82
131,39,-92,-85,112,-26,400,180,190,244,112,-117
136,34,-102,-85,119,-34,366,185,200,248,117,-102
151,29,-122,-90,136,-46,331,185,190,253,112,-102
161,39,-122,-100,141,-41,312,200,195,258,117,-92
161,39,-122,-100,141,-41,292,200,204,263,131,-87
161,34,-126,-97,143,-46,278,195,209,263,131,-78
185,34,-151,-109,168,-58,292,195,200,263,136,-58
200,39,-161,-119,180,-61,312,190,200,263,136,-58
214,39,-175,-126,195,-68,326,195,204,263,136,-58
224,48,-175,-136,200,-63,341,200,204,263,146,-58
224,48,-175,-136,200,-63,361,190,204,263,151,-58
219,48,-170,-134,195,-61,375,200,209,263,156,-58
200,39,-161,-119,180,-61,390,209,209,263,156,-48
190,34,-156,-112,173,-61,409,209,209,263,156,-43
185,43,-141,-114,163,-48,380,209,209,268,161,-39
170,48,-122,-109,146,-36,361,214,209,273,170,-39
180,53,-126,-117,153,-36,341,219,209,278,175,-43
190,53,-136,-122,163,-41,322,219,204,283,175,-48
195,53,-141,-124,168,-43,292,214,200,278,161,-43
190,58,-131,-124,161,-36,273,209,200,273,156,-43
190,63,-126,-126,158,-31,268,209,195,268,156,-48
190,63,-126,-126,158,-31,248,190,190,263,146,-58
204,63,-141,-134,173,-39,268,175,185,248,146,-63
204,68,-136,-136,170,-34,297,170,175,239,136,-68
204,63,-141,-134,173,-39,317,161,170,234,131,-73
204,63,-141,-134,173,-39,336,156,170,214,122,-73
180,48,-131,-114,156,-41,361,141,156,214,107,-78
156,43,-112,-100,134,-34,390,122,146,209,92,-97
131,39,-92,-85,112,-26,409,107,146,200,87,-117
82,29,-53,-56,68,-12,439,87,146,190,82,-141
53,14,-39,-34,46,-12,419,78,151,190,78,-136
43,14,-29,-29,36,-7,409,73,126,170,63,-151
19,14,-4,-17,12,4,400,68,126,165,53,-151
4,4,0,-4,2,2,390,58,126,165,39,-151
19,14,-4,-17,12,4,361,48,126,136,24,-161
29,19,-9,-24,19,4,341,34,112,126,9,-175
39,24,-14,-31,26,4,326,19,102,112,0,-190
43,29,-14,-36,29,7,317,4,102,107,-14,-195
53,9,-43,-31,48,-17,336,-19,87,87,-29,-209
48,9,-39,-29,43,-14,351,-24,82,78,-39,-214
29,4,-24,-17,26,-9,361,-34,78,68,-43,-219
19,4,-14,-12,17,-4,370,-43,68,63,-58,-224
9,0,-9,-4,9,-4,405,-58,63,48,-73,-239
0,-4,-4,2,2,-4,424,-73,58,39,-82,-239
-14,-19,-4,17,-4,-12,444,-92,58,34,-82,-244
-29,-29,0,29,-14,-14,463,-97,58,19,-87,-253
-53,-29,24,41,-39,-2,444,-97,58,24,-87,-258
-58,-29,29,43,-43,0,434,-102,58,29,-92,-263
-63,-29,34,46,-48,2,424,-112,63,34,-97,-258
-92,-29,63,61,-78,17,419,-122,63,34,-102,-258
-78,-24,53,51,-65,14,390,-117,73,29,-97,-263
-68,-24,43,46,-56,9,370,-126,63,19,-112,-263
-68,-34,34,51,-51,0,336,-136,58,14,-117,-258
-68,-39,29,53,-48,-4,317,-136,58,14,-117,-253
-87,-29,58,58,-73,14,326,-131,63,29,-117,-244
-92,-24,68,58,-80,21,331,-126,63,29,-117,-248
-97,-24,73,61,-85,24,341,-122,68,29,-117,-253
-102,-24,78,63,-90,26,346,-122,73,29,-112,-253
-97,-14,82,56,-90,34,375,-136,68,19,-107,-263
-87,-14,73,51,-80,29,409,-141,68,24,-107,-263
-82,-19,63,51,-73,21,444,-151,68,24,-112,-263
-82,-24,58,53,-70,17,473,-156,63,24,-112,-263
-82,-34,48,58,-65,7,463,-165,58,4,-117,-273
-73,-29,43,51,-58,7,458,-165,53,0,-126,-287
-73,-29,43,51,-58,7,458,-165,48,0,-131,-283
-78,-29,48,53,-63,9,453,-151,43,0,-136,-278
-78,-14,63,46,-70,24,409,-151,48,0,-136,-278
-63,-14,48,39,-56,17,380,-156,39,-4,-141,-287
-63,-24,39,43,-51,7,356,-156,43,-4,-141,-287
-68,-24,43,46,-56,9,331,-156,48,0,-141,-278
-82,-34,48,58,-65,7,322,-151,48,9,-136,-273
-92,-34,58,63,-75,12,317,-151,53,9,-131,-268
-112,-34,78,73,-95,21,312,-156,63,9,-126,-268
-117,-34,82,75,-100,24,302,-165,63,14,-117,-268
-107,-34,73,70,-90,19,312,-165,58,14,-117,-258
-112,-34,78,73,-95,21,326,-161,58,14,-117,-258
-112,-34,78,73,-95,21,346,-156,58,4,-122,-263
-97,-34,63,65,-80,14,370,-161,48,0,-126,-268
-92,-34,58,63,-75,12,395,-165,39,-4,-131,-273
-87,-29,58,58,-73,14,419,-170,43,-4,-131,-278
-78,-19,58,48,-68,19,439,-170,43,-9,-136,-283
-73,-29,43,51,-58,7,448,-170,43,-14,-141,-287
-82,-43,39,63,-61,-2,419,-165,43,-14,-141,-283
-92,-43,48,68,-70,2,390,-161,43,-4,-136,-283
-107,-43,63,75,-85,9,366,-161,43,-4,-136,-283
-117,-43,73,80,-95,14,336,-165,43,-4,-141,-292
-97,-53,43,75,-70,-4,312,-175,34,-14,-146,-297
-92,-53,39,73,-65,-7,292,-175,34,-24,-151,-292
-97,-53,43,75,-70,-4,273,-180,39,-24,-151,-297
-102,-53,48,78,-75,-2,258,-185,39,-24,-151,-312
-97,-39,58,68,-78,9,273,-180,48,-24,-151,-302
-78,-34,43,56,-61,4,273,-180,48,-24,-151,-302
-73,-29,43,51,-58,7,273,-175,48,-24,-146,-297
-68,-24,43,46,-56,9,283,-165,48,-9,-141,-287
-82,-24,58,53,-70,17,326,-156,58,-4,-136,-278
-102,-24,78,63,-90,26,361,-161,58,-9,-141,-283
-97,-24,73,61,-85,24,395,-170,53,-9,-136,-292
-122,-24,97,73,-109,36,434,-175,48,-4,-131,-297
-107,-24,82,65,-95,29,419,-170,58,-14,-136,-297
-87,-24,63,56,-75,19,419,-180,53,-19,-136,-297
-73,-24,48,48,-61,12,414,-180,53,-19,-141,-302
-78,-19,58,48,-68,19,409,-180,53,-19,-141,-297
-82,-29,53,56,-68,12,370,-170,53,-24,-146,-302
-82,-29,53,56,-68,12,346,-165,48,-14,-141,-292
-112,-29,82,70,-97,26,322,-161,48,-9,-146,-287
-112,-29,82,70,-97,26,292,-161,43,-14,-146,-287
-122,-29,92,75,-107,31,287,-161,53,-4,-136,-287
-122,-24,97,73,-109,36,287,-165,53,-4,-136,-287
-122,-24,97,73,-109,36,278,-170,53,-14,-141,-287
-112,-29,82,70,-97,26,273,-175,43,-24,-151,-292
-102,-19,82,61,-92,31,287,-170,53,-19,-146,-283
-102,-19,82,61,-92,31,302,-165,53,-9,-141,-283
-102,-19,82,61,-92,31,317,-161,58,-4,-136,-287
-92,-14,78,53,-85,31,326,-161,58,-9,-131,-292
-102,-14,87,58,-95,36,380,-170,48,-19,-141,-292
-117,-24,92,70,-104,34,419,-165,48,-14,-131,-292
-131,-29,102,80,-117,36,453,-161,53,-14,-126,-283
-117,-29,87,73,-102,29,483,-156,53,-14,-126,-278
-97,-24,73,61,-85,24,468,-156,43,-14,-136,-278
-87,-24,63,56,-75,19,448,-161,34,-9,-136,-287
-87,-24,63,56,-75,19,439,-170,29,-9,-141,-292
-87,-24,63,56,-75,19,439,-175,29,-24,-141,-302
-97,-24,73,61,-85,24,414,-165,43,-14,-131,-292
-97,-24,73,61,-85,24,395,-161,43,-14,-141,-287
-97,-19,78,58,-87,29,370,-156,43,-9,-131,-273
-107,-9,97,58,-102,43,346,-151,43,-4,-126,-273
-102,-14,87,58,-95,36,331,-156,43,-9,-131,-283
-78,-19,58,48,-68,19,312,-161,39,-14,-141,-292
-53,-24,29,39,-41,2,287,-170,39,-24,-146,-292
-58,-29,29,43,-43,0,273,-175,43,-29,-151,-292
-78,-24,53,51,-65,14,302,-161,43,-14,-151,-287
-97,-24,73,61,-85,24,312,-156,43,-14,-146,-287
-107,-24,82,65,-95,29,322,-156,43,-19,-136,-287
-97,-24,73,61,-85,24,331,-151,43,-19,-126,-283
-107,-24,82,65,-95,29,370,-136,48,-9,-122,-278
-107,-24,82,65,-95,29,409,-136,53,-4,-122,-268
-107,-24,82,65,-95,29,453,-136,48,-4,-126,-263
-117,-24,92,70,-104,34,492,-136,48,0,-126,-268
-107,-14,92,61,-100,39,463,-136,58,-9,-117,-268
-122,-14,107,68,-114,46,444,-136,63,0,-126,-263
-136,-19,117,78,-126,48,429,-136,63,0,-117,-263
-122,-19,102,70,-112,41,414,-131,63,0,-117,-263
-107,-4,102,56,-104,48,390,-141,63,0,-126,-263
-97,0,97,48,-97,48,361,-136,63,4,-122,-263
-82,4,87,39,-85,46,336,-136,63,0,-122,-263
-73,4,78,34,-75,41,302,-136,63,-14,-117,-268
-73,0,73,36,-73,36,297,-146,63,-4,-126,-268
-73,0,73,36,-73,36,292,-146,63,0,-126,-268
-73,-4,68,39,-70,31,287,-141,63,0,-126,-258
-63,-9,53,36,-58,21,287,-141,63,0,-122,-253
-53,-4,48,29,-51,21,297,-151,53,-9,-131,-263
-68,-9,58,39,-63,24,302,-146,53,-9,-131,-263
-87,-14,73,51,-80,29,312,-146,53,-9,-131,-273
-87,-19,68,53,-78,24,326,-146,53,-19,-136,-273
-68,-29,39,48,-53,4,370,-151,53,-14,-126,-273
-58,-29,29,43,-43,0,424,-151,48,-9,-131,-283
-43,-29,14,36,-29,-7,458,-151,48,-4,-131,-283
-24,-29,-4,26,-9,-17,502,-151,43,0,-131,-278
-48,-34,14,41,-31,-9,483,-131,48,19,-122,-268
-97,-39,58,68,-78,9,473,-126,58,29,-112,-258
-122,-39,82,80,-102,21,458,-122,63,29,-107,-253
-146,-29,117,87,-131,43,439,-117,73,29,-102,-248
-141,-29,112,85,-126,41,409,-117,63,29,-107,-248
-117,-34,82,75,-100,24,390,-117,58,19,-107,-253
-97,-34,63,65,-80,14,361,-122,58,14,-112,-258
-87,-34,53,61,-70,9,341,-126,58,14,-112,-258
-73,-34,39,53,-56,2,322,-136,43,9,-117,-263
-73,-34,39,53,-56,2,317,-136,39,4,-126,-268
-82,-34,48,58,-65,7,317,-131,34,0,-131,-273
-82,-34,48,58,-65,7,317,-131,29,-4,-136,-273
-87,-39,48,63,-68,4,326,-126,39,9,-136,-278
-78,-39,39,58,-58,0,322,-126,39,9,-136,-278
-82,-39,43,61,-63,2,331,-126,39,4,-136,-278
-87,-48,39,68,-63,-4,341,-126,39,-4,-141,-287
-87,-43,43,65,-65,0,385,-122,39,4,-146,-283
-87,-43,43,65,-65,0,424,-122,39,9,-141,-283
-102,-39,63,70,-82,12,468,-122,39,9,-136,-283
-102,-34,68,68,-85,17,522,-126,34,4,-131,-287
-117,-29,87,73,-102,29,527,-117,43,4,-131,-283
-126,-29,97,78,-112,34,531,-117,48,9,-117,-273
-161,-29,131,95,-146,51,536,-112,53,29,-117,-268
-170,-29,141,100,-156,56,541,-112,53,34,-117,-263
-156,-43,112,100,-134,34,502,-112,43,19,-126,-273
-141,-43,97,92,-119,26,478,-112,43,14,-126,-268
-122,-39,82,80,-102,21,453,-122,39,9,-126,-268
-102,-39,63,70,-82,12,409,-122,39,4,-126,-268
-107,-39,68,73,-87,14,370,-131,29,4,-126,-268
-102,-39,63,70,-82,12,346,-131,29,4,-131,-268
-92,-39,53,65,-73,7,326,-131,29,0,-136,-278
-87,-39,48,63,-68,4,307,-131,29,0,-136,-287
-87,-43,43,65,-65,0,302,-122,34,0,-136,-287
-82,-48,34,65,-58,-7,292,-131,34,0,-141,-287
-87,-48,39,68,-63,-4,278,-131,34,4,-141,-283
-97,-43,53,70,-75,4,263,-126,39,9,-126,-273
-102,-43,58,73,-80,7,283,-122,39,9,-117,-268
-102,-43,58,73,-80,7,292,-122,43,9,-117,-268
-102,-43,58,73,-80,7,302,-122,43,14,-122,-268
-92,-43,48,68,-70,2,312,-122,43,14,-126,-263
-82,-53,29,68,-56,-12,346,-126,39,4,-126,-273
-87,-48,39,68,-63,-4,390,-126,39,9,-126,-273
-92,-48,43,70,-68,-2,434,-126,43,19,-122,-268
-92,-48,43,70,-68,-2,473,-126,48,19,-122,-268
-97,-48,48,73,-73,0,453,-122,48,19,-141,-268
-92,-48,43,70,-68,-2,444,-122,43,14,-141,-268
-87,-48,39,68,-63,-4,434,-122,43,14,-131,-268
-131,-48,82,90,-107,17,419,-117,48,14,-122,-258
-117,-58,58,87,-87,0,385,-112,43,14,-126,-273
-122,-58,63,90,-92,2,346,-117,39,14,-131,-273
-102,-53,48,78,-75,-2,317,-122,34,14,-146,-278
-82,-53,29,68,-56,-12,287,-136,24,4,-161,-297
-73,-43,29,58,-51,-7,268,-141,29,-4,-161,-307
-68,-48,19,58,-43,-14,263,-136,29,-4,-161,-307
-92,-48,43,70,-68,-2,253,-126,34,9,-161,-302
-97,-43,53,70,-75,4,244,-112,34,9,-161,-287
-156,-43,112,100,-134,34,268,-107,43,19,-146,-283
-131,-24,107,78,-119,41,268,-107,43,14,-146,-273
-131,-39,92,85,-112,26,268,-102,43,9,-141,-263
-122,-29,92,75,-107,31,287,-107,43,9,-141,-268
-97,-19,78,58,-87,29,341,-107,39,9,-136,-283
-87,-29,58,58,-73,14,375,-107,39,19,-126,-283
-87,-29,58,58,-73,14,400,-107,39,19,-126,-283
-87,-29,58,58,-73,14,424,-107,39,19,-126,-283
-87,-29,58,58,-73,14,448,-107,39,19,-126,-283
-102,-34,68,68,-85,17,458,-102,48,29,-117,-278
-107,-39,68,73,-87,14,458,-97,48,29,-117,-273
-112,-43,68,78,-90,12,458,-92,48,29,-117,-268
-117,-48,68,82,-92,9,458,-87,48,29,-117,-263
-117,-53,63,85,-90,4,424,-97,39,24,-122,-273
-117,-58,58,87,-87,0,400,-97,39,19,-126,-273
-117,-63,53,90,-85,-4,375,-97,39,14,-131,-273
-117,-68,48,92,-82,-9,351,-97,39,9,-136,-273
-117,-68,48,92,-82,-9,326,-87,48,19,-126,-273
-117,-68,48,92,-82,-9,312,-87,48,19,-126,-273
-117,-68,48,92,-82,-9,297,-87,48,19,-126,-273
-117,-68,48,92,-82,-9,283,-87,48,19,-126,-273
-107,-58,48,82,-78,-4,273,-97,48,19,-136,-273
-107,-58,48,82,-78,-4,263,-97,48,19,-136,-273
-107,-58,48,82,-78,-4,253,-97,48,19,-136,-273
-107,-58,48,82,-78,-4,244,-97,48,19,-136,-273
-117,-68,48,92,-82,-9,253,-97,48,9,-126,-273
-117,-68,48,92,-82,-9,253,-97,48,9,-126,-273
-117,-68,48,92,-82,-9,253,-97,48,9,-126,-273
-117,-68,48,92,-82,-9,253,-97,48,9,-126,-273
-102,-68,34,85,-68,-17,302,-97,39,0,-141,-283
-97,-68,29,82,-63,-19,341,-97,39,0,-146,-283
-92,-68,24,80,-58,-21,380,-97,39,0,-151,-283
-87,-68,19,78,-53,-24,419,-97,39,0,-156,-283
-97,-68,29,82,-63,-19,424,-107,39,-9,-156,-292
-97,-68,29,82,-63,-19,429,-107,39,-9,-156,-292
-97,-68,29,82,-63,-19,434,-107,39,-9,-156,-292
-97,-68,29,82,-63,-19,439,-107,39,-9,-156,-292
-102,-68,34,85,-68,-17,419,-97,48,4,-141,-287
-107,-68,39,87,-73,-14,400,-97,48,9,-136,-283
-112,-68,43,90,-78,-12,380,-97,48,14,-131,-278
-117,-68,48,92,-82,-9,361,-97,48,19,-126,-273
-112,-58,53,85,-82,-2,336,-97,48,14,-131,-273
-107,-58,48,82,-78,-4,312,-97,48,9,-136,-273
-102,-58,43,80,-73,-7,287,-97,48,4,-141,-273
-97,-58,39,78,-68,-9,263,-97,48,0,-146,-273
-97,-58,39,78,-68,-9,253,-97,39,9,-136,-273
-97,-58,39,78,-68,-9,244,-97,39,9,-136,-273
-97,-58,39,78,-68,-9,234,-97,39,9,-136,-273
-97,-58,39,78,-68,-9,224,-97,39,9,-136,-273
-112,-58,53,85,-82,-2,224,-87,48,19,-136,-263
-117,-58,58,87,-87,0,224,-87,48,19,-136,-263
-122,-58,63,90,-92,2,224,-87,48,19,-136,-263
-126,-58,68,92,-97,4,224,-87,48,19,-136,-263
-136,-63,73,100,-104,4,239,-78,48,19,-126,-253
-136,-68,68,102,-102,0,253,-78,48,19,-126,-253
-136,-73,63,104,-100,-4,268,-78,48,19,-126,-253
-136,-78,58,107,-97,-9,283,-78,48,19,-126,-253
-131,-68,63,100,-97,-2,331,-78,48,19,-126,-263
-126,-68,58,97,-92,-4,370,-78,48,19,-126,-263
-122,-68,53,95,-87,-7,409,-78,48,19,-126,-263
-117,-68,48,92,-82,-9,448,-78,48,19,-126,-263
-107,-58,48,82,-78,-4,468,-87,39,14,-131,-278
-97,-58,39,78,-68,-9,478,-87,39,9,-136,-283
-87,-58,29,73,-58,-14,488,-87,39,4,-141,-287
-78,-58,19,68,-48,-19,497,-87,39,0,-146,-292
-92,-48,43,70,-68,-2,478,-73,53,14,-141,-287
-107,-48,58,78,-82,4,458,-68,58,19,-136,-283
-122,-48,73,85,-97,12,439,-63,63,24,-131,-278
-136,-48,87,92,-112,19,419,-58,68,29,-126,-273
-122,-43,78,82,-100,17,395,-53,78,29,-117,-268
-117,-39,78,78,-97,19,370,-48,78,29,-117,-263
-112,-34,78,73,-95,21,346,-43,78,29,-117,-258
-107,-29,78,68,-92,24,322,-39,78,29,-117,-253
-97,-39,58,68,-78,9,297,-39,87,39,-107,-244
-97,-39,58,68,-78,9,283,-39,87,39,-107,-244
-97,-39,58,68,-78,9,268,-39,87,39,-107,-244
-97,-39,58,68,-78,9,253,-39,87,39,-107,-244
-87,-29,58,58,-73,14,253,-48,78,39,-117,-244
-87,-29,58,58,-73,14,253,-48,78,39,-117,-244
-87,-29,58,58,-73,14,253,-48,78,39,-117,-244
-87,-29,58,58,-73,14,253,-48,78,39,-117,-244
-78,-19,58,48,-68,19,278,-39,87,48,-107,-234
-78,-19,58,48,-68,19,292,-39,87,48,-107,-234
-78,-19,58,48,-68,19,307,-39,87,48,-107,-234
-78,-19,58,48,-68,19,322,-39,87,48,-107,-234
-87,-34,53,61,-70,9,351,-29,92,58,-92,-224
-102,-39,63,70,-82,12,395,-24,92,63,-92,-219
-122,-39,82,80,-102,21,439,-19,97,68,-87,-214
-131,-39,92,85,-112,26,483,-14,102,73,-87,-214
-102,-29,73,65,-87,21,468,-29,87,68,-97,-224
-78,-29,48,53,-63,9,463,-34,78,58,-102,-234
-58,-29,29,43,-43,0,458,-34,73,48,-107,-239
-39,-24,14,31,-26,-4,448,-29,68,43,-107,-244
-53,-14,39,34,-46,12,405,-19,82,53,-102,-234
-53,-4,48,29,-51,21,375,-14,87,68,-87,-224
-48,9,58,19,-53,34,341,-9,92,78,-82,-224
-48,9,58,19,-53,34,307,-9,92,82,-82,-219
-68,0,68,34,-68,34,283,0,92,87,-73,-200
-78,-9,68,43,-73,29,263,-9,92,82,-73,-209
-82,-14,68,48,-75,26,234,-9,92,82,-78,-209
-92,-14,78,53,-85,31,214,-14,78,78,-82,-204
-82,-14,68,48,-75,26,200,-24,68,73,-92,-204
-73,-19,53,46,-63,17,195,-24,68,68,-97,-204
-58,-29,29,43,-43,0,195,-34,63,58,-97,-204
-48,-34,14,41,-31,-9,190,-34,58,43,-107,-204
-53,-34,19,43,-36,-7,180,-58,39,24,-122,-219
-53,-39,14,46,-34,-12,185,-63,34,19,-126,-234
-63,-39,24,51,-43,-7,185,-73,14,14,-131,-244
-73,-43,29,58,-51,-7,185,-78,4,4,-141,-253
-63,-43,19,53,-41,-12,229,-78,-4,9,-136,-253
-58,-43,14,51,-36,-14,258,-87,-14,0,-146,-253
-58,-48,9,53,-34,-19,287,-87,-14,-9,-146,-258
-73,-63,9,68,-41,-26,326,-92,-19,-9,-146,-258
-87,-53,34,70,-61,-9,361,-82,-14,-4,-136,-253
-82,-53,29,68,-56,-12,385,-92,-14,0,-131,-248
-97,-53,43,75,-70,-4,409,-92,-9,4,-126,-244
-117,-53,63,85,-90,4,439,-87,4,14,-117,-234
-107,-58,48,82,-78,-4,444,-82,9,19,-131,-248
-107,-53,53,80,-80,0,439,-73,9,19,-131,-239
-117,-53,63,85,-90,4,434,-73,4,14,-131,-244
-126,-63,63,95,-95,0,429,-63,4,9,-136,-248
-131,-78,53,104,-92,-12,400,-58,4,9,-131,-248
-131,-78,53,104,-92,-12,385,-58,4,14,-131,-248
-131,-78,53,104,-92,-12,361,-58,9,14,-131,-258
-117,-78,39,97,-78,-19,336,-53,9,14,-131,-258
-122,-73,48,97,-85,-12,312,-63,4,14,-136,-258
-117,-87,29,102,-73,-29,283,-68,4,4,-141,-263
-112,-92,19,102,-65,-36,258,-73,-9,-9,-156,-278
-107,-102,4,104,-56,-48,224,-78,-9,-19,-165,-278
-126,-102,24,114,-75,-39,214,-73,-14,-29,-165,-283
-146,-102,43,124,-95,-29,219,-78,-14,-29,-161,-283
-161,-102,58,131,-109,-21,219,-78,-14,-24,-161,-278
-170,-97,73,134,-122,-12,224,-78,-9,-24,-161,-273
-165,-82,82,124,-124,0,224,-63,-4,-19,-151,-268
-156,-82,73,119,-114,-4,224,-58,-4,-14,-151,-268
-146,-87,58,117,-102,-14,224,-58,-14,-9,-151,-268
-141,-92,48,117,-95,-21,219,-63,-14,-9,-156,-268
-136,-97,39,117,-87,-29,239,-73,-24,-19,-165,-263
-136,-102,34,119,-85,-34,268,-73,-29,-19,-165,-263
-136,-107,29,122,-82,-39,287,-73,-29,-19,-170,-273
-136,-112,24,124,-80,-43,307,-78,-24,-19,-170,-273
-146,-122,24,134,-85,-48,341,-78,-34,-24,-170,-273
-156,-117,39,136,-97,-39,370,-73,-29,-24,-170,-278
-156,-117,39,136,-97,-39,405,-73,-29,-24,-170,-283
-161,-122,39,141,-100,-41,444,-73,-29,-24,-175,-283
-146,-112,34,129,-90,-39,458,-73,-39,-24,-175,-287
-141,-112,29,126,-85,-41,468,-73,-39,-24,-170,-292
-131,-107,24,119,-78,-41,468,-78,-34,-19,-170,-297
-117,-107,9,112,-63,-48,468,-92,-34,-19,-170,-302
-107,-97,9,102,-58,-43,439,-92,-53,-24,-190,-302
-92,-92,0,92,-46,-46,424,-97,-58,-34,-180,-302
-78,-87,-9,82,-34,-48,409,-97,-58,-39,-180,-302
-68,-92,-24,80,-21,-58,395,-92,-53,-43,-180,-302
-102,-92,9,97,-56,-41,356,-78,-39,-29,-175,-287
-131,-92,39,112,-85,-26,336,-63,-29,-19,-170,-283
-141,-92,48,117,-95,-21,307,-58,-24,-14,-161,-278
-161,-92,68,126,-114,-12,283,-58,-19,-9,-156,-273
-180,-107,73,143,-126,-17,258,-48,-19,-4,-156,-273
-190,-112,78,151,-134,-17,244,-48,-19,-4,-156,-273
-180,-117,63,148,-122,-26,234,-48,-19,-4,-156,-268
-175,-122,53,148,-114,-34,224,-48,-14,-4,-156,-268
-156,-112,43,134,-100,-34,214,-58,-19,-9,-161,-278
-141,-117,24,129,-82,-46,200,-63,-34,-24,-170,-287
-122,-117,4,119,-63,-56,190,-68,-43,-29,-180,-297
-107,-112,-4,109,-51,-58,180,-68,-48,-39,-185,-302
-78,-82,-4,80,-36,-43,180,-53,-39,-29,-175,-292
-136,-122,14,129,-75,-53,180,-53,-43,-29,-185,-292
-136,-117,19,126,-78,-48,170,-48,-43,-39,-190,-302
-136,-107,29,122,-82,-39,170,-48,-29,-39,-185,-302
-170,-112,58,141,-114,-26,175,-39,-19,-34,-175,-283
-156,-107,48,131,-102,-29,190,-39,-24,-39,-185,-292
-131,-102,29,117,-80,-36,209,-34,-34,-58,-209,-312
-161,-112,48,136,-104,-31,219,-24,-29,-58,-219,-331
-190,-117,73,153,-131,-21,219,-9,-9,-43,-209,-331
-195,-97,97,146,-146,0,229,19,29,-9,-175,-297
-170,-82,87,126,-129,2,229,87,102,53,-112,-248
-131,-78,53,104,-92,-12,219,195,190,136,-43,-200
-73,-63,9,68,-41,-26,204,317,297,244,63,-151
-14,-39,-24,26,4,-31,234,458,434,375,170,-92
9,-29,-39,9,24,-34,268,610,570,497,273,-29
53,-19,-73,-17,63,-46,268,732,692,629,370,34
122,4,-117,-63,119,-56,244,819,810,771,507,112
180,29,-151,-104,165,-61,200,888,917,941,673,234
263,78,-185,-170,224,-53,141,917,1024,1132,863,366
400,151,-248,-275,324,-48,39,946,1137,1322,1054,517
561,229,-331,-395,446,-51,-73,946,1220,1488,1234,639
663,278,-385,-470,524,-53,-175,902,1234,1610,1385,732
712,331,-380,-522,546,-24,-278,878,1263,1742,1546,858
775,395,-380,-585,578,7,-356,863,1322,1898,1717,995
785,458,-326,-622,556,65,-380,810,1317,1966,1800,1083
692,468,-224,-580,458,122,-395,649,1156,1815,1693,1063
551,434,-117,-492,334,158,-409,341,834,1444,1371,893
414,366,-48,-390,231,158,-409,-34,439,946,932,634
302,273,-29,-287,165,122,-400,-292,117,502,492,351
248,170,-78,-209,163,46,-419,-390,-112,185,175,117
234,107,-126,-170,180,-9,-458,-488,-283,-9,-4,-19
170,48,-122,-109,146,-36,-434,-614,-439,-170,-151,-122
73,-9,-82,-31,78,-46,-326,-727,-585,-356,-322,-258
-19,-43,-24,31,2,-34,-219,-834,-736,-522,-483,-370
-131,-63,68,97,-100,2,-136,-932,-834,-629,-570,-444
-229,-68,161,148,-195,46,-53,-1010,-912,-707,-644,-492
-268,-78,190,173,-229,56,24,-1039,-941,-756,-683,-517
-248,-68,180,158,-214,56,73,-961,-878,-683,-624,-488
-204,-39,165,122,-185,63,107,-844,-751,-570,-536,-434
-219,-48,170,134,-195,61,146,-766,-688,-531,-507,-419
-214,-63,151,139,-183,43,180,-712,-639,-483,-473,-414
-180,-34,146,107,-163,56,204,-624,-556,-419,-419,-385
-180,-34,146,107,-163,56,239,-531,-468,-361,-380,-361
-185,-58,126,122,-156,34,297,-448,-400,-326,-356,-356
-175,-58,117,117,-146,29,346,-366,-331,-273,-317,-341
-151,-39,112,95,-131,36,400,-302,-273,-229,-287,-317
-131,-48,82,90,-107,17,414,-263,-239,-204,-268,-322
-131,-78,53,104,-92,-12,429,-224,-214,-175,-248,-322
-141,-82,58,112,-100,-12,458,-165,-165,-136,-219,-307
-136,-63,73,100,-104,4,492,-117,-107,-87,-180,-278
-112,-53,58,82,-85,2,492,-87,-82,-58,-165,-268
-92,-63,29,78,-61,-17,497,-73,-73,-53,-175,-268
-97,-68,29,82,-63,-19,492,-68,-68,-53,-170,-273
-102,-68,34,85,-68,-17,488,-53,-58,-48,-170,-268
-107,-68,39,87,-73,-14,488,-43,-58,-48,-165,-268
-107,-73,34,90,-70,-19,483,-34,-58,-48,-165,-268
-117,-78,39,97,-78,-19,434,-19,-48,-39,-156,-273
-117,-78,39,97,-78,-19,385,-19,-48,-39,-165,-287
-107,-78,29,92,-68,-24,341,-19,-48,-39,-165,-292
-97,-78,19,87,-58,-29,292,-19,-48,-39,-161,-292
-78,-68,9,73,-43,-29,263,-19,-39,-39,-161,-273
-78,-68,9,73,-43,-29,239,-14,-34,-34,-161,-268
-78,-68,9,73,-43,-29,214,-9,-29,-29,-156,-268
-87,-68,19,78,-53,-24,190,-9,-24,-29,-151,-258
-107,-78,29,92,-68,-24,180,0,-9,-14,-146,-253
-117,-78,39,97,-78,-19,175,4,-9,-4,-136,-248
-122,-82,39,102,-80,-21,170,14,-9,4,-122,-239
-126,-82,43,104,-85,-19,170,24,-9,4,-117,-229
-122,-92,29,107,-75,-31,161,19,-14,-4,-131,-234
-112,-92,19,102,-65,-36,156,14,-9,-14,-136,-239
-107,-97,9,102,-58,-43,146,14,-14,-29,-136,-244
-92,-97,-4,95,-43,-51,131,9,-24,-39,-141,-253
-92,-87,4,90,-48,-41,122,0,-24,-39,-151,-268
-92,-82,9,87,-51,-36,117,4,-24,-34,-136,-268
-87,-78,9,82,-48,-34,117,9,-19,-24,-126,-253
-87,-78,9,82,-48,-34,112,19,-19,-19,-122,-248
-102,-82,19,92,-61,-31,112,29,-14,-29,-131,-248
-107,-82,24,95,-65,-29,112,34,-9,-29,-131,-244
-117,-82,34,100,-75,-24,112,34,0,-24,-126,-239
-136,-82,53,109,-95,-14,112,39,9,-24,-122,-239
-141,-92,48,117,-95,-21,102,48,9,-14,-122,-239
-131,-87,43,109,-87,-21,107,43,9,-14,-122,-239
-136,-87,48,112,-92,-19,107,34,9,-19,-122,-239
-141,-87,53,114,-97,-17,107,34,4,-19,-122,-248
-136,-82,53,109,-95,-14,97,39,4,-14,-122,-248
-131,-78,53,104,-92,-12,78,43,0,-14,-122,-239
-131,-82,48,107,-90,-17,68,48,0,-14,-122,-234
-126,-68,58,97,-92,-4,68,58,4,-4,-122,-229
-117,-68,48,92,-82,-9,63,53,4,-4,-112,-239
-107,-73,34,90,-70,-19,48,48,0,-4,-112,-239
-97,-78,19,87,-58,-29,43,43,-4,-4,-117,-244
-87,-82,4,85,-46,-39,39,43,-9,-4,-117,-248
-82,-82,0,82,-41,-41,34,43,-9,-9,-122,-248
-82,-87,-4,85,-39,-46,34,48,-9,-14,-126,-239
-78,-97,-19,87,-29,-58,39,48,-4,-14,-126,-239
-78,-102,-24,90,-26,-63,39,48,-4,-19,-131,-239
-92,-107,-14,100,-39,-61,43,58,4,-9,-117,-234
-97,-102,-4,100,-46,-53,53,63,9,-4,-112,-224
-102,-87,14,95,-58,-36,58,68,9,0,-102,-214
-97,-82,14,90,-56,-34,63,68,9,0,-97,-209
-97,-73,24,85,-61,-24,58,63,14,4,-87,-204
-102,-68,34,85,-68,-17,58,68,19,9,-87,-200
-107,-68,39,87,-73,-14,53,73,24,9,-87,-200
-112,-68,43,90,-78,-12,48,87,29,14,-92,-195
-87,-68,19,78,-53,-24,39,78,29,4,-97,-200
-82,-68,14,75,-48,-26,39,73,24,0,-97,-209
-68,-68,0,68,-34,-34,39,68,19,4,-102,-229
-53,-68,-14,61,-19,-41,34,63,9,0,-107,-239
-48,-68,-19,58,-14,-43,34,78,14,-4,-97,-234
-53,-63,-9,58,-21,-36,39,82,19,0,-92,-224
-78,-63,14,70,-46,-24,39,87,29,4,-87,-209
-92,-63,29,78,-61,-17,39,92,39,14,-87,-204
-82,-68,14,75,-48,-26,34,102,39,24,-82,-200
-82,-68,14,75,-48,-26,34,107,39,29,-82,-200
-82,-73,9,78,-46,-31,29,117,43,34,-73,-195
-82,-78,4,80,-43,-36,29,122,43,34,-73,-195
-68,-68,0,68,-34,-34,19,131,29,29,-78,-204
-53,-63,-9,58,-21,-36,14,131,29,24,-78,-204
-48,-63,-14,56,-17,-39,9,136,34,24,-82,-200
-48,-63,-14,56,-17,-39,4,136,34,19,-82,-200
-34,-63,-29,48,-2,-46,-4,126,34,19,-82,-200
-24,-63,-39,43,7,-51,-4,117,34,24,-78,-200
-9,-63,-53,36,21,-58,-4,112,34,24,-78,-200
-4,-63,-58,34,26,-61,-4,102,39,34,-68,-195
-24,-48,-24,36,0,-36,9,97,48,43,-58,-185
-29,-48,-19,39,-4,-34,14,92,58,48,-53,-180
-29,-43,-14,36,-7,-29,14,82,63,53,-48,-180
-34,-43,-9,39,-12,-26,9,78,68,58,-39,-175
-34,-43,-9,39,-12,-26,9,73,78,78,-19,-170
-43,-43,0,43,-21,-21,4,68,87,82,-14,-161
-53,-43,9,48,-31,-17,4,78,92,87,-9,-151
-53,-39,14,46,-34,-12,19,78,92,92,-9,-141
-63,-43,19,53,-41,-12,4,58,92,87,-9,-151
-58,-43,14,51,-36,-14,-4,58,92,92,-4,-146
-39,-43,-4,41,-17,-24,-9,58,92,92,-4,-141
-24,-48,-24,36,0,-36,-29,48,97,92,-4,-141
-34,-58,-24,46,-4,-41,-29,39,107,107,14,-126
-39,-53,-14,46,-12,-34,-39,39,107,112,14,-126
-39,-53,-14,46,-12,-34,-29,34,112,112,24,-117
-48,-48,0,48,-24,-24,-19,34,122,126,34,-112
-14,-39,-24,26,4,-31,-29,29,126,126,24,-117
4,-39,-43,17,24,-41,-29,29,126,126,24,-117
14,-39,-53,12,34,-46,-29,34,131,126,34,-117
29,-34,-63,2,46,-48,-29,43,146,126,48,-102
14,-34,-48,9,31,-41,-24,39,146,136,43,-107
19,-34,-53,7,36,-43,-24,43,151,141,48,-102
29,-34,-63,2,46,-48,-24,48,151,151,53,-102
29,-34,-63,2,46,-48,-34,53,165,156,58,-92
43,-24,-68,-9,56,-46,-39,68,170,161,68,-97
58,-19,-78,-19,68,-48,-48,73,175,175,73,-92
68,-19,-87,-24,78,-53,-63,73,170,185,78,-87
78,-19,-97,-29,87,-58,-73,73,170,185,73,-82
97,-9,-107,-43,102,-58,-73,78,185,204,102,-63
97,0,-97,-48,97,-48,-68,97,200,214,117,-53
102,14,-87,-58,95,-36,-63,102,204,224,126,-39
102,19,-82,-61,92,-31,-63,107,214,239,136,-29
112,9,-102,-61,107,-46,-68,112,209,239,141,-19
126,14,-112,-70,119,-48,-73,117,219,244,151,-14
131,14,-117,-73,124,-51,-82,126,224,253,161,-9
136,14,-122,-75,129,-53,-87,126,229,248,165,0
146,9,-136,-78,141,-63,-78,117,219,253,170,4
165,9,-156,-87,161,-73,-92,122,219,263,180,4
165,4,-161,-85,163,-78,-107,131,219,268,185,-29
165,-4,-170,-80,168,-87,-112,136,229,278,195,-14
156,0,-156,-78,156,-78,-107,141,234,292,209,0
161,19,-141,-90,151,-61,-107,161,244,297,214,14
156,29,-126,-92,141,-48,-107,165,258,302,229,24
151,34,-117,-92,134,-41,-102,165,268,302,229,39
156,34,-122,-95,139,-43,-102,175,268,322,244,58
170,39,-131,-104,151,-46,-97,170,268,322,244,58
185,39,-146,-112,165,-53,-97,175,273,322,244,58
195,48,-146,-122,170,-48,-97,180,273,322,253,58
200,58,-141,-129,170,-41,-97,180,283,331,258,58
200,58,-141,-129,170,-41,-102,190,287,331,263,58
185,48,-136,-117,161,-43,-107,200,287,331,263,68
180,43,-136,-112,158,-46,-107,200,287,331,263,73
185,34,-151,-109,168,-58,-112,190,283,322,253,68
180,39,-141,-109,161,-51,-117,185,278,322,258,68
200,43,-156,-122,178,-56,-122,180,273,322,258,63
219,43,-175,-131,197,-65,-126,170,263,322,253,58
229,48,-180,-139,204,-65,-131,156,248,317,248,43
219,48,-170,-134,195,-61,-136,151,248,312,244,43
214,48,-165,-131,190,-58,-126,151,244,307,244,39
209,43,-165,-126,187,-61,-131,131,239,302,234,29
219,48,-170,-134,195,-61,-126,126,234,287,229,24
214,48,-165,-131,190,-58,-112,122,224,278,214,19
209,39,-170,-124,190,-65,-107,112,219,273,204,14
204,34,-170,-119,187,-68,-102,107,219,253,190,14
190,34,-156,-112,173,-61,-112,92,204,244,165,4
175,34,-141,-104,158,-53,-97,73,195,239,151,-9
161,34,-126,-97,143,-46,-92,58,195,229,146,-24
122,29,-92,-75,107,-31,-78,39,195,219,141,-43
97,19,-78,-58,87,-29,-82,34,200,219,131,-48
92,14,-78,-53,85,-31,-78,24,175,200,122,-63
73,9,-63,-41,68,-26,-73,14,175,195,117,-63
63,-4,-68,-29,65,-36,-68,0,175,195,107,-63
73,-4,-78,-34,75,-41,-68,-19,170,175,92,-73
78,0,-78,-39,78,-39,-68,-34,151,165,78,-87
82,4,-78,-43,80,-36,-63,-48,136,151,68,-102
82,9,-73,-46,78,-31,-53,-63,131,146,53,-107
68,-9,-78,-29,73,-43,-58,-78,122,131,43,-131
58,-9,-68,-24,63,-39,-48,-82,122,117,29,-136
34,-14,-48,-9,41,-31,-43,-92,122,102,19,-141
19,-14,-34,-2,26,-24,-39,-102,117,92,0,-146
0,-14,-14,7,7,-14,-19,-102,122,73,4,-161
-19,-14,4,17,-12,-4,-14,-112,117,68,-4,-161
-43,-24,19,34,-31,-2,-9,-126,117,68,-4,-165
-68,-29,39,48,-53,4,-4,-126,117,58,-9,-175
-73,-29,43,51,-58,7,-4,-136,112,48,-9,-185
-68,-29,39,48,-53,4,-4,-141,107,48,-14,-195
-63,-29,34,46,-48,2,-4,-151,107,48,-19,-195
-82,-29,53,56,-68,12,0,-161,102,43,-24,-200
-78,-34,43,56,-61,4,0,-165,107,29,-39,-204
-68,-34,34,51,-51,0,0,-175,102,19,-53,-204
-68,-43,24,56,-46,-9,-14,-185,102,14,-58,-200
-68,-48,19,58,-43,-14,-14,-185,107,14,-58,-195
-73,-48,24,61,-48,-12,-4,-185,102,14,-63,-204
-73,-43,29,58,-51,-7,-9,-185,92,9,-68,-209
-73,-43,29,58,-51,-7,-9,-185,87,4,-73,-214
-73,-43,29,58,-51,-7,-14,-190,82,0,-73,-214
-73,-34,39,53,-56,2,-14,-195,82,0,-58,-214
-68,-34,34,51,-51,0,-9,-200,87,4,-58,-214
-68,-39,29,53,-48,-4,-4,-209,92,4,-63,-214
-73,-43,29,58,-51,-7,-4,-214,92,4,-63,-214
-73,-34,39,53,-56,2,-19,-204,82,4,-63,-209
-63,-29,34,46,-48,2,-19,-204,82,0,-68,-219
-63,-29,34,46,-48,2,-14,-204,82,0,-68,-209
-68,-29,39,48,-53,4,-14,-190,82,0,-68,-200
-82,-34,48,58,-65,7,-9,-195,92,0,-78,-209
-73,-34,39,53,-56,2,-9,-204,78,-4,-82,-219
-78,-43,34,61,-56,-4,-4,-209,78,-4,-82,-219
-87,-43,43,65,-65,0,0,-214,78,0,-82,-209
-63,-43,19,53,-41,-12,-9,-219,73,-4,-92,-214
-53,-43,9,48,-31,-17,-14,-219,73,-9,-92,-219
-53,-43,9,48,-31,-17,-19,-224,78,-14,-92,-229
-39,-43,-4,41,-17,-24,-29,-234,73,-14,-87,-239
-53,-53,0,53,-26,-26,-34,-224,87,-4,-78,-229
-73,-53,19,63,-46,-17,-34,-219,87,-4,-78,-229
-87,-53,34,70,-61,-9,-29,-214,87,-14,-82,-234
-87,-53,34,70,-61,-9,-19,-219,78,-19,-87,-239
-73,-48,24,61,-48,-12,-24,-229,68,-29,-87,-229
-68,-39,29,53,-48,-4,-19,-229,73,-24,-82,-229
-58,-24,34,41,-46,4,-19,-224,73,-24,-82,-229
-53,-29,24,41,-39,-2,-29,-219,73,-24,-82,-229
-43,-34,9,39,-26,-12,-39,-219,63,-43,-82,-234
-43,-34,9,39,-26,-12,-39,-219,63,-34,-78,-234
-48,-34,14,41,-31,-9,-34,-224,63,-34,-78,-234
-48,-34,14,41,-31,-9,-34,-234,63,-34,-82,-244
-53,-43,9,48,-31,-17,-29,-229,68,-29,-82,-239
-63,-43,19,53,-41,-12,-29,-224,73,-34,-82,-224
-82,-43,39,63,-61,-2,-29,-224,82,-29,-78,-219
-102,-43,58,73,-80,7,-24,-224,87,-24,-73,-224
-92,-53,39,73,-65,-7,-19,-219,87,-14,-73,-224
-68,-53,14,61,-41,-19,-19,-219,87,-14,-73,-224
-58,-53,4,56,-31,-24,-19,-214,87,-14,-68,-219
-48,-53,-4,51,-21,-29,-9,-204,87,0,-63,-209
-73,-43,29,58,-51,-7,-9,-195,97,-9,-73,-209
-92,-43,48,68,-70,2,-9,-200,97,-19,-82,-214
-87,-43,43,65,-65,0,-9,-209,92,-24,-82,-224
-112,-43,68,78,-90,12,-4,-214,87,-24,-82,-229
-107,-39,68,73,-87,14,-14,-219,78,-34,-97,-224
-87,-34,53,61,-70,9,-19,-229,73,-39,-97,-229
-73,-29,43,51,-58,7,-29,-229,73,-39,-102,-239
-78,-19,58,48,-68,19,-39,-229,73,-39,-102,-239
-68,-34,34,51,-51,0,-39,-229,68,-34,-102,-244
-63,-39,24,51,-43,-7,-34,-224,68,-24,-92,-234
-87,-43,43,65,-65,0,-29,-219,73,-19,-92,-229
-82,-48,34,65,-58,-7,-29,-219,73,-24,-87,-229
-97,-48,48,73,-73,0,-29,-209,78,-14,-82,-214
-102,-43,58,73,-80,7,-24,-214,82,-14,-78,-209
-107,-43,63,75,-85,9,-29,-219,87,-24,-78,-204
-102,-48,53,75,-78,2,-29,-224,82,-34,-82,-204
-87,-43,43,65,-65,0,-39,-234,78,-43,-87,-214
-82,-39,43,61,-63,2,-39,-234,73,-39,-92,-214
-78,-34,43,56,-61,4,-39,-234,73,-39,-97,-219
-63,-24,39,43,-51,7,-43,-239,68,-48,-102,-224
-58,-34,24,46,-41,-4,-43,-239,58,-48,-112,-219
-68,-43,24,56,-46,-9,-39,-234,58,-43,-102,-214
-78,-48,29,63,-53,-9,-39,-229,63,-43,-97,-200
-58,-48,9,53,-34,-19,-43,-224,63,-43,-97,-190
-68,-53,14,61,-41,-19,-43,-224,73,-34,-92,-175
-78,-53,24,65,-51,-14,-48,-229,63,-29,-87,-180
-97,-53,43,75,-70,-4,-43,-239,58,-29,-87,-180
-117,-53,63,85,-90,4,-29,-244,58,-43,-82,-185
-107,-48,58,78,-82,4,-24,-253,53,-53,-97,-190
-97,-43,53,70,-75,4,-24,-248,53,-53,-112,-190
-87,-34,53,61,-70,9,-29,-244,53,-48,-107,-180
-87,-19,68,53,-78,24,-34,-239,53,-43,-107,-185
-102,-24,78,63,-90,26,-29,-239,53,-34,-92,-185
-87,-29,58,58,-73,14,-29,-239,48,-34,-92,-195
-73,-34,39,53,-56,2,-34,-244,48,-39,-87,-195
-87,-39,48,63,-68,4,-29,-244,53,-39,-82,-195
-87,-43,43,65,-65,0,-29,-234,53,-43,-92,-200
-107,-43,63,75,-85,9,-29,-234,53,-43,-97,-200
-117,-43,73,80,-95,14,-29,-239,53,-48,-97,-200
-107,-43,63,75,-85,9,-29,-239,53,-48,-97,-195
-97,-34,63,65,-80,14,-43,-239,48,-53,-97,-200
-78,-34,43,56,-61,4,-48,-244,43,-53,-102,-200
-58,-34,24,46,-41,-4,-48,-248,29,-58,-112,-204
-48,-34,14,41,-31,-9,-53,-253,19,-58,-117,-219
-39,-24,14,31,-26,-4,-53,-253,29,-68,-107,-209
-53,-24,29,39,-41,2,-53,-253,34,-58,-117,-204
-68,-29,39,48,-53,4,-48,-253,34,-58,-107,-204
-53,-29,24,41,-39,-2,-43,-248,34,-58,-107,-204
-63,-29,34,46,-48,2,-29,-244,39,-43,-97,-190
-78,-29,48,53,-63,9,-29,-234,43,-34,-92,-185
-87,-29,58,58,-73,14,-24,-229,48,-34,-92,-180
-102,-34,68,68,-85,17,-29,-224,53,-43,-87,-180
-102,-43,58,73,-80,7,-39,-234,53,-48,-87,-180
-102,-39,63,70,-82,12,-39,-234,53,-48,-87,-180
-102,-39,63,70,-82,12,-39,-229,53,-53,-87,-170
-92,-39,53,65,-73,7,-34,-229,53,-58,-82,-165
-68,-39,29,53,-48,-4,-43,-239,43,-58,-87,-170
-78,-39,39,58,-58,0,-48,-234,43,-58,-92,-175
-92,-39,53,65,-73,7,-48,-234,43,-58,-97,-190
-87,-39,48,63,-68,4,-43,-234,43,-68,-107,-195
-87,-48,39,68,-63,-4,-53,-229,39,-78,-107,-195
-87,-48,39,68,-63,-4,-43,-229,39,-78,-112,-204
-82,-48,34,65,-58,-7,-53,-229,43,-78,-112,-204
-73,-48,24,61,-48,-12,-53,-229,43,-78,-112,-200
-63,-48,14,56,-39,-17,-39,-234,43,-68,-102,-185
-87,-48,39,68,-63,-4,-34,-234,48,-58,-92,-180
-87,-43,43,65,-65,0,-34,-234,48,-58,-87,-180
-87,-29,58,58,-73,14,-39,-234,53,-58,-82,-180
-92,-29,63,61,-78,17,-29,-234,63,-48,-87,-180
-78,-34,43,56,-61,4,-29,-234,58,-58,-87,-185
-68,-34,34,51,-51,0,-39,-239,58,-63,-92,-190
-68,-34,34,51,-51,0,-39,-244,58,-63,-92,-190
-48,-24,24,36,-36,0,-53,-248,43,-68,-107,-195
-43,-24,19,34,-31,-2,-53,-253,39,-73,-117,-200
-48,-24,24,36,-36,0,-48,-253,34,-78,-122,-204
-43,-24,19,34,-31,-2,-43,-258,29,-82,-126,-204
-63,-34,29,48,-46,-2,-29,-248,43,-63,-117,-195
-68,-39,29,53,-48,-4,-39,-244,48,-58,-107,-190
-87,-43,43,65,-65,0,-34,-239,53,-58,-97,-185
-107,-58,48,82,-78,-4,-29,-234,58,-63,-92,-190
-102,-68,34,85,-68,-17,-34,-239,48,-63,-92,-185
-107,-73,34,90,-70,-19,-43,-239,48,-58,-92,-185
-126,-73,53,100,-90,-9,-48,-239,48,-58,-92,-185
-131,-73,58,102,-95,-7,-43,-244,43,-63,-92,-190
-112,-53,58,82,-85,2,-48,-248,29,-73,-107,-195
-97,-48,48,73,-73,0,-53,-253,29,-78,-97,-195
-107,-43,63,75,-85,9,-58,-253,29,-68,-102,-200
-92,-39,53,65,-73,7,-63,-258,24,-73,-107,-204
-92,-43,48,68,-70,2,-63,-248,34,-82,-107,-214
-82,-43,39,63,-61,-2,-58,-248,34,-82,-107,-209
-68,-39,29,53,-48,-4,-53,-258,29,-82,-107,-209
-53,-39,14,46,-34,-12,-68,-258,29,-82,-107,-209
-87,-43,43,65,-65,0,-63,-258,19,-82,-117,-209
-92,-48,43,70,-68,-2,-63,-258,19,-82,-122,-209
-92,-53,39,73,-65,-7,-58,-258,19,-87,-126,-219
-97,-58,39,78,-68,-9,-53,-258,19,-87,-126,-229
-82,-58,24,70,-53,-17,-53,-258,4,-92,-131,-229
-63,-58,4,61,-34,-26,-58,-268,4,-97,-131,-229
-53,-53,0,53,-26,-26,-68,-268,4,-97,-126,-224
-48,-43,4,46,-26,-19,-78,-263,9,-97,-107,-214
-82,-53,29,68,-56,-12,-68,-244,24,-87,-102,-195
-92,-53,39,73,-65,-7,-58,-239,34,-78,-97,-190
-102,-53,48,78,-75,-2,-48,-234,39,-63,-97,-185
-102,-53,48,78,-75,-2,-39,-229,43,-53,-97,-175
-107,-53,53,80,-80,0,-53,-244,34,-68,-107,-190
-117,-48,68,82,-92,9,-48,-244,29,-68,-107,-195
-126,-48,78,87,-102,14,-43,-244,29,-63,-102,-195
-131,-48,82,90,-107,17,-43,-244,29,-68,-102,-200
-107,-48,58,78,-82,4,-53,-248,29,-78,-112,-200
-92,-48,43,70,-68,-2,-53,-248,24,-82,-112,-200
-78,-48,29,63,-53,-9,-53,-248,24,-82,-102,-200
-112,-48,63,80,-87,7,-58,-244,29,-82,-92,-190
-107,-48,58,78,-82,4,-53,-239,19,-82,-102,-200
-112,-48,63,80,-87,7,-63,-244,19,-82,-102,-195
-92,-43,48,68,-70,2,-63,-248,19,-82,-112,-195
-73,-43,29,58,-51,-7,-63,-263,14,-92,-122,-209
-78,-48,29,63,-53,-9,-63,-263,9,-102,-122,-219
-78,-58,19,68,-48,-19,-58,-263,9,-102,-122,-219
-107,-63,43,85,-75,-9,-58,-258,14,-87,-122,-214
-117,-63,53,90,-85,-4,-58,-248,14,-87,-122,-200
-87,-53,34,70,-61,-9,-53,-224,24,-78,-107,-214
-82,-53,29,68,-56,-12,-63,-234,24,-82,-117,-224
-73,-48,24,61,-48,-12,-73,-258,4,-87,-122,-234
-73,-48,24,61,-48,-12,-73,-263,4,-97,-122,-239
-78,-48,29,63,-53,-9,-68,-263,9,-97,-126,-234
-78,-39,39,58,-58,0,-68,-258,19,-92,-112,-224
-78,-39,39,58,-58,0,-68,-253,19,-87,-107,-214
-78,-39,39,58,-58,0,-68,-248,19,-82,-102,-204
-78,-39,39,58,-58,0,-68,-244,19,-78,-97,-195
-73,-48,24,61,-48,-12,-63,-244,9,-87,-107,-204
-68,-48,19,58,-43,-14,-58,-244,9,-87,-107,-204
-63,-48,14,56,-39,-17,-53,-244,9,-87,-107,-204
-58,-48,9,53,-34,-19,-48,-244,9,-87,-107,-204
-73,-48,24,61,-48,-12,-53,-253,0,-92,-112,-214
-78,-48,29,63,-53,-9,-58,-253,0,-97,-117,-214
-82,-48,34,65,-58,-7,-63,-253,0,-102,-122,-214
-87,-48,39,68,-63,-4,-68,-253,0,-107,-126,-214
-97,-48,48,73,-73,0,-63,-244,4,-102,-117,-214
-107,-48,58,78,-82,4,-58,-244,9,-97,-117,-214
-117,-48,68,82,-92,9,-53,-244,14,-92,-117,-214
-126,-48,78,87,-102,14,-48,-244,19,-87,-117,-214
-122,-48,73,85,-97,12,-48,-244,9,-87,-126,-224
-117,-48,68,82,-92,9,-48,-244,9,-87,-126,-224
-112,-48,63,80,-87,7,-48,-244,9,-87,-126,-224
-107,-48,58,78,-82,4,-48,-244,9,-87,-126,-224
-92,-43,48,68,-70,2,-53,-253,19,-82,-112,-214
-87,-39,48,63,-68,4,-58,-253,19,-78,-107,-204
-82,-34,48,58,-65,7,-63,-253,19,-73,-102,-195
-78,-29,48,53,-63,9,-68,-253,19,-68,-97,-185
-73,-29,43,51,-58,7,-68,-244,19,-68,-107,-195
-68,-29,39,48,-53,4,-68,-244,19,-68,-107,-195
-63,-29,34,46,-48,2,-68,-244,19,-68,-107,-195
-58,-29,29,43,-43,0,-68,-244,19,-68,-107,-195
-68,-39,29,53,-48,-4,-68,-244,29,-78,-107,-195
-78,-39,39,58,-58,0,-68,-244,29,-78,-107,-195
-87,-39,48,63,-68,4,-68,-244,29,-78,-107,-195
-97,-39,58,68,-78,9,-68,-244,29,-78,-107,-195
-82,-39,43,61,-63,2,-78,-253,24,-82,-112,-200
-78,-39,39,58,-58,0,-78,-253,19,-87,-117,-204
-73,-39,34,56,-53,-2,-78,-253,14,-92,-122,-209
-68,-39,29,53,-48,-4,-78,-253,9,-97,-126,-214
-73,-48,24,61,-48,-12,-78,-253,9,-107,-136,-224
-78,-48,29,63,-53,-9,-78,-253,9,-107,-136,-224
-82,-48,34,65,-58,-7,-78,-253,9,-107,-136,-224
-87,-48,39,68,-63,-4,-78,-253,9,-107,-136,-224
-73,-39,34,56,-53,-2,-82,-253,9,-97,-136,-214
-68,-39,29,53,-48,-4,-87,-253,9,-97,-136,-214
-63,-39,24,51,-43,-7,-92,-253,9,-97,-136,-214
-58,-39,19,48,-39,-9,-97,-253,9,-97,-136,-214
-82,-39,43,61,-63,2,-92,-239,24,-87,-126,-204
-97,-39,58,68,-78,9,-87,-234,29,-78,-117,-195
-112,-39,73,75,-92,17,-82,-229,34,-68,-107,-185
-126,-39,87,82,-107,24,-78,-224,39,-58,-97,-175
-126,-48,78,87,-102,14,-78,-229,34,-68,-107,-190
-126,-48,78,87,-102,14,-78,-234,29,-68,-107,-195
-126,-48,78,87,-102,14,-78,-239,24,-68,-107,-200
-126,-48,78,87,-102,14,-78,-244,19,-68,-107,-204
-112,-43,68,78,-90,12,-78,-234,29,-68,-117,-195
-107,-39,68,73,-87,14,-78,-234,29,-68,-117,-195
-102,-34,68,68,-85,17,-78,-234,29,-68,-117,-195
-97,-29,68,63,-82,19,-78,-234,29,-68,-117,-195
-102,-29,73,65,-87,21,-68,-229,34,-63,-102,-190
-107,-29,78,68,-92,24,-68,-224,39,-58,-97,-185
-112,-29,82,70,-97,26,-68,-219,43,-53,-92,-180
-117,-29,87,73,-102,29,-68,-214,48,-48,-87,-175
-102,-19,82,61,-92,31,-78,-224,39,-48,-92,-185
-97,-19,78,58,-87,29,-78,-224,39,-48,-97,-185
-92,-19,73,56,-82,26,-78,-224,39,-48,-102,-185
-87,-19,68,53,-78,24,-78,-224,39,-48,-107,-185
-78,0,78,39,-78,39,-68,-219,53,-48,-97,-175
-78,9,87,34,-82,48,-58,-214,58,-48,-97,-175
-78,19,97,29,-87,58,-48,-209,63,-48,-97,-175
-78,29,107,24,-92,68,-39,-204,68,-48,-97,-175
-68,19,87,24,-78,53,-48,-204,58,-48,-107,-175
-68,19,87,24,-78,53,-58,-204,58,-48,-107,-175
-68,19,87,24,-78,53,-68,-204,58,-48,-107,-175
-68,19,87,24,-78,53,-78,-204,58,-48,-107,-175
-68,19,87,24,-78,53,-68,-204,68,-39,-97,-165
-68,19,87,24,-78,53,-68,-204,68,-39,-97,-165
-68,19,87,24,-78,53,-68,-204,68,-39,-97,-165
-68,19,87,24,-78,53,-68,-204,68,-39,-97,-165
-68,19,87,24,-78,53,-58,-200,78,-34,-87,-156
-68,14,82,26,-75,48,-73,-200,78,-24,-82,-146
-73,9,82,31,-78,46,-73,-195,73,-19,-82,-141
-82,9,92,36,-87,51,-73,-190,73,-14,-78,-136
-73,0,73,36,-73,36,-87,-195,73,-19,-82,-151
-68,0,68,34,-68,34,-92,-204,63,-24,-87,-161
-58,0,58,29,-58,29,-97,-214,58,-34,-97,-170
-53,0,53,26,-53,26,-102,-219,58,-43,-107,-175
-53,9,63,21,-58,36,-92,-209,68,-39,-102,-161
-58,24,82,17,-70,53,-107,-204,73,-29,-92,-156
-58,39,97,9,-78,68,-107,-195,78,-14,-73,-141
-53,58,112,-2,-82,85,-112,-185,82,-4,-63,-136
-43,48,92,-2,-68,70,-131,-190,73,-14,-73,-141
-39,48,87,-4,-63,68,-136,-195,63,-19,-73,-131
-34,39,73,-2,-53,56,-136,-209,63,-24,-73,-141
-24,34,58,-4,-41,46,-146,-214,63,-24,-78,-141
-14,43,58,-14,-36,51,-146,-209,58,-29,-82,-146
-14,43,58,-14,-36,51,-146,-209,58,-29,-82,-146
-14,39,53,-12,-34,46,-146,-209,58,-29,-87,-146
-9,29,39,-9,-24,34,-141,-219,53,-34,-87,-146
-29,14,43,7,-36,29,-136,-214,63,-29,-92,-141
-34,14,48,9,-41,31,-131,-224,53,-34,-92,-146
-43,9,53,17,-48,31,-122,-224,58,-34,-92,-151
-63,9,73,26,-68,41,-117,-229,48,-34,-92,-151
-63,14,78,24,-70,46,-126,-224,43,-53,-112,-165
-63,14,78,24,-70,46,-122,-234,34,-58,-117,-175
-58,14,73,21,-65,43,-122,-244,24,-68,-126,-175
-58,9,68,24,-63,39,-122,-244,24,-78,-126,-180
-73,-4,68,39,-70,31,-117,-248,9,-78,-136,-180
-73,-4,68,39,-70,31,-122,-248,9,-78,-141,-190
-63,-4,58,34,-61,26,-126,-258,4,-78,-141,-190
-73,-4,68,39,-70,31,-131,-258,4,-78,-141,-190
-73,4,78,34,-75,41,-131,-253,14,-73,-126,-185
-73,9,82,31,-78,46,-117,-248,24,-63,-126,-185
-73,14,87,29,-80,51,-122,-239,29,-58,-122,-170
-82,14,97,34,-90,56,-126,-239,29,-58,-117,-170
-78,-4,73,41,-75,34,-117,-234,19,-63,-126,-175
-73,-9,63,41,-68,26,-112,-234,14,-68,-122,-180
-63,-9,53,36,-58,21,-102,-239,9,-68,-122,-185
-53,-9,43,31,-48,17,-102,-244,9,-73,-122,-200
-73,-24,48,48,-61,12,-87,-224,19,-58,-117,-185
-107,-34,73,70,-90,19,-82,-219,24,-53,-117,-180
-131,-53,78,92,-104,12,-82,-219,34,-58,-117,-180
-156,-63,92,109,-124,14,-78,-219,29,-68,-126,-190
-131,-68,63,100,-97,-2,-97,-234,24,-87,-146,-195
-122,-63,58,92,-90,-2,-97,-239,4,-87,-146,-204
-112,-58,53,85,-82,-2,-92,-244,0,-87,-141,-209
-97,-53,43,75,-70,-4,-92,-244,-4,-82,-141,-209
-92,-43,48,68,-70,2,-97,-244,9,-73,-151,-214
-92,-34,58,63,-75,12,-87,-239,14,-73,-151,-209
-87,-29,58,58,-73,14,-87,-234,14,-73,-151,-209
-82,-29,53,56,-68,12,-87,-234,4,-73,-151,-209
-73,-34,39,53,-56,2,-102,-239,-4,-82,-156,-219
-68,-34,34,51,-51,0,-102,-239,-4,-87,-156,-224
-68,-34,34,51,-51,0,-92,-239,-9,-92,-156,-224
-68,-34,34,51,-51,0,-92,-239,-9,-97,-161,-234
-82,-34,48,58,-65,7,-87,-234,4,-92,-151,-229
-87,-34,53,61,-70,9,-82,-234,4,-82,-141,-219
-102,-29,73,65,-87,21,-82,-229,9,-78,-141,-214
-107,-29,78,68,-92,24,-78,-229,9,-73,-141,-209
-122,-43,78,82,-100,17,-82,-229,9,-73,-156,-209
-126,-43,82,85,-104,19,-78,-224,9,-73,-156,-214
-131,-43,87,87,-109,21,-68,-219,9,-73,-151,-219
-131,-39,92,85,-112,26,-68,-219,14,-68,-151,-224
-107,-48,58,78,-82,4,-73,-239,4,-73,-156,-229
-97,-43,53,70,-75,4,-82,-239,-4,-78,-170,-234
-82,-43,39,63,-61,-2,-87,-244,-9,-87,-165,-239
-68,-43,24,56,-46,-9,-92,-244,-9,-92,-170,-244
-53,-43,9,48,-31,-17,-82,-239,-14,-92,-170,-244
-53,-43,9,48,-31,-17,-92,-239,-14,-92,-170,-244
-58,-43,14,51,-36,-14,-92,-229,-9,-87,-170,-244
-43,-43,0,43,-21,-21,-102,-229,-9,-87,-165,-244
-68,-43,24,56,-46,-9,-92,-224,0,-78,-156,-234
-102,-43,58,73,-80,7,-78,-214,9,-63,-146,-224
-136,-43,92,90,-114,24,-63,-204,19,-53,-136,-214
-151,-43,107,97,-129,31,-43,-195,29,-43,-126,-200
-136,-34,102,85,-119,34,-43,-185,24,-53,-131,-204
-131,-34,97,82,-114,31,-48,-185,24,-53,-136,-214
-131,-39,92,85,-112,26,-58,-190,14,-63,-146,-224
-126,-39,87,82,-107,24,-63,-195,9,-63,-156,-234
-112,-34,78,73,-95,21,-73,-204,4,-73,-165,-234
-97,-34,63,65,-80,14,-63,-200,0,-78,-165,-234
-82,-34,48,58,-65,7,-73,-200,0,-82,-165,-234
-78,-39,39,58,-58,0,-73,-195,-4,-87,-170,-234
-58,-48,9,53,-34,-19,-73,-204,-9,-97,-175,-253
-73,-63,9,68,-41,-26,-58,-195,-9,-112,-185,-273
-107,-58,48,82,-78,-4,-24,-185,4,-107,-185,-263
-151,-63,87,107,-119,12,14,-151,34,-87,-170,-263
-161,-63,97,112,-129,17,24,-131,48,-68,-170,-263
-161,-68,92,114,-126,12,34,-117,78,-63,-161,-253
-126,-39,87,82,-107,24,43,-78,117,-19,-117,-229
-73,-4,68,39,-70,31,24,0,200,73,-34,-161
-43,9,53,17,-48,31,14,107,307,195,63,-92
-14,24,39,-4,-26,31,39,219,424,322,161,-43
34,48,14,-41,9,31,78,361,561,434,258,4
68,48,-19,-58,43,14,112,512,688,556,361,68
112,48,-63,-80,87,-7,102,614,800,678,468,141
180,73,-107,-126,143,-17,58,663,907,829,624,239
268,126,-141,-197,204,-7,-4,702,1024,1019,819,390
322,185,-136,-253,229,24,-73,751,1151,1239,1049,551
390,258,-131,-324,261,63,-146,771,1283,1478,1278,722
492,336,-156,-414,324,90,-229,771,1356,1664,1488,883
595,395,-200,-495,397,97,-331,736,1390,1815,1668,1024
663,458,-204,-561,434,126,-424,692,1420,1976,1849,1161
697,541,-156,-619,427,192,-483,639,1459,2103,2000,1288
678,585,-92,-631,385,246,-497,507,1366,2054,1986,1307
585,566,-19,-575,302,273,-512,248,1098,1766,1751,1200
434,502,68,-468,183,285,-527,-126,688,1288,1322,961
297,424,126,-361,85,275,-527,-434,312,790,854,673
214,322,107,-268,53,214,-497,-566,58,414,453,390
141,229,87,-185,26,158,-507,-644,-141,146,175,175
107,175,68,-141,19,122,-556,-771,-322,-58,4,58
102,146,43,-124,29,95,-570,-868,-458,-229,-151,-53
73,117,43,-95,14,80,-541,-932,-595,-424,-331,-190
-9,82,92,-36,-51,87,-492,-1019,-746,-610,-502,-322
-112,24,136,43,-124,80,-458,-1127,-873,-746,-639,-424
-190,-19,170,104,-180,75,-405,-1176,-941,-824,-722,-492
-200,-9,190,104,-195,90,-346,-1117,-902,-785,-692,-478
-209,9,219,100,-214,114,-317,-1010,-790,-683,-605,-429
-224,0,224,112,-224,112,-312,-932,-702,-610,-546,-405
-209,0,209,104,-209,104,-302,-873,-649,-561,-517,-390
-165,4,170,80,-168,87,-287,-810,-590,-522,-473,-375
-161,-4,156,82,-158,75,-283,-741,-527,-468,-439,-356
-141,4,146,68,-143,75,-248,-649,-448,-409,-390,-331
-126,9,136,58,-131,73,-209,-556,-370,-356,-356,-307
-117,9,126,53,-122,68,-170,-483,-312,-302,-326,-292
-112,0,112,56,-112,56,-136,-429,-244,-248,-297,-278
-122,-9,112,65,-117,51,-112,-361,-190,-204,-258,-263
-112,-9,102,61,-107,46,-97,-312,-146,-175,-229,-263
-112,-4,107,58,-109,51,-97,-273,-107,-146,-200,-239
-136,-14,122,75,-129,53,-82,-234,-68,-117,-170,-219
-141,-24,117,82,-129,46,-63,-204,-53,-97,-156,-209
-131,-14,117,73,-124,51,-48,-190,-34,-82,-156,-200
-126,-19,107,73,-117,43,-43,-190,-19,-73,-151,-200
-122,-19,102,70,-112,41,-39,-180,-9,-68,-151,-200
-117,-19,97,68,-107,39,-29,-175,-9,-68,-146,-204
-107,-24,82,65,-95,29,-24,-170,-9,-68,-146,-209
-92,-24,68,58,-80,21,-24,-165,-9,-68,-146,-214
-87,-19,68,53,-78,24,-34,-165,-9,-68,-156,-229
-73,-14,58,43,-65,21,-39,-165,-9,-68,-156,-234
-58,-9,48,34,-53,19,-48,-165,-9,-68,-151,-234
-63,-24,39,43,-51,7,-34,-151,9,-58,-141,-224
-78,-29,48,53,-63,9,-24,-141,14,-53,-141,-219
-92,-34,58,63,-75,12,-14,-131,19,-48,-136,-219
-117,-39,78,78,-97,19,-4,-126,24,-48,-131,-209
-107,-39,68,73,-87,14,-14,-126,14,-48,-136,-224
-97,-39,58,68,-78,9,-19,-131,9,-43,-136,-229
-82,-43,39,63,-61,-2,-24,-131,4,-39,-131,-229
-68,-43,24,56,-46,-9,-24,-131,0,-43,-136,-229
-78,-39,39,58,-58,0,-14,-122,4,-34,-126,-224
-73,-34,39,53,-56,2,-9,-122,19,-34,-126,-219
-73,-34,39,53,-56,2,-9,-117,24,-39,-122,-214
-63,-29,34,46,-48,2,-14,-117,24,-39,-122,-214
-53,-29,24,41,-39,-2,-19,-122,14,-53,-136,-229
-53,-24,29,39,-41,2,-19,-122,14,-53,-126,-229
-48,-19,29,34,-39,4,-14,-122,19,-48,-122,-214
-48,-19,29,34,-39,4,-14,-117,19,-48,-122,-209
-68,-14,53,41,-61,19,-14,-117,29,-48,-131,-219
-68,-14,53,41,-61,19,-14,-112,29,-48,-131,-214
-73,-14,58,43,-65,21,-14,-112,34,-43,-126,-209
-87,-14,73,51,-80,29,-14,-107,39,-43,-122,-209
