I,II,III,aVR,aVL,aVF,V1,V2,V3,V4,V5,V6
-43,-97,-53,70,4,-75,19,-9,-73,-78,-73,-68
-39,-97,-58,68,9,-78,19,-9,-68,-73,-73,-68
-39,-97,-58,68,9,-78,19,-9,-68,-73,-73,-68
-48,-97,-48,73,0,-73,19,-9,-68,-73,-73,-68
-34,-87,-53,61,9,-70,24,-9,-63,-63,-63,-58
-43,-87,-43,65,0,-65,24,-9,-58,-63,-63,-58
-43,-87,-43,65,0,-65,19,-9,-53,-63,-63,-58
-43,-78,-34,61,-4,-56,19,-4,-48,-58,-58,-58
-58,-92,-34,75,-12,-63,29,-4,-53,-68,-58,-58
-58,-82,-24,70,-17,-53,29,-4,-53,-68,-58,-58
-53,-82,-29,68,-12,-56,34,-4,-53,-68,-58,-58
-53,-82,-29,68,-12,-56,34,-4,-53,-68,-58,-58
-43,-82,-39,63,-2,-61,34,-4,-63,-78,-68,-68
-39,-82,-43,61,2,-63,34,-4,-63,-78,-68,-68
-39,-92,-53,65,7,-73,29,-4,-68,-78,-73,-68
-29,-73,-43,51,7,-58,29,-4,-68,-78,-73,-68
-34,-87,-53,61,9,-70,19,-4,-68,-78,-73,-58
-34,-87,-53,61,9,-70,24,-4,-63,-78,-73,-58
-34,-87,-53,61,9,-70,29,-4,-63,-73,-68,-53
-34,-87,-53,61,9,-70,29,0,-58,-73,-68,-53
-34,-82,-48,58,7,-65,24,-9,-58,-73,-68,-63
-34,-82,-48,58,7,-65,24,-9,-58,-68,-63,-63
-34,-82,-48,58,7,-65,24,-9,-58,-68,-63,-63
-34,-78,-43,56,4,-61,24,-4,-58,-73,-63,-63
-34,-78,-43,56,4,-61,29,-4,-58,-73,-53,-63
-43,-92,-48,68,2,-70,29,-4,-58,-82,-53,-63
-29,-78,-48,53,9,-63,29,-4,-53,-73,-53,-63
-29,-78,-48,53,9,-63,29,-4,-48,-73,-53,-58
-39,-87,-48,63,4,-68,39,4,-48,-63,-53,-58
-48,-78,-29,63,-9,-53,39,24,-39,-58,-48,-48
-29,-68,-39,48,4,-53,39,34,-24,-48,-34,-53
-24,-68,-43,46,9,-56,43,34,-24,-43,-43,-53
-24,-68,-43,46,9,-56,63,68,0,-34,-39,-53
-39,-97,-58,68,9,-78,73,107,19,-19,-34,-48
-24,-97,-73,61,24,-85,87,141,58,4,-14,-43
39,-58,-97,9,68,-78,107,190,122,68,39,-9
68,-53,-122,-7,95,-87,131,244,200,131,92,24
97,-19,-117,-39,107,-68,136,278,273,209,156,78
136,48,-87,-92,112,-19,117,258,326,302,239,151
141,82,-58,-112,100,12,87,204,370,366,302,209
175,126,-48,-151,112,39,48,151,405,439,370,268
200,180,-19,-190,109,80,-9,48,434,517,463,331
239,229,-9,-234,124,109,-92,-87,453,595,566,424
351,326,-24,-339,187,151,-165,-180,468,692,673,531
429,385,-43,-407,236,170,-244,-283,458,756,751,600
434,409,-24,-422,229,192,-356,-458,370,766,795,649
488,478,-9,-483,248,234,-473,-614,287,775,839,712
566,536,-29,-551,297,253,-541,-692,263,829,897,775
629,566,-63,-597,346,251,-546,-673,273,878,971,839
653,556,-97,-605,375,229,-546,-658,248,897,995,868
600,502,-97,-551,348,202,-546,-688,151,800,917,824
522,444,-78,-483,300,183,-527,-717,-14,590,741,702
434,356,-78,-395,256,139,-502,-736,-180,346,512,536
331,248,-82,-290,207,82,-512,-746,-292,175,341,400
287,234,-53,-261,170,90,-546,-771,-361,63,244,326
234,258,24,-246,104,141,-575,-805,-434,-58,136,253
131,248,117,-190,7,183,-541,-775,-492,-175,43,190
48,248,200,-148,-75,224,-463,-673,-458,-209,-9,136
0,204,204,-102,-102,204,-409,-570,-409,-209,-43,97
-9,141,151,-65,-80,146,-336,-478,-366,-214,-73,34
9,97,87,-53,-39,92,-244,-370,-312,-195,-87,-9
-14,39,53,-12,-34,46,-161,-258,-248,-170,-102,-39
-34,19,53,7,-43,36,-92,-180,-180,-141,-97,-39
-9,24,34,-7,-21,29,-53,-117,-122,-102,-73,-39
-14,0,14,7,-14,7,-39,-82,-92,-92,-63,-43
-9,-34,-24,21,7,-29,-9,-39,-63,-78,-53,-39
-19,-48,-29,34,4,-39,4,-14,-58,-63,-43,-34
-39,-58,-19,48,-9,-39,4,-9,-53,-48,-34,-34
0,-9,-9,4,4,-9,14,9,-34,-34,-24,-24
9,-9,-19,0,14,-14,29,14,-4,-14,-9,-9
-19,-39,-19,29,0,-29,43,29,-4,-19,-19,-19
9,-24,-34,7,21,-29,68,48,9,-29,-24,-29
9,-39,-48,14,29,-43,68,68,4,-29,-34,-39
4,-48,-53,21,29,-51,58,63,-4,-39,-43,-48
0,-58,-58,29,29,-58,58,63,-4,-39,-39,-48
-14,-63,-48,39,17,-56,48,63,-19,-39,-39,-48
-9,-58,-48,34,19,-53,48,63,-19,-39,-39,-48
-9,-53,-43,31,17,-48,63,63,-9,-29,-29,-39
-19,-48,-29,34,4,-39,73,63,-4,-29,-29,-39
-9,-43,-34,26,12,-39,82,73,9,-29,-29,-39
-9,-48,-39,29,14,-43,82,78,24,-29,-34,-43
-19,-63,-43,41,12,-53,82,97,14,-29,-34,-53
-19,-63,-43,41,12,-53,82,97,14,-29,-34,-48
-19,-78,-58,48,19,-68,78,92,9,-29,-34,-48
-19,-63,-43,41,12,-53,78,92,4,-29,-29,-48
-4,-53,-48,29,21,-51,78,82,14,-29,-39,-34
-9,-48,-39,29,14,-43,78,82,24,-24,-39,-34
-4,-43,-39,24,17,-41,87,92,29,-24,-29,-34
4,-43,-48,19,26,-46,87,97,34,-24,-29,-34
0,-63,-63,31,31,-63,78,107,24,-29,-39,-48
9,-63,-73,26,41,-68,78,107,29,-29,-39,-48
-4,-68,-63,36,29,-65,73,107,29,-29,-34,-48
-29,-68,-39,48,4,-53,73,97,24,-29,-34,-48
-14,-48,-34,31,9,-41,82,97,34,-24,-24,-29
-9,-48,-39,29,14,-43,82,97,34,-19,-24,-29
-4,-48,-43,26,19,-46,87,97,34,-9,-19,-34
4,-39,-43,17,24,-41,92,102,34,0,-19,-34
-4,-58,-53,31,24,-56,82,117,34,-9,-19,-53
4,-63,-68,29,36,-65,82,117,43,-9,-19,-43
4,-73,-78,34,41,-75,82,117,43,-9,-19,-43
0,-87,-87,43,43,-87,78,112,39,-9,-19,-43
4,-68,-73,31,39,-70,78,107,29,-14,-29,-43
9,-58,-68,24,39,-63,78,107,39,-9,-24,-34
14,-58,-73,21,43,-65,78,102,39,-9,-24,-34
19,-43,-63,12,41,-53,78,97,43,-9,-19,-34
9,-68,-78,29,43,-73,87,107,53,0,-9,-39
4,-68,-73,31,39,-70,92,117,53,0,-9,-39
14,-58,-73,21,43,-65,92,122,53,0,-9,-39
0,-73,-73,36,36,-73,92,126,53,0,-9,-39
0,-63,-63,31,31,-63,92,126,53,0,-9,-29
9,-53,-63,21,36,-58,92,126,58,9,-9,-24
0,-53,-53,26,26,-53,92,131,58,14,-9,-24
0,-43,-43,21,21,-43,92,131,63,14,-4,-24
4,-43,-48,19,26,-46,82,131,53,4,-14,-34
9,-58,-68,24,39,-63,82,141,58,4,-14,-34
24,-43,-68,9,46,-56,87,141,68,9,-9,-29
29,-53,-82,12,56,-68,87,141,58,9,-9,-29
0,-63,-63,31,31,-63,92,136,63,14,4,-24
4,-43,-48,19,26,-46,92,136,73,19,9,-14
0,-43,-43,21,21,-43,97,141,78,24,9,-9
-4,-43,-39,24,17,-41,97,146,82,29,4,-4
9,-34,-43,12,26,-39,97,146,78,19,4,-14
9,-39,-48,14,29,-43,97,156,78,24,4,-14
9,-39,-48,14,29,-43,102,161,87,29,14,-9
9,-43,-53,17,31,-48,102,161,92,39,14,-9
9,-63,-73,26,41,-68,92,156,92,48,14,-9
19,-48,-68,14,43,-58,97,156,92,48,19,-4
29,-39,-68,4,48,-53,97,161,92,48,19,-4
14,-39,-53,12,34,-46,97,161,97,48,19,-4
24,-24,-48,0,36,-36,107,161,102,53,19,-4
24,-24,-48,0,36,-36,107,165,112,53,19,0
29,-34,-63,2,46,-48,107,175,112,58,24,0
29,-14,-43,-7,36,-29,107,180,117,63,29,0
29,-34,-63,2,46,-48,107,180,117,63,29,0
34,-34,-68,0,51,-51,107,175,117,68,29,4
34,-29,-63,-2,48,-46,107,175,122,73,39,9
34,-29,-63,-2,48,-46,112,175,122,78,39,9
39,-14,-53,-12,46,-34,112,180,131,68,34,9
39,-19,-58,-9,48,-39,112,190,136,78,34,14
39,-24,-63,-7,51,-43,112,200,146,82,43,19
53,4,-48,-29,51,-21,112,200,151,92,48,19
53,0,-53,-26,53,-26,112,200,151,102,58,19
43,-4,-48,-19,46,-26,112,200,156,107,68,24
53,4,-48,-29,51,-21,112,209,161,112,73,34
58,0,-58,-29,58,-29,112,209,165,117,73,34
58,14,-43,-36,51,-14,112,219,180,112,73,34
63,14,-48,-39,56,-17,112,224,190,117,82,43
63,4,-58,-34,61,-26,117,229,195,122,87,48
68,19,-48,-43,58,-14,117,239,209,141,97,53
68,14,-53,-41,61,-19,122,229,204,146,102,48
58,14,-43,-36,51,-14,122,229,209,151,102,53
73,24,-48,-48,61,-12,122,234,214,156,107,58
73,29,-43,-51,58,-7,126,244,219,161,112,63
87,34,-53,-61,70,-9,122,239,224,170,112,68
97,43,-53,-70,75,-4,122,239,234,170,117,73
102,48,-53,-75,78,-2,112,234,234,180,126,73
107,63,-43,-85,75,9,112,234,244,180,126,73
107,58,-48,-82,78,4,122,244,253,195,146,82
92,58,-34,-75,63,12,122,244,253,200,151,87
102,68,-34,-85,68,17,122,248,258,204,151,92
117,73,-43,-95,80,14,122,248,263,209,151,102
126,73,-53,-100,90,9,117,239,263,200,151,102
136,78,-58,-107,97,9,112,239,268,204,156,97
141,78,-63,-109,102,7,107,234,268,204,161,97
141,78,-63,-109,102,7,102,234,268,214,165,107
136,78,-58,-107,97,9,112,239,283,224,175,112
126,78,-48,-102,87,14,112,239,283,224,180,117
112,78,-34,-95,73,21,107,239,283,229,190,117
102,82,-19,-92,61,31,107,244,283,229,190,117
117,87,-29,-102,73,29,107,239,287,239,190,131
122,97,-24,-109,73,36,107,239,287,244,190,136
126,102,-24,-114,75,39,107,239,287,253,195,136
126,97,-29,-112,78,34,102,229,287,244,195,136
136,117,-19,-126,78,48,92,224,273,239,195,131
136,112,-24,-124,80,43,87,219,263,234,190,131
126,107,-19,-117,73,43,87,214,263,229,185,131
126,102,-24,-114,75,39,87,209,263,234,180,136
117,112,-4,-114,61,53,82,195,258,244,190,136
122,117,-4,-119,63,56,73,180,253,229,180,136
141,117,-24,-129,82,46,73,175,248,224,195,136
136,107,-29,-122,82,39,68,170,244,219,195,136
102,97,-4,-100,53,46,68,165,229,204,180,136
117,107,-9,-112,63,48,68,161,229,204,180,136
102,92,-9,-97,56,41,63,146,214,204,165,126
102,92,-9,-97,56,41,63,136,204,190,161,126
97,92,-4,-95,51,43,63,126,195,180,156,112
92,92,0,-92,46,46,63,122,185,170,146,107
97,92,-4,-95,51,43,63,122,180,170,146,102
97,78,-19,-87,58,29,63,117,175,156,141,97
92,78,-14,-85,53,31,58,102,165,151,136,102
87,78,-9,-82,48,34,58,97,156,141,126,97
63,48,-14,-56,39,17,48,87,151,131,117,87
48,39,-9,-43,29,14,48,82,126,117,97,73
48,53,4,-51,21,29,48,68,122,107,97,68
48,43,-4,-46,26,19,48,63,107,92,87,63
43,43,0,-43,21,21,48,58,97,78,68,53
39,29,-9,-34,24,9,48,58,87,73,63,48
34,29,-4,-31,19,12,39,53,78,63,53,39
34,43,9,-39,12,26,39,53,73,63,53,39
19,29,9,-24,4,19,39,48,63,58,48,34
14,9,-4,-12,9,2,43,43,48,48,43,29
14,9,-4,-12,9,2,43,39,43,39,34,19
19,9,-9,-14,14,0,43,39,43,29,24,9
24,4,-19,-14,21,-7,39,39,34,24,14,9
29,4,-24,-17,26,-9,34,39,24,19,14,4
14,9,-4,-12,9,2,34,24,24,14,14,0
14,9,-4,-12,9,2,34,24,24,14,9,0
14,9,-4,-12,9,2,34,24,24,14,9,0
9,0,-9,-4,9,-4,34,24,24,9,4,-9
9,-9,-19,0,14,-14,43,24,24,4,14,0
9,-9,-19,0,14,-14,43,24,19,0,9,0
9,-14,-24,2,17,-19,39,19,9,-4,0,0
9,-14,-24,2,17,-19,34,19,9,-9,0,-4
9,-14,-24,2,17,-19,34,19,9,-9,0,-4
14,-9,-24,-2,19,-17,34,19,0,-9,0,-4
19,4,-14,-12,17,-4,34,19,9,-9,0,-4
14,0,-14,-7,14,-7,39,19,9,-9,0,-4
9,-14,-24,2,17,-19,34,19,0,-9,-9,-4
9,-4,-14,-2,12,-9,34,19,0,-9,-9,-4
4,-4,-9,0,7,-7,34,19,4,-4,-9,-4
0,-4,-4,2,2,-4,29,19,4,-4,-9,-4
9,-14,-24,2,17,-19,39,19,0,-4,-9,-4
4,-14,-19,4,12,-17,39,24,0,-4,-9,-4
4,-9,-14,2,9,-12,39,24,0,-4,-9,-4
4,0,-4,-2,4,-2,39,19,0,-4,-9,-4
-4,-24,-19,14,7,-21,39,29,9,-9,0,-4
9,-14,-24,2,17,-19,43,34,14,-9,0,-4
14,-14,-29,0,21,-21,43,34,14,-9,0,-4
14,-14,-29,0,21,-21,39,34,14,-9,0,-4
4,-14,-19,4,12,-17,39,24,0,-9,-14,-14
4,-19,-24,7,14,-21,39,24,0,-9,-14,-14
9,-19,-29,4,19,-24,39,24,0,-4,-9,-14
19,-9,-29,-4,24,-19,43,24,0,-4,-9,-14
4,-19,-24,7,14,-21,43,29,0,-19,-9,-4
4,-19,-24,7,14,-21,43,29,0,-9,-9,-9
4,-19,-24,7,14,-21,43,34,4,-4,-9,-9
0,-24,-24,12,12,-24,43,34,4,-4,-9,-9
-4,-14,-9,9,2,-12,53,29,9,4,-14,-19
-4,-14,-9,9,2,-12,48,29,9,0,-14,-19
-4,-14,-9,9,2,-12,48,24,9,0,-9,-19
-4,-14,-9,9,2,-12,53,24,9,0,-4,-14
-4,-19,-14,12,4,-17,43,34,9,-9,-4,-14
-4,-19,-14,12,4,-17,43,34,9,-9,-4,-14
4,-9,-14,2,9,-12,48,34,9,-9,-4,-14
-4,-24,-19,14,7,-21,48,34,9,-9,-4,-19
4,-14,-19,4,12,-17,43,24,14,-14,-9,-19
4,-14,-19,4,12,-17,43,24,14,-14,-9,-19
-9,-14,-4,12,-2,-9,43,29,14,-14,-9,-19
-9,-4,4,7,-7,0,48,29,14,-14,-9,-19
9,-9,-19,0,14,-14,48,29,4,-14,-19,-19
-4,-19,-14,12,4,-17,48,29,4,-29,-29,-29
0,-24,-24,12,12,-24,48,29,4,-19,-29,-19
9,-29,-39,9,24,-34,48,29,4,-14,-24,-19
-4,-24,-19,14,7,-21,53,34,14,-14,-14,-19
-4,-24,-19,14,7,-21,53,39,14,-14,-14,-14
-9,-29,-19,19,4,-24,53,39,14,-14,-4,-14
-4,-29,-24,17,9,-26,53,39,14,-14,-4,-14
-14,-24,-9,19,-2,-17,48,48,29,-9,4,-4
-19,-24,-4,21,-7,-14,48,48,29,-4,-9,-9
-19,-24,-4,21,-7,-14,48,48,24,-9,-9,-9
-19,-19,0,19,-9,-9,48,48,24,4,0,-9
-9,-29,-19,19,4,-24,48,48,24,-4,-4,-19
-9,-19,-9,14,0,-14,48,48,19,-4,0,-19
-9,-29,-19,19,4,-24,48,48,14,-4,-4,-19
-9,-29,-19,19,4,-24,48,53,14,-4,-14,-14
0,-29,-29,14,14,-29,48,43,24,-4,-14,-14
-9,-34,-24,21,7,-29,53,43,19,-4,-14,-19
-9,-34,-24,21,7,-29,53,43,19,-14,-19,-19
4,-34,-39,14,21,-36,53,43,14,-4,-19,-19
-9,-39,-29,24,9,-34,53,34,4,-14,-19,-19
-9,-24,-14,17,2,-19,53,34,4,-19,-19,-19
0,-19,-19,9,9,-19,58,34,9,-19,-19,-19
0,-14,-14,7,7,-14,63,34,9,-14,-19,-19
-9,-9,0,9,-4,-4,58,43,19,-4,-9,-19
-9,-19,-9,14,0,-14,58,39,14,-9,-14,-19
-19,-53,-34,36,7,-43,48,39,14,-9,-14,-19
-4,-53,-48,29,21,-51,58,39,14,-9,-14,-19
-4,-43,-39,24,17,-41,58,39,14,-9,-14,-19
-4,-39,-34,21,14,-36,58,39,14,-4,-14,-19
4,-39,-43,17,24,-41,58,43,19,-4,-9,-19
-9,-34,-24,21,7,-29,58,43,19,-4,-9,-19
-14,-29,-14,21,0,-21,53,39,9,-4,-19,-29
-14,-29,-14,21,0,-21,53,34,9,-9,-24,-29
-24,-34,-9,29,-7,-21,48,34,9,-14,-24,-29
-24,-39,-14,31,-4,-26,48,34,9,-14,-24,-29
-14,-29,-14,21,0,-21,58,29,9,-19,-14,-19
-9,-29,-19,19,4,-24,58,29,4,-19,-14,-24
-9,-29,-19,19,4,-24,58,29,4,-24,-14,-29
-4,-29,-24,17,9,-26,58,29,4,-24,-14,-29
-14,-43,-29,29,7,-36,48,29,-4,-24,-24,-39
-4,-34,-29,19,12,-31,48,29,-4,-24,-29,-39
-24,-39,-14,31,-4,-26,48,24,-9,-34,-34,-39
-24,-43,-19,34,-2,-31,43,24,-14,-34,-43,-39
-14,-39,-24,26,4,-31,43,29,-4,-29,-34,-39
-19,-39,-19,29,0,-29,43,29,-4,-29,-29,-39
-19,-48,-29,34,4,-39,43,24,-4,-29,-29,-39
-14,-48,-34,31,9,-41,43,24,-4,-29,-29,-39
-9,-58,-48,34,19,-53,43,24,-4,-29,-34,-39
-14,-43,-29,29,7,-36,43,24,-4,-29,-34,-39
-29,-43,-14,36,-7,-29,43,19,-4,-29,-34,-39
-34,-48,-14,41,-9,-31,43,19,-9,-39,-43,-48
-19,-48,-29,34,4,-39,43,19,-9,-39,-34,-39
-29,-48,-19,39,-4,-34,43,19,-9,-34,-24,-39
-29,-48,-19,39,-4,-34,43,19,-14,-34,-24,-39
-24,-39,-14,31,-4,-26,43,19,-14,-34,-24,-39
-24,-68,-43,46,9,-56,39,19,-14,-34,-34,-48
-19,-68,-48,43,14,-58,39,19,-14,-39,-43,-53
-24,-53,-29,39,2,-41,34,19,-14,-43,-48,-53
-29,-68,-39,48,4,-53,29,14,-19,-43,-48,-53
-39,-68,-29,53,-4,-48,29,14,-19,-48,-48,-53
-43,-68,-24,56,-9,-46,34,14,-19,-48,-43,-53
-48,-73,-24,61,-12,-48,34,19,-19,-48,-43,-53
-53,-73,-19,63,-17,-46,34,19,-19,-48,-43,-53
-43,-82,-39,63,-2,-61,34,19,-19,-39,-43,-43
-39,-82,-43,61,2,-63,34,14,-19,-39,-48,-43
-39,-78,-39,58,0,-58,34,14,-19,-39,-48,-43
-43,-78,-34,61,-4,-56,34,14,-24,-48,-39,-48
-48,-82,-34,65,-7,-58,43,14,-24,-48,-48,-68
-48,-73,-24,61,-12,-48,43,14,-24,-48,-48,-58
-53,-73,-19,63,-17,-46,43,14,-24,-48,-48,-58
-63,-73,-9,68,-26,-41,34,9,-24,-48,-53,-58
-58,-82,-24,70,-17,-53,24,9,-29,-58,-53,-58
-48,-82,-34,65,-7,-58,24,9,-29,-53,-53,-63
-39,-82,-43,61,2,-63,29,9,-29,-53,-53,-63
-29,-87,-58,58,14,-73,34,14,-29,-58,-53,-63
-43,-112,-68,78,12,-90,43,14,-24,-48,-53,-53
-53,-92,-39,73,-7,-65,43,14,-29,-48,-48,-53
-58,-92,-34,75,-12,-63,43,14,-29,-48,-48,-48
-68,-92,-24,80,-21,-58,39,14,-29,-43,-53,-48
-73,-82,-9,78,-31,-46,34,14,-29,-43,-53,-48
-68,-82,-14,75,-26,-48,34,14,-34,-48,-53,-48
-63,-78,-14,70,-24,-46,39,14,-34,-53,-53,-48
-58,-78,-19,68,-19,-48,39,14,-29,-53,-48,-53
-53,-92,-39,73,-7,-65,29,14,-29,-53,-48,-63
-48,-82,-34,65,-7,-58,29,9,-29,-53,-58,-63
-48,-82,-34,65,-7,-58,29,9,-29,-53,-58,-63
-53,-92,-39,73,-7,-65,29,9,-29,-53,-58,-63
-63,-92,-29,78,-17,-61,29,9,-34,-58,-58,-53
-63,-92,-29,78,-17,-61,29,9,-34,-58,-53,-53
-48,-92,-43,70,-2,-68,24,9,-29,-58,-53,-53
-48,-78,-29,63,-9,-53,24,9,-29,-53,-48,-53
-58,-87,-29,73,-14,-58,34,9,-39,-53,-53,-63
-58,-87,-29,73,-14,-58,34,4,-39,-58,-53,-63
-53,-78,-24,65,-14,-51,34,4,-39,-63,-58,-63
-48,-87,-39,68,-4,-63,39,9,-39,-63,-58,-63
-43,-92,-48,68,2,-70,29,4,-43,-63,-53,-63
-48,-92,-43,70,-2,-68,34,4,-39,-63,-53,-63
-53,-87,-34,70,-9,-61,34,4,-39,-58,-53,-63
-48,-78,-29,63,-9,-53,34,9,-34,-53,-53,-53
-58,-97,-39,78,-9,-68,39,9,-39,-63,-48,-63
-63,-97,-34,80,-14,-65,34,4,-39,-63,-53,-63
-48,-87,-39,68,-4,-63,29,4,-39,-58,-58,-68
-34,-82,-48,58,7,-65,24,0,-39,-53,-63,-73
-48,-73,-24,61,-12,-48,39,4,-24,-43,-58,-58
-53,-73,-19,63,-17,-46,39,9,-19,-43,-53,-53
-53,-73,-19,63,-17,-46,39,14,-14,-43,-48,-48
-53,-58,-4,56,-24,-31,39,19,-14,-43,-43,-39
-39,-53,-14,46,-12,-34,39,9,-24,-39,-34,-39
-34,-53,-19,43,-7,-36,39,9,-24,-39,-29,-39
-29,-53,-24,41,-2,-39,43,14,-14,-39,-34,-43
-24,-53,-29,39,2,-41,43,14,-14,-34,-39,-48
-34,-48,-14,41,-9,-31,48,29,-4,-24,-43,-43
-39,-43,-4,41,-17,-24,53,34,0,-24,-39,-39
-48,-39,9,43,-29,-14,53,39,-4,-24,-34,-34
-58,-34,24,46,-41,-4,58,39,0,-29,-29,-29
-39,-29,9,34,-24,-9,63,48,-4,-19,-29,-29
-29,-29,0,29,-14,-14,63,53,0,-14,-19,-29
-39,-39,0,39,-19,-19,58,39,0,-19,-19,-39
-29,-34,-4,31,-12,-19,58,48,4,-9,-19,-29
-29,-29,0,29,-14,-14,58,48,9,-9,-19,-29
-29,-24,4,26,-17,-9,58,48,14,-9,-19,-29
-29,-19,9,24,-19,-4,58,48,19,-9,-19,-29
-19,-29,-9,24,-4,-19,48,39,9,-9,-19,-29
-34,-43,-9,39,-12,-26,43,34,9,-14,-19,-29
-24,-29,-4,26,-9,-17,43,29,9,-14,-19,-29
-19,-29,-9,24,-4,-19,34,24,9,-9,-14,-24
-9,-29,-19,19,4,-24,29,9,4,-9,-14,-24
-9,-19,-9,14,0,-14,24,4,4,-9,-14,-34
-19,-19,0,19,-9,-9,24,0,4,-9,-14,-24
-19,-19,0,19,-9,-9,19,0,4,-4,-14,-24
-9,-9,0,9,-4,-4,19,-14,-9,-4,-24,-34
-9,-24,-14,17,2,-19,4,-29,-14,-24,-34,-43
-9,-29,-19,19,4,-24,-4,-34,-29,-34,-39,-43
4,-29,-34,12,19,-31,-14,-43,-39,-39,-43,-43
-14,-39,-24,26,4,-31,-14,-48,-43,-29,-39,-48
-24,-48,-24,36,0,-36,-14,-43,-43,-34,-39,-48
-43,-53,-9,48,-17,-31,-19,-43,-39,-39,-39,-43
-63,-68,-4,65,-29,-36,-19,-39,-39,-39,-48,-43
-48,-48,0,48,-24,-24,-34,-48,-53,-53,-48,-53
-39,-48,-9,43,-14,-29,-34,-48,-53,-53,-48,-48
-34,-53,-19,43,-7,-36,-34,-48,-53,-53,-48,-48
-14,-53,-39,34,12,-46,-29,-48,-53,-58,-48,-48
-14,-58,-43,36,14,-51,-39,-48,-63,-63,-53,-48
-14,-58,-43,36,14,-51,-39,-53,-63,-68,-58,-58
-14,-63,-48,39,17,-56,-39,-53,-68,-68,-63,-63
-24,-73,-48,48,12,-61,-39,-58,-73,-68,-63,-63
-14,-73,-58,43,21,-65,-39,-73,-87,-82,-68,-63
-14,-73,-58,43,21,-65,-39,-73,-87,-87,-78,-68
-19,-92,-73,56,26,-82,-39,-68,-87,-87,-82,-68
-19,-78,-58,48,19,-68,-39,-63,-87,-82,-87,-63
-24,-87,-63,56,19,-75,-39,-58,-68,-82,-63,-68
-24,-82,-58,53,17,-70,-39,-58,-63,-78,-63,-68
-24,-82,-58,53,17,-70,-24,-48,-53,-73,-58,-63
-39,-87,-48,63,4,-68,-19,-43,-48,-73,-58,-63
-39,-97,-58,68,9,-78,-14,-19,-43,-53,-58,-48
-48,-97,-48,73,0,-73,0,-9,-43,-53,-58,-48
-63,-107,-43,85,-9,-75,0,-9,-43,-63,-63,-58
-63,-117,-53,90,-4,-85,4,-9,-43,-63,-63,-63
-68,-117,-48,92,-9,-82,14,-9,-53,-68,-68,-78
-78,-131,-53,104,-12,-92,14,-14,-68,-73,-82,-87
-78,-131,-53,104,-12,-92,14,-14,-73,-78,-82,-87
-78,-146,-68,112,-4,-107,14,-14,-73,-82,-87,-92
-78,-136,-58,107,-9,-97,4,-24,-73,-97,-102,-92
-78,-131,-53,104,-12,-92,4,-24,-73,-102,-102,-92
-82,-131,-48,107,-17,-90,4,-24,-73,-102,-102,-92
-97,-131,-34,114,-31,-82,4,-24,-73,-107,-102,-97
-87,-131,-43,109,-21,-87,4,-24,-82,-97,-92,-97
-87,-141,-53,114,-17,-97,4,-29,-87,-97,-92,-102
-87,-141,-53,114,-17,-97,4,-29,-87,-97,-102,-102
-87,-141,-53,114,-17,-97,4,-29,-82,-92,-92,-102
-87,-151,-63,119,-12,-107,4,-14,-82,-97,-102,-102
-82,-146,-63,114,-9,-104,4,-14,-82,-102,-102,-102
-82,-146,-63,114,-9,-104,9,-14,-82,-112,-102,-97
-82,-146,-63,114,-9,-104,9,-9,-82,-117,-102,-97
-82,-146,-63,114,-9,-104,19,-19,-78,-102,-92,-97
-87,-146,-58,117,-14,-102,19,-19,-78,-102,-92,-97
-102,-146,-43,124,-29,-95,19,-19,-78,-102,-92,-97
-92,-146,-53,119,-19,-100,24,-19,-78,-102,-92,-97
-92,-146,-53,119,-19,-100,14,-19,-78,-112,-102,-97
-92,-146,-53,119,-19,-100,9,-19,-78,-112,-102,-97
-92,-136,-43,114,-24,-90,9,-14,-78,-107,-97,-97
-97,-151,-53,124,-21,-102,9,-14,-73,-107,-97,-97
-97,-141,-43,119,-26,-92,19,-24,-82,-97,-97,-107
-92,-141,-48,117,-21,-95,24,-24,-82,-97,-97,-107
-92,-141,-48,117,-21,-95,24,-24,-82,-97,-97,-107
-92,-141,-48,117,-21,-95,24,-24,-82,-97,-97,-107
-87,-131,-43,109,-21,-87,14,-14,-73,-107,-97,-107
-87,-141,-53,114,-17,-97,9,-14,-78,-107,-102,-107
-78,-122,-43,100,-17,-82,9,-14,-78,-107,-102,-107
-92,-136,-43,114,-24,-90,9,-14,-78,-107,-102,-107
-92,-146,-53,119,-19,-100,14,-24,-82,-107,-112,-117
-92,-146,-53,119,-19,-100,19,-24,-82,-102,-107,-112
-92,-146,-53,119,-19,-100,19,-19,-78,-102,-107,-112
-92,-141,-48,117,-21,-95,14,-19,-78,-102,-107,-112
-102,-141,-39,122,-31,-90,14,-9,-73,-97,-92,-102
-102,-141,-39,122,-31,-90,14,-9,-68,-97,-92,-102
-102,-136,-34,119,-34,-85,14,-4,-63,-102,-92,-102
-102,-136,-34,119,-34,-85,19,-4,-58,-102,-92,-102
-102,-151,-48,126,-26,-100,19,-14,-63,-102,-92,-102
-87,-136,-48,112,-19,-92,19,-14,-63,-92,-92,-102
-87,-136,-48,112,-19,-92,19,-14,-63,-92,-92,-97
-97,-136,-39,117,-29,-87,19,-14,-68,-92,-92,-97
-78,-117,-39,97,-19,-78,29,4,-58,-87,-97,-97
-97,-146,-48,122,-24,-97,29,14,-63,-97,-102,-102
-92,-136,-43,114,-24,-90,34,24,-43,-82,-92,-92
-82,-126,-43,104,-19,-85,63,58,-9,-53,-68,-73
-97,-136,-39,117,-29,-87,82,97,19,-39,-53,-78
-82,-117,-34,100,-24,-75,87,122,29,-24,-53,-73
-68,-117,-48,92,-9,-82,87,141,53,0,-29,-58
-29,-122,-92,75,31,-107,92,185,102,43,14,-34
29,-68,-97,19,63,-82,117,258,195,122,78,19
39,-29,-68,-4,53,-48,107,268,268,204,151,82
43,4,-39,-24,41,-17,78,224,322,278,224,141
87,48,-39,-68,63,4,68,170,366,370,312,209
141,82,-58,-112,100,12,19,78,385,429,366,263
219,170,-48,-195,134,61,-82,-68,375,488,439,326
292,248,-43,-270,168,102,-195,-219,380,566,536,414
331,287,-43,-309,187,122,-273,-331,380,639,624,492
395,351,-43,-373,219,153,-366,-448,331,668,678,561
429,409,-19,-419,224,195,-483,-624,239,658,712,605
468,429,-39,-448,253,195,-570,-751,185,673,761,668
580,478,-102,-529,341,187,-585,-761,195,732,824,732
653,478,-175,-566,414,151,-595,-736,190,771,858,771
649,444,-204,-546,427,119,-605,-746,112,712,819,746
570,414,-156,-492,363,129,-585,-775,-24,551,692,653
414,307,-107,-361,261,100,-580,-814,-200,317,473,488
312,229,-82,-270,197,73,-570,-814,-322,136,292,351
268,214,-53,-241,161,80,-585,-819,-370,34,195,278
185,200,14,-192,85,107,-614,-844,-424,-78,97,214
112,209,97,-161,7,153,-610,-844,-483,-195,4,151
39,219,180,-129,-70,200,-541,-761,-478,-248,-48,107
-19,195,214,-87,-117,204,-468,-649,-439,-248,-73,68
-29,151,180,-61,-104,165,-385,-546,-395,-234,-92,34
-58,58,117,0,-87,87,-312,-458,-370,-244,-126,-39
-92,-9,82,51,-87,36,-219,-346,-326,-248,-161,-87
-73,9,82,31,-78,46,-131,-239,-239,-209,-146,-107
-68,-14,53,41,-61,19,-92,-175,-180,-170,-131,-97
-73,-39,34,56,-53,-2,-78,-131,-131,-141,-122,-92
-48,-43,4,46,-26,-19,-48,-78,-112,-117,-102,-78
-48,-68,-19,58,-14,-43,-43,-53,-97,-102,-92,-73
-48,-58,-9,53,-19,-34,-24,-39,-92,-97,-82,-73
-58,-68,-9,63,-24,-39,-24,-39,-102,-102,-82,-82
-87,-97,-9,92,-39,-53,-9,-34,-102,-102,-97,-87
-68,-68,0,68,-34,-34,24,0,-73,-87,-78,-78
-58,-73,-14,65,-21,-43,39,19,-29,-78,-63,-87
-78,-117,-39,97,-19,-78,39,29,-24,-78,-82,-97
-73,-107,-34,90,-19,-70,29,34,-34,-68,-82,-87
-68,-107,-39,87,-14,-73,29,34,-34,-68,-78,-87
-73,-102,-29,87,-21,-65,19,34,-48,-68,-78,-87
-58,-87,-29,73,-14,-58,19,34,-48,-68,-78,-87
-68,-78,-9,73,-29,-43,14,24,-53,-78,-78,-97
-78,-78,0,78,-39,-39,24,24,-53,-78,-78,-97
-68,-78,-9,73,-29,-43,34,34,-43,-78,-78,-97
-68,-87,-19,78,-24,-53,34,39,-34,-78,-82,-102
-68,-102,-34,85,-17,-68,39,58,-24,-78,-92,-92
-68,-102,-34,85,-17,-68,43,58,-24,-78,-92,-87
-68,-117,-48,92,-9,-82,43,53,-29,-78,-92,-87
-68,-102,-34,85,-17,-68,48,53,-34,-78,-87,-87
-58,-92,-34,75,-12,-63,39,43,-43,-78,-78,-82
-68,-87,-19,78,-24,-53,39,43,-34,-73,-78,-82
-68,-82,-14,75,-26,-48,48,53,-29,-73,-68,-82
-63,-82,-19,73,-21,-51,48,58,-24,-73,-68,-82
-63,-102,-39,82,-12,-70,58,68,-24,-68,-78,-97
-48,-102,-53,75,2,-78,58,68,-19,-68,-78,-97
-58,-107,-48,82,-4,-78,53,68,-19,-68,-73,-97
-78,-107,-29,92,-24,-68,53,58,-24,-68,-73,-97
-58,-87,-29,73,-14,-58,43,58,-24,-68,-82,-87
-58,-87,-29,73,-14,-58,43,58,-24,-68,-82,-87
-58,-87,-29,73,-14,-58,48,58,-24,-63,-78,-92
-53,-78,-24,65,-14,-51,53,63,-24,-58,-78,-92
-63,-82,-19,73,-21,-51,63,78,-24,-68,-78,-112
-53,-82,-29,68,-12,-56,63,78,-14,-68,-78,-102
-53,-87,-34,70,-9,-61,63,78,-14,-68,-78,-102
-58,-97,-39,78,-9,-68,58,73,-19,-68,-78,-102
-48,-97,-48,73,0,-73,48,73,-19,-63,-78,-92
-48,-87,-39,68,-4,-63,48,78,-9,-58,-73,-82
-48,-87,-39,68,-4,-63,48,78,-9,-58,-73,-82
-48,-73,-24,61,-12,-48,48,78,-4,-58,-68,-82
-53,-87,-34,70,-9,-61,58,82,4,-53,-68,-87
-53,-87,-34,70,-9,-61,63,87,4,-48,-68,-87
-39,-78,-39,58,0,-58,63,87,4,-43,-68,-87
-48,-92,-43,70,-2,-68,63,87,4,-39,-68,-87
-48,-82,-34,65,-7,-58,53,78,-4,-43,-68,-87
-39,-73,-34,56,-2,-53,53,78,0,-39,-68,-82
-48,-73,-24,61,-12,-48,53,82,0,-39,-68,-82
-48,-63,-14,56,-17,-39,53,82,4,-43,-63,-82
-48,-73,-24,61,-12,-48,63,92,4,-43,-53,-82
-48,-87,-39,68,-4,-63,63,102,9,-43,-53,-82
-39,-73,-34,56,-2,-53,68,102,19,-39,-48,-78
-39,-82,-43,61,2,-63,68,102,9,-39,-48,-78
-53,-82,-29,68,-12,-56,53,87,9,-39,-53,-78
-43,-63,-19,53,-12,-41,53,87,14,-39,-48,-73
-43,-63,-19,53,-12,-41,58,92,14,-39,-48,-73
-43,-63,-19,53,-12,-41,58,97,14,-39,-53,-73
-34,-53,-19,43,-7,-36,58,97,19,-39,-63,-82
-29,-58,-29,43,0,-43,58,107,19,-34,-63,-82
-24,-58,-34,41,4,-46,63,112,29,-29,-53,-78
-19,-63,-43,41,12,-53,63,112,34,-19,-53,-78
-43,-73,-29,58,-7,-51,63,117,43,-9,-43,-73
-39,-58,-19,48,-9,-39,68,117,43,-9,-39,-63
-34,-48,-14,41,-9,-31,68,122,43,-9,-39,-58
-53,-48,4,51,-29,-21,68,122,48,-9,-39,-53
-43,-43,0,43,-21,-21,78,122,43,-14,-39,-63
-43,-43,0,43,-21,-21,78,126,53,-14,-39,-58
-39,-53,-14,46,-12,-34,78,136,53,-9,-34,-58
-39,-34,4,36,-21,-14,78,141,58,-4,-29,-58
-48,-48,0,48,-24,-24,78,141,58,-4,-29,-48
-43,-53,-9,48,-17,-31,78,136,58,0,-29,-43
-43,-53,-9,48,-17,-31,78,136,63,4,-19,-39
-43,-58,-14,51,-14,-36,82,136,63,9,-19,-39
-34,-39,-4,36,-14,-21,82,141,78,14,-4,-39
-29,-48,-19,39,-4,-34,82,151,87,29,-4,-34
-24,-58,-34,41,4,-46,82,161,102,39,4,-29
-4,-34,-29,19,12,-31,82,161,112,53,9,-29
-14,-34,-19,24,2,-26,73,161,97,39,4,-34
-24,-34,-9,29,-7,-21,73,161,97,39,9,-34
-14,-19,-4,17,-4,-12,73,170,97,39,9,-29
-9,-19,-9,14,0,-14,73,170,97,39,4,-34
0,-4,-4,2,2,-4,82,170,107,48,14,-24
4,-4,-9,0,7,-7,82,175,122,58,24,-14
4,-14,-19,4,12,-17,87,180,131,68,29,-9
9,0,-9,-4,9,-4,87,190,151,92,39,-4
0,-4,-4,2,2,-4,82,190,151,92,43,-9
-9,-4,4,7,-7,0,82,190,151,92,43,-4
4,4,0,-4,2,2,82,195,151,92,48,0
4,9,4,-7,0,7,87,204,151,92,53,4
14,0,-14,-7,14,-7,82,200,165,112,63,19
29,4,-24,-17,26,-9,82,200,175,112,68,24
39,4,-34,-21,36,-14,73,195,175,122,78,24
48,14,-34,-31,41,-9,73,195,185,122,78,24
53,29,-24,-41,39,2,82,195,195,136,87,43
34,29,-4,-31,19,12,82,195,195,141,92,48
39,39,0,-39,19,19,82,200,200,146,92,53
48,43,-4,-46,26,19,82,200,204,151,92,63
58,53,-4,-56,31,24,78,200,204,146,82,53
68,58,-9,-63,39,24,73,200,209,146,87,48
73,58,-14,-65,43,21,68,195,209,141,92,48
73,58,-14,-65,43,21,63,195,209,146,97,58
78,63,-14,-70,46,24,73,200,204,156,97,63
78,58,-19,-68,48,19,73,200,204,156,102,68
73,53,-19,-63,46,17,68,200,204,161,112,68
73,53,-19,-63,46,17,68,204,204,161,112,68
78,63,-14,-70,46,24,58,190,214,170,122,73
82,68,-14,-75,48,26,58,190,219,175,122,78
87,68,-19,-78,53,24,58,190,224,185,126,78
87,58,-29,-73,58,14,53,180,229,175,126,78
87,92,4,-90,41,48,53,185,224,185,141,92
87,92,4,-90,41,48,48,180,214,185,141,92
78,92,14,-85,31,53,48,175,214,185,141,92
78,92,14,-85,31,53,48,170,214,195,141,97
68,92,24,-80,21,58,43,156,209,190,136,87
73,97,24,-85,24,61,34,141,204,170,122,87
92,97,4,-95,43,51,34,136,200,161,131,87
87,87,0,-87,43,43,29,131,195,151,126,87
73,78,4,-75,34,41,29,136,180,146,122,78
87,87,0,-87,43,43,29,131,180,146,122,78
73,73,0,-73,36,36,24,117,165,146,107,68
73,73,0,-73,36,36,24,107,156,131,102,68
53,82,29,-68,12,56,24,87,156,131,107,73
43,82,39,-63,2,61,24,82,146,122,97,68
43,82,39,-63,2,61,24,82,141,122,97,63
39,68,29,-53,4,48,24,78,136,107,92,58
39,68,29,-53,4,48,9,53,117,102,87,53
39,68,29,-53,4,48,9,48,107,92,78,48
19,39,19,-29,0,29,0,39,102,82,68,39
9,29,19,-19,-4,24,0,34,78,68,48,24
9,43,34,-26,-12,39,0,29,78,63,43,29
9,34,24,-21,-7,29,0,24,68,53,39,24
4,34,29,-19,-12,31,0,19,63,43,24,14
0,19,19,-9,-9,19,0,19,58,43,24,9
4,4,0,-4,2,2,-9,9,43,24,9,-9
4,14,9,-9,-2,12,-9,4,34,14,4,-9
-9,-4,4,7,-7,0,-9,-4,19,0,-4,-14
-14,-29,-14,21,0,-21,-4,-14,0,-19,-14,-19
-24,-14,9,19,-17,-2,4,-9,4,-9,-4,-9
-29,-9,19,19,-24,4,4,-9,4,-19,-14,-19
-34,-9,24,21,-29,7,0,-9,-4,-24,-24,-19
-39,-4,34,21,-36,14,-4,-9,-14,-29,-24,-24
-43,-9,34,26,-39,12,-4,-24,-14,-43,-34,-39
-43,-9,34,26,-39,12,-4,-24,-14,-43,-39,-39
-43,-9,34,26,-39,12,-4,-24,-14,-43,-39,-39
-48,-19,29,34,-39,4,-4,-24,-14,-48,-43,-48
-48,-9,39,29,-43,14,-4,-24,-24,-43,-43,-48
-48,-9,39,29,-43,14,-4,-24,-29,-48,-48,-48
-48,-14,34,31,-41,9,-9,-29,-39,-53,-58,-48
-48,-14,34,31,-41,9,-14,-29,-39,-58,-58,-53
-43,-29,14,36,-29,-7,-4,-19,-29,-48,-48,-53
-43,-39,4,41,-24,-17,-4,-19,-39,-48,-48,-53
-43,-39,4,41,-24,-17,-4,-19,-29,-48,-48,-53
-53,-58,-4,56,-24,-31,0,-19,-29,-48,-48,-53
-53,-63,-9,58,-21,-36,-4,-29,-39,-58,-58,-63
-48,-53,-4,51,-21,-29,-4,-29,-39,-58,-58,-63
-48,-53,-4,51,-21,-29,-4,-29,-34,-53,-58,-63
-48,-53,-4,51,-21,-29,-9,-29,-34,-53,-58,-63
-58,-43,14,51,-36,-14,0,-19,-29,-43,-48,-53
-63,-43,19,53,-41,-12,0,-14,-29,-43,-48,-53
-63,-39,24,51,-43,-7,0,-14,-29,-43,-48,-53
-63,-29,34,46,-48,2,0,-19,-29,-43,-48,-53
-73,-53,19,63,-46,-17,0,-19,-39,-48,-58,-53
-58,-43,14,51,-36,-14,4,-14,-34,-48,-58,-53
-53,-43,9,48,-31,-17,4,-14,-34,-48,-58,-53
-53,-43,9,48,-31,-17,0,-14,-34,-48,-58,-53
-53,-34,19,43,-36,-7,-9,-24,-48,-53,-63,-63
-53,-39,14,46,-34,-12,-9,-24,-48,-58,-63,-63
-48,-39,9,43,-29,-14,-9,-24,-48,-58,-58,-63
-39,-29,9,34,-24,-9,-4,-24,-48,-63,-58,-63
-53,-34,19,43,-36,-7,4,-24,-43,-73,-58,-53
-53,-39,14,46,-34,-12,4,-19,-39,-58,-58,-58
-53,-43,9,48,-31,-17,4,-9,-29,-48,-58,-58
-58,-53,4,56,-31,-24,4,-4,-24,-43,-58,-58
-53,-43,9,48,-31,-17,-4,-9,-39,-53,-63,-68
-53,-43,9,48,-31,-17,-9,-9,-39,-58,-63,-68
-53,-43,9,48,-31,-17,-9,-14,-39,-58,-58,-68
-53,-43,9,48,-31,-17,-4,-14,-39,-58,-53,-63
-63,-58,4,61,-34,-26,-4,-14,-39,-58,-63,-53
-63,-58,4,61,-34,-26,-4,-14,-39,-58,-63,-53
-53,-48,4,51,-29,-21,0,-14,-39,-58,-63,-53
-63,-63,0,63,-31,-31,0,-14,-39,-58,-63,-58
-53,-53,0,53,-26,-26,4,-14,-29,-43,-63,-58
-53,-53,0,53,-26,-26,4,-14,-24,-43,-58,-58
-68,-53,14,61,-41,-19,4,-9,-19,-43,-53,-58
-68,-43,24,56,-46,-9,9,-9,-14,-43,-48,-58
-53,-43,9,48,-31,-17,0,-9,-24,-53,-48,-58
-73,-48,24,61,-48,-12,0,-9,-24,-68,-58,-68
-73,-48,24,61,-48,-12,0,-9,-24,-58,-58,-58
-68,-48,19,58,-43,-14,0,-9,-24,-53,-53,-58
-78,-53,24,65,-51,-14,0,-14,-29,-63,-58,-68
-73,-53,19,63,-46,-17,4,-9,-34,-63,-63,-63
-73,-58,14,65,-43,-21,9,-9,-39,-63,-58,-63
-63,-58,4,61,-34,-26,14,-9,-43,-63,-63,-63
-63,-58,4,61,-34,-26,9,-9,-29,-63,-53,-63
-68,-63,4,65,-36,-29,9,-9,-29,-63,-68,-68
-68,-68,0,68,-34,-34,9,-9,-34,-73,-68,-68
-68,-68,0,68,-34,-34,9,-9,-34,-63,-58,-68
-68,-68,0,68,-34,-34,9,-9,-29,-53,-68,-78
-68,-58,9,63,-39,-24,9,-9,-29,-53,-58,-78
-68,-68,0,68,-34,-34,9,-9,-29,-53,-58,-78
-68,-68,0,68,-34,-34,9,-4,-24,-53,-63,-73
-78,-58,19,68,-48,-19,9,4,-14,-53,-53,-68
-87,-63,24,75,-56,-19,14,4,-19,-53,-53,-68
-87,-63,24,75,-56,-19,14,4,-19,-63,-58,-63
-73,-63,9,68,-41,-26,14,4,-24,-53,-58,-58
-87,-73,14,80,-51,-29,9,0,-34,-53,-63,-63
-87,-63,24,75,-56,-19,4,-4,-34,-58,-68,-68
-78,-63,14,70,-46,-24,4,-9,-29,-58,-73,-73
-78,-63,14,70,-46,-24,4,-14,-29,-53,-78,-78
-78,-58,19,68,-48,-19,9,-4,-19,-53,-73,-68
-78,-58,19,68,-48,-19,9,-9,-24,-58,-73,-68
-87,-82,4,85,-46,-39,0,-9,-24,-58,-68,-68
-73,-73,0,73,-36,-36,9,-9,-24,-58,-63,-68
-82,-58,24,70,-53,-17,0,-19,-29,-63,-68,-78
-82,-58,24,70,-53,-17,0,-19,-34,-63,-73,-78
-73,-63,9,68,-41,-26,0,-14,-34,-68,-73,-78
-87,-63,24,75,-56,-19,0,-14,-39,-73,-78,-78
-102,-58,43,80,-73,-7,14,-4,-29,-68,-63,-73
-102,-58,43,80,-73,-7,14,-4,-29,-68,-63,-68
-112,-63,48,87,-80,-7,9,0,-29,-68,-58,-63
-112,-68,43,90,-78,-12,9,4,-29,-63,-53,-58
-122,-68,53,95,-87,-7,19,0,-39,-58,-63,-68
-117,-68,48,92,-82,-9,19,0,-43,-58,-63,-73
-117,-68,48,92,-82,-9,19,0,-43,-63,-63,-78
-112,-68,43,90,-78,-12,19,0,-43,-63,-63,-78
-102,-68,34,85,-68,-17,9,0,-53,-63,-63,-78
-92,-53,39,73,-65,-7,9,0,-53,-63,-68,-78
-112,-53,58,82,-85,2,9,-4,-58,-73,-73,-78
-112,-53,58,82,-85,2,4,-4,-63,-73,-82,-78
-102,-53,48,78,-75,-2,14,-9,-53,-58,-63,-68
-107,-58,48,82,-78,-4,14,-9,-53,-58,-58,-68
-107,-73,34,90,-70,-19,14,-14,-53,-58,-58,-68
-102,-78,24,90,-63,-26,14,-14,-53,-58,-58,-68
-102,-87,14,95,-58,-36,14,-4,-53,-63,-73,-78
-102,-73,29,87,-65,-21,14,-4,-53,-68,-73,-78
-112,-73,39,92,-75,-17,14,-9,-53,-73,-73,-78
-112,-78,34,95,-73,-21,14,-9,-58,-87,-82,-87
-92,-82,9,87,-51,-36,24,-9,-58,-82,-82,-78
-107,-87,19,97,-63,-34,24,-9,-58,-73,-73,-78
-112,-92,19,102,-65,-36,24,-9,-63,-68,-73,-78
-112,-87,24,100,-68,-31,24,-9,-63,-63,-73,-78
-117,-92,24,104,-70,-34,24,-19,-73,-78,-82,-78
-107,-87,19,97,-63,-34,19,-19,-73,-87,-92,-82
-107,-68,39,87,-73,-14,9,-19,-73,-97,-97,-82
-107,-78,29,92,-68,-24,0,-24,-78,-102,-97,-82
-112,-73,39,92,-75,-17,9,-24,-63,-87,-82,-78
-122,-68,53,95,-87,-7,14,-24,-58,-78,-73,-73
-131,-68,63,100,-97,-2,14,-19,-53,-68,-68,-68
-141,-63,78,102,-109,7,14,-19,-48,-58,-63,-63
-151,-68,82,109,-117,7,14,-14,-58,-63,-73,-63
-146,-73,73,109,-109,0,14,-14,-58,-68,-78,-63
-146,-73,73,109,-109,0,14,-9,-58,-73,-78,-63
-151,-78,73,114,-112,-2,14,-4,-63,-87,-68,-68
-146,-92,53,119,-100,-19,14,-4,-53,-73,-68,-78
-136,-82,53,109,-95,-14,14,-4,-53,-68,-68,-68
-131,-82,48,107,-90,-17,14,-4,-53,-63,-68,-68
-131,-82,48,107,-90,-17,4,-9,-53,-58,-73,-68
-146,-78,68,112,-107,-4,4,-19,-53,-63,-73,-68
-146,-73,73,109,-109,0,4,-19,-58,-63,-73,-73
-146,-68,78,107,-112,4,9,-19,-63,-68,-73,-73
-146,-68,78,107,-112,4,14,-14,-68,-78,-73,-73
-141,-92,48,117,-95,-21,14,-14,-63,-78,-82,-73
-141,-73,68,107,-104,-2,14,-14,-68,-78,-78,-73
-136,-73,63,104,-100,-4,14,-14,-68,-78,-78,-68
-136,-73,63,104,-100,-4,9,-14,-68,-73,-82,-68
-156,-78,78,117,-117,0,9,-4,-68,-73,-82,-78
-156,-82,73,119,-114,-4,14,-4,-73,-78,-82,-78
-156,-82,73,119,-114,-4,24,-4,-73,-82,-82,-78
-156,-87,68,122,-112,-9,29,-4,-68,-82,-78,-82
-156,-97,58,126,-107,-19,19,-14,-63,-78,-63,-73
-156,-82,73,119,-114,-4,19,-19,-58,-73,-68,-73
-161,-78,82,119,-122,2,19,-19,-53,-68,-63,-73
-170,-82,87,126,-129,2,19,-19,-48,-63,-58,-73
-165,-73,92,119,-129,9,19,-9,-58,-63,-63,-63
-161,-73,87,117,-124,7,19,-9,-63,-68,-63,-63
-141,-73,68,107,-104,-2,14,-9,-63,-73,-68,-63
-136,-58,78,97,-107,9,14,-9,-68,-73,-68,-63
-165,-68,97,117,-131,14,14,-9,-58,-73,-73,-63
-165,-68,97,117,-131,14,14,-14,-58,-78,-73,-63
-161,-58,102,109,-131,21,14,-14,-58,-82,-78,-63
-156,-68,87,112,-122,9,19,-9,-58,-82,-78,-63
-146,-58,87,102,-117,14,29,-4,-53,-73,-63,-63
-146,-53,92,100,-119,19,34,-4,-48,-73,-63,-63
-146,-43,102,95,-124,29,34,-4,-48,-68,-63,-63
-136,-29,107,82,-122,39,34,0,-43,-63,-63,-53
-161,-53,107,107,-134,26,43,14,-29,-53,-53,-48
-170,-58,112,114,-141,26,43,14,-29,-53,-53,-43
-161,-53,107,107,-134,26,43,19,-29,-48,-53,-43
-151,-53,97,102,-124,21,43,19,-29,-43,-53,-43
-146,-48,97,97,-122,24,48,19,-24,-34,-48,-34
-141,-43,97,92,-119,26,48,19,-19,-34,-43,-34
-131,-39,92,85,-112,26,48,19,-14,-34,-39,-34
-122,-19,102,70,-112,41,48,19,-14,-34,-34,-29
-131,-4,126,68,-129,61,48,29,-14,-29,-29,-24
-151,-4,146,78,-148,70,39,19,-34,-39,-48,-29
-136,0,136,68,-136,68,48,29,0,-19,-29,-19
-136,-14,122,75,-129,53,58,39,-9,-29,-29,-19
-136,-19,117,78,-126,48,58,39,-9,-29,-29,-19
-136,-24,112,80,-124,43,58,39,-9,-29,-29,-19
-136,-29,107,82,-122,39,58,39,-9,-29,-29,-19
-131,-24,107,78,-119,41,43,19,-19,-29,-29,-29
-141,-34,107,87,-124,36,34,14,-19,-34,-29,-29
-126,-14,112,70,-119,48,29,9,-19,-34,-29,-29
-117,-9,107,63,-112,48,14,4,-19,-29,-24,-24
-117,-29,87,73,-102,29,19,0,-14,-29,-34,-24
-117,-19,97,68,-107,39,14,-4,-14,-29,-34,-34
-126,-19,107,73,-117,43,14,-9,-14,-29,-34,-24
-126,-19,107,73,-117,43,9,-9,-14,-24,-34,-24
-126,0,126,63,-126,63,9,-14,-29,-14,-24,-14
-126,-14,112,70,-119,48,-4,-29,-34,-34,-34,-24
-126,-19,107,73,-117,43,-14,-34,-48,-43,-39,-24
-112,-19,92,65,-102,36,-24,-43,-58,-48,-43,-24
-107,-14,92,61,-100,39,-34,-53,-58,-58,-58,-34
-102,-19,82,61,-92,31,-34,-53,-63,-63,-58,-39
-107,-19,87,63,-97,34,-39,-58,-63,-68,-58,-39
-112,-29,82,70,-97,26,-39,-58,-68,-68,-68,-43
-112,-24,87,68,-100,31,-43,-68,-82,-82,-58,-43
-107,-29,78,68,-92,24,-43,-68,-82,-82,-58,-39
-107,-39,68,73,-87,14,-43,-68,-82,-82,-58,-39
-92,-43,48,68,-70,2,-39,-68,-82,-87,-58,-39
-82,-53,29,68,-56,-12,-43,-68,-82,-87,-63,-39
-82,-48,34,65,-58,-7,-48,-73,-82,-87,-68,-48
-82,-48,34,65,-58,-7,-53,-73,-87,-82,-73,-53
-92,-53,39,73,-65,-7,-58,-78,-92,-78,-73,-53
-82,-48,34,65,-58,-7,-48,-73,-107,-92,-73,-63
-82,-53,29,68,-56,-12,-48,-73,-107,-97,-78,-68
-87,-78,9,82,-48,-34,-48,-68,-107,-97,-78,-68
-87,-68,19,78,-53,-24,-48,-63,-107,-92,-78,-63
-92,-58,34,75,-63,-12,-39,-68,-87,-82,-63,-58
-92,-53,39,73,-65,-7,-39,-68,-82,-78,-63,-58
-92,-53,39,73,-65,-7,-24,-58,-73,-73,-58,-53
-107,-58,48,82,-78,-4,-19,-53,-68,-73,-58,-53
-102,-63,39,82,-70,-12,-14,-39,-73,-73,-63,-48
-107,-68,39,87,-73,-14,0,-29,-73,-73,-68,-48
-117,-82,34,100,-75,-24,0,-29,-73,-82,-78,-58
-112,-97,14,104,-63,-41,4,-29,-73,-82,-82,-63
-117,-102,14,109,-65,-43,4,-29,-63,-87,-78,-68
-126,-122,4,124,-65,-58,4,-34,-78,-92,-92,-78
-126,-126,0,126,-63,-63,4,-34,-82,-97,-92,-78
-126,-146,-19,136,-53,-82,4,-34,-82,-102,-97,-82
-122,-141,-19,131,-51,-80,4,-43,-92,-97,-102,-82
-117,-131,-14,124,-51,-73,4,-43,-92,-102,-102,-82
-117,-126,-9,122,-53,-68,4,-43,-92,-102,-102,-82
-126,-122,4,124,-65,-58,4,-43,-92,-107,-102,-87
-126,-122,4,124,-65,-58,-4,-43,-92,-117,-102,-87
-126,-131,-4,129,-61,-68,-4,-48,-97,-117,-102,-92
-126,-131,-4,129,-61,-68,-4,-48,-97,-117,-112,-92
-126,-131,-4,129,-61,-68,-4,-48,-92,-112,-102,-92
-126,-141,-14,134,-56,-78,4,-34,-92,-102,-92,-92
-122,-136,-14,129,-53,-75,4,-34,-92,-102,-92,-92
-122,-136,-14,129,-53,-75,9,-34,-92,-107,-92,-87
-122,-136,-14,129,-53,-75,9,-29,-92,-107,-92,-87
-107,-126,-19,117,-43,-73,0,-39,-97,-107,-97,-97
-107,-126,-19,117,-43,-73,0,-39,-97,-112,-102,-97
-117,-126,-9,122,-53,-68,0,-39,-97,-117,-107,-97
-102,-126,-24,114,-39,-75,4,-39,-97,-122,-112,-97
-102,-136,-34,119,-34,-85,4,-29,-87,-117,-102,-97
-102,-136,-34,119,-34,-85,0,-29,-87,-112,-102,-97
-102,-126,-24,114,-39,-75,0,-24,-87,-102,-97,-97
-107,-141,-34,124,-36,-87,0,-24,-82,-97,-97,-97
-97,-131,-34,114,-31,-82,0,-34,-92,-102,-107,-97
-92,-131,-39,112,-26,-85,4,-34,-92,-107,-107,-97
-92,-131,-39,112,-26,-85,4,-34,-92,-112,-107,-97
-92,-131,-39,112,-26,-85,4,-34,-92,-117,-107,-97
-92,-126,-34,109,-29,-80,4,-24,-87,-112,-102,-92
-97,-131,-34,114,-31,-82,0,-24,-87,-107,-102,-87
-92,-107,-14,100,-39,-61,0,-24,-82,-102,-97,-82
-112,-117,-4,114,-53,-61,0,-24,-78,-97,-92,-78
-102,-126,-24,114,-39,-75,4,-34,-82,-107,-92,-87
-102,-126,-24,114,-39,-75,9,-34,-82,-102,-87,-82
-102,-126,-24,114,-39,-75,9,-29,-78,-102,-87,-82
-102,-122,-19,112,-41,-70,4,-29,-78,-102,-87,-82
-92,-131,-39,112,-26,-85,4,-29,-87,-107,-87,-92
-92,-131,-39,112,-26,-85,4,-29,-87,-107,-92,-92
-92,-126,-34,109,-29,-80,4,-24,-87,-112,-97,-92
-92,-126,-34,109,-29,-80,9,-24,-87,-112,-102,-92
-102,-141,-39,122,-31,-90,9,-24,-78,-112,-92,-82
-87,-126,-39,107,-24,-82,9,-24,-73,-102,-92,-82
-87,-126,-39,107,-24,-82,9,-24,-68,-102,-92,-78
-97,-126,-29,112,-34,-78,9,-24,-68,-102,-92,-78
-78,-146,-68,112,-4,-107,9,-24,-87,-117,-97,-87
-48,-136,-87,92,19,-112,19,-4,-82,-107,-102,-82
-24,-126,-102,75,39,-114,14,14,-53,-73,-82,-73
-73,-146,-73,109,0,-109,34,39,-29,-63,-78,-73
-97,-146,-48,122,-24,-97,82,87,-9,-58,-73,-68
-92,-156,-63,124,-14,-109,87,122,9,-43,-63,-73
-58,-146,-87,102,14,-117,78,141,53,-9,-39,-58
-19,-112,-92,65,36,-102,82,195,122,63,24,-14
-9,-107,-97,58,43,-102,97,258,214,161,97,39
29,-68,-97,19,63,-82,117,278,297,263,190,112
92,-4,-97,-43,95,-51,107,253,351,346,283,180
107,29,-78,-68,92,-24,68,200,395,419,341,239
131,92,-39,-112,85,26,19,107,414,468,405,292
200,170,-29,-185,114,70,-63,-29,385,517,478,375
273,229,-43,-251,158,92,-146,-151,380,575,566,453
351,297,-53,-324,202,122,-204,-214,419,668,663,541
385,341,-43,-363,214,148,-307,-341,380,697,727,619
419,390,-29,-405,224,180,-424,-527,307,727,790,692
507,488,-19,-497,263,234,-502,-644,273,780,878,785
561,507,-53,-534,307,226,-527,-673,263,819,932,849
566,507,-58,-536,312,224,-517,-678,209,810,936,858
531,512,-19,-522,275,246,-497,-688,102,702,858,805
405,463,58,-434,173,261,-478,-727,-73,483,653,673
278,366,87,-322,95,226,-434,-736,-248,239,424,488
175,268,92,-222,41,180,-414,-727,-370,68,244,341
82,204,122,-143,-19,163,-458,-751,-448,-53,126,248
29,209,180,-119,-75,195,-497,-795,-502,-165,39,185
-34,209,244,-87,-139,226,-483,-785,-551,-263,-53,122
-97,161,258,-31,-178,209,-444,-722,-536,-317,-126,48
-78,126,204,-24,-141,165,-400,-639,-497,-336,-170,-9
-78,73,151,2,-114,112,-346,-527,-453,-322,-190,-53
-97,9,107,43,-102,58,-263,-400,-390,-292,-195,-97
-92,0,92,46,-92,46,-180,-297,-307,-248,-170,-107
-102,-29,73,65,-87,21,-131,-219,-258,-219,-156,-107
-87,-34,53,61,-70,9,-92,-156,-200,-180,-141,-87
-73,-29,43,51,-58,7,-39,-102,-141,-141,-122,-73
-97,-73,24,85,-61,-24,-29,-87,-112,-107,-102,-68
-78,-78,0,78,-39,-39,-34,-73,-97,-102,-92,-63
-58,-48,9,53,-34,-19,-24,-58,-92,-97,-82,-63
-68,-58,9,63,-39,-24,-4,-39,-73,-73,-63,-53
-68,-58,9,63,-39,-24,0,-4,-43,-53,-39,-29
-78,-68,9,73,-43,-29,4,0,-53,-78,-58,-48
-97,-92,4,95,-51,-43,19,9,-48,-78,-73,-58
-68,-97,-29,82,-19,-63,39,29,-24,-48,-53,-58
-68,-102,-34,85,-17,-68,29,24,-29,-63,-68,-68
-68,-107,-39,87,-14,-73,29,24,-34,-68,-68,-68
-78,-107,-29,92,-24,-68,19,24,-53,-73,-73,-68
-68,-97,-29,82,-19,-63,19,24,-58,-78,-78,-68
-58,-87,-29,73,-14,-58,14,34,-48,-73,-68,-58
-68,-87,-19,78,-24,-53,24,34,-43,-68,-68,-58
-58,-87,-29,73,-14,-58,34,43,-29,-63,-68,-58
-58,-97,-39,78,-9,-68,34,48,-14,-58,-73,-63
-68,-92,-24,80,-21,-58,43,53,-4,-53,-68,-53
-68,-92,-24,80,-21,-58,43,48,-4,-48,-63,-48
-68,-107,-39,87,-14,-73,39,39,-9,-43,-58,-48
-68,-92,-24,80,-21,-58,39,34,-14,-39,-48,-48
-48,-97,-48,73,0,-73,29,43,-19,-39,-63,-58
-58,-97,-39,78,-9,-68,29,43,-14,-43,-68,-63
-58,-97,-39,78,-9,-68,39,53,-14,-53,-63,-68
-53,-102,-48,78,-2,-75,39,58,-14,-63,-68,-73
-43,-107,-63,75,9,-85,43,58,-4,-53,-73,-68
-29,-102,-73,65,21,-87,48,58,0,-48,-68,-68
-39,-102,-63,70,12,-82,48,58,0,-43,-58,-68
-58,-97,-39,78,-9,-68,53,48,-4,-39,-53,-68
-53,-87,-34,70,-9,-61,48,48,-19,-53,-58,-58
-58,-97,-39,78,-9,-68,43,48,-24,-58,-63,-58
-63,-107,-43,85,-9,-75,43,48,-29,-58,-63,-63
-63,-107,-43,85,-9,-75,43,53,-34,-58,-68,-63
-48,-112,-63,80,7,-87,43,48,-29,-48,-68,-82
-34,-102,-68,68,17,-85,43,48,-14,-48,-68,-73
-29,-97,-68,63,19,-82,43,48,-9,-48,-68,-73
-29,-97,-68,63,19,-82,39,43,-9,-48,-68,-73
-39,-87,-48,63,4,-68,29,43,-19,-53,-58,-63
-39,-78,-39,58,0,-58,29,48,-9,-48,-53,-53
-39,-78,-39,58,0,-58,29,48,-9,-48,-53,-53
-39,-63,-24,51,-7,-43,29,48,-4,-48,-48,-53
-53,-82,-29,68,-12,-56,39,53,0,-39,-48,-58
-53,-87,-34,70,-9,-61,43,58,4,-39,-48,-58
-39,-82,-43,61,2,-63,43,58,9,-39,-48,-58
-48,-102,-53,75,2,-78,43,58,14,-39,-48,-58
-58,-102,-43,80,-7,-73,34,58,9,-43,-48,-58
-48,-92,-43,70,-2,-68,34,58,9,-39,-48,-53
-58,-92,-34,75,-12,-63,34,63,4,-39,-48,-53
-58,-82,-24,70,-17,-53,34,63,4,-43,-43,-53
-63,-92,-29,78,-17,-61,43,63,9,-39,-34,-43
-68,-107,-39,87,-14,-73,43,73,19,-34,-34,-43
-63,-92,-29,78,-17,-61,48,73,34,-24,-29,-39
-68,-102,-34,85,-17,-68,48,73,29,-19,-29,-39
-63,-102,-39,82,-12,-70,34,68,29,-9,-24,-39
-43,-82,-39,63,-2,-61,34,68,34,-9,-19,-34
-34,-82,-48,58,7,-65,39,73,34,-9,-19,-34
-24,-82,-58,53,17,-70,39,78,34,-9,-24,-34
-24,-82,-58,53,17,-70,39,68,24,-24,-39,-39
-29,-87,-58,58,14,-73,39,78,19,-24,-43,-43
-34,-87,-53,61,9,-70,43,82,24,-24,-39,-43
-39,-92,-53,65,7,-73,43,82,24,-19,-43,-48
-48,-102,-53,75,2,-78,34,78,39,-14,-29,-43
-39,-87,-48,63,4,-68,39,78,43,-9,-19,-34
-29,-78,-48,53,9,-63,39,82,48,-4,-14,-29
-43,-78,-34,61,-4,-56,39,82,58,0,-9,-24
-34,-73,-39,53,2,-56,39,73,58,-4,-19,-34
-34,-73,-39,53,2,-56,39,78,63,-4,-19,-29
-29,-82,-53,56,12,-68,39,87,58,0,-14,-29
-29,-63,-34,46,2,-48,39,92,58,4,-9,-29
-19,-82,-63,51,21,-73,29,102,58,14,0,-19
-14,-82,-68,48,26,-75,29,97,58,19,0,-14
-14,-78,-63,46,24,-70,29,97,63,24,9,-9
-14,-78,-63,46,24,-70,34,97,63,29,9,-9
-14,-63,-48,39,17,-56,43,92,73,19,9,-19
-19,-68,-48,43,14,-58,43,102,78,29,4,-14
-24,-73,-48,48,12,-61,43,112,87,34,9,-9
-14,-43,-29,29,7,-36,43,112,92,43,9,-9
-9,-53,-43,31,17,-48,43,112,102,53,14,-4
-14,-53,-39,34,12,-46,43,112,107,58,29,4
0,-39,-39,19,19,-39,43,122,112,63,39,19
9,-39,-48,14,29,-43,43,122,117,68,43,24
9,-24,-34,7,21,-29,34,112,122,82,43,14
14,-24,-39,4,26,-31,34,117,131,87,53,24
14,-34,-48,9,31,-41,39,122,136,92,58,29
19,-19,-39,0,29,-29,39,131,151,112,68,34
9,-4,-14,-2,12,-9,43,131,156,107,82,48
0,-4,-4,2,2,-4,43,131,161,112,82,53
14,4,-9,-9,12,-2,43,136,165,117,87,58
14,9,-4,-12,9,2,48,146,170,122,92,63
19,9,-9,-14,14,0,43,151,175,141,102,68
29,14,-14,-21,21,0,43,151,185,141,107,73
34,14,-19,-24,26,-2,34,146,185,151,117,73
39,24,-14,-31,26,4,34,146,195,151,117,73
39,24,-14,-31,26,4,43,146,185,151,122,73
24,19,-4,-21,14,7,43,146,185,151,122,78
34,24,-9,-29,21,7,43,151,190,151,117,82
48,24,-24,-36,36,0,43,151,195,151,112,92
58,39,-19,-48,39,9,39,141,195,161,122,92
68,48,-19,-58,43,14,34,141,200,165,126,87
73,53,-19,-63,46,17,29,136,200,165,131,87
73,58,-14,-65,43,21,24,136,200,175,136,97
73,58,-14,-65,43,21,24,136,214,185,136,112
68,58,-9,-63,39,24,24,131,214,185,141,117
58,58,0,-58,29,29,19,126,214,190,151,117
53,63,9,-58,21,36,19,126,214,190,151,117
63,78,14,-70,24,46,19,122,219,180,151,112
73,87,14,-80,29,51,19,122,219,185,151,117
82,92,9,-87,36,51,19,122,219,195,156,117
87,87,0,-87,43,43,14,112,219,185,156,117
82,97,14,-90,34,56,4,117,224,185,161,131
78,92,14,-85,31,53,0,112,214,185,161,131
63,87,24,-75,19,56,0,107,214,185,161,131
58,82,24,-70,17,53,0,102,214,195,161,136
53,92,39,-73,7,65,4,97,195,185,156,131
53,97,43,-75,4,70,-4,82,185,170,141,126
68,97,29,-82,19,63,-4,78,175,165,151,122
58,87,29,-73,14,58,-9,73,165,161,146,117
43,78,34,-61,4,56,-9,78,175,165,146,126
58,87,29,-73,14,58,-9,73,180,165,151,126
43,73,29,-58,7,51,-14,58,170,165,141,117
43,73,29,-58,7,51,-14,48,165,151,141,117
29,73,43,-51,-7,58,-4,39,146,131,126,102
14,73,58,-43,-21,65,-4,34,136,122,117,97
9,73,63,-41,-26,68,-4,34,131,122,117,92
0,58,58,-29,-29,58,-4,29,126,107,112,87
4,63,58,-34,-26,61,-9,24,107,92,102,82
9,68,58,-39,-24,63,-9,19,97,82,87,78
-4,43,48,-19,-26,46,-19,9,92,73,73,68
-9,39,48,-14,-29,43,-19,4,68,58,48,53
-14,39,53,-12,-34,46,-19,9,73,58,43,39
-19,24,43,-2,-31,34,-19,4,58,43,39,34
-29,19,48,4,-39,34,-19,0,48,29,24,24
-39,0,39,19,-39,19,-19,0,39,24,24,19
-43,-9,34,26,-39,12,-14,4,43,19,34,24
-43,4,48,19,-46,26,-9,4,43,24,34,29
-58,-9,48,34,-53,19,-4,0,39,24,29,29
-63,-29,34,46,-48,2,4,-4,29,19,24,29
-68,-14,53,41,-61,19,-4,-19,24,9,14,24
-68,-9,58,39,-63,24,-4,-19,24,0,4,9
-68,-9,58,39,-63,24,-9,-19,14,-4,-4,4
-68,-4,63,36,-65,29,-14,-19,4,-9,-4,-4
-63,-9,53,36,-58,21,-14,-24,-4,-14,-14,0
-63,-9,53,36,-58,21,-14,-24,-4,-14,-19,0
-63,-9,53,36,-58,21,-14,-24,-4,-14,-19,0
-68,-19,48,43,-58,14,-14,-24,-4,-19,-24,-9
-78,-9,68,43,-73,29,-4,-34,-4,-24,-14,-19
-78,-9,68,43,-73,29,-4,-34,-9,-29,-19,-19
-78,-14,63,46,-70,24,-9,-39,-19,-34,-29,-19
-78,-14,63,46,-70,24,-14,-39,-19,-39,-29,-24
-82,-29,53,56,-68,12,-14,-34,-19,-29,-29,-14
-82,-29,53,56,-68,12,-14,-29,-29,-29,-29,-14
-82,-19,63,51,-73,21,-14,-24,-19,-29,-29,-14
-92,-29,63,61,-78,17,-9,-19,-19,-29,-29,-14
-102,-43,58,73,-80,7,4,-19,-19,-39,-19,-24
-97,-34,63,65,-80,14,4,-19,-19,-39,-19,-24
-97,-34,63,65,-80,14,4,-19,-14,-34,-19,-24
-97,-34,63,65,-80,14,0,-19,-14,-34,-19,-24
-97,-24,73,61,-85,24,-9,-19,-19,-43,-29,-24
-102,-24,78,63,-90,26,-9,-14,-19,-43,-29,-24
-102,-19,82,61,-92,31,-9,-14,-19,-43,-29,-24
-102,-9,92,56,-97,41,-9,-19,-19,-43,-29,-24
-102,-43,58,73,-80,7,0,-19,-19,-43,-19,-14
-87,-34,53,61,-70,9,4,-14,-14,-39,-19,-14
-82,-34,48,58,-65,7,4,-14,-14,-34,-19,-14
-82,-34,48,58,-65,7,0,-14,-14,-29,-19,-14
-92,-24,68,58,-80,21,-9,-24,-19,-29,-34,-24
-92,-29,63,61,-78,17,-9,-24,-19,-29,-34,-24
-87,-29,58,58,-73,14,-9,-24,-19,-24,-29,-24
-78,-19,58,48,-68,19,-4,-24,-19,-24,-29,-24
-82,-29,53,56,-68,12,-4,-29,-29,-53,-39,-24
-82,-29,53,56,-68,12,-4,-29,-29,-48,-39,-29
-82,-29,53,56,-68,12,-4,-24,-24,-48,-39,-29
-87,-34,53,61,-70,9,-4,-24,-24,-53,-39,-29
-92,-43,48,68,-70,2,4,-9,-19,-43,-34,-29
-92,-43,48,68,-70,2,0,-9,-19,-48,-34,-29
-92,-43,48,68,-70,2,0,-14,-19,-48,-29,-29
-92,-43,48,68,-70,2,4,-14,-19,-48,-24,-24
-102,-43,58,73,-80,7,0,-14,-19,-39,-34,-24
-102,-39,63,70,-82,12,-4,-14,-19,-39,-34,-24
-92,-24,68,58,-80,21,-4,-14,-19,-39,-34,-24
-102,-34,68,68,-85,17,-9,-14,-19,-39,-34,-29
-102,-39,63,70,-82,12,4,-4,-14,-43,-39,-29
-102,-43,58,73,-80,7,4,-4,-14,-43,-39,-29
-117,-48,68,82,-92,9,4,0,-14,-43,-39,-29
-117,-43,73,80,-95,14,9,0,-14,-43,-39,-29
-102,-43,58,73,-80,7,9,-9,-4,-39,-34,-19
-122,-48,73,85,-97,12,9,-9,-4,-48,-39,-29
-122,-48,73,85,-97,12,9,-9,-4,-34,-34,-19
-117,-48,68,82,-92,9,9,-9,-4,-24,-24,-19
-117,-48,68,82,-92,9,4,-14,-14,-34,-29,-29
-112,-43,68,78,-90,12,4,-9,-14,-34,-34,-24
-112,-43,68,78,-90,12,4,-9,-14,-34,-29,-24
-102,-39,63,70,-82,12,4,-9,-14,-34,-34,-24
-92,-43,48,68,-70,2,0,-9,-9,-43,-34,-34
-97,-43,53,70,-75,4,0,-9,-9,-43,-48,-39
-97,-43,53,70,-75,4,0,-9,-14,-53,-48,-39
-97,-39,58,68,-78,9,0,-9,-14,-43,-39,-39
-97,-29,68,63,-82,19,0,-9,0,-39,-39,-29
-97,-19,78,58,-87,29,0,-9,0,-34,-29,-29
-97,-29,68,63,-82,19,0,-9,0,-29,-29,-29
-97,-29,68,63,-82,19,0,-4,4,-24,-34,-24
-97,-34,63,65,-80,14,0,-4,-4,-34,-34,-34
-107,-43,63,75,-85,9,4,-4,-9,-34,-34,-39
-107,-48,58,78,-82,4,4,-4,-9,-43,-39,-39
-92,-53,39,73,-65,-7,4,-4,-14,-34,-39,-39
-117,-53,63,85,-90,4,9,-4,-4,-24,-29,-34
-117,-43,73,80,-95,14,4,-4,-4,-29,-29,-29
-107,-43,63,75,-85,9,4,-4,0,-29,-29,-24
-107,-43,63,75,-85,9,4,-4,0,-24,-29,-19
-97,-29,68,63,-82,19,9,-4,-9,-34,-29,-29
-97,-29,68,63,-82,19,9,-9,-14,-39,-34,-29
-107,-53,53,80,-80,0,0,-9,-14,-39,-34,-29
-92,-43,48,68,-70,2,9,-9,-14,-39,-34,-29
-107,-39,68,73,-87,14,9,-9,-14,-48,-39,-29
-112,-39,73,75,-92,17,9,-9,-14,-43,-43,-29
-107,-43,63,75,-85,9,9,-4,-9,-43,-43,-29
-126,-43,82,85,-104,19,9,-4,-9,-43,-48,-29
-122,-48,73,85,-97,12,14,0,-9,-39,-43,-29
-122,-48,73,85,-97,12,14,-4,-9,-39,-43,-29
-131,-53,78,92,-104,12,9,-4,-9,-39,-39,-29
-131,-58,73,95,-102,7,9,-4,-9,-34,-34,-29
-122,-58,63,90,-92,2,9,-9,-9,-39,-43,-29
-117,-58,58,87,-87,0,9,-9,-14,-39,-43,-34
-117,-58,58,87,-87,0,9,-9,-14,-43,-43,-39
-112,-58,53,85,-82,-2,9,-9,-14,-43,-43,-39
-122,-68,53,95,-87,-7,9,0,-14,-34,-34,-29
-112,-53,58,82,-85,2,9,0,-14,-34,-39,-29
-131,-53,78,92,-104,12,9,-4,-19,-43,-43,-29
-131,-53,78,92,-104,12,4,-4,-24,-43,-53,-29
-122,-39,82,80,-102,21,-4,-4,-34,-43,-48,-34
-126,-39,87,82,-107,24,-4,-9,-34,-48,-48,-39
-126,-48,78,87,-102,14,-4,-19,-34,-53,-53,-43
-122,-48,73,85,-97,12,-4,-24,-34,-58,-58,-48
-112,-58,53,85,-82,-2,4,-14,-24,-48,-58,-43
-112,-43,68,78,-90,12,4,-14,-24,-48,-53,-39
-122,-43,78,82,-100,17,4,-19,-24,-48,-48,-34
-122,-48,73,85,-97,12,4,-19,-29,-58,-53,-39
-122,-58,63,90,-92,2,4,-9,-29,-58,-63,-39
-136,-58,78,97,-107,9,4,-9,-29,-53,-53,-39
-141,-58,82,100,-112,12,4,-9,-34,-53,-53,-39
-141,-48,92,95,-117,21,4,-9,-34,-53,-53,-39
-126,-53,73,90,-100,9,0,-19,-43,-53,-53,-48
-117,-48,68,82,-92,9,0,-19,-43,-58,-63,-53
-117,-29,87,73,-102,29,-4,-19,-43,-63,-68,-53
-117,-39,78,78,-97,19,-9,-24,-48,-63,-68,-53
-117,-53,63,85,-90,4,0,-24,-39,-68,-58,-53
-122,-58,63,90,-92,2,4,-24,-39,-68,-53,-53
-126,-68,58,97,-92,-4,4,-19,-39,-68,-53,-53
-131,-73,58,102,-95,-7,4,-19,-39,-68,-53,-53
-131,-58,73,95,-102,7,4,-19,-48,-68,-63,-53
-126,-53,73,90,-100,9,4,-24,-48,-68,-68,-53
-126,-43,82,85,-104,19,4,-24,-48,-68,-68,-53
-131,-39,92,85,-112,26,4,-24,-53,-78,-58,-58
-131,-63,68,97,-100,2,-4,-34,-43,-68,-58,-58
-126,-53,73,90,-100,9,-4,-34,-43,-68,-58,-48
-126,-53,73,90,-100,9,-4,-34,-43,-68,-58,-48
-131,-53,78,92,-104,12,-14,-39,-43,-68,-63,-48
-136,-53,82,95,-109,14,-4,-34,-29,-58,-63,-48
-136,-53,82,95,-109,14,-4,-29,-29,-53,-63,-53
-136,-53,82,95,-109,14,0,-24,-29,-53,-63,-53
-136,-58,78,97,-107,9,4,-14,-29,-58,-63,-53
-141,-73,68,107,-104,-2,4,-24,-43,-63,-73,-63
-141,-53,87,97,-114,17,4,-24,-48,-68,-68,-63
-136,-53,82,95,-109,14,4,-24,-48,-73,-68,-58
-136,-53,82,95,-109,14,0,-24,-48,-73,-73,-58
-146,-58,87,102,-117,14,-4,-24,-39,-68,-73,-58
-146,-63,82,104,-114,9,-4,-24,-43,-68,-73,-58
-146,-63,82,104,-114,9,0,-24,-43,-68,-73,-58
-146,-68,78,107,-112,4,0,-24,-39,-63,-68,-63
-141,-73,68,107,-104,-2,-9,-14,-48,-73,-58,-58
-136,-53,82,95,-109,14,-9,-19,-48,-73,-68,-53
-136,-43,92,90,-114,24,-9,-19,-48,-73,-68,-48
-141,-43,97,92,-119,26,-9,-19,-48,-73,-68,-43
-141,-53,87,97,-114,17,-4,-9,-34,-58,-68,-53
-141,-53,87,97,-114,17,0,-9,-34,-58,-63,-53
-126,-53,73,90,-100,9,0,-9,-29,-58,-63,-53
-126,-39,87,82,-107,24,4,-9,-29,-53,-58,-53
-146,-34,112,90,-129,39,14,0,-29,-53,-53,-43
-146,-29,117,87,-131,43,14,-4,-29,-58,-53,-43
-141,-14,126,78,-134,56,14,-4,-29,-63,-58,-43
-136,-19,117,78,-126,48,19,0,-29,-63,-58,-43
-126,-19,107,73,-117,43,19,4,-14,-53,-43,-43
-126,-14,112,70,-119,48,24,4,-9,-53,-43,-43
-126,-4,122,65,-124,58,24,4,-9,-48,-43,-43
-117,9,126,53,-122,68,24,9,-4,-43,-43,-34
-151,0,151,75,-151,75,24,4,0,-34,-43,-29
-141,9,151,65,-146,80,43,14,9,-24,-24,-14
-141,0,141,70,-141,70,43,9,0,-29,-34,-24
-117,9,126,53,-122,68,29,9,0,-29,-29,-19
-117,9,126,53,-122,68,24,9,-9,-39,-39,-29
-117,9,126,53,-122,68,19,9,-9,-39,-39,-29
-117,9,126,53,-122,68,14,9,-9,-39,-39,-29
-117,9,126,53,-122,68,9,9,-9,-39,-39,-29
-107,0,107,53,-107,53,9,-9,-9,-39,-39,-29
-122,-14,107,68,-114,46,4,-14,-9,-43,-39,-29
-112,0,112,56,-112,56,4,-19,-9,-43,-39,-29
-107,0,107,53,-107,53,-4,-24,-9,-39,-34,-24
-97,-4,92,51,-95,43,-9,-19,-14,-29,-34,-24
-97,9,107,43,-102,58,-14,-24,-14,-29,-34,-34
-107,14,122,46,-114,68,-14,-29,-14,-29,-34,-24
-107,19,126,43,-117,73,-19,-29,-14,-24,-34,-24
-112,24,136,43,-124,80,-19,-34,-19,-24,-34,-24
-117,4,122,56,-119,63,-34,-48,-24,-43,-43,-34
-122,-4,117,63,-119,56,-43,-53,-39,-53,-48,-34
-112,-9,102,61,-107,46,-53,-63,-48,-58,-53,-34
-117,-4,112,61,-114,53,-53,-82,-48,-68,-58,-43
-112,-9,102,61,-107,46,-53,-82,-53,-73,-58,-48
-117,-9,107,63,-112,48,-58,-87,-53,-78,-58,-48
-122,-19,102,70,-112,41,-58,-87,-58,-78,-68,-53
-126,-19,107,73,-117,43,-63,-78,-63,-82,-58,-53
-126,-19,107,73,-117,43,-63,-78,-63,-82,-58,-48
-131,-24,107,78,-119,41,-63,-78,-63,-82,-58,-48
-122,-24,97,73,-109,36,-58,-78,-63,-87,-58,-48
-112,-39,73,75,-92,17,-58,-68,-73,-82,-63,-48
-112,-39,73,75,-92,17,-58,-73,-73,-87,-68,-58
-112,-43,68,78,-90,12,-58,-73,-78,-87,-73,-63
-122,-53,68,87,-95,7,-58,-78,-82,-87,-73,-63
-107,-34,73,70,-90,19,-58,-92,-97,-102,-82,-63
-102,-34,68,68,-85,17,-58,-92,-97,-107,-87,-68
-102,-53,48,78,-75,-2,-58,-87,-97,-107,-87,-68
-97,-39,58,68,-78,9,-58,-82,-97,-102,-87,-63
-112,-48,63,80,-87,7,-48,-68,-87,-82,-73,-48
-112,-43,68,78,-90,12,-48,-68,-82,-78,-73,-48
-112,-43,68,78,-90,12,-34,-58,-73,-73,-68,-43
-126,-48,78,87,-102,14,-29,-53,-68,-73,-68,-43
-117,-48,68,82,-92,9,-24,-48,-73,-73,-58,-48
-126,-48,78,87,-102,14,-9,-39,-73,-73,-58,-48
-141,-58,82,100,-112,12,-9,-39,-73,-82,-63,-58
-141,-68,73,104,-107,2,-4,-39,-73,-82,-63,-63
-151,-78,73,114,-112,-2,-4,-29,-73,-78,-68,-58
-165,-92,73,129,-119,-9,-4,-34,-87,-82,-82,-68
-170,-92,78,131,-124,-7,-4,-34,-92,-87,-82,-68
-175,-107,68,141,-122,-19,-4,-34,-92,-92,-87,-73
-165,-102,63,134,-114,-19,-4,-43,-112,-97,-92,-82
-165,-92,73,129,-119,-9,-4,-43,-112,-102,-92,-82
-170,-87,82,129,-126,-2,-4,-43,-112,-102,-92,-82
-185,-82,102,134,-143,9,-4,-43,-112,-107,-92,-87
-175,-92,82,134,-129,-4,-4,-34,-102,-107,-92,-87
-175,-102,73,139,-124,-14,-4,-39,-107,-107,-92,-92
-175,-102,73,139,-124,-14,-4,-39,-107,-107,-102,-92
-175,-102,73,139,-124,-14,-4,-39,-102,-102,-92,-92
-170,-102,68,136,-119,-17,-14,-43,-107,-112,-102,-102
-161,-97,63,129,-112,-17,-14,-43,-112,-112,-102,-102
-156,-97,58,126,-107,-19,-9,-43,-117,-117,-102,-97
-151,-97,53,124,-102,-21,-9,-39,-122,-117,-102,-97
-161,-97,63,129,-112,-17,0,-29,-112,-102,-102,-87
-165,-97,68,131,-117,-14,0,-29,-107,-102,-102,-87
-180,-97,82,139,-131,-7,0,-29,-102,-102,-102,-87
-170,-97,73,134,-122,-12,4,-29,-97,-102,-102,-87
-170,-97,73,134,-122,-12,4,-29,-97,-102,-92,-97
-170,-97,73,134,-122,-12,0,-29,-97,-102,-92,-97
-170,-87,82,129,-126,-2,0,-24,-97,-97,-87,-97
-175,-102,73,139,-124,-14,0,-24,-92,-97,-87,-97
-165,-92,73,129,-119,-9,0,-24,-102,-107,-97,-87
-161,-92,68,126,-114,-12,4,-24,-102,-107,-97,-87
-161,-92,68,126,-114,-12,4,-24,-102,-107,-97,-87
-161,-92,68,126,-114,-12,4,-24,-102,-107,-97,-87
-165,-102,63,134,-114,-19,4,-34,-102,-107,-97,-97
-165,-112,53,139,-109,-29,0,-34,-107,-107,-102,-97
-156,-92,63,124,-109,-14,0,-34,-107,-107,-102,-97
-170,-107,63,139,-117,-21,0,-34,-107,-107,-102,-97
-170,-102,68,136,-119,-17,4,-24,-92,-97,-92,-87
-170,-97,73,134,-122,-12,9,-24,-92,-92,-87,-82
-170,-92,78,131,-124,-7,9,-19,-87,-92,-87,-82
-170,-82,87,126,-129,2,4,-19,-87,-92,-87,-82
-170,-87,82,129,-126,-2,4,-19,-97,-87,-82,-82
-170,-92,78,131,-124,-7,4,-19,-97,-87,-82,-82
-170,-92,78,131,-124,-7,4,-14,-97,-92,-82,-82
-170,-97,73,134,-122,-12,9,-14,-97,-92,-82,-82
-170,-102,68,136,-119,-17,9,-24,-87,-92,-82,-82
-156,-87,68,122,-112,-9,9,-24,-82,-82,-82,-82
-156,-87,68,122,-112,-9,9,-24,-78,-82,-82,-78
-165,-87,78,126,-122,-4,9,-24,-78,-82,-82,-78
-165,-107,58,136,-112,-24,19,-4,-87,-78,-78,-78
-165,-107,58,136,-112,-24,29,4,-73,-78,-73,-63
-151,-78,73,114,-112,-2,43,34,-34,-43,-43,-53
-170,-97,73,134,-122,-12,43,48,-19,-34,-39,-53
-156,-107,48,131,-102,-29,53,78,-9,-48,-53,-68
-141,-107,34,124,-87,-36,78,112,9,-34,-43,-63
-117,-97,19,107,-68,-39,87,161,63,19,-9,-39
-78,-73,4,75,-41,-34,102,224,141,112,53,4
-58,-48,9,53,-34,-19,117,278,224,190,126,68
-39,-9,29,24,-34,9,107,268,278,273,200,122
24,63,39,-43,-7,51,78,214,322,346,283,180
48,87,39,-68,4,63,48,161,366,400,351,239
73,131,58,-102,7,95,0,68,395,468,424,302
131,219,87,-175,21,153,-73,-48,424,556,527,395
195,268,73,-231,61,170,-146,-161,448,663,624,502
273,317,43,-295,114,180,-224,-234,458,736,722,580
336,361,24,-348,156,192,-317,-361,390,756,766,629
361,419,58,-390,151,239,-444,-546,287,756,810,683
439,517,78,-478,180,297,-512,-653,253,810,888,766
502,556,53,-529,224,305,-527,-663,292,878,980,849
507,536,29,-522,239,283,-527,-658,268,888,995,868
483,531,48,-507,217,290,-517,-678,161,800,936,834
385,492,107,-439,139,300,-507,-717,-14,570,741,702
258,375,117,-317,70,246,-492,-736,-219,307,483,517
175,268,92,-222,41,180,-473,-727,-361,126,302,370
73,185,112,-129,-19,148,-507,-751,-419,24,195,297
19,200,180,-109,-80,190,-546,-805,-492,-97,107,224
-34,239,273,-102,-153,256,-531,-805,-531,-204,24,161
-117,219,336,-51,-226,278,-483,-741,-517,-258,-48,107
-146,195,341,-24,-244,268,-429,-639,-458,-258,-82,48
-117,141,258,-12,-187,200,-375,-527,-424,-253,-112,-4
-136,58,195,39,-165,126,-283,-400,-380,-253,-136,-58
-141,19,161,61,-151,90,-180,-287,-317,-219,-151,-78
-161,-19,141,90,-151,61,-112,-190,-229,-170,-126,-78
-175,-34,141,104,-158,53,-73,-126,-170,-131,-92,-58
-141,-9,131,75,-136,61,-39,-92,-131,-112,-82,-53
-146,-34,112,90,-129,39,-29,-68,-102,-97,-63,-58
-156,-68,87,112,-122,9,-14,-43,-68,-73,-43,-43
-146,-48,97,97,-122,24,-4,-19,-53,-48,-24,-24
-146,-48,97,97,-122,24,4,-9,-63,-43,-24,-34
-146,-39,107,92,-126,34,19,14,-53,-34,-19,-39
-146,-48,97,97,-122,24,34,39,-34,-29,-19,-29
-165,-82,82,124,-124,0,48,39,-29,-29,-34,-39
-146,-68,78,107,-112,4,58,48,-24,-39,-34,-48
-141,-78,63,109,-102,-7,53,43,-24,-48,-43,-48
-136,-87,48,112,-92,-19,48,43,-24,-48,-39,-48
-141,-92,48,117,-95,-21,34,43,-39,-48,-39,-48
-126,-87,39,107,-82,-24,29,43,-39,-48,-39,-48
-131,-87,43,109,-87,-21,34,48,-34,-43,-39,-48
-146,-87,58,117,-102,-14,43,53,-34,-39,-39,-48
-141,-87,53,114,-97,-17,53,68,-24,-34,-39,-48
-146,-97,48,122,-97,-24,53,78,-14,-29,-43,-53
-136,-97,39,117,-87,-29,53,73,-14,-34,-43,-63
-136,-92,43,114,-90,-24,53,68,-14,-39,-43,-58
-136,-102,34,119,-85,-34,48,58,-19,-43,-43,-58
-136,-82,53,109,-95,-14,48,53,-24,-48,-39,-58
-136,-82,53,109,-95,-14,48,63,-34,-39,-39,-53
-146,-87,58,117,-102,-14,48,63,-24,-34,-39,-53
-146,-92,53,119,-100,-19,58,73,-19,-34,-29,-53
-141,-102,39,122,-90,-31,58,78,-14,-34,-29,-53
-131,-102,29,117,-80,-36,58,78,-14,-39,-39,-48
-117,-102,14,109,-65,-43,58,78,-9,-39,-39,-48
-126,-107,19,117,-73,-43,53,78,-9,-39,-34,-48
-146,-107,39,126,-92,-34,53,68,-14,-39,-34,-48
-126,-92,34,109,-80,-29,63,78,-4,-29,-34,-48
-126,-97,29,112,-78,-34,63,78,-4,-29,-34,-48
-126,-102,24,114,-75,-39,68,78,-4,-24,-29,-53
-122,-97,24,109,-73,-36,73,82,-4,-19,-29,-53
-112,-107,4,109,-58,-51,63,78,-4,-24,-39,-63
-102,-102,0,102,-51,-51,63,78,4,-29,-39,-53
-102,-102,0,102,-51,-51,63,78,4,-34,-39,-53
-107,-107,0,107,-53,-53,58,73,0,-39,-39,-53
-122,-107,14,114,-68,-46,68,78,9,-29,-34,-53
-126,-97,29,112,-78,-34,68,87,19,-19,-24,-43
-131,-97,34,114,-82,-31,68,92,19,-14,-19,-43
-136,-82,53,109,-95,-14,68,97,24,-9,-9,-43
-136,-107,29,122,-82,-39,58,97,19,-19,-14,-58
-131,-107,24,119,-78,-41,63,97,14,-19,-19,-58
-112,-97,14,104,-63,-41,63,92,9,-19,-24,-58
-117,-112,4,114,-61,-53,63,87,4,-19,-29,-58
-126,-102,24,114,-75,-39,73,97,9,-9,-24,-48
-117,-92,24,104,-70,-34,73,97,19,0,-19,-43
-126,-92,34,109,-80,-29,73,102,24,4,-14,-43
-126,-82,43,104,-85,-19,73,102,34,4,-4,-43
-136,-92,43,114,-90,-24,73,102,29,-4,-14,-43
-136,-107,29,122,-82,-39,73,112,29,-4,-14,-43
-126,-92,34,109,-80,-29,78,112,34,0,-9,-39
-126,-102,24,114,-75,-39,78,112,19,0,-9,-39
-136,-102,34,119,-85,-34,63,107,29,0,-4,-39
-122,-82,39,102,-80,-21,63,107,34,0,0,-34
-117,-82,34,100,-75,-24,68,112,34,0,0,-34
-112,-82,29,97,-70,-26,68,117,34,0,-4,-34
-107,-82,24,95,-65,-29,68,117,29,0,-4,-43
-107,-87,19,97,-63,-34,68,126,29,4,-4,-43
-107,-87,19,97,-63,-34,73,131,39,9,4,-39
-107,-92,14,100,-61,-39,73,131,43,19,4,-39
-107,-92,14,100,-61,-39,73,126,53,29,14,-29
-97,-78,19,87,-58,-29,78,126,53,29,19,-24
-87,-68,19,78,-53,-24,78,131,53,29,19,-24
-102,-68,34,85,-68,-17,78,131,58,29,19,-24
-92,-68,24,80,-58,-21,78,131,53,24,9,-24
-92,-73,19,82,-56,-26,78,136,63,24,9,-19
-87,-87,0,87,-43,-43,78,146,63,29,14,-19
-87,-73,14,80,-51,-29,78,151,68,34,19,-19
-87,-73,14,80,-51,-29,78,151,78,34,19,-19
-82,-73,9,78,-46,-31,78,146,78,39,19,-14
-82,-68,14,75,-48,-26,78,146,82,43,29,-9
-82,-68,14,75,-48,-26,82,146,82,48,29,-9
-78,-58,19,68,-48,-19,92,151,82,48,34,-19
-78,-68,9,73,-43,-29,92,161,87,58,34,-14
-78,-78,0,78,-39,-39,92,170,97,63,43,-9
-63,-53,9,58,-36,-21,92,170,102,73,48,-9
-73,-63,9,68,-41,-26,82,170,102,73,48,0
-82,-63,19,73,-51,-21,82,170,107,78,58,4
-73,-48,24,61,-48,-12,82,180,112,82,63,14
-68,-48,19,58,-43,-14,82,180,117,87,63,14
-63,-34,29,48,-46,-2,92,190,131,92,73,14
-53,-34,19,43,-36,-7,92,195,141,97,82,24
-48,-43,4,46,-26,-19,97,200,146,102,87,29
-39,-29,9,34,-24,-9,97,209,161,122,97,34
-39,-34,4,36,-21,-14,92,200,165,126,107,39
-48,-34,14,41,-31,-9,92,200,170,131,102,43
-34,-24,9,29,-21,-7,92,204,175,136,102,48
-34,-19,14,26,-24,-2,97,214,180,141,102,53
-39,-14,24,26,-31,4,102,219,185,151,112,58
-29,-4,24,17,-26,9,102,219,195,151,117,63
-24,0,24,12,-24,12,92,214,195,161,126,63
-19,14,34,2,-26,24,92,214,204,161,126,63
-9,9,19,0,-14,14,92,214,204,165,136,63
-24,9,34,7,-29,21,92,214,204,170,141,68
-14,19,34,-2,-24,26,92,219,209,175,141,73
0,24,24,-12,-12,24,92,219,214,180,141,82
-9,24,34,-7,-21,29,97,219,214,180,141,92
0,29,29,-14,-14,29,92,219,219,185,146,87
4,29,24,-17,-9,26,87,214,219,185,151,87
4,29,24,-17,-9,26,82,214,219,195,156,97
9,29,19,-19,-4,24,82,214,224,195,165,102
9,29,19,-19,-4,24,82,209,224,195,170,107
4,29,24,-17,-9,26,78,204,224,200,180,107
4,34,29,-19,-12,31,78,204,224,200,180,107
0,43,43,-21,-21,43,68,190,219,190,170,112
4,48,43,-26,-19,46,68,190,219,195,170,117
9,48,39,-29,-14,43,68,190,219,204,175,117
9,39,29,-24,-9,34,63,180,219,195,175,117
29,63,34,-46,-2,48,63,185,224,195,190,112
29,63,34,-46,-2,48,58,180,214,195,190,112
19,63,43,-41,-12,53,58,175,214,195,190,112
19,63,43,-41,-12,53,58,170,214,204,190,117
14,63,48,-39,-17,56,53,156,200,204,185,117
14,68,53,-41,-19,61,43,141,195,190,170,117
29,68,39,-48,-4,53,43,136,190,185,180,117
19,58,39,-39,-9,48,39,131,185,180,175,117
-19,63,82,-21,-51,73,48,136,185,180,175,126
-9,78,87,-34,-48,82,48,131,190,185,180,126
-29,68,97,-19,-63,82,43,117,180,190,170,117
-34,73,107,-19,-70,90,43,107,175,180,170,117
-43,63,107,-9,-75,85,34,97,156,170,165,112
-53,63,117,-4,-85,90,34,92,146,161,156,107
-53,63,117,-4,-85,90,34,92,141,161,156,102
-58,48,107,4,-82,78,34,87,136,146,151,97
-48,53,102,-2,-75,78,29,63,117,136,136,82
-48,58,107,-4,-78,82,29,58,107,122,126,78
-68,34,102,17,-85,68,19,48,102,107,117,68
-78,29,107,24,-92,68,19,43,78,87,97,53
-87,39,126,24,-107,82,29,48,73,87,97,58
-87,24,112,31,-100,68,29,43,58,73,87,53
-92,19,112,36,-102,65,29,39,48,58,68,43
-97,0,97,48,-97,48,29,39,39,53,63,39
-92,0,92,46,-92,46,19,24,34,43,63,29
-92,14,107,39,-100,61,19,24,34,43,63,29
-107,0,107,53,-107,53,19,19,29,39,58,24
-112,-19,92,65,-102,36,24,14,19,29,53,19
-126,-9,117,68,-122,53,24,9,14,29,53,19
-126,-9,117,68,-122,53,24,9,14,19,43,9
-126,-14,112,70,-119,48,19,9,4,14,34,9
-126,-14,112,70,-119,48,14,9,-4,9,34,4
-122,-19,102,70,-112,41,24,4,-14,4,34,0
-122,-19,102,70,-112,41,24,4,-14,4,29,0
-122,-19,102,70,-112,41,24,4,-14,4,29,0
-126,-29,97,78,-112,34,24,4,-14,0,24,-9
-126,-29,97,78,-112,34,24,4,-14,-4,24,-9
-126,-29,97,78,-112,34,24,4,-19,-9,19,-9
-126,-34,92,80,-109,29,19,0,-29,-14,9,-9
-126,-34,92,80,-109,29,14,0,-29,-19,9,-14
-141,-29,112,85,-126,41,24,0,-29,-19,9,-14
-141,-29,112,85,-126,41,24,0,-39,-19,9,-14
-141,-19,122,80,-131,51,24,0,-29,-19,9,-14
-151,-29,122,90,-136,46,29,0,-29,-19,9,-14
-141,-34,107,87,-124,36,29,0,-29,-19,9,-14
-136,-24,112,80,-124,43,24,0,-29,-19,9,-14
-136,-24,112,80,-124,43,19,0,-24,-14,9,-14
-136,-24,112,80,-124,43,9,0,-24,-14,9,-14
-136,-34,102,85,-119,34,14,0,-29,-14,9,-14
-141,-34,107,87,-124,36,19,4,-29,-14,9,-14
-141,-29,112,85,-126,41,24,4,-29,-14,9,-14
-141,-19,122,80,-131,51,29,0,-29,-14,9,-14
-151,-34,117,92,-134,41,19,0,-29,-19,9,-14
-136,-24,112,80,-124,43,24,4,-24,-19,9,-14
-131,-24,107,78,-119,41,24,4,-24,-19,9,-14
-131,-24,107,78,-119,41,19,4,-24,-19,9,-14
-141,-34,107,87,-124,36,29,4,-29,-19,4,-14
-141,-39,102,90,-122,31,29,4,-29,-19,4,-14
-136,-39,97,87,-117,29,29,4,-29,-14,9,-14
-126,-29,97,78,-112,34,34,4,-29,-14,9,-14
-131,-39,92,85,-112,26,24,0,-19,-19,9,-14
-131,-39,92,85,-112,26,24,0,-19,-9,9,-19
-131,-39,92,85,-112,26,24,4,-14,-4,9,-19
-136,-43,92,90,-114,24,24,4,-14,-4,9,-19
-151,-34,117,92,-134,41,34,9,-19,-14,4,-9
-151,-34,117,92,-134,41,29,9,-19,-19,4,-9
-151,-34,117,92,-134,41,29,4,-19,-19,9,-9
-151,-34,117,92,-134,41,34,4,-19,-19,14,-4
-151,-48,102,100,-126,26,34,4,-29,-19,4,-14
-151,-48,102,100,-126,26,34,4,-29,-19,4,-14
-141,-39,102,90,-122,31,39,4,-29,-19,4,-14
-151,-53,97,102,-124,21,39,4,-29,-19,4,-19
-136,-53,82,95,-109,14,34,14,-14,-14,9,-9
-131,-53,78,92,-104,12,34,14,-14,-14,9,-9
-141,-53,87,97,-114,17,34,19,-14,-14,9,-9
-136,-43,92,90,-114,24,39,19,-14,-14,9,-9
-122,-43,78,82,-100,17,29,9,-19,-14,9,-19
-141,-48,92,95,-117,21,29,9,-24,-29,0,-29
-141,-48,92,95,-117,21,29,9,-29,-19,0,-19
-136,-48,87,92,-112,19,29,9,-34,-14,4,-19
-141,-43,97,92,-119,26,34,24,-29,-4,14,-9
-141,-43,97,92,-119,26,34,29,-24,-4,14,-4
-146,-48,97,97,-122,24,34,29,-19,-4,24,-4
-141,-48,92,95,-117,21,34,29,-14,-4,24,-4
-141,-43,97,92,-119,26,39,19,-19,-14,14,-14
-146,-43,102,95,-124,29,39,19,-19,-14,0,-19
-146,-43,102,95,-124,29,39,19,-24,-24,0,-19
-146,-39,107,92,-126,34,39,19,-24,-14,9,-19
-146,-48,97,97,-122,24,39,19,-19,-14,9,-19
-146,-39,107,92,-126,34,39,19,-19,-14,19,-19
-146,-48,97,97,-122,24,39,19,-19,-14,19,-19
-146,-48,97,97,-122,24,39,24,-14,-14,14,-14
-146,-48,97,97,-122,24,39,24,-14,-4,14,-14
-156,-53,102,104,-129,24,43,24,-19,-4,14,-19
-156,-53,102,104,-129,24,43,24,-19,-14,9,-19
-141,-53,87,97,-114,17,43,24,-24,-4,9,-19
-156,-73,82,114,-119,4,48,24,-24,-14,9,-19
-156,-63,92,109,-124,14,43,24,-24,-19,9,-19
-146,-63,82,104,-114,9,43,24,-19,-19,9,-19
-146,-63,82,104,-114,9,43,24,-19,-14,9,-19
-146,-39,107,92,-126,34,48,24,-19,-14,9,-19
-146,-39,107,92,-126,34,48,19,-24,-19,4,-19
-156,-63,92,109,-124,14,39,19,-24,-19,4,-19
-141,-53,87,97,-114,17,48,19,-24,-19,4,-19
-141,-48,92,95,-117,21,39,19,-14,-19,4,-19
-141,-48,92,95,-117,21,39,19,-14,-14,4,-19
-131,-53,78,92,-104,12,39,24,-9,-14,9,-19
-146,-53,92,100,-119,19,39,24,-9,-14,9,-19
-146,-39,107,92,-126,34,43,19,-14,-24,9,-19
-141,-39,102,90,-122,31,43,14,-19,-29,4,-19
-146,-43,102,95,-124,29,39,14,-24,-34,4,-19
-141,-48,92,95,-117,21,39,14,-29,-34,4,-19
-151,-58,92,104,-122,17,39,19,-19,-29,4,-19
-146,-58,87,102,-117,14,39,19,-24,-29,4,-24
-146,-58,87,102,-117,14,39,19,-24,-34,4,-29
-141,-58,82,100,-112,12,39,19,-24,-34,4,-29
-141,-58,82,100,-112,12,48,19,-24,-24,14,-29
-131,-43,87,87,-109,21,48,19,-24,-24,9,-29
-151,-43,107,97,-129,31,48,14,-29,-34,4,-29
-151,-43,107,97,-129,31,43,14,-34,-34,-4,-29
-161,-48,112,104,-136,31,43,29,-24,-29,-4,-19
-165,-48,117,107,-141,34,43,29,-24,-29,0,-19
-165,-58,107,112,-136,24,43,24,-24,-29,0,-19
-161,-58,102,109,-131,21,43,24,-24,-29,0,-19
-146,-58,87,102,-117,14,43,14,-24,-19,0,-19
-141,-43,97,92,-119,26,43,14,-24,-19,4,-19
-146,-43,102,95,-124,29,43,9,-24,-19,9,-19
-141,-48,92,95,-117,21,43,9,-29,-29,4,-29
-141,-48,92,95,-117,21,34,9,-39,-39,0,-29
-156,-48,107,102,-131,29,34,9,-39,-34,4,-29
-161,-48,112,104,-136,31,34,9,-43,-34,0,-29
-161,-39,122,100,-141,41,34,9,-43,-34,-4,-29
-161,-58,102,109,-131,21,48,9,-34,-34,4,-29
-156,-58,97,107,-126,19,48,9,-34,-39,-4,-34
-161,-43,117,102,-139,36,43,9,-34,-43,-9,-34
-165,-58,107,112,-136,24,39,4,-39,-43,-9,-34
-161,-58,102,109,-131,21,29,4,-48,-39,-9,-24
-161,-58,102,109,-131,21,34,4,-48,-39,-4,-24
-161,-63,97,112,-129,17,34,9,-48,-39,-4,-24
-161,-63,97,112,-129,17,34,9,-48,-39,-4,-24
-146,-63,82,104,-114,9,34,0,-58,-48,-14,-29
-136,-63,73,100,-104,4,34,-4,-58,-48,-19,-34
-131,-58,73,95,-102,7,34,-4,-58,-48,-19,-39
-131,-58,73,95,-102,7,34,-4,-63,-58,-9,-48
-136,-73,63,104,-100,-4,43,0,-58,-53,-9,-53
-136,-63,73,100,-104,4,43,4,-53,-48,-9,-39
-141,-63,78,102,-109,7,43,9,-48,-43,-9,-34
-151,-63,87,107,-119,12,34,9,-43,-39,-14,-29
-165,-63,102,114,-134,19,34,0,-48,-39,-4,-29
-165,-63,102,114,-134,19,34,0,-48,-34,-4,-34
-165,-63,102,114,-134,19,39,0,-48,-34,-4,-34
-165,-68,97,117,-131,14,43,4,-48,-39,-4,-34
-161,-82,78,122,-119,-2,34,4,-43,-48,-14,-34
-161,-63,97,112,-129,17,34,4,-48,-48,-9,-34
-156,-63,92,109,-124,14,34,4,-48,-48,-9,-29
-156,-63,92,109,-124,14,29,4,-48,-43,-14,-29
-161,-73,87,117,-124,7,34,4,-48,-43,-14,-39
-156,-73,82,114,-119,4,34,4,-53,-48,-14,-39
-151,-68,82,109,-117,7,39,4,-53,-53,-14,-39
-146,-68,78,107,-112,4,39,4,-48,-53,-9,-43
-146,-73,73,109,-109,0,39,4,-48,-53,0,-34
-146,-63,82,104,-114,9,39,0,-48,-53,-9,-34
-151,-63,87,107,-119,12,39,0,-48,-53,-9,-34
-161,-73,87,117,-124,7,39,0,-48,-53,-9,-34
-161,-73,87,117,-124,7,39,0,-53,-48,-9,-34
-161,-73,87,117,-124,7,39,0,-53,-48,-4,-34
-146,-73,73,109,-109,0,34,0,-48,-48,-4,-34
-146,-58,87,102,-117,14,34,0,-48,-43,0,-34
-156,-63,92,109,-124,14,34,0,-48,-53,0,-34
-156,-68,87,112,-122,9,34,-4,-48,-58,-4,-34
-151,-63,87,107,-119,12,34,-4,-48,-63,-14,-34
-146,-78,68,112,-107,-4,39,0,-48,-63,-19,-34
-151,-73,78,112,-114,2,39,14,-43,-43,-4,-34
-156,-63,92,109,-124,14,43,14,-39,-43,-4,-34
-161,-48,112,104,-136,31,43,14,-39,-39,-4,-34
-156,-29,126,92,-141,48,43,19,-34,-34,-4,-24
-165,-48,117,107,-141,34,43,14,-29,-43,4,-19
-170,-48,122,109,-146,36,43,14,-29,-43,4,-14
-156,-39,117,97,-136,39,43,19,-29,-39,4,-14
-141,-34,107,87,-124,36,43,19,-29,-34,4,-14
-141,-24,117,82,-129,46,58,29,-24,-24,14,-14
-141,-24,117,82,-129,46,58,29,-19,-24,14,-14
-136,-24,112,80,-124,43,58,29,-14,-24,14,-14
-131,-9,122,70,-126,56,58,29,-14,-24,14,-9
-151,-14,136,82,-143,61,78,39,-14,-19,19,-14
-161,-4,156,82,-158,75,78,48,-4,-19,29,-9
-161,-4,156,82,-158,75,82,53,4,-19,29,0
-165,-9,156,87,-161,73,78,58,9,-9,29,9
-156,0,156,78,-156,78,73,53,4,-19,19,0
-146,0,146,73,-146,73,68,48,0,-19,19,0
-136,0,136,68,-136,68,63,43,-4,-19,19,0
-126,0,126,63,-126,63,58,39,-9,-19,19,0
-126,-9,117,68,-122,53,58,34,0,-9,29,0
-141,-24,117,82,-129,46,53,34,0,-14,29,0
-131,-9,122,70,-126,56,53,34,0,-14,29,0
-126,-9,117,68,-122,53,43,34,0,-9,34,4
-126,-29,97,78,-112,34,29,19,-4,-9,24,4
-126,-19,107,73,-117,43,24,14,-4,-9,24,-4
-136,-19,117,78,-126,48,24,9,-4,-9,24,4
-136,-19,117,78,-126,48,19,9,-4,-4,24,4
-136,-4,131,70,-134,63,29,4,-9,-4,34,4
-136,-14,122,75,-129,53,14,-9,-14,-24,24,-4
-136,-14,122,75,-129,53,4,-14,-29,-34,19,-4
-122,-9,112,65,-117,51,-4,-24,-39,-39,14,-4
-122,-19,102,70,-112,41,-24,-34,-48,-48,0,-14
-122,-29,92,75,-107,31,-24,-34,-53,-53,0,-19
-131,-34,97,82,-114,31,-29,-39,-53,-58,0,-19
-141,-48,92,95,-117,21,-29,-39,-58,-58,-9,-24
-122,-24,97,73,-109,36,-34,-43,-73,-63,-9,-24
-117,-19,97,68,-107,39,-34,-48,-73,-63,-9,-19
-117,-19,97,68,-107,39,-34,-53,-73,-63,-9,-19
-102,-14,87,58,-95,36,-29,-58,-73,-68,-9,-19
-102,-34,68,68,-85,17,-19,-53,-73,-68,-4,-19
-102,-39,63,70,-82,12,-19,-53,-73,-68,-9,-29
-102,-48,53,75,-78,2,-19,-48,-78,-63,-14,-34
-112,-63,48,87,-80,-7,-19,-48,-82,-58,-14,-34
-102,-63,39,82,-70,-12,-19,-53,-87,-63,-14,-24
-102,-63,39,82,-70,-12,-19,-53,-87,-68,-19,-29
-107,-82,24,95,-65,-29,-19,-48,-87,-68,-19,-29
-107,-68,39,87,-73,-14,-19,-43,-87,-63,-19,-24
-122,-63,58,92,-90,-2,-19,-48,-87,-63,-14,-29
-122,-53,68,87,-95,7,-19,-48,-82,-58,-14,-29
-122,-48,73,85,-97,12,-4,-39,-73,-53,-9,-24
-136,-48,87,92,-112,19,0,-34,-68,-53,-9,-24
-126,-58,68,92,-97,4,4,-19,-53,-43,0,-9
-136,-58,78,97,-107,9,19,-9,-53,-43,0,-9
-151,-68,82,109,-117,7,19,-9,-53,-53,-4,-19
-151,-78,73,114,-112,-2,24,-9,-53,-53,-4,-24
-146,-78,68,112,-107,-4,24,-9,-63,-58,-19,-39
-156,-92,63,124,-109,-14,24,-14,-78,-63,-34,-48
-156,-92,63,124,-109,-14,24,-14,-82,-68,-34,-48
-156,-107,48,131,-102,-29,24,-14,-82,-73,-39,-53
-161,-107,53,134,-107,-26,24,-4,-82,-68,-34,-43
-165,-102,63,134,-114,-19,24,-4,-82,-73,-34,-43
-175,-102,73,139,-124,-14,24,-4,-82,-73,-34,-43
-195,-102,92,148,-143,-4,24,-4,-82,-78,-34,-48
-185,-102,82,143,-134,-9,34,-14,-92,-87,-43,-58
-185,-112,73,148,-129,-19,34,-19,-97,-87,-43,-63
-185,-112,73,148,-129,-19,34,-19,-97,-87,-53,-63
-185,-112,73,148,-129,-19,34,-19,-92,-82,-43,-63
-185,-112,73,148,-129,-19,34,-4,-87,-73,-34,-53
-180,-107,73,143,-126,-17,34,-4,-82,-73,-34,-53
-180,-107,73,143,-126,-17,39,-4,-78,-78,-34,-48
-180,-107,73,143,-126,-17,39,0,-73,-78,-34,-48
-175,-107,68,141,-122,-19,39,-9,-78,-82,-34,-58
-175,-107,68,141,-122,-19,39,-9,-78,-82,-34,-58
-185,-107,78,146,-131,-14,39,-9,-78,-82,-34,-58
-170,-107,63,139,-117,-21,43,-9,-78,-82,-34,-58
-170,-117,53,143,-112,-31,34,-9,-78,-82,-34,-58
-170,-117,53,143,-112,-31,29,-9,-78,-82,-34,-58
-170,-107,63,139,-117,-21,29,-4,-78,-78,-29,-58
-175,-122,53,148,-114,-34,29,-4,-73,-78,-29,-58
-180,-112,68,146,-124,-21,39,-4,-82,-78,-29,-48
-180,-112,68,146,-124,-21,43,-4,-82,-78,-29,-48
-185,-112,73,148,-129,-19,43,-4,-82,-78,-29,-48
-190,-112,78,151,-134,-17,43,-4,-82,-78,-29,-48
-175,-112,63,143,-119,-24,43,4,-73,-78,-39,-58
-175,-122,53,148,-114,-34,39,4,-78,-78,-43,-58
-165,-102,63,134,-114,-19,39,4,-78,-78,-43,-58
-180,-117,63,148,-122,-26,39,4,-78,-78,-43,-58
-180,-117,63,148,-122,-26,34,-4,-82,-87,-34,-58
-180,-117,63,148,-122,-26,39,-4,-82,-82,-29,-53
-180,-117,63,148,-122,-26,39,0,-78,-82,-29,-53
-180,-112,68,146,-124,-21,34,0,-78,-82,-29,-53
-180,-112,68,146,-124,-21,43,0,-78,-78,-34,-53
-180,-112,68,146,-124,-21,43,0,-78,-78,-34,-53
-180,-107,73,143,-126,-17,43,4,-78,-82,-34,-53
-180,-107,73,143,-126,-17,48,4,-78,-82,-34,-53
-200,-122,78,161,-139,-21,48,4,-78,-82,-34,-53
-185,-107,78,146,-131,-14,48,4,-73,-73,-34,-53
-185,-107,78,146,-131,-14,48,4,-68,-73,-34,-48
-195,-107,87,151,-141,-9,48,4,-68,-73,-34,-48
-175,-97,78,136,-126,-9,48,14,-58,-68,-19,-48
-185,-117,68,151,-126,-24,39,14,-53,-68,-24,-53
-151,-87,63,119,-107,-12,53,34,-43,-43,-14,-43
-141,-87,53,114,-97,-17,73,58,-19,-34,-9,-34
-175,-117,58,146,-117,-29,82,97,0,-29,-4,-39
-180,-107,73,143,-126,-17,117,141,29,-4,14,-24
-156,-97,58,126,-107,-19,126,180,73,29,39,-9
-117,-73,43,95,-80,-14,131,214,141,82,82,24
-68,-48,19,58,-43,-14,136,278,214,170,156,68
-58,-19,39,39,-48,9,126,278,278,244,229,131
-24,43,68,-9,-46,56,107,234,322,326,302,190
39,107,68,-73,-14,87,78,180,375,400,380,248
53,122,68,-87,-7,95,29,97,395,468,434,302
92,190,97,-141,-2,143,-43,-29,405,527,517,385
165,268,102,-217,31,185,-136,-161,409,614,614,473
224,317,92,-270,65,204,-214,-263,409,688,712,561
287,361,73,-324,107,217,-297,-380,361,707,775,619
302,390,87,-346,107,239,-405,-546,268,717,819,683
361,439,78,-400,141,258,-502,-683,204,751,868,746
483,536,53,-509,214,295,-536,-702,204,810,941,810
517,527,9,-522,253,268,-546,-678,209,858,985,839
502,483,-19,-492,261,231,-536,-678,170,839,976,854
444,453,9,-448,217,231,-517,-697,43,688,858,771
336,346,9,-341,163,178,-522,-736,-151,424,629,605
244,239,-4,-241,124,117,-522,-746,-292,214,429,448
161,195,34,-178,63,114,-527,-751,-351,92,312,356
78,180,102,-129,-12,141,-556,-795,-414,-9,214,292
34,229,195,-131,-80,212,-561,-795,-492,-126,112,229
-39,229,268,-95,-153,248,-502,-732,-497,-200,39,175
-107,185,292,-39,-200,239,-429,-639,-458,-219,4,117
-117,161,278,-21,-197,219,-366,-527,-395,-204,-24,73
-126,107,234,9,-180,170,-283,-419,-361,-214,-58,19
-161,29,190,65,-175,109,-180,-297,-297,-209,-73,-19
-170,0,170,85,-170,85,-102,-190,-219,-170,-68,-39
-175,-24,151,100,-163,63,-63,-136,-180,-141,-53,-39
-161,-29,131,95,-146,51,-39,-92,-131,-112,-34,-24
-136,-24,112,80,-124,43,-9,-58,-82,-78,-14,-19
-146,-58,87,102,-117,14,-4,-34,-78,-73,-24,-24
-156,-58,97,107,-126,19,14,-19,-73,-58,-4,-24
-156,-48,107,102,-131,29,34,0,-63,-43,4,-14
-156,-58,97,107,-126,19,48,14,-53,-34,9,-9
-146,-48,97,97,-122,24,53,29,-34,-29,19,0
-165,-82,82,124,-124,0,58,39,-19,-29,14,-9
-175,-107,68,141,-122,-19,68,58,-14,-29,4,-29
-165,-107,58,136,-112,-24,68,63,-4,-29,4,-29
-165,-107,58,136,-112,-24,68,63,-4,-29,9,-29
-175,-102,73,139,-124,-14,58,63,-19,-29,9,-29
-165,-87,78,126,-122,-4,58,63,-19,-29,9,-29
-175,-97,78,136,-126,-9,73,63,-14,-29,9,-19
-185,-97,87,141,-136,-4,82,63,-14,-29,9,-19
-175,-97,78,136,-126,-9,92,73,-4,-29,9,-19
-175,-107,68,141,-122,-19,92,78,4,-29,4,-24
-161,-102,58,131,-109,-21,82,87,4,-29,-4,-29
-156,-102,53,129,-104,-24,82,87,4,-29,-4,-29
-151,-117,34,134,-92,-41,78,82,0,-29,-4,-34
-146,-102,43,124,-95,-29,78,82,-4,-29,0,-39
-146,-97,48,122,-97,-24,87,82,4,-19,9,-29
-165,-97,68,131,-117,-14,87,82,14,-14,9,-24
-175,-97,78,136,-126,-9,97,92,19,-14,19,-19
-180,-102,78,141,-129,-12,97,97,24,-14,19,-14
-165,-102,63,134,-114,-19,87,107,19,-29,0,-29
-146,-102,43,124,-95,-29,87,107,19,-29,0,-29
-151,-107,43,129,-97,-31,82,107,14,-29,4,-29
-165,-107,58,136,-112,-24,82,97,4,-29,4,-29
-161,-92,68,126,-114,-12,92,97,14,-19,9,-9
-165,-97,68,131,-117,-14,92,97,14,-19,14,-9
-170,-102,68,136,-119,-17,97,97,14,-14,24,-14
-170,-97,73,134,-122,-12,102,102,14,-9,29,-14
-165,-102,63,134,-114,-19,92,107,14,-19,24,-34
-151,-102,48,126,-100,-26,92,107,24,-19,19,-24
-146,-107,39,126,-92,-34,92,107,24,-19,14,-24
-146,-117,29,131,-87,-43,87,102,19,-19,9,-24
-151,-107,43,129,-97,-31,97,112,19,-4,19,-14
-156,-97,58,126,-107,-19,97,117,29,0,24,-4
-161,-97,63,129,-112,-17,97,117,29,0,24,-4
-165,-82,82,124,-124,0,97,117,34,0,29,-4
-165,-107,58,136,-112,-24,97,122,34,0,19,-14
-161,-107,53,134,-107,-26,102,126,34,0,19,-19
-141,-97,43,119,-92,-26,102,126,34,0,19,-24
-146,-112,34,129,-90,-39,102,126,34,0,19,-29
-136,-107,29,122,-82,-39,92,117,34,-9,19,-19
-126,-92,34,109,-80,-29,92,117,39,0,19,-14
-136,-87,48,112,-92,-19,92,122,39,4,19,-14
-136,-73,63,104,-100,-4,92,122,43,4,24,-14
-146,-92,53,119,-100,-19,102,122,43,14,24,-14
-146,-107,39,126,-92,-34,102,131,48,14,24,-14
-136,-92,43,114,-90,-24,107,131,58,19,29,-9
-136,-102,34,119,-85,-34,107,131,48,19,29,-9
-161,-102,58,131,-109,-21,102,136,58,19,34,-9
-151,-82,68,117,-109,-7,102,136,63,19,39,-4
-151,-82,68,117,-109,-7,107,141,63,19,39,-4
-151,-82,68,117,-109,-7,107,146,63,19,34,-4
-141,-82,58,112,-100,-12,107,146,68,19,43,-4
-136,-87,48,112,-92,-19,107,156,68,24,43,-4
-131,-87,43,109,-87,-21,112,161,78,29,53,0
-126,-92,34,109,-80,-29,112,161,82,39,53,0
-146,-102,43,124,-95,-29,112,156,92,48,53,0
-136,-87,48,112,-92,-19,117,156,92,48,58,4
-126,-78,48,102,-87,-14,117,161,92,48,58,4
-141,-78,63,109,-102,-7,117,161,97,48,58,4
-122,-73,48,97,-85,-12,117,161,92,53,58,14
-122,-73,48,97,-85,-12,117,165,102,53,58,19
-117,-82,34,100,-75,-24,117,175,102,58,63,19
-117,-63,53,90,-85,-4,117,180,107,63,68,19
-126,-63,63,95,-95,0,117,180,107,53,68,9
-122,-63,58,92,-90,-2,117,175,107,58,68,14
-122,-58,63,90,-92,2,117,175,112,63,78,19
-122,-58,63,90,-92,2,122,175,112,68,78,19
-107,-48,58,78,-82,4,122,180,131,78,82,29
-107,-58,48,82,-78,-4,122,190,136,87,82,34
-107,-68,39,87,-73,-14,122,200,146,92,92,39
-92,-43,48,68,-70,2,122,200,151,102,97,39
-102,-53,48,78,-75,-2,122,200,141,92,87,29
-112,-53,58,82,-85,2,122,200,146,97,97,34
-102,-39,63,70,-82,12,122,209,151,102,102,43
-97,-39,58,68,-78,9,122,209,156,107,102,43
-87,-24,63,56,-75,19,122,200,161,112,92,53
-82,-24,58,53,-70,17,122,204,170,117,102,63
-82,-34,48,58,-65,7,126,209,175,122,107,68
-78,-19,58,48,-68,19,126,219,190,141,117,73
-87,-14,73,51,-80,29,131,229,195,146,117,68
-97,-14,82,56,-90,34,131,229,200,151,112,73
-82,-4,78,43,-80,36,131,234,204,156,112,78
-82,0,82,41,-82,41,136,244,209,161,112,82
-78,-9,68,43,-73,29,141,248,214,170,112,87
-68,-4,63,36,-65,29,141,248,224,170,117,92
-63,-4,58,34,-61,26,131,244,224,180,126,92
-58,4,63,26,-61,34,131,244,234,180,126,92
-58,9,68,24,-63,39,131,253,244,195,136,102
-73,9,82,31,-78,46,131,253,244,200,141,107
-63,19,82,21,-73,51,131,258,248,204,141,112
-48,24,73,12,-61,48,131,258,253,209,141,122
-48,34,82,7,-65,58,136,248,253,209,151,122
-39,39,78,0,-58,58,131,248,258,214,156,117
-34,39,73,-2,-53,56,126,244,258,214,161,117
-34,39,73,-2,-53,56,122,244,258,224,165,126
-19,58,78,-19,-48,68,122,239,273,234,156,131
-19,58,78,-19,-48,68,122,239,273,234,161,136
-24,58,82,-17,-53,70,117,239,273,239,170,136
-24,63,87,-19,-56,75,117,244,273,239,170,136
-19,53,73,-17,-46,63,117,239,268,234,161,141
-14,58,73,-21,-43,65,117,239,268,234,161,146
-9,58,68,-24,-39,63,117,239,268,239,165,146
-9,48,58,-19,-34,53,112,229,268,224,165,146
0,73,73,-36,-36,73,102,224,273,229,180,151
0,73,73,-36,-36,73,97,219,263,234,180,151
-9,73,82,-31,-46,78,97,214,263,239,180,151
-9,73,82,-31,-46,78,97,209,263,253,180,156
-24,63,87,-19,-56,75,102,204,258,244,170,156
-24,68,92,-21,-58,80,92,190,253,229,161,156
-9,68,78,-29,-43,73,92,185,248,224,175,156
-19,58,78,-19,-48,68,87,180,244,219,175,156
-39,68,107,-14,-73,87,78,165,234,204,165,146
-19,78,97,-29,-58,87,78,161,229,204,161,146
-29,63,92,-17,-61,78,73,146,209,204,141,136
-24,63,87,-19,-56,75,73,136,195,190,131,136
-34,53,87,-9,-61,70,63,126,185,180,136,141
-43,53,97,-4,-70,75,63,122,175,170,126,136
-43,53,97,-4,-70,75,63,122,170,170,126,131
-48,39,87,4,-68,63,63,117,165,156,122,126
-48,48,97,0,-73,73,58,102,156,161,117,122
-48,48,97,0,-73,73,58,97,146,151,107,117
-68,19,87,24,-78,53,48,87,141,141,97,107
-78,9,87,34,-82,48,48,82,117,126,78,92
-82,24,107,29,-95,65,39,68,112,107,73,87
-87,14,102,36,-95,58,39,63,97,92,68,82
-97,14,112,41,-104,63,39,58,87,78,53,73
-107,0,107,53,-107,53,39,58,78,73,53,68
-107,-9,97,58,-102,43,39,43,63,63,48,58
-102,4,107,48,-104,56,39,43,63,63,43,58
-112,-9,102,61,-107,46,39,39,58,58,34,53
-112,-29,82,70,-97,26,43,34,48,48,24,48
-117,-29,87,73,-102,29,43,29,34,48,24,48
-117,-29,87,73,-102,29,43,29,34,39,14,39
-117,-34,82,75,-100,24,39,29,24,34,4,39
-117,-34,82,75,-100,24,34,29,14,29,4,34
-126,-29,97,78,-112,34,34,24,9,24,4,29
-131,-29,102,80,-117,36,34,24,14,24,0,29
-136,-29,107,82,-122,39,34,24,19,24,0,29
-146,-39,107,92,-126,34,34,24,24,19,-4,19
-136,-48,87,92,-112,19,43,24,19,14,-4,19
-136,-48,87,92,-112,19,43,24,9,9,-9,19
-136,-53,82,95,-109,14,39,19,-4,4,-19,19
-136,-53,82,95,-109,14,34,19,-9,0,-19,14
-141,-48,92,95,-117,21,34,19,-9,0,-19,14
-141,-48,92,95,-117,21,34,19,-19,0,-19,14
-141,-39,102,90,-122,31,34,19,-9,0,-19,14
-151,-48,102,100,-126,26,39,19,-9,0,-19,14
-151,-73,78,112,-114,2,43,19,-9,-9,-29,4
-146,-63,82,104,-114,9,43,19,-9,-9,-29,4
-146,-63,82,104,-114,9,43,19,-4,-4,-29,4
-146,-63,82,104,-114,9,39,19,-4,-4,-29,4
-136,-53,82,95,-109,14,39,19,0,-4,-19,14
-141,-53,87,97,-114,17,39,24,0,-4,-19,14
-141,-48,92,95,-117,21,39,24,0,-4,-19,14
-141,-39,102,90,-122,31,39,19,0,-4,-19,14
-161,-73,87,117,-124,7,39,9,-4,-9,-24,4
-146,-63,82,104,-114,9,43,14,-4,-9,-29,4
-141,-63,78,102,-109,7,43,14,-9,-9,-34,4
-141,-63,78,102,-109,7,39,14,-14,-9,-39,4
-141,-53,87,97,-114,17,39,24,-9,-9,-39,14
-141,-58,82,100,-112,12,39,24,-9,-9,-34,14
-136,-58,78,97,-107,9,39,24,-9,-4,-24,14
-126,-48,78,87,-102,14,43,24,-9,-4,-19,14
-141,-48,92,95,-117,21,34,9,-9,-9,-19,4
-141,-48,92,95,-117,21,34,9,-9,0,-19,0
-141,-48,92,95,-117,21,34,14,-4,4,-19,0
-146,-53,92,100,-119,19,34,14,-4,4,-19,0
-151,-63,87,107,-119,12,39,24,0,-4,-24,9
-151,-63,87,107,-119,12,39,29,0,-9,-24,9
-151,-63,87,107,-119,12,43,29,0,-9,-19,9
-151,-63,87,107,-119,12,53,34,0,-9,-14,14
-151,-68,82,109,-117,7,43,24,-9,-9,-19,4
-151,-68,82,109,-117,7,43,24,-9,-9,-24,4
-141,-58,82,100,-112,12,48,24,-9,-9,-29,4
-151,-73,78,112,-114,2,48,24,-9,-9,-34,0
-141,-68,73,104,-107,2,53,24,4,4,-34,4
-141,-63,78,102,-109,7,53,24,4,4,-29,9
-156,-58,97,107,-126,19,53,29,4,4,-24,14
-156,-43,112,100,-134,34,58,29,4,4,-19,19
-131,-53,78,92,-104,12,48,29,-4,-4,-29,14
-151,-58,92,104,-122,17,48,29,-4,-19,-39,0
-151,-58,92,104,-122,17,48,29,-4,-9,-39,4
-146,-58,87,102,-117,14,48,29,-4,-4,-34,0
-156,-53,102,104,-129,24,53,34,4,-4,-34,9
-151,-53,97,102,-124,21,53,39,4,-4,-34,14
-151,-58,92,104,-122,17,53,39,4,-4,-24,14
-141,-58,82,100,-112,12,53,39,4,-4,-24,14
-151,-53,97,102,-124,21,58,29,0,-4,-14,14
-156,-53,102,104,-129,24,58,29,0,-4,-29,9
-156,-53,102,104,-129,24,58,29,-4,-14,-29,9
-156,-48,107,102,-131,29,58,29,-4,-4,-19,9
-156,-58,97,107,-126,19,58,29,0,-4,-24,9
-156,-48,107,102,-131,29,58,29,0,-4,-19,9
-156,-58,97,107,-126,19,58,29,0,-4,-24,9
-156,-58,97,107,-126,19,58,34,4,-4,-34,14
-146,-58,87,102,-117,14,48,34,4,4,-24,14
-156,-63,92,109,-124,14,53,34,0,4,-24,9
-156,-63,92,109,-124,14,53,34,0,-4,-29,9
-141,-63,78,102,-109,7,53,34,-4,4,-29,9
-146,-73,73,109,-109,0,58,34,-4,-4,-39,9
-146,-63,82,104,-114,9,53,34,-4,-9,-39,9
-136,-63,73,100,-104,4,53,34,0,-9,-39,9
-136,-63,73,100,-104,4,53,34,0,-4,-39,9
-141,-39,102,90,-122,31,68,43,9,-4,-34,9
-146,-39,107,92,-126,34,68,39,4,-9,-34,9
-161,-63,97,112,-129,17,58,39,4,-9,-29,9
-151,-53,97,102,-124,21,68,39,4,-9,-24,9
-156,-48,107,102,-131,29,63,29,-4,-9,-34,9
-151,-48,102,100,-126,26,58,29,-4,-4,-34,9
-136,-53,82,95,-109,14,53,34,0,-4,-29,9
-146,-53,92,100,-119,19,48,34,0,-4,-29,9
-141,-48,92,95,-117,21,53,29,0,4,-29,9
-141,-48,92,95,-117,21,53,24,0,0,-34,9
-151,-53,97,102,-124,21,48,24,0,-4,-34,9
-151,-58,92,104,-122,17,48,24,0,-4,-34,9
-156,-68,87,112,-122,9,58,39,-9,-9,-34,9
-156,-68,87,112,-122,9,58,39,-14,-9,-34,4
-161,-68,92,114,-126,12,58,39,-14,-14,-34,0
-161,-68,92,114,-126,12,58,39,-14,-14,-34,0
-151,-68,82,109,-117,7,58,39,-4,-4,-34,0
-141,-53,87,97,-114,17,58,39,-4,-4,-39,0
-161,-53,107,107,-134,26,58,34,-9,-14,-43,0
-161,-53,107,107,-134,26,53,34,-14,-14,-53,0
-156,-48,107,102,-131,29,53,29,-14,-19,-43,0
-156,-48,107,102,-131,29,53,29,-14,-19,-39,0
-151,-58,92,104,-122,17,53,24,-14,-19,-39,0
-141,-58,82,100,-112,12,53,24,-14,-19,-39,0
-141,-78,63,109,-102,-7,53,34,-14,-19,-34,0
-141,-63,78,102,-109,7,53,34,-14,-19,-34,0
-151,-63,87,107,-119,12,53,29,-14,-19,-34,0
-151,-68,82,109,-117,7,53,29,-19,-29,-43,-9
-131,-58,73,95,-102,7,43,19,-9,-19,-34,9
-146,-58,87,102,-117,14,43,19,-9,-14,-24,9
-151,-58,92,104,-122,17,43,19,-14,-14,-24,9
-151,-48,102,100,-126,26,43,19,-14,-14,-24,9
-161,-68,92,114,-126,12,58,29,-24,-24,-34,0
-156,-68,87,112,-122,9,58,29,-24,-29,-43,-4
-161,-53,107,107,-134,26,53,29,-24,-34,-48,-4
-165,-68,97,117,-131,14,48,24,-29,-34,-48,-4
-151,-78,73,114,-112,-2,39,14,-29,-39,-48,-4
-151,-78,73,114,-112,-2,43,14,-29,-39,-43,-4
-151,-82,68,117,-109,-7,43,19,-29,-39,-43,-4
-151,-82,68,117,-109,-7,43,19,-29,-39,-43,-4
-161,-73,87,117,-124,7,43,29,-29,-29,-43,-4
-156,-73,82,114,-119,4,43,24,-29,-29,-48,-4
-156,-68,87,112,-122,9,43,24,-29,-29,-48,-4
-161,-68,92,114,-126,12,43,24,-34,-39,-39,-9
-156,-92,63,124,-109,-14,43,19,-43,-39,-48,-19
-146,-82,63,114,-104,-9,43,14,-43,-39,-48,-9
-141,-82,58,112,-100,-12,43,9,-43,-39,-48,-9
-141,-82,58,112,-100,-12,34,0,-43,-39,-53,-9
-141,-73,68,107,-104,-2,34,9,-39,-39,-53,-9
-136,-73,63,104,-100,-4,34,9,-39,-34,-53,-14
-131,-73,58,102,-95,-7,39,9,-39,-34,-53,-14
-126,-78,48,102,-87,-14,43,14,-39,-39,-53,-14
-131,-102,29,117,-80,-36,34,14,-34,-39,-53,-14
-131,-82,48,107,-90,-17,34,14,-39,-39,-48,-14
-126,-82,43,104,-85,-19,34,14,-39,-39,-48,-9
-126,-82,43,104,-85,-19,29,14,-39,-34,-53,-9
-122,-78,43,100,-82,-17,24,4,-39,-34,-63,-9
-117,-73,43,95,-80,-14,24,4,-43,-39,-63,-9
-112,-63,48,87,-80,-7,29,4,-43,-43,-63,-9
-107,-58,48,82,-78,-4,29,4,-39,-43,-58,-14
-107,-82,24,95,-65,-29,29,-4,-48,-53,-58,-14
-107,-73,34,90,-70,-19,29,-9,-48,-53,-68,-14
-112,-73,39,92,-75,-17,29,-9,-48,-53,-68,-14
-122,-82,39,102,-80,-21,29,-9,-48,-53,-68,-14
-122,-73,48,97,-85,-12,29,0,-53,-48,-68,-14
-122,-73,48,97,-85,-12,29,0,-53,-48,-63,-14
-107,-73,34,90,-70,-19,24,0,-48,-48,-63,-14
-107,-58,48,82,-78,-4,24,0,-48,-43,-58,-14
-122,-63,58,92,-90,-2,24,-9,-58,-53,-58,-24
-117,-68,48,92,-82,-9,24,-14,-58,-58,-63,-24
-107,-63,43,85,-75,-9,24,-14,-58,-63,-73,-24
-97,-78,19,87,-58,-29,29,-9,-58,-63,-78,-24
-102,-73,29,87,-65,-21,19,4,-63,-53,-73,-14
-107,-63,43,85,-75,-9,24,4,-58,-53,-73,-14
-112,-48,63,80,-87,7,24,4,-58,-48,-73,-14
-107,-29,78,68,-92,24,24,9,-53,-43,-73,-4
-107,-43,63,75,-85,9,43,14,-43,-34,-53,-9
-112,-48,63,80,-87,7,43,14,-39,-34,-53,-4
-97,-43,53,70,-75,4,43,19,-34,-29,-53,-4
-82,-43,39,63,-61,-2,43,19,-29,-24,-53,-4
-87,-43,43,65,-65,0,58,29,-14,-14,-39,4
-92,-43,48,68,-70,2,58,29,-9,-14,-34,4
-92,-43,48,68,-70,2,58,29,-4,-14,-29,4
-92,-29,63,61,-78,17,58,29,-4,-14,-24,9
-82,-14,68,48,-75,26,78,48,-14,-19,-29,14
-102,-43,58,73,-80,7,68,29,-24,-29,-58,0
-92,-24,68,58,-80,21,63,24,-14,-29,-58,-9
-78,-19,58,48,-68,19,58,29,-19,-29,-48,0
-78,-19,58,48,-68,19,48,29,-9,-19,-43,9
-78,-19,58,48,-68,19,48,29,-9,-19,-39,9
-78,-19,58,48,-68,19,48,29,-9,-19,-34,9
-78,-19,58,48,-68,19,48,29,-9,-19,-29,9
-68,-9,58,39,-63,24,48,29,0,-14,-19,19
-82,-24,58,53,-70,17,43,24,0,-14,-19,19
-73,-9,63,41,-68,26,43,19,0,-9,-19,19
-68,-9,58,39,-63,24,34,14,0,0,-14,24
-68,-29,39,48,-53,4,29,0,-14,-4,-24,14
-68,-19,48,43,-58,14,24,-4,-14,-9,-24,4
-78,-19,58,48,-68,19,24,-9,-14,-14,-24,14
-78,-19,58,48,-68,19,19,-9,-14,-14,-24,14
-68,0,68,34,-68,34,9,-14,-19,-4,-24,24
-68,-14,53,41,-61,19,-4,-29,-24,-24,-34,14
-68,-19,48,43,-58,14,-14,-34,-39,-34,-39,14
-53,-19,34,36,-43,7,-24,-43,-48,-39,-43,14
-53,-14,39,34,-46,12,-34,-53,-48,-29,-39,14
-53,-19,34,36,-43,7,-34,-53,-53,-34,-39,9
-63,-19,43,41,-53,12,-39,-58,-53,-39,-39,9
-73,-29,43,51,-58,7,-39,-58,-58,-39,-48,4
-63,-24,39,43,-51,7,-34,-58,-73,-53,-58,-4
-58,-29,29,43,-43,0,-34,-58,-73,-53,-58,0
-58,-39,19,48,-39,-9,-34,-58,-73,-53,-58,0
-43,-43,0,43,-21,-21,-29,-58,-73,-58,-58,0
-43,-68,-24,56,-9,-46,-39,-58,-82,-73,-63,0
-43,-68,-24,56,-9,-46,-39,-63,-82,-78,-68,-9
-43,-73,-29,58,-7,-51,-39,-63,-87,-78,-73,-14
-53,-82,-29,68,-12,-56,-39,-68,-92,-78,-73,-14
-53,-63,-9,58,-21,-36,-29,-73,-87,-78,-63,-14
-53,-63,-9,58,-21,-36,-29,-73,-87,-78,-68,-19
-58,-82,-24,70,-17,-53,-29,-68,-87,-73,-68,-19
-58,-68,-9,63,-24,-39,-29,-63,-87,-63,-68,-14
-63,-68,-4,65,-29,-36,-29,-58,-78,-63,-63,-9
-63,-63,0,63,-31,-31,-29,-58,-73,-58,-63,-9
-63,-63,0,63,-31,-31,-14,-48,-63,-53,-58,-4
-78,-68,9,73,-43,-29,-9,-43,-58,-53,-58,-4
-87,-58,29,73,-58,-14,4,-29,-53,-53,-58,0
-97,-58,39,78,-68,-9,19,-19,-53,-53,-58,0
-112,-68,43,90,-78,-12,19,-19,-53,-63,-63,-9
-112,-78,34,95,-73,-21,24,-19,-53,-63,-63,-14
-107,-78,29,92,-68,-24,24,-19,-63,-58,-68,-19
-117,-92,24,104,-70,-34,24,-24,-78,-63,-82,-29
-117,-92,24,104,-70,-34,24,-24,-82,-68,-82,-29
-117,-107,9,112,-63,-48,24,-24,-82,-73,-87,-34
-117,-117,0,117,-58,-58,14,-14,-82,-68,-82,-34
-117,-112,4,114,-61,-53,14,-14,-82,-73,-82,-34
-122,-112,9,117,-65,-51,14,-14,-82,-73,-82,-34
-136,-112,24,124,-80,-43,14,-14,-82,-78,-82,-39
-117,-102,14,109,-65,-43,14,-24,-92,-82,-87,-48
-117,-112,4,114,-61,-53,14,-29,-97,-87,-92,-53
-117,-112,4,114,-61,-53,14,-29,-97,-92,-107,-53
-117,-112,4,114,-61,-53,14,-29,-92,-92,-102,-53
-117,-112,4,114,-61,-53,14,-24,-82,-82,-92,-43
-112,-107,4,109,-58,-51,14,-24,-82,-82,-92,-43
-112,-107,4,109,-58,-51,19,-24,-82,-87,-92,-39
-112,-107,4,109,-58,-51,19,-19,-82,-87,-92,-39
-117,-107,9,112,-63,-48,19,-29,-87,-92,-102,-48
-117,-107,9,112,-63,-48,19,-29,-87,-92,-102,-48
-126,-107,19,117,-73,-43,19,-29,-87,-92,-102,-48
-112,-107,4,109,-58,-51,24,-29,-87,-92,-102,-48
-117,-117,0,117,-58,-58,24,-19,-87,-82,-92,-48
-112,-117,-4,114,-53,-61,19,-19,-87,-82,-92,-48
-107,-107,0,107,-53,-53,19,-14,-87,-78,-87,-48
-107,-122,-14,114,-46,-68,19,-14,-82,-78,-87,-48
-117,-102,14,109,-65,-43,29,-14,-82,-87,-97,-48
-122,-102,19,112,-70,-41,34,-14,-82,-87,-97,-48
-131,-102,29,117,-80,-36,34,-14,-82,-87,-97,-48
-141,-102,39,122,-90,-31,34,-14,-82,-87,-97,-48
-126,-102,24,114,-75,-39,34,-4,-73,-78,-87,-39
-126,-112,14,119,-70,-48,29,-4,-78,-78,-92,-39
-117,-92,24,104,-70,-34,29,-4,-78,-78,-92,-39
-131,-107,24,119,-78,-41,29,-4,-78,-78,-92,-39
-131,-117,14,124,-73,-51,24,-9,-82,-87,-92,-48
-131,-117,14,124,-73,-51,29,-14,-82,-82,-87,-43
-131,-117,14,124,-73,-51,29,-14,-78,-82,-87,-43
-131,-112,19,122,-75,-46,24,-19,-78,-82,-87,-43
-117,-102,14,109,-65,-43,24,-9,-78,-68,-82,-34
-112,-102,9,107,-61,-46,24,-9,-78,-68,-82,-34
-107,-97,9,102,-58,-43,24,-4,-78,-73,-82,-34
-102,-97,4,100,-53,-46,29,-4,-78,-73,-82,-34
-122,-122,0,122,-61,-61,29,-4,-87,-92,-82,-43
-107,-107,0,107,-53,-53,29,-4,-82,-82,-82,-43
-107,-107,0,107,-53,-53,29,-4,-78,-82,-82,-39
-117,-107,9,112,-63,-48,29,-4,-78,-82,-82,-39
-107,-87,19,97,-63,-34,39,4,-68,-68,-68,-29
-117,-97,19,107,-68,-39,39,4,-53,-58,-63,-24
-112,-107,4,109,-58,-51,43,24,-34,-34,-53,-24
-82,-68,14,75,-48,-26,73,78,0,-24,-39,-24
-97,-97,0,97,-48,-48,92,107,19,-9,-43,-19
-102,-117,-14,109,-43,-65,107,141,48,14,-34,-4
-68,-97,-29,82,-19,-63,117,190,92,58,9,19
-39,-82,-43,61,2,-63,131,253,151,122,73,63
0,-48,-48,24,24,-48,146,307,234,200,146,117
29,-9,-39,-9,34,-24,126,287,297,283,209,180
53,4,-48,-29,51,-21,87,214,331,346,273,219
117,78,-39,-97,78,19,58,161,366,419,351,297
161,141,-19,-151,90,61,9,68,395,488,424,370
209,180,-29,-195,119,75,-82,-68,405,566,507,444
312,268,-43,-290,178,112,-175,-180,429,653,614,531
390,326,-63,-358,226,131,-253,-283,419,707,692,610
424,390,-34,-407,229,178,-356,-439,351,717,727,668
478,468,-9,-473,244,229,-463,-614,278,727,771,722
507,497,-9,-502,258,244,-541,-712,224,751,819,775
541,536,-4,-539,273,265,-527,-692,224,790,873,839
585,536,-48,-561,317,244,-507,-668,200,800,897,858
541,473,-68,-507,305,202,-527,-707,82,683,790,785
434,405,-29,-419,231,187,-517,-756,-112,434,585,634
317,307,-9,-312,163,148,-483,-766,-287,209,366,468
224,209,-14,-217,119,97,-483,-766,-380,78,234,361
170,204,34,-187,68,119,-517,-790,-419,-14,156,297
78,200,122,-139,-21,161,-536,-824,-483,-126,68,244
-24,219,244,-97,-134,231,-512,-805,-512,-204,-14,180
-78,239,317,-80,-197,278,-444,-712,-468,-229,-58,136
-97,175,273,-39,-185,224,-400,-610,-429,-229,-82,87
-117,82,200,17,-158,141,-336,-507,-395,-234,-122,34
-117,29,146,43,-131,87,-234,-380,-351,-224,-146,-9
-122,0,122,61,-122,61,-151,-268,-287,-209,-151,-39
-102,9,112,46,-107,61,-92,-190,-219,-170,-126,-29
-107,-4,102,56,-104,48,-63,-136,-151,-122,-92,-19
-131,-58,73,95,-102,7,-39,-92,-112,-92,-92,-14
-107,-82,24,95,-65,-29,0,-39,-73,-68,-63,-9
-87,-78,9,82,-48,-34,14,-14,-58,-43,-43,4
-107,-107,0,107,-53,-53,14,-9,-63,-39,-43,-4
-87,-97,-9,92,-39,-53,24,0,-63,-53,-53,-4
-78,-87,-9,82,-34,-48,29,4,-63,-63,-58,-9
-87,-78,9,82,-48,-34,43,19,-43,-48,-48,0
-87,-82,4,85,-46,-39,48,39,-19,-29,-34,0
-117,-117,0,117,-58,-58,58,48,-24,-29,-53,-9
-112,-107,4,109,-58,-51,68,53,-14,-39,-53,-19
-107,-107,0,107,-53,-53,68,53,-14,-39,-48,-19
-112,-102,9,107,-61,-46,58,53,-29,-39,-48,-19
-97,-87,9,92,-53,-39,58,53,-29,-39,-48,-19
-97,-97,0,97,-48,-48,53,53,-24,-29,-48,-19
-107,-97,9,102,-58,-43,63,53,-24,-29,-48,-19
-97,-97,0,97,-48,-48,73,63,-14,-29,-48,-19
-97,-107,-9,102,-43,-58,73,68,-4,-29,-53,-24
-97,-112,-14,104,-41,-63,73,68,-4,-39,-63,-14
-97,-112,-14,104,-41,-63,73,68,-4,-39,-63,-9
-97,-126,-29,112,-34,-78,68,63,-9,-39,-63,-9
-97,-112,-14,104,-41,-63,68,63,-14,-39,-58,-9
-78,-107,-29,92,-24,-68,78,73,-4,-19,-53,-14
-87,-107,-19,97,-34,-63,78,73,4,-14,-48,-14
-87,-107,-19,97,-34,-63,87,82,9,-14,-34,-14
-82,-112,-29,97,-26,-70,87,87,14,-14,-29,-14
-92,-122,-29,107,-31,-75,78,87,9,-29,-43,-9
-78,-122,-43,100,-17,-82,78,87,9,-29,-48,-9
-87,-126,-39,107,-24,-82,73,87,4,-29,-48,-9
-107,-126,-19,117,-43,-73,73,78,-4,-29,-53,-9
-87,-107,-19,97,-34,-63,73,87,4,-19,-43,-9
-87,-107,-19,97,-34,-63,73,87,4,-19,-43,-9
-87,-107,-19,97,-34,-63,78,87,4,-14,-39,-14
-82,-97,-14,90,-34,-56,82,92,4,-9,-39,-14
-82,-112,-29,97,-26,-70,73,97,4,-9,-39,-14
-73,-112,-39,92,-17,-75,73,97,14,-9,-39,-4
-73,-117,-43,95,-14,-80,73,97,14,-9,-39,-4
-78,-126,-48,102,-14,-87,68,92,9,-9,-39,-4
-78,-107,-29,92,-24,-68,68,92,0,-14,-48,-14
-78,-97,-19,87,-29,-58,68,97,9,-9,-43,-4
-78,-97,-19,87,-29,-58,68,97,9,-9,-43,-4
-78,-82,-4,80,-36,-43,68,97,14,-9,-39,-4
-87,-107,-19,97,-34,-63,78,102,24,-4,-29,-4
-92,-107,-14,100,-39,-61,82,107,24,0,-29,0
-82,-97,-14,90,-34,-56,82,107,24,4,-29,4
-97,-112,-14,104,-41,-63,82,107,24,9,-29,9
-92,-112,-19,102,-36,-65,73,107,14,-4,-39,4
-78,-102,-24,90,-26,-63,73,107,19,0,-39,4
-82,-102,-19,92,-31,-61,73,112,19,0,-39,0
-78,-92,-14,85,-31,-53,73,112,24,-4,-34,-4
-78,-102,-24,90,-26,-63,82,112,34,9,-24,4
-78,-117,-39,97,-19,-78,82,122,39,14,-24,4
-68,-102,-34,85,-17,-68,87,122,48,24,-19,9
-68,-112,-43,90,-12,-78,87,122,39,29,-19,9
-82,-122,-39,102,-21,-80,73,117,29,14,-19,4
-73,-102,-29,87,-21,-65,73,117,34,9,-19,4
-73,-102,-29,87,-21,-65,78,122,34,4,-24,0
-73,-102,-29,87,-21,-65,78,126,34,0,-34,-4
-68,-92,-24,80,-21,-58,78,117,48,14,-29,0
-68,-97,-29,82,-19,-63,78,126,48,24,-24,4
-68,-97,-29,82,-19,-63,82,131,58,34,-9,14
-68,-102,-34,85,-17,-68,82,131,63,48,-4,19
-78,-122,-43,100,-17,-82,73,126,58,34,-9,14
-68,-107,-39,87,-14,-73,78,126,53,29,-9,14
-58,-97,-39,78,-9,-68,78,131,48,24,-14,9
-73,-97,-24,85,-24,-61,78,131,48,19,-19,4
-53,-82,-29,68,-12,-56,78,131,63,34,-14,4
-53,-82,-29,68,-12,-56,78,136,73,34,-9,9
-48,-92,-43,70,-2,-68,78,146,73,39,0,9
-48,-73,-24,61,-12,-48,78,151,78,43,9,9
-58,-92,-34,75,-12,-63,78,151,78,43,0,19
-53,-92,-39,73,-7,-65,78,146,78,48,0,24
-53,-87,-34,70,-9,-61,78,146,82,53,9,29
-53,-87,-34,70,-9,-61,82,146,82,58,9,29
-48,-78,-29,63,-9,-53,82,141,92,58,14,19
-48,-87,-39,68,-4,-63,82,151,97,68,14,24
-48,-97,-48,73,0,-73,82,161,107,73,24,29
-34,-73,-39,53,2,-56,82,161,112,82,29,29
-34,-73,-39,53,2,-56,82,161,112,82,29,39
-43,-73,-29,58,-7,-51,82,161,117,87,39,43
-34,-58,-24,46,-4,-41,82,170,122,92,43,53
-29,-58,-29,43,0,-43,82,170,126,97,43,53
-29,-53,-24,41,-2,-39,82,170,131,92,43,43
-24,-53,-29,39,2,-41,82,175,141,97,53,53
-24,-63,-39,43,7,-51,87,180,146,102,58,58
-19,-48,-29,34,4,-39,87,190,161,122,68,63
-9,-34,-24,21,7,-29,82,180,165,136,82,78
-19,-34,-14,26,-2,-24,82,180,170,141,82,82
-4,-24,-19,14,7,-21,82,185,175,146,87,87
-4,-19,-14,12,4,-17,87,195,180,151,92,92
0,-29,-29,14,14,-29,82,190,175,156,92,97
9,-24,-34,7,21,-29,82,190,185,151,97,102
14,-24,-39,4,26,-31,73,185,185,156,107,102
19,-14,-34,-2,26,-24,73,185,195,151,107,102
19,4,-14,-12,17,-4,73,195,204,161,126,112
4,9,4,-7,0,7,73,195,204,170,131,117
14,24,9,-19,2,17,73,200,209,180,131,122
29,34,4,-31,12,19,73,200,214,190,131,131
29,19,-9,-24,19,4,78,200,204,180,122,122
39,19,-19,-29,29,0,73,200,209,185,126,117
43,14,-29,-29,36,-7,68,195,209,185,131,117
43,9,-34,-26,39,-12,63,195,209,195,136,126
53,24,-29,-39,41,-2,63,195,219,204,146,141
48,29,-19,-39,34,4,63,190,224,204,151,146
39,34,-4,-36,21,14,58,185,229,209,161,146
34,43,9,-39,12,26,58,185,234,209,161,146
43,34,-9,-39,26,12,58,180,229,209,151,141
53,39,-14,-46,34,12,58,180,229,214,151,146
63,39,-24,-51,43,7,58,180,229,224,156,146
68,29,-39,-48,53,-4,53,170,229,214,156,146
68,43,-24,-56,46,9,43,156,214,204,151,151
68,43,-24,-56,46,9,39,151,204,204,151,151
58,43,-14,-51,36,14,39,146,204,204,151,151
58,43,-14,-51,36,14,39,141,204,214,151,156
39,43,4,-41,17,24,39,141,204,224,156,165
34,48,14,-41,9,31,34,131,204,209,151,165
43,48,4,-46,19,26,39,131,204,204,170,165
29,39,9,-34,9,24,39,131,204,200,175,165
14,48,34,-31,-9,41,29,117,190,185,165,156
29,58,29,-43,0,43,29,112,190,185,161,156
14,43,29,-29,-7,36,24,97,175,185,141,146
14,43,29,-29,-7,36,24,87,165,170,131,146
4,43,39,-24,-17,41,24,82,156,161,126,141
-4,43,48,-19,-26,46,24,82,146,151,117,136
-4,43,48,-19,-26,46,24,87,141,151,117,131
-9,29,39,-9,-24,34,24,87,136,136,112,126
-9,19,29,-4,-19,24,29,63,136,141,112,131
-9,19,29,-4,-19,24,29,58,126,131,107,126
-29,-9,19,19,-24,4,19,48,122,122,102,117
-39,-19,19,29,-29,0,19,43,97,107,87,102
-34,4,39,14,-36,21,29,48,87,92,68,92
-29,-4,24,17,-26,9,29,43,68,73,58,82
-29,-4,24,17,-26,9,29,39,53,53,39,68
-29,-19,9,24,-19,-4,29,39,39,43,34,58
-48,-29,19,39,-34,-4,19,34,48,43,43,63
-53,-14,39,34,-46,12,19,34,53,53,43,68
-73,-29,43,51,-58,7,19,29,53,58,39,68
-82,-48,34,65,-58,-7,24,24,48,58,34,68
-78,-29,48,53,-63,9,14,19,39,43,24,58
-78,-29,48,53,-63,9,14,19,34,29,14,48
-78,-34,43,56,-61,4,9,19,19,19,4,48
-78,-34,43,56,-61,4,4,19,4,9,4,43
-78,-53,24,65,-51,-14,14,4,4,4,-4,29
-73,-58,14,65,-43,-21,14,4,4,4,-9,29
-68,-63,4,65,-36,-29,14,4,4,4,-9,29
-68,-78,-9,73,-29,-43,14,4,4,0,-14,19
-82,-68,14,75,-48,-26,14,4,-4,-4,-4,19
-87,-68,19,78,-53,-24,14,4,-9,-9,-9,19
-92,-73,19,82,-56,-26,9,0,-19,-14,-19,19
-97,-73,24,85,-61,-24,4,0,-19,-19,-19,14
-87,-68,19,78,-53,-24,14,0,-9,-9,-29,14
-82,-68,14,75,-48,-26,14,0,-19,-9,-29,14
-78,-58,19,68,-48,-19,14,0,-9,-9,-29,14
-82,-68,14,75,-48,-26,19,0,-9,-9,-29,14
-92,-82,9,87,-51,-36,14,0,-19,-19,-19,4
-87,-73,14,80,-51,-29,14,0,-19,-19,-19,4
-87,-73,14,80,-51,-29,14,0,-14,-14,-19,4
-87,-73,14,80,-51,-29,9,0,-14,-14,-19,4
-87,-73,14,80,-51,-29,9,0,-9,-14,-19,14
-92,-73,19,82,-56,-26,9,4,-9,-14,-19,14
-92,-68,24,80,-58,-21,9,4,-9,-14,-19,14
-92,-58,34,75,-63,-12,9,0,-9,-14,-19,14
-107,-82,24,95,-65,-29,19,9,0,-14,-9,14
-97,-73,24,85,-61,-24,24,14,4,-9,-9,14
-97,-73,24,85,-61,-24,24,14,4,-4,-9,14
-102,-73,29,87,-65,-21,19,14,4,0,-9,14
-87,-63,24,75,-56,-19,9,4,-14,-9,-29,9
-82,-68,14,75,-48,-26,9,4,-19,-19,-34,4
-73,-68,4,70,-39,-31,9,4,-24,-24,-34,0
-58,-58,0,58,-29,-29,14,4,-29,-34,-39,-4
-87,-68,19,78,-53,-24,24,9,-14,-39,-24,9
-92,-68,24,80,-58,-21,24,9,-9,-19,-19,9
-97,-68,29,82,-63,-19,24,14,0,-4,-14,14
-107,-73,34,90,-70,-19,24,14,4,4,-9,19
-107,-63,43,85,-75,-9,24,9,-9,-4,-14,19
-102,-63,39,82,-70,-12,19,9,-9,-9,-14,19
-97,-63,34,80,-65,-14,19,4,-9,-9,-9,19
-92,-63,29,78,-61,-17,24,4,-9,-9,-4,24
-82,-78,4,80,-43,-36,14,4,-19,-14,-19,19
-82,-78,4,80,-43,-36,14,4,-19,-19,-24,14
-73,-68,4,70,-39,-31,19,4,-19,-24,-29,9
-82,-82,0,82,-41,-41,19,4,-19,-29,-34,0
-92,-82,9,87,-51,-36,24,14,-4,-19,-34,9
-92,-82,9,87,-51,-36,24,14,-4,-14,-29,9
-107,-82,24,95,-65,-29,24,19,-4,-9,-24,9
-107,-73,34,90,-70,-19,29,19,-4,-4,-19,9
-92,-68,24,80,-58,-21,19,19,-4,-14,-19,9
-112,-68,43,90,-78,-12,19,19,-4,-29,-29,0
-112,-63,48,87,-80,-7,19,19,-4,-19,-29,9
-107,-58,48,82,-78,-4,19,19,-4,-14,-24,9
-107,-68,39,87,-73,-14,19,24,-4,-14,-34,4
-102,-73,29,87,-65,-21,24,29,-4,-14,-34,4
-102,-82,19,92,-61,-31,29,29,-4,-14,-24,0
-92,-87,4,90,-48,-41,34,29,-4,-14,-24,-4
-92,-73,19,82,-56,-26,29,19,0,-4,-14,0
-97,-73,24,85,-61,-24,29,19,0,-4,-29,0
-97,-73,24,85,-61,-24,29,19,-4,-14,-29,4
-97,-68,29,82,-63,-19,29,19,-4,-4,-19,9
-87,-63,24,75,-56,-19,19,9,0,-4,-19,0
-87,-48,39,68,-63,-4,19,9,0,-4,-9,0
-87,-53,34,70,-61,-9,19,9,0,-4,-9,0
-87,-48,39,68,-63,-4,19,14,4,-4,-14,4
-92,-53,39,73,-65,-7,29,14,-4,-14,-19,4
-107,-63,43,85,-75,-9,34,14,-9,-14,-24,0
-112,-68,43,90,-78,-12,34,14,-9,-24,-34,0
-102,-73,29,87,-65,-21,34,14,-14,-14,-39,0
-112,-73,39,92,-75,-17,29,24,-4,-14,-39,0
-107,-63,43,85,-75,-9,24,24,-4,-19,-39,0
-92,-63,29,78,-61,-17,24,24,0,-19,-39,0
-87,-63,24,75,-56,-19,24,24,0,-14,-39,0
-97,-53,43,75,-70,-4,39,14,9,-4,-34,0
-97,-58,39,78,-68,-9,39,9,4,-9,-34,0
-107,-87,19,97,-63,-34,29,9,4,-9,-29,0
-92,-82,9,87,-51,-36,39,9,4,-9,-24,0
-112,-68,43,90,-78,-12,29,19,0,-14,-34,-9
-112,-68,43,90,-78,-12,29,19,-4,-14,-34,-9
-102,-73,29,87,-65,-21,29,24,-4,-19,-29,-9
-117,-73,43,95,-80,-14,29,24,-9,-24,-29,-9
-107,-63,43,85,-75,-9,34,9,-9,-14,-39,-9
-102,-58,43,80,-73,-7,34,4,-9,-19,-43,-9
-107,-58,48,82,-78,-4,29,4,-9,-24,-43,-9
-102,-58,43,80,-73,-7,29,4,-9,-24,-43,-9
-102,-73,29,87,-65,-21,29,14,-4,-14,-39,-4
-97,-78,19,87,-58,-29,29,19,-4,-9,-34,-4
-97,-82,14,90,-56,-34,29,24,0,-9,-29,-4
-92,-87,4,90,-48,-41,29,29,4,-4,-24,0
-102,-92,9,97,-56,-41,29,19,-4,-9,-34,0
-92,-73,19,82,-56,-26,29,19,-4,-14,-39,0
-112,-68,43,90,-78,-12,29,14,-9,-29,-43,0
-112,-63,48,87,-80,-7,24,14,-14,-34,-53,0
-102,-63,39,82,-70,-12,24,19,-24,-29,-43,-9
-107,-68,39,87,-73,-14,24,19,-24,-29,-39,-9
-107,-82,24,95,-65,-29,24,14,-24,-29,-39,-9
-102,-87,14,95,-58,-36,24,14,-24,-29,-39,-9
-82,-92,-9,87,-36,-51,24,4,-14,-29,-43,-9
-82,-73,9,78,-46,-31,24,4,-14,-29,-43,-9
-92,-68,24,80,-58,-21,24,0,-14,-29,-43,-9
-92,-68,24,80,-58,-21,24,0,-19,-39,-53,-19
-92,-82,9,87,-51,-36,24,9,-29,-48,-63,-19
-107,-87,19,97,-63,-34,24,9,-29,-43,-53,-19
-112,-92,19,102,-65,-36,24,9,-34,-43,-53,-19
-112,-87,24,100,-68,-31,24,9,-34,-43,-53,-19
-117,-92,24,104,-70,-34,19,0,-29,-29,-39,-14
-107,-87,19,97,-63,-34,19,0,-24,-29,-43,-14
-107,-68,39,87,-73,-14,14,0,-19,-29,-43,-9
-107,-78,29,92,-68,-24,9,-4,-19,-24,-39,-4
-107,-68,39,87,-73,-14,9,4,-19,-29,-48,-14
-112,-68,43,90,-78,-12,14,4,-19,-29,-43,-14
-117,-73,43,95,-80,-14,14,9,-19,-29,-43,-14
-122,-73,48,97,-85,-12,14,9,-19,-29,-43,-14
-112,-87,24,100,-68,-31,14,9,-19,-29,-43,-14
-107,-92,14,100,-61,-39,14,4,-19,-29,-48,-14
-107,-92,14,100,-61,-39,14,4,-19,-29,-48,-14
-112,-97,14,104,-63,-41,14,4,-24,-39,-39,-19
-122,-112,9,117,-65,-51,24,14,-34,-43,-58,-29
-117,-102,14,109,-65,-43,24,14,-34,-48,-58,-19
-117,-102,14,109,-65,-43,24,14,-34,-53,-58,-19
-122,-102,19,112,-70,-41,14,9,-34,-58,-63,-19
-112,-102,9,107,-61,-46,14,9,-29,-48,-58,-9
-107,-102,4,104,-56,-48,14,9,-29,-43,-53,-14
-102,-102,0,102,-51,-51,19,9,-29,-43,-48,-14
-97,-107,-9,102,-43,-58,24,14,-29,-48,-43,-14
-112,-122,-9,117,-51,-65,14,4,-24,-39,-53,-14
-112,-102,9,107,-61,-46,14,4,-29,-39,-48,-14
-107,-102,4,104,-56,-48,14,4,-29,-39,-48,-9
-107,-102,4,104,-56,-48,9,4,-29,-34,-53,-9
-107,-97,9,102,-58,-43,14,4,-19,-34,-43,-9
-107,-92,14,100,-61,-39,14,4,-24,-39,-43,-9
-107,-82,24,95,-65,-29,19,4,-24,-43,-43,-9
-107,-78,29,92,-68,-24,19,4,-19,-43,-39,-14
-102,-97,4,100,-53,-46,9,4,-24,-53,-48,-14
-97,-92,4,95,-51,-43,9,0,-29,-53,-58,-14
-97,-97,0,97,-48,-48,9,0,-34,-53,-58,-14
-102,-112,-9,107,-46,-61,9,0,-39,-53,-58,-14
-107,-112,-4,109,-51,-58,19,0,-24,-39,-48,-4
-112,-112,0,112,-56,-56,19,0,-24,-39,-43,-4
-102,-112,-9,107,-46,-61,14,0,-19,-39,-43,-4
-107,-97,9,102,-58,-43,14,0,-19,-34,-39,-4
-117,-92,24,104,-70,-34,24,0,-29,-24,-34,-4
-117,-87,29,102,-73,-29,24,-4,-29,-29,-34,-4
-112,-73,39,92,-75,-17,24,-4,-29,-34,-39,-4
-107,-78,29,92,-68,-24,29,0,-29,-34,-39,-4
-102,-82,19,92,-61,-31,39,14,-24,-34,-34,-4
-107,-82,24,95,-65,-29,43,14,-19,-34,-34,-4
-112,-78,34,95,-73,-21,43,14,-19,-29,-34,-4
-107,-68,39,87,-73,-14,43,19,-14,-24,-34,4
-117,-78,39,97,-78,-19,53,24,0,-14,-24,0
-122,-78,43,100,-82,-17,53,24,0,-14,-24,4
-107,-68,39,87,-73,-14,53,29,0,-9,-24,4
-92,-63,29,78,-61,-17,53,29,0,-4,-24,4
-82,-53,29,68,-56,-12,48,29,-4,-14,-34,4
-82,-53,29,68,-56,-12,48,29,0,-14,-34,4
-78,-53,24,65,-51,-14,48,29,4,-14,-34,4
-73,-39,34,56,-53,-2,48,29,4,-14,-34,9
-73,4,78,34,-75,41,48,29,34,9,9,34
-97,-9,87,53,-92,39,39,29,39,29,29,48
-107,-24,82,65,-95,29,29,29,24,14,19,34
-107,-29,78,68,-92,24,29,29,19,9,9,29
-107,-34,73,70,-90,19,29,29,14,4,0,24
-107,-39,68,73,-87,14,29,29,9,0,-9,19
-102,-29,73,65,-87,21,29,19,9,-9,-9,19
-112,-43,68,78,-90,12,24,14,9,-14,-9,19
-97,-29,68,63,-82,19,24,9,9,-14,-9,19
-87,-29,58,58,-73,14,14,4,9,-9,-4,24
-87,-39,48,63,-68,4,19,9,4,0,-4,24
-87,-29,58,58,-73,14,14,4,4,0,-4,14
-97,-29,68,63,-82,19,14,0,4,0,-4,24
-97,-29,68,63,-82,19,9,0,4,4,-4,24
-78,-9,68,43,-73,29,0,-14,-9,0,-14,14
-78,-24,53,51,-65,14,-14,-29,-14,-24,-24,4
-78,-29,48,53,-63,9,-24,-34,-29,-39,-29,4
-63,-29,34,46,-48,2,-34,-43,-39,-48,-34,4
-82,-43,39,63,-61,-2,-43,-53,-39,-43,-29,0
-82,-48,34,65,-58,-7,-43,-53,-43,-43,-29,0
-92,-48,43,70,-68,-2,-48,-58,-43,-43,-29,4
-102,-58,43,80,-73,-7,-48,-58,-48,-39,-39,4
-92,-48,43,70,-68,-2,-43,-48,-43,-43,-39,-4
-87,-48,39,68,-63,-4,-43,-48,-43,-43,-39,0
-87,-53,34,70,-61,-9,-43,-48,-43,-43,-39,0
-73,-53,19,63,-46,-17,-39,-48,-43,-48,-39,0
-82,-58,24,70,-53,-17,-39,-58,-63,-63,-53,0
-82,-58,24,70,-53,-17,-39,-63,-63,-68,-58,-9
-82,-63,19,73,-51,-21,-39,-63,-68,-68,-63,-14
-92,-73,19,82,-56,-26,-39,-68,-73,-68,-63,-14
-82,-53,29,68,-56,-12,-39,-63,-68,-63,-53,-4
-82,-53,29,68,-56,-12,-39,-63,-68,-68,-58,-9
-87,-73,14,80,-51,-29,-39,-58,-68,-68,-58,-9
-87,-58,29,73,-58,-14,-39,-53,-68,-63,-58,-4
-82,-63,19,73,-51,-21,-29,-39,-48,-53,-43,-9
-82,-63,19,73,-51,-21,-29,-39,-43,-48,-43,-9
-82,-68,14,75,-48,-26,-14,-29,-34,-43,-39,-4
-97,-78,19,87,-58,-29,-9,-24,-29,-43,-39,-4
-107,-87,19,97,-63,-34,-4,-19,-24,-24,-29,0
-117,-87,29,102,-73,-29,9,-9,-24,-24,-29,0
-131,-97,34,114,-82,-31,9,-9,-24,-34,-34,-9
-131,-107,24,119,-78,-41,14,-9,-24,-34,-34,-14
-122,-102,19,112,-70,-41,4,-19,-39,-48,-53,-24
-126,-112,14,119,-70,-48,4,-24,-58,-63,-73,-39
-122,-107,14,114,-68,-46,4,-24,-68,-78,-78,-43
-117,-117,0,117,-58,-58,4,-24,-73,-92,-87,-53
-126,-107,19,117,-73,-43,4,-24,-78,-82,-87,-43
-126,-102,24,114,-75,-39,4,-24,-73,-82,-82,-43
-131,-102,29,117,-80,-36,4,-24,-68,-78,-78,-43
-146,-102,43,124,-95,-29,4,-24,-63,-78,-73,-48
-136,-92,43,114,-90,-24,14,-14,-53,-78,-63,-43
-136,-102,34,119,-85,-34,14,-19,-58,-78,-63,-43
-136,-102,34,119,-85,-34,14,-19,-58,-78,-73,-39
-136,-102,34,119,-85,-34,14,-19,-53,-73,-63,-34
-146,-102,43,124,-95,-29,4,-14,-63,-73,-68,-43
-141,-97,43,119,-92,-26,4,-14,-63,-73,-73,-43
-141,-97,43,119,-92,-26,9,-14,-63,-78,-78,-39
-141,-97,43,119,-92,-26,9,-9,-63,-78,-82,-39
-126,-102,24,114,-75,-39,9,0,-48,-73,-73,-39
-126,-107,19,117,-73,-43,9,0,-48,-73,-73,-39
-136,-112,24,124,-80,-43,9,0,-48,-73,-73,-39
-122,-117,4,119,-63,-56,14,0,-48,-73,-73,-39
-131,-107,24,119,-78,-41,14,-4,-53,-73,-82,-39
-131,-107,24,119,-78,-41,9,-9,-58,-73,-82,-39
-131,-97,34,114,-82,-31,9,-9,-63,-68,-78,-39
-136,-112,24,124,-80,-43,9,-14,-63,-68,-78,-39
-141,-102,39,122,-90,-31,19,-9,-53,-68,-68,-29
-141,-102,39,122,-90,-31,24,-4,-53,-68,-68,-29
-146,-102,43,124,-95,-29,24,0,-53,-68,-68,-29
-151,-102,48,126,-100,-26,24,4,-53,-68,-68,-29
-136,-102,34,119,-85,-34,14,-4,-53,-68,-68,-39
-136,-112,24,124,-80,-43,9,-4,-58,-68,-73,-39
-126,-92,34,109,-80,-29,9,-4,-58,-68,-73,-39
-141,-107,34,124,-87,-36,9,-4,-58,-68,-73,-39
-141,-97,43,119,-92,-26,14,-4,-53,-78,-73,-39
-141,-97,43,119,-92,-26,19,-4,-53,-73,-68,-34
-141,-97,43,119,-92,-26,19,0,-48,-73,-68,-34
-141,-92,48,117,-95,-21,14,0,-48,-73,-68,-34
-151,-102,48,126,-100,-26,14,0,-48,-58,-63,-24
-151,-102,48,126,-100,-26,14,0,-48,-58,-63,-24
-151,-97,53,124,-102,-21,14,4,-48,-63,-63,-24
-151,-97,53,124,-102,-21,19,4,-48,-63,-63,-24
-151,-102,48,126,-100,-26,29,4,-48,-73,-63,-34
-136,-87,48,112,-92,-19,29,4,-43,-63,-63,-34
-136,-87,48,112,-92,-19,29,4,-39,-63,-63,-29
-146,-87,58,117,-102,-14,29,4,-39,-63,-63,-29
-146,-78,68,112,-107,-4,29,24,-19,-48,-48,-19
-136,-87,48,112,-92,-19,39,34,-14,-39,-43,-24
-112,-87,24,100,-68,-31,53,53,4,-24,-43,-34
-92,-87,4,90,-48,-41,63,87,29,-14,-39,-24
-107,-117,-9,112,-48,-63,73,117,48,0,-24,-19
-73,-87,-14,80,-29,-51,87,151,87,43,4,4
-19,-48,-29,34,4,-39,97,219,170,117,78,48
-39,-53,-14,46,-12,-34,112,283,258,209,151,102
-39,-29,9,34,-24,-9,126,297,322,297,224,165
-9,19,29,-4,-19,24,117,268,346,341,268,209
34,43,9,-39,12,26,78,204,361,375,312,248
78,97,19,-87,29,58,39,141,414,458,400,326
102,141,39,-122,31,90,-29,29,453,556,502,429
170,229,58,-200,56,143,-112,-87,463,653,614,522
283,336,53,-309,114,195,-175,-170,488,741,722,619
322,385,63,-353,129,224,-263,-283,478,795,800,707
346,429,82,-387,131,256,-385,-458,390,814,863,775
419,507,87,-463,165,297,-473,-595,326,834,917,839
468,546,78,-507,195,312,-502,-634,322,888,985,912
502,575,73,-539,214,324,-497,-624,322,936,1039,966
478,546,68,-512,204,307,-488,-639,229,849,976,927
366,483,117,-424,124,300,-468,-668,34,624,780,785
258,434,175,-346,41,305,-429,-688,-141,385,556,624
161,336,175,-248,-7,256,-414,-688,-268,200,375,478
58,258,200,-158,-70,229,-434,-717,-370,58,244,361
4,234,229,-119,-112,231,-478,-761,-468,-82,117,268
-68,219,287,-75,-178,253,-488,-775,-531,-224,-9,175
-131,209,341,-39,-236,275,-434,-707,-522,-292,-92,102
-146,180,326,-17,-236,253,-385,-605,-468,-297,-117,58
-156,87,244,34,-200,165,-351,-512,-419,-278,-131,19
-136,53,190,41,-163,122,-268,-400,-356,-234,-131,-14
-126,39,165,43,-146,102,-185,-283,-273,-195,-117,-29
-161,0,161,80,-161,80,-131,-209,-209,-161,-112,-29
-151,0,151,75,-151,75,-82,-151,-161,-131,-87,-19
-136,-14,122,75,-129,53,-53,-97,-122,-112,-82,-19
-131,-58,73,95,-102,7,-29,-63,-92,-92,-73,-24
-126,-63,63,95,-95,0,0,-19,-53,-58,-43,-9
-146,-78,68,112,-107,-4,4,-4,-29,-43,-34,-4
-146,-68,78,107,-112,4,14,9,-24,-39,-24,4
-117,-29,87,73,-102,29,34,29,4,-14,4,14
-136,-39,97,87,-117,29,39,34,14,4,9,19
-136,-58,78,97,-107,9,34,39,14,-19,-9,9
-117,-53,63,85,-90,4,48,58,0,-39,-34,0
-117,-87,29,102,-73,-29,48,58,-4,-48,-43,-19
-117,-82,34,100,-75,-24,48,63,0,-34,-39,-14
-117,-87,29,102,-73,-29,48,63,4,-29,-29,-9
-126,-87,39,107,-82,-24,39,63,-4,-24,-24,-4
-117,-78,39,97,-78,-19,39,63,0,-19,-19,0
-117,-78,39,97,-78,-19,53,63,4,-19,-29,-9
-126,-78,48,102,-87,-14,63,63,4,-19,-29,-9
-117,-78,39,97,-78,-19,73,73,14,-19,-29,-9
-117,-87,29,102,-73,-29,73,78,24,-19,-34,-14
-126,-82,43,104,-85,-19,63,78,24,-19,-24,-14
-126,-82,43,104,-85,-19,63,78,24,-19,-24,-9
-126,-97,29,112,-78,-34,58,73,19,-19,-24,-9
-126,-82,43,104,-85,-19,58,73,14,-19,-19,-9
-117,-78,39,97,-78,-19,58,82,14,-19,-29,-14
-126,-78,48,102,-87,-14,58,82,24,-14,-29,-14
-126,-78,48,102,-87,-14,68,92,29,-14,-19,-14
-122,-82,39,102,-80,-21,68,97,34,-14,-19,-14
-131,-92,39,112,-85,-26,68,87,34,-9,-19,-9
-117,-92,24,104,-70,-34,68,87,39,-9,-19,-9
-126,-97,29,112,-78,-34,63,87,39,-9,-14,-9
-146,-97,48,122,-97,-24,63,78,34,-9,-14,-9
-126,-78,48,102,-87,-14,63,87,34,-19,-14,0
-126,-78,48,102,-87,-14,63,87,34,-19,-14,0
-126,-78,48,102,-87,-14,68,87,34,-14,-9,-4
-122,-68,53,95,-87,-7,73,92,34,-9,-9,-4
-131,-92,39,112,-85,-26,63,97,34,-9,-19,-14
-122,-92,29,107,-75,-31,63,97,43,-9,-19,-4
-122,-97,24,109,-73,-36,63,97,43,-9,-19,-4
-126,-107,19,117,-73,-43,58,92,39,-9,-19,-4
-126,-92,34,109,-80,-29,63,102,48,4,-14,4
-126,-78,48,102,-87,-14,68,107,58,9,-4,14
-126,-73,53,100,-90,-9,73,107,58,9,0,14
-126,-53,73,90,-100,9,78,107,63,9,9,14
-131,-78,53,104,-92,-12,73,107,58,9,4,0
-131,-78,53,104,-92,-12,73,107,53,9,0,0
-117,-68,48,92,-82,-9,68,102,48,9,-4,0
-126,-82,43,104,-85,-19,63,97,43,9,-9,0
-126,-82,43,104,-85,-19,73,107,43,0,-9,0
-117,-73,43,95,-80,-14,73,107,48,9,-9,4
-126,-73,53,100,-90,-9,73,112,48,14,-9,4
-126,-63,63,95,-95,0,73,112,53,14,-4,4
-117,-73,43,95,-80,-14,63,102,43,14,-4,4
-117,-87,29,102,-73,-29,63,112,48,14,-4,4
-107,-73,34,90,-70,-19,68,112,58,19,0,9
-107,-82,24,95,-65,-29,68,112,48,19,0,9
-122,-73,48,97,-85,-12,73,117,63,24,14,19
-112,-53,58,82,-85,2,73,117,73,29,19,24
-112,-53,58,82,-85,2,78,122,78,34,19,24
-112,-53,58,82,-85,2,78,126,82,39,14,24
-117,-63,53,90,-85,-4,68,117,73,34,4,19
-117,-68,48,92,-82,-9,68,126,68,34,4,14
-117,-68,48,92,-82,-9,73,131,73,34,14,14
-117,-73,43,95,-80,-14,73,131,73,39,14,9
-126,-82,43,104,-85,-19,82,126,82,48,14,19
-117,-68,48,92,-82,-9,87,126,82,48,19,24
-107,-58,48,82,-78,-4,87,131,82,48,19,24
-122,-58,63,90,-92,2,87,131,87,48,19,24
-122,-63,58,92,-90,-2,82,131,92,53,29,24
-122,-63,58,92,-90,-2,78,136,102,53,29,29
-117,-73,43,95,-80,-14,73,146,102,58,34,29
-117,-53,63,85,-90,4,68,151,107,63,39,29
-112,-48,63,80,-87,7,68,141,97,53,29,29
-102,-43,58,73,-80,7,68,136,97,58,29,34
-97,-34,63,65,-80,14,68,136,102,63,39,39
-92,-29,63,61,-78,17,73,136,102,68,39,39
-102,-24,78,63,-90,26,73,151,117,78,48,39
-107,-39,68,73,-87,14,73,161,126,87,53,43
-112,-53,58,82,-85,2,73,170,141,92,68,48
-102,-34,68,68,-85,17,73,170,151,102,78,48
-92,-24,68,58,-80,21,82,161,151,112,68,53
-102,-24,78,63,-90,26,82,161,156,117,78,63
-92,-9,82,51,-87,36,82,170,161,122,82,78
-87,-9,78,48,-82,34,82,170,165,126,82,82
-78,-4,73,41,-75,34,73,170,161,126,73,68
-73,-4,68,39,-70,31,73,175,170,126,82,73
-73,-14,58,43,-65,21,78,180,175,126,87,73
-68,0,68,34,-68,34,78,190,190,141,97,73
-58,4,63,26,-61,34,82,190,200,151,122,92
-68,4,73,31,-70,39,82,190,209,161,122,102
-53,14,68,19,-61,41,82,195,219,170,126,112
-53,19,73,17,-63,46,87,204,229,180,131,122
-53,19,73,17,-63,46,82,200,224,180,131,122
-48,24,73,12,-61,48,82,200,234,180,136,122
-48,24,73,12,-61,48,73,195,234,190,146,117
-48,34,82,7,-65,58,73,195,244,190,146,112
-39,39,78,0,-58,58,82,204,244,195,156,131
-53,39,92,7,-73,65,82,204,244,200,161,136
-43,48,92,-2,-68,70,82,209,248,204,161,141
-29,53,82,-12,-56,68,82,209,253,209,161,151
-39,53,92,-7,-65,73,78,200,253,219,165,141
-29,58,87,-14,-58,73,73,200,258,224,175,136
-24,58,82,-17,-53,70,68,195,258,224,185,136
-24,58,82,-17,-53,70,63,195,258,234,195,146
-9,78,87,-34,-48,82,63,195,253,224,190,161
-9,78,87,-34,-48,82,63,190,253,224,190,165
-14,78,92,-31,-53,85,58,185,253,229,195,165
-14,82,97,-34,-56,90,58,185,253,229,190,165
-14,73,87,-29,-51,80,58,180,258,229,200,170
-14,78,92,-31,-53,85,58,180,258,234,200,175
-14,78,92,-31,-53,85,58,180,258,244,204,175
-19,68,87,-24,-53,78,53,170,258,234,204,175
0,82,82,-41,-41,82,53,165,253,234,204,180
0,82,82,-41,-41,82,48,161,244,234,200,180
-9,82,92,-36,-51,87,48,156,244,234,195,180
-9,82,92,-36,-51,87,48,151,244,244,190,185
-34,82,117,-24,-75,100,43,156,248,244,200,175
-34,87,122,-26,-78,104,34,141,244,229,190,175
-19,87,107,-34,-63,97,34,136,239,224,204,175
-29,78,107,-24,-68,92,29,131,234,219,204,175
-48,78,126,-14,-87,102,39,117,219,204,190,175
-29,87,117,-29,-73,102,39,112,219,204,190,175
-39,73,112,-17,-75,92,34,97,204,204,175,165
-34,73,107,-19,-70,90,34,87,195,190,170,165
-48,73,122,-12,-85,97,34,87,175,180,165,151
-63,73,136,-4,-100,104,34,82,165,170,156,146
-68,73,141,-2,-104,107,34,82,161,170,156,141
-78,58,136,9,-107,97,34,78,156,156,151,136
-87,48,136,19,-112,92,34,68,151,161,146,141
-87,48,136,19,-112,92,39,68,146,151,136,136
-107,19,126,43,-117,73,34,63,146,141,126,126
-117,9,126,53,-122,68,39,63,126,126,107,112
-117,29,146,43,-131,87,29,58,112,107,107,107
-117,24,141,46,-129,82,29,53,97,92,97,102
-122,29,151,46,-136,90,29,48,87,78,78,92
-126,19,146,53,-136,82,29,48,78,73,73,87
-122,0,122,61,-122,61,29,43,73,63,63,68
-122,14,136,53,-129,75,29,43,73,63,63,68
-136,0,136,68,-136,68,29,39,68,58,58,63
-141,-19,122,80,-131,51,34,34,58,48,53,58
-136,-19,117,78,-126,48,24,29,53,48,53,68
-136,-19,117,78,-126,48,24,29,53,39,43,58
-136,-24,112,80,-124,43,19,29,43,34,34,58
-136,-24,112,80,-124,43,14,29,34,29,34,53
-156,-19,136,87,-146,58,19,34,34,34,43,58
-161,-19,141,90,-151,61,24,34,34,34,39,58
-165,-19,146,92,-156,63,29,34,34,34,39,58
-175,-29,146,102,-161,58,34,34,34,29,34,48
-165,-29,136,97,-151,53,34,29,34,24,24,39
-165,-29,136,97,-151,53,34,24,29,19,19,39
-165,-34,131,100,-148,48,29,14,19,14,9,39
-165,-34,131,100,-148,48,24,9,19,9,9,34
-161,-29,131,95,-146,51,24,19,9,0,9,24
-161,-29,131,95,-146,51,24,19,0,0,9,24
-161,-19,141,90,-151,61,24,19,9,0,9,24
-170,-29,141,100,-156,56,29,19,9,0,9,24
-161,-34,126,97,-143,46,24,9,19,9,9,34
-156,-24,131,90,-143,53,24,9,19,9,9,34
-156,-24,131,90,-143,53,24,9,24,14,9,34
-156,-24,131,90,-143,53,19,9,24,14,9,34
-165,-34,131,100,-148,48,29,19,19,14,9,34
-170,-34,136,102,-153,51,29,24,19,14,9,34
-170,-29,141,100,-156,56,29,24,19,14,9,34
-170,-19,151,95,-161,65,29,19,19,14,9,34
-190,-34,156,112,-173,61,29,9,9,0,9,34
-175,-24,151,100,-163,63,34,14,14,0,9,34
-170,-24,146,97,-158,61,34,14,14,0,9,34
-170,-24,146,97,-158,61,29,14,14,0,9,34
-180,-14,165,97,-173,75,29,24,9,9,14,34
-180,-19,161,100,-170,70,29,24,9,9,14,34
-175,-19,156,97,-165,68,29,24,9,14,19,34
-165,-9,156,87,-161,73,34,24,9,14,19,34
-170,-19,151,95,-161,65,24,19,19,0,9,43
-170,-19,151,95,-161,65,24,19,19,9,9,39
-170,-19,151,95,-161,65,24,24,24,14,9,39
-175,-24,151,100,-163,63,24,24,24,14,9,39
-180,-34,146,107,-163,56,34,19,9,14,4,29
-180,-34,146,107,-163,56,29,19,9,9,4,29
-180,-34,146,107,-163,56,29,14,9,9,9,29
-180,-34,146,107,-163,56,34,14,9,9,14,34
-170,-29,141,100,-156,56,34,24,19,9,14,34
-170,-29,141,100,-156,56,34,24,19,9,14,34
-161,-19,141,90,-151,61,39,24,19,9,14,34
-170,-34,136,102,-153,51,39,24,19,9,14,29
-180,-43,136,112,-158,46,43,24,14,4,9,19
-180,-43,136,112,-158,46,43,24,14,4,9,19
-195,-43,151,119,-173,53,43,29,14,4,9,19
-195,-34,161,114,-178,63,48,29,14,4,9,19
-170,-24,146,97,-158,61,48,29,24,9,19,24
-190,-29,161,109,-175,65,48,29,24,0,9,19
-190,-29,161,109,-175,65,48,29,24,14,9,34
-185,-29,156,107,-170,63,48,29,24,24,14,39
-195,-34,161,114,-178,63,34,24,24,19,4,29
-190,-34,156,112,-173,61,34,29,24,14,4,34
-190,-39,151,114,-170,56,34,29,24,9,14,34
-180,-39,141,109,-161,51,34,29,24,4,14,34
-180,-34,146,107,-163,56,48,39,39,9,24,43
-185,-34,151,109,-168,58,48,39,39,14,9,39
-185,-34,151,109,-168,58,48,39,34,9,9,39
-185,-29,156,107,-170,63,48,39,34,24,19,39
-195,-39,156,117,-175,58,48,39,29,14,9,29
-195,-29,165,112,-180,68,48,39,29,14,19,29
