I,II,III,aVR,aVL,aVF,V1,V2,V3,V4,V5,V6
566,97,-468,-331,517,-185,-136,107,19,29,68,87
566,97,-468,-331,517,-185,-136,107,19,29,68,87
566,97,-468,-331,517,-185,-136,107,19,29,68,87
566,97,-468,-331,517,-185,-136,107,19,29,68,87
458,53,-405,-256,431,-175,-146,-73,-29,-29,-4,24
361,9,-351,-185,356,-170,-156,-253,-68,-87,-68,-29
263,-34,-297,-114,280,-165,-165,-434,-107,-146,-131,-82
165,-78,-244,-43,204,-161,-175,-614,-146,-204,-195,-136
112,-112,-224,0,168,-168,-141,-624,-175,-239,-229,-170
58,-146,-204,43,131,-175,-117,-624,-204,-273,-263,-195
4,-180,-185,87,95,-183,-92,-624,-234,-307,-297,-219
-48,-214,-165,131,58,-190,-68,-624,-263,-341,-331,-244
-78,-209,-131,143,26,-170,-58,-580,-253,-326,-317,-234
-107,-204,-97,156,-4,-151,-48,-536,-244,-312,-302,-224
-136,-200,-63,168,-36,-131,-39,-492,-234,-297,-287,-214
-165,-195,-29,180,-68,-112,-29,-448,-224,-283,-273,-204
-165,-156,9,161,-87,-73,-14,-370,-175,-234,-219,-165
-165,-126,39,146,-102,-43,0,-292,-126,-185,-175,-126
-165,-97,68,131,-117,-14,14,-214,-78,-136,-131,-87
-165,-68,97,117,-131,14,29,-136,-29,-87,-87,-48
-161,-53,107,107,-134,26,53,-87,-9,-63,-68,-34
-156,-39,117,97,-136,39,78,-48,9,-39,-48,-19
-151,-24,126,87,-139,51,102,-9,29,-14,-29,-4
-146,-9,136,78,-141,63,126,29,48,9,-9,9
-136,0,136,68,-136,68,117,39,53,19,0,19
-136,0,136,68,-136,68,117,48,58,19,0,19
-136,0,136,68,-136,68,117,58,63,19,0,19
-136,0,136,68,-136,68,117,68,68,19,0,19
-146,-9,136,78,-141,63,131,73,78,29,4,29
-146,-9,136,78,-141,63,136,78,78,29,9,29
-146,-9,136,78,-141,63,141,82,78,29,14,29
-146,-9,136,78,-141,63,146,87,78,29,19,29
-136,-9,126,73,-131,58,136,87,68,29,9,29
-136,-9,126,73,-131,58,136,87,68,29,9,29
-136,-9,126,73,-131,58,136,87,68,29,9,29
-136,-9,126,73,-131,58,136,87,68,29,9,29
-136,0,136,68,-136,68,136,92,78,39,14,29
-136,0,136,68,-136,68,136,97,78,39,19,29
-136,0,136,68,-136,68,136,102,78,39,24,29
-136,0,136,68,-136,68,136,107,78,39,29,29
-136,0,136,68,-136,68,126,107,78,29,19,29
-136,0,136,68,-136,68,126,107,78,29,19,29
-136,0,136,68,-136,68,126,107,78,29,19,29
-136,0,136,68,-136,68,126,107,78,29,19,29
-136,0,136,68,-136,68,136,107,87,39,29,39
-136,0,136,68,-136,68,136,107,87,39,29,39
-136,0,136,68,-136,68,136,107,87,39,29,39
-136,0,136,68,-136,68,136,107,87,39,29,39
-136,-9,126,73,-131,58,136,107,78,29,19,29
-136,-9,126,73,-131,58,136,107,78,29,19,29
-136,-9,126,73,-131,58,136,107,78,29,19,29
-136,-9,126,73,-131,58,136,107,78,29,19,29
-136,-4,131,70,-134,63,136,107,87,39,19,39
-136,0,136,68,-136,68,136,107,87,39,19,39
-136,4,141,65,-139,73,136,107,87,39,19,39
-136,9,146,63,-141,78,136,107,87,39,19,39
-126,0,126,63,-126,63,126,107,82,29,19,29
-126,0,126,63,-126,63,126,107,78,29,19,29
-126,0,126,63,-126,63,126,107,73,29,19,29
-126,0,126,63,-126,63,126,107,68,29,19,29
-136,0,136,68,-136,68,126,107,73,39,29,39
-136,0,136,68,-136,68,126,107,78,39,29,39
-136,0,136,68,-136,68,126,107,82,39,29,39
-136,0,136,68,-136,68,126,107,87,39,29,39
-136,9,146,63,-141,78,126,107,82,29,19,29
-136,9,146,63,-141,78,126,107,78,29,19,29
-136,9,146,63,-141,78,126,107,73,29,19,29
-136,9,146,63,-141,78,126,107,68,29,19,29
-126,19,146,53,-136,82,126,97,68,39,19,29
-126,19,146,53,-136,82,126,97,68,39,19,29
-126,19,146,53,-136,82,126,97,68,39,19,29
-126,19,146,53,-136,82,126,97,68,39,19,29
-126,9,136,58,-131,73,117,87,63,29,9,19
-126,9,136,58,-131,73,117,87,58,29,9,19
-126,9,136,58,-131,73,117,87,53,29,9,19
-126,9,136,58,-131,73,117,87,48,29,9,19
-136,0,136,68,-136,68,126,97,58,39,19,29
-136,0,136,68,-136,68,126,97,58,39,19,29
-136,0,136,68,-136,68,126,97,58,39,19,29
-136,0,136,68,-136,68,126,97,58,39,19,29
-136,0,136,68,-136,68,122,97,58,39,19,39
-136,0,136,68,-136,68,117,97,58,39,19,39
-136,0,136,68,-136,68,112,97,58,39,19,39
-136,0,136,68,-136,68,107,97,58,39,19,39
-136,4,141,65,-139,73,117,97,68,39,29,39
-136,9,146,63,-141,78,117,97,68,39,29,39
-136,14,151,61,-143,82,117,97,68,39,29,39
-136,19,156,58,-146,87,117,97,68,39,29,39
-126,9,136,58,-131,73,117,97,68,48,29,39
-126,9,136,58,-131,73,117,97,68,48,29,39
-126,9,136,58,-131,73,117,97,68,48,29,39
-126,9,136,58,-131,73,117,97,68,48,29,39
-136,14,151,61,-143,82,107,87,68,39,29,39
-136,19,156,58,-146,87,107,87,68,39,29,39
-136,24,161,56,-148,92,107,87,68,39,29,39
-136,29,165,53,-151,97,107,87,68,39,29,39
-126,29,156,48,-141,92,97,78,58,39,29,48
-126,29,156,48,-141,92,97,78,58,39,29,48
-126,29,156,48,-141,92,97,78,58,39,29,48
-126,29,156,48,-141,92,97,78,58,39,29,48
-126,19,146,53,-136,82,97,87,68,48,39,48
-126,19,146,53,-136,82,97,87,68,48,39,48
-126,19,146,53,-136,82,97,87,68,48,39,48
-126,19,146,53,-136,82,97,87,68,48,39,48
-126,34,161,46,-143,97,92,82,68,39,39,58
-126,39,165,43,-146,102,87,78,68,39,39,58
-126,43,170,41,-148,107,82,73,68,39,39,58
-126,48,175,39,-151,112,78,68,68,39,39,58
-117,58,175,29,-146,117,68,68,68,39,39,58
-117,58,175,29,-146,117,68,68,68,39,39,58
-117,58,175,29,-146,117,68,68,68,39,39,58
-117,58,175,29,-146,117,68,68,68,39,39,58
-107,58,165,24,-136,112,58,58,68,39,39,58
-107,58,165,24,-136,112,58,58,68,39,39,58
-107,58,165,24,-136,112,58,58,68,39,39,58
-107,58,165,24,-136,112,58,58,68,39,39,58
-117,68,185,24,-151,126,58,53,68,39,39,58
-117,68,185,24,-151,126,58,48,68,39,39,58
-117,68,185,24,-151,126,58,43,68,39,39,58
-117,68,185,24,-151,126,58,39,68,39,39,58
-107,68,175,19,-141,122,53,29,58,29,39,68
-107,68,175,19,-141,122,48,29,58,29,39,68
-107,68,175,19,-141,122,43,29,58,29,39,68
-107,68,175,19,-141,122,39,29,58,29,39,68
-97,58,156,19,-126,107,29,14,48,29,29,58
-97,58,156,19,-126,107,29,9,48,29,29,58
-97,58,156,19,-126,107,29,4,48,29,29,58
-97,58,156,19,-126,107,29,0,48,29,29,58
-87,68,156,9,-122,112,24,-4,39,19,29,58
-87,68,156,9,-122,112,19,-9,39,19,29,58
-87,68,156,9,-122,112,14,-14,39,19,29,58
-87,68,156,9,-122,112,9,-19,39,19,29,58
-87,78,165,4,-126,122,4,-34,34,9,24,48
-87,78,165,4,-126,122,0,-39,29,9,19,48
-87,78,165,4,-126,122,-4,-43,24,9,14,48
-87,78,165,4,-126,122,-9,-48,19,9,9,48
-82,78,161,2,-122,119,-19,-53,9,4,9,48
-78,78,156,0,-117,117,-19,-58,9,0,9,48
-73,78,151,-2,-112,114,-19,-63,9,-4,9,48
-68,78,146,-4,-107,112,-19,-68,9,-9,9,48
-68,73,141,-2,-104,107,-24,-82,4,-19,0,48
-68,68,136,0,-102,102,-29,-87,0,-19,0,48
-68,63,131,2,-100,97,-34,-92,-4,-19,0,48
-68,58,126,4,-97,92,-39,-97,-9,-19,0,48
-58,68,126,-4,-92,97,-39,-102,-9,-9,9,58
-58,68,126,-4,-92,97,-39,-107,-9,-9,9,58
-58,68,126,-4,-92,97,-39,-112,-9,-9,9,58
-58,68,126,-4,-92,97,-39,-117,-9,-9,9,58
-53,68,122,-7,-87,95,-53,-131,-14,-24,4,48
-48,68,117,-9,-82,92,-58,-136,-19,-29,0,48
-43,68,112,-12,-78,90,-63,-141,-24,-34,-4,48
-39,68,107,-14,-73,87,-68,-146,-29,-39,-9,48
-34,78,112,-21,-73,95,-68,-136,-29,-29,0,58
-29,78,107,-24,-68,92,-68,-136,-29,-29,0,58
-24,78,102,-26,-63,90,-68,-136,-29,-29,0,58
-19,78,97,-29,-58,87,-68,-136,-29,-29,0,58
-19,78,97,-29,-58,87,-78,-126,-39,-29,0,58
-19,78,97,-29,-58,87,-78,-126,-39,-29,0,58
-19,78,97,-29,-58,87,-78,-126,-39,-29,0,58
-19,78,97,-29,-58,87,-78,-126,-39,-29,0,58
-9,73,82,-31,-46,78,-63,-107,-24,-24,14,73
-9,68,78,-29,-43,73,-58,-97,-19,-19,19,78
-9,63,73,-26,-41,68,-53,-87,-14,-14,24,82
-9,58,68,-24,-39,63,-48,-78,-9,-9,29,87
-19,58,78,-19,-48,68,-39,-63,0,-4,39,87
-19,58,78,-19,-48,68,-39,-58,0,0,39,87
-19,58,78,-19,-48,68,-39,-53,0,4,39,87
-19,58,78,-19,-48,68,-39,-48,0,9,39,87
-29,63,92,-17,-61,78,-24,-29,4,14,48,87
-29,68,97,-19,-63,82,-19,-19,9,19,48,87
-29,73,102,-21,-65,87,-14,-9,14,24,48,87
-29,78,107,-24,-68,92,-9,0,19,29,48,87
-34,78,112,-21,-73,95,0,9,19,29,48,78
-39,78,117,-19,-78,97,0,19,19,29,48,78
-43,78,122,-17,-82,100,0,29,19,29,48,78
-48,78,126,-14,-87,102,0,39,19,29,48,78
-58,68,126,-4,-92,97,14,48,24,34,58,87
-58,58,117,0,-87,87,19,58,29,39,58,87
-58,48,107,4,-82,78,24,68,34,43,58,87
-58,39,97,9,-78,68,29,78,39,48,58,87
-63,48,112,7,-87,80,29,78,48,58,48,78
-68,48,117,9,-92,82,29,78,48,58,48,78
-73,48,122,12,-97,85,29,78,48,58,48,78
-78,48,126,14,-102,87,29,78,48,58,48,78
-78,43,122,17,-100,82,34,87,39,53,39,68
-78,39,117,19,-97,78,39,87,39,48,39,68
-78,34,112,21,-95,73,43,87,39,43,39,68
-78,29,107,24,-92,68,48,87,39,39,39,68
-87,24,112,31,-100,68,58,97,48,39,39,58
-87,19,107,34,-97,63,58,97,48,39,39,58
-87,14,102,36,-95,58,58,97,48,39,39,58
-87,9,97,39,-92,53,58,97,48,39,39,58
-97,9,107,43,-102,58,58,97,48,39,39,58
-97,9,107,43,-102,58,58,97,48,39,39,58
-97,9,107,43,-102,58,58,97,48,39,39,58
-97,9,107,43,-102,58,58,97,48,39,39,58
-87,9,97,39,-92,53,58,87,39,29,29,48
-87,9,97,39,-92,53,58,87,39,29,29,48
-87,9,97,39,-92,53,58,87,39,29,29,48
-87,9,97,39,-92,53,58,87,39,29,29,48
-97,9,107,43,-102,58,58,97,48,39,29,48
-97,9,107,43,-102,58,58,97,48,39,29,48
-97,9,107,43,-102,58,58,97,48,39,29,48
-97,9,107,43,-102,58,58,97,48,39,29,48
-97,9,107,43,-102,58,68,97,39,29,29,39
-97,9,107,43,-102,58,68,97,39,29,29,39
-97,9,107,43,-102,58,68,97,39,29,29,39
-97,9,107,43,-102,58,68,97,39,29,29,39
-107,9,117,48,-112,63,58,107,48,39,39,48
-107,9,117,48,-112,63,58,107,48,39,39,48
-107,9,117,48,-112,63,58,107,48,39,39,48
-107,9,117,48,-112,63,58,107,48,39,39,48
-107,0,107,53,-107,53,58,107,48,39,39,48
-107,0,107,53,-107,53,58,107,48,39,39,48
-107,0,107,53,-107,53,58,107,48,39,39,48
-107,0,107,53,-107,53,58,107,48,39,39,48
-107,9,117,48,-112,63,68,117,48,39,39,58
-107,9,117,48,-112,63,68,117,48,39,39,58
-107,9,117,48,-112,63,68,117,48,39,39,58
-107,9,117,48,-112,63,68,117,48,39,39,58
-107,0,107,53,-107,53,68,117,48,48,48,58
-107,0,107,53,-107,53,68,117,48,48,48,58
-107,0,107,53,-107,53,68,117,48,48,48,58
-107,0,107,53,-107,53,68,117,48,48,48,58
-107,9,117,48,-112,63,68,117,48,48,48,58
-107,9,117,48,-112,63,68,117,48,48,48,58
-107,9,117,48,-112,63,68,117,48,48,48,58
-107,9,117,48,-112,63,68,117,48,48,48,58
-107,0,107,53,-107,53,78,122,58,58,58,68
-107,0,107,53,-107,53,78,126,58,58,58,68
-107,0,107,53,-107,53,78,131,58,58,58,68
-107,0,107,53,-107,53,78,136,58,58,58,68
-117,9,126,53,-122,68,78,136,58,68,58,68
-117,9,126,53,-122,68,78,136,58,68,58,68
-117,9,126,53,-122,68,78,136,58,68,58,68
-117,9,126,53,-122,68,78,136,58,68,58,68
-107,14,122,46,-114,68,68,136,58,58,58,68
-107,19,126,43,-117,73,68,136,58,58,58,68
-107,24,131,41,-119,78,68,136,58,58,58,68
-107,29,136,39,-122,82,68,136,58,58,58,68
-107,19,126,43,-117,73,68,126,48,58,58,58
-107,19,126,43,-117,73,68,126,48,58,58,58
-107,19,126,43,-117,73,68,126,48,58,58,58
-107,19,126,43,-117,73,68,126,48,58,58,58
-107,19,126,43,-117,73,78,136,58,68,68,68
-107,19,126,43,-117,73,78,136,58,68,68,68
-107,19,126,43,-117,73,78,136,58,68,68,68
-107,19,126,43,-117,73,78,136,58,68,68,68
-107,4,112,51,-109,58,68,136,58,58,68,78
-107,0,107,53,-107,53,68,136,58,58,68,78
-107,-4,102,56,-104,48,68,136,58,58,68,78
-107,-9,97,58,-102,43,68,136,58,58,68,78
-107,0,107,53,-107,53,58,126,58,58,58,68
-107,9,117,48,-112,63,58,126,58,58,58,68
-107,19,126,43,-117,73,58,126,58,58,58,68
-107,29,136,39,-122,82,58,126,58,58,58,68
-107,19,126,43,-117,73,58,117,48,48,48,58
-107,19,126,43,-117,73,58,117,48,48,48,58
-107,19,126,43,-117,73,58,117,48,48,48,58
-107,19,126,43,-117,73,58,117,48,48,48,58
-107,9,117,48,-112,63,63,117,58,58,58,68
-107,9,117,48,-112,63,68,117,58,58,58,68
-107,9,117,48,-112,63,73,117,58,58,58,68
-107,9,117,48,-112,63,78,117,58,58,58,68
-107,0,107,53,-107,53,68,117,48,48,48,58
-107,0,107,53,-107,53,68,117,48,48,48,58
-107,0,107,53,-107,53,68,117,48,48,48,58
-107,0,107,53,-107,53,68,117,48,48,48,58
-117,9,126,53,-122,68,68,107,48,39,48,58
-117,9,126,53,-122,68,68,107,48,39,48,58
-117,9,126,53,-122,68,68,107,48,39,48,58
-117,9,126,53,-122,68,68,107,48,39,48,58
-107,0,107,53,-107,53,58,97,48,48,48,68
-107,0,107,53,-107,53,58,97,48,48,48,68
-107,0,107,53,-107,53,58,97,48,48,48,68
-107,0,107,53,-107,53,58,97,48,48,48,68
-117,-9,107,63,-112,48,63,97,48,48,48,58
-117,-9,107,63,-112,48,68,97,48,48,48,58
-117,-9,107,63,-112,48,73,97,48,48,48,58
-117,-9,107,63,-112,48,78,97,48,48,48,58
-126,-19,107,73,-117,43,68,97,39,39,48,58
-126,-19,107,73,-117,43,68,97,39,39,48,58
-126,-19,107,73,-117,43,68,97,39,39,48,58
-126,-19,107,73,-117,43,68,97,39,39,48,58
-117,-14,102,65,-109,43,68,87,39,48,48,58
-117,-9,107,63,-112,48,68,87,39,48,48,58
-117,-4,112,61,-114,53,68,87,39,48,48,58
-117,0,117,58,-117,58,68,87,39,48,48,58
-117,-9,107,63,-112,48,58,87,39,39,48,58
-117,-9,107,63,-112,48,58,87,39,39,48,58
-117,-9,107,63,-112,48,58,87,39,39,48,58
-117,-9,107,63,-112,48,58,87,39,39,48,58
-117,-9,107,63,-112,48,68,87,39,39,48,58
-117,-9,107,63,-112,48,68,87,39,39,48,58
-117,-9,107,63,-112,48,68,87,39,39,48,58
-117,-9,107,63,-112,48,68,87,39,39,48,58
-117,0,117,58,-117,58,68,78,29,29,39,48
-117,0,117,58,-117,58,68,78,29,29,39,48
-117,0,117,58,-117,58,68,78,29,29,39,48
-117,0,117,58,-117,58,68,78,29,29,39,48
-126,-4,122,65,-124,58,68,87,39,39,48,58
-126,-9,117,68,-122,53,68,87,39,39,48,58
-126,-14,112,70,-119,48,68,87,39,39,48,58
-126,-19,107,73,-117,43,68,87,39,39,48,58
-117,-19,97,68,-107,39,68,78,39,39,48,58
-117,-19,97,68,-107,39,68,78,39,39,48,58
-117,-19,97,68,-107,39,68,78,39,39,48,58
-117,-19,97,68,-107,39,68,78,39,39,48,58
-126,-19,107,73,-117,43,68,78,39,39,48,58
-126,-19,107,73,-117,43,68,78,39,39,48,58
-126,-19,107,73,-117,43,68,78,39,39,48,58
-126,-19,107,73,-117,43,68,78,39,39,48,58
-136,-9,126,73,-131,58,68,68,39,39,48,58
-136,-9,126,73,-131,58,68,68,39,39,48,58
-136,-9,126,73,-131,58,68,68,39,39,48,58
-136,-9,126,73,-131,58,68,68,39,39,48,58
-131,-9,122,70,-126,56,58,78,39,39,48,58
-126,-9,117,68,-122,53,58,78,39,39,48,58
-122,-9,112,65,-117,51,58,78,39,39,48,58
-117,-9,107,63,-112,48,58,78,39,39,48,58
-126,-19,107,73,-117,43,68,78,39,48,48,68
-126,-19,107,73,-117,43,68,78,39,48,48,68
-126,-19,107,73,-117,43,68,78,39,48,48,68
-126,-19,107,73,-117,43,68,78,39,48,48,68
-126,-19,107,73,-117,43,68,78,39,39,39,58
-126,-19,107,73,-117,43,68,78,39,39,39,58
-126,-19,107,73,-117,43,68,78,39,39,39,58
-126,-19,107,73,-117,43,68,78,39,39,39,58
-136,-19,117,78,-126,48,78,78,39,48,48,58
-136,-19,117,78,-126,48,78,78,39,48,48,58
-136,-19,117,78,-126,48,78,78,39,48,48,58
-136,-19,117,78,-126,48,78,78,39,48,48,58
-126,-9,117,68,-122,53,73,73,29,39,39,58
-126,-9,117,68,-122,53,68,68,29,39,39,58
-126,-9,117,68,-122,53,63,63,29,39,39,58
-126,-9,117,68,-122,53,58,58,29,39,39,58
-136,-14,122,75,-129,53,68,68,34,48,43,68
-136,-19,117,78,-126,48,68,68,39,48,48,68
-136,-24,112,80,-124,43,68,68,43,48,53,68
-136,-29,107,82,-122,39,68,68,48,48,58,68
-136,-39,97,87,-117,29,68,68,43,39,48,58
-136,-39,97,87,-117,29,68,68,39,39,48,58
-136,-39,97,87,-117,29,68,68,34,39,48,58
-136,-39,97,87,-117,29,68,68,29,39,48,58
-126,-29,97,78,-112,34,68,68,39,48,58,68
-126,-29,97,78,-112,34,68,68,39,48,58,68
-126,-29,97,78,-112,34,68,68,39,48,58,68
-126,-29,97,78,-112,34,68,68,39,48,58,68
-136,-39,97,87,-117,29,68,68,39,39,48,68
-136,-39,97,87,-117,29,68,68,39,39,48,68
-136,-39,97,87,-117,29,68,68,39,39,48,68
-136,-39,97,87,-117,29,68,68,39,39,48,68
-126,-34,92,80,-109,29,68,68,39,39,48,58
-126,-29,97,78,-112,34,68,68,39,39,48,58
-126,-24,102,75,-114,39,68,68,39,39,48,58
-126,-19,107,73,-117,43,68,68,39,39,48,58
-136,-24,112,80,-124,43,68,68,39,39,48,68
-136,-29,107,82,-122,39,68,68,39,39,48,68
-136,-34,102,85,-119,34,68,68,39,39,48,68
-136,-39,97,87,-117,29,68,68,39,39,48,68
-146,-34,112,90,-129,39,68,68,48,48,48,68
-146,-29,117,87,-131,43,68,68,48,48,48,68
-146,-24,122,85,-134,48,68,68,48,48,48,68
-146,-19,126,82,-136,53,68,68,48,48,48,68
-136,-24,112,80,-124,43,68,68,39,39,48,68
-136,-29,107,82,-122,39,68,68,39,39,48,68
-136,-34,102,85,-119,34,68,68,39,39,48,68
-136,-39,97,87,-117,29,68,68,39,39,48,68
-136,-34,102,85,-119,34,68,58,48,48,48,68
-136,-29,107,82,-122,39,68,58,48,48,48,68
-136,-24,112,80,-124,43,68,58,48,48,48,68
-136,-19,117,78,-126,48,68,58,48,48,48,68
-136,-29,107,82,-122,39,68,58,39,39,48,68
-136,-29,107,82,-122,39,68,58,39,39,48,68
-136,-29,107,82,-122,39,68,58,39,39,48,68
-136,-29,107,82,-122,39,68,58,39,39,48,68
-136,-39,97,87,-117,29,68,58,39,48,48,68
-136,-39,97,87,-117,29,68,58,39,48,48,68
-136,-39,97,87,-117,29,68,58,39,48,48,68
-136,-39,97,87,-117,29,68,58,39,48,48,68
-136,-39,97,87,-117,29,68,68,39,48,58,68
-136,-39,97,87,-117,29,68,68,39,48,58,68
-136,-39,97,87,-117,29,68,68,39,48,58,68
-136,-39,97,87,-117,29,68,68,39,48,58,68
-136,-39,97,87,-117,29,68,58,48,58,58,68
-136,-39,97,87,-117,29,68,58,48,58,58,68
-136,-39,97,87,-117,29,68,58,48,58,58,68
-136,-39,97,87,-117,29,68,58,48,58,58,68
-126,-29,97,78,-112,34,58,68,39,48,58,68
-126,-29,97,78,-112,34,58,68,39,48,58,68
-126,-29,97,78,-112,34,58,68,39,48,58,68
-126,-29,97,78,-112,34,58,68,39,48,58,68
-136,-29,107,82,-122,39,68,58,48,48,58,68
-136,-29,107,82,-122,39,68,58,48,48,58,68
-136,-29,107,82,-122,39,68,58,48,48,58,68
-136,-29,107,82,-122,39,68,58,48,48,58,68
-136,-19,117,78,-126,48,68,68,39,48,58,78
-136,-19,117,78,-126,48,68,68,39,48,58,78
-136,-19,117,78,-126,48,68,68,39,48,58,78
-136,-19,117,78,-126,48,68,78,43,53,63,82
-126,-19,107,73,-117,43,78,78,48,63,73,92
-126,-19,107,73,-117,43,78,68,53,63,73,87
-126,-19,107,73,-117,43,78,68,58,63,73,87
-126,-19,107,73,-117,43,73,68,63,63,73,87
-136,-19,117,78,-126,48,73,68,53,63,68,78
-136,-9,126,73,-131,58,73,68,53,63,68,78
-136,-9,126,73,-131,58,82,73,53,63,73,78
-136,-9,126,73,-131,58,87,87,58,73,73,82
-126,-4,122,65,-124,58,97,87,73,73,68,82
-126,0,126,63,-126,63,97,82,73,73,68,82
-126,9,136,58,-131,73,97,82,78,73,78,87
-126,14,141,56,-134,78,97,87,82,78,78,87
-126,24,151,51,-139,87,87,78,78,68,78,78
-122,43,165,39,-143,104,82,73,73,73,78,87
-112,48,161,31,-136,104,73,73,73,73,82,87
-107,53,161,26,-134,107,68,73,73,78,82,97
-102,53,156,24,-129,104,58,68,73,82,92,92
-97,63,161,17,-129,112,48,63,73,82,97,97
-97,78,175,9,-136,126,43,63,82,92,102,97
-92,92,185,0,-139,139,39,63,82,92,102,102
-87,97,185,-4,-136,141,34,73,97,107,102,112
-87,112,200,-12,-143,156,34,73,102,112,112,122
-92,117,209,-12,-151,163,29,63,102,112,117,131
-97,117,214,-9,-156,165,24,58,102,112,117,136
-97,126,224,-14,-161,175,14,53,92,102,107,126
-92,122,214,-14,-153,168,9,48,87,97,102,122
-92,107,200,-7,-146,153,4,43,82,92,102,117
-82,107,190,-12,-136,148,4,29,78,92,97,117
-92,102,195,-4,-143,148,-4,34,73,87,107,107
-92,97,190,-2,-141,143,-9,34,68,87,107,107
-82,97,180,-7,-131,139,-9,29,68,87,102,102
-78,97,175,-9,-126,136,-19,24,63,78,92,102
-68,87,156,-9,-112,122,-19,24,63,78,92,102
-68,82,151,-7,-109,117,-19,29,58,82,102,102
-68,82,151,-7,-109,117,-14,29,58,82,102,102
-68,82,151,-7,-109,117,-9,29,58,78,97,102
-63,73,136,-4,-100,104,0,39,58,78,92,97
-78,48,126,14,-102,87,4,43,53,73,87,87
-87,48,136,19,-112,92,14,43,53,73,82,82
-97,34,131,31,-114,82,19,43,43,63,78,78
-122,9,131,56,-126,70,24,34,39,48,73,73
-131,4,136,63,-134,70,29,34,39,43,73,73
-136,0,136,68,-136,68,34,29,34,34,63,63
-141,0,141,70,-141,70,34,29,29,34,58,58
-131,-4,126,68,-129,61,39,29,24,39,58,48
-131,-9,122,70,-126,56,39,29,19,34,53,43
-131,-19,112,75,-122,46,43,29,19,29,48,34
-136,-29,107,82,-122,39,43,29,14,24,43,34
-146,-39,107,92,-126,34,43,24,14,24,34,39
-146,-39,107,92,-126,34,43,24,14,19,34,39
-146,-43,102,95,-124,29,43,19,14,19,34,34
-146,-48,97,97,-122,24,43,19,14,19,34,34
-146,-48,97,97,-122,24,53,29,19,29,43,34
-146,-48,97,97,-122,24,53,29,19,29,39,34
-151,-48,102,100,-126,26,53,29,19,29,39,34
-151,-48,102,100,-126,26,53,29,19,29,43,34
-151,-58,92,104,-122,17,53,29,19,14,34,29
-151,-58,92,104,-122,17,58,29,19,14,34,29
-151,-58,92,104,-122,17,58,34,19,19,34,29
-156,-63,92,109,-124,14,58,34,19,19,34,29
-156,-58,97,107,-126,19,58,34,19,19,34,24
-161,-53,107,107,-134,26,58,34,19,19,34,24
-161,-48,112,104,-136,31,58,39,19,19,34,24
-156,-43,112,100,-134,34,58,39,19,19,34,24
-146,-48,97,97,-122,24,48,29,9,19,24,24
-146,-48,97,97,-122,24,53,29,9,19,24,24
-146,-43,102,95,-124,29,53,29,9,19,24,24
-146,-43,102,95,-124,29,48,24,9,19,19,19
-151,-48,102,100,-126,26,58,29,19,19,24,29
-156,-48,107,102,-131,29,63,39,19,24,29,34
-161,-48,112,104,-136,31,63,43,19,24,34,34
-165,-48,117,107,-141,34,68,48,24,24,39,39
-165,-39,126,102,-146,43,68,34,14,24,34,29
-151,-48,102,100,-126,26,58,34,19,24,34,29
-146,-48,97,97,-122,24,82,53,29,29,34,39
-165,-53,112,109,-139,29,92,87,29,39,39,34
-185,-14,170,100,-178,78,122,122,63,58,58,48
-185,29,214,78,-200,122,146,175,97,92,87,73
-175,29,204,73,-190,117,156,219,122,126,122,102
-161,48,209,56,-185,129,161,268,156,165,165,141
-126,92,219,17,-173,156,165,336,190,219,214,185
-63,117,180,-26,-122,148,190,473,219,263,273,234
0,131,131,-65,-65,131,219,649,253,312,322,273
92,146,53,-119,19,100,204,761,258,341,375,317
209,185,-24,-197,117,80,156,834,273,395,434,380
366,244,-122,-305,244,61,136,936,312,463,536,458
512,307,-204,-409,358,51,78,1024,331,517,619,531
634,356,-278,-495,456,39,29,1063,341,551,658,580
722,341,-380,-531,551,-19,-4,1049,307,517,619,551
761,273,-488,-517,624,-107,-43,932,204,395,483,444
741,224,-517,-483,629,-146,-73,751,117,273,346,317
741,165,-575,-453,658,-204,-146,497,43,156,229,214
707,112,-595,-409,651,-241,-239,156,-43,39,107,117
556,117,-439,-336,497,-161,-263,-151,-53,0,53,68
366,112,-253,-239,309,-70,-239,-370,-39,-9,29,53
248,43,-204,-146,226,-80,-244,-561,-87,-82,-34,9
209,-29,-239,-90,224,-134,-278,-717,-180,-175,-131,-68
185,-122,-307,-31,246,-214,-297,-829,-292,-292,-244,-170
126,-214,-341,43,234,-278,-273,-868,-366,-385,-341,-253
53,-253,-307,100,180,-280,-209,-805,-375,-414,-361,-268
-24,-248,-224,136,100,-236,-156,-727,-366,-385,-341,-258
-68,-268,-200,168,65,-234,-136,-673,-351,-375,-322,-248
-87,-273,-185,180,48,-229,-146,-653,-341,-361,-307,-244
-117,-273,-156,195,19,-214,-141,-600,-331,-346,-297,-244
-151,-253,-102,202,-24,-178,-126,-507,-292,-312,-263,-209
-175,-214,-39,195,-68,-126,-102,-414,-234,-253,-214,-156
-195,-161,34,178,-114,-63,-73,-317,-180,-190,-161,-122
-185,-112,73,148,-129,-19,-48,-214,-117,-122,-97,-78
-175,-87,87,131,-131,0,-19,-131,-82,-73,-58,-43
-180,-58,122,119,-151,31,24,-68,-43,-39,-29,-19
-180,-39,141,109,-161,51,73,-14,-9,-9,0,4
-170,-58,112,114,-141,26,97,9,4,9,14,19
-170,-58,112,114,-141,26,102,24,14,9,19,24
-165,-34,131,100,-148,48,117,48,29,9,19,24
-156,-34,122,95,-139,43,107,58,24,14,19,24
-156,-29,126,92,-141,48,92,63,29,19,29,24
-156,-29,126,92,-141,48,92,68,29,29,29,24
-156,-29,126,92,-141,48,92,68,29,29,29,24
-151,-29,122,90,-136,46,92,68,29,29,29,24
-161,-39,122,100,-141,41,107,82,43,39,39,39
-161,-39,122,100,-141,41,112,87,43,39,43,43
-161,-39,122,100,-141,41,122,97,48,39,43,43
-161,-29,131,95,-146,51,126,97,53,43,43,43
-156,-24,131,90,-143,53,107,92,48,43,39,43
-156,-14,141,85,-148,63,102,97,48,43,48,43
-151,-14,136,82,-143,61,97,97,43,39,48,39
-151,-19,131,85,-141,56,92,97,39,34,48,34
-141,-14,126,78,-134,56,97,107,48,43,48,43
-141,-19,122,80,-131,51,107,107,48,39,43,39
-141,-19,122,80,-131,51,112,112,48,39,43,39
-141,-14,126,78,-134,56,117,117,53,43,48,39
-151,-19,131,85,-141,56,117,107,43,43,53,43
-151,-24,126,87,-139,51,117,107,48,48,53,43
-151,-9,141,80,-146,65,112,107,48,48,53,43
-151,-29,122,90,-136,46,112,107,43,48,53,43
-141,-19,122,80,-131,51,117,107,53,48,53,43
-141,-19,122,80,-131,51,117,107,48,48,53,39
-141,-19,122,80,-131,51,117,107,48,48,48,39
-141,-19,122,80,-131,51,117,107,48,48,48,39
-141,-19,122,80,-131,51,107,97,39,43,48,29
-141,-19,122,80,-131,51,107,102,43,43,48,29
-141,-9,131,75,-136,61,107,102,43,43,53,39
-141,-9,131,75,-136,61,107,102,43,43,53,39
-146,-14,131,80,-139,58,117,112,53,48,53,48
-146,-14,131,80,-139,58,122,112,53,48,53,48
-146,-19,126,82,-136,53,122,112,53,48,53,48
-141,-19,122,80,-131,51,122,112,53,48,53,48
-141,-19,122,80,-131,51,112,112,53,48,53,48
-141,-14,126,78,-134,56,112,112,53,48,53,48
-146,-14,131,80,-139,58,112,112,53,48,53,48
-146,-14,131,80,-139,58,112,112,53,48,53,43
-146,-14,131,80,-139,58,122,112,63,58,53,53
-141,-14,126,78,-134,56,122,112,63,58,53,53
-141,-14,126,78,-134,56,122,112,63,58,53,53
-141,-14,126,78,-134,56,122,117,63,63,58,53
-141,-4,136,73,-139,65,117,107,48,48,48,48
-141,0,141,70,-141,70,112,102,43,43,43,43
-141,9,151,65,-146,80,107,102,39,39,43,39
-141,14,156,63,-148,85,102,102,34,34,43,34
-141,9,151,65,-146,80,112,112,39,43,43,43
-141,9,151,65,-146,80,112,112,43,43,43,48
-141,9,151,65,-146,80,112,112,48,43,43,48
-141,4,146,68,-143,75,112,112,53,43,43,48
-146,4,151,70,-148,78,112,102,43,43,48,43
-146,4,151,70,-148,78,112,102,43,43,48,43
-141,9,151,65,-146,80,112,102,43,43,48,43
-141,14,156,63,-148,85,112,102,43,43,53,43
-141,24,165,58,-153,95,102,102,53,43,43,43
-141,24,165,58,-153,95,102,102,53,48,43,43
-141,24,165,58,-153,95,102,102,53,48,43,43
-141,24,165,58,-153,95,102,102,53,48,43,43
-131,34,165,48,-148,100,102,102,53,48,43,43
-131,34,165,48,-148,100,102,107,48,48,43,43
-131,34,165,48,-148,100,102,107,43,48,43,43
-131,34,165,48,-148,100,102,107,39,53,48,48
-141,24,165,58,-153,95,102,97,39,53,48,48
-141,29,170,56,-156,100,102,97,39,53,48,48
-141,29,170,56,-156,100,102,97,39,53,48,48
-141,29,170,56,-156,100,92,97,39,48,48,48
-136,48,185,43,-161,117,92,102,39,58,58,48
-131,48,180,41,-156,114,92,102,39,58,58,48
-131,48,180,41,-156,114,92,102,39,58,58,53
-126,48,175,39,-151,112,92,102,39,68,58,53
-131,48,180,41,-156,114,87,92,39,58,58,53
-131,53,185,39,-158,119,87,92,39,58,58,53
-131,53,185,39,-158,119,87,92,39,58,63,53
-131,53,185,39,-158,119,87,92,39,58,63,58
-122,58,180,31,-151,119,82,82,39,58,53,58
-122,58,180,31,-151,119,82,82,43,58,53,58
-122,58,180,31,-151,119,73,82,43,58,53,58
-122,63,185,29,-153,124,73,82,43,58,53,58
-122,63,185,29,-153,124,73,92,43,58,58,58
-122,63,185,29,-153,124,73,92,43,58,58,58
-122,63,185,29,-153,124,78,92,48,58,63,63
-122,68,190,26,-156,129,78,92,48,58,73,68
-117,68,185,24,-151,126,78,87,48,63,63,68
-117,68,185,24,-151,126,78,87,53,63,63,68
-117,68,185,24,-151,126,73,87,53,63,63,68
-117,78,195,19,-156,136,68,82,53,63,63,68
-112,82,195,14,-153,139,68,82,53,58,63,63
-112,82,195,14,-153,139,68,78,53,58,63,63
-112,82,195,14,-153,139,68,78,53,58,63,63
-107,87,195,9,-151,141,63,78,53,58,63,68
-107,87,195,9,-151,141,68,73,53,58,63,78
-107,87,195,9,-151,141,63,63,53,58,68,78
-107,87,195,9,-151,141,63,63,53,58,68,78
-107,97,204,4,-156,151,58,63,53,58,68,78
-102,92,195,4,-148,143,43,58,63,68,68,78
-102,92,195,4,-148,143,43,53,63,68,68,78
-102,92,195,4,-148,143,43,48,58,68,68,78
-87,92,180,-2,-134,136,43,43,58,68,68,78
-97,97,195,0,-146,146,48,39,58,58,68,78
-97,97,195,0,-146,146,43,34,58,58,68,78
-87,97,185,-4,-136,141,43,34,58,58,68,82
-87,97,185,-4,-136,141,34,24,53,58,68,82
-87,107,195,-9,-141,151,24,9,48,48,58,73
-87,107,195,-9,-141,151,19,9,43,48,58,73
-82,107,190,-12,-136,148,19,0,39,43,58,68
-82,112,195,-14,-139,153,14,-4,34,43,58,68
-73,112,185,-19,-129,148,19,0,43,48,68,73
-73,112,185,-19,-129,148,14,-9,39,43,63,73
-68,122,190,-26,-129,156,14,-14,39,43,63,68
-63,122,185,-29,-124,153,9,-19,29,39,53,68
-73,112,185,-19,-129,148,0,-29,29,48,53,78
-73,107,180,-17,-126,143,-4,-29,29,48,53,78
-63,102,165,-19,-114,134,-19,-43,24,39,53,78
-63,102,165,-19,-114,134,-19,-48,19,39,53,78
-53,112,165,-29,-109,139,-9,-58,19,29,53,78
-53,112,165,-29,-109,139,-9,-68,14,29,53,78
-48,112,161,-31,-104,136,-14,-78,9,29,48,78
-48,112,161,-31,-104,136,-19,-87,9,19,48,78
-58,107,165,-24,-112,136,-24,-78,0,19,43,68
-53,107,161,-26,-107,134,-24,-87,0,19,43,68
-53,107,161,-26,-107,134,-29,-92,-4,19,43,63
-53,107,161,-26,-107,134,-34,-107,-9,9,39,58
-43,117,161,-36,-102,139,-39,-107,-4,19,39,68
-43,117,161,-36,-102,139,-39,-112,-9,19,39,73
-43,117,161,-36,-102,139,-39,-122,-9,19,39,73
-39,117,156,-39,-97,136,-39,-122,-9,19,39,73
-24,112,136,-43,-80,124,-53,-141,-24,9,34,68
-24,112,136,-43,-80,124,-53,-146,-24,9,34,68
-24,107,131,-41,-78,119,-53,-146,-29,9,34,68
-19,107,126,-43,-73,117,-53,-151,-34,9,29,68
-14,97,112,-41,-63,104,-48,-151,-29,14,39,78
-9,97,107,-43,-58,102,-48,-146,-24,14,39,78
-9,97,107,-43,-58,102,-48,-141,-19,14,39,78
-9,102,112,-46,-61,107,-48,-131,-14,19,43,78
-4,112,117,-53,-61,114,-58,-136,-24,9,34,68
0,107,107,-53,-53,107,-58,-136,-24,9,34,68
0,107,107,-53,-53,107,-53,-126,-24,9,39,68
0,102,102,-51,-51,102,-53,-117,-24,9,39,73
0,107,107,-53,-53,107,-53,-102,-24,9,48,73
4,112,107,-58,-51,109,-48,-92,-14,14,48,78
4,117,112,-61,-53,114,-48,-82,-14,14,48,78
9,117,107,-63,-48,112,-43,-68,-14,24,48,78
9,107,97,-58,-43,102,-34,-68,-9,34,53,87
9,102,92,-56,-41,97,-34,-58,-9,34,53,87
9,102,92,-56,-41,97,-24,-39,0,39,63,92
9,102,92,-56,-41,97,-19,-29,0,43,63,92
9,112,102,-61,-46,107,-14,-9,0,34,68,92
9,112,102,-61,-46,107,-14,0,4,39,68,92
4,112,107,-58,-51,109,-9,9,9,39,73,92
4,112,107,-58,-51,109,-4,19,14,48,73,97
4,107,102,-56,-48,104,9,39,19,53,82,87
4,92,87,-48,-41,90,14,48,19,58,82,87
4,87,82,-46,-39,85,19,53,29,58,82,87
0,82,82,-41,-41,82,24,63,29,58,82,87
0,82,82,-41,-41,82,29,63,29,58,82,92
-4,82,87,-39,-46,85,34,78,29,58,82,92
-9,78,87,-34,-48,82,39,78,34,63,82,92
-14,73,87,-29,-51,80,39,78,34,63,82,92
-9,73,82,-31,-46,78,43,73,34,68,82,82
-14,73,87,-29,-51,80,43,73,34,68,78,82
-14,78,92,-31,-53,85,43,78,34,68,78,78
-19,82,102,-31,-61,92,48,78,39,68,82,78
-34,73,107,-19,-70,90,48,78,39,58,73,78
-34,73,107,-19,-70,90,53,78,39,58,73,78
-34,73,107,-19,-70,90,53,78,39,58,73,78
-39,63,102,-12,-70,82,53,78,39,58,68,73
-39,63,102,-12,-70,82,58,78,39,68,63,73
-39,63,102,-12,-70,82,58,73,34,68,63,68
-39,63,102,-12,-70,82,58,73,34,68,63,68
-43,63,107,-9,-75,85,58,73,34,68,63,68
-43,58,102,-7,-73,80,58,82,34,58,53,63
-43,53,97,-4,-70,75,58,82,34,58,53,63
-43,43,87,0,-65,65,58,82,34,58,53,63
-43,43,87,0,-65,65,58,82,34,53,43,58
-43,43,87,0,-65,65,58,82,34,53,53,58
-43,43,87,0,-65,65,63,82,34,53,53,58
-48,39,87,4,-68,63,63,82,34,53,53,58
-48,39,87,4,-68,63,63,82,34,53,53,63
-48,39,87,4,-68,63,63,82,34,53,53,63
-48,39,87,4,-68,63,58,82,29,48,48,58
-48,48,97,0,-73,73,58,82,29,48,48,58
-48,48,97,0,-73,73,58,82,29,48,53,58
-48,48,97,0,-73,73,58,82,39,58,63,68
-48,43,92,2,-70,68,63,82,39,58,63,68
-48,43,92,2,-70,68,63,82,39,58,63,63
-48,39,87,4,-68,63,63,82,39,58,63,63
-48,39,87,4,-68,63,68,87,34,63,63,68
-48,39,87,4,-68,63,68,92,34,63,63,68
-48,39,87,4,-68,63,68,92,34,63,63,68
-43,39,82,2,-63,61,68,92,34,63,63,68
-43,48,92,-2,-68,70,73,87,34,48,63,53
-43,48,92,-2,-68,70,73,87,34,48,63,53
-43,48,92,-2,-68,70,73,92,34,53,63,58
-43,48,92,-2,-68,70,73,97,34,53,63,58
-43,39,82,2,-63,61,63,97,43,63,68,58
-43,39,82,2,-63,61,63,97,43,63,68,58
-43,39,82,2,-63,61,68,107,43,63,68,58
-48,43,92,2,-70,68,68,107,48,63,73,58
-48,34,82,7,-65,58,73,117,58,63,73,68
-48,34,82,7,-65,58,73,117,58,63,73,68
-48,34,82,7,-65,58,78,117,58,68,73,68
-48,34,82,7,-65,58,78,117,58,68,73,68
-43,39,82,2,-63,61,78,107,48,68,63,58
-43,48,92,-2,-68,70,78,107,48,68,63,58
-43,53,97,-4,-70,75,78,112,48,63,63,58
-48,58,107,-4,-78,82,78,117,48,63,63,58
-39,58,97,-9,-68,78,68,117,48,68,63,58
-39,58,97,-9,-68,78,68,117,48,68,63,58
-39,63,102,-12,-70,82,73,122,48,68,68,68
-39,63,102,-12,-70,82,73,122,48,73,68,68
-39,63,102,-12,-70,82,78,112,48,73,68,68
-39,63,102,-12,-70,82,78,112,48,73,68,68
-39,63,102,-12,-70,82,73,112,43,68,63,63
-39,63,102,-12,-70,82,73,112,43,68,63,63
-39,63,102,-12,-70,82,73,131,53,73,68,73
-39,53,92,-7,-65,73,73,131,53,73,68,73
-43,53,97,-4,-70,75,73,126,53,73,68,78
-48,53,102,-2,-75,78,78,126,53,78,73,78
-48,53,102,-2,-75,78,78,117,43,73,73,68
-43,58,102,-7,-73,80,82,117,48,73,73,68
-43,58,102,-7,-73,80,82,117,48,73,73,68
-48,58,107,-4,-78,82,78,117,48,73,73,68
-39,48,87,-4,-63,68,87,122,58,82,73,78
-39,48,87,-4,-63,68,87,122,58,78,73,78
-39,48,87,-4,-63,68,87,126,58,78,73,78
-39,48,87,-4,-63,68,87,131,58,82,73,78
-53,48,102,2,-78,75,78,122,48,82,63,68
-53,53,107,0,-80,80,78,122,48,78,63,68
-53,53,107,0,-80,80,78,122,48,73,63,68
-48,48,97,0,-73,73,78,122,48,63,63,68
-48,58,107,-4,-78,82,87,112,48,73,63,68
-43,58,102,-7,-73,80,87,107,48,68,63,68
-43,58,102,-7,-73,80,87,107,48,68,63,68
-53,58,112,-2,-82,85,87,107,48,68,63,68
-58,48,107,4,-82,78,87,107,48,68,63,68
-58,43,102,7,-80,73,87,107,48,73,63,68
-63,39,102,12,-82,70,87,107,48,73,63,68
-68,29,97,19,-82,63,87,107,48,73,63,68
-63,34,97,14,-80,65,87,97,48,73,63,68
-68,39,107,14,-87,73,87,97,48,73,63,68
-63,43,107,9,-85,75,87,97,48,68,58,63
-48,53,102,-2,-75,78,87,97,48,68,58,63
-58,43,102,7,-80,73,78,97,48,68,53,58
-58,43,102,7,-80,73,78,97,48,68,53,58
-58,43,102,7,-80,73,78,97,48,68,53,63
-58,39,97,9,-78,68,78,97,48,68,48,63
-58,48,107,4,-82,78,87,107,58,68,58,63
-58,48,107,4,-82,78,87,107,58,68,58,63
-58,43,102,7,-80,73,87,102,58,63,58,63
-58,39,97,9,-78,68,87,97,58,63,53,63
-63,29,92,17,-78,61,78,97,48,63,53,63
-63,29,92,17,-78,61,78,92,43,58,53,53
-63,39,102,12,-82,70,78,92,43,58,53,53
-63,39,102,12,-82,70,78,92,43,58,53,53
-63,34,97,14,-80,65,87,92,43,58,53,53
-63,34,97,14,-80,65,87,97,48,63,58,58
-63,34,97,14,-80,65,87,97,48,63,58,58
-63,34,97,14,-80,65,87,87,48,63,58,58
-53,48,102,2,-78,75,78,87,39,58,58,58
-53,48,102,2,-78,75,78,82,34,58,53,53
-53,43,97,4,-75,70,78,82,34,58,53,53
-53,43,97,4,-75,70,78,82,34,58,53,53
-63,34,97,14,-80,65,78,82,43,58,53,53
-68,34,102,17,-85,68,78,82,43,58,48,53
-68,29,97,19,-82,63,78,82,43,58,48,53
-68,24,92,21,-80,58,78,78,43,58,48,53
-58,34,92,12,-75,63,78,78,34,58,48,53
-58,34,92,12,-75,63,78,78,34,58,48,53
-58,34,92,12,-75,63,73,73,34,53,48,53
-58,39,97,9,-78,68,73,73,34,53,48,53
-43,29,73,7,-58,51,73,73,39,53,43,43
-43,29,73,7,-58,51,73,73,39,53,43,43
-43,29,73,7,-58,51,78,78,39,53,43,43
-53,24,78,14,-65,51,78,78,39,58,43,39
-63,19,82,21,-73,51,78,78,39,68,53,48
-63,19,82,21,-73,51,78,73,39,63,53,48
-63,19,82,21,-73,51,78,73,39,63,53,48
-63,29,92,17,-78,61,78,73,43,63,53,48
-63,39,102,12,-82,70,78,63,43,53,43,39
-63,34,97,14,-80,65,73,58,39,53,43,39
-63,34,97,14,-80,65,73,58,39,53,43,39
-63,29,92,17,-78,61,68,58,39,53,43,39
-73,9,82,31,-78,46,68,63,39,53,43,43
-73,19,92,26,-82,56,68,63,39,53,43,43
-73,19,92,26,-82,56,68,63,39,53,43,43
-78,19,97,29,-87,58,68,63,39,53,39,43
-68,14,82,26,-75,48,78,63,29,53,39,43
-63,14,78,24,-70,46,78,63,29,53,39,43
-63,14,78,24,-70,46,82,63,29,53,39,43
-63,14,78,24,-70,46,82,63,29,53,39,43
-63,24,87,19,-75,56,68,53,24,34,29,29
-63,29,92,17,-78,61,68,53,24,34,29,29
-68,34,102,17,-85,68,68,53,24,34,29,29
-68,39,107,14,-87,73,68,48,24,34,29,29
-78,29,107,24,-92,68,78,58,39,48,34,34
-78,24,102,26,-90,63,78,58,39,48,39,39
-78,14,92,31,-85,53,82,58,39,48,43,34
-78,9,87,34,-82,48,82,58,39,53,53,48
-68,0,68,34,-68,34,73,63,39,53,43,48
-68,0,68,34,-68,34,73,63,34,48,43,48
-68,0,68,34,-68,34,73,58,34,48,43,43
-68,0,68,34,-68,34,73,53,34,48,34,43
-68,4,73,31,-70,39,63,43,39,48,34,34
-68,9,78,29,-73,43,63,43,39,48,34,34
-68,14,82,26,-75,48,63,43,29,48,34,24
-73,19,92,26,-82,56,63,43,29,53,34,34
-73,4,78,34,-75,41,73,58,39,53,48,43
-73,4,78,34,-75,41,73,58,39,53,48,39
-73,9,82,31,-78,46,73,58,43,53,48,39
-73,9,82,31,-78,46,73,58,43,48,48,39
-82,-4,78,43,-80,36,73,58,43,48,48,39
-78,-9,68,43,-73,29,73,58,39,48,48,43
-78,-9,68,43,-73,29,73,53,34,48,48,43
-78,-9,68,43,-73,29,73,53,29,48,48,43
-82,4,87,39,-85,46,63,53,39,48,39,43
-82,4,87,39,-85,46,63,53,39,48,39,43
-82,4,87,39,-85,46,63,53,34,48,39,39
-82,4,87,39,-85,46,63,53,34,48,34,39
-82,-4,78,43,-80,36,63,43,24,53,34,29
-82,-4,78,43,-80,36,63,43,24,53,39,39
-82,-9,73,46,-78,31,63,43,24,53,39,39
-82,-14,68,48,-75,26,63,43,24,53,39,39
-73,-9,63,41,-68,26,73,53,34,53,39,39
-73,-4,68,39,-70,31,73,48,34,53,39,39
-73,-4,68,39,-70,31,73,48,34,53,39,39
-73,0,73,36,-73,36,73,48,34,53,39,39
-82,-9,73,46,-78,31,63,39,24,43,29,29
-82,-9,73,46,-78,31,63,43,24,43,29,29
-82,-9,73,46,-78,31,63,43,24,43,29,29
-82,-4,78,43,-80,36,63,39,24,39,29,29
-82,9,92,36,-87,51,73,48,24,48,39,29
-82,9,92,36,-87,51,73,43,24,48,39,29
-82,9,92,36,-87,51,68,43,24,48,39,29
-78,9,87,34,-82,48,68,43,24,53,39,29
-78,4,82,36,-80,43,58,43,24,43,29,29
-78,0,78,39,-78,39,53,43,24,43,29,29
-78,-4,73,41,-75,34,53,43,24,43,29,29
-78,-14,63,46,-70,24,53,43,24,39,29,29
-82,-14,68,48,-75,26,63,43,34,48,39,39
-82,-14,68,48,-75,26,68,43,34,53,39,39
-82,-19,63,51,-73,21,68,43,34,53,39,39
-82,-19,63,51,-73,21,68,43,34,53,39,39
-82,-9,73,46,-78,31,63,34,29,48,29,34
-78,-9,68,43,-73,29,58,34,24,43,29,29
-78,-9,68,43,-73,29,53,34,19,39,29,24
-78,-9,68,43,-73,29,48,34,14,34,29,19
-87,-29,58,58,-73,14,68,43,24,48,34,34
-97,-29,68,63,-82,19,78,48,39,58,39,48
-87,-24,63,56,-75,19,63,39,29,53,29,43
-87,-19,68,53,-78,24,58,39,29,48,29,39
-87,-14,73,51,-80,29,53,39,29,43,29,34
-87,-9,78,48,-82,34,48,39,29,39,29,29
-87,0,87,43,-87,43,48,29,24,39,19,29
-87,0,87,43,-87,43,48,29,19,39,19,29
-87,0,87,43,-87,43,48,29,14,39,19,29
-87,0,87,43,-87,43,48,29,9,39,19,29
-87,-14,73,51,-80,29,48,29,19,39,29,29
-87,-19,68,53,-78,24,48,29,19,39,29,29
-87,-24,63,56,-75,19,48,29,19,39,29,29
-87,-29,58,58,-73,14,48,29,19,39,29,29
-97,-19,78,58,-87,29,48,39,19,29,19,29
-97,-19,78,58,-87,29,48,39,19,29,19,29
-97,-19,78,58,-87,29,48,39,19,29,19,29
-97,-19,78,58,-87,29,48,39,19,29,19,29
-87,-9,78,48,-82,34,48,29,19,39,19,29
-87,-9,78,48,-82,34,48,29,19,39,19,29
-87,-9,78,48,-82,34,48,29,19,39,19,29
-87,-9,78,48,-82,34,48,29,19,39,19,29
-87,-19,68,53,-78,24,48,29,19,29,19,29
-87,-19,68,53,-78,24,48,29,19,29,19,29
-87,-19,68,53,-78,24,48,29,19,29,19,29
-87,-19,68,53,-78,24,48,29,19,29,19,29
-78,-19,58,48,-68,19,48,29,19,39,19,29
-78,-19,58,48,-68,19,48,29,19,39,19,29
-78,-19,58,48,-68,19,48,29,19,39,19,29
-78,-19,58,48,-68,19,48,29,19,39,19,29
-87,-19,68,53,-78,24,48,29,19,39,19,29
-87,-19,68,53,-78,24,48,29,19,39,19,29
-87,-19,68,53,-78,24,48,29,19,39,19,29
-87,-19,68,53,-78,24,48,29,19,39,19,29
-87,-19,68,53,-78,24,58,29,29,39,29,29
-87,-19,68,53,-78,24,58,29,29,39,29,29
-87,-19,68,53,-78,24,58,29,29,39,29,29
-87,-19,68,53,-78,24,58,29,29,39,29,29
-78,-9,68,43,-73,29,58,39,29,48,39,39
-78,-9,68,43,-73,29,58,39,29,48,39,39
-78,-9,68,43,-73,29,58,39,29,48,39,39
-78,-9,68,43,-73,29,58,39,29,48,39,39
-78,-4,73,41,-75,34,58,48,43,53,43,43
-78,0,78,39,-78,39,58,48,43,53,43,43
-78,4,82,36,-80,43,58,39,43,53,43,39
-78,9,87,34,-82,48,58,39,43,53,43,39
-78,9,87,34,-82,48,53,39,34,53,34,29
-78,9,87,34,-82,48,53,39,34,53,29,29
-78,19,97,29,-87,58,53,39,34,53,29,29
-78,19,97,29,-87,58,63,43,34,53,34,29
-78,19,97,29,-87,58,68,58,48,63,43,43
-78,19,97,29,-87,58,78,58,53,63,48,43
-78,19,97,29,-87,58,78,53,53,63,48,43
-78,24,102,26,-90,63,78,53,58,63,58,48
-78,14,92,31,-85,53,68,48,53,68,48,48
-78,14,92,31,-85,53,68,48,53,68,48,48
-73,34,107,19,-90,70,63,43,53,73,48,58
-63,39,102,12,-82,70,53,43,58,73,53,58
-48,53,102,-2,-75,78,48,43,73,87,63,68
-43,63,107,-9,-75,85,39,39,73,92,73,73
-39,73,112,-17,-75,92,29,34,73,92,78,78
-39,87,126,-24,-82,107,24,34,82,102,82,78
-43,97,141,-26,-92,119,19,34,73,97,73,73
-39,97,136,-29,-87,117,14,34,78,97,73,78
-39,107,146,-34,-92,126,14,34,82,97,82,82
-43,107,151,-31,-97,129,9,24,82,92,87,87
-39,107,146,-34,-92,126,4,19,73,92,78,87
-39,107,146,-34,-92,126,4,19,73,92,78,87
-34,102,136,-34,-85,119,0,19,68,87,73,82
-34,87,122,-26,-78,104,-4,19,63,82,73,78
-24,87,112,-31,-68,100,-4,9,58,82,78,87
-24,82,107,-29,-65,95,-14,4,53,78,78,87
-24,78,102,-26,-63,90,-19,4,48,78,78,87
-14,78,92,-31,-53,85,-19,0,48,78,73,82
-9,78,87,-34,-48,82,-19,-4,53,78,63,82
-9,78,87,-34,-48,82,-19,-4,53,78,63,82
-9,73,82,-31,-46,78,-19,0,48,82,73,82
-9,73,82,-31,-46,78,-14,0,48,82,73,82
-14,68,82,-26,-48,75,0,0,48,68,68,73
-24,53,78,-14,-51,65,0,0,48,68,63,68
-43,24,68,9,-56,46,4,4,43,63,58,58
-58,19,78,19,-68,48,14,4,43,63,53,53
-68,14,82,26,-75,48,9,4,34,53,39,48
-82,-9,73,46,-78,31,14,4,29,48,34,43
-92,-14,78,53,-85,31,19,4,29,43,34,43
-97,-19,78,58,-87,29,24,0,24,34,24,34
-102,-29,73,65,-87,21,34,0,19,34,29,29
-102,-43,58,73,-80,7,39,0,14,29,29,29
-102,-48,53,75,-78,2,39,0,9,24,24,24
-102,-58,43,80,-73,-7,43,0,9,19,19,14
-107,-58,48,82,-78,-4,34,0,4,14,14,14
-107,-58,48,82,-78,-4,34,-4,4,14,4,9
-107,-58,48,82,-78,-4,34,-4,4,9,4,9
-107,-63,43,85,-75,-9,34,-9,4,9,4,4
-107,-58,48,82,-78,-4,34,-9,4,9,4,4
-107,-58,48,82,-78,-4,34,-9,0,9,4,4
-107,-58,48,82,-78,-4,34,-9,0,9,0,4
-112,-58,53,85,-82,-2,34,-9,0,9,0,4
-102,-58,43,80,-73,-7,34,-9,0,9,4,14
-102,-58,43,80,-73,-7,34,-9,0,4,4,9
-102,-58,43,80,-73,-7,39,-9,0,4,4,9
-102,-58,43,80,-73,-7,39,-4,0,9,4,9
-107,-68,39,87,-73,-14,39,-4,0,9,4,9
-107,-73,34,90,-70,-19,39,-4,0,9,4,14
-112,-78,34,95,-73,-21,39,-4,0,9,4,14
-112,-82,29,97,-70,-26,39,0,0,9,4,14
-117,-82,34,100,-75,-24,39,0,9,9,4,4
-117,-87,29,102,-73,-29,39,0,9,9,4,4
-117,-87,29,102,-73,-29,43,0,9,9,4,4
-117,-82,34,100,-75,-24,43,0,9,9,4,4
-117,-73,43,95,-80,-14,39,-4,0,9,0,0
-117,-68,48,92,-82,-9,39,-4,0,9,0,0
-117,-68,48,92,-82,-9,43,0,0,14,0,4
-117,-68,48,92,-82,-9,43,0,0,14,0,4
-117,-58,58,87,-87,0,39,0,4,4,0,9
-107,-78,29,92,-68,-24,48,4,14,14,4,19
-122,-78,43,100,-82,-17,68,34,19,14,4,9
-126,-48,78,87,-102,14,102,82,48,39,24,29
-126,-34,92,80,-109,29,131,126,68,68,48,43
-136,-24,112,80,-124,43,141,161,92,87,68,58
-126,0,126,63,-126,63,156,204,126,122,107,92
-97,29,126,34,-112,78,156,268,151,165,141,131
-63,68,131,-2,-97,100,190,395,195,234,204,190
-19,92,112,-36,-65,102,224,570,239,287,263,234
63,107,43,-85,9,75,219,707,248,312,302,263
185,161,-24,-173,104,68,190,785,263,351,361,312
346,214,-131,-280,239,41,136,858,287,400,444,385
512,253,-258,-383,385,-2,78,971,292,453,512,448
649,312,-336,-480,492,-12,39,1054,322,522,595,527
756,356,-400,-556,578,-21,-19,1063,322,546,619,561
839,336,-502,-588,671,-82,-68,985,263,463,541,492
858,283,-575,-570,717,-146,-102,834,180,351,424,385
839,224,-614,-531,727,-195,-151,610,97,229,307,287
829,175,-653,-502,741,-239,-239,302,9,117,180,180
780,146,-634,-463,707,-244,-322,-39,-53,29,92,107
610,122,-488,-366,549,-183,-336,-341,-82,-19,19,48
419,97,-322,-258,370,-112,-322,-580,-102,-68,-43,9
346,34,-312,-190,329,-139,-336,-761,-165,-146,-117,-53
307,-82,-390,-112,348,-236,-361,-902,-273,-258,-219,-136
248,-204,-453,-21,351,-329,-336,-971,-356,-361,-317,-224
185,-297,-483,56,334,-390,-287,-946,-419,-429,-380,-297
107,-302,-409,97,258,-356,-244,-868,-424,-434,-400,-312
43,-292,-336,124,190,-314,-209,-785,-385,-405,-370,-287
4,-317,-322,156,163,-319,-214,-756,-385,-405,-361,-278
-9,-336,-326,173,158,-331,-234,-712,-380,-395,-351,-287
-39,-322,-283,180,122,-302,-204,-614,-341,-351,-326,-263
-87,-283,-195,185,53,-239,-161,-512,-292,-297,-287,-234
-122,-224,-102,173,-9,-163,-117,-400,-224,-224,-224,-180
-126,-156,-29,141,-48,-92,-73,-297,-146,-146,-146,-117
-126,-122,4,124,-65,-58,-43,-209,-112,-102,-102,-82
-126,-73,53,100,-90,-9,0,-126,-58,-63,-58,-58
-117,-58,58,87,-87,0,39,-73,-24,-24,-29,-34
-112,-58,53,85,-82,-2,53,-48,-14,-9,-19,-29
-122,-48,73,85,-97,12,63,-34,-9,-9,-19,-24
-122,-29,92,75,-107,31,68,-19,-14,-9,-34,-29
-112,-19,92,65,-102,36,73,-4,-14,-9,-39,-34
-126,-14,112,70,-119,48,87,19,0,0,-19,-24
-136,-34,102,85,-119,34,87,29,14,14,0,-14
-126,-24,102,75,-114,39,82,34,19,9,0,-14
-126,-19,107,73,-117,43,82,39,19,19,0,-14
-126,-14,112,70,-119,48,82,39,19,19,0,-14
-122,-9,112,65,-117,51,82,39,19,19,0,-14
-131,-19,112,75,-122,46,82,34,14,19,-9,-9
-131,-19,112,75,-122,46,82,39,14,19,-4,-4
-131,-19,112,75,-122,46,87,48,19,19,-4,-4
-131,-9,122,70,-126,56,87,48,24,24,-4,-4
-126,4,131,61,-129,68,82,53,34,29,0,-9
-126,14,141,56,-134,78,82,58,39,34,9,-4
-122,14,136,53,-129,75,82,58,39,34,9,-4
-122,9,131,56,-126,70,82,58,39,34,9,-4
-122,0,122,61,-122,61,92,58,29,34,9,-4
-122,-9,112,65,-117,51,97,58,29,29,4,-9
-122,-14,107,68,-114,46,97,63,29,29,4,-9
-122,-14,107,68,-114,46,97,68,34,34,9,-9
-122,-4,117,63,-119,56,87,68,34,34,14,-4
-122,-4,117,63,-119,56,87,68,39,39,14,-4
-122,14,136,53,-129,75,82,68,39,39,14,-4
-122,0,122,61,-122,61,82,68,34,39,14,-4
-122,0,122,61,-122,61,87,68,34,29,14,-4
-122,0,122,61,-122,61,87,68,29,29,14,-9
-122,0,122,61,-122,61,87,68,29,29,9,-9
-122,0,122,61,-122,61,87,68,29,29,9,-9
-131,-9,122,70,-126,56,97,78,39,29,19,-9
-131,-9,122,70,-126,56,97,82,43,34,19,-9
-131,0,131,65,-131,65,97,82,43,39,24,0
-131,0,131,65,-131,65,97,82,43,43,24,0
-136,-14,122,75,-129,53,107,73,43,48,24,0
-136,-14,122,75,-129,53,112,73,43,48,24,0
-136,-19,117,78,-126,48,112,73,43,48,24,0
-131,-19,112,75,-122,46,112,73,43,48,24,0
-141,-9,131,75,-136,61,102,82,43,48,24,0
-141,-4,136,73,-139,65,102,82,43,48,24,0
-146,-4,141,75,-143,68,102,82,43,48,24,0
-146,-4,141,75,-143,68,102,82,43,48,24,-4
-136,-4,131,70,-134,63,102,73,43,39,14,-4
-131,-4,126,68,-129,61,102,73,43,39,14,-4
-131,-4,126,68,-129,61,102,73,43,39,14,-4
-131,-4,126,68,-129,61,102,78,43,43,19,-4
-122,0,122,61,-122,61,92,78,43,43,29,-4
-122,0,122,61,-122,61,92,73,43,43,24,-4
-122,4,126,58,-124,65,92,73,43,43,24,-4
-122,4,126,58,-124,65,92,73,43,43,24,-4
-131,9,141,61,-136,75,92,82,43,43,24,-4
-131,9,141,61,-136,75,92,82,43,43,24,0
-131,9,141,61,-136,75,92,82,43,43,24,0
-131,4,136,63,-134,70,92,82,43,43,24,0
-136,-4,131,70,-134,63,92,82,34,53,19,-4
-136,-4,131,70,-134,63,92,82,34,53,19,-4
-131,0,131,65,-131,65,92,82,34,53,19,-4
-131,4,136,63,-134,70,92,82,34,53,24,-4
-131,-4,126,68,-129,61,97,82,43,53,34,4
-131,-4,126,68,-129,61,102,82,43,58,34,4
-131,-4,126,68,-129,61,107,82,43,58,34,4
-131,-4,126,68,-129,61,112,82,43,58,34,4
-131,-4,126,68,-129,61,102,82,39,58,34,4
-131,-4,126,68,-129,61,102,87,39,58,34,4
-131,-4,126,68,-129,61,102,87,39,58,34,4
-131,-4,126,68,-129,61,102,87,39,63,39,9
-122,9,131,56,-126,70,92,78,48,63,39,9
-122,19,141,51,-131,80,92,78,48,63,39,9
-122,24,146,48,-134,85,92,78,48,63,39,9
-122,29,151,46,-136,90,82,78,48,58,39,9
-131,34,165,48,-148,100,92,82,48,58,39,9
-131,29,161,51,-146,95,92,82,48,58,39,9
-136,24,161,56,-148,92,92,82,48,58,39,14
-136,19,156,58,-146,87,92,82,48,68,39,14
-122,19,141,51,-131,80,87,82,58,68,39,14
-122,24,146,48,-134,85,87,82,58,68,39,14
-122,24,146,48,-134,85,87,82,58,68,43,14
-122,24,146,48,-134,85,87,82,58,68,43,19
-112,39,151,36,-131,95,82,82,53,68,34,19
-112,39,151,36,-131,95,82,82,53,68,34,19
-112,39,151,36,-131,95,73,82,48,68,34,19
-112,43,156,34,-134,100,73,82,43,68,34,19
-112,43,156,34,-134,100,73,82,48,68,48,19
-112,43,156,34,-134,100,73,82,53,68,48,19
-112,43,156,34,-134,100,78,82,63,68,53,24
-112,48,161,31,-136,104,78,82,68,68,63,29
-107,58,165,24,-136,112,68,68,53,63,48,19
-107,58,165,24,-136,112,68,68,53,63,43,19
-107,58,165,24,-136,112,63,68,48,63,39,19
-107,68,175,19,-141,122,58,63,43,63,34,19
-102,68,170,17,-136,119,68,73,58,78,48,34
-102,63,165,19,-134,114,68,68,63,78,53,34
-102,58,161,21,-131,109,68,68,68,78,58,34
-97,58,156,19,-126,107,63,68,73,78,63,39
-87,58,146,14,-117,102,58,53,63,68,58,29
-87,58,146,14,-117,102,53,43,63,68,58,29
-87,58,146,14,-117,102,53,43,63,68,53,29
-87,68,156,9,-122,112,48,43,63,68,48,29
-92,82,175,4,-134,129,43,39,63,78,58,34
-92,82,175,4,-134,129,43,34,63,78,58,39
-92,82,175,4,-134,129,43,29,58,78,58,43
-78,82,161,-2,-119,122,43,24,58,78,58,48
-78,78,156,0,-117,117,39,9,48,73,48,39
-78,78,156,0,-117,117,34,4,48,68,48,39
-68,78,146,-4,-107,112,34,4,48,63,48,43
-68,78,146,-4,-107,112,24,-4,43,58,48,43
-78,78,156,0,-117,117,24,0,53,68,58,43
-78,78,156,0,-117,117,19,0,53,68,58,43
-73,78,151,-2,-112,114,19,-9,53,63,58,39
-73,82,156,-4,-114,119,14,-14,53,63,58,39
-73,82,156,-4,-114,119,9,-29,43,48,48,34
-73,82,156,-4,-114,119,4,-39,39,43,43,34
-68,92,161,-12,-114,126,4,-43,39,43,43,29
-63,92,156,-14,-109,124,0,-48,29,39,34,29
-63,97,161,-17,-112,129,0,-58,39,48,34,29
-63,97,161,-17,-112,129,-4,-58,39,48,34,29
-53,97,151,-21,-102,124,-19,-73,34,39,34,29
-53,102,156,-24,-104,129,-19,-78,29,39,34,29
-53,92,146,-19,-100,119,-19,-78,29,29,24,29
-53,92,146,-19,-100,119,-19,-87,24,29,24,29
-48,92,141,-21,-95,117,-24,-97,19,29,19,29
-48,92,141,-21,-95,117,-29,-107,19,19,19,29
-39,87,126,-24,-82,107,-34,-97,19,29,19,39
-34,87,122,-26,-78,104,-34,-107,19,29,24,39
-34,87,122,-26,-78,104,-39,-112,14,29,29,34
-34,87,122,-26,-78,104,-43,-126,9,19,29,29
-34,97,131,-31,-82,114,-48,-126,14,19,19,29
-34,97,131,-31,-82,114,-48,-131,9,19,19,34
-34,97,131,-31,-82,114,-48,-141,9,19,19,34
-29,97,126,-34,-78,112,-48,-141,9,19,19,34
-24,92,117,-34,-70,104,-53,-151,-4,9,24,29
-24,92,117,-34,-70,104,-53,-156,-4,9,24,29
-24,87,112,-31,-68,100,-53,-156,-9,9,24,29
-19,87,107,-34,-63,97,-53,-161,-14,9,19,29
-14,78,92,-31,-53,85,-58,-156,-14,4,19,29
-9,78,87,-34,-48,82,-58,-156,-14,4,19,29
-9,78,87,-34,-48,82,-58,-156,-14,4,19,29
-9,82,92,-36,-51,87,-58,-151,-14,9,24,29
4,92,87,-48,-41,90,-58,-136,-14,9,14,29
9,87,78,-48,-34,82,-58,-136,-14,9,14,29
9,87,78,-48,-34,82,-53,-126,-14,9,19,29
9,82,73,-46,-31,78,-53,-117,-14,9,19,34
9,92,82,-51,-36,87,-53,-112,-4,19,29,34
14,92,78,-53,-31,85,-48,-102,4,24,29,39
14,92,78,-53,-31,85,-48,-92,4,24,29,39
19,87,68,-53,-24,78,-43,-78,4,34,29,39
19,87,68,-53,-24,78,-34,-58,19,34,43,48
19,82,63,-51,-21,73,-34,-48,19,34,43,48
19,82,63,-51,-21,73,-24,-29,29,39,53,53
19,82,63,-51,-21,73,-19,-19,29,43,53,53
9,92,82,-51,-36,87,-24,-19,19,43,58,43
9,92,82,-51,-36,87,-24,-9,24,48,58,43
4,92,87,-48,-41,90,-19,0,29,48,63,43
4,92,87,-48,-41,90,-14,9,34,58,63,48
-4,92,97,-43,-51,95,-9,29,39,63,63,48
-4,82,87,-39,-46,85,-4,39,39,68,63,48
-4,82,87,-39,-46,85,0,43,48,68,63,48
-9,82,92,-36,-51,87,4,53,48,68,63,48
-9,78,87,-34,-48,82,9,43,48,68,63,53
-14,73,87,-29,-51,80,14,58,48,68,63,53
-19,63,82,-21,-51,73,19,58,53,73,63,53
-24,53,78,-14,-51,65,19,58,53,73,63,53
-29,48,78,-9,-53,63,24,63,53,68,63,53
-34,43,78,-4,-56,61,24,63,53,68,58,53
-34,43,78,-4,-56,61,24,68,53,68,58,48
-39,43,82,-2,-61,63,29,68,58,68,63,48
-43,43,87,0,-65,65,29,58,48,68,63,39
-43,43,87,0,-65,65,34,58,48,68,63,39
-43,43,87,0,-65,65,34,58,48,68,63,39
-48,34,82,7,-65,58,34,58,48,68,58,34
-48,24,73,12,-61,48,39,68,48,58,43,43
-48,24,73,12,-61,48,39,63,43,58,43,39
-48,24,73,12,-61,48,39,63,43,58,43,39
-53,24,78,14,-65,51,39,63,43,58,43,39
-43,24,68,9,-56,46,48,63,43,68,48,43
-43,24,68,9,-56,46,48,63,43,68,53,43
-43,19,63,12,-53,41,48,63,43,68,58,43
-43,24,68,9,-56,46,48,63,43,63,53,39
-43,14,58,14,-51,36,39,63,43,53,43,29
-43,14,58,14,-51,36,43,63,43,53,43,29
-48,9,58,19,-53,34,43,63,43,53,43,29
-48,9,58,19,-53,34,43,63,43,53,43,34
-48,14,63,17,-56,39,53,73,53,63,53,43
-48,19,68,14,-58,43,48,73,48,58,48,39
-48,34,82,7,-65,58,48,73,48,58,48,39
-48,39,87,4,-68,63,48,73,48,58,53,39
-48,39,87,4,-68,63,43,63,39,48,48,29
-48,34,82,7,-65,58,43,63,39,48,43,29
-48,34,82,7,-65,58,39,63,39,48,39,24
-48,29,78,9,-63,53,34,63,39,48,34,24
-48,29,78,9,-63,53,48,78,48,58,39,34
-48,29,78,9,-63,53,48,82,53,63,43,39
-48,29,78,9,-63,53,48,82,58,68,48,43
-43,29,73,7,-58,51,48,82,63,73,53,48
-43,19,63,12,-53,41,43,78,53,68,53,34
-43,19,63,12,-53,41,43,78,53,68,53,34
-43,19,63,12,-53,41,43,82,53,73,53,39
-43,19,63,12,-53,41,43,87,53,73,53,39
-43,29,73,7,-58,51,53,87,63,73,68,48
-43,29,73,7,-58,51,53,87,63,73,68,48
-43,29,73,7,-58,51,58,97,63,73,68,48
-48,34,82,7,-65,58,58,97,68,73,73,48
-39,43,82,-2,-61,63,43,87,58,63,63,39
-39,43,82,-2,-61,63,43,87,58,63,63,39
-39,43,82,-2,-61,63,48,87,58,68,63,39
-39,43,82,-2,-61,63,48,87,58,68,63,39
-43,43,87,0,-65,65,48,97,58,78,63,48
-43,48,92,-2,-68,70,48,97,58,78,63,48
-43,48,92,-2,-68,70,48,102,58,73,63,48
-48,48,97,0,-73,73,48,107,58,73,63,48
-48,34,82,7,-65,58,58,97,58,78,63,48
-48,29,78,9,-63,53,58,97,58,78,63,48
-48,29,78,9,-63,53,63,102,58,78,68,58
-48,24,73,12,-61,48,63,102,58,82,68,58
-48,34,82,7,-65,58,68,102,58,82,68,48
-48,34,82,7,-65,58,68,102,58,82,68,48
-48,34,82,7,-65,58,63,102,53,78,63,43
-48,34,82,7,-65,58,63,102,53,78,63,43
-39,53,92,-7,-65,73,53,102,53,73,58,43
-39,43,82,-2,-61,63,53,102,53,73,58,43
-43,43,87,0,-65,65,53,97,53,73,58,48
-48,43,92,2,-70,68,58,97,53,78,63,48
-48,34,82,7,-65,58,58,107,63,82,73,58
-43,39,82,2,-63,61,63,107,68,82,73,58
-43,39,82,2,-63,61,63,107,68,82,73,58
-48,39,87,4,-68,63,58,107,68,82,73,58
-58,34,92,12,-75,63,68,107,68,92,73,58
-58,29,87,14,-73,58,68,102,68,87,73,58
-58,24,82,17,-70,53,68,102,68,87,73,58
-58,19,78,19,-68,48,68,102,68,92,73,58
-63,9,73,26,-68,41,68,102,68,87,73,58
-63,14,78,24,-70,46,68,102,68,87,73,58
-63,14,78,24,-70,46,68,102,68,87,73,58
-58,9,68,24,-63,39,68,102,68,82,73,58
-68,19,87,24,-78,53,58,92,68,82,63,48
-63,19,82,21,-73,51,58,87,68,78,63,48
-63,19,82,21,-73,51,58,87,68,78,63,48
-73,19,92,26,-82,56,58,87,68,78,63,48
-73,14,87,29,-80,51,58,97,68,78,63,48
-68,14,82,26,-75,48,58,97,68,82,63,48
-68,14,82,26,-75,48,58,97,68,82,63,48
-68,9,78,29,-73,43,58,97,68,82,63,48
-68,9,78,29,-73,43,58,87,58,73,63,39
-78,9,87,34,-82,48,58,87,58,73,63,39
-78,9,87,34,-82,48,58,87,58,68,58,34
-68,14,82,26,-75,48,58,87,58,68,58,34
-68,14,82,26,-75,48,58,78,58,68,53,39
-68,14,82,26,-75,48,58,78,58,68,53,39
-68,14,82,26,-75,48,58,78,58,68,53,43
-68,9,78,29,-73,43,58,78,58,68,48,43
-68,9,78,29,-73,43,58,78,58,68,58,43
-68,9,78,29,-73,43,58,78,58,68,58,43
-68,4,73,31,-70,39,58,73,58,63,58,43
-68,0,68,34,-68,34,58,68,58,63,53,43
-73,9,82,31,-78,46,58,58,48,63,43,43
-73,9,82,31,-78,46,58,53,43,58,43,34
-73,19,92,26,-82,56,58,53,43,58,43,34
-73,19,92,26,-82,56,58,53,43,58,43,34
-73,4,78,34,-75,41,48,53,53,68,43,34
-73,4,78,34,-75,41,48,58,58,73,48,39
-73,4,78,34,-75,41,48,58,58,73,48,39
-73,4,78,34,-75,41,48,48,58,73,48,39
-73,9,82,31,-78,46,48,48,58,68,58,48
-73,9,82,31,-78,46,48,43,53,68,53,43
-73,4,78,34,-75,41,48,43,53,68,53,43
-73,4,78,34,-75,41,48,43,53,68,53,43
-73,-4,68,39,-70,31,58,53,63,78,63,43
-78,-4,73,41,-75,34,58,53,63,78,58,43
-78,-9,68,43,-73,29,58,53,63,78,58,43
-78,-14,63,46,-70,24,58,48,63,78,58,43
-68,-9,58,39,-63,24,58,48,53,73,53,34
-68,-4,63,36,-65,29,58,48,53,68,48,34
-68,0,68,34,-68,34,53,43,53,58,43,34
-68,9,78,29,-73,43,53,43,53,53,39,34
-63,4,68,29,-65,36,53,43,58,53,43,34
-63,0,63,31,-63,31,53,43,58,53,43,34
-63,-4,58,34,-61,26,58,48,58,53,43,34
-73,-14,58,43,-65,21,58,48,58,58,43,29
-82,-9,73,46,-78,31,48,39,48,58,43,29
-82,-9,73,46,-78,31,48,34,48,53,43,29
-82,-9,73,46,-78,31,48,34,48,53,43,29
-82,0,82,41,-82,41,48,34,53,53,43,29
-73,0,73,36,-73,36,58,43,63,63,53,39
-73,-4,68,39,-70,31,53,39,58,63,53,39
-73,-4,68,39,-70,31,53,39,58,63,53,39
-73,-9,63,41,-68,26,48,39,58,63,53,39
-73,-19,53,46,-63,17,48,34,48,58,43,39
-73,-9,63,41,-68,26,48,34,48,53,43,34
-73,-9,63,41,-68,26,48,34,48,48,43,29
-78,-9,68,43,-73,29,48,34,48,43,39,24
-78,4,82,36,-80,43,39,34,58,53,39,34
-73,4,78,34,-75,41,39,34,58,53,39,34
-73,4,78,34,-75,41,43,34,58,53,39,34
-73,4,78,34,-75,41,43,34,58,53,39,34
-73,-9,63,41,-68,26,39,24,53,53,39,29
-73,-9,63,41,-68,26,39,24,53,53,39,29
-78,-9,68,43,-73,29,39,24,53,53,39,29
-78,-9,68,43,-73,29,39,19,53,53,39,29
-78,4,82,36,-80,43,39,19,58,58,39,29
-78,4,82,36,-80,43,39,19,58,58,39,29
-78,0,78,39,-78,39,43,19,58,58,39,19
-78,0,78,39,-78,39,43,19,58,63,43,29
-87,-9,78,48,-82,34,43,24,48,53,34,19
-87,-9,78,48,-82,34,43,24,43,48,34,19
-87,-9,78,48,-82,34,43,19,43,48,34,14
-87,-9,78,48,-82,34,43,14,43,48,24,14
-82,-9,73,46,-78,31,53,24,48,48,24,24
-78,-9,68,43,-73,29,53,24,48,48,24,24
-73,-9,63,41,-68,26,53,24,39,48,24,14
-73,-9,63,41,-68,26,53,24,39,53,24,24
-82,-24,58,53,-70,17,43,19,48,43,29,24
-82,-24,58,53,-70,17,43,19,48,43,29,19
-82,-19,63,51,-73,21,43,19,53,43,29,19
-82,-19,63,51,-73,21,43,19,53,39,29,19
-92,-14,78,53,-85,31,43,19,58,48,39,19
-87,-19,68,53,-78,24,43,19,58,48,39,24
-87,-19,68,53,-78,24,43,14,58,48,39,24
-87,-19,68,53,-78,24,43,14,58,48,39,24
-87,-4,82,46,-85,39,43,14,48,39,29,24
-82,-4,78,43,-80,36,43,14,48,39,29,24
-78,-4,73,41,-75,34,43,14,43,39,29,19
-73,-4,68,39,-70,31,43,14,43,39,24,19
-73,-4,68,39,-70,31,43,14,53,43,24,9
-73,-4,68,39,-70,31,43,14,53,43,29,19
-73,-9,63,41,-68,26,43,14,53,43,29,19
-73,-14,58,43,-65,21,43,14,53,43,29,19
-73,-14,58,43,-65,21,43,14,43,43,29,19
-73,-14,58,43,-65,21,43,9,43,43,29,19
-73,-19,53,46,-63,17,43,9,43,43,29,19
-73,-19,53,46,-63,17,43,9,43,43,29,19
-63,-9,53,36,-58,21,43,9,53,43,29,19
-63,-9,53,36,-58,21,43,14,53,43,29,19
-63,-9,53,36,-58,21,43,14,53,43,29,19
-63,-4,58,34,-61,26,43,9,53,39,29,19
-73,-4,68,39,-70,31,53,19,53,39,29,19
-73,-9,63,41,-68,26,53,14,53,39,29,19
-73,-14,58,43,-65,21,48,14,53,39,29,19
-68,-19,48,43,-58,14,48,14,53,43,29,19
-78,-14,63,46,-70,24,39,4,53,43,29,19
-78,-9,68,43,-73,29,34,4,53,43,29,19
-78,-4,73,41,-75,34,34,4,53,43,29,19
-78,-4,73,41,-75,34,34,4,53,39,29,19
-73,-4,68,39,-70,31,34,4,53,39,29,19
-73,-4,68,39,-70,31,39,4,53,43,29,19
-73,-9,63,41,-68,26,39,4,53,43,29,19
-73,-9,63,41,-68,26,39,4,53,43,29,19
-82,-9,73,46,-78,31,48,4,53,43,29,29
-78,-9,68,43,-73,29,48,4,53,43,29,29
-78,-9,68,43,-73,29,48,4,53,43,29,29
-78,-9,68,43,-73,29,48,4,53,43,29,29
-78,0,78,39,-78,39,48,4,53,39,34,24
-78,0,78,39,-78,39,48,9,48,48,29,29
-78,-9,68,43,-73,29,39,0,39,39,19,19
-78,-9,68,43,-73,29,39,0,39,39,19,19
-78,-9,68,43,-73,29,39,0,39,39,19,19
-78,-9,68,43,-73,29,39,0,39,39,19,19
-68,0,68,34,-68,34,48,9,43,39,29,19
-68,0,68,34,-68,34,48,9,48,39,29,19
-68,0,68,34,-68,34,48,9,53,39,29,19
-68,0,68,34,-68,34,48,9,58,39,29,19
-78,-4,73,41,-75,34,39,9,58,39,19,19
-78,-9,68,43,-73,29,39,9,58,39,19,19
-78,-14,63,46,-70,24,39,9,58,39,19,19
-78,-19,58,48,-68,19,39,9,58,39,19,19
-68,-14,53,41,-61,19,48,9,68,39,29,19
-68,-9,58,39,-63,24,48,9,68,39,29,19
-68,-4,63,36,-65,29,48,9,68,39,29,19
-68,0,68,34,-68,34,48,9,68,39,29,19
-68,0,68,34,-68,34,39,9,63,39,19,19
-68,0,68,34,-68,34,39,9,58,39,19,19
-68,0,68,34,-68,34,39,9,53,39,19,19
-68,0,68,34,-68,34,39,9,48,39,19,19
-68,9,78,29,-73,43,39,9,58,39,19,19
-68,9,78,29,-73,43,39,9,58,39,19,19
-68,9,78,29,-73,43,39,9,58,39,19,19
-68,9,78,29,-73,43,39,9,58,39,19,19
-68,9,78,29,-73,43,39,9,58,39,19,19
-68,9,78,29,-73,43,39,9,58,39,19,19
-68,9,78,29,-73,43,39,9,58,39,19,19
-68,9,78,29,-73,43,39,9,58,39,19,19
-68,4,73,31,-70,39,48,9,68,39,19,19
-68,0,68,34,-68,34,48,9,68,39,19,19
-68,-4,63,36,-65,29,48,9,68,39,19,19
-68,-9,58,39,-63,24,48,9,68,39,19,19
-58,-9,48,34,-53,19,39,9,58,29,19,19
-58,-9,48,34,-53,19,39,9,58,29,19,19
-58,-9,48,34,-53,19,39,9,58,29,19,19
-58,-9,48,34,-53,19,39,9,58,29,19,19
-68,-4,63,36,-65,29,39,0,58,39,19,19
-68,0,68,34,-68,34,39,0,58,39,19,19
-68,4,73,31,-70,39,39,0,58,39,19,19
-68,9,78,29,-73,43,39,0,58,39,19,19
-78,9,87,34,-82,48,39,9,68,39,19,29
-78,9,87,34,-82,48,39,9,68,39,19,29
-78,9,87,34,-82,48,39,9,68,39,19,29
-78,9,87,34,-82,48,39,9,68,39,19,29
-68,0,68,34,-68,34,39,9,68,39,29,19
-68,0,68,34,-68,34,39,9,68,39,29,19
-68,0,68,34,-68,34,39,9,68,39,29,19
-68,0,68,34,-68,34,39,9,68,39,29,19
-63,9,73,26,-68,41,48,19,68,39,19,19
-58,9,68,24,-63,39,48,19,68,39,19,19
-53,9,63,21,-58,36,48,19,68,39,19,19
-48,9,58,19,-53,34,48,29,73,43,24,24
-58,0,58,29,-58,29,58,29,82,53,29,29
-58,0,58,29,-58,29,58,19,82,53,34,29
-58,0,58,29,-58,29,58,19,82,53,39,34
-58,0,58,29,-58,29,53,19,82,53,43,39
-48,4,53,21,-51,29,43,19,73,53,29,29
-48,19,68,14,-58,43,43,19,73,53,29,29
-48,24,73,12,-61,48,53,24,73,53,34,29
-48,29,78,9,-63,53,58,39,78,63,34,34
-58,39,97,9,-78,68,68,29,92,63,39,34
-58,39,97,9,-78,68,68,24,92,63,39,34
-58,43,102,7,-80,73,68,24,97,63,48,39
-58,43,102,7,-80,73,68,29,102,68,48,39
-58,43,102,7,-80,73,68,29,102,78,58,39
-53,63,117,-4,-85,90,63,24,102,82,58,48
-43,68,112,-12,-78,90,53,24,107,82,63,48
-39,73,112,-17,-75,92,48,24,112,87,63,58
-34,73,107,-19,-70,90,39,19,112,82,73,73
-29,82,112,-26,-70,97,29,14,112,82,78,78
-29,97,126,-34,-78,112,24,14,122,92,82,78
-24,112,136,-43,-80,124,19,14,122,92,82,82
-19,126,146,-53,-82,136,14,24,126,97,73,78
-19,141,161,-61,-90,151,14,24,131,102,82,82
-24,146,170,-61,-97,158,9,14,131,102,87,87
-29,146,175,-58,-102,161,4,9,131,102,87,87
-29,146,175,-58,-102,161,4,0,131,102,87,87
-24,141,165,-58,-95,153,0,0,126,97,82,82
-24,126,151,-51,-87,139,-4,0,122,92,82,78
-14,126,141,-56,-78,134,-4,-9,117,92,78,78
-14,131,146,-58,-80,139,-24,-14,102,87,78,78
-14,126,141,-56,-78,134,-29,-14,97,87,78,78
-4,126,131,-61,-68,129,-29,-19,97,87,73,73
0,126,126,-63,-63,126,-39,-24,92,78,63,73
9,122,112,-65,-51,117,-39,-34,92,68,53,63
9,112,102,-61,-46,107,-39,-29,87,73,63,63
9,107,97,-58,-43,102,-34,-29,87,73,63,63
9,102,92,-56,-41,97,-29,-29,87,68,58,63
-4,92,97,-43,-51,95,-19,-19,87,68,63,68
-19,68,87,-24,-53,78,-14,-14,82,63,58,58
-29,68,97,-19,-63,82,-4,-14,82,63,53,53
-39,53,92,-7,-65,73,0,-14,73,53,48,48
-53,39,92,7,-73,65,4,-24,68,48,34,34
-63,34,97,14,-80,65,9,-24,68,43,34,34
-68,29,97,19,-82,63,14,-29,63,34,24,24
-73,29,102,21,-87,65,14,-29,58,34,19,19
-82,24,107,29,-95,65,19,-29,63,39,19,19
-82,19,102,31,-92,61,19,-29,58,34,14,14
-82,9,92,36,-87,51,24,-29,58,29,9,4
-87,0,87,43,-87,43,24,-29,53,24,4,4
-78,0,78,39,-78,39,24,-34,43,14,-4,0
-78,0,78,39,-78,39,24,-34,43,9,-4,0
-78,-4,73,41,-75,34,24,-39,43,9,-4,-4
-78,-9,68,43,-73,29,24,-39,43,9,-4,-4
-78,-9,68,43,-73,29,24,-29,48,9,4,4
-78,-9,68,43,-73,29,24,-29,48,9,0,4
-82,-9,73,46,-78,31,24,-29,48,9,0,4
-82,-9,73,46,-78,31,24,-29,48,9,4,4
-82,-9,73,46,-78,31,14,-39,39,4,-4,-9
-82,-9,73,46,-78,31,19,-39,39,4,-4,-9
-82,-9,73,46,-78,31,19,-34,39,9,-4,-9
-87,-14,73,51,-80,29,19,-34,39,9,-4,-9
-78,-14,63,46,-70,24,29,-24,48,9,4,-4
-82,-14,68,48,-75,26,29,-24,48,9,4,-4
-82,-14,68,48,-75,26,29,-19,48,9,4,-4
-78,-14,63,46,-70,24,29,-19,48,9,4,-4
-87,-19,68,53,-78,24,29,-29,39,9,-4,-4
-87,-19,68,53,-78,24,34,-29,39,9,-4,-4
-87,-14,73,51,-80,29,34,-29,39,9,-4,-4
-87,-14,73,51,-80,29,29,-34,39,9,-9,-9
-87,-19,68,53,-78,24,29,-24,48,9,0,-9
-87,-19,68,53,-78,24,34,-19,48,14,0,-4
-87,-19,68,53,-78,24,34,-19,48,14,0,-4
-87,-19,68,53,-78,24,39,-19,53,14,0,0
-87,-19,68,53,-78,24,48,-4,63,24,4,9
-92,-19,73,56,-82,26,39,-14,58,14,-4,0
-87,-9,78,48,-82,34,53,4,68,19,-4,0
-97,-14,82,56,-90,34,82,48,68,29,9,4
-97,-4,92,51,-95,43,92,82,82,39,19,0
-97,29,126,34,-112,78,126,126,126,73,48,24
-97,68,165,14,-131,117,146,170,151,107,92,63
-73,97,170,-12,-122,134,131,200,185,146,126,102
-39,131,170,-46,-104,151,136,278,229,200,185,156
4,146,141,-75,-68,143,161,414,258,253,234,195
78,170,92,-124,-7,131,180,580,283,302,283,244
200,204,4,-202,97,104,165,702,297,341,346,297
346,244,-102,-295,224,70,117,775,302,385,414,351
502,312,-190,-407,346,61,78,868,331,434,488,429
639,366,-273,-502,456,46,39,946,361,497,580,512
751,385,-366,-568,558,9,-9,966,361,522,610,541
819,370,-448,-595,634,-39,-43,941,317,468,551,492
839,312,-527,-575,683,-107,-63,834,234,356,424,375
839,244,-595,-541,717,-175,-102,663,146,224,287,258
829,175,-653,-502,741,-239,-175,409,53,117,170,156
766,112,-653,-439,710,-270,-248,58,-24,9,58,58
585,107,-478,-346,531,-185,-273,-258,-34,-39,-14,0
385,122,-263,-253,324,-70,-248,-458,-9,-48,-48,-14
287,73,-214,-180,251,-70,-253,-619,-58,-112,-102,-68
258,-9,-268,-124,263,-139,-287,-746,-151,-204,-200,-146
214,-102,-317,-56,265,-209,-278,-829,-224,-292,-283,-209
146,-185,-331,19,239,-258,-234,-839,-278,-356,-341,-273
73,-214,-287,70,180,-251,-170,-795,-278,-366,-351,-278
24,-200,-224,87,124,-212,-117,-727,-268,-356,-331,-278
-9,-219,-209,114,100,-214,-117,-692,-283,-366,-341,-287
-39,-234,-195,136,78,-214,-117,-663,-273,-361,-336,-283
-78,-234,-156,156,39,-195,-122,-629,-263,-336,-317,-263
-112,-214,-102,163,-4,-158,-107,-556,-234,-302,-292,-239
-136,-165,-29,151,-53,-97,-92,-453,-165,-234,-234,-185
-146,-102,43,124,-95,-29,-73,-375,-112,-170,-180,-141
-146,-53,92,100,-119,19,-58,-292,-78,-131,-136,-107
-126,-19,107,73,-117,43,-39,-209,-34,-82,-97,-73
-112,0,112,56,-112,56,-14,-146,-4,-68,-68,-58
-102,0,102,51,-102,51,34,-92,19,-39,-48,-43
-102,0,102,51,-102,51,68,-48,53,-9,-14,-19
-102,0,102,51,-102,51,73,-24,63,0,-9,-14
-97,24,122,36,-109,73,87,-19,68,9,0,-4
-97,34,131,31,-114,82,97,0,73,14,0,4
-107,34,141,36,-124,87,87,4,78,9,0,-4
-107,29,136,39,-122,82,82,9,78,19,0,-4
-107,24,131,41,-119,78,78,9,78,19,0,-4
-102,19,122,41,-112,70,73,9,78,19,0,-4
-102,0,102,51,-102,51,92,24,82,29,9,0
-102,0,102,51,-102,51,92,29,82,29,14,4
-102,0,102,51,-102,51,97,39,87,29,14,4
-102,9,112,46,-107,61,97,39,92,34,14,4
-107,24,131,41,-119,78,82,34,82,29,9,0
-107,34,141,36,-124,87,82,39,87,34,19,4
-102,34,136,34,-119,85,82,39,87,34,19,4
-102,29,131,36,-117,80,82,39,87,34,19,4
-102,24,126,39,-114,75,82,39,87,43,19,14
-102,19,122,41,-112,70,87,39,87,39,14,9
-102,19,122,41,-112,70,87,43,87,39,14,9
-102,24,126,39,-114,75,87,48,92,43,19,9
-102,24,126,39,-114,75,87,48,92,34,24,14
-102,24,126,39,-114,75,87,48,97,39,24,14
-102,43,146,29,-124,95,82,48,97,39,24,14
-102,29,131,36,-117,80,82,48,92,39,24,14
-112,29,141,41,-126,85,97,58,97,48,34,24
-112,29,141,41,-126,85,97,58,97,48,34,19
-112,29,141,41,-126,85,97,58,102,48,29,19
-112,29,141,41,-126,85,97,58,107,48,29,19
-102,39,141,31,-122,90,87,48,97,43,19,9
-102,39,141,31,-122,90,87,53,102,43,19,9
-102,48,151,26,-126,100,87,53,102,43,24,19
-102,48,151,26,-126,100,87,53,102,43,24,19
-107,43,151,31,-129,97,97,53,92,39,24,19
-107,43,151,31,-129,97,102,53,92,39,24,19
-107,39,146,34,-126,92,102,53,92,39,24,19
-102,39,141,31,-122,90,102,53,92,39,24,19
-92,29,122,31,-107,75,92,53,92,39,24,19
-92,34,126,29,-109,80,92,53,92,39,24,19
-97,34,131,31,-114,82,92,53,92,39,24,19
-97,34,131,31,-114,82,92,53,92,39,24,14
-107,39,146,34,-126,92,92,53,92,39,24,14
-102,43,146,29,-124,95,92,53,92,39,24,14
-102,48,151,26,-126,100,92,53,92,39,24,14
-102,53,156,24,-129,104,92,58,92,43,29,14
-102,58,161,21,-131,109,92,48,92,43,29,14
-102,58,161,21,-131,109,92,43,92,43,24,14
-102,63,165,19,-134,114,92,43,92,43,24,14
-102,63,165,19,-134,114,92,43,92,43,24,14
-102,48,151,26,-126,100,92,53,92,43,24,14
-102,48,151,26,-126,100,92,53,92,43,24,19
-102,48,151,26,-126,100,92,53,92,43,24,19
-102,43,146,29,-124,95,92,53,92,43,24,19
-107,34,141,36,-124,87,92,53,92,43,19,14
-107,34,141,36,-124,87,92,53,92,43,19,14
-102,39,141,31,-122,90,92,53,92,43,19,14
-102,43,146,29,-124,95,92,53,92,43,24,14
-102,48,151,26,-126,100,92,53,92,43,34,24
-102,53,156,24,-129,104,92,53,92,48,34,24
-102,58,161,21,-131,109,92,53,92,48,34,24
-102,63,165,19,-134,114,92,53,92,48,34,24
-92,53,146,19,-119,100,82,43,92,39,24,14
-92,53,146,19,-119,100,82,48,87,39,24,14
-92,53,146,19,-119,100,82,48,82,39,24,14
-92,53,146,19,-119,100,82,48,78,43,29,19
-92,43,136,24,-114,90,92,58,87,53,39,19
-92,48,141,21,-117,95,92,58,87,53,39,19
-92,48,141,21,-117,95,92,58,87,53,39,19
-92,48,141,21,-117,95,82,58,87,48,39,19
-102,68,170,17,-136,119,82,53,87,39,29,19
-102,68,170,17,-136,119,82,53,87,39,29,19
-107,68,175,19,-141,122,82,53,87,39,29,24
-107,68,175,19,-141,122,82,53,87,48,29,24
-97,78,175,9,-136,126,68,48,87,39,29,24
-92,82,175,4,-134,129,68,43,87,39,29,24
-87,82,170,2,-129,126,68,39,87,39,34,24
-82,82,165,0,-124,124,68,34,87,39,34,29
-82,82,165,0,-124,124,68,39,92,43,43,39
-82,78,161,2,-122,119,73,43,102,48,43,39
-82,73,156,4,-119,114,68,48,107,53,43,39
-82,73,156,4,-119,114,73,53,112,58,43,39
-92,73,165,9,-129,119,73,43,102,58,39,29
-92,73,165,9,-129,119,73,43,102,58,39,29
-92,73,165,9,-129,119,78,43,107,58,43,34
-92,78,170,7,-131,124,78,43,107,58,53,39
-78,82,161,-2,-119,122,68,29,107,53,43,39
-78,87,165,-4,-122,126,68,29,112,53,43,39
-78,92,170,-7,-124,131,63,29,112,53,43,39
-78,107,185,-14,-131,146,58,24,112,53,43,39
-73,107,180,-17,-126,143,58,34,102,58,53,43
-73,102,175,-14,-124,139,58,29,102,58,53,43
-73,97,170,-12,-122,134,58,29,102,58,53,43
-68,97,165,-14,-117,131,53,29,102,58,53,48
-78,107,185,-14,-131,146,48,24,102,48,43,48
-78,107,185,-14,-131,146,43,14,102,48,48,48
-78,107,185,-14,-131,146,43,14,102,48,48,48
-78,117,195,-19,-136,156,39,14,102,48,48,48
-73,112,185,-19,-129,148,34,9,112,48,48,48
-73,112,185,-19,-129,148,34,4,112,48,48,48
-73,112,185,-19,-129,148,34,0,107,48,48,48
-58,112,170,-26,-114,141,34,-4,107,48,48,48
-68,126,195,-29,-131,161,29,-9,107,58,58,58
-68,126,195,-29,-131,161,24,-14,107,58,58,58
-58,126,185,-34,-122,156,24,-14,107,58,58,63
-58,126,185,-34,-122,156,14,-24,102,58,58,63
-48,136,185,-43,-117,161,4,-39,92,53,53,53
-48,136,185,-43,-117,161,0,-39,92,48,48,53
-43,136,180,-46,-112,158,0,-48,92,39,43,48
-43,141,185,-48,-114,163,-4,-53,92,34,39,48
-43,151,195,-53,-119,173,0,-58,82,39,29,43
-43,151,195,-53,-119,173,-4,-68,78,34,24,43
-39,161,200,-61,-119,180,-4,-73,78,34,24,39
-34,161,195,-63,-114,178,-9,-78,68,29,14,39
-43,146,190,-51,-117,168,-9,-87,68,29,24,39
-43,136,180,-46,-112,158,-14,-87,68,29,24,39
-34,126,161,-46,-97,143,-29,-102,63,19,24,39
-34,122,156,-43,-95,139,-29,-107,58,19,24,39
-24,126,151,-51,-87,139,-29,-97,68,29,34,48
-24,131,156,-53,-90,143,-29,-107,63,29,34,48
-19,136,156,-58,-87,146,-34,-117,58,29,29,48
-19,141,161,-61,-90,151,-39,-126,58,19,29,48
-19,136,156,-58,-87,146,-43,-126,48,9,24,48
-14,136,151,-61,-82,143,-43,-136,48,9,24,48
-14,136,151,-61,-82,143,-48,-141,43,9,24,43
-14,136,151,-61,-82,143,-53,-156,39,0,19,39
-4,146,151,-70,-78,148,-58,-156,34,0,9,39
-4,146,151,-70,-78,148,-58,-161,29,0,9,43
-4,146,151,-70,-78,148,-58,-170,29,0,9,43
0,146,146,-73,-73,146,-58,-170,29,0,9,43
4,151,146,-78,-70,148,-73,-180,14,-19,4,29
4,151,146,-78,-70,148,-73,-185,14,-19,4,29
4,146,141,-75,-68,143,-73,-185,9,-19,4,29
9,146,136,-78,-63,141,-73,-190,4,-19,0,29
4,146,141,-75,-68,143,-78,-195,14,-14,9,34
9,146,136,-78,-63,141,-78,-195,14,-14,9,39
9,146,136,-78,-63,141,-78,-195,14,-14,9,43
9,151,141,-80,-65,146,-78,-190,14,-9,14,48
24,151,126,-87,-51,139,-78,-185,14,-9,14,48
29,146,117,-87,-43,131,-78,-185,14,-9,14,48
29,146,117,-87,-43,131,-73,-175,14,-9,19,48
29,141,112,-85,-41,126,-73,-165,14,-9,19,53
29,151,122,-90,-46,136,-73,-151,24,0,29,53
34,151,117,-92,-41,134,-68,-141,34,4,29,58
34,151,117,-92,-41,134,-68,-131,34,4,29,58
39,146,107,-92,-34,126,-63,-117,34,14,29,58
39,156,117,-97,-39,136,-63,-117,29,4,24,58
39,151,112,-95,-36,131,-63,-107,29,4,24,58
39,151,112,-95,-36,131,-53,-87,39,9,34,63
39,151,112,-95,-36,131,-48,-78,39,14,34,63
29,151,122,-90,-46,136,-34,-58,48,24,48,63
29,151,122,-90,-46,136,-34,-48,53,29,48,63
24,151,126,-87,-51,139,-29,-39,58,29,53,63
24,151,126,-87,-51,139,-24,-29,63,39,53,68
24,141,117,-82,-46,129,-9,-9,68,43,63,68
24,131,107,-78,-41,119,-4,0,68,48,63,68
24,131,107,-78,-41,119,0,4,78,48,63,68
19,131,112,-75,-46,122,4,14,78,48,63,68
19,131,112,-75,-46,122,9,14,87,58,63,73
14,131,117,-73,-51,124,14,29,87,58,63,73
9,126,117,-68,-53,122,19,29,92,63,63,73
4,122,117,-63,-56,119,19,29,92,63,63,73
0,117,117,-58,-58,117,34,34,82,58,63,68
-4,112,117,-53,-61,114,34,34,82,58,58,63
-4,112,117,-53,-61,114,34,39,82,58,58,53
-9,112,122,-51,-65,117,39,39,87,58,63,48
-24,107,131,-41,-78,119,39,48,97,58,63,48
-24,102,126,-39,-75,114,43,48,97,58,63,48
-24,97,122,-36,-73,109,43,48,97,58,63,48
-29,82,112,-26,-70,97,43,48,97,58,58,43
-39,92,131,-26,-85,112,48,39,97,58,53,43
-39,92,131,-26,-85,112,48,34,92,58,53,39
-39,92,131,-26,-85,112,48,34,92,58,53,39
-43,92,136,-24,-90,114,48,34,92,58,53,39
-39,102,141,-31,-90,122,48,34,82,53,48,24
-34,102,136,-34,-85,119,48,34,82,48,43,24
-29,97,126,-34,-78,112,48,34,82,43,39,24
-24,102,126,-39,-75,114,48,34,82,34,24,19
-34,102,136,-34,-85,119,39,34,82,34,34,29
-34,102,136,-34,-85,119,43,34,82,34,34,29
-39,97,136,-29,-87,117,43,34,82,34,34,29
-39,97,136,-29,-87,117,43,34,82,34,34,34
-48,87,136,-19,-92,112,53,34,92,43,43,34
-48,87,136,-19,-92,112,48,34,87,39,39,29
-48,97,146,-24,-97,122,48,34,87,39,39,29
-48,97,146,-24,-97,122,48,34,87,39,43,29
-39,97,136,-29,-87,117,48,34,82,29,34,19
-39,92,131,-26,-85,112,53,34,78,29,34,19
-39,92,131,-26,-85,112,53,34,73,29,34,14
-39,87,126,-24,-82,107,53,34,68,29,34,14
-39,87,126,-24,-82,107,48,39,82,43,34,29
-39,87,126,-24,-82,107,48,43,82,43,34,29
-39,87,126,-24,-82,107,48,43,82,43,34,29
-34,87,122,-26,-78,104,48,43,82,43,34,29
-43,87,131,-21,-87,109,53,39,82,39,43,24
-43,87,131,-21,-87,109,53,39,82,39,43,24
-43,87,131,-21,-87,109,53,43,82,43,43,29
-43,87,131,-21,-87,109,53,48,82,43,43,29
-53,87,141,-17,-97,114,53,48,82,43,39,29
-53,87,141,-17,-97,114,53,48,82,43,39,29
-53,87,141,-17,-97,114,58,58,82,43,39,29
-58,92,151,-17,-104,122,58,58,87,43,43,29
-48,87,136,-19,-92,112,63,58,87,43,43,39
-48,82,131,-17,-90,107,63,58,87,43,43,39
-48,78,126,-14,-87,102,68,58,87,48,43,39
-48,73,122,-12,-85,97,68,58,87,48,43,39
-43,78,122,-17,-82,100,63,48,87,48,34,29
-43,87,131,-21,-87,109,58,48,87,48,34,29
-43,92,136,-24,-90,114,53,53,87,43,34,29
-48,97,146,-24,-97,122,48,58,87,43,34,29
-48,107,156,-29,-102,131,48,58,87,48,43,29
-48,107,156,-29,-102,131,48,58,87,48,43,29
-48,112,161,-31,-104,136,53,63,87,48,48,39
-48,112,161,-31,-104,136,53,63,87,53,48,39
-48,97,146,-24,-97,122,58,63,87,43,39,29
-48,92,141,-21,-95,117,58,63,87,43,39,29
-48,87,136,-19,-92,112,53,63,82,39,34,24
-48,82,131,-17,-90,107,53,63,82,39,34,24
-58,102,161,-21,-109,131,63,73,92,53,48,34
-58,92,151,-17,-104,122,63,73,92,53,48,34
-63,92,156,-14,-109,124,63,68,92,53,48,39
-68,92,161,-12,-114,126,68,68,92,58,53,39
-58,82,141,-12,-100,112,63,58,82,53,43,29
-53,87,141,-17,-97,114,63,58,87,53,43,29
-53,87,141,-17,-97,114,58,58,87,53,43,29
-58,87,146,-14,-102,117,48,58,87,53,43,29
-58,92,151,-17,-104,122,48,68,87,53,43,29
-58,97,156,-19,-107,126,48,63,87,48,43,29
-58,102,161,-21,-109,131,48,63,87,48,43,29
-58,107,165,-24,-112,136,48,63,87,53,43,29
-63,97,161,-17,-112,129,58,63,87,48,43,29
-63,102,165,-19,-114,134,58,63,87,48,43,29
-63,102,165,-19,-114,134,58,63,87,48,43,29
-58,97,156,-19,-107,126,58,63,87,43,43,29
-58,97,156,-19,-107,126,58,63,97,53,53,29
-53,97,151,-21,-102,124,58,58,97,48,53,29
-53,97,151,-21,-102,124,58,58,97,48,53,29
-63,97,161,-17,-112,129,58,58,97,48,53,29
-63,102,165,-19,-114,134,48,58,92,39,48,19
-58,102,161,-21,-109,131,48,58,87,43,43,19
-58,102,161,-21,-109,131,48,58,82,43,39,19
-58,97,156,-19,-107,126,48,58,78,43,34,19
-48,97,146,-24,-97,122,48,48,87,53,43,29
-58,97,156,-19,-107,126,48,48,87,53,43,29
-58,97,156,-19,-107,126,48,48,87,48,39,24
-48,102,151,-26,-100,126,48,48,87,48,39,24
-53,87,141,-17,-97,114,58,48,87,58,53,29
-58,82,141,-12,-100,112,58,48,87,58,53,29
-63,78,141,-7,-102,109,58,48,87,58,53,34
-68,68,136,0,-102,102,58,48,87,58,48,34
-68,82,151,-7,-109,117,58,48,87,48,48,24
-68,87,156,-9,-112,122,58,48,87,48,48,24
-68,87,156,-9,-112,122,58,43,87,43,48,24
-68,87,156,-9,-112,122,58,39,87,43,43,24
-63,87,151,-12,-107,119,48,39,78,34,34,24
-63,87,151,-12,-107,119,48,34,73,29,34,14
-63,97,161,-17,-112,129,48,34,73,29,34,14
-63,97,161,-17,-112,129,48,34,73,29,34,14
-63,92,156,-14,-109,124,48,34,73,29,24,14
-63,92,156,-14,-109,124,48,39,78,34,29,19
-63,92,156,-14,-109,124,48,39,78,34,29,19
-63,92,156,-14,-109,124,48,29,78,34,29,19
-63,92,156,-14,-109,124,48,29,78,29,29,29
-63,87,151,-12,-107,119,48,24,73,29,24,24
-63,78,141,-7,-102,109,48,24,73,29,24,24
-63,73,136,-4,-100,104,48,24,73,29,24,24
-63,73,136,-4,-100,104,48,34,82,39,34,24
-68,73,141,-2,-104,107,48,34,82,39,29,24
-68,68,136,0,-102,102,48,34,82,39,29,24
-68,63,131,2,-100,97,48,29,82,39,29,24
-68,73,141,-2,-104,107,48,19,82,39,29,24
-68,73,141,-2,-104,107,48,19,82,39,29,24
-68,73,141,-2,-104,107,43,14,82,34,29,24
-68,78,146,-4,-107,112,43,14,82,34,29,24
-73,78,151,-2,-112,114,43,14,68,24,14,14
-73,78,151,-2,-112,114,43,14,68,24,14,14
-73,78,151,-2,-112,114,48,19,68,24,14,14
-82,73,156,4,-119,114,48,19,68,29,14,9
-73,68,141,2,-107,104,39,19,58,29,14,19
-73,68,141,2,-107,104,39,14,58,24,14,19
-73,68,141,2,-107,104,39,14,58,24,14,19
-73,78,151,-2,-112,114,39,14,63,24,14,19
-73,87,161,-7,-117,124,39,14,63,14,14,19
-73,82,156,-4,-114,119,34,9,58,14,14,19
-73,82,156,-4,-114,119,34,9,58,14,14,19
-73,78,151,-2,-112,114,29,9,58,14,14,19
-73,68,141,2,-107,104,39,4,58,14,14,14
-73,78,151,-2,-112,114,39,4,58,14,14,14
-73,78,151,-2,-112,114,39,4,58,14,14,14
-78,78,156,0,-117,117,39,4,58,14,9,14
-68,78,146,-4,-107,112,39,4,68,24,9,24
-63,73,136,-4,-100,104,39,4,68,24,9,24
-63,68,131,-2,-97,100,43,4,68,24,9,24
-63,63,126,0,-95,95,43,4,68,24,9,24
-73,68,141,2,-107,104,39,4,63,14,9,19
-73,68,141,2,-107,104,39,4,63,14,9,19
-78,68,146,4,-112,107,39,4,63,14,9,19
-78,68,146,4,-112,107,39,0,63,14,9,19
-78,63,141,7,-109,102,39,0,58,9,0,9
-78,63,141,7,-109,102,39,0,58,9,0,9
-78,58,136,9,-107,97,43,0,58,9,0,0
-78,58,136,9,-107,97,43,0,58,14,4,9
-68,58,126,4,-97,92,34,4,58,4,4,9
-68,58,126,4,-97,92,34,4,53,0,4,9
-68,58,126,4,-97,92,34,0,53,0,4,4
-68,58,126,4,-97,92,34,-4,53,0,-4,4
-73,48,122,12,-97,85,43,-4,58,9,4,4
-78,48,126,14,-102,87,43,-4,58,9,4,4
-82,48,131,17,-107,90,43,-4,48,9,4,-4
-92,48,141,21,-117,95,43,-4,48,14,4,4
-82,53,136,14,-109,95,43,0,48,14,9,4
-82,53,136,14,-109,95,43,0,48,14,9,0
-82,58,141,12,-112,100,43,0,53,14,9,0
-82,58,141,12,-112,100,43,0,53,9,9,0
-82,63,146,9,-114,104,43,-9,48,0,0,-9
-78,58,136,9,-107,97,43,-9,48,0,0,-4
-78,58,136,9,-107,97,43,-14,48,0,0,-4
-78,58,136,9,-107,97,43,-14,48,0,0,-4
-82,73,156,4,-119,114,43,-4,48,9,0,-4
-82,73,156,4,-119,114,43,-4,48,9,0,-4
-82,73,156,4,-119,114,43,-4,43,9,0,-9
-82,73,156,4,-119,114,43,-4,43,9,-4,-9
-82,73,156,4,-119,114,34,-14,43,4,-4,-9
-82,73,156,4,-119,114,34,-14,43,4,0,0
-82,68,151,7,-117,109,34,-14,43,4,0,0
-82,63,146,9,-114,104,34,-14,43,4,0,0
-73,73,146,0,-109,109,34,-4,53,14,9,0
-73,73,146,0,-109,109,34,-9,53,14,9,0
-73,68,141,2,-107,104,34,-9,53,14,9,0
-73,68,141,2,-107,104,34,-9,53,14,9,0
-73,63,136,4,-104,100,34,-9,48,4,0,-9
-73,58,131,7,-102,95,34,-4,43,4,0,-9
-73,53,126,9,-100,90,34,-4,39,4,0,-9
-73,53,126,9,-100,90,34,-9,34,0,0,-9
-73,58,131,7,-102,95,43,0,43,0,0,-9
-73,58,131,7,-102,95,43,-4,43,0,0,-9
-73,58,131,7,-102,95,39,-4,43,0,0,-9
-68,58,126,4,-97,92,39,-4,43,4,0,-9
-68,68,136,0,-102,102,29,-14,34,4,-9,-19
-68,68,136,0,-102,102,24,-14,34,4,-9,-19
-68,68,136,0,-102,102,24,-14,34,4,-9,-19
-68,63,131,2,-100,97,24,-14,34,0,-9,-19
-73,63,136,4,-104,100,24,-14,43,0,0,-14
-73,63,136,4,-104,100,29,-14,43,4,0,-9
-73,58,131,7,-102,95,29,-14,43,4,0,-4
-73,58,131,7,-102,95,29,-14,43,4,0,0
-73,58,131,7,-102,95,29,-14,34,4,0,-9
-68,58,126,4,-97,92,29,-14,34,4,0,-9
-68,58,126,4,-97,92,29,-14,34,4,0,-9
-68,58,126,4,-97,92,29,-14,34,4,0,-9
-78,48,126,14,-102,87,29,-14,34,0,4,-14
-68,68,136,0,-102,102,39,0,48,9,9,0
-68,58,126,4,-97,92,29,-9,43,0,4,-9
-68,58,126,4,-97,92,29,-9,39,0,0,-9
-68,58,126,4,-97,92,29,-9,34,0,-4,-9
-68,58,126,4,-97,92,29,-9,29,0,-9,-9
-78,58,136,9,-107,97,19,-19,29,0,-9,-9
-78,58,136,9,-107,97,19,-19,29,0,-9,-9
-78,58,136,9,-107,97,19,-19,29,0,-9,-9
-78,58,136,9,-107,97,19,-19,29,0,-9,-9
-78,48,126,14,-102,87,24,-9,39,9,-4,0
-78,48,126,14,-102,87,29,-9,39,9,0,0
-78,48,126,14,-102,87,34,-9,39,9,4,0
-78,48,126,14,-102,87,39,-9,39,9,9,0
-68,58,126,4,-97,92,29,-9,29,9,9,-9
-68,58,126,4,-97,92,29,-9,29,9,9,-9
-68,58,126,4,-97,92,29,-9,29,9,9,-9
-68,58,126,4,-97,92,29,-9,29,9,9,-9
-68,68,136,0,-102,102,29,-9,39,9,0,0
-68,68,136,0,-102,102,29,-9,39,9,0,0
-68,68,136,0,-102,102,29,-9,39,9,0,0
-68,68,136,0,-102,102,29,-9,39,9,0,0
-78,68,146,4,-112,107,29,0,29,9,9,0
-78,68,146,4,-112,107,29,0,29,9,9,0
-78,68,146,4,-112,107,29,0,29,9,9,0
-78,68,146,4,-112,107,29,0,29,9,9,0
-68,78,146,-4,-107,112,34,9,43,24,14,14
-68,78,146,-4,-107,112,39,9,43,24,14,14
-68,78,146,-4,-107,112,43,0,43,24,14,9
-68,78,146,-4,-107,112,48,0,43,24,14,9
-68,68,136,0,-102,102,34,0,34,14,24,0
-68,68,136,0,-102,102,34,0,34,14,19,0
-68,78,146,-4,-107,112,34,0,34,14,19,0
-68,78,146,-4,-107,112,43,4,34,14,24,0
-68,87,156,-9,-112,122,58,19,48,34,24,14
-68,87,156,-9,-112,122,68,19,53,34,29,14
-68,87,156,-9,-112,122,68,14,53,34,29,14
-68,92,161,-12,-114,126,68,14,58,34,39,19
-68,102,170,-17,-119,136,58,9,58,29,29,19
-68,102,170,-17,-119,136,58,9,53,29,29,19
-63,122,185,-29,-124,153,53,4,48,34,29,29
-53,126,180,-36,-117,153,43,4,48,34,34,29
-48,131,180,-41,-114,156,39,14,58,48,43,39
-43,141,185,-48,-114,163,29,9,63,53,53,43
-39,151,190,-56,-114,170,19,4,68,53,58,48
-39,165,204,-63,-122,185,14,4,82,63,63,48
-34,180,214,-73,-124,197,0,-4,73,63,53,53
-29,185,214,-78,-122,200,-4,-4,78,68,53,58
-29,200,229,-85,-129,214,-4,-4,82,73,63,63
-34,204,239,-85,-136,222,-9,-14,82,73,68,68
-39,204,244,-82,-141,224,-4,-9,82,73,68,68
-39,204,244,-82,-141,224,-4,-9,82,73,68,68
-34,200,234,-82,-134,217,-9,-9,78,68,63,63
-34,185,219,-75,-126,202,-14,-9,73,63,63,58
-24,180,204,-78,-114,192,-24,-29,68,53,58,58
-24,170,195,-73,-109,183,-34,-34,63,48,58,58
-24,161,185,-68,-104,173,-39,-34,58,48,58,58
-14,156,170,-70,-92,163,-39,-39,58,48,53,53
-9,156,165,-73,-87,161,-39,-34,53,39,43,53
-9,156,165,-73,-87,161,-39,-34,53,39,43,53
-9,151,161,-70,-85,156,-39,-29,48,43,53,53
-9,151,161,-70,-85,156,-34,-29,48,43,53,53
-9,151,161,-70,-85,156,-29,-29,39,29,48,63
-14,141,156,-63,-85,148,-29,-29,39,29,43,58
-29,117,146,-43,-87,131,-24,-24,34,24,39,48
-39,117,156,-39,-97,136,-14,-24,34,24,34,43
-48,112,161,-31,-104,136,-9,-24,24,24,19,29
-63,87,151,-12,-107,119,-4,-24,19,19,14,24
-73,82,156,-4,-114,119,0,-24,19,14,14,24
-78,78,156,0,-117,117,4,-29,14,4,4,14
-78,63,141,7,-109,102,4,-29,9,4,0,9
-73,43,117,14,-95,80,9,-29,4,0,0,9
-68,34,102,17,-85,68,9,-29,0,-4,-4,4
-63,19,82,21,-73,51,14,-29,0,-9,-9,-4
-78,19,97,29,-87,58,4,-29,-14,-24,-14,-4
-78,29,107,24,-92,68,4,-34,-14,-24,-24,-9
-78,39,117,19,-97,78,4,-34,-14,-29,-24,-9
-78,43,122,17,-100,82,4,-39,-14,-29,-24,-14
-78,29,107,24,-92,68,4,-39,-14,-29,-24,-14
-78,29,107,24,-92,68,4,-39,-19,-29,-24,-14
-78,29,107,24,-92,68,4,-39,-19,-29,-29,-14
-82,29,112,26,-97,70,4,-39,-19,-29,-29,-14
-82,29,112,26,-97,70,9,-29,-9,-19,-24,-14
-82,29,112,26,-97,70,14,-29,-9,-24,-24,-19
-82,29,112,26,-97,70,24,-29,-9,-24,-24,-19
-82,29,112,26,-97,70,29,-24,-9,-19,-24,-19
-87,14,102,36,-95,58,24,-34,-19,-29,-24,-19
-87,14,102,36,-95,58,19,-34,-19,-29,-24,-14
-92,14,107,39,-100,61,14,-34,-19,-29,-24,-14
-92,14,107,39,-100,61,9,-29,-19,-29,-24,-14
-78,14,92,31,-85,53,19,-29,-9,-29,-24,-14
-78,9,87,34,-82,48,19,-29,-9,-29,-24,-14
-78,9,87,34,-82,48,24,-29,-9,-29,-24,-14
-78,14,92,31,-85,53,24,-29,-9,-29,-24,-14
-78,14,92,31,-85,53,9,-34,-19,-29,-29,-19
-78,19,97,29,-87,58,9,-34,-19,-29,-29,-19
-78,19,97,29,-87,58,14,-29,-19,-24,-29,-14
-78,19,97,29,-87,58,14,-29,-19,-24,-29,-14
-78,9,87,34,-82,48,19,-19,-14,-24,-19,-9
-78,19,97,29,-87,58,19,-24,-14,-24,-14,-19
-82,19,102,31,-92,61,29,-14,-9,-24,-14,-19
-87,19,107,34,-97,63,53,14,19,0,4,0
-87,24,112,31,-100,68,73,48,19,9,0,-4
-87,34,122,26,-104,78,92,73,34,19,9,0
-97,39,136,29,-117,87,107,126,78,53,39,34
-97,58,156,19,-126,107,117,161,102,87,73,63
-53,107,161,-26,-107,134,112,209,126,126,126,112
-19,141,161,-61,-90,151,117,287,161,180,185,156
24,146,122,-85,-48,134,141,424,190,224,234,195
107,180,73,-143,17,126,161,590,214,273,283,234
219,224,4,-222,107,114,136,692,239,322,356,297
346,263,-82,-305,214,90,97,775,263,375,434,370
473,302,-170,-387,322,65,68,868,302,453,536,468
610,356,-253,-483,431,51,19,936,331,517,619,561
722,385,-336,-553,529,24,-29,946,312,522,639,570
771,351,-419,-561,595,-34,-43,932,258,448,561,502
771,283,-488,-527,629,-102,-63,814,156,317,405,366
761,224,-536,-492,649,-156,-102,634,68,185,258,239
771,175,-595,-473,683,-209,-175,370,-14,68,141,136
688,122,-566,-405,627,-222,-248,29,-92,-29,29,39
488,117,-370,-302,429,-126,-253,-278,-82,-68,-34,-9
307,102,-204,-204,256,-51,-239,-478,-68,-78,-68,-34
248,34,-214,-141,231,-90,-253,-619,-136,-151,-141,-87
239,-39,-278,-100,258,-158,-287,-727,-219,-253,-229,-165
195,-131,-326,-31,261,-229,-287,-810,-312,-351,-322,-258
126,-185,-312,29,219,-248,-244,-819,-366,-414,-380,-312
53,-185,-239,65,146,-212,-161,-736,-346,-405,-370,-297
4,-209,-214,102,109,-212,-117,-668,-336,-385,-361,-278
-19,-239,-219,129,100,-229,-126,-663,-351,-405,-370,-287
-48,-244,-195,146,73,-219,-136,-644,-351,-390,-366,-292
-87,-263,-175,175,43,-219,-131,-590,-331,-366,-336,-273
-112,-224,-112,168,0,-168,-117,-517,-283,-322,-302,-239
-126,-156,-29,141,-48,-92,-102,-434,-234,-273,-244,-195
-126,-102,24,114,-75,-39,-92,-356,-200,-219,-200,-161
-97,-43,53,70,-75,4,-68,-263,-146,-170,-156,-126
-87,-19,68,53,-78,24,-39,-180,-102,-122,-107,-92
-102,-29,73,65,-87,21,-4,-126,-82,-97,-97,-78
-92,-19,73,56,-82,26,34,-73,-48,-68,-78,-53
-82,-19,63,51,-73,21,48,-58,-24,-58,-63,-39
-92,-29,63,61,-78,17,53,-34,-14,-39,-48,-24
-97,-14,82,56,-90,34,78,0,0,-19,-19,-14
-97,-14,82,56,-90,34,68,9,-4,-24,-19,-24
-97,0,97,48,-97,48,53,14,9,-19,-19,-14
-97,0,97,48,-97,48,53,19,9,-9,-19,-14
-97,0,97,48,-97,48,53,19,9,-9,-19,-14
-92,0,92,46,-92,46,53,19,9,-9,-19,-14
-92,-19,73,56,-82,26,73,24,4,-9,-19,-9
-92,-19,73,56,-82,26,73,29,4,-9,-14,-4
-92,-19,73,56,-82,26,78,39,9,-9,-14,-4
-92,-9,82,51,-87,36,78,39,14,-4,-14,-4
-87,4,92,41,-90,48,63,34,14,0,-9,0
-87,14,102,36,-95,58,63,39,19,4,0,4
-82,14,97,34,-90,56,63,39,19,4,0,4
-82,9,92,36,-87,51,63,39,19,4,0,4
-92,-4,87,48,-90,41,73,39,19,4,9,4
-92,-9,82,51,-87,36,78,39,19,0,4,0
-92,-9,82,51,-87,36,78,43,19,0,4,0
-92,-4,87,48,-90,41,78,48,24,4,9,0
-87,4,92,41,-90,48,68,48,14,4,4,4
-82,4,87,39,-85,46,68,48,19,9,4,4
-78,24,102,26,-90,63,63,48,19,9,4,4
-73,9,82,31,-78,46,63,48,14,9,4,4
-82,9,92,36,-87,51,68,48,24,0,4,4
-82,9,92,36,-87,51,68,48,19,0,4,0
-82,9,92,36,-87,51,68,48,19,0,0,0
-82,9,92,36,-87,51,68,48,19,0,0,0
-92,9,102,41,-97,56,68,48,19,0,0,0
-92,9,102,41,-97,56,68,53,24,4,0,0
-92,19,112,36,-102,65,68,53,24,9,4,9
-92,19,112,36,-102,65,68,53,24,14,4,9
-92,4,97,43,-95,51,68,53,14,9,4,9
-87,4,92,41,-90,48,73,53,14,9,4,9
-82,0,82,41,-82,41,73,53,14,9,4,9
-73,0,73,36,-73,36,73,53,14,9,4,9
-78,0,78,39,-78,39,82,63,24,19,14,9
-82,4,87,39,-85,46,82,63,24,19,14,9
-92,4,97,43,-95,51,82,63,24,19,14,9
-97,4,102,46,-100,53,82,63,24,19,14,4
-87,-4,82,46,-85,39,73,53,14,19,4,4
-82,-4,78,43,-80,36,73,53,14,19,4,4
-82,-4,78,43,-80,36,73,53,14,19,4,4
-82,-4,78,43,-80,36,73,58,14,24,9,4
-82,4,87,39,-85,46,73,58,14,14,9,4
-82,9,92,36,-87,51,73,53,14,14,4,4
-82,19,102,31,-92,61,73,53,14,14,4,4
-82,24,107,29,-95,65,73,53,14,14,4,4
-82,14,97,34,-90,56,73,53,14,14,14,14
-82,9,92,36,-87,51,73,53,14,14,14,19
-82,4,87,39,-85,46,73,53,14,14,14,19
-82,-4,78,43,-80,36,73,53,14,14,14,19
-87,4,92,41,-90,48,73,63,14,14,19,14
-87,4,92,41,-90,48,73,63,14,14,19,14
-82,9,92,36,-87,51,73,63,14,14,19,14
-82,14,97,34,-90,56,73,63,14,14,24,14
-82,4,87,39,-85,46,63,53,14,14,24,24
-82,4,87,39,-85,46,63,53,14,19,24,24
-82,4,87,39,-85,46,63,53,14,19,24,24
-82,4,87,39,-85,46,63,53,14,19,24,24
-92,4,97,43,-95,51,63,53,9,19,24,14
-92,4,97,43,-95,51,63,58,9,19,24,14
-92,4,97,43,-95,51,63,58,9,19,24,14
-92,4,97,43,-95,51,63,58,9,24,29,19
-92,14,107,39,-100,61,63,48,9,24,29,19
-92,19,112,36,-102,65,63,48,9,24,29,19
-92,19,112,36,-102,65,63,48,9,24,29,19
-92,19,112,36,-102,65,53,48,9,19,29,19
-82,19,102,31,-92,61,53,53,19,19,29,19
-82,19,102,31,-92,61,53,53,19,19,29,19
-87,19,107,34,-97,63,53,53,19,19,29,24
-87,19,107,34,-97,63,53,53,19,29,29,24
-82,29,112,26,-97,70,58,43,9,29,29,24
-82,34,117,24,-100,75,58,43,9,29,29,24
-82,34,117,24,-100,75,58,43,9,29,34,24
-82,34,117,24,-100,75,58,43,9,29,34,29
-73,39,112,17,-92,75,43,43,9,19,24,19
-73,39,112,17,-92,75,43,43,14,19,24,19
-73,39,112,17,-92,75,34,43,14,19,24,19
-73,43,117,14,-95,80,34,43,14,19,24,19
-73,43,117,14,-95,80,34,43,14,39,39,29
-73,43,117,14,-95,80,34,43,14,39,39,29
-73,43,117,14,-95,80,39,43,19,39,43,34
-73,48,122,12,-97,85,39,43,19,39,53,39
-68,39,107,14,-87,73,39,48,19,34,43,39
-68,39,107,14,-87,73,39,48,24,34,43,39
-68,39,107,14,-87,73,34,48,24,34,43,39
-68,48,117,9,-92,82,29,43,24,34,43,39
-63,63,126,0,-95,95,29,34,24,39,43,43
-63,63,126,0,-95,95,29,29,24,39,43,43
-63,63,126,0,-95,95,29,29,24,39,43,43
-58,68,126,-4,-92,97,24,29,24,39,43,48
-68,63,131,2,-100,97,19,24,24,39,43,48
-68,58,126,4,-97,92,14,14,24,39,48,48
-68,53,122,7,-95,87,14,14,24,39,48,48
-68,58,126,4,-97,92,9,14,24,39,48,48
-53,73,126,-9,-90,100,4,9,24,39,48,48
-53,73,126,-9,-90,100,4,4,24,39,48,48
-53,73,126,-9,-90,100,4,0,19,39,48,48
-39,73,112,-17,-75,92,4,-4,19,39,48,48
-58,78,136,-9,-97,107,0,-9,9,29,39,48
-58,78,136,-9,-97,107,-4,-14,9,29,39,48
-48,78,126,-14,-87,102,-4,-14,9,29,39,53
-48,78,126,-14,-87,102,-14,-24,4,29,39,53
-48,78,126,-14,-87,102,-14,-29,14,39,48,63
-48,78,126,-14,-87,102,-19,-29,14,39,48,63
-43,78,122,-17,-82,100,-19,-39,14,34,48,58
-43,82,126,-19,-85,104,-24,-43,14,34,48,58
-43,92,136,-24,-90,114,-39,-48,4,19,39,53
-43,92,136,-24,-90,114,-43,-58,0,14,34,53
-39,102,141,-31,-90,122,-43,-63,0,14,34,48
-34,102,136,-34,-85,119,-48,-68,-9,9,24,48
-34,107,141,-36,-87,124,-48,-87,-9,9,24,39
-34,107,141,-36,-87,124,-53,-87,-9,9,24,39
-24,107,131,-41,-78,119,-68,-102,-14,0,24,39
-24,112,136,-43,-80,124,-68,-107,-19,0,24,39
-24,97,122,-36,-73,109,-58,-97,-19,0,34,48
-24,92,117,-34,-70,104,-58,-107,-24,0,34,48
-19,87,107,-34,-63,97,-63,-117,-29,0,29,48
-19,82,102,-31,-61,92,-68,-126,-29,-9,29,48
-9,82,92,-36,-51,87,-82,-126,-39,-19,14,39
-4,87,92,-41,-48,90,-82,-136,-39,-19,14,39
-4,92,97,-43,-51,95,-87,-141,-43,-19,14,34
-4,97,102,-46,-53,100,-92,-156,-48,-29,9,29
-14,102,117,-43,-65,109,-87,-156,-43,-19,19,29
-14,97,112,-41,-63,104,-87,-161,-48,-19,19,34
-14,92,107,-39,-61,100,-87,-170,-48,-19,19,34
-9,87,97,-39,-53,92,-87,-170,-48,-19,19,34
4,92,87,-48,-41,90,-102,-180,-53,-29,4,29
4,92,87,-48,-41,90,-102,-185,-53,-29,4,29
4,87,82,-46,-39,85,-102,-185,-58,-29,4,29
9,87,78,-48,-34,82,-102,-190,-63,-29,0,29
4,97,92,-51,-43,95,-107,-195,-63,-34,9,29
9,97,87,-53,-39,92,-107,-195,-63,-34,9,29
9,97,87,-53,-39,92,-107,-195,-63,-34,9,29
9,102,92,-56,-41,97,-107,-190,-63,-29,14,29
24,102,78,-63,-26,90,-107,-185,-73,-39,4,29
29,97,68,-63,-19,82,-107,-185,-73,-39,4,29
29,97,68,-63,-19,82,-102,-175,-73,-39,9,29
29,92,63,-61,-17,78,-102,-165,-73,-39,9,34
19,82,63,-51,-21,73,-92,-161,-73,-39,19,34
24,82,58,-53,-17,70,-87,-151,-63,-34,19,39
24,82,58,-53,-17,70,-87,-141,-63,-34,19,39
29,78,48,-53,-9,63,-82,-126,-63,-24,19,39
39,82,43,-61,-2,63,-78,-117,-58,-24,14,39
39,82,43,-61,-2,63,-82,-107,-58,-24,14,39
39,87,48,-63,-4,68,-78,-87,-48,-19,24,43
39,92,53,-65,-7,73,-78,-78,-48,-14,24,43
39,92,53,-65,-7,73,-63,-68,-39,-4,39,43
39,92,53,-65,-7,73,-63,-58,-34,0,39,43
34,92,58,-63,-12,75,-58,-48,-29,0,43,43
34,92,58,-63,-12,75,-53,-39,-24,9,43,48
24,82,58,-53,-17,70,-48,-19,-29,14,43,48
24,73,48,-48,-12,61,-43,-9,-29,19,43,48
24,73,48,-48,-12,61,-39,-4,-19,19,43,48
19,73,53,-46,-17,63,-34,4,-19,19,43,48
29,63,34,-46,-2,48,-19,14,-9,9,43,43
24,63,39,-43,-7,51,-14,29,-9,9,43,43
19,58,39,-39,-9,48,-9,29,-4,14,43,43
14,53,39,-34,-12,46,-9,29,-4,14,43,43
9,48,39,-29,-14,43,-14,34,-14,19,43,43
4,43,39,-24,-17,41,-14,34,-14,19,39,43
4,43,39,-24,-17,41,-14,39,-14,19,39,39
0,43,43,-21,-21,43,-9,39,-9,19,43,39
-4,34,39,-14,-21,36,-9,39,0,19,34,29
-4,34,39,-14,-21,36,-4,39,0,19,34,29
-4,34,39,-14,-21,36,-4,39,0,19,34,29
-9,24,34,-7,-21,29,-4,39,0,19,29,24
-19,34,53,-7,-36,43,0,39,0,19,34,24
-19,34,53,-7,-36,43,0,34,-4,19,34,19
-19,34,53,-7,-36,43,0,34,-4,19,34,19
-24,34,58,-4,-41,46,0,34,-4,19,34,19
-34,29,63,2,-48,46,9,34,-4,9,34,14
-34,24,58,4,-46,41,9,34,-4,9,34,14
-34,14,48,9,-41,31,9,34,-4,9,34,14
-34,14,48,9,-41,31,9,34,-4,4,24,9
-24,14,39,4,-31,26,0,24,-14,4,14,9
-24,14,39,4,-31,26,4,24,-14,4,14,9
-29,9,39,9,-34,24,4,24,-14,4,14,9
-29,9,39,9,-34,24,4,24,-14,4,14,14
-29,9,39,9,-34,24,14,29,-9,14,24,24
-29,9,39,9,-34,24,9,34,-9,9,19,19
-29,19,48,4,-39,34,9,39,-4,9,19,19
-29,19,48,4,-39,34,9,43,0,9,24,19
-29,19,48,4,-39,34,0,34,-4,0,14,9
-29,14,43,7,-36,29,4,34,-9,0,14,9
-29,14,43,7,-36,29,4,34,-14,0,14,4
-29,9,39,9,-34,24,4,34,-19,0,14,4
-39,9,48,14,-43,29,9,39,-4,14,24,9
-39,9,48,14,-43,29,9,43,-4,14,24,9
-39,9,48,14,-43,29,9,43,-4,14,24,9
-34,9,43,12,-39,26,9,43,-4,14,24,9
-24,9,34,7,-29,21,4,29,-14,0,14,-4
-24,9,34,7,-29,21,4,29,-14,0,14,-4
-24,9,34,7,-29,21,4,34,-14,4,14,0
-24,9,34,7,-29,21,4,39,-14,4,14,0
-24,9,34,7,-29,21,4,48,-4,14,29,9
-24,9,34,7,-29,21,4,48,-4,14,29,9
-24,9,34,7,-29,21,9,58,-4,14,29,9
-29,14,43,7,-36,29,9,58,0,14,34,9
-29,4,34,12,-31,19,4,58,-9,4,34,9
-29,4,34,12,-31,19,4,58,-9,4,34,9
-29,4,34,12,-31,19,9,58,-9,9,34,9
-29,4,34,12,-31,19,9,58,-9,9,34,9
-14,9,24,2,-19,17,9,48,-9,9,34,9
-14,19,34,-2,-24,26,9,48,-9,9,34,9
-14,24,39,-4,-26,31,9,53,-9,4,34,9
-19,29,48,-4,-34,39,9,58,-9,4,34,9
-19,24,43,-2,-31,34,9,68,0,19,34,9
-19,19,39,0,-29,29,9,68,0,19,34,9
-19,19,39,0,-29,29,14,73,0,19,39,19
-19,14,34,2,-26,24,14,73,0,24,39,19
-19,24,43,-2,-31,34,9,73,0,14,39,19
-19,24,43,-2,-31,34,9,73,0,14,39,19
-19,24,43,-2,-31,34,4,73,-4,9,34,14
-19,24,43,-2,-31,34,4,73,-4,9,34,14
-9,24,34,-7,-21,29,4,82,-4,14,39,14
-9,14,24,-2,-17,19,4,82,-4,14,39,14
-14,14,29,0,-21,21,4,78,-4,14,39,19
-19,14,34,2,-26,24,9,78,-4,19,43,19
-19,14,34,2,-26,24,9,78,-4,24,43,19
-14,19,34,-2,-24,26,14,78,0,24,43,19
-14,19,34,-2,-24,26,14,78,0,24,43,19
-19,19,39,0,-29,29,9,78,0,24,43,19
-19,29,48,-4,-34,39,9,78,0,14,34,9
-19,29,48,-4,-34,39,9,73,0,9,34,9
-19,29,48,-4,-34,39,9,73,0,9,34,9
-19,29,48,-4,-34,39,9,73,0,14,34,9
-14,19,34,-2,-24,26,9,73,0,19,43,9
-14,24,39,-4,-26,31,9,73,0,19,43,9
-14,24,39,-4,-26,31,9,73,0,19,43,9
-9,19,29,-4,-19,24,9,73,0,14,43,9
-19,29,48,-4,-34,39,0,73,0,14,34,9
-14,29,43,-7,-29,36,0,68,0,9,34,9
-14,29,43,-7,-29,36,0,68,0,9,34,9
-24,29,53,-2,-39,41,0,68,0,9,34,9
-24,24,48,0,-36,36,9,68,0,9,34,9
-19,24,43,-2,-31,34,9,68,0,14,34,9
-19,24,43,-2,-31,34,9,68,0,14,34,9
-19,19,39,0,-29,29,9,68,0,14,34,9
-19,9,29,4,-24,19,9,68,-9,14,34,9
-29,9,39,9,-34,24,9,68,-9,14,34,9
-29,9,39,9,-34,24,9,68,-9,9,29,4
-19,14,34,2,-26,24,9,68,-9,9,29,4
-19,14,34,2,-26,24,9,68,0,19,43,4
-19,14,34,2,-26,24,9,68,0,19,43,9
-19,14,34,2,-26,24,9,68,0,19,43,19
-19,9,29,4,-24,19,9,68,0,19,39,24
-19,14,34,2,-26,24,0,58,-9,19,29,14
-19,19,39,0,-29,29,0,58,-9,19,29,14
-19,19,39,0,-29,29,0,53,-9,14,29,14
-19,19,39,0,-29,29,0,48,-9,14,24,14
-24,9,34,7,-29,21,9,58,0,24,24,14
-24,9,34,7,-29,21,9,53,-4,19,24,4
-24,19,43,2,-34,31,9,53,-4,19,24,4
-24,19,43,2,-34,31,9,53,-4,19,24,4
-14,9,24,2,-19,17,9,53,-14,9,24,4
-14,4,19,4,-17,12,9,58,-9,14,29,9
-14,0,14,7,-14,7,9,58,-9,14,29,9
-14,-4,9,9,-12,2,9,48,-9,14,29,9
-24,0,24,12,-24,12,9,48,0,9,29,9
-24,0,24,12,-24,12,9,43,-4,9,24,4
-24,-4,19,14,-21,7,9,43,-4,9,24,4
-24,-4,19,14,-21,7,9,43,-4,9,24,4
-14,4,19,4,-17,12,9,43,-4,9,24,4
-19,4,24,7,-21,14,9,43,-4,9,19,4
-19,0,19,9,-19,9,9,43,-4,9,19,4
-19,-4,14,12,-17,4,9,39,-4,9,19,4
-19,-14,4,17,-12,-4,9,39,-14,9,19,4
-19,-14,4,17,-12,-4,9,39,-14,9,19,4
-19,-14,4,17,-12,-4,4,34,-14,4,19,4
-19,-9,9,14,-14,0,4,34,-14,4,19,4
-14,0,14,7,-14,7,4,34,-19,4,14,4
-14,0,14,7,-14,7,4,34,-19,4,14,4
-14,0,14,7,-14,7,9,39,-19,4,14,4
-24,-4,19,14,-21,7,9,39,-19,9,14,0
-14,0,14,7,-14,7,0,29,-19,9,14,0
-14,0,14,7,-14,7,0,24,-19,4,14,0
-14,0,14,7,-14,7,0,24,-19,4,14,0
-14,9,24,2,-19,17,0,24,-14,4,14,0
-24,0,24,12,-24,12,9,34,-14,4,14,0
-24,-4,19,14,-21,7,4,29,-19,4,14,0
-24,-4,19,14,-21,7,4,29,-19,4,14,0
-24,-9,14,17,-19,2,0,29,-19,4,14,0
-24,-19,4,21,-14,-7,0,24,-19,4,24,-4
-24,-9,14,17,-19,2,0,24,-19,4,24,-4
-24,-9,14,17,-19,2,0,24,-19,4,24,-4
-29,-9,19,19,-24,4,0,24,-19,4,19,-4
-29,-4,24,17,-26,9,0,24,-9,4,19,4
-24,-4,19,14,-21,7,0,24,-9,4,19,4
-24,-4,19,14,-21,7,4,24,-9,4,19,4
-24,-4,19,14,-21,7,4,24,-9,4,19,4
-24,-9,14,17,-19,2,-9,24,-24,-4,19,0
-24,-9,14,17,-19,2,-9,24,-24,-4,19,0
-29,-9,19,19,-24,4,-9,24,-24,-4,19,0
-29,-9,19,19,-24,4,-9,19,-24,-4,19,0
-19,-4,14,12,-17,4,0,29,-19,0,19,9
-19,-4,14,12,-17,4,0,29,-19,0,19,9
-19,-9,9,14,-14,0,4,29,-19,0,19,0
-19,-9,9,14,-14,0,4,29,-19,4,24,9
-29,-9,19,19,-24,4,4,34,-29,-4,14,0
-29,-9,19,19,-24,4,4,34,-34,-9,14,0
-29,-9,19,19,-24,4,4,29,-34,-9,14,-4
-29,-9,19,19,-24,4,4,24,-34,-9,4,-4
-29,-9,19,19,-24,4,4,14,-19,-9,14,-4
-29,-9,19,19,-24,4,4,14,-19,-9,14,-4
-29,-9,19,19,-24,4,4,14,-29,-9,14,-14
-34,-9,24,21,-29,7,4,14,-29,-4,14,-4
-24,-4,19,14,-21,7,-4,19,-29,-4,9,-4
-24,-4,19,14,-21,7,-4,19,-29,-4,9,-9
-24,0,24,12,-24,12,-4,19,-24,-4,9,-9
-24,0,24,12,-24,12,-4,19,-24,-9,9,-9
-34,-9,24,21,-29,7,0,29,-19,0,19,-9
-29,-19,9,24,-19,-4,4,29,-19,0,19,-4
-29,-24,4,26,-17,-9,9,24,-19,0,19,-4
-29,-29,0,29,-14,-14,14,24,-19,0,19,-4
-34,-14,19,24,-26,2,9,14,-29,-9,9,-14
-34,-14,19,24,-26,2,4,14,-29,-9,9,-14
-34,-14,19,24,-26,2,0,14,-34,-9,9,-19
-34,-14,19,24,-26,2,-4,14,-34,-9,4,-19
-34,-4,29,19,-31,12,-4,24,-24,-4,14,-24
-34,-4,29,19,-31,12,-4,24,-24,-4,19,-9
-34,-9,24,21,-29,7,-4,24,-24,-4,19,-4
-34,-14,19,24,-26,2,-4,24,-24,-4,19,0
-34,-14,19,24,-26,2,4,14,-24,-4,19,-9
-34,-14,19,24,-26,2,4,9,-24,-4,19,-9
-34,-19,14,26,-24,-2,4,9,-24,-4,19,-9
-34,-19,14,26,-24,-2,4,9,-24,-4,19,-9
-34,-9,24,21,-29,7,-4,19,-24,-4,9,-9
-34,-9,24,21,-29,7,-4,24,-24,-4,9,-9
-34,-9,24,21,-29,7,-4,24,-24,-4,9,-9
-34,-4,29,19,-31,12,-4,19,-24,-9,9,-9
-34,-9,24,21,-29,7,-4,19,-34,-9,9,-9
-34,-9,24,21,-29,7,-4,14,-34,-9,9,-9
-34,-9,24,21,-29,7,-9,14,-34,-9,9,-9
-29,-9,19,19,-24,4,-9,14,-34,-4,9,-9
-39,-19,19,29,-29,0,-4,14,-24,-4,19,-9
-39,-19,19,29,-29,0,-4,14,-24,-4,19,-9
-39,-19,19,29,-29,0,0,14,-24,-4,19,-9
-39,-24,14,31,-26,-4,4,14,-24,-9,19,-9
-34,-19,14,26,-24,-2,-4,14,-24,-9,19,0
-34,-14,19,24,-26,2,0,14,-24,-4,19,0
-34,-14,19,24,-26,2,0,14,-24,-4,19,0
-34,-9,24,21,-29,7,0,14,-24,-4,19,0
-34,-9,24,21,-29,7,0,14,-34,-4,19,-9
-29,-9,19,19,-24,4,0,14,-34,-4,19,-9
-29,-9,19,19,-24,4,0,14,-34,-4,19,-9
-29,-9,19,19,-24,4,0,14,-34,-4,19,-9
-29,-9,19,19,-24,4,0,14,-34,-9,14,-14
-29,-19,9,24,-19,-4,9,19,-19,-9,9,-9
-39,-19,19,29,-29,0,0,9,-24,-9,9,-9
-39,-19,19,29,-29,0,0,9,-29,-9,9,-9
-39,-19,19,29,-29,0,0,9,-34,-9,9,-9
-39,-19,19,29,-29,0,0,9,-39,-9,9,-9
-39,-19,19,29,-29,0,9,19,-34,0,19,0
-39,-19,19,29,-29,0,9,19,-29,0,19,0
-39,-19,19,29,-29,0,9,19,-24,0,19,0
-39,-19,19,29,-29,0,9,19,-19,0,19,0
-39,-29,9,34,-24,-9,9,19,-19,0,19,0
-39,-29,9,34,-24,-9,9,19,-19,0,19,0
-39,-29,9,34,-24,-9,9,19,-19,0,19,0
-39,-29,9,34,-24,-9,9,19,-19,0,19,0
-39,-29,9,34,-24,-9,9,19,-19,0,19,0
-39,-29,9,34,-24,-9,9,19,-19,0,19,0
-39,-29,9,34,-24,-9,9,19,-19,0,19,0
-39,-29,9,34,-24,-9,9,19,-19,0,19,0
-39,-24,14,31,-26,-4,0,9,-29,0,19,0
-39,-19,19,29,-29,0,0,9,-29,0,19,0
-39,-14,24,26,-31,4,0,9,-29,0,19,0
-39,-9,29,24,-34,9,0,9,-29,0,19,0
-39,-19,19,29,-29,0,9,19,-19,0,19,0
-39,-19,19,29,-29,0,9,19,-19,0,19,0
-39,-19,19,29,-29,0,9,19,-19,0,19,0
-39,-19,19,29,-29,0,9,19,-19,0,19,0
-29,-19,9,24,-19,-4,9,9,-29,-9,19,0
-29,-19,9,24,-19,-4,9,9,-29,-9,19,0
-29,-19,9,24,-19,-4,9,9,-29,-9,19,0
-29,-19,9,24,-19,-4,9,9,-29,-9,19,0
-39,-19,19,29,-29,0,9,9,-19,0,19,0
-39,-19,19,29,-29,0,9,9,-19,0,19,0
-39,-19,19,29,-29,0,9,9,-19,0,19,0
-39,-19,19,29,-29,0,9,9,-19,0,19,0
-29,-19,9,24,-19,-4,0,19,-19,0,19,0
-29,-19,9,24,-19,-4,0,19,-19,0,19,0
-29,-19,9,24,-19,-4,0,19,-19,0,19,0
-29,-19,9,24,-19,-4,0,19,-19,0,19,0
-39,-19,19,29,-29,0,9,19,-19,9,29,9
-39,-19,19,29,-29,0,9,19,-19,9,29,9
-39,-19,19,29,-29,0,9,19,-19,9,29,9
-39,-19,19,29,-29,0,9,19,-19,9,29,9
-29,-19,9,24,-19,-4,9,19,-19,0,29,0
-29,-19,9,24,-19,-4,9,19,-19,0,29,0
-29,-19,9,24,-19,-4,9,19,-19,0,29,0
-29,-19,9,24,-19,-4,9,19,-19,0,29,0
-29,-9,19,19,-24,4,19,29,-9,9,39,9
-29,-9,19,19,-24,4,19,29,-9,9,39,9
-29,-9,19,19,-24,4,19,29,-9,9,39,9
-29,-9,19,19,-24,4,19,29,-9,9,39,9
-29,-4,24,17,-26,9,19,39,-4,14,43,14
-29,0,29,14,-29,14,19,39,-4,14,43,14
-29,4,34,12,-31,19,19,29,-4,14,43,9
-29,9,39,9,-34,24,19,29,-4,14,43,9
-19,9,29,4,-24,19,14,29,4,14,43,19
-19,9,29,4,-24,19,14,29,4,14,39,19
-19,19,39,0,-29,29,14,29,4,14,39,19
-19,19,39,0,-29,29,24,34,4,14,43,19
-29,19,48,4,-39,34,39,58,0,24,43,24
-29,19,48,4,-39,34,48,58,4,24,48,24
-29,19,48,4,-39,34,48,53,4,24,48,24
-29,24,53,2,-41,39,48,53,9,24,58,29
-19,19,39,0,-29,29,48,58,24,39,68,39
-19,14,34,2,-26,24,48,58,24,39,68,39
-14,29,43,-7,-29,36,43,53,24,43,68,48
-4,29,34,-12,-19,31,34,53,29,43,73,48
0,43,43,-21,-21,43,19,43,24,48,63,48
4,53,48,-29,-21,51,9,39,24,53,73,53
9,63,53,-36,-21,58,0,34,24,53,78,58
9,78,68,-43,-29,73,-4,34,34,63,82,58
14,102,87,-58,-36,95,-9,34,43,63,82,53
19,107,87,-63,-34,97,-14,34,48,68,82,58
19,122,102,-70,-41,112,-14,34,53,73,92,63
14,126,112,-70,-48,119,-19,24,53,73,97,68
9,122,112,-65,-51,117,-14,29,53,73,97,78
9,117,107,-63,-48,112,-14,29,53,73,97,78
14,107,92,-61,-39,100,-19,29,48,68,92,73
14,87,73,-51,-29,80,-24,29,43,63,92,68
24,97,73,-61,-24,85,-34,9,29,53,78,58
24,92,68,-58,-21,80,-43,4,24,48,78,58
24,87,63,-56,-19,75,-48,4,19,48,78,58
34,87,53,-61,-9,70,-48,0,19,48,73,53
39,78,39,-58,0,58,-48,0,19,48,68,63
39,78,39,-58,0,58,-48,4,24,48,73,63
39,73,34,-56,2,53,-48,14,24,53,87,63
39,73,34,-56,2,53,-43,19,29,53,92,63
39,73,34,-56,2,53,-39,9,24,39,78,53
34,63,29,-48,2,46,-39,9,19,39,73,48
19,39,19,-29,0,29,-34,14,9,34,68,39
9,39,29,-24,-9,34,-24,14,4,34,63,34
-9,24,34,-7,-21,29,-9,14,4,34,58,29
-24,0,24,12,-24,12,-4,14,0,29,53,24
-34,-4,29,19,-31,12,0,14,0,24,53,24
-39,-9,29,24,-34,9,4,9,-4,14,43,14
-34,-9,24,21,-29,7,-4,0,-19,4,29,9
-34,-24,9,29,-21,-7,0,0,-24,0,29,9
-34,-29,4,31,-19,-12,0,0,-29,-4,24,4
-34,-39,-4,36,-14,-21,4,0,-29,-9,19,-4
-29,-43,-14,36,-7,-29,4,0,-24,-4,24,-4
-29,-39,-9,34,-9,-24,4,-4,-24,-4,14,-9
-29,-34,-4,31,-12,-19,4,-4,-24,-9,14,-9
-29,-34,-4,31,-12,-19,4,-9,-24,-9,14,-14
-39,-53,-14,46,-12,-34,4,0,-34,-9,14,-4
-39,-58,-19,48,-9,-39,4,0,-39,-9,14,-4
-39,-63,-24,51,-7,-43,4,0,-39,-9,9,-4
-43,-68,-24,56,-9,-46,4,0,-39,-9,9,-4
-43,-63,-19,53,-12,-41,4,0,-29,-9,14,-4
-43,-58,-14,51,-14,-36,4,0,-29,-14,14,-9
-43,-53,-9,48,-17,-31,9,0,-29,-14,14,-9
-43,-48,-4,46,-19,-26,9,4,-29,-9,14,-9
-39,-53,-14,46,-12,-34,9,4,-39,-19,4,-19
-39,-53,-14,46,-12,-34,9,4,-39,-19,4,-14
-43,-53,-9,48,-17,-31,9,4,-39,-19,4,-14
-43,-53,-9,48,-17,-31,9,9,-39,-19,4,-14
-39,-53,-14,46,-12,-34,9,0,-29,-9,14,-4
-39,-58,-19,48,-9,-39,9,0,-29,-9,14,-4
-39,-58,-19,48,-9,-39,14,0,-29,-9,14,-4
-39,-53,-14,46,-12,-34,14,0,-29,-9,14,-4
-48,-63,-14,56,-17,-39,9,4,-29,-9,9,-19
-48,-58,-9,53,-19,-34,9,4,-29,-9,9,-19
-48,-58,-9,53,-19,-34,14,9,-29,-4,9,-14
-48,-58,-9,53,-19,-34,14,9,-29,-4,9,-14
-58,-58,0,58,-29,-29,19,0,-24,-14,9,-9
-48,-29,19,39,-34,-4,29,14,-14,-4,24,-9
-53,-39,14,46,-34,-12,39,34,-9,4,24,-9
-58,-48,9,53,-34,-19,63,63,0,19,24,-9
-58,-34,24,46,-41,-4,92,117,29,48,48,14
-58,-14,43,36,-51,14,122,161,53,68,68,29
-48,9,58,19,-53,34,136,195,78,92,97,53
-29,29,58,0,-43,43,136,248,112,136,151,102
-14,58,73,-21,-43,65,151,366,156,195,214,151
39,102,63,-70,-12,82,195,531,200,248,273,204
102,126,24,-114,39,75,209,678,219,283,302,224
214,151,-63,-183,139,43,170,766,224,312,341,263
366,195,-170,-280,268,12,126,849,239,361,414,326
541,244,-297,-392,419,-26,78,941,244,414,492,390
688,312,-375,-500,531,-31,19,1024,273,473,566,458
795,366,-429,-580,612,-31,-29,1073,292,507,619,522
858,336,-522,-597,690,-92,-78,1024,253,463,580,492
888,273,-614,-580,751,-170,-102,902,170,361,463,395
888,234,-653,-561,771,-209,-141,697,97,239,336,287
878,185,-692,-531,785,-253,-229,409,0,117,209,180
849,146,-702,-497,775,-278,-312,68,-73,19,102,97
707,141,-566,-424,636,-212,-346,-253,-102,-29,29,29
517,126,-390,-322,453,-131,-341,-502,-122,-78,-24,0
385,73,-312,-229,348,-119,-346,-692,-175,-136,-78,-43
336,-24,-361,-156,348,-192,-380,-854,-263,-248,-170,-117
307,-126,-434,-90,370,-280,-385,-941,-366,-361,-278,-224
244,-229,-473,-7,358,-351,-326,-946,-419,-429,-361,-287
156,-292,-448,68,302,-370,-263,-858,-434,-444,-380,-312
102,-292,-395,95,248,-344,-219,-785,-414,-434,-370,-307
92,-278,-370,92,231,-324,-234,-756,-424,-434,-370,-307
68,-287,-356,109,212,-322,-253,-732,-429,-424,-370,-317
9,-292,-302,141,156,-297,-234,-634,-400,-390,-336,-292
-29,-273,-244,151,107,-258,-190,-522,-341,-336,-287,-253
-53,-224,-170,139,58,-197,-156,-419,-283,-273,-234,-209
-78,-146,-68,112,-4,-107,-102,-307,-195,-195,-156,-136
-78,-92,-14,85,-31,-53,-63,-209,-131,-131,-102,-92
-68,-73,-4,70,-31,-39,-39,-156,-107,-102,-87,-87
-48,-68,-19,58,-14,-43,0,-102,-82,-73,-68,-73
-43,-68,-24,56,-9,-46,24,-68,-73,-58,-48,-58
-53,-58,-4,56,-24,-31,43,-34,-58,-39,-29,-43
-73,-68,4,70,-39,-31,68,-9,-34,-29,-14,-29
-73,-68,4,70,-39,-31,73,14,-24,-19,-9,-24
-78,-43,34,61,-56,-4,78,29,-9,-19,0,-24
-78,-14,63,46,-70,24,78,39,-4,-4,0,-4
-68,-24,43,46,-56,9,63,43,-9,-9,0,-14
-68,-29,39,48,-53,4,63,48,-9,0,0,-14
-68,-34,34,51,-51,0,63,48,-9,0,0,-14
-63,-39,24,51,-43,-7,63,48,-9,0,0,-14
-73,-48,24,61,-48,-12,82,53,-4,0,9,-19
-73,-48,24,61,-48,-12,82,58,-4,0,14,-14
-73,-48,24,61,-48,-12,87,68,0,0,14,-14
-73,-39,34,56,-53,-2,87,68,4,4,14,-14
-87,-34,53,61,-70,9,82,73,4,19,9,-9
-87,-24,63,56,-75,19,82,78,9,24,19,-4
-82,-24,58,53,-70,17,82,78,9,24,19,-4
-82,-29,53,56,-68,12,82,78,9,24,19,-4
-82,-34,48,58,-65,7,92,78,0,24,19,-4
-82,-39,43,61,-63,2,97,78,0,19,14,-9
-82,-39,43,61,-63,2,97,82,0,19,14,-9
-82,-34,48,58,-65,7,97,87,4,24,19,-9
-73,-34,39,53,-56,2,87,87,14,24,24,4
-73,-34,39,53,-56,2,87,87,19,29,24,4
-73,-14,58,43,-65,21,82,87,19,29,24,4
-73,-29,43,51,-58,7,82,87,14,29,24,4
-73,-34,39,53,-56,2,97,97,14,29,24,4
-73,-39,34,56,-53,-2,97,97,9,29,24,0
-73,-43,29,58,-51,-7,97,97,9,29,19,0
-73,-48,24,61,-48,-12,97,97,9,29,19,0
-73,-34,39,53,-56,2,87,87,9,24,19,0
-73,-29,43,51,-58,7,87,92,14,24,19,0
-73,-14,58,43,-65,21,87,92,14,24,24,9
-73,-9,63,41,-68,26,87,92,14,24,24,9
-87,-19,68,53,-78,24,97,92,14,29,24,0
-87,-24,63,56,-75,19,102,92,14,29,24,0
-87,-34,53,61,-70,9,102,92,14,29,24,0
-82,-39,43,61,-63,2,102,92,14,29,24,0
-73,-29,43,51,-58,7,92,92,24,29,34,9
-73,-24,48,48,-61,12,92,92,24,29,34,9
-78,-24,53,51,-65,14,92,92,24,29,34,9
-78,-24,53,51,-65,14,92,92,24,29,34,4
-87,-24,63,56,-75,19,92,92,19,19,24,-4
-82,-24,58,53,-70,17,92,92,14,19,24,-4
-82,-24,58,53,-70,17,92,92,9,19,24,-4
-82,-24,58,53,-70,17,92,97,4,24,29,-4
-82,-19,63,51,-73,21,102,107,14,34,29,4
-82,-19,63,51,-73,21,102,102,14,34,24,4
-82,-14,68,48,-75,26,102,102,14,34,24,4
-82,-14,68,48,-75,26,102,102,14,34,24,4
-73,-29,43,51,-58,7,102,102,4,34,24,-4
-73,-29,43,51,-58,7,102,102,4,34,24,0
-73,-29,43,51,-58,7,102,102,4,34,24,0
-73,-34,39,53,-56,2,102,102,4,34,24,0
-82,-24,58,53,-70,17,102,102,14,34,29,14
-87,-24,63,56,-75,19,102,102,14,34,29,14
-87,-19,68,53,-78,24,102,102,14,34,29,14
-92,-14,78,53,-85,31,102,102,14,34,34,14
-82,-24,58,53,-70,17,92,92,14,24,34,4
-82,-24,58,53,-70,17,92,92,14,29,34,4
-82,-24,58,53,-70,17,92,92,14,29,34,4
-82,-24,58,53,-70,17,92,92,14,29,34,4
-82,-14,68,48,-75,26,102,102,19,39,34,14
-82,-14,68,48,-75,26,102,107,19,39,34,14
-82,-14,68,48,-75,26,102,107,19,39,34,14
-82,-14,68,48,-75,26,102,107,19,43,39,19
-82,-24,58,53,-70,17,102,107,19,43,39,19
-82,-19,63,51,-73,21,102,107,19,43,39,19
-82,-19,63,51,-73,21,102,107,19,43,39,19
-82,-19,63,51,-73,21,92,107,19,39,39,19
-73,0,73,36,-73,36,92,102,19,39,39,19
-73,0,73,36,-73,36,92,102,19,39,39,19
-78,0,78,39,-78,39,92,102,19,39,39,24
-78,0,78,39,-78,39,92,102,19,48,39,24
-82,0,82,41,-82,41,97,102,19,39,39,24
-82,4,87,39,-85,46,97,102,19,39,39,24
-82,4,87,39,-85,46,97,102,19,39,43,24
-82,4,87,39,-85,46,97,102,19,39,43,29
-82,9,92,36,-87,51,92,102,19,48,43,29
-82,9,92,36,-87,51,92,102,24,48,43,29
-82,9,92,36,-87,51,82,102,24,48,43,29
-82,14,97,34,-90,56,82,102,24,48,43,29
-73,14,87,29,-80,51,82,102,34,58,39,29
-73,14,87,29,-80,51,82,102,34,58,39,29
-73,14,87,29,-80,51,87,102,39,58,43,34
-73,19,92,26,-82,56,87,102,39,58,53,39
-58,19,78,19,-68,48,78,97,39,63,53,39
-58,19,78,19,-68,48,78,97,43,63,53,39
-58,19,78,19,-68,48,73,97,43,63,53,39
-58,29,87,14,-73,58,68,92,43,63,53,39
-63,34,97,14,-80,65,68,92,43,58,53,43
-63,34,97,14,-80,65,68,87,43,58,53,43
-63,34,97,14,-80,65,68,87,43,58,53,43
-58,39,97,9,-78,68,63,87,43,58,53,48
-58,39,97,9,-78,68,68,82,43,68,53,48
-58,39,97,9,-78,68,63,73,43,68,58,48
-58,39,97,9,-78,68,63,73,43,68,58,48
-58,48,107,4,-82,78,58,73,43,68,58,48
-53,63,117,-4,-85,90,53,68,43,58,48,48
-53,63,117,-4,-85,90,53,63,43,58,48,48
-53,63,117,-4,-85,90,53,58,39,58,48,48
-39,63,102,-12,-70,82,53,53,39,58,48,48
-48,58,107,-4,-78,82,48,48,39,58,48,48
-48,58,107,-4,-78,82,43,43,39,58,48,48
-39,58,97,-9,-68,78,43,43,39,58,48,53
-39,58,97,-9,-68,78,34,34,34,58,48,53
-39,58,97,-9,-68,78,34,29,24,48,39,63
-39,58,97,-9,-68,78,29,29,24,48,39,63
-34,58,92,-12,-63,75,29,19,24,43,39,58
-34,63,97,-14,-65,80,24,14,24,43,39,58
-34,63,97,-14,-65,80,19,9,34,48,48,53
-34,63,97,-14,-65,80,14,0,29,43,43,53
-29,73,102,-21,-65,87,14,-4,29,43,43,48
-24,73,97,-24,-61,85,9,-9,19,39,34,48
-24,68,92,-21,-58,80,9,-19,19,39,43,58
-24,68,92,-21,-58,80,4,-19,19,39,43,58
-14,68,82,-26,-48,75,-9,-34,14,29,43,58
-14,73,87,-29,-51,80,-9,-39,9,29,43,58
-14,82,97,-34,-56,90,-19,-48,0,19,34,53
-14,82,97,-34,-56,90,-19,-58,-4,19,34,48
-9,82,92,-36,-51,87,-24,-68,-9,19,29,43
-9,82,92,-36,-51,87,-29,-78,-9,9,29,39
0,78,78,-39,-39,78,-24,-78,-9,9,24,48
4,78,73,-41,-34,75,-24,-87,-9,9,24,48
4,78,73,-41,-34,75,-29,-92,-14,9,24,43
4,78,73,-41,-34,75,-34,-107,-19,0,19,39
4,87,82,-46,-39,85,-48,-107,-24,0,19,29
4,87,82,-46,-39,85,-48,-112,-29,0,19,34
4,87,82,-46,-39,85,-48,-122,-29,0,19,34
9,87,78,-48,-34,82,-48,-122,-29,0,19,34
14,82,68,-48,-26,75,-43,-122,-24,-9,14,39
14,82,68,-48,-26,75,-43,-126,-24,-9,14,39
14,78,63,-46,-24,70,-43,-126,-29,-9,14,39
19,78,58,-48,-19,68,-43,-131,-34,-9,9,39
24,73,48,-48,-12,61,-48,-136,-43,-4,9,29
29,68,39,-48,-4,53,-48,-136,-43,-4,9,29
29,63,34,-46,-2,48,-48,-136,-43,-4,9,29
29,63,34,-46,-2,48,-48,-131,-43,0,14,29
24,73,48,-48,-12,61,-48,-126,-34,-9,14,39
29,68,39,-48,-4,53,-48,-126,-34,-9,14,39
29,68,39,-48,-4,53,-43,-117,-34,-9,19,39
29,63,34,-46,-2,48,-43,-107,-34,-9,19,43
39,53,14,-46,12,34,-43,-92,-34,0,19,43
43,53,9,-48,17,31,-39,-82,-24,4,19,48
43,53,9,-48,17,31,-39,-73,-24,4,19,48
48,48,0,-48,24,24,-34,-58,-24,14,19,48
48,53,4,-51,21,29,-24,-39,-19,14,24,48
48,53,4,-51,21,29,-24,-29,-19,14,24,48
48,58,9,-53,19,34,-14,-9,-9,19,34,53
48,63,14,-56,17,39,-9,0,-9,24,34,53
39,53,14,-46,12,34,-4,4,-19,14,39,53
39,53,14,-46,12,34,-4,9,-14,19,39,53
34,53,19,-43,7,36,0,14,-9,19,43,53
34,53,19,-43,7,36,4,19,-4,29,43,58
34,63,29,-48,2,46,9,48,9,43,53,58
34,53,19,-43,7,36,14,58,9,48,53,58
34,53,19,-43,7,36,19,63,19,48,53,58
29,53,24,-41,2,39,24,73,19,48,53,58
39,53,14,-46,12,34,19,68,9,48,53,53
34,53,19,-43,7,36,24,78,9,48,53,53
29,48,19,-39,4,34,29,73,14,53,53,53
24,43,19,-34,2,31,29,68,14,53,53,53
19,48,29,-34,-4,39,34,82,14,48,43,43
14,43,29,-29,-7,36,34,82,14,48,39,43
14,43,29,-29,-7,36,34,87,14,48,39,39
9,43,34,-26,-12,39,39,87,19,48,43,39
4,34,29,-19,-12,31,39,78,9,48,43,39
4,34,29,-19,-12,31,43,78,9,48,43,39
4,34,29,-19,-12,31,43,78,9,48,43,39
0,24,24,-12,-12,24,43,78,9,48,39,34
9,24,14,-17,-2,19,39,78,9,39,24,24
9,24,14,-17,-2,19,39,73,4,39,24,19
9,24,14,-17,-2,19,39,73,4,39,24,19
4,24,19,-14,-7,21,39,73,4,39,24,19
-4,19,24,-7,-14,21,48,73,4,39,34,24
-4,14,19,-4,-12,17,48,73,4,39,34,24
-4,4,9,0,-7,7,48,73,4,39,34,24
-4,4,9,0,-7,7,48,73,4,34,24,19
4,-4,-9,0,7,-7,48,73,4,34,24,19
4,-4,-9,0,7,-7,53,73,4,34,24,19
0,-9,-9,4,4,-9,53,73,4,34,24,19
0,-9,-9,4,4,-9,53,73,4,34,24,24
-9,0,9,4,-9,4,53,63,4,34,24,24
-9,0,9,4,-9,4,48,63,0,29,19,19
-9,9,19,0,-14,14,48,63,0,29,19,19
-9,9,19,0,-14,14,48,63,0,29,24,19
-9,9,19,0,-14,14,48,73,9,29,24,19
-9,4,14,2,-12,9,53,73,9,29,24,19
-9,4,14,2,-12,9,53,73,9,29,24,14
-9,0,9,4,-9,4,53,73,9,29,24,14
0,0,0,0,0,0,48,78,4,24,24,19
0,0,0,0,0,0,48,82,4,24,24,19
0,0,0,0,0,0,48,82,4,24,24,19
4,0,-4,-2,4,-2,48,82,4,24,24,19
-4,0,4,2,-4,2,43,78,14,24,34,14
-4,0,4,2,-4,2,43,78,14,29,34,14
-4,0,4,2,-4,2,43,82,14,39,34,19
-4,0,4,2,-4,2,43,87,14,43,34,19
-4,0,4,2,-4,2,43,78,14,34,29,19
-4,0,4,2,-4,2,43,78,14,34,29,19
-4,0,4,2,-4,2,48,87,14,34,29,19
-9,4,14,2,-12,9,48,87,19,34,34,19
0,14,14,-7,-7,14,43,87,9,34,34,19
0,14,14,-7,-7,14,43,87,9,34,34,19
0,14,14,-7,-7,14,48,87,9,39,34,19
0,14,14,-7,-7,14,48,87,9,39,34,19
4,9,4,-7,0,7,48,87,19,39,34,19
4,9,4,-7,0,7,48,87,19,39,34,19
4,4,0,-4,2,2,48,92,19,34,34,19
0,0,0,0,0,0,48,97,19,34,34,19
0,9,9,-4,-4,9,58,97,19,39,34,19
0,9,9,-4,-4,9,58,97,19,39,34,19
0,14,14,-7,-7,14,63,102,19,39,39,29
0,14,14,-7,-7,14,63,102,19,43,39,29
-9,14,24,-2,-17,19,68,112,19,43,39,29
-9,14,24,-2,-17,19,68,112,19,43,39,29
-9,14,24,-2,-17,19,63,112,14,39,34,24
-9,14,24,-2,-17,19,63,112,14,39,34,24
0,19,19,-9,-9,19,63,112,14,53,39,24
0,4,4,-2,-2,4,63,112,14,53,39,24
-4,0,4,2,-4,2,63,107,14,53,39,29
-9,-4,4,7,-7,0,68,107,14,58,43,29
-9,-4,4,7,-7,0,58,117,14,58,34,29
-4,0,4,2,-4,2,63,117,19,53,34,29
-4,0,4,2,-4,2,63,117,19,48,34,29
-9,0,9,4,-9,4,58,117,19,43,34,29
0,0,0,0,0,0,58,117,19,53,43,29
0,0,0,0,0,0,58,112,19,48,43,29
0,0,0,0,0,0,58,112,19,48,43,29
0,0,0,0,0,0,58,112,19,53,43,29
-4,0,4,2,-4,2,68,122,29,58,43,29
-4,4,9,0,-7,7,68,122,29,58,43,29
-4,4,9,0,-7,7,68,122,29,58,43,29
0,0,0,0,0,0,68,122,29,53,43,29
0,9,9,-4,-4,9,58,112,24,43,34,19
4,9,4,-7,0,7,58,107,19,39,34,19
4,9,4,-7,0,7,58,107,14,39,34,19
-4,9,14,-2,-9,12,58,107,9,39,34,19
-4,14,19,-4,-12,17,68,107,19,48,34,29
0,14,14,-7,-7,14,68,107,19,53,34,29
0,14,14,-7,-7,14,68,107,19,53,34,29
0,9,9,-4,-4,9,68,107,19,53,34,29
0,0,0,0,0,0,63,102,9,43,34,19
-9,0,9,4,-9,4,58,97,9,43,34,19
-9,0,9,4,-9,4,53,92,9,39,29,14
0,4,4,-2,-2,4,48,87,9,39,29,14
0,4,4,-2,-2,4,58,97,19,48,34,9
0,4,4,-2,-2,4,58,97,19,48,34,9
0,4,4,-2,-2,4,58,97,19,48,34,14
0,0,0,0,0,0,58,97,19,48,29,14
0,0,0,0,0,0,48,87,9,39,29,14
0,0,0,0,0,0,48,87,9,39,29,14
0,-4,-4,2,2,-4,48,82,9,34,29,14
0,-9,-9,4,4,-9,48,78,9,34,24,14
-4,-9,-4,7,0,-7,58,87,19,43,34,24
-4,-9,-4,7,0,-7,58,82,14,39,34,14
-4,0,4,2,-4,2,58,82,14,39,34,14
-4,0,4,2,-4,2,58,82,14,39,34,14
-4,-4,0,4,-2,-2,48,73,4,29,24,14
-4,-4,0,4,-2,-2,48,78,9,34,29,19
-4,-4,0,4,-2,-2,48,78,9,34,29,19
-4,-4,0,4,-2,-2,48,68,9,34,29,19
-4,9,14,-2,-9,12,58,78,19,39,29,9
-4,9,14,-2,-9,12,58,73,14,39,24,4
-4,4,9,0,-7,7,58,73,14,39,24,4
-4,4,9,0,-7,7,58,73,14,39,24,4
4,-4,-9,0,7,-7,48,63,4,39,24,4
0,-4,-4,2,2,-4,48,63,4,39,19,4
0,-9,-9,4,4,-9,48,63,4,39,19,4
0,-14,-14,7,7,-14,48,58,4,39,19,4
0,-4,-4,2,2,-4,48,58,14,29,19,-4
0,-4,-4,2,2,-4,48,58,14,29,19,-4
0,-4,-4,2,2,-4,43,53,14,24,19,-4
0,0,0,0,0,0,43,53,14,24,19,-4
-4,0,4,2,-4,2,43,53,9,34,14,4
-4,0,4,2,-4,2,43,53,9,34,14,4
-4,0,4,2,-4,2,48,58,9,34,14,4
-14,-4,9,9,-12,2,48,58,9,39,14,0
-4,-9,-4,7,0,-7,39,48,0,29,4,-9
-4,-9,-4,7,0,-7,39,43,0,24,4,-9
-4,-9,-4,7,0,-7,39,43,0,24,4,-9
-4,0,4,2,-4,2,39,43,4,24,4,-9
-4,-9,-4,7,0,-7,48,53,4,24,4,0
-4,-14,-9,9,2,-12,43,48,0,24,4,0
-4,-14,-9,9,2,-12,43,48,0,24,4,0
-4,-19,-14,12,4,-17,39,48,0,24,4,0
-14,-19,-4,17,-4,-12,39,43,9,24,14,4
-14,-9,4,12,-9,-2,39,43,9,24,14,4
-14,-9,4,12,-9,-2,39,43,9,24,14,4
-19,-9,9,14,-14,0,39,43,9,24,9,4
-9,-14,-4,12,-2,-9,39,43,9,24,9,-4
-4,-14,-9,9,2,-12,39,43,9,24,9,-4
-4,-14,-9,9,2,-12,43,43,9,24,9,-4
-4,-14,-9,9,2,-12,43,43,9,24,9,-4
-4,-19,-14,12,4,-17,39,43,4,24,9,0
-4,-19,-14,12,4,-17,39,43,4,24,9,0
-9,-19,-9,14,0,-14,39,43,4,24,9,0
-9,-19,-9,14,0,-14,39,39,4,24,9,0
-9,-14,-4,12,-2,-9,39,39,0,19,9,-9
-9,-14,-4,12,-2,-9,39,39,0,19,9,-9
-9,-19,-9,14,0,-14,43,39,0,19,9,-19
-9,-19,-9,14,0,-14,43,39,0,24,14,-9
-9,-19,-9,14,0,-14,53,53,9,34,24,-4
-9,-19,-9,14,0,-14,53,53,4,29,24,0
-9,-19,-9,14,0,-14,53,48,4,29,24,0
-9,-19,-9,14,0,-14,53,43,4,29,14,4
-19,-9,9,14,-14,0,43,34,9,19,4,-4
-19,-9,9,14,-14,0,43,34,9,19,4,-4
-19,-9,9,14,-14,0,43,34,0,19,4,-14
-24,-9,14,17,-19,2,43,34,0,24,4,-4
-14,-14,0,14,-7,-7,43,39,0,24,9,4
-14,-14,0,14,-7,-7,43,39,0,24,9,0
-14,-9,4,12,-9,-2,43,39,4,24,9,0
-14,-9,4,12,-9,-2,43,39,4,19,9,0
-14,-14,0,14,-7,-7,43,39,9,29,9,0
-9,-19,-9,14,0,-14,43,39,9,29,9,4
-9,-19,-9,14,0,-14,43,34,9,29,9,4
-9,-19,-9,14,0,-14,43,34,9,29,9,4
-24,-14,9,19,-17,-2,43,34,9,29,19,4
-24,-14,9,19,-17,-2,43,34,9,29,19,4
-24,-14,9,19,-17,-2,43,34,4,29,19,0
-24,-14,9,19,-17,-2,43,34,4,29,14,0
-24,-14,9,19,-17,-2,43,34,4,24,4,-9
-24,-14,9,19,-17,-2,43,34,4,24,9,0
-24,-19,4,21,-14,-7,43,34,4,24,9,0
-24,-24,0,24,-12,-12,43,34,4,24,9,0
-24,-14,9,19,-17,-2,43,34,4,34,9,0
-24,-14,9,19,-17,-2,43,29,4,34,9,0
-24,-19,4,21,-14,-7,43,29,4,34,9,0
-24,-19,4,21,-14,-7,43,29,4,34,9,0
-24,-19,4,21,-14,-7,53,39,14,34,19,9
-24,-19,4,21,-14,-7,53,43,14,34,19,9
-24,-19,4,21,-14,-7,53,43,14,34,19,9
-24,-14,9,19,-17,-2,53,39,14,29,19,9
-24,-19,4,21,-14,-7,43,29,4,29,9,0
-24,-19,4,21,-14,-7,43,24,4,29,9,0
-24,-19,4,21,-14,-7,39,24,4,29,9,0
-19,-19,0,19,-9,-9,39,24,4,34,9,0
-19,-9,9,14,-14,0,48,24,4,24,9,0
-19,-9,9,14,-14,0,43,24,4,24,9,0
-19,-9,9,14,-14,0,43,24,4,24,9,0
-19,-14,4,17,-12,-4,43,24,4,19,9,0
-24,-14,9,19,-17,-2,34,24,-4,19,9,-9
-24,-14,9,19,-17,-2,39,24,-4,24,9,-9
-24,-19,4,21,-14,-7,39,24,-4,24,9,-9
-24,-19,4,21,-14,-7,39,24,-4,24,9,-9
-24,-9,14,17,-19,2,39,24,4,34,0,0
-19,-9,9,14,-14,0,39,24,4,34,0,0
-19,-9,9,14,-14,0,39,24,4,34,0,0
-19,-9,9,14,-14,0,39,24,4,34,0,0
-19,-19,0,19,-9,-9,39,14,-4,29,4,-4
-19,-19,0,19,-9,-9,48,19,0,29,9,0
-19,-9,9,14,-14,0,39,19,0,29,9,-9
-19,-9,9,14,-14,0,39,19,0,29,9,-9
-19,-9,9,14,-14,0,39,19,0,29,9,-9
-19,-9,9,14,-14,0,39,19,0,29,9,-9
-19,-14,4,17,-12,-4,39,19,0,19,9,-9
-19,-19,0,19,-9,-9,39,19,0,19,9,-9
-19,-24,-4,21,-7,-14,39,19,0,19,9,-9
-19,-29,-9,24,-4,-19,39,19,0,19,9,-9
-29,-29,0,29,-14,-14,39,29,9,29,9,0
-29,-29,0,29,-14,-14,39,29,9,29,9,0
-29,-29,0,29,-14,-14,39,29,9,29,9,0
-29,-29,0,29,-14,-14,39,29,9,29,9,0
-29,-19,9,24,-19,-4,39,19,0,19,0,-9
-29,-19,9,24,-19,-4,39,19,0,19,0,-9
-29,-19,9,24,-19,-4,39,19,0,19,0,-9
-29,-19,9,24,-19,-4,39,19,0,19,0,-9
-29,-29,0,29,-14,-14,39,19,0,19,0,-9
-29,-29,0,29,-14,-14,39,19,0,19,0,-9
-29,-29,0,29,-14,-14,39,19,0,19,0,-9
-29,-29,0,29,-14,-14,39,19,0,19,0,-9
-29,-19,9,24,-19,-4,39,19,0,29,9,0
-29,-19,9,24,-19,-4,39,19,0,29,9,0
-29,-19,9,24,-19,-4,39,19,0,29,9,0
-29,-19,9,24,-19,-4,39,19,0,29,9,0
-29,-29,0,29,-14,-14,48,29,0,29,9,0
-29,-29,0,29,-14,-14,48,29,0,29,9,0
-29,-29,0,29,-14,-14,48,29,0,29,9,0
-29,-29,0,29,-14,-14,48,29,0,29,9,0
-29,-29,0,29,-14,-14,39,19,0,29,9,0
-29,-29,0,29,-14,-14,39,19,0,29,9,0
-29,-29,0,29,-14,-14,39,19,0,29,9,0
-29,-29,0,29,-14,-14,39,19,0,29,9,0
-29,-39,-9,34,-9,-24,39,29,0,29,9,0
-29,-39,-9,34,-9,-24,39,29,0,29,9,0
-29,-39,-9,34,-9,-24,39,29,0,29,9,0
-29,-39,-9,34,-9,-24,39,29,0,29,9,0
-29,-29,0,29,-14,-14,39,29,9,29,9,0
-29,-29,0,29,-14,-14,39,29,9,29,9,0
-29,-29,0,29,-14,-14,39,29,9,29,9,0
-29,-29,0,29,-14,-14,39,29,9,29,9,0
-39,-39,0,39,-19,-19,39,29,9,29,9,0
-39,-39,0,39,-19,-19,39,29,9,29,9,0
-39,-39,0,39,-19,-19,39,29,9,29,9,0
-39,-39,0,39,-19,-19,39,29,9,29,9,0
-39,-24,14,31,-26,-4,48,29,19,39,19,9
-39,-19,19,29,-29,0,48,29,19,39,19,9
-39,-14,24,26,-31,4,48,29,19,39,19,9
-39,-9,29,24,-34,9,48,39,24,43,24,14
-39,0,39,19,-39,19,48,39,14,43,24,14
-39,0,39,19,-39,19,48,29,14,43,24,9
-39,0,39,19,-39,19,48,29,14,43,24,9
-39,0,39,19,-39,19,43,29,14,43,24,9
-39,-9,29,24,-34,9,53,29,19,43,29,19
-39,0,39,19,-39,19,53,29,24,43,29,19
-39,0,39,19,-39,19,63,34,29,43,34,19
-39,0,39,19,-39,19,68,48,39,53,34,24
-39,9,48,14,-43,29,78,58,39,53,39,14
-39,9,48,14,-43,29,78,53,34,53,39,14
-39,14,53,12,-46,34,78,53,34,53,48,19
-39,14,53,12,-46,34,78,58,34,58,48,19
-39,4,43,17,-41,24,87,58,43,48,39,19
-34,24,58,4,-46,41,82,53,43,53,39,29
-24,29,53,-2,-39,41,73,53,48,53,43,29
-19,34,53,-7,-36,43,68,53,53,58,43,39
-4,34,39,-14,-21,36,48,39,43,63,43,34
0,43,43,-21,-21,43,39,34,43,63,48,39
0,58,58,-29,-29,58,34,34,53,73,53,39
4,73,68,-39,-31,70,29,34,53,73,53,43
9,78,68,-43,-29,73,24,43,68,87,58,58
9,92,82,-51,-36,87,24,43,73,92,73,63
4,97,92,-51,-43,95,19,34,73,92,82,68
0,97,97,-48,-48,97,14,29,73,92,87,68
-9,107,117,-48,-63,112,4,19,73,102,78,68
-4,102,107,-48,-56,104,0,19,68,97,73,63
-4,87,92,-41,-48,90,-4,19,63,92,73,58
4,87,82,-46,-39,85,-4,9,58,92,68,58
4,73,68,-39,-31,70,-9,14,63,78,68,68
4,68,63,-36,-29,65,-9,14,58,78,68,68
14,68,53,-41,-19,61,-4,9,58,78,63,63
19,68,48,-43,-14,58,-9,4,53,68,53,63
29,78,48,-53,-9,63,-14,-4,43,68,53,53
29,73,43,-51,-7,58,-19,0,39,73,63,53
29,73,43,-51,-7,58,-19,0,39,73,63,53
29,73,43,-51,-7,58,-19,0,39,68,58,53
34,63,29,-48,2,46,-9,0,48,68,63,58
19,39,19,-29,0,29,-4,4,43,63,58,48
9,39,29,-24,-9,34,4,4,43,63,53,43
0,24,24,-12,-12,24,9,4,34,53,48,39
-14,4,19,4,-17,12,9,4,19,48,34,34
-24,4,29,9,-26,17,9,4,19,43,34,34
-29,4,34,12,-31,19,9,0,14,34,24,24
-34,9,43,12,-39,26,4,0,9,34,19,19
-39,-14,24,26,-31,4,19,0,14,39,29,19
-43,-19,24,31,-34,2,19,0,9,34,24,14
-48,-29,19,39,-34,-4,24,0,9,29,19,4
-58,-39,19,48,-39,-9,24,0,4,24,14,4
-58,-48,9,53,-34,-19,24,4,-4,24,4,0
-58,-48,9,53,-34,-19,24,4,-4,19,4,0
-58,-53,4,56,-31,-24,24,0,-4,19,4,-4
-58,-58,0,58,-29,-29,24,0,-4,19,4,-4
-58,-58,0,58,-29,-29,24,-9,-9,9,-4,-14
-58,-58,0,58,-29,-29,24,-9,-9,9,-9,-14
-63,-58,4,61,-34,-26,24,-9,-9,9,-9,-14
-63,-58,4,61,-34,-26,24,-9,-9,9,-4,-14
-63,-68,-4,65,-29,-36,24,-9,-9,14,4,-9
-63,-68,-4,65,-29,-36,29,-9,-9,14,4,-9
-63,-68,-4,65,-29,-36,29,-4,-9,19,4,-9
-68,-73,-4,70,-31,-39,29,-4,-9,19,4,-9
-68,-63,4,65,-36,-29,39,-14,-19,9,-4,-14
-73,-63,9,68,-41,-26,39,-14,-19,9,-4,-14
-73,-63,9,68,-41,-26,39,-9,-19,9,-4,-14
-68,-63,4,65,-36,-29,39,-9,-19,9,-4,-14
-78,-78,0,78,-39,-39,39,0,-9,9,-4,-14
-78,-78,0,78,-39,-39,43,0,-9,9,-4,-14
-78,-73,4,75,-41,-34,43,0,-9,9,-4,-14
-78,-73,4,75,-41,-34,39,-4,-9,9,-9,-19
-68,-58,9,63,-39,-24,29,-14,-19,0,-19,-29
-68,-58,9,63,-39,-24,34,-9,-19,4,-19,-24
-68,-58,9,63,-39,-24,34,-9,-19,4,-19,-24
-68,-58,9,63,-39,-24,39,-9,-14,4,-19,-19
-68,-68,0,68,-34,-34,39,-4,-14,14,-4,-19
-82,-68,14,75,-48,-26,39,-4,-9,14,-4,-9
-78,-68,9,73,-43,-29,53,14,0,19,4,-9
-78,-63,14,70,-46,-24,63,29,9,29,0,-4
-87,-53,34,70,-61,-9,92,63,24,39,9,0
-87,-48,39,68,-63,-4,107,97,39,53,19,4
-87,-39,48,63,-68,4,126,131,63,68,34,24
-92,9,102,41,-97,56,151,180,97,117,78,53
-68,53,122,7,-95,87,165,239,131,161,126,87
-43,87,131,-21,-87,109,180,336,170,204,175,136
-9,102,112,-46,-61,107,219,502,224,263,234,185
73,107,34,-90,19,70,234,653,239,302,278,219
190,136,-53,-163,122,41,204,756,253,336,326,263
326,175,-151,-251,239,12,156,829,263,375,390,331
502,219,-283,-361,392,-31,97,917,263,419,444,375
653,307,-346,-480,500,-19,48,1015,283,473,522,453
780,380,-400,-580,590,-9,4,1078,307,527,590,512
868,361,-507,-614,688,-73,-43,1039,283,492,570,492
907,292,-614,-600,761,-161,-82,917,204,390,463,405
897,224,-673,-561,785,-224,-126,722,112,273,336,292
893,170,-722,-531,807,-275,-209,419,24,156,204,185
858,136,-722,-497,790,-292,-302,82,-63,48,92,87
