I,II,III,aVR,aVL,aVF,V1,V2,V3,V4,V5,V6
136,331,195,-234,-29,263,87,790,741,605,702,253
136,331,195,-234,-29,263,87,790,741,605,702,253
136,331,195,-234,-29,263,87,790,741,605,702,253
136,331,195,-234,-29,263,87,790,741,605,702,253
126,341,214,-234,-43,278,87,780,732,605,702,263
126,341,214,-234,-43,278,87,771,732,605,702,263
126,341,214,-234,-43,278,87,761,732,605,702,263
126,341,214,-234,-43,278,87,751,732,605,702,263
122,341,219,-231,-48,280,78,727,717,590,697,253
117,341,224,-229,-53,283,78,702,702,585,692,253
112,341,229,-226,-58,285,78,678,688,580,688,253
107,341,234,-224,-63,287,78,653,673,575,683,253
92,326,234,-209,-70,280,68,619,653,551,663,239
87,322,234,-204,-73,278,68,595,634,536,653,234
82,317,234,-200,-75,275,68,570,614,522,644,229
78,312,234,-195,-78,273,68,546,595,507,634,224
73,297,224,-185,-75,261,63,502,556,483,619,214
68,292,224,-180,-78,258,58,468,527,458,605,204
63,287,224,-175,-80,256,53,434,497,434,590,195
58,283,224,-170,-82,253,48,400,468,409,575,185
53,273,219,-163,-82,246,43,366,439,375,546,161
48,263,214,-156,-82,239,39,331,409,351,527,146
43,253,209,-148,-82,231,34,297,380,326,507,131
39,244,204,-141,-82,224,29,263,351,302,488,117
34,229,195,-131,-80,212,24,224,322,278,468,97
29,214,185,-122,-78,200,19,195,292,253,448,87
24,200,175,-112,-75,187,14,165,263,229,429,78
19,185,165,-102,-73,175,9,136,234,204,409,68
14,175,161,-95,-73,168,4,107,204,175,385,48
9,165,156,-87,-73,161,0,87,185,156,370,39
4,156,151,-80,-73,153,-4,68,165,136,356,29
0,146,146,-73,-73,146,-9,48,146,117,341,19
-9,126,136,-58,-73,131,-9,29,126,92,322,9
-9,117,126,-53,-68,122,-9,9,107,78,312,0
-9,107,117,-48,-63,112,-9,-9,87,63,302,-9
-9,97,107,-43,-58,102,-9,-29,68,48,292,-19
-14,82,97,-34,-56,90,-19,-39,48,34,283,-29
-19,78,97,-29,-58,87,-19,-48,39,19,273,-39
-24,73,97,-24,-61,85,-19,-58,29,4,263,-48
-29,68,97,-19,-63,82,-19,-68,19,-9,253,-58
-39,63,102,-12,-70,82,-19,-78,4,-14,239,-68
-39,58,97,-9,-68,78,-19,-87,0,-19,234,-68
-39,53,92,-7,-65,73,-19,-97,-4,-24,229,-68
-39,48,87,-4,-63,68,-19,-107,-9,-29,224,-68
-48,43,92,2,-70,68,-29,-107,-24,-43,219,-73
-48,39,87,4,-68,63,-29,-107,-29,-48,214,-78
-48,34,82,7,-65,58,-29,-107,-34,-53,209,-82
-48,29,78,9,-63,53,-29,-107,-39,-58,204,-87
-48,19,68,14,-58,43,-19,-112,-39,-58,195,-97
-48,19,68,14,-58,43,-19,-117,-39,-58,195,-97
-48,19,68,14,-58,43,-19,-122,-39,-58,195,-97
-48,19,68,14,-58,43,-19,-126,-39,-58,195,-97
-48,9,58,19,-53,34,-19,-126,-48,-68,195,-97
-48,9,58,19,-53,34,-19,-126,-48,-68,195,-97
-48,9,58,19,-53,34,-19,-126,-48,-68,195,-97
-48,9,58,19,-53,34,-19,-126,-48,-68,195,-97
-48,0,48,24,-48,24,-19,-117,-48,-68,195,-107
-48,0,48,24,-48,24,-19,-117,-48,-68,195,-107
-48,0,48,24,-48,24,-19,-117,-48,-68,195,-107
-48,0,48,24,-48,24,-19,-117,-48,-68,195,-107
-48,0,48,24,-48,24,-19,-117,-39,-68,185,-107
-48,0,48,24,-48,24,-19,-117,-39,-68,185,-107
-48,0,48,24,-48,24,-19,-117,-39,-68,185,-107
-48,0,48,24,-48,24,-19,-117,-39,-68,185,-107
-48,-9,39,29,-43,14,-9,-107,-39,-68,185,-97
-48,-9,39,29,-43,14,-9,-107,-39,-68,185,-97
-48,-9,39,29,-43,14,-9,-107,-39,-68,185,-97
-48,-9,39,29,-43,14,-9,-107,-39,-68,185,-97
-48,-9,39,29,-43,14,-9,-107,-29,-68,195,-97
-48,-9,39,29,-43,14,-9,-107,-29,-68,195,-97
-48,-9,39,29,-43,14,-9,-107,-29,-68,195,-97
-48,-9,39,29,-43,14,-9,-107,-29,-68,195,-97
-48,-9,39,29,-43,14,-9,-107,-19,-58,195,-87
-48,-9,39,29,-43,14,-9,-107,-19,-58,195,-87
-48,-9,39,29,-43,14,-9,-107,-19,-58,195,-87
-48,-9,39,29,-43,14,-9,-107,-19,-58,195,-87
-48,-9,39,29,-43,14,-9,-107,-19,-58,195,-87
-48,-9,39,29,-43,14,-9,-107,-19,-58,195,-87
-48,-9,39,29,-43,14,-9,-107,-19,-58,195,-87
-48,-9,39,29,-43,14,-9,-107,-19,-58,195,-87
-48,-9,39,29,-43,14,-9,-97,-9,-48,195,-87
-48,-9,39,29,-43,14,-9,-97,-9,-48,195,-87
-48,-9,39,29,-43,14,-9,-97,-9,-48,195,-87
-48,-9,39,29,-43,14,-9,-97,-9,-48,195,-87
-48,-9,39,29,-43,14,-9,-97,-9,-58,195,-97
-48,-9,39,29,-43,14,-9,-97,-9,-58,195,-97
-48,-9,39,29,-43,14,-9,-97,-9,-58,195,-97
-48,-9,39,29,-43,14,-9,-97,-9,-58,195,-97
-39,-9,29,24,-34,9,-9,-97,-19,-58,195,-97
-39,-9,29,24,-34,9,-9,-97,-19,-58,195,-97
-39,-9,29,24,-34,9,-9,-97,-19,-58,195,-97
-39,-9,29,24,-34,9,-9,-97,-19,-58,195,-97
-39,-9,29,24,-34,9,-9,-97,-19,-58,185,-97
-39,-9,29,24,-34,9,-9,-97,-19,-58,185,-97
-39,-9,29,24,-34,9,-9,-97,-19,-58,185,-97
-39,-9,29,24,-34,9,-9,-97,-19,-58,185,-97
-39,-19,19,29,-29,0,-9,-107,-19,-58,195,-97
-39,-19,19,29,-29,0,-9,-107,-19,-58,195,-97
-39,-19,19,29,-29,0,-9,-107,-19,-58,195,-97
-39,-19,19,29,-29,0,-9,-107,-19,-58,195,-97
-48,-29,19,39,-34,-4,-9,-107,-29,-58,185,-97
-48,-29,19,39,-34,-4,-9,-107,-29,-58,185,-97
-48,-29,19,39,-34,-4,-9,-107,-29,-58,185,-97
-48,-29,19,39,-34,-4,-9,-107,-29,-58,185,-97
-48,-29,19,39,-34,-4,-9,-107,-29,-68,185,-97
-48,-29,19,39,-34,-4,-9,-107,-29,-68,185,-97
-48,-29,19,39,-34,-4,-9,-107,-29,-68,185,-97
-48,-29,19,39,-34,-4,-9,-107,-29,-68,185,-97
-39,-29,9,34,-24,-9,-9,-107,-29,-68,185,-107
-39,-29,9,34,-24,-9,-9,-107,-29,-68,185,-107
-39,-29,9,34,-24,-9,-9,-107,-29,-68,185,-107
-39,-29,9,34,-24,-9,-9,-107,-29,-68,185,-107
-39,-39,0,39,-19,-19,-9,-117,-39,-78,175,-107
-39,-39,0,39,-19,-19,-9,-117,-39,-78,175,-107
-39,-39,0,39,-19,-19,-9,-117,-39,-78,175,-107
-39,-39,0,39,-19,-19,-9,-117,-39,-78,175,-107
-48,-39,9,43,-29,-14,-9,-117,-48,-78,165,-107
-48,-39,9,43,-29,-14,-9,-117,-48,-78,165,-107
-48,-39,9,43,-29,-14,-9,-117,-48,-78,165,-107
-48,-39,9,43,-29,-14,-9,-117,-48,-78,165,-107
-48,-48,0,48,-24,-24,-9,-126,-48,-87,165,-117
-48,-48,0,48,-24,-24,-9,-126,-48,-87,165,-117
-48,-48,0,48,-24,-24,-9,-126,-48,-87,165,-117
-48,-48,0,48,-24,-24,-9,-126,-48,-87,165,-117
-48,-53,-4,51,-21,-29,0,-126,-48,-87,165,-107
-48,-58,-9,53,-19,-34,0,-126,-48,-87,165,-107
-48,-63,-14,56,-17,-39,0,-126,-48,-87,165,-107
-48,-68,-19,58,-14,-43,0,-126,-48,-87,165,-107
-58,-68,-9,63,-24,-39,0,-126,-48,-87,165,-107
-58,-68,-9,63,-24,-39,0,-126,-48,-87,165,-107
-58,-68,-9,63,-24,-39,0,-126,-48,-87,165,-107
-58,-68,-9,63,-24,-39,0,-126,-48,-87,165,-107
-48,-78,-29,63,-9,-53,0,-126,-58,-87,165,-117
-48,-78,-29,63,-9,-53,0,-126,-58,-87,165,-117
-48,-78,-29,63,-9,-53,0,-126,-58,-87,165,-117
-48,-78,-29,63,-9,-53,0,-126,-58,-87,165,-117
-48,-78,-29,63,-9,-53,0,-126,-58,-87,165,-117
-48,-78,-29,63,-9,-53,0,-126,-58,-87,165,-117
-48,-78,-29,63,-9,-53,0,-126,-58,-87,165,-117
-48,-78,-29,63,-9,-53,0,-126,-58,-87,165,-117
-48,-87,-39,68,-4,-63,9,-126,-58,-87,156,-117
-48,-87,-39,68,-4,-63,9,-126,-58,-87,156,-117
-48,-87,-39,68,-4,-63,9,-126,-58,-87,156,-117
-48,-87,-39,68,-4,-63,9,-126,-58,-87,156,-117
-58,-87,-29,73,-14,-58,9,-136,-58,-97,156,-117
-58,-87,-29,73,-14,-58,9,-136,-58,-97,156,-117
-58,-87,-29,73,-14,-58,9,-136,-58,-97,156,-117
-58,-87,-29,73,-14,-58,9,-136,-58,-97,156,-117
-58,-97,-39,78,-9,-68,0,-136,-58,-97,156,-117
-58,-97,-39,78,-9,-68,0,-136,-58,-97,156,-117
-58,-97,-39,78,-9,-68,0,-136,-58,-97,156,-117
-58,-97,-39,78,-9,-68,0,-136,-58,-97,156,-117
-63,-107,-43,85,-9,-75,9,-136,-58,-87,156,-117
-68,-107,-39,87,-14,-73,9,-136,-58,-87,156,-117
-73,-107,-34,90,-19,-70,9,-136,-58,-87,156,-117
-78,-107,-29,92,-24,-68,9,-136,-58,-87,156,-117
-73,-107,-34,90,-19,-70,9,-136,-58,-87,156,-126
-68,-107,-39,87,-14,-73,9,-136,-58,-87,156,-126
-63,-107,-43,85,-9,-75,9,-136,-58,-87,156,-126
-58,-107,-48,82,-4,-78,9,-136,-58,-87,156,-126
-53,-97,-43,75,-4,-70,0,-136,-58,-97,156,-126
-48,-97,-48,73,0,-73,0,-136,-58,-97,156,-126
-43,-97,-53,70,4,-75,0,-136,-58,-97,156,-126
-39,-97,-58,68,9,-78,0,-136,-58,-97,156,-126
-48,-107,-58,78,4,-82,9,-136,-58,-87,146,-117
-48,-107,-58,78,4,-82,9,-136,-58,-87,146,-117
-48,-107,-58,78,4,-82,9,-136,-58,-87,146,-117
-48,-107,-58,78,4,-82,9,-136,-58,-87,146,-117
-48,-107,-58,78,4,-82,9,-136,-58,-97,146,-117
-48,-107,-58,78,4,-82,9,-136,-58,-97,146,-117
-48,-107,-58,78,4,-82,9,-136,-58,-97,146,-117
-48,-107,-58,78,4,-82,9,-136,-58,-97,146,-117
-48,-107,-58,78,4,-82,9,-136,-68,-97,156,-117
-48,-107,-58,78,4,-82,9,-136,-68,-97,156,-117
-48,-107,-58,78,4,-82,9,-136,-68,-97,156,-117
-48,-107,-58,78,4,-82,9,-136,-68,-97,156,-117
-48,-117,-68,82,9,-92,9,-136,-68,-97,146,-126
-48,-117,-68,82,9,-92,9,-136,-68,-97,146,-126
-48,-117,-68,82,9,-92,9,-136,-68,-97,146,-126
-48,-117,-68,82,9,-92,9,-136,-68,-97,146,-126
-58,-117,-58,87,0,-87,9,-136,-58,-97,146,-126
-58,-117,-58,87,0,-87,9,-136,-58,-97,146,-126
-58,-117,-58,87,0,-87,9,-136,-58,-97,146,-126
-58,-117,-58,87,0,-87,9,-136,-58,-97,146,-126
-58,-117,-58,87,0,-87,9,-136,-58,-97,146,-126
-58,-117,-58,87,0,-87,9,-136,-58,-97,146,-126
-58,-117,-58,87,0,-87,9,-136,-58,-97,146,-126
-58,-117,-58,87,0,-87,9,-136,-58,-97,146,-126
-48,-117,-68,82,9,-92,9,-136,-68,-97,136,-126
-48,-117,-68,82,9,-92,9,-136,-68,-97,136,-126
-48,-117,-68,82,9,-92,9,-136,-68,-97,136,-126
-48,-117,-68,82,9,-92,9,-136,-68,-97,136,-126
-39,-117,-78,78,19,-97,9,-136,-68,-97,136,-126
-39,-117,-78,78,19,-97,9,-136,-68,-97,136,-126
-39,-117,-78,78,19,-97,9,-136,-68,-97,136,-126
-39,-117,-78,78,19,-97,9,-136,-68,-97,136,-126
-48,-107,-58,78,4,-82,9,-126,-58,-97,136,-126
-48,-107,-58,78,4,-82,9,-126,-58,-97,136,-126
-48,-107,-58,78,4,-82,9,-126,-58,-97,136,-126
-48,-107,-58,78,4,-82,9,-126,-58,-97,136,-126
-43,-92,-48,68,2,-70,19,-117,-53,-92,141,-117
-39,-87,-48,63,4,-68,19,-117,-48,-87,146,-117
-34,-82,-48,58,7,-65,19,-117,-43,-82,151,-117
-29,-78,-48,53,9,-63,19,-117,-39,-78,156,-117
-19,-63,-43,41,12,-53,19,-112,-29,-73,165,-112
-19,-58,-39,39,9,-48,19,-107,-29,-68,165,-107
-19,-53,-34,36,7,-43,19,-102,-29,-63,165,-102
-9,-43,-34,26,12,-39,19,-97,-24,-58,165,-97
-19,-29,-9,24,-4,-19,29,-92,-14,-58,180,-92
-14,-29,-14,21,0,-21,29,-87,-14,-53,180,-92
-14,-29,-14,21,0,-21,29,-87,-14,-53,180,-92
-14,-24,-9,19,-2,-17,29,-87,-14,-53,185,-92
-19,-24,-4,21,-7,-14,19,-78,-9,-53,175,-92
-19,-24,-4,21,-7,-14,19,-78,-9,-53,175,-92
-19,-24,-4,21,-7,-14,9,-78,-9,-53,175,-92
-19,-24,-4,21,-7,-14,4,-78,-9,-53,175,-92
-9,-19,-9,14,0,-14,4,-73,-4,-53,175,-92
-9,-9,0,9,-4,-4,0,-73,0,-43,175,-82
-4,-4,0,4,-2,-2,-9,-78,0,-39,185,-78
-4,0,4,2,-4,2,-24,-87,0,-39,185,-73
4,14,9,-9,-2,12,-34,-92,-14,-39,185,-82
14,19,4,-17,4,12,-43,-107,-14,-34,195,-78
19,29,9,-24,4,19,-58,-112,-14,-29,204,-68
19,34,14,-26,2,24,-63,-122,-14,-29,204,-68
29,34,4,-31,12,19,-73,-131,-24,-29,195,-58
29,34,4,-31,12,19,-78,-136,-29,-39,195,-58
29,24,-4,-26,17,9,-78,-141,-34,-43,190,-63
34,19,-14,-26,24,2,-78,-146,-39,-48,180,-68
24,14,-9,-19,17,2,-73,-146,-53,-53,175,-78
24,9,-14,-17,19,-2,-73,-141,-58,-58,170,-82
24,9,-14,-17,19,-2,-73,-141,-68,-58,170,-87
29,4,-24,-17,26,-9,-63,-136,-68,-63,170,-92
29,0,-29,-14,29,-14,-68,-146,-73,-78,165,-102
29,-4,-34,-12,31,-19,-63,-156,-78,-82,161,-102
29,-9,-39,-9,34,-24,-58,-156,-78,-82,161,-102
19,-9,-29,-4,24,-19,-53,-156,-78,-82,161,-107
14,-4,-19,-4,17,-12,-39,-156,-73,-73,156,-97
14,-4,-19,-4,17,-12,-39,-161,-78,-82,151,-102
9,-19,-29,4,19,-24,-39,-165,-82,-87,146,-107
4,-29,-34,12,19,-31,-39,-165,-82,-92,141,-117
4,-29,-34,12,19,-31,-43,-175,-97,-107,131,-122
4,-34,-39,14,21,-36,-39,-175,-97,-112,126,-126
0,-39,-39,19,19,-39,-34,-170,-97,-112,126,-131
-9,-43,-34,26,12,-39,-29,-170,-97,-112,126,-131
-24,-58,-34,41,4,-46,-14,-165,-97,-117,126,-141
-34,-63,-29,48,-2,-46,-14,-165,-97,-117,117,-141
-43,-63,-19,53,-12,-41,-9,-165,-97,-117,117,-141
-48,-73,-24,61,-12,-48,-9,-165,-97,-117,112,-141
-43,-68,-24,56,-9,-46,-9,-175,-97,-117,107,-151
-43,-73,-29,58,-7,-51,-9,-175,-102,-122,107,-161
-39,-78,-39,58,0,-58,-9,-185,-107,-126,102,-165
-39,-78,-39,58,0,-58,-9,-190,-117,-131,97,-165
-39,-87,-48,63,4,-68,-9,-190,-117,-141,92,-170
-39,-87,-48,63,4,-68,-9,-190,-117,-141,87,-170
-39,-87,-48,63,4,-68,-9,-190,-117,-141,82,-170
-39,-92,-53,65,7,-73,-9,-190,-117,-141,78,-170
-48,-82,-34,65,-7,-58,-9,-190,-126,-141,68,-180
-48,-82,-34,65,-7,-58,-9,-190,-126,-141,68,-180
-48,-82,-34,65,-7,-58,-9,-190,-126,-141,68,-185
-53,-87,-34,70,-9,-61,-9,-190,-126,-141,68,-185
-53,-87,-34,70,-9,-61,-9,-185,-112,-151,78,-180
-53,-87,-34,70,-9,-61,-4,-185,-112,-151,78,-180
-53,-87,-34,70,-9,-61,-4,-185,-112,-151,78,-180
-53,-92,-39,73,-7,-65,-4,-185,-112,-151,78,-180
-53,-92,-39,73,-7,-65,-4,-175,-112,-141,73,-180
-53,-92,-39,73,-7,-65,0,-175,-112,-141,73,-180
-53,-92,-39,73,-7,-65,0,-175,-112,-141,73,-180
-53,-92,-39,73,-7,-65,0,-170,-107,-141,73,-180
-58,-92,-34,75,-12,-63,-4,-180,-107,-141,73,-175
-58,-92,-34,75,-12,-63,-4,-180,-107,-141,73,-175
-58,-92,-34,75,-12,-63,-4,-180,-107,-141,73,-175
-58,-92,-34,75,-12,-63,-4,-175,-107,-141,73,-175
-58,-92,-34,75,-12,-63,-4,-165,-107,-141,73,-175
-58,-92,-34,75,-12,-63,-4,-165,-107,-141,73,-175
-58,-92,-34,75,-12,-63,0,-165,-102,-136,73,-175
-58,-92,-34,75,-12,-63,0,-165,-102,-136,73,-175
-58,-92,-34,75,-12,-63,0,-175,-102,-136,78,-175
-58,-92,-34,75,-12,-63,0,-175,-102,-136,78,-175
-58,-92,-34,75,-12,-63,0,-170,-102,-136,78,-175
-58,-92,-34,75,-12,-63,0,-170,-97,-136,78,-170
-58,-102,-43,80,-7,-73,0,-170,-107,-136,78,-170
-58,-102,-43,80,-7,-73,0,-170,-107,-131,78,-170
-58,-97,-39,78,-9,-68,0,-170,-107,-131,78,-170
-58,-97,-39,78,-9,-68,0,-170,-107,-131,78,-170
-63,-107,-43,85,-9,-75,0,-170,-107,-131,78,-170
-63,-107,-43,85,-9,-75,0,-170,-102,-136,78,-180
-53,-102,-48,78,-2,-75,9,-161,-102,-136,78,-175
-53,-102,-48,78,-2,-75,14,-156,-97,-131,78,-175
-63,-102,-39,82,-12,-70,14,-146,-82,-122,78,-170
-53,-92,-39,73,-7,-65,19,-122,-43,-92,92,-161
-43,-87,-43,65,0,-65,39,-78,14,-39,122,-146
-34,-68,-34,51,0,-51,58,0,78,9,146,-126
-34,-68,-34,51,0,-51,73,92,151,68,180,-112
-9,-58,-48,34,19,-53,73,161,214,146,248,-68
43,-19,-63,-12,53,-41,53,190,234,239,341,-9
112,9,-102,-61,107,-46,4,200,229,317,439,58
200,39,-161,-119,180,-61,-34,224,263,414,556,126
287,73,-214,-180,251,-70,-73,283,312,522,658,190
366,87,-278,-226,322,-95,-117,331,370,629,751,234
473,131,-341,-302,407,-104,-200,268,385,751,873,307
605,219,-385,-412,495,-82,-322,73,341,883,1044,444
702,307,-395,-505,549,-43,-448,-131,278,980,1200,566
766,409,-356,-588,561,26,-546,-326,190,1039,1317,683
819,473,-346,-646,583,63,-634,-585,53,1039,1376,751
849,512,-336,-680,592,87,-727,-902,-180,897,1332,761
795,527,-268,-661,531,129,-775,-1259,-473,629,1171,712
653,536,-117,-595,385,209,-800,-1629,-751,351,956,644
502,566,63,-534,219,314,-819,-1917,-971,136,795,605
326,600,273,-463,26,436,-785,-2078,-1137,-53,649,570
92,614,522,-353,-214,568,-717,-2244,-1302,-278,468,502
-141,570,712,-214,-427,641,-644,-2391,-1454,-536,234,375
-278,434,712,-78,-495,573,-541,-2352,-1537,-761,-29,156
-356,268,624,43,-490,446,-414,-2186,-1537,-907,-239,-73
-424,156,580,134,-502,368,-331,-2064,-1507,-946,-326,-214
-453,126,580,163,-517,353,-263,-1952,-1424,-902,-326,-239
-453,87,541,183,-497,314,-234,-1810,-1342,-868,-317,-244
-424,53,478,185,-451,265,-253,-1708,-1307,-858,-317,-258
-370,29,400,170,-385,214,-253,-1600,-1249,-814,-292,-268
-351,-4,346,178,-348,170,-209,-1410,-1102,-732,-258,-268
-341,-29,312,185,-326,141,-161,-1220,-941,-653,-234,-287
-307,-53,253,180,-280,100,-141,-1083,-814,-580,-209,-297
-273,-63,209,168,-241,73,-122,-961,-697,-488,-151,-278
-229,-48,180,139,-204,65,-112,-839,-570,-395,-92,-244
-175,-34,141,104,-158,53,-107,-707,-468,-302,-19,-200
-122,-14,107,68,-114,46,-78,-566,-366,-229,43,-161
-97,9,107,43,-102,58,-43,-414,-258,-161,87,-126
-73,24,97,24,-85,61,-29,-283,-170,-117,112,-102
-53,39,92,7,-73,65,-29,-180,-97,-82,136,-82
-48,48,97,0,-73,73,-9,-126,-48,-63,151,-82
-39,43,82,-2,-61,63,-9,-122,-24,-48,146,-82
-24,43,68,-9,-46,56,-14,-112,-24,-48,146,-87
-14,34,48,-9,-31,41,-4,-97,-24,-34,151,-87
-4,19,24,-7,-14,21,-4,-82,-24,-29,165,-87
-4,9,14,-2,-9,12,0,-58,-9,-24,165,-87
-9,9,19,0,-14,14,4,-29,4,-19,165,-87
-9,9,19,0,-14,14,4,-14,14,-14,165,-87
0,24,24,-12,-12,24,4,-4,24,-19,156,-87
0,24,24,-12,-12,24,4,-4,34,-14,161,-87
4,29,24,-17,-9,26,4,-9,34,-14,161,-87
4,29,24,-17,-9,26,4,-9,34,-9,161,-87
19,29,9,-24,4,19,-4,0,34,-9,170,-97
19,19,0,-19,9,9,-4,9,39,-9,175,-97
24,19,-4,-21,14,7,-4,24,43,0,175,-97
24,24,0,-24,12,12,-4,34,53,4,180,-92
19,24,4,-21,7,14,4,43,58,9,170,-92
19,24,4,-21,7,14,4,43,63,9,180,-92
24,24,0,-24,12,12,0,43,68,14,180,-92
24,24,0,-24,12,12,0,43,68,14,180,-87
29,24,-4,-26,17,9,0,43,58,24,180,-87
29,24,-4,-26,17,9,0,53,68,34,185,-87
29,24,-4,-26,17,9,4,58,68,34,185,-87
34,24,-9,-29,21,7,4,63,73,34,185,-82
34,29,-4,-31,19,12,-4,68,87,34,190,-73
34,29,-4,-31,19,12,-4,73,92,43,190,-73
39,29,-9,-34,24,9,-9,78,92,43,190,-73
39,29,-9,-34,24,9,-9,78,92,43,195,-73
29,29,0,-29,14,14,-9,78,92,48,195,-68
29,29,0,-29,14,14,-9,82,102,48,200,-68
29,34,4,-31,12,19,-9,92,102,48,200,-68
34,34,0,-34,17,17,-14,97,107,58,204,-68
34,43,9,-39,12,26,-14,92,107,58,204,-63
34,48,14,-41,9,31,-14,97,112,63,204,-63
34,48,14,-41,9,31,-14,97,117,63,214,-63
34,48,14,-41,9,31,-14,97,117,73,214,-63
48,58,9,-53,19,34,-14,107,117,73,214,-63
48,58,9,-53,19,34,-14,107,126,73,214,-58
48,63,14,-56,17,39,-19,117,131,73,219,-58
53,63,9,-58,21,36,-19,117,131,82,219,-53
43,53,9,-48,17,31,-29,117,141,87,224,-53
43,58,14,-51,14,36,-29,117,151,92,224,-53
43,63,19,-53,12,41,-29,126,151,92,229,-48
48,63,14,-56,17,39,-29,131,151,97,229,-48
48,63,14,-56,17,39,-24,141,146,97,234,-48
48,68,19,-58,14,43,-24,141,146,97,239,-43
53,68,14,-61,19,41,-24,141,146,107,239,-43
53,68,14,-61,19,41,-29,151,151,107,248,-39
63,78,14,-70,24,46,-29,146,151,122,248,-39
68,82,14,-75,26,48,-29,151,161,122,248,-29
68,82,14,-75,26,48,-29,156,165,131,248,-29
73,87,14,-80,29,51,-29,161,170,136,258,-29
73,87,14,-80,29,51,-29,175,180,141,248,-29
73,97,24,-85,24,61,-29,175,185,141,253,-24
73,97,24,-85,24,61,-34,180,190,141,258,-19
78,97,19,-87,29,58,-34,190,190,141,258,-19
82,102,19,-92,31,61,-43,190,180,151,268,-29
82,107,24,-95,29,65,-43,195,190,156,273,-24
87,107,19,-97,34,63,-43,200,195,161,278,-24
87,107,19,-97,34,63,-43,209,195,165,283,-19
87,112,24,-100,31,68,-43,214,195,165,287,-19
92,117,24,-104,34,70,-43,219,204,170,287,-19
97,117,19,-107,39,68,-43,224,209,175,287,-19
97,122,24,-109,36,73,-48,229,209,180,297,-14
97,117,19,-107,39,68,-48,239,219,195,307,-4
102,117,14,-109,43,65,-48,244,229,200,312,0
102,117,14,-109,43,65,-48,248,234,204,317,4
102,126,24,-114,39,75,-48,258,239,209,317,4
97,126,29,-112,34,78,-48,273,244,224,326,14
97,131,34,-114,31,82,-48,283,248,229,331,19
107,136,29,-122,39,82,-48,297,258,234,336,19
107,136,29,-122,39,82,-48,307,263,244,346,29
97,136,39,-117,29,87,-39,307,278,248,356,29
97,141,43,-119,26,92,-39,312,287,253,361,29
107,141,34,-124,36,87,-43,322,292,258,366,39
107,141,34,-124,36,87,-43,331,297,268,366,43
107,161,53,-134,26,107,-43,351,312,273,361,39
112,165,53,-139,29,109,-43,361,317,278,366,43
112,165,53,-139,29,109,-43,375,322,287,370,43
122,170,48,-146,36,109,-43,385,336,297,375,53
122,175,53,-148,34,114,-39,390,346,307,380,53
126,180,53,-153,36,117,-39,400,346,312,390,58
131,185,53,-158,39,119,-39,419,366,326,395,63
131,190,58,-161,36,124,-39,424,375,331,405,68
141,195,53,-168,43,124,-39,453,395,351,419,73
151,200,48,-175,51,124,-34,458,405,361,424,78
151,204,53,-178,48,129,-34,478,414,370,434,82
151,209,58,-180,46,134,-34,492,424,380,444,87
151,204,53,-178,48,129,-34,517,439,400,448,102
156,214,58,-185,48,136,-29,531,453,414,458,112
156,219,63,-187,46,141,-29,546,468,424,463,117
161,224,63,-192,48,143,-29,561,473,434,473,122
170,239,68,-204,51,153,-29,566,497,453,492,126
170,244,73,-207,48,158,-24,580,517,463,497,131
170,244,73,-207,48,158,-14,600,531,473,507,141
170,248,78,-209,46,163,-9,614,536,483,517,146
170,253,82,-212,43,168,-14,629,551,483,527,151
170,258,87,-214,41,173,-14,644,561,492,527,156
175,263,87,-219,43,175,-14,653,580,502,531,161
175,273,97,-224,39,185,-9,668,590,512,536,161
175,278,102,-226,36,190,-9,683,614,531,546,161
175,283,107,-229,34,195,0,697,629,541,556,170
175,287,112,-231,31,200,0,712,644,551,561,175
175,287,112,-231,31,200,4,722,649,561,566,180
175,302,126,-239,24,214,4,727,663,570,570,170
175,307,131,-241,21,219,9,741,673,580,570,180
175,312,136,-244,19,224,14,751,688,590,575,185
175,317,141,-246,17,229,19,761,697,590,585,185
165,322,156,-244,4,239,29,761,712,600,595,200
165,326,161,-246,2,244,34,775,722,614,600,200
161,326,165,-244,-2,246,34,775,732,619,605,204
161,331,170,-246,-4,251,34,780,741,624,610,209
161,331,170,-246,-4,251,43,785,751,639,614,204
156,331,175,-244,-9,253,39,785,751,644,619,209
156,336,180,-246,-12,258,39,785,756,649,624,209
146,336,190,-241,-21,263,39,785,756,649,624,209
136,336,200,-236,-31,268,43,766,756,653,614,200
131,341,209,-236,-39,275,43,746,756,653,614,204
131,341,209,-236,-39,275,48,727,756,653,619,204
126,341,214,-234,-43,278,48,702,741,644,619,204
122,331,209,-226,-43,270,39,668,727,624,610,214
117,331,214,-224,-48,273,39,649,712,614,610,214
112,331,219,-222,-53,275,34,619,692,605,600,204
107,322,214,-214,-53,268,29,595,663,590,585,200
102,317,214,-209,-56,265,24,551,639,561,566,190
97,312,214,-204,-58,263,24,522,614,546,561,180
92,307,214,-200,-61,261,19,492,580,522,541,165
82,302,219,-192,-68,261,14,453,551,502,527,156
78,287,209,-183,-65,248,9,429,517,478,507,146
78,283,204,-180,-63,244,4,395,483,444,488,126
73,273,200,-173,-63,236,0,361,453,414,468,117
68,263,195,-165,-63,229,-4,331,424,385,439,107
63,244,180,-153,-58,212,-9,287,385,361,419,82
58,224,165,-141,-53,195,-14,253,356,336,400,73
48,214,165,-131,-58,190,-19,224,326,312,380,58
43,195,151,-119,-53,173,-24,190,297,283,361,48
48,180,131,-114,-41,156,-29,165,268,244,341,43
39,170,131,-104,-46,151,-34,141,239,224,317,29
34,165,131,-100,-48,148,-34,112,214,195,297,9
34,156,122,-95,-43,139,-39,92,185,170,278,-9
19,141,122,-80,-51,131,-43,78,161,146,263,-24
14,131,117,-73,-51,124,-48,53,141,126,248,-34
9,122,112,-65,-51,117,-48,39,122,102,229,-39
4,107,102,-56,-48,104,-48,19,102,87,219,-48
9,97,87,-53,-39,92,-48,4,82,68,204,-58
4,87,82,-46,-39,85,-53,-9,68,53,190,-73
0,78,78,-39,-39,78,-53,-19,48,43,180,-82
0,73,73,-36,-36,73,-58,-34,39,29,170,-92
-14,63,78,-24,-46,70,-48,-34,34,24,170,-97
-14,58,73,-21,-43,65,-48,-43,19,9,161,-102
-14,48,63,-17,-39,56,-48,-53,14,4,151,-107
-19,39,58,-9,-39,48,-48,-63,4,-4,141,-117
-19,29,48,-4,-34,39,-48,-73,-4,-14,131,-107
-19,29,48,-4,-34,39,-48,-82,-9,-19,131,-112
-24,24,48,0,-36,36,-48,-87,-19,-19,126,-122
-24,19,43,2,-34,31,-48,-87,-19,-24,122,-126
-24,14,39,4,-31,26,-48,-87,-24,-29,117,-122
-29,9,39,9,-34,24,-53,-92,-29,-34,117,-122
-29,9,39,9,-34,24,-53,-92,-34,-39,112,-122
-29,9,39,9,-34,24,-48,-92,-34,-43,112,-122
-19,9,29,4,-24,19,-48,-107,-39,-39,107,-136
-24,4,29,9,-26,17,-48,-107,-39,-43,102,-136
-24,4,29,9,-26,17,-48,-107,-39,-43,102,-136
-24,4,29,9,-26,17,-53,-112,-39,-43,102,-141
-24,4,29,9,-26,17,-53,-102,-43,-53,102,-146
-29,0,29,14,-29,14,-53,-102,-43,-53,102,-146
-29,0,29,14,-29,14,-48,-102,-43,-58,102,-146
-29,0,29,14,-29,14,-48,-102,-43,-58,102,-146
-39,0,39,19,-39,19,-39,-102,-43,-48,97,-146
-34,0,34,17,-34,17,-39,-102,-43,-48,97,-146
-34,0,34,17,-34,17,-39,-102,-43,-53,97,-151
-34,0,34,17,-34,17,-39,-102,-43,-53,97,-151
-34,-4,29,19,-31,12,-39,-92,-43,-53,92,-141
-39,-4,34,21,-36,14,-39,-92,-43,-53,92,-141
-39,-4,34,21,-36,14,-39,-92,-43,-53,92,-141
-39,-4,34,21,-36,14,-39,-92,-43,-53,92,-141
-39,0,39,19,-39,19,-39,-102,-43,-53,92,-141
-39,0,39,19,-39,19,-39,-102,-43,-48,92,-141
-39,0,39,19,-39,19,-39,-102,-43,-48,87,-141
-39,0,39,19,-39,19,-39,-102,-43,-48,87,-141
-29,0,29,14,-29,14,-48,-97,-39,-48,92,-141
-29,0,29,14,-29,14,-48,-97,-39,-48,92,-141
-29,0,29,14,-29,14,-48,-97,-39,-48,97,-136
-29,-4,24,17,-26,9,-48,-97,-39,-48,97,-136
-39,-4,34,21,-36,14,-43,-97,-39,-39,97,-136
-34,-4,29,19,-31,12,-43,-92,-39,-39,97,-136
-34,-4,29,19,-31,12,-48,-92,-39,-39,97,-136
-34,-4,29,19,-31,12,-48,-92,-34,-39,97,-136
-39,4,43,17,-41,24,-43,-92,-34,-39,107,-141
-39,4,43,17,-41,24,-43,-92,-34,-39,107,-141
-39,0,39,19,-39,19,-43,-92,-34,-39,112,-141
-39,0,39,19,-39,19,-48,-92,-34,-39,112,-141
-39,0,39,19,-39,19,-39,-92,-34,-39,107,-131
-39,0,39,19,-39,19,-39,-92,-34,-34,107,-131
-43,0,43,21,-43,21,-39,-87,-34,-34,107,-131
-43,4,48,19,-46,26,-39,-87,-29,-34,107,-131
-39,4,43,17,-41,24,-39,-87,-29,-34,107,-122
-39,4,43,17,-41,24,-39,-87,-29,-34,107,-122
-39,0,39,19,-39,19,-39,-87,-29,-34,107,-117
-39,0,39,19,-39,19,-39,-87,-29,-39,107,-117
-39,0,39,19,-39,19,-48,-87,-29,-29,107,-126
-39,0,39,19,-39,19,-48,-87,-29,-24,107,-126
-39,0,39,19,-39,19,-43,-87,-29,-24,107,-126
-39,0,39,19,-39,19,-43,-87,-34,-24,102,-131
-43,0,43,21,-43,21,-43,-87,-34,-29,102,-122
-43,0,43,21,-43,21,-43,-92,-34,-29,102,-122
-43,0,43,21,-43,21,-43,-92,-34,-29,107,-122
-43,0,43,21,-43,21,-43,-92,-34,-29,107,-122
-43,-9,34,26,-39,12,-39,-92,-24,-34,102,-131
-43,-9,34,26,-39,12,-39,-92,-24,-34,102,-131
-43,-9,34,26,-39,12,-39,-92,-29,-34,102,-126
-43,-9,34,26,-39,12,-39,-92,-29,-34,102,-126
-43,-4,39,24,-41,17,-39,-92,-29,-34,112,-126
-43,-4,39,24,-41,17,-39,-97,-29,-34,112,-126
-43,-4,39,24,-41,17,-39,-97,-29,-34,112,-126
-43,-4,39,24,-41,17,-39,-97,-29,-34,112,-126
-43,-4,39,24,-41,17,-43,-97,-39,-34,97,-117
-43,-4,39,24,-41,17,-43,-97,-43,-34,97,-122
-39,-4,34,21,-36,14,-43,-102,-43,-39,97,-126
-39,-4,34,21,-36,14,-43,-102,-43,-43,97,-126
-43,-4,39,24,-41,17,-43,-112,-43,-43,97,-117
-43,-4,39,24,-41,17,-43,-112,-48,-43,92,-122
-43,-4,39,24,-41,17,-43,-112,-48,-43,92,-122
-43,-9,34,26,-39,12,-43,-117,-48,-43,92,-122
-43,-19,24,31,-34,2,-43,-107,-48,-48,92,-131
-43,-19,24,31,-34,2,-43,-112,-53,-48,92,-131
-43,-19,24,31,-34,2,-43,-112,-53,-48,87,-131
-48,-19,29,34,-39,4,-43,-112,-53,-48,87,-136
-48,-19,29,34,-39,4,-43,-117,-43,-53,87,-136
-48,-19,29,34,-39,4,-43,-117,-43,-58,87,-136
-48,-24,24,36,-36,0,-43,-117,-48,-58,87,-136
-48,-24,24,36,-36,0,-43,-117,-48,-58,82,-136
-53,-34,19,43,-36,-7,-43,-117,-58,-58,82,-136
-53,-29,24,41,-39,-2,-43,-122,-63,-58,82,-136
-53,-29,24,41,-39,-2,-43,-122,-63,-58,78,-136
-53,-29,24,41,-39,-2,-43,-126,-63,-58,78,-136
-53,-29,24,41,-39,-2,-39,-117,-53,-58,87,-126
-53,-29,24,41,-39,-2,-39,-117,-53,-58,87,-131
-53,-29,24,41,-39,-2,-39,-117,-58,-63,87,-131
-53,-29,24,41,-39,-2,-34,-117,-58,-68,87,-131
-48,-29,19,39,-34,-4,-34,-126,-58,-63,78,-136
-48,-29,19,39,-34,-4,-34,-126,-58,-63,78,-136
-48,-34,14,41,-31,-9,-34,-126,-63,-63,78,-141
-48,-34,14,41,-31,-9,-39,-126,-63,-63,73,-141
-58,-34,24,46,-41,-4,-39,-117,-68,-63,73,-146
-58,-34,24,46,-41,-4,-39,-122,-68,-63,73,-146
-58,-34,24,46,-41,-4,-39,-122,-68,-63,73,-146
-58,-34,24,46,-41,-4,-34,-126,-68,-63,73,-146
-58,-39,19,48,-39,-9,-34,-126,-78,-73,73,-136
-58,-39,19,48,-39,-9,-34,-126,-73,-73,73,-136
-58,-39,19,48,-39,-9,-34,-126,-73,-73,73,-141
-58,-39,19,48,-39,-9,-34,-126,-73,-73,68,-141
-58,-39,19,48,-39,-9,-43,-136,-63,-73,68,-131
-58,-39,19,48,-39,-9,-43,-136,-68,-73,68,-131
-58,-39,19,48,-39,-9,-43,-136,-68,-78,68,-136
-58,-39,19,48,-39,-9,-43,-136,-68,-78,68,-136
-58,-39,19,48,-39,-9,-34,-136,-68,-68,68,-136
-63,-39,24,51,-43,-7,-34,-136,-68,-68,63,-136
-63,-39,24,51,-43,-7,-34,-136,-73,-73,63,-136
-58,-43,14,51,-36,-14,-34,-141,-73,-73,68,-136
-58,-43,14,51,-36,-14,-34,-131,-73,-73,68,-136
-63,-43,19,53,-41,-12,-34,-131,-73,-73,63,-136
-63,-39,24,51,-43,-7,-34,-131,-73,-73,63,-136
-63,-39,24,51,-43,-7,-34,-131,-73,-73,63,-136
-73,-39,34,56,-53,-2,-43,-131,-78,-73,63,-136
-73,-43,29,58,-51,-7,-43,-131,-78,-73,63,-141
-73,-43,29,58,-51,-7,-43,-131,-78,-73,63,-141
-73,-43,29,58,-51,-7,-43,-131,-78,-73,58,-141
-63,-43,19,53,-41,-12,-34,-141,-78,-73,58,-131
-63,-48,14,56,-39,-17,-34,-141,-78,-73,58,-131
-63,-48,14,56,-39,-17,-34,-136,-78,-73,58,-131
-63,-48,14,56,-39,-17,-34,-136,-78,-73,58,-131
-63,-48,14,56,-39,-17,-34,-136,-73,-73,58,-141
-63,-48,14,56,-39,-17,-34,-136,-73,-73,58,-136
-63,-48,14,56,-39,-17,-34,-136,-78,-73,58,-136
-63,-48,14,56,-39,-17,-34,-141,-78,-78,58,-136
-68,-48,19,58,-43,-14,-24,-131,-68,-78,58,-126
-73,-48,24,61,-48,-12,-24,-131,-68,-73,58,-126
-82,-48,34,65,-58,-7,-24,-131,-68,-73,58,-126
-87,-48,39,68,-63,-4,-19,-131,-68,-73,63,-126
-82,-53,29,68,-56,-12,-29,-131,-78,-73,63,-126
-82,-53,29,68,-56,-12,-29,-131,-78,-73,63,-126
-82,-53,29,68,-56,-12,-29,-131,-78,-78,63,-126
-87,-53,34,70,-61,-9,-29,-131,-73,-78,63,-126
-73,-53,19,63,-46,-17,-39,-141,-82,-87,48,-136
-68,-53,14,61,-41,-19,-39,-141,-82,-87,48,-136
-63,-53,9,58,-36,-21,-39,-141,-87,-87,48,-136
-58,-53,4,56,-31,-24,-39,-141,-87,-87,48,-136
-68,-53,14,61,-41,-19,-39,-141,-87,-82,48,-126
-68,-53,14,61,-41,-19,-39,-141,-87,-82,48,-126
-68,-53,14,61,-41,-19,-39,-141,-82,-82,48,-126
-68,-53,14,61,-41,-19,-39,-141,-82,-82,48,-126
-68,-53,14,61,-41,-19,-39,-141,-78,-82,48,-126
-68,-53,14,61,-41,-19,-39,-141,-78,-82,48,-126
-68,-53,14,61,-41,-19,-39,-141,-78,-82,48,-126
-68,-53,14,61,-41,-19,-39,-141,-73,-82,48,-131
-58,-53,4,56,-31,-24,-39,-141,-73,-92,48,-122
-58,-53,4,56,-31,-24,-39,-141,-73,-92,48,-122
-58,-53,4,56,-31,-24,-39,-146,-78,-92,48,-122
-58,-53,4,56,-31,-24,-39,-146,-78,-92,48,-122
-68,-53,14,61,-41,-19,-34,-141,-73,-87,58,-112
-78,-53,24,65,-51,-14,-29,-136,-68,-82,58,-112
-87,-53,34,70,-61,-9,-24,-126,-63,-78,58,-112
-97,-53,43,75,-70,-4,-19,-122,-58,-73,53,-112
-82,-39,43,61,-63,2,-19,-131,-58,-73,53,-112
-78,-34,43,56,-61,4,-19,-131,-58,-73,53,-112
-73,-29,43,51,-58,7,-19,-131,-53,-73,53,-112
-68,-29,39,48,-53,4,-19,-131,-53,-73,53,-112
-48,-19,29,34,-39,4,-19,-117,-43,-53,63,-102
-29,0,29,14,-29,14,-29,-126,-48,-58,68,-107
-34,0,34,17,-34,17,-19,-122,-43,-48,78,-97
-39,0,39,19,-39,19,-19,-117,-39,-48,78,-97
-43,0,43,21,-43,21,-19,-112,-34,-48,78,-97
-48,0,48,24,-48,24,-19,-107,-29,-48,78,-97
-48,14,63,17,-56,39,-19,-107,-14,-39,87,-92
-48,19,68,14,-58,43,-19,-102,-14,-39,92,-82
-43,19,63,12,-53,41,-19,-97,-14,-34,92,-78
-43,19,63,12,-53,41,-19,-97,-14,-34,92,-73
-34,24,58,4,-46,41,-29,-107,-24,-43,87,-82
-19,24,43,-2,-31,34,-29,-97,-19,-43,87,-82
-9,24,34,-7,-21,29,-29,-97,-19,-43,87,-82
0,24,24,-12,-12,24,-39,-97,-19,-43,87,-82
-14,24,39,-4,-26,31,-34,-97,-19,-34,87,-73
-19,29,48,-4,-34,39,-34,-92,-14,-34,87,-73
-24,39,63,-7,-43,51,-39,-92,-9,-24,87,-63
-24,43,68,-9,-46,56,-48,-97,-9,-19,97,-58
-34,48,82,-7,-58,65,-63,-107,-9,-19,97,-43
-34,53,87,-9,-61,70,-73,-112,-14,-19,97,-43
-24,58,82,-17,-53,70,-82,-126,-14,-14,107,-39
-19,68,87,-24,-53,78,-97,-131,-14,-9,117,-29
-9,63,73,-26,-41,68,-102,-131,-24,-9,117,-39
-9,63,73,-26,-41,68,-102,-131,-34,-9,117,-39
-9,63,73,-26,-41,68,-107,-136,-39,-19,117,-39
-9,53,63,-21,-36,58,-107,-141,-43,-24,112,-43
-9,48,58,-19,-34,53,-97,-146,-39,-29,112,-48
-14,43,58,-14,-36,51,-92,-146,-43,-34,107,-53
-19,39,58,-9,-39,48,-92,-141,-48,-39,102,-53
-24,39,63,-7,-43,51,-92,-141,-58,-39,102,-53
-29,34,63,-2,-46,48,-82,-136,-58,-43,102,-53
-29,29,58,0,-43,43,-78,-136,-63,-48,97,-63
-29,24,53,2,-41,39,-73,-146,-68,-53,92,-63
-29,19,48,4,-39,34,-68,-146,-68,-53,92,-63
-29,19,48,4,-39,34,-73,-146,-78,-63,87,-73
-24,14,39,4,-31,26,-68,-156,-82,-63,78,-78
-14,14,29,0,-21,21,-68,-161,-87,-73,68,-87
-9,0,9,4,-9,4,-68,-165,-92,-78,58,-97
-14,-9,4,12,-9,-2,-68,-175,-92,-82,63,-97
-24,-19,4,21,-14,-7,-63,-175,-97,-87,53,-102
-24,-24,0,24,-12,-12,-58,-175,-97,-92,48,-107
-29,-29,0,29,-14,-14,-53,-170,-97,-92,48,-112
-43,-34,9,39,-26,-12,-48,-161,-97,-92,39,-112
-53,-39,14,46,-34,-12,-43,-156,-97,-97,39,-122
-68,-43,24,56,-46,-9,-43,-156,-97,-97,29,-122
-82,-43,39,63,-61,-2,-39,-156,-97,-97,29,-122
-97,-53,43,75,-70,-4,-29,-165,-97,-107,34,-122
-102,-58,43,80,-73,-7,-29,-175,-107,-117,29,-122
-102,-63,39,82,-70,-12,-29,-175,-112,-122,29,-131
-97,-68,29,82,-63,-19,-29,-185,-117,-126,24,-136
-87,-78,9,82,-48,-34,-39,-180,-126,-122,9,-136
-87,-78,9,82,-48,-34,-39,-180,-126,-122,9,-141
-87,-78,9,82,-48,-34,-39,-180,-126,-122,9,-141
-87,-78,9,82,-48,-34,-39,-180,-126,-122,9,-141
-78,-73,4,75,-41,-34,-39,-180,-126,-131,0,-151
-78,-73,4,75,-41,-34,-39,-180,-126,-131,0,-151
-78,-73,4,75,-41,-34,-39,-180,-126,-131,0,-151
-78,-73,4,75,-41,-34,-39,-180,-126,-131,0,-156
-97,-78,19,87,-58,-29,-34,-170,-117,-126,14,-141
-112,-78,34,95,-73,-21,-29,-165,-112,-122,19,-131
-126,-78,48,102,-87,-14,-19,-165,-112,-117,24,-126
-141,-78,63,109,-102,-7,-14,-165,-112,-112,29,-122
-112,-82,29,97,-70,-26,-29,-170,-117,-126,14,-136
-92,-82,9,87,-51,-36,-34,-175,-122,-131,4,-141
-73,-82,-9,78,-31,-46,-34,-180,-126,-136,0,-146
-53,-82,-29,68,-12,-56,-39,-185,-131,-141,-4,-151
-58,-82,-24,70,-17,-53,-34,-170,-117,-131,4,-141
-68,-82,-14,75,-26,-48,-24,-170,-117,-131,4,-146
-73,-82,-9,78,-31,-46,-19,-170,-117,-131,4,-146
-78,-82,-4,80,-36,-43,-14,-170,-117,-131,4,-146
-87,-82,4,85,-46,-39,-14,-175,-117,-122,4,-136
-87,-82,4,85,-46,-39,-14,-175,-117,-122,4,-136
-87,-82,4,85,-46,-39,-14,-175,-117,-122,4,-136
-87,-82,4,85,-46,-39,-9,-175,-112,-117,4,-136
-87,-92,-4,90,-41,-48,-9,-165,-112,-117,4,-136
-87,-92,-4,90,-41,-48,-9,-165,-112,-117,9,-136
-87,-92,-4,90,-41,-48,-9,-165,-112,-117,9,-136
-87,-92,-4,90,-41,-48,-9,-161,-112,-117,9,-136
-87,-92,-4,90,-41,-48,-9,-161,-107,-117,9,-131
-87,-92,-4,90,-41,-48,-9,-161,-107,-117,9,-131
-87,-92,-4,90,-41,-48,-9,-161,-107,-112,9,-131
-87,-87,0,87,-43,-43,-9,-161,-107,-112,9,-131
-87,-87,0,87,-43,-43,-9,-161,-107,-112,0,-141
-92,-87,4,90,-48,-41,-9,-161,-107,-112,0,-141
-92,-87,4,90,-48,-41,-9,-161,-112,-117,0,-141
-92,-92,0,92,-46,-46,-9,-151,-112,-117,0,-146
-92,-82,9,87,-51,-36,4,-146,-97,-112,9,-136
-92,-82,9,87,-51,-36,4,-136,-73,-92,9,-131
-92,-73,19,82,-56,-26,19,-112,-43,-63,24,-122
-92,-68,24,80,-58,-21,29,-48,14,-29,53,-117
-82,-58,24,70,-53,-17,58,29,87,29,78,-107
-53,-48,4,51,-29,-21,73,122,161,107,122,-73
-19,-29,-9,24,-4,-19,53,170,204,195,209,-19
43,0,-43,-21,43,-21,24,180,214,287,322,58
112,39,-73,-75,92,-17,-24,190,229,375,419,126
200,78,-122,-139,161,-21,-73,224,263,473,527,195
287,102,-185,-195,236,-41,-102,302,322,580,629,248
366,126,-239,-246,302,-56,-156,341,380,707,741,302
473,190,-283,-331,378,-46,-258,219,375,849,893,405
585,268,-317,-427,451,-24,-380,4,322,980,1063,551
653,366,-287,-509,470,39,-478,-170,268,1078,1220,673
717,458,-258,-588,488,100,-566,-375,180,1117,1317,771
761,512,-248,-636,505,131,-663,-663,-4,1058,1337,810
741,541,-200,-641,470,170,-736,-1000,-278,849,1224,780
649,546,-102,-597,375,222,-775,-1356,-580,541,1015,712
517,556,39,-536,239,297,-800,-1708,-849,263,800,634
366,595,229,-480,68,412,-800,-1937,-1039,58,639,605
161,610,448,-385,-143,529,-736,-2088,-1195,-141,483,561
-82,605,688,-261,-385,646,-658,-2254,-1361,-375,283,473
-278,522,800,-122,-539,661,-575,-2322,-1473,-624,39,307
-366,366,732,0,-549,549,-483,-2205,-1517,-819,-195,68
-424,219,644,102,-534,431,-366,-2049,-1507,-907,-356,-122
-483,146,629,168,-556,387,-283,-1947,-1449,-897,-405,-195
-512,126,639,192,-575,383,-224,-1825,-1356,-854,-385,-209
-492,87,580,202,-536,334,-224,-1693,-1302,-839,-385,-224
-444,53,497,195,-470,275,-253,-1620,-1268,-810,-366,-229
-409,19,429,195,-419,224,-244,-1483,-1171,-756,-331,-219
-390,-14,375,202,-383,180,-190,-1293,-1024,-673,-297,-239
-370,-48,322,209,-346,136,-141,-1122,-883,-595,-273,-248
-336,-73,263,204,-300,95,-122,-1005,-766,-522,-239,-248
-283,-73,209,178,-246,68,-122,-893,-649,-429,-190,-229
-239,-48,190,143,-214,70,-112,-761,-531,-346,-122,-185
-195,-34,161,114,-178,63,-97,-639,-429,-253,-58,-131
-161,-14,146,87,-153,65,-58,-497,-326,-190,-14,-102
-136,0,136,68,-136,68,-34,-356,-229,-131,29,-68
-112,14,126,48,-119,70,-19,-234,-151,-78,63,-43
-92,29,122,31,-107,75,-9,-161,-78,-53,87,-34
-78,29,107,24,-92,68,0,-126,-48,-34,102,-34
-68,34,102,17,-85,68,0,-112,-24,-29,97,-34
-53,34,87,9,-70,61,-4,-112,-24,-29,97,-39
-43,24,68,9,-56,46,4,-97,-24,-24,92,-48
-34,19,53,7,-43,36,4,-82,-24,-19,97,-48
-34,9,43,12,-39,26,9,-58,-9,-14,97,-48
-39,9,48,14,-43,29,14,-29,4,-9,97,-48
-39,9,48,14,-43,29,14,-14,14,-4,97,-48
-39,4,43,17,-41,24,14,-14,24,0,107,-39
-39,4,43,17,-41,24,14,-14,34,4,112,-39
-34,9,43,12,-39,26,14,-19,34,4,112,-39
-34,9,43,12,-39,26,14,-19,34,9,112,-39
-29,9,39,9,-34,24,14,-9,34,9,112,-48
-29,0,29,14,-29,14,14,0,39,9,117,-48
-24,0,24,12,-24,12,14,14,43,19,117,-48
-24,4,29,9,-26,17,14,24,53,24,122,-43
-19,4,24,7,-21,14,14,43,58,29,122,-34
-19,4,24,7,-21,14,14,43,63,29,131,-34
-14,4,19,4,-17,12,9,43,68,34,131,-34
-14,4,19,4,-17,12,9,43,68,34,131,-29
-9,14,24,-2,-17,19,9,34,58,34,122,-39
-9,14,24,-2,-17,19,9,43,68,43,126,-39
-9,14,24,-2,-17,19,14,48,68,43,126,-39
-4,14,19,-4,-12,17,14,53,73,43,126,-34
-14,9,24,2,-19,17,4,68,78,43,141,-34
-14,9,24,2,-19,17,4,73,82,53,141,-34
-9,9,19,0,-14,14,0,78,82,53,141,-34
-9,9,19,0,-14,14,0,78,82,53,146,-34
-9,19,29,-4,-19,24,9,68,82,58,136,-19
-9,19,29,-4,-19,24,9,73,92,58,141,-19
-9,24,34,-7,-21,29,9,82,92,58,141,-19
-4,24,29,-9,-17,26,4,87,97,68,146,-19
-4,14,19,-4,-12,17,4,92,97,68,146,-14
-4,19,24,-7,-14,21,4,97,102,73,146,-14
-4,19,24,-7,-14,21,4,97,107,73,156,-14
-4,19,24,-7,-14,21,4,97,107,82,156,-14
0,29,29,-14,-14,29,4,107,107,82,156,-24
0,29,29,-14,-14,29,4,107,117,82,156,-19
0,34,34,-17,-17,34,0,117,122,82,161,-19
4,34,29,-19,-12,31,0,117,122,92,161,-14
14,24,9,-19,2,17,0,117,122,97,175,-14
14,29,14,-21,0,21,0,117,131,102,175,-14
14,34,19,-24,-2,26,0,126,131,102,180,-9
19,34,14,-26,2,24,0,131,131,107,180,-9
9,34,24,-21,-7,29,4,141,136,107,175,-9
9,39,29,-24,-9,34,4,141,136,107,180,-4
14,39,24,-26,-4,31,4,141,136,117,180,-4
14,39,24,-26,-4,31,0,151,141,117,190,0
14,39,24,-26,-4,31,0,146,141,122,190,0
19,43,24,-31,-2,34,0,151,151,122,190,9
19,43,24,-31,-2,34,0,156,156,131,190,9
24,48,24,-36,0,36,0,161,161,136,200,9
24,48,24,-36,0,36,0,175,161,141,200,19
24,58,34,-41,-4,46,0,175,165,141,204,24
24,58,34,-41,-4,46,-4,180,170,141,209,29
29,58,29,-43,0,43,-4,190,170,141,209,29
34,63,29,-48,2,46,-4,190,170,151,209,29
34,68,34,-51,0,51,-4,195,180,156,214,34
39,68,29,-53,4,48,-4,200,185,161,219,34
39,68,29,-53,4,48,-4,209,185,165,224,39
39,73,34,-56,2,53,-4,214,185,165,229,39
43,78,34,-61,4,56,-4,219,195,170,229,39
48,78,29,-63,9,53,-4,224,200,175,229,39
48,82,34,-65,7,58,-9,229,200,180,239,43
48,78,29,-63,9,53,-9,248,200,185,248,43
53,78,24,-65,14,51,-9,253,209,190,253,48
53,78,24,-65,14,51,-9,258,214,195,258,53
53,87,34,-70,9,61,-9,268,219,200,258,53
68,87,19,-78,24,53,-9,273,234,204,258,53
68,92,24,-80,21,58,-9,283,239,209,263,58
78,97,19,-87,29,58,-9,297,248,214,268,58
78,97,19,-87,29,58,-9,307,253,224,278,68
78,107,29,-92,24,68,-9,317,258,229,278,68
78,112,34,-95,21,73,-9,322,268,234,283,68
87,112,24,-100,31,68,-14,331,273,239,287,78
87,112,24,-100,31,68,-14,341,278,248,287,82
87,122,34,-104,26,78,-14,351,292,253,302,87
92,126,34,-109,29,80,-14,361,297,258,307,92
92,126,34,-109,29,80,-14,375,302,268,312,92
102,131,29,-117,36,80,-14,385,317,278,317,102
102,136,34,-119,34,85,-9,400,317,297,322,102
107,141,34,-124,36,87,-9,409,317,302,331,107
112,146,34,-129,39,90,-9,429,336,317,336,112
112,151,39,-131,36,95,-9,434,346,322,346,117
112,156,43,-134,34,100,-9,453,366,322,351,122
122,161,39,-141,41,100,-4,458,375,331,356,126
122,165,43,-143,39,104,-4,478,385,341,366,131
122,170,48,-146,36,109,-4,492,395,351,375,136
122,185,63,-153,29,124,-4,507,400,361,370,141
126,195,68,-161,29,131,0,522,414,375,380,151
126,200,73,-163,26,136,0,536,429,385,385,156
131,204,73,-168,29,139,0,551,434,395,395,161
141,200,58,-170,41,129,0,575,448,405,405,165
141,204,63,-173,39,134,4,590,468,414,409,170
141,204,63,-173,39,134,14,610,483,424,419,180
141,209,68,-175,36,139,19,624,488,434,429,185
151,224,73,-187,39,148,24,629,502,444,439,180
151,229,78,-190,36,153,24,644,512,453,439,185
156,234,78,-195,39,156,24,653,531,463,444,190
156,244,87,-200,34,165,29,668,541,473,448,190
156,248,92,-202,31,170,29,683,556,473,458,190
156,253,97,-204,29,175,39,697,570,483,468,200
156,258,102,-207,26,180,39,712,585,492,473,204
156,258,102,-207,26,180,43,722,590,502,478,209
146,273,126,-209,9,200,43,736,605,522,483,209
146,278,131,-212,7,204,48,751,614,531,483,219
146,283,136,-214,4,209,53,761,629,541,488,224
146,287,141,-217,2,214,58,771,639,541,497,224
146,283,136,-214,4,209,58,771,644,541,497,229
146,287,141,-217,2,214,63,785,653,556,502,229
141,287,146,-214,-2,217,63,785,663,561,507,234
141,292,151,-217,-4,222,63,790,673,566,512,239
141,302,161,-222,-9,231,68,790,673,570,527,244
136,302,165,-219,-14,234,68,785,673,575,531,248
136,307,170,-222,-17,239,73,780,678,580,536,248
126,307,180,-217,-26,244,78,775,678,580,536,248
126,307,180,-217,-26,244,73,756,668,585,531,248
122,312,190,-217,-34,251,73,736,668,585,527,253
122,312,190,-217,-34,251,78,717,668,585,527,253
117,312,195,-214,-39,253,78,692,653,575,522,253
112,302,190,-207,-39,246,68,658,639,556,502,244
107,302,195,-204,-43,248,68,639,624,546,502,244
102,302,200,-202,-48,251,63,610,605,536,492,234
97,292,195,-195,-48,244,58,585,575,522,478,229
82,287,204,-185,-61,246,53,551,546,497,458,214
78,283,204,-180,-63,244,53,522,527,478,453,209
73,278,204,-175,-65,241,48,492,497,448,434,200
63,273,209,-168,-73,241,43,453,473,424,419,195
68,248,180,-158,-56,214,39,419,448,405,395,175
68,244,175,-156,-53,209,34,385,414,375,380,156
63,234,170,-148,-53,202,29,351,385,351,366,146
58,224,165,-141,-53,195,24,322,356,326,341,136
53,214,161,-134,-53,187,19,287,317,292,322,112
48,195,146,-122,-48,170,14,253,287,268,302,102
39,185,146,-112,-53,165,9,224,258,244,283,87
34,165,131,-100,-48,148,4,190,229,214,263,78
29,141,112,-85,-41,126,0,156,209,195,253,73
19,131,112,-75,-46,122,-4,131,180,175,229,58
14,126,112,-70,-48,119,-4,102,156,146,209,39
14,117,102,-65,-43,109,-9,82,126,122,190,19
9,112,102,-61,-46,107,-14,58,112,97,175,4
4,102,97,-53,-46,100,-19,34,92,78,161,-4
0,92,92,-46,-46,92,-19,19,73,53,141,-9
-4,78,82,-36,-43,80,-19,0,53,39,131,-19
-9,58,68,-24,-39,63,-19,-14,43,29,117,-19
-14,48,63,-17,-39,56,-24,-29,29,14,102,-34
-19,39,58,-9,-39,48,-24,-39,9,4,92,-43
-19,34,53,-7,-36,43,-29,-53,0,-9,82,-53
-24,34,58,-4,-41,46,-29,-53,-14,-24,82,-68
-24,29,53,-2,-39,41,-29,-63,-29,-39,73,-73
-24,19,43,2,-34,31,-29,-73,-34,-43,63,-78
-29,9,39,9,-34,24,-29,-82,-43,-53,53,-87
-29,0,29,14,-29,14,-19,-92,-43,-53,43,-78
-29,0,29,14,-29,14,-19,-102,-48,-58,43,-82
-34,-4,29,19,-31,12,-19,-107,-58,-58,39,-92
-34,-9,24,21,-29,7,-19,-107,-58,-63,34,-97
-34,-4,29,19,-31,12,-19,-107,-63,-68,29,-102
-39,-9,29,24,-34,9,-24,-112,-68,-73,29,-102
-39,-9,29,24,-34,9,-24,-112,-73,-78,24,-102
-39,-9,29,24,-34,9,-19,-112,-73,-82,24,-102
-39,-14,24,26,-31,4,-19,-107,-68,-78,29,-97
-43,-24,19,34,-31,-2,-19,-107,-68,-82,24,-97
-43,-29,14,36,-29,-7,-19,-107,-68,-82,24,-97
-43,-34,9,39,-26,-12,-24,-112,-68,-82,24,-102
-43,-24,19,34,-31,-2,-24,-112,-82,-82,14,-107
-48,-29,19,39,-34,-4,-24,-112,-82,-82,14,-107
-48,-29,19,39,-34,-4,-19,-112,-82,-87,14,-107
-48,-29,19,39,-34,-4,-19,-112,-82,-87,14,-107
-48,-29,19,39,-34,-4,-19,-112,-73,-78,9,-107
-43,-29,14,36,-29,-7,-19,-112,-73,-78,9,-107
-43,-29,14,36,-29,-7,-19,-112,-73,-82,9,-112
-43,-29,14,36,-29,-7,-19,-112,-73,-82,9,-112
-43,-24,19,34,-31,-2,-29,-112,-73,-92,4,-112
-48,-24,24,36,-36,0,-29,-112,-73,-92,4,-112
-48,-24,24,36,-36,0,-29,-112,-73,-92,4,-112
-48,-24,24,36,-36,0,-29,-112,-73,-92,4,-112
-48,-19,29,34,-39,4,-19,-112,-73,-92,4,-112
-48,-19,29,34,-39,4,-19,-112,-73,-87,4,-112
-48,-19,29,34,-39,4,-19,-112,-73,-87,0,-112
-48,-19,29,34,-39,4,-19,-112,-73,-87,0,-112
-39,-29,9,34,-24,-9,-29,-107,-68,-87,4,-112
-39,-29,9,34,-24,-9,-29,-107,-68,-87,4,-112
-39,-29,9,34,-24,-9,-29,-107,-68,-87,9,-107
-39,-34,4,36,-21,-14,-29,-107,-68,-87,9,-107
-48,-24,24,36,-36,0,-24,-107,-78,-87,9,-107
-43,-24,19,34,-31,-2,-24,-102,-78,-87,9,-107
-43,-24,19,34,-31,-2,-29,-102,-78,-87,9,-107
-43,-24,19,34,-31,-2,-29,-102,-73,-87,9,-107
-39,-24,14,31,-26,-4,-24,-102,-63,-78,9,-102
-39,-24,14,31,-26,-4,-24,-102,-63,-78,9,-102
-39,-29,9,34,-24,-9,-24,-102,-63,-78,14,-102
-39,-29,9,34,-24,-9,-29,-102,-63,-78,14,-102
-39,-19,19,29,-29,0,-29,-102,-73,-87,9,-102
-39,-19,19,29,-29,0,-29,-102,-73,-82,9,-102
-43,-19,24,31,-34,2,-29,-97,-73,-82,9,-102
-43,-14,29,29,-36,7,-29,-97,-68,-82,9,-102
-39,-24,14,31,-26,-4,-29,-107,-68,-82,9,-112
-39,-24,14,31,-26,-4,-29,-107,-68,-82,9,-112
-39,-29,9,34,-24,-9,-29,-107,-68,-82,9,-107
-39,-29,9,34,-24,-9,-29,-107,-68,-87,9,-107
-39,-19,19,29,-29,0,-29,-97,-68,-97,9,-107
-39,-19,19,29,-29,0,-29,-97,-68,-92,9,-107
-39,-19,19,29,-29,0,-24,-97,-68,-92,9,-107
-39,-19,19,29,-29,0,-24,-97,-73,-92,4,-112
-34,-19,14,26,-24,-2,-24,-97,-73,-87,4,-112
-34,-19,14,26,-24,-2,-24,-102,-73,-87,4,-112
-34,-19,14,26,-24,-2,-24,-102,-73,-87,9,-112
-34,-19,14,26,-24,-2,-24,-102,-73,-87,9,-112
-34,-19,14,26,-24,-2,-29,-102,-73,-92,4,-112
-34,-19,14,26,-24,-2,-29,-102,-73,-92,4,-112
-34,-19,14,26,-24,-2,-29,-102,-78,-92,4,-107
-34,-19,14,26,-24,-2,-29,-102,-78,-92,4,-107
-34,-24,9,29,-21,-7,-29,-112,-87,-92,-4,-117
-34,-24,9,29,-21,-7,-29,-117,-87,-92,-4,-117
-34,-24,9,29,-21,-7,-29,-117,-87,-92,-4,-117
-34,-24,9,29,-21,-7,-29,-117,-87,-92,-4,-117
-34,-24,9,29,-21,-7,-24,-117,-87,-102,0,-117
-34,-24,9,29,-21,-7,-24,-117,-92,-102,0,-122
-29,-24,4,26,-17,-9,-24,-122,-92,-107,0,-126
-29,-24,4,26,-17,-9,-24,-122,-92,-112,0,-126
-34,-34,0,34,-17,-17,-24,-122,-92,-102,0,-117
-34,-34,0,34,-17,-17,-24,-122,-97,-102,-4,-122
-34,-34,0,34,-17,-17,-24,-122,-97,-102,-4,-122
-34,-39,-4,36,-14,-21,-24,-126,-97,-102,-4,-122
-34,-39,-4,36,-14,-21,-24,-117,-87,-107,-4,-122
-34,-39,-4,36,-14,-21,-24,-122,-92,-107,-4,-122
-34,-39,-4,36,-14,-21,-24,-122,-92,-107,-9,-122
-39,-39,0,39,-19,-19,-24,-122,-92,-107,-9,-126
-39,-39,0,39,-19,-19,-24,-126,-92,-112,-19,-126
-39,-39,0,39,-19,-19,-24,-126,-92,-117,-19,-126
-39,-43,-4,41,-17,-24,-24,-126,-97,-117,-19,-126
-39,-43,-4,41,-17,-24,-24,-126,-97,-117,-24,-126
-43,-53,-9,48,-17,-31,-24,-126,-97,-117,-14,-126
-43,-48,-4,46,-19,-26,-24,-131,-102,-117,-14,-126
-43,-48,-4,46,-19,-26,-24,-131,-102,-117,-19,-126
-43,-48,-4,46,-19,-26,-24,-136,-102,-117,-19,-126
-43,-48,-4,46,-19,-26,-19,-136,-102,-117,-19,-126
-43,-48,-4,46,-19,-26,-19,-136,-102,-117,-19,-131
-43,-48,-4,46,-19,-26,-19,-136,-107,-122,-19,-131
-43,-48,-4,46,-19,-26,-14,-136,-107,-126,-19,-131
-48,-48,0,48,-24,-24,-24,-136,-107,-122,-29,-126
-48,-48,0,48,-24,-24,-24,-136,-107,-122,-29,-126
-48,-53,-4,51,-21,-29,-24,-136,-112,-122,-29,-131
-48,-53,-4,51,-21,-29,-29,-136,-112,-122,-34,-131
-48,-63,-14,56,-17,-39,-19,-136,-107,-122,-34,-136
-48,-63,-14,56,-17,-39,-19,-141,-107,-122,-34,-136
-48,-63,-14,56,-17,-39,-19,-141,-107,-122,-34,-136
-48,-63,-14,56,-17,-39,-14,-146,-107,-122,-34,-136
-48,-58,-9,53,-19,-34,-14,-146,-117,-131,-34,-136
-48,-58,-9,53,-19,-34,-14,-146,-112,-131,-34,-136
-48,-58,-9,53,-19,-34,-14,-146,-112,-131,-34,-141
-48,-58,-9,53,-19,-34,-14,-146,-112,-131,-39,-141
-48,-68,-19,58,-14,-43,-14,-146,-102,-131,-29,-141
-48,-68,-19,58,-14,-43,-14,-146,-107,-131,-29,-141
-48,-68,-19,58,-14,-43,-14,-146,-107,-136,-29,-146
-48,-68,-19,58,-14,-43,-14,-146,-107,-136,-29,-146
-48,-68,-19,58,-14,-43,-14,-146,-107,-126,-39,-136
-53,-68,-14,61,-19,-41,-14,-146,-107,-126,-43,-136
-53,-68,-14,61,-19,-41,-14,-146,-112,-131,-43,-136
-48,-73,-24,61,-12,-48,-14,-151,-112,-131,-39,-136
-48,-73,-24,61,-12,-48,-14,-141,-112,-131,-39,-136
-53,-73,-19,63,-17,-46,-14,-141,-112,-131,-43,-136
-53,-68,-14,61,-19,-41,-14,-141,-112,-131,-43,-136
-53,-68,-14,61,-19,-41,-14,-141,-112,-131,-43,-136
-53,-68,-14,61,-19,-41,-14,-141,-117,-131,-34,-146
-53,-73,-19,63,-17,-46,-14,-141,-117,-131,-34,-151
-53,-73,-19,63,-17,-46,-14,-141,-117,-131,-34,-151
-53,-73,-19,63,-17,-46,-14,-141,-117,-131,-39,-151
-53,-73,-19,63,-17,-46,-14,-141,-117,-141,-39,-141
-53,-78,-24,65,-14,-51,-14,-141,-117,-141,-39,-141
-53,-78,-24,65,-14,-51,-14,-136,-117,-141,-39,-141
-53,-78,-24,65,-14,-51,-14,-136,-117,-141,-39,-141
-53,-68,-14,61,-19,-41,-14,-146,-112,-131,-39,-151
-53,-68,-14,61,-19,-41,-14,-146,-112,-131,-39,-146
-53,-68,-14,61,-19,-41,-14,-146,-117,-131,-39,-146
-53,-68,-14,61,-19,-41,-14,-151,-117,-136,-39,-146
-53,-78,-24,65,-14,-51,-14,-151,-117,-136,-39,-146
-53,-78,-24,65,-14,-51,-14,-151,-117,-131,-39,-146
-58,-78,-19,68,-19,-48,-14,-151,-117,-131,-39,-146
-58,-78,-19,68,-19,-48,-9,-151,-117,-131,-34,-146
-53,-82,-29,68,-12,-56,-9,-151,-117,-131,-43,-146
-53,-82,-29,68,-12,-56,-9,-151,-117,-131,-43,-146
-53,-82,-29,68,-12,-56,-9,-151,-117,-136,-43,-146
-58,-82,-24,70,-17,-53,-9,-151,-112,-136,-43,-146
-58,-82,-24,70,-17,-53,-9,-151,-112,-136,-39,-146
-58,-82,-24,70,-17,-53,-9,-151,-112,-136,-39,-146
-58,-82,-24,70,-17,-53,-9,-151,-117,-136,-39,-146
-58,-82,-24,70,-17,-53,-9,-151,-117,-136,-39,-146
-58,-82,-24,70,-17,-53,-9,-151,-117,-141,-48,-146
-58,-82,-24,70,-17,-53,-9,-151,-117,-141,-48,-146
-58,-82,-24,70,-17,-53,-9,-151,-112,-141,-48,-146
-58,-82,-24,70,-17,-53,-9,-151,-112,-141,-48,-146
-58,-82,-24,70,-17,-53,-19,-151,-117,-141,-48,-146
-58,-82,-24,70,-17,-53,-19,-151,-117,-141,-48,-146
-58,-82,-24,70,-17,-53,-19,-151,-117,-141,-48,-146
-58,-82,-24,70,-17,-53,-19,-151,-112,-141,-48,-151
-58,-73,-14,65,-21,-43,-19,-151,-112,-141,-48,-141
-58,-73,-14,65,-21,-43,-19,-151,-112,-141,-48,-141
-58,-73,-14,65,-21,-43,-19,-156,-117,-141,-48,-141
-58,-73,-14,65,-21,-43,-19,-156,-117,-141,-48,-141
-58,-82,-24,70,-17,-53,-9,-146,-117,-141,-48,-151
-58,-82,-24,70,-17,-53,-9,-146,-117,-141,-48,-151
-58,-82,-24,70,-17,-53,-9,-141,-117,-141,-48,-151
-58,-82,-24,70,-17,-53,-9,-141,-117,-141,-53,-151
-58,-78,-19,68,-19,-48,-19,-151,-126,-141,-53,-141
-58,-73,-14,65,-21,-43,-19,-151,-126,-141,-53,-141
-58,-68,-9,63,-24,-39,-19,-151,-122,-141,-53,-141
-58,-68,-9,63,-24,-39,-19,-151,-122,-141,-53,-141
-48,-68,-19,58,-14,-43,-19,-156,-122,-141,-53,-151
-48,-73,-24,61,-12,-48,-19,-156,-122,-141,-53,-151
-48,-73,-24,61,-12,-48,-19,-156,-122,-141,-48,-156
-48,-78,-29,63,-9,-53,-19,-156,-122,-141,-48,-156
-58,-78,-19,68,-19,-48,-19,-156,-122,-141,-48,-156
-53,-82,-29,68,-12,-56,-19,-156,-122,-141,-48,-156
-53,-82,-29,68,-12,-56,-14,-156,-122,-136,-48,-151
-53,-78,-24,65,-14,-51,-14,-156,-122,-136,-48,-151
-58,-78,-19,68,-19,-48,-19,-146,-122,-141,-48,-151
-58,-78,-19,68,-19,-48,-19,-146,-117,-141,-48,-151
-58,-78,-19,68,-19,-48,-19,-146,-117,-141,-48,-151
-53,-73,-19,63,-17,-46,-19,-146,-122,-141,-48,-151
-53,-82,-29,68,-12,-56,-19,-156,-122,-141,-58,-151
-53,-82,-29,68,-12,-56,-19,-156,-117,-141,-58,-151
-53,-82,-29,68,-12,-56,-14,-156,-117,-136,-58,-151
-53,-82,-29,68,-12,-56,-14,-156,-117,-136,-53,-151
-53,-82,-29,68,-12,-56,-14,-156,-117,-146,-53,-146
-53,-82,-29,68,-12,-56,-14,-156,-117,-146,-53,-146
-53,-82,-29,68,-12,-56,-14,-156,-117,-146,-53,-146
-53,-82,-29,68,-12,-56,-14,-156,-117,-146,-48,-141
-53,-82,-29,68,-12,-56,-14,-156,-122,-136,-39,-151
-53,-78,-24,65,-14,-51,-14,-146,-117,-136,-39,-146
-48,-73,-24,61,-12,-48,-14,-146,-107,-136,-39,-141
-48,-73,-24,61,-12,-48,-9,-141,-107,-136,-34,-141
-48,-58,-9,53,-19,-34,0,-136,-97,-131,-34,-136
-48,-53,-4,51,-21,-29,0,-136,-92,-122,-24,-131
-48,-48,0,48,-24,-24,0,-126,-87,-102,-24,-122
-48,-39,9,43,-29,-14,9,-117,-78,-97,-19,-117
-39,-34,4,36,-21,-14,0,-117,-68,-97,-19,-107
-39,-29,9,34,-24,-9,0,-117,-68,-97,-19,-107
-39,-24,14,31,-26,-4,0,-117,-68,-97,-19,-107
-39,-19,19,29,-29,0,0,-117,-68,-97,-19,-107
-29,-14,14,21,-21,0,0,-117,-53,-87,-9,-107
-29,-9,19,19,-24,4,0,-112,-53,-87,-4,-102
-24,-9,14,17,-19,2,0,-107,-53,-82,-4,-102
-24,-9,14,17,-19,2,0,-107,-53,-82,-4,-102
-14,-4,9,9,-12,2,0,-107,-63,-92,-9,-102
-9,-4,4,7,-7,0,0,-97,-58,-92,-9,-102
-9,-4,4,7,-7,0,0,-97,-58,-92,-9,-102
-9,-4,4,7,-7,0,-9,-97,-58,-92,-9,-102
-19,-4,14,12,-17,4,-14,-97,-48,-92,0,-102
-19,0,19,9,-19,9,-14,-92,-43,-92,0,-102
-19,9,29,4,-24,19,-19,-92,-39,-82,0,-92
-14,14,29,0,-21,21,-29,-97,-39,-78,9,-87
-14,19,34,-2,-24,26,-43,-107,-48,-78,9,-82
-14,24,39,-4,-26,31,-53,-112,-53,-78,9,-82
-4,29,34,-12,-19,31,-63,-126,-53,-73,19,-78
0,39,39,-19,-19,39,-78,-131,-53,-68,29,-68
9,34,24,-21,-7,29,-82,-141,-63,-68,29,-68
9,34,24,-21,-7,29,-82,-141,-73,-68,29,-68
9,34,24,-21,-7,29,-87,-146,-78,-78,29,-68
9,24,14,-17,-2,19,-87,-151,-82,-82,24,-73
4,9,4,-7,0,7,-78,-146,-78,-87,4,-87
4,4,0,-4,2,2,-73,-146,-82,-92,0,-92
4,0,-4,-2,4,-2,-73,-141,-87,-97,-4,-92
4,0,-4,-2,4,-2,-73,-141,-97,-97,-4,-92
9,4,-4,-7,7,0,-63,-146,-97,-102,4,-92
9,0,-9,-4,9,-4,-58,-146,-102,-107,0,-102
9,-4,-14,-2,12,-9,-53,-156,-107,-112,-4,-102
9,-9,-19,0,14,-14,-48,-156,-107,-112,-4,-102
-9,-9,0,9,-4,-4,-43,-146,-107,-102,-14,-97
-14,-14,0,14,-7,-7,-39,-156,-112,-102,-19,-97
-14,-14,0,14,-7,-7,-39,-161,-117,-112,-24,-102
-19,-29,-9,24,-4,-19,-39,-165,-122,-117,-29,-107
-24,-39,-14,31,-4,-26,-39,-175,-122,-131,-24,-126
-34,-48,-14,41,-9,-31,-34,-175,-126,-136,-34,-131
-34,-53,-19,43,-7,-36,-29,-175,-126,-141,-39,-136
-39,-58,-19,48,-9,-39,-24,-170,-126,-141,-39,-141
-48,-63,-14,56,-17,-39,-19,-161,-126,-131,-48,-131
-53,-68,-14,61,-19,-41,-14,-156,-126,-136,-48,-141
-63,-73,-9,68,-26,-41,-14,-156,-126,-136,-58,-141
-73,-73,0,73,-36,-36,-9,-156,-126,-136,-58,-141
-68,-73,-4,70,-31,-39,-9,-165,-126,-146,-53,-141
-73,-78,-4,75,-34,-41,-9,-175,-136,-156,-58,-141
-73,-82,-9,78,-31,-46,-9,-175,-141,-161,-58,-151
-68,-87,-19,78,-24,-53,-9,-185,-146,-165,-63,-156
-78,-97,-19,87,-29,-58,-9,-190,-146,-161,-68,-146
-78,-97,-19,87,-29,-58,-9,-190,-146,-161,-68,-151
-78,-97,-19,87,-29,-58,-9,-190,-146,-161,-68,-151
-78,-97,-19,87,-29,-58,-9,-190,-146,-161,-68,-151
-78,-112,-34,95,-21,-73,-9,-180,-146,-170,-78,-161
-78,-112,-34,95,-21,-73,-9,-180,-146,-170,-78,-161
-78,-112,-34,95,-21,-73,-9,-180,-146,-170,-78,-161
-78,-112,-34,95,-21,-73,-9,-180,-146,-170,-78,-165
-82,-107,-24,95,-29,-65,-9,-180,-146,-170,-78,-165
-82,-107,-24,95,-29,-65,-9,-175,-141,-170,-78,-161
-82,-107,-24,95,-29,-65,-4,-175,-141,-170,-78,-161
-82,-107,-24,95,-29,-65,-4,-175,-141,-170,-78,-161
-82,-112,-29,97,-26,-70,-4,-175,-141,-161,-78,-161
-82,-112,-29,97,-26,-70,-4,-175,-141,-161,-82,-161
-82,-112,-29,97,-26,-70,0,-175,-141,-161,-82,-161
-82,-112,-29,97,-26,-70,0,-175,-141,-161,-82,-161
-82,-112,-29,97,-26,-70,0,-180,-146,-161,-73,-161
-87,-112,-24,100,-31,-68,4,-180,-146,-161,-73,-165
-87,-112,-24,100,-31,-68,4,-180,-146,-161,-73,-165
-87,-112,-24,100,-31,-68,4,-180,-146,-161,-73,-165
-87,-112,-24,100,-31,-68,4,-165,-136,-161,-73,-165
-87,-112,-24,100,-31,-68,4,-165,-136,-161,-73,-165
-87,-112,-24,100,-31,-68,4,-165,-136,-161,-73,-165
-87,-112,-24,100,-31,-68,9,-165,-131,-156,-73,-165
-87,-112,-24,100,-31,-68,9,-165,-131,-156,-73,-165
-87,-112,-24,100,-31,-68,9,-165,-131,-156,-68,-165
-87,-112,-24,100,-31,-68,9,-165,-131,-156,-68,-165
-87,-112,-24,100,-31,-68,9,-161,-131,-156,-68,-165
-87,-112,-24,100,-31,-68,9,-161,-126,-156,-68,-161
-87,-112,-24,100,-31,-68,9,-161,-126,-156,-68,-161
-87,-112,-24,100,-31,-68,9,-161,-126,-151,-68,-161
-87,-107,-19,97,-34,-63,9,-161,-126,-151,-68,-161
-78,-107,-29,92,-24,-68,9,-161,-126,-151,-68,-161
-82,-107,-24,95,-29,-65,9,-161,-126,-151,-68,-161
-82,-107,-24,95,-29,-65,9,-161,-131,-156,-68,-161
-82,-112,-29,97,-26,-70,9,-151,-131,-156,-68,-165
-82,-112,-29,97,-26,-70,24,-156,-126,-151,-68,-165
-82,-112,-29,97,-26,-70,24,-136,-112,-141,-58,-161
-92,-102,-9,97,-41,-56,29,-112,-82,-112,-53,-151
-92,-97,-4,95,-43,-51,39,-78,-34,-78,-24,-136
-82,-87,-4,85,-39,-46,58,-9,39,-19,9,-117
-73,-78,-4,75,-34,-41,82,73,112,39,43,-102
-39,-58,-19,48,-9,-39,82,151,165,117,92,-68
24,-29,-53,2,39,-41,63,190,195,190,185,-9
102,9,-92,-56,97,-41,14,209,200,268,273,58
180,48,-131,-114,156,-41,-34,214,214,356,380,126
268,73,-195,-170,231,-61,-73,263,253,453,483,190
336,97,-239,-217,287,-70,-107,312,312,561,575,244
434,131,-302,-283,368,-85,-180,268,336,683,697,317
556,209,-346,-383,451,-68,-302,92,312,814,858,434
663,307,-356,-485,509,-24,-429,-112,248,932,1015,566
736,400,-336,-568,536,31,-536,-317,180,990,1141,673
810,483,-326,-646,568,78,-634,-566,53,990,1200,741
858,522,-336,-690,597,92,-727,-863,-161,868,1166,751
814,536,-278,-675,546,129,-775,-1210,-444,629,1015,702
683,527,-156,-605,419,185,-800,-1571,-722,341,800,634
522,546,24,-534,248,285,-810,-1869,-941,97,629,575
336,580,244,-458,46,412,-775,-2030,-1107,-73,492,551
102,595,492,-348,-195,544,-697,-2205,-1263,-258,341,512
-141,561,702,-209,-422,631,-634,-2371,-1415,-488,126,395
-297,434,732,-68,-514,583,-541,-2361,-1507,-712,-117,185
-366,278,644,43,-505,461,-424,-2196,-1517,-878,-336,-43
-424,165,590,129,-507,378,-331,-2074,-1498,-927,-444,-195
-483,117,600,183,-541,358,-253,-1961,-1405,-902,-444,-229
-502,87,590,207,-546,339,-214,-1820,-1332,-858,-434,-234
-473,53,527,209,-500,290,-224,-1717,-1288,-849,-434,-248
-429,29,458,200,-444,244,-244,-1610,-1239,-814,-419,-248
-400,-4,395,202,-397,195,-200,-1429,-1102,-732,-375,-248
-390,-48,341,219,-366,146,-151,-1239,-961,-653,-351,-258
-356,-73,283,214,-319,104,-122,-1093,-824,-580,-326,-268
-312,-73,239,192,-275,82,-102,-961,-707,-507,-287,-258
-248,-68,180,158,-214,56,-92,-839,-590,-414,-229,-234
-195,-43,151,119,-173,53,-87,-717,-488,-331,-165,-190
-161,-24,136,92,-148,56,-58,-566,-385,-248,-102,-141
-126,-9,117,68,-122,53,-24,-424,-287,-190,-48,-107
-112,4,117,53,-114,61,-9,-292,-200,-136,-14,-73
-92,19,112,36,-102,65,0,-190,-126,-92,0,-63
-78,29,107,24,-92,68,9,-136,-78,-73,14,-53
-58,34,92,12,-75,63,9,-112,-43,-58,9,-53
-53,34,87,9,-70,61,14,-102,-43,-58,19,-58
-34,24,58,4,-46,41,14,-107,-43,-53,14,-68
-34,19,53,7,-43,36,14,-92,-53,-58,29,-58
-34,9,43,12,-39,26,19,-68,-39,-53,29,-58
-39,9,48,14,-43,29,24,-39,-24,-48,29,-58
-39,9,48,14,-43,29,24,-24,-14,-43,29,-58
-39,4,43,17,-41,24,24,-4,4,-39,29,-68
-39,4,43,17,-41,24,24,-4,14,-34,34,-68
-34,9,43,12,-39,26,24,-9,14,-34,34,-68
-34,9,43,12,-39,26,24,-9,14,-29,34,-68
-29,9,39,9,-34,24,24,-9,14,-29,34,-68
-29,0,29,14,-29,14,24,0,19,-29,39,-68
-24,0,24,12,-24,12,24,14,24,-19,39,-68
-24,4,29,9,-26,17,24,24,34,-14,43,-63
-9,4,14,2,-12,9,24,43,29,-9,43,-63
-9,4,14,2,-12,9,24,43,34,-9,53,-63
-4,4,9,0,-7,7,19,43,39,-4,53,-63
-4,4,9,0,-7,7,19,43,39,-4,53,-58
-9,14,24,-2,-17,19,19,34,39,-4,53,-58
-9,14,24,-2,-17,19,19,43,48,4,58,-58
-9,14,24,-2,-17,19,24,48,48,4,58,-58
-4,14,19,-4,-12,17,24,53,53,4,58,-53
-4,9,14,-2,-9,12,24,58,58,4,63,-53
-4,9,14,-2,-9,12,24,63,63,14,63,-53
0,9,9,-4,-4,9,19,68,63,14,63,-53
0,9,9,-4,-4,9,19,68,63,14,68,-53
9,19,9,-14,0,14,19,68,73,19,68,-48
9,19,9,-14,0,14,19,73,82,19,73,-48
9,24,14,-17,-2,19,19,82,82,19,73,-48
14,24,9,-19,2,17,14,87,87,29,78,-48
14,24,9,-19,2,17,14,92,87,29,78,-43
14,29,14,-21,0,21,14,97,92,34,78,-43
14,29,14,-21,0,21,14,97,97,34,87,-43
14,29,14,-21,0,21,14,97,97,43,87,-43
9,29,19,-19,-4,24,14,107,87,43,87,-43
9,29,19,-19,-4,24,14,107,97,43,87,-39
9,34,24,-21,-7,29,9,117,102,43,92,-39
14,34,19,-24,-2,26,9,117,102,53,92,-34
14,34,19,-24,-2,26,9,122,112,58,87,-34
14,39,24,-26,-4,31,9,117,122,63,87,-34
14,43,29,-29,-7,36,9,122,122,63,92,-29
19,43,24,-31,-2,34,9,122,122,68,92,-29
19,43,24,-31,-2,34,4,131,126,68,107,-29
19,48,29,-34,-4,39,4,131,126,68,112,-24
24,48,24,-36,0,36,4,131,126,78,112,-24
24,48,24,-36,0,36,0,141,131,78,122,-19
34,48,14,-41,9,31,0,146,131,73,112,-19
39,53,14,-46,12,34,0,151,141,73,112,-9
39,53,14,-46,12,34,0,156,146,82,112,-9
43,58,14,-51,14,36,0,161,151,87,122,-9
43,48,4,-46,19,26,0,175,141,102,122,-9
43,58,14,-51,14,36,0,175,146,102,126,-4
43,58,14,-51,14,36,-4,180,151,102,131,0
48,58,9,-53,19,34,-4,190,151,102,131,0
53,63,9,-58,21,36,-4,180,161,112,131,0
53,68,14,-61,19,41,-4,185,170,117,136,4
58,68,9,-63,24,39,-4,190,175,122,141,4
58,68,9,-63,24,39,-4,200,175,126,146,9
48,73,24,-61,12,48,-4,214,165,117,151,9
53,78,24,-65,14,51,-4,219,175,122,151,9
58,78,19,-68,19,48,-4,224,180,126,151,9
58,82,24,-70,17,53,-9,229,180,131,161,14
68,97,29,-82,19,63,-9,239,180,146,161,14
73,97,24,-85,24,61,-9,244,190,151,165,19
73,97,24,-85,24,61,-9,248,195,156,170,24
73,107,34,-90,19,70,-9,258,200,161,170,24
68,107,39,-87,14,73,-9,253,214,165,170,24
68,112,43,-90,12,78,-9,263,219,170,175,29
78,117,39,-97,19,78,-9,278,229,175,180,29
78,117,39,-97,19,78,-9,287,234,185,190,39
78,117,39,-97,19,78,-9,307,239,190,190,29
78,122,43,-100,17,82,-9,312,248,195,195,29
87,122,34,-104,26,78,-14,322,253,200,200,39
87,122,34,-104,26,78,-14,331,258,209,200,43
87,131,43,-109,21,87,-4,341,273,214,209,58
92,136,43,-114,24,90,-4,351,278,219,219,63
92,136,43,-114,24,90,-4,366,283,229,229,63
102,141,39,-122,31,90,-4,375,297,239,239,73
102,146,43,-124,29,95,-9,390,297,248,244,82
107,151,43,-129,31,97,-9,400,297,253,253,87
112,156,43,-134,34,100,-9,419,317,268,258,92
112,161,48,-136,31,104,-9,424,326,273,268,97
112,165,53,-139,29,109,0,444,346,283,263,92
122,170,48,-146,36,109,4,448,356,292,268,97
122,175,53,-148,34,114,4,468,366,302,278,102
122,180,58,-151,31,119,4,483,375,312,287,107
122,185,63,-153,29,124,4,497,390,322,292,102
126,195,68,-161,29,131,9,512,405,336,302,112
126,200,73,-163,26,136,9,527,419,346,307,117
131,204,73,-168,29,139,9,541,424,356,317,122
141,209,68,-175,36,139,9,546,439,356,317,126
141,214,73,-178,34,143,14,561,458,366,322,131
141,214,73,-178,34,143,24,580,473,375,331,141
141,219,78,-180,31,148,29,595,478,385,341,146
141,234,92,-187,24,163,24,610,492,405,361,151
141,239,97,-190,21,168,24,624,502,414,361,156
146,244,97,-195,24,170,24,634,522,424,366,161
146,253,107,-200,19,180,29,649,531,434,370,161
146,258,112,-202,17,185,29,663,546,444,380,170
146,263,117,-204,14,190,39,678,561,453,390,180
146,268,122,-207,12,195,39,692,575,463,395,185
146,268,122,-207,12,195,43,702,580,473,400,190
146,273,126,-209,9,200,43,727,605,483,405,180
146,278,131,-212,7,204,48,741,614,492,405,190
146,283,136,-214,4,209,53,751,629,502,409,195
146,287,141,-217,2,214,58,761,639,502,419,195
146,292,146,-219,0,219,58,761,653,512,429,200
146,297,151,-222,-2,224,63,775,663,527,434,200
141,297,156,-219,-7,226,63,775,673,531,439,204
141,302,161,-222,-9,231,63,780,683,536,444,209
141,312,170,-226,-14,241,73,795,692,551,458,224
136,312,175,-224,-19,244,68,795,692,556,463,229
136,317,180,-226,-21,248,68,795,697,561,468,229
126,317,190,-222,-31,253,68,795,697,561,468,229
136,307,170,-222,-17,239,73,785,697,566,458,229
131,312,180,-222,-24,246,73,766,697,566,458,234
131,312,180,-222,-24,246,78,746,697,566,463,234
126,312,185,-219,-29,248,78,722,683,556,463,234
112,322,209,-217,-48,265,78,707,663,551,453,234
107,322,214,-214,-53,268,78,688,653,546,453,234
102,322,219,-212,-58,270,73,658,639,541,444,224
97,312,214,-204,-58,263,68,634,614,531,429,219
92,307,214,-200,-61,261,63,600,595,502,419,204
87,302,214,-195,-63,258,63,570,575,488,414,200
82,297,214,-190,-65,256,58,541,546,463,395,190
73,292,219,-183,-73,256,53,502,522,444,380,185
68,278,209,-173,-70,244,48,468,497,434,366,185
68,273,204,-170,-68,239,43,434,463,405,351,165
63,263,200,-163,-68,231,39,400,434,380,336,156
58,253,195,-156,-68,224,34,370,405,356,312,146
53,244,190,-148,-68,217,29,336,375,322,292,126
48,224,175,-136,-63,200,24,302,346,297,273,112
39,214,175,-126,-68,195,19,273,317,273,253,92
34,195,161,-114,-63,178,14,239,287,244,234,78
29,170,141,-100,-56,156,9,195,248,214,214,63
19,161,141,-90,-61,151,4,170,219,195,190,48
14,156,141,-85,-63,148,4,141,195,165,170,29
14,146,131,-80,-58,139,0,122,165,141,151,9
9,131,122,-70,-56,126,4,97,151,117,136,4
4,122,117,-63,-56,119,0,73,131,97,122,-4
0,112,112,-56,-56,112,0,58,112,73,102,-9
-4,97,102,-46,-53,100,0,39,92,58,92,-19
0,97,97,-48,-48,97,-9,14,73,39,78,-29
-4,87,92,-41,-48,90,-14,0,58,24,63,-43
-9,78,87,-34,-48,82,-14,-9,39,14,53,-53
-9,73,82,-31,-46,78,-19,-24,29,0,43,-63
-24,53,78,-14,-51,65,-9,-24,14,-14,34,-78
-24,48,73,-12,-48,61,-9,-34,0,-29,24,-82
-24,39,63,-7,-43,51,-9,-43,-4,-34,14,-87
-29,29,58,0,-43,43,-9,-53,-14,-43,4,-97
-29,29,58,0,-43,43,-19,-73,-24,-43,-4,-97
-29,29,58,0,-43,43,-19,-82,-29,-48,-4,-102
-34,24,58,4,-46,41,-19,-87,-39,-48,-9,-112
-34,19,53,7,-43,36,-19,-87,-39,-53,-14,-117
-34,4,39,14,-36,21,-19,-87,-43,-68,-19,-112
-39,0,39,19,-39,19,-24,-92,-48,-73,-19,-112
-39,0,39,19,-39,19,-24,-92,-53,-78,-24,-112
-39,0,39,19,-39,19,-19,-92,-53,-82,-24,-112
-39,-9,29,24,-34,9,-9,-97,-48,-78,-29,-117
-43,-14,29,29,-36,7,-9,-97,-48,-82,-34,-117
-43,-14,29,29,-36,7,-9,-97,-48,-82,-34,-117
-43,-14,29,29,-36,7,-14,-102,-48,-82,-34,-122
-43,-14,29,29,-36,7,-14,-92,-63,-92,-34,-126
-48,-19,29,34,-39,4,-14,-92,-63,-92,-34,-126
-48,-19,29,34,-39,4,-9,-92,-63,-97,-34,-126
-48,-19,29,34,-39,4,-9,-92,-63,-97,-34,-126
-48,-19,29,34,-39,4,-19,-92,-63,-97,-48,-136
-43,-19,24,31,-34,2,-19,-92,-63,-97,-48,-136
-43,-19,24,31,-34,2,-19,-92,-63,-102,-48,-141
-43,-19,24,31,-34,2,-19,-92,-63,-102,-48,-141
-43,-24,19,34,-31,-2,-9,-92,-53,-92,-53,-131
-48,-24,24,36,-36,0,-9,-92,-53,-92,-53,-131
-48,-24,24,36,-36,0,-9,-92,-53,-92,-53,-131
-48,-24,24,36,-36,0,-9,-92,-53,-92,-53,-131
-48,-19,29,34,-39,4,-9,-92,-53,-102,-43,-131
-48,-19,29,34,-39,4,-9,-92,-53,-97,-43,-131
-48,-19,29,34,-39,4,-9,-92,-53,-97,-48,-131
-48,-19,29,34,-39,4,-9,-92,-53,-97,-48,-131
-48,-19,29,34,-39,4,-9,-97,-48,-87,-53,-141
-48,-19,29,34,-39,4,-9,-97,-48,-87,-53,-141
-48,-19,29,34,-39,4,-9,-97,-48,-87,-48,-136
-48,-24,24,36,-36,0,-9,-97,-48,-87,-48,-136
-48,-24,24,36,-36,0,-14,-87,-48,-87,-48,-126
-43,-24,19,34,-31,-2,-14,-82,-48,-87,-48,-126
-43,-24,19,34,-31,-2,-19,-82,-48,-87,-48,-126
-43,-24,19,34,-31,-2,-19,-82,-43,-87,-48,-126
-39,-14,24,26,-31,4,-4,-82,-43,-78,-48,-122
-39,-14,24,26,-31,4,-4,-82,-43,-78,-48,-122
-39,-19,19,29,-29,0,-4,-82,-43,-78,-43,-122
-39,-19,19,29,-29,0,-9,-82,-43,-78,-43,-122
-39,-19,19,29,-29,0,-9,-82,-43,-87,-39,-131
-39,-19,19,29,-29,0,-9,-82,-43,-82,-39,-131
-43,-19,24,31,-34,2,-9,-78,-43,-82,-39,-131
-43,-14,29,29,-36,7,-9,-78,-39,-82,-39,-131
-39,-14,24,26,-31,4,-9,-78,-39,-82,-48,-131
-39,-14,24,26,-31,4,-9,-78,-39,-82,-48,-131
-39,-19,19,29,-29,0,-9,-78,-39,-82,-48,-126
-39,-19,19,29,-29,0,-9,-78,-39,-87,-48,-126
-48,-19,29,34,-39,4,-9,-78,-29,-78,-39,-126
-48,-19,29,34,-39,4,-9,-78,-29,-73,-39,-126
-48,-19,29,34,-39,4,-4,-78,-29,-73,-39,-126
-48,-19,29,34,-39,4,-4,-78,-34,-73,-43,-131
-43,-9,34,26,-39,12,-14,-78,-34,-78,-43,-122
-43,-9,34,26,-39,12,-14,-82,-34,-78,-43,-122
-43,-9,34,26,-39,12,-14,-82,-34,-78,-39,-122
-43,-9,34,26,-39,12,-14,-82,-34,-78,-39,-122
-34,-19,14,26,-24,-2,-19,-82,-34,-82,-34,-131
-34,-19,14,26,-24,-2,-19,-82,-34,-82,-34,-131
-34,-19,14,26,-24,-2,-19,-82,-39,-82,-34,-126
-34,-19,14,26,-24,-2,-19,-82,-39,-82,-34,-126
-43,-24,19,34,-31,-2,-9,-82,-48,-92,-43,-136
-43,-24,19,34,-31,-2,-9,-87,-48,-92,-43,-136
-43,-24,19,34,-31,-2,-9,-87,-48,-92,-43,-136
-43,-24,19,34,-31,-2,-9,-87,-48,-92,-43,-136
-43,-24,19,34,-31,-2,-14,-87,-43,-82,-48,-136
-43,-24,19,34,-31,-2,-14,-87,-43,-82,-48,-141
-39,-24,14,31,-26,-4,-14,-92,-39,-87,-48,-146
-39,-24,14,31,-26,-4,-14,-92,-34,-92,-48,-146
-43,-24,19,34,-31,-2,-14,-92,-43,-92,-48,-136
-43,-24,19,34,-31,-2,-14,-92,-48,-92,-53,-141
-43,-24,19,34,-31,-2,-14,-92,-48,-92,-53,-141
-43,-29,14,36,-29,-7,-14,-97,-48,-92,-53,-141
-43,-29,14,36,-29,-7,-14,-97,-48,-97,-53,-141
-43,-29,14,36,-29,-7,-14,-102,-53,-97,-53,-141
-43,-29,14,36,-29,-7,-14,-102,-53,-97,-58,-141
-48,-29,19,39,-34,-4,-14,-102,-53,-97,-58,-146
-48,-29,19,39,-34,-4,-14,-97,-53,-92,-58,-146
-48,-29,19,39,-34,-4,-14,-97,-53,-97,-58,-146
-48,-34,14,41,-31,-9,-14,-97,-58,-97,-58,-146
-48,-34,14,41,-31,-9,-14,-97,-58,-97,-63,-146
-43,-43,0,43,-21,-21,-4,-97,-58,-107,-63,-146
-43,-39,4,41,-24,-17,-4,-102,-63,-107,-63,-146
-43,-39,4,41,-24,-17,-4,-102,-63,-107,-68,-146
-43,-39,4,41,-24,-17,-4,-107,-63,-107,-68,-146
-53,-39,14,46,-34,-12,-9,-107,-63,-107,-68,-146
-53,-39,14,46,-34,-12,-9,-107,-63,-107,-68,-151
-53,-39,14,46,-34,-12,-9,-107,-68,-112,-68,-151
-53,-39,14,46,-34,-12,-4,-107,-68,-117,-68,-151
-48,-39,9,43,-29,-14,-14,-107,-58,-117,-68,-146
-48,-39,9,43,-29,-14,-14,-107,-58,-112,-68,-146
-48,-43,4,46,-26,-19,-14,-107,-63,-107,-68,-151
-48,-43,4,46,-26,-19,-19,-107,-63,-102,-73,-151
-48,-43,4,46,-26,-19,-19,-97,-58,-112,-73,-156
-48,-43,4,46,-26,-19,-19,-102,-58,-112,-73,-156
-48,-43,4,46,-26,-19,-19,-102,-58,-112,-73,-156
-48,-43,4,46,-26,-19,-14,-107,-58,-112,-73,-156
-48,-48,0,48,-24,-24,-14,-107,-58,-102,-73,-156
-48,-48,0,48,-24,-24,-14,-107,-53,-102,-73,-156
-48,-48,0,48,-24,-24,-14,-107,-53,-102,-73,-161
-48,-48,0,48,-24,-24,-14,-107,-53,-102,-78,-161
-58,-48,9,53,-34,-19,-14,-107,-63,-107,-78,-161
-58,-48,9,53,-34,-19,-14,-107,-68,-112,-78,-161
-58,-48,9,53,-34,-19,-14,-107,-68,-122,-78,-165
-58,-48,9,53,-34,-19,-14,-107,-68,-126,-78,-165
-58,-48,9,53,-34,-19,-14,-107,-58,-117,-78,-165
-63,-48,14,56,-39,-17,-14,-107,-58,-117,-82,-165
-63,-48,14,56,-39,-17,-14,-107,-63,-122,-82,-165
-58,-53,4,56,-31,-24,-14,-112,-63,-122,-78,-165
-58,-53,4,56,-31,-24,-4,-112,-63,-112,-68,-165
-63,-53,9,58,-36,-21,-4,-112,-63,-112,-73,-165
-63,-48,14,56,-39,-17,-4,-112,-63,-112,-73,-165
-63,-48,14,56,-39,-17,-4,-112,-63,-112,-73,-165
-63,-48,14,56,-39,-17,-4,-112,-58,-122,-82,-175
-63,-53,9,58,-36,-21,-4,-112,-58,-122,-82,-180
-63,-53,9,58,-36,-21,-4,-112,-58,-122,-82,-180
-63,-53,9,58,-36,-21,-4,-112,-58,-122,-87,-180
-63,-43,19,53,-41,-12,-4,-112,-58,-122,-87,-180
-63,-48,14,56,-39,-17,-4,-112,-58,-122,-87,-180
-63,-48,14,56,-39,-17,-4,-107,-58,-122,-87,-180
-63,-48,14,56,-39,-17,-4,-107,-58,-122,-87,-180
-63,-48,14,56,-39,-17,-4,-107,-63,-112,-87,-170
-63,-48,14,56,-39,-17,-4,-107,-63,-112,-87,-165
-63,-48,14,56,-39,-17,-4,-107,-68,-112,-87,-165
-63,-48,14,56,-39,-17,-4,-112,-68,-117,-87,-165
-53,-58,-4,56,-24,-31,-4,-112,-68,-126,-87,-175
-53,-58,-4,56,-24,-31,-4,-112,-68,-122,-87,-175
-58,-58,0,58,-29,-29,-4,-112,-68,-122,-87,-175
-58,-58,0,58,-29,-29,0,-112,-68,-122,-82,-175
-53,-53,0,53,-26,-26,-9,-112,-58,-112,-82,-165
-53,-53,0,53,-26,-26,-9,-112,-58,-112,-82,-165
-53,-53,0,53,-26,-26,-9,-112,-58,-117,-82,-165
-58,-53,4,56,-31,-24,-9,-112,-53,-117,-82,-165
-58,-53,4,56,-31,-24,-9,-112,-63,-117,-78,-165
-58,-53,4,56,-31,-24,-9,-112,-63,-117,-78,-165
-58,-53,4,56,-31,-24,-9,-112,-68,-117,-78,-165
-58,-53,4,56,-31,-24,-9,-112,-68,-117,-78,-165
-58,-53,4,56,-31,-24,-9,-112,-68,-112,-78,-175
-58,-53,4,56,-31,-24,-9,-112,-68,-112,-78,-175
-58,-53,4,56,-31,-24,-9,-112,-63,-112,-78,-175
-58,-53,4,56,-31,-24,-9,-112,-63,-112,-78,-175
-58,-53,4,56,-31,-24,-9,-112,-68,-112,-87,-175
-58,-53,4,56,-31,-24,-9,-112,-68,-112,-87,-175
-58,-53,4,56,-31,-24,-9,-112,-68,-112,-87,-175
-58,-53,4,56,-31,-24,-9,-112,-63,-112,-87,-180
-58,-53,4,56,-31,-24,-9,-102,-53,-112,-78,-180
-58,-53,4,56,-31,-24,-9,-102,-53,-112,-78,-180
-58,-53,4,56,-31,-24,-9,-107,-58,-112,-78,-180
-58,-53,4,56,-31,-24,-9,-107,-58,-112,-78,-180
-68,-53,14,61,-41,-19,0,-107,-48,-112,-78,-170
-68,-53,14,61,-41,-19,0,-107,-48,-112,-78,-170
-68,-53,14,61,-41,-19,0,-102,-48,-112,-78,-170
-68,-53,14,61,-41,-19,0,-102,-48,-112,-82,-170
-68,-58,9,63,-39,-24,0,-112,-58,-112,-82,-180
-68,-53,14,61,-41,-19,0,-112,-58,-112,-82,-180
-68,-48,19,58,-43,-14,0,-112,-53,-112,-82,-180
-68,-48,19,58,-43,-14,0,-112,-53,-112,-82,-180
-68,-48,19,58,-43,-14,0,-107,-53,-112,-82,-170
-68,-53,14,61,-41,-19,0,-107,-53,-112,-82,-170
-68,-53,14,61,-41,-19,0,-107,-53,-112,-78,-175
-68,-58,9,63,-39,-24,0,-107,-53,-112,-78,-175
-68,-48,19,58,-43,-14,-9,-107,-53,-112,-87,-165
-63,-53,9,58,-36,-21,-9,-107,-53,-112,-87,-165
-63,-53,9,58,-36,-21,-4,-107,-53,-107,-87,-161
-63,-48,14,56,-39,-17,-4,-107,-53,-107,-87,-161
-58,-48,9,53,-34,-19,-9,-107,-63,-112,-78,-170
-58,-48,9,53,-34,-19,-9,-107,-58,-112,-78,-170
-58,-48,9,53,-34,-19,-9,-107,-58,-112,-78,-170
-53,-43,9,48,-31,-17,-9,-107,-63,-112,-78,-170
-63,-43,19,53,-41,-12,-9,-107,-63,-112,-78,-170
-63,-43,19,53,-41,-12,-9,-107,-58,-112,-78,-170
-63,-43,19,53,-41,-12,-4,-107,-58,-107,-78,-170
-63,-43,19,53,-41,-12,-4,-107,-58,-107,-73,-170
-63,-34,29,48,-46,-2,4,-102,-53,-97,-63,-156
-63,-34,29,48,-46,-2,4,-97,-48,-97,-63,-156
-63,-34,29,48,-46,-2,4,-92,-43,-97,-63,-156
-63,-34,29,48,-46,-2,4,-87,-39,-97,-58,-151
-53,-4,48,29,-51,21,14,-68,-14,-78,-48,-141
-48,0,48,24,-48,24,9,-68,-9,-68,-48,-126
-39,9,48,14,-43,29,9,-68,-9,-68,-48,-126
-39,9,48,14,-43,29,9,-68,-9,-68,-48,-126
-39,9,48,14,-43,29,9,-68,-9,-68,-48,-126
-39,9,48,14,-43,29,9,-68,-9,-68,-48,-126
-29,24,53,2,-41,39,0,-68,4,-58,-39,-136
-29,29,58,0,-43,43,0,-63,4,-58,-34,-131
-24,29,53,-2,-39,41,0,-58,4,-53,-34,-131
-24,29,53,-2,-39,41,0,-58,4,-53,-34,-131
-24,24,48,0,-36,36,9,-58,4,-53,-39,-131
-19,24,43,-2,-31,34,9,-48,9,-53,-39,-131
-19,24,43,-2,-31,34,9,-48,9,-53,-39,-131
-19,24,43,-2,-31,34,0,-48,9,-53,-39,-131
-19,34,53,-7,-36,43,-4,-58,19,-53,-29,-122
-19,39,58,-9,-39,48,-4,-53,24,-53,-29,-122
-19,48,68,-14,-43,58,-9,-53,29,-43,-29,-112
-14,53,68,-19,-41,61,-19,-58,29,-39,-19,-107
-24,58,82,-17,-53,70,-34,-68,19,-39,-19,-92
-24,63,87,-19,-56,75,-43,-73,14,-39,-19,-92
-14,68,82,-26,-48,75,-53,-87,14,-34,-9,-87
-9,78,87,-34,-48,82,-68,-92,14,-29,0,-78
-9,82,92,-36,-51,87,-73,-102,14,-29,0,-78
-9,82,92,-36,-51,87,-73,-102,4,-29,0,-78
-9,82,92,-36,-51,87,-78,-107,0,-39,0,-78
-9,73,82,-31,-46,78,-78,-112,-4,-43,-4,-82
-4,68,73,-31,-39,70,-78,-107,-9,-39,-14,-97
-4,63,68,-29,-36,65,-73,-107,-14,-43,-19,-102
-4,58,63,-26,-34,61,-73,-102,-19,-48,-24,-102
-4,58,63,-26,-34,61,-73,-102,-29,-48,-24,-102
0,53,53,-26,-26,53,-63,-97,-19,-63,-24,-102
0,48,48,-24,-24,48,-58,-97,-24,-68,-29,-112
0,43,43,-21,-21,43,-53,-107,-29,-73,-34,-112
0,39,39,-19,-19,39,-48,-107,-29,-73,-34,-112
-9,29,39,-9,-24,34,-43,-97,-29,-73,-24,-107
-14,24,39,-4,-26,31,-39,-107,-34,-73,-29,-107
-14,24,39,-4,-26,31,-39,-112,-39,-82,-34,-112
-19,9,29,4,-24,19,-39,-117,-43,-87,-39,-117
-34,0,34,17,-34,17,-29,-126,-43,-82,-53,-126
-43,-9,34,26,-39,12,-24,-126,-48,-87,-63,-131
-43,-14,29,29,-36,7,-19,-126,-48,-92,-68,-136
-48,-19,29,34,-39,4,-14,-122,-48,-92,-68,-141
-58,-14,43,36,-51,14,-19,-122,-48,-92,-68,-141
-63,-19,43,41,-53,12,-14,-117,-48,-97,-68,-151
-73,-24,48,48,-61,12,-14,-117,-48,-97,-78,-151
-82,-24,58,53,-70,17,-9,-117,-48,-97,-78,-151
-82,-34,48,58,-65,7,-9,-117,-58,-97,-73,-151
-82,-39,43,61,-63,2,-9,-126,-68,-107,-78,-151
-78,-43,34,61,-56,-4,-9,-126,-73,-112,-78,-161
-68,-48,19,58,-43,-14,-9,-136,-78,-117,-82,-165
-78,-48,29,63,-53,-9,-9,-131,-78,-122,-87,-156
-78,-48,29,63,-53,-9,-9,-131,-78,-122,-87,-161
-78,-48,29,63,-53,-9,-9,-131,-78,-122,-87,-161
-78,-48,29,63,-53,-9,-9,-131,-78,-122,-87,-161
-78,-53,24,65,-51,-14,-9,-131,-68,-122,-87,-170
-78,-53,24,65,-51,-14,-9,-131,-68,-122,-87,-170
-78,-53,24,65,-51,-14,-9,-131,-68,-122,-87,-170
-78,-53,24,65,-51,-14,-9,-131,-68,-122,-87,-175
-82,-58,24,70,-53,-17,-9,-131,-78,-122,-87,-165
-82,-58,24,70,-53,-17,-9,-126,-73,-122,-87,-161
-82,-58,24,70,-53,-17,-4,-126,-73,-122,-87,-161
-82,-58,24,70,-53,-17,-4,-126,-73,-122,-87,-161
-82,-63,19,73,-51,-21,-4,-126,-73,-122,-97,-161
-82,-63,19,73,-51,-21,-4,-126,-73,-122,-102,-161
-82,-63,19,73,-51,-21,0,-126,-73,-122,-102,-161
-82,-63,19,73,-51,-21,0,-126,-73,-122,-102,-161
-82,-63,19,73,-51,-21,0,-122,-68,-122,-92,-161
-87,-63,24,75,-56,-19,4,-122,-68,-122,-92,-165
-87,-63,24,75,-56,-19,4,-122,-68,-122,-92,-165
-87,-63,24,75,-56,-19,4,-122,-68,-122,-92,-165
-87,-63,24,75,-56,-19,4,-117,-68,-122,-92,-156
-87,-63,24,75,-56,-19,4,-117,-68,-122,-92,-156
-87,-63,24,75,-56,-19,4,-117,-68,-122,-92,-156
-87,-63,24,75,-56,-19,9,-117,-63,-117,-92,-156
-87,-63,24,75,-56,-19,9,-117,-53,-107,-92,-156
-87,-63,24,75,-56,-19,9,-117,-53,-107,-87,-156
-87,-63,24,75,-56,-19,9,-117,-53,-107,-87,-156
-87,-63,24,75,-56,-19,9,-112,-53,-107,-87,-156
-78,-63,14,70,-46,-24,9,-112,-58,-107,-78,-141
-78,-63,14,70,-46,-24,9,-112,-58,-107,-78,-141
-78,-63,14,70,-46,-24,9,-112,-58,-102,-78,-141
-78,-58,19,68,-48,-19,9,-112,-58,-102,-78,-141
-78,-58,19,68,-48,-19,19,-112,-48,-102,-78,-141
-82,-58,24,70,-53,-17,19,-112,-48,-102,-78,-141
-82,-58,24,70,-53,-17,19,-112,-53,-107,-78,-141
-82,-63,19,73,-51,-21,19,-102,-53,-107,-78,-146
-82,-63,19,73,-51,-21,14,-97,-39,-92,-68,-146
-82,-63,19,73,-51,-21,24,-78,-24,-82,-58,-141
-82,-63,19,73,-51,-21,29,-53,14,-53,-43,-131
-82,-58,24,70,-53,-17,48,0,73,-9,-24,-117
-73,-48,24,61,-48,-12,68,68,146,48,0,-107
-53,-39,14,46,-34,-12,82,151,219,126,43,-82
-19,-19,0,19,-9,-9,73,209,263,214,131,-29
43,19,-24,-31,34,-2,34,219,283,307,244,48
122,58,-63,-90,92,-2,-14,219,278,405,361,126
200,87,-112,-143,156,-12,-53,253,302,522,478,204
278,112,-165,-195,222,-26,-92,331,390,658,610,278
346,136,-209,-241,278,-36,-126,370,468,795,741,341
434,200,-234,-317,334,-17,-209,258,453,946,902,453
536,297,-239,-417,387,29,-341,24,390,1088,1093,600
605,385,-219,-495,412,82,-439,-170,317,1195,1259,732
658,478,-180,-568,419,148,-527,-366,209,1244,1385,839
712,541,-170,-627,441,185,-624,-653,14,1215,1424,897
702,580,-122,-641,412,229,-707,-971,-268,1015,1342,888
619,595,-24,-607,322,285,-736,-1298,-580,707,1122,829
478,614,136,-546,170,375,-761,-1610,-839,419,888,751
336,644,307,-490,14,475,-761,-1839,-1019,195,697,683
151,668,517,-409,-183,592,-707,-1971,-1176,-34,492,610
-73,663,736,-295,-405,700,-619,-2098,-1322,-317,244,502
-268,600,868,-165,-568,734,-546,-2166,-1444,-614,-48,307
-375,434,810,-29,-592,622,-444,-2049,-1507,-849,-322,48
-424,268,692,78,-558,480,-326,-1883,-1488,-966,-502,-151
-473,185,658,143,-566,422,-234,-1761,-1429,-956,-551,-234
-502,156,658,173,-580,407,-175,-1639,-1327,-902,-531,-239
-492,117,610,187,-551,363,-175,-1546,-1273,-878,-512,-244
-453,92,546,180,-500,319,-204,-1483,-1239,-858,-483,-239
-419,78,497,170,-458,287,-204,-1385,-1161,-785,-448,-239
-400,34,434,183,-417,234,-161,-1215,-1015,-702,-414,-248
-361,0,361,180,-361,180,-122,-1054,-873,-624,-390,-268
-317,-34,283,175,-300,124,-112,-936,-756,-541,-346,-258
-263,-34,229,148,-246,97,-102,-834,-639,-448,-287,-229
-209,-19,190,114,-200,85,-82,-702,-512,-336,-209,-175
-175,4,180,85,-178,92,-78,-590,-400,-253,-136,-122
-141,24,165,58,-153,95,-48,-468,-307,-190,-92,-92
-126,29,156,48,-141,92,-14,-346,-219,-141,-58,-68
-112,53,165,29,-139,109,0,-234,-112,-87,-14,-34
-92,78,170,7,-131,124,0,-141,-39,-43,9,-14
-68,87,156,-9,-112,122,9,-97,0,-24,14,-14
-48,82,131,-17,-90,107,0,-82,14,-19,19,-14
-34,82,117,-24,-75,100,-4,-73,14,-9,19,-19
-24,63,87,-19,-56,75,4,-68,24,-4,24,-19
-24,48,73,-12,-48,61,14,-53,24,0,29,-19
-24,39,63,-7,-43,51,19,-29,39,4,29,-19
-29,39,68,-4,-48,53,24,0,53,9,29,-19
-29,39,68,-4,-48,53,24,14,63,14,29,-19
-29,43,73,-7,-51,58,24,24,73,19,39,-19
-29,43,73,-7,-51,58,24,24,82,24,43,-19
-24,48,73,-12,-48,61,24,19,82,24,43,-19
-24,48,73,-12,-48,61,24,19,82,29,43,-19
-9,48,58,-19,-34,53,24,19,92,29,43,-9
-9,39,48,-14,-29,43,24,29,97,29,48,-9
-4,39,43,-17,-24,41,24,43,102,39,48,-9
-4,43,48,-19,-26,46,24,53,112,43,53,-4
-9,43,53,-17,-31,48,24,63,117,58,53,-4
-9,43,53,-17,-31,48,24,63,122,58,63,-4
-4,43,48,-19,-26,46,19,63,126,63,63,-4
-4,43,48,-19,-26,46,19,63,126,63,63,0
9,43,34,-26,-12,39,19,73,126,63,63,0
9,43,34,-26,-12,39,19,82,136,73,68,0
9,43,34,-26,-12,39,24,87,136,73,68,0
14,43,29,-29,-7,36,24,92,141,73,68,4
4,39,34,-21,-14,36,24,87,146,73,82,14
4,39,34,-21,-14,36,24,92,151,82,82,14
9,39,29,-24,-9,34,19,97,151,82,82,14
9,39,29,-24,-9,34,19,97,151,82,87,14
9,39,29,-24,-9,34,19,97,151,87,87,19
9,39,29,-24,-9,34,19,102,161,87,92,19
9,43,34,-26,-12,39,19,112,161,87,92,19
14,43,29,-29,-7,36,14,117,165,97,97,19
14,43,29,-29,-7,36,14,122,165,97,97,34
14,48,34,-31,-9,41,14,126,170,102,97,34
14,48,34,-31,-9,41,14,126,175,102,107,34
14,48,34,-31,-9,41,14,126,175,112,107,34
29,48,19,-39,4,34,14,126,165,122,107,34
29,48,19,-39,4,34,14,126,175,122,107,39
29,53,24,-41,2,39,9,136,180,122,112,39
34,53,19,-43,7,36,9,136,180,131,112,43
24,53,29,-39,-2,41,9,146,180,126,117,43
24,58,34,-41,-4,46,9,146,190,131,117,43
24,63,39,-43,-7,51,9,156,190,131,122,48
29,63,34,-46,-2,48,9,161,190,136,122,48
39,63,24,-51,7,43,4,170,204,146,126,58
39,68,29,-53,4,48,4,170,204,146,131,63
43,68,24,-56,9,46,4,170,204,156,131,63
43,68,24,-56,9,46,0,180,209,156,141,68
43,68,24,-56,9,46,0,175,200,161,151,68
48,73,24,-61,12,48,0,180,209,161,151,78
48,73,24,-61,12,48,0,185,214,170,151,78
53,78,24,-65,14,51,0,190,219,175,161,78
43,78,34,-61,4,56,0,195,219,180,161,78
43,87,43,-65,0,65,0,195,224,180,165,82
43,87,43,-65,0,65,-4,200,229,180,170,87
48,87,39,-68,4,63,-4,209,229,180,170,87
63,92,29,-78,17,61,-4,219,229,190,170,87
63,97,34,-80,14,65,-4,224,239,195,175,92
68,97,29,-82,19,63,-4,229,244,200,180,92
68,97,29,-82,19,63,-4,239,244,204,185,97
68,92,24,-80,21,58,-4,244,244,204,190,107
73,97,24,-85,24,61,-4,248,253,209,190,107
78,97,19,-87,29,58,-4,253,258,214,190,107
78,102,24,-90,26,63,-9,258,258,219,200,112
78,107,29,-92,24,68,-9,258,258,224,209,112
82,107,24,-95,29,65,-9,263,268,229,214,117
82,107,24,-95,29,65,-9,268,273,234,219,122
82,117,34,-100,24,75,-9,278,278,239,219,122
78,117,39,-97,19,78,-9,283,273,244,219,122
78,122,43,-100,17,82,-9,292,278,248,224,126
87,126,39,-107,24,82,-9,307,287,253,229,126
87,126,39,-107,24,82,-9,317,292,263,239,136
97,126,29,-112,34,78,-9,326,307,268,248,136
97,131,34,-114,31,82,-9,331,317,273,253,136
107,131,24,-119,41,78,-14,341,322,278,258,146
107,131,24,-119,41,78,-14,351,326,287,258,151
107,141,34,-124,36,87,-14,361,341,292,263,156
112,146,34,-129,39,90,-14,370,346,297,268,161
112,146,34,-129,39,90,-14,385,351,307,273,161
122,151,29,-136,46,90,-14,395,366,317,278,170
112,156,43,-134,34,100,-9,409,375,326,292,180
117,161,43,-139,36,102,-9,419,375,331,302,185
122,165,43,-143,39,104,-9,439,395,346,307,190
122,170,48,-146,36,109,-9,444,405,351,317,195
122,165,43,-143,39,104,-9,453,405,361,312,200
131,170,39,-151,46,104,-4,458,414,370,317,204
131,175,43,-153,43,109,-4,478,424,380,326,209
131,180,48,-156,41,114,-4,492,434,390,336,214
131,185,53,-158,39,119,-4,517,448,400,341,219
136,195,58,-165,39,126,0,531,463,414,351,229
136,200,63,-168,36,131,0,546,478,424,356,234
141,204,63,-173,39,134,0,561,483,434,366,239
151,209,58,-180,46,134,0,566,497,444,375,244
151,214,63,-183,43,139,4,580,517,453,380,248
151,214,63,-183,43,139,14,600,531,463,390,258
151,219,68,-185,41,143,19,614,536,473,400,263
151,234,82,-192,34,158,24,639,561,492,419,268
151,239,87,-195,31,163,24,653,570,502,419,273
156,244,87,-200,34,165,24,663,590,512,424,278
156,253,97,-204,29,175,29,678,600,522,429,278
165,248,82,-207,41,165,29,683,605,522,429,278
165,253,87,-209,39,170,39,697,619,531,439,287
165,258,92,-212,36,175,39,712,634,541,444,292
165,258,92,-212,36,175,43,722,639,551,448,297
165,263,97,-214,34,180,43,736,653,561,453,297
165,268,102,-217,31,185,48,751,663,570,453,307
165,273,107,-219,29,190,53,761,678,580,458,312
165,278,112,-222,26,195,58,771,688,580,468,312
156,283,126,-219,14,204,58,775,692,580,478,317
156,287,131,-222,12,209,63,785,702,595,483,317
151,287,136,-219,7,212,63,780,712,600,488,322
151,292,141,-222,4,217,63,780,722,605,492,326
151,302,151,-226,0,226,73,785,732,610,488,322
146,302,156,-224,-4,229,68,785,732,614,492,326
146,307,161,-226,-7,234,68,785,736,619,497,326
136,307,170,-222,-17,239,68,785,736,619,497,326
136,297,161,-217,-12,229,73,775,736,624,497,336
131,302,170,-217,-19,236,73,756,736,624,497,341
131,302,170,-217,-19,236,78,736,736,624,502,341
126,302,175,-214,-24,239,78,712,722,614,502,341
131,302,170,-217,-19,236,78,692,702,600,483,331
126,302,175,-214,-24,239,78,678,692,595,483,331
122,302,180,-212,-29,241,73,653,678,590,473,322
117,292,175,-204,-29,234,68,634,653,580,458,317
102,278,175,-190,-36,226,73,590,624,556,439,302
97,273,175,-185,-39,224,73,561,605,536,434,297
92,268,175,-180,-41,222,68,531,575,507,414,287
82,263,180,-173,-48,222,63,492,551,483,400,283
87,248,161,-168,-36,204,58,463,527,463,385,263
87,244,156,-165,-34,200,53,434,492,434,370,244
82,234,151,-158,-34,192,48,405,463,409,356,234
78,224,146,-151,-34,185,43,380,434,385,331,224
73,204,131,-139,-29,168,39,346,395,351,302,200
68,185,117,-126,-24,151,34,312,366,326,283,190
58,175,117,-117,-29,146,29,283,336,302,263,175
53,156,102,-104,-24,129,24,248,307,273,244,165
48,141,92,-95,-21,117,19,214,287,244,234,151
39,131,92,-85,-26,112,14,190,258,224,209,136
34,126,92,-80,-29,109,14,161,234,195,190,117
34,117,82,-75,-24,100,9,141,204,170,170,97
29,102,73,-65,-21,87,4,117,180,146,156,82
24,92,68,-58,-21,80,0,92,161,126,141,73
19,82,63,-51,-21,73,0,78,141,102,122,68
14,68,53,-41,-19,61,0,58,122,87,112,58
0,58,58,-29,-29,58,0,43,102,78,97,58
-4,48,53,-21,-29,51,-4,29,87,63,82,43
-9,39,48,-14,-29,43,-4,19,68,53,73,34
-9,34,43,-12,-26,39,-9,4,58,39,63,24
-4,24,29,-9,-17,26,-9,-4,43,24,43,9
-4,19,24,-7,-14,21,-9,-14,29,9,34,4
-4,9,14,-2,-9,12,-9,-24,24,4,24,0
-9,0,9,4,-9,4,-9,-34,14,-4,14,-9
-19,-9,9,14,-14,0,0,-34,14,-14,14,-9
-19,-9,9,14,-14,0,0,-43,9,-19,14,-14
-24,-14,9,19,-17,-2,0,-48,0,-19,9,-24
-24,-19,4,21,-14,-7,0,-48,0,-24,4,-29
-24,-24,0,24,-12,-12,0,-39,-4,-29,0,-24
-29,-29,0,29,-14,-14,-4,-43,-9,-34,0,-24
-29,-29,0,29,-14,-14,-4,-43,-14,-39,-4,-24
-29,-29,0,29,-14,-14,0,-43,-14,-43,-4,-24
-29,-29,0,29,-14,-14,0,-58,-9,-48,-9,-39
-34,-34,0,34,-17,-17,0,-58,-9,-53,-14,-39
-34,-34,0,34,-17,-17,0,-58,-9,-53,-14,-39
-34,-34,0,34,-17,-17,-4,-63,-9,-53,-14,-43
-24,-43,-19,34,-2,-31,-4,-63,-24,-53,-24,-39
-29,-48,-19,39,-4,-34,-4,-63,-24,-53,-24,-39
-29,-48,-19,39,-4,-34,0,-63,-24,-58,-24,-39
-29,-48,-19,39,-4,-34,0,-63,-24,-58,-24,-39
-39,-48,-9,43,-14,-29,0,-63,-24,-58,-29,-48
-34,-48,-14,41,-9,-31,0,-63,-24,-58,-29,-48
-34,-48,-14,41,-9,-31,0,-63,-24,-63,-29,-53
-34,-48,-14,41,-9,-31,0,-63,-24,-63,-29,-53
-24,-53,-29,39,2,-41,0,-53,-24,-63,-24,-43
-29,-53,-24,41,-2,-39,0,-53,-24,-63,-24,-43
-29,-53,-24,41,-2,-39,0,-53,-24,-63,-24,-43
-29,-53,-24,41,-2,-39,0,-53,-24,-63,-24,-43
-29,-48,-19,39,-4,-34,0,-53,-24,-63,-24,-43
-29,-48,-19,39,-4,-34,0,-53,-24,-58,-24,-43
-29,-48,-19,39,-4,-34,0,-53,-24,-58,-29,-43
-29,-48,-19,39,-4,-34,0,-53,-24,-58,-29,-43
-29,-48,-19,39,-4,-34,0,-48,-19,-58,-24,-43
-29,-48,-19,39,-4,-34,0,-48,-19,-58,-24,-43
-29,-48,-19,39,-4,-34,0,-48,-19,-58,-19,-39
-29,-53,-24,41,-2,-39,0,-48,-19,-58,-19,-39
-39,-53,-14,46,-12,-34,-4,-58,-19,-58,-29,-39
-34,-53,-19,43,-7,-36,-4,-53,-19,-58,-29,-39
-34,-53,-19,43,-7,-36,-9,-53,-19,-58,-29,-39
-34,-53,-19,43,-7,-36,-9,-53,-14,-58,-29,-39
-29,-53,-24,41,-2,-39,-4,-53,-24,-58,-29,-43
-29,-53,-24,41,-2,-39,-4,-53,-24,-58,-29,-43
-29,-58,-29,43,0,-43,-4,-53,-24,-58,-24,-43
-29,-58,-29,43,0,-43,-9,-53,-24,-58,-24,-43
-19,-48,-29,34,4,-39,0,-53,-24,-68,-19,-43
-19,-48,-29,34,4,-39,0,-53,-24,-63,-19,-43
-24,-48,-24,36,0,-36,0,-48,-24,-63,-19,-43
-24,-43,-19,34,-2,-31,0,-48,-19,-63,-19,-43
-29,-53,-24,41,-2,-39,-9,-58,-29,-63,-19,-53
-29,-53,-24,41,-2,-39,-9,-58,-29,-63,-19,-53
-29,-58,-29,43,0,-43,-9,-58,-29,-63,-19,-48
-29,-58,-29,43,0,-43,-9,-58,-29,-68,-19,-48
-19,-48,-29,34,4,-39,-9,-58,-29,-68,-19,-48
-19,-48,-29,34,4,-39,-9,-58,-29,-63,-19,-48
-19,-48,-29,34,4,-39,-4,-58,-29,-63,-19,-48
-19,-48,-29,34,4,-39,-4,-58,-34,-63,-24,-53
-24,-48,-24,36,0,-36,-4,-58,-34,-68,-34,-53
-24,-48,-24,36,0,-36,-4,-63,-34,-68,-34,-53
-24,-48,-24,36,0,-36,-4,-63,-34,-68,-29,-53
-24,-48,-24,36,0,-36,-4,-63,-34,-68,-29,-53
-24,-48,-24,36,0,-36,-9,-63,-34,-73,-34,-53
-24,-48,-24,36,0,-36,-9,-63,-34,-73,-34,-53
-24,-48,-24,36,0,-36,-9,-63,-39,-73,-34,-48
-24,-48,-24,36,0,-36,-9,-63,-39,-73,-34,-48
-24,-53,-29,39,2,-41,-9,-63,-39,-73,-34,-58
-24,-53,-29,39,2,-41,-9,-68,-39,-73,-34,-58
-24,-53,-29,39,2,-41,-9,-68,-39,-73,-34,-58
-24,-53,-29,39,2,-41,-9,-68,-39,-73,-34,-58
-24,-53,-29,39,2,-41,-14,-68,-39,-73,-39,-48
-24,-53,-29,39,2,-41,-14,-68,-43,-73,-39,-53
-19,-53,-34,36,7,-43,-14,-73,-43,-78,-39,-58
-19,-53,-34,36,7,-43,-14,-73,-43,-82,-39,-58
-24,-53,-29,39,2,-41,-4,-73,-53,-92,-39,-58
-24,-53,-29,39,2,-41,-4,-73,-58,-92,-43,-63
-24,-53,-29,39,2,-41,-4,-73,-58,-92,-43,-63
-24,-58,-34,41,4,-46,-4,-78,-58,-92,-43,-63
-24,-68,-43,46,9,-56,-4,-78,-58,-87,-43,-63
-24,-68,-43,46,9,-56,-4,-82,-63,-87,-43,-63
-24,-68,-43,46,9,-56,-4,-82,-63,-87,-48,-63
-29,-68,-39,48,4,-53,-4,-82,-63,-87,-48,-68
-29,-68,-39,48,4,-53,-4,-78,-63,-92,-58,-68
-29,-68,-39,48,4,-53,-4,-78,-63,-97,-58,-68
-29,-73,-43,51,7,-58,-4,-78,-68,-97,-58,-68
-29,-73,-43,51,7,-58,-4,-78,-68,-97,-63,-68
-34,-82,-48,58,7,-65,-14,-87,-58,-97,-53,-78
-34,-78,-43,56,4,-61,-14,-92,-63,-97,-53,-78
-34,-78,-43,56,4,-61,-14,-92,-63,-97,-58,-78
-34,-78,-43,56,4,-61,-14,-97,-63,-97,-58,-78
-34,-78,-43,56,4,-61,-9,-97,-63,-97,-58,-78
-34,-78,-43,56,4,-61,-9,-97,-63,-97,-58,-82
-34,-78,-43,56,4,-61,-9,-97,-68,-102,-58,-82
-34,-78,-43,56,4,-61,-4,-97,-68,-107,-58,-82
-29,-78,-48,53,9,-63,-4,-97,-68,-112,-68,-87
-29,-78,-48,53,9,-63,-4,-97,-68,-112,-68,-87
-29,-82,-53,56,12,-68,-4,-97,-73,-112,-68,-92
-29,-82,-53,56,12,-68,-9,-97,-73,-112,-73,-92
-39,-82,-43,61,2,-63,-9,-87,-68,-112,-73,-87
-39,-82,-43,61,2,-63,-9,-92,-68,-112,-73,-87
-39,-82,-43,61,2,-63,-9,-92,-68,-112,-73,-87
-39,-82,-43,61,2,-63,-4,-97,-68,-112,-73,-87
-39,-87,-48,63,4,-68,-4,-97,-78,-112,-63,-87
-39,-87,-48,63,4,-68,-4,-97,-73,-112,-63,-87
-39,-87,-48,63,4,-68,-4,-97,-73,-112,-63,-92
-39,-87,-48,63,4,-68,-4,-97,-73,-112,-68,-92
-48,-87,-39,68,-4,-63,-4,-97,-73,-112,-78,-92
-48,-87,-39,68,-4,-63,-4,-97,-78,-112,-78,-92
-48,-87,-39,68,-4,-63,-4,-97,-78,-117,-78,-97
-48,-87,-39,68,-4,-63,-4,-97,-78,-117,-78,-97
-48,-97,-48,73,0,-73,4,-97,-78,-117,-68,-97
-53,-97,-43,75,-4,-70,4,-97,-78,-117,-73,-97
-53,-97,-43,75,-4,-70,4,-97,-82,-122,-73,-97
-48,-102,-53,75,2,-78,4,-102,-82,-122,-68,-97
-48,-102,-53,75,2,-78,-4,-102,-82,-122,-78,-97
-53,-102,-48,78,-2,-75,-4,-102,-82,-122,-82,-97
-53,-97,-43,75,-4,-70,-4,-102,-82,-122,-82,-97
-53,-97,-43,75,-4,-70,-4,-102,-82,-122,-82,-97
-43,-87,-43,65,0,-65,-4,-102,-87,-122,-82,-97
-43,-92,-48,68,2,-70,-4,-102,-87,-122,-82,-102
-43,-92,-48,68,2,-70,-4,-102,-87,-122,-82,-102
-43,-92,-48,68,2,-70,-4,-102,-87,-122,-87,-102
-53,-92,-39,73,-7,-65,-4,-112,-87,-122,-87,-102
-53,-97,-43,75,-4,-70,-4,-112,-87,-122,-87,-102
-53,-97,-43,75,-4,-70,-4,-107,-87,-122,-87,-102
-53,-97,-43,75,-4,-70,-4,-107,-87,-122,-87,-102
-53,-97,-43,75,-4,-70,-4,-107,-82,-122,-87,-112
-53,-97,-43,75,-4,-70,-4,-107,-82,-122,-87,-107
-53,-97,-43,75,-4,-70,-4,-107,-87,-122,-87,-107
-53,-97,-43,75,-4,-70,-4,-112,-87,-126,-87,-107
-43,-97,-53,70,4,-75,-4,-102,-87,-126,-87,-107
-43,-97,-53,70,4,-75,-4,-102,-87,-122,-87,-107
-48,-97,-48,73,0,-73,-4,-102,-87,-122,-87,-107
-48,-97,-48,73,0,-73,0,-102,-87,-122,-82,-107
-53,-92,-39,73,-7,-65,0,-102,-87,-122,-82,-107
-53,-92,-39,73,-7,-65,0,-102,-87,-122,-82,-107
-53,-92,-39,73,-7,-65,0,-102,-87,-126,-82,-107
-58,-92,-34,75,-12,-63,0,-102,-82,-126,-82,-107
-48,-92,-43,70,-2,-68,0,-102,-92,-136,-87,-107
-48,-92,-43,70,-2,-68,0,-102,-92,-136,-87,-107
-48,-92,-43,70,-2,-68,0,-102,-97,-136,-87,-107
-48,-92,-43,70,-2,-68,0,-102,-97,-136,-87,-107
-58,-92,-34,75,-12,-63,0,-112,-107,-141,-87,-117
-58,-92,-34,75,-12,-63,0,-112,-107,-141,-87,-117
-58,-92,-34,75,-12,-63,0,-112,-102,-141,-87,-117
-58,-92,-34,75,-12,-63,0,-112,-102,-141,-87,-117
-48,-92,-43,70,-2,-68,0,-102,-97,-131,-87,-107
-48,-92,-43,70,-2,-68,0,-102,-97,-131,-87,-107
-48,-92,-43,70,-2,-68,0,-102,-97,-131,-87,-107
-48,-92,-43,70,-2,-68,0,-102,-92,-131,-87,-112
-48,-102,-53,75,2,-78,0,-102,-92,-131,-97,-112
-48,-102,-53,75,2,-78,0,-102,-92,-131,-97,-112
-48,-102,-53,75,2,-78,0,-107,-97,-131,-97,-112
-48,-102,-53,75,2,-78,0,-107,-97,-131,-97,-112
-48,-102,-53,75,2,-78,0,-107,-97,-131,-87,-112
-48,-102,-53,75,2,-78,0,-107,-97,-131,-87,-112
-48,-102,-53,75,2,-78,0,-102,-97,-131,-87,-112
-48,-102,-53,75,2,-78,0,-102,-97,-131,-92,-112
-58,-107,-48,82,-4,-78,0,-102,-97,-131,-92,-112
-58,-102,-43,80,-7,-73,0,-102,-97,-131,-92,-112
-58,-97,-39,78,-9,-68,0,-102,-92,-131,-92,-112
-58,-97,-39,78,-9,-68,0,-102,-92,-131,-92,-112
-58,-97,-39,78,-9,-68,0,-107,-92,-131,-92,-102
-58,-102,-43,80,-7,-73,0,-107,-92,-131,-92,-102
-58,-102,-43,80,-7,-73,0,-107,-92,-131,-87,-107
-58,-107,-48,82,-4,-78,0,-107,-92,-131,-87,-107
-58,-97,-39,78,-9,-68,0,-107,-92,-131,-87,-117
-53,-102,-48,78,-2,-75,0,-107,-92,-131,-87,-117
-53,-102,-48,78,-2,-75,4,-107,-92,-126,-87,-112
-53,-97,-43,75,-4,-70,4,-107,-92,-126,-87,-112
-58,-107,-48,82,-4,-78,0,-107,-102,-131,-87,-112
-58,-107,-48,82,-4,-78,0,-107,-97,-131,-87,-112
-58,-107,-48,82,-4,-78,0,-107,-97,-131,-87,-112
-53,-102,-48,78,-2,-75,0,-107,-102,-131,-87,-112
-53,-112,-58,82,2,-85,0,-107,-102,-131,-87,-112
-53,-112,-58,82,2,-85,0,-107,-97,-131,-87,-112
-53,-112,-58,82,2,-85,4,-107,-97,-126,-87,-112
-53,-112,-58,82,2,-85,4,-107,-97,-126,-82,-112
-53,-102,-48,78,-2,-75,4,-107,-97,-136,-92,-117
-53,-102,-48,78,-2,-75,4,-107,-97,-136,-92,-117
-53,-102,-48,78,-2,-75,4,-107,-97,-136,-92,-117
-53,-102,-48,78,-2,-75,4,-107,-97,-136,-87,-112
-53,-97,-43,75,-4,-70,-4,-117,-97,-136,-97,-122
-53,-97,-43,75,-4,-70,-4,-107,-97,-136,-97,-117
-48,-97,-48,73,0,-73,-4,-107,-92,-136,-97,-112
-48,-102,-53,75,2,-78,0,-102,-97,-136,-92,-112
-58,-107,-48,82,-4,-78,9,-107,-97,-131,-82,-107
-48,-102,-53,75,2,-78,9,-107,-92,-131,-82,-102
-48,-97,-48,73,0,-73,9,-107,-87,-131,-82,-102
-48,-92,-43,70,-2,-68,9,-97,-82,-126,-78,-97
-48,-87,-39,68,-4,-63,14,-87,-73,-112,-78,-97
-48,-78,-29,63,-9,-53,19,-78,-73,-112,-73,-97
-48,-68,-19,58,-14,-43,19,-78,-58,-97,-68,-87
-39,-63,-24,51,-7,-43,19,-78,-48,-97,-58,-87
-39,-58,-19,48,-9,-39,19,-78,-48,-97,-58,-87
-39,-53,-14,46,-12,-34,19,-78,-48,-97,-58,-87
-39,-48,-9,43,-14,-29,19,-78,-48,-97,-58,-87
-19,-43,-24,31,2,-34,19,-68,-34,-87,-48,-82
-19,-39,-19,29,0,-29,19,-63,-34,-87,-43,-73
-14,-39,-24,26,4,-31,19,-58,-34,-82,-43,-68
-14,-39,-24,26,4,-31,19,-58,-34,-82,-43,-63
-14,-34,-19,24,2,-26,19,-58,-34,-82,-39,-63
-9,-34,-24,21,7,-29,19,-48,-29,-82,-39,-63
-9,-34,-24,21,7,-29,19,-48,-29,-82,-39,-63
-9,-34,-24,21,7,-29,9,-48,-29,-82,-39,-63
-9,-34,-24,21,7,-29,14,-48,-29,-82,-39,-63
-9,-29,-19,19,4,-24,14,-43,-24,-82,-39,-63
-9,-19,-9,14,0,-14,9,-43,-19,-73,-39,-53
-4,-14,-9,9,2,-12,0,-48,-19,-68,-29,-48
-14,-9,4,12,-9,-2,-24,-58,-29,-68,-29,-53
-14,-4,9,9,-12,2,-34,-63,-34,-68,-29,-53
-4,0,4,2,-4,2,-43,-78,-34,-63,-19,-48
0,9,9,-4,-4,9,-58,-82,-34,-58,-9,-39
9,14,4,-12,2,9,-63,-92,-34,-58,-19,-39
9,14,4,-12,2,9,-63,-92,-43,-58,-19,-39
9,14,4,-12,2,9,-68,-97,-48,-68,-19,-39
9,4,-4,-7,7,0,-68,-102,-53,-73,-24,-43
14,0,-14,-7,14,-7,-68,-117,-58,-78,-24,-48
14,-4,-19,-4,17,-12,-63,-117,-63,-82,-29,-53
14,-9,-24,-2,19,-17,-63,-112,-68,-87,-34,-53
14,-9,-24,-2,19,-17,-63,-112,-78,-87,-34,-53
19,-14,-34,-2,26,-24,-53,-107,-78,-82,-34,-53
19,-19,-39,0,29,-29,-48,-107,-82,-87,-39,-63
19,-24,-43,2,31,-34,-43,-117,-87,-92,-43,-63
19,-29,-48,4,34,-39,-39,-117,-87,-92,-43,-63
9,-29,-39,9,24,-34,-34,-117,-87,-102,-43,-58
4,-34,-39,14,21,-36,-29,-126,-92,-102,-48,-58
4,-34,-39,14,21,-36,-29,-131,-97,-112,-53,-63
0,-48,-48,24,24,-48,-29,-136,-102,-117,-58,-68
-14,-58,-43,36,14,-51,-29,-126,-102,-122,-73,-87
-24,-68,-43,46,9,-56,-24,-126,-107,-126,-82,-92
-24,-73,-48,48,12,-61,-19,-126,-107,-131,-87,-97
-29,-78,-48,53,9,-63,-14,-122,-107,-131,-87,-102
-39,-82,-43,61,2,-63,-9,-122,-107,-131,-87,-102
-43,-87,-43,65,0,-65,-4,-117,-107,-136,-87,-112
-53,-92,-39,73,-7,-65,-4,-117,-107,-136,-97,-112
-63,-92,-29,78,-17,-61,0,-117,-107,-136,-97,-112
-68,-102,-34,85,-17,-68,9,-126,-107,-136,-102,-112
-73,-107,-34,90,-19,-70,9,-136,-117,-146,-107,-112
-73,-112,-39,92,-17,-75,9,-136,-122,-151,-107,-122
-68,-117,-48,92,-9,-82,9,-146,-126,-156,-112,-126
-68,-117,-48,92,-9,-82,0,-151,-136,-161,-117,-126
-68,-117,-48,92,-9,-82,0,-151,-136,-161,-117,-131
-68,-117,-48,92,-9,-82,0,-151,-136,-161,-117,-131
-68,-117,-48,92,-9,-82,0,-151,-136,-161,-117,-131
-78,-131,-53,104,-12,-92,0,-151,-136,-161,-117,-131
-78,-131,-53,104,-12,-92,0,-151,-136,-161,-117,-131
-78,-131,-53,104,-12,-92,0,-151,-136,-161,-117,-131
-78,-131,-53,104,-12,-92,0,-151,-136,-161,-117,-136
-73,-136,-63,104,-4,-100,9,-151,-136,-161,-117,-136
-73,-136,-63,104,-4,-100,9,-146,-131,-161,-117,-131
-73,-136,-63,104,-4,-100,14,-146,-131,-161,-117,-131
-73,-136,-63,104,-4,-100,14,-146,-131,-161,-117,-131
-82,-141,-58,112,-12,-100,14,-136,-122,-161,-117,-131
-82,-141,-58,112,-12,-100,14,-136,-122,-161,-122,-131
-82,-141,-58,112,-12,-100,19,-136,-122,-161,-122,-131
-82,-141,-58,112,-12,-100,19,-136,-122,-161,-122,-131
-73,-141,-68,107,-2,-104,19,-131,-126,-161,-122,-131
-78,-141,-63,109,-7,-102,24,-131,-126,-161,-122,-136
-78,-141,-63,109,-7,-102,24,-131,-126,-161,-122,-136
-78,-141,-63,109,-7,-102,24,-131,-126,-161,-122,-136
-78,-141,-63,109,-7,-102,14,-136,-126,-161,-112,-136
-78,-141,-63,109,-7,-102,14,-136,-126,-161,-112,-136
-78,-141,-63,109,-7,-102,14,-136,-126,-161,-112,-136
-78,-141,-63,109,-7,-102,19,-136,-122,-156,-112,-136
-78,-131,-53,104,-12,-92,19,-136,-122,-156,-122,-136
-78,-131,-53,104,-12,-92,19,-136,-122,-156,-117,-136
-78,-131,-53,104,-12,-92,19,-136,-122,-156,-117,-136
-78,-131,-53,104,-12,-92,19,-131,-122,-156,-117,-136
-78,-131,-53,104,-12,-92,19,-131,-117,-156,-117,-131
-78,-131,-53,104,-12,-92,19,-131,-117,-156,-117,-131
-78,-131,-53,104,-12,-92,19,-131,-117,-151,-117,-131
-78,-126,-48,102,-14,-87,19,-131,-117,-151,-117,-131
-68,-126,-58,97,-4,-92,29,-131,-117,-151,-107,-131
-73,-126,-53,100,-9,-90,29,-131,-117,-151,-107,-131
-73,-126,-53,100,-9,-90,29,-131,-122,-156,-107,-131
-73,-131,-58,102,-7,-95,29,-122,-122,-156,-107,-136
-73,-131,-58,102,-7,-95,24,-117,-107,-151,-117,-136
-73,-122,-48,97,-12,-85,34,-107,-92,-141,-107,-131
-82,-112,-29,97,-26,-70,39,-82,-63,-122,-92,-112
-82,-97,-14,90,-34,-56,58,-48,-14,-78,-73,-107
-82,-97,-14,90,-34,-56,78,29,58,-29,-39,-97
-73,-97,-24,85,-24,-61,92,122,131,39,-4,-73
-39,-78,-39,58,0,-58,92,200,195,117,63,-29
24,-48,-73,12,48,-61,63,239,214,209,156,29
102,0,-102,-51,102,-51,24,248,229,287,253,97
190,39,-151,-114,170,-56,-24,263,234,385,361,175
278,63,-214,-170,246,-75,-63,312,283,492,463,239
356,87,-268,-222,312,-90,-97,351,341,590,556,283
444,131,-312,-287,378,-90,-180,268,366,712,668,346
556,209,-346,-383,451,-68,-302,82,331,844,839,473
653,307,-346,-480,500,-19,-419,-122,268,961,1005,614
727,390,-336,-558,531,26,-517,-336,180,1019,1122,722
800,473,-326,-636,563,73,-624,-595,43,1019,1180,790
839,512,-326,-675,583,92,-717,-902,-180,897,1146,800
805,527,-278,-666,541,124,-775,-1249,-483,639,985,751
683,527,-156,-605,419,185,-810,-1610,-771,341,771,673
531,546,14,-539,258,280,-819,-1878,-980,107,590,624
356,570,214,-463,70,392,-785,-2030,-1146,-73,453,590
102,585,483,-344,-190,534,-717,-2215,-1312,-278,302,541
-131,551,683,-209,-407,617,-644,-2391,-1454,-507,87,434
-287,424,712,-68,-500,568,-541,-2361,-1537,-732,-156,224
-366,258,624,53,-495,441,-424,-2205,-1556,-897,-375,-14
-414,136,551,139,-483,344,-322,-2083,-1527,-946,-502,-156
-463,97,561,183,-512,329,-253,-1961,-1434,-912,-502,-180
-483,68,551,207,-517,309,-224,-1820,-1351,-868,-483,-195
-453,34,488,209,-470,261,-244,-1708,-1307,-858,-483,-219
-409,0,409,204,-409,204,-253,-1590,-1239,-824,-458,-219
-390,-43,346,217,-368,151,-209,-1410,-1102,-741,-424,-219
-380,-78,302,229,-341,112,-151,-1210,-951,-653,-390,-229
-356,-92,263,224,-309,85,-112,-1054,-814,-580,-366,-229
-292,-102,190,197,-241,43,-102,-922,-688,-497,-326,-219
-239,-87,151,163,-195,31,-102,-800,-580,-405,-268,-185
-185,-63,122,124,-153,29,-87,-668,-468,-322,-195,-151
-161,-43,117,102,-139,36,-48,-527,-366,-248,-131,-112
-126,-29,97,78,-112,34,-14,-375,-268,-180,-87,-78
-102,-24,78,63,-90,26,9,-253,-190,-136,-53,-53
-92,-9,82,51,-87,36,19,-161,-117,-102,-39,-34
-78,0,78,39,-78,39,29,-107,-78,-73,-24,-34
-58,4,63,26,-61,34,29,-82,-43,-58,-19,-34
-34,14,48,9,-41,31,24,-73,-34,-58,-19,-39
-24,4,29,9,-26,17,24,-68,-34,-63,-24,-39
-24,-9,14,17,-19,2,34,-63,-39,-68,-19,-39
-24,-19,4,21,-14,-7,39,-39,-29,-63,-19,-39
-29,-19,9,24,-19,-4,43,-9,-19,-58,-19,-39
-29,-19,9,24,-19,-4,43,4,-14,-53,-19,-39
-29,-14,14,21,-21,0,43,24,4,-48,-19,-39
-29,-14,14,21,-21,0,43,24,14,-43,-14,-39
-24,-9,14,17,-19,2,43,19,14,-43,-14,-39
-24,-9,14,17,-19,2,43,19,14,-39,-14,-39
-19,-19,0,19,-9,-9,43,29,14,-29,-14,-39
-19,-29,-9,24,-4,-19,43,39,19,-29,-9,-39
-14,-29,-14,21,0,-21,43,53,24,-19,-9,-39
-14,-24,-9,19,-2,-17,43,63,34,-14,-4,-34
-9,-14,-4,12,-2,-9,43,73,39,-19,4,-34
-9,-14,-4,12,-2,-9,43,73,43,-19,14,-34
-4,-14,-9,9,2,-12,39,73,48,-14,14,-34
-4,-14,-9,9,2,-12,39,73,48,-14,14,-29
9,-14,-24,2,17,-19,39,73,48,-4,14,-29
9,-14,-24,2,17,-19,39,82,58,4,19,-29
9,-14,-24,2,17,-19,43,87,58,4,19,-29
14,-14,-29,0,21,-21,43,92,63,4,19,-24
4,-9,-14,2,9,-12,34,97,58,-4,14,-24
4,-9,-14,2,9,-12,34,102,63,4,14,-24
9,-9,-19,0,14,-14,29,107,63,4,14,-24
9,-9,-19,0,14,-14,29,107,63,4,19,-24
9,-9,-19,0,14,-14,39,107,73,19,19,-19
9,-9,-19,0,14,-14,39,112,82,19,24,-19
9,-4,-14,-2,12,-9,39,122,82,19,24,-19
14,-4,-19,-4,17,-12,34,126,87,29,29,-19
14,-14,-29,0,21,-21,34,122,87,19,29,-14
14,-9,-24,-2,19,-17,34,126,92,24,29,-14
14,-9,-24,-2,19,-17,34,126,97,24,39,-14
14,-9,-24,-2,19,-17,34,126,97,34,39,-14
19,-9,-29,-4,24,-19,34,131,97,43,39,-4
19,-9,-29,-4,24,-19,34,136,107,43,39,0
19,-4,-24,-7,21,-14,29,151,112,43,43,0
24,-4,-29,-9,26,-17,29,156,112,53,43,4
24,-4,-29,-9,26,-17,29,156,112,48,48,-4
24,0,-24,-12,24,-12,29,156,122,53,48,-4
24,4,-19,-14,21,-7,29,165,122,53,53,0
29,4,-24,-17,26,-9,29,170,122,58,53,0
29,4,-24,-17,26,-9,34,170,126,68,58,0
29,9,-19,-19,24,-4,34,170,126,68,63,4
34,9,-24,-21,29,-7,34,170,126,78,63,4
34,9,-24,-21,29,-7,29,180,131,78,73,9
34,9,-24,-21,29,-7,29,185,131,82,73,9
39,14,-24,-26,31,-4,29,190,141,82,73,19
39,14,-24,-26,31,-4,29,195,146,92,73,19
43,19,-24,-31,34,-2,29,200,151,97,82,19
34,19,-14,-26,24,2,29,214,151,102,82,19
34,29,-4,-31,19,12,29,214,156,102,87,24
34,29,-4,-31,19,12,24,219,161,102,92,29
39,29,-9,-34,24,9,24,229,161,102,92,29
53,34,-19,-43,36,7,24,219,161,102,92,29
53,39,-14,-46,34,12,24,224,170,107,97,34
58,39,-19,-48,39,9,24,229,175,112,102,34
58,39,-19,-48,39,9,24,239,175,117,107,39
58,53,-4,-56,31,24,14,244,165,117,112,39
63,58,-4,-61,34,26,14,248,175,122,112,39
68,58,-9,-63,39,24,14,253,180,126,112,39
68,63,-4,-65,36,29,9,258,180,131,122,43
68,58,-9,-63,39,24,9,268,190,136,112,34
73,58,-14,-65,43,21,9,273,200,141,117,39
73,58,-14,-65,43,21,9,278,204,146,122,43
73,68,-4,-70,39,31,9,287,209,151,122,43
78,68,-9,-73,43,29,9,292,214,156,131,43
78,73,-4,-75,41,34,9,302,219,161,136,48
87,78,-9,-82,48,34,9,317,229,165,141,48
87,78,-9,-82,48,34,9,326,234,175,151,58
87,87,0,-87,43,43,9,336,239,180,151,58
87,92,4,-90,41,48,9,341,248,185,156,58
97,92,-4,-95,51,43,4,351,253,190,161,68
97,92,-4,-95,51,43,4,361,258,200,161,73
97,112,14,-104,41,63,4,380,273,204,175,78
102,117,14,-109,43,65,4,390,278,209,180,82
102,117,14,-109,43,65,4,405,283,219,185,82
112,122,9,-117,51,65,4,414,297,229,190,92
112,117,4,-114,53,61,9,429,307,239,195,102
117,122,4,-119,56,63,9,439,307,244,204,107
122,126,4,-124,58,65,9,458,326,258,209,112
122,131,9,-126,56,70,9,463,336,263,219,117
122,146,24,-134,48,85,9,483,336,263,214,122
131,151,19,-141,56,85,14,488,346,273,219,126
131,156,24,-143,53,90,14,507,356,283,229,131
131,161,29,-146,51,95,14,522,366,292,239,136
131,165,34,-148,48,100,14,536,380,312,253,131
136,175,39,-156,48,107,19,551,395,326,263,141
136,180,43,-158,46,112,19,566,409,336,268,146
141,185,43,-163,48,114,19,580,414,346,278,151
141,180,39,-161,51,109,19,595,429,346,278,156
141,185,43,-163,48,114,24,610,448,356,283,161
141,185,43,-163,48,114,34,629,463,366,292,170
141,190,48,-165,46,119,39,644,468,375,302,175
141,195,53,-168,43,124,43,658,492,385,312,190
141,200,58,-170,41,129,43,673,502,395,312,195
146,204,58,-175,43,131,43,683,522,405,317,200
146,214,68,-180,39,141,48,697,531,414,322,200
156,229,73,-192,41,151,48,712,536,424,322,190
156,234,78,-195,39,156,58,727,551,434,331,200
156,239,82,-197,36,161,58,741,566,444,336,204
156,239,82,-197,36,161,63,751,570,453,341,209
146,234,87,-190,29,161,73,766,585,463,356,209
146,239,92,-192,26,165,78,780,595,473,356,219
146,244,97,-195,24,170,82,790,610,483,361,224
146,248,102,-197,21,175,87,800,619,483,370,224
146,263,117,-204,14,190,87,810,634,492,370,229
146,268,122,-207,12,195,92,824,644,507,375,229
141,268,126,-204,7,197,92,824,653,512,380,234
141,273,131,-207,4,202,92,829,663,517,385,239
141,273,131,-207,4,202,102,824,673,531,400,244
136,273,136,-204,0,204,97,824,673,536,405,248
136,278,141,-207,-2,209,97,824,678,541,409,248
126,278,151,-202,-12,214,97,824,678,541,409,248
126,278,151,-202,-12,214,102,824,678,546,409,258
122,283,161,-202,-19,222,102,805,678,546,409,263
122,283,161,-202,-19,222,107,785,678,546,414,263
117,283,165,-200,-24,224,107,761,663,536,414,263
122,292,170,-207,-24,231,97,746,653,531,414,263
117,292,175,-204,-29,234,97,727,644,527,414,263
112,292,180,-202,-34,236,92,697,629,522,405,253
107,283,175,-195,-34,229,87,673,605,512,390,248
102,278,175,-190,-36,226,82,639,585,492,380,244
97,273,175,-185,-39,224,82,610,566,478,375,239
92,268,175,-180,-41,222,78,580,536,453,356,229
82,263,180,-173,-48,222,73,541,512,434,341,224
78,248,170,-163,-46,209,68,507,488,405,326,214
78,244,165,-161,-43,204,63,473,453,375,312,195
73,234,161,-153,-43,197,58,439,424,351,297,185
68,224,156,-146,-43,190,53,409,395,326,273,175
53,214,161,-134,-53,187,48,366,366,307,253,161
48,195,146,-122,-48,170,43,331,336,287,234,151
39,185,146,-112,-53,165,39,302,307,268,214,136
34,165,131,-100,-48,148,34,268,278,244,195,126
29,151,122,-90,-46,136,29,234,258,214,175,112
19,141,122,-80,-51,131,24,209,229,195,151,97
14,136,122,-75,-53,129,24,180,204,165,131,78
14,126,112,-70,-48,119,19,161,175,141,112,58
9,112,102,-61,-46,107,14,126,141,107,87,34
4,102,97,-53,-46,100,9,102,122,87,73,24
0,92,92,-46,-46,92,9,87,102,63,53,19
-4,78,82,-36,-43,80,9,68,82,48,43,9
0,58,58,-29,-29,58,9,43,53,29,29,0
-4,48,53,-21,-29,51,4,29,39,14,14,-14
-9,39,48,-14,-29,43,4,19,19,4,4,-24
-9,34,43,-12,-26,39,0,4,9,-9,-4,-34
-19,24,43,-2,-31,34,0,-14,-4,-24,-14,-39
-24,19,43,2,-34,31,0,-24,-19,-39,-24,-43
-29,9,39,9,-34,24,0,-34,-24,-43,-34,-48
-39,0,39,19,-39,19,0,-43,-34,-53,-43,-58
-39,-9,29,24,-34,9,0,-53,-53,-73,-43,-58
-39,-9,29,24,-34,9,0,-63,-58,-78,-43,-63
-43,-14,29,29,-36,7,0,-68,-68,-78,-48,-73
-43,-19,24,31,-34,2,0,-68,-68,-82,-53,-78
-34,-24,9,29,-21,-7,0,-78,-68,-87,-68,-82
-39,-29,9,34,-24,-9,-4,-82,-68,-92,-68,-82
-39,-29,9,34,-24,-9,-4,-82,-68,-97,-73,-82
-39,-29,9,34,-24,-9,0,-82,-63,-102,-73,-82
-29,-29,0,29,-14,-14,0,-87,-78,-107,-78,-87
-34,-34,0,34,-17,-17,0,-87,-78,-112,-82,-87
-34,-34,0,34,-17,-17,0,-87,-78,-112,-82,-87
-34,-34,0,34,-17,-17,-4,-92,-78,-112,-82,-92
-43,-43,0,43,-21,-21,-4,-92,-82,-112,-82,-87
-48,-48,0,48,-24,-24,-4,-92,-82,-112,-82,-87
-48,-48,0,48,-24,-24,0,-92,-82,-117,-82,-87
-48,-48,0,48,-24,-24,0,-92,-82,-117,-82,-87
-39,-48,-9,43,-14,-29,0,-92,-92,-117,-87,-87
-34,-48,-14,41,-9,-31,0,-92,-92,-117,-87,-87
-34,-48,-14,41,-9,-31,0,-92,-92,-122,-87,-92
-34,-48,-14,41,-9,-31,0,-92,-92,-122,-87,-92
-34,-53,-19,43,-7,-36,0,-92,-92,-112,-82,-102
-39,-53,-14,46,-12,-34,0,-92,-92,-112,-82,-102
-39,-53,-14,46,-12,-34,0,-92,-92,-112,-82,-102
-39,-53,-14,46,-12,-34,0,-92,-92,-112,-82,-102
-39,-58,-19,48,-9,-39,0,-82,-82,-112,-82,-102
-39,-58,-19,48,-9,-39,0,-82,-82,-107,-82,-102
-39,-58,-19,48,-9,-39,0,-82,-82,-107,-87,-102
-39,-58,-19,48,-9,-39,0,-82,-82,-107,-87,-102
-39,-58,-19,48,-9,-39,0,-78,-78,-107,-92,-102
-39,-58,-19,48,-9,-39,0,-78,-78,-107,-92,-102
-39,-58,-19,48,-9,-39,0,-78,-78,-107,-87,-97
-39,-63,-24,51,-7,-43,0,-78,-78,-107,-87,-97
-48,-63,-14,56,-17,-39,4,-78,-78,-107,-87,-97
-43,-63,-19,53,-12,-41,4,-73,-78,-107,-87,-97
-43,-63,-19,53,-12,-41,0,-73,-78,-107,-87,-97
-43,-63,-19,53,-12,-41,0,-73,-73,-107,-87,-97
-39,-53,-14,46,-12,-34,4,-73,-73,-107,-87,-102
-39,-53,-14,46,-12,-34,4,-73,-73,-107,-87,-102
-39,-58,-19,48,-9,-39,4,-73,-73,-107,-82,-102
-39,-58,-19,48,-9,-39,0,-73,-73,-107,-82,-102
-39,-48,-9,43,-14,-29,0,-73,-63,-97,-87,-102
-39,-48,-9,43,-14,-29,0,-73,-63,-92,-87,-102
-43,-48,-4,46,-19,-26,0,-68,-63,-92,-87,-102
-43,-43,0,43,-21,-21,0,-68,-58,-92,-87,-102
-39,-53,-14,46,-12,-34,0,-68,-58,-102,-87,-102
-39,-53,-14,46,-12,-34,0,-68,-58,-102,-87,-102
-39,-58,-19,48,-9,-39,0,-68,-58,-102,-87,-97
-39,-58,-19,48,-9,-39,0,-68,-58,-107,-87,-97
-39,-58,-19,48,-9,-39,0,-68,-58,-97,-87,-97
-39,-58,-19,48,-9,-39,0,-68,-58,-92,-87,-97
-39,-58,-19,48,-9,-39,4,-68,-58,-92,-87,-97
-39,-58,-19,48,-9,-39,4,-68,-63,-92,-92,-102
-34,-68,-34,51,0,-51,4,-58,-63,-97,-82,-92
-34,-68,-34,51,0,-51,4,-63,-63,-97,-82,-92
-34,-68,-34,51,0,-51,4,-63,-63,-97,-78,-92
-34,-68,-34,51,0,-51,4,-63,-63,-97,-78,-92
-34,-58,-24,46,-4,-41,0,-73,-63,-102,-82,-97
-34,-58,-24,46,-4,-41,0,-73,-63,-102,-82,-102
-34,-58,-24,46,-4,-41,0,-73,-68,-102,-82,-102
-34,-58,-24,46,-4,-41,0,-73,-68,-102,-82,-107
-34,-63,-29,48,-2,-46,0,-73,-68,-102,-92,-117
-34,-63,-29,48,-2,-46,0,-78,-68,-102,-92,-117
-34,-63,-29,48,-2,-46,0,-78,-68,-102,-92,-117
-34,-63,-29,48,-2,-46,0,-78,-68,-102,-92,-117
-43,-63,-19,53,-12,-41,4,-78,-68,-112,-97,-112
-43,-63,-19,53,-12,-41,4,-78,-73,-112,-97,-112
-39,-63,-24,51,-7,-43,4,-82,-73,-117,-97,-112
-39,-63,-24,51,-7,-43,4,-82,-73,-122,-97,-107
-34,-73,-39,53,2,-56,4,-73,-73,-122,-97,-107
-34,-73,-39,53,2,-56,4,-73,-78,-122,-102,-112
-34,-73,-39,53,2,-56,4,-73,-78,-122,-102,-112
-34,-78,-43,56,4,-61,4,-78,-78,-122,-102,-112
-43,-68,-24,56,-9,-46,-4,-87,-78,-126,-102,-122
-43,-68,-24,56,-9,-46,-4,-92,-82,-126,-102,-122
-43,-68,-24,56,-9,-46,-4,-92,-82,-126,-107,-122
-48,-68,-19,58,-14,-43,-4,-92,-82,-126,-107,-126
-39,-68,-29,53,-4,-48,-4,-97,-82,-122,-97,-117
-39,-68,-29,53,-4,-48,-4,-97,-82,-126,-97,-117
-39,-73,-34,56,-2,-53,-4,-97,-87,-126,-97,-117
-39,-73,-34,56,-2,-53,-4,-97,-87,-126,-102,-117
-43,-73,-29,58,-7,-51,-4,-97,-87,-126,-102,-117
-43,-68,-24,56,-9,-46,-4,-102,-92,-126,-102,-117
-43,-68,-24,56,-9,-46,-4,-102,-92,-126,-107,-117
-43,-68,-24,56,-9,-46,-4,-107,-92,-126,-107,-117
-43,-68,-24,56,-9,-46,-9,-107,-92,-136,-117,-126
-43,-68,-24,56,-9,-46,-9,-107,-92,-136,-117,-131
-43,-68,-24,56,-9,-46,-9,-107,-97,-141,-117,-131
-43,-68,-24,56,-9,-46,-4,-107,-97,-146,-117,-131
-48,-68,-19,58,-14,-43,-4,-107,-97,-141,-126,-136
-48,-68,-19,58,-14,-43,-4,-107,-97,-141,-126,-136
-48,-73,-24,61,-12,-48,-4,-107,-102,-141,-126,-141
-48,-73,-24,61,-12,-48,-9,-107,-102,-141,-131,-141
-48,-73,-24,61,-12,-48,-9,-107,-107,-141,-122,-136
-48,-73,-24,61,-12,-48,-9,-112,-107,-141,-122,-136
-48,-73,-24,61,-12,-48,-9,-112,-107,-141,-122,-136
-48,-73,-24,61,-12,-48,-4,-117,-107,-141,-122,-136
-58,-78,-19,68,-19,-48,4,-107,-107,-141,-122,-126
-58,-78,-19,68,-19,-48,4,-107,-102,-141,-122,-126
-58,-78,-19,68,-19,-48,4,-107,-102,-141,-122,-131
-58,-78,-19,68,-19,-48,4,-107,-102,-141,-126,-131
-48,-78,-29,63,-9,-53,-4,-117,-102,-141,-126,-131
-48,-78,-29,63,-9,-53,-4,-117,-107,-141,-126,-131
-48,-78,-29,63,-9,-53,-4,-117,-107,-146,-126,-136
-48,-78,-29,63,-9,-53,-4,-117,-107,-146,-126,-136
-48,-78,-29,63,-9,-53,-4,-117,-107,-146,-136,-136
-53,-78,-24,65,-14,-51,-4,-117,-107,-146,-141,-136
-53,-78,-24,65,-14,-51,-4,-117,-112,-151,-141,-136
-48,-82,-34,65,-7,-58,-4,-122,-112,-151,-136,-136
-58,-82,-24,70,-17,-53,4,-112,-112,-151,-136,-146
-63,-82,-19,73,-21,-51,4,-112,-112,-151,-141,-146
-63,-78,-14,70,-24,-46,4,-112,-112,-151,-141,-146
-63,-78,-14,70,-24,-46,4,-112,-112,-151,-141,-146
-53,-78,-24,65,-14,-51,-4,-122,-117,-151,-141,-146
-53,-82,-29,68,-12,-56,-4,-122,-117,-151,-141,-151
-53,-82,-29,68,-12,-56,-4,-122,-117,-151,-141,-151
-53,-82,-29,68,-12,-56,-4,-122,-117,-151,-146,-151
-63,-73,-9,68,-26,-41,-4,-122,-107,-151,-136,-151
-63,-78,-14,70,-24,-46,-4,-122,-107,-151,-136,-151
-63,-78,-14,70,-24,-46,-4,-117,-107,-151,-136,-151
-63,-78,-14,70,-24,-46,-4,-117,-107,-151,-136,-151
-63,-78,-14,70,-24,-46,-4,-117,-112,-151,-136,-151
-63,-78,-14,70,-24,-46,-4,-117,-112,-151,-136,-146
-63,-78,-14,70,-24,-46,-4,-117,-117,-151,-136,-146
-63,-78,-14,70,-24,-46,-4,-122,-117,-156,-136,-146
-53,-87,-34,70,-9,-61,4,-122,-117,-156,-136,-146
-53,-87,-34,70,-9,-61,4,-122,-117,-151,-136,-146
-58,-87,-29,73,-14,-58,4,-122,-117,-151,-136,-146
-58,-87,-29,73,-14,-58,9,-122,-117,-151,-131,-146
-53,-82,-29,68,-12,-56,0,-122,-107,-151,-141,-156
-53,-82,-29,68,-12,-56,0,-122,-107,-151,-141,-156
-53,-82,-29,68,-12,-56,0,-122,-107,-156,-141,-156
-58,-82,-24,70,-17,-53,0,-122,-102,-156,-141,-156
-58,-92,-34,75,-12,-63,0,-112,-112,-156,-136,-156
-58,-92,-34,75,-12,-63,0,-112,-112,-156,-136,-156
-58,-92,-34,75,-12,-63,0,-112,-117,-156,-136,-156
-58,-92,-34,75,-12,-63,0,-112,-117,-156,-136,-156
-58,-92,-34,75,-12,-63,0,-122,-117,-141,-136,-156
-58,-92,-34,75,-12,-63,0,-122,-117,-141,-136,-156
-58,-92,-34,75,-12,-63,0,-122,-112,-141,-136,-156
-58,-92,-34,75,-12,-63,0,-122,-112,-141,-136,-156
-58,-82,-24,70,-17,-53,0,-122,-117,-151,-136,-146
-58,-82,-24,70,-17,-53,0,-122,-117,-151,-136,-146
-58,-82,-24,70,-17,-53,0,-122,-117,-151,-136,-146
-58,-82,-24,70,-17,-53,0,-122,-112,-151,-136,-151
-58,-92,-34,75,-12,-63,0,-122,-112,-151,-146,-161
-58,-92,-34,75,-12,-63,0,-122,-112,-151,-146,-161
-58,-92,-34,75,-12,-63,0,-126,-117,-151,-146,-161
-58,-92,-34,75,-12,-63,0,-126,-117,-151,-146,-161
-58,-82,-24,70,-17,-53,0,-126,-117,-151,-146,-161
-58,-82,-24,70,-17,-53,0,-126,-117,-151,-146,-161
-58,-82,-24,70,-17,-53,0,-122,-117,-151,-146,-161
-58,-82,-24,70,-17,-53,0,-122,-117,-151,-151,-161
-58,-87,-29,73,-14,-58,0,-122,-107,-151,-141,-161
-58,-82,-24,70,-17,-53,0,-122,-107,-151,-141,-161
-58,-78,-19,68,-19,-48,0,-122,-102,-151,-141,-161
-58,-78,-19,68,-19,-48,0,-122,-102,-151,-141,-161
-58,-87,-29,73,-14,-58,0,-117,-112,-151,-141,-161
-58,-92,-34,75,-12,-63,0,-117,-112,-151,-141,-161
-58,-92,-34,75,-12,-63,0,-117,-112,-151,-136,-165
-58,-97,-39,78,-9,-68,0,-117,-112,-151,-136,-165
-63,-97,-34,80,-14,-65,0,-117,-112,-151,-146,-165
-63,-102,-39,82,-12,-70,0,-117,-112,-151,-146,-165
-68,-102,-34,85,-17,-68,4,-117,-112,-146,-146,-161
-73,-97,-24,85,-24,-61,4,-117,-112,-146,-146,-161
-68,-87,-19,78,-24,-53,0,-126,-112,-151,-146,-161
-68,-87,-19,78,-24,-53,0,-126,-107,-151,-146,-161
-68,-87,-19,78,-24,-53,0,-126,-107,-151,-146,-161
-63,-82,-19,73,-21,-51,0,-126,-112,-151,-146,-161
-53,-92,-39,73,-7,-65,0,-117,-112,-151,-146,-161
-53,-92,-39,73,-7,-65,0,-117,-107,-151,-146,-161
-53,-92,-39,73,-7,-65,4,-117,-107,-146,-146,-161
-53,-92,-39,73,-7,-65,4,-117,-107,-146,-141,-161
-63,-92,-29,78,-17,-61,4,-117,-107,-146,-141,-156
-63,-92,-29,78,-17,-61,4,-117,-107,-146,-141,-156
-63,-92,-29,78,-17,-61,4,-117,-107,-146,-141,-156
-63,-92,-29,78,-17,-61,4,-117,-107,-146,-136,-151
-63,-87,-24,75,-19,-56,4,-117,-112,-146,-136,-161
-63,-87,-24,75,-19,-56,4,-107,-107,-146,-136,-156
-58,-87,-29,73,-14,-58,4,-107,-97,-146,-136,-151
-58,-92,-34,75,-12,-63,9,-102,-97,-146,-131,-151
-68,-97,-29,82,-19,-63,9,-107,-107,-141,-131,-151
-58,-92,-34,75,-12,-63,9,-107,-102,-141,-131,-151
-58,-87,-29,73,-14,-58,9,-107,-97,-141,-131,-156
-58,-82,-24,70,-17,-53,9,-97,-92,-136,-126,-156
-58,-58,0,58,-29,-29,24,-97,-73,-112,-126,-146
-48,-48,0,48,-24,-24,19,-87,-68,-107,-117,-136
-39,-39,0,39,-19,-19,19,-87,-58,-107,-107,-126
-39,-39,0,39,-19,-19,19,-87,-58,-107,-107,-126
-39,-39,0,39,-19,-19,19,-87,-58,-107,-107,-126
-39,-39,0,39,-19,-19,19,-87,-58,-107,-107,-126
-39,-24,14,31,-26,-4,19,-78,-53,-97,-107,-126
-39,-19,19,29,-29,0,19,-73,-53,-97,-102,-122
-34,-19,14,26,-24,-2,19,-68,-53,-92,-102,-122
-34,-19,14,26,-24,-2,19,-68,-53,-92,-102,-122
-34,-24,9,29,-21,-7,19,-68,-43,-92,-97,-122
-29,-24,4,26,-17,-9,19,-58,-39,-92,-97,-122
-29,-24,4,26,-17,-9,19,-58,-39,-92,-97,-122
-29,-24,4,26,-17,-9,9,-58,-39,-92,-97,-122
-29,-24,4,26,-17,-9,4,-58,-39,-102,-97,-131
-29,-19,9,24,-19,-4,4,-53,-34,-102,-97,-131
-29,-9,19,19,-24,4,0,-53,-29,-92,-97,-122
-24,-4,19,14,-21,7,-9,-58,-29,-87,-87,-117
-24,9,34,7,-29,21,-24,-58,-29,-78,-78,-102
-24,14,39,4,-31,26,-34,-63,-34,-78,-78,-102
-14,19,34,-2,-24,26,-43,-78,-34,-73,-68,-97
-9,29,39,-9,-24,34,-58,-82,-34,-68,-58,-87
-9,34,43,-12,-26,39,-63,-97,-34,-68,-68,-78
-9,34,43,-12,-26,39,-63,-102,-43,-68,-68,-78
-9,34,43,-12,-26,39,-68,-112,-48,-78,-68,-78
-9,24,34,-7,-21,29,-68,-122,-53,-82,-73,-82
-14,19,34,-2,-24,26,-58,-117,-58,-87,-73,-97
-14,14,29,0,-21,21,-53,-117,-63,-92,-78,-102
-14,9,24,2,-19,17,-53,-112,-68,-97,-82,-102
-14,9,24,2,-19,17,-53,-112,-78,-97,-82,-102
0,4,4,-2,-2,4,-53,-107,-78,-92,-82,-92
0,0,0,0,0,0,-48,-107,-82,-97,-87,-102
0,-4,-4,2,2,-4,-43,-117,-87,-102,-92,-102
0,-9,-9,4,4,-9,-39,-117,-87,-102,-92,-102
-9,0,9,4,-9,4,-24,-107,-78,-102,-92,-112
-14,-4,9,9,-12,2,-19,-117,-82,-102,-97,-117
-14,-4,9,9,-12,2,-19,-122,-87,-112,-102,-126
-19,-19,0,19,-9,-9,-19,-126,-92,-117,-107,-136
-29,-29,0,29,-14,-14,-19,-126,-92,-122,-112,-136
-43,-39,4,41,-24,-17,-14,-126,-97,-126,-122,-141
-48,-43,4,46,-26,-19,-9,-126,-97,-131,-126,-146
-58,-48,9,53,-34,-19,-4,-122,-97,-131,-126,-151
-63,-63,0,63,-31,-31,-9,-122,-107,-131,-126,-151
-63,-68,-4,65,-29,-36,-4,-117,-107,-136,-126,-161
-68,-73,-4,70,-31,-39,-4,-117,-107,-136,-136,-161
-73,-73,0,73,-36,-36,0,-117,-107,-136,-136,-161
-87,-92,-4,90,-41,-48,9,-117,-97,-136,-141,-161
-92,-97,-4,95,-43,-51,9,-126,-107,-146,-146,-161
-92,-102,-9,97,-41,-56,9,-126,-112,-151,-146,-170
-87,-107,-19,97,-34,-63,9,-136,-117,-156,-151,-175
-87,-107,-19,97,-34,-63,0,-141,-126,-161,-156,-175
-87,-107,-19,97,-34,-63,0,-141,-126,-161,-156,-180
-87,-107,-19,97,-34,-63,0,-141,-126,-161,-156,-180
-87,-107,-19,97,-34,-63,0,-141,-126,-161,-156,-180
-78,-112,-34,95,-21,-73,0,-141,-126,-151,-146,-180
-78,-112,-34,95,-21,-73,0,-141,-126,-151,-146,-180
-78,-112,-34,95,-21,-73,0,-141,-126,-151,-146,-180
-78,-112,-34,95,-21,-73,0,-141,-126,-151,-146,-185
-92,-117,-24,104,-34,-70,9,-141,-126,-161,-156,-185
-92,-117,-24,104,-34,-70,9,-136,-122,-161,-156,-180
-92,-117,-24,104,-34,-70,14,-136,-122,-161,-156,-180
-92,-117,-24,104,-34,-70,14,-136,-122,-161,-156,-180
-92,-122,-29,107,-31,-75,14,-126,-112,-151,-146,-170
-92,-122,-29,107,-31,-75,14,-126,-112,-151,-151,-170
-92,-122,-29,107,-31,-75,19,-126,-112,-151,-151,-170
-92,-122,-29,107,-31,-75,19,-126,-112,-151,-151,-170
-82,-122,-39,102,-21,-80,19,-122,-107,-151,-151,-180
-87,-122,-34,104,-26,-78,24,-122,-107,-151,-151,-185
-87,-122,-34,104,-26,-78,24,-122,-107,-151,-151,-185
-87,-122,-34,104,-26,-78,24,-122,-107,-151,-151,-185
-97,-122,-24,109,-36,-73,24,-117,-107,-141,-151,-185
-97,-122,-24,109,-36,-73,24,-117,-107,-141,-151,-185
-97,-122,-24,109,-36,-73,24,-117,-107,-141,-151,-185
-97,-122,-24,109,-36,-73,29,-117,-102,-136,-151,-185
-97,-122,-24,109,-36,-73,29,-117,-102,-146,-151,-185
-97,-122,-24,109,-36,-73,29,-117,-102,-146,-146,-185
-97,-122,-24,109,-36,-73,29,-117,-102,-146,-146,-185
-97,-122,-24,109,-36,-73,29,-112,-102,-146,-146,-185
-97,-112,-14,104,-41,-63,29,-112,-97,-146,-146,-180
-97,-112,-14,104,-41,-63,29,-112,-97,-146,-146,-180
-97,-112,-14,104,-41,-63,29,-112,-97,-141,-146,-180
-97,-107,-9,102,-43,-58,29,-112,-97,-141,-146,-180
-87,-117,-29,102,-29,-73,29,-112,-97,-141,-146,-180
-92,-117,-24,104,-34,-70,29,-112,-97,-141,-146,-180
-92,-117,-24,104,-34,-70,29,-112,-102,-146,-146,-180
-92,-122,-29,107,-31,-75,29,-102,-102,-146,-146,-185
-102,-122,-19,112,-41,-70,43,-97,-87,-131,-146,-185
-102,-112,-9,107,-46,-61,43,-87,-63,-122,-146,-190
-92,-102,-9,97,-41,-56,39,-63,-43,-102,-131,-180
-82,-107,-24,95,-29,-65,48,-19,-4,-58,-112,-165
-82,-97,-14,90,-34,-56,68,39,68,0,-78,-156
-63,-87,-24,75,-19,-56,92,122,151,68,-34,-131
-19,-68,-48,43,14,-58,82,200,204,156,34,-87
34,-39,-73,2,53,-56,53,229,234,248,136,-19
92,0,-92,-46,92,-46,14,229,239,336,253,68
170,39,-131,-104,151,-46,-24,244,244,444,380,136
248,73,-175,-161,212,-51,-73,292,302,561,502,209
326,97,-229,-212,278,-65,-107,351,370,688,614,273
405,131,-273,-268,339,-70,-180,287,385,819,746,366
497,219,-278,-358,387,-29,-292,82,351,971,927,492
595,317,-278,-456,436,19,-400,-122,287,1098,1122,644
658,409,-248,-534,453,80,-488,-307,209,1176,1259,761
712,492,-219,-602,466,136,-585,-556,73,1166,1337,839
732,551,-180,-641,456,185,-678,-863,-190,1034,1302,858
678,566,-112,-622,395,226,-717,-1200,-492,766,1132,800
546,575,29,-561,258,302,-741,-1522,-780,468,888,722
395,595,200,-495,97,397,-751,-1790,-980,234,688,663
229,629,400,-429,-85,514,-717,-1952,-1137,34,512,610
4,644,639,-324,-317,641,-639,-2069,-1283,-209,292,522
-219,590,810,-185,-514,700,-556,-2176,-1415,-507,9,356
-356,473,829,-58,-592,651,-463,-2127,-1488,-771,-273,117
-414,307,722,53,-568,514,-346,-1961,-1517,-946,-492,-122
-473,185,658,143,-566,422,-244,-1830,-1488,-995,-600,-263
-522,146,668,187,-595,407,-175,-1708,-1385,-951,-600,-297
-522,117,639,202,-580,378,-156,-1595,-1302,-888,-580,-302
-483,82,566,200,-524,324,-185,-1532,-1288,-878,-561,-297
-448,48,497,200,-473,273,-204,-1454,-1229,-834,-536,-297
-419,24,444,197,-431,234,-161,-1293,-1102,-751,-502,-307
-400,-19,380,209,-390,180,-112,-1122,-951,-673,-478,-326
-356,-43,312,200,-334,134,-92,-995,-824,-600,-444,-336
-302,-43,258,173,-280,107,-82,-883,-707,-517,-395,-307
-248,-39,209,143,-229,85,-73,-761,-590,-424,-317,-263
-214,-24,190,119,-202,82,-58,-649,-478,-322,-244,-209
-180,-14,165,97,-173,75,-48,-527,-385,-239,-190,-170
-156,0,156,78,-156,78,-14,-405,-297,-180,-146,-146
-131,24,156,53,-143,90,9,-273,-190,-126,-112,-112
-112,48,161,31,-136,104,19,-161,-97,-73,-78,-82
-87,68,156,9,-122,112,19,-97,-48,-53,-63,-73
-68,63,131,2,-100,97,19,-73,-34,-48,-48,-82
-53,63,117,-4,-85,90,24,-73,-34,-48,-48,-78
-43,53,97,-4,-70,75,24,-68,-34,-43,-53,-87
-43,29,73,7,-58,51,24,-53,-29,-29,-39,-87
-43,19,63,12,-53,41,29,-29,-9,-24,-39,-87
-48,19,68,14,-58,43,34,0,9,-19,-39,-87
-48,19,68,14,-58,43,34,14,24,-14,-39,-87
-39,34,73,2,-56,53,34,24,34,-9,-39,-97
-39,34,73,2,-56,53,34,24,43,-4,-34,-97
-34,39,73,-2,-53,56,34,19,43,-4,-34,-97
-34,39,73,-2,-53,56,34,19,43,0,-34,-97
