I,II,III,aVR,aVL,aVF,V1,V2,V3,V4,V5,V6
-185,-136,48,161,-117,-43,29,-107,-126,-234,-302,-507
-185,-136,48,161,-117,-43,29,-107,-126,-234,-302,-507
-185,-136,48,161,-117,-43,29,-107,-126,-234,-302,-507
-185,-136,48,161,-117,-43,29,-107,-126,-234,-302,-507
-185,-146,39,165,-112,-53,39,-97,-117,-244,-292,-507
-185,-146,39,165,-112,-53,39,-97,-117,-244,-292,-507
-185,-146,39,165,-112,-53,39,-97,-117,-244,-292,-507
-185,-146,39,165,-112,-53,39,-97,-117,-244,-292,-507
-185,-136,48,161,-117,-43,39,-107,-126,-234,-292,-492
-185,-136,48,161,-117,-43,39,-107,-126,-234,-292,-488
-185,-136,48,161,-117,-43,39,-107,-126,-234,-292,-483
-185,-136,48,161,-117,-43,39,-107,-126,-234,-292,-478
-185,-136,48,161,-117,-43,39,-107,-126,-263,-312,-527
-185,-136,48,161,-117,-43,39,-97,-117,-253,-312,-517
-185,-136,48,161,-117,-43,48,-97,-117,-253,-312,-507
-185,-126,58,156,-122,-34,48,-97,-126,-253,-312,-497
-185,-97,87,141,-136,-4,39,-117,-136,-244,-312,-468
-195,-58,136,126,-165,39,29,-136,-156,-253,-322,-468
-204,-48,156,126,-180,53,29,-146,-165,-273,-322,-478
-204,-58,146,131,-175,43,48,-136,-146,-273,-322,-468
-204,-68,136,136,-170,34,58,-97,-117,-273,-312,-478
-204,-68,136,136,-170,34,78,-39,-68,-234,-273,-458
-214,-68,146,141,-180,39,107,19,0,-175,-224,-419
-185,-68,117,126,-151,24,117,48,68,-97,-165,-380
-126,-68,58,97,-92,-4,107,78,136,19,-48,-283
-68,-68,0,68,-34,-34,68,87,204,156,87,-185
0,-78,-78,39,39,-78,29,78,263,283,234,-117
68,-87,-156,9,112,-122,-29,58,341,448,400,-29
156,-58,-214,-48,185,-136,-126,39,439,653,624,78
273,29,-244,-151,258,-107,-263,-19,527,888,888,224
390,107,-283,-248,336,-87,-409,-146,546,1093,1102,400
448,78,-370,-263,409,-146,-497,-263,507,1180,1200,478
497,-19,-517,-239,507,-268,-497,-292,478,1180,1190,488
507,-107,-614,-200,561,-361,-488,-302,448,1112,1102,439
488,-214,-702,-136,595,-458,-478,-322,390,966,946,312
468,-292,-761,-87,614,-527,-468,-380,292,800,780,195
429,-331,-761,-48,595,-546,-488,-497,126,624,614,87
361,-351,-712,-4,536,-531,-517,-653,-87,409,429,-29
253,-341,-595,43,424,-468,-527,-800,-322,204,253,-107
136,-312,-448,87,292,-380,-507,-878,-468,48,97,-136
0,-302,-302,151,151,-302,-439,-868,-536,-87,-68,-214
-136,-341,-204,239,34,-273,-331,-810,-605,-253,-283,-322
-244,-351,-107,297,-68,-229,-244,-800,-722,-468,-497,-448
-292,-331,-39,312,-126,-185,-195,-800,-819,-644,-605,-527
-292,-283,9,287,-151,-136,-146,-761,-839,-712,-634,-546
-292,-234,58,263,-175,-87,-107,-712,-780,-702,-614,-566
-292,-195,97,244,-195,-48,-87,-653,-712,-644,-575,-546
-292,-165,126,229,-209,-19,-97,-595,-624,-566,-517,-488
-283,-136,146,209,-214,4,-107,-507,-517,-488,-439,-429
-234,-87,146,161,-190,29,-107,-429,-409,-390,-370,-361
-204,-19,185,112,-195,82,-97,-361,-331,-331,-331,-312
-195,19,214,87,-204,117,-68,-312,-292,-322,-312,-322
-204,19,224,92,-214,122,-48,-283,-263,-312,-302,-322
-204,9,214,97,-209,112,-29,-263,-253,-322,-312,-351
-195,0,195,97,-195,97,0,-234,-234,-341,-312,-370
-185,-39,146,112,-165,53,19,-204,-214,-312,-302,-351
-195,-87,107,141,-151,9,39,-175,-185,-292,-283,-331
-190,-82,107,136,-148,12,34,-156,-165,-273,-278,-312
-185,-78,107,131,-146,14,29,-146,-156,-263,-273,-302
-180,-73,107,126,-143,17,24,-136,-146,-253,-268,-292
-175,-68,107,122,-141,19,19,-126,-136,-244,-263,-283
-165,-53,112,109,-139,29,19,-126,-136,-258,-273,-302
-165,-48,117,107,-141,34,19,-126,-136,-263,-273,-312
-165,-43,122,104,-143,39,19,-126,-136,-268,-273,-322
-165,-39,126,102,-146,43,19,-126,-136,-273,-273,-331
-156,-39,117,97,-136,39,24,-117,-117,-253,-258,-312
-156,-39,117,97,-136,39,29,-107,-107,-244,-253,-292
-156,-39,117,97,-136,39,34,-97,-97,-234,-248,-273
-156,-39,117,97,-136,39,39,-87,-87,-224,-244,-253
-156,-29,126,92,-141,48,34,-87,-97,-239,-234,-258
-156,-29,126,92,-141,48,29,-87,-97,-244,-234,-263
-156,-29,126,92,-141,48,24,-87,-97,-248,-234,-268
-156,-29,126,92,-141,48,19,-87,-97,-253,-234,-273
-146,-29,117,87,-131,43,24,-82,-82,-239,-224,-248
-146,-29,117,87,-131,43,29,-78,-78,-234,-224,-234
-146,-29,117,87,-131,43,34,-73,-73,-229,-224,-219
-146,-29,117,87,-131,43,39,-68,-68,-224,-224,-204
-141,-24,117,82,-129,46,29,-63,-58,-229,-214,-214
-136,-19,117,78,-126,48,29,-58,-58,-234,-214,-214
-131,-14,117,73,-124,51,29,-53,-58,-239,-214,-214
-126,-9,117,68,-122,53,29,-48,-58,-244,-214,-214
-136,0,136,68,-136,68,39,-48,-53,-234,-200,-204
-136,0,136,68,-136,68,39,-48,-48,-224,-195,-195
-136,0,136,68,-136,68,39,-48,-43,-214,-190,-185
-136,0,136,68,-136,68,39,-48,-39,-204,-185,-175
-126,4,131,61,-129,68,29,-34,-29,-195,-180,-180
-126,9,136,58,-131,73,29,-29,-19,-195,-175,-185
-126,14,141,56,-134,78,29,-24,-9,-195,-170,-190
-126,19,146,53,-136,82,29,-19,0,-195,-165,-195
-122,34,156,43,-139,95,29,-4,9,-180,-161,-175
-117,39,156,39,-136,97,29,0,19,-175,-156,-165
-112,43,156,34,-134,100,29,4,29,-170,-151,-156
-107,48,156,29,-131,102,29,9,39,-165,-146,-146
-107,58,165,24,-136,112,19,24,48,-156,-136,-136
-107,58,165,24,-136,112,19,29,58,-146,-126,-126
-107,58,165,24,-136,112,19,34,68,-136,-117,-117
-107,58,165,24,-136,112,19,39,78,-126,-107,-107
-102,78,180,12,-141,129,19,58,92,-107,-87,-92
-97,87,185,4,-141,136,19,68,107,-97,-78,-78
-92,97,190,-2,-141,143,19,78,122,-87,-68,-63
-87,107,195,-9,-141,151,19,87,136,-78,-58,-48
-82,117,200,-17,-141,158,9,107,161,-63,-39,-24
-78,126,204,-24,-141,165,9,117,175,-48,-29,-9
-73,136,209,-31,-141,173,9,126,190,-34,-19,4
-68,146,214,-39,-141,180,9,136,204,-19,-9,19
-63,165,229,-51,-146,197,0,156,229,4,4,43
-58,175,234,-58,-146,204,0,165,244,19,19,58
-53,185,239,-65,-146,212,0,175,258,34,34,73
-48,195,244,-73,-146,219,0,185,273,48,48,87
-39,214,253,-87,-146,234,-9,200,302,68,68,112
-29,224,253,-97,-141,239,-9,214,322,87,87,126
-19,234,253,-107,-136,244,-9,229,341,107,107,141
-9,244,253,-117,-131,248,-9,244,361,126,126,156
0,263,263,-131,-131,263,-9,263,375,151,141,165
0,273,273,-136,-136,273,-9,273,390,165,156,175
0,283,283,-141,-141,283,-9,283,405,180,170,185
0,292,292,-146,-146,292,-9,292,419,195,185,195
4,302,297,-153,-146,300,-14,297,439,209,195,209
9,312,302,-161,-146,307,-19,302,448,214,204,214
14,322,307,-168,-146,314,-24,307,458,219,214,219
19,331,312,-175,-146,322,-29,312,468,224,224,224
24,336,312,-180,-143,324,-29,322,473,239,239,214
29,341,312,-185,-141,326,-29,322,478,244,244,214
34,346,312,-190,-139,329,-29,322,483,248,248,214
39,351,312,-195,-136,331,-29,322,488,253,253,214
39,361,322,-200,-141,341,-29,317,478,244,244,214
39,361,322,-200,-141,341,-29,312,478,244,244,214
39,361,322,-200,-141,341,-29,307,478,244,244,214
39,361,322,-200,-141,341,-29,302,478,244,244,214
39,351,312,-195,-136,331,-39,297,463,234,244,204
39,351,312,-195,-136,331,-39,292,458,224,244,195
39,351,312,-195,-136,331,-39,287,453,214,244,185
39,351,312,-195,-136,331,-39,283,448,204,244,175
39,341,302,-190,-131,322,-39,273,429,195,239,185
39,341,302,-190,-131,322,-39,263,419,195,234,185
39,341,302,-190,-131,322,-39,253,409,195,229,185
39,341,302,-190,-131,322,-39,244,400,195,224,185
34,326,292,-180,-129,309,-39,224,385,170,214,161
29,312,283,-170,-126,297,-39,214,370,156,204,146
24,297,273,-161,-124,285,-39,204,356,141,195,131
19,283,263,-151,-122,273,-39,195,341,126,185,117
9,268,258,-139,-124,263,-29,175,326,112,165,107
9,263,253,-136,-122,258,-29,165,312,107,156,107
9,258,248,-134,-119,253,-29,156,297,102,146,107
9,253,244,-131,-117,248,-29,146,283,97,136,107
-4,229,234,-112,-119,231,-24,131,253,68,112,87
-9,214,224,-102,-117,219,-19,117,234,48,97,68
-14,200,214,-92,-114,207,-14,102,214,29,82,48
-19,185,204,-82,-112,195,-9,87,195,9,68,29
-24,170,195,-73,-109,183,-9,78,170,-4,48,24
-29,156,185,-63,-107,170,-9,68,156,-9,39,19
-34,141,175,-53,-104,158,-9,58,141,-14,29,14
-39,126,165,-43,-102,146,-9,48,126,-19,19,9
-53,117,170,-31,-112,143,0,29,102,-39,4,-4
-58,107,165,-24,-112,136,0,19,87,-58,-9,-19
-63,97,161,-17,-112,129,0,9,73,-78,-24,-34
-68,87,156,-9,-112,122,0,0,58,-97,-39,-48
-78,78,156,0,-117,117,9,-9,39,-107,-48,-58
-78,78,156,0,-117,117,9,-19,29,-117,-58,-58
-78,78,156,0,-117,117,9,-29,19,-126,-68,-58
-78,78,156,0,-117,117,9,-39,9,-136,-78,-58
-87,68,156,9,-122,112,19,-43,-9,-146,-87,-68
-87,58,146,14,-117,102,19,-48,-19,-156,-97,-78
-87,48,136,19,-112,92,19,-53,-29,-165,-107,-87
-87,39,126,24,-107,82,19,-58,-39,-175,-117,-97
-97,24,122,36,-109,73,19,-68,-43,-185,-122,-92
-97,19,117,39,-107,68,19,-68,-48,-185,-126,-87
-97,14,112,41,-104,63,19,-68,-53,-185,-131,-82
-97,9,107,43,-102,58,19,-68,-58,-185,-136,-78
-107,9,117,48,-112,63,19,-73,-73,-195,-146,-92
-107,9,117,48,-112,63,19,-78,-78,-204,-146,-97
-107,9,117,48,-112,63,19,-82,-82,-214,-146,-102
-107,9,117,48,-112,63,19,-87,-87,-224,-146,-107
-117,4,122,56,-119,63,29,-87,-78,-214,-146,-92
-117,0,117,58,-117,58,29,-87,-78,-214,-146,-87
-117,-4,112,61,-114,53,29,-87,-78,-214,-146,-82
-117,-9,107,63,-112,48,29,-87,-78,-214,-146,-78
-107,-9,97,58,-102,43,19,-92,-87,-229,-151,-92
-107,-9,97,58,-102,43,19,-97,-97,-234,-156,-97
-107,-9,97,58,-102,43,19,-102,-107,-239,-161,-102
-107,-9,97,58,-102,43,19,-107,-117,-244,-165,-107
-107,-4,102,56,-104,48,19,-107,-117,-239,-156,-92
-107,0,107,53,-107,53,19,-107,-117,-234,-156,-87
-107,4,112,51,-109,58,19,-107,-117,-229,-156,-82
-107,9,117,48,-112,63,19,-107,-117,-224,-156,-78
-107,0,107,53,-107,53,29,-107,-117,-234,-165,-87
-107,0,107,53,-107,53,29,-107,-117,-234,-165,-87
-107,0,107,53,-107,53,29,-107,-117,-234,-165,-87
-107,0,107,53,-107,53,29,-107,-117,-234,-165,-87
-97,0,97,48,-97,48,29,-107,-107,-229,-156,-73
-97,0,97,48,-97,48,29,-107,-107,-224,-156,-68
-97,0,97,48,-97,48,29,-107,-107,-219,-156,-63
-97,0,97,48,-97,48,29,-107,-107,-214,-156,-58
-102,-9,92,56,-97,41,29,-97,-107,-224,-151,-48
-107,-9,97,58,-102,43,29,-97,-107,-224,-146,-48
-112,-9,102,61,-107,46,29,-97,-107,-224,-141,-48
-117,-9,107,63,-112,48,29,-97,-107,-224,-136,-48
-117,-19,97,68,-107,39,19,-87,-107,-224,-146,-58
-97,9,107,43,-102,58,19,-97,-107,-234,-156,-58
-107,9,117,48,-112,63,19,-97,-107,-229,-146,-48
-107,9,117,48,-112,63,19,-97,-107,-224,-146,-48
-107,9,117,48,-112,63,19,-97,-107,-219,-146,-48
-107,9,117,48,-112,63,19,-97,-107,-214,-146,-48
-107,19,126,43,-117,73,9,-107,-117,-219,-156,-58
-107,19,126,43,-117,73,9,-107,-117,-224,-156,-68
-107,19,126,43,-117,73,9,-107,-117,-229,-156,-78
-107,19,126,43,-117,73,9,-107,-117,-234,-156,-87
-97,34,131,31,-114,82,19,-107,-107,-219,-141,-73
-97,39,136,29,-117,87,19,-107,-107,-214,-136,-68
-97,43,141,26,-119,92,19,-107,-107,-209,-131,-63
-97,48,146,24,-122,97,19,-107,-107,-204,-126,-58
-87,53,141,17,-114,97,9,-97,-102,-204,-117,-63
-87,58,146,14,-117,102,9,-97,-97,-204,-117,-68
-87,63,151,12,-119,107,9,-97,-92,-204,-117,-73
-87,68,156,9,-122,112,9,-97,-87,-204,-117,-78
-82,78,161,2,-122,119,9,-97,-78,-190,-112,-63
-78,87,165,-4,-122,126,9,-97,-78,-185,-107,-58
-73,97,170,-12,-122,134,9,-97,-78,-180,-102,-53
-68,107,175,-19,-122,141,9,-97,-78,-175,-97,-48
-68,117,185,-24,-126,151,9,-97,-78,-180,-97,-53
-68,117,185,-24,-126,151,9,-97,-78,-185,-97,-58
-68,117,185,-24,-126,151,9,-97,-78,-190,-97,-63
-68,117,185,-24,-126,151,9,-97,-78,-195,-97,-68
-78,117,195,-19,-136,156,9,-87,-78,-190,-97,-53
-78,117,195,-19,-136,156,9,-87,-78,-185,-97,-48
-78,117,195,-19,-136,156,9,-87,-78,-180,-97,-43
-78,117,195,-19,-136,156,9,-87,-78,-175,-97,-39
-68,131,200,-31,-134,165,4,-97,-68,-175,-97,-39
-68,136,204,-34,-136,170,0,-97,-68,-175,-97,-39
-68,141,209,-36,-139,175,-4,-97,-68,-175,-97,-39
-68,146,214,-39,-141,180,-9,-97,-68,-175,-97,-39
-58,161,219,-51,-139,190,-34,-112,-73,-161,-82,-14
-58,165,224,-53,-141,195,-48,-126,-78,-156,-78,0
-58,170,229,-56,-143,200,-63,-141,-82,-151,-73,14
-58,175,234,-58,-146,204,-78,-156,-87,-146,-68,29
-53,175,229,-61,-141,202,-82,-146,-97,-156,-58,24
-48,175,224,-63,-136,200,-87,-146,-97,-156,-58,19
-43,175,219,-65,-131,197,-92,-146,-97,-156,-58,14
-39,175,214,-68,-126,195,-97,-146,-97,-156,-58,9
-34,156,190,-61,-112,173,-92,-136,-97,-156,-68,9
-29,146,175,-58,-102,161,-87,-136,-97,-156,-68,9
-24,136,161,-56,-92,148,-82,-136,-97,-156,-68,9
-19,126,146,-53,-82,136,-78,-136,-97,-156,-68,9
-19,117,136,-48,-78,126,-78,-146,-112,-161,-73,4
-19,107,126,-43,-73,117,-78,-146,-117,-165,-78,0
-19,97,117,-39,-68,107,-78,-146,-122,-170,-82,-4
-19,87,107,-34,-63,97,-78,-146,-126,-175,-87,-9
-24,68,92,-21,-58,80,-63,-136,-126,-180,-92,-19
-29,58,87,-14,-58,73,-58,-136,-126,-185,-97,-19
-34,48,82,-7,-58,65,-53,-136,-126,-190,-102,-19
-39,39,78,0,-58,58,-48,-136,-126,-195,-107,-19
-48,24,73,12,-61,48,-29,-136,-131,-200,-122,-24
-58,19,78,19,-68,48,-19,-136,-136,-204,-126,-29
-68,14,82,26,-75,48,-9,-136,-141,-209,-131,-34
-78,9,87,34,-82,48,0,-136,-146,-214,-136,-39
-82,0,82,41,-82,41,9,-136,-151,-229,-141,-53
-87,-9,78,48,-82,34,9,-136,-156,-234,-146,-58
-92,-19,73,56,-82,26,9,-136,-161,-239,-151,-63
-97,-29,68,63,-82,19,9,-136,-165,-244,-156,-68
-107,-43,63,75,-85,9,9,-146,-170,-248,-170,-73
-107,-48,58,78,-82,4,9,-146,-175,-253,-175,-78
-107,-53,53,80,-80,0,9,-146,-180,-258,-180,-82
-107,-58,48,82,-78,-4,9,-146,-185,-263,-185,-87
-117,-68,48,92,-82,-9,19,-146,-195,-268,-190,-92
-117,-68,48,92,-82,-9,19,-146,-195,-273,-195,-97
-117,-68,48,92,-82,-9,19,-146,-195,-278,-200,-102
-117,-68,48,92,-82,-9,19,-146,-195,-283,-204,-107
-117,-73,43,95,-80,-14,9,-156,-204,-283,-214,-107
-117,-78,39,97,-78,-19,9,-156,-204,-283,-214,-107
-117,-82,34,100,-75,-24,9,-156,-204,-283,-214,-107
-117,-87,29,102,-73,-29,9,-156,-204,-283,-214,-107
-122,-92,29,107,-75,-31,14,-146,-204,-292,-214,-117
-126,-97,29,112,-78,-34,19,-146,-204,-292,-214,-117
-131,-102,29,117,-80,-36,24,-146,-204,-292,-214,-117
-136,-107,29,122,-82,-39,29,-146,-204,-292,-214,-117
-126,-107,19,117,-73,-43,29,-146,-195,-287,-214,-107
-126,-107,19,117,-73,-43,29,-146,-195,-283,-214,-107
-126,-107,19,117,-73,-43,29,-146,-195,-278,-214,-107
-126,-107,19,117,-73,-43,29,-146,-195,-273,-214,-107
-117,-97,19,107,-68,-39,39,-146,-195,-273,-204,-112
-117,-97,19,107,-68,-39,39,-146,-195,-273,-204,-117
-117,-97,19,107,-68,-39,39,-146,-195,-273,-204,-122
-117,-97,19,107,-68,-39,39,-146,-195,-273,-204,-126
-117,-107,9,112,-63,-48,39,-136,-185,-253,-195,-97
-126,-107,19,117,-73,-43,39,-136,-195,-263,-204,-107
-117,-87,29,102,-73,-29,39,-146,-214,-283,-204,-107
-117,-48,68,82,-92,9,39,-165,-224,-283,-195,-107
-136,-39,97,87,-117,29,29,-185,-234,-302,-195,-126
-156,-39,117,97,-136,39,29,-195,-244,-302,-195,-117
-156,-9,146,82,-151,68,39,-175,-234,-292,-195,-107
-126,39,165,43,-146,102,68,-126,-185,-263,-175,-97
-117,48,165,34,-141,107,87,-78,-126,-204,-136,-58
-126,29,156,48,-141,92,97,-58,-97,-165,-97,-48
-126,0,126,63,-126,63,97,-29,-39,-107,-48,-39
-78,0,78,39,-78,39,78,-9,48,0,58,9
-9,0,9,4,-9,4,48,9,146,117,195,58
48,-9,-58,-19,53,-34,0,39,273,263,322,107
136,-19,-156,-58,146,-87,-39,87,419,458,488,195
263,-9,-273,-126,268,-141,-126,136,585,683,692,302
400,39,-361,-219,380,-161,-263,126,722,946,936,468
527,68,-458,-297,492,-195,-409,39,780,1132,1132,605
605,19,-585,-312,595,-283,-507,-48,761,1200,1210,634
663,-58,-722,-302,692,-390,-536,-97,722,1171,1190,595
673,-146,-819,-263,746,-483,-556,-146,653,1044,1063,488
644,-292,-936,-175,790,-614,-556,-185,566,839,858,322
614,-390,-1005,-112,810,-697,-566,-234,468,663,673,185
605,-429,-1034,-87,819,-732,-595,-331,341,507,517,117
536,-497,-1034,-19,785,-766,-614,-497,126,322,341,39
409,-527,-936,58,673,-732,-614,-702,-146,117,165,-9
292,-497,-790,102,541,-644,-614,-839,-361,-48,39,-48
165,-468,-634,151,400,-551,-556,-868,-478,-204,-97,-107
0,-448,-448,224,224,-448,-439,-858,-595,-370,-263,-204
-146,-409,-263,278,58,-336,-322,-839,-722,-556,-419,-312
-204,-370,-165,287,-19,-268,-253,-819,-810,-663,-497,-341
-224,-312,-87,268,-68,-200,-224,-810,-849,-702,-527,-341
-224,-253,-29,239,-97,-141,-195,-771,-790,-663,-497,-322
-204,-165,39,185,-122,-63,-175,-673,-663,-546,-409,-234
-185,-107,78,146,-131,-14,-165,-556,-566,-468,-351,-195
-175,-68,107,122,-141,19,-136,-468,-497,-439,-322,-185
-156,-48,107,102,-131,29,-107,-380,-429,-400,-273,-156
-146,-19,126,82,-136,53,-97,-331,-370,-380,-234,-156
-136,-9,126,73,-131,58,-78,-302,-322,-351,-214,-165
-126,0,126,63,-126,63,-58,-273,-283,-312,-204,-146
-117,0,117,58,-117,58,-29,-244,-253,-292,-185,-136
-107,-19,87,63,-97,34,0,-204,-224,-263,-175,-117
-117,-48,68,82,-92,9,9,-185,-214,-253,-185,-97
-107,-53,53,80,-80,0,19,-175,-204,-268,-185,-112
-107,-58,48,82,-78,-4,19,-165,-204,-273,-185,-117
-107,-63,43,85,-75,-9,19,-156,-204,-278,-185,-122
-107,-68,39,87,-73,-14,19,-146,-204,-283,-185,-126
-107,-53,53,80,-80,0,9,-141,-200,-278,-175,-126
-107,-48,58,78,-82,4,9,-136,-195,-273,-175,-126
-107,-43,63,75,-85,9,9,-131,-190,-268,-175,-126
-107,-39,68,73,-87,14,9,-126,-185,-263,-175,-126
-97,-29,68,63,-82,19,24,-112,-180,-253,-161,-122
-97,-29,68,63,-82,19,29,-107,-175,-253,-156,-117
-97,-29,68,63,-82,19,34,-102,-170,-253,-151,-112
-97,-29,68,63,-82,19,39,-97,-165,-253,-146,-107
-87,-19,68,53,-78,24,29,-87,-156,-244,-156,-112
-87,-19,68,53,-78,24,29,-87,-156,-244,-156,-117
-87,-19,68,53,-78,24,29,-87,-156,-244,-156,-122
-87,-19,68,53,-78,24,29,-87,-156,-244,-156,-126
-87,-19,68,53,-78,24,29,-82,-146,-234,-146,-117
-87,-19,68,53,-78,24,29,-78,-146,-234,-146,-107
-87,-19,68,53,-78,24,29,-73,-146,-234,-146,-97
-87,-19,68,53,-78,24,29,-68,-146,-234,-146,-87
-78,-9,68,43,-73,29,29,-58,-141,-224,-136,-92
-78,-9,68,43,-73,29,29,-58,-136,-224,-136,-97
-78,-9,68,43,-73,29,29,-58,-131,-224,-136,-102
-78,-9,68,43,-73,29,29,-58,-126,-224,-136,-107
-82,-9,73,46,-78,31,29,-43,-112,-209,-122,-87
-87,-9,78,48,-82,34,29,-39,-107,-204,-117,-78
-92,-9,82,51,-87,36,29,-34,-102,-200,-112,-68
-97,-9,87,53,-92,39,29,-29,-97,-195,-107,-58
-82,-4,78,43,-80,36,29,-14,-87,-185,-102,-63
-78,0,78,39,-78,39,29,-9,-78,-185,-97,-68
-73,4,78,34,-75,41,29,-4,-68,-185,-92,-73
-68,9,78,29,-73,43,29,0,-58,-185,-87,-78
-58,19,78,19,-68,48,29,14,-48,-175,-73,-68
-58,29,87,14,-73,58,29,19,-39,-165,-68,-58
-58,39,97,9,-78,68,29,24,-29,-156,-63,-48
-58,48,107,4,-82,78,29,29,-19,-146,-58,-39
-48,58,107,-4,-78,82,39,48,0,-141,-43,-39
-48,58,107,-4,-78,82,39,58,9,-136,-39,-39
-48,58,107,-4,-78,82,39,68,19,-131,-34,-39
-48,58,107,-4,-78,82,39,78,29,-126,-29,-39
-39,68,107,-14,-73,87,29,92,48,-102,-19,-24
-39,78,117,-19,-78,97,29,97,58,-87,-9,-9
-39,87,126,-24,-82,107,29,102,68,-73,0,4
-39,97,136,-29,-87,117,29,107,78,-58,9,19
-34,107,141,-36,-87,124,29,131,97,-48,29,29
-29,117,146,-43,-87,131,29,146,117,-39,39,39
-24,126,151,-51,-87,139,29,161,136,-29,48,48
-19,136,156,-58,-87,146,29,175,156,-19,58,58
-14,156,170,-70,-92,163,29,190,175,9,73,82
-9,165,175,-78,-92,170,29,204,195,29,87,107
-4,175,180,-85,-92,178,29,219,214,48,102,131
0,185,185,-92,-92,185,29,234,234,68,117,156
14,204,190,-109,-87,197,19,258,253,87,141,165
19,214,195,-117,-87,204,19,273,273,97,156,175
24,224,200,-124,-87,212,19,287,292,107,170,185
29,234,204,-131,-87,219,19,302,312,117,185,195
39,258,219,-148,-90,239,9,312,336,146,209,219
48,273,224,-161,-87,248,9,322,351,165,224,234
58,287,229,-173,-85,258,9,331,366,185,239,248
68,302,234,-185,-82,268,9,341,380,204,253,263
78,312,234,-195,-78,273,9,361,395,219,263,268
78,312,234,-195,-78,273,9,370,409,224,273,273
78,312,234,-195,-78,273,9,380,424,229,283,278
78,312,234,-195,-78,273,9,390,439,234,292,283
82,326,244,-204,-80,285,9,405,448,253,297,292
87,331,244,-209,-78,287,9,409,458,263,302,302
92,336,244,-214,-75,290,9,414,468,273,307,312
97,341,244,-219,-73,292,9,419,478,283,312,322
97,351,253,-224,-78,302,9,419,478,273,317,317
97,351,253,-224,-78,302,9,419,478,273,322,312
97,351,253,-224,-78,302,9,419,478,273,326,307
97,351,253,-224,-78,302,9,419,478,273,331,302
87,346,258,-217,-85,302,9,409,478,273,322,312
87,341,253,-214,-82,297,9,409,478,273,322,312
87,336,248,-212,-80,292,9,409,478,273,322,312
87,331,244,-209,-78,287,9,409,478,273,322,312
87,322,234,-204,-73,278,9,395,458,263,317,302
87,322,234,-204,-73,278,9,390,448,253,312,292
87,322,234,-204,-73,278,9,385,439,244,307,283
87,322,234,-204,-73,278,9,380,429,234,302,273
78,312,234,-195,-78,273,9,361,419,229,287,268
78,302,224,-190,-73,263,9,351,409,224,283,263
78,292,214,-185,-68,253,9,341,400,219,278,258
78,283,204,-180,-63,244,9,331,390,214,273,253
68,268,200,-168,-65,234,19,312,366,200,253,244
68,253,185,-161,-58,219,19,302,351,185,244,234
68,239,170,-153,-51,204,19,292,336,170,234,224
68,224,156,-146,-43,190,19,283,322,156,224,214
63,209,146,-136,-41,178,29,258,302,141,209,204
58,195,136,-126,-39,165,29,244,283,126,195,195
53,180,126,-117,-36,153,29,229,263,112,180,185
48,165,117,-107,-34,141,29,214,244,97,165,175
39,151,112,-95,-36,131,29,190,214,82,146,156
29,136,107,-82,-39,122,29,175,195,68,136,146
19,122,102,-70,-41,112,29,161,175,53,126,136
9,107,97,-58,-43,102,29,146,156,39,117,126
0,102,102,-51,-51,102,19,131,136,24,102,117
0,97,97,-48,-48,97,19,117,117,9,87,107
0,92,92,-46,-46,92,19,102,97,-4,73,97
0,87,87,-43,-43,87,19,87,78,-19,58,87
-9,68,78,-29,-43,73,9,73,53,-39,39,73
-19,58,78,-19,-48,68,9,58,39,-48,29,68
-29,48,78,-9,-53,63,9,43,24,-58,19,63
-39,39,78,0,-58,58,9,29,9,-68,9,58
-39,24,63,7,-51,43,19,14,0,-82,4,53
-39,19,58,9,-48,39,19,9,-9,-87,0,48
-39,14,53,12,-46,34,19,4,-19,-92,-4,43
-39,9,48,14,-43,29,19,0,-29,-97,-9,39
-43,4,48,19,-46,26,19,-9,-48,-112,-19,29
-48,0,48,24,-48,24,19,-19,-58,-117,-29,29
-53,-4,48,29,-51,21,19,-29,-68,-122,-39,29
-58,-9,48,34,-53,19,19,-39,-78,-126,-48,29
-58,-19,39,39,-48,9,19,-43,-82,-131,-58,19
-58,-19,39,39,-48,9,19,-48,-87,-136,-58,19
-58,-19,39,39,-48,9,19,-53,-92,-141,-58,19
-58,-19,39,39,-48,9,19,-58,-97,-146,-58,19
-58,-29,29,43,-43,0,9,-68,-102,-156,-68,19
-58,-29,29,43,-43,0,9,-68,-107,-156,-68,19
-58,-29,29,43,-43,0,9,-68,-112,-156,-68,19
-58,-29,29,43,-43,0,9,-68,-117,-156,-68,19
-68,-34,34,51,-51,0,9,-78,-126,-165,-58,19
-68,-39,29,53,-48,-4,9,-78,-126,-165,-58,19
-68,-43,24,56,-46,-9,9,-78,-126,-165,-58,19
-68,-48,19,58,-43,-14,9,-78,-126,-165,-58,19
-68,-43,24,56,-46,-9,9,-87,-136,-165,-68,29
-68,-39,29,53,-48,-4,9,-87,-136,-165,-68,29
-68,-34,34,51,-51,0,9,-87,-136,-165,-68,29
-68,-29,39,48,-53,4,9,-87,-136,-165,-68,29
-68,-29,39,48,-53,4,0,-97,-136,-175,-78,24
-68,-29,39,48,-53,4,0,-97,-136,-175,-78,19
-68,-29,39,48,-53,4,0,-97,-136,-175,-78,14
-68,-29,39,48,-53,4,0,-97,-136,-175,-78,9
-68,-39,29,53,-48,-4,0,-87,-126,-170,-68,19
-68,-39,29,53,-48,-4,0,-87,-126,-165,-68,29
-68,-39,29,53,-48,-4,0,-87,-126,-161,-68,39
-68,-39,29,53,-48,-4,0,-87,-126,-156,-68,48
-78,-39,39,58,-58,0,9,-87,-136,-156,-68,39
-78,-39,39,58,-58,0,9,-87,-136,-156,-68,39
-78,-39,39,58,-58,0,9,-87,-136,-156,-68,39
-78,-39,39,58,-58,0,9,-87,-136,-156,-68,39
-68,-39,29,53,-48,-4,9,-87,-126,-146,-58,43
-68,-39,29,53,-48,-4,9,-87,-126,-146,-58,48
-68,-39,29,53,-48,-4,9,-87,-126,-146,-58,53
-68,-39,29,53,-48,-4,9,-87,-126,-146,-58,58
-68,-39,29,53,-48,-4,0,-97,-136,-151,-68,48
-68,-39,29,53,-48,-4,0,-97,-136,-156,-68,39
-68,-39,29,53,-48,-4,0,-97,-136,-161,-68,29
-68,-39,29,53,-48,-4,0,-97,-136,-165,-68,19
-68,-29,39,48,-53,4,0,-97,-136,-156,-58,24
-68,-29,39,48,-53,4,0,-97,-136,-156,-58,29
-68,-29,39,48,-53,4,0,-97,-136,-156,-58,34
-68,-29,39,48,-53,4,0,-97,-136,-156,-58,39
-78,-39,39,58,-58,0,0,-87,-136,-165,-68,19
-78,-29,48,53,-63,9,0,-107,-146,-175,-78,-9
-68,-19,48,43,-58,14,0,-97,-136,-165,-68,0
-78,-29,48,53,-63,9,9,-87,-136,-156,-58,19
-78,-29,48,53,-63,9,0,-97,-126,-146,-58,24
-78,-29,48,53,-63,9,0,-97,-126,-146,-58,29
-78,-29,48,53,-63,9,0,-97,-126,-146,-58,34
-78,-29,48,53,-63,9,0,-97,-126,-146,-58,39
-68,-4,63,36,-65,29,0,-92,-126,-151,-53,34
-68,4,73,31,-70,39,4,-92,-122,-136,-43,39
-68,4,73,31,-70,39,9,-87,-122,-136,-43,34
-63,9,73,26,-68,41,9,-87,-122,-131,-39,24
-63,14,78,24,-70,46,0,-92,-112,-122,-29,29
-63,29,92,17,-78,61,0,-92,-107,-117,-29,39
-58,39,97,9,-78,68,0,-87,-97,-112,-19,53
-48,43,92,2,-70,68,0,-87,-97,-102,-19,63
-48,43,92,2,-70,68,0,-82,-102,-107,-29,48
-48,48,97,0,-73,73,0,-78,-97,-107,-24,48
-43,48,92,-2,-68,70,4,-78,-97,-112,-24,53
-43,48,92,-2,-68,70,4,-78,-102,-117,-24,48
-53,58,112,-2,-82,85,4,-78,-102,-112,-24,48
-53,58,112,-2,-82,85,4,-78,-102,-112,-24,43
-53,58,112,-2,-82,85,4,-78,-102,-107,-29,48
-53,58,112,-2,-82,85,4,-78,-102,-102,-34,53
-43,48,92,-2,-68,70,4,-78,-92,-107,-24,43
-43,58,102,-7,-73,80,0,-78,-82,-107,-19,43
-43,63,107,-9,-75,85,-9,-78,-82,-97,-14,58
-39,73,112,-17,-75,92,-19,-82,-82,-92,0,63
-34,92,126,-29,-80,109,-48,-107,-82,-87,14,82
-29,112,141,-41,-85,126,-73,-117,-92,-78,19,87
-19,117,136,-48,-78,126,-97,-126,-92,-73,19,107
-19,122,141,-51,-80,131,-117,-136,-97,-78,19,112
-14,102,117,-43,-65,109,-122,-126,-97,-82,9,107
-9,97,107,-43,-58,102,-117,-126,-97,-87,14,102
-4,92,97,-43,-51,95,-102,-117,-87,-82,19,102
9,92,82,-51,-36,87,-92,-107,-87,-87,19,102
9,87,78,-48,-34,82,-102,-117,-97,-78,19,112
9,63,53,-36,-21,58,-97,-117,-107,-78,14,112
14,53,39,-34,-12,46,-97,-117,-112,-92,9,102
14,29,14,-21,0,21,-97,-117,-112,-97,4,92
14,14,0,-14,7,7,-87,-112,-107,-112,0,73
9,9,0,-9,4,4,-82,-122,-112,-126,-9,68
0,-9,-9,4,4,-9,-78,-122,-117,-126,-19,68
-4,-14,-9,9,2,-12,-73,-122,-131,-136,-24,58
-4,-4,0,4,-2,-2,-68,-122,-131,-126,-34,68
-14,-24,-9,19,-2,-17,-53,-122,-136,-126,-39,63
-24,-39,-14,31,-4,-26,-43,-112,-136,-131,-39,63
-34,-39,-4,36,-14,-21,-34,-112,-136,-131,-39,53
-53,-43,9,48,-31,-17,-19,-102,-146,-146,-48,34
-73,-53,19,63,-46,-17,-14,-102,-151,-156,-63,24
-82,-68,14,75,-48,-26,-9,-107,-151,-170,-78,14
-87,-82,4,85,-46,-39,-9,-122,-161,-185,-82,9
-87,-92,-4,90,-41,-48,-4,-131,-165,-180,-82,19
-92,-102,-9,97,-41,-56,-4,-136,-180,-185,-82,9
-97,-112,-14,104,-41,-63,-4,-136,-190,-195,-97,4
-102,-126,-24,114,-39,-75,-4,-131,-190,-200,-97,-4
-102,-126,-24,114,-39,-75,0,-131,-185,-195,-102,-9
-102,-126,-24,114,-39,-75,0,-136,-185,-200,-107,-19
-102,-136,-34,119,-34,-85,0,-136,-185,-200,-107,-19
-102,-141,-39,122,-31,-90,0,-136,-190,-200,-107,-19
-107,-146,-39,126,-34,-92,0,-136,-204,-204,-117,-19
-107,-151,-43,129,-31,-97,4,-136,-204,-209,-117,-19
-112,-156,-43,134,-34,-100,14,-136,-204,-214,-117,-19
-112,-156,-43,134,-34,-100,14,-136,-204,-229,-117,-19
-122,-156,-34,139,-43,-95,9,-126,-195,-224,-122,-9
-126,-161,-34,143,-46,-97,9,-126,-195,-219,-122,-9
-126,-170,-43,148,-41,-107,9,-126,-195,-214,-122,-14
-122,-175,-53,148,-34,-114,9,-131,-200,-209,-126,-14
-122,-165,-43,143,-39,-104,9,-131,-209,-214,-126,-19
-122,-170,-48,146,-36,-109,14,-131,-209,-219,-126,-24
-131,-180,-48,156,-41,-114,14,-126,-209,-229,-126,-29
-131,-185,-53,158,-39,-119,19,-126,-209,-234,-126,-34
-122,-175,-53,148,-34,-114,19,-136,-209,-229,-126,-29
-122,-175,-53,148,-34,-114,19,-136,-209,-224,-131,-34
-122,-175,-53,148,-34,-114,19,-141,-209,-229,-131,-29
-122,-175,-53,148,-34,-114,19,-141,-209,-224,-136,-24
-122,-175,-53,148,-34,-114,19,-126,-209,-229,-136,-24
-122,-180,-58,151,-31,-119,19,-126,-209,-229,-136,-29
-122,-190,-68,156,-26,-129,19,-126,-209,-234,-136,-39
-122,-195,-73,158,-24,-134,19,-126,-209,-244,-136,-48
-126,-185,-58,156,-34,-122,19,-117,-200,-209,-117,-4
-126,-195,-68,161,-29,-131,19,-126,-200,-219,-126,-19
-126,-185,-58,156,-34,-122,29,-136,-209,-229,-126,-39
-126,-151,-24,139,-51,-87,19,-151,-214,-239,-117,-29
-146,-122,24,134,-85,-48,14,-175,-234,-253,-122,-39
-146,-97,48,122,-97,-24,9,-195,-253,-244,-112,-24
-156,-82,73,119,-114,-4,19,-185,-253,-248,-107,-14
-161,-73,87,117,-124,7,29,-161,-248,-239,-112,-4
-141,-68,73,104,-107,2,63,-112,-204,-185,-78,34
-126,-68,58,97,-92,-4,87,-63,-131,-131,-39,53
-122,-68,53,95,-87,-7,87,-24,-63,-87,9,58
-92,-68,24,80,-58,-21,87,14,29,4,87,82
-34,-73,-39,53,2,-56,63,58,136,112,195,117
39,-97,-136,29,87,-117,29,122,283,224,297,141
112,-126,-239,7,175,-183,-4,190,429,361,409,195
229,-136,-366,-46,297,-251,-68,268,600,536,561,273
380,-126,-507,-126,444,-317,-204,302,766,756,756,395
502,-117,-619,-192,561,-368,-370,248,873,951,936,527
600,-156,-756,-222,678,-456,-492,156,883,1034,1019,561
663,-229,-893,-217,778,-561,-541,87,854,1000,995,512
712,-312,-1024,-200,868,-668,-566,48,795,878,878,409
712,-429,-1141,-141,927,-785,-566,19,692,658,663,244
673,-561,-1234,-56,954,-897,-556,-19,585,458,458,97
629,-634,-1263,2,946,-949,-605,-107,453,302,302,14
605,-688,-1293,41,949,-990,-644,-268,258,151,170,-29
517,-722,-1239,102,878,-980,-653,-492,4,-4,39,-53
390,-722,-1112,165,751,-917,-663,-707,-239,-146,-68,-78
263,-673,-936,204,600,-805,-644,-819,-409,-273,-146,-107
112,-605,-717,246,414,-661,-541,-834,-527,-385,-248,-156
-73,-541,-468,307,197,-505,-400,-819,-649,-517,-356,-224
-180,-463,-283,322,51,-373,-317,-810,-741,-619,-429,-253
-219,-414,-195,317,-12,-305,-278,-810,-819,-663,-458,-248
-224,-375,-151,300,-36,-263,-258,-780,-824,-644,-439,-224
-204,-297,-92,251,-56,-195,-234,-702,-712,-546,-370,-151
-175,-229,-53,202,-61,-141,-204,-585,-580,-434,-287,-68
-170,-195,-24,183,-73,-109,-175,-483,-497,-400,-239,-48
-165,-165,0,165,-82,-82,-131,-390,-424,-361,-195,-24
-161,-131,29,146,-95,-51,-107,-322,-370,-336,-161,-39
-161,-112,48,136,-104,-31,-87,-287,-322,-317,-141,-43
-141,-97,43,119,-92,-26,-63,-268,-287,-287,-122,-24
-117,-92,24,104,-70,-34,-39,-229,-253,-258,-112,-4
-107,-112,-4,109,-51,-58,-14,-200,-224,-234,-107,14
-107,-131,-24,119,-41,-78,4,-185,-219,-219,-102,43
-107,-136,-29,122,-39,-82,14,-165,-224,-234,-107,19
-112,-146,-34,129,-39,-90,19,-131,-219,-244,-97,9
-122,-156,-34,139,-43,-95,19,-117,-209,-244,-107,-4
-112,-146,-34,129,-39,-90,19,-112,-195,-239,-92,-9
-102,-141,-39,122,-31,-90,19,-112,-195,-244,-92,-9
-102,-136,-34,119,-34,-85,19,-117,-190,-248,-92,-9
-107,-146,-39,126,-34,-92,19,-122,-190,-234,-92,4
-107,-146,-39,126,-34,-92,24,-122,-195,-229,-87,9
-107,-141,-34,124,-36,-87,24,-112,-195,-234,-87,14
-107,-141,-34,124,-36,-87,29,-107,-195,-229,-87,14
-97,-131,-34,114,-31,-82,29,-82,-185,-244,-82,9
-97,-131,-34,114,-31,-82,29,-73,-175,-239,-78,4
-97,-122,-24,109,-36,-73,29,-73,-165,-229,-73,14
-87,-122,-34,104,-26,-78,29,-68,-161,-224,-68,9
-97,-131,-34,114,-31,-82,29,-78,-161,-219,-68,19
-97,-131,-34,114,-31,-82,29,-78,-165,-214,-63,19
-97,-126,-29,112,-34,-78,29,-78,-165,-214,-63,19
-97,-122,-24,109,-36,-73,39,-68,-161,-214,-63,19
-87,-112,-24,100,-31,-68,29,-63,-156,-229,-68,9
-87,-112,-24,100,-31,-68,29,-58,-151,-229,-63,4
-82,-112,-29,97,-26,-70,34,-53,-141,-214,-58,4
-73,-112,-39,92,-17,-75,34,-43,-126,-214,-53,0
-73,-92,-19,82,-26,-56,34,-39,-126,-195,-43,9
-73,-92,-19,82,-26,-56,34,-39,-122,-195,-39,19
-73,-92,-19,82,-26,-56,34,-34,-122,-195,-34,24
-73,-92,-19,82,-26,-56,34,-34,-122,-195,-29,29
-73,-87,-14,80,-29,-51,43,-14,-112,-200,-34,24
-73,-78,-4,75,-34,-41,48,-9,-107,-195,-29,24
-68,-78,-9,73,-29,-43,48,4,-92,-195,-19,19
-68,-78,-9,73,-29,-43,43,9,-82,-185,-9,19
-68,-73,-4,70,-31,-39,43,14,-58,-175,-4,34
-63,-73,-9,68,-26,-41,43,19,-53,-165,-4,48
-68,-78,-9,73,-29,-43,43,24,-53,-156,9,53
-73,-78,-4,75,-34,-41,43,34,-43,-151,14,58
-63,-63,0,63,-31,-31,43,48,-29,-151,14,53
-63,-58,4,61,-34,-26,48,63,-14,-146,14,58
-63,-53,9,58,-36,-21,48,73,-4,-136,29,68
-58,-48,9,53,-34,-19,48,82,14,-126,29,68
-48,-34,14,41,-31,-9,48,97,24,-112,48,82
-43,-29,14,36,-29,-7,48,112,34,-102,63,97
-39,-19,19,29,-29,0,48,122,53,-92,68,117
-29,-9,19,19,-24,4,48,131,63,-87,78,122
-34,-4,29,19,-31,12,58,141,78,-92,82,122
-29,0,29,14,-29,14,58,156,92,-78,92,122
-29,4,34,12,-31,19,58,170,107,-58,107,136
-29,14,43,7,-36,29,58,190,122,-48,117,131
-19,43,63,-12,-41,53,58,204,146,-24,131,151
-14,48,63,-17,-39,56,53,224,151,-9,146,165
-9,68,78,-29,-43,73,53,239,175,9,165,190
0,68,68,-34,-34,68,53,263,195,24,165,209
4,92,87,-48,-41,90,53,278,219,29,180,209
4,102,97,-53,-46,100,53,292,234,39,195,219
9,117,107,-63,-48,112,53,312,253,48,209,229
24,126,102,-75,-39,114,53,326,273,73,229,244
39,136,97,-87,-29,117,63,351,297,92,244,278
43,151,107,-97,-31,129,58,366,317,122,258,297
48,151,102,-100,-26,126,58,380,336,131,273,307
58,165,107,-112,-24,136,58,395,351,136,287,312
53,190,136,-122,-41,163,48,400,366,141,292,317
58,204,146,-131,-43,175,43,414,385,156,302,317
68,204,136,-136,-34,170,43,414,400,165,312,331
73,209,136,-141,-31,173,43,429,409,180,331,351
78,209,131,-143,-26,170,53,458,424,195,341,351
82,224,141,-153,-29,183,53,468,439,204,356,366
82,234,151,-158,-34,192,43,468,448,219,366,366
87,239,151,-163,-31,195,43,473,453,219,375,366
78,234,156,-156,-39,195,43,473,453,214,375,375
73,234,161,-153,-43,197,48,483,458,214,370,370
73,234,161,-153,-43,197,53,483,463,219,370,370
78,239,161,-158,-41,200,58,483,463,224,380,370
82,234,151,-158,-34,192,53,483,453,219,370,370
82,234,151,-158,-34,192,53,483,453,214,366,366
82,229,146,-156,-31,187,53,483,458,204,366,361
82,229,146,-156,-31,187,53,478,458,195,366,346
92,224,131,-158,-19,178,63,483,453,195,366,351
92,224,131,-158,-19,178,63,483,448,195,366,346
92,219,126,-156,-17,173,63,478,448,190,361,346
92,219,126,-156,-17,173,63,468,444,195,356,346
78,204,126,-141,-24,165,58,448,434,175,346,336
73,195,122,-134,-24,158,58,444,414,165,341,326
73,190,117,-131,-21,153,58,434,400,156,336,302
73,190,117,-131,-21,153,58,424,385,146,331,287
82,175,92,-129,-4,134,58,414,375,156,322,287
82,156,73,-119,4,114,58,400,370,146,312,287
82,146,63,-114,9,104,58,380,351,131,302,292
73,141,68,-107,2,104,58,366,341,122,297,292
63,122,58,-92,2,90,58,346,312,107,278,268
58,112,53,-85,2,82,58,326,292,87,258,244
53,97,43,-75,4,70,58,307,273,73,244,219
39,82,43,-61,-2,63,58,283,258,43,229,195
34,78,43,-56,-4,61,58,268,234,34,219,200
34,63,29,-48,2,46,58,244,219,19,209,185
34,58,24,-46,4,41,58,229,200,4,190,180
24,39,14,-31,4,26,58,219,175,-9,180,170
19,19,0,-19,9,9,58,185,161,-29,165,141
9,0,-9,-4,9,-4,53,165,126,-48,151,126
0,-14,-14,7,7,-14,48,151,102,-63,131,122
-4,-34,-29,19,12,-31,43,131,87,-82,122,112
-9,-34,-24,21,7,-29,34,122,73,-82,117,112
-24,-34,-9,29,-7,-21,34,102,58,-87,107,117
-34,-43,-9,39,-12,-26,39,87,39,-97,97,107
-43,-48,-4,46,-19,-26,39,82,24,-112,97,107
-34,-63,-29,48,-2,-46,39,63,4,-136,82,97
-34,-68,-34,51,0,-51,39,58,-9,-151,63,82
-34,-68,-34,51,0,-51,43,48,-19,-156,63,73
-39,-73,-34,56,-2,-53,43,34,-34,-161,53,58
-53,-92,-39,73,-7,-65,29,29,-39,-175,43,58
-58,-97,-39,78,-9,-68,29,19,-48,-185,39,63
-58,-97,-39,78,-9,-68,29,9,-63,-185,24,63
-58,-102,-43,80,-7,-73,29,0,-68,-190,19,58
-58,-107,-48,82,-4,-78,29,-9,-78,-209,9,53
-58,-112,-53,85,-2,-82,24,-14,-82,-209,4,43
-63,-117,-53,90,-4,-85,24,-19,-92,-204,4,39
-63,-122,-58,92,-2,-90,24,-24,-92,-204,0,34
-63,-117,-53,90,-4,-85,24,-29,-92,-204,0,34
-63,-122,-58,92,-2,-90,24,-34,-97,-209,0,39
-68,-122,-53,95,-7,-87,24,-39,-112,-209,0,39
-68,-122,-53,95,-7,-87,24,-43,-117,-219,-4,34
-78,-126,-48,102,-14,-87,14,-39,-122,-234,-9,24
-78,-126,-48,102,-14,-87,14,-43,-126,-234,-9,24
-78,-131,-53,104,-12,-92,14,-43,-126,-234,-9,24
-78,-131,-53,104,-12,-92,19,-43,-126,-224,-9,24
-78,-126,-48,102,-14,-87,19,-48,-131,-214,-14,29
-73,-126,-53,100,-9,-90,14,-53,-136,-214,-14,43
-68,-126,-58,97,-4,-92,14,-53,-136,-214,-14,39
-63,-122,-58,92,-2,-90,14,-53,-136,-224,-14,34
-63,-122,-58,92,-2,-90,14,-63,-146,-229,-14,29
-63,-126,-63,95,0,-95,14,-63,-146,-229,-14,39
-68,-126,-58,97,-4,-92,14,-63,-146,-229,-14,43
-68,-126,-58,97,-4,-92,14,-63,-141,-224,-9,39
-68,-122,-53,95,-7,-87,24,-58,-136,-219,0,53
-68,-122,-53,95,-7,-87,24,-58,-136,-214,-4,58
-68,-122,-53,95,-7,-87,24,-58,-131,-214,-9,63
-68,-117,-48,92,-9,-82,14,-63,-131,-214,-9,58
-73,-126,-53,100,-9,-90,19,-63,-141,-214,-9,48
-82,-136,-53,109,-14,-95,19,-58,-141,-214,-9,58
-87,-141,-53,114,-17,-97,14,-58,-141,-214,0,63
-87,-151,-63,119,-12,-107,9,-58,-141,-209,4,63
-78,-141,-63,109,-7,-102,19,-63,-136,-200,-4,63
-73,-131,-58,102,-7,-95,19,-68,-136,-200,-4,63
-73,-122,-48,97,-12,-85,19,-73,-136,-204,-9,58
-73,-112,-39,92,-17,-75,19,-82,-136,-224,-14,53
-73,-122,-48,97,-12,-85,19,-78,-146,-229,-4,39
-73,-122,-48,97,-12,-85,14,-78,-146,-224,-4,39
-68,-122,-53,95,-7,-87,9,-73,-146,-219,0,43
-68,-122,-53,95,-7,-87,9,-68,-146,-214,0,48
-68,-112,-43,90,-12,-78,14,-78,-146,-214,9,39
-68,-112,-43,90,-12,-78,14,-78,-146,-209,4,48
-68,-112,-43,90,-12,-78,9,-78,-146,-209,0,39
-73,-112,-39,92,-17,-75,9,-78,-146,-209,0,34
-73,-117,-43,95,-14,-80,9,-68,-136,-219,-9,39
-68,-117,-48,92,-9,-82,9,-68,-141,-214,-4,34
-68,-112,-43,90,-12,-78,9,-68,-141,-209,0,34
-73,-107,-34,90,-19,-70,9,-68,-141,-204,0,34
-63,-97,-34,80,-14,-65,9,-63,-131,-219,-4,9
-73,-107,-34,90,-19,-70,19,-63,-131,-214,0,29
-78,-126,-48,102,-14,-87,24,-68,-141,-204,9,29
-68,-117,-48,92,-9,-82,24,-68,-131,-185,9,48
-48,-97,-48,73,0,-73,19,-68,-136,-175,9,58
-48,-97,-48,73,0,-73,9,-68,-136,-180,9,43
-48,-97,-48,73,0,-73,9,-68,-136,-185,9,39
-48,-97,-48,73,0,-73,9,-68,-136,-190,9,34
-48,-97,-48,73,0,-73,9,-68,-136,-195,9,29
-48,-82,-34,65,-7,-58,19,-63,-126,-190,24,34
-48,-73,-24,61,-12,-48,24,-63,-122,-175,34,48
-48,-73,-24,61,-12,-48,29,-58,-122,-175,34,53
-43,-68,-24,56,-9,-46,29,-58,-122,-170,39,53
-53,-63,-9,58,-21,-36,29,-53,-122,-175,29,39
-53,-48,4,51,-29,-21,29,-53,-117,-175,29,39
-48,-39,9,43,-29,-14,29,-48,-107,-175,39,43
-39,-34,4,36,-21,-14,29,-48,-107,-170,39,43
-39,-24,14,31,-26,-4,39,-43,-92,-165,43,43
-39,-19,19,29,-29,0,39,-39,-87,-156,53,48
-34,-19,14,26,-24,-2,43,-39,-87,-151,58,58
-34,-19,14,26,-24,-2,43,-39,-92,-146,63,58
-34,-29,4,31,-19,-12,43,-48,-102,-146,58,53
-34,-29,4,31,-19,-12,43,-48,-102,-151,53,43
-34,-29,4,31,-19,-12,43,-48,-102,-151,43,43
-34,-29,4,31,-19,-12,43,-48,-102,-151,34,43
-24,-29,-4,26,-9,-17,34,-48,-92,-156,43,43
-24,-19,4,21,-14,-7,29,-48,-82,-156,48,43
-24,-14,9,19,-17,-2,19,-48,-82,-146,53,58
-19,-4,14,12,-17,4,9,-53,-82,-141,68,63
-24,19,43,2,-34,31,-14,-68,-82,-131,73,78
-19,34,53,-7,-36,43,-43,-78,-92,-126,78,78
-9,34,43,-12,-26,39,-73,-87,-92,-126,78,92
-9,34,43,-12,-26,39,-97,-97,-97,-136,78,92
4,19,14,-12,-4,17,-102,-87,-107,-136,78,87
9,9,0,-9,4,4,-97,-87,-107,-136,82,82
14,0,-14,-7,14,-7,-82,-78,-97,-126,87,82
29,-4,-34,-12,31,-19,-73,-68,-97,-126,87,82
39,4,-34,-21,36,-14,-73,-68,-87,-117,87,92
39,-14,-53,-12,46,-34,-68,-68,-97,-117,82,92
43,-19,-63,-12,53,-41,-68,-68,-102,-131,78,82
43,-39,-82,-2,63,-61,-68,-68,-102,-136,73,73
34,-63,-97,14,65,-80,-58,-73,-107,-151,58,58
29,-68,-97,19,63,-82,-53,-82,-112,-165,48,48
19,-87,-107,34,63,-97,-48,-82,-117,-165,39,43
14,-92,-107,39,61,-100,-43,-82,-131,-175,34,29
4,-92,-97,43,51,-95,-39,-73,-122,-165,43,43
-4,-112,-107,58,51,-109,-24,-73,-126,-165,39,43
-14,-126,-112,70,48,-119,-14,-63,-126,-170,39,48
-24,-126,-102,75,39,-114,-4,-63,-126,-170,39,43
-34,-126,-92,80,29,-109,0,-68,-131,-190,29,19
-53,-131,-78,92,12,-104,4,-73,-141,-195,14,4
-63,-141,-78,102,7,-109,9,-82,-146,-204,0,-9
-68,-151,-82,109,7,-117,9,-102,-161,-214,-4,-19
-68,-151,-82,109,7,-117,14,-92,-156,-214,-14,-4
-73,-161,-87,117,7,-124,14,-97,-170,-214,-14,-9
-78,-170,-92,124,7,-131,14,-97,-180,-219,-29,-9
-82,-185,-102,134,9,-143,14,-92,-180,-219,-29,-14
-73,-185,-112,129,19,-148,9,-92,-185,-229,-34,-24
-73,-185,-112,129,19,-148,9,-97,-185,-239,-39,-39
-73,-195,-122,134,24,-158,9,-97,-185,-244,-39,-43
-73,-200,-126,136,26,-163,9,-97,-190,-248,-39,-48
-78,-214,-136,146,29,-175,9,-107,-195,-244,-39,-39
-78,-219,-141,148,31,-180,14,-107,-195,-239,-39,-39
-82,-224,-141,153,29,-183,24,-107,-195,-234,-39,-39
-82,-224,-141,153,29,-183,24,-107,-195,-239,-39,-39
-82,-219,-136,151,26,-178,29,-97,-195,-244,-43,-43
-87,-219,-131,153,21,-175,29,-97,-195,-248,-43,-48
-87,-224,-136,156,24,-180,29,-97,-195,-253,-43,-58
-82,-224,-141,153,29,-183,29,-102,-200,-258,-48,-63
-82,-224,-141,153,29,-183,39,-102,-190,-244,-48,-48
-82,-229,-146,156,31,-187,43,-102,-190,-239,-48,-43
-92,-239,-146,165,26,-192,43,-97,-190,-239,-48,-39
-92,-244,-151,168,29,-197,48,-97,-190,-234,-48,-34
-92,-234,-141,163,24,-187,39,-97,-190,-239,-48,-39
-92,-234,-141,163,24,-187,39,-97,-190,-244,-53,-53
-92,-234,-141,163,24,-187,39,-102,-190,-258,-53,-58
-92,-234,-141,163,24,-187,39,-102,-190,-263,-58,-63
-92,-234,-141,163,24,-187,48,-97,-190,-258,-58,-48
-92,-239,-146,165,26,-192,48,-97,-190,-248,-58,-48
-92,-248,-156,170,31,-202,48,-97,-190,-244,-58,-53
-92,-253,-161,173,34,-207,48,-97,-190,-244,-58,-58
-107,-244,-136,175,14,-190,58,-97,-190,-239,-48,-53
-107,-234,-126,170,9,-180,48,-87,-190,-258,-58,-78
-107,-224,-117,165,4,-170,48,-97,-190,-268,-58,-97
-97,-200,-102,148,2,-151,48,-112,-204,-248,-39,-68
-97,-170,-73,134,-12,-122,43,-136,-214,-244,-24,-48
-97,-146,-48,122,-24,-97,39,-156,-234,-234,-14,-24
-107,-131,-24,119,-41,-78,29,-165,-234,-219,-19,4
-122,-122,0,122,-61,-61,48,-141,-229,-229,-14,-4
-112,-117,-4,114,-53,-61,82,-92,-195,-214,0,-4
-117,-126,-9,122,-53,-68,107,-43,-131,-180,29,-4
-112,-126,-14,119,-48,-70,117,-14,-73,-156,58,-29
-82,-146,-63,114,-9,-104,117,24,-9,-92,117,-4
-24,-161,-136,92,56,-148,92,78,97,24,204,48
48,-195,-244,73,146,-219,68,151,244,146,307,92
151,-234,-385,41,268,-309,34,239,390,283,400,146
268,-273,-541,2,405,-407,-29,317,551,419,512,185
409,-273,-683,-68,546,-478,-156,351,717,580,678,248
531,-253,-785,-139,658,-519,-312,297,805,736,819,331
629,-273,-902,-178,766,-588,-444,185,805,780,883,346
702,-346,-1049,-178,875,-697,-512,87,746,736,849,297
741,-458,-1200,-141,971,-829,-536,39,658,614,722,214
732,-585,-1317,-73,1024,-951,-527,9,546,424,517,68
712,-697,-1410,-7,1061,-1054,-527,-39,419,234,312,-48
688,-761,-1449,36,1068,-1105,-566,-146,287,78,156,-141
644,-795,-1439,75,1041,-1117,-624,-307,102,-82,14,-224
546,-819,-1366,136,956,-1093,-644,-541,-131,-248,-107,-287
409,-800,-1210,195,810,-1005,-653,-756,-356,-370,-175,-302
283,-771,-1054,244,668,-912,-624,-849,-497,-448,-224,-302
122,-712,-834,295,478,-773,-531,-863,-595,-512,-287,-312
-53,-619,-566,336,256,-592,-390,-849,-697,-595,-366,-322
-151,-522,-370,336,109,-446,-297,-819,-771,-629,-400,-292
-190,-483,-292,336,51,-387,-258,-810,-819,-644,-409,-268
-195,-434,-239,314,21,-336,-239,-790,-814,-644,-390,-273
-185,-346,-161,265,-12,-253,-224,-712,-702,-575,-322,-229
-165,-268,-102,217,-31,-185,-214,-605,-590,-502,-248,-195
-161,-224,-63,192,-48,-143,-175,-502,-517,-458,-200,-175
-146,-195,-48,170,-48,-122,-122,-400,-434,-390,-126,-122
-131,-161,-29,146,-51,-95,-87,-312,-361,-317,-73,-68
-122,-131,-9,126,-56,-70,-58,-268,-302,-268,-63,-34
-102,-136,-34,119,-34,-85,-43,-248,-268,-229,-43,-4
-87,-151,-63,119,-12,-107,-29,-229,-253,-229,-43,-14
-68,-151,-82,109,7,-117,-14,-200,-234,-244,-39,-34
-68,-151,-82,109,7,-117,4,-175,-219,-239,-43,-43
-78,-165,-87,122,4,-126,24,-146,-214,-253,-39,-58
-82,-175,-92,129,4,-134,29,-112,-200,-244,-19,-48
-82,-185,-102,134,9,-143,39,-92,-185,-229,-19,-34
-73,-175,-102,124,14,-139,39,-82,-165,-209,-4,-29
-63,-170,-107,117,21,-139,39,-78,-161,-200,-4,-19
-63,-165,-102,114,19,-134,39,-78,-151,-190,-4,-9
-68,-165,-97,117,14,-131,29,-87,-156,-204,-14,-24
-68,-165,-97,117,14,-131,34,-92,-165,-209,-9,-29
-68,-161,-92,114,12,-126,34,-87,-170,-224,-9,-34
-68,-161,-92,114,12,-126,39,-87,-175,-229,-9,-43
-68,-161,-92,114,12,-126,39,-63,-165,-224,4,-29
-68,-161,-92,114,12,-126,39,-53,-156,-209,9,-24
-68,-151,-82,109,7,-117,39,-53,-146,-190,14,-4
-58,-151,-92,104,17,-122,39,-48,-141,-175,19,0
-58,-151,-92,104,17,-122,48,-48,-131,-180,9,-4
-58,-151,-92,104,17,-122,48,-48,-136,-185,14,-9
-58,-146,-87,102,14,-117,48,-48,-136,-195,14,-14
-58,-141,-82,100,12,-112,58,-39,-131,-204,14,-19
-58,-141,-82,100,12,-112,48,-34,-126,-200,29,-4
-58,-141,-82,100,12,-112,48,-29,-122,-190,34,-4
-53,-141,-87,97,17,-114,53,-24,-112,-165,39,0
-43,-141,-97,92,26,-119,53,-14,-97,-156,43,0
-43,-131,-87,87,21,-109,53,-9,-97,-156,48,4
-43,-131,-87,87,21,-109,53,-9,-92,-156,48,9
-43,-131,-87,87,21,-109,53,-4,-92,-156,48,9
-43,-131,-87,87,21,-109,53,-4,-92,-156,48,9
-43,-126,-82,85,19,-104,63,9,-73,-146,58,9
-43,-117,-73,80,14,-95,68,19,-68,-136,68,14
-39,-117,-78,78,19,-97,68,39,-53,-131,82,14
-39,-117,-78,78,19,-97,63,48,-43,-117,97,19
-24,-117,-92,70,34,-104,63,53,-39,-107,92,29
-14,-112,-97,63,41,-104,63,58,-34,-97,92,39
-14,-112,-97,63,41,-104,63,63,-34,-87,107,39
-14,-107,-92,61,39,-100,63,73,-24,-82,112,39
-14,-97,-82,56,34,-90,63,78,-14,-82,122,39
-14,-87,-73,51,29,-80,68,92,4,-78,122,39
-14,-78,-63,46,24,-70,68,102,19,-68,136,43
-9,-68,-58,39,24,-63,68,112,43,-58,136,39
-14,-68,-53,41,19,-61,68,126,48,-43,136,53
-14,-68,-53,41,19,-61,68,141,53,-34,151,68
-14,-63,-48,39,17,-56,68,151,68,-24,156,87
-9,-58,-48,34,19,-53,68,161,73,-19,165,92
0,-39,-39,19,19,-39,78,180,92,-24,180,87
9,-29,-39,9,24,-34,78,195,112,-9,190,92
14,-19,-34,2,24,-26,78,209,131,9,204,112
19,-4,-24,-7,21,-14,78,229,151,19,214,112
29,14,-14,-21,21,0,78,239,165,43,219,131
34,19,-14,-26,24,2,73,253,170,58,234,146
39,39,0,-39,19,19,73,263,195,78,253,170
48,39,-9,-43,29,14,73,283,214,92,253,190
43,58,14,-51,14,36,63,307,239,102,268,195
43,73,29,-58,7,51,63,322,253,107,283,200
48,92,43,-70,2,68,63,341,273,112,297,204
63,107,43,-85,9,75,63,356,292,131,317,214
78,117,39,-97,19,78,68,380,312,156,341,248
82,131,48,-107,17,90,68,395,336,190,356,268
87,131,43,-109,21,87,73,409,361,204,370,278
97,146,48,-122,24,97,78,424,380,214,385,283
92,151,58,-122,17,104,78,439,385,224,395,283
97,165,68,-131,14,117,73,453,405,234,400,278
107,165,58,-136,24,112,73,453,419,239,405,287
112,170,58,-141,26,114,73,468,429,248,419,302
117,180,63,-148,26,122,73,488,434,273,424,317
122,195,73,-158,24,134,73,497,448,283,434,336
122,204,82,-163,19,143,63,497,458,297,439,341
126,209,82,-168,21,146,63,502,463,297,444,346
126,204,78,-165,24,141,68,492,473,287,444,341
122,204,82,-163,19,143,68,502,478,283,439,331
122,204,82,-163,19,143,68,502,483,283,439,326
126,209,82,-168,21,146,68,502,483,283,448,322
131,224,92,-178,19,158,82,512,473,302,448,336
131,224,92,-178,19,158,82,512,473,302,444,346
131,219,87,-175,21,153,82,512,478,297,444,356
131,219,87,-175,21,153,82,507,478,292,444,356
131,204,73,-168,29,139,73,492,453,278,434,341
131,204,73,-168,29,139,73,492,448,273,434,326
131,200,68,-165,31,134,73,488,448,263,429,317
131,200,68,-165,31,134,73,478,444,263,424,307
126,195,68,-161,29,131,68,468,439,268,424,317
122,185,63,-153,29,124,68,463,424,263,419,317
122,180,58,-151,31,119,68,453,414,258,414,302
122,180,58,-151,31,119,68,444,405,253,409,297
131,165,34,-148,48,100,68,424,385,239,400,283
131,146,14,-139,58,80,68,409,380,224,390,268
131,136,4,-134,63,70,68,390,361,204,380,258
122,131,9,-126,56,70,68,375,351,190,375,244
112,112,0,-112,56,56,68,351,331,195,356,234
107,102,-4,-104,56,48,68,336,312,185,336,224
102,87,-14,-95,58,36,68,322,292,180,322,214
87,73,-14,-80,51,29,68,302,278,161,307,204
82,68,-14,-75,48,26,58,278,253,136,297,190
82,53,-29,-68,56,12,58,253,239,117,287,165
82,48,-34,-65,58,7,58,239,219,97,268,151
73,29,-43,-51,58,-7,58,229,195,78,258,131
68,24,-43,-46,56,-9,53,214,195,73,248,126
58,9,-48,-34,53,-19,53,195,165,58,239,117
48,0,-48,-24,48,-24,53,180,146,48,224,117
43,-14,-58,-14,51,-36,53,161,136,34,219,112
43,-39,-82,-2,63,-61,43,146,102,19,200,97
34,-43,-78,4,56,-61,43,122,87,9,185,87
29,-58,-87,14,58,-73,48,102,68,-4,170,63
24,-68,-92,21,58,-80,48,92,53,-24,165,48
19,-73,-92,26,56,-82,39,82,53,-34,156,53
14,-78,-92,31,53,-85,39,78,39,-43,141,43
9,-78,-87,34,48,-82,43,68,29,-43,146,39
0,-82,-82,41,41,-82,43,53,14,-43,141,29
-4,-92,-87,48,41,-90,39,39,-9,-73,122,19
-9,-97,-87,53,39,-92,39,29,-19,-87,117,14
-9,-97,-87,53,39,-92,39,19,-34,-92,102,4
-9,-102,-92,56,41,-97,39,9,-39,-102,97,-9
-14,-97,-82,56,34,-90,39,19,-39,-102,97,0
-9,-102,-92,56,41,-97,34,14,-43,-102,92,-4
-9,-107,-97,58,43,-102,34,9,-53,-97,92,-4
-4,-112,-107,58,51,-109,34,4,-53,-97,87,-4
-14,-107,-92,61,39,-100,34,-9,-63,-107,68,-19
-14,-112,-97,63,41,-104,34,-14,-68,-122,68,-19
-19,-112,-92,65,36,-102,34,-19,-82,-131,68,-24
-19,-112,-92,65,36,-102,34,-24,-87,-151,63,-34
-29,-126,-97,78,34,-112,34,-29,-92,-156,68,-34
-29,-126,-97,78,34,-112,34,-34,-97,-156,68,-34
-29,-131,-102,80,36,-117,34,-34,-97,-156,68,-34
-29,-131,-102,80,36,-117,39,-34,-97,-146,68,-34
-29,-126,-97,78,34,-112,39,-39,-92,-136,53,-34
-24,-126,-102,75,39,-114,34,-43,-97,-136,53,-24
-19,-126,-107,73,43,-117,34,-43,-97,-136,53,-34
-14,-122,-107,68,46,-114,34,-43,-97,-146,53,-43
-14,-112,-97,63,41,-104,34,-43,-87,-146,58,-34
-14,-117,-102,65,43,-109,34,-43,-87,-141,63,-19
-19,-117,-97,68,39,-107,34,-43,-87,-136,68,-9
-19,-117,-97,68,39,-107,34,-43,-82,-126,78,-9
-29,-117,-87,73,29,-102,24,-48,-87,-126,78,-9
-29,-122,-92,75,31,-107,24,-48,-97,-126,73,-9
-29,-126,-97,78,34,-112,24,-48,-102,-131,68,-9
-29,-126,-97,78,34,-112,14,-53,-112,-136,68,-19
-19,-122,-102,70,41,-112,24,-53,-112,-146,58,-39
-24,-117,-92,70,34,-104,29,-48,-112,-146,58,-29
-24,-107,-82,65,29,-95,29,-48,-112,-146,68,-24
-19,-102,-82,61,31,-92,29,-48,-112,-141,73,-24
-24,-92,-68,58,21,-80,29,-48,-97,-136,73,-4
-24,-92,-68,58,21,-80,29,-48,-97,-131,73,-4
-29,-92,-63,61,17,-78,29,-48,-97,-131,68,-9
-34,-92,-58,63,12,-75,29,-53,-97,-146,63,-14
-34,-107,-73,70,19,-90,29,-53,-107,-146,53,-29
-34,-112,-78,73,21,-95,24,-58,-107,-146,53,-29
-29,-117,-87,73,29,-102,19,-58,-107,-146,58,-24
-29,-122,-92,75,31,-107,19,-58,-107,-146,58,-19
-29,-122,-92,75,31,-107,34,-48,-97,-126,63,-9
-29,-122,-92,75,31,-107,34,-48,-97,-122,63,0
-29,-122,-92,75,31,-107,29,-48,-97,-122,63,-9
-34,-122,-87,78,26,-104,29,-48,-97,-122,68,-14
-34,-117,-82,75,24,-100,19,-58,-97,-141,63,-29
-29,-117,-87,73,29,-102,19,-58,-102,-146,63,-34
-29,-112,-82,70,26,-97,19,-58,-102,-151,63,-34
-34,-107,-73,70,19,-90,19,-58,-102,-156,58,-34
-34,-107,-73,70,19,-90,19,-63,-102,-141,58,-24
-34,-107,-73,70,19,-90,19,-63,-102,-136,58,-19
-29,-107,-78,68,24,-92,24,-58,-102,-136,63,-24
-29,-107,-78,68,24,-92,24,-58,-102,-136,68,-19
-39,-117,-78,78,19,-97,24,-63,-112,-156,68,-39
-29,-126,-97,78,34,-112,19,-63,-112,-161,53,-58
-29,-126,-97,78,34,-112,29,-63,-102,-151,63,-48
-29,-126,-97,78,34,-112,29,-58,-107,-146,78,-29
-29,-122,-92,75,31,-107,19,-58,-107,-141,68,-19
-29,-117,-87,73,29,-102,19,-58,-107,-136,68,-19
-29,-112,-82,70,26,-97,19,-58,-107,-131,68,-19
-29,-107,-78,68,24,-92,19,-58,-107,-126,68,-19
-19,-82,-63,51,21,-73,19,-53,-97,-136,63,-29
-19,-73,-53,46,17,-63,24,-53,-92,-126,73,-29
-19,-73,-53,46,17,-63,29,-48,-92,-131,73,-39
-14,-68,-53,41,19,-61,29,-48,-92,-131,78,-53
-14,-63,-48,39,17,-56,39,-43,-82,-122,87,-48
-14,-48,-34,31,9,-41,39,-43,-78,-117,87,-39
-9,-39,-29,24,9,-34,39,-39,-68,-112,97,-24
0,-34,-34,17,17,-34,39,-39,-68,-102,97,-14
0,-43,-43,21,21,-43,29,-34,-73,-112,97,-29
0,-39,-39,19,19,-39,29,-29,-68,-107,102,-29
4,-39,-43,17,24,-41,34,-29,-68,-107,102,-24
4,-39,-43,17,24,-41,34,-29,-73,-107,102,-29
4,-39,-43,17,24,-41,43,-29,-63,-102,102,-29
4,-39,-43,17,24,-41,43,-29,-63,-102,102,-34
4,-39,-43,17,24,-41,43,-29,-63,-97,97,-29
4,-39,-43,17,24,-41,43,-29,-63,-92,92,-24
4,-39,-43,17,24,-41,34,-29,-63,-102,82,-39
4,-29,-34,12,19,-31,29,-29,-53,-107,87,-43
4,-24,-29,9,17,-26,19,-29,-53,-102,92,-34
9,-14,-24,2,17,-19,9,-34,-53,-102,107,-34
4,0,-4,-2,4,-2,-9,-48,-53,-97,112,-24
9,14,4,-12,2,9,-34,-58,-63,-87,117,-19
19,14,-4,-17,12,4,-58,-68,-63,-82,117,0
19,14,-4,-17,12,4,-78,-78,-68,-87,117,4
34,-4,-39,-14,36,-21,-87,-78,-68,-97,107,-4
39,-9,-48,-14,43,-29,-87,-78,-68,-97,112,-14
43,-14,-58,-14,51,-36,-78,-68,-58,-87,117,-19
58,-14,-73,-21,65,-43,-73,-58,-58,-87,117,-24
78,-9,-87,-34,82,-48,-73,-58,-48,-73,126,-19
78,-24,-102,-26,90,-63,-68,-58,-58,-68,122,-14
82,-24,-107,-29,95,-65,-68,-58,-63,-78,117,-19
82,-39,-122,-21,102,-80,-68,-58,-63,-78,112,-24
73,-58,-131,-7,102,-95,-68,-53,-78,-92,102,-39
68,-68,-136,0,102,-102,-63,-63,-82,-117,87,-48
58,-92,-151,17,104,-122,-58,-63,-87,-126,73,-53
53,-102,-156,24,104,-129,-53,-63,-102,-146,63,-68
34,-102,-136,34,85,-119,-48,-73,-102,-136,73,-58
24,-122,-146,48,85,-134,-34,-73,-107,-136,68,-63
14,-136,-151,61,82,-143,-24,-63,-107,-141,68,-63
4,-136,-141,65,73,-139,-14,-63,-107,-141,68,-73
4,-122,-126,58,65,-124,0,-63,-97,-146,68,-73
-14,-122,-107,68,46,-114,4,-63,-102,-146,53,-82
-24,-126,-102,75,39,-114,9,-68,-102,-151,39,-92
-29,-131,-102,80,36,-117,9,-82,-112,-156,34,-97
-39,-151,-112,95,36,-131,14,-82,-126,-170,19,-107
-43,-161,-117,102,36,-139,14,-87,-141,-175,14,-117
-48,-170,-122,109,36,-146,14,-87,-151,-185,-4,-122
-53,-185,-131,119,39,-158,14,-82,-151,-190,-9,-131
-63,-190,-126,126,31,-158,19,-92,-156,-195,-14,-146
-63,-195,-131,129,34,-163,19,-97,-156,-200,-19,-156
-63,-209,-146,136,41,-178,19,-97,-156,-200,-19,-156
-63,-219,-156,141,46,-187,19,-97,-161,-200,-19,-156
-58,-219,-161,139,51,-190,19,-92,-156,-200,-19,-165
-58,-219,-161,139,51,-190,24,-87,-156,-200,-19,-165
-63,-219,-156,141,46,-187,34,-82,-156,-200,-19,-165
-63,-214,-151,139,43,-183,34,-78,-156,-209,-19,-165
-53,-209,-156,131,51,-183,29,-87,-156,-204,-24,-156
-58,-209,-151,134,46,-180,29,-87,-156,-200,-24,-156
-58,-214,-156,136,48,-185,29,-87,-156,-195,-24,-161
-53,-214,-161,134,53,-187,29,-92,-161,-190,-29,-161
-63,-204,-141,134,39,-173,29,-102,-170,-195,-39,-165
-63,-209,-146,136,41,-178,34,-102,-170,-200,-39,-170
-73,-219,-146,146,36,-183,34,-97,-170,-209,-39,-175
-73,-224,-151,148,39,-187,39,-97,-170,-214,-39,-180
-73,-224,-151,148,39,-187,29,-87,-161,-209,-29,-170
-73,-224,-151,148,39,-187,29,-87,-161,-204,-34,-180
-73,-224,-151,148,39,-187,29,-92,-161,-209,-34,-180
-73,-224,-151,148,39,-187,29,-92,-161,-204,-39,-180
-73,-224,-151,148,39,-187,34,-87,-161,-214,-48,-190
-73,-229,-156,151,41,-192,39,-87,-161,-209,-48,-195
-73,-239,-165,156,46,-202,43,-87,-161,-209,-48,-204
-73,-244,-170,158,48,-207,48,-87,-161,-214,-48,-214
-68,-234,-165,151,48,-200,48,-78,-151,-200,-39,-180
-78,-234,-156,156,39,-195,48,-87,-161,-200,-39,-185
-78,-214,-136,146,29,-175,39,-87,-161,-219,-39,-195
-87,-209,-122,148,17,-165,29,-102,-175,-219,-39,-195
-97,-190,-92,143,-2,-141,24,-117,-185,-224,-34,-195
-87,-146,-58,117,-14,-102,29,-126,-185,-214,-24,-180
-107,-112,-4,109,-51,-58,39,-136,-185,-200,-19,-161
-112,-92,19,102,-65,-36,48,-131,-180,-190,-14,-151
-102,-87,14,95,-58,-36,73,-92,-156,-165,0,-122
-87,-107,-19,97,-34,-63,107,-24,-102,-141,29,-122
-82,-126,-43,104,-19,-85,126,24,-53,-117,48,-136
-82,-156,-73,119,-4,-114,126,53,0,-73,78,-131
-53,-180,-126,117,36,-153,102,78,58,-14,136,-126
29,-214,-244,92,136,-229,78,141,165,78,229,-102
131,-244,-375,56,253,-309,43,180,292,195,331,-68
219,-302,-522,41,370,-412,-9,209,395,302,424,-29
361,-322,-683,-19,522,-502,-97,214,522,473,580,63
512,-302,-814,-104,663,-558,-244,161,619,639,751,175
629,-302,-932,-163,780,-617,-375,39,610,712,834,219
692,-375,-1068,-158,880,-722,-453,-78,531,688,810,180
722,-488,-1210,-117,966,-849,-488,-175,424,546,692,78
722,-595,-1317,-63,1019,-956,-497,-234,302,336,478,-87
712,-688,-1400,-12,1056,-1044,-488,-283,185,126,253,-244
697,-732,-1429,17,1063,-1080,-507,-361,53,-29,87,-336
683,-746,-1429,31,1056,-1088,-556,-502,-92,-141,-14,-380
585,-771,-1356,92,971,-1063,-585,-668,-278,-258,-126,-405
448,-780,-1229,165,839,-1005,-585,-834,-473,-370,-214,-439
331,-741,-1073,204,702,-907,-585,-936,-605,-448,-253,-439
170,-692,-863,261,517,-778,-522,-932,-673,-512,-307,-458
-14,-619,-605,317,295,-612,-390,-897,-727,-595,-375,-507
-141,-522,-380,331,119,-451,-278,-878,-780,-649,-419,-507
-200,-473,-273,336,36,-373,-229,-849,-819,-663,-439,-483
-224,-444,-219,334,-2,-331,-200,-810,-814,-663,-439,-478
-204,-395,-190,300,-7,-292,-175,-741,-732,-585,-380,-414
-185,-307,-122,246,-31,-214,-156,-634,-619,-483,-287,-341
-170,-244,-73,207,-48,-158,-136,-522,-527,-419,-219,-312
-156,-195,-39,175,-58,-117,-112,-409,-453,-370,-165,-287
-141,-161,-19,151,-61,-90,-97,-331,-380,-336,-131,-283
-122,-131,-9,126,-56,-70,-68,-287,-322,-307,-102,-278
-92,-117,-24,104,-34,-70,-43,-258,-268,-258,-63,-248
-78,-112,-34,95,-21,-73,-29,-229,-234,-239,-53,-229
-48,-122,-73,85,12,-97,-4,-190,-195,-204,-39,-209
-48,-151,-102,100,26,-126,14,-146,-170,-170,-24,-190
-78,-185,-107,131,14,-146,34,-107,-156,-175,-29,-204
-82,-175,-92,129,4,-134,48,-92,-161,-185,-29,-224
-82,-175,-92,129,4,-134,43,-82,-151,-185,-39,-239
-73,-165,-92,119,9,-129,39,-73,-136,-180,-24,-244
-63,-161,-97,112,17,-129,34,-68,-136,-185,-24,-244
-63,-156,-92,109,14,-124,29,-68,-131,-190,-24,-244
-68,-146,-78,107,4,-112,29,-63,-122,-170,-14,-234
-68,-146,-78,107,4,-112,34,-63,-126,-161,-9,-224
-68,-141,-73,104,2,-107,34,-53,-126,-161,-9,-214
-68,-141,-73,104,2,-107,39,-48,-126,-151,-9,-209
-68,-141,-73,104,2,-107,48,-34,-117,-165,-14,-219
-68,-141,-73,104,2,-107,48,-24,-107,-161,-9,-229
-68,-131,-63,100,-2,-97,48,-24,-97,-151,-4,-224
-58,-131,-73,95,7,-102,48,-19,-92,-146,0,-234
-48,-141,-92,95,21,-117,48,-19,-87,-136,9,-219
-48,-141,-92,95,21,-117,48,-19,-87,-126,14,-214
-48,-136,-87,92,19,-112,48,-19,-82,-122,14,-209
-48,-131,-82,90,17,-107,58,-9,-73,-117,14,-204
-48,-122,-73,85,12,-97,48,4,-68,-131,9,-204
-48,-122,-73,85,12,-97,48,9,-63,-131,14,-209
-43,-122,-78,82,17,-100,53,14,-53,-117,19,-209
-34,-122,-87,78,26,-104,53,24,-39,-117,24,-214
-34,-102,-68,68,17,-85,53,29,-39,-102,39,-195
-34,-102,-68,68,17,-85,53,29,-34,-97,39,-185
-34,-102,-68,68,17,-85,53,34,-34,-92,39,-180
-34,-102,-68,68,17,-85,53,34,-34,-87,39,-175
-43,-102,-58,73,7,-80,53,34,-24,-97,34,-190
-43,-97,-53,70,4,-75,58,39,-19,-87,39,-190
-39,-102,-63,70,12,-82,58,53,-4,-82,48,-195
-39,-107,-68,73,14,-87,53,58,4,-68,58,-195
-43,-97,-53,70,4,-75,53,63,19,-58,63,-180
-34,-92,-58,63,12,-75,53,68,24,-48,63,-165
-34,-92,-58,63,12,-75,53,73,24,-39,78,-161
-34,-87,-53,61,9,-70,53,82,34,-34,82,-156
-24,-78,-53,51,14,-65,43,87,39,-34,73,-161
-24,-68,-43,46,9,-56,48,102,53,-29,73,-165
-24,-58,-34,41,4,-46,48,112,63,-19,87,-165
-19,-48,-29,34,4,-39,48,122,82,-9,87,-175
-19,-39,-19,29,0,-29,48,126,82,14,107,-170
-14,-29,-14,21,0,-21,48,141,92,24,122,-156
-9,-14,-4,12,-2,-9,48,151,112,34,126,-136
0,0,0,0,0,0,48,161,122,39,136,-131
14,9,-4,-12,9,2,58,190,146,48,161,-126
19,9,-9,-14,14,0,58,204,161,68,170,-122
19,9,-9,-14,14,0,58,219,175,92,185,-102
19,14,-4,-17,12,4,58,239,190,107,195,-102
19,34,14,-26,2,24,48,239,214,112,190,-87
24,39,14,-31,4,26,43,253,219,126,204,-78
29,58,29,-43,0,43,43,263,244,146,224,-58
39,58,19,-48,9,39,43,283,263,161,224,-43
43,73,29,-58,7,51,43,307,287,175,248,-34
43,82,39,-63,2,61,43,322,302,185,263,-24
48,97,48,-73,0,73,43,341,322,195,278,-14
63,107,43,-85,9,75,43,356,341,219,297,0
68,126,58,-97,4,92,43,366,346,219,307,9
73,141,68,-107,2,104,39,375,366,248,317,24
78,141,63,-109,7,102,39,385,385,258,326,29
87,156,68,-122,9,112,39,395,400,263,336,29
82,161,78,-122,2,119,39,419,424,287,361,34
87,175,87,-131,0,131,34,434,444,302,370,34
97,175,78,-136,9,126,34,434,458,312,380,48
102,180,78,-141,12,129,34,448,468,326,400,68
117,190,73,-153,21,131,24,458,473,331,405,53
122,204,82,-163,19,143,24,468,488,341,414,63
122,214,92,-168,14,153,14,468,497,356,419,58
126,219,92,-173,17,156,14,473,502,356,424,53
126,224,97,-175,14,161,19,473,502,361,434,43
122,224,102,-173,9,163,19,483,507,361,429,39
122,224,102,-173,9,163,19,483,512,366,429,39
126,229,102,-178,12,165,19,483,512,370,439,39
122,234,112,-178,4,173,14,473,502,366,429,34
122,234,112,-178,4,173,14,473,502,361,424,24
122,229,107,-175,7,168,14,473,507,351,424,14
122,229,107,-175,7,168,14,468,507,341,424,-4
126,224,97,-175,14,161,24,468,507,356,429,-4
131,224,92,-178,19,158,24,473,507,361,434,-4
136,219,82,-178,26,151,24,473,512,361,434,0
141,219,78,-180,31,148,24,468,512,370,434,4
126,224,97,-175,14,161,19,448,502,351,419,-14
122,214,92,-168,14,153,19,444,483,341,409,-24
122,209,87,-165,17,148,19,434,468,331,400,-48
122,209,87,-165,17,148,19,424,453,322,390,-63
112,204,92,-158,9,148,19,424,453,331,380,-68
112,185,73,-148,19,129,19,409,448,322,370,-73
112,175,63,-143,24,119,19,390,429,307,361,-73
102,170,68,-136,17,119,19,375,419,297,356,-78
107,170,63,-139,21,117,19,370,400,287,341,-97
107,161,53,-134,26,107,19,356,380,273,326,-117
107,146,39,-126,34,92,19,341,361,263,317,-136
97,131,34,-114,31,82,19,322,346,239,307,-156
92,107,14,-100,39,61,19,307,326,234,307,-146
92,92,0,-92,46,46,19,283,317,224,297,-156
92,87,-4,-90,48,41,19,268,302,214,278,-156
82,68,-14,-75,48,26,19,258,283,204,268,-161
58,53,-4,-56,31,24,34,239,273,190,244,-185
48,39,-9,-43,29,14,34,224,244,175,229,-204
39,29,-9,-34,24,9,34,214,224,165,209,-214
34,14,-19,-24,26,-2,34,200,214,151,200,-229
34,9,-24,-21,29,-7,34,180,200,146,180,-239
24,4,-19,-14,21,-7,34,161,185,136,165,-244
19,-9,-29,-4,24,-19,39,146,165,122,151,-263
14,-19,-34,2,24,-26,39,141,151,102,146,-273
14,-19,-34,2,24,-26,39,131,141,87,122,-292
14,-19,-34,2,24,-26,39,126,126,73,102,-307
14,-14,-29,0,21,-21,43,117,117,68,102,-317
9,-14,-24,2,17,-19,43,102,102,63,92,-331
0,-48,-48,24,24,-48,39,97,87,48,82,-331
-9,-58,-48,34,19,-53,39,87,78,39,78,-326
-14,-63,-48,39,17,-56,39,78,63,39,63,-326
-19,-73,-53,46,17,-63,39,68,58,34,58,-331
-39,-78,-39,58,0,-58,39,58,43,9,39,-351
-39,-82,-43,61,2,-63,34,53,34,4,34,-366
-43,-87,-43,65,0,-65,34,48,19,4,34,-375
-43,-92,-48,68,2,-70,34,43,14,0,29,-385
-39,-92,-53,65,7,-73,43,43,19,4,24,-380
-34,-92,-58,63,12,-75,43,43,19,4,29,-370
-34,-87,-53,61,9,-70,43,43,9,9,34,-366
-29,-82,-53,56,12,-68,43,43,9,4,34,-366
-39,-87,-48,63,4,-68,43,39,14,-9,19,-380
-39,-87,-48,63,4,-68,43,34,9,-9,19,-385
-39,-92,-53,65,7,-73,43,34,9,-9,19,-390
-39,-92,-53,65,7,-73,48,34,9,0,19,-395
-43,-87,-43,65,0,-65,39,19,-4,0,4,-380
-43,-87,-43,65,0,-65,34,14,-9,0,4,-366
-43,-87,-43,65,0,-65,34,14,-9,0,4,-370
-43,-82,-39,63,-2,-61,34,14,-9,-9,4,-375
-53,-82,-29,68,-12,-56,43,24,-9,-24,-4,-390
-53,-87,-34,70,-9,-61,43,24,-9,-24,-4,-380
-58,-87,-29,73,-14,-58,43,24,-9,-24,-4,-375
-58,-87,-29,73,-14,-58,43,24,-4,-19,0,-380
-53,-82,-29,68,-12,-56,43,19,-4,-4,4,-366
-48,-82,-34,65,-7,-58,43,19,-9,0,4,-361
-43,-82,-39,63,-2,-61,43,19,-9,0,4,-356
-39,-78,-39,58,0,-58,34,14,-14,0,9,-361
-39,-78,-39,58,0,-58,34,14,-4,-4,4,-380
-43,-78,-34,61,-4,-56,39,19,-4,-9,0,-380
-43,-73,-29,58,-7,-51,39,19,-4,-14,4,-385
-39,-73,-34,56,-2,-53,39,19,-4,-14,4,-395
-43,-73,-29,58,-7,-51,39,19,-9,-9,-4,-385
-43,-73,-29,58,-7,-51,39,19,-9,-4,-4,-385
-48,-73,-24,61,-12,-48,39,19,-9,-4,-9,-390
-53,-73,-19,63,-17,-46,39,14,-9,-19,-14,-395
-53,-82,-29,68,-12,-56,39,14,-14,-19,-14,-419
-53,-82,-29,68,-12,-56,34,9,-19,-19,-14,-419
-48,-82,-34,65,-7,-58,29,9,-24,-19,-9,-414
-48,-82,-34,65,-7,-58,29,9,-29,-19,-9,-409
-48,-73,-24,61,-12,-48,43,9,-24,-9,0,-400
-48,-73,-24,61,-12,-48,43,9,-19,-4,-4,-390
-48,-73,-24,61,-12,-48,39,9,-14,-4,-9,-400
-53,-73,-19,63,-17,-46,39,9,-9,-4,-9,-405
-53,-58,-4,56,-24,-31,29,19,-9,-9,-14,-424
-48,-58,-9,53,-19,-34,29,19,-14,-9,-14,-434
-48,-53,-4,51,-21,-29,29,19,-14,-9,-14,-439
-53,-48,4,51,-29,-21,29,19,-14,-9,-19,-444
-73,-78,-4,75,-34,-41,29,4,-14,-24,-34,-468
-63,-78,-14,70,-24,-46,29,4,-14,-19,-29,-458
-29,-39,-9,34,-9,-24,43,19,-4,-9,-9,-439
-39,-68,-29,53,-4,-48,53,19,4,9,0,-409
-58,-87,-29,73,-14,-58,39,9,-19,0,-19,-429
-48,-82,-34,65,-7,-58,39,19,-19,-9,-9,-439
-48,-78,-29,63,-9,-53,39,19,-19,-9,-9,-448
-48,-73,-24,61,-12,-48,39,19,-19,-9,-9,-458
-48,-68,-19,58,-14,-43,39,19,-19,-9,-9,-468
-58,-58,0,58,-29,-29,39,14,-14,-4,-4,-453
-58,-53,4,56,-31,-24,43,14,-4,9,4,-439
-58,-58,0,58,-29,-29,48,19,0,9,4,-434
-53,-58,-4,56,-24,-31,48,19,4,14,9,-434
-53,-48,4,51,-29,-21,39,14,-4,19,4,-453
-53,-29,24,41,-39,-2,39,14,0,19,0,-458
-48,-14,34,31,-41,9,39,19,9,19,4,-458
-39,-4,34,21,-36,14,39,19,9,24,0,-463
-29,4,34,12,-31,19,48,24,14,24,0,-458
-29,9,39,9,-34,24,48,29,19,29,4,-448
-24,9,34,7,-29,21,53,29,19,29,4,-434
-24,9,34,7,-29,21,53,29,14,29,4,-429
-34,0,34,17,-34,17,63,39,24,29,4,-444
-34,0,34,17,-34,17,63,39,24,24,4,-453
-34,0,34,17,-34,17,63,39,24,24,0,-453
-34,0,34,17,-34,17,63,39,24,24,-4,-453
-34,0,34,17,-34,17,63,39,34,19,-14,-444
-34,9,43,12,-39,26,58,39,43,19,-9,-444
-34,14,48,9,-41,31,48,39,43,29,-4,-429
-29,24,53,2,-41,39,39,34,43,34,9,-424
-24,48,73,-12,-48,61,9,9,34,43,14,-414
-19,63,82,-21,-51,73,-14,0,24,48,19,-409
-9,63,73,-26,-41,68,-39,-9,24,48,19,-390
-9,63,73,-26,-41,68,-58,-19,19,39,19,-385
-4,58,63,-26,-34,61,-68,-29,9,29,9,-385
0,58,58,-29,-29,58,-68,-29,9,29,14,-385
4,58,53,-31,-24,56,-58,-19,19,39,19,-380
19,63,43,-41,-12,53,-53,-9,19,39,19,-375
19,63,43,-41,-12,53,-43,0,29,53,29,-361
19,43,24,-31,-2,34,-39,0,19,58,24,-356
24,39,14,-31,4,26,-39,0,14,48,19,-361
24,19,-4,-21,14,7,-39,0,14,48,14,-366
34,0,-34,-17,34,-17,-48,-4,0,34,9,-375
29,-9,-39,-9,34,-24,-43,-14,-4,19,0,-380
19,-34,-53,7,36,-43,-39,-14,-9,19,-9,-380
14,-43,-58,14,36,-51,-34,-14,-24,9,-14,-390
14,-39,-53,12,34,-46,-39,-24,-24,0,-19,-375
4,-53,-58,24,31,-56,-24,-24,-29,0,-29,-375
-4,-63,-58,34,26,-61,-14,-14,-29,-4,-34,-370
-14,-58,-43,36,14,-51,-4,-14,-29,-4,-39,-375
-34,-73,-39,53,2,-56,19,-4,-19,-24,-39,-385
-53,-82,-29,68,-12,-56,24,-4,-24,-29,-53,-395
-63,-97,-34,80,-14,-65,29,-9,-24,-39,-68,-405
-68,-112,-43,90,-12,-78,29,-24,-34,-48,-73,-409
-68,-112,-43,90,-12,-78,34,-24,-39,-43,-87,-385
-73,-122,-48,97,-12,-85,34,-29,-53,-48,-92,-380
-78,-131,-53,104,-12,-92,34,-29,-63,-58,-112,-370
-82,-146,-63,114,-9,-104,34,-24,-63,-63,-117,-366
-82,-146,-63,114,-9,-104,48,-24,-68,-73,-122,-351
-82,-146,-63,114,-9,-104,48,-29,-68,-82,-126,-351
-82,-156,-73,119,-4,-114,48,-29,-68,-87,-126,-341
-82,-161,-78,122,-2,-119,48,-29,-73,-92,-126,-331
-87,-165,-78,126,-4,-122,39,-29,-78,-87,-131,-287
-87,-170,-82,129,-2,-126,43,-29,-78,-82,-126,-253
-92,-175,-82,134,-4,-129,53,-29,-78,-78,-122,-219
-92,-175,-82,134,-4,-129,53,-29,-78,-82,-117,-185
-87,-170,-82,129,-2,-126,58,-29,-87,-87,-131,-161
-87,-170,-82,129,-2,-126,58,-29,-87,-92,-131,-146
-82,-175,-92,129,4,-134,58,-29,-87,-97,-131,-136
-73,-175,-102,124,14,-139,58,-34,-92,-102,-136,-122
-82,-165,-82,124,0,-124,48,-34,-82,-92,-146,-82
-82,-170,-87,126,2,-129,53,-34,-82,-92,-146,-53
-92,-180,-87,136,-2,-134,53,-29,-82,-97,-146,-24
-92,-185,-92,139,0,-139,58,-29,-82,-97,-146,4
-102,-195,-92,148,-4,-143,58,-39,-92,-102,-151,19
-102,-195,-92,148,-4,-143,58,-39,-92,-107,-161,14
-102,-195,-92,148,-4,-143,58,-43,-92,-122,-165,19
-102,-195,-92,148,-4,-143,58,-43,-92,-126,-175,24
-102,-190,-87,146,-7,-139,48,-39,-92,-122,-165,53
-102,-190,-87,146,-7,-139,48,-39,-92,-112,-165,68
-102,-195,-92,148,-4,-143,48,-39,-92,-107,-165,78
-102,-195,-92,148,-4,-143,48,-39,-92,-107,-165,87
-97,-165,-68,131,-14,-117,58,-29,-92,-112,-165,92
-97,-185,-87,141,-4,-136,68,-39,-92,-122,-185,78
-107,-195,-87,151,-9,-141,58,-39,-102,-141,-195,68
-107,-180,-73,143,-17,-126,58,-43,-97,-131,-185,97
-107,-141,-34,124,-36,-87,53,-58,-107,-126,-170,107
-117,-107,9,112,-63,-48,48,-68,-117,-117,-161,151
-136,-112,24,124,-80,-43,48,-78,-126,-112,-156,190
-131,-122,9,126,-70,-56,58,-63,-131,-112,-151,190
-102,-97,4,100,-53,-46,92,-24,-97,-97,-136,190
-117,-107,9,112,-63,-48,107,24,-53,-73,-126,170
-131,-146,-14,139,-58,-80,136,73,-4,-68,-117,146
-102,-175,-73,139,-14,-124,156,122,58,-14,-68,161
-53,-190,-136,122,41,-163,151,165,117,53,-9,204
-9,-224,-214,117,102,-219,117,190,185,136,82,268
63,-253,-317,95,190,-285,73,219,283,253,195,351
161,-283,-444,61,302,-363,19,229,375,380,326,409
273,-292,-566,9,419,-429,-58,224,463,541,492,483
414,-273,-688,-70,551,-480,-185,170,531,727,712,595
522,-234,-756,-143,639,-495,-317,39,531,849,873,697
595,-268,-863,-163,729,-566,-405,-107,463,873,927,717
644,-341,-985,-151,814,-663,-439,-195,366,810,858,663
653,-429,-1083,-112,868,-756,-448,-234,302,668,692,556
634,-531,-1166,-51,900,-849,-419,-244,244,517,497,448
600,-595,-1195,-2,897,-895,-409,-312,131,361,312,336
556,-600,-1156,21,856,-878,-448,-453,-34,209,180,244
468,-614,-1083,73,775,-849,-478,-619,-229,53,39,161
361,-624,-985,131,673,-805,-468,-756,-424,-87,-87,87
253,-556,-810,151,531,-683,-448,-849,-556,-185,-146,58
141,-468,-610,163,375,-539,-414,-844,-595,-239,-209,48
-14,-453,-439,234,212,-446,-312,-790,-629,-341,-356,-19
-170,-434,-263,302,46,-348,-219,-771,-712,-444,-478,-78
-239,-375,-136,307,-51,-256,-180,-771,-780,-517,-546,-82
-234,-336,-102,285,-65,-219,-141,-732,-785,-566,-556,-97
-253,-336,-82,295,-85,-209,-97,-673,-732,-556,-546,-112
-263,-326,-63,295,-100,-195,-78,-614,-678,-522,-512,-117
-219,-244,-24,231,-97,-134,-68,-541,-585,-458,-434,-87
-175,-165,9,170,-92,-78,-53,-448,-473,-361,-341,-14
-170,-122,48,146,-109,-36,-78,-370,-370,-287,-287,29
-161,-73,87,117,-124,7,-78,-307,-292,-229,-248,73
-141,-58,82,100,-112,12,-63,-248,-239,-180,-219,122
-136,-53,82,95,-109,14,-39,-209,-214,-161,-209,122
-107,-43,63,75,-85,9,-4,-180,-195,-156,-195,122
-97,-63,34,80,-65,-14,14,-146,-180,-161,-190,102
-97,-97,0,97,-48,-48,34,-107,-146,-156,-195,68
-92,-126,-34,109,-29,-80,48,-63,-122,-136,-165,68
-102,-126,-24,114,-39,-75,48,-53,-107,-122,-175,78
-92,-117,-24,104,-34,-70,48,-43,-87,-102,-161,87
-82,-112,-29,97,-26,-70,48,-39,-82,-92,-161,102
-82,-107,-24,95,-29,-65,48,-39,-73,-82,-161,117
-78,-107,-29,92,-24,-68,48,-39,-73,-87,-170,102
-78,-107,-29,92,-24,-68,53,-34,-78,-92,-165,97
-78,-102,-24,90,-26,-63,53,-19,-78,-107,-165,92
-78,-102,-24,90,-26,-63,58,-9,-78,-112,-165,82
-78,-102,-24,90,-26,-63,58,0,-58,-107,-151,87
-78,-102,-24,90,-26,-63,58,4,-48,-92,-146,92
-78,-92,-14,85,-31,-53,58,0,-39,-73,-141,112
-68,-92,-24,80,-21,-58,58,0,-34,-58,-136,117
-68,-82,-14,75,-26,-48,48,9,-34,-63,-146,107
-68,-82,-14,75,-26,-48,48,9,-39,-68,-141,107
-68,-78,-9,73,-29,-43,48,9,-39,-78,-141,107
-68,-73,-4,70,-31,-39,58,19,-34,-87,-141,107
-73,-82,-9,78,-31,-46,48,14,-29,-97,-146,112
-78,-82,-4,80,-36,-43,48,19,-24,-92,-141,112
-78,-82,-4,80,-36,-43,53,24,-14,-73,-136,117
-73,-82,-9,78,-31,-46,53,34,0,-68,-131,117
-63,-63,0,63,-31,-31,53,39,0,-48,-117,122
-63,-63,0,63,-31,-31,53,39,4,-48,-117,126
-63,-63,0,63,-31,-31,53,43,4,-48,-117,126
-63,-63,0,63,-31,-31,53,43,4,-48,-117,126
-63,-58,4,61,-34,-26,43,43,4,-58,-112,112
-63,-48,14,56,-39,-17,48,48,9,-48,-107,112
-58,-48,9,53,-34,-19,48,63,24,-43,-97,107
-58,-48,9,53,-34,-19,43,68,34,-29,-87,107
-53,-29,24,41,-39,-2,43,63,58,-24,-87,112
-43,-24,19,34,-31,-2,43,68,63,-19,-92,117
-43,-24,19,34,-31,-2,43,73,63,-14,-82,112
-43,-19,24,31,-34,2,43,82,73,-14,-82,107
-43,-19,24,31,-34,2,43,78,68,-9,-73,107
-43,-19,24,31,-34,2,48,92,82,0,-73,107
-43,-19,24,31,-34,2,48,102,92,14,-58,112
-39,-19,19,29,-29,0,48,112,112,29,-58,107
-39,-9,29,24,-34,9,39,107,112,53,-39,117
-34,0,34,17,-34,17,39,122,122,63,-24,136
-29,14,43,7,-36,29,39,131,141,73,-19,161
-19,29,48,-4,-34,39,39,141,151,78,-9,170
-14,53,68,-19,-41,61,29,151,175,73,4,170
-9,58,68,-24,-39,63,29,165,190,87,14,170
-9,63,73,-26,-41,68,29,180,204,107,29,185
-9,73,82,-31,-46,78,29,200,219,117,39,180
9,87,78,-48,-34,82,39,209,253,136,53,204
14,87,73,-51,-29,80,34,224,258,156,68,214
19,102,82,-61,-31,92,34,234,283,180,87,234
29,97,68,-63,-19,82,34,253,302,200,87,248
29,122,92,-75,-31,107,29,263,312,200,107,248
24,131,107,-78,-41,119,24,273,322,204,117,248
24,146,122,-85,-48,134,19,287,336,209,126,248
34,156,122,-95,-43,139,14,297,351,229,141,253
39,161,122,-100,-41,141,4,312,370,253,165,283
43,170,126,-107,-41,148,0,326,395,287,180,307
48,165,117,-107,-34,141,0,341,419,302,195,322
58,175,117,-117,-29,146,0,356,439,312,209,331
63,204,141,-134,-39,173,-9,356,439,317,209,326
68,224,156,-146,-43,190,-14,366,453,322,214,317
78,229,151,-153,-36,190,-14,361,463,322,219,322
82,239,156,-161,-36,197,-14,370,468,326,234,331
87,239,151,-163,-31,195,-9,390,488,351,253,341
92,253,161,-173,-34,207,-4,400,507,370,268,366
92,263,170,-178,-39,217,-9,400,522,395,278,375
97,268,170,-183,-36,219,-4,405,531,405,287,385
107,263,156,-185,-24,209,-9,405,527,390,287,375
102,263,161,-183,-29,212,-9,414,527,390,283,370
102,263,161,-183,-29,212,-9,414,527,395,283,370
107,268,161,-187,-26,214,-9,414,522,400,292,370
112,287,175,-200,-31,231,-19,400,512,400,292,385
112,292,180,-202,-34,236,-24,395,512,400,287,385
112,292,180,-202,-34,236,-29,390,517,395,287,385
112,297,185,-204,-36,241,-34,380,517,390,287,375
112,292,180,-202,-34,236,-29,375,492,375,287,356
112,292,180,-202,-34,236,-24,375,488,370,287,346
112,287,175,-200,-31,231,-19,370,488,361,283,341
112,287,175,-200,-31,231,-14,361,483,361,278,336
97,283,185,-190,-43,234,-29,351,478,361,278,351
92,273,180,-183,-43,226,-29,346,463,361,273,356
92,268,175,-180,-41,222,-29,336,453,361,268,346
92,268,175,-180,-41,222,-29,326,444,361,263,346
97,263,165,-180,-34,214,-29,326,434,366,263,322
102,244,141,-173,-19,192,-29,312,429,351,253,307
107,234,126,-170,-9,180,-29,292,409,331,244,297
102,229,126,-165,-12,178,-29,278,400,317,239,283
97,209,112,-153,-7,161,-24,268,385,322,224,287
87,200,112,-143,-12,156,-19,258,370,312,209,283
78,185,107,-131,-14,146,-14,248,356,307,200,278
58,170,112,-114,-26,141,-9,234,346,287,190,273
58,170,112,-114,-26,141,0,224,331,263,165,253
63,161,97,-112,-17,129,0,204,317,244,151,224
68,161,92,-114,-12,126,0,195,297,224,126,204
63,146,82,-104,-9,114,0,190,273,204,112,180
39,122,82,-80,-21,102,14,170,273,204,107,170
29,107,78,-68,-24,92,14,156,244,195,92,165
19,97,78,-58,-29,87,14,146,224,190,73,170
14,82,68,-48,-26,75,14,131,214,180,63,170
4,58,53,-31,-24,56,24,126,195,156,48,141
-4,53,58,-24,-31,56,24,112,185,146,29,126
-9,39,48,-14,-29,43,29,102,170,131,9,97
-14,29,43,-7,-29,36,29,102,161,112,0,78
-19,24,43,-2,-31,34,29,87,151,112,-14,78
-24,19,43,2,-34,31,29,87,136,102,-34,73
-29,19,48,4,-39,34,34,82,126,102,-34,73
-39,14,53,12,-46,34,34,73,112,102,-43,68
-43,-14,29,29,-36,7,39,68,107,68,-63,58
-48,-19,29,34,-39,4,39,58,97,48,-68,53
-48,-19,29,34,-39,4,39,48,82,39,-82,43
-48,-24,24,36,-36,0,39,39,78,24,-87,29
-48,-24,24,36,-36,0,48,48,68,19,-92,39
-48,-24,24,36,-36,0,43,43,63,24,-92,34
-53,-24,29,39,-41,2,43,39,53,34,-87,34
-53,-24,29,39,-41,2,43,34,53,39,-87,34
-53,-19,34,36,-43,7,43,29,53,24,-107,19
-53,-24,29,39,-41,2,43,24,48,14,-107,19
-58,-24,34,41,-46,4,43,19,34,9,-107,14
-58,-24,34,41,-46,4,43,14,29,-4,-112,4
-68,-39,29,53,-48,-4,43,19,24,-9,-126,14
-68,-39,29,53,-48,-4,43,14,19,-9,-126,14
-68,-43,24,56,-46,-9,43,14,19,-9,-126,14
-68,-43,24,56,-46,-9,48,14,19,0,-126,14
-73,-48,24,61,-48,-12,48,19,19,9,-122,14
-73,-48,24,61,-48,-12,43,14,19,9,-122,24
-73,-48,24,61,-48,-12,43,14,24,9,-122,14
-73,-43,29,58,-51,-7,43,14,29,0,-122,4
-63,-43,19,53,-41,-12,43,14,24,-14,-126,-4
-63,-48,14,56,-39,-17,43,14,19,-14,-131,9
-68,-48,19,58,-43,-14,43,14,14,-14,-136,19
-68,-48,19,58,-43,-14,43,14,14,-9,-136,19
-78,-43,34,61,-56,-4,43,0,14,0,-146,24
-78,-43,34,61,-56,-4,43,0,9,0,-151,19
-78,-43,34,61,-56,-4,43,0,9,-4,-156,14
-78,-39,39,58,-58,0,34,-4,4,-9,-156,0
-68,-29,39,48,-53,4,53,0,9,-19,-146,-9
-73,-29,43,51,-58,7,58,9,14,-19,-146,0
-73,-24,48,48,-61,12,58,14,19,-19,-136,4
-68,-24,43,46,-56,9,58,19,24,-14,-131,4
-63,-29,34,46,-48,2,58,19,29,9,-122,19
-63,-34,29,48,-46,-2,58,19,29,14,-122,24
-68,-39,29,53,-48,-4,58,19,29,14,-126,24
-73,-43,29,58,-51,-7,58,14,29,0,-131,24
-73,-34,39,53,-56,2,48,4,24,-19,-136,0
-73,-34,39,53,-56,2,43,0,19,-19,-141,-9
-68,-34,34,51,-51,0,39,0,14,-19,-141,-14
-68,-34,34,51,-51,0,39,0,9,-19,-146,-19
-68,-43,24,56,-46,-9,43,9,19,0,-141,-4
-68,-43,24,56,-46,-9,43,9,19,4,-141,9
-68,-43,24,56,-46,-9,39,9,19,4,-141,4
-73,-43,29,58,-51,-7,39,9,19,4,-136,4
-82,-39,43,61,-63,2,39,-9,9,-9,-136,-39
-68,-19,48,43,-58,14,39,0,14,-19,-131,-53
-68,-34,34,51,-51,0,48,9,14,-9,-136,-24
-73,-29,43,51,-58,7,48,-9,-4,-29,-146,-34
-78,-9,68,43,-73,29,48,-9,0,0,-146,-19
-68,-19,48,43,-58,14,48,0,9,-9,-156,-29
-68,-19,48,43,-58,14,48,0,9,-9,-156,-29
-68,-19,48,43,-58,14,48,0,9,-9,-156,-29
-68,-19,48,43,-58,14,48,0,9,-9,-156,-29
-68,-29,39,48,-53,4,39,0,9,-19,-156,-43
-68,-29,39,48,-53,4,39,0,9,-19,-156,-48
-68,-29,39,48,-53,4,39,0,9,-19,-156,-53
-68,-29,39,48,-53,4,39,0,9,-19,-156,-58
-73,-29,43,51,-58,7,48,0,19,-4,-146,-53
-78,-29,48,53,-63,9,48,0,19,0,-146,-48
-82,-29,53,56,-68,12,48,0,19,4,-146,-43
-87,-29,58,58,-73,14,48,0,19,9,-146,-39
-82,-14,68,48,-75,26,58,9,29,0,-136,-39
-78,-9,68,43,-73,29,58,9,29,0,-136,-39
-73,-4,68,39,-70,31,58,9,29,0,-136,-39
-68,0,68,34,-68,34,58,9,29,0,-136,-39
-58,19,78,19,-68,48,48,0,39,9,-131,-29
-58,29,87,14,-73,58,48,0,39,19,-126,-19
-58,39,97,9,-78,68,48,0,39,29,-122,-9
-58,48,107,4,-82,78,48,0,39,39,-117,0
-58,39,97,9,-78,68,48,0,48,34,-117,-9
-58,39,97,9,-78,68,48,0,48,29,-117,-9
-58,39,97,9,-78,68,48,0,48,24,-117,-9
-58,39,97,9,-78,68,48,0,48,19,-117,-9
-48,39,87,4,-68,63,58,9,48,24,-117,4
-48,39,87,4,-68,63,58,9,48,29,-117,9
-48,39,87,4,-68,63,58,9,48,34,-117,14
-48,39,87,4,-68,63,58,9,48,39,-117,19
-58,53,112,2,-85,82,43,4,48,34,-126,9
-58,58,117,0,-87,87,39,0,48,29,-126,0
-58,63,122,-2,-90,92,34,-4,48,24,-126,-9
-58,68,126,-4,-92,97,29,-9,48,19,-126,-19
-48,78,126,-14,-87,102,4,-29,39,34,-122,4
-48,78,126,-14,-87,102,-9,-39,39,39,-117,19
-48,78,126,-14,-87,102,-24,-48,39,43,-112,34
-48,78,126,-14,-87,102,-39,-58,39,48,-107,48
-34,82,117,-24,-75,100,-48,-48,29,43,-97,43
-29,87,117,-29,-73,102,-48,-48,29,39,-97,39
-24,92,117,-34,-70,104,-48,-48,29,34,-97,34
-19,97,117,-39,-68,107,-48,-48,29,29,-97,29
-19,87,107,-34,-63,97,-43,-48,19,29,-107,43
-19,78,97,-29,-58,87,-39,-48,19,29,-107,48
-19,68,87,-24,-53,78,-34,-48,19,29,-107,53
-19,58,78,-19,-48,68,-29,-48,19,29,-107,58
-29,39,68,-4,-48,53,-29,-58,4,19,-122,48
-29,29,58,0,-43,43,-29,-58,0,9,-126,39
-29,19,48,4,-39,34,-29,-58,-4,0,-131,29
-29,9,39,9,-34,24,-29,-58,-9,-9,-136,19
-34,-9,24,21,-29,7,-14,-43,0,-9,-151,9
-39,-19,19,29,-29,0,0,-39,0,-9,-156,9
-43,-29,14,36,-29,-7,14,-34,0,-9,-161,9
-48,-39,9,43,-29,-14,29,-29,0,-9,-165,9
-63,-48,14,56,-39,-17,39,-39,-4,-24,-170,-4
-68,-58,9,63,-39,-24,39,-39,-9,-29,-175,-19
-73,-68,4,70,-39,-31,39,-39,-14,-34,-180,-34
-78,-78,0,78,-39,-39,39,-39,-19,-39,-185,-48
-82,-97,-14,90,-34,-56,48,-43,-34,-53,-200,-58
-87,-107,-19,97,-34,-63,48,-48,-39,-58,-204,-58
-92,-117,-24,104,-34,-70,48,-53,-43,-63,-209,-58
-97,-126,-29,112,-34,-78,48,-58,-48,-68,-214,-58
-107,-136,-29,122,-39,-82,58,-68,-58,-73,-224,-78
-107,-136,-29,122,-39,-82,58,-68,-58,-78,-234,-87
-107,-136,-29,122,-39,-82,58,-68,-58,-82,-244,-97
-107,-136,-29,122,-39,-82,58,-68,-58,-87,-253,-107
-117,-141,-24,129,-46,-82,58,-58,-58,-78,-248,-92
-117,-146,-29,131,-43,-87,58,-58,-58,-78,-244,-87
-117,-151,-34,134,-41,-92,58,-58,-58,-78,-239,-82
-117,-156,-39,136,-39,-97,58,-58,-58,-78,-234,-78
-117,-156,-39,136,-39,-97,68,-58,-68,-82,-239,-92
-117,-156,-39,136,-39,-97,68,-58,-68,-87,-244,-97
-117,-156,-39,136,-39,-97,68,-58,-68,-92,-248,-102
-117,-156,-39,136,-39,-97,68,-58,-68,-97,-253,-107
-117,-161,-43,139,-36,-102,58,-58,-78,-97,-258,-97
-117,-165,-48,141,-34,-107,58,-58,-78,-97,-263,-97
-117,-170,-53,143,-31,-112,58,-58,-78,-97,-268,-97
-117,-175,-58,146,-29,-117,58,-58,-78,-97,-273,-97
-122,-175,-53,148,-34,-114,63,-58,-68,-107,-273,-107
-126,-175,-48,151,-39,-112,68,-58,-68,-107,-273,-107
-131,-175,-43,153,-43,-109,73,-58,-68,-107,-273,-107
-136,-175,-39,156,-48,-107,78,-58,-68,-107,-273,-107
-126,-175,-48,151,-39,-112,78,-48,-68,-102,-263,-102
-126,-175,-48,151,-39,-112,78,-48,-68,-97,-263,-97
-126,-175,-48,151,-39,-112,78,-48,-68,-92,-263,-92
-126,-175,-48,151,-39,-112,78,-48,-68,-87,-263,-87
-107,-175,-68,141,-19,-122,78,-58,-78,-107,-263,-78
-117,-165,-48,141,-34,-107,68,-58,-78,-107,-263,-87
-126,-156,-29,141,-48,-92,68,-68,-78,-107,-253,-87
-126,-136,-9,131,-58,-73,68,-68,-78,-117,-263,-107
-126,-117,9,122,-68,-53,78,-78,-87,-117,-273,-97
-136,-107,29,122,-82,-39,78,-68,-97,-126,-283,-87
-146,-107,39,126,-92,-34,87,-48,-78,-107,-273,-68
-126,-87,39,107,-82,-24,126,9,-9,-48,-234,-29
-107,-87,19,97,-63,-34,156,68,58,0,-195,-9
-107,-136,-29,122,-39,-82,165,117,117,39,-156,-19
-97,-175,-78,136,-9,-126,136,136,165,107,-78,19
-39,-175,-136,107,48,-156,107,146,214,204,39,68
39,-185,-224,73,131,-204,78,156,292,331,185,146
117,-224,-341,53,229,-283,19,156,380,497,351,253
224,-204,-429,-9,326,-317,-58,146,488,692,556,390
341,-126,-468,-107,405,-297,-175,87,585,936,819,575
448,-58,-507,-195,478,-283,-322,-29,595,1141,1024,741
517,-68,-585,-224,551,-326,-429,-165,527,1200,1122,780
556,-146,-702,-204,629,-424,-458,-224,448,1171,1102,741
575,-234,-810,-170,692,-522,-448,-244,400,1073,1005,653
595,-331,-927,-131,761,-629,-429,-253,361,927,849,517
585,-400,-985,-92,785,-692,-419,-302,273,780,692,419
517,-439,-956,-39,736,-697,-439,-429,117,624,517,331
429,-468,-897,19,663,-683,-458,-585,-68,468,361,263
351,-448,-800,48,575,-624,-458,-712,-263,312,214,224
244,-409,-653,82,448,-531,-448,-810,-429,156,68,156
107,-380,-488,136,297,-434,-390,-810,-507,9,-97,58
-29,-380,-351,204,161,-366,-283,-751,-566,-165,-292,-97
-146,-370,-224,258,39,-297,-204,-741,-673,-370,-488,-253
-224,-351,-126,287,-48,-239,-165,-751,-761,-507,-605,-302
-253,-341,-87,297,-82,-214,-126,-722,-771,-556,-624,-292
-263,-322,-58,292,-102,-190,-78,-673,-722,-536,-595,-263
-253,-273,-19,263,-117,-146,-48,-605,-634,-448,-536,-204
-234,-234,0,234,-117,-117,-29,-536,-546,-380,-497,-156
-214,-185,29,200,-122,-78,-39,-458,-458,-331,-448,-146
-185,-117,68,151,-126,-24,-48,-380,-380,-292,-400,-117
-156,-68,87,112,-122,9,-58,-322,-322,-263,-370,-117
-136,-39,97,87,-117,29,-48,-273,-253,-224,-331,-117
-136,-29,107,82,-122,39,-39,-224,-195,-175,-292,-87
-136,-39,97,87,-117,29,-9,-204,-175,-156,-283,-68
-126,-48,78,87,-102,14,9,-185,-156,-117,-273,-39
-107,-68,39,87,-73,-14,39,-136,-126,-97,-263,-19
-107,-87,19,97,-63,-34,68,-97,-107,-97,-253,-29
-107,-97,9,102,-58,-43,58,-82,-92,-102,-263,-43
-107,-97,9,102,-58,-43,58,-78,-87,-107,-263,-48
-107,-97,9,102,-58,-43,58,-73,-82,-112,-263,-53
-107,-97,9,102,-58,-43,58,-68,-78,-117,-263,-58
-97,-87,9,92,-53,-39,58,-58,-63,-107,-248,-48
-97,-87,9,92,-53,-39,58,-58,-58,-97,-244,-39
-97,-87,9,92,-53,-39,58,-58,-53,-87,-239,-29
-97,-87,9,92,-53,-39,58,-58,-48,-78,-234,-19
-87,-87,0,87,-43,-43,68,-43,-43,-87,-224,-29
-87,-87,0,87,-43,-43,68,-39,-39,-87,-224,-29
-87,-87,0,87,-43,-43,68,-34,-34,-87,-224,-29
-87,-87,0,87,-43,-43,68,-29,-29,-87,-224,-29
-87,-82,4,85,-46,-39,68,-24,-14,-73,-219,-14
-87,-78,9,82,-48,-34,68,-19,-9,-68,-214,-9
-87,-73,14,80,-51,-29,68,-14,-4,-63,-209,-4
-87,-68,19,78,-53,-24,68,-9,0,-58,-204,0
-87,-68,19,78,-53,-24,68,-9,0,-63,-204,0
-87,-68,19,78,-53,-24,68,-9,0,-68,-204,0
-87,-68,19,78,-53,-24,68,-9,0,-73,-204,0
-87,-68,19,78,-53,-24,68,-9,0,-78,-204,0
-78,-53,24,65,-51,-14,68,0,4,-73,-195,4
-78,-48,29,63,-53,-9,68,0,9,-68,-195,9
-78,-43,34,61,-56,-4,68,0,14,-63,-195,14
-78,-39,39,58,-58,0,68,0,19,-58,-195,19
-78,-39,39,58,-58,0,68,4,34,-58,-190,9
-78,-39,39,58,-58,0,68,9,39,-58,-185,9
-78,-39,39,58,-58,0,68,14,43,-58,-180,9
-78,-39,39,58,-58,0,68,19,48,-58,-175,9
-68,-24,43,46,-56,9,68,29,53,-43,-170,14
-68,-19,48,43,-58,14,68,29,58,-39,-165,19
-68,-14,53,41,-61,19,68,29,63,-34,-161,24
-68,-9,58,39,-63,24,68,29,68,-29,-156,29
-58,-9,48,34,-53,19,68,43,78,-14,-146,43
-58,-9,48,34,-53,19,68,48,87,-9,-136,48
-58,-9,48,34,-53,19,68,53,97,-4,-126,53
-58,-9,48,34,-53,19,68,58,107,0,-117,58
-48,9,58,19,-53,34,58,73,122,14,-112,73
-48,19,68,14,-58,43,58,78,126,19,-107,87
-48,29,78,9,-63,53,58,82,131,24,-102,102
-48,39,87,4,-68,63,58,87,136,29,-97,117
-39,43,82,-2,-61,63,58,97,151,43,-78,141
-39,48,87,-4,-63,68,58,107,165,58,-68,156
-39,53,92,-7,-65,73,58,117,180,73,-58,170
-39,58,97,-9,-68,78,58,126,195,87,-48,185
-34,82,117,-24,-75,100,53,136,219,97,-34,195
-29,97,126,-34,-78,112,48,146,234,107,-19,204
-24,112,136,-43,-80,124,43,156,248,117,-4,214
-19,126,146,-53,-82,136,39,165,263,126,9,224
-14,131,146,-58,-80,139,39,185,283,146,34,253
-9,136,146,-63,-78,141,39,195,302,165,48,273
-4,141,146,-68,-75,143,39,204,322,185,63,292
0,146,146,-73,-73,146,39,214,341,204,78,312
14,156,141,-85,-63,148,29,229,361,219,92,326
19,165,146,-92,-63,156,29,244,380,234,107,331
24,175,151,-100,-63,163,29,258,400,248,122,336
29,185,156,-107,-63,170,29,273,419,263,136,341
39,209,170,-124,-65,190,19,283,444,283,161,361
48,224,175,-136,-63,200,19,292,458,302,175,380
58,239,180,-148,-61,209,19,302,473,322,190,400
68,253,185,-161,-58,219,19,312,488,341,204,419
78,263,185,-170,-53,224,14,326,497,351,219,409
78,263,185,-170,-53,224,9,331,507,351,224,409
78,263,185,-170,-53,224,4,336,517,351,229,409
78,263,185,-170,-53,224,0,341,527,351,234,409
87,273,185,-180,-48,229,0,341,531,370,248,429
87,283,195,-185,-53,239,0,341,536,380,253,439
87,292,204,-190,-58,248,0,341,541,390,258,448
87,302,214,-195,-63,258,0,341,546,400,263,458
87,307,219,-197,-65,263,-9,341,536,385,263,453
87,312,224,-200,-68,268,-9,341,536,380,263,448
87,317,229,-202,-70,273,-9,341,536,375,263,444
87,322,234,-204,-73,278,-9,341,536,370,263,439
87,312,224,-200,-68,268,-9,336,522,370,253,448
87,312,224,-200,-68,268,-9,331,517,370,253,448
87,312,224,-200,-68,268,-9,326,512,370,253,448
87,312,224,-200,-68,268,-9,322,507,370,253,448
78,302,224,-190,-73,263,-9,312,497,351,244,434
78,302,224,-190,-73,263,-9,302,488,341,244,429
78,302,224,-190,-73,263,-9,292,478,331,244,424
78,302,224,-190,-73,263,-9,283,468,322,244,419
68,287,219,-178,-75,253,-19,268,453,312,239,419
68,283,214,-175,-73,248,-19,253,439,312,234,419
68,278,209,-173,-70,244,-19,239,424,312,229,419
68,273,204,-170,-68,239,-19,224,409,312,224,419
63,253,190,-158,-63,222,-9,214,395,297,209,395
58,244,185,-151,-63,214,-9,204,380,283,195,380
53,234,180,-143,-63,207,-9,195,366,268,180,366
48,224,175,-136,-63,200,-9,185,351,253,165,351
39,214,175,-126,-68,195,-4,165,326,234,151,346
39,204,165,-122,-63,185,0,156,312,224,136,341
39,195,156,-117,-58,175,4,146,297,214,122,336
39,185,146,-112,-53,165,9,136,283,204,107,331
34,170,136,-102,-51,153,14,117,263,180,92,312
29,156,126,-92,-48,141,19,107,244,165,78,302
24,141,117,-82,-46,129,24,97,224,151,63,292
19,126,107,-73,-43,117,29,87,204,136,48,283
14,112,97,-63,-41,104,29,73,185,126,39,283
9,107,97,-58,-43,102,29,68,175,117,29,283
4,102,97,-53,-46,100,29,63,165,107,19,283
0,97,97,-48,-48,97,29,58,156,97,9,283
-9,82,92,-36,-51,87,39,39,141,82,-4,263
-19,68,87,-24,-53,78,39,29,126,68,-19,253
-29,53,82,-12,-56,68,39,19,112,53,-34,244
-39,39,78,0,-58,58,39,9,97,39,-48,234
-39,29,68,4,-53,48,48,0,82,34,-53,244
-39,29,68,4,-53,48,48,0,78,29,-58,244
-39,29,68,4,-53,48,48,0,73,24,-63,244
-39,29,68,4,-53,48,48,0,68,19,-68,244
-43,24,68,9,-56,46,48,-9,48,0,-78,234
-48,19,68,14,-58,43,48,-19,39,-9,-87,224
-53,14,68,19,-61,41,48,-29,29,-19,-97,214
-58,9,68,24,-63,39,48,-39,19,-29,-107,204
-68,4,73,31,-70,39,48,-39,9,-29,-117,209
-68,0,68,34,-68,34,48,-39,9,-29,-117,214
-68,-4,63,36,-65,29,48,-39,9,-29,-117,219
-68,-9,58,39,-63,24,48,-39,9,-29,-117,224
-58,-19,39,39,-48,9,58,-48,4,-43,-126,219
-58,-19,39,39,-48,9,58,-48,0,-48,-126,214
-58,-19,39,39,-48,9,58,-48,-4,-53,-126,209
-58,-19,39,39,-48,9,58,-48,-9,-58,-126,204
-58,-9,48,34,-53,19,58,-58,-9,-58,-136,219
-58,-9,48,34,-53,19,58,-58,-9,-58,-136,224
-58,-9,48,34,-53,19,58,-58,-9,-58,-136,229
-58,-9,48,34,-53,19,58,-58,-9,-58,-136,234
-58,-9,48,34,-53,19,48,-48,-14,-68,-146,224
-58,-9,48,34,-53,19,48,-48,-19,-68,-146,224
-58,-9,48,34,-53,19,48,-48,-24,-68,-146,224
-58,-9,48,34,-53,19,48,-48,-29,-68,-146,224
-58,0,58,29,-58,29,48,-48,-29,-58,-136,234
-58,0,58,29,-58,29,48,-48,-29,-58,-136,234
-58,0,58,29,-58,29,48,-48,-29,-58,-136,234
-58,0,58,29,-58,29,48,-48,-29,-58,-136,234
-58,9,68,24,-63,39,39,-58,-29,-68,-126,239
-58,9,68,24,-63,39,39,-58,-29,-68,-126,244
-58,9,68,24,-63,39,39,-58,-29,-68,-126,248
-58,9,68,24,-63,39,39,-58,-29,-68,-126,253
-48,9,58,19,-53,34,48,-58,-19,-68,-126,253
-48,9,58,19,-53,34,48,-58,-19,-68,-126,253
-48,9,58,19,-53,34,48,-58,-19,-68,-126,253
-48,9,58,19,-53,34,48,-58,-19,-68,-126,253
-58,0,58,29,-58,29,48,-58,-29,-58,-126,244
-58,0,58,29,-58,29,48,-58,-29,-58,-126,244
-58,0,58,29,-58,29,48,-58,-29,-58,-126,244
-58,0,58,29,-58,29,48,-58,-29,-58,-126,244
-58,9,68,24,-63,39,39,-58,-29,-68,-126,239
-58,9,68,24,-63,39,39,-58,-29,-68,-126,234
-58,9,68,24,-63,39,39,-58,-29,-68,-126,229
-58,9,68,24,-63,39,39,-58,-29,-68,-126,224
-58,9,68,24,-63,39,39,-58,-19,-63,-117,234
-58,9,68,24,-63,39,39,-58,-19,-58,-117,234
-58,9,68,24,-63,39,39,-58,-19,-53,-117,234
-58,9,68,24,-63,39,39,-58,-19,-48,-117,234
-68,9,78,29,-73,43,39,-68,-24,-53,-122,224
-68,9,78,29,-73,43,39,-68,-29,-58,-126,214
-68,9,78,29,-73,43,39,-68,-34,-63,-131,204
-68,9,78,29,-73,43,39,-68,-39,-68,-136,195
-58,9,68,24,-63,39,39,-68,-39,-48,-117,234
-58,19,78,19,-68,48,39,-68,-39,-48,-117,224
-68,19,87,24,-78,53,39,-68,-39,-53,-117,219
-68,19,87,24,-78,53,39,-68,-39,-58,-117,214
-68,19,87,24,-78,53,39,-68,-39,-63,-117,209
-68,19,87,24,-78,53,39,-68,-39,-68,-117,204
-63,39,102,12,-82,70,39,-63,-29,-53,-112,209
-58,53,112,2,-85,82,43,-63,-24,-39,-102,224
-53,58,112,-2,-82,85,48,-58,-24,-39,-102,229
-43,68,112,-12,-78,90,48,-58,-24,-34,-97,229
-53,63,117,-4,-85,90,39,-63,-24,-34,-107,234
-53,78,131,-12,-92,104,39,-63,-19,-39,-107,234
-48,87,136,-19,-92,112,39,-58,-9,-43,-97,239
-39,92,131,-26,-85,112,39,-58,-9,-43,-97,239
-29,97,126,-34,-78,112,48,-53,-4,-39,-87,239
-29,107,136,-39,-82,122,48,-48,0,-29,-82,244
-24,112,136,-43,-80,124,53,-48,0,-24,-82,253
-24,117,141,-46,-82,129,53,-48,-4,-19,-82,253
-24,117,141,-46,-82,129,43,-48,-14,-19,-82,258
-24,117,141,-46,-82,129,43,-48,-14,-24,-82,248
-24,117,141,-46,-82,129,43,-48,-14,-24,-87,248
-24,117,141,-46,-82,129,43,-48,-14,-24,-92,248
-24,117,141,-46,-82,129,43,-48,-14,-24,-102,248
-24,126,151,-51,-87,139,39,-48,-4,-29,-97,248
-24,131,156,-53,-90,143,29,-48,-4,-24,-92,263
-19,141,161,-61,-90,151,19,-53,-4,-24,-78,268
-19,146,165,-63,-92,156,9,-73,-14,-24,-73,263
-19,161,180,-70,-100,170,-14,-87,-24,-19,-68,263
-14,161,175,-73,-95,168,-39,-102,-24,-19,-68,278
-19,161,180,-70,-100,170,-58,-117,-29,-29,-68,278
-4,165,170,-80,-87,168,-78,-126,-29,-29,-58,283
0,165,165,-82,-82,165,-78,-126,-29,-29,-53,287
4,165,161,-85,-78,163,-68,-117,-19,-19,-48,297
19,170,151,-95,-65,161,-63,-107,-19,-19,-48,307
19,161,141,-90,-61,151,-53,-107,-29,-9,-39,312
19,141,122,-80,-51,131,-48,-107,-39,-9,-43,317
24,136,112,-80,-43,124,-48,-107,-43,-24,-48,312
24,117,92,-70,-34,104,-48,-107,-43,-29,-53,307
24,102,78,-63,-26,90,-58,-102,-48,-43,-58,297
19,97,78,-58,-29,87,-53,-112,-53,-58,-68,292
9,78,68,-43,-29,73,-48,-112,-58,-58,-78,292
4,73,68,-39,-31,70,-43,-112,-73,-68,-82,283
0,73,73,-36,-36,73,-39,-112,-73,-68,-92,292
-4,53,58,-24,-31,56,-24,-112,-78,-68,-97,287
-9,39,48,-14,-29,43,-14,-102,-78,-73,-97,287
-14,39,53,-12,-34,46,-4,-102,-78,-73,-97,278
-24,39,63,-7,-43,51,9,-92,-78,-92,-107,258
-43,34,78,4,-61,56,14,-92,-82,-97,-122,248
-53,24,78,14,-65,51,19,-97,-82,-107,-136,239
-58,14,73,21,-65,43,19,-112,-92,-117,-141,234
-58,-4,53,31,-56,24,24,-112,-97,-117,-151,239
-63,-14,48,39,-56,17,24,-117,-112,-117,-151,234
-68,-24,43,46,-56,9,24,-117,-122,-122,-165,234
-73,-39,34,56,-53,-2,24,-112,-122,-122,-165,229
-73,-48,24,61,-48,-12,19,-122,-136,-131,-170,219
-73,-48,24,61,-48,-12,19,-126,-136,-141,-175,204
-73,-58,14,65,-43,-21,19,-126,-136,-146,-175,200
-73,-63,9,68,-41,-26,19,-126,-141,-151,-175,195
-68,-68,0,68,-34,-34,29,-126,-136,-136,-180,209
-68,-73,-4,70,-31,-39,34,-126,-136,-131,-175,214
-73,-78,-4,75,-34,-41,43,-126,-136,-126,-170,219
-73,-78,-4,75,-34,-41,43,-126,-136,-131,-165,224
-73,-63,9,68,-41,-26,39,-126,-146,-141,-185,204
-78,-63,14,70,-46,-24,39,-126,-146,-151,-190,195
-78,-68,9,73,-43,-29,39,-126,-146,-161,-195,180
-73,-68,4,70,-39,-31,39,-131,-151,-170,-204,170
-82,-68,14,75,-48,-26,48,-131,-151,-156,-200,185
-82,-73,9,78,-46,-31,53,-131,-151,-151,-195,190
-92,-82,9,87,-51,-36,53,-126,-151,-151,-190,195
-92,-87,4,90,-48,-41,58,-126,-151,-146,-185,200
-82,-87,-4,85,-39,-46,48,-117,-151,-161,-195,195
-82,-87,-4,85,-39,-46,48,-117,-151,-165,-200,180
-82,-87,-4,85,-39,-46,48,-122,-151,-180,-200,175
-82,-87,-4,85,-39,-46,48,-122,-151,-185,-204,170
-73,-82,-9,78,-31,-46,48,-126,-151,-170,-195,190
-73,-82,-9,78,-31,-46,48,-126,-151,-161,-195,195
-73,-87,-14,80,-29,-51,48,-126,-151,-156,-195,195
-73,-87,-14,80,-29,-51,48,-126,-151,-156,-195,195
-87,-78,9,82,-48,-34,48,-126,-161,-180,-204,170
-78,-58,19,68,-48,-19,58,-126,-161,-200,-214,146
-68,-68,0,68,-34,-34,58,-126,-151,-190,-204,136
-78,-73,4,75,-41,-34,58,-141,-156,-180,-204,156
-97,-43,53,70,-75,4,43,-165,-175,-195,-209,156
-107,-19,87,63,-97,34,39,-185,-195,-185,-200,190
-97,-4,92,51,-95,43,39,-185,-204,-170,-204,209
-102,4,107,48,-104,56,39,-161,-200,-180,-200,200
-102,19,122,41,-112,70,53,-122,-165,-165,-185,200
-97,19,117,39,-107,68,78,-63,-102,-131,-156,200
-73,29,102,21,-87,65,97,-14,-34,-87,-117,204
-63,9,73,26,-68,41,117,24,48,-4,-39,239
-24,4,29,9,-26,17,92,39,117,92,58,292
48,9,-39,-29,43,-14,58,43,185,244,200,385
122,-19,-141,-51,131,-80,24,43,273,409,351,488
200,-48,-248,-75,224,-148,-39,53,375,566,512,546
331,-29,-361,-151,346,-195,-146,68,522,785,717,649
473,39,-434,-256,453,-197,-283,4,629,1000,956,790
580,87,-492,-334,536,-202,-434,-107,639,1132,1117,873
644,43,-600,-344,622,-278,-512,-214,600,1176,1171,902
673,-48,-722,-312,697,-385,-536,-263,551,1151,1132,868
692,-146,-839,-273,766,-492,-527,-283,507,1039,1005,790
683,-258,-941,-212,812,-600,-507,-302,429,888,829,663
649,-351,-1000,-148,824,-675,-517,-370,307,702,634,531
605,-405,-1010,-100,807,-707,-546,-492,151,512,453,429
527,-458,-985,-34,756,-722,-556,-629,-53,317,273,336
419,-458,-878,19,649,-668,-566,-766,-287,97,107,244
302,-419,-722,58,512,-570,-546,-858,-439,-48,-19,195
141,-409,-551,134,346,-480,-473,-873,-527,-180,-151,146
-34,-405,-370,219,168,-387,-361,-849,-629,-331,-326,48
-141,-346,-204,244,31,-275,-258,-839,-741,-463,-458,0
-170,-287,-117,229,-26,-202,-190,-819,-819,-556,-517,-4
-175,-239,-63,207,-56,-151,-151,-790,-834,-605,-536,-29
-175,-209,-34,192,-70,-122,-126,-751,-780,-585,-517,-34
-165,-151,14,158,-90,-68,-136,-673,-688,-522,-463,-19
-141,-78,63,109,-102,-7,-136,-570,-585,-468,-385,9
-126,-29,97,78,-112,34,-112,-468,-483,-390,-322,73
-122,-14,107,68,-114,46,-87,-390,-390,-326,-278,107
-112,14,126,48,-119,70,-68,-336,-322,-258,-229,161
-92,39,131,26,-112,85,-43,-297,-278,-200,-200,200
-87,43,131,21,-109,87,-29,-278,-263,-190,-190,190
-78,34,112,21,-95,73,-4,-248,-244,-185,-195,170
-58,14,73,21,-65,43,4,-214,-229,-200,-209,151
-48,-19,29,34,-39,4,24,-175,-214,-224,-214,126
-63,-29,34,46,-48,2,19,-161,-200,-234,-214,126
-63,-24,39,43,-51,7,29,-141,-175,-214,-209,146
-53,-9,43,31,-48,17,29,-131,-156,-190,-190,156
-43,0,43,21,-43,21,29,-126,-151,-175,-185,170
-43,9,53,17,-48,31,29,-126,-141,-161,-180,185
-58,4,63,26,-61,34,29,-122,-146,-170,-180,170
-58,0,58,29,-58,29,34,-122,-156,-170,-175,165
-58,0,58,29,-58,29,34,-112,-161,-180,-175,161
-58,-4,53,31,-56,24,39,-107,-165,-180,-175,151
-48,4,53,21,-51,29,48,-102,-151,-170,-170,156
-48,4,53,21,-51,29,48,-92,-136,-161,-165,161
-48,14,63,17,-56,39,48,-92,-122,-146,-161,180
-39,14,53,12,-46,34,48,-87,-112,-136,-156,185
-43,9,53,17,-48,31,39,-87,-122,-146,-165,175
-48,4,53,21,-51,29,39,-87,-126,-146,-161,175
-53,4,58,24,-56,31,39,-87,-126,-151,-161,175
-58,4,63,26,-61,34,48,-78,-122,-156,-161,175
-53,14,68,19,-61,41,39,-73,-117,-156,-146,195
-48,14,63,17,-56,39,39,-68,-112,-151,-141,200
-39,14,53,12,-46,34,43,-63,-102,-131,-136,209
-24,14,39,4,-31,26,43,-53,-87,-126,-131,214
-34,24,58,4,-46,41,34,-58,-87,-126,-126,209
-34,24,58,4,-46,41,34,-58,-82,-126,-126,214
-34,24,58,4,-46,41,34,-53,-82,-126,-126,214
-34,24,58,4,-46,41,34,-53,-82,-126,-126,214
-34,39,73,-2,-53,56,34,-43,-63,-136,-122,214
-34,48,82,-7,-58,65,39,-39,-58,-126,-117,219
-29,48,78,-9,-53,63,39,-24,-43,-122,-107,219
-29,48,78,-9,-53,63,34,-19,-34,-107,-97,224
-14,63,78,-24,-46,70,43,-4,-19,-92,-92,244
-4,73,78,-34,-41,75,43,0,-14,-87,-92,253
-4,78,82,-36,-43,80,43,4,-14,-82,-78,253
-4,87,92,-41,-48,90,43,14,-4,-82,-73,253
-14,92,107,-39,-61,100,34,9,-4,-82,-82,253
-14,97,112,-41,-63,104,39,24,4,-78,-82,253
-14,102,117,-43,-65,109,39,34,9,-68,-68,258
-9,107,117,-48,-63,112,39,43,24,-58,-68,253
-9,102,112,-46,-61,107,39,58,43,-39,-48,268
-4,107,112,-51,-58,109,39,73,53,-24,-34,283
0,117,117,-58,-58,117,39,82,73,-9,-29,302
9,126,117,-68,-53,122,39,92,82,0,-19,307
14,141,126,-78,-56,134,39,107,107,-4,-4,312
19,146,126,-82,-53,136,39,117,122,9,4,317
19,151,131,-85,-56,141,39,126,136,29,19,336
19,161,141,-90,-61,151,39,141,151,39,29,336
29,185,156,-107,-63,170,29,151,175,58,43,366
34,195,161,-114,-63,178,24,165,180,78,58,380
39,219,180,-129,-70,200,24,175,204,102,78,405
48,224,175,-136,-63,200,24,195,224,122,78,424
43,234,190,-139,-73,212,14,204,244,122,97,419
43,239,195,-141,-75,217,14,214,253,126,107,424
48,248,200,-148,-75,224,14,229,268,131,117,429
63,253,190,-158,-63,222,14,239,283,151,131,439
73,283,209,-178,-68,246,24,273,307,170,151,473
82,307,224,-195,-70,265,19,287,326,209,170,502
92,317,224,-204,-65,270,19,302,346,229,190,522
107,341,234,-224,-63,287,19,317,361,244,209,536
107,341,234,-224,-63,287,9,326,375,253,214,536
107,351,244,-229,-68,297,4,336,395,263,224,531
112,346,234,-229,-61,290,4,331,409,268,234,541
112,346,234,-229,-61,290,4,341,419,278,253,556
117,366,248,-241,-65,307,4,361,444,307,263,561
122,380,258,-251,-68,319,4,370,458,322,278,580
122,390,268,-256,-73,329,-4,370,468,341,287,585
126,395,268,-261,-70,331,-4,375,473,346,297,590
131,400,268,-265,-68,334,0,375,463,336,297,585
131,400,268,-265,-68,334,0,385,468,331,292,575
136,400,263,-268,-63,331,0,385,473,331,292,570
146,405,258,-275,-56,331,0,385,473,331,302,566
141,409,268,-275,-63,339,-4,375,473,351,312,580
141,409,268,-275,-63,339,-4,375,473,351,307,580
141,405,263,-273,-61,334,-4,375,478,346,307,580
141,405,263,-273,-61,334,-4,370,478,341,307,570
141,409,268,-275,-63,339,-4,366,453,331,297,546
141,409,268,-275,-63,339,-4,366,448,322,297,531
141,405,263,-273,-61,334,-4,361,448,307,292,522
141,405,263,-273,-61,334,-4,351,444,302,287,512
136,400,263,-268,-63,331,-9,351,439,307,278,522
131,390,258,-261,-63,324,-9,346,424,302,273,522
131,385,253,-258,-61,319,-9,336,414,297,268,507
131,385,253,-258,-61,319,-9,326,405,292,263,502
122,370,248,-246,-63,309,0,307,390,278,263,483
122,351,229,-236,-53,290,0,292,380,263,253,473
122,341,219,-231,-48,280,0,273,356,244,244,468
112,336,224,-224,-56,280,0,258,341,229,239,458
117,326,209,-222,-46,268,0,253,322,224,209,444
117,317,200,-217,-41,258,0,239,302,214,190,429
117,302,185,-209,-34,244,0,224,283,209,175,414
107,287,180,-197,-36,234,0,204,268,190,161,400
92,278,185,-185,-46,231,0,190,244,170,151,385
92,268,175,-180,-41,222,0,165,229,146,141,361
92,268,175,-180,-41,222,0,151,209,122,122,346
82,253,170,-168,-43,212,0,141,185,97,112,326
68,234,165,-151,-48,200,9,126,165,82,97,322
58,214,156,-136,-48,185,14,107,136,68,82,312
48,200,151,-124,-51,175,19,92,117,58,63,312
43,180,136,-112,-46,158,24,73,107,43,53,307
53,165,112,-109,-29,139,14,68,87,29,53,287
43,161,117,-102,-36,139,14,53,78,19,39,283
39,146,107,-92,-34,126,19,43,63,4,24,263
34,136,102,-85,-34,119,19,43,53,-14,19,253
24,126,102,-75,-39,114,9,19,39,-34,0,248
14,117,102,-65,-43,109,9,9,19,-43,-24,239
4,112,107,-58,-51,109,14,-4,4,-43,-29,234
-9,102,112,-46,-61,107,14,-24,-14,-43,-43,224
-9,87,97,-39,-53,92,9,-29,-24,-73,-43,209
-9,87,97,-39,-53,92,9,-29,-29,-87,-48,209
-4,92,97,-43,-51,95,9,-29,-39,-92,-63,204
0,92,92,-46,-46,92,9,-29,-39,-102,-68,195
-9,97,107,-43,-58,102,19,-39,-58,-112,-68,200
-9,92,102,-41,-56,97,14,-43,-63,-112,-73,200
-14,87,102,-36,-58,95,14,-48,-73,-107,-73,204
-14,82,97,-34,-56,90,14,-53,-73,-107,-78,209
-14,68,82,-26,-48,75,14,-58,-73,-117,-97,195
-14,63,78,-24,-46,70,14,-63,-78,-131,-97,195
-19,63,82,-21,-51,73,14,-68,-92,-141,-97,190
-19,63,82,-21,-51,73,14,-73,-97,-161,-102,180
-19,68,87,-24,-53,78,4,-78,-112,-165,-107,185
-19,68,87,-24,-53,78,4,-82,-117,-165,-107,190
-19,63,82,-21,-51,73,4,-82,-117,-165,-107,195
-19,63,82,-21,-51,73,9,-82,-117,-156,-107,200
-34,58,92,-12,-63,75,9,-87,-122,-161,-122,190
-34,58,92,-12,-63,75,4,-92,-126,-165,-122,200
-34,58,92,-12,-63,75,4,-92,-126,-170,-122,190
-34,63,97,-14,-65,80,4,-92,-126,-185,-122,180
-29,68,97,-19,-63,82,4,-92,-136,-190,-112,190
-24,68,92,-21,-58,80,4,-92,-136,-190,-112,204
-24,73,97,-24,-61,85,4,-92,-136,-190,-112,214
-19,78,97,-29,-58,87,4,-92,-131,-185,-107,214
-24,68,92,-21,-58,80,4,-97,-131,-190,-117,209
-29,63,92,-17,-61,78,4,-97,-136,-195,-122,204
-34,58,92,-12,-63,75,4,-97,-136,-204,-126,200
-39,58,97,-9,-68,78,-4,-102,-141,-214,-126,185
-39,48,87,-4,-63,68,0,-112,-141,-214,-117,185
-43,48,92,-2,-68,70,0,-107,-141,-214,-117,195
-43,53,97,-4,-70,75,-4,-107,-141,-214,-107,200
-39,53,92,-7,-65,73,-9,-107,-141,-209,-102,200
-24,58,82,-17,-53,70,0,-97,-136,-209,-112,219
-24,63,87,-19,-56,75,0,-97,-136,-209,-112,219
-29,68,97,-19,-63,82,0,-97,-136,-214,-117,214
-34,73,107,-19,-70,90,0,-102,-136,-234,-122,209
-43,73,117,-14,-80,95,0,-102,-141,-253,-122,185
-43,73,117,-14,-80,95,-4,-107,-146,-253,-122,185
-39,73,112,-17,-75,92,-9,-107,-151,-253,-117,190
-39,73,112,-17,-75,92,-9,-107,-156,-253,-117,195
-39,82,122,-21,-80,102,-4,-107,-156,-248,-117,190
-39,82,122,-21,-80,102,-4,-107,-156,-248,-122,195
-39,82,122,-21,-80,102,-9,-107,-156,-253,-126,180
-43,82,126,-19,-85,104,-9,-107,-156,-258,-126,170
-43,82,126,-19,-85,104,0,-107,-146,-273,-117,165
-39,78,117,-19,-78,97,0,-107,-151,-273,-112,161
-39,78,117,-19,-78,97,0,-107,-151,-273,-107,161
-43,78,122,-17,-82,100,0,-107,-151,-273,-107,161
-43,68,112,-12,-78,90,-9,-112,-161,-273,-112,165
-43,68,112,-12,-78,90,-9,-112,-161,-273,-117,165
-39,68,107,-14,-73,87,-4,-107,-161,-278,-117,156
-39,68,107,-14,-73,87,-4,-107,-161,-283,-117,156
-39,97,136,-29,-87,117,-14,-122,-161,-312,-126,126
-29,97,126,-34,-78,112,-9,-112,-161,-307,-131,126
-39,87,126,-24,-82,107,-9,-117,-165,-302,-126,146
-39,87,126,-24,-82,107,-19,-117,-175,-302,-126,156
-39,87,126,-24,-82,107,-19,-117,-175,-302,-126,156
-39,87,126,-24,-82,107,-19,-117,-175,-302,-126,156
-39,87,126,-24,-82,107,-19,-117,-175,-302,-126,156
-29,112,141,-41,-85,126,-9,-112,-161,-302,-112,156
-29,122,151,-46,-90,136,-4,-112,-151,-292,-102,165
-29,122,151,-46,-90,136,0,-107,-146,-297,-102,165
-24,126,151,-51,-87,139,0,-107,-141,-297,-97,161
-34,126,161,-46,-97,143,-9,-102,-151,-283,-97,170
-34,136,170,-51,-102,153,-9,-102,-146,-283,-97,175
-29,141,170,-56,-100,156,-9,-97,-136,-283,-87,185
-19,141,161,-61,-90,151,-9,-97,-136,-278,-87,190
-9,146,156,-68,-82,151,-9,-102,-131,-283,-87,175
-9,156,165,-73,-87,161,-9,-97,-126,-283,-82,175
-4,161,165,-78,-85,163,-4,-97,-126,-287,-82,180
-4,165,170,-80,-87,168,-4,-97,-131,-292,-82,175
4,175,170,-90,-82,173,-4,-97,-141,-292,-92,175
4,175,170,-90,-82,173,-4,-97,-141,-297,-92,170
4,175,170,-90,-82,173,-4,-97,-141,-297,-97,175
4,175,170,-90,-82,173,-4,-97,-141,-297,-102,180
-4,175,180,-85,-92,178,4,-97,-141,-297,-92,175
-4,185,190,-90,-97,187,0,-97,-131,-302,-87,170
-4,190,195,-92,-100,192,-9,-97,-131,-297,-82,180
0,200,200,-100,-100,200,-19,-102,-131,-297,-68,180
4,214,209,-109,-102,212,-39,-117,-122,-292,-63,190
9,229,219,-119,-104,224,-63,-126,-131,-283,-58,195
19,229,209,-124,-95,219,-87,-136,-131,-278,-58,214
19,229,209,-124,-95,219,-107,-146,-136,-283,-58,219
14,209,195,-112,-90,202,-117,-156,-146,-292,-68,209
19,204,185,-112,-82,195,-117,-156,-146,-292,-63,209
24,200,175,-112,-75,187,-107,-146,-136,-283,-58,214
39,200,161,-119,-61,180,-102,-136,-136,-283,-58,219
58,209,151,-134,-46,180,-112,-136,-136,-292,-58,229
58,190,131,-124,-36,161,-107,-136,-146,-292,-63,229
63,185,122,-124,-29,153,-107,-136,-151,-307,-68,219
63,165,102,-114,-19,134,-107,-136,-151,-312,-73,209
53,151,97,-102,-21,124,-107,-131,-156,-317,-78,190
48,146,97,-97,-24,122,-102,-141,-161,-331,-87,185
39,126,87,-82,-24,107,-97,-141,-165,-331,-97,185
34,122,87,-78,-26,104,-92,-141,-180,-341,-102,175
29,131,102,-80,-36,117,-78,-141,-180,-331,-92,175
24,112,87,-68,-31,100,-63,-141,-185,-331,-97,170
19,97,78,-58,-29,87,-53,-131,-185,-336,-97,170
14,97,82,-56,-34,90,-43,-131,-185,-336,-97,161
4,92,87,-48,-41,90,-29,-122,-175,-346,-107,156
-14,82,97,-34,-56,90,-24,-122,-180,-351,-122,151
-24,68,92,-21,-58,80,-19,-126,-180,-361,-136,146
-29,53,82,-12,-56,68,-19,-141,-190,-370,-141,146
-19,53,73,-17,-46,63,-4,-141,-195,-375,-141,136
-24,43,68,-9,-46,56,-4,-146,-209,-380,-141,126
-29,34,63,-2,-46,48,-4,-146,-219,-390,-156,122
-34,19,53,7,-43,36,-4,-141,-219,-395,-156,112
-39,9,48,14,-43,29,-9,-141,-229,-390,-165,117
-43,9,53,17,-48,31,-9,-146,-234,-395,-175,107
-48,0,48,24,-48,24,-9,-146,-239,-395,-180,107
-53,-4,48,29,-51,21,-9,-146,-248,-395,-185,107
-58,-19,39,39,-48,9,-19,-156,-244,-400,-195,92
-58,-24,34,41,-46,4,-14,-156,-244,-405,-195,87
-63,-29,34,46,-48,2,-4,-156,-244,-409,-195,82
-63,-29,34,46,-48,2,-4,-156,-244,-424,-195,78
-53,-19,34,36,-43,7,0,-156,-244,-414,-190,92
-58,-14,43,36,-51,14,0,-156,-244,-414,-190,97
-58,-14,43,36,-51,14,0,-156,-244,-414,-190,97
-53,-9,43,31,-48,17,0,-161,-248,-414,-195,102
-53,-14,39,34,-46,12,0,-161,-258,-419,-195,97
-53,-24,29,39,-41,2,4,-161,-258,-424,-195,92
-63,-39,24,51,-43,-7,4,-156,-258,-434,-195,87
-63,-48,14,56,-39,-17,9,-156,-258,-439,-195,82
-53,-39,14,46,-34,-12,9,-156,-258,-434,-195,97
-53,-39,14,46,-34,-12,9,-156,-258,-429,-200,92
-53,-39,14,46,-34,-12,9,-161,-258,-434,-200,97
-53,-39,14,46,-34,-12,9,-161,-258,-429,-204,102
-53,-24,29,39,-41,2,9,-156,-248,-439,-204,92
-53,-24,29,39,-41,2,9,-156,-248,-434,-204,87
-53,-29,24,41,-39,-2,9,-156,-248,-434,-204,78
-53,-29,24,41,-39,-2,9,-156,-248,-439,-204,68
-48,-48,0,48,-24,-24,19,-146,-239,-424,-195,92
-68,-58,9,63,-39,-24,9,-146,-248,-414,-195,107
-78,-39,39,58,-58,0,0,-165,-268,-434,-204,78
-58,4,63,26,-61,34,9,-170,-263,-434,-204,87
-58,24,82,17,-70,53,4,-185,-263,-429,-180,97
-78,39,117,19,-97,78,-9,-204,-283,-448,-190,82
-78,63,141,7,-109,102,-9,-214,-302,-453,-175,102
-73,82,156,-4,-114,119,9,-200,-287,-434,-161,122
-73,78,151,-2,-112,114,34,-151,-253,-400,-146,151
-58,97,156,-19,-107,126,58,-102,-200,-356,-117,180
-53,97,151,-21,-102,124,68,-63,-141,-302,-87,185
-43,87,131,-21,-87,109,68,-34,-68,-239,-29,190
-4,92,97,-43,-51,95,53,-9,19,-151,58,224
58,87,29,-73,14,58,29,24,117,-48,170,258
141,39,-102,-90,122,-31,-4,82,253,78,292,302
229,9,-219,-119,224,-104,-48,151,395,244,424,370
361,9,-351,-185,356,-170,-126,204,561,444,590,453
502,48,-453,-275,478,-202,-273,200,697,658,800,605
629,68,-561,-348,595,-246,-424,107,746,819,951,717
712,24,-688,-368,700,-331,-522,0,727,854,995,707
761,-97,-858,-331,810,-478,-566,-68,658,780,936,644
751,-224,-976,-263,863,-600,-585,-107,566,600,761,497
751,-336,-1088,-207,919,-712,-566,-136,468,380,546,322
746,-419,-1166,-163,956,-793,-566,-185,366,214,361,209
712,-473,-1185,-119,949,-829,-605,-307,209,43,209,136
624,-536,-1161,-43,893,-849,-644,-492,-24,-112,48,73
497,-556,-1054,29,775,-805,-644,-707,-268,-263,-78,48
390,-527,-917,68,653,-722,-634,-849,-448,-390,-156,39
258,-488,-746,114,502,-617,-580,-893,-566,-492,-239,0
82,-434,-517,175,300,-475,-458,-897,-668,-624,-356,-78
-73,-366,-292,219,109,-329,-356,-878,-771,-756,-468,-146
-151,-307,-156,229,2,-231,-287,-849,-849,-819,-517,-151
-165,-258,-92,212,-36,-175,-248,-839,-893,-849,-527,-126
-156,-190,-34,173,-61,-112,-224,-790,-839,-800,-488,-92
-136,-112,24,124,-80,-43,-224,-683,-707,-678,-405,-9
-112,-48,63,80,-87,7,-204,-580,-605,-595,-346,39
-97,0,97,48,-97,48,-170,-488,-531,-566,-302,53
-92,24,117,34,-104,70,-146,-409,-468,-531,-268,68
-82,34,117,24,-100,75,-126,-346,-400,-512,-229,63
-63,48,112,7,-87,80,-92,-307,-356,-483,-200,73
-48,63,112,-7,-80,87,-78,-278,-331,-444,-190,92
-39,53,92,-7,-65,73,-53,-258,-302,-419,-185,112
-29,63,92,-17,-61,78,-24,-224,-287,-385,-170,141
-39,48,87,-4,-63,68,-14,-195,-283,-370,-165,156
-63,19,82,21,-73,51,-9,-180,-278,-380,-185,136
-53,9,63,21,-58,36,-9,-161,-263,-380,-175,131
-43,19,63,12,-53,41,-9,-151,-244,-375,-161,126
-34,24,58,4,-46,41,-9,-146,-239,-380,-161,126
-34,29,63,2,-48,46,-9,-146,-229,-385,-161,126
-29,39,68,-4,-48,53,-9,-151,-229,-375,-151,141
-29,39,68,-4,-48,53,-4,-151,-234,-366,-146,146
-29,43,73,-7,-51,58,-4,-141,-234,-366,-146,151
-29,43,73,-7,-51,58,0,-136,-234,-356,-146,151
-29,43,73,-7,-51,58,0,-112,-214,-366,-131,141
-29,43,73,-7,-51,58,0,-102,-204,-356,-126,141
-29,53,82,-12,-56,68,0,-102,-195,-341,-122,156
-19,53,73,-17,-46,63,0,-97,-190,-331,-117,156
-9,43,53,-17,-31,48,0,-107,-190,-326,-117,161
-9,43,53,-17,-31,48,0,-107,-195,-322,-112,165
-9,48,58,-19,-34,53,0,-107,-195,-322,-112,170
-9,53,63,-21,-36,58,9,-97,-190,-322,-112,175
-19,53,73,-17,-46,63,0,-92,-195,-322,-107,170
-19,53,73,-17,-46,63,0,-87,-190,-317,-102,170
-14,53,68,-19,-41,61,4,-82,-180,-297,-97,175
-4,53,58,-24,-31,56,4,-73,-165,-292,-92,175
4,73,68,-39,-31,70,14,-68,-156,-273,-78,185
4,73,68,-39,-31,70,14,-68,-151,-273,-78,195
4,73,68,-39,-31,70,14,-63,-151,-273,-78,200
4,73,68,-39,-31,70,14,-63,-151,-273,-78,204
4,78,73,-41,-34,75,4,-43,-141,-273,-82,204
4,87,82,-46,-39,85,9,-39,-136,-263,-78,209
9,87,78,-48,-34,82,9,-24,-122,-258,-68,209
9,87,78,-48,-34,82,4,-19,-112,-244,-58,214
4,97,92,-51,-43,95,4,-24,-97,-229,-63,214
14,102,87,-58,-36,95,4,-19,-92,-224,-63,224
14,102,87,-58,-36,95,4,-14,-92,-219,-48,224
14,107,92,-61,-39,100,4,-4,-82,-219,-43,224
24,122,97,-73,-36,109,14,9,-78,-214,-34,239
24,126,102,-75,-39,114,19,24,-63,-204,-34,244
24,131,107,-78,-41,119,19,34,-53,-190,-19,253
29,136,107,-82,-39,122,19,43,-34,-175,-19,253
29,136,107,-82,-39,122,19,48,-24,-161,-9,258
34,136,102,-85,-34,119,19,63,-14,-151,4,273
39,141,102,-90,-31,122,19,73,4,-141,9,292
48,146,97,-97,-24,122,19,82,14,-136,19,297
53,175,122,-114,-34,148,19,102,39,-126,34,307
58,185,126,-122,-34,156,19,117,53,-107,43,317
58,195,136,-126,-39,165,19,131,68,-82,58,341
58,209,151,-134,-46,180,19,151,82,-68,68,346
68,224,156,-146,-43,190,19,161,107,-53,78,361
73,224,151,-148,-39,187,14,175,112,-39,97,370
78,239,161,-158,-41,200,14,185,136,-19,122,390
87,234,146,-161,-29,190,14,204,156,-4,126,405
82,258,175,-170,-46,217,4,219,170,14,151,429
82,268,185,-175,-51,226,4,234,185,29,165,444
87,283,195,-185,-53,239,4,253,204,43,180,458
102,292,190,-197,-43,241,4,268,224,73,200,478
117,312,195,-214,-39,253,14,292,248,92,204,488
122,326,204,-224,-41,265,9,307,268,122,219,502
126,326,200,-226,-36,263,9,322,287,131,234,507
136,341,204,-239,-34,273,9,336,302,136,248,507
141,346,204,-244,-31,275,9,351,322,165,268,522
146,361,214,-253,-34,287,4,366,346,185,283,531
156,361,204,-258,-24,283,4,366,366,200,297,556
161,366,204,-263,-21,285,4,380,380,219,322,585
165,385,219,-275,-26,302,4,400,385,229,322,575
170,400,229,-285,-29,314,4,409,400,234,326,580
170,409,239,-290,-34,324,-4,409,409,244,326,570
175,414,239,-295,-31,326,-4,414,414,239,326,561
180,409,229,-295,-24,319,0,414,414,248,341,570
180,409,229,-295,-24,319,0,424,419,253,341,575
185,409,224,-297,-19,317,0,424,424,263,346,585
195,414,219,-305,-12,317,0,424,424,273,361,595
190,429,239,-309,-24,334,4,434,424,278,351,590
190,429,239,-309,-24,334,4,434,424,273,346,580
190,424,234,-307,-21,329,4,434,429,263,346,570
190,424,234,-307,-21,329,4,429,429,253,346,551
180,409,229,-295,-24,319,14,434,424,253,356,561
180,409,229,-295,-24,319,14,434,419,253,356,561
180,405,224,-292,-21,314,14,429,419,248,351,566
180,405,224,-292,-21,314,14,419,414,253,346,570
180,409,229,-295,-24,319,9,400,409,234,341,566
180,400,219,-290,-19,309,9,395,395,224,331,561
185,395,209,-290,-12,302,9,385,385,214,322,541
190,395,204,-292,-7,300,9,375,375,204,312,531
185,380,195,-283,-4,287,9,356,356,209,302,531
180,361,180,-270,0,270,9,341,351,195,292,522
175,351,175,-263,0,263,9,322,331,175,283,517
161,346,185,-253,-12,265,9,307,322,161,278,507
161,331,170,-246,-4,251,9,302,302,151,268,483
156,317,161,-236,-2,239,9,287,283,136,248,468
151,297,146,-224,2,222,9,273,263,126,234,453
136,278,141,-207,-2,209,9,253,248,102,219,439
131,263,131,-197,0,197,9,229,214,97,209,448
131,248,117,-190,7,183,9,204,200,78,200,429
131,244,112,-187,9,178,9,190,180,58,180,419
122,224,102,-173,9,163,9,180,156,39,170,405
117,219,102,-168,7,161,4,165,146,29,156,375
107,204,97,-156,4,151,4,146,117,9,141,361
97,195,97,-146,0,146,4,131,97,-4,122,356
92,180,87,-136,2,134,4,112,87,-24,112,346
82,165,82,-124,0,124,-4,97,53,-29,92,346
73,161,87,-117,-7,124,-4,73,39,-39,78,341
68,146,78,-107,-4,112,0,53,19,-53,63,322
63,136,73,-100,-4,104,0,43,4,-73,58,312
63,131,68,-97,-2,100,0,34,4,-92,53,297
63,126,63,-95,0,95,0,29,-9,-102,34,287
63,126,63,-95,0,95,4,19,-19,-102,34,283
58,122,63,-90,-2,92,4,4,-34,-102,24,273
63,112,48,-87,7,80,0,-9,-58,-126,14,273
58,107,48,-82,4,78,0,-19,-68,-136,9,278
58,107,48,-82,4,78,0,-29,-82,-136,-4,278
58,102,43,-80,7,73,0,-39,-87,-141,-9,273
34,92,58,-63,-12,75,0,-39,-97,-156,-9,258
29,82,53,-56,-12,68,-4,-43,-102,-161,-14,248
19,73,53,-46,-17,63,-4,-48,-112,-161,-14,244
14,63,48,-39,-17,56,-4,-53,-112,-165,-19,239
19,63,43,-41,-12,53,-4,-58,-112,-161,-29,248
24,63,39,-43,-7,51,-4,-63,-117,-170,-29,253
24,68,43,-46,-9,56,-4,-68,-131,-175,-29,253
29,73,43,-51,-7,58,-4,-73,-136,-190,-34,248
24,58,34,-41,-4,46,-14,-87,-141,-200,-48,239
19,58,39,-39,-9,48,-14,-92,-146,-204,-48,239
14,53,39,-34,-12,46,-14,-92,-146,-209,-48,239
9,53,43,-31,-17,48,-9,-92,-146,-204,-48,239
4,53,48,-29,-21,51,-9,-92,-151,-195,-43,244
4,48,43,-26,-19,46,-14,-92,-156,-195,-43,258
4,43,39,-24,-17,41,-14,-87,-156,-195,-43,253
4,43,39,-24,-17,41,-14,-82,-156,-204,-43,248
14,53,39,-34,-12,46,-14,-87,-156,-200,-34,239
14,48,34,-31,-9,41,-14,-92,-156,-200,-34,253
9,48,39,-29,-14,43,-14,-97,-156,-200,-34,263
9,48,39,-29,-14,43,-14,-102,-151,-195,-29,263
19,43,24,-31,-2,34,-14,-97,-151,-185,-29,273
19,43,24,-31,-2,34,-14,-97,-156,-185,-34,273
19,43,24,-31,-2,34,-14,-97,-156,-190,-39,273
19,48,29,-34,-4,39,-24,-102,-161,-195,-39,263
19,58,39,-39,-9,48,-24,-102,-161,-195,-39,253
14,58,43,-36,-14,51,-19,-97,-161,-195,-39,263
14,63,48,-39,-17,56,-19,-97,-161,-195,-29,268
19,63,43,-41,-12,53,-19,-97,-161,-190,-24,268
14,73,58,-43,-21,65,-29,-107,-165,-185,-24,278
14,73,58,-43,-21,65,-29,-107,-165,-180,-24,278
9,73,63,-41,-26,68,-29,-107,-165,-180,-29,273
4,73,68,-39,-31,70,-29,-112,-165,-195,-34,268
14,68,53,-41,-19,61,-24,-102,-156,-200,-34,263
14,63,48,-39,-17,56,-24,-107,-156,-195,-34,263
19,58,39,-39,-9,48,-24,-107,-156,-190,-29,268
19,53,34,-36,-7,43,-19,-107,-156,-185,-29,273
9,63,53,-36,-21,58,-14,-97,-156,-175,-19,263
9,63,53,-36,-21,58,-14,-97,-156,-170,-24,273
9,63,53,-36,-21,58,-19,-97,-156,-170,-29,263
4,63,58,-34,-26,61,-19,-97,-156,-170,-29,258
14,58,43,-36,-14,51,-29,-107,-156,-175,-39,253
19,58,39,-39,-9,48,-29,-107,-161,-175,-34,248
19,63,43,-41,-12,53,-29,-107,-161,-175,-29,248
14,68,53,-41,-19,61,-29,-107,-161,-175,-29,248
4,58,53,-31,-24,56,-29,-112,-161,-175,-24,253
4,58,53,-31,-24,56,-29,-112,-161,-175,-29,253
9,58,48,-34,-19,53,-24,-107,-161,-180,-29,244
9,58,48,-34,-19,53,-24,-107,-161,-185,-29,244
14,63,48,-39,-17,56,-14,-102,-151,-185,-19,258
19,58,39,-39,-9,48,-19,-102,-151,-180,-24,263
24,63,39,-43,-7,51,-19,-102,-151,-170,-24,268
29,68,39,-48,-4,53,-19,-102,-151,-156,-19,273
19,68,48,-43,-14,58,-24,-112,-156,-161,-19,258
19,73,53,-46,-17,63,-24,-112,-156,-156,-19,253
19,82,63,-51,-21,73,-29,-112,-156,-161,-19,248
14,73,58,-43,-21,65,-29,-112,-161,-170,-19,244
9,82,73,-46,-31,78,-29,-122,-165,-151,-29,273
9,68,58,-39,-24,63,-19,-117,-165,-146,-29,263
19,68,48,-43,-14,58,-19,-107,-161,-151,-29,258
19,68,48,-43,-14,58,-19,-107,-156,-156,-29,253
19,68,48,-43,-14,58,-19,-107,-151,-161,-29,248
19,68,48,-43,-14,58,-19,-107,-146,-165,-29,244
29,92,63,-61,-17,78,-19,-102,-136,-146,-14,258
29,102,73,-65,-21,87,-14,-102,-131,-126,-4,273
29,102,73,-65,-21,87,-9,-97,-131,-122,-4,278
34,107,73,-70,-19,90,-9,-97,-131,-112,0,278
24,102,78,-63,-26,90,-9,-102,-131,-112,9,263
24,117,92,-70,-34,104,-9,-102,-126,-117,9,263
29,126,97,-78,-34,112,-9,-97,-117,-122,19,268
39,131,92,-85,-26,112,-9,-97,-117,-122,19,268
29,131,102,-80,-36,117,-19,-92,-122,-112,9,268
29,136,107,-82,-39,122,-19,-87,-117,-107,14,273
34,136,102,-85,-34,119,-14,-87,-117,-107,14,283
34,136,102,-85,-34,119,-14,-87,-122,-107,14,283
39,136,97,-87,-29,117,-4,-87,-122,-107,24,287
43,136,92,-90,-24,114,-4,-87,-122,-112,24,278
48,136,87,-92,-19,112,-4,-87,-122,-112,19,278
53,136,82,-95,-14,109,-4,-87,-122,-112,14,278
63,141,78,-102,-7,109,-14,-87,-112,-107,4,268
63,156,92,-109,-14,124,-19,-87,-102,-107,9,268
63,165,102,-114,-19,134,-29,-87,-102,-97,14,283
68,180,112,-124,-21,146,-39,-92,-102,-92,29,287
68,190,122,-129,-26,156,-58,-117,-102,-92,43,302
68,200,131,-134,-31,165,-82,-126,-112,-87,48,302
73,195,122,-134,-24,158,-107,-136,-112,-87,48,317
68,190,122,-129,-26,156,-126,-146,-117,-97,48,317
82,170,87,-126,-2,129,-126,-141,-117,-87,39,307
87,165,78,-126,4,122,-126,-136,-117,-87,43,307
92,161,68,-126,12,114,-117,-122,-107,-78,48,312
107,161,53,-134,26,107,-112,-107,-107,-78,48,317
117,156,39,-136,39,97,-112,-117,-107,-78,48,326
117,131,14,-124,51,73,-107,-117,-117,-78,43,326
122,122,0,-122,61,61,-107,-117,-122,-92,39,317
122,97,-24,-109,73,36,-107,-117,-122,-97,34,307
112,87,-24,-100,68,31,-107,-112,-126,-102,29,287
107,87,-19,-97,63,34,-102,-122,-131,-117,19,283
97,73,-24,-85,61,24,-97,-122,-136,-117,9,283
92,73,-19,-82,56,26,-92,-122,-151,-126,4,273
92,63,-29,-78,61,17,-87,-122,-141,-117,-4,283
82,43,-39,-63,61,2,-73,-122,-146,-117,-9,278
73,29,-43,-51,58,-7,-63,-112,-146,-122,-9,278
63,29,-34,-46,48,-2,-53,-112,-146,-122,-9,268
43,34,-9,-39,26,12,-48,-122,-151,-141,-9,253
24,34,9,-29,7,21,-43,-122,-161,-146,-24,239
14,29,14,-21,0,21,-39,-126,-165,-156,-39,224
9,24,14,-17,-2,19,-39,-141,-180,-165,-43,214
19,14,-4,-17,12,4,-34,-141,-175,-161,-43,219
14,4,-9,-9,12,-2,-34,-146,-190,-165,-43,214
9,-4,-14,-2,12,-9,-34,-146,-200,-175,-58,214
4,-19,-24,7,14,-21,-34,-141,-200,-180,-58,209
-4,-24,-19,14,7,-21,-29,-141,-195,-195,-63,200
-4,-29,-24,17,9,-26,-29,-146,-195,-200,-68,185
-4,-43,-39,24,17,-41,-29,-146,-195,-200,-68,180
-4,-53,-48,29,21,-51,-29,-146,-200,-200,-68,175
-9,-58,-48,34,19,-53,-29,-146,-214,-195,-78,180
-9,-63,-53,36,21,-58,-24,-146,-214,-190,-78,185
-14,-68,-53,41,19,-61,-14,-146,-214,-185,-78,190
-14,-68,-53,41,19,-61,-14,-146,-214,-190,-78,195
-14,-73,-58,43,21,-65,-9,-146,-214,-200,-82,180
-19,-73,-53,46,17,-63,-9,-146,-214,-200,-82,175
-19,-78,-58,48,19,-68,-9,-146,-214,-200,-82,165
-14,-78,-63,46,24,-70,-9,-151,-219,-200,-87,161
-14,-78,-63,46,24,-70,-9,-151,-219,-190,-87,175
-14,-82,-68,48,26,-75,-4,-151,-219,-190,-87,180
-24,-92,-68,58,21,-80,-4,-146,-219,-195,-87,185
-24,-97,-73,61,24,-85,0,-146,-219,-195,-87,190
-24,-87,-63,56,19,-75,-9,-146,-219,-204,-87,175
-24,-87,-63,56,19,-75,-9,-146,-219,-204,-92,161
-24,-87,-63,56,19,-75,-9,-151,-219,-214,-92,156
-24,-87,-63,56,19,-75,-9,-151,-219,-214,-97,151
-14,-73,-58,43,21,-65,0,-146,-219,-209,-87,161
-14,-73,-58,43,21,-65,0,-146,-219,-200,-87,165
-14,-78,-63,46,24,-70,0,-146,-219,-195,-87,165
-14,-78,-63,46,24,-70,0,-146,-219,-195,-87,165
-19,-78,-58,48,19,-68,0,-146,-219,-209,-97,151
-39,-97,-58,68,9,-78,-9,-156,-219,-229,-107,126
-39,-87,-48,63,4,-68,-9,-156,-229,-239,-107,126
-29,-53,-24,41,-2,-39,-9,-170,-224,-209,-78,156
-29,-4,24,17,-26,9,-14,-195,-234,-195,-63,185
-39,19,58,9,-48,39,-9,-204,-244,-175,-43,209
-58,34,92,12,-75,63,-9,-204,-253,-170,-39,229
-53,34,87,9,-70,61,0,-180,-248,-170,-43,219
-63,29,92,17,-78,61,43,-131,-204,-146,-29,219
-68,29,97,19,-82,63,78,-73,-151,-112,-9,219
-63,19,82,21,-73,51,78,-34,-82,-78,29,214
4,29,24,-17,-9,26,68,4,9,4,107,258
73,24,-48,-48,61,-12,43,58,126,131,204,312
136,-29,-165,-53,151,-97,9,131,253,244,307,356
248,-68,-317,-90,283,-192,-14,209,400,380,419,409
366,-87,-453,-139,409,-270,-78,287,561,527,531,448
478,-87,-566,-195,522,-326,-204,302,697,678,688,502
600,-68,-668,-265,634,-368,-361,229,766,814,819,585
697,-107,-805,-295,751,-456,-483,117,756,839,873,590
780,-200,-980,-290,880,-590,-541,39,707,785,819,541
800,-312,-1112,-244,956,-712,-566,-9,619,653,673,439
800,-448,-1249,-175,1024,-849,-556,-39,497,453,468,292
780,-561,-1342,-109,1061,-951,-556,-87,380,273,263,175
756,-605,-1361,-75,1058,-983,-605,-204,239,117,117,82
702,-629,-1332,-36,1017,-980,-653,-375,43,-53,-24,-9
595,-663,-1259,34,927,-961,-663,-610,-200,-209,-156,-73
448,-653,-1102,102,775,-878,-673,-814,-424,-341,-234,-87
331,-614,-946,141,639,-780,-653,-907,-556,-429,-273,-97
180,-546,-727,183,453,-636,-551,-902,-634,-483,-336,-97
-4,-453,-448,229,222,-451,-419,-888,-717,-536,-395,-87
-122,-375,-253,248,65,-314,-336,-868,-790,-570,-419,-68
-151,-326,-175,239,12,-251,-297,-849,-829,-585,-429,-43
-146,-278,-131,212,-7,-204,-268,-800,-814,-585,-409,-48
-136,-200,-63,168,-36,-131,-244,-722,-712,-527,-351,-14
-117,-131,-14,124,-51,-73,-224,-624,-619,-463,-297,19
-112,-97,14,104,-63,-41,-195,-531,-536,-419,-239,39
-97,-68,29,82,-63,-19,-161,-448,-453,-351,-175,92
-82,-24,58,53,-70,17,-136,-361,-370,-278,-122,146
-63,-4,58,34,-61,26,-117,-307,-312,-219,-73,190
-53,-9,43,31,-48,17,-82,-278,-268,-161,-53,219
-39,14,53,12,-46,34,-58,-258,-253,-170,-53,200
-29,14,43,7,-36,29,-43,-229,-244,-185,-68,170
-29,-4,24,17,-26,9,-24,-195,-239,-190,-73,161
-29,-29,0,29,-14,-14,-4,-175,-234,-204,-78,146
-34,-39,-4,36,-14,-21,0,-161,-219,-214,-68,146
-43,-48,-4,46,-19,-26,0,-131,-204,-190,-58,156
-34,-39,-4,36,-14,-21,0,-122,-185,-170,-43,165
-24,-34,-9,29,-7,-21,0,-117,-180,-161,-43,180
-24,-29,-4,26,-9,-17,0,-117,-170,-151,-43,195
-29,-19,9,24,-19,-4,0,-131,-175,-156,-53,185
-29,-19,9,24,-19,-4,4,-131,-185,-161,-48,175
-29,-14,14,21,-21,0,4,-122,-190,-175,-48,165
-29,-14,14,21,-21,0,9,-117,-195,-180,-48,151
-29,-19,9,24,-19,-4,0,-102,-175,-170,-34,165
