I,II,III,aVR,aVL,aVF,V1,V2,V3,V4,V5,V6
-19,0,19,9,-19,9,19,-9,-29,9,9,-9
-19,0,19,9,-19,9,19,-9,-29,9,9,-9
-19,0,19,9,-19,9,19,-9,-29,9,9,-9
-19,0,19,9,-19,9,19,-9,-29,9,9,-9
-19,19,39,0,-29,29,19,-9,-24,14,14,-4
-19,29,48,-4,-34,39,19,-9,-19,19,19,0
-19,39,58,-9,-39,48,19,-9,-14,24,24,4
-19,48,68,-14,-43,58,19,-9,-9,29,29,9
-9,58,68,-24,-39,63,14,-9,-9,29,39,14
-9,58,68,-24,-39,63,9,-9,-9,29,39,19
-9,58,68,-24,-39,63,4,-9,-9,29,39,24
-9,58,68,-24,-39,63,0,-9,-9,29,39,29
-4,63,68,-29,-36,65,-4,0,0,39,39,29
0,68,68,-34,-34,68,-9,0,0,39,39,29
4,73,68,-39,-31,70,-14,0,0,39,39,29
9,78,68,-43,-29,73,-19,0,0,39,39,29
9,68,58,-39,-24,63,-19,0,0,48,48,39
9,68,58,-39,-24,63,-19,0,0,48,48,39
9,68,58,-39,-24,63,-19,-9,0,48,48,39
4,68,63,-36,-29,65,-19,-14,-4,43,48,39
4,63,58,-34,-26,61,-29,-24,-4,34,39,34
4,63,58,-34,-26,61,-29,-14,-4,34,39,34
-4,63,68,-29,-36,65,-29,-14,-4,34,39,34
-4,58,63,-26,-34,61,-24,-24,-4,34,39,34
4,68,63,-36,-29,65,-14,-14,-9,39,48,39
4,68,63,-36,-29,65,-14,-9,-9,39,48,39
9,63,53,-36,-21,58,-14,-9,-4,43,48,43
9,63,53,-36,-21,58,-4,-4,-4,43,48,43
9,73,63,-41,-26,68,-4,-4,-4,43,48,53
9,73,63,-41,-26,68,-4,0,-4,43,53,53
9,68,58,-39,-24,63,-4,0,0,43,53,53
9,68,58,-39,-24,63,0,0,0,43,53,48
9,63,53,-36,-21,58,0,0,-4,34,39,34
9,53,43,-31,-17,48,0,-4,-9,24,29,34
4,34,29,-19,-12,31,0,-4,-9,24,29,29
4,29,24,-17,-9,26,0,-4,-9,24,29,29
14,39,24,-26,-4,31,0,4,-9,29,34,39
14,39,24,-26,-4,31,0,-4,-14,34,34,39
4,29,24,-17,-9,26,0,-9,-24,24,34,39
4,29,24,-17,-9,26,0,-19,-39,19,24,29
9,39,29,-24,-9,34,-4,-34,-43,4,9,19
19,43,24,-31,-2,34,-9,-43,-43,4,9,19
19,43,24,-31,-2,34,-24,-48,-48,0,9,24
29,39,9,-34,9,24,-29,-48,-48,0,4,24
43,39,-4,-41,24,17,-29,-43,-39,9,14,29
48,39,-9,-43,29,14,-29,-43,-39,9,19,34
48,39,-9,-43,29,14,-29,-34,-29,19,24,34
48,29,-19,-39,34,4,-29,-24,-24,19,24,29
43,4,-39,-24,41,-17,-19,-24,-24,19,34,39
43,0,-43,-21,43,-21,-9,-19,-24,19,29,39
43,-9,-53,-17,48,-31,0,-19,-24,14,24,34
34,-24,-58,-4,46,-41,0,-19,-29,4,14,19
43,-19,-63,-12,53,-41,-9,-24,-43,-14,-9,14
43,-19,-63,-12,53,-41,-9,-24,-43,-19,-9,-4
43,-19,-63,-12,53,-41,-9,-24,-39,-19,-9,-9
43,-24,-68,-9,56,-46,-4,-24,-39,-19,-9,-9
53,-24,-78,-14,65,-51,-4,-34,-43,-19,-4,-4
68,-24,-92,-21,80,-58,-4,-29,-39,-14,0,0
78,-19,-97,-29,87,-58,-4,-19,-39,-9,0,0
82,-19,-102,-31,92,-61,-4,-14,-29,-9,0,0
73,-29,-102,-21,87,-65,0,0,-14,-4,9,9
73,-19,-92,-26,82,-56,9,4,-14,0,9,14
63,-19,-82,-21,73,-51,14,9,-14,9,9,14
43,-19,-63,-12,53,-41,34,14,-14,19,9,14
9,-4,-14,-2,12,-9,53,24,0,24,29,14
-4,4,9,0,-7,7,63,24,0,29,29,14
-9,9,19,0,-14,14,68,24,0,34,29,19
-19,19,39,0,-29,29,78,24,0,34,34,19
-9,29,39,-9,-24,34,73,24,-9,24,29,9
-14,24,39,-4,-26,31,73,19,-14,19,24,0
-14,19,34,-2,-24,26,68,14,-19,14,14,-4
-14,14,29,0,-21,21,68,9,-24,9,4,-9
-19,9,29,4,-24,19,58,9,-14,9,9,-4
-24,4,29,9,-26,17,58,4,-19,4,4,-9
-29,0,29,14,-29,14,63,4,-24,4,0,-9
-34,-4,29,19,-31,12,63,4,-24,4,0,-9
-19,24,43,-2,-31,34,82,4,-19,14,14,-9
-9,39,48,-14,-29,43,87,9,-19,9,9,-9
-29,14,43,7,-36,29,78,9,-19,9,0,-9
-73,-4,68,39,-70,31,48,-131,-170,-78,-58,-43
810,1015,204,-912,302,610,990,161,92,444,663,800
-190,9,200,90,-195,104,-14,-800,-873,-566,-336,-204
73,9,-63,-41,68,-26,141,673,663,434,253,126
122,14,-107,-68,114,-46,185,902,917,639,366,195
-34,29,63,2,-48,46,112,29,9,53,29,-9
-43,34,78,4,-61,56,122,63,43,68,34,-9
9,34,24,-21,-7,29,170,380,361,268,156,68
-29,34,63,-2,-46,48,180,219,165,136,82,24
-68,29,97,19,-82,63,180,156,87,87,48,4
-58,24,82,17,-70,53,190,224,151,126,73,24
-48,29,78,9,-63,53,175,141,53,63,43,14
-39,29,68,4,-53,48,175,78,-24,9,14,-4
-39,29,68,4,-53,48,175,92,-4,19,24,-4
-48,39,87,4,-68,63,156,39,-53,-4,14,-4
-53,34,87,9,-70,61,136,-53,-141,-53,-4,-9
-53,39,92,7,-73,65,122,-92,-175,-63,-14,-9
-29,58,87,-14,-58,73,102,-112,-190,-78,-4,9
-29,43,73,-7,-51,58,82,-141,-224,-82,-9,14
-39,14,53,12,-46,34,68,-180,-244,-97,-9,19
-34,24,58,4,-46,41,43,-224,-263,-117,-4,24
-24,43,68,-9,-46,56,-4,-273,-302,-131,14,48
-24,58,82,-17,-53,70,-14,-302,-312,-131,19,53
-4,73,78,-34,-41,75,48,-283,-307,-131,34,58
19,92,73,-56,-26,82,112,-278,-317,-151,43,82
39,92,53,-65,-7,73,82,-326,-380,-204,34,117
63,87,24,-75,19,56,19,-429,-473,-283,29,141
97,87,-9,-92,53,39,-53,-570,-570,-366,29,170
131,82,-48,-107,90,17,-175,-771,-712,-463,14,224
161,82,-78,-122,119,2,-390,-1083,-941,-600,-24,258
200,82,-117,-141,158,-17,-653,-1464,-1239,-771,-82,273
248,73,-175,-161,212,-51,-893,-1776,-1507,-966,-151,292
307,53,-253,-180,280,-100,-1122,-2020,-1712,-1132,-204,312
351,48,-302,-200,326,-126,-1366,-2239,-1873,-1239,-234,361
390,68,-322,-229,356,-126,-1576,-2386,-2000,-1312,-239,414
429,87,-341,-258,385,-126,-1688,-2459,-2093,-1381,-253,478
502,126,-375,-314,439,-124,-1751,-2469,-2142,-1439,-263,536
600,170,-429,-385,514,-129,-1795,-2400,-2117,-1454,-263,590
658,204,-453,-431,556,-124,-1825,-2337,-2098,-1459,-244,639
697,224,-473,-461,585,-124,-1830,-2342,-2147,-1493,-263,658
697,219,-478,-458,588,-129,-1830,-2376,-2191,-1522,-287,663
707,209,-497,-458,602,-143,-1820,-2366,-2171,-1493,-278,668
727,195,-531,-461,629,-168,-1781,-2313,-2103,-1444,-268,688
717,180,-536,-448,627,-178,-1717,-2283,-2083,-1405,-268,688
683,161,-522,-422,602,-180,-1664,-2293,-2093,-1405,-283,668
639,131,-507,-385,573,-187,-1600,-2283,-2083,-1390,-287,644
619,92,-527,-356,573,-217,-1532,-2274,-2059,-1381,-287,629
614,92,-522,-353,568,-214,-1498,-2288,-2074,-1371,-297,629
614,107,-507,-361,561,-200,-1478,-2308,-2074,-1346,-273,649
595,107,-488,-351,541,-190,-1468,-2308,-2069,-1346,-273,658
585,87,-497,-336,541,-204,-1454,-2293,-2059,-1366,-302,639
585,63,-522,-324,553,-229,-1429,-2274,-2034,-1366,-331,649
580,48,-531,-314,556,-241,-1385,-2225,-1986,-1337,-322,658
590,34,-556,-312,573,-261,-1346,-2191,-1942,-1307,-322,668
590,9,-580,-300,585,-285,-1307,-2142,-1912,-1298,-331,639
595,-48,-644,-273,619,-346,-1273,-2093,-1878,-1307,-385,590
590,-107,-697,-241,644,-402,-1229,-2015,-1820,-1307,-444,522
575,-156,-732,-209,653,-444,-1161,-1903,-1722,-1283,-478,458
575,-229,-805,-173,690,-517,-1102,-1790,-1629,-1254,-531,395
595,-287,-883,-153,739,-585,-1044,-1683,-1556,-1254,-600,297
566,-312,-878,-126,722,-595,-976,-1576,-1459,-1215,-634,234
551,-312,-863,-119,707,-588,-912,-1468,-1342,-1137,-614,219
566,-317,-883,-124,724,-600,-849,-1351,-1215,-1054,-610,209
566,-361,-927,-102,746,-644,-790,-1224,-1127,-1019,-619,170
561,-395,-956,-82,758,-675,-732,-1102,-1039,-980,-624,102
546,-409,-956,-68,751,-683,-658,-971,-936,-922,-619,39
522,-414,-936,-53,729,-675,-600,-858,-844,-854,-619,-14
512,-414,-927,-48,719,-671,-531,-746,-766,-805,-614,-68
478,-414,-893,-31,685,-653,-463,-658,-673,-746,-595,-102
444,-390,-834,-26,639,-612,-400,-575,-600,-692,-580,-117
434,-361,-795,-36,614,-578,-341,-512,-536,-629,-556,-117
414,-356,-771,-29,592,-563,-312,-468,-492,-575,-531,-131
390,-336,-727,-26,558,-531,-287,-429,-473,-551,-517,-146
351,-307,-658,-21,505,-483,-258,-385,-444,-531,-488,-156
317,-268,-585,-24,451,-427,-239,-336,-400,-478,-444,-156
302,-219,-522,-41,412,-370,-209,-297,-356,-409,-390,-151
253,-165,-419,-43,336,-292,-151,-224,-268,-322,-326,-122
185,-122,-307,-31,246,-214,-87,-151,-180,-234,-258,-97
146,-92,-239,-26,192,-165,-34,-107,-122,-175,-219,-87
117,-82,-200,-17,158,-141,9,-58,-78,-126,-190,-68
87,-63,-151,-12,119,-107,39,-14,-39,-78,-136,-58
39,-43,-82,2,61,-63,63,39,4,-29,-78,-39
0,-14,-14,7,7,-14,78,87,43,19,-24,-24
4,9,4,-7,0,7,92,126,92,58,0,-14
-9,29,39,-9,-24,34,117,161,136,102,19,-24
-63,19,82,21,-73,51,165,209,190,136,43,-19
-73,19,92,26,-82,56,185,234,209,146,34,-29
-63,19,82,21,-73,51,200,239,209,156,39,-29
-73,9,82,31,-78,46,190,229,200,146,29,-39
-73,9,82,31,-78,46,185,239,204,151,39,-43
-78,9,87,34,-82,48,185,244,204,165,53,-43
-78,19,97,29,-87,58,185,253,214,175,63,-43
-82,19,102,31,-92,61,195,253,239,175,73,-43
-87,19,107,34,-97,63,204,263,244,190,73,-43
-92,19,112,36,-102,65,214,268,244,190,73,-43
-92,24,117,34,-104,70,219,278,253,190,73,-43
-92,29,122,31,-107,75,209,273,244,180,68,-43
-102,29,131,36,-117,80,209,278,244,190,68,-43
-102,29,131,36,-117,80,209,283,253,195,68,-43
-97,34,131,31,-114,82,209,283,258,195,63,-39
-97,34,131,31,-114,82,219,297,268,204,68,-39
-102,34,136,34,-119,85,224,302,278,209,78,-39
-107,34,141,36,-124,87,224,307,283,214,82,-39
-112,34,146,39,-129,90,234,312,283,214,87,-39
-107,34,141,36,-124,87,224,317,278,209,78,-43
-112,29,141,41,-126,85,224,317,283,209,82,-43
-112,29,141,41,-126,85,224,322,287,219,92,-43
-112,34,146,39,-129,90,224,326,287,224,97,-43
-117,29,146,43,-131,87,224,326,302,229,107,-34
-117,29,146,43,-131,87,224,331,307,234,107,-34
-117,29,146,43,-131,87,224,331,307,234,107,-39
-122,29,151,46,-136,90,224,341,317,234,107,-39
-112,34,146,39,-129,90,229,346,322,234,107,-39
-112,34,146,39,-129,90,229,351,322,239,107,-39
-112,39,151,36,-131,95,229,351,322,239,102,-43
-112,39,151,36,-131,95,229,351,326,239,102,-43
-122,48,170,36,-146,109,234,361,336,248,97,-43
-122,48,170,36,-146,109,234,366,341,248,102,-43
-122,48,170,36,-146,109,234,375,341,258,102,-43
-122,48,170,36,-146,109,234,375,346,258,102,-43
-122,48,170,36,-146,109,234,370,351,258,102,-53
-122,48,170,36,-146,109,239,375,356,258,102,-53
-126,48,175,39,-151,112,239,380,356,258,102,-53
-126,53,180,36,-153,117,239,380,361,263,112,-48
-117,43,161,36,-139,102,239,385,366,278,112,-48
-117,43,161,36,-139,102,239,390,370,283,107,-58
-117,34,151,41,-134,92,239,395,375,283,107,-58
-117,43,161,36,-139,102,244,405,380,283,112,-58
-126,53,180,36,-153,117,244,409,385,283,112,-48
-126,53,180,36,-153,117,244,414,390,292,117,-43
-126,53,180,36,-153,117,248,419,395,292,122,-43
-126,53,180,36,-153,117,248,424,400,297,122,-43
-126,48,175,39,-151,112,239,424,405,297,122,-58
-126,43,170,41,-148,107,239,434,409,302,122,-58
-126,39,165,43,-146,102,244,439,414,307,117,-53
-126,34,161,46,-143,97,248,444,419,317,112,-53
-136,39,175,48,-156,107,258,448,419,312,117,-48
-136,39,175,48,-156,107,258,458,424,312,122,-48
-136,43,180,46,-158,112,263,463,429,317,131,-43
-141,43,185,48,-163,114,263,468,434,322,141,-43
-151,48,200,51,-175,124,268,478,448,326,131,-43
-141,48,190,46,-165,119,268,483,458,331,131,-43
-126,53,180,36,-153,117,268,492,468,331,136,-43
-146,53,200,46,-173,126,268,497,473,341,136,-48
-146,43,190,51,-168,117,273,502,478,341,141,-58
-146,43,190,51,-168,117,273,512,483,346,141,-58
-146,43,190,51,-168,117,273,517,492,351,141,-58
-146,48,195,48,-170,122,278,527,502,356,141,-58
-136,58,195,39,-165,126,273,531,497,370,156,-48
-136,58,195,39,-165,126,278,541,502,375,156,-48
-141,58,200,41,-170,129,278,541,507,380,161,-48
-141,58,200,41,-170,129,278,546,512,390,161,-48
-141,78,219,31,-180,148,287,556,522,385,156,-53
-141,82,224,29,-183,153,287,566,527,385,156,-53
-141,82,224,29,-183,153,287,570,531,385,156,-53
-141,82,224,29,-183,153,287,575,536,390,156,-58
-146,82,229,31,-187,156,283,575,541,400,170,-58
-146,82,229,31,-187,156,287,585,546,400,170,-58
-146,82,229,31,-187,156,292,595,556,405,170,-58
-146,82,229,31,-187,156,302,610,561,409,175,-58
-161,78,239,41,-200,158,302,610,566,414,175,-58
-161,78,239,41,-200,158,302,619,570,414,175,-58
-161,78,239,41,-200,158,302,624,575,414,175,-63
-165,82,248,41,-207,165,307,629,580,424,175,-63
-165,97,263,34,-214,180,317,634,585,429,180,-63
-161,97,258,31,-209,178,312,639,590,429,180,-68
-156,97,253,29,-204,175,302,644,595,429,180,-68
-146,102,248,21,-197,175,297,649,600,439,185,-68
-151,102,253,24,-202,178,312,653,605,439,195,-58
-156,102,258,26,-207,180,322,663,610,439,190,-58
-161,107,268,26,-214,187,322,668,610,444,190,-63
-165,107,273,29,-219,190,326,673,619,448,190,-68
-175,97,273,39,-224,185,326,683,624,444,185,-78
-180,97,278,41,-229,187,331,688,624,444,180,-78
-180,102,283,39,-231,192,331,688,624,444,180,-78
-180,112,292,34,-236,202,331,688,629,448,175,-78
-190,112,302,39,-246,207,346,688,629,448,175,-87
-190,112,302,39,-246,207,346,692,629,448,175,-92
-180,122,302,29,-241,212,346,697,629,448,175,-92
-180,122,302,29,-241,212,351,702,634,448,175,-102
-190,112,302,39,-246,207,351,712,644,453,180,-102
-190,112,302,39,-246,207,351,717,644,453,180,-97
-190,112,302,39,-246,207,356,722,653,453,180,-92
-190,112,302,39,-246,207,366,722,653,453,180,-87
-180,122,302,29,-241,212,356,732,658,463,180,-97
-190,122,312,34,-251,217,351,732,658,468,180,-102
-190,122,312,34,-251,217,351,736,658,468,175,-107
-185,122,307,31,-246,214,351,736,658,463,165,-107
-180,122,302,29,-241,212,336,727,658,453,165,-112
-180,126,307,26,-244,217,336,732,658,453,165,-112
-180,126,307,26,-244,217,341,732,658,453,165,-117
-185,122,307,31,-246,214,346,727,658,453,165,-117
-185,122,307,31,-246,214,351,736,668,458,165,-107
-175,122,297,26,-236,209,356,736,668,458,165,-102
-175,122,297,26,-236,209,356,732,668,458,165,-97
-175,122,297,26,-236,209,356,722,658,448,156,-97
-161,117,278,21,-219,197,341,712,649,444,156,-107
-156,112,268,21,-212,190,336,707,644,439,151,-107
-156,102,258,26,-207,180,336,702,639,439,151,-107
-156,97,253,29,-204,175,336,692,634,439,151,-107
-156,97,253,29,-204,175,346,692,639,429,151,-97
-156,97,253,29,-204,175,341,678,629,424,146,-97
-161,87,248,36,-204,168,336,673,629,414,136,-102
-161,87,248,36,-204,168,331,668,619,409,136,-102
-161,87,248,36,-204,168,322,668,614,405,136,-102
-151,87,239,31,-195,163,307,658,610,400,136,-97
-141,82,224,29,-183,153,302,644,600,390,131,-97
-136,78,214,29,-175,146,287,624,585,380,126,-97
-126,78,204,24,-165,141,287,619,585,380,136,-92
-122,78,200,21,-161,139,287,619,575,380,136,-82
-122,68,190,26,-156,129,287,600,570,366,131,-78
-122,63,185,29,-153,124,283,590,561,356,131,-78
-112,68,180,21,-146,124,268,585,561,361,131,-63
-102,68,170,17,-136,119,258,570,551,356,126,-58
-97,68,165,14,-131,117,244,556,536,351,126,-58
-92,63,156,14,-124,109,234,541,527,336,117,-53
-87,63,151,12,-119,107,234,512,497,326,117,-48
-82,58,141,12,-112,100,224,492,483,317,117,-48
-78,58,136,9,-107,97,214,473,468,307,117,-39
-73,58,131,7,-102,95,204,453,448,292,112,-29
-58,58,117,0,-87,87,195,444,444,283,107,-29
-48,53,102,-2,-75,78,185,434,434,273,102,-29
-48,53,102,-2,-75,78,175,414,424,263,102,-24
-48,48,97,0,-73,73,165,405,409,253,97,-19
-39,48,87,-4,-63,68,165,375,375,234,102,-19
-24,48,73,-12,-48,61,151,356,356,214,97,-14
-24,48,73,-12,-48,61,141,336,336,209,97,-9
-29,48,78,-9,-53,63,136,317,317,200,97,-4
-48,39,87,4,-68,63,131,307,317,200,102,4
-48,34,82,7,-65,58,126,287,302,195,102,4
-39,34,73,2,-56,53,112,268,283,180,97,0
-39,34,73,2,-56,53,102,248,268,170,97,0
-43,24,68,9,-56,46,97,244,248,165,87,4
-43,24,68,9,-56,46,92,234,234,161,82,4
-43,29,73,7,-58,51,87,214,219,146,82,14
-43,29,73,7,-58,51,82,200,204,136,82,14
-34,29,63,2,-48,46,82,190,200,146,92,14
-39,29,68,4,-53,48,73,170,175,131,92,14
-39,29,68,4,-53,48,73,151,161,122,87,19
-39,34,73,2,-56,53,68,136,151,117,87,24
-39,34,73,2,-56,53,63,131,141,97,87,34
-39,34,73,2,-56,53,63,122,131,92,82,29
-39,34,73,2,-56,53,63,112,122,87,82,24
-39,34,73,2,-56,53,63,102,112,82,78,24
-43,34,78,4,-61,56,48,82,92,78,68,9
-48,24,73,12,-61,48,43,73,82,68,58,9
-48,24,73,12,-61,48,39,63,73,58,58,9
-48,24,73,12,-61,48,39,53,58,58,58,9
-53,14,68,19,-61,41,39,58,53,48,58,14
-53,14,68,19,-61,41,39,53,48,43,53,14
-53,14,68,19,-61,41,39,48,43,34,48,9
-58,14,73,21,-65,43,39,43,34,29,48,4
-58,19,78,19,-68,48,48,39,34,29,58,4
-63,19,82,21,-73,51,43,34,29,24,58,4
-63,19,82,21,-73,51,43,29,24,19,48,4
-63,19,82,21,-73,51,43,24,19,19,43,4
-63,9,73,26,-68,41,43,14,14,29,34,4
-68,9,78,29,-73,43,43,14,9,19,34,-4
-73,14,87,29,-80,51,43,14,9,19,34,-4
-73,14,87,29,-80,51,39,14,9,19,34,-4
-63,9,73,26,-68,41,48,19,9,9,34,-4
-63,14,78,24,-70,46,48,19,0,9,34,-4
-63,24,87,19,-75,56,48,19,0,9,24,-4
-63,29,92,17,-78,61,48,14,0,4,24,-9
-63,19,82,21,-73,51,43,9,-9,4,34,-14
-68,19,87,24,-78,53,43,9,-9,4,34,-14
-68,14,82,26,-75,48,43,14,-9,4,29,-9
-73,14,87,29,-80,51,48,14,-9,4,29,-9
-87,14,102,36,-95,58,48,24,0,9,19,-9
-87,19,107,34,-97,63,48,24,0,9,19,-9
-87,19,107,34,-97,63,53,24,0,9,24,-14
-82,19,102,31,-92,61,53,29,0,9,24,-14
-82,19,102,31,-92,61,63,29,4,19,19,-24
-87,19,107,34,-97,63,63,29,4,19,19,-19
-87,19,107,34,-97,63,63,29,9,24,19,-19
-87,19,107,34,-97,63,63,34,9,24,19,-24
-97,9,107,43,-102,58,53,34,14,29,34,-14
-102,9,112,46,-107,61,53,39,14,29,34,-14
-102,14,117,43,-109,65,58,39,19,29,34,-14
-102,14,117,43,-109,65,58,39,19,29,34,-14
-87,24,112,31,-100,68,68,39,19,34,34,-14
-87,24,112,31,-100,68,68,39,19,34,34,-4
-82,24,107,29,-95,65,73,43,19,34,34,-4
-78,24,102,26,-90,63,73,43,29,39,34,-4
-78,14,92,31,-85,53,82,53,34,48,48,-9
-78,14,92,31,-85,53,82,53,39,53,48,-9
-82,14,97,34,-90,56,82,53,43,53,48,-9
-97,14,112,41,-104,63,87,53,48,53,48,-9
-92,14,107,39,-100,61,82,48,39,53,53,-19
-92,14,107,39,-100,61,82,48,43,53,48,-19
-97,14,112,41,-104,63,78,53,48,53,43,-19
-97,14,112,41,-104,63,73,53,53,63,39,-14
-107,24,131,41,-119,78,73,63,43,63,48,-4
-107,29,136,39,-122,82,73,68,43,63,48,-4
-107,29,136,39,-122,82,73,68,58,68,53,-4
-107,34,141,36,-124,87,78,68,63,73,58,-4
-107,34,141,36,-124,87,78,63,63,73,58,-4
-107,34,141,36,-124,87,78,63,58,73,58,-4
-107,29,136,39,-122,82,82,63,58,73,58,-4
-107,29,136,39,-122,82,82,68,68,78,63,-4
-107,29,136,39,-122,82,82,68,68,68,53,-14
-107,34,141,36,-124,87,87,73,68,73,53,-14
-112,34,146,39,-129,90,87,73,68,73,53,-14
-112,34,146,39,-129,90,87,78,73,73,53,-14
-102,34,136,34,-119,85,87,78,82,82,63,-14
-97,34,131,31,-114,82,87,78,82,92,63,-14
-107,34,141,36,-124,87,87,78,78,92,68,-14
-92,39,131,26,-112,85,87,78,78,92,68,-9
-102,39,141,31,-122,90,97,92,82,92,82,0
-102,39,141,31,-122,90,102,97,92,92,82,0
-102,39,141,31,-122,90,102,97,97,92,82,0
-102,39,141,31,-122,90,102,97,97,87,82,0
-102,39,141,31,-122,90,92,87,92,78,78,-9
-102,39,141,31,-122,90,92,87,92,78,73,-9
-107,39,146,34,-126,92,97,87,97,78,73,-9
-107,39,146,34,-126,92,97,92,92,78,68,-9
-112,34,146,39,-129,90,97,92,92,82,78,0
-112,29,141,41,-126,85,92,92,87,92,78,0
-112,24,136,43,-124,80,92,92,87,97,78,0
-112,19,131,46,-122,75,92,92,87,102,78,-4
-112,29,141,41,-126,85,92,82,87,92,68,-14
-112,29,141,41,-126,85,92,82,87,87,63,-14
-112,29,141,41,-126,85,97,82,87,87,63,-14
-112,39,151,36,-131,95,97,82,82,87,63,-14
-102,48,151,26,-126,100,87,78,82,97,63,-14
-92,39,131,26,-112,85,87,82,82,97,63,-14
-112,39,151,36,-131,95,87,92,92,97,63,-14
-102,39,141,31,-122,90,87,97,92,92,63,-14
-107,29,136,39,-122,82,92,92,87,82,63,-14
-107,29,136,39,-122,82,92,87,82,78,63,-14
-107,29,136,39,-122,82,92,82,78,78,63,-14
-112,19,131,46,-122,75,92,78,73,78,58,-14
-112,19,131,46,-122,75,97,87,73,87,68,-4
-112,24,136,43,-124,80,97,87,73,87,68,-4
-117,24,141,46,-129,82,87,87,73,87,68,-4
-117,24,141,46,-129,82,87,78,78,82,68,-9
-107,24,131,41,-119,78,87,78,78,73,58,-9
-107,24,131,41,-119,78,87,78,73,73,53,-9
-102,24,126,39,-114,75,87,78,68,73,53,-9
-102,24,126,39,-114,75,87,78,63,73,53,-9
-102,24,126,39,-114,75,92,78,73,82,53,-9
-107,24,131,41,-119,78,92,78,68,78,48,-9
-112,24,136,43,-124,80,87,73,63,73,48,-9
-117,24,141,46,-129,82,82,68,58,73,48,-9
-107,19,126,43,-117,73,78,68,58,63,58,-9
-107,19,126,43,-117,73,78,63,63,63,58,-9
-107,19,126,43,-117,73,78,63,63,63,58,-9
-107,24,131,41,-119,78,78,63,63,63,58,-4
-107,24,131,41,-119,78,78,58,58,68,48,-14
-107,24,131,41,-119,78,82,58,58,68,43,-14
-107,14,122,46,-114,68,82,58,58,68,43,-14
-107,14,122,46,-114,68,82,58,58,63,48,-14
-107,24,131,41,-119,78,73,53,53,53,48,-4
-107,24,131,41,-119,78,73,48,48,48,48,-4
-107,24,131,41,-119,78,73,48,48,48,39,-4
-102,19,122,41,-112,70,73,48,43,48,39,-4
-97,19,117,39,-107,68,73,48,43,48,39,-14
-92,24,117,34,-104,70,73,53,43,48,39,-19
-97,34,131,31,-114,82,73,53,43,43,39,-19
-92,19,112,36,-102,65,73,43,43,43,39,-19
-92,9,102,41,-97,56,82,48,43,48,43,-9
-97,9,107,43,-102,58,82,48,43,53,43,-4
-112,9,122,51,-117,65,82,48,43,58,53,-4
-107,9,117,48,-112,63,78,48,39,58,43,-4
-97,9,107,43,-102,58,68,43,39,53,34,-14
-102,14,117,43,-109,65,68,39,39,48,34,-14
-102,14,117,43,-109,65,68,29,39,43,34,-14
-97,4,102,46,-100,53,63,24,34,39,34,-19
-87,14,102,36,-95,58,73,34,34,43,43,-9
-87,14,102,36,-95,58,73,34,34,43,39,-9
-87,14,102,36,-95,58,73,29,29,43,39,-9
-92,14,107,39,-100,61,78,29,29,43,39,-9
-92,14,107,39,-100,61,68,34,34,34,29,-9
-92,14,107,39,-100,61,63,34,34,34,29,-9
-92,14,107,39,-100,61,63,39,34,34,29,-9
-87,19,107,34,-97,63,63,39,34,29,29,-9
-97,24,122,36,-109,73,73,39,24,39,39,-9
-102,24,126,39,-114,75,68,39,24,43,39,-9
-102,19,122,41,-112,70,68,34,24,43,39,-9
-97,19,117,39,-107,68,73,29,24,34,39,-14
-87,19,107,34,-97,63,63,14,14,24,29,-14
-97,14,112,41,-104,63,58,14,14,29,24,-14
-97,14,112,41,-104,63,58,19,14,29,24,-14
-92,14,107,39,-100,61,63,19,14,29,24,-9
-102,24,126,39,-114,75,73,29,14,39,39,-9
-102,24,126,39,-114,75,73,24,14,39,39,-9
-102,29,131,36,-117,80,68,24,14,39,39,-9
-102,29,131,36,-117,80,68,24,9,34,39,-9
-87,34,122,26,-104,78,58,19,14,34,34,-19
-87,34,122,26,-104,78,58,19,14,34,34,-24
-87,34,122,26,-104,78,58,14,14,34,34,-24
-92,34,126,29,-109,80,63,14,14,34,39,-24
-97,19,117,39,-107,68,63,24,14,34,39,-14
-97,19,117,39,-107,68,63,24,14,34,39,-14
-92,19,112,36,-102,65,63,14,14,34,34,-14
-82,19,102,31,-92,61,58,9,14,34,34,-14
-92,9,102,41,-97,56,73,29,14,34,34,-14
-87,14,102,36,-95,58,73,29,14,34,34,-14
-82,24,107,29,-95,65,68,24,14,34,34,-14
-92,24,117,34,-104,70,68,24,14,34,29,-14
-87,29,117,29,-102,73,58,19,19,39,29,-19
-87,29,117,29,-102,73,58,19,9,39,39,-29
-87,29,117,29,-102,73,58,19,9,39,39,-29
-87,29,117,29,-102,73,58,19,9,39,39,-29
-87,29,117,29,-102,73,58,19,9,39,39,-29
-78,29,107,24,-92,68,58,19,9,29,39,-19
-78,29,107,24,-92,68,58,19,9,29,39,-19
-78,29,107,24,-92,68,58,19,9,29,39,-19
-78,29,107,24,-92,68,58,19,9,29,39,-19
-63,58,122,2,-92,90,39,19,19,43,53,0
-58,87,146,-14,-102,117,29,19,29,58,68,9
-53,117,170,-31,-112,143,19,19,39,73,82,19
951,1146,195,-1049,378,671,1010,1019,1049,1088,1098,1029
-63,82,146,-9,-104,114,34,29,34,58,63,0
-78,29,107,24,-92,68,58,29,19,39,39,-19
-92,-24,68,58,-80,21,82,29,4,19,14,-39
-107,-78,29,92,-68,-24,107,29,-9,0,-9,-58
-92,-53,39,73,-65,-7,97,19,-4,14,0,-53
-87,-29,58,58,-73,14,87,19,0,19,9,-48
-82,-4,78,43,-80,36,78,19,4,24,19,-43
-78,19,97,29,-87,58,68,19,9,29,29,-39
-87,24,112,31,-100,68,58,19,19,39,39,-34
-87,29,117,29,-102,73,58,19,19,39,39,-29
-87,34,122,26,-104,78,58,19,19,39,39,-24
-87,39,126,24,-107,82,58,19,19,39,39,-19
-73,53,126,9,-100,90,43,9,19,48,48,-9
-68,58,126,4,-97,92,39,9,19,48,48,-9
-63,63,126,0,-95,95,34,9,19,48,48,-9
-58,68,126,-4,-92,97,29,9,19,48,48,-9
-68,78,146,-4,-107,112,29,19,29,58,53,0
-68,78,146,-4,-107,112,29,19,29,58,58,0
-68,78,146,-4,-107,112,29,19,29,58,63,0
-68,78,146,-4,-107,112,29,19,29,58,68,0
-63,82,146,-9,-104,114,24,9,29,58,68,0
-58,87,146,-14,-102,117,19,9,29,58,68,0
-53,92,146,-19,-100,119,14,9,29,58,68,0
-48,97,146,-24,-97,122,9,9,29,58,68,0
-58,107,165,-24,-112,136,9,14,34,68,78,4
-58,107,165,-24,-112,136,9,19,39,68,78,9
-58,107,165,-24,-112,136,9,14,43,68,78,14
-63,107,170,-21,-117,139,9,14,43,63,78,19
-58,112,170,-26,-114,141,9,4,39,63,73,4
-53,112,165,-29,-109,139,9,14,34,63,68,4
-58,112,170,-26,-114,141,9,14,29,63,63,4
-53,107,161,-26,-107,134,14,4,24,63,58,4
-63,102,165,-19,-114,134,14,14,29,68,68,9
-63,97,161,-17,-112,129,14,19,29,68,68,9
-58,87,146,-14,-102,117,14,19,34,73,68,14
-58,82,141,-12,-100,112,24,24,34,73,68,14
-48,82,131,-17,-90,107,14,14,34,63,58,24
-48,82,131,-17,-90,107,14,19,34,63,63,24
-48,78,126,-14,-87,102,14,19,39,63,63,24
-48,78,126,-14,-87,102,19,19,39,63,63,19
-39,87,126,-24,-82,107,29,19,34,63,68,24
-39,82,122,-21,-80,102,29,14,29,53,58,24
-43,68,112,-12,-78,90,29,14,29,53,58,19
-43,68,112,-12,-78,90,29,14,29,53,58,19
-53,58,112,-2,-82,85,39,24,39,53,53,19
-53,58,112,-2,-82,85,39,14,34,53,53,19
-63,48,112,7,-87,80,39,9,24,39,53,19
-63,48,112,7,-87,80,39,0,9,29,43,9
-48,58,107,-4,-78,82,43,-4,4,24,39,9
-39,63,102,-12,-70,82,39,-14,4,24,39,9
-39,63,102,-12,-70,82,24,-19,0,19,39,14
-29,58,87,-14,-58,73,19,-19,0,19,34,14
-4,58,63,-26,-34,61,9,-24,0,29,34,19
0,58,58,-29,-29,58,9,-24,0,29,39,24
0,58,58,-29,-29,58,9,-14,9,39,43,24
0,48,48,-24,-24,48,9,-4,14,39,43,19
0,34,34,-17,-17,34,0,-4,4,39,43,19
-4,29,34,-12,-19,31,9,0,4,39,39,19
-9,19,29,-4,-19,24,19,0,4,34,34,14
-24,4,29,9,-26,17,19,0,0,24,24,0
-4,0,4,2,-4,2,29,-14,-14,4,0,0
-4,0,4,2,-4,2,29,-14,-14,0,0,-14
-4,0,4,2,-4,2,29,-14,-9,0,0,-14
-4,-4,0,4,-2,-2,34,-14,-9,0,0,-9
-9,-4,4,7,-7,0,34,-14,-4,9,14,-4
0,-4,-4,2,2,-4,34,-9,0,14,19,0
4,0,-4,-2,4,-2,34,0,0,19,19,0
4,0,-4,-2,4,-2,34,4,9,19,19,0
14,0,-14,-7,14,-7,39,9,14,19,29,0
14,9,-4,-12,9,2,48,14,14,19,29,4
4,9,4,-7,0,7,53,19,14,24,29,4
-14,9,24,2,-19,17,73,24,14,29,29,4
-39,14,53,12,-46,34,82,43,39,34,39,4
-53,24,78,14,-65,51,92,43,39,39,39,4
-58,29,87,14,-73,58,97,43,39,43,39,9
-68,39,107,14,-87,73,107,43,39,43,43,9
-78,39,117,19,-97,78,102,43,39,53,53,4
-82,34,117,24,-100,75,102,39,34,48,53,0
-82,29,112,26,-97,70,97,34,29,43,48,0
-82,24,107,29,-95,65,97,29,24,39,43,0
-73,24,97,24,-85,61,87,29,24,29,39,-4
-73,24,97,24,-85,61,87,24,19,24,34,-9
-73,24,97,24,-85,61,92,24,14,24,29,-9
-73,24,97,24,-85,61,92,24,14,24,29,-9
-78,24,102,26,-90,63,102,24,19,24,24,-19
-78,39,117,19,-97,78,117,29,19,39,39,-9
-78,34,112,21,-95,73,117,29,19,39,39,-9
-112,34,146,39,-129,90,87,-122,-141,-68,-29,-34
751,1024,273,-888,239,649,1010,180,122,434,683,810
-239,19,258,109,-248,139,14,-751,-814,-536,-297,-195
34,39,4,-36,14,21,190,722,741,492,302,136
82,53,-29,-68,56,12,214,912,946,668,405,195
-92,39,131,26,-112,85,122,39,39,63,39,-9
-102,43,146,29,-124,95,151,102,92,97,53,0
-39,53,92,-7,-65,73,209,400,400,307,185,68
-68,63,131,2,-100,97,209,229,204,175,112,14
-97,48,146,24,-122,97,200,165,117,107,78,-4
-87,34,122,26,-104,78,200,224,170,126,92,4
-87,39,126,24,-107,82,195,151,82,63,53,-14
-97,48,146,24,-122,97,195,107,24,29,43,-14
-97,39,136,29,-117,87,195,122,34,39,53,-4
-97,29,126,34,-112,78,185,78,-4,14,34,-4
-102,34,136,34,-119,85,165,-4,-82,-24,24,-9
-92,39,131,26,-112,85,151,-53,-126,-34,24,-9
-78,39,117,19,-97,78,131,-82,-141,-48,24,0
-78,43,122,17,-100,82,122,-102,-156,-53,29,14
-68,63,131,2,-100,97,97,-122,-175,-68,29,19
-34,73,107,-19,-70,90,63,-165,-195,-78,34,34
-14,82,97,-34,-56,90,4,-214,-214,-82,43,39
-14,87,102,-36,-58,95,4,-224,-214,-73,68,63
-34,82,117,-24,-75,100,78,-214,-209,-73,92,87
-19,82,102,-31,-61,92,112,-229,-239,-102,92,112
29,112,82,-70,-26,97,73,-287,-302,-156,82,136
63,117,53,-90,4,85,19,-370,-366,-214,97,180
97,126,29,-112,34,78,-53,-502,-444,-278,97,219
122,122,0,-122,61,61,-195,-712,-595,-375,82,253
141,102,-39,-122,90,31,-429,-1034,-834,-531,53,278
180,102,-78,-141,129,12,-702,-1395,-1122,-722,-4,292
229,82,-146,-156,187,-31,-932,-1698,-1381,-897,-63,322
268,73,-195,-170,231,-61,-1161,-1932,-1566,-1034,-107,361
331,87,-244,-209,287,-78,-1385,-2132,-1717,-1141,-136,400
390,117,-273,-253,331,-78,-1566,-2249,-1834,-1205,-151,453
458,146,-312,-302,385,-82,-1678,-2303,-1917,-1273,-165,507
522,185,-336,-353,429,-75,-1732,-2303,-1947,-1302,-165,566
580,209,-370,-395,475,-80,-1766,-2225,-1922,-1307,-136,639
649,244,-405,-446,527,-80,-1795,-2171,-1912,-1312,-117,688
707,263,-444,-485,575,-90,-1810,-2186,-1971,-1356,-126,707
688,258,-429,-473,558,-85,-1810,-2230,-2025,-1395,-151,712
688,258,-429,-473,558,-85,-1790,-2239,-2015,-1376,-151,717
717,253,-463,-485,590,-104,-1732,-2205,-1947,-1307,-141,727
707,229,-478,-468,592,-124,-1678,-2196,-1927,-1288,-151,727
683,200,-483,-441,583,-141,-1625,-2205,-1956,-1298,-175,707
649,161,-488,-405,568,-163,-1581,-2196,-1956,-1283,-180,692
629,131,-497,-380,563,-183,-1532,-2215,-1971,-1283,-190,668
595,122,-473,-358,534,-175,-1498,-2259,-1995,-1302,-190,658
585,156,-429,-370,507,-136,-1478,-2278,-2005,-1288,-156,697
595,175,-419,-385,507,-122,-1459,-2288,-1991,-1268,-146,717
595,156,-439,-375,517,-141,-1444,-2293,-1981,-1268,-175,707
585,131,-453,-358,519,-161,-1420,-2264,-1966,-1268,-204,717
590,126,-463,-358,527,-168,-1376,-2225,-1927,-1249,-195,736
590,112,-478,-351,534,-183,-1346,-2171,-1883,-1220,-195,736
580,78,-502,-329,541,-212,-1317,-2142,-1844,-1210,-204,717
575,29,-546,-302,561,-258,-1283,-2103,-1810,-1220,-248,649
570,-29,-600,-270,585,-314,-1229,-2015,-1751,-1210,-297,590
575,-87,-663,-244,619,-375,-1171,-1912,-1654,-1195,-341,527
566,-141,-707,-212,636,-424,-1102,-1800,-1561,-1185,-414,444
566,-200,-766,-183,666,-483,-1034,-1693,-1488,-1176,-492,375
566,-224,-790,-170,678,-507,-966,-1576,-1390,-1127,-517,331
561,-234,-795,-163,678,-514,-893,-1459,-1273,-1058,-507,326
556,-239,-795,-158,675,-517,-829,-1322,-1146,-985,-492,307
575,-263,-839,-156,707,-551,-780,-1205,-1058,-932,-483,258
570,-297,-868,-136,719,-583,-722,-1102,-980,-902,-497,190
536,-322,-858,-107,697,-590,-658,-971,-888,-854,-502,126
512,-326,-839,-92,675,-583,-570,-849,-785,-785,-492,82
492,-326,-819,-82,656,-573,-492,-727,-678,-727,-497,29
458,-326,-785,-65,622,-556,-424,-639,-605,-668,-497,-14
434,-322,-756,-56,595,-539,-380,-556,-551,-614,-492,-48
424,-312,-736,-56,580,-524,-331,-502,-497,-570,-478,-58
414,-287,-702,-63,558,-495,-312,-458,-453,-536,-463,-63
400,-258,-658,-70,529,-458,-287,-419,-434,-512,-439,-78
361,-248,-610,-56,485,-429,-248,-375,-405,-483,-419,-97
326,-209,-536,-58,431,-373,-209,-336,-361,-439,-385,-107
273,-180,-453,-46,363,-317,-161,-278,-297,-370,-341,-102
224,-146,-370,-39,297,-258,-102,-204,-229,-283,-278,-82
195,-92,-287,-51,241,-190,-39,-141,-151,-204,-219,-68
156,-63,-219,-46,187,-141,4,-78,-92,-136,-170,-48
126,-43,-170,-41,148,-107,29,-29,-48,-97,-151,-48
87,-24,-112,-31,100,-68,48,4,-19,-68,-117,-39
58,4,-53,-31,56,-24,73,48,24,-29,-68,-29
48,24,-24,-36,36,0,97,87,63,19,-24,-24
24,39,14,-31,4,26,131,126,122,68,9,-24
-19,39,58,-9,-39,48,175,180,175,122,39,-14
-53,19,73,17,-63,46,204,229,209,156,53,-19
-53,19,73,17,-63,46,224,253,229,175,53,-39
-53,29,82,12,-68,56,239,258,239,175,58,-39
-53,29,82,12,-68,56,229,253,229,170,53,-39
-53,29,82,12,-68,56,224,258,234,170,58,-43
-58,29,87,14,-73,58,224,258,234,180,68,-43
-58,39,97,9,-78,68,224,263,244,185,73,-43
-73,29,102,21,-87,65,224,273,268,195,82,-43
-78,29,107,24,-92,68,234,283,273,209,82,-43
-82,29,112,26,-97,70,244,287,273,209,82,-43
-82,34,117,24,-100,75,248,297,283,209,82,-43
-73,39,112,17,-92,75,248,292,283,200,82,-43
-82,39,122,21,-102,80,248,297,283,209,87,-43
-82,39,122,21,-102,80,248,302,292,214,92,-43
-78,43,122,17,-100,82,248,302,297,214,92,-39
-73,53,126,9,-100,90,248,317,307,224,92,-39
-73,53,126,9,-100,90,253,322,317,229,97,-39
-73,53,126,9,-100,90,253,326,322,234,97,-39
-73,53,126,9,-100,90,263,331,322,234,97,-39
-78,43,122,17,-100,82,263,336,317,229,87,-43
-82,39,122,21,-102,80,263,336,322,229,92,-43
-82,39,122,21,-102,80,263,341,326,239,102,-43
-82,43,126,19,-104,85,263,346,326,244,107,-43
-68,53,122,7,-95,87,263,346,331,248,107,-34
-68,58,126,4,-97,92,263,351,336,253,107,-34
-68,63,131,2,-100,97,263,351,336,253,107,-39
-73,68,141,2,-107,104,263,361,346,253,107,-39
-82,53,136,14,-109,95,278,366,361,263,117,-39
-82,53,136,14,-109,95,278,370,361,268,117,-39
-82,58,141,12,-112,100,278,370,361,268,112,-43
-82,58,141,12,-112,100,278,370,366,268,112,-43
-82,58,141,12,-112,100,283,380,375,278,117,-43
-82,58,141,12,-112,100,283,385,380,278,122,-43
-82,58,141,12,-112,100,283,395,380,287,122,-43
-82,58,141,12,-112,100,283,395,385,287,122,-43
-73,68,141,2,-107,104,273,390,390,287,112,-43
-73,68,141,2,-107,104,278,395,395,287,112,-43
-78,68,146,4,-112,107,278,400,395,287,112,-43
-78,73,151,2,-114,112,278,400,400,292,122,-39
-78,63,141,7,-109,102,287,414,405,297,131,-39
-78,63,141,7,-109,102,287,419,409,302,126,-48
-78,53,131,12,-104,92,287,424,414,302,126,-48
-78,63,141,7,-109,102,292,434,419,302,131,-48
-78,63,141,7,-109,102,292,429,424,312,122,-48
-78,63,141,7,-109,102,292,434,429,322,126,-43
-78,63,141,7,-109,102,297,439,434,322,131,-43
-78,63,141,7,-109,102,297,444,439,326,131,-43
-68,73,141,-2,-104,107,297,453,444,317,136,-39
-68,73,141,-2,-104,107,297,463,448,322,141,-39
-68,73,141,-2,-104,107,302,468,453,326,141,-34
-68,73,141,-2,-104,107,307,473,458,336,141,-34
-73,68,141,2,-107,104,297,478,468,341,141,-39
-78,68,146,4,-112,107,297,488,473,341,141,-39
-82,73,156,4,-119,114,302,492,478,346,146,-34
-92,73,165,9,-129,119,302,497,483,351,151,-34
-97,78,175,9,-136,126,317,517,497,366,161,-43
-82,78,161,2,-122,119,317,522,507,370,161,-43
-63,82,146,-9,-104,114,317,531,517,370,165,-43
-78,82,161,-2,-119,122,317,536,522,380,165,-48
-87,82,170,2,-129,126,331,551,527,390,180,-43
-87,82,170,2,-129,126,331,561,531,395,180,-39
-87,82,170,2,-129,126,331,566,541,400,180,-34
-87,87,175,0,-131,131,336,575,551,405,180,-29
-87,78,165,4,-126,122,336,580,556,400,175,-39
-87,78,165,4,-126,122,336,590,561,405,175,-39
-92,78,170,7,-131,124,331,590,566,409,180,-39
-92,78,170,7,-131,124,326,595,570,419,180,-39
-82,87,170,-2,-126,129,346,614,580,424,185,-53
-82,92,175,-4,-129,134,346,624,585,424,185,-53
-82,92,175,-4,-129,134,346,629,590,424,185,-53
-82,92,175,-4,-129,134,346,634,595,429,185,-58
-78,92,170,-7,-124,131,351,644,610,448,200,-58
-78,92,170,-7,-124,131,356,653,614,448,200,-58
-78,92,170,-7,-124,131,361,663,624,453,200,-58
-78,92,170,-7,-124,131,370,678,629,458,204,-58
-92,107,200,-7,-146,153,370,678,644,463,204,-48
-92,107,200,-7,-146,153,370,688,649,463,204,-48
-92,107,200,-7,-146,153,370,692,653,463,204,-53
-97,112,209,-7,-153,161,375,697,658,473,204,-53
-97,117,214,-9,-156,165,380,712,663,478,209,-53
-92,117,209,-12,-151,163,380,717,668,478,209,-58
-87,117,204,-14,-146,161,375,722,673,478,209,-58
-78,122,200,-21,-139,161,375,727,678,488,214,-58
-82,122,204,-19,-143,163,380,741,683,497,214,-58
-87,122,209,-17,-148,165,390,751,688,497,209,-58
-92,126,219,-17,-156,173,390,756,688,502,209,-63
-97,126,224,-14,-161,175,395,761,697,507,209,-68
-97,131,229,-17,-163,180,405,761,692,507,209,-78
-102,136,239,-17,-170,187,409,766,692,502,209,-78
-102,146,248,-21,-175,197,409,766,692,497,214,-78
-102,161,263,-29,-183,212,409,766,697,497,214,-78
-112,146,258,-17,-185,202,424,780,712,502,214,-68
-112,141,253,-14,-183,197,424,790,717,507,214,-73
-102,146,248,-21,-175,197,424,800,722,512,214,-73
-102,141,244,-19,-173,192,429,810,732,517,214,-82
-102,141,244,-19,-173,192,429,814,727,512,209,-87
-102,141,244,-19,-173,192,429,814,722,512,209,-87
-102,141,244,-19,-173,192,434,814,727,512,209,-87
-102,141,244,-19,-173,192,444,810,722,512,209,-87
-102,151,253,-24,-178,202,444,819,736,522,209,-78
-112,151,263,-19,-187,207,439,819,736,527,209,-82
-112,151,263,-19,-187,207,439,824,736,527,204,-87
-107,151,258,-21,-183,204,439,824,736,522,195,-87
-112,151,263,-19,-187,207,444,824,736,512,195,-82
-112,156,268,-21,-190,212,444,829,736,512,195,-82
-112,156,268,-21,-190,212,448,829,736,512,195,-87
-117,151,268,-17,-192,209,453,824,736,512,195,-87
-107,141,248,-17,-178,195,448,814,727,497,185,-97
-97,141,239,-21,-168,190,444,814,727,497,185,-92
-97,141,239,-21,-168,190,434,810,727,497,185,-87
-97,141,239,-21,-168,190,424,800,717,488,175,-87
-82,141,224,-29,-153,183,419,800,717,483,185,-97
-78,141,219,-31,-148,180,414,795,712,478,180,-97
-78,136,214,-29,-146,175,414,790,707,478,180,-97
-78,136,214,-29,-146,175,414,780,702,478,180,-97
-63,146,209,-41,-136,178,414,775,688,468,170,-87
-58,146,204,-43,-131,175,409,756,678,463,165,-87
-58,136,195,-39,-126,165,405,746,678,453,156,-92
-53,136,190,-41,-122,163,400,736,668,448,156,-92
-63,136,200,-36,-131,168,395,736,663,444,165,-82
-53,136,190,-41,-122,163,385,727,658,439,165,-78
-43,131,175,-43,-109,153,385,712,649,429,161,-78
-39,126,165,-43,-102,146,375,692,634,419,156,-78
-29,131,161,-51,-95,146,361,683,614,409,146,-82
-24,136,161,-56,-92,148,356,678,605,409,146,-73
-24,131,156,-53,-90,143,351,653,600,395,141,-68
-24,131,156,-53,-90,143,341,639,590,385,141,-68
-14,126,141,-56,-78,134,336,624,580,380,141,-63
-4,126,131,-61,-68,129,326,610,570,375,136,-58
0,126,126,-63,-63,126,312,595,556,370,136,-58
4,122,117,-63,-56,119,302,580,546,356,126,-53
14,112,97,-63,-41,104,292,561,527,346,126,-39
24,107,82,-65,-29,95,283,541,512,336,126,-39
34,107,73,-70,-19,90,273,522,497,326,126,-29
43,107,63,-75,-9,85,263,502,478,312,122,-19
39,117,78,-78,-19,97,244,473,463,292,117,-9
48,112,63,-80,-7,87,234,463,453,283,112,-9
48,112,63,-80,-7,87,224,444,444,273,112,-4
48,107,58,-78,-4,82,214,434,429,263,107,0
63,107,43,-85,9,75,204,405,405,253,102,0
82,107,24,-95,29,65,190,385,385,234,97,4
87,107,19,-97,34,63,180,366,366,229,97,9
87,107,19,-97,34,63,175,346,346,219,97,14
68,107,39,-87,14,73,161,326,326,200,92,24
68,102,34,-85,17,68,156,307,312,195,92,24
78,102,24,-90,26,63,141,287,292,180,87,19
78,102,24,-90,26,63,131,268,278,170,87,19
82,92,9,-87,36,51,131,263,268,175,97,24
82,92,9,-87,36,51,131,253,253,170,92,24
82,97,14,-90,34,56,131,234,239,156,92,34
82,97,14,-90,34,56,131,219,224,146,92,34
73,87,14,-80,29,51,112,200,209,136,92,34
68,87,19,-78,24,53,102,180,185,122,92,34
68,87,19,-78,24,53,102,161,170,112,87,39
68,92,24,-80,21,58,97,146,161,107,87,43
78,92,14,-85,31,53,82,141,151,107,78,34
78,92,14,-85,31,53,82,131,141,102,73,29
78,92,14,-85,31,53,82,122,131,97,73,24
78,92,14,-85,31,53,82,112,122,92,68,24
82,97,14,-90,34,56,78,92,112,87,68,29
78,92,14,-85,31,53,73,82,102,78,58,29
78,97,19,-87,29,58,68,73,92,68,58,29
78,102,24,-90,26,63,68,63,78,68,58,29
63,92,29,-78,17,61,78,58,63,68,58,24
63,92,29,-78,17,61,78,53,58,63,53,24
63,92,29,-78,17,61,78,48,53,53,48,19
58,92,34,-75,12,63,78,43,43,48,48,14
48,87,39,-68,4,63,68,48,53,48,58,24
43,87,43,-65,0,65,63,43,48,43,58,24
43,87,43,-65,0,65,63,39,43,39,48,24
43,87,43,-65,0,65,63,34,39,39,43,24
43,78,34,-61,4,56,63,34,24,39,34,24
39,78,39,-58,0,58,63,34,19,29,34,14
34,82,48,-58,-7,65,63,34,19,29,34,14
34,82,48,-58,-7,65,58,34,19,29,34,14
43,73,29,-58,7,51,68,29,19,29,34,4
43,73,29,-58,7,51,68,29,9,29,34,4
43,78,34,-61,4,56,68,29,9,29,24,4
43,78,34,-61,4,56,68,24,9,24,24,0
43,87,43,-65,0,65,73,19,19,24,34,-14
39,87,48,-63,-4,68,73,19,19,24,34,-14
39,82,43,-61,-2,63,73,24,19,24,29,-9
34,82,48,-58,-7,65,78,24,19,24,29,-9
39,82,43,-61,-2,63,68,24,9,19,24,-19
39,87,48,-63,-4,68,68,24,9,19,19,-19
39,87,48,-63,-4,68,73,24,9,19,19,-24
43,87,43,-65,0,65,73,29,9,19,14,-24
34,87,53,-61,-9,70,73,29,14,29,19,-24
29,87,58,-58,-14,73,73,29,14,29,19,-19
29,87,58,-58,-14,73,73,29,19,34,19,-19
29,87,58,-58,-14,73,73,34,19,34,19,-24
39,87,48,-63,-4,68,82,34,19,39,24,-14
34,87,53,-61,-9,70,82,39,24,39,24,-14
34,92,58,-63,-12,75,87,39,34,39,24,-14
34,92,58,-63,-12,75,87,39,39,39,24,-14
39,92,53,-65,-7,73,78,39,48,43,34,-29
39,92,53,-65,-7,73,78,39,48,43,34,-24
43,92,48,-68,-2,70,82,43,48,43,34,-29
48,92,43,-70,2,68,82,43,58,48,34,-34
48,92,43,-70,2,68,92,63,58,48,39,-29
48,92,43,-70,2,68,92,63,58,53,39,-29
43,92,48,-68,-2,70,92,63,58,53,39,-29
29,92,63,-61,-17,78,97,63,58,53,39,-29
34,92,58,-63,-12,75,97,58,58,63,39,-29
34,92,58,-63,-12,75,102,58,63,63,39,-29
29,92,63,-61,-17,78,102,63,68,63,39,-29
29,92,63,-61,-17,78,102,63,73,73,39,-24
19,92,73,-56,-26,82,102,73,73,73,48,-24
19,97,78,-58,-29,87,102,78,73,73,48,-24
19,97,78,-58,-29,87,102,78,87,78,53,-24
19,102,82,-61,-31,92,107,78,92,82,58,-24
19,92,73,-56,-26,82,107,92,92,82,58,-14
19,92,73,-56,-26,82,107,92,87,82,58,-14
19,87,68,-53,-24,78,112,92,87,82,58,-14
19,87,68,-53,-24,78,112,97,97,87,63,-14
19,92,73,-56,-26,82,122,87,97,97,63,-24
19,102,82,-61,-31,92,126,92,97,102,63,-24
14,107,92,-61,-39,100,126,92,97,102,63,-24
14,112,97,-63,-41,104,126,97,102,102,63,-24
19,107,87,-63,-34,97,126,107,112,102,73,-24
19,102,82,-61,-31,92,126,107,112,112,73,-24
4,97,92,-51,-43,95,126,107,107,112,78,-24
14,97,82,-56,-34,90,126,107,107,112,78,-19
14,87,73,-51,-29,80,126,112,112,122,73,-19
14,87,73,-51,-29,80,131,117,122,122,73,-19
14,87,73,-51,-29,80,131,117,126,122,73,-19
14,87,73,-51,-29,80,131,117,126,117,73,-19
4,87,82,-46,-39,85,131,117,117,107,73,-9
4,87,82,-46,-39,85,131,117,122,107,73,-9
0,87,87,-43,-43,87,136,117,131,107,78,-9
0,87,87,-43,-43,87,136,122,131,107,78,-9
14,97,82,-56,-34,90,126,122,122,117,78,-9
14,97,82,-56,-34,90,122,122,117,122,78,-9
14,97,82,-56,-34,90,122,122,117,122,78,-9
14,97,82,-56,-34,90,122,122,117,122,78,-14
9,87,78,-48,-34,82,122,122,126,122,78,-24
4,87,82,-46,-39,85,122,122,126,117,73,-24
0,87,87,-43,-43,87,126,122,126,117,73,-24
-4,97,102,-46,-53,100,126,122,122,117,73,-24
4,107,102,-56,-48,104,126,112,112,107,73,-24
14,97,82,-56,-34,90,126,112,112,107,73,-24
-4,97,102,-46,-53,100,126,117,122,107,73,-24
4,97,92,-51,-43,95,126,117,122,102,73,-24
-4,97,102,-46,-53,100,122,107,117,112,73,-24
0,97,97,-48,-48,97,122,107,112,107,73,-24
4,97,92,-51,-43,95,122,107,107,107,73,-24
4,87,82,-46,-39,85,122,107,102,107,68,-24
14,78,63,-46,-24,70,126,107,112,97,58,-34
14,82,68,-48,-26,75,126,107,112,97,58,-34
9,82,73,-46,-31,78,117,107,112,97,58,-34
9,82,73,-46,-31,78,117,97,117,92,58,-39
0,82,82,-41,-41,82,117,97,117,102,68,-34
0,82,82,-41,-41,82,117,97,112,102,63,-29
4,82,78,-43,-36,80,117,97,107,102,63,-24
4,82,78,-43,-36,80,117,97,102,102,63,-19
9,82,73,-46,-31,78,122,97,102,102,63,-19
9,82,73,-46,-31,78,122,97,97,97,58,-19
9,82,73,-46,-31,78,117,92,92,92,58,-19
9,82,73,-46,-31,78,112,87,87,92,58,-19
0,78,78,-39,-39,78,107,87,87,92,58,-19
0,78,78,-39,-39,78,107,82,92,92,58,-19
0,78,78,-39,-39,78,107,82,92,92,58,-19
0,82,82,-41,-41,82,107,82,92,92,58,-14
-9,82,92,-36,-51,87,107,78,78,78,58,-14
-9,82,92,-36,-51,87,112,78,78,78,53,-14
-9,73,82,-31,-46,78,112,78,78,78,53,-14
-9,73,82,-31,-46,78,112,78,78,73,58,-14
0,78,78,-39,-39,78,112,82,82,82,58,-14
0,82,82,-41,-41,82,112,78,78,78,58,-14
0,87,87,-43,-43,87,112,78,78,78,48,-14
4,87,82,-46,-39,85,112,78,73,78,48,-14
14,82,68,-48,-26,75,102,68,73,68,39,-14
14,82,68,-48,-26,75,102,73,73,68,39,-19
4,87,82,-46,-39,85,102,73,73,63,39,-19
4,68,63,-36,-29,65,102,63,73,63,39,-19
4,68,63,-36,-29,65,102,58,73,63,34,-19
0,68,68,-34,-34,68,102,58,73,63,34,-14
-14,68,82,-26,-48,75,102,58,73,63,43,-14
-9,68,78,-29,-43,73,97,58,68,58,34,-14
0,68,68,-34,-34,68,97,58,58,58,43,-24
-4,73,78,-34,-41,75,97,58,58,58,43,-24
-4,73,78,-34,-41,75,97,53,58,58,43,-24
0,63,63,-31,-31,63,92,53,53,58,43,-29
0,63,63,-31,-31,63,92,43,53,53,34,-19
0,63,63,-31,-31,63,92,43,53,53,29,-19
0,63,63,-31,-31,63,92,39,48,53,29,-19
-4,63,68,-29,-36,65,97,39,48,53,29,-19
-4,63,68,-29,-36,65,97,43,53,63,39,-19
-4,63,68,-29,-36,65,92,43,53,63,39,-19
-4,63,68,-29,-36,65,92,48,53,63,39,-19
0,68,68,-34,-34,68,92,48,53,58,39,-19
-9,63,73,-26,-41,68,92,39,34,48,29,-19
-14,63,78,-24,-46,70,87,39,34,53,29,-19
-14,58,73,-21,-43,65,87,34,34,53,29,-19
-9,58,68,-24,-39,63,92,29,34,43,29,-24
0,68,68,-34,-34,68,82,34,34,43,29,-24
-9,63,73,-26,-41,68,78,34,34,48,24,-24
-9,63,73,-26,-41,68,78,39,34,48,24,-24
-4,63,68,-29,-36,65,82,39,34,48,24,-19
-4,63,68,-29,-36,65,92,39,34,48,29,-19
-4,63,68,-29,-36,65,92,34,34,48,29,-19
-4,68,73,-31,-39,70,87,34,34,48,29,-19
-4,68,73,-31,-39,70,87,34,29,43,29,-19
9,73,63,-41,-26,68,78,29,34,43,24,-19
9,73,63,-41,-26,68,78,29,34,43,24,-24
9,73,63,-41,-26,68,78,24,34,43,24,-24
4,73,68,-39,-31,70,82,24,34,43,29,-24
0,78,78,-39,-39,78,92,43,34,53,39,-14
0,78,78,-39,-39,78,92,43,34,53,39,-14
4,78,73,-41,-34,75,92,34,34,53,34,-14
14,78,63,-46,-24,70,87,29,34,53,34,-14
14,78,63,-46,-24,70,82,39,34,43,34,-14
9,73,63,-41,-26,68,82,39,34,43,34,-14
-4,73,78,-34,-41,75,87,43,34,53,34,-14
-4,73,78,-34,-41,75,78,34,34,43,39,-14
-9,68,78,-29,-43,73,78,39,39,39,39,-9
0,68,68,-34,-34,68,78,29,29,39,29,-19
0,68,68,-34,-34,68,78,29,29,39,29,-19
0,68,68,-34,-34,68,78,29,29,39,29,-19
0,68,68,-34,-34,68,78,29,29,39,29,-19
9,68,58,-39,-24,63,87,19,29,39,29,-19
9,68,58,-39,-24,63,87,19,29,39,29,-19
9,68,58,-39,-24,63,87,19,29,39,29,-19
9,68,58,-39,-24,63,87,19,29,39,29,-19
14,102,87,-58,-36,95,73,29,39,53,48,-9
19,126,107,-73,-43,117,58,29,48,68,58,0
24,151,126,-87,-51,139,43,29,58,82,68,9
1029,1176,146,-1102,441,661,1029,1029,1068,1098,1078,1019
14,126,112,-70,-48,119,48,24,48,63,53,-9
0,78,78,-39,-39,78,68,19,29,39,29,-29
-14,29,43,-7,-29,36,87,14,9,14,4,-48
-29,-19,9,24,-19,-4,107,9,-9,-9,-19,-68
-24,4,29,9,-26,17,92,19,4,0,-9,-53
-19,19,39,0,-29,29,87,19,9,9,0,-48
-14,34,48,-9,-31,41,82,19,14,19,9,-43
-9,48,58,-19,-34,53,78,19,19,29,19,-39
0,58,58,-29,-29,58,63,9,19,39,29,-34
0,68,68,-34,-34,68,58,9,19,39,29,-29
0,78,78,-39,-39,78,53,9,19,39,29,-24
0,87,87,-43,-43,87,48,9,19,39,29,-19
4,92,87,-48,-41,90,39,9,29,48,34,-9
9,97,87,-53,-39,92,39,9,29,48,39,-9
14,102,87,-58,-36,95,39,9,29,48,43,-9
19,107,87,-63,-34,97,39,9,29,48,48,-9
19,112,92,-65,-36,102,29,9,29,58,58,0
19,117,97,-68,-39,107,29,9,29,58,58,0
19,122,102,-70,-41,112,29,9,29,58,58,0
19,126,107,-73,-43,117,29,9,29,58,58,0
24,126,102,-75,-39,114,24,9,39,58,58,9
29,126,97,-78,-34,112,19,9,39,58,58,9
34,126,92,-80,-29,109,14,9,39,58,58,9
39,126,87,-82,-24,107,9,9,39,58,58,9
29,136,107,-82,-39,122,9,14,48,68,68,9
29,136,107,-82,-39,122,9,19,48,68,68,9
29,136,107,-82,-39,122,9,14,48,68,68,9
24,136,112,-80,-43,124,9,14,43,63,68,9
24,122,97,-73,-36,109,19,14,43,73,68,14
24,122,97,-73,-36,109,19,24,43,73,68,14
14,122,107,-68,-46,114,19,24,43,73,68,14
14,117,102,-65,-43,109,24,14,43,73,68,14
24,126,102,-75,-39,114,14,4,39,58,58,19
24,126,102,-75,-39,114,14,9,39,58,58,19
29,122,92,-75,-31,107,14,9,43,63,58,24
29,122,92,-75,-31,107,24,14,43,63,58,24
19,112,92,-65,-36,102,34,24,43,63,58,34
19,112,92,-65,-36,102,34,29,43,63,63,34
19,107,87,-63,-34,97,34,29,48,63,63,34
19,107,87,-63,-34,97,39,29,48,63,63,29
39,107,68,-73,-14,87,29,24,34,53,48,14
39,102,63,-70,-12,82,29,14,29,43,39,14
34,87,53,-61,-9,70,29,9,29,43,39,9
34,87,53,-61,-9,70,29,4,29,43,39,9
24,87,63,-56,-19,75,39,4,29,43,34,9
24,87,63,-56,-19,75,39,-4,24,43,34,9
14,78,63,-46,-24,70,39,-9,14,29,34,9
14,78,63,-46,-24,70,39,-19,0,19,24,0
24,78,53,-51,-14,65,24,-14,-4,14,19,0
39,82,43,-61,-2,63,19,-24,-4,14,19,0
43,82,39,-63,2,61,4,-29,-9,9,19,4
58,78,19,-68,19,48,0,-29,-9,9,14,4
63,78,14,-70,24,46,0,-34,-9,19,14,19
68,78,9,-73,29,43,0,-34,-9,19,19,24
68,78,9,-73,29,43,0,-24,0,29,24,24
68,68,0,-68,34,34,0,-14,4,29,24,19
82,63,-19,-73,51,21,0,-14,-4,29,24,19
82,58,-24,-70,53,17,9,-9,-4,29,19,19
82,48,-34,-65,58,7,19,-9,-4,24,14,14
73,34,-39,-53,56,-2,19,-9,-9,14,4,0
78,29,-48,-53,63,-9,19,-4,-14,14,0,0
73,29,-43,-51,58,-7,19,-4,-14,9,0,-14
68,29,-39,-48,53,-4,19,-4,-9,9,0,-14
63,24,-39,-43,51,-7,24,-4,-9,9,0,-9
73,24,-48,-48,61,-12,24,-14,4,19,4,4
87,24,-63,-56,75,-19,24,-9,9,24,9,9
97,29,-68,-63,82,-19,24,0,9,29,9,9
102,29,-73,-65,87,-21,24,4,19,29,9,9
92,29,-63,-61,78,-17,29,0,14,19,9,0
92,39,-53,-65,73,-7,39,4,14,19,9,4
82,39,-43,-61,63,-2,43,9,14,24,9,4
63,39,-24,-51,43,7,63,14,14,29,9,4
39,43,4,-41,17,24,73,24,19,34,19,14
24,53,29,-39,-2,41,82,24,19,39,19,14
19,58,39,-39,-9,48,87,24,19,43,19,19
9,68,58,-39,-24,63,97,24,19,43,24,19
9,58,48,-34,-19,53,92,34,19,43,24,14
4,53,48,-29,-21,51,92,29,14,39,24,9
4,48,43,-26,-19,46,87,24,9,34,19,9
4,43,39,-24,-17,41,87,19,4,29,14,9
14,43,29,-29,-7,36,87,9,14,29,19,14
14,43,29,-29,-7,36,87,4,9,24,14,9
14,43,29,-29,-7,36,92,4,4,24,9,9
14,43,29,-29,-7,36,92,4,4,24,9,9
9,43,34,-26,-12,39,92,14,0,34,14,0
9,48,39,-29,-14,43,97,29,9,29,19,0
19,63,43,-41,-12,53,97,29,9,39,19,0
-24,63,87,-19,-56,75,78,-141,-151,-68,-39,-24
839,1054,214,-946,312,634,961,131,131,463,683,829
-151,39,190,56,-170,114,-34,-780,-775,-507,-297,-165
112,29,-82,-70,97,-26,209,751,722,463,263,146
161,53,-107,-107,134,-26,253,922,888,610,346,195
4,58,53,-31,-24,56,131,39,19,53,29,19
4,73,68,-39,-31,70,161,112,92,97,53,19
58,102,43,-80,7,73,229,409,380,278,156,78
29,92,63,-61,-17,78,209,219,195,156,82,34
9,78,68,-43,-29,73,200,136,97,97,48,14
19,63,43,-41,-12,53,200,195,141,107,53,14
9,68,58,-39,-24,63,185,112,53,53,24,4
9,68,58,-39,-24,63,175,78,-4,19,14,4
19,78,58,-48,-19,68,175,92,4,39,34,14
0,78,78,-39,-39,78,165,39,-43,14,24,14
-4,73,78,-34,-41,75,126,-73,-131,-43,-4,0
4,78,73,-41,-34,75,102,-122,-156,-63,-14,0
19,78,58,-48,-19,68,92,-131,-161,-48,4,19
19,82,63,-51,-21,73,73,-161,-175,-63,9,34
39,92,53,-65,-7,73,48,-209,-195,-78,0,39
53,102,48,-78,2,75,4,-253,-224,-87,4,43
63,112,48,-87,7,80,-34,-283,-234,-92,24,58
53,126,73,-90,-9,100,14,-273,-234,-82,39,82
53,141,87,-97,-17,114,68,-273,-239,-82,53,107
87,151,63,-119,12,107,43,-326,-287,-122,53,122
117,161,43,-139,36,102,-24,-424,-361,-175,53,156
161,165,4,-163,78,85,-97,-546,-434,-224,68,200
204,165,-39,-185,122,63,-200,-717,-541,-287,68,239
219,161,-58,-190,139,51,-390,-956,-702,-385,53,263
248,161,-87,-204,168,36,-653,-1298,-951,-561,14,287
307,141,-165,-224,236,-12,-917,-1629,-1239,-741,-53,302
356,131,-224,-244,290,-46,-1166,-1903,-1459,-917,-112,322
414,131,-283,-273,348,-75,-1415,-2117,-1625,-1034,-146,361
488,156,-331,-322,409,-87,-1610,-2259,-1727,-1093,-146,429
546,165,-380,-356,463,-107,-1751,-2347,-1815,-1146,-151,502
585,175,-409,-380,497,-117,-1844,-2371,-1869,-1185,-156,556
639,204,-434,-422,536,-114,-1878,-2313,-1849,-1185,-117,624
727,258,-468,-492,597,-104,-1873,-2205,-1805,-1161,-68,707
805,283,-522,-544,663,-119,-1893,-2181,-1834,-1205,-78,736
824,292,-531,-558,678,-119,-1898,-2264,-1952,-1278,-107,736
844,317,-527,-580,685,-104,-1898,-2318,-2015,-1317,-141,732
863,317,-546,-590,705,-114,-1878,-2298,-1986,-1288,-141,746
844,273,-570,-558,707,-148,-1839,-2274,-1927,-1249,-141,756
824,229,-595,-527,710,-183,-1776,-2293,-1937,-1249,-161,746
810,209,-600,-509,705,-195,-1712,-2303,-1956,-1249,-185,736
785,190,-595,-488,690,-202,-1659,-2303,-1966,-1244,-180,712
775,170,-605,-473,690,-217,-1620,-2322,-1981,-1254,-190,697
751,190,-561,-470,656,-185,-1595,-2347,-2005,-1254,-180,697
732,204,-527,-468,629,-161,-1566,-2366,-2015,-1249,-156,727
732,195,-536,-463,634,-170,-1546,-2366,-2000,-1239,-156,746
722,165,-556,-444,639,-195,-1522,-2352,-1981,-1239,-185,746
722,151,-570,-436,646,-209,-1498,-2332,-1976,-1239,-214,736
736,156,-580,-446,658,-212,-1464,-2313,-1947,-1229,-214,756
736,141,-595,-439,666,-226,-1424,-2259,-1893,-1200,-195,766
727,117,-610,-422,668,-246,-1385,-2200,-1844,-1180,-214,736
732,78,-653,-405,692,-287,-1342,-2142,-1800,-1180,-248,668
727,29,-697,-378,712,-334,-1288,-2054,-1732,-1180,-297,600
722,-48,-771,-336,746,-409,-1229,-1952,-1664,-1176,-370,517
712,-131,-844,-290,778,-488,-1161,-1839,-1581,-1166,-444,434
702,-200,-902,-251,802,-551,-1093,-1742,-1498,-1156,-512,366
712,-204,-917,-253,814,-561,-1024,-1634,-1400,-1107,-527,331
717,-195,-912,-261,814,-553,-941,-1507,-1273,-1039,-507,326
692,-209,-902,-241,797,-556,-888,-1371,-1156,-985,-502,297
683,-244,-927,-219,805,-585,-829,-1254,-1078,-951,-522,239
678,-258,-936,-209,807,-597,-761,-1122,-990,-912,-527,180
673,-263,-936,-204,805,-600,-697,-990,-907,-863,-531,117
639,-278,-917,-180,778,-597,-629,-888,-814,-795,-541,63
610,-297,-907,-156,758,-602,-551,-785,-736,-736,-546,9
575,-297,-873,-139,724,-585,-473,-697,-663,-688,-546,-34
551,-283,-834,-134,692,-558,-419,-624,-590,-653,-531,-58
531,-253,-785,-139,658,-519,-370,-561,-546,-619,-507,-78
531,-229,-761,-151,646,-495,-331,-517,-512,-585,-492,-92
507,-209,-717,-148,612,-463,-307,-458,-492,-551,-478,-107
468,-190,-658,-139,563,-424,-278,-424,-463,-512,-458,-126
424,-170,-595,-126,509,-383,-248,-375,-409,-458,-424,-136
361,-141,-502,-109,431,-322,-200,-317,-346,-390,-370,-122
302,-107,-409,-97,356,-258,-131,-263,-278,-322,-326,-112
263,-63,-326,-100,295,-195,-68,-200,-200,-244,-268,-87
224,-53,-278,-85,251,-165,-14,-126,-141,-175,-219,-78
214,-24,-239,-95,226,-131,29,-68,-87,-136,-190,-68
195,4,-190,-100,192,-92,58,-4,-39,-87,-136,-48
136,24,-112,-80,124,-43,82,48,14,-39,-97,-39
107,43,-63,-75,85,-9,97,78,43,9,-63,-43
102,68,-34,-85,68,17,122,117,92,58,-39,-34
78,68,-9,-73,43,29,156,151,146,102,-9,-34
43,48,4,-46,19,26,185,190,180,126,4,-48
24,48,24,-36,0,36,214,224,209,136,14,-48
24,68,43,-46,-9,56,229,239,209,146,29,-48
19,68,48,-43,-14,58,219,239,209,136,24,-39
24,68,43,-46,-9,56,214,248,214,141,29,-43
24,68,43,-46,-9,56,214,253,214,156,39,-43
29,78,48,-53,-9,63,214,263,224,165,43,-43
14,68,53,-41,-19,61,214,253,248,175,53,-43
9,68,58,-39,-24,63,224,263,253,190,53,-43
4,68,63,-36,-29,65,234,268,253,190,53,-43
4,73,68,-39,-31,70,239,278,263,190,53,-43
4,78,73,-41,-34,75,229,283,253,180,43,-43
-4,78,82,-36,-43,80,229,287,253,190,48,-43
-4,78,82,-36,-43,80,229,292,263,195,53,-43
0,82,82,-41,-41,82,229,292,268,195,53,-39
4,82,78,-43,-36,80,229,297,268,204,53,-39
4,82,78,-43,-36,80,234,302,278,209,58,-39
4,82,78,-43,-36,80,234,307,283,214,58,-39
4,82,78,-43,-36,80,244,312,283,214,58,-39
-9,82,92,-36,-51,87,253,326,292,219,58,-34
-14,78,92,-31,-53,85,253,326,302,219,63,-34
-14,78,92,-31,-53,85,253,331,312,229,73,-34
-14,82,97,-34,-56,90,253,336,317,234,78,-34
0,87,87,-43,-43,87,244,326,317,239,78,-43
0,87,87,-43,-43,87,244,331,317,244,78,-43
0,87,87,-43,-43,87,244,331,312,244,78,-48
-4,87,92,-41,-48,90,244,341,317,244,78,-48
-4,92,97,-43,-51,95,258,356,331,244,87,-39
-4,92,97,-43,-51,95,258,361,331,248,87,-39
-4,97,102,-46,-53,100,258,361,331,248,82,-43
-4,97,102,-46,-53,100,258,361,336,248,82,-43
-4,92,97,-43,-51,95,253,361,336,248,78,-53
-4,87,92,-41,-48,90,253,366,341,248,82,-53
-4,82,87,-39,-46,85,253,375,341,258,82,-53
-4,78,82,-36,-43,80,253,375,346,258,82,-53
-9,78,87,-34,-48,82,253,380,361,268,82,-53
-14,78,92,-31,-53,85,258,385,366,268,82,-53
-24,78,102,-26,-63,90,258,390,366,268,82,-53
-29,82,112,-26,-70,97,258,390,370,273,92,-48
-24,92,117,-34,-70,104,268,405,375,287,102,-39
-19,92,112,-36,-65,102,268,409,380,292,97,-48
-14,82,97,-34,-56,90,268,414,385,292,97,-48
-9,92,102,-41,-56,97,273,424,390,292,102,-48
-9,92,102,-41,-56,97,273,419,395,283,92,-48
-9,92,102,-41,-56,97,273,424,400,292,97,-43
-9,92,102,-41,-56,97,278,429,405,292,102,-43
-9,92,102,-41,-56,97,278,434,409,297,102,-43
-19,92,112,-36,-65,102,278,434,414,307,97,-58
-19,92,112,-36,-65,102,278,444,419,312,102,-58
-19,92,112,-36,-65,102,283,448,424,317,102,-53
-19,92,112,-36,-65,102,287,453,429,326,102,-53
-9,97,107,-43,-58,102,287,468,439,331,112,-58
-9,97,107,-43,-58,102,287,478,444,331,112,-58
-9,102,112,-46,-61,107,292,483,448,336,117,-53
-14,102,117,-43,-65,109,292,488,453,341,122,-53
-24,97,122,-36,-73,109,297,497,458,346,122,-43
-14,97,112,-41,-63,104,297,502,468,351,122,-43
0,102,102,-51,-51,102,297,512,478,351,126,-43
-19,102,122,-41,-70,112,297,517,483,361,126,-48
-29,102,131,-36,-80,117,302,522,488,361,131,-58
-29,102,131,-36,-80,117,302,531,492,366,131,-58
-29,102,131,-36,-80,117,302,536,502,370,131,-58
-29,107,136,-39,-82,122,307,546,512,375,131,-58
-19,107,126,-43,-73,117,312,561,527,370,136,-68
-19,107,126,-43,-73,117,317,570,531,375,136,-68
-24,107,131,-41,-78,119,317,570,536,380,141,-68
-24,107,131,-41,-78,119,317,575,541,390,141,-68
-24,117,141,-46,-82,129,326,595,551,405,146,-63
-24,122,146,-48,-85,134,326,605,556,405,146,-63
-24,122,146,-48,-85,134,326,610,561,405,146,-63
-24,122,146,-48,-85,134,326,614,566,409,146,-68
-39,112,151,-36,-95,131,331,624,570,419,161,-68
-39,112,151,-36,-95,131,336,634,575,419,161,-68
-39,112,151,-36,-95,131,341,644,585,424,161,-68
-39,112,151,-36,-95,131,351,658,590,429,165,-68
-43,117,161,-36,-102,139,351,658,595,434,156,-68
-43,117,161,-36,-102,139,351,668,600,434,156,-68
-43,117,161,-36,-102,139,351,673,605,434,156,-73
-48,122,170,-36,-109,146,356,678,610,444,156,-73
-43,126,170,-41,-107,148,370,692,614,448,161,-73
-43,126,170,-41,-107,148,370,697,619,448,161,-78
-43,126,170,-41,-107,148,366,702,624,448,161,-78
-39,131,170,-46,-104,151,366,707,629,458,165,-78
-48,122,170,-36,-109,146,370,722,634,468,175,-78
-48,122,170,-36,-109,146,380,732,639,468,170,-78
-48,126,175,-39,-112,151,380,736,639,473,170,-82
-48,126,175,-39,-112,151,385,741,649,478,170,-87
-58,131,190,-36,-124,161,395,751,653,473,170,-78
-63,136,200,-36,-131,168,400,756,653,473,170,-78
-63,146,209,-41,-136,178,400,756,653,473,175,-78
-63,161,224,-48,-143,192,400,756,658,478,175,-78
-73,141,214,-34,-143,178,405,766,668,478,165,-78
-73,141,214,-34,-143,178,405,771,668,478,165,-82
-63,151,214,-43,-139,183,405,775,668,478,165,-82
-63,151,214,-43,-139,183,409,780,673,478,165,-92
-73,141,214,-34,-143,178,409,790,673,483,161,-87
-73,141,214,-34,-143,178,409,795,673,483,161,-87
-73,141,214,-34,-143,178,414,800,683,483,161,-87
-73,141,214,-34,-143,178,424,800,683,483,161,-87
-68,151,219,-41,-143,185,424,800,688,483,161,-87
-73,151,224,-39,-148,187,419,800,688,488,161,-92
-68,151,219,-41,-143,185,419,805,688,488,156,-97
-58,151,209,-46,-134,180,419,805,688,483,146,-97
-63,141,204,-39,-134,173,414,805,688,483,156,-92
-63,146,209,-41,-136,178,414,810,688,483,156,-92
-63,146,209,-41,-136,178,419,810,688,483,156,-97
-68,141,209,-36,-139,175,424,805,688,483,156,-97
-68,151,219,-41,-143,185,424,805,688,478,156,-97
-58,151,209,-46,-134,180,424,805,688,478,156,-92
-58,151,209,-46,-134,180,419,800,688,478,156,-87
-58,151,209,-46,-134,180,414,790,678,468,146,-87
-43,151,195,-53,-119,173,390,780,668,453,141,-97
-39,151,190,-56,-114,170,385,775,663,448,131,-97
-39,146,185,-53,-112,165,385,771,658,448,126,-97
-39,146,185,-53,-112,165,385,761,653,448,122,-97
-39,141,180,-51,-109,161,395,756,644,448,131,-87
-39,136,175,-48,-107,156,390,736,629,444,126,-87
-43,122,165,-39,-104,143,385,727,624,434,117,-92
-43,117,161,-36,-102,139,380,717,610,429,117,-92
-43,107,151,-31,-97,129,370,707,605,419,117,-82
-34,107,141,-36,-87,124,356,697,600,409,117,-78
-24,102,126,-39,-75,114,351,683,590,395,112,-78
-19,97,117,-39,-68,107,336,663,575,380,107,-78
0,112,112,-56,-56,112,331,653,566,370,97,-82
4,117,112,-61,-53,114,326,649,556,370,97,-73
4,112,107,-58,-51,109,322,624,551,356,92,-68
4,112,107,-58,-51,109,312,610,541,346,92,-68
14,97,82,-56,-34,90,297,585,522,331,82,-53
24,97,73,-61,-24,85,287,570,512,326,78,-48
29,97,68,-63,-19,82,273,556,497,322,78,-48
34,92,58,-63,-12,75,263,541,488,307,68,-43
48,102,53,-75,-2,78,253,522,458,297,68,-48
53,97,43,-75,4,70,244,502,444,287,68,-48
58,97,39,-78,9,68,234,483,429,278,68,-39
63,97,34,-80,14,65,224,463,409,263,63,-29
58,92,34,-75,12,63,214,434,385,244,58,-24
68,82,14,-75,26,48,204,424,375,234,53,-29
68,78,9,-73,29,43,195,405,366,224,53,-29
68,68,0,-68,34,34,185,395,351,214,48,-29
78,58,-19,-68,48,19,175,366,336,214,43,-29
92,58,-34,-75,63,12,161,346,317,195,39,-24
92,58,-34,-75,63,12,151,326,297,190,39,-19
87,58,-29,-73,58,14,146,307,278,180,39,-14
78,53,-24,-65,51,14,141,297,278,170,43,0
78,53,-24,-65,51,14,136,278,263,165,43,4
87,58,-29,-73,58,14,122,258,244,151,39,4
87,63,-24,-75,56,19,112,239,229,141,39,9
92,58,-34,-75,63,12,107,214,214,136,39,4
92,53,-39,-73,65,7,102,204,195,131,34,4
92,53,-39,-73,65,7,97,185,175,117,34,14
92,48,-43,-70,68,2,92,170,156,107,34,14
92,48,-43,-70,68,2,82,170,151,107,24,24
87,48,-39,-68,63,4,73,151,126,92,24,24
87,48,-39,-68,63,4,73,131,112,82,19,29
87,53,-34,-70,61,9,68,117,102,78,19,34
78,53,-24,-65,51,14,53,102,92,78,19,34
78,53,-24,-65,51,14,53,92,82,73,14,29
78,53,-24,-65,51,14,53,82,73,68,14,24
78,53,-24,-65,51,14,53,73,63,63,9,24
73,53,-19,-63,46,17,58,73,58,58,19,19
68,43,-24,-56,46,9,53,63,53,48,9,19
68,43,-24,-56,46,9,48,53,48,39,9,19
68,43,-24,-56,46,9,48,43,39,39,9,19
63,43,-19,-53,41,12,43,29,24,39,9,14
63,43,-19,-53,41,12,39,24,19,34,4,14
63,43,-19,-53,41,12,34,19,14,24,0,9
58,43,-14,-51,36,14,29,14,4,19,0,4
58,29,-29,-43,43,0,39,19,4,19,0,4
53,29,-24,-41,39,2,34,14,0,14,0,4
53,29,-24,-41,39,2,34,9,-4,9,-9,4
53,29,-24,-41,39,2,34,4,-9,9,-14,4
63,34,-29,-48,46,2,43,-4,-24,0,-14,4
58,39,-19,-48,39,9,43,-4,-29,-9,-14,-4
53,48,-4,-51,29,21,43,-4,-29,-9,-14,-4
53,53,0,-53,26,26,39,-4,-29,-9,-14,-4
43,34,-9,-39,26,12,39,-9,-29,0,-14,-4
43,34,-9,-39,26,12,39,-9,-39,0,-14,-4
43,39,-4,-41,24,17,39,-9,-39,0,-24,-4
43,39,-4,-41,24,17,39,-14,-39,-4,-24,-9
34,39,4,-36,14,21,34,-19,-29,-4,-24,-24
29,39,9,-34,9,24,34,-19,-29,-4,-24,-24
29,34,4,-31,12,19,34,-14,-29,-4,-29,-19
24,34,9,-29,7,21,39,-14,-29,-4,-29,-19
24,34,9,-29,7,21,39,-14,-29,0,-29,-9
29,39,9,-34,9,24,39,-14,-29,0,-29,-9
34,39,4,-36,14,21,43,-14,-29,0,-24,-14
43,39,-4,-41,24,17,43,-9,-29,0,-24,-14
34,39,4,-36,14,21,53,-9,-34,0,-19,-24
29,39,9,-34,9,24,53,-9,-34,0,-19,-19
29,39,9,-34,9,24,53,-9,-29,4,-19,-19
29,39,9,-34,9,24,53,-4,-29,4,-19,-24
19,29,9,-24,4,19,43,-4,-24,9,-24,-14
14,29,14,-21,0,21,43,0,-24,9,-24,-14
14,34,19,-24,-2,26,48,0,-19,9,-24,-14
14,34,19,-24,-2,26,48,0,-19,9,-24,-14
14,34,19,-24,-2,26,58,9,-19,14,-14,-24
9,34,24,-21,-7,29,58,9,-19,14,-14,-14
9,34,24,-21,-7,29,63,14,-19,14,-14,-14
9,34,24,-21,-7,29,63,14,-9,19,-14,-14
14,24,9,-19,2,17,53,14,0,9,-19,-19
19,24,4,-21,7,14,53,14,0,14,-19,-19
19,24,4,-21,7,14,53,14,0,14,-19,-19
9,24,14,-17,-2,19,58,14,0,14,-19,-19
4,24,19,-14,-7,21,58,19,-9,24,-19,-19
4,24,19,-14,-7,21,63,19,-4,24,-19,-19
0,24,24,-12,-12,24,63,24,0,24,-19,-19
0,24,24,-12,-12,24,63,24,4,34,-19,-14
0,24,24,-12,-12,24,73,34,14,34,-9,-14
0,29,29,-14,-14,29,73,39,14,34,-9,-14
0,29,29,-14,-14,29,73,39,29,39,-4,-14
0,34,34,-17,-17,34,78,39,34,43,0,-14
9,43,34,-26,-12,39,68,43,34,53,0,-14
9,43,34,-26,-12,39,68,43,29,53,0,-14
9,39,29,-24,-9,34,73,43,29,53,0,-14
9,39,29,-24,-9,34,73,48,39,58,4,-14
9,39,29,-24,-9,34,73,39,39,48,4,-14
9,43,34,-26,-12,39,78,43,39,53,4,-14
4,43,39,-24,-17,41,78,43,39,53,4,-14
4,43,39,-24,-17,41,78,48,43,53,4,-14
0,43,43,-21,-21,43,87,48,53,53,4,-14
0,43,43,-21,-21,43,87,48,53,63,4,-14
-14,43,58,-14,-36,51,87,48,48,63,9,-14
-4,48,53,-21,-29,51,87,48,48,63,9,-9
-4,39,43,-17,-24,41,87,63,48,63,24,-9
-4,39,43,-17,-24,41,92,68,53,63,24,-9
-4,39,43,-17,-24,41,92,68,53,63,24,-9
-4,39,43,-17,-24,41,92,68,48,58,24,-9
-4,39,43,-17,-24,41,92,58,48,68,14,-19
-4,39,43,-17,-24,41,92,58,53,68,14,-19
-9,39,48,-14,-29,43,97,58,63,68,19,-19
-9,39,48,-14,-29,43,97,63,63,68,19,-19
-4,39,43,-17,-24,41,97,73,63,68,9,-19
-4,39,43,-17,-24,41,92,73,58,73,9,-19
-4,39,43,-17,-24,41,92,73,58,73,9,-19
-4,39,43,-17,-24,41,92,73,58,73,9,-24
-4,29,34,-12,-19,31,92,63,58,73,9,-14
-4,29,34,-12,-19,31,92,63,58,68,4,-14
-4,29,34,-12,-19,31,97,63,58,68,4,-14
-4,39,43,-17,-24,41,97,63,53,68,4,-14
-14,39,53,-12,-34,46,87,63,53,78,14,-14
-4,29,34,-12,-19,31,87,63,53,78,14,-14
-24,29,53,-2,-39,41,87,68,63,78,14,-14
-14,29,43,-7,-29,36,87,68,63,73,14,-14
-14,39,53,-12,-34,46,92,68,58,73,4,-24
-9,39,48,-14,-29,43,92,68,53,68,4,-24
-4,39,43,-17,-24,41,92,68,48,68,4,-24
-4,29,34,-12,-19,31,92,68,43,68,0,-24
-4,19,24,-7,-14,21,87,58,43,58,0,-34
-4,24,29,-9,-17,26,87,58,43,58,0,-34
-9,24,34,-7,-21,29,78,58,43,58,0,-34
-9,24,34,-7,-21,29,78,48,48,53,0,-39
-19,34,53,-7,-36,43,78,48,48,53,-9,-39
-19,34,53,-7,-36,43,78,48,43,53,-14,-39
-14,34,48,-9,-31,41,78,48,39,53,-14,-39
-14,34,48,-9,-31,41,78,48,34,53,-14,-39
0,34,34,-17,-17,34,73,48,34,53,-4,-39
0,34,34,-17,-17,34,73,48,29,48,-9,-39
0,34,34,-17,-17,34,68,43,24,43,-9,-39
0,34,34,-17,-17,34,63,39,19,43,-9,-39
-9,19,29,-4,-19,24,68,39,19,34,-9,-29
-9,19,29,-4,-19,24,68,34,24,34,-9,-29
-9,19,29,-4,-19,24,68,34,24,34,-9,-29
-9,24,34,-7,-21,29,68,34,24,34,-9,-24
0,34,34,-17,-17,34,58,29,19,29,-9,-34
0,34,34,-17,-17,34,63,29,19,29,-14,-34
0,24,24,-12,-12,24,63,29,19,29,-14,-34
0,24,24,-12,-12,24,63,29,19,24,-9,-34
-9,14,24,-2,-17,19,63,24,24,34,0,-24
-9,14,24,-2,-17,19,63,19,19,29,0,-24
-9,14,24,-2,-17,19,63,19,19,29,-9,-24
-4,9,14,-2,-9,12,63,19,14,29,-9,-24
-14,9,24,2,-19,17,63,9,4,19,-9,-34
-14,14,29,0,-21,21,63,14,4,19,-9,-39
-24,24,48,0,-36,36,63,14,4,14,-9,-39
-24,9,34,7,-29,21,63,4,4,14,-9,-39
-9,9,19,0,-14,14,63,9,4,14,-24,-48
-9,9,19,0,-14,14,63,9,4,14,-24,-43
-19,9,29,4,-24,19,63,9,4,14,-14,-43
-9,9,19,0,-14,14,58,9,0,9,-24,-43
-14,0,14,7,-14,7,58,9,0,9,-24,-43
-24,4,29,9,-26,17,58,9,0,9,-24,-43
-29,4,34,12,-31,19,58,4,0,9,-24,-43
-29,-4,24,17,-26,9,53,4,-4,9,-24,-48
-29,4,34,12,-31,19,53,4,4,14,-14,-39
-29,4,34,12,-31,19,53,4,4,14,-19,-39
-29,4,34,12,-31,19,53,0,0,14,-19,-39
-34,4,39,14,-36,21,58,0,0,14,-19,-39
-34,4,39,14,-36,21,58,-4,-4,14,-19,-39
-34,4,39,14,-36,21,53,-4,-4,14,-19,-39
-34,4,39,14,-36,21,53,0,-4,14,-19,-39
-29,9,39,9,-34,24,53,0,-4,9,-19,-39
-29,14,43,7,-36,29,43,-9,-24,0,-29,-48
-34,14,48,9,-41,31,39,-9,-24,4,-29,-48
-34,9,43,12,-39,26,39,-14,-24,4,-29,-48
-29,9,39,9,-34,24,43,-19,-24,-4,-29,-53
-19,9,29,4,-24,19,43,-14,-14,-4,-19,-43
-29,4,34,12,-31,19,39,-14,-14,0,-24,-43
-29,4,34,12,-31,19,39,-9,-14,0,-24,-43
-24,4,29,9,-26,17,43,-9,-14,0,-24,-39
-29,14,43,7,-36,29,43,-9,-4,9,-19,-39
-34,14,48,9,-41,31,43,-14,-4,9,-19,-39
-39,19,58,9,-48,39,39,-14,-4,9,-19,-39
-43,19,63,12,-53,41,39,-14,-9,4,-19,-39
-34,19,53,7,-43,36,39,-9,-24,-4,-24,-29
-29,14,43,7,-36,29,39,-9,-24,-4,-24,-34
-24,9,34,7,-29,21,39,-14,-24,-4,-24,-34
-24,4,29,9,-26,17,43,-14,-24,-4,-19,-34
-39,9,48,14,-43,29,43,-14,-24,-4,-29,-34
-39,9,48,14,-43,29,43,-14,-24,-4,-29,-34
-34,9,43,12,-39,26,43,-24,-24,-4,-34,-34
-24,9,34,7,-29,21,39,-29,-24,-4,-34,-34
-24,9,34,7,-29,21,43,-9,-24,4,-24,-34
-39,4,43,17,-41,24,34,-19,-24,4,-24,-34
-43,4,48,19,-46,26,29,-34,-43,-4,-34,-43
-34,14,48,9,-41,31,39,-14,-34,-4,-39,-43
-39,9,48,14,-43,29,48,0,-29,0,-29,-39
-39,9,48,14,-43,29,43,-4,-29,0,-29,-39
-39,9,48,14,-43,29,39,-9,-29,0,-29,-39
-39,9,48,14,-43,29,34,-14,-29,0,-29,-39
-39,9,48,14,-43,29,29,-19,-29,0,-29,-39
-48,9,58,19,-53,34,29,-19,-29,-9,-29,-39
-48,9,58,19,-53,34,29,-19,-29,-9,-29,-39
-48,9,58,19,-53,34,29,-19,-29,-9,-29,-39
-48,9,58,19,-53,34,29,-19,-29,-9,-29,-39
-34,39,73,-2,-53,56,19,-9,-19,14,-14,-19
-29,58,87,-14,-58,73,9,-9,-9,29,0,-9
-24,78,102,-26,-63,90,0,-9,0,43,14,0
980,1098,117,-1039,431,607,990,990,1010,1058,1029,1010
-39,43,82,-2,-61,63,14,-24,-9,24,-4,-14
-48,0,48,24,-48,24,29,-29,-29,0,-29,-39
-58,-43,14,51,-36,-14,43,-34,-48,-24,-53,-63
-68,-87,-19,78,-24,-53,58,-39,-68,-48,-78,-87
-68,-63,4,65,-36,-29,43,-34,-53,-39,-58,-78
-68,-48,19,58,-43,-14,39,-29,-48,-29,-48,-68
-68,-34,34,51,-51,0,34,-24,-43,-19,-39,-58
-68,-19,48,43,-58,14,29,-19,-39,-9,-29,-48
-63,-4,58,34,-61,26,24,-24,-39,-19,-29,-48
-58,0,58,29,-58,29,19,-29,-39,-19,-29,-48
-53,4,58,24,-56,31,14,-34,-39,-19,-29,-48
-48,9,58,19,-53,34,9,-39,-39,-19,-29,-48
-48,19,68,14,-58,43,19,-34,-29,-14,-24,-34
-48,19,68,14,-58,43,19,-29,-29,-9,-19,-29
-48,19,68,14,-58,43,19,-24,-29,-4,-14,-24
-48,19,68,14,-58,43,19,-19,-29,0,-9,-19
-43,34,78,4,-61,56,4,-24,-29,9,-19,-29
-39,39,78,0,-58,58,0,-29,-29,9,-19,-29
-34,43,78,-4,-56,61,-4,-34,-29,9,-19,-29
-29,48,78,-9,-53,63,-9,-39,-29,9,-19,-29
-39,39,78,0,-58,58,-19,-34,-19,19,-4,-24
-48,39,87,4,-68,63,-19,-29,-19,19,0,-19
-58,39,97,9,-78,68,-19,-24,-19,19,4,-14
-68,39,107,14,-87,73,-19,-19,-19,19,9,-9
-63,39,102,12,-82,70,-24,-29,-19,19,0,-9
-58,39,97,9,-78,68,-29,-29,-19,19,0,-9
-53,39,92,7,-73,65,-34,-39,-19,19,0,-9
-53,39,92,7,-73,65,-39,-43,-24,14,0,-9
-43,34,78,4,-61,56,-29,-34,-14,14,9,-4
-43,34,78,4,-61,56,-29,-24,-14,14,9,-4
-53,34,87,9,-70,61,-29,-24,-14,14,9,-4
-53,29,82,12,-68,56,-24,-34,-14,14,9,-4
-53,39,92,7,-73,65,-34,-43,-29,9,0,-9
-53,39,92,7,-73,65,-34,-39,-29,9,0,-9
-48,34,82,7,-65,58,-34,-39,-24,14,0,-4
-48,34,82,7,-65,58,-24,-34,-24,14,0,-4
-48,34,82,7,-65,58,-24,-24,-24,14,9,4
-48,34,82,7,-65,58,-24,-19,-24,14,14,4
-48,29,78,9,-63,53,-24,-19,-19,14,14,4
-48,29,78,9,-63,53,-19,-19,-19,14,14,0
-48,19,68,14,-58,43,-29,-29,-24,14,4,-14
-48,14,63,17,-56,39,-29,-34,-29,4,-9,-14
-53,0,53,26,-53,26,-29,-34,-29,4,-14,-19
-53,0,53,26,-53,26,-29,-34,-29,4,-19,-19
-63,-9,53,36,-58,21,-19,-29,-24,14,-19,-19
-63,-9,53,36,-58,21,-19,-34,-24,14,-14,-19
-73,-19,53,46,-63,17,-19,-34,-29,0,-9,-19
-73,-19,53,46,-63,17,-19,-39,-39,-9,-14,-29
-58,-14,43,36,-51,14,-24,-53,-53,-14,-19,-29
-48,-4,43,26,-46,19,-29,-63,-53,-14,-19,-29
-48,0,48,24,-48,24,-43,-68,-58,-19,-19,-24
-39,0,39,19,-39,19,-48,-68,-58,-19,-24,-24
-14,0,14,7,-14,7,-58,-82,-58,-29,-24,-19
-9,0,9,4,-9,4,-58,-82,-58,-29,-19,-14
-9,0,9,4,-9,4,-58,-73,-48,-19,-14,-14
-9,-9,0,9,-4,-4,-58,-63,-43,-19,-14,-19
-14,-24,-9,19,-2,-17,-48,-53,-43,-19,-14,-9
-14,-29,-14,21,0,-21,-39,-48,-43,-19,-19,-9
-14,-39,-24,26,4,-31,-29,-48,-43,-24,-24,-14
-24,-53,-29,39,2,-41,-29,-48,-48,-34,-34,-29
-24,-68,-43,46,9,-56,-29,-53,-63,-43,-58,-39
-24,-68,-43,46,9,-56,-29,-53,-63,-48,-58,-53
-24,-68,-43,46,9,-56,-29,-53,-58,-48,-58,-53
-24,-73,-48,48,12,-61,-24,-53,-58,-48,-58,-48
-19,-82,-63,51,21,-73,-14,-53,-43,-39,-43,-43
-9,-82,-73,46,31,-78,-14,-48,-39,-34,-39,-39
-4,-78,-73,41,34,-75,-14,-39,-39,-29,-39,-39
-4,-78,-73,41,34,-75,-14,-34,-29,-29,-39,-39
4,-68,-73,31,39,-70,-19,-29,-34,-29,-39,-39
4,-58,-63,26,34,-61,-9,-24,-34,-29,-39,-34
-4,-58,-53,31,24,-56,-4,-19,-34,-24,-39,-34
-24,-58,-34,41,4,-46,14,-14,-34,-19,-39,-34
-48,-53,-4,51,-21,-29,24,-14,-19,-4,-19,-43
-63,-43,19,53,-41,-12,34,-14,-19,0,-19,-43
-68,-39,29,53,-48,-4,39,-14,-19,4,-19,-39
-78,-29,48,53,-63,9,48,-14,-19,4,-14,-39
-87,-29,58,58,-73,14,53,-14,-29,-4,-24,-53
-92,-34,58,63,-75,12,53,-19,-34,-9,-24,-58
-92,-39,53,65,-73,7,48,-24,-39,-14,-29,-58
-92,-43,48,68,-70,2,48,-29,-43,-19,-34,-58
-82,-43,39,63,-61,-2,48,-19,-34,-19,-29,-53
-82,-43,39,63,-61,-2,48,-24,-39,-24,-34,-58
-82,-43,39,63,-61,-2,53,-24,-43,-24,-39,-58
-82,-43,39,63,-61,-2,53,-24,-43,-24,-39,-58
-78,-34,43,56,-61,4,43,-24,-39,-24,-34,-58
-87,-39,48,63,-68,4,48,-19,-39,-19,-29,-58
-87,-34,53,61,-70,9,48,-19,-39,-19,-29,-48
-131,-24,107,78,-119,41,48,-161,-200,-126,-87,-92
741,976,234,-858,253,605,990,141,82,385,624,751
-268,-48,219,158,-244,85,-14,-741,-785,-536,-336,-234
-14,-48,-34,31,9,-41,102,702,732,473,263,107
34,-34,-68,0,51,-51,126,814,858,580,317,136
-112,-29,82,70,-97,26,63,-19,-39,-4,-29,-58
-102,-24,78,63,-90,26,92,73,53,39,4,-48
-58,-4,53,31,-56,24,141,351,331,229,117,9
-107,-4,102,56,-104,48,141,180,126,107,43,-43
-117,-9,107,63,-112,48,151,126,68,58,9,-63
-97,-14,82,56,-90,34,161,185,122,97,34,-43
-107,-29,78,68,-92,24,146,102,34,24,-4,-53
-117,-29,87,73,-102,29,136,39,-34,-19,-43,-73
-126,-39,87,82,-107,24,136,63,-24,-9,-24,-63
-136,-39,97,87,-117,29,126,19,-73,-34,-24,-53
-122,-24,97,73,-109,36,107,-63,-151,-92,-43,-58
-112,-9,102,61,-107,46,92,-102,-185,-102,-34,-48
-107,-19,87,63,-97,34,73,-141,-219,-107,-34,-48
-107,-24,82,65,-95,29,53,-170,-244,-122,-39,-43
-126,-14,112,70,-119,48,48,-200,-244,-126,-39,-29
-122,-14,107,68,-114,46,14,-244,-273,-146,-34,-24
-92,-14,78,53,-85,31,-43,-302,-302,-161,-34,-19
-73,-9,63,41,-68,26,-43,-312,-312,-161,-19,4
-73,14,87,29,-80,51,19,-283,-317,-161,-4,29
-58,24,82,17,-70,53,82,-287,-346,-190,4,43
-29,24,53,2,-41,39,73,-336,-400,-244,4,78
4,39,34,-21,-14,36,19,-419,-473,-302,9,112
29,39,9,-34,9,24,-43,-561,-561,-366,0,151
43,14,-29,-29,36,-7,-165,-761,-702,-463,-24,175
82,14,-68,-48,75,-26,-400,-1083,-941,-629,-63,209
131,24,-107,-78,119,-41,-663,-1454,-1239,-819,-112,224
161,14,-146,-87,153,-65,-902,-1776,-1507,-1015,-180,244
209,-4,-214,-102,212,-109,-1122,-2020,-1712,-1171,-234,273
263,0,-263,-131,263,-131,-1356,-2230,-1883,-1278,-263,331
331,29,-302,-180,317,-136,-1556,-2386,-2020,-1351,-287,385
400,68,-331,-234,366,-131,-1688,-2459,-2113,-1429,-302,439
444,78,-366,-261,405,-143,-1751,-2469,-2161,-1488,-322,497
502,112,-390,-307,446,-139,-1805,-2420,-2156,-1512,-331,551
580,136,-444,-358,512,-153,-1844,-2357,-2137,-1517,-312,590
629,156,-473,-392,551,-158,-1859,-2352,-2176,-1551,-312,619
639,161,-478,-400,558,-158,-1859,-2386,-2230,-1600,-346,614
629,161,-468,-395,549,-153,-1830,-2366,-2191,-1571,-336,629
649,146,-502,-397,575,-178,-1790,-2313,-2122,-1503,-307,639
649,131,-517,-390,583,-192,-1727,-2293,-2113,-1473,-317,629
624,102,-522,-363,573,-209,-1664,-2303,-2113,-1464,-351,619
580,73,-507,-326,544,-217,-1610,-2283,-2093,-1439,-346,614
570,34,-536,-302,553,-251,-1551,-2274,-2069,-1420,-346,600
546,14,-531,-280,539,-258,-1517,-2298,-2093,-1429,-356,590
536,19,-517,-278,527,-248,-1507,-2327,-2113,-1434,-351,600
536,48,-488,-292,512,-219,-1488,-2318,-2098,-1415,-331,619
536,58,-478,-297,507,-209,-1473,-2293,-2069,-1415,-341,619
536,34,-502,-285,519,-234,-1449,-2264,-2054,-1405,-361,619
522,9,-512,-265,517,-251,-1405,-2235,-2005,-1385,-370,629
522,-14,-536,-253,529,-275,-1376,-2200,-1961,-1356,-370,629
531,-39,-570,-246,551,-305,-1337,-2171,-1932,-1346,-400,600
536,-87,-624,-224,580,-356,-1283,-2113,-1898,-1346,-434,570
531,-136,-668,-197,600,-402,-1229,-2015,-1820,-1346,-473,502
536,-195,-732,-170,634,-463,-1180,-1912,-1742,-1332,-527,429
527,-287,-814,-119,671,-551,-1132,-1810,-1668,-1322,-590,336
527,-346,-873,-90,700,-610,-1073,-1712,-1576,-1302,-658,258
527,-370,-897,-78,712,-634,-995,-1595,-1468,-1254,-673,214
512,-370,-883,-70,697,-627,-912,-1478,-1351,-1166,-644,200
527,-375,-902,-75,714,-639,-858,-1371,-1234,-1093,-639,180
527,-390,-917,-68,722,-653,-790,-1244,-1137,-1039,-649,141
512,-424,-936,-43,724,-680,-732,-1122,-1039,-990,-644,82
488,-439,-927,-24,707,-683,-668,-980,-946,-932,-639,9
463,-444,-907,-9,685,-675,-610,-858,-854,-873,-639,-53
444,-444,-888,0,666,-666,-551,-756,-766,-814,-634,-97
429,-434,-863,2,646,-649,-483,-658,-673,-746,-614,-131
395,-419,-814,12,605,-617,-419,-575,-590,-673,-600,-146
366,-400,-766,17,566,-583,-370,-531,-527,-629,-566,-146
366,-385,-751,9,558,-568,-341,-488,-492,-595,-551,-151
341,-375,-717,17,529,-546,-307,-448,-473,-570,-527,-175
322,-346,-668,12,495,-507,-287,-405,-453,-541,-507,-195
287,-307,-595,9,441,-451,-248,-346,-400,-478,-444,-185
234,-258,-492,12,363,-375,-200,-278,-336,-390,-380,-170
175,-214,-390,19,283,-302,-161,-224,-268,-331,-336,-151
136,-170,-307,17,222,-239,-97,-161,-190,-253,-287,-117
107,-141,-248,17,178,-195,-43,-107,-122,-195,-239,-97
68,-131,-200,31,134,-165,-9,-78,-87,-156,-219,-87
29,-112,-141,41,85,-126,9,-43,-58,-107,-175,-78
-19,-73,-53,46,17,-63,43,9,-14,-58,-107,-78
-39,-43,-4,41,-17,-24,58,68,34,-9,-73,-63
-43,-29,14,36,-29,-7,73,107,82,29,-39,-63
-68,-19,48,43,-58,14,107,151,126,82,-19,-73
-82,-19,63,51,-73,21,146,190,170,117,-4,-68
-102,-29,73,65,-87,21,165,204,190,126,-14,-78
-112,-48,63,80,-87,7,170,190,190,117,-19,-78
-122,-39,82,80,-102,21,170,200,190,117,-14,-78
-122,-39,82,80,-102,21,165,209,195,122,0,-82
-126,-39,87,82,-107,24,165,214,195,136,19,-82
-126,-29,97,78,-112,34,165,224,204,146,34,-82
-141,-19,122,80,-131,51,165,234,219,146,24,-82
-146,-19,126,82,-136,53,175,244,224,161,24,-82
-151,-19,131,85,-141,56,185,248,224,161,24,-82
-151,-14,136,82,-143,61,190,258,234,161,24,-82
-146,0,146,73,-146,73,190,253,234,151,24,-82
-151,0,151,75,-151,75,190,258,234,161,29,-82
-146,0,146,73,-146,73,190,263,244,165,34,-82
-136,4,141,65,-139,73,190,263,248,165,34,-78
-136,-9,126,73,-131,58,180,268,248,175,43,-78
-141,-14,126,78,-134,56,185,273,258,180,48,-78
-146,-19,126,82,-136,53,185,278,263,185,48,-78
-151,-24,126,87,-139,51,195,283,263,185,48,-78
-156,-24,131,90,-143,53,204,287,268,180,39,-73
-161,-29,131,95,-146,51,204,287,273,180,43,-73
-161,-29,131,95,-146,51,204,292,278,190,53,-73
-161,-24,136,92,-148,56,204,297,278,195,58,-73
-156,-29,126,92,-141,48,204,297,283,200,58,-63
-156,-29,126,92,-141,48,204,302,287,204,58,-63
-156,-29,126,92,-141,48,204,302,287,204,58,-68
-161,-29,131,95,-146,51,204,312,297,204,58,-68
-151,-24,126,87,-139,51,200,317,292,204,58,-73
-151,-24,126,87,-139,51,200,322,292,209,58,-78
-151,-19,131,85,-141,56,200,322,292,209,53,-87
-151,-19,131,85,-141,56,200,322,297,209,53,-92
-156,-9,146,82,-151,68,204,322,307,219,58,-82
-161,-9,151,85,-156,70,204,326,312,219,63,-82
-165,-9,156,87,-161,73,204,336,312,229,63,-82
-170,-9,161,90,-165,75,204,336,317,229,63,-82
-170,-19,151,95,-161,65,214,341,322,229,73,-92
-170,-19,151,95,-161,65,219,346,326,229,73,-92
-175,-19,156,97,-165,68,219,351,326,229,73,-92
-175,-14,161,95,-168,73,219,351,331,234,82,-87
-170,-14,156,92,-163,70,209,356,346,248,92,-78
-165,-14,151,90,-158,68,209,361,351,253,87,-87
-161,-24,136,92,-148,56,209,366,356,253,87,-87
-156,-14,141,85,-148,63,214,375,361,253,92,-87
-161,-14,146,87,-153,65,214,390,366,244,87,-87
-165,-14,151,90,-158,68,214,395,370,253,87,-82
-170,-14,156,92,-163,70,219,400,375,253,87,-82
-175,-14,161,95,-168,73,219,405,380,258,82,-82
-175,-14,161,95,-168,73,219,400,375,258,87,-97
-175,-14,161,95,-168,73,219,405,380,263,92,-97
-175,-14,161,95,-168,73,224,405,385,268,92,-92
-175,-14,161,95,-168,73,229,405,390,278,92,-92
-175,-19,156,97,-165,68,229,409,400,283,92,-87
-175,-19,156,97,-165,68,229,419,405,283,92,-87
-175,-14,161,95,-168,73,234,424,409,287,97,-82
-180,-14,165,97,-173,75,234,429,414,292,102,-82
-190,-19,170,104,-180,75,239,448,419,287,102,-82
-180,-19,161,100,-170,70,239,453,429,292,102,-82
-165,-14,151,90,-158,68,239,463,439,292,107,-82
-185,-14,170,100,-178,78,239,468,444,302,107,-87
-185,-14,170,100,-178,78,244,463,439,302,122,-87
-185,-14,170,100,-178,78,244,473,444,307,122,-87
-185,-14,170,100,-178,78,244,478,453,312,122,-87
-185,-9,175,97,-180,82,248,488,463,317,122,-87
-185,-19,165,102,-175,73,244,502,478,331,117,-87
-185,-19,165,102,-175,73,248,512,483,336,117,-87
-190,-19,170,104,-180,75,248,512,488,341,122,-87
-190,-19,170,104,-180,75,248,517,492,351,122,-87
-200,-19,180,109,-190,80,248,531,497,356,126,-97
-200,-14,185,107,-192,85,248,536,497,356,126,-102
-200,-14,185,107,-192,85,248,536,497,356,126,-107
-200,-14,185,107,-192,85,248,536,497,361,126,-117
-195,-9,185,102,-190,87,253,536,512,361,131,-107
-195,-4,190,100,-192,92,258,546,517,361,131,-107
-195,0,195,97,-195,97,263,556,527,366,131,-107
-195,4,200,95,-197,102,273,570,531,370,136,-107
-190,9,200,90,-195,104,263,561,531,375,136,-107
-190,9,200,90,-195,104,263,570,531,375,136,-107
-190,9,200,90,-195,104,263,575,531,375,136,-112
-195,14,209,90,-202,112,268,580,531,385,136,-112
-209,14,224,97,-217,119,283,585,546,380,131,-112
-209,9,219,100,-214,114,283,590,551,380,131,-117
-209,4,214,102,-212,109,278,595,556,380,131,-117
-204,4,209,100,-207,107,278,600,561,390,136,-117
-195,19,214,87,-204,117,273,605,566,390,136,-117
-195,24,219,85,-207,122,283,614,570,390,131,-117
-195,34,229,80,-212,131,283,619,570,395,131,-122
-195,39,234,78,-214,136,287,624,580,400,131,-126
-204,29,234,87,-219,131,292,624,575,405,131,-126
-209,29,239,90,-224,134,292,629,575,405,131,-126
-209,34,244,87,-226,139,287,629,575,405,136,-126
-209,43,253,82,-231,148,283,629,580,409,136,-126
-229,43,273,92,-251,158,297,649,590,400,126,-117
-229,43,273,92,-251,158,297,653,590,400,126,-122
-219,53,273,82,-246,163,297,658,590,400,126,-122
-219,53,273,82,-246,163,302,663,595,400,126,-131
-219,43,263,87,-241,153,302,668,605,405,122,-136
-219,43,263,87,-241,153,302,668,605,405,122,-136
-219,43,263,87,-241,153,307,668,614,405,122,-136
-219,43,263,87,-241,153,317,663,614,405,122,-136
-219,43,263,87,-241,153,317,673,610,405,122,-146
-229,43,273,92,-251,158,312,673,610,409,122,-151
-229,43,273,92,-251,158,312,678,610,409,117,-156
-224,43,268,90,-246,156,312,678,610,405,107,-156
-219,43,263,87,-241,153,307,678,610,414,117,-151
-219,48,268,85,-244,158,307,683,610,414,117,-151
-219,48,268,85,-244,158,312,683,610,414,117,-156
-224,43,268,90,-246,156,317,678,610,414,117,-156
-224,34,258,95,-241,146,307,688,614,409,107,-146
-214,34,248,90,-231,141,307,688,619,409,107,-141
-214,34,248,90,-231,141,302,683,624,409,107,-136
-214,34,248,90,-231,141,297,673,619,400,97,-136
-200,34,234,82,-217,134,287,663,610,395,97,-136
-195,34,229,80,-212,131,287,658,605,390,92,-136
-195,29,224,82,-209,126,292,653,600,390,92,-136
-195,29,224,82,-209,126,297,644,595,390,92,-136
-190,29,219,80,-204,124,297,644,600,380,92,-126
-185,29,214,78,-200,122,292,629,590,375,87,-126
-185,19,204,82,-195,112,287,624,590,366,78,-131
-180,19,200,80,-190,109,283,619,580,361,78,-131
-180,29,209,75,-195,119,283,619,585,361,87,-122
-170,29,200,70,-185,114,268,610,580,361,87,-117
-161,24,185,68,-173,104,263,595,570,356,82,-117
-156,19,175,68,-165,97,248,575,556,351,78,-117
-151,19,170,65,-161,95,253,575,546,341,87,-122
-151,19,170,65,-161,95,248,570,536,341,87,-112
-156,9,165,73,-161,87,244,546,531,326,82,-107
-161,4,165,78,-163,85,234,531,522,317,82,-107
-146,0,146,73,-146,73,229,522,522,312,82,-102
-131,0,131,65,-131,65,219,512,512,307,78,-97
-122,0,122,61,-122,61,204,502,497,302,78,-97
-112,-4,107,58,-109,51,195,492,488,287,68,-92
-112,-9,102,61,-107,46,195,473,458,278,68,-78
-112,-19,92,65,-102,36,185,453,444,268,68,-78
-112,-24,87,68,-100,31,175,434,429,258,68,-68
-112,-29,82,70,-97,26,165,414,409,244,63,-58
-107,-29,78,68,-92,24,156,405,405,244,58,-48
-97,-34,63,65,-80,14,146,395,395,234,53,-48
-97,-34,63,65,-80,14,136,375,385,224,53,-43
-97,-39,58,68,-78,9,126,366,370,214,48,-39
-87,-39,48,63,-68,4,117,336,356,204,53,-34
-73,-39,34,56,-53,-2,102,317,336,185,48,-24
-73,-39,34,56,-53,-2,92,297,317,180,48,-14
-78,-39,39,58,-58,0,87,278,297,170,48,-4
-82,-39,43,61,-63,2,92,278,287,161,53,4
-78,-43,34,61,-56,-4,87,258,273,156,53,4
-63,-43,19,53,-41,-12,73,239,253,141,48,0
-58,-43,14,51,-36,-14,63,219,239,131,48,0
-63,-34,29,48,-46,-2,58,195,224,126,48,4
-63,-34,29,48,-46,-2,53,185,204,122,43,4
-63,-29,34,46,-48,2,48,165,185,107,43,14
-63,-29,34,46,-48,2,43,151,165,97,43,14
-63,-48,14,56,-39,-17,24,141,151,97,34,4
-68,-48,19,58,-43,-14,14,122,126,82,34,4
-68,-48,19,58,-43,-14,14,102,112,73,29,9
-68,-43,24,56,-46,-9,9,87,102,68,29,14
-68,-34,34,51,-51,0,14,92,102,58,39,24
-68,-34,34,51,-51,0,14,82,92,53,34,19
-68,-34,34,51,-51,0,14,73,82,48,34,14
-68,-34,34,51,-51,0,14,63,73,43,29,14
-73,-34,39,53,-56,2,9,63,63,39,29,9
-78,-43,34,61,-56,-4,4,53,53,29,19,9
-78,-43,34,61,-56,-4,0,43,43,19,19,9
-78,-43,34,61,-56,-4,0,34,29,19,19,9
-82,-53,29,68,-56,-12,0,19,14,19,19,14
-82,-53,29,68,-56,-12,0,14,9,14,14,14
-82,-53,29,68,-56,-12,0,9,4,4,9,9
-87,-53,34,70,-61,-9,0,4,-4,0,9,4
-87,-48,39,68,-63,-4,0,9,-4,-9,9,4
-92,-48,43,70,-68,-2,-4,4,-9,-14,9,4
-92,-48,43,70,-68,-2,-4,0,-14,-19,0,4
-92,-48,43,70,-68,-2,-4,-4,-19,-19,-4,4
-82,-48,34,65,-58,-7,-4,-14,-24,-19,-4,4
-87,-48,39,68,-63,-4,-4,-14,-29,-29,-4,-4
-92,-43,48,68,-70,2,-4,-14,-29,-29,-4,-4
-92,-43,48,68,-70,2,-9,-14,-29,-29,-4,-4
-92,-58,34,75,-63,-12,0,-19,-29,-29,-4,-4
-92,-63,29,78,-61,-17,0,-19,-39,-29,-4,-4
-92,-63,29,78,-61,-17,0,-19,-39,-29,-14,-4
-92,-68,24,80,-58,-21,0,-24,-39,-34,-14,-9
-92,-63,29,78,-61,-17,4,-19,-39,-24,-14,-14
-97,-58,39,78,-68,-9,4,-19,-39,-24,-14,-14
-97,-58,39,78,-68,-9,4,-14,-39,-24,-19,-9
-102,-53,48,78,-75,-2,9,-14,-39,-24,-19,-9
-107,-53,53,80,-80,0,9,-4,-29,-29,-19,-9
-107,-48,58,78,-82,4,9,-4,-29,-29,-19,-9
-107,-48,58,78,-82,4,14,-4,-29,-29,-14,-14
-102,-48,53,75,-78,2,14,0,-29,-29,-14,-14
-102,-58,43,80,-73,-7,14,-9,-24,-19,-19,-24
-107,-58,48,82,-78,-4,14,-9,-24,-19,-19,-19
-107,-58,48,82,-78,-4,14,-9,-19,-14,-19,-19
-107,-58,48,82,-78,-4,14,-4,-19,-14,-19,-24
-97,-53,43,75,-70,-4,14,-4,-34,-19,-14,-24
-102,-48,53,75,-78,2,14,0,-34,-19,-14,-24
-102,-39,63,70,-82,12,19,0,-29,-19,-14,-24
-102,-34,68,68,-85,17,19,0,-29,-19,-14,-24
-102,-39,63,70,-82,12,9,0,-19,-4,-14,-24
-107,-43,63,75,-85,9,9,0,-19,-4,-14,-14
-107,-48,58,78,-82,4,14,4,-19,-4,-14,-14
-107,-53,53,80,-80,0,14,4,-9,0,-14,-14
-92,-48,43,70,-68,-2,14,14,-9,-9,-19,-29
-87,-43,43,65,-65,0,14,14,-9,-4,-19,-29
-87,-39,48,63,-68,4,14,14,-9,-4,-19,-29
-97,-34,63,65,-80,14,19,14,-9,-4,-19,-29
-92,-34,58,63,-75,12,19,19,-9,4,0,-19
-92,-34,58,63,-75,12,24,19,-4,4,0,-19
-97,-34,63,65,-80,14,24,24,0,4,0,-19
-97,-34,63,65,-80,14,24,24,4,14,0,-14
-107,-34,73,70,-90,19,34,24,4,14,0,-14
-107,-29,78,68,-92,24,34,29,4,14,0,-14
-107,-29,78,68,-92,24,34,29,19,19,4,-14
-107,-24,82,65,-95,29,39,29,24,24,9,-14
-97,-24,73,61,-85,24,29,34,24,24,0,-14
-97,-24,73,61,-85,24,29,34,19,24,0,-14
-97,-29,68,63,-82,19,34,34,19,24,0,-14
-97,-29,68,63,-82,19,34,39,29,29,4,-14
-107,-29,78,68,-92,24,34,39,29,29,4,-14
-107,-24,82,65,-95,29,39,43,29,34,4,-14
-112,-24,87,68,-100,31,39,43,29,34,4,-14
-112,-24,87,68,-100,31,39,48,34,34,4,-14
-97,-14,82,56,-90,34,39,48,43,34,14,-4
-97,-14,82,56,-90,34,39,48,43,43,14,-4
-112,-14,97,63,-104,41,39,48,39,43,19,-4
-102,-9,92,56,-97,41,39,48,39,43,19,0
-102,-19,82,61,-92,31,48,43,39,43,24,-9
-102,-19,82,61,-92,31,53,48,43,43,24,-9
-102,-19,82,61,-92,31,53,48,43,43,24,-9
-102,-19,82,61,-92,31,53,48,39,39,24,-9
-102,-9,92,56,-97,41,43,48,39,48,14,-9
-102,-9,92,56,-97,41,43,48,43,48,14,-9
-107,-9,97,58,-102,43,48,48,53,48,19,-9
-107,-9,97,58,-102,43,48,53,53,48,19,-9
-102,-9,92,56,-97,41,58,53,43,48,29,-9
-102,-9,92,56,-97,41,53,53,39,53,29,-9
-102,-9,92,56,-97,41,53,53,39,53,29,-9
-102,-9,92,56,-97,41,53,53,39,53,29,-14
-92,-9,82,51,-87,36,43,53,39,43,29,-14
-92,-9,82,51,-87,36,43,53,39,39,24,-14
-92,-9,82,51,-87,36,48,53,39,39,24,-14
-92,0,92,46,-92,46,48,53,34,39,24,-14
-102,-9,92,56,-97,41,58,43,34,39,14,-14
-92,-19,73,56,-82,26,58,43,34,39,14,-14
-112,-19,92,65,-102,36,58,48,43,39,14,-14
-102,-19,82,61,-92,31,58,48,43,34,14,-14
-97,-9,87,53,-92,39,43,48,39,34,14,-24
-87,-9,78,48,-82,34,43,48,34,29,14,-24
-78,-9,68,43,-73,29,43,48,29,29,14,-24
-73,-19,53,46,-63,17,43,48,24,29,9,-24
-82,-19,63,51,-73,21,58,58,34,39,19,-19
-82,-14,68,48,-75,26,58,58,34,39,19,-14
-87,-14,73,51,-80,29,48,58,34,39,19,-9
-87,-14,73,51,-80,29,48,48,39,34,19,-9
-87,-14,73,51,-80,29,39,39,29,34,9,-19
-87,-14,73,51,-80,29,39,39,24,34,4,-19
-82,-14,68,48,-75,26,39,39,19,34,4,-19
-82,-14,68,48,-75,26,39,39,14,34,4,-19
-78,-14,63,46,-70,24,43,39,24,34,14,-19
-78,-14,63,46,-70,24,43,39,19,29,9,-19
-78,-14,63,46,-70,24,39,34,14,24,9,-19
-78,-14,63,46,-70,24,34,29,9,24,9,-19
-78,-9,68,43,-73,29,29,29,0,14,0,-29
-78,-9,68,43,-73,29,29,24,4,14,0,-29
-78,-9,68,43,-73,29,29,24,4,14,0,-29
-78,-4,73,41,-75,34,29,24,4,14,0,-24
-78,4,82,36,-80,43,39,29,9,19,9,-24
-78,4,82,36,-80,43,43,29,9,19,4,-24
-78,-4,73,41,-75,34,43,29,9,19,4,-24
-78,-4,73,41,-75,34,43,29,9,14,9,-24
-68,-4,63,36,-65,29,24,24,4,14,9,-24
-68,-4,63,36,-65,29,24,19,0,9,9,-24
-68,-4,63,36,-65,29,24,19,0,9,0,-24
-63,-9,53,36,-58,21,24,19,-4,9,0,-24
-63,-9,53,36,-58,21,24,9,-4,9,-9,-34
-63,-4,58,34,-61,26,24,14,-4,9,-9,-39
-73,4,78,34,-75,41,24,14,-4,4,-9,-39
-73,-9,63,41,-68,26,24,4,-4,4,-9,-39
-58,-9,48,34,-53,19,24,0,-4,4,-4,-39
-58,-9,48,34,-53,19,24,0,-4,4,-4,-34
-68,-9,58,39,-63,24,24,0,-4,4,4,-34
-58,-9,48,34,-53,19,19,0,-9,0,-4,-34
-58,-9,48,34,-53,19,29,9,-9,0,4,-24
-63,-4,58,34,-61,26,29,9,-9,0,4,-24
-63,-4,58,34,-61,26,29,4,-9,0,4,-24
-58,-14,43,36,-51,14,24,4,-14,0,4,-29
-48,4,53,21,-51,29,24,4,-4,4,4,-29
-48,4,53,21,-51,29,24,4,-4,4,0,-29
-48,4,53,21,-51,29,24,0,-9,4,0,-29
-53,4,58,24,-56,31,29,0,-9,4,0,-29
-53,9,63,21,-58,36,19,-4,-14,-4,0,-39
-53,4,58,24,-56,31,14,-4,-14,-4,0,-39
-53,0,53,26,-53,26,14,0,-14,-4,0,-39
-48,0,48,24,-48,24,14,0,-14,-9,0,-39
-48,4,53,21,-51,29,24,9,-14,-9,-9,-39
-53,4,58,24,-56,31,19,9,-14,-4,-9,-39
-53,0,53,26,-53,26,19,4,-14,-4,-9,-39
-48,0,48,24,-48,24,24,0,-14,-14,-9,-43
-39,0,39,19,-39,19,24,-4,-14,-4,-9,-43
-48,-4,43,26,-46,19,19,-4,-14,0,-14,-43
-48,-4,43,26,-46,19,19,0,-14,0,-14,-43
-43,-4,39,24,-41,17,24,0,-14,0,-14,-39
-43,-4,39,24,-41,17,24,0,-14,-9,-9,-39
-43,-4,39,24,-41,17,24,-4,-14,-9,-9,-39
-43,0,43,21,-43,21,19,-4,-14,-9,-9,-39
-43,0,43,21,-43,21,19,-4,-19,-14,-9,-39
-39,-4,34,21,-36,14,29,0,-14,-4,-4,-39
-39,-4,34,21,-36,14,29,0,-14,-4,-4,-43
-39,-4,34,21,-36,14,29,-4,-14,-4,-4,-43
-43,-4,39,24,-41,17,34,-4,-14,-4,0,-43
-48,0,48,24,-48,24,24,-4,-24,-4,0,-43
-48,0,48,24,-48,24,24,-4,-24,-4,0,-43
-43,0,43,21,-43,21,24,-14,-24,-4,-4,-43
-34,0,34,17,-34,17,19,-19,-24,-4,-4,-43
-43,9,53,17,-48,31,34,-9,-14,-4,-4,-43
-68,-4,63,36,-65,29,34,-9,-14,-14,-4,-43
-43,-4,39,24,-41,17,29,4,-14,-4,-4,-34
-14,4,19,4,-17,12,29,4,-14,-4,0,-34
-19,0,19,9,-19,9,29,0,-19,0,0,-29
-34,0,34,17,-34,17,29,-9,-19,0,-9,-39
-39,0,39,19,-39,19,29,-9,-19,0,-9,-39
-43,0,43,21,-43,21,29,-9,-19,0,-9,-39
-48,0,48,24,-48,24,29,-9,-19,0,-9,-39
-39,9,48,14,-43,29,29,-9,-19,0,-9,-39
-39,9,48,14,-43,29,29,-9,-19,0,-9,-39
-39,9,48,14,-43,29,29,-9,-19,0,-9,-39
-39,9,48,14,-43,29,29,-9,-19,0,-9,-39
-24,43,68,-9,-46,56,14,-9,-4,19,4,-19
-19,68,87,-24,-53,78,0,-9,0,29,19,-9
-14,92,107,-39,-61,100,-14,-9,4,39,34,0
990,1117,126,-1054,431,622,971,990,1010,1049,1049,1010
-29,63,92,-17,-61,78,0,-19,-14,14,14,-14
-39,9,48,14,-43,29,19,-19,-29,-9,-9,-39
-48,-43,4,46,-26,-19,39,-19,-43,-34,-34,-63
-58,-97,-39,78,-9,-68,58,-19,-58,-58,-58,-87
-43,-68,-24,56,-9,-46,43,-9,-48,-48,-39,-78
-39,-48,-9,43,-14,-29,39,-9,-39,-39,-29,-68
-34,-29,4,31,-19,-12,34,-9,-29,-29,-19,-58
-29,-9,19,19,-24,4,29,-9,-19,-19,-9,-48
-39,0,39,19,-39,19,14,-19,-29,-9,-9,-48
-39,0,39,19,-39,19,9,-19,-29,-9,-9,-48
-39,0,39,19,-39,19,4,-19,-29,-9,-9,-48
-39,0,39,19,-39,19,0,-19,-29,-9,-9,-48
-24,19,43,2,-34,31,0,-9,-24,-4,-4,-43
-19,29,48,-4,-34,39,0,-9,-19,0,0,-39
-14,39,53,-12,-34,46,0,-9,-14,4,4,-34
-9,48,58,-19,-34,53,0,-9,-9,9,9,-29
-19,48,68,-14,-43,58,-4,-19,-9,19,9,-19
-19,48,68,-14,-43,58,-9,-19,-9,19,9,-19
-19,48,68,-14,-43,58,-14,-19,-9,19,9,-19
-19,48,68,-14,-43,58,-19,-19,-9,19,9,-19
-14,58,73,-21,-43,65,-24,-9,0,19,19,-19
-9,58,68,-24,-39,63,-29,-9,0,19,19,-19
-4,58,63,-26,-34,61,-34,-9,0,19,19,-19
0,58,58,-29,-29,58,-39,-9,0,19,19,-19
9,68,58,-39,-24,63,-39,-9,0,29,19,-9
9,68,58,-39,-24,63,-39,-9,0,29,19,-9
9,68,58,-39,-24,63,-39,-19,0,29,19,-9
4,68,63,-36,-29,65,-39,-24,-4,24,19,-9
4,63,58,-34,-26,61,-39,-24,-4,14,19,-4
4,63,58,-34,-26,61,-39,-14,-4,14,19,-4
-4,63,68,-29,-36,65,-39,-14,-4,14,19,-4
-4,58,63,-26,-34,61,-34,-24,-4,14,19,-4
-4,58,63,-26,-34,61,-24,-14,0,19,19,-9
-4,58,63,-26,-34,61,-24,-9,0,19,19,-9
0,53,53,-26,-26,53,-24,-9,4,24,19,-4
0,53,53,-26,-26,53,-14,-4,4,24,19,-4
0,53,53,-26,-26,53,-14,-14,-4,14,9,-14
0,53,53,-26,-26,53,-14,-9,-4,14,14,-14
0,48,48,-24,-24,48,-14,-9,0,14,14,-14
0,48,48,-24,-24,48,-9,-9,0,14,14,-19
9,58,48,-34,-19,53,-19,-9,4,24,19,-14
9,53,43,-31,-17,48,-19,-14,0,14,9,-14
4,39,34,-21,-14,36,-19,-14,0,14,9,-19
4,39,34,-21,-14,36,-19,-14,0,14,9,-19
14,39,24,-26,-4,31,-9,-4,-9,14,4,-19
14,39,24,-26,-4,31,-9,-14,-14,14,4,-19
4,29,24,-17,-9,26,-9,-19,-24,0,4,-19
4,29,24,-17,-9,26,-9,-29,-39,-9,-4,-29
4,24,19,-14,-7,21,-24,-34,-34,-14,-9,-29
9,24,14,-17,-2,19,-29,-43,-34,-14,-9,-29
4,19,14,-12,-4,17,-43,-48,-39,-19,-9,-24
9,9,0,-9,4,4,-48,-48,-39,-19,-14,-24
34,19,-14,-26,24,2,-39,-53,-39,-19,-14,-19
39,19,-19,-29,29,0,-39,-53,-39,-19,-9,-14
39,19,-19,-29,29,0,-39,-43,-29,-9,-4,-14
39,9,-29,-24,34,-9,-39,-34,-24,-9,-4,-19
53,-4,-58,-24,56,-31,-39,-34,-24,-9,-4,-29
53,-9,-63,-21,58,-36,-29,-29,-24,-9,-9,-29
53,-19,-73,-17,63,-46,-19,-29,-24,-14,-14,-34
43,-34,-78,-4,61,-56,-19,-29,-29,-24,-24,-48
43,-48,-92,2,68,-70,-9,-34,-43,-34,-39,-39
43,-48,-92,2,68,-70,-9,-34,-43,-39,-39,-53
43,-48,-92,2,68,-70,-9,-34,-39,-39,-39,-53
43,-53,-97,4,70,-75,-4,-34,-39,-39,-39,-48
48,-43,-92,-2,70,-68,-14,-34,-34,-29,-24,-34
58,-43,-102,-7,80,-73,-14,-29,-29,-24,-19,-29
63,-39,-102,-12,82,-70,-14,-19,-29,-19,-19,-29
63,-39,-102,-12,82,-70,-14,-14,-19,-19,-19,-29
73,-39,-112,-17,92,-75,-9,-9,-14,-19,-19,-29
73,-29,-102,-21,87,-65,0,-4,-14,-19,-19,-24
63,-29,-92,-17,78,-61,4,0,-14,-14,-19,-24
43,-29,-73,-7,58,-51,24,4,-14,-9,-19,-24
19,-24,-43,2,31,-34,43,14,0,4,0,-14
4,-14,-19,4,12,-17,53,14,0,9,0,-14
0,-9,-9,4,4,-9,58,14,0,14,0,-9
-9,0,9,4,-9,4,68,14,0,14,4,-9
-4,9,14,-2,-9,12,63,14,9,4,-4,-14
-4,4,9,0,-7,7,63,9,4,0,-4,-19
0,0,0,0,0,0,58,4,0,-4,-9,-19
4,-4,-9,0,7,-7,58,0,-4,-9,-14,-19
-4,-14,-9,9,2,-12,58,0,-14,-9,-19,-24
-4,-14,-9,9,2,-12,58,-4,-19,-14,-24,-29
-4,-14,-9,9,2,-12,63,-4,-24,-14,-29,-29
-4,-14,-9,9,2,-12,63,-4,-24,-14,-29,-29
-9,-14,-4,12,-2,-9,63,4,-19,-4,-14,-29
-29,0,29,14,-29,14,78,29,0,9,0,-19
-19,4,24,7,-21,14,78,29,9,9,0,-19
-34,4,39,14,-36,21,39,-151,-170,-117,-68,-63
829,995,165,-912,331,580,961,151,102,405,644,780
-161,-19,141,90,-151,61,-14,-692,-736,-507,-307,-185
112,-9,-122,-51,117,-65,161,751,751,492,283,136
141,4,-136,-73,139,-65,185,844,849,590,326,156
-24,0,24,12,-24,12,82,0,-19,14,-9,-39
-14,14,29,0,-21,21,102,92,82,68,14,-29
29,14,-14,-21,21,0,170,370,351,248,126,29
-19,4,24,7,-21,14,180,200,175,126,63,-4
-29,19,48,4,-39,34,190,156,117,78,39,-4
-9,14,24,-2,-17,19,190,214,161,97,53,14
-19,0,19,9,-19,9,165,122,53,24,4,-4
-29,0,29,14,-29,14,156,68,-14,-19,-14,-24
-29,0,29,14,-29,14,156,92,4,0,-4,-14
-19,9,29,4,-24,19,136,39,-43,-34,-14,-24
-14,4,19,4,-17,12,117,-34,-122,-63,-34,-29
-24,9,34,7,-29,21,102,-73,-146,-73,-24,-19
-9,19,29,-4,-19,24,82,-102,-161,-87,-14,-9
9,24,14,-17,-2,19,73,-131,-175,-92,-19,4
19,24,4,-21,7,14,58,-151,-195,-97,-19,9
24,34,9,-29,7,21,14,-195,-214,-97,-4,24
24,53,29,-39,-2,41,-34,-234,-234,-102,24,48
43,78,34,-61,4,56,-34,-253,-244,-112,39,63
63,82,19,-73,21,51,29,-263,-258,-122,34,68
68,82,14,-75,26,48,53,-278,-278,-141,43,92
87,82,-4,-85,46,39,14,-326,-322,-185,53,136
122,87,-34,-104,78,26,-48,-439,-395,-244,48,180
156,87,-68,-122,112,9,-122,-580,-483,-307,58,229
170,92,-78,-131,124,7,-273,-790,-644,-405,53,263
219,92,-126,-156,173,-17,-536,-1112,-883,-551,14,287
287,92,-195,-190,241,-51,-800,-1464,-1161,-741,-34,312
326,73,-253,-200,290,-90,-1029,-1747,-1400,-927,-92,331
346,34,-312,-190,329,-139,-1268,-1971,-1586,-1044,-136,351
419,48,-370,-234,395,-161,-1493,-2152,-1727,-1141,-165,400
497,107,-390,-302,444,-141,-1664,-2269,-1825,-1205,-180,463
546,136,-409,-341,478,-136,-1766,-2313,-1898,-1263,-185,527
590,156,-434,-373,512,-139,-1800,-2293,-1917,-1283,-175,585
658,180,-478,-419,568,-148,-1825,-2205,-1893,-1288,-136,658
717,195,-522,-456,619,-163,-1844,-2161,-1893,-1302,-117,707
746,204,-541,-475,644,-168,-1859,-2196,-1971,-1366,-146,707
775,239,-536,-507,656,-148,-1849,-2239,-2015,-1385,-151,722
795,248,-546,-522,671,-148,-1830,-2220,-1976,-1346,-151,736
785,224,-561,-505,673,-168,-1790,-2196,-1927,-1298,-161,727
775,190,-585,-483,680,-197,-1747,-2215,-1937,-1298,-180,727
761,180,-580,-470,671,-200,-1683,-2225,-1966,-1298,-195,727
727,151,-575,-439,651,-212,-1620,-2215,-1966,-1293,-200,712
707,122,-585,-414,646,-231,-1551,-2215,-1961,-1283,-190,697
692,112,-580,-402,636,-234,-1527,-2259,-1995,-1293,-190,688
673,126,-546,-400,610,-209,-1517,-2298,-2005,-1278,-165,717
644,126,-517,-385,580,-195,-1507,-2298,-1991,-1259,-165,727
644,107,-536,-375,590,-214,-1493,-2293,-1981,-1268,-195,717
673,112,-561,-392,617,-224,-1459,-2274,-1966,-1268,-224,717
707,146,-561,-427,634,-207,-1434,-2235,-1927,-1239,-214,746
678,131,-546,-405,612,-207,-1405,-2200,-1893,-1229,-214,746
649,68,-580,-358,614,-256,-1366,-2161,-1854,-1220,-224,717
663,19,-644,-341,653,-312,-1322,-2093,-1800,-1220,-248,668
678,-29,-707,-324,692,-368,-1268,-2015,-1742,-1210,-297,590
653,-107,-761,-273,707,-434,-1210,-1922,-1664,-1215,-370,507
644,-170,-814,-236,729,-492,-1161,-1820,-1581,-1195,-444,424
653,-200,-854,-226,753,-527,-1102,-1712,-1507,-1185,-522,356
663,-214,-878,-224,771,-546,-1015,-1595,-1400,-1137,-536,331
649,-214,-863,-217,756,-539,-941,-1478,-1293,-1068,-527,336
644,-219,-863,-212,753,-541,-868,-1351,-1166,-1005,-502,317
653,-253,-907,-200,780,-580,-800,-1215,-1058,-961,-492,278
649,-278,-927,-185,788,-602,-741,-1083,-980,-912,-497,200
624,-292,-917,-165,771,-605,-668,-961,-888,-854,-492,136
600,-297,-897,-151,749,-597,-600,-849,-785,-785,-492,82
590,-307,-897,-141,744,-602,-551,-746,-717,-736,-517,29
556,-307,-863,-124,710,-585,-492,-658,-644,-688,-517,-14
522,-283,-805,-119,663,-544,-409,-575,-570,-634,-502,-29
512,-263,-775,-124,644,-519,-361,-512,-507,-590,-478,-29
502,-258,-761,-122,631,-509,-322,-468,-483,-566,-473,-53
478,-258,-736,-109,607,-497,-297,-439,-463,-551,-468,-87
429,-239,-668,-95,549,-453,-268,-395,-434,-512,-429,-107
385,-209,-595,-87,490,-402,-229,-346,-380,-439,-375,-97
351,-161,-512,-95,431,-336,-190,-287,-317,-370,-331,-92
312,-117,-429,-97,370,-273,-141,-234,-258,-302,-297,-82
273,-63,-336,-104,305,-200,-68,-161,-190,-224,-258,-58
263,-14,-278,-124,270,-146,-24,-97,-122,-175,-219,-48
234,-4,-239,-114,236,-122,9,-58,-78,-146,-180,-48
175,4,-170,-90,173,-82,48,-4,-39,-97,-136,-39
136,43,-92,-90,114,-24,82,58,14,-29,-78,-19
107,43,-63,-75,85,-9,97,87,63,19,-34,-14
92,48,-43,-70,68,2,102,117,92,58,-9,-14
78,68,-9,-73,43,29,146,161,136,102,9,-14
43,58,14,-51,14,36,175,209,180,126,14,-19
24,39,14,-31,4,26,195,234,209,136,4,-39
34,58,24,-46,4,41,200,239,209,136,0,-39
34,58,24,-46,4,41,209,239,219,136,4,-29
34,58,24,-46,4,41,204,248,224,141,19,-34
29,58,29,-43,0,43,204,253,224,156,39,-34
29,68,39,-48,-4,53,204,263,234,165,53,-34
14,68,53,-41,-19,61,214,273,248,175,53,-34
9,68,58,-39,-24,63,224,283,253,190,53,-34
4,68,63,-36,-29,65,234,287,253,190,53,-34
4,73,68,-39,-31,70,239,297,263,190,53,-34
4,68,63,-36,-29,65,229,292,273,190,63,-34
-4,68,73,-31,-39,70,229,297,273,200,68,-34
-4,68,73,-31,-39,70,229,302,283,204,73,-34
0,73,73,-36,-36,73,229,302,287,204,73,-29
-4,73,78,-34,-41,75,229,307,292,204,73,-39
-4,73,78,-34,-41,75,234,312,297,209,78,-39
-4,73,78,-34,-41,75,234,317,297,214,78,-39
-4,73,78,-34,-41,75,244,322,292,214,78,-39
0,73,73,-36,-36,73,253,336,307,219,68,-34
-4,68,73,-31,-39,70,253,336,312,219,73,-34
-4,68,73,-31,-39,70,253,341,317,229,82,-34
-4,73,78,-34,-41,75,253,346,317,234,87,-34
-9,68,78,-29,-43,73,244,346,322,229,87,-34
-9,68,78,-29,-43,73,244,351,326,234,87,-34
-9,68,78,-29,-43,73,244,351,326,234,87,-39
-14,68,82,-26,-48,75,244,361,336,234,87,-39
-24,53,78,-14,-51,65,248,366,341,244,87,-39
-24,53,78,-14,-51,65,248,370,341,248,87,-39
-24,58,82,-17,-53,70,248,370,341,248,82,-43
-24,58,82,-17,-53,70,248,370,346,248,82,-43
-14,58,73,-21,-43,65,253,380,356,248,87,-43
-14,58,73,-21,-43,65,253,385,361,248,92,-43
-14,58,73,-21,-43,65,253,395,361,258,92,-43
-14,58,73,-21,-43,65,253,395,366,258,92,-43
-14,68,82,-26,-48,75,253,390,370,268,92,-43
-14,68,82,-26,-48,75,258,395,375,268,92,-43
-19,68,87,-24,-53,78,258,400,375,268,92,-43
-19,73,92,-26,-56,82,258,400,380,273,102,-39
-19,73,92,-26,-56,82,268,414,385,287,112,-29
-19,73,92,-26,-56,82,268,419,390,292,107,-39
-19,63,82,-21,-51,73,268,424,395,292,107,-39
-19,73,92,-26,-56,82,273,434,400,292,112,-39
-24,68,92,-21,-58,80,263,439,414,292,102,-48
-29,63,92,-17,-61,78,263,444,419,302,107,-43
-34,58,92,-12,-63,75,268,448,424,302,112,-43
-39,53,92,-7,-65,73,268,453,429,307,112,-43
-39,63,102,-12,-70,82,278,453,434,307,117,-39
-39,63,102,-12,-70,82,278,463,439,312,122,-39
-39,63,102,-12,-70,82,283,468,444,317,122,-34
-39,63,102,-12,-70,82,287,473,448,326,122,-34
-29,58,87,-14,-58,73,287,478,458,331,122,-48
-29,58,87,-14,-58,73,287,488,463,331,122,-48
-29,63,92,-17,-61,78,292,492,468,336,126,-43
-34,63,97,-14,-65,80,292,497,473,341,131,-43
-53,53,107,0,-80,80,287,507,478,346,131,-43
-43,48,92,-2,-68,70,287,512,488,351,131,-43
-29,48,78,-9,-53,63,287,522,497,351,136,-43
-48,43,92,2,-70,68,287,527,502,361,136,-48
-53,53,107,0,-80,80,302,541,507,370,141,-48
-58,53,112,2,-85,82,302,551,512,375,141,-48
-63,53,117,4,-90,85,302,556,522,380,141,-48
-68,58,126,4,-97,92,307,566,531,385,141,-48
-58,58,117,0,-87,87,312,570,536,380,156,-48
-58,58,117,0,-87,87,317,580,541,385,156,-48
-63,58,122,2,-92,90,317,580,546,390,161,-48
-63,58,122,2,-92,90,317,585,551,400,161,-48
-63,58,122,2,-92,90,326,605,570,414,156,-53
-63,63,126,0,-95,95,326,614,575,414,156,-53
-63,63,126,0,-95,95,326,619,580,414,156,-53
-63,63,126,0,-95,95,326,624,585,419,156,-58
-78,73,151,2,-114,112,322,624,580,419,161,-58
-78,73,151,2,-114,112,326,634,585,419,161,-58
-78,73,151,2,-114,112,331,644,595,424,161,-58
-78,73,151,2,-114,112,341,658,600,429,165,-58
-82,78,161,2,-122,119,341,658,605,434,165,-68
-82,78,161,2,-122,119,341,668,610,434,165,-68
-82,78,161,2,-122,119,341,673,614,434,165,-73
-87,82,170,2,-129,126,346,678,619,444,165,-73
-97,82,180,7,-139,131,361,692,624,458,170,-73
-102,78,180,12,-141,129,361,697,629,458,170,-78
-107,73,180,17,-143,126,356,702,634,458,170,-78
-107,73,180,17,-143,126,356,707,639,468,175,-78
-112,68,180,21,-146,124,351,712,644,458,165,-87
-117,63,180,26,-148,122,361,722,649,458,161,-87
-122,63,185,29,-153,124,361,727,649,463,161,-92
-126,58,185,34,-156,122,366,732,658,468,161,-97
-136,58,195,39,-165,126,366,741,653,473,161,-97
-141,58,200,41,-170,129,370,746,653,473,161,-97
-141,63,204,39,-173,134,370,746,653,473,165,-97
-141,73,214,34,-178,143,370,746,658,478,165,-97
-151,63,214,43,-183,139,385,766,668,468,165,-87
-151,63,214,43,-183,139,385,771,668,468,165,-92
-141,73,214,34,-178,143,385,775,668,468,165,-92
-141,73,214,34,-178,143,390,780,673,468,165,-102
-146,63,209,41,-178,136,390,785,673,483,161,-107
-151,63,214,43,-183,139,390,785,673,483,161,-107
-156,63,219,46,-187,141,395,785,683,483,161,-107
-161,63,224,48,-192,143,405,780,683,483,161,-107
-161,53,214,53,-187,134,405,790,688,483,161,-107
-170,53,224,58,-197,139,400,790,688,488,161,-112
-170,53,224,58,-197,139,400,795,688,488,156,-117
-165,53,219,56,-192,136,400,795,688,483,146,-117
-151,53,204,48,-178,129,385,785,688,473,136,-122
-151,58,209,46,-180,134,385,790,688,473,136,-122
-151,58,209,46,-180,134,390,790,688,473,136,-126
-156,53,209,51,-183,131,395,785,688,473,136,-126
-161,48,209,56,-185,129,395,785,688,468,146,-117
-156,43,200,56,-178,122,395,785,688,468,146,-112
-161,39,200,61,-180,119,390,780,688,468,146,-107
-165,34,200,65,-183,117,385,771,678,458,136,-107
-170,34,204,68,-187,119,380,761,668,453,136,-107
-165,34,200,65,-183,117,375,756,663,448,131,-107
-165,29,195,68,-180,112,375,751,658,448,131,-107
-165,29,195,68,-180,112,375,741,653,448,131,-107
-170,29,200,70,-185,114,375,746,649,439,131,-97
-165,29,195,68,-180,112,370,727,639,434,126,-97
-165,19,185,73,-175,102,366,717,639,424,117,-102
-161,19,180,70,-170,100,361,707,629,419,117,-102
-151,19,170,65,-161,95,351,697,619,405,112,-102
-141,19,161,61,-151,90,336,688,610,400,107,-97
-131,14,146,58,-139,80,331,673,595,390,97,-97
-126,9,136,58,-131,73,317,653,575,380,87,-97
-126,4,131,61,-129,68,312,634,566,361,87,-92
-122,0,122,61,-122,61,307,629,556,361,87,-82
-122,-14,107,68,-114,46,302,605,551,346,82,-78
-122,-24,97,73,-109,36,292,590,541,336,82,-78
-122,-19,102,70,-112,41,278,575,522,331,82,-82
-112,-19,92,65,-102,36,268,561,512,326,78,-78
-107,-19,87,63,-97,34,253,546,497,322,78,-78
-102,-24,78,63,-90,26,244,531,488,307,68,-73
-107,-34,73,70,-90,19,244,522,478,297,78,-58
-102,-39,63,70,-82,12,234,502,463,287,78,-58
-97,-39,58,68,-78,9,224,483,448,278,78,-48
-92,-39,53,65,-73,7,214,463,429,263,73,-39
-78,-48,29,63,-53,-9,195,439,405,244,58,-34
-68,-53,14,61,-41,-19,185,424,395,234,53,-39
-68,-53,14,61,-41,-19,175,400,385,224,53,-39
-68,-58,9,63,-39,-24,165,385,370,214,48,-39
-68,-58,9,63,-39,-24,165,366,346,214,53,-29
-53,-58,-4,56,-24,-31,151,346,326,195,48,-24
-53,-58,-4,56,-24,-31,141,326,307,190,48,-19
-58,-58,0,58,-29,-29,136,307,287,180,48,-14
-58,-58,0,58,-29,-29,126,287,268,170,43,-4
-58,-63,-4,61,-26,-34,117,268,253,165,43,-4
-48,-63,-14,56,-17,-39,97,248,234,151,39,-9
-48,-63,-14,56,-17,-39,82,229,219,141,39,-9
-48,-68,-19,58,-14,-43,78,204,209,131,29,-14
-53,-73,-19,63,-17,-46,73,195,195,122,24,-14
-58,-73,-14,65,-21,-43,68,175,180,102,24,-4
-63,-78,-14,70,-24,-46,63,161,165,87,24,-4
-63,-97,-34,80,-14,-65,63,151,161,97,24,4
-68,-97,-29,82,-19,-63,53,131,136,82,24,4
-68,-97,-29,82,-19,-63,53,112,122,73,19,9
-68,-92,-24,80,-21,-58,48,97,112,68,19,14
-58,-92,-34,75,-12,-63,34,82,97,48,19,14
-58,-92,-34,75,-12,-63,34,73,82,43,14,9
-58,-92,-34,75,-12,-63,34,63,68,39,14,4
-58,-92,-34,75,-12,-63,34,53,53,34,9,4
-73,-92,-19,82,-26,-56,29,53,53,39,9,0
-78,-102,-24,90,-26,-63,24,43,43,29,0,0
-78,-102,-24,90,-26,-63,19,34,34,19,0,0
-78,-102,-24,90,-26,-63,19,24,19,19,0,0
-87,-102,-14,95,-36,-58,29,29,14,19,9,14
-92,-102,-9,97,-41,-56,29,24,9,14,4,14
-97,-102,-4,100,-46,-53,29,19,4,4,0,9
-107,-102,4,104,-56,-48,29,14,-4,0,0,4
-102,-117,-14,109,-43,-65,19,9,-14,0,-9,-4
-102,-117,-14,109,-43,-65,14,4,-19,-4,-9,-4
-97,-117,-19,107,-39,-68,14,0,-24,-9,-19,-4
-92,-117,-24,104,-34,-70,14,-4,-29,-9,-24,-4
-102,-117,-14,109,-43,-65,4,-14,-34,-19,-34,-14
-107,-117,-9,112,-48,-63,4,-14,-39,-29,-34,-24
-112,-112,0,112,-56,-56,4,-14,-39,-29,-34,-24
-112,-112,0,112,-56,-56,0,-14,-39,-29,-34,-24
-102,-122,-19,112,-41,-70,9,-29,-39,-29,-34,-24
-102,-122,-19,112,-41,-70,9,-29,-48,-29,-34,-24
-102,-117,-14,109,-43,-65,9,-29,-48,-29,-43,-24
-102,-117,-14,109,-43,-65,9,-34,-48,-34,-43,-29
-112,-117,-4,114,-53,-61,14,-39,-48,-34,-43,-34
-117,-117,0,117,-58,-58,14,-39,-48,-34,-43,-34
-117,-122,-4,119,-56,-63,14,-34,-48,-34,-48,-29
-122,-122,0,122,-61,-61,19,-34,-48,-34,-48,-29
-136,-122,14,129,-75,-53,19,-24,-48,-19,-39,-29
-136,-117,19,126,-78,-48,19,-24,-48,-19,-39,-29
-136,-117,19,126,-78,-48,24,-24,-48,-19,-34,-34
-131,-117,14,124,-73,-51,24,-19,-48,-19,-34,-34
-122,-117,4,119,-63,-56,14,-29,-43,-29,-48,-34
-126,-117,9,122,-68,-53,14,-29,-43,-29,-48,-29
-126,-117,9,122,-68,-53,14,-29,-39,-24,-48,-29
-126,-117,9,122,-68,-53,14,-24,-39,-24,-48,-34
-131,-126,4,129,-68,-61,14,-24,-43,-19,-34,-34
-141,-126,14,134,-78,-56,14,-19,-43,-19,-34,-34
-146,-122,24,134,-85,-48,19,-19,-39,-19,-34,-34
-151,-122,29,136,-90,-46,19,-19,-39,-19,-34,-34
-141,-122,19,131,-80,-51,19,-9,-29,-4,-34,-43
-146,-122,24,134,-85,-48,19,-9,-29,-4,-34,-34
-146,-122,24,134,-85,-48,24,-4,-29,-4,-34,-34
-146,-122,24,134,-85,-48,24,-4,-19,0,-34,-34
-151,-122,29,136,-90,-46,34,-4,-19,-9,-39,-48
-146,-122,24,134,-85,-48,34,-4,-19,-4,-39,-48
-146,-122,24,134,-85,-48,34,-4,-19,-4,-39,-48
-156,-122,34,139,-95,-43,39,-4,-19,-4,-39,-48
-161,-131,29,146,-95,-51,29,0,-19,4,-29,-48
-161,-131,29,146,-95,-51,34,0,-14,4,-29,-48
-165,-131,34,148,-100,-48,34,4,-9,4,-29,-48
-165,-131,34,148,-100,-48,34,4,-4,14,-29,-43
-165,-131,34,148,-100,-48,34,4,-4,4,-29,-43
-165,-126,39,146,-102,-43,34,9,-4,4,-29,-43
-165,-126,39,146,-102,-43,34,9,9,9,-24,-43
-165,-122,43,143,-104,-39,39,9,14,14,-19,-43
-175,-122,53,148,-114,-34,39,14,4,24,-29,-53
-175,-122,53,148,-114,-34,39,14,0,24,-29,-53
-175,-126,48,151,-112,-39,43,14,0,24,-29,-53
-175,-126,48,151,-112,-39,43,19,9,29,-24,-53
-175,-136,39,156,-107,-48,34,19,19,29,-14,-53
-175,-131,43,153,-109,-43,39,24,19,34,-14,-53
-180,-131,48,156,-114,-41,39,24,19,34,-14,-53
-180,-131,48,156,-114,-41,39,29,24,34,-14,-53
-185,-141,43,163,-114,-48,48,29,34,34,-24,-53
-185,-141,43,163,-114,-48,48,29,34,43,-24,-53
-200,-141,58,170,-129,-41,48,29,29,43,-19,-53
-190,-136,53,163,-122,-41,48,29,29,43,-19,-48
-180,-126,53,153,-117,-36,39,43,29,43,-14,-48
-180,-126,53,153,-117,-36,43,48,34,43,-14,-48
-180,-126,53,153,-117,-36,43,48,34,43,-14,-48
-180,-126,53,153,-117,-36,43,48,29,39,-14,-48
-180,-126,53,153,-117,-36,53,48,39,43,-14,-39
-180,-126,53,153,-117,-36,53,48,43,48,-14,-39
-185,-126,58,156,-122,-34,58,48,53,53,-9,-39
-185,-126,58,156,-122,-34,58,53,53,58,-9,-39
-170,-126,43,148,-107,-41,58,53,43,48,-9,-48
-170,-126,43,148,-107,-41,53,53,39,53,-9,-48
-170,-126,43,148,-107,-41,53,53,39,53,-9,-48
-170,-126,43,148,-107,-41,53,53,39,53,-9,-53
-170,-117,53,143,-112,-31,58,63,43,63,0,-48
-170,-117,53,143,-112,-31,63,63,48,58,-4,-43
-170,-117,53,143,-112,-31,73,63,53,58,-4,-39
-170,-107,63,139,-117,-21,78,63,53,58,-4,-34
-161,-117,43,139,-102,-36,73,53,43,48,-4,-43
-151,-126,24,139,-87,-51,68,53,43,48,-4,-43
-170,-126,43,148,-107,-41,63,58,53,48,-4,-43
-161,-126,34,143,-97,-46,58,58,53,43,-4,-43
-170,-122,48,146,-109,-36,58,48,58,53,-4,-34
-165,-117,48,141,-107,-34,63,48,53,48,-4,-34
-161,-112,48,136,-104,-31,68,48,48,48,-4,-34
-161,-117,43,139,-102,-36,73,48,43,48,-9,-34
-156,-112,43,134,-100,-34,68,58,43,48,-9,-34
-151,-102,48,126,-100,-26,68,58,43,48,-9,-34
-151,-97,53,124,-102,-21,58,58,43,48,-9,-34
-146,-92,53,119,-100,-19,58,48,48,43,-9,-39
-136,-92,43,114,-90,-24,68,39,39,43,-9,-29
-136,-92,43,114,-90,-24,68,39,34,43,-14,-29
-131,-92,39,112,-85,-26,68,39,29,43,-14,-29
-131,-92,39,112,-85,-26,68,39,24,43,-14,-29
-136,-102,34,119,-85,-34,73,48,29,43,-4,-29
-136,-102,34,119,-85,-34,73,48,29,39,-9,-29
-136,-102,34,119,-85,-34,68,43,29,34,-9,-29
-136,-102,34,119,-85,-34,63,39,29,34,-9,-29
-131,-97,34,114,-82,-31,58,39,19,34,-19,-39
-126,-97,29,112,-78,-34,58,34,24,34,-19,-39
-122,-97,24,109,-73,-36,58,34,24,34,-19,-39
-117,-92,24,104,-70,-34,58,34,24,34,-19,-34
-122,-87,34,104,-78,-26,58,29,19,29,-19,-43
-126,-92,34,109,-80,-29,63,29,19,29,-24,-43
-131,-107,24,119,-78,-41,63,29,19,29,-24,-43
-136,-112,24,124,-80,-43,63,29,19,24,-19,-43
-146,-112,34,129,-90,-39,43,14,4,24,-19,-43
-146,-112,34,129,-90,-39,43,9,0,19,-19,-43
-146,-112,34,129,-90,-39,43,9,0,19,-29,-43
-141,-117,24,129,-82,-46,43,9,-4,19,-29,-43
-141,-117,24,129,-82,-46,43,9,-4,19,-29,-43
-141,-112,29,126,-85,-41,43,14,-4,19,-29,-48
-151,-102,48,126,-100,-26,43,14,-4,14,-29,-48
-151,-117,34,134,-92,-41,43,4,-4,14,-29,-48
-156,-126,29,141,-92,-48,43,0,-4,4,-43,-48
-156,-126,29,141,-92,-48,43,0,-4,4,-43,-43
-165,-126,39,146,-102,-43,43,0,-4,4,-34,-43
-156,-126,29,141,-92,-48,39,0,-9,0,-43,-43
-156,-136,19,146,-87,-58,29,-9,-19,-9,-43,-53
-161,-131,29,146,-95,-51,29,-9,-19,-9,-43,-53
-161,-131,29,146,-95,-51,29,-14,-19,-9,-43,-53
-156,-141,14,148,-85,-63,24,-14,-24,-9,-43,-58
-161,-136,24,148,-92,-56,34,-14,-24,-4,-43,-58
-165,-141,24,153,-95,-58,34,-14,-24,-4,-48,-58
-170,-146,24,158,-97,-61,34,-19,-29,-4,-48,-58
-180,-151,29,165,-104,-61,39,-19,-29,-4,-48,-58
-180,-146,34,163,-107,-56,39,-24,-24,-4,-48,-48
-180,-151,29,165,-104,-61,34,-24,-24,-4,-48,-48
-180,-156,24,168,-102,-65,34,-19,-24,-4,-48,-48
-175,-156,19,165,-97,-68,34,-19,-24,-9,-48,-48
-165,-141,24,153,-95,-58,24,-29,-34,-19,-58,-58
-170,-141,29,156,-100,-56,19,-29,-34,-14,-58,-58
-170,-146,24,158,-97,-61,19,-34,-34,-14,-58,-58
-165,-146,19,156,-92,-63,24,-39,-34,-24,-58,-63
-175,-146,29,161,-102,-58,24,-43,-43,-24,-48,-63
-185,-151,34,168,-109,-58,19,-43,-43,-19,-53,-63
-185,-151,34,168,-109,-58,19,-39,-43,-19,-53,-63
-180,-151,29,165,-104,-61,24,-39,-43,-19,-53,-58
-170,-151,19,161,-95,-65,34,-29,-34,-9,-48,-58
-170,-151,19,161,-95,-65,34,-34,-34,-9,-48,-58
-170,-146,24,158,-97,-61,29,-34,-34,-9,-48,-58
-170,-146,24,158,-97,-61,29,-34,-39,-14,-48,-58
-175,-141,34,158,-104,-53,29,-29,-34,-14,-43,-58
-175,-141,34,158,-104,-53,29,-29,-34,-14,-43,-63
-175,-141,34,158,-104,-53,29,-34,-34,-14,-43,-63
-180,-141,39,161,-109,-51,34,-34,-34,-14,-39,-63
-185,-136,48,161,-117,-43,34,-24,-34,-14,-39,-53
-185,-136,48,161,-117,-43,34,-24,-34,-14,-39,-53
-180,-136,43,158,-112,-46,34,-34,-34,-14,-43,-53
-170,-136,34,153,-102,-51,29,-39,-34,-14,-43,-53
-161,-126,34,143,-97,-46,34,-29,-34,-14,-43,-53
-156,-131,24,143,-90,-53,24,-39,-43,-24,-43,-73
-161,-131,29,146,-95,-51,19,-34,-43,-14,-43,-73
-161,-131,29,146,-95,-51,29,-24,-43,-14,-39,-63
-146,-117,29,131,-87,-43,29,-29,-39,-19,-39,-58
-151,-126,24,139,-87,-51,39,-29,-39,-9,-39,-48
-156,-126,29,141,-92,-48,39,-29,-39,-9,-39,-48
-161,-126,34,143,-97,-46,39,-29,-39,-9,-39,-48
-165,-126,39,146,-102,-43,39,-29,-39,-9,-39,-48
-165,-136,29,151,-97,-53,39,-29,-39,-9,-39,-48
-165,-136,29,151,-97,-53,39,-29,-39,-9,-39,-48
-165,-136,29,151,-97,-53,39,-29,-39,-9,-39,-48
-165,-136,29,151,-97,-53,39,-29,-39,-9,-39,-48
-161,-97,63,129,-112,-17,19,-29,-24,9,-19,-29
-156,-68,87,112,-122,9,9,-29,-19,19,-9,-19
-151,-39,112,95,-131,36,0,-29,-14,29,0,-9
854,990,136,-922,358,563,990,971,990,1039,1010,1000
-156,-63,92,109,-124,14,9,-39,-24,14,-19,-24
-165,-117,48,141,-107,-34,29,-39,-39,-9,-39,-48
-175,-170,4,173,-90,-82,48,-39,-53,-34,-58,-73
-185,-224,-39,204,-73,-131,68,-39,-68,-58,-78,-97
-185,-204,-19,195,-82,-112,53,-39,-63,-43,-73,-87
-185,-185,0,185,-92,-92,48,-39,-58,-39,-68,-78
-185,-165,19,175,-102,-73,43,-39,-53,-34,-63,-68
-185,-146,39,165,-112,-53,39,-39,-48,-29,-58,-58
-175,-131,43,153,-109,-43,24,-39,-39,-24,-53,-48
-175,-126,48,151,-112,-39,19,-39,-39,-19,-48,-48
-175,-122,53,148,-114,-34,14,-39,-39,-14,-43,-48
-175,-117,58,146,-117,-29,9,-39,-39,-9,-39,-48
-165,-107,58,136,-112,-24,0,-39,-39,-9,-29,-39
-165,-97,68,131,-117,-14,0,-39,-39,-9,-29,-39
-165,-87,78,126,-122,-4,0,-39,-39,-9,-29,-39
-165,-78,87,122,-126,4,0,-39,-39,-9,-29,-39
-156,-78,78,117,-117,0,-4,-39,-29,0,-19,-29
-156,-78,78,117,-117,0,-9,-39,-29,0,-19,-29
-156,-78,78,117,-117,0,-14,-39,-29,0,-19,-29
-156,-78,78,117,-117,0,-19,-39,-29,0,-19,-29
-146,-68,78,107,-112,4,-29,-29,-29,9,-19,-29
-146,-68,78,107,-112,4,-29,-29,-29,9,-19,-29
-146,-68,78,107,-112,4,-29,-29,-29,9,-19,-29
-146,-68,78,107,-112,4,-29,-29,-29,9,-19,-29
-141,-68,73,104,-107,2,-39,-29,-19,19,-9,-29
-136,-68,68,102,-102,0,-39,-29,-19,19,-9,-29
-131,-68,63,100,-97,-2,-39,-39,-19,19,-9,-29
-131,-68,63,100,-97,-2,-39,-43,-24,14,-9,-29
-136,-73,63,104,-100,-4,-29,-34,-24,14,-9,-24
-141,-73,68,107,-104,-2,-29,-24,-24,14,-9,-24
-156,-73,82,114,-119,4,-29,-24,-24,14,-9,-24
-161,-78,82,119,-122,2,-24,-34,-24,14,-9,-24
-161,-78,82,119,-122,2,-24,-43,-29,0,-19,-24
-161,-78,82,119,-122,2,-24,-39,-29,0,-19,-29
-156,-82,73,119,-114,-4,-24,-39,-24,4,-19,-29
-156,-82,73,119,-114,-4,-14,-34,-24,4,-19,-34
-161,-92,68,126,-114,-12,-4,-34,-24,14,-9,-24
-165,-92,73,129,-119,-9,-4,-29,-24,14,-4,-24
-170,-97,73,134,-122,-12,-4,-29,-19,14,-4,-24
-175,-97,78,136,-126,-9,0,-29,-19,14,-4,-29
-161,-97,63,129,-112,-17,-9,-29,-24,14,-19,-34
-156,-102,53,129,-104,-24,-9,-34,-29,4,-29,-34
-156,-117,39,136,-97,-39,-9,-34,-29,4,-29,-39
-151,-117,34,134,-92,-41,-9,-34,-29,4,-29,-39
-161,-126,34,143,-97,-46,-19,-43,-39,-4,-34,-48
-161,-126,34,143,-97,-46,-19,-53,-43,-4,-34,-48
-170,-136,34,153,-102,-51,-19,-58,-53,-19,-34,-48
-170,-136,34,153,-102,-51,-19,-68,-68,-29,-43,-58
-156,-131,24,143,-90,-53,-24,-63,-63,-24,-48,-58
-146,-122,24,134,-85,-48,-29,-73,-63,-24,-48,-58
-146,-117,29,131,-87,-43,-43,-78,-68,-29,-48,-53
-136,-117,19,126,-78,-48,-48,-78,-68,-29,-53,-53
-122,-126,-4,124,-58,-65,-58,-82,-78,-39,-53,-48
-117,-126,-9,122,-53,-68,-58,-82,-78,-39,-48,-43
-117,-126,-9,122,-53,-68,-58,-73,-68,-29,-43,-43
-117,-136,-19,126,-48,-78,-58,-63,-63,-29,-43,-48
-112,-151,-39,131,-36,-95,-53,-63,-53,-29,-43,-39
-112,-156,-43,134,-34,-100,-39,-58,-53,-29,-48,-39
-112,-165,-53,139,-29,-109,-24,-58,-53,-34,-53,-43
-122,-180,-58,151,-31,-119,-19,-58,-58,-43,-63,-58
-122,-195,-73,158,-24,-134,-29,-73,-73,-53,-68,-48
-122,-195,-73,158,-24,-134,-29,-73,-73,-58,-68,-63
-122,-195,-73,158,-24,-134,-29,-73,-68,-58,-68,-63
-122,-200,-78,161,-21,-139,-24,-73,-68,-58,-68,-58
-107,-195,-87,151,-9,-141,-24,-63,-63,-48,-63,-43
-97,-190,-92,143,-2,-141,-24,-58,-58,-43,-58,-39
-92,-180,-87,136,-2,-134,-24,-48,-58,-39,-58,-39
-92,-175,-82,134,-4,-129,-24,-43,-48,-39,-58,-39
-92,-165,-73,129,-9,-119,-9,-39,-34,-29,-48,-39
-92,-156,-63,124,-14,-109,0,-34,-34,-29,-48,-34
-102,-156,-53,129,-24,-104,4,-29,-34,-24,-48,-34
-122,-156,-34,139,-43,-95,24,-24,-34,-19,-48,-34
-146,-151,-4,148,-70,-78,34,-24,-29,-24,-48,-43
-161,-141,19,151,-90,-61,43,-24,-29,-19,-48,-43
-165,-136,29,151,-97,-53,48,-24,-29,-14,-48,-39
-175,-126,48,151,-112,-39,58,-24,-29,-14,-43,-39
-165,-136,29,151,-97,-53,53,-14,-39,-14,-43,-43
-170,-141,29,156,-100,-56,53,-19,-43,-19,-43,-48
-170,-146,24,158,-97,-61,48,-24,-48,-24,-48,-48
-170,-151,19,161,-95,-65,48,-29,-53,-29,-53,-48
-170,-141,29,156,-100,-56,39,-39,-43,-19,-48,-53
-170,-141,29,156,-100,-56,39,-43,-48,-24,-53,-58
-170,-141,29,156,-100,-56,43,-43,-53,-24,-58,-58
-170,-141,29,156,-100,-56,43,-43,-53,-24,-58,-58
-185,-141,43,163,-114,-48,63,-24,-48,-34,-63,-48
-185,-136,48,161,-117,-43,58,-19,-48,-19,-48,-48
-185,-122,63,153,-124,-29,68,-29,-39,-9,-39,-48
-190,-102,87,146,-139,-7,29,-209,-209,-126,-107,-82
663,858,195,-761,234,527,902,34,82,405,614,761
-336,-185,151,261,-244,-17,-82,-780,-746,-497,-336,-224
-53,-156,-102,104,24,-129,170,751,712,453,214,87
-14,-112,-97,63,41,-104,214,844,800,522,258,117
-190,-126,63,158,-126,-31,82,-29,-39,-4,-48,-58
-209,-131,78,170,-143,-26,112,82,63,58,-4,-39
-165,-112,53,139,-109,-29,180,351,322,219,97,19
-185,-92,92,139,-139,0,170,151,117,97,14,-24
-185,-107,78,146,-131,-14,161,87,39,39,-19,-43
-185,-112,73,148,-129,-19,161,146,82,58,-4,-43
-175,-107,68,141,-122,-19,146,63,-4,4,-43,-63
-165,-117,48,141,-107,-34,136,19,-53,-29,-63,-63
-175,-126,48,151,-112,-39,136,34,-34,-19,-43,-53
-195,-126,68,161,-131,-29,126,-29,-102,-53,-43,-53
-200,-122,78,161,-139,-21,97,-112,-170,-92,-63,-58
-200,-107,92,153,-146,-7,73,-161,-195,-102,-63,-48
-185,-97,87,141,-136,-4,53,-190,-219,-117,-63,-48
-175,-92,82,134,-129,-4,43,-219,-244,-122,-68,-43
-156,-82,73,119,-114,-4,9,-258,-263,-136,-68,-39
-141,-82,58,112,-100,-12,-34,-302,-273,-136,-53,-24
-131,-73,58,102,-95,-7,-63,-331,-283,-131,-34,0
-131,-68,63,100,-97,-2,-34,-341,-283,-122,-9,14
-131,-53,78,92,-104,12,19,-341,-297,-131,-4,29
-117,-34,82,75,-100,24,4,-375,-326,-151,4,63
-68,-4,63,36,-65,29,-63,-473,-390,-204,14,97
-24,-9,14,17,-19,2,-136,-605,-483,-263,9,141
9,-9,-19,0,14,-14,-248,-775,-600,-346,0,170
53,-14,-68,-19,61,-41,-439,-1024,-771,-453,-14,204
73,-34,-107,-19,90,-70,-712,-1366,-1019,-610,-63,219
102,-53,-156,-24,129,-104,-976,-1708,-1288,-800,-122,234
141,-73,-214,-34,178,-143,-1215,-1971,-1507,-966,-170,253
209,-73,-283,-68,246,-178,-1464,-2176,-1664,-1073,-195,292
302,-39,-341,-131,322,-190,-1659,-2298,-1786,-1151,-204,361
361,-9,-370,-175,366,-190,-1790,-2366,-1864,-1195,-209,424
400,9,-390,-204,395,-190,-1873,-2381,-1898,-1215,-204,488
473,39,-434,-256,453,-197,-1908,-2322,-1878,-1224,-185,556
551,63,-488,-307,519,-212,-1932,-2244,-1854,-1220,-146,629
600,87,-512,-344,556,-212,-1942,-2249,-1893,-1254,-146,658
629,97,-531,-363,580,-217,-1947,-2313,-1981,-1327,-175,658
629,92,-536,-361,583,-222,-1927,-2347,-2025,-1346,-170,692
639,102,-536,-370,588,-217,-1908,-2337,-1995,-1317,-170,697
658,87,-570,-373,614,-241,-1849,-2313,-1956,-1288,-190,697
649,63,-585,-356,617,-261,-1786,-2313,-1976,-1288,-209,688
624,34,-590,-329,607,-278,-1742,-2332,-2005,-1298,-234,668
600,4,-595,-302,597,-295,-1688,-2332,-2015,-1293,-239,653
570,-24,-595,-273,583,-309,-1649,-2352,-2020,-1302,-239,629
556,-24,-580,-265,568,-302,-1625,-2396,-2044,-1312,-239,639
556,9,-546,-283,551,-268,-1605,-2415,-2044,-1278,-204,688
556,9,-546,-283,551,-268,-1595,-2405,-2020,-1268,-195,697
546,0,-546,-273,546,-273,-1561,-2391,-2020,-1278,-234,678
546,-4,-551,-270,549,-278,-1517,-2361,-2005,-1278,-253,697
551,-19,-570,-265,561,-295,-1483,-2332,-1966,-1259,-253,707
551,-43,-595,-253,573,-319,-1464,-2308,-1942,-1249,-253,697
531,-58,-590,-236,561,-324,-1415,-2249,-1893,-1220,-253,668
527,-97,-624,-214,575,-361,-1371,-2171,-1830,-1220,-287,619
522,-165,-688,-178,605,-427,-1317,-2083,-1771,-1229,-346,541
517,-234,-751,-141,634,-492,-1259,-1971,-1683,-1224,-419,468
527,-307,-834,-109,680,-570,-1190,-1878,-1610,-1215,-502,375
527,-366,-893,-80,710,-629,-1112,-1781,-1537,-1195,-570,307
517,-361,-878,-78,697,-619,-1044,-1654,-1420,-1137,-575,283
531,-341,-873,-95,702,-607,-971,-1537,-1312,-1078,-556,278
536,-356,-893,-90,714,-624,-917,-1410,-1205,-1034,-561,239
536,-380,-917,-78,727,-649,-868,-1302,-1127,-1000,-570,180
512,-405,-917,-53,714,-661,-800,-1171,-1049,-961,-575,122
488,-439,-927,-24,707,-683,-736,-1049,-946,-902,-570,68
453,-453,-907,0,680,-680,-668,-936,-854,-844,-580,14
434,-453,-888,9,661,-671,-590,-834,-775,-795,-595,-39
419,-434,-854,7,636,-644,-502,-727,-692,-727,-595,-82
395,-419,-814,12,605,-617,-429,-653,-629,-673,-580,-97
356,-419,-775,31,566,-597,-400,-600,-605,-649,-575,-117
326,-405,-732,39,529,-568,-370,-566,-570,-624,-551,-141
312,-375,-688,31,500,-531,-356,-517,-541,-600,-527,-165
283,-346,-629,31,456,-488,-326,-463,-512,-561,-497,-175
239,-317,-556,39,397,-436,-278,-405,-458,-497,-444,-175
204,-287,-492,41,348,-390,-209,-356,-395,-419,-409,-170
165,-253,-419,43,292,-336,-141,-283,-307,-331,-366,-151
107,-209,-317,51,212,-263,-87,-219,-229,-263,-317,-126
68,-180,-248,56,158,-214,-43,-165,-180,-214,-278,-117
48,-161,-209,56,129,-185,-19,-126,-146,-185,-239,-117
29,-131,-161,51,95,-146,0,-63,-97,-136,-185,-107
-39,-122,-82,80,21,-102,34,0,-34,-78,-136,-87
-78,-112,-34,95,-21,-73,58,39,14,-29,-92,-73
-53,-78,-24,65,-14,-51,92,78,53,9,-68,-73
-78,-87,-9,82,-34,-48,136,112,97,63,-48,-73
-122,-107,14,114,-68,-46,165,161,141,97,-53,-87
-122,-97,24,109,-73,-36,185,185,151,107,-53,-97
-131,-87,43,109,-87,-21,200,190,161,97,-39,-97
-131,-78,53,104,-92,-12,185,200,161,97,-29,-87
-131,-78,53,104,-92,-12,175,209,165,102,-19,-92
-136,-78,58,107,-97,-9,170,214,165,117,-4,-92
-136,-68,68,102,-102,0,165,224,175,126,4,-92
-136,-58,78,97,-107,9,170,224,200,136,-4,-82
-136,-58,78,97,-107,9,185,234,204,151,-4,-82
-136,-58,78,97,-107,9,200,239,204,151,-4,-82
-131,-53,78,92,-104,12,209,248,214,151,-4,-82
-141,-58,82,100,-112,12,219,253,224,161,0,-78
-151,-58,92,104,-122,17,219,258,224,170,9,-73
-151,-58,92,104,-122,17,219,263,234,175,19,-68
-146,-53,92,100,-119,19,219,263,239,175,24,-58
-131,-43,87,87,-109,21,209,268,239,175,24,-68
-131,-43,87,87,-109,21,214,273,248,180,29,-68
-131,-43,87,87,-109,21,214,278,253,185,29,-68
-131,-43,87,87,-109,21,224,283,253,185,29,-68
-146,-43,102,95,-124,29,224,297,258,180,29,-63
-151,-48,102,100,-126,26,224,297,263,180,34,-63
-151,-48,102,100,-126,26,224,302,268,190,43,-63
-151,-43,107,97,-129,31,224,307,268,195,48,-63
-136,-48,87,92,-112,19,234,307,273,209,48,-63
-136,-48,87,92,-112,19,234,312,278,214,48,-63
-136,-48,87,92,-112,19,234,312,278,214,48,-68
-141,-48,92,95,-117,21,234,322,287,214,48,-68
-131,-53,78,92,-104,12,229,326,292,214,48,-68
-131,-53,78,92,-104,12,229,331,292,219,48,-68
-131,-48,82,90,-107,17,229,331,292,219,43,-73
-131,-48,82,90,-107,17,229,331,297,219,43,-73
-131,-39,92,85,-112,26,234,341,317,219,39,-73
-131,-39,92,85,-112,26,234,346,322,219,43,-73
-131,-39,92,85,-112,26,234,356,322,229,43,-73
