I,II,III,aVR,aVL,aVF,V1,V2,V3,V4,V5,V6
-97,-87,9,92,-53,-39,-29,-29,-19,-9,0,0
-97,-87,9,92,-53,-39,-29,-29,-19,-9,0,0
-97,-87,9,92,-53,-39,-29,-29,-19,-9,0,0
-97,-87,9,92,-53,-39,-29,-29,-19,-9,0,0
-97,-87,9,92,-53,-39,-39,-34,-29,-24,-9,-19
-97,-87,9,92,-53,-39,-39,-39,-39,-29,-19,-29
-97,-87,9,92,-53,-39,-39,-43,-48,-34,-29,-39
-97,-87,9,92,-53,-39,-39,-48,-58,-39,-39,-48
-97,-92,4,95,-51,-43,-39,-48,-58,-29,-29,-43
-97,-97,0,97,-48,-48,-39,-48,-58,-29,-29,-39
-97,-102,-4,100,-46,-53,-39,-48,-58,-29,-29,-34
-97,-107,-9,102,-43,-58,-39,-48,-58,-29,-29,-29
-87,-97,-9,92,-39,-53,-29,-58,-58,-29,-29,-34
-87,-97,-9,92,-39,-53,-29,-58,-58,-29,-29,-39
-87,-97,-9,92,-39,-53,-29,-58,-58,-29,-29,-43
-87,-97,-9,92,-39,-53,-29,-58,-58,-29,-29,-48
-87,-97,-9,92,-39,-53,-34,-63,-63,-43,-43,-53
-87,-97,-9,92,-39,-53,-39,-68,-68,-48,-48,-58
-87,-97,-9,92,-39,-53,-43,-73,-73,-53,-53,-63
-87,-97,-9,92,-39,-53,-48,-78,-78,-58,-58,-68
-92,-97,-4,95,-43,-51,-58,-78,-78,-58,-53,-53
-97,-97,0,97,-48,-48,-58,-78,-78,-58,-48,-48
-102,-97,4,100,-53,-46,-58,-78,-78,-58,-43,-43
-107,-97,9,102,-58,-43,-58,-78,-78,-58,-39,-39
-97,-97,0,97,-48,-48,-48,-78,-78,-48,-48,-53
-97,-97,0,97,-48,-48,-48,-78,-78,-48,-48,-58
-97,-97,0,97,-48,-48,-48,-78,-78,-48,-48,-63
-97,-97,0,97,-48,-48,-48,-78,-78,-48,-48,-68
-87,-97,-9,92,-39,-53,-48,-78,-87,-58,-53,-73
-87,-97,-9,92,-39,-53,-48,-78,-87,-58,-58,-78
-87,-97,-9,92,-39,-53,-48,-78,-87,-58,-63,-82
-87,-97,-9,92,-39,-53,-48,-78,-87,-58,-68,-87
-97,-107,-9,102,-43,-58,-58,-87,-87,-68,-63,-78
-97,-107,-9,102,-43,-58,-58,-87,-87,-68,-58,-78
-97,-107,-9,102,-43,-58,-58,-87,-87,-68,-53,-78
-97,-107,-9,102,-43,-58,-58,-87,-87,-68,-48,-78
-97,-102,-4,100,-46,-53,-53,-78,-78,-58,-48,-63
-97,-97,0,97,-48,-48,-48,-78,-78,-58,-48,-58
-97,-92,4,95,-51,-43,-43,-78,-78,-58,-48,-53
-97,-87,9,92,-53,-39,-39,-78,-78,-58,-48,-48
-97,-87,9,92,-53,-39,-34,-68,-68,-48,-48,-48
-97,-87,9,92,-53,-39,-19,-58,-63,-48,-43,-48
-97,-87,9,92,-53,-39,-4,-58,-63,-43,-43,-43
-97,-78,19,87,-58,-29,9,-58,-63,-43,-39,-43
-92,-68,24,80,-58,-21,4,-68,-63,-43,-39,-43
-92,-63,29,78,-61,-17,4,-63,-63,-43,-39,-43
-92,-58,34,75,-63,-12,0,-63,-63,-43,-43,-48
-87,-53,34,70,-61,-9,-4,-63,-63,-43,-43,-48
-97,-53,43,75,-70,-4,9,-63,-63,-34,-34,-43
-97,-48,48,73,-73,0,14,-58,-63,-29,-29,-39
-92,-43,48,68,-70,2,34,-43,-53,-29,-19,-34
-92,-39,53,65,-73,7,78,-29,-48,-19,-14,-29
-92,-43,48,68,-70,2,107,-34,-53,-24,-34,-48
-97,-53,43,75,-70,-4,141,-24,-53,-34,-48,-58
-97,-68,29,82,-63,-19,161,-24,-58,-43,-58,-73
-97,-87,9,92,-53,-39,175,-24,-63,-53,-73,-87
-107,-92,14,100,-61,-39,175,-29,-58,-43,-73,-87
-122,-92,29,107,-75,-31,175,-29,-58,-43,-73,-87
-126,-87,39,107,-82,-24,165,-29,-58,-43,-68,-82
-117,-73,43,95,-80,-14,131,-43,-58,-43,-58,-73
-87,-63,24,75,-56,-19,63,-53,-63,-34,-39,-53
-82,-53,29,68,-56,-12,14,-63,-63,-34,-24,-39
-63,-34,29,48,-46,-2,-29,-73,-58,-34,-19,-24
-58,-24,34,41,-46,4,-78,-87,-68,-39,-14,-9
-48,-34,14,41,-31,-9,-97,-97,-78,-43,-19,-19
-43,-39,4,41,-24,-17,-117,-107,-82,-48,-24,-9
-29,-43,-14,36,-7,-29,-126,-117,-92,-48,-29,-9
-29,-48,-19,39,-4,-34,-122,-117,-92,-48,-34,-4
-48,-48,0,48,-24,-24,-122,-107,-92,-58,-34,-9
-48,-48,0,48,-24,-24,-112,-112,-92,-58,-29,-14
-48,-48,0,48,-24,-24,-112,-117,-92,-63,-29,-24
-53,-48,4,51,-29,-21,-107,-117,-92,-63,-29,-29
-58,-48,9,53,-34,-19,-112,-117,-97,-53,-29,-29
-63,-48,14,56,-39,-17,-112,-117,-107,-63,-39,-29
-68,-48,19,58,-43,-14,-112,-117,-107,-63,-39,-29
-73,-58,14,65,-43,-21,-112,-117,-107,-68,-39,-29
-78,-78,0,78,-39,-39,-112,-107,-102,-58,-34,-19
-82,-92,-9,87,-36,-51,-107,-107,-102,-58,-29,-14
-82,-97,-14,90,-34,-56,-102,-112,-97,-63,-34,-9
-87,-102,-14,95,-36,-58,-102,-117,-97,-68,-29,-4
-82,-112,-29,97,-26,-70,-107,-122,-107,-82,-34,-19
-82,-107,-24,95,-29,-65,-112,-126,-112,-82,-39,-24
-102,-107,-4,104,-48,-56,-112,-131,-117,-87,-43,-29
-117,-122,-4,119,-56,-63,-107,-131,-126,-92,-53,-34
-122,-126,-4,124,-58,-65,-102,-122,-131,-82,-48,-39
-126,-122,4,124,-65,-58,-97,-122,-126,-87,-48,-48
-131,-117,14,124,-73,-51,-78,-117,-107,-87,-48,-48
-131,-107,24,119,-78,-41,-73,-117,-112,-87,-53,-48
-122,-97,24,109,-73,-36,-78,-126,-117,-97,-68,-63
-126,-107,19,117,-73,-43,-78,-126,-122,-97,-73,-63
-126,-112,14,119,-70,-48,-78,-126,-126,-102,-78,-73
-117,-117,0,117,-58,-58,-78,-131,-126,-102,-78,-78
-112,-122,-9,117,-51,-65,-78,-131,-131,-107,-82,-87
-117,-126,-9,122,-53,-68,-78,-131,-131,-107,-82,-87
-126,-126,0,126,-63,-63,-82,-136,-131,-107,-87,-87
-126,-126,0,126,-63,-63,-82,-136,-141,-107,-87,-92
-122,-136,-14,129,-53,-75,-82,-146,-141,-112,-87,-102
-122,-141,-19,131,-51,-80,-82,-146,-141,-112,-87,-102
-122,-146,-24,134,-48,-85,-82,-146,-141,-112,-87,-102
-122,-146,-24,134,-48,-85,-82,-146,-141,-112,-87,-97
-122,-146,-24,134,-48,-85,-87,-136,-126,-102,-73,-92
-117,-146,-29,131,-43,-87,-87,-136,-126,-102,-73,-87
-136,-156,-19,146,-58,-87,-87,-136,-131,-102,-82,-87
-151,-156,-4,153,-73,-80,-87,-141,-131,-102,-87,-82
-151,-165,-14,158,-68,-90,-87,-141,-136,-107,-102,-87
-146,-161,-14,153,-65,-87,-87,-141,-141,-112,-102,-97
-146,-161,-14,153,-65,-87,-87,-141,-146,-117,-107,-112
-151,-161,-9,156,-70,-85,-87,-141,-151,-122,-112,-122
-151,-146,4,148,-78,-70,-78,-141,-141,-122,-112,-117
-156,-136,19,146,-87,-58,-73,-141,-141,-122,-112,-112
-141,-122,19,131,-80,-51,-73,-141,-141,-122,-112,-107
-136,-112,24,124,-80,-43,-73,-136,-141,-122,-112,-102
-146,-136,9,141,-78,-63,-73,-136,-151,-122,-107,-87
-146,-141,4,143,-75,-68,-73,-141,-151,-122,-102,-82
-131,-136,-4,134,-63,-70,-73,-141,-151,-122,-97,-78
-131,-141,-9,136,-61,-75,-73,-141,-151,-122,-92,-78
-136,-146,-9,141,-63,-78,-73,-136,-146,-112,-92,-78
-131,-151,-19,141,-56,-85,-73,-136,-141,-112,-92,-73
-126,-161,-34,143,-46,-97,-73,-136,-136,-112,-92,-73
-126,-170,-43,148,-41,-107,-73,-141,-131,-122,-97,-82
-146,-180,-34,163,-56,-107,-82,-151,-141,-131,-97,-92
-161,-180,-19,170,-70,-100,-82,-151,-141,-126,-92,-87
-165,-175,-9,170,-78,-92,-82,-151,-141,-126,-92,-87
-180,-175,4,178,-92,-85,-82,-151,-146,-126,-92,-87
-151,-156,-4,153,-73,-80,-82,-151,-146,-126,-112,-87
-136,-146,-9,141,-63,-78,-82,-151,-146,-126,-102,-87
-126,-136,-9,131,-58,-73,-82,-151,-141,-126,-102,-87
-112,-126,-14,119,-48,-70,-82,-151,-141,-126,-102,-87
-117,-117,0,117,-58,-58,-73,-141,-131,-126,-92,-78
-117,-117,0,117,-58,-58,-73,-141,-136,-126,-87,-78
-117,-117,0,117,-58,-58,-73,-141,-136,-126,-87,-78
-117,-112,4,114,-61,-53,-73,-136,-122,-122,-87,-78
-126,-122,4,124,-65,-58,-68,-117,-122,-102,-82,-82
-141,-107,34,124,-87,-36,-43,-92,-92,-68,-78,-82
-131,-73,58,102,-95,-7,-19,-48,-39,-19,-63,-87
-126,-29,97,78,-112,34,14,34,48,68,-24,-97
-131,-4,126,68,-129,61,53,141,156,180,43,-68
-141,14,156,63,-148,85,87,244,263,273,107,-24
-122,29,151,46,-136,90,97,331,346,341,190,29
-92,34,126,29,-109,80,87,419,444,414,302,117
-29,58,87,-14,-58,73,73,527,575,531,463,278
97,126,29,-112,34,78,34,610,717,683,707,492
263,214,-48,-239,156,82,-29,678,854,878,1015,771
385,268,-117,-326,251,75,-97,717,951,1039,1337,1049
434,253,-180,-344,307,36,-195,688,971,1098,1537,1254
463,239,-224,-351,344,7,-283,517,839,1010,1517,1327
483,248,-234,-366,358,7,-326,268,605,829,1351,1278
473,268,-204,-370,339,31,-322,82,395,634,1088,1156
468,239,-229,-353,348,4,-273,19,292,497,785,917
429,131,-297,-280,363,-82,-195,-39,195,356,434,595
287,-4,-292,-141,290,-148,-107,-200,-39,131,43,253
63,-131,-195,34,129,-163,0,-434,-395,-214,-370,-78
-170,-190,-19,180,-75,-104,102,-644,-766,-570,-702,-336
-322,-141,180,231,-251,19,161,-775,-966,-741,-790,-409
-370,-68,302,219,-336,117,146,-834,-1005,-722,-712,-380
-385,-24,361,204,-373,168,102,-897,-1058,-727,-673,-370
-414,-14,400,214,-407,192,58,-1024,-1171,-824,-712,-405
-429,-63,366,246,-397,151,34,-1098,-1229,-902,-727,-419
-429,-151,278,290,-353,63,19,-1083,-1180,-902,-727,-439
-424,-209,214,317,-319,2,0,-1044,-1127,-897,-717,-453
-419,-219,200,319,-309,-9,-58,-1005,-1054,-868,-683,-434
-419,-209,209,314,-314,0,-112,-927,-951,-790,-619,-400
-366,-190,175,278,-270,-7,-156,-814,-824,-697,-546,-361
-283,-122,161,202,-222,19,-180,-683,-678,-570,-444,-297
-234,-48,185,141,-209,68,-190,-517,-512,-429,-336,-224
-209,-34,175,122,-192,70,-190,-405,-395,-331,-263,-165
-195,-58,136,126,-165,39,-180,-336,-331,-278,-219,-141
-190,-58,131,124,-161,36,-151,-283,-283,-234,-195,-131
-165,-53,112,109,-139,29,-107,-219,-219,-190,-175,-131
-146,-82,63,114,-104,-9,-78,-175,-185,-175,-161,-136
-146,-107,39,126,-92,-34,-53,-151,-156,-156,-136,-136
-141,-87,53,114,-97,-17,-43,-107,-126,-126,-112,-117
-141,-102,39,122,-90,-31,-39,-97,-102,-117,-112,-107
-151,-112,39,131,-95,-36,-48,-87,-97,-112,-102,-97
-126,-73,53,100,-90,-9,-29,-68,-78,-97,-73,-68
-122,-39,82,80,-102,21,-24,-68,-68,-68,-58,-53
-112,-53,58,82,-85,2,-34,-73,-78,-73,-68,-63
-107,-63,43,85,-75,-9,-39,-78,-82,-78,-78,-73
-102,-73,29,87,-65,-21,-43,-82,-82,-82,-87,-82
-102,-82,19,92,-61,-31,-48,-87,-78,-87,-97,-92
-107,-92,14,100,-61,-39,-53,-73,-63,-82,-87,-82
-122,-97,24,109,-73,-36,-48,-58,-53,-73,-73,-78
-131,-102,29,117,-80,-36,-48,-48,-43,-63,-63,-63
-146,-107,39,126,-92,-34,-53,-48,-43,-63,-53,-58
-136,-102,34,119,-85,-34,-58,-58,-53,-68,-58,-73
-131,-97,34,114,-82,-31,-63,-63,-63,-78,-63,-78
-126,-97,29,112,-78,-34,-63,-68,-68,-82,-73,-82
-126,-102,24,114,-75,-39,-63,-68,-73,-87,-78,-87
-117,-87,29,102,-73,-29,-58,-43,-53,-73,-63,-82
-102,-82,19,92,-61,-31,-48,-34,-34,-58,-58,-78
-92,-78,14,85,-53,-31,-43,-34,-24,-53,-48,-73
-82,-73,9,78,-46,-31,-39,-34,-19,-48,-43,-63
-102,-82,19,92,-61,-31,-53,-43,-39,-53,-58,-73
-102,-82,19,92,-61,-31,-53,-48,-43,-58,-63,-73
-102,-82,19,92,-61,-31,-58,-53,-53,-68,-73,-73
-97,-87,9,92,-53,-39,-58,-53,-58,-73,-82,-82
-92,-82,9,87,-51,-36,-43,-39,-48,-68,-87,-78
-87,-73,14,80,-51,-29,-39,-24,-34,-58,-73,-63
-78,-68,9,73,-43,-29,-39,-24,-24,-48,-63,-58
-78,-53,24,65,-51,-14,-39,-19,-19,-39,-58,-53
-78,-53,24,65,-51,-14,-48,-9,-24,-48,-58,-53
-92,-58,34,75,-63,-12,-48,-9,-24,-48,-58,-53
-92,-58,34,75,-63,-12,-48,-14,-24,-48,-58,-53
-92,-63,29,78,-61,-17,-48,-14,-24,-43,-58,-53
-92,-58,34,75,-63,-12,-43,-9,-14,-43,-58,-53
-92,-68,24,80,-58,-21,-43,-9,-9,-43,-58,-53
-82,-78,4,80,-43,-36,-53,-9,-9,-43,-58,-53
-82,-78,4,80,-43,-36,-43,0,0,-43,-58,-53
-73,-68,4,70,-39,-31,-43,0,-4,-53,-53,-48
-73,-68,4,70,-39,-31,-43,-4,-9,-48,-58,-53
-68,-48,19,58,-43,-14,-43,-9,-14,-48,-63,-58
-68,-43,24,56,-46,-9,-43,-14,-19,-48,-63,-63
-58,-43,14,51,-36,-14,-43,-4,-9,-43,-63,-63
-68,-58,9,63,-39,-24,-43,-4,-9,-43,-73,-73
-73,-63,9,68,-41,-26,-43,-4,-9,-48,-73,-73
-73,-63,9,68,-41,-26,-39,4,-4,-48,-58,-68
-78,-43,34,61,-56,-4,-34,9,9,-24,-43,-53
-78,-43,34,61,-56,-4,-34,14,14,-19,-34,-39
-97,-48,48,73,-73,0,-34,14,14,-14,-29,-29
-82,-48,34,65,-58,-7,-34,19,19,-14,-24,-24
-68,-43,24,56,-46,-9,-48,9,9,-24,-29,-29
-63,-48,14,56,-39,-17,-48,9,4,-24,-34,-29
-58,-58,0,58,-29,-29,-43,14,4,-24,-39,-29
-53,-63,-9,58,-21,-36,-43,24,14,-24,-43,-29
-53,-53,0,53,-26,-26,-39,34,14,-14,-34,-39
-53,-48,4,51,-29,-21,-39,34,14,-14,-34,-39
-53,-48,4,51,-29,-21,-43,34,24,-9,-34,-43
-48,-43,4,46,-26,-19,-48,34,24,-9,-34,-48
-53,-43,9,48,-31,-17,-39,24,24,-9,-34,-58
-58,-48,9,53,-34,-19,-39,24,24,-9,-34,-58
-63,-48,14,56,-39,-17,-39,34,24,-9,-34,-48
-63,-43,19,53,-41,-12,-34,39,29,-9,-29,-43
-53,-53,0,53,-26,-26,-39,29,34,-14,-34,-53
-58,-53,4,56,-31,-24,-43,29,29,-14,-34,-53
-63,-63,0,63,-31,-31,-48,29,29,-19,-34,-53
-63,-63,0,63,-31,-31,-53,34,24,-24,-34,-53
-43,-39,4,41,-24,-17,-39,48,39,-14,-24,-39
-39,-19,19,29,-29,0,-34,58,43,-4,-19,-34
-43,-9,34,26,-39,12,-24,68,48,9,-14,-29
-29,0,29,14,-29,14,-19,78,53,19,-14,-24
-39,-9,29,24,-34,9,-34,68,58,19,-14,-34
-39,-14,24,26,-31,4,-34,78,58,14,-14,-34
-29,-14,14,21,-21,0,-34,82,68,14,-14,-29
-24,-14,9,19,-17,-2,-29,82,73,14,-14,-24
-39,-29,9,34,-24,-9,-34,82,73,19,-9,-34
-53,-34,19,43,-36,-7,-39,82,73,14,-14,-29
-58,-29,29,43,-43,0,-43,82,68,9,-19,-29
-58,-34,24,46,-41,-4,-48,87,68,0,-19,-29
-48,-19,29,34,-39,4,-43,97,92,4,-9,-24
-34,-14,19,24,-26,2,-43,102,92,9,-14,-24
-19,-9,9,14,-14,0,-39,102,87,14,-14,-24
-29,-4,24,17,-26,9,-34,107,87,19,-14,-24
-39,-9,29,24,-34,9,-43,107,102,29,-4,-24
-39,0,39,19,-39,19,-43,112,107,29,-4,-19
-43,0,43,21,-43,21,-39,112,107,29,-4,-14
-43,0,43,21,-43,21,-39,112,107,29,-4,-4
-29,4,34,12,-31,19,-29,122,117,43,0,9
-39,9,48,14,-43,29,-34,126,117,48,14,14
-34,14,48,9,-41,31,-34,146,117,48,19,19
-19,19,39,0,-29,29,-34,156,126,58,29,24
-14,19,34,-2,-24,26,-34,146,126,48,19,14
-19,24,43,-2,-31,34,-34,151,126,48,14,9
-19,19,39,0,-29,29,-34,156,131,43,9,4
-24,14,39,4,-31,26,-34,156,136,39,4,0
-24,19,43,2,-34,31,-43,156,136,48,-4,-9
-19,19,39,0,-29,29,-34,161,136,48,4,-9
-9,19,29,-4,-19,24,-34,165,141,53,14,4
-4,24,29,-9,-17,26,-34,175,151,58,14,14
-9,34,43,-12,-26,39,-24,190,165,68,19,24
0,39,39,-19,-19,39,-24,195,165,68,19,24
-4,39,43,-17,-24,41,-29,195,165,53,19,14
-14,39,53,-12,-34,46,-29,195,170,53,4,4
-24,34,58,-4,-41,46,-29,195,161,63,0,4
-34,34,68,0,-51,51,-29,200,161,53,0,-4
-34,39,73,-2,-53,56,-29,204,161,53,0,4
-29,39,68,-4,-48,53,-29,204,161,53,0,4
-24,48,73,-12,-48,61,-19,195,161,48,-4,9
-24,43,68,-9,-46,56,-19,200,161,48,-4,9
-29,34,63,-2,-46,48,-19,200,161,39,-14,9
-53,14,68,19,-61,41,-19,200,161,39,-14,9
-53,19,73,17,-63,46,-19,200,161,29,-19,0
-48,34,82,7,-65,58,-19,200,161,24,-19,0
-29,39,68,-4,-48,53,-19,200,161,19,-34,-9
-24,43,68,-9,-46,56,-19,204,156,9,-39,-9
-19,43,63,-12,-41,53,-9,214,165,14,-39,-9
-34,48,82,-7,-58,65,-9,214,156,9,-43,-14
-29,53,82,-12,-56,68,-9,214,156,9,-43,-14
-14,78,92,-31,-53,85,-4,214,151,4,-48,-19
-24,68,92,-21,-58,80,-4,200,146,-9,-58,-24
-39,58,97,-9,-68,78,-4,200,141,-24,-78,-34
-29,68,97,-19,-63,82,-4,195,136,-29,-87,-43
-29,78,107,-24,-68,92,0,190,126,-39,-102,-48
-29,58,87,-14,-58,73,0,190,122,-43,-112,-39
-34,48,82,-7,-58,65,4,190,117,-39,-107,-39
-34,48,82,-7,-58,65,4,190,117,-29,-102,-39
-34,58,92,-12,-63,75,9,190,117,-24,-97,-48
-19,63,82,-21,-51,73,19,200,117,-34,-97,-48
-14,53,68,-19,-41,61,19,190,117,-34,-102,-43
-19,43,63,-12,-41,53,19,190,112,-39,-102,-43
-19,48,68,-14,-43,58,19,185,107,-43,-112,-58
-34,34,68,0,-51,51,14,170,92,-58,-122,-68
-34,29,63,2,-48,46,9,156,87,-63,-122,-73
-34,19,53,7,-43,36,4,146,73,-63,-122,-73
-39,9,48,14,-43,29,0,131,63,-58,-117,-73
-39,14,53,12,-46,34,0,136,63,-53,-107,-63
-43,29,73,7,-58,51,0,126,58,-53,-102,-68
-43,24,68,9,-56,46,0,112,48,-53,-102,-68
-48,29,78,9,-63,53,0,102,39,-53,-102,-68
-48,19,68,14,-58,43,4,97,48,-48,-102,-68
-39,4,43,17,-41,24,4,78,39,-48,-102,-68
-39,-9,29,24,-34,9,0,68,29,-53,-112,-73
-48,-19,29,34,-39,4,4,58,19,-63,-112,-78
-63,-24,39,43,-51,7,-4,58,9,-58,-92,-78
-63,-24,39,43,-51,7,-4,43,-4,-58,-87,-73
-68,-19,48,43,-58,14,-4,39,-4,-43,-87,-73
-68,-19,48,43,-58,14,-4,29,-4,-43,-78,-68
-78,-29,48,53,-63,9,-9,9,-19,-48,-78,-78
-82,-39,43,61,-63,2,-9,4,-24,-53,-78,-78
-92,-43,48,68,-70,2,-9,4,-29,-58,-78,-78
-92,-48,43,70,-68,-2,-9,-9,-34,-63,-82,-78
-82,-48,34,65,-58,-7,-14,-24,-48,-63,-73,-68
-87,-63,24,75,-56,-19,-19,-34,-53,-68,-73,-78
-82,-63,19,73,-51,-21,-24,-43,-58,-73,-73,-78
-78,-48,29,63,-53,-9,-34,-48,-68,-73,-73,-87
-87,-63,24,75,-56,-19,-29,-53,-68,-82,-78,-87
-87,-68,19,78,-53,-24,-24,-53,-68,-82,-78,-82
-68,-68,0,68,-34,-34,-19,-58,-68,-82,-73,-82
-58,-58,0,58,-29,-29,-19,-68,-68,-82,-73,-82
-68,-63,4,65,-36,-29,-24,-68,-87,-92,-92,-92
-68,-58,9,63,-39,-24,-24,-73,-87,-92,-92,-97
-78,-82,-4,80,-36,-43,-29,-73,-87,-92,-97,-107
-92,-97,-4,95,-43,-51,-34,-68,-87,-92,-97,-117
-78,-87,-9,82,-34,-48,-24,-58,-82,-92,-82,-107
-73,-78,-4,75,-34,-41,-24,-58,-82,-97,-82,-107
-78,-73,4,75,-41,-34,-24,-63,-87,-97,-92,-107
-73,-63,9,68,-41,-26,-29,-68,-92,-107,-92,-107
-87,-68,19,78,-53,-24,-19,-73,-87,-97,-87,-102
-92,-73,19,82,-56,-26,-24,-73,-87,-102,-87,-102
-97,-73,24,85,-61,-24,-24,-68,-92,-102,-87,-97
-92,-78,14,85,-53,-31,-24,-68,-92,-102,-87,-87
-82,-82,0,82,-41,-41,-24,-78,-97,-107,-92,-97
-78,-87,-9,82,-34,-48,-24,-78,-97,-112,-97,-97
-78,-87,-9,82,-34,-48,-24,-78,-92,-112,-102,-97
-82,-87,-4,85,-39,-46,-29,-73,-87,-112,-107,-102
-87,-82,4,85,-46,-39,-19,-58,-87,-102,-97,-92
-82,-78,4,80,-43,-36,-19,-53,-87,-102,-97,-87
-78,-73,4,75,-41,-34,-19,-53,-87,-102,-97,-87
-68,-68,0,68,-34,-34,-19,-53,-87,-102,-92,-87
-73,-78,-4,75,-34,-41,-9,-53,-78,-92,-82,-78
-82,-78,4,80,-43,-36,-19,-58,-78,-92,-87,-82
-102,-78,24,90,-63,-26,-19,-58,-78,-92,-87,-82
-112,-82,29,97,-70,-26,-14,-53,-78,-97,-92,-82
-112,-92,19,102,-65,-36,-14,-63,-87,-107,-102,-92
-117,-92,24,104,-70,-34,-24,-63,-92,-107,-102,-97
-131,-82,48,107,-90,-17,-24,-63,-92,-102,-102,-97
-126,-82,43,104,-85,-19,-14,-53,-82,-87,-102,-92
-92,-73,19,82,-56,-26,-14,-48,-78,-87,-102,-78
-92,-68,24,80,-58,-21,-9,-43,-68,-87,-97,-78
-92,-63,29,78,-61,-17,-9,-39,-63,-87,-97,-78
-97,-63,34,80,-65,-14,-9,-34,-53,-82,-97,-73
-92,-58,34,75,-63,-12,-19,-43,-58,-92,-97,-78
-102,-58,43,80,-73,-7,-19,-39,-53,-82,-97,-78
-102,-58,43,80,-73,-7,-14,-39,-58,-82,-92,-78
-97,-63,34,80,-65,-14,-14,-39,-63,-82,-92,-78
-107,-73,34,90,-70,-19,-24,-39,-53,-78,-78,-78
-107,-63,43,85,-75,-9,-24,-39,-48,-73,-78,-78
-97,-63,34,80,-65,-14,-24,-34,-48,-63,-73,-78
-92,-73,19,82,-56,-26,-24,-34,-48,-53,-73,-78
-82,-68,14,75,-48,-26,-29,-29,-39,-53,-73,-78
-73,-68,4,70,-39,-31,-29,-29,-39,-53,-63,-78
-73,-73,0,73,-36,-36,-24,-29,-39,-53,-63,-73
-73,-73,0,73,-36,-36,-14,-24,-39,-53,-63,-68
-73,-53,19,63,-46,-17,-24,-34,-48,-53,-63,-68
-68,-48,19,58,-43,-14,-29,-48,-48,-53,-63,-68
-58,-39,19,48,-39,-9,-29,-39,-48,-48,-58,-68
-58,-24,34,41,-46,4,-24,-39,-48,-48,-58,-73
-78,-39,39,58,-58,0,-34,-48,-58,-48,-63,-78
-87,-58,29,73,-58,-14,-34,-48,-58,-53,-63,-78
-112,-73,39,92,-75,-17,-39,-48,-53,-53,-63,-78
-112,-68,43,90,-78,-12,-39,-53,-53,-48,-58,-73
-92,-63,29,78,-61,-17,-39,-48,-58,-39,-48,-73
-78,-53,24,65,-51,-14,-39,-48,-53,-39,-43,-63
-68,-43,24,56,-46,-9,-39,-43,-48,-39,-43,-58
-53,-34,19,43,-36,-7,-39,-39,-39,-39,-43,-58
-39,-29,9,34,-24,-9,-29,-29,-39,-39,-34,-43
-34,-24,9,29,-21,-7,-24,-29,-39,-39,-34,-43
-29,-19,9,24,-19,-4,-24,-29,-39,-39,-39,-53
-29,-14,14,21,-21,0,-34,-29,-39,-39,-43,-58
-48,-34,14,41,-31,-9,-43,-48,-53,-53,-58,-73
-63,-43,19,53,-41,-12,-43,-63,-58,-58,-58,-68
-53,-43,9,48,-31,-17,-43,-68,-63,-63,-53,-73
-58,-43,14,51,-36,-14,-43,-73,-68,-68,-48,-68
-58,-48,9,53,-34,-19,-29,-68,-68,-58,-48,-58
-73,-53,19,63,-46,-17,-29,-63,-63,-58,-48,-58
-73,-39,34,56,-53,-2,-29,-58,-58,-58,-53,-63
-73,-34,39,53,-56,2,-34,-58,-58,-63,-53,-63
-58,-24,34,41,-46,4,-34,-68,-68,-63,-58,-63
-43,-24,19,34,-31,-2,-34,-68,-68,-58,-53,-63
-39,-29,9,34,-24,-9,-34,-68,-68,-58,-53,-68
-34,-29,4,31,-19,-12,-34,-82,-78,-68,-58,-68
-9,-29,-19,19,4,-24,-43,-73,-82,-68,-58,-63
-14,-29,-14,21,0,-21,-48,-73,-82,-68,-58,-63
-29,-29,0,29,-14,-14,-53,-73,-82,-68,-58,-58
-43,-24,19,34,-31,-2,-58,-73,-82,-68,-58,-58
-53,-14,39,34,-46,12,-48,-82,-87,-73,-53,-53
-58,-19,39,39,-48,9,-43,-82,-82,-68,-48,-53
-68,-24,43,46,-56,9,-34,-82,-78,-58,-39,-48
-73,-29,43,51,-58,7,-29,-82,-73,-53,-34,-48
-68,-43,24,56,-46,-9,-43,-92,-82,-68,-48,-53
-63,-39,24,51,-43,-7,-48,-82,-82,-73,-53,-58
-53,-39,14,46,-34,-12,-48,-82,-82,-73,-53,-63
-48,-43,4,46,-26,-19,-48,-82,-87,-78,-58,-63
-48,-43,4,46,-26,-19,-58,-92,-92,-87,-68,-63
-53,-48,4,51,-29,-21,-58,-97,-97,-87,-73,-63
-63,-48,14,56,-39,-17,-58,-102,-102,-87,-73,-68
-68,-48,19,58,-43,-14,-58,-107,-112,-92,-68,-68
-58,-39,19,48,-39,-9,-48,-97,-107,-82,-48,-53
-43,-34,9,39,-26,-12,-43,-92,-92,-73,-48,-48
-43,-34,9,39,-26,-12,-43,-92,-87,-73,-48,-43
-43,-39,4,41,-24,-17,-43,-92,-92,-73,-63,-39
-68,-43,24,56,-46,-9,-43,-92,-102,-73,-53,-48
-73,-43,29,58,-51,-7,-39,-97,-107,-78,-53,-48
-68,-43,24,56,-46,-9,-39,-102,-107,-78,-53,-48
-73,-48,24,61,-48,-12,-39,-102,-102,-73,-48,-39
-78,-53,24,65,-51,-14,-39,-102,-112,-78,-63,-43
-78,-58,19,68,-48,-19,-43,-107,-107,-87,-68,-53
-78,-63,14,70,-46,-24,-48,-112,-107,-92,-68,-58
-87,-68,19,78,-53,-24,-53,-107,-97,-87,-63,-58
-92,-53,39,73,-65,-7,-43,-112,-107,-78,-53,-58
-97,-68,29,82,-63,-19,-34,-107,-107,-78,-58,-68
-112,-73,39,92,-75,-17,-34,-107,-107,-78,-58,-68
-117,-73,43,95,-80,-14,-29,-97,-97,-78,-58,-68
-39,-14,24,26,-31,4,-29,-87,-87,-68,-48,-48
-78,-73,4,75,-41,-34,-58,-117,-112,-97,-73,-73
-78,-97,-19,87,-29,-58,-58,-122,-112,-87,-73,-73
-29,-53,-24,41,-2,-39,-39,-102,-92,-73,-68,-68
-48,-29,19,39,-34,-4,-48,-107,-107,-87,-78,-78
-63,-29,34,46,-48,2,-43,-97,-97,-78,-63,-73
-68,-29,39,48,-53,4,-39,-97,-97,-78,-58,-68
-73,-29,43,51,-58,7,-34,-97,-97,-78,-53,-63
-78,-29,48,53,-63,9,-29,-97,-97,-78,-48,-58
-78,-39,39,58,-58,0,-9,-87,-92,-68,-43,-53
-78,-39,39,58,-58,0,0,-87,-92,-63,-43,-43
-78,-29,48,53,-63,9,9,-87,-92,-63,-39,-39
-73,-24,48,48,-61,12,14,-87,-92,-63,-39,-34
-63,-4,58,34,-61,26,19,-68,-78,-48,-24,-19
-63,4,68,29,-65,36,19,-63,-73,-43,-24,-19
-58,14,73,21,-65,43,19,-58,-68,-39,-19,-14
-58,24,82,17,-70,53,24,-58,-63,-34,-14,-4
-68,19,87,24,-78,53,34,-58,-73,-39,-19,-4
-73,14,87,29,-80,51,48,-48,-63,-39,-9,-4
-82,9,92,36,-87,51,87,-39,-58,-29,-4,-4
-107,0,107,53,-107,53,117,-29,-48,-24,-4,-9
-97,0,97,48,-97,48,146,-24,-53,-34,-19,-14
-92,-4,87,48,-90,41,161,-19,-53,-34,-19,-24
-87,-14,73,51,-80,29,170,-14,-53,-34,-24,-34
-82,-24,58,53,-70,17,175,-9,-48,-34,-29,-43
-97,-24,73,61,-85,24,185,0,-43,-29,-29,-43
-102,-19,82,61,-92,31,185,0,-39,-24,-24,-39
-92,-4,87,48,-90,41,161,-14,-34,-19,-14,-29
-78,0,78,39,-78,39,112,-24,-39,-14,-4,-14
-63,-4,58,34,-61,26,58,-43,-48,-24,-4,-9
-43,9,53,17,-48,31,19,-53,-53,-24,-4,-4
-39,14,53,12,-46,34,-24,-68,-73,-29,-4,0
-29,19,48,4,-39,34,-68,-87,-87,-34,-4,0
-29,9,39,9,-34,24,-92,-97,-82,-39,-4,9
-19,9,29,4,-24,19,-107,-107,-92,-39,-4,9
-24,9,34,7,-29,21,-107,-107,-92,-39,-4,14
-39,9,48,14,-43,29,-102,-107,-92,-39,-4,14
-29,24,53,2,-41,39,-82,-107,-82,-34,9,24
-29,29,58,0,-43,43,-73,-107,-82,-34,9,19
-34,34,68,0,-51,51,-58,-102,-82,-29,9,19
-34,39,73,-2,-53,56,-43,-97,-87,-24,9,19
-24,29,53,-2,-39,41,-58,-102,-97,-39,-9,14
-24,29,53,-2,-39,41,-63,-107,-97,-43,-9,9
-24,19,43,2,-34,31,-68,-112,-97,-53,-9,4
-24,4,29,9,-26,17,-78,-117,-97,-58,-9,0
-24,-14,9,19,-17,-2,-78,-107,-112,-58,-9,-4
-19,-14,4,17,-12,-4,-78,-112,-112,-63,-19,-9
-19,-14,4,17,-12,-4,-82,-117,-117,-68,-19,-14
-14,-14,0,14,-7,-7,-82,-117,-117,-68,-19,-14
-24,-4,19,14,-21,7,-73,-107,-102,-53,-9,-9
-43,0,43,21,-43,21,-68,-107,-97,-53,-9,-4
-58,-9,48,34,-53,19,-58,-102,-97,-53,-14,0
-58,-14,43,36,-51,14,-58,-102,-107,-53,-19,-9
-58,-24,34,41,-46,4,-58,-112,-107,-68,-29,-29
-58,-24,34,41,-46,4,-43,-107,-92,-68,-29,-29
-53,-19,34,36,-43,7,-43,-107,-102,-68,-34,-29
-53,-19,34,36,-43,7,-39,-107,-107,-78,-39,-34
-58,-29,29,43,-43,0,-48,-112,-122,-78,-43,-43
-68,-34,34,51,-51,0,-48,-117,-126,-82,-48,-53
-68,-39,29,53,-48,-4,-48,-126,-126,-82,-48,-58
-73,-43,29,58,-51,-7,-48,-131,-122,-87,-53,-58
-68,-39,29,53,-48,-4,-39,-126,-117,-78,-48,-53
-78,-39,39,58,-58,0,-43,-126,-112,-78,-48,-48
-78,-39,39,58,-58,0,-43,-122,-117,-78,-43,-48
-73,-39,34,56,-53,-2,-43,-117,-112,-82,-39,-43
-73,-43,29,58,-51,-7,-43,-117,-112,-73,-39,-43
-73,-48,24,61,-48,-12,-43,-117,-112,-73,-39,-43
-73,-48,24,61,-48,-12,-43,-117,-112,-73,-39,-39
-58,-39,19,48,-39,-9,-39,-117,-107,-73,-34,-39
-43,-48,-4,46,-19,-26,-48,-126,-112,-78,-48,-53
-53,-58,-4,56,-24,-31,-48,-126,-122,-82,-63,-63
-58,-58,0,58,-29,-29,-48,-131,-126,-87,-73,-68
-53,-58,-4,56,-24,-31,-48,-131,-131,-92,-78,-68
-63,-48,14,56,-39,-17,-39,-126,-126,-87,-58,-53
-68,-43,24,56,-46,-9,-39,-122,-122,-82,-53,-53
-78,-39,39,58,-58,0,-39,-117,-117,-78,-48,-48
-87,-39,48,63,-68,4,-39,-112,-112,-73,-43,-43
-97,-53,43,75,-70,-4,-39,-126,-126,-78,-53,-53
-87,-53,34,70,-61,-9,-43,-131,-131,-82,-53,-53
-87,-58,29,73,-58,-14,-48,-131,-136,-87,-53,-53
-87,-73,14,80,-51,-29,-53,-136,-141,-92,-53,-53
-78,-63,14,70,-46,-24,-43,-126,-126,-82,-48,-43
-63,-53,9,58,-36,-21,-43,-122,-122,-82,-43,-43
-63,-53,9,58,-36,-21,-43,-117,-117,-82,-39,-48
-73,-53,19,63,-46,-17,-43,-107,-112,-82,-34,-48
-73,-43,29,58,-51,-7,-34,-117,-112,-82,-34,-43
-73,-48,24,61,-48,-12,-34,-117,-112,-82,-34,-43
-78,-53,24,65,-51,-14,-34,-122,-112,-92,-39,-53
-82,-53,29,68,-56,-12,-34,-122,-112,-92,-39,-53
-87,-68,19,78,-53,-24,-43,-122,-117,-97,-39,-53
-82,-68,14,75,-48,-26,-43,-122,-122,-97,-43,-58
-87,-73,14,80,-51,-29,-43,-122,-131,-97,-48,-63
-87,-78,9,82,-48,-34,-43,-122,-136,-97,-63,-68
-87,-68,19,78,-53,-24,-34,-131,-126,-87,-53,-68
-92,-68,24,80,-58,-21,-34,-131,-122,-87,-53,-68
-92,-68,24,80,-58,-21,-34,-131,-122,-87,-53,-68
-87,-68,19,78,-53,-24,-34,-131,-122,-87,-53,-68
-107,-58,48,82,-78,-4,-43,-122,-117,-87,-39,-39
-97,-68,29,82,-63,-19,-53,-122,-126,-87,-39,-48
-87,-73,14,80,-51,-29,-63,-136,-141,-102,-58,-58
-68,-73,-4,70,-31,-39,-58,-126,-122,-92,-53,-53
-53,-58,-4,56,-24,-31,-24,-92,-102,-58,-29,-53
-73,-34,39,53,-56,2,9,-58,-58,-9,-4,-48
-117,0,117,58,-117,58,43,14,29,78,34,-29
-161,43,204,58,-183,124,82,112,146,180,82,-9
-141,73,214,34,-178,143,126,224,244,273,146,24
-102,78,180,12,-141,129,146,312,317,331,209,58
-53,92,146,-19,-100,119,136,390,395,375,273,117
39,136,97,-87,-29,117,122,507,507,473,405,219
146,204,58,-175,43,131,92,610,668,614,600,395
263,253,-9,-258,136,122,29,678,805,761,839,595
385,287,-97,-336,241,95,-58,717,902,902,1093,844
483,292,-190,-387,336,51,-146,707,971,1000,1312,1058
570,287,-283,-429,427,2,-234,614,917,971,1381,1171
649,326,-322,-488,485,2,-287,405,732,849,1293,1180
688,356,-331,-522,509,12,-331,180,492,653,1058,1078
644,317,-326,-480,485,-4,-312,48,331,488,805,897
546,229,-317,-387,431,-43,-214,0,253,375,522,644
405,82,-322,-244,363,-119,-107,-112,87,209,180,322
239,-43,-283,-97,261,-163,0,-336,-219,-78,-195,0
24,-122,-146,48,85,-134,122,-575,-590,-405,-536,-268
-204,-102,102,153,-153,0,209,-736,-868,-614,-702,-390
-322,-58,263,190,-292,102,204,-844,-976,-644,-663,-361
-356,-34,322,195,-339,143,161,-927,-1039,-639,-605,-341
-405,-53,351,229,-378,148,126,-1044,-1161,-727,-634,-375
-429,-92,336,261,-383,122,82,-1166,-1268,-834,-678,-409
-429,-161,268,295,-348,53,48,-1171,-1249,-863,-688,-429
-424,-209,214,317,-319,2,29,-1132,-1176,-839,-658,-424
-400,-229,170,314,-285,-29,-29,-1093,-1132,-839,-644,-424
-361,-229,131,295,-246,-48,-92,-1024,-1029,-790,-600,-390
-326,-200,126,263,-226,-36,-107,-893,-873,-678,-497,-331
-292,-122,170,207,-231,24,-102,-712,-697,-541,-385,-268
-263,-68,195,165,-229,63,-131,-527,-522,-400,-287,-214
-248,-53,195,151,-222,70,-141,-385,-385,-292,-214,-165
-224,-58,165,141,-195,53,-122,-317,-312,-239,-170,-131
-180,-39,141,109,-161,51,-92,-263,-253,-195,-136,-102
-126,-4,122,65,-124,58,-58,-209,-209,-161,-117,-92
-97,14,112,41,-104,63,-39,-165,-165,-136,-102,-87
-107,-9,97,58,-102,43,-24,-141,-136,-107,-87,-78
-122,-39,82,80,-102,21,-14,-107,-117,-87,-73,-78
-131,-53,78,92,-104,12,0,-78,-92,-78,-53,-68
-122,-53,68,87,-95,7,19,-48,-68,-53,-34,-58
-107,-63,43,85,-75,-9,0,-58,-78,-58,-43,-58
-112,-68,43,90,-78,-12,-14,-78,-87,-78,-48,-63
-117,-53,63,85,-90,4,-9,-73,-87,-73,-39,-53
-117,-53,63,85,-90,4,-9,-68,-82,-68,-39,-53
-117,-53,63,85,-90,4,-9,-63,-73,-63,-39,-53
-122,-53,68,87,-95,7,-9,-58,-58,-58,-39,-53
-117,-58,58,87,-87,0,4,-34,-43,-48,-24,-48
-122,-58,63,90,-92,2,9,-19,-34,-34,-14,-48
-122,-58,63,90,-92,2,9,-9,-24,-19,-9,-39
-126,-58,68,92,-97,4,4,-9,-24,-14,-4,-39
-112,-43,68,78,-90,12,0,-29,-29,-19,-9,-48
-102,-29,73,65,-87,21,-4,-34,-34,-29,-14,-48
-92,-19,73,56,-82,26,-4,-39,-34,-34,-24,-48
-87,-14,73,51,-80,29,-4,-39,-34,-39,-29,-48
-97,-29,68,63,-82,19,-14,-24,-29,-34,-24,-34
-102,-43,58,73,-80,7,-9,-14,-14,-19,-19,-29
-112,-58,53,85,-82,-2,-9,-14,-9,-14,-9,-24
-122,-73,48,97,-85,-12,-9,-14,-9,-9,-4,-14
-122,-68,53,95,-87,-7,-14,-14,-14,-19,-14,-24
-122,-63,58,92,-90,-2,-14,-19,-14,-19,-14,-24
-122,-58,63,90,-92,2,-19,-24,-19,-24,-19,-24
-117,-58,58,87,-87,0,-19,-24,-19,-24,-24,-34
-92,-48,43,70,-68,-2,-14,-9,-14,-24,-24,-43
-78,-43,34,61,-56,-4,-9,4,-4,-19,-14,-34
-58,-43,14,51,-36,-14,-9,4,0,-14,-9,-34
-48,-34,14,41,-31,-9,-9,9,0,-9,-9,-34
-58,-24,34,41,-46,4,0,19,14,0,-9,-14
-82,-19,63,51,-73,21,0,19,14,0,-9,-14
-92,-9,82,51,-87,36,0,14,14,0,-9,-14
-102,-4,97,53,-100,46,0,14,14,4,-9,-14
-102,-14,87,58,-95,36,4,9,4,-4,0,-24
-102,-29,73,65,-87,21,4,9,9,-4,0,-24
-92,-43,48,68,-70,2,-4,9,9,-4,0,-24
-92,-48,43,70,-68,-2,4,19,19,-4,0,-24
-97,-48,48,73,-73,0,-4,24,19,-4,0,-14
-102,-58,43,80,-73,-7,-4,24,19,0,0,-14
-102,-48,53,75,-78,2,-4,24,19,0,0,-14
-107,-53,53,80,-80,0,-4,24,19,0,4,-14
-107,-48,58,78,-82,4,0,34,29,14,14,-4
-117,-58,58,87,-87,0,4,34,29,14,4,-14
-122,-58,63,90,-92,2,9,34,29,9,4,-14
-122,-53,68,87,-95,7,19,43,34,9,19,-9
-112,-29,82,70,-97,26,19,39,39,14,24,-14
-107,-24,82,65,-95,29,14,43,43,19,24,-9
-122,-24,97,73,-109,36,9,43,43,24,19,-9
-102,-19,82,61,-92,31,4,48,48,24,14,-14
-92,-14,78,53,-85,31,9,39,39,24,4,-14
-92,-19,73,56,-82,26,9,39,34,24,4,-19
-92,-29,63,61,-78,17,14,43,34,24,4,-24
-92,-34,58,63,-75,12,14,53,43,24,4,-29
-92,-24,68,58,-80,21,9,63,53,24,14,-19
-92,-19,73,56,-82,26,9,63,53,24,14,-19
-92,-19,73,56,-82,26,4,63,63,29,14,-24
-87,-14,73,51,-80,29,0,63,63,29,14,-29
-78,-24,53,51,-65,14,0,63,63,29,14,-29
-78,-29,48,53,-63,9,0,63,63,29,14,-29
-78,-29,48,53,-63,9,0,73,63,29,14,-19
-73,-24,48,48,-61,12,4,78,68,29,19,-14
-78,-29,48,53,-63,9,14,87,68,29,24,-14
-87,-34,53,61,-70,9,14,87,68,34,24,-14
-97,-48,48,73,-73,0,14,87,73,34,24,-14
-102,-53,48,78,-75,-2,14,92,73,34,24,-14
-97,-43,53,70,-75,4,24,102,92,39,39,-9
-97,-29,68,63,-82,19,24,107,92,43,39,-4
-107,-24,82,65,-95,29,29,112,92,53,39,0
-97,-19,78,58,-87,29,29,117,92,58,34,4
-87,-24,63,56,-75,19,14,107,97,53,24,0
-87,-24,63,56,-75,19,14,117,97,43,24,-4
-78,-19,58,48,-68,19,14,122,107,39,24,-4
-73,-14,58,43,-65,21,19,122,112,34,24,-4
-73,-4,68,39,-70,31,29,141,122,48,43,9
-82,-4,78,43,-80,36,29,141,122,53,43,19
-82,4,87,39,-85,46,29,141,117,58,43,24
-78,4,82,36,-80,43,29,146,117,58,48,29
-92,0,92,46,-92,46,29,146,131,68,58,24
-82,-4,78,43,-80,36,24,151,131,68,53,24
-73,-9,63,41,-68,26,24,151,126,68,53,24
-87,-14,73,51,-80,29,24,156,126,68,53,24
-92,-9,82,51,-87,36,19,161,131,73,58,19
-87,0,87,43,-87,43,14,161,136,68,53,19
-87,0,87,43,-87,43,14,156,136,63,48,19
-82,0,82,41,-82,41,9,151,136,58,43,24
-92,-9,82,51,-87,36,19,165,136,63,39,14
-107,-9,97,58,-102,43,14,165,136,68,43,14
-107,-9,97,58,-102,43,14,180,136,68,39,14
-97,-9,87,53,-92,39,14,185,146,78,39,14
-78,4,82,36,-80,43,4,175,156,68,39,9
-78,14,92,31,-85,53,4,180,156,68,34,9
-73,14,87,29,-80,51,4,185,161,63,29,9
-73,14,87,29,-80,51,4,185,165,58,24,9
-78,29,107,24,-92,68,4,195,175,63,29,9
-78,29,107,24,-92,68,14,200,175,68,43,19
-73,29,102,21,-87,65,14,204,180,78,58,43
-73,34,107,19,-90,70,14,214,190,87,63,63
-63,48,112,7,-87,80,34,229,195,97,58,63
-48,58,107,-4,-78,82,34,234,195,97,58,63
-48,63,112,-7,-80,87,29,234,195,82,58,53
-53,68,122,-7,-87,95,29,234,200,82,43,43
-53,58,112,-2,-82,85,24,229,190,73,34,39
-63,53,117,4,-90,85,19,229,190,63,29,24
-63,53,117,4,-90,85,14,229,190,63,24,29
-58,48,107,4,-82,78,9,224,190,63,19,24
-63,48,112,7,-87,80,0,214,180,68,14,19
-63,43,107,9,-85,75,0,219,180,68,14,19
-68,34,102,17,-85,68,0,219,180,58,4,19
-92,14,107,39,-100,61,0,219,180,58,4,19
-97,29,126,34,-112,78,14,224,190,58,9,29
-97,43,141,26,-119,92,19,229,190,53,9,29
-82,48,131,17,-107,90,24,234,190,48,-4,19
-82,53,136,14,-109,95,29,244,185,39,-9,19
-82,39,122,21,-102,80,29,244,195,39,-9,29
-102,39,141,31,-122,90,29,244,185,39,-14,24
-102,39,141,31,-122,90,29,244,185,43,-14,24
-92,58,151,17,-122,104,34,244,180,43,-19,19
-78,39,117,19,-97,78,34,239,175,29,-24,14
-87,29,117,29,-102,73,34,239,170,14,-39,4
-73,39,112,17,-92,75,34,234,165,9,-43,-4
-68,48,117,9,-92,82,39,229,156,0,-53,-9
-78,43,122,17,-100,82,39,229,151,0,-68,-19
-82,39,122,21,-102,80,43,229,146,0,-68,-19
-82,43,126,19,-104,85,43,229,146,4,-68,-19
-82,58,141,12,-112,100,48,229,146,4,-68,-29
-97,43,141,26,-119,92,39,219,141,0,-68,-29
-102,24,126,39,-114,75,39,209,136,-4,-73,-24
-117,4,122,56,-119,63,39,209,126,-14,-73,-24
-126,0,126,63,-126,63,39,204,117,-24,-82,-39
-126,9,136,58,-131,73,29,195,112,-19,-92,-29
-122,9,131,56,-126,70,29,185,107,-24,-92,-34
-117,4,122,56,-119,63,29,180,92,-24,-92,-34
-117,0,117,58,-117,58,29,170,82,-19,-87,-34
-126,-9,117,68,-122,53,34,165,87,-24,-78,-34
-141,0,141,70,-141,70,39,156,87,-24,-73,-39
-151,-9,141,80,-146,65,43,141,82,-24,-73,-39
-165,-9,156,87,-161,73,48,131,78,-24,-73,-39
-156,-14,141,85,-148,63,39,126,68,-29,-82,-48
-136,-24,112,80,-124,43,34,107,58,-29,-82,-48
-126,-34,92,80,-109,29,24,97,48,-34,-92,-53
-126,-39,87,82,-107,24,24,87,39,-43,-92,-58
-126,-53,73,90,-100,9,24,78,29,-39,-73,-58
-122,-53,68,87,-95,7,24,63,14,-39,-68,-53
-122,-48,73,85,-97,12,24,58,14,-24,-68,-53
-117,-48,68,82,-92,9,24,48,14,-24,-58,-48
-126,-43,82,85,-104,19,19,39,9,-24,-48,-43
-131,-48,82,90,-107,17,19,34,4,-24,-48,-39
-141,-48,92,95,-117,21,19,34,0,-24,-48,-34
-141,-48,92,95,-117,21,19,19,-4,-24,-53,-29
-146,-68,78,107,-112,4,14,-4,-39,-43,-53,-39
-156,-82,73,119,-114,-4,9,-14,-43,-48,-53,-48
-156,-82,73,119,-114,-4,4,-24,-48,-53,-53,-48
-156,-68,87,112,-122,9,-4,-29,-58,-53,-53,-58
-170,-92,78,131,-124,-7,-4,-34,-48,-43,-58,-68
-175,-97,78,136,-126,-9,-4,-34,-48,-43,-58,-63
-161,-97,63,129,-112,-17,-4,-39,-48,-43,-53,-63
-156,-87,68,122,-112,-9,-9,-48,-48,-43,-53,-63
-146,-73,73,109,-109,0,-9,-39,-58,-53,-63,-78
-136,-58,78,97,-107,9,-4,-43,-58,-53,-63,-78
-136,-73,63,104,-100,-4,-4,-43,-58,-53,-68,-82
-141,-78,63,109,-102,-7,-4,-39,-58,-53,-68,-87
-141,-78,63,109,-102,-7,4,-39,-53,-43,-53,-82
-141,-78,63,109,-102,-7,4,-39,-53,-48,-53,-78
-151,-82,68,117,-109,-7,4,-43,-58,-48,-63,-73
-151,-82,68,117,-109,-7,0,-48,-63,-58,-63,-68
-156,-92,63,124,-109,-14,-9,-63,-68,-68,-68,-68
-161,-102,58,131,-109,-21,-14,-63,-68,-73,-68,-73
-165,-107,58,136,-112,-24,-14,-58,-73,-73,-68,-73
-161,-117,43,139,-102,-36,-14,-58,-73,-73,-68,-68
-146,-102,43,124,-95,-29,0,-53,-63,-68,-53,-63
-136,-97,39,117,-87,-29,4,-48,-58,-63,-48,-58
-131,-87,43,109,-87,-21,9,-43,-48,-53,-43,-53
-131,-78,53,104,-92,-12,9,-34,-39,-43,-39,-53
-151,-87,63,119,-107,-12,9,-39,-43,-48,-53,-63
-151,-97,53,124,-102,-21,9,-34,-48,-53,-58,-58
-151,-107,43,129,-97,-31,9,-34,-53,-58,-63,-58
-146,-117,29,131,-87,-43,9,-34,-58,-63,-63,-58
-146,-117,29,131,-87,-43,4,-39,-68,-73,-73,-63
-151,-117,34,134,-92,-41,-9,-48,-68,-73,-78,-73
-165,-117,48,141,-107,-34,-14,-53,-68,-73,-78,-78
-170,-122,48,146,-109,-36,-14,-53,-68,-78,-82,-82
-156,-107,48,131,-102,-29,-14,-53,-68,-87,-82,-82
-146,-102,43,124,-95,-29,-24,-53,-73,-87,-82,-87
-146,-87,58,117,-102,-14,-24,-53,-73,-82,-82,-87
-126,-82,43,104,-85,-19,-14,-43,-63,-68,-82,-82
-117,-82,34,100,-75,-24,-9,-34,-58,-48,-63,-78
-131,-78,53,104,-92,-12,0,-34,-48,-48,-58,-78
-146,-73,73,109,-109,0,4,-34,-43,-48,-58,-78
-165,-73,92,119,-129,9,9,-34,-34,-43,-58,-73
-156,-73,82,114,-119,4,9,-24,-43,-43,-39,-63
-161,-78,82,119,-122,2,9,-19,-34,-34,-39,-58
-156,-82,73,119,-114,-4,14,-19,-34,-34,-34,-53
-146,-92,53,119,-100,-19,14,-19,-34,-34,-34,-48
-151,-97,53,124,-102,-21,4,-19,-34,-34,-29,-48
-156,-92,63,124,-109,-14,4,-19,-29,-34,-29,-48
-151,-97,53,124,-102,-21,4,-14,-29,-29,-24,-48
-151,-112,39,131,-95,-36,4,-14,-29,-24,-24,-48
-161,-112,48,136,-104,-31,4,-29,-39,-34,-43,-68
-151,-107,43,129,-97,-31,0,-29,-39,-34,-34,-68
-151,-107,43,129,-97,-31,0,-29,-39,-34,-34,-63
-151,-102,48,126,-100,-26,4,-24,-39,-34,-34,-58
-131,-82,48,107,-90,-17,-4,-24,-39,-43,-39,-63
-126,-78,48,102,-87,-14,-9,-39,-39,-43,-43,-68
-117,-68,48,92,-82,-9,-9,-29,-39,-39,-43,-73
-117,-53,63,85,-90,4,-4,-29,-39,-39,-48,-82
-126,-53,73,90,-100,9,-4,-19,-29,-29,-48,-73
-126,-58,68,92,-97,4,-4,-19,-29,-34,-43,-68
-141,-58,82,100,-112,12,-9,-19,-24,-34,-39,-63
-131,-39,92,85,-112,26,-9,-24,-24,-29,-29,-53
-136,-68,68,102,-102,0,-19,-29,-39,-39,-34,-63
-136,-73,63,104,-100,-4,-19,-39,-43,-39,-34,-53
-141,-78,63,109,-102,-7,-19,-43,-48,-39,-39,-48
-141,-82,58,112,-100,-12,-19,-48,-48,-39,-43,-48
-131,-73,58,102,-95,-7,-19,-48,-48,-39,-39,-43
-131,-73,58,102,-95,-7,-14,-48,-48,-39,-34,-43
-131,-73,58,102,-95,-7,-14,-48,-48,-39,-34,-53
-136,-73,63,104,-100,-4,-24,-48,-48,-39,-34,-58
-136,-78,58,107,-97,-9,-24,-48,-53,-43,-39,-68
-141,-73,68,107,-104,-2,-24,-53,-48,-39,-39,-58
-122,-58,63,90,-92,2,-24,-48,-43,-34,-34,-58
-117,-43,73,80,-95,14,-24,-43,-39,-29,-29,-48
-122,-63,58,92,-90,-2,-9,-43,-43,-39,-29,-48
-141,-73,68,107,-104,-2,-9,-43,-43,-39,-29,-48
-146,-63,82,104,-114,9,-9,-43,-43,-39,-34,-53
-151,-63,87,107,-119,12,-14,-48,-48,-43,-34,-53
-136,-53,82,95,-109,14,-24,-58,-58,-43,-29,-48
-122,-53,68,87,-95,7,-24,-58,-58,-39,-24,-43
-117,-58,58,87,-87,0,-24,-58,-58,-39,-24,-43
-112,-58,53,85,-82,-2,-24,-73,-68,-48,-29,-39
-92,-68,24,80,-58,-21,-19,-63,-63,-39,-29,-53
-102,-68,34,85,-68,-17,-19,-63,-63,-39,-29,-53
-122,-68,53,95,-87,-7,-19,-63,-63,-39,-29,-48
-141,-63,78,102,-109,7,-19,-63,-63,-39,-29,-48
-156,-73,82,114,-119,4,-24,-82,-73,-48,-29,-53
-156,-78,78,117,-117,0,-24,-82,-73,-48,-29,-53
-161,-82,78,122,-119,-2,-19,-82,-73,-43,-24,-48
-161,-87,73,124,-117,-7,-19,-82,-73,-43,-24,-48
-156,-97,58,126,-107,-19,-39,-92,-82,-53,-24,-39
-151,-87,63,119,-107,-12,-39,-82,-82,-53,-24,-39
-141,-82,58,112,-100,-12,-34,-82,-82,-48,-19,-39
-136,-82,53,109,-95,-14,-29,-82,-87,-48,-19,-34
-126,-68,58,97,-92,-4,-19,-78,-78,-48,-19,-34
-122,-68,53,95,-87,-7,-19,-78,-78,-48,-24,-34
-122,-63,58,92,-90,-2,-19,-78,-78,-48,-24,-39
-117,-58,58,87,-87,0,-19,-78,-82,-53,-19,-39
-107,-58,48,82,-78,-4,-24,-87,-82,-63,-14,-53
-92,-53,39,73,-65,-7,-24,-82,-73,-53,-19,-58
-92,-53,39,73,-65,-7,-29,-82,-73,-53,-24,-63
-92,-58,34,75,-63,-12,-34,-82,-82,-53,-43,-68
-122,-68,53,95,-87,-7,-43,-92,-92,-63,-43,-78
-131,-73,58,102,-95,-7,-39,-97,-97,-68,-43,-78
-131,-78,53,104,-92,-12,-39,-102,-97,-68,-43,-78
-141,-87,53,114,-97,-17,-39,-102,-92,-63,-39,-68
-136,-82,53,109,-95,-14,-29,-87,-82,-58,-34,-53
-136,-78,58,107,-97,-9,-24,-87,-78,-58,-29,-53
-136,-73,63,104,-100,-4,-19,-87,-78,-53,-19,-48
-146,-68,78,107,-112,4,-14,-78,-68,-39,-4,-39
-92,-43,48,68,-70,2,-4,-73,-68,-39,-4,-29
-87,-58,29,73,-58,-14,-34,-97,-87,-58,-29,-48
-92,-53,39,73,-65,-7,-34,-97,-107,-68,-29,-58
-117,-53,63,85,-90,4,-29,-97,-97,-68,-29,-48
-107,-39,68,73,-87,14,-19,-78,-78,-58,-19,-39
-112,-48,63,80,-87,7,-9,-78,-78,-58,-19,-39
-117,-48,68,82,-92,9,-9,-78,-78,-58,-19,-39
-122,-48,73,85,-97,12,-9,-78,-78,-58,-19,-39
-126,-48,78,87,-102,14,-9,-78,-78,-58,-19,-39
-131,-48,82,90,-107,17,9,-58,-63,-53,-4,-29
-136,-48,87,92,-112,19,19,-58,-63,-43,-4,-24
-141,-39,102,90,-122,31,29,-58,-63,-39,0,-24
-141,-34,107,87,-124,36,34,-58,-63,-34,0,-24
-131,-29,102,80,-117,36,24,-63,-63,-43,-9,-34
-122,-24,97,73,-109,36,19,-63,-63,-43,-14,-39
-107,-19,87,63,-97,34,14,-63,-63,-43,-14,-39
-97,-14,82,56,-90,34,14,-68,-63,-43,-14,-34
-87,-19,68,53,-78,24,29,-58,-63,-29,-9,-29
-82,-14,68,48,-75,26,48,-48,-53,-29,0,-24
-82,-9,73,46,-78,31,92,-39,-48,-19,4,-19
-97,-9,87,53,-92,39,126,-29,-39,-14,4,-19
-122,-24,97,73,-109,36,151,-14,-24,-4,9,-19
-131,-34,97,82,-114,31,170,-9,-24,-4,9,-24
-141,-48,92,95,-117,21,185,-4,-24,-4,4,-29
-151,-63,87,107,-119,12,195,0,-19,-4,0,-34
-151,-43,107,97,-129,31,195,-9,-29,-14,0,-29
-141,-29,112,85,-126,41,185,-9,-29,-14,4,-29
-117,-4,112,61,-114,53,151,-24,-29,-14,14,-24
-87,9,97,39,-92,53,92,-34,-39,-14,24,-14
-73,4,78,34,-75,41,43,-53,-43,-14,29,-19
-53,19,73,17,-63,46,9,-63,-43,-14,24,-14
-48,24,73,12,-61,48,-29,-78,-58,-19,19,-9
-39,29,68,4,-53,48,-68,-97,-68,-24,14,-9
-43,24,68,9,-56,46,-82,-97,-73,-39,14,0
-29,19,48,4,-39,34,-97,-107,-82,-39,14,0
-29,14,43,7,-36,29,-97,-107,-82,-39,14,4
-39,9,48,14,-43,29,-92,-107,-82,-39,14,4
-43,4,48,19,-46,26,-73,-112,-82,-29,19,4
-48,0,48,24,-48,24,-73,-117,-82,-34,19,0
-58,-4,53,31,-56,24,-68,-117,-82,-34,19,0
-63,-9,53,36,-58,21,-63,-117,-87,-34,19,0
-68,-9,58,39,-63,24,-63,-117,-87,-43,9,0
-73,-9,63,41,-68,26,-63,-117,-87,-43,9,0
-78,-19,58,48,-68,19,-63,-117,-87,-48,9,0
-82,-34,48,58,-65,7,-68,-117,-87,-48,9,0
-73,-34,39,53,-56,2,-58,-117,-92,-48,9,-4
-68,-34,34,51,-51,0,-58,-122,-92,-53,0,-9
-68,-34,34,51,-51,0,-63,-126,-97,-58,0,-14
-63,-34,29,48,-46,-2,-63,-126,-97,-58,0,-14
-48,-19,29,34,-39,4,-63,-117,-102,-53,-9,-14
-63,-19,43,41,-53,12,-58,-117,-97,-53,-9,-14
-73,-34,39,53,-56,2,-48,-112,-97,-53,-14,-14
-68,-43,24,56,-46,-9,-48,-112,-107,-53,-19,-29
-78,-48,29,63,-53,-9,-53,-122,-117,-68,-9,-29
-87,-53,34,70,-61,-9,-43,-117,-102,-68,-9,-29
-92,-53,39,73,-65,-7,-48,-117,-112,-68,-14,-29
-102,-58,43,80,-73,-7,-48,-117,-117,-78,-19,-34
-112,-58,53,85,-82,-2,-48,-107,-112,-78,-29,-39
-117,-63,53,90,-85,-4,-48,-107,-117,-82,-39,-53
-112,-68,43,90,-78,-12,-48,-112,-117,-82,-43,-63
-112,-73,39,92,-75,-17,-48,-112,-112,-87,-53,-68
-107,-73,34,90,-70,-19,-39,-112,-102,-82,-39,-58
-117,-68,48,92,-82,-9,-43,-117,-102,-78,-39,-58
-117,-63,53,90,-85,-4,-43,-117,-112,-73,-34,-63
-112,-58,53,85,-82,-2,-43,-117,-112,-73,-29,-63
-112,-68,43,90,-78,-12,-43,-117,-112,-82,-39,-63
-112,-78,34,95,-73,-21,-43,-117,-112,-82,-39,-63
-112,-82,29,97,-70,-26,-43,-117,-112,-82,-39,-58
-97,-78,19,87,-58,-29,-39,-117,-107,-82,-34,-58
-97,-78,19,87,-58,-29,-43,-126,-112,-92,-43,-68
-112,-87,24,100,-68,-31,-48,-126,-122,-92,-53,-73
-122,-87,34,104,-78,-26,-53,-131,-126,-92,-58,-73
-122,-87,34,104,-78,-26,-58,-131,-131,-92,-58,-68
-112,-73,39,92,-75,-17,-48,-131,-122,-87,-43,-63
-107,-73,34,90,-70,-19,-48,-131,-122,-82,-43,-63
-107,-73,34,90,-70,-19,-48,-131,-122,-78,-43,-58
-107,-78,29,92,-68,-24,-48,-131,-122,-73,-43,-53
-117,-87,29,102,-73,-29,-34,-122,-112,-73,-34,-43
-107,-82,24,95,-65,-29,-34,-122,-112,-73,-34,-43
-107,-82,24,95,-65,-29,-34,-117,-112,-73,-34,-43
-107,-92,14,100,-61,-39,-34,-117,-112,-73,-34,-43
-112,-92,19,102,-65,-36,-24,-122,-112,-73,-43,-53
-102,-82,19,92,-61,-31,-24,-122,-112,-73,-43,-53
-107,-82,24,95,-65,-29,-24,-122,-112,-73,-43,-58
-122,-82,39,102,-80,-21,-24,-117,-112,-73,-43,-58
-112,-68,43,90,-78,-12,-29,-126,-112,-82,-43,-63
-102,-68,34,85,-68,-17,-34,-126,-112,-82,-43,-63
-97,-68,29,82,-63,-19,-39,-131,-112,-92,-48,-73
-92,-63,29,78,-61,-17,-43,-131,-112,-92,-48,-73
-107,-63,43,85,-75,-9,-43,-122,-112,-87,-53,-78
-102,-58,43,80,-73,-7,-43,-122,-112,-87,-53,-78
-107,-58,48,82,-78,-4,-43,-122,-117,-87,-53,-78
-107,-58,48,82,-78,-4,-43,-122,-117,-87,-63,-78
-107,-58,48,82,-78,-4,-34,-122,-117,-87,-63,-87
-112,-58,53,85,-82,-2,-34,-122,-112,-87,-63,-87
-112,-58,53,85,-82,-2,-34,-122,-112,-87,-63,-87
-107,-58,48,82,-78,-4,-34,-122,-112,-87,-63,-87
-87,-48,39,68,-63,-4,-43,-131,-126,-97,-58,-87
-58,-48,9,53,-34,-19,-34,-122,-126,-87,-48,-78
-78,-63,14,70,-46,-24,-34,-107,-112,-82,-48,-68
-117,-53,63,85,-90,4,-29,-97,-102,-82,-43,-53
-122,-29,92,75,-107,31,-4,-53,-63,-39,-19,-43
-131,4,136,63,-134,70,39,19,19,48,34,0
-126,39,165,43,-146,102,82,102,126,165,112,29
-102,82,185,9,-143,134,122,209,244,287,180,58
-92,102,195,-4,-143,148,146,312,331,361,234,82
-82,87,170,-2,-126,129,156,380,395,400,287,117
-24,92,117,-34,-70,104,146,458,483,444,370,195
78,136,58,-107,9,97,112,566,605,551,522,326
204,204,0,-204,102,102,63,668,746,692,736,531
331,263,-68,-297,200,97,-19,697,854,829,985,761
473,326,-146,-400,309,90,-97,707,932,951,1239,1010
590,341,-248,-466,419,46,-175,678,951,990,1381,1166
649,317,-331,-483,490,-7,-253,507,810,873,1312,1190
658,336,-322,-497,490,7,-317,258,566,683,1117,1112
658,366,-292,-512,475,36,-312,82,375,517,873,971
614,287,-326,-451,470,-19,-253,29,273,400,590,722
497,122,-375,-309,436,-126,-165,-48,146,239,248,400
297,-34,-331,-131,314,-183,-48,-219,-87,14,-82,87
34,-131,-165,48,100,-148,87,-424,-414,-263,-400,-175
-209,-141,68,175,-139,-36,209,-605,-707,-492,-605,-346
-331,-82,248,207,-290,82,239,-727,-868,-575,-634,-380
-361,-58,302,209,-331,122,185,-834,-936,-575,-595,-370
-395,-34,361,214,-378,163,141,-927,-1019,-610,-595,-390
-424,-24,400,224,-412,187,126,-1034,-1141,-717,-614,-405
-419,-73,346,246,-383,136,102,-1098,-1180,-766,-629,-409
-390,-122,268,256,-329,73,97,-1073,-1132,-766,-619,-409
-366,-141,224,253,-295,41,68,-1034,-1078,-761,-600,-405
-361,-161,200,261,-280,19,0,-1005,-1024,-761,-575,-395
-351,-170,180,261,-265,4,-73,-927,-932,-692,-512,-361
-297,-122,175,209,-236,26,-97,-814,-795,-610,-439,-322
-234,-63,170,148,-202,53,-112,-653,-629,-492,-346,-258
-195,-39,156,117,-175,58,-122,-478,-463,-370,-268,-185
-170,-43,126,107,-148,41,-131,-356,-356,-273,-195,-136
-165,-29,136,97,-151,53,-92,-268,-263,-200,-131,-92
-170,-19,151,95,-161,65,-43,-185,-185,-126,-78,-53
-136,4,141,65,-139,73,-19,-141,-141,-92,-58,-53
-87,14,102,36,-95,58,0,-117,-107,-78,-43,-68
-97,0,97,48,-97,48,4,-102,-87,-68,-39,-78
-102,-9,92,56,-97,41,14,-78,-78,-68,-43,-68
-73,4,78,34,-75,41,29,-48,-53,-58,-34,-48
-82,-4,78,43,-80,36,29,-29,-39,-43,-24,-29
-87,-14,73,51,-80,29,19,-29,-39,-29,-24,-29
-82,-9,73,46,-78,31,14,-29,-39,-29,-9,-24
-97,-19,78,58,-87,29,9,-39,-43,-29,-9,-29
-97,-24,73,61,-85,24,9,-39,-43,-29,-9,-34
-97,-29,68,63,-82,19,9,-39,-39,-29,-9,-39
-102,-34,68,68,-85,17,9,-39,-29,-29,-9,-43
-78,-29,48,53,-63,9,14,-24,-24,-24,-14,-39
-73,-19,53,46,-63,17,19,-9,-14,-14,-4,-39
-63,-9,53,36,-58,21,19,0,-4,-4,0,-29
-58,0,58,29,-58,29,14,0,-4,-4,4,-29
-58,0,58,29,-58,29,14,0,-4,4,14,-24
-63,0,63,31,-63,31,14,-4,-4,0,14,-19
-68,-4,63,36,-65,29,19,-9,0,0,9,-14
-78,-14,63,46,-70,24,24,-9,4,0,9,-9
-87,-19,68,53,-78,24,14,4,9,0,9,-9
-92,-24,68,58,-80,21,19,14,24,9,9,-9
-102,-29,73,65,-87,21,19,14,29,9,14,-9
-112,-34,78,73,-95,21,19,14,29,9,14,-4
-112,-24,87,68,-100,31,24,24,24,9,14,4
-102,-24,78,63,-90,26,24,19,24,9,14,4
-92,-24,68,58,-80,21,19,14,19,4,9,4
-78,-29,48,53,-63,9,19,14,19,4,4,-4
-78,-39,39,58,-58,0,14,19,24,4,4,-4
-78,-34,43,56,-61,4,19,34,34,9,14,4
-73,-34,39,53,-56,2,19,34,39,14,19,4
-78,-24,53,51,-65,14,19,39,39,19,19,4
-87,-19,68,53,-78,24,9,29,34,9,14,9
-102,-19,82,61,-92,31,9,29,34,9,9,4
-102,-14,87,58,-95,36,9,24,34,9,4,0
-102,-14,87,58,-95,36,9,24,34,14,0,-4
-102,-9,92,56,-97,41,19,43,43,24,4,-4
-102,-9,92,56,-97,41,24,48,48,24,9,-4
-92,-9,82,51,-87,36,19,53,48,24,14,-4
-92,0,92,46,-92,46,34,68,58,24,19,-4
-82,0,82,41,-82,41,24,68,48,14,24,-4
-82,0,82,41,-82,41,24,63,48,19,19,-4
-78,19,97,29,-87,58,24,58,48,19,14,-4
-78,24,102,26,-90,63,24,53,48,19,14,-4
-58,14,73,21,-65,43,24,53,48,24,14,-4
-58,0,58,29,-58,29,24,53,48,24,4,-14
-53,-4,48,29,-51,21,24,53,48,19,4,-14
-43,-4,39,24,-41,17,29,63,53,19,19,-9
-63,14,78,24,-70,46,34,68,58,34,19,-19
-78,14,92,31,-85,53,34,73,63,39,24,-9
-112,9,122,51,-117,65,34,73,63,43,24,-4
-112,9,122,51,-117,65,34,78,68,43,24,-4
-87,19,107,34,-97,63,39,82,82,58,43,19
-82,19,102,31,-92,61,39,87,82,63,53,29
-78,14,92,31,-85,53,43,97,87,68,63,39
-73,14,87,29,-80,51,43,112,102,73,73,48
-73,4,78,34,-75,41,39,102,92,73,73,48
-73,9,82,31,-78,46,39,102,92,73,73,48
-73,9,82,31,-78,46,34,102,102,78,73,43
-68,14,82,26,-75,48,29,102,102,78,73,39
-58,14,73,21,-65,43,29,102,92,68,63,24
-58,9,68,24,-63,39,29,102,92,68,63,19
-58,9,68,24,-63,39,29,112,92,68,63,24
-53,14,68,19,-61,41,34,117,97,68,68,24
-53,29,82,12,-68,56,43,122,117,87,82,29
-58,34,92,12,-75,63,43,126,117,92,82,34
-63,29,92,17,-78,61,43,131,122,92,82,39
-63,34,97,14,-80,65,43,141,122,92,82,43
-68,24,92,21,-80,58,43,131,122,92,87,53
-68,29,97,19,-82,63,43,136,122,92,87,53
-78,24,102,26,-90,63,48,141,122,97,87,53
-68,19,87,24,-78,53,48,146,122,97,82,53
-68,24,92,21,-80,58,48,136,136,97,92,53
-68,24,92,21,-80,58,53,146,136,92,92,53
-58,29,87,14,-73,58,58,151,146,92,92,58
-53,34,87,9,-70,61,68,151,151,92,92,63
-58,19,78,19,-68,48,63,170,170,102,92,53
-73,14,87,29,-80,51,58,170,170,102,92,58
-78,19,97,29,-87,58,53,170,165,102,92,58
-78,14,92,31,-85,53,48,175,165,97,97,58
-73,19,92,26,-82,56,39,175,170,107,97,53
-53,24,78,14,-65,51,34,180,170,107,92,53
-34,29,63,2,-48,46,34,180,165,107,92,53
-39,34,73,2,-56,53,34,185,165,107,92,53
-43,48,92,-2,-68,70,39,204,180,117,107,68
-39,58,97,-9,-68,78,43,209,185,117,112,78
-39,58,97,-9,-68,78,53,209,185,117,117,87
-34,58,92,-12,-63,75,58,209,185,117,122,102
-53,43,97,4,-75,70,58,204,204,122,112,87
-78,39,117,19,-97,78,53,204,204,126,122,82
-87,34,122,26,-104,78,53,219,204,126,122,78
-87,29,117,29,-102,73,53,224,214,136,126,73
-53,53,107,0,-80,80,53,234,214,136,136,73
-39,73,112,-17,-75,92,53,239,214,136,131,78
-19,82,102,-31,-61,92,53,244,219,131,126,82
-4,92,97,-43,-51,95,53,244,224,126,122,87
-14,92,107,-39,-61,100,53,244,229,141,117,87
-19,87,107,-34,-63,97,63,248,234,146,131,87
-19,82,102,-31,-61,92,63,253,244,156,146,102
-24,82,107,-29,-65,95,63,263,258,165,151,112
-24,82,107,-29,-65,95,63,278,258,170,151,117
-19,78,97,-29,-58,87,63,283,253,165,146,112
-29,68,97,-19,-63,82,58,283,248,146,141,97
-43,58,102,-7,-73,80,58,283,248,141,122,82
-58,63,122,-2,-90,92,68,273,258,151,117,92
-73,63,136,4,-104,100,68,278,258,141,117,82
-78,68,146,4,-112,107,68,283,258,141,117,92
-78,68,146,4,-112,107,68,283,258,141,117,92
-53,97,151,-21,-102,124,58,283,248,136,102,82
-34,102,136,-34,-85,119,58,287,248,136,102,78
-19,102,122,-41,-70,112,58,287,248,126,92,73
-24,92,117,-34,-70,104,58,287,248,126,92,68
-29,102,131,-36,-80,117,78,297,258,126,97,78
-29,112,141,-41,-85,126,78,297,258,122,97,78
-14,112,126,-48,-70,119,78,297,258,117,82,68
-14,112,126,-48,-70,119,78,302,253,107,78,68
-14,97,112,-41,-63,104,78,292,244,102,58,68
-34,97,131,-31,-82,114,78,292,234,97,53,63
-34,97,131,-31,-82,114,78,292,234,97,53,63
-24,117,141,-46,-82,129,82,292,229,92,48,58
-39,92,131,-26,-85,112,82,287,224,78,34,43
-58,78,136,-9,-97,107,82,287,219,63,19,34
-53,82,136,-14,-95,109,82,283,214,58,14,24
-58,87,146,-14,-102,117,87,278,204,48,4,19
-48,82,131,-17,-90,107,97,287,209,48,-4,29
-53,78,131,-12,-92,104,102,287,204,48,0,29
-53,82,136,-14,-95,109,102,287,204,53,4,29
-53,97,151,-21,-102,124,107,287,204,53,9,19
-43,97,141,-26,-92,119,102,287,200,43,-4,9
-43,82,126,-19,-85,104,97,278,195,43,-14,14
-53,68,122,-7,-87,95,92,278,185,39,-19,14
-58,68,126,-4,-92,97,87,273,175,34,-34,0
-68,58,126,4,-97,92,87,248,161,19,-43,-9
-63,58,122,2,-92,90,87,234,156,14,-43,-14
-58,53,112,2,-85,82,87,224,141,14,-43,-14
-58,48,107,4,-82,78,87,209,131,19,-39,-14
-58,58,117,0,-87,87,87,204,141,14,-39,-4
-63,68,131,-2,-97,100,87,195,136,14,-34,-9
-63,58,122,2,-92,90,87,180,126,14,-34,-9
-68,58,126,4,-97,92,87,170,117,14,-34,-9
-68,53,122,7,-95,87,97,170,126,14,-29,0
-58,43,102,7,-80,73,92,156,117,19,-24,0
-58,34,92,12,-75,63,82,151,107,19,-29,-4
-68,29,97,19,-82,63,82,146,97,14,-24,-9
-73,19,92,26,-82,56,73,131,78,9,-4,0
-73,14,87,29,-80,51,73,112,63,9,0,4
-78,14,92,31,-85,53,73,102,63,24,0,4
-78,9,87,34,-82,48,73,87,63,24,9,9
-68,14,82,26,-75,48,68,78,48,14,9,0
-63,9,73,26,-68,41,68,73,43,14,9,0
-63,9,73,26,-68,41,68,73,39,14,9,0
-53,9,63,21,-58,36,68,58,34,14,4,0
-68,-4,63,36,-65,29,63,43,14,14,14,0
-87,-24,63,56,-75,19,58,34,14,9,14,-9
-97,-29,68,63,-82,19,53,24,14,4,14,-9
-107,-19,87,63,-97,34,43,19,9,4,14,-19
-112,-39,73,75,-92,17,34,4,-4,0,4,-24
-117,-48,68,82,-92,9,34,4,-9,-4,0,-24
-102,-53,48,78,-75,-2,34,0,-14,-9,0,-29
-97,-48,48,73,-73,0,29,-9,-19,-14,-4,-34
-82,-29,53,56,-68,12,39,-9,-19,-14,-4,-34
-78,-9,68,43,-73,29,43,-14,-19,-14,-4,-29
-82,-19,63,51,-73,21,43,-14,-19,-14,-9,-29
-92,-19,73,56,-82,26,43,-9,-19,-14,-9,-29
-92,-39,53,65,-73,7,34,-19,-19,-24,-14,-34
-92,-48,43,70,-68,-2,34,-19,-24,-29,-14,-39
-102,-63,39,82,-70,-12,34,-24,-34,-29,-24,-43
-102,-73,29,87,-65,-21,29,-29,-43,-39,-24,-48
-117,-68,48,92,-82,-9,39,-29,-34,-34,-19,-39
-122,-63,58,92,-90,-2,34,-24,-29,-34,-19,-43
-126,-53,73,90,-100,9,34,-14,-29,-29,-19,-43
-122,-48,73,85,-97,12,34,-9,-24,-24,-19,-39
-107,-34,73,70,-90,19,39,0,-19,-14,-9,-34
-97,-29,68,63,-82,19,43,0,-19,-14,-9,-29
-92,-19,73,56,-82,26,48,0,-14,-9,-9,-24
-92,-9,82,51,-87,36,48,4,-9,-4,-9,-24
-102,-29,73,65,-87,21,39,4,-9,-14,-19,-34
-102,-39,63,70,-82,12,39,4,-9,-14,-19,-29
-102,-48,53,75,-78,2,39,0,-9,-14,-19,-29
-97,-58,39,78,-68,-9,39,-4,-9,-14,-14,-29
-97,-58,39,78,-68,-9,39,-4,-14,-14,-14,-29
-102,-58,43,80,-73,-7,29,-9,-19,-14,-19,-34
-117,-58,58,87,-87,0,29,-9,-24,-14,-19,-34
-122,-63,58,92,-90,-2,34,-4,-29,-19,-24,-34
-102,-48,53,75,-78,2,39,4,-14,-24,-19,-24
-97,-43,53,70,-75,4,34,4,-14,-19,-14,-29
-102,-29,73,65,-87,21,39,4,-9,-9,-9,-29
-87,-24,63,56,-75,19,53,14,4,9,-4,-24
-78,-34,43,56,-61,4,39,4,0,9,-9,-29
-82,-29,53,56,-68,12,39,4,0,0,-9,-29
-87,-24,63,56,-75,19,34,4,-4,-9,-14,-29
-97,-24,73,61,-85,24,29,4,-4,-14,-19,-24
-82,-9,73,46,-78,31,39,4,-4,-4,0,-24
-92,-9,82,51,-87,36,39,9,4,4,0,-19
-92,-9,82,51,-87,36,43,9,4,4,4,-14
-87,-14,73,51,-80,29,43,9,4,4,4,-9
-87,-14,73,51,-80,29,43,19,4,4,9,-9
-87,-4,82,46,-85,39,43,19,9,4,9,-9
-78,-4,73,41,-75,34,43,24,9,9,14,-9
-73,-14,58,43,-65,21,43,24,9,14,14,-9
-92,-29,63,61,-78,17,34,14,9,4,-4,-29
-92,-29,63,61,-78,17,29,9,9,4,4,-29
-102,-34,68,68,-85,17,29,4,9,4,4,-24
-112,-34,78,73,-95,21,34,4,9,4,4,-19
-102,-9,92,56,-97,41,24,14,0,4,4,-29
-97,-9,87,53,-92,39,19,0,0,4,4,-29
-87,-4,82,46,-85,39,19,9,0,9,9,-29
-87,4,92,41,-90,48,24,9,0,9,9,-34
-82,-4,78,43,-80,36,34,9,9,9,4,-24
-78,-9,68,43,-73,29,34,9,9,4,4,-19
-87,-9,78,48,-82,34,29,9,14,4,4,-14
-73,9,82,31,-78,46,29,4,14,9,9,-4
-68,4,73,31,-70,39,24,14,4,9,9,-14
-68,4,73,31,-70,39,29,9,4,9,14,-4
-73,4,78,34,-75,41,34,9,4,9,14,0
-73,4,78,34,-75,41,39,9,9,9,14,0
-82,14,97,34,-90,56,29,9,9,9,14,-4
-82,14,97,34,-90,56,34,9,9,9,14,-4
-82,14,97,34,-90,56,34,9,9,9,9,-14
-87,14,102,36,-95,58,24,9,9,9,4,-19
-82,4,87,39,-85,46,14,4,-9,0,9,-14
-82,4,87,39,-85,46,14,-4,-9,0,9,0
-58,14,73,21,-65,43,14,-4,-9,0,14,4
-48,24,73,12,-61,48,14,-4,-9,0,19,19
-53,4,58,24,-56,31,19,-14,-14,0,9,9
-73,-4,68,39,-70,31,19,-14,-14,0,9,9
-78,4,82,36,-80,43,19,-14,-14,0,4,4
-82,4,87,39,-85,46,14,-19,-19,-4,4,4
-82,4,87,39,-85,46,24,-9,-9,-4,9,14
-73,4,78,34,-75,41,24,-9,-9,0,14,14
-73,0,73,36,-73,36,24,-9,-9,0,14,9
-73,0,73,36,-73,36,24,-24,-19,-9,9,9
-58,9,68,24,-63,39,9,-24,-24,0,9,4
-63,9,73,26,-68,41,9,-24,-24,0,9,4
-78,9,87,34,-82,48,9,-24,-24,0,9,9
-92,14,107,39,-100,61,9,-24,-24,0,9,9
-82,14,97,34,-90,56,-4,-43,-43,-19,-9,-4
-78,9,87,34,-82,48,-4,-43,-43,-19,-9,-4
-78,4,82,36,-80,43,0,-43,-43,-14,-4,0
-73,0,73,36,-73,36,0,-43,-43,-14,-4,0
-78,9,87,34,-82,48,0,-53,-43,-24,-4,0
-73,19,92,26,-82,56,0,-43,-43,-24,-4,0
-63,24,87,19,-75,56,4,-43,-43,-19,0,0
-58,24,82,17,-70,53,9,-43,-48,-19,0,4
-68,14,82,26,-75,48,9,-39,-39,-9,0,-4
-73,9,82,31,-78,46,9,-39,-39,-9,-4,-4
-82,9,92,36,-87,51,9,-39,-39,-9,-4,-9
-87,9,97,39,-92,53,9,-39,-43,-14,0,-9
-87,0,87,43,-87,43,4,-43,-48,-24,4,-9
-73,4,78,34,-75,41,4,-43,-43,-14,0,-9
-73,4,78,34,-75,41,0,-48,-48,-14,-4,-9
-73,0,73,36,-73,36,-4,-53,-63,-14,-24,-9
-102,-9,92,56,-97,41,-4,-73,-63,-24,-14,-9
-87,0,87,43,-87,43,0,-58,-58,-29,-9,-9
-82,4,87,39,-85,46,4,-53,-48,-24,-4,-4
-78,9,87,34,-82,48,9,-48,-48,-19,0,0
-73,14,87,29,-80,51,14,-43,-48,-14,4,4
-68,19,87,24,-78,53,19,-39,-48,-9,9,9
-82,19,102,31,-92,61,29,-29,-34,-9,14,9
-87,19,107,34,-97,63,39,-29,-34,-4,14,14
-92,29,122,31,-107,75,48,-29,-34,-4,19,14
-92,34,126,29,-109,80,53,-29,-34,-4,19,14
-107,24,131,41,-119,78,43,-34,-34,-14,9,9
-112,14,126,48,-119,70,39,-34,-34,-14,4,0
-112,4,117,53,-114,61,34,-34,-34,-14,4,-4
-117,-4,112,61,-114,53,34,-39,-34,-14,4,-4
-107,19,126,43,-117,73,39,-29,-24,-4,9,9
-92,34,126,29,-109,80,58,-19,-14,0,19,14
-82,48,131,17,-107,90,102,-9,-9,14,24,19
-87,58,146,14,-117,102,136,0,0,24,24,19
-82,68,151,7,-117,109,170,24,4,24,29,29
-82,63,146,9,-114,104,190,29,4,24,29,24
-82,53,136,14,-109,95,204,34,4,24,24,19
-82,43,126,19,-104,85,214,39,9,24,19,14
-102,34,136,34,-119,85,234,29,9,24,14,0
-112,29,141,41,-126,85,234,29,9,24,14,0
-107,34,141,36,-124,87,209,14,9,24,19,4
-97,29,126,34,-112,78,161,4,0,24,24,14
-82,34,117,24,-100,75,122,4,4,24,34,19
-63,48,112,7,-87,80,87,-4,4,24,34,24
-58,53,112,2,-85,82,48,-19,-9,19,34,29
-48,58,107,-4,-78,82,9,-39,-19,14,34,29
-43,53,97,-4,-70,75,-24,-58,-34,9,43,48
-29,48,78,-9,-53,63,-48,-68,-43,9,43,48
-29,43,73,-7,-51,58,-58,-68,-43,9,43,53
-39,39,78,0,-58,58,-63,-68,-43,9,43,53
-34,53,87,-9,-61,70,-63,-73,-53,4,43,48
-29,58,87,-14,-58,73,-63,-78,-53,-4,39,39
-29,63,92,-17,-61,78,-58,-78,-53,-9,34,34
-24,68,92,-21,-58,80,-53,-78,-58,-14,29,29
-39,58,97,-9,-68,78,-43,-78,-68,-19,29,39
-43,58,102,-7,-73,80,-43,-78,-68,-14,29,39
-48,48,97,0,-73,73,-43,-78,-68,-14,29,39
-53,34,87,9,-70,61,-48,-78,-68,-9,29,39
-48,34,82,7,-65,58,-48,-78,-63,-9,29,43
-39,34,73,2,-56,53,-48,-82,-63,-14,19,39
-34,34,68,0,-51,51,-53,-87,-68,-19,19,34
-24,34,58,-4,-41,46,-53,-87,-68,-19,19,34
-9,43,53,-17,-31,48,-43,-82,-63,-4,24,43
-24,48,73,-12,-48,61,-39,-78,-58,-4,29,43
-34,39,73,-2,-53,56,-29,-68,-58,-4,29,43
-29,34,63,-2,-46,48,-29,-63,-68,-4,29,29
-48,19,68,14,-58,43,-34,-78,-78,-24,19,4
-58,14,73,21,-65,43,-24,-78,-63,-29,9,0
-63,14,78,24,-70,46,-29,-82,-73,-34,-4,-4
-73,9,82,31,-78,46,-29,-87,-78,-48,-19,-14
-78,-9,68,43,-73,29,-19,-87,-92,-39,-14,-14
-87,-14,73,51,-80,29,-19,-87,-97,-43,-19,-24
-87,-19,68,53,-78,24,-19,-92,-97,-43,-19,-29
-92,-24,68,58,-80,21,-19,-92,-92,-48,-24,-29
-102,-19,82,61,-92,31,-29,-82,-87,-48,-24,-19
-117,-19,97,68,-107,39,-34,-87,-82,-48,-29,-19
-122,-19,102,70,-112,41,-34,-87,-87,-48,-29,-24
-122,-19,102,70,-112,41,-34,-87,-82,-53,-29,-24
-126,-34,92,80,-109,29,-29,-87,-82,-53,-29,-24
-131,-39,92,85,-112,26,-24,-87,-82,-53,-29,-24
-136,-39,97,87,-117,29,-19,-87,-82,-53,-29,-19
-126,-29,97,78,-112,34,-9,-87,-78,-53,-24,-19
-112,-29,82,70,-97,26,-14,-87,-87,-53,-24,-29
-122,-39,82,80,-102,21,-19,-87,-92,-53,-34,-34
-126,-39,87,82,-107,24,-24,-92,-92,-53,-39,-34
-122,-39,82,80,-102,21,-29,-92,-92,-53,-39,-29
-107,-24,82,65,-95,29,-19,-92,-92,-63,-43,-19
-97,-24,73,61,-85,24,-19,-92,-92,-63,-43,-24
-92,-24,68,58,-80,21,-19,-92,-92,-63,-43,-24
-87,-29,58,58,-73,14,-19,-92,-92,-63,-43,-24
-97,-24,73,61,-85,24,-14,-92,-82,-58,-39,-14
-87,-14,73,51,-80,29,-14,-92,-82,-53,-34,-14
-87,-9,78,48,-82,34,-14,-87,-82,-48,-29,-14
-87,-14,73,51,-80,29,-14,-87,-82,-43,-24,-14
-97,-24,73,61,-85,24,-4,-92,-82,-53,-24,-14
-92,-14,78,53,-85,31,-4,-92,-82,-53,-24,-14
-102,-14,87,58,-95,36,-4,-92,-82,-53,-24,-19
-122,-14,107,68,-114,46,-4,-87,-82,-53,-24,-19
-112,-19,92,65,-102,36,-9,-97,-92,-53,-34,-19
-112,-29,82,70,-97,26,-14,-97,-92,-53,-34,-24
-117,-39,78,78,-97,19,-19,-102,-92,-63,-39,-39
-122,-43,78,82,-100,17,-24,-102,-92,-63,-39,-43
-117,-29,87,73,-102,29,-19,-97,-87,-53,-29,-24
-102,-19,82,61,-92,31,-14,-92,-82,-48,-24,-19
-97,-14,82,56,-90,34,-9,-87,-82,-43,-19,-14
-87,-9,78,48,-82,34,-4,-82,-78,-39,-24,-9
-97,-14,82,56,-90,34,-4,-82,-87,-39,-24,-9
-102,-19,82,61,-92,31,-4,-82,-82,-39,-24,-9
-102,-24,78,63,-90,26,-4,-82,-82,-39,-24,-9
-97,-29,68,63,-82,19,-4,-82,-82,-39,-24,-9
-136,-58,78,97,-107,9,-14,-82,-78,-48,-19,-19
-117,-39,78,78,-97,19,-14,-92,-87,-58,-29,-29
-97,-24,73,61,-85,24,-14,-97,-82,-63,-29,-19
-87,-24,63,56,-75,19,-9,-87,-82,-53,-34,-24
-73,0,73,36,-73,36,-14,-82,-82,-48,-39,-34
-63,24,87,19,-75,56,-9,-58,-58,-19,-34,-39
-97,29,126,34,-112,78,24,-4,0,39,4,-39
-131,63,195,34,-163,129,82,102,126,161,82,0
-131,122,253,4,-192,187,156,244,263,292,165,53
-122,146,268,-12,-195,207,195,351,366,370,229,107
-112,122,234,-4,-173,178,185,409,424,405,283,136
-58,126,185,-34,-122,156,151,468,497,453,356,200
39,165,126,-102,-43,146,112,570,619,556,502,317
185,234,48,-209,68,141,58,658,746,692,712,517
356,326,-29,-341,192,148,-19,707,854,834,976,766
483,380,-102,-431,292,139,-107,727,941,961,1224,1019
570,366,-204,-468,387,80,-185,692,956,980,1342,1180
600,336,-263,-468,431,36,-258,541,829,868,1283,1200
639,346,-292,-492,466,26,-292,307,610,692,1088,1117
673,385,-287,-529,480,48,-292,117,419,527,854,966
644,346,-297,-495,470,24,-224,58,312,405,580,732
473,170,-302,-322,387,-65,-126,-14,185,258,248,409
278,-4,-283,-136,280,-143,-39,-200,-73,19,-117,87
82,-82,-165,0,124,-124,73,-429,-414,-278,-448,-200
-136,-82,53,109,-95,-14,190,-610,-702,-488,-634,-351
-341,-68,273,204,-307,102,234,-707,-819,-536,-644,-351
-434,-24,409,229,-422,192,229,-771,-863,-512,-566,-322
-424,14,439,204,-431,226,214,-849,-936,-541,-546,-317
-429,24,453,202,-441,239,200,-961,-1054,-629,-561,-331
-429,-24,405,226,-417,190,165,-1024,-1102,-697,-580,-341
-414,-82,331,248,-373,124,126,-1024,-1088,-722,-570,-356
-380,-122,258,251,-319,68,78,-1015,-1054,-732,-575,-366
-370,-131,239,251,-305,53,34,-976,-1000,-722,-551,-341
-366,-131,234,248,-300,51,-39,-902,-902,-668,-497,-312
-341,-112,229,226,-285,58,-82,-790,-775,-590,-444,-278
-312,-68,244,190,-278,87,-73,-614,-600,-458,-346,-224
-268,-24,244,146,-256,109,-73,-434,-424,-331,-234,-165
-204,0,204,102,-204,102,-82,-326,-302,-239,-161,-112
-170,19,190,75,-180,104,-82,-253,-244,-165,-107,-73
-146,34,180,56,-163,107,-58,-200,-190,-112,-78,-43
-146,43,190,51,-168,117,-29,-146,-146,-78,-63,-29
-136,19,156,58,-146,87,-4,-112,-107,-58,-48,-29
-122,9,131,56,-126,70,14,-87,-78,-58,-53,-29
-102,24,126,39,-114,75,39,-58,-63,-48,-43,-39
-102,34,136,34,-119,85,58,-29,-29,-24,-24,-29
-117,34,151,41,-134,92,48,-9,-9,-19,-4,-19
-112,19,131,46,-122,75,14,-19,-29,-19,-9,-24
-97,24,122,36,-109,73,9,-24,-34,-19,-9,-14
-87,24,112,31,-100,68,9,-29,-34,-19,-9,-14
-78,24,102,26,-90,63,9,-34,-29,-19,-9,-14
-73,24,97,24,-85,61,9,-39,-19,-19,-9,-14
-82,9,92,36,-87,51,29,-9,4,-9,4,-9
-102,0,102,51,-102,51,39,9,14,4,14,-9
-117,-9,107,63,-112,48,43,24,24,19,19,0
-136,-19,117,78,-126,48,43,29,24,24,24,0
-117,0,117,58,-117,58,24,9,9,14,14,-9
-112,9,122,51,-117,65,14,4,4,9,14,-9
-107,14,122,46,-114,68,9,0,4,9,9,-9
-107,14,122,46,-114,68,4,0,4,9,9,-9
-107,14,122,46,-114,68,9,14,9,9,9,-9
-102,14,117,43,-109,65,19,24,24,19,9,-9
-102,14,117,43,-109,65,24,24,29,19,14,-9
-102,14,117,43,-109,65,29,24,29,19,14,-4
-97,24,122,36,-109,73,14,14,24,19,14,4
-92,24,117,34,-104,70,14,9,24,19,14,4
-87,24,112,31,-100,68,9,4,19,14,9,4
-78,19,97,29,-87,58,9,4,19,14,4,-4
-87,14,102,36,-95,58,24,9,24,4,-14,-9
-87,14,102,36,-95,58,29,24,34,9,-4,-4
-82,9,92,36,-87,51,29,24,39,14,0,-9
-87,14,102,36,-95,58,29,29,39,19,0,-14
-97,19,117,39,-107,68,29,39,53,19,0,-4
-112,19,131,46,-122,75,29,39,53,19,0,-4
-112,24,136,43,-124,80,29,34,53,19,0,-4
-112,24,136,43,-124,80,29,34,53,24,0,-4
-102,29,131,36,-117,80,34,48,53,34,9,0
-102,19,122,41,-112,70,34,48,58,34,9,4
-92,9,102,41,-97,56,24,48,58,34,9,9
-92,9,102,41,-97,56,34,58,68,34,9,14
-82,29,112,26,-97,70,34,73,68,43,24,34
-73,29,102,21,-87,65,34,73,68,48,29,34
-58,48,107,4,-82,78,34,73,68,48,34,34
-48,53,102,-2,-75,78,34,73,68,48,43,34
-53,39,92,7,-73,65,24,63,68,43,34,29
-68,19,87,24,-78,53,24,63,68,43,24,14
-78,9,87,34,-82,48,24,63,68,39,24,9
-82,4,87,39,-85,46,29,73,73,39,39,9
-68,19,87,24,-78,53,34,78,68,53,39,9
-68,24,92,21,-80,58,34,82,73,58,43,19
-87,24,112,31,-100,68,34,82,73,63,43,24
-73,29,102,21,-87,65,34,87,78,63,43,24
-53,48,102,2,-78,75,34,97,82,73,53,29
-53,48,102,2,-78,75,39,97,82,73,53,29
-53,43,97,4,-75,70,48,102,87,73,53,29
-53,43,97,4,-75,70,53,112,102,73,53,29
-63,29,92,17,-78,61,53,107,92,63,63,34
-63,29,92,17,-78,61,48,102,92,63,63,39
-63,24,87,19,-75,56,39,97,102,68,63,39
-58,24,82,17,-70,53,29,92,102,68,63,39
-68,24,92,21,-80,58,39,102,102,68,53,39
-68,19,87,24,-78,53,39,102,102,68,53,39
-68,19,87,24,-78,53,39,112,102,68,53,48
-63,24,87,19,-75,56,43,117,107,68,58,53
-58,43,102,7,-80,73,34,117,107,68,63,48
-58,53,112,2,-85,82,34,117,107,73,63,43
-58,53,112,2,-85,82,34,117,112,73,63,39
-53,63,117,-4,-85,90,34,122,112,73,63,34
-53,58,112,-2,-82,85,34,122,122,78,78,43
-58,58,117,0,-87,87,34,126,122,82,78,43
-73,48,122,12,-97,85,39,131,122,92,78,43
-68,39,107,14,-87,73,39,136,122,97,73,43
-68,34,102,17,-85,68,43,146,141,107,82,53
-68,34,102,17,-85,68,43,156,146,102,82,53
-58,39,97,9,-78,68,43,161,161,102,82,58
-53,43,97,4,-75,70,48,161,170,102,82,63
-63,43,107,9,-85,75,48,161,175,107,87,58
-73,43,117,14,-95,80,48,161,170,102,82,58
-73,53,126,9,-100,90,48,161,161,97,78,53
-68,53,122,7,-95,87,48,165,156,87,78,48
-58,43,102,7,-80,73,39,165,170,92,78,63
-43,43,87,0,-65,65,34,170,170,97,73,63
-29,43,73,-7,-51,58,34,170,165,102,73,63
-39,43,82,-2,-61,63,34,175,165,107,73,63
-43,58,102,-7,-73,80,43,185,180,117,87,73
-39,68,107,-14,-73,87,43,190,185,117,92,78
-39,68,107,-14,-73,87,48,190,185,117,97,82
-34,68,102,-17,-68,85,48,190,185,117,102,92
-43,68,112,-12,-78,90,58,209,200,131,102,92
-58,68,126,-4,-92,97,53,214,204,136,112,92
-58,68,126,-4,-92,97,53,234,209,136,112,92
-48,68,117,-9,-82,92,53,244,224,146,117,92
-39,82,122,-21,-80,102,43,234,219,141,107,78
-39,92,131,-26,-85,112,43,229,214,136,102,78
-34,92,126,-29,-80,109,43,224,214,126,97,78
-34,92,126,-29,-80,109,43,214,214,117,92,78
-48,87,136,-19,-92,112,24,214,209,107,82,68
-48,87,136,-19,-92,112,34,219,204,107,92,68
-43,87,131,-21,-87,109,34,224,204,112,102,82
-43,92,136,-24,-90,114,34,234,209,117,102,92
-24,102,126,-39,-75,114,43,239,224,136,107,92
-9,107,117,-48,-63,112,43,244,224,136,107,92
-9,107,117,-48,-63,112,39,244,224,122,107,82
-14,107,122,-46,-68,114,39,244,229,122,92,73
-29,102,131,-36,-80,117,48,253,239,126,97,78
-43,102,146,-29,-95,124,48,258,239,122,97,73
-48,107,156,-29,-102,131,48,263,239,126,97,87
-48,107,156,-29,-102,131,48,263,239,131,97,92
-24,122,146,-48,-85,134,53,273,239,126,102,97
-14,122,136,-53,-75,129,58,278,239,126,102,97
-9,117,126,-53,-68,122,63,278,239,117,92,97
-24,102,126,-39,-75,114,68,278,239,117,92,97
-39,112,151,-36,-95,131,73,268,229,117,82,92
-39,122,161,-41,-100,141,68,268,229,112,78,87
-24,122,146,-48,-85,134,63,268,229,107,58,73
-24,122,146,-48,-85,134,58,273,224,97,48,68
-34,107,141,-36,-87,124,48,263,214,82,39,63
-53,107,161,-26,-107,134,48,263,204,78,34,53
-53,107,161,-26,-107,134,48,263,204,78,34,48
-43,126,170,-41,-107,148,53,263,200,73,29,39
-43,117,161,-36,-102,139,63,268,200,68,24,39
-58,107,165,-24,-112,136,63,268,200,53,9,34
-48,117,165,-34,-107,141,63,263,200,48,4,29
-48,126,175,-39,-112,151,68,258,195,39,-4,29
-48,131,180,-41,-114,156,73,263,204,34,-4,34
-53,126,180,-36,-117,153,82,268,204,39,0,39
-53,131,185,-39,-119,158,87,273,209,48,4,43
-53,146,200,-46,-126,173,97,278,214,53,9,39
-63,136,200,-36,-131,168,92,273,204,48,4,34
-63,112,175,-24,-119,143,87,258,195,43,-4,34
-73,87,161,-7,-117,124,82,253,180,34,-9,29
-78,78,156,0,-117,117,78,244,165,24,-24,9
-78,78,156,0,-117,117,78,244,170,19,-34,19
-73,78,151,-2,-112,114,78,234,165,14,-34,14
-68,73,141,-2,-104,107,78,229,151,14,-34,14
-68,68,136,0,-102,102,78,219,141,19,-29,14
-82,68,151,7,-117,109,87,214,151,24,-29,4
-92,78,170,7,-131,124,87,204,146,24,-24,0
-97,68,165,14,-131,117,87,190,136,24,-24,0
-107,68,175,19,-141,122,87,180,126,24,-24,0
-112,48,161,31,-136,104,97,175,117,19,-14,0
-107,34,141,36,-124,87,92,156,107,19,-14,0
-112,19,131,46,-122,75,82,146,97,14,-24,-4
-126,9,136,58,-131,73,82,136,87,4,-24,-9
-117,14,131,51,-124,73,82,126,87,9,-24,-9
-112,14,126,48,-119,70,82,112,73,9,-19,-4
-112,19,131,46,-122,75,82,107,73,24,-19,-4
-107,19,126,43,-117,73,82,97,73,24,-9,0
-97,29,126,34,-112,78,68,87,68,24,0,0
-102,19,122,41,-112,70,68,82,63,24,0,0
-112,14,126,48,-119,70,68,82,58,24,0,0
-112,9,122,51,-117,65,68,68,53,24,-4,0
-112,4,117,53,-114,61,73,58,34,19,0,4
-117,-4,112,61,-114,53,68,53,34,19,4,0
-112,0,112,56,-112,56,63,48,34,19,9,4
-107,19,126,43,-117,73,53,48,29,24,14,0
-112,0,112,56,-112,56,63,34,19,14,9,0
-117,-9,107,63,-112,48,63,34,19,14,9,4
-102,-14,87,58,-95,36,63,29,19,14,14,4
-97,-9,87,53,-92,39,58,19,19,14,14,4
-97,-4,92,51,-95,43,58,19,19,4,14,0
-97,9,107,43,-102,58,63,14,19,4,14,0
-107,-4,102,56,-104,48,63,14,19,4,9,-4
-122,-9,112,65,-117,51,63,19,19,4,9,-9
-117,-9,107,63,-112,48,58,9,19,-4,4,0
-112,-9,102,61,-107,46,53,9,14,-9,4,0
-117,-14,102,65,-109,43,48,4,4,-9,-4,0
-112,-14,97,63,-104,41,39,0,-4,-19,-4,0
-122,-14,107,68,-114,46,43,4,0,-14,0,-9
-122,-14,107,68,-114,46,43,4,0,-14,0,-14
-122,-9,112,65,-117,51,48,9,-4,-9,0,-14
-112,-9,102,61,-107,46,53,9,-4,-4,0,-9
-131,-24,107,78,-119,41,48,0,-9,-14,-9,0
-136,-29,107,82,-122,39,53,0,-9,-14,-9,0
-146,-29,117,87,-131,43,58,0,-4,-9,-9,0
-161,-29,131,95,-146,51,58,4,0,-4,-9,-4
-165,-19,146,92,-156,63,58,9,9,4,-9,-14
-161,-19,141,90,-151,61,58,14,9,4,-9,-9
-156,-19,136,87,-146,58,58,14,9,4,-9,-9
-146,-19,126,82,-136,53,58,14,9,4,-4,-9
-136,-9,126,73,-131,58,68,14,9,4,4,-9
-131,-9,122,70,-126,56,58,9,9,4,0,-14
-136,-9,126,73,-131,58,58,9,9,4,0,-14
-131,-14,117,73,-124,51,63,14,9,0,-4,-14
-122,-14,107,68,-114,46,73,24,19,-4,4,-4
-117,-14,102,65,-109,43,63,24,14,0,4,-9
-122,-4,117,63,-119,56,63,24,14,9,4,-9
-107,-4,102,56,-104,48,73,34,24,29,4,-4
-87,4,92,41,-90,48,68,24,14,34,4,-9
-92,9,102,41,-97,56,68,24,19,29,9,-9
-97,14,112,41,-104,63,63,24,19,24,9,-9
-107,14,122,46,-114,68,58,24,24,24,9,-4
-117,9,126,53,-122,68,58,34,24,14,19,-14
-141,0,141,70,-141,70,58,39,34,24,19,-9
-156,-9,146,82,-151,68,63,39,34,24,24,-4
-165,-24,141,95,-153,58,63,39,34,24,24,0
-156,-14,141,85,-148,63,53,29,24,14,24,-9
-146,-4,141,75,-143,68,53,29,29,14,19,-9
-126,-4,122,65,-124,58,53,34,29,19,19,-9
-112,-14,97,63,-104,41,53,34,29,24,14,-9
-102,-9,92,56,-97,41,48,29,39,34,9,-4
-92,0,92,46,-92,46,48,29,39,34,24,0
-92,4,97,43,-95,51,53,29,39,34,29,9
-92,14,107,39,-100,61,63,34,39,34,34,19
-92,24,117,34,-104,70,53,43,48,34,34,19
-87,19,107,34,-97,63,48,29,48,34,34,19
-78,19,97,29,-87,58,48,39,48,39,39,19
-78,24,102,26,-90,63,53,39,48,39,39,14
-97,14,112,41,-104,63,53,39,39,39,34,9
-97,9,107,43,-102,58,53,39,39,34,34,9
-112,9,122,51,-117,65,48,39,43,34,34,9
-102,29,131,36,-117,80,48,34,43,39,39,14
-82,19,102,31,-92,61,39,29,24,24,24,0
-78,24,102,26,-90,63,39,19,24,19,24,4
-78,29,107,24,-92,68,39,14,24,14,19,4
-73,34,107,19,-90,70,39,9,29,9,14,0
-82,29,112,26,-97,70,39,19,19,19,24,14
-82,24,107,29,-95,65,43,19,19,19,24,14
-82,19,102,31,-92,61,43,19,19,19,19,4
-87,14,102,36,-95,58,34,19,19,19,14,0
-102,14,117,43,-109,65,39,19,14,14,24,14
-112,14,126,48,-119,70,43,14,19,19,29,29
-97,24,122,36,-109,73,48,19,24,24,39,34
-97,34,131,31,-114,82,53,24,29,29,48,48
-107,24,131,41,-119,78,53,14,19,19,43,43
-122,14,136,53,-129,75,48,14,14,19,39,39
-122,24,146,48,-134,85,43,14,9,19,29,29
-122,24,146,48,-134,85,34,9,0,14,24,24
-102,29,131,36,-117,80,43,9,9,24,39,34
-82,34,117,24,-100,75,43,9,9,29,43,34
-73,34,107,19,-90,70,43,9,9,29,43,29
-63,39,102,12,-82,70,43,-4,0,19,39,29
-43,29,73,7,-58,51,39,-4,-4,9,29,24
-53,29,82,12,-68,56,39,-4,-4,9,29,24
-73,29,102,21,-87,65,39,-4,-4,9,29,29
-92,34,126,29,-109,80,39,-4,-4,9,29,29
-97,34,131,31,-114,82,34,-4,-4,0,29,24
-97,29,126,34,-112,78,34,-4,-4,0,29,24
-102,24,126,39,-114,75,39,-4,-4,4,34,29
-102,19,122,41,-112,70,39,-4,-4,4,34,29
-122,4,126,58,-124,65,29,-24,-9,-4,29,29
-122,9,131,56,-126,70,29,-14,-14,-4,24,29
-117,9,126,53,-122,68,34,-14,-19,0,24,29
-117,4,122,56,-119,63,39,-14,-29,0,19,34
-122,-4,117,63,-119,56,19,-29,-19,-9,19,14
-122,9,131,56,-126,70,19,-29,-19,0,24,24
-97,29,126,34,-112,78,29,-19,-19,0,29,29
-82,43,126,19,-104,85,43,-9,-9,9,34,34
-78,48,126,14,-102,87,48,-9,-9,9,39,39
-73,53,126,9,-100,90,53,-9,-9,9,43,43
-68,58,126,4,-97,92,58,-9,-9,9,48,48
-78,48,126,14,-102,87,58,0,4,19,43,39
-78,48,126,14,-102,87,68,0,4,24,43,43
-78,58,136,9,-107,97,78,0,4,24,48,43
-73,63,136,4,-104,100,82,0,4,24,48,43
-73,53,126,9,-100,90,92,-4,4,14,48,34
-73,53,126,9,-100,90,87,-4,4,14,43,29
-68,53,122,7,-95,87,82,-4,4,14,43,29
-68,53,122,7,-95,87,82,-9,4,14,43,34
-68,63,131,2,-100,97,68,-9,-4,19,48,48
-63,73,136,-4,-100,104,78,0,4,19,58,53
-63,82,146,-9,-104,114,112,9,9,29,63,58
-78,87,165,-4,-122,126,136,19,19,34,63,58
-97,73,170,12,-134,122,180,34,34,43,58,58
-102,63,165,19,-134,114,200,39,34,43,58,53
-107,48,156,29,-131,102,214,43,34,43,53,48
-112,34,146,39,-129,90,224,48,39,43,48,43
-136,19,156,58,-146,87,244,53,39,43,53,29
-141,19,161,61,-151,90,253,58,39,43,53,29
-131,29,161,51,-146,95,239,48,39,43,58,34
-117,29,146,43,-131,87,200,43,29,43,63,43
-97,48,146,24,-122,97,180,39,29,48,82,53
-73,78,151,-2,-112,114,156,34,34,53,82,63
-63,97,161,-17,-112,129,126,24,24,53,82,73
-48,117,165,-34,-107,141,97,9,19,53,82,78
-39,117,156,-39,-97,136,58,-9,4,39,82,87
-19,117,136,-48,-78,126,29,-19,-4,39,82,87
-14,117,131,-51,-73,124,14,-19,-4,39,82,92
-19,117,136,-48,-78,126,4,-19,-4,39,82,92
-19,102,122,-41,-70,112,4,-29,-14,29,82,87
-19,97,117,-39,-68,107,-4,-39,-14,24,78,78
-24,92,117,-34,-70,104,-9,-43,-14,24,73,73
-24,87,112,-31,-68,100,-14,-48,-19,24,68,68
-39,87,126,-24,-82,107,-4,-48,-29,24,68,78
-43,87,131,-21,-87,109,-4,-48,-29,24,68,78
-48,78,126,-14,-87,102,-4,-48,-29,19,68,78
-53,63,117,-4,-85,90,-9,-48,-29,19,68,78
-39,43,82,-2,-61,63,-24,-53,-39,4,53,63
-29,43,73,-7,-51,58,-29,-63,-43,-4,39,58
-24,43,68,-9,-46,56,-39,-73,-53,-14,34,53
-14,43,58,-14,-36,51,-43,-78,-58,-19,29,53
-19,58,78,-19,-48,68,-29,-73,-39,-9,43,68
-43,58,102,-7,-73,80,-19,-68,-29,-4,48,73
-63,43,107,9,-85,75,-4,-58,-24,0,48,78
-68,34,102,17,-85,68,0,-53,-29,4,48,68
-78,43,122,17,-100,82,0,-53,-29,9,48,58
-78,43,122,17,-100,82,14,-48,-14,9,48,58
-73,48,122,12,-97,85,14,-48,-24,9,43,58
-73,48,122,12,-97,85,19,-48,-29,0,39,53
-78,29,107,24,-92,68,9,-48,-34,-9,24,48
-87,24,112,31,-100,68,9,-48,-39,-14,19,34
-87,19,107,34,-97,63,9,-53,-39,-14,19,24
-92,14,107,39,-100,61,9,-53,-34,-19,14,19
-107,4,112,51,-109,58,14,-53,-43,-19,14,19
-126,0,126,63,-126,63,14,-58,-43,-19,9,19
-136,-4,131,70,-134,63,19,-58,-53,-19,9,14
-141,-9,131,75,-136,61,24,-58,-53,-24,9,14
-141,-19,122,80,-131,51,19,-68,-63,-34,0,4
-141,-29,112,85,-126,41,14,-68,-63,-34,0,4
-141,-34,107,87,-124,36,9,-68,-63,-34,0,9
-126,-29,97,78,-112,34,9,-68,-58,-34,4,9
-92,-4,87,48,-90,41,14,-58,-53,-24,9,14
-92,0,92,46,-92,46,19,-58,-53,-24,4,14
-87,14,102,36,-95,58,24,-63,-48,-24,4,19
-73,29,102,21,-87,65,29,-63,-43,-24,9,29
-73,29,102,21,-87,65,19,-63,-53,-24,14,29
-78,24,102,26,-90,63,19,-63,-53,-24,14,24
-87,19,107,34,-97,63,19,-63,-53,-24,14,24
-97,9,107,43,-102,58,19,-63,-53,-24,14,24
-122,4,126,58,-124,65,24,-63,-53,-24,14,24
-117,4,122,56,-119,63,24,-63,-53,-24,14,24
-122,0,122,61,-122,61,24,-58,-53,-24,14,24
-126,-14,112,70,-119,48,24,-58,-53,-24,14,24
-126,-4,122,65,-124,58,34,-53,-63,-24,14,34
-112,4,117,53,-114,61,34,-53,-63,-24,14,34
-112,4,117,53,-114,61,34,-53,-63,-24,14,29
-122,4,126,58,-124,65,34,-48,-63,-24,14,29
-122,-4,117,63,-119,56,34,-58,-63,-14,14,34
-122,-9,112,65,-117,51,34,-58,-63,-14,14,34
-126,-14,112,70,-119,48,34,-63,-63,-24,9,24
-131,-14,117,73,-124,51,34,-63,-63,-24,9,24
-126,-24,102,75,-114,39,24,-53,-53,-19,14,29
-112,-19,92,65,-102,36,24,-53,-53,-19,14,29
-107,-19,87,63,-97,34,24,-53,-58,-19,14,29
-97,-19,78,58,-87,29,24,-53,-58,-19,4,29
-102,-9,92,56,-97,41,24,-58,-68,-29,14,19
-112,-9,102,61,-107,46,24,-63,-63,-29,14,19
-117,-9,107,63,-112,48,24,-68,-63,-29,14,19
-117,-9,107,63,-112,48,24,-73,-63,-29,14,19
-117,-9,107,63,-112,48,34,-73,-58,-19,19,29
-117,-9,107,63,-112,48,14,-73,-68,-29,9,19
-97,14,112,41,-104,63,24,-58,-53,-14,19,19
-107,14,122,46,-114,68,48,-39,-34,4,34,34
-141,-9,131,75,-136,61,43,-43,-43,0,19,24
-131,-4,126,68,-129,61,39,-48,-48,-9,14,9
-107,39,146,34,-126,92,63,-14,-9,19,43,19
-131,53,185,39,-158,119,92,53,68,92,82,39
-180,73,253,53,-217,163,136,136,156,195,126,73
-180,156,336,12,-258,246,195,263,287,322,209,117
-141,190,331,-24,-236,261,234,380,385,395,273,175
-107,165,273,-29,-190,219,219,439,429,424,307,190
-39,146,185,-53,-112,165,190,502,502,478,385,248
29,165,136,-97,-53,151,175,590,619,585,536,380
131,219,87,-175,21,153,117,688,766,707,732,570
297,302,4,-300,146,153,48,736,883,844,971,795
453,356,-97,-405,275,129,-48,761,966,951,1205,1024
561,356,-204,-458,383,75,-141,727,976,966,1302,1171
639,356,-283,-497,461,36,-214,600,863,868,1234,1176
683,375,-307,-529,495,34,-263,361,634,702,1039,1102
673,366,-307,-519,490,29,-263,156,429,522,814,946
600,287,-312,-444,456,-12,-204,82,312,385,541,702
453,151,-302,-302,378,-75,-107,14,190,234,234,400
258,4,-253,-131,256,-124,4,-165,-43,4,-97,92
39,-102,-141,31,90,-122,112,-395,-370,-263,-409,-175
-185,-117,68,151,-126,-24,214,-580,-653,-468,-614,-322
-326,-34,292,180,-309,129,268,-673,-785,-502,-605,-322
-346,43,390,151,-368,217,263,-741,-839,-473,-517,-278
-380,53,434,163,-407,244,239,-834,-927,-502,-502,-283
-468,14,483,226,-475,248,214,-976,-1044,-600,-531,-302
-502,-53,448,278,-475,197,185,-1054,-1117,-673,-570,-326
-478,-102,375,290,-427,136,165,-1044,-1083,-702,-566,-346
-448,-122,326,285,-387,102,141,-1005,-1029,-702,-551,-341
-424,-112,312,268,-368,100,87,-961,-961,-688,-517,-312
-390,-112,278,251,-334,82,4,-888,-873,-639,-473,-278
-331,-87,244,209,-287,78,-43,-771,-746,-546,-405,-234
-278,-34,244,156,-261,104,-43,-600,-590,-429,-312,-165
-244,9,253,117,-248,131,-53,-424,-419,-297,-209,-102
-219,19,239,100,-229,129,-63,-302,-302,-204,-126,-53
-204,34,239,85,-222,136,-48,-239,-229,-151,-87,-24
-185,43,229,70,-207,136,-9,-175,-165,-117,-53,0
-185,19,204,82,-195,112,14,-122,-117,-78,-39,0
-170,9,180,80,-175,95,34,-97,-87,-58,-34,0
-151,24,175,63,-163,100,48,-58,-63,-48,-24,9
-141,24,165,58,-153,95,58,-29,-39,-34,-4,0
-146,24,170,61,-158,97,78,0,-19,0,4,9
-141,39,180,51,-161,109,82,19,-9,19,19,24
-156,43,200,56,-178,122,68,9,-4,9,19,34
-156,43,200,56,-178,122,68,9,-4,9,19,34
-156,43,200,56,-178,122,68,9,0,9,19,34
-161,43,204,58,-183,124,68,9,9,9,19,34
-126,39,165,43,-146,102,68,9,14,9,14,34
-112,39,151,36,-131,95,68,19,14,14,24,29
-92,39,131,26,-112,85,63,24,14,19,29,34
-78,39,117,19,-97,78,53,19,4,14,34,29
-78,53,131,12,-104,92,58,14,4,24,43,39
-82,58,141,12,-112,100,53,14,4,19,43,39
-87,58,146,14,-117,102,53,14,9,19,39,39
-97,53,151,21,-124,102,53,19,14,19,39,39
-112,39,151,36,-131,95,53,29,19,9,29,34
-112,34,146,39,-129,90,58,34,34,19,29,29
-117,29,146,43,-131,87,58,29,39,19,34,24
-122,24,146,48,-134,85,58,24,39,19,34,24
-117,34,151,41,-134,92,53,34,34,19,24,34
-112,34,146,39,-129,90,53,29,34,19,24,34
-107,34,141,36,-124,87,48,24,29,14,19,34
-97,29,126,34,-112,78,48,24,29,14,14,24
-82,39,122,21,-102,80,63,39,43,24,19,29
-78,43,122,17,-100,82,68,53,53,29,34,43
-68,43,112,12,-90,78,68,53,58,34,43,48
-68,53,122,7,-95,87,68,58,58,39,48,53
-87,43,131,21,-109,87,68,68,63,48,39,63
-112,39,151,36,-131,95,68,68,63,48,39,63
-122,39,161,41,-141,100,68,63,63,48,39,63
-131,34,165,48,-148,100,68,63,63,53,39,63
-131,39,170,46,-151,104,73,68,53,43,29,53
-131,29,161,51,-146,95,73,68,58,43,29,53
-122,19,141,51,-131,80,63,68,58,43,29,53
-122,19,141,51,-131,80,73,78,68,43,29,53
-112,39,151,36,-131,95,73,82,78,43,43,63
-102,39,141,31,-122,90,73,82,78,48,48,63
-87,58,146,14,-117,102,73,82,78,48,53,63
-78,63,141,7,-109,102,73,82,78,48,63,63
-78,73,151,2,-114,112,73,82,87,63,63,73
-87,58,146,14,-117,102,73,82,87,63,53,63
-92,53,146,19,-119,100,73,82,87,58,53,63
-92,53,146,19,-119,100,78,92,92,58,68,68
-97,58,156,19,-126,107,78,87,92,58,73,58
-97,53,151,21,-124,102,73,92,92,58,73,68
-117,43,161,36,-139,102,68,92,87,58,68,73
-102,39,141,31,-122,90,63,97,87,53,63,73
-102,53,156,24,-129,104,68,107,92,58,73,68
-102,58,161,21,-131,109,68,107,92,63,73,68
-102,58,161,21,-131,109,73,112,97,68,73,68
-102,63,165,19,-134,114,73,122,112,73,73,68
-87,78,165,4,-126,122,78,122,112,82,73,78
-82,87,170,-2,-126,129,78,122,112,82,73,78
-78,92,170,-7,-124,131,73,122,122,87,73,73
-68,102,170,-17,-119,136,68,122,122,87,73,68
-58,87,146,-14,-102,117,68,122,112,87,63,58
-58,78,136,-9,-97,107,68,122,112,87,63,58
-58,73,131,-7,-95,102,68,131,112,87,63,68
-53,73,126,-9,-90,100,73,136,117,87,68,73
-58,63,122,-2,-90,92,73,136,117,87,73,73
-68,63,131,2,-100,97,73,136,117,92,73,73
-78,53,131,12,-104,92,73,136,122,92,73,73
-82,53,136,14,-109,95,73,141,122,92,73,73
-73,58,131,7,-102,95,63,131,122,82,73,73
-68,68,136,0,-102,102,63,136,122,82,68,73
-73,68,141,2,-107,104,68,141,122,87,63,73
-58,68,126,-4,-92,97,68,146,122,87,53,73
-68,78,146,-4,-107,112,73,156,131,97,58,82
-68,82,151,-7,-109,117,73,165,136,92,63,82
-58,92,151,-17,-104,122,73,170,151,92,68,87
-53,102,156,-24,-104,129,78,170,161,92,73,92
-43,92,136,-24,-90,114,78,180,161,102,82,92
-53,92,146,-19,-100,119,78,180,161,102,82,97
-53,102,156,-24,-104,129,78,180,156,102,82,97
-48,102,151,-26,-100,126,78,185,156,97,87,97
-58,92,151,-17,-104,122,78,185,170,107,97,112
-43,92,136,-24,-90,114,73,190,170,107,92,112
-29,92,122,-31,-75,107,73,190,165,107,92,112
-39,92,131,-26,-85,112,73,195,165,107,92,112
-53,107,161,-26,-107,134,73,204,180,126,102,102
-58,117,175,-29,-117,146,73,209,185,126,102,107
-68,117,185,-24,-126,151,78,209,185,126,102,112
-73,117,190,-21,-131,153,78,209,185,126,102,122
-58,117,175,-29,-117,146,78,204,195,117,97,117
-68,117,185,-24,-126,151,73,204,195,117,102,112
-63,117,180,-26,-122,148,73,219,195,112,97,107
-48,117,165,-34,-107,141,73,224,204,117,97,102
-48,117,165,-34,-107,141,63,214,195,117,97,107
-48,122,170,-36,-109,146,63,219,195,117,92,107
-43,117,161,-36,-102,139,63,224,200,112,87,107
-43,112,156,-34,-100,134,63,224,204,107,82,107
-39,126,165,-43,-102,146,58,229,209,112,78,102
-39,126,165,-43,-102,146,73,239,214,117,92,107
-34,126,161,-46,-97,143,78,248,224,126,107,126
-34,131,165,-48,-100,148,82,263,239,136,112,141
-29,141,170,-56,-100,156,87,263,239,136,112,136
-19,146,165,-63,-92,156,82,263,234,136,107,131
-24,146,170,-61,-97,158,73,258,229,122,102,117
-34,146,180,-56,-107,163,68,253,229,122,82,102
-34,146,180,-56,-107,163,78,263,229,131,82,112
-43,151,195,-53,-119,173,78,268,229,122,87,102
-43,161,204,-58,-124,183,78,273,229,122,92,112
-39,165,204,-63,-122,185,78,273,229,122,97,112
-24,180,204,-78,-114,192,68,273,229,117,82,107
-14,180,195,-82,-104,187,68,278,229,117,82,107
-9,175,185,-82,-97,180,68,278,229,107,73,107
-24,161,185,-68,-104,173,68,278,229,107,73,107
-29,161,190,-65,-109,175,87,278,229,112,87,107
-29,170,200,-70,-114,185,87,278,229,112,87,107
-14,170,185,-78,-100,178,87,278,229,112,73,97
-14,170,185,-78,-100,178,87,283,224,107,68,97
-14,156,170,-70,-92,163,78,273,224,97,58,107
-34,156,190,-61,-112,173,78,273,214,87,53,102
-34,156,190,-61,-112,173,78,273,214,82,53,102
-24,175,200,-75,-112,187,82,273,209,73,48,97
-14,165,180,-75,-97,173,82,268,204,78,53,92
-29,156,185,-63,-107,170,82,268,200,63,39,82
-19,165,185,-73,-102,175,82,263,195,58,34,73
-19,175,195,-78,-107,185,87,258,185,48,24,68
-14,175,190,-80,-102,183,78,248,170,29,0,63
-14,165,180,-75,-97,173,82,248,165,29,0,58
-9,165,175,-78,-92,170,82,248,165,34,0,53
-4,175,180,-85,-92,178,87,248,165,34,0,39
4,175,170,-90,-82,173,87,248,161,24,-4,29
4,161,156,-82,-75,158,87,239,156,24,-14,34
-4,146,151,-70,-78,148,87,239,146,19,-19,34
-9,146,156,-68,-82,151,87,234,136,14,-34,19
-24,131,156,-53,-90,143,87,224,141,19,-34,24
-24,126,151,-51,-87,139,87,214,136,14,-34,24
-24,117,141,-46,-82,129,87,209,122,14,-34,29
-29,107,136,-39,-82,122,87,200,112,19,-29,34
-24,107,131,-41,-78,119,78,185,112,14,-29,29
-34,117,151,-41,-92,134,78,175,107,14,-24,19
-39,107,146,-34,-92,126,78,161,97,14,-24,14
-48,107,156,-29,-102,131,78,151,87,14,-24,9
-43,112,156,-34,-100,134,87,151,87,19,-24,9
-29,102,131,-36,-80,117,82,136,78,19,-24,9
-24,92,117,-34,-70,104,73,131,68,14,-34,4
-29,87,117,-29,-73,102,73,126,58,4,-34,0
-29,78,107,-24,-68,92,82,126,53,0,-24,9
-24,73,97,-24,-61,85,82,112,43,0,-19,14
-24,73,97,-24,-61,85,82,107,48,14,-19,14
-19,68,87,-24,-53,78,82,97,53,14,-9,19
-24,68,92,-21,-58,80,73,82,39,9,-4,9
-34,58,92,-12,-63,75,68,73,34,4,-9,9
-48,53,102,-2,-75,78,63,68,29,0,-14,9
-53,48,102,2,-78,75,58,48,24,-4,-24,9
-43,48,92,-2,-68,70,63,34,9,-4,-14,9
-48,34,82,7,-65,58,58,24,4,-9,-14,0
-43,34,78,4,-61,56,53,14,0,-14,-14,0
-39,48,87,-4,-63,68,43,9,-9,-14,-14,-9
-34,39,73,-2,-53,56,48,9,-4,0,-4,-4
-29,39,68,-4,-48,53,53,14,0,4,0,4
-4,43,48,-19,-26,46,58,14,4,9,9,9
9,58,48,-34,-19,53,58,9,9,14,14,14
0,53,53,-26,-26,53,48,4,-14,-9,-4,0
-9,58,68,-24,-39,63,53,-4,-19,-14,-4,0
-29,34,63,-2,-46,48,53,-9,-24,-19,-9,-4
-53,19,73,17,-63,46,53,-9,-29,-24,-9,-9
-53,0,53,26,-53,26,53,-19,-24,-24,-4,-19
-53,0,53,26,-53,26,53,-19,-24,-29,-4,-19
-63,-4,58,34,-61,26,53,-24,-29,-29,-14,-19
-63,-4,58,34,-61,26,48,-29,-34,-39,-14,-19
-53,0,53,26,-53,26,48,-34,-39,-48,-24,-29
-43,4,48,19,-46,26,43,-34,-39,-53,-29,-34
-34,14,48,9,-41,31,43,-29,-43,-53,-34,-34
-14,19,34,-2,-24,26,43,-29,-43,-53,-39,-29
-19,14,34,2,-26,24,48,-19,-39,-53,-29,-19
-19,9,29,4,-24,19,53,-19,-39,-53,-29,-19
-24,9,34,7,-29,21,58,-19,-34,-48,-29,-19
-34,9,43,12,-39,26,58,-14,-29,-43,-29,-24
-58,0,58,29,-58,29,48,0,-19,-39,-24,-19
-63,0,63,31,-63,31,48,4,-19,-34,-19,-9
-68,0,68,34,-68,34,48,4,-19,-29,-14,-4
-68,0,68,34,-68,34,48,4,-19,-24,-4,0
-53,0,53,26,-53,26,39,-4,-29,-34,-9,-9
-43,0,43,21,-43,21,29,-9,-29,-34,-19,-14
-43,0,43,21,-43,21,29,-9,-29,-34,-24,-14
-34,-4,29,19,-31,12,34,-4,-29,-39,-34,-14
-39,-4,34,21,-36,14,43,-14,-19,-39,-34,-19
-39,-4,34,21,-36,14,34,-14,-24,-39,-34,-29
-48,4,53,21,-51,29,34,-14,-24,-34,-34,-34
-39,4,43,17,-41,24,43,-4,-14,-19,-34,-34
-14,9,24,2,-19,17,53,0,-4,-19,-19,-19
-14,19,34,-2,-24,26,58,4,0,-19,-9,-19
-14,29,43,-7,-29,36,58,9,0,-19,-4,-19
-19,34,53,-7,-36,43,58,14,4,-14,0,-14
-4,34,39,-14,-21,36,48,4,-4,-14,9,-4
-14,29,43,-7,-29,36,48,9,4,-4,9,0
-14,24,39,-4,-26,31,53,9,4,-4,14,4
-9,14,24,-2,-17,19,53,9,4,-4,14,9
-24,14,39,4,-31,26,43,9,4,-4,29,9
-29,24,53,2,-41,39,43,9,9,-4,29,9
-24,24,48,0,-36,36,43,14,9,0,34,9
-24,14,39,4,-31,26,43,14,9,4,34,9
-29,4,34,12,-31,19,34,0,0,-4,14,0
-24,0,24,12,-24,12,29,0,0,-4,24,0
-29,-9,19,19,-24,4,29,0,0,-4,24,4
-34,-14,19,24,-26,2,34,4,0,-4,24,9
-24,4,29,9,-26,17,43,14,0,-4,24,-4
-19,9,29,4,-24,19,39,0,0,-4,24,-9
-9,19,29,-4,-19,24,39,9,0,0,29,-14
-9,34,43,-12,-26,39,43,9,0,0,29,-24
-4,24,29,-9,-17,26,43,0,0,0,14,-24
0,19,19,-9,-9,19,43,0,0,-4,14,-19
-9,19,29,-4,-19,24,39,0,4,-4,14,-14
4,39,34,-21,-14,36,39,-4,4,0,19,-4
4,24,19,-14,-7,21,39,4,4,9,29,0
9,24,14,-17,-2,19,39,0,4,9,34,14
9,24,14,-17,-2,19,39,0,4,9,34,24
14,24,9,-19,2,17,39,0,9,9,34,29
19,24,4,-21,7,14,34,-9,4,-4,24,29
24,24,0,-24,12,12,34,-9,0,-9,24,24
29,24,-4,-26,17,9,29,-9,-4,-14,19,9
29,24,-4,-26,17,9,14,-9,-9,-19,14,0
14,14,0,-14,7,7,24,-4,-19,-19,0,-9
4,14,9,-9,-2,12,24,-14,-19,-19,0,0
19,24,4,-21,7,14,24,-14,-19,-19,4,0
19,34,14,-26,2,24,24,-14,-19,-19,9,9
34,34,0,-34,17,17,19,-19,-24,-29,9,4
24,24,0,-24,12,12,19,-24,-24,-29,9,0
29,34,4,-31,12,19,19,-29,-24,-29,4,-9
34,34,0,-34,17,17,14,-39,-29,-34,4,-14
29,24,-4,-26,17,9,24,-34,-19,-29,19,0
34,24,-9,-29,21,7,24,-29,-19,-19,24,4
29,19,-9,-24,19,4,24,-24,-19,-14,24,4
24,19,-4,-21,14,7,24,-34,-29,-19,19,9
43,9,-34,-26,39,-12,14,-43,-39,-29,9,0
43,9,-34,-26,39,-12,9,-43,-43,-29,9,-4
34,9,-24,-21,29,-7,4,-43,-48,-29,9,-4
24,14,-9,-19,17,2,0,-43,-53,-29,9,-9
19,19,0,-19,9,9,0,-53,-53,-48,0,-4
19,19,0,-19,9,9,4,-53,-53,-48,0,-4
14,19,4,-17,4,12,14,-53,-53,-43,4,0
14,19,4,-17,4,12,19,-53,-53,-43,4,0
24,19,-4,-21,14,7,19,-34,-34,-34,14,-9
43,39,-4,-41,24,17,39,-24,-34,-24,24,-9
29,34,4,-31,12,19,34,-34,-43,-39,9,-19
19,39,19,-29,0,29,19,-39,-48,-48,0,-29
9,34,24,-21,-7,29,29,-48,-48,-43,4,-24
9,29,19,-19,-4,24,29,-48,-48,-39,9,-19
9,24,14,-17,-2,19,29,-48,-48,-34,14,-14
9,19,9,-14,0,14,29,-48,-48,-29,19,-9
19,19,0,-19,9,9,39,-34,-29,-24,29,4
19,19,0,-19,9,9,48,-29,-24,-14,34,14
19,29,9,-24,4,19,58,-24,-19,-9,43,19
24,34,9,-29,7,21,63,-19,-14,-4,48,24
39,48,9,-43,14,29,53,-24,-24,-14,43,19
43,53,9,-48,17,31,48,-24,-24,-14,34,9
53,58,4,-56,24,31,43,-24,-24,-14,29,4
58,63,4,-61,26,34,43,-29,-24,-14,24,4
58,73,14,-65,21,43,58,-19,-24,0,29,9
63,82,19,-73,21,51,78,-9,-14,0,39,14
63,92,29,-78,17,61,122,0,-9,9,43,19
48,97,48,-73,0,73,156,9,0,14,43,19
34,73,39,-53,-2,56,180,34,14,24,43,34
24,53,29,-39,-2,41,200,39,14,24,48,34
14,29,14,-21,0,21,214,43,14,24,48,34
4,4,0,-4,2,2,224,48,19,24,48,34
4,19,14,-12,-4,17,224,39,19,14,43,29
4,29,24,-17,-9,26,224,39,19,14,43,29
19,48,29,-34,-4,39,200,24,19,14,48,34
39,58,19,-48,9,39,151,14,9,14,53,43
48,68,19,-58,14,43,112,4,-4,14,63,43
73,87,14,-80,29,51,78,-4,-4,14,63,43
82,97,14,-90,34,56,39,-19,-19,9,63,43
97,107,9,-102,43,58,0,-39,-29,4,63,39
97,97,0,-97,48,48,-34,-53,-43,-4,58,34
107,87,-19,-97,63,34,-58,-68,-53,-9,53,29
102,78,-24,-90,63,26,-68,-73,-53,-14,48,29
87,68,-19,-78,53,24,-73,-78,-53,-19,43,24
78,78,0,-78,39,39,-48,-68,-43,-14,53,34
78,78,0,-78,39,39,-43,-68,-43,-14,58,39
73,78,4,-75,34,41,-34,-63,-43,-9,63,48
73,78,4,-75,34,41,-24,-58,-48,-4,68,58
78,78,0,-78,39,39,-34,-63,-58,-14,48,53
82,78,-4,-80,43,36,-34,-68,-58,-14,48,48
87,68,-19,-78,53,24,-34,-73,-58,-19,48,43
92,53,-39,-73,65,7,-39,-78,-58,-19,48,39
82,39,-43,-61,63,-2,-39,-82,-68,-24,34,19
87,34,-53,-61,70,-9,-39,-92,-73,-34,19,9
87,29,-58,-58,73,-14,-43,-102,-82,-43,14,0
92,24,-68,-58,80,-21,-43,-107,-87,-48,9,-4
82,39,-43,-61,63,-2,-53,-102,-78,-29,19,9
63,39,-24,-51,43,7,-48,-97,-68,-24,29,14
48,24,-24,-36,36,0,-39,-87,-63,-19,34,19
48,14,-34,-31,41,-9,-39,-82,-68,-14,39,9
58,24,-34,-41,46,-4,-29,-92,-78,-29,29,9
58,24,-34,-41,46,-4,-14,-87,-63,-29,29,9
63,29,-34,-46,48,-2,-14,-87,-73,-29,24,9
63,29,-34,-46,48,-2,-9,-87,-78,-39,19,4
58,34,-24,-46,41,4,0,-78,-73,-39,24,4
48,34,-14,-41,31,9,0,-78,-78,-43,19,-4
48,34,-14,-41,31,9,0,-82,-78,-43,19,-9
43,34,-9,-39,26,12,0,-82,-73,-48,14,-9
34,14,-19,-24,26,-2,-9,-73,-63,-43,19,-4
19,9,-9,-14,14,0,-14,-78,-63,-39,19,0
14,4,-9,-9,12,-2,-14,-78,-73,-34,24,0
14,0,-14,-7,14,-7,-14,-78,-73,-34,29,4
4,-4,-9,0,7,-7,-4,-78,-82,-34,29,4
4,-9,-14,2,9,-12,-4,-78,-82,-34,29,4
4,-9,-14,2,9,-12,-4,-78,-82,-34,29,9
19,0,-19,-9,19,-9,0,-78,-78,-34,34,9
19,-9,-29,-4,24,-19,0,-87,-87,-39,19,4
4,-19,-24,7,14,-21,0,-87,-92,-43,4,-4
-4,-19,-14,12,4,-17,0,-92,-92,-48,-4,-9
-4,-19,-14,12,4,-17,0,-92,-92,-53,-9,-9
9,-14,-24,2,17,-19,-9,-102,-82,-43,4,-19
9,-14,-24,2,17,-19,-9,-102,-82,-43,4,-24
4,-14,-19,4,12,-17,-9,-102,-82,-43,4,-24
0,-19,-19,9,9,-19,-9,-102,-82,-43,4,-24
0,-9,-9,4,4,-9,0,-97,-73,-43,4,-24
9,-4,-14,-2,12,-9,4,-92,-73,-43,4,-24
9,-4,-14,-2,12,-9,9,-82,-73,-43,4,-24
9,-14,-24,2,17,-19,14,-78,-73,-43,4,-24
4,-24,-29,9,17,-26,9,-92,-82,-53,4,-24
14,-14,-29,0,21,-21,4,-92,-82,-53,4,-24
9,-14,-24,2,17,-19,0,-92,-82,-53,4,-29
-4,-14,-9,9,2,-12,-4,-87,-82,-53,4,-29
0,-4,-4,2,2,-4,4,-87,-82,-53,-4,-34
4,-9,-14,2,9,-12,4,-87,-82,-53,-4,-34
4,-14,-19,4,12,-17,4,-92,-82,-63,-9,-43
4,-14,-19,4,12,-17,4,-92,-82,-63,-9,-43
-4,-24,-19,14,7,-21,-4,-102,-92,-68,-14,-48
4,-19,-24,7,14,-21,-4,-102,-92,-68,-14,-48
4,-19,-24,7,14,-21,-4,-102,-97,-68,-14,-48
9,-19,-29,4,19,-24,-4,-102,-97,-68,-24,-48
0,-9,-9,4,4,-9,4,-87,-82,-53,-4,-43
-4,-9,-4,7,0,-7,4,-82,-73,-48,-4,-39
-4,-9,-4,7,0,-7,4,-78,-68,-43,-4,-34
0,-9,-9,4,4,-9,4,-73,-63,-39,-4,-29
29,0,-29,-14,29,-14,24,-63,-58,-29,19,0
58,9,-48,-34,53,-19,4,-82,-78,-39,19,0
39,-24,-63,-7,51,-43,4,-78,-82,-53,19,-9
0,-24,-24,12,12,-24,19,-68,-73,-43,34,4
14,29,14,-21,0,21,34,-43,-53,-19,48,24
34,53,19,-43,7,36,39,-19,-19,19,63,39
9,68,58,-39,-24,63,63,34,48,97,102,39
-4,112,117,-53,-61,114,102,131,146,200,161,58
-14,161,175,-73,-95,168,136,244,263,322,224,82
-4,175,180,-85,-92,178,175,351,375,400,297,117
34,161,126,-97,-46,143,195,429,434,444,361,165
107,156,48,-131,29,102,170,488,507,473,444,248
224,185,-39,-204,131,73,112,580,610,556,570,375
341,234,-107,-287,224,63,58,658,756,683,780,566
453,278,-175,-366,314,51,0,697,863,824,1024,814
600,302,-297,-451,448,2,-97,678,902,893,1215,1039
717,307,-409,-512,563,-51,-195,634,897,883,1283,1151
766,317,-448,-541,607,-65,-248,531,790,790,1195,1161
785,336,-448,-561,617,-56,-283,317,580,614,990,1039
780,317,-463,-549,622,-73,-292,117,361,429,727,829
692,239,-453,-466,573,-107,-214,58,253,307,444,566
531,102,-429,-317,480,-163,-97,14,156,161,131,263
356,-24,-380,-165,368,-202,0,-161,-92,-58,-195,-48
112,-112,-224,0,168,-168,112,-400,-414,-307,-488,-307
-146,-122,24,134,-85,-48,229,-541,-644,-468,-653,-439
-253,-58,195,156,-224,68,273,-619,-751,-517,-644,-448
-258,-4,253,131,-256,124,248,-702,-824,-531,-605,-429
-297,24,322,136,-309,173,214,-800,-897,-541,-566,-424
-322,43,366,139,-344,204,180,-902,-995,-580,-541,-409
-312,43,356,134,-334,200,165,-966,-1044,-619,-522,-380
-326,-14,312,170,-319,148,156,-956,-1019,-624,-512,-366
-322,-102,219,212,-270,58,117,-946,-985,-644,-517,-366
-263,-131,131,197,-197,0,63,-946,-971,-673,-512,-361
-229,-122,107,175,-168,-7,-9,-912,-922,-668,-488,-341
-224,-92,131,158,-178,19,-53,-810,-805,-600,-414,-297
-204,-58,146,131,-175,43,-43,-653,-629,-478,-317,-224
-151,-14,136,82,-143,61,-43,-483,-463,-351,-224,-165
-107,29,136,39,-122,82,-63,-356,-331,-248,-170,-122
-92,39,131,26,-112,85,-73,-283,-253,-185,-117,-82
-68,34,102,17,-85,68,-58,-219,-200,-131,-78,-53
-39,43,82,-2,-61,63,-39,-165,-146,-87,-53,-48
-39,39,78,0,-58,58,-14,-122,-117,-68,-48,-58
-43,9,53,17,-48,31,4,-87,-107,-58,-43,-58
-24,-4,19,14,-21,7,19,-78,-82,-68,-43,-58
-14,4,19,4,-17,12,39,-58,-48,-53,-14,-48
-39,14,53,12,-46,34,48,-19,-9,-19,14,-19
-53,19,73,17,-63,46,53,0,0,0,29,4
-43,14,58,14,-51,36,34,-14,-9,-9,19,-4
-29,14,43,7,-36,29,29,-19,-14,-9,19,-4
-14,14,29,0,-21,21,24,-24,-14,-9,19,-4
-4,14,19,-4,-12,17,19,-29,-9,-9,19,-4
4,14,9,-9,-2,12,34,-14,4,-14,14,-9
4,19,14,-12,-4,17,39,0,14,-4,24,-9
9,24,14,-17,-2,19,39,9,24,4,29,0
9,29,19,-19,-4,24,34,9,24,4,34,0
4,24,19,-14,-7,21,29,9,9,4,29,-4
4,29,24,-17,-9,26,24,4,4,0,24,-9
4,29,24,-17,-9,26,24,0,4,0,14,-14
0,24,24,-12,-12,24,24,0,4,0,9,-19
14,34,19,-24,-2,26,24,14,9,9,24,-4
24,34,9,-29,7,21,29,24,24,19,29,0
29,34,4,-31,12,19,29,24,29,19,39,4
34,34,0,-34,17,17,29,24,29,19,43,14
14,34,19,-24,-2,26,34,29,29,19,43,4
14,34,19,-24,-2,26,34,29,34,19,43,4
14,34,19,-24,-2,26,29,29,34,14,39,4
19,29,9,-24,4,19,29,34,39,14,34,-4
34,29,-4,-31,19,12,29,39,39,4,19,-9
39,34,-4,-36,21,14,29,43,43,9,24,-4
48,34,-14,-41,31,9,24,34,43,14,24,-9
48,43,-4,-46,26,19,19,29,39,19,19,-14
39,39,0,-39,19,19,29,39,34,14,9,-14
14,29,14,-21,0,21,29,39,34,9,9,-14
4,24,19,-14,-7,21,29,34,34,4,9,-14
-4,14,19,-4,-12,17,29,34,34,4,9,-14
-14,4,19,4,-17,12,34,39,39,19,19,0
-14,-9,4,12,-9,-2,34,39,48,24,19,4
-4,-24,-19,14,7,-21,24,39,53,29,19,9
-4,-29,-24,17,9,-26,34,48,68,34,19,14
-9,-29,-19,19,4,-24,24,43,58,29,24,14
-14,-29,-14,21,0,-21,24,43,58,29,19,4
-14,-9,4,12,-9,-2,24,43,58,24,14,-4
-19,-4,14,12,-17,4,24,43,58,19,14,-14
-9,4,14,2,-12,9,14,34,43,19,9,-24
-19,-9,9,14,-14,0,4,34,39,14,-4,-34
-24,-14,9,19,-17,-2,-4,34,34,4,-9,-34
-24,-14,9,19,-17,-2,-9,43,34,0,0,-29
-4,-4,0,4,-2,-2,-4,48,48,24,19,-19
0,-4,-4,2,2,-4,-4,53,53,29,24,-9
-14,-9,4,12,-9,-2,-4,53,53,34,24,-4
4,-9,-14,2,9,-12,-4,58,58,34,24,-4
4,-14,-19,4,12,-17,-4,58,68,34,34,0
-4,-19,-14,12,4,-17,0,58,63,34,34,0
-14,-29,-14,21,0,-21,9,63,63,34,34,0
-24,-34,-9,29,-7,-21,14,73,73,34,34,0
-39,-34,4,36,-21,-14,19,73,73,34,29,-9
-43,-29,14,36,-29,-7,19,73,73,34,24,-9
-48,-29,19,39,-34,-4,14,73,82,39,19,-14
-48,-24,24,36,-36,0,9,73,82,39,14,-19
-43,-9,34,26,-39,12,9,73,82,39,19,-29
-39,-9,29,24,-34,9,9,73,82,39,24,-29
-34,-4,29,19,-31,12,9,82,82,39,29,-19
-24,4,29,9,-26,17,14,87,87,39,39,-14
-24,-4,19,14,-21,7,14,97,107,53,48,0
-29,-4,24,17,-26,9,14,97,107,63,53,4
-34,-14,19,24,-26,2,14,97,112,68,58,9
-34,-14,19,24,-26,2,14,102,112,73,63,14
-39,-29,9,34,-24,-9,4,92,112,58,58,24
-48,-39,9,43,-29,-14,4,97,112,53,48,24
-68,-58,9,63,-39,-24,9,102,112,53,39,24
-68,-78,-9,73,-29,-43,9,107,112,48,24,24
-48,-63,-14,56,-17,-39,-4,102,107,48,14,4
-39,-43,-4,41,-17,-24,-4,107,107,43,14,-4
-19,-19,0,19,-9,-9,-4,107,117,43,14,-9
-4,4,9,0,-7,7,0,102,122,43,14,-14
-14,14,29,0,-21,21,0,117,141,58,39,0
-24,14,39,4,-31,26,0,122,141,63,43,9
-24,24,48,0,-36,36,0,126,136,68,48,14
-19,24,43,-2,-31,34,0,136,136,68,58,19
-29,14,43,7,-36,29,9,136,151,78,58,24
-24,14,39,4,-31,26,4,141,151,78,53,24
-19,14,34,2,-26,24,4,141,146,78,53,24
-39,14,53,12,-46,34,4,146,146,78,53,24
-39,9,48,14,-43,29,4,156,161,97,63,24
-39,9,48,14,-43,29,4,161,165,97,63,29
-43,0,43,21,-43,21,9,161,165,97,63,34
-43,-9,34,26,-39,12,9,161,165,97,63,43
-24,0,24,12,-24,12,9,175,180,112,68,53
-29,9,39,9,-34,24,4,175,185,117,82,53
-19,19,39,0,-29,29,4,190,190,117,87,53
0,29,29,-14,-14,29,4,195,204,126,97,53
0,24,24,-12,-12,24,4,185,195,122,87,58
-9,24,34,-7,-21,29,4,190,195,117,82,58
-14,14,29,0,-21,21,4,195,200,107,78,58
-24,4,29,9,-26,17,4,195,204,97,73,58
-29,19,48,4,-39,34,-14,185,200,87,48,39
-29,19,48,4,-39,34,-4,190,195,87,53,29
-24,19,43,2,-34,31,-4,195,195,92,58,34
-24,24,48,0,-36,36,-4,204,200,97,53,34
-29,43,73,-7,-51,58,4,219,209,112,68,48
-19,48,68,-14,-43,58,4,224,214,117,68,53
-24,48,73,-12,-48,61,0,224,219,107,68,48
-34,48,82,-7,-58,65,0,224,229,112,53,43
-34,39,73,-2,-53,56,-9,234,229,112,58,48
-43,34,78,4,-61,56,-9,239,229,102,58,43
-43,34,78,4,-61,56,-9,244,229,102,58,58
-39,29,68,4,-53,48,-9,244,229,102,58,63
-19,53,73,-17,-46,63,4,244,239,117,48,53
-14,53,68,-19,-41,61,9,248,239,117,43,48
-14,48,63,-17,-39,56,14,248,239,107,29,43
-34,34,68,0,-51,51,19,248,239,107,24,39
-48,34,82,7,-65,58,14,239,234,102,19,29
-48,43,92,2,-70,68,9,239,229,92,19,29
-34,43,78,-4,-56,61,4,239,224,82,4,19
-34,43,78,-4,-56,61,0,244,214,68,0,19
-24,34,58,-4,-41,46,4,244,224,68,-4,9
-43,29,73,7,-58,51,9,244,214,68,-4,4
-43,24,68,9,-56,46,14,244,214,73,0,4
-34,39,73,-2,-53,56,24,244,209,73,0,0
-48,19,68,14,-58,43,14,239,204,68,-9,-9
-68,9,78,29,-73,43,14,239,200,53,-29,-24
-63,19,82,21,-73,51,14,234,195,48,-39,-39
-68,29,97,19,-82,63,19,229,185,39,-53,-48
-58,29,87,14,-73,58,19,229,180,29,-53,-29
-63,19,82,21,-73,51,24,229,175,29,-48,-19
-63,19,82,21,-73,51,24,229,175,34,-43,-9
-63,29,92,17,-78,61,29,229,175,34,-39,-9
-73,29,102,21,-87,65,39,234,180,43,-34,4
-73,14,87,29,-80,51,39,229,185,43,-34,14
-82,0,82,41,-82,41,39,234,185,39,-29,19
-87,0,87,43,-87,43,39,234,185,34,-34,9
-92,-9,82,51,-87,36,48,234,190,39,-53,-4
-92,-9,82,51,-87,36,48,224,185,34,-53,-14
-92,-14,78,53,-85,31,48,219,170,34,-53,-19
-97,-19,78,58,-87,29,48,209,161,39,-48,-24
-92,-4,87,48,-90,41,39,195,156,39,-48,-14
-92,9,102,41,-97,56,39,185,146,34,-43,-19
-87,4,92,41,-90,48,39,170,131,29,-43,-19
-87,9,97,39,-92,53,39,161,117,24,-43,-19
-97,-9,87,53,-92,39,29,151,107,19,-53,-34
-87,-24,63,56,-75,19,24,126,97,19,-53,-39
-87,-39,48,63,-68,4,14,112,87,14,-63,-48
-97,-48,48,73,-73,0,14,97,78,4,-63,-58
-87,-53,34,70,-61,-9,14,97,78,9,-39,-43
-82,-53,29,68,-56,-12,14,82,63,9,-29,-34
-82,-48,34,65,-58,-7,14,78,63,24,-24,-29
-78,-48,29,63,-53,-9,14,68,63,24,-9,-19
-87,-58,29,73,-58,-14,24,73,68,34,0,-9
-92,-68,24,80,-58,-21,29,73,63,34,0,-9
-102,-73,29,87,-65,-21,34,78,58,34,0,-9
-102,-78,24,90,-63,-26,39,68,53,34,-4,-9
-117,-73,43,95,-80,-14,43,53,39,14,-9,-24
-126,-82,43,104,-85,-19,39,43,34,9,-14,-39
-126,-78,48,102,-87,-14,34,34,29,4,-19,-43
-126,-58,68,92,-97,4,24,29,19,4,-24,-58
-126,-82,43,104,-85,-19,24,24,9,-4,-34,-58
-126,-87,39,107,-82,-24,24,24,9,-4,-39,-53
-107,-87,19,97,-63,-34,24,19,9,-4,-39,-53
-97,-78,19,87,-58,-29,19,9,9,-4,-43,-53
-107,-78,29,92,-68,-24,19,9,0,-9,-39,-48
-107,-68,39,87,-73,-14,24,4,0,-4,-24,-39
-117,-87,29,102,-73,-29,24,4,0,0,-14,-34
-131,-97,34,114,-82,-31,24,9,0,4,0,-29
-122,-107,14,114,-68,-46,24,0,-4,0,-14,-43
-122,-107,14,114,-68,-46,24,0,-4,-9,-24,-48
-131,-112,19,122,-75,-46,24,-4,-9,-14,-43,-53
-131,-112,19,122,-75,-46,19,-9,-14,-29,-53,-58
-141,-102,39,122,-90,-31,29,-4,-9,-29,-63,-63
-141,-102,39,122,-90,-31,24,-4,-9,-34,-68,-73
-141,-97,43,119,-92,-26,24,0,-14,-34,-73,-78
-131,-97,34,114,-82,-31,24,0,-14,-34,-78,-78
-117,-92,24,104,-70,-34,24,-9,-19,-34,-68,-78
-107,-87,19,97,-63,-34,24,-9,-19,-34,-68,-78
-102,-78,24,90,-63,-26,24,-9,-14,-29,-68,-78
-102,-68,34,85,-68,-17,19,-4,-9,-24,-68,-82
-117,-87,29,102,-73,-29,29,0,-9,-14,-63,-78
-122,-97,24,109,-73,-36,29,4,-9,-14,-58,-68
-126,-107,19,117,-73,-43,29,4,-9,-14,-53,-63
-126,-117,9,122,-68,-53,29,4,-9,-14,-43,-58
-131,-117,14,124,-73,-51,19,14,0,-24,-43,-48
-131,-117,14,124,-73,-51,9,9,0,-24,-48,-53
-141,-117,24,129,-82,-46,9,9,0,-24,-48,-53
-141,-122,19,131,-80,-51,14,14,0,-29,-53,-53
-131,-107,24,119,-78,-41,4,4,-9,-39,-63,-63
-126,-102,24,114,-75,-39,-4,4,-14,-39,-63,-68
-131,-87,43,109,-87,-21,-4,4,-14,-34,-63,-68
-117,-82,34,100,-75,-24,4,14,-4,-19,-63,-63
-97,-73,24,85,-61,-24,14,24,4,-4,-48,-58
-102,-68,34,85,-68,-17,19,24,9,0,-39,-58
-107,-63,43,85,-75,-9,19,24,9,4,-34,-58
-117,-63,53,90,-85,-4,19,24,14,14,-29,-53
-126,-63,63,95,-95,0,19,34,24,14,-14,-53
-141,-68,73,104,-107,2,19,39,34,24,-9,-48
-146,-73,73,109,-109,0,24,39,34,24,0,-43
-146,-82,63,114,-104,-9,24,39,34,24,4,-39
-126,-73,53,100,-90,-9,34,29,34,24,4,-34
-117,-63,53,90,-85,-4,34,29,39,24,0,-29
-97,-63,34,80,-65,-14,34,34,39,29,0,-24
-82,-73,9,78,-46,-31,34,34,39,34,-4,-19
-82,-78,4,80,-43,-36,24,19,39,34,-4,-39
-73,-78,-4,75,-34,-41,19,19,39,34,4,-39
-73,-82,-9,78,-31,-46,19,19,39,34,4,-34
-73,-82,-9,78,-31,-46,24,24,39,34,4,-29
-82,-73,9,78,-46,-31,19,24,29,34,-4,-29
-97,-78,19,87,-58,-29,9,9,29,34,-4,-29
-107,-78,29,92,-68,-24,4,19,29,39,0,-29
-126,-73,53,100,-90,-9,4,19,29,39,0,-34
-126,-82,43,104,-85,-19,14,29,39,43,9,-34
-126,-87,39,107,-82,-24,14,29,39,43,14,-29
-141,-87,53,114,-97,-17,9,29,43,48,19,-24
-131,-68,63,100,-97,-2,9,24,43,58,29,-14
-131,-82,48,107,-90,-17,-9,14,24,43,19,-19
-126,-82,43,104,-85,-19,-9,9,24,39,24,-14
-126,-82,43,104,-85,-19,-9,9,24,34,24,-14
-122,-82,39,102,-80,-21,-9,9,29,29,24,-19
-112,-68,43,90,-78,-12,-9,9,19,29,24,-9
-112,-63,48,87,-80,-7,-4,9,19,29,24,-4
-112,-58,53,85,-82,-2,-4,9,19,29,19,-9
-117,-53,63,85,-90,4,-14,9,19,29,14,-9
-126,-68,58,97,-92,-4,-9,14,19,29,19,-19
-131,-73,58,102,-95,-7,-4,4,19,29,19,-9
-112,-68,43,90,-78,-12,0,4,19,29,24,-9
-107,-63,43,85,-75,-9,4,4,19,29,29,0
-87,-58,29,73,-58,-14,4,-4,14,19,24,-4
-92,-63,29,78,-61,-17,0,-4,14,19,19,-9
-82,-48,34,65,-58,-7,-4,-4,14,19,9,-19
-73,-43,29,58,-51,-7,-14,-9,9,14,4,-24
-73,-53,19,63,-46,-17,-24,-9,9,14,0,-24
-63,-53,9,58,-36,-21,-24,-9,9,19,4,-24
-63,-58,4,61,-34,-26,-24,-9,9,19,4,-29
-63,-58,4,61,-34,-26,-24,-24,0,9,0,-29
-43,-73,-29,58,-7,-51,-29,-34,-14,9,-9,-43
-53,-78,-24,65,-14,-51,-29,-34,-14,9,-9,-43
-73,-82,-9,78,-31,-46,-29,-34,-14,9,-9,-39
-92,-82,9,87,-51,-36,-29,-34,-14,9,-9,-39
-82,-73,9,78,-46,-31,-34,-43,-34,-9,-9,-43
-78,-78,0,78,-39,-39,-34,-43,-34,-9,-9,-43
-78,-82,-4,80,-36,-43,-29,-43,-34,-4,-4,-39
-73,-87,-14,80,-29,-51,-29,-43,-34,-4,-4,-39
-73,-97,-24,85,-24,-61,-48,-53,-34,-24,-34,-29
-48,-78,-29,63,-9,-53,-29,-29,-19,0,-29,-19
-48,-68,-19,58,-14,-43,-19,-39,-19,9,-14,-29
-48,-68,-19,58,-14,-43,-19,-39,-19,9,-9,-29
-48,-68,-19,58,-14,-43,-19,-39,-19,9,-4,-29
-48,-68,-19,58,-14,-43,-19,-39,-19,9,0,-29
-58,-53,4,56,-31,-24,0,-24,-4,14,9,-19
-58,-48,9,53,-34,-19,9,-19,-4,24,14,-14
-58,-34,24,46,-41,-4,19,-14,-4,29,24,-14
-53,-24,29,39,-41,2,24,-9,-4,34,29,-14
-63,-39,24,51,-43,-7,24,-14,-4,19,14,-19
-63,-43,19,53,-41,-12,19,-14,-4,14,4,-29
-58,-48,9,53,-34,-19,14,-14,-4,9,0,-34
-58,-53,4,56,-31,-24,14,-19,-4,4,-4,-34
-53,-48,4,51,-29,-21,0,-24,-9,9,-9,-39
-43,-43,0,43,-21,-21,9,-19,-4,9,0,-34
-39,-39,0,39,-19,-19,43,-14,-4,19,4,-29
-48,-39,9,43,-29,-14,68,-9,0,24,4,-29
-68,-43,24,56,-46,-9,112,4,14,24,14,-14
-73,-53,19,63,-46,-17,131,9,14,24,19,-14
-78,-68,9,73,-43,-29,146,14,14,24,19,-14
-82,-82,0,82,-41,-41,156,19,19,24,19,-14
-102,-92,9,97,-56,-41,180,24,19,14,4,-29
-102,-87,14,95,-58,-36,195,29,19,14,4,-29
-87,-73,14,80,-51,-29,185,19,19,14,9,-24
-68,-68,0,68,-34,-34,151,14,9,14,14,-14
-68,-73,-4,70,-31,-39,102,4,14,24,14,-14
-53,-58,-4,56,-24,-31,68,-4,14,24,14,-14
-53,-53,0,53,-26,-26,29,-19,0,19,14,-14
-48,-48,0,48,-24,-24,-9,-39,-9,14,14,-19
-29,-39,-9,34,-9,-24,-48,-39,-4,14,14,-19
-9,-39,-29,24,9,-34,-68,-48,-14,19,14,-19
-4,-39,-34,21,14,-36,-73,-48,-14,24,14,-14
-9,-39,-29,24,9,-34,-73,-48,-14,29,14,-14
-14,-34,-19,24,2,-26,-78,-53,-19,19,29,-24
-19,-29,-9,24,-4,-19,-82,-58,-24,14,29,-29
-29,-24,4,26,-17,-9,-82,-58,-29,14,29,-29
-34,-19,14,26,-24,-2,-82,-58,-39,14,29,-29
-34,-9,24,21,-29,7,-78,-58,-43,19,29,-4
-34,-9,24,21,-29,7,-73,-58,-39,24,39,9
-34,-19,14,26,-24,-2,-68,-58,-34,24,48,24
-34,-34,0,34,-17,-17,-68,-58,-29,29,58,39
-24,-48,-24,36,0,-36,-68,-68,-34,19,68,39
-19,-53,-34,36,7,-43,-68,-73,-34,14,58,39
-19,-58,-39,39,9,-48,-73,-78,-39,9,58,39
-14,-63,-48,39,17,-56,-73,-78,-39,9,58,43
-24,-53,-29,39,2,-41,-78,-82,-39,0,39,19
-43,-48,-4,46,-19,-26,-78,-87,-39,-4,19,-4
-58,-58,0,58,-29,-29,-73,-87,-43,-9,-4,-29
-58,-63,-4,61,-26,-34,-78,-92,-58,-14,-29,-68
-43,-63,-19,53,-12,-41,-68,-78,-53,-14,-14,-63
-39,-63,-24,51,-7,-43,-53,-68,-34,-9,0,-48
-29,-58,-29,43,0,-43,-53,-63,-39,-4,9,-34
-24,-58,-34,41,4,-46,-48,-58,-39,-9,19,-24
-48,-82,-34,65,-7,-58,-43,-58,-43,-19,4,-29
-68,-92,-24,80,-21,-58,-39,-58,-48,-24,-9,-43
-78,-102,-24,90,-26,-63,-34,-63,-48,-24,-19,-53
-92,-112,-19,102,-36,-65,-29,-63,-43,-29,-34,-58
-82,-107,-24,95,-29,-65,-34,-73,-48,-29,-29,-48
-87,-107,-19,97,-34,-63,-43,-78,-53,-29,-29,-48
-82,-107,-24,95,-29,-65,-48,-78,-68,-29,-24,-53
-73,-107,-34,90,-19,-70,-53,-78,-73,-34,-19,-53
-58,-102,-43,80,-7,-73,-53,-78,-63,-34,-29,-53
-53,-107,-53,80,0,-80,-53,-78,-63,-34,-29,-53
-48,-107,-58,78,4,-82,-53,-78,-63,-34,-29,-48
-29,-97,-68,63,19,-82,-48,-78,-58,-34,-24,-48
-24,-97,-73,61,24,-85,-48,-78,-58,-34,-14,-53
-43,-107,-63,75,9,-85,-48,-78,-63,-34,-24,-63
-58,-107,-48,82,-4,-78,-48,-82,-63,-34,-29,-68
-63,-107,-43,85,-9,-75,-48,-82,-63,-34,-29,-68
-63,-112,-48,87,-7,-80,-58,-92,-68,-43,-29,-78
-68,-112,-43,90,-12,-78,-58,-92,-73,-43,-34,-82
-78,-112,-34,95,-21,-73,-58,-92,-78,-43,-39,-82
-87,-117,-29,102,-29,-73,-58,-92,-82,-43,-43,-82
-82,-112,-29,97,-26,-70,-53,-82,-78,-43,-43,-73
-68,-102,-34,85,-17,-68,-53,-82,-73,-43,-43,-73
-63,-97,-34,80,-14,-65,-53,-78,-68,-43,-43,-73
-58,-102,-43,80,-7,-73,-53,-78,-63,-43,-43,-73
-48,-92,-43,70,-2,-68,-53,-73,-53,-34,-39,-68
-34,-82,-48,58,7,-65,-53,-73,-53,-34,-34,-63
-34,-82,-48,58,7,-65,-53,-73,-53,-34,-29,-63
-43,-82,-39,63,-2,-61,-53,-68,-53,-34,-24,-58
-53,-97,-43,75,-4,-70,-43,-78,-63,-34,-34,-63
-53,-107,-53,80,0,-80,-43,-78,-63,-34,-34,-63
-58,-117,-58,87,0,-87,-43,-82,-63,-43,-39,-73
-63,-122,-58,92,-2,-90,-43,-82,-63,-43,-39,-73
-68,-117,-48,92,-9,-82,-53,-92,-73,-39,-29,-53
-63,-107,-43,85,-9,-75,-53,-92,-73,-39,-24,-48
-68,-102,-34,85,-17,-68,-53,-92,-78,-39,-19,-43
-68,-97,-29,82,-19,-63,-53,-92,-78,-39,-24,-39
-58,-107,-48,82,-4,-78,-43,-87,-73,-29,-14,-48
-63,-107,-43,85,-9,-75,-43,-82,-63,-29,-14,-48
-63,-107,-43,85,-9,-75,-43,-78,-58,-29,-14,-48
-58,-107,-48,82,-4,-78,-43,-73,-53,-29,-14,-48
-87,-136,-48,112,-19,-92,-43,-82,-68,-48,-39,-87
-97,-117,-19,107,-39,-68,-43,-82,-68,-39,-19,-68
-78,-102,-24,90,-26,-63,-43,-68,-53,-24,-9,-68
-58,-102,-43,80,-7,-73,-48,-58,-53,-14,-14,-63
-63,-107,-43,85,-9,-75,-43,-73,-63,-19,-29,-63
-73,-102,-29,87,-21,-65,-29,-68,-58,-29,-43,-78
-48,-87,-39,68,-4,-63,-14,-34,-29,-9,-24,-78
-53,-53,0,53,-26,-26,24,24,29,63,24,-48
-43,4,48,19,-46,26,68,107,126,175,87,-24
-34,58,92,-12,-63,75,97,204,239,302,151,-19
-53,43,97,4,-75,70,107,283,326,385,185,-19
-39,39,78,0,-58,58,102,351,400,434,229,4
0,68,68,-34,-34,68,122,444,492,507,346,102
48,126,78,-87,-14,102,117,551,639,644,536,283
112,161,48,-136,31,104,78,658,785,814,790,522
219,214,-4,-217,112,104,29,707,902,980,1127,805
356,258,-97,-307,226,80,-58,702,966,1117,1449,1112
502,307,-195,-405,348,56,-151,668,976,1180,1693,1385
590,336,-253,-463,422,41,-234,561,902,1151,1751,1527
605,346,-258,-475,431,43,-302,351,683,985,1586,1503
585,336,-248,-461,417,43,-331,117,419,746,1293,1356
541,287,-253,-414,397,17,-292,24,283,580,990,1112
453,190,-263,-322,358,-36,-185,14,219,478,663,780
307,73,-234,-190,270,-80,-73,-97,34,287,283,405
97,-53,-151,-21,124,-102,34,-307,-302,-39,-175,29
-126,-117,9,122,-68,-53,146,-522,-663,-429,-595,-292
-287,-102,185,195,-236,41,209,-634,-863,-649,-780,-458
-346,-43,302,195,-324,129,204,-683,-917,-697,-751,-453
-341,-14,326,178,-334,156,170,-736,-956,-717,-727,-448
-351,4,356,173,-353,180,136,-810,-1024,-785,-736,-468
-375,-4,370,190,-373,183,136,-868,-1088,-849,-727,-463
-390,-53,336,222,-363,141,136,-868,-1044,-829,-692,-453
-380,-122,258,251,-319,68,112,-839,-990,-800,-668,-439
-375,-170,204,273,-290,17,58,-844,-961,-805,-653,-439
-351,-180,170,265,-261,-4,4,-829,-912,-785,-629,-424
-322,-185,136,253,-229,-24,-63,-780,-824,-722,-561,-380
-297,-161,136,229,-217,-12,-112,-688,-707,-595,-458,-312
-253,-107,146,180,-200,19,-122,-541,-546,-444,-346,-239
-190,-78,112,134,-151,17,-131,-409,-400,-322,-263,-180
-136,-53,82,95,-109,14,-156,-326,-307,-248,-195,-141
-117,-24,92,70,-104,34,-146,-263,-234,-175,-151,-117
-117,-9,107,63,-112,48,-112,-200,-175,-117,-107,-107
-122,-48,73,85,-97,12,-53,-126,-126,-78,-82,-97
-122,-82,39,102,-80,-21,-29,-87,-82,-58,-73,-87
-102,-82,19,92,-61,-31,-19,-68,-68,-43,-53,-78
-117,-73,43,95,-80,-14,0,-39,-29,-19,-34,-68
-161,-97,63,129,-112,-17,4,-19,-9,-9,-19,-73
-151,-102,48,126,-100,-26,-14,-19,-14,0,-19,-73
-136,-102,34,119,-85,-34,-19,-19,-14,0,-19,-73
-122,-102,19,112,-70,-41,-24,-19,-9,0,-19,-73
-112,-102,9,107,-61,-46,-29,-19,0,0,-19,-73
-92,-97,-4,95,-43,-51,-24,-14,0,-9,-29,-73
-92,-97,-4,95,-43,-51,-19,-9,4,-4,-24,-78
-87,-97,-9,92,-39,-53,-19,-9,9,0,-24,-73
-87,-97,-9,92,-39,-53,-24,-19,4,-4,-24,-78
-78,-87,-9,82,-34,-48,-19,-14,14,4,-14,-63
-73,-78,-4,75,-34,-41,-24,-14,14,9,-4,-58
-68,-73,-4,70,-31,-39,-24,-14,19,19,0,-53
-68,-73,-4,70,-31,-39,-24,-9,24,29,9,-48
-73,-82,-9,78,-31,-46,-14,-4,24,24,4,-48
-73,-92,-19,82,-26,-56,-9,4,34,29,0,-48
-78,-102,-24,90,-26,-63,-9,4,34,24,0,-48
-82,-112,-29,97,-26,-70,-9,4,29,19,-4,-43
-92,-102,-9,97,-41,-56,-24,9,29,24,9,-29
-92,-102,-9,97,-41,-56,-24,9,34,29,14,-24
-92,-102,-9,97,-41,-56,-29,9,34,29,14,-19
-87,-107,-19,97,-34,-63,-29,14,39,34,14,-24
-102,-112,-9,107,-46,-61,-34,14,39,29,-4,-43
-107,-112,-4,109,-51,-58,-29,24,43,29,-4,-43
-107,-117,-9,112,-48,-63,-29,19,43,29,-9,-53
-117,-112,4,114,-61,-53,-29,19,39,29,-19,-63
-112,-107,4,109,-58,-51,-19,19,43,29,-9,-43
-122,-107,14,114,-68,-46,-19,19,43,29,-9,-43
-117,-102,14,109,-65,-43,-19,14,43,29,-9,-43
-112,-102,9,107,-61,-46,-19,14,43,34,-9,-43
-92,-97,-4,95,-43,-51,-4,24,53,34,-9,-39
-82,-97,-14,90,-34,-56,-4,29,58,34,-9,-34
-63,-97,-34,80,-14,-65,-14,34,58,34,-9,-29
-53,-87,-34,70,-9,-61,-4,48,68,34,-9,-24
-63,-92,-29,78,-17,-61,-9,53,68,43,9,-9
-73,-97,-24,85,-24,-61,-14,53,68,48,9,-4
-78,-82,-4,80,-36,-43,-19,53,68,48,9,0
-87,-82,4,85,-46,-39,-24,53,68,48,14,4
-78,-78,0,78,-39,-39,-34,39,63,48,9,-9
-87,-87,0,87,-43,-43,-34,34,58,43,-4,-24
-92,-87,4,90,-48,-41,-34,29,53,34,-9,-29
-92,-82,9,87,-51,-36,-29,34,53,29,0,-29
-87,-78,9,82,-48,-34,-24,39,48,34,4,-39
-87,-82,4,85,-46,-39,-24,43,53,39,4,-29
-107,-92,14,100,-61,-39,-24,43,53,43,0,-24
-92,-97,-4,95,-43,-51,-24,48,58,43,-4,-24
-92,-97,-4,95,-43,-51,-29,48,58,53,0,-14
-92,-97,-4,95,-43,-51,-29,48,53,53,4,-9
-92,-102,-9,97,-41,-56,-24,53,53,53,9,-4
-92,-102,-9,97,-41,-56,-24,63,63,53,14,0
-78,-97,-19,87,-29,-58,-9,73,68,63,19,0
-73,-87,-14,80,-29,-51,-9,73,73,63,24,0
-68,-82,-14,75,-26,-48,-14,73,87,68,29,-4
-58,-73,-14,65,-21,-43,-19,73,92,68,34,-9
-68,-82,-14,75,-26,-48,-29,63,92,68,24,-19
-68,-87,-19,78,-24,-53,-29,63,92,68,24,-19
-68,-87,-19,78,-24,-53,-29,73,92,68,24,-9
-63,-82,-19,73,-21,-51,-24,78,97,68,29,-4
-73,-68,4,70,-39,-31,-19,87,107,78,43,0
-78,-63,14,70,-46,-24,-14,87,107,82,43,4
-82,-68,14,75,-48,-26,-9,87,112,82,43,9
-82,-63,19,73,-51,-21,-4,92,112,82,43,14
-73,-68,4,70,-39,-31,-9,82,122,82,48,14
-68,-58,9,63,-39,-24,-14,87,122,82,48,14
-73,-58,14,65,-43,-21,-14,92,122,87,48,14
-58,-58,0,58,-29,-29,-19,97,122,87,43,14
-68,-63,4,65,-36,-29,-34,87,117,78,43,4
-78,-63,14,70,-46,-24,-34,97,117,73,43,4
-78,-58,19,68,-48,-19,-34,102,126,73,43,9
-82,-53,29,68,-56,-12,-29,102,131,73,43,14
-63,-48,14,56,-39,-17,-24,122,146,97,58,24
-63,-43,19,53,-41,-12,-19,122,151,102,63,29
-53,-29,24,41,-39,-2,-14,122,151,107,68,29
-39,-24,14,31,-26,-4,-9,126,156,107,78,29
-48,-29,19,39,-34,-4,-19,126,165,97,63,29
-43,-34,9,39,-26,-12,-24,131,161,97,53,24
-39,-39,0,39,-19,-19,-24,131,151,97,48,19
-58,-43,14,51,-36,-14,-24,136,146,97,43,14
-58,-53,4,56,-31,-24,-34,136,170,107,63,19
-58,-48,9,53,-34,-19,-34,141,175,107,63,29
-63,-53,9,58,-36,-21,-29,141,175,107,63,39
-63,-58,4,61,-34,-26,-29,141,175,107,63,53
-53,-48,4,51,-29,-21,-19,151,195,117,68,53
-68,-39,29,53,-48,-4,-24,156,195,126,82,53
-68,-29,39,48,-53,4,-24,175,195,131,87,53
-58,-19,39,39,-48,9,-24,185,204,146,97,53
-39,-24,14,31,-26,-4,-24,180,195,136,92,39
-39,-14,24,26,-31,4,-24,180,195,136,82,39
-34,-14,19,24,-26,2,-24,180,200,131,73,39
-34,-14,19,24,-26,2,-24,175,204,126,63,39
-39,-9,29,24,-34,9,-34,185,214,136,63,29
-39,-9,29,24,-34,9,-24,190,214,136,73,29
-34,-9,24,21,-29,7,-24,195,219,141,82,43
-34,-4,29,19,-31,12,-24,204,229,146,82,53
-14,19,34,-2,-24,26,-24,200,234,146,87,73
0,29,29,-14,-14,29,-24,204,234,146,87,73
0,34,34,-17,-17,34,-29,204,234,131,87,63
-4,39,43,-17,-24,41,-29,204,239,131,73,53
-4,24,29,-9,-17,26,-39,204,234,131,53,39
-14,24,39,-4,-26,31,-39,209,229,122,48,24
-14,29,43,-7,-29,36,-39,214,224,122,43,29
-9,29,39,-9,-24,34,-39,214,219,122,39,24
-4,39,43,-17,-24,41,-34,214,229,126,43,24
-4,34,39,-14,-21,36,-29,219,229,126,43,29
-9,24,34,-7,-21,29,-24,219,229,117,34,34
-34,4,39,14,-36,21,-19,219,229,117,34,39
-39,9,48,14,-43,29,-9,234,234,122,53,53
-39,24,63,7,-51,43,-9,239,239,122,58,58
-24,29,53,-2,-39,41,-9,244,244,122,48,53
-24,34,58,-4,-41,46,-9,253,244,117,48,58
-29,29,58,0,-43,43,-9,248,234,107,29,48
-53,29,82,12,-68,56,-9,244,224,97,24,43
-58,29,87,14,-73,58,-9,239,224,92,24,43
-53,48,102,2,-78,75,-4,234,219,82,19,39
-48,39,87,4,-68,63,-14,219,204,78,9,29
-58,29,87,14,-73,58,-14,219,200,63,-9,14
-43,39,82,2,-63,61,-14,214,195,58,-19,0
-39,48,87,-4,-63,68,-9,209,185,48,-34,-9
-48,34,82,7,-65,58,-9,219,190,29,-48,0
-53,19,73,17,-63,46,-4,219,185,29,-48,0
-53,14,68,19,-61,41,-4,219,185,34,-48,0
-53,19,73,17,-63,46,0,219,185,34,-48,-9
-48,29,78,9,-63,53,0,209,180,24,-53,-19
-43,14,58,14,-51,36,0,200,175,24,-63,-14
-48,0,48,24,-48,24,0,200,165,19,-68,-14
-48,0,48,24,-48,24,0,195,156,14,-82,-29
-48,9,58,19,-53,34,9,195,161,9,-87,-19
-43,9,53,17,-48,31,9,185,156,4,-82,-24
-39,4,43,17,-41,24,9,180,141,4,-78,-24
-39,0,39,19,-39,19,9,170,131,9,-68,-24
-53,0,53,26,-53,26,0,175,131,4,-78,-34
-63,9,73,26,-68,41,0,165,126,4,-73,-39
-68,0,68,34,-68,34,0,151,117,4,-73,-39
-78,0,78,39,-78,39,0,141,107,4,-73,-39
-87,-14,73,51,-80,29,0,131,102,0,-63,-39
-78,-34,43,56,-61,4,-4,107,87,0,-63,-39
-78,-53,24,65,-51,-14,-14,92,73,-4,-73,-43
-87,-68,19,78,-53,-24,-14,78,58,-14,-73,-48
-73,-58,14,65,-43,-21,-9,73,53,-19,-53,-39
-63,-53,9,58,-36,-21,-4,63,43,-19,-48,-34
-58,-43,14,51,-36,-14,0,63,48,-4,-48,-34
-48,-39,9,43,-29,-14,4,58,53,-4,-39,-29
-53,-39,14,46,-34,-12,9,58,39,-4,-29,-39
-63,-48,14,56,-39,-17,9,53,34,-4,-29,-39
-78,-53,24,65,-51,-14,9,53,29,-4,-29,-39
-82,-58,24,70,-53,-17,9,39,24,-4,-34,-39
-92,-82,9,87,-51,-36,4,24,9,-24,-43,-39
-107,-102,4,104,-56,-48,0,14,4,-29,-43,-48
-112,-107,4,109,-58,-51,-4,4,0,-34,-43,-48
-117,-97,19,107,-68,-39,-14,0,-9,-34,-43,-58
-107,-97,9,102,-58,-43,-14,-14,-19,-43,-43,-63
-107,-97,9,102,-58,-43,-14,-14,-19,-43,-48,-63
-87,-92,-4,90,-41,-48,-14,-19,-19,-43,-48,-68
-78,-78,0,78,-39,-39,-19,-29,-19,-43,-53,-73
-78,-82,-4,80,-36,-43,-29,-29,-39,-53,-58,-63
-78,-68,9,73,-43,-29,-24,-34,-39,-53,-53,-58
-87,-82,4,85,-46,-39,-24,-34,-39,-53,-53,-58
-102,-87,14,95,-58,-36,-24,-29,-39,-53,-48,-58
-102,-102,0,102,-51,-51,-24,-29,-43,-53,-48,-58
-102,-107,-4,104,-48,-56,-24,-29,-43,-58,-53,-58
-112,-117,-4,114,-53,-61,-24,-34,-48,-58,-68,-58
-112,-122,-9,117,-51,-65,-29,-39,-53,-68,-73,-58
-126,-126,0,126,-63,-63,-19,-53,-58,-78,-87,-78
-131,-131,0,131,-65,-65,-24,-53,-58,-82,-87,-92
-136,-131,4,134,-70,-63,-24,-48,-63,-82,-87,-102
-131,-136,-4,134,-63,-70,-24,-48,-63,-82,-87,-107
-126,-131,-4,129,-61,-68,-29,-39,-58,-82,-78,-92
-117,-126,-9,122,-53,-68,-24,-39,-58,-82,-78,-87
-112,-117,-4,114,-53,-61,-19,-39,-53,-78,-78,-82
-112,-107,4,109,-58,-51,-19,-34,-48,-73,-78,-82
-122,-112,9,117,-65,-51,-9,-34,-48,-82,-87,-92
-122,-117,4,119,-63,-56,-9,-34,-48,-82,-87,-87
-122,-122,0,122,-61,-61,-9,-39,-48,-82,-87,-87
-117,-126,-9,122,-53,-68,-9,-43,-48,-82,-82,-87
-122,-122,0,122,-61,-61,-9,-34,-58,-92,-87,-92
-122,-117,4,119,-63,-56,-19,-39,-58,-92,-97,-102
-131,-112,19,122,-75,-46,-19,-39,-58,-92,-102,-107
-131,-112,19,122,-75,-46,-14,-34,-58,-97,-112,-112
-126,-112,14,119,-70,-48,-14,-43,-48,-102,-107,-102
-126,-112,14,119,-70,-48,-24,-43,-53,-97,-102,-97
-136,-102,34,119,-85,-34,-24,-43,-53,-87,-97,-87
-126,-102,24,114,-75,-39,-14,-34,-43,-68,-92,-73
-112,-102,9,107,-61,-46,-14,-24,-43,-68,-73,-58
-112,-97,14,104,-63,-41,-9,-24,-39,-68,-68,-58
-112,-92,19,102,-65,-36,-9,-24,-39,-68,-68,-58
-117,-92,24,104,-70,-34,-9,-24,-34,-63,-68,-53
-122,-97,24,109,-73,-36,-9,-24,-34,-63,-68,-63
-141,-97,43,119,-92,-26,-9,-19,-24,-53,-68,-58
-151,-97,53,124,-102,-21,-4,-19,-24,-53,-63,-53
-156,-102,53,129,-104,-24,-4,-19,-24,-53,-63,-48
-165,-112,53,139,-109,-29,-9,-24,-29,-63,-63,-63
-165,-102,63,134,-114,-19,-14,-29,-29,-63,-68,-68
-156,-102,53,129,-104,-24,-19,-29,-34,-58,-68,-73
-151,-112,39,131,-95,-36,-24,-34,-39,-53,-73,-78
-136,-102,34,119,-85,-34,-24,-29,-29,-48,-73,-78
-122,-97,24,109,-73,-36,-29,-29,-29,-43,-53,-68
-117,-97,19,107,-68,-39,-29,-29,-29,-39,-43,-53
-112,-92,19,102,-65,-36,-24,-24,-29,-34,-34,-39
-112,-78,34,95,-73,-21,-14,-14,-19,-34,-39,-48
-117,-78,39,97,-78,-19,-19,-29,-19,-34,-43,-48
-117,-73,43,95,-80,-14,-19,-19,-19,-29,-43,-48
-126,-63,63,95,-95,0,-14,-19,-19,-29,-48,-53
-122,-53,68,87,-95,7,-24,-29,-29,-29,-43,-58
-117,-58,58,87,-87,0,-24,-29,-29,-34,-43,-58
-126,-58,68,92,-97,4,-29,-29,-24,-34,-43,-58
-112,-39,73,75,-92,17,-29,-34,-24,-29,-39,-53
-112,-63,48,87,-80,-7,-29,-29,-29,-19,-34,-43
-117,-63,53,90,-85,-4,-29,-29,-24,-19,-24,-34
-126,-63,63,95,-95,0,-29,-24,-19,-19,-19,-29
-131,-63,68,97,-100,2,-29,-19,-9,-19,-14,-29
-136,-68,68,102,-102,0,-29,-24,-19,-29,-24,-34
-141,-73,68,107,-104,-2,-24,-29,-19,-29,-24,-34
-146,-78,68,112,-107,-4,-24,-34,-19,-29,-29,-43
-156,-82,73,119,-114,-4,-34,-39,-19,-29,-34,-48
-151,-87,63,119,-107,-12,-24,-39,-24,-34,-34,-43
-151,-82,68,117,-109,-7,-24,-43,-19,-29,-29,-29
-126,-68,58,97,-92,-4,-24,-39,-14,-24,-19,-24
-117,-53,63,85,-90,4,-24,-34,-9,-19,-9,-9
-112,-63,48,87,-80,-7,-29,-43,-24,-19,-14,-14
-122,-73,48,97,-85,-12,-29,-43,-24,-19,-19,-19
-117,-63,53,90,-85,-4,-29,-43,-24,-19,-29,-29
-112,-63,48,87,-80,-7,-34,-48,-29,-24,-34,-34
-117,-53,63,85,-90,4,-24,-39,-29,-34,-34,-34
-112,-53,58,82,-85,2,-24,-39,-29,-29,-34,-34
-117,-58,58,87,-87,0,-24,-39,-29,-29,-39,-39
-122,-58,63,90,-92,2,-24,-53,-39,-39,-48,-39
-112,-73,39,92,-75,-17,-29,-53,-43,-29,-34,-39
-131,-78,53,104,-92,-12,-29,-53,-43,-29,-29,-34
-161,-82,78,122,-119,-2,-29,-53,-43,-29,-24,-24
-190,-82,107,136,-148,12,-29,-53,-43,-29,-19,-19
-180,-73,107,126,-143,17,-34,-63,-53,-48,-39,-34
-165,-78,87,122,-126,4,-34,-63,-53,-48,-39,-34
-156,-82,73,119,-114,-4,-29,-63,-53,-43,-34,-29
-141,-87,53,114,-97,-17,-29,-63,-53,-43,-34,-29
-122,-68,53,95,-87,-7,-39,-53,-53,-53,-34,-39
-73,-68,4,70,-39,-31,-48,-73,-63,-63,-43,-39
-78,-73,4,75,-41,-34,-43,-82,-73,-68,-39,-19
-117,-68,48,92,-82,-9,-29,-78,-68,-48,-29,-9
-131,-78,53,104,-92,-12,-29,-68,-68,-48,-39,-24
-136,-78,58,107,-97,-9,-29,-68,-68,-48,-39,-29
-141,-78,63,109,-102,-7,-29,-68,-68,-48,-39,-34
-146,-78,68,112,-107,-4,-29,-68,-68,-48,-39,-39
-141,-63,78,102,-109,7,-14,-48,-58,-43,-29,-29
-136,-58,78,97,-107,9,0,-48,-53,-34,-24,-24
-131,-43,87,87,-109,21,14,-48,-48,-29,-14,-24
-122,-34,87,78,-104,26,24,-48,-43,-24,-9,-24
-122,-34,87,78,-104,26,34,-34,-34,-24,-9,-19
-122,-34,87,78,-104,26,29,-34,-34,-24,-14,-19
-117,-34,82,75,-100,24,24,-34,-34,-24,-14,-14
-117,-34,82,75,-100,24,24,-39,-34,-24,-14,-4
-122,-39,82,80,-102,21,14,-48,-39,-24,-9,-9
-122,-34,87,78,-104,26,29,-39,-34,-29,0,-4
-126,-29,97,78,-112,34,68,-29,-34,-24,4,0
-146,-29,117,87,-131,43,97,-19,-29,-24,4,0
-146,-24,122,85,-134,48,141,-14,-24,-14,0,0
-151,-34,117,92,-134,41,161,-9,-24,-14,0,-4
-156,-48,107,102,-131,29,175,-4,-24,-14,-4,-9
-161,-63,97,112,-129,17,185,0,-19,-14,-9,-14
-180,-73,107,126,-143,17,190,-9,-19,-14,-4,-29
-180,-68,112,124,-146,21,185,-9,-19,-14,-4,-29
-165,-53,112,109,-139,29,156,-24,-19,-14,0,-24
-146,-48,97,97,-122,24,102,-34,-29,-14,4,-14
-141,-43,97,92,-119,26,58,-43,-43,-24,4,-19
-122,-29,92,75,-107,31,19,-53,-43,-24,4,-14
-117,-24,92,70,-104,34,-24,-68,-58,-29,4,-9
-107,-19,87,63,-97,34,-68,-87,-68,-34,4,-9
-102,-9,92,56,-97,41,-87,-97,-63,-48,-4,-9
-87,-9,78,48,-82,34,-107,-107,-73,-48,-4,-9
-87,-9,78,48,-82,34,-112,-107,-73,-48,-4,-4
-97,-9,87,53,-92,39,-112,-107,-73,-48,-4,-4
-87,-4,82,46,-85,39,-97,-107,-63,-43,9,0
-87,0,87,43,-87,43,-92,-107,-63,-43,9,0
-92,4,97,43,-95,51,-82,-102,-63,-39,9,4
-92,9,102,41,-97,56,-73,-97,-68,-34,9,9
-82,-4,78,43,-80,36,-82,-102,-78,-43,0,9
-82,-9,73,46,-78,31,-82,-107,-78,-43,0,9
-82,-24,58,53,-70,17,-82,-112,-78,-48,0,9
-82,-43,39,63,-61,-2,-87,-117,-78,-48,0,9
-92,-53,39,73,-65,-7,-87,-107,-82,-48,4,9
-87,-53,34,70,-61,-9,-87,-112,-82,-53,0,9
-87,-53,34,70,-61,-9,-92,-117,-87,-58,4,9
-82,-53,29,68,-56,-12,-92,-117,-87,-58,9,14
-87,-48,39,68,-63,-4,-92,-117,-92,-63,4,9
-112,-48,63,80,-87,7,-87,-117,-87,-63,0,4
-131,-63,68,97,-100,2,-78,-112,-87,-63,-9,0
-136,-73,63,104,-100,-4,-78,-112,-97,-63,-19,-19
-126,-73,53,100,-90,-9,-68,-112,-97,-78,-29,-29
-126,-73,53,100,-90,-9,-53,-107,-82,-78,-29,-29
