I,II,III,aVR,aVL,aVF,V1,V2,V3,V4,V5,V6
39,19,-19,-29,29,0,-9,-53,-29,-58,-78,-78
39,14,-24,-26,31,-4,0,-53,-24,-58,-78,-82
34,14,-19,-24,26,-2,4,-53,-24,-58,-78,-87
19,4,-14,-12,17,-4,9,-53,-24,-68,-78,-92
9,-14,-24,2,17,-19,19,-48,-43,-73,-92,-87
0,-29,-29,14,14,-29,29,-39,-48,-82,-107,-92
-4,-39,-34,21,14,-36,34,-34,-53,-97,-117,-97
-14,-53,-39,34,12,-46,39,-39,-58,-107,-126,-107
-4,-43,-39,24,17,-41,29,-48,-63,-107,-136,-117
-9,-48,-39,29,14,-43,29,-53,-73,-117,-141,-117
-14,-53,-39,34,12,-46,29,-53,-78,-122,-136,-126
-14,-58,-43,36,14,-51,29,-53,-82,-122,-131,-131
-24,-68,-43,46,9,-56,29,-58,-82,-126,-136,-136
-24,-68,-43,46,9,-56,24,-58,-82,-126,-141,-141
-24,-68,-43,46,9,-56,24,-58,-82,-126,-146,-146
-29,-68,-39,48,4,-53,29,-58,-82,-126,-156,-151
-29,-73,-43,51,7,-58,29,-58,-82,-126,-156,-141
-29,-73,-43,51,7,-58,29,-58,-82,-126,-156,-141
-29,-73,-43,51,7,-58,29,-58,-82,-126,-156,-141
-29,-73,-43,51,7,-58,29,-58,-82,-131,-156,-141
-29,-63,-34,46,2,-48,29,-53,-82,-131,-146,-146
-29,-63,-34,46,2,-48,29,-53,-82,-131,-146,-146
-29,-63,-34,46,2,-48,29,-53,-82,-126,-146,-146
-29,-63,-34,46,2,-48,29,-53,-82,-126,-146,-141
-29,-63,-34,46,2,-48,39,-53,-82,-126,-156,-141
-29,-63,-34,46,2,-48,39,-53,-78,-122,-156,-141
-29,-63,-34,46,2,-48,39,-48,-78,-117,-151,-141
-29,-63,-34,46,2,-48,39,-48,-73,-117,-151,-136
-39,-58,-19,48,-9,-39,29,-48,-73,-117,-146,-146
-39,-58,-19,48,-9,-39,34,-48,-73,-117,-146,-146
-39,-58,-19,48,-9,-39,34,-43,-73,-117,-146,-146
-39,-58,-19,48,-9,-39,34,-43,-68,-112,-146,-146
-39,-58,-19,48,-9,-39,43,-34,-68,-112,-146,-146
-39,-63,-24,51,-7,-43,43,-34,-68,-112,-146,-141
-39,-63,-24,51,-7,-43,43,-34,-63,-112,-146,-141
-39,-58,-19,48,-9,-39,43,-34,-63,-112,-146,-146
-29,-58,-29,43,0,-43,39,-43,-73,-122,-156,-146
-34,-58,-24,46,-4,-41,39,-43,-63,-122,-156,-146
-34,-58,-24,46,-4,-41,48,-43,-63,-117,-146,-136
-34,-43,-9,39,-12,-26,39,-53,-58,-107,-126,-122
-34,-34,0,34,-17,-17,34,-48,-48,-78,-97,-107
-34,-39,-4,36,-14,-21,53,-4,-9,-43,-82,-107
-29,-58,-29,43,0,-43,97,68,29,-9,-68,-117
-4,-48,-43,26,19,-46,131,141,87,48,-34,-97
24,-39,-63,7,43,-51,165,209,170,146,29,-63
53,-34,-87,-9,70,-61,219,312,283,268,122,-4
107,-19,-126,-43,117,-73,229,409,409,429,248,68
170,24,-146,-97,158,-61,190,507,556,639,400,161
263,87,-175,-175,219,-43,161,614,766,902,600,287
326,131,-195,-229,261,-31,136,702,956,1127,756,385
370,141,-229,-256,300,-43,92,683,1005,1200,780,405
370,146,-224,-258,297,-39,19,502,883,1044,649,341
341,165,-175,-253,258,-4,-68,239,658,775,448,253
283,185,-97,-234,190,43,-170,14,483,512,253,156
219,102,-117,-161,168,-7,-180,-78,351,287,9,-39
141,-112,-253,-14,197,-183,-151,-126,234,34,-292,-322
53,-263,-317,104,185,-290,-170,-287,87,-185,-512,-517
-39,-283,-244,161,102,-263,-287,-556,-102,-346,-585,-566
-122,-283,-161,202,19,-222,-370,-756,-307,-488,-649,-580
-185,-307,-122,246,-31,-214,-400,-834,-458,-619,-702,-605
-214,-317,-102,265,-56,-209,-448,-868,-585,-722,-736,-595
-214,-326,-112,270,-51,-219,-502,-932,-697,-780,-746,-585
-200,-322,-122,261,-39,-222,-531,-951,-746,-800,-741,-580
-185,-292,-107,239,-39,-200,-531,-902,-702,-736,-688,-541
-165,-258,-92,212,-36,-175,-512,-834,-639,-658,-614,-507
-151,-214,-63,183,-43,-139,-478,-766,-605,-614,-570,-473
-122,-165,-43,143,-39,-104,-444,-702,-556,-556,-517,-414
-78,-126,-48,102,-14,-87,-414,-605,-488,-483,-448,-346
-58,-97,-39,78,-9,-68,-351,-517,-439,-434,-414,-307
-48,-82,-34,65,-7,-58,-283,-424,-385,-385,-375,-278
-43,-68,-24,56,-9,-46,-204,-336,-317,-326,-317,-253
-34,-68,-34,51,0,-51,-131,-263,-253,-268,-268,-229
-39,-68,-29,53,-4,-48,-82,-200,-209,-234,-244,-209
-34,-68,-34,51,0,-51,-53,-165,-175,-204,-224,-209
-29,-58,-29,43,0,-43,-29,-131,-170,-185,-214,-190
-14,-58,-43,36,14,-51,-19,-102,-151,-180,-195,-170
-9,-53,-43,31,17,-48,-14,-82,-126,-161,-180,-156
-4,-43,-39,24,17,-41,4,-63,-92,-141,-161,-146
-9,-34,-24,21,7,-29,19,-39,-78,-122,-146,-136
0,-34,-34,17,17,-34,24,-29,-63,-112,-131,-136
0,-43,-43,21,21,-43,24,-29,-68,-126,-136,-146
0,-43,-43,21,21,-43,29,-24,-73,-126,-146,-146
0,-43,-43,21,21,-43,34,-24,-78,-126,-151,-146
0,-43,-43,21,21,-43,34,-19,-82,-126,-151,-136
9,-39,-48,14,29,-43,43,-9,-73,-122,-151,-146
9,-39,-48,14,29,-43,43,-4,-68,-117,-146,-141
14,-39,-53,12,34,-46,43,0,-63,-112,-141,-141
14,-39,-53,12,34,-46,43,9,-53,-102,-141,-141
4,-34,-39,14,21,-36,63,14,-43,-92,-131,-136
9,-34,-43,12,26,-39,63,14,-48,-92,-131,-131
9,-34,-43,12,26,-39,63,14,-48,-92,-131,-131
9,-34,-43,12,26,-39,63,19,-48,-92,-131,-131
9,-34,-43,12,26,-39,53,24,-43,-82,-117,-122
9,-34,-43,12,26,-39,58,24,-43,-78,-112,-112
9,-39,-48,14,29,-43,58,24,-43,-73,-112,-112
9,-39,-48,14,29,-43,58,34,-34,-68,-112,-112
9,-24,-34,7,21,-29,63,34,-34,-68,-107,-112
9,-19,-29,4,19,-24,63,34,-34,-68,-107,-112
9,-19,-29,4,19,-24,63,34,-29,-68,-102,-112
14,-19,-34,2,24,-26,63,39,-29,-68,-102,-112
14,-19,-34,2,24,-26,73,39,-29,-73,-102,-117
14,-19,-34,2,24,-26,78,43,-29,-68,-97,-117
14,-19,-34,2,24,-26,78,48,-24,-68,-97,-112
14,-19,-34,2,24,-26,78,48,-24,-68,-97,-107
19,-19,-39,0,29,-29,82,43,-19,-58,-97,-97
19,-19,-39,0,29,-29,82,48,-19,-53,-97,-92
19,-19,-39,0,29,-29,82,53,-14,-53,-92,-92
19,-19,-39,0,29,-29,82,53,-14,-53,-92,-87
19,-19,-39,0,29,-29,73,53,-14,-53,-102,-97
19,-14,-34,-2,26,-24,73,58,-9,-48,-97,-97
19,-14,-34,-2,26,-24,73,58,-4,-48,-97,-97
19,-14,-34,-2,26,-24,78,63,-4,-43,-87,-92
14,-19,-34,2,24,-26,78,68,0,-43,-78,-92
14,-14,-29,0,21,-21,73,68,0,-43,-78,-87
14,-14,-29,0,21,-21,73,73,0,-43,-78,-87
19,-19,-39,0,29,-29,73,78,0,-39,-78,-82
19,-9,-29,-4,24,-19,73,78,14,-34,-68,-82
19,-4,-24,-7,21,-14,73,78,14,-29,-63,-82
24,-4,-29,-9,26,-17,73,87,19,-29,-63,-78
29,-4,-34,-12,31,-19,73,92,24,-29,-58,-78
29,0,-29,-14,29,-14,78,87,19,-9,-58,-73
29,4,-24,-17,26,-9,78,92,19,-9,-48,-73
34,4,-29,-19,31,-12,78,92,19,-9,-43,-68
34,9,-24,-21,29,-7,73,97,29,-4,-39,-63
24,0,-24,-12,24,-12,73,112,43,9,-43,-58
34,4,-29,-19,31,-12,73,117,48,14,-39,-53
34,4,-29,-19,31,-12,73,122,48,14,-34,-53
34,9,-24,-21,29,-7,73,126,48,19,-29,-53
43,9,-34,-26,39,-12,68,131,48,14,-19,-53
48,9,-39,-29,43,-14,68,136,53,14,-19,-53
53,9,-43,-31,48,-17,68,141,58,19,-14,-53
53,14,-39,-34,46,-12,68,146,58,24,-9,-43
43,14,-29,-29,36,-7,68,151,68,39,-9,-29
48,19,-29,-34,39,-4,68,156,73,43,-9,-24
48,24,-24,-36,36,0,63,165,78,48,-4,-19
58,29,-29,-43,43,0,63,170,82,58,0,-14
58,24,-34,-41,46,-4,73,165,87,63,9,-14
58,29,-29,-43,43,0,73,175,92,68,9,-14
63,29,-34,-46,48,-2,73,180,97,68,19,-9
68,29,-39,-48,53,-4,73,185,102,73,24,-9
73,39,-34,-56,53,2,73,195,102,68,29,4
78,39,-39,-58,58,0,73,204,107,73,34,14
82,43,-39,-63,61,2,73,214,117,78,39,19
82,43,-39,-63,61,2,73,224,122,82,43,19
87,39,-48,-63,68,-4,68,224,136,102,53,24
92,43,-48,-68,70,-2,68,234,141,112,58,29
97,48,-48,-73,73,0,63,239,141,126,63,29
97,53,-43,-75,70,4,63,248,146,131,73,34
102,53,-48,-78,75,2,53,244,151,136,78,29
107,53,-53,-80,80,0,53,248,156,136,78,34
112,58,-53,-85,82,2,53,258,161,136,78,39
117,58,-58,-87,87,0,53,263,170,141,82,43
107,63,-43,-85,75,9,63,268,170,151,92,58
107,73,-34,-90,70,19,63,273,175,161,97,63
107,78,-29,-92,68,24,63,278,180,170,102,68
117,78,-39,-97,78,19,63,283,180,175,107,73
122,78,-43,-100,82,17,53,283,170,175,112,78
122,78,-43,-100,82,17,48,287,175,180,117,82
126,78,-48,-102,87,14,48,292,180,185,122,82
131,82,-48,-107,90,17,48,292,180,190,126,87
131,92,-39,-112,85,26,48,292,195,190,126,82
131,92,-39,-112,85,26,48,302,195,190,126,82
131,92,-39,-112,85,26,48,302,200,195,126,82
131,92,-39,-112,85,26,48,302,200,195,126,87
131,97,-34,-114,82,31,48,292,190,190,122,92
136,97,-39,-117,87,29,48,292,190,190,122,92
136,97,-39,-117,87,29,48,292,185,190,122,92
136,97,-39,-117,87,29,43,292,185,190,126,92
136,92,-43,-114,90,24,53,302,195,190,131,102
136,92,-43,-114,90,24,53,302,195,195,131,102
136,92,-43,-114,90,24,53,302,195,195,131,107
141,87,-53,-114,97,17,53,302,195,195,131,107
131,82,-48,-107,90,17,53,292,185,180,131,102
131,82,-48,-107,90,17,48,287,185,180,131,102
131,87,-43,-109,87,21,48,283,185,180,131,102
126,87,-39,-107,82,24,48,278,185,180,131,102
126,87,-39,-107,82,24,48,273,180,180,122,92
126,87,-39,-107,82,24,48,273,180,180,122,92
117,82,-34,-100,75,24,48,258,175,175,117,92
112,78,-34,-95,73,21,43,253,170,170,112,92
112,78,-34,-95,73,21,43,234,175,180,112,102
107,78,-29,-92,68,24,43,224,170,170,112,92
102,78,-24,-90,63,26,43,209,165,161,107,87
97,78,-19,-87,58,29,43,195,161,156,112,82
92,78,-14,-85,53,31,43,190,165,151,97,82
87,73,-14,-80,51,29,43,180,161,146,92,73
82,68,-14,-75,48,26,43,165,156,136,87,68
78,63,-14,-70,46,24,43,151,146,126,87,58
63,58,-4,-61,34,26,43,126,141,117,78,53
58,53,-4,-56,31,24,43,117,131,107,68,48
48,53,4,-51,21,29,43,112,122,102,63,43
43,43,0,-43,21,21,43,102,117,97,53,34
39,39,0,-39,19,19,43,102,107,87,39,24
29,34,4,-31,12,19,43,82,102,78,34,24
29,29,0,-29,14,14,43,73,97,68,29,24
19,24,4,-21,7,14,43,58,92,58,24,19
0,19,19,-9,-9,19,53,58,87,48,19,14
0,9,9,-4,-4,9,53,43,78,43,14,4
-9,9,19,0,-14,14,53,39,73,39,9,-4
-14,4,19,4,-17,12,58,34,73,34,4,-9
-9,0,9,4,-9,4,58,24,58,24,0,-4
-14,-4,9,9,-12,2,58,9,43,14,-4,-9
-19,-9,9,14,-14,0,58,9,43,14,-9,-14
-24,-14,9,19,-17,-2,58,4,34,9,-9,-14
-29,-9,19,19,-24,4,58,9,34,0,-14,-34
-34,-14,19,24,-26,2,58,4,34,-4,-19,-39
-34,-19,14,26,-24,-2,58,0,29,-9,-19,-43
-39,-19,19,29,-29,0,58,-4,24,-14,-24,-48
-48,-34,14,41,-31,-9,58,-9,9,-24,-29,-48
-48,-34,14,41,-31,-9,58,-9,4,-29,-34,-53
-48,-39,9,43,-29,-14,58,-9,4,-34,-39,-53
-48,-43,4,46,-26,-19,63,-14,0,-43,-43,-48
-53,-34,19,43,-36,-7,63,-14,0,-43,-48,-48
-53,-34,19,43,-36,-7,63,-19,-4,-43,-53,-48
-53,-39,14,46,-34,-12,63,-19,-4,-48,-53,-48
-58,-39,19,48,-39,-9,63,-19,-4,-48,-53,-48
-58,-39,19,48,-39,-9,63,-19,4,-39,-43,-48
-63,-43,19,53,-41,-12,63,-24,0,-39,-43,-48
-63,-43,19,53,-41,-12,63,-24,0,-39,-48,-48
-63,-39,24,51,-43,-7,63,-24,-4,-43,-53,-48
-63,-48,14,56,-39,-17,63,-24,-4,-53,-53,-48
-63,-48,14,56,-39,-17,63,-24,-4,-53,-53,-48
-63,-48,14,56,-39,-17,58,-24,-4,-53,-53,-53
-63,-48,14,56,-39,-17,58,-29,-4,-53,-53,-53
-58,-48,9,53,-34,-19,58,-29,-4,-43,-53,-43
-58,-48,9,53,-34,-19,58,-29,-4,-48,-53,-43
-63,-48,14,56,-39,-17,58,-29,-9,-48,-53,-43
-63,-48,14,56,-39,-17,58,-29,-9,-43,-53,-43
-68,-48,19,58,-43,-14,58,-29,-9,-48,-53,-48
-68,-48,19,58,-43,-14,58,-29,-9,-48,-53,-48
-68,-48,19,58,-43,-14,58,-29,-9,-48,-53,-48
-68,-48,19,58,-43,-14,58,-29,-9,-53,-48,-48
-68,-39,29,53,-48,-4,53,-29,-19,-58,-48,-39
-68,-39,29,53,-48,-4,53,-29,-19,-58,-48,-39
-68,-39,29,53,-48,-4,53,-29,-14,-53,-48,-39
-68,-39,29,53,-48,-4,53,-29,-14,-53,-43,-39
-68,-39,29,53,-48,-4,58,-29,-4,-53,-34,-29
-68,-39,29,53,-48,-4,58,-29,-4,-48,-34,-29
-68,-34,34,51,-51,0,53,-29,-4,-43,-34,-34
-63,-34,29,48,-46,-2,53,-29,-4,-39,-34,-34
-63,-34,29,48,-46,-2,48,-19,-4,-48,-43,-24
-63,-29,34,46,-48,2,48,-19,-4,-48,-43,-24
-63,-29,34,46,-48,2,48,-19,-4,-43,-43,-24
-63,-29,34,46,-48,2,48,-19,0,-43,-43,-24
-58,-29,29,43,-43,0,48,-29,0,-43,-43,-14
-58,-29,29,43,-43,0,48,-29,0,-39,-39,-14
-58,-24,34,41,-46,4,48,-29,0,-34,-29,-14
-58,-24,34,41,-46,4,48,-29,0,-34,-24,-9
-58,-29,29,43,-43,0,48,-29,0,-29,-24,-4
-58,-29,29,43,-43,0,48,-24,0,-29,-19,-4
-58,-29,29,43,-43,0,48,-24,0,-34,-14,-4
-53,-24,29,39,-41,2,48,-24,0,-34,-14,-4
-63,-24,39,43,-51,7,48,-24,-9,-24,-14,0
-63,-24,39,43,-51,7,48,-24,-9,-24,-14,0
-63,-19,43,41,-53,12,48,-24,-9,-24,-14,4
-63,-19,43,41,-53,12,53,-24,-9,-24,-14,4
-63,-19,43,41,-53,12,43,-24,0,-24,-14,4
-63,-14,48,39,-56,17,39,-24,0,-24,-14,4
-63,-14,48,39,-56,17,39,-24,0,-19,-9,4
-63,-14,48,39,-56,17,34,-24,0,-19,-4,4
-63,-9,53,36,-58,21,43,-19,0,-19,9,9
-53,-19,34,36,-43,7,34,-29,0,-24,-4,9
-58,-19,39,39,-48,9,39,-29,9,-19,0,9
-58,-19,39,39,-48,9,39,-29,0,-19,-9,9
-58,-19,39,39,-48,9,39,-29,0,-19,-9,9
-58,-19,39,39,-48,9,39,-29,0,-19,-9,9
-58,-19,39,39,-48,9,39,-29,0,-19,-9,9
-58,-19,39,39,-48,9,39,-29,0,-14,0,19
-58,-14,43,36,-51,14,43,-29,4,-14,0,19
-58,-9,48,34,-53,19,43,-29,4,-14,0,24
-58,-4,53,31,-56,24,43,-29,14,-9,0,24
-58,9,68,24,-63,39,39,-19,14,-4,4,24
-53,9,63,21,-58,36,39,-19,14,0,14,24
-48,14,63,17,-56,39,39,-19,14,0,19,24
-48,24,73,12,-61,48,39,-19,14,0,24,24
-58,29,87,14,-73,58,43,-19,29,14,19,34
-53,34,87,9,-70,61,48,-14,39,14,29,39
-48,43,92,2,-70,68,58,-14,43,19,34,43
-43,48,92,-2,-68,70,63,-14,43,19,34,43
-43,43,87,0,-65,65,53,-14,43,19,34,43
-43,48,92,-2,-68,70,53,-9,43,19,39,43
-43,53,97,-4,-70,75,53,-9,43,24,43,48
-43,53,97,-4,-70,75,53,-14,48,24,53,48
-24,63,87,-19,-56,75,43,-24,48,34,43,48
-24,63,87,-19,-56,75,39,-24,48,29,43,48
-24,63,87,-19,-56,75,39,-29,48,29,43,48
-24,73,97,-24,-61,85,39,-29,48,34,43,48
-29,87,117,-29,-73,102,34,-19,58,43,53,58
-19,97,117,-39,-68,107,34,-14,63,48,63,68
-19,107,126,-43,-73,117,34,-14,68,53,73,78
-14,117,131,-51,-73,124,29,-14,73,58,82,78
-9,112,122,-51,-65,117,34,-34,63,48,73,78
-4,107,112,-51,-58,109,29,-39,63,48,73,78
-4,92,97,-43,-51,95,14,-43,53,48,73,78
-4,82,87,-39,-46,85,4,-43,48,39,68,73
4,78,73,-41,-34,75,-4,-39,34,34,68,68
9,68,58,-39,-24,63,-14,-43,24,24,58,63
9,68,58,-39,-24,63,-24,-58,14,9,53,63
9,58,48,-34,-19,53,-24,-58,4,9,48,58
0,58,58,-29,-29,58,-9,-58,14,9,43,63
0,53,53,-26,-26,53,-9,-58,9,0,39,58
0,48,48,-24,-24,48,-9,-58,4,0,39,53
0,48,48,-24,-24,48,-9,-53,4,0,39,53
-4,34,39,-14,-21,36,-9,-53,-4,0,39,53
-4,24,29,-9,-17,26,0,-53,-19,-9,29,48
-19,9,29,4,-24,19,0,-43,-19,-9,29,48
-19,4,24,7,-21,14,9,-43,-14,-9,29,43
-24,4,29,9,-26,17,14,-43,-14,0,29,39
-39,-4,34,21,-36,14,19,-43,-14,-9,29,34
-48,-19,29,34,-39,4,24,-43,-24,-9,19,29
-58,-29,29,43,-43,0,29,-39,-29,-14,9,24
-73,-24,48,48,-61,12,29,-39,-34,-34,4,19
-82,-34,48,58,-65,7,29,-48,-39,-39,0,9
-82,-34,48,58,-65,7,29,-48,-43,-48,-14,0
-87,-39,48,63,-68,4,29,-53,-53,-58,-24,0
-82,-53,29,68,-56,-12,29,-53,-48,-53,-14,0
-82,-58,24,70,-53,-17,29,-53,-53,-53,-14,-4
-82,-58,24,70,-53,-17,29,-58,-53,-58,-14,-4
-82,-58,24,70,-53,-17,24,-58,-53,-58,-14,-4
-82,-58,24,70,-53,-17,24,-58,-53,-58,-24,-4
-87,-58,29,73,-58,-14,29,-58,-53,-58,-29,-4
-87,-63,24,75,-56,-19,29,-58,-53,-58,-29,-4
-87,-63,24,75,-56,-19,29,-58,-53,-58,-29,-4
-87,-63,24,75,-56,-19,29,-58,-53,-58,-19,-4
-87,-63,24,75,-56,-19,29,-58,-53,-63,-19,-4
-87,-63,24,75,-56,-19,29,-53,-53,-63,-19,-9
-87,-63,24,75,-56,-19,29,-53,-53,-63,-19,-9
-87,-63,24,75,-56,-19,39,-43,-53,-58,-9,-4
-87,-63,24,75,-56,-19,39,-43,-53,-58,-9,4
-87,-63,24,75,-56,-19,39,-43,-53,-58,-9,9
-87,-63,24,75,-56,-19,39,-43,-48,-53,-9,14
-87,-63,24,75,-56,-19,39,-39,-48,-39,-4,4
-87,-63,24,75,-56,-19,39,-39,-43,-39,-4,9
-87,-58,29,73,-58,-14,39,-39,-43,-39,0,9
-87,-58,29,73,-58,-14,43,-39,-43,-39,0,9
-87,-58,29,73,-58,-14,34,-43,-34,-39,0,19
-87,-58,29,73,-58,-14,34,-43,-29,-34,0,19
-87,-58,29,73,-58,-14,34,-43,-29,-34,0,19
-87,-63,24,75,-56,-19,34,-43,-29,-34,0,24
-97,-53,43,75,-70,-4,43,-43,-34,-34,9,24
-97,-48,48,73,-73,0,43,-43,-34,-34,9,19
-97,-48,48,73,-73,0,48,-43,-34,-34,9,19
-102,-48,53,75,-78,2,48,-43,-34,-34,9,19
-92,-29,63,61,-78,17,29,-73,-24,-9,29,39
-92,-24,68,58,-80,21,39,-53,-9,19,48,43
-92,-34,58,63,-75,12,73,9,39,39,68,48
-82,-48,34,65,-58,-7,122,102,87,82,92,48
-68,-48,19,58,-43,-14,165,175,146,136,126,68
-43,-39,4,41,-24,-17,219,268,234,234,190,107
-4,-29,-24,17,9,-26,244,356,346,380,292,161
53,4,-48,-29,51,-21,219,468,497,561,414,239
136,58,-78,-97,107,-9,200,614,683,790,580,331
209,122,-87,-165,148,17,170,732,907,1049,761,453
283,175,-107,-229,195,34,122,771,1058,1224,883,522
317,170,-146,-244,231,12,48,692,1044,1195,844,502
312,170,-141,-241,226,14,-53,468,849,985,683,424
283,185,-97,-234,190,43,-204,200,590,702,492,351
234,185,-48,-209,141,68,-302,4,414,453,312,273
146,68,-78,-107,112,-4,-307,-92,287,229,78,87
63,-131,-195,34,129,-163,-287,-156,156,-4,-195,-175
-14,-258,-244,136,114,-251,-356,-351,9,-190,-361,-322
-92,-292,-200,192,53,-246,-453,-639,-175,-331,-434,-361
-175,-312,-136,244,-19,-224,-502,-800,-366,-483,-507,-400
-219,-331,-112,275,-53,-222,-536,-863,-522,-605,-551,-414
-253,-336,-82,295,-85,-209,-595,-941,-644,-688,-566,-400
-253,-336,-82,295,-85,-209,-634,-1015,-732,-722,-570,-390
-244,-326,-82,285,-80,-204,-619,-980,-707,-673,-531,-370
-219,-292,-73,256,-73,-183,-580,-893,-619,-585,-448,-326
-204,-253,-48,229,-78,-151,-541,-824,-556,-512,-405,-278
-195,-209,-14,202,-90,-112,-512,-766,-522,-473,-361,-234
-170,-165,4,168,-87,-80,-458,-678,-478,-419,-297,-180
-131,-117,14,124,-73,-51,-395,-575,-429,-361,-244,-131
-126,-87,39,107,-82,-24,-336,-488,-380,-326,-204,-102
-117,-68,48,92,-82,-9,-263,-409,-322,-278,-161,-73
-117,-63,53,90,-85,-4,-185,-317,-258,-209,-112,-43
-112,-68,43,90,-78,-12,-136,-248,-200,-151,-82,-29
-112,-68,43,90,-78,-12,-82,-195,-165,-122,-63,-24
-117,-68,48,92,-82,-9,-43,-151,-131,-97,-48,-4
-112,-68,43,90,-78,-12,-14,-117,-97,-87,-29,14
-97,-58,39,78,-68,-9,0,-82,-82,-68,0,34
-92,-48,43,70,-68,-2,9,-63,-63,-43,19,43
-87,-34,53,61,-70,9,14,-43,-39,-34,34,48
-82,-34,48,58,-65,7,24,-34,-34,-24,34,48
-78,-34,43,56,-61,4,29,-29,-29,-14,29,39
-78,-34,43,56,-61,4,34,-19,-24,-14,34,39
-78,-34,43,56,-61,4,34,-19,-24,-19,34,48
-78,-34,43,56,-61,4,39,-14,-24,-19,29,48
-78,-34,43,56,-61,4,43,-14,-24,-19,29,48
-78,-34,43,56,-61,4,43,-9,-24,-19,34,58
-78,-19,58,48,-68,19,63,9,-14,-4,43,58
-78,-19,58,48,-68,19,63,14,-9,0,48,63
-73,-19,53,46,-63,17,63,19,-4,4,53,63
-73,-19,53,46,-63,17,63,29,4,14,53,63
-73,-24,48,48,-61,12,63,24,4,14,53,68
-68,-24,43,46,-56,9,63,24,0,14,53,73
-68,-24,43,46,-56,9,63,24,0,14,53,73
-68,-24,43,46,-56,9,63,29,0,14,53,73
-68,-14,53,41,-61,19,73,34,4,14,58,73
-68,-14,53,41,-61,19,78,34,4,19,63,82
-68,-19,48,43,-58,14,78,34,4,24,63,82
-68,-19,48,43,-58,14,78,43,14,29,63,82
-78,-14,63,46,-70,24,82,43,14,29,68,82
-78,-9,68,43,-73,29,82,43,14,29,68,82
-78,-9,68,43,-73,29,82,43,19,29,73,82
-73,-9,63,41,-68,26,82,48,19,29,73,82
-73,-9,63,41,-68,26,82,48,29,43,82,87
-73,-9,63,41,-68,26,87,53,29,48,87,87
-73,-9,63,41,-68,26,87,58,34,48,87,92
-73,-9,63,41,-68,26,87,58,34,48,87,97
-68,0,68,34,-68,34,82,63,29,48,87,87
-68,0,68,34,-68,34,82,68,29,53,87,92
-68,0,68,34,-68,34,82,73,34,53,92,92
-68,0,68,34,-68,34,82,73,34,53,92,97
-68,0,68,34,-68,34,82,73,43,63,92,107
-68,4,73,31,-70,39,82,78,48,68,97,107
-68,4,73,31,-70,39,82,78,53,68,97,107
-68,4,73,31,-70,39,87,82,53,73,107,112
-53,0,53,26,-53,26,87,87,68,73,117,112
-53,4,58,24,-56,31,82,87,68,73,117,117
-53,4,58,24,-56,31,82,92,68,73,117,117
-48,0,48,24,-48,24,82,97,68,78,117,122
-58,9,68,24,-63,39,82,97,73,82,117,122
-58,14,73,21,-65,43,82,97,73,87,122,122
-53,14,68,19,-61,41,82,107,78,87,122,126
-48,14,63,17,-56,39,82,112,82,87,126,126
-48,19,68,14,-58,43,87,117,78,97,117,131
-48,24,73,12,-61,48,87,122,78,97,126,131
-43,24,68,9,-56,46,87,122,78,97,131,136
-43,29,73,7,-58,51,82,126,87,102,136,141
-43,29,73,7,-58,51,82,131,92,107,131,146
-34,34,68,0,-51,51,82,136,97,112,136,151
-34,34,68,0,-51,51,82,141,97,112,141,151
-34,39,73,-2,-53,56,82,146,97,117,146,151
-34,39,73,-2,-53,56,87,151,107,122,156,151
-29,39,68,-4,-48,53,87,156,112,122,156,151
-24,39,63,-7,-43,51,87,161,117,126,161,151
-24,43,68,-9,-46,56,87,165,117,131,165,161
-24,43,68,-9,-46,56,87,180,126,146,175,165
-19,48,68,-14,-43,58,87,185,131,151,175,170
-19,53,73,-17,-46,63,82,195,136,156,180,175
-9,58,68,-24,-39,63,82,200,141,165,185,180
-9,63,73,-26,-41,68,82,204,146,170,185,190
-9,68,78,-29,-43,73,82,214,151,175,185,190
-4,68,73,-31,-39,70,82,219,156,175,195,195
0,68,68,-34,-34,68,82,224,161,180,200,195
14,78,63,-46,-24,70,82,234,161,185,204,190
19,78,58,-48,-19,68,82,244,165,190,209,200
24,82,58,-53,-17,70,82,253,175,195,214,204
24,82,58,-53,-17,70,82,263,180,200,219,204
29,78,48,-53,-9,63,78,273,185,200,219,209
34,82,48,-58,-7,65,78,283,190,209,224,214
39,87,48,-63,-4,68,73,287,190,224,229,214
39,92,53,-65,-7,73,73,297,195,229,239,219
43,102,58,-73,-7,80,73,302,200,244,244,224
48,102,53,-75,-2,78,73,307,204,244,244,229
53,107,53,-80,0,80,73,317,209,244,244,234
58,107,48,-82,4,78,73,322,219,248,248,239
58,112,53,-85,2,82,73,326,219,248,258,244
58,122,63,-90,-2,92,73,331,224,258,263,248
58,126,68,-92,-4,97,73,336,229,268,268,253
68,126,58,-97,4,92,73,341,229,273,273,258
63,117,53,-90,4,85,82,341,239,273,268,263
63,117,53,-90,4,85,78,346,244,278,273,268
68,117,48,-92,9,82,78,351,248,283,278,268
73,122,48,-97,12,85,78,351,248,287,283,273
73,131,58,-102,7,95,78,351,244,287,292,278
73,131,58,-102,7,95,78,361,244,287,292,278
73,131,58,-102,7,95,78,361,248,292,292,278
73,131,58,-102,7,95,78,361,248,292,292,283
82,136,53,-109,14,95,78,361,248,287,297,278
87,136,48,-112,19,92,78,361,248,287,297,278
87,136,48,-112,19,92,78,361,244,287,297,278
87,136,48,-112,19,92,73,361,244,287,302,278
87,131,43,-109,21,87,63,351,244,287,297,278
87,131,43,-109,21,87,63,351,244,292,297,278
87,131,43,-109,21,87,63,351,244,292,297,283
92,126,34,-109,29,80,63,351,244,292,297,283
82,122,39,-102,21,80,63,341,244,287,297,278
82,122,39,-102,21,80,58,336,244,287,297,278
82,126,43,-104,19,85,58,331,244,287,297,278
78,126,48,-102,14,87,58,326,244,287,297,278
78,126,48,-102,14,87,58,302,229,278,287,268
78,126,48,-102,14,87,58,302,229,278,287,268
68,122,53,-95,7,87,58,287,224,273,283,268
63,117,53,-90,4,85,53,283,219,268,278,268
63,117,53,-90,4,85,53,268,224,258,273,258
58,117,58,-87,0,87,53,253,219,248,268,248
53,117,63,-85,-4,90,53,234,214,239,258,244
48,117,68,-82,-9,92,53,214,209,234,258,239
34,112,78,-73,-21,95,63,209,195,229,253,234
29,102,73,-65,-21,87,63,200,190,224,248,229
24,92,68,-58,-21,80,63,185,185,214,244,229
19,82,63,-51,-21,73,63,170,175,204,244,224
4,87,82,-46,-39,85,53,146,161,195,234,219
0,82,82,-41,-41,82,53,136,151,185,224,214
-9,82,92,-36,-51,87,53,131,141,180,219,209
-14,73,87,-29,-51,80,53,122,136,175,209,200
-9,68,78,-29,-43,73,53,102,136,165,195,180
-19,63,82,-21,-51,73,53,82,131,156,190,180
-19,58,78,-19,-48,68,53,73,126,146,185,180
-29,53,82,-12,-56,68,53,58,122,136,180,175
-39,48,87,-4,-63,68,53,58,107,126,165,180
-39,39,78,0,-58,58,53,43,97,122,161,170
-48,39,87,4,-68,63,53,39,92,117,156,161
-53,34,87,9,-70,61,58,34,92,112,151,156
-48,29,78,9,-63,53,48,34,87,102,146,151
-53,24,78,14,-65,51,48,19,73,92,141,146
-58,19,78,19,-68,48,48,19,73,92,136,141
-63,14,78,24,-70,46,48,14,63,87,136,141
-68,9,78,29,-73,43,58,9,43,78,122,122
-73,4,78,34,-75,41,58,4,43,73,117,117
-73,0,73,36,-73,36,58,0,39,68,117,112
-78,0,78,39,-78,39,58,-4,34,63,112,107
-78,-4,73,41,-75,34,48,-9,39,53,107,107
-78,-4,73,41,-75,34,48,-9,34,48,102,102
-78,-9,68,43,-73,29,48,-9,34,43,97,102
-78,-14,63,46,-70,24,53,-14,29,34,92,107
-82,-14,68,48,-75,26,53,-24,29,43,97,107
-82,-14,68,48,-75,26,53,-29,24,43,92,107
-82,-19,63,51,-73,21,53,-29,24,39,92,107
-87,-19,68,53,-78,24,53,-29,24,39,92,107
-87,-19,68,53,-78,24,53,-29,24,39,102,97
-92,-24,68,58,-80,21,53,-34,19,39,102,97
-92,-24,68,58,-80,21,53,-34,19,39,97,97
-92,-19,73,56,-82,26,53,-34,14,34,92,97
-92,-19,73,56,-82,26,53,-24,14,24,92,107
-92,-19,73,56,-82,26,53,-24,14,24,92,107
-92,-19,73,56,-82,26,48,-24,14,24,92,102
-92,-19,73,56,-82,26,48,-29,14,24,92,102
-78,-19,58,48,-68,19,48,-29,14,24,82,92
-78,-19,58,48,-68,19,48,-29,14,19,82,92
-82,-19,63,51,-73,21,48,-29,9,19,82,92
-82,-19,63,51,-73,21,48,-29,9,24,82,92
-78,-19,58,48,-68,19,48,-39,9,19,82,87
-78,-19,58,48,-68,19,48,-39,9,19,82,87
-78,-19,58,48,-68,19,48,-39,9,19,82,87
-78,-19,58,48,-68,19,48,-39,9,14,87,87
-68,-9,58,39,-63,24,43,-39,9,19,87,87
-68,-9,58,39,-63,24,43,-39,9,19,87,87
-68,-9,58,39,-63,24,43,-39,14,24,87,87
-68,-9,58,39,-63,24,43,-39,14,24,92,87
-68,-9,58,39,-63,24,48,-39,14,24,92,92
-68,-9,58,39,-63,24,48,-39,14,29,92,97
-68,-4,63,36,-65,29,43,-39,14,34,92,97
-63,-4,58,34,-61,26,43,-39,14,39,92,102
-63,-14,48,39,-56,17,48,-29,14,29,102,112
-63,-9,53,36,-58,21,48,-29,14,29,102,112
-63,-9,53,36,-58,21,48,-29,14,34,102,112
-63,-9,53,36,-58,21,48,-29,19,34,102,112
-68,-9,58,39,-63,24,48,-29,19,34,97,112
-68,-9,58,39,-63,24,48,-29,19,39,97,112
-68,-4,63,36,-65,29,48,-29,19,43,102,112
-68,-4,63,36,-65,29,48,-29,19,43,102,117
-68,-9,58,39,-63,24,48,-29,19,48,92,122
-68,-9,58,39,-63,24,48,-24,19,48,97,122
-68,-9,58,39,-63,24,48,-24,19,43,102,122
-63,-4,58,34,-61,26,48,-24,19,43,102,122
-63,-14,48,39,-56,17,48,-24,29,53,102,107
-63,-14,48,39,-56,17,48,-24,29,53,102,107
-63,-9,53,36,-58,21,48,-24,29,53,102,112
-63,-9,53,36,-58,21,53,-24,29,53,102,112
-63,-9,53,36,-58,21,53,-14,19,43,97,112
-63,-4,58,34,-61,26,48,-24,29,43,102,112
-63,-4,58,34,-61,26,48,-24,29,39,102,112
-68,-9,58,39,-63,24,48,-29,19,39,97,107
-68,0,68,34,-68,34,39,-29,19,48,107,117
-68,0,68,34,-68,34,39,-29,19,48,107,117
-68,0,68,34,-68,34,39,-29,19,48,107,117
-68,0,68,34,-68,34,39,-29,19,48,107,117
-68,0,68,34,-68,34,39,-19,19,48,117,126
-68,4,73,31,-70,39,43,-19,24,53,117,126
-68,9,78,29,-73,43,43,-19,24,58,117,131
-68,14,82,26,-75,48,43,-19,34,68,117,131
-68,19,87,24,-78,53,58,-19,34,63,126,131
-63,19,82,21,-73,51,58,-19,34,68,131,131
-58,24,82,17,-70,53,58,-19,34,68,131,131
-58,34,92,12,-75,63,58,-19,34,68,131,131
-58,39,97,9,-78,68,58,-9,39,63,131,141
-53,43,97,4,-75,70,58,-4,48,63,136,146
-48,53,102,-2,-75,78,63,-4,53,68,136,151
-43,58,102,-7,-73,80,63,-4,53,68,131,151
-43,53,97,-4,-70,75,63,-14,53,78,126,141
-43,58,102,-7,-73,80,63,-9,53,78,126,141
-43,63,107,-9,-75,85,63,-9,53,82,126,146
-43,63,107,-9,-75,85,63,-14,58,82,131,146
-24,68,92,-21,-58,80,63,-14,58,82,131,146
-24,73,97,-24,-61,85,58,-14,58,78,131,146
-24,78,102,-26,-63,90,58,-19,58,78,131,146
-24,92,117,-34,-70,104,58,-19,58,82,131,146
-19,97,117,-39,-68,107,53,-19,68,92,146,146
-9,107,117,-48,-63,112,53,-14,73,97,151,156
-9,117,126,-53,-68,122,53,-14,78,102,156,165
-4,126,131,-61,-68,129,48,-14,82,107,161,165
-9,131,141,-61,-75,136,34,-24,73,107,161,165
-4,126,131,-61,-68,129,29,-29,73,107,161,165
-4,112,117,-53,-61,114,14,-34,63,107,161,165
-4,102,107,-48,-56,104,4,-34,58,97,156,161
-4,87,92,-41,-48,90,4,-39,43,92,146,156
0,78,78,-39,-39,78,-4,-43,34,82,136,151
0,78,78,-39,-39,78,-14,-58,24,68,131,151
0,68,68,-34,-34,68,-14,-58,14,68,126,146
0,58,58,-29,-29,58,-9,-58,14,58,112,151
0,53,53,-26,-26,53,-9,-58,9,48,107,146
0,48,48,-24,-24,48,-9,-58,4,48,107,141
0,48,48,-24,-24,48,-9,-53,4,48,107,141
-14,34,48,-9,-31,41,0,-53,4,39,97,136
-14,24,39,-4,-26,31,9,-53,-9,29,87,126
-29,9,39,9,-34,24,9,-43,-9,29,87,122
-29,4,34,12,-31,19,19,-43,-4,29,87,112
-34,14,48,9,-41,31,14,-53,-4,39,97,107
-48,4,53,21,-51,29,19,-53,-4,29,97,102
-58,-9,48,34,-53,19,24,-53,-14,29,87,97
-68,-19,48,43,-58,14,29,-48,-19,24,78,92
-73,-34,39,53,-56,2,29,-48,-24,4,73,87
-82,-43,39,63,-61,-2,29,-58,-29,0,68,78
-82,-43,39,63,-61,-2,29,-58,-34,-9,53,68
-87,-48,39,68,-63,-4,29,-63,-43,-19,43,68
-92,-53,39,73,-65,-7,29,-63,-48,-24,34,68
-92,-58,34,75,-63,-12,29,-63,-53,-24,34,63
-92,-58,34,75,-63,-12,29,-68,-53,-29,34,63
-92,-58,34,75,-63,-12,24,-68,-53,-29,34,63
-92,-58,34,75,-63,-12,24,-68,-53,-19,34,53
-97,-58,39,78,-68,-9,29,-68,-53,-19,29,53
-97,-63,34,80,-65,-14,29,-68,-53,-19,29,53
-97,-63,34,80,-65,-14,29,-68,-53,-19,29,53
-107,-63,43,85,-75,-9,29,-68,-53,-29,29,43
-107,-63,43,85,-75,-9,29,-68,-53,-34,29,43
-107,-63,43,85,-75,-9,29,-63,-53,-34,29,39
-107,-63,43,85,-75,-9,29,-63,-53,-34,29,39
-107,-63,43,85,-75,-9,39,-53,-43,-19,29,39
-107,-63,43,85,-75,-9,39,-53,-43,-19,29,43
-107,-63,43,85,-75,-9,39,-53,-43,-19,29,43
-107,-63,43,85,-75,-9,39,-53,-39,-14,29,43
-107,-53,53,80,-80,0,39,-48,-39,0,43,48
-107,-53,53,80,-80,0,39,-48,-34,0,43,58
-107,-48,58,78,-82,4,39,-48,-34,0,48,63
-107,-48,58,78,-82,4,43,-48,-34,0,48,68
-107,-58,48,82,-78,-4,43,-43,-24,-9,48,68
-107,-58,48,82,-78,-4,43,-43,-19,-4,48,68
-107,-58,48,82,-78,-4,43,-43,-19,-4,48,68
-107,-63,43,85,-75,-9,43,-43,-19,-4,48,73
-117,-63,53,90,-85,-4,43,-43,-24,-4,48,63
-117,-58,58,87,-87,0,43,-43,-24,-4,48,58
-117,-58,58,87,-87,0,48,-43,-24,-4,48,58
-122,-58,63,90,-92,2,48,-43,-24,-4,48,58
-112,-29,82,70,-97,26,39,-63,-14,9,78,87
-112,-34,78,73,-95,21,48,-53,9,48,97,102
-112,-43,68,78,-90,12,73,0,58,78,107,97
-102,-48,53,75,-78,2,122,92,97,112,112,87
-87,-48,39,68,-63,-4,185,175,146,165,146,97
-73,-39,34,56,-53,-2,229,268,214,234,209,126
-53,-39,14,46,-34,-12,253,366,317,361,292,170
24,-4,-29,-9,26,-17,248,497,458,522,405,229
107,39,-68,-73,87,-14,219,653,634,741,561,331
190,102,-87,-146,139,7,190,780,839,980,732,444
273,136,-136,-204,204,0,141,819,980,1156,834,512
326,141,-185,-234,256,-21,78,732,966,1137,795,492
331,141,-190,-236,261,-24,-34,517,780,936,644,414
292,146,-146,-219,219,0,-165,248,541,653,453,341
234,156,-78,-195,156,39,-263,34,356,424,302,263
146,48,-97,-97,122,-24,-297,-82,239,200,87,78
53,-151,-204,48,129,-178,-297,-136,126,-34,-185,-175
-24,-287,-263,156,119,-275,-356,-331,-29,-229,-370,-331
-92,-312,-219,202,63,-265,-463,-629,-204,-361,-434,-361
-175,-331,-156,253,-9,-244,-522,-819,-375,-483,-488,-390
-239,-351,-112,295,-63,-231,-536,-893,-502,-585,-531,-395
-283,-356,-73,319,-104,-214,-585,-990,-634,-668,-556,-400
-292,-366,-73,329,-109,-219,-624,-1054,-741,-722,-561,-400
-292,-346,-53,319,-119,-200,-600,-1010,-717,-673,-522,-361
-268,-302,-34,285,-117,-168,-561,-912,-619,-575,-448,-317
-253,-263,-9,258,-122,-136,-541,-844,-566,-522,-405,-278
-234,-229,4,231,-119,-112,-502,-785,-541,-483,-361,-244
-200,-195,4,197,-102,-95,-468,-697,-488,-419,-297,-190
-170,-156,14,163,-92,-70,-395,-585,-439,-370,-253,-141
-165,-136,29,151,-97,-53,-307,-497,-400,-326,-214,-102
-146,-107,39,126,-92,-34,-234,-409,-341,-278,-170,-73
-136,-92,43,114,-90,-24,-175,-326,-268,-219,-112,-53
-141,-87,53,114,-97,-17,-117,-248,-200,-170,-82,-39
-141,-87,53,114,-97,-17,-73,-195,-165,-131,-63,-34
-126,-87,39,107,-82,-24,-43,-151,-131,-107,-48,-24
-122,-78,43,100,-82,-17,-14,-126,-97,-78,-39,-14
-126,-68,58,97,-92,-4,9,-92,-82,-68,-19,4
-122,-68,53,95,-87,-7,39,-63,-73,-63,-9,24
-117,-73,43,95,-80,-14,43,-34,-68,-43,4,39
-122,-73,48,97,-85,-12,53,-24,-43,-24,24,48
-117,-73,43,95,-80,-14,48,-19,-29,-14,29,48
-107,-73,34,90,-70,-19,53,-19,-24,-14,34,39
-107,-73,34,90,-70,-19,53,-19,-24,-14,34,39
-107,-73,34,90,-70,-19,58,-14,-24,-9,29,39
-107,-73,34,90,-70,-19,63,-14,-24,-4,29,39
-107,-73,34,90,-70,-19,63,-9,-24,0,34,48
-97,-58,39,78,-68,-9,73,9,-14,-4,34,48
-97,-58,39,78,-68,-9,73,14,-9,0,39,53
-92,-58,34,75,-63,-12,73,19,-4,4,43,53
-92,-58,34,75,-63,-12,73,29,4,14,43,53
-92,-63,29,78,-61,-17,73,24,-4,9,34,53
-87,-63,24,75,-56,-19,73,24,-9,4,34,53
-87,-63,24,75,-56,-19,73,24,-9,0,34,48
-87,-63,24,75,-56,-19,73,29,-9,-4,34,43
-78,-53,24,65,-51,-14,73,34,-4,-4,34,39
-78,-53,24,65,-51,-14,78,34,-4,0,34,43
-78,-58,19,68,-48,-19,78,34,-4,4,29,39
-78,-58,19,68,-48,-19,78,43,4,9,24,34
-78,-53,24,65,-51,-14,82,53,4,9,39,34
-78,-48,29,63,-53,-9,82,53,4,9,39,34
-78,-48,29,63,-53,-9,82,53,9,9,43,34
-73,-48,24,61,-48,-12,82,58,9,9,43,34
-73,-58,14,65,-43,-21,92,58,9,24,43,34
-73,-58,14,65,-43,-21,97,63,9,29,48,39
-73,-58,14,65,-43,-21,97,68,14,29,48,48
-73,-58,14,65,-43,-21,97,68,14,29,48,58
-68,-48,19,58,-43,-14,92,73,19,19,58,48
-68,-48,19,58,-43,-14,92,78,19,24,58,53
-68,-48,19,58,-43,-14,92,82,24,24,63,53
-68,-48,19,58,-43,-14,92,82,24,24,63,58
-68,-48,19,58,-43,-14,92,82,14,24,58,48
-68,-43,24,56,-46,-9,92,87,19,29,58,48
-68,-43,24,56,-46,-9,92,87,24,29,53,48
-68,-43,24,56,-46,-9,97,92,24,34,58,53
-63,-48,14,56,-39,-17,107,107,29,34,58,53
-63,-43,19,53,-41,-12,102,107,29,34,58,58
-63,-43,19,53,-41,-12,102,112,29,34,58,58
-58,-48,9,53,-34,-19,102,117,29,39,58,63
-58,-39,19,48,-39,-9,92,117,34,43,48,53
-58,-34,24,46,-41,-4,92,117,34,48,53,53
-53,-34,19,43,-36,-7,92,126,39,48,53,58
-48,-34,14,41,-31,-9,92,131,43,48,58,58
-48,-39,9,43,-29,-14,87,126,39,53,48,58
-48,-34,14,41,-31,-9,87,131,39,48,58,53
-43,-34,9,39,-26,-12,87,131,39,43,63,53
-43,-29,14,36,-29,-7,82,136,48,43,68,53
-43,-29,14,36,-29,-7,92,141,63,53,63,58
-34,-24,9,29,-21,-7,92,146,68,63,68,63
-34,-24,9,29,-21,-7,92,151,68,68,73,63
-34,-19,14,26,-24,-2,92,156,68,78,78,63
-34,-9,24,21,-29,7,87,170,87,92,87,73
-29,-9,19,19,-24,4,87,175,92,92,87,73
-24,-9,14,17,-19,2,87,180,97,97,92,73
-24,-4,19,14,-21,7,87,185,97,102,97,82
-24,-4,19,14,-21,7,87,200,102,97,97,87
-19,0,19,9,-19,9,87,204,102,102,97,92
-19,4,24,7,-21,14,82,214,102,107,102,97
-9,9,19,0,-14,14,82,219,102,117,107,102
0,4,4,-2,-2,4,82,214,117,122,117,92
0,9,9,-4,-4,9,82,224,122,126,117,92
4,9,4,-7,0,7,82,229,126,126,126,97
9,9,0,-9,4,4,82,234,131,131,131,97
4,9,4,-7,0,7,92,253,122,126,131,102
9,9,0,-9,4,4,92,263,126,131,131,112
14,14,0,-14,7,7,92,273,136,136,131,117
14,14,0,-14,7,7,92,283,141,141,131,117
19,19,0,-19,9,9,87,283,156,161,141,122
24,24,0,-24,12,12,87,292,161,170,146,126
29,29,0,-29,14,14,82,297,161,185,151,126
29,34,4,-31,12,19,82,307,165,190,161,131
43,34,-9,-39,26,12,82,322,170,185,156,126
48,34,-14,-41,31,9,82,326,175,185,156,131
53,39,-14,-46,34,12,82,336,180,185,156,136
58,39,-19,-48,39,9,82,341,190,190,161,141
58,43,-14,-51,36,14,82,336,190,200,170,136
58,53,-4,-56,31,24,82,341,195,209,175,141
58,58,0,-58,29,29,82,346,200,219,180,146
68,58,-9,-63,39,24,82,351,200,224,185,151
63,63,0,-63,31,31,73,351,204,234,200,165
63,68,4,-65,29,36,68,356,214,239,204,170
68,73,4,-70,31,39,68,361,224,244,209,170
73,82,9,-78,31,46,68,361,229,248,214,175
82,78,-4,-80,43,36,78,361,224,239,204,180
82,73,-9,-78,46,31,78,370,224,239,204,180
82,68,-14,-75,48,26,78,370,229,244,204,180
82,63,-19,-73,51,21,78,370,229,244,204,185
82,68,-14,-75,48,26,78,361,229,248,209,185
87,68,-19,-78,53,24,78,361,229,248,209,180
87,68,-19,-78,53,24,78,361,224,248,209,175
87,68,-19,-78,53,24,73,361,224,248,214,170
87,82,-4,-85,46,39,63,351,234,248,214,170
87,82,-4,-85,46,39,63,351,234,253,209,170
87,82,-4,-85,46,39,63,351,234,253,204,175
92,78,-14,-85,53,31,63,351,234,253,200,175
92,82,-9,-87,51,36,63,341,234,239,200,170
92,82,-9,-87,51,36,58,336,234,239,200,170
92,87,-4,-90,48,41,58,331,234,239,200,170
87,87,0,-87,43,43,58,326,234,239,200,170
78,82,4,-80,36,43,68,302,229,239,200,161
78,78,0,-78,39,39,68,302,229,239,200,161
68,68,0,-68,34,34,68,287,224,234,195,161
63,58,-4,-61,34,26,63,283,219,229,190,161
63,58,-4,-61,34,26,63,263,204,224,180,151
58,58,0,-58,29,29,63,253,200,209,170,141
53,58,4,-56,24,31,63,239,195,195,156,136
48,58,9,-53,19,34,63,224,190,185,151,131
39,58,19,-48,9,39,73,209,185,180,136,112
29,53,24,-41,2,39,73,200,180,175,131,102
19,48,29,-34,-4,39,73,185,175,165,126,97
9,43,34,-26,-12,39,73,170,165,156,126,87
4,29,24,-17,-9,26,82,156,156,136,117,87
0,24,24,-12,-12,24,82,146,141,126,107,87
-9,24,34,-7,-21,29,82,141,126,122,102,87
-14,14,29,0,-21,21,82,131,117,117,92,82
-29,19,48,4,-39,34,73,122,112,107,78,68
-39,14,53,12,-46,34,73,102,112,97,73,63
-39,9,48,14,-43,29,73,92,112,87,68,58
-48,4,53,21,-51,29,73,78,112,78,63,48
-48,0,48,24,-48,24,73,78,87,68,48,43
-48,-9,39,29,-43,14,73,63,78,63,43,34
-58,-9,48,34,-53,19,73,58,73,58,39,24
-63,-14,48,39,-56,17,78,53,73,53,34,19
-58,-9,48,34,-53,19,78,43,68,43,19,14
-63,-14,48,39,-56,17,78,29,53,34,14,9
-68,-19,48,43,-58,14,78,29,53,34,9,4
-73,-24,48,48,-61,12,78,24,43,29,9,4
-78,-29,48,53,-63,9,68,19,29,9,-9,-14
-82,-34,48,58,-65,7,68,14,24,-4,-19,-19
-82,-39,43,61,-63,2,68,9,14,-19,-24,-24
-87,-39,48,63,-68,4,68,4,4,-34,-34,-29
-87,-43,43,65,-65,0,78,0,9,-29,-39,-34
-87,-43,43,65,-65,0,78,0,4,-29,-43,-43
-87,-48,39,68,-63,-4,78,0,4,-29,-48,-48
-87,-53,34,70,-61,-9,82,-4,0,-34,-53,-48
-92,-53,39,73,-65,-7,73,-4,-9,-43,-48,-48
-92,-53,39,73,-65,-7,73,-9,-14,-43,-53,-48
-92,-58,34,75,-63,-12,73,-9,-14,-48,-53,-48
-97,-58,39,78,-68,-9,73,-9,-14,-48,-53,-48
-87,-58,29,73,-58,-14,73,0,-14,-39,-48,-39
-92,-63,29,78,-61,-17,73,-4,-19,-39,-43,-39
-92,-63,29,78,-61,-17,73,-4,-19,-39,-43,-39
-92,-58,34,75,-63,-12,73,-4,-24,-43,-43,-39
-92,-58,34,75,-63,-12,73,-4,-14,-43,-53,-48
-92,-58,34,75,-63,-12,73,-4,-14,-43,-53,-48
-92,-58,34,75,-63,-12,68,-4,-14,-43,-53,-53
-92,-58,34,75,-63,-12,68,-9,-14,-43,-53,-53
-87,-58,29,73,-58,-14,78,-9,-14,-53,-58,-63
-87,-58,29,73,-58,-14,78,-9,-14,-58,-63,-63
-92,-58,34,75,-63,-12,78,-9,-19,-58,-68,-63
-92,-58,34,75,-63,-12,78,-9,-19,-53,-73,-63
-87,-53,34,70,-61,-9,68,-9,-9,-48,-63,-63
-87,-48,39,68,-63,-4,68,-9,-9,-48,-63,-68
-87,-43,43,65,-65,0,68,-9,-9,-48,-63,-73
-87,-39,48,63,-68,4,68,-9,-9,-53,-58,-78
-87,-48,39,68,-63,-4,63,-9,-14,-68,-68,-68
-87,-48,39,68,-63,-4,63,-9,-19,-68,-68,-68
-87,-48,39,68,-63,-4,63,-9,-19,-63,-68,-68
-87,-48,39,68,-63,-4,63,-9,-24,-63,-63,-68
-87,-39,48,63,-68,4,68,-9,-14,-58,-68,-68
-87,-39,48,63,-68,4,68,-9,-14,-58,-73,-68
-87,-34,53,61,-70,9,63,-9,-14,-58,-78,-73
-82,-34,48,58,-65,7,63,-9,-14,-58,-82,-73
-82,-34,48,58,-65,7,68,0,-14,-58,-73,-68
-82,-29,53,56,-68,12,68,0,-14,-58,-73,-63
-82,-29,53,56,-68,12,68,0,-14,-53,-73,-58
-82,-29,53,56,-68,12,68,0,-9,-53,-73,-53
-78,-39,39,58,-58,0,68,0,-19,-63,-68,-53
-78,-39,39,58,-58,0,68,0,-19,-58,-68,-53
-78,-34,43,56,-61,4,68,0,-19,-53,-63,-53
-78,-34,43,56,-61,4,68,0,-19,-53,-63,-48
-78,-29,48,53,-63,9,58,-9,-14,-39,-53,-53
-78,-29,48,53,-63,9,58,-4,-9,-39,-48,-53
-78,-29,48,53,-63,9,58,-4,-4,-43,-43,-53
-73,-24,48,48,-61,12,58,-4,0,-43,-43,-53
-73,-24,48,48,-61,12,58,-4,-14,-48,-58,-68
-73,-24,48,48,-61,12,58,-4,-19,-53,-63,-68
-73,-19,53,46,-63,17,58,-4,-24,-58,-68,-63
-73,-19,53,46,-63,17,63,-4,-29,-63,-73,-63
-73,-29,43,51,-58,7,73,-4,-19,-63,-78,-73
-73,-24,48,48,-61,12,68,-4,-19,-63,-82,-73
-73,-24,48,48,-61,12,68,-4,-19,-58,-82,-73
-73,-24,48,48,-61,12,63,-4,-19,-58,-82,-73
-73,-19,53,46,-63,17,73,-9,-9,-48,-68,-78
-68,-19,48,43,-58,14,68,0,-9,-58,-78,-78
-68,-19,48,43,-58,14,68,-9,-19,-58,-78,-78
-68,-19,48,43,-58,14,68,-9,-19,-58,-78,-78
-68,-19,48,43,-58,14,68,-9,-19,-58,-78,-78
-68,-19,48,43,-58,14,68,-9,-19,-58,-78,-78
-68,-19,48,43,-58,14,63,-19,-29,-63,-78,-78
-68,-14,53,41,-61,19,63,-19,-24,-63,-78,-78
-68,-9,58,39,-63,24,58,-19,-24,-63,-78,-73
-68,-4,63,36,-65,29,53,-19,-14,-58,-78,-73
-68,9,78,29,-73,43,68,-9,-4,-53,-68,-63
-63,9,73,26,-68,41,68,-9,-4,-48,-63,-63
-58,14,73,21,-65,43,68,-9,-4,-48,-63,-63
-58,24,82,17,-70,53,68,-9,-4,-48,-63,-63
-58,19,78,19,-68,48,68,0,-9,-53,-68,-63
-53,24,78,14,-65,51,68,4,0,-53,-58,-58
-48,34,82,7,-65,58,73,4,4,-48,-53,-53
-43,39,82,2,-63,61,73,4,4,-48,-53,-53
-34,43,78,-4,-56,61,63,-4,14,-43,-48,-48
-34,48,82,-7,-58,65,63,0,14,-39,-48,-43
-34,53,87,-9,-61,70,63,0,14,-29,-48,-34
-34,53,87,-9,-61,70,63,-4,19,-24,-43,-29
-34,53,87,-9,-61,70,63,-4,9,-34,-53,-43
-34,53,87,-9,-61,70,58,-4,9,-39,-53,-48
-34,53,87,-9,-61,70,58,-9,9,-39,-53,-53
-34,63,97,-14,-65,80,58,-9,9,-34,-53,-58
-19,68,87,-24,-53,78,63,-19,19,-29,-58,-58
-9,78,87,-34,-48,82,63,-14,24,-29,-53,-48
-9,87,97,-39,-53,92,63,-14,29,-29,-48,-39
-4,97,102,-46,-53,100,58,-14,34,-29,-43,-39
0,97,97,-48,-48,97,63,-14,34,-24,-34,-34
4,97,92,-51,-43,95,58,-19,34,-19,-34,-29
4,87,82,-46,-39,85,43,-24,24,-14,-34,-24
4,82,78,-43,-36,80,34,-24,19,-19,-39,-24
4,73,68,-39,-31,70,14,-29,14,-24,-29,-39
9,68,58,-39,-24,63,4,-34,4,-34,-39,-43
9,73,63,-41,-26,68,-4,-48,-4,-48,-43,-43
9,68,58,-39,-24,63,-4,-48,-14,-48,-48,-48
9,58,48,-34,-19,53,-9,-48,-24,-58,-73,-53
9,53,43,-31,-17,48,-9,-48,-29,-68,-78,-58
9,48,39,-29,-14,43,-9,-48,-34,-68,-78,-63
9,48,39,-29,-14,43,-9,-43,-34,-68,-78,-63
14,53,39,-34,-12,46,-9,-53,-24,-58,-78,-73
14,43,29,-29,-7,36,0,-53,-39,-68,-87,-78
0,29,29,-14,-14,29,0,-43,-39,-68,-87,-78
0,24,24,-12,-12,24,9,-43,-34,-68,-87,-82
4,14,9,-9,-2,12,14,-34,-34,-68,-97,-87
-9,4,14,2,-12,9,19,-34,-34,-78,-97,-92
-19,-9,9,14,-14,0,24,-34,-43,-78,-107,-97
-29,-19,9,24,-19,-4,29,-29,-48,-82,-117,-102
-34,-24,9,29,-21,-7,29,-29,-63,-92,-112,-97
-43,-34,9,39,-26,-12,29,-39,-68,-97,-117,-107
-43,-34,9,39,-26,-12,29,-39,-73,-107,-131,-117
-48,-39,9,43,-29,-14,29,-43,-82,-117,-141,-117
-63,-43,19,53,-41,-12,29,-43,-97,-131,-141,-136
-63,-48,14,56,-39,-17,29,-43,-102,-131,-141,-141
-63,-48,14,56,-39,-17,29,-48,-102,-136,-141,-141
-63,-48,14,56,-39,-17,24,-48,-102,-136,-141,-141
-63,-48,14,56,-39,-17,24,-48,-102,-136,-151,-141
-68,-48,19,58,-43,-14,29,-48,-102,-136,-156,-141
-68,-53,14,61,-41,-19,29,-48,-102,-136,-156,-141
-68,-53,14,61,-41,-19,29,-48,-102,-136,-156,-141
-58,-43,14,51,-36,-14,19,-58,-102,-136,-156,-151
-58,-43,14,51,-36,-14,19,-58,-102,-141,-156,-151
-58,-43,14,51,-36,-14,19,-53,-102,-141,-156,-156
-58,-43,14,51,-36,-14,19,-53,-102,-141,-156,-156
-58,-43,14,51,-36,-14,29,-43,-92,-136,-156,-146
-58,-43,14,51,-36,-14,29,-43,-92,-136,-156,-141
-58,-43,14,51,-36,-14,29,-43,-92,-136,-156,-141
-58,-43,14,51,-36,-14,29,-43,-87,-131,-156,-141
-58,-43,14,51,-36,-14,29,-39,-78,-117,-141,-141
-58,-43,14,51,-36,-14,29,-39,-73,-117,-141,-136
-58,-39,19,48,-39,-9,29,-39,-73,-117,-136,-136
-58,-39,19,48,-39,-9,34,-39,-73,-117,-136,-136
-58,-39,19,48,-39,-9,34,-34,-82,-126,-146,-136
-58,-39,19,48,-39,-9,34,-34,-78,-122,-146,-136
-58,-39,19,48,-39,-9,34,-34,-78,-122,-146,-136
-58,-43,14,51,-36,-14,34,-34,-78,-122,-146,-131
-58,-53,4,56,-31,-24,34,-34,-82,-122,-146,-141
-58,-48,9,53,-34,-19,34,-34,-82,-122,-146,-146
-58,-48,9,53,-34,-19,39,-34,-82,-122,-146,-146
-63,-48,14,56,-39,-17,39,-34,-82,-122,-146,-146
-63,-29,34,46,-48,2,29,-43,-63,-107,-126,-146
-63,-14,48,39,-56,17,29,-53,-68,-107,-117,-131
-63,-14,48,39,-56,17,34,-39,-48,-78,-87,-107
-63,-19,43,41,-53,12,63,14,-9,-43,-73,-97
-58,-29,29,43,-43,0,107,87,39,0,-58,-87
-34,-29,4,31,-19,-12,141,161,97,48,-14,-68
-4,-29,-24,17,9,-26,185,229,170,146,58,-34
24,-14,-39,-4,31,-26,219,331,273,278,151,14
78,0,-78,-39,78,-39,219,429,409,468,278,87
151,43,-107,-97,129,-31,180,536,595,688,458,190
234,107,-126,-170,180,-9,161,644,805,951,649,307
297,161,-136,-229,217,12,126,712,976,1156,775,395
331,170,-161,-251,246,4,73,673,995,1180,771,395
322,165,-156,-244,239,4,9,483,854,1005,639,331
292,195,-97,-244,195,48,-78,219,629,727,429,244
234,204,-29,-219,131,87,-170,4,453,473,224,136
161,92,-68,-126,114,12,-180,-68,341,248,-9,-58
73,-112,-185,19,129,-148,-151,-117,224,14,-302,-331
-14,-244,-229,129,107,-236,-190,-297,58,-195,-492,-507
-97,-253,-156,175,29,-204,-297,-575,-141,-366,-575,-546
-170,-263,-92,217,-39,-178,-380,-756,-326,-507,-639,-561
-224,-287,-63,256,-80,-175,-409,-824,-478,-629,-683,-585
-244,-287,-43,265,-100,-165,-458,-868,-614,-722,-707,-575
-244,-287,-43,265,-100,-165,-522,-941,-727,-790,-727,-566
-229,-283,-53,256,-87,-168,-561,-941,-746,-780,-702,-551
-224,-263,-39,244,-92,-151,-541,-883,-683,-697,-639,-512
-204,-219,-14,212,-95,-117,-512,-814,-619,-619,-575,-468
-190,-185,4,187,-97,-90,-478,-746,-585,-575,-522,-434
-151,-136,14,143,-82,-61,-444,-673,-536,-527,-468,-375
-117,-97,19,107,-68,-39,-405,-575,-478,-473,-409,-317
-97,-68,29,82,-63,-19,-341,-488,-439,-414,-366,-278
-87,-53,34,70,-61,-9,-273,-414,-385,-366,-317,-248
-92,-29,63,61,-78,17,-195,-326,-307,-297,-268,-214
-92,-29,63,61,-78,17,-131,-244,-253,-248,-229,-190
-87,-39,48,63,-68,4,-92,-190,-219,-214,-214,-180
-82,-39,43,61,-63,2,-53,-156,-185,-195,-204,-170
-78,-39,39,58,-58,0,-19,-122,-161,-185,-185,-161
-63,-39,24,51,-43,-7,-9,-102,-141,-170,-175,-141
-58,-34,24,46,-41,-4,4,-82,-117,-151,-151,-117
-53,-24,29,39,-41,2,14,-63,-92,-122,-131,-107
-48,-14,34,31,-41,9,29,-48,-78,-92,-117,-97
-48,-14,34,31,-41,9,24,-29,-73,-92,-112,-107
-48,-14,34,31,-41,9,34,-29,-82,-97,-112,-117
-48,-14,34,31,-41,9,39,-24,-82,-97,-117,-117
-48,-14,34,31,-41,9,43,-24,-82,-97,-117,-117
-48,-14,34,31,-41,9,43,-19,-82,-97,-112,-107
-48,-9,39,29,-43,14,53,0,-63,-102,-112,-97
-48,-9,39,29,-43,14,53,4,-58,-97,-107,-92
-43,-9,34,26,-39,12,53,9,-53,-92,-102,-92
-43,-9,34,26,-39,12,53,19,-43,-82,-102,-92
-43,-14,29,29,-36,7,63,24,-43,-73,-92,-87
-39,-14,24,26,-31,4,63,24,-48,-73,-92,-82
-39,-14,24,26,-31,4,63,24,-48,-73,-92,-82
-39,-14,24,26,-31,4,63,29,-48,-73,-92,-82
-48,-14,34,31,-41,9,63,24,-43,-73,-87,-82
-48,-14,34,31,-41,9,68,24,-43,-68,-82,-73
-48,-19,29,34,-39,4,68,24,-43,-63,-82,-73
-48,-19,29,34,-39,4,68,34,-34,-58,-82,-73
-48,-14,34,31,-41,9,73,43,-34,-58,-68,-73
-48,-9,39,29,-43,14,73,43,-34,-58,-68,-73
-48,-9,39,29,-43,14,73,43,-29,-58,-63,-73
-43,-9,34,26,-39,12,73,48,-29,-58,-63,-73
-43,-9,34,26,-39,12,73,48,-19,-53,-73,-68
-43,-9,34,26,-39,12,78,53,-19,-48,-68,-68
-43,-9,34,26,-39,12,78,58,-14,-48,-68,-63
-43,-9,34,26,-39,12,78,58,-14,-48,-68,-58
-39,0,39,19,-39,19,82,53,-9,-39,-58,-68
-39,0,39,19,-39,19,82,58,-9,-34,-58,-63
-39,0,39,19,-39,19,82,63,-4,-34,-53,-63
-39,0,39,19,-39,19,82,63,-4,-34,-53,-58
-39,0,39,19,-39,19,82,63,-4,-34,-53,-48
-39,4,43,17,-41,24,82,68,0,-29,-48,-48
-39,4,43,17,-41,24,82,68,4,-29,-48,-48
-39,4,43,17,-41,24,87,73,4,-24,-39,-43
-34,0,34,17,-34,17,87,78,9,-14,-39,-43
-34,4,39,14,-36,21,82,78,9,-14,-39,-39
-34,4,39,14,-36,21,82,82,9,-14,-39,-39
-29,0,29,14,-29,14,82,87,9,-9,-39,-34
-29,0,29,14,-29,14,92,87,14,-4,-29,-34
-29,4,34,12,-31,19,92,87,14,0,-24,-34
-24,4,29,9,-26,17,92,97,19,0,-24,-29
-19,4,24,7,-21,14,92,102,24,0,-19,-29
-19,9,29,4,-24,19,87,107,29,9,-29,-34
-19,14,34,2,-26,24,87,112,29,9,-19,-34
-14,14,29,0,-21,21,87,112,29,9,-14,-29
-14,19,34,-2,-24,26,82,117,39,14,-9,-24
-14,19,34,-2,-24,26,82,122,43,19,4,-9
-4,24,29,-9,-17,26,82,126,48,24,9,-4
-4,24,29,-9,-17,26,82,131,48,24,14,-4
-4,29,34,-12,-19,31,82,136,48,29,19,-4
-4,29,34,-12,-19,31,87,131,58,43,9,-4
0,29,29,-14,-14,29,87,136,63,43,9,-4
4,29,24,-17,-9,26,87,141,68,48,14,-4
4,34,29,-19,-12,31,87,146,68,53,19,4
4,34,29,-19,-12,31,87,151,68,48,24,9
9,39,29,-24,-9,34,87,156,73,53,29,14
9,43,34,-26,-12,39,82,165,78,58,39,19
19,48,29,-34,-4,39,82,170,82,68,48,24
19,43,24,-31,-2,34,82,175,87,82,48,34
19,48,29,-34,-4,39,82,185,92,87,48,34
24,48,24,-36,0,36,82,190,97,87,58,39
29,48,19,-39,4,34,82,195,102,92,63,39
34,58,24,-46,4,41,82,204,102,97,78,53
39,58,19,-48,9,39,82,214,107,102,82,63
43,63,19,-53,12,41,82,224,117,107,87,68
43,63,19,-53,12,41,82,234,122,112,92,68
48,68,19,-58,14,43,68,224,126,122,97,63
53,73,19,-63,17,46,68,234,131,131,97,68
58,78,19,-68,19,48,63,239,131,146,97,68
58,82,24,-70,17,53,63,248,136,151,102,73
53,82,29,-68,12,56,73,253,151,156,117,87
58,82,24,-70,17,53,73,258,156,156,117,92
63,87,24,-75,19,56,73,268,161,156,117,97
68,87,19,-78,24,53,73,273,170,161,122,102
78,82,4,-80,36,43,63,287,170,170,131,107
78,92,14,-85,31,53,63,292,175,180,136,112
78,97,19,-87,29,58,63,297,180,190,141,117
87,97,9,-92,39,53,63,302,180,195,146,122
82,107,24,-95,29,65,73,292,180,195,151,126
82,107,24,-95,29,65,68,297,185,200,156,131
87,107,19,-97,34,63,68,302,190,204,161,131
92,112,19,-102,36,65,68,302,190,209,165,136
92,102,9,-97,41,56,68,302,204,219,165,141
92,102,9,-97,41,56,68,312,204,219,165,141
92,102,9,-97,41,56,68,312,209,224,165,141
92,102,9,-97,41,56,68,312,209,224,165,146
92,117,24,-104,34,70,68,322,200,209,170,141
97,117,19,-107,39,68,68,322,200,209,170,141
97,117,19,-107,39,68,68,322,195,209,170,141
97,117,19,-107,39,68,63,322,195,209,175,141
97,112,14,-104,41,63,63,312,195,209,170,151
97,112,14,-104,41,63,63,312,195,214,170,151
97,112,14,-104,41,63,63,312,195,214,170,156
102,107,4,-104,48,56,63,312,195,214,170,156
92,102,9,-97,41,56,63,302,195,219,170,151
92,102,9,-97,41,56,58,297,195,219,170,151
92,107,14,-100,39,61,58,292,195,219,170,151
87,107,19,-97,34,63,58,287,195,219,170,151
97,107,9,-102,43,58,58,283,190,209,170,151
97,107,9,-102,43,58,58,283,190,209,170,151
87,102,14,-95,36,58,58,268,185,204,165,151
82,97,14,-90,34,56,53,263,180,200,161,151
82,87,4,-85,39,46,63,244,185,200,156,141
78,87,9,-82,34,48,63,234,180,190,151,131
73,87,14,-80,29,51,63,219,175,180,141,126
68,87,19,-78,24,53,63,204,170,175,141,122
53,87,34,-70,9,61,63,200,165,170,146,117
48,82,34,-65,7,58,63,190,161,165,141,112
43,78,34,-61,4,56,63,175,156,156,136,112
39,73,34,-56,2,53,63,161,146,146,136,107
34,68,34,-51,0,51,53,146,141,136,117,102
29,63,34,-46,-2,48,53,136,131,126,107,97
19,63,43,-41,-12,53,53,131,122,122,102,92
14,53,39,-34,-12,46,53,122,117,117,92,82
0,48,48,-24,-24,48,63,112,117,107,97,73
-9,43,53,-17,-31,48,63,92,112,97,92,73
-9,39,48,-14,-29,43,63,82,107,87,87,73
-19,34,53,-7,-36,43,63,68,102,78,82,68
-29,19,48,4,-39,34,63,68,87,68,58,63
-29,9,39,9,-34,24,63,53,78,63,53,53
-39,9,48,14,-43,29,63,48,73,58,48,43
-43,4,48,19,-46,26,68,43,73,53,43,39
-58,9,68,24,-63,39,68,43,58,34,29,34
-63,4,68,29,-65,36,68,29,43,24,24,29
-68,0,68,34,-68,34,68,29,43,24,19,24
-73,-4,68,39,-70,31,68,24,34,19,19,24
-78,-19,58,48,-68,19,68,19,34,9,14,24
-82,-24,58,53,-70,17,68,14,34,4,9,19
-82,-29,53,56,-68,12,68,9,29,0,9,14
-87,-29,58,58,-73,14,68,4,24,-4,4,9
-87,-24,63,56,-75,19,68,0,9,-14,0,4
-87,-24,63,56,-75,19,68,0,4,-19,-4,-4
-87,-29,58,58,-73,14,68,0,4,-24,-9,-9
-87,-34,53,61,-70,9,73,-4,0,-34,-14,-9
-92,-43,48,68,-70,2,73,-4,9,-24,-9,-9
-92,-43,48,68,-70,2,73,-9,4,-24,-14,-9
-92,-48,43,70,-68,-2,73,-9,4,-29,-14,-9
-97,-48,48,73,-73,0,73,-9,4,-29,-14,-9
-97,-48,48,73,-73,0,73,-9,4,-29,-14,-9
-102,-53,48,78,-75,-2,73,-14,0,-29,-14,-9
-102,-53,48,78,-75,-2,73,-14,0,-29,-19,-9
-102,-48,53,75,-78,2,73,-14,-4,-34,-24,-9
-112,-48,63,80,-87,7,73,-14,-4,-34,-14,-9
-112,-48,63,80,-87,7,73,-14,-4,-34,-14,-9
-112,-48,63,80,-87,7,68,-14,-4,-34,-14,-14
-112,-48,63,80,-87,7,68,-19,-4,-34,-14,-14
-97,-48,48,73,-73,0,68,-19,-4,-24,-14,-4
-97,-48,48,73,-73,0,68,-19,-4,-29,-14,-4
-102,-48,53,75,-78,2,68,-19,-9,-29,-14,-4
-102,-48,53,75,-78,2,68,-19,-9,-24,-14,-4
-107,-48,58,78,-82,4,78,-19,0,-29,-14,-9
-107,-48,58,78,-82,4,78,-19,0,-29,-14,-9
-107,-48,58,78,-82,4,78,-19,0,-29,-14,-9
-107,-48,58,78,-82,4,78,-19,0,-34,-9,-9
-107,-48,58,78,-82,4,82,-19,-9,-29,-9,0
-107,-48,58,78,-82,4,82,-19,-9,-29,-9,0
-107,-48,58,78,-82,4,82,-19,-4,-24,-9,0
-107,-48,58,78,-82,4,82,-19,-4,-24,-4,0
-107,-48,58,78,-82,4,78,-19,-4,-19,-4,9
-107,-48,58,78,-82,4,78,-19,-4,-19,-4,9
-107,-43,63,75,-85,9,73,-19,-4,-19,-4,4
-102,-43,58,73,-80,7,73,-19,-4,-19,-4,4
-102,-34,68,68,-85,17,68,-19,-4,-29,-4,14
-102,-29,73,65,-87,21,68,-19,-4,-29,-4,14
-102,-29,73,65,-87,21,68,-19,-4,-24,-4,14
-102,-29,73,65,-87,21,68,-19,0,-24,-4,14
-97,-29,68,63,-82,19,68,-19,0,-24,0,14
-97,-29,68,63,-82,19,68,-19,0,-19,0,14
-97,-24,73,61,-85,24,68,-19,0,-14,4,14
-97,-24,73,61,-85,24,68,-19,0,-14,4,19
-97,-29,68,63,-82,19,68,-19,9,-9,4,24
-97,-29,68,63,-82,19,68,-14,9,-9,9,24
-97,-29,68,63,-82,19,68,-14,9,-14,14,24
-92,-24,68,58,-80,21,68,-14,9,-14,14,24
-102,-34,68,68,-85,17,68,-14,9,-4,24,29
-102,-34,68,68,-85,17,68,-14,9,-4,24,29
-102,-29,73,65,-87,21,68,-14,9,-4,24,34
-102,-29,73,65,-87,21,73,-14,9,-4,24,34
-102,-29,73,65,-87,21,73,-14,9,-4,24,34
-102,-24,78,63,-90,26,68,-14,9,-4,24,34
-102,-24,78,63,-90,26,68,-14,9,0,29,34
-102,-24,78,63,-90,26,63,-14,9,0,34,34
-102,-19,82,61,-92,31,63,-9,9,0,39,39
-107,-19,87,63,-97,34,58,-9,9,0,39,39
-107,-19,87,63,-97,34,58,-9,9,0,39,39
-107,-19,87,63,-97,34,58,-9,9,0,39,39
-107,-19,87,63,-97,34,58,-9,9,0,39,39
-107,-19,87,63,-97,34,58,-9,9,0,39,39
-97,-19,78,58,-87,29,58,-9,0,4,39,48
-97,-14,82,56,-90,34,63,-9,4,4,39,48
-97,-9,87,53,-92,39,63,-9,4,4,39,53
-97,-4,92,51,-95,43,63,-9,14,9,39,53
-97,0,97,48,-97,48,68,-9,24,14,48,53
-92,0,92,46,-92,46,68,-9,24,19,53,53
-87,4,92,41,-90,48,68,-9,24,19,53,53
-87,14,102,36,-95,58,68,-9,24,19,53,53
-87,19,107,34,-97,63,78,0,29,34,58,63
-82,24,107,29,-95,65,78,4,39,34,68,68
-78,34,112,21,-95,73,82,4,43,39,73,73
-73,39,112,17,-92,75,82,4,43,39,73,73
-82,43,126,19,-104,85,73,4,43,39,78,73
-82,48,131,17,-107,90,73,9,43,39,78,73
-82,53,136,14,-109,95,73,9,43,43,78,78
-82,53,136,14,-109,95,73,4,48,43,82,78
-73,63,136,4,-104,100,73,4,58,43,82,78
-73,63,136,4,-104,100,68,4,58,39,82,78
-73,63,136,4,-104,100,68,0,58,39,82,78
-73,73,146,0,-109,109,68,0,58,43,82,78
-68,68,136,0,-102,102,63,-9,68,63,97,87
-58,78,136,-9,-97,107,63,-4,73,68,102,97
-58,87,146,-14,-102,117,63,-4,78,73,107,107
-53,97,151,-21,-102,124,58,-4,82,78,112,107
-39,107,146,-34,-92,126,43,-14,73,68,102,107
-34,107,141,-36,-87,124,39,-19,73,68,102,107
-34,97,131,-31,-82,114,24,-24,63,68,102,107
-34,92,126,-29,-80,109,14,-24,58,58,97,102
-43,68,112,-12,-78,90,14,-29,43,43,87,97
-39,58,97,-9,-68,78,4,-34,34,34,78,92
-39,58,97,-9,-68,78,-4,-48,24,19,73,92
-39,48,87,-4,-63,68,-4,-48,14,19,68,87
-39,48,87,-4,-63,68,9,-39,14,24,58,92
-39,43,82,-2,-61,63,9,-39,9,19,58,87
-39,39,78,0,-58,58,9,-39,4,24,63,82
-39,39,78,0,-58,58,9,-34,4,29,68,82
-43,34,78,4,-61,56,9,-34,4,19,68,82
-43,24,68,9,-56,46,19,-34,-9,9,58,78
-58,9,68,24,-63,39,19,-24,-9,9,58,78
-58,4,63,26,-61,34,29,-24,-4,9,58,73
-63,4,68,29,-65,36,34,-34,-4,19,58,68
-78,-4,73,41,-75,34,39,-34,-4,9,58,63
-87,-19,68,53,-78,24,43,-34,-14,9,48,58
-97,-29,68,63,-82,19,48,-29,-19,4,39,53
-102,-24,78,63,-90,26,48,-29,-24,-14,34,39
-112,-34,78,73,-95,21,48,-39,-29,-19,29,29
-112,-34,78,73,-95,21,48,-39,-34,-29,14,19
-117,-39,78,78,-97,19,48,-43,-43,-39,4,19
-112,-43,68,78,-90,12,39,-43,-48,-43,4,19
-112,-48,63,80,-87,7,39,-43,-53,-43,4,14
-112,-48,63,80,-87,7,39,-48,-53,-48,4,14
-112,-48,63,80,-87,7,34,-48,-53,-48,4,14
-122,-48,73,85,-97,12,43,-48,-53,-39,4,24
-126,-48,78,87,-102,14,48,-48,-53,-39,0,24
-126,-53,73,90,-100,9,48,-48,-53,-39,0,24
-126,-53,73,90,-100,9,48,-48,-53,-39,0,24
-126,-53,73,90,-100,9,39,-48,-53,-39,0,24
-126,-53,73,90,-100,9,39,-48,-53,-43,0,24
-126,-53,73,90,-100,9,39,-43,-53,-43,0,19
-126,-53,73,90,-100,9,39,-43,-53,-43,0,19
-126,-43,82,85,-104,19,39,-53,-43,-39,9,19
-126,-43,82,85,-104,19,39,-53,-43,-39,9,24
-126,-43,82,85,-104,19,39,-53,-43,-39,9,24
-126,-43,82,85,-104,19,39,-53,-39,-34,9,24
-117,-43,73,80,-95,14,48,-48,-39,-29,14,24
-117,-43,73,80,-95,14,48,-48,-34,-29,14,29
-117,-39,78,78,-97,19,48,-48,-34,-29,19,29
-117,-39,78,78,-97,19,53,-48,-34,-29,19,29
-117,-48,68,82,-92,9,53,-43,-34,-29,19,29
-117,-48,68,82,-92,9,53,-43,-29,-24,19,29
-117,-48,68,82,-92,9,53,-43,-29,-24,19,29
-117,-53,63,85,-90,4,53,-43,-29,-24,19,34
-126,-43,82,85,-104,19,43,-43,-34,-24,19,34
-126,-39,87,82,-107,24,43,-43,-34,-24,19,29
-126,-39,87,82,-107,24,48,-43,-34,-24,19,29
-131,-39,92,85,-112,26,48,-43,-34,-24,19,29
-122,-29,92,75,-107,31,39,-53,-24,-9,39,48
-122,-14,107,68,-114,46,48,-43,0,9,58,63
-122,-24,97,73,-109,36,73,-9,29,48,78,68
-112,-39,73,75,-92,17,112,73,68,82,92,68
-107,-39,68,73,-87,14,165,156,126,136,126,78
-92,-19,73,56,-82,26,219,239,204,234,190,117
-63,-9,53,36,-58,21,253,326,307,351,283,161
-4,4,9,0,-7,7,248,448,448,512,405,219
68,48,-19,-58,43,14,219,595,634,722,551,322
151,112,-39,-131,95,36,200,722,858,980,732,434
224,175,-48,-200,136,63,151,780,1039,1195,873,512
268,190,-78,-229,173,56,78,732,1063,1244,883,522
292,190,-102,-241,197,43,-14,546,917,1083,751,463
273,204,-68,-239,170,68,-156,278,658,790,551,390
224,214,-9,-219,117,102,-283,63,444,531,380,312
156,146,-9,-151,82,68,-317,-63,317,307,185,175
63,-53,-117,-4,90,-85,-287,-117,195,63,-87,-78
-24,-219,-195,122,85,-207,-326,-253,48,-151,-302,-273
-92,-273,-180,183,43,-226,-434,-531,-126,-302,-395,-351
-175,-302,-126,239,-24,-214,-502,-761,-317,-434,-468,-370
-239,-312,-73,275,-82,-192,-527,-854,-473,-566,-531,-405
-273,-317,-43,295,-114,-180,-575,-922,-614,-649,-556,-400
-292,-326,-34,309,-129,-180,-624,-1005,-722,-702,-551,-390
-283,-317,-34,300,-124,-175,-619,-1000,-736,-683,-522,-370
-268,-292,-24,280,-122,-158,-580,-902,-649,-605,-458,-326
-253,-253,0,253,-126,-126,-541,-824,-575,-531,-405,-278
-234,-219,14,226,-124,-102,-512,-775,-531,-502,-361,-244
-200,-165,34,183,-117,-65,-468,-697,-497,-439,-307,-180
-170,-126,43,148,-107,-41,-414,-605,-448,-370,-234,-131
-156,-87,68,122,-112,-9,-346,-517,-400,-326,-195,-102
-146,-68,78,107,-112,4,-283,-429,-341,-278,-161,-73
-146,-53,92,100,-119,19,-204,-336,-278,-209,-112,-43
-131,-48,82,90,-107,17,-136,-258,-209,-161,-82,-19
-131,-58,73,95,-102,7,-92,-204,-165,-131,-53,-14
-136,-68,68,102,-102,0,-53,-151,-131,-107,-39,4
-131,-58,73,95,-102,7,-24,-126,-117,-78,-9,24
-126,-48,78,87,-102,14,-9,-102,-92,-58,0,34
-112,-39,73,75,-92,17,9,-82,-82,-34,19,43
-117,-24,92,70,-104,34,24,-63,-58,-4,34,58
-112,-24,87,68,-100,31,34,-43,-34,4,43,58
-107,-24,82,65,-95,29,39,-29,-29,-4,48,58
-107,-24,82,65,-95,29,43,-19,-24,-4,43,48
-117,-24,92,70,-104,34,43,-19,-34,-9,43,58
-117,-24,92,70,-104,34,48,-14,-34,-9,39,58
-117,-24,92,70,-104,34,53,-14,-34,-9,39,58
-117,-24,92,70,-104,34,53,-9,-34,-9,43,68
-117,-29,87,73,-102,29,73,9,-14,0,63,78
-117,-29,87,73,-102,29,73,14,-9,9,68,82
-112,-29,82,70,-97,26,73,19,-4,19,73,82
-112,-29,82,70,-97,26,73,29,4,34,73,82
-112,-24,87,68,-100,31,73,34,4,24,73,82
-107,-24,82,65,-95,29,73,34,0,24,73,82
-107,-24,82,65,-95,29,73,34,0,24,73,78
-107,-24,82,65,-95,29,73,39,0,24,73,73
-107,-14,92,61,-100,39,73,43,14,24,78,82
-107,-14,92,61,-100,39,78,43,14,29,82,92
-107,-19,87,63,-97,34,78,43,14,34,82,92
-107,-19,87,63,-97,34,78,53,24,39,82,92
-107,-24,82,65,-95,29,82,53,14,39,87,92
-107,-19,87,63,-97,34,82,53,14,39,87,92
-107,-19,87,63,-97,34,82,53,19,39,92,92
-102,-19,82,61,-92,31,82,58,19,39,92,92
-102,-19,82,61,-92,31,82,58,19,43,92,97
-102,-19,82,61,-92,31,87,63,19,48,97,97
-102,-19,82,61,-92,31,87,68,24,48,97,102
-102,-19,82,61,-92,31,87,68,24,48,97,107
-97,-9,87,53,-92,39,92,73,39,58,97,107
-97,-9,87,53,-92,39,92,78,39,63,97,112
-97,-9,87,53,-92,39,92,82,43,63,102,112
-97,-9,87,53,-92,39,92,82,43,63,102,117
-87,-9,78,48,-82,34,102,82,43,63,102,107
-87,-4,82,46,-85,39,102,87,48,68,107,107
-87,-4,82,46,-85,39,102,87,53,68,107,107
-87,-4,82,46,-85,39,107,92,53,73,117,112
-92,0,92,46,-92,46,97,97,68,73,126,112
-92,4,97,43,-95,51,92,97,68,73,126,117
-92,4,97,43,-95,51,92,102,68,73,126,117
-87,0,87,43,-87,43,92,107,68,78,126,122
-87,0,87,43,-87,43,102,107,73,92,126,131
-87,4,92,41,-90,48,102,107,73,97,131,131
-82,4,87,39,-85,46,102,117,78,97,131,136
-78,4,82,36,-80,43,102,122,82,97,136,136
-78,9,87,34,-82,48,97,136,87,117,136,141
-78,14,92,31,-85,53,97,141,87,117,146,141
-73,14,87,29,-80,51,97,141,87,117,151,146
-73,19,92,26,-82,56,92,146,97,122,156,151
-82,9,92,36,-87,51,92,151,102,117,151,156
-73,14,87,29,-80,51,92,156,107,122,156,161
-73,14,87,29,-80,51,92,161,107,122,161,161
-73,19,92,26,-82,56,92,165,107,126,165,161
-63,19,82,21,-73,51,97,170,107,141,175,161
-58,19,78,19,-68,48,97,175,112,141,175,161
-53,19,73,17,-63,46,97,180,117,146,180,161
-53,24,78,14,-65,51,97,185,117,151,185,170
-53,34,87,9,-70,61,107,200,126,156,185,165
-48,39,87,4,-68,63,107,204,131,161,185,170
-48,43,92,2,-70,68,102,214,136,165,190,175
-39,48,87,-4,-63,68,102,219,141,175,195,180
-39,43,82,-2,-61,63,102,224,146,170,195,180
-39,48,87,-4,-63,68,102,234,151,175,195,180
-34,48,82,-7,-58,65,102,239,156,175,204,185
-29,48,78,-9,-53,63,102,244,161,180,209,185
-24,58,82,-17,-53,70,102,253,170,190,224,200
-19,58,78,-19,-48,68,102,263,175,200,229,209
-14,63,78,-24,-46,70,102,273,185,209,234,214
-14,63,78,-24,-46,70,102,283,190,219,239,214
-9,68,78,-29,-43,73,97,283,185,224,239,229
-4,73,78,-34,-41,75,97,292,190,229,244,234
0,78,78,-39,-39,78,92,297,190,239,248,234
0,82,82,-41,-41,82,92,307,195,239,258,239
4,82,78,-43,-36,80,92,312,209,253,263,234
9,82,73,-46,-31,78,92,317,214,253,263,239
14,87,73,-51,-29,80,92,326,219,253,263,244
19,87,68,-53,-24,78,92,331,229,258,268,248
19,92,73,-56,-26,82,92,346,229,258,278,253
19,102,82,-61,-31,92,92,351,234,268,283,258
19,107,87,-63,-34,97,92,356,239,278,287,263
29,107,78,-68,-24,92,92,361,239,283,292,268
34,117,82,-75,-24,100,92,361,239,283,297,273
34,117,82,-75,-24,100,87,366,244,287,302,278
39,117,78,-78,-19,97,87,370,248,292,307,278
43,122,78,-82,-17,100,87,370,248,297,312,283
43,112,68,-78,-12,90,87,370,253,297,312,278
43,112,68,-78,-12,90,87,380,253,297,312,278
43,112,68,-78,-12,90,87,380,258,302,312,278
43,112,68,-78,-12,90,87,380,258,302,312,283
43,126,82,-85,-19,104,87,380,268,307,317,278
48,126,78,-87,-14,102,87,380,268,307,317,278
48,126,78,-87,-14,102,87,380,263,307,317,278
48,126,78,-87,-14,102,82,380,263,307,322,278
48,122,73,-85,-12,97,92,370,263,307,326,287
48,122,73,-85,-12,97,92,370,263,312,326,287
48,122,73,-85,-12,97,92,370,263,312,326,292
53,117,63,-85,-4,90,92,370,263,312,326,292
43,112,68,-78,-12,90,92,370,253,307,317,287
43,112,68,-78,-12,90,87,366,253,307,317,287
43,117,73,-80,-14,95,87,361,253,307,317,287
39,117,78,-78,-19,97,87,356,253,307,317,287
39,117,78,-78,-19,97,78,336,248,297,307,287
39,117,78,-78,-19,97,78,331,248,297,307,287
29,112,82,-70,-26,97,78,312,244,292,302,287
24,107,82,-65,-29,95,73,302,239,287,297,287
24,107,82,-65,-29,95,82,292,234,287,302,278
19,107,87,-63,-34,97,82,283,229,278,297,268
14,107,92,-61,-39,100,82,268,224,268,287,263
9,107,97,-58,-43,102,82,253,219,263,287,258
-4,97,102,-46,-53,100,73,229,204,248,273,258
-9,92,102,-41,-56,97,73,219,200,244,268,248
-14,87,102,-36,-58,95,73,204,195,234,263,244
-19,82,102,-31,-61,92,73,190,185,224,263,234
-24,78,102,-26,-63,90,73,165,185,224,253,219
-29,73,102,-21,-65,87,73,156,180,214,244,214
-39,73,112,-17,-75,92,73,151,175,209,239,209
-43,63,107,-9,-75,85,73,141,175,204,229,200
-58,68,126,-4,-92,97,73,122,161,185,214,190
-68,63,131,2,-100,97,73,102,151,175,209,190
-68,58,126,4,-97,92,73,92,141,165,204,190
-78,53,131,12,-104,92,73,78,131,156,200,185
-87,39,126,24,-107,82,73,78,126,146,185,180
-87,29,117,29,-102,73,73,63,117,141,180,170
-97,29,126,34,-112,78,73,58,112,136,175,161
-102,24,126,39,-114,75,78,53,112,131,170,156
-107,19,126,43,-117,73,78,43,102,112,156,151
-112,14,126,48,-119,70,78,29,82,102,151,146
-117,9,126,53,-122,68,78,29,78,102,146,141
-122,4,126,58,-124,65,78,24,63,97,146,141
-126,0,126,63,-126,63,78,19,58,97,151,131
-131,-4,126,68,-129,61,78,14,63,92,146,126
-131,-9,122,70,-126,56,78,9,63,87,146,122
-136,-9,126,73,-131,58,78,4,63,82,141,117
-136,-4,131,70,-134,63,78,0,48,73,126,112
-136,-4,131,70,-134,63,78,0,43,68,122,102
-136,-9,126,73,-131,58,78,0,43,63,117,97
-136,-14,122,75,-129,53,82,-4,39,53,112,97
-141,-19,122,80,-131,51,92,4,39,53,117,107
-141,-24,117,82,-129,46,92,0,34,53,112,107
-141,-34,107,87,-124,36,92,0,34,48,112,107
-146,-39,107,92,-126,34,92,0,34,48,112,107
-146,-39,107,92,-126,34,92,0,43,48,112,107
-151,-43,107,97,-129,31,92,-4,39,48,112,107
-151,-43,107,97,-129,31,92,-4,39,48,107,107
-151,-39,112,95,-131,36,92,-4,34,43,102,107
-151,-39,112,95,-131,36,92,-4,34,43,92,107
-151,-39,112,95,-131,36,92,-4,34,43,92,107
-151,-39,112,95,-131,36,87,-4,34,43,92,102
-151,-39,112,95,-131,36,87,-9,34,43,92,102
-156,-39,117,97,-136,39,87,0,34,43,92,102
-156,-39,117,97,-136,39,87,0,34,39,92,102
-161,-39,122,100,-141,41,87,0,29,39,92,102
-161,-39,122,100,-141,41,87,0,29,43,92,102
-156,-48,107,102,-131,29,87,0,29,48,102,117
-156,-48,107,102,-131,29,87,0,29,48,102,117
-156,-48,107,102,-131,29,87,0,29,48,102,117
-156,-48,107,102,-131,29,87,0,29,43,107,117
-156,-39,117,97,-136,39,82,-9,39,39,97,117
-156,-39,117,97,-136,39,82,-9,39,39,97,117
-156,-39,117,97,-136,39,82,-9,43,43,97,117
-156,-39,117,97,-136,39,82,-9,43,43,102,117
-156,-39,117,97,-136,39,78,0,34,39,92,107
-156,-39,117,97,-136,39,78,0,34,39,92,107
-156,-34,122,95,-139,43,73,0,34,39,92,102
-151,-34,117,92,-134,41,73,0,34,39,92,102
-151,-34,117,92,-134,41,73,0,34,39,92,102
-151,-29,122,90,-136,46,78,0,34,39,92,102
-151,-29,122,90,-136,46,82,0,34,43,92,102
-151,-29,122,90,-136,46,87,0,39,43,92,102
-146,-29,117,87,-131,43,87,0,29,34,87,112
-146,-29,117,87,-131,43,87,0,29,39,87,112
-146,-24,122,85,-134,48,87,0,29,43,92,112
-146,-24,122,85,-134,48,87,0,29,43,92,117
-146,-19,126,82,-136,53,78,0,29,58,102,122
-146,-19,126,82,-136,53,78,4,29,58,107,122
-146,-19,126,82,-136,53,78,4,29,53,112,122
-141,-14,126,78,-134,56,78,4,29,53,112,122
-141,-4,136,73,-139,65,68,-4,29,53,102,107
-141,-4,136,73,-139,65,68,-4,29,53,102,107
-141,0,141,70,-141,70,68,-4,29,53,102,112
-141,0,141,70,-141,70,73,-4,29,53,102,112
-131,0,131,65,-131,65,73,-4,19,43,97,112
-141,-4,136,73,-139,65,68,-4,29,43,92,112
-141,-4,136,73,-139,65,68,-4,29,48,102,122
-141,-14,126,78,-134,56,73,4,29,48,102,122
-146,-19,126,82,-136,53,78,-9,39,48,107,126
-146,-19,126,82,-136,53,78,-9,39,48,107,122
-146,-19,126,82,-136,53,78,-9,39,48,107,117
-146,-19,126,82,-136,53,78,-9,39,48,107,112
-146,-19,126,82,-136,53,78,-9,39,48,107,107
-136,-19,117,78,-126,48,78,0,34,43,97,107
-136,-14,122,75,-129,53,82,0,34,43,97,107
-136,-9,126,73,-131,58,82,0,29,43,97,112
-136,-4,131,70,-134,63,82,0,34,48,97,112
-136,-9,126,73,-131,58,78,0,34,43,107,122
-131,-9,122,70,-126,56,78,0,34,48,112,122
-126,-4,122,65,-124,58,78,0,34,48,112,122
-126,4,131,61,-129,68,78,0,34,48,112,122
-126,9,136,58,-131,73,87,0,39,58,117,112
-122,14,136,53,-129,75,87,4,48,63,126,117
-117,24,141,46,-129,82,92,4,53,73,131,122
-112,29,141,41,-126,85,92,4,53,78,131,122
-112,34,146,39,-129,90,92,4,53,68,126,131
-112,39,151,36,-131,95,92,9,53,68,126,131
-112,43,156,34,-134,100,92,9,53,73,126,136
-112,43,156,34,-134,100,92,4,58,73,131,136
-102,53,156,24,-129,104,92,4,68,82,131,136
-102,53,156,24,-129,104,87,4,68,78,131,136
-102,53,156,24,-129,104,87,0,68,78,131,136
-102,63,165,19,-134,114,87,0,68,82,131,136
-97,58,156,19,-126,107,82,9,68,82,136,131
-87,68,156,9,-122,112,82,14,73,87,141,136
-87,78,165,4,-126,122,82,14,78,92,146,141
-82,87,170,-2,-126,129,78,14,82,97,151,136
-78,107,185,-14,-131,146,82,-4,82,97,151,141
-73,107,180,-17,-126,143,78,-9,82,97,151,146
-73,97,170,-12,-122,134,63,-14,73,97,151,151
-73,92,165,-9,-119,129,53,-14,68,87,146,151
-73,87,161,-7,-117,124,43,-19,58,92,146,136
-68,78,146,-4,-107,112,34,-24,53,82,136,131
-68,78,146,-4,-107,112,24,-39,48,68,131,131
-68,68,136,0,-102,102,24,-39,43,68,126,126
-68,48,117,9,-92,82,14,-48,34,58,122,122
-68,43,112,12,-90,78,9,-48,29,48,117,117
-68,39,107,14,-87,73,4,-48,24,48,117,112
-68,39,107,14,-87,73,0,-43,24,48,117,112
-73,43,117,14,-95,80,4,-43,14,48,117,112
-73,34,107,19,-90,70,19,-43,0,39,107,107
-87,19,107,34,-97,63,24,-34,0,39,107,107
-87,14,102,36,-95,58,39,-34,4,39,107,102
-82,14,97,34,-90,56,34,-24,4,39,97,97
-97,4,102,46,-100,53,39,-24,4,29,97,92
-107,-9,97,58,-102,43,43,-24,-4,29,87,87
-117,-19,97,68,-107,39,48,-19,-9,24,78,82
-131,-34,97,82,-114,31,53,-9,-14,14,73,87
-141,-43,97,92,-119,26,58,-19,-19,9,68,78
-141,-43,97,92,-119,26,63,-19,-24,0,53,68
-146,-48,97,97,-122,24,68,-24,-34,-9,43,68
-161,-58,102,109,-131,21,58,-34,-39,-14,43,53
-161,-68,92,114,-126,12,58,-34,-43,-14,43,43
-161,-73,87,117,-124,7,58,-39,-43,-19,43,39
-161,-78,82,119,-122,2,53,-39,-43,-19,43,34
-161,-73,87,117,-124,7,43,-48,-34,-9,43,43
-165,-68,97,117,-131,14,48,-48,-34,-9,39,43
-165,-68,97,117,-131,14,48,-48,-34,-9,39,43
-165,-63,102,114,-134,19,48,-48,-34,-9,39,43
-165,-73,92,119,-129,9,58,-39,-39,-14,39,34
-165,-73,92,119,-129,9,58,-39,-43,-24,39,34
-165,-73,92,119,-129,9,58,-34,-48,-29,39,29
-165,-73,92,119,-129,9,58,-34,-53,-34,39,29
-165,-82,82,124,-124,0,58,-34,-43,-29,34,19
-165,-82,82,124,-124,0,58,-34,-43,-29,29,24
-165,-82,82,124,-124,0,58,-34,-43,-29,24,24
-165,-82,82,124,-124,0,58,-34,-39,-24,19,24
-165,-78,87,122,-126,4,58,-29,-39,-19,24,24
-165,-73,92,119,-129,9,58,-29,-34,-19,24,29
-165,-63,102,114,-134,19,58,-29,-34,-19,29,29
-165,-58,107,112,-136,24,63,-29,-34,-19,29,29
-165,-68,97,117,-131,14,63,-24,-34,-19,39,39
-165,-68,97,117,-131,14,63,-24,-29,-14,39,39
-165,-68,97,117,-131,14,63,-24,-29,-14,39,39
-165,-73,92,119,-129,9,63,-24,-29,-14,39,43
-165,-82,82,124,-124,0,73,-24,-24,-14,29,34
-165,-78,87,122,-126,4,73,-24,-24,-14,29,29
-165,-78,87,122,-126,4,78,-24,-24,-14,29,29
-170,-78,92,124,-131,7,78,-24,-24,-14,29,29
-170,-68,102,119,-136,17,68,-24,-14,-9,39,39
-170,-63,107,117,-139,21,68,-34,-19,0,39,34
-170,-53,117,112,-143,31,63,-39,-19,0,48,39
-170,-29,141,100,-156,56,53,-43,0,24,73,58
-165,-29,136,97,-151,53,78,0,48,68,97,78
-161,-48,112,104,-136,31,131,82,87,97,102,68
-151,-58,92,104,-122,17,185,170,131,136,126,73
-131,-53,78,92,-104,12,229,253,185,209,170,82
-97,-48,48,73,-73,0,268,341,283,322,248,126
-43,-34,9,39,-26,-12,268,448,409,473,361,180
29,-9,-39,-9,34,-24,239,585,561,649,483,268
112,53,-58,-82,85,-2,214,732,751,873,649,385
195,112,-82,-153,139,14,180,819,936,1112,810,483
253,126,-126,-190,190,0,117,775,1000,1180,844,497
273,126,-146,-200,209,-9,29,600,873,1039,732,439
253,156,-97,-204,175,29,-102,326,639,766,536,351
209,180,-29,-195,119,75,-219,87,439,512,351,273
131,112,-19,-122,75,46,-268,-48,302,287,156,117
43,-87,-131,21,87,-109,-229,-102,185,39,-131,-136
-48,-263,-214,156,82,-239,-248,-224,43,-161,-361,-331
-141,-312,-170,226,14,-241,-351,-512,-122,-312,-444,-395
-224,-326,-102,275,-61,-214,-439,-756,-292,-444,-488,-419
-302,-336,-34,319,-134,-185,-458,-849,-429,-546,-541,-439
-341,-336,4,339,-173,-165,-502,-922,-561,-634,-570,-448
-356,-351,4,353,-180,-173,-570,-1000,-688,-702,-585,-444
-341,-361,-19,351,-161,-190,-590,-1019,-722,-707,-570,-424
-322,-326,-4,324,-158,-165,-551,-932,-649,-629,-517,-370
-317,-292,24,305,-170,-134,-517,-844,-585,-556,-453,-326
-307,-263,43,285,-175,-109,-483,-790,-556,-517,-400,-287
-273,-214,58,244,-165,-78,-444,-712,-517,-463,-351,-239
-234,-156,78,195,-156,-39,-400,-614,-439,-395,-278,-180
-224,-131,92,178,-158,-19,-322,-512,-395,-336,-229,-141
-209,-117,92,163,-151,-12,-253,-434,-356,-307,-209,-126
-190,-97,92,143,-141,-2,-190,-341,-302,-248,-170,-102
-195,-87,107,141,-151,9,-122,-258,-229,-195,-117,-82
-190,-87,102,139,-146,7,-73,-195,-175,-146,-97,-73
-185,-87,97,136,-141,4,-39,-151,-151,-126,-97,-63
-180,-87,92,134,-136,2,-9,-122,-141,-122,-78,-53
-185,-73,112,129,-148,19,4,-92,-117,-102,-53,-29
-180,-63,117,122,-148,26,14,-73,-73,-63,-24,-9
-165,-63,102,114,-134,19,39,-39,-48,-34,-9,0
-165,-63,102,114,-134,19,43,-19,-43,-34,-4,0
-156,-63,92,109,-124,14,43,-19,-43,-39,-14,-4
-156,-63,92,109,-124,14,48,-14,-43,-39,-19,-9
-156,-63,92,109,-124,14,53,-14,-43,-39,-19,-14
-156,-63,92,109,-124,14,53,-9,-43,-39,-14,-9
-165,-58,107,112,-136,24,73,0,-34,-34,-4,-9
-165,-58,107,112,-136,24,73,4,-29,-29,0,-4
-161,-58,102,109,-131,21,73,9,-24,-24,4,-4
-161,-58,102,109,-131,21,73,19,-14,-14,4,-4
-161,-63,97,112,-129,17,92,34,-14,-14,4,0
-156,-63,92,109,-124,14,92,34,-19,-14,4,4
-156,-63,92,109,-124,14,92,34,-19,-14,4,4
-156,-63,92,109,-124,14,92,39,-19,-14,4,4
-146,-63,82,104,-114,9,92,43,-14,-14,0,-4
-146,-63,82,104,-114,9,97,43,-14,-9,4,4
-146,-68,78,107,-112,4,97,43,-14,-4,4,4
-146,-68,78,107,-112,4,97,53,-4,0,4,4
-146,-63,82,104,-114,9,92,53,-4,9,9,14
-146,-58,87,102,-117,14,92,53,-4,9,9,14
-146,-58,87,102,-117,14,92,53,0,9,14,14
-141,-58,82,100,-112,12,92,58,0,9,14,14
-141,-48,92,95,-117,21,92,58,0,4,24,9
-141,-48,92,95,-117,21,97,63,0,9,29,9
-141,-48,92,95,-117,21,97,68,4,9,29,14
-141,-48,92,95,-117,21,97,68,4,9,29,19
-136,-48,87,92,-112,19,92,63,9,9,19,14
-136,-48,87,92,-112,19,92,68,9,14,19,14
-136,-48,87,92,-112,19,92,73,14,14,24,9
-136,-48,87,92,-112,19,92,73,14,14,24,9
-126,-58,68,92,-97,4,102,82,4,4,19,0
-126,-53,73,90,-100,9,102,87,9,9,19,0
-126,-53,73,90,-100,9,102,87,14,9,14,0
-126,-53,73,90,-100,9,107,92,14,14,19,4
-122,-48,73,85,-97,12,107,97,19,14,29,4
-122,-43,78,82,-100,17,102,97,19,14,29,9
-122,-43,78,82,-100,17,102,102,19,14,29,9
-117,-48,68,82,-92,9,102,107,19,19,29,14
-117,-39,78,78,-97,19,102,107,34,34,19,9
-117,-34,82,75,-100,24,102,107,34,39,24,4
-112,-34,78,73,-95,21,102,117,39,39,24,4
-107,-34,73,70,-90,19,102,122,43,39,29,0
-107,-34,73,70,-90,19,107,117,48,53,39,9
-107,-34,73,70,-90,19,107,122,48,48,48,14
-102,-39,63,70,-82,12,107,122,48,43,53,24
-102,-39,63,70,-82,12,102,126,58,43,58,34
-102,-29,73,65,-87,21,102,131,53,48,48,29
-92,-24,68,58,-80,21,102,136,58,53,48,34
-92,-24,68,58,-80,21,102,141,58,53,48,34
-92,-19,73,56,-82,26,102,146,58,58,48,34
-92,-9,82,51,-87,36,97,151,58,63,39,34
-87,-9,78,48,-82,34,97,156,63,63,39,34
-82,-9,73,46,-78,31,97,161,68,68,43,34
-82,-4,78,43,-80,36,97,165,68,73,48,43
-82,-14,68,48,-75,26,97,180,78,68,58,43
-78,-9,68,43,-73,29,97,185,82,73,58,43
-78,-4,73,41,-75,34,92,195,87,78,63,43
-68,0,68,34,-68,34,92,200,92,87,68,43
-58,4,63,26,-61,34,92,195,97,92,68,43
-58,9,68,24,-63,39,92,204,102,97,68,43
-53,9,63,21,-58,36,92,209,107,97,78,48
-48,9,58,19,-53,34,92,214,112,102,82,48
-53,19,73,17,-63,46,92,214,112,117,87,43
-48,19,68,14,-58,43,92,224,117,122,92,53
-43,24,68,9,-56,46,92,234,126,126,97,58
-43,24,68,9,-56,46,92,244,131,131,102,58
-39,29,68,4,-53,48,87,244,146,131,112,63
-34,34,68,0,-51,51,87,253,151,141,117,68
-29,39,68,-4,-48,53,82,258,151,156,122,68
-29,43,73,-7,-51,58,82,268,156,161,131,73
-24,43,68,-9,-46,56,82,283,161,175,136,87
-19,43,63,-12,-41,53,82,287,165,175,136,102
-14,48,63,-17,-39,56,82,297,170,175,136,117
-9,48,58,-19,-34,53,82,302,180,180,141,131
-9,43,53,-17,-31,48,82,307,180,180,141,117
-9,53,63,-21,-36,58,82,312,185,190,146,112
-9,58,68,-24,-39,63,82,317,190,200,151,107
0,58,58,-29,-29,58,82,322,190,204,156,102
4,63,58,-34,-26,61,82,322,190,204,151,97
4,68,63,-36,-29,65,78,326,195,209,156,102
9,73,63,-41,-26,68,78,331,200,214,161,102
14,82,68,-48,-26,75,78,331,200,219,165,107
24,82,58,-53,-17,70,68,331,214,229,175,126
24,82,58,-53,-17,70,68,341,214,229,175,131
24,82,58,-53,-17,70,68,341,219,234,175,136
24,82,58,-53,-17,70,68,341,219,234,175,146
24,87,63,-56,-19,75,68,341,229,229,180,146
29,87,58,-58,-14,73,68,341,229,229,180,141
29,87,58,-58,-14,73,68,341,224,229,180,136
29,87,58,-58,-14,73,63,341,224,229,185,131
39,87,48,-63,-4,68,73,341,224,219,185,126
39,82,43,-61,-2,63,73,341,224,224,180,122
39,78,39,-58,0,58,73,341,224,224,175,122
43,68,24,-56,9,46,73,341,224,224,170,117
34,73,39,-53,-2,56,73,341,234,224,180,131
34,73,39,-53,-2,56,68,336,234,229,180,131
34,78,43,-56,-4,61,68,331,234,234,180,131
29,78,48,-53,-9,63,68,326,234,239,180,131
29,78,48,-53,-9,63,68,312,219,229,190,141
29,78,48,-53,-9,63,68,312,219,229,190,141
19,73,53,-46,-17,63,68,297,214,224,185,141
14,68,53,-41,-19,61,63,292,209,219,180,141
24,78,53,-51,-14,65,63,283,214,219,165,131
19,78,58,-48,-19,68,63,273,209,209,161,122
14,78,63,-46,-24,70,63,258,204,200,151,117
9,78,68,-43,-29,73,63,244,200,195,151,112
-4,78,82,-36,-43,80,53,229,195,190,136,102
-9,73,82,-31,-46,78,53,219,190,185,131,92
-14,68,82,-26,-48,75,53,204,185,175,126,87
-19,63,82,-21,-51,73,53,190,175,165,126,78
-34,68,102,-17,-68,85,63,175,165,141,112,63
-39,63,102,-12,-70,82,63,165,151,126,97,58
-48,63,112,-7,-80,87,63,161,136,117,87,53
-53,53,107,0,-80,80,63,151,126,107,73,43
-48,48,97,0,-73,73,63,141,126,107,58,43
-58,43,102,7,-80,73,63,122,122,97,53,43
-58,39,97,9,-78,68,63,112,117,87,48,43
-68,34,102,17,-85,68,63,97,112,78,43,39
-78,19,97,29,-87,58,73,87,97,68,34,34
-78,9,87,34,-82,48,73,73,87,63,34,24
-87,9,97,39,-92,53,73,68,82,58,34,14
-92,4,97,43,-95,51,78,63,82,53,34,9
-97,9,107,43,-102,58,78,53,68,39,4,-4
-102,4,107,48,-104,56,78,39,53,24,-4,-19
-107,0,107,53,-107,53,78,39,53,19,-14,-34
-112,-4,107,58,-109,51,78,34,43,9,-19,-43
-117,-9,107,63,-112,48,78,29,24,-9,-29,-53
-122,-14,107,68,-114,46,78,24,24,-14,-39,-58
-122,-19,102,70,-112,41,78,19,19,-19,-43,-63
-126,-19,107,73,-117,43,78,14,14,-24,-53,-68
-126,-34,92,80,-109,29,78,9,9,-24,-48,-68
-126,-34,92,80,-109,29,78,9,4,-29,-53,-73
-126,-39,87,82,-107,24,78,9,4,-34,-58,-73
-126,-43,82,85,-104,19,82,4,0,-43,-63,-68
-131,-43,87,87,-109,21,73,-4,-9,-53,-68,-68
-131,-43,87,87,-109,21,73,-9,-14,-53,-73,-68
-131,-48,82,90,-107,17,73,-9,-14,-58,-73,-68
-136,-48,87,92,-112,19,73,-9,-14,-58,-73,-68
-136,-39,97,87,-117,29,73,0,-14,-68,-82,-73
-141,-43,97,92,-119,26,73,-4,-19,-68,-82,-78
-141,-43,97,92,-119,26,73,-4,-19,-68,-87,-82
-141,-39,102,90,-122,31,73,-4,-24,-73,-92,-87
-151,-48,102,100,-126,26,82,-14,-24,-82,-92,-97
-151,-48,102,100,-126,26,82,-14,-24,-82,-92,-97
-151,-48,102,100,-126,26,78,-14,-24,-82,-92,-102
-151,-48,102,100,-126,26,78,-19,-24,-82,-92,-102
-136,-48,87,92,-112,19,68,-19,-24,-73,-102,-112
-136,-48,87,92,-112,19,68,-19,-24,-78,-102,-112
-141,-48,92,95,-117,21,68,-19,-29,-78,-102,-112
-141,-48,92,95,-117,21,68,-19,-29,-73,-102,-112
-136,-48,87,92,-112,19,68,-9,-29,-78,-92,-102
-136,-48,87,92,-112,19,68,-9,-29,-78,-92,-97
-136,-48,87,92,-112,19,68,-9,-29,-78,-92,-92
-136,-48,87,92,-112,19,68,-9,-29,-82,-87,-87
-146,-58,87,102,-117,14,73,-19,-34,-87,-92,-92
-146,-58,87,102,-117,14,73,-19,-39,-87,-97,-97
-146,-58,87,102,-117,14,73,-19,-39,-82,-102,-102
-146,-58,87,102,-117,14,73,-19,-43,-82,-102,-107
-136,-48,87,92,-112,19,68,-9,-34,-87,-112,-107
-136,-48,87,92,-112,19,68,-9,-34,-87,-112,-107
-136,-43,92,90,-114,24,63,-9,-34,-87,-112,-112
-131,-43,87,87,-109,21,63,-9,-34,-87,-112,-112
-131,-34,97,82,-114,31,58,-19,-43,-87,-102,-112
-131,-29,102,80,-117,36,58,-19,-43,-87,-102,-112
-131,-29,102,80,-117,36,58,-19,-43,-82,-102,-112
-131,-29,102,80,-117,36,58,-19,-39,-82,-102,-112
-126,-39,87,82,-107,24,68,-9,-29,-92,-97,-107
-126,-39,87,82,-107,24,68,-9,-29,-87,-97,-102
-126,-34,92,80,-109,29,68,-9,-29,-82,-92,-97
-126,-34,92,80,-109,29,68,-9,-29,-82,-92,-87
-136,-48,87,92,-112,19,68,-19,-29,-87,-102,-87
-136,-48,87,92,-112,19,68,-14,-29,-87,-97,-92
-136,-48,87,92,-112,19,68,-14,-29,-92,-92,-97
-131,-43,87,87,-109,21,68,-14,-29,-92,-92,-102
-131,-34,97,82,-114,31,63,-14,-39,-92,-102,-107
-131,-34,97,82,-114,31,58,-14,-39,-92,-102,-107
-131,-29,102,80,-117,36,53,-14,-39,-92,-102,-102
-131,-29,102,80,-117,36,53,-14,-39,-92,-102,-102
-122,-29,92,75,-107,31,53,-14,-39,-102,-117,-112
-122,-24,97,73,-109,36,48,-14,-39,-102,-122,-112
-122,-24,97,73,-109,36,48,-14,-39,-97,-122,-112
-122,-24,97,73,-109,36,43,-14,-39,-97,-122,-112
-122,-39,82,80,-102,21,53,-29,-39,-87,-117,-97
-122,-39,82,80,-102,21,53,-29,-39,-92,-112,-97
-122,-39,82,80,-102,21,53,-29,-39,-92,-107,-102
-117,-34,82,75,-100,24,53,-29,-39,-92,-107,-112
-126,-24,102,75,-114,39,53,-29,-39,-92,-112,-97
-136,-29,107,82,-122,39,48,-29,-29,-87,-107,-107
-126,-29,97,78,-112,34,39,-29,-39,-87,-117,-117
-126,-29,97,78,-112,34,39,-29,-39,-87,-117,-117
-126,-29,97,78,-112,34,39,-29,-39,-87,-117,-117
-126,-29,97,78,-112,34,39,-29,-39,-87,-117,-117
-126,-29,97,78,-112,34,39,-29,-39,-92,-107,-117
-126,-24,102,75,-114,39,43,-29,-34,-92,-107,-117
-126,-19,107,73,-117,43,43,-29,-34,-92,-107,-112
-126,-14,112,70,-119,48,43,-29,-24,-87,-107,-112
-126,-9,117,68,-122,53,48,-29,-34,-92,-117,-112
-122,-9,112,65,-117,51,48,-29,-34,-87,-112,-112
-117,-4,112,61,-114,53,48,-29,-34,-87,-112,-112
-117,4,122,56,-119,63,48,-29,-34,-87,-112,-112
-117,0,117,58,-117,58,48,-39,-29,-82,-107,-112
-112,4,117,53,-114,61,48,-34,-19,-82,-97,-107
-107,14,122,46,-114,68,53,-34,-14,-78,-92,-102
-102,19,122,41,-112,70,53,-34,-14,-78,-92,-102
-102,24,126,39,-114,75,53,-24,-24,-78,-107,-102
-102,29,131,36,-117,80,53,-19,-24,-78,-107,-102
-102,34,136,34,-119,85,53,-19,-24,-73,-107,-97
-102,34,136,34,-119,85,53,-24,-19,-73,-102,-97
-92,24,117,34,-104,70,53,-24,-19,-73,-102,-87
-92,24,117,34,-104,70,48,-24,-19,-78,-102,-87
-92,24,117,34,-104,70,48,-29,-19,-78,-102,-87
-92,34,126,29,-109,80,48,-29,-19,-73,-102,-87
-97,39,136,29,-117,87,34,-39,-9,-63,-97,-97
-87,48,136,19,-112,92,34,-34,-4,-58,-92,-87
-87,58,146,14,-117,102,34,-34,0,-53,-87,-78
-82,68,151,7,-117,109,29,-34,4,-48,-82,-78
-78,87,165,-4,-122,126,29,-43,9,-39,-78,-68
-73,87,161,-7,-117,124,29,-48,14,-39,-73,-68
-73,78,151,-2,-112,114,19,-53,9,-39,-68,-68
-73,73,146,0,-109,109,14,-53,9,-48,-68,-73
-63,68,131,-2,-97,100,-4,-48,-19,-63,-78,-78
-58,58,117,0,-87,87,-14,-53,-34,-73,-87,-82
-58,58,117,0,-87,87,-24,-68,-48,-87,-92,-82
-58,48,107,4,-82,78,-24,-68,-63,-87,-97,-87
-68,29,97,19,-82,63,-19,-68,-53,-97,-112,-97
-68,24,92,21,-80,58,-19,-68,-58,-107,-117,-107
-68,19,87,24,-78,53,-19,-68,-63,-107,-117,-117
-68,19,87,24,-78,53,-19,-63,-63,-107,-117,-122
-63,4,68,29,-65,36,-19,-53,-53,-97,-126,-112
-63,-4,58,34,-61,26,-9,-53,-68,-107,-136,-117
-78,-19,58,48,-68,19,-9,-43,-68,-107,-136,-117
-78,-24,53,51,-65,14,0,-43,-63,-107,-136,-122
-82,-14,68,48,-75,26,4,-43,-73,-107,-136,-126
-97,-24,73,61,-85,24,9,-43,-73,-117,-136,-131
-107,-39,68,73,-87,14,14,-43,-82,-117,-146,-136
-117,-48,68,82,-92,9,19,-39,-87,-122,-156,-141
-112,-43,68,78,-90,12,9,-48,-82,-131,-161,-146
-122,-53,68,87,-95,7,9,-58,-87,-136,-165,-156
-122,-53,68,87,-95,7,9,-58,-92,-146,-180,-165
-126,-58,68,92,-97,4,9,-63,-102,-156,-190,-165
-131,-63,68,97,-100,2,19,-63,-117,-161,-190,-185
-131,-68,63,100,-97,-2,19,-63,-122,-161,-190,-190
-131,-68,63,100,-97,-2,19,-68,-122,-165,-190,-190
-131,-68,63,100,-97,-2,14,-68,-122,-165,-190,-190
-141,-73,68,107,-104,-2,14,-58,-112,-156,-180,-180
-146,-78,68,112,-107,-4,19,-58,-112,-156,-185,-180
-146,-87,58,117,-102,-14,19,-58,-112,-156,-185,-180
-146,-92,53,119,-100,-19,19,-58,-112,-156,-185,-180
-136,-82,53,109,-95,-14,19,-68,-122,-165,-195,-180
-136,-82,53,109,-95,-14,19,-68,-122,-170,-195,-180
-136,-82,53,109,-95,-14,19,-63,-122,-170,-195,-185
-136,-82,53,109,-95,-14,19,-63,-122,-170,-195,-185
-136,-82,53,109,-95,-14,19,-53,-112,-165,-195,-185
-136,-82,53,109,-95,-14,19,-53,-112,-165,-195,-180
-136,-82,53,109,-95,-14,19,-53,-112,-165,-195,-180
-136,-82,53,109,-95,-14,19,-53,-107,-161,-195,-180
-136,-92,43,114,-90,-24,19,-48,-107,-146,-180,-180
-136,-92,43,114,-90,-24,19,-48,-102,-146,-180,-175
-136,-87,48,112,-92,-19,19,-48,-102,-146,-175,-175
-136,-87,48,112,-92,-19,24,-48,-102,-146,-175,-175
-136,-78,58,107,-97,-9,24,-53,-112,-156,-185,-185
-136,-78,58,107,-97,-9,24,-53,-107,-151,-185,-185
-136,-78,58,107,-97,-9,24,-53,-107,-151,-185,-185
-136,-82,53,109,-95,-14,24,-53,-107,-151,-185,-180
-136,-92,43,114,-90,-24,24,-43,-102,-161,-185,-180
-136,-87,48,112,-92,-19,24,-43,-102,-161,-185,-185
-136,-87,48,112,-92,-19,29,-43,-102,-161,-185,-185
-141,-87,53,114,-97,-17,29,-43,-102,-161,-185,-185
-131,-68,63,100,-97,-2,19,-63,-112,-146,-175,-165
-141,-53,87,97,-114,17,9,-63,-87,-126,-146,-151
-141,-43,97,92,-119,26,24,-48,-58,-87,-117,-146
-141,-58,82,100,-112,12,43,-14,-29,-73,-112,-165
-126,-68,58,97,-92,-4,78,58,9,-29,-87,-165
-112,-58,53,85,-82,-2,122,131,87,48,-34,-126
-92,-58,34,75,-63,-12,165,219,170,156,48,-63
-63,-53,9,58,-36,-21,219,312,263,287,141,-4
-19,-29,-9,24,-4,-19,209,419,409,468,268,68
63,24,-39,-43,51,-7,170,507,605,697,448,180
156,97,-58,-126,107,19,141,614,824,961,649,307
229,141,-87,-185,158,26,107,683,995,1176,795,395
253,141,-112,-197,183,14,63,624,1015,1200,790,385
234,136,-97,-185,165,19,0,434,854,1015,629,312
185,165,-19,-175,102,73,-97,170,629,746,409,234
136,165,29,-151,53,97,-180,-24,453,483,195,117
73,43,-29,-58,51,7,-190,-87,341,248,-58,-107
-4,-170,-165,87,80,-168,-151,-126,224,4,-351,-380
-92,-292,-200,192,53,-246,-209,-307,58,-204,-531,-536
-165,-302,-136,234,-14,-219,-317,-595,-151,-375,-614,-575
-239,-302,-63,270,-87,-183,-400,-766,-346,-536,-678,-600
-292,-326,-34,309,-129,-180,-419,-814,-517,-678,-741,-614
-322,-336,-14,329,-153,-175,-468,-868,-653,-780,-766,-614
-312,-346,-34,329,-139,-190,-522,-912,-766,-829,-775,-614
-307,-341,-34,324,-136,-187,-551,-912,-785,-819,-761,-600
-292,-302,-9,297,-141,-156,-531,-863,-712,-736,-688,-561
-273,-258,14,265,-143,-122,-502,-795,-649,-668,-624,-517
-248,-224,24,236,-136,-100,-478,-736,-605,-624,-570,-473
-219,-175,43,197,-131,-65,-444,-673,-556,-556,-507,-405
-185,-126,58,156,-122,-34,-405,-575,-497,-492,-439,-346
-175,-97,78,136,-126,-9,-351,-488,-458,-444,-395,-307
-165,-82,82,124,-124,0,-283,-405,-405,-395,-366,-287
-161,-68,92,114,-126,12,-204,-317,-326,-336,-317,-263
-161,-68,92,114,-126,12,-141,-234,-263,-287,-287,-248
-156,-78,78,117,-117,0,-102,-200,-229,-253,-263,-239
-151,-78,73,114,-112,-2,-63,-165,-195,-224,-253,-219
-146,-78,68,112,-107,-4,-29,-122,-170,-204,-224,-190
-141,-68,73,104,-107,2,-19,-102,-161,-200,-204,-180
-136,-63,73,100,-104,4,-4,-92,-146,-180,-200,-165
-131,-53,78,92,-104,12,4,-73,-122,-151,-180,-156
-126,-43,82,85,-104,19,9,-48,-107,-131,-165,-156
-126,-43,82,85,-104,19,14,-39,-92,-122,-151,-156
-126,-43,82,85,-104,19,14,-39,-92,-126,-161,-156
-126,-43,82,85,-104,19,19,-34,-92,-126,-165,-156
-126,-43,82,85,-104,19,24,-34,-92,-126,-165,-156
-126,-43,82,85,-104,19,24,-29,-92,-126,-161,-146
-126,-48,78,87,-102,14,34,-19,-92,-131,-151,-146
-126,-48,78,87,-102,14,34,-14,-87,-126,-146,-141
-122,-48,73,85,-97,12,34,-9,-82,-122,-141,-141
-122,-48,73,85,-97,12,34,0,-73,-112,-141,-141
-122,-43,78,82,-100,17,53,4,-73,-112,-141,-136
-117,-43,73,80,-95,14,53,4,-78,-112,-141,-131
-117,-43,73,80,-95,14,53,4,-78,-112,-141,-131
-117,-43,73,80,-95,14,53,9,-78,-112,-141,-131
-117,-53,63,85,-90,4,53,14,-63,-112,-136,-131
-117,-53,63,85,-90,4,58,14,-63,-107,-131,-122
-117,-58,58,87,-87,0,58,14,-63,-102,-131,-122
-117,-58,58,87,-87,0,58,24,-53,-97,-131,-122
-117,-43,73,80,-95,14,53,14,-53,-97,-126,-122
-117,-39,78,78,-97,19,53,14,-53,-97,-126,-122
-117,-39,78,78,-97,19,53,14,-48,-97,-122,-122
-112,-39,73,75,-92,17,53,19,-48,-97,-122,-122
-112,-39,73,75,-92,17,53,29,-58,-92,-122,-126
-112,-39,73,75,-92,17,58,34,-58,-87,-117,-126
-112,-39,73,75,-92,17,58,39,-53,-87,-117,-122
-112,-39,73,75,-92,17,58,39,-53,-87,-117,-117
-107,-29,78,68,-92,24,53,39,-48,-78,-107,-117
-107,-29,78,68,-92,24,53,39,-48,-73,-107,-112
-107,-29,78,68,-92,24,53,39,-43,-73,-102,-112
-107,-29,78,68,-92,24,53,34,-43,-73,-102,-107
-107,-29,78,68,-92,24,53,34,-34,-73,-112,-107
-107,-24,82,65,-95,29,53,39,-29,-68,-107,-107
-107,-24,82,65,-95,29,53,39,-24,-68,-107,-107
-107,-24,82,65,-95,29,58,43,-24,-63,-97,-102
-102,-29,73,65,-87,21,58,58,-29,-53,-97,-102
-102,-24,78,63,-90,26,53,58,-29,-53,-97,-97
-102,-24,78,63,-90,26,53,63,-29,-53,-97,-97
-97,-29,68,63,-82,19,53,68,-29,-48,-97,-92
-97,-29,68,63,-82,19,53,58,-24,-53,-87,-82
-97,-24,73,61,-85,24,53,58,-24,-48,-82,-82
-92,-24,68,58,-80,21,53,68,-19,-48,-82,-78
-87,-24,63,56,-75,19,53,73,-14,-48,-78,-78
-87,-9,78,48,-82,34,58,78,-9,-29,-78,-82
-87,-4,82,46,-85,39,58,82,-9,-29,-68,-82
-82,-4,78,43,-80,36,58,82,-9,-29,-63,-78
-82,0,82,41,-82,41,53,87,0,-24,-58,-73
-92,-9,82,51,-87,36,43,92,4,-19,-63,-68
-82,-4,78,43,-80,36,43,97,9,-14,-58,-63
-82,-4,78,43,-80,36,43,102,9,-14,-53,-63
-82,0,82,41,-82,41,43,107,9,-9,-48,-63
-82,9,92,36,-87,51,48,102,9,-14,-48,-63
-78,9,87,34,-82,48,48,107,14,-14,-48,-63
-73,9,82,31,-78,46,48,112,19,-9,-43,-63
-73,14,87,29,-80,51,48,117,19,-4,-39,-53
-73,4,78,34,-75,41,58,122,34,4,-29,-48
-68,9,78,29,-73,43,58,126,43,14,-29,-43
-68,14,82,26,-75,48,53,136,53,24,-24,-39
-58,19,78,19,-68,48,53,141,63,39,-19,-34
-48,24,73,12,-61,48,43,146,58,43,-14,-24
-48,29,78,9,-63,53,43,156,63,48,-9,-24
-43,29,73,7,-58,51,43,161,68,48,4,-19
-39,29,68,4,-53,48,43,165,73,53,14,-19
-34,34,68,0,-51,51,43,165,73,58,14,-14
-29,39,68,-4,-48,53,43,175,78,63,14,-4
-24,48,73,-12,-48,61,43,185,87,68,14,0
-24,53,78,-14,-51,65,43,195,92,73,14,0
-29,53,82,-12,-56,68,43,195,97,73,24,4
-24,53,78,-14,-51,65,48,204,102,82,29,9
-19,53,73,-17,-46,63,48,209,102,97,34,9
-19,53,73,-17,-46,63,53,219,107,102,43,14
-14,63,78,-24,-46,70,43,224,122,107,58,19
-9,63,73,-26,-41,68,43,229,126,107,58,24
-4,68,73,-31,-39,70,43,239,131,107,58,29
0,68,68,-34,-34,68,43,244,141,112,63,34
9,73,63,-41,-26,68,43,248,141,131,73,39
9,82,73,-46,-31,78,43,253,146,141,78,43
9,87,78,-48,-34,82,43,258,151,151,82,48
19,87,68,-53,-24,78,43,263,151,156,87,53
14,87,73,-51,-29,80,43,263,151,156,92,58
14,87,73,-51,-29,80,39,268,156,161,97,63
19,87,68,-53,-24,78,39,273,161,165,102,63
24,92,68,-58,-21,80,39,273,161,170,107,68
24,102,78,-63,-26,90,29,273,175,180,117,82
24,102,78,-63,-26,90,29,283,175,180,117,82
24,102,78,-63,-26,90,29,283,180,185,117,82
24,102,78,-63,-26,90,29,283,180,185,117,87
24,97,73,-61,-24,85,29,273,175,170,122,92
29,97,68,-63,-19,82,29,273,170,170,122,92
29,97,68,-63,-19,82,29,273,161,170,122,92
29,97,68,-63,-19,82,24,273,156,170,126,92
29,92,63,-61,-17,78,34,273,165,170,122,92
29,92,63,-61,-17,78,34,273,165,175,122,92
29,92,63,-61,-17,78,34,273,165,175,122,97
34,87,53,-61,-9,70,34,273,165,175,122,97
34,92,58,-63,-12,75,24,263,156,170,122,92
34,92,58,-63,-12,75,19,258,156,170,122,92
34,97,63,-65,-14,80,19,253,156,170,122,92
29,97,68,-63,-19,82,19,248,156,170,122,92
29,107,78,-68,-24,92,19,234,161,161,122,92
29,107,78,-68,-24,92,19,234,161,161,122,92
19,102,82,-61,-31,92,19,219,156,156,117,92
14,97,82,-56,-34,90,14,214,151,151,112,92
14,87,73,-51,-29,80,24,214,146,161,97,92
9,87,78,-48,-34,82,24,204,141,151,92,82
4,87,82,-46,-39,85,24,190,136,141,82,78
0,87,87,-43,-43,87,24,175,131,136,82,73
-4,87,92,-41,-48,90,24,170,126,126,78,63
-9,82,92,-36,-51,87,24,161,122,117,73,53
-14,78,92,-31,-53,85,24,146,117,102,68,48
-19,73,92,-26,-56,82,24,131,107,87,68,39
-34,68,102,-17,-68,85,24,107,112,87,58,34
-39,63,102,-12,-70,82,24,97,102,78,48,29
-48,63,112,-7,-80,87,24,92,92,73,43,24
-53,53,107,0,-80,80,24,82,87,68,34,14
-58,58,117,0,-87,87,24,73,78,58,29,4
-68,53,122,7,-95,87,24,53,73,48,24,4
-68,48,117,9,-92,82,24,43,68,39,19,4
-78,43,122,17,-100,82,24,29,63,29,14,0
-87,29,117,29,-102,73,14,24,39,29,9,-4
-87,19,107,34,-97,63,14,14,29,24,4,-14
-97,19,117,39,-107,68,14,14,24,19,0,-24
-102,14,117,43,-109,65,19,14,24,14,-4,-29
-107,9,117,48,-112,63,29,14,29,0,-19,-24
-112,4,117,53,-114,61,29,0,14,-14,-24,-29
-117,0,117,58,-117,58,29,0,14,-19,-29,-34
-122,-4,117,63,-119,56,29,-4,4,-29,-29,-34
-117,0,117,58,-117,58,29,-9,-4,-39,-43,-43
-122,-4,117,63,-119,56,29,-14,-4,-43,-48,-48
-122,-9,112,65,-117,51,29,-19,-9,-48,-48,-53
-126,-9,117,68,-122,53,29,-24,-14,-53,-53,-58
-126,-4,122,65,-124,58,29,-39,-19,-63,-58,-63
-126,-4,122,65,-124,58,29,-39,-24,-68,-63,-73
-126,-9,117,68,-122,53,29,-39,-24,-73,-68,-78
-126,-14,112,70,-119,48,34,-43,-29,-82,-73,-78
-141,-14,126,78,-134,56,34,-43,-39,-73,-68,-78
-141,-14,126,78,-134,56,34,-48,-43,-73,-73,-78
-141,-19,122,80,-131,51,34,-48,-43,-78,-73,-78
-146,-19,126,82,-136,53,34,-48,-43,-78,-73,-78
-146,-29,117,87,-131,43,34,-39,-43,-87,-82,-78
-151,-34,117,92,-134,41,34,-43,-48,-87,-82,-78
-151,-34,117,92,-134,41,34,-43,-48,-87,-87,-78
-151,-29,122,90,-136,46,34,-43,-53,-92,-92,-78
-141,-29,112,85,-126,41,43,-53,-53,-92,-82,-78
-141,-29,112,85,-126,41,43,-53,-53,-92,-82,-78
-141,-29,112,85,-126,41,39,-53,-53,-92,-82,-82
-141,-29,112,85,-126,41,39,-58,-53,-92,-82,-82
-146,-29,117,87,-131,43,39,-58,-43,-82,-73,-73
-146,-29,117,87,-131,43,39,-58,-43,-87,-73,-73
-151,-29,122,90,-136,46,39,-58,-48,-87,-73,-73
-151,-29,122,90,-136,46,39,-58,-48,-82,-73,-73
-146,-19,126,82,-136,53,39,-58,-58,-78,-82,-68
-146,-19,126,82,-136,53,39,-58,-58,-78,-82,-68
-146,-19,126,82,-136,53,39,-58,-58,-78,-82,-68
-146,-19,126,82,-136,53,39,-58,-58,-82,-78,-68
-146,-19,126,82,-136,53,34,-58,-58,-87,-78,-58
-146,-19,126,82,-136,53,34,-58,-58,-87,-78,-58
-146,-19,126,82,-136,53,34,-58,-53,-82,-78,-58
-146,-19,126,82,-136,53,34,-58,-53,-82,-73,-58
-146,-19,126,82,-136,53,39,-58,-53,-82,-63,-48
-146,-19,126,82,-136,53,39,-58,-53,-78,-63,-48
-146,-14,131,80,-139,58,34,-58,-53,-73,-63,-53
-141,-14,126,78,-134,56,34,-58,-53,-68,-63,-53
-141,-14,126,78,-134,56,29,-58,-43,-78,-63,-53
-141,-9,131,75,-136,61,29,-58,-43,-78,-63,-53
-141,-9,131,75,-136,61,29,-58,-43,-73,-63,-53
-141,-9,131,75,-136,61,29,-58,-39,-73,-63,-53
-146,-9,136,78,-141,63,29,-58,-39,-82,-58,-53
-146,-9,136,78,-141,63,29,-58,-39,-78,-58,-53
-146,-4,141,75,-143,68,29,-58,-39,-73,-53,-53
-146,-4,141,75,-143,68,29,-58,-39,-73,-53,-48
-136,0,136,68,-136,68,19,-58,-48,-68,-58,-43
-136,0,136,68,-136,68,19,-53,-48,-68,-58,-43
-136,0,136,68,-136,68,19,-53,-48,-73,-58,-43
-131,4,136,63,-134,70,19,-53,-48,-73,-63,-43
-141,-4,136,73,-139,65,19,-53,-39,-63,-58,-39
-141,-4,136,73,-139,65,19,-53,-39,-63,-53,-39
-141,0,141,70,-141,70,19,-53,-39,-63,-48,-34
-141,0,141,70,-141,70,24,-53,-39,-63,-43,-34
-131,0,131,65,-131,65,24,-53,-39,-63,-39,-34
-131,4,136,63,-134,70,19,-53,-39,-63,-43,-34
-131,4,136,63,-134,70,19,-53,-39,-58,-43,-34
-131,4,136,63,-134,70,14,-53,-39,-58,-43,-34
-131,9,141,61,-136,75,24,-58,-39,-58,-39,-29
-126,0,126,63,-126,63,19,-48,-39,-58,-39,-29
-126,0,126,63,-126,63,19,-58,-29,-58,-39,-29
-126,0,126,63,-126,63,19,-58,-29,-58,-39,-29
-126,0,126,63,-126,63,19,-58,-29,-58,-39,-29
-126,0,126,63,-126,63,19,-58,-29,-58,-39,-29
-136,0,136,68,-136,68,9,-58,-39,-58,-34,-19
-136,4,141,65,-139,73,14,-58,-34,-53,-29,-19
-136,9,146,63,-141,78,14,-58,-34,-48,-24,-14
-136,14,151,61,-143,82,14,-58,-24,-39,-19,-14
-126,29,156,48,-141,92,19,-48,-14,-34,-19,-4
-122,29,151,46,-136,90,19,-48,-14,-29,-14,-4
-117,34,151,41,-134,92,19,-48,-14,-29,-14,-4
-117,43,161,36,-139,102,19,-48,-14,-29,-14,-4
-126,48,175,39,-151,112,19,-48,-9,-24,-9,4
-122,53,175,34,-148,114,19,-43,0,-24,0,9
-117,63,180,26,-148,122,24,-43,4,-19,4,14
-112,68,180,21,-146,124,24,-43,4,-19,4,14
-102,73,175,14,-139,124,24,-43,-4,-19,9,14
-102,78,180,12,-141,129,24,-39,-4,-19,9,14
-102,82,185,9,-143,134,24,-39,-4,-14,9,19
-102,82,185,9,-143,134,24,-43,0,-14,14,19
-92,82,175,4,-134,129,14,-43,9,-4,14,29
-92,82,175,4,-134,129,9,-43,9,-9,14,29
-92,82,175,4,-134,129,9,-48,9,-9,14,29
-92,92,185,0,-139,139,9,-48,9,-4,14,29
-87,97,185,-4,-136,141,14,-48,19,14,29,29
-78,107,185,-14,-131,146,14,-43,24,19,34,39
-78,117,195,-19,-136,156,14,-43,29,24,39,48
-73,126,200,-26,-136,163,9,-43,34,29,43,48
-58,136,195,-39,-126,165,4,-53,34,19,43,58
-53,136,190,-41,-122,163,0,-58,34,19,43,58
-53,126,180,-36,-117,153,-14,-63,24,19,43,58
-53,122,175,-34,-114,148,-24,-63,19,9,39,53
-63,97,161,-17,-112,129,-24,-58,4,14,29,48
-58,87,146,-14,-102,117,-34,-63,-4,4,19,43
-58,87,146,-14,-102,117,-43,-78,-14,-9,14,43
-58,78,136,-9,-97,107,-43,-78,-24,-9,9,39
-68,68,136,0,-102,102,-39,-87,-24,-19,0,34
-68,63,131,2,-100,97,-39,-87,-29,-29,0,29
-68,58,126,4,-97,92,-39,-87,-34,-29,4,24
-68,58,126,4,-97,92,-39,-82,-34,-29,9,24
-73,53,126,9,-100,90,-39,-73,-34,-19,9,24
-73,43,117,14,-95,80,-29,-73,-48,-29,0,19
-87,29,117,29,-102,73,-29,-63,-48,-29,0,19
-87,24,112,31,-100,68,-19,-63,-43,-29,0,14
-82,24,107,29,-95,65,-14,-63,-34,-29,9,19
-97,14,112,41,-104,63,-9,-63,-34,-39,9,14
-107,0,107,53,-107,53,-4,-63,-43,-39,0,9
-117,-9,107,63,-112,48,0,-58,-48,-43,-9,4
-122,-14,107,68,-114,46,9,-58,-53,-43,-14,0
-131,-24,107,78,-119,41,9,-68,-58,-48,-19,-9
-131,-24,107,78,-119,41,9,-68,-63,-58,-34,-19
-136,-29,107,82,-122,39,9,-73,-73,-68,-43,-19
-141,-43,97,92,-119,26,9,-82,-78,-73,-53,-29
-141,-48,92,95,-117,21,9,-82,-82,-73,-53,-34
-141,-48,92,95,-117,21,9,-87,-82,-78,-53,-34
-141,-48,92,95,-117,21,4,-87,-82,-78,-53,-34
-151,-48,102,100,-126,26,4,-78,-82,-78,-48,-24
-156,-48,107,102,-131,29,9,-78,-82,-78,-48,-24
-156,-53,102,104,-129,24,9,-78,-82,-78,-43,-24
-156,-53,102,104,-129,24,9,-78,-82,-78,-39,-24
-146,-43,102,95,-124,29,9,-87,-92,-78,-48,-24
-146,-43,102,95,-124,29,9,-87,-92,-82,-48,-24
-146,-43,102,95,-124,29,9,-82,-92,-82,-48,-29
-146,-43,102,95,-124,29,9,-82,-92,-82,-48,-29
-156,-43,112,100,-134,34,9,-73,-82,-78,-39,-39
-156,-43,112,100,-134,34,9,-73,-82,-78,-39,-34
-156,-43,112,100,-134,34,9,-73,-82,-78,-39,-34
-156,-43,112,100,-134,34,9,-73,-78,-73,-39,-34
-156,-53,102,104,-129,24,9,-68,-78,-68,-34,-24
-156,-53,102,104,-129,24,9,-68,-73,-68,-34,-19
-156,-48,107,102,-131,29,9,-68,-73,-68,-29,-19
-156,-48,107,102,-131,29,14,-68,-73,-68,-29,-19
-146,-48,97,97,-122,24,14,-63,-63,-68,-29,-9
-146,-48,97,97,-122,24,14,-63,-58,-63,-29,-9
-146,-48,97,97,-122,24,14,-63,-58,-63,-29,-9
-146,-53,92,100,-119,19,14,-63,-58,-63,-29,-4
-146,-53,92,100,-119,19,14,-63,-63,-63,-19,-4
-146,-48,97,97,-122,24,14,-63,-63,-63,-19,-9
-146,-48,97,97,-122,24,19,-63,-63,-63,-19,-9
-151,-48,102,100,-126,26,19,-63,-63,-63,-19,-9
-151,-29,122,90,-136,46,19,-82,-63,-58,-19,0
-151,-14,136,82,-143,61,19,-82,-48,-39,0,14
-161,-14,146,87,-153,65,34,-58,-29,-19,29,19
-161,-29,131,95,-146,51,63,4,19,24,43,29
-146,-39,107,92,-126,34,107,87,87,78,68,29
-131,-39,92,85,-112,26,161,170,156,156,112,58
-112,-29,82,70,-97,26,214,248,229,253,195,102
-73,-14,58,43,-65,21,229,351,341,385,297,161
0,9,9,-4,-4,9,200,478,497,575,424,244
82,63,-19,-73,51,21,180,614,702,814,595,346
165,146,-19,-156,92,63,151,712,922,1058,775,453
219,190,-29,-204,124,80,97,732,1054,1224,883,512
244,180,-63,-212,153,58,14,624,1015,1180,839,483
244,185,-58,-214,151,63,-107,385,805,956,658,409
204,204,0,-204,102,102,-244,131,551,678,458,341
156,185,29,-170,63,107,-326,-53,385,434,273,244
73,43,-29,-58,51,7,-317,-117,253,190,29,29
-14,-161,-146,87,65,-153,-307,-185,117,-53,-244,-214
-92,-273,-180,183,43,-226,-385,-405,-39,-234,-395,-351
-165,-292,-126,229,-19,-209,-483,-673,-229,-395,-468,-390
-239,-302,-63,270,-87,-183,-527,-824,-414,-527,-531,-414
-292,-317,-24,305,-134,-170,-566,-893,-556,-629,-575,-429
-322,-326,-4,324,-158,-165,-624,-976,-683,-702,-590,-419
-312,-336,-24,324,-143,-180,-649,-1029,-766,-732,-590,-409
-287,-312,-24,300,-131,-168,-629,-971,-736,-683,-536,-385
-283,-283,0,283,-141,-141,-570,-883,-644,-590,-463,-336
-273,-248,24,261,-148,-112,-541,-814,-600,-541,-419,-292
-258,-204,53,231,-156,-75,-507,-756,-566,-497,-366,-248
-219,-146,73,183,-146,-36,-463,-663,-497,-439,-302,-190
-204,-117,87,161,-146,-14,-395,-566,-439,-366,-253,-141
-185,-87,97,136,-141,4,-331,-488,-390,-317,-209,-112
-175,-63,112,119,-143,24,-263,-405,-326,-258,-170,-92
-170,-58,112,114,-141,26,-185,-317,-258,-209,-131,-68
-170,-58,112,114,-141,26,-131,-253,-214,-180,-102,-63
-165,-68,97,117,-131,14,-92,-200,-180,-156,-87,-43
-161,-68,92,114,-126,12,-53,-156,-146,-126,-68,-34
-156,-58,97,107,-126,19,-29,-122,-122,-107,-39,-4
-161,-48,112,104,-136,31,-19,-112,-92,-82,-19,14
-156,-34,122,95,-139,43,-14,-92,-68,-53,4,29
-151,-24,126,87,-139,51,-4,-73,-53,-34,24,29
-146,-24,122,85,-134,48,9,-68,-48,-34,19,29
-146,-24,122,85,-134,48,14,-58,-53,-34,14,19
-146,-24,122,85,-134,48,14,-48,-53,-39,4,19
-146,-24,122,85,-134,48,19,-43,-53,-39,0,19
-146,-24,122,85,-134,48,24,-43,-53,-39,0,19
-146,-24,122,85,-134,48,24,-39,-53,-39,4,29
-146,-29,117,87,-131,43,43,-29,-43,-24,24,39
-146,-29,117,87,-131,43,43,-24,-39,-19,29,43
-141,-29,112,85,-126,41,43,-19,-34,-14,34,43
-141,-29,112,85,-126,41,43,-9,-24,-4,34,43
-141,-24,117,82,-129,46,53,-4,-24,-4,34,48
-136,-24,112,80,-124,43,53,-4,-29,-4,34,53
-136,-24,112,80,-124,43,53,-4,-29,-4,34,53
-136,-24,112,80,-124,43,53,0,-29,-4,34,53
-126,-24,102,75,-114,39,63,4,-14,-4,39,53
-126,-24,102,75,-114,39,68,4,-14,0,43,63
-126,-29,97,78,-112,34,68,4,-14,4,43,63
-126,-29,97,78,-112,34,68,14,-4,9,43,63
-136,-24,112,80,-124,43,73,24,-4,9,48,63
-136,-19,117,78,-126,48,73,24,-4,9,48,63
-136,-19,117,78,-126,48,73,24,0,9,53,63
-131,-19,112,75,-122,46,73,29,0,9,53,63
-131,-19,112,75,-122,46,63,29,0,14,53,68
-131,-19,112,75,-122,46,68,34,0,19,58,68
-131,-19,112,75,-122,46,68,39,4,19,58,73
-131,-19,112,75,-122,46,68,39,4,19,58,78
-117,-19,97,68,-107,39,73,34,9,19,58,78
-117,-19,97,68,-107,39,73,39,9,24,58,82
-117,-19,97,68,-107,39,73,43,14,24,63,82
-117,-19,97,68,-107,39,73,43,14,24,63,87
-117,-19,97,68,-107,39,73,53,14,34,73,87
-117,-14,102,65,-109,43,73,58,19,39,78,87
-117,-14,102,65,-109,43,73,58,24,39,78,87
-117,-14,102,65,-109,43,78,63,24,43,87,92
-112,-9,102,61,-107,46,68,78,29,43,78,92
-112,-4,107,58,-109,51,63,78,29,43,78,97
-112,-4,107,58,-109,51,63,82,29,43,78,97
-107,-9,97,58,-102,43,63,87,29,48,78,102
-107,-9,97,58,-102,43,73,78,43,53,87,102
-107,-4,102,56,-104,48,73,78,43,58,92,102
-102,-4,97,53,-100,46,73,87,48,58,92,107
-97,-4,92,51,-95,43,73,92,53,58,97,107
-107,9,117,48,-112,63,78,97,58,68,97,112
-107,14,122,46,-114,68,78,102,58,68,107,112
-102,14,117,43,-109,65,78,102,58,68,112,117
-102,19,122,41,-112,70,73,107,68,73,117,122
-92,19,112,36,-102,65,73,112,73,78,112,117
-82,24,107,29,-95,65,73,117,78,82,117,122
-82,24,107,29,-95,65,73,122,78,82,122,122
-82,29,112,26,-97,70,73,126,78,87,126,122
-82,29,112,26,-97,70,78,131,87,97,136,126
-78,29,107,24,-92,68,78,136,92,102,136,131
-73,29,102,21,-87,65,78,141,97,112,141,136
-73,34,107,19,-90,70,78,146,97,122,146,151
-82,34,117,24,-100,75,78,161,107,126,146,146
-78,39,117,19,-97,78,78,165,112,131,146,151
-78,43,122,17,-100,82,73,175,117,136,151,156
-68,48,117,9,-92,82,73,180,122,146,156,161
-68,53,122,7,-95,87,73,195,126,141,165,161
-68,58,126,4,-97,92,73,204,131,146,165,161
-63,58,122,2,-92,90,73,209,136,146,175,165
-58,58,117,0,-87,87,73,214,141,151,180,165
-53,58,112,-2,-82,85,82,224,141,165,175,170
-48,58,107,-4,-78,82,82,234,146,170,180,180
-43,63,107,-9,-75,85,82,244,156,175,185,185
-43,63,107,-9,-75,85,82,253,161,180,190,185
-39,68,107,-14,-73,87,78,253,165,180,200,200
-34,73,107,-19,-70,90,78,263,170,190,204,204
-29,78,107,-24,-68,92,73,268,170,204,209,204
-29,82,112,-26,-70,97,73,278,175,209,219,209
-24,82,107,-29,-65,95,73,283,180,214,224,214
-19,82,102,-31,-61,92,73,287,185,214,224,219
-14,87,102,-36,-58,95,73,297,190,214,224,224
-9,87,97,-39,-53,92,73,302,200,219,229,229
0,92,92,-46,-46,92,73,317,200,229,239,224
0,102,102,-51,-51,102,73,322,204,239,244,229
0,107,107,-53,-53,107,73,326,209,248,248,234
9,107,97,-58,-43,102,73,331,209,253,253,239
14,107,92,-61,-39,100,73,322,219,263,258,244
14,107,92,-61,-39,100,68,326,224,268,263,248
19,107,87,-63,-34,97,68,331,229,273,268,248
24,112,87,-68,-31,100,68,331,229,278,273,253
24,122,97,-73,-36,109,68,341,234,278,273,258
24,122,97,-73,-36,109,68,351,234,278,273,258
24,122,97,-73,-36,109,68,351,239,283,273,258
24,122,97,-73,-36,109,68,351,239,283,273,263
24,126,102,-75,-39,114,68,351,239,278,278,268
29,126,97,-78,-34,112,68,351,239,278,278,268
29,126,97,-78,-34,112,68,351,234,278,278,268
29,126,97,-78,-34,112,63,351,234,278,283,268
29,122,92,-75,-31,107,63,341,234,278,278,258
29,122,92,-75,-31,107,63,341,234,283,278,258
29,122,92,-75,-31,107,63,341,234,283,278,263
34,117,82,-75,-24,100,63,341,234,283,278,263
34,112,78,-73,-21,95,73,331,234,278,278,258
34,112,78,-73,-21,95,68,326,234,278,278,258
34,117,82,-75,-24,100,68,322,234,278,278,258
29,117,87,-73,-29,102,68,317,234,278,278,258
29,117,87,-73,-29,102,58,302,229,278,278,248
29,117,87,-73,-29,102,58,302,229,278,278,248
19,112,92,-65,-36,102,58,287,224,273,273,248
14,107,92,-61,-39,100,53,283,219,268,268,248
4,117,112,-61,-53,114,53,263,214,258,263,248
0,117,117,-58,-58,117,53,253,209,248,258,239
-4,117,122,-56,-63,119,53,239,204,239,248,234
-9,117,126,-53,-68,122,53,224,200,234,248,229
-14,107,122,-46,-68,114,53,200,185,229,234,224
-19,102,122,-41,-70,112,53,190,180,224,229,219
-24,97,122,-36,-73,109,53,175,175,214,224,219
-29,92,122,-31,-75,107,53,161,165,204,224,214
-34,97,131,-31,-82,114,53,146,170,185,214,209
-39,92,131,-26,-85,112,53,136,161,175,204,204
-48,92,141,-21,-95,117,53,131,151,170,200,200
-53,82,136,-14,-95,109,53,122,146,165,190,190
-58,68,126,-4,-92,97,53,102,126,156,185,170
-68,63,131,2,-100,97,53,82,122,146,180,170
-68,58,126,4,-97,92,53,73,117,136,175,170
-78,53,131,12,-104,92,53,58,112,126,170,165
-97,58,156,19,-126,107,43,48,97,107,156,161
-97,48,146,24,-122,97,43,34,87,102,151,151
-107,48,156,29,-131,102,43,29,82,97,146,141
-112,43,156,34,-134,100,48,24,82,92,141,136
-107,39,146,34,-126,92,48,14,68,92,126,131
-112,34,146,39,-129,90,48,0,53,82,122,126
-117,29,146,43,-131,87,48,0,53,82,117,122
-122,24,146,48,-134,85,48,-4,43,78,117,122
-126,19,146,53,-136,82,48,-9,34,58,102,112
-131,14,146,58,-139,80,48,-14,34,53,97,107
-131,9,141,61,-136,75,48,-19,29,48,97,102
-136,9,146,63,-141,78,48,-24,24,43,92,97
-136,4,141,65,-139,73,48,-29,19,34,87,92
-136,4,141,65,-139,73,48,-29,14,29,82,82
-136,0,136,68,-136,68,48,-29,14,24,78,78
-136,-4,131,70,-134,63,53,-34,9,14,73,78
-141,-4,136,73,-139,65,43,-34,9,24,68,78
-141,-4,136,73,-139,65,43,-39,4,24,63,78
-141,-9,131,75,-136,61,43,-39,4,19,63,78
-146,-9,136,78,-141,63,43,-39,4,19,63,78
-136,0,136,68,-136,68,43,-48,-4,9,63,68
-141,-4,136,73,-139,65,43,-53,-9,9,63,68
-141,-4,136,73,-139,65,43,-53,-9,9,58,68
-141,0,141,70,-141,70,43,-53,-14,4,53,68
-151,-9,141,80,-146,65,43,-43,-14,4,53,78
-151,-9,141,80,-146,65,43,-43,-14,4,53,78
-151,-9,141,80,-146,65,39,-43,-14,4,53,73
-151,-9,141,80,-146,65,39,-48,-14,4,53,73
-156,-19,136,87,-146,58,48,-39,-4,4,53,73
-156,-19,136,87,-146,58,48,-39,-4,0,53,73
-161,-19,141,90,-151,61,48,-39,-9,0,53,73
-161,-19,141,90,-151,61,48,-39,-9,4,53,73
-146,-14,131,80,-139,58,39,-48,-9,0,53,73
-146,-9,136,78,-141,63,39,-48,-9,0,53,68
-146,-4,141,75,-143,68,39,-48,-9,0,53,63
-146,0,146,73,-146,73,39,-48,-9,-4,58,58
-146,9,156,68,-151,82,34,-48,-9,0,58,68
-146,9,156,68,-151,82,34,-48,-9,0,58,68
-146,9,156,68,-151,82,34,-48,-4,4,58,68
-146,9,156,68,-151,82,34,-48,-4,4,63,68
-146,9,156,68,-151,82,48,-48,-4,0,73,78
-146,9,156,68,-151,82,48,-48,-4,0,73,78
-146,14,161,65,-153,87,43,-48,-4,0,73,73
-141,14,156,63,-148,85,43,-48,-4,0,73,73
-141,4,146,68,-143,75,48,-39,-4,0,63,82
-141,9,151,65,-146,80,48,-39,-4,0,63,82
-141,9,151,65,-146,80,48,-39,-4,4,63,82
-141,9,151,65,-146,80,48,-39,0,4,63,82
-146,0,146,73,-146,73,43,-39,0,4,68,73
-146,0,146,73,-146,73,39,-39,0,9,68,73
-146,4,151,70,-148,78,34,-39,0,14,73,73
-146,4,151,70,-148,78,29,-39,0,14,73,78
-136,9,146,63,-141,78,39,-48,-9,9,63,78
-136,9,146,63,-141,78,39,-43,-9,9,68,73
-136,9,146,63,-141,78,39,-43,-9,4,73,68
-131,14,146,58,-139,80,39,-43,-9,4,73,63
-131,4,136,63,-134,70,39,-34,-9,4,68,63
-131,4,136,63,-134,70,39,-34,-9,4,63,68
-131,9,141,61,-136,75,39,-34,-9,4,58,78
-131,9,141,61,-136,75,43,-34,-9,4,53,82
-131,9,141,61,-136,75,34,-43,-9,4,53,92
-131,14,146,58,-139,80,29,-43,-9,4,53,92
-131,14,146,58,-139,80,29,-43,-9,9,58,92
-131,14,146,58,-139,80,24,-43,-9,9,63,92
-131,29,161,51,-146,95,24,-48,0,19,68,87
-131,19,151,56,-141,85,24,-48,-9,14,63,87
-126,19,146,53,-136,82,29,-48,0,19,68,87
-126,19,146,53,-136,82,29,-48,-9,9,58,87
-126,19,146,53,-136,82,29,-48,-9,9,58,87
-126,19,146,53,-136,82,29,-48,-9,9,58,87
-126,19,146,53,-136,82,29,-48,-9,9,58,87
-126,9,136,58,-131,73,29,-48,-19,4,68,78
-126,14,141,56,-134,78,34,-48,-14,4,68,78
-126,19,146,53,-136,82,34,-48,-14,4,68,82
-126,24,151,51,-139,87,34,-48,-4,9,68,82
-126,39,165,43,-146,102,39,-58,-4,14,68,82
-122,39,161,41,-141,100,39,-58,-4,19,73,82
-117,43,161,36,-139,102,39,-58,-4,19,73,82
-117,53,170,31,-143,112,39,-58,-4,19,73,82
-117,68,185,24,-151,126,48,-48,0,24,68,82
-112,73,185,19,-148,129,48,-43,9,24,78,87
-107,82,190,12,-148,136,53,-43,14,29,82,92
-102,87,190,7,-146,139,53,-43,14,29,82,92
-102,92,195,4,-148,143,43,-43,14,29,87,97
-102,97,200,2,-151,148,43,-39,14,29,87,102
-102,102,204,0,-153,153,43,-39,14,34,87,112
-102,102,204,0,-153,153,43,-43,19,34,92,117
-92,112,204,-9,-148,158,34,-43,19,34,92,107
-92,112,204,-9,-148,158,29,-43,19,29,92,107
-92,112,204,-9,-148,158,29,-48,19,29,92,107
-92,122,214,-14,-153,168,29,-48,19,34,92,107
-87,126,214,-19,-151,170,24,-48,19,34,87,107
-78,136,214,-29,-146,175,24,-43,24,39,92,117
-78,146,224,-34,-151,185,24,-43,29,43,97,126
-73,156,229,-41,-151,192,19,-43,34,48,102,126
-68,161,229,-46,-148,195,14,-53,43,58,112,136
-63,156,219,-46,-141,187,9,-58,43,58,112,136
-63,141,204,-39,-134,173,-4,-63,34,58,112,136
-63,131,195,-34,-129,163,-14,-63,29,48,107,131
-63,126,190,-31,-126,158,-14,-68,14,43,97,122
-58,117,175,-29,-117,146,-24,-73,4,34,87,112
-58,117,175,-29,-117,146,-34,-87,-4,19,82,107
-58,107,165,-24,-112,136,-34,-87,-14,19,78,97
-58,107,165,-24,-112,136,-39,-87,-14,19,73,92
-58,102,161,-21,-109,131,-39,-87,-19,9,68,87
-58,97,156,-19,-107,126,-39,-87,-24,9,68,82
-58,97,156,-19,-107,126,-39,-82,-24,9,68,82
-53,92,146,-19,-100,119,-48,-92,-34,9,68,87
-53,82,136,-14,-95,109,-39,-92,-48,0,58,87
-68,68,136,0,-102,102,-39,-82,-48,0,58,92
-68,63,131,2,-100,97,-29,-82,-43,0,58,92
-82,63,146,9,-114,104,-14,-73,-43,-9,48,82
-97,53,151,21,-124,102,-9,-73,-43,-19,48,73
-107,39,146,34,-126,92,-4,-73,-53,-19,39,63
-117,29,146,43,-131,87,0,-68,-58,-24,29,53
-122,14,136,53,-129,75,0,-68,-53,-29,34,48
-131,4,136,63,-134,70,0,-78,-58,-29,29,39
-131,4,136,63,-134,70,0,-78,-63,-34,14,29
-136,0,136,68,-136,68,0,-82,-73,-39,4,29
-141,-4,136,73,-139,65,0,-92,-68,-53,-4,29
-141,-9,131,75,-136,61,0,-92,-73,-53,-4,24
-141,-9,131,75,-136,61,0,-97,-73,-58,-4,24
-141,-9,131,75,-136,61,-4,-97,-73,-58,-4,24
-141,0,141,70,-141,70,-4,-97,-78,-68,-4,19
-146,0,146,73,-146,73,0,-97,-82,-68,-9,14
-146,-4,141,75,-143,68,0,-97,-87,-68,-9,9
-146,-4,141,75,-143,68,0,-97,-92,-68,-9,4
-146,-14,131,80,-139,58,0,-87,-82,-78,-19,14
-146,-14,131,80,-139,58,0,-87,-82,-82,-19,14
-146,-14,131,80,-139,58,0,-82,-82,-82,-19,9
-146,-14,131,80,-139,58,0,-82,-82,-82,-19,9
-146,-14,131,80,-139,58,9,-82,-82,-68,-19,0
-146,-14,131,80,-139,58,9,-82,-82,-68,-19,4
-146,-14,131,80,-139,58,9,-82,-82,-68,-19,4
-146,-14,131,80,-139,58,9,-82,-78,-63,-19,4
-146,-14,131,80,-139,58,9,-78,-78,-58,-14,4
-146,-14,131,80,-139,58,9,-78,-73,-58,-14,9
-146,-9,136,78,-141,63,9,-78,-73,-58,-9,9
-146,-9,136,78,-141,63,14,-78,-73,-58,-9,9
-156,-9,146,82,-151,68,4,-73,-73,-58,0,0
-156,-9,146,82,-151,68,4,-73,-68,-53,0,0
-156,-9,146,82,-151,68,4,-73,-68,-53,0,0
-156,-14,141,85,-148,63,4,-73,-68,-53,0,4
-146,-14,131,80,-139,58,4,-82,-63,-43,-9,14
-146,-9,136,78,-141,63,4,-82,-63,-43,-9,9
-146,-9,136,78,-141,63,9,-82,-63,-43,-9,9
-151,-9,141,80,-146,65,9,-82,-63,-43,-9,9
-141,9,151,65,-146,80,9,-92,-63,-48,9,29
-141,24,165,58,-153,95,0,-92,-48,-39,19,34
-141,24,165,58,-153,95,14,-58,-29,-19,39,39
-141,9,151,65,-146,80,63,4,19,24,53,39
-136,0,136,68,-136,68,107,87,68,78,78,39
-122,9,131,56,-126,70,161,170,126,146,112,48
-102,9,112,46,-107,61,214,258,200,234,175,82
-43,14,58,14,-51,36,229,370,302,366,268,141
29,29,0,-29,14,14,200,507,458,527,385,204
112,92,-19,-102,65,36,180,663,663,756,556,317
195,165,-29,-180,112,68,141,761,863,1000,736,434
258,209,-48,-234,153,80,87,761,966,1137,814,473
292,200,-92,-246,192,53,14,634,897,1073,751,424
283,195,-87,-239,185,53,-107,385,697,849,590,361
253,224,-29,-239,141,97,-244,122,463,590,400,302
195,214,19,-204,87,117,-326,-63,307,356,224,195
102,63,-39,-82,70,12,-317,-136,185,112,-29,-19
14,-141,-156,63,85,-148,-317,-214,58,-131,-292,-283
-63,-253,-190,158,63,-222,-395,-434,-87,-302,-444,-409
-156,-273,-117,214,-19,-195,-483,-702,-268,-444,-497,-429
-239,-283,-43,261,-97,-163,-527,-854,-424,-556,-561,-444
-292,-297,-4,295,-143,-151,-556,-922,-566,-639,-595,-458
-322,-307,14,314,-168,-146,-614,-1024,-702,-712,-619,-458
-322,-297,24,309,-173,-136,-639,-1068,-775,-751,-610,-439
-297,-273,24,285,-161,-124,-619,-1010,-727,-692,-556,-405
-273,-234,39,253,-156,-97,-580,-922,-634,-600,-473,-366
-263,-200,63,231,-163,-68,-551,-854,-590,-561,-429,-331
-248,-165,82,207,-165,-41,-517,-785,-556,-517,-385,-278
-219,-126,92,173,-156,-17,-463,-683,-507,-458,-331,-229
-195,-78,117,136,-156,19,-405,-585,-458,-395,-283,-190
-185,-48,136,117,-161,43,-341,-497,-419,-356,-248,-151
-175,-24,151,100,-163,63,-263,-424,-356,-297,-209,-112
-161,-19,141,90,-151,61,-195,-336,-287,-239,-161,-97
-151,-19,131,85,-141,56,-131,-273,-224,-200,-131,-82
-146,-29,117,87,-131,43,-82,-209,-180,-165,-97,-63
-151,-19,131,85,-141,56,-53,-165,-146,-136,-78,-63
-146,-9,136,78,-141,63,-48,-131,-131,-117,-58,-43
-141,0,141,70,-141,70,-39,-112,-112,-102,-48,-34
-136,4,141,65,-139,73,-24,-92,-97,-82,-43,-19
-131,4,136,63,-134,70,-4,-73,-92,-63,-34,-9
-126,4,131,61,-129,68,0,-68,-78,-63,-39,-9
-126,4,131,61,-129,68,4,-58,-63,-63,-34,-9
-126,4,131,61,-129,68,9,-48,-73,-68,-24,-19
-126,4,131,61,-129,68,19,-43,-73,-68,-29,-19
-126,4,131,61,-129,68,29,-43,-73,-68,-29,-19
-126,4,131,61,-129,68,34,-39,-73,-68,-24,-9
-126,19,146,53,-136,82,43,-39,-53,-53,-14,-9
-126,19,146,53,-136,82,43,-34,-48,-48,-9,-4
-122,19,141,51,-131,80,43,-29,-43,-43,-4,-4
-122,19,141,51,-131,80,43,-19,-34,-34,-4,-4
-112,24,136,43,-124,80,48,-14,-43,-43,-14,-9
-107,24,131,41,-119,78,43,-14,-48,-43,-14,-4
-107,24,131,41,-119,78,39,-14,-48,-43,-14,-4
-107,24,131,41,-119,78,34,-9,-48,-43,-14,-4
-107,14,122,46,-114,68,43,4,-43,-43,-9,-4
-107,14,122,46,-114,68,48,4,-43,-39,-4,4
-107,9,117,48,-112,63,48,4,-43,-34,-4,4
-107,9,117,48,-112,63,48,14,-34,-29,-4,4
-117,24,141,46,-129,82,53,4,-43,-39,-9,-4
-117,29,146,43,-131,87,53,4,-43,-39,-9,-4
-117,29,146,43,-131,87,53,4,-39,-39,-4,-4
-112,29,141,41,-126,85,53,9,-39,-39,-4,-4
-102,39,141,31,-122,90,53,19,-29,-34,-14,-9
-102,39,141,31,-122,90,58,24,-29,-29,-9,-9
-102,39,141,31,-122,90,58,29,-24,-29,-9,-4
-102,39,141,31,-122,90,58,29,-24,-29,-9,0
-107,29,136,39,-122,82,63,34,-29,-29,-19,-4
-107,29,136,39,-122,82,63,39,-29,-24,-19,-4
-107,29,136,39,-122,82,63,43,-24,-24,-14,-9
-107,29,136,39,-122,82,63,43,-24,-24,-14,-9
-97,29,126,34,-112,78,53,34,-14,-24,-14,-9
-97,34,131,31,-114,82,53,39,-9,-19,-9,-9
-97,34,131,31,-114,82,53,39,-4,-19,-9,-9
-97,34,131,31,-114,82,58,43,-4,-14,0,-4
-92,39,131,26,-112,85,58,58,0,4,9,4
-92,43,136,24,-114,90,53,58,0,4,9,9
-92,43,136,24,-114,90,53,63,0,4,9,9
-87,39,126,24,-107,82,53,68,0,9,9,14
-87,39,126,24,-107,82,53,68,4,4,9,4
-87,43,131,21,-109,87,53,68,4,9,14,4
-82,43,126,19,-104,85,53,78,9,9,14,9
-78,43,122,17,-100,82,53,82,14,9,19,9
-78,48,126,14,-102,87,48,78,9,24,9,14
-78,53,131,12,-104,92,48,82,9,19,19,14
-73,53,126,9,-100,90,48,82,9,14,24,19
-73,58,131,7,-102,95,43,87,19,14,29,24
-82,58,141,12,-112,100,53,102,24,9,29,24
-73,63,136,4,-104,100,53,107,29,14,29,24
-73,63,136,4,-104,100,53,112,29,14,29,19
-73,68,141,2,-107,104,53,117,29,19,29,14
-73,58,131,7,-102,95,58,122,29,24,19,14
-68,58,126,4,-97,92,58,126,34,24,19,14
-63,58,122,2,-92,90,58,131,39,29,24,14
-63,63,126,0,-95,95,58,136,39,34,29,24
-53,73,126,-9,-90,100,58,141,39,39,39,19
-48,78,126,-14,-87,102,58,146,43,43,39,24
-48,82,131,-17,-90,107,53,156,48,48,43,29
-39,87,126,-24,-82,107,53,161,53,58,48,34
-39,92,131,-26,-85,112,53,165,68,73,48,34
-39,97,136,-29,-87,117,53,175,73,78,48,34
-34,97,131,-31,-82,114,53,180,78,78,58,39
-29,97,126,-34,-78,112,53,185,82,82,63,39
-24,87,112,-31,-68,100,53,195,82,87,78,48
-19,87,107,-34,-63,97,53,204,87,92,82,63
-14,92,107,-39,-61,100,53,214,97,97,87,73
-14,92,107,-39,-61,100,53,224,102,102,92,78
-9,97,107,-43,-58,102,48,234,117,102,97,73
-4,102,107,-48,-56,104,48,244,122,112,97,78
0,107,107,-53,-53,107,43,248,122,126,97,78
0,112,112,-56,-56,112,43,258,126,131,102,82
-4,112,117,-53,-61,114,43,263,131,136,107,82
0,112,112,-56,-56,112,43,268,136,136,107,82
4,117,112,-61,-53,114,43,278,141,136,107,82
9,117,107,-63,-48,112,43,283,151,141,112,82
19,112,92,-65,-36,102,43,287,161,156,126,87
19,122,102,-70,-41,112,43,292,165,170,136,92
19,126,107,-73,-43,117,43,297,170,185,146,97
29,126,97,-78,-34,112,43,302,170,195,156,102
34,136,102,-85,-34,119,34,292,170,185,156,107
34,136,102,-85,-34,119,29,297,175,190,156,112
39,136,97,-87,-29,117,29,302,180,195,156,112
43,141,97,-92,-26,119,29,302,180,200,156,117
43,141,97,-92,-26,119,29,302,185,200,165,122
43,141,97,-92,-26,119,29,312,185,200,165,122
43,141,97,-92,-26,119,29,312,190,204,165,122
43,141,97,-92,-26,119,29,312,190,204,165,126
43,136,92,-90,-24,114,39,312,190,200,165,122
48,136,87,-92,-19,112,39,312,190,200,161,122
48,136,87,-92,-19,112,39,312,185,200,156,122
48,136,87,-92,-19,112,34,312,185,200,156,122
48,141,92,-95,-21,117,24,302,185,190,151,122
48,141,92,-95,-21,117,24,302,185,195,151,122
48,141,92,-95,-21,117,24,302,185,195,151,126
53,136,82,-95,-14,109,24,302,185,195,151,126
53,136,82,-95,-14,109,14,292,195,200,141,117
53,141,87,-97,-17,114,9,287,195,200,141,112
53,151,97,-102,-21,124,9,283,195,200,141,107
48,156,107,-102,-29,131,9,278,195,200,141,102
48,146,97,-97,-24,122,19,263,180,195,141,102
48,146,97,-97,-24,122,19,263,180,190,141,102
39,141,102,-90,-31,122,19,248,175,180,136,102
34,136,102,-85,-34,119,14,244,170,170,131,102
34,136,102,-85,-34,119,24,234,175,180,126,102
29,136,107,-82,-39,122,24,224,170,170,122,92
24,136,112,-80,-43,124,24,209,165,161,112,87
19,136,117,-78,-48,126,24,195,161,156,112,82
14,146,131,-80,-58,139,14,170,146,141,97,73
9,141,131,-75,-61,136,14,161,141,136,92,63
4,136,131,-70,-63,134,14,146,136,126,87,58
0,131,131,-65,-65,131,14,131,126,117,87,48
-14,126,141,-56,-78,134,4,117,122,107,78,53
-19,122,141,-51,-80,131,4,107,112,97,68,48
-29,122,151,-46,-90,136,4,102,102,92,63,43
-34,112,146,-39,-90,129,4,92,97,87,53,34
-48,97,146,-24,-97,122,9,73,82,68,39,14
-58,92,151,-17,-104,122,14,53,73,58,34,14
-58,87,146,-14,-102,117,19,43,63,48,29,14
-68,82,151,-7,-109,117,24,29,53,39,24,9
-68,78,146,-4,-107,112,24,29,39,24,4,-9
-68,68,136,0,-102,102,24,14,29,14,-4,-24
-78,68,146,4,-112,107,24,9,24,4,-14,-39
-82,63,146,9,-114,104,29,4,24,-4,-24,-48
-87,68,156,9,-122,112,29,-4,9,-24,-39,-43
-92,63,156,14,-124,109,29,-19,-4,-34,-43,-48
-97,58,156,19,-126,107,29,-19,-4,-34,-48,-53
-102,53,156,24,-129,104,29,-24,-14,-39,-48,-53
-107,48,156,29,-131,102,29,-29,-14,-39,-53,-63
-112,43,156,34,-134,100,29,-34,-14,-43,-58,-68
-112,39,151,36,-131,95,29,-39,-19,-48,-58,-73
-117,39,156,39,-136,97,29,-43,-24,-53,-63,-78
-117,43,161,36,-139,102,24,-48,-34,-63,-78,-82
-117,43,161,36,-139,102,19,-48,-43,-68,-82,-92
-117,39,156,39,-136,97,14,-48,-48,-73,-87,-97
-117,34,151,41,-134,92,14,-53,-58,-82,-92,-97
-122,34,156,43,-139,95,14,-53,-58,-82,-97,-92
-122,34,156,43,-139,95,14,-58,-63,-82,-102,-97
-122,29,151,46,-136,90,14,-58,-63,-87,-102,-102
-126,29,156,48,-141,92,14,-58,-63,-87,-102,-107
-117,29,146,43,-131,87,24,-58,-53,-87,-92,-97
-122,24,146,48,-134,85,24,-63,-58,-87,-92,-97
-122,24,146,48,-134,85,24,-63,-58,-87,-97,-97
-122,29,151,46,-136,90,24,-63,-63,-92,-102,-97
-122,29,151,46,-136,90,24,-63,-63,-102,-112,-107
-122,29,151,46,-136,90,24,-63,-63,-102,-112,-107
-122,29,151,46,-136,90,19,-63,-63,-102,-112,-112
-122,29,151,46,-136,90,19,-68,-63,-102,-112,-112
-126,19,146,53,-136,82,19,-68,-73,-112,-117,-117
-126,19,146,53,-136,82,19,-68,-73,-117,-122,-122
-131,19,151,56,-141,85,19,-68,-78,-117,-126,-126
-131,19,151,56,-141,85,19,-68,-78,-112,-131,-131
-126,29,156,48,-141,92,9,-68,-78,-107,-122,-126
-126,29,156,48,-141,92,9,-68,-78,-107,-122,-126
-126,29,156,48,-141,92,9,-68,-78,-107,-122,-126
-126,29,156,48,-141,92,9,-68,-78,-112,-117,-126
-126,29,156,48,-141,92,9,-68,-78,-117,-126,-117
-126,29,156,48,-141,92,14,-68,-78,-117,-126,-117
-126,29,156,48,-141,92,19,-68,-73,-112,-126,-117
-126,29,156,48,-141,92,24,-68,-73,-112,-122,-117
-136,19,156,58,-146,87,19,-68,-73,-117,-131,-117
-136,19,156,58,-146,87,19,-68,-73,-117,-131,-117
-136,24,161,56,-148,92,14,-68,-73,-117,-131,-122
-131,24,156,53,-143,90,14,-68,-73,-117,-131,-122
-131,24,156,53,-143,90,9,-68,-73,-117,-122,-122
-131,29,161,51,-146,95,9,-68,-73,-117,-122,-122
-131,29,161,51,-146,95,9,-68,-73,-112,-122,-122
-131,29,161,51,-146,95,9,-68,-68,-112,-122,-122
-126,29,156,48,-141,92,9,-68,-68,-112,-126,-122
-126,29,156,48,-141,92,9,-68,-68,-107,-126,-122
-126,34,161,46,-143,97,9,-68,-68,-102,-122,-122
-126,34,161,46,-143,97,9,-68,-68,-102,-122,-117
-126,29,156,48,-141,92,9,-78,-78,-102,-131,-117
-126,29,156,48,-141,92,9,-73,-78,-107,-126,-122
-126,29,156,48,-141,92,9,-73,-78,-117,-122,-126
-122,34,156,43,-139,95,9,-73,-78,-122,-122,-131
-122,34,156,43,-139,95,0,-63,-68,-112,-131,-131
-122,34,156,43,-139,95,0,-63,-68,-112,-131,-126
-122,39,161,41,-141,100,0,-63,-68,-112,-131,-117
-122,39,161,41,-141,100,4,-63,-68,-112,-131,-112
-122,29,151,46,-136,90,4,-63,-68,-112,-131,-122
-122,34,156,43,-139,95,0,-63,-68,-112,-131,-122
-122,34,156,43,-139,95,0,-63,-68,-107,-126,-122
-122,34,156,43,-139,95,-4,-63,-68,-107,-122,-122
-122,39,161,41,-141,100,4,-58,-68,-107,-117,-126
-112,39,151,36,-131,95,4,-58,-68,-112,-122,-126
-112,39,151,36,-131,95,4,-58,-78,-122,-126,-131
-126,39,165,43,-146,102,9,-68,-78,-126,-136,-136
-126,48,175,39,-151,112,9,-68,-87,-126,-126,-136
-126,48,175,39,-151,112,9,-68,-87,-126,-126,-136
-126,48,175,39,-151,112,9,-68,-87,-126,-126,-136
-126,48,175,39,-151,112,9,-68,-87,-126,-126,-136
-117,43,161,36,-139,102,0,-68,-87,-122,-126,-136
-117,43,161,36,-139,102,4,-68,-82,-122,-126,-136
-117,43,161,36,-139,102,4,-68,-82,-122,-126,-131
-117,43,161,36,-139,102,4,-68,-73,-117,-126,-131
-117,48,165,34,-141,107,9,-68,-63,-102,-117,-122
-112,48,161,31,-136,104,9,-68,-63,-97,-112,-122
-107,53,161,26,-134,107,9,-68,-63,-97,-112,-122
-107,63,170,21,-139,117,9,-68,-63,-97,-112,-122
-107,73,180,17,-143,126,0,-68,-68,-102,-112,-131
-102,82,185,9,-143,134,0,-63,-58,-102,-107,-126
-97,97,195,0,-146,146,4,-63,-53,-97,-107,-122
-92,107,200,-7,-146,153,4,-63,-53,-97,-112,-122
-82,102,185,-9,-134,143,4,-63,-53,-97,-117,-122
-82,107,190,-12,-136,148,4,-58,-53,-97,-117,-122
-82,112,195,-14,-139,153,4,-58,-53,-92,-117,-117
-82,112,195,-14,-139,153,4,-63,-48,-92,-112,-117
-73,102,175,-14,-124,139,4,-63,-48,-92,-112,-117
-73,102,175,-14,-124,139,0,-63,-48,-97,-112,-117
-73,102,175,-14,-124,139,0,-68,-48,-97,-112,-117
-73,112,185,-19,-129,148,0,-68,-48,-92,-112,-117
-78,126,204,-24,-141,165,-14,-78,-39,-92,-97,-107
-68,136,204,-34,-136,170,-14,-73,-34,-87,-92,-97
-68,146,214,-39,-141,180,-14,-73,-29,-82,-87,-87
-63,156,219,-46,-141,187,-19,-73,-24,-78,-82,-87
-48,165,214,-58,-131,190,-19,-73,-14,-68,-92,-97
-43,165,209,-61,-126,187,-19,-78,-14,-68,-92,-97
-43,156,200,-56,-122,178,-29,-82,-24,-68,-92,-97
-43,151,195,-53,-119,173,-34,-82,-29,-78,-97,-102
-43,136,180,-46,-112,158,-53,-87,-53,-82,-97,-97
-39,126,165,-43,-102,146,-63,-92,-63,-92,-107,-102
-39,126,165,-43,-102,146,-73,-107,-73,-107,-112,-102
-39,117,156,-39,-97,136,-73,-107,-82,-107,-117,-107
-39,107,146,-34,-92,126,-68,-117,-73,-107,-122,-122
-39,102,141,-31,-90,122,-68,-117,-78,-117,-126,-126
-39,97,136,-29,-87,117,-68,-117,-82,-117,-126,-131
-39,97,136,-29,-87,117,-68,-112,-82,-117,-126,-131
-43,92,136,-24,-90,114,-68,-102,-92,-126,-136,-131
-43,82,126,-19,-85,104,-58,-102,-107,-136,-146,-136
-58,68,126,-4,-92,97,-58,-92,-107,-136,-146,-136
-58,63,122,-2,-90,92,-48,-92,-102,-136,-146,-141
-63,63,126,0,-95,95,-34,-92,-92,-126,-146,-146
-78,53,131,12,-104,92,-29,-92,-92,-136,-146,-151
-87,39,126,24,-107,82,-24,-92,-102,-136,-156,-156
-97,29,126,34,-112,78,-19,-87,-107,-141,-165,-161
-92,24,117,34,-104,70,-19,-87,-112,-151,-170,-175
