I,II,III,aVR,aVL,aVF,V1,V2,V3,V4,V5,V6
78,263,185,-170,-53,224,39,751,624,566,370,312
78,263,185,-170,-53,224,39,751,624,566,370,312
78,263,185,-170,-53,224,39,751,624,566,370,312
78,263,185,-170,-53,224,39,751,624,566,370,312
87,263,175,-175,-43,219,29,727,600,546,366,307
87,263,175,-175,-43,219,19,702,585,536,361,302
87,263,175,-175,-43,219,9,678,570,527,356,297
87,263,175,-175,-43,219,0,653,556,517,351,292
78,248,170,-163,-46,209,-14,629,527,502,336,283
78,244,165,-161,-43,204,-19,605,507,488,322,273
78,239,161,-158,-41,200,-24,580,488,473,307,263
78,234,156,-156,-39,195,-29,556,468,458,292,253
73,234,161,-153,-43,197,-39,517,444,429,278,244
68,234,165,-151,-48,200,-48,488,419,409,263,234
63,234,170,-148,-53,202,-58,458,395,390,248,224
58,234,175,-146,-58,204,-68,429,370,370,234,214
48,214,165,-131,-58,190,-78,400,341,346,204,195
48,204,156,-126,-53,180,-87,370,312,322,185,175
48,195,146,-122,-48,170,-97,341,283,297,165,156
48,185,136,-117,-43,161,-107,312,253,273,146,136
34,170,136,-102,-51,153,-112,283,234,258,136,122
29,156,126,-92,-48,141,-117,263,214,244,126,117
24,141,117,-82,-46,129,-122,244,195,229,117,112
19,126,107,-73,-43,117,-126,224,175,214,107,107
9,112,102,-61,-46,107,-131,200,146,195,92,97
0,107,107,-53,-53,107,-136,175,126,175,78,87
-9,102,112,-46,-61,107,-141,151,107,156,63,78
-19,97,117,-39,-68,107,-146,126,87,136,48,68
-29,87,117,-29,-73,102,-161,107,68,112,24,43
-29,78,107,-24,-68,92,-165,87,48,97,9,29
-29,68,97,-19,-63,82,-170,68,29,82,-4,14
-29,58,87,-14,-58,73,-175,48,9,68,-19,0
-29,43,73,-7,-51,58,-185,29,0,53,-29,-14
-29,39,68,-4,-48,53,-185,19,-9,39,-39,-19
-29,34,63,-2,-46,48,-185,9,-19,24,-48,-24
-29,29,58,0,-43,43,-185,0,-29,9,-58,-29
-34,19,53,7,-43,36,-185,-14,-43,4,-63,-39
-39,9,48,14,-43,29,-185,-19,-48,0,-68,-39
-43,0,43,21,-43,21,-185,-24,-53,-4,-73,-39
-48,-9,39,29,-43,14,-185,-29,-58,-9,-78,-39
-58,-14,43,36,-51,14,-190,-43,-73,-24,-92,-53
-68,-19,48,43,-58,14,-195,-48,-78,-29,-97,-58
-78,-24,53,51,-65,14,-200,-53,-82,-34,-102,-63
-87,-29,58,58,-73,14,-204,-58,-87,-39,-107,-68
-78,-29,48,53,-63,9,-204,-63,-92,-43,-117,-73
-78,-29,48,53,-63,9,-204,-68,-97,-48,-117,-78
-78,-29,48,53,-63,9,-204,-73,-102,-53,-117,-82
-78,-29,48,53,-63,9,-204,-78,-107,-58,-117,-87
-87,-29,58,58,-73,14,-204,-87,-117,-68,-126,-87
-87,-29,58,58,-73,14,-204,-87,-117,-68,-126,-87
-87,-29,58,58,-73,14,-204,-87,-117,-68,-126,-87
-87,-29,58,58,-73,14,-204,-87,-117,-68,-126,-87
-82,-43,39,63,-61,-2,-214,-97,-126,-78,-131,-97
-78,-48,29,63,-53,-9,-214,-97,-126,-78,-136,-97
-73,-53,19,63,-46,-17,-214,-97,-126,-78,-141,-97
-68,-58,9,63,-39,-24,-214,-97,-126,-78,-146,-97
-73,-58,14,65,-43,-21,-204,-97,-117,-78,-136,-97
-78,-58,19,68,-48,-19,-204,-97,-117,-78,-136,-97
-82,-58,24,70,-53,-17,-204,-97,-117,-78,-136,-97
-87,-58,29,73,-58,-14,-204,-97,-117,-78,-136,-97
-78,-58,19,68,-48,-19,-195,-82,-117,-73,-126,-87
-78,-58,19,68,-48,-19,-195,-78,-117,-68,-126,-87
-78,-58,19,68,-48,-19,-195,-73,-117,-63,-126,-87
-78,-58,19,68,-48,-19,-195,-68,-117,-58,-126,-87
-92,-43,48,68,-70,2,-195,-73,-126,-68,-136,-97
-97,-39,58,68,-78,9,-195,-78,-126,-68,-136,-97
-102,-34,68,68,-85,17,-195,-82,-126,-68,-136,-97
-107,-29,78,68,-92,24,-195,-87,-126,-68,-136,-97
-102,-43,58,73,-80,7,-200,-92,-136,-73,-146,-102
-97,-48,48,73,-73,0,-204,-97,-136,-78,-146,-107
-92,-53,39,73,-65,-7,-209,-102,-136,-82,-146,-112
-87,-58,29,73,-58,-14,-214,-107,-136,-87,-146,-117
-82,-73,9,78,-46,-31,-200,-92,-122,-73,-141,-102
-78,-78,0,78,-39,-39,-195,-87,-117,-68,-136,-97
-73,-82,-9,78,-31,-46,-190,-82,-112,-63,-131,-92
-68,-87,-19,78,-24,-53,-185,-78,-107,-58,-126,-87
-73,-68,4,70,-39,-31,-185,-68,-97,-58,-126,-87
-78,-58,19,68,-48,-19,-185,-68,-97,-58,-126,-87
-82,-48,34,65,-58,-7,-185,-68,-97,-58,-126,-87
-87,-39,48,63,-68,4,-185,-68,-97,-58,-126,-87
-102,-29,73,65,-87,21,-175,-58,-97,-58,-117,-78
-107,-29,78,68,-92,24,-175,-58,-97,-58,-117,-78
-112,-29,82,70,-97,26,-175,-58,-97,-58,-117,-78
-117,-29,87,73,-102,29,-175,-58,-97,-58,-117,-78
-107,-43,63,75,-85,9,-175,-68,-97,-58,-117,-78
-107,-48,58,78,-82,4,-175,-68,-97,-58,-117,-78
-107,-53,53,80,-80,0,-175,-68,-97,-58,-117,-78
-107,-58,48,82,-78,-4,-175,-68,-97,-58,-117,-78
-92,-43,48,68,-70,2,-175,-78,-107,-68,-126,-82
-78,-39,39,58,-58,0,-175,-78,-107,-68,-126,-87
-63,-34,29,48,-46,-2,-175,-78,-107,-68,-126,-92
-48,-29,19,39,-34,-4,-175,-78,-107,-68,-126,-97
-68,-43,24,56,-46,-9,-175,-68,-97,-58,-126,-97
-78,-48,29,63,-53,-9,-175,-68,-97,-58,-126,-97
-87,-53,34,70,-61,-9,-175,-68,-97,-58,-126,-97
-97,-58,39,78,-68,-9,-175,-68,-97,-58,-126,-97
-97,-68,29,82,-63,-19,-185,-58,-97,-68,-136,-107
-97,-78,19,87,-58,-29,-185,-58,-97,-68,-136,-107
-97,-87,9,92,-53,-39,-185,-58,-97,-68,-136,-107
-97,-97,0,97,-48,-48,-185,-58,-97,-68,-136,-107
-82,-73,9,78,-46,-31,-170,-53,-92,-63,-131,-92
-78,-58,19,68,-48,-19,-165,-48,-87,-58,-126,-87
-73,-43,29,58,-51,-7,-161,-43,-82,-53,-122,-82
-68,-29,39,48,-53,4,-156,-39,-78,-48,-117,-78
-87,-19,68,53,-78,24,-156,-39,-73,-48,-107,-78
-97,-19,78,58,-87,29,-156,-39,-68,-48,-107,-78
-107,-19,87,63,-97,34,-156,-39,-63,-48,-107,-78
-117,-19,97,68,-107,39,-156,-39,-58,-48,-107,-78
-112,-34,78,73,-95,21,-156,-48,-63,-48,-117,-87
-107,-48,58,78,-82,4,-156,-48,-68,-48,-117,-87
-102,-63,39,82,-70,-12,-156,-48,-73,-48,-117,-87
-97,-78,19,87,-58,-29,-156,-48,-78,-48,-117,-87
-87,-68,19,78,-53,-24,-165,-48,-78,-48,-117,-78
-78,-58,19,68,-48,-19,-165,-48,-78,-48,-117,-78
-68,-48,19,58,-43,-14,-165,-48,-78,-48,-117,-78
-58,-39,19,48,-39,-9,-165,-48,-78,-48,-117,-78
-78,-53,24,65,-51,-14,-161,-39,-78,-39,-117,-78
-87,-58,29,73,-58,-14,-156,-39,-78,-39,-117,-78
-97,-63,34,80,-65,-14,-151,-39,-78,-39,-117,-78
-107,-68,39,87,-73,-14,-146,-39,-78,-39,-117,-78
-102,-53,48,78,-75,-2,-156,-39,-78,-39,-107,-78
-97,-39,58,68,-78,9,-156,-39,-78,-39,-107,-78
-92,-24,68,58,-80,21,-156,-39,-78,-39,-107,-78
-87,-9,78,48,-82,34,-156,-39,-78,-39,-107,-78
-78,-14,63,46,-70,24,-151,-29,-68,-34,-97,-68
-78,-19,58,48,-68,19,-146,-29,-68,-29,-97,-68
-78,-24,53,51,-65,14,-141,-29,-68,-24,-97,-68
-78,-29,48,53,-63,9,-136,-29,-68,-19,-97,-68
-78,-43,34,61,-56,-4,-141,-43,-73,-34,-102,-78
-78,-48,29,63,-53,-9,-146,-48,-78,-39,-107,-78
-78,-53,24,65,-51,-14,-151,-53,-82,-43,-112,-78
-78,-58,19,68,-48,-19,-156,-58,-87,-48,-117,-78
-73,-43,29,58,-51,-7,-165,-68,-97,-48,-117,-78
-68,-39,29,53,-48,-4,-165,-68,-97,-48,-117,-78
-63,-34,29,48,-46,-2,-165,-68,-97,-48,-117,-78
-58,-29,29,43,-43,0,-165,-68,-97,-48,-117,-78
-63,-48,14,56,-39,-17,-156,-58,-87,-48,-107,-78
-68,-58,9,63,-39,-24,-156,-58,-87,-48,-107,-78
-73,-68,4,70,-39,-31,-156,-58,-87,-48,-107,-78
-78,-78,0,78,-39,-39,-156,-58,-87,-48,-107,-78
-73,-68,4,70,-39,-31,-170,-68,-102,-63,-112,-87
-68,-58,9,63,-39,-24,-175,-78,-107,-68,-117,-87
-63,-48,14,56,-39,-17,-180,-87,-112,-73,-122,-87
-58,-39,19,48,-39,-9,-185,-97,-117,-78,-126,-87
-68,-53,14,61,-41,-19,-175,-87,-102,-68,-112,-73
-78,-58,19,68,-48,-19,-165,-78,-97,-58,-107,-68
-87,-63,24,75,-56,-19,-156,-68,-92,-48,-102,-63
-97,-68,29,82,-63,-19,-146,-58,-87,-39,-97,-58
-82,-53,29,68,-56,-12,-136,-58,-78,-39,-97,-68
-78,-39,39,58,-58,0,-136,-58,-78,-39,-97,-68
-73,-24,48,48,-61,12,-136,-58,-78,-39,-97,-68
-68,-9,58,39,-63,24,-136,-58,-78,-39,-97,-68
-78,0,78,39,-78,39,-126,-68,-78,-29,-87,-63
-87,0,87,43,-87,43,-126,-68,-78,-29,-87,-58
-97,0,97,48,-97,48,-126,-68,-78,-29,-87,-53
-107,0,107,53,-107,53,-126,-68,-78,-29,-87,-48
-97,-9,87,53,-92,39,-117,-68,-78,-39,-78,-58
-97,-19,78,58,-87,29,-117,-68,-78,-39,-78,-58
-97,-29,68,63,-82,19,-117,-68,-78,-39,-78,-58
-97,-39,58,68,-78,9,-117,-68,-78,-39,-78,-58
-87,-39,48,63,-68,4,-107,-68,-78,-39,-87,-68
-87,-39,48,63,-68,4,-107,-68,-78,-39,-87,-68
-87,-39,48,63,-68,4,-107,-68,-78,-39,-87,-68
-87,-39,48,63,-68,4,-107,-68,-78,-39,-87,-68
-87,-19,68,53,-78,24,-107,-58,-68,-39,-78,-63
-87,0,87,43,-87,43,-107,-58,-68,-39,-78,-58
-87,19,107,34,-97,63,-107,-58,-68,-39,-78,-53
-87,39,126,24,-107,82,-107,-58,-68,-39,-78,-48
-87,48,136,19,-112,92,-117,-73,-58,-29,-78,-48
-87,48,136,19,-112,92,-117,-78,-58,-29,-78,-48
-87,48,136,19,-112,92,-117,-82,-58,-29,-78,-48
-87,48,136,19,-112,92,-117,-87,-58,-29,-78,-48
-78,43,122,17,-100,82,-131,-97,-63,-39,-78,-48
-78,39,117,19,-97,78,-136,-97,-68,-39,-78,-48
-78,34,112,21,-95,73,-141,-97,-73,-39,-78,-48
-78,29,107,24,-92,68,-146,-97,-78,-39,-78,-48
-53,53,107,0,-80,80,-161,-102,-92,-43,-87,-58
-43,58,102,-7,-73,80,-165,-102,-97,-43,-87,-58
-29,63,92,-17,-61,78,-180,-102,-97,-43,-87,-58
-19,68,87,-24,-53,78,-185,-102,-102,-48,-82,-58
-29,78,107,-24,-68,92,-195,-92,-102,-43,-73,-34
-39,78,117,-19,-78,97,-195,-87,-102,-43,-68,-34
-48,73,122,-12,-85,97,-195,-87,-97,-39,-68,-29
-58,53,112,2,-85,82,-185,-87,-97,-39,-58,-29
-58,43,102,7,-80,73,-200,-97,-107,-43,-68,-43
-73,29,102,21,-87,65,-204,-107,-117,-63,-82,-53
-63,19,82,21,-73,51,-214,-112,-126,-63,-92,-63
-63,19,82,21,-73,51,-214,-112,-126,-68,-92,-63
-73,4,78,34,-75,41,-204,-112,-122,-63,-87,-63
-63,-4,58,34,-61,26,-200,-112,-122,-68,-92,-58
-53,-24,29,39,-41,2,-200,-117,-126,-73,-92,-58
-53,-34,19,43,-36,-7,-200,-112,-126,-68,-87,-63
-63,-43,19,53,-41,-12,-214,-126,-141,-87,-97,-78
-68,-39,29,53,-48,-4,-224,-136,-146,-97,-112,-87
-63,-53,9,58,-36,-21,-229,-146,-161,-107,-117,-97
-58,-48,9,53,-34,-19,-234,-151,-170,-117,-131,-107
-53,-53,0,53,-26,-26,-224,-146,-165,-112,-122,-102
-58,-63,-4,61,-26,-34,-209,-131,-151,-92,-117,-97
-58,-82,-24,70,-17,-53,-204,-126,-146,-87,-117,-97
-68,-87,-19,78,-24,-53,-200,-122,-146,-92,-122,-97
-92,-102,-9,97,-41,-56,-195,-122,-136,-87,-122,-87
-122,-112,9,117,-65,-51,-190,-122,-136,-87,-122,-87
-136,-112,24,124,-80,-43,-185,-126,-146,-92,-122,-97
-141,-112,29,126,-85,-41,-180,-131,-146,-102,-131,-102
-131,-131,0,131,-65,-65,-190,-122,-146,-112,-122,-102
-126,-117,9,122,-68,-53,-195,-122,-156,-117,-136,-107
-126,-107,19,117,-73,-43,-200,-131,-161,-117,-141,-112
-126,-102,24,114,-75,-39,-200,-131,-161,-117,-141,-112
-117,-122,-4,119,-56,-63,-209,-131,-165,-117,-136,-122
-117,-122,-4,119,-56,-63,-209,-136,-165,-117,-136,-117
-122,-122,0,122,-61,-61,-204,-136,-161,-117,-131,-112
-107,-122,-14,114,-46,-68,-204,-141,-161,-117,-131,-112
-107,-117,-9,112,-48,-63,-214,-151,-170,-122,-141,-117
-117,-117,0,117,-58,-58,-214,-151,-175,-126,-146,-131
-107,-126,-19,117,-43,-73,-214,-151,-175,-131,-151,-136
-102,-126,-24,114,-39,-75,-214,-151,-180,-136,-161,-141
-112,-102,9,107,-61,-46,-219,-161,-190,-141,-175,-151
-126,-102,24,114,-75,-39,-219,-161,-190,-141,-175,-151
-136,-122,14,129,-75,-53,-209,-156,-185,-136,-170,-146
-117,-126,-9,122,-53,-68,-209,-156,-185,-136,-170,-146
-126,-131,-4,129,-61,-68,-204,-146,-170,-122,-161,-146
-126,-126,0,126,-63,-63,-200,-141,-165,-117,-156,-136
-126,-131,-4,129,-61,-68,-190,-131,-161,-107,-151,-126
-131,-141,-9,136,-61,-75,-185,-126,-156,-97,-146,-117
-122,-136,-14,129,-53,-75,-200,-126,-165,-112,-156,-122
-122,-131,-9,126,-56,-70,-200,-131,-165,-117,-156,-126
-122,-136,-14,129,-53,-75,-190,-136,-165,-117,-151,-126
-122,-136,-14,129,-53,-75,-190,-141,-165,-117,-151,-131
-112,-136,-24,124,-43,-80,-180,-131,-165,-117,-151,-122
-117,-136,-19,126,-48,-78,-185,-131,-170,-122,-161,-122
-117,-122,-4,119,-56,-63,-185,-131,-170,-122,-161,-122
-131,-122,9,126,-70,-56,-180,-131,-165,-122,-156,-126
-141,-136,4,139,-73,-65,-180,-131,-165,-122,-156,-126
-136,-141,-4,139,-65,-73,-180,-131,-165,-122,-156,-126
-122,-136,-14,129,-53,-75,-180,-131,-165,-122,-156,-126
-112,-107,4,109,-58,-51,-185,-131,-165,-122,-156,-131
-112,-107,4,109,-58,-51,-185,-141,-165,-122,-165,-131
-122,-117,4,119,-63,-56,-185,-141,-165,-122,-165,-126
-131,-126,4,129,-68,-61,-180,-141,-165,-122,-165,-126
-131,-151,-19,141,-56,-85,-175,-141,-165,-122,-165,-131
-131,-141,-9,136,-61,-75,-180,-141,-165,-122,-165,-141
-131,-156,-24,143,-53,-90,-185,-141,-165,-122,-165,-141
-131,-161,-29,146,-51,-95,-190,-141,-165,-122,-165,-136
-131,-161,-29,146,-51,-95,-195,-141,-165,-126,-165,-136
-112,-146,-34,129,-39,-90,-204,-146,-175,-131,-170,-146
-102,-146,-43,124,-29,-95,-209,-151,-175,-131,-170,-146
-87,-151,-63,119,-12,-107,-209,-146,-170,-131,-165,-146
-78,-156,-78,117,0,-117,-209,-141,-170,-136,-165,-146
-185,-195,-9,190,-87,-102,-156,-102,-131,-92,-126,-107
-165,-180,-14,173,-75,-97,-151,-87,-136,-102,-141,-122
-97,-156,-58,126,-19,-107,-165,-87,-151,-131,-180,-156
-117,-136,-19,126,-48,-78,-151,-43,-126,-117,-170,-141
-156,-136,19,146,-87,-58,-122,14,-73,-82,-136,-112
-117,-156,-39,136,-39,-97,-112,68,-29,-68,-131,-117
-102,-156,-53,129,-24,-104,-92,136,43,-29,-126,-117
-92,-126,-34,109,-29,-80,-68,214,126,34,-82,-87
-73,-63,9,68,-41,-26,-82,263,190,131,-4,-39
-53,-29,24,41,-39,-2,-112,263,229,234,82,43
-29,-4,24,17,-26,9,-180,195,219,322,180,136
19,63,43,-41,-12,53,-278,97,165,414,278,214
78,117,39,-97,19,78,-390,24,131,507,380,302
156,180,24,-168,65,102,-531,-68,68,619,497,400
248,273,24,-261,112,148,-697,-185,0,751,644,522
292,312,19,-302,136,165,-834,-224,-48,897,775,634
341,283,-58,-312,200,112,-936,-239,-92,1005,844,678
390,283,-107,-336,248,87,-1024,-307,-185,1015,849,678
370,283,-87,-326,229,97,-1098,-419,-297,956,829,688
322,273,-48,-297,185,112,-1161,-561,-444,814,766,678
326,229,-97,-278,212,65,-1249,-746,-624,595,600,570
331,131,-200,-231,265,-34,-1288,-951,-800,331,380,400
268,-39,-307,-114,287,-173,-1249,-1151,-985,48,131,200
195,-175,-370,-9,283,-273,-1205,-1337,-1176,-248,-122,-9
136,-297,-434,80,285,-366,-1176,-1473,-1361,-507,-341,-200
58,-434,-492,187,275,-463,-1137,-1522,-1488,-722,-531,-375
-14,-517,-502,265,244,-509,-1117,-1561,-1590,-902,-683,-502
-68,-570,-502,319,217,-536,-1117,-1571,-1625,-995,-766,-575
-122,-673,-551,397,214,-612,-1102,-1517,-1586,-1024,-814,-634
-170,-741,-570,456,200,-656,-1083,-1439,-1537,-1054,-863,-683
-209,-702,-492,456,141,-597,-1044,-1332,-1439,-1029,-863,-688
-234,-658,-424,446,95,-541,-995,-1244,-1337,-971,-834,-668
-244,-678,-434,461,95,-556,-971,-1190,-1263,-936,-819,-663
-214,-668,-453,441,119,-561,-936,-1137,-1190,-893,-785,-644
-165,-595,-429,380,131,-512,-883,-1029,-1083,-819,-732,-595
-146,-556,-409,351,131,-483,-795,-888,-946,-727,-658,-536
-170,-536,-366,353,97,-451,-673,-736,-805,-614,-566,-473
-161,-468,-307,314,73,-387,-566,-590,-663,-522,-488,-409
-112,-366,-253,239,70,-309,-502,-468,-566,-444,-429,-356
-58,-239,-180,148,61,-209,-448,-390,-488,-395,-385,-322
-34,-180,-146,107,56,-163,-380,-341,-409,-351,-341,-292
-78,-219,-141,148,31,-180,-312,-268,-322,-292,-297,-248
-107,-219,-112,163,2,-165,-278,-209,-268,-239,-263,-214
-107,-165,-58,136,-24,-112,-234,-156,-224,-204,-224,-190
-107,-165,-58,136,-24,-112,-175,-92,-151,-131,-170,-156
-107,-165,-58,136,-24,-112,-126,-29,-82,-82,-126,-112
-131,-136,-4,134,-63,-70,-112,0,-68,-63,-112,-102
-141,-126,14,134,-78,-56,-117,4,-78,-68,-117,-112
-146,-126,19,136,-82,-53,-122,-4,-73,-82,-122,-112
-146,-117,29,131,-87,-43,-126,0,-63,-78,-126,-107
-141,-112,29,126,-85,-41,-136,0,-58,-78,-122,-107
-126,-112,14,119,-70,-48,-122,14,-34,-63,-107,-97
-126,-107,19,117,-73,-43,-102,34,-24,-39,-97,-92
-126,-107,19,117,-73,-43,-87,53,-4,-19,-78,-78
-126,-107,19,117,-73,-43,-68,58,0,-9,-73,-68
-117,-82,34,100,-75,-24,-78,53,-9,-19,-82,-78
-102,-68,34,85,-68,-17,-73,68,9,-19,-78,-78
-97,-63,34,80,-65,-14,-73,68,9,-14,-78,-78
-97,-58,39,78,-68,-9,-73,73,19,-14,-78,-73
-87,-58,29,73,-58,-14,-73,73,14,-9,-82,-73
-87,-58,29,73,-58,-14,-63,82,34,4,-73,-63
-82,-53,29,68,-56,-12,-58,92,39,4,-68,-58
-78,-24,53,51,-65,14,-53,92,39,0,-63,-58
-68,-34,34,51,-51,0,-43,97,43,9,-58,-58
-63,-39,24,51,-43,-7,-43,107,48,9,-53,-53
-48,-43,4,46,-26,-19,-43,112,58,9,-48,-53
-63,-68,-4,65,-29,-36,-39,131,73,19,-39,-53
-53,-68,-14,61,-19,-41,-39,141,78,14,-34,-53
-68,-53,14,61,-41,-19,-39,146,87,24,-34,-48
-63,-39,24,51,-43,-7,-34,141,87,29,-34,-43
-53,-39,14,46,-34,-12,-29,141,82,39,-34,-43
-68,-73,-4,70,-31,-39,-14,165,102,43,-14,-29
-78,-82,-4,80,-36,-43,-4,175,112,48,-9,-19
-92,-87,4,90,-48,-41,14,185,131,63,-4,-14
-102,-97,4,100,-53,-46,24,200,146,68,0,-9
-97,-73,24,85,-61,-24,9,200,141,63,-9,-24
-97,-53,43,75,-70,-4,9,200,141,63,-9,-24
-87,-39,48,63,-68,4,14,214,141,68,-4,-19
-87,-29,58,58,-73,14,19,224,151,82,14,-4
-68,-43,24,56,-46,-9,9,219,151,78,4,-4
-78,-29,48,53,-63,9,9,219,151,78,-9,-9
-82,-34,48,58,-65,7,9,224,156,82,0,-14
-82,-48,34,65,-58,-7,24,239,165,92,4,-14
-73,-39,34,56,-53,-2,14,234,170,87,-4,-24
-73,-29,43,51,-58,7,4,234,165,82,-14,-29
-68,-34,34,51,-51,0,4,239,161,82,-14,-29
-53,-53,0,53,-26,-26,9,253,170,82,0,-24
-73,-58,14,65,-43,-21,29,273,195,97,19,-9
-78,-48,29,63,-53,-9,39,287,209,122,24,0
-73,-43,29,58,-51,-7,39,297,224,131,29,4
-78,-48,29,63,-53,-9,39,307,234,136,29,9
-78,-29,48,53,-63,9,48,317,234,136,43,9
-78,-9,68,43,-73,29,48,331,239,151,53,14
-73,0,73,36,-73,36,53,341,248,151,58,14
-73,9,82,31,-78,46,58,356,263,165,58,14
-73,9,82,31,-78,46,63,361,283,170,63,39
-68,24,92,21,-80,58,73,380,302,180,63,43
-53,9,63,21,-58,36,82,395,307,190,68,48
-39,-9,29,24,-34,9,82,414,317,200,73,48
-29,24,53,2,-41,39,82,414,312,214,82,43
-19,34,53,-7,-36,43,82,439,322,219,87,53
-9,48,58,-19,-34,53,87,453,341,229,92,58
4,58,53,-31,-24,56,92,468,346,234,102,63
-4,53,58,-24,-31,56,102,483,370,234,107,68
-4,58,63,-26,-34,61,112,497,385,248,117,73
9,58,48,-34,-19,53,112,517,395,258,122,82
9,58,48,-34,-19,53,112,527,405,263,126,92
4,68,63,-36,-29,65,117,546,409,268,122,102
4,68,63,-36,-29,65,122,561,429,283,126,107
9,73,63,-41,-26,68,126,575,434,292,141,112
9,73,63,-41,-26,68,131,590,439,312,151,117
4,87,82,-46,-39,85,151,619,458,336,165,141
4,92,87,-48,-41,90,156,634,478,346,180,146
9,87,78,-48,-34,82,165,663,507,370,200,156
4,68,63,-36,-29,65,180,697,531,400,224,175
24,92,68,-58,-21,80,175,702,541,405,224,175
29,122,92,-75,-31,107,175,722,546,419,234,180
29,126,97,-78,-34,112,175,741,556,429,239,190
43,131,87,-87,-21,109,175,756,566,429,244,200
53,136,82,-95,-14,109,175,756,575,424,248,195
53,146,92,-100,-19,119,180,771,590,444,258,204
63,156,92,-109,-14,124,185,800,605,463,278,214
68,161,92,-114,-12,126,190,814,619,473,287,224
68,185,117,-126,-24,151,180,810,624,473,287,234
58,195,136,-126,-39,165,180,819,629,483,292,234
29,200,170,-114,-70,185,185,834,634,497,307,248
34,204,170,-119,-68,187,185,834,644,507,322,253
43,200,156,-122,-56,178,190,839,653,517,322,263
53,200,146,-126,-46,173,190,849,653,527,322,268
58,190,131,-124,-36,161,190,854,653,531,326,273
68,175,107,-122,-19,141,195,863,668,536,346,283
78,185,107,-131,-14,146,185,863,668,527,336,278
73,185,112,-129,-19,148,180,863,668,531,336,278
73,185,112,-129,-19,148,180,863,668,541,346,278
82,185,102,-134,-9,143,185,863,678,551,356,283
68,200,131,-134,-31,165,175,854,668,541,351,287
63,209,146,-136,-41,178,170,839,668,541,351,287
63,229,165,-146,-51,197,165,839,658,541,351,287
58,229,170,-143,-56,200,165,834,653,541,356,287
58,204,146,-131,-43,175,175,829,658,546,361,297
63,209,146,-136,-41,178,165,819,653,551,366,297
82,214,131,-148,-24,173,161,810,653,551,370,287
87,214,126,-151,-19,170,156,790,634,546,366,283
73,219,146,-146,-36,183,146,780,614,527,361,273
68,214,146,-141,-39,180,136,761,600,522,351,273
68,209,141,-139,-36,175,126,736,580,507,341,273
63,204,141,-134,-39,173,117,717,561,492,331,263
73,209,136,-141,-31,173,112,692,551,488,331,258
78,214,136,-146,-29,175,97,678,531,478,326,263
78,214,136,-146,-29,175,92,649,517,473,317,263
68,219,151,-143,-41,185,87,619,502,463,307,263
58,204,146,-131,-43,175,78,580,483,434,297,253
58,190,131,-124,-36,161,63,551,458,419,283,244
53,180,126,-117,-36,153,58,517,434,405,268,224
34,165,131,-100,-48,148,48,492,419,385,258,214
39,165,126,-102,-43,146,43,463,400,380,248,209
39,170,131,-104,-46,151,34,439,370,351,244,195
39,165,126,-102,-43,146,19,405,341,331,224,180
29,170,141,-100,-56,156,4,375,302,302,204,161
29,141,112,-85,-41,126,9,361,292,297,200,151
29,126,97,-78,-34,112,9,336,283,283,190,156
9,122,112,-65,-51,117,9,317,263,263,175,156
9,112,102,-61,-46,107,0,283,239,239,151,136
-9,92,102,-41,-56,97,0,248,209,219,141,112
-24,78,102,-26,-63,90,-9,219,185,204,126,97
-34,68,102,-17,-68,85,-19,190,146,175,107,82
-53,53,107,0,-80,80,-29,165,131,156,92,63
-39,24,63,7,-51,43,-34,141,117,136,68,53
-48,4,53,21,-51,29,-39,122,107,122,63,53
-58,4,63,26,-61,34,-48,107,82,102,53,39
-53,4,58,24,-56,31,-73,82,63,82,39,19
-58,4,63,26,-61,34,-82,43,39,53,14,-4
-58,-4,53,31,-56,24,-82,29,19,48,0,-4
-53,-4,48,29,-51,21,-92,9,9,34,-9,-14
-48,-24,24,36,-36,0,-92,4,-9,19,-24,-19
-58,-34,24,46,-41,-4,-82,-9,-4,9,-19,-14
-68,-39,29,53,-48,-4,-87,-19,-19,4,-29,-29
-73,-43,29,58,-51,-7,-92,-34,-29,-9,-48,-39
-78,-48,29,63,-53,-9,-102,-43,-43,-9,-53,-43
-92,-58,34,75,-63,-12,-97,-43,-43,-4,-43,-48
-102,-58,43,80,-73,-7,-92,-39,-43,0,-48,-43
-112,-63,48,87,-80,-7,-87,-34,-43,0,-43,-39
-117,-63,53,90,-85,-4,-87,-39,-48,-4,-53,-39
-102,-78,24,90,-63,-26,-107,-53,-73,-24,-63,-63
-112,-87,24,100,-68,-31,-107,-58,-73,-34,-73,-68
-107,-107,0,107,-53,-53,-107,-63,-73,-39,-78,-68
-97,-97,0,97,-48,-48,-107,-78,-82,-48,-87,-73
-87,-82,4,85,-46,-39,-117,-92,-97,-58,-107,-78
-78,-63,14,70,-46,-24,-117,-92,-97,-68,-107,-82
-87,-58,29,73,-58,-14,-112,-97,-97,-68,-107,-82
-92,-68,24,80,-58,-21,-112,-97,-97,-68,-107,-82
-92,-92,0,92,-46,-46,-102,-97,-97,-58,-107,-82
-92,-107,-14,100,-39,-61,-102,-97,-102,-58,-107,-82
-92,-112,-19,102,-36,-65,-112,-97,-102,-58,-112,-82
-87,-122,-34,104,-26,-78,-102,-97,-102,-58,-112,-82
-92,-107,-14,100,-39,-61,-102,-87,-92,-58,-102,-73
-97,-87,9,92,-53,-39,-102,-87,-92,-58,-102,-73
-102,-82,19,92,-61,-31,-102,-92,-92,-58,-102,-78
-107,-87,19,97,-63,-34,-102,-92,-97,-58,-102,-78
-126,-107,19,117,-73,-43,-112,-92,-97,-53,-107,-87
-117,-107,9,112,-63,-48,-112,-92,-97,-58,-107,-87
-117,-107,9,112,-63,-48,-112,-97,-97,-63,-117,-87
-117,-126,-9,122,-53,-68,-112,-97,-97,-68,-117,-87
-107,-107,0,107,-53,-53,-107,-97,-102,-78,-112,-92
-107,-97,9,102,-58,-43,-107,-97,-102,-78,-112,-97
-112,-87,24,100,-68,-31,-112,-92,-102,-73,-112,-97
-126,-78,48,102,-87,-14,-112,-92,-107,-73,-112,-97
-107,-63,43,85,-75,-9,-107,-102,-97,-63,-102,-87
-102,-58,43,80,-73,-7,-107,-97,-92,-58,-102,-87
-92,-68,24,80,-58,-21,-107,-97,-92,-58,-102,-87
-73,-53,19,63,-46,-17,-107,-97,-97,-63,-107,-87
-73,-63,9,68,-41,-26,-97,-92,-97,-63,-107,-78
-73,-82,-9,78,-31,-46,-92,-87,-92,-63,-97,-73
-82,-97,-14,90,-34,-56,-87,-78,-92,-58,-97,-73
-82,-107,-24,95,-29,-65,-87,-73,-87,-58,-97,-73
-82,-92,-9,87,-36,-51,-102,-73,-87,-63,-97,-78
-87,-82,4,85,-46,-39,-102,-73,-87,-63,-97,-78
-107,-82,24,95,-65,-29,-97,-73,-87,-63,-97,-73
-112,-73,39,92,-75,-17,-97,-73,-87,-63,-92,-68
-102,-82,19,92,-61,-31,-97,-82,-87,-63,-102,-78
-102,-87,14,95,-58,-36,-97,-82,-87,-63,-107,-82
-117,-92,24,104,-70,-34,-97,-82,-87,-63,-107,-82
-107,-102,4,104,-56,-48,-102,-82,-87,-63,-107,-82
-102,-92,9,97,-56,-41,-112,-92,-97,-73,-117,-92
-97,-82,14,90,-56,-34,-112,-87,-97,-73,-117,-92
-92,-73,19,82,-56,-26,-112,-82,-97,-73,-117,-92
-87,-63,24,75,-56,-19,-112,-82,-92,-73,-117,-87
-107,-68,39,87,-73,-14,-102,-92,-92,-82,-107,-87
-92,-92,0,92,-46,-46,-102,-87,-87,-82,-107,-87
-92,-73,19,82,-56,-26,-97,-82,-87,-82,-107,-87
-97,-87,9,92,-53,-39,-97,-82,-87,-82,-107,-87
-107,-97,9,102,-58,-43,-97,-97,-92,-82,-117,-87
-107,-97,9,102,-58,-43,-102,-97,-97,-82,-117,-87
-107,-97,9,102,-58,-43,-107,-92,-102,-82,-117,-87
-102,-97,4,100,-53,-46,-112,-92,-102,-82,-117,-87
-112,-87,24,100,-68,-31,-102,-78,-92,-73,-117,-73
-112,-78,34,95,-73,-21,-97,-73,-87,-73,-112,-73
-107,-68,39,87,-73,-14,-92,-73,-82,-78,-112,-78
-107,-43,63,75,-85,9,-92,-73,-78,-78,-112,-78
-107,-39,68,73,-87,14,-82,-68,-68,-68,-102,-68
-97,-39,58,68,-78,9,-82,-63,-63,-68,-102,-68
-87,-43,43,65,-65,0,-82,-63,-63,-68,-102,-68
-97,-48,48,73,-73,0,-82,-58,-63,-68,-102,-68
-107,-63,43,85,-75,-9,-82,-58,-73,-68,-102,-78
-112,-68,43,90,-78,-12,-82,-58,-73,-68,-102,-78
-117,-73,43,95,-80,-14,-82,-58,-63,-63,-102,-73
-126,-78,48,102,-87,-14,-82,-58,-63,-58,-97,-68
-112,-63,48,87,-80,-7,-82,-58,-73,-63,-102,-68
-102,-58,43,80,-73,-7,-82,-53,-73,-63,-102,-68
-92,-53,39,73,-65,-7,-82,-53,-82,-63,-102,-73
-82,-58,24,70,-53,-17,-82,-58,-82,-68,-102,-73
-78,-63,14,70,-46,-24,-102,-73,-82,-68,-97,-73
-82,-68,14,75,-48,-26,-92,-73,-82,-68,-97,-73
-87,-78,9,82,-48,-34,-82,-58,-68,-58,-87,-68
-78,-82,-4,80,-36,-43,-82,-58,-68,-58,-87,-68
-82,-78,4,80,-43,-36,-87,-48,-68,-68,-92,-78
-78,-73,4,75,-41,-34,-87,-53,-73,-68,-97,-78
-73,-58,14,65,-43,-21,-87,-53,-78,-68,-102,-78
-68,-68,0,68,-34,-34,-82,-53,-78,-63,-107,-78
-73,-73,0,73,-36,-36,-73,-43,-73,-58,-97,-73
-78,-68,9,73,-43,-29,-73,-43,-68,-58,-97,-73
-78,-63,14,70,-46,-24,-73,-43,-63,-53,-97,-73
-82,-58,24,70,-53,-17,-73,-43,-58,-48,-97,-73
-92,-58,34,75,-63,-12,-73,-43,-68,-58,-92,-68
-97,-63,34,80,-65,-14,-73,-43,-68,-58,-92,-68
-107,-63,43,85,-75,-9,-73,-43,-68,-58,-92,-73
-112,-68,43,90,-78,-12,-78,-48,-73,-58,-97,-73
-97,-68,29,82,-63,-19,-78,-58,-73,-73,-102,-73
-97,-68,29,82,-63,-19,-78,-58,-73,-73,-102,-73
-87,-73,14,80,-51,-29,-78,-48,-73,-73,-97,-78
-87,-82,4,85,-46,-39,-82,-48,-68,-68,-97,-78
-87,-78,9,82,-48,-34,-82,-63,-58,-58,-87,-73
-87,-58,29,73,-58,-14,-87,-73,-68,-68,-92,-73
-87,-53,34,70,-61,-9,-87,-73,-68,-68,-92,-73
-87,-48,39,68,-63,-4,-87,-73,-68,-68,-92,-68
-78,-34,43,56,-61,4,-87,-63,-78,-68,-92,-68
-78,-34,43,56,-61,4,-87,-63,-78,-68,-92,-68
-87,-39,48,63,-68,4,-82,-63,-78,-68,-92,-68
-87,-63,24,75,-56,-19,-82,-58,-73,-68,-87,-68
-92,-82,9,87,-51,-36,-78,-58,-73,-58,-87,-58
-92,-82,9,87,-51,-36,-82,-68,-82,-68,-92,-63
-92,-78,14,85,-53,-31,-78,-73,-87,-68,-92,-63
-78,-87,-9,82,-34,-48,-73,-73,-87,-63,-87,-63
-92,-82,9,87,-51,-36,-82,-73,-92,-73,-97,-73
-92,-82,9,87,-51,-36,-82,-73,-92,-68,-102,-73
-92,-73,19,82,-56,-26,-82,-73,-92,-68,-102,-73
-92,-73,19,82,-56,-26,-82,-73,-92,-68,-102,-73
-82,-58,24,70,-53,-17,-68,-63,-82,-63,-97,-68
-82,-53,29,68,-56,-12,-63,-63,-78,-58,-92,-63
-78,-34,43,56,-61,4,-63,-68,-73,-58,-87,-58
-78,-14,63,46,-70,24,-58,-68,-73,-53,-82,-53
-68,-4,63,36,-65,29,-58,-78,-63,-53,-82,-53
-58,-19,39,39,-48,9,-53,-78,-63,-53,-73,-48
-68,-24,43,46,-56,9,-48,-78,-63,-39,-73,-39
-73,-29,43,51,-58,7,-43,-78,-63,-39,-68,-39
-82,-29,53,56,-68,12,-53,-73,-58,-53,-68,-43
-87,-14,73,51,-80,29,-48,-73,-58,-53,-68,-48
-92,-14,78,53,-85,31,-43,-73,-63,-53,-63,-53
-97,-19,78,58,-87,29,-39,-73,-63,-48,-63,-53
-107,-43,63,75,-85,9,-34,-73,-63,-58,-73,-53
-107,-43,63,75,-85,9,-34,-73,-63,-58,-73,-53
-107,-39,68,73,-87,14,-39,-73,-68,-63,-78,-58
-117,-29,87,73,-102,29,-39,-73,-68,-63,-78,-58
-126,-19,107,73,-117,43,-43,-82,-78,-73,-78,-68
-122,-4,117,63,-119,56,-43,-82,-78,-73,-78,-68
-117,-4,112,61,-114,53,-43,-82,-78,-73,-78,-68
-97,9,107,43,-102,58,-34,-82,-68,-68,-68,-63
-82,19,102,31,-92,61,-29,-73,-63,-63,-58,-58
-82,24,107,29,-95,65,-29,-73,-58,-53,-58,-48
-68,29,97,19,-82,63,-24,-68,-48,-43,-53,-39
-34,34,68,0,-51,51,-24,-68,-43,-39,-53,-34
-43,78,122,-17,-82,100,-34,-68,-43,-39,-43,-14
-39,97,136,-29,-87,117,-48,-78,-58,-48,-48,-29
-58,82,141,-12,-100,112,-53,-82,-68,-48,-39,-19
-68,68,136,0,-102,102,-58,-87,-68,-48,-39,-19
-78,53,131,12,-104,92,-63,-92,-68,-48,-39,-19
-87,39,126,24,-107,82,-68,-97,-68,-48,-39,-19
-87,39,126,24,-107,82,-82,-102,-82,-53,-48,-24
-82,39,122,21,-102,80,-87,-102,-87,-53,-48,-29
-73,39,112,17,-92,75,-102,-102,-87,-53,-48,-34
-68,39,107,14,-87,73,-107,-102,-92,-58,-43,-39
-58,39,97,9,-78,68,-107,-102,-82,-53,-43,-14
-58,39,97,9,-78,68,-107,-97,-82,-53,-39,-14
-58,34,92,12,-75,63,-107,-97,-78,-48,-39,-9
-58,14,73,21,-65,43,-97,-97,-78,-48,-29,-9
-68,9,78,29,-73,43,-102,-97,-78,-53,-39,-34
-82,0,82,41,-82,41,-107,-107,-87,-73,-53,-43
-73,-4,68,39,-70,31,-117,-112,-97,-73,-63,-53
-73,0,73,36,-73,36,-117,-112,-97,-78,-63,-53
-73,9,82,31,-78,46,-117,-126,-102,-78,-68,-68
-53,4,58,24,-56,31,-122,-131,-112,-87,-82,-68
-34,-9,24,21,-29,7,-131,-141,-126,-97,-92,-73
-24,-14,9,19,-17,-2,-141,-141,-136,-97,-97,-82
-39,-43,-4,41,-17,-24,-136,-131,-136,-102,-97,-82
-48,-48,0,48,-24,-24,-136,-136,-136,-107,-102,-87
-48,-73,-24,61,-12,-48,-131,-141,-146,-112,-97,-92
-48,-78,-29,63,-9,-53,-126,-141,-151,-117,-102,-97
-68,-87,-19,78,-24,-53,-117,-131,-146,-117,-92,-92
-78,-92,-14,85,-31,-53,-102,-122,-131,-102,-87,-87
-82,-107,-24,95,-29,-65,-97,-122,-126,-102,-87,-87
-97,-107,-9,102,-43,-58,-92,-122,-126,-112,-92,-87
-102,-92,9,97,-56,-41,-102,-126,-136,-107,-97,-97
-112,-92,19,102,-65,-36,-102,-131,-136,-107,-102,-97
-107,-82,24,95,-65,-29,-102,-141,-146,-112,-107,-107
-92,-73,19,82,-56,-26,-102,-151,-146,-122,-122,-112
-92,-107,-14,100,-39,-61,-117,-156,-151,-136,-131,-117
-87,-107,-19,97,-34,-63,-126,-161,-165,-146,-146,-126
-87,-112,-24,100,-31,-68,-136,-175,-175,-151,-151,-136
-87,-122,-34,104,-26,-78,-141,-180,-180,-156,-151,-141
-102,-131,-29,117,-36,-80,-131,-156,-161,-146,-136,-131
-117,-131,-14,124,-51,-73,-122,-146,-156,-136,-126,-117
-136,-131,4,134,-70,-63,-107,-131,-146,-126,-112,-102
-136,-131,4,134,-70,-63,-97,-122,-141,-117,-102,-92
-126,-126,0,126,-63,-63,-107,-131,-156,-126,-117,-102
-136,-126,9,131,-73,-58,-107,-131,-156,-126,-117,-112
-126,-136,-9,131,-58,-73,-107,-131,-151,-126,-117,-112
-122,-136,-14,129,-53,-75,-107,-131,-151,-126,-122,-112
-107,-122,-14,114,-46,-68,-122,-151,-161,-141,-126,-122
-117,-122,-4,119,-56,-63,-122,-151,-161,-141,-126,-122
-122,-141,-19,131,-51,-80,-112,-146,-156,-136,-122,-117
-97,-146,-48,122,-24,-97,-112,-146,-156,-136,-122,-117
-97,-136,-39,117,-29,-87,-107,-141,-156,-131,-126,-122
-97,-126,-29,112,-34,-78,-102,-141,-156,-136,-126,-117
-97,-126,-29,112,-34,-78,-92,-136,-156,-136,-126,-112
-102,-131,-29,117,-36,-80,-87,-136,-156,-136,-126,-107
-112,-131,-19,122,-46,-75,-102,-141,-146,-146,-136,-117
-112,-131,-19,122,-46,-75,-102,-141,-146,-146,-136,-117
-112,-141,-29,126,-41,-85,-92,-141,-146,-141,-131,-112
-112,-146,-34,129,-39,-90,-92,-141,-146,-136,-131,-112
-102,-161,-58,131,-21,-109,-92,-141,-156,-136,-131,-122
-107,-165,-58,136,-24,-112,-97,-141,-161,-141,-141,-122
-107,-156,-48,131,-29,-102,-97,-141,-161,-141,-141,-122
-122,-161,-39,141,-41,-100,-92,-141,-156,-141,-136,-126
-126,-165,-39,146,-43,-102,-97,-141,-165,-151,-136,-117
-126,-161,-34,143,-46,-97,-102,-141,-165,-151,-136,-117
-117,-146,-29,131,-43,-87,-107,-141,-165,-151,-136,-117
-112,-107,4,109,-58,-51,-117,-141,-165,-151,-136,-122
-102,-107,-4,104,-48,-56,-117,-151,-156,-151,-136,-131
-112,-117,-4,114,-53,-61,-117,-151,-156,-151,-136,-126
-122,-126,-4,124,-58,-65,-112,-151,-156,-151,-136,-126
-122,-151,-29,136,-46,-90,-107,-151,-156,-151,-136,-131
-112,-131,-19,122,-46,-75,-107,-151,-165,-151,-146,-141
-112,-136,-24,124,-43,-80,-107,-151,-165,-151,-146,-141
-112,-131,-19,122,-46,-75,-107,-151,-165,-151,-146,-136
-112,-122,-9,117,-51,-65,-107,-151,-165,-156,-146,-136
-112,-131,-19,122,-46,-75,-102,-141,-156,-156,-131,-126
-112,-136,-24,124,-43,-80,-102,-141,-156,-151,-131,-126
-107,-146,-39,126,-34,-92,-97,-131,-151,-146,-126,-126
-107,-156,-48,131,-29,-102,-92,-122,-151,-146,-126,-126
-97,-214,-117,156,9,-165,-78,-112,-141,-141,-117,-126
-87,-190,-102,139,7,-146,-73,-97,-136,-151,-131,-141
-68,-136,-68,102,0,-102,-78,-87,-151,-161,-151,-146
-48,-146,-97,97,24,-122,-73,-43,-117,-136,-141,-141
-87,-175,-87,131,0,-131,-53,24,-53,-102,-126,-122
-126,-165,-39,146,-43,-102,-24,97,0,-68,-112,-126
-92,-126,-34,109,-29,-80,-4,175,63,-29,-87,-126
-4,-87,-82,46,39,-85,19,253,146,53,-34,-87
24,-63,-87,19,56,-75,14,312,229,151,63,0
14,-19,-34,2,24,-26,-43,273,239,253,161,92
39,43,4,-41,17,24,-131,175,200,312,239,165
87,92,4,-90,41,48,-239,78,156,395,326,244
136,136,0,-136,68,68,-361,-4,112,507,439,341
204,190,-14,-197,109,87,-492,-107,48,639,575,458
268,234,-34,-251,151,100,-629,-195,-19,780,702,570
312,244,-68,-278,190,87,-756,-214,-78,878,805,634
361,244,-117,-302,239,63,-858,-258,-151,927,824,658
429,283,-146,-356,287,68,-936,-366,-253,897,819,658
448,331,-117,-390,283,107,-1000,-507,-395,790,771,658
439,273,-165,-356,302,53,-1093,-697,-570,610,649,600
434,151,-283,-292,358,-65,-1171,-912,-751,370,463,473
341,24,-317,-183,329,-146,-1171,-1127,-936,117,253,292
209,-117,-326,-46,268,-222,-1122,-1317,-1112,-156,4,82
146,-253,-400,53,273,-326,-1107,-1493,-1302,-444,-229,-136
117,-366,-483,124,300,-424,-1078,-1571,-1449,-683,-429,-307
87,-502,-590,207,339,-546,-1019,-1581,-1517,-839,-580,-434
14,-566,-580,275,297,-573,-1019,-1610,-1581,-980,-692,-531
-58,-570,-512,314,226,-541,-1029,-1600,-1595,-1054,-766,-605
-131,-663,-531,397,200,-597,-985,-1517,-1537,-1073,-805,-644
-180,-751,-570,466,195,-661,-936,-1400,-1459,-1054,-824,-663
-209,-732,-522,470,156,-627,-907,-1312,-1371,-1019,-814,-668
-234,-678,-444,456,104,-561,-868,-1234,-1278,-980,-795,-668
-204,-619,-414,412,104,-517,-844,-1171,-1205,-946,-771,-653
-165,-580,-414,373,124,-497,-800,-1088,-1122,-893,-727,-624
-185,-566,-380,375,97,-473,-746,-961,-1005,-810,-663,-575
-195,-556,-361,375,82,-458,-658,-819,-868,-717,-590,-517
-151,-468,-317,309,82,-392,-556,-688,-736,-614,-507,-453
-92,-370,-278,231,92,-324,-439,-541,-605,-512,-429,-370
-73,-307,-234,190,80,-270,-346,-429,-478,-414,-341,-297
-78,-258,-180,168,51,-219,-283,-341,-400,-356,-287,-263
-82,-219,-136,151,26,-178,-244,-283,-341,-322,-263,-244
-78,-200,-122,139,21,-161,-195,-219,-273,-273,-219,-209
-87,-200,-112,143,12,-156,-151,-161,-209,-229,-185,-185
-117,-195,-78,156,-19,-136,-117,-117,-165,-195,-165,-170
-107,-156,-48,131,-29,-102,-78,-63,-112,-151,-122,-126
-68,-136,-68,102,0,-102,-39,-19,-73,-112,-78,-82
-53,-126,-73,90,9,-100,-24,-9,-68,-92,-73,-82
-58,-112,-53,85,-2,-82,-24,-9,-68,-97,-78,-97
-68,-107,-39,87,-14,-73,-24,-14,-63,-112,-82,-102
-73,-92,-19,82,-26,-56,-24,-4,-53,-107,-87,-102
-73,-82,-9,78,-31,-46,-29,0,-48,-107,-82,-107
-63,-68,-4,65,-29,-36,-29,4,-24,-97,-82,-107
-58,-58,0,58,-29,-29,-14,24,-14,-78,-78,-102
-53,-53,0,53,-26,-26,-4,43,4,-63,-63,-87
-48,-48,0,48,-24,-24,9,48,9,-58,-63,-78
-48,-58,-9,53,-19,-34,19,43,0,-58,-63,-78
-43,-58,-14,51,-14,-36,24,58,19,-58,-58,-78
-48,-68,-19,58,-14,-43,24,58,19,-53,-58,-78
-58,-78,-19,68,-19,-48,24,63,29,-53,-58,-73
-68,-78,-9,73,-29,-43,14,73,24,-58,-63,-78
-68,-78,-9,73,-29,-43,24,82,43,-43,-53,-73
-63,-73,-9,68,-26,-41,29,92,48,-43,-48,-73
-58,-43,14,51,-36,-14,34,92,48,-48,-43,-78
-48,-43,4,46,-26,-19,43,102,58,-39,-34,-73
-34,-48,-14,41,-9,-31,43,107,58,-39,-34,-63
-9,-53,-43,31,17,-48,43,107,63,-39,-34,-58
-14,-78,-63,46,24,-70,48,122,73,-29,-29,-53
-34,-68,-34,51,0,-51,58,136,92,-14,-19,-53
-58,-53,4,56,-31,-24,58,146,107,-4,-14,-48
-63,-39,24,51,-43,-7,63,146,112,0,-9,-43
-63,-39,24,51,-43,-7,68,151,112,9,-4,-43
-43,-48,-4,46,-19,-26,82,170,131,19,9,-39
-39,-43,-4,41,-17,-24,82,175,131,19,9,-29
-39,-34,4,36,-21,-14,92,180,141,29,9,-24
-34,-29,4,31,-19,-12,92,190,146,29,9,-19
-14,-29,-14,21,0,-21,78,200,141,24,9,-34
-9,-24,-14,17,2,-19,78,200,141,24,9,-34
4,-24,-29,9,17,-26,82,214,141,29,14,-29
9,-29,-39,9,24,-34,87,224,151,43,34,-14
-4,-39,-34,21,14,-36,87,229,161,48,34,-19
-29,-19,9,24,-19,-4,87,229,161,48,19,-19
-48,-19,29,34,-39,4,87,234,165,53,29,-19
-63,-29,34,46,-48,2,102,248,175,63,34,-14
-63,-4,58,34,-61,26,112,263,190,68,39,-9
-63,9,73,26,-68,41,102,263,195,73,34,-9
-58,9,68,24,-63,39,102,268,200,82,39,-4
-43,-4,39,24,-41,17,107,283,219,92,58,4
-39,9,48,14,-43,29,126,302,229,102,68,24
-29,29,58,0,-43,43,136,317,239,122,73,29
-9,43,53,-17,-31,48,136,326,248,126,78,29
0,48,48,-24,-24,48,136,336,253,126,78,29
-4,29,34,-12,-19,31,146,346,268,136,82,39
-9,19,29,-4,-19,24,146,361,278,151,92,43
-9,0,9,4,-9,4,151,370,292,151,97,43
-14,-19,-4,17,-4,-12,156,385,312,165,97,43
-4,4,9,0,-7,7,156,385,302,156,107,53
0,34,34,-17,-17,34,161,400,312,161,102,53
14,34,19,-24,-2,26,165,409,307,165,102,53
29,29,0,-29,14,14,161,424,307,170,102,48
34,53,19,-43,7,36,175,434,322,180,112,63
39,53,14,-46,12,34,180,458,341,190,117,73
43,58,14,-51,14,36,190,473,370,204,122,78
53,58,4,-56,24,31,200,488,385,214,131,82
43,53,9,-48,17,31,209,502,395,229,136,87
43,58,14,-51,14,36,219,517,405,248,146,92
58,58,0,-58,29,29,219,536,409,263,151,102
58,58,0,-58,29,29,219,546,414,273,156,112
43,82,39,-63,2,61,214,566,434,283,170,122
43,97,53,-70,-4,75,219,580,458,292,175,126
48,117,68,-82,-9,92,224,595,468,297,190,131
48,131,82,-90,-17,107,229,610,478,312,200,136
53,141,87,-97,-17,114,224,619,473,307,195,146
63,141,78,-102,-7,109,224,624,478,307,200,146
78,131,53,-104,12,92,229,644,492,322,209,151
82,107,24,-95,29,65,239,668,502,341,224,165
82,112,29,-97,26,70,244,688,527,351,229,175
78,131,53,-104,12,92,253,712,536,370,244,180
68,126,58,-97,4,92,263,736,551,385,253,190
73,122,48,-97,12,85,273,756,566,390,263,200
82,126,43,-104,19,85,283,766,585,405,278,204
82,136,53,-109,14,95,287,780,600,424,287,214
92,146,53,-119,19,100,292,810,614,444,307,224
97,151,53,-124,21,102,297,824,629,453,317,234
117,180,63,-148,26,122,287,819,629,453,317,234
117,195,78,-156,19,136,287,829,639,463,322,234
97,204,107,-151,-4,156,292,844,649,478,336,248
112,214,102,-163,4,158,292,844,663,488,351,253
122,224,102,-173,9,163,292,849,668,492,356,268
131,239,107,-185,12,173,297,858,673,507,361,278
136,244,107,-190,14,175,302,863,678,517,370,287
146,244,97,-195,24,170,312,873,697,527,395,302
156,253,97,-204,29,175,302,863,692,522,385,297
151,253,102,-202,24,178,297,863,688,522,385,297
151,253,102,-202,24,178,297,863,683,527,395,297
161,253,92,-207,34,173,302,863,688,531,405,302
136,258,122,-197,7,190,302,873,688,541,409,307
131,258,126,-195,2,192,297,858,688,541,409,307
131,268,136,-200,-2,202,292,858,678,541,409,307
126,258,131,-192,-2,195,292,854,673,541,414,307
122,248,126,-185,-2,187,287,834,663,536,405,317
122,258,136,-190,-7,197,273,819,653,531,405,317
136,268,131,-202,2,200,263,805,649,522,405,307
136,273,136,-204,0,204,253,780,624,507,395,302
112,263,151,-187,-19,207,258,780,629,502,405,302
107,244,136,-175,-14,190,253,761,619,502,400,302
107,224,117,-165,-4,170,248,736,605,492,395,302
102,204,102,-153,0,153,244,717,590,483,390,292
117,195,78,-156,19,136,234,702,585,483,370,273
126,195,68,-161,29,131,224,688,561,468,366,273
131,190,58,-161,36,124,224,658,541,458,356,268
126,190,63,-158,31,126,224,629,522,444,346,263
117,190,73,-153,21,131,214,590,492,414,346,248
117,190,73,-153,21,131,200,561,468,400,331,244
112,195,82,-153,14,139,195,527,444,385,317,229
92,195,102,-143,-4,148,185,502,429,366,307,224
78,180,102,-129,-12,141,175,458,390,346,287,219
78,180,102,-129,-12,141,161,429,361,312,273,204
78,170,92,-124,-7,131,141,390,331,287,244,190
68,170,102,-119,-17,136,122,356,292,253,214,170
43,136,92,-90,-24,114,126,331,287,248,209,146
39,117,78,-78,-19,97,126,307,273,234,200,146
14,107,92,-61,-39,100,126,287,248,214,185,141
9,92,82,-51,-36,87,117,253,219,190,161,117
24,92,68,-58,-21,80,97,219,190,151,141,102
24,87,63,-56,-19,75,87,190,165,136,126,87
29,87,58,-58,-14,73,78,161,126,107,107,73
24,82,58,-53,-17,70,68,136,112,87,92,53
4,53,48,-29,-21,51,73,126,97,82,92,58
-19,24,43,-2,-31,34,78,112,97,82,92,63
-43,14,58,14,-51,36,78,102,82,78,87,53
-53,4,58,24,-56,31,63,82,73,73,78,39
-58,0,58,29,-58,29,63,48,43,53,48,24
-58,-14,43,36,-51,14,63,39,29,48,39,24
-53,-19,34,36,-43,7,53,24,24,34,34,14
-48,-43,4,46,-26,-19,53,24,9,19,24,9
-43,-34,9,39,-26,-12,63,19,14,4,29,14
-39,-29,9,34,-24,-9,58,9,0,-4,19,0
-29,-24,4,26,-17,-9,53,-4,-9,-24,0,-9
-19,-19,0,19,-9,-9,43,-14,-24,-29,-4,-14
-24,-29,-4,26,-9,-17,53,-24,-24,-29,-9,-24
-34,-29,4,31,-19,-12,53,-29,-24,-29,-19,-24
-43,-34,9,39,-26,-12,53,-34,-24,-34,-19,-24
-48,-34,14,41,-31,-9,48,-48,-29,-43,-34,-29
-39,-39,0,39,-19,-19,34,-68,-48,-63,-43,-53
-43,-39,4,41,-24,-17,29,-68,-53,-73,-53,-58
-34,-48,-14,41,-9,-31,24,-68,-58,-78,-58,-58
-19,-29,-9,24,-4,-19,19,-78,-73,-87,-68,-63
-34,-39,-4,36,-14,-21,9,-82,-82,-92,-68,-68
-29,-34,-4,31,-12,-19,9,-82,-87,-107,-68,-73
-43,-43,0,43,-21,-21,14,-87,-92,-112,-68,-73
-53,-68,-14,61,-19,-41,14,-87,-97,-117,-68,-73
-63,-82,-19,73,-21,-51,24,-78,-92,-112,-68,-73
-63,-97,-34,80,-14,-65,24,-78,-92,-107,-68,-73
-63,-102,-39,82,-12,-70,14,-78,-87,-102,-73,-73
-58,-112,-53,85,-2,-82,24,-78,-82,-97,-73,-73
-63,-92,-29,78,-17,-61,34,-87,-73,-97,-68,-63
-68,-68,0,68,-34,-34,34,-87,-73,-97,-63,-63
-73,-58,14,65,-43,-21,34,-92,-73,-97,-58,-68
-78,-58,19,68,-48,-19,34,-92,-78,-97,-53,-68
-87,-68,19,78,-53,-24,34,-82,-87,-97,-58,-58
-78,-68,9,73,-43,-29,34,-82,-87,-97,-58,-58
-78,-68,9,73,-43,-29,34,-87,-87,-97,-68,-58
-78,-87,-9,82,-34,-48,34,-87,-87,-97,-68,-58
-68,-87,-19,78,-24,-53,29,-87,-92,-107,-73,-63
-68,-87,-19,78,-24,-53,29,-87,-92,-107,-73,-68
-73,-87,-14,80,-29,-51,24,-82,-92,-102,-73,-68
-87,-87,0,87,-43,-43,24,-82,-97,-102,-73,-68
-82,-78,4,80,-43,-36,24,-92,-97,-107,-82,-73
-82,-78,4,80,-43,-36,19,-87,-92,-107,-82,-78
-78,-92,-14,85,-31,-53,14,-87,-92,-112,-82,-82
-63,-82,-19,73,-21,-51,9,-87,-97,-122,-87,-87
-73,-82,-9,78,-31,-46,19,-87,-87,-112,-78,-87
-73,-92,-19,82,-26,-56,24,-87,-82,-112,-68,-82
-82,-97,-14,90,-34,-56,29,-82,-82,-107,-68,-82
-82,-97,-14,90,-34,-56,29,-82,-78,-107,-68,-82
-68,-78,-9,73,-29,-43,34,-82,-87,-122,-73,-78
-58,-63,-4,61,-26,-34,34,-82,-87,-122,-78,-78
-63,-58,4,61,-34,-26,39,-82,-87,-122,-82,-73
-53,-43,9,48,-31,-17,39,-82,-87,-122,-82,-68
-58,-48,9,53,-34,-19,39,-82,-87,-112,-68,-58
-63,-58,4,61,-34,-26,39,-82,-87,-112,-68,-63
-82,-68,14,75,-48,-26,39,-82,-87,-112,-63,-63
-78,-82,-4,80,-36,-43,34,-82,-87,-112,-58,-63
-63,-73,-9,68,-26,-41,24,-82,-87,-122,-63,-73
-58,-73,-14,65,-21,-43,24,-78,-87,-122,-68,-73
-53,-73,-19,63,-17,-46,24,-73,-87,-122,-73,-73
-48,-73,-24,61,-12,-48,24,-73,-82,-122,-78,-68
-58,-53,4,56,-31,-24,34,-82,-92,-122,-78,-78
-43,-73,-29,58,-7,-51,34,-78,-87,-122,-78,-78
-43,-48,-4,46,-19,-26,39,-73,-87,-122,-78,-78
-48,-58,-9,53,-19,-34,39,-73,-87,-122,-78,-78
-63,-68,-4,65,-29,-36,43,-78,-78,-112,-78,-78
-68,-68,0,68,-34,-34,43,-78,-78,-112,-78,-78
-73,-68,4,70,-39,-31,43,-73,-78,-112,-78,-78
-73,-68,4,70,-39,-31,43,-73,-73,-112,-78,-78
-73,-63,9,68,-41,-26,58,-63,-63,-92,-63,-68
-73,-58,14,65,-43,-21,58,-53,-58,-92,-53,-63
-68,-53,14,61,-41,-19,58,-48,-53,-97,-48,-63
-68,-34,34,51,-51,0,53,-43,-48,-97,-43,-58
-63,-29,34,46,-48,2,53,-53,-53,-102,-58,-68
-48,-29,19,39,-34,-4,53,-53,-53,-107,-63,-68
-34,-34,0,34,-17,-17,53,-58,-58,-112,-68,-68
-39,-39,0,39,-19,-19,53,-58,-63,-117,-73,-68
-39,-39,0,39,-19,-19,43,-58,-63,-117,-73,-78
-34,-39,-4,36,-14,-21,43,-58,-63,-117,-73,-78
-29,-39,-9,34,-9,-24,43,-58,-53,-112,-73,-73
-29,-39,-9,34,-9,-24,43,-58,-53,-107,-68,-68
-48,-43,4,46,-26,-19,48,-48,-48,-92,-58,-63
-53,-48,4,51,-29,-21,53,-43,-43,-92,-53,-58
-58,-53,4,56,-31,-24,58,-43,-48,-92,-48,-58
-63,-68,-4,65,-29,-36,63,-48,-43,-97,-43,-53
-58,-68,-9,63,-24,-39,48,-53,-43,-97,-48,-53
-63,-68,-4,65,-29,-36,53,-53,-43,-97,-48,-53
-68,-73,-4,70,-31,-39,58,-39,-29,-87,-39,-48
-58,-73,-14,65,-21,-43,53,-39,-29,-87,-39,-48
-53,-58,-4,56,-24,-31,48,-43,-43,-92,-43,-53
-39,-43,-4,41,-17,-24,48,-53,-53,-97,-48,-58
-24,-19,4,21,-14,-7,48,-58,-63,-102,-53,-63
-9,-19,-9,14,0,-14,53,-63,-68,-102,-58,-68
-24,-43,-19,34,-2,-31,63,-58,-63,-97,-43,-48
-39,-48,-9,43,-14,-29,63,-53,-58,-97,-39,-43
-48,-53,-4,51,-21,-29,63,-48,-53,-92,-34,-39
-63,-58,4,61,-34,-26,63,-43,-48,-87,-29,-34
-63,-48,14,56,-39,-17,63,-48,-53,-97,-34,-29
-58,-43,14,51,-36,-14,63,-53,-58,-97,-34,-29
-58,-34,24,46,-41,-4,63,-58,-63,-97,-34,-34
-53,-29,24,41,-39,-2,58,-68,-73,-97,-39,-34
-58,-48,9,53,-34,-19,73,-58,-53,-92,-39,-24
-58,-58,0,58,-29,-29,78,-48,-43,-82,-34,-24
-48,-73,-24,61,-12,-48,82,-29,-34,-73,-24,-29
-48,-92,-43,70,-2,-68,82,-19,-19,-58,-19,-29
-58,-82,-24,70,-17,-53,68,-29,-24,-63,-24,-43
-58,-58,0,58,-29,-29,58,-43,-39,-78,-34,-43
-58,-48,9,53,-34,-19,53,-48,-43,-82,-39,-43
-58,-39,19,48,-39,-9,48,-53,-48,-87,-43,-39
-43,-39,4,41,-24,-17,39,-63,-68,-97,-43,-48
-39,-43,-4,41,-17,-24,39,-63,-68,-97,-43,-48
-43,-53,-9,48,-17,-31,43,-63,-68,-97,-43,-48
-39,-82,-43,61,2,-63,43,-58,-63,-97,-39,-48
-39,-87,-48,63,4,-68,34,-68,-63,-107,-48,-58
-34,-73,-39,53,2,-56,24,-78,-73,-117,-53,-63
-29,-53,-24,41,-2,-39,24,-82,-78,-117,-53,-63
-9,-48,-39,29,14,-43,24,-82,-78,-112,-48,-63
-29,-43,-14,36,-7,-29,39,-78,-68,-102,-43,-58
-34,-43,-9,39,-12,-26,43,-73,-63,-97,-43,-53
-39,-34,4,36,-21,-14,48,-68,-58,-97,-39,-48
-43,-34,9,39,-26,-12,53,-63,-53,-97,-34,-43
-53,-29,24,41,-39,-2,58,-63,-48,-87,-24,-34
-53,-24,29,39,-41,2,63,-63,-48,-87,-24,-34
-48,-4,43,26,-46,19,63,-68,-48,-92,-24,-34
-48,14,63,17,-56,39,68,-68,-53,-92,-24,-34
-29,19,48,4,-39,34,58,-78,-63,-97,-29,-39
-19,0,19,9,-19,9,63,-78,-63,-102,-24,-39
-29,-9,19,19,-24,4,68,-78,-63,-92,-29,-34
-34,-19,14,26,-24,-2,73,-78,-63,-97,-29,-39
-48,-29,19,39,-34,-4,63,-73,-53,-102,-19,-29
-48,-14,34,31,-41,9,68,-73,-48,-102,-19,-29
-48,-14,34,31,-41,9,73,-73,-48,-102,-14,-29
-48,-19,29,34,-39,4,78,-73,-43,-97,-14,-24
-53,-34,19,43,-36,-7,87,-63,-34,-87,-14,-24
-48,-34,14,41,-31,-9,92,-63,-34,-87,-14,-24
-43,-29,14,36,-29,-7,92,-63,-39,-92,-19,-29
-48,-19,29,34,-39,4,97,-63,-39,-92,-19,-29
-43,-9,34,26,-39,12,97,-53,-29,-82,-9,-19
-34,4,39,14,-36,21,102,-53,-29,-82,-9,-19
-24,4,29,9,-26,17,107,-53,-29,-82,-9,-19
0,19,19,-9,-9,19,122,-53,-19,-78,0,-14
-19,73,92,-26,-56,82,107,-63,-39,-78,-9,-14
-24,141,165,-58,-95,153,97,-73,-48,-73,0,-9
-14,122,136,-53,-75,129,102,-68,-34,-48,14,4
-4,73,78,-34,-41,75,82,-78,-43,-58,14,-14
9,78,68,-43,-29,73,78,-87,-48,-78,0,-19
0,68,68,-34,-34,68,63,-97,-58,-78,9,-9
-9,58,68,-24,-39,63,58,-97,-58,-78,9,-9
-19,48,68,-14,-43,58,53,-97,-58,-78,9,-9
-29,39,68,-4,-48,53,48,-97,-58,-78,9,-9
-29,58,87,-14,-58,73,39,-107,-58,-87,9,0
-24,68,92,-21,-58,80,39,-102,-58,-82,9,0
-14,78,92,-31,-53,85,29,-97,-53,-78,9,0
-9,87,97,-39,-53,92,29,-92,-53,-78,14,0
0,97,97,-48,-48,97,19,-92,-63,-82,24,14
0,97,97,-48,-48,97,19,-87,-63,-82,29,14
0,92,92,-46,-46,92,19,-87,-58,-78,29,19
0,73,73,-36,-36,73,29,-87,-58,-78,39,19
14,63,48,-39,-17,56,24,-97,-68,-73,19,4
4,48,43,-26,-19,46,19,-107,-78,-92,4,-4
19,39,19,-29,0,29,9,-112,-87,-92,-4,-14
24,39,14,-31,4,26,9,-112,-87,-97,-4,-14
4,19,14,-12,-4,17,19,-107,-78,-107,-4,-19
14,4,-9,-9,12,-2,24,-112,-82,-117,-14,-19
24,-19,-43,-2,34,-31,24,-122,-92,-126,-19,-24
24,-34,-58,4,41,-46,24,-122,-97,-126,-19,-34
0,-39,-39,19,19,-39,9,-131,-102,-141,-39,-48
-9,-39,-29,24,9,-34,0,-136,-107,-146,-53,-58
-9,-58,-48,34,19,-53,-4,-141,-122,-151,-58,-68
-9,-58,-48,34,19,-53,-9,-141,-131,-156,-73,-78
-24,-43,-19,34,-2,-31,-4,-141,-122,-156,-58,-63
-29,-34,-4,31,-12,-19,4,-131,-112,-141,-48,-58
-29,-34,-4,31,-12,-19,4,-131,-112,-141,-43,-58
-39,-19,19,29,-29,0,4,-131,-117,-151,-43,-58
-34,-34,0,34,-17,-17,4,-131,-117,-146,-48,-68
-43,-53,-9,48,-17,-31,4,-131,-117,-146,-53,-68
-39,-63,-24,51,-7,-43,4,-136,-126,-151,-58,-78
-24,-73,-48,48,12,-61,4,-141,-126,-161,-73,-82
-29,-112,-82,70,26,-97,4,-141,-136,-161,-63,-82
-29,-117,-87,73,29,-102,0,-141,-146,-165,-78,-87
-34,-126,-92,80,29,-109,-4,-151,-151,-165,-82,-92
-39,-141,-102,90,31,-122,-4,-151,-151,-165,-82,-92
-48,-136,-87,92,19,-112,-4,-146,-146,-175,-78,-92
-58,-131,-73,95,7,-102,-4,-146,-146,-175,-78,-87
-73,-126,-53,100,-9,-90,0,-141,-141,-175,-73,-82
-68,-122,-53,95,-7,-87,0,-141,-141,-175,-73,-82
-58,-107,-48,82,-4,-78,0,-131,-136,-165,-68,-78
-58,-87,-29,73,-14,-58,0,-131,-136,-165,-68,-82
-39,-78,-39,58,0,-58,0,-131,-131,-165,-68,-78
-24,-58,-34,41,4,-46,0,-131,-131,-165,-73,-73
-39,-63,-24,51,-7,-43,-4,-141,-141,-180,-87,-78
-58,-73,-14,65,-21,-43,-4,-141,-141,-180,-87,-82
-73,-102,-29,87,-21,-65,4,-136,-136,-175,-82,-82
-58,-117,-58,87,0,-87,4,-136,-136,-175,-82,-87
-48,-112,-63,80,7,-87,4,-131,-136,-170,-78,-97
-48,-97,-48,73,0,-73,4,-131,-136,-175,-78,-97
-48,-92,-43,70,-2,-68,9,-126,-136,-175,-78,-97
-53,-92,-39,73,-7,-65,9,-126,-136,-175,-78,-97
-48,-107,-58,78,4,-82,9,-122,-126,-165,-78,-87
-43,-112,-68,78,12,-90,14,-122,-126,-165,-78,-87
-39,-126,-87,82,24,-107,29,-122,-126,-161,-73,-82
-34,-136,-102,85,34,-119,34,-122,-126,-156,-73,-82
-48,-136,-87,92,19,-112,29,-126,-131,-165,-73,-82
-58,-136,-78,97,9,-107,19,-131,-141,-170,-82,-82
-63,-122,-58,92,-2,-90,14,-136,-146,-170,-82,-82
-82,-122,-39,102,-21,-80,14,-141,-146,-170,-78,-87
-78,-141,-63,109,-7,-102,24,-131,-136,-170,-87,-87
-68,-141,-73,104,2,-107,24,-131,-136,-170,-87,-87
-48,-131,-82,90,17,-107,24,-131,-136,-170,-87,-87
-34,-97,-63,65,14,-80,19,-131,-136,-170,-87,-92
-43,-102,-58,73,7,-80,19,-141,-126,-180,-87,-102
-53,-107,-53,80,0,-80,19,-141,-126,-180,-87,-97
-63,-112,-48,87,-7,-80,24,-141,-126,-180,-87,-97
-63,-131,-68,97,2,-100,29,-141,-126,-180,-87,-102
-48,-122,-73,85,12,-97,24,-131,-131,-170,-87,-102
-43,-136,-92,90,24,-114,19,-131,-136,-170,-87,-102
-39,-141,-102,90,31,-122,14,-131,-141,-170,-87,-97
-34,-141,-107,87,36,-124,9,-131,-146,-175,-87,-97
-43,-131,-87,87,21,-109,4,-131,-146,-185,-82,-87
-43,-126,-82,85,19,-104,4,-131,-146,-180,-82,-87
-39,-126,-87,82,24,-107,9,-122,-141,-175,-78,-87
-39,-126,-87,82,24,-107,14,-112,-141,-175,-78,-87
-39,-87,-48,63,4,-68,9,-122,-131,-180,-87,-87
-87,-82,4,85,-46,-39,24,-97,-126,-180,-102,-102
-107,-156,-48,131,-29,-102,58,-68,-102,-161,-102,-97
-58,-185,-126,122,34,-156,73,-34,-87,-156,-92,-102
-9,-165,-156,87,73,-161,63,-4,-63,-151,-107,-112
-39,-165,-126,102,43,-146,82,48,-19,-126,-92,-117
-63,-195,-131,129,34,-163,112,136,63,-78,-58,-87
4,-165,-170,80,87,-168,136,214,146,4,4,-39
82,-102,-185,9,134,-143,112,263,219,102,82,9
102,-39,-141,-31,122,-90,63,273,268,204,170,82
78,53,-24,-65,51,14,-4,224,268,312,268,185
107,131,24,-119,41,78,-92,126,214,395,366,273
146,146,0,-146,73,73,-175,53,170,517,497,390
195,209,14,-202,90,112,-278,-9,136,688,683,536
287,322,34,-305,126,178,-405,-117,68,849,849,678
351,370,19,-361,165,195,-541,-204,-19,985,980,780
370,380,9,-375,180,195,-644,-239,-82,1083,1058,834
380,380,0,-380,190,190,-722,-307,-156,1112,1073,863
400,361,-39,-380,219,161,-785,-409,-278,1063,1054,863
409,302,-107,-356,258,97,-849,-561,-424,922,971,844
405,248,-156,-326,280,46,-927,-766,-605,692,805,756
351,219,-131,-285,241,43,-1005,-1019,-839,380,556,556
278,97,-180,-187,229,-41,-1005,-1249,-1054,48,268,317
214,-107,-322,-53,268,-214,-961,-1424,-1244,-258,-4,68
165,-268,-434,51,300,-351,-932,-1542,-1410,-546,-253,-131
107,-366,-473,129,290,-419,-883,-1571,-1537,-780,-444,-297
34,-458,-492,212,263,-475,-824,-1561,-1590,-941,-595,-424
-29,-541,-512,285,241,-527,-805,-1542,-1605,-1054,-688,-497
-53,-585,-531,319,239,-558,-810,-1507,-1605,-1112,-766,-585
-53,-624,-570,339,258,-597,-790,-1439,-1566,-1141,-824,-644
-82,-634,-551,358,234,-592,-751,-1332,-1478,-1117,-824,-658
-87,-600,-512,344,212,-556,-722,-1234,-1366,-1078,-785,-639
-87,-570,-483,329,197,-527,-707,-1171,-1293,-1044,-771,-634
-117,-561,-444,339,163,-502,-683,-1107,-1210,-990,-736,-614
-107,-517,-409,312,151,-463,-649,-1029,-1112,-917,-702,-595
-78,-488,-409,283,165,-448,-580,-917,-985,-834,-649,-556
-82,-458,-375,270,146,-417,-488,-766,-844,-732,-556,-483
-82,-390,-307,236,112,-348,-390,-639,-722,-629,-468,-409
-82,-317,-234,200,75,-275,-297,-517,-595,-531,-380,-326
-78,-297,-219,187,70,-258,-204,-380,-458,-414,-268,-224
-43,-248,-204,146,80,-226,-136,-292,-351,-351,-204,-175
-29,-180,-151,104,61,-165,-107,-248,-302,-331,-200,-180
-48,-190,-141,119,46,-165,-82,-200,-258,-297,-185,-165
-39,-185,-146,112,53,-165,-48,-146,-195,-253,-156,-141
-19,-107,-87,63,34,-97,-9,-102,-141,-209,-131,-117
-9,-58,-48,34,19,-53,29,-48,-102,-170,-97,-92
-14,-78,-63,46,24,-70,53,-19,-78,-141,-73,-73
-4,-78,-73,41,34,-75,58,-4,-73,-131,-68,-68
-9,-78,-68,43,29,-73,63,-4,-63,-141,-63,-63
-9,-68,-58,39,24,-63,68,9,-48,-131,-58,-53
-4,-63,-58,34,26,-61,68,19,-39,-126,-43,-48
0,-63,-63,31,31,-63,68,19,-34,-122,-43,-48
0,-58,-58,29,29,-58,82,34,-24,-107,-39,-43
0,-58,-58,29,29,-58,92,48,-4,-97,-24,-29
0,-58,-58,29,29,-58,107,48,0,-97,-24,-19
-4,-34,-29,19,12,-31,107,53,9,-87,-24,-24
4,-19,-24,7,14,-21,112,68,29,-87,-19,-29
4,-14,-19,4,12,-17,112,68,29,-82,-19,-34
0,-9,-9,4,4,-9,112,73,39,-82,-19,-34
-9,-29,-19,19,4,-24,102,82,53,-63,-4,-24
-9,-39,-29,24,9,-34,112,92,73,-43,4,-14
-4,-43,-39,24,17,-41,117,102,78,-39,9,-9
0,-24,-24,12,12,-24,122,102,78,-39,14,-9
-14,-9,4,12,-9,-2,131,107,87,-29,24,0
-14,-9,4,12,-9,-2,131,117,87,-29,24,4
-4,-9,-4,7,0,-7,131,122,92,-29,24,4
-24,-29,-4,26,-9,-17,136,141,102,-19,29,4
-19,-39,-19,29,0,-29,141,151,102,-4,48,24
-29,-24,4,26,-17,-9,136,156,117,4,53,29
-19,-9,9,14,-14,0,136,151,122,9,58,34
-4,-9,-4,7,0,-7,136,151,122,19,63,34
9,-29,-39,9,24,-34,131,151,122,14,63,29
9,-34,-43,12,26,-39,131,156,122,9,58,29
4,-34,-39,14,21,-36,141,161,131,14,53,24
4,-39,-43,17,24,-41,141,170,136,9,48,19
4,-24,-29,9,17,-26,146,161,136,9,34,14
0,-14,-14,7,7,-14,146,161,141,4,29,14
4,-9,-14,2,9,-12,151,175,146,4,29,19
0,-9,-9,4,4,-9,156,185,161,14,43,34
19,-4,-24,-7,21,-14,156,190,165,9,34,29
19,19,0,-19,9,9,156,190,161,9,19,29
24,24,0,-24,12,12,156,195,161,14,29,29
34,19,-14,-26,24,2,170,209,165,24,34,34
29,39,9,-34,9,24,170,219,180,29,39,39
24,58,34,-41,-4,46,161,224,185,34,34,39
24,63,39,-43,-7,51,161,234,190,43,39,43
34,53,19,-43,7,36,165,253,209,53,58,53
29,39,9,-34,9,24,175,263,229,68,78,63
29,48,19,-39,4,34,185,278,239,92,82,68
39,53,14,-46,12,34,185,287,248,102,87,68
39,48,9,-43,14,29,185,297,253,107,87,68
34,43,9,-39,12,26,185,307,263,117,92,78
29,48,19,-39,4,34,185,322,268,131,102,82
29,43,14,-36,7,29,190,331,278,131,107,82
24,39,14,-31,4,26,195,346,292,146,107,82
34,63,29,-48,2,46,190,341,302,161,131,107
39,92,53,-65,-7,73,200,361,322,170,131,112
53,92,39,-73,7,65,209,375,326,180,136,117
68,87,19,-78,24,53,209,395,336,190,141,117
82,107,24,-95,29,65,204,380,326,185,126,107
97,102,4,-100,46,53,200,400,331,180,126,112
112,102,-9,-107,61,46,200,409,346,180,126,112
131,97,-34,-114,82,31,200,419,346,175,131,112
107,87,-19,-97,63,34,224,444,366,200,151,131
82,97,14,-90,34,56,239,458,385,219,165,141
73,102,29,-87,21,65,244,478,400,234,175,156
48,107,58,-78,-4,82,248,488,414,244,185,170
53,97,43,-75,4,70,244,517,434,258,190,170
63,97,34,-80,14,65,248,531,458,273,195,175
78,102,24,-90,26,63,253,546,468,283,209,180
87,102,14,-95,36,58,258,561,478,302,219,185
82,126,43,-104,19,85,263,590,497,307,224,200
82,141,58,-112,12,100,263,595,507,307,229,204
87,146,58,-117,14,102,268,614,527,322,239,214
82,136,53,-109,14,95,278,639,541,341,253,234
102,170,68,-136,17,119,268,634,546,341,258,239
107,200,92,-153,7,146,273,653,556,361,273,239
107,204,97,-156,4,151,278,673,570,375,283,244
122,209,87,-165,17,148,283,688,585,380,292,248
112,200,87,-156,12,143,283,688,605,390,307,253
112,204,92,-158,9,148,287,702,619,414,317,263
122,209,87,-165,17,148,292,732,634,439,336,273
126,209,82,-168,21,146,297,746,649,453,346,283
151,200,48,-175,51,124,287,761,668,468,370,297
156,195,39,-175,58,117,287,771,678,483,380,302
141,185,43,-163,48,114,292,785,688,502,400,322
161,175,14,-168,73,95,292,785,702,517,419,331
180,209,29,-195,75,119,278,780,688,502,405,326
190,239,48,-214,70,143,278,780,683,507,400,326
195,258,63,-226,65,161,278,775,678,507,400,326
204,273,68,-239,68,170,283,775,688,507,414,331
190,283,92,-236,48,187,302,790,697,517,424,341
170,283,112,-226,29,197,307,805,707,531,434,356
156,283,126,-219,14,204,317,819,717,551,453,370
151,283,131,-217,9,207,331,834,736,570,473,390
141,297,156,-219,-7,226,322,819,732,556,463,390
141,297,156,-219,-7,226,317,800,727,551,458,385
146,307,161,-226,-7,234,312,795,712,546,453,380
146,297,151,-222,-2,224,312,785,702,541,453,375
151,283,131,-217,9,207,302,780,688,531,444,375
151,287,136,-219,7,212,292,771,683,531,444,375
165,292,126,-229,19,209,287,761,683,527,444,366
165,292,126,-229,19,209,283,741,663,517,434,361
151,292,141,-222,4,217,287,741,658,512,434,370
146,283,136,-214,4,209,283,722,649,512,429,370
146,273,126,-209,9,200,278,697,634,502,424,370
141,263,122,-202,9,192,273,678,619,492,419,361
141,258,117,-200,12,187,253,649,590,478,395,336
146,253,107,-200,19,180,234,629,561,458,385,331
146,244,97,-195,24,170,224,595,536,444,370,322
136,239,102,-187,17,170,214,561,512,424,356,312
151,234,82,-192,34,158,204,541,502,414,351,317
156,229,73,-192,41,151,190,512,478,400,341,312
156,229,73,-192,41,151,185,478,453,385,331,297
141,224,82,-183,29,153,175,453,439,366,326,292
131,219,87,-175,21,153,175,424,419,361,312,278
126,219,92,-173,17,156,170,400,390,331,302,263
122,209,87,-165,17,148,161,366,361,312,278,248
107,209,102,-158,2,156,151,336,322,283,253,229
87,165,78,-126,4,122,151,326,307,268,248,219
87,146,58,-117,14,102,146,307,292,253,239,224
68,136,68,-102,0,102,141,292,268,234,224,224
68,122,53,-95,7,87,126,263,239,209,200,204
78,107,29,-92,24,68,112,229,200,165,180,170
82,97,14,-90,34,56,97,190,175,146,156,146
92,92,0,-92,46,46,82,151,136,112,126,122
92,82,-9,-87,51,36,68,117,122,87,102,92
82,68,-14,-75,48,26,78,97,107,78,97,97
58,53,-4,-56,31,24,78,82,97,63,92,102
34,58,24,-46,4,41,73,73,73,43,82,92
24,63,39,-43,-7,51,53,53,53,24,68,78
0,63,63,-31,-31,63,58,34,43,14,63,78
-9,53,63,-21,-36,58,63,29,29,19,58,82
-14,53,68,-19,-41,61,58,19,24,14,58,78
-19,34,53,-7,-36,43,63,24,9,9,53,78
-19,14,34,2,-26,24,53,19,4,-4,43,68
-19,9,29,4,-24,19,48,9,-9,-14,29,48
-14,4,19,4,-17,12,43,-4,-19,-34,4,34
-9,0,9,4,-9,4,34,-14,-34,-39,-4,24
0,9,9,-4,-4,9,34,-29,-39,-53,-19,9
-4,19,24,-7,-14,21,34,-39,-43,-58,-29,4
-9,24,34,-7,-21,29,34,-48,-48,-68,-29,0
-9,34,43,-12,-26,39,29,-68,-58,-82,-43,-9
-4,19,24,-7,-14,21,24,-63,-68,-92,-34,-9
-14,9,24,2,-19,17,29,-58,-63,-92,-34,-9
-9,-9,0,9,-4,-4,34,-53,-58,-87,-29,-4
0,0,0,0,0,0,39,-58,-63,-87,-29,-4
4,-9,-14,2,9,-12,34,-78,-82,-102,-53,-14
19,4,-14,-12,17,-4,29,-82,-87,-117,-58,-24
14,4,-9,-9,12,-2,29,-92,-92,-122,-63,-29
14,-9,-24,-2,19,-17,24,-97,-97,-126,-68,-34
14,-14,-29,0,21,-21,24,-107,-107,-136,-68,-34
14,-19,-34,2,24,-26,24,-107,-112,-136,-68,-34
14,-14,-29,0,21,-21,14,-107,-112,-136,-73,-34
19,-14,-34,-2,26,-24,24,-107,-112,-136,-73,-34
0,-19,-19,9,9,-19,24,-102,-107,-131,-73,-34
-9,-9,0,9,-4,-4,24,-97,-102,-126,-73,-34
-19,-14,4,17,-12,-4,24,-97,-97,-122,-73,-39
-29,-29,0,29,-14,-14,24,-92,-97,-117,-73,-39
-34,-39,-4,36,-14,-21,34,-82,-87,-117,-73,-34
-19,-29,-9,24,-4,-19,34,-82,-87,-117,-68,-29
-14,-19,-4,17,-4,-12,34,-87,-87,-117,-73,-24
-9,-29,-19,19,4,-24,34,-87,-87,-117,-68,-19
9,-19,-29,4,19,-24,39,-87,-92,-117,-73,-34
19,-19,-39,0,29,-29,39,-87,-92,-117,-73,-39
24,-19,-43,-2,34,-31,34,-82,-92,-112,-73,-39
19,-19,-39,0,29,-29,34,-82,-97,-112,-73,-39
19,-19,-39,0,29,-29,34,-92,-107,-122,-73,-39
14,-19,-34,2,24,-26,29,-87,-102,-117,-73,-39
14,-34,-48,9,31,-41,24,-87,-102,-117,-73,-39
24,-24,-48,0,36,-36,19,-87,-107,-122,-78,-39
19,-29,-48,4,34,-39,9,-97,-107,-131,-82,-48
14,-43,-58,14,36,-51,14,-97,-102,-131,-78,-43
0,-53,-53,26,26,-53,19,-92,-102,-126,-82,-43
-4,-58,-53,31,24,-56,19,-92,-97,-126,-87,-43
0,-39,-39,19,19,-39,19,-102,-107,-131,-87,-48
0,-24,-24,12,12,-24,24,-102,-107,-131,-87,-48
-14,-19,-4,17,-4,-12,34,-102,-107,-131,-87,-43
-14,-4,9,9,-12,2,39,-102,-107,-131,-82,-39
-4,-4,0,4,-2,-2,29,-92,-117,-141,-92,-48
-4,-9,-4,7,0,-7,29,-92,-117,-141,-97,-53
-19,-14,4,17,-12,-4,29,-92,-117,-141,-97,-53
-9,-24,-14,17,2,-19,24,-92,-117,-141,-97,-53
-9,-29,-19,19,4,-24,34,-87,-107,-136,-87,-48
-9,-34,-24,21,7,-29,34,-78,-97,-131,-78,-43
-9,-39,-29,24,9,-34,34,-68,-87,-126,-68,-39
-9,-43,-34,26,12,-39,34,-63,-73,-122,-58,-29
0,-14,-14,7,7,-14,34,-73,-82,-122,-68,-39
24,-24,-48,0,36,-36,34,-68,-78,-122,-68,-39
34,9,-24,-21,29,-7,39,-63,-78,-122,-68,-39
39,9,-29,-24,34,-9,39,-63,-78,-122,-68,-39
29,0,-29,-14,29,-14,43,-68,-78,-131,-78,-39
19,0,-19,-9,19,-9,43,-68,-78,-131,-78,-39
9,0,-9,-4,9,-4,43,-63,-78,-131,-78,-39
4,0,-4,-2,4,-2,43,-63,-73,-131,-78,-39
9,-9,-19,0,14,-14,48,-58,-58,-112,-87,-43
14,-9,-24,-2,19,-17,48,-53,-58,-112,-82,-43
24,-9,-34,-7,29,-21,48,-53,-58,-117,-82,-48
29,4,-24,-17,26,-9,43,-53,-58,-117,-82,-48
9,4,-4,-7,7,0,34,-63,-68,-107,-73,-48
19,0,-19,-9,19,-9,34,-63,-63,-107,-73,-48
29,-9,-39,-9,34,-24,34,-68,-63,-107,-73,-48
19,-19,-39,0,29,-29,34,-68,-63,-107,-73,-48
0,-19,-19,9,9,-19,43,-63,-53,-102,-58,-43
-14,-19,-4,17,-4,-12,43,-58,-53,-97,-53,-39
-29,-19,9,24,-19,-4,43,-53,-43,-87,-48,-29
-48,-19,29,34,-39,4,43,-48,-43,-78,-39,-19
-24,4,29,9,-26,17,43,-48,-43,-82,-43,-19
-4,19,24,-7,-14,21,43,-43,-43,-82,-43,-19
14,34,19,-24,-2,26,43,-43,-53,-82,-43,-24
34,39,4,-36,14,21,43,-48,-53,-87,-43,-24
34,43,9,-39,12,26,43,-43,-53,-87,-48,-14
34,39,4,-36,14,21,53,-43,-53,-87,-48,-14
34,29,-4,-31,19,12,63,-29,-39,-78,-39,-9
48,24,-24,-36,36,0,63,-29,-39,-78,-39,-9
29,24,-4,-26,17,9,53,-39,-48,-78,-39,-9
29,24,-4,-26,17,9,48,-43,-53,-78,-39,-9
29,34,4,-31,12,19,43,-43,-58,-78,-39,-9
29,19,-9,-24,19,4,43,-43,-58,-73,-39,-9
24,9,-14,-17,19,-2,39,-43,-58,-82,-48,-9
19,9,-9,-14,14,0,34,-43,-58,-87,-48,-14
19,9,-9,-14,14,0,29,-43,-58,-87,-48,-19
14,9,-4,-12,9,2,24,-43,-58,-87,-48,-24
0,0,0,0,0,0,24,-53,-58,-78,-34,-9
0,-4,-4,2,2,-4,24,-53,-58,-78,-34,-9
-4,-4,0,4,-2,-2,24,-53,-58,-78,-34,-14
-4,-9,-4,7,0,-7,19,-58,-63,-78,-39,-14
9,4,-4,-7,7,0,19,-68,-73,-92,-53,-24
19,19,0,-19,9,9,19,-68,-73,-92,-53,-24
39,29,-9,-34,24,9,19,-58,-73,-92,-48,-29
48,34,-14,-41,31,9,14,-58,-68,-87,-48,-29
43,43,0,-43,21,21,24,-53,-68,-78,-39,-24
39,58,19,-48,9,39,19,-63,-78,-87,-43,-24
34,58,24,-46,4,41,19,-63,-78,-87,-43,-24
29,58,29,-43,0,43,19,-63,-78,-87,-43,-19
43,53,9,-48,17,31,24,-53,-73,-78,-34,-9
48,53,4,-51,21,29,29,-53,-68,-78,-34,-9
43,48,4,-46,19,26,39,-53,-63,-78,-34,-9
48,24,-24,-36,36,0,43,-48,-53,-78,-29,-9
34,4,-29,-19,31,-12,34,-53,-58,-82,-34,-19
34,14,-19,-24,26,-2,24,-68,-73,-97,-43,-24
34,29,-4,-31,19,12,24,-78,-82,-102,-48,-24
48,29,-19,-39,34,4,24,-82,-87,-102,-48,-24
43,34,-9,-39,26,12,14,-73,-92,-102,-39,-24
43,34,-9,-39,26,12,14,-73,-92,-97,-43,-24
43,43,0,-43,21,21,14,-73,-92,-97,-43,-24
43,43,0,-43,21,21,14,-73,-92,-97,-43,-24
34,34,0,-34,17,17,19,-82,-87,-97,-53,-34
24,24,0,-24,12,12,24,-82,-87,-97,-53,-34
19,29,9,-24,4,19,24,-87,-87,-102,-53,-34
9,34,24,-21,-7,29,29,-87,-92,-102,-53,-34
29,58,29,-43,0,43,19,-78,-82,-102,-53,-34
39,48,9,-43,14,29,24,-78,-82,-102,-43,-29
29,48,19,-39,4,34,29,-78,-82,-87,-43,-19
24,48,24,-36,0,36,34,-78,-82,-87,-39,-19
43,63,19,-53,12,41,43,-73,-73,-82,-39,-19
58,82,24,-70,17,53,48,-73,-68,-82,-39,-19
73,87,14,-80,29,51,53,-73,-68,-82,-34,-19
87,87,0,-87,43,43,58,-73,-63,-78,-34,-14
68,63,-4,-65,36,29,58,-82,-63,-87,-43,-14
58,53,-4,-56,31,24,53,-82,-63,-87,-43,-14
48,48,0,-48,24,24,43,-82,-68,-92,-48,-19
29,48,19,-39,4,34,39,-82,-68,-92,-48,-19
19,58,39,-39,-9,48,34,-92,-78,-82,-48,-19
14,73,58,-43,-21,65,34,-92,-78,-82,-48,-19
9,73,63,-41,-26,68,34,-92,-78,-82,-48,-19
19,87,68,-53,-24,78,43,-92,-68,-78,-39,-14
19,78,58,-48,-19,68,63,-82,-63,-68,-29,-4
4,73,68,-39,-31,70,68,-73,-58,-63,-29,0
4,68,63,-36,-29,65,78,-58,-48,-58,-24,4
24,63,39,-43,-7,51,82,-48,-43,-58,-24,4
24,82,58,-53,-17,70,73,-53,-48,-63,-39,-9
24,87,63,-56,-19,75,82,-58,-53,-68,-39,-9
24,92,68,-58,-21,80,73,-63,-58,-73,-43,-9
19,97,78,-58,-29,87,58,-73,-63,-78,-48,-14
9,107,97,-58,-43,102,68,-68,-43,-73,-29,4
78,136,58,-107,9,97,53,-63,-34,-58,-19,19
87,156,68,-122,9,112,39,-82,-43,-58,-9,19
48,156,107,-102,-29,131,39,-78,-39,-48,0,29
48,156,107,-102,-29,131,34,-82,-53,-53,-4,24
48,156,107,-102,-29,131,29,-87,-58,-58,-9,19
48,156,107,-102,-29,131,24,-92,-63,-63,-14,14
48,156,107,-102,-29,131,19,-97,-68,-68,-19,9
48,151,102,-100,-26,126,9,-102,-78,-78,-19,9
53,146,92,-100,-19,119,9,-102,-78,-73,-19,9
63,141,78,-102,-7,109,0,-102,-73,-68,-19,9
68,136,68,-102,0,102,0,-102,-73,-68,-14,9
82,151,68,-117,7,109,-4,-112,-78,-63,-9,19
87,156,68,-122,9,112,-9,-107,-82,-63,-9,14
92,156,63,-124,14,109,-14,-107,-82,-58,-14,14
97,141,43,-119,26,92,-9,-107,-87,-58,-9,9
82,122,39,-102,21,80,-19,-97,-92,-53,-24,0
53,97,43,-75,4,70,-19,-107,-97,-73,-34,-4
48,78,29,-63,9,53,-24,-112,-102,-73,-39,-9
34,68,34,-51,0,51,-19,-112,-97,-78,-34,-4
34,78,43,-56,-4,61,-19,-117,-107,-87,-39,-19
43,82,39,-63,2,61,-24,-122,-112,-97,-53,-19
53,78,24,-65,14,51,-34,-131,-122,-107,-63,-24
53,82,29,-68,12,56,-43,-131,-126,-107,-68,-34
58,68,9,-63,24,39,-34,-122,-117,-102,-63,-34
58,68,9,-63,24,39,-39,-126,-117,-107,-73,-39
68,48,-19,-58,43,14,-39,-131,-126,-112,-73,-43
78,48,-29,-63,53,9,-39,-131,-131,-117,-82,-48
58,58,0,-58,29,29,-34,-141,-141,-126,-92,-58
48,53,4,-51,21,29,-24,-131,-131,-112,-87,-58
43,39,-4,-41,24,17,-24,-131,-131,-112,-87,-63
29,39,9,-34,9,24,-24,-131,-136,-122,-92,-68
24,19,-4,-21,14,7,-24,-141,-136,-117,-92,-68
14,4,-9,-9,12,-2,-24,-141,-136,-117,-92,-68
19,0,-19,-9,19,-9,-24,-146,-146,-122,-92,-78
34,-4,-39,-14,36,-21,-24,-151,-146,-131,-102,-82
39,-43,-82,2,61,-63,-29,-151,-151,-136,-107,-87
48,-39,-87,-4,68,-63,-39,-151,-165,-146,-126,-97
53,-39,-92,-7,73,-65,-48,-161,-175,-151,-136,-107
58,-43,-102,-7,80,-73,-53,-161,-180,-156,-141,-112
29,-53,-82,12,56,-68,-53,-156,-165,-156,-136,-112
9,-53,-63,21,36,-58,-53,-156,-165,-156,-136,-107
-14,-53,-39,34,12,-46,-48,-151,-161,-156,-131,-102
-19,-53,-34,36,7,-43,-48,-151,-161,-156,-131,-102
-4,-34,-29,19,12,-31,-39,-141,-165,-156,-131,-92
-9,-19,-9,14,0,-14,-39,-141,-165,-156,-126,-102
4,-14,-19,4,12,-17,-39,-141,-161,-156,-122,-102
14,0,-14,-7,14,-7,-39,-141,-161,-156,-122,-102
19,4,-14,-12,17,-4,-29,-136,-165,-156,-122,-97
9,4,-4,-7,7,0,-24,-131,-161,-151,-117,-92
4,-14,-19,4,12,-17,-9,-122,-151,-141,-107,-82
29,-19,-48,-4,39,-34,-4,-117,-146,-136,-102,-78
24,-29,-53,2,39,-41,-9,-126,-151,-151,-117,-97
19,-19,-39,0,29,-29,-14,-131,-156,-156,-117,-97
14,-19,-34,2,24,-26,-14,-131,-161,-156,-117,-97
4,-24,-29,9,17,-26,-19,-136,-165,-156,-117,-97
9,-34,-43,12,26,-39,-24,-131,-156,-146,-126,-97
14,-34,-48,9,31,-41,-24,-131,-156,-146,-126,-97
19,-43,-63,12,41,-53,-14,-131,-156,-141,-122,-92
24,-48,-73,12,48,-61,-14,-131,-156,-136,-122,-92
34,-48,-82,7,58,-65,-29,-146,-170,-146,-136,-112
39,-48,-87,4,63,-68,-39,-151,-180,-161,-151,-122
48,-34,-82,-7,65,-58,-43,-156,-185,-170,-156,-131
43,-34,-78,-4,61,-56,-43,-161,-185,-180,-156,-146
24,-43,-68,9,46,-56,-29,-146,-170,-170,-141,-136
19,-43,-63,12,41,-53,-24,-141,-165,-161,-136,-126
24,-34,-58,4,41,-46,-19,-136,-161,-151,-131,-117
24,0,-24,-12,24,-12,-19,-131,-156,-141,-126,-112
14,-9,-24,-2,19,-17,-19,-131,-156,-131,-126,-112
-4,-19,-14,12,4,-17,-19,-131,-156,-131,-126,-107
-24,-29,-4,26,-9,-17,-14,-131,-156,-131,-126,-107
-34,-53,-19,43,-7,-36,-9,-131,-156,-131,-126,-112
-29,-39,-9,34,-9,-24,-19,-122,-146,-131,-117,-102
-24,-48,-24,36,0,-36,-19,-122,-146,-131,-117,-102
-19,-48,-29,34,4,-39,-19,-122,-146,-131,-117,-97
-14,-43,-29,29,7,-36,-19,-122,-146,-136,-117,-97
-9,-29,-19,19,4,-24,-24,-126,-156,-146,-126,-102
-4,-29,-24,17,9,-26,-24,-131,-156,-141,-131,-107
4,-34,-39,14,21,-36,-19,-126,-151,-136,-131,-112
9,-39,-48,14,29,-43,-14,-122,-151,-136,-136,-117
0,-9,-9,4,4,-9,-29,-131,-170,-161,-146,-126
9,-43,-53,17,31,-48,-24,-117,-156,-161,-161,-141
19,-78,-97,29,58,-87,-19,-97,-151,-161,-170,-146
29,-87,-117,29,73,-102,-14,-82,-136,-156,-180,-161
48,-87,-136,19,92,-112,-14,-43,-112,-141,-165,-151
58,-78,-136,9,97,-107,4,9,-58,-117,-161,-156
53,-78,-131,12,92,-104,14,78,-4,-78,-146,-156
34,-68,-102,17,68,-85,39,165,97,-4,-82,-107
24,-34,-58,4,41,-46,63,244,190,112,24,-19
53,39,-14,-46,34,12,34,253,248,224,122,63
97,161,63,-129,17,112,-24,195,239,331,239,165
117,248,131,-183,-7,190,-112,117,204,444,346,273
136,283,146,-209,-4,214,-214,34,161,556,458,380
214,317,102,-265,56,209,-317,-48,107,688,605,497
307,419,112,-363,97,265,-444,-136,39,849,761,639
390,488,97,-439,146,292,-600,-214,-29,1005,912,751
458,458,0,-458,229,229,-712,-239,-73,1132,1019,834
497,439,-58,-468,278,190,-780,-268,-126,1220,1073,863
517,458,-58,-488,287,200,-854,-370,-229,1190,1063,854
517,468,-48,-492,283,209,-927,-531,-375,1058,971,824
502,453,-48,-478,275,202,-1005,-717,-546,849,814,736
458,385,-73,-422,265,156,-1054,-922,-732,585,595,575
385,214,-170,-300,278,21,-1034,-1112,-936,273,336,356
322,-19,-341,-151,331,-180,-1010,-1298,-1166,-73,34,97
253,-190,-444,-31,348,-317,-1019,-1473,-1390,-429,-263,-151
175,-336,-512,80,344,-424,-980,-1532,-1537,-702,-483,-336
92,-507,-600,207,346,-553,-922,-1512,-1600,-873,-624,-444
29,-610,-639,290,334,-624,-912,-1532,-1664,-1005,-736,-527
-14,-605,-590,309,287,-597,-917,-1527,-1664,-1073,-824,-614
-14,-605,-590,309,287,-597,-878,-1429,-1586,-1083,-873,-673
-14,-614,-600,314,292,-607,-819,-1302,-1478,-1058,-863,-678
-58,-610,-551,334,246,-580,-771,-1215,-1385,-1019,-844,-668
-68,-570,-502,319,217,-536,-766,-1161,-1302,-995,-839,-683
-58,-492,-434,275,187,-463,-751,-1117,-1239,-951,-814,-673
-68,-468,-400,268,165,-434,-707,-1019,-1132,-868,-751,-614
-39,-439,-400,239,180,-419,-639,-907,-995,-766,-678,-566
-24,-341,-317,183,146,-329,-527,-766,-844,-653,-585,-492
-24,-273,-248,148,112,-261,-409,-629,-702,-541,-497,-409
4,-200,-204,97,104,-202,-326,-507,-585,-463,-419,-346
48,-122,-170,36,109,-146,-263,-400,-478,-395,-366,-302
53,-102,-156,24,104,-129,-195,-312,-380,-331,-312,-253
48,-102,-151,26,100,-126,-156,-258,-312,-292,-278,-219
68,-43,-112,-12,90,-78,-131,-219,-268,-258,-253,-214
87,-19,-107,-34,97,-63,-97,-165,-214,-214,-214,-190
87,0,-87,-43,87,-43,-48,-122,-161,-161,-170,-146
78,39,-39,-58,58,0,9,-58,-92,-102,-117,-102
63,58,-4,-61,34,26,34,-19,-58,-73,-92,-73
63,43,-19,-53,41,12,34,-14,-68,-78,-97,-87
58,29,-29,-43,43,0,34,-14,-63,-92,-102,-92
58,24,-34,-41,46,-4,34,0,-53,-87,-107,-92
63,14,-48,-39,56,-17,29,9,-48,-87,-102,-97
63,34,-29,-48,46,2,29,4,-24,-68,-87,-97
58,39,-19,-48,39,9,43,24,-14,-48,-78,-92
53,39,-14,-46,34,12,53,43,4,-34,-58,-78
48,39,-9,-43,29,14,68,48,9,-29,-53,-68
63,39,-24,-51,43,7,78,63,9,-29,-53,-58
73,48,-24,-61,48,12,82,78,29,-29,-48,-58
73,48,-24,-61,48,12,82,78,29,-24,-48,-58
68,48,-19,-58,43,14,82,82,39,-24,-48,-53
58,53,-4,-56,31,24,82,82,53,-14,-43,-63
58,48,-9,-53,34,19,92,92,73,4,-34,-53
63,48,-14,-56,39,17,97,102,78,9,-29,-48
68,73,4,-70,31,39,102,102,78,9,-24,-48
82,78,-4,-80,43,36,92,102,73,0,-34,-48
92,78,-14,-85,53,31,92,107,68,0,-34,-43
112,78,-34,-95,73,21,92,107,68,0,-34,-43
102,58,-43,-80,73,7,97,122,73,9,-29,-43
82,53,-29,-68,56,12,117,146,97,19,-9,-24
48,63,14,-56,17,39,117,156,117,34,-4,-19
34,73,39,-53,-2,56,122,156,126,43,0,-14
24,68,43,-46,-9,56,126,161,131,58,4,-14
39,58,19,-48,9,39,131,170,131,58,9,-4
48,63,14,-56,17,39,131,175,131,58,9,0
53,73,19,-63,17,46,141,180,141,68,9,0
63,78,14,-70,24,46,141,190,146,68,9,0
92,87,-4,-90,48,41,136,180,156,82,9,4
97,102,4,-100,46,53,136,180,161,82,9,4
112,112,0,-112,56,56,141,195,165,87,14,9
117,117,0,-117,58,58,146,204,180,102,34,24
122,102,-19,-112,70,41,146,209,190,97,24,14
107,117,9,-112,48,63,146,209,190,97,9,9
97,112,14,-104,41,63,146,214,195,102,19,4
92,97,4,-95,43,51,161,229,204,112,24,4
87,122,34,-104,26,78,161,234,204,112,34,14
82,136,53,-109,14,95,151,234,204,112,24,9
82,136,53,-109,14,95,151,239,204,117,24,9
92,122,29,-107,31,75,156,253,219,122,39,14
78,112,34,-95,21,73,156,268,229,131,39,24
78,126,48,-102,14,87,165,287,239,151,43,29
87,136,48,-112,19,92,165,302,248,156,48,29
87,136,48,-112,19,92,165,317,253,156,48,29
92,122,29,-107,31,75,175,317,263,165,53,39
97,117,19,-107,39,68,175,331,268,180,63,43
107,102,-4,-104,56,48,180,341,278,180,68,43
112,87,-24,-100,68,31,185,356,292,195,68,43
102,112,9,-107,46,61,185,356,292,190,73,53
107,141,34,-124,36,87,190,370,312,200,73,53
122,141,19,-131,51,80,195,380,317,209,78,53
136,136,0,-136,68,68,190,395,326,219,82,48
141,175,34,-158,53,104,204,409,346,234,92,63
146,190,43,-168,51,117,209,439,361,248,107,82
151,209,58,-180,46,134,219,458,385,268,122,97
161,224,63,-192,48,143,229,478,395,283,141,112
151,214,63,-183,43,139,229,488,400,292,151,107
151,214,63,-183,43,139,239,497,414,307,156,112
165,209,43,-187,61,126,239,512,424,317,156,122
165,204,39,-185,63,122,239,517,434,322,156,131
170,200,29,-185,70,114,234,546,444,326,161,141
170,195,24,-183,73,109,239,561,468,341,165,146
175,195,19,-185,78,107,244,575,478,351,180,151
175,190,14,-183,80,102,248,590,488,370,190,156
170,224,53,-197,58,139,253,605,488,375,185,156
170,248,78,-209,46,163,253,605,497,375,190,156
175,263,87,-219,43,175,258,619,517,390,200,161
170,263,92,-217,39,178,268,639,531,409,214,175
190,273,82,-231,53,178,268,658,551,419,229,195
195,297,102,-246,46,200,273,683,566,439,244,200
195,297,102,-246,46,200,278,707,585,453,253,209
209,297,87,-253,61,192,283,727,605,458,263,219
200,307,107,-253,46,207,273,732,605,463,258,214
200,322,122,-261,39,222,278,741,619,483,268,224
209,336,126,-273,41,231,283,766,634,502,287,234
214,346,131,-280,41,239,287,775,649,512,297,244
214,346,131,-280,41,239,297,790,658,522,307,253
214,341,126,-278,43,234,297,800,668,531,312,253
195,331,136,-263,29,234,302,814,678,546,326,268
209,322,112,-265,48,217,302,814,692,556,341,273
204,341,136,-273,34,239,297,805,683,546,341,263
209,366,156,-287,26,261,297,810,683,556,341,268
209,380,170,-295,19,275,297,810,683,561,346,273
214,390,175,-302,19,283,302,814,697,566,366,283
219,380,161,-300,29,270,312,824,707,570,366,287
219,370,151,-295,34,261,307,834,707,580,366,297
224,361,136,-292,43,248,307,844,707,595,375,307
239,351,112,-295,63,231,312,854,717,610,385,322
229,331,102,-280,63,217,312,854,717,610,400,317
229,317,87,-273,70,202,307,839,717,610,400,317
234,312,78,-273,78,195,302,839,707,610,400,317
234,287,53,-261,90,170,302,834,702,610,405,317
224,297,73,-261,75,185,312,839,702,619,414,336
219,317,97,-268,61,207,302,829,702,619,414,336
229,336,107,-283,61,222,297,819,707,614,414,326
224,351,126,-287,48,239,292,800,692,605,405,322
219,341,122,-280,48,231,292,805,697,605,409,331
214,322,107,-268,53,214,292,790,688,610,409,341
214,302,87,-258,63,195,292,771,673,605,409,351
209,283,73,-246,68,178,292,756,658,600,409,351
209,283,73,-246,68,178,273,717,634,585,395,326
214,283,68,-248,73,175,253,697,610,566,385,322
214,278,63,-246,75,170,244,663,590,551,370,312
204,278,73,-241,65,175,234,629,570,531,356,302
195,268,73,-231,61,170,214,610,541,502,356,297
195,258,63,-226,65,161,200,580,517,488,341,292
190,253,63,-222,63,158,195,546,492,473,326,278
170,244,73,-207,48,158,185,522,478,453,317,273
180,239,58,-209,61,148,180,488,458,439,292,248
185,239,53,-212,65,146,170,458,429,409,283,234
190,229,39,-209,75,134,156,419,400,390,258,219
185,229,43,-207,70,136,141,385,361,361,234,200
165,209,43,-187,61,126,151,366,346,346,229,195
165,204,39,-185,63,122,146,346,331,331,219,195
146,209,63,-178,41,136,141,331,307,312,204,190
146,209,63,-178,41,136,126,302,278,287,180,165
156,204,48,-180,53,126,126,268,253,268,170,161
151,195,43,-173,53,119,117,239,234,253,156,146
151,190,39,-170,56,114,107,209,200,224,136,131
141,180,39,-161,51,109,97,185,190,204,122,112
141,156,14,-148,63,85,92,151,156,175,102,97
126,131,4,-129,61,68,87,131,146,161,92,92
112,126,14,-119,48,70,78,117,122,141,78,73
112,122,9,-117,51,65,53,92,102,122,58,48
92,117,24,-104,34,70,58,78,87,117,43,39
87,102,14,-95,36,58,63,68,78,117,39,43
87,97,9,-92,39,53,58,53,78,107,39,39
87,73,-14,-80,51,29,63,53,68,97,34,39
78,58,-19,-68,48,19,63,43,53,82,29,43
68,48,-19,-58,43,14,58,39,39,73,19,29
63,39,-24,-51,43,7,53,29,29,53,0,19
58,29,-29,-43,43,0,43,24,14,48,-4,14
63,53,-9,-58,36,21,39,4,4,34,-14,-9
63,68,4,-65,29,36,34,-9,-4,29,-29,-14
63,78,14,-70,24,46,29,-24,-14,19,-34,-19
68,92,24,-80,21,58,19,-48,-29,4,-53,-29
68,63,-4,-65,36,29,9,-48,-43,-9,-68,-34
53,48,-4,-51,29,21,9,-48,-43,-14,-73,-39
53,24,-29,-39,41,-2,9,-48,-43,-14,-73,-39
58,29,-29,-43,43,0,9,-58,-53,-19,-78,-43
53,39,-14,-46,34,12,0,-73,-58,-19,-78,-58
58,53,-4,-56,31,24,0,-73,-58,-29,-78,-63
43,53,9,-48,17,31,4,-78,-58,-29,-78,-63
34,39,4,-36,14,21,4,-78,-58,-29,-78,-63
34,29,-4,-31,19,12,14,-68,-58,-19,-68,-58
34,19,-14,-26,24,2,14,-68,-63,-19,-68,-53
34,19,-14,-26,24,2,4,-68,-63,-19,-73,-48
39,14,-24,-26,31,-4,14,-68,-63,-19,-73,-43
53,14,-39,-34,46,-12,14,-68,-73,-24,-78,-48
58,29,-29,-43,43,0,14,-68,-73,-29,-82,-53
63,29,-34,-46,48,-2,14,-73,-73,-34,-87,-63
68,19,-48,-43,58,-14,14,-73,-78,-39,-92,-68
48,24,-24,-36,36,0,14,-82,-78,-34,-87,-68
58,39,-19,-48,39,9,14,-82,-78,-39,-87,-68
58,53,-4,-56,31,24,14,-87,-78,-43,-97,-68
58,48,-9,-53,34,19,14,-87,-78,-48,-97,-68
63,43,-19,-53,41,12,24,-82,-78,-43,-87,-58
58,39,-19,-48,39,9,29,-78,-73,-39,-82,-58
48,34,-14,-41,31,9,29,-68,-68,-29,-78,-53
29,29,0,-29,14,14,34,-63,-68,-24,-73,-48
53,39,-14,-46,34,12,39,-73,-68,-34,-82,-58
53,39,-14,-46,34,12,39,-68,-63,-29,-82,-58
58,24,-34,-41,46,-4,39,-68,-63,-29,-82,-58
73,34,-39,-53,56,-2,39,-68,-68,-34,-87,-58
68,43,-24,-56,46,9,39,-58,-68,-34,-87,-58
63,34,-29,-48,46,2,43,-58,-63,-34,-78,-53
48,29,-19,-39,34,4,48,-53,-63,-29,-78,-53
43,29,-14,-36,29,7,48,-53,-58,-29,-78,-53
73,34,-39,-53,56,-2,39,-63,-63,-39,-82,-63
87,43,-43,-65,65,0,34,-63,-68,-43,-87,-68
87,43,-43,-65,65,0,34,-63,-73,-48,-92,-68
102,53,-48,-78,75,2,29,-63,-78,-53,-92,-68
97,53,-43,-75,70,4,34,-63,-63,-48,-87,-58
92,48,-43,-70,68,2,39,-63,-58,-43,-87,-63
73,43,-29,-58,51,7,43,-63,-53,-39,-82,-63
78,34,-43,-56,61,-4,43,-63,-48,-34,-78,-63
63,24,-39,-43,51,-7,53,-53,-48,-34,-78,-63
58,24,-34,-41,46,-4,53,-48,-48,-34,-78,-63
53,24,-29,-39,41,-2,53,-43,-48,-34,-78,-63
48,24,-24,-36,36,0,53,-43,-43,-34,-78,-58
39,39,0,-39,19,19,63,-43,-43,-24,-68,-48
53,24,-29,-39,41,-2,63,-39,-39,-24,-68,-48
53,53,0,-53,26,26,68,-34,-39,-24,-68,-48
48,48,0,-48,24,24,68,-34,-39,-24,-68,-48
48,39,-9,-43,29,14,63,-29,-29,-14,-68,-48
48,29,-19,-39,34,4,63,-29,-29,-14,-68,-48
48,19,-29,-34,39,-4,63,-24,-29,-14,-68,-48
53,9,-43,-31,48,-17,63,-24,-24,-14,-68,-48
53,19,-34,-36,43,-7,68,-24,-29,-14,-78,-43
53,19,-34,-36,43,-7,68,-24,-29,-14,-73,-43
58,19,-39,-39,48,-9,68,-29,-29,-19,-73,-48
58,34,-24,-46,41,4,63,-34,-29,-19,-73,-48
43,39,-4,-41,24,17,53,-43,-39,-29,-82,-58
48,39,-9,-43,29,14,53,-43,-34,-29,-82,-58
53,34,-19,-43,36,7,53,-48,-34,-29,-82,-58
39,29,-9,-34,24,9,53,-48,-34,-29,-82,-58
48,39,-9,-43,29,14,58,-43,-24,-19,-73,-58
53,39,-14,-46,34,12,63,-39,-24,-19,-73,-58
58,39,-19,-48,39,9,68,-34,-14,-14,-73,-53
58,39,-19,-48,39,9,73,-29,-14,-9,-68,-48
43,24,-19,-34,31,2,73,-19,-24,-4,-73,-39
34,19,-14,-26,24,2,73,-14,-24,-4,-73,-39
24,14,-9,-19,17,2,73,-14,-34,-4,-73,-43
14,0,-14,-7,14,-7,73,-19,-34,-9,-73,-43
29,24,-4,-26,17,9,63,-24,-24,-19,-78,-43
34,29,-4,-31,19,12,73,-24,-24,-19,-78,-43
39,29,-9,-34,24,9,82,-9,-9,-9,-68,-39
58,34,-24,-46,41,4,82,-9,-9,-9,-68,-39
58,29,-29,-43,43,0,78,-9,-9,-9,-68,-39
68,24,-43,-46,56,-9,78,-14,-14,-9,-68,-39
78,29,-48,-53,63,-9,78,-14,-19,-9,-68,-39
87,9,-78,-48,82,-34,82,-14,-19,-4,-68,-39
78,14,-63,-46,70,-24,82,-14,-29,-4,-58,-43
78,19,-58,-48,68,-19,82,-14,-29,-9,-58,-43
82,24,-58,-53,70,-17,82,-14,-29,-9,-58,-43
82,29,-53,-56,68,-12,82,-14,-29,-9,-58,-43
78,53,-24,-65,51,14,82,-4,-24,0,-53,-29
78,63,-14,-70,46,24,82,-4,-19,0,-53,-29
73,78,4,-75,34,41,82,-4,-14,0,-53,-34
73,87,14,-80,29,51,78,-9,-14,0,-58,-34
87,78,-9,-82,48,34,68,-24,-19,-14,-68,-39
87,78,-9,-82,48,34,68,-29,-24,-14,-73,-43
97,73,-24,-85,61,24,68,-24,-29,-14,-73,-53
97,63,-34,-80,65,14,63,-29,-29,-9,-78,-58
78,53,-24,-65,51,14,53,-34,-39,-19,-78,-53
68,58,-9,-63,39,24,48,-43,-48,-29,-82,-53
58,48,-9,-53,34,19,48,-43,-48,-29,-82,-53
48,39,-9,-43,29,14,48,-43,-48,-29,-82,-48
39,39,0,-39,19,19,48,-53,-48,-19,-82,-48
39,34,-4,-36,21,14,48,-53,-48,-19,-82,-48
29,24,-4,-26,17,9,53,-53,-48,-19,-82,-48
29,-4,-34,-12,31,-19,53,-48,-43,-19,-78,-48
39,-4,-43,-17,41,-24,58,-48,-34,-19,-78,-48
43,14,-29,-29,36,-7,53,-58,-43,-29,-82,-53
48,39,-9,-43,29,14,58,-63,-48,-29,-82,-53
68,48,-19,-58,43,14,63,-63,-48,-24,-78,-53
48,34,-14,-41,31,9,73,-48,-34,-14,-73,-43
43,34,-9,-39,26,12,73,-43,-34,-9,-73,-43
39,43,4,-41,17,24,73,-39,-34,-9,-68,-43
34,43,9,-39,12,26,73,-34,-34,-9,-63,-43
39,29,-9,-34,24,9,58,-39,-43,-14,-68,-48
43,24,-19,-34,31,2,53,-43,-48,-19,-73,-53
53,34,-19,-43,36,7,43,-53,-53,-29,-78,-58
58,43,-14,-51,36,14,39,-58,-63,-34,-82,-63
68,48,-19,-58,43,14,24,-48,-63,-43,-82,-63
78,29,-48,-53,63,-9,24,-48,-63,-43,-73,-58
68,19,-48,-43,58,-14,24,-48,-63,-29,-73,-48
63,9,-53,-36,58,-21,24,-48,-63,-29,-68,-48
43,14,-29,-29,36,-7,34,-34,-43,-29,-63,-43
39,34,-4,-36,21,14,39,-34,-39,-24,-58,-39
34,39,4,-36,14,21,43,-34,-39,-19,-48,-34
29,39,9,-34,9,24,48,-34,-34,-9,-43,-24
24,34,9,-29,7,21,48,-39,-34,-19,-43,-34
29,43,14,-36,7,29,43,-43,-34,-19,-43,-34
34,58,24,-46,4,41,34,-48,-39,-24,-48,-39
29,78,48,-53,-9,63,29,-53,-39,-24,-48,-39
29,73,43,-51,-7,58,24,-58,-48,-24,-58,-39
34,82,48,-58,-7,65,24,-63,-48,-24,-58,-39
39,78,39,-58,0,58,24,-68,-48,-24,-58,-39
58,87,29,-73,14,58,34,-73,-39,-19,-48,-34
48,82,34,-65,7,58,43,-68,-29,-9,-48,-34
34,82,48,-58,-7,65,39,-63,-29,-4,-48,-29
34,82,48,-58,-7,65,39,-53,-24,0,-43,-24
53,82,29,-68,12,56,34,-48,-24,0,-43,-24
63,82,19,-73,21,51,48,-39,-24,0,-34,-24
63,78,14,-70,24,46,63,-39,-24,0,-29,-19
63,73,9,-68,26,41,58,-39,-24,0,-29,-14
58,68,9,-63,24,39,48,-43,-24,0,-29,-14
63,97,34,-80,14,65,58,-48,-19,-4,-29,-14
68,126,58,-97,4,92,53,-53,-14,0,-29,-9
73,156,82,-114,-4,119,48,-53,-9,0,-29,-9
78,190,112,-134,-17,151,48,-58,-9,-4,-19,-4
78,161,82,-119,-2,122,39,-58,-4,4,-19,-4
58,141,82,-100,-12,112,39,-53,-4,24,-4,14
39,136,97,-87,-29,117,39,-48,0,29,0,19
53,136,82,-95,-14,109,19,-58,-14,14,-14,14
58,136,78,-97,-9,107,9,-68,-19,9,-19,9
63,136,73,-100,-4,104,0,-78,-24,4,-24,4
68,136,68,-102,0,102,-9,-87,-29,0,-29,0
78,146,68,-112,4,107,-24,-97,-43,-4,-39,-4
82,146,63,-114,9,104,-29,-92,-48,-4,-39,-9
92,146,53,-119,19,100,-43,-87,-48,-4,-39,-14
97,146,48,-122,24,97,-48,-82,-53,-9,-34,-19
97,156,58,-126,19,107,-43,-73,-48,0,-14,0
97,156,58,-126,19,107,-39,-68,-43,4,-9,4
97,151,53,-124,21,102,-34,-68,-34,14,-9,14
97,131,34,-114,31,82,-19,-68,-29,19,0,19
112,112,0,-112,56,56,-34,-68,-48,4,-9,4
102,97,-4,-100,53,46,-39,-78,-58,-14,-24,-4
117,87,-29,-102,73,29,-48,-82,-68,-14,-34,-14
122,87,-34,-104,78,26,-48,-82,-68,-19,-34,-14
92,92,0,-92,46,46,-53,-87,-68,-9,-43,-19
92,92,0,-92,46,46,-53,-92,-73,-19,-53,-19
92,82,-9,-87,51,36,-58,-102,-82,-29,-58,-24
82,82,0,-82,41,41,-63,-102,-87,-29,-58,-34
68,58,-9,-63,39,24,-53,-92,-78,-24,-58,-34
58,58,0,-58,29,29,-58,-97,-78,-29,-63,-39
58,39,-19,-48,39,9,-58,-102,-87,-34,-58,-43
58,39,-19,-48,39,9,-58,-102,-92,-39,-63,-48
68,39,-29,-53,48,4,-58,-107,-102,-43,-68,-58
68,34,-34,-51,51,0,-53,-102,-92,-34,-68,-58
73,19,-53,-46,63,-17,-58,-107,-92,-39,-73,-63
68,19,-48,-43,58,-14,-63,-112,-97,-53,-82,-68
53,14,-39,-34,46,-12,-53,-112,-107,-58,-82,-68
34,4,-29,-19,31,-12,-53,-112,-107,-58,-82,-68
29,4,-24,-17,26,-9,-53,-117,-117,-63,-82,-78
34,4,-29,-19,31,-12,-53,-122,-117,-73,-92,-82
43,-4,-48,-19,46,-26,-53,-131,-107,-82,-92,-92
58,9,-48,-34,53,-19,-58,-131,-117,-87,-107,-97
68,19,-48,-43,58,-14,-63,-141,-122,-87,-112,-102
78,24,-53,-51,65,-14,-63,-141,-122,-87,-112,-102
63,0,-63,-31,63,-31,-58,-122,-107,-73,-102,-87
58,-4,-63,-26,61,-34,-53,-117,-107,-68,-97,-78
48,-9,-58,-19,53,-34,-43,-107,-102,-63,-87,-68
58,-14,-73,-21,65,-43,-39,-102,-102,-58,-82,-63
48,-9,-58,-19,53,-34,-43,-107,-117,-63,-97,-73
39,-9,-48,-14,43,-29,-48,-112,-117,-68,-97,-82
48,-19,-68,-14,58,-43,-53,-117,-112,-73,-97,-82
53,-19,-73,-17,63,-46,-58,-122,-112,-78,-102,-82
48,-19,-68,-14,58,-43,-63,-122,-122,-73,-107,-92
29,-24,-53,-2,41,-39,-63,-122,-122,-73,-107,-92
14,-48,-63,17,39,-56,-53,-117,-117,-68,-102,-87
29,-58,-87,14,58,-73,-53,-117,-117,-68,-102,-87
39,-48,-87,4,63,-68,-63,-131,-126,-78,-117,-107
39,-39,-78,0,58,-58,-63,-131,-126,-87,-117,-107
39,-39,-78,0,58,-58,-58,-126,-126,-92,-117,-107
34,-43,-78,4,56,-61,-58,-126,-126,-97,-117,-107
34,-34,-68,0,51,-51,-63,-122,-126,-87,-117,-97
34,-24,-58,-4,46,-41,-63,-122,-126,-87,-117,-97
34,-24,-58,-4,46,-41,-53,-122,-126,-82,-112,-92
34,-19,-53,-7,43,-36,-53,-122,-126,-78,-112,-92
24,-43,-68,9,46,-56,-39,-117,-112,-68,-97,-87
19,-58,-78,19,48,-68,-39,-112,-112,-73,-102,-82
19,-58,-78,19,48,-68,-34,-107,-107,-73,-97,-78
4,-73,-78,34,41,-75,-24,-102,-97,-73,-87,-78
14,-68,-82,26,48,-75,-39,-107,-102,-82,-92,-87
19,-53,-73,17,46,-63,-43,-112,-107,-82,-97,-87
34,-29,-63,-2,48,-46,-48,-117,-112,-82,-102,-87
43,19,-24,-31,34,-2,-58,-122,-117,-82,-107,-92
48,19,-29,-34,39,-4,-53,-112,-112,-78,-97,-82
43,9,-34,-26,39,-12,-48,-112,-107,-73,-97,-78
39,0,-39,-19,39,-19,-39,-112,-102,-68,-97,-78
43,-24,-68,-9,56,-46,-29,-112,-97,-63,-97,-82
39,0,-39,-19,39,-19,-34,-122,-102,-73,-107,-92
34,-9,-43,-12,39,-26,-39,-122,-107,-73,-107,-92
29,-9,-39,-9,34,-24,-43,-122,-112,-73,-107,-87
24,-4,-29,-9,26,-17,-48,-122,-117,-78,-107,-87
14,-14,-29,0,21,-21,-53,-122,-126,-87,-112,-97
14,-19,-34,2,24,-26,-53,-122,-126,-82,-112,-97
19,-29,-48,4,34,-39,-48,-112,-122,-78,-107,-97
19,-39,-58,9,39,-48,-43,-102,-122,-78,-107,-97
19,-29,-48,4,34,-39,-39,-102,-112,-73,-107,-97
-9,-43,-34,26,12,-39,-24,-87,-97,-73,-102,-92
-9,-78,-68,43,29,-73,-19,-68,-92,-73,-112,-97
-9,-87,-78,48,34,-82,-14,-43,-78,-68,-112,-102
9,-58,-68,24,39,-63,-14,-14,-63,-63,-117,-112
19,-58,-78,19,48,-68,-4,39,-29,-58,-122,-117
24,-97,-122,36,73,-109,34,136,53,0,-78,-87
53,-146,-200,46,126,-173,87,263,175,102,4,-29
102,-102,-204,0,153,-153,92,341,258,190,73,29
151,29,-122,-90,136,-46,43,331,287,273,141,82
165,170,4,-168,80,87,-53,244,258,341,219,156
185,239,53,-212,65,146,-141,146,214,414,297,224
234,263,29,-248,102,146,-234,63,170,497,390,312
302,307,4,-305,148,156,-366,-29,117,619,497,409
385,351,-34,-368,209,158,-522,-136,48,741,634,522
468,380,-87,-424,278,146,-668,-175,0,888,766,624
546,390,-156,-468,351,117,-790,-190,-43,1005,844,678
556,400,-156,-478,356,122,-868,-219,-97,1054,888,707
536,409,-126,-473,331,141,-932,-312,-180,1024,897,736
556,419,-136,-488,346,141,-1015,-473,-336,893,814,707
561,405,-156,-483,358,124,-1102,-668,-517,663,658,619
527,307,-219,-417,373,43,-1151,-883,-702,409,458,478
473,117,-356,-295,414,-119,-1151,-1112,-907,117,209,258
400,-48,-448,-175,424,-248,-1117,-1317,-1117,-190,-63,9
292,-180,-473,-56,383,-326,-1078,-1464,-1302,-439,-273,-170
195,-336,-531,70,363,-434,-1029,-1503,-1420,-644,-444,-307
122,-468,-590,173,356,-529,-1000,-1532,-1512,-814,-595,-434
97,-492,-590,197,344,-541,-1000,-1561,-1566,-927,-697,-517
102,-488,-590,192,346,-539,-985,-1517,-1537,-976,-756,-575
53,-527,-580,236,317,-553,-966,-1429,-1488,-995,-795,-614
-34,-536,-502,285,234,-519,-936,-1342,-1400,-980,-805,-639
-58,-590,-531,324,236,-561,-858,-1215,-1268,-902,-756,-610
-29,-649,-619,339,295,-634,-795,-1122,-1156,-839,-702,-566
-19,-610,-590,314,285,-600,-780,-1068,-1102,-805,-688,-566
-39,-517,-478,278,219,-497,-756,-1010,-1034,-761,-663,-566
-48,-448,-400,248,175,-424,-697,-897,-927,-697,-619,-527
-24,-370,-346,197,161,-358,-605,-766,-795,-605,-556,-473
-4,-312,-307,158,151,-309,-478,-619,-653,-502,-468,-400
14,-258,-273,122,143,-265,-385,-488,-536,-424,-390,-326
68,-190,-258,61,163,-224,-322,-390,-439,-356,-326,-273
92,-112,-204,9,148,-158,-253,-312,-351,-292,-273,-234
48,-82,-131,17,90,-107,-185,-239,-283,-234,-219,-200
29,-82,-112,26,70,-97,-141,-200,-229,-200,-195,-175
29,-48,-78,9,53,-63,-107,-156,-175,-156,-175,-151
19,0,-19,-9,19,-9,-68,-92,-112,-102,-131,-126
19,9,-9,-14,14,0,-29,-29,-63,-53,-78,-82
14,-9,-24,-2,19,-17,-14,9,-39,-34,-63,-53
19,-4,-24,-7,21,-14,-19,19,-43,-43,-73,-58
19,0,-19,-9,19,-9,-14,14,-34,-53,-73,-63
24,14,-9,-19,17,2,-9,24,-19,-43,-73,-63
34,24,-9,-29,21,7,-9,29,-9,-39,-63,-68
48,29,-19,-39,34,4,9,43,14,-19,-68,-68
48,29,-19,-39,34,4,24,63,24,0,-58,-63
48,24,-24,-36,36,0,34,82,43,14,-39,-48
48,19,-29,-34,39,-4,48,87,48,19,-34,-39
58,29,-29,-43,43,0,48,82,39,19,-24,-29
73,39,-34,-56,53,2,53,97,58,19,-19,-29
78,39,-39,-58,58,0,53,97,58,24,-19,-29
78,39,-39,-58,58,0,53,102,68,24,-19,-24
73,19,-53,-46,63,-17,63,122,78,43,-14,-24
68,0,-68,-34,68,-34,73,131,102,63,-4,-14
68,-14,-82,-26,75,-48,78,141,112,68,0,-9
68,-4,-73,-31,70,-39,82,141,117,68,4,-9
63,19,-43,-41,53,-12,78,136,102,53,-4,-14
63,29,-34,-46,48,-2,73,136,97,48,-4,-14
73,39,-34,-56,53,2,68,131,97,43,-4,-19
53,29,-24,-41,39,2,68,141,102,48,0,-24
58,48,-9,-53,34,19,87,165,122,63,9,-4
48,73,24,-61,12,48,87,175,136,73,14,0
58,97,39,-78,9,68,92,175,141,78,19,4
73,107,34,-90,19,70,97,180,141,87,24,4
73,87,14,-80,29,51,92,180,141,87,29,-4
68,82,14,-75,26,48,92,185,141,87,29,0
58,82,24,-70,17,53,102,190,151,97,29,0
53,78,24,-65,14,51,102,200,156,97,29,0
73,73,0,-73,36,36,107,204,161,112,39,0
78,73,-4,-75,41,34,107,209,170,112,39,4
92,68,-24,-80,58,21,112,229,180,117,43,14
97,58,-39,-78,68,9,117,244,200,131,63,34
92,58,-34,-75,63,12,122,258,219,146,68,48
78,78,0,-78,39,39,126,258,219,146,58,48
68,78,9,-73,29,43,131,263,224,151,73,48
63,68,4,-65,29,36,151,278,234,161,82,53
78,73,-4,-75,41,34,146,278,239,156,78,48
82,87,4,-85,39,46,131,273,234,151,63,39
92,87,-4,-90,48,41,126,273,229,151,58,34
112,73,-39,-92,75,17,126,283,239,151,68,34
82,73,-9,-78,46,31,122,278,234,146,63,29
78,87,9,-82,34,48,126,287,239,161,63,29
82,97,14,-90,34,56,122,292,244,161,63,24
78,97,19,-87,29,58,117,297,244,156,58,19
82,97,14,-90,34,56,131,317,263,170,78,43
87,107,19,-97,34,63,136,341,278,190,92,53
97,107,9,-102,43,58,146,361,297,195,102,58
102,107,4,-104,48,56,156,385,322,214,107,63
87,126,39,-107,24,82,165,395,331,224,126,87
87,151,63,-119,12,107,180,419,351,239,131,92
97,146,48,-122,24,97,195,439,356,253,141,97
107,136,29,-122,39,82,200,463,366,268,151,97
97,151,53,-124,21,102,190,458,361,263,141,92
97,151,53,-124,21,102,190,478,370,268,146,102
97,156,58,-126,19,107,195,488,390,278,151,107
102,156,53,-129,24,104,200,497,395,283,161,112
112,146,34,-129,39,90,209,512,400,292,165,117
112,156,43,-134,34,100,219,527,414,307,175,122
126,161,34,-143,46,97,219,546,424,317,180,131
126,165,39,-146,43,102,219,556,434,322,185,141
126,170,43,-148,41,107,224,575,453,326,190,151
131,175,43,-153,43,109,229,590,478,341,195,156
141,185,43,-163,48,114,234,605,488,351,209,161
146,190,43,-168,51,117,239,619,497,370,219,165
141,200,58,-170,41,129,239,629,502,366,219,165
141,200,58,-170,41,129,234,634,507,366,219,165
146,190,43,-168,51,117,234,653,522,380,224,170
141,165,24,-153,58,95,239,678,531,400,234,185
156,200,43,-178,56,122,244,697,556,409,244,195
165,229,63,-197,51,146,253,722,566,429,263,200
170,234,63,-202,53,148,263,746,580,444,278,209
190,239,48,-214,70,143,273,766,595,448,292,219
200,234,34,-217,82,134,273,771,595,453,287,224
200,244,43,-222,78,143,278,780,610,473,297,234
209,253,43,-231,82,148,283,805,624,492,317,244
214,258,43,-236,85,151,287,814,639,502,326,253
214,287,73,-251,70,180,278,829,649,502,336,263
214,302,87,-258,63,195,278,839,658,512,341,263
195,312,117,-253,39,214,283,854,668,527,356,278
209,322,112,-265,48,217,283,854,683,536,370,283
234,322,87,-278,73,204,268,854,673,536,361,273
248,336,87,-292,80,212,268,858,673,546,361,278
258,341,82,-300,87,212,268,858,673,551,366,283
273,341,68,-307,102,204,273,863,688,556,385,292
253,341,87,-297,82,214,283,878,692,566,395,297
239,341,102,-290,68,222,278,883,697,570,395,307
229,341,112,-285,58,226,278,888,702,580,405,317
229,341,112,-285,58,226,283,893,717,590,414,331
214,346,131,-280,41,239,283,893,717,590,419,346
209,346,136,-278,36,241,278,878,717,590,419,346
209,356,146,-283,31,251,273,878,707,590,419,346
204,346,141,-275,31,244,273,873,702,590,424,346
209,326,117,-268,46,222,273,868,697,590,424,351
209,336,126,-273,41,231,263,858,692,590,424,346
224,346,122,-285,51,234,258,849,692,585,424,331
224,351,126,-287,48,239,253,829,673,575,414,322
214,351,136,-283,39,244,234,810,663,556,409,317
214,341,126,-278,43,234,224,790,649,551,400,312
219,331,112,-275,53,222,214,766,629,536,390,307
219,322,102,-270,58,212,204,746,610,522,380,292
200,307,107,-253,46,207,200,727,610,527,385,297
195,302,107,-248,43,204,195,717,590,517,385,302
185,292,107,-239,39,200,200,692,575,512,380,302
165,287,122,-226,21,204,204,668,561,502,375,302
170,287,117,-229,26,202,180,634,536,483,361,292
175,287,112,-231,31,200,161,600,507,468,341,283
175,292,117,-234,29,204,151,561,478,453,322,263
161,292,131,-226,14,212,136,531,458,434,307,253
170,278,107,-224,31,192,141,502,434,419,297,244
175,278,102,-226,36,190,131,478,409,390,292,234
180,268,87,-224,46,178,117,444,385,370,273,224
175,268,92,-222,41,180,102,414,351,341,253,209
156,229,73,-192,41,151,92,380,326,317,234,190
156,204,48,-180,53,126,87,356,312,302,219,185
136,190,53,-163,41,122,82,336,287,283,200,175
136,170,34,-153,51,102,68,302,258,258,170,146
126,180,53,-153,36,117,68,278,239,244,165,136
122,185,63,-153,29,124,58,248,224,234,156,126
122,195,73,-158,24,134,48,219,195,209,141,117
112,200,87,-156,12,143,39,195,190,195,131,102
122,175,53,-148,34,114,39,165,156,175,107,102
107,151,43,-129,31,97,39,141,146,161,102,102
92,146,53,-119,19,100,34,122,122,141,92,87
92,141,48,-117,21,95,14,92,102,122,78,68
82,122,39,-102,21,80,14,73,92,117,68,63
78,102,24,-90,26,63,14,68,78,117,58,63
78,92,14,-85,31,53,4,58,73,107,53,53
78,63,-14,-70,46,24,4,63,58,97,43,48
63,63,0,-63,31,31,-4,39,48,78,29,34
58,68,9,-63,24,39,-9,19,29,63,19,19
58,73,14,-65,21,43,-14,-4,14,39,0,9
58,78,19,-68,19,48,-24,-24,-4,29,-4,4
63,63,0,-63,31,31,-24,-24,-9,9,-19,-9
63,58,-4,-61,34,26,-24,-29,-14,9,-29,-14
63,48,-14,-56,39,17,-24,-34,-19,4,-29,-19
68,43,-24,-56,46,9,-29,-48,-29,-4,-43,-29
53,43,-9,-48,31,17,-34,-48,-43,-14,-43,-29
34,39,4,-36,14,21,-29,-48,-43,-14,-43,-29
29,24,-4,-26,17,9,-24,-48,-43,-9,-39,-24
29,39,9,-34,9,24,-19,-58,-53,-9,-39,-24
14,24,9,-19,2,17,-24,-63,-48,-19,-58,-39
19,34,14,-26,2,24,-29,-63,-48,-29,-58,-43
4,29,24,-17,-9,26,-29,-68,-48,-29,-58,-43
-4,9,14,-2,-9,12,-34,-68,-48,-29,-58,-43
-4,14,19,-4,-12,17,-24,-68,-48,-19,-58,-34
-4,9,14,-2,-9,12,-24,-68,-53,-19,-58,-34
-4,14,19,-4,-12,17,-34,-68,-53,-19,-63,-34
0,14,14,-7,-7,14,-24,-68,-53,-19,-63,-34
14,0,-14,-7,14,-7,-14,-58,-43,-9,-53,-24
19,9,-9,-14,14,0,-14,-58,-43,-9,-53,-24
24,4,-19,-14,21,-7,-14,-63,-43,-9,-53,-29
29,-9,-39,-9,34,-24,-14,-63,-48,-9,-53,-29
19,-19,-39,0,29,-29,-29,-68,-63,-24,-63,-43
29,-9,-39,-9,34,-24,-34,-73,-68,-29,-68,-48
29,0,-29,-14,29,-14,-39,-82,-73,-34,-82,-53
29,-9,-39,-9,34,-24,-43,-87,-78,-39,-87,-58
39,0,-39,-19,39,-19,-58,-87,-73,-39,-82,-53
39,9,-29,-24,34,-9,-58,-87,-73,-39,-82,-58
34,19,-14,-26,24,2,-63,-82,-73,-34,-82,-58
19,29,9,-24,4,19,-63,-82,-78,-34,-82,-58
24,19,-4,-21,14,7,-48,-92,-78,-43,-92,-63
24,19,-4,-21,14,7,-48,-87,-73,-39,-92,-68
29,4,-24,-17,26,-9,-48,-87,-73,-39,-92,-73
43,14,-29,-29,36,-7,-48,-87,-78,-43,-97,-78
39,24,-14,-31,26,4,-43,-78,-63,-39,-92,-63
34,14,-19,-24,26,-2,-34,-78,-53,-34,-78,-53
19,9,-9,-14,14,0,-24,-73,-48,-24,-73,-48
14,9,-4,-12,9,2,-19,-73,-39,-19,-68,-43
9,19,9,-14,0,14,-14,-63,-48,-14,-58,-43
9,24,14,-17,-2,19,-14,-63,-48,-14,-58,-39
-4,19,24,-7,-14,21,-9,-63,-48,-14,-58,-29
-4,24,29,-9,-17,26,-9,-63,-48,-14,-53,-19
9,24,14,-17,-2,19,-24,-68,-53,-29,-68,-29
14,19,4,-17,4,12,-29,-73,-58,-34,-78,-43
4,14,9,-9,-2,12,-34,-78,-63,-39,-82,-53
19,4,-14,-12,17,-4,-43,-82,-68,-43,-87,-63
9,4,-4,-7,7,0,-39,-73,-58,-34,-78,-53
9,4,-4,-7,7,0,-34,-68,-58,-34,-78,-53
9,4,-4,-7,7,0,-29,-63,-58,-34,-78,-53
9,4,-4,-7,7,0,-24,-63,-53,-34,-78,-48
-4,24,29,-9,-17,26,-24,-73,-58,-43,-78,-48
4,4,0,-4,2,2,-24,-68,-58,-43,-78,-48
0,29,29,-14,-14,29,-19,-63,-63,-43,-78,-48
-9,19,29,-4,-19,24,-19,-63,-68,-43,-78,-48
0,14,14,-7,-7,14,-19,-68,-58,-43,-87,-58
9,9,0,-9,4,4,-24,-68,-58,-43,-87,-58
19,4,-14,-12,17,-4,-29,-63,-58,-43,-87,-58
34,0,-34,-17,34,-17,-34,-63,-53,-43,-87,-58
34,0,-34,-17,34,-17,-29,-63,-58,-43,-92,-63
34,0,-34,-17,34,-17,-29,-63,-58,-43,-92,-63
39,0,-39,-19,39,-19,-29,-68,-58,-48,-97,-68
39,14,-24,-26,31,-4,-34,-73,-58,-48,-102,-68
14,14,0,-14,7,7,-29,-58,-43,-43,-87,-63
9,9,0,-9,4,4,-24,-53,-34,-39,-82,-58
4,0,-4,-2,4,-2,-19,-53,-29,-34,-78,-53
-19,-9,9,14,-14,0,-14,-48,-24,-29,-73,-48
-4,4,9,0,-7,7,-14,-48,-34,-29,-82,-39
4,9,4,-7,0,7,-14,-48,-34,-29,-82,-39
14,14,0,-14,7,7,-14,-48,-24,-24,-82,-34
19,19,0,-19,9,9,-14,-48,-24,-19,-78,-29
14,24,9,-19,2,17,-14,-48,-34,-24,-82,-39
14,29,14,-21,0,21,-14,-43,-34,-24,-82,-39
14,34,19,-24,-2,26,-14,-43,-43,-24,-82,-43
14,29,14,-21,0,21,-14,-48,-43,-29,-82,-43
24,29,4,-26,9,17,-34,-53,-43,-39,-87,-53
24,29,4,-26,9,17,-24,-53,-43,-39,-87,-53
24,24,0,-24,12,12,-14,-39,-29,-29,-78,-48
39,24,-14,-31,26,4,-14,-39,-29,-29,-78,-48
19,29,9,-24,4,19,-9,-39,-19,-19,-73,-43
9,34,24,-21,-7,29,-9,-43,-24,-19,-68,-39
0,48,48,-24,-24,48,-9,-43,-29,-19,-63,-34
-9,39,48,-14,-29,43,-4,-43,-29,-14,-58,-29
0,19,19,-9,-9,19,0,-39,-24,-4,-53,-14
0,9,9,-4,-4,9,4,-34,-19,-9,-48,-14
4,0,-4,-2,4,-2,9,-29,-14,-9,-43,-14
4,-9,-14,2,9,-12,14,-24,-9,-9,-39,-14
0,4,4,-2,-2,4,9,-29,-14,-19,-48,-14
0,4,4,-2,-2,4,4,-34,-19,-19,-53,-19
-4,9,14,-2,-9,12,0,-39,-24,-19,-58,-29
-4,9,14,-2,-9,12,-9,-48,-34,-19,-68,-34
0,19,19,-9,-9,19,-9,-68,-43,-34,-82,-39
0,19,19,-9,-9,19,-9,-68,-43,-34,-82,-43
9,14,4,-12,2,9,-9,-58,-43,-34,-78,-53
9,4,-4,-7,7,0,-14,-58,-39,-29,-78,-58
14,4,-9,-9,12,-2,-14,-63,-39,-39,-78,-63
19,19,0,-19,9,9,-19,-73,-48,-48,-82,-63
24,19,-4,-21,14,7,-19,-73,-48,-48,-82,-63
29,19,-9,-24,19,4,-19,-73,-48,-48,-82,-58
19,24,4,-21,7,14,-19,-73,-48,-48,-82,-58
19,24,4,-21,7,14,-19,-73,-48,-48,-82,-58
9,19,9,-14,0,14,-14,-73,-48,-48,-82,-58
9,-4,-14,-2,12,-9,-14,-68,-43,-48,-78,-58
4,-24,-29,9,17,-26,-4,-63,-34,-39,-68,-53
4,-14,-19,4,12,-17,-14,-68,-43,-39,-73,-53
4,0,-4,-2,4,-2,-14,-68,-48,-29,-73,-48
19,0,-19,-9,19,-9,-14,-63,-48,-14,-68,-43
4,-4,-9,0,7,-7,-4,-53,-43,-19,-68,-43
4,-4,-9,0,7,-7,-4,-53,-43,-19,-73,-43
4,4,0,-4,2,2,-4,-53,-43,-24,-73,-43
4,4,0,-4,2,2,-4,-53,-43,-29,-73,-43
14,4,-9,-9,12,-2,-9,-58,-43,-34,-82,-53
14,4,-9,-9,12,-2,-14,-63,-48,-39,-82,-53
19,19,0,-19,9,9,-24,-73,-53,-48,-82,-53
19,34,14,-26,2,24,-29,-78,-63,-53,-82,-53
34,48,14,-41,9,31,-19,-68,-63,-53,-82,-63
48,29,-19,-39,34,4,-14,-68,-63,-53,-73,-58
43,19,-24,-31,34,-2,-9,-68,-63,-39,-73,-48
43,9,-34,-26,39,-12,-4,-68,-63,-39,-68,-48
24,24,0,-24,12,12,-4,-63,-43,-39,-58,-39
19,53,34,-36,-7,43,0,-63,-39,-34,-58,-39
14,68,53,-41,-19,61,4,-63,-39,-29,-53,-39
9,78,68,-43,-29,73,9,-63,-34,-19,-53,-34
9,43,34,-26,-12,39,24,-53,-24,-19,-48,-29
9,34,24,-21,-7,29,24,-53,-24,-19,-43,-24
9,29,19,-19,-4,24,19,-53,-29,-24,-43,-24
0,29,29,-14,-14,29,19,-53,-29,-24,-39,-19
0,29,29,-14,-14,29,4,-68,-34,-34,-43,-34
4,43,39,-24,-17,41,4,-73,-39,-34,-48,-39
9,43,34,-26,-12,39,4,-78,-43,-34,-53,-43
29,58,29,-43,0,43,14,-82,-39,-29,-48,-43
24,73,48,-48,-12,61,39,-78,-34,-29,-39,-39
4,73,68,-39,-31,70,39,-73,-29,-24,-39,-29
0,73,73,-36,-36,73,43,-63,-19,-19,-34,-19
14,73,58,-43,-21,65,43,-58,-14,-19,-34,-14
14,82,68,-48,-26,75,34,-68,-19,-29,-39,-19
14,87,73,-51,-29,80,43,-68,-24,-29,-39,-19
14,92,78,-53,-31,85,34,-68,-29,-29,-43,-19
9,97,87,-53,-39,92,19,-73,-34,-29,-48,-24
9,97,87,-53,-39,92,29,-63,-24,-9,-34,-9
9,107,97,-58,-43,102,34,-63,-14,0,-29,0
9,117,107,-63,-48,112,39,-58,-4,4,-24,4
9,131,122,-70,-56,126,48,-58,0,4,-9,14
19,122,102,-70,-41,112,39,-48,4,14,0,14
29,107,78,-68,-24,92,29,-58,0,9,-9,0
34,117,82,-75,-24,100,14,-78,-19,0,-19,-14
39,117,78,-78,-19,97,0,-87,-29,-9,-29,-19
43,117,73,-80,-14,95,-14,-97,-39,-19,-39,-24
48,117,68,-82,-9,92,-29,-107,-48,-29,-48,-29
53,131,78,-92,-12,104,-34,-112,-58,-34,-58,-29
53,136,82,-95,-14,109,-39,-112,-58,-34,-58,-29
58,141,82,-100,-12,112,-53,-112,-53,-34,-58,-29
58,146,87,-102,-14,117,-58,-112,-53,-39,-53,-29
53,146,92,-100,-19,119,-48,-102,-53,-29,-34,-9
48,146,97,-97,-24,122,-48,-97,-53,-24,-29,-4
43,141,97,-92,-26,119,-48,-97,-48,-14,-29,4
39,122,82,-80,-21,102,-39,-97,-48,-9,-19,9
48,102,53,-75,-2,78,-43,-87,-48,-24,-29,4
34,87,53,-61,-9,70,-48,-97,-58,-43,-43,-4
43,78,34,-61,4,56,-58,-102,-68,-43,-53,-14
43,78,34,-61,4,56,-58,-102,-68,-48,-53,-14
39,63,24,-51,7,43,-58,-117,-73,-58,-58,-24
53,53,0,-53,26,26,-63,-122,-82,-68,-73,-29
68,34,-34,-51,51,0,-73,-131,-97,-78,-82,-39
73,24,-48,-48,61,-12,-82,-131,-107,-78,-87,-53
39,9,-29,-24,34,-9,-78,-131,-97,-73,-82,-53
19,9,-9,-14,14,0,-78,-136,-97,-78,-92,-58
9,-9,-19,0,14,-14,-73,-141,-107,-82,-92,-63
0,-9,-9,4,4,-9,-68,-141,-112,-87,-102,-68
-14,0,14,7,-14,7,-53,-141,-102,-87,-92,-68
-19,-4,14,12,-17,4,-43,-131,-92,-73,-87,-68
-19,-19,0,19,-9,-9,-43,-131,-92,-73,-87,-73
-29,-19,9,24,-19,-4,-43,-131,-97,-82,-92,-78
-24,-14,9,19,-17,-2,-43,-122,-107,-87,-92,-68
-24,-24,0,24,-12,-12,-43,-122,-107,-87,-92,-68
-9,-24,-14,17,2,-19,-43,-126,-117,-92,-92,-78
14,-24,-39,4,26,-31,-43,-131,-117,-102,-102,-82
14,-39,-53,12,34,-46,-53,-141,-117,-102,-102,-82
19,-29,-48,4,34,-39,-58,-141,-126,-107,-117,-87
19,-24,-43,2,31,-34,-63,-151,-131,-107,-122,-92
19,-24,-43,2,31,-34,-63,-151,-131,-107,-122,-92
14,-34,-48,9,31,-41,-63,-146,-117,-97,-117,-102
9,-34,-43,12,26,-39,-63,-146,-117,-97,-117,-97
0,-34,-34,17,17,-34,-58,-141,-112,-97,-112,-92
9,-34,-43,12,26,-39,-58,-141,-112,-97,-112,-92
0,-39,-39,19,19,-39,-48,-131,-117,-107,-117,-82
-9,-39,-29,24,9,-34,-48,-131,-117,-107,-117,-92
0,-48,-48,24,24,-48,-48,-131,-112,-107,-117,-92
4,-48,-53,21,29,-51,-48,-131,-112,-107,-122,-92
14,-29,-43,7,29,-36,-68,-151,-131,-112,-126,-102
0,-24,-24,12,12,-24,-73,-151,-131,-112,-126,-102
-9,-39,-29,24,9,-34,-68,-146,-126,-107,-122,-97
9,-39,-48,14,29,-43,-73,-146,-126,-107,-122,-97
9,-43,-53,17,31,-48,-68,-141,-126,-112,-136,-97
9,-39,-48,14,29,-43,-63,-141,-126,-117,-136,-97
9,-43,-53,17,31,-48,-53,-136,-126,-117,-136,-97
4,-53,-58,24,31,-56,-48,-136,-126,-117,-136,-97
-14,-43,-29,29,7,-36,-48,-131,-117,-107,-126,-97
-24,-43,-19,34,-2,-31,-43,-131,-117,-107,-126,-97
-34,-53,-19,43,-7,-36,-29,-131,-117,-102,-122,-92
-43,-58,-14,51,-14,-36,-24,-131,-117,-97,-122,-92
-29,-43,-14,36,-7,-29,-34,-141,-126,-107,-131,-102
-29,-39,-9,34,-9,-24,-39,-141,-131,-112,-141,-102
-24,-19,4,21,-14,-7,-39,-141,-131,-112,-141,-102
-34,-14,19,24,-26,2,-34,-141,-126,-112,-136,-107
-24,-43,-19,34,-2,-31,-43,-141,-122,-102,-126,-97
-19,-53,-34,36,7,-43,-43,-141,-117,-102,-126,-97
-4,-53,-48,29,21,-51,-43,-141,-112,-102,-126,-97
4,-29,-34,12,19,-31,-48,-141,-107,-102,-126,-102
4,-29,-34,12,19,-31,-58,-141,-112,-107,-136,-112
-4,-39,-34,21,14,-36,-58,-141,-117,-112,-136,-107
-14,-48,-34,31,9,-41,-53,-141,-122,-117,-136,-107
-14,-73,-58,43,21,-65,-48,-141,-126,-122,-136,-112
-24,-48,-24,36,0,-36,-48,-131,-136,-112,-126,-102
-24,-58,-34,41,4,-46,-48,-131,-136,-112,-126,-102
-24,-58,-34,41,4,-46,-48,-131,-136,-112,-126,-97
-24,-53,-29,39,2,-41,-48,-131,-136,-117,-126,-97
-24,-48,-24,36,0,-36,-43,-131,-131,-107,-112,-87
-24,-48,-24,36,0,-36,-43,-131,-126,-102,-112,-87
-19,-53,-34,36,7,-43,-39,-122,-117,-97,-107,-87
-19,-58,-39,39,9,-48,-34,-112,-112,-97,-107,-87
-9,-39,-29,24,9,-34,-29,-112,-122,-112,-126,-107
9,-73,-82,31,46,-78,-14,-78,-107,-102,-122,-102
29,-78,-107,24,68,-92,-9,-48,-92,-102,-122,-107
29,-48,-78,9,53,-63,-14,-14,-68,-107,-131,-122
0,-58,-58,29,29,-58,4,34,-24,-82,-126,-122
9,-97,-107,43,58,-102,53,136,68,-29,-92,-97
34,-68,-102,17,68,-85,82,224,161,39,-39,-58
63,19,-43,-41,53,-12,58,273,214,102,4,-29
92,53,-39,-73,65,7,14,283,229,180,73,19
112,78,-34,-95,73,21,-34,244,239,283,170,112
136,131,-4,-134,70,63,-131,156,190,361,258,195
204,180,-24,-192,114,78,-258,48,126,424,326,253
273,214,-58,-244,165,78,-380,-34,82,536,448,361
351,297,-53,-324,202,122,-492,-107,48,688,605,497
444,400,-43,-422,244,178,-639,-165,0,810,722,590
507,400,-107,-453,307,146,-766,-204,-58,897,775,624
488,361,-126,-424,307,117,-858,-258,-141,927,805,658
478,370,-107,-424,292,131,-917,-356,-253,888,800,678
497,370,-126,-434,312,122,-990,-507,-405,761,732,649
527,361,-165,-444,346,97,-1093,-717,-570,551,600,570
522,297,-224,-409,373,36,-1171,-951,-761,302,395,424
468,161,-307,-314,387,-73,-1151,-1166,-956,29,146,224
405,-19,-424,-192,414,-222,-1112,-1366,-1141,-244,-102,4
302,-175,-478,-63,390,-326,-1098,-1522,-1312,-502,-307,-185
185,-326,-512,70,348,-419,-1039,-1581,-1429,-702,-478,-326
107,-473,-580,183,344,-527,-980,-1590,-1507,-849,-610,-444
82,-556,-639,236,361,-597,-971,-1590,-1532,-932,-683,-502
39,-590,-629,275,334,-610,-971,-1551,-1517,-985,-736,-566
4,-585,-590,290,297,-588,-956,-1468,-1478,-1024,-814,-644
-34,-575,-541,305,253,-558,-917,-1371,-1400,-1024,-834,-673
-63,-556,-492,309,214,-524,-858,-1273,-1293,-971,-805,-649
-68,-541,-473,305,202,-507,-829,-1205,-1200,-922,-775,-629
-78,-512,-434,295,178,-473,-805,-1141,-1146,-888,-751,-614
-97,-492,-395,295,148,-444,-761,-1058,-1063,-834,-697,-585
-107,-478,-370,292,131,-424,-697,-941,-956,-751,-644,-546
-78,-419,-341,248,131,-380,-610,-800,-829,-658,-570,-488
-53,-331,-278,192,112,-305,-488,-649,-678,-546,-478,-414
-53,-253,-200,153,73,-226,-361,-492,-527,-434,-390,-331
-24,-200,-175,112,75,-187,-278,-380,-419,-356,-322,-268
19,-161,-180,70,100,-170,-234,-312,-361,-317,-287,-234
14,-131,-146,58,80,-139,-185,-273,-302,-292,-273,-224
-9,-131,-122,70,56,-126,-146,-219,-244,-253,-239,-200
39,-102,-141,31,90,-122,-102,-161,-180,-209,-195,-165
87,-78,-165,-4,126,-122,-39,-87,-117,-136,-126,-102
48,-48,-97,0,73,-73,9,-14,-53,-73,-82,-58
0,-39,-39,19,19,-39,29,9,-24,-43,-58,-43
-4,-58,-53,31,24,-56,34,9,-29,-53,-73,-53
9,-29,-39,9,24,-34,29,4,-34,-63,-87,-68
9,-9,-19,0,14,-14,24,-4,-34,-82,-92,-73
14,19,4,-17,4,12,19,0,-29,-82,-97,-73
24,43,19,-34,2,31,9,0,-29,-87,-92,-78
34,39,4,-36,14,21,29,9,-4,-68,-97,-87
39,29,-9,-34,24,9,43,34,4,-48,-87,-82
43,14,-29,-29,36,-7,53,58,24,-34,-68,-68
48,0,-48,-24,48,-24,68,68,29,-29,-63,-58
39,9,-29,-24,34,-9,58,63,29,-29,-53,-48
43,19,-24,-31,34,-2,63,78,48,-29,-48,-48
39,19,-19,-29,29,0,63,78,48,-24,-48,-48
29,19,-9,-24,19,4,63,82,58,-24,-48,-43
39,4,-34,-21,36,-14,78,97,68,-4,-34,-34
39,0,-39,-19,39,-19,92,112,92,14,-24,-24
43,0,-43,-21,43,-21,102,126,102,19,-19,-19
48,24,-24,-36,36,0,112,131,107,19,-14,-19
39,48,9,-43,14,29,107,126,102,9,-24,-24
43,58,14,-51,14,36,102,126,97,9,-24,-24
58,68,9,-63,24,39,97,122,97,9,-24,-29
43,58,14,-51,14,36,97,131,102,19,-19,-34
53,68,14,-61,19,41,97,136,102,19,-9,-24
39,82,43,-61,-2,63,97,146,117,24,-4,-19
43,97,53,-70,-4,75,102,146,122,24,0,-14
53,97,43,-75,4,70,107,151,122,29,4,-14
48,58,9,-53,19,34,122,170,141,39,0,-14
48,43,-4,-46,26,19,122,175,141,39,0,-9
43,34,-9,-39,26,12,131,180,151,48,0,-9
43,19,-24,-31,34,-2,131,190,156,48,0,-9
43,19,-24,-31,34,-2,126,200,156,53,9,-4
39,24,-14,-31,26,4,126,200,161,53,9,-4
43,24,-19,-34,31,2,131,214,165,58,14,0
39,19,-19,-29,29,0,136,224,180,73,34,14
63,19,-43,-41,53,-12,126,229,190,78,34,14
58,39,-19,-48,39,9,126,229,190,78,19,9
58,39,-19,-48,39,9,126,234,195,82,29,4
63,29,-34,-46,48,-2,141,248,204,92,34,4
63,63,0,-63,31,31,141,253,224,102,43,14
63,87,24,-75,19,56,131,253,224,102,34,9
68,97,29,-82,19,63,131,258,224,107,34,9
82,92,9,-87,36,51,136,273,239,112,48,14
63,87,24,-75,19,56,161,287,248,131,68,29
58,97,39,-78,9,68,175,307,258,151,73,39
63,102,39,-82,12,70,180,322,268,156,78,43
58,97,39,-78,9,68,185,336,273,156,78,48
63,92,29,-78,17,61,180,336,268,156,68,43
68,97,29,-82,19,63,175,341,268,161,73,43
78,92,14,-85,31,53,175,341,273,151,73,39
82,87,4,-85,39,46,175,346,283,156,68,34
73,112,39,-92,17,75,180,366,297,165,92,53
78,131,53,-104,12,92,190,390,322,180,92,63
92,122,29,-107,31,75,200,409,331,195,97,73
107,107,0,-107,53,53,200,434,346,209,102,78
117,146,29,-131,43,87,190,429,346,209,92,78
117,151,34,-134,41,92,190,448,351,209,97,82
117,161,43,-139,36,102,195,458,366,214,102,82
122,165,43,-143,39,104,200,468,366,214,112,82
122,156,34,-139,43,95,214,488,385,229,136,92
122,165,43,-143,39,104,229,507,405,248,146,102
136,170,34,-153,51,102,234,531,419,263,151,117
136,175,39,-156,48,107,239,546,434,273,156,131
122,161,39,-141,41,100,253,575,444,292,165,151
112,156,43,-134,34,100,258,590,468,312,175,156
107,156,48,-131,29,102,263,605,478,326,195,161
97,151,53,-124,21,102,268,619,488,351,209,165
107,185,78,-146,14,131,268,629,492,336,204,170
122,200,78,-161,21,139,263,634,497,326,200,165
141,204,63,-173,39,134,263,653,512,331,200,165
151,195,43,-173,53,119,268,678,522,341,204,175
161,209,48,-185,56,129,268,678,536,361,209,175
165,229,63,-197,51,146,273,702,546,380,224,180
165,224,58,-195,53,141,278,727,561,395,234,190
180,219,39,-200,70,129,283,746,575,400,244,200
170,239,68,-204,51,153,283,756,595,405,258,204
170,253,82,-212,43,168,287,771,610,424,268,214
180,268,87,-224,46,178,292,800,624,444,287,224
185,278,92,-231,46,185,297,814,639,453,297,234
209,283,73,-246,68,178,307,829,649,468,312,248
214,283,68,-248,73,175,307,839,658,483,322,253
200,278,78,-239,61,178,312,854,668,502,341,273
219,273,53,-246,82,163,312,854,683,517,361,283
209,297,87,-253,61,192,297,854,673,502,356,273
209,317,107,-263,51,212,297,858,673,507,351,278
204,326,122,-265,41,224,297,858,673,507,351,283
204,331,126,-268,39,229,302,863,688,507,366,292
200,326,126,-263,36,226,297,854,678,497,356,287
190,322,131,-256,29,226,287,854,678,502,356,287
185,317,131,-251,26,224,283,854,678,512,366,287
190,312,122,-251,34,217,283,854,688,522,375,292
204,307,102,-256,51,204,283,863,688,531,370,287
219,297,78,-258,70,187,278,849,688,531,370,287
239,297,58,-268,90,178,273,849,678,531,370,287
253,278,24,-265,114,151,273,844,673,531,375,287
244,292,48,-268,97,170,278,849,673,531,385,302
239,317,78,-278,80,197,273,839,673,531,385,307
248,341,92,-295,78,217,273,829,678,527,385,302
244,361,117,-302,63,239,273,810,663,517,375,302
219,370,151,-295,34,261,258,790,649,512,385,312
214,361,146,-287,34,253,253,771,639,512,380,312
214,351,136,-283,39,244,248,746,624,502,375,312
209,341,131,-275,39,236,244,727,610,492,370,302
219,326,107,-273,56,217,219,697,585,468,356,283
224,322,97,-273,63,209,204,678,561,448,346,283
224,312,87,-268,68,200,200,644,541,434,331,278
214,307,92,-261,61,200,195,610,522,414,317,273
195,287,92,-241,51,190,195,580,492,400,317,258
185,278,92,-231,46,185,180,551,468,390,302,253
170,273,102,-222,34,187,175,517,444,380,287,239
141,263,122,-202,9,192,165,492,429,366,278,234
161,244,82,-202,39,163,156,468,409,341,253,209
175,239,63,-207,56,151,141,439,380,312,244,195
190,224,34,-207,78,129,122,400,351,292,219,180
195,219,24,-207,85,122,102,366,312,263,195,161
165,200,34,-183,65,117,117,341,302,263,195,161
156,185,29,-170,63,107,117,317,292,253,190,165
126,180,53,-153,36,117,117,297,273,239,180,165
117,170,53,-143,31,112,107,263,248,219,161,146
102,156,53,-129,24,104,87,239,224,180,151,131
92,146,53,-119,19,100,78,209,204,165,136,117
87,141,53,-114,17,97,68,180,170,136,117,102
73,131,58,-102,7,95,58,156,161,117,102,82
82,122,39,-102,21,80,58,122,136,102,78,78
68,102,34,-85,17,68,58,102,126,92,73,73
53,102,48,-78,2,75,53,87,102,78,63,53
53,102,48,-78,2,75,34,63,82,63,48,29
43,82,39,-63,2,61,34,48,73,39,29,14
39,63,24,-51,7,43,34,39,58,39,19,14
39,53,14,-46,12,34,24,24,53,29,14,4
39,24,-14,-31,26,4,24,24,39,19,4,0
53,39,-14,-46,34,12,24,4,24,-4,0,4
58,58,0,-58,29,29,19,-9,9,-14,-9,-9
68,78,9,-73,29,43,14,-29,0,-34,-29,-19
78,97,19,-87,29,58,4,-43,-14,-39,-34,-24
78,78,0,-78,39,39,4,-53,-19,-48,-29,-34
73,68,-4,-70,39,31,4,-58,-24,-48,-39,-34
68,53,-14,-61,41,19,4,-63,-29,-53,-39,-34
68,43,-24,-56,46,9,0,-78,-39,-63,-53,-39
58,29,-29,-43,43,0,-9,-78,-43,-68,-48,-43
43,19,-24,-31,34,-2,-9,-78,-43,-73,-53,-48
43,0,-43,-21,43,-21,-9,-78,-43,-73,-53,-48
48,9,-39,-29,43,-14,-9,-87,-53,-78,-58,-53
39,24,-14,-31,26,4,0,-78,-48,-68,-58,-48
48,53,4,-51,21,29,0,-73,-48,-78,-58,-53
39,68,29,-53,4,48,4,-73,-48,-78,-58,-53
34,68,34,-51,0,51,4,-68,-48,-78,-58,-53
19,34,14,-26,2,24,0,-78,-53,-87,-68,-53
14,9,-4,-12,9,2,-4,-78,-63,-87,-68,-53
9,-4,-14,-2,12,-9,-19,-78,-68,-87,-73,-53
9,-24,-34,7,21,-29,-14,-78,-73,-87,-73,-53
14,-19,-34,2,24,-26,-24,-92,-73,-87,-82,-63
19,0,-19,-9,19,-9,-24,-97,-73,-87,-82,-63
24,4,-19,-14,21,-7,-24,-107,-73,-87,-82,-68
29,0,-29,-14,29,-14,-24,-112,-78,-87,-82,-68
34,4,-29,-19,31,-12,-14,-102,-78,-82,-78,-58
48,19,-29,-34,39,-4,-14,-102,-78,-87,-78,-58
53,34,-19,-43,36,7,-14,-107,-78,-92,-87,-58
58,29,-29,-43,43,0,-14,-107,-78,-97,-87,-58
58,39,-19,-48,39,9,-14,-112,-73,-97,-92,-63
48,39,-9,-43,29,14,-9,-107,-73,-97,-92,-68
34,39,4,-36,14,21,-9,-97,-73,-92,-92,-68
9,39,29,-24,-9,34,-4,-92,-78,-92,-92,-68
39,24,-14,-31,26,4,-9,-102,-78,-102,-102,-73
43,19,-24,-31,34,-2,-9,-97,-73,-97,-102,-78
53,0,-53,-26,53,-26,-9,-97,-73,-97,-102,-82
73,4,-68,-39,70,-31,-9,-97,-78,-102,-107,-87
63,9,-53,-36,58,-21,-19,-97,-78,-112,-97,-78
53,4,-48,-29,51,-21,-14,-97,-73,-112,-87,-73
34,4,-29,-19,31,-12,-9,-92,-73,-107,-87,-73
24,9,-14,-17,19,-2,-9,-92,-68,-107,-87,-73
19,4,-14,-12,17,-4,0,-87,-63,-97,-82,-73
19,4,-14,-12,17,-4,4,-82,-58,-92,-78,-68
4,-4,-9,0,7,-7,14,-78,-53,-87,-73,-58
4,-4,-9,0,7,-7,19,-73,-48,-82,-63,-48
14,4,-9,-9,12,-2,9,-78,-53,-97,-68,-53
24,0,-24,-12,24,-12,0,-82,-58,-102,-78,-63
19,-4,-24,-7,21,-14,-9,-87,-63,-107,-82,-68
39,-14,-53,-12,46,-34,-24,-92,-68,-112,-87,-73
29,0,-29,-14,29,-14,-24,-102,-78,-112,-87,-73
29,4,-24,-17,26,-9,-24,-97,-78,-112,-87,-73
29,9,-19,-19,24,-4,-24,-92,-78,-112,-87,-73
29,14,-14,-21,21,0,-24,-92,-73,-112,-87,-68
29,19,-9,-24,19,4,-34,-102,-82,-122,-92,-82
43,-4,-48,-19,46,-26,-34,-97,-78,-122,-97,-87
43,14,-29,-29,36,-7,-29,-92,-78,-122,-102,-92
39,0,-39,-19,39,-19,-29,-92,-78,-122,-107,-97
39,9,-29,-24,34,-9,-14,-87,-68,-122,-97,-87
39,9,-29,-24,34,-9,-14,-87,-68,-122,-97,-87
39,9,-29,-24,34,-9,-14,-82,-68,-122,-97,-87
43,9,-34,-26,39,-12,-14,-82,-63,-122,-97,-87
34,19,-14,-26,24,2,-4,-68,-48,-102,-92,-78
34,19,-14,-26,24,2,0,-63,-48,-102,-82,-73
39,19,-19,-29,29,0,4,-63,-48,-107,-78,-73
39,34,-4,-36,21,14,4,-63,-48,-107,-73,-68
19,24,4,-21,7,14,14,-53,-48,-102,-73,-68
29,19,-9,-24,19,4,14,-53,-43,-97,-73,-68
39,9,-29,-24,34,-9,14,-58,-43,-92,-73,-68
29,0,-29,-14,29,-14,14,-58,-43,-87,-73,-68
34,4,-29,-19,31,-12,4,-58,-43,-97,-63,-58
34,9,-24,-21,29,-7,4,-58,-43,-97,-63,-58
34,14,-19,-24,26,-2,4,-58,-34,-92,-63,-53
29,19,-9,-24,19,4,4,-58,-34,-87,-58,-48
34,4,-29,-19,31,-12,14,-58,-24,-82,-58,-53
34,0,-34,-17,34,-17,14,-53,-24,-82,-63,-58
34,-4,-39,-14,36,-21,14,-53,-34,-82,-68,-68
34,-19,-53,-7,43,-36,14,-58,-34,-87,-73,-73
58,9,-48,-34,53,-19,-9,-68,-48,-92,-87,-82
63,19,-43,-41,53,-12,-4,-73,-53,-97,-87,-82
68,24,-43,-46,56,-9,0,-63,-43,-92,-78,-78
87,34,-53,-61,70,-9,-4,-68,-48,-97,-78,-78
58,19,-39,-39,48,-9,-4,-53,-34,-82,-63,-68
48,14,-34,-31,41,-9,0,-53,-34,-78,-58,-58
39,19,-19,-29,29,0,4,-48,-34,-73,-53,-48
29,0,-29,-14,29,-14,14,-43,-29,-63,-48,-39
19,4,-14,-12,17,-4,4,-48,-39,-73,-58,-43
19,19,0,-19,9,9,4,-53,-39,-78,-58,-43
24,34,9,-29,7,21,4,-58,-39,-78,-58,-43
24,48,24,-36,0,36,4,-63,-39,-78,-58,-43
34,43,9,-39,12,26,4,-63,-48,-82,-63,-48
39,34,-4,-36,21,14,4,-63,-48,-87,-63,-48
39,29,-9,-34,24,9,4,-63,-48,-92,-63,-53
43,19,-24,-31,34,-2,0,-68,-53,-97,-68,-53
48,19,-29,-34,39,-4,-9,-87,-58,-102,-82,-63
48,19,-29,-34,39,-4,-9,-87,-63,-102,-82,-63
58,14,-43,-36,51,-14,-9,-78,-68,-102,-78,-68
58,4,-53,-31,56,-24,-14,-78,-68,-97,-78,-68
48,4,-43,-26,46,-19,0,-78,-53,-92,-73,-68
48,19,-29,-34,39,-4,0,-82,-58,-97,-73,-63
48,19,-29,-34,39,-4,4,-78,-53,-92,-68,-58
48,19,-29,-34,39,-4,9,-73,-48,-87,-63,-48
43,14,-29,-29,36,-7,4,-82,-68,-97,-63,-58
39,4,-34,-21,36,-14,0,-82,-68,-97,-63,-58
24,-9,-34,-7,29,-21,0,-82,-68,-97,-63,-58
19,-43,-63,12,41,-53,-4,-78,-63,-97,-58,-58
24,-39,-63,7,43,-51,-14,-78,-73,-107,-63,-58
24,-24,-48,0,36,-36,-24,-87,-82,-117,-73,-63
24,-4,-29,-9,26,-17,-24,-92,-87,-117,-78,-63
39,0,-39,-19,39,-19,-24,-92,-87,-112,-78,-63
34,4,-29,-19,31,-12,-24,-102,-92,-117,-87,-73
43,4,-39,-24,41,-17,-24,-102,-92,-117,-92,-73
53,14,-39,-34,46,-12,-24,-102,-92,-122,-92,-73
63,14,-48,-39,56,-17,-24,-102,-92,-126,-92,-73
48,14,-34,-31,41,-9,-9,-87,-73,-112,-78,-68
43,14,-29,-29,36,-7,-4,-82,-68,-107,-73,-63
43,29,-14,-36,29,7,-4,-82,-63,-107,-68,-58
39,43,4,-41,17,24,0,-78,-63,-102,-63,-53
39,78,39,-58,0,58,0,-87,-73,-102,-53,-43
48,68,19,-58,14,43,4,-87,-73,-102,-43,-39
39,68,29,-53,4,48,9,-87,-73,-87,-43,-29
34,68,34,-51,0,51,14,-87,-73,-87,-39,-29
43,53,9,-48,17,31,4,-92,-73,-102,-48,-39
48,53,4,-51,21,29,9,-92,-68,-102,-48,-39
53,39,-14,-46,34,12,14,-92,-68,-102,-43,-39
58,19,-39,-39,48,-9,19,-92,-63,-97,-43,-34
43,24,-19,-34,31,2,24,-92,-53,-87,-43,-34
39,34,-4,-36,21,14,24,-92,-53,-87,-43,-34
34,48,14,-41,9,31,19,-92,-58,-92,-48,-39
19,68,48,-43,-14,58,19,-92,-58,-92,-48,-39
29,58,29,-43,0,43,29,-82,-48,-82,-48,-39
34,73,39,-53,-2,56,34,-82,-48,-82,-48,-39
39,73,34,-56,2,53,39,-82,-48,-82,-48,-39
58,87,29,-73,14,58,53,-82,-39,-78,-39,-34
53,82,29,-68,12,56,53,-82,-48,-87,-48,-43
34,82,48,-58,-7,65,48,-82,-48,-82,-48,-39
29,82,53,-56,-12,68,48,-78,-43,-78,-43,-34
43,82,39,-63,2,61,43,-78,-43,-78,-43,-34
53,92,39,-73,7,65,34,-78,-34,-78,-34,-24
53,97,43,-75,4,70,43,-78,-34,-78,-29,-19
53,102,48,-78,2,75,34,-78,-34,-78,-29,-14
48,107,58,-78,-4,82,19,-82,-34,-78,-29,-14
87,146,58,-117,14,102,19,-87,-34,-63,-19,-4
48,117,68,-82,-9,92,9,-97,-39,-78,-29,-9
34,107,73,-70,-19,90,0,-107,-43,-82,-39,-19
29,97,68,-63,-19,82,0,-107,-48,-87,-39,-19
24,87,63,-56,-19,75,0,-107,-53,-92,-39,-19
19,78,58,-48,-19,68,0,-107,-58,-97,-39,-19
39,102,63,-70,-12,82,-4,-117,-68,-97,-24,-4
53,107,53,-80,0,80,-9,-112,-68,-92,-19,0
73,112,39,-92,17,75,-24,-107,-63,-87,-14,4
87,117,29,-102,29,73,-29,-102,-63,-87,-4,9
97,131,34,-114,31,82,-43,-117,-68,-92,-4,14
97,136,39,-117,29,87,-48,-117,-73,-92,-9,4
97,136,39,-117,29,87,-53,-122,-73,-87,-19,0
97,122,24,-109,36,73,-48,-126,-78,-87,-19,-9
82,92,9,-87,36,51,-58,-117,-78,-92,-29,-24
53,68,14,-61,19,41,-58,-126,-87,-112,-43,-34
48,48,0,-48,24,24,-63,-131,-97,-112,-53,-43
34,39,4,-36,14,21,-58,-131,-97,-117,-53,-43
39,43,4,-41,17,24,-53,-126,-97,-117,-43,-39
53,43,-9,-48,31,17,-53,-131,-102,-126,-53,-39
68,34,-34,-51,51,0,-58,-141,-112,-136,-58,-43
73,34,-39,-53,56,-2,-63,-141,-117,-136,-58,-53
68,19,-48,-43,58,-14,-63,-141,-117,-141,-63,-53
68,19,-48,-43,58,-14,-68,-146,-117,-146,-73,-58
78,0,-78,-39,78,-39,-68,-151,-126,-151,-73,-63
87,0,-87,-43,87,-43,-68,-151,-131,-156,-82,-68
68,0,-68,-34,68,-34,-53,-146,-126,-146,-78,-58
58,-4,-63,-26,61,-34,-43,-131,-112,-131,-68,-58
53,-19,-73,-17,63,-46,-43,-126,-107,-131,-63,-63
39,-19,-58,-9,48,-39,-43,-122,-107,-141,-63,-68
29,-19,-48,-4,39,-34,-53,-131,-117,-156,-78,-68
14,-24,-39,4,26,-31,-53,-131,-117,-156,-82,-68
14,-19,-34,2,24,-26,-53,-136,-126,-161,-87,-78
24,-14,-39,-4,31,-26,-53,-141,-126,-170,-102,-82
14,-48,-63,17,39,-56,-53,-141,-126,-165,-87,-73
19,-39,-58,9,39,-48,-58,-141,-136,-165,-97,-78
19,-34,-53,7,36,-43,-63,-151,-141,-161,-97,-82
19,-34,-53,7,36,-43,-63,-151,-141,-156,-92,-82
19,-48,-68,14,43,-58,-58,-146,-136,-165,-97,-73
19,-53,-73,17,46,-63,-53,-146,-136,-165,-97,-68
14,-58,-73,21,43,-65,-43,-141,-131,-165,-92,-63
29,-63,-92,17,61,-78,-39,-141,-131,-165,-92,-63
24,-73,-97,24,61,-85,-39,-141,-136,-175,-107,-68
9,-78,-87,34,48,-82,-39,-141,-136,-175,-107,-82
14,-92,-107,39,61,-100,-39,-141,-131,-175,-107,-87
14,-97,-112,41,63,-104,-39,-141,-131,-175,-112,-92
14,-73,-87,29,51,-80,-34,-146,-136,-175,-112,-87
0,-73,-73,36,36,-73,-34,-141,-131,-170,-107,-82
-9,-92,-82,51,36,-87,-24,-131,-122,-161,-97,-73
9,-97,-107,43,58,-102,-24,-126,-117,-156,-92,-68
19,-87,-107,34,63,-97,-29,-136,-131,-165,-112,-82
19,-68,-87,24,53,-78,-34,-141,-136,-175,-117,-87
19,-58,-78,19,48,-68,-34,-141,-141,-180,-122,-92
14,-53,-68,19,41,-61,-39,-146,-146,-185,-126,-97
4,-48,-53,21,29,-51,-53,-146,-156,-195,-136,-107
4,-43,-48,19,26,-46,-53,-151,-156,-195,-136,-107
4,-48,-53,21,29,-51,-43,-156,-156,-190,-131,-102
4,-48,-53,21,29,-51,-43,-161,-156,-185,-131,-102
9,-73,-82,31,46,-78,-34,-151,-146,-175,-122,-102
9,-87,-97,39,53,-92,-39,-151,-151,-180,-131,-102
14,-87,-102,36,58,-95,-39,-151,-151,-180,-131,-102
4,-102,-107,48,56,-104,-34,-151,-146,-180,-126,-107
-9,-102,-92,56,41,-97,-24,-141,-136,-180,-126,-97
-9,-102,-92,56,41,-97,-24,-141,-136,-180,-126,-97
0,-92,-92,46,46,-92,-24,-141,-136,-180,-126,-97
4,-58,-63,26,34,-61,-29,-141,-136,-180,-126,-102
9,-68,-78,29,43,-73,-39,-151,-141,-180,-126,-112
4,-78,-82,36,43,-80,-39,-151,-146,-180,-126,-107
0,-87,-87,43,43,-87,-34,-151,-151,-180,-126,-107
4,-112,-117,53,61,-114,-29,-151,-156,-180,-126,-112
-9,-97,-87,53,39,-92,-29,-161,-156,-190,-136,-122
-14,-107,-92,61,39,-100,-29,-161,-156,-190,-136,-122
-19,-107,-87,63,34,-97,-29,-161,-156,-190,-136,-117
-24,-102,-78,63,26,-90,-29,-161,-156,-195,-136,-117
-24,-112,-87,68,31,-100,-24,-156,-151,-185,-126,-112
-24,-117,-92,70,34,-104,-24,-151,-146,-180,-122,-107
-19,-126,-107,73,43,-117,-19,-136,-136,-175,-112,-102
-19,-136,-117,78,48,-126,-14,-122,-131,-175,-107,-97
-19,-97,-78,58,29,-87,-9,-122,-131,-180,-126,-97
0,-63,-63,31,31,-63,4,-107,-136,-190,-131,-112
0,-68,-68,34,34,-68,19,-78,-122,-180,-131,-107
9,-97,-107,43,58,-102,24,-63,-107,-185,-131,-122
9,-107,-117,48,63,-112,24,-34,-92,-180,-136,-122
0,-126,-126,63,63,-126,43,29,-29,-136,-112,-107
24,-126,-151,51,87,-139,73,117,53,-78,-78,-87
63,-78,-141,7,102,-109,97,204,146,-14,-34,-58
82,4,-78,-43,80,-36,73,244,200,43,14,-19
102,68,-34,-85,68,17,24,244,229,136,102,63
156,122,-34,-139,95,43,-4,224,258,283,248,185
195,151,-43,-173,119,53,-63,165,253,414,375,302
204,175,-29,-190,117,73,-185,73,200,517,488,390
244,239,-4,-241,124,117,-317,-29,136,639,614,488
317,312,-4,-314,161,153,-453,-126,58,800,761,629
390,341,-48,-366,219,146,-610,-195,-9,936,902,732
448,351,-97,-400,273,126,-722,-239,-82,1024,971,775
478,361,-117,-419,297,122,-790,-307,-165,1063,1005,805
