I,II,III,aVR,aVL,aVF,V1,V2,V3,V4,V5,V6
-214,-97,117,156,-165,9,29,165,-29,-48,-78,-48
-214,-97,117,156,-165,9,29,165,-29,-48,-78,-48
-214,-97,117,156,-165,9,29,165,-29,-48,-78,-48
-214,-97,117,156,-165,9,29,165,-29,-48,-78,-48
-214,-92,122,153,-168,14,9,151,-29,-39,-73,-34
-214,-87,126,151,-170,19,0,136,-29,-39,-68,-29
-214,-82,131,148,-173,24,-9,122,-29,-39,-63,-24
-214,-78,136,146,-175,29,-19,107,-29,-39,-58,-19
-214,-78,136,146,-175,29,-29,97,-19,-29,-48,-19
-214,-78,136,146,-175,29,-29,87,-19,-29,-48,-19
-214,-78,136,146,-175,29,-29,78,-19,-29,-48,-19
-214,-78,136,146,-175,29,-29,68,-19,-29,-48,-19
-209,-63,146,136,-178,41,-43,48,-24,-39,-48,-9
-204,-58,146,131,-175,43,-48,39,-29,-39,-48,-9
-200,-53,146,126,-173,46,-53,29,-34,-39,-48,-9
-195,-48,146,122,-170,48,-58,19,-39,-39,-48,-9
-204,-63,141,134,-173,39,-68,19,-34,-34,-34,4
-204,-68,136,136,-170,34,-68,19,-29,-29,-29,9
-204,-73,131,139,-168,29,-68,19,-24,-24,-24,14
-204,-78,126,141,-165,24,-68,19,-19,-19,-19,19
-204,-78,126,141,-165,24,-78,14,-19,-9,-19,9
-204,-78,126,141,-165,24,-78,9,-19,-9,-19,9
-204,-78,126,141,-165,24,-78,4,-19,-9,-19,9
-204,-78,126,141,-165,24,-78,0,-19,-9,-19,9
-204,-68,136,136,-170,34,-78,0,-9,-9,-19,0
-204,-68,136,136,-170,34,-78,0,-9,-9,-19,0
-204,-68,136,136,-170,34,-78,0,-9,-9,-19,0
-204,-68,136,136,-170,34,-78,0,-9,-9,-19,0
-195,-68,126,131,-161,29,-78,0,-9,0,-19,0
-195,-68,126,131,-161,29,-78,0,-9,0,-19,0
-195,-68,126,131,-161,29,-78,0,-9,0,-19,0
-195,-68,126,131,-161,29,-78,0,-9,0,-19,0
-195,-78,117,136,-156,19,-78,0,-9,0,-9,14
-195,-78,117,136,-156,19,-78,0,-9,0,-9,19
-195,-78,117,136,-156,19,-78,0,-9,0,-9,24
-195,-78,117,136,-156,19,-78,0,-9,0,-9,29
-204,-87,117,146,-161,14,-73,0,0,9,-9,29
-204,-87,117,146,-161,14,-68,0,0,9,-9,29
-204,-87,117,146,-161,14,-63,0,0,9,-9,29
-204,-87,117,146,-161,14,-58,0,0,9,-9,29
-204,-78,126,141,-165,24,-48,0,-9,9,-9,19
-204,-78,126,141,-165,24,-48,0,-9,9,-9,19
-204,-78,126,141,-165,24,-48,0,-9,9,-9,19
-204,-78,126,141,-165,24,-48,0,-9,9,-9,19
-214,-78,136,146,-175,29,-39,4,-9,0,-9,19
-214,-78,136,146,-175,29,-39,9,-9,0,-9,19
-214,-78,136,146,-175,29,-39,14,-9,0,-9,19
-214,-78,136,146,-175,29,-39,19,-9,0,-9,19
-214,-87,126,151,-170,19,-29,9,0,9,-9,9
-214,-87,126,151,-170,19,-29,9,0,9,-9,9
-214,-87,126,151,-170,19,-29,9,0,9,-9,9
-214,-87,126,151,-170,19,-29,9,0,9,-9,9
-224,-78,146,151,-185,34,-19,19,0,0,-9,19
-224,-78,146,151,-185,34,-19,19,0,0,-9,19
-224,-78,146,151,-185,34,-19,19,0,0,-9,19
-224,-78,146,151,-185,34,-19,19,0,0,-9,19
-224,-78,146,151,-185,34,-14,29,0,0,-14,14
-224,-78,146,151,-185,34,-9,29,0,0,-19,9
-224,-78,146,151,-185,34,-4,29,0,0,-24,4
-224,-78,146,151,-185,34,0,29,0,0,-29,0
-234,-78,156,156,-195,39,9,39,0,0,-39,-4
-234,-78,156,156,-195,39,9,39,0,0,-39,-9
-234,-78,156,156,-195,39,9,39,0,0,-39,-14
-234,-78,156,156,-195,39,9,39,0,0,-39,-19
-234,-92,141,163,-187,24,19,48,-9,-9,-29,-9
-234,-97,136,165,-185,19,19,48,-9,-9,-29,-9
-234,-102,131,168,-183,14,19,48,-9,-9,-29,-9
-234,-107,126,170,-180,9,19,48,-9,-9,-29,-9
-234,-102,131,168,-183,14,19,48,0,-9,-29,-9
-234,-97,136,165,-185,19,19,48,0,-9,-29,-9
-234,-92,141,163,-187,24,19,48,0,-9,-29,-9
-234,-87,146,161,-190,29,19,48,0,-9,-29,-9
-244,-92,151,168,-197,29,29,58,0,-9,-29,-9
-244,-97,146,170,-195,24,29,58,0,-9,-29,-9
-244,-102,141,173,-192,19,29,58,0,-9,-29,-9
-244,-107,136,175,-190,14,29,58,0,-9,-29,-9
-234,-102,131,168,-183,14,29,58,-9,-9,-34,-24
-234,-97,136,165,-185,19,29,58,-9,-9,-39,-29
-234,-92,141,163,-187,24,29,58,-9,-9,-43,-34
-234,-87,146,161,-190,29,29,58,-9,-9,-48,-39
-234,-78,156,156,-195,39,29,68,-4,0,-43,-34
-234,-78,156,156,-195,39,29,68,0,0,-39,-29
-234,-78,156,156,-195,39,29,68,4,0,-34,-24
-234,-78,156,156,-195,39,29,68,9,0,-29,-19
-229,-73,156,151,-192,41,39,68,9,9,-19,-14
-224,-68,156,146,-190,43,39,68,9,9,-19,-9
-219,-63,156,141,-187,46,39,68,9,9,-19,-4
-214,-58,156,136,-185,48,39,68,9,9,-19,0
-224,-48,175,136,-200,63,48,73,14,19,-9,0
-224,-48,175,136,-200,63,58,78,19,19,-9,0
-224,-48,175,136,-200,63,68,82,24,19,-9,0
-224,-48,175,136,-200,63,78,87,29,19,-9,0
-214,-39,175,126,-195,68,78,87,39,29,-4,9
-214,-39,175,126,-195,68,78,87,39,29,0,9
-214,-39,175,126,-195,68,78,87,39,29,4,9
-214,-39,175,126,-195,68,78,87,39,29,9,9
-214,-39,175,126,-195,68,78,87,39,29,9,19
-214,-39,175,126,-195,68,78,87,39,29,9,19
-214,-39,175,126,-195,68,78,87,39,29,9,19
-214,-39,175,126,-195,68,78,87,39,29,9,19
-209,-48,161,129,-185,56,68,87,39,29,9,29
-204,-48,156,126,-180,53,58,87,39,29,9,29
-200,-48,151,124,-175,51,48,87,39,29,9,29
-195,-48,146,122,-170,48,39,87,39,29,9,29
-195,-53,141,124,-168,43,19,73,34,19,0,24
-195,-58,136,126,-165,39,9,68,29,19,0,19
-195,-63,131,129,-163,34,0,63,24,19,0,14
-195,-68,126,131,-161,29,-9,58,19,19,0,9
-195,-78,117,136,-156,19,-19,43,9,19,-9,4
-195,-78,117,136,-156,19,-19,39,9,19,-9,0
-195,-78,117,136,-156,19,-19,34,9,19,-9,-4
-195,-78,117,136,-156,19,-19,29,9,19,-9,-9
-195,-78,117,136,-156,19,-34,24,4,9,-19,0
-195,-78,117,136,-156,19,-39,19,0,9,-19,0
-195,-87,107,141,-151,9,-48,9,-9,4,-19,0
-190,-92,97,141,-143,2,-63,0,-19,4,-19,0
-200,-102,97,151,-148,-2,-63,0,-29,-4,-9,9
-190,-107,82,148,-136,-12,-58,0,-29,-4,-9,9
-190,-117,73,153,-131,-21,-53,0,-34,-4,-9,4
-190,-122,68,156,-129,-26,-58,0,-34,-4,-9,4
-180,-131,48,156,-114,-41,-68,-9,-29,4,-9,19
-175,-131,43,153,-109,-43,-68,-9,-19,9,-9,19
-170,-126,43,148,-107,-41,-58,-4,-9,9,-4,19
-170,-126,43,148,-107,-41,-53,-4,-4,9,-4,24
-180,-117,63,148,-122,-26,-34,0,-4,24,-4,19
-180,-117,63,148,-122,-26,-34,4,-4,24,0,14
-180,-126,53,153,-117,-36,-34,9,-4,24,0,4
-175,-126,48,151,-112,-39,-34,14,-4,24,0,0
-185,-141,43,163,-114,-48,-24,4,4,24,0,14
-185,-141,43,163,-114,-48,-24,4,4,24,0,14
-180,-146,34,163,-107,-56,-19,4,4,24,0,14
-175,-146,29,161,-102,-58,-19,4,4,24,0,14
-165,-156,9,161,-87,-73,-34,14,-4,24,0,4
-165,-151,14,158,-90,-68,-34,14,-4,24,0,4
-170,-151,19,161,-95,-65,-34,14,-4,24,0,4
-175,-151,24,163,-100,-63,-34,9,-4,19,0,0
-170,-151,19,161,-95,-65,-24,0,4,19,-4,0
-175,-146,29,161,-102,-58,-14,0,0,19,-4,0
-180,-146,34,163,-107,-56,-9,0,0,19,-4,0
-185,-151,34,168,-109,-58,-4,0,0,19,-4,0
-190,-156,34,173,-112,-61,0,9,0,24,-4,-4
-190,-156,34,173,-112,-61,4,9,0,24,-4,-9
-190,-156,34,173,-112,-61,4,14,0,24,-4,-9
-195,-161,34,178,-114,-63,4,14,0,24,-4,-9
-200,-165,34,183,-117,-65,9,24,0,14,-4,0
-204,-170,34,187,-119,-68,14,24,0,14,-4,0
-209,-180,29,195,-119,-75,24,29,0,19,0,0
-214,-185,29,200,-122,-78,34,29,4,19,0,0
-209,-195,14,202,-112,-90,43,34,4,24,9,9
-209,-190,19,200,-114,-85,43,34,4,29,9,9
-209,-190,19,200,-114,-85,43,34,4,34,9,9
-209,-190,19,200,-114,-85,43,34,9,39,9,9
-200,-200,0,200,-100,-100,43,34,14,39,9,0
-200,-200,0,200,-100,-100,43,34,19,39,9,0
-200,-195,4,197,-102,-95,48,34,29,39,9,0
-200,-195,4,197,-102,-95,48,39,34,43,14,4
-200,-190,9,195,-104,-90,48,39,34,48,29,4
-200,-190,9,195,-104,-90,53,43,34,48,29,4
-195,-185,9,190,-102,-87,53,43,34,48,29,9
-195,-185,9,190,-102,-87,53,43,34,48,29,9
-185,-185,0,185,-92,-92,63,53,34,58,19,19
-195,-185,9,190,-102,-87,63,53,34,58,19,19
-195,-185,9,190,-102,-87,63,53,34,58,19,19
-190,-185,4,187,-97,-90,63,48,39,58,19,19
-200,-185,14,192,-107,-85,58,39,29,58,19,9
-200,-180,19,190,-109,-80,58,39,29,58,19,9
-190,-180,9,185,-100,-85,58,43,29,58,19,9
-190,-170,19,180,-104,-75,58,43,29,58,19,4
-204,-180,24,192,-114,-78,68,53,29,48,24,9
-204,-185,19,195,-112,-82,68,53,29,48,24,19
-204,-185,19,195,-112,-82,68,53,29,48,29,24
-204,-185,19,195,-112,-82,68,53,29,48,29,29
-200,-185,14,192,-107,-85,68,53,29,48,19,24
-200,-185,14,192,-107,-85,73,53,29,48,19,19
-195,-180,14,187,-104,-82,73,53,29,48,19,14
-195,-180,14,187,-104,-82,73,53,29,48,19,14
-195,-175,19,185,-107,-78,82,53,29,48,9,9
-195,-170,24,183,-109,-73,82,58,29,48,9,0
-195,-161,34,178,-114,-63,82,58,34,48,9,-4
-195,-156,39,175,-117,-58,82,58,34,48,9,-9
-195,-156,39,175,-117,-58,73,58,34,53,19,4
-195,-156,39,175,-117,-58,73,58,34,53,24,14
-195,-156,39,175,-117,-58,73,58,34,53,29,19
-195,-151,43,173,-119,-53,73,58,34,53,34,24
-195,-151,43,173,-119,-53,82,58,34,53,29,24
-195,-151,43,173,-119,-53,82,58,34,48,29,24
-195,-151,43,173,-119,-53,82,58,34,48,29,19
-190,-151,39,170,-114,-56,82,58,34,48,29,19
-190,-156,34,173,-112,-61,92,68,34,53,43,19
-190,-156,34,173,-112,-61,68,78,48,53,48,34
-170,-151,19,161,-95,-65,58,107,73,87,63,53
-156,-136,19,146,-87,-58,39,151,117,117,82,63
-156,-131,24,143,-90,-53,34,214,136,131,78,53
-146,-117,29,131,-87,-43,29,292,156,136,82,53
-117,-97,19,107,-68,-39,14,414,219,180,117,63
-107,-102,4,104,-56,-48,4,551,292,224,146,82
-112,-92,19,102,-65,-36,14,644,341,248,165,97
-107,-48,58,78,-82,4,24,688,385,278,185,102
-82,-19,63,51,-73,21,9,678,424,307,214,126
-82,-19,63,51,-73,21,-24,566,405,307,204,122
-92,-39,53,65,-73,7,-48,375,331,268,170,102
-87,-48,39,68,-63,-4,-82,161,229,214,146,87
-78,-4,73,41,-75,34,-122,-117,156,190,146,107
-73,53,126,9,-100,90,-185,-434,102,185,146,131
-92,97,190,-2,-141,143,-248,-722,87,209,190,195
-87,170,258,-41,-173,214,-239,-854,141,268,273,273
-68,268,336,-100,-202,302,-156,-922,204,351,351,346
-48,370,419,-161,-234,395,-126,-1039,244,414,414,405
-29,483,512,-226,-270,497,-156,-1195,278,507,492,473
-14,561,575,-273,-295,568,-151,-1317,312,590,590,546
29,629,600,-329,-285,614,-102,-1454,292,639,663,619
102,707,605,-405,-251,656,-112,-1605,273,683,722,697
170,810,639,-490,-234,724,-102,-1712,292,751,805,771
190,883,692,-536,-251,788,-4,-1800,292,780,863,839
214,883,668,-549,-226,775,87,-1878,229,756,863,858
248,785,536,-517,-143,661,9,-1961,112,692,829,829
273,619,346,-446,-36,483,-273,-2025,-34,614,795,785
263,409,146,-336,58,278,-570,-1995,-151,527,732,722
195,263,68,-229,63,165,-712,-1932,-253,429,668,668
126,239,112,-183,7,175,-761,-1869,-302,380,644,653
68,258,190,-163,-61,224,-824,-1790,-341,331,605,639
-4,229,234,-112,-119,231,-858,-1698,-429,200,483,546
-68,200,268,-65,-168,234,-751,-1537,-492,53,326,439
-117,180,297,-31,-207,239,-580,-1288,-448,-4,229,336
-151,141,292,4,-222,217,-453,-985,-366,0,170,268
-195,82,278,56,-236,180,-326,-722,-292,-9,117,200
-219,-4,214,112,-217,104,-229,-546,-263,-48,48,97
-209,-63,146,136,-178,41,-165,-448,-248,-73,-4,34
-190,-97,92,143,-141,-2,-97,-346,-195,-73,-29,9
-195,-136,58,165,-126,-39,-43,-258,-146,-78,-48,-19
-195,-175,19,185,-107,-78,-29,-195,-122,-78,-63,-39
-190,-180,9,185,-100,-85,-14,-146,-107,-63,-63,-43
-190,-161,29,175,-109,-65,24,-78,-87,-48,-53,-43
-209,-136,73,173,-141,-31,63,-9,-68,-34,-39,-43
-204,-126,78,165,-141,-24,87,29,-43,-9,-24,-29
-204,-146,58,175,-131,-43,117,63,-4,19,-9,-9
-195,-146,48,170,-122,-48,141,97,24,19,0,0
-204,-146,58,175,-131,-43,146,97,29,9,-4,-9
-214,-161,53,187,-134,-53,136,107,39,14,-14,-24
-204,-161,43,183,-124,-58,136,112,29,14,-24,-34
-204,-156,48,180,-126,-53,136,122,24,14,-24,-39
-204,-146,58,175,-131,-43,141,141,24,14,-24,-43
-204,-131,73,168,-139,-29,146,151,24,14,-19,-43
-204,-141,63,173,-134,-39,156,151,43,19,-19,-43
-204,-151,53,178,-129,-48,161,165,48,24,-19,-43
-204,-151,53,178,-129,-48,165,175,53,24,-19,-48
-204,-151,53,178,-129,-48,165,175,58,24,-19,-53
-195,-161,34,178,-114,-63,156,185,53,14,-19,-48
-195,-165,29,180,-112,-68,156,190,48,14,-29,-43
-195,-170,24,183,-109,-73,156,195,43,14,-19,-39
-190,-175,14,183,-102,-80,156,200,39,14,-19,-29
-200,-161,39,180,-119,-61,165,200,48,14,-19,-34
-200,-156,43,178,-122,-56,175,204,58,14,-19,-39
-200,-151,48,175,-124,-51,175,209,58,14,-19,-48
-200,-161,39,180,-119,-61,175,209,58,14,-19,-53
-190,-151,39,170,-114,-56,175,209,58,14,-34,-68
-190,-151,39,170,-114,-56,175,209,58,14,-34,-68
-190,-151,39,170,-114,-56,170,219,58,14,-34,-68
-190,-151,39,170,-114,-56,170,224,58,14,-34,-63
-185,-161,24,173,-104,-68,175,229,58,14,-24,-53
-185,-165,19,175,-102,-73,180,234,58,14,-19,-53
-190,-170,19,180,-104,-75,180,239,58,14,-19,-53
-190,-175,14,183,-102,-80,180,244,58,14,-19,-53
-185,-165,19,175,-102,-73,190,244,73,24,-19,-48
-185,-175,9,180,-97,-82,195,248,73,24,-19,-48
-185,-175,9,180,-97,-82,195,253,73,24,-19,-48
-185,-175,9,180,-97,-82,195,258,73,24,-24,-48
-185,-165,19,175,-102,-73,185,263,63,19,-34,-53
-185,-175,9,180,-97,-82,190,268,63,14,-34,-58
-185,-180,4,183,-95,-87,190,273,63,9,-39,-63
-185,-180,4,183,-95,-87,190,278,68,4,-39,-73
-185,-180,4,183,-95,-87,204,283,78,14,-34,-58
-185,-170,14,178,-100,-78,204,287,78,9,-34,-53
-195,-200,-4,197,-95,-102,200,287,78,9,-29,-48
-195,-200,-4,197,-95,-102,200,292,78,9,-24,-48
-185,-190,-4,187,-90,-97,190,297,78,9,-29,-63
-180,-185,-4,183,-87,-95,200,307,78,4,-34,-73
-180,-175,4,178,-92,-85,200,312,78,4,-39,-78
-175,-170,4,173,-90,-82,200,317,78,4,-43,-82
-185,-175,9,180,-97,-82,204,331,87,14,-34,-68
-185,-180,4,183,-95,-87,214,336,87,14,-29,-68
-185,-190,-4,187,-90,-97,219,346,92,14,-24,-63
-185,-200,-14,192,-85,-107,234,356,92,14,-19,-58
-170,-190,-19,180,-75,-104,234,361,87,14,-34,-48
-170,-190,-19,180,-75,-104,234,366,82,14,-34,-53
-170,-190,-19,180,-75,-104,229,370,82,14,-34,-53
-170,-190,-19,180,-75,-104,234,385,78,9,-34,-53
-170,-195,-24,183,-73,-109,234,395,87,9,-34,-58
-170,-204,-34,187,-68,-119,239,395,87,9,-39,-63
-175,-209,-34,192,-70,-122,248,405,87,9,-39,-68
-175,-209,-34,192,-70,-122,253,419,92,9,-34,-78
-175,-200,-24,187,-75,-112,258,424,92,9,-43,-78
-170,-200,-29,185,-70,-114,263,434,97,9,-39,-78
-170,-200,-29,185,-70,-114,273,439,97,9,-39,-78
-180,-209,-29,195,-75,-119,283,444,97,9,-43,-82
-180,-200,-19,190,-80,-109,287,458,97,9,-39,-92
-175,-200,-24,187,-75,-112,297,473,97,9,-43,-92
-175,-200,-24,187,-75,-112,302,488,107,9,-43,-97
-185,-204,-19,195,-82,-112,307,502,107,9,-43,-97
-185,-195,-9,190,-87,-102,317,502,112,9,-39,-92
-180,-195,-14,187,-82,-104,326,512,112,9,-39,-92
-180,-200,-19,190,-80,-109,331,522,112,9,-39,-92
-180,-204,-24,192,-78,-114,336,527,112,4,-43,-92
-180,-204,-24,192,-78,-114,346,531,112,4,-48,-92
-180,-204,-24,192,-78,-114,356,536,112,9,-48,-92
-180,-204,-24,192,-78,-114,361,541,112,9,-53,-102
-190,-204,-14,197,-87,-109,366,546,117,4,-58,-102
-190,-204,-14,197,-87,-109,366,556,107,0,-58,-107
-190,-204,-14,197,-87,-109,370,556,107,0,-58,-107
-190,-204,-14,197,-87,-109,375,556,97,0,-63,-112
-200,-209,-9,204,-95,-109,375,556,92,-4,-68,-117
-209,-209,0,209,-104,-104,385,556,92,-14,-63,-107
-200,-209,-9,204,-95,-109,395,556,92,-19,-63,-107
-190,-209,-19,200,-85,-114,400,556,92,-19,-63,-107
-190,-214,-24,202,-82,-119,409,546,92,-19,-63,-107
-190,-204,-14,197,-87,-109,400,556,97,-14,-53,-92
-190,-204,-14,197,-87,-109,395,556,97,-9,-53,-92
-190,-200,-9,195,-90,-104,395,556,97,-4,-43,-92
-190,-200,-9,195,-90,-104,395,546,97,4,-43,-92
-190,-185,4,187,-97,-90,395,546,97,4,-43,-92
-190,-180,9,185,-100,-85,390,541,97,4,-43,-87
-185,-180,4,183,-95,-87,385,536,97,4,-43,-87
-185,-180,4,183,-95,-87,375,527,97,4,-43,-82
-185,-165,19,175,-102,-73,370,517,107,4,-39,-82
-185,-165,19,175,-102,-73,370,517,107,4,-39,-73
-185,-165,19,175,-102,-73,370,507,107,14,-29,-68
-185,-151,34,168,-109,-58,366,497,102,14,-29,-68
-185,-146,39,165,-112,-53,346,488,97,24,-29,-68
-185,-141,43,163,-114,-48,341,473,97,34,-24,-58
-175,-136,39,156,-107,-48,336,463,102,34,-19,-58
-175,-126,48,151,-112,-39,322,444,102,34,-14,-53
-185,-131,53,158,-119,-39,322,429,102,29,-9,-58
-185,-126,58,156,-122,-34,312,414,102,39,-9,-53
-185,-117,68,151,-126,-24,302,405,102,43,-4,-48
-185,-112,73,148,-129,-19,292,390,102,43,0,-43
-175,-112,63,143,-119,-24,283,366,102,39,0,-39
-175,-102,73,139,-124,-14,268,346,102,43,4,-29
-175,-107,68,141,-122,-19,258,331,107,48,14,-19
-170,-102,68,136,-119,-17,248,317,107,53,19,-14
-175,-92,82,134,-129,-4,234,302,107,63,39,-9
-175,-92,82,134,-129,-4,224,287,107,68,39,-4
-170,-92,78,131,-124,-7,214,278,107,73,43,0
-170,-87,82,129,-126,-2,204,263,112,78,48,4
-170,-68,102,119,-136,17,195,244,102,68,48,4
-165,-68,97,117,-131,14,185,229,102,78,43,4
-151,-68,82,109,-117,7,175,214,97,78,43,4
-136,-68,68,102,-102,0,165,204,97,78,43,0
-146,-63,82,104,-114,9,170,190,82,68,43,0
-146,-63,82,104,-114,9,161,185,82,63,43,0
-141,-58,82,100,-112,12,161,175,82,63,48,9
-136,-58,78,97,-107,9,156,170,87,73,48,9
-146,-68,78,107,-112,4,151,165,78,73,39,9
-146,-58,87,102,-117,14,141,151,78,73,39,9
-146,-53,92,100,-119,19,141,146,78,73,39,9
-136,-53,82,95,-109,14,136,146,78,73,43,9
-136,-63,73,100,-104,4,131,141,78,73,43,14
-136,-68,68,102,-102,0,131,136,78,73,43,14
-136,-68,68,102,-102,0,126,131,78,78,43,14
-136,-63,73,100,-104,4,122,122,68,78,48,14
-136,-63,73,100,-104,4,126,126,78,78,48,14
-131,-58,73,95,-102,7,122,126,78,78,43,14
-131,-63,68,97,-100,2,122,126,78,78,43,14
-131,-58,73,95,-102,7,126,126,78,78,43,19
-126,-73,53,100,-90,-9,122,117,78,82,48,19
-141,-73,68,107,-104,-2,112,112,78,82,53,19
-141,-78,63,109,-102,-7,107,102,78,78,53,19
-136,-78,58,107,-97,-9,102,102,78,78,48,19
-126,-78,48,102,-87,-14,112,107,73,73,48,19
-126,-78,48,102,-87,-14,112,107,73,73,53,19
-126,-78,48,102,-87,-14,112,107,73,73,53,19
-126,-78,48,102,-87,-14,112,107,73,73,53,24
-117,-87,29,102,-73,-29,112,107,63,73,53,14
-126,-87,39,107,-82,-24,107,107,63,73,48,14
-126,-82,43,104,-85,-19,107,107,63,73,48,14
-122,-78,43,100,-82,-17,112,107,63,73,48,14
-122,-78,43,100,-82,-17,112,97,73,73,48,9
-126,-68,58,97,-92,-4,112,97,73,68,48,9
-141,-53,87,97,-114,17,117,97,73,68,48,4
-146,-63,82,104,-114,9,117,97,73,68,48,4
-136,-78,58,107,-97,-9,112,107,63,68,43,4
-136,-63,73,100,-104,4,117,112,63,68,43,9
-136,-58,78,97,-107,9,117,112,63,68,43,9
-136,-63,73,100,-104,4,122,112,63,68,39,9
-122,-58,63,90,-92,2,122,102,63,58,48,19
-122,-78,43,100,-82,-17,122,102,63,58,48,19
-141,-97,43,119,-92,-26,122,102,63,58,48,19
-141,-92,48,117,-95,-21,126,102,63,58,48,19
-146,-87,58,117,-102,-14,131,107,63,68,39,9
-146,-82,63,114,-104,-9,131,107,63,68,39,9
-146,-78,68,112,-107,-4,131,107,63,68,39,9
-141,-68,73,104,-107,2,141,107,63,68,34,4
-126,-58,68,92,-97,4,141,97,53,63,34,-4
-126,-63,63,95,-95,0,141,97,53,58,34,-4
-131,-68,63,100,-97,-2,141,97,53,53,34,-4
-141,-63,78,102,-109,7,141,102,53,48,29,-4
-151,-73,78,112,-114,2,136,102,53,43,29,-4
-146,-73,73,109,-109,0,136,107,53,43,29,0
-146,-73,73,109,-109,0,141,107,53,43,29,4
-146,-78,68,112,-107,-4,141,107,53,43,29,4
-136,-78,58,107,-97,-9,141,112,53,43,19,-4
-136,-68,68,102,-102,0,151,112,53,43,19,-4
-136,-68,68,102,-102,0,151,117,48,43,14,-9
-151,-68,82,109,-117,7,151,117,48,39,14,-9
-151,-78,73,114,-112,-2,156,107,48,48,24,-9
-141,-73,68,107,-104,-2,156,112,53,53,24,-9
-141,-68,73,104,-107,2,156,112,53,53,24,-9
-141,-68,73,104,-107,2,161,112,53,48,24,-9
-131,-78,53,104,-92,-12,151,107,48,39,24,-4
-131,-78,53,104,-92,-12,156,107,48,43,24,0
-136,-78,58,107,-97,-9,156,112,48,43,29,4
-141,-73,68,107,-104,-2,156,112,48,43,29,9
-151,-73,78,112,-114,2,151,112,48,53,24,9
-141,-73,68,107,-104,-2,156,117,48,53,24,9
-141,-73,68,107,-104,-2,156,117,48,53,24,9
-146,-73,73,109,-109,0,156,117,48,53,24,9
-136,-73,63,104,-100,-4,156,117,63,53,39,9
-131,-78,53,104,-92,-12,161,117,63,53,39,9
-122,-73,48,97,-85,-12,170,117,58,58,39,9
-131,-58,73,95,-102,7,175,117,58,58,39,14
-141,-53,87,97,-114,17,175,122,73,63,48,24
-131,-48,82,90,-107,17,180,122,73,63,48,24
-122,-39,82,80,-102,21,185,126,68,68,53,24
-131,-34,97,82,-114,31,195,126,68,73,53,24
-122,-29,92,75,-107,31,204,136,73,73,58,29
-122,-29,92,75,-107,31,190,136,78,78,58,29
-126,-24,102,75,-114,39,200,136,82,78,53,24
-126,-14,112,70,-119,48,200,136,92,78,53,29
-131,-24,107,78,-119,41,204,136,82,78,58,39
-131,-34,97,82,-114,31,204,136,82,82,63,43
-122,-24,97,73,-109,36,200,136,82,82,68,43
-117,-9,107,63,-112,48,195,136,87,87,73,43
-107,-14,92,61,-100,39,185,141,97,97,82,58
-102,-19,82,61,-92,31,175,136,92,97,82,58
-97,-19,78,58,-87,29,165,136,87,97,87,63
-97,-29,68,63,-82,19,156,136,87,97,87,63
-102,-48,53,75,-78,2,146,117,78,87,82,53
-112,-48,63,80,-87,7,131,112,78,82,78,48
-102,-48,53,75,-78,2,117,97,73,78,73,48
-92,-48,43,70,-68,-2,97,92,73,78,68,39
-122,-68,53,95,-87,-7,97,73,58,58,48,29
-112,-73,39,92,-75,-17,102,68,58,58,58,29
-117,-78,39,97,-78,-19,97,68,48,58,58,39
-107,-78,29,92,-68,-24,87,58,39,58,48,29
-107,-78,29,92,-68,-24,87,58,39,58,48,29
-107,-78,29,92,-68,-24,87,58,39,58,48,29
-107,-78,29,92,-68,-24,87,58,39,58,48,29
-107,-78,29,92,-68,-24,78,48,34,43,39,19
-102,-82,19,92,-61,-31,63,39,29,43,39,19
-102,-82,19,92,-61,-31,53,34,29,43,39,19
-92,-87,4,90,-48,-41,48,29,29,43,39,19
-82,-102,-19,92,-31,-61,39,39,24,43,39,14
-82,-112,-29,97,-26,-70,29,39,24,43,39,14
-78,-117,-39,97,-19,-78,29,39,24,43,39,19
-78,-122,-43,100,-17,-82,29,39,29,48,39,19
-78,-107,-29,92,-24,-68,48,43,34,48,43,19
-82,-107,-24,95,-29,-65,53,43,34,48,43,24
-82,-97,-14,90,-34,-56,63,43,34,53,43,24
-82,-97,-14,90,-34,-56,63,43,34,53,48,24
-92,-107,-14,100,-39,-61,63,53,34,53,48,29
-87,-107,-19,97,-34,-63,63,53,34,53,48,29
-87,-112,-24,100,-31,-68,63,53,34,53,48,34
-87,-112,-24,100,-31,-68,63,53,34,53,48,34
-82,-126,-43,104,-19,-85,68,53,34,53,48,34
-78,-126,-48,102,-14,-87,68,53,34,53,48,34
-78,-126,-48,102,-14,-87,63,53,34,53,48,34
-78,-122,-43,100,-17,-82,63,53,34,53,48,34
-78,-112,-34,95,-21,-73,63,53,34,63,58,43
-78,-112,-34,95,-21,-73,63,48,34,58,58,39
-78,-112,-34,95,-21,-73,63,48,34,58,53,39
-78,-107,-29,92,-24,-68,73,48,29,58,53,39
-82,-107,-24,95,-29,-65,78,39,39,48,53,39
-87,-112,-24,100,-31,-68,82,39,39,48,53,39
-102,-117,-14,109,-43,-65,87,39,39,43,53,34
-102,-117,-14,109,-43,-65,92,39,39,43,53,29
-112,-117,-4,114,-53,-61,92,53,29,53,53,19
-117,-122,-4,119,-56,-63,92,53,29,53,53,19
-117,-122,-4,119,-56,-63,92,53,29,53,43,19
-117,-122,-4,119,-56,-63,92,53,29,53,43,19
-117,-126,-9,122,-53,-68,97,58,39,58,48,29
-117,-126,-9,122,-53,-68,102,58,43,58,48,29
-112,-126,-14,119,-48,-70,102,63,43,58,48,29
-112,-122,-9,117,-51,-65,102,63,43,58,48,29
-112,-122,-9,117,-51,-65,102,63,34,58,48,19
-112,-122,-9,117,-51,-65,102,63,39,58,48,19
-112,-122,-9,117,-51,-65,102,63,39,58,48,19
-112,-122,-9,117,-51,-65,102,63,39,58,48,19
-112,-117,-4,114,-53,-61,107,63,53,58,48,19
-112,-117,-4,114,-53,-61,107,68,53,63,53,24
-112,-122,-9,117,-51,-65,107,68,53,68,58,24
-112,-122,-9,117,-51,-65,112,73,53,68,58,24
-97,-107,-9,102,-43,-58,102,63,43,58,58,39
-97,-107,-9,102,-43,-58,102,63,43,58,58,39
-97,-107,-9,102,-43,-58,102,63,43,58,58,39
-107,-107,0,107,-53,-53,102,63,43,58,58,39
-117,-117,0,117,-58,-58,112,73,43,48,53,29
-112,-117,-4,114,-53,-61,112,68,48,48,48,29
-112,-117,-4,114,-53,-61,117,68,48,48,43,29
-112,-112,0,112,-56,-56,117,68,48,48,39,29
-112,-107,4,109,-58,-51,117,63,48,53,48,29
-112,-92,19,102,-65,-36,117,63,48,58,48,24
-117,-87,29,102,-73,-29,117,63,48,63,43,24
-117,-87,29,102,-73,-29,117,63,48,68,43,29
-117,-102,14,109,-65,-43,117,68,58,58,58,34
-117,-107,9,112,-63,-48,117,73,58,58,58,39
-122,-112,9,117,-65,-51,117,78,58,58,58,43
-122,-117,4,119,-63,-56,122,82,58,58,58,48
-117,-102,14,109,-65,-43,131,82,68,68,58,39
-117,-102,14,109,-65,-43,131,82,68,68,58,43
-117,-102,14,109,-65,-43,131,82,68,68,58,43
-117,-102,14,109,-65,-43,131,87,68,68,58,39
-117,-97,19,107,-68,-39,122,78,63,68,68,39
-117,-97,19,107,-68,-39,122,78,63,68,68,39
-117,-97,19,107,-68,-39,122,78,63,73,73,39
-117,-97,19,107,-68,-39,122,78,63,73,73,43
-107,-97,9,102,-58,-43,122,78,63,73,73,43
-107,-92,14,100,-61,-39,122,78,63,73,73,43
-107,-92,14,100,-61,-39,122,78,63,73,68,43
-107,-92,14,100,-61,-39,122,78,63,68,68,43
-107,-92,14,100,-61,-39,122,78,63,78,68,39
-92,-82,9,87,-51,-36,131,78,53,68,68,29
-82,-87,-4,85,-39,-46,131,78,63,73,53,39
-102,-97,4,100,-53,-46,126,87,68,73,58,34
-122,-82,39,102,-80,-21,107,107,82,87,73,43
-87,-68,19,78,-53,-24,87,151,117,117,92,63
-68,-73,-4,70,-31,-39,73,224,156,141,117,82
-68,-68,0,68,-34,-34,58,302,185,156,141,82
-58,-58,0,58,-29,-29,43,414,239,190,165,112
-29,-43,-14,36,-7,-29,43,551,302,234,185,122
-14,-34,-19,24,2,-26,53,663,361,258,204,136
-9,-19,-9,14,0,-14,53,727,414,297,214,151
-14,0,14,7,-14,7,48,717,444,326,244,165
-4,19,24,-7,-14,21,34,634,444,346,263,180
4,9,4,-7,0,7,0,473,390,317,248,161
0,9,9,-4,-4,9,-34,248,297,253,214,146
-9,14,24,-2,-17,19,-82,-9,204,219,195,146
-14,53,68,-19,-41,61,-146,-326,151,204,195,161
-14,117,131,-51,-73,124,-200,-624,126,219,209,185
-9,190,200,-90,-104,195,-219,-814,131,268,263,234
-19,287,307,-134,-163,297,-156,-912,185,322,322,307
-19,370,390,-175,-204,380,-107,-1029,224,375,385,375
0,444,444,-222,-222,444,-107,-1185,248,458,473,444
43,561,517,-302,-236,539,-131,-1327,283,531,561,527
68,658,590,-363,-261,624,-102,-1473,273,580,624,600
92,727,634,-409,-270,680,-92,-1625,253,614,683,658
180,810,629,-495,-224,719,-92,-1732,273,702,775,751
248,893,644,-570,-197,768,-14,-1800,292,771,844,829
263,922,658,-592,-197,790,117,-1869,258,766,873,849
278,863,585,-570,-153,724,87,-1952,161,712,858,849
331,727,395,-529,-31,561,-165,-2015,24,634,814,824
370,556,185,-463,92,370,-502,-2034,-102,546,761,771
312,370,58,-341,126,214,-702,-1981,-214,439,697,697
214,278,63,-246,75,170,-751,-1898,-283,380,663,663
146,307,161,-226,-7,234,-814,-1820,-312,351,644,668
112,307,195,-209,-41,251,-868,-1737,-370,278,570,614
48,258,209,-153,-80,234,-790,-1586,-453,141,434,527
-29,219,248,-95,-139,234,-629,-1366,-458,43,317,424
-63,180,244,-58,-153,212,-492,-1083,-395,0,229,336
-97,131,229,-17,-163,180,-375,-810,-302,9,185,258
-141,63,204,39,-173,134,-248,-595,-253,0,136,185
-151,-14,136,82,-143,61,-165,-468,-239,-43,63,112
-141,-68,73,104,-107,2,-117,-366,-195,-63,29,68
-136,-97,39,117,-87,-29,-63,-268,-136,-58,9,39
-136,-126,9,131,-73,-58,-29,-195,-112,-68,-14,9
-141,-141,0,141,-70,-70,-14,-156,-107,-73,-14,4
-141,-141,0,141,-70,-70,14,-107,-78,-48,-4,4
-141,-136,4,139,-73,-65,63,-29,-48,-14,19,4
-136,-117,19,126,-78,-48,97,29,-4,9,34,9
-146,-117,29,131,-87,-43,117,63,14,29,48,19
-146,-117,29,131,-87,-43,131,97,34,19,39,9
-146,-126,19,136,-82,-53,146,107,48,19,34,9
-136,-122,14,129,-75,-53,156,117,48,14,24,-4
-141,-126,14,134,-78,-56,146,122,48,14,14,-9
-146,-126,19,136,-82,-53,146,131,43,14,14,-9
-151,-122,29,136,-90,-46,151,151,43,14,14,-9
-156,-112,43,134,-100,-34,156,161,43,14,19,-4
-156,-122,34,139,-95,-43,165,170,43,19,29,-14
-156,-131,24,143,-90,-53,170,185,48,24,29,-14
-156,-131,24,143,-90,-53,175,195,53,24,29,-19
-156,-131,24,143,-90,-53,175,195,58,24,29,-24
-156,-146,9,151,-82,-68,165,195,68,24,29,-19
-156,-146,9,151,-82,-68,165,200,68,24,19,-14
-156,-146,9,151,-82,-68,165,204,68,24,29,-9
-151,-146,4,148,-78,-70,165,209,68,24,29,0
-151,-146,4,148,-78,-70,175,219,58,34,29,-9
-151,-146,4,148,-78,-70,185,224,68,34,29,-9
-151,-146,4,148,-78,-70,185,229,68,34,29,-14
-151,-161,-9,156,-70,-85,185,229,68,34,29,-14
-141,-161,-19,151,-61,-90,185,229,78,24,24,-9
-141,-161,-19,151,-61,-90,185,229,78,24,24,-9
-141,-161,-19,151,-61,-90,180,239,78,24,24,-9
-141,-161,-19,151,-61,-90,180,244,78,24,24,-4
-141,-165,-24,153,-58,-95,175,248,78,34,24,-14
-146,-165,-19,156,-63,-92,180,253,78,34,29,-14
-156,-165,-9,161,-73,-87,180,258,78,34,29,-14
-161,-165,-4,163,-78,-85,180,263,78,34,29,-14
-146,-156,-9,151,-68,-82,180,253,73,24,24,-29
-146,-165,-19,156,-63,-92,185,258,73,24,19,-29
-146,-165,-19,156,-63,-92,185,263,73,24,14,-29
-146,-165,-19,156,-63,-92,185,268,73,24,4,-29
-146,-165,-19,156,-63,-92,185,273,73,24,14,-19
-146,-175,-29,161,-58,-102,190,278,73,24,14,-19
-146,-180,-34,163,-56,-107,190,283,73,24,9,-19
-146,-180,-34,163,-56,-107,190,287,78,24,9,-24
-136,-170,-34,153,-51,-102,195,292,87,24,19,-24
-136,-161,-24,148,-56,-92,195,297,87,19,14,-24
-146,-190,-43,168,-51,-117,190,297,87,19,14,-24
-146,-190,-43,168,-51,-117,190,302,87,19,14,-29
-141,-190,-48,165,-46,-119,200,317,87,29,14,-24
-141,-195,-53,168,-43,-124,209,326,87,24,14,-24
-146,-195,-48,170,-48,-122,209,331,87,24,14,-19
-146,-200,-53,173,-46,-126,209,336,87,24,14,-14
-146,-190,-43,168,-51,-117,209,341,87,14,9,-24
-146,-190,-43,168,-51,-117,214,346,87,14,9,-29
-146,-195,-48,170,-48,-122,214,356,92,14,9,-29
-146,-200,-53,173,-46,-126,224,366,92,14,9,-29
-141,-200,-58,170,-41,-129,229,370,92,14,4,-29
-141,-200,-58,170,-41,-129,234,375,92,14,4,-34
-141,-200,-58,170,-41,-129,234,380,97,14,4,-34
-141,-200,-58,170,-41,-129,244,395,97,9,4,-34
-131,-204,-73,168,-29,-139,244,405,97,19,4,-43
-131,-214,-82,173,-24,-148,248,405,97,19,0,-43
-136,-219,-82,178,-26,-151,258,414,97,19,0,-43
-136,-219,-82,178,-26,-151,263,429,102,19,4,-48
-146,-229,-82,187,-31,-156,268,444,112,19,4,-39
-141,-229,-87,185,-26,-158,273,453,117,19,9,-39
-141,-229,-87,185,-26,-158,283,458,117,19,9,-39
-151,-239,-87,195,-31,-163,292,463,117,19,4,-43
-151,-229,-78,190,-36,-153,297,473,107,19,9,-43
-146,-229,-82,187,-31,-156,307,483,107,19,4,-43
-146,-229,-82,187,-31,-156,312,492,117,19,4,-48
-156,-234,-78,195,-39,-156,317,502,117,19,4,-48
-146,-234,-87,190,-29,-161,326,522,122,19,0,-53
-141,-234,-92,187,-24,-163,336,531,122,19,0,-53
-141,-239,-97,190,-21,-168,341,541,122,19,0,-53
-141,-244,-102,192,-19,-173,346,546,122,14,-4,-53
-151,-244,-92,197,-29,-168,356,541,122,4,-9,-53
-151,-244,-92,197,-29,-168,366,546,122,9,-9,-53
-151,-244,-92,197,-29,-168,370,551,122,9,-14,-63
-161,-244,-82,202,-39,-163,375,556,126,4,-19,-63
-161,-244,-82,202,-39,-163,385,566,126,9,-9,-58
-161,-244,-82,202,-39,-163,390,566,126,9,-9,-58
-161,-244,-82,202,-39,-163,395,566,117,9,-14,-63
-170,-248,-78,209,-46,-163,395,566,112,4,-19,-68
-180,-248,-68,214,-56,-158,400,566,112,4,-14,-68
-170,-248,-78,209,-46,-163,405,566,112,0,-14,-68
-161,-248,-87,204,-36,-168,405,566,112,0,-14,-68
-161,-253,-92,207,-34,-173,409,556,112,0,-14,-68
-180,-253,-73,217,-53,-163,409,556,107,9,-14,-53
-180,-253,-73,217,-53,-163,405,556,107,9,-14,-53
-180,-248,-68,214,-56,-158,405,556,107,9,-4,-53
-180,-248,-68,214,-56,-158,405,546,107,14,-4,-53
-170,-244,-73,207,-48,-158,405,546,107,4,-4,-63
-170,-239,-68,204,-51,-153,400,541,107,4,-4,-58
-165,-239,-73,202,-46,-156,395,536,107,4,-4,-58
-165,-239,-73,202,-46,-156,385,527,107,4,-4,-53
-175,-234,-58,204,-58,-146,370,517,97,4,-9,-53
-175,-234,-58,204,-58,-146,370,517,97,4,-9,-43
-175,-234,-58,204,-58,-146,370,507,97,14,0,-39
-175,-219,-43,197,-65,-131,366,497,92,14,0,-39
-165,-214,-48,190,-58,-131,346,488,92,14,0,-29
-165,-209,-43,187,-61,-126,341,473,97,24,4,-19
-156,-204,-48,180,-53,-126,336,463,107,24,9,-19
-156,-195,-39,175,-58,-117,322,444,112,24,14,-14
-165,-190,-24,178,-70,-107,322,419,102,19,29,-19
-165,-185,-19,175,-73,-102,312,405,102,29,29,-14
-165,-175,-9,170,-78,-92,302,395,102,34,34,-9
-165,-170,-4,168,-80,-87,292,380,102,34,39,-4
-156,-170,-14,163,-70,-92,273,366,102,39,48,0
-156,-161,-4,158,-75,-82,258,346,102,43,53,9
-156,-165,-9,161,-73,-87,248,331,107,48,63,19
-151,-161,-9,156,-70,-85,239,317,107,53,68,24
-146,-156,-9,151,-68,-82,234,283,107,63,68,19
-146,-151,-4,148,-70,-78,224,268,107,68,68,24
-141,-146,-4,143,-68,-75,214,258,107,73,73,29
-141,-136,4,139,-73,-65,204,244,112,78,78,34
-136,-126,9,131,-73,-58,195,244,102,68,82,39
-136,-126,9,131,-73,-58,185,229,102,78,82,43
-126,-126,0,126,-63,-63,175,214,97,78,87,48
-117,-126,-9,122,-53,-68,165,204,97,78,92,48
-126,-131,-4,129,-61,-68,151,190,102,87,92,58
-126,-131,-4,129,-61,-68,141,185,102,82,92,58
-122,-126,-4,124,-58,-65,141,175,102,82,97,68
-117,-126,-9,122,-53,-68,136,170,107,92,97,68
-126,-136,-9,131,-58,-73,131,156,97,87,87,58
-126,-126,0,126,-63,-63,122,141,97,82,87,58
-126,-122,4,124,-65,-58,122,136,97,78,87,58
-117,-122,-4,119,-56,-63,117,136,97,73,92,58
-117,-122,-4,119,-56,-63,112,131,97,82,92,53
-117,-126,-9,122,-53,-68,112,126,97,82,92,53
-117,-126,-9,122,-53,-68,107,122,97,87,92,53
-117,-122,-4,119,-56,-63,102,112,87,87,97,53
-107,-126,-19,117,-43,-73,97,117,97,78,97,63
-102,-117,-14,109,-43,-65,92,117,97,78,92,63
-102,-117,-14,109,-43,-65,92,117,97,78,92,63
-102,-107,-4,104,-48,-56,97,117,97,78,92,68
-92,-122,-29,107,-31,-75,87,107,102,82,97,68
-112,-122,-9,117,-51,-65,82,102,97,82,102,68
-117,-126,-9,122,-53,-68,82,92,92,78,102,68
-117,-126,-9,122,-53,-68,82,92,87,78,97,68
-117,-126,-9,122,-53,-68,82,97,82,73,87,58
-117,-126,-9,122,-53,-68,82,97,82,73,92,58
-117,-126,-9,122,-53,-68,82,97,82,73,92,58
-117,-126,-9,122,-53,-68,82,97,82,73,92,63
-117,-136,-19,126,-48,-78,82,87,82,82,102,63
-126,-136,-9,131,-58,-73,78,87,82,82,97,63
-126,-131,-4,129,-61,-68,78,87,82,82,97,63
-122,-126,-4,124,-58,-65,82,87,82,82,97,63
-107,-131,-24,119,-41,-78,82,97,92,92,97,68
-107,-126,-19,117,-43,-73,82,97,92,87,97,68
-117,-117,0,117,-58,-58,87,97,92,87,97,63
-117,-131,-14,124,-51,-73,87,97,92,87,97,63
-126,-151,-24,139,-51,-87,82,87,82,78,92,53
-126,-131,-4,129,-61,-68,87,92,82,78,92,58
-126,-122,4,124,-65,-58,87,92,82,78,92,58
-126,-122,4,124,-65,-58,92,92,82,78,87,58
-112,-112,0,112,-56,-56,102,102,82,78,87,48
-112,-136,-24,124,-43,-80,102,102,82,78,87,48
-131,-161,-29,146,-51,-95,102,102,82,78,87,48
-131,-161,-29,146,-51,-95,107,102,82,78,87,48
-136,-156,-19,146,-58,-87,102,97,82,73,78,48
-136,-151,-14,143,-61,-82,102,97,82,68,78,48
-136,-146,-9,141,-63,-78,102,97,82,63,78,48
-131,-136,-4,134,-63,-70,112,97,82,58,73,43
-136,-136,0,136,-68,-68,112,97,73,58,82,43
-136,-141,-4,139,-65,-73,112,97,73,58,82,43
-141,-146,-4,143,-68,-75,112,97,73,58,82,43
-151,-141,9,146,-80,-65,112,102,73,58,78,43
-151,-151,0,151,-75,-75,117,112,82,53,68,48
-146,-151,-4,148,-70,-78,117,117,82,53,68,48
-146,-151,-4,148,-70,-78,122,117,82,53,68,48
-146,-156,-9,151,-68,-82,122,117,82,53,68,43
-146,-146,0,146,-73,-73,122,112,82,53,68,43
-146,-136,9,141,-78,-63,131,112,82,53,68,43
-146,-136,9,141,-78,-63,131,117,78,53,63,39
-161,-136,24,148,-92,-56,131,117,78,48,63,39
-161,-126,34,143,-97,-46,151,126,87,53,68,58
-151,-122,29,136,-90,-46,156,131,92,63,73,58
-151,-117,34,134,-92,-41,161,131,92,68,78,58
-151,-117,34,134,-92,-41,170,131,92,68,82,58
-161,-112,48,136,-104,-31,175,141,107,78,92,58
-161,-107,53,134,-107,-26,185,146,107,82,92,58
-165,-102,63,134,-114,-19,190,156,107,82,97,58
-170,-92,78,131,-124,-7,195,161,107,82,97,58
-161,-87,73,124,-117,-7,200,161,117,82,82,58
-151,-92,58,122,-104,-17,204,165,117,82,82,58
-151,-97,53,124,-102,-21,204,165,117,82,82,58
-156,-102,53,129,-104,-24,204,165,117,82,82,58
-156,-107,48,131,-102,-29,185,156,112,82,78,58
-151,-117,34,134,-92,-41,180,156,112,82,78,58
-141,-117,24,129,-82,-46,180,156,107,87,78,58
-151,-107,43,129,-97,-31,175,156,107,87,78,63
-161,-112,48,136,-104,-31,161,156,102,78,87,63
-151,-117,34,134,-92,-41,151,151,102,73,87,63
-141,-117,24,129,-82,-46,141,151,97,73,92,63
-151,-122,29,136,-90,-46,136,146,97,73,92,63
-141,-126,14,134,-78,-56,122,136,82,63,92,53
-141,-136,4,139,-73,-65,102,126,78,68,87,48
-146,-141,4,143,-75,-68,107,117,73,68,78,39
-146,-141,4,143,-75,-68,102,107,73,68,73,39
-180,-161,19,170,-100,-70,82,87,82,48,73,39
-170,-161,9,165,-90,-75,87,87,63,43,73,43
-151,-151,0,151,-75,-75,78,78,63,34,63,43
-146,-156,-9,151,-68,-82,68,78,58,39,58,39
-146,-165,-19,156,-63,-92,63,73,53,29,48,39
-146,-165,-19,156,-63,-92,58,68,48,29,48,39
-146,-165,-19,156,-63,-92,53,63,43,29,48,39
-146,-165,-19,156,-63,-92,48,58,39,29,48,39
-146,-180,-34,163,-56,-107,43,63,34,24,48,29
-141,-190,-48,165,-46,-119,34,58,29,24,48,29
-141,-195,-53,168,-43,-124,29,58,29,24,48,29
-131,-204,-73,168,-29,-139,29,58,29,24,48,29
-131,-209,-78,170,-26,-143,39,48,29,34,58,29
-131,-209,-78,170,-26,-143,29,48,34,34,58,34
-126,-204,-78,165,-24,-141,29,48,39,34,58,43
-126,-200,-73,163,-26,-136,29,48,48,39,58,48
-136,-195,-58,165,-39,-126,39,53,53,39,63,39
-141,-195,-53,168,-43,-124,43,53,53,39,63,43
-141,-185,-43,163,-48,-114,53,53,53,43,63,43
-141,-185,-43,163,-48,-114,53,53,53,43,68,43
-131,-200,-68,165,-31,-134,43,53,43,43,58,39
-126,-204,-78,165,-24,-141,43,53,43,43,58,39
-126,-214,-87,170,-19,-151,43,53,43,43,58,43
-126,-219,-92,173,-17,-156,43,53,43,43,58,43
-131,-214,-82,173,-24,-148,48,43,43,34,58,43
-126,-214,-87,170,-19,-151,48,43,43,34,58,43
-126,-214,-87,170,-19,-151,43,43,43,34,58,43
-126,-209,-82,168,-21,-146,43,43,43,34,58,43
-141,-209,-68,175,-36,-139,43,34,34,34,58,43
-146,-209,-63,178,-41,-136,43,29,34,29,58,39
-151,-209,-58,180,-46,-134,43,29,34,29,53,39
-156,-204,-48,180,-53,-126,53,29,29,29,53,39
-161,-214,-53,187,-53,-134,58,39,29,29,43,29
-165,-219,-53,192,-56,-136,63,39,29,29,43,29
-180,-224,-43,202,-68,-134,68,39,29,24,43,24
-180,-224,-43,202,-68,-134,73,39,29,24,43,19
-170,-224,-53,197,-58,-139,73,43,29,24,48,29
-175,-229,-53,202,-61,-141,73,43,29,24,53,29
-175,-229,-53,202,-61,-141,73,43,29,24,48,29
-175,-229,-53,202,-61,-141,73,43,29,24,53,29
-165,-234,-68,200,-48,-151,73,39,29,29,53,19
-165,-234,-68,200,-48,-151,73,39,34,29,48,19
-161,-234,-73,197,-43,-153,68,43,34,29,43,19
-161,-229,-68,195,-46,-148,63,43,34,29,39,19
-165,-229,-63,197,-51,-146,73,43,24,29,39,19
-170,-229,-58,200,-56,-143,73,43,29,29,39,19
-175,-229,-53,202,-61,-141,73,43,29,29,39,19
-180,-229,-48,204,-65,-139,73,43,29,29,39,19
-170,-214,-43,192,-63,-129,78,43,43,29,39,19
-170,-214,-43,192,-63,-129,78,48,43,34,43,24
-170,-219,-48,195,-61,-134,78,48,43,39,48,24
-170,-219,-48,195,-61,-134,82,53,43,39,48,24
-165,-224,-58,195,-53,-141,73,53,43,48,58,39
-165,-224,-58,195,-53,-141,73,53,43,48,58,39
-165,-224,-58,195,-53,-141,73,53,43,48,58,39
-175,-224,-48,200,-63,-136,73,53,43,48,58,39
-175,-224,-48,200,-63,-136,73,53,43,39,48,29
-170,-224,-53,197,-58,-139,73,48,48,39,48,29
-170,-224,-53,197,-58,-139,78,48,48,39,48,29
-170,-219,-48,195,-61,-134,78,48,48,39,48,29
-161,-219,-58,190,-51,-139,78,43,48,39,48,29
-161,-209,-48,185,-56,-129,78,43,48,39,48,24
-165,-209,-43,187,-61,-126,78,43,48,39,43,24
-165,-214,-48,190,-58,-131,78,43,48,39,43,29
-165,-214,-48,190,-58,-131,78,53,48,39,48,29
-165,-214,-48,190,-58,-131,78,53,48,39,48,29
-170,-214,-43,192,-63,-129,78,53,48,39,48,29
-170,-214,-43,192,-63,-129,82,53,48,39,48,29
-165,-209,-43,187,-61,-126,82,43,48,39,48,29
-165,-209,-43,187,-61,-126,82,43,48,39,48,34
-165,-209,-43,187,-61,-126,82,43,48,39,48,34
-165,-209,-43,187,-61,-126,82,48,48,39,48,29
-165,-214,-48,190,-58,-131,82,58,53,48,58,29
-165,-214,-48,190,-58,-131,82,58,53,48,58,29
-165,-214,-48,190,-58,-131,82,58,53,53,63,29
-165,-214,-48,190,-58,-131,82,58,53,53,63,34
-165,-214,-48,190,-58,-131,82,48,53,43,53,34
-165,-209,-43,187,-61,-126,82,48,53,43,53,34
-165,-209,-43,187,-61,-126,82,48,53,43,48,34
-165,-209,-43,187,-61,-126,82,48,53,39,48,34
-165,-209,-43,187,-61,-126,73,58,53,48,58,39
-151,-209,-58,180,-46,-134,82,58,53,48,58,39
-141,-204,-63,173,-39,-134,82,58,53,43,63,39
-161,-204,-43,183,-58,-124,78,58,58,53,68,34
-161,-200,-39,180,-61,-119,68,78,63,68,73,43
-136,-185,-48,161,-43,-117,58,131,107,97,92,63
-107,-170,-63,139,-21,-117,34,204,146,122,107,73
-117,-175,-58,146,-29,-117,9,292,185,136,122,82
-107,-175,-68,141,-19,-122,-4,405,229,170,146,92
-78,-170,-92,124,7,-131,-4,541,302,204,175,112
-63,-161,-97,112,17,-129,4,663,351,248,204,126
-68,-146,-78,107,4,-112,4,727,414,287,234,141
-53,-117,-63,85,4,-90,-9,717,453,317,253,165
-34,-97,-63,65,14,-80,-24,634,444,326,263,170
-34,-97,-63,65,14,-80,-48,473,380,297,239,161
-39,-107,-68,73,14,-87,-82,248,287,234,204,136
-48,-102,-53,75,2,-78,-131,-29,195,190,185,136
-53,-63,-9,58,-21,-36,-204,-366,131,175,185,151
-53,-9,43,31,-48,17,-258,-663,107,190,200,185
-48,63,112,-7,-80,87,-268,-824,131,239,263,234
-68,151,219,-41,-143,185,-195,-912,185,312,331,297
-68,244,312,-87,-190,278,-146,-1039,224,375,395,366
-39,346,385,-153,-212,366,-165,-1185,258,458,473,453
-4,473,478,-234,-241,475,-190,-1337,273,522,561,546
19,561,541,-290,-261,551,-161,-1493,253,561,614,610
63,629,566,-346,-251,597,-151,-1664,234,595,683,678
141,722,580,-431,-219,651,-151,-1771,244,663,766,751
190,805,614,-497,-212,710,-63,-1849,253,722,844,819
195,795,600,-495,-202,697,29,-1927,200,717,854,839
239,697,458,-468,-109,578,-78,-2010,92,653,810,800
302,531,229,-417,36,380,-390,-2074,-43,566,766,746
322,341,19,-331,151,180,-697,-2054,-161,478,702,702
263,195,-68,-229,165,63,-839,-2010,-283,370,639,649
175,151,-24,-163,100,63,-907,-1947,-351,302,595,614
126,170,43,-148,41,107,-971,-1859,-361,292,595,619
73,161,87,-117,-7,124,-956,-1737,-400,219,531,575
9,122,112,-65,-51,117,-829,-1566,-473,92,414,478
-58,82,141,-12,-100,112,-668,-1327,-448,14,297,385
-102,53,156,24,-129,104,-522,-1034,-375,-9,219,317
-136,14,151,61,-143,82,-375,-771,-302,-9,165,248
-190,-53,136,122,-163,41,-268,-595,-263,-39,97,156
-219,-122,97,170,-158,-12,-204,-488,-239,-82,14,82
-190,-185,4,187,-97,-90,-146,-395,-204,-92,-9,39
-175,-214,-39,195,-68,-126,-92,-287,-156,-97,-29,9
-185,-234,-48,209,-68,-141,-68,-224,-131,-97,-43,-19
-190,-248,-58,219,-65,-153,-63,-185,-117,-92,-43,-24
-190,-258,-68,224,-61,-163,-24,-126,-97,-68,-34,-24
-180,-244,-63,212,-58,-153,24,-48,-68,-43,-29,-14
-185,-224,-39,204,-73,-131,68,9,-34,-19,-14,-9
-214,-224,-9,219,-102,-117,87,34,-4,-9,-9,-9
-204,-224,-19,214,-92,-122,102,58,14,-9,-9,-9
-195,-234,-39,214,-78,-136,97,68,29,-9,-4,-19
-195,-239,-43,217,-75,-141,97,78,29,-14,-4,-24
-204,-244,-39,224,-82,-141,107,92,29,-4,-14,-29
-204,-244,-39,224,-82,-141,107,102,24,-4,-14,-29
-204,-239,-34,222,-85,-136,112,122,24,-4,-14,-29
-204,-229,-24,217,-90,-126,117,131,24,-4,-9,-24
-204,-234,-29,219,-87,-131,126,141,43,0,-19,-14
-204,-248,-43,226,-80,-146,131,156,48,4,-19,-14
-204,-253,-48,229,-78,-151,136,165,53,4,-19,-19
-204,-258,-53,231,-75,-156,136,165,58,4,-19,-24
-195,-253,-58,224,-68,-156,126,156,48,-4,-9,-34
-195,-253,-58,224,-68,-156,126,161,48,-4,-19,-34
-195,-253,-58,224,-68,-156,126,165,48,-4,-9,-34
-190,-253,-63,222,-63,-158,126,170,48,-4,-9,-29
-200,-253,-53,226,-73,-153,126,190,48,-4,-9,-19
-200,-253,-53,226,-73,-153,136,195,58,-4,-9,-19
-200,-253,-53,226,-73,-153,136,200,58,-4,-9,-24
-200,-268,-68,234,-65,-168,136,200,58,-4,-9,-24
-190,-268,-78,229,-56,-173,126,200,58,-4,-24,-39
-190,-268,-78,229,-56,-173,126,200,58,-4,-24,-39
-190,-268,-78,229,-56,-173,122,209,58,-4,-24,-39
-190,-268,-78,229,-56,-173,122,214,58,-4,-24,-34
-195,-273,-78,234,-58,-175,136,219,58,-4,-24,-24
-195,-273,-78,234,-58,-175,141,224,58,-4,-19,-24
-200,-273,-73,236,-63,-173,141,229,58,-4,-19,-24
-200,-273,-73,236,-63,-173,141,234,58,-4,-19,-24
-195,-283,-87,239,-53,-185,141,234,63,-4,-19,-29
-195,-292,-97,244,-48,-195,146,239,63,-4,-19,-29
-195,-292,-97,244,-48,-195,146,244,63,-4,-19,-29
-195,-292,-97,244,-48,-195,146,248,63,-4,-24,-29
-195,-287,-92,241,-51,-190,136,253,53,-14,-34,-39
-195,-292,-97,244,-48,-195,141,258,53,-14,-34,-39
-195,-292,-97,244,-48,-195,141,263,53,-14,-39,-39
-195,-287,-92,241,-51,-190,141,268,58,-14,-39,-43
-195,-287,-92,241,-51,-190,156,263,68,-14,-29,-43
-195,-278,-82,236,-56,-180,156,268,68,-19,-34,-43
-204,-307,-102,256,-51,-204,151,268,68,-19,-34,-43
-204,-307,-102,256,-51,-204,151,273,68,-19,-34,-48
-200,-297,-97,248,-51,-197,161,287,68,-9,-34,-39
-200,-302,-102,251,-48,-202,170,297,68,-14,-34,-43
-204,-302,-97,253,-53,-200,170,302,68,-14,-34,-43
-204,-307,-102,256,-51,-204,170,307,68,-14,-34,-43
-204,-297,-92,251,-56,-195,161,312,68,-14,-39,-53
-204,-297,-92,251,-56,-195,165,317,68,-14,-39,-58
-204,-302,-97,253,-53,-200,165,326,73,-14,-39,-58
-204,-307,-102,256,-51,-204,175,336,73,-14,-39,-58
-200,-317,-117,258,-41,-217,180,341,63,-24,-53,-58
-200,-317,-117,258,-41,-217,185,346,63,-24,-53,-63
-200,-317,-117,258,-41,-217,185,351,68,-24,-53,-63
-200,-317,-117,258,-41,-217,195,366,68,-29,-53,-63
-209,-312,-102,261,-53,-207,185,375,68,-29,-43,-63
-209,-322,-112,265,-48,-217,190,375,68,-29,-48,-63
-214,-326,-112,270,-51,-219,200,385,68,-29,-48,-63
-214,-326,-112,270,-51,-219,204,400,73,-29,-43,-68
-204,-336,-131,270,-36,-234,219,405,73,-29,-53,-78
-200,-336,-136,268,-31,-236,224,414,78,-29,-48,-78
-200,-336,-136,268,-31,-236,234,419,78,-29,-48,-78
-209,-346,-136,278,-36,-241,244,424,78,-29,-53,-82
-209,-346,-136,278,-36,-241,239,444,78,-29,-58,-82
-204,-346,-141,275,-31,-244,248,453,78,-29,-63,-82
-204,-346,-141,275,-31,-244,253,463,87,-29,-63,-87
-214,-351,-136,283,-39,-244,258,473,87,-29,-63,-87
-214,-341,-126,278,-43,-234,258,478,82,-39,-68,-82
-209,-341,-131,275,-39,-236,268,483,82,-39,-68,-82
-209,-346,-136,278,-36,-241,273,488,82,-39,-68,-82
-209,-351,-141,280,-34,-246,278,488,82,-43,-73,-82
-209,-361,-151,285,-29,-256,287,502,82,-43,-73,-82
-209,-361,-151,285,-29,-256,297,507,82,-39,-68,-82
-209,-361,-151,285,-29,-256,302,512,82,-39,-68,-92
-219,-361,-141,290,-39,-251,307,517,87,-43,-68,-92
-219,-361,-141,290,-39,-251,317,522,87,-48,-73,-97
-219,-361,-141,290,-39,-251,322,517,87,-48,-78,-97
-219,-361,-141,290,-39,-251,326,512,78,-48,-87,-102
-229,-366,-136,297,-46,-251,326,507,73,-53,-97,-107
-248,-366,-117,307,-65,-241,322,517,73,-53,-92,-97
-239,-366,-126,302,-56,-246,326,517,73,-58,-92,-97
-229,-366,-136,297,-46,-251,326,517,73,-58,-92,-97
-229,-370,-141,300,-43,-256,331,507,73,-58,-92,-97
-229,-361,-131,295,-48,-246,322,497,58,-58,-92,-102
-229,-361,-131,295,-48,-246,317,497,58,-58,-92,-102
-229,-356,-126,292,-51,-241,317,497,58,-58,-82,-102
-229,-356,-126,292,-51,-241,317,488,58,-53,-82,-102
-239,-351,-112,295,-63,-231,317,478,48,-63,-82,-92
-239,-346,-107,292,-65,-226,312,473,48,-63,-82,-87
-234,-346,-112,290,-61,-229,307,468,48,-63,-82,-87
-234,-346,-112,290,-61,-229,297,458,48,-63,-82,-82
-234,-341,-107,287,-63,-224,283,448,48,-53,-78,-92
-234,-341,-107,287,-63,-224,283,448,48,-53,-78,-82
-234,-341,-107,287,-63,-224,283,439,48,-43,-68,-78
-234,-326,-92,280,-70,-209,278,429,43,-43,-68,-78
-224,-322,-97,273,-63,-209,268,409,48,-43,-68,-78
-224,-317,-92,270,-65,-204,263,395,48,-34,-63,-68
-214,-312,-97,263,-58,-204,258,385,53,-34,-58,-68
-214,-302,-87,258,-63,-195,244,366,53,-34,-53,-63
-214,-297,-82,256,-65,-190,229,351,43,-39,-48,-48
-214,-292,-78,253,-68,-185,214,336,43,-29,-48,-43
-214,-283,-68,248,-73,-175,200,326,43,-24,-43,-39
-214,-278,-63,246,-75,-170,185,312,43,-24,-39,-34
-214,-273,-58,244,-78,-165,185,287,43,-19,-29,-29
-214,-258,-43,236,-85,-151,170,268,43,-14,-24,-19
-214,-258,-43,236,-85,-151,161,253,48,-9,-14,-9
-209,-248,-39,229,-85,-143,151,239,48,-4,-9,-4
-204,-239,-34,222,-85,-136,136,214,48,4,0,-9
-204,-239,-34,222,-85,-136,126,200,48,9,0,-4
-200,-239,-39,219,-80,-139,117,190,48,14,4,0
-200,-234,-34,217,-82,-134,107,175,53,19,9,4
-195,-234,-39,214,-78,-136,87,165,53,9,4,9
-195,-234,-39,214,-78,-136,78,151,53,19,4,14
-185,-234,-48,209,-68,-141,68,136,48,19,9,19
-175,-234,-58,204,-58,-146,58,126,48,19,14,19
-185,-229,-43,207,-70,-136,63,112,43,19,24,19
-185,-229,-43,207,-70,-136,53,107,43,14,24,19
-180,-224,-43,202,-68,-134,53,97,43,14,29,29
-175,-224,-48,200,-63,-136,48,92,48,24,29,29
-175,-224,-48,200,-63,-136,34,87,39,24,19,29
-175,-214,-39,195,-68,-126,24,73,39,24,19,29
-175,-209,-34,192,-70,-122,24,68,39,24,19,29
-165,-209,-43,187,-61,-126,19,68,39,24,24,29
-175,-219,-43,197,-65,-131,24,63,48,24,24,24
-175,-224,-48,200,-63,-136,24,58,48,24,24,24
-175,-224,-48,200,-63,-136,19,53,48,29,24,24
-175,-219,-43,197,-65,-131,14,43,39,29,29,24
-185,-219,-34,202,-75,-126,9,39,39,19,29,34
-180,-214,-34,197,-73,-124,4,39,39,19,24,34
-180,-219,-39,200,-70,-129,4,39,39,19,24,34
-180,-214,-34,197,-73,-124,9,39,39,19,24,39
-165,-224,-58,195,-53,-141,0,48,39,24,29,29
-180,-219,-39,200,-70,-129,-4,43,39,24,34,29
-180,-219,-39,200,-70,-129,-4,34,39,19,34,29
-175,-214,-39,195,-68,-126,-4,34,39,19,29,29
-175,-224,-48,200,-63,-136,-4,39,34,24,19,29
-175,-224,-48,200,-63,-136,-4,39,34,24,24,29
-175,-224,-48,200,-63,-136,-4,39,34,24,24,29
-175,-224,-48,200,-63,-136,-4,39,34,24,24,34
-165,-214,-48,190,-58,-131,4,29,34,24,24,24
-175,-214,-39,195,-68,-126,0,29,34,24,19,24
-175,-209,-34,192,-70,-122,0,29,34,24,19,24
-170,-204,-34,187,-68,-119,4,29,34,24,19,24
-165,-219,-53,192,-56,-136,4,39,34,24,29,24
-165,-214,-48,190,-58,-131,4,39,34,19,29,29
-175,-204,-29,190,-73,-117,9,39,34,19,29,29
-175,-219,-43,197,-65,-131,9,39,34,19,29,34
-175,-239,-63,207,-56,-151,14,39,34,29,24,34
-175,-219,-43,197,-65,-131,19,43,34,29,24,39
-175,-209,-34,192,-70,-122,19,43,34,29,24,39
-175,-209,-34,192,-70,-122,24,43,34,29,19,39
-170,-204,-34,187,-68,-119,24,43,34,19,19,29
-170,-224,-53,197,-58,-139,24,43,34,19,19,29
-190,-244,-53,217,-68,-148,24,43,34,19,19,29
-190,-239,-48,214,-70,-143,29,43,34,19,19,29
-195,-229,-34,212,-80,-131,34,48,34,19,19,29
-195,-229,-34,212,-80,-131,34,48,34,19,19,29
-195,-229,-34,212,-80,-131,34,48,34,19,19,29
-190,-224,-34,207,-78,-129,43,48,34,19,14,24
-185,-224,-39,204,-73,-131,43,58,34,9,14,34
-185,-229,-43,207,-70,-136,43,58,34,9,14,34
-190,-234,-43,212,-73,-139,43,58,34,9,14,34
-200,-229,-29,214,-85,-129,43,63,34,9,9,34
-200,-219,-19,209,-90,-119,58,63,43,14,9,39
-195,-219,-24,207,-85,-122,58,68,43,14,9,39
-195,-219,-24,207,-85,-122,63,68,43,14,9,39
-195,-224,-29,209,-82,-126,63,68,43,14,9,34
-195,-209,-14,202,-90,-112,68,82,53,24,19,43
-195,-195,0,195,-97,-97,82,82,53,24,19,43
-195,-190,4,192,-100,-92,87,87,48,24,14,39
-209,-185,24,197,-117,-80,92,87,48,19,14,39
-200,-185,14,192,-107,-85,107,78,48,29,24,48
-190,-180,9,185,-100,-85,107,82,53,34,24,48
-190,-175,14,183,-102,-80,107,82,53,34,24,48
-190,-175,14,183,-102,-80,112,82,53,29,24,48
-190,-175,14,183,-102,-80,112,97,58,29,24,48
-190,-175,14,183,-102,-80,117,97,58,34,24,48
-195,-175,19,185,-107,-78,117,102,58,34,29,48
-200,-170,29,185,-114,-70,117,102,58,34,29,48
-200,-175,24,187,-112,-75,107,92,58,24,24,39
-190,-180,9,185,-100,-85,107,97,58,24,24,39
-190,-185,4,187,-97,-90,102,97,58,24,24,39
-195,-190,4,192,-100,-92,97,97,58,24,24,39
-195,-200,-4,197,-95,-102,68,87,53,24,19,39
-190,-214,-24,202,-82,-119,53,87,53,24,19,39
-180,-219,-39,200,-70,-129,43,87,48,29,19,39
-190,-214,-24,202,-82,-119,29,87,48,29,19,43
-204,-219,-14,212,-95,-117,9,78,39,14,4,39
-200,-224,-24,212,-87,-124,4,63,34,4,0,34
-195,-224,-29,209,-82,-126,0,53,24,0,0,29
-209,-229,-19,219,-95,-124,0,39,19,-4,-4,24
-209,-239,-29,224,-90,-134,-19,19,0,-14,-9,24
-190,-234,-43,212,-73,-139,-34,19,0,-19,-9,19
-185,-253,-68,219,-58,-161,-34,0,-9,-9,-14,19
-195,-263,-68,229,-63,-165,-48,0,-9,-19,-19,9
-200,-253,-53,226,-73,-153,-58,-4,-19,-19,-19,9
-204,-253,-48,229,-78,-151,-58,-9,-19,-19,-19,9
-209,-253,-43,231,-82,-148,-58,-14,-19,-19,-19,9
-214,-253,-39,234,-87,-146,-58,-19,-19,-19,-19,9
-204,-268,-63,236,-70,-165,-73,-14,-24,-24,-19,9
-200,-278,-78,239,-61,-178,-82,-19,-29,-24,-19,9
-200,-283,-82,241,-58,-183,-87,-19,-29,-24,-19,9
-190,-292,-102,241,-43,-197,-87,-19,-29,-24,-19,9
-190,-292,-102,241,-43,-197,-82,-19,-24,-24,-19,14
-190,-297,-107,244,-41,-202,-87,-19,-24,-24,-19,14
-185,-297,-112,241,-36,-204,-82,-19,-24,-24,-19,19
-185,-297,-112,241,-36,-204,-78,-19,-19,-19,-19,19
-195,-283,-87,239,-53,-185,-68,-14,-14,-19,-4,19
-200,-283,-82,241,-58,-183,-63,-14,-14,-19,-4,24
-200,-273,-73,236,-63,-173,-53,-14,-14,-14,-4,24
-200,-273,-73,236,-63,-173,-53,-14,-14,-14,0,24
-190,-287,-97,239,-46,-192,-58,-24,-24,-24,-9,9
-185,-292,-107,239,-39,-200,-63,-24,-24,-24,-9,9
-185,-302,-117,244,-34,-209,-68,-24,-24,-24,-9,14
-185,-307,-122,246,-31,-214,-73,-24,-24,-24,-9,14
-190,-302,-112,246,-39,-207,-68,-34,-14,-24,-9,24
-185,-302,-117,244,-34,-209,-68,-34,-14,-24,-9,24
-185,-302,-117,244,-34,-209,-73,-34,-14,-24,-9,24
-185,-297,-112,241,-36,-204,-73,-34,-14,-24,-9,24
-195,-297,-102,246,-46,-200,-63,-34,-24,-24,-9,14
-204,-297,-92,251,-56,-195,-63,-39,-24,-29,-9,9
-214,-297,-82,256,-65,-190,-63,-39,-24,-29,-14,9
-224,-292,-68,258,-78,-180,-53,-39,-29,-29,-14,9
-219,-302,-82,261,-68,-192,-58,-29,-19,-29,-24,9
-224,-307,-82,265,-70,-195,-53,-29,-19,-29,-24,9
-239,-312,-73,275,-82,-192,-48,-29,-19,-34,-24,4
-239,-312,-73,275,-82,-192,-43,-29,-19,-34,-24,0
-239,-302,-63,270,-87,-183,-43,-34,-19,-24,-14,9
-244,-307,-63,275,-90,-185,-43,-34,-19,-24,-14,9
-244,-307,-63,275,-90,-185,-43,-34,-19,-24,-24,9
-244,-307,-63,275,-90,-185,-43,-34,-19,-24,-24,9
-239,-312,-73,275,-82,-192,-43,-39,-29,-29,-19,9
-234,-312,-78,273,-78,-195,-43,-39,-24,-29,-19,9
-224,-312,-87,268,-68,-200,-48,-34,-24,-29,-19,9
-219,-307,-87,263,-65,-197,-53,-34,-24,-29,-19,9
-229,-307,-78,268,-75,-192,-43,-24,-14,-19,-19,9
-229,-307,-78,268,-75,-192,-43,-24,-9,-19,-19,9
-229,-307,-78,268,-75,-192,-43,-24,-9,-19,-19,9
-229,-307,-78,268,-75,-192,-43,-24,-9,-19,-19,9
-219,-302,-82,261,-68,-192,-48,-34,-14,-29,-19,9
-219,-302,-82,261,-68,-192,-48,-29,-14,-24,-14,14
-219,-307,-87,263,-65,-197,-48,-29,-14,-19,-9,14
-219,-307,-87,263,-65,-197,-43,-24,-14,-19,-9,14
-224,-302,-78,263,-73,-190,-53,-24,-14,-29,-19,9
-224,-302,-78,263,-73,-190,-53,-24,-14,-29,-19,9
-224,-302,-78,263,-73,-190,-53,-24,-14,-29,-19,9
-234,-302,-68,268,-82,-185,-53,-24,-14,-29,-19,9
-224,-302,-78,263,-73,-190,-43,-24,-14,-29,-19,19
-219,-302,-82,261,-68,-192,-43,-29,-9,-29,-19,19
-219,-302,-82,261,-68,-192,-39,-29,-9,-29,-19,19
-219,-297,-78,258,-70,-187,-39,-29,-9,-29,-19,19
-209,-287,-78,248,-65,-183,-48,-24,-19,-29,-9,19
-209,-278,-68,244,-70,-173,-48,-24,-19,-29,-9,14
-214,-278,-63,246,-75,-170,-48,-24,-19,-29,-14,14
-214,-283,-68,248,-73,-175,-48,-24,-19,-29,-14,19
-214,-283,-68,248,-73,-175,-39,-24,-9,-19,-9,19
-214,-283,-68,248,-73,-175,-39,-24,-9,-19,-9,19
-219,-283,-63,251,-78,-173,-39,-24,-9,-19,-9,19
-219,-283,-63,251,-78,-173,-34,-24,-9,-19,-9,19
-214,-278,-63,246,-75,-170,-43,-24,-9,-19,-9,9
-214,-278,-63,246,-75,-170,-43,-24,-9,-19,-9,14
-214,-278,-63,246,-75,-170,-43,-24,-9,-19,-9,14
-214,-278,-63,246,-75,-170,-43,-19,-9,-19,-9,9
-214,-283,-68,248,-73,-175,-43,-19,-4,-19,-9,19
-214,-283,-68,248,-73,-175,-43,-19,-4,-19,-9,19
-214,-283,-68,248,-73,-175,-43,-19,-4,-14,-4,19
-214,-283,-68,248,-73,-175,-43,-19,-4,-14,-4,24
-214,-273,-58,244,-78,-165,-43,-19,-4,-24,-4,14
-214,-268,-53,241,-80,-161,-43,-19,-4,-24,-4,14
-214,-268,-53,241,-80,-161,-43,-19,-4,-24,-9,14
-214,-268,-53,241,-80,-161,-43,-19,-4,-29,-9,14
-204,-258,-53,231,-75,-156,-43,-19,-14,-19,-9,19
-200,-287,-87,244,-56,-187,-43,-19,-4,-9,-9,19
-200,-283,-82,241,-58,-183,-43,-19,-4,-24,-14,19
-209,-263,-53,236,-78,-158,-58,-19,-9,-24,-9,14
-200,-248,-48,224,-75,-148,-58,-9,4,-9,4,24
-175,-253,-78,214,-48,-165,-58,24,29,9,14,43
-165,-248,-82,207,-41,-165,-82,68,58,24,29,43
-175,-234,-58,204,-58,-146,-107,136,87,48,43,53
-156,-234,-78,195,-39,-156,-112,229,131,82,58,63
-126,-229,-102,178,-12,-165,-122,366,185,126,87,82
-112,-219,-107,165,-2,-163,-141,507,244,161,107,97
-107,-204,-97,156,-4,-151,-141,629,297,190,126,112
-102,-185,-82,143,-9,-134,-146,697,366,229,165,126
-73,-175,-102,124,14,-139,-151,712,405,268,204,151
-63,-165,-102,114,19,-134,-175,619,390,268,209,151
-87,-175,-87,131,0,-131,-190,434,317,224,165,126
-87,-180,-92,134,2,-136,-219,175,214,161,126,117
-73,-161,-87,117,7,-124,-292,-141,102,117,107,112
-73,-117,-43,95,-14,-80,-366,-468,19,92,92,117
-87,-63,24,75,-56,-19,-405,-717,14,102,117,146
-87,4,92,41,-90,48,-380,-844,48,156,185,209
-87,97,185,-4,-136,141,-331,-941,107,229,248,287
-68,190,258,-61,-163,224,-312,-1058,161,292,326,366
-43,297,341,-126,-192,319,-356,-1200,195,375,414,448
-19,405,424,-192,-222,414,-366,-1366,204,444,488,541
14,502,488,-258,-236,495,-336,-1537,185,488,556,610
82,585,502,-334,-209,544,-346,-1712,156,527,610,673
151,688,536,-419,-192,612,-346,-1878,136,575,688,732
185,746,561,-466,-187,653,-292,-2005,102,600,736,780
209,688,478,-448,-134,583,-331,-2098,14,556,712,771
283,522,239,-402,21,380,-575,-2171,-102,468,668,727
331,322,-9,-326,170,156,-893,-2210,-239,361,605,663
302,156,-146,-229,224,4,-1093,-2196,-351,283,541,590
253,43,-209,-148,231,-82,-1161,-2132,-439,204,478,536
204,34,-170,-119,187,-68,-1195,-2054,-478,165,458,522
141,63,-78,-102,109,-7,-1190,-1912,-468,161,463,536
68,63,-4,-65,36,29,-1083,-1751,-502,102,405,507
0,53,53,-26,-26,53,-922,-1551,-527,14,307,434
-63,43,107,9,-85,75,-766,-1288,-473,-39,229,366
-136,4,141,65,-139,73,-600,-1005,-400,-58,165,297
-209,-43,165,126,-187,61,-463,-790,-331,-78,107,234
-229,-92,136,161,-183,21,-370,-644,-297,-92,43,151
-209,-146,63,178,-136,-41,-302,-541,-283,-112,-19,87
-204,-195,9,200,-107,-92,-258,-463,-263,-136,-58,29
-214,-234,-19,224,-97,-126,-224,-370,-229,-146,-92,-9
-219,-268,-48,244,-85,-158,-209,-302,-195,-151,-102,-24
-209,-268,-58,239,-75,-163,-190,-244,-165,-146,-102,-34
-209,-273,-63,241,-73,-168,-161,-185,-146,-141,-97,-34
-234,-273,-39,253,-97,-156,-107,-117,-112,-117,-92,-29
-244,-263,-19,253,-112,-141,-58,-73,-82,-87,-68,-19
-224,-253,-29,239,-97,-141,-24,-39,-53,-68,-58,-9
-214,-253,-39,234,-87,-146,-19,-19,-48,-58,-63,-19
-224,-268,-43,246,-90,-156,-29,-9,-39,-63,-63,-34
-234,-273,-39,253,-97,-156,-39,4,-29,-73,-73,-39
-234,-273,-39,253,-97,-156,-39,14,-34,-73,-73,-39
-234,-268,-34,251,-100,-151,-34,34,-34,-73,-73,-39
-234,-258,-24,246,-104,-141,-29,43,-34,-73,-68,-34
-234,-268,-34,251,-100,-151,-14,53,-34,-68,-68,-24
-234,-278,-43,256,-95,-161,-4,68,-29,-63,-68,-24
-234,-278,-43,256,-95,-161,4,78,-24,-63,-68,-29
-234,-278,-43,256,-95,-161,9,78,-19,-63,-68,-34
-224,-283,-58,253,-82,-170,0,87,-9,-63,-68,-34
-224,-283,-58,253,-82,-170,0,92,-9,-63,-78,-34
-224,-283,-58,253,-82,-170,0,97,-9,-63,-68,-34
-219,-283,-63,251,-78,-173,0,102,-9,-63,-68,-29
-224,-273,-48,248,-87,-161,0,102,-19,-63,-68,-29
-229,-273,-43,251,-92,-158,9,107,-9,-63,-68,-29
-234,-273,-39,253,-97,-156,9,112,-9,-63,-68,-34
-239,-287,-48,263,-95,-168,9,112,-9,-63,-68,-34
-234,-287,-53,261,-90,-170,0,122,-9,-63,-73,-48
-229,-287,-58,258,-85,-173,0,122,-9,-63,-73,-48
-224,-287,-63,256,-80,-175,-4,131,-9,-63,-73,-48
-219,-287,-68,253,-75,-178,-4,136,-9,-63,-73,-43
-214,-283,-68,248,-73,-175,9,141,0,-63,-73,-34
-214,-283,-68,248,-73,-175,14,146,0,-63,-68,-34
-219,-283,-63,251,-78,-173,14,151,0,-63,-68,-34
-219,-283,-63,251,-78,-173,14,156,0,-63,-68,-34
-214,-283,-68,248,-73,-175,14,156,4,-63,-78,-48
-214,-292,-78,253,-68,-185,19,161,4,-63,-78,-48
-214,-292,-78,253,-68,-185,19,165,4,-63,-78,-48
-214,-292,-78,253,-68,-185,19,170,4,-63,-82,-48
-224,-287,-63,256,-80,-175,19,175,4,-63,-82,-48
-224,-292,-68,258,-78,-180,24,180,4,-63,-82,-48
-224,-292,-68,258,-78,-180,24,185,4,-63,-87,-48
-224,-287,-63,256,-80,-175,24,190,9,-63,-87,-53
-219,-287,-68,253,-75,-178,39,204,9,-63,-87,-53
-214,-278,-63,246,-75,-170,39,209,9,-68,-92,-53
-219,-307,-87,263,-65,-197,34,209,9,-68,-92,-53
-214,-307,-92,261,-61,-200,34,214,9,-68,-92,-58
-209,-292,-82,251,-63,-187,24,209,9,-68,-82,-58
-209,-292,-82,251,-63,-187,34,219,9,-73,-82,-63
-214,-287,-73,251,-70,-180,34,224,9,-73,-82,-63
-214,-287,-73,251,-70,-180,34,229,9,-73,-82,-63
-204,-287,-82,246,-61,-185,43,244,9,-73,-97,-63
-204,-287,-82,246,-61,-185,48,248,9,-73,-97,-68
-204,-292,-87,248,-58,-190,48,258,14,-73,-97,-68
-204,-297,-92,251,-56,-195,58,268,14,-73,-97,-68
-209,-297,-87,253,-61,-192,63,273,14,-73,-102,-68
-209,-297,-87,253,-61,-192,68,278,14,-73,-102,-73
-209,-297,-87,253,-61,-192,68,283,19,-73,-102,-73
-209,-297,-87,253,-61,-192,78,297,19,-78,-102,-73
-209,-292,-82,251,-63,-187,78,297,19,-78,-102,-73
-209,-302,-92,256,-58,-197,82,297,19,-78,-107,-73
-214,-307,-92,261,-61,-200,92,307,19,-78,-107,-73
-214,-307,-92,261,-61,-200,97,322,24,-78,-102,-78
-214,-307,-92,261,-61,-200,102,346,24,-78,-102,-78
-209,-307,-97,258,-56,-202,107,356,29,-78,-97,-78
-209,-307,-97,258,-56,-202,117,361,29,-78,-97,-78
-219,-317,-97,268,-61,-207,126,366,29,-78,-102,-82
-209,-307,-97,258,-56,-202,131,375,19,-87,-117,-82
-204,-307,-102,256,-51,-204,141,385,19,-87,-122,-82
-204,-307,-102,256,-51,-204,146,395,29,-87,-122,-87
-214,-312,-97,263,-58,-204,151,405,29,-87,-122,-87
-224,-312,-87,268,-68,-200,161,405,24,-87,-117,-102
-219,-312,-92,265,-63,-202,170,414,24,-87,-117,-102
-219,-317,-97,268,-61,-207,175,424,24,-87,-117,-102
-219,-322,-102,270,-58,-212,180,429,24,-92,-122,-102
-219,-312,-92,265,-63,-202,190,444,24,-92,-122,-92
-219,-312,-92,265,-63,-202,200,448,24,-87,-117,-92
-219,-312,-92,265,-63,-202,204,453,24,-87,-117,-102
-229,-312,-82,270,-73,-197,209,458,29,-92,-117,-102
-229,-312,-82,270,-73,-197,209,458,29,-87,-117,-107
-229,-312,-82,270,-73,-197,214,458,29,-87,-117,-107
-229,-312,-82,270,-73,-197,219,458,19,-87,-122,-112
-239,-317,-78,278,-80,-197,219,458,14,-92,-126,-117
-248,-317,-68,283,-90,-192,224,468,14,-102,-131,-107
-239,-317,-78,278,-80,-197,229,468,14,-107,-131,-107
-229,-317,-87,273,-70,-202,229,468,14,-107,-131,-107
-229,-322,-92,275,-68,-207,234,458,14,-107,-131,-107
-239,-312,-73,275,-82,-192,234,458,9,-97,-131,-102
-239,-312,-73,275,-82,-192,229,458,9,-97,-131,-102
-239,-307,-68,273,-85,-187,229,458,9,-97,-122,-102
-239,-307,-68,273,-85,-187,229,448,9,-92,-122,-102
-239,-312,-73,275,-82,-192,229,439,9,-92,-122,-92
-239,-307,-68,273,-85,-187,224,434,9,-92,-122,-87
-234,-307,-73,270,-80,-190,219,429,9,-92,-122,-87
-234,-307,-73,270,-80,-190,209,419,9,-92,-122,-82
-244,-292,-48,268,-97,-170,204,409,9,-92,-117,-92
-244,-292,-48,268,-97,-170,204,409,9,-92,-117,-82
-244,-292,-48,268,-97,-170,204,400,9,-82,-107,-78
-244,-278,-34,261,-104,-156,200,390,4,-82,-107,-78
-244,-283,-39,263,-102,-161,180,380,0,-82,-97,-78
-244,-278,-34,261,-104,-156,175,366,0,-73,-92,-68
-234,-273,-39,253,-97,-156,170,356,4,-73,-87,-68
-234,-263,-29,248,-102,-146,156,336,4,-73,-82,-63
-234,-248,-14,241,-109,-131,136,312,4,-78,-78,-58
-234,-244,-9,239,-112,-126,126,297,4,-68,-78,-53
-234,-234,0,234,-117,-117,117,287,4,-63,-73,-48
-234,-229,4,231,-119,-112,107,273,4,-63,-68,-43
-234,-234,0,234,-117,-117,87,248,4,-48,-48,-29
-234,-219,14,226,-124,-102,73,229,4,-43,-43,-19
-234,-219,14,226,-124,-102,63,214,9,-39,-34,-9
-229,-209,19,219,-124,-95,53,200,9,-34,-29,-4
-224,-209,14,217,-119,-97,39,175,0,-34,-29,0
-224,-209,14,217,-119,-97,29,161,0,-29,-29,4
-219,-209,9,214,-114,-100,19,151,0,-24,-24,9
-219,-204,14,212,-117,-95,9,136,4,-19,-19,14
-214,-185,29,200,-122,-78,0,117,4,-19,-24,19
-214,-185,29,200,-122,-78,-9,102,4,-9,-24,24
-204,-185,19,195,-112,-82,-19,87,0,-9,-19,29
-195,-185,9,190,-102,-87,-29,78,0,-9,-14,29
-195,-170,24,183,-109,-73,-43,63,4,-9,-4,29
-195,-170,24,183,-109,-73,-53,58,4,-14,-4,29
-190,-165,24,178,-107,-70,-53,48,4,-14,0,39
-185,-165,19,175,-102,-73,-58,43,9,-4,0,39
-195,-175,19,185,-107,-78,-63,48,0,4,9,48
-195,-165,29,180,-112,-68,-73,34,0,4,9,48
-195,-161,34,178,-114,-63,-73,29,0,4,9,48
-185,-161,24,173,-104,-68,-78,29,0,4,14,48
-175,-170,4,173,-90,-82,-82,24,9,4,14,53
-175,-175,0,175,-87,-87,-82,19,9,4,14,53
-175,-175,0,175,-87,-87,-87,14,9,9,14,53
-175,-170,4,173,-90,-82,-92,4,0,9,19,53
-185,-170,14,178,-100,-78,-87,0,0,9,19,53
-180,-165,14,173,-97,-75,-92,0,0,9,14,53
-180,-170,9,175,-95,-80,-92,0,0,9,14,53
-180,-165,14,173,-97,-75,-87,0,0,9,14,58
-156,-175,-19,165,-68,-97,-87,0,0,4,9,48
-170,-170,0,170,-85,-85,-92,-4,0,4,14,48
-170,-170,0,170,-85,-85,-92,-14,0,0,14,48
-165,-165,0,165,-82,-82,-92,-14,0,0,9,48
-170,-175,-4,173,-82,-90,-82,0,4,14,19,48
-175,-175,0,175,-87,-87,-82,0,4,14,24,48
-180,-175,4,178,-92,-85,-82,0,4,14,24,48
-185,-175,9,180,-97,-82,-82,0,4,14,24,53
-175,-175,0,175,-87,-87,-82,0,4,14,24,53
-185,-175,9,180,-97,-82,-87,0,4,14,19,53
-185,-170,14,178,-100,-78,-87,0,4,14,19,53
-180,-165,14,173,-97,-75,-82,0,4,14,19,53
-175,-175,0,175,-87,-87,-82,0,4,4,19,48
-175,-165,9,170,-92,-78,-82,0,4,0,19,48
-185,-151,34,168,-109,-58,-78,0,4,0,19,43
-185,-161,24,173,-104,-68,-78,0,4,0,19,43
-185,-175,9,180,-97,-82,-63,-9,4,9,19,43
-185,-161,24,173,-104,-68,-58,-4,4,9,14,48
-185,-156,29,170,-107,-63,-58,-4,4,9,9,48
-185,-161,24,173,-104,-68,-53,-4,4,9,0,48
-180,-156,24,168,-102,-65,-63,-4,4,0,9,39
-180,-175,4,178,-92,-85,-63,-4,4,0,9,39
-200,-195,4,197,-102,-95,-63,-4,4,0,9,39
-200,-190,9,195,-104,-90,-58,-4,4,0,9,39
-195,-185,9,190,-102,-87,-53,0,4,0,9,39
-195,-180,14,187,-104,-82,-53,0,4,0,9,39
-195,-175,19,185,-107,-78,-53,0,4,0,9,39
-190,-165,24,178,-107,-70,-43,0,4,0,4,34
-185,-165,19,175,-102,-73,-53,0,4,-9,-4,34
-185,-170,14,178,-100,-78,-53,0,4,-9,-4,34
-190,-175,14,183,-102,-80,-53,0,4,-9,-4,34
-200,-170,29,185,-114,-70,-53,4,4,-9,-9,34
-200,-170,29,185,-114,-70,-39,4,4,-14,-9,29
-195,-170,24,183,-109,-73,-39,9,4,-14,-9,29
-195,-170,24,183,-109,-73,-34,9,4,-14,-9,29
-195,-175,19,185,-107,-78,-34,9,4,-14,-9,24
-195,-185,9,190,-102,-87,-43,4,4,-14,-9,24
-195,-175,19,185,-107,-78,-34,4,4,-14,-9,24
-195,-175,19,185,-107,-78,-34,9,0,-14,-14,19
-209,-175,34,192,-122,-70,-34,9,0,-19,-14,19
-209,-185,24,197,-117,-80,-39,9,0,-29,-14,24
-200,-180,19,190,-109,-80,-39,14,4,-24,-14,19
-200,-175,24,187,-112,-75,-39,14,4,-24,-14,14
-200,-175,24,187,-112,-75,-34,14,4,-29,-14,9
-200,-175,24,187,-112,-75,-34,19,4,-29,-14,9
-200,-175,24,187,-112,-75,-29,19,0,-24,-14,9
-204,-175,29,190,-117,-73,-29,24,-4,-24,-9,9
-209,-170,39,190,-124,-65,-29,24,-9,-24,-9,9
-209,-165,43,187,-126,-61,-29,14,0,-24,-24,19
-200,-170,29,185,-114,-70,-29,19,0,-24,-24,19
-200,-175,24,187,-112,-75,-34,19,0,-24,-24,19
-204,-180,24,192,-114,-78,-39,19,0,-24,-24,19
-204,-175,29,190,-117,-73,-43,19,-4,-34,-29,9
-200,-185,14,192,-107,-85,-43,19,-4,-34,-29,9
-190,-185,4,187,-97,-90,-39,19,-9,-29,-29,9
-200,-175,24,187,-112,-75,-39,19,-9,-29,-29,14
-209,-185,24,197,-117,-80,-48,19,-4,-29,-29,14
-200,-185,14,192,-107,-85,-53,14,-4,-34,-29,14
-190,-180,9,185,-100,-85,-58,14,-9,-34,-24,14
-200,-180,19,190,-109,-80,-58,9,-9,-34,-24,14
-200,-180,19,190,-109,-80,-48,9,-9,-34,-19,24
-200,-185,14,192,-107,-85,-63,9,-9,-29,-19,19
-204,-185,19,195,-112,-82,-53,9,-9,-29,-24,9
-204,-180,24,192,-114,-78,-53,9,-4,-29,-24,9
-200,-180,19,190,-109,-80,-48,0,-14,-39,-24,14
-200,-190,9,195,-104,-90,-48,0,-14,-34,-24,14
-190,-180,9,185,-100,-85,-53,0,-14,-34,-24,9
-185,-165,19,175,-102,-73,-58,0,-9,-29,-24,4
-195,-165,29,180,-112,-68,-58,0,0,-29,-14,19
-190,-165,24,178,-107,-70,-58,0,-4,-29,-14,19
-185,-161,24,173,-104,-68,-58,4,-9,-29,-9,24
-185,-165,19,175,-102,-73,-58,9,-9,-29,-9,24
-200,-165,34,183,-117,-65,-53,9,4,-14,-4,29
-209,-156,53,183,-131,-51,-53,14,9,-14,0,29
-200,-146,53,173,-126,-46,-53,9,9,-14,4,34
-190,-136,53,163,-122,-41,-58,14,14,-9,9,29
-190,-131,58,161,-124,-36,-43,14,19,0,9,39
-190,-122,68,156,-129,-26,-43,9,19,0,9,39
-185,-117,68,151,-126,-24,-43,9,19,0,9,43
-180,-112,68,146,-124,-21,-43,9,24,0,9,43
-180,-112,68,146,-124,-21,-43,14,24,4,9,43
-180,-117,63,148,-122,-26,-34,19,24,4,9,48
-180,-117,63,148,-122,-26,-24,14,24,4,9,48
-170,-117,53,143,-112,-31,-29,14,24,4,14,48
-165,-122,43,143,-104,-39,-53,24,29,4,24,48
-165,-122,43,143,-104,-39,-58,24,29,4,19,48
-165,-122,43,143,-104,-39,-58,29,29,9,19,48
-161,-126,34,143,-97,-46,-58,29,29,9,19,48
-161,-131,29,146,-95,-51,-82,4,14,4,9,39
-165,-136,29,151,-97,-53,-92,4,14,0,9,39
-165,-136,29,151,-97,-53,-97,0,14,-9,9,39
-165,-136,29,151,-97,-53,-107,-4,4,-9,4,39
-175,-156,19,165,-97,-68,-136,-29,-14,-24,-4,29
-185,-170,14,178,-100,-78,-136,-43,-14,-24,-14,29
-175,-165,9,170,-92,-78,-136,-48,-19,-19,-19,19
-175,-165,9,170,-92,-78,-141,-53,-29,-24,-19,9
-175,-165,9,170,-92,-78,-146,-58,-29,-29,-19,9
-175,-165,9,170,-92,-78,-151,-63,-29,-34,-19,9
-175,-165,9,170,-92,-78,-156,-68,-29,-39,-19,9
-175,-165,9,170,-92,-78,-170,-82,-43,-43,-29,9
-170,-170,0,170,-85,-85,-180,-87,-48,-43,-29,9
-170,-170,0,170,-85,-85,-185,-87,-48,-43,-29,9
-161,-175,-14,168,-73,-95,-185,-87,-48,-43,-29,9
-161,-195,-34,178,-63,-114,-185,-87,-53,-43,-29,4
-161,-200,-39,180,-61,-119,-195,-87,-53,-43,-29,4
-156,-200,-43,178,-56,-122,-195,-87,-53,-43,-29,9
-156,-200,-43,178,-56,-122,-195,-87,-48,-39,-29,9
-146,-204,-58,175,-43,-131,-195,-82,-43,-39,-24,19
-151,-204,-53,178,-48,-129,-190,-82,-43,-39,-24,24
-151,-195,-43,173,-53,-119,-180,-82,-43,-34,-24,24
-151,-195,-43,173,-53,-119,-180,-82,-43,-34,-19,24
-161,-200,-39,180,-61,-119,-170,-82,-43,-34,-9,19
-156,-195,-39,175,-58,-117,-170,-82,-43,-34,-9,19
-156,-195,-39,175,-58,-117,-170,-82,-43,-34,-9,24
-156,-190,-34,173,-61,-112,-170,-82,-43,-34,-9,24
-151,-204,-53,178,-48,-129,-175,-82,-43,-43,-19,14
-146,-204,-58,175,-43,-131,-175,-82,-43,-43,-19,14
-146,-204,-58,175,-43,-131,-180,-82,-43,-43,-19,14
-146,-200,-53,173,-46,-126,-180,-82,-43,-43,-19,14
-141,-200,-58,170,-41,-129,-190,-82,-43,-34,-19,14
-146,-200,-53,173,-46,-126,-190,-87,-43,-39,-19,9
-151,-200,-48,175,-51,-124,-190,-87,-43,-39,-24,9
-156,-195,-39,175,-58,-117,-180,-87,-48,-39,-24,9
-161,-195,-34,178,-63,-114,-175,-87,-48,-39,-24,19
-165,-200,-34,183,-65,-117,-170,-87,-48,-39,-24,19
-180,-204,-24,192,-78,-114,-165,-87,-48,-43,-24,14
-180,-204,-24,192,-78,-114,-161,-87,-48,-43,-24,9
-190,-214,-24,202,-82,-119,-156,-82,-48,-43,-24,9
-195,-219,-24,207,-85,-122,-151,-82,-48,-43,-24,9
-195,-219,-24,207,-85,-122,-146,-82,-48,-43,-34,9
-195,-219,-24,207,-85,-122,-141,-82,-48,-43,-34,9
-204,-224,-19,214,-92,-122,-136,-68,-39,-39,-19,0
-204,-224,-19,214,-92,-122,-131,-68,-34,-39,-19,0
-200,-224,-24,212,-87,-124,-131,-63,-34,-39,-19,0
-200,-219,-19,209,-90,-119,-131,-63,-34,-39,-19,0
-190,-219,-29,204,-80,-124,-141,-73,-43,-39,-19,9
-190,-219,-29,204,-80,-124,-141,-73,-39,-39,-19,9
-190,-219,-29,204,-80,-124,-141,-73,-39,-39,-19,9
-190,-219,-29,204,-80,-124,-141,-73,-39,-39,-19,9
-200,-214,-14,207,-92,-114,-126,-63,-34,-39,-19,9
-200,-214,-14,207,-92,-114,-126,-58,-34,-34,-14,14
-200,-219,-19,209,-90,-119,-126,-58,-34,-29,-9,14
-200,-219,-19,209,-90,-119,-122,-53,-34,-29,-9,14
-195,-224,-29,209,-82,-126,-122,-53,-24,-39,-9,19
-195,-224,-29,209,-82,-126,-122,-53,-24,-39,-9,19
-195,-224,-29,209,-82,-126,-122,-53,-24,-39,-9,19
-204,-224,-19,214,-92,-122,-122,-53,-24,-39,-9,19
-204,-214,-9,209,-97,-112,-122,-53,-34,-29,-19,9
-200,-214,-14,207,-92,-114,-122,-58,-29,-29,-19,9
-200,-214,-14,207,-92,-114,-117,-58,-29,-29,-19,9
-200,-209,-9,204,-95,-109,-117,-58,-29,-29,-19,9
-190,-219,-29,204,-80,-124,-117,-53,-29,-39,-9,19
-190,-209,-19,200,-85,-114,-117,-53,-29,-39,-9,14
-195,-209,-14,202,-90,-112,-117,-53,-29,-39,-14,14
-195,-214,-19,204,-87,-117,-117,-53,-29,-39,-14,19
-195,-214,-19,204,-87,-117,-117,-53,-29,-29,-19,19
-195,-214,-19,204,-87,-117,-117,-53,-29,-29,-19,19
-200,-214,-14,207,-92,-114,-117,-53,-29,-29,-19,19
-200,-214,-14,207,-92,-114,-112,-53,-29,-29,-19,19
-204,-209,-4,207,-100,-107,-112,-63,-29,-29,-19,19
-204,-209,-4,207,-100,-107,-112,-63,-29,-29,-19,24
-204,-209,-4,207,-100,-107,-112,-63,-29,-29,-19,24
-204,-209,-4,207,-100,-107,-112,-58,-29,-29,-19,19
-204,-204,0,204,-102,-102,-112,-48,-24,-29,-19,19
-204,-204,0,204,-102,-102,-112,-48,-24,-29,-19,19
-204,-204,0,204,-102,-102,-112,-48,-24,-24,-14,19
-204,-204,0,204,-102,-102,-112,-48,-24,-24,-14,24
-195,-204,-9,200,-92,-107,-112,-48,-24,-24,-14,24
-195,-200,-4,197,-95,-102,-112,-48,-24,-24,-14,24
-195,-200,-4,197,-95,-102,-112,-48,-24,-24,-19,24
-195,-200,-4,197,-95,-102,-112,-48,-24,-29,-19,24
-185,-200,-14,192,-85,-107,-112,-58,-24,-29,-19,19
-209,-209,0,209,-104,-104,-102,-48,-24,-19,-9,19
-209,-204,4,207,-107,-100,-102,-48,-14,-14,-4,29
-190,-204,-14,197,-87,-109,-107,-39,-9,-14,0,24
-190,-209,-19,200,-85,-114,-117,-29,-4,-9,4,34
-185,-204,-19,195,-82,-112,-136,4,19,9,14,43
-165,-190,-24,178,-70,-107,-161,58,58,24,29,53
-136,-175,-39,156,-48,-107,-165,146,97,58,43,63
-126,-175,-48,151,-39,-112,-180,258,141,82,58,63
-126,-170,-43,148,-41,-107,-190,385,195,117,87,73
-112,-161,-48,136,-31,-104,-190,517,253,151,117,87
-87,-146,-58,117,-14,-102,-180,610,307,190,136,112
-82,-136,-53,109,-14,-95,-185,639,346,229,165,136
-73,-126,-53,100,-9,-90,-209,575,346,239,175,151
-73,-126,-53,100,-9,-90,-234,434,292,200,151,141
-68,-136,-68,102,0,-102,-258,219,200,136,107,107
-58,-141,-82,100,12,-112,-307,-48,97,82,78,87
-63,-112,-48,87,-7,-80,-380,-366,4,48,78,92
-82,-68,14,75,-48,-26,-444,-644,-29,43,82,117
-68,4,73,31,-70,39,-453,-805,-14,82,126,156
-58,82,141,-12,-100,112,-400,-902,39,165,204,239
-58,165,224,-53,-141,195,-351,-971,107,258,278,336
-39,258,297,-109,-168,278,-370,-1078,170,331,366,424
14,395,380,-204,-183,387,-424,-1200,214,414,463,517
78,512,434,-295,-178,473,-395,-1337,234,483,546,600
122,580,458,-351,-168,519,-375,-1498,214,527,605,649
180,673,492,-427,-156,583,-424,-1644,214,575,678,722
239,756,517,-497,-139,636,-395,-1771,204,624,756,780
283,756,473,-519,-95,614,-341,-1908,141,610,766,800
326,639,312,-483,7,475,-448,-2020,14,536,712,771
370,444,73,-407,148,258,-761,-2103,-141,429,629,697
390,253,-136,-322,263,58,-1049,-2122,-268,331,556,624
361,117,-244,-239,302,-63,-1171,-2078,-361,234,492,541
292,63,-229,-178,261,-82,-1200,-2025,-458,146,439,497
204,82,-122,-143,163,-19,-1215,-1956,-488,117,429,492
122,92,-29,-107,75,31,-1180,-1834,-497,92,414,488
48,82,34,-65,7,58,-1044,-1673,-531,24,336,448
-39,82,122,-21,-80,102,-883,-1454,-497,-24,258,395
-112,63,175,24,-143,119,-717,-1171,-424,-39,190,336
-165,34,200,65,-183,117,-561,-897,-341,-48,136,278
-200,-24,175,112,-187,75,-444,-702,-283,-58,78,195
-200,-82,117,141,-158,17,-370,-585,-268,-92,14,122
-200,-136,63,168,-131,-36,-331,-522,-253,-122,-29,48
-214,-185,29,200,-122,-78,-278,-424,-214,-136,-58,9
-214,-224,-9,219,-102,-117,-244,-341,-180,-136,-73,-9
-209,-229,-19,219,-95,-124,-229,-292,-165,-122,-82,-4
-219,-229,-9,224,-104,-119,-209,-224,-156,-117,-82,-4
-229,-234,-4,231,-112,-119,-161,-156,-126,-112,-78,-4
-224,-214,9,219,-117,-102,-117,-97,-92,-87,-63,0
-214,-204,9,209,-112,-97,-78,-63,-63,-68,-48,9
-224,-214,9,219,-117,-102,-53,-48,-43,-58,-48,0
-234,-234,0,234,-117,-117,-48,-39,-29,-58,-43,-19
-224,-248,-24,236,-100,-136,-58,-19,-29,-53,-43,-24
-229,-253,-24,241,-102,-139,-68,-14,-29,-63,-63,-19
-234,-253,-19,244,-107,-136,-68,-4,-34,-63,-63,-19
-239,-248,-9,244,-114,-129,-63,14,-34,-63,-63,-19
-244,-239,4,241,-124,-117,-58,24,-34,-63,-58,-14
-239,-239,0,239,-119,-119,-39,34,-24,-58,-58,-14
-234,-248,-14,241,-109,-131,-34,48,-19,-53,-58,-14
-229,-248,-19,239,-104,-134,-29,58,-14,-53,-58,-19
-224,-248,-24,236,-100,-136,-29,58,-9,-53,-58,-24
-234,-253,-19,244,-107,-136,-39,58,-9,-53,-68,-34
-234,-253,-19,244,-107,-136,-39,63,-9,-53,-78,-34
-234,-253,-19,244,-107,-136,-39,68,-9,-53,-68,-34
-229,-253,-24,241,-102,-139,-39,73,-9,-53,-68,-29
-239,-244,-4,241,-117,-124,-39,73,-9,-53,-68,-29
-239,-244,-4,241,-117,-124,-29,78,0,-53,-68,-29
-239,-244,-4,241,-117,-124,-29,82,0,-53,-68,-34
-239,-258,-19,248,-109,-139,-29,82,0,-53,-68,-34
-229,-258,-29,244,-100,-143,-19,92,0,-53,-63,-39
-229,-258,-29,244,-100,-143,-19,92,0,-53,-63,-39
-229,-258,-29,244,-100,-143,-24,102,0,-53,-63,-39
-229,-258,-29,244,-100,-143,-24,107,0,-53,-63,-34
-234,-258,-24,246,-104,-141,-29,112,0,-53,-63,-34
-234,-263,-29,248,-102,-146,-24,117,0,-53,-58,-34
-239,-268,-29,253,-104,-148,-24,122,0,-53,-58,-34
-239,-273,-34,256,-102,-153,-24,126,0,-53,-58,-34
-244,-273,-29,258,-107,-151,-24,126,4,-63,-68,-48
-244,-283,-39,263,-102,-161,-19,131,4,-63,-68,-48
-244,-283,-39,263,-102,-161,-19,136,4,-63,-68,-48
-244,-283,-39,263,-102,-161,-19,141,4,-63,-73,-48
-234,-283,-48,258,-92,-165,-9,146,4,-63,-73,-48
-234,-292,-58,263,-87,-175,-4,151,4,-63,-73,-48
-234,-297,-63,265,-85,-180,-4,156,4,-63,-78,-48
-234,-297,-63,265,-85,-180,-4,161,9,-63,-78,-53
-234,-297,-63,265,-85,-180,0,165,9,-63,-78,-53
-234,-287,-53,261,-90,-170,0,170,9,-68,-82,-53
-244,-317,-73,280,-85,-195,-4,170,9,-68,-82,-53
-244,-317,-73,280,-85,-195,-4,175,9,-68,-82,-58
-239,-307,-68,273,-85,-187,4,180,9,-58,-82,-48
-239,-312,-73,275,-82,-192,14,190,9,-63,-82,-53
-244,-312,-68,278,-87,-190,14,195,9,-63,-82,-53
-244,-317,-73,280,-85,-195,14,200,9,-63,-82,-53
-244,-317,-73,280,-85,-195,14,204,0,-73,-87,-53
-244,-317,-73,280,-85,-195,19,209,0,-73,-87,-58
-244,-322,-78,283,-82,-200,19,219,4,-73,-87,-58
-244,-326,-82,285,-80,-204,29,229,4,-73,-87,-58
-248,-326,-78,287,-85,-202,24,234,4,-73,-102,-68
-248,-326,-78,287,-85,-202,29,239,4,-73,-102,-73
-248,-326,-78,287,-85,-202,29,244,9,-73,-102,-73
-248,-326,-78,287,-85,-202,39,258,9,-78,-102,-73
-239,-341,-102,290,-68,-222,39,258,9,-78,-102,-73
-239,-351,-112,295,-63,-231,43,258,9,-78,-107,-73
-244,-356,-112,300,-65,-234,53,268,9,-78,-107,-73
-244,-356,-112,300,-65,-234,58,283,14,-78,-102,-78
-253,-356,-102,305,-75,-229,73,297,14,-78,-102,-68
-248,-356,-107,302,-70,-231,78,307,19,-78,-97,-68
-248,-356,-107,302,-70,-231,87,312,19,-78,-97,-68
-258,-366,-107,312,-75,-236,97,317,19,-78,-102,-73
-258,-366,-107,312,-75,-236,92,317,9,-78,-97,-82
-253,-366,-112,309,-70,-239,102,326,9,-78,-102,-82
-253,-366,-112,309,-70,-239,107,336,19,-78,-102,-87
-263,-370,-107,317,-78,-239,112,346,19,-78,-102,-87
-263,-370,-107,317,-78,-239,112,346,14,-78,-117,-92
-258,-370,-112,314,-73,-241,122,356,14,-78,-117,-92
-258,-375,-117,317,-70,-246,126,366,14,-78,-117,-92
-258,-380,-122,319,-68,-251,131,370,14,-82,-122,-92
-268,-390,-122,329,-73,-256,131,375,14,-87,-122,-92
-268,-390,-122,329,-73,-256,141,380,14,-87,-117,-92
-268,-390,-122,329,-73,-256,146,385,14,-92,-117,-102
-278,-390,-112,334,-82,-251,151,390,19,-102,-117,-102
-268,-390,-122,329,-73,-256,170,400,19,-102,-117,-87
-268,-390,-122,329,-73,-256,175,400,19,-97,-117,-87
-268,-390,-122,329,-73,-256,180,400,9,-92,-122,-92
-278,-395,-117,336,-80,-256,180,400,4,-92,-126,-97
-297,-395,-97,346,-100,-246,185,400,4,-102,-131,-107
-287,-395,-107,341,-90,-251,190,400,4,-107,-131,-107
-278,-395,-117,336,-80,-256,190,400,4,-107,-131,-107
-278,-400,-122,339,-78,-261,195,390,4,-107,-131,-107
-287,-400,-112,344,-87,-256,195,390,-9,-107,-131,-102
-287,-400,-112,344,-87,-256,190,390,-9,-107,-131,-102
-287,-395,-107,341,-90,-251,190,390,-9,-107,-122,-102
-287,-395,-107,341,-90,-251,190,380,-9,-102,-122,-102
-297,-390,-92,344,-102,-241,190,380,-9,-102,-122,-102
-297,-385,-87,341,-104,-236,185,375,-9,-102,-122,-97
-292,-385,-92,339,-100,-239,180,370,-9,-102,-122,-97
-292,-385,-92,339,-100,-239,170,361,-9,-102,-122,-92
-297,-380,-82,339,-107,-231,175,351,-19,-102,-117,-82
-292,-380,-87,336,-102,-234,175,351,-19,-102,-117,-73
-287,-380,-92,334,-97,-236,175,341,-19,-92,-107,-68
-283,-366,-82,324,-100,-224,170,331,-24,-92,-107,-68
-292,-361,-68,326,-112,-214,151,312,-19,-92,-107,-78
-292,-356,-63,324,-114,-209,146,297,-19,-82,-102,-68
-283,-351,-68,317,-107,-209,141,287,-14,-82,-97,-68
-283,-341,-58,312,-112,-200,126,268,-14,-82,-92,-63
-273,-346,-73,309,-100,-209,117,258,-14,-68,-78,-58
-273,-341,-68,307,-102,-204,107,248,-14,-58,-78,-53
-273,-331,-58,302,-107,-195,97,244,-14,-53,-73,-48
-273,-326,-53,300,-109,-190,87,234,-14,-53,-68,-43
-273,-322,-48,297,-112,-185,68,209,-14,-58,-68,-39
-273,-307,-34,290,-119,-170,53,190,-14,-53,-63,-29
-273,-307,-34,290,-119,-170,43,175,-9,-48,-53,-19
-268,-297,-29,283,-119,-163,34,161,-9,-43,-48,-14
-253,-287,-34,270,-109,-161,29,146,-19,-43,-39,-9
-253,-287,-34,270,-109,-161,19,131,-19,-39,-39,-4
-248,-287,-39,268,-104,-163,9,122,-19,-34,-34,0
-248,-283,-34,265,-107,-158,0,107,-14,-29,-29,4
-253,-273,-19,263,-117,-146,-9,97,-4,-29,-24,9
-253,-273,-19,263,-117,-146,-19,82,-4,-19,-24,14
-244,-273,-29,258,-107,-151,-29,68,-9,-19,-19,19
-234,-273,-39,253,-97,-156,-39,58,-9,-19,-14,19
-244,-268,-24,256,-109,-146,-43,43,-4,-9,-14,29
-244,-268,-24,256,-109,-146,-53,39,-4,-14,-14,29
-239,-263,-24,251,-107,-143,-53,29,-4,-14,-9,39
-234,-263,-29,248,-102,-146,-58,24,0,-4,-9,39
-234,-273,-39,253,-97,-156,-63,19,-9,-4,0,39
-234,-263,-29,248,-102,-146,-73,4,-9,-4,0,39
-234,-258,-24,246,-104,-141,-73,0,-9,-4,0,39
-224,-258,-34,241,-95,-146,-78,0,-9,-4,4,39
-224,-268,-43,246,-90,-156,-82,4,0,4,4,43
-224,-273,-48,248,-87,-161,-82,0,0,4,4,43
-224,-273,-48,248,-87,-161,-87,-4,0,9,4,43
-224,-268,-43,246,-90,-156,-92,-14,-9,9,9,43
-224,-273,-48,248,-87,-161,-97,-19,-9,0,9,43
-219,-263,-43,241,-87,-153,-102,-19,-9,0,4,43
-219,-263,-43,241,-87,-153,-102,-19,-9,0,4,43
-219,-253,-34,236,-92,-143,-97,-19,-9,0,4,48
-204,-268,-63,236,-70,-165,-97,-9,0,14,9,58
-219,-268,-48,244,-85,-158,-102,-14,0,14,14,58
-219,-273,-53,246,-82,-163,-102,-24,0,9,14,58
-214,-273,-58,244,-78,-165,-102,-24,0,9,9,58
-204,-263,-58,234,-73,-161,-102,-19,4,4,9,48
-204,-263,-58,234,-73,-161,-102,-19,4,4,14,48
-204,-263,-58,234,-73,-161,-102,-19,4,4,14,48
-204,-263,-58,234,-73,-161,-102,-19,4,4,14,53
-214,-263,-48,239,-82,-156,-102,-29,-4,14,14,43
-224,-263,-39,244,-92,-151,-107,-29,-4,14,9,43
-224,-258,-34,241,-95,-146,-107,-29,-4,14,9,43
-219,-253,-34,236,-92,-143,-102,-29,-4,14,9,43
-204,-268,-63,236,-70,-165,-102,-29,-4,14,9,39
-204,-263,-58,234,-73,-161,-102,-29,-4,9,9,39
-214,-253,-39,234,-87,-146,-97,-29,-4,9,9,34
-214,-268,-53,241,-80,-161,-97,-29,-4,9,9,34
-214,-283,-68,248,-73,-175,-82,-19,4,19,14,43
-214,-268,-53,241,-80,-161,-78,-14,4,19,14,48
-214,-263,-48,239,-82,-156,-78,-14,4,19,14,48
-214,-268,-53,241,-80,-161,-73,-14,4,19,9,48
-209,-253,-43,231,-82,-148,-73,-14,4,19,9,39
-209,-273,-63,241,-73,-168,-73,-14,4,19,9,39
-229,-292,-63,261,-82,-178,-73,-14,4,19,9,39
-229,-287,-58,258,-85,-173,-68,-14,4,19,9,39
-224,-278,-53,251,-85,-165,-63,-9,4,19,19,48
-224,-278,-53,251,-85,-165,-63,-9,4,19,19,48
-224,-278,-53,251,-85,-165,-63,-9,4,19,19,48
-219,-273,-53,246,-82,-163,-53,-9,4,19,14,43
-214,-268,-53,241,-80,-161,-53,-9,4,14,4,43
-214,-278,-63,246,-75,-170,-53,-9,4,9,4,43
-219,-287,-68,253,-75,-178,-53,-9,4,4,4,43
-229,-287,-58,258,-85,-173,-53,-4,4,0,0,43
-239,-278,-39,258,-100,-158,-48,4,4,0,9,29
-234,-278,-43,256,-95,-161,-48,9,4,4,9,29
-234,-278,-43,256,-95,-161,-43,9,4,9,9,29
-234,-283,-48,258,-92,-165,-43,9,4,14,9,24
-224,-292,-68,258,-78,-180,-43,4,-4,9,0,24
-224,-283,-58,253,-82,-170,-34,4,-4,4,0,24
-224,-283,-58,253,-82,-170,-34,9,-9,0,-4,19
-239,-283,-43,261,-97,-163,-34,9,-9,-9,-4,19
-248,-292,-43,270,-102,-168,-29,9,-9,-9,-14,24
-239,-287,-48,263,-95,-168,-29,14,-4,-4,-14,19
-239,-283,-43,261,-97,-163,-29,14,-4,-4,-14,14
-239,-283,-43,261,-97,-163,-24,14,-4,-9,-14,9
-229,-292,-63,261,-82,-178,-24,19,0,-9,-14,19
-229,-292,-63,261,-82,-178,-19,19,0,-4,-14,19
-234,-292,-58,263,-87,-175,-19,24,0,-4,-9,19
-239,-287,-48,263,-95,-168,-19,24,0,-4,-9,19
-248,-287,-39,268,-104,-163,-24,34,0,-4,-14,9
-239,-287,-48,263,-95,-168,-19,39,0,-4,-14,9
-239,-287,-48,263,-95,-168,-19,39,0,-4,-14,9
-244,-287,-43,265,-100,-165,-19,39,0,-4,-14,9
-234,-283,-48,258,-92,-165,-24,29,4,-4,-9,9
-229,-292,-63,261,-82,-178,-24,29,4,-4,-9,9
-219,-292,-73,256,-73,-183,-19,29,0,0,-9,9
-229,-283,-53,256,-87,-168,-19,29,0,0,-9,14
-234,-287,-53,261,-90,-170,-19,34,4,9,-9,24
-229,-292,-63,261,-82,-178,-24,34,4,4,-9,24
-224,-292,-68,258,-78,-180,-29,39,0,4,-4,24
-239,-297,-58,268,-90,-178,-29,39,0,4,-4,24
-234,-297,-63,265,-85,-180,-19,29,-9,-4,-9,24
-229,-302,-73,265,-78,-187,-34,29,-9,0,-9,19
-229,-302,-73,265,-78,-187,-24,29,-9,0,-14,9
-224,-297,-73,261,-75,-185,-24,29,-4,0,-14,9
-229,-307,-78,268,-75,-192,-29,29,0,0,-4,29
-229,-317,-87,273,-70,-202,-29,29,4,4,-4,34
-219,-307,-87,263,-65,-197,-34,29,9,4,-4,34
-214,-292,-78,253,-68,-185,-39,29,19,9,-4,34
-224,-292,-68,258,-78,-180,-39,24,19,9,-4,24
-219,-292,-73,256,-73,-183,-39,19,14,9,-4,19
-214,-287,-73,251,-70,-180,-39,19,9,9,0,19
-214,-292,-78,253,-68,-185,-39,19,9,9,0,14
-219,-292,-73,256,-73,-183,-34,14,4,0,-4,14
-229,-292,-63,261,-82,-178,-43,14,0,-4,-9,9
-219,-292,-73,256,-73,-183,-53,4,-9,-9,-14,9
-209,-292,-82,251,-63,-187,-68,4,-14,-9,-19,0
-219,-302,-82,261,-68,-192,-53,14,-9,0,-9,14
-219,-297,-78,258,-70,-187,-53,9,-9,0,-9,19
-214,-297,-82,256,-65,-190,-53,9,-9,0,-9,29
-209,-297,-87,253,-61,-192,-53,9,-4,0,-9,34
-219,-297,-78,258,-70,-187,-48,14,0,14,4,34
-219,-302,-82,261,-68,-192,-43,19,4,14,9,39
-219,-302,-82,261,-68,-192,-39,14,9,14,14,39
-209,-302,-92,256,-58,-197,-48,14,14,14,24,39
-214,-283,-68,248,-73,-175,-43,14,19,24,14,39
-214,-268,-53,241,-80,-161,-39,14,19,24,9,39
-214,-253,-39,234,-87,-146,-29,19,19,29,9,39
-209,-244,-34,226,-87,-139,-19,19,19,29,9,39
-209,-239,-29,224,-90,-134,-14,19,19,34,19,39
-214,-244,-29,229,-92,-136,-14,24,24,29,19,39
-214,-244,-29,229,-92,-136,-9,24,29,19,19,39
-214,-244,-29,229,-92,-136,-9,24,24,19,14,39
-209,-244,-34,226,-87,-139,-4,24,29,29,24,43
-214,-248,-34,231,-90,-141,0,24,34,34,24,39
-209,-248,-39,229,-85,-143,0,24,29,39,24,43
-204,-244,-39,224,-82,-141,4,29,34,43,29,53
-200,-253,-53,226,-73,-153,-4,39,43,53,39,53
-195,-253,-58,224,-68,-156,-9,39,43,48,39,48
-190,-253,-63,222,-63,-158,-9,39,43,48,39,48
-180,-253,-73,217,-53,-163,-14,39,48,48,34,48
-190,-253,-63,222,-63,-158,-34,24,34,39,24,39
-190,-268,-78,229,-56,-173,-43,19,24,34,24,39
-190,-268,-78,229,-56,-173,-53,14,19,24,24,39
-180,-268,-87,224,-46,-178,-63,9,14,19,24,39
-200,-278,-78,239,-61,-178,-82,-29,-9,-4,4,19
-190,-292,-102,241,-43,-197,-82,-19,-14,0,14,39
-195,-292,-97,244,-48,-195,-97,-29,-19,0,9,39
-204,-302,-97,253,-53,-200,-107,-29,-9,4,9,39
-204,-302,-97,253,-53,-200,-107,-29,-9,9,9,39
-204,-302,-97,253,-53,-200,-107,-29,-9,14,9,39
-204,-302,-97,253,-53,-200,-107,-29,-9,19,9,39
-195,-307,-112,251,-41,-209,-102,-43,-24,9,0,34
-190,-307,-117,248,-36,-212,-112,-48,-29,4,0,29
-190,-302,-112,246,-39,-207,-117,-48,-29,0,0,24
-180,-302,-122,241,-29,-212,-117,-48,-29,-4,0,19
-190,-317,-126,253,-31,-222,-122,-58,-34,-4,0,14
-190,-326,-136,258,-26,-231,-136,-58,-34,-4,0,14
-185,-331,-146,258,-19,-239,-141,-58,-34,-4,0,19
-185,-336,-151,261,-17,-244,-146,-58,-29,0,0,19
-180,-322,-141,251,-19,-231,-126,-43,-14,0,4,19
-180,-322,-141,251,-19,-231,-122,-43,-14,0,4,24
-175,-312,-136,244,-19,-224,-112,-43,-14,4,4,24
-170,-312,-141,241,-14,-226,-112,-43,-14,4,9,24
-180,-307,-126,244,-26,-217,-112,-43,-24,4,0,19
-175,-302,-126,239,-24,-214,-112,-43,-24,4,0,19
-175,-302,-126,239,-24,-214,-112,-43,-24,4,0,24
-175,-297,-122,236,-26,-209,-112,-43,-24,4,0,24
-170,-307,-136,239,-17,-222,-97,-43,-14,4,9,24
-165,-312,-146,239,-9,-229,-97,-43,-14,4,9,24
-165,-317,-151,241,-7,-234,-102,-43,-14,4,9,24
-165,-317,-151,241,-7,-234,-102,-43,-14,4,9,24
-161,-317,-156,239,-2,-236,-102,-34,-14,4,0,24
-165,-317,-151,241,-7,-234,-102,-39,-14,0,0,19
-170,-317,-146,244,-12,-231,-102,-39,-14,0,-4,19
-175,-312,-136,244,-19,-224,-92,-39,-19,0,-4,19
-180,-322,-141,251,-19,-231,-87,-48,-19,9,4,29
-185,-326,-141,256,-21,-234,-82,-48,-19,9,4,29
-200,-331,-131,265,-34,-231,-78,-48,-19,4,4,24
-200,-331,-131,265,-34,-231,-73,-48,-19,4,4,19
-214,-336,-122,275,-46,-229,-63,-39,-29,-4,-4,19
-224,-346,-122,285,-51,-234,-63,-34,-29,-4,-4,19
-229,-351,-122,290,-53,-236,-63,-29,-29,-4,-14,19
-234,-356,-122,295,-56,-239,-63,-24,-29,-4,-14,19
-224,-346,-122,285,-51,-234,-58,-29,-29,0,-9,9
-224,-341,-117,283,-53,-229,-53,-29,-24,0,-9,9
-219,-336,-117,278,-51,-226,-53,-24,-24,0,-9,9
-219,-326,-107,273,-56,-217,-53,-24,-24,0,-9,9
-219,-336,-117,278,-51,-226,-53,-14,-14,9,0,9
-219,-336,-117,278,-51,-226,-53,-14,-9,9,0,9
-219,-336,-117,278,-51,-226,-53,-14,-9,9,0,9
-219,-336,-117,278,-51,-226,-53,-14,-9,9,0,9
-219,-341,-122,280,-48,-231,-48,-14,4,9,0,9
-219,-341,-122,280,-48,-231,-48,-9,4,14,4,14
-219,-346,-126,283,-46,-236,-48,-9,4,19,9,14
-219,-346,-126,283,-46,-236,-43,-4,4,19,9,14
-214,-341,-126,278,-43,-234,-34,-14,0,9,0,19
-214,-341,-126,278,-43,-234,-34,-14,-4,9,0,19
-214,-341,-126,278,-43,-234,-34,-14,-9,9,0,19
-224,-341,-117,283,-53,-229,-34,-14,-14,9,0,19
-224,-331,-107,278,-58,-219,-34,-4,-4,9,0,9
-219,-331,-112,275,-53,-222,-34,-9,0,9,0,9
-219,-331,-112,275,-53,-222,-29,-9,0,9,0,9
-219,-326,-107,273,-56,-217,-29,-9,0,9,0,9
-209,-336,-126,273,-41,-231,-29,-4,0,9,0,9
-209,-326,-117,268,-46,-222,-29,-4,0,9,0,4
-214,-326,-112,270,-51,-219,-29,-4,0,9,-4,4
-214,-331,-117,273,-48,-224,-29,-4,0,9,-4,9
-214,-331,-117,273,-48,-224,-19,4,0,9,0,9
-214,-331,-117,273,-48,-224,-19,4,0,9,0,9
-219,-331,-112,275,-53,-222,-19,4,0,9,0,9
-219,-331,-112,275,-53,-222,-14,4,0,9,0,9
-204,-326,-122,265,-41,-224,-14,-4,0,19,4,14
-204,-326,-122,265,-41,-224,-14,-4,0,19,9,24
-204,-326,-122,265,-41,-224,-14,-4,0,19,14,29
-204,-326,-122,265,-41,-224,-14,0,0,19,19,29
-214,-312,-97,263,-58,-204,-14,0,4,9,14,24
-214,-312,-97,263,-58,-204,-14,0,4,9,9,19
-214,-312,-97,263,-58,-204,-14,0,4,14,9,14
-214,-312,-97,263,-58,-204,-14,0,4,14,4,14
-204,-312,-107,258,-48,-209,-14,0,4,19,14,14
-204,-307,-102,256,-51,-204,-14,0,4,24,14,14
-204,-307,-102,256,-51,-204,-14,0,4,29,9,14
-204,-307,-102,256,-51,-204,-14,0,4,29,9,14
-214,-317,-102,265,-56,-209,-4,9,14,39,19,19
-200,-317,-117,258,-41,-217,-14,9,4,29,19,19
-190,-312,-122,251,-34,-217,-14,9,4,24,24,29
-200,-322,-122,261,-39,-222,-9,9,19,43,29,24
-200,-317,-117,258,-41,-217,-19,29,24,39,34,34
-185,-312,-126,248,-29,-219,-29,53,29,39,34,34
-165,-297,-131,231,-17,-214,-53,107,58,63,39,34
-156,-312,-156,234,0,-234,-58,185,117,107,63,43
-165,-312,-146,239,-9,-229,-63,287,170,141,87,63
-146,-268,-122,207,-12,-195,-73,405,214,156,107,82
-122,-258,-136,190,7,-197,-92,527,253,180,117,87
-107,-253,-146,180,19,-200,-92,619,307,219,136,102
-102,-244,-141,173,19,-192,-78,649,356,248,165,117
-102,-224,-122,163,9,-173,-82,585,366,258,185,131
-92,-234,-141,163,24,-187,-117,424,312,239,170,122
-87,-244,-156,165,34,-200,-161,200,209,195,136,97
-97,-229,-131,163,17,-180,-200,-48,126,141,117,87
-92,-190,-97,141,2,-143,-253,-346,43,117,117,112
-92,-136,-43,114,-24,-90,-317,-644,9,131,131,146
-97,-73,24,85,-61,-24,-346,-834,24,170,185,195
-87,4,92,41,-90,48,-312,-893,87,244,263,268
-78,87,165,-4,-122,126,-244,-951,165,326,346,356
-48,180,229,-65,-139,204,-224,-1068,229,419,434,444
-4,307,312,-151,-158,309,-258,-1190,283,522,541,536
29,414,385,-222,-178,400,-258,-1327,292,580,614,619
82,492,409,-287,-163,451,-248,-1498,263,614,663,678
161,566,405,-363,-122,485,-248,-1615,263,673,746,751
209,639,429,-424,-109,534,-200,-1712,263,732,824,819
224,658,434,-441,-104,546,-107,-1830,219,717,834,829
258,580,322,-419,-31,451,-87,-1942,102,644,790,810
292,424,131,-358,80,278,-283,-2025,-43,556,746,766
312,234,-78,-273,195,78,-619,-2044,-170,468,673,702
263,68,-195,-165,229,-63,-839,-2010,-292,361,600,610
185,14,-170,-100,178,-78,-917,-1956,-380,273,546,575
117,43,-73,-80,95,-14,-951,-1878,-409,244,536,590
63,34,-29,-48,46,2,-985,-1795,-448,190,483,556
-9,4,14,2,-12,9,-936,-1683,-522,63,366,458
-87,-4,82,46,-85,39,-775,-1483,-507,-14,258,375
-151,-34,117,92,-134,41,-610,-1190,-424,-19,200,317
-185,-82,102,134,-143,9,-473,-888,-331,-9,156,248
-229,-151,78,190,-153,-36,-346,-673,-283,-39,97,165
-239,-219,19,229,-129,-100,-273,-536,-278,-82,14,92
-219,-263,-43,241,-87,-153,-224,-444,-244,-102,-29,48
-214,-292,-78,253,-68,-185,-170,-346,-204,-107,-58,9
-224,-331,-107,278,-58,-219,-126,-283,-180,-126,-73,-29
-219,-346,-126,283,-46,-236,-112,-234,-165,-112,-73,-43
-219,-336,-117,278,-51,-226,-82,-175,-136,-97,-63,-43
-219,-331,-112,275,-53,-222,-34,-97,-97,-63,-48,-34
-234,-331,-97,283,-68,-214,-9,-39,-63,-39,-34,-29
-244,-322,-78,283,-82,-200,9,-4,-34,-19,-19,-9
-234,-322,-87,278,-73,-204,34,29,-14,-9,-19,0
-234,-341,-107,287,-63,-224,58,48,0,-9,-24,-9
-234,-346,-112,290,-61,-229,58,48,0,-24,-34,-24
-234,-351,-117,292,-58,-234,48,43,0,-24,-34,-39
-234,-351,-117,292,-58,-234,48,53,-4,-24,-34,-39
-234,-346,-112,290,-61,-229,53,73,-4,-24,-34,-39
-234,-336,-102,285,-65,-219,58,82,-4,-24,-29,-34
-234,-326,-92,280,-70,-209,58,102,-4,-29,-43,-39
-234,-336,-102,285,-65,-219,63,117,0,-24,-48,-43
-234,-336,-102,285,-65,-219,68,126,4,-24,-53,-53
-234,-336,-102,285,-65,-219,68,126,9,-24,-58,-63
-234,-351,-117,292,-58,-234,78,126,9,-24,-53,-53
-234,-351,-117,292,-58,-234,78,131,9,-24,-58,-53
-234,-351,-117,292,-58,-234,78,136,9,-24,-43,-53
-229,-351,-122,290,-53,-236,78,141,9,-24,-39,-48
-229,-351,-122,290,-53,-236,78,151,9,-14,-48,-48
-229,-351,-122,290,-53,-236,87,156,19,-14,-48,-48
-229,-351,-122,290,-53,-236,87,161,19,-14,-48,-53
-229,-366,-136,297,-46,-251,87,161,19,-14,-48,-53
-229,-356,-126,292,-51,-241,97,161,29,-14,-43,-48
-229,-356,-126,292,-51,-241,97,161,29,-14,-43,-48
-229,-356,-126,292,-51,-241,92,170,29,-14,-43,-48
-229,-356,-126,292,-51,-241,92,175,29,-14,-43,-43
-224,-361,-136,292,-43,-248,87,180,19,-24,-34,-34
-224,-361,-136,292,-43,-248,92,185,19,-24,-29,-34
-229,-361,-131,295,-48,-246,92,190,19,-24,-29,-34
-229,-361,-131,295,-48,-246,92,195,19,-24,-29,-34
-224,-361,-136,292,-43,-248,102,195,24,-14,-39,-48
-224,-370,-146,297,-39,-258,107,200,24,-14,-39,-48
-224,-370,-146,297,-39,-258,107,204,24,-14,-39,-48
-224,-370,-146,297,-39,-258,107,209,24,-14,-43,-48
-224,-370,-146,297,-39,-258,107,214,34,-14,-34,-53
-224,-380,-156,302,-34,-268,112,219,34,-14,-34,-58
-224,-385,-161,305,-31,-273,112,224,34,-14,-39,-63
-224,-385,-161,305,-31,-273,112,229,39,-14,-39,-73
-224,-380,-156,302,-34,-268,117,224,29,-14,-48,-82
-224,-366,-141,295,-41,-253,117,229,29,-19,-53,-82
-234,-390,-156,312,-39,-273,112,229,29,-19,-53,-82
-234,-385,-151,309,-41,-268,112,234,29,-19,-53,-87
-219,-385,-165,302,-26,-275,122,248,29,-19,-53,-82
-219,-390,-170,305,-24,-280,131,258,29,-24,-53,-82
-224,-390,-165,307,-29,-278,131,263,29,-24,-53,-78
-224,-395,-170,309,-26,-283,131,268,29,-24,-53,-73
-224,-395,-170,309,-26,-283,141,273,39,-24,-48,-73
-224,-395,-170,309,-26,-283,146,278,39,-24,-48,-78
-224,-400,-175,312,-24,-287,146,287,43,-24,-48,-78
-224,-405,-180,314,-21,-292,156,297,43,-24,-48,-78
-219,-405,-185,312,-17,-295,151,302,43,-24,-63,-78
-219,-405,-185,312,-17,-295,156,307,43,-24,-63,-82
-219,-405,-185,312,-17,-295,156,312,48,-24,-63,-82
-219,-405,-185,312,-17,-295,165,326,48,-29,-63,-82
-219,-400,-180,309,-19,-290,156,326,39,-29,-63,-92
-219,-409,-190,314,-14,-300,161,326,39,-29,-68,-92
-224,-414,-190,319,-17,-302,170,336,39,-29,-68,-92
-224,-414,-190,319,-17,-302,175,351,43,-29,-63,-97
-224,-414,-190,319,-17,-302,180,366,43,-29,-63,-87
-219,-414,-195,317,-12,-305,185,375,48,-29,-58,-87
-219,-414,-195,317,-12,-305,195,380,48,-29,-58,-87
-229,-424,-195,326,-17,-309,204,385,48,-29,-63,-92
-229,-434,-204,331,-12,-319,209,395,58,-19,-68,-92
-224,-434,-209,329,-7,-322,219,405,58,-19,-73,-92
-224,-434,-209,329,-7,-322,224,414,68,-19,-73,-97
-234,-439,-204,336,-14,-322,229,424,68,-19,-73,-97
-234,-429,-195,331,-19,-312,248,434,63,-29,-78,-112
-229,-429,-200,329,-14,-314,258,444,63,-29,-78,-112
-229,-434,-204,331,-12,-319,263,453,63,-29,-78,-112
-229,-439,-209,334,-9,-324,268,458,63,-34,-82,-112
-229,-429,-200,329,-14,-314,278,473,63,-34,-73,-102
-229,-429,-200,329,-14,-314,287,478,63,-29,-68,-102
-229,-429,-200,329,-14,-314,292,483,63,-29,-68,-112
-239,-429,-190,334,-24,-309,297,488,68,-34,-68,-112
-229,-434,-204,331,-12,-319,307,488,68,-39,-78,-107
-229,-439,-209,334,-9,-324,312,488,68,-39,-78,-107
-229,-444,-214,336,-7,-329,317,488,58,-39,-82,-112
-239,-453,-214,346,-12,-334,317,488,53,-43,-87,-117
-258,-444,-185,351,-36,-314,312,497,43,-43,-102,-122
-248,-444,-195,346,-26,-319,317,497,43,-48,-102,-126
-239,-444,-204,341,-17,-324,317,497,43,-48,-102,-131
-239,-448,-209,344,-14,-329,322,488,43,-48,-102,-136
-239,-448,-209,344,-14,-329,331,478,48,-48,-92,-122
-239,-448,-209,344,-14,-329,326,478,48,-48,-92,-122
-239,-444,-204,341,-17,-324,326,478,48,-48,-82,-122
-239,-444,-204,341,-17,-324,326,468,48,-43,-82,-122
-244,-453,-209,348,-17,-331,331,473,39,-34,-78,-107
-248,-453,-204,351,-21,-329,331,473,39,-34,-73,-97
-248,-458,-209,353,-19,-334,331,473,39,-34,-68,-92
-253,-463,-209,358,-21,-336,326,468,39,-34,-63,-82
-258,-453,-195,356,-31,-324,317,458,48,-43,-68,-97
-253,-448,-195,351,-29,-322,312,458,48,-43,-68,-92
-248,-444,-195,346,-26,-319,307,448,48,-34,-58,-92
-244,-424,-180,334,-31,-302,297,439,43,-34,-58,-97
-253,-424,-170,339,-41,-297,297,429,39,-43,-68,-87
-253,-424,-170,339,-41,-297,292,414,39,-34,-63,-78
-244,-424,-180,334,-31,-302,287,405,43,-34,-58,-78
-244,-419,-175,331,-34,-297,273,385,43,-34,-53,-73
-234,-405,-170,319,-31,-287,273,380,43,-39,-58,-78
-234,-400,-165,317,-34,-283,263,366,43,-29,-58,-82
-234,-390,-156,312,-39,-273,253,356,43,-24,-53,-87
-234,-385,-151,309,-41,-268,244,341,43,-24,-48,-92
-229,-380,-151,305,-39,-265,244,326,43,-19,-48,-78
-234,-366,-131,300,-51,-248,229,307,43,-14,-43,-68
-239,-366,-126,302,-56,-246,219,292,48,-9,-34,-58
-239,-356,-117,297,-61,-236,209,278,48,-4,-29,-53
-244,-366,-122,305,-61,-244,204,263,48,4,-19,-58
-244,-366,-122,305,-61,-244,195,248,48,9,-19,-53
-239,-366,-126,302,-56,-246,185,239,48,14,-14,-48
-239,-361,-122,300,-58,-241,175,224,53,19,-9,-43
-239,-351,-112,295,-63,-231,156,224,63,29,9,-24
-234,-351,-117,292,-58,-234,146,209,63,39,14,-14
-219,-351,-131,285,-43,-241,136,195,58,39,24,-4
-204,-351,-146,278,-29,-248,126,185,58,39,34,0
-214,-341,-126,278,-43,-234,122,161,43,29,24,-9
-214,-336,-122,275,-46,-229,112,156,43,24,24,-9
-209,-326,-117,268,-46,-222,112,146,43,24,29,0
-204,-322,-117,263,-43,-219,107,141,48,34,29,0
-214,-341,-126,278,-43,-234,112,136,39,24,14,-9
-214,-331,-117,273,-48,-224,102,122,39,24,9,-19
-214,-326,-112,270,-51,-219,102,117,39,24,4,-29
-204,-326,-122,265,-41,-224,97,117,39,24,4,-39
-204,-336,-131,270,-36,-234,92,102,39,34,9,-29
-204,-341,-136,273,-34,-239,92,97,39,34,14,-24
-204,-341,-136,273,-34,-239,87,92,39,39,19,-19
-204,-336,-131,270,-36,-234,82,82,29,39,29,-14
-195,-322,-126,258,-34,-224,68,78,39,39,29,-14
-190,-312,-122,251,-34,-217,63,78,39,39,24,-14
-190,-312,-122,251,-34,-217,63,78,39,39,24,-14
-190,-302,-112,246,-39,-207,68,78,39,39,24,-9
-185,-322,-136,253,-24,-229,68,78,48,34,29,-9
-200,-326,-126,263,-36,-226,63,73,48,34,34,-9
-200,-336,-136,268,-31,-236,63,63,48,29,34,-9
-195,-341,-146,268,-24,-244,63,63,48,29,29,-9
-185,-331,-146,258,-19,-239,63,68,34,34,29,0
-185,-331,-146,258,-19,-239,63,68,34,34,34,0
-185,-331,-146,258,-19,-239,63,68,34,34,34,0
-185,-331,-146,258,-19,-239,63,68,34,34,34,4
-185,-331,-146,258,-19,-239,63,68,34,24,24,-4
-195,-331,-136,263,-29,-234,58,68,34,24,19,-4
-195,-326,-131,261,-31,-229,58,68,34,24,19,-4
-190,-322,-131,256,-29,-226,63,68,34,24,19,-4
-185,-312,-126,248,-29,-219,53,58,24,24,9,-19
-185,-302,-117,244,-34,-209,53,58,24,19,9,-19
-195,-287,-92,241,-51,-190,58,58,24,19,9,-24
-195,-297,-102,246,-46,-200,58,58,24,19,9,-24
-195,-307,-112,251,-41,-209,53,58,34,29,14,-34
-195,-287,-92,241,-51,-190,58,63,34,29,14,-29
-195,-278,-82,236,-56,-180,58,63,34,29,14,-29
-195,-278,-82,236,-56,-180,63,63,34,29,9,-29
-190,-292,-102,241,-43,-197,73,73,43,29,19,-19
-190,-322,-131,256,-29,-226,73,73,43,29,19,-19
-209,-351,-141,280,-34,-246,73,73,43,29,19,-19
-209,-356,-146,283,-31,-251,78,73,43,29,19,-19
-204,-341,-136,273,-34,-239,73,68,39,19,19,-19
-204,-336,-131,270,-36,-234,73,68,34,19,19,-19
-204,-331,-126,268,-39,-229,73,68,29,19,19,-19
-200,-322,-122,261,-39,-222,82,68,24,19,14,-24
-195,-307,-112,251,-41,-209,82,68,24,9,9,-29
-195,-307,-112,251,-41,-209,82,68,24,9,4,-34
-200,-307,-107,253,-46,-207,82,68,24,9,0,-39
-209,-297,-87,253,-61,-192,82,73,24,9,-9,-43
-209,-307,-97,258,-56,-202,87,73,14,-4,0,-39
-204,-307,-102,256,-51,-204,87,78,14,-4,0,-39
-204,-307,-102,256,-51,-204,92,78,14,-4,0,-39
-204,-312,-107,258,-48,-209,92,78,14,-4,0,-43
-204,-302,-97,253,-53,-200,82,82,24,-4,-9,-43
-204,-292,-87,248,-58,-190,92,82,24,-4,-9,-43
-204,-292,-87,248,-58,-190,92,87,19,-4,-14,-48
-219,-292,-73,256,-73,-183,92,87,19,-9,-14,-48
-219,-302,-82,261,-68,-192,97,78,19,0,-14,-43
-209,-297,-87,253,-61,-192,97,82,24,4,-14,-48
-209,-292,-82,251,-63,-187,97,82,24,4,-14,-53
-209,-292,-82,251,-63,-187,102,82,24,0,-14,-58
-219,-292,-73,256,-73,-183,102,78,24,-4,-24,-68
-219,-292,-73,256,-73,-183,107,78,19,-4,-24,-68
-224,-292,-68,258,-78,-180,107,82,14,-9,-19,-68
-229,-287,-58,258,-85,-173,107,82,9,-14,-19,-68
-219,-278,-58,248,-80,-168,107,82,9,-24,-24,-58
-209,-278,-68,244,-70,-173,107,87,9,-24,-24,-58
-209,-278,-68,244,-70,-173,102,87,9,-24,-24,-58
-214,-278,-63,246,-75,-170,97,87,9,-24,-24,-58
-214,-283,-68,248,-73,-175,102,97,19,-19,-9,-68
-209,-292,-82,251,-63,-187,102,97,24,-14,-9,-68
-200,-292,-92,246,-53,-192,107,97,24,-4,-9,-68
-209,-283,-73,246,-68,-178,107,97,29,0,-9,-63
-224,-283,-58,253,-82,-170,97,92,29,-9,-14,-73
-219,-283,-63,251,-78,-173,92,82,24,-14,-19,-73
-214,-278,-63,246,-75,-170,87,78,14,-14,-19,-73
-229,-278,-48,253,-90,-163,87,68,9,-14,-24,-73
-229,-278,-48,253,-90,-163,78,58,4,-29,-34,-73
-229,-283,-53,256,-87,-168,63,58,0,-29,-39,-78
-234,-283,-48,258,-92,-165,73,58,-4,-34,-48,-87
-234,-278,-43,256,-95,-161,73,58,-4,-39,-53,-87
-239,-278,-39,258,-100,-158,73,58,4,-29,-48,-87
-239,-287,-48,263,-95,-168,78,58,4,-24,-43,-82
-229,-278,-48,253,-90,-163,78,58,4,-24,-39,-82
-224,-263,-39,244,-92,-151,78,58,9,-19,-34,-82
-229,-248,-19,239,-104,-134,78,63,9,-19,-34,-78
-229,-244,-14,236,-107,-129,78,58,4,-19,-34,-78
-229,-234,-4,231,-112,-119,78,58,0,-19,-29,-73
-234,-234,0,234,-117,-117,78,58,0,-19,-29,-73
-248,-239,9,244,-129,-114,82,63,0,-29,-29,-63
-258,-234,24,246,-141,-104,82,63,0,-34,-29,-68
-248,-229,19,239,-134,-104,82,53,-4,-39,-29,-68
-239,-224,14,231,-126,-104,78,53,-4,-39,-29,-78
-239,-219,19,229,-129,-100,87,63,-4,-34,-29,-68
-239,-209,29,224,-134,-90,92,58,0,-29,-29,-68
-234,-204,29,219,-131,-87,97,58,4,-24,-29,-63
-229,-200,29,214,-129,-85,102,58,14,-19,-29,-63
-234,-204,29,219,-131,-87,82,58,14,-4,-19,-73
-239,-214,24,226,-131,-95,82,58,14,-4,-19,-68
-244,-219,24,231,-134,-97,82,48,14,-4,-19,-68
-239,-224,14,231,-126,-104,68,43,14,-4,-14,-68
-234,-214,19,224,-126,-97,43,34,0,-14,-14,-78
-234,-209,24,222,-129,-92,39,34,0,-14,-19,-78
-234,-204,29,219,-131,-87,39,39,0,-9,-19,-78
-229,-204,24,217,-126,-90,39,39,0,-9,-19,-78
-234,-224,9,229,-122,-107,14,14,-9,-24,-24,-78
-244,-234,9,239,-126,-112,4,14,-14,-29,-29,-78
-248,-239,9,244,-129,-114,0,9,-19,-39,-34,-78
-253,-244,9,248,-131,-117,-9,4,-34,-39,-43,-78
-253,-273,-19,263,-117,-146,-9,-9,-34,-63,-63,-97
-263,-287,-24,275,-119,-156,-9,-14,-43,-53,-53,-97
-263,-258,4,261,-134,-126,-14,-29,-53,-73,-73,-107
-253,-234,19,244,-136,-107,-29,-39,-58,-87,-78,-126
-263,-239,24,251,-143,-107,-34,-43,-63,-78,-87,-126
-263,-244,19,253,-141,-112,-39,-48,-68,-78,-87,-126
-263,-248,14,256,-139,-117,-43,-53,-73,-78,-87,-126
-263,-253,9,258,-136,-122,-48,-58,-78,-78,-87,-126
-263,-278,-14,270,-124,-146,-53,-58,-78,-82,-82,-117
-258,-287,-29,273,-114,-158,-63,-58,-78,-82,-78,-117
-258,-292,-34,275,-112,-163,-68,-53,-73,-82,-73,-117
-248,-302,-53,275,-97,-178,-68,-48,-68,-82,-68,-117
-248,-297,-48,273,-100,-173,-58,-58,-73,-82,-68,-112
-248,-297,-48,273,-100,-173,-68,-58,-73,-82,-68,-112
-244,-292,-48,268,-97,-170,-68,-58,-73,-82,-68,-107
-244,-287,-43,265,-100,-165,-68,-58,-68,-78,-68,-107
-253,-283,-29,268,-112,-156,-58,-63,-63,-78,-63,-107
-258,-283,-24,270,-117,-153,-53,-63,-63,-78,-63,-102
-258,-273,-14,265,-122,-143,-43,-63,-63,-73,-63,-102
-258,-273,-14,265,-122,-143,-43,-63,-63,-73,-58,-102
-268,-292,-24,280,-122,-158,-53,-63,-73,-73,-58,-117
-263,-292,-29,278,-117,-161,-53,-63,-73,-73,-58,-117
-263,-297,-34,280,-114,-165,-53,-63,-73,-73,-58,-112
-263,-297,-34,280,-114,-165,-53,-63,-73,-73,-58,-112
-268,-312,-43,290,-112,-178,-53,-73,-82,-82,-73,-117
-263,-312,-48,287,-107,-180,-58,-73,-82,-82,-78,-122
-263,-312,-48,287,-107,-180,-68,-73,-82,-82,-82,-126
-263,-307,-43,285,-109,-175,-73,-73,-82,-82,-87,-131
-278,-292,-14,285,-131,-153,-68,-73,-87,-87,-97,-131
-283,-287,-4,285,-139,-146,-63,-78,-92,-97,-97,-136
-287,-283,4,285,-146,-139,-58,-78,-97,-102,-102,-136
-292,-273,19,283,-156,-126,-43,-78,-107,-107,-102,-136
-307,-287,19,297,-163,-134,-48,-78,-102,-97,-97,-126
-312,-297,14,305,-163,-141,-43,-78,-97,-97,-92,-126
-326,-307,19,317,-173,-143,-39,-78,-92,-102,-87,-131
-326,-312,14,319,-170,-148,-34,-78,-87,-102,-82,-136
-317,-307,9,312,-163,-148,-34,-73,-97,-112,-87,-141
-322,-307,14,314,-168,-146,-34,-73,-97,-112,-92,-146
-322,-302,19,312,-170,-141,-34,-73,-97,-112,-107,-151
-322,-297,24,309,-173,-136,-34,-73,-97,-112,-112,-156
-331,-317,14,324,-173,-151,-39,-78,-97,-107,-97,-156
-331,-322,9,326,-170,-156,-34,-78,-92,-107,-97,-156
-326,-326,0,326,-163,-163,-34,-73,-92,-107,-97,-156
-326,-326,0,326,-163,-163,-34,-73,-92,-107,-97,-156
-331,-312,19,322,-175,-146,-34,-82,-92,-107,-107,-165
-336,-307,29,322,-183,-139,-34,-82,-87,-107,-107,-165
-341,-302,39,322,-190,-131,-34,-82,-87,-107,-107,-165
-346,-297,48,322,-197,-124,-34,-82,-87,-107,-107,-165
-346,-302,43,324,-195,-129,-39,-82,-87,-117,-107,-156
-346,-302,43,324,-195,-129,-39,-78,-92,-112,-102,-151
-346,-307,39,326,-192,-134,-39,-78,-97,-107,-97,-151
-346,-307,39,326,-192,-134,-34,-73,-102,-107,-97,-151
-351,-312,39,331,-195,-136,-34,-82,-112,-117,-107,-156
-351,-312,39,331,-195,-136,-34,-82,-112,-117,-107,-156
-351,-312,39,331,-195,-136,-34,-82,-112,-117,-107,-156
-361,-312,48,336,-204,-131,-34,-82,-112,-117,-107,-156
-361,-322,39,341,-200,-141,-34,-82,-102,-117,-107,-156
-356,-322,34,339,-195,-143,-34,-87,-97,-117,-107,-156
-356,-322,34,339,-195,-143,-29,-87,-97,-117,-107,-156
-356,-317,39,336,-197,-139,-29,-87,-97,-117,-107,-156
-351,-326,24,339,-187,-151,-39,-82,-107,-117,-117,-161
-356,-317,39,336,-197,-139,-39,-82,-107,-117,-117,-170
-366,-317,48,341,-207,-134,-39,-82,-107,-117,-122,-175
-370,-322,48,346,-209,-136,-39,-82,-107,-117,-122,-175
-380,-322,58,351,-219,-131,-39,-92,-107,-122,-122,-185
-380,-322,58,351,-219,-131,-39,-92,-107,-126,-126,-185
-385,-322,63,353,-224,-129,-39,-92,-107,-131,-131,-185
-385,-322,63,353,-224,-129,-34,-92,-107,-136,-136,-185
-380,-317,63,348,-222,-126,-34,-82,-97,-131,-122,-175
-380,-317,63,348,-222,-126,-34,-82,-97,-126,-117,-170
-380,-317,63,348,-222,-126,-34,-82,-97,-122,-112,-170
-380,-317,63,348,-222,-126,-34,-78,-97,-117,-107,-175
-385,-322,63,353,-224,-129,-34,-87,-102,-126,-117,-165
-390,-322,68,356,-229,-126,-34,-87,-102,-126,-117,-165
-395,-322,73,358,-234,-124,-34,-87,-102,-122,-112,-165
-400,-322,78,361,-239,-122,-34,-87,-102,-122,-112,-161
-390,-312,78,351,-234,-117,-43,-97,-112,-131,-122,-170
-390,-307,82,348,-236,-112,-43,-97,-112,-131,-122,-170
-390,-307,82,348,-236,-112,-43,-97,-112,-131,-126,-170
-390,-307,82,348,-236,-112,-43,-97,-112,-136,-126,-170
-409,-336,73,373,-241,-131,-43,-78,-122,-136,-117,-165
-414,-346,68,380,-241,-139,-34,-78,-112,-136,-117,-156
-395,-322,73,358,-234,-124,-34,-87,-112,-122,-122,-165
-385,-302,82,344,-234,-109,-48,-78,-97,-122,-126,-170
-385,-297,87,341,-236,-104,-78,-39,-73,-107,-112,-161
-380,-292,87,336,-234,-102,-78,24,-39,-78,-82,-161
-370,-287,82,329,-226,-102,-92,117,9,-53,-68,-141
-341,-273,68,307,-204,-102,-126,224,48,-29,-53,-131
-331,-253,78,292,-204,-87,-131,336,92,-4,-29,-122
-331,-268,63,300,-197,-102,-122,453,156,39,0,-92
-307,-268,39,287,-173,-114,-112,527,224,102,39,-58
-302,-244,58,273,-180,-92,-122,541,268,141,68,-34
-307,-214,92,261,-200,-61,-136,463,258,131,68,-39
-317,-224,92,270,-204,-65,-161,312,200,102,48,-53
-307,-244,63,275,-185,-90,-204,112,117,53,34,-73
-292,-204,87,248,-190,-58,-248,-141,43,19,9,-78
-312,-161,151,236,-231,-4,-297,-448,-19,4,0,-68
-346,-122,224,234,-285,51,-370,-775,-43,19,19,-43
-336,-39,297,187,-317,129,-405,-976,-29,63,73,19
-312,63,375,124,-344,219,-356,-1068,14,131,146,87
-322,161,483,80,-402,322,-292,-1185,39,185,185,141
-322,234,556,43,-439,395,-292,-1342,68,239,248,200
-273,346,619,-36,-446,483,-302,-1459,112,331,356,297
-219,473,692,-126,-456,583,-278,-1590,117,385,434,370
-175,531,707,-178,-441,619,-268,-1756,87,424,488,434
-131,600,732,-234,-431,666,-278,-1859,107,497,575,522
-82,702,785,-309,-434,744,-200,-1937,126,566,658,605
-43,736,780,-346,-412,758,-73,-2025,78,575,688,624
-19,668,688,-324,-353,678,-58,-2093,-14,522,668,624
4,522,517,-263,-256,519,-273,-2166,-141,448,634,605
19,356,336,-187,-158,346,-605,-2181,-268,361,590,551
0,185,185,-92,-92,185,-814,-2113,-385,263,517,478
-68,107,175,-19,-122,141,-878,-2049,-468,185,473,463
-165,112,278,26,-222,195,-936,-1995,-507,146,458,458
-234,92,326,70,-280,209,-1000,-1927,-566,58,370,395
-287,34,322,126,-305,178,-956,-1786,-634,-73,239,302
-351,4,356,173,-353,180,-810,-1556,-639,-161,122,204
-400,-14,385,207,-392,185,-678,-1288,-595,-209,14,92
-444,-53,390,248,-417,168,-561,-1015,-512,-224,-53,4
-458,-141,317,300,-387,87,-434,-790,-458,-244,-107,-63
-453,-248,204,351,-329,-21,-336,-653,-429,-273,-165,-126
-444,-278,165,361,-305,-56,-292,-566,-395,-287,-200,-180
-453,-273,180,363,-317,-46,-244,-473,-351,-297,-234,-214
-458,-331,126,395,-292,-102,-190,-395,-302,-283,-234,-214
-448,-380,68,414,-258,-156,-165,-341,-278,-273,-219,-214
-453,-356,97,405,-275,-129,-170,-292,-283,-268,-229,-239
-463,-336,126,400,-295,-104,-141,-224,-273,-263,-239,-248
-473,-331,141,402,-307,-95,-102,-175,-244,-248,-214,-248
-458,-312,146,385,-302,-82,-68,-136,-200,-224,-200,-244
-458,-331,126,395,-292,-102,-39,-102,-161,-195,-185,-244
-468,-351,117,409,-292,-117,-24,-87,-141,-185,-185,-234
-468,-331,136,400,-302,-97,-29,-87,-146,-195,-190,-244
-468,-346,122,407,-295,-112,-29,-87,-146,-200,-200,-239
-468,-341,126,405,-297,-107,-39,-73,-156,-200,-209,-244
-468,-341,126,405,-297,-107,-39,-63,-161,-200,-209,-244
-468,-336,131,402,-300,-102,-34,-43,-161,-200,-209,-244
-468,-326,141,397,-305,-92,-29,-34,-161,-200,-204,-239
-468,-336,131,402,-300,-102,-9,-24,-141,-195,-204,-248
-468,-346,122,407,-295,-112,-4,-9,-136,-190,-204,-248
-468,-346,122,407,-295,-112,0,0,-131,-190,-204,-253
-468,-346,122,407,-295,-112,0,0,-126,-190,-204,-258
-468,-361,107,414,-287,-126,-9,0,-136,-190,-195,-248
-468,-361,107,414,-287,-126,-9,4,-136,-190,-204,-248
-468,-361,107,414,-287,-126,-9,9,-136,-190,-195,-248
-463,-361,102,412,-283,-129,-9,14,-136,-190,-195,-244
-473,-370,102,422,-287,-134,-9,24,-126,-180,-204,-253
-473,-370,102,422,-287,-134,0,29,-117,-180,-204,-253
-473,-370,102,422,-287,-134,0,34,-117,-180,-204,-258
-473,-385,87,429,-280,-148,0,34,-117,-180,-204,-258
-463,-380,82,422,-273,-148,9,24,-126,-190,-209,-263
-463,-375,87,419,-275,-143,9,24,-126,-190,-209,-263
-463,-370,92,417,-278,-139,4,34,-126,-190,-209,-263
-463,-366,97,414,-280,-134,4,39,-126,-190,-209,-258
-468,-361,107,414,-287,-126,0,43,-136,-200,-219,-258
-468,-361,107,414,-287,-126,4,48,-136,-200,-214,-258
-473,-361,112,417,-292,-124,4,53,-136,-200,-214,-258
-473,-361,112,417,-292,-124,4,58,-136,-200,-214,-258
-468,-370,97,419,-283,-136,4,58,-122,-190,-214,-263
-468,-380,87,424,-278,-146,9,63,-122,-190,-214,-263
-468,-380,87,424,-278,-146,9,68,-122,-190,-214,-263
-468,-380,87,424,-278,-146,9,73,-122,-190,-219,-263
-468,-370,97,419,-283,-136,9,78,-122,-200,-209,-253
-468,-380,87,424,-278,-146,14,82,-122,-200,-209,-253
-468,-385,82,427,-275,-151,14,87,-122,-200,-214,-253
-468,-385,82,427,-275,-151,14,92,-117,-200,-214,-258
-468,-385,82,427,-275,-151,9,97,-117,-200,-214,-268
-468,-375,92,422,-280,-141,9,102,-117,-204,-219,-268
-478,-405,73,441,-275,-165,4,102,-117,-204,-219,-268
-478,-405,73,441,-275,-165,4,107,-117,-204,-219,-273
-473,-395,78,434,-275,-158,4,112,-117,-204,-219,-273
-473,-400,73,436,-273,-163,14,122,-117,-209,-219,-278
-478,-400,78,439,-278,-161,14,126,-117,-209,-219,-278
-478,-405,73,441,-275,-165,14,131,-117,-209,-219,-278
-478,-414,63,446,-270,-175,24,136,-126,-209,-224,-278
-478,-414,63,446,-270,-175,29,141,-126,-209,-224,-283
-478,-419,58,448,-268,-180,29,151,-122,-209,-224,-283
-478,-424,53,451,-265,-185,39,161,-122,-209,-224,-283
-483,-424,58,453,-270,-183,43,165,-112,-200,-219,-273
-483,-424,58,453,-270,-183,48,170,-112,-200,-219,-278
-483,-424,58,453,-270,-183,48,175,-107,-200,-219,-278
-483,-424,58,453,-270,-183,58,190,-107,-204,-219,-278
-483,-429,53,456,-268,-187,68,209,-107,-204,-229,-278
-483,-439,43,461,-263,-197,73,209,-107,-204,-234,-278
-488,-444,43,466,-265,-200,82,219,-107,-204,-234,-278
-488,-444,43,466,-265,-200,87,234,-102,-204,-229,-283
-488,-434,53,461,-270,-190,87,244,-102,-214,-234,-287
-483,-434,48,458,-265,-192,87,248,-97,-214,-234,-292
-483,-434,48,458,-265,-192,92,248,-97,-214,-239,-297
-492,-444,48,468,-270,-197,97,248,-97,-214,-248,-307
-492,-448,43,470,-268,-202,102,268,-97,-204,-248,-302
-488,-453,34,470,-261,-209,112,278,-97,-204,-248,-297
-488,-458,29,473,-258,-214,117,287,-87,-204,-244,-297
-497,-468,29,483,-263,-219,122,297,-87,-204,-239,-292
-497,-468,29,483,-263,-219,131,297,-82,-204,-234,-297
-492,-468,24,480,-258,-222,141,307,-82,-204,-234,-297
-492,-473,19,483,-256,-226,146,317,-82,-204,-234,-297
-492,-478,14,485,-253,-231,151,322,-82,-209,-239,-297
-502,-468,34,485,-268,-217,161,336,-87,-209,-248,-307
-502,-468,34,485,-268,-217,170,341,-92,-204,-244,-307
-502,-468,34,485,-268,-217,175,346,-97,-204,-244,-317
-512,-468,43,490,-278,-212,180,351,-97,-209,-244,-317
-512,-478,34,495,-273,-222,190,361,-87,-224,-253,-312
-512,-478,34,495,-273,-222,195,361,-87,-224,-253,-312
-512,-478,34,495,-273,-222,200,361,-97,-224,-258,-317
-522,-483,39,502,-280,-222,200,361,-102,-229,-263,-322
-531,-473,58,502,-295,-207,204,351,-102,-219,-263,-322
-522,-473,48,497,-285,-212,209,351,-102,-224,-258,-322
-512,-473,39,492,-275,-217,209,351,-102,-224,-253,-322
-512,-478,34,495,-273,-222,214,341,-102,-224,-248,-322
-531,-483,48,507,-290,-217,214,341,-117,-234,-253,-326
-531,-488,43,509,-287,-222,209,341,-117,-234,-258,-326
-531,-488,43,509,-287,-222,209,341,-117,-234,-253,-326
-531,-492,39,512,-285,-226,209,331,-117,-229,-258,-326
-541,-478,63,509,-302,-207,200,331,-126,-229,-258,-326
-541,-473,68,507,-305,-202,195,326,-126,-229,-258,-322
-536,-473,63,505,-300,-204,190,322,-126,-229,-258,-322
-536,-473,63,505,-300,-204,180,312,-126,-229,-258,-317
-536,-468,68,502,-302,-200,175,292,-117,-229,-253,-317
-536,-468,68,502,-302,-200,175,292,-117,-229,-253,-307
-536,-468,68,502,-302,-200,175,283,-117,-219,-244,-302
-536,-453,82,495,-309,-185,170,273,-122,-219,-244,-302
-546,-463,82,505,-314,-190,161,273,-126,-219,-244,-302
-546,-463,82,505,-314,-190,156,258,-126,-209,-239,-292
-536,-463,73,500,-305,-195,151,248,-122,-209,-234,-292
-536,-458,78,497,-307,-190,136,229,-122,-209,-229,-287
-536,-444,92,490,-314,-175,126,204,-122,-204,-224,-283
-536,-439,97,488,-317,-170,117,190,-122,-195,-224,-278
-536,-429,107,483,-322,-161,107,180,-122,-190,-219,-273
-536,-424,112,480,-324,-156,97,165,-122,-190,-214,-268
-536,-429,107,483,-322,-161,87,151,-122,-185,-204,-273
-536,-414,122,475,-329,-146,73,131,-122,-180,-200,-263
-536,-414,122,475,-329,-146,63,117,-117,-175,-190,-253
-531,-405,126,468,-329,-139,53,102,-117,-170,-185,-248
-527,-400,126,463,-326,-136,39,87,-117,-180,-185,-234
-527,-395,131,461,-329,-131,29,73,-117,-175,-185,-229
-522,-390,131,456,-326,-129,19,63,-117,-170,-180,-224
-522,-380,141,451,-331,-119,9,48,-112,-165,-175,-219
-517,-375,141,446,-329,-117,9,39,-112,-156,-170,-214
-517,-380,136,448,-326,-122,0,24,-112,-146,-170,-209
-507,-385,122,446,-314,-131,-9,9,-117,-146,-165,-204
-497,-390,107,444,-302,-141,-19,0,-117,-146,-161,-204
-502,-385,117,444,-309,-134,-24,-14,-131,-151,-161,-209
-507,-385,122,446,-314,-131,-34,-19,-131,-161,-161,-214
-507,-380,126,444,-317,-126,-34,-29,-131,-165,-156,-209
-507,-380,126,444,-317,-126,-39,-34,-126,-161,-156,-214
-507,-400,107,453,-307,-146,-43,-39,-126,-151,-165,-214
-507,-390,117,448,-312,-136,-53,-53,-126,-151,-165,-214
-507,-385,122,446,-314,-131,-53,-58,-126,-151,-165,-214
-497,-385,112,441,-305,-136,-58,-58,-126,-151,-161,-214
-507,-375,131,441,-319,-122,-73,-68,-136,-161,-161,-209
-507,-380,126,444,-317,-126,-73,-78,-136,-161,-161,-209
-507,-380,126,444,-317,-126,-78,-87,-136,-156,-161,-209
-507,-375,131,441,-319,-122,-82,-102,-146,-156,-156,-209
-507,-375,131,441,-319,-122,-78,-97,-136,-156,-156,-219
-502,-370,131,436,-317,-119,-82,-97,-136,-156,-161,-219
-502,-375,126,439,-314,-124,-82,-97,-136,-156,-161,-219
-502,-370,131,436,-317,-119,-78,-97,-136,-156,-161,-214
-497,-395,102,446,-300,-146,-87,-97,-136,-161,-156,-204
-512,-395,117,453,-314,-139,-92,-102,-136,-161,-151,-204
-512,-400,112,456,-312,-143,-92,-112,-136,-165,-151,-204
-507,-400,107,453,-307,-146,-92,-112,-136,-165,-156,-204
-507,-390,117,448,-312,-136,-92,-117,-141,-161,-165,-204
-507,-390,117,448,-312,-136,-92,-117,-141,-161,-161,-204
-507,-390,117,448,-312,-136,-92,-117,-141,-161,-161,-204
-507,-390,117,448,-312,-136,-92,-117,-141,-161,-161,-200
-497,-395,102,446,-300,-146,-92,-107,-141,-161,-151,-200
-507,-400,107,453,-307,-146,-97,-107,-141,-161,-156,-200
-507,-400,107,453,-307,-146,-97,-107,-141,-161,-156,-200
-502,-400,102,451,-302,-148,-92,-107,-141,-161,-156,-200
-497,-409,87,453,-292,-161,-97,-107,-151,-161,-156,-195
-497,-400,97,448,-297,-151,-102,-107,-151,-165,-156,-195
-507,-385,122,446,-314,-131,-102,-107,-151,-165,-156,-200
-507,-395,112,451,-309,-141,-107,-107,-151,-165,-156,-200
-507,-409,97,458,-302,-156,-92,-117,-141,-156,-161,-204
-507,-395,112,451,-309,-141,-87,-112,-141,-156,-161,-204
-507,-390,117,448,-312,-136,-87,-112,-141,-156,-161,-209
-507,-395,112,451,-309,-141,-82,-112,-141,-156,-165,-214
-502,-390,112,446,-307,-139,-92,-112,-151,-165,-175,-224
-502,-409,92,456,-297,-158,-92,-112,-151,-165,-175,-224
-522,-429,92,475,-307,-168,-92,-112,-151,-165,-175,-224
-522,-424,97,473,-309,-163,-87,-112,-151,-165,-175,-224
-517,-419,97,468,-307,-161,-82,-107,-151,-165,-170,-219
-517,-414,102,466,-309,-156,-82,-107,-151,-165,-165,-214
-517,-409,107,463,-312,-151,-82,-107,-151,-165,-161,-209
-512,-400,112,456,-312,-143,-73,-107,-151,-165,-161,-209
-507,-395,112,451,-309,-141,-73,-107,-161,-165,-170,-219
-507,-405,102,456,-305,-151,-73,-107,-161,-165,-170,-219
-512,-414,97,463,-305,-158,-73,-107,-161,-165,-170,-219
-522,-414,107,468,-314,-153,-73,-102,-161,-165,-175,-219
-531,-424,107,478,-319,-158,-68,-102,-151,-170,-175,-224
-527,-424,102,475,-314,-161,-68,-97,-151,-170,-175,-224
-527,-424,102,475,-314,-161,-63,-97,-151,-170,-175,-224
-527,-429,97,478,-312,-165,-63,-97,-151,-170,-175,-229
-527,-429,97,478,-312,-165,-73,-92,-151,-180,-185,-224
-527,-419,107,473,-317,-156,-63,-92,-151,-180,-185,-219
-527,-419,107,473,-317,-156,-63,-87,-156,-180,-190,-219
-541,-419,122,480,-331,-148,-63,-87,-156,-185,-190,-214
-551,-429,122,490,-336,-153,-68,-97,-165,-185,-180,-209
-541,-424,117,483,-329,-153,-68,-92,-161,-180,-180,-214
-541,-419,122,480,-331,-148,-68,-92,-161,-180,-180,-219
-541,-419,122,480,-331,-148,-63,-92,-161,-185,-180,-224
-541,-429,112,485,-326,-158,-63,-97,-156,-185,-180,-224
-541,-429,112,485,-326,-158,-58,-97,-156,-180,-180,-224
-546,-429,117,488,-331,-156,-58,-92,-156,-180,-175,-224
-551,-424,126,488,-339,-148,-58,-92,-156,-180,-175,-224
-541,-405,136,473,-339,-134,-63,-92,-156,-180,-180,-214
-531,-405,126,468,-329,-139,-58,-87,-156,-180,-180,-214
-531,-405,126,468,-329,-139,-58,-87,-156,-180,-180,-214
-536,-405,131,470,-334,-136,-58,-87,-156,-180,-180,-214
-536,-405,131,470,-334,-136,-48,-78,-146,-175,-170,-209
-531,-409,122,470,-326,-143,-43,-78,-141,-170,-165,-204
-522,-405,117,463,-319,-143,-34,-78,-141,-161,-161,-200
-531,-390,141,461,-336,-124,-29,-78,-136,-156,-156,-190
-536,-385,151,461,-344,-117,-34,-78,-141,-156,-165,-195
-531,-380,151,456,-341,-114,-34,-82,-141,-161,-165,-200
-527,-370,156,448,-341,-107,-34,-82,-146,-161,-161,-204
-541,-366,175,453,-358,-95,-29,-87,-146,-161,-161,-209
-541,-366,175,453,-358,-95,-24,-82,-136,-151,-146,-195
-541,-370,170,456,-356,-100,-34,-78,-136,-146,-146,-195
-546,-370,175,458,-361,-97,-19,-73,-136,-146,-151,-200
-546,-366,180,456,-363,-92,-14,-68,-131,-146,-151,-195
-541,-370,170,456,-356,-100,-24,-73,-131,-156,-151,-190
-541,-385,156,463,-348,-114,-29,-78,-131,-151,-151,-190
-531,-380,151,456,-341,-114,-39,-82,-131,-151,-151,-195
-527,-370,156,448,-341,-107,-48,-87,-126,-146,-151,-200
-536,-385,151,461,-344,-117,-68,-92,-126,-156,-161,-195
-531,-390,141,461,-336,-124,-78,-97,-131,-156,-161,-195
-527,-390,136,458,-331,-126,-87,-97,-136,-156,-156,-190
-527,-400,126,463,-326,-136,-97,-97,-136,-156,-156,-190
-536,-424,112,480,-324,-156,-112,-112,-151,-165,-165,-195
-551,-429,122,490,-336,-153,-122,-122,-156,-170,-165,-204
-546,-434,112,490,-329,-161,-131,-141,-165,-175,-165,-209
-541,-439,102,490,-322,-168,-146,-151,-170,-175,-165,-224
-551,-448,102,500,-326,-173,-136,-161,-175,-185,-175,-214
-551,-444,107,497,-329,-168,-141,-165,-185,-195,-185,-224
-546,-434,112,490,-329,-161,-156,-165,-195,-195,-195,-219
-546,-439,107,492,-326,-165,-156,-165,-185,-195,-185,-214
-546,-444,102,495,-324,-170,-161,-170,-190,-204,-195,-224
-546,-448,97,497,-322,-175,-165,-175,-195,-204,-195,-224
-546,-453,92,500,-319,-180,-170,-180,-200,-204,-195,-224
-546,-458,87,502,-317,-185,-175,-185,-204,-204,-195,-224
-546,-473,73,509,-309,-200,-190,-190,-209,-209,-195,-224
-541,-483,58,512,-300,-212,-200,-195,-214,-209,-195,-224
-541,-488,53,514,-297,-217,-204,-195,-214,-209,-195,-224
-531,-497,34,514,-283,-231,-204,-195,-214,-209,-195,-224
-541,-502,39,522,-290,-231,-200,-195,-209,-209,-185,-229
-541,-502,39,522,-290,-231,-204,-195,-209,-209,-185,-229
-536,-497,39,517,-287,-229,-200,-195,-209,-209,-185,-224
-536,-492,43,514,-290,-224,-195,-195,-204,-204,-185,-224
-541,-492,48,517,-295,-222,-185,-190,-200,-204,-190,-224
-551,-497,53,524,-302,-222,-180,-190,-200,-204,-190,-219
-556,-492,63,524,-309,-214,-170,-190,-200,-200,-190,-219
-561,-497,63,529,-312,-217,-170,-190,-200,-200,-185,-219
-551,-507,43,529,-297,-231,-180,-180,-200,-209,-195,-234
-546,-507,39,527,-292,-234,-180,-180,-200,-209,-195,-234
-546,-512,34,529,-290,-239,-180,-180,-200,-209,-195,-229
-546,-512,34,529,-290,-239,-180,-180,-200,-209,-195,-229
-546,-527,19,536,-283,-253,-175,-190,-200,-200,-195,-229
-546,-527,19,536,-283,-253,-175,-190,-200,-200,-195,-229
-551,-527,24,539,-287,-251,-180,-190,-200,-200,-195,-229
-556,-522,34,539,-295,-244,-180,-190,-200,-200,-195,-229
-566,-522,43,544,-305,-239,-170,-190,-200,-190,-185,-219
-575,-522,53,549,-314,-234,-170,-195,-200,-195,-185,-224
-585,-522,63,553,-324,-229,-170,-195,-200,-195,-190,-224
-595,-517,78,556,-336,-219,-161,-195,-204,-195,-190,-224
-600,-527,73,563,-336,-226,-165,-204,-214,-204,-200,-234
-605,-531,73,568,-339,-229,-161,-204,-214,-204,-200,-234
