I,II,III,aVR,aVL,aVF,V1,V2,V3,V4,V5,V6
-68,-224,-156,146,43,-190,-97,-234,-234,-195,-195,-292
-68,-224,-156,146,43,-190,-97,-234,-234,-195,-195,-292
-68,-224,-156,146,43,-190,-97,-234,-234,-195,-195,-292
-68,-224,-156,146,43,-190,-97,-234,-234,-195,-195,-292
-107,-200,-92,153,-7,-146,-73,-195,-190,-156,-170,-258
-146,-185,-39,165,-53,-112,-48,-156,-156,-126,-156,-234
-185,-170,14,178,-100,-78,-24,-117,-122,-97,-141,-209
-224,-156,68,190,-146,-43,0,-78,-87,-68,-126,-185
-239,-156,82,197,-161,-36,19,-29,-68,-48,-136,-170
-244,-156,87,200,-165,-34,39,9,-48,-29,-136,-156
-248,-156,92,202,-170,-31,58,48,-29,-9,-136,-141
-253,-156,97,204,-175,-29,78,87,-9,9,-136,-126
-244,-141,102,192,-173,-19,82,107,0,9,-141,-107
-244,-136,107,190,-175,-14,87,117,0,9,-146,-97
-244,-131,112,187,-178,-9,92,126,0,9,-151,-87
-244,-126,117,185,-180,-4,97,136,0,9,-156,-78
-234,-117,117,175,-175,0,107,146,9,0,-170,-58
-234,-117,117,175,-175,0,117,156,9,0,-175,-48
-234,-117,117,175,-175,0,126,165,9,0,-180,-39
-234,-117,117,175,-175,0,136,175,9,0,-185,-29
-234,-107,126,170,-180,9,156,185,14,9,-190,-4
-234,-97,136,165,-185,19,165,185,19,9,-195,9
-234,-87,146,161,-190,29,175,185,24,9,-200,24
-234,-78,156,156,-195,39,185,185,29,9,-204,39
-219,-68,151,143,-185,41,195,165,39,14,-195,53
-214,-58,156,136,-185,48,195,156,39,19,-195,68
-209,-48,161,129,-185,56,195,146,39,24,-195,82
-204,-39,165,122,-185,63,195,136,39,29,-195,97
-190,-19,170,104,-180,75,195,122,48,29,-204,117
-185,-9,175,97,-180,82,195,117,48,29,-204,136
-180,0,180,90,-180,90,195,112,48,29,-204,156
-175,9,185,82,-180,97,195,107,48,29,-204,175
-165,14,180,75,-173,97,185,107,53,39,-204,195
-156,19,175,68,-165,97,175,107,58,39,-204,204
-146,24,170,61,-158,97,165,107,63,39,-204,214
-136,29,165,53,-151,97,156,107,68,39,-204,224
-136,19,156,58,-146,87,146,117,68,34,-209,239
-136,19,156,58,-146,87,136,117,68,29,-214,244
-136,19,156,58,-146,87,126,117,68,24,-219,248
-136,19,156,58,-146,87,117,117,68,19,-224,253
-146,19,165,63,-156,92,112,131,73,19,-214,258
-146,19,165,63,-156,92,107,136,78,19,-214,263
-146,19,165,63,-156,92,102,141,82,19,-214,268
-146,19,165,63,-156,92,97,146,87,19,-214,273
-141,9,151,65,-146,80,117,156,102,9,-204,263
-136,9,146,63,-141,78,126,156,107,9,-204,263
-131,9,141,61,-136,75,136,156,112,9,-204,263
-126,9,136,58,-131,73,146,156,117,9,-204,263
-97,9,107,43,-102,58,136,151,107,0,-219,244
-78,9,87,34,-82,48,136,146,107,-9,-224,224
-58,9,68,24,-63,39,136,141,107,-19,-229,204
-39,9,48,14,-43,29,136,136,107,-29,-234,185
-68,9,78,29,-73,43,161,161,126,-14,-214,195
-97,9,107,43,-102,58,175,175,146,0,-204,195
-126,9,136,58,-131,73,190,190,165,14,-195,195
-156,9,165,73,-161,87,204,204,185,29,-185,195
-151,19,170,65,-161,95,195,204,175,19,-190,165
-146,19,165,63,-156,92,195,204,175,19,-195,146
-141,19,161,61,-151,90,195,204,175,19,-200,126
-136,19,156,58,-146,87,195,204,175,19,-204,107
-131,9,141,61,-136,75,190,219,175,24,-209,82
-126,9,136,58,-131,73,185,224,175,29,-214,68
-122,9,131,56,-126,70,180,229,175,34,-219,53
-117,9,126,53,-122,68,175,234,175,39,-224,39
-136,14,151,61,-143,82,185,253,185,53,-214,19
-146,19,165,63,-156,92,185,263,185,68,-214,9
-156,24,180,65,-168,102,185,273,185,82,-214,0
-165,29,195,68,-180,112,185,283,185,97,-214,-9
-165,39,204,63,-185,122,190,297,195,102,-219,-29
-165,39,204,63,-185,122,195,312,195,107,-224,-48
-165,39,204,63,-185,122,200,326,195,112,-229,-68
-165,39,204,63,-185,122,204,341,195,117,-234,-87
-175,48,224,63,-200,136,214,356,209,131,-239,-102
-185,48,234,68,-209,141,224,370,214,136,-244,-117
-195,48,244,73,-219,146,234,385,219,141,-248,-131
-204,48,253,78,-229,151,244,400,224,146,-253,-146
-204,58,263,73,-234,161,258,424,234,165,-253,-156
-204,58,263,73,-234,161,263,439,244,175,-253,-165
-204,58,263,73,-234,161,268,453,253,185,-253,-175
-204,58,263,73,-234,161,273,468,263,195,-253,-185
-214,48,263,82,-239,156,287,483,283,214,-244,-195
-214,48,263,82,-239,156,292,497,292,224,-244,-195
-214,48,263,82,-239,156,297,512,302,234,-244,-195
-214,48,263,82,-239,156,302,527,312,244,-244,-195
-214,58,273,78,-244,165,312,556,326,248,-234,-200
-214,58,273,78,-244,165,312,575,341,253,-234,-204
-214,58,273,78,-244,165,312,595,356,258,-234,-209
-214,58,273,78,-244,165,312,614,370,263,-234,-214
-224,58,283,82,-253,170,326,629,380,278,-224,-209
-224,58,283,82,-253,170,331,634,390,283,-224,-204
-224,58,283,82,-253,170,336,639,400,287,-224,-200
-224,58,283,82,-253,170,341,644,409,292,-224,-195
-214,43,258,85,-236,151,351,658,429,302,-224,-185
-214,39,253,87,-234,146,351,663,439,302,-224,-185
-214,34,248,90,-231,141,351,668,448,302,-224,-185
-214,29,244,92,-229,136,351,673,458,302,-224,-185
-219,39,258,90,-239,148,346,673,473,312,-219,-165
-224,39,263,92,-244,151,341,673,488,322,-214,-156
-229,39,268,95,-248,153,336,673,502,331,-209,-146
-234,39,273,97,-253,156,331,673,517,341,-204,-136
-234,43,278,95,-256,161,322,658,507,341,-200,-126
-234,48,283,92,-258,165,312,653,507,341,-195,-126
-234,53,287,90,-261,170,302,649,507,341,-190,-126
-234,58,292,87,-263,175,292,644,507,341,-185,-126
-229,53,283,87,-256,168,273,624,488,317,-204,-146
-224,48,273,87,-248,161,263,614,478,292,-224,-156
-219,43,263,87,-241,153,253,605,468,268,-244,-165
-214,39,253,87,-234,146,244,595,458,244,-263,-175
-224,29,253,97,-239,141,234,585,458,258,-253,-185
-224,29,253,97,-239,141,224,575,458,263,-253,-185
-224,29,253,97,-239,141,214,566,458,268,-253,-185
-224,29,253,97,-239,141,204,556,458,273,-253,-185
-209,39,248,85,-229,143,185,522,439,263,-258,-195
-204,48,253,78,-229,151,175,497,419,253,-263,-195
-200,58,258,70,-229,158,165,473,400,244,-268,-195
-195,68,263,63,-229,165,156,448,380,234,-273,-195
-195,53,248,70,-222,151,141,414,361,224,-287,-209
-195,48,244,73,-219,146,136,390,341,214,-292,-214
-195,43,239,75,-217,141,131,366,322,204,-297,-219
-195,39,234,78,-214,136,126,341,302,195,-302,-224
-209,29,239,90,-224,134,112,312,283,190,-312,-239
-214,29,244,92,-229,136,107,292,263,185,-322,-244
-219,29,248,95,-234,139,102,273,244,180,-331,-248
-224,29,253,97,-239,141,97,253,224,175,-341,-253
-234,24,258,104,-246,141,82,234,200,165,-351,-258
-244,19,263,112,-253,141,78,224,185,165,-361,-263
-253,14,268,119,-261,141,73,214,170,165,-370,-268
-263,9,273,126,-268,141,68,204,156,165,-380,-273
-253,-14,239,134,-246,112,58,180,136,141,-400,-292
-253,-29,224,141,-239,97,58,165,117,126,-419,-302
-253,-43,209,148,-231,82,58,151,97,112,-439,-312
-253,-58,195,156,-224,68,58,136,78,97,-458,-322
-268,-78,190,173,-229,56,58,126,48,82,-478,-326
-283,-97,185,190,-234,43,58,117,29,68,-497,-331
-297,-117,180,207,-239,31,58,107,9,53,-517,-336
-312,-136,175,224,-244,19,58,97,-9,39,-536,-341
-292,-126,165,209,-229,19,53,82,-14,48,-541,-336
-283,-126,156,204,-219,14,48,68,-19,58,-546,-331
-273,-126,146,200,-209,9,43,53,-24,68,-551,-326
-263,-126,136,195,-200,4,39,39,-29,78,-556,-322
-273,-141,131,207,-202,-4,24,14,-58,68,-580,-331
-273,-146,126,209,-200,-9,19,0,-78,68,-595,-331
-273,-151,122,212,-197,-14,14,-14,-97,68,-610,-331
-273,-156,117,214,-195,-19,9,-29,-117,68,-624,-331
-263,-170,92,217,-178,-39,0,-39,-131,68,-644,-336
-253,-175,78,214,-165,-48,-9,-48,-136,68,-653,-341
-244,-180,63,212,-153,-58,-19,-58,-141,68,-663,-346
-234,-185,48,209,-141,-68,-29,-68,-146,68,-673,-351
-224,-195,29,209,-126,-82,-34,-87,-161,58,-688,-351
-214,-204,9,209,-112,-97,-39,-107,-165,58,-692,-351
-204,-214,-9,209,-97,-112,-43,-126,-170,58,-697,-351
-195,-224,-29,209,-82,-126,-48,-146,-175,58,-702,-351
-180,-219,-39,200,-70,-129,-63,-146,-180,53,-702,-341
-175,-214,-39,195,-68,-126,-68,-146,-185,48,-702,-341
-170,-209,-39,190,-65,-124,-73,-146,-190,43,-702,-341
-165,-204,-39,185,-63,-122,-78,-146,-195,39,-702,-341
-180,-214,-34,197,-73,-124,-78,-161,-209,24,-712,-351
-185,-214,-29,200,-78,-122,-78,-165,-214,9,-722,-351
-190,-214,-24,202,-82,-119,-78,-170,-219,-4,-732,-351
-195,-214,-19,204,-87,-117,-78,-175,-224,-19,-741,-351
-195,-229,-34,212,-80,-131,-87,-190,-229,-29,-741,-361
-195,-234,-39,214,-78,-136,-87,-195,-234,-29,-741,-361
-195,-239,-43,217,-75,-141,-87,-200,-239,-29,-741,-361
-195,-244,-48,219,-73,-146,-87,-204,-244,-29,-741,-361
-195,-239,-43,217,-75,-141,-78,-204,-258,-43,-751,-370
-195,-234,-39,214,-78,-136,-78,-204,-263,-58,-751,-370
-195,-229,-34,212,-80,-131,-78,-204,-268,-73,-751,-370
-195,-224,-29,209,-82,-126,-78,-204,-273,-87,-751,-370
-204,-234,-29,219,-87,-131,-68,-195,-283,-112,-771,-380
-204,-244,-39,224,-82,-141,-68,-195,-292,-126,-780,-390
-204,-253,-48,229,-78,-151,-68,-195,-302,-141,-790,-400
-204,-263,-58,234,-73,-161,-68,-195,-312,-156,-800,-409
-195,-253,-58,224,-68,-156,-53,-190,-302,-146,-795,-409
-195,-253,-58,224,-68,-156,-48,-185,-302,-146,-790,-409
-195,-253,-58,224,-68,-156,-43,-180,-302,-146,-785,-409
-195,-253,-58,224,-68,-156,-39,-175,-302,-146,-780,-409
-204,-248,-43,226,-80,-146,-29,-161,-312,-146,-766,-405
-204,-244,-39,224,-82,-141,-19,-146,-312,-146,-761,-400
-204,-239,-34,222,-85,-136,-9,-131,-312,-146,-756,-395
-204,-234,-29,219,-87,-131,0,-117,-312,-146,-751,-390
-219,-239,-19,229,-100,-129,4,-112,-317,-161,-761,-400
-224,-244,-19,234,-102,-131,9,-107,-322,-175,-771,-400
-229,-248,-19,239,-104,-134,14,-102,-326,-190,-780,-400
-234,-253,-19,244,-107,-136,19,-97,-331,-204,-790,-400
-214,-234,-19,224,-97,-126,29,-87,-326,-175,-775,-385
-204,-224,-19,214,-92,-122,29,-78,-322,-156,-761,-370
-195,-214,-19,204,-87,-117,29,-68,-317,-136,-746,-356
-185,-204,-19,195,-82,-112,29,-58,-312,-117,-732,-341
-170,-219,-48,195,-61,-134,43,-58,-322,-126,-736,-326
-165,-224,-58,195,-53,-141,48,-58,-322,-136,-741,-322
-161,-229,-68,195,-46,-148,53,-58,-322,-146,-746,-317
-156,-234,-78,195,-39,-156,58,-58,-322,-156,-751,-312
-146,-229,-82,187,-31,-156,68,-53,-312,-141,-746,-297
-146,-224,-78,185,-34,-151,68,-48,-312,-136,-741,-292
-146,-219,-73,183,-36,-146,68,-43,-312,-131,-736,-287
-146,-214,-68,180,-39,-141,68,-39,-312,-126,-732,-283
-151,-195,-43,173,-53,-119,68,-39,-292,-117,-717,-268
-156,-185,-29,170,-63,-107,68,-39,-283,-107,-702,-253
-161,-175,-14,168,-73,-95,68,-39,-273,-97,-688,-239
-165,-165,0,165,-82,-82,68,-39,-263,-87,-673,-224
-156,-175,-19,165,-68,-97,82,-29,-258,-92,-673,-234
-146,-175,-29,161,-58,-102,87,-29,-253,-97,-673,-234
-136,-175,-39,156,-48,-107,92,-29,-248,-102,-673,-234
-126,-175,-48,151,-39,-112,97,-29,-244,-107,-673,-234
-117,-156,-39,136,-39,-97,102,-39,-219,-82,-649,-224
-107,-146,-39,126,-34,-92,107,-39,-204,-68,-634,-214
-97,-136,-39,117,-29,-87,112,-39,-190,-53,-619,-204
-87,-126,-39,107,-24,-82,117,-39,-175,-39,-605,-195
-73,-117,-43,95,-14,-80,107,-48,-161,-24,-590,-195
-68,-107,-39,87,-14,-73,107,-58,-156,-19,-585,-195
-63,-97,-34,80,-14,-65,107,-68,-151,-14,-580,-195
-58,-87,-29,73,-14,-58,107,-78,-146,-9,-575,-195
-43,-82,-39,63,-2,-61,102,-82,-151,-29,-580,-204
-29,-78,-48,53,9,-63,102,-92,-146,-43,-585,-209
-19,-78,-58,48,19,-68,97,-102,-146,-58,-590,-214
-9,-78,-68,43,29,-73,92,-112,-151,-78,-600,-219
0,-53,-53,26,26,-53,107,-122,-136,-58,-575,-204
9,-34,-43,12,26,-39,112,-131,-126,-34,-570,-200
24,-14,-39,-4,31,-26,112,-141,-107,-9,-536,-200
34,0,-34,-17,34,-17,112,-151,-87,14,-522,-195
9,4,-4,-7,7,0,122,-131,-73,19,-507,-170
0,19,19,-9,-9,19,126,-117,-63,34,-488,-156
-4,24,29,-9,-17,26,131,-107,-48,43,-458,-141
-14,29,43,-7,-29,36,131,-97,-39,48,-429,-122
-9,24,34,-7,-21,29,141,-117,-43,43,-414,-122
-19,19,39,0,-29,29,136,-117,-39,53,-414,-122
-9,19,29,-4,-19,24,136,-112,-39,48,-405,-122
9,24,14,-17,-2,19,131,-112,-39,43,-419,-122
34,34,0,-34,17,17,107,-131,-34,48,-414,-117
34,34,0,-34,17,17,92,-136,-34,48,-405,-107
24,24,0,-24,12,12,82,-156,-29,48,-395,-107
19,14,-4,-17,12,4,68,-170,-39,43,-385,-117
29,14,-14,-21,21,0,43,-185,-39,53,-375,-117
34,19,-14,-26,24,2,24,-185,-43,53,-356,-112
34,24,-9,-29,21,7,9,-190,-53,48,-356,-102
39,24,-14,-31,26,4,0,-195,-58,39,-346,-87
29,24,-4,-26,17,9,0,-200,-78,14,-341,-82
29,24,-4,-26,17,9,0,-204,-82,14,-341,-82
29,29,0,-29,14,14,0,-200,-78,4,-336,-82
39,29,-9,-34,24,9,0,-204,-82,-4,-322,-82
43,14,-29,-29,36,-7,0,-190,-87,-4,-322,-68
29,4,-24,-17,26,-9,4,-180,-87,-4,-312,-63
24,-14,-39,-4,31,-26,14,-161,-87,-4,-312,-63
24,-29,-53,2,39,-41,19,-146,-87,-4,-312,-63
34,-24,-58,-4,46,-41,19,-136,-73,14,-283,-53
29,-29,-58,0,43,-43,19,-117,-68,29,-268,-48
29,-24,-53,-2,41,-39,19,-107,-68,43,-253,-39
24,-34,-58,4,41,-46,29,-102,-63,48,-248,-43
0,-29,-29,14,14,-29,29,-112,-82,29,-263,-53
0,-43,-43,21,21,-43,34,-112,-97,14,-273,-58
0,-39,-39,19,19,-39,39,-117,-112,-4,-273,-63
-9,-39,-29,24,9,-34,39,-117,-122,-24,-278,-63
-9,-73,-63,41,26,-68,39,-112,-146,-43,-302,-78
-24,-102,-78,63,26,-90,43,-112,-146,-73,-317,-97
-34,-117,-82,75,24,-100,48,-107,-146,-78,-322,-117
-48,-126,-78,87,14,-102,58,-102,-146,-78,-331,-131
-43,-117,-73,80,14,-95,48,-102,-136,-53,-322,-122
-53,-112,-58,82,2,-85,48,-102,-141,-43,-312,-117
-58,-117,-58,87,0,-87,53,-107,-141,-29,-302,-117
-58,-107,-48,82,-4,-78,48,-112,-156,-19,-287,-107
-58,-126,-68,92,4,-97,39,-112,-161,-39,-292,-112
-68,-141,-73,104,2,-107,39,-112,-170,-48,-302,-117
-78,-151,-73,114,-2,-112,48,-112,-170,-68,-307,-112
-92,-161,-68,126,-12,-114,48,-112,-165,-73,-307,-107
-87,-151,-63,119,-12,-107,43,-107,-170,-73,-312,-117
-92,-151,-58,122,-17,-104,43,-107,-180,-78,-317,-122
-92,-151,-58,122,-17,-104,39,-97,-185,-82,-322,-126
-92,-146,-53,119,-19,-100,34,-97,-190,-87,-326,-131
-107,-151,-43,129,-31,-97,34,-92,-190,-78,-322,-126
-112,-156,-43,134,-34,-100,39,-92,-190,-78,-322,-126
-117,-161,-43,139,-36,-102,39,-92,-195,-87,-326,-136
-122,-170,-48,146,-36,-109,39,-92,-195,-87,-336,-141
-122,-161,-39,141,-41,-100,24,-92,-185,-82,-331,-131
-122,-161,-39,141,-41,-100,24,-87,-185,-78,-326,-131
-122,-161,-39,141,-41,-100,24,-78,-185,-68,-317,-131
-117,-161,-43,139,-36,-102,24,-73,-185,-63,-312,-126
-117,-161,-43,139,-36,-102,14,-73,-190,-63,-302,-136
-117,-156,-39,136,-39,-97,14,-78,-190,-68,-312,-141
-102,-156,-53,129,-24,-104,14,-82,-195,-68,-312,-141
-92,-151,-58,122,-17,-104,9,-82,-195,-73,-317,-141
-82,-156,-73,119,-4,-114,19,-92,-195,-78,-322,-141
-82,-170,-87,126,2,-129,19,-92,-190,-73,-322,-141
-92,-175,-82,134,-4,-129,19,-92,-185,-68,-317,-141
-82,-180,-97,131,7,-139,19,-92,-170,-53,-317,-141
-73,-200,-126,136,26,-163,34,-97,-209,-92,-331,-146
-136,-200,-63,168,-36,-131,58,-68,-190,-78,-312,-136
-161,-200,-39,180,-61,-119,82,-58,-170,-78,-307,-131
-146,-195,-48,170,-48,-122,102,-43,-151,-73,-312,-136
-156,-175,-19,165,-68,-97,146,-4,-117,-43,-292,-131
-209,-185,24,197,-117,-80,195,58,-73,-14,-283,-131
-244,-190,53,217,-148,-68,234,131,-29,0,-278,-136
-253,-161,92,207,-173,-34,287,219,53,48,-253,-122
-244,-107,136,175,-190,14,336,287,146,117,-195,-92
-195,-92,102,143,-148,4,336,317,214,200,-136,-53
-165,-73,92,119,-129,9,331,307,273,273,-68,4
-136,-34,102,85,-119,34,326,248,346,346,19,73
-87,43,131,21,-109,87,278,151,414,458,126,156
14,112,97,-63,-41,104,161,0,468,595,248,253
141,175,34,-158,53,104,-14,-180,536,727,370,356
273,273,0,-273,136,136,-204,-346,605,839,492,453
400,356,-43,-378,222,156,-370,-468,634,888,570,536
512,400,-112,-456,312,143,-502,-570,570,834,570,575
575,429,-146,-502,361,141,-634,-717,453,756,551,595
585,409,-175,-497,380,117,-746,-873,302,644,492,575
585,356,-229,-470,407,63,-824,-1000,78,429,356,478
639,283,-356,-461,497,-36,-897,-1127,-204,146,136,341
702,151,-551,-427,627,-200,-971,-1273,-556,-175,-107,151
697,-9,-707,-344,702,-358,-1044,-1439,-893,-458,-336,-34
692,-107,-800,-292,746,-453,-1141,-1615,-1146,-658,-488,-151
727,-107,-834,-309,780,-470,-1263,-1751,-1273,-736,-556,-200
746,-102,-849,-322,797,-475,-1307,-1786,-1288,-722,-570,-214
727,-126,-854,-300,790,-490,-1268,-1708,-1200,-658,-556,-219
673,-117,-790,-278,732,-453,-1220,-1600,-1156,-644,-546,-229
688,-136,-824,-275,756,-480,-1171,-1507,-1215,-727,-605,-307
688,-234,-922,-226,805,-578,-1073,-1376,-1259,-854,-717,-405
634,-331,-966,-151,800,-649,-927,-1215,-1205,-883,-756,-458
556,-375,-932,-90,744,-653,-800,-1102,-1137,-844,-761,-483
492,-409,-902,-41,697,-656,-707,-1029,-1083,-795,-751,-507
400,-414,-814,7,607,-614,-614,-941,-1000,-736,-722,-478
341,-385,-727,21,534,-556,-536,-849,-922,-702,-688,-453
312,-385,-697,36,505,-541,-453,-761,-883,-692,-678,-444
248,-380,-629,65,439,-505,-361,-668,-814,-634,-649,-434
200,-336,-536,68,368,-436,-273,-575,-712,-541,-585,-390
180,-292,-473,56,326,-383,-224,-478,-634,-473,-527,-356
131,-258,-390,63,261,-324,-165,-385,-546,-409,-463,-312
73,-234,-307,80,190,-270,-82,-302,-453,-336,-395,-268
68,-204,-273,68,170,-239,-34,-244,-385,-278,-351,-239
73,-195,-268,61,170,-231,-34,-195,-351,-244,-326,-219
29,-200,-229,85,129,-214,-14,-146,-307,-200,-302,-190
-29,-175,-146,102,58,-161,4,-87,-263,-151,-253,-156
-48,-146,-97,97,24,-122,14,-43,-214,-97,-209,-126
-14,-107,-92,61,39,-100,9,-19,-170,-48,-185,-102
0,-68,-68,34,34,-68,14,9,-151,-53,-180,-102
-14,-43,-29,29,7,-36,19,34,-170,-87,-190,-97
-43,-82,-39,63,-2,-61,39,58,-180,-107,-190,-102
-48,-102,-53,75,2,-78,53,82,-165,-97,-190,-97
-48,-112,-63,80,7,-87,58,97,-151,-97,-195,-92
-43,-107,-63,75,9,-85,63,107,-151,-102,-200,-87
-43,-112,-68,78,12,-90,73,122,-156,-107,-195,-82
-34,-107,-73,70,19,-90,92,112,-151,-87,-200,-92
-34,-107,-73,70,19,-90,97,122,-131,-68,-195,-82
-29,-112,-82,70,26,-97,112,122,-126,-53,-180,-78
-29,-117,-87,73,29,-102,122,126,-117,-43,-175,-73
-39,-102,-63,70,12,-82,122,102,-117,-48,-170,-68
-39,-87,-48,63,4,-68,131,87,-107,-48,-165,-63
-34,-78,-43,56,4,-61,146,73,-102,-48,-156,-58
-29,-73,-43,51,7,-58,165,58,-102,-48,-146,-48
-43,-82,-39,63,-2,-61,161,53,-102,-58,-161,-53
-48,-82,-34,65,-7,-58,161,53,-102,-73,-165,-53
-63,-78,-14,70,-24,-46,170,58,-92,-87,-170,-58
-78,-78,0,78,-39,-39,170,68,-87,-102,-180,-68
-87,-87,0,87,-43,-43,170,82,-92,-122,-190,-73
-78,-102,-24,90,-26,-63,170,78,-82,-126,-190,-73
-87,-112,-24,100,-31,-68,170,82,-82,-122,-195,-73
-87,-117,-29,102,-29,-73,170,87,-87,-126,-195,-58
-82,-92,-9,87,-36,-51,170,97,-73,-92,-175,-34
-68,-73,-4,70,-31,-39,165,102,-78,-73,-161,-14
-63,-63,0,63,-31,-31,165,117,-73,-63,-146,-9
-53,-53,0,53,-26,-26,165,126,-63,-34,-126,0
-58,-58,0,58,-29,-29,175,136,-63,-39,-126,-9
-63,-63,0,63,-31,-31,170,141,-63,-43,-122,-9
-68,-73,-4,70,-31,-39,170,146,-68,-48,-107,-9
-73,-78,-4,75,-34,-41,170,156,-58,-58,-107,-9
-82,-68,14,75,-48,-26,156,141,-73,-48,-102,0
-92,-73,19,82,-56,-26,156,136,-73,-48,-97,9
-102,-87,14,95,-58,-36,156,146,-68,-48,-97,19
-112,-97,14,104,-63,-41,156,141,-68,-48,-97,19
-102,-102,0,102,-51,-51,146,131,-78,-58,-102,4
-97,-102,-4,100,-46,-53,146,131,-73,-58,-92,0
-97,-97,0,97,-48,-48,151,131,-63,-58,-87,0
-92,-102,-9,97,-41,-56,151,136,-53,-48,-87,0
-102,-122,-19,112,-41,-70,151,136,-53,-48,-78,4
-107,-131,-24,119,-41,-78,146,136,-58,-34,-63,0
-107,-131,-24,119,-41,-78,136,126,-48,-34,-78,0
-82,-122,-39,102,-21,-80,136,117,-63,-39,-73,0
-82,-126,-43,104,-19,-85,136,122,-48,-24,-58,9
-102,-122,-19,112,-41,-70,136,122,-43,-14,-43,14
-107,-122,-14,114,-46,-68,136,131,-24,0,-24,19
-126,-112,14,119,-70,-48,136,141,-14,19,-19,19
-136,-122,14,129,-75,-53,126,126,-19,14,-19,9
-126,-107,19,117,-73,-43,112,122,-9,9,-19,9
-107,-107,0,107,-53,-53,87,117,-4,4,-14,9
-97,-107,-9,102,-43,-58,73,112,-19,0,-14,9
-102,-112,-9,107,-46,-61,63,112,-34,-19,-39,0
-107,-122,-14,114,-46,-68,63,112,-34,-34,-48,-14
-112,-136,-24,124,-43,-80,68,117,-34,-39,-53,-24
-126,-146,-19,136,-53,-82,68,122,-34,-53,-63,-29
-141,-156,-14,148,-63,-85,78,122,-9,-29,-58,-29
-156,-165,-9,161,-73,-87,78,136,-4,-9,-53,-29
-161,-175,-14,168,-73,-95,82,141,19,4,-43,-29
-165,-180,-14,173,-75,-97,92,146,24,19,-39,-39
-165,-175,-9,170,-78,-92,92,161,43,48,-14,-29
-170,-170,0,170,-85,-85,102,165,68,63,-9,-14
-180,-165,14,173,-97,-75,112,175,78,82,-4,-4
-195,-161,34,178,-114,-63,126,190,87,97,0,4
-195,-180,14,187,-104,-82,136,209,87,87,-9,-19
-195,-175,19,185,-107,-78,141,219,92,82,-19,-24
-190,-185,4,187,-97,-90,151,229,107,73,-24,-24
-180,-190,-9,185,-85,-100,156,239,122,78,-24,-24
-170,-185,-14,178,-78,-100,161,229,131,92,-24,-34
-180,-185,-4,183,-87,-95,170,234,136,97,-24,-34
-180,-185,-4,183,-87,-95,180,253,151,102,-19,-34
-175,-195,-19,185,-78,-107,180,263,151,102,-19,-34
-200,-190,9,195,-104,-90,170,287,175,112,-29,-34
-219,-195,24,207,-122,-85,165,302,185,117,-19,-34
-234,-204,29,219,-131,-87,170,326,195,126,-19,-24
-253,-214,39,234,-146,-87,165,331,209,131,-14,-19
-244,-200,43,222,-143,-78,175,356,234,136,-4,-14
-234,-190,43,212,-139,-73,185,385,253,146,0,-14
-209,-185,24,197,-117,-80,190,395,253,141,0,-14
-190,-170,19,180,-104,-75,195,405,263,151,4,-9
-195,-156,39,175,-117,-58,209,405,268,141,19,0
-195,-141,53,168,-124,-43,209,414,268,146,24,9
-200,-136,63,168,-131,-36,209,429,273,151,29,14
-204,-107,97,156,-151,-4,209,439,287,161,39,34
-209,-117,92,163,-151,-12,195,448,302,185,53,39
-219,-126,92,173,-156,-17,190,458,317,200,63,39
-224,-136,87,180,-156,-24,180,473,331,200,78,43
-224,-136,87,180,-156,-24,165,473,331,204,78,39
-195,-112,82,153,-139,-14,146,458,322,200,87,39
-180,-92,87,136,-134,-2,131,448,317,195,78,39
-190,-82,107,136,-148,12,117,453,322,195,87,43
-185,-68,117,126,-151,24,102,444,322,195,87,53
-200,-73,126,136,-163,26,107,448,331,200,97,58
-190,-68,122,129,-156,26,92,453,336,214,112,68
-180,-68,112,124,-146,21,92,463,351,224,126,82
-185,-68,117,126,-151,24,92,468,356,229,151,92
-175,-43,131,109,-153,43,102,478,351,224,136,82
-175,-19,156,97,-165,68,97,468,351,224,141,82
-165,-4,161,85,-163,78,87,463,351,224,156,92
-161,9,170,75,-165,90,87,458,346,219,156,92
-146,19,165,63,-156,92,63,429,326,204,141,87
-131,19,151,56,-141,85,48,405,317,200,126,78
-107,19,126,43,-117,73,19,390,302,200,131,68
-82,29,112,26,-97,70,9,361,297,200,131,63
-78,19,97,29,-87,58,-4,351,278,190,122,48
-82,-4,78,43,-80,36,-14,336,258,180,107,43
-68,-4,63,36,-65,29,-34,312,248,170,87,39
-53,-4,48,29,-51,21,-39,287,229,151,78,34
-43,-4,39,24,-41,17,-58,248,209,141,92,19
-34,4,39,14,-36,21,-73,209,195,136,97,34
-24,4,29,9,-26,17,-78,175,180,131,102,43
-24,0,24,12,-24,12,-87,136,161,122,117,39
-43,-24,19,34,-31,-2,-78,131,156,131,136,34
-43,-24,19,34,-31,-2,-78,112,141,122,126,39
-48,-14,34,31,-41,9,-68,107,136,131,107,39
-58,-39,19,48,-39,-9,-53,112,136,136,87,29
-78,-29,48,53,-63,9,-63,87,122,117,78,24
-82,-19,63,51,-73,21,-82,58,102,87,73,24
-92,0,92,46,-92,46,-87,48,92,78,68,19
-112,9,122,51,-117,65,-92,34,63,63,53,9
-107,-9,97,58,-102,43,-97,19,39,48,29,-14
-112,-19,92,65,-102,36,-97,14,24,39,14,-34
-112,-34,78,73,-95,21,-102,-4,9,34,4,-48
-117,-63,53,90,-85,-4,-107,-24,-4,14,-9,-58
-102,-53,48,78,-75,-2,-112,-43,-24,14,-14,-78
-87,-53,34,70,-61,-9,-112,-63,-24,14,-29,-78
-73,-58,14,65,-43,-21,-107,-78,-34,14,-34,-78
-58,-48,9,53,-34,-19,-102,-92,-34,14,-39,-87
-48,-34,14,41,-31,-9,-102,-102,-63,-4,-34,-92
-53,-29,24,41,-39,-2,-102,-117,-78,-14,-34,-102
-78,-39,39,58,-58,0,-102,-126,-92,-24,-39,-102
-102,-34,68,68,-85,17,-97,-136,-107,-34,-58,-97
-87,-53,34,70,-61,-9,-92,-136,-126,-53,-82,-107
-82,-73,9,78,-46,-31,-97,-136,-131,-78,-102,-122
-87,-87,0,87,-43,-43,-82,-136,-136,-102,-112,-131
-82,-107,-24,95,-29,-65,-73,-136,-141,-122,-122,-136
-102,-102,0,102,-51,-51,-68,-136,-126,-102,-97,-131
-117,-87,29,102,-73,-29,-63,-136,-126,-78,-82,-126
-107,-63,43,85,-75,-9,-63,-141,-126,-58,-73,-126
-102,-39,63,70,-82,12,-68,-141,-131,-39,-63,-126
-92,-24,68,58,-80,21,-58,-131,-131,-39,-53,-126
-97,-19,78,58,-87,29,-53,-131,-131,-29,-43,-97
-97,-14,82,56,-90,34,-43,-131,-131,-29,-34,-82
-97,-9,87,53,-92,39,-43,-131,-141,-39,-24,-87
-107,-48,58,78,-82,4,-48,-126,-151,-53,-53,-102
-107,-82,24,95,-65,-29,-53,-131,-156,-78,-73,-112
-107,-107,0,107,-53,-53,-53,-131,-161,-97,-87,-122
-107,-131,-24,119,-41,-78,-53,-131,-165,-117,-102,-126
-82,-112,-29,97,-26,-70,-63,-136,-170,-107,-87,-112
-68,-87,-19,78,-24,-53,-58,-141,-170,-97,-82,-107
-53,-68,-14,61,-19,-41,-58,-141,-175,-73,-78,-112
-29,-43,-14,36,-7,-29,-48,-117,-156,-58,-63,-107
-14,-48,-34,31,9,-41,-48,-131,-165,-63,-53,-107
-9,-48,-39,29,14,-43,-53,-141,-165,-63,-43,-107
-4,-53,-48,29,21,-51,-63,-151,-170,-68,-39,-107
0,-58,-58,29,29,-58,-53,-156,-175,-78,-39,-107
-9,-53,-43,31,17,-48,-63,-165,-200,-102,-58,-87
-14,-48,-34,31,9,-41,-48,-165,-214,-117,-68,-97
-19,-43,-24,31,2,-34,-34,-151,-219,-126,-73,-97
-39,-39,0,39,-19,-19,-29,-151,-224,-141,-73,-102
-43,-53,-9,48,-17,-31,-19,-141,-209,-122,-63,-102
-53,-63,-9,58,-21,-36,-29,-131,-204,-117,-73,-102
-58,-78,-19,68,-19,-48,-34,-117,-190,-107,-82,-102
-48,-102,-53,75,2,-78,-48,-107,-175,-97,-92,-122
-29,-97,-68,63,19,-82,-48,-102,-175,-97,-82,-122
-34,-82,-48,58,7,-65,-39,-92,-170,-97,-78,-117
-63,-87,-24,75,-19,-56,-39,-87,-170,-97,-82,-112
-53,-82,-29,68,-12,-56,-39,-87,-170,-97,-82,-97
-39,-48,-9,43,-14,-29,-34,-73,-175,-112,-87,-92
-24,-43,-19,34,-2,-31,-19,-68,-190,-122,-92,-87
-19,-39,-19,29,0,-29,-9,-53,-195,-126,-92,-97
-43,-58,-14,51,-14,-36,9,-39,-200,-131,-97,-107
-34,-58,-24,46,-4,-41,4,-34,-204,-122,-107,-102
-29,-48,-19,39,-4,-34,4,-39,-195,-117,-97,-107
-19,-39,-19,29,0,-29,4,-39,-190,-102,-87,-107
-14,-29,-14,21,0,-21,4,-39,-190,-97,-87,-112
0,-24,-24,12,12,-24,4,-48,-200,-92,-78,-112
4,-19,-24,7,14,-21,4,-48,-204,-117,-92,-107
9,-34,-43,12,26,-39,9,-48,-204,-102,-92,-87
14,-14,-29,0,21,-21,9,-39,-190,-82,-87,-63
-4,-4,0,4,-2,-2,14,-34,-165,-58,-68,-48
-9,-4,4,7,-7,0,14,-34,-170,-53,-68,-48
-14,-4,9,9,-12,2,4,-34,-165,-53,-73,-43
-34,-19,14,26,-24,-2,4,-24,-161,-48,-63,-39
-43,-39,4,41,-24,-17,4,4,-156,-58,-68,-29
-29,-29,0,29,-14,-14,4,4,-156,-68,-68,-29
-19,-29,-9,24,-4,-19,4,-4,-156,-78,-68,-29
-19,-29,-9,24,-4,-19,4,29,-151,-87,-63,-29
-9,-43,-34,26,12,-39,4,29,-141,-82,-68,-43
-4,-39,-34,21,14,-36,0,24,-131,-73,-58,-53
-4,-43,-39,24,17,-41,0,24,-126,-68,-58,-68
-19,-48,-29,34,4,-39,0,19,-112,-63,-58,-73
-4,-39,-34,21,14,-36,-19,0,-117,-53,-39,-48
0,-39,-39,19,19,-39,-29,-19,-117,-48,-39,-34
4,-34,-39,14,21,-36,-34,-34,-107,-43,-34,-34
14,-34,-48,9,31,-41,-39,-48,-102,-48,-24,-53
24,-48,-73,12,48,-61,-24,-53,-92,-43,-34,-63
14,-53,-68,19,41,-61,-19,-58,-87,-29,-29,-73
24,-39,-63,7,43,-51,-19,-63,-82,-24,-19,-78
24,-39,-63,7,43,-51,-19,-63,-63,-19,-19,-82
-78,-53,24,65,-51,-14,19,-53,-43,9,39,-34
-48,-58,-9,53,-19,-34,9,-78,-68,-29,9,-39
-53,-73,-19,63,-17,-46,0,-78,-58,-43,-4,-43
-58,-78,-19,68,-19,-48,0,-78,-58,-48,-9,-48
-63,-82,-19,73,-21,-51,0,-78,-58,-53,-14,-53
-68,-87,-19,78,-24,-53,0,-78,-58,-58,-19,-58
-53,-68,-14,61,-19,-41,-4,-87,-68,-48,-24,-63
-39,-58,-19,48,-9,-39,-4,-92,-58,-43,-19,-63
-29,-53,-24,41,-2,-39,-9,-97,-53,-39,-14,-63
-19,-48,-29,34,4,-39,-14,-102,-53,-39,-14,-63
-9,-29,-19,19,4,-24,0,-107,-39,-24,4,-48
-9,-14,-4,12,-2,-9,4,-112,-39,-4,4,-43
-4,0,4,2,-4,2,4,-117,-29,14,34,-43
-4,9,14,-2,-9,12,4,-122,-19,34,43,-39
-14,-9,4,12,-9,-2,19,-131,-34,9,19,-48
-19,-9,9,14,-14,0,29,-126,-43,-4,0,-58
-19,-19,0,19,-9,-9,39,-126,-48,-24,-9,-68
-24,-29,-4,26,-9,-17,43,-126,-58,-48,-19,-73
-24,-29,-4,26,-9,-17,53,-131,-39,-29,9,-53
-29,-29,0,29,-14,-14,48,-126,-29,4,14,-53
-14,-24,-9,19,-2,-17,48,-117,-24,24,29,-53
9,-14,-24,2,17,-19,43,-112,-19,43,19,-53
9,4,-4,-7,7,0,39,-131,-19,34,24,-48
-4,14,19,-4,-12,17,34,-136,-24,29,24,-39
-29,14,43,7,-36,29,34,-156,-24,24,24,-39
-48,14,63,17,-56,39,29,-170,-39,14,24,-48
-48,-4,43,26,-46,19,0,-165,-43,9,14,-58
-43,-9,34,26,-39,12,-14,-165,-53,4,24,-63
-43,-14,29,29,-36,7,-24,-170,-68,-4,14,-63
-39,-24,14,31,-26,-4,-29,-175,-78,-19,14,-58
-48,-43,4,46,-26,-19,-48,-185,-82,-24,0,-58
-58,-53,4,56,-31,-24,-58,-185,-82,-4,0,-63
-68,-58,9,63,-39,-24,-68,-175,-73,4,4,-68
-68,-68,0,68,-34,-34,-78,-175,-73,14,19,-73
-68,-58,9,63,-39,-24,-87,-195,-78,34,19,-68
-78,-53,24,65,-51,-14,-92,-200,-78,34,29,-63
-78,-58,19,68,-48,-19,-92,-195,-78,34,29,-63
-73,-58,14,65,-43,-21,-97,-195,-78,34,29,-63
-68,-78,-9,73,-29,-43,-97,-190,-82,29,34,-53
-68,-87,-19,78,-24,-53,-97,-175,-87,19,34,-58
-63,-87,-24,75,-19,-56,-97,-170,-97,9,34,-58
-63,-102,-39,82,-12,-70,-87,-170,-102,-9,24,-73
-68,-102,-34,85,-17,-68,-87,-170,-107,-24,9,-82
-58,-112,-53,85,-2,-82,-92,-170,-117,-24,0,-87
-48,-102,-53,75,2,-78,-97,-175,-126,-29,0,-92
-48,-97,-48,73,0,-73,-107,-175,-131,-34,-4,-92
-73,-97,-24,85,-24,-61,-92,-161,-131,-19,0,-78
-102,-112,-9,107,-46,-61,-73,-151,-117,-24,4,-78
-126,-112,14,119,-70,-48,-53,-136,-102,-4,19,-78
-156,-107,48,131,-102,-29,-29,-122,-87,19,29,-73
-156,-122,34,139,-95,-43,-14,-126,-97,-9,4,-87
-161,-141,19,151,-90,-61,-9,-122,-112,-34,-19,-107
-161,-170,-9,165,-75,-90,0,-122,-122,-53,-43,-131
-156,-185,-29,170,-63,-107,0,-122,-146,-78,-63,-146
-156,-170,-14,163,-70,-92,-14,-136,-165,-92,-58,-141
-165,-170,-4,168,-80,-87,-19,-141,-180,-97,-68,-146
-175,-165,9,170,-92,-78,-14,-146,-185,-112,-73,-141
-190,-161,29,175,-109,-65,-19,-151,-185,-112,-73,-136
-180,-170,9,175,-95,-80,-19,-136,-170,-107,-63,-151
-190,-180,9,185,-100,-85,-14,-136,-170,-107,-63,-151
-195,-190,4,192,-100,-92,-14,-126,-165,-107,-63,-151
-200,-195,4,197,-102,-95,-14,-126,-161,-107,-63,-151
-180,-170,9,175,-95,-80,-19,-136,-175,-112,-68,-146
-161,-156,4,158,-82,-75,-19,-141,-180,-117,-68,-146
-141,-141,0,141,-70,-70,-24,-146,-190,-131,-73,-156
-122,-131,-9,126,-56,-70,-29,-151,-195,-136,-82,-161
-117,-141,-24,129,-46,-82,-29,-141,-180,-131,-92,-161
-112,-141,-29,126,-41,-85,-24,-136,-175,-126,-92,-161
-107,-141,-34,124,-36,-87,-19,-126,-170,-117,-87,-161
-97,-141,-43,119,-26,-92,-14,-122,-165,-112,-87,-156
-122,-131,-9,126,-56,-70,-24,-107,-151,-92,-73,-136
-136,-126,9,131,-73,-58,-24,-97,-141,-87,-68,-131
-136,-126,9,131,-73,-58,-24,-87,-136,-78,-53,-122
-141,-122,19,131,-80,-51,-29,-73,-126,-73,-43,-112
-126,-117,9,122,-68,-53,-34,-82,-136,-92,-48,-102
-112,-122,-9,117,-51,-65,-39,-82,-141,-92,-48,-102
-107,-117,-9,112,-48,-63,-43,-82,-146,-92,-43,-102
-82,-112,-29,97,-26,-70,-48,-82,-141,-82,-43,-102
-53,-112,-58,82,2,-85,-43,-78,-92,-53,-48,-117
-58,-122,-63,90,2,-92,-39,-87,-122,-78,-68,-136
-112,-112,0,112,-56,-56,-24,-78,-151,-117,-73,-122
-117,-78,39,97,-78,-19,-4,-63,-151,-131,-68,-107
-117,-87,29,102,-73,-29,19,-34,-107,-102,-58,-112
-141,-117,24,129,-82,-46,58,19,-43,-34,-29,-112
-146,-112,34,129,-90,-39,117,92,39,48,-4,-97
-165,-53,112,109,-139,29,180,151,102,97,19,-82
-175,0,175,87,-175,87,229,200,156,107,58,-63
-156,14,170,70,-163,92,219,229,224,141,87,-43
-107,24,131,41,-119,78,195,239,292,214,146,-14
-58,34,92,12,-75,63,200,229,356,326,224,43
-29,43,73,-7,-51,58,170,170,434,448,322,117
24,92,68,-58,-21,80,63,58,497,566,434,224
102,185,82,-143,9,134,-82,-102,546,658,546,346
195,302,107,-248,43,204,-263,-268,595,761,668,473
331,405,73,-368,129,239,-439,-390,653,868,785,566
473,448,-24,-461,248,212,-570,-483,658,893,844,605
517,429,-87,-473,302,170,-663,-590,561,824,844,634
546,419,-126,-483,336,146,-785,-756,400,702,775,614
634,434,-200,-534,417,117,-893,-912,224,546,658,546
717,409,-307,-563,512,51,-985,-1019,0,331,478,439
741,317,-424,-529,583,-53,-1058,-1117,-273,58,283,317
717,165,-551,-441,634,-192,-1102,-1234,-580,-214,73,151
722,39,-683,-380,702,-322,-1151,-1420,-893,-444,-117,4
766,0,-766,-383,766,-383,-1263,-1605,-1117,-600,-234,-73
795,4,-790,-400,793,-392,-1356,-1727,-1239,-683,-287,-117
766,-39,-805,-363,785,-422,-1346,-1727,-1259,-717,-331,-180
751,-87,-839,-331,795,-463,-1288,-1639,-1195,-712,-361,-219
736,-117,-854,-309,795,-485,-1239,-1517,-1156,-697,-380,-248
707,-175,-883,-265,795,-529,-1161,-1385,-1132,-727,-444,-307
663,-253,-917,-204,790,-585,-1073,-1224,-1117,-795,-522,-370
585,-307,-893,-139,739,-600,-966,-1112,-1107,-854,-585,-414
502,-361,-863,-70,683,-612,-834,-1039,-1083,-893,-624,-468
439,-395,-834,-21,636,-614,-722,-951,-1000,-844,-595,-488
380,-405,-785,12,583,-595,-634,-858,-902,-751,-541,-473
322,-405,-727,41,524,-566,-570,-790,-863,-712,-522,-463
278,-400,-678,61,478,-539,-497,-717,-805,-673,-492,-434
219,-346,-566,63,392,-456,-400,-605,-692,-570,-429,-380
170,-302,-473,65,322,-387,-341,-497,-595,-463,-361,-346
141,-258,-400,58,270,-329,-283,-395,-527,-409,-307,-312
122,-185,-307,31,214,-246,-229,-331,-444,-356,-248,-258
107,-126,-234,9,170,-180,-180,-292,-356,-268,-185,-209
63,-136,-200,36,131,-168,-141,-253,-322,-234,-141,-180
29,-151,-180,61,104,-165,-112,-214,-317,-239,-146,-190
29,-126,-156,48,92,-141,-73,-156,-263,-209,-136,-195
19,-107,-126,43,73,-117,-63,-102,-195,-126,-102,-156
14,-87,-102,36,58,-95,-97,-68,-190,-117,-87,-122
9,-87,-97,39,53,-92,-102,-39,-219,-170,-122,-141
-24,-122,-97,73,36,-109,-87,-4,-190,-165,-122,-156
-53,-122,-68,87,7,-95,-78,29,-131,-97,-92,-141
-68,-131,-63,100,-2,-97,-68,34,-136,-92,-73,-136
-78,-131,-53,104,-12,-92,-68,39,-131,-87,-68,-131
-82,-117,-34,100,-24,-75,-68,39,-141,-87,-63,-126
-92,-112,-19,102,-36,-65,-63,43,-156,-87,-48,-122
-78,-92,-14,85,-31,-53,-43,58,-146,-87,-58,-122
-73,-87,-14,80,-29,-51,-39,73,-131,-78,-58,-112
-63,-87,-24,75,-19,-56,-24,78,-131,-73,-48,-107
-58,-87,-29,73,-14,-58,-14,87,-126,-73,-48,-102
-63,-82,-19,73,-21,-51,0,73,-122,-82,-68,-107
-68,-78,-9,73,-29,-43,14,68,-107,-87,-68,-112
-68,-78,-9,73,-29,-43,34,63,-97,-92,-63,-117
-68,-82,-14,75,-26,-48,58,58,-92,-97,-58,-117
-58,-73,-14,65,-21,-43,53,39,-92,-87,-53,-107
-58,-63,-4,61,-26,-34,53,34,-92,-82,-48,-102
-68,-48,19,58,-43,-14,63,34,-82,-78,-43,-102
-78,-39,39,58,-58,0,63,39,-78,-73,-43,-107
-73,-43,29,58,-51,-7,78,43,-87,-82,-63,-112
-58,-53,4,56,-31,-24,82,39,-73,-87,-63,-112
-63,-58,4,61,-34,-26,87,43,-68,-82,-68,-112
-58,-58,0,58,-29,-29,92,48,-68,-87,-68,-97
-78,-78,0,78,-39,-39,102,63,-58,-82,-53,-92
-78,-82,-4,80,-36,-43,97,63,-68,-82,-53,-82
-87,-97,-9,92,-39,-53,97,73,-68,-92,-53,-87
-92,-112,-19,102,-36,-65,97,78,-63,-82,-48,-87
-82,-107,-24,95,-29,-65,97,102,-48,-82,-48,-82
-82,-102,-19,92,-31,-61,92,112,-43,-82,-43,-78
-82,-102,-19,92,-31,-61,92,122,-43,-82,-29,-73
-82,-97,-14,90,-34,-56,92,136,-29,-87,-29,-68
-87,-87,0,87,-43,-43,97,126,-39,-73,-19,-63
-92,-92,0,92,-46,-46,97,126,-34,-58,-9,-58
-97,-107,-9,102,-43,-58,97,141,-24,-43,-4,-53
-102,-117,-14,109,-43,-65,97,141,-19,-29,0,-58
-107,-122,-14,114,-46,-68,97,126,-34,-53,-4,-78
-107,-122,-14,114,-46,-68,97,122,-34,-68,-4,-87
-112,-117,-4,114,-53,-61,102,117,-29,-82,-9,-92
-112,-122,-9,117,-51,-65,102,117,-24,-87,-19,-97
-97,-146,-48,122,-24,-97,92,112,-29,-78,-14,-102
-87,-161,-73,124,-7,-117,87,107,-29,-63,-4,-107
-73,-165,-92,119,9,-129,78,92,-14,-63,-24,-107
-34,-161,-126,97,46,-143,78,78,-24,-68,-24,-107
-34,-185,-151,109,58,-168,78,82,-9,-63,-9,-102
-63,-190,-126,126,31,-158,78,82,-4,-63,4,-92
-78,-200,-122,139,21,-161,78,92,14,-58,24,-82
-107,-200,-92,153,-7,-146,78,102,24,-48,29,-78
-136,-190,-53,163,-41,-122,78,112,39,-14,43,-68
-126,-175,-48,151,-39,-112,73,112,58,0,58,-58
-107,-175,-68,141,-19,-122,58,112,73,14,78,-48
-97,-175,-78,136,-9,-126,53,112,68,29,92,-39
-107,-180,-73,143,-17,-126,48,107,58,19,78,-53
-107,-180,-73,143,-17,-126,43,102,63,14,78,-63
-107,-185,-78,146,-14,-131,43,102,68,19,82,-68
-117,-185,-68,151,-24,-126,39,102,73,14,82,-68
-126,-190,-63,158,-31,-126,39,102,73,9,82,-58
-136,-195,-58,165,-39,-126,39,117,73,19,82,-58
-136,-200,-63,168,-36,-131,43,122,92,24,87,-58
-136,-200,-63,168,-36,-131,53,126,92,29,87,-68
-122,-190,-68,156,-26,-129,43,131,97,24,92,-78
-122,-190,-68,156,-26,-129,53,136,117,24,87,-73
-126,-190,-63,158,-31,-126,63,146,122,29,82,-73
-136,-190,-53,163,-41,-122,78,161,126,29,78,-73
-131,-200,-68,165,-31,-134,87,161,146,43,78,-78
-126,-185,-58,156,-34,-122,92,170,151,53,78,-82
-117,-185,-68,151,-24,-126,102,180,165,58,82,-82
-102,-180,-78,141,-12,-129,107,190,180,78,92,-82
-117,-161,-43,139,-36,-102,117,185,175,73,102,-73
-131,-156,-24,143,-53,-90,131,195,175,78,102,-73
-136,-151,-14,143,-61,-82,146,219,185,82,107,-73
-136,-156,-19,146,-58,-87,151,234,180,82,107,-73
-117,-136,-19,126,-48,-78,151,234,195,87,92,-78
-112,-126,-14,119,-48,-70,146,244,204,87,97,-82
-102,-122,-19,112,-41,-70,151,263,214,92,92,-78
-97,-117,-19,107,-39,-68,146,263,229,92,92,-78
-112,-117,-4,114,-53,-61,156,292,258,107,112,-68
-126,-122,4,124,-65,-58,165,326,283,126,126,-63
-126,-131,-4,129,-61,-68,170,341,287,131,136,-58
-131,-131,0,131,-65,-65,175,356,302,151,151,-48
-102,-117,-14,109,-43,-65,175,361,312,151,156,-53
-87,-92,-4,90,-41,-48,170,375,317,156,161,-48
-78,-78,0,78,-39,-39,165,395,326,161,165,-48
-68,-39,29,53,-48,-4,161,409,346,170,175,-34
-58,-19,39,39,-48,9,170,414,351,195,195,-24
-53,-9,43,31,-48,17,170,419,366,209,209,-19
-43,0,43,21,-43,21,165,429,380,209,229,-9
-29,19,48,4,-39,34,156,424,380,214,234,-9
-9,39,48,-14,-29,43,146,434,375,224,248,0
4,63,58,-34,-26,61,141,439,375,224,244,0
-4,78,82,-36,-43,80,136,458,385,229,258,4
0,97,97,-48,-48,97,131,463,390,234,263,14
14,112,97,-63,-41,104,141,468,390,224,273,4
34,126,92,-80,-29,109,131,473,385,234,278,9
53,136,82,-95,-14,109,136,483,390,239,283,19
58,146,87,-102,-14,117,141,488,385,239,297,24
68,146,78,-107,-4,112,141,502,385,248,292,14
68,165,97,-117,-14,131,136,497,390,253,297,14
78,175,97,-126,-9,136,126,497,395,258,312,24
82,185,102,-134,-9,143,126,497,395,258,312,24
92,209,117,-151,-12,163,117,478,390,258,322,39
102,214,112,-158,-4,163,107,463,385,258,312,39
122,219,97,-170,12,158,82,458,375,263,322,39
141,234,92,-187,24,163,78,439,375,268,326,43
161,253,92,-207,34,173,58,429,366,253,317,34
161,239,78,-200,41,158,43,414,346,248,302,34
180,248,68,-214,56,158,19,390,336,244,283,34
200,258,58,-229,70,158,9,366,317,229,273,34
190,268,78,-229,56,173,4,346,312,229,283,39
180,278,97,-229,41,187,-4,326,312,234,292,63
170,278,107,-224,31,192,-4,312,312,239,302,82
151,273,122,-212,14,197,-9,292,307,239,322,87
151,258,107,-204,21,183,-14,278,297,234,322,87
161,258,97,-209,31,178,-29,248,278,219,312,87
165,268,102,-217,31,185,-34,234,268,224,292,82
165,244,78,-204,43,161,-34,229,263,224,273,68
156,248,92,-202,31,170,-43,200,234,200,258,73
151,244,92,-197,29,168,-63,165,209,165,258,73
141,248,107,-195,17,178,-68,151,195,151,258,68
122,244,122,-183,0,183,-73,131,161,131,248,58
122,244,122,-183,0,183,-58,117,161,126,239,58
122,244,122,-183,0,183,-48,112,151,117,229,43
126,239,112,-183,7,175,-43,92,141,112,224,34
126,219,92,-173,17,156,-39,73,131,92,214,29
136,209,73,-173,31,141,-39,73,117,87,209,29
136,200,63,-168,36,131,-43,53,112,82,195,29
136,185,48,-161,43,117,-43,39,97,78,190,29
136,185,48,-161,43,117,-43,24,92,73,185,19
146,185,39,-165,53,112,-39,24,87,73,190,19
141,185,43,-163,48,114,-34,9,78,63,200,4
117,170,53,-143,31,112,-29,0,68,53,204,0
92,170,78,-131,7,124,-19,-9,58,43,195,0
117,185,68,-151,24,126,-34,-14,58,58,204,0
131,180,48,-156,41,114,-48,-19,53,58,200,-4
136,180,43,-158,46,112,-43,-24,48,58,204,-4
151,175,24,-163,63,100,-43,-29,43,63,209,0
131,165,34,-148,48,100,-34,-43,34,39,200,-4
107,165,58,-136,24,112,-24,-48,19,29,200,-9
107,175,68,-141,19,122,-19,-58,4,14,195,-19
102,185,82,-143,9,134,-19,-63,-14,0,190,-29
117,185,68,-151,24,126,-24,-63,-14,-9,180,-39
117,185,68,-151,24,126,-24,-63,-14,0,180,-19
122,185,63,-153,29,124,-19,-63,-14,0,180,-14
126,185,58,-156,34,122,-24,-63,-24,-9,180,-29
126,161,34,-143,46,97,-29,-78,-29,0,180,-29
126,151,24,-139,51,87,-34,-82,-39,-9,180,-24
126,151,24,-139,51,87,-34,-82,-48,-14,185,-19
126,151,24,-139,51,87,-34,-82,-58,-19,190,-9
122,136,14,-129,53,75,-43,-78,-53,-29,200,-9
117,136,19,-126,48,78,-39,-82,-53,-29,190,-9
112,131,19,-122,46,75,-39,-82,-58,-14,180,-19
117,131,14,-124,51,73,-29,-58,-39,-9,180,-19
117,136,19,-126,48,78,-29,-68,-43,4,195,-24
117,146,29,-131,43,87,-34,-73,-39,14,209,-19
117,151,34,-134,41,92,-43,-78,-39,19,219,-14
117,156,39,-136,39,97,-34,-78,-39,19,224,-9
112,146,34,-129,39,90,-43,-78,-53,-9,204,-9
112,146,34,-129,39,90,-29,-78,-68,-19,195,-19
112,146,34,-129,39,90,-14,-63,-73,-24,190,-19
97,146,48,-122,24,97,-9,-63,-78,-34,190,-24
97,122,24,-109,36,73,0,-48,-68,-29,200,-34
92,112,19,-102,36,65,-9,-43,-78,-39,190,-34
92,97,4,-95,43,51,-14,-34,-78,-43,180,-34
107,73,-34,-90,70,19,-29,-29,-78,-48,170,-53
122,73,-48,-97,85,12,-14,-14,-68,-39,170,-53
112,82,-29,-97,70,26,0,-4,-63,-39,175,-48
78,73,-4,-75,41,34,4,0,-63,-39,170,-43
82,73,-9,-78,46,31,9,0,-63,-39,170,-29
82,82,0,-82,41,41,29,4,-63,-39,170,-24
92,82,-9,-87,51,36,48,9,-73,-34,170,-19
92,82,-9,-87,51,36,63,24,-73,-24,175,-29
63,58,-4,-61,34,26,87,39,-73,-14,175,-39
73,63,-9,-68,41,26,87,48,-68,-19,170,-39
78,78,0,-78,39,39,82,48,-58,-19,175,-39
87,92,4,-90,41,48,78,53,-53,-9,180,-34
92,107,14,-100,39,61,73,58,-53,-9,175,-34
97,92,-4,-95,51,43,82,48,-73,-29,165,-39
102,87,-14,-95,58,36,82,48,-78,-58,141,-39
107,63,-43,-85,75,9,87,48,-78,-48,131,-24
112,73,-39,-92,75,17,87,58,-63,-34,126,-4
117,87,-29,-102,73,29,107,82,-39,-4,151,9
117,82,-34,-100,75,24,112,92,-34,4,156,9
117,78,-39,-97,78,19,107,102,-19,9,156,14
102,58,-43,-80,73,7,112,122,-4,19,170,19
92,63,-29,-78,61,17,97,122,9,24,185,34
97,78,-19,-87,58,29,92,112,9,29,185,39
97,82,-14,-90,56,34,87,92,9,34,185,43
87,87,0,-87,43,43,82,117,14,39,190,48
102,87,-14,-95,58,36,68,107,29,29,185,39
112,97,-14,-104,63,41,58,102,34,34,195,34
117,97,-19,-107,68,39,53,102,34,34,195,24
107,97,-9,-102,58,43,48,97,43,34,195,24
122,107,-14,-114,68,46,48,87,58,48,204,29
126,107,-19,-117,73,43,48,78,58,48,195,43
131,112,-19,-122,75,46,53,73,68,48,190,43
141,112,-29,-126,85,41,58,68,73,39,190,24
112,92,-19,-102,65,36,73,43,48,9,200,39
73,82,9,-78,31,46,68,29,48,-9,185,34
63,82,19,-73,21,51,48,14,58,-9,185,24
68,97,29,-82,19,63,29,19,87,0,195,29
73,102,29,-87,21,65,29,9,87,4,204,29
78,107,29,-92,24,68,29,9,87,9,204,29
82,112,29,-97,26,70,29,9,87,14,204,29
87,117,29,-102,29,73,29,9,87,19,204,29
102,141,39,-122,31,90,29,-4,92,29,219,34
117,156,39,-136,39,97,34,-14,107,43,234,43
126,165,39,-146,43,102,34,-24,117,58,248,53
136,175,39,-156,48,107,34,-34,122,68,258,63
126,170,43,-148,41,107,29,-24,117,63,258,53
117,170,53,-143,31,112,34,-24,117,63,248,53
112,170,58,-141,26,114,34,-24,126,63,268,48
102,165,63,-134,19,114,34,-24,136,63,268,48
102,175,73,-139,14,124,58,-9,131,43,258,48
107,185,78,-146,14,131,68,0,131,43,253,48
117,185,68,-151,24,126,78,4,136,39,258,48
122,185,63,-153,29,124,82,9,136,29,263,53
107,175,68,-141,19,122,87,-9,131,43,287,53
97,175,78,-136,9,126,78,-9,136,63,287,53
107,180,73,-143,17,126,73,-4,136,68,297,53
126,190,63,-158,31,126,63,-4,136,73,283,53
156,219,63,-187,46,141,43,-19,117,63,278,53
161,229,68,-195,46,148,34,-29,112,58,278,58
156,229,73,-192,41,151,29,-53,112,53,278,53
156,229,73,-192,41,151,19,-73,97,43,278,39
146,219,73,-183,36,146,14,-68,97,43,278,34
141,214,73,-178,34,143,4,-68,92,43,287,34
131,209,78,-170,26,143,0,-73,82,39,278,39
126,200,73,-163,26,136,0,-78,78,29,278,48
122,209,87,-165,17,148,-14,-87,73,24,278,63
117,209,92,-163,12,151,-19,-87,73,43,283,63
112,214,102,-163,4,158,-24,-78,82,53,292,63
117,214,97,-165,9,156,-29,-78,82,63,312,63
136,229,92,-183,21,161,-39,-92,78,73,307,73
136,229,92,-183,21,161,-43,-92,78,73,312,73
146,219,73,-183,36,146,-43,-82,78,73,307,68
161,214,53,-187,53,134,-48,-78,78,73,302,63
151,200,48,-175,51,124,-39,-68,78,68,297,63
146,185,39,-165,53,112,-39,-48,78,68,297,58
146,180,34,-163,56,107,-39,-39,73,68,297,58
141,161,19,-151,61,90,-29,-34,73,58,287,43
117,136,19,-126,48,78,-19,-34,68,53,283,34
117,112,-4,-114,61,53,-14,-34,58,53,273,29
117,107,-9,-112,63,48,-9,-39,48,48,273,24
107,97,-9,-102,58,43,-9,-39,43,43,268,24
112,87,-24,-100,68,31,0,-29,29,43,258,19
92,73,-19,-82,56,26,4,-34,29,24,248,9
78,73,-4,-75,41,34,9,-34,29,29,248,0
58,78,19,-68,19,48,19,-34,29,39,244,-4
53,78,24,-65,14,51,34,-39,19,34,229,-4
43,73,29,-58,7,51,39,-34,14,24,224,-9
39,58,19,-48,9,39,48,-34,14,19,219,-19
39,58,19,-48,9,39,48,-34,0,9,219,-19
43,53,9,-48,17,31,39,-39,0,19,219,-19
39,43,4,-41,17,24,39,-34,-4,19,214,-29
34,39,4,-36,14,21,48,-29,0,9,214,-29
24,34,9,-29,7,21,48,-24,9,14,219,-29
29,34,4,-31,12,19,39,-19,0,14,219,-24
24,34,9,-29,7,21,43,-19,-4,9,219,-24
24,34,9,-29,7,21,43,-9,-4,4,219,-24
24,39,14,-31,4,26,43,-9,-4,0,219,-24
19,29,9,-24,4,19,48,-9,-4,0,204,-29
14,29,14,-21,0,21,58,-4,-4,0,204,-29
9,29,19,-19,-4,24,63,0,-9,-9,200,-39
4,24,19,-14,-7,21,68,4,-9,-9,190,-43
4,34,29,-19,-12,31,63,4,-9,-24,190,-39
4,34,29,-19,-12,31,63,9,-9,-29,190,-34
4,34,29,-19,-12,31,63,19,-9,-29,195,-29
9,34,24,-21,-7,29,63,24,-9,-34,195,-19
0,29,29,-14,-14,29,43,14,-14,-48,190,-34
0,29,29,-14,-14,29,43,9,-14,-58,175,-43
14,24,9,-19,2,17,43,4,-19,-63,170,-48
24,24,0,-24,12,12,39,4,-19,-73,161,-53
14,14,0,-14,7,7,48,-4,-14,-78,170,-48
14,4,-9,-9,12,-2,48,-4,-14,-73,175,-43
4,4,0,-4,2,2,48,-4,-14,-68,185,-39
14,4,-9,-9,12,-2,48,-4,-4,-53,190,-34
14,-4,-19,-4,17,-12,53,-19,-14,-63,185,-48
0,-4,-4,2,2,-4,68,-9,-4,-58,195,-39
4,4,0,-4,2,2,73,9,14,-58,190,-34
0,9,9,-4,-4,9,92,43,24,-63,185,-29
-29,-9,19,19,-24,4,126,92,39,-43,175,-24
-63,-19,43,41,-53,12,175,146,92,-14,195,-34
-78,-4,73,41,-75,34,224,209,175,48,229,-19
-87,24,112,31,-100,68,287,287,268,117,263,4
-78,68,146,4,-112,107,326,346,351,185,302,34
-68,92,161,-12,-114,126,326,375,429,258,370,73
-48,122,170,-36,-109,146,312,356,488,341,448,122
0,170,170,-85,-85,170,278,278,541,444,536,190
78,239,161,-158,-41,200,219,151,600,556,634,283
170,297,126,-234,21,212,63,-9,634,653,727,370
297,361,63,-329,117,212,-141,-170,683,756,829,444
409,429,19,-419,195,224,-312,-268,751,858,941,531
507,473,-34,-490,270,219,-439,-322,819,936,1010,605
600,488,-112,-544,356,187,-570,-414,775,912,1029,663
653,517,-136,-585,395,190,-712,-570,649,824,1010,683
673,517,-156,-595,414,180,-814,-717,488,702,941,653
702,492,-209,-597,456,141,-893,-824,302,517,814,585
736,429,-307,-583,522,61,-976,-932,48,283,644,497
800,317,-483,-558,641,-82,-1049,-1068,-273,0,429,366
854,195,-658,-524,756,-231,-1141,-1273,-639,-292,200,180
868,117,-751,-492,810,-317,-1259,-1468,-912,-502,39,73
854,87,-766,-470,810,-339,-1351,-1595,-1049,-590,-19,34
863,63,-800,-463,832,-368,-1356,-1629,-1093,-634,-63,-9
873,19,-854,-446,863,-417,-1337,-1571,-1073,-658,-117,-92
839,-9,-849,-414,844,-429,-1278,-1464,-1049,-653,-146,-131
785,-58,-844,-363,814,-451,-1180,-1342,-1039,-668,-185,-161
795,-126,-922,-334,858,-524,-1083,-1200,-1024,-717,-258,-239
790,-175,-966,-307,878,-570,-966,-1088,-990,-746,-307,-292
692,-209,-902,-241,797,-556,-829,-1015,-941,-736,-322,-326
610,-234,-844,-187,727,-539,-717,-961,-897,-727,-331,-351
566,-248,-814,-158,690,-531,-624,-883,-834,-707,-331,-370
507,-268,-775,-119,641,-522,-527,-790,-756,-673,-307,-356
429,-268,-697,-80,563,-483,-424,-683,-678,-614,-278,-336
346,-244,-590,-51,468,-417,-331,-580,-600,-566,-248,-317
278,-219,-497,-29,387,-358,-244,-488,-517,-502,-214,-273
248,-195,-444,-26,346,-319,-165,-409,-429,-444,-165,-229
190,-161,-351,-14,270,-256,-97,-346,-351,-380,-102,-185
151,-107,-258,-21,204,-183,-24,-263,-278,-307,-43,-151
146,-48,-195,-48,170,-122,24,-204,-209,-248,0,-131
151,-29,-180,-61,165,-104,43,-156,-165,-214,34,-122
136,-24,-161,-56,148,-92,53,-126,-131,-180,68,-92
117,0,-117,-58,117,-58,63,-78,-87,-151,97,-58
97,9,-87,-53,92,-39,63,-43,-68,-126,122,-39
92,0,-92,-46,92,-46,58,-19,-53,-107,136,-24
78,-9,-87,-34,82,-48,73,0,-34,-102,141,-24
53,4,-48,-29,51,-21,97,34,-4,-87,151,-9
24,24,0,-24,12,12,117,58,4,-78,161,-14
24,24,0,-24,12,12,117,82,9,-73,175,-19
19,24,4,-21,7,14,117,97,24,-68,175,-14
19,39,19,-29,0,29,117,107,24,-68,175,-9
14,43,29,-29,-7,36,122,122,19,-68,185,-4
19,58,39,-39,-9,48,122,141,9,-78,190,0
24,68,43,-46,-9,56,126,161,24,-68,195,14
34,73,39,-53,-2,56,141,170,24,-63,209,24
39,78,39,-58,0,58,151,185,29,-63,214,34
43,82,39,-63,2,61,151,185,29,-82,204,34
48,87,39,-68,4,63,161,185,39,-87,204,34
58,87,29,-73,14,58,175,185,43,-92,209,34
68,82,14,-75,26,48,195,185,43,-97,214,39
68,82,14,-75,26,48,195,170,29,-92,219,58
68,82,14,-75,26,48,200,161,24,-92,224,63
58,87,29,-73,14,58,214,156,29,-92,229,63
48,87,39,-68,4,63,219,156,29,-92,229,58
48,87,39,-68,4,63,239,165,43,-82,229,63
58,82,24,-70,17,53,239,156,63,-78,239,73
48,82,34,-65,7,58,239,156,73,-63,244,82
48,87,39,-68,4,63,239,156,78,-58,253,107
48,82,34,-65,7,58,229,170,78,-63,248,117
58,92,34,-75,12,63,224,170,68,-63,248,131
58,92,34,-75,12,63,224,180,68,-73,248,131
63,92,29,-78,17,61,224,185,73,-63,253,136
73,102,29,-87,21,65,214,180,78,-58,244,141
73,102,29,-87,21,65,209,180,82,-53,248,146
73,97,24,-85,24,61,209,180,82,-48,263,151
73,97,24,-85,24,61,209,185,97,-48,263,156
68,87,19,-78,24,53,195,195,97,-39,258,161
63,82,19,-73,21,51,195,195,102,-29,263,165
58,68,9,-63,24,39,195,209,112,-19,263,170
53,58,4,-56,24,31,195,209,117,-9,263,165
73,63,-9,-68,41,26,200,200,122,-4,258,165
78,73,-4,-75,41,34,204,200,131,0,268,165
78,87,9,-82,34,48,214,200,146,4,273,170
82,92,9,-87,36,51,219,204,161,19,273,175
78,73,-4,-75,41,34,229,214,175,9,287,170
68,63,-4,-65,36,29,224,214,175,24,297,165
63,63,0,-63,31,31,214,204,190,24,278,165
82,73,-9,-78,46,31,214,195,180,19,278,165
97,48,-48,-73,73,0,209,180,180,19,263,151
82,43,-39,-63,61,2,204,180,180,24,268,151
82,34,-48,-58,65,-7,200,190,195,34,278,151
68,34,-34,-51,51,0,195,200,200,48,273,146
39,34,-4,-36,21,14,195,209,200,48,268,131
48,48,0,-48,24,24,190,209,214,48,263,126
68,48,-19,-58,43,14,175,209,224,48,263,122
78,48,-29,-63,53,9,170,209,214,48,258,117
78,43,-34,-61,56,4,170,229,214,43,244,97
78,43,-34,-61,56,4,170,229,219,43,244,82
78,39,-39,-58,58,0,175,234,224,53,248,73
68,39,-29,-53,48,4,175,239,229,53,248,68
68,48,-19,-58,43,14,180,234,239,58,239,68
58,48,-9,-53,34,19,185,253,239,68,239,68
58,48,-9,-53,34,19,195,263,258,73,244,68
58,53,-4,-56,31,24,209,273,258,78,244,58
48,43,-4,-46,26,19,200,268,258,73,239,43
43,43,0,-43,21,21,209,273,273,73,234,43
34,43,9,-39,12,26,219,283,273,78,229,39
19,43,24,-31,-2,34,234,297,273,78,224,34
9,53,43,-31,-17,48,248,307,283,78,224,9
9,68,58,-39,-24,63,248,317,287,82,224,4
14,68,53,-41,-19,61,253,326,302,82,229,4
24,73,48,-48,-12,61,253,336,317,97,239,4
24,73,48,-48,-12,61,253,341,322,92,224,-9
14,68,53,-41,-19,61,268,351,322,97,219,-14
14,63,48,-39,-17,56,283,375,331,102,219,-19
19,48,29,-34,-4,39,287,390,326,102,214,-24
29,63,34,-46,-2,48,302,405,331,102,214,-34
24,68,43,-46,-9,56,302,419,341,107,224,-34
24,68,43,-46,-9,56,312,444,351,117,224,-24
19,68,48,-43,-14,58,312,448,366,122,229,-19
4,73,68,-39,-31,70,317,448,385,131,229,-24
0,73,73,-36,-36,73,322,473,400,146,234,-24
9,68,58,-39,-24,63,322,478,395,146,234,-24
14,73,58,-43,-21,65,322,483,400,161,239,-19
9,58,48,-34,-19,53,317,507,419,161,244,-24
9,63,53,-36,-21,58,317,522,424,165,248,-19
4,58,53,-31,-24,56,317,541,434,170,253,-19
0,78,78,-39,-39,78,317,556,453,180,263,-4
-4,78,82,-36,-43,80,307,566,448,185,263,4
-14,78,92,-31,-53,85,307,575,463,200,268,9
-19,78,97,-29,-58,87,302,590,478,200,278,19
-19,87,107,-34,-63,97,292,590,478,204,273,19
-14,92,107,-39,-61,100,283,575,483,204,263,19
-4,102,107,-48,-56,104,278,575,483,204,253,19
-19,102,122,-41,-70,112,273,590,492,209,263,24
-19,107,126,-43,-73,117,268,590,497,214,263,34
-4,107,112,-51,-58,109,253,590,492,219,263,43
14,117,102,-65,-43,109,239,590,492,234,268,48
34,122,87,-78,-26,104,239,595,502,244,273,58
39,126,87,-82,-24,107,239,595,502,248,287,63
34,131,97,-82,-31,114,248,595,507,258,278,73
29,146,117,-87,-43,131,244,585,507,263,287,73
34,151,117,-92,-41,134,234,580,507,268,307,82
34,156,122,-95,-43,139,234,575,502,268,312,82
48,170,122,-109,-36,146,214,575,488,253,297,82
63,175,112,-119,-24,143,204,561,483,248,273,78
87,180,92,-134,-2,136,180,556,473,248,268,73
112,195,82,-153,14,139,175,536,473,248,258,73
107,209,102,-158,2,156,175,536,458,248,268,87
92,190,97,-141,-2,143,170,522,444,248,263,92
97,195,97,-146,0,146,156,497,439,248,253,97
102,200,97,-151,2,148,156,473,424,239,253,102
97,224,126,-161,-14,175,151,453,414,248,273,117
92,239,146,-165,-26,192,141,434,409,253,283,141
87,244,156,-165,-34,200,141,419,405,258,292,161
73,244,170,-158,-48,207,136,400,395,258,312,165
73,229,156,-151,-41,192,131,380,380,253,317,161
82,229,146,-156,-31,187,117,346,356,229,302,165
87,239,151,-163,-31,195,112,326,341,224,278,165
87,214,126,-151,-19,170,112,317,331,214,253,156
92,214,122,-153,-14,168,87,273,307,195,234,165
102,214,112,-158,-4,163,63,224,278,165,229,170
107,224,117,-165,-4,170,53,195,258,156,224,170
102,224,122,-163,-9,173,43,161,219,141,209,165
107,229,122,-168,-7,175,34,156,204,122,209,165
112,234,122,-173,-4,178,39,151,190,107,200,161
122,234,112,-178,4,173,39,131,175,97,195,161
126,219,92,-173,17,156,39,112,161,73,185,165
136,214,78,-175,29,146,24,92,122,53,175,170
136,209,73,-173,31,141,14,63,112,43,156,175
136,200,63,-168,36,131,9,39,92,34,146,180
136,204,68,-170,34,136,4,14,82,24,136,175
141,214,73,-178,34,143,-4,14,78,24,146,175
141,214,73,-178,34,143,-4,0,68,14,151,170
122,200,78,-161,21,139,-4,-9,58,4,151,175
102,200,97,-151,2,148,0,-19,48,-4,136,185
102,204,102,-153,0,153,-4,-19,48,4,151,200
102,200,97,-151,2,148,-19,-19,43,0,151,200
92,200,107,-146,-7,153,-14,-19,39,-4,161,204
92,195,102,-143,-4,148,-14,-19,34,-4,170,214
107,190,82,-148,12,136,-19,-43,29,-19,161,200
107,195,87,-151,9,141,-24,-48,19,-19,161,195
131,209,78,-170,26,143,-34,-58,9,-24,156,185
151,224,73,-187,39,148,-48,-63,-4,-29,151,175
141,209,68,-175,36,139,-58,-73,-9,-53,141,165
136,204,68,-170,34,136,-53,-73,-14,-48,141,185
136,200,63,-168,36,131,-43,-73,-19,-53,141,190
136,195,58,-165,39,126,-43,-73,-34,-68,141,175
151,180,29,-165,61,104,-48,-87,-34,-68,136,180
156,170,14,-163,70,92,-53,-92,-39,-78,131,180
161,170,9,-165,75,90,-53,-92,-43,-82,131,180
165,170,4,-168,80,87,-53,-92,-48,-87,131,185
165,165,0,-165,82,82,-43,-107,-53,-87,136,185
165,165,0,-165,82,82,-39,-112,-53,-87,131,185
165,161,-4,-163,85,78,-39,-112,-58,-73,126,175
175,161,-14,-168,95,73,-29,-87,-39,-68,131,175
175,170,-4,-173,90,82,-19,-82,-24,-68,141,175
165,175,9,-170,78,92,-24,-82,-19,-63,151,185
156,175,19,-165,68,97,-34,-82,-19,-63,156,195
146,175,29,-161,58,102,-24,-78,-19,-68,156,204
161,165,4,-163,78,85,-39,-87,-34,-82,146,204
170,165,-4,-168,87,80,-29,-87,-48,-87,136,185
180,165,-14,-173,97,75,-19,-73,-53,-87,131,175
175,165,-9,-170,92,78,-19,-73,-58,-92,131,161
161,151,-9,-156,85,70,-14,-63,-53,-92,136,161
151,151,0,-151,75,75,-19,-63,-58,-107,131,161
146,146,0,-146,73,73,-19,-58,-53,-117,126,161
156,131,-24,-143,90,53,-29,-58,-48,-126,122,141
175,131,-43,-153,109,43,-24,-63,-63,-136,122,146
170,141,-29,-156,100,56,-9,-53,-63,-136,126,146
141,131,-9,-136,75,61,-4,-48,-68,-136,122,146
151,131,-19,-141,85,56,0,-48,-73,-136,122,156
161,141,-19,-151,90,61,0,-53,-82,-146,107,156
180,131,-48,-156,114,41,9,-58,-92,-151,102,165
190,122,-68,-156,129,26,14,-53,-92,-151,102,161
170,87,-82,-129,126,2,29,-48,-92,-151,97,156
151,82,-68,-117,109,7,24,-24,-87,-141,87,175
136,97,-39,-117,87,29,24,-19,-78,-136,97,175
126,112,-14,-119,70,48,24,-9,-73,-122,107,180
112,126,14,-119,48,70,24,0,-73,-117,107,180
102,107,4,-104,48,56,34,9,-82,-107,97,180
102,107,4,-104,48,56,34,9,-87,-126,82,185
102,87,-14,-95,58,36,39,9,-87,-107,82,204
102,102,0,-102,51,51,39,19,-73,-82,87,229
112,107,-4,-109,58,51,29,19,-68,-82,92,229
117,102,-14,-109,65,43,24,14,-82,-82,78,224
122,97,-24,-109,73,36,9,9,-87,-87,58,224
112,78,-34,-95,73,21,4,14,-92,-87,53,224
107,63,-43,-85,75,9,14,29,-82,-73,68,234
117,68,-48,-92,82,9,14,24,-87,-68,68,234
122,63,-58,-92,90,2,14,9,-92,-63,68,234
117,58,-58,-87,87,0,14,39,-92,-58,73,234
102,48,-53,-75,78,-2,9,53,-87,-63,68,244
102,58,-43,-80,73,7,9,53,-82,-53,78,248
97,58,-39,-78,68,9,14,58,-82,-48,78,248
78,58,-19,-68,48,19,19,58,-73,-43,78,258
97,48,-48,-73,73,0,19,63,-97,-48,78,263
107,48,-58,-78,82,-4,19,48,-87,-48,68,263
87,39,-48,-63,68,-4,24,53,-73,-34,73,278
78,39,-39,-58,58,0,29,58,-68,-29,78,283
68,39,-29,-53,48,4,34,63,-63,-24,82,287
58,39,-19,-48,39,9,39,68,-58,-19,87,292
53,34,-19,-43,36,7,53,68,-43,-19,97,297
58,39,-19,-48,39,9,63,63,-29,-14,107,307
58,39,-19,-48,39,9,68,58,-19,-9,117,317
58,39,-19,-48,39,9,73,53,-14,-9,122,326
68,43,-24,-56,46,9,73,43,-9,-24,107,322
78,43,-34,-61,56,4,73,43,-9,-24,92,317
92,43,-48,-68,70,-2,68,43,0,-24,107,307
102,39,-63,-70,82,-12,63,43,9,-24,102,302
92,48,-43,-70,68,2,68,43,9,-34,107,302
87,58,-29,-73,58,14,68,48,14,-24,107,302
87,58,-29,-73,58,14,68,48,24,-19,117,302
82,58,-24,-70,53,17,63,48,29,-19,126,307
63,48,-14,-56,39,17,48,34,34,-29,126,312
48,48,0,-48,24,24,29,29,39,-14,122,307
53,53,0,-53,26,26,14,29,39,-14,126,302
68,63,-4,-65,36,29,-4,24,39,-14,107,297
87,73,-14,-80,51,29,-39,4,29,-29,107,292
92,73,-19,-82,56,26,-53,0,24,-29,112,292
87,63,-24,-75,56,19,-63,-19,24,-29,117,283
87,53,-34,-70,61,9,-78,-34,9,-34,122,263
82,68,-14,-75,48,26,-82,-34,19,-29,131,248
82,78,-4,-80,43,36,-92,-29,24,-24,141,239
78,87,9,-82,34,48,-97,-29,24,-24,131,234
78,92,14,-85,31,53,-97,-29,29,-29,131,234
92,92,0,-92,46,46,-102,-34,24,-43,117,224
97,92,-4,-95,51,43,-107,-39,24,-34,117,219
102,97,-4,-100,53,46,-112,-34,34,-34,122,214
117,97,-19,-107,68,39,-117,-39,34,-34,136,209
126,107,-19,-117,73,43,-122,-43,39,-24,126,214
117,112,-4,-114,61,53,-122,-43,39,-24,136,219
117,107,-9,-112,63,48,-117,-34,39,-24,136,219
122,107,-14,-114,68,46,-117,-29,39,-24,136,219
122,82,-39,-102,80,21,-107,-29,48,-19,131,204
117,68,-48,-92,82,9,-107,-19,48,-19,131,195
117,63,-53,-90,85,4,-107,-19,43,-19,131,190
112,43,-68,-78,90,-12,-97,-24,43,-29,122,170
92,39,-53,-65,73,-7,-87,-34,48,-24,117,165
87,24,-63,-56,75,-19,-82,-34,39,-24,107,156
82,29,-53,-56,68,-12,-78,-39,29,-29,107,146
68,29,-39,-48,53,-4,-78,-39,24,-34,102,141
58,14,-43,-36,51,-14,-78,-29,19,-29,82,131
34,-4,-39,-14,36,-21,-73,-34,19,-53,73,117
14,-9,-24,-2,19,-17,-68,-34,19,-53,73,102
-9,-9,0,9,-4,-4,-58,-34,19,-48,68,92
0,-9,-9,4,4,-9,-43,-43,4,-39,53,78
-4,-14,-9,9,2,-12,-39,-43,-4,-43,48,68
-4,-29,-24,17,9,-26,-29,-48,-9,-43,43,53
0,-29,-29,14,14,-29,-29,-53,-29,-48,43,48
-4,-39,-34,21,14,-36,-34,-63,-29,-48,39,29
-9,-43,-34,26,12,-39,-29,-63,-34,-48,29,19
-14,-43,-29,29,7,-36,-14,-63,-29,-58,24,19
-24,-43,-19,34,-2,-31,-9,-63,-19,-53,24,19
-24,-53,-29,39,2,-41,0,-58,-34,-48,14,9
-34,-53,-19,43,-7,-36,4,-58,-43,-48,14,4
-39,-53,-14,46,-12,-34,4,-48,-48,-48,14,0
-43,-48,-4,46,-19,-26,4,-48,-53,-48,14,-4
-48,-53,-4,51,-21,-29,4,-63,-63,-53,0,-4
-53,-58,-4,56,-24,-31,9,-63,-63,-58,0,-9
-58,-63,-4,61,-26,-34,9,-63,-68,-73,-4,-24
-63,-73,-9,68,-26,-41,9,-63,-68,-78,-14,-34
-63,-63,0,63,-31,-31,14,-58,-68,-73,-14,-39
-63,-63,0,63,-31,-31,14,-48,-68,-68,-14,-43
-63,-63,0,63,-31,-31,14,-34,-68,-58,-9,-48
-58,-63,-4,61,-26,-34,14,-24,-68,-53,-9,-48
-43,-53,-9,48,-17,-31,14,-29,-82,-58,-19,-53
-39,-48,-9,43,-14,-29,14,-39,-82,-68,-29,-63
-19,-48,-29,34,4,-39,14,-48,-87,-73,-29,-68
-4,-43,-39,24,17,-41,9,-53,-87,-82,-34,-73
-19,-53,-34,36,7,-43,0,-53,-97,-92,-48,-82
-24,-63,-39,43,7,-51,0,-53,-102,-92,-48,-82
-39,-63,-24,51,-7,-43,0,-53,-107,-92,-43,-82
-34,-63,-29,48,-2,-46,0,-53,-102,-82,-43,-82
-63,-53,9,58,-36,-21,34,-39,-92,-53,-19,-58
-58,-53,4,56,-31,-24,48,-29,-73,-48,-19,-48
-92,-63,29,78,-61,-17,73,9,-63,-48,-14,-34
-126,-68,58,97,-92,-4,102,34,-43,-53,-19,-39
-146,-78,68,112,-107,-4,146,82,-9,-34,-29,-43
-151,-58,92,104,-122,17,204,165,73,4,-19,-34
-146,-14,131,80,-139,58,263,258,165,68,24,0
-126,14,141,56,-134,78,297,317,239,146,68,34
-107,48,156,29,-131,102,297,346,302,214,117,63
-97,82,180,7,-139,131,278,326,370,287,195,122
-78,112,190,-17,-134,151,263,258,429,380,292,200
-19,180,200,-80,-109,190,190,112,473,483,380,297
78,258,180,-168,-51,219,43,-53,522,605,497,400
190,326,136,-258,26,231,-131,-214,566,722,610,507
307,380,73,-344,117,226,-297,-366,624,824,722,610
409,419,9,-414,200,214,-448,-463,673,897,814,688
478,453,-24,-466,251,214,-605,-566,644,907,854,761
531,488,-43,-509,287,222,-766,-727,512,834,834,800
605,507,-97,-556,351,204,-907,-873,366,707,775,790
644,488,-156,-566,400,165,-1010,-990,195,536,678,732
683,444,-239,-563,461,102,-1107,-1107,-29,302,512,653
746,351,-395,-549,570,-21,-1200,-1205,-302,48,331,556
819,219,-600,-519,710,-190,-1283,-1351,-624,-234,117,434
854,117,-736,-485,795,-309,-1395,-1527,-922,-478,-63,307
878,97,-780,-488,829,-341,-1493,-1664,-1117,-600,-156,239
873,97,-775,-485,824,-339,-1507,-1722,-1205,-658,-204,190
893,43,-849,-468,871,-402,-1473,-1698,-1200,-683,-258,136
873,0,-873,-436,873,-436,-1405,-1620,-1161,-697,-283,92
819,-39,-858,-390,839,-448,-1298,-1483,-1117,-712,-322,53
814,-117,-932,-348,873,-524,-1190,-1322,-1098,-756,-400,-24
824,-185,-1010,-319,917,-597,-1083,-1180,-1063,-805,-463,-112
751,-224,-976,-263,863,-600,-966,-1098,-1029,-805,-492,-156
644,-278,-922,-183,783,-600,-868,-1024,-990,-795,-517,-190
570,-322,-893,-124,732,-607,-775,-961,-936,-785,-527,-224
517,-336,-854,-90,685,-595,-692,-893,-883,-746,-507,-224
439,-336,-775,-51,607,-556,-614,-819,-814,-692,-473,-200
351,-307,-658,-21,505,-483,-512,-732,-736,-634,-434,-170
297,-263,-561,-17,429,-412,-429,-629,-658,-585,-385,-141
278,-229,-507,-24,392,-368,-370,-546,-575,-531,-351,-117
239,-204,-444,-17,341,-324,-322,-478,-488,-463,-302,-82
180,-180,-361,0,270,-270,-244,-385,-409,-390,-239,-48
141,-156,-297,7,219,-226,-190,-312,-336,-336,-200,-24
126,-136,-263,4,195,-200,-161,-273,-297,-287,-165,4
112,-126,-239,7,175,-183,-141,-253,-263,-263,-131,34
78,-102,-180,12,129,-141,-151,-234,-229,-229,-97,63
29,-68,-97,19,63,-82,-151,-195,-185,-190,-58,87
29,-58,-87,14,58,-73,-131,-151,-156,-165,-43,97
53,-68,-122,7,87,-95,-126,-117,-141,-156,-48,92
58,-78,-136,9,97,-107,-102,-68,-131,-151,-43,92
24,-73,-97,24,61,-85,-78,-34,-112,-136,-34,97
24,-53,-78,14,51,-65,-78,-19,-102,-136,-24,73
-4,-53,-48,29,21,-51,-73,-4,-78,-122,0,78
-19,-53,-34,36,7,-43,-68,9,-63,-117,0,82
-29,-39,-9,34,-9,-24,-63,19,-63,-117,0,87
-43,-34,9,39,-26,-12,-53,34,-68,-117,9,92
-34,-14,19,24,-26,2,-48,48,-73,-131,-14,82
-34,-9,24,21,-29,7,-48,63,-63,-126,-19,92
-29,-9,19,19,-24,4,-39,68,-68,-126,-14,97
-29,-9,19,19,-24,4,-34,78,-68,-131,-19,102
-14,-4,9,9,-12,2,-24,82,-73,-136,-39,102
-9,0,9,4,-9,4,-14,87,-68,-136,-39,102
0,0,0,0,0,0,0,92,-68,-136,-34,102
9,-4,-14,-2,12,-9,19,97,-73,-136,-29,107
4,-14,-19,4,12,-17,34,97,-68,-117,-24,117
0,-14,-14,7,7,-14,43,92,-63,-112,-19,122
-14,-9,4,12,-9,-2,63,92,-48,-107,-14,122
-29,-9,19,19,-24,4,73,97,-39,-102,-14,117
-24,-9,14,17,-19,2,92,87,-48,-97,-34,126
-9,-14,-4,12,-2,-9,92,78,-43,-97,-34,131
-14,-14,0,14,-7,-7,92,78,-48,-87,-39,136
-9,-9,0,9,-4,-4,92,78,-58,-87,-39,156
-9,4,14,2,-12,9,92,78,-53,-78,-29,170
0,14,14,-7,-7,14,87,73,-58,-73,-24,190
0,14,14,-7,-7,14,87,78,-53,-78,-19,195
4,14,9,-9,-2,12,87,78,-43,-63,-9,204
-4,9,14,-2,-9,12,87,78,-48,-48,-9,214
-4,4,9,0,-7,7,82,82,-43,-43,-4,214
-4,-4,0,4,-2,-2,82,87,-43,-39,9,214
-4,-9,-4,7,0,-7,82,97,-29,-39,9,214
14,-9,-24,-2,19,-17,73,87,-34,-39,14,224
14,-14,-29,0,21,-21,68,87,-34,-39,19,234
14,-29,-43,7,29,-36,63,102,-29,-39,19,244
14,-39,-53,12,34,-46,58,102,-29,-39,19,244
24,-29,-53,2,39,-41,58,107,-19,-29,24,253
29,-24,-53,-2,41,-39,58,112,-14,-29,34,253
29,-14,-43,-7,36,-29,63,117,-4,-29,39,258
34,-14,-48,-9,41,-31,63,126,4,-19,39,263
24,-14,-39,-4,31,-26,73,131,4,-34,43,273
9,-24,-34,7,21,-29,68,136,0,-24,53,273
0,-24,-24,12,12,-24,58,131,9,-29,34,278
14,-14,-29,0,21,-21,58,126,-4,-39,34,283
9,-43,-53,17,31,-48,68,131,-4,-53,43,292
-14,-53,-39,34,12,-46,68,131,-4,-53,53,297
-24,-68,-43,46,9,-56,68,141,9,-48,68,302
-48,-73,-24,61,-12,-48,68,151,14,-39,68,302
-43,-63,-19,53,-12,-41,78,161,4,-39,68,292
-19,-39,-19,29,0,-29,82,161,19,-39,68,292
14,-29,-43,7,29,-36,78,161,29,-39,73,292
39,-19,-58,-9,48,-39,82,161,19,-39,73,292
24,-19,-43,-2,34,-31,97,180,29,-43,68,287
19,-24,-43,2,31,-34,102,180,34,-43,68,278
14,-34,-48,9,31,-41,112,185,39,-34,73,273
0,-39,-39,19,19,-39,117,190,43,-34,73,273
-14,-48,-34,31,9,-41,117,204,48,-39,82,263
-29,-48,-19,39,-4,-34,117,224,43,-29,82,263
-34,-48,-14,41,-9,-31,122,234,58,-24,87,263
-39,-43,-4,41,-17,-24,131,244,53,-19,87,253
-34,-34,0,34,-17,-17,131,263,63,0,97,248
-34,-34,0,34,-17,-17,141,273,87,4,97,248
-39,-34,4,36,-21,-14,151,287,97,14,97,244
-48,-34,14,41,-31,-9,165,307,107,19,97,239
-53,-39,14,46,-34,-12,165,307,112,9,92,214
-58,-29,29,43,-43,0,161,317,112,14,87,209
-58,-34,24,46,-41,-4,161,326,122,14,87,209
-53,-34,19,43,-36,-7,156,336,131,29,92,209
-43,-39,4,41,-24,-17,175,356,146,39,92,195
-53,-39,14,46,-34,-12,190,370,156,48,92,190
-53,-39,14,46,-34,-12,204,400,175,58,97,185
-48,-48,0,48,-24,-24,209,419,180,63,97,180
-34,-29,4,31,-19,-12,224,429,195,73,97,175
-34,-19,14,26,-24,-2,224,439,204,78,107,170
-29,-14,14,21,-21,0,234,458,214,87,107,175
-29,-9,19,19,-24,4,234,458,229,92,112,175
-34,0,34,17,-34,17,244,483,263,112,112,165
-39,4,43,17,-41,24,253,512,283,126,117,161
-29,4,34,12,-31,19,258,522,283,126,117,156
-24,14,39,4,-31,26,263,531,292,141,122,156
-29,9,39,9,-34,24,268,546,307,151,117,156
-29,14,43,7,-36,29,268,561,317,156,122,156
-34,9,43,12,-39,26,268,580,331,161,126,151
-39,29,68,4,-53,48,268,595,356,170,136,161
-34,34,68,0,-51,51,268,595,370,185,136,165
-34,39,73,-2,-53,56,268,605,385,200,141,165
-29,43,73,-7,-51,58,263,619,400,200,151,170
-19,58,78,-19,-48,68,253,619,400,204,146,165
4,63,58,-34,-26,61,248,614,405,214,156,161
14,73,58,-43,-21,65,248,614,405,214,146,156
0,73,73,-36,-36,73,248,629,414,219,156,156
0,78,78,-39,-39,78,248,629,419,224,156,161
-9,87,97,-39,-53,92,244,624,414,234,151,156
4,97,92,-51,-43,95,229,619,414,244,151,156
19,102,82,-61,-31,92,229,619,424,248,151,161
19,107,87,-63,-34,97,229,614,424,248,161,161
9,112,102,-61,-46,107,219,624,429,248,161,161
9,126,117,-68,-53,122,214,614,429,253,170,161
19,131,112,-75,-46,122,204,610,429,258,190,170
24,136,112,-80,-43,124,204,605,424,258,195,170
34,136,102,-85,-34,119,204,590,414,253,190,180
34,136,102,-85,-34,119,195,570,405,248,175,175
43,136,92,-90,-24,114,170,561,390,248,180,170
53,146,92,-100,-19,119,165,536,385,248,180,170
48,151,102,-100,-26,126,146,507,366,253,195,170
34,131,97,-82,-31,114,141,483,346,248,185,170
39,136,97,-87,-29,117,126,448,336,244,170,170
43,141,97,-92,-26,119,126,414,317,229,165,170
39,141,102,-90,-31,122,112,400,292,214,170,170
34,151,117,-92,-41,134,92,375,283,214,175,190
29,151,122,-90,-46,136,82,356,273,214,180,204
14,146,131,-80,-58,139,68,331,258,209,195,204
14,136,122,-75,-53,129,53,297,234,185,190,180
24,141,117,-82,-46,129,39,258,209,161,175,175
29,156,126,-92,-48,141,34,234,195,156,151,165
29,136,107,-82,-39,122,34,219,185,146,126,146
39,136,97,-87,-29,117,34,195,165,126,112,131
43,126,82,-85,-19,104,14,156,141,97,112,131
43,126,82,-85,-19,104,9,136,126,87,112,126
34,117,82,-75,-24,100,4,112,92,73,102,117
24,97,73,-61,-24,85,9,97,78,68,102,112
14,97,82,-56,-34,90,19,92,63,58,92,102
9,92,82,-51,-36,87,24,73,48,53,87,97
0,73,73,-36,-36,73,29,53,34,34,78,97
-9,68,78,-29,-43,73,9,53,19,39,73,87
-9,63,73,-26,-41,68,4,34,14,34,58,87
-9,53,63,-21,-36,58,4,19,0,29,53,87
-9,58,68,-24,-39,63,4,4,-4,24,48,78
0,68,68,-34,-34,68,-4,-14,-19,4,39,63
-4,68,73,-31,-39,70,-4,-29,-29,-4,34,43
-29,53,82,-12,-56,68,-4,-39,-39,-14,24,34
-53,53,107,0,-80,80,0,-48,-48,-24,0,29
-39,48,87,-4,-63,68,-9,-43,-58,-24,-14,14
-34,34,68,0,-51,51,-19,-48,-63,-29,-24,4
-39,24,63,7,-51,43,-9,-53,-68,-34,-24,0
-34,9,43,12,-39,26,-4,-58,-73,-34,-24,0
-34,-4,29,19,-31,12,-4,-73,-73,-34,-29,-4
-48,0,48,24,-48,24,-4,-78,-78,-29,-24,-9
-39,14,53,12,-46,34,-9,-87,-82,-29,-24,-19
-34,29,63,2,-48,46,-19,-92,-92,-29,-24,-29
-24,39,63,-7,-43,51,-24,-107,-92,-48,-39,-48
-29,39,68,-4,-48,53,-24,-112,-92,-39,-43,-39
-29,39,68,-4,-48,53,-19,-117,-92,-39,-48,-43
-29,39,68,-4,-48,53,-24,-122,-102,-48,-53,-68
-34,24,58,4,-46,41,-29,-117,-92,-34,-63,-73
-39,14,53,12,-46,34,-34,-122,-97,-39,-63,-73
-43,14,58,14,-51,36,-34,-122,-102,-39,-58,-73
-48,14,63,17,-56,39,-34,-122,-107,-39,-53,-68
-48,9,58,19,-53,34,-43,-117,-112,-43,-43,-78
-58,9,68,24,-63,39,-39,-122,-112,-39,-53,-78
-68,4,73,31,-70,39,-39,-122,-117,-19,-63,-87
-68,4,73,31,-70,39,-29,-97,-97,-9,-63,-87
-68,-4,63,36,-65,29,-19,-107,-102,-14,-58,-107
-78,0,78,39,-78,39,-24,-112,-97,-14,-53,-107
-87,0,87,43,-87,43,-34,-117,-97,-19,-53,-107
-97,0,97,48,-97,48,-24,-117,-97,-29,-58,-107
-87,0,87,43,-87,43,-34,-117,-107,-39,-68,-107
-82,0,82,41,-82,41,-19,-117,-117,-39,-78,-117
-78,0,78,39,-78,39,-4,-102,-117,-34,-82,-117
-87,0,87,43,-87,43,0,-102,-117,-34,-82,-122
-97,-4,92,51,-95,43,4,-102,-117,-24,-73,-126
-102,-4,97,53,-100,46,0,-102,-126,-39,-82,-122
-102,-9,92,56,-97,41,0,-97,-126,-48,-92,-117
-87,-24,63,56,-75,19,-9,-97,-126,-58,-102,-131
-73,-14,58,43,-65,21,-4,-92,-117,-48,-92,-131
-73,-4,68,39,-70,31,9,-82,-112,-48,-87,-126
-97,-14,82,56,-90,34,14,-78,-112,-48,-92,-122
-82,-14,68,48,-75,26,19,-78,-112,-48,-92,-107
-87,-4,82,46,-85,39,19,-68,-102,-58,-82,-102
-82,-4,78,43,-80,36,29,-68,-112,-63,-82,-87
-87,-4,82,46,-85,39,34,-58,-112,-63,-78,-87
-122,-29,92,75,-107,31,48,-48,-112,-63,-78,-87
-122,-43,78,82,-100,17,43,-43,-107,-68,-87,-87
-117,-39,78,78,-97,19,43,-39,-97,-68,-78,-87
-107,-34,73,70,-90,19,43,-29,-92,-58,-68,-82
-102,-29,73,65,-87,21,43,-19,-92,-58,-68,-82
-102,-43,58,73,-80,7,34,-34,-122,-68,-73,-97
-102,-48,53,75,-78,2,34,-39,-126,-97,-92,-97
-102,-73,29,87,-65,-21,39,-43,-126,-87,-97,-82
-102,-63,39,82,-70,-12,39,-39,-112,-73,-97,-63
-102,-43,58,73,-80,7,53,-43,-102,-63,-73,-58
-97,-43,53,70,-75,4,53,-43,-112,-63,-78,-58
-92,-43,48,68,-70,2,43,-43,-112,-68,-87,-53
-102,-58,43,80,-73,-7,43,-34,-112,-68,-82,-48
-102,-58,43,80,-73,-7,58,-19,-107,-68,-87,-29
-87,-48,39,68,-63,-4,63,-24,-107,-68,-87,-29
-78,-48,29,63,-53,-9,68,-39,-107,-68,-87,-29
-78,-48,29,63,-53,-9,73,-9,-102,-68,-82,-29
-97,-63,34,80,-65,-14,78,4,-78,-48,-68,-14
-102,-58,43,80,-73,-7,78,14,-63,-34,-48,-4
-112,-63,48,87,-80,-7,82,29,-53,-24,-39,0
-136,-68,68,102,-102,0,87,39,-34,-14,-29,14
-97,-48,48,73,-73,0,107,43,-48,-19,-19,39
-126,-48,78,87,-102,14,117,58,-39,-19,-9,43
-136,-48,87,92,-112,19,117,68,-39,-19,-19,39
-126,-39,87,82,-107,24,117,63,-39,-34,-24,39
-117,-39,78,78,-97,19,117,58,-39,-39,-29,39
-107,-39,68,73,-87,14,117,53,-39,-43,-34,39
-97,-39,58,68,-78,9,117,48,-39,-48,-39,39
-92,-39,53,65,-73,7,126,58,-29,-48,-29,43
-87,-29,58,58,-73,14,131,53,-19,-43,-19,53
-87,-24,63,56,-75,19,131,48,-14,-39,-9,63
-87,-19,68,53,-78,24,131,43,-14,-39,-4,73
-68,0,68,34,-68,34,136,34,-9,-39,4,87
-58,4,63,26,-61,34,141,34,-9,-34,-4,92
-43,9,53,17,-48,31,141,34,0,-29,14,92
-34,9,43,12,-39,26,141,34,9,-24,14,97
-43,19,63,12,-53,41,146,39,19,-34,19,107
-48,29,78,9,-63,53,146,48,24,-24,19,107
-48,29,78,9,-63,53,146,53,34,-19,29,107
-53,29,82,12,-68,56,141,58,39,-19,39,112
-48,43,92,2,-70,68,126,43,39,-24,48,122
-58,48,107,4,-82,78,117,39,39,-14,43,122
-48,58,107,-4,-78,82,112,39,34,-19,48,122
-29,73,102,-21,-65,87,102,34,29,-24,29,122
-19,92,112,-36,-65,102,73,14,19,-19,34,122
-24,92,117,-34,-70,104,53,9,14,-19,34,126
-39,82,122,-21,-80,102,39,-9,14,-19,34,122
-48,73,122,-12,-85,97,19,-24,0,-24,34,107
-63,73,136,-4,-100,104,4,-24,4,-19,39,107
-63,78,141,-7,-102,109,-4,-19,4,-14,53,102
-68,82,151,-7,-109,117,-9,-19,0,-14,48,102
-68,82,151,-7,-109,117,-9,-19,0,-19,53,107
-68,87,156,-9,-112,122,-24,-24,-4,-29,39,107
-68,92,161,-12,-114,126,-29,-29,-4,-14,39,102
-68,102,170,-17,-119,136,-34,-24,4,-9,43,97
-58,107,165,-24,-112,136,-39,-29,4,-4,58,92
-34,122,156,-43,-95,139,-43,-34,4,-4,48,97
-39,122,161,-41,-100,141,-43,-34,0,-4,58,92
-34,112,146,-39,-90,129,-39,-24,-4,-4,58,82
-24,107,131,-41,-78,119,-39,-19,-9,-4,58,73
-14,107,122,-46,-68,114,-29,-19,0,-9,48,58
-19,97,117,-39,-68,107,-29,-9,0,-9,43,48
-19,97,117,-39,-68,107,-29,-9,-4,-9,39,43
-24,82,107,-29,-65,95,-19,-14,-4,-19,24,24
-48,58,107,-4,-78,82,-9,-29,-19,-24,19,19
-48,34,82,7,-65,58,-4,-34,-29,-24,9,9
-48,29,78,9,-63,53,0,-43,-39,-29,9,0
-58,19,78,19,-68,48,0,-48,-43,-34,4,-4
-68,9,78,29,-73,43,0,-43,-53,-24,0,-9
-92,-4,87,48,-90,41,4,-43,-48,-43,-4,-19
-112,-4,107,58,-109,51,9,-39,-43,-39,0,-29
-136,0,136,68,-136,68,19,-34,-39,-29,0,-34
-131,-9,122,70,-126,56,24,-39,-39,-29,-14,-43
-141,-24,117,82,-129,46,29,-34,-43,-34,-19,-48
-146,-48,97,97,-122,24,39,-34,-43,-34,-24,-58
-146,-58,87,102,-117,14,39,-34,-58,-39,-24,-58
-146,-53,92,100,-119,19,34,-43,-58,-39,-29,-58
-146,-53,92,100,-119,19,39,-43,-63,-39,-39,-68
-146,-48,97,97,-122,24,53,-43,-58,-48,-43,-68
-151,-43,107,97,-129,31,58,-43,-48,-43,-43,-68
-136,-53,82,95,-109,14,58,-29,-48,-34,-34,-73
-141,-53,87,97,-114,17,63,-29,-53,-29,-34,-73
-141,-53,87,97,-114,17,63,-19,-53,-24,-34,-73
-141,-48,92,95,-117,21,63,-19,-53,-19,-34,-73
-156,-48,107,102,-131,29,53,-29,-43,-9,-39,-68
-161,-48,112,104,-136,31,58,-34,-43,-9,-39,-68
-165,-48,117,107,-141,34,58,-39,-48,-19,-43,-78
-170,-53,117,112,-143,31,58,-43,-48,-19,-53,-82
-156,-48,107,102,-131,29,53,-53,-58,-29,-53,-92
-151,-43,107,97,-129,31,53,-48,-58,-29,-53,-92
-146,-39,107,92,-126,34,53,-39,-58,-24,-48,-92
-136,-34,102,85,-119,34,53,-34,-58,-24,-48,-87
-156,-43,112,100,-134,34,53,-24,-58,-14,-48,-97
-165,-48,117,107,-141,34,53,-29,-53,-19,-58,-102
-161,-58,102,109,-131,21,53,-34,-53,-19,-58,-102
-161,-63,97,112,-129,17,48,-34,-48,-24,-63,-102
-170,-63,107,117,-139,21,48,-43,-53,-24,-58,-112
-170,-73,97,122,-134,12,48,-43,-53,-24,-58,-112
-180,-73,107,126,-143,17,48,-43,-53,-24,-53,-112
-170,-73,97,122,-134,12,48,-43,-43,-14,-53,-112
-170,-63,107,117,-139,21,73,-9,-34,4,-39,-117
-195,-73,122,134,-158,24,68,0,-34,0,-48,-136
-200,-82,117,141,-158,17,73,9,-34,0,-63,-141
-214,-87,126,151,-170,19,92,34,-24,-4,-58,-136
-253,-97,156,175,-204,29,146,82,0,4,-48,-131
-287,-78,209,183,-248,65,224,165,63,43,-39,-131
-263,-24,239,143,-251,107,302,239,146,87,-24,-126
-234,14,248,109,-241,131,346,317,239,156,19,-112
-244,9,253,117,-248,131,366,366,322,234,68,-92
-234,24,258,104,-246,141,356,346,361,287,117,-63
-204,73,278,65,-241,175,331,287,409,361,185,-24
-195,131,326,31,-261,229,307,200,473,483,292,53
-175,180,356,-2,-265,268,219,63,522,585,409,165
-102,239,341,-68,-222,290,43,-107,556,702,522,283
14,292,278,-153,-131,285,-131,-278,605,814,644,395
126,370,244,-248,-58,307,-292,-395,673,917,766,502
244,444,200,-344,21,322,-439,-458,692,976,844,575
336,468,131,-402,102,300,-580,-590,610,932,854,614
409,468,58,-439,175,263,-741,-775,444,814,805,605
478,468,-9,-473,244,229,-854,-912,283,673,717,575
566,463,-102,-514,334,180,-941,-1010,87,478,590,507
619,400,-219,-509,419,90,-1034,-1127,-165,224,400,409
653,268,-385,-461,519,-58,-1117,-1254,-468,-48,204,297
658,136,-522,-397,590,-192,-1190,-1400,-775,-302,24,180
673,68,-605,-370,639,-268,-1298,-1566,-1010,-473,-117,82
707,68,-639,-387,673,-285,-1361,-1683,-1146,-570,-185,34
746,73,-673,-409,710,-300,-1346,-1678,-1180,-605,-229,-9
727,58,-668,-392,697,-305,-1288,-1581,-1141,-619,-273,-63
683,0,-683,-341,683,-341,-1200,-1473,-1107,-624,-302,-112
678,-68,-746,-305,712,-407,-1083,-1332,-1098,-658,-361,-170
668,-136,-805,-265,736,-470,-966,-1180,-1063,-707,-434,-248
614,-185,-800,-214,707,-492,-849,-1058,-1010,-727,-483,-292
527,-219,-746,-153,636,-483,-741,-995,-961,-736,-497,-317
453,-244,-697,-104,575,-470,-649,-932,-917,-727,-507,-341
380,-278,-658,-51,519,-468,-556,-844,-854,-678,-488,-351
322,-297,-619,-12,470,-458,-458,-741,-785,-634,-453,-326
283,-297,-580,7,431,-439,-395,-673,-736,-605,-434,-317
229,-283,-512,26,370,-397,-331,-600,-678,-566,-414,-297
170,-248,-419,39,295,-334,-244,-517,-585,-492,-361,-253
122,-224,-346,51,234,-285,-185,-448,-488,-434,-302,-190
63,-180,-244,58,153,-212,-136,-356,-409,-370,-239,-136
14,-136,-151,61,82,-143,-82,-273,-317,-307,-180,-92
-9,-87,-78,48,34,-82,-53,-234,-258,-278,-156,-82
-14,-58,-43,36,14,-51,-53,-204,-224,-253,-131,-73
-39,-43,-4,41,-17,-24,-34,-156,-190,-209,-87,-34
-48,-39,9,43,-29,-14,-24,-97,-146,-161,-48,9
-39,-19,19,29,-29,0,-24,-82,-117,-136,-24,39
-43,0,43,21,-43,21,-19,-68,-82,-117,-19,43
-68,-9,58,39,-63,24,-4,-48,-63,-102,-14,53
-73,4,78,34,-75,41,9,-34,-53,-97,-4,48
-73,-4,68,39,-70,31,19,0,-43,-97,-4,43
-78,-14,63,46,-70,24,19,24,-29,-82,19,48
-78,-14,63,46,-70,24,19,39,-14,-78,19,53
-73,0,73,36,-73,36,19,48,-14,-78,19,58
-73,4,78,34,-75,41,24,63,-19,-78,29,63
-102,9,112,46,-107,61,43,82,4,-68,29,73
-122,9,131,56,-126,70,58,112,34,-48,39,82
-136,4,141,65,-139,73,82,131,48,-34,58,87
-156,0,156,78,-156,78,102,156,68,-24,68,92
-156,19,175,68,-165,97,92,156,58,-34,53,78
-156,29,185,63,-170,107,102,156,68,-39,48,63
-151,34,185,58,-168,109,117,156,73,-43,48,48
-146,34,180,56,-163,107,136,156,73,-48,48,39
-126,14,141,56,-134,78,151,136,53,-48,34,29
-117,14,131,51,-124,73,161,122,53,-53,29,24
-117,19,136,48,-126,78,180,112,63,-58,24,14
-117,19,136,48,-126,78,190,107,68,-63,14,0
-131,9,141,61,-136,75,209,107,68,-58,19,-14
-126,4,131,61,-129,68,219,97,82,-48,24,-14
-141,4,146,68,-143,75,229,97,87,-29,24,-14
-146,9,156,68,-151,82,239,97,87,-19,29,0
-141,9,151,65,-146,80,224,92,82,-24,29,-14
-126,14,141,56,-134,78,214,92,68,-24,24,-14
-122,9,131,56,-126,70,209,102,63,-34,19,-29
-112,4,117,53,-114,61,204,107,63,-24,19,-39
-117,-4,112,61,-114,53,200,126,58,-9,14,-53
-122,-4,117,63,-119,56,190,131,63,-4,14,-58
-126,-9,117,68,-122,53,185,136,63,0,24,-63
-131,-9,122,70,-126,56,180,146,78,0,19,-68
-136,-9,126,73,-131,58,185,156,63,9,14,-73
-141,-14,126,78,-134,56,185,156,63,9,19,-68
-146,-29,117,87,-131,43,185,170,68,9,19,-63
-151,-39,112,95,-131,36,185,170,68,9,19,-68
-161,-29,131,95,-146,51,195,180,73,19,29,-82
-165,-24,141,95,-153,58,195,190,82,29,43,-87
-175,-14,161,95,-168,73,200,200,97,39,53,-87
-180,-14,165,97,-173,75,200,214,112,58,58,-87
-185,-24,161,104,-173,68,204,219,117,68,73,-102
-195,-34,161,114,-178,63,204,224,117,82,82,-107
-200,-34,165,117,-183,65,200,219,131,82,63,-107
-180,-24,156,102,-168,65,204,214,122,78,63,-107
-161,-48,112,104,-136,31,209,200,117,58,48,-126
-180,-53,126,117,-153,36,214,200,112,53,53,-131
-185,-63,122,124,-153,29,219,209,122,53,63,-136
-204,-63,141,134,-173,39,224,219,122,58,58,-146
-214,-78,136,146,-175,29,239,219,117,58,39,-156
-204,-68,136,136,-170,34,239,219,126,48,29,-165
-185,-73,112,129,-148,19,229,219,131,39,24,-175
-175,-78,97,126,-136,9,229,219,117,29,14,-185
-180,-63,117,122,-148,26,244,229,122,29,19,-200
-185,-63,122,124,-153,29,248,229,131,34,19,-209
-190,-68,122,129,-156,26,258,234,141,48,24,-214
-204,-68,136,136,-170,34,263,239,151,53,24,-214
-195,-68,126,131,-161,29,253,248,151,53,14,-224
-195,-68,126,131,-161,29,253,273,151,58,14,-234
-185,-68,117,126,-151,24,258,287,170,58,19,-244
-175,-63,112,119,-143,24,268,302,170,58,19,-263
-204,-73,131,139,-168,29,273,326,185,78,39,-263
-229,-73,156,151,-192,41,287,341,214,82,39,-258
-258,-73,185,165,-222,56,302,361,229,92,39,-258
-292,-73,219,183,-256,73,322,385,244,97,39,-258
-273,-82,190,178,-231,53,322,390,239,97,34,-287
-253,-68,185,161,-219,58,317,395,239,102,29,-297
-229,-68,161,148,-195,46,317,400,248,102,29,-302
-200,-63,136,131,-168,36,312,405,258,117,34,-307
-219,-68,151,143,-185,41,312,409,258,112,24,-312
-239,-68,170,153,-204,51,326,419,263,117,24,-317
-248,-68,180,158,-214,56,341,444,278,122,29,-322
-253,-78,175,165,-214,48,346,458,278,122,29,-326
-248,-53,195,151,-222,70,341,488,297,131,39,-322
-248,-39,209,143,-229,85,341,507,312,136,48,-317
-244,-29,214,136,-229,92,351,536,326,146,48,-302
-244,-19,224,131,-234,102,351,546,346,151,53,-292
-248,-9,239,129,-244,114,366,561,370,170,73,-278
-253,-4,248,129,-251,122,370,590,390,185,78,-268
-244,-4,239,124,-241,117,370,600,390,185,78,-258
-239,4,244,117,-241,124,370,610,400,200,82,-244
-234,14,248,109,-241,131,366,619,405,185,82,-229
-234,24,258,104,-246,141,366,629,405,185,82,-224
-239,24,263,107,-251,143,366,644,409,185,82,-224
-244,48,292,97,-268,170,366,653,424,190,87,-209
-229,48,278,90,-253,163,375,653,419,190,82,-200
-219,39,258,90,-239,148,375,663,434,200,82,-195
-204,29,234,87,-219,131,370,678,448,195,87,-185
-185,29,214,78,-200,122,361,678,448,195,78,-185
-180,34,214,73,-197,124,346,683,453,200,87,-170
-170,43,214,63,-192,129,346,683,453,204,78,-165
-185,43,229,70,-207,136,346,697,463,214,87,-156
-185,48,234,68,-209,141,346,697,468,224,87,-141
-195,53,248,70,-222,151,341,688,468,234,92,-131
-180,68,248,56,-214,158,326,678,463,244,102,-117
-165,78,244,43,-204,161,326,673,468,248,112,-97
-165,87,253,39,-209,170,326,663,463,248,131,-82
-165,92,258,36,-212,175,326,663,448,239,117,-78
-165,107,273,29,-219,190,322,653,448,244,122,-73
-156,112,268,21,-212,190,312,649,448,248,136,-58
-151,117,268,17,-209,192,312,644,444,248,136,-53
-156,122,278,17,-217,200,307,634,439,258,146,-34
-161,117,278,21,-219,197,302,619,434,258,136,-29
-156,112,268,21,-212,190,283,614,424,263,146,-24
-151,117,268,17,-209,192,283,595,424,268,151,-14
-141,131,273,4,-207,202,263,580,414,253,151,-4
-141,112,253,14,-197,183,258,561,395,248,136,-4
-122,117,239,2,-180,178,244,531,385,244,117,-4
-102,122,224,-9,-163,173,244,502,366,229,107,-4
-92,122,214,-14,-153,168,224,473,336,219,97,-19
-92,122,214,-14,-153,168,209,444,322,214,97,-4
-92,112,204,-9,-148,158,204,419,307,209,97,4
-102,97,200,2,-151,148,195,390,287,200,107,0
-117,92,209,12,-163,151,180,370,253,185,112,-14
-112,92,204,9,-158,148,156,336,229,161,97,-19
-112,102,214,4,-163,158,141,317,214,156,73,-29
-117,78,195,19,-156,136,131,307,204,146,48,-48
-126,82,209,21,-168,146,131,283,190,141,48,-48
-131,78,209,26,-170,143,112,244,170,117,53,-43
-141,82,224,29,-183,153,107,224,161,112,58,-43
-161,78,239,41,-200,158,102,200,131,102,53,-48
-170,53,224,58,-197,139,92,185,126,87,39,-58
-180,48,229,65,-204,139,97,180,112,78,24,-73
-185,39,224,73,-204,131,97,161,97,73,14,-82
-195,14,209,90,-202,112,97,141,82,53,0,-87
-204,24,229,90,-217,126,87,126,58,58,-14,-107
-204,24,229,90,-217,126,82,102,53,53,-29,-107
-204,19,224,92,-214,122,82,82,39,48,-34,-107
-204,29,234,87,-219,131,82,63,34,43,-39,-117
-185,39,224,73,-204,131,63,39,9,34,-48,-131
-180,39,219,70,-200,129,53,19,0,24,-53,-151
-195,24,219,85,-207,122,43,4,-9,14,-63,-161
-209,24,234,92,-222,129,39,-9,-19,4,-87,-165
-219,4,224,107,-222,114,29,-24,-29,0,-112,-185
-219,-14,204,117,-212,95,19,-29,-34,-9,-131,-200
-229,-29,200,129,-214,85,29,-34,-39,-19,-141,-209
-229,-48,180,139,-204,65,34,-39,-43,-24,-151,-214
-248,-73,175,161,-212,51,19,-63,-53,-19,-151,-209
-263,-78,185,170,-224,53,14,-68,-58,-9,-151,-214
-253,-73,180,163,-217,53,4,-78,-63,-4,-156,-224
-248,-68,180,158,-214,56,-9,-82,-73,0,-161,-234
-258,-58,200,158,-229,70,0,-78,-68,4,-170,-239
-273,-58,214,165,-244,78,4,-73,-63,19,-170,-224
-283,-58,224,170,-253,82,14,-68,-58,24,-170,-224
-292,-58,234,175,-263,87,14,-63,-63,19,-170,-244
-278,-73,204,175,-241,65,9,-82,-68,14,-204,-253
-263,-82,180,173,-222,48,4,-92,-78,0,-219,-258
-248,-82,165,165,-207,41,4,-97,-87,-9,-229,-263
-234,-82,151,158,-192,34,4,-102,-97,-19,-239,-263
-244,-87,156,165,-200,34,14,-102,-102,-19,-239,-263
-253,-87,165,170,-209,39,19,-102,-102,-19,-248,-263
-263,-92,170,178,-217,39,19,-97,-107,-4,-258,-273
-263,-92,170,178,-217,39,29,-68,-87,0,-258,-273
-268,-82,185,175,-226,51,39,-68,-68,19,-239,-273
-273,-78,195,175,-234,58,34,-73,-58,34,-229,-263
-278,-78,200,178,-239,61,24,-78,-53,43,-224,-253
-283,-78,204,180,-244,63,34,-78,-48,48,-224,-244
-278,-87,190,183,-234,51,19,-92,-63,24,-244,-244
-268,-87,180,178,-224,46,29,-97,-78,19,-253,-253
-258,-87,170,173,-214,41,39,-87,-82,19,-258,-253
-263,-87,175,175,-219,43,39,-92,-87,14,-258,-258
-248,-102,146,175,-197,21,53,-82,-78,14,-268,-258
-248,-102,146,175,-197,21,48,-82,-87,0,-278,-258
-244,-107,136,175,-190,14,48,-78,-87,-9,-287,-258
-224,-122,102,173,-163,-9,39,-78,-87,-19,-297,-278
-209,-122,87,165,-148,-17,48,-63,-78,-9,-302,-278
-209,-112,97,161,-153,-7,58,-53,-73,-9,-302,-273
-234,-122,112,178,-173,-4,58,-48,-73,-9,-312,-268
-219,-122,97,170,-158,-12,58,-48,-73,-9,-317,-253
-229,-97,131,163,-180,17,53,-53,-82,-19,-307,-239
-219,-92,126,156,-173,17,68,-58,-92,-24,-307,-224
-219,-87,131,153,-175,21,78,-53,-92,-24,-302,-224
-248,-107,141,178,-195,17,97,-48,-92,-24,-302,-224
-239,-117,122,178,-180,2,112,-34,-78,-9,-302,-214
-234,-107,126,170,-180,9,112,-29,-68,-9,-292,-214
-224,-97,126,161,-175,14,112,-19,-63,0,-283,-209
-219,-87,131,153,-175,21,112,-9,-63,0,-283,-209
-229,-97,131,163,-180,17,102,-4,-73,-9,-292,-204
-239,-97,141,168,-190,21,102,0,-78,-39,-307,-204
-248,-117,131,183,-190,7,107,4,-78,-29,-307,-190
-258,-102,156,180,-207,26,107,19,-63,-14,-302,-170
-248,-78,170,163,-209,46,112,14,-58,-4,-287,-161
-234,-73,161,153,-197,43,112,4,-73,-4,-292,-165
-219,-68,151,143,-185,41,102,-4,-78,-9,-302,-165
-219,-78,141,148,-180,31,102,-4,-82,-9,-297,-165
-219,-73,146,146,-183,36,107,4,-92,-9,-287,-146
-204,-58,146,131,-175,43,112,-4,-97,-9,-283,-146
-195,-53,141,124,-168,43,117,-24,-102,-9,-278,-146
-195,-48,146,122,-170,48,122,0,-102,-9,-268,-146
-180,-58,122,119,-151,31,122,-4,-87,-19,-258,-141
-170,-48,122,109,-146,36,126,-4,-82,-14,-244,-141
-165,-48,117,107,-141,34,136,0,-82,-14,-239,-146
-175,-48,126,112,-151,39,146,0,-73,-14,-234,-141
-195,-53,141,124,-168,43,156,14,-78,-9,-209,-117
-204,-58,146,131,-175,43,156,19,-78,-9,-214,-102
-214,-58,156,136,-185,48,161,29,-68,-9,-214,-102
-219,-63,156,141,-187,46,165,39,-63,-19,-209,-122
-214,-73,141,143,-178,34,165,43,-58,-14,-200,-122
-219,-73,146,146,-183,36,165,39,-58,0,-195,-122
-204,-53,151,129,-178,48,161,34,-58,4,-185,-117
-200,-48,151,124,-175,51,156,34,-43,9,-185,-112
-165,-4,161,85,-163,78,146,43,-43,-9,-175,-112
-224,-34,190,129,-207,78,156,43,-14,29,-156,-102
-204,-43,161,124,-183,58,146,24,4,48,-136,-102
-165,-24,141,95,-153,58,136,0,-4,48,-131,-102
-156,-19,136,87,-146,58,146,-9,-29,39,-126,-97
-151,-29,122,90,-136,46,141,-9,-39,19,-136,-102
-146,-29,117,87,-131,43,136,-9,-39,9,-146,-107
-141,-29,112,85,-126,41,131,-9,-39,0,-156,-112
-136,-29,107,82,-122,39,126,-9,-39,-9,-165,-117
-112,-4,107,58,-109,51,122,0,-29,-4,-156,-117
-97,9,107,43,-102,58,122,-4,-9,4,-146,-112
-87,19,107,34,-97,63,117,-9,4,14,-136,-107
-78,29,107,24,-92,68,112,-14,14,19,-131,-102
-73,29,102,21,-87,65,122,-29,9,9,-146,-102
-68,34,102,17,-85,68,131,-34,0,4,-161,-102
-58,39,97,9,-78,68,136,-39,0,0,-146,-107
-53,39,92,7,-73,65,141,-43,0,-4,-151,-107
-63,53,117,4,-90,85,151,-34,14,14,-131,-97
-68,68,136,0,-102,102,156,-29,24,34,-117,-87
-68,73,141,-2,-104,107,161,-29,39,48,-92,-78
-73,78,151,-2,-112,114,161,-29,48,58,-68,-63
-92,68,161,12,-126,114,161,-24,63,63,-53,-39
-107,68,175,19,-141,122,156,-9,68,82,-53,-34
-102,73,175,14,-139,124,156,9,68,87,-43,-29
-87,82,170,2,-129,126,151,24,68,92,-58,-24
-58,78,136,-9,-97,107,117,14,68,82,-68,-34
-53,73,126,-9,-90,100,102,9,63,78,-73,-29
-58,58,117,0,-87,87,92,-9,63,73,-78,-34
-58,43,102,7,-80,73,78,-24,48,63,-82,-48
-73,48,122,12,-97,85,53,-29,43,63,-73,-48
-73,48,122,12,-97,85,43,-29,34,63,-63,-43
-78,48,126,14,-102,87,39,-34,19,58,-73,-34
-78,43,122,17,-100,82,39,-39,9,48,-73,-19
-68,43,112,12,-90,78,43,-48,14,34,-87,-29
-58,43,102,7,-80,73,39,-48,14,43,-97,-34
-48,48,97,0,-73,73,34,-39,24,43,-102,-39
-29,48,78,-9,-53,63,29,-39,24,43,-97,-43
-29,58,87,-14,-58,73,24,-48,39,73,-87,-19
-39,63,102,-12,-70,82,24,-53,39,82,-68,-4
-39,58,97,-9,-68,78,29,-48,39,92,-58,4
-34,58,92,-12,-63,75,29,-48,39,102,-48,14
-43,43,87,0,-65,65,53,-29,29,107,-34,19
-58,29,87,14,-73,58,58,-9,29,107,-34,19
-68,24,92,21,-80,58,63,0,24,107,-34,24
-82,4,87,39,-85,46,78,4,24,97,-43,14
-92,-14,78,53,-85,31,102,4,19,78,-73,-14
-87,-43,43,65,-65,0,112,4,9,63,-97,-29
-82,-53,29,68,-56,-12,122,0,0,43,-112,-43
-87,-68,19,78,-53,-24,126,0,-4,24,-131,-53
-82,-73,9,78,-46,-31,112,-14,-29,34,-126,-58
-102,-82,19,92,-61,-31,112,-24,-29,24,-131,-68
-117,-78,39,97,-78,-19,112,-29,-29,39,-126,-78
-136,-68,68,102,-102,0,117,-34,-29,58,-126,-82
-136,-63,73,100,-104,4,122,-24,-19,63,-117,-78
-141,-63,78,102,-109,7,126,-14,-24,63,-117,-78
-141,-73,68,107,-104,-2,136,-9,-24,68,-117,-82
-136,-68,68,102,-102,0,136,-4,-39,68,-112,-78
-117,-48,68,82,-92,9,122,-19,-53,73,-107,-78
-117,-43,73,80,-95,14,117,-24,-63,68,-117,-87
-117,-34,82,75,-100,24,122,-29,-63,53,-122,-87
-122,-24,97,73,-109,36,117,-34,-58,53,-122,-87
-117,-39,78,78,-97,19,117,-24,-48,48,-131,-102
-122,-43,78,82,-100,17,122,-19,-53,39,-141,-102
-122,-48,73,85,-97,12,122,-4,-53,29,-151,-102
-122,-48,73,85,-97,12,122,0,-53,19,-161,-102
-126,-39,87,82,-107,24,112,-4,-43,39,-146,-92
-131,-29,102,80,-117,36,117,-4,-43,48,-136,-87
-136,-19,117,78,-126,48,117,-4,-48,48,-131,-92
-141,-14,126,78,-134,56,117,-4,-48,58,-131,-92
-131,-9,122,70,-126,56,107,-14,-58,48,-136,-82
-131,-4,126,68,-129,61,102,-9,-58,39,-141,-82
-131,0,131,65,-131,65,97,0,-58,34,-141,-82
-126,4,131,61,-129,68,92,4,-58,24,-146,-78
-117,-4,112,61,-114,53,68,9,-78,14,-151,-92
-117,-9,107,63,-112,48,63,9,-82,0,-165,-102
-102,-19,82,61,-92,31,58,9,-92,-9,-170,-107
-92,-24,68,58,-80,21,48,14,-97,-24,-180,-112
-82,-9,73,46,-78,31,58,19,-102,-29,-180,-102
-73,-14,58,43,-65,21,58,24,-102,-24,-175,-102
-73,-9,63,41,-68,26,58,29,-102,-19,-165,-102
-53,-4,48,29,-51,21,58,34,-92,-4,-161,-102
-53,4,58,24,-56,31,92,29,-73,24,-136,-78
-58,4,63,26,-61,34,117,39,-63,58,-126,-68
-73,4,78,34,-75,41,122,68,-34,68,-122,-73
-87,-9,78,48,-82,34,131,102,-14,63,-136,-87
-97,-19,78,58,-87,29,156,131,-9,43,-165,-112
-131,0,131,65,-131,65,214,204,24,63,-156,-102
-195,24,219,85,-207,122,292,297,97,107,-112,-78
-195,43,239,75,-217,141,336,375,200,175,-58,-63
-146,78,224,34,-185,151,336,424,292,273,0,-24
-107,112,219,-2,-163,165,336,444,370,385,87,43
-87,170,258,-41,-173,214,341,405,439,488,185,131
-39,219,258,-90,-148,239,287,297,492,570,263,209
97,258,161,-178,-31,209,180,141,512,624,341,283
229,297,68,-263,80,183,43,-29,517,663,405,361
326,341,14,-334,156,178,-131,-200,585,756,507,444
409,390,-19,-400,214,185,-312,-326,653,868,610,531
507,434,-73,-470,290,180,-448,-400,653,888,649,585
590,458,-131,-524,361,163,-561,-522,561,824,639,605
653,478,-175,-566,414,151,-692,-678,424,727,600,595
692,478,-214,-585,453,131,-814,-824,253,585,502,546
722,424,-297,-573,509,63,-902,-961,39,390,366,468
756,341,-414,-549,585,-36,-956,-1117,-273,136,185,341
780,239,-541,-509,661,-151,-1019,-1302,-644,-175,-39,170
795,126,-668,-461,732,-270,-1083,-1478,-951,-429,-239,24
810,68,-741,-439,775,-336,-1190,-1625,-1156,-580,-351,-63
824,39,-785,-431,805,-373,-1273,-1732,-1254,-658,-419,-112
805,-4,-810,-400,807,-407,-1278,-1698,-1239,-673,-473,-175
756,-58,-814,-348,785,-436,-1229,-1600,-1180,-658,-497,-209
761,-97,-858,-331,810,-478,-1180,-1512,-1176,-683,-527,-248
766,-146,-912,-309,839,-529,-1102,-1400,-1185,-756,-585,-307
775,-195,-971,-290,873,-583,-985,-1268,-1171,-795,-629,-375
751,-204,-956,-273,854,-580,-858,-1156,-1127,-795,-639,-390
663,-229,-893,-217,778,-561,-741,-1073,-1088,-775,-644,-405
561,-263,-824,-148,692,-544,-649,-980,-1024,-756,-644,-429
468,-287,-756,-90,612,-522,-585,-883,-961,-717,-624,-419
400,-297,-697,-51,549,-497,-517,-780,-873,-663,-600,-395
351,-297,-649,-26,500,-473,-444,-683,-785,-595,-570,-385
307,-283,-590,-12,448,-436,-361,-590,-707,-536,-522,-356
297,-258,-556,-19,427,-407,-292,-507,-634,-463,-468,-322
287,-253,-541,-17,414,-397,-234,-439,-575,-414,-439,-297
287,-229,-517,-29,402,-373,-185,-356,-497,-380,-395,-283
268,-195,-463,-36,366,-329,-141,-273,-424,-317,-346,-248
263,-156,-419,-53,341,-287,-102,-224,-375,-278,-312,-219
239,-126,-366,-56,302,-246,-92,-185,-351,-234,-268,-180
175,-112,-287,-31,231,-200,-82,-156,-297,-170,-224,-141
136,-87,-224,-24,180,-156,-73,-117,-253,-122,-185,-117
156,-39,-195,-58,175,-117,-63,-82,-234,-97,-161,-97
170,-9,-180,-80,175,-95,-58,-48,-209,-78,-136,-73
146,-39,-185,-53,165,-112,-63,-9,-200,-92,-141,-82
131,-92,-224,-19,178,-158,-48,14,-190,-117,-161,-117
122,-122,-244,0,183,-183,-29,48,-170,-107,-170,-122
112,-122,-234,4,173,-178,-19,48,-165,-92,-156,-117
107,-122,-229,7,168,-175,-19,58,-151,-87,-156,-112
107,-107,-214,0,161,-161,-19,63,-151,-87,-156,-107
102,-102,-204,0,153,-153,-14,73,-156,-87,-146,-102
92,-107,-200,7,146,-153,4,68,-151,-87,-165,-107
92,-117,-209,12,151,-163,9,82,-131,-78,-165,-102
97,-131,-229,17,163,-180,24,87,-126,-73,-156,-102
97,-146,-244,24,170,-195,34,97,-117,-73,-156,-102
102,-126,-229,12,165,-178,29,82,-117,-63,-151,-102
107,-107,-214,0,161,-161,34,68,-107,-58,-146,-102
117,-92,-209,-12,163,-151,43,53,-102,-53,-136,-102
126,-82,-209,-21,168,-146,58,39,-102,-48,-126,-97
92,-92,-185,0,139,-139,73,43,-92,-43,-117,-82
68,-92,-161,12,114,-126,92,53,-82,-43,-107,-73
34,-87,-122,26,78,-104,122,68,-63,-43,-97,-68
0,-87,-87,43,43,-87,141,87,-48,-43,-92,-68
9,-97,-107,43,58,-102,131,97,-53,-58,-107,-82
19,-112,-131,46,75,-122,122,87,-43,-58,-112,-82
9,-122,-131,56,70,-126,112,87,-43,-48,-122,-82
9,-126,-136,58,73,-131,102,87,-48,-48,-126,-68
9,-136,-146,63,78,-141,87,92,-39,-43,-131,-63
19,-131,-151,56,85,-141,78,92,-48,-43,-131,-53
19,-136,-156,58,87,-146,73,102,-48,-53,-131,-58
24,-141,-165,58,95,-153,68,107,-43,-43,-126,-58
29,-156,-185,63,107,-170,58,112,-43,-43,-136,-58
34,-161,-195,63,114,-178,53,112,-43,-43,-131,-58
39,-170,-209,65,124,-190,53,112,-48,-43,-117,-58
43,-175,-219,65,131,-197,53,117,-39,-48,-117,-58
48,-161,-209,56,129,-185,53,107,-48,-43,-117,-53
43,-161,-204,58,124,-183,58,97,-43,-39,-117,-48
39,-170,-209,65,124,-190,63,102,-34,-34,-122,-43
34,-175,-209,70,122,-192,68,92,-29,-29,-126,-48
4,-175,-180,85,92,-178,73,102,-24,-14,-107,-43
-19,-170,-151,95,65,-161,78,112,-14,-9,-82,-39
-48,-161,-112,104,31,-136,87,122,0,-4,-63,-29
-73,-161,-87,117,7,-124,92,136,14,9,-48,-19
-68,-190,-122,129,26,-156,82,131,9,-9,-58,-39
-68,-209,-141,139,36,-175,68,126,0,-4,-53,-48
-63,-219,-156,141,46,-187,48,112,4,-14,-78,-53
-34,-219,-185,126,75,-202,39,97,-14,-29,-82,-58
-19,-214,-195,117,87,-204,39,82,4,-19,-63,-48
-34,-209,-175,122,70,-192,39,82,14,-4,-43,-43
-34,-209,-175,122,70,-192,39,92,39,14,-19,-39
-48,-200,-151,124,51,-175,39,102,53,39,-9,-39
-73,-214,-141,143,34,-178,19,87,29,29,-29,-53
-68,-204,-136,136,34,-170,4,73,29,9,-39,-58
-53,-209,-156,131,51,-183,-19,58,24,-9,-43,-63
-48,-214,-165,131,58,-190,-34,43,0,-29,-53,-68
-43,-190,-146,117,51,-168,-29,63,9,-24,-53,-63
-39,-180,-141,109,51,-161,-24,63,24,-14,-48,-73
-34,-175,-141,104,53,-158,-14,68,39,4,-39,-78
-39,-165,-126,102,43,-146,-9,73,53,14,-34,-78
-68,-185,-117,126,24,-151,-4,78,53,4,-43,-78
-87,-195,-107,141,9,-151,0,97,53,9,-43,-78
-97,-204,-107,151,4,-156,9,107,73,9,-39,-78
-107,-209,-102,158,-2,-156,24,117,73,9,-39,-87
-102,-195,-92,148,-4,-143,14,126,97,34,-19,-78
-102,-190,-87,146,-7,-139,24,136,126,53,-9,-73
-107,-185,-78,146,-14,-131,34,151,141,78,0,-73
-117,-180,-63,148,-26,-122,48,170,156,97,9,-73
-107,-185,-78,146,-14,-131,53,190,141,68,-19,-87
-107,-175,-68,141,-19,-122,53,200,131,53,-39,-92
-102,-180,-78,141,-12,-129,58,209,131,34,-53,-92
-92,-180,-87,136,-2,-134,58,219,131,29,-63,-92
-102,-180,-78,141,-12,-129,58,214,141,24,-68,-102
-112,-185,-73,148,-19,-129,73,224,146,29,-73,-102
-112,-190,-78,151,-17,-134,87,248,161,34,-73,-102
-107,-204,-97,156,-4,-151,92,263,161,34,-78,-102
-97,-170,-73,134,-12,-122,92,268,175,48,-73,-87
-92,-156,-63,124,-14,-109,87,283,185,58,-58,-82
-82,-146,-63,114,-9,-104,92,307,195,73,-53,-68
-78,-136,-58,107,-9,-97,87,312,209,82,-43,-58
-63,-126,-63,95,0,-95,97,317,224,73,-43,-58
-58,-122,-63,90,2,-92,107,336,234,78,-48,-63
-39,-122,-82,80,21,-102,112,336,224,68,-58,-68
-24,-112,-87,68,31,-100,117,336,224,73,-63,-68
-24,-122,-97,73,36,-109,122,361,248,87,-53,-53
-29,-122,-92,75,31,-107,122,385,258,107,-43,-48
-39,-131,-92,85,26,-112,122,414,273,126,-34,-48
-48,-117,-68,82,9,-92,122,439,297,151,-19,-34
-43,-97,-53,70,4,-75,117,434,297,156,-9,-14
-43,-87,-43,65,0,-65,112,439,307,170,4,-9
-39,-78,-39,58,0,-58,102,448,317,170,24,0
-29,-58,-29,43,0,-43,87,444,312,175,29,0
-19,-43,-24,31,2,-34,92,448,297,185,34,9
-14,-34,-19,24,2,-26,92,448,297,185,29,9
-34,-34,0,34,-17,-17,92,463,307,190,43,14
-39,-29,9,34,-24,-9,92,463,312,195,48,24
-43,-39,4,41,-24,-17,73,463,307,180,39,9
-34,-39,-4,36,-14,-21,53,463,297,175,43,9
-24,-43,-19,34,-2,-31,48,468,297,165,48,14
-29,-48,-19,39,-4,-34,43,468,287,151,63,14
-9,-24,-14,17,2,-19,58,468,292,165,73,19
9,9,0,-9,4,4,58,458,302,185,82,24
39,34,-4,-36,21,14,53,453,312,204,102,39
63,58,-4,-61,34,26,58,448,317,219,107,43
48,73,24,-61,12,48,48,448,302,214,112,53
43,78,34,-61,4,56,39,434,297,209,107,48
48,82,34,-65,7,58,14,429,287,209,122,43
53,97,43,-75,4,70,9,409,287,209,131,43
53,87,34,-70,9,61,0,390,253,195,126,34
43,63,19,-53,12,41,-4,366,229,180,107,34
53,63,9,-58,21,36,-19,331,214,165,82,34
63,63,0,-63,31,31,-19,297,190,141,68,34
63,68,4,-65,29,36,-34,283,180,126,58,19
63,73,9,-68,26,41,-53,258,175,126,58,24
63,68,4,-65,29,36,-63,239,170,126,58,24
53,58,4,-56,24,31,-78,214,161,122,68,9
39,43,4,-41,17,24,-97,180,126,102,73,-9
43,43,0,-43,21,21,-117,141,92,73,58,-9
43,53,9,-48,17,31,-126,117,68,63,34,-14
39,29,-9,-34,24,9,-131,102,48,48,9,-29
24,34,9,-29,7,21,-117,97,58,58,14,-19
24,39,14,-31,4,26,-122,78,53,48,24,-14
19,53,34,-36,-7,43,-112,78,58,58,34,-14
4,58,53,-31,-24,56,-102,73,43,63,34,-19
14,39,24,-26,-4,31,-102,53,14,34,24,-24
14,39,24,-26,-4,31,-97,43,-4,19,14,-34
19,34,14,-26,2,24,-97,19,-24,9,9,-39
19,14,-4,-17,12,4,-97,-4,-43,-14,0,-39
14,0,-14,-7,14,-7,-102,-14,-58,-19,-24,-58
9,-14,-24,2,17,-19,-102,-34,-63,-24,-48,-68
4,-34,-39,14,21,-36,-97,-48,-78,-29,-63,-78
0,-39,-39,19,19,-39,-92,-63,-82,-34,-78,-97
9,-34,-43,12,26,-39,-97,-73,-97,-58,-87,-107
4,-39,-43,17,24,-41,-92,-87,-107,-73,-92,-122
-19,-58,-39,39,9,-48,-87,-97,-117,-87,-102,-126
-43,-63,-19,53,-12,-41,-78,-107,-126,-102,-126,-126
-24,-63,-39,43,7,-51,-87,-117,-126,-87,-117,-131
-14,-73,-58,43,21,-65,-97,-126,-131,-87,-122,-141
-14,-78,-63,46,24,-70,-87,-136,-136,-87,-117,-146
-4,-87,-82,46,39,-85,-82,-146,-141,-82,-112,-146
-19,-97,-78,58,29,-87,-78,-141,-126,-73,-97,-141
-39,-97,-58,68,9,-78,-73,-136,-126,-68,-92,-136
-34,-87,-53,61,9,-70,-73,-136,-126,-68,-92,-136
-34,-78,-43,56,4,-61,-78,-131,-131,-68,-92,-136
-53,-92,-39,73,-7,-65,-63,-117,-126,-87,-97,-136
-68,-97,-29,82,-19,-63,-53,-112,-122,-78,-102,-117
-78,-102,-24,90,-26,-63,-39,-107,-117,-78,-107,-112
-87,-107,-19,97,-34,-63,-34,-102,-122,-87,-112,-126
-73,-117,-43,95,-14,-80,-48,-112,-131,-78,-122,-131
-68,-122,-53,95,-7,-87,-53,-122,-136,-78,-122,-131
-63,-117,-53,90,-4,-85,-53,-126,-141,-73,-117,-131
-58,-112,-53,85,-2,-82,-53,-131,-146,-68,-112,-126
-48,-112,-63,80,7,-87,-63,-151,-161,-102,-117,-126
-48,-107,-58,78,4,-82,-58,-161,-170,-117,-131,-126
-48,-107,-58,78,4,-82,-58,-165,-185,-117,-146,-136
-39,-102,-63,70,12,-82,-48,-146,-175,-126,-151,-136
-39,-107,-68,73,14,-87,-48,-156,-175,-141,-151,-156
-39,-107,-68,73,14,-87,-53,-161,-175,-141,-151,-156
-39,-112,-73,75,17,-92,-63,-165,-180,-146,-156,-156
-39,-117,-78,78,19,-97,-53,-165,-185,-156,-165,-156
-43,-112,-68,78,12,-90,-63,-156,-185,-146,-161,-141
-43,-107,-63,75,9,-85,-48,-156,-185,-136,-156,-146
-43,-102,-58,73,7,-80,-34,-141,-175,-122,-146,-141
-58,-97,-39,78,-9,-68,-29,-141,-165,-112,-131,-141
-39,-68,-29,53,-4,-48,-29,-151,-170,-112,-117,-131
-24,-43,-19,34,-2,-31,-39,-151,-185,-126,-122,-122
-4,-24,-19,14,7,-21,-43,-146,-190,-136,-126,-112
29,-14,-43,-7,36,-29,-58,-146,-195,-146,-131,-122
58,-24,-82,-17,70,-53,-43,-126,-190,-131,-136,-131
63,-24,-87,-19,75,-56,-29,-112,-180,-126,-136,-136
43,-43,-87,0,65,-65,-24,-102,-175,-122,-146,-141
63,-53,-117,-4,90,-85,-19,-97,-170,-117,-151,-136
43,-24,-68,-9,56,-46,-24,-78,-165,-122,-141,-112
43,-14,-58,-14,51,-36,-9,-68,-170,-122,-131,-97
34,-4,-39,-14,36,-21,0,-48,-165,-117,-117,-97
-4,-19,-14,12,4,-17,19,-29,-161,-112,-107,-97
4,-24,-29,9,17,-26,24,-19,-170,-122,-112,-78
9,-9,-19,0,14,-14,24,-19,-165,-126,-107,-78
19,4,-14,-12,17,-4,24,-14,-165,-122,-102,-73
24,19,-4,-21,14,7,24,-9,-170,-126,-107,-73
14,9,-4,-12,9,2,34,-9,-175,-126,-117,-87
14,9,-4,-12,9,2,34,-9,-175,-146,-131,-87
14,-9,-24,-2,19,-17,39,-9,-170,-126,-131,-73
14,4,-9,-9,12,-2,39,0,-151,-102,-126,-53
19,48,29,-34,-4,39,29,-4,-131,-78,-92,-39
29,63,34,-46,-2,48,24,-4,-141,-73,-87,-39
39,78,39,-58,0,58,9,-4,-141,-73,-87,-34
34,78,43,-56,-4,61,4,4,-141,-68,-73,-29
48,53,4,-51,21,29,-4,24,-141,-82,-87,-29
68,58,-9,-63,39,24,-4,14,-146,-97,-97,-39
82,53,-29,-68,56,12,-4,-4,-151,-112,-107,-48
87,48,-39,-68,63,4,-4,19,-151,-126,-112,-58
78,43,-34,-61,56,4,-4,14,-122,-112,-112,-58
82,48,-34,-65,58,7,-9,14,-112,-102,-107,-63
82,43,-39,-63,61,2,-9,19,-107,-97,-112,-73
68,39,-29,-53,48,4,-9,19,-92,-92,-117,-73
53,58,4,-56,24,31,-9,4,-78,-73,-92,-43
48,68,19,-58,14,43,-9,0,-78,-68,-87,-24
43,82,39,-63,2,61,-4,0,-68,-63,-78,-19
43,92,48,-68,-2,70,0,0,-63,-68,-63,-34
29,68,39,-48,-4,53,4,-14,-48,-63,-73,-39
14,63,48,-39,-17,56,9,-19,-48,-48,-68,-43
19,78,58,-48,-19,68,9,-24,-48,-43,-58,-43
14,78,63,-46,-24,70,9,-24,-34,-39,-58,-43
78,63,-14,-70,46,24,-9,-73,-53,-48,-58,-63
68,82,14,-75,26,48,-9,-73,-43,-48,-39,-43
48,122,73,-85,-12,97,-9,-82,-43,-39,-29,-24
48,107,58,-78,-4,82,-19,-87,-48,-48,-39,-29
48,92,43,-70,2,68,-14,-92,-53,-63,-53,-48
48,78,29,-63,9,53,-9,-97,-58,-68,-68,-58
48,63,14,-56,17,39,-4,-102,-63,-73,-82,-68
48,48,0,-48,24,24,0,-107,-68,-78,-97,-78
68,78,9,-73,29,43,-9,-117,-68,-63,-82,-68
78,97,19,-87,29,58,-4,-122,-58,-53,-68,-53
82,112,29,-97,26,70,-4,-126,-53,-43,-53,-39
87,126,39,-107,24,82,-4,-131,-53,-39,-43,-24
87,117,29,-102,29,73,9,-122,-58,-58,-58,-29
87,112,24,-100,31,68,14,-122,-58,-63,-73,-34
92,107,14,-100,39,61,14,-122,-48,-68,-58,-43
92,97,4,-95,43,51,14,-122,-39,-73,-63,-48
73,87,14,-80,29,51,24,-117,-29,-58,-48,-39
68,87,19,-78,24,53,29,-107,-24,-34,-39,-29
68,78,9,-73,29,43,34,-102,-14,-14,-19,-19
63,68,4,-65,29,36,34,-97,-9,0,0,-4
53,58,4,-56,24,31,43,-92,4,9,4,-4
39,58,19,-48,9,39,39,-87,9,24,4,-4
43,63,19,-53,12,41,39,-78,9,24,14,-4
58,73,14,-65,21,43,34,-73,9,24,0,-4
87,87,0,-87,43,43,14,-97,-9,19,-4,-4
92,92,0,-92,46,46,4,-107,-14,19,-4,0
87,87,0,-87,43,43,0,-131,-14,19,-4,-4
87,82,-4,-85,46,39,-9,-151,-29,14,-4,-19
97,73,-24,-85,61,24,-29,-165,-29,24,4,-14
102,68,-34,-85,68,17,-43,-165,-34,24,14,-14
102,63,-39,-82,70,12,-53,-170,-43,19,4,-9
107,53,-53,-80,80,0,-58,-175,-48,9,4,0
97,39,-58,-68,78,-9,-73,-161,-63,-9,-4,-4
87,34,-53,-61,70,-9,-78,-146,-63,-4,-9,-4
78,34,-43,-56,61,-4,-82,-122,-53,-9,-9,-4
78,29,-48,-53,63,-9,-87,-107,-53,-14,0,-4
63,24,-39,-43,51,-7,-87,-112,-39,19,14,0
39,14,-24,-26,31,-4,-82,-112,-29,34,29,4
24,-4,-29,-9,26,-17,-73,-102,-19,48,34,4
14,-19,-34,2,24,-26,-68,-97,-9,63,39,4
34,-9,-43,-12,39,-26,-63,-97,-29,48,34,-4
39,-9,-48,-14,43,-29,-68,-87,-39,39,24,-9
48,0,-48,-24,48,-24,-73,-87,-53,29,14,-9
53,-4,-58,-24,56,-31,-68,-92,-63,9,-4,-24
48,-4,-53,-21,51,-29,-43,-82,-48,19,-9,-24
48,-24,-73,-12,61,-48,-34,-73,-48,34,-9,-29
48,-24,-73,-12,61,-48,-24,-68,-48,43,0,-34
39,-29,-68,-4,53,-48,-19,-58,-43,53,4,-34
39,-53,-92,7,65,-73,-9,-63,-78,19,-19,-43
24,-73,-97,24,61,-85,-4,-73,-87,-24,-43,-58
14,-78,-92,31,53,-85,0,-78,-97,-43,-58,-73
0,-78,-78,39,39,-78,9,-82,-107,-58,-78,-82
-24,-78,-53,51,14,-65,19,-73,-97,-39,-78,-73
-43,-82,-39,63,-2,-61,29,-63,-92,-34,-78,-78
-58,-97,-39,78,-9,-68,43,-58,-82,-24,-78,-87
-68,-97,-29,82,-19,-63,48,-53,-87,-19,-73,-87
-58,-97,-39,78,-9,-68,39,-78,-102,-34,-73,-92
-58,-102,-43,80,-7,-73,39,-82,-112,-39,-78,-97
-58,-102,-43,80,-7,-73,48,-87,-112,-53,-78,-92
-63,-102,-39,82,-12,-70,48,-92,-107,-53,-73,-87
-63,-82,-19,73,-21,-51,34,-92,-117,-48,-68,-82
-73,-73,0,73,-36,-36,24,-97,-122,-48,-63,-73
-78,-63,14,70,-46,-24,9,-92,-122,-48,-58,-63
-82,-48,34,65,-58,-7,-4,-97,-122,-48,-53,-53
-73,-73,0,73,-36,-36,4,-87,-112,-58,-78,-68
-73,-87,-14,80,-29,-51,9,-82,-112,-68,-87,-78
-73,-102,-29,87,-21,-65,9,-78,-117,-87,-102,-97
-73,-122,-48,97,-12,-85,9,-73,-117,-97,-122,-112
-78,-107,-29,92,-24,-68,4,-82,-102,-82,-117,-97
-82,-102,-19,92,-31,-61,4,-78,-97,-68,-112,-92
-87,-97,-9,92,-39,-53,4,-68,-92,-48,-102,-87
-87,-92,-4,90,-41,-48,4,-63,-87,-34,-97,-78
-82,-102,-19,92,-31,-61,-14,-73,-107,-53,-97,-87
-78,-97,-19,87,-29,-58,-14,-78,-112,-68,-107,-92
-58,-97,-39,78,-9,-68,-14,-82,-122,-78,-107,-92
-43,-92,-48,68,2,-70,-19,-82,-126,-92,-112,-92
-58,-92,-34,75,-12,-63,-34,-92,-126,-92,-107,-87
-63,-102,-39,82,-12,-70,-39,-92,-122,-82,-97,-82
-78,-102,-24,90,-26,-63,-43,-92,-117,-73,-82,-78
-73,-102,-29,87,-21,-65,-48,-92,-102,-53,-73,-73
-92,-102,-9,97,-41,-56,-43,-78,-92,-43,-87,-78
-107,-92,14,100,-61,-39,-29,-78,-102,-48,-97,-87
-131,-82,48,107,-90,-17,-24,-87,-102,-48,-92,-82
-117,-97,19,107,-68,-39,-4,-82,-122,-82,-117,-97
-117,-146,-29,131,-43,-87,39,-53,-126,-131,-156,-131
-170,-165,4,168,-87,-80,97,0,-92,-131,-156,-161
-195,-161,34,178,-114,-63,146,73,-9,-78,-122,-146
-204,-112,92,158,-148,-9,200,151,102,19,-58,-102
-234,-58,175,146,-204,58,268,229,185,107,-9,-73
-234,-24,209,129,-222,92,278,278,253,170,48,-34
-224,4,229,109,-226,117,253,297,322,244,126,34
-204,43,248,80,-226,146,239,287,385,336,214,112
-146,102,248,21,-197,175,209,219,453,439,312,195
-43,170,214,-63,-129,192,131,97,517,566,424,283
43,224,180,-134,-68,202,-14,-63,575,697,556,375
117,273,156,-195,-19,214,-156,-219,634,800,668,473
214,317,102,-265,56,209,-302,-380,653,849,736,556
346,361,14,-353,165,187,-453,-492,639,844,756,595
448,390,-58,-419,253,165,-605,-600,551,805,746,614
507,419,-87,-463,297,165,-766,-746,409,702,717,624
536,414,-122,-475,329,146,-863,-893,214,527,629,585
541,361,-180,-451,361,90,-897,-1000,0,312,478,488
546,258,-287,-402,417,-14,-941,-1107,-244,58,283,366
590,107,-483,-348,536,-187,-1005,-1273,-570,-234,43,180
634,-19,-653,-307,644,-336,-1073,-1459,-902,-492,-185,-4
649,-68,-717,-290,683,-392,-1185,-1615,-1117,-629,-302,-73
639,-92,-732,-273,685,-412,-1288,-1698,-1220,-673,-336,-97
629,-136,-766,-246,697,-451,-1317,-1698,-1239,-717,-380,-151
605,-185,-790,-209,697,-488,-1278,-1610,-1205,-722,-419,-209
610,-185,-795,-212,702,-490,-1229,-1498,-1156,-707,-439,-239
629,-214,-844,-207,736,-529,-1161,-1395,-1141,-736,-473,-287
605,-283,-888,-161,746,-585,-1044,-1293,-1166,-805,-551,-370
546,-346,-893,-100,719,-619,-936,-1200,-1166,-863,-595,-405
483,-390,-873,-46,678,-631,-844,-1127,-1132,-883,-634,-439
400,-424,-824,12,612,-624,-732,-1029,-1049,-844,-644,-468
322,-444,-766,61,544,-605,-614,-917,-951,-771,-610,-463
263,-453,-717,95,490,-585,-541,-810,-883,-712,-580,-444
190,-458,-649,134,419,-553,-488,-736,-844,-683,-541,-424
122,-444,-566,161,344,-505,-400,-644,-771,-639,-507,-400
73,-400,-473,163,273,-436,-312,-556,-663,-561,-448,-356
53,-356,-409,151,231,-383,-253,-483,-585,-478,-395,-331
24,-341,-366,158,195,-353,-209,-429,-502,-405,-346,-317
-19,-322,-302,170,141,-312,-151,-351,-405,-317,-292,-268
-82,-253,-170,168,43,-212,-102,-263,-322,-214,-219,-209
-97,-200,-102,148,2,-151,-92,-185,-287,-200,-185,-161
-97,-204,-107,151,4,-156,-92,-146,-292,-239,-214,-175
-156,-244,-87,200,-34,-165,-73,-122,-283,-253,-219,-175
-200,-273,-73,236,-63,-173,-58,-107,-248,-224,-195,-161
-195,-302,-107,248,-43,-204,-53,-78,-209,-180,-180,-161
-190,-297,-107,244,-41,-202,-48,-34,-170,-126,-151,-146
-180,-248,-68,214,-56,-158,-58,-19,-170,-107,-131,-141
-175,-248,-73,212,-51,-161,-68,4,-161,-107,-131,-151
-175,-248,-73,212,-51,-161,-68,19,-151,-107,-136,-151
-170,-234,-63,202,-53,-148,-68,29,-156,-112,-141,-151
-170,-229,-58,200,-56,-143,-63,43,-165,-117,-136,-151
-190,-234,-43,212,-73,-139,-48,34,-175,-126,-156,-141
-209,-244,-34,226,-87,-139,-39,43,-161,-117,-156,-131
-224,-258,-34,241,-95,-146,-19,43,-161,-112,-146,-126
-244,-273,-29,258,-107,-151,-4,48,-156,-112,-146,-122
-234,-248,-14,241,-109,-131,-9,48,-146,-107,-141,-122
-234,-234,0,234,-117,-117,-4,48,-136,-107,-136,-122
-229,-224,4,226,-117,-109,4,48,-131,-107,-126,-122
-224,-219,4,222,-114,-107,19,48,-131,-107,-117,-117
-229,-248,-19,239,-104,-134,39,48,-131,-97,-126,-117
-234,-258,-24,246,-104,-141,53,43,-122,-92,-126,-112
-248,-263,-14,256,-117,-139,78,43,-102,-87,-126,-112
-263,-273,-9,268,-126,-141,92,48,-87,-82,-131,-117
-253,-263,-9,258,-122,-136,102,58,-102,-92,-151,-126
-244,-268,-24,256,-109,-146,102,48,-92,-97,-151,-131
-253,-268,-14,261,-119,-141,102,48,-92,-92,-156,-136
-253,-263,-9,258,-122,-136,102,48,-97,-97,-156,-126
-258,-244,14,251,-136,-114,92,68,-87,-87,-141,-97
-253,-229,24,241,-139,-102,87,73,-97,-82,-131,-73
-258,-224,34,241,-146,-95,87,87,-97,-87,-122,-63
-258,-219,39,239,-148,-90,87,97,-92,-73,-107,-48
-244,-204,39,224,-141,-82,87,97,-78,-58,-117,-58
-239,-200,39,219,-139,-80,82,102,-73,-53,-112,-58
-234,-200,34,217,-134,-82,82,107,-73,-48,-97,-58
-229,-195,34,212,-131,-80,82,117,-58,-48,-97,-58
-214,-209,4,212,-109,-102,87,112,-63,-53,-102,-58
-209,-219,-9,214,-100,-114,97,107,-63,-58,-107,-58
-204,-239,-34,222,-85,-136,107,117,-58,-63,-117,-58
-200,-253,-53,226,-73,-153,117,112,-58,-68,-126,-68
-200,-258,-58,229,-70,-158,107,102,-68,-78,-126,-82
-204,-258,-53,231,-75,-156,107,102,-63,-78,-122,-87
-214,-253,-39,234,-87,-146,112,102,-53,-78,-122,-87
-219,-258,-39,239,-90,-148,112,107,-43,-68,-126,-87
-219,-244,-24,231,-97,-134,107,97,-29,-43,-97,-73
-224,-229,-4,226,-109,-117,97,97,-19,-14,-63,-58
-224,-204,19,214,-122,-92,82,87,4,0,-58,-39
-200,-170,29,185,-114,-70,78,78,4,9,-34,-19
-180,-209,-29,195,-75,-119,87,58,0,-9,-58,-34
-200,-229,-29,214,-85,-129,87,53,-4,-24,-63,-43
-204,-253,-48,229,-78,-151,87,58,4,-34,-63,-53
-224,-268,-43,246,-90,-156,87,63,4,-39,-78,-68
-229,-239,-9,234,-109,-124,68,58,19,-14,-58,-58
-214,-204,9,209,-112,-97,53,53,39,0,-48,-48
-190,-185,4,187,-97,-90,29,48,53,14,-34,-39
-175,-165,9,170,-92,-78,14,43,48,29,-24,-29
-190,-180,9,185,-100,-85,19,68,43,9,-43,-34
-204,-200,4,202,-104,-97,24,73,43,-4,-48,-43
-219,-224,-4,222,-107,-114,34,82,43,-9,-48,-48
-244,-244,0,244,-122,-122,39,92,43,-24,-53,-48
-248,-224,24,236,-136,-100,29,92,68,-9,-43,-39
-253,-214,39,234,-146,-87,29,107,73,9,-43,-39
-248,-204,43,226,-146,-80,34,112,97,24,-39,-39
-244,-190,53,217,-148,-68,43,117,102,39,-39,-48
-219,-200,19,209,-119,-90,29,107,92,34,-39,-58
-209,-209,0,209,-104,-104,34,107,107,34,-48,-63
-204,-219,-14,212,-95,-117,39,112,107,39,-58,-73
-204,-229,-24,217,-90,-126,48,122,107,39,-68,-82
-200,-214,-14,207,-92,-114,48,126,117,53,-63,-97
-195,-195,0,195,-97,-97,43,131,122,63,-68,-102
-185,-190,-4,187,-90,-97,43,136,136,68,-68,-102
-170,-180,-9,175,-80,-95,39,141,151,87,-63,-102
-180,-165,14,173,-97,-75,68,161,170,92,-53,-82
-200,-156,43,178,-122,-56,92,175,175,97,-43,-73
-209,-146,63,178,-136,-41,117,204,190,102,-29,-63
-214,-146,68,180,-141,-39,131,224,190,102,-19,-53
-214,-156,58,185,-136,-48,126,239,200,97,-43,-73
-219,-165,53,192,-136,-56,126,253,204,87,-48,-82
-219,-180,39,200,-129,-70,136,278,209,82,-63,-82
-224,-195,29,209,-126,-82,136,283,219,73,-73,-87
-219,-190,29,204,-124,-80,131,283,244,92,-63,-82
-214,-190,24,202,-119,-82,136,307,263,107,-58,-82
-195,-195,0,195,-97,-97,136,312,263,107,-58,-82
-180,-190,-9,185,-85,-100,136,317,273,122,-53,-78
-180,-170,9,175,-95,-80,131,322,292,141,-39,-68
-175,-151,24,163,-100,-63,131,336,297,156,-24,-58
-175,-141,34,158,-104,-53,131,356,307,170,-9,-53
-175,-107,68,141,-122,-19,131,370,326,190,9,-34
-170,-73,97,122,-134,12,117,366,322,190,14,-14
-170,-58,112,114,-141,26,112,370,326,190,24,-9
-165,-43,122,104,-143,39,102,380,331,175,39,0
-156,-19,136,87,-146,58,87,375,322,165,39,0
-161,-53,107,107,-134,26,92,385,307,151,24,-19
-161,-73,87,117,-124,7,102,390,307,146,9,-29
-185,-102,82,143,-134,-9,112,409,317,146,14,-34
-195,-126,68,161,-131,-29,122,414,322,146,9,-34
-185,-107,78,146,-131,-14,107,424,341,165,19,-29
-170,-78,92,124,-131,7,92,424,346,185,34,-19
-156,-53,102,104,-129,24,92,429,361,200,48,-4
-156,-29,126,92,-141,48,92,429,366,209,73,4
-146,-34,112,90,-129,39,82,419,346,185,58,-9
-146,-19,126,82,-136,53,78,409,331,175,53,-14
-136,-14,122,75,-129,53,68,405,317,165,58,-9
-131,-9,122,70,-126,56,68,400,297,151,48,-14
-122,9,131,56,-126,70,53,380,287,146,48,-24
-112,9,122,51,-117,65,39,356,278,141,39,-29
-92,9,102,41,-97,56,9,341,263,141,48,-34
-73,19,92,26,-82,56,0,312,258,141,53,-34
-102,29,131,36,-117,80,4,326,253,151,68,-19
-141,4,146,68,-143,75,14,326,248,151,68,-4
-161,4,165,78,-163,85,14,317,253,151,63,9
-180,4,185,87,-183,95,29,307,248,141,68,24
-165,0,165,82,-165,82,29,292,239,146,63,4
-161,-4,156,82,-158,75,14,268,234,146,58,14
-156,-19,136,87,-146,58,9,248,229,146,53,19
-161,-39,122,100,-141,41,0,224,219,141,58,9
-161,-39,122,100,-141,41,-14,204,204,131,78,4
-151,-24,126,87,-139,51,-39,170,180,112,68,9
-146,0,146,73,-146,73,-53,151,165,112,48,9
-146,-9,136,78,-141,63,-63,141,156,107,29,0
-156,-29,126,92,-141,48,-68,122,131,92,19,-14
-161,-39,122,100,-141,41,-82,87,112,68,14,-14
-170,-39,131,104,-151,46,-82,73,102,63,9,-19
-190,-48,141,119,-165,46,-82,53,73,53,-4,-29
-185,-68,117,126,-151,24,-73,24,53,29,-34,-53
-180,-78,102,129,-141,12,-68,14,34,9,-53,-73
-170,-92,78,131,-124,-7,-68,-9,14,-4,-68,-87
-165,-122,43,143,-104,-39,-68,-34,-4,-34,-87,-97
-185,-141,43,163,-114,-48,-68,-39,-14,-24,-92,-87
-195,-151,43,173,-119,-53,-73,-53,-14,-24,-97,-78
-204,-165,39,185,-122,-63,-73,-63,-24,-24,-92,-68
-214,-165,48,190,-131,-58,-73,-73,-24,-24,-87,-68
-200,-156,43,178,-122,-56,-68,-68,-29,-24,-92,-78
-200,-156,43,178,-122,-56,-63,-78,-39,-34,-92,-92
-219,-170,48,195,-134,-61,-58,-82,-48,-43,-97,-97
-239,-170,68,204,-153,-51,-48,-87,-58,-53,-117,-97
-224,-161,63,192,-143,-48,-39,-82,-63,-43,-107,-97
-219,-161,58,190,-139,-51,-39,-87,-63,-48,-112,-102
-224,-156,68,190,-146,-43,-19,-92,-63,-53,-107,-102
-219,-156,63,187,-141,-46,-4,-97,-63,-53,-102,-97
-214,-165,48,190,-131,-58,-9,-112,-73,-68,-112,-112
-214,-165,48,190,-131,-58,-14,-117,-78,-68,-112,-117
-190,-156,34,173,-112,-61,-24,-126,-82,-73,-117,-126
-170,-146,24,158,-97,-61,-39,-131,-92,-78,-122,-136
-180,-156,24,168,-102,-65,-34,-126,-87,-73,-117,-136
-195,-165,29,180,-112,-68,-24,-122,-82,-58,-112,-117
-204,-175,29,190,-117,-73,-9,-117,-78,-53,-107,-112
-214,-185,29,200,-122,-78,-4,-112,-82,-58,-102,-126
-200,-180,19,190,-109,-80,-9,-126,-92,-58,-112,-122
-195,-180,14,187,-104,-82,-14,-131,-97,-68,-112,-122
-190,-170,19,180,-104,-75,-14,-131,-102,-73,-107,-122
-185,-161,24,173,-104,-68,-14,-131,-107,-78,-102,-117
-146,-146,0,146,-73,-73,-29,-146,-122,-102,-117,-131
-126,-136,-9,131,-58,-73,-29,-151,-131,-117,-131,-136
-107,-131,-24,119,-41,-78,-34,-151,-146,-117,-146,-151
-78,-122,-43,100,-17,-82,-29,-126,-136,-126,-151,-156
-87,-131,-43,109,-21,-87,-24,-136,-122,-122,-131,-161
-107,-136,-29,122,-39,-82,-24,-141,-117,-112,-122,-156
-126,-146,-19,136,-53,-82,-29,-146,-117,-107,-117,-151
-146,-156,-9,151,-68,-82,-14,-146,-117,-107,-117,-146
-161,-141,19,151,-90,-61,-4,-136,-112,-112,-107,-122
-170,-136,34,153,-102,-51,9,-126,-117,-107,-107,-126
-180,-131,48,156,-114,-41,24,-102,-112,-97,-102,-122
-204,-126,78,165,-141,-24,29,-92,-107,-92,-92,-122
-185,-131,53,158,-119,-39,29,-87,-97,-87,-92,-126
-180,-131,48,156,-114,-41,19,-82,-107,-97,-102,-122
-170,-136,34,153,-102,-51,14,-73,-107,-102,-112,-117
-146,-151,-4,148,-70,-78,0,-68,-107,-107,-122,-131
-117,-136,-19,126,-48,-78,-4,-68,-107,-97,-126,-146
-112,-122,-9,117,-51,-65,0,-63,-102,-97,-126,-146
-131,-126,4,129,-68,-61,-4,-63,-102,-97,-136,-146
-112,-122,-9,117,-51,-65,-9,-68,-102,-97,-141,-136
-102,-92,9,97,-56,-41,4,-68,-102,-97,-131,-126
-92,-82,9,87,-51,-36,19,-68,-112,-102,-131,-117
-92,-73,19,82,-56,-26,29,-58,-112,-102,-126,-122
-122,-87,34,104,-78,-26,48,-48,-112,-102,-126,-126
-122,-107,14,114,-68,-46,43,-34,-112,-107,-131,-126
-117,-97,19,107,-68,-39,43,-29,-107,-117,-126,-126
-107,-87,19,97,-63,-34,43,-19,-107,-117,-122,-122
-102,-78,24,90,-63,-26,43,-9,-112,-126,-126,-122
-97,-87,9,92,-53,-39,43,-4,-122,-122,-117,-117
-92,-87,4,90,-48,-41,43,0,-117,-136,-131,-117
-87,-107,-19,97,-34,-63,48,4,-107,-112,-131,-102
-82,-92,-9,87,-36,-51,48,19,-82,-82,-126,-82
-97,-58,39,78,-68,-9,63,14,-82,-87,-107,-73
-97,-53,43,75,-70,-4,63,14,-92,-92,-117,-78
-97,-48,48,73,-73,0,53,14,-92,-102,-131,-78
-112,-58,53,85,-82,-2,53,24,-92,-107,-131,-78
-112,-68,43,90,-78,-12,53,39,-87,-107,-117,-58
-97,-58,39,78,-68,-9,53,34,-87,-107,-117,-58
-87,-58,29,73,-58,-14,53,19,-87,-107,-117,-58
-87,-58,29,73,-58,-14,53,48,-82,-107,-112,-58
-82,-48,34,65,-58,-7,43,39,-53,-97,-92,-58
-73,-39,34,56,-53,-2,39,34,-43,-82,-78,-53
-68,-39,29,53,-48,-4,39,34,-39,-73,-73,-53
-78,-39,39,58,-58,0,39,29,-24,-63,-68,-43
-68,-19,48,43,-58,14,34,14,-24,-73,-63,-39
-68,-19,48,43,-58,14,29,0,-29,-78,-78,-34
-68,-14,53,41,-61,19,29,-9,-24,-82,-87,-43
-63,-14,48,39,-56,17,29,-19,-24,-97,-92,-73
-53,-24,29,39,-41,2,29,-24,-14,-78,-82,-68
-63,-24,39,43,-51,7,29,-29,-9,-58,-68,-63
-53,-4,48,29,-51,21,24,-34,-4,-48,-48,-53
-53,0,53,26,-53,26,19,-34,14,-39,-39,-43
-78,-34,43,56,-61,4,19,-43,-14,-97,-78,-63
-78,-39,39,58,-58,0,19,-48,-19,-107,-87,-78
-73,-24,48,48,-61,12,19,-63,-4,-92,-78,-68
-68,-19,48,43,-58,14,19,-68,0,-78,-68,-68
-63,-14,48,39,-56,17,19,-73,4,-63,-58,-68
-58,-9,48,34,-53,19,19,-78,9,-48,-48,-68
-53,0,53,26,-53,26,24,-68,19,-43,-29,-63
-48,9,58,19,-53,34,34,-73,29,-34,-19,-53
-48,14,63,17,-56,39,39,-78,34,-24,-9,-43
-48,19,68,14,-58,43,43,-82,34,-19,-4,-34
-39,19,58,9,-48,39,39,-73,34,-29,-9,-34
-39,24,63,7,-51,43,43,-73,29,-34,-24,-34
-34,29,63,2,-48,46,43,-73,34,-39,-9,-39
-34,29,63,2,-48,46,43,-73,39,-43,-14,-39
-34,24,58,4,-46,41,43,-78,34,-34,-34,-48
-29,29,58,0,-43,43,48,-78,34,-24,-39,-58
-19,24,43,-2,-31,34,53,-82,39,-19,-34,-68
-14,19,34,-2,-24,26,53,-87,39,-19,-29,-73
-24,29,53,-2,-39,41,63,-92,48,-14,-4,-53
-39,39,78,0,-58,58,58,-87,58,4,-4,-43
-34,53,87,-9,-61,70,58,-78,63,9,4,-34
-19,73,92,-26,-56,82,53,-73,68,14,-9,-24
-4,68,73,-31,-39,70,43,-82,63,29,0,-29
-4,63,68,-29,-36,65,34,-87,63,39,4,-19
-14,48,63,-17,-39,56,29,-107,68,48,9,-19
-19,34,53,-7,-36,43,19,-122,58,53,14,-29
-19,34,53,-7,-36,43,0,-136,48,43,4,-24
-14,39,53,-12,-34,46,-14,-136,43,43,14,-24
-14,43,58,-14,-36,51,-24,-141,34,39,4,-19
-9,43,53,-17,-31,48,-29,-146,29,29,4,-9
0,43,43,-21,-21,43,-34,-156,14,19,0,-14
0,43,43,-21,-21,43,-39,-156,14,34,0,-14
0,48,48,-24,-24,48,-43,-146,24,39,4,-14
9,48,39,-29,-14,43,-48,-146,24,43,19,-14
4,43,39,-24,-17,41,-63,-141,19,43,9,0
-9,34,43,-12,-26,39,-63,-141,19,43,19,4
-14,14,29,0,-21,21,-58,-131,19,43,19,4
-14,0,14,7,-14,7,-58,-126,19,43,19,4
0,0,0,0,0,0,-63,-117,24,48,24,14
0,0,0,0,0,0,-68,-97,29,48,24,9
4,9,4,-7,0,7,-73,-87,29,48,24,9
4,4,0,-4,2,2,-68,-82,34,39,14,-4
-24,-9,14,17,-19,2,-53,-78,29,24,0,-9
-29,-34,-4,31,-12,-19,-43,-73,19,24,-9,-19
-34,-39,-4,36,-14,-21,-34,-73,9,19,-9,-29
-48,-48,0,48,-24,-24,-29,-68,4,14,-14,-34
-34,-58,-24,46,-4,-41,-29,-78,-19,9,-19,-29
-43,-73,-29,58,-7,-51,-24,-82,-19,-14,-24,-39
-48,-73,-24,61,-12,-48,-19,-82,-19,-14,-19,-48
-58,-68,-9,63,-24,-39,-9,-82,-19,-9,-19,-53
-73,-58,14,65,-43,-21,-4,-68,-19,-19,-24,-43
-82,-63,19,73,-51,-21,0,-63,-24,-24,-29,-48
-87,-78,9,82,-48,-34,9,-63,-24,-24,-34,-58
-87,-78,9,82,-48,-34,9,-63,-39,-29,-34,-58
-68,-87,-19,78,-24,-53,0,-63,-43,-24,-29,-68
-68,-92,-24,80,-21,-58,0,-63,-53,-29,-39,-78
-68,-92,-24,80,-21,-58,9,-63,-53,-43,-43,-78
-73,-92,-19,82,-26,-56,9,-63,-48,-43,-43,-78
-58,-78,-19,68,-19,-48,0,-73,-53,-43,-53,-92
-63,-73,-9,68,-26,-41,4,-78,-63,-48,-53,-92
-63,-68,-4,65,-29,-36,4,-73,-68,-53,-53,-92
-63,-58,4,61,-34,-26,4,-78,-73,-58,-53,-92
-78,-73,4,75,-41,-34,0,-78,-82,-73,-68,-97
-82,-78,4,80,-43,-36,0,-73,-82,-78,-68,-97
-87,-82,4,85,-46,-39,-4,-68,-87,-92,-73,-107
-92,-92,0,92,-46,-46,-9,-63,-87,-97,-82,-112
-82,-82,0,82,-41,-41,-9,-48,-73,-92,-78,-97
-82,-73,9,78,-46,-31,-4,-39,-68,-87,-73,-92
-82,-63,19,73,-51,-21,0,-24,-63,-78,-63,-87
-78,-53,24,65,-51,-14,4,-14,-58,-73,-58,-78
-63,-48,14,56,-39,-17,-14,-19,-53,-58,-43,-78
-58,-39,19,48,-39,-9,-14,-29,-53,-58,-48,-82
-39,-34,4,36,-21,-14,-14,-39,-58,-53,-43,-82
-24,-24,0,24,-12,-12,-19,-43,-58,-53,-43,-82
-24,-39,-14,31,-4,-26,-29,-48,-78,-82,-63,-87
-24,-53,-29,39,2,-41,-29,-53,-82,-92,-78,-92
-34,-58,-24,46,-4,-41,-29,-58,-87,-102,-87,-97
-24,-63,-39,43,7,-51,-29,-63,-82,-102,-102,-102
-4,-73,-68,39,31,-70,-14,-39,-53,-73,-68,-87
9,-73,-82,31,46,-78,-19,-48,-73,-78,-78,-97
-34,-92,-58,63,12,-75,-4,-48,-63,-87,-82,-102
-78,-78,0,78,-39,-39,43,-4,-24,-63,-58,-87
-97,-48,48,73,-73,0,78,34,0,-43,-48,-73
-122,-48,73,85,-97,12,117,78,24,-34,-39,-73
-136,-34,102,85,-119,34,165,151,87,19,-14,-68
-146,-4,141,75,-143,68,229,239,180,97,29,-34
-136,29,165,53,-151,97,268,317,283,175,97,4
-107,53,161,26,-134,107,278,346,361,239,156,43
-68,73,141,-2,-104,107,253,317,419,312,204,82
-29,102,131,-36,-80,117,229,248,473,405,273,131
39,161,122,-100,-41,141,170,151,551,527,390,234
122,248,126,-185,-2,187,53,19,595,634,522,351
209,322,112,-265,48,217,-122,-151,624,727,624,444
302,380,78,-341,112,229,-302,-297,673,829,727,541
400,414,14,-407,192,214,-448,-380,722,907,814,624
502,448,-53,-475,278,197,-590,-483,668,873,834,663
585,458,-126,-522,356,165,-722,-649,541,785,805,673
644,448,-195,-546,419,126,-834,-805,390,673,736,644
673,434,-239,-553,456,97,-912,-912,204,507,619,575
697,361,-336,-529,517,12,-976,-1010,-58,263,458,468
712,239,-473,-475,592,-117,-1049,-1146,-390,-48,224,317
766,117,-649,-441,707,-265,-1122,-1312,-736,-341,-14,141
829,58,-771,-444,800,-356,-1220,-1488,-980,-512,-156,43
824,48,-775,-436,800,-363,-1322,-1615,-1137,-610,-214,-4
795,4,-790,-400,793,-392,-1366,-1649,-1220,-702,-287,-78
785,-39,-824,-373,805,-431,-1327,-1600,-1190,-756,-351,-151
780,-48,-829,-366,805,-439,-1259,-1503,-1137,-751,-380,-180
775,-107,-883,-334,829,-495,-1180,-1410,-1127,-766,-429,-239
