I,II,III,aVR,aVL,aVF,V1,V2,V3,V4,V5,V6
156,165,9,-161,73,87,-156,48,107,195,253,273
156,165,9,-161,73,87,-156,48,107,195,253,273
156,165,9,-161,73,87,-156,48,107,195,253,273
156,165,9,-161,73,87,-156,48,107,195,253,273
156,170,14,-163,70,92,-156,39,117,204,258,283
156,175,19,-165,68,97,-156,39,117,204,263,283
156,180,24,-168,65,102,-156,39,117,204,268,283
156,185,29,-170,63,107,-156,39,117,204,273,283
165,185,19,-175,73,102,-156,48,117,204,263,283
165,185,19,-175,73,102,-156,48,117,204,263,283
165,185,19,-175,73,102,-156,48,117,204,263,283
165,185,19,-175,73,102,-156,48,117,204,263,283
175,195,19,-185,78,107,-146,48,122,219,278,287
185,204,19,-195,82,112,-146,48,126,224,283,292
195,214,19,-204,87,117,-146,48,131,229,287,297
204,224,19,-214,92,122,-146,48,136,234,292,302
204,214,9,-209,97,112,-146,58,126,224,287,292
204,214,9,-209,97,112,-146,58,126,224,283,292
204,214,9,-209,97,112,-146,58,126,224,278,292
204,214,9,-209,97,112,-146,58,126,224,273,292
195,204,9,-200,92,107,-141,68,126,214,268,283
195,204,9,-200,92,107,-136,68,126,214,263,283
195,204,9,-200,92,107,-131,68,126,214,258,283
195,204,9,-200,92,107,-126,68,126,214,253,283
204,214,9,-209,97,112,-122,73,136,214,253,278
214,214,0,-214,107,107,-117,78,136,214,253,273
224,214,-9,-219,117,102,-112,82,136,214,253,268
234,214,-19,-224,126,97,-107,87,136,214,253,263
224,209,-14,-217,119,97,-87,102,146,214,244,253
224,204,-19,-214,122,92,-78,107,146,214,244,253
224,200,-24,-212,124,87,-68,112,146,214,244,253
224,195,-29,-209,126,82,-58,117,146,214,244,253
209,180,-29,-195,119,75,-53,117,141,209,234,244
195,165,-29,-180,112,68,-48,117,136,204,224,234
180,151,-29,-165,104,61,-43,117,131,200,214,224
165,136,-29,-151,97,53,-39,117,126,195,204,214
146,122,-24,-134,85,48,-29,126,136,190,200,200
136,117,-19,-126,78,48,-19,126,136,185,195,195
126,112,-14,-119,70,48,-9,126,136,180,190,190
117,107,-9,-112,63,48,0,126,136,175,185,185
107,97,-9,-102,58,43,4,117,126,170,170,180
97,87,-9,-92,53,39,9,117,126,165,165,175
87,78,-9,-82,48,34,14,117,126,161,161,170
78,68,-9,-73,43,29,19,117,126,156,156,165
63,58,-4,-61,34,26,29,107,117,151,151,156
58,48,-9,-53,34,19,39,107,117,146,146,146
53,39,-14,-46,34,12,48,107,117,141,141,136
48,29,-19,-39,34,4,58,107,117,136,136,126
43,14,-29,-29,36,-7,68,97,112,122,131,122
39,9,-29,-24,34,-9,68,97,107,117,126,117
34,4,-29,-19,31,-12,68,97,102,112,122,112
29,0,-29,-14,29,-14,68,97,97,107,117,107
24,-9,-34,-7,29,-21,68,82,92,97,107,102
19,-9,-29,-4,24,-19,68,78,87,97,107,97
14,-9,-24,-2,19,-17,68,73,82,97,107,92
9,-9,-19,0,14,-14,68,68,78,97,107,87
4,-14,-19,4,12,-17,68,68,73,82,102,78
0,-19,-19,9,9,-19,68,68,68,78,97,78
-4,-24,-19,14,7,-21,68,68,63,73,92,78
-9,-29,-19,19,4,-24,68,68,58,68,87,78
-9,-34,-24,21,7,-29,68,63,48,58,82,73
-9,-39,-29,24,9,-34,68,58,48,58,78,68
-9,-43,-34,26,12,-39,68,53,48,58,73,63
-9,-48,-39,29,14,-43,68,48,48,58,68,58
-19,-48,-29,34,4,-39,58,43,39,48,58,48
-19,-48,-29,34,4,-39,58,39,39,48,58,48
-19,-48,-29,34,4,-39,58,34,39,48,58,48
-19,-48,-29,34,4,-39,58,29,39,48,58,48
-19,-48,-29,34,4,-39,58,19,29,39,48,48
-19,-48,-29,34,4,-39,58,19,29,39,48,48
-19,-48,-29,34,4,-39,58,19,29,39,48,48
-19,-48,-29,34,4,-39,58,19,29,39,48,48
-24,-48,-24,36,0,-36,58,9,29,39,48,48
-29,-48,-19,39,-4,-34,58,9,29,39,48,48
-34,-48,-14,41,-9,-31,58,9,29,39,48,48
-39,-48,-9,43,-14,-29,58,9,29,39,48,48
-39,-48,-9,43,-14,-29,58,0,39,48,58,48
-39,-48,-9,43,-14,-29,58,0,39,48,58,48
-39,-48,-9,43,-14,-29,58,0,39,48,58,48
-39,-48,-9,43,-14,-29,58,0,39,48,58,48
-48,-48,0,48,-24,-24,58,0,29,39,48,39
-48,-48,0,48,-24,-24,58,0,29,39,48,39
-48,-48,0,48,-24,-24,58,0,29,39,48,39
-48,-48,0,48,-24,-24,58,0,29,39,48,39
-58,-48,9,53,-34,-19,58,0,29,39,48,39
-58,-48,9,53,-34,-19,58,0,29,39,48,39
-58,-48,9,53,-34,-19,58,0,29,39,48,39
-58,-48,9,53,-34,-19,58,0,29,39,48,39
-58,-39,19,48,-39,-9,58,0,29,39,58,39
-58,-39,19,48,-39,-9,58,0,29,39,58,39
-58,-39,19,48,-39,-9,58,0,29,39,58,39
-58,-39,19,48,-39,-9,58,0,29,39,58,39
-58,-48,9,53,-34,-19,58,0,29,39,48,39
-58,-48,9,53,-34,-19,58,0,29,39,48,39
-58,-48,9,53,-34,-19,58,0,29,39,48,39
-58,-48,9,53,-34,-19,58,0,29,39,48,39
-48,-39,9,43,-29,-14,48,0,39,43,58,48
-48,-39,9,43,-29,-14,48,0,39,48,58,48
-48,-39,9,43,-29,-14,48,0,39,53,58,48
-48,-39,9,43,-29,-14,48,0,39,58,58,48
-48,-29,19,39,-34,-4,48,9,29,48,48,39
-48,-29,19,39,-34,-4,48,9,29,48,48,39
-48,-29,19,39,-34,-4,48,9,29,48,48,39
-48,-29,19,39,-34,-4,48,9,29,48,48,39
-48,-34,14,41,-31,-9,58,9,29,48,58,39
-48,-39,9,43,-29,-14,58,9,29,48,58,39
-48,-43,4,46,-26,-19,58,9,29,48,58,39
-48,-48,0,48,-24,-24,58,9,29,48,58,39
-48,-39,9,43,-29,-14,48,9,29,48,58,39
-48,-39,9,43,-29,-14,48,9,29,48,58,39
-48,-39,9,43,-29,-14,48,9,29,48,58,39
-48,-39,9,43,-29,-14,48,9,29,48,58,39
-48,-39,9,43,-29,-14,48,9,29,39,58,48
-48,-39,9,43,-29,-14,48,9,29,39,58,48
-48,-39,9,43,-29,-14,48,9,29,39,58,48
-48,-39,9,43,-29,-14,48,9,29,39,58,48
-48,-29,19,39,-34,-4,48,9,19,48,58,48
-48,-29,19,39,-34,-4,48,9,19,48,58,48
-48,-29,19,39,-34,-4,48,9,19,48,58,48
-48,-29,19,39,-34,-4,48,9,19,48,58,48
-58,-39,19,48,-39,-9,39,0,19,39,58,39
-58,-39,19,48,-39,-9,39,0,19,39,58,39
-58,-39,19,48,-39,-9,39,0,19,39,58,39
-58,-39,19,48,-39,-9,39,0,19,39,58,39
-48,-48,0,48,-24,-24,39,0,9,29,48,39
-48,-48,0,48,-24,-24,39,0,9,29,48,39
-48,-48,0,48,-24,-24,39,0,9,29,48,39
-48,-48,0,48,-24,-24,39,0,9,29,48,39
-48,-39,9,43,-29,-14,39,-9,9,29,48,29
-48,-39,9,43,-29,-14,39,-9,9,29,48,29
-48,-39,9,43,-29,-14,39,-9,9,29,48,29
-48,-39,9,43,-29,-14,39,-9,9,29,48,29
-58,-48,9,53,-34,-19,39,-9,9,29,39,19
-58,-48,9,53,-34,-19,39,-9,9,29,39,19
-58,-48,9,53,-34,-19,39,-9,9,29,39,19
-58,-48,9,53,-34,-19,39,-9,9,29,39,19
-48,-48,0,48,-24,-24,29,-19,9,29,48,29
-48,-48,0,48,-24,-24,29,-19,9,29,48,29
-48,-48,0,48,-24,-24,29,-19,9,29,48,29
-48,-48,0,48,-24,-24,29,-19,9,29,48,29
-53,-48,4,51,-29,-21,19,-29,9,29,39,29
-58,-48,9,53,-34,-19,19,-29,9,29,39,29
-63,-48,14,56,-39,-17,19,-29,9,29,39,29
-68,-48,19,58,-43,-14,19,-29,9,29,39,29
-63,-48,14,56,-39,-17,19,-19,0,19,39,19
-58,-48,9,53,-34,-19,19,-19,0,19,39,19
-53,-48,4,51,-29,-21,19,-19,0,19,39,19
-48,-48,0,48,-24,-24,19,-19,0,19,39,19
-48,-43,4,46,-26,-19,29,-19,9,29,39,29
-48,-39,9,43,-29,-14,29,-19,9,29,39,29
-48,-34,14,41,-31,-9,29,-19,9,29,39,29
-48,-29,19,39,-34,-4,29,-19,9,29,39,29
-39,-19,19,29,-29,0,39,-14,14,39,48,39
-39,-19,19,29,-29,0,39,-9,19,39,48,39
-39,-19,19,29,-29,0,39,-4,24,39,48,39
-39,-19,19,29,-29,0,39,0,29,39,48,39
-29,-4,24,17,-26,9,43,14,34,53,53,43
-29,0,29,14,-29,14,48,19,39,58,58,48
-29,4,34,12,-31,19,53,24,43,63,63,53
-29,9,39,9,-34,24,58,29,48,68,68,58
-19,9,29,4,-24,19,58,39,58,68,68,48
-19,4,24,7,-21,14,63,39,63,73,68,48
-19,4,24,7,-21,14,63,39,63,73,63,48
-19,0,19,9,-19,9,53,39,53,63,58,39
-19,-9,9,14,-14,0,58,24,53,58,63,48
-19,-14,4,17,-12,-4,43,19,43,58,63,48
-19,-14,4,17,-12,-4,29,4,34,48,53,48
-9,-14,-4,12,-2,-9,19,-4,34,48,53,48
4,-4,-9,0,7,-7,0,-4,24,34,53,43
9,-4,-14,-2,12,-9,-19,-14,14,29,53,43
9,-4,-14,-2,12,-9,-24,-14,14,29,53,43
9,-4,-14,-2,12,-9,-29,-19,9,29,48,43
9,-9,-19,0,14,-14,-24,-19,-4,24,34,39
4,-9,-14,2,9,-12,-24,-19,-4,19,34,39
0,-14,-14,7,7,-14,-24,-24,-9,14,34,34
0,-19,-19,9,9,-19,-24,-29,-9,14,34,29
-19,-34,-14,26,-2,-24,-34,-39,0,14,29,29
-19,-34,-14,26,-2,-24,-34,-34,0,14,29,29
-19,-34,-14,26,-2,-24,-24,-29,0,19,29,34
-19,-34,-14,26,-2,-24,-24,-29,0,19,29,34
-9,-24,-14,17,2,-19,-29,-39,-4,14,39,24
-4,-24,-19,14,7,-21,-34,-39,-4,9,39,24
-4,-24,-19,14,7,-21,-34,-43,-14,4,29,14
-4,-24,-19,14,7,-21,-34,-43,-14,4,29,14
-4,-14,-9,9,2,-12,-34,-43,-9,9,34,29
-4,-14,-9,9,2,-12,-34,-43,-9,9,39,29
-9,-14,-4,12,-2,-9,-29,-43,-9,14,39,29
-9,-14,-4,12,-2,-9,-24,-39,-4,14,39,34
-24,-29,-4,26,-9,-17,-14,-29,4,24,48,24
-34,-29,4,31,-19,-12,-14,-29,4,24,48,24
-39,-34,4,36,-21,-14,-9,-29,4,24,48,24
-39,-43,-4,41,-17,-24,-9,-24,0,14,43,9
-53,-39,14,46,-34,-12,-9,-29,-9,4,29,19
-63,-43,19,53,-41,-12,-14,-43,-9,4,19,9
-68,-48,19,58,-43,-14,-19,-53,-9,0,19,9
-68,-48,19,58,-43,-14,-24,-58,-9,0,19,9
-73,-43,29,58,-51,-7,-14,-53,-19,-9,19,9
-82,-53,29,68,-56,-12,-19,-53,-24,-9,14,4
-82,-53,29,68,-56,-12,-19,-53,-24,-9,14,4
-82,-53,29,68,-56,-12,-19,-58,-24,-14,9,-4
-73,-63,9,68,-41,-26,-19,-58,-24,-14,0,-14
-73,-63,9,68,-41,-26,-14,-53,-24,-9,0,-4
-73,-68,4,70,-39,-31,-14,-53,-24,-9,0,-14
-73,-68,4,70,-39,-31,-9,-53,-24,-9,0,-14
-82,-68,14,75,-48,-26,0,-53,-24,-9,9,-14
-82,-68,14,75,-48,-26,-4,-53,-24,-14,9,-14
-82,-68,14,75,-48,-26,-4,-48,-24,-14,9,-9
-87,-68,19,78,-53,-24,-4,-48,-19,-14,9,-9
-82,-58,24,70,-53,-17,-14,-58,-19,-4,9,-9
-78,-58,19,68,-48,-19,-9,-58,-19,0,14,-9
-73,-58,14,65,-43,-21,-9,-58,-19,0,14,-9
-68,-58,9,63,-39,-24,-4,-58,-19,0,14,-9
-73,-58,14,65,-43,-21,-4,-48,-9,0,24,0
-78,-58,19,68,-48,-19,-9,-48,-9,0,24,-4
-82,-58,24,70,-53,-17,-9,-48,-9,0,24,-4
-87,-58,29,73,-58,-14,-9,-48,-9,0,19,0
-82,-63,19,73,-51,-21,-19,-58,-9,0,19,-4
-82,-63,19,73,-51,-21,-14,-58,-9,0,19,-9
-82,-58,24,70,-53,-17,-14,-58,-9,0,19,-14
-82,-58,24,70,-53,-17,-14,-58,-9,0,19,-19
-92,-48,43,70,-68,-2,-4,-48,-9,-9,14,-14
-92,-48,43,70,-68,-2,-4,-48,-9,-9,14,-9
-92,-53,39,73,-65,-7,-4,-48,-9,-9,14,-4
-92,-53,39,73,-65,-7,-4,-48,-9,-9,14,0
-82,-63,19,73,-51,-21,-14,-48,-9,-9,4,-9
-82,-63,19,73,-51,-21,-14,-48,-9,-9,4,-9
-82,-63,19,73,-51,-21,-14,-48,-9,-9,4,-9
-82,-63,19,73,-51,-21,-14,-48,-9,-9,4,-9
-82,-63,19,73,-51,-21,-4,-39,0,-4,14,0
-82,-63,19,73,-51,-21,-4,-39,0,0,14,0
-82,-63,19,73,-51,-21,-4,-39,0,4,14,0
-82,-58,24,70,-53,-17,-4,-39,0,9,14,0
-82,-48,34,65,-58,-7,-4,-43,-9,0,4,-9
-87,-48,39,68,-63,-4,-4,-43,-9,0,4,-9
-87,-48,39,68,-63,-4,0,-34,0,0,4,-9
-87,-48,39,68,-63,-4,0,-34,0,0,4,-9
-87,-48,39,68,-63,-4,0,-43,-4,-4,4,-9
-117,-29,87,73,-102,29,14,-29,24,29,34,14
-126,-4,122,65,-124,58,24,-19,53,48,43,34
-126,14,141,56,-134,78,58,19,73,63,48,34
-146,-14,131,80,-139,58,87,68,92,82,43,24
-146,-24,122,85,-134,48,97,131,131,126,82,43
-78,-24,53,51,-65,14,112,229,195,204,141,87
-4,-39,-34,21,14,-36,122,366,253,273,180,112
73,-53,-126,-9,100,-90,146,575,341,361,253,161
175,-43,-219,-65,197,-131,185,834,488,502,346,244
312,-19,-331,-146,322,-175,204,1073,629,653,458,351
434,34,-400,-234,417,-183,224,1298,766,824,590,478
556,102,-453,-329,505,-175,234,1483,878,951,688,570
658,151,-507,-405,583,-178,224,1566,888,951,712,600
741,180,-561,-461,651,-190,195,1483,751,814,634,561
761,195,-566,-478,663,-185,131,1224,527,575,468,453
741,268,-473,-505,607,-102,24,849,307,341,326,366
717,287,-429,-502,573,-70,-58,502,97,131,195,273
678,92,-585,-385,631,-246,-73,283,-136,-146,-73,24
600,-131,-732,-234,666,-431,-92,9,-395,-434,-375,-253
468,-170,-639,-148,553,-405,-165,-390,-556,-595,-492,-351
322,-146,-468,-87,395,-307,-229,-702,-619,-653,-507,-356
190,-131,-322,-29,256,-226,-219,-814,-610,-649,-488,-356
68,-112,-180,21,124,-146,-165,-800,-566,-595,-463,-336
-58,-141,-82,100,12,-112,-97,-736,-517,-570,-473,-366
-151,-165,-14,158,-68,-90,-19,-644,-448,-527,-448,-366
-195,-170,24,183,-109,-73,19,-551,-395,-473,-409,-346
-214,-190,24,202,-119,-82,43,-473,-366,-448,-409,-346
-248,-219,29,234,-139,-95,97,-375,-322,-414,-390,-356
-302,-273,29,287,-165,-122,195,-253,-258,-370,-395,-370
-346,-322,24,334,-185,-148,283,-131,-185,-322,-370,-375
-361,-331,29,346,-195,-151,351,-19,-117,-263,-326,-346
-380,-322,58,351,-219,-131,385,48,-68,-224,-302,-326
-351,-302,48,326,-200,-126,419,122,-24,-200,-287,-307
-336,-263,73,300,-204,-95,463,185,34,-146,-244,-273
-356,-229,126,292,-241,-51,497,224,63,-117,-219,-253
-366,-190,175,278,-270,-7,536,229,82,-87,-185,-234
-375,-165,209,270,-292,21,566,248,122,-58,-151,-200
-370,-146,224,258,-297,39,595,273,136,-29,-131,-180
-351,-131,219,241,-285,43,663,307,156,-9,-112,-161
-366,-131,234,248,-300,51,702,326,180,0,-102,-141
-380,-117,263,248,-322,73,717,317,180,14,-102,-131
-380,-97,283,239,-331,92,736,292,180,14,-92,-122
-395,-117,278,256,-336,80,756,253,141,-9,-112,-141
-414,-131,283,273,-348,75,780,209,112,-39,-126,-161
-429,-122,307,275,-368,92,834,165,117,-43,-126,-165
-448,-131,317,290,-383,92,883,117,102,-53,-131,-175
-453,-126,326,290,-390,100,873,48,78,-58,-122,-165
-458,-126,331,292,-395,102,819,-14,63,-39,-97,-136
-468,-131,336,300,-402,102,775,-58,53,-39,-107,-131
-468,-112,356,290,-412,122,756,-63,63,-39,-92,-117
-448,-92,356,270,-402,131,717,-68,53,-48,-92,-112
-424,-87,336,256,-380,124,658,-97,19,-73,-122,-136
-414,-92,322,253,-368,114,605,-102,0,-82,-122,-141
-385,-82,302,234,-344,109,541,-97,-4,-87,-122,-126
-336,-78,258,207,-297,90,463,-107,-14,-78,-102,-117
-297,-78,219,187,-258,70,409,-97,-14,-58,-92,-92
-283,-92,190,187,-236,48,356,-82,-19,-58,-92,-87
-253,-87,165,170,-209,39,302,-78,-19,-43,-87,-78
-229,-68,161,148,-195,46,263,-53,0,-19,-58,-63
-214,-68,146,141,-180,39,229,-48,0,-14,-63,-58
-195,-58,136,126,-165,39,185,-58,-14,-24,-58,-68
-180,-58,122,119,-151,31,161,-53,-14,-19,-43,-48
-170,-58,112,114,-141,26,146,-43,-19,-29,-43,-48
-151,-63,87,107,-119,12,131,-43,-19,-24,-24,-39
-126,-68,58,97,-92,-4,87,-34,-14,-14,-34,-34
-97,-43,53,70,-75,4,58,-39,-9,0,-24,-34
-82,-4,78,43,-80,36,58,-14,14,34,4,-4
-117,4,122,56,-119,63,53,4,24,29,4,14
-112,0,112,56,-112,56,29,4,14,9,-9,-4
-97,4,102,46,-100,53,4,4,9,14,0,-4
-78,0,78,39,-78,39,4,0,4,14,0,-4
-63,-9,53,36,-58,21,-4,0,0,14,0,0
-48,-14,34,31,-41,9,-4,4,-4,14,0,0
-39,-14,24,26,-31,4,-9,4,0,24,0,0
-39,-14,24,26,-31,4,-4,4,4,29,0,0
-43,-9,34,26,-39,12,0,9,9,29,0,9
-43,-9,34,26,-39,12,-4,9,14,29,0,9
-39,-14,24,26,-31,4,-9,19,4,29,9,14
-43,-14,29,29,-36,7,-14,19,4,29,9,14
-48,-14,34,31,-41,9,-14,14,4,29,14,14
-48,-4,43,26,-46,19,-19,14,9,29,14,14
-39,-9,29,24,-34,9,-19,14,0,29,14,14
-39,-19,19,29,-29,0,-19,14,0,29,14,14
-39,-24,14,31,-26,-4,-19,14,0,34,14,14
-43,-29,14,36,-29,-7,-19,14,0,34,14,14
-53,-14,39,34,-46,12,-39,14,9,34,24,14
-53,-4,48,29,-51,21,-39,14,9,34,29,19
-48,0,48,24,-48,24,-43,14,9,29,29,19
-48,9,58,19,-53,34,-43,14,9,29,34,24
-34,4,39,14,-36,21,-34,14,-4,24,24,19
-34,0,34,17,-34,17,-34,14,-4,19,14,14
-29,-4,24,17,-26,9,-34,14,-4,14,4,9
-29,-9,19,19,-24,4,-34,14,-4,14,0,4
-29,-19,9,24,-19,-4,-34,24,4,19,9,4
-29,-14,14,21,-21,0,-34,24,4,24,14,9
-29,-14,14,21,-21,0,-43,19,4,29,14,9
-29,-9,19,19,-24,4,-43,19,4,34,14,9
-24,0,24,12,-24,12,-43,9,4,29,14,29
-24,0,24,12,-24,12,-43,9,4,24,14,19
-24,0,24,12,-24,12,-43,9,4,19,19,19
-24,0,24,12,-24,12,-43,14,4,24,24,24
-24,9,34,7,-29,21,-58,14,14,29,24,24
-24,14,39,4,-31,26,-63,14,14,34,29,34
-19,14,34,2,-26,24,-63,14,14,39,29,34
-19,14,34,2,-26,24,-68,14,14,43,29,34
-9,29,39,-9,-24,34,-68,14,9,43,43,34
-9,29,39,-9,-24,34,-68,14,9,43,43,34
-4,29,34,-12,-19,31,-68,14,9,39,43,39
0,34,34,-17,-17,34,-68,14,9,39,53,43
4,29,24,-17,-9,26,-73,29,9,34,43,39
9,24,14,-17,-2,19,-73,29,9,39,39,39
14,24,9,-19,2,17,-73,34,14,43,29,39
14,19,4,-17,4,12,-82,34,14,43,24,34
14,24,9,-19,2,17,-92,24,14,48,43,34
24,29,4,-26,9,17,-97,24,14,48,43,39
24,39,14,-31,4,26,-102,24,14,48,43,43
29,43,14,-36,7,29,-102,24,19,53,48,43
19,63,43,-41,-12,53,-102,29,19,68,63,53
19,68,48,-43,-14,58,-107,29,19,68,63,63
29,78,48,-53,-9,63,-107,29,24,68,63,73
34,82,48,-58,-7,65,-112,29,24,68,63,78
43,82,39,-63,2,61,-117,29,14,78,68,82
48,87,39,-68,4,63,-117,29,24,78,78,87
53,92,39,-73,7,65,-122,29,24,73,82,92
53,92,39,-73,7,65,-126,34,24,68,87,97
63,102,39,-82,12,70,-126,43,24,68,78,102
73,102,29,-87,21,65,-131,43,24,63,73,97
87,107,19,-97,34,63,-136,43,24,63,73,97
97,117,19,-107,39,68,-141,43,24,58,73,97
87,117,29,-102,29,73,-146,34,29,63,82,102
92,126,34,-109,29,80,-146,43,34,78,87,107
102,126,24,-114,39,75,-151,43,34,82,92,112
102,131,29,-117,36,80,-156,43,34,87,97,112
122,141,19,-131,51,80,-161,58,29,82,92,122
126,151,24,-139,51,87,-161,58,29,82,97,126
126,151,24,-139,51,87,-165,58,29,82,97,131
136,156,19,-146,58,87,-170,58,29,78,107,141
141,156,14,-148,63,85,-180,58,29,78,97,136
146,161,14,-153,65,87,-180,58,34,82,107,136
156,165,9,-161,73,87,-185,58,39,87,107,136
156,165,9,-161,73,87,-185,58,39,87,107,141
151,180,29,-165,61,104,-175,78,48,102,122,151
165,190,24,-178,70,107,-175,78,53,107,131,161
165,195,29,-180,68,112,-185,82,53,112,136,165
170,204,34,-187,68,119,-190,82,58,117,146,175
175,200,24,-187,75,112,-190,68,53,117,146,175
175,200,24,-187,75,112,-190,68,53,117,141,170
180,204,24,-192,78,114,-190,73,53,117,141,175
180,209,29,-195,75,119,-190,73,53,117,136,170
195,214,19,-204,87,117,-200,73,43,117,126,165
195,214,19,-204,87,117,-200,78,53,117,131,165
195,214,19,-204,87,117,-200,78,53,117,131,165
200,224,24,-212,87,124,-204,78,53,112,136,165
200,229,29,-214,85,129,-204,78,68,112,151,170
204,229,24,-217,90,126,-204,78,68,117,151,175
209,234,24,-222,92,129,-204,78,68,122,161,190
209,234,24,-222,92,129,-204,73,68,122,151,195
209,234,24,-222,92,129,-204,82,58,117,146,190
209,239,29,-224,90,134,-200,82,58,117,146,190
204,239,34,-222,85,136,-200,82,63,112,141,185
204,239,34,-222,85,136,-200,82,63,102,131,175
200,239,39,-219,80,139,-200,78,63,102,141,175
204,234,29,-219,87,131,-200,78,63,107,141,175
204,234,29,-219,87,131,-195,82,63,107,141,175
204,229,24,-217,90,126,-190,82,63,107,141,175
190,224,34,-207,78,129,-190,92,73,112,151,180
190,224,34,-207,78,129,-180,102,78,117,151,180
190,224,34,-207,78,129,-175,107,78,122,146,180
185,224,39,-204,73,131,-175,107,78,117,136,165
190,214,24,-202,82,119,-161,107,87,107,136,165
190,204,14,-197,87,109,-151,107,82,107,131,161
185,195,9,-190,87,102,-141,107,82,102,126,151
185,190,4,-187,90,97,-131,117,87,102,126,146
170,180,9,-175,80,95,-141,107,78,87,107,136
165,180,14,-173,75,97,-126,107,82,87,107,126
165,185,19,-175,73,102,-117,117,82,87,107,122
151,170,19,-161,65,95,-107,122,82,87,97,112
141,165,24,-153,58,95,-102,131,82,78,92,112
136,156,19,-146,58,87,-92,131,82,73,87,107
131,151,19,-141,56,85,-87,131,87,73,82,102
122,141,19,-131,51,80,-73,136,87,73,82,97
107,136,29,-122,39,82,-68,126,87,73,78,87
97,126,29,-112,34,78,-58,126,82,68,68,78
92,122,29,-107,31,75,-48,131,82,68,68,78
82,112,29,-97,26,70,-39,131,82,68,68,68
82,107,24,-95,29,65,-39,117,82,73,63,63
78,107,29,-92,24,68,-34,117,82,68,63,63
63,102,39,-82,12,70,-29,117,82,63,58,53
58,107,48,-82,4,78,-24,117,78,58,53,39
58,87,29,-73,14,58,-19,107,68,43,34,39
43,68,24,-56,9,46,-14,102,63,29,19,24
39,63,24,-51,7,43,-4,92,63,19,19,19
34,58,24,-46,4,41,0,82,63,9,19,14
29,48,19,-39,4,34,-4,78,48,9,19,9
29,53,24,-41,2,39,-4,73,43,4,19,9
29,58,29,-43,0,43,-9,63,43,4,14,4
24,48,24,-36,0,36,-14,58,39,9,14,4
19,48,29,-34,-4,39,-9,48,34,0,0,0
14,39,24,-26,-4,31,-9,39,29,-9,-14,-9
14,39,24,-26,-4,31,-4,34,24,-14,-24,-19
14,39,24,-26,-4,31,4,34,24,-14,-29,-24
4,24,19,-14,-7,21,-4,24,19,-9,-34,-19
-4,19,24,-7,-14,21,-4,24,14,-14,-29,-24
-4,19,24,-7,-14,21,-4,19,14,-19,-24,-24
-9,14,24,-2,-17,19,-4,14,9,-24,-24,-29
-14,19,34,-2,-24,26,-4,9,4,-39,-39,-43
-14,19,34,-2,-24,26,-4,4,0,-39,-43,-43
-14,19,34,-2,-24,26,-4,0,0,-43,-48,-43
-14,19,34,-2,-24,26,0,-4,0,-43,-48,-43
-19,19,39,0,-29,29,0,-9,0,-39,-39,-39
-19,14,34,2,-26,24,-4,-14,-9,-48,-43,-43
-19,14,34,2,-26,24,-4,-19,-9,-48,-48,-43
-19,14,34,2,-26,24,-4,-19,-9,-48,-48,-48
-24,24,48,0,-36,36,-4,-14,-9,-48,-43,-39
-24,29,53,-2,-39,41,-4,-14,-9,-48,-43,-39
-29,29,58,0,-43,43,-4,-19,-14,-53,-48,-43
-29,24,53,2,-41,39,0,-19,-14,-53,-48,-43
-24,19,43,2,-34,31,0,-24,-9,-53,-58,-48
-29,14,43,7,-36,29,-4,-24,-9,-53,-58,-48
-29,9,39,9,-34,24,-4,-29,-9,-53,-53,-48
-29,4,34,12,-31,19,-4,-34,-9,-53,-53,-48
-29,9,39,9,-34,24,-14,-34,-9,-39,-43,-48
-29,14,43,7,-36,29,-14,-34,-9,-39,-43,-48
-29,19,48,4,-39,34,-14,-34,-14,-43,-43,-53
-29,29,58,0,-43,43,-14,-34,-14,-43,-48,-53
-19,19,39,0,-29,29,-4,-29,-19,-43,-48,-48
-19,19,39,0,-29,29,-4,-29,-19,-48,-48,-48
-19,19,39,0,-29,29,-4,-29,-19,-53,-48,-48
-19,19,39,0,-29,29,-4,-29,-19,-58,-48,-48
-19,19,39,0,-29,29,-14,-19,-9,-48,-48,-48
-19,19,39,0,-29,29,-14,-19,-9,-48,-48,-48
-19,19,39,0,-29,29,-14,-14,-9,-48,-48,-48
-34,19,53,7,-43,36,-14,-14,-9,-48,-48,-48
-24,29,53,-2,-39,41,-4,0,-9,-43,-43,-34
-19,29,48,-4,-34,39,-4,0,-9,-43,-43,-34
-19,29,48,-4,-34,39,-4,0,-9,-39,-43,-34
-19,29,48,-4,-34,39,-4,4,-4,-39,-39,-29
-14,29,43,-7,-29,36,-9,-4,0,-29,-39,-39
-4,29,34,-12,-19,31,-14,0,0,-29,-39,-39
0,29,29,-14,-14,29,-19,0,0,-29,-39,-39
0,29,29,-14,-14,29,-24,0,0,-29,-39,-39
0,39,39,-19,-19,39,-14,9,0,-19,-29,-34
0,43,43,-21,-21,43,-14,19,14,-9,-29,-29
0,48,48,-24,-24,48,-14,19,4,-19,-29,-24
0,53,53,-26,-26,53,-14,14,4,-19,-29,-14
14,43,29,-29,-7,36,-24,14,4,-19,-39,-19
14,43,29,-29,-7,36,-24,14,4,-19,-34,-19
14,43,29,-29,-7,36,-24,19,4,-14,-29,-19
14,43,29,-29,-7,36,-29,19,4,-14,-29,-24
4,34,29,-19,-12,31,-29,29,4,-14,-19,-14
4,34,29,-19,-12,31,-24,29,9,-14,-19,-9
4,34,29,-19,-12,31,-24,29,9,-14,-24,-9
4,34,29,-19,-12,31,-24,29,4,-14,-29,-9
4,34,29,-19,-12,31,-29,29,9,-14,-39,-19
9,34,24,-21,-7,29,-29,29,9,-14,-39,-24
19,34,14,-26,2,24,-29,34,14,-14,-34,-24
24,34,9,-29,7,21,-29,34,14,-14,-34,-24
14,34,19,-24,-2,26,-29,34,4,-14,-34,-24
19,34,14,-26,2,24,-29,34,4,-14,-29,-19
19,34,14,-26,2,24,-34,34,4,-14,-29,-19
14,34,19,-24,-2,26,-34,34,4,-14,-29,-24
24,34,9,-29,7,21,-34,34,14,-4,-19,-14
24,34,9,-29,7,21,-34,34,9,-4,-19,-14
24,34,9,-29,7,21,-34,34,9,-4,-19,-14
24,34,9,-29,7,21,-34,34,9,-4,-19,-14
14,39,24,-26,-4,31,-24,24,0,-14,-29,-24
14,39,24,-26,-4,31,-24,24,0,-14,-29,-24
14,39,24,-26,-4,31,-24,24,0,-19,-29,-24
14,34,19,-24,-2,26,-29,19,0,-24,-34,-24
14,34,19,-24,-2,26,-29,29,9,-14,-24,-24
14,29,14,-21,0,21,-29,24,9,-9,-24,-24
14,29,14,-21,0,21,-24,24,9,-9,-29,-24
14,29,14,-21,0,21,-24,24,9,-9,-29,-24
14,24,9,-19,2,17,-39,14,4,-24,-34,-39
14,24,9,-19,2,17,-39,14,4,-24,-34,-39
14,29,14,-21,0,21,-39,14,9,-19,-29,-39
14,29,14,-21,0,21,-39,14,9,-19,-29,-39
24,29,4,-26,9,17,-48,14,4,-19,-29,-34
24,29,4,-26,9,17,-43,14,4,-24,-29,-34
19,29,9,-24,4,19,-43,9,4,-24,-29,-34
19,29,9,-24,4,19,-43,9,4,-24,-29,-34
14,34,19,-24,-2,26,-43,19,4,-19,-24,-34
14,34,19,-24,-2,26,-39,19,4,-19,-24,-34
14,39,24,-26,-4,31,-34,19,4,-14,-19,-34
14,39,24,-26,-4,31,-29,19,0,-14,-19,-34
24,29,4,-26,9,17,-39,9,-9,-24,-24,-29
24,29,4,-26,9,17,-39,9,-4,-24,-24,-29
24,29,4,-26,9,17,-39,4,-4,-24,-19,-29
24,29,4,-26,9,17,-39,4,-4,-24,-19,-29
14,29,14,-21,0,21,-19,34,14,-14,-19,-19
39,29,-9,-34,24,9,-19,29,9,-19,-19,-29
48,43,-4,-46,26,19,-14,34,14,-4,-4,-19
48,48,0,-48,24,24,-9,39,19,0,0,-19
48,53,4,-51,21,29,-4,43,24,4,4,-19
48,58,9,-53,19,34,0,48,29,9,9,-19
39,58,19,-48,9,39,14,58,39,24,19,-4
39,63,24,-51,7,43,14,58,43,24,14,0
39,63,24,-51,7,43,4,58,39,14,9,-4
39,68,29,-53,4,48,0,53,43,9,4,0
48,63,14,-56,17,39,-9,58,43,19,9,-9
48,63,14,-56,17,39,-19,43,34,9,4,-9
58,63,4,-61,26,34,-24,34,34,9,9,-9
63,63,0,-63,31,31,-34,34,34,4,14,-14
68,53,-14,-61,41,19,-48,24,34,9,14,-9
68,53,-14,-61,41,19,-48,24,34,9,14,-4
68,53,-14,-61,41,19,-48,19,29,9,9,0
68,48,-19,-58,43,14,-53,9,24,4,4,0
63,58,-4,-61,34,26,-58,0,9,-4,0,-4
58,53,-4,-56,31,24,-63,-4,0,-14,-4,-14
58,48,-9,-53,34,19,-68,-9,-4,-19,-9,-24
48,43,-4,-46,26,19,-73,-9,-9,-24,-19,-29
48,34,-14,-41,31,9,-73,-4,0,-24,-19,-29
48,34,-14,-41,31,9,-63,0,0,-19,-19,-24
48,34,-14,-41,31,9,-63,0,0,-19,-19,-24
48,34,-14,-41,31,9,-68,-9,-4,-24,-19,-24
43,24,-19,-34,31,2,-73,-19,-14,-29,-19,-34
43,24,-19,-34,31,2,-73,-24,-24,-34,-29,-43
43,24,-19,-34,31,2,-73,-24,-24,-34,-29,-43
43,24,-19,-34,31,2,-73,-24,-19,-29,-24,-39
53,34,-19,-43,36,7,-82,-14,-9,-29,-19,-29
48,34,-14,-41,31,9,-78,-14,-9,-24,-19,-29
48,34,-14,-41,31,9,-73,-9,-4,-24,-19,-24
43,29,-14,-36,29,7,-73,-9,-4,-24,-19,-24
43,34,-9,-39,26,12,-68,0,4,-14,-9,-14
39,34,-4,-36,21,14,-58,0,4,-14,-9,-14
39,29,-9,-34,24,9,-53,4,0,-24,-14,-29
24,29,4,-26,9,17,-43,4,0,-24,-19,-29
14,24,9,-19,2,17,-53,4,-9,-24,-29,-39
9,19,9,-14,0,14,-53,0,-9,-29,-29,-39
9,19,9,-14,0,14,-53,0,-9,-29,-29,-39
4,14,9,-9,-2,12,-53,-4,-19,-39,-29,-39
-14,4,19,4,-17,12,-58,-9,-24,-48,-34,-53
-14,4,19,4,-17,12,-58,-14,-24,-48,-34,-53
-14,4,19,4,-17,12,-58,-24,-24,-53,-39,-63
-14,4,19,4,-17,12,-58,-29,-24,-53,-39,-63
-14,4,19,4,-17,12,-63,-24,-24,-48,-39,-43
-14,0,14,7,-14,7,-63,-24,-24,-48,-39,-53
-14,0,14,7,-14,7,-58,-24,-24,-48,-39,-53
-14,0,14,7,-14,7,-58,-24,-24,-48,-39,-53
-14,-9,4,12,-9,-2,-58,-24,-24,-53,-48,-53
-14,-9,4,12,-9,-2,-53,-19,-24,-53,-48,-48
-19,-9,9,14,-14,0,-48,-19,-19,-53,-48,-48
-19,-9,9,14,-14,0,-43,-19,-19,-53,-48,-48
-9,0,9,4,-9,4,-43,-19,-29,-58,-43,-48
-9,0,9,4,-9,4,-48,-19,-29,-58,-43,-48
-9,0,9,4,-9,4,-48,-19,-29,-58,-43,-48
-9,0,9,4,-9,4,-53,-19,-29,-58,-43,-48
-9,0,9,4,-9,4,-48,-19,-19,-58,-53,-63
-9,0,9,4,-9,4,-48,-19,-19,-58,-53,-63
-9,0,9,4,-9,4,-48,-19,-19,-58,-58,-58
-14,-4,9,9,-12,2,-48,-19,-19,-58,-58,-58
-24,-4,19,14,-21,7,-43,-9,-19,-53,-53,-48
-24,0,24,12,-24,12,-43,-9,-19,-48,-48,-48
-24,0,24,12,-24,12,-43,-9,-19,-43,-43,-48
-24,0,24,12,-24,12,-43,-9,-19,-39,-34,-48
-24,0,24,12,-24,12,-43,-9,-19,-48,-39,-48
-24,-4,19,14,-21,7,-43,-9,-19,-48,-43,-48
-24,-4,19,14,-21,7,-43,-9,-19,-48,-48,-48
-24,-4,19,14,-21,7,-43,-9,-19,-48,-53,-48
-14,-14,0,14,-7,-7,-43,-19,-29,-48,-53,-58
-14,-14,0,14,-7,-7,-43,-19,-29,-48,-53,-58
-14,-14,0,14,-7,-7,-43,-19,-29,-48,-53,-58
-14,-14,0,14,-7,-7,-43,-19,-29,-48,-53,-58
-24,-4,19,14,-21,7,-43,-9,-19,-48,-53,-58
-24,-4,19,14,-21,7,-43,-9,-19,-48,-53,-58
-24,0,24,12,-24,12,-43,-9,-19,-48,-53,-58
-24,0,24,12,-24,12,-43,-4,-19,-48,-53,-58
-29,0,29,14,-29,14,-34,4,-9,-29,-43,-39
-29,-9,19,19,-24,4,-39,4,-9,-29,-53,-39
-9,0,9,4,-9,4,-39,-4,-19,-39,-43,-48
-29,-9,19,19,-24,4,-39,-4,-14,-34,-43,-58
-29,9,39,9,-34,24,-34,0,4,-29,-34,-43
-19,24,43,-2,-31,34,-14,9,14,-29,-34,-43
-39,34,73,2,-56,53,-9,0,24,-24,-39,-34
-58,43,102,7,-80,73,19,29,63,14,4,-14
-68,34,102,17,-85,68,58,82,102,58,24,4
-58,14,73,21,-65,43,73,151,136,87,34,0
-24,19,43,2,-34,31,73,229,185,136,82,34
34,4,-29,-19,31,-12,87,361,253,214,136,73
97,-4,-102,-46,100,-53,117,541,351,326,200,117
195,0,-195,-97,195,-97,156,771,492,478,302,195
307,14,-292,-161,300,-139,175,985,649,658,424,302
429,63,-366,-246,397,-151,185,1190,800,834,570,434
531,131,-400,-331,466,-134,214,1371,936,980,702,551
624,180,-444,-402,534,-131,204,1483,976,1029,751,610
702,234,-468,-468,585,-117,180,1468,897,936,712,600
732,268,-463,-500,597,-97,131,1298,697,712,570,522
717,326,-390,-522,553,-31,48,990,458,463,419,439
697,395,-302,-546,500,46,-43,653,244,244,307,375
668,239,-429,-453,549,-95,-73,409,-4,-34,43,146
595,-63,-658,-265,627,-361,-68,185,-302,-390,-307,-185
497,-195,-692,-151,595,-444,-122,-156,-512,-614,-507,-356
366,-180,-546,-92,456,-363,-190,-502,-629,-707,-556,-385
234,-180,-414,-26,324,-297,-204,-692,-673,-741,-570,-424
97,-190,-287,46,192,-239,-165,-727,-653,-727,-570,-434
-24,-204,-180,114,78,-192,-97,-663,-595,-692,-575,-463
-107,-219,-112,163,2,-165,-19,-580,-531,-649,-556,-473
-156,-239,-82,197,-36,-161,24,-512,-473,-595,-536,-463
-170,-258,-87,214,-41,-173,29,-453,-439,-561,-527,-463
-185,-263,-78,224,-53,-170,68,-370,-375,-517,-492,-439
-219,-292,-73,256,-73,-183,156,-258,-302,-468,-468,-434
-263,-331,-68,297,-97,-200,234,-156,-253,-439,-463,-453
-292,-322,-29,307,-131,-175,287,-58,-185,-380,-429,-434
-292,-273,19,283,-156,-126,322,14,-112,-307,-375,-395
-297,-234,63,265,-180,-85,366,87,-53,-253,-331,-361
-297,-200,97,248,-197,-51,409,146,-4,-204,-287,-322
-297,-180,117,239,-207,-31,439,180,24,-185,-283,-312
-287,-156,131,222,-209,-12,478,209,43,-165,-258,-287
-292,-136,156,214,-224,9,527,234,78,-136,-209,-258
-302,-122,180,212,-241,29,566,248,107,-107,-190,-229
-297,-92,204,195,-251,56,605,268,122,-78,-170,-209
-292,-78,214,185,-253,68,639,278,141,-63,-161,-200
-312,-78,234,195,-273,78,658,263,141,-43,-151,-190
-317,-58,258,187,-287,100,678,244,131,-48,-141,-180
-317,-82,234,200,-275,75,692,190,92,-87,-165,-200
-361,-112,248,236,-305,68,727,146,58,-122,-175,-214
-400,-102,297,251,-348,97,795,126,63,-102,-161,-195
-405,-117,287,261,-346,85,844,87,58,-117,-170,-195
-400,-126,273,263,-336,73,849,24,24,-136,-185,-214
-400,-112,287,256,-344,87,805,-39,4,-136,-185,-209
-409,-102,307,256,-358,102,736,-92,-4,-126,-180,-195
-400,-92,307,246,-353,107,707,-107,4,-117,-161,-190
-375,-87,287,231,-331,100,688,-107,9,-122,-161,-185
-366,-92,273,229,-319,90,634,-122,-19,-131,-180,-190
-356,-82,273,219,-314,95,600,-117,-24,-136,-161,-165
-326,-78,248,202,-287,85,551,-107,-34,-126,-141,-146
-278,-78,200,178,-239,61,458,-117,-43,-136,-151,-151
-244,-63,180,153,-212,58,385,-102,-48,-117,-131,-136
-244,-58,185,151,-214,63,322,-87,-39,-102,-117,-117
-219,-48,170,134,-195,61,253,-92,-39,-87,-107,-112
-175,-29,146,102,-161,58,219,-78,-29,-73,-92,-97
-156,-29,126,92,-141,48,175,-78,-43,-82,-97,-97
-141,-19,122,80,-131,51,151,-73,-43,-87,-92,-97
-122,-19,102,70,-112,41,146,-53,-39,-68,-73,-78
-131,-34,97,82,-114,31,122,-53,-39,-63,-73,-68
-117,-29,87,73,-102,29,97,-43,-43,-63,-63,-63
-87,-24,63,56,-75,19,68,-39,-39,-48,-63,-53
-73,-24,48,48,-61,12,39,-34,-34,-43,-63,-53
-58,-4,53,31,-56,24,34,-24,-14,-29,-43,-43
-34,0,34,17,-34,17,9,-24,-14,-29,-48,-43
-34,9,43,12,-39,26,-4,-9,-4,-14,-43,-34
-29,9,39,9,-34,24,-4,-9,-4,-14,-39,-34
-29,4,34,12,-31,19,-14,-4,-4,-14,-34,-29
-29,4,34,12,-31,19,-14,4,-4,-14,-29,-29
-24,4,29,9,-26,17,-24,4,-4,-4,-24,-19
-19,4,24,7,-21,14,-24,4,-4,0,-19,-19
-19,9,29,4,-24,19,-24,9,-4,0,-14,-9
-14,9,24,2,-19,17,-34,9,-4,0,-9,-9
-4,4,9,0,-7,7,-48,0,-4,-9,-19,-24
-4,4,9,0,-7,7,-53,0,-4,-9,-19,-24
-4,4,9,0,-7,7,-53,-4,-4,-9,-14,-24
0,14,14,-7,-7,14,-58,-4,0,-9,-14,-24
-9,14,24,-2,-17,19,-58,4,-9,0,-4,-19
-9,9,19,0,-14,14,-58,4,-9,0,-4,-14
-9,9,19,0,-14,14,-58,4,-9,4,-4,-9
-14,9,24,2,-19,17,-58,4,-9,4,-4,-4
-4,0,4,2,-4,2,-68,-4,-9,-4,-14,-14
-4,4,9,0,-7,7,-68,-4,-9,-4,-9,-9
0,4,4,-2,-2,4,-73,-4,-9,-9,-9,-9
0,9,9,-4,-4,9,-73,-4,-9,-9,-4,-4
-4,9,14,-2,-9,12,-73,-4,-4,0,-4,-4
-4,9,14,-2,-9,12,-73,-4,-4,0,-4,-4
0,9,9,-4,-4,9,-73,-4,-4,0,-4,-4
0,9,9,-4,-4,9,-73,-4,-4,4,0,-4
9,9,0,-9,4,4,-82,-4,-4,4,0,-4
9,14,4,-12,2,9,-82,-4,-4,4,4,0
9,14,4,-12,2,9,-92,-9,-4,4,4,0
9,19,9,-14,0,14,-92,-9,-4,4,4,0
4,19,14,-12,-4,17,-92,-9,-14,4,4,9
4,19,14,-12,-4,17,-92,-9,-14,4,4,0
4,19,14,-12,-4,17,-92,-9,-14,4,9,0
4,19,14,-12,-4,17,-92,-4,-14,14,14,4
14,19,4,-17,4,12,-97,-4,-4,14,14,4
14,24,9,-19,2,17,-102,-4,-4,14,19,14
19,24,4,-21,7,14,-102,-4,-4,14,19,14
19,24,4,-21,7,14,-107,-4,-4,14,19,14
19,29,9,-24,4,19,-107,-14,-9,24,24,14
19,29,9,-24,4,19,-107,-14,-9,24,24,14
24,29,4,-26,9,17,-107,-14,-9,19,24,19
29,34,4,-31,12,19,-107,-14,-9,19,34,24
29,34,4,-31,12,19,-112,-9,-9,14,24,24
29,34,4,-31,12,19,-112,-9,-9,19,29,29
29,39,9,-34,9,24,-112,-4,-4,24,29,34
24,39,14,-31,4,26,-122,-4,-4,24,34,34
24,34,9,-29,7,21,-122,-4,-4,29,43,43
34,39,4,-36,14,21,-126,-4,-4,29,43,48
34,48,14,-41,9,31,-131,-4,-4,29,43,53
39,53,14,-46,12,34,-131,-4,0,34,48,53
39,58,19,-48,9,39,-131,0,0,39,63,58
39,58,19,-48,9,39,-136,0,0,39,63,63
48,63,14,-56,17,39,-136,0,4,39,63,68
53,63,9,-58,21,36,-141,0,4,39,63,68
63,82,19,-73,21,51,-146,0,4,53,58,73
68,87,19,-78,24,53,-146,0,14,58,68,78
73,92,19,-82,26,56,-151,0,14,58,73,82
73,92,19,-82,26,56,-156,4,14,58,78,87
68,92,24,-80,21,58,-156,4,14,63,82,97
73,92,19,-82,26,56,-161,4,14,63,82,97
82,97,14,-90,34,56,-165,4,14,68,87,102
87,107,19,-97,34,63,-170,4,14,68,92,107
92,117,24,-104,34,70,-175,4,9,78,92,112
102,126,24,-114,39,75,-175,14,14,87,97,117
117,126,9,-122,53,68,-180,14,14,87,102,122
122,131,9,-126,56,70,-185,14,14,87,107,122
126,136,9,-131,58,73,-190,9,19,92,102,131
126,141,14,-134,56,78,-190,9,19,92,107,136
122,136,14,-129,53,75,-195,9,19,92,107,141
126,136,9,-131,58,73,-200,9,19,87,117,151
141,146,4,-143,68,75,-200,19,19,97,126,141
146,151,4,-148,70,78,-200,19,24,102,136,146
156,156,0,-156,78,78,-204,19,29,107,136,151
156,156,0,-156,78,78,-204,19,29,107,136,161
151,156,4,-153,73,80,-214,19,34,107,141,165
165,161,-4,-163,85,78,-214,19,34,107,141,170
165,161,-4,-163,85,78,-224,24,29,107,136,170
170,165,-4,-168,87,80,-229,24,29,107,136,175
185,175,-9,-180,97,82,-219,29,34,112,151,180
185,180,-4,-183,95,87,-219,29,34,117,151,180
190,190,0,-190,95,95,-219,34,34,122,156,190
190,200,9,-195,90,104,-219,34,34,126,156,190
195,195,0,-195,97,97,-229,34,34,126,146,195
195,195,0,-195,97,97,-229,39,43,126,151,195
195,195,0,-195,97,97,-229,39,43,126,151,195
200,204,4,-202,97,104,-234,39,43,122,156,195
200,219,19,-209,90,119,-224,39,48,131,165,204
204,219,14,-212,95,117,-224,39,48,136,170,204
209,224,14,-217,97,119,-224,39,48,141,185,214
209,224,14,-217,97,119,-224,34,48,141,180,214
219,214,-4,-217,112,104,-224,34,48,131,175,204
219,219,0,-219,109,109,-219,34,48,136,175,209
214,219,4,-217,104,112,-219,34,53,136,170,209
214,219,4,-217,104,112,-219,34,53,131,161,204
209,229,19,-219,95,124,-209,48,63,131,170,204
214,224,9,-219,102,117,-209,48,63,136,170,204
214,224,9,-219,102,117,-204,53,63,136,170,204
214,219,4,-217,104,112,-200,53,63,136,170,204
219,219,0,-219,109,109,-200,43,53,126,165,200
219,214,-4,-217,112,104,-190,53,58,126,161,200
219,209,-9,-214,114,100,-185,58,58,126,151,200
214,204,-9,-209,112,97,-185,58,58,117,136,185
204,204,0,-204,102,102,-180,68,68,126,141,185
200,195,-4,-197,102,95,-170,68,63,126,141,180
190,185,-4,-187,97,90,-161,68,63,122,141,170
185,180,-4,-183,95,87,-151,78,68,122,146,165
180,165,-14,-173,97,75,-141,78,68,117,136,175
175,161,-14,-168,95,73,-126,78,73,117,136,165
175,161,-14,-168,95,73,-117,87,73,117,136,161
161,141,-19,-151,90,61,-107,92,73,117,126,151
151,136,-14,-143,82,61,-102,92,63,107,122,141
146,126,-19,-136,82,53,-92,92,63,102,117,136
141,122,-19,-131,80,51,-87,92,68,102,112,131
131,112,-19,-122,75,46,-73,97,68,102,112,126
126,117,-9,-122,68,53,-68,97,78,102,117,126
117,107,-9,-112,63,48,-58,97,73,97,107,117
112,102,-9,-107,61,46,-48,102,73,97,107,117
102,92,-9,-97,56,41,-39,102,73,97,107,107
102,82,-19,-92,61,31,-29,87,73,92,92,102
97,78,-19,-87,58,29,-24,87,73,87,92,102
82,68,-14,-75,48,26,-19,87,73,82,87,92
78,68,-9,-73,43,29,-14,87,68,78,82,78
78,73,-4,-75,41,34,-19,82,58,78,82,87
63,58,-4,-61,34,26,-14,82,53,68,68,73
58,58,0,-58,29,29,-4,78,53,63,68,68
53,58,4,-56,24,31,0,73,53,58,68,63
39,39,0,-39,19,19,9,58,58,63,58,63
39,34,-4,-36,21,14,14,53,53,53,58,58
39,29,-9,-34,24,9,14,43,53,48,53,48
34,9,-24,-21,29,-7,14,39,48,48,53,43
19,19,0,-19,9,9,9,39,34,48,43,34
14,9,-4,-12,9,2,9,29,29,39,34,29
14,9,-4,-12,9,2,14,24,24,34,29,24
14,9,-4,-12,9,2,24,24,24,34,29,24
14,4,-9,-9,12,-2,14,4,19,19,19,9
4,0,-4,-2,4,-2,14,4,14,14,19,4
4,0,-4,-2,4,-2,14,0,14,9,19,4
0,-4,-4,2,2,-4,14,-4,9,4,14,0
-14,-9,4,12,-9,-2,4,-9,4,0,9,-4
-14,-9,4,12,-9,-2,4,-14,0,0,4,-4
-14,-9,4,12,-9,-2,4,-19,0,-4,0,-4
-14,-9,4,12,-9,-2,9,-24,0,-4,0,-4
-19,-9,9,14,-14,0,19,-29,0,-9,0,0
-19,-14,4,17,-12,-4,14,-34,-9,-19,-4,-4
-19,-14,4,17,-12,-4,14,-39,-9,-19,-9,-4
-19,-14,4,17,-12,-4,14,-39,-9,-19,-9,-9
-24,-14,9,19,-17,-2,4,-34,-9,-9,-4,-9
-24,-9,14,17,-19,2,4,-34,-9,-9,-4,-9
-29,-9,19,19,-24,4,4,-39,-14,-14,-9,-14
-29,-14,14,21,-21,0,9,-39,-14,-14,-9,-14
-34,-14,19,24,-26,2,19,-43,-9,-24,-9,-9
-39,-14,24,26,-31,4,14,-43,-9,-24,-9,-9
-39,-14,24,26,-31,4,14,-48,-9,-24,-4,-9
-39,-14,24,26,-31,4,14,-53,-9,-24,-4,-9
-48,-14,34,31,-41,9,14,-43,-9,-9,4,0
-48,-14,34,31,-41,9,14,-43,-9,-9,4,0
-48,-14,34,31,-41,9,14,-43,-14,-14,4,-4
-48,-9,39,29,-43,14,14,-43,-14,-14,0,-4
-43,-9,34,26,-39,12,14,-48,-9,-19,-9,0
-39,-9,29,24,-34,9,14,-48,-9,-19,-9,0
-34,-9,24,21,-29,7,14,-48,-9,-19,-9,0
-29,-9,19,19,-24,4,14,-48,-9,-19,-9,0
-39,-19,19,29,-29,0,14,-39,-9,-9,-4,0
-39,-19,19,29,-29,0,14,-39,-9,-9,0,0
-39,-19,19,29,-29,0,14,-34,-9,-9,4,0
-53,-19,34,36,-43,7,14,-34,-9,-9,9,0
-43,-19,24,31,-34,2,14,-34,0,-4,4,4
-39,-19,19,29,-29,0,14,-39,0,-4,4,4
-39,-19,19,29,-29,0,14,-43,0,0,4,4
-39,-19,19,29,-29,0,14,-43,4,0,9,9
-29,-9,19,19,-24,4,14,-39,9,9,19,9
-24,-9,14,17,-19,2,14,-29,9,9,19,9
-24,-9,14,17,-19,2,14,-24,9,9,19,9
-29,-9,19,19,-24,4,14,-19,9,9,19,9
-19,-14,4,17,-12,-4,14,-29,0,14,19,19
-19,-14,4,17,-12,-4,14,-19,14,19,19,19
-19,-14,4,17,-12,-4,14,-19,4,4,19,19
-19,-14,4,17,-12,-4,14,-24,4,0,19,24
-24,-4,19,14,-21,7,14,-19,14,4,19,29
-24,-4,19,14,-21,7,14,-14,14,9,24,29
-24,-4,19,14,-21,7,14,-4,14,19,29,29
-24,-4,19,14,-21,7,9,0,14,24,29,24
-19,-4,14,12,-17,4,0,-9,14,14,19,24
-14,-4,9,9,-12,2,4,-9,19,14,19,29
-9,-4,4,7,-7,0,4,-9,19,14,14,29
-4,-4,0,4,-2,-2,4,-9,14,14,9,29
-9,-4,4,7,-7,0,9,0,9,24,19,29
-9,-4,4,7,-7,0,9,0,9,24,19,24
-4,-4,0,4,-2,-2,9,4,14,24,24,24
-4,-4,0,4,-2,-2,9,4,14,24,24,24
-14,-4,9,9,-12,2,9,-4,14,14,14,24
-9,-4,4,7,-7,0,9,-4,14,14,19,29
-9,-4,4,7,-7,0,4,-4,14,14,19,29
-14,-4,9,9,-12,2,4,-4,14,14,19,24
-14,-14,0,14,-7,-7,4,4,14,24,19,24
-14,-14,0,14,-7,-7,4,4,9,24,19,24
-14,-14,0,14,-7,-7,4,4,9,24,19,24
-14,-14,0,14,-7,-7,4,4,9,24,19,24
-4,-19,-14,12,4,-17,4,-4,9,24,9,14
-4,-19,-14,12,4,-17,4,-4,9,24,9,14
-4,-19,-14,12,4,-17,4,-4,9,19,9,14
-4,-24,-19,14,7,-21,0,-9,9,14,4,14
-9,-24,-14,17,2,-19,9,0,19,14,9,24
-14,-29,-14,21,0,-21,9,-4,19,19,14,24
-19,-29,-9,24,-4,-19,14,-4,19,19,14,24
-24,-29,-4,26,-9,-17,14,-4,19,19,19,24
-14,-34,-19,24,2,-26,0,-4,4,14,14,29
-14,-34,-19,24,2,-26,0,-4,4,14,14,29
-14,-29,-14,21,0,-21,0,-4,9,19,19,29
-14,-29,-14,21,0,-21,0,-4,9,19,19,29
-14,-29,-14,21,0,-21,-9,-14,4,9,9,24
-14,-29,-14,21,0,-21,-4,-14,4,4,9,24
-19,-29,-9,24,-4,-19,-4,-19,4,4,9,24
-19,-29,-9,24,-4,-19,-4,-19,4,4,9,24
-24,-34,-9,29,-7,-21,0,-19,4,9,14,24
-24,-34,-9,29,-7,-21,0,-19,4,9,14,24
-24,-29,-4,26,-9,-17,0,-19,4,14,19,24
-24,-29,-4,26,-9,-17,0,-19,0,14,19,24
-34,-39,-4,36,-14,-21,9,-9,9,14,14,29
-34,-39,-4,36,-14,-21,9,-9,14,14,14,29
-34,-39,-4,36,-14,-21,9,-14,14,14,19,29
-34,-39,-4,36,-14,-21,9,-14,14,14,19,29
-34,-48,-14,41,-9,-31,0,-24,9,4,9,19
-34,-48,-14,41,-9,-31,0,-19,4,4,9,19
-34,-48,-14,41,-9,-31,0,-19,4,9,9,19
-29,-48,-19,39,-4,-34,4,-19,0,9,9,19
-24,-58,-34,41,4,-46,-4,-19,-9,0,0,9
-24,-53,-29,39,2,-41,0,-19,-4,0,9,9
-24,-48,-24,36,0,-36,0,-19,0,0,9,19
-24,-43,-19,34,-2,-31,4,-19,4,9,9,19
-29,-39,-9,34,-9,-24,-4,-19,4,14,24,19
-29,-39,-9,34,-9,-24,-4,-19,4,14,24,19
-29,-34,-4,31,-12,-19,-4,-19,4,14,24,19
-29,-34,-4,31,-12,-19,4,0,9,14,29,39
-29,-34,-4,31,-12,-19,14,-9,19,19,19,29
-29,-34,-4,31,-12,-19,9,-9,14,14,19,29
-19,-34,-14,26,-2,-24,9,-9,14,14,19,29
-14,-29,-14,21,0,-21,19,0,19,19,19,29
0,-24,-24,12,12,-24,39,9,29,29,34,43
-29,-9,19,19,-24,4,48,29,48,48,58,58
-19,-9,9,14,-14,0,39,29,48,48,58,48
-9,-9,0,9,-4,-4,39,29,48,48,58,48
0,-9,-9,4,4,-9,39,29,48,48,58,48
9,-9,-19,0,14,-14,39,29,48,48,58,48
0,-9,-9,4,4,-9,48,34,63,63,68,53
0,-4,-4,2,2,-4,53,39,63,63,63,58
0,-4,-4,2,2,-4,48,43,53,53,58,53
0,0,0,0,0,0,48,43,53,48,53,58
0,-9,-9,4,4,-9,43,29,43,48,53,53
0,-14,-14,7,7,-14,29,14,34,39,43,48
9,-19,-29,4,19,-24,19,4,34,39,43,43
14,-24,-39,4,26,-31,4,4,34,34,43,34
19,-14,-34,-2,26,-24,-9,-4,24,29,43,43
19,-14,-34,-2,26,-24,-9,-4,24,29,43,43
19,-14,-34,-2,26,-24,-9,-9,19,29,39,43
19,-19,-39,0,29,-29,-14,-19,14,24,34,39
29,-19,-48,-4,39,-34,-19,-29,9,9,29,29
29,-24,-53,-2,41,-39,-24,-34,0,4,24,24
34,-29,-63,-2,48,-46,-29,-39,-4,4,19,19
29,-34,-63,2,46,-48,-34,-39,-9,4,9,19
14,-43,-58,14,36,-51,-24,-34,0,4,19,19
9,-43,-53,17,31,-48,-14,-29,0,9,19,24
4,-43,-48,19,26,-46,-14,-29,0,9,19,24
0,-43,-43,21,21,-43,-19,-39,-4,4,19,24
4,-34,-39,14,21,-36,-24,-39,-4,9,29,34
4,-34,-39,14,21,-36,-24,-43,-14,4,19,24
4,-34,-39,14,21,-36,-24,-43,-14,4,19,24
4,-34,-39,14,21,-36,-24,-43,-9,9,24,29
4,-43,-48,19,26,-46,-34,-34,-9,0,19,19
0,-43,-43,21,21,-43,-29,-34,-9,4,19,19
0,-43,-43,21,21,-43,-24,-29,-4,4,19,24
-4,-48,-43,26,19,-46,-24,-29,-4,4,19,24
-9,-39,-29,24,9,-34,-14,-29,4,9,29,34
-9,-43,-34,26,12,-39,-9,-29,4,14,29,34
-4,-53,-48,29,21,-51,-9,-24,0,9,24,19
-14,-58,-43,36,14,-51,-4,-24,0,14,19,19
-34,-73,-39,53,2,-56,-4,-34,-9,14,19,9
-39,-78,-39,58,0,-58,-4,-39,-9,9,19,9
-39,-78,-39,58,0,-58,-4,-39,-9,9,19,9
-43,-82,-39,63,-2,-61,-4,-43,-19,0,19,9
-63,-92,-29,78,-17,-61,0,-43,-24,0,4,14
-63,-92,-29,78,-17,-61,0,-43,-24,0,4,14
-63,-92,-29,78,-17,-61,0,-48,-24,-4,0,4
-63,-92,-29,78,-17,-61,0,-48,-24,-4,0,4
-53,-92,-39,73,-7,-65,-4,-43,-14,-9,9,4
-53,-97,-43,75,-4,-70,-4,-43,-14,-9,9,-4
-53,-97,-43,75,-4,-70,0,-43,-14,-9,9,-4
-53,-97,-43,75,-4,-70,0,-43,-14,-9,9,-4
-53,-97,-43,75,-4,-70,-4,-53,-24,-14,0,4
-53,-97,-43,75,-4,-70,-4,-48,-24,-14,0,9
-58,-97,-39,78,-9,-68,-4,-48,-19,-14,0,9
-58,-97,-39,78,-9,-68,-4,-48,-19,-14,0,9
-58,-87,-29,73,-14,-58,0,-39,-9,0,14,9
-58,-87,-29,73,-14,-58,0,-39,-9,0,14,9
-58,-87,-29,73,-14,-58,4,-39,-9,0,14,9
-58,-87,-29,73,-14,-58,4,-39,-9,0,14,9
-58,-97,-39,78,-9,-68,0,-39,-9,0,14,4
-58,-97,-39,78,-9,-68,0,-39,-9,0,14,4
-58,-97,-39,78,-9,-68,0,-39,-9,0,9,9
-63,-102,-39,82,-12,-70,0,-39,-9,0,9,9
-63,-102,-39,82,-12,-70,4,-39,-9,-9,9,0
-63,-97,-34,80,-14,-65,4,-39,-9,-9,9,0
-63,-97,-34,80,-14,-65,4,-39,-9,-9,9,0
-63,-97,-34,80,-14,-65,4,-39,-9,-9,14,0
-63,-97,-34,80,-14,-65,14,-39,-9,0,14,9
-63,-102,-39,82,-12,-70,14,-39,-9,0,14,9
-63,-102,-39,82,-12,-70,14,-39,-9,0,14,9
-63,-102,-39,82,-12,-70,14,-39,-9,0,14,9
-73,-102,-29,87,-21,-65,4,-29,-9,0,14,0
-73,-102,-29,87,-21,-65,4,-29,-9,0,14,0
-73,-102,-29,87,-21,-65,4,-29,-9,0,14,0
-73,-102,-29,87,-21,-65,4,-29,-9,0,14,0
-63,-102,-39,82,-12,-70,14,-29,-9,-9,14,9
-63,-102,-39,82,-12,-70,14,-29,-9,-9,14,9
-63,-97,-34,80,-14,-65,14,-29,-9,-9,14,9
-63,-97,-34,80,-14,-65,14,-24,-9,-9,14,9
-58,-107,-48,82,-4,-78,4,-34,-9,0,14,9
-58,-97,-39,78,-9,-68,19,-24,0,0,24,9
-68,-107,-39,87,-14,-73,9,-24,0,0,-4,0
-68,-97,-29,82,-19,-63,29,-14,4,4,4,0
-78,-68,9,73,-43,-29,63,-9,34,29,24,24
-87,-63,24,75,-56,-19,73,-9,43,39,34,24
-97,-63,34,80,-65,-14,87,29,73,63,58,34
-117,-63,53,90,-85,-4,117,97,122,102,73,53
-97,-63,34,80,-65,-14,126,161,161,146,102,73
-39,-63,-24,51,-7,-43,131,268,224,224,161,107
14,-87,-102,36,58,-95,161,424,312,312,219,151
82,-92,-175,4,129,-134,185,634,429,429,292,209
195,-73,-268,-61,231,-170,234,883,585,610,434,312
322,-19,-341,-151,331,-180,263,1112,756,800,575,439
444,43,-400,-244,422,-178,273,1307,893,951,697,556
556,102,-453,-329,505,-175,273,1473,976,1039,785,639
639,141,-497,-390,568,-178,253,1546,966,1029,780,658
712,170,-541,-441,627,-185,224,1473,839,893,712,619
741,204,-536,-473,639,-165,170,1263,624,663,575,531
751,268,-483,-509,617,-107,63,927,405,448,444,473
717,287,-429,-502,573,-70,9,629,195,229,302,390
688,73,-614,-380,651,-270,4,439,-68,-78,4,122
639,-170,-810,-234,724,-490,-34,136,-375,-414,-307,-165
546,-200,-746,-173,646,-473,-126,-312,-556,-595,-434,-283
390,-175,-566,-107,478,-370,-190,-644,-629,-653,-468,-297
219,-161,-380,-29,300,-270,-161,-756,-629,-649,-448,-307
68,-151,-219,41,143,-185,-78,-732,-566,-595,-424,-297
-68,-190,-122,129,26,-156,9,-678,-507,-580,-424,-317
-151,-214,-63,183,-43,-139,78,-595,-448,-536,-409,-326
-175,-209,-34,192,-70,-122,117,-512,-385,-473,-380,-297
-195,-239,-43,217,-75,-141,131,-434,-346,-429,-370,-297
-248,-258,-9,253,-119,-134,195,-336,-292,-395,-351,-307
-283,-302,-19,292,-131,-161,283,-204,-239,-370,-336,-322
-317,-341,-24,329,-146,-183,361,-92,-195,-341,-331,-346
-341,-351,-9,346,-165,-180,429,29,-117,-283,-297,-326
-361,-351,9,356,-185,-170,483,126,-48,-224,-263,-297
-370,-341,29,356,-200,-156,536,190,4,-180,-229,-278
-356,-312,43,334,-200,-134,590,253,53,-126,-195,-234
-336,-278,58,307,-197,-109,614,273,73,-107,-180,-224
-336,-258,78,297,-207,-90,644,258,82,-97,-165,-204
-356,-234,122,295,-239,-56,683,278,102,-78,-141,-190
-380,-224,156,302,-268,-34,722,292,107,-58,-122,-170
-370,-209,161,290,-265,-24,751,297,126,-39,-92,-151
-375,-200,175,287,-275,-12,790,297,141,-19,-73,-131
-400,-204,195,302,-297,-4,805,268,122,-24,-82,-131
-400,-204,195,302,-297,-4,834,234,112,-34,-82,-131
-405,-224,180,314,-292,-21,863,204,92,-48,-92,-141
-434,-239,195,336,-314,-21,897,161,73,-78,-117,-161
-448,-248,200,348,-324,-24,941,126,58,-82,-117,-165
-458,-248,209,353,-334,-19,922,48,34,-102,-131,-175
-463,-244,219,353,-341,-12,863,-39,9,-107,-122,-165
-458,-234,224,346,-341,-4,810,-82,4,-87,-97,-146
-468,-239,229,353,-348,-4,785,-97,14,-87,-97,-141
-448,-219,229,334,-339,4,766,-92,14,-87,-92,-136
-409,-209,200,309,-305,-4,707,-87,14,-78,-82,-112
-385,-214,170,300,-278,-21,629,-87,-9,-92,-92,-117
-356,-200,156,278,-256,-21,556,-82,-9,-82,-82,-112
-317,-190,126,253,-222,-31,473,-87,-14,-68,-63,-97
-287,-185,102,236,-195,-41,395,-97,-24,-68,-53,-78
-258,-165,92,212,-175,-36,361,-78,-4,-39,-24,-53
-244,-161,82,202,-163,-39,317,-73,0,-39,-24,-48
-214,-156,58,185,-136,-48,263,-68,-9,-34,-19,-39
-180,-126,53,153,-117,-36,244,-43,0,-19,0,-24
-165,-126,39,146,-102,-43,219,-29,0,-14,-4,-19
-165,-126,39,146,-102,-43,195,-29,-4,-14,-9,-19
-141,-126,14,134,-78,-56,170,-34,-4,-9,-4,-19
-112,-117,-4,114,-53,-61,136,-34,-9,-19,-14,-19
-102,-112,-9,107,-46,-61,122,-34,0,-4,4,-9
-97,-107,-9,102,-43,-58,107,-24,14,4,24,4
-97,-112,-14,104,-41,-63,87,-19,9,9,24,4
-82,-92,-9,87,-36,-51,87,4,24,34,43,24
-78,-73,4,75,-41,-34,73,14,34,39,53,43
-73,-78,-4,75,-34,-41,48,14,34,29,39,34
-68,-78,-9,73,-29,-43,43,14,24,24,39,24
-58,-78,-19,68,-19,-48,43,9,24,24,39,24
-53,-82,-29,68,-12,-56,34,9,24,24,39,29
-48,-82,-34,65,-7,-58,34,14,24,24,39,29
-48,-92,-43,70,-2,-68,24,4,24,34,48,29
-48,-92,-43,70,-2,-68,24,4,24,39,48,29
-53,-87,-34,70,-9,-61,24,9,24,39,48,39
-53,-87,-34,70,-9,-61,14,9,24,39,48,39
-43,-82,-39,63,-2,-61,9,9,24,39,39,34
-43,-82,-39,63,-2,-61,4,9,24,39,39,34
-43,-82,-39,63,-2,-61,4,4,24,39,43,34
-39,-73,-34,56,-2,-53,0,4,29,39,43,34
-39,-82,-43,61,2,-63,9,4,19,29,43,34
-39,-87,-48,63,4,-68,9,4,19,29,43,34
-39,-87,-48,63,4,-68,9,4,19,34,43,34
-43,-87,-43,65,0,-65,9,4,19,34,43,34
-43,-78,-34,61,-4,-56,-9,4,19,43,43,34
-43,-73,-29,58,-7,-51,-9,4,19,43,48,39
-39,-73,-34,56,-2,-53,-14,4,19,39,48,39
-39,-68,-29,53,-4,-48,-14,4,19,39,53,43
-34,-78,-43,56,4,-61,-14,-4,14,29,43,34
-34,-78,-43,56,4,-61,-14,-4,14,29,43,34
-29,-78,-48,53,9,-63,-14,-4,14,29,43,34
-29,-78,-48,53,9,-63,-14,-4,14,34,48,34
-39,-78,-39,58,0,-58,-14,-4,14,34,48,43
-39,-73,-34,56,-2,-53,-14,-4,14,34,53,48
-39,-73,-34,56,-2,-53,-24,-9,14,34,53,48
-39,-68,-29,53,-4,-48,-24,-9,14,34,53,48
-24,-58,-34,41,4,-46,-24,-9,14,34,63,48
-24,-58,-34,41,4,-46,-24,-9,14,34,63,39
-24,-58,-34,41,4,-46,-24,-9,14,34,68,39
-24,-58,-34,41,4,-46,-24,-4,14,43,73,43
-34,-48,-14,41,-9,-31,-29,4,24,53,73,53
-34,-43,-9,39,-12,-26,-34,4,24,53,78,63
-29,-43,-14,36,-7,-29,-34,4,24,53,78,63
-29,-43,-14,36,-7,-29,-39,4,24,53,78,63
-19,-48,-29,34,4,-39,-39,-4,19,53,73,53
-19,-48,-29,34,4,-39,-39,-4,19,53,73,53
-14,-48,-34,31,9,-41,-39,-4,19,48,73,58
-9,-43,-34,26,12,-39,-39,-4,19,48,82,63
-4,-34,-29,19,12,-31,-53,0,19,53,82,63
0,-34,-34,17,17,-34,-53,0,19,58,87,68
4,-29,-34,12,19,-31,-53,4,24,63,87,73
4,-29,-34,12,19,-31,-63,4,24,63,92,73
-4,-34,-29,19,12,-31,-53,14,34,68,102,92
4,-29,-34,12,19,-31,-58,14,34,68,102,97
4,-19,-24,7,14,-21,-63,14,34,68,102,102
9,-14,-24,2,17,-19,-63,14,39,73,107,102
9,-9,-19,0,14,-14,-63,19,39,78,122,107
9,-9,-19,0,14,-14,-68,19,39,78,122,112
19,-4,-24,-7,21,-14,-68,19,43,78,122,117
24,-4,-29,-9,26,-17,-73,19,43,78,122,117
34,4,-29,-19,31,-12,-87,9,34,92,117,112
39,9,-29,-24,34,-9,-87,9,43,97,126,117
43,14,-29,-29,36,-7,-92,9,43,97,131,122
43,14,-29,-29,36,-7,-97,14,43,97,136,126
48,34,-14,-41,31,9,-87,24,53,112,151,146
53,34,-19,-43,36,7,-92,24,53,112,151,146
63,39,-24,-51,43,7,-97,24,53,117,156,151
68,48,-19,-58,43,14,-102,24,53,117,161,156
68,48,-19,-58,43,14,-117,14,48,107,161,151
73,58,-14,-65,43,21,-117,24,53,117,165,156
82,58,-24,-70,53,17,-122,24,53,117,170,161
82,63,-19,-73,51,21,-126,24,53,117,175,161
92,78,-14,-85,53,31,-122,29,63,136,180,175
97,92,-4,-95,51,43,-122,29,68,141,185,185
97,97,0,-97,48,48,-126,29,73,146,185,195
107,107,0,-107,53,53,-131,29,78,146,195,209
122,107,-14,-114,68,46,-141,29,73,136,185,204
126,112,-14,-119,70,48,-141,29,73,141,195,204
136,117,-19,-126,78,48,-146,29,73,146,195,204
136,117,-19,-126,78,48,-146,29,68,146,195,209
131,136,4,-134,63,70,-156,29,82,156,214,224
146,141,-4,-143,75,68,-156,29,82,156,219,229
146,141,-4,-143,75,68,-165,34,78,156,219,229
151,146,-4,-148,78,70,-170,34,78,156,224,234
156,141,-14,-148,85,63,-170,29,82,161,229,229
156,141,-14,-148,85,63,-170,29,82,165,229,229
161,146,-14,-153,87,65,-170,34,82,170,234,239
161,151,-9,-156,85,70,-170,34,82,175,234,239
165,161,-4,-163,85,78,-170,34,82,175,234,244
165,165,0,-165,82,82,-170,39,92,175,239,244
165,170,4,-168,80,87,-170,39,92,175,239,244
170,185,14,-178,78,100,-175,39,92,170,244,244
170,190,19,-180,75,104,-165,29,87,170,239,253
175,190,14,-183,80,102,-165,29,87,175,239,253
180,195,14,-187,82,104,-165,29,87,180,248,263
180,195,14,-187,82,104,-165,24,87,180,239,263
170,185,14,-178,78,100,-165,34,97,180,248,253
170,190,19,-180,75,104,-161,34,97,185,253,258
165,190,24,-178,70,107,-161,34,102,185,253,258
165,190,24,-178,70,107,-161,34,102,180,248,253
180,190,9,-185,85,100,-161,29,102,170,239,253
185,185,0,-185,92,92,-161,29,102,175,239,253
185,185,0,-185,92,92,-156,34,102,175,239,253
185,180,-4,-183,95,87,-151,34,102,175,239,253
180,170,-9,-175,95,80,-151,43,92,175,239,239
180,165,-14,-173,97,75,-141,53,97,175,239,239
180,161,-19,-170,100,70,-136,58,97,175,234,239
175,156,-19,-165,97,68,-136,58,97,165,224,224
161,156,-4,-158,82,75,-131,58,97,165,224,224
161,146,-14,-153,87,65,-122,58,92,165,219,219
156,136,-19,-146,87,58,-112,58,92,161,214,209
156,131,-24,-143,90,53,-102,68,97,161,214,204
141,117,-24,-129,82,46,-102,68,87,156,195,204
136,112,-24,-124,80,43,-87,68,92,156,195,195
136,112,-24,-124,80,43,-78,78,92,156,195,190
122,92,-29,-107,75,31,-68,82,92,156,185,180
122,87,-34,-104,78,26,-53,92,92,136,180,180
117,78,-39,-97,78,19,-43,92,92,131,175,175
112,73,-39,-92,75,17,-39,92,97,131,170,170
102,63,-39,-82,70,12,-24,97,97,131,170,165
97,48,-48,-73,73,0,-19,97,97,131,156,146
87,39,-48,-63,68,-4,-9,97,92,126,146,136
82,34,-48,-58,65,-7,0,102,92,126,146,136
73,24,-48,-48,61,-12,9,102,92,126,146,126
63,24,-39,-43,51,-7,19,97,92,112,141,122
58,19,-39,-39,48,-9,24,97,92,107,141,122
43,9,-34,-26,39,-12,29,97,92,102,136,112
39,9,-29,-24,34,-9,34,97,87,97,131,97
39,0,-39,-19,39,-19,39,92,87,97,122,107
24,-19,-43,-2,34,-31,43,92,82,87,107,92
19,-24,-43,2,31,-34,53,87,82,82,107,87
14,-29,-43,7,29,-36,58,82,82,78,107,82
9,-43,-53,17,31,-48,48,78,68,73,102,73
9,-43,-53,17,31,-48,53,73,63,63,97,68
9,-43,-53,17,31,-48,53,63,63,58,87,58
4,-58,-63,26,34,-61,53,58,58,58,82,53
-9,-58,-48,34,19,-53,58,58,53,58,73,53
-14,-68,-53,41,19,-61,58,48,48,48,63,48
-14,-68,-53,41,19,-61,63,43,43,43,58,43
-14,-68,-53,41,19,-61,73,43,43,43,58,43
-14,-73,-58,43,21,-65,63,34,29,29,48,39
-24,-78,-53,51,14,-65,63,34,24,24,48,34
-24,-78,-53,51,14,-65,63,29,24,19,48,34
-29,-82,-53,56,12,-68,63,24,19,14,43,29
-34,-87,-53,61,9,-70,63,29,24,14,48,24
-34,-87,-53,61,9,-70,63,24,19,19,43,24
-34,-87,-53,61,9,-70,63,19,19,19,39,24
-34,-87,-53,61,9,-70,68,14,19,24,39,24
-29,-87,-58,58,14,-73,58,9,19,19,29,19
-29,-92,-63,61,17,-78,53,4,9,9,24,14
-29,-92,-63,61,17,-78,53,0,9,9,19,14
-29,-92,-63,61,17,-78,53,0,9,9,19,9
-43,-92,-48,68,2,-70,53,4,9,9,24,19
-43,-87,-43,65,0,-65,53,4,9,9,24,19
-48,-87,-39,68,-4,-63,53,0,4,4,19,14
-48,-92,-43,70,-2,-68,58,0,4,4,19,14
-53,-92,-39,73,-7,-65,68,4,9,4,19,19
-58,-92,-34,75,-12,-63,63,4,9,4,19,19
-58,-92,-34,75,-12,-63,63,0,9,4,24,19
-58,-92,-34,75,-12,-63,63,-4,9,4,24,19
-48,-82,-34,65,-7,-58,53,-4,9,9,14,19
-48,-82,-34,65,-7,-58,53,-4,9,9,14,19
-48,-82,-34,65,-7,-58,53,-4,4,4,14,14
-48,-78,-29,63,-9,-53,53,-4,4,4,9,14
-58,-87,-29,73,-14,-58,63,0,19,19,14,19
-58,-87,-29,73,-14,-58,63,0,19,19,19,19
-58,-87,-29,73,-14,-58,63,0,19,19,24,19
-58,-87,-29,73,-14,-58,63,0,19,19,29,19
-58,-87,-29,73,-14,-58,63,0,19,9,29,19
-58,-87,-29,73,-14,-58,63,0,19,9,29,19
-58,-87,-29,73,-14,-58,63,4,19,9,29,19
-73,-87,-14,80,-29,-51,63,4,19,9,29,19
-63,-78,-14,70,-24,-46,63,0,19,24,34,24
-58,-78,-19,68,-19,-48,63,0,19,24,34,24
-58,-78,-19,68,-19,-48,63,0,19,29,34,24
-58,-78,-19,68,-19,-48,63,4,24,29,39,29
-58,-78,-19,68,-19,-48,63,4,29,19,39,29
-53,-78,-24,65,-14,-51,63,9,29,19,39,29
-53,-78,-24,65,-14,-51,63,9,29,19,39,29
-58,-78,-19,68,-19,-48,63,9,29,19,39,29
-48,-73,-24,61,-12,-48,63,0,19,29,48,29
-48,-73,-24,61,-12,-48,63,9,34,39,48,29
-48,-73,-24,61,-12,-48,63,9,24,29,48,29
-48,-73,-24,61,-12,-48,63,4,24,29,48,34
-53,-73,-19,63,-17,-46,53,14,34,29,39,29
-53,-73,-19,63,-17,-46,53,14,34,29,43,29
-53,-73,-19,63,-17,-46,53,19,34,34,48,29
-53,-73,-19,63,-17,-46,48,19,34,34,48,24
-53,-73,-19,63,-17,-46,58,9,24,43,48,24
-53,-73,-19,63,-17,-46,63,9,29,43,48,29
-53,-73,-19,63,-17,-46,63,9,29,43,43,29
-53,-73,-19,63,-17,-46,63,9,24,43,39,29
-58,-82,-24,70,-17,-53,58,9,29,39,39,39
-58,-82,-24,70,-17,-53,58,9,29,34,39,34
-53,-82,-29,68,-12,-56,58,14,34,29,43,34
-53,-82,-29,68,-12,-56,58,14,34,24,43,34
-43,-82,-39,63,-2,-61,58,4,24,24,43,24
-39,-82,-43,61,2,-63,58,4,24,24,48,29
-39,-82,-43,61,2,-63,53,4,24,24,48,29
-43,-82,-39,63,-2,-61,53,4,24,24,48,24
-53,-92,-39,73,-7,-65,53,4,24,24,39,34
-53,-92,-39,73,-7,-65,53,4,19,24,39,34
-53,-92,-39,73,-7,-65,53,4,19,24,39,34
-53,-92,-39,73,-7,-65,53,4,19,24,39,34
-53,-97,-43,75,-4,-70,63,4,19,34,39,24
-53,-97,-43,75,-4,-70,63,4,19,34,39,24
-53,-97,-43,75,-4,-70,63,4,19,29,39,24
-53,-102,-48,78,-2,-75,58,0,19,24,34,24
-53,-92,-39,73,-7,-65,48,9,19,24,34,24
-53,-97,-43,75,-4,-70,48,4,19,29,34,24
-53,-97,-43,75,-4,-70,53,4,19,29,29,24
-53,-97,-43,75,-4,-70,53,4,19,29,29,24
-53,-102,-48,78,-2,-75,48,-4,14,14,34,19
-53,-102,-48,78,-2,-75,48,-4,14,14,34,19
-53,-97,-43,75,-4,-70,48,-4,19,19,39,19
-53,-97,-43,75,-4,-70,48,-4,19,19,39,19
-53,-107,-53,80,0,-80,39,-4,14,19,29,14
-53,-107,-53,80,0,-80,43,-4,14,14,29,14
-58,-107,-48,82,-4,-78,43,-9,14,14,29,14
-58,-107,-48,82,-4,-78,43,-9,14,14,29,14
-63,-112,-48,87,-7,-80,48,-9,4,9,24,14
-63,-112,-48,87,-7,-80,48,-9,4,9,24,14
-63,-107,-43,85,-9,-75,48,-9,4,14,29,14
-63,-107,-43,85,-9,-75,48,-9,0,14,29,14
-63,-117,-53,90,-4,-85,39,-9,0,24,34,19
-63,-117,-53,90,-4,-85,39,-9,4,24,34,19
-63,-117,-53,90,-4,-85,39,-14,4,24,39,19
-63,-117,-53,90,-4,-85,39,-14,4,24,39,19
-73,-107,-34,90,-19,-70,39,-24,4,14,29,19
-73,-107,-34,90,-19,-70,39,-19,4,14,29,19
-73,-107,-34,90,-19,-70,39,-19,9,19,29,19
-68,-107,-39,87,-14,-73,43,-19,9,19,29,19
-53,-117,-63,85,4,-90,29,-29,0,19,19,9
-53,-112,-58,82,2,-85,29,-29,4,19,29,9
-53,-107,-53,80,0,-80,24,-29,9,19,29,19
-53,-102,-48,78,-2,-75,24,-29,14,29,29,19
-48,-92,-43,70,-2,-68,29,-19,24,34,43,29
-48,-87,-39,68,-4,-63,34,-19,24,34,43,29
-48,-78,-29,63,-9,-53,39,-19,24,34,43,29
-48,-73,-24,61,-12,-48,53,0,29,34,48,48
-48,-63,-14,56,-17,-39,63,9,29,39,48,39
-39,-63,-24,51,-7,-43,58,9,34,43,58,39
-39,-63,-24,51,-7,-43,58,9,34,43,48,39
-34,-58,-24,46,-4,-41,58,19,39,48,48,39
-29,-58,-29,43,0,-43,78,29,48,58,68,48
-19,-58,-39,39,9,-48,78,39,58,58,68,48
-19,-58,-39,39,9,-48,78,39,58,58,68,48
-19,-58,-39,39,9,-48,78,39,58,58,68,48
-19,-58,-39,39,9,-48,78,39,58,58,68,48
-19,-53,-34,36,7,-43,92,48,63,73,68,58
-19,-53,-34,36,7,-43,92,48,63,73,63,58
-19,-58,-39,39,9,-48,82,48,53,63,58,48
-19,-58,-39,39,9,-48,78,43,53,58,53,48
-19,-73,-53,46,17,-63,53,29,34,48,43,39
-19,-73,-53,46,17,-63,39,14,24,39,34,39
-9,-73,-63,41,26,-68,29,4,24,39,34,39
-4,-73,-68,39,31,-70,14,4,24,34,34,34
0,-82,-82,41,41,-82,0,-4,14,29,43,34
0,-82,-82,41,41,-82,0,-4,14,29,43,34
0,-82,-82,41,41,-82,0,-9,9,29,39,34
0,-87,-87,43,43,-87,-4,-19,4,24,34,29
4,-78,-82,36,43,-80,4,-19,-4,19,24,29
0,-82,-82,41,41,-82,4,-24,-9,14,24,24
0,-87,-87,43,43,-87,4,-29,-9,14,24,19
-9,-92,-82,51,36,-87,4,-29,-9,14,19,19
-19,-92,-73,56,26,-82,-4,-24,0,14,19,19
-19,-92,-73,56,26,-82,4,-19,0,19,19,24
-19,-92,-73,56,26,-82,4,-19,0,19,19,24
-19,-92,-73,56,26,-82,0,-29,-4,14,19,24
-4,-82,-78,43,36,-80,4,-19,4,19,29,34
-4,-82,-78,43,36,-80,4,-24,-4,14,19,24
-4,-82,-78,43,36,-80,4,-24,-4,14,19,24
-4,-82,-78,43,36,-80,4,-24,0,19,24,29
-4,-82,-78,43,36,-80,-4,-34,-9,9,19,29
-9,-82,-73,46,31,-78,0,-34,-9,14,19,29
-9,-82,-73,46,31,-78,4,-29,-4,14,19,34
-14,-87,-73,51,29,-80,4,-29,-4,14,19,34
-29,-97,-68,63,19,-82,14,-39,-4,14,19,24
-39,-102,-63,70,12,-82,19,-39,-4,14,19,24
-43,-112,-68,78,12,-90,19,-34,-9,4,14,9
-63,-117,-53,90,-4,-85,24,-34,-9,4,9,9
-73,-122,-48,97,-12,-85,14,-34,-9,4,0,9
-78,-126,-48,102,-14,-87,14,-39,-9,0,0,9
-78,-126,-48,102,-14,-87,14,-39,-9,0,0,9
-82,-131,-48,107,-17,-90,14,-43,-19,-9,0,9
-82,-141,-58,112,-12,-100,19,-53,-24,-9,-4,4
-82,-141,-58,112,-12,-100,19,-53,-24,-9,-4,4
-82,-141,-58,112,-12,-100,19,-58,-24,-14,-9,-4
-82,-141,-58,112,-12,-100,19,-58,-24,-14,-9,-4
-92,-151,-58,122,-17,-104,24,-53,-24,-9,-19,-4
-92,-156,-63,124,-14,-109,24,-53,-24,-9,-19,-14
-92,-156,-63,124,-14,-109,29,-53,-24,-9,-19,-14
-92,-156,-63,124,-14,-109,29,-53,-24,-9,-19,-14
-82,-156,-73,119,-4,-114,14,-63,-34,-24,-19,-14
-82,-156,-73,119,-4,-114,14,-58,-34,-24,-19,-9
-87,-156,-68,122,-9,-112,14,-58,-29,-24,-19,-9
-87,-156,-68,122,-9,-112,14,-58,-29,-24,-19,-9
-97,-146,-48,122,-24,-97,29,-48,-19,-9,-14,-9
-97,-146,-48,122,-24,-97,29,-48,-19,-9,-14,-9
-97,-146,-48,122,-24,-97,34,-48,-19,-9,-14,-9
-97,-146,-48,122,-24,-97,34,-48,-19,-9,-14,-9
-97,-156,-58,126,-19,-107,19,-48,-19,-19,-14,-14
-97,-156,-58,126,-19,-107,19,-48,-19,-19,-14,-14
-97,-156,-58,126,-19,-107,19,-48,-19,-19,-19,-9
-102,-161,-58,131,-21,-109,19,-48,-19,-19,-19,-9
-92,-151,-58,122,-17,-104,24,-48,-19,-14,-9,-9
-92,-146,-53,119,-19,-100,24,-48,-19,-9,-9,-9
-92,-146,-53,119,-19,-100,24,-48,-19,-4,-9,-9
-92,-146,-53,119,-19,-100,24,-48,-19,0,-4,-9
-92,-156,-63,124,-14,-109,24,-48,-19,-9,-4,-9
-92,-161,-68,126,-12,-114,24,-48,-19,-9,-4,-9
-92,-161,-68,126,-12,-114,24,-48,-19,-9,-4,-9
-92,-161,-68,126,-12,-114,24,-48,-19,-9,-4,-9
-92,-151,-58,122,-17,-104,24,-39,-29,-9,-14,-9
-92,-151,-58,122,-17,-104,24,-39,-29,-9,-14,-9
-92,-151,-58,122,-17,-104,24,-39,-29,-9,-14,-9
-92,-151,-58,122,-17,-104,24,-39,-29,-9,-14,-9
-92,-161,-68,126,-12,-114,34,-39,-19,-9,-14,-9
-92,-161,-68,126,-12,-114,34,-39,-19,-9,-14,-9
-92,-156,-63,124,-14,-109,34,-39,-19,-9,-14,-9
-92,-156,-63,124,-14,-109,34,-34,-19,-9,-14,-9
-78,-156,-78,117,0,-117,14,-43,-19,-19,-24,-9
-87,-146,-58,117,-14,-102,29,-24,-9,0,-4,9
-87,-146,-58,117,-14,-102,39,-24,-9,0,-14,0
-87,-146,-58,117,-14,-102,39,-34,-14,-4,-14,-9
-107,-136,-29,122,-39,-82,53,-19,4,9,-4,-4
-117,-122,-4,119,-56,-63,63,-19,14,9,-4,4
-126,-102,24,114,-75,-39,87,9,43,43,19,24
-146,-122,24,134,-85,-48,126,58,92,73,34,34
-136,-141,-4,139,-65,-73,136,122,122,107,63,43
-97,-131,-34,114,-31,-82,151,219,175,175,112,97
-34,-136,-102,85,34,-119,170,356,234,253,161,131
43,-161,-204,58,124,-183,185,546,331,351,214,170
136,-141,-278,2,207,-209,224,795,478,492,326,244
253,-107,-361,-73,307,-234,253,1034,639,673,448,361
385,-43,-429,-170,407,-236,263,1268,795,854,600,488
507,24,-483,-265,495,-229,283,1464,907,980,717,590
639,73,-566,-356,602,-246,253,1556,917,990,732,619
741,112,-629,-427,685,-258,224,1532,829,902,683,600
761,136,-624,-448,692,-244,190,1361,634,692,556,522
751,180,-570,-466,661,-195,102,1034,414,458,405,434
746,229,-517,-488,631,-143,19,678,195,229,273,351
717,82,-634,-400,675,-275,-14,429,-48,-48,24,131
639,-180,-819,-229,729,-500,-14,185,-336,-375,-307,-175
527,-287,-814,-119,671,-551,-78,-224,-536,-595,-473,-331
380,-273,-653,-53,517,-463,-161,-614,-639,-673,-517,-356
248,-248,-497,0,373,-373,-170,-795,-649,-678,-507,-356
126,-239,-366,56,246,-302,-107,-800,-595,-634,-483,-336
-19,-248,-229,134,104,-239,-19,-736,-546,-600,-483,-346
-151,-273,-122,212,-14,-197,68,-653,-488,-556,-468,-366
-204,-287,-82,246,-61,-185,117,-561,-414,-502,-439,-356
-204,-307,-102,256,-51,-204,122,-483,-375,-468,-419,-346
-248,-317,-68,283,-90,-192,175,-375,-312,-414,-380,-336
-312,-361,-48,336,-131,-204,263,-244,-248,-370,-366,-341
-366,-419,-53,392,-156,-236,341,-131,-204,-351,-370,-366
-370,-429,-58,400,-156,-244,419,-9,-146,-302,-346,-346
-380,-419,-39,400,-170,-229,483,97,-87,-244,-302,-317
-390,-419,-29,405,-180,-224,517,161,-34,-200,-278,-307
-385,-390,-4,387,-190,-197,570,224,14,-156,-244,-283
-395,-356,39,375,-217,-158,605,253,53,-126,-219,-253
-395,-317,78,356,-236,-119,644,258,63,-117,-185,-234
-395,-292,102,344,-248,-95,683,278,92,-87,-161,-209
-400,-283,117,341,-258,-82,722,302,107,-68,-141,-190
-400,-258,141,329,-270,-58,771,326,136,-39,-112,-170
-405,-239,165,322,-285,-36,810,346,161,0,-73,-131
-419,-234,185,326,-302,-24,824,326,161,4,-73,-131
-409,-234,175,322,-292,-29,844,292,131,-14,-82,-131
-434,-253,180,344,-307,-36,863,263,112,-29,-102,-151
-473,-258,214,366,-344,-21,917,229,102,-48,-117,-151
-507,-258,248,383,-378,-4,980,195,87,-63,-117,-146
-517,-278,239,397,-378,-19,971,117,53,-92,-141,-165
-502,-273,229,387,-366,-21,912,29,29,-97,-131,-165
-497,-244,253,370,-375,4,858,-24,34,-68,-97,-136
-488,-239,248,363,-368,4,844,-48,34,-68,-97,-141
-478,-239,239,358,-358,0,814,-53,34,-58,-92,-146
-468,-229,239,348,-353,4,756,-58,24,-58,-92,-131
-434,-224,209,329,-322,-7,678,-78,9,-73,-102,-126
-395,-209,185,302,-290,-12,614,-73,9,-63,-102,-112
-366,-209,156,287,-261,-26,522,-78,-4,-68,-92,-107
-336,-204,131,270,-234,-36,434,-97,-24,-78,-92,-97
-297,-185,112,241,-204,-36,390,-78,-14,-48,-53,-73
-273,-180,92,226,-183,-43,346,-53,-9,-29,-43,-48
-244,-175,68,209,-156,-53,292,-58,-19,-34,-48,-48
-219,-165,53,192,-136,-56,263,-43,-9,-29,-39,-43
-214,-165,48,190,-131,-58,239,-39,-19,-34,-53,-48
-195,-165,29,180,-112,-68,204,-39,-24,-34,-48,-48
-180,-156,24,168,-102,-65,190,-43,-24,-19,-43,-39
-170,-156,14,163,-92,-70,146,-43,-29,-19,-43,-29
-151,-141,9,146,-80,-65,131,-34,-29,-14,-24,-19
-126,-136,-9,131,-58,-73,126,-24,-14,4,-4,-4
-126,-141,-14,134,-56,-78,97,-19,-19,0,-4,-4
-112,-131,-19,122,-46,-75,87,-4,-14,4,-4,-4
-97,-122,-24,109,-36,-73,63,-4,-4,0,-14,-4
-82,-117,-34,100,-24,-75,48,-4,-4,9,-9,-4
-87,-117,-29,102,-29,-73,43,-9,-4,14,0,4
-78,-117,-39,97,-19,-78,43,-9,-4,14,0,4
-73,-122,-48,97,-12,-85,34,-4,-4,14,0,9
-68,-122,-53,95,-7,-87,34,4,-4,14,0,9
-68,-122,-53,95,-7,-87,24,-4,-14,4,0,0
-68,-122,-53,95,-7,-87,24,-4,-14,9,0,0
-73,-117,-43,95,-14,-80,24,0,-14,9,0,9
-73,-117,-43,95,-14,-80,14,0,-14,9,0,9
-63,-122,-58,92,-2,-90,9,0,-14,9,-9,14
-63,-122,-58,92,-2,-90,4,0,-14,9,-9,14
-63,-122,-58,92,-2,-90,4,-4,-14,9,-4,14
-58,-112,-53,85,-2,-82,0,-4,-9,9,-4,14
-58,-107,-48,82,-4,-78,0,-4,-9,9,4,14
-58,-107,-48,82,-4,-78,0,-4,-9,9,4,14
-58,-102,-43,80,-7,-73,0,-4,-9,14,4,14
-63,-97,-34,80,-14,-65,0,-4,-9,14,4,14
-63,-102,-39,82,-12,-70,0,4,-9,14,-4,14
-63,-102,-39,82,-12,-70,0,4,-9,14,0,19
-58,-107,-48,82,-4,-78,-4,4,-9,9,0,19
-58,-107,-48,82,-4,-78,-4,4,-9,9,4,24
-43,-107,-63,75,9,-85,-4,4,-4,19,14,24
-43,-107,-63,75,9,-85,-4,4,-4,19,14,24
-39,-107,-68,73,14,-87,-4,4,-4,19,14,24
-39,-107,-68,73,14,-87,-4,4,-4,24,19,24
-39,-97,-58,68,9,-78,-4,-4,-14,14,9,14
-39,-92,-53,65,7,-73,-4,-4,-14,14,14,19
-39,-92,-53,65,7,-73,-14,-9,-14,14,14,19
-39,-87,-48,63,4,-68,-14,-9,-14,14,14,19
-34,-87,-53,61,9,-70,-24,0,-4,24,24,39
-34,-87,-53,61,9,-70,-24,0,-4,24,24,29
-34,-87,-53,61,9,-70,-24,0,-4,24,29,29
-34,-87,-53,61,9,-70,-24,4,-4,34,34,34
-34,-97,-63,65,14,-80,-19,-4,-4,24,24,34
-34,-92,-58,63,12,-75,-24,-4,-4,24,29,43
-29,-92,-63,61,17,-78,-24,-4,-4,24,29,43
-29,-92,-63,61,17,-78,-29,-4,-4,24,29,43
-19,-78,-58,48,19,-68,-29,4,0,34,34,43
-19,-78,-58,48,19,-68,-29,4,0,34,34,43
-14,-78,-63,46,24,-70,-29,4,0,29,34,48
-9,-73,-63,41,26,-68,-29,4,0,29,43,53
-4,-73,-68,39,31,-70,-34,9,0,34,34,43
0,-73,-73,36,36,-73,-34,9,0,39,39,48
4,-68,-73,31,39,-70,-34,14,4,43,39,53
4,-68,-73,31,39,-70,-43,14,4,43,43,53
-4,-63,-58,34,26,-61,-43,24,14,48,63,63
4,-58,-63,26,34,-61,-48,24,14,48,63,68
4,-48,-53,21,29,-51,-53,24,14,48,63,73
9,-43,-53,17,31,-48,-53,24,19,53,68,73
14,-39,-53,12,34,-46,-53,19,19,58,82,87
19,-39,-58,9,39,-48,-58,19,19,58,82,92
34,-34,-68,0,51,-51,-58,19,24,58,82,97
43,-34,-78,-4,61,-56,-63,19,24,58,82,97
34,-34,-68,0,51,-51,-68,29,24,82,97,112
39,-29,-68,-4,53,-48,-68,29,34,87,107,117
43,-24,-68,-9,56,-46,-73,29,34,87,112,122
43,-24,-68,-9,56,-46,-78,34,34,87,117,126
48,-14,-63,-17,56,-39,-78,24,24,82,112,126
53,-14,-68,-19,61,-41,-82,24,24,82,112,126
63,-9,-73,-26,68,-41,-87,24,24,87,117,131
68,0,-68,-34,68,-34,-92,24,24,87,122,136
78,0,-78,-39,78,-39,-107,24,29,87,112,131
82,9,-73,-46,78,-31,-107,34,34,97,117,136
92,9,-82,-51,87,-36,-112,34,34,97,122,141
92,14,-78,-53,85,-31,-117,34,34,97,126,141
102,24,-78,-63,90,-26,-122,39,48,107,136,161
107,34,-73,-70,90,-19,-122,39,48,112,146,165
107,34,-73,-70,90,-19,-126,39,48,117,151,170
117,39,-78,-78,97,-19,-131,39,48,117,165,180
122,58,-63,-90,92,-2,-141,48,48,126,175,190
126,63,-63,-95,95,0,-141,48,53,131,185,195
136,68,-68,-102,102,0,-146,48,58,136,185,200
136,68,-68,-102,102,0,-146,48,58,136,185,209
141,78,-63,-109,102,7,-146,48,63,146,185,204
156,82,-73,-119,114,4,-146,48,63,146,190,209
156,82,-73,-119,114,4,-156,53,58,146,190,209
161,87,-73,-124,117,7,-161,53,58,146,195,214
175,92,-82,-134,129,4,-161,48,63,151,200,219
175,92,-82,-134,129,4,-161,48,63,156,200,219
180,97,-82,-139,131,7,-161,53,63,161,204,229
180,102,-78,-141,129,12,-161,53,63,165,204,229
185,107,-78,-146,131,14,-161,53,63,156,195,234
185,107,-78,-146,131,14,-161,58,73,156,200,234
185,107,-78,-146,131,14,-161,58,73,156,200,234
190,117,-73,-153,131,21,-165,58,73,151,204,234
180,122,-58,-151,119,31,-165,58,78,161,209,234
185,122,-63,-153,124,29,-165,58,78,165,209,234
190,126,-63,-158,126,31,-165,58,78,170,219,244
190,126,-63,-158,126,31,-165,53,78,170,209,244
195,126,-68,-161,131,29,-175,53,87,170,219,244
200,131,-68,-165,134,31,-170,53,87,175,224,248
200,131,-68,-165,134,31,-170,53,92,175,224,248
204,131,-73,-168,139,29,-170,53,92,170,219,244
200,122,-78,-161,139,21,-161,68,92,170,219,244
204,117,-87,-161,146,14,-161,68,92,175,219,244
204,117,-87,-161,146,14,-156,73,92,175,219,244
204,112,-92,-158,148,9,-151,73,92,175,219,244
200,102,-97,-151,148,2,-151,73,92,175,219,239
200,97,-102,-148,151,-2,-141,82,97,175,219,239
200,92,-107,-146,153,-7,-136,87,97,175,214,239
195,87,-107,-141,151,-9,-136,87,97,165,204,224
190,87,-102,-139,146,-7,-131,87,87,156,200,214
190,78,-112,-134,151,-17,-122,87,82,156,190,209
185,68,-117,-126,151,-24,-112,87,82,151,180,200
185,63,-122,-124,153,-29,-102,97,87,151,175,195
180,48,-131,-114,156,-41,-102,97,87,156,175,204
175,43,-131,-109,153,-43,-87,97,92,156,175,195
175,43,-131,-109,153,-43,-78,107,92,156,175,190
161,24,-136,-92,148,-56,-68,112,92,156,165,180
141,19,-122,-80,131,-51,-53,122,92,146,161,170
136,9,-126,-73,131,-58,-43,122,92,141,156,165
131,4,-126,-68,129,-61,-39,122,97,141,151,161
122,-4,-126,-58,124,-65,-24,126,97,141,151,156
117,-9,-126,-53,122,-68,-29,126,107,151,156,156
107,-19,-126,-43,117,-73,-19,126,102,146,146,146
102,-24,-126,-39,114,-75,-9,131,102,146,146,146
92,-34,-126,-29,109,-80,0,131,102,146,146,136
82,-34,-117,-24,100,-75,9,126,102,131,122,122
78,-39,-117,-19,97,-78,14,126,102,126,122,122
63,-48,-112,-7,87,-80,19,126,102,122,117,112
58,-48,-107,-4,82,-78,24,126,97,117,112,97
58,-63,-122,2,90,-92,39,122,97,117,112,107
43,-78,-122,17,82,-100,43,122,92,107,97,92
39,-78,-117,19,78,-97,53,117,92,102,97,87
34,-78,-112,21,73,-95,58,112,92,97,97,82
29,-97,-126,34,78,-112,48,107,87,102,92,82
29,-102,-131,36,80,-117,53,102,82,92,87,78
29,-107,-136,39,82,-122,53,92,82,87,78,68
24,-126,-151,51,87,-139,53,87,78,87,73,63
9,-117,-126,53,68,-122,58,87,63,78,82,63
4,-126,-131,61,68,-129,58,78,58,68,73,58
4,-126,-131,61,68,-129,63,73,53,63,68,53
4,-126,-131,61,68,-129,73,73,53,63,68,53
4,-141,-146,68,75,-143,63,63,48,58,48,39
-4,-146,-141,75,68,-143,63,63,43,53,48,34
-4,-146,-141,75,68,-143,63,58,43,48,48,34
-9,-151,-141,80,65,-146,63,53,39,43,43,29
-4,-156,-151,80,73,-153,53,58,34,48,48,34
-4,-156,-151,80,73,-153,53,53,29,48,43,34
-4,-156,-151,80,73,-153,53,48,29,43,39,34
-4,-156,-151,80,73,-153,58,43,29,43,39,34
-19,-175,-156,97,68,-165,58,39,29,39,29,24
-19,-180,-161,100,70,-170,53,34,19,29,24,14
-19,-180,-161,100,70,-170,53,29,19,29,19,9
-19,-180,-161,100,70,-170,53,29,19,29,19,0
-24,-180,-156,102,65,-168,63,34,29,39,29,4
-24,-175,-151,100,63,-163,63,34,29,39,34,9
-29,-175,-146,102,58,-161,63,29,24,34,34,9
-29,-180,-151,104,61,-165,68,29,24,34,39,14
-34,-180,-146,107,56,-163,58,24,19,24,34,19
-39,-180,-141,109,51,-161,53,24,19,24,29,19
-39,-180,-141,109,51,-161,53,19,19,24,29,19
-39,-180,-141,109,51,-161,53,14,19,24,24,19
-39,-190,-151,114,56,-170,63,14,19,19,24,9
-39,-190,-151,114,56,-170,63,14,19,19,24,9
-39,-190,-151,114,56,-170,63,14,14,14,24,4
-39,-185,-146,112,53,-165,63,14,14,14,19,4
-43,-185,-141,114,48,-163,53,9,19,19,19,9
-48,-185,-136,117,43,-161,53,9,19,19,19,9
-53,-185,-131,119,39,-158,53,9,19,19,19,9
-58,-185,-126,122,34,-156,53,9,19,19,19,9
-58,-175,-117,117,29,-146,53,0,9,19,29,19
-58,-175,-117,117,29,-146,53,0,9,19,29,19
-58,-175,-117,117,29,-146,53,4,9,19,29,19
-73,-175,-102,124,14,-139,53,4,9,19,29,19
-53,-175,-122,114,34,-148,53,0,9,14,24,14
-48,-175,-126,112,39,-151,53,0,9,14,24,14
-48,-175,-126,112,39,-151,53,0,9,19,24,14
-48,-175,-126,112,39,-151,53,4,14,19,29,19
-58,-165,-107,112,24,-136,53,4,19,19,19,9
-53,-165,-112,109,29,-139,53,9,19,19,19,9
-53,-165,-112,109,29,-139,53,9,19,19,19,9
-58,-165,-107,112,24,-136,53,9,19,19,19,9
-48,-170,-122,109,36,-146,53,9,19,29,29,14
-48,-170,-122,109,36,-146,53,19,34,39,29,19
-48,-170,-122,109,36,-146,53,19,24,29,29,24
-48,-170,-122,109,36,-146,53,14,24,29,29,34
-43,-161,-117,102,36,-139,53,14,24,39,39,29
-43,-161,-117,102,36,-139,53,14,24,39,43,29
-43,-161,-117,102,36,-139,53,19,24,43,48,29
-43,-161,-117,102,36,-139,48,19,24,43,48,24
-34,-170,-136,102,51,-153,48,29,24,34,43,24
-34,-170,-136,102,51,-153,53,29,29,34,39,29
-34,-170,-136,102,51,-153,53,29,29,34,29,29
-34,-170,-136,102,51,-153,53,29,24,34,19,29
-39,-170,-131,104,46,-151,58,19,29,43,24,29
-39,-170,-131,104,46,-151,58,19,29,43,29,24
-34,-170,-136,102,51,-153,58,24,34,43,39,24
-34,-170,-136,102,51,-153,58,24,34,43,43,24
-34,-180,-146,107,56,-163,48,24,34,53,43,34
-29,-180,-151,104,61,-165,48,24,34,53,48,39
-29,-180,-151,104,61,-165,43,24,34,53,48,39
-34,-180,-146,107,56,-163,43,24,34,53,48,34
-34,-175,-141,104,53,-158,43,24,34,53,58,43
-34,-170,-136,102,51,-153,43,24,29,53,58,43
-34,-165,-131,100,48,-148,43,24,29,53,58,43
-34,-161,-126,97,46,-143,43,24,29,53,58,43
-29,-175,-146,102,58,-161,43,24,19,43,53,39
-24,-175,-151,100,63,-163,43,24,19,43,48,34
-19,-175,-156,97,68,-165,43,24,19,39,43,29
-14,-180,-165,97,75,-173,39,19,19,34,34,24
-24,-180,-156,102,65,-168,39,19,29,43,39,34
-24,-185,-161,104,68,-173,39,14,29,48,43,34
-24,-185,-161,104,68,-173,43,14,29,48,43,34
-24,-185,-161,104,68,-173,43,14,29,48,48,34
-24,-200,-175,112,75,-187,39,24,24,34,34,19
-24,-200,-175,112,75,-187,39,24,24,34,34,19
-24,-195,-170,109,73,-183,39,24,29,39,39,19
-24,-195,-170,109,73,-183,39,24,29,39,39,19
-24,-185,-161,104,68,-173,29,14,24,39,39,14
-24,-185,-161,104,68,-173,34,14,24,34,39,14
-29,-185,-156,107,63,-170,34,9,24,34,39,14
-29,-185,-156,107,63,-170,34,9,24,34,39,14
-29,-180,-151,104,61,-165,29,19,34,34,39,19
-24,-180,-156,102,65,-168,29,19,34,39,43,24
-19,-175,-156,97,68,-165,29,19,34,48,53,29
-14,-175,-161,95,73,-168,29,19,29,53,58,34
-14,-175,-161,95,73,-168,39,19,29,43,53,39
-14,-175,-161,95,73,-168,39,19,34,43,53,39
-14,-175,-161,95,73,-168,39,14,34,43,58,39
-14,-175,-161,95,73,-168,39,14,34,43,58,39
-14,-165,-151,90,68,-158,48,34,43,53,58,39
-4,-165,-161,85,78,-163,39,39,43,53,39,29
-4,-156,-151,80,73,-153,58,39,58,68,48,39
0,-146,-146,73,73,-146,68,48,68,78,58,48
0,-156,-156,78,78,-156,78,53,68,78,58,48
0,-156,-156,78,78,-156,78,58,68,78,58,48
0,-156,-156,78,78,-156,78,63,68,78,58,48
0,-156,-156,78,78,-156,78,68,68,78,58,48
9,-151,-161,70,85,-156,82,73,82,87,68,58
9,-151,-161,70,85,-156,82,78,82,92,63,58
9,-156,-165,73,87,-161,73,82,73,87,58,48
9,-156,-165,73,87,-161,68,82,73,87,53,48
9,-161,-170,75,90,-165,53,73,63,78,63,48
9,-161,-170,75,90,-165,39,53,53,68,53,48
19,-161,-180,70,100,-170,29,39,53,68,53,48
24,-161,-185,68,104,-173,14,34,53,63,53,43
39,-151,-190,56,114,-170,0,34,43,58,43,53
39,-151,-190,56,114,-170,0,34,43,58,43,53
39,-151,-190,56,114,-170,0,29,39,58,39,53
39,-156,-195,58,117,-175,-4,19,34,53,34,48
34,-156,-190,61,112,-173,-4,19,34,58,34,48
29,-161,-190,65,109,-175,-4,14,29,53,34,43
29,-165,-195,68,112,-180,-4,9,29,53,34,39
19,-170,-190,75,104,-180,-4,9,29,53,29,39
9,-180,-190,85,100,-185,4,24,29,43,39,29
9,-180,-190,85,100,-185,14,29,29,48,39,34
9,-180,-190,85,100,-185,14,29,29,48,39,34
9,-180,-190,85,100,-185,9,19,24,43,39,34
19,-185,-204,82,112,-195,-4,9,14,29,34,24
24,-190,-214,82,119,-202,-4,4,4,24,19,14
29,-195,-224,82,126,-209,-4,4,4,24,14,14
34,-200,-234,82,134,-217,-4,4,9,29,14,19
24,-195,-219,85,122,-207,4,9,14,34,34,24
19,-190,-209,85,114,-200,9,14,19,43,39,29
19,-185,-204,82,112,-195,14,24,29,48,43,39
14,-185,-200,85,107,-192,14,29,34,53,48,43
4,-185,-190,90,97,-187,14,29,34,53,39,43
0,-190,-190,95,95,-190,19,29,34,53,39,43
0,-200,-200,100,100,-200,19,34,29,43,34,29
-14,-204,-190,109,87,-197,24,34,29,43,29,29
-19,-209,-190,114,85,-200,19,14,24,34,19,19
-19,-214,-195,117,87,-204,14,9,19,29,19,19
-14,-214,-200,114,92,-207,9,9,14,29,19,19
-14,-219,-204,117,95,-212,4,4,0,19,19,19
-34,-229,-195,131,80,-212,9,4,4,19,4,4
-34,-229,-195,131,80,-212,9,4,4,19,4,4
-34,-229,-195,131,80,-212,9,0,4,14,0,-4
-34,-229,-195,131,80,-212,9,0,4,14,0,-4
-34,-239,-204,136,85,-222,14,14,14,29,0,4
-34,-244,-209,139,87,-226,14,14,14,29,0,-4
-34,-244,-209,139,87,-226,19,14,14,29,0,-4
-34,-244,-209,139,87,-226,19,14,14,29,0,-4
-24,-244,-219,134,97,-231,24,4,4,24,0,-4
-24,-244,-219,134,97,-231,24,9,4,24,0,0
-29,-244,-214,136,92,-229,24,9,9,24,0,0
-29,-244,-214,136,92,-229,24,9,9,24,0,0
-39,-234,-195,136,78,-214,29,19,19,14,4,0
-39,-234,-195,136,78,-214,29,19,19,9,4,0
-39,-234,-195,136,78,-214,34,19,19,4,4,0
-39,-234,-195,136,78,-214,34,19,19,0,4,0
-29,-239,-209,134,90,-224,19,19,9,14,14,-4
-29,-244,-214,136,92,-229,19,19,9,19,14,-4
-29,-248,-219,139,95,-234,19,19,9,24,9,0
-34,-258,-224,146,95,-241,19,19,9,29,9,0
-24,-244,-219,134,97,-231,24,19,19,24,9,0
-24,-234,-209,129,92,-222,24,19,19,19,9,0
-24,-229,-204,126,90,-217,24,19,19,14,9,0
-24,-224,-200,124,87,-212,24,19,19,9,14,0
-34,-234,-200,134,82,-217,24,19,9,0,0,-4
-34,-239,-204,136,85,-222,24,19,9,0,-4,-9
-34,-239,-204,136,85,-222,24,19,9,0,-9,-14
-34,-239,-204,136,85,-222,24,19,9,0,-14,-19
-34,-248,-214,141,90,-231,34,29,19,9,-9,-9
-34,-248,-214,141,90,-231,34,29,19,9,-4,-9
-34,-248,-214,141,90,-231,34,29,19,9,0,-9
-34,-248,-214,141,90,-231,34,29,19,9,4,-9
-34,-239,-204,136,85,-222,34,19,19,19,4,0
-34,-239,-204,136,85,-222,34,19,19,19,4,0
-34,-234,-200,134,82,-217,34,19,19,19,4,0
-34,-234,-200,134,82,-217,34,24,19,19,4,0
-39,-224,-185,131,73,-204,34,34,29,19,14,9
-29,-234,-204,131,87,-219,29,14,19,9,4,-9
-19,-234,-214,126,97,-224,29,24,29,9,4,-9
-29,-224,-195,126,82,-209,48,43,53,34,34,9
-29,-234,-204,131,87,-219,43,39,53,39,24,4
-39,-219,-180,129,70,-200,53,48,63,48,34,14
-48,-190,-141,119,46,-165,68,58,82,63,39,34
-58,-180,-122,119,31,-151,78,68,92,73,43,34
-58,-190,-131,124,36,-161,107,122,122,97,63,43
-68,-209,-141,139,36,-175,131,180,165,136,82,48
-53,-224,-170,139,58,-197,141,258,204,175,112,63
14,-229,-244,107,129,-236,156,400,283,253,175,112
97,-248,-346,75,222,-297,195,600,380,356,229,165
195,-273,-468,39,331,-370,224,810,502,497,322,234
307,-239,-546,-34,427,-392,234,1044,658,688,463,341
429,-180,-610,-124,519,-395,244,1239,800,844,600,473
541,-122,-663,-209,602,-392,253,1410,907,971,712,570
634,-73,-707,-280,671,-390,253,1522,956,1029,761,629
702,-39,-741,-331,722,-390,219,1488,878,927,712,610
732,14,-717,-373,724,-351,190,1317,688,722,600,551
717,92,-624,-405,671,-265,117,1019,478,502,478,497
697,131,-566,-414,631,-217,14,663,273,283,346,414
678,-34,-712,-322,695,-373,-24,429,4,-14,73,175
614,-317,-932,-148,773,-624,-29,195,-283,-351,-287,-156
488,-419,-907,-34,697,-663,-102,-165,-483,-566,-468,-317
356,-395,-751,19,553,-573,-161,-502,-561,-619,-478,-336
195,-395,-590,100,392,-492,-156,-683,-595,-644,-492,-356
68,-395,-463,163,265,-429,-107,-707,-566,-629,-483,-385
-34,-409,-375,222,170,-392,-19,-634,-517,-605,-478,-385
-136,-463,-326,300,95,-395,58,-541,-463,-570,-478,-405
-175,-492,-317,334,70,-405,82,-453,-405,-527,-458,-395
-170,-502,-331,336,80,-417,78,-385,-370,-483,-439,-385
-185,-517,-331,351,73,-424,107,-322,-326,-448,-434,-390
-239,-556,-317,397,39,-436,195,-200,-253,-400,-419,-405
-292,-585,-292,439,0,-439,283,-97,-195,-361,-414,-414
-312,-575,-263,444,-24,-419,326,-19,-136,-322,-370,-395
-322,-527,-204,424,-58,-366,390,73,-43,-248,-307,-336
-317,-497,-180,407,-68,-339,444,156,14,-195,-263,-292
-307,-483,-175,395,-65,-329,478,214,43,-156,-248,-273
-297,-444,-146,370,-75,-295,507,268,102,-97,-195,-234
-287,-429,-141,358,-73,-285,527,287,122,-68,-180,-229
-292,-400,-107,346,-92,-253,566,292,136,-58,-151,-209
-292,-366,-73,329,-109,-219,605,307,165,-29,-131,-190
-307,-336,-29,322,-139,-183,634,336,180,-19,-122,-170
-312,-273,39,292,-175,-117,678,346,190,-14,-102,-161
-302,-204,97,253,-200,-53,707,341,200,-4,-102,-161
-326,-185,141,256,-234,-21,717,312,180,-9,-112,-161
-336,-190,146,263,-241,-21,722,268,141,-29,-126,-170
-351,-190,161,270,-256,-14,746,214,107,-53,-156,-195
-361,-170,190,265,-275,9,775,175,92,-73,-161,-204
-375,-156,219,265,-297,31,834,136,78,-87,-170,-214
-400,-165,234,283,-317,34,849,63,43,-117,-185,-234
-409,-151,258,280,-334,53,814,-19,34,-117,-175,-219
-419,-131,287,275,-353,78,766,-63,34,-107,-151,-195
-409,-131,278,270,-344,73,736,-78,14,-126,-170,-190
-405,-117,287,261,-346,85,717,-87,0,-141,-180,-204
-385,-102,283,244,-334,90,653,-102,-9,-141,-180,-209
-375,-102,273,239,-324,85,580,-117,-24,-136,-180,-214
-326,-78,248,202,-287,85,522,-126,-43,-146,-180,-204
-278,-68,209,173,-244,70,439,-136,-63,-156,-190,-200
-263,-63,200,163,-231,68,356,-131,-68,-146,-170,-185
-234,-39,195,136,-214,78,322,-117,-58,-131,-146,-156
-200,-39,161,119,-180,61,263,-102,-68,-126,-146,-151
-175,-29,146,102,-161,58,209,-107,-78,-131,-141,-146
-175,-9,165,92,-170,78,175,-87,-63,-102,-117,-117
-170,-9,161,90,-165,75,131,-82,-63,-97,-112,-117
-141,0,141,70,-141,70,97,-82,-68,-97,-112,-126
-122,14,136,53,-129,75,73,-82,-78,-112,-131,-136
-107,0,107,53,-107,53,48,-92,-92,-122,-131,-131
-97,24,122,36,-109,73,39,-68,-68,-87,-92,-102
-82,34,117,24,-100,75,29,-43,-53,-73,-73,-82
-58,24,82,17,-70,53,4,-53,-73,-87,-92,-92
-43,39,82,2,-63,61,-9,-34,-63,-78,-78,-92
-48,53,102,-2,-75,78,-39,-39,-53,-73,-87,-92
-39,58,97,-9,-68,78,-43,-39,-53,-73,-87,-92
-34,58,92,-12,-63,75,-58,-34,-53,-73,-87,-87
-29,63,92,-17,-61,78,-63,-24,-53,-73,-87,-87
-24,58,82,-17,-53,70,-73,-34,-53,-63,-82,-87
-19,63,82,-21,-51,73,-73,-34,-53,-58,-78,-87
-19,73,92,-26,-56,82,-73,-29,-53,-58,-73,-78
-14,78,92,-31,-53,85,-82,-29,-53,-58,-68,-78
-14,92,107,-39,-61,100,-97,-39,-63,-68,-78,-73
-14,92,107,-39,-61,100,-102,-39,-63,-68,-78,-73
-14,92,107,-39,-61,100,-102,-43,-63,-68,-73,-73
-9,102,112,-46,-61,107,-107,-43,-58,-68,-73,-73
0,102,102,-51,-51,102,-107,-34,-58,-78,-73,-73
0,97,97,-48,-48,97,-107,-34,-58,-78,-73,-73
0,97,97,-48,-48,97,-107,-34,-58,-73,-73,-73
-4,97,102,-46,-53,100,-107,-34,-58,-73,-73,-73
-4,87,92,-41,-48,90,-117,-34,-68,-73,-82,-82
-4,92,97,-43,-51,95,-117,-34,-68,-73,-78,-78
0,92,92,-46,-46,92,-122,-34,-68,-78,-78,-78
0,97,97,-48,-48,97,-122,-34,-68,-78,-73,-73
4,107,102,-56,-48,104,-131,-43,-63,-68,-63,-73
4,107,102,-56,-48,104,-131,-43,-63,-68,-63,-73
9,107,97,-58,-43,102,-131,-43,-63,-68,-63,-73
9,107,97,-58,-43,102,-131,-43,-63,-63,-58,-73
9,117,107,-63,-48,112,-131,-43,-63,-63,-68,-63
9,122,112,-65,-51,117,-131,-43,-63,-63,-63,-58
9,122,112,-65,-51,117,-141,-48,-63,-63,-63,-58
9,126,117,-68,-53,122,-141,-48,-63,-63,-63,-58
14,136,122,-75,-53,129,-141,-48,-63,-73,-58,-58
14,136,122,-75,-53,129,-141,-48,-63,-73,-53,-68
14,136,122,-75,-53,129,-141,-48,-63,-73,-43,-68
14,136,122,-75,-53,129,-141,-43,-63,-63,-34,-63
24,136,112,-80,-43,124,-146,-43,-53,-63,-43,-63
24,141,117,-82,-46,129,-151,-43,-53,-63,-39,-53
29,141,112,-85,-41,126,-151,-43,-53,-63,-39,-53
29,141,112,-85,-41,126,-156,-43,-53,-63,-39,-53
29,136,107,-82,-39,122,-165,-43,-58,-53,-34,-53
29,136,107,-82,-39,122,-165,-43,-58,-53,-34,-53
34,136,102,-85,-34,119,-165,-43,-58,-58,-34,-48
39,141,102,-90,-31,122,-165,-43,-58,-58,-24,-43
34,141,107,-87,-36,124,-170,-39,-58,-63,-24,-43
39,141,102,-90,-31,122,-170,-39,-58,-58,-19,-39
43,146,102,-95,-29,124,-170,-34,-53,-53,-19,-34
43,146,102,-95,-29,124,-180,-34,-53,-53,-14,-34
43,161,117,-102,-36,139,-180,-43,-53,-43,-4,-34
53,165,112,-109,-29,139,-185,-43,-53,-39,-4,-29
53,175,122,-114,-34,148,-190,-43,-53,-34,-4,-24
58,180,122,-119,-31,151,-190,-43,-48,-24,0,-24
58,175,117,-117,-29,146,-190,-39,-58,-24,4,-19
58,175,117,-117,-29,146,-195,-39,-58,-29,4,-14
68,180,112,-124,-21,146,-195,-39,-53,-34,4,-9
73,180,107,-126,-17,143,-200,-39,-53,-39,4,-9
73,180,107,-126,-17,143,-204,-29,-43,-24,0,-4
78,185,107,-131,-14,146,-204,-29,-34,-19,9,0
82,190,107,-136,-12,148,-209,-29,-34,-19,14,4
82,190,107,-136,-12,148,-214,-24,-34,-19,19,9
87,209,122,-148,-17,165,-214,-24,-43,-24,24,19
92,209,117,-151,-12,163,-219,-24,-43,-24,24,19
102,214,112,-158,-4,163,-224,-24,-43,-19,29,24
107,224,117,-165,-4,170,-229,-24,-43,-19,34,29
112,214,102,-163,4,158,-244,-24,-39,-9,24,24
122,224,102,-173,9,163,-244,-14,-34,0,29,29
136,224,87,-180,24,156,-248,-14,-34,0,34,34
141,229,87,-185,26,158,-253,-14,-34,0,39,34
141,229,87,-185,26,158,-248,-9,-29,0,48,53
146,239,92,-192,26,165,-248,-9,-29,4,58,58
146,239,92,-192,26,165,-253,-9,-29,9,63,63
156,244,87,-200,34,165,-258,-9,-29,9,78,73
161,253,92,-207,34,173,-268,0,-29,19,73,63
165,258,92,-212,36,175,-268,0,-24,24,78,68
175,263,87,-219,43,175,-273,0,-19,29,73,73
175,263,87,-219,43,175,-273,0,-19,29,68,82
170,273,102,-222,34,187,-273,9,-14,39,87,97
185,278,92,-231,46,185,-273,9,-14,39,92,102
185,278,92,-231,46,185,-283,14,-19,39,92,102
190,283,92,-236,48,187,-287,14,-19,39,97,107
195,287,92,-241,51,190,-287,9,-4,43,92,102
195,287,92,-241,51,190,-287,9,-4,48,92,102
200,292,92,-246,53,192,-287,14,-4,53,97,112
200,297,97,-248,51,197,-287,14,-4,58,97,112
204,302,97,-253,53,200,-287,14,-14,48,107,126
204,302,97,-253,53,200,-287,19,-4,48,112,126
204,302,97,-253,53,200,-287,19,-4,48,112,126
209,312,102,-261,53,207,-292,19,-4,43,117,126
209,317,107,-263,51,212,-292,19,0,43,112,117
214,317,102,-265,56,209,-292,19,0,48,112,117
219,322,102,-270,58,212,-292,19,0,53,122,126
219,322,102,-270,58,212,-292,14,0,53,112,126
229,312,82,-270,73,197,-292,14,-9,53,112,136
229,317,87,-273,70,202,-287,14,-9,58,117,141
224,317,92,-270,65,204,-287,14,-4,58,117,141
224,317,92,-270,65,204,-287,14,-4,53,112,136
219,317,97,-268,61,207,-287,19,4,63,122,126
224,312,87,-268,68,200,-287,19,4,68,122,126
224,312,87,-268,68,200,-283,24,4,68,122,126
224,307,82,-265,70,195,-278,24,4,68,122,126
224,302,78,-263,73,190,-268,24,14,58,122,131
229,302,73,-265,78,187,-258,34,19,58,122,131
234,302,68,-268,82,185,-253,39,19,58,117,131
234,302,68,-268,82,185,-253,39,19,48,107,117
224,302,78,-263,73,190,-248,48,19,58,117,117
219,292,73,-256,73,183,-239,48,14,58,112,112
209,283,73,-246,68,178,-229,48,14,53,107,102
204,278,73,-241,65,175,-219,58,19,53,107,97
200,273,73,-236,63,173,-219,48,19,48,97,97
195,268,73,-231,61,170,-204,48,24,48,97,87
195,268,73,-231,61,170,-195,58,24,48,97,82
180,248,68,-214,56,158,-185,63,24,48,87,73
170,253,82,-212,43,168,-180,63,24,48,92,73
165,244,78,-204,43,161,-170,63,24,43,87,68
161,239,78,-200,41,158,-165,63,29,43,82,63
151,229,78,-190,36,153,-151,68,29,43,82,58
136,214,78,-175,29,146,-146,68,39,34,78,58
126,204,78,-165,24,141,-136,68,34,29,68,48
122,200,78,-161,21,139,-126,73,34,29,68,48
112,190,78,-151,17,134,-117,73,34,29,68,39
112,180,68,-146,21,124,-107,68,34,34,53,34
107,175,68,-141,19,122,-102,68,34,29,53,34
92,165,73,-129,9,119,-97,68,34,24,48,24
87,165,78,-126,4,122,-92,68,29,19,43,9
87,156,68,-122,9,112,-97,53,19,24,34,9
73,136,63,-104,4,100,-92,53,14,9,19,-4
68,131,63,-100,2,97,-82,48,14,0,19,-9
63,126,63,-95,0,95,-78,43,14,-9,19,-14
48,112,63,-80,-7,87,-78,48,9,-9,9,-14
48,112,63,-80,-7,87,-73,43,4,-14,9,-19
48,112,63,-80,-7,87,-73,34,4,-14,4,-29
43,97,53,-70,-4,75,-73,29,0,-9,4,-34
39,97,58,-68,-9,78,-58,19,-4,-9,4,-34
34,87,53,-61,-9,70,-58,9,-9,-19,-4,-39
34,87,53,-61,-9,70,-53,4,-14,-24,-9,-43
34,87,53,-61,-9,70,-43,4,-14,-24,-9,-43
24,82,58,-53,-17,70,-53,-4,-19,-19,-19,-48
14,78,63,-46,-24,70,-53,-4,-24,-24,-19,-53
14,78,63,-46,-24,70,-53,-9,-24,-29,-19,-53
9,73,63,-41,-26,68,-53,-14,-29,-34,-24,-58
4,58,53,-31,-24,56,-43,-19,-24,-48,-19,-63
4,58,53,-31,-24,56,-43,-24,-29,-48,-24,-63
4,58,53,-31,-24,56,-43,-29,-29,-53,-29,-63
4,58,53,-31,-24,56,-39,-34,-29,-53,-29,-63
-9,48,58,-19,-34,53,-39,-39,-39,-48,-29,-68
-9,43,53,-17,-31,48,-43,-43,-48,-58,-34,-73
-9,43,53,-17,-31,48,-43,-48,-48,-58,-39,-73
-9,43,53,-17,-31,48,-43,-48,-48,-58,-39,-78
-14,34,48,-9,-31,41,-43,-53,-48,-58,-34,-68
-14,39,53,-12,-34,46,-43,-53,-48,-58,-34,-68
-19,39,58,-9,-39,48,-43,-58,-53,-63,-39,-73
-19,34,53,-7,-36,43,-39,-58,-53,-63,-39,-73
-24,34,58,-4,-41,46,-39,-53,-48,-53,-39,-68
-29,34,63,-2,-46,48,-43,-53,-48,-53,-39,-68
-29,34,63,-2,-46,48,-43,-58,-48,-53,-34,-68
-29,34,63,-2,-46,48,-43,-63,-48,-53,-34,-68
-19,34,53,-7,-36,43,-43,-63,-39,-48,-34,-58
-19,34,53,-7,-36,43,-43,-63,-39,-48,-34,-58
-19,34,53,-7,-36,43,-43,-63,-43,-53,-34,-63
-19,39,58,-9,-39,48,-43,-63,-43,-53,-39,-63
-19,39,58,-9,-39,48,-43,-58,-48,-48,-39,-58
-19,39,58,-9,-39,48,-43,-58,-48,-48,-39,-58
-19,39,58,-9,-39,48,-43,-58,-48,-48,-39,-58
-19,39,58,-9,-39,48,-43,-58,-48,-48,-39,-58
-9,39,48,-14,-29,43,-43,-48,-39,-48,-29,-48
-9,39,48,-14,-29,43,-43,-48,-39,-48,-29,-48
-9,39,48,-14,-29,43,-43,-43,-39,-48,-29,-48
-24,39,63,-7,-43,51,-43,-43,-39,-48,-29,-48
-4,48,53,-21,-29,51,-43,-39,-39,-34,-24,-43
0,48,48,-24,-24,48,-43,-39,-39,-34,-24,-43
0,48,48,-24,-24,48,-43,-39,-39,-29,-24,-43
0,48,48,-24,-24,48,-43,-34,-34,-29,-19,-39
0,48,48,-24,-24,48,-53,-34,-29,-29,-19,-29
4,48,43,-26,-19,46,-53,-29,-29,-29,-19,-29
4,48,43,-26,-19,46,-53,-29,-29,-29,-19,-29
0,48,48,-24,-24,48,-53,-29,-29,-29,-19,-29
0,43,43,-21,-21,43,-43,-19,-29,-19,-9,-29
0,43,43,-21,-21,43,-43,-9,-14,-9,-9,-29
0,43,43,-21,-21,43,-43,-9,-24,-19,-9,-29
0,43,43,-21,-21,43,-43,-14,-24,-19,-9,-24
14,43,29,-29,-7,36,-53,-14,-24,-19,-19,-19
14,43,29,-29,-7,36,-53,-14,-24,-19,-14,-19
14,43,29,-29,-7,36,-53,-9,-24,-14,-9,-19
14,43,29,-29,-7,36,-58,-9,-24,-14,-9,-24
14,43,29,-29,-7,36,-48,-9,-24,-4,-4,-14
14,43,29,-29,-7,36,-43,-9,-19,-4,0,-9
14,43,29,-29,-7,36,-43,-9,-19,-4,0,-9
14,43,29,-29,-7,36,-43,-9,-24,-4,0,-9
9,43,34,-26,-12,39,-58,-9,-29,-4,-9,-19
9,43,34,-26,-12,39,-58,-9,-29,-4,-9,-24
14,43,29,-29,-7,36,-58,-4,-24,-4,-4,-24
14,43,29,-29,-7,36,-58,-4,-24,-4,-4,-24
14,43,29,-29,-7,36,-58,-14,-24,-4,-4,-14
19,43,24,-31,-2,34,-58,-14,-24,-4,0,-9
19,43,24,-31,-2,34,-63,-14,-24,-4,0,-9
14,43,29,-29,-7,36,-63,-14,-24,-4,0,-14
14,34,19,-24,-2,26,-63,-4,-24,-14,0,-24
14,34,19,-24,-2,26,-63,-4,-29,-14,0,-24
14,34,19,-24,-2,26,-63,-4,-29,-14,0,-24
14,34,19,-24,-2,26,-63,-4,-29,-14,0,-24
9,19,9,-14,0,14,-63,-14,-29,-14,-9,-24
4,19,14,-12,-4,17,-63,-14,-29,-14,-9,-24
0,19,19,-9,-9,19,-63,-14,-29,-19,-9,-24
-4,14,19,-4,-12,17,-68,-19,-29,-24,-14,-24
-4,24,29,-9,-17,26,-68,-19,-39,-24,-4,-34
-4,19,24,-7,-14,21,-68,-24,-39,-19,-4,-34
-4,19,24,-7,-14,21,-63,-24,-39,-19,-9,-34
-4,19,24,-7,-14,21,-63,-24,-39,-19,-9,-34
-4,14,19,-4,-12,17,-68,-24,-34,-14,-4,-29
-4,14,19,-4,-12,17,-68,-24,-34,-14,-4,-29
-4,19,24,-7,-14,21,-68,-24,-29,-9,0,-29
-4,19,24,-7,-14,21,-68,-24,-29,-9,0,-29
-14,19,34,-2,-24,26,-68,-24,-34,-19,-9,-34
-14,19,34,-2,-24,26,-63,-24,-34,-24,-9,-34
-19,19,39,0,-29,29,-63,-29,-34,-24,-9,-34
-19,19,39,0,-29,29,-63,-29,-34,-24,-9,-34
-14,14,29,0,-21,21,-68,-39,-43,-29,-14,-34
-14,14,29,0,-21,21,-68,-39,-43,-29,-14,-34
-14,19,34,-2,-24,26,-68,-39,-43,-24,-9,-34
-14,19,34,-2,-24,26,-68,-39,-48,-24,-9,-34
-14,19,34,-2,-24,26,-68,-29,-39,-24,-4,-39
-14,19,34,-2,-24,26,-68,-29,-34,-24,-4,-39
-14,19,34,-2,-24,26,-68,-34,-34,-24,0,-39
-14,19,34,-2,-24,26,-68,-34,-34,-24,0,-39
-4,29,34,-12,-19,31,-68,-34,-34,-14,-9,-29
-4,29,34,-12,-19,31,-68,-29,-34,-14,-9,-29
-4,29,34,-12,-19,31,-68,-29,-29,-9,-9,-29
0,29,29,-14,-14,29,-63,-29,-29,-9,-9,-29
-4,39,43,-17,-24,41,-53,-19,-19,-9,9,-19
-4,34,39,-14,-21,36,-58,-19,-24,-19,0,-19
4,39,34,-21,-14,36,-48,-19,-19,-9,9,-19
-4,43,48,-19,-26,46,-34,-9,-4,9,19,-9
0,39,39,-19,-19,39,-29,-9,-9,9,9,-9
14,48,34,-31,-9,41,-19,-4,-4,14,24,-4
19,58,39,-39,-9,48,-19,0,0,19,29,0
24,68,43,-46,-9,56,-19,4,4,24,34,4
29,78,48,-53,-9,63,-19,9,9,29,39,9
19,82,63,-51,-21,73,-4,19,24,34,39,9
19,82,63,-51,-21,73,-4,19,24,34,34,9
19,78,58,-48,-19,68,-14,19,14,24,29,0
19,78,58,-48,-19,68,-19,14,14,19,24,0
19,68,48,-43,-14,58,-24,9,-4,9,24,0
19,63,43,-41,-12,53,-39,-4,-14,0,14,0
29,58,29,-43,0,43,-48,-14,-14,0,14,0
34,53,19,-43,7,36,-63,-14,-14,-4,14,-4
48,63,14,-56,17,39,-82,-24,-14,0,24,-4
48,63,14,-56,17,39,-87,-24,-14,0,24,-4
48,63,14,-56,17,39,-92,-29,-19,0,19,-4
48,58,9,-53,19,34,-102,-39,-24,-4,14,-9
53,58,4,-56,24,31,-112,-48,-29,-9,4,-9
48,53,4,-51,21,29,-112,-53,-39,-14,4,-14
48,48,0,-48,24,24,-112,-58,-43,-14,4,-19
39,43,4,-41,17,24,-112,-58,-48,-14,0,-19
29,43,14,-36,7,29,-107,-53,-39,-24,0,-19
29,43,14,-36,7,29,-92,-48,-39,-19,0,-14
29,43,14,-36,7,29,-87,-48,-39,-19,0,-14
29,43,14,-36,7,29,-87,-58,-43,-24,0,-14
29,43,14,-36,7,29,-92,-58,-43,-19,-9,-14
24,43,19,-34,2,31,-92,-63,-53,-24,-19,-24
19,43,24,-31,-2,34,-92,-63,-53,-24,-19,-24
14,43,29,-29,-7,36,-92,-63,-48,-19,-14,-19
24,43,19,-34,2,31,-102,-53,-48,-19,-9,-19
19,43,24,-31,-2,34,-97,-53,-48,-14,-9,-19
19,43,24,-31,-2,34,-92,-48,-43,-14,-9,-14
14,39,24,-26,-4,31,-92,-48,-43,-14,-9,-14
14,48,34,-31,-9,41,-92,-58,-43,-4,0,-4
9,43,34,-26,-12,39,-87,-58,-43,-4,0,-4
9,34,24,-21,-7,29,-87,-53,-48,-14,-4,-19
-4,29,34,-12,-19,31,-82,-53,-48,-14,-9,-19
-24,24,48,0,-36,36,-82,-63,-48,-24,-19,-29
-29,19,48,4,-39,34,-82,-68,-48,-29,-19,-29
-29,19,48,4,-39,34,-82,-68,-48,-29,-19,-29
-34,14,48,9,-41,31,-82,-73,-58,-39,-19,-29
-53,4,58,24,-56,31,-87,-82,-63,-39,-34,-34
-53,4,58,24,-56,31,-87,-82,-63,-39,-34,-34
-53,4,58,24,-56,31,-87,-87,-63,-43,-39,-43
-53,4,58,24,-56,31,-87,-87,-63,-43,-39,-43
-43,4,48,19,-46,26,-82,-82,-63,-48,-39,-34
-43,0,43,21,-43,21,-82,-82,-63,-48,-39,-43
-43,0,43,21,-43,21,-78,-82,-63,-48,-39,-43
-43,0,43,21,-43,21,-78,-82,-63,-48,-39,-43
-43,9,53,17,-48,31,-82,-82,-73,-53,-39,-53
-43,9,53,17,-48,31,-82,-78,-73,-53,-39,-48
-48,9,58,19,-53,34,-82,-78,-68,-53,-39,-48
-48,9,58,19,-53,34,-82,-78,-68,-53,-39,-48
-58,0,58,29,-58,29,-68,-68,-63,-39,-34,-39
-58,0,58,29,-58,29,-68,-68,-58,-39,-34,-39
-58,0,58,29,-58,29,-63,-68,-53,-39,-34,-39
-58,0,58,29,-58,29,-63,-68,-48,-39,-34,-39
-48,9,58,19,-53,34,-78,-78,-53,-48,-34,-53
-48,9,58,19,-53,34,-78,-78,-58,-48,-34,-53
-48,9,58,19,-53,34,-78,-78,-63,-48,-39,-48
-53,4,58,24,-56,31,-78,-78,-68,-48,-39,-48
-63,4,68,29,-65,36,-63,-68,-63,-39,-29,-39
-63,9,73,26,-68,41,-63,-68,-58,-39,-29,-39
-63,9,73,26,-68,41,-63,-68,-53,-39,-29,-39
-63,9,73,26,-68,41,-63,-68,-48,-39,-24,-39
-53,19,73,17,-63,46,-73,-78,-58,-48,-24,-48
-53,14,68,19,-61,41,-73,-78,-58,-48,-24,-48
-53,14,68,19,-61,41,-73,-78,-58,-48,-24,-48
-53,14,68,19,-61,41,-73,-78,-58,-48,-24,-48
-63,14,78,24,-70,46,-63,-68,-48,-39,-24,-39
-63,14,78,24,-70,46,-63,-68,-48,-39,-24,-39
-63,14,78,24,-70,46,-63,-68,-48,-39,-24,-39
-63,14,78,24,-70,46,-63,-68,-48,-39,-24,-39
-63,14,78,24,-70,46,-63,-78,-58,-48,-24,-39
-63,14,78,24,-70,46,-63,-78,-58,-48,-24,-39
-63,19,82,21,-73,51,-63,-78,-58,-48,-24,-39
-63,19,82,21,-73,51,-63,-73,-58,-48,-24,-39
-48,19,68,14,-58,43,-63,-73,-48,-29,-14,-29
-68,0,68,34,-68,34,-58,-63,-39,-29,-24,-29
-78,9,87,34,-82,48,-48,-53,-29,-19,-14,-29
-68,19,87,24,-78,53,-48,-53,-34,-24,-24,-39
-58,19,78,19,-68,48,-43,-58,-43,-39,-24,-43
-78,43,122,17,-100,82,-24,-48,-14,-19,4,-24
-107,53,161,26,-134,107,-19,-39,4,4,9,-14
-107,53,161,26,-134,107,0,-19,24,24,14,-14
-97,43,141,26,-119,92,39,53,73,78,43,4
-87,34,122,26,-104,78,63,141,126,126,73,29
-43,29,73,7,-58,51,63,248,175,195,122,73
34,14,-19,-24,26,-2,87,409,263,273,185,112
117,4,-112,-61,114,-53,117,619,370,385,258,156
224,19,-204,-122,214,-92,146,858,522,556,380,263
356,73,-283,-214,319,-104,156,1093,688,736,522,390
468,122,-346,-295,407,-112,156,1278,810,883,639,492
580,190,-390,-385,485,-100,175,1449,897,990,732,580
673,239,-434,-456,553,-97,175,1512,897,980,741,619
722,263,-458,-492,590,-97,141,1400,741,810,624,551
722,297,-424,-509,573,-63,82,1151,522,575,483,463
727,385,-341,-556,534,21,-19,795,302,346,370,400
707,366,-341,-536,524,12,-92,478,78,107,200,268
668,131,-536,-400,602,-202,-102,263,-200,-209,-102,-9
575,-92,-668,-241,622,-380,-146,-39,-468,-527,-405,-283
468,-126,-595,-170,531,-361,-229,-448,-629,-663,-507,-356
326,-82,-409,-122,368,-246,-248,-717,-668,-678,-507,-346
156,-73,-229,-41,192,-151,-214,-800,-644,-673,-502,-356
19,-82,-102,31,61,-92,-146,-775,-595,-639,-492,-366
-92,-117,-24,104,-34,-70,-58,-702,-546,-614,-488,-395
-165,-151,14,158,-90,-68,0,-629,-502,-570,-478,-405
-185,-151,34,168,-109,-58,14,-541,-444,-517,-439,-385
-200,-180,19,190,-109,-80,29,-473,-400,-483,-429,-375
-244,-204,39,224,-141,-82,87,-370,-356,-448,-424,-390
-297,-234,63,265,-180,-85,204,-219,-273,-390,-400,-385
-341,-273,68,307,-204,-102,292,-107,-224,-361,-395,-395
-361,-273,87,317,-224,-92,336,-29,-165,-322,-370,-385
-361,-253,107,307,-234,-73,400,53,-92,-258,-317,-336
-356,-234,122,295,-239,-56,434,117,-53,-224,-283,-312
-336,-209,126,273,-231,-41,458,165,-14,-175,-239,-292
-346,-180,165,263,-256,-7,488,200,24,-146,-214,-263
-366,-156,209,261,-287,26,517,209,34,-136,-209,-248
-361,-126,234,244,-297,53,566,224,58,-97,-170,-219
-361,-102,258,231,-309,78,624,258,87,-68,-151,-190
-366,-92,273,229,-319,90,653,268,102,-68,-141,-180
-370,-68,302,219,-336,117,688,258,112,-43,-122,-161
-380,-68,312,224,-346,122,707,234,102,-53,-112,-161
-395,-87,307,241,-351,109,717,185,63,-78,-122,-170
-405,-102,302,253,-353,100,732,141,34,-87,-126,-180
-419,-131,287,275,-353,78,756,97,9,-112,-156,-195
-429,-122,307,275,-368,92,805,68,4,-122,-161,-195
-453,-117,336,285,-395,109,854,29,0,-117,-161,-185
-478,-126,351,302,-414,112,819,-34,-14,-126,-165,-185
-468,-122,346,295,-407,112,756,-97,-14,-126,-156,-170
-458,-112,346,285,-402,117,727,-122,-14,-117,-141,-165
-448,-102,346,275,-397,122,697,-136,-24,-117,-141,-170
-434,-97,336,265,-385,119,658,-136,-29,-102,-122,-146
-434,-102,331,268,-383,114,585,-141,-39,-112,-122,-151
-405,-92,312,248,-358,109,512,-146,-53,-117,-122,-146
-326,-68,258,197,-292,95,444,-136,-53,-107,-112,-136
-287,-58,229,173,-258,85,370,-146,-63,-97,-112,-122
-283,-53,229,168,-256,87,317,-131,-58,-78,-92,-97
-263,-58,204,161,-234,73,273,-117,-48,-73,-78,-87
-239,-58,180,148,-209,61,224,-112,-48,-68,-68,-82
-224,-39,185,131,-204,73,190,-107,-48,-53,-53,-68
-195,-29,165,112,-180,68,156,-97,-53,-53,-48,-58
-170,-29,141,100,-156,56,112,-102,-63,-68,-63,-68
-180,-19,161,100,-170,70,107,-82,-48,-39,-34,-48
-170,-4,165,87,-168,80,92,-63,-39,-24,-34,-39
-117,-19,97,68,-107,39,48,-73,-53,-43,-53,-53
-97,-14,82,56,-90,34,39,-68,-48,-39,-43,-43
-112,-14,97,63,-104,41,29,-53,-34,-24,-34,-24
-107,-4,102,56,-104,48,24,-43,-24,-9,-14,-14
-92,9,102,41,-97,56,9,-43,-24,0,0,-14
-78,29,107,24,-92,68,-9,-39,-24,-4,-9,-4
-68,29,97,19,-82,63,-14,-39,-24,-4,-9,-4
-63,24,87,19,-75,56,-29,-34,-24,-4,-9,0
-58,24,82,17,-70,53,-34,-24,-24,-4,-9,0
-58,24,82,17,-70,53,-34,-34,-24,-4,-9,-9
-58,24,82,17,-70,53,-34,-34,-24,0,-9,-9
-63,29,92,17,-78,61,-34,-29,-24,0,-9,0
-63,29,92,17,-78,61,-43,-29,-24,0,-9,0
-63,24,87,19,-75,56,-48,-29,-24,0,-4,4
-63,24,87,19,-75,56,-53,-29,-24,0,0,4
-63,24,87,19,-75,56,-53,-34,-24,0,9,4
-58,34,92,12,-75,63,-58,-34,-19,0,14,4
-58,24,82,17,-70,53,-58,-43,-29,0,9,4
-58,19,78,19,-68,48,-58,-43,-29,0,4,4
-58,19,78,19,-68,48,-58,-43,-29,4,0,4
-63,19,82,21,-73,51,-58,-43,-29,4,-4,4
-63,19,82,21,-73,51,-68,-43,-19,4,4,4
-63,24,87,19,-75,56,-68,-43,-19,4,9,9
-58,24,82,17,-70,53,-73,-43,-19,0,9,9
-58,29,87,14,-73,58,-73,-43,-19,0,14,14
-43,29,73,7,-58,51,-73,-43,-24,0,14,14
-43,29,73,7,-58,51,-73,-43,-24,0,14,14
-39,29,68,4,-53,48,-73,-43,-24,0,14,14
-39,29,68,4,-53,48,-73,-43,-24,4,19,14
-48,19,68,14,-58,43,-73,-34,-24,4,19,14
-48,24,73,12,-61,48,-73,-34,-24,4,24,19
-48,24,73,12,-61,48,-82,-39,-24,4,24,19
-48,29,78,9,-63,53,-82,-39,-24,4,24,19
-53,29,82,12,-68,56,-92,-39,-14,14,24,39
-53,29,82,12,-68,56,-92,-39,-14,14,24,29
-53,29,82,12,-68,56,-92,-39,-14,14,29,29
-53,29,82,12,-68,56,-92,-34,-14,24,34,34
-48,29,78,9,-63,53,-97,-43,-24,14,34,24
-43,34,78,4,-61,56,-102,-43,-24,14,39,34
-34,34,68,0,-51,51,-102,-43,-24,14,39,34
-29,34,63,-2,-46,48,-107,-43,-24,14,39,34
-39,39,78,0,-58,58,-97,-34,-9,24,43,43
-39,39,78,0,-58,58,-97,-34,-9,24,43,43
-34,39,73,-2,-53,56,-97,-34,-9,19,43,48
-29,43,73,-7,-51,58,-97,-34,-9,19,53,53
-34,43,78,-4,-56,61,-112,-29,-19,24,43,43
-29,43,73,-7,-51,58,-112,-29,-19,29,48,48
-24,48,73,-12,-48,61,-112,-24,-14,34,48,53
-24,48,73,-12,-48,61,-122,-24,-14,34,53,53
-14,63,78,-24,-46,70,-112,-24,-4,39,63,63
-4,68,73,-31,-39,70,-117,-24,-4,39,63,68
-4,78,82,-36,-43,80,-122,-24,-4,39,63,73
0,82,82,-41,-41,82,-122,-24,0,43,68,73
-9,82,92,-36,-51,87,-122,-29,-9,39,73,68
-9,78,87,-34,-48,82,-126,-29,-9,39,73,73
0,78,78,-39,-39,78,-126,-29,-4,39,73,78
4,73,68,-39,-31,70,-131,-29,-4,39,73,78
9,92,82,-51,-36,87,-136,-19,-4,53,78,92
19,97,78,-58,-29,87,-136,-19,4,58,87,97
29,102,73,-65,-21,87,-141,-19,4,58,92,102
34,102,68,-68,-17,85,-146,-14,4,58,97,107
34,112,78,-73,-21,95,-146,-14,4,63,102,107
34,112,78,-73,-21,95,-151,-14,4,63,102,107
39,117,78,-78,-19,97,-156,-14,4,68,107,112
39,126,87,-82,-24,107,-161,-14,4,68,112,117
43,126,82,-85,-19,104,-165,-14,9,78,122,131
53,136,82,-95,-14,109,-165,-4,14,87,126,136
68,136,68,-102,0,102,-170,-4,14,87,131,141
73,141,68,-107,2,104,-175,-4,14,87,136,141
73,141,68,-107,2,104,-180,-9,19,87,136,141
78,151,73,-114,2,112,-180,-9,19,92,136,146
78,151,73,-114,2,112,-185,-9,19,97,131,151
87,156,68,-122,9,112,-190,-9,19,97,136,161
102,175,73,-139,14,124,-200,0,19,107,141,170
107,180,73,-143,17,126,-200,0,24,112,156,175
117,185,68,-151,24,126,-204,0,29,117,161,180
117,185,68,-151,24,126,-204,0,29,117,165,190
117,195,78,-156,19,136,-204,0,34,117,170,185
126,200,73,-163,26,136,-204,0,34,117,170,190
122,200,78,-161,21,139,-214,4,29,117,165,190
122,204,82,-163,19,143,-219,4,29,117,165,195
117,200,82,-158,17,141,-209,9,34,131,175,209
117,200,82,-158,17,141,-209,9,34,136,180,209
122,204,82,-163,19,143,-209,14,34,141,190,219
122,209,87,-165,17,148,-209,14,34,146,195,219
131,214,82,-173,24,148,-209,14,43,146,185,214
136,214,78,-175,29,146,-209,19,53,146,190,214
141,214,73,-178,34,143,-209,19,53,146,190,214
151,224,73,-187,39,148,-214,19,53,141,195,214
151,229,78,-190,36,153,-224,9,48,131,200,214
156,229,73,-192,41,151,-224,9,48,136,200,214
161,234,73,-197,43,153,-224,9,48,141,209,224
161,234,73,-197,43,153,-224,4,48,141,200,224
151,234,82,-192,34,158,-214,14,58,151,209,224
151,239,87,-195,31,163,-209,14,58,156,214,229
146,239,92,-192,26,165,-209,14,63,156,214,229
146,239,92,-192,26,165,-209,14,63,151,209,224
151,229,78,-190,36,153,-209,9,53,141,200,224
156,224,68,-190,43,146,-209,9,53,146,200,224
156,224,68,-190,43,146,-204,14,53,146,200,224
156,219,63,-187,46,141,-200,14,53,146,200,224
151,219,68,-185,41,143,-190,14,53,146,200,219
151,214,63,-183,43,139,-180,24,58,146,200,219
151,209,58,-180,46,134,-175,29,58,146,195,219
146,204,58,-175,43,131,-175,29,58,136,185,204
131,195,63,-163,34,129,-170,39,58,136,185,204
131,185,53,-158,39,119,-161,39,53,136,180,200
126,175,48,-151,39,112,-151,39,53,131,175,190
126,170,43,-148,41,107,-141,48,58,131,175,185
122,165,43,-143,39,104,-141,48,58,126,165,185
117,161,43,-139,36,102,-126,48,63,126,165,175
117,161,43,-139,36,102,-117,58,63,126,165,170
102,141,39,-122,31,90,-107,63,63,126,156,161
92,136,43,-114,24,90,-102,73,63,117,151,151
87,126,39,-107,24,82,-92,73,63,112,146,146
82,122,39,-102,21,80,-87,73,68,112,141,141
73,112,39,-92,17,75,-73,78,68,112,141,136
68,107,39,-87,14,73,-78,78,68,102,126,126
58,97,39,-78,9,68,-68,78,63,97,117,117
53,92,39,-73,7,65,-58,82,63,97,117,117
43,82,39,-63,2,61,-48,82,63,97,117,107
34,73,39,-53,-2,56,-29,78,63,92,112,102
29,68,39,-48,-4,53,-24,78,63,87,112,102
14,58,43,-36,-14,51,-19,78,63,82,107,92
9,58,48,-34,-19,53,-14,78,58,78,102,78
9,43,34,-26,-12,39,-9,63,58,82,102,87
-4,29,34,-12,-19,31,-4,63,53,68,87,73
-9,29,39,-9,-24,34,4,58,53,58,87,68
-14,29,43,-7,-29,36,9,53,53,48,87,63
-29,14,43,7,-36,29,0,48,48,48,82,63
-29,14,43,7,-36,29,4,43,43,43,78,58
-29,14,43,7,-36,29,4,34,43,43,68,48
-34,0,34,17,-34,17,4,29,39,48,63,43
-48,-9,39,29,-43,14,9,29,34,39,63,43
-53,-19,34,36,-43,7,9,19,29,29,53,39
-53,-19,34,36,-43,7,14,14,24,24,48,34
-53,-19,34,36,-43,7,24,14,24,24,48,34
-53,-24,29,39,-41,2,14,4,9,29,29,19
-63,-29,34,46,-48,2,14,4,4,24,29,14
-63,-29,34,46,-48,2,14,0,4,19,29,14
-68,-34,34,51,-51,0,14,-4,0,14,24,9
-73,-39,34,56,-53,-2,14,-9,-4,9,29,14
-73,-39,34,56,-53,-2,14,-14,-9,9,24,14
-73,-39,34,56,-53,-2,14,-19,-9,4,19,14
-73,-39,34,56,-53,-2,19,-24,-9,4,19,14
-78,-39,39,58,-58,0,19,-29,-9,0,19,0
-78,-43,34,61,-56,-4,14,-34,-19,-9,14,-4
-78,-43,34,61,-56,-4,14,-39,-19,-9,9,-4
-78,-43,34,61,-56,-4,14,-39,-19,-9,9,-9
-82,-53,29,68,-56,-12,14,-43,-9,0,14,0
-82,-48,34,65,-58,-7,14,-43,-9,0,14,0
-87,-48,39,68,-63,-4,14,-48,-14,-4,9,-4
-87,-53,34,70,-61,-9,19,-48,-14,-4,9,-4
-82,-43,39,63,-61,-2,9,-43,-19,-14,0,0
-87,-43,43,65,-65,0,4,-43,-19,-14,0,0
-87,-43,43,65,-65,0,4,-48,-19,-14,4,0
-87,-43,43,65,-65,0,4,-53,-19,-14,4,0
-87,-43,43,65,-65,0,14,-43,-9,-9,14,0
-87,-43,43,65,-65,0,14,-43,-9,-9,14,0
-87,-43,43,65,-65,0,14,-43,-14,-14,14,-4
-87,-39,48,63,-68,4,14,-43,-14,-14,9,-4
-87,-39,48,63,-68,4,14,-48,-9,-9,9,0
-87,-39,48,63,-68,4,14,-48,-9,-9,9,0
-87,-39,48,63,-68,4,14,-48,-9,-9,9,0
-87,-39,48,63,-68,4,14,-48,-9,-9,9,0
-97,-39,58,68,-78,9,24,-39,-9,0,19,9
-97,-39,58,68,-78,9,24,-39,-9,0,19,9
-97,-39,58,68,-78,9,24,-34,-9,0,19,9
-112,-39,73,75,-92,17,24,-34,-9,0,19,9
-92,-39,53,65,-73,7,14,-39,0,4,14,4
-87,-39,48,63,-68,4,14,-39,0,4,14,4
-87,-39,48,63,-68,4,14,-39,0,9,14,4
-87,-39,48,63,-68,4,14,-34,4,9,19,9
-78,-39,39,58,-58,0,24,-24,0,9,29,19
-73,-39,34,56,-53,-2,24,-19,0,9,29,19
-73,-39,34,56,-53,-2,24,-19,0,9,29,19
-78,-39,39,58,-58,0,24,-19,0,9,29,19
-87,-43,43,65,-65,0,14,-19,0,19,29,19
-87,-43,43,65,-65,0,14,-9,14,29,29,19
-87,-43,43,65,-65,0,14,-9,4,19,29,19
-87,-43,43,65,-65,0,14,-14,4,19,29,24
-78,-34,43,56,-61,4,14,-14,14,19,29,19
-73,-34,39,53,-56,2,14,-14,14,19,34,19
-68,-34,34,51,-51,0,14,-9,14,24,39,19
-63,-34,29,48,-46,-2,9,-9,14,24,39,14
-73,-43,29,58,-51,-7,9,-9,14,24,48,24
-73,-43,29,58,-51,-7,14,-9,19,24,48,29
-73,-43,29,58,-51,-7,14,-9,19,24,43,29
-73,-43,29,58,-51,-7,14,-9,14,24,39,29
-78,-34,43,56,-61,4,9,-9,0,24,39,19
-78,-34,43,56,-61,4,9,-9,0,24,39,14
-73,-34,39,53,-56,2,9,-4,4,24,43,14
-73,-34,39,53,-56,2,9,-4,4,24,43,14
-63,-34,29,48,-46,-2,9,-14,4,24,34,24
-58,-34,24,46,-41,-4,9,-14,4,24,39,29
-58,-34,24,46,-41,-4,4,-14,4,24,39,29
-63,-34,29,48,-46,-2,4,-14,4,24,39,24
-63,-34,29,48,-46,-2,4,-14,4,14,29,14
-63,-34,29,48,-46,-2,4,-14,0,14,29,14
-63,-34,29,48,-46,-2,4,-14,0,14,29,14
-63,-34,29,48,-46,-2,4,-14,0,14,29,14
-73,-29,43,51,-58,7,4,-14,0,14,29,14
-73,-29,43,51,-58,7,4,-14,0,14,29,14
-73,-29,43,51,-58,7,4,-14,0,9,29,14
-73,-34,39,53,-56,2,0,-19,0,4,24,14
-73,-34,39,53,-56,2,-9,-19,-9,4,34,4
-73,-39,34,56,-53,-2,-9,-24,-9,9,34,4
-73,-39,34,56,-53,-2,-4,-24,-9,9,29,4
-73,-39,34,56,-53,-2,-4,-24,-9,9,29,4
-73,-34,39,53,-56,2,-9,-24,-14,4,24,9
-73,-34,39,53,-56,2,-9,-24,-14,4,24,9
-73,-29,43,51,-58,7,-9,-24,-9,9,29,9
-73,-29,43,51,-58,7,-9,-24,-9,9,29,9
-73,-29,43,51,-58,7,-9,-34,-14,0,19,4
-73,-29,43,51,-58,7,-4,-34,-14,-4,19,4
-78,-29,48,53,-63,9,-4,-39,-14,-4,19,4
-78,-29,48,53,-63,9,-4,-39,-14,-4,19,4
-82,-34,48,58,-65,7,-9,-39,-14,0,14,-4
-82,-34,48,58,-65,7,-9,-39,-14,0,14,-4
-82,-29,53,56,-68,12,-9,-39,-14,4,19,-4
-82,-29,53,56,-68,12,-9,-39,-19,4,19,-4
-82,-29,53,56,-68,12,-9,-39,-29,-4,14,0
-82,-29,53,56,-68,12,-9,-39,-24,-4,14,0
-82,-29,53,56,-68,12,-9,-43,-24,-4,19,0
-82,-29,53,56,-68,12,-9,-43,-24,-4,19,0
-82,-39,43,61,-63,2,-19,-43,-24,-14,19,0
-82,-39,43,61,-63,2,-19,-39,-24,-14,19,0
-82,-39,43,61,-63,2,-19,-39,-19,-9,19,0
-78,-39,39,58,-58,0,-14,-39,-19,-9,19,0
-82,-29,53,56,-68,12,-24,-48,-24,-19,9,-9
-82,-24,58,53,-70,17,-19,-48,-24,-19,19,-9
-82,-19,63,51,-73,21,-19,-48,-24,-19,19,0
-82,-14,68,48,-75,26,-14,-48,-24,-9,19,0
-78,-19,58,48,-68,19,-14,-48,-24,-4,14,-9
-78,-19,58,48,-68,19,-14,-48,-24,-4,14,-9
-78,-14,63,46,-70,24,-14,-48,-24,-4,14,-9
-78,-14,63,46,-70,24,-4,-29,-19,-4,19,9
-78,-9,68,43,-73,29,-4,-39,-9,-4,29,0
-78,-4,73,41,-75,34,-9,-39,-14,-4,29,0
-68,0,68,34,-68,34,-9,-39,-14,0,29,0
-63,9,73,26,-68,41,0,-29,-9,9,29,0
-58,24,82,17,-70,53,9,-19,0,9,34,14
-58,24,82,17,-70,53,19,-19,9,19,39,14
-48,24,73,12,-61,48,19,0,19,24,48,24
-48,24,73,12,-61,48,19,-4,14,24,39,24
-39,29,68,4,-53,48,19,0,19,29,39,29
-39,29,68,4,-53,48,29,9,29,29,48,29
-39,29,68,4,-53,48,29,9,29,29,48,29
-39,29,68,4,-53,48,29,9,29,29,48,29
-39,29,68,4,-53,48,29,9,29,29,48,29
-39,34,73,2,-56,53,34,19,34,43,48,39
-39,34,73,2,-56,53,34,19,34,43,43,39
-39,29,68,4,-53,48,24,19,24,34,39,29
-39,29,68,4,-53,48,19,14,24,29,34,29
-39,14,53,12,-46,34,0,4,4,19,34,19
-39,14,53,12,-46,34,-19,-14,-4,9,24,19
-29,14,43,7,-36,29,-34,-29,-4,9,24,19
-24,14,39,4,-31,26,-53,-34,-4,4,24,14
-19,14,34,2,-26,24,-58,-43,-24,0,24,24
-19,14,34,2,-26,24,-58,-43,-24,0,24,24
-19,14,34,2,-26,24,-58,-48,-29,0,19,24
-19,9,29,4,-24,19,-63,-58,-34,-4,14,19
-24,9,34,7,-29,21,-53,-48,-24,0,14,9
-29,4,34,12,-31,19,-53,-53,-29,-4,14,4
-29,0,29,14,-29,14,-53,-58,-29,-4,14,0
-39,-4,34,21,-36,14,-53,-58,-29,-4,9,0
-39,4,43,17,-41,24,-53,-53,-29,-4,19,9
-39,4,43,17,-41,24,-43,-48,-29,0,19,14
-39,4,43,17,-41,24,-43,-48,-29,0,19,14
-39,4,43,17,-41,24,-48,-58,-34,-4,19,14
-24,4,29,9,-26,17,-63,-58,-34,-9,19,14
-24,4,29,9,-26,17,-63,-63,-43,-14,9,4
-24,4,29,9,-26,17,-63,-63,-43,-14,9,4
-24,4,29,9,-26,17,-63,-63,-39,-9,14,9
-34,4,39,14,-36,21,-53,-63,-29,-9,19,9
-39,4,43,17,-41,24,-48,-63,-29,-4,19,9
-39,4,43,17,-41,24,-43,-58,-24,-4,19,14
-43,0,43,21,-43,21,-43,-58,-24,-4,19,14
-53,-9,43,31,-48,17,-53,-68,-29,-9,14,9
-58,-14,43,36,-51,14,-48,-68,-34,-14,9,4
-58,-24,34,41,-46,4,-48,-63,-43,-29,0,-14
-73,-29,43,51,-58,7,-43,-63,-48,-34,-9,-19
-87,-34,53,61,-70,9,-34,-63,-39,-24,-14,-24
-97,-39,58,68,-78,9,-34,-68,-39,-29,-9,-19
-102,-39,63,70,-82,12,-34,-68,-39,-29,-4,-14
-112,-43,68,78,-90,12,-34,-73,-48,-39,0,-9
-117,-43,73,80,-95,14,-48,-82,-53,-39,-14,-24
-112,-43,68,78,-90,12,-48,-82,-53,-39,-14,-24
-107,-43,63,75,-85,9,-48,-87,-53,-43,-19,-34
-102,-43,58,73,-80,7,-48,-87,-53,-43,-19,-34
-112,-43,68,78,-90,12,-34,-73,-53,-39,-9,-24
-112,-48,63,80,-87,7,-34,-73,-53,-39,-9,-34
-112,-48,63,80,-87,7,-29,-73,-53,-39,-9,-34
-112,-48,63,80,-87,7,-29,-73,-53,-39,-9,-34
-112,-48,63,80,-87,7,-43,-82,-53,-43,-19,-34
-112,-48,63,80,-87,7,-43,-78,-53,-43,-19,-29
-117,-48,68,82,-92,9,-43,-78,-48,-43,-19,-29
-117,-48,68,82,-92,9,-43,-78,-48,-43,-19,-29
-107,-48,58,78,-82,4,-29,-68,-48,-29,-4,-19
-107,-48,58,78,-82,4,-29,-68,-48,-29,-4,-19
-107,-48,58,78,-82,4,-24,-68,-48,-29,-4,-19
-107,-48,58,78,-82,4,-24,-68,-48,-29,-4,-19
-107,-48,58,78,-82,4,-39,-78,-48,-39,-4,-24
-107,-48,58,78,-82,4,-39,-78,-48,-39,-4,-24
-107,-48,58,78,-82,4,-39,-78,-48,-39,-9,-19
-112,-53,58,82,-85,2,-39,-78,-48,-39,-9,-19
-122,-53,68,87,-95,7,-24,-68,-39,-29,-9,-19
-122,-48,73,85,-97,12,-24,-68,-39,-29,-9,-19
-122,-48,73,85,-97,12,-24,-68,-39,-29,-9,-19
-122,-48,73,85,-97,12,-24,-68,-39,-29,-4,-19
-112,-48,63,80,-87,7,-34,-78,-48,-39,-14,-29
-112,-53,58,82,-85,2,-34,-78,-48,-39,-14,-29
-112,-53,58,82,-85,2,-34,-78,-48,-39,-14,-29
-112,-53,58,82,-85,2,-34,-78,-48,-39,-14,-29
-112,-53,58,82,-85,2,-34,-78,-48,-29,-14,-39
-112,-53,58,82,-85,2,-34,-78,-48,-29,-14,-39
-112,-53,58,82,-85,2,-34,-78,-48,-29,-14,-39
-112,-53,58,82,-85,2,-34,-78,-48,-29,-14,-39
-112,-53,58,82,-85,2,-24,-68,-48,-29,-14,-29
-112,-53,58,82,-85,2,-24,-68,-48,-29,-14,-29
-112,-48,63,80,-87,7,-24,-68,-48,-29,-14,-29
-112,-48,63,80,-87,7,-24,-63,-48,-29,-14,-29
-117,-48,68,82,-92,9,-34,-73,-58,-39,-24,-39
-117,-39,78,78,-97,19,-19,-63,-39,-29,-14,-29
-117,-48,68,82,-92,9,-9,-53,-39,-19,-4,-29
-126,-48,78,87,-102,14,-9,-53,-34,-24,-4,-39
-126,-29,97,78,-112,34,4,-48,-14,-19,4,-24
-136,-4,131,70,-134,63,14,-48,4,0,4,-14
-146,4,151,70,-148,78,39,-19,24,24,29,-4
-156,-4,151,80,-153,73,68,29,63,53,43,4
-156,-24,131,90,-143,53,78,92,92,87,63,14
-107,-14,92,61,-100,39,92,190,156,156,122,58
-53,-19,34,36,-43,7,122,346,234,253,190,112
4,-43,-48,19,26,-46,146,546,341,361,253,161
97,-34,-131,-31,114,-82,185,785,488,512,356,244
224,9,-214,-117,219,-102,204,1015,649,692,488,361
356,82,-273,-219,314,-95,204,1229,785,854,619,478
497,141,-356,-319,427,-107,224,1395,888,961,727,570
600,180,-419,-390,509,-119,214,1498,897,971,741,600
663,209,-453,-436,558,-122,185,1473,810,873,683,580
692,234,-458,-463,575,-112,161,1312,624,683,566,522
692,297,-395,-495,544,-48,73,1005,414,468,444,453
688,346,-341,-517,514,2,-19,668,204,248,312,370
668,190,-478,-429,573,-143,-43,439,-48,-48,43,131
610,-63,-673,-273,641,-368,-73,175,-346,-385,-287,-175
507,-141,-649,-183,578,-395,-146,-244,-556,-595,-444,-312
370,-117,-488,-126,429,-302,-219,-614,-649,-673,-488,-336
209,-102,-312,-53,261,-207,-209,-795,-658,-678,-488,-336
58,-82,-141,12,100,-112,-126,-790,-595,-624,-444,-317
-87,-92,-4,90,-41,-48,-29,-717,-527,-580,-424,-317
-209,-126,82,168,-146,-21,48,-644,-468,-546,-419,-336
-244,-131,112,187,-178,-9,78,-561,-414,-492,-390,-326
-244,-151,92,197,-168,-29,73,-492,-375,-458,-370,-317
-278,-170,107,224,-192,-31,126,-385,-322,-414,-351,-317
-331,-195,136,263,-234,-29,234,-253,-258,-380,-336,-322
-375,-253,122,314,-248,-65,312,-141,-214,-351,-341,-336
-400,-273,126,336,-263,-73,390,-19,-146,-302,-307,-326
-409,-273,136,341,-273,-68,463,87,-68,-234,-263,-297
-409,-273,136,341,-273,-68,497,151,-24,-200,-239,-297
-414,-253,161,334,-287,-46,531,214,14,-156,-204,-273
-414,-229,185,322,-300,-21,575,253,43,-126,-190,-253
-414,-200,214,307,-314,7,595,248,43,-126,-175,-244
-414,-175,239,295,-326,31,634,268,63,-107,-151,-229
-429,-165,263,297,-346,48,683,283,78,-87,-151,-209
-429,-151,278,290,-353,63,732,307,107,-58,-122,-180
-424,-131,292,278,-358,80,780,326,131,-29,-82,-151
-429,-136,292,283,-361,78,795,307,131,-34,-82,-151
-458,-146,312,302,-385,82,814,273,102,-43,-92,-151
-463,-156,307,309,-385,75,834,234,63,-68,-112,-161
-473,-170,302,322,-387,65,858,190,34,-97,-126,-190
-497,-180,317,339,-407,68,912,156,29,-112,-136,-204
-517,-190,326,353,-422,68,902,78,14,-122,-151,-204
-512,-195,317,353,-414,61,834,-19,-9,-136,-151,-204
-507,-165,341,336,-424,87,800,-63,-4,-107,-126,-175
-507,-161,346,334,-427,92,785,-78,4,-97,-107,-161
-488,-161,326,324,-407,82,736,-102,-4,-97,-102,-156
-478,-151,326,314,-402,87,658,-107,-24,-107,-102,-151
-453,-146,307,300,-380,80,590,-107,-39,-112,-112,-156
-414,-131,283,273,-348,75,517,-102,-48,-112,-102,-151
-366,-122,244,244,-305,61,444,-107,-53,-97,-92,-126
-336,-126,209,231,-273,41,366,-117,-63,-97,-82,-117
-287,-97,190,192,-239,46,322,-107,-53,-78,-63,-92
-253,-82,170,168,-212,43,287,-92,-39,-58,-53,-78
-244,-78,165,161,-204,43,234,-87,-48,-63,-48,-78
-229,-58,170,143,-200,56,195,-82,-39,-39,-39,-63
-214,-58,156,136,-185,48,170,-68,-48,-43,-34,-48
-195,-58,136,126,-165,39,146,-68,-53,-53,-39,-58
-190,-48,141,119,-165,46,131,-63,-43,-39,-34,-48
-180,-68,112,124,-146,21,97,-63,-48,-48,-34,-48
-161,-63,97,112,-129,17,73,-63,-48,-34,-24,-48
-146,-39,107,92,-126,34,68,-43,-34,-14,-4,-24
-126,-43,82,85,-104,19,48,-48,-29,-9,-4,-24
-112,-24,87,68,-100,31,29,-34,-24,-4,4,-14
-107,-14,92,61,-100,39,14,-24,-14,0,14,-4
-102,-19,82,61,-92,31,0,-34,-24,-9,0,-4
-107,-19,87,63,-97,34,-4,-39,-24,-4,0,-14
-97,-19,78,58,-87,29,-4,-39,-24,-4,0,-14
-92,-24,68,58,-80,21,-14,-34,-24,-4,0,-9
-87,-24,63,56,-75,19,-14,-24,-24,-4,0,-9
-78,-24,53,51,-65,14,-24,-34,-24,-4,9,-9
-78,-24,53,51,-65,14,-24,-34,-24,0,9,-9
-82,-19,63,51,-73,21,-24,-29,-24,0,9,0
-82,-19,63,51,-73,21,-34,-29,-24,0,9,0
-73,-24,48,48,-61,12,-39,-39,-24,0,0,-4
-73,-24,48,48,-61,12,-43,-39,-24,0,0,-4
-73,-24,48,48,-61,12,-43,-43,-24,0,4,-4
-68,-14,53,41,-61,19,-48,-43,-19,0,4,-4
-58,-14,43,36,-51,14,-48,-34,-19,0,14,-4
-58,-19,39,39,-48,9,-48,-34,-19,0,14,-4
-58,-19,39,39,-48,9,-48,-34,-19,4,14,-4
-63,-19,43,41,-53,12,-48,-34,-19,4,14,-4
-73,-29,43,51,-58,7,-48,-43,-29,4,14,4
-73,-24,48,48,-61,12,-48,-43,-29,4,19,9
-68,-24,43,46,-56,9,-53,-43,-29,0,19,9
-68,-19,48,43,-58,14,-53,-43,-29,0,24,14
-63,-19,43,41,-53,12,-53,-34,-29,9,24,14
-63,-19,43,41,-53,12,-53,-34,-24,9,24,14
-58,-19,39,39,-48,9,-53,-34,-19,9,24,14
-58,-19,39,39,-48,9,-53,-34,-14,14,29,14
-68,-19,48,43,-58,14,-63,-43,-24,4,29,4
-68,-14,53,41,-61,19,-63,-43,-24,4,34,9
-68,-14,53,41,-61,19,-73,-48,-24,4,34,9
-68,-9,58,39,-63,24,-73,-48,-24,4,34,9
-53,0,53,26,-53,26,-63,-39,-14,9,43,29
-53,0,53,26,-53,26,-63,-39,-14,14,43,19
-53,0,53,26,-53,26,-63,-39,-14,19,48,19
-53,0,53,26,-53,26,-63,-34,-14,34,53,24
-53,0,53,26,-53,26,-68,-34,-14,29,43,14
-53,4,58,24,-56,31,-73,-34,-14,24,48,24
-48,4,53,21,-51,29,-73,-34,-14,19,48,24
-48,4,53,21,-51,29,-78,-34,-14,14,48,24
-39,9,48,14,-43,29,-78,-34,-9,24,53,34
-39,9,48,14,-43,29,-78,-34,-9,24,53,34
-34,9,43,12,-39,26,-78,-34,-9,19,53,39
-29,14,43,7,-36,29,-78,-34,-9,19,63,43
-34,14,48,9,-41,31,-82,-29,-9,24,63,43
-29,14,43,7,-36,29,-82,-29,-9,29,68,48
-24,19,43,2,-34,31,-82,-24,-4,34,68,53
-24,19,43,2,-34,31,-92,-24,-4,34,73,53
-24,24,48,0,-36,36,-82,-24,-4,48,73,53
-14,29,43,-7,-29,36,-87,-24,-4,48,73,58
-14,39,53,-12,-34,46,-92,-24,-4,48,73,63
-9,43,53,-17,-31,48,-92,-24,0,53,78,63
0,58,58,-29,-29,58,-102,-19,0,58,92,68
0,58,58,-29,-29,58,-107,-19,0,58,92,73
9,63,53,-36,-21,58,-107,-19,4,58,92,78
14,63,48,-39,-17,56,-112,-19,4,58,92,78
14,63,48,-39,-17,56,-117,-9,4,63,97,92
19,68,48,-43,-14,58,-117,-9,14,68,107,97
24,73,48,-48,-12,61,-122,-9,14,68,112,102
24,73,48,-48,-12,61,-126,-4,14,68,117,107
29,87,58,-58,-14,73,-117,-4,24,82,131,117
34,92,58,-63,-12,75,-122,-4,24,82,131,117
43,102,58,-73,-7,80,-126,-4,24,87,136,122
48,117,68,-82,-9,92,-131,-4,24,87,141,126
48,117,68,-82,-9,92,-146,-14,19,87,141,131
53,126,73,-90,-9,100,-146,-4,24,97,146,136
63,126,63,-95,0,95,-151,-4,24,97,151,141
63,131,68,-97,-2,100,-156,-4,24,97,156,141
82,141,58,-112,12,100,-161,0,39,107,161,151
87,151,63,-119,12,107,-161,0,39,112,165,156
87,151,63,-119,12,107,-165,0,39,117,165,161
97,156,58,-126,19,107,-170,0,39,117,175,170
102,165,63,-134,19,114,-180,0,39,126,175,170
107,170,63,-139,21,117,-180,0,43,131,185,175
117,175,58,-146,29,117,-185,0,48,136,185,180
117,175,58,-146,29,117,-185,0,48,136,185,190
122,185,63,-153,29,124,-175,0,53,136,195,195
136,190,53,-163,41,122,-175,0,53,136,200,200
136,190,53,-163,41,122,-185,4,48,136,200,200
141,195,53,-168,43,124,-190,4,48,136,204,204
146,209,63,-178,41,136,-200,0,53,141,209,219
146,209,63,-178,41,136,-200,0,53,146,209,219
151,214,63,-183,43,139,-200,4,53,151,214,229
151,219,68,-185,41,143,-200,4,53,156,214,229
156,234,78,-195,39,156,-200,4,53,156,214,234
156,234,78,-195,39,156,-200,9,63,156,219,234
156,234,78,-195,39,156,-200,9,63,156,219,234
161,244,82,-202,39,163,-204,9,63,151,224,234
161,248,87,-204,36,168,-204,9,68,161,229,234
165,248,82,-207,41,165,-204,9,68,165,229,234
170,253,82,-212,43,168,-204,9,68,170,239,244
170,253,82,-212,43,168,-204,4,68,170,229,244
170,244,73,-207,48,158,-204,4,78,161,229,234
170,248,78,-209,46,163,-200,4,78,165,234,239
165,248,82,-207,41,165,-200,4,82,165,234,239
165,248,82,-207,41,165,-200,4,82,161,229,234
180,258,78,-219,51,168,-200,9,73,161,229,234
185,253,68,-219,58,161,-200,9,73,165,229,234
185,253,68,-219,58,161,-195,14,73,165,229,234
185,248,63,-217,61,156,-190,14,73,165,229,234
170,239,68,-204,51,153,-180,14,73,165,229,229
170,234,63,-202,53,148,-170,24,78,165,229,229
170,229,58,-200,56,143,-165,29,78,165,224,229
165,224,58,-195,53,141,-165,29,78,156,214,214
170,214,43,-192,63,129,-170,29,78,156,214,214
170,204,34,-187,68,119,-161,29,73,156,209,209
165,195,29,-180,68,112,-151,29,73,151,204,200
165,190,24,-178,70,107,-141,39,78,151,204,195
141,175,34,-158,53,104,-131,48,78,146,195,204
136,170,34,-153,51,102,-117,48,82,146,195,195
136,170,34,-153,51,102,-107,58,82,146,195,190
122,151,29,-136,46,90,-97,63,82,146,185,180
122,156,34,-139,43,95,-102,63,73,126,170,175
117,146,29,-131,43,87,-92,63,73,122,165,165
112,141,29,-126,41,85,-87,63,78,122,161,156
102,131,29,-117,36,80,-73,68,78,122,161,146
87,117,29,-102,29,73,-58,78,87,122,156,146
78,107,29,-92,24,68,-48,78,82,117,146,136
73,102,29,-87,21,65,-39,82,82,117,146,136
63,92,29,-78,17,61,-29,82,82,117,146,126
63,82,19,-73,21,51,-29,78,73,112,131,112
58,78,19,-68,19,48,-24,78,73,107,131,112
43,68,24,-56,9,46,-19,78,73,102,126,102
39,68,29,-53,4,48,-14,78,68,97,122,87
39,53,14,-46,12,34,-4,82,78,102,122,97
24,39,14,-31,4,26,4,82,73,87,107,82
19,39,19,-29,0,29,19,78,73,78,107,78
14,39,24,-26,-4,31,29,73,73,68,107,73
0,24,24,-12,-12,24,19,58,58,73,102,63
0,24,24,-12,-12,24,24,53,53,63,97,58
0,24,24,-12,-12,24,24,43,53,58,87,48
-4,9,14,-2,-9,12,24,39,48,58,82,43
-9,9,19,0,-14,14,29,48,53,58,82,43
-14,0,14,7,-14,7,29,39,48,48,73,39
-14,0,14,7,-14,7,34,34,43,43,68,34
-14,0,14,7,-14,7,43,34,43,43,68,34
-24,-4,19,14,-21,7,24,24,29,39,48,39
-34,-9,24,21,-29,7,24,24,24,34,48,34
-34,-9,24,21,-29,7,24,19,24,29,48,34
-39,-14,24,26,-31,4,24,14,19,24,43,29
-34,-19,14,26,-24,-2,34,19,24,29,48,24
-34,-19,14,26,-24,-2,34,14,19,29,43,24
-34,-19,14,26,-24,-2,34,9,19,24,39,24
-34,-19,14,26,-24,-2,39,4,19,24,39,24
-39,-19,19,29,-29,0,29,0,19,19,39,19
-39,-24,14,31,-26,-4,24,-4,9,9,34,14
-39,-24,14,31,-26,-4,24,-9,9,9,29,14
-39,-24,14,31,-26,-4,24,-9,9,9,29,9
-43,-24,19,34,-31,-2,24,-14,9,9,34,9
-43,-19,24,31,-34,2,24,-14,9,9,34,9
-48,-19,29,34,-39,4,24,-19,4,4,29,4
-48,-24,24,36,-36,0,29,-19,4,4,29,4
-53,-24,29,39,-41,2,19,-24,9,14,29,9
-58,-24,34,41,-46,4,14,-24,9,14,29,9
-58,-24,34,41,-46,4,14,-29,9,14,34,9
-58,-24,34,41,-46,4,14,-34,9,14,34,9
-58,-24,34,41,-46,4,14,-34,0,9,24,9
-58,-24,34,41,-46,4,14,-34,0,9,24,9
-58,-24,34,41,-46,4,14,-34,-4,4,24,4
-58,-19,39,39,-48,9,14,-34,-4,4,19,4
-58,-19,39,39,-48,9,24,-29,0,9,29,9
-58,-19,39,39,-48,9,24,-29,0,9,29,9
-58,-19,39,39,-48,9,24,-29,0,9,29,9
-58,-19,39,39,-48,9,24,-29,0,9,29,9
-48,-19,29,34,-39,4,24,-29,0,9,29,9
-48,-19,29,34,-39,4,24,-29,0,9,29,9
-48,-19,29,34,-39,4,24,-24,0,9,29,9
-63,-19,43,41,-53,12,24,-24,0,9,29,9
-63,-19,43,41,-53,12,24,-29,9,14,34,14
-58,-19,39,39,-48,9,24,-29,9,14,34,14
-58,-19,39,39,-48,9,24,-29,9,19,34,14
-58,-19,39,39,-48,9,24,-24,14,19,39,19
-58,-19,39,39,-48,9,24,-24,9,9,29,19
-53,-19,34,36,-43,7,24,-19,9,9,29,19
-53,-19,34,36,-43,7,24,-19,9,9,29,19
-58,-19,39,39,-48,9,24,-19,9,9,29,19
-58,-24,34,41,-46,4,24,-19,9,19,39,19
-58,-24,34,41,-46,4,24,-9,24,29,39,19
-58,-24,34,41,-46,4,24,-9,14,19,39,19
-58,-24,34,41,-46,4,24,-14,14,19,39,24
-53,-24,29,39,-41,2,24,-14,14,19,48,19
-53,-24,29,39,-41,2,24,-14,14,19,53,19
-53,-24,29,39,-41,2,24,-9,14,24,58,19
-53,-24,29,39,-41,2,19,-9,14,24,58,14
-63,-24,39,43,-51,7,19,-9,14,34,58,14
-63,-24,39,43,-51,7,24,-9,19,34,58,19
-63,-24,39,43,-51,7,24,-9,19,34,53,19
-63,-24,39,43,-51,7,24,-9,14,34,48,19
-63,-24,39,43,-51,7,19,-19,9,24,39,19
-58,-24,34,41,-46,4,19,-19,9,24,39,14
-48,-24,24,36,-36,0,19,-14,14,24,43,14
-43,-24,19,34,-31,-2,19,-14,14,24,43,14
-53,-34,19,43,-36,-7,19,-14,4,24,34,4
-48,-34,14,41,-31,-9,19,-14,4,24,39,9
-48,-34,14,41,-31,-9,14,-14,4,24,39,9
-53,-34,19,43,-36,-7,14,-14,4,24,39,4
-43,-34,9,39,-26,-12,24,-14,14,24,39,14
-43,-34,9,39,-26,-12,24,-14,9,24,39,14
-43,-34,9,39,-26,-12,24,-14,9,24,39,14
-43,-34,9,39,-26,-12,24,-14,9,24,39,14
-43,-29,14,36,-29,-7,14,-24,0,24,29,4
-43,-29,14,36,-29,-7,14,-24,0,24,29,4
-43,-29,14,36,-29,-7,14,-24,0,19,29,4
-43,-34,9,39,-26,-12,9,-29,0,14,24,4
-43,-34,9,39,-26,-12,9,-29,0,14,34,4
-43,-39,4,41,-24,-17,9,-34,0,19,34,4
-43,-39,4,41,-24,-17,14,-34,0,19,29,4
-43,-39,4,41,-24,-17,14,-34,0,19,29,4
-43,-43,0,43,-21,-21,9,-34,-4,14,24,9
-43,-43,0,43,-21,-21,9,-34,-4,14,24,9
-43,-39,4,41,-24,-17,9,-34,0,19,29,9
-43,-39,4,41,-24,-17,9,-34,0,19,29,9
-43,-29,14,36,-29,-7,0,-43,-4,9,24,4
-43,-29,14,36,-29,-7,4,-43,-4,4,19,4
-48,-29,19,39,-34,-4,4,-48,-4,4,14,4
-48,-29,19,39,-34,-4,4,-48,-4,4,9,4
-43,-43,0,43,-21,-21,9,-39,-4,0,4,4
-43,-43,0,43,-21,-21,9,-39,-4,0,4,4
-43,-39,4,41,-24,-17,9,-39,-4,4,9,4
-43,-39,4,41,-24,-17,9,-39,-9,4,9,4
-53,-48,4,51,-29,-21,0,-48,-9,4,4,0
-53,-48,4,51,-29,-21,0,-48,-4,4,4,0
-53,-48,4,51,-29,-21,0,-53,-4,4,9,0
-53,-48,4,51,-29,-21,0,-53,-4,4,9,0
-43,-48,-4,46,-19,-26,0,-43,-4,4,9,0
-43,-48,-4,46,-19,-26,0,-39,-4,4,9,0
-43,-48,-4,46,-19,-26,0,-39,0,9,9,0
-39,-48,-9,43,-14,-29,4,-39,0,9,9,0
-34,-39,-4,36,-14,-21,4,-39,-9,0,0,0
-34,-34,0,34,-17,-17,9,-39,-4,0,9,0
-34,-29,4,31,-19,-12,9,-39,0,0,9,9
-34,-24,9,29,-21,-7,14,-39,4,9,9,9
-19,-14,4,17,-12,-4,19,-24,9,19,24,19
-19,-9,9,14,-14,0,24,-19,14,24,24,19
-19,0,19,9,-19,9,29,-14,19,29,24,19
-19,4,24,7,-21,14,43,9,29,34,29,39
-19,-4,14,12,-17,4,34,-9,29,39,39,29
-9,0,9,4,-9,4,39,-9,29,39,48,29
-9,0,9,4,-9,4,48,-4,39,48,39,39
-9,0,9,4,-9,4,48,0,39,48,39,39
