I,II,III,aVR,aVL,aVF,V1,V2,V3,V4,V5,V6
-9,-302,-292,156,141,-297,165,195,107,107,117,107
-9,-302,-292,156,141,-297,165,195,107,107,117,107
-9,-302,-292,156,141,-297,165,195,107,107,117,107
-9,-302,-292,156,141,-297,165,195,107,107,117,107
-9,-302,-292,156,141,-297,165,204,112,112,122,117
-9,-302,-292,156,141,-297,165,204,117,117,126,117
-9,-302,-292,156,141,-297,165,204,122,122,131,117
-9,-302,-292,156,141,-297,165,204,126,126,136,117
-4,-287,-283,146,139,-285,156,214,126,136,141,122
0,-283,-283,141,141,-283,156,214,126,136,146,126
4,-278,-283,136,143,-280,156,214,126,136,151,131
9,-273,-283,131,146,-278,156,214,126,136,156,136
19,-273,-292,126,156,-283,156,229,136,146,156,151
19,-273,-292,126,156,-283,156,234,136,146,156,156
19,-273,-292,126,156,-283,156,239,136,146,156,161
19,-273,-292,126,156,-283,156,244,136,146,156,165
29,-273,-302,122,165,-287,146,248,136,151,161,175
29,-273,-302,122,165,-287,146,253,136,156,165,175
29,-273,-302,122,165,-287,146,258,136,161,170,175
29,-273,-302,122,165,-287,146,263,136,165,175,175
39,-258,-297,109,168,-278,146,273,151,185,190,195
48,-253,-302,102,175,-278,146,283,156,195,204,204
58,-248,-307,95,183,-278,146,292,161,204,219,214
68,-244,-312,87,190,-278,146,302,165,214,234,224
73,-239,-312,82,192,-275,141,312,165,219,248,239
78,-234,-312,78,195,-273,136,312,165,224,253,244
82,-229,-312,73,197,-270,131,312,165,229,258,248
87,-224,-312,68,200,-268,126,312,165,234,263,253
92,-214,-307,61,200,-261,122,326,180,248,278,268
97,-214,-312,58,204,-263,117,331,185,253,283,273
102,-214,-317,56,209,-265,112,336,190,258,287,278
107,-214,-322,53,214,-268,107,341,195,263,292,283
122,-200,-322,39,222,-261,97,361,195,278,302,302
126,-195,-322,34,224,-258,97,370,195,283,312,312
131,-190,-322,29,226,-256,97,380,195,287,322,322
136,-185,-322,24,229,-253,97,390,195,292,331,331
146,-175,-322,14,234,-248,87,395,200,312,351,346
156,-165,-322,4,239,-244,87,400,204,322,361,361
165,-156,-322,-4,244,-239,87,405,209,331,370,375
175,-146,-322,-14,248,-234,87,409,214,341,380,390
180,-141,-322,-19,251,-231,73,424,224,346,390,405
185,-136,-322,-24,253,-229,68,429,224,351,400,409
190,-131,-322,-29,256,-226,63,434,224,356,409,414
195,-126,-322,-34,258,-224,58,439,224,361,419,419
200,-117,-317,-41,258,-217,58,444,229,366,424,429
204,-117,-322,-43,263,-219,58,448,234,370,429,439
209,-117,-326,-46,268,-222,58,453,239,375,434,448
214,-117,-331,-48,273,-224,58,458,244,380,439,458
224,-107,-331,-58,278,-219,48,468,253,400,458,463
224,-107,-331,-58,278,-219,48,468,253,409,468,468
224,-107,-331,-58,278,-219,48,468,253,419,478,473
224,-107,-331,-58,278,-219,48,468,253,429,488,478
224,-97,-322,-63,273,-209,48,458,263,429,488,488
224,-97,-322,-63,273,-209,48,458,263,429,488,488
224,-97,-322,-63,273,-209,48,458,263,429,488,488
224,-97,-322,-63,273,-209,48,458,263,429,488,488
224,-87,-312,-68,268,-200,48,453,253,424,483,473
224,-87,-312,-68,268,-200,48,448,253,419,478,468
224,-87,-312,-68,268,-200,48,444,253,414,473,463
224,-87,-312,-68,268,-200,48,439,253,409,468,458
204,-97,-302,-53,253,-200,58,429,248,390,453,444
195,-107,-302,-43,248,-204,58,419,244,380,439,429
185,-117,-302,-34,244,-209,58,409,239,370,424,414
175,-126,-302,-24,239,-214,58,400,234,361,409,400
161,-136,-297,-12,229,-217,63,380,234,351,395,385
156,-146,-302,-4,229,-224,68,370,234,341,380,370
151,-156,-307,2,229,-231,73,361,234,331,366,356
146,-165,-312,9,229,-239,78,351,234,322,351,341
126,-185,-312,29,219,-248,92,341,229,302,331,317
117,-195,-312,39,214,-253,97,331,224,292,322,302
107,-204,-312,48,209,-258,102,322,219,283,312,287
97,-214,-312,58,204,-263,107,312,214,273,302,273
92,-229,-322,68,207,-275,122,297,209,258,287,258
87,-234,-322,73,204,-278,126,283,204,244,273,244
82,-239,-322,78,202,-280,131,268,200,229,258,229
78,-244,-322,82,200,-283,136,253,195,214,244,214
63,-253,-317,95,190,-285,146,239,185,209,234,204
58,-263,-322,102,190,-292,146,234,185,204,224,195
53,-273,-326,109,190,-300,146,229,185,200,214,185
48,-283,-331,117,190,-307,146,224,185,195,204,175
43,-297,-341,126,192,-319,146,204,170,185,195,165
39,-302,-341,131,190,-322,146,195,165,175,185,156
34,-307,-341,136,187,-324,146,185,161,165,175,146
29,-312,-341,141,185,-326,146,175,156,156,165,136
24,-317,-341,146,183,-329,156,170,146,151,151,131
19,-322,-341,151,180,-331,156,165,146,146,146,126
14,-326,-341,156,178,-334,156,161,146,141,141,122
9,-331,-341,161,175,-336,156,156,146,136,136,117
0,-322,-322,161,161,-322,156,151,136,131,131,112
0,-322,-322,161,161,-322,156,146,136,126,126,107
0,-322,-322,161,161,-322,156,141,136,122,122,102
0,-322,-322,161,161,-322,156,136,136,117,117,97
-9,-336,-326,173,158,-331,156,131,136,117,126,92
-9,-341,-331,175,161,-336,156,126,136,117,126,87
-9,-346,-336,178,163,-341,156,122,136,117,126,82
-9,-351,-341,180,165,-346,156,117,136,117,126,78
-19,-351,-331,185,156,-341,165,117,131,112,122,68
-19,-351,-331,185,156,-341,165,117,126,107,117,68
-19,-351,-331,185,156,-341,165,117,122,102,112,68
-19,-351,-331,185,156,-341,165,117,117,97,107,68
-9,-351,-341,180,165,-346,156,112,126,97,107,78
-9,-351,-341,180,165,-346,156,107,126,97,107,78
-9,-351,-341,180,165,-346,156,102,126,97,107,78
-9,-351,-341,180,165,-346,156,97,126,97,107,78
-19,-351,-331,185,156,-341,156,107,136,107,117,78
-19,-351,-331,185,156,-341,156,107,136,107,117,78
-19,-351,-331,185,156,-341,156,107,136,107,117,78
-19,-351,-331,185,156,-341,156,107,136,107,117,78
-9,-361,-351,185,170,-356,165,107,126,97,107,78
-9,-361,-351,185,170,-356,165,107,126,97,107,78
-9,-361,-351,185,170,-356,165,107,126,97,107,78
-9,-361,-351,185,170,-356,165,107,126,97,107,78
-19,-361,-341,190,161,-351,165,97,117,97,107,78
-19,-361,-341,190,161,-351,165,97,117,97,107,78
-19,-361,-341,190,161,-351,165,97,117,97,107,78
-19,-361,-341,190,161,-351,165,97,117,97,107,78
-19,-370,-351,195,165,-361,165,97,126,97,107,78
-19,-370,-351,195,165,-361,165,97,126,97,107,78
-19,-370,-351,195,165,-361,165,97,126,97,107,78
-19,-370,-351,195,165,-361,165,97,126,97,107,78
-9,-380,-370,195,180,-375,165,97,126,97,107,78
-9,-380,-370,195,180,-375,165,97,126,97,107,78
-9,-380,-370,195,180,-375,165,97,126,97,107,78
-9,-380,-370,195,180,-375,165,97,126,97,107,78
-9,-380,-370,195,180,-375,165,87,122,87,97,78
-9,-380,-370,195,180,-375,165,87,117,87,97,78
-9,-380,-370,195,180,-375,165,87,112,87,97,78
-9,-380,-370,195,180,-375,165,87,107,87,97,78
-9,-380,-370,195,180,-375,165,97,117,97,97,68
-9,-380,-370,195,180,-375,165,97,117,97,97,68
-9,-380,-370,195,180,-375,165,97,117,97,97,68
-9,-380,-370,195,180,-375,165,97,117,97,97,68
0,-380,-380,190,190,-380,156,87,126,107,97,78
0,-380,-380,190,190,-380,156,87,126,107,97,78
0,-380,-380,190,190,-380,156,87,126,107,97,78
0,-380,-380,190,190,-380,156,87,126,107,97,78
-14,-385,-370,200,178,-378,161,87,126,97,107,73
-19,-390,-370,204,175,-380,165,87,126,97,107,68
-24,-395,-370,209,173,-383,170,87,126,97,107,63
-29,-400,-370,214,170,-385,175,87,126,97,107,58
-24,-395,-370,209,173,-383,175,97,117,97,107,68
-19,-390,-370,204,175,-380,175,97,117,97,107,68
-14,-385,-370,200,178,-378,175,97,117,97,107,68
-9,-380,-370,195,180,-375,175,97,117,97,107,68
-19,-385,-366,202,173,-375,175,97,117,87,97,68
-19,-390,-370,204,175,-380,175,97,117,87,97,68
-19,-395,-375,207,178,-385,175,97,117,87,97,68
-19,-400,-380,209,180,-390,175,97,117,87,97,68
-19,-400,-380,209,180,-390,170,97,122,92,102,78
-19,-400,-380,209,180,-390,165,97,126,97,107,78
-19,-400,-380,209,180,-390,161,97,131,102,112,78
-19,-400,-380,209,180,-390,156,97,136,107,117,78
-29,-400,-370,214,170,-385,165,97,126,97,107,68
-29,-400,-370,214,170,-385,165,97,126,97,107,68
-29,-400,-370,214,170,-385,165,97,126,97,107,68
-29,-400,-370,214,170,-385,165,97,126,97,107,68
-29,-400,-370,214,170,-385,170,97,126,107,97,68
-29,-400,-370,214,170,-385,175,97,126,107,97,68
-29,-400,-370,214,170,-385,180,97,126,107,97,68
-29,-400,-370,214,170,-385,185,97,126,107,97,68
-29,-390,-361,209,165,-375,175,97,126,97,107,68
-29,-390,-361,209,165,-375,175,97,126,97,107,68
-29,-390,-361,209,165,-375,175,97,126,97,107,68
-29,-390,-361,209,165,-375,175,97,126,97,107,68
-29,-400,-370,214,170,-385,165,87,122,87,102,58
-29,-400,-370,214,170,-385,165,87,117,87,97,58
-29,-400,-370,214,170,-385,165,87,112,87,92,58
-29,-400,-370,214,170,-385,165,87,107,87,87,58
-29,-390,-361,209,165,-375,175,87,112,87,97,68
-29,-390,-361,209,165,-375,175,87,117,87,97,68
-29,-390,-361,209,165,-375,175,87,122,87,97,68
-29,-390,-361,209,165,-375,175,87,126,87,97,68
-19,-390,-370,204,175,-380,175,87,126,97,107,68
-19,-390,-370,204,175,-380,175,87,126,97,107,68
-19,-390,-370,204,175,-380,175,87,126,97,107,68
-19,-390,-370,204,175,-380,175,87,126,97,107,68
-19,-380,-361,200,170,-370,175,97,136,107,107,68
-19,-380,-361,200,170,-370,175,97,136,107,107,68
-19,-380,-361,200,170,-370,175,97,136,107,107,68
-19,-380,-361,200,170,-370,175,97,136,107,107,68
-29,-380,-351,204,161,-366,185,97,131,97,97,58
-29,-380,-351,204,161,-366,185,97,126,97,97,58
-29,-380,-351,204,161,-366,185,97,122,97,97,58
-29,-380,-351,204,161,-366,185,97,117,97,97,58
-19,-380,-361,200,170,-370,180,87,117,92,87,58
-19,-380,-361,200,170,-370,175,87,117,87,87,58
-19,-380,-361,200,170,-370,170,87,117,82,87,58
-19,-380,-361,200,170,-370,165,87,117,78,87,58
-29,-380,-351,204,161,-366,175,87,117,82,97,58
-29,-380,-351,204,161,-366,175,87,117,87,97,58
-29,-380,-351,204,161,-366,175,87,117,92,97,58
-29,-380,-351,204,161,-366,175,87,117,97,97,58
-19,-375,-356,197,168,-366,170,78,117,87,97,48
-19,-370,-351,195,165,-361,165,78,117,87,97,48
-19,-366,-346,192,163,-356,161,78,117,87,97,48
-19,-361,-341,190,161,-351,156,78,117,87,97,48
-19,-351,-331,185,156,-341,165,68,117,87,97,58
-19,-351,-331,185,156,-341,165,68,117,87,97,58
-19,-351,-331,185,156,-341,165,68,117,87,97,58
-19,-351,-331,185,156,-341,165,68,117,87,97,58
-19,-351,-331,185,156,-341,165,68,107,82,92,48
-19,-351,-331,185,156,-341,165,68,107,78,87,48
-19,-351,-331,185,156,-341,165,68,107,73,82,48
-19,-351,-331,185,156,-341,165,68,107,68,78,48
-19,-361,-341,190,161,-351,165,78,107,73,87,58
-19,-361,-341,190,161,-351,165,78,107,78,87,58
-19,-361,-341,190,161,-351,165,78,107,82,87,58
-19,-361,-341,190,161,-351,165,78,107,87,87,58
-9,-361,-351,185,170,-356,165,68,107,78,78,48
-9,-361,-351,185,170,-356,165,68,107,78,78,48
-9,-361,-351,185,170,-356,165,68,107,78,78,48
-9,-361,-351,185,170,-356,165,68,107,78,78,48
-9,-370,-361,190,175,-366,156,58,97,68,68,48
-9,-370,-361,190,175,-366,156,58,97,68,68,48
-9,-370,-361,190,175,-366,156,58,97,68,68,48
-9,-370,-361,190,175,-366,156,58,97,68,68,48
-19,-361,-341,190,161,-351,156,58,97,68,68,39
-19,-361,-341,190,161,-351,156,58,97,68,68,39
-19,-361,-341,190,161,-351,156,58,97,68,68,39
-19,-361,-341,190,161,-351,156,58,97,68,68,39
-9,-361,-351,185,170,-356,156,68,97,58,68,48
-9,-361,-351,185,170,-356,156,68,97,58,68,48
-9,-361,-351,185,170,-356,156,68,97,58,68,48
-9,-361,-351,185,170,-356,156,68,97,58,68,48
-9,-361,-351,185,170,-356,165,58,87,58,58,39
-9,-361,-351,185,170,-356,165,58,87,58,58,39
-9,-361,-351,185,170,-356,165,58,87,58,58,39
-9,-361,-351,185,170,-356,165,58,87,58,58,39
-9,-366,-356,187,173,-361,165,58,97,58,68,48
-9,-370,-361,190,175,-366,165,58,97,58,68,48
-9,-375,-366,192,178,-370,165,58,97,58,68,48
-9,-380,-370,195,180,-375,165,58,97,58,68,48
0,-375,-375,187,187,-375,165,58,97,68,68,48
0,-370,-370,185,185,-370,165,58,97,68,68,48
0,-366,-366,183,183,-366,165,58,97,68,68,48
0,-361,-361,180,180,-361,165,58,97,68,68,48
-9,-370,-361,190,175,-366,156,58,97,68,68,39
-9,-370,-361,190,175,-366,156,58,97,68,68,39
-9,-370,-361,190,175,-366,156,58,97,68,68,39
-9,-370,-361,190,175,-366,156,58,97,68,68,39
0,-361,-361,180,180,-361,165,58,87,58,58,39
0,-361,-361,180,180,-361,165,58,87,58,58,39
0,-361,-361,180,180,-361,165,58,87,58,58,39
0,-361,-361,180,180,-361,165,58,87,58,58,39
-9,-370,-361,190,175,-366,175,58,97,58,58,39
-9,-370,-361,190,175,-366,175,58,97,58,58,39
-9,-370,-361,190,175,-366,175,58,97,58,58,39
-9,-370,-361,190,175,-366,175,58,97,58,58,39
-9,-380,-370,195,180,-375,165,48,87,58,68,39
-9,-380,-370,195,180,-375,165,48,87,58,68,39
-9,-380,-370,195,180,-375,165,48,87,58,68,39
-9,-380,-370,195,180,-375,165,48,87,58,68,39
-9,-390,-380,200,185,-385,165,58,87,58,58,39
-9,-390,-380,200,185,-385,165,58,87,58,58,39
-9,-390,-380,200,185,-385,165,58,87,58,58,39
-9,-390,-380,200,185,-385,165,58,87,58,58,39
-9,-390,-380,200,185,-385,156,48,87,58,58,48
-9,-390,-380,200,185,-385,156,48,87,58,58,48
-9,-390,-380,200,185,-385,156,48,87,58,58,48
-9,-390,-380,200,185,-385,156,48,87,58,58,48
-9,-380,-370,195,180,-375,165,48,87,58,58,48
-9,-380,-370,195,180,-375,165,48,87,58,58,48
-9,-380,-370,195,180,-375,165,48,87,58,58,48
-9,-380,-370,195,180,-375,165,48,87,58,58,48
-9,-380,-370,195,180,-375,165,58,97,58,58,48
-9,-380,-370,195,180,-375,165,58,97,58,58,48
-9,-380,-370,195,180,-375,165,58,97,58,58,48
-9,-380,-370,195,180,-375,165,58,97,58,58,48
-9,-380,-370,195,180,-375,165,48,97,58,48,39
-9,-380,-370,195,180,-375,165,48,97,58,48,39
-9,-380,-370,195,180,-375,165,48,97,58,48,39
-9,-380,-370,195,180,-375,165,48,97,58,48,39
0,-380,-380,190,190,-380,165,48,87,48,58,39
0,-380,-380,190,190,-380,165,48,87,48,58,39
0,-370,-370,185,185,-370,165,48,92,48,58,39
0,-370,-370,185,185,-370,165,48,92,48,58,39
-9,-375,-366,192,178,-370,165,53,92,58,48,39
-9,-385,-375,197,183,-380,165,53,92,58,48,39
-4,-375,-370,190,183,-373,165,53,92,63,48,43
4,-366,-370,180,187,-368,170,58,97,63,53,43
9,-366,-375,178,192,-370,170,68,97,53,63,43
9,-361,-370,175,190,-366,170,73,97,53,63,48
9,-356,-366,173,187,-361,170,73,107,63,73,53
14,-356,-370,170,192,-363,165,78,117,68,78,53
19,-341,-361,161,190,-351,175,78,122,82,82,63
24,-331,-356,153,190,-344,190,87,131,102,92,68
24,-326,-351,151,187,-339,195,92,141,102,97,73
19,-326,-346,153,183,-336,204,97,141,107,97,73
4,-326,-331,161,168,-329,200,97,151,107,97,73
4,-326,-331,161,168,-329,209,102,151,117,102,78
4,-326,-331,161,168,-329,219,107,156,117,107,78
4,-326,-331,161,168,-329,224,107,156,117,107,78
4,-341,-346,168,175,-344,224,122,161,112,107,82
4,-341,-346,168,175,-344,229,122,161,112,107,82
4,-341,-346,168,175,-344,229,122,161,112,107,82
14,-341,-356,163,185,-348,219,122,156,112,107,82
19,-331,-351,156,185,-341,219,122,146,107,97,92
24,-336,-361,156,192,-348,204,112,141,107,97,92
34,-336,-370,151,202,-353,200,107,131,97,92,92
39,-336,-375,148,207,-356,180,102,131,97,92,92
43,-341,-385,148,214,-363,156,92,136,97,92,82
43,-331,-375,143,209,-353,141,87,136,102,92,87
43,-326,-370,141,207,-348,136,82,131,102,92,87
43,-326,-370,141,207,-348,136,73,122,97,87,87
34,-317,-351,141,192,-334,136,78,131,102,87,87
29,-322,-351,146,190,-336,136,73,126,97,87,82
29,-331,-361,151,195,-346,136,63,112,92,82,82
29,-331,-361,151,195,-346,136,63,112,82,78,73
29,-346,-375,158,202,-361,156,63,107,82,73,78
29,-351,-380,161,204,-366,156,63,107,78,78,78
29,-356,-385,163,207,-370,156,63,102,78,78,78
29,-356,-385,163,207,-370,156,63,102,78,82,82
29,-356,-385,163,207,-370,151,63,102,68,82,73
29,-361,-390,165,209,-375,151,63,102,68,78,73
34,-361,-395,163,214,-378,151,63,102,68,73,73
39,-361,-400,161,219,-380,151,63,102,68,68,73
29,-370,-400,170,214,-385,151,63,92,73,68,73
29,-375,-405,173,217,-390,151,63,92,68,58,63
29,-380,-409,175,219,-395,151,63,87,68,58,63
29,-380,-409,175,219,-395,146,58,87,68,53,63
43,-380,-424,168,234,-402,141,68,78,58,63,63
48,-380,-429,165,239,-405,141,68,78,58,63,63
53,-385,-439,165,246,-412,141,58,68,48,58,63
58,-385,-444,163,251,-414,141,58,68,48,58,58
39,-395,-434,178,236,-414,141,43,68,48,43,43
34,-395,-429,180,231,-412,141,34,63,43,39,39
19,-395,-414,187,217,-405,151,34,63,43,39,39
9,-395,-405,192,207,-400,151,39,68,43,39,39
9,-395,-405,192,207,-400,156,48,78,43,39,39
-4,-405,-400,204,197,-402,161,48,78,34,39,34
-14,-414,-400,214,192,-407,170,48,78,34,34,34
-14,-414,-400,214,192,-407,175,58,78,39,34,34
-14,-424,-409,219,197,-417,180,48,78,39,34,24
-14,-424,-409,219,197,-417,180,43,78,34,34,24
-14,-424,-409,219,197,-417,175,43,78,34,29,24
-14,-429,-414,222,200,-422,175,43,78,34,24,19
-24,-429,-405,226,190,-417,170,39,73,34,24,29
-24,-429,-405,226,190,-417,170,39,73,34,29,29
-24,-429,-405,226,190,-417,170,39,73,34,29,29
-24,-429,-405,226,190,-417,170,39,73,34,29,29
-19,-429,-409,224,195,-419,180,39,73,43,29,29
-19,-429,-409,224,195,-419,180,39,73,43,29,29
-14,-429,-414,222,200,-422,185,39,73,43,24,29
-14,-429,-414,222,200,-422,185,43,73,43,24,29
-19,-429,-409,224,195,-419,180,43,73,39,24,29
-24,-429,-405,226,190,-417,175,43,73,34,24,29
-29,-429,-400,229,185,-414,170,43,73,29,24,29
-34,-429,-395,231,180,-412,165,43,73,24,24,29
-29,-429,-400,229,185,-414,175,43,82,34,19,29
-34,-439,-405,236,185,-422,175,43,82,34,19,29
-34,-439,-405,236,185,-422,175,43,82,34,19,29
-34,-434,-400,234,183,-417,180,43,82,34,19,29
-43,-424,-380,234,168,-402,180,43,82,24,19,29
-39,-424,-385,231,173,-405,180,43,78,29,19,29
-34,-424,-390,229,178,-407,175,43,73,29,19,29
-34,-424,-390,229,178,-407,175,43,63,24,9,29
-43,-444,-400,244,178,-422,185,53,63,14,4,9
-39,-434,-395,236,178,-414,190,63,68,9,-4,4
-39,-458,-419,248,190,-439,195,73,53,-4,-29,-24
-29,-473,-444,251,207,-458,195,87,39,-19,-58,-43
-14,-463,-448,239,217,-456,209,126,48,-19,-68,-63
4,-453,-458,224,231,-456,219,195,102,24,-34,-48
19,-434,-453,207,236,-444,224,312,180,97,43,4
58,-375,-434,158,246,-405,224,468,278,224,165,117
156,-283,-439,63,297,-361,224,649,409,405,346,283
248,-151,-400,-48,324,-275,239,780,551,624,570,488
307,-43,-351,-131,329,-197,248,849,673,824,771,678
375,48,-326,-212,351,-139,248,912,800,1010,961,854
458,165,-292,-312,375,-63,219,966,897,1185,1156,1044
517,248,-268,-383,392,-9,165,932,897,1302,1307,1205
575,322,-253,-448,414,34,117,893,854,1361,1434,1342
639,400,-239,-519,439,80,78,854,819,1454,1576,1493
688,453,-234,-570,461,109,-9,766,766,1532,1708,1639
707,488,-219,-597,463,134,-122,619,707,1590,1810,1756
663,527,-136,-595,400,195,-190,478,688,1654,1888,1844
585,512,-73,-549,329,219,-195,380,653,1644,1888,1854
512,453,-58,-483,285,197,-229,268,512,1493,1747,1727
444,361,-82,-402,263,139,-287,112,331,1234,1488,1493
361,253,-107,-307,234,73,-287,-63,175,941,1161,1210
248,151,-97,-200,173,26,-244,-190,63,663,854,912
141,58,-82,-100,112,-12,-204,-268,14,453,605,658
63,-14,-78,-24,70,-46,-161,-283,9,312,419,463
-14,-78,-63,46,24,-70,-78,-253,4,204,283,322
-63,-146,-82,104,9,-114,-19,-224,-24,117,175,209
-53,-151,-97,102,21,-124,9,-195,-14,78,122,161
-34,-151,-117,92,41,-134,14,-136,9,97,131,161
-24,-175,-151,100,63,-163,24,-82,29,107,146,161
-34,-200,-165,117,65,-183,48,-58,48,107,126,141
-29,-209,-180,119,75,-195,58,-43,48,102,112,122
-29,-239,-209,134,90,-224,73,-29,48,87,107,107
-29,-253,-224,141,97,-239,73,-9,48,82,107,107
-34,-263,-229,148,97,-246,73,0,58,87,107,112
-29,-292,-263,161,117,-278,78,9,58,87,92,92
-39,-307,-268,173,114,-287,73,19,48,78,82,82
-43,-317,-273,180,114,-295,97,24,58,73,73,68
-34,-322,-287,178,126,-305,107,34,58,53,53,53
-24,-336,-312,180,143,-324,126,48,63,48,48,43
-24,-356,-331,190,153,-344,136,53,53,43,43,43
-24,-366,-341,195,158,-353,136,68,68,48,43,43
-34,-380,-346,207,156,-363,146,82,82,58,48,48
-34,-390,-356,212,161,-373,146,82,82,58,48,48
-24,-390,-366,207,170,-378,146,82,82,58,53,48
-34,-390,-356,212,161,-373,146,78,82,58,53,39
-24,-380,-356,202,165,-368,146,68,73,48,34,29
-29,-380,-351,204,161,-366,151,68,68,48,34,29
-29,-380,-351,204,161,-366,151,73,63,43,34,29
-29,-385,-356,207,163,-370,151,73,58,39,29,24
-29,-395,-366,212,168,-380,156,82,58,29,29,34
-24,-395,-370,209,173,-383,156,82,58,34,29,34
-19,-395,-375,207,178,-385,156,87,63,34,29,34
-19,-395,-375,207,178,-385,156,87,63,34,29,39
-24,-400,-375,212,175,-387,165,87,68,39,24,29
-24,-395,-370,209,173,-383,165,87,58,34,24,29
-24,-390,-366,207,170,-378,165,87,68,34,29,24
-24,-385,-361,204,168,-373,165,87,68,34,29,24
-14,-375,-361,195,173,-368,156,87,73,48,34,39
-14,-375,-361,195,173,-368,156,87,73,53,39,39
-9,-370,-361,190,175,-366,161,87,78,58,39,39
-9,-370,-361,190,175,-366,165,92,78,58,43,43
-19,-380,-361,200,170,-370,156,82,68,53,34,34
-19,-380,-361,200,170,-370,151,87,68,48,29,34
-19,-375,-356,197,168,-366,151,87,68,43,24,34
-19,-375,-356,197,168,-366,151,92,68,39,24,29
-19,-366,-346,192,163,-356,151,82,68,39,24,29
-19,-375,-356,197,168,-366,151,82,68,39,24,34
-19,-375,-356,197,168,-366,151,82,68,39,29,34
-19,-370,-351,195,165,-361,151,87,78,48,34,39
-14,-356,-341,185,163,-348,161,87,78,48,34,39
-14,-356,-341,185,163,-348,161,92,73,48,34,39
-14,-356,-341,185,163,-348,161,92,73,43,34,39
-14,-356,-341,185,163,-348,161,92,73,43,34,43
-14,-356,-341,185,163,-348,161,92,73,43,34,43
-14,-366,-351,190,168,-358,161,97,73,43,34,43
-14,-366,-351,190,168,-358,161,97,78,48,39,43
-4,-361,-356,183,175,-358,161,102,82,48,39,43
-4,-356,-351,180,173,-353,161,92,73,39,34,39
-4,-351,-346,178,170,-348,156,92,73,39,34,43
-9,-346,-336,178,163,-341,146,92,73,43,34,43
-14,-341,-326,178,156,-334,141,92,73,48,39,43
-14,-341,-326,178,156,-334,141,97,63,53,29,39
-9,-341,-331,175,161,-336,141,97,63,53,34,39
-9,-341,-331,175,161,-336,141,97,68,48,34,39
-9,-341,-331,175,161,-336,141,97,68,48,29,39
-4,-336,-331,170,163,-334,141,92,73,43,39,48
-4,-331,-326,168,161,-329,136,92,73,48,39,48
-4,-322,-317,163,156,-319,136,92,73,48,43,48
-4,-317,-312,161,153,-314,136,102,78,48,48,53
-4,-312,-307,158,151,-309,146,92,68,48,39,43
0,-307,-307,153,153,-307,146,97,73,53,39,48
0,-302,-302,151,151,-302,146,97,73,53,43,53
4,-297,-302,146,153,-300,146,102,73,53,43,53
-4,-292,-287,148,141,-290,141,112,78,48,39,43
-4,-292,-287,148,141,-290,136,112,82,53,39,43
-4,-292,-287,148,141,-290,131,117,82,53,39,43
0,-287,-287,143,143,-287,126,117,82,53,43,48
0,-287,-287,143,143,-287,122,112,82,53,43,58
0,-283,-283,141,141,-283,122,112,82,53,43,58
0,-283,-283,141,141,-283,126,117,82,53,48,63
0,-283,-283,141,141,-283,126,117,82,53,48,63
4,-273,-278,134,141,-275,122,131,87,68,63,73
4,-273,-278,134,141,-275,122,131,87,73,63,73
9,-273,-283,131,146,-278,122,141,87,73,63,82
9,-268,-278,129,143,-273,122,146,92,82,78,82
9,-278,-287,134,148,-283,122,136,82,73,68,78
14,-278,-292,131,153,-285,122,136,82,73,68,78
19,-268,-287,124,153,-278,122,146,82,78,73,82
24,-268,-292,122,158,-280,126,146,87,78,73,78
24,-268,-292,122,158,-280,117,146,87,78,63,82
24,-268,-292,122,158,-280,117,161,92,82,73,87
24,-268,-292,122,158,-280,117,161,92,92,78,87
24,-258,-283,117,153,-270,117,165,97,97,82,92
34,-244,-278,104,156,-261,122,170,107,92,97,112
39,-239,-278,100,158,-258,117,175,107,97,97,112
39,-239,-278,100,158,-258,117,180,107,97,97,112
39,-239,-278,100,158,-258,112,185,107,107,102,117
43,-224,-268,90,156,-246,102,180,97,112,92,122
58,-224,-283,82,170,-253,107,190,107,112,107,126
63,-224,-287,80,175,-256,107,190,107,117,112,136
73,-224,-297,75,185,-261,102,195,107,122,122,141
68,-204,-273,68,170,-239,102,204,112,136,136,146
68,-195,-263,63,165,-229,102,209,112,141,136,151
68,-195,-263,63,165,-229,102,214,112,146,141,156
63,-190,-253,63,158,-222,102,219,122,151,151,161
73,-180,-253,53,163,-217,97,234,122,151,146,170
78,-175,-253,48,165,-214,87,239,122,156,161,175
87,-170,-258,41,173,-214,87,253,131,161,170,190
112,-165,-278,26,195,-222,92,258,136,165,180,190
102,-170,-273,34,187,-222,92,263,141,185,180,214
102,-170,-273,34,187,-222,82,268,141,200,190,224
112,-165,-278,26,195,-222,82,273,151,204,200,234
122,-161,-283,19,202,-222,82,283,156,214,209,244
131,-146,-278,7,204,-212,87,297,161,224,214,253
136,-136,-273,0,204,-204,78,307,161,229,234,263
151,-117,-268,-17,209,-192,73,317,161,239,253,273
170,-112,-283,-29,226,-197,73,326,161,248,268,283
161,-107,-268,-26,214,-187,58,326,161,244,273,283
161,-102,-263,-29,212,-183,53,331,170,258,278,292
165,-97,-263,-34,214,-180,48,341,170,268,278,302
185,-92,-278,-46,231,-185,43,346,170,268,283,312
190,-82,-273,-53,231,-178,43,361,185,283,307,322
190,-73,-263,-58,226,-168,39,366,190,287,317,336
190,-53,-244,-68,217,-148,34,375,195,292,326,346
204,-48,-253,-78,229,-151,34,385,200,307,326,356
209,-48,-258,-80,234,-153,29,380,195,307,326,356
214,-39,-253,-87,234,-146,29,390,195,317,341,370
214,-39,-253,-87,234,-146,24,385,190,317,341,375
214,-39,-253,-87,234,-146,24,385,190,322,346,385
219,-43,-263,-87,241,-153,24,395,190,326,356,395
224,-34,-258,-95,241,-146,14,400,195,336,370,405
234,-24,-258,-104,246,-141,9,400,195,336,380,409
239,-19,-258,-109,248,-139,4,405,195,346,385,419
234,-9,-244,-112,239,-126,4,414,209,351,380,419
234,-9,-244,-112,239,-126,4,414,214,356,385,424
234,-4,-239,-114,236,-122,4,409,214,356,385,424
244,-4,-248,-119,246,-126,0,409,214,356,385,424
253,0,-253,-126,253,-126,0,400,204,351,385,419
248,0,-248,-124,248,-124,-4,400,200,351,385,419
234,0,-234,-117,234,-117,-4,390,200,351,390,419
244,-4,-248,-119,246,-126,0,390,200,351,390,414
239,-14,-253,-112,246,-134,4,380,200,341,380,409
224,-14,-239,-104,231,-126,4,375,204,331,375,395
209,-24,-234,-92,222,-129,9,370,204,322,356,390
204,-34,-239,-85,222,-136,14,356,195,307,341,380
204,-29,-234,-87,219,-131,19,341,195,297,326,361
200,-29,-229,-85,214,-129,24,331,195,297,307,341
195,-29,-224,-82,209,-126,29,322,185,283,292,326
180,-34,-214,-73,197,-124,34,307,185,268,283,312
161,-63,-224,-48,192,-143,39,292,180,258,273,292
151,-73,-224,-39,187,-148,48,283,175,239,258,283
146,-73,-219,-36,183,-146,53,273,175,229,244,263
126,-82,-209,-21,168,-146,58,263,170,209,229,244
117,-112,-229,-2,173,-170,63,258,156,200,214,234
107,-117,-224,4,165,-170,68,239,156,190,200,219
92,-131,-224,19,158,-178,68,224,156,170,185,204
82,-141,-224,29,153,-183,73,214,146,161,170,190
82,-146,-229,31,156,-187,82,200,141,156,165,175
73,-156,-229,41,151,-192,82,190,141,151,146,161
63,-156,-219,46,141,-187,92,180,141,141,141,156
58,-161,-219,51,139,-190,97,170,131,131,136,136
39,-180,-219,70,129,-200,87,146,112,107,112,122
39,-185,-224,73,131,-204,92,136,112,97,97,117
29,-190,-219,80,124,-204,97,131,107,87,92,107
24,-204,-229,90,126,-217,102,126,102,78,82,97
29,-195,-224,82,126,-209,112,117,107,78,78,87
24,-200,-224,87,124,-212,107,112,102,63,63,78
24,-200,-224,87,124,-212,107,102,97,58,53,68
19,-204,-224,92,122,-214,107,92,92,58,53,68
14,-224,-239,104,126,-231,97,82,92,53,48,68
9,-224,-234,107,122,-229,102,82,87,48,48,63
4,-229,-234,112,119,-231,102,68,82,43,39,58
0,-234,-234,117,117,-234,102,63,78,34,34,53
-4,-229,-224,117,109,-226,97,68,78,39,24,43
-4,-229,-224,117,109,-226,97,63,73,34,19,39
-4,-229,-224,117,109,-226,97,63,68,29,14,34
-4,-229,-224,117,109,-226,97,58,63,29,14,34
4,-234,-239,114,122,-236,92,53,68,29,9,29
4,-234,-239,114,122,-236,82,48,63,24,4,29
4,-234,-239,114,122,-236,92,43,63,24,4,29
0,-234,-234,117,117,-234,102,43,63,24,4,29
-9,-234,-224,122,107,-229,97,34,58,19,0,24
-9,-234,-224,122,107,-229,92,34,63,14,0,19
-9,-244,-234,126,112,-239,87,34,63,9,-4,19
-9,-248,-239,129,114,-244,82,34,58,0,-4,19
-9,-248,-239,129,114,-244,73,39,58,4,0,29
-9,-248,-239,129,114,-244,78,39,58,9,-4,29
-9,-239,-229,124,109,-234,78,39,58,14,-4,29
-14,-248,-234,131,109,-241,78,34,58,19,-4,29
-14,-239,-224,126,104,-231,73,34,58,9,4,29
-14,-239,-224,126,104,-231,78,34,58,9,4,29
-14,-239,-224,126,104,-231,82,34,58,9,0,29
-14,-239,-224,126,104,-231,87,34,58,9,0,24
-14,-253,-239,134,112,-246,78,34,58,14,-4,24
-14,-253,-239,134,112,-246,78,34,58,14,-4,24
-14,-248,-234,131,109,-241,78,34,58,14,0,24
-14,-248,-234,131,109,-241,78,34,53,9,0,29
-14,-248,-234,131,109,-241,87,39,53,4,-4,29
-14,-239,-224,126,104,-231,87,39,53,4,-4,29
-14,-239,-224,126,104,-231,92,39,53,4,-4,24
-14,-239,-224,126,104,-231,92,39,53,9,-9,24
-4,-239,-234,122,114,-236,87,39,53,9,-9,29
-4,-253,-248,129,122,-251,82,34,48,9,-9,29
-4,-253,-248,129,122,-251,78,34,48,9,-9,19
0,-253,-253,126,126,-253,73,39,48,9,-4,19
0,-244,-244,122,122,-244,82,29,48,4,-4,19
0,-244,-244,122,122,-244,78,29,48,4,-4,24
0,-244,-244,122,122,-244,78,29,48,4,0,34
0,-244,-244,122,122,-244,78,29,48,4,0,34
-9,-253,-244,131,117,-248,78,29,43,4,-14,29
-9,-263,-253,136,122,-258,78,29,43,4,-14,29
-9,-253,-244,131,117,-248,78,29,43,4,-14,24
-9,-244,-234,126,112,-239,82,34,48,4,-14,24
-9,-258,-248,134,119,-253,73,34,48,0,-19,14
-14,-258,-244,136,114,-251,73,29,39,0,-19,14
-14,-258,-244,136,114,-251,73,24,39,0,-19,19
-14,-258,-244,136,114,-251,73,24,39,0,-19,19
-4,-248,-244,126,119,-246,78,34,29,-4,-14,24
-9,-248,-239,129,114,-244,82,34,34,-4,-14,24
-9,-248,-239,129,114,-244,82,34,34,-9,-14,24
-4,-253,-248,129,122,-251,87,34,34,-9,-19,19
-4,-253,-248,129,122,-251,87,24,43,0,-19,14
-9,-253,-244,131,117,-248,87,29,43,0,-19,14
-9,-248,-239,129,114,-244,87,29,43,0,-19,14
-9,-248,-239,129,114,-244,87,29,43,0,-19,14
-9,-244,-234,126,112,-239,78,24,43,-9,-14,24
-9,-244,-234,126,112,-239,78,24,43,-9,-14,24
-14,-248,-234,131,109,-241,82,19,43,-9,-14,24
-14,-248,-234,131,109,-241,82,19,43,-9,-9,24
-14,-234,-219,124,102,-226,78,19,53,-9,-19,14
-9,-234,-224,122,107,-229,78,24,53,-9,-19,14
-9,-234,-224,122,107,-229,73,24,53,-9,-19,14
-14,-234,-219,124,102,-226,73,24,53,-9,-14,14
-14,-239,-224,126,104,-231,78,24,53,-9,-24,19
-9,-244,-234,126,112,-239,78,24,48,-9,-24,19
-9,-248,-239,129,114,-244,82,24,43,-4,-24,19
-9,-244,-234,126,112,-239,82,24,39,-4,-24,19
-9,-244,-234,126,112,-239,73,29,39,-14,-14,14
-9,-244,-234,126,112,-239,73,29,39,-19,-19,14
-9,-244,-234,126,112,-239,73,24,39,-19,-19,14
-14,-253,-239,134,112,-246,73,24,39,-19,-19,14
-14,-258,-244,136,114,-251,73,14,48,-9,-29,9
-9,-244,-234,126,112,-239,73,14,48,-9,-29,9
-9,-239,-229,124,109,-234,73,14,48,-9,-29,9
-14,-234,-219,124,102,-226,73,14,53,-9,-24,14
-14,-239,-224,126,104,-231,87,24,53,-9,-14,4
-19,-244,-224,131,102,-234,92,24,53,-9,-14,4
-19,-248,-229,134,104,-239,92,24,53,-9,-19,4
-19,-244,-224,131,102,-234,87,24,53,-4,-19,4
-19,-239,-219,129,100,-229,82,24,53,-14,-19,14
-14,-239,-224,126,104,-231,82,24,53,-14,-19,9
-14,-239,-224,126,104,-231,82,24,53,-14,-14,9
-14,-239,-224,126,104,-231,82,24,53,-14,-14,9
-24,-239,-214,131,95,-226,78,14,53,-14,-14,9
-24,-244,-219,134,97,-231,78,14,53,-14,-14,9
-19,-248,-229,134,104,-239,82,14,53,-19,-14,9
-19,-248,-229,134,104,-239,87,14,53,-19,-19,14
-29,-244,-214,136,92,-229,82,14,53,-4,-19,14
-29,-244,-214,136,92,-229,82,14,53,-4,-19,14
-29,-239,-209,134,90,-224,78,14,53,-4,-14,14
-29,-229,-200,129,85,-214,78,14,53,-9,-14,14
-39,-234,-195,136,78,-214,78,24,43,-19,-24,4
-39,-239,-200,139,80,-219,78,24,48,-14,-24,4
-39,-248,-209,143,85,-229,82,24,48,-14,-24,4
-39,-253,-214,146,87,-234,82,19,48,-19,-24,4
-34,-248,-214,141,90,-231,78,19,43,-19,-14,4
-29,-244,-214,136,92,-229,78,24,43,-14,-19,4
-19,-239,-219,129,100,-229,78,24,48,-9,-19,4
-14,-234,-219,124,102,-226,78,19,48,-4,-19,4
-29,-244,-214,136,92,-229,78,29,53,-14,-19,9
-29,-244,-214,136,92,-229,82,29,53,-4,-19,9
-29,-244,-214,136,92,-229,82,29,53,-4,-19,14
-29,-248,-219,139,95,-234,87,19,53,-4,-19,14
-39,-248,-209,143,85,-229,78,9,48,-14,-29,9
-34,-244,-209,139,87,-226,78,14,48,-14,-29,9
-34,-244,-209,139,87,-226,78,14,43,-14,-29,4
-34,-244,-209,139,87,-226,78,19,39,-14,-24,0
-34,-244,-209,139,87,-226,78,19,48,-4,-24,9
-39,-239,-200,139,80,-219,78,19,48,-9,-24,9
-39,-239,-200,139,80,-219,78,14,53,-9,-24,9
-34,-239,-204,136,85,-222,78,14,53,-4,-24,9
-24,-239,-214,131,95,-226,82,14,48,-14,-29,0
-24,-239,-214,131,95,-226,78,14,43,-19,-29,0
-24,-248,-224,136,100,-236,78,9,43,-24,-29,0
-24,-248,-224,136,100,-236,82,9,43,-24,-34,0
-39,-248,-209,143,85,-229,78,9,43,-14,-29,0
-39,-239,-200,139,80,-219,78,9,39,-14,-29,4
-34,-239,-204,136,85,-222,78,9,39,-19,-29,9
-34,-244,-209,139,87,-226,73,9,39,-19,-24,14
-24,-239,-214,131,95,-226,82,19,39,-19,-34,4
-24,-239,-214,131,95,-226,82,19,39,-19,-34,4
-34,-244,-209,139,87,-226,87,14,39,-19,-34,9
-34,-239,-204,136,85,-222,87,14,39,-19,-29,9
-29,-244,-214,136,92,-229,73,4,29,-29,-39,0
-34,-239,-204,136,85,-222,73,4,29,-29,-39,0
-39,-239,-200,139,80,-219,73,4,29,-29,-39,0
-43,-248,-204,146,80,-226,73,4,29,-29,-39,0
-43,-239,-195,141,75,-217,58,-4,24,-34,-53,0
-43,-229,-185,136,70,-207,58,-4,24,-34,-53,-4
-43,-229,-185,136,70,-207,63,-4,24,-39,-53,-4
-43,-219,-175,131,65,-197,63,-9,24,-43,-53,-4
-34,-209,-175,122,70,-192,53,-19,19,-34,-53,-14
-29,-190,-161,109,65,-175,53,-19,14,-34,-53,-14
-29,-170,-141,100,56,-156,53,-14,14,-39,-53,-4
-39,-161,-122,100,41,-141,53,-14,9,-48,-53,-4
-43,-165,-122,104,39,-143,53,-19,14,-53,-63,-14
-48,-165,-117,107,34,-141,53,-19,4,-58,-73,-24
-48,-161,-112,104,31,-136,53,-24,4,-58,-73,-24
-48,-156,-107,102,29,-131,53,-24,4,-58,-73,-24
-58,-151,-92,104,17,-122,48,-24,0,-63,-82,-24
-58,-151,-92,104,17,-122,48,-29,0,-68,-82,-29
-58,-146,-87,102,14,-117,43,-34,-4,-73,-87,-34
-58,-141,-82,100,12,-112,34,-34,-9,-78,-87,-43
-58,-136,-78,97,9,-107,24,-34,-14,-92,-92,-53
-58,-126,-68,92,4,-97,29,-39,-19,-92,-97,-53
-58,-122,-63,90,2,-92,29,-39,-24,-82,-97,-53
-58,-117,-58,87,0,-87,29,-48,-34,-82,-102,-48
-58,-112,-53,85,-2,-82,29,-58,-29,-87,-92,-48
-63,-117,-53,90,-4,-85,29,-53,-24,-87,-92,-48
-63,-122,-58,92,-2,-90,29,-53,-19,-87,-92,-48
-63,-107,-43,85,-9,-75,29,-53,-19,-82,-92,-48
-73,-107,-34,90,-19,-70,29,-58,-29,-92,-102,-63
-63,-102,-39,82,-12,-70,29,-58,-29,-102,-112,-63
-63,-102,-39,82,-12,-70,29,-58,-19,-102,-117,-58
-68,-107,-39,87,-14,-73,29,-58,-19,-97,-117,-58
-63,-102,-39,82,-12,-70,24,-58,-34,-97,-117,-58
-63,-82,-19,73,-21,-51,24,-58,-34,-102,-117,-58
-63,-87,-24,75,-19,-56,24,-58,-34,-102,-117,-63
-68,-82,-14,75,-26,-48,24,-58,-39,-102,-117,-63
-73,-73,0,73,-36,-36,19,-58,-48,-112,-126,-73
-78,-68,9,73,-43,-29,24,-63,-48,-112,-126,-73
-78,-68,9,73,-43,-29,19,-73,-43,-112,-122,-73
-82,-68,14,75,-48,-26,14,-78,-43,-112,-122,-73
-73,-78,-4,75,-34,-41,-4,-73,-53,-112,-122,-73
-73,-73,0,73,-36,-36,4,-73,-53,-112,-122,-73
-73,-63,9,68,-41,-26,14,-68,-48,-107,-122,-73
-73,-58,14,65,-43,-21,14,-68,-48,-107,-122,-73
-82,-58,24,70,-53,-17,4,-68,-58,-107,-131,-82
-82,-63,19,73,-51,-21,4,-68,-58,-112,-136,-82
-82,-63,19,73,-51,-21,0,-78,-58,-122,-136,-82
-78,-58,19,68,-48,-19,-4,-82,-63,-126,-136,-82
-78,-48,29,63,-53,-9,-9,-87,-63,-131,-136,-87
-78,-48,29,63,-53,-9,-9,-82,-63,-131,-136,-87
-78,-43,34,61,-56,-4,-4,-82,-58,-126,-136,-82
-82,-43,39,63,-61,-2,-4,-87,-58,-126,-141,-82
-92,-39,53,65,-73,7,-14,-87,-63,-136,-151,-92
-92,-29,63,61,-78,17,-14,-87,-68,-136,-146,-92
-92,-19,73,56,-82,26,-14,-87,-68,-136,-146,-92
-92,-9,82,51,-87,36,-14,-92,-73,-136,-141,-92
-92,4,97,43,-95,51,-24,-97,-82,-146,-146,-97
-87,14,102,36,-95,58,-24,-97,-92,-151,-151,-102
-87,24,112,31,-100,68,-24,-102,-92,-151,-161,-112
-92,24,117,34,-104,70,-24,-107,-92,-151,-165,-117
-82,34,117,24,-100,75,-34,-117,-87,-151,-170,-117
-87,39,126,24,-107,82,-29,-117,-87,-156,-165,-117
-87,39,126,24,-107,82,-29,-117,-97,-156,-165,-117
-87,39,126,24,-107,82,-29,-117,-97,-156,-165,-117
-87,39,126,24,-107,82,-29,-117,-97,-156,-165,-117
-87,39,126,24,-107,82,-29,-117,-97,-156,-165,-117
-87,48,136,19,-112,92,-29,-117,-97,-156,-175,-126
-87,48,136,19,-112,92,-29,-117,-97,-156,-175,-126
-87,48,136,19,-112,92,-29,-117,-97,-156,-175,-126
-87,48,136,19,-112,92,-29,-117,-97,-156,-175,-126
-78,48,126,14,-102,87,-29,-107,-87,-156,-165,-117
-78,48,126,14,-102,87,-29,-107,-87,-156,-165,-117
-78,48,126,14,-102,87,-29,-107,-87,-156,-165,-117
-78,48,126,14,-102,87,-29,-107,-87,-156,-165,-117
-87,39,126,24,-107,82,-39,-117,-97,-165,-175,-117
-87,39,126,24,-107,82,-39,-117,-97,-165,-175,-117
-87,39,126,24,-107,82,-39,-117,-97,-165,-175,-117
-87,39,126,24,-107,82,-39,-117,-97,-165,-175,-117
-87,39,126,24,-107,82,-39,-117,-97,-165,-175,-117
-87,39,126,24,-107,82,-39,-117,-97,-165,-175,-117
-87,39,126,24,-107,82,-39,-117,-97,-165,-175,-117
-87,39,126,24,-107,82,-39,-117,-97,-165,-175,-117
-87,39,126,24,-107,82,-29,-117,-97,-156,-175,-117
-87,39,126,24,-107,82,-29,-117,-97,-156,-175,-117
-87,39,126,24,-107,82,-29,-117,-97,-156,-175,-117
-87,48,136,19,-112,92,-29,-117,-92,-156,-175,-117
-87,48,136,19,-112,92,-29,-107,-82,-156,-170,-117
-87,43,131,21,-109,87,-29,-102,-82,-156,-165,-117
-87,34,122,26,-104,78,-29,-102,-82,-156,-161,-117
-82,43,126,19,-104,85,-29,-102,-82,-151,-156,-112
-73,63,136,4,-104,100,-34,-107,-82,-151,-161,-112
-68,63,131,2,-100,97,-34,-107,-87,-151,-161,-112
-68,68,136,0,-102,102,-34,-102,-92,-151,-161,-107
-68,73,141,-2,-104,107,-34,-102,-87,-141,-151,-102
-53,63,117,-4,-85,90,-29,-97,-68,-146,-156,-92
-48,78,126,-14,-87,102,-29,-92,-63,-141,-151,-82
-43,87,131,-21,-87,109,-14,-78,-53,-122,-141,-78
-43,92,136,-24,-90,114,-9,-68,-43,-122,-136,-73
-58,82,141,-12,-100,112,0,-58,-43,-117,-126,-82
-63,82,146,-9,-104,114,4,-58,-34,-117,-126,-82
-63,82,146,-9,-104,114,14,-53,-34,-107,-122,-78
-63,82,146,-9,-104,114,24,-48,-29,-107,-117,-78
-63,92,156,-14,-109,124,19,-48,-29,-117,-117,-68
-73,87,161,-7,-117,124,19,-43,-24,-112,-117,-63
-73,87,161,-7,-117,124,24,-43,-24,-112,-117,-63
-73,87,161,-7,-117,124,24,-43,-24,-112,-117,-63
-63,97,161,-17,-112,129,14,-34,-29,-107,-117,-73
-58,97,156,-19,-107,126,4,-34,-29,-107,-117,-73
-53,92,146,-19,-100,119,-9,-43,-34,-102,-117,-73
-43,92,136,-24,-90,114,-14,-48,-43,-107,-122,-73
-29,92,122,-31,-75,107,-34,-63,-43,-117,-122,-73
-24,97,122,-36,-73,109,-48,-63,-39,-117,-122,-73
-24,107,131,-41,-78,119,-63,-68,-39,-112,-122,-68
-24,112,136,-43,-80,124,-68,-73,-43,-112,-122,-68
-24,112,136,-43,-80,124,-68,-92,-53,-126,-136,-78
-24,112,136,-43,-80,124,-68,-97,-53,-131,-136,-78
-29,107,136,-39,-82,122,-68,-102,-58,-136,-136,-82
-29,97,126,-34,-78,112,-68,-112,-73,-141,-141,-82
-29,97,126,-34,-78,112,-58,-102,-73,-141,-146,-82
-39,92,131,-26,-85,112,-48,-102,-78,-141,-156,-87
-39,87,126,-24,-82,107,-48,-102,-78,-146,-156,-87
-39,82,122,-21,-80,102,-48,-102,-82,-146,-161,-87
-48,82,131,-17,-90,107,-53,-112,-92,-156,-161,-92
-48,82,131,-17,-90,107,-53,-112,-92,-156,-156,-92
-48,78,126,-14,-87,102,-58,-112,-92,-156,-156,-92
-43,78,122,-17,-82,100,-63,-112,-92,-156,-156,-92
-29,78,107,-24,-68,92,-53,-112,-92,-156,-165,-92
-29,68,97,-19,-63,82,-53,-112,-102,-161,-165,-92
-29,63,92,-17,-61,78,-53,-112,-102,-165,-175,-102
-29,58,87,-14,-58,73,-53,-112,-107,-165,-175,-102
-29,58,87,-14,-58,73,-48,-107,-97,-165,-170,-92
-19,58,78,-19,-48,68,-53,-107,-97,-165,-170,-92
-19,58,78,-19,-48,68,-53,-107,-97,-165,-170,-92
-19,53,73,-17,-46,63,-53,-117,-107,-175,-175,-92
-19,58,78,-19,-48,68,-53,-117,-117,-175,-175,-97
-29,53,82,-12,-56,68,-53,-122,-117,-175,-180,-102
-34,58,92,-12,-63,75,-53,-131,-122,-180,-185,-107
-48,63,112,-7,-80,87,-43,-131,-122,-180,-185,-107
-48,53,102,-2,-75,78,-43,-136,-117,-180,-195,-107
-48,53,102,-2,-75,78,-39,-136,-117,-180,-195,-117
-63,43,107,9,-85,75,-34,-136,-117,-190,-195,-122
-73,34,107,19,-90,70,-24,-136,-117,-190,-200,-122
-82,43,126,19,-104,85,-24,-126,-117,-185,-200,-131
-82,43,126,19,-104,85,-24,-126,-117,-185,-200,-131
-82,43,126,19,-104,85,-29,-131,-117,-190,-200,-131
-82,43,126,19,-104,85,-39,-131,-117,-190,-204,-131
-82,34,117,24,-100,75,-29,-131,-117,-190,-200,-126
-82,29,112,26,-97,70,-34,-136,-122,-190,-200,-126
-82,24,107,29,-95,65,-34,-136,-122,-190,-195,-126
-82,19,102,31,-92,61,-34,-136,-122,-190,-195,-126
-82,29,112,26,-97,70,-34,-136,-112,-190,-204,-136
-87,29,117,29,-102,73,-34,-136,-112,-190,-204,-136
-87,29,117,29,-102,73,-34,-136,-112,-190,-204,-136
-82,29,112,26,-97,70,-29,-136,-112,-190,-209,-136
-82,29,112,26,-97,70,-29,-131,-117,-200,-209,-136
-82,29,112,26,-97,70,-29,-131,-122,-200,-209,-136
-82,29,112,26,-97,70,-29,-131,-126,-200,-209,-136
-82,29,112,26,-97,70,-29,-131,-131,-200,-209,-136
-73,39,112,17,-92,75,-29,-131,-122,-190,-209,-136
-78,39,117,19,-97,78,-29,-131,-122,-190,-204,-136
-82,29,112,26,-97,70,-29,-131,-122,-190,-204,-136
-82,29,112,26,-97,70,-29,-131,-122,-190,-204,-136
-82,34,117,24,-100,75,-14,-131,-112,-190,-204,-126
-82,34,117,24,-100,75,-14,-131,-107,-190,-204,-126
-78,34,112,21,-95,73,-14,-131,-107,-185,-204,-126
-73,34,107,19,-90,70,-19,-131,-107,-185,-204,-126
-82,34,117,24,-100,75,-19,-131,-102,-190,-204,-126
-82,34,117,24,-100,75,-9,-122,-102,-190,-209,-126
-87,4,92,41,-90,48,-14,-112,-117,-204,-219,-161
-87,-9,78,48,-82,34,0,-112,-131,-229,-244,-180
-78,-14,63,46,-70,24,9,-87,-136,-234,-263,-190
-73,-24,48,48,-61,12,14,-48,-136,-244,-273,-200
-63,-24,39,43,-51,7,24,19,-112,-229,-258,-195
-39,14,53,12,-46,34,39,126,-34,-156,-209,-151
0,73,73,-36,-36,73,39,273,53,-39,-107,-58
68,165,97,-117,-14,131,58,444,175,122,53,78
151,258,107,-204,21,183,63,575,326,322,248,244
219,346,126,-283,46,236,73,653,468,522,439,405
258,458,200,-358,29,329,82,717,595,697,629,580
322,556,234,-439,43,395,63,741,683,863,814,751
400,658,258,-529,70,458,9,717,702,990,966,932
468,741,273,-605,97,507,-29,678,688,1088,1112,1088
522,810,287,-666,117,549,-78,629,644,1171,1234,1220
590,883,292,-736,148,588,-165,551,600,1239,1366,1346
629,936,307,-783,161,622,-317,414,531,1307,1478,1473
614,956,341,-785,136,649,-444,253,483,1342,1546,1561
546,971,424,-758,61,697,-497,126,429,1342,1576,1600
483,941,458,-712,12,700,-531,14,346,1278,1522,1561
405,858,453,-631,-24,656,-590,-131,195,1098,1332,1415
322,732,409,-527,-43,570,-600,-287,29,814,1054,1180
229,619,390,-424,-80,505,-556,-375,-73,575,775,912
151,546,395,-348,-122,470,-497,-424,-122,385,546,668
73,483,409,-278,-168,446,-424,-439,-136,224,341,453
4,390,385,-197,-190,387,-331,-409,-161,68,156,263
-53,312,366,-129,-209,339,-244,-361,-161,-29,29,122
-82,278,361,-97,-222,319,-204,-341,-170,-87,-43,43
-82,248,331,-82,-207,290,-190,-331,-165,-117,-82,14
-63,253,317,-95,-190,285,-170,-278,-136,-97,-68,24
-73,248,322,-87,-197,285,-146,-234,-126,-78,-58,24
-78,219,297,-70,-187,258,-136,-209,-136,-102,-73,4
-78,200,278,-61,-178,239,-122,-175,-126,-107,-97,-9
-78,165,244,-43,-161,204,-112,-156,-117,-112,-107,-39
-73,156,229,-41,-151,192,-112,-156,-117,-126,-107,-53
-78,156,234,-39,-156,195,-97,-146,-107,-117,-122,-53
-78,131,209,-26,-143,170,-92,-146,-117,-126,-131,-53
-73,112,185,-19,-129,148,-78,-151,-126,-141,-151,-68
-73,107,180,-17,-126,143,-58,-141,-126,-141,-151,-73
-73,92,165,-9,-119,129,-39,-117,-122,-146,-156,-73
-63,82,146,-9,-104,114,-29,-92,-112,-151,-161,-82
-73,63,136,4,-104,100,-29,-87,-117,-156,-170,-102
-63,68,131,-2,-97,100,-29,-82,-112,-156,-175,-107
-63,58,122,2,-92,90,-29,-82,-112,-156,-175,-107
-53,58,112,-2,-82,85,-29,-82,-112,-156,-170,-107
-63,58,122,2,-92,90,-29,-87,-112,-156,-170,-117
-63,58,122,2,-92,90,-19,-87,-107,-156,-180,-107
-68,58,126,4,-97,92,-14,-87,-107,-156,-180,-107
-68,58,126,4,-97,92,-14,-82,-107,-161,-180,-107
-68,53,122,7,-95,87,-14,-82,-107,-165,-185,-112
-78,43,122,17,-100,82,-19,-82,-107,-175,-195,-112
-73,43,117,14,-95,80,-19,-82,-107,-170,-195,-112
-68,43,112,12,-90,78,-19,-78,-102,-170,-195,-112
-68,43,112,12,-90,78,-19,-78,-102,-170,-195,-107
-73,39,112,17,-92,75,-14,-78,-107,-165,-195,-107
-73,43,117,14,-95,80,-9,-78,-117,-170,-190,-107
-73,48,122,12,-97,85,-4,-78,-107,-170,-180,-112
-73,53,126,9,-100,90,0,-78,-107,-170,-175,-112
-63,63,126,0,-95,95,-4,-78,-112,-175,-175,-107
-63,63,126,0,-95,95,-9,-78,-112,-170,-175,-107
-58,68,126,-4,-92,97,-9,-78,-107,-165,-180,-107
-58,68,126,-4,-92,97,-9,-73,-107,-165,-180,-102
-58,68,126,-4,-92,97,0,-73,-97,-156,-175,-92
-58,68,126,-4,-92,97,-4,-68,-97,-156,-175,-92
-58,73,131,-7,-95,102,-4,-68,-97,-156,-175,-92
-58,73,131,-7,-95,102,-4,-63,-97,-156,-170,-97
-58,73,131,-7,-95,102,-4,-63,-97,-156,-180,-107
-58,63,122,-2,-90,92,-4,-63,-97,-156,-180,-102
-58,63,122,-2,-90,92,-4,-63,-97,-156,-175,-102
-58,68,126,-4,-92,97,-4,-58,-87,-146,-170,-97
-63,73,136,-4,-100,104,4,-48,-87,-156,-170,-97
-63,73,136,-4,-100,104,4,-43,-92,-156,-170,-97
-63,73,136,-4,-100,104,4,-43,-92,-161,-170,-97
-63,73,136,-4,-100,104,4,-43,-92,-161,-170,-92
-58,92,151,-17,-104,122,-4,-53,-92,-151,-161,-92
-53,82,136,-14,-95,109,-4,-48,-92,-151,-161,-92
-48,82,131,-17,-90,107,-4,-48,-87,-146,-156,-92
-34,87,122,-26,-78,104,-4,-43,-82,-146,-156,-92
-43,87,131,-21,-87,109,0,-43,-82,-146,-161,-87
-43,87,131,-21,-87,109,0,-43,-82,-146,-161,-82
-48,87,136,-19,-92,112,-4,-43,-82,-141,-161,-82
-53,87,141,-17,-97,114,-4,-43,-82,-136,-156,-82
-43,97,141,-26,-92,119,-4,-29,-92,-131,-156,-78
-39,97,136,-29,-87,117,-4,-29,-92,-131,-151,-78
-39,97,136,-29,-87,117,-4,-29,-87,-136,-151,-78
-39,97,136,-29,-87,117,-4,-29,-87,-136,-156,-78
-43,87,131,-21,-87,109,-4,-34,-82,-131,-156,-78
-43,87,131,-21,-87,109,-9,-34,-82,-126,-156,-78
-43,92,136,-24,-90,114,-9,-34,-82,-126,-151,-78
-43,92,136,-24,-90,114,-9,-24,-78,-126,-146,-73
-34,97,131,-31,-82,114,0,-14,-78,-126,-146,-73
-29,102,131,-36,-80,117,0,-9,-73,-122,-146,-68
-29,107,136,-39,-82,122,0,-9,-73,-122,-141,-63
-24,112,136,-43,-80,124,0,-4,-73,-122,-141,-63
-24,117,141,-46,-82,129,-9,-14,-68,-117,-126,-63
-24,117,141,-46,-82,129,-9,-14,-63,-112,-126,-63
-24,117,141,-46,-82,129,-9,-9,-63,-112,-126,-63
-19,122,141,-51,-80,131,-9,-9,-63,-112,-122,-58
-19,122,141,-51,-80,131,-14,-4,-63,-112,-131,-58
-19,126,146,-53,-82,136,-14,-4,-63,-112,-131,-58
-19,126,146,-53,-82,136,-9,0,-63,-112,-126,-53
-19,126,146,-53,-82,136,-9,0,-63,-112,-126,-53
-24,126,151,-51,-87,139,-4,4,-58,-107,-122,-53
-24,126,151,-51,-87,139,-4,4,-58,-102,-122,-53
-19,126,146,-53,-82,136,-4,14,-58,-102,-122,-43
-19,131,151,-56,-85,141,-4,19,-53,-92,-107,-43
-19,131,151,-56,-85,141,-4,19,-43,-92,-107,-43
-14,131,146,-58,-80,139,-4,19,-43,-92,-107,-39
-9,141,151,-65,-80,146,-4,29,-43,-87,-102,-29
-4,141,146,-68,-75,143,0,29,-39,-87,-102,-29
0,146,146,-73,-73,146,0,39,-48,-87,-102,-24
4,151,146,-78,-70,148,0,53,-43,-82,-92,-19
9,156,146,-82,-68,151,0,53,-43,-73,-87,-19
14,170,156,-92,-70,163,0,58,-39,-68,-82,-14
19,161,141,-90,-61,151,-14,53,-29,-73,-78,-14
19,161,141,-90,-61,151,-19,58,-29,-68,-78,-14
14,156,141,-85,-63,148,-19,63,-29,-68,-78,-14
9,151,141,-80,-65,146,-24,68,-29,-58,-73,-9
14,170,156,-92,-70,163,-14,82,-19,-43,-63,4
29,175,146,-102,-58,161,-9,92,-9,-43,-48,9
34,180,146,-107,-56,163,-9,92,-9,-39,-43,19
43,185,141,-114,-48,163,-14,97,-9,-34,-34,24
43,190,146,-117,-51,168,-14,97,-14,-29,-34,19
48,195,146,-122,-48,170,-14,102,-14,-24,-39,24
53,190,136,-122,-41,163,-14,107,-14,-19,-39,29
53,190,136,-122,-41,163,-14,112,-4,-14,-34,34
68,209,141,-139,-36,175,-9,126,-4,-9,-19,53
68,214,146,-141,-39,180,-19,131,-4,0,-4,58
73,219,146,-146,-36,183,-19,146,4,9,4,73
92,224,131,-158,-19,178,-14,151,9,19,14,73
87,219,131,-153,-21,175,-24,156,24,29,14,87
82,219,136,-151,-26,178,-34,161,24,43,24,97
87,224,136,-156,-24,180,-34,165,34,48,34,107
92,229,136,-161,-21,183,-34,175,39,58,43,117
97,229,131,-163,-17,180,-39,190,53,68,53,117
97,234,136,-165,-19,185,-48,200,53,73,68,126
107,248,141,-178,-17,195,-53,209,53,82,82,136
122,248,126,-185,-2,187,-53,219,53,92,92,146
122,263,141,-192,-9,202,-53,239,53,87,92,156
122,268,146,-195,-12,207,-53,244,63,102,102,165
126,273,146,-200,-9,209,-53,253,63,112,107,175
146,278,131,-212,7,204,-53,258,63,112,117,185
161,283,122,-222,19,202,-53,263,68,136,131,204
161,287,126,-224,17,207,-58,268,73,141,141,219
161,302,141,-231,9,222,-63,278,78,146,151,229
175,302,126,-239,24,214,-63,287,82,161,151,239
180,312,131,-246,24,222,-68,287,87,161,170,229
185,322,136,-253,24,229,-68,302,87,170,185,244
185,322,136,-253,24,229,-73,302,82,170,185,248
185,322,136,-253,24,229,-73,307,82,175,190,258
190,336,146,-263,21,241,-73,317,102,185,200,268
195,346,151,-270,21,248,-82,322,107,200,214,278
204,356,151,-280,26,253,-87,322,107,204,224,283
209,361,151,-285,29,256,-92,326,107,219,229,292
209,356,146,-283,31,251,-82,326,112,214,224,302
204,351,146,-278,29,248,-82,326,117,219,229,307
200,351,151,-275,24,251,-82,322,117,219,229,307
204,346,141,-275,31,244,-87,322,117,219,229,307
209,366,156,-287,26,261,-87,331,117,224,229,302
209,370,161,-290,24,265,-92,331,112,224,229,302
200,375,175,-287,12,275,-92,322,112,224,234,302
214,375,161,-295,26,268,-87,322,112,224,234,297
224,375,151,-300,36,263,-82,312,122,229,239,302
214,375,161,-295,26,268,-82,307,126,224,239,287
204,366,161,-285,21,263,-78,302,126,219,224,283
204,356,151,-280,26,253,-73,287,117,209,214,273
190,346,156,-268,17,251,-78,273,117,190,209,253
180,341,161,-261,9,251,-73,263,117,190,190,234
170,336,165,-253,2,251,-68,253,107,175,175,219
151,326,175,-239,-12,251,-63,239,107,161,165,204
146,307,161,-226,-7,234,-58,224,92,161,146,195
141,297,156,-219,-7,226,-48,214,87,141,131,185
141,297,156,-219,-7,226,-43,204,87,131,117,165
126,287,161,-207,-17,224,-39,195,82,112,102,146
107,278,170,-192,-31,224,-34,170,68,102,87,136
97,273,175,-185,-39,224,-29,151,68,92,73,122
82,258,175,-170,-46,217,-29,136,68,73,58,107
73,248,175,-161,-51,212,-24,126,58,63,43,92
63,239,175,-151,-56,207,-34,112,43,48,29,78
53,224,170,-139,-58,197,-34,102,43,43,9,63
43,219,175,-131,-65,197,-24,92,43,34,4,58
39,209,170,-124,-65,190,-19,82,34,24,0,39
29,204,175,-117,-73,190,-19,68,34,9,-4,34
29,204,175,-117,-73,190,-14,58,34,0,-19,29
19,204,185,-112,-82,195,-9,53,29,-9,-24,19
14,195,180,-104,-82,187,-4,48,24,-19,-34,9
19,185,165,-102,-73,175,-4,29,14,-24,-58,-4
14,180,165,-97,-75,173,-9,24,4,-43,-73,-19
14,180,165,-97,-75,173,-9,14,-4,-53,-82,-34
9,175,165,-92,-78,170,-9,4,-14,-58,-82,-39
4,165,161,-85,-78,163,-9,-4,-4,-53,-87,-39
0,165,165,-82,-82,165,-4,-4,-9,-58,-87,-43
-4,161,165,-78,-85,163,-4,-19,-14,-63,-97,-48
-9,156,165,-73,-87,161,-4,-24,-19,-73,-102,-53
-14,141,156,-63,-85,148,-9,-29,-9,-68,-92,-53
-14,141,156,-63,-85,148,-9,-34,-14,-73,-97,-58
-14,141,156,-63,-85,148,-9,-34,-19,-78,-102,-63
-14,141,156,-63,-85,148,-9,-39,-24,-78,-102,-63
-14,126,141,-56,-78,134,-9,-39,-19,-87,-107,-68
-14,126,141,-56,-78,134,-14,-39,-24,-92,-112,-68
-14,126,141,-56,-78,134,0,-39,-24,-92,-112,-68
-19,126,146,-53,-82,136,14,-34,-24,-92,-112,-68
-19,126,146,-53,-82,136,9,-43,-24,-92,-107,-73
-19,126,146,-53,-82,136,4,-43,-24,-92,-107,-78
-19,117,136,-48,-78,126,0,-43,-29,-92,-112,-78
-19,112,131,-46,-75,122,-4,-43,-39,-97,-112,-78
-29,112,141,-41,-85,126,-14,-58,-48,-107,-117,-87
-29,112,141,-41,-85,126,-9,-58,-48,-107,-122,-87
-29,122,151,-46,-90,136,-9,-58,-48,-107,-122,-87
-34,112,146,-39,-90,129,-9,-63,-48,-107,-122,-87
-24,102,126,-39,-75,114,-14,-53,-48,-107,-122,-78
-24,102,126,-39,-75,114,-9,-53,-48,-107,-122,-78
-24,102,126,-39,-75,114,-4,-53,-48,-107,-126,-78
-24,102,126,-39,-75,114,0,-53,-48,-107,-126,-82
-24,107,131,-41,-78,119,9,-53,-48,-92,-122,-82
-24,107,131,-41,-78,119,9,-53,-48,-92,-122,-82
-24,112,136,-43,-80,124,9,-53,-48,-92,-117,-82
-24,112,136,-43,-80,124,9,-53,-53,-97,-117,-78
-24,102,126,-39,-75,114,0,-58,-43,-102,-122,-78
-24,112,136,-43,-80,124,0,-58,-43,-102,-122,-78
-24,112,136,-43,-80,124,4,-58,-43,-102,-122,-82
-24,112,136,-43,-80,124,4,-58,-43,-97,-126,-82
-24,122,146,-48,-85,134,-4,-58,-43,-97,-117,-68
-24,107,131,-41,-78,119,-4,-63,-48,-97,-117,-68
-24,107,131,-41,-78,119,-4,-63,-48,-97,-117,-78
-19,107,126,-43,-73,117,-4,-58,-48,-97,-112,-78
-19,107,126,-43,-73,117,0,-48,-58,-112,-117,-78
-19,107,126,-43,-73,117,0,-48,-58,-112,-122,-73
-19,107,126,-43,-73,117,4,-48,-58,-112,-122,-63
-19,107,126,-43,-73,117,9,-48,-58,-112,-126,-63
-19,97,117,-39,-68,107,4,-53,-53,-102,-122,-78
-19,87,107,-34,-63,97,0,-58,-53,-102,-122,-78
-19,97,117,-39,-68,107,-4,-63,-53,-102,-122,-82
-19,107,126,-43,-73,117,-4,-63,-48,-102,-122,-82
-29,92,122,-31,-75,107,4,-53,-39,-97,-126,-73
-34,92,126,-29,-80,109,4,-58,-48,-97,-126,-73
-34,92,126,-29,-80,109,4,-63,-48,-97,-126,-68
-34,92,126,-29,-80,109,4,-63,-48,-97,-126,-68
-24,102,126,-39,-75,114,4,-53,-48,-92,-112,-73
-29,102,131,-36,-80,117,4,-53,-43,-92,-112,-73
-29,102,131,-36,-80,117,0,-53,-43,-97,-112,-73
-24,97,122,-36,-73,109,0,-53,-43,-97,-117,-78
-34,78,112,-21,-73,95,-9,-58,-48,-102,-122,-82
-39,78,117,-19,-78,97,-9,-58,-53,-107,-126,-82
-39,82,122,-21,-80,102,-9,-63,-58,-112,-131,-82
-39,82,122,-21,-80,102,-9,-68,-63,-117,-136,-82
-29,82,112,-26,-70,97,0,-53,-58,-107,-131,-82
-29,87,117,-29,-73,102,0,-53,-53,-107,-131,-82
-34,87,122,-26,-78,104,4,-58,-48,-107,-131,-82
-34,92,126,-29,-80,109,4,-58,-43,-107,-126,-82
-34,97,131,-31,-82,114,9,-68,-43,-97,-117,-82
-29,97,126,-34,-78,112,9,-63,-43,-97,-117,-82
-29,97,126,-34,-78,112,4,-63,-43,-97,-117,-82
-34,97,131,-31,-82,114,4,-63,-43,-97,-112,-82
-43,92,136,-24,-90,114,-9,-63,-43,-107,-117,-87
-39,87,126,-24,-82,107,-9,-63,-48,-107,-122,-87
-39,82,122,-21,-80,102,-4,-63,-53,-102,-126,-87
-39,87,126,-24,-82,107,-4,-63,-58,-102,-131,-87
-48,78,126,-14,-87,102,0,-58,-48,-102,-122,-82
-48,78,126,-14,-87,102,4,-58,-48,-107,-126,-82
-48,78,126,-14,-87,102,9,-63,-48,-107,-126,-82
-53,68,122,-7,-87,95,14,-63,-48,-107,-126,-82
-63,58,122,2,-92,90,14,-63,-48,-97,-126,-87
-58,68,126,-4,-92,97,14,-63,-48,-97,-126,-87
-58,68,126,-4,-92,97,14,-63,-48,-97,-126,-87
-63,68,131,-2,-97,100,14,-63,-43,-97,-122,-82
-58,78,136,-9,-97,107,19,-63,-43,-97,-122,-82
-58,78,136,-9,-97,107,24,-63,-43,-97,-122,-82
-53,78,131,-12,-92,104,24,-63,-43,-97,-126,-82
-48,87,136,-19,-92,112,19,-63,-43,-92,-126,-82
-58,78,136,-9,-97,107,14,-53,-34,-92,-126,-92
-53,73,126,-9,-90,100,14,-53,-34,-92,-126,-97
-53,68,122,-7,-87,95,14,-53,-34,-92,-122,-97
-53,63,117,-4,-85,90,14,-53,-34,-92,-122,-97
-63,73,136,-4,-100,104,9,-63,-34,-82,-112,-87
-63,68,131,-2,-97,100,9,-63,-34,-82,-112,-87
-58,63,122,-2,-90,92,14,-63,-34,-87,-112,-87
-58,63,122,-2,-90,92,19,-63,-34,-87,-117,-82
-68,73,141,-2,-104,107,14,-53,-34,-78,-126,-92
-68,68,136,0,-102,102,14,-53,-34,-82,-126,-92
-68,68,136,0,-102,102,9,-53,-34,-87,-122,-92
-68,73,141,-2,-104,107,9,-53,-34,-97,-122,-92
-68,78,146,-4,-107,112,19,-53,-34,-107,-122,-92
-68,73,141,-2,-104,107,19,-53,-29,-102,-122,-92
-68,63,131,2,-100,97,24,-53,-29,-102,-122,-92
-68,58,126,4,-97,92,24,-58,-29,-107,-122,-92
-68,58,126,4,-97,92,19,-58,-24,-97,-117,-82
-68,58,126,4,-97,92,19,-53,-24,-92,-117,-82
-63,58,122,2,-92,90,19,-53,-19,-87,-112,-82
-63,58,122,2,-92,90,19,-58,-19,-82,-107,-82
-68,58,126,4,-97,92,19,-48,-34,-87,-117,-97
-68,58,126,4,-97,92,24,-48,-34,-82,-117,-97
-68,58,126,4,-97,92,24,-48,-34,-87,-117,-92
-68,53,122,7,-95,87,29,-58,-34,-92,-117,-92
-68,43,112,12,-90,78,19,-58,-24,-87,-112,-82
-63,48,112,7,-87,80,19,-53,-19,-82,-107,-78
-63,48,112,7,-87,80,19,-53,-19,-78,-102,-78
-63,48,112,7,-87,80,19,-48,-19,-73,-92,-78
-73,48,122,12,-97,85,29,-48,-29,-78,-107,-87
-78,53,131,12,-104,92,29,-48,-29,-87,-112,-87
-78,53,131,12,-104,92,29,-53,-24,-92,-117,-87
-73,53,126,9,-100,90,29,-53,-24,-92,-122,-87
-73,53,126,9,-100,90,34,-43,-19,-87,-107,-87
-73,53,126,9,-100,90,29,-43,-24,-87,-107,-87
-73,43,117,14,-95,80,29,-48,-24,-87,-107,-87
-73,43,117,14,-95,80,34,-48,-24,-82,-112,-87
-78,43,122,17,-100,82,29,-58,-34,-82,-102,-82
-78,53,131,12,-104,92,29,-58,-39,-82,-107,-82
-73,53,126,9,-100,90,29,-58,-39,-87,-112,-82
-73,48,122,12,-97,85,24,-58,-39,-87,-112,-82
-63,39,102,12,-82,70,14,-68,-29,-97,-112,-92
-63,34,97,14,-80,65,14,-68,-29,-97,-112,-92
-73,24,97,24,-85,61,19,-73,-29,-97,-112,-87
-73,24,97,24,-85,61,19,-73,-29,-97,-107,-87
-73,39,112,17,-92,75,24,-68,-39,-97,-112,-87
-73,43,117,14,-95,80,24,-63,-39,-97,-117,-87
-73,43,117,14,-95,80,24,-58,-39,-97,-122,-87
-73,34,107,19,-90,70,24,-53,-39,-97,-126,-87
-63,24,87,19,-75,56,19,-53,-34,-97,-122,-87
-63,24,87,19,-75,56,19,-53,-34,-92,-122,-92
-63,14,78,24,-70,46,24,-53,-34,-92,-122,-92
-63,14,78,24,-70,46,24,-58,-34,-92,-122,-92
-63,19,82,21,-73,51,24,-58,-34,-87,-112,-82
-58,34,92,12,-75,63,24,-58,-34,-82,-112,-82
-58,48,107,4,-82,78,24,-53,-29,-82,-112,-73
-68,53,122,7,-95,87,24,-53,-29,-87,-112,-73
-63,34,97,14,-80,65,34,-58,-43,-102,-112,-82
-68,29,97,19,-82,63,34,-58,-53,-107,-122,-92
-68,29,97,19,-82,63,34,-63,-53,-107,-122,-92
-68,29,97,19,-82,63,34,-63,-53,-107,-122,-92
-63,39,102,12,-82,70,34,-58,-48,-102,-117,-78
-58,34,92,12,-75,63,39,-58,-39,-97,-112,-78
-53,34,87,9,-70,61,39,-58,-34,-92,-112,-78
-48,34,82,7,-65,58,34,-53,-29,-87,-107,-82
-58,24,82,17,-70,53,34,-53,-34,-102,-117,-92
-58,29,87,14,-73,58,39,-58,-39,-102,-117,-92
-58,29,87,14,-73,58,39,-58,-43,-92,-112,-92
-58,29,87,14,-73,58,39,-68,-53,-92,-112,-87
-58,34,92,12,-75,63,29,-58,-48,-97,-112,-87
-63,29,92,17,-78,61,29,-53,-43,-97,-112,-87
-63,24,87,19,-75,56,29,-53,-39,-97,-112,-87
-63,39,102,12,-82,70,29,-53,-39,-92,-112,-87
-63,29,92,17,-78,61,29,-53,-48,-92,-112,-92
-53,34,87,9,-70,61,29,-58,-48,-102,-122,-92
-53,34,87,9,-70,61,29,-63,-39,-102,-126,-87
-58,29,87,14,-73,58,29,-68,-39,-97,-126,-87
-63,19,82,21,-73,51,34,-58,-43,-87,-117,-78
-63,34,97,14,-80,65,34,-58,-43,-92,-117,-78
-63,24,87,19,-75,56,34,-58,-43,-92,-117,-82
-68,24,92,21,-80,58,34,-58,-48,-92,-117,-82
-68,24,92,21,-80,58,29,-63,-43,-78,-112,-82
-68,29,97,19,-82,63,34,-63,-39,-73,-107,-82
-63,29,92,17,-78,61,29,-68,-29,-68,-97,-82
-63,29,92,17,-78,61,24,-68,-24,-63,-92,-82
-73,24,97,24,-85,61,24,-63,-39,-87,-107,-92
-73,24,97,24,-85,61,34,-63,-43,-92,-112,-92
-73,29,102,21,-87,65,43,-58,-43,-92,-117,-92
-73,29,102,21,-87,65,43,-58,-48,-97,-122,-92
-73,24,97,24,-85,61,43,-48,-48,-92,-112,-92
-73,14,87,29,-80,51,43,-48,-48,-92,-117,-92
-73,9,82,31,-78,46,39,-58,-48,-97,-117,-92
-68,9,78,29,-73,43,34,-63,-53,-97,-117,-92
-58,14,73,21,-65,43,29,-63,-43,-92,-107,-87
-58,19,78,19,-68,48,29,-53,-43,-92,-107,-87
-58,29,87,14,-73,58,34,-48,-39,-87,-107,-82
-63,34,97,14,-80,65,34,-48,-39,-87,-112,-82
-73,19,92,26,-82,56,34,-58,-48,-97,-122,-82
-73,19,92,26,-82,56,34,-58,-48,-97,-117,-82
-73,19,92,26,-82,56,34,-58,-43,-97,-117,-82
-73,19,92,26,-82,56,34,-63,-43,-97,-112,-82
-63,24,87,19,-75,56,34,-63,-39,-92,-102,-82
-58,24,82,17,-70,53,34,-58,-43,-92,-102,-82
-58,24,82,17,-70,53,34,-58,-39,-87,-107,-87
-63,14,78,24,-70,46,34,-58,-34,-82,-107,-87
-73,24,97,24,-85,61,34,-48,-19,-73,-92,-78
-68,9,78,29,-73,43,39,-48,-29,-68,-87,-78
-68,9,78,29,-73,43,29,-58,-39,-73,-92,-87
-68,9,78,29,-73,43,29,-58,-39,-78,-97,-87
-68,9,78,29,-73,43,29,-58,-39,-82,-102,-87
-68,9,78,29,-73,43,29,-58,-39,-87,-107,-87
-78,9,87,34,-82,48,29,-58,-39,-87,-107,-97
-78,9,87,34,-82,48,29,-58,-39,-87,-107,-97
-78,9,87,34,-82,48,29,-58,-39,-87,-107,-97
-78,9,87,34,-82,48,29,-58,-39,-87,-107,-97
-68,19,87,24,-78,53,39,-48,-39,-78,-97,-87
-68,19,87,24,-78,53,39,-48,-39,-78,-97,-87
-68,19,87,24,-78,53,39,-48,-39,-78,-97,-87
-68,19,87,24,-78,53,39,-48,-39,-78,-97,-87
-68,19,87,24,-78,53,39,-48,-39,-87,-107,-87
-68,19,87,24,-78,53,39,-48,-39,-87,-107,-87
-68,19,87,24,-78,53,39,-48,-39,-87,-107,-87
-68,19,87,24,-78,53,39,-48,-39,-87,-107,-87
-78,9,87,34,-82,48,29,-58,-39,-78,-107,-97
-78,9,87,34,-82,48,29,-58,-39,-78,-107,-97
-78,9,87,34,-82,48,29,-58,-39,-78,-107,-97
-78,19,97,29,-87,58,29,-58,-34,-78,-107,-97
-87,9,97,39,-92,53,34,-58,-43,-87,-107,-87
-87,4,92,41,-90,48,39,-53,-43,-87,-107,-87
-87,-4,82,46,-85,39,43,-53,-43,-87,-107,-87
-82,4,87,39,-85,46,48,-53,-43,-82,-107,-82
-63,24,87,19,-75,56,53,-48,-29,-73,-102,-82
-58,24,82,17,-70,53,53,-48,-29,-73,-102,-82
-58,29,87,14,-73,58,53,-43,-29,-73,-102,-78
-58,34,92,12,-75,63,53,-43,-19,-63,-92,-73
-43,34,78,4,-61,56,39,-39,-9,-68,-78,-73
-39,48,87,-4,-63,68,39,-34,-4,-63,-73,-63
-34,58,92,-12,-63,75,53,-19,4,-43,-63,-58
-34,63,97,-14,-65,80,58,-9,14,-43,-58,-53
-29,73,102,-21,-65,87,68,-9,24,-34,-48,-53
-34,73,107,-19,-70,90,73,-9,34,-29,-48,-53
-34,73,107,-19,-70,90,82,-4,34,-14,-43,-48
-34,73,107,-19,-70,90,92,0,39,-9,-39,-48
-43,73,117,-14,-80,95,97,4,34,-24,-43,-48
-53,68,122,-7,-87,95,97,14,34,-24,-48,-43
-53,68,122,-7,-87,95,102,19,29,-29,-53,-43
-53,68,122,-7,-87,95,102,24,24,-34,-58,-43
-43,68,112,-12,-78,90,102,24,19,-29,-53,-43
-39,68,107,-14,-73,87,92,24,19,-29,-48,-43
-34,63,97,-14,-65,80,78,14,14,-24,-43,-43
-24,63,87,-19,-56,75,73,9,4,-29,-43,-43
-19,63,82,-21,-51,73,63,4,14,-29,-43,-43
-14,68,82,-26,-48,75,48,4,19,-29,-43,-43
-14,78,92,-31,-53,85,34,0,19,-24,-43,-39
-14,82,97,-34,-56,90,29,-4,14,-24,-43,-39
-14,73,87,-29,-51,80,24,-14,14,-19,-39,-29
-14,73,87,-29,-51,80,19,-19,14,-24,-39,-29
-19,68,87,-24,-53,78,14,-24,9,-29,-39,-34
-19,58,78,-19,-48,68,9,-34,-4,-34,-43,-34
-29,48,78,-9,-53,63,9,-34,-19,-58,-63,-53
-39,43,82,-2,-61,63,19,-34,-29,-63,-78,-58
-39,39,78,0,-58,58,19,-34,-34,-73,-82,-58
-39,34,73,2,-56,53,19,-34,-43,-78,-92,-58
-34,43,78,-4,-56,61,29,-24,-39,-63,-87,-43
-29,43,73,-7,-51,58,34,-24,-34,-58,-78,-43
-24,39,63,-7,-43,51,34,-24,-29,-53,-73,-43
-14,39,53,-12,-34,46,34,-24,-24,-48,-68,-43
-9,39,48,-14,-29,43,24,-34,-14,-48,-68,-53
-9,29,39,-9,-24,34,24,-34,-24,-53,-68,-53
-9,24,34,-7,-21,29,24,-34,-24,-58,-78,-63
-9,19,29,-4,-19,24,24,-34,-29,-58,-78,-63
-19,9,29,4,-24,19,9,-39,-39,-68,-82,-63
-9,9,19,0,-14,14,4,-39,-39,-68,-82,-63
-9,9,19,0,-14,14,4,-39,-39,-68,-82,-63
-9,4,14,2,-12,9,4,-48,-48,-78,-87,-63
0,4,4,-2,-2,4,4,-48,-48,-68,-82,-68
-9,-4,4,7,-7,0,4,-53,-48,-68,-82,-73
-14,-4,9,9,-12,2,4,-63,-53,-73,-82,-78
-29,-4,24,17,-26,9,14,-63,-53,-73,-78,-78
-48,-4,43,26,-46,19,24,-48,-48,-82,-82,-78
-48,-4,43,26,-46,19,29,-48,-48,-82,-87,-87
-63,-14,48,39,-56,17,34,-48,-48,-92,-92,-92
-73,-24,48,48,-61,12,43,-48,-48,-92,-102,-92
-63,-24,39,43,-51,7,58,-39,-48,-97,-112,-92
-63,-24,39,43,-51,7,63,-39,-48,-97,-112,-92
-63,-24,39,43,-51,7,63,-43,-48,-102,-112,-92
-63,-24,39,43,-51,7,58,-43,-48,-102,-117,-92
-73,-29,43,51,-58,7,58,-43,-48,-97,-117,-87
-73,-29,43,51,-58,7,53,-48,-53,-92,-112,-87
-73,-29,43,51,-58,7,53,-48,-53,-87,-102,-87
-73,-29,43,51,-58,7,53,-48,-53,-82,-97,-87
-73,-29,43,51,-58,7,53,-58,-53,-92,-97,-87
-78,-29,48,53,-63,9,53,-58,-53,-92,-97,-87
-78,-29,48,53,-63,9,53,-58,-53,-92,-97,-87
-73,-29,43,51,-58,7,58,-58,-53,-92,-102,-87
-73,-39,34,56,-53,-2,58,-43,-53,-92,-102,-97
-73,-39,34,56,-53,-2,58,-43,-53,-92,-102,-97
-73,-39,34,56,-53,-2,58,-43,-53,-92,-102,-97
-73,-39,34,56,-53,-2,58,-43,-53,-92,-102,-97
-73,-48,24,61,-48,-12,48,-43,-53,-82,-102,-97
-78,-48,29,63,-53,-9,48,-43,-53,-82,-97,-97
-82,-58,24,70,-53,-17,48,-43,-53,-82,-97,-97
-82,-58,24,70,-53,-17,48,-43,-53,-82,-97,-97
-82,-43,39,63,-61,-2,53,-43,-43,-73,-97,-97
-82,-43,39,63,-61,-2,53,-43,-39,-73,-97,-97
-78,-43,34,61,-56,-4,53,-43,-39,-68,-97,-97
-73,-43,29,58,-51,-7,48,-43,-39,-68,-97,-97
-73,-53,19,63,-46,-17,58,-43,-53,-102,-107,-97
-82,-53,29,68,-56,-12,58,-24,-43,-92,-102,-97
-87,-73,14,80,-51,-29,53,-24,-48,-107,-112,-122
-78,-78,0,78,-39,-39,68,-24,-53,-122,-146,-141
-68,-92,-24,80,-21,-58,97,9,-68,-146,-165,-161
-63,-102,-39,82,-12,-70,102,48,-58,-146,-175,-180
-53,-102,-48,78,-2,-75,102,117,-24,-112,-141,-165
-29,-73,-43,51,7,-58,107,214,34,-29,-82,-112
19,-14,-34,-2,26,-24,107,351,131,97,39,-19
97,68,-29,-82,63,19,117,541,273,268,219,136
180,170,-9,-175,95,80,112,673,405,468,414,312
258,268,9,-263,124,139,112,741,507,649,595,483
317,370,53,-344,131,212,102,824,634,814,775,668
380,468,87,-424,146,278,82,888,741,990,971,858
468,570,102,-519,183,336,39,854,751,1098,1122,1029
556,683,126,-619,214,405,-9,805,717,1185,1259,1195
629,741,112,-685,258,427,-58,756,683,1268,1381,1337
658,795,136,-727,261,466,-117,678,639,1346,1512,1483
668,829,161,-749,253,495,-219,541,570,1385,1615,1590
653,849,195,-751,229,522,-287,390,551,1439,1693,1678
585,863,278,-724,153,570,-302,292,546,1468,1732,1708
492,814,322,-653,85,568,-326,190,434,1356,1629,1620
424,722,297,-573,63,509,-395,34,244,1117,1390,1424
331,614,283,-473,24,448,-414,-141,97,873,1102,1151
209,492,283,-351,-36,387,-361,-278,-4,605,795,854
122,409,287,-265,-82,348,-312,-366,-73,375,527,590
63,375,312,-219,-124,344,-258,-370,-87,234,351,385
-4,292,297,-143,-151,295,-185,-341,-102,117,204,234
-73,214,287,-70,-180,251,-117,-302,-112,9,78,112
-102,180,283,-39,-192,231,-87,-273,-112,-39,14,53
-92,170,263,-39,-178,217,-73,-234,-97,-19,14,43
-82,165,248,-41,-165,207,-63,-170,-68,19,48,53
-92,151,244,-29,-168,197,-48,-126,-48,39,58,53
-78,131,209,-26,-143,170,-29,-112,-39,34,43,24
-68,122,190,-26,-129,156,-14,-87,-29,19,29,0
-58,97,156,-19,-107,126,-4,-78,-29,-4,9,-9
-53,78,131,-12,-92,104,-4,-58,-39,-19,-9,-14
-58,58,117,0,-87,87,0,-58,-39,-19,-14,-24
-68,43,112,12,-90,78,4,-58,-48,-19,-14,-34
-73,43,117,14,-95,80,19,-63,-48,-14,-14,-29
-73,29,102,21,-87,65,29,-53,-48,-14,-14,-43
-73,-4,68,39,-70,31,39,-39,-53,-29,-39,-53
-73,-14,58,43,-65,21,48,-4,-43,-43,-43,-53
-73,-24,48,48,-61,12,68,9,-29,-48,-43,-63
-68,-19,48,43,-58,14,78,14,-14,-39,-48,-58
-63,-29,34,46,-48,2,78,14,-14,-39,-48,-58
-48,-29,19,39,-34,-4,78,14,-14,-39,-43,-58
-53,-29,24,41,-39,-2,78,9,-14,-39,-43,-68
-43,-19,24,31,-34,2,68,9,-29,-39,-53,-68
-48,-19,29,34,-39,4,73,9,-29,-39,-53,-68
-48,-19,29,34,-39,4,73,14,-29,-43,-53,-68
-48,-24,24,36,-36,0,73,14,-29,-48,-58,-73
-48,-34,14,41,-31,-9,78,14,-19,-48,-58,-73
-43,-34,9,39,-26,-12,78,14,-19,-43,-58,-73
-39,-34,4,36,-21,-14,78,19,-14,-43,-58,-73
-39,-34,4,36,-21,-14,78,19,-14,-43,-58,-68
-43,-43,0,43,-21,-21,87,29,-29,-48,-63,-68
-43,-43,0,43,-21,-21,87,29,-39,-53,-63,-68
-43,-43,0,43,-21,-21,87,29,-29,-53,-58,-73
-43,-43,0,43,-21,-21,87,29,-29,-53,-58,-73
-53,-43,9,48,-31,-17,87,19,-14,-43,-48,-68
-53,-43,9,48,-31,-17,87,19,-14,-34,-39,-68
-48,-39,9,43,-29,-14,92,19,-9,-24,-34,-68
-48,-39,9,43,-29,-14,97,24,-9,-19,-24,-63
-39,-29,9,34,-24,-9,87,24,-19,-34,-39,-73
-39,-29,9,34,-24,-9,82,29,-19,-39,-48,-73
-39,-24,14,31,-26,-4,82,29,-19,-43,-58,-73
-39,-24,14,31,-26,-4,82,34,-19,-48,-63,-78
-48,-29,19,39,-34,-4,92,34,-9,-43,-53,-68
-48,-43,4,46,-26,-19,92,34,-9,-39,-53,-63
-48,-48,0,48,-24,-24,92,34,-9,-34,-48,-63
-48,-48,0,48,-24,-24,92,39,0,-19,-43,-58
-39,-39,0,39,-19,-19,82,29,-9,-19,-39,-48
-34,-34,0,34,-17,-17,82,34,-14,-19,-34,-48
-29,-29,0,29,-14,-14,82,34,-14,-24,-29,-48
-24,-24,0,24,-12,-12,82,34,-14,-24,-24,-43
-34,-4,29,19,-31,12,92,43,-14,-24,-34,-53
-34,-14,19,24,-26,2,92,48,-14,-24,-34,-53
-34,-14,19,24,-26,2,92,48,-9,-19,-29,-53
-24,-9,14,17,-19,2,92,53,-4,-19,-29,-53
-24,-19,4,21,-14,-7,87,53,-4,-29,-34,-58
-24,-19,4,21,-14,-7,87,53,-4,-29,-34,-53
-29,-19,9,24,-19,-4,82,53,-4,-24,-34,-53
-34,-19,14,26,-24,-2,82,53,-4,-19,-29,-53
-24,-9,14,17,-19,2,82,48,4,-9,-24,-43
-19,-9,9,14,-14,0,82,48,4,-4,-14,-39
-19,-9,9,14,-14,0,82,48,9,-4,-9,-34
-19,-9,9,14,-14,0,82,48,9,0,-9,-29
-19,-14,4,17,-12,-4,82,53,-4,-9,-14,-34
-24,-19,4,21,-14,-7,78,53,-4,-9,-19,-39
-29,-19,9,24,-19,-4,78,53,-4,-14,-19,-43
-34,-24,9,29,-21,-7,78,63,0,-19,-19,-43
-24,-19,4,21,-14,-7,68,63,9,-14,-14,-34
-19,-14,4,17,-12,-4,68,68,14,-4,-9,-29
-19,-9,9,14,-14,0,68,68,14,0,0,-24
-14,-4,9,9,-12,2,68,73,14,4,4,-24
-9,9,19,0,-14,14,78,82,19,19,19,-24
-4,9,14,-2,-9,12,78,82,24,24,19,-24
0,9,9,-4,-4,9,78,87,24,24,19,-24
9,14,4,-12,2,9,78,87,24,24,24,-19
9,4,-4,-7,7,0,73,92,24,14,14,-19
9,9,0,-9,4,4,73,92,24,14,14,-19
9,9,0,-9,4,4,78,97,24,14,19,-14
9,9,0,-9,4,4,78,97,24,14,19,-14
14,19,4,-17,4,12,82,92,29,19,24,-4
14,19,4,-17,4,12,82,92,29,24,24,-4
19,19,0,-19,9,9,82,102,29,24,24,4
19,24,4,-21,7,14,82,107,34,34,39,4
19,14,-4,-17,12,4,73,107,29,24,29,-4
24,14,-9,-19,17,2,73,107,24,24,29,0
29,24,-4,-26,17,9,73,117,19,29,34,9
34,24,-9,-29,21,7,78,117,19,29,34,9
24,14,-9,-19,17,2,78,117,19,39,43,14
24,14,-9,-19,17,2,78,131,24,43,53,19
24,14,-9,-19,17,2,78,131,24,53,58,19
24,24,0,-24,12,12,78,136,29,58,63,24
34,19,-14,-26,24,2,82,141,48,73,78,34
39,24,-14,-31,26,4,78,146,48,78,78,34
39,24,-14,-31,26,4,78,151,48,78,78,34
39,24,-14,-31,26,4,73,156,48,87,82,39
48,34,-14,-41,31,9,68,161,48,82,82,43
58,39,-19,-48,39,9,68,170,58,82,97,48
58,43,-14,-51,36,14,63,170,58,87,102,58
63,48,-14,-56,39,17,53,175,58,92,112,63
82,58,-24,-70,53,17,63,185,73,102,117,73
87,68,-19,-78,53,24,63,190,73,112,117,82
92,68,-24,-80,58,21,63,195,73,122,122,92
92,73,-19,-82,56,26,63,200,82,131,131,102
87,73,-14,-80,51,29,48,204,78,131,136,112
87,78,-9,-82,48,34,39,209,73,136,151,117
92,82,-9,-87,51,36,39,224,78,141,161,131
112,87,-24,-100,68,31,43,229,78,146,170,131
112,82,-29,-97,70,26,43,234,82,156,170,146
112,82,-29,-97,70,26,34,239,82,170,180,156
122,87,-34,-104,78,26,34,244,92,175,190,165
131,92,-39,-112,85,26,34,253,97,185,200,175
136,112,-24,-124,80,43,29,258,102,195,209,185
136,117,-19,-126,78,48,19,268,102,200,224,195
146,131,-14,-139,80,58,14,278,102,209,239,204
161,131,-29,-146,95,51,14,287,102,219,248,214
170,136,-34,-153,102,51,0,297,112,224,258,224
170,141,-29,-156,100,56,-4,302,122,239,268,234
175,146,-29,-161,102,58,-9,312,122,248,273,244
195,151,-43,-173,119,53,-14,317,122,248,283,253
200,156,-43,-178,122,56,-4,322,126,263,297,253
200,161,-39,-180,119,61,-9,326,131,268,307,268
200,175,-24,-187,112,75,-14,336,136,273,317,278
214,175,-39,-195,126,68,-14,346,141,287,317,287
219,185,-34,-202,126,75,-29,336,146,287,336,297
224,195,-29,-209,126,82,-29,351,146,297,351,312
224,195,-29,-209,126,82,-34,351,141,297,351,317
224,195,-29,-209,126,82,-34,356,141,302,356,326
229,200,-29,-214,129,85,-34,361,151,317,366,346
234,209,-24,-222,129,92,-43,370,156,326,380,356
244,219,-24,-231,134,97,-48,375,156,326,390,361
248,224,-24,-236,136,100,-53,385,156,336,395,370
263,224,-39,-244,151,92,-43,375,161,341,409,380
263,224,-39,-244,151,92,-43,375,165,346,414,385
263,229,-34,-246,148,97,-43,370,165,346,414,385
273,229,-43,-251,158,92,-48,370,165,346,414,385
273,244,-29,-258,151,107,-58,370,156,351,405,380
268,244,-24,-256,146,109,-63,370,151,351,405,380
253,244,-9,-248,131,117,-63,361,151,351,409,380
263,239,-24,-251,143,107,-58,361,151,351,409,375
253,234,-19,-244,136,107,-53,351,161,336,395,361
244,229,-14,-236,129,107,-53,346,165,331,395,346
234,214,-19,-224,126,97,-48,341,165,326,380,341
234,200,-34,-217,134,82,-43,326,156,317,370,331
214,204,-9,-209,112,97,-29,322,146,297,356,312
209,204,-4,-207,107,100,-24,312,146,297,336,292
204,204,0,-204,102,102,-19,302,136,283,322,278
190,200,9,-195,90,104,-14,287,136,268,312,263
175,170,-4,-173,90,82,-9,263,131,258,297,244
170,161,-9,-165,90,75,0,253,126,239,278,234
170,161,-9,-165,90,75,4,244,126,229,258,214
156,151,-4,-153,80,73,9,234,122,209,239,195
136,141,4,-139,65,73,14,229,117,200,224,175
126,136,9,-131,58,73,19,209,117,190,209,161
112,122,9,-117,51,65,19,195,117,170,195,146
102,112,9,-107,46,61,24,185,107,161,180,131
102,107,4,-104,48,56,24,170,92,146,165,117
92,97,4,-95,43,51,24,161,92,141,146,102
82,97,14,-90,34,56,34,151,92,131,141,97
78,92,14,-85,31,53,39,141,82,122,136,78
68,73,4,-70,31,39,39,117,82,102,122,73
68,68,0,-68,34,34,43,107,82,97,107,68
58,63,4,-61,26,34,48,102,78,92,102,58
53,48,-4,-51,29,21,53,97,73,87,92,48
48,48,0,-48,24,24,63,87,68,87,82,39
43,43,0,-43,21,21,58,82,63,73,73,29
43,43,0,-43,21,21,58,73,58,68,68,19
39,39,0,-39,19,19,58,63,53,68,73,19
43,39,-4,-41,24,17,48,53,63,63,58,0
39,39,0,-39,19,19,53,53,58,58,58,-4
34,34,0,-34,17,17,53,39,53,53,48,-9
29,29,0,-29,14,14,53,34,48,43,43,-14
14,24,9,-19,2,17,48,29,48,48,43,-14
14,24,9,-19,2,17,48,24,43,43,39,-19
14,24,9,-19,2,17,48,24,39,39,34,-24
14,24,9,-19,2,17,48,19,34,39,34,-24
14,4,-9,-9,12,-2,53,14,29,19,19,-39
14,0,-14,-7,14,-7,43,9,24,14,14,-39
14,-4,-19,-4,17,-12,53,4,24,14,14,-39
9,-9,-19,0,14,-14,63,4,24,14,14,-39
19,-4,-24,-7,21,-14,53,4,19,19,19,-39
19,0,-19,-9,19,-9,53,4,24,24,19,-39
19,-4,-24,-7,21,-14,53,4,24,29,14,-34
19,-4,-24,-7,21,-14,53,4,19,29,14,-29
19,-4,-24,-7,21,-14,63,0,19,24,19,-39
19,-4,-24,-7,21,-14,68,0,19,19,14,-39
19,4,-14,-12,17,-4,68,0,19,14,14,-39
14,-4,-19,-4,17,-12,68,-4,19,9,14,-39
14,4,-9,-9,12,-2,58,4,29,4,14,-29
14,4,-9,-9,12,-2,58,4,29,9,14,-29
14,4,-9,-9,12,-2,58,4,29,14,9,-29
14,4,-9,-9,12,-2,58,4,29,19,9,-34
24,0,-24,-12,24,-12,68,4,19,19,14,-43
24,0,-24,-12,24,-12,68,4,19,14,14,-43
24,4,-19,-14,21,-7,68,4,19,9,19,-43
24,4,-19,-14,21,-7,68,4,14,0,19,-39
34,14,-19,-24,26,-2,58,0,24,0,24,-29
34,24,-9,-29,21,7,58,0,24,4,24,-29
34,24,-9,-29,21,7,63,0,24,9,24,-34
34,24,-9,-29,21,7,63,0,24,19,19,-34
24,14,-9,-19,17,2,63,-9,14,9,9,-39
24,0,-24,-12,24,-12,63,-14,9,9,9,-39
24,0,-24,-12,24,-12,63,-14,9,9,9,-48
29,0,-29,-14,29,-14,63,-9,9,9,14,-48
19,0,-19,-9,19,-9,63,0,19,4,4,-48
19,0,-19,-9,19,-9,58,0,19,4,4,-43
19,0,-19,-9,19,-9,58,0,19,4,9,-34
19,0,-19,-9,19,-9,58,0,19,4,9,-34
29,9,-19,-19,24,-4,68,-9,14,4,14,-39
29,0,-29,-14,29,-14,68,-9,14,4,14,-39
29,9,-19,-19,24,-4,68,-9,14,4,14,-43
29,19,-9,-24,19,4,73,-4,19,4,14,-43
39,-4,-43,-17,41,-24,63,4,19,0,9,-43
34,-4,-39,-14,36,-21,63,0,9,0,9,-43
34,-4,-39,-14,36,-21,63,-4,9,0,9,-39
34,-4,-39,-14,36,-21,63,-4,9,0,9,-39
34,4,-29,-19,31,-12,63,-4,0,-4,4,-43
29,4,-24,-17,26,-9,63,-4,4,-4,4,-43
29,4,-24,-17,26,-9,58,-4,4,-9,4,-43
34,0,-34,-17,34,-17,58,-4,4,-9,0,-48
43,-9,-53,-17,48,-31,68,-4,14,-9,-9,-43
39,-9,-48,-14,43,-29,68,0,14,-9,-9,-43
39,-4,-43,-17,41,-24,68,0,14,-9,-9,-43
39,-4,-43,-17,41,-24,68,0,14,-9,-9,-43
29,-9,-39,-9,34,-24,68,-4,14,-9,-4,-43
29,-9,-39,-9,34,-24,68,-4,14,-9,-4,-43
24,-14,-39,-4,31,-26,73,-9,14,-9,-4,-43
24,-14,-39,-4,31,-26,73,-9,14,-9,0,-43
34,-9,-43,-12,39,-26,68,-9,14,0,0,-43
39,-9,-48,-14,43,-29,68,-4,14,0,0,-43
39,-9,-48,-14,43,-29,63,-4,14,0,0,-43
34,-9,-43,-12,39,-26,63,-4,14,0,4,-43
34,0,-34,-17,34,-17,58,-4,9,0,4,-43
39,0,-39,-19,39,-19,58,-4,9,0,4,-39
39,0,-39,-19,39,-19,63,-4,9,4,4,-34
39,9,-29,-24,34,-9,63,-4,9,4,4,-29
29,0,-29,-14,29,-14,63,0,14,14,14,-29
29,0,-29,-14,29,-14,63,0,19,9,9,-34
29,0,-29,-14,29,-14,63,-4,24,9,9,-39
24,-9,-34,-7,29,-21,63,-4,29,9,9,-43
29,-19,-48,-4,39,-34,63,4,24,0,4,-48
39,-9,-48,-14,43,-29,63,4,19,0,0,-48
43,-9,-53,-17,48,-31,63,4,14,0,-4,-48
43,-9,-53,-17,48,-31,63,4,14,0,-4,-43
43,0,-43,-21,43,-21,68,4,24,9,0,-43
39,0,-39,-19,39,-19,73,4,24,9,4,-43
39,0,-39,-19,39,-19,73,4,24,9,4,-43
39,9,-29,-24,34,-9,68,4,24,14,9,-43
39,14,-24,-26,31,-4,73,-4,34,14,19,-39
43,14,-29,-29,36,-7,73,-4,34,14,19,-39
43,14,-29,-29,36,-7,73,-4,34,14,24,-34
43,14,-29,-29,36,-7,73,-4,34,14,24,-29
34,4,-29,-19,31,-12,68,4,29,9,19,-39
34,0,-34,-17,34,-17,68,4,24,4,14,-39
39,-4,-43,-17,41,-24,73,4,19,-4,9,-39
39,-4,-43,-17,41,-24,78,4,14,-9,0,-34
39,-4,-43,-17,41,-24,73,14,24,14,9,-43
39,-9,-48,-14,43,-29,73,14,24,14,9,-43
39,-9,-48,-14,43,-29,68,14,24,14,14,-43
39,-4,-43,-17,41,-24,68,14,24,9,14,-43
39,9,-29,-24,34,-9,78,19,34,9,24,-34
39,14,-24,-26,31,-4,78,14,39,14,24,-34
39,14,-24,-26,31,-4,82,9,39,14,24,-34
39,19,-19,-29,29,0,82,0,39,9,24,-34
39,9,-29,-24,34,-9,78,9,24,4,19,-34
39,9,-29,-24,34,-9,78,14,24,4,9,-34
43,9,-34,-26,39,-12,78,14,29,4,4,-34
43,9,-34,-26,39,-12,78,9,29,4,0,-34
39,-9,-48,-14,43,-29,78,19,24,-4,0,-29
39,-9,-48,-14,43,-29,82,19,24,4,0,-29
39,-9,-48,-14,43,-29,82,19,24,4,0,-24
39,-14,-53,-12,46,-34,87,9,24,4,0,-24
39,-4,-43,-17,41,-24,82,0,34,14,9,-24
43,0,-43,-21,43,-21,78,4,39,14,9,-19
43,0,-43,-21,43,-21,73,4,39,14,9,-19
43,0,-43,-21,43,-21,68,9,39,14,14,-19
43,0,-43,-21,43,-21,68,0,34,4,4,-29
39,4,-34,-21,36,-14,68,0,29,0,4,-29
39,4,-34,-21,36,-14,68,-4,29,0,4,-29
43,4,-39,-24,41,-17,68,-4,24,4,4,-29
43,9,-34,-26,39,-12,63,4,29,14,19,-29
43,14,-29,-29,36,-7,58,4,24,9,19,-29
43,9,-34,-26,39,-12,58,0,24,4,19,-29
43,14,-29,-29,36,-7,63,0,24,4,14,-29
48,4,-43,-26,46,-19,68,0,24,4,4,-34
48,14,-34,-31,41,-9,68,0,19,4,0,-34
53,14,-39,-34,46,-12,68,0,19,0,-4,-34
53,9,-43,-31,48,-17,63,0,19,0,-4,-34
53,19,-34,-36,43,-7,73,0,29,0,-4,-43
53,14,-39,-34,46,-12,73,0,29,0,-4,-43
43,4,-39,-24,41,-17,78,-4,29,0,-4,-39
43,4,-39,-24,41,-17,78,-4,29,0,0,-39
53,19,-34,-36,43,-7,63,-4,19,0,0,-29
53,24,-29,-39,41,-2,63,-4,19,0,0,-29
53,24,-29,-39,41,-2,63,-4,19,0,0,-29
53,14,-39,-34,46,-12,63,-4,19,0,0,-29
48,4,-43,-26,46,-19,58,-14,4,-4,-4,-34
43,4,-39,-24,41,-17,58,-14,4,-4,-4,-43
39,-4,-43,-17,41,-24,63,-14,4,-9,-4,-48
34,-4,-39,-14,36,-21,63,-19,4,-14,-4,-53
34,-4,-39,-14,36,-21,63,-9,14,-9,-4,-43
39,4,-34,-21,36,-14,63,-9,14,-4,-4,-43
39,14,-24,-26,31,-4,63,-4,19,-4,-4,-34
29,14,-14,-21,21,0,63,-4,19,-9,-4,-34
29,14,-14,-21,21,0,73,-9,24,-4,-9,-43
29,9,-19,-19,24,-4,73,-9,14,-9,-14,-53
34,9,-24,-21,29,-7,73,-14,14,-9,-9,-53
39,9,-29,-24,34,-9,73,-14,14,-9,-4,-53
48,9,-39,-29,43,-14,63,-9,24,0,4,-39
48,4,-43,-26,46,-19,68,-9,29,0,4,-39
48,4,-43,-26,46,-19,68,-9,29,0,0,-39
48,4,-43,-26,46,-19,63,-4,29,0,0,-43
48,4,-43,-26,46,-19,63,-4,24,-9,-9,-43
48,9,-39,-29,43,-14,68,-9,19,-14,-9,-43
48,9,-39,-29,43,-14,68,-9,14,-9,-4,-43
48,9,-39,-29,43,-14,68,-19,4,-14,-4,-39
48,9,-39,-29,43,-14,68,-9,14,-9,-14,-39
43,0,-43,-21,43,-21,68,-4,14,-9,-14,-39
43,-9,-53,-17,48,-31,68,-4,14,-9,-14,-39
43,0,-43,-21,43,-21,68,-4,9,-4,-14,-39
53,9,-43,-31,48,-17,78,-9,9,-4,-9,-53
63,14,-48,-39,56,-17,78,-9,9,-14,-14,-53
63,14,-48,-39,56,-17,78,-9,19,-14,-14,-48
58,9,-48,-34,53,-19,78,-9,19,-9,-9,-48
63,0,-63,-31,63,-31,73,-19,14,0,0,-58
63,14,-48,-39,56,-17,73,-19,14,-4,0,-58
63,4,-58,-34,61,-26,73,-19,14,-4,0,-63
58,4,-53,-31,56,-24,73,-19,9,-4,0,-63
48,14,-34,-31,41,-9,63,-14,9,-14,-9,-53
48,19,-29,-34,39,-4,73,-14,9,-14,-9,-53
53,19,-34,-36,43,-7,73,-19,14,-14,-4,-53
53,19,-34,-36,43,-7,73,-19,14,-14,-4,-53
53,4,-48,-29,51,-21,53,-14,4,-34,-9,-53
53,4,-48,-29,51,-21,63,-14,4,-34,-14,-53
53,9,-43,-31,48,-17,73,-9,9,-29,-19,-53
53,9,-43,-31,48,-17,73,-9,9,-29,-24,-53
63,9,-53,-36,58,-21,73,-9,9,-14,-14,-43
63,4,-58,-34,61,-26,73,-9,9,-14,-19,-43
63,4,-58,-34,61,-26,68,-19,9,-19,-19,-43
68,9,-58,-39,63,-24,63,-24,4,-19,-19,-43
58,0,-58,-29,58,-29,68,-24,4,-14,-9,-48
58,0,-58,-29,58,-29,68,-14,4,-14,-9,-48
58,4,-53,-31,56,-24,73,-9,9,-9,-9,-43
53,4,-48,-29,51,-21,73,-9,9,-9,-14,-43
53,9,-43,-31,48,-17,73,-9,9,-9,-14,-53
53,9,-43,-31,48,-17,73,-9,9,-9,-9,-53
53,9,-43,-31,48,-17,73,-9,14,-9,-9,-53
53,9,-43,-31,48,-17,73,-14,14,-9,-4,-53
43,14,-29,-29,36,-7,73,-24,24,0,-4,-53
48,14,-34,-31,41,-9,73,-19,14,-4,-4,-53
48,14,-34,-31,41,-9,73,-19,14,-4,-9,-58
43,4,-39,-24,41,-17,73,-19,14,-4,-9,-58
63,24,-39,-43,51,-7,82,0,9,-14,-4,-39
68,19,-48,-43,58,-14,87,0,19,-19,-9,-39
68,9,-58,-39,63,-24,78,-9,9,-19,-19,-43
68,9,-58,-39,63,-24,78,-9,9,-19,-19,-48
68,9,-58,-39,63,-24,78,-9,9,-19,-19,-53
68,9,-58,-39,63,-24,78,-9,9,-19,-19,-58
63,0,-63,-31,63,-31,78,-19,19,-9,-9,-48
58,0,-58,-29,58,-29,78,-19,19,-9,-9,-48
53,0,-53,-26,53,-26,78,-19,19,-9,-9,-48
48,0,-48,-24,48,-24,78,-19,19,-9,-9,-48
58,9,-48,-34,53,-19,68,-19,9,-9,-9,-58
58,9,-48,-34,53,-19,68,-19,9,-9,-9,-58
58,19,-39,-39,48,-9,68,-19,14,-9,-9,-58
58,19,-39,-39,48,-9,68,-19,14,-9,-9,-58
58,24,-34,-41,46,-4,78,-14,14,-9,-9,-48
58,14,-43,-36,51,-14,78,-14,14,-9,-9,-48
63,24,-39,-43,51,-7,78,-14,14,-4,-9,-43
73,34,-39,-53,56,-2,82,-9,19,-4,-4,-43
68,29,-39,-48,53,-4,82,-19,9,-14,-14,-53
68,29,-39,-48,53,-4,82,-14,9,-14,-14,-48
68,29,-39,-48,53,-4,82,-14,19,-4,-4,-43
73,24,-48,-48,61,-12,78,-9,29,0,0,-43
87,48,-39,-68,63,4,78,-4,34,-4,-4,-24
92,58,-34,-75,63,12,92,9,43,14,4,-19
92,63,-29,-78,61,17,97,19,53,14,9,-14
87,63,-24,-75,56,19,107,29,53,19,9,-14
82,63,-19,-73,51,21,112,39,73,29,14,-14
82,63,-19,-73,51,21,122,43,73,39,24,-9
82,63,-19,-73,51,21,131,48,78,39,34,-9
82,63,-19,-73,51,21,136,48,78,39,39,-9
73,58,-14,-65,43,21,146,53,73,43,29,-14
73,58,-14,-65,43,21,151,53,73,43,29,-14
73,58,-14,-65,43,21,151,53,73,43,29,-14
82,58,-24,-70,53,17,141,53,68,43,29,-14
78,48,-29,-63,53,9,122,53,68,39,29,-24
82,43,-39,-63,61,2,107,43,63,39,29,-24
92,43,-48,-68,70,-2,102,39,53,29,24,-24
97,43,-53,-70,75,-4,82,34,53,29,24,-24
102,48,-53,-75,78,-2,78,34,68,29,24,-14
102,58,-43,-80,73,7,63,29,68,34,24,-9
102,63,-39,-82,70,12,58,24,63,34,24,-9
102,63,-39,-82,70,12,58,14,53,29,19,-9
102,63,-39,-82,70,12,48,9,53,24,19,-9
97,58,-39,-78,68,9,48,4,48,19,19,-14
97,48,-48,-73,73,0,48,-4,34,14,14,-14
97,48,-48,-73,73,0,48,-4,34,4,9,-24
87,43,-43,-65,65,0,58,-4,39,4,9,-19
87,39,-48,-63,68,-4,58,-4,39,0,9,-19
87,34,-53,-61,70,-9,58,-4,34,0,4,-19
87,34,-53,-61,70,-9,58,-4,34,0,4,-14
87,34,-53,-61,70,-9,63,4,34,4,9,-14
87,29,-58,-58,73,-14,63,4,34,9,9,-14
92,29,-63,-61,78,-17,63,4,34,14,9,-14
97,29,-68,-63,82,-19,63,4,34,19,9,-14
97,19,-78,-58,87,-29,53,-4,14,9,9,-24
97,14,-82,-56,90,-34,53,-4,14,0,0,-34
97,9,-87,-53,92,-39,53,-4,9,-4,0,-34
97,9,-87,-53,92,-39,48,-9,9,-9,-4,-34
107,9,-97,-58,102,-43,53,-9,9,-19,-14,-34
107,9,-97,-58,102,-43,53,-9,9,-19,-14,-34
107,4,-102,-56,104,-48,53,-19,0,-29,-19,-34
107,4,-102,-56,104,-48,53,-19,0,-29,-19,-39
97,-4,-102,-46,100,-53,53,-24,0,-29,-24,-43
92,-4,-97,-43,95,-51,53,-34,-4,-34,-29,-48
78,-4,-82,-36,80,-43,63,-34,-4,-34,-29,-48
68,-4,-73,-31,70,-39,63,-29,0,-34,-29,-48
68,-4,-73,-31,70,-39,78,-29,9,-29,-29,-48
53,-14,-68,-19,61,-41,82,-29,9,-34,-29,-53
43,-24,-68,-9,56,-46,92,-29,9,-29,-34,-53
43,-24,-68,-9,56,-46,97,-19,9,-19,-34,-53
53,-19,-73,-17,63,-46,92,-9,0,-29,-34,-63
53,-14,-68,-19,61,-41,92,-14,0,-34,-34,-63
53,-9,-63,-21,58,-36,87,-14,0,-34,-39,-63
53,-9,-63,-21,58,-36,87,-14,0,-34,-43,-68
43,-14,-58,-14,51,-36,82,-29,-14,-34,-43,-68
43,-19,-63,-12,53,-41,82,-29,-14,-34,-39,-68
43,-24,-68,-9,56,-46,82,-29,-14,-34,-39,-68
43,-29,-73,-7,58,-51,82,-29,-14,-34,-39,-68
39,-29,-68,-4,53,-48,82,-29,-9,-34,-39,-68
39,-29,-68,-4,53,-48,82,-29,-4,-34,-39,-68
43,-29,-73,-7,58,-51,87,-29,0,-34,-43,-68
43,-29,-73,-7,58,-51,87,-24,4,-34,-43,-68
43,-29,-73,-7,58,-51,87,-24,-4,-43,-43,-68
43,-29,-73,-7,58,-51,87,-24,-4,-43,-43,-68
43,-29,-73,-7,58,-51,87,-24,-4,-43,-43,-68
43,-29,-73,-7,58,-51,87,-24,-4,-43,-43,-68
39,-29,-68,-4,53,-48,87,-24,-4,-43,-39,-68
34,-39,-73,2,53,-56,87,-24,-4,-43,-39,-68
34,-39,-73,2,53,-56,87,-24,-4,-43,-39,-68
34,-34,-68,0,51,-51,92,-24,-4,-43,-39,-68
43,-24,-68,-9,56,-46,92,-24,9,-34,-29,-58
48,-24,-73,-12,61,-48,92,-24,9,-29,-29,-58
53,-24,-78,-14,65,-51,87,-24,9,-29,-29,-58
53,-24,-78,-14,65,-51,87,-24,4,-34,-39,-58
34,-34,-68,0,51,-51,97,-24,4,-43,-53,-78
29,-43,-73,7,51,-58,102,-14,-9,-58,-63,-102
19,-87,-107,34,63,-97,117,-4,-24,-92,-97,-141
19,-112,-131,46,75,-122,126,29,-19,-97,-126,-161
43,-102,-146,29,95,-124,131,78,0,-97,-126,-170
53,-92,-146,19,100,-119,131,146,14,-63,-102,-146
78,-43,-122,-17,100,-82,146,253,92,29,-14,-73
136,24,-112,-80,124,-43,156,409,209,175,126,39
214,107,-107,-161,161,0,156,580,351,346,297,204
278,190,-87,-234,183,51,151,702,492,536,502,390
356,297,-58,-326,207,119,151,790,624,736,702,580
434,409,-24,-422,229,192,151,863,741,932,893,756
497,527,29,-512,234,278,131,897,839,1098,1088,936
566,619,53,-592,256,336,87,873,849,1224,1259,1117
634,702,68,-668,283,385,39,834,805,1312,1395,1263
688,771,82,-729,302,427,0,795,761,1395,1527,1415
736,814,78,-775,329,446,-87,717,717,1464,1649,1551
756,839,82,-797,336,461,-200,570,658,1532,1761,1678
732,878,146,-805,292,512,-278,419,639,1576,1839,1766
663,893,229,-778,217,561,-292,312,595,1566,1830,1756
590,814,224,-702,183,519,-326,219,463,1424,1698,1649
512,702,190,-607,161,446,-385,53,283,1176,1439,1434
409,595,185,-502,112,390,-385,-122,117,893,1122,1141
297,492,195,-395,51,344,-341,-248,14,624,814,844
209,419,209,-314,0,314,-292,-326,-34,414,566,590
141,366,224,-253,-41,295,-239,-331,-39,283,390,405
73,302,229,-187,-78,265,-156,-302,-53,156,244,253
34,234,200,-134,-82,217,-97,-273,-73,48,126,131
34,219,185,-126,-75,202,-68,-234,-73,19,73,73
34,200,165,-117,-65,183,-43,-195,-48,29,63,63
34,185,151,-109,-58,168,-34,-151,-39,48,68,73
34,170,136,-102,-51,153,-9,-117,-29,48,78,63
19,151,131,-85,-56,141,9,-92,-9,43,63,53
19,122,102,-70,-41,112,14,-78,0,39,48,39
29,107,78,-68,-24,92,14,-78,9,43,48,19
43,107,63,-75,-9,85,14,-68,9,39,39,14
48,107,58,-78,-4,82,19,-58,9,39,34,14
39,92,53,-65,-7,73,34,-48,9,19,24,4
43,63,19,-53,12,41,48,-53,0,4,4,-19
34,39,4,-36,14,21,58,-34,0,4,-4,-34
34,4,-29,-19,31,-12,87,0,-4,0,-19,-34
43,-14,-58,-14,51,-36,97,14,-4,-14,-24,-34
43,-4,-48,-19,46,-26,97,19,19,0,-14,-34
34,-9,-43,-12,39,-26,87,24,14,0,-19,-39
34,-19,-53,-7,43,-36,87,24,14,0,-19,-39
43,-19,-63,-12,53,-41,87,24,14,0,-14,-39
34,-19,-53,-7,43,-36,87,19,14,0,-14,-48
24,-19,-43,-2,34,-31,97,9,9,-9,-34,-48
19,-19,-39,0,29,-29,102,9,9,-9,-34,-48
19,-19,-39,0,29,-29,102,14,9,-14,-34,-48
19,-24,-43,2,31,-34,102,14,9,-19,-39,-53
24,-19,-43,-2,34,-31,107,14,19,-9,-29,-53
34,-14,-48,-9,41,-31,107,14,19,-4,-29,-53
43,-9,-53,-17,48,-31,107,19,24,-4,-29,-53
48,-4,-53,-21,51,-29,107,19,24,-4,-29,-48
39,-19,-58,-9,48,-39,107,19,14,-19,-34,-58
34,-24,-58,-4,46,-41,107,19,0,-24,-34,-58
29,-29,-58,0,43,-43,107,19,4,-24,-29,-63
24,-34,-58,4,41,-46,107,19,0,-24,-29,-63
34,-24,-58,-4,46,-41,107,29,9,-19,-34,-48
34,-24,-58,-4,46,-41,107,29,14,-14,-29,-48
39,-19,-58,-9,48,-39,112,29,24,-9,-29,-48
39,-19,-58,-9,48,-39,117,34,29,-9,-24,-43
39,-9,-48,-14,43,-29,107,24,24,-19,-14,-43
39,-9,-48,-14,43,-29,102,29,19,-19,-19,-43
39,-4,-43,-17,41,-24,102,29,14,-19,-24,-43
39,-4,-43,-17,41,-24,102,34,9,-19,-24,-48
29,-14,-43,-7,36,-29,102,24,19,-19,-24,-48
29,-24,-53,-2,41,-39,102,24,19,-19,-24,-43
29,-24,-53,-2,41,-39,102,24,19,-19,-19,-43
29,-19,-48,-4,39,-34,102,29,29,-9,-14,-39
43,-24,-68,-9,56,-46,112,39,19,-9,-24,-39
43,-24,-68,-9,56,-46,112,43,14,-9,-24,-39
43,-24,-68,-9,56,-46,112,43,14,-14,-24,-39
43,-24,-68,-9,56,-46,112,43,14,-14,-24,-34
43,-4,-48,-19,46,-26,112,34,24,-4,-24,-34
43,-14,-58,-14,51,-36,112,39,24,-4,-24,-34
43,-14,-58,-14,51,-36,112,39,29,0,-19,-34
53,-9,-63,-21,58,-36,112,43,34,0,-19,-34
43,-19,-63,-12,53,-41,107,43,34,-9,-14,-29
43,-19,-63,-12,53,-41,107,43,34,-9,-14,-24
39,-19,-58,-9,48,-39,102,43,34,-4,-14,-24
34,-19,-53,-7,43,-36,102,43,34,0,-9,-24
43,-9,-53,-17,48,-31,102,58,34,4,-9,-19
48,-9,-58,-19,53,-34,102,58,34,4,-4,-19
48,-9,-58,-19,53,-34,102,58,39,0,-4,-19
48,-9,-58,-19,53,-34,102,58,39,0,-9,-19
53,-9,-63,-21,58,-36,102,53,34,4,0,-9
53,-9,-63,-21,58,-36,97,53,34,9,0,-9
53,-4,-58,-24,56,-31,97,53,34,9,4,-9
53,-4,-58,-24,56,-31,97,63,39,9,9,-4
43,-14,-58,-14,51,-36,97,63,39,19,9,-14
48,-14,-63,-17,56,-39,97,68,43,24,9,-9
48,-14,-63,-17,56,-39,97,68,43,24,14,-4
53,-14,-68,-19,61,-41,97,73,43,24,14,-4
63,-4,-68,-29,65,-36,97,73,48,29,9,-4
63,0,-63,-31,63,-31,97,73,53,34,9,-4
63,4,-58,-34,61,-26,97,78,53,34,9,-4
68,14,-53,-41,61,-19,97,78,53,34,14,0
68,14,-53,-41,61,-19,92,82,43,34,14,0
68,19,-48,-43,58,-14,92,82,43,34,14,0
68,19,-48,-43,58,-14,97,87,43,34,19,4
68,19,-48,-43,58,-14,97,87,43,34,19,4
73,9,-63,-41,68,-26,92,82,39,34,14,4
73,9,-63,-41,68,-26,92,82,39,34,14,4
78,9,-68,-43,73,-29,92,92,39,29,14,14
78,14,-63,-46,70,-24,92,97,43,34,29,14
68,14,-53,-41,61,-19,82,97,53,43,29,14
73,14,-58,-43,65,-21,82,97,53,43,29,19
78,24,-53,-51,65,-14,82,107,53,48,34,29
82,24,-58,-53,70,-17,87,107,58,48,34,29
82,34,-48,-58,65,-7,78,107,68,58,43,34
82,34,-48,-58,65,-7,78,122,73,63,53,39
82,34,-48,-58,65,-7,78,122,73,73,58,39
82,43,-39,-63,61,2,78,126,78,78,63,43
97,58,-39,-78,68,9,73,131,82,78,58,53
107,63,-43,-85,75,9,68,136,78,78,58,53
112,63,-48,-87,80,7,68,141,73,73,58,53
117,63,-53,-90,85,4,63,146,68,78,63,58
107,58,-48,-82,78,4,73,151,68,82,63,63
117,58,-58,-87,87,0,78,161,78,82,78,68
117,58,-58,-87,87,0,78,161,78,87,82,78
122,58,-63,-90,92,-2,73,165,78,92,92,82
131,58,-73,-95,102,-7,63,175,82,97,97,87
136,68,-68,-102,102,0,63,180,82,102,97,92
141,68,-73,-104,107,-2,63,185,82,107,102,97
141,73,-68,-107,104,2,63,190,92,112,112,102
136,82,-53,-109,95,14,58,195,92,126,117,112
136,87,-48,-112,92,19,48,200,92,136,131,117
141,92,-48,-117,95,21,48,214,102,146,141,131
161,97,-63,-129,112,17,53,219,107,156,151,131
170,107,-63,-139,117,21,53,234,102,161,151,156
170,112,-58,-141,114,26,43,239,102,170,161,165
180,122,-58,-151,119,31,43,244,112,170,170,175
190,131,-58,-161,124,36,43,253,117,175,180,185
195,136,-58,-165,126,39,39,248,122,175,180,195
195,136,-58,-165,126,39,29,258,122,180,195,204
204,146,-58,-175,131,43,24,268,122,190,209,214
219,141,-78,-180,148,31,24,278,122,200,219,224
229,151,-78,-190,153,36,19,297,141,214,239,244
229,161,-68,-195,148,46,14,302,151,229,248,253
234,170,-63,-202,148,53,9,312,151,239,253,263
253,180,-73,-217,163,53,4,317,151,239,263,273
258,185,-73,-222,165,56,14,322,156,253,268,273
258,190,-68,-224,163,61,9,326,161,258,278,287
258,204,-53,-231,156,75,4,336,165,263,287,297
273,204,-68,-239,170,68,4,346,170,278,287,307
268,214,-53,-241,161,80,-9,346,165,278,297,317
273,224,-48,-248,161,87,-9,361,165,287,312,331
273,224,-48,-248,161,87,-14,361,161,287,312,336
273,224,-48,-248,161,87,-14,366,161,292,317,346
278,219,-58,-248,168,80,-14,356,180,307,326,346
283,229,-53,-256,168,87,-24,361,185,317,341,356
292,239,-53,-265,173,92,-29,361,185,317,351,361
297,244,-53,-270,175,95,-34,366,185,326,356,370
302,248,-53,-275,178,97,-34,375,180,326,351,370
302,253,-48,-278,175,102,-34,375,185,326,356,375
302,263,-39,-283,170,112,-34,370,185,322,356,375
312,268,-43,-290,178,112,-39,370,185,317,356,375
312,263,-48,-287,180,107,-29,370,195,322,356,370
307,263,-43,-285,175,109,-34,370,190,322,356,370
292,263,-29,-278,161,117,-34,361,190,322,361,370
302,258,-43,-280,173,107,-29,361,190,322,361,366
292,248,-43,-270,168,102,-24,351,180,307,351,361
283,248,-34,-265,158,107,-24,346,185,302,346,346
273,239,-34,-256,153,102,-19,341,185,297,326,341
273,229,-43,-251,158,92,-14,326,175,287,312,331
253,224,-29,-239,141,97,-19,312,165,268,307,322
248,224,-24,-236,136,100,-14,302,165,268,287,302
244,224,-19,-234,131,102,-9,292,156,253,273,287
229,219,-9,-224,119,104,-4,278,156,239,263,273
204,200,-4,-202,104,97,9,253,146,229,248,244
200,190,-9,-195,104,90,19,244,146,209,229,234
200,190,-9,-195,104,90,24,234,151,200,209,214
185,180,-4,-183,95,87,29,224,151,180,190,195
185,170,-14,-178,100,78,24,219,141,180,175,185
175,165,-9,-170,92,78,29,200,136,170,161,170
161,151,-9,-156,85,70,29,185,131,151,146,156
151,141,-9,-146,80,65,34,175,117,141,131,141
131,126,-4,-129,68,61,34,151,122,136,126,126
122,117,-4,-119,63,56,34,141,122,131,107,112
112,117,4,-114,53,61,43,131,122,122,102,107
107,112,4,-109,51,58,48,122,112,112,97,87
102,107,4,-104,48,56,48,107,102,97,73,73
107,107,0,-107,53,53,53,97,102,87,58,68
102,107,4,-104,48,56,58,92,97,78,53,58
102,97,-4,-100,53,46,63,87,92,68,43,48
87,87,0,-87,43,43,53,68,87,58,39,48
82,82,0,-82,41,41,48,63,82,43,24,39
82,82,0,-82,41,41,48,53,78,39,14,29
78,78,0,-78,39,39,48,43,73,39,14,29
73,58,-14,-65,43,21,58,43,73,34,9,19
68,58,-9,-63,39,24,63,43,68,29,9,14
63,53,-9,-58,36,21,63,29,63,24,0,9
58,48,-9,-53,34,19,63,24,58,14,-4,4
63,53,-9,-58,36,21,68,29,58,19,4,4
63,53,-9,-58,36,21,68,24,53,14,0,0
63,53,-9,-58,36,21,68,24,48,9,-4,-4
63,53,-9,-58,36,21,68,19,43,9,-4,-4
63,48,-14,-56,39,17,63,14,48,9,-19,-9
63,48,-14,-56,39,17,53,9,43,4,-24,-9
63,48,-14,-56,39,17,63,4,43,4,-24,-9
58,48,-9,-53,34,19,73,4,43,4,-24,-9
58,58,0,-58,29,29,63,4,39,-4,-29,-14
58,58,0,-58,29,29,63,4,43,-4,-29,-19
58,48,-9,-53,34,19,63,4,43,-4,-34,-19
58,43,-14,-51,36,14,63,4,39,-9,-34,-19
58,43,-14,-51,36,14,73,0,39,-9,-29,-19
58,43,-14,-51,36,14,78,0,39,-9,-34,-19
58,53,-4,-56,31,24,78,0,39,-9,-34,-19
53,43,-9,-48,31,17,78,-4,39,-9,-34,-19
63,43,-19,-53,41,12,78,4,39,-14,-29,-19
63,43,-19,-53,41,12,78,4,39,-9,-24,-19
63,43,-19,-53,41,12,78,4,39,-4,-24,-19
63,43,-19,-53,41,12,78,4,39,0,-19,-24
63,39,-24,-51,43,7,68,-4,39,4,-24,-24
63,39,-24,-51,43,7,68,-4,39,4,-24,-24
63,43,-19,-53,41,12,68,-4,39,4,-19,-24
63,43,-19,-53,41,12,68,-4,34,0,-19,-19
63,34,-29,-48,46,2,68,0,34,-4,-24,-19
63,43,-19,-53,41,12,68,0,34,-4,-24,-19
63,43,-19,-53,41,12,73,0,34,-4,-24,-24
63,43,-19,-53,41,12,73,0,34,0,-29,-24
63,48,-14,-56,39,17,63,-9,34,-4,-39,-9
63,39,-24,-51,43,7,63,-14,29,-9,-39,-9
63,43,-19,-53,41,12,63,-14,29,-14,-39,-19
68,48,-19,-58,43,14,63,-9,29,-19,-34,-19
78,58,-19,-68,48,19,68,-4,39,-19,-24,-19
78,58,-19,-68,48,19,68,0,39,-14,-24,-14
78,58,-19,-68,48,19,73,4,39,-9,-19,-4
78,58,-19,-68,48,19,78,9,39,-4,-19,-4
68,48,-19,-58,43,14,78,0,43,-4,-24,-9
68,39,-29,-53,48,4,78,0,43,-4,-24,-9
68,48,-19,-58,43,14,78,0,43,-4,-24,-14
68,58,-9,-63,39,24,82,4,48,-4,-24,-14
68,43,-24,-56,46,9,73,14,58,0,-19,-14
63,43,-19,-53,41,12,73,9,48,0,-19,-14
63,43,-19,-53,41,12,73,4,48,0,-19,-9
63,43,-19,-53,41,12,73,4,48,0,-19,-9
63,43,-19,-53,41,12,82,4,43,0,-19,-4
58,43,-14,-51,36,14,82,4,43,-4,-24,-4
58,43,-14,-51,36,14,78,4,39,-14,-29,-4
63,39,-24,-51,43,7,78,4,34,-19,-39,-9
63,39,-24,-51,43,7,78,-4,34,-9,-29,-14
58,39,-19,-48,39,9,78,0,34,-9,-29,-14
58,43,-14,-51,36,14,78,0,34,-9,-29,-14
58,43,-14,-51,36,14,78,0,34,-9,-29,-14
68,39,-29,-53,48,4,78,4,43,-9,-34,-4
68,39,-29,-53,48,4,78,4,43,-9,-34,-4
63,34,-29,-48,46,2,82,0,43,-9,-34,-4
63,34,-29,-48,46,2,82,0,43,-9,-29,-4
53,39,-14,-46,34,12,78,-9,43,-9,-29,-4
58,39,-19,-48,39,9,78,-4,43,-9,-29,-4
58,39,-19,-48,39,9,73,-4,43,-9,-29,-4
53,39,-14,-46,34,12,73,-4,43,-9,-24,-4
63,39,-24,-51,43,7,73,4,39,-9,-24,-9
68,39,-29,-53,48,4,78,4,39,-9,-24,-9
68,39,-29,-53,48,4,87,4,39,-4,-24,-9
68,48,-19,-58,43,14,92,4,39,-4,-24,-9
58,48,-9,-53,34,19,87,9,39,-4,-24,-4
58,48,-9,-53,34,19,82,9,39,-9,-29,-4
58,48,-9,-53,34,19,78,4,39,-9,-29,-4
53,39,-14,-46,34,12,73,4,39,-9,-29,-4
63,39,-24,-51,43,7,82,14,48,0,-29,0
68,48,-19,-58,43,14,82,14,48,0,-29,0
68,48,-19,-58,43,14,82,14,48,0,-29,0
63,48,-14,-56,39,17,82,14,53,0,-24,4
63,48,-14,-56,39,17,78,4,53,0,-14,-4
58,48,-9,-53,34,19,82,4,53,0,-14,-4
58,48,-9,-53,34,19,82,4,53,0,-19,-4
58,58,0,-58,29,29,78,4,53,4,-19,-4
48,53,4,-51,21,29,82,4,48,0,-29,-4
53,53,0,-53,26,26,82,4,43,-4,-29,-9
53,53,0,-53,26,26,82,4,39,-9,-24,-9
53,53,0,-53,26,26,82,4,34,-14,-24,-9
58,68,9,-63,24,39,78,4,43,-14,-24,-9
63,68,4,-65,29,36,78,4,43,-14,-24,-9
73,68,-4,-70,39,31,82,4,43,-19,-24,-9
78,73,-4,-75,41,34,87,4,43,-19,-29,-4
58,63,4,-61,26,34,82,14,43,-4,-19,-4
58,58,0,-58,29,29,82,14,43,-4,-19,-4
58,58,0,-58,29,29,78,14,43,-4,-14,-4
58,63,4,-61,26,34,78,14,43,-9,-14,-4
58,82,24,-70,17,53,68,19,43,-19,-24,-14
58,82,24,-70,17,53,68,14,48,-14,-24,-14
58,78,19,-68,19,48,73,9,48,-14,-24,-14
58,78,19,-68,19,48,73,0,48,-19,-24,-14
58,87,29,-73,14,58,73,9,53,-19,-24,-4
58,87,29,-73,14,58,78,14,53,-14,-29,-4
63,87,24,-75,19,56,82,14,58,-9,-29,-4
63,87,24,-75,19,56,87,9,58,-4,-29,-4
58,68,9,-63,24,39,73,0,43,-19,-39,-19
58,68,9,-63,24,39,73,0,43,-14,-39,-19
58,68,9,-63,24,39,68,0,43,-19,-39,-14
58,63,4,-61,26,34,68,-9,43,-24,-39,-14
48,73,24,-61,12,48,78,0,43,-19,-29,-4
53,78,24,-65,14,51,78,4,48,-14,-29,0
53,78,24,-65,14,51,78,4,48,-9,-29,0
53,78,24,-65,14,51,78,9,48,-4,-24,0
63,78,14,-70,24,46,87,9,48,-4,-34,-9
58,82,24,-70,17,53,87,9,48,-9,-34,-9
58,82,24,-70,17,53,87,4,53,-9,-34,-9
63,82,19,-73,21,51,87,4,53,-4,-34,-9
63,82,19,-73,21,51,82,4,39,-4,-29,-9
63,82,19,-73,21,51,78,4,34,-9,-29,-9
63,73,9,-68,26,41,78,0,34,-14,-29,-9
63,73,9,-68,26,41,82,0,34,-14,-34,-9
58,73,14,-65,21,43,78,0,39,-4,-24,-4
58,82,24,-70,17,53,78,0,39,-4,-29,-4
63,82,19,-73,21,51,78,0,43,-9,-34,-4
63,78,14,-70,24,46,73,0,48,-9,-34,-4
63,87,24,-75,19,56,73,0,39,-9,-34,-14
63,82,19,-73,21,51,73,0,39,-9,-34,-14
53,73,19,-63,17,46,78,-4,39,-9,-34,-9
53,73,19,-63,17,46,78,-4,39,-9,-29,-9
63,68,4,-65,29,36,82,4,39,-19,-29,-9
63,73,9,-68,26,41,82,4,39,-19,-29,-9
63,73,9,-68,26,41,82,4,39,-19,-29,-9
63,63,0,-63,31,31,82,4,39,-19,-29,-9
63,73,9,-68,26,41,87,4,43,-19,-34,-19
63,73,9,-68,26,41,87,4,43,-14,-34,-24
63,63,0,-63,31,31,92,4,43,-14,-34,-24
63,63,0,-63,31,31,92,0,43,-14,-34,-24
63,63,0,-63,31,31,82,0,34,-14,-43,-14
68,73,4,-70,31,39,82,0,34,-14,-43,-14
68,82,14,-75,26,48,82,4,39,-19,-43,-4
58,82,24,-70,17,53,82,4,39,-29,-43,-4
53,73,19,-63,17,46,82,4,34,-29,-48,-4
48,68,19,-58,14,43,82,0,24,-29,-53,-14
48,68,19,-58,14,43,82,-9,24,-24,-48,-14
48,68,19,-58,14,43,82,-14,24,-19,-43,-14
53,78,24,-65,14,51,82,-9,29,-9,-34,-9
58,73,14,-65,21,43,87,-9,39,-9,-34,-9
63,73,9,-68,26,41,87,-9,43,-9,-39,-9
68,73,4,-70,31,39,82,-4,48,-9,-39,-14
68,73,4,-70,31,39,82,-4,39,-24,-48,-14
68,78,9,-73,29,43,87,-9,39,-24,-48,-14
68,78,9,-73,29,43,87,-9,39,-14,-43,-14
68,78,9,-73,29,43,87,-19,34,-14,-43,-9
58,78,19,-68,19,48,87,-9,34,-29,-53,-19
53,68,14,-61,19,41,87,-4,34,-29,-53,-19
53,58,4,-56,24,31,87,-4,34,-29,-53,-19
53,68,14,-61,19,41,87,-4,29,-24,-53,-19
53,68,14,-61,19,41,87,-9,39,-14,-39,-14
63,73,9,-68,26,41,87,-9,39,-24,-43,-14
63,73,9,-68,26,41,87,-9,48,-24,-43,-9
58,68,9,-63,24,39,87,-9,48,-19,-39,-9
63,58,-4,-61,34,26,82,-9,34,-19,-34,-9
63,73,9,-68,26,41,82,-9,34,-24,-39,-9
63,63,0,-63,31,31,82,-9,34,-24,-43,-14
58,63,4,-61,26,34,82,-9,29,-24,-48,-14
48,68,19,-58,14,43,82,4,39,-24,-48,-14
48,68,19,-58,14,43,92,4,39,-24,-48,-14
53,63,9,-58,21,36,92,0,43,-24,-43,-14
53,58,4,-56,24,31,92,0,43,-24,-43,-14
63,48,-14,-56,39,17,82,-4,34,-24,-43,-14
63,53,-9,-58,36,21,92,-4,34,-24,-43,-14
63,63,0,-63,31,31,102,0,39,-19,-43,-14
63,68,4,-65,29,36,102,0,39,-19,-43,-14
63,68,4,-65,29,36,92,0,48,-24,-43,-14
63,63,0,-63,31,31,92,0,48,-24,-48,-14
63,63,0,-63,31,31,87,-9,48,-29,-48,-14
68,68,0,-68,34,34,82,-14,43,-29,-48,-14
58,68,9,-63,24,39,87,-24,39,-34,-48,-19
58,68,9,-63,24,39,87,-14,34,-34,-48,-19
58,73,14,-65,21,43,92,-9,34,-29,-48,-14
53,73,19,-63,17,46,92,-9,29,-29,-53,-14
58,78,19,-68,19,48,92,-9,29,-39,-53,-14
63,78,14,-70,24,46,92,-9,29,-39,-48,-14
68,78,9,-73,29,43,92,-9,34,-39,-48,-14
73,78,4,-75,34,41,92,-14,34,-39,-43,-14
73,82,9,-78,31,46,82,-14,34,-29,-53,-14
78,82,4,-80,36,43,82,-9,24,-34,-53,-14
78,82,4,-80,36,43,82,-9,24,-34,-58,-19
73,73,0,-73,36,36,82,-9,24,-34,-58,-19
73,82,9,-78,31,46,82,-19,29,-34,-53,-19
68,78,9,-73,29,43,87,-19,39,-29,-48,-19
78,78,0,-78,39,39,78,-9,29,-39,-58,-19
78,78,0,-78,39,39,78,-9,29,-39,-58,-19
78,78,0,-78,39,39,78,-9,29,-39,-58,-19
78,78,0,-78,39,39,78,-9,29,-39,-58,-19
68,78,9,-73,29,43,87,-9,19,-29,-48,-19
68,78,9,-73,29,43,87,-9,19,-29,-48,-19
68,78,9,-73,29,43,87,-9,19,-29,-48,-19
68,78,9,-73,29,43,87,-9,19,-29,-48,-19
68,68,0,-68,34,34,78,-19,19,-39,-58,-29
68,68,0,-68,34,34,78,-19,19,-39,-58,-29
68,68,0,-68,34,34,78,-19,19,-39,-58,-29
68,68,0,-68,34,34,78,-19,19,-39,-58,-29
68,68,0,-68,34,34,87,-9,24,-29,-48,-24
68,68,0,-68,34,34,87,-9,29,-29,-48,-19
68,68,0,-68,34,34,87,-9,34,-29,-48,-14
68,68,0,-68,34,34,87,-9,39,-29,-48,-9
78,68,-9,-73,43,29,87,-9,29,-29,-48,-19
78,68,-9,-73,43,29,87,-9,29,-29,-48,-19
78,68,-9,-73,43,29,87,-9,29,-29,-48,-19
78,68,-9,-73,43,29,87,-9,29,-29,-48,-19
78,78,0,-78,39,39,78,-19,19,-39,-58,-19
78,78,0,-78,39,39,78,-19,19,-39,-58,-19
78,78,0,-78,39,39,78,-19,19,-39,-58,-19
78,78,0,-78,39,39,78,-19,19,-39,-58,-19
68,68,0,-68,34,34,78,-19,19,-39,-58,-19
68,68,0,-68,34,34,78,-19,19,-39,-58,-19
68,68,0,-68,34,34,78,-19,19,-39,-58,-19
68,78,9,-73,29,43,78,-19,24,-39,-58,-19
78,78,0,-78,39,39,78,-9,34,-39,-58,-19
78,73,-4,-75,41,34,78,-4,34,-39,-58,-19
78,63,-14,-70,46,24,78,-4,34,-39,-58,-19
82,73,-9,-78,46,31,78,-4,34,-34,-58,-14
82,82,0,-82,41,41,82,-9,39,-24,-43,-14
87,82,-4,-85,46,39,82,-9,39,-24,-43,-14
87,87,0,-87,43,43,82,-4,39,-24,-43,-9
87,92,4,-90,41,48,82,-4,48,-14,-34,-4
102,92,-9,-97,56,41,87,9,48,-19,-39,-4
107,107,0,-107,53,53,87,14,53,-14,-34,4
112,117,4,-114,53,61,102,29,63,4,-24,9
112,122,9,-117,51,65,107,39,73,4,-19,14
107,122,14,-114,46,68,107,39,73,9,-19,14
102,122,19,-112,41,70,112,39,82,9,-19,14
102,122,19,-112,41,70,122,43,82,19,-14,19
102,122,19,-112,41,70,131,48,87,19,-9,19
92,122,29,-107,31,75,136,48,97,19,0,29
82,117,34,-100,24,75,136,53,102,24,0,34
82,117,34,-100,24,75,141,53,102,24,0,34
82,117,34,-100,24,75,141,53,102,24,0,34
92,126,34,-109,29,80,131,63,97,24,0,34
97,126,29,-112,34,78,122,63,97,19,0,34
102,122,19,-112,41,70,107,53,92,19,0,34
112,122,9,-117,51,65,102,48,82,9,-4,34
117,112,-4,-114,61,53,82,43,82,9,-14,34
122,117,-4,-119,63,56,68,43,87,9,-14,34
122,126,4,-124,58,65,53,39,87,14,-14,39
122,131,9,-126,56,70,48,34,82,14,-14,39
122,131,9,-126,56,70,39,14,63,9,-9,29
122,131,9,-126,56,70,39,9,63,4,-9,29
117,126,9,-122,53,68,39,4,58,0,-9,24
117,117,0,-117,58,58,39,-4,43,-4,-14,24
112,112,0,-112,56,56,48,-14,43,-14,-29,14
97,102,4,-100,46,53,58,-14,39,-14,-39,9
92,92,0,-92,46,46,58,-14,39,-19,-39,9
87,82,-4,-85,46,39,58,-14,34,-19,-43,9
102,87,-14,-95,58,36,58,-4,34,-9,-39,14
107,92,-14,-100,61,39,63,-4,34,-9,-29,14
112,92,-19,-102,65,36,63,-4,34,-9,-24,14
122,97,-24,-109,73,36,63,-4,34,-9,-19,14
117,97,-19,-107,68,39,63,-4,43,-19,-29,24
117,87,-29,-102,73,29,63,-4,34,-24,-29,24
117,82,-34,-100,75,24,63,-4,34,-29,-39,14
117,78,-39,-97,78,19,63,-4,29,-29,-39,14
107,78,-29,-92,68,24,58,-9,19,-29,-53,4
117,78,-39,-97,78,19,53,-9,19,-29,-53,4
117,78,-39,-97,78,19,53,-9,19,-29,-53,4
117,73,-43,-95,80,14,53,-19,9,-39,-58,4
126,73,-53,-100,90,9,43,-19,19,-39,-48,9
117,63,-53,-90,85,4,43,-24,19,-39,-53,4
112,63,-48,-87,80,7,43,-34,14,-43,-58,0
97,63,-34,-80,65,14,53,-34,14,-43,-58,0
87,53,-34,-70,61,9,53,-29,9,-53,-68,-9
87,53,-34,-70,61,9,58,-29,9,-53,-68,-19
73,43,-29,-58,51,7,63,-29,9,-63,-68,-24
63,34,-29,-48,46,2,73,-29,9,-63,-73,-24
53,34,-19,-43,36,7,78,-29,9,-58,-73,-24
53,34,-19,-43,36,7,82,-29,9,-58,-73,-24
53,34,-19,-43,36,7,82,-34,9,-63,-73,-24
53,34,-19,-43,36,7,78,-34,9,-63,-78,-24
63,34,-29,-48,46,2,78,-24,0,-63,-73,-29
63,39,-24,-51,43,7,73,-29,-4,-63,-73,-29
63,43,-19,-53,41,12,73,-29,-4,-63,-68,-29
63,48,-14,-56,39,17,73,-29,-4,-63,-68,-29
63,48,-14,-56,39,17,73,-39,4,-63,-78,-29
58,48,-9,-53,34,19,73,-39,4,-63,-78,-29
58,48,-9,-53,34,19,73,-39,4,-63,-78,-29
63,48,-14,-56,39,17,78,-39,4,-63,-82,-29
63,39,-24,-51,43,7,87,-34,14,-63,-73,-29
63,39,-24,-51,43,7,87,-34,14,-63,-73,-29
63,39,-24,-51,43,7,87,-34,14,-63,-73,-29
63,39,-24,-51,43,7,87,-34,14,-63,-73,-29
53,39,-14,-46,34,12,87,-24,4,-53,-82,-29
48,39,-9,-43,29,14,87,-24,4,-53,-78,-29
43,29,-14,-36,29,7,87,-24,4,-53,-78,-29
43,29,-14,-36,29,7,87,-24,4,-53,-78,-29
43,34,-9,-39,26,12,82,-24,4,-63,-78,-29
43,34,-9,-39,26,12,82,-24,9,-63,-78,-29
48,34,-14,-41,31,9,82,-24,9,-58,-78,-29
53,34,-19,-43,36,7,78,-24,9,-58,-78,-29
63,43,-19,-53,41,12,78,-34,4,-73,-78,-39
53,34,-19,-43,36,7,87,-24,4,-63,-82,-39
48,24,-24,-36,36,0,92,-24,9,-68,-92,-43
48,9,-39,-29,43,-14,107,-14,4,-73,-97,-63
48,-14,-63,-17,56,-39,117,0,0,-87,-117,-82
53,-34,-87,-9,70,-61,131,29,0,-107,-146,-112
63,-34,-97,-14,80,-65,122,78,14,-112,-151,-117
87,-14,-102,-36,95,-58,126,165,53,-68,-122,-92
107,24,-82,-65,95,-29,146,302,141,29,-29,-19
165,97,-68,-131,117,14,175,473,253,180,102,87
248,200,-48,-224,148,75,180,624,375,361,287,244
317,297,-19,-307,168,139,161,722,497,541,478,424
366,400,34,-383,165,217,170,785,644,736,678,600
429,527,97,-478,165,312,180,839,761,912,863,771
507,619,112,-563,197,366,146,824,819,1049,1024,932
575,702,126,-639,224,414,97,785,814,1156,1171,1098
629,780,151,-705,239,466,58,736,780,1249,1302,1229
678,834,156,-756,261,495,0,678,736,1327,1415,1356
736,888,151,-812,292,519,-131,580,678,1395,1537,1493
761,936,175,-849,292,556,-278,429,649,1459,1644,1620
732,961,229,-846,251,595,-361,292,605,1488,1703,1688
658,961,302,-810,178,631,-405,180,531,1454,1688,1688
590,917,326,-753,131,622,-453,53,409,1322,1556,1581
536,800,263,-668,136,531,-483,-102,244,1078,1307,1376
434,668,234,-551,100,451,-448,-219,92,819,1019,1117
326,566,239,-446,43,402,-390,-278,14,590,761,854
239,492,253,-366,-7,373,-336,-322,-9,409,536,629
151,409,258,-280,-53,334,-263,-302,-24,263,361,439
92,331,239,-212,-73,285,-175,-263,-24,146,214,278
73,297,224,-185,-75,261,-117,-253,-34,58,112,170
63,287,224,-175,-80,256,-82,-234,-39,19,63,122
63,263,200,-163,-68,231,-63,-200,-29,29,48,112
73,258,185,-165,-56,222,-39,-156,-9,48,68,122
68,229,161,-148,-46,195,-19,-122,0,43,53,112
48,190,141,-119,-46,165,4,-87,9,29,29,78
48,165,117,-107,-34,141,14,-58,19,24,19,58
53,146,92,-100,-19,119,14,-58,19,9,19,53
58,146,87,-102,-14,117,9,-48,19,9,14,43
58,151,92,-104,-17,122,24,-39,19,19,14,53
53,131,78,-92,-12,104,29,-43,9,14,4,39
43,117,73,-80,-14,95,48,-43,0,-4,-14,24
53,102,48,-78,2,75,68,-29,4,-9,-19,14
63,82,19,-73,21,51,87,-4,4,-14,-24,14
73,82,9,-78,31,46,97,29,9,-19,-24,4
63,73,9,-68,26,41,97,24,19,-19,-29,0
63,58,-4,-61,34,26,97,24,24,-19,-29,0
73,53,-19,-63,46,17,97,24,29,-19,-24,0
63,48,-14,-56,39,17,97,19,34,-19,-24,-9
53,48,-4,-51,29,21,97,19,29,-19,-43,-9
48,48,0,-48,24,24,102,19,29,-19,-43,-9
48,48,0,-48,24,24,102,24,29,-24,-43,-9
48,43,-4,-46,26,19,102,24,29,-29,-48,-14
58,53,-4,-56,31,24,107,24,19,-39,-48,-14
63,53,-9,-58,36,21,107,24,19,-34,-48,-14
68,53,-14,-61,41,19,107,29,24,-34,-48,-14
68,53,-14,-61,41,19,107,29,24,-34,-48,-9
63,43,-19,-53,41,12,107,19,29,-29,-53,-9
63,43,-19,-53,41,12,107,19,19,-34,-53,-9
63,43,-19,-53,41,12,107,19,29,-34,-48,-14
63,43,-19,-53,41,12,107,19,29,-34,-48,-14
63,43,-19,-53,41,12,117,24,34,-19,-43,-9
63,43,-19,-53,41,12,117,29,34,-14,-39,-9
68,48,-19,-58,43,14,122,34,39,-9,-39,-9
68,48,-19,-58,43,14,126,43,39,-9,-34,-4
68,48,-19,-58,43,14,117,39,39,-14,-34,-14
68,48,-19,-58,43,14,112,39,39,-19,-39,-14
68,53,-14,-61,41,19,112,34,39,-24,-43,-14
68,53,-14,-61,41,19,112,34,39,-29,-43,-19
58,43,-14,-51,36,14,122,43,29,-19,-34,-9
58,34,-24,-46,41,4,122,43,29,-19,-34,-4
58,34,-24,-46,41,4,122,43,29,-19,-29,-4
58,39,-19,-48,39,9,122,48,39,-9,-24,0
63,53,-9,-58,36,21,131,48,43,0,-24,0
63,53,-9,-58,36,21,131,53,43,0,-24,0
63,53,-9,-58,36,21,131,53,48,-4,-24,0
63,53,-9,-58,36,21,131,53,53,-4,-24,4
63,53,-9,-58,36,21,122,53,43,-4,-24,14
63,43,-19,-53,41,12,122,58,43,-4,-24,14
63,43,-19,-53,41,12,122,58,48,0,-19,14
73,48,-24,-61,48,12,122,63,53,0,-19,14
73,58,-14,-65,43,21,136,73,63,0,-14,19
73,58,-14,-65,43,21,136,73,63,0,-14,24
68,58,-9,-63,39,24,131,73,63,4,-14,24
63,58,-4,-61,34,26,131,73,63,9,-9,24
63,48,-14,-56,39,17,131,78,53,4,-19,19
68,48,-19,-58,43,14,131,78,53,4,-14,19
68,48,-19,-58,43,14,131,78,58,0,-14,19
68,48,-19,-58,43,14,131,78,58,0,-19,19
73,58,-14,-65,43,21,141,82,63,4,-9,19
73,58,-14,-65,43,21,136,82,63,9,-9,19
73,63,-9,-68,41,26,136,82,63,9,-4,19
73,63,-9,-68,41,26,136,92,68,9,0,24
73,53,-19,-63,46,17,126,82,68,9,0,24
78,53,-24,-65,51,14,126,87,73,14,0,29
78,53,-24,-65,51,14,126,87,73,14,4,34
82,53,-29,-68,56,12,126,92,73,14,4,34
73,68,-4,-70,39,31,126,92,68,19,0,43
73,68,-4,-70,39,31,126,92,73,24,0,43
73,68,-4,-70,39,31,126,97,73,24,0,43
78,73,-4,-75,41,34,126,97,73,24,4,48
87,73,-14,-80,51,29,122,102,82,24,4,48
87,78,-9,-82,48,34,122,102,82,24,4,48
87,78,-9,-82,48,34,126,107,82,24,9,53
87,78,-9,-82,48,34,126,107,82,24,9,53
92,78,-14,-85,53,31,131,122,87,39,24,43
92,78,-14,-85,53,31,131,122,87,43,24,43
97,78,-19,-87,58,29,131,131,87,43,24,53
97,82,-14,-90,56,34,131,136,92,53,39,53
87,82,-4,-85,46,39,122,126,92,43,29,53
92,82,-9,-87,51,36,122,126,92,43,29,58
97,92,-4,-95,51,43,122,136,92,48,34,68
102,92,-9,-97,56,41,126,136,97,48,34,68
102,82,-19,-92,61,31,126,136,87,48,34,63
102,82,-19,-92,61,31,126,151,92,53,43,68
102,82,-19,-92,61,31,126,151,92,63,48,68
102,92,-9,-97,56,41,126,156,97,68,53,73
112,97,-14,-104,63,41,131,161,107,63,58,92
117,102,-14,-109,65,43,126,165,107,68,58,92
117,102,-14,-109,65,43,126,170,107,68,58,92
117,102,-14,-109,65,43,122,175,107,78,63,97
107,107,0,-107,53,53,122,180,107,82,63,102
117,107,-9,-112,63,48,126,190,117,82,78,107
117,107,-9,-112,63,48,126,190,117,87,82,117
122,107,-14,-114,68,46,122,195,117,92,92,122
122,117,-4,-119,63,56,112,195,122,97,97,126
126,126,0,-126,63,63,112,200,122,102,97,131
131,126,-4,-129,68,61,112,204,122,107,102,136
131,131,0,-131,65,65,112,209,131,112,112,141
141,141,0,-141,70,70,117,224,131,117,107,151
146,146,0,-146,73,73,107,229,131,126,122,156
156,151,-4,-153,80,73,107,244,141,136,131,170
180,156,-24,-168,102,65,112,248,146,146,141,170
170,161,-9,-165,90,75,112,263,151,146,151,175
170,161,-9,-165,90,75,102,268,151,161,161,185
180,165,-14,-173,97,75,102,273,161,165,170,195
190,170,-19,-180,104,75,102,283,165,175,180,204
185,180,-4,-183,95,87,97,287,170,180,170,204
185,185,0,-185,92,92,87,297,170,190,185,214
195,200,4,-197,95,102,82,307,170,204,200,224
209,200,-9,-204,109,95,82,317,170,219,209,234
219,214,-4,-217,112,104,87,336,190,224,229,248
219,219,0,-219,109,109,82,341,200,239,239,263
224,224,0,-224,112,112,78,351,200,248,244,278
244,229,-14,-236,129,107,73,356,200,248,253,292
248,234,-14,-241,131,109,73,361,195,253,268,292
248,239,-9,-244,129,114,68,366,200,258,278,307
248,253,4,-251,122,129,63,375,204,263,287,317
263,253,-9,-258,136,122,63,385,209,278,287,326
268,263,-4,-265,136,129,58,385,219,297,307,336
273,273,0,-273,136,136,58,400,224,307,322,351
273,273,0,-273,136,136,53,400,224,307,322,356
273,273,0,-273,136,136,53,405,229,312,326,366
278,287,9,-283,134,148,53,405,239,317,326,366
283,297,14,-290,134,156,43,409,244,326,341,375
292,307,14,-300,139,161,39,409,244,326,351,380
297,312,14,-305,141,163,34,414,244,336,356,390
302,312,9,-307,146,161,34,424,239,351,370,400
302,312,9,-307,146,161,34,424,244,356,375,405
302,317,14,-309,143,165,34,419,244,356,375,405
312,317,4,-314,153,161,29,419,244,356,375,405
312,312,0,-312,156,156,39,429,253,351,366,409
307,312,4,-309,151,158,34,429,248,351,366,409
292,312,19,-302,136,165,34,419,248,351,370,409
302,307,4,-305,148,156,39,419,248,351,370,405
312,317,4,-314,153,161,39,409,248,346,366,409
302,317,14,-309,143,165,34,405,253,341,366,395
292,307,14,-300,139,161,34,400,253,336,351,390
292,297,4,-295,143,151,34,385,244,326,341,380
283,292,9,-287,136,151,48,380,244,317,346,370
278,292,14,-285,131,153,53,370,244,317,326,351
273,292,19,-283,126,156,58,361,234,302,312,336
258,287,29,-273,114,158,63,346,234,287,302,322
234,258,24,-246,104,141,63,331,219,278,283,312
229,248,19,-239,104,134,68,322,214,258,268,302
229,248,19,-239,104,134,68,312,214,248,253,283
214,239,24,-226,95,131,68,302,209,229,239,263
214,219,4,-217,104,112,82,287,195,219,224,253
204,214,9,-209,97,112,87,268,195,209,209,239
190,200,9,-195,90,104,87,253,195,190,195,224
180,190,9,-185,85,100,92,244,185,180,180,209
180,185,4,-183,87,95,92,219,180,175,175,204
170,175,4,-173,82,90,92,209,180,170,156,190
161,175,14,-168,73,95,102,200,180,161,151,185
156,170,14,-163,70,92,107,190,170,151,146,165
136,141,4,-139,65,73,97,165,151,136,122,141
136,136,0,-136,68,68,102,156,151,126,107,136
126,131,4,-129,61,68,107,151,146,117,102,126
122,117,-4,-119,63,56,112,146,141,107,92,117
117,117,0,-117,58,58,112,136,126,97,87,107
112,112,0,-112,56,56,107,131,122,82,73,97
112,112,0,-112,56,56,107,122,117,78,63,87
107,107,0,-107,53,53,107,112,112,78,63,87
102,107,4,-104,48,56,117,92,117,73,58,78
97,107,9,-102,43,58,122,92,117,68,58,73
92,102,9,-97,41,56,122,78,117,63,48,68
87,97,9,-92,39,53,122,73,117,53,43,63
92,92,0,-92,46,46,107,68,112,48,39,53
92,92,0,-92,46,46,107,63,102,43,29,48
92,92,0,-92,46,46,107,63,92,39,19,43
92,92,0,-92,46,46,107,58,82,39,14,43
82,78,-4,-80,43,36,102,63,87,29,19,39
82,78,-4,-80,43,36,92,58,82,24,14,39
82,78,-4,-80,43,36,102,53,82,24,14,39
78,78,0,-78,39,39,112,53,82,24,14,39
78,68,-9,-73,43,29,112,53,78,24,9,43
78,68,-9,-73,43,29,112,53,82,24,9,39
78,58,-19,-68,48,19,112,53,82,24,4,39
78,53,-24,-65,51,14,112,53,78,19,4,39
78,53,-24,-65,51,14,112,48,78,9,0,34
78,53,-24,-65,51,14,117,48,78,9,-4,29
78,63,-14,-70,46,24,117,48,78,9,-4,24
73,53,-19,-63,46,17,117,43,78,9,-4,19
82,63,-19,-73,51,21,117,43,68,0,-4,19
82,63,-19,-73,51,21,117,43,68,0,-4,19
82,63,-19,-73,51,21,117,43,68,0,-9,19
82,63,-19,-73,51,21,117,43,68,0,-9,14
73,58,-14,-65,43,21,107,43,68,4,-14,14
73,58,-14,-65,43,21,107,43,68,4,-14,14
73,63,-9,-68,41,26,107,43,68,4,-9,14
73,63,-9,-68,41,26,107,43,63,0,-9,19
82,53,-29,-68,56,12,107,39,63,-4,-14,29
82,63,-19,-73,51,21,107,39,63,-4,-14,29
82,63,-19,-73,51,21,112,39,63,-4,-14,24
82,63,-19,-73,51,21,112,39,63,0,-19,24
73,73,0,-73,36,36,102,39,63,0,-9,29
73,58,-14,-65,43,21,102,34,58,0,-9,29
73,58,-14,-65,43,21,102,34,58,0,-9,19
78,58,-19,-68,48,19,102,39,58,0,-4,19
78,48,-29,-63,53,9,112,29,68,-4,-14,19
78,48,-29,-63,53,9,107,29,68,-4,-14,24
78,48,-29,-63,53,9,107,29,68,-4,-9,34
78,48,-29,-63,53,9,107,29,68,-4,-9,34
78,58,-19,-68,48,19,107,29,58,-4,-14,19
78,48,-29,-63,53,9,107,29,53,-4,-14,19
78,58,-19,-68,48,19,107,29,48,-4,-14,14
78,68,-9,-73,43,29,112,34,48,-4,-14,14
78,43,-34,-61,56,4,102,34,58,-9,-19,14
73,43,-29,-58,51,7,102,29,48,-9,-19,14
73,43,-29,-58,51,7,102,24,48,-9,-19,19
73,43,-29,-58,51,7,102,24,48,-9,-19,19
73,53,-19,-63,46,17,112,24,58,4,-14,24
68,53,-14,-61,41,19,112,24,63,4,-14,24
68,53,-14,-61,41,19,107,24,63,0,-14,24
73,48,-24,-61,48,12,107,24,63,0,-19,19
73,39,-34,-56,53,2,107,14,63,-9,-19,14
68,39,-29,-53,48,4,107,19,63,-9,-19,14
68,43,-24,-56,46,9,107,19,63,-9,-19,14
68,43,-24,-56,46,9,107,19,63,-9,-19,14
68,48,-19,-58,43,14,107,34,53,-19,-24,14
68,48,-19,-58,43,14,107,34,53,-19,-24,14
63,43,-19,-53,41,12,112,29,53,-19,-24,14
63,43,-19,-53,41,12,112,29,53,-19,-19,14
73,48,-24,-61,48,12,107,19,63,-9,-9,24
78,48,-29,-63,53,9,107,24,63,-9,-9,24
78,48,-29,-63,53,9,102,24,63,-9,-9,24
73,48,-24,-61,48,12,102,24,63,-9,-4,24
73,39,-34,-56,53,2,102,34,68,-9,-14,19
78,39,-39,-58,58,0,107,34,68,-9,-14,19
78,39,-39,-58,58,0,117,34,68,-4,-14,19
78,48,-29,-63,53,9,122,34,68,-4,-14,19
78,58,-19,-68,48,19,112,29,58,-4,-14,14
78,58,-19,-68,48,19,112,29,58,-9,-19,14
78,58,-19,-68,48,19,112,24,58,-9,-19,14
73,48,-24,-61,48,12,112,24,58,-9,-19,14
73,39,-34,-56,53,2,102,24,68,-9,-9,19
78,48,-29,-63,53,9,102,24,68,-9,-9,19
78,48,-29,-63,53,9,102,24,68,-9,-9,19
73,48,-24,-61,48,12,102,24,73,-9,-4,24
73,48,-24,-61,48,12,117,34,73,-9,-14,24
68,48,-19,-58,43,14,122,34,73,-9,-14,24
68,48,-19,-58,43,14,122,34,73,-9,-19,24
68,58,-9,-63,39,24,117,34,73,-4,-19,24
58,58,0,-58,29,29,112,24,63,-4,-19,24
63,53,-9,-58,36,21,112,24,63,-4,-19,19
63,48,-14,-56,39,17,112,24,63,-4,-14,19
63,43,-19,-53,41,12,112,24,63,-4,-14,19
63,43,-19,-53,41,12,107,34,68,4,-14,19
63,39,-24,-51,43,7,107,34,73,4,-14,19
68,34,-34,-51,51,0,112,34,78,0,-14,19
68,34,-34,-51,51,0,117,34,82,0,-19,24
68,39,-29,-53,48,4,112,34,73,4,-9,14
68,39,-29,-53,48,4,112,34,73,4,-9,14
68,43,-24,-56,46,9,107,34,73,4,-4,14
68,53,-14,-61,41,19,107,34,73,0,-4,14
68,53,-14,-61,41,19,107,34,63,-9,-4,14
68,53,-14,-61,41,19,107,34,68,-4,-4,14
68,48,-19,-58,43,14,112,34,68,-4,-4,14
68,48,-19,-58,43,14,112,29,68,-9,-4,14
68,48,-19,-58,43,14,107,29,68,-9,-4,24
68,48,-19,-58,43,14,107,34,73,-4,-9,24
73,48,-24,-61,48,12,107,34,82,0,-9,24
73,48,-24,-61,48,12,107,29,87,4,-9,24
68,39,-29,-53,48,4,107,29,73,0,-9,19
68,39,-29,-53,48,4,112,29,73,4,-9,19
68,39,-29,-53,48,4,112,29,73,0,-9,24
68,34,-34,-51,51,0,117,19,73,-4,-9,24
68,24,-43,-46,56,-9,117,29,73,-4,-9,14
73,29,-43,-51,58,-7,117,34,78,-4,-9,19
73,29,-43,-51,58,-7,117,34,78,-4,-9,19
73,29,-43,-51,58,-7,117,39,78,-4,-4,19
73,39,-34,-56,53,2,117,29,78,-4,-14,19
68,43,-24,-56,46,9,117,29,78,-9,-14,19
68,43,-24,-56,46,9,117,24,82,-9,-14,19
73,43,-29,-58,51,7,117,24,82,-4,-14,19
63,43,-19,-53,41,12,122,34,78,4,0,19
63,43,-19,-53,41,12,117,34,73,0,0,19
63,34,-29,-48,46,2,117,29,73,-4,0,19
63,34,-29,-48,46,2,122,29,73,-4,-4,19
58,24,-34,-41,46,-4,112,19,73,-4,-14,14
58,34,-24,-46,41,4,107,19,68,-4,-19,14
63,34,-29,-48,46,2,102,19,68,-9,-24,14
63,29,-34,-46,48,-2,92,19,68,-9,-24,14
63,29,-34,-46,48,-2,102,29,58,-19,-24,4
63,24,-39,-43,51,-7,102,29,58,-19,-24,4
53,14,-39,-34,46,-12,107,24,58,-19,-24,9
53,14,-39,-34,46,-12,107,24,58,-19,-19,9
63,29,-34,-46,48,-2,112,24,68,-9,-9,19
63,34,-29,-48,46,2,112,24,68,-9,-9,19
63,34,-29,-48,46,2,112,24,68,-9,-9,19
63,24,-39,-43,51,-7,112,24,68,-9,-9,19
73,34,-39,-53,56,-2,107,24,73,-19,-24,19
73,34,-39,-53,56,-2,107,24,73,-14,-24,14
73,24,-48,-48,61,-12,112,24,73,-14,-24,14
73,24,-48,-48,61,-12,112,19,73,-14,-24,14
63,24,-39,-43,51,-7,112,19,63,-4,-14,14
68,34,-34,-51,51,0,112,19,63,-4,-14,14
68,43,-24,-56,46,9,112,24,68,-9,-14,24
58,43,-14,-51,36,14,112,24,68,-19,-14,24
58,34,-24,-46,41,4,102,19,63,-14,-24,14
58,29,-29,-43,43,0,102,19,53,-19,-34,4
63,29,-34,-46,48,-2,102,14,53,-19,-34,4
68,29,-39,-48,53,-4,102,14,53,-19,-34,4
68,39,-29,-53,48,4,102,9,53,-19,-24,9
68,34,-34,-51,51,0,107,9,58,-19,-24,9
68,34,-34,-51,51,0,107,9,58,-19,-29,9
68,34,-34,-51,51,0,102,14,58,-19,-29,4
68,24,-43,-46,56,-9,92,14,68,-24,-19,14
68,29,-39,-48,53,-4,97,9,68,-24,-19,14
68,29,-39,-48,53,-4,97,9,68,-14,-14,14
68,29,-39,-48,53,-4,97,0,63,-14,-14,19
68,29,-39,-48,53,-4,107,9,53,-19,-24,9
63,19,-43,-41,53,-12,107,14,53,-19,-24,9
63,9,-53,-36,58,-21,107,14,53,-19,-24,9
63,19,-43,-41,53,-12,107,14,48,-14,-24,9
53,19,-34,-36,43,-7,107,9,48,-14,-14,14
63,24,-39,-43,51,-7,107,9,48,-24,-24,14
63,24,-39,-43,51,-7,107,9,58,-24,-29,19
58,19,-39,-39,48,-9,107,9,58,-19,-29,19
63,9,-53,-36,58,-21,112,9,43,-29,-24,19
63,24,-39,-43,51,-7,112,9,43,-34,-29,19
63,14,-48,-39,56,-17,112,9,43,-34,-34,14
58,14,-43,-36,51,-14,112,9,39,-34,-39,14
58,24,-34,-41,46,-4,107,4,48,-34,-29,14
58,29,-29,-43,43,0,112,4,48,-34,-29,14
63,29,-34,-46,48,-2,107,0,53,-34,-24,14
63,29,-34,-46,48,-2,102,0,53,-34,-24,14
73,14,-58,-43,65,-21,92,-4,43,-34,-34,14
73,14,-58,-43,65,-21,102,-4,43,-34,-34,14
73,19,-53,-46,63,-17,112,0,48,-29,-34,14
73,19,-53,-46,63,-17,112,0,48,-29,-34,14
63,24,-39,-43,51,-7,112,9,48,-24,-34,14
63,24,-39,-43,51,-7,112,9,48,-24,-39,14
63,29,-34,-46,48,-2,107,0,48,-29,-39,14
68,39,-29,-53,48,4,102,-4,43,-29,-39,14
68,34,-34,-51,51,0,97,-4,34,-34,-39,9
68,29,-39,-48,53,-4,97,4,34,-34,-39,9
68,29,-39,-48,53,-4,102,9,39,-29,-39,14
63,24,-39,-43,51,-7,102,9,39,-29,-43,14
63,29,-34,-46,48,-2,102,0,48,-29,-34,14
63,29,-34,-46,48,-2,102,0,48,-29,-29,14
63,29,-34,-46,48,-2,102,0,53,-29,-29,14
63,29,-34,-46,48,-2,102,-4,53,-29,-24,14
63,24,-39,-43,51,-7,102,-4,53,-29,-24,14
68,24,-43,-46,56,-9,102,0,43,-34,-24,14
68,24,-43,-46,56,-9,102,0,43,-34,-29,9
63,14,-48,-39,56,-17,102,0,43,-34,-29,9
63,34,-29,-48,46,2,112,0,39,-34,-34,9
58,39,-19,-48,39,9,107,0,39,-39,-39,0
58,39,-19,-48,39,9,97,0,39,-39,-39,0
58,39,-19,-48,39,9,97,0,39,-39,-39,0
58,39,-19,-48,39,9,97,0,39,-39,-39,0
58,39,-19,-48,39,9,97,0,39,-39,-39,0
68,39,-29,-53,48,4,97,0,39,-29,-39,9
68,39,-29,-53,48,4,97,0,39,-29,-39,9
68,39,-29,-53,48,4,97,0,39,-29,-39,9
68,39,-29,-53,48,4,97,0,39,-29,-39,9
68,48,-19,-58,43,14,97,0,39,-39,-39,9
68,48,-19,-58,43,14,97,0,39,-39,-39,9
68,48,-19,-58,43,14,97,0,39,-39,-39,9
68,48,-19,-58,43,14,97,0,39,-39,-39,9
68,58,-9,-63,39,24,97,-9,29,-39,-39,9
68,58,-9,-63,39,24,97,-9,29,-39,-39,9
68,58,-9,-63,39,24,97,-9,29,-39,-39,9
68,58,-9,-63,39,24,97,-9,29,-39,-39,9
68,58,-9,-63,39,24,97,-9,29,-48,-39,0
68,58,-9,-63,39,24,97,-9,29,-48,-39,0
68,58,-9,-63,39,24,97,-9,29,-48,-39,0
68,58,-9,-63,39,24,97,-9,29,-48,-39,0
68,48,-19,-58,43,14,97,-9,29,-39,-39,9
68,48,-19,-58,43,14,97,-9,29,-39,-39,9
68,48,-19,-58,43,14,97,-9,29,-39,-39,9
68,48,-19,-58,43,14,97,-9,29,-39,-39,9
78,58,-19,-68,48,19,107,0,39,-39,-39,9
78,58,-19,-68,48,19,107,0,39,-39,-39,9
78,68,-9,-73,43,29,107,0,43,-39,-39,9
78,68,-9,-73,43,29,107,0,43,-39,-39,9
68,53,-14,-61,41,19,102,-4,34,-39,-39,9
68,43,-24,-56,46,9,97,-4,34,-39,-39,9
73,53,-19,-63,46,17,92,-4,34,-34,-39,14
82,63,-19,-73,51,21,92,0,39,-34,-34,14
87,73,-14,-80,51,29,102,9,39,-43,-43,14
87,78,-9,-82,48,34,102,14,39,-43,-43,19
87,82,-4,-85,46,39,102,14,48,-34,-34,24
92,82,-9,-87,51,36,97,19,58,-29,-29,24
97,87,-9,-92,53,39,97,24,63,-24,-14,43
102,97,-4,-100,53,46,112,39,73,-4,-4,48
102,102,0,-102,51,51,117,48,82,-4,0,53
97,102,4,-100,46,53,126,58,82,0,0,53
102,102,0,-102,51,51,141,58,102,0,0,43
102,102,0,-102,51,51,151,63,102,9,4,48
102,102,0,-102,51,51,161,68,107,9,9,48
102,102,0,-102,51,51,165,68,107,9,9,48
82,107,24,-95,29,65,165,82,112,24,9,53
82,107,24,-95,29,65,170,82,112,24,9,53
82,107,24,-95,29,65,170,82,112,24,9,53
92,107,14,-100,39,61,161,82,107,24,9,53
97,107,9,-102,43,58,146,73,102,9,9,43
102,102,0,-102,51,51,126,63,92,9,9,43
112,102,-9,-107,61,46,117,58,78,0,4,43
117,102,-14,-109,65,43,92,53,73,0,4,43
122,117,-4,-119,63,56,87,43,82,9,9,53
122,126,4,-124,58,65,73,39,87,14,14,58
122,131,9,-126,56,70,68,34,87,14,19,58
122,131,9,-126,56,70,68,24,82,9,19,58
122,126,4,-124,58,65,73,29,73,4,14,53
117,117,0,-117,58,58,78,24,68,0,9,43
117,102,-14,-109,65,43,82,14,53,-4,0,39
117,97,-19,-107,68,39,87,14,53,-14,-9,24
107,102,-4,-104,56,48,92,4,48,-24,-19,29
107,97,-9,-102,58,43,87,4,48,-29,-19,29
107,92,-14,-100,61,39,82,4,43,-29,-24,29
107,92,-14,-100,61,39,78,4,43,-29,-24,34
97,82,-14,-90,56,34,82,4,43,-19,-19,34
97,78,-19,-87,58,29,82,4,43,-19,-19,34
102,78,-24,-90,63,26,82,4,43,-19,-19,34
107,78,-29,-92,68,24,82,4,43,-19,-19,34
117,78,-39,-97,78,19,82,14,43,-24,-19,43
117,73,-43,-95,80,14,82,14,43,-29,-29,34
117,68,-48,-92,82,9,82,14,39,-29,-29,34
117,68,-48,-92,82,9,78,9,39,-29,-34,34
126,58,-68,-92,97,-4,73,9,39,-29,-34,24
126,58,-68,-92,97,-4,73,9,39,-29,-34,24
126,53,-73,-90,100,-9,73,0,29,-39,-39,24
126,53,-73,-90,100,-9,73,0,29,-39,-39,19
126,53,-73,-90,100,-9,82,-4,19,-48,-43,14
122,53,-68,-87,95,-7,82,-14,14,-53,-48,9
107,53,-53,-80,80,0,92,-14,14,-53,-48,9
97,53,-43,-75,70,4,92,-9,19,-53,-48,9
97,53,-43,-75,70,4,97,-9,29,-48,-39,9
82,43,-39,-63,61,2,102,-9,29,-53,-39,4
73,34,-39,-53,56,-2,112,-9,29,-48,-43,4
73,34,-39,-53,56,-2,117,0,29,-39,-43,4
63,34,-29,-48,46,2,112,0,19,-43,-53,-4
63,34,-29,-48,46,2,112,-4,19,-53,-53,-4
63,34,-29,-48,46,2,107,-4,19,-58,-58,-4
63,29,-34,-46,48,-2,107,-4,19,-63,-63,-9
63,29,-34,-46,48,-2,112,0,24,-53,-63,0
63,29,-34,-46,48,-2,112,0,24,-53,-58,0
63,29,-34,-46,48,-2,112,0,24,-53,-58,0
63,29,-34,-46,48,-2,112,0,24,-53,-58,0
68,29,-39,-48,53,-4,112,0,14,-53,-48,0
68,29,-39,-48,53,-4,112,0,14,-53,-48,0
73,29,-43,-51,58,-7,117,0,14,-53,-53,0
73,29,-43,-51,58,-7,117,4,14,-53,-53,0
73,19,-53,-46,63,-17,117,-4,24,-43,-53,0
73,19,-53,-46,63,-17,117,-4,24,-43,-53,0
73,19,-53,-46,63,-17,117,-4,24,-43,-53,0
73,19,-53,-46,63,-17,117,-4,24,-43,-53,0
58,9,-48,-34,53,-19,126,-4,24,-53,-58,0
53,0,-53,-26,53,-26,126,-4,24,-53,-58,0
53,0,-53,-26,53,-26,126,-4,24,-53,-58,0
53,4,-48,-29,51,-21,131,-4,24,-53,-58,0
63,9,-53,-36,58,-21,122,-4,19,-53,-48,0
68,14,-53,-41,61,-19,122,-4,19,-48,-48,0
73,19,-53,-46,63,-17,117,-4,19,-48,-48,0
73,24,-48,-48,61,-12,117,-4,14,-53,-58,0
73,34,-39,-53,56,-2,126,4,24,-43,-43,0
68,4,-63,-36,65,-29,131,14,19,-58,-63,-4
