I,II,III,aVR,aVL,aVF,V1,V2,V3,V4,V5,V6
-273,-107,165,190,-219,29,107,58,39,29,29,48
-273,-107,165,190,-219,29,107,58,39,29,29,48
-273,-107,165,190,-219,29,107,58,39,29,29,48
-273,-107,165,190,-219,29,107,58,39,29,29,48
-273,-107,165,190,-219,29,107,58,39,29,29,48
-273,-107,165,190,-219,29,107,58,39,29,29,48
-273,-107,165,190,-219,29,107,58,39,29,29,48
-273,-107,165,190,-219,29,107,58,39,29,29,48
-273,-107,165,190,-219,29,107,58,39,29,39,58
-273,-107,165,190,-219,29,107,58,39,29,39,58
-273,-107,165,190,-219,29,107,58,39,29,39,58
-273,-107,165,190,-219,29,107,58,39,29,39,58
-273,-97,175,185,-224,39,107,58,39,39,29,48
-273,-97,175,185,-224,39,107,58,39,39,29,48
-273,-97,175,185,-224,39,107,58,39,39,29,48
-273,-97,175,185,-224,39,107,58,39,39,29,48
-283,-107,175,195,-229,34,97,58,39,34,29,48
-283,-107,175,195,-229,34,97,58,39,29,29,48
-283,-107,175,195,-229,34,97,58,39,24,29,48
-283,-107,175,195,-229,34,97,58,39,19,29,48
-283,-97,185,190,-234,43,97,48,39,29,29,48
-283,-97,185,190,-234,43,97,48,39,29,29,48
-283,-97,185,190,-234,43,97,48,39,29,29,48
-283,-97,185,190,-234,43,97,48,39,29,29,48
-283,-97,185,190,-234,43,97,58,39,29,39,58
-283,-97,185,190,-234,43,97,58,39,29,39,58
-283,-97,185,190,-234,43,97,58,39,29,39,58
-283,-97,185,190,-234,43,97,58,39,29,39,58
-292,-97,195,195,-244,48,97,58,39,29,29,48
-292,-97,195,195,-244,48,97,58,39,29,29,48
-292,-97,195,195,-244,48,97,58,39,29,29,48
-292,-97,195,195,-244,48,97,58,39,29,29,48
-283,-107,175,195,-229,34,97,48,29,29,39,58
-283,-107,175,195,-229,34,97,48,29,29,39,58
-283,-107,175,195,-229,34,97,48,29,29,39,58
-283,-107,175,195,-229,34,97,48,29,29,39,58
-273,-97,175,185,-224,39,97,48,29,29,39,48
-273,-97,175,185,-224,39,97,48,29,29,39,48
-273,-97,175,185,-224,39,97,48,29,29,39,48
-273,-97,175,185,-224,39,97,48,29,29,39,48
-263,-97,165,180,-214,34,87,48,19,19,29,39
-263,-97,165,180,-214,34,87,48,19,19,29,39
-263,-97,165,180,-214,34,87,48,19,19,29,39
-263,-97,165,180,-214,34,87,48,19,19,29,39
-253,-87,165,170,-209,39,87,39,19,19,19,39
-253,-87,165,170,-209,39,87,39,19,19,19,39
-253,-87,165,170,-209,39,87,39,19,19,19,39
-253,-87,165,170,-209,39,87,39,19,19,19,39
-244,-92,151,168,-197,29,78,29,9,14,19,34
-244,-97,146,170,-195,24,78,29,9,9,19,29
-244,-102,141,173,-192,19,78,29,9,4,19,24
-244,-107,136,175,-190,14,78,29,9,0,19,19
-239,-107,131,173,-185,12,78,29,9,0,19,29
-234,-107,126,170,-180,9,78,29,9,0,19,29
-229,-107,122,168,-175,7,78,29,9,0,19,29
-224,-107,117,165,-170,4,78,29,9,0,19,29
-224,-97,126,161,-175,14,68,29,9,0,19,39
-224,-97,126,161,-175,14,68,29,9,0,19,39
-224,-97,126,161,-175,14,68,29,9,0,19,39
-224,-97,126,161,-175,14,68,29,9,0,19,39
-214,-87,126,151,-170,19,68,39,9,9,19,29
-214,-87,126,151,-170,19,68,39,9,9,19,29
-214,-87,126,151,-170,19,68,39,9,9,19,29
-214,-87,126,151,-170,19,68,39,9,9,19,29
-219,-97,122,158,-170,12,78,29,9,0,19,29
-224,-97,126,161,-175,14,78,29,9,0,19,29
-229,-97,131,163,-180,17,78,29,9,0,19,29
-234,-97,136,165,-185,19,78,29,9,0,19,29
-224,-87,136,156,-180,24,78,19,0,0,19,29
-224,-87,136,156,-180,24,78,19,0,0,19,29
-224,-87,136,156,-180,24,78,19,0,0,19,29
-224,-87,136,156,-180,24,78,19,0,0,19,29
-224,-87,136,156,-180,24,68,29,9,0,19,29
-224,-87,136,156,-180,24,68,29,9,0,19,29
-224,-87,136,156,-180,24,68,29,9,0,19,29
-224,-87,136,156,-180,24,68,29,9,0,19,29
-224,-87,136,156,-180,24,68,29,0,0,19,29
-224,-87,136,156,-180,24,68,29,0,0,19,29
-224,-87,136,156,-180,24,68,29,0,0,19,29
-224,-87,136,156,-180,24,68,29,0,0,19,29
-224,-87,136,156,-180,24,68,29,0,0,19,39
-224,-87,136,156,-180,24,68,29,0,0,19,39
-224,-87,136,156,-180,24,68,29,0,0,19,39
-224,-87,136,156,-180,24,68,29,0,0,19,39
-234,-87,146,161,-190,29,68,29,9,0,19,29
-234,-87,146,161,-190,29,68,29,9,0,19,29
-234,-87,146,161,-190,29,68,29,9,0,19,29
-234,-87,146,161,-190,29,68,29,9,0,19,29
-234,-97,136,165,-185,19,68,29,0,0,9,29
-234,-97,136,165,-185,19,68,29,0,0,9,29
-234,-97,136,165,-185,19,68,29,0,0,9,29
-234,-97,136,165,-185,19,68,29,0,0,9,29
-234,-92,141,163,-187,24,68,29,9,0,19,29
-234,-87,146,161,-190,29,68,29,9,0,19,29
-234,-82,151,158,-192,34,68,29,9,0,19,29
-234,-78,156,156,-195,39,68,29,9,0,19,29
-234,-78,156,156,-195,39,68,29,9,0,19,29
-234,-78,156,156,-195,39,68,29,9,0,19,29
-234,-78,156,156,-195,39,68,29,9,0,19,29
-234,-78,156,156,-195,39,68,29,9,0,19,29
-244,-87,156,165,-200,34,68,19,9,0,19,19
-244,-87,156,165,-200,34,68,19,9,0,19,19
-244,-87,156,165,-200,34,68,19,9,0,19,19
-244,-87,156,165,-200,34,68,19,9,0,19,19
-244,-78,165,161,-204,43,68,29,9,0,19,29
-244,-78,165,161,-204,43,68,29,9,0,19,29
-244,-78,165,161,-204,43,68,29,9,0,19,29
-244,-78,165,161,-204,43,68,29,9,0,19,29
-234,-78,156,156,-195,39,68,29,0,0,29,29
-234,-78,156,156,-195,39,68,29,0,0,29,29
-234,-78,156,156,-195,39,68,29,0,0,29,29
-234,-78,156,156,-195,39,68,29,0,0,29,29
-234,-78,156,156,-195,39,68,29,9,0,19,19
-234,-78,156,156,-195,39,68,29,9,0,19,19
-234,-78,156,156,-195,39,68,29,9,0,19,19
-234,-78,156,156,-195,39,68,29,9,0,19,19
-234,-78,156,156,-195,39,68,29,0,-9,19,19
-234,-78,156,156,-195,39,68,29,0,-9,19,19
-234,-78,156,156,-195,39,68,29,0,-9,19,19
-234,-78,156,156,-195,39,68,29,0,-9,19,19
-234,-78,156,156,-195,39,68,19,0,-9,19,29
-234,-78,156,156,-195,39,68,19,0,-9,19,29
-234,-78,156,156,-195,39,68,19,0,-9,19,29
-234,-78,156,156,-195,39,68,19,0,-9,19,29
-224,-68,156,146,-190,43,58,19,0,-9,19,19
-224,-68,156,146,-190,43,58,19,0,-9,19,19
-224,-68,156,146,-190,43,58,19,0,-9,19,19
-224,-68,156,146,-190,43,58,19,0,-9,19,19
-224,-68,156,146,-190,43,58,29,0,-9,19,19
-224,-68,156,146,-190,43,58,29,0,-9,19,19
-224,-68,156,146,-190,43,58,29,0,-9,19,19
-224,-68,156,146,-190,43,58,29,0,-9,19,19
-234,-68,165,151,-200,48,58,19,9,-9,19,19
-234,-68,165,151,-200,48,58,19,9,-9,19,19
-234,-68,165,151,-200,48,58,19,9,-9,19,19
-234,-68,165,151,-200,48,58,19,9,-9,19,19
-234,-58,175,146,-204,58,58,19,0,-9,19,19
-234,-58,175,146,-204,58,58,19,0,-9,19,19
-234,-58,175,146,-204,58,58,19,0,-9,19,19
-234,-58,175,146,-204,58,58,19,0,-9,19,19
-234,-68,165,151,-200,48,58,19,9,-9,19,29
-234,-68,165,151,-200,48,58,19,9,-9,19,29
-234,-68,165,151,-200,48,58,19,9,-9,19,29
-234,-68,165,151,-200,48,58,19,9,-9,19,29
-234,-58,175,146,-204,58,58,19,0,0,29,19
-234,-58,175,146,-204,58,58,19,0,0,29,19
-234,-58,175,146,-204,58,58,19,0,0,29,19
-234,-58,175,146,-204,58,58,19,0,0,29,19
-244,-58,185,151,-214,63,58,19,0,-9,19,19
-244,-58,185,151,-214,63,58,19,0,-9,19,19
-244,-58,185,151,-214,63,58,19,0,-9,19,19
-244,-58,185,151,-214,63,58,19,0,-9,19,19
-234,-58,175,146,-204,58,58,19,0,-9,19,19
-234,-58,175,146,-204,58,58,19,0,-9,19,19
-234,-58,175,146,-204,58,58,19,0,-9,19,19
-234,-58,175,146,-204,58,58,19,0,-9,19,19
-234,-48,185,141,-209,68,58,9,0,-9,19,19
-234,-48,185,141,-209,68,58,9,0,-9,19,19
-234,-48,185,141,-209,68,58,9,0,-9,19,19
-234,-48,185,141,-209,68,58,9,0,-9,19,19
-244,-39,204,141,-224,82,58,19,0,-9,19,19
-244,-39,204,141,-224,82,58,19,0,-9,19,19
-244,-39,204,141,-224,82,58,19,0,-9,19,19
-244,-39,204,141,-224,82,58,19,0,-9,19,19
-244,-48,195,146,-219,73,58,9,0,-9,19,19
-244,-48,195,146,-219,73,58,9,0,-9,19,19
-244,-48,195,146,-219,73,58,9,0,-9,19,19
-244,-48,195,146,-219,73,58,9,0,-9,19,19
-234,-43,190,139,-212,73,58,19,0,-9,19,19
-234,-39,195,136,-214,78,58,19,0,-9,19,19
-234,-34,200,134,-217,82,58,19,0,-9,19,19
-234,-29,204,131,-219,87,58,19,0,-9,19,19
-234,-39,195,136,-214,78,58,19,0,-9,19,19
-234,-39,195,136,-214,78,58,19,0,-9,19,19
-234,-39,195,136,-214,78,58,19,0,-9,19,19
-234,-39,195,136,-214,78,58,19,0,-9,19,19
-244,-39,204,141,-224,82,48,9,0,-9,19,19
-244,-39,204,141,-224,82,48,9,0,-9,19,19
-244,-39,204,141,-224,82,48,9,0,-9,19,19
-244,-39,204,141,-224,82,48,9,0,-9,19,19
-234,-39,195,136,-214,78,58,9,-9,-19,9,9
-234,-39,195,136,-214,78,58,9,-9,-19,9,9
-234,-39,195,136,-214,78,58,9,-9,-19,9,9
-234,-39,195,136,-214,78,58,9,-9,-19,9,9
-234,-29,204,131,-219,87,58,19,0,-9,9,19
-234,-29,204,131,-219,87,58,19,0,-9,9,19
-234,-29,204,131,-219,87,58,19,0,-9,9,19
-234,-29,204,131,-219,87,58,19,0,-9,9,19
-224,-19,204,122,-214,92,58,9,-9,-19,9,19
-224,-19,204,122,-214,92,58,9,-9,-19,9,19
-224,-19,204,122,-214,92,58,9,-9,-19,9,19
-224,-19,204,122,-214,92,58,9,-9,-19,9,19
-234,-29,204,131,-219,87,48,9,-9,-9,9,9
-234,-29,204,131,-219,87,48,9,-9,-9,9,9
-234,-29,204,131,-219,87,48,9,-9,-9,9,9
-234,-29,204,131,-219,87,48,9,-9,-9,9,9
-224,-19,204,122,-214,92,48,9,-9,-19,9,9
-224,-19,204,122,-214,92,48,9,-9,-19,9,9
-224,-19,204,122,-214,92,48,9,-9,-19,9,9
-224,-19,204,122,-214,92,48,9,-9,-19,9,9
-234,-19,214,126,-224,97,48,19,-9,-19,19,19
-234,-19,214,126,-224,97,48,19,-9,-19,19,19
-234,-19,214,126,-224,97,48,19,-9,-19,19,19
-234,-19,214,126,-224,97,48,19,-9,-19,19,19
-224,-29,195,126,-209,82,48,9,-19,-29,9,9
-224,-29,195,126,-209,82,48,9,-19,-29,9,9
-224,-29,195,126,-209,82,48,9,-19,-29,9,9
-224,-29,195,126,-209,82,48,9,-19,-29,9,9
-224,-29,195,126,-209,82,58,19,-9,-19,9,9
-224,-29,195,126,-209,82,58,19,-9,-19,9,9
-224,-29,195,126,-209,82,58,19,-9,-19,9,9
-224,-29,195,126,-209,82,58,19,-9,-19,9,9
-234,-19,214,126,-224,97,48,9,-9,-29,9,9
-234,-19,214,126,-224,97,48,9,-9,-29,9,9
-234,-19,214,126,-224,97,48,9,-9,-29,9,9
-234,-19,214,126,-224,97,48,9,-9,-29,9,9
-224,-19,204,122,-214,92,48,9,-9,-19,19,19
-224,-19,204,122,-214,92,48,9,-9,-19,19,19
-224,-19,204,122,-214,92,48,9,-9,-19,19,19
-224,-19,204,122,-214,92,48,9,-9,-19,19,19
-224,-9,214,117,-219,102,58,9,-9,-29,19,19
-224,-9,214,117,-219,102,58,9,-9,-29,19,19
-224,-9,214,117,-219,102,58,9,-9,-29,19,19
-224,-9,214,117,-219,102,58,9,-9,-29,19,19
-234,-14,219,124,-226,102,48,9,-19,-29,19,9
-234,-19,214,126,-224,97,48,9,-19,-29,19,9
-234,-24,209,129,-222,92,48,9,-19,-29,19,9
-234,-29,204,131,-219,87,48,9,-19,-29,19,9
-229,-29,200,129,-214,85,48,9,-9,-29,19,19
-224,-29,195,126,-209,82,48,9,-9,-29,19,19
-219,-29,190,124,-204,80,48,9,-9,-29,19,19
-214,-29,185,122,-200,78,48,9,-9,-29,19,19
-224,-29,195,126,-209,82,48,9,-9,-29,19,9
-224,-29,195,126,-209,82,48,9,-9,-29,19,9
-224,-29,195,126,-209,82,48,9,-9,-29,19,9
-224,-29,195,126,-209,82,48,9,-9,-29,19,9
-224,-29,195,126,-209,82,58,9,-9,-19,19,19
-224,-29,195,126,-209,82,58,9,-9,-19,19,19
-224,-29,195,126,-209,82,58,9,-9,-19,19,19
-224,-29,195,126,-209,82,58,9,-9,-19,19,19
-214,-19,195,117,-204,87,48,9,-9,-19,29,19
-214,-19,195,117,-204,87,48,9,-9,-19,29,19
-214,-19,195,117,-204,87,48,9,-9,-19,29,19
-214,-19,195,117,-204,87,48,9,-9,-19,29,19
-224,-19,204,122,-214,92,58,9,-9,-29,19,19
-224,-19,204,122,-214,92,58,9,-9,-29,19,19
-224,-19,204,122,-214,92,58,9,-9,-29,19,19
-224,-19,204,122,-214,92,58,9,-9,-29,19,19
-224,-9,214,117,-219,102,58,9,-9,-19,29,19
-224,-9,214,117,-219,102,58,9,-9,-19,29,19
-224,-9,214,117,-219,102,58,9,-9,-19,29,19
-224,-9,214,117,-219,102,58,9,-9,-19,29,19
-234,-19,214,126,-224,97,48,9,-9,-19,19,19
-234,-19,214,126,-224,97,48,9,-9,-19,19,19
-234,-19,214,126,-224,97,48,9,-9,-19,19,19
-234,-19,214,126,-224,97,48,9,-9,-19,19,19
-234,-19,214,126,-224,97,58,19,-9,-19,19,19
-234,-19,214,126,-224,97,58,19,-9,-19,19,19
-234,-19,214,126,-224,97,58,19,-9,-19,19,19
-234,-19,214,126,-224,97,58,19,-9,-19,19,19
-234,-19,214,126,-224,97,68,9,0,-19,19,29
-234,-19,214,126,-224,97,68,9,0,-19,19,29
-234,-19,214,126,-224,97,68,9,0,-19,19,29
-234,-19,214,126,-224,97,68,9,0,-19,19,29
-234,-19,214,126,-224,97,58,9,0,-19,29,19
-234,-19,214,126,-224,97,58,9,0,-19,29,19
-234,-19,214,126,-224,97,58,9,0,-19,29,19
-234,-19,214,126,-224,97,58,9,0,-19,29,19
-234,-19,214,126,-224,97,58,19,0,-19,29,19
-234,-19,214,126,-224,97,58,19,0,-19,29,19
-234,-19,214,126,-224,97,58,19,0,-19,29,19
-234,-19,214,126,-224,97,58,19,0,-19,29,19
-224,-19,204,122,-214,92,58,19,-9,-19,19,29
-224,-19,204,122,-214,92,58,19,-9,-19,19,29
-224,-19,204,122,-214,92,58,19,-9,-19,19,29
-224,-19,204,122,-214,92,58,19,-9,-19,19,29
-224,-19,204,122,-214,92,58,9,-9,-29,19,24
-224,-19,204,122,-214,92,58,9,-9,-29,19,19
-224,-19,204,122,-214,92,58,9,-9,-29,19,14
-224,-19,204,122,-214,92,58,9,-9,-29,19,9
-234,-19,214,126,-224,97,58,19,0,-24,19,19
-234,-19,214,126,-224,97,58,19,0,-19,19,19
-234,-19,214,126,-224,97,58,19,0,-14,19,19
-234,-19,214,126,-224,97,58,19,0,-9,19,19
-229,-19,209,124,-219,95,58,19,0,-19,19,19
-224,-19,204,122,-214,92,58,19,0,-19,19,19
-219,-19,200,119,-209,90,58,19,0,-19,19,19
-214,-19,195,117,-204,87,58,19,0,-19,19,19
-224,-19,204,122,-214,92,68,19,0,-19,19,19
-224,-19,204,122,-214,92,68,19,0,-19,19,19
-224,-19,204,122,-214,92,68,19,0,-19,19,19
-224,-19,204,122,-214,92,68,19,0,-19,19,19
-214,-19,195,117,-204,87,58,9,0,-19,19,19
-214,-19,195,117,-204,87,58,9,0,-19,19,19
-214,-19,195,117,-204,87,58,9,0,-19,19,19
-214,-19,195,117,-204,87,58,9,0,-19,19,19
-224,-19,204,122,-214,92,58,9,0,-9,29,19
-224,-19,204,122,-214,92,58,9,0,-9,29,19
-224,-19,204,122,-214,92,58,9,0,-9,29,19
-224,-19,204,122,-214,92,58,9,0,-9,29,19
-224,-19,204,122,-214,92,58,9,0,-19,19,19
-224,-19,204,122,-214,92,58,9,0,-19,19,19
-224,-19,204,122,-214,92,58,9,0,-19,19,19
-224,-19,204,122,-214,92,58,9,0,-19,19,19
-214,-19,195,117,-204,87,58,9,0,-29,19,19
-214,-19,195,117,-204,87,58,9,0,-29,19,19
-214,-19,195,117,-204,87,58,9,0,-29,19,19
-214,-19,195,117,-204,87,58,9,0,-29,19,19
-214,-19,195,117,-204,87,58,9,0,-19,19,19
-214,-19,195,117,-204,87,58,9,0,-19,19,19
-214,-19,195,117,-204,87,58,9,0,-19,19,19
-214,-19,195,117,-204,87,58,9,0,-19,19,19
-224,-19,204,122,-214,92,48,9,0,-29,9,19
-224,-19,204,122,-214,92,48,9,0,-29,9,19
-224,-19,204,122,-214,92,48,9,0,-29,9,19
-224,-19,204,122,-214,92,48,9,0,-29,9,19
-224,-29,195,126,-209,82,58,9,-9,-29,19,19
-224,-29,195,126,-209,82,58,9,-9,-29,19,19
-224,-29,195,126,-209,82,58,9,-9,-29,19,19
-224,-29,195,126,-209,82,58,9,-9,-29,19,19
-214,-19,195,117,-204,87,58,9,0,-19,19,19
-214,-19,195,117,-204,87,58,9,0,-19,19,19
-214,-19,195,117,-204,87,58,9,0,-19,19,19
-214,-19,195,117,-204,87,58,9,0,-19,19,19
-224,-29,195,126,-209,82,48,9,0,-19,19,29
-224,-29,195,126,-209,82,48,9,0,-19,19,29
-224,-29,195,126,-209,82,48,9,0,-19,19,29
-224,-29,195,126,-209,82,48,9,0,-19,19,29
-224,-29,195,126,-209,82,58,9,0,-19,19,29
-224,-29,195,126,-209,82,58,9,0,-19,19,29
-224,-29,195,126,-209,82,58,9,0,-19,19,29
-224,-29,195,126,-209,82,58,9,0,-19,19,29
-224,-39,185,131,-204,73,58,9,0,-19,19,29
-224,-39,185,131,-204,73,58,9,0,-19,19,29
-224,-39,185,131,-204,73,58,9,0,-19,19,29
-224,-39,185,131,-204,73,58,9,0,-19,19,29
-224,-39,185,131,-204,73,48,0,0,-29,19,29
-224,-39,185,131,-204,73,48,0,0,-29,19,29
-224,-39,185,131,-204,73,48,0,0,-29,19,29
-224,-39,185,131,-204,73,48,0,0,-29,19,29
-219,-29,190,124,-204,80,58,9,0,-19,9,39
-214,-29,185,122,-200,78,58,9,0,-19,9,39
-209,-29,180,119,-195,75,58,9,0,-19,9,39
-204,-29,175,117,-190,73,58,9,0,-19,9,39
-195,-19,175,107,-185,78,58,9,0,-19,14,39
-195,-19,175,107,-185,78,58,9,0,-19,19,39
-195,-19,175,107,-185,78,58,9,0,-19,24,39
-195,-19,175,107,-185,78,58,9,0,-19,29,39
-204,-19,185,112,-195,82,58,9,0,-29,19,39
-204,-19,185,112,-195,82,58,9,0,-29,19,39
-204,-19,185,112,-195,82,58,9,0,-29,19,39
-204,-19,185,112,-195,82,58,9,0,-29,19,39
-204,-29,175,117,-190,73,58,9,0,-19,19,39
-204,-29,175,117,-190,73,58,9,0,-19,19,39
-204,-29,175,117,-190,73,58,9,0,-19,19,39
-204,-29,175,117,-190,73,58,9,0,-19,19,39
-204,-39,165,122,-185,63,48,9,0,-29,19,39
-204,-39,165,122,-185,63,48,9,0,-29,19,39
-204,-39,165,122,-185,63,48,9,0,-29,19,39
-204,-39,165,122,-185,63,48,9,0,-29,19,39
-204,-29,175,117,-190,73,58,9,0,-29,19,48
-204,-29,175,117,-190,73,58,9,0,-29,19,48
-204,-29,175,117,-190,73,58,9,0,-29,19,48
-204,-29,175,117,-190,73,58,9,0,-29,19,48
-204,-39,165,122,-185,63,48,9,0,-29,19,48
-204,-39,165,122,-185,63,48,9,0,-29,19,48
-204,-39,165,122,-185,63,48,9,0,-29,19,48
-204,-39,165,122,-185,63,48,9,0,-29,19,48
-204,-39,165,122,-185,63,58,9,0,-19,19,48
-204,-39,165,122,-185,63,58,9,0,-19,19,48
-204,-39,165,122,-185,63,58,9,0,-19,19,48
-204,-39,165,122,-185,63,58,9,0,-19,19,48
-204,-39,165,122,-185,63,58,9,0,-29,19,48
-204,-39,165,122,-185,63,58,9,0,-29,19,48
-204,-39,165,122,-185,63,58,9,0,-29,19,48
-204,-39,165,122,-185,63,58,9,0,-29,19,48
-195,-29,165,112,-180,68,58,9,0,-19,19,58
-195,-29,165,112,-180,68,58,9,0,-19,19,58
-195,-29,165,112,-180,68,58,9,0,-19,19,58
-195,-29,165,112,-180,68,58,9,0,-19,19,58
-204,-39,165,122,-185,63,48,9,0,-19,9,48
-204,-39,165,122,-185,63,48,9,0,-19,9,48
-204,-39,165,122,-185,63,48,9,0,-19,9,48
-204,-39,165,122,-185,63,48,9,0,-19,9,48
-204,-48,156,126,-180,53,58,9,-9,-19,9,48
-204,-48,156,126,-180,53,58,9,-9,-19,9,48
-204,-48,156,126,-180,53,58,9,-9,-19,9,48
-204,-48,156,126,-180,53,58,9,-9,-19,9,48
-195,-43,151,119,-173,53,58,9,0,-29,19,58
-195,-39,156,117,-175,58,58,9,0,-29,19,58
-195,-34,161,114,-178,63,58,9,0,-29,19,58
-195,-29,165,112,-180,68,58,9,0,-29,19,58
-195,-34,161,114,-178,63,58,9,-9,-19,19,58
-195,-39,156,117,-175,58,58,9,-9,-19,19,58
-195,-43,151,119,-173,53,58,9,-9,-19,19,58
-195,-48,146,122,-170,48,58,9,-9,-19,19,58
-185,-43,141,114,-163,48,48,9,0,-19,9,58
-185,-39,146,112,-165,53,48,9,0,-19,9,58
-185,-34,151,109,-168,58,48,9,0,-19,9,58
-185,-29,156,107,-170,63,48,9,0,-19,9,58
-185,-39,146,112,-165,53,58,9,0,-19,9,58
-185,-39,146,112,-165,53,58,9,0,-19,9,58
-185,-39,146,112,-165,53,58,9,0,-19,9,58
-185,-39,146,112,-165,53,58,9,0,-19,9,58
-185,-39,146,112,-165,53,58,0,0,-19,9,58
-185,-39,146,112,-165,53,58,0,0,-19,9,58
-185,-39,146,112,-165,53,58,0,0,-19,9,58
-185,-39,146,112,-165,53,58,0,0,-19,9,58
-185,-39,146,112,-165,53,58,9,0,-19,19,58
-185,-39,146,112,-165,53,58,9,0,-19,19,58
-185,-39,146,112,-165,53,58,9,0,-19,19,58
-185,-39,146,112,-165,53,58,9,0,-19,19,58
-195,-48,146,122,-170,48,58,9,0,-19,9,58
-195,-48,146,122,-170,48,58,9,0,-19,9,58
-195,-48,146,122,-170,48,58,9,0,-19,9,58
-195,-48,146,122,-170,48,58,9,0,-19,9,58
-185,-43,141,114,-163,48,53,0,0,-19,19,58
-185,-39,146,112,-165,53,48,0,0,-19,19,58
-185,-34,151,109,-168,58,43,0,0,-19,19,58
-185,-29,156,107,-170,63,39,0,0,-19,19,58
-195,-24,170,109,-183,73,48,9,-9,-19,14,58
-195,-19,175,107,-185,78,48,9,-9,-19,9,58
-195,-14,180,104,-187,82,48,9,-9,-19,4,58
-195,-9,185,102,-190,87,48,9,-9,-19,0,58
-195,-19,175,107,-185,78,48,0,-9,-19,0,58
-195,-19,175,107,-185,78,48,0,-9,-19,0,58
-195,-19,175,107,-185,78,48,0,-9,-19,0,58
-195,-19,175,107,-185,78,48,0,-9,-19,0,58
-195,-19,175,107,-185,78,48,0,-9,-29,0,58
-195,-19,175,107,-185,78,48,0,-9,-29,0,58
-195,-19,175,107,-185,78,48,0,-9,-29,0,58
-195,-19,175,107,-185,78,48,0,-9,-29,0,58
-204,-19,185,112,-195,82,48,0,-9,-19,9,58
-204,-19,185,112,-195,82,48,0,-9,-19,9,58
-204,-19,185,112,-195,82,48,0,-9,-19,9,58
-204,-19,185,112,-195,82,48,0,-9,-19,9,58
-195,-19,175,107,-185,78,48,0,-9,-19,0,58
-195,-19,175,107,-185,78,48,0,-9,-19,0,58
-195,-19,175,107,-185,78,48,0,-9,-19,0,58
-195,-19,175,107,-185,78,48,0,-9,-19,0,58
-195,-9,185,102,-190,87,58,9,-9,-19,9,68
-195,-9,185,102,-190,87,58,9,-9,-19,9,68
-195,-9,185,102,-190,87,58,9,-9,-19,9,68
-195,-9,185,102,-190,87,58,9,-9,-19,9,68
-195,-19,175,107,-185,78,48,0,0,-19,9,58
-195,-19,175,107,-185,78,48,0,0,-19,9,58
-195,-19,175,107,-185,78,48,0,0,-19,9,58
-195,-19,175,107,-185,78,48,0,0,-19,9,58
-195,-19,175,107,-185,78,58,0,-9,-19,9,58
-195,-19,175,107,-185,78,58,0,-9,-19,9,58
-195,-19,175,107,-185,78,58,0,-9,-19,9,58
-195,-19,175,107,-185,78,58,0,-9,-19,9,58
-185,-19,165,102,-175,73,48,0,-9,-19,9,58
-185,-19,165,102,-175,73,48,0,-9,-19,9,58
-185,-19,165,102,-175,73,48,0,-9,-19,9,58
-185,-19,165,102,-175,73,48,0,-9,-19,9,58
-195,-29,165,112,-180,68,39,0,-19,-19,0,48
-195,-29,165,112,-180,68,39,0,-19,-19,0,48
-195,-29,165,112,-180,68,39,0,-19,-19,0,48
-195,-29,165,112,-180,68,39,0,-19,-19,0,48
-195,-29,165,112,-180,68,48,0,-9,-29,0,58
-195,-29,165,112,-180,68,48,0,-9,-29,0,58
-195,-29,165,112,-180,68,48,0,-9,-29,0,58
-195,-29,165,112,-180,68,48,0,-9,-29,0,58
-195,-29,165,112,-180,68,39,0,0,-29,0,58
-195,-29,165,112,-180,68,39,0,0,-29,0,58
-195,-29,165,112,-180,68,39,0,0,-29,0,58
-195,-29,165,112,-180,68,39,0,0,-29,0,58
-185,-19,165,102,-175,73,48,0,-9,-29,9,58
-185,-19,165,102,-175,73,48,0,-9,-29,9,58
-185,-19,165,102,-175,73,48,0,-9,-29,9,58
-185,-19,165,102,-175,73,48,0,-9,-29,9,58
-185,-19,165,102,-175,73,39,0,-9,-19,9,58
-185,-19,165,102,-175,73,39,0,-9,-19,9,58
-185,-19,165,102,-175,73,39,0,-9,-19,9,58
-185,-19,165,102,-175,73,39,0,-9,-19,9,58
-185,-29,156,107,-170,63,48,0,-9,-29,0,58
-185,-29,156,107,-170,63,48,0,-9,-29,0,58
-185,-29,156,107,-170,63,48,0,-9,-29,0,58
-185,-29,156,107,-170,63,48,0,-9,-29,0,58
-185,-29,156,107,-170,63,48,0,-9,-19,9,58
-185,-29,156,107,-170,63,48,0,-9,-19,9,58
-185,-29,156,107,-170,63,48,0,-9,-19,9,58
-185,-29,156,107,-170,63,48,0,-9,-19,9,58
-195,-19,175,107,-185,78,48,0,0,-19,9,58
-195,-19,175,107,-185,78,48,0,0,-19,9,58
-195,-19,175,107,-185,78,48,0,0,-19,9,58
-195,-19,175,107,-185,78,48,0,0,-19,9,58
-185,-19,165,102,-175,73,48,0,0,-29,0,58
-185,-19,165,102,-175,73,48,0,0,-29,0,58
-185,-19,165,102,-175,73,48,0,0,-29,0,58
-185,-19,165,102,-175,73,48,0,0,-29,0,58
-195,-29,165,112,-180,68,48,0,-9,-29,0,58
-195,-29,165,112,-180,68,48,0,-9,-29,0,58
-195,-29,165,112,-180,68,48,0,-9,-29,0,58
-195,-29,165,112,-180,68,48,0,-9,-29,0,58
-195,-39,156,117,-175,58,48,0,-9,-29,0,48
-195,-39,156,117,-175,58,48,0,-9,-29,0,48
-195,-39,156,117,-175,58,48,0,-9,-29,0,48
-195,-39,156,117,-175,58,48,0,-9,-29,0,48
-190,-34,156,112,-173,61,39,0,-9,-29,0,48
-185,-29,156,107,-170,63,39,0,-9,-29,0,48
-180,-24,156,102,-168,65,39,0,-9,-29,0,48
-175,-19,156,97,-165,68,39,0,-9,-29,0,48
-175,-29,146,102,-161,58,39,-9,-9,-29,-9,48
-175,-29,146,102,-161,58,39,-9,-9,-29,-9,48
-175,-29,146,102,-161,58,39,-9,-9,-29,-9,48
-175,-29,146,102,-161,58,39,-9,-9,-29,-9,48
-175,-39,136,107,-156,48,39,-9,-19,-39,-9,48
-175,-39,136,107,-156,48,39,-9,-19,-39,-9,48
-175,-39,136,107,-156,48,39,-9,-19,-39,-9,48
-175,-39,136,107,-156,48,39,-9,-19,-39,-9,48
-165,-29,136,97,-151,53,39,-9,-9,-29,0,48
-165,-29,136,97,-151,53,39,-9,-9,-29,0,48
-165,-29,136,97,-151,53,39,-9,-9,-29,0,48
-165,-29,136,97,-151,53,39,-9,-9,-29,0,48
-156,-29,126,92,-141,48,39,-9,-19,-39,0,48
-156,-29,126,92,-141,48,39,-9,-19,-39,0,48
-156,-29,126,92,-141,48,39,-9,-19,-39,0,48
-156,-29,126,92,-141,48,39,-9,-19,-39,0,48
-156,-39,117,97,-136,39,29,-9,-19,-39,-9,39
-156,-39,117,97,-136,39,29,-9,-19,-39,-9,39
-156,-39,117,97,-136,39,29,-9,-19,-39,-9,39
-156,-39,117,97,-136,39,29,-9,-19,-39,-9,39
-141,-29,112,85,-126,41,19,-19,-29,-48,-19,39
-136,-29,107,82,-122,39,19,-19,-29,-48,-19,39
-131,-29,102,80,-117,36,19,-19,-29,-48,-19,39
-126,-29,97,78,-112,34,19,-19,-29,-48,-19,39
-117,-29,87,73,-102,29,19,-19,-39,-58,-19,34
-117,-29,87,73,-102,29,19,-19,-39,-58,-19,29
-117,-29,87,73,-102,29,19,-19,-39,-58,-19,24
-117,-29,87,73,-102,29,19,-19,-39,-58,-19,19
-117,-39,78,78,-97,19,19,-29,-39,-48,-29,19
-117,-39,78,78,-97,19,19,-29,-39,-48,-29,19
-117,-39,78,78,-97,19,19,-29,-39,-48,-29,19
-117,-39,78,78,-97,19,19,-29,-39,-48,-29,19
-102,-29,73,65,-87,21,19,-29,-39,-58,-39,19
-97,-29,68,63,-82,19,19,-29,-39,-58,-39,19
-92,-29,63,61,-78,17,19,-29,-39,-58,-39,19
-87,-29,58,58,-73,14,19,-29,-39,-58,-39,19
-73,-24,48,48,-61,12,9,-29,-39,-58,-39,9
-68,-19,48,43,-58,14,9,-29,-39,-58,-39,9
-63,-14,48,39,-56,17,9,-29,-39,-58,-39,9
-58,-9,48,34,-53,19,9,-29,-39,-58,-39,9
-58,-14,43,36,-51,14,0,-39,-43,-68,-48,9
-58,-19,39,39,-48,9,0,-39,-48,-68,-48,9
-58,-24,34,41,-46,4,0,-39,-53,-68,-48,9
-58,-29,29,43,-43,0,0,-39,-58,-68,-48,9
-48,-29,19,39,-34,-4,0,-48,-68,-78,-58,0
-48,-29,19,39,-34,-4,0,-48,-68,-78,-58,0
-48,-29,19,39,-34,-4,0,-48,-68,-78,-58,0
-48,-29,19,39,-34,-4,0,-48,-68,-78,-58,0
-43,-29,14,36,-29,-7,-9,-48,-68,-78,-48,0
-39,-29,9,34,-24,-9,-9,-48,-68,-78,-48,0
-34,-29,4,31,-19,-12,-9,-48,-68,-78,-48,0
-29,-29,0,29,-14,-14,-9,-48,-68,-78,-48,0
-29,-29,0,29,-14,-14,-9,-58,-58,-87,-58,-9
-29,-29,0,29,-14,-14,-9,-58,-58,-87,-58,-9
-29,-29,0,29,-14,-14,-9,-58,-58,-87,-58,-9
-29,-29,0,29,-14,-14,-9,-58,-58,-87,-58,-9
-24,-29,-4,26,-9,-17,-9,-58,-68,-87,-58,-9
-19,-29,-9,24,-4,-19,-9,-58,-68,-87,-58,-9
-14,-29,-14,21,0,-21,-9,-58,-68,-87,-58,-9
-9,-29,-19,19,4,-24,-9,-58,-68,-87,-58,-9
-19,-29,-9,24,-4,-19,-9,-58,-68,-87,-58,-9
-19,-29,-9,24,-4,-19,-9,-58,-68,-87,-58,-9
-19,-29,-9,24,-4,-19,-9,-58,-68,-87,-58,-9
-19,-29,-9,24,-4,-19,-9,-58,-68,-87,-58,-9
-9,-29,-19,19,4,-24,-19,-68,-68,-87,-68,-9
-9,-29,-19,19,4,-24,-19,-68,-68,-87,-68,-9
-9,-29,-19,19,4,-24,-19,-68,-68,-87,-68,-9
-9,-29,-19,19,4,-24,-19,-68,-68,-87,-68,-9
-9,-9,0,9,-4,-4,-9,-58,-58,-73,-58,-4
0,0,0,0,0,0,0,-53,-58,-73,-48,0
0,0,0,0,0,0,0,-48,-53,-68,-43,0
0,4,4,-2,-2,4,4,-43,-48,-58,-43,4
9,19,9,-14,0,14,14,-53,-48,-58,-43,4
9,34,24,-21,-7,29,14,-53,-48,-58,-43,4
9,39,29,-24,-9,34,14,-43,-43,-58,-39,4
0,39,39,-19,-19,39,24,-39,-43,-53,-39,4
0,43,43,-21,-21,43,39,-29,-34,-53,-39,4
9,43,34,-26,-12,39,48,-24,-29,-43,-39,4
14,43,29,-29,-7,36,58,-19,-29,-43,-39,4
14,53,39,-34,-12,46,63,-14,-24,-34,-34,9
9,63,53,-36,-21,58,68,-9,-19,-34,-34,14
14,78,63,-46,-24,70,68,-9,-19,-34,-29,14
14,78,63,-46,-24,70,68,-14,-19,-34,-29,14
14,78,63,-46,-24,70,58,-29,-24,-34,-24,14
19,78,58,-48,-19,68,24,-48,-43,-43,-34,4
24,73,48,-48,-12,61,0,-68,-48,-53,-34,9
24,68,43,-46,-9,56,-19,-87,-53,-63,-39,9
24,63,39,-43,-7,51,-43,-107,-68,-73,-39,14
34,73,39,-53,-2,56,-48,-107,-73,-68,-39,14
39,63,24,-51,7,43,-68,-112,-73,-73,-39,14
39,58,19,-48,9,39,-68,-112,-78,-73,-48,4
39,48,9,-43,14,29,-73,-117,-82,-78,-53,4
58,39,-19,-48,39,9,-82,-122,-97,-102,-73,4
58,39,-19,-48,39,9,-92,-122,-97,-102,-73,4
58,39,-19,-48,39,9,-102,-131,-102,-107,-68,4
58,39,-19,-48,39,9,-117,-136,-112,-112,-68,0
68,39,-29,-53,48,4,-136,-141,-117,-117,-78,-14
68,29,-39,-48,53,-4,-136,-151,-131,-122,-78,-14
73,29,-43,-51,58,-7,-136,-151,-131,-122,-78,-14
82,29,-53,-56,68,-12,-131,-146,-126,-122,-78,-9
92,24,-68,-58,80,-21,-131,-146,-117,-122,-87,0
97,24,-73,-61,85,-24,-131,-146,-117,-122,-87,4
97,34,-63,-65,80,-14,-131,-146,-117,-122,-82,4
97,34,-63,-65,80,-14,-122,-146,-117,-122,-82,0
92,34,-58,-63,75,-12,-107,-136,-122,-122,-82,-4
92,29,-63,-61,78,-17,-102,-131,-122,-126,-82,-4
87,19,-68,-53,78,-24,-97,-131,-122,-126,-78,-4
78,9,-68,-43,73,-29,-92,-122,-122,-122,-78,-4
82,14,-68,-48,75,-26,-97,-122,-131,-131,-82,-4
82,14,-68,-48,75,-26,-87,-122,-117,-126,-82,-4
68,9,-58,-39,63,-24,-82,-122,-107,-117,-73,-4
63,-4,-68,-29,65,-36,-73,-126,-117,-126,-87,-14
73,-14,-87,-29,80,-51,-78,-126,-136,-136,-97,-24
63,-14,-78,-24,70,-46,-63,-117,-126,-136,-97,-29
58,-14,-73,-21,65,-43,-63,-112,-117,-126,-97,-29
58,-19,-78,-19,68,-48,-58,-107,-117,-126,-92,-29
58,-24,-82,-17,70,-53,-53,-107,-107,-117,-82,-29
58,-29,-87,-14,73,-58,-53,-107,-107,-126,-82,-34
58,-29,-87,-14,73,-58,-53,-107,-107,-131,-92,-43
58,-39,-97,-9,78,-68,-53,-107,-107,-136,-97,-48
48,-48,-97,0,73,-73,-43,-102,-117,-141,-102,-48
48,-53,-102,2,75,-78,-43,-102,-122,-141,-107,-53
48,-53,-102,2,75,-78,-43,-102,-122,-141,-112,-53
48,-58,-107,4,78,-82,-43,-102,-122,-141,-112,-53
39,-58,-97,9,68,-78,-43,-112,-131,-141,-117,-53
39,-53,-92,7,65,-73,-39,-107,-131,-141,-117,-53
39,-53,-92,7,65,-73,-39,-102,-126,-141,-117,-53
34,-53,-87,9,61,-70,-39,-102,-126,-136,-117,-53
48,-43,-92,-2,70,-68,-39,-102,-117,-146,-117,-53
48,-43,-92,-2,70,-68,-39,-102,-112,-146,-117,-53
53,-48,-102,-2,78,-75,-39,-102,-112,-146,-122,-58
58,-53,-112,-2,85,-82,-34,-102,-112,-146,-122,-58
48,-63,-112,7,80,-87,-29,-102,-122,-146,-122,-63
48,-58,-107,4,78,-82,-29,-92,-122,-146,-117,-63
48,-58,-107,4,78,-82,-29,-92,-122,-146,-117,-58
48,-58,-107,4,78,-82,-29,-92,-122,-146,-117,-58
48,-58,-107,4,78,-82,-29,-82,-112,-136,-117,-58
48,-58,-107,4,78,-82,-24,-82,-112,-136,-117,-58
48,-58,-107,4,78,-82,-24,-82,-107,-131,-112,-58
48,-58,-107,4,78,-82,-19,-82,-107,-131,-112,-58
48,-58,-107,4,78,-82,-29,-92,-117,-136,-112,-68
48,-63,-112,7,80,-87,-24,-87,-112,-141,-112,-58
48,-63,-112,7,80,-87,-24,-82,-112,-141,-117,-53
53,-63,-117,4,85,-90,-24,-82,-112,-141,-122,-53
53,-63,-117,4,85,-90,-24,-92,-112,-141,-112,-58
53,-63,-117,4,85,-90,-24,-97,-112,-141,-117,-58
53,-63,-117,4,85,-90,-24,-97,-112,-146,-117,-58
48,-63,-112,7,80,-87,-24,-97,-112,-146,-117,-58
43,-73,-117,14,80,-95,-19,-87,-112,-151,-112,-58
53,-73,-126,9,90,-100,-19,-87,-112,-141,-112,-58
58,-63,-122,2,90,-92,-19,-87,-112,-131,-112,-58
58,-63,-122,2,90,-92,-9,-73,-97,-131,-112,-63
43,-73,-117,14,80,-95,9,-58,-82,-126,-122,-73
34,-78,-112,21,73,-95,43,-14,-53,-117,-126,-87
29,-92,-122,31,75,-107,87,63,0,-92,-146,-117
9,-117,-126,53,68,-122,146,146,68,-68,-161,-156
-4,-151,-146,78,70,-148,195,229,126,-39,-170,-190
4,-151,-156,73,80,-153,239,287,190,-4,-165,-190
4,-151,-156,73,80,-153,248,312,214,29,-131,-185
19,-151,-170,65,95,-161,244,317,244,87,-68,-136
43,-131,-175,43,109,-153,239,346,307,180,43,-63
87,-97,-185,4,136,-141,229,366,375,302,190,24
122,-48,-170,-36,146,-109,185,356,448,439,361,146
185,48,-136,-117,161,-43,136,336,536,629,595,326
248,165,-82,-207,165,41,78,322,629,819,854,522
307,287,-19,-297,163,134,19,312,707,976,1083,736
361,409,48,-385,156,229,-34,312,800,1146,1327,966
400,507,107,-453,146,307,-78,312,878,1293,1576,1176
448,561,112,-505,168,336,-97,322,936,1420,1766,1337
492,561,68,-527,212,314,-102,346,990,1488,1908,1439
546,531,-14,-539,280,258,-102,380,1019,1507,1991,1507
595,478,-117,-536,356,180,-97,351,966,1473,2010,1517
590,444,-146,-517,368,148,-107,219,844,1385,1956,1483
546,424,-122,-485,334,151,-97,92,732,1322,1873,1449
497,375,-122,-436,309,126,-68,9,619,1210,1732,1366
429,283,-146,-356,287,68,-39,-68,405,980,1464,1195
346,195,-151,-270,248,21,-14,-170,131,653,1098,976
268,151,-117,-209,192,17,4,-278,-156,268,683,746
190,117,-73,-153,131,21,-9,-400,-473,-180,214,512
126,73,-53,-100,90,9,-34,-507,-727,-570,-190,268
73,43,-29,-58,51,7,-24,-527,-834,-746,-414,78
48,9,-39,-29,43,-14,-14,-507,-814,-746,-488,-58
14,-19,-34,2,24,-26,-68,-531,-824,-766,-541,-146
-19,-48,-29,34,4,-39,-165,-575,-858,-790,-570,-200
-19,-48,-29,34,4,-39,-224,-561,-814,-756,-551,-234
-9,-48,-39,29,14,-43,-224,-517,-746,-692,-517,-224
-29,-53,-24,41,-2,-39,-224,-497,-727,-673,-522,-219
-29,-39,-9,34,-9,-24,-214,-448,-673,-634,-488,-204
9,14,4,-12,2,9,-170,-336,-556,-546,-414,-175
34,43,9,-39,12,26,-112,-229,-444,-473,-361,-151
39,53,14,-46,12,34,-68,-156,-361,-424,-322,-141
48,48,0,-48,24,24,-29,-82,-278,-361,-283,-131
43,19,-24,-31,34,-2,-19,-34,-234,-322,-263,-122
39,9,-29,-24,34,-9,-4,-24,-200,-283,-248,-117
39,9,-29,-24,34,-9,4,-39,-195,-253,-239,-112
29,4,-24,-17,26,-9,4,-63,-185,-239,-229,-112
19,-14,-34,-2,26,-24,0,-87,-185,-229,-214,-107
24,-14,-39,-4,31,-26,0,-87,-161,-219,-209,-107
48,-14,-63,-17,56,-39,9,-73,-141,-204,-200,-97
53,-19,-73,-17,63,-46,14,-58,-122,-204,-195,-107
34,-34,-68,0,51,-51,9,-48,-117,-209,-195,-107
39,-34,-73,-2,56,-53,19,-34,-122,-204,-204,-117
39,-39,-78,0,58,-58,29,-24,-117,-200,-195,-117
39,-43,-82,2,61,-63,29,-19,-107,-185,-190,-117
39,-43,-82,2,61,-63,29,-9,-102,-175,-175,-117
53,-43,-97,-4,75,-70,19,-14,-92,-170,-175,-102
53,-43,-97,-4,75,-70,14,-19,-82,-165,-170,-97
53,-39,-92,-7,73,-65,14,-24,-82,-161,-170,-97
53,-39,-92,-7,73,-65,14,-24,-78,-161,-170,-97
48,-48,-97,0,73,-73,19,-14,-78,-161,-175,-97
48,-48,-97,0,73,-73,19,-14,-78,-161,-175,-102
43,-48,-92,2,68,-70,24,-9,-68,-151,-170,-112
39,-58,-97,9,68,-78,24,-9,-68,-151,-165,-117
24,-63,-87,19,56,-75,24,-14,-73,-141,-161,-107
19,-63,-82,21,51,-73,24,-14,-68,-141,-151,-97
19,-68,-87,24,53,-78,19,-14,-68,-141,-151,-97
19,-73,-92,26,56,-82,19,-14,-68,-141,-151,-97
19,-73,-92,26,56,-82,19,-9,-63,-141,-156,-107
29,-73,-102,21,65,-87,24,-9,-63,-141,-156,-112
19,-78,-97,29,58,-87,29,-9,-63,-141,-151,-112
19,-78,-97,29,58,-87,29,-9,-58,-136,-151,-102
34,-68,-102,17,68,-85,19,-9,-68,-136,-161,-102
34,-73,-107,19,70,-90,19,-4,-68,-131,-156,-102
29,-73,-102,21,65,-87,19,-4,-58,-126,-151,-97
29,-73,-102,21,65,-87,19,-9,-53,-126,-151,-97
29,-73,-102,21,65,-87,29,-9,-53,-131,-146,-97
29,-73,-102,21,65,-87,24,-9,-53,-131,-146,-97
29,-73,-102,21,65,-87,24,-9,-53,-131,-146,-97
29,-73,-102,21,65,-87,29,-4,-53,-126,-146,-97
29,-78,-107,24,68,-92,24,-9,-43,-136,-146,-102
34,-78,-112,21,73,-95,24,-9,-43,-131,-146,-102
34,-82,-117,24,75,-100,24,-9,-48,-126,-141,-102
34,-82,-117,24,75,-100,24,-4,-48,-126,-141,-107
24,-92,-117,34,70,-104,24,-4,-43,-126,-141,-107
24,-87,-112,31,68,-100,24,-4,-43,-126,-141,-107
24,-82,-107,29,65,-95,24,-4,-39,-126,-141,-102
29,-82,-112,26,70,-97,24,-4,-39,-122,-136,-102
39,-82,-122,21,80,-102,29,-4,-39,-112,-141,-102
34,-82,-117,24,75,-100,29,-4,-39,-112,-141,-102
34,-78,-112,21,73,-95,29,-4,-39,-112,-141,-102
34,-78,-112,21,73,-95,29,-4,-39,-112,-146,-102
34,-68,-102,17,68,-85,29,0,-39,-112,-146,-107
34,-73,-107,19,70,-90,29,4,-34,-102,-146,-107
24,-82,-107,29,65,-95,29,4,-29,-102,-141,-107
24,-82,-107,29,65,-95,29,4,-29,-112,-141,-102
14,-82,-97,34,56,-90,34,4,-29,-102,-136,-112
14,-82,-97,34,56,-90,34,4,-29,-102,-136,-107
19,-78,-97,29,58,-87,34,4,-24,-107,-136,-102
19,-78,-97,29,58,-87,34,9,-24,-107,-131,-102
19,-87,-107,34,63,-97,34,9,-24,-97,-141,-92
19,-78,-97,29,58,-87,29,9,-24,-97,-136,-87
19,-78,-97,29,58,-87,29,9,-14,-97,-131,-87
19,-78,-97,29,58,-87,29,9,-14,-92,-131,-87
14,-78,-92,31,53,-85,34,14,-14,-92,-122,-87
14,-82,-97,34,56,-90,34,19,-14,-92,-122,-87
9,-82,-92,36,51,-87,34,19,-4,-87,-122,-87
4,-82,-87,39,46,-85,39,19,-4,-87,-122,-87
0,-87,-87,43,43,-87,29,14,-14,-92,-131,-87
-4,-87,-82,46,39,-85,29,14,-14,-87,-126,-82
0,-82,-82,41,41,-82,29,24,-4,-82,-126,-78
4,-78,-82,36,43,-80,29,24,-4,-82,-122,-78
0,-82,-82,41,41,-82,19,24,-4,-92,-131,-82
-4,-82,-78,43,36,-80,19,24,4,-92,-122,-82
-9,-82,-73,46,31,-78,19,24,4,-82,-122,-87
-14,-87,-73,51,29,-80,19,24,4,-82,-122,-92
-14,-97,-82,56,34,-90,19,29,4,-82,-112,-92
-14,-97,-82,56,34,-90,24,34,9,-73,-112,-87
-9,-102,-92,56,41,-97,24,34,14,-73,-102,-87
-9,-102,-92,56,41,-97,19,34,14,-73,-97,-87
-19,-87,-68,53,24,-78,24,34,9,-63,-97,-78
-14,-87,-73,51,29,-80,24,39,14,-63,-92,-78
-14,-78,-63,46,24,-70,29,39,19,-53,-92,-73
-19,-78,-58,48,19,-68,29,39,24,-48,-92,-73
-29,-82,-53,56,12,-68,14,48,34,-43,-82,-78
-24,-82,-58,53,17,-70,14,48,34,-43,-82,-78
-24,-87,-63,56,19,-75,19,48,34,-39,-82,-68
-24,-92,-68,58,21,-80,19,48,43,-39,-73,-68
-24,-92,-68,58,21,-80,19,58,39,-34,-73,-68
-24,-87,-63,56,19,-75,19,58,43,-29,-73,-68
-24,-87,-63,56,19,-75,19,58,43,-29,-68,-63
-29,-78,-48,53,9,-63,19,68,48,-29,-68,-63
-29,-82,-53,56,12,-68,19,63,58,-19,-68,-58
-29,-87,-58,58,14,-73,19,63,63,-9,-63,-48
-29,-92,-63,61,17,-78,19,63,68,-4,-63,-48
-34,-97,-63,65,14,-80,24,68,73,-4,-53,-53
-43,-87,-43,65,0,-65,24,78,68,-4,-63,-53
-39,-87,-48,63,4,-68,19,78,73,-4,-58,-53
-39,-82,-43,61,2,-63,19,78,78,0,-48,-53
-34,-82,-48,58,7,-65,19,87,82,4,-43,-43
-34,-87,-53,61,9,-70,19,92,92,14,-43,-43
-34,-87,-53,61,9,-70,9,97,97,19,-39,-39
-34,-87,-53,61,9,-70,19,102,107,24,-34,-39
-24,-78,-53,51,14,-65,19,107,117,34,-29,-29
-14,-73,-58,43,21,-65,29,107,122,48,-24,-19
-19,-68,-48,43,14,-58,29,117,126,53,-14,-19
-19,-58,-39,39,9,-48,29,122,136,53,-9,-19
-14,-39,-24,26,4,-31,29,126,146,63,-9,-14
0,-39,-39,19,19,-39,39,141,151,78,-4,-4
14,-29,-43,7,29,-36,39,146,161,82,14,4
24,-9,-34,-7,29,-21,39,156,180,97,24,9
29,9,-19,-19,24,-4,39,165,190,107,29,14
34,19,-14,-26,24,2,39,170,209,122,48,19
43,24,-19,-34,31,2,39,180,219,136,53,29
53,34,-19,-43,36,7,43,195,229,141,68,39
68,43,-24,-56,46,9,43,204,234,141,78,48
73,58,-14,-65,43,21,53,214,248,151,87,58
73,68,-4,-70,39,31,48,219,258,165,97,73
73,68,-4,-70,39,31,48,234,273,180,112,78
73,73,0,-73,36,36,48,244,287,185,126,87
87,78,-9,-82,48,34,58,258,297,204,131,87
87,82,-4,-85,46,39,63,263,307,219,146,92
87,82,-4,-85,46,39,63,273,317,229,146,97
92,87,-4,-90,48,41,63,283,326,234,156,102
102,92,-9,-97,56,41,63,283,336,244,161,117
102,107,4,-104,48,56,63,292,351,253,170,122
97,112,14,-104,41,63,58,302,370,263,185,131
92,117,24,-104,34,70,58,312,380,283,204,146
97,122,24,-109,36,73,68,331,405,292,209,156
97,131,34,-114,31,82,68,346,409,307,224,165
97,136,39,-117,29,87,68,351,429,326,234,175
107,146,39,-126,34,92,68,361,444,341,253,185
112,170,58,-141,26,114,78,375,458,356,263,195
117,170,53,-143,31,112,78,385,468,370,278,204
117,175,58,-146,29,117,78,395,488,390,292,229
131,195,63,-163,34,129,78,405,507,405,317,244
131,200,68,-165,31,134,68,424,522,409,322,244
136,204,68,-170,34,136,68,434,536,429,336,258
151,219,68,-185,41,143,68,444,541,439,356,273
151,224,73,-187,39,148,68,448,546,453,370,287
141,219,78,-180,31,148,63,444,556,463,395,297
141,224,82,-183,29,153,63,458,570,478,405,307
146,234,87,-190,29,161,63,468,585,492,424,326
156,244,87,-200,34,165,63,478,600,507,444,341
151,263,112,-207,19,187,63,483,619,531,448,346
156,268,112,-212,21,190,58,492,624,541,463,351
170,273,102,-222,34,187,58,497,634,556,478,361
170,287,117,-229,26,202,53,497,639,566,492,370
180,287,107,-234,36,197,53,497,653,561,502,380
185,287,102,-236,41,195,58,502,658,580,512,395
190,302,112,-246,39,207,58,512,663,590,536,405
200,312,112,-256,43,212,58,517,678,610,556,424
190,312,122,-251,34,217,58,517,688,624,566,429
190,317,126,-253,31,222,58,517,692,634,570,439
195,322,126,-258,34,224,53,517,692,639,580,448
195,326,131,-261,31,229,53,517,688,639,590,448
204,331,126,-268,39,229,53,517,688,649,590,463
204,341,136,-273,34,239,53,512,688,649,605,468
204,341,136,-273,34,239,48,507,688,649,605,473
204,341,136,-273,34,239,48,492,683,658,610,478
204,351,146,-278,29,248,39,497,683,658,624,488
195,351,156,-273,19,253,39,488,673,658,629,492
195,356,161,-275,17,258,39,478,668,658,629,492
195,361,165,-278,14,263,39,468,663,653,639,492
200,361,161,-280,19,261,39,448,653,653,639,502
200,351,151,-275,24,251,39,434,639,644,629,492
190,341,151,-265,19,246,34,424,624,634,624,483
190,336,146,-263,21,241,34,414,610,634,614,483
190,326,136,-258,26,231,24,405,614,629,619,488
185,322,136,-253,24,229,24,395,595,619,614,488
185,317,131,-251,26,224,24,380,580,605,605,483
185,312,126,-248,29,219,24,370,561,595,590,468
175,307,131,-241,21,219,14,346,531,585,580,458
175,292,117,-234,29,204,9,326,512,566,561,439
170,283,112,-226,29,197,9,302,492,541,541,424
165,268,102,-217,31,185,0,278,463,522,522,400
151,253,102,-202,24,178,9,258,453,512,512,390
151,248,97,-200,26,173,9,244,434,502,492,380
146,239,92,-192,26,165,-4,234,414,483,473,356
146,229,82,-187,31,156,-14,229,400,458,453,346
131,224,92,-178,19,158,-4,204,375,434,439,326
131,204,73,-168,29,139,0,185,351,405,405,307
131,190,58,-161,36,124,0,170,322,385,380,287
131,190,58,-161,36,124,-9,146,302,361,356,258
126,180,53,-153,36,117,-9,136,287,346,336,244
122,170,48,-146,36,109,-4,131,268,336,307,234
107,151,43,-129,31,97,-4,122,248,307,287,214
102,141,39,-122,31,90,-4,107,229,278,263,200
92,136,43,-114,24,90,-9,92,219,273,248,185
82,126,43,-104,19,85,-9,82,200,253,229,170
82,112,29,-97,26,70,-9,63,180,234,214,156
63,97,34,-80,14,65,-9,53,161,214,195,141
63,82,19,-73,21,51,-19,53,146,195,175,131
63,78,14,-70,24,46,-19,43,136,170,170,117
53,68,14,-61,19,41,-19,39,122,165,156,112
48,58,9,-53,19,34,-14,29,107,156,136,92
53,53,0,-53,26,26,-14,14,92,136,122,73
53,58,4,-56,24,31,-19,9,82,117,107,68
39,53,14,-46,12,34,-19,4,68,97,92,48
34,53,19,-43,7,36,-19,-4,53,87,73,43
34,48,14,-41,9,31,-14,4,58,82,68,43
34,48,14,-41,9,31,-14,-4,48,82,53,34
24,43,19,-34,2,31,-19,-14,39,73,48,24
24,39,14,-31,4,26,-19,-19,34,63,39,14
24,24,0,-24,12,12,-19,-19,14,58,34,9
24,19,-4,-21,14,7,-19,-19,9,48,34,4
14,14,0,-14,7,7,-19,-19,9,39,19,0
14,9,-4,-12,9,2,-24,-19,4,29,4,-4
24,14,-9,-19,17,2,-24,-19,9,29,9,0
24,14,-9,-19,17,2,-19,-24,0,24,9,-4
14,14,0,-14,7,7,-19,-29,-4,19,9,-4
9,9,0,-9,4,4,-14,-39,-9,14,4,-9
9,4,-4,-7,7,0,-14,-29,-19,14,-14,-19
4,4,0,-4,2,2,-14,-29,-19,14,-14,-24
4,4,0,-4,2,2,-14,-24,-19,9,-19,-29
4,0,-4,-2,4,-2,-14,-24,-19,9,-19,-29
4,-9,-14,2,9,-12,-14,-24,-14,4,-9,-19
4,-9,-14,2,9,-12,-14,-34,-14,0,-19,-29
4,-9,-14,2,9,-12,-14,-34,-19,-4,-24,-29
4,-14,-19,4,12,-17,-14,-29,-19,-4,-29,-29
4,-9,-14,2,9,-12,-14,-29,-24,4,-39,-39
4,-4,-9,0,7,-7,-14,-29,-24,4,-39,-39
-4,-4,0,4,-2,-2,-14,-29,-24,0,-43,-43
-9,-9,0,9,-4,-4,-14,-29,-24,0,-43,-43
-9,-9,0,9,-4,-4,-9,-29,-24,-9,-43,-43
0,0,0,0,0,0,-9,-34,-29,-9,-48,-43
4,0,-4,-2,4,-2,-9,-34,-29,-14,-48,-43
4,0,-4,-2,4,-2,-9,-34,-29,-14,-48,-43
4,-9,-14,2,9,-12,-9,-24,-19,-14,-48,-34
4,-9,-14,2,9,-12,-9,-24,-19,-14,-48,-29
4,-9,-14,2,9,-12,-9,-19,-19,-14,-48,-29
0,-14,-14,7,7,-14,-9,-19,-19,-9,-43,-34
-14,-14,0,14,-7,-7,-9,-29,-29,-9,-53,-43
-14,-24,-9,19,-2,-17,-9,-29,-29,-14,-53,-48
-4,-14,-9,9,2,-12,-9,-29,-29,-14,-53,-48
-4,-9,-4,7,0,-7,-9,-29,-29,-14,-53,-48
-9,-4,4,7,-7,0,-9,-29,-29,-14,-53,-48
-9,0,9,4,-9,4,-4,-29,-29,-14,-53,-48
-9,4,14,2,-12,9,-4,-29,-24,-14,-53,-48
-14,9,24,2,-19,17,-4,-29,-24,-14,-53,-48
-14,-4,9,9,-12,2,-9,-29,-14,-14,-43,-48
-9,-9,0,9,-4,-4,-9,-24,-14,-14,-43,-48
-4,-14,-9,9,2,-12,-9,-24,-14,-9,-43,-48
-4,-24,-19,14,7,-21,-4,-24,-14,-9,-43,-43
0,-14,-14,7,7,-14,-4,-19,-14,0,-34,-34
0,-9,-9,4,4,-9,-4,-14,-14,0,-34,-29
0,-9,-9,4,4,-9,-4,-9,-14,0,-34,-29
4,-9,-14,2,9,-12,-4,-4,-14,0,-29,-29
4,-9,-14,2,9,-12,4,-14,-19,-4,-29,-39
4,-9,-14,2,9,-12,4,-9,-19,-4,-29,-39
-4,-9,-4,7,0,-7,4,-9,-19,-4,-29,-43
-4,-9,-4,7,0,-7,4,-9,-19,0,-24,-43
-4,0,4,2,-4,2,-4,-9,-19,0,-34,-43
0,4,4,-2,-2,4,-9,-9,-19,-4,-39,-43
0,4,4,-2,-2,4,-9,-9,-19,-4,-43,-43
0,-4,-4,2,2,-4,-9,-14,-19,-4,-48,-43
-9,-4,4,7,-7,0,-9,-14,-19,0,-39,-43
-9,0,9,4,-9,4,-9,-9,-19,0,-34,-39
-4,0,4,2,-4,2,-9,-9,-14,0,-34,-39
-4,0,4,2,-4,2,-9,-9,-14,0,-34,-39
-14,-9,4,12,-9,-2,-9,-9,-14,-4,-34,-39
-19,-9,9,14,-14,0,-4,-9,-14,-4,-34,-34
-19,-14,4,17,-12,-4,-4,-9,-14,-4,-39,-34
-19,-14,4,17,-12,-4,-4,-19,-14,-4,-39,-34
-4,4,9,0,-7,7,-4,-9,-4,4,-39,-34
-4,4,9,0,-7,7,-4,-9,-4,9,-29,-34
-14,4,19,4,-17,12,-4,-9,-4,9,-29,-34
-14,0,14,7,-14,7,-4,-9,-9,4,-34,-34
-4,-9,-4,7,0,-7,-4,-19,-19,0,-43,-43
-4,-9,-4,7,0,-7,-4,-19,-19,0,-43,-53
0,-4,-4,2,2,-4,-9,-19,-19,4,-43,-43
0,-4,-4,2,2,-4,-9,-19,-24,4,-43,-43
-4,-14,-9,9,2,-12,-9,-19,-24,-4,-29,-34
-4,-19,-14,12,4,-17,-9,-19,-19,-4,-29,-29
0,-19,-19,9,9,-19,-9,-19,-19,-4,-29,-29
0,-24,-24,12,12,-24,-9,-19,-19,-4,-29,-29
0,-14,-14,7,7,-14,-9,-19,-29,0,-39,-39
0,-9,-9,4,4,-9,-9,-24,-29,0,-39,-39
0,-4,-4,2,2,-4,-4,-24,-29,0,-43,-39
0,-4,-4,2,2,-4,-4,-24,-29,0,-43,-39
4,-4,-9,0,7,-7,-14,-24,-24,-9,-43,-39
4,-14,-19,4,12,-17,-14,-24,-29,-14,-43,-43
9,-4,-14,-2,12,-9,-19,-29,-29,-14,-43,-48
14,-4,-19,-4,17,-12,-19,-29,-29,-14,-43,-48
4,-9,-14,2,9,-12,-9,-34,-29,-14,-34,-39
-4,-19,-14,12,4,-17,-24,-34,-34,-14,-39,-43
-4,-34,-29,19,12,-31,-24,-39,-39,-24,-48,-43
0,-29,-29,14,14,-29,-19,-39,-39,-24,-48,-43
0,-19,-19,9,9,-19,-14,-29,-43,-14,-48,-43
0,-24,-24,12,12,-24,-14,-34,-43,-14,-43,-39
0,-24,-24,12,12,-24,-14,-34,-48,-14,-43,-39
0,-24,-24,12,12,-24,-14,-34,-48,-19,-43,-39
4,-19,-24,7,14,-21,-19,-43,-58,-24,-53,-48
4,-14,-19,4,12,-17,-19,-43,-58,-34,-63,-53
9,-9,-19,0,14,-14,-19,-43,-63,-39,-68,-58
14,-4,-19,-4,17,-12,-24,-43,-63,-43,-73,-63
14,-14,-29,0,21,-21,-24,-43,-63,-29,-73,-73
14,-14,-29,0,21,-21,-19,-43,-63,-29,-78,-73
14,-14,-29,0,21,-21,-19,-48,-68,-34,-78,-73
14,-19,-34,2,24,-26,-19,-48,-68,-43,-78,-73
24,-29,-53,2,39,-41,-29,-48,-68,-53,-68,-63
24,-29,-53,2,39,-41,-29,-48,-68,-48,-68,-63
24,-29,-53,2,39,-41,-29,-48,-68,-48,-68,-63
24,-29,-53,2,39,-41,-34,-48,-68,-53,-68,-68
24,-39,-63,7,43,-51,-24,-58,-63,-43,-58,-68
19,-39,-58,9,39,-48,-24,-58,-63,-43,-58,-68
19,-39,-58,9,39,-48,-19,-58,-63,-43,-63,-68
19,-39,-58,9,39,-48,-19,-58,-63,-48,-63,-68
29,-34,-63,2,46,-48,-34,-58,-63,-58,-73,-73
34,-29,-63,-2,48,-46,-34,-58,-68,-58,-78,-73
34,-24,-58,-4,46,-41,-34,-58,-68,-58,-78,-73
34,-14,-48,-9,41,-31,-34,-58,-68,-58,-78,-73
34,-24,-58,-4,46,-41,-34,-63,-68,-63,-78,-73
29,-24,-53,-2,41,-39,-34,-63,-73,-63,-78,-73
29,-34,-63,2,46,-48,-34,-63,-73,-63,-78,-73
29,-34,-63,2,46,-48,-29,-63,-73,-63,-78,-73
29,-24,-53,-2,41,-39,-19,-63,-63,-53,-68,-63
29,-29,-58,0,43,-43,-24,-63,-63,-53,-68,-63
29,-29,-58,0,43,-43,-24,-63,-63,-53,-68,-63
24,-24,-48,0,36,-36,-24,-63,-63,-53,-68,-63
24,-24,-48,0,36,-36,-29,-63,-73,-63,-78,-68
19,-24,-43,2,31,-34,-29,-63,-73,-63,-78,-73
19,-24,-43,2,31,-34,-29,-63,-73,-63,-82,-78
19,-24,-43,2,31,-34,-29,-63,-73,-63,-82,-82
19,-34,-53,7,36,-43,-29,-73,-73,-63,-82,-73
19,-34,-53,7,36,-43,-29,-73,-73,-63,-82,-82
29,-39,-68,4,48,-53,-29,-73,-73,-63,-82,-87
29,-39,-68,4,48,-53,-29,-73,-73,-68,-82,-87
9,-39,-48,14,29,-43,-29,-63,-73,-58,-82,-82
9,-39,-48,14,29,-43,-29,-63,-73,-58,-87,-78
19,-39,-58,9,39,-48,-29,-63,-73,-63,-87,-73
19,-39,-58,9,39,-48,-29,-63,-78,-63,-82,-68
29,-39,-68,4,48,-53,-29,-63,-82,-58,-82,-78
29,-39,-68,4,48,-53,-29,-63,-82,-58,-82,-78
24,-39,-63,7,43,-51,-34,-63,-78,-58,-82,-78
19,-39,-58,9,39,-48,-34,-63,-73,-58,-82,-78
29,-34,-63,2,46,-48,-24,-63,-82,-68,-82,-68
19,-34,-53,7,36,-43,-24,-63,-82,-68,-73,-68
19,-34,-53,7,36,-43,-29,-63,-82,-68,-82,-73
19,-43,-63,12,41,-53,-29,-68,-82,-68,-92,-73
19,-48,-68,14,43,-58,-29,-68,-87,-78,-87,-78
29,-39,-68,4,48,-53,-29,-68,-87,-78,-87,-78
29,-39,-68,4,48,-53,-29,-68,-87,-78,-87,-78
29,-39,-68,4,48,-53,-29,-68,-87,-78,-87,-78
29,-39,-68,4,48,-53,-29,-68,-87,-78,-87,-78
19,-29,-48,4,34,-39,-39,-78,-78,-78,-87,-78
19,-29,-48,4,34,-39,-39,-78,-78,-78,-87,-78
19,-29,-48,4,34,-39,-39,-78,-78,-78,-87,-78
19,-29,-48,4,34,-39,-39,-78,-78,-78,-87,-78
29,-34,-63,2,46,-48,-29,-78,-78,-78,-87,-78
29,-39,-68,4,48,-53,-29,-78,-78,-78,-87,-78
29,-43,-73,7,51,-58,-29,-78,-78,-78,-87,-78
29,-48,-78,9,53,-63,-29,-78,-78,-78,-87,-78
19,-48,-68,14,43,-58,-29,-78,-82,-87,-87,-87
19,-48,-68,14,43,-58,-29,-78,-87,-87,-87,-87
19,-48,-68,14,43,-58,-29,-78,-92,-87,-87,-87
19,-48,-68,14,43,-58,-29,-78,-97,-87,-87,-87
29,-43,-73,7,51,-58,-29,-68,-87,-78,-97,-87
29,-39,-68,4,48,-53,-29,-68,-87,-78,-97,-87
29,-34,-63,2,46,-48,-29,-68,-87,-78,-97,-87
29,-29,-58,0,43,-43,-29,-68,-87,-78,-97,-87
19,-39,-58,9,39,-48,-29,-78,-87,-78,-97,-97
19,-39,-58,9,39,-48,-29,-78,-87,-78,-97,-97
19,-39,-58,9,39,-48,-29,-78,-87,-78,-97,-97
19,-39,-58,9,39,-48,-29,-78,-87,-78,-97,-97
29,-39,-68,4,48,-53,-39,-78,-87,-87,-97,-87
29,-39,-68,4,48,-53,-39,-78,-87,-87,-97,-87
29,-39,-68,4,48,-53,-39,-78,-87,-87,-97,-87
29,-39,-68,4,48,-53,-39,-78,-87,-87,-97,-87
39,-39,-78,0,58,-58,-29,-78,-87,-87,-87,-78
39,-39,-78,0,58,-58,-29,-78,-87,-87,-87,-78
39,-39,-78,0,58,-58,-29,-78,-87,-87,-87,-78
39,-39,-78,0,58,-58,-29,-78,-87,-87,-87,-78
29,-48,-78,9,53,-63,-29,-78,-87,-87,-87,-87
29,-48,-78,9,53,-63,-29,-78,-87,-87,-87,-87
29,-48,-78,9,53,-63,-29,-78,-87,-87,-87,-87
29,-48,-78,9,53,-63,-29,-78,-87,-87,-87,-87
29,-39,-68,4,48,-53,-29,-78,-97,-97,-97,-97
29,-39,-68,4,48,-53,-29,-78,-97,-97,-97,-97
29,-39,-68,4,48,-53,-29,-78,-97,-97,-97,-97
29,-39,-68,4,48,-53,-29,-78,-97,-97,-97,-97
39,-29,-68,-4,53,-48,-39,-78,-97,-97,-97,-87
39,-29,-68,-4,53,-48,-39,-78,-97,-97,-97,-87
39,-29,-68,-4,53,-48,-39,-78,-97,-97,-97,-87
39,-29,-68,-4,53,-48,-39,-78,-97,-97,-97,-87
39,-39,-78,0,58,-58,-29,-78,-97,-87,-87,-78
39,-39,-78,0,58,-58,-29,-78,-97,-87,-87,-78
39,-39,-78,0,58,-58,-29,-78,-97,-87,-87,-78
39,-39,-78,0,58,-58,-29,-78,-97,-87,-87,-78
29,-43,-73,7,51,-58,-29,-78,-97,-87,-87,-78
29,-48,-78,9,53,-63,-29,-78,-97,-87,-87,-78
29,-53,-82,12,56,-68,-29,-78,-97,-87,-87,-78
29,-58,-87,14,58,-73,-29,-78,-97,-87,-87,-78
29,-48,-78,9,53,-63,-29,-78,-97,-87,-87,-82
29,-48,-78,9,53,-63,-29,-78,-97,-87,-87,-87
29,-48,-78,9,53,-63,-29,-78,-97,-87,-87,-92
29,-48,-78,9,53,-63,-29,-78,-97,-87,-87,-97
29,-39,-68,4,48,-53,-29,-68,-97,-87,-87,-87
29,-39,-68,4,48,-53,-29,-68,-97,-87,-87,-87
29,-39,-68,4,48,-53,-29,-68,-97,-87,-87,-87
29,-39,-68,4,48,-53,-29,-68,-97,-87,-87,-87
29,-39,-68,4,48,-53,-29,-68,-97,-97,-87,-87
29,-39,-68,4,48,-53,-29,-68,-97,-97,-87,-87
29,-39,-68,4,48,-53,-29,-68,-97,-97,-87,-87
29,-39,-68,4,48,-53,-29,-68,-97,-97,-87,-87
24,-48,-73,12,48,-61,-29,-58,-87,-87,-78,-78
19,-48,-68,14,43,-58,-29,-58,-87,-87,-78,-78
14,-48,-63,17,39,-56,-29,-58,-87,-87,-78,-78
9,-48,-58,19,34,-53,-29,-58,-87,-87,-78,-78
19,-39,-58,9,39,-48,-29,-68,-92,-97,-78,-78
19,-39,-58,9,39,-48,-29,-68,-97,-97,-78,-78
19,-39,-58,9,39,-48,-29,-68,-102,-97,-78,-78
19,-39,-58,9,39,-48,-29,-68,-107,-97,-78,-78
19,-48,-68,14,43,-58,-39,-78,-97,-97,-87,-78
19,-48,-68,14,43,-58,-39,-78,-97,-97,-87,-78
19,-48,-68,14,43,-58,-39,-78,-97,-97,-87,-78
19,-48,-68,14,43,-58,-39,-78,-97,-97,-87,-78
29,-39,-68,4,48,-53,-29,-78,-97,-97,-87,-87
29,-39,-68,4,48,-53,-29,-78,-97,-97,-87,-87
29,-39,-68,4,48,-53,-29,-78,-97,-97,-87,-87
29,-39,-68,4,48,-53,-29,-78,-97,-97,-87,-87
19,-48,-68,14,43,-58,-29,-68,-97,-87,-78,-78
19,-48,-68,14,43,-58,-29,-68,-97,-87,-78,-78
19,-48,-68,14,43,-58,-29,-68,-97,-87,-78,-78
19,-48,-68,14,43,-58,-29,-68,-97,-87,-78,-78
29,-39,-68,4,48,-53,-29,-68,-97,-87,-68,-78
29,-39,-68,4,48,-53,-29,-68,-97,-87,-68,-78
29,-39,-68,4,48,-53,-29,-68,-97,-87,-68,-78
29,-39,-68,4,48,-53,-29,-68,-97,-87,-68,-78
19,-48,-68,14,43,-58,-29,-68,-97,-87,-78,-87
19,-48,-68,14,43,-58,-29,-68,-97,-87,-78,-87
19,-48,-68,14,43,-58,-29,-68,-97,-87,-78,-87
19,-48,-68,14,43,-58,-29,-68,-97,-87,-78,-87
29,-39,-68,4,48,-53,-29,-68,-97,-97,-87,-97
29,-39,-68,4,48,-53,-29,-68,-97,-97,-87,-97
29,-39,-68,4,48,-53,-29,-68,-97,-97,-87,-97
29,-39,-68,4,48,-53,-29,-68,-97,-97,-87,-97
29,-39,-68,4,48,-53,-29,-68,-107,-97,-87,-97
29,-39,-68,4,48,-53,-29,-68,-107,-97,-87,-97
29,-39,-68,4,48,-53,-29,-68,-107,-97,-87,-97
29,-39,-68,4,48,-53,-29,-68,-107,-97,-87,-97
19,-29,-48,4,34,-39,-29,-68,-97,-87,-78,-97
19,-29,-48,4,34,-39,-29,-68,-97,-87,-78,-97
19,-29,-48,4,34,-39,-29,-68,-97,-87,-78,-97
19,-29,-48,4,34,-39,-29,-68,-97,-87,-78,-97
29,-19,-48,-4,39,-34,-39,-68,-97,-87,-78,-87
29,-19,-48,-4,39,-34,-39,-68,-97,-87,-78,-87
29,-19,-48,-4,39,-34,-39,-68,-97,-87,-78,-87
29,-19,-48,-4,39,-34,-39,-68,-97,-87,-78,-87
19,-24,-43,2,31,-34,-29,-78,-97,-87,-87,-87
19,-29,-48,4,34,-39,-29,-78,-97,-87,-87,-87
19,-34,-53,7,36,-43,-29,-78,-97,-87,-87,-87
19,-39,-58,9,39,-48,-29,-78,-97,-87,-87,-87
29,-29,-58,0,43,-43,-19,-68,-97,-78,-78,-87
29,-29,-58,0,43,-43,-19,-68,-97,-78,-78,-87
29,-29,-58,0,43,-43,-19,-68,-97,-78,-78,-87
29,-29,-58,0,43,-43,-19,-68,-97,-78,-78,-87
29,-29,-58,0,43,-43,-29,-68,-97,-78,-78,-78
29,-29,-58,0,43,-43,-29,-68,-97,-78,-78,-78
29,-29,-58,0,43,-43,-29,-68,-97,-78,-78,-78
29,-29,-58,0,43,-43,-29,-68,-97,-78,-78,-78
29,-39,-68,4,48,-53,-19,-78,-97,-87,-78,-87
29,-39,-68,4,48,-53,-19,-78,-97,-87,-78,-87
29,-39,-68,4,48,-53,-19,-78,-97,-87,-78,-87
29,-39,-68,4,48,-53,-19,-78,-97,-87,-78,-87
29,-39,-68,4,48,-53,-29,-68,-97,-78,-78,-97
29,-39,-68,4,48,-53,-29,-68,-97,-78,-78,-97
29,-39,-68,4,48,-53,-29,-68,-97,-78,-78,-97
29,-39,-68,4,48,-53,-29,-68,-97,-78,-78,-97
19,-39,-58,9,39,-48,-29,-68,-97,-68,-78,-92
19,-39,-58,9,39,-48,-29,-68,-97,-68,-78,-87
19,-39,-58,9,39,-48,-29,-68,-97,-68,-78,-82
19,-39,-58,9,39,-48,-29,-68,-97,-68,-78,-78
29,-29,-58,0,43,-43,-39,-68,-97,-68,-78,-87
29,-29,-58,0,43,-43,-39,-68,-97,-68,-78,-87
29,-29,-58,0,43,-43,-39,-68,-97,-68,-78,-87
29,-29,-58,0,43,-43,-39,-68,-97,-68,-78,-87
29,-29,-58,0,43,-43,-29,-68,-97,-78,-87,-87
29,-29,-58,0,43,-43,-29,-68,-97,-78,-87,-87
29,-29,-58,0,43,-43,-29,-68,-97,-78,-87,-87
29,-29,-58,0,43,-43,-29,-68,-97,-78,-87,-87
29,-34,-63,2,46,-48,-29,-68,-97,-68,-87,-87
29,-39,-68,4,48,-53,-29,-68,-97,-68,-87,-87
29,-43,-73,7,51,-58,-29,-68,-97,-68,-87,-87
29,-48,-78,9,53,-63,-29,-68,-97,-68,-87,-87
29,-43,-73,7,51,-58,-29,-68,-97,-68,-78,-87
29,-39,-68,4,48,-53,-29,-68,-97,-68,-78,-87
29,-34,-63,2,46,-48,-29,-68,-97,-68,-78,-87
29,-29,-58,0,43,-43,-29,-68,-97,-68,-78,-87
19,-34,-53,7,36,-43,-19,-68,-97,-68,-78,-87
19,-39,-58,9,39,-48,-19,-68,-97,-68,-78,-87
19,-43,-63,12,41,-53,-19,-68,-97,-68,-78,-87
19,-48,-68,14,43,-58,-19,-68,-97,-68,-78,-87
29,-43,-73,7,51,-58,-19,-68,-87,-58,-78,-87
29,-39,-68,4,48,-53,-19,-68,-87,-58,-78,-87
29,-34,-63,2,46,-48,-19,-68,-87,-58,-78,-87
29,-29,-58,0,43,-43,-19,-68,-87,-58,-78,-87
24,-39,-63,7,43,-51,-29,-68,-97,-68,-78,-78
19,-39,-58,9,39,-48,-29,-68,-97,-68,-78,-78
14,-39,-53,12,34,-46,-29,-68,-97,-68,-78,-78
9,-39,-48,14,29,-43,-29,-68,-97,-68,-78,-78
14,-29,-43,7,29,-36,-29,-68,-87,-58,-78,-78
19,-29,-48,4,34,-39,-29,-68,-87,-58,-78,-78
24,-29,-53,2,39,-41,-29,-68,-87,-58,-78,-78
29,-29,-58,0,43,-43,-29,-68,-87,-58,-78,-78
19,-29,-48,4,34,-39,-29,-58,-97,-58,-68,-78
19,-29,-48,4,34,-39,-29,-58,-97,-58,-68,-78
19,-29,-48,4,34,-39,-29,-58,-97,-58,-68,-78
19,-29,-48,4,34,-39,-29,-58,-97,-58,-68,-78
9,-29,-39,9,24,-34,-29,-68,-97,-58,-68,-78
9,-29,-39,9,24,-34,-29,-68,-97,-58,-68,-78
9,-29,-39,9,24,-34,-29,-68,-97,-58,-68,-78
9,-29,-39,9,24,-34,-29,-68,-97,-58,-68,-78
9,-39,-48,14,29,-43,-29,-58,-92,-58,-78,-68
9,-39,-48,14,29,-43,-29,-58,-87,-58,-78,-68
9,-39,-48,14,29,-43,-29,-58,-82,-58,-78,-68
9,-39,-48,14,29,-43,-29,-58,-78,-58,-78,-68
9,-29,-39,9,24,-34,-29,-58,-87,-58,-78,-78
9,-29,-39,9,24,-34,-29,-58,-87,-58,-78,-78
9,-29,-39,9,24,-34,-29,-58,-87,-58,-78,-78
9,-29,-39,9,24,-34,-29,-58,-87,-58,-78,-78
19,-19,-39,0,29,-29,-29,-68,-87,-58,-87,-78
19,-19,-39,0,29,-29,-29,-68,-87,-58,-87,-78
19,-19,-39,0,29,-29,-29,-68,-87,-58,-87,-78
19,-19,-39,0,29,-29,-29,-68,-87,-58,-87,-78
19,-29,-48,4,34,-39,-29,-68,-87,-58,-87,-87
19,-29,-48,4,34,-39,-29,-68,-87,-58,-87,-87
19,-29,-48,4,34,-39,-29,-68,-87,-58,-87,-87
19,-29,-48,4,34,-39,-29,-68,-87,-58,-87,-87
19,-39,-58,9,39,-48,-29,-68,-78,-58,-82,-73
19,-39,-58,9,39,-48,-29,-68,-78,-58,-78,-68
19,-39,-58,9,39,-48,-29,-68,-78,-58,-73,-63
19,-39,-58,9,39,-48,-29,-68,-78,-58,-68,-58
9,-39,-48,14,29,-43,-29,-68,-78,-58,-68,-68
9,-39,-48,14,29,-43,-29,-68,-78,-58,-68,-68
9,-39,-48,14,29,-43,-29,-68,-78,-58,-68,-68
9,-39,-48,14,29,-43,-29,-68,-78,-58,-68,-68
9,-34,-43,12,26,-39,-19,-58,-78,-58,-68,-68
9,-29,-39,9,24,-34,-19,-58,-78,-58,-68,-68
9,-24,-34,7,21,-29,-19,-58,-78,-58,-68,-68
9,-19,-29,4,19,-24,-19,-58,-78,-58,-68,-68
9,-29,-39,9,24,-34,-29,-68,-87,-58,-78,-68
9,-29,-39,9,24,-34,-29,-68,-87,-58,-78,-68
9,-29,-39,9,24,-34,-29,-68,-87,-58,-78,-68
9,-29,-39,9,24,-34,-29,-68,-87,-58,-78,-68
0,-39,-39,19,19,-39,-29,-58,-78,-48,-78,-68
0,-39,-39,19,19,-39,-29,-58,-78,-48,-78,-68
0,-39,-39,19,19,-39,-29,-58,-78,-48,-78,-68
0,-39,-39,19,19,-39,-29,-58,-78,-48,-78,-68
9,-39,-48,14,29,-43,-19,-58,-78,-48,-68,-68
9,-39,-48,14,29,-43,-19,-58,-78,-48,-68,-68
9,-39,-48,14,29,-43,-19,-58,-78,-48,-68,-68
9,-39,-48,14,29,-43,-19,-58,-78,-48,-68,-68
19,-29,-48,4,34,-39,-29,-58,-87,-48,-78,-68
19,-29,-48,4,34,-39,-29,-58,-87,-48,-78,-68
19,-29,-48,4,34,-39,-29,-58,-87,-48,-78,-68
19,-29,-48,4,34,-39,-29,-58,-87,-48,-78,-68
19,-19,-39,0,29,-29,-29,-58,-78,-48,-73,-58
19,-19,-39,0,29,-29,-29,-58,-78,-48,-68,-58
19,-19,-39,0,29,-29,-29,-58,-78,-48,-63,-58
19,-19,-39,0,29,-29,-29,-58,-78,-48,-58,-58
9,-29,-39,9,24,-34,-29,-68,-87,-58,-63,-68
9,-29,-39,9,24,-34,-29,-68,-87,-58,-68,-68
9,-29,-39,9,24,-34,-29,-68,-87,-58,-73,-68
9,-29,-39,9,24,-34,-29,-68,-87,-58,-78,-68
19,-29,-48,4,34,-39,-29,-58,-78,-48,-78,-68
19,-29,-48,4,34,-39,-29,-58,-78,-48,-78,-68
19,-29,-48,4,34,-39,-29,-58,-78,-48,-78,-68
19,-29,-48,4,34,-39,-29,-58,-78,-48,-78,-68
9,-29,-39,9,24,-34,-29,-68,-78,-48,-78,-68
9,-29,-39,9,24,-34,-29,-68,-78,-48,-78,-68
9,-29,-39,9,24,-34,-29,-68,-78,-48,-78,-68
9,-29,-39,9,24,-34,-29,-68,-78,-48,-78,-68
9,-29,-39,9,24,-34,-29,-58,-68,-48,-68,-58
9,-29,-39,9,24,-34,-29,-58,-68,-48,-68,-58
9,-29,-39,9,24,-34,-29,-58,-68,-48,-68,-58
9,-29,-39,9,24,-34,-29,-58,-68,-48,-68,-58
9,-39,-48,14,29,-43,-24,-58,-68,-48,-58,-53
9,-39,-48,14,29,-43,-19,-58,-68,-48,-58,-48
9,-39,-48,14,29,-43,-14,-58,-68,-48,-58,-43
9,-39,-48,14,29,-43,-9,-58,-68,-48,-58,-39
9,-29,-39,9,24,-34,-14,-58,-78,-48,-68,-48
9,-29,-39,9,24,-34,-19,-58,-78,-48,-68,-48
9,-29,-39,9,24,-34,-24,-58,-78,-48,-68,-48
9,-29,-39,9,24,-34,-29,-58,-78,-48,-68,-48
19,-19,-39,0,29,-29,-19,-68,-78,-48,-78,-58
19,-19,-39,0,29,-29,-19,-68,-78,-48,-78,-58
19,-19,-39,0,29,-29,-19,-68,-78,-48,-78,-58
19,-19,-39,0,29,-29,-19,-68,-78,-48,-78,-58
9,-19,-29,4,19,-24,-19,-58,-78,-48,-78,-68
9,-19,-29,4,19,-24,-19,-58,-78,-48,-78,-68
9,-19,-29,4,19,-24,-19,-58,-78,-48,-78,-68
9,-19,-29,4,19,-24,-19,-58,-78,-48,-78,-68
19,-19,-39,0,29,-29,-19,-58,-78,-48,-78,-68
19,-19,-39,0,29,-29,-19,-58,-78,-48,-78,-68
19,-19,-39,0,29,-29,-19,-58,-78,-48,-78,-68
19,-19,-39,0,29,-29,-19,-58,-78,-48,-78,-68
19,-19,-39,0,29,-29,-19,-58,-78,-48,-78,-68
19,-19,-39,0,29,-29,-19,-58,-78,-48,-78,-68
19,-19,-39,0,29,-29,-19,-58,-78,-48,-78,-68
19,-19,-39,0,29,-29,-19,-58,-78,-48,-78,-68
9,-19,-29,4,19,-24,-9,-58,-78,-48,-78,-68
9,-19,-29,4,19,-24,-9,-58,-78,-48,-78,-68
9,-19,-29,4,19,-24,-9,-58,-78,-48,-78,-68
9,-19,-29,4,19,-24,-9,-58,-78,-48,-78,-68
9,-29,-39,9,24,-34,-14,-58,-78,-48,-78,-58
9,-29,-39,9,24,-34,-19,-58,-78,-48,-78,-58
9,-29,-39,9,24,-34,-24,-58,-78,-48,-78,-58
9,-29,-39,9,24,-34,-29,-58,-78,-48,-78,-58
19,-24,-43,2,31,-34,-29,-58,-68,-48,-68,-58
19,-19,-39,0,29,-29,-29,-58,-68,-48,-68,-58
19,-14,-34,-2,26,-24,-29,-58,-68,-48,-68,-58
19,-9,-29,-4,24,-19,-29,-58,-68,-48,-68,-58
29,-9,-39,-9,34,-24,-29,-58,-68,-48,-78,-58
29,-9,-39,-9,34,-24,-29,-58,-68,-48,-78,-58
29,-9,-39,-9,34,-24,-29,-58,-68,-48,-78,-58
29,-9,-39,-9,34,-24,-29,-58,-68,-48,-78,-58
19,0,-19,-9,19,-9,-29,-58,-78,-48,-68,-58
19,0,-19,-9,19,-9,-29,-58,-78,-48,-68,-58
19,0,-19,-9,19,-9,-29,-58,-78,-48,-68,-58
19,0,-19,-9,19,-9,-29,-58,-78,-48,-68,-58
19,0,-19,-9,19,-9,-24,-58,-68,-39,-58,-48
19,0,-19,-9,19,-9,-19,-58,-68,-39,-58,-48
19,0,-19,-9,19,-9,-14,-58,-68,-39,-58,-48
19,9,-9,-14,14,0,-9,-58,-58,-34,-58,-43
19,19,0,-19,9,9,-9,-53,-58,-34,-58,-39
19,19,0,-19,9,9,-9,-48,-53,-29,-53,-39
19,24,4,-21,7,14,-4,-43,-48,-19,-53,-34
19,39,19,-29,0,29,4,-43,-48,-19,-53,-34
19,48,29,-34,-4,39,4,-43,-48,-29,-63,-43
19,48,29,-34,-4,39,4,-34,-43,-29,-58,-43
9,43,34,-26,-12,39,14,-29,-43,-24,-58,-43
9,43,34,-26,-12,39,29,-29,-34,-24,-58,-43
19,53,34,-36,-7,43,39,-24,-29,-4,-48,-34
24,53,29,-39,-2,41,48,-19,-29,-4,-48,-34
24,63,39,-43,-7,51,53,-14,-24,4,-43,-29
29,73,43,-51,-7,58,58,-9,-19,4,-43,-24
43,97,53,-70,-4,75,68,0,-19,4,-39,-34
43,97,53,-70,-4,75,68,-4,-19,4,-39,-34
43,97,53,-70,-4,75,58,-19,-24,4,-34,-34
48,102,53,-75,-2,78,34,-34,-34,0,-34,-34
43,92,48,-68,-2,70,9,-48,-39,-4,-34,-29
43,92,48,-68,-2,70,-9,-63,-43,-9,-39,-29
43,92,48,-68,-2,70,-34,-78,-58,-14,-39,-24
43,92,48,-68,-2,70,-48,-87,-63,-19,-39,-24
48,92,43,-70,2,68,-68,-92,-53,-24,-39,-24
48,87,39,-68,4,63,-68,-92,-58,-24,-48,-34
48,78,29,-63,9,53,-73,-97,-63,-29,-53,-34
58,68,9,-63,24,39,-82,-102,-78,-43,-63,-34
58,68,9,-63,24,39,-92,-102,-87,-43,-63,-34
58,68,9,-63,24,39,-102,-112,-92,-48,-58,-34
58,68,9,-63,24,39,-117,-117,-102,-53,-58,-39
58,68,9,-63,24,39,-126,-122,-107,-58,-68,-43
58,58,0,-58,29,29,-136,-141,-112,-63,-68,-43
63,58,-4,-61,34,26,-136,-141,-112,-63,-68,-43
73,58,-14,-65,43,21,-131,-136,-107,-63,-68,-39
73,63,-9,-68,41,26,-131,-136,-107,-63,-68,-29
87,63,-24,-75,56,19,-131,-136,-117,-63,-68,-24
87,73,-14,-80,51,29,-131,-136,-117,-63,-63,-24
87,73,-14,-80,51,29,-122,-136,-117,-63,-63,-29
82,63,-19,-73,51,21,-117,-136,-122,-73,-73,-34
78,48,-29,-63,53,9,-102,-131,-122,-78,-82,-34
68,39,-29,-53,48,4,-97,-131,-122,-78,-78,-34
53,29,-24,-41,39,2,-92,-122,-122,-73,-78,-34
43,24,-19,-34,31,2,-87,-117,-122,-73,-82,-43
53,34,-19,-43,36,7,-78,-102,-107,-78,-73,-53
39,29,-9,-34,24,9,-73,-97,-97,-68,-63,-53
34,14,-19,-24,26,-2,-63,-97,-107,-78,-78,-63
34,14,-19,-24,26,-2,-58,-97,-117,-78,-78,-63
14,14,0,-14,7,7,-43,-87,-97,-68,-68,-58
9,14,4,-12,2,9,-43,-82,-87,-58,-68,-58
9,9,0,-9,4,4,-39,-78,-87,-58,-63,-58
9,0,-9,-4,9,-4,-34,-78,-87,-58,-63,-58
9,-19,-29,4,19,-24,-43,-78,-97,-78,-68,-63
9,-24,-34,7,21,-29,-43,-78,-97,-82,-82,-73
9,-39,-48,14,29,-43,-43,-78,-97,-87,-92,-78
9,-43,-53,17,31,-48,-43,-82,-107,-92,-102,-78
9,-43,-53,17,31,-48,-34,-82,-112,-82,-107,-82
9,-39,-48,14,29,-43,-34,-82,-112,-82,-112,-82
9,-39,-48,14,29,-43,-34,-82,-112,-82,-112,-82
9,-39,-48,14,29,-43,-34,-82,-112,-82,-107,-82
9,-34,-43,12,26,-39,-29,-78,-102,-82,-97,-82
9,-34,-43,12,26,-39,-29,-73,-97,-82,-97,-82
4,-34,-39,14,21,-36,-29,-73,-97,-78,-97,-82
4,-34,-39,14,21,-36,-29,-73,-97,-78,-97,-82
0,-43,-43,21,21,-43,-29,-73,-102,-78,-87,-73
0,-48,-48,24,24,-48,-29,-73,-102,-78,-92,-78
0,-53,-53,26,26,-53,-24,-73,-102,-78,-92,-78
0,-53,-53,26,26,-53,-19,-73,-102,-78,-92,-73
0,-48,-48,24,24,-48,-29,-73,-102,-87,-92,-78
0,-48,-48,24,24,-48,-29,-73,-102,-87,-97,-78
0,-48,-48,24,24,-48,-29,-73,-102,-87,-102,-82
0,-48,-48,24,24,-48,-29,-73,-102,-87,-107,-87
0,-39,-39,19,19,-39,-14,-63,-92,-82,-97,-82
0,-39,-39,19,19,-39,-14,-63,-87,-73,-92,-78
0,-39,-39,19,19,-39,-9,-63,-87,-68,-92,-73
0,-39,-39,19,19,-39,-9,-63,-87,-63,-87,-78
-4,-43,-39,24,17,-41,-4,-58,-82,-63,-82,-78
-9,-43,-34,26,12,-39,-4,-53,-82,-58,-82,-73
-9,-43,-34,26,12,-39,-4,-53,-82,-53,-82,-73
-14,-43,-29,29,7,-36,-4,-53,-82,-53,-82,-78
-4,-53,-48,29,21,-51,-4,-58,-82,-63,-87,-78
-4,-53,-48,29,21,-51,-4,-58,-82,-68,-87,-78
-9,-53,-43,31,17,-48,-4,-58,-82,-68,-87,-78
-24,-53,-29,39,2,-41,0,-58,-82,-63,-82,-78
-4,-34,-29,19,12,-31,0,-58,-82,-63,-82,-78
0,-34,-34,17,17,-34,0,-48,-73,-63,-73,-78
0,-53,-53,26,26,-53,9,-34,-58,-53,-82,-82
-24,-73,-48,48,12,-61,39,-9,-43,-39,-82,-92
-24,-78,-53,51,14,-65,73,43,-4,-19,-97,-117
-29,-92,-63,61,17,-78,117,131,68,14,-107,-156
-39,-107,-68,73,14,-87,175,214,156,48,-112,-185
-43,-131,-87,87,21,-109,224,278,214,87,-112,-209
-43,-151,-107,97,31,-129,239,317,258,122,-97,-219
-34,-151,-117,92,41,-134,239,331,283,175,-63,-175
0,-141,-141,70,70,-141,244,366,322,253,39,-107
34,-131,-165,48,100,-148,239,395,395,356,170,-24
58,-97,-156,19,107,-126,219,414,473,478,326,82
102,-19,-122,-41,112,-70,185,424,566,653,546,234
156,87,-68,-122,112,9,126,395,653,834,790,424
209,195,-14,-202,112,90,58,351,707,985,1029,629
268,317,48,-292,109,183,0,322,756,1122,1278,854
341,458,117,-400,112,287,-43,322,829,1263,1522,1102
400,546,146,-473,126,346,-78,341,897,1410,1742,1312
429,561,131,-495,148,346,-97,361,966,1498,1893,1444
483,561,78,-522,202,319,-122,375,990,1527,1995,1537
536,522,-14,-529,275,253,-122,400,1000,1498,2039,1566
546,458,-87,-502,317,185,-107,380,946,1424,1981,1527
502,414,-87,-458,295,163,-97,287,844,1346,1888,1483
458,375,-82,-417,270,146,-68,200,761,1293,1795,1410
400,307,-92,-353,246,107,-39,136,658,1190,1605,1278
341,214,-126,-278,234,43,0,58,463,951,1288,1068
258,156,-102,-207,180,26,63,-14,219,634,902,829
151,122,-29,-136,90,46,122,-92,-29,287,478,590
73,97,24,-85,24,61,117,-195,-297,-92,58,336
19,63,43,-41,-12,53,92,-331,-531,-405,-278,112
-53,24,78,14,-65,51,102,-370,-619,-512,-424,-48
-78,-9,68,43,-73,29,122,-361,-619,-502,-448,-146
-92,-29,63,61,-78,17,107,-375,-639,-541,-492,-214
-107,-58,48,82,-78,-4,29,-429,-683,-585,-531,-268
-117,-87,29,102,-73,-29,-48,-473,-707,-580,-531,-283
-117,-78,39,97,-78,-19,-117,-488,-697,-566,-507,-283
-117,-53,63,85,-90,4,-146,-478,-678,-566,-492,-268
-107,-39,68,73,-87,14,-146,-429,-634,-527,-448,-244
-97,-4,92,51,-95,43,-122,-356,-556,-478,-405,-214
-73,14,87,29,-80,51,-102,-248,-453,-414,-361,-190
-58,34,92,12,-75,63,-48,-146,-351,-346,-322,-170
-58,19,78,19,-68,48,0,-73,-278,-292,-283,-161
-24,19,43,2,-34,31,19,-34,-214,-224,-244,-141
-9,29,39,-9,-24,34,24,4,-161,-175,-209,-126
-29,19,48,4,-39,34,34,9,-136,-156,-190,-131
-29,14,43,7,-36,29,34,-4,-126,-141,-180,-122
-19,34,53,-7,-36,43,29,-29,-117,-122,-165,-117
-14,34,48,-9,-31,41,19,-39,-112,-122,-161,-117
-9,14,24,-2,-17,19,19,-24,-102,-117,-161,-107
-4,0,4,2,-4,2,34,-9,-82,-107,-156,-97
-4,-4,0,4,-2,-2,39,-9,-68,-102,-156,-117
-9,-24,-14,17,2,-19,29,0,-73,-97,-156,-126
-9,-29,-19,19,4,-24,39,4,-68,-92,-146,-126
-9,-34,-24,21,7,-29,39,4,-58,-78,-141,-126
-9,-34,-24,21,7,-29,39,9,-53,-68,-126,-126
-14,-39,-24,26,4,-31,48,14,-34,-63,-117,-117
-14,-43,-29,29,7,-36,43,19,-24,-58,-112,-107
-14,-43,-29,29,7,-36,43,24,-24,-53,-112,-102
-14,-48,-34,31,9,-41,43,34,-19,-53,-112,-97
-9,-43,-34,26,12,-39,39,24,-29,-53,-107,-102
0,-39,-39,19,19,-39,39,24,-29,-53,-107,-102
4,-34,-39,14,21,-36,43,29,-19,-43,-102,-107
9,-39,-48,14,29,-43,43,29,-19,-43,-97,-107
4,-39,-43,17,24,-41,53,34,-14,-34,-102,-97
0,-34,-34,17,17,-34,53,34,-9,-34,-92,-87
0,-34,-34,17,17,-34,48,34,-9,-34,-92,-87
0,-34,-34,17,17,-34,48,34,-9,-34,-92,-87
9,-34,-43,12,26,-39,39,29,-4,-34,-87,-87
19,-34,-53,7,36,-43,43,29,-4,-34,-87,-92
9,-39,-48,14,29,-43,48,29,-4,-34,-82,-92
9,-39,-48,14,29,-43,48,29,0,-29,-82,-82
4,-39,-43,17,24,-41,58,29,0,-29,-92,-92
4,-43,-48,19,26,-46,58,34,0,-24,-87,-92
0,-43,-43,21,21,-43,58,34,9,-19,-82,-87
0,-43,-43,21,21,-43,58,29,14,-19,-82,-87
0,-43,-43,21,21,-43,68,39,4,-14,-87,-87
0,-43,-43,21,21,-43,63,39,4,-14,-87,-87
0,-43,-43,21,21,-43,63,39,4,-14,-87,-87
0,-43,-43,21,21,-43,68,43,4,-9,-87,-87
-9,-39,-29,24,9,-34,63,39,24,-19,-78,-82
-4,-39,-34,21,14,-36,63,39,24,-14,-78,-82
-4,-43,-39,24,17,-41,63,39,19,-9,-73,-82
-4,-43,-39,24,17,-41,63,43,19,-9,-73,-87
4,-43,-48,19,26,-46,53,43,24,-9,-82,-87
4,-39,-43,17,24,-41,53,43,24,-9,-82,-87
4,-34,-39,14,21,-36,53,43,29,-9,-82,-82
9,-34,-43,12,26,-39,53,43,29,-4,-78,-82
19,-34,-53,7,36,-43,58,43,29,-4,-73,-73
14,-34,-48,9,31,-41,58,43,29,-4,-73,-73
14,-29,-43,7,29,-36,58,43,29,-4,-73,-73
14,-29,-43,7,29,-36,58,43,29,-4,-78,-73
14,-19,-34,2,24,-26,58,48,29,-4,-78,-87
14,-24,-39,4,26,-31,58,53,34,4,-78,-87
4,-34,-39,14,21,-36,58,53,39,4,-73,-87
4,-34,-39,14,21,-36,58,53,39,-4,-73,-82
4,-24,-29,9,17,-26,53,53,48,4,-68,-73
4,-24,-29,9,17,-26,53,53,48,4,-68,-68
9,-19,-29,4,19,-24,53,53,53,0,-68,-63
9,-19,-29,4,19,-24,53,58,53,0,-63,-63
19,-19,-39,0,29,-29,53,68,53,9,-63,-73
19,-9,-29,-4,24,-19,48,68,53,9,-58,-68
19,-9,-29,-4,24,-19,48,68,63,9,-53,-68
19,-9,-29,-4,24,-19,48,68,63,14,-53,-68
14,-9,-24,-2,19,-17,43,73,63,14,-43,-68
14,-14,-29,0,21,-21,43,78,63,14,-43,-68
9,-14,-24,2,17,-19,43,78,73,19,-43,-68
4,-14,-19,4,12,-17,48,78,73,19,-43,-68
4,-19,-24,7,14,-21,48,73,63,14,-43,-68
4,-19,-24,7,14,-21,48,73,63,19,-39,-63
14,-14,-29,0,21,-21,48,82,73,24,-39,-58
24,-9,-34,-7,29,-21,48,82,73,24,-34,-58
24,-19,-43,-2,34,-31,58,82,73,24,-43,-58
24,-14,-39,-4,31,-26,58,82,82,24,-34,-53
24,-9,-34,-7,29,-21,58,82,82,34,-34,-53
24,-9,-34,-7,29,-21,58,82,82,34,-34,-53
19,0,-19,-9,19,-9,58,87,82,24,-34,-63
14,0,-14,-7,14,-7,63,92,87,34,-34,-58
14,-4,-19,-4,17,-12,63,92,92,34,-24,-58
9,-4,-14,-2,12,-9,58,92,92,34,-19,-58
19,-9,-29,-4,24,-19,53,92,97,43,-19,-48
24,-9,-34,-7,29,-21,53,97,102,43,-14,-48
24,0,-24,-12,24,-12,58,97,107,53,-14,-43
19,0,-19,-9,19,-9,58,97,112,58,-14,-43
19,-9,-29,-4,24,-19,53,107,122,63,-4,-39
24,-4,-29,-9,26,-17,53,107,122,63,-4,-39
24,-4,-29,-9,26,-17,58,107,122,68,-4,-29
24,-4,-29,-9,26,-17,58,107,131,68,4,-29
19,-4,-24,-7,21,-14,48,117,126,82,4,-29
24,0,-24,-12,24,-12,48,117,131,87,4,-29
29,0,-29,-14,29,-14,48,117,131,87,9,-24
29,9,-19,-19,24,-4,48,126,136,87,9,-24
19,9,-9,-14,14,0,58,141,146,87,19,-9
19,9,-9,-14,14,0,58,141,151,97,24,0
19,9,-9,-14,14,0,58,141,156,102,24,0
14,9,-4,-12,9,2,63,146,161,102,34,-4
14,9,-4,-12,9,2,53,136,156,112,24,-14
19,9,-9,-14,14,0,48,136,161,112,29,-14
19,14,-4,-17,12,4,48,136,165,117,39,-14
24,14,-9,-19,17,2,48,146,170,122,43,-4
34,29,-4,-31,19,12,58,151,180,122,53,4
34,29,-4,-31,19,12,48,156,185,126,58,9
34,29,-4,-31,19,12,58,161,195,131,63,9
43,39,-4,-41,24,17,58,165,204,141,68,19
43,29,-14,-36,29,7,48,156,209,146,73,29
39,29,-9,-34,24,9,48,165,214,151,82,29
39,34,-4,-36,21,14,48,170,224,151,87,29
43,48,4,-46,19,26,48,175,234,161,87,34
53,48,-4,-51,29,21,48,180,224,165,87,24
63,48,-14,-56,39,17,48,185,229,170,102,34
68,58,-9,-63,39,24,48,195,244,185,107,39
68,68,0,-68,34,34,48,204,248,195,107,43
63,63,0,-63,31,31,39,204,258,195,107,43
63,63,0,-63,31,31,39,209,268,204,112,48
63,68,4,-65,29,36,43,219,278,204,126,53
68,73,4,-70,31,39,43,224,283,200,136,58
82,78,-4,-80,43,36,53,234,297,214,146,78
82,87,4,-85,39,46,48,239,307,234,156,92
82,87,4,-85,39,46,48,253,322,253,170,97
82,92,9,-87,36,51,48,263,336,263,185,107
87,97,9,-92,39,53,48,268,356,263,180,117
87,102,14,-95,36,58,53,273,366,278,195,122
87,102,14,-95,36,58,53,283,375,287,195,126
92,107,14,-100,39,61,53,292,385,292,204,131
107,102,-4,-104,56,48,53,312,395,312,214,146
112,117,4,-114,53,61,53,322,409,322,229,151
112,122,9,-117,51,65,48,331,429,331,248,161
112,126,14,-119,48,70,48,341,439,351,273,175
126,141,14,-134,56,78,48,341,453,361,287,185
126,151,24,-139,51,87,48,356,458,375,302,195
126,156,29,-141,48,92,48,361,478,395,312,204
136,165,29,-151,53,97,48,370,492,409,331,214
141,180,39,-161,51,109,48,385,507,424,341,224
146,180,34,-163,56,107,48,395,517,439,356,234
146,185,39,-165,53,112,48,405,536,458,370,258
161,204,43,-183,58,124,48,414,556,473,395,273
161,200,39,-180,61,119,58,429,585,492,414,292
165,204,39,-185,63,122,58,444,605,517,434,307
180,219,39,-200,70,129,58,458,614,531,458,322
180,224,43,-202,68,134,58,468,624,551,478,336
185,234,48,-209,68,141,43,473,644,561,492,346
190,244,53,-217,68,148,43,488,658,575,502,356
200,258,58,-229,70,158,43,497,673,590,522,375
214,273,58,-244,78,165,43,507,688,605,541,390
219,273,53,-246,82,163,34,522,717,629,566,414
224,278,53,-251,85,165,29,531,722,639,580,419
239,283,43,-261,97,163,29,536,732,653,595,429
239,297,58,-268,90,178,24,536,736,663,610,439
248,317,68,-283,90,192,29,541,756,673,629,458
253,317,63,-285,95,190,39,551,766,697,639,473
258,331,73,-295,92,202,43,566,775,712,663,483
268,341,73,-305,97,207,48,575,795,736,683,502
278,341,63,-309,107,202,39,566,800,736,683,507
278,346,68,-312,104,207,39,566,800,741,688,517
283,351,68,-317,107,209,34,566,795,741,697,527
283,356,73,-319,104,214,34,566,785,736,707,527
287,351,63,-319,112,207,43,561,771,727,692,522
283,361,78,-322,102,219,43,551,766,717,702,527
278,361,82,-319,97,222,39,541,761,707,697,531
273,361,87,-317,92,224,39,522,751,707,697,536
268,366,97,-317,85,231,39,507,746,702,692,541
253,370,117,-312,68,244,39,497,732,697,697,541
248,380,131,-314,58,256,39,488,722,692,697,536
244,390,146,-317,48,268,39,478,712,683,707,531
239,400,161,-319,39,280,34,468,702,683,702,522
239,390,151,-314,43,270,39,453,688,673,688,512
229,380,151,-305,39,265,39,444,673,663,678,502
229,375,146,-302,41,261,43,434,658,663,663,502
239,380,141,-309,48,261,58,424,653,653,658,488
234,380,146,-307,43,263,63,414,634,639,653,488
234,380,146,-307,43,263,68,400,619,619,644,483
234,380,146,-307,43,263,73,390,600,605,629,468
209,366,156,-287,26,261,82,370,570,595,610,458
204,351,146,-278,29,248,78,356,551,575,590,439
195,341,146,-268,24,244,78,336,531,551,570,424
185,326,141,-256,21,234,68,317,502,531,551,400
170,322,151,-246,9,236,43,273,488,512,541,390
170,317,146,-244,12,231,29,244,463,502,522,380
165,307,141,-236,12,224,0,219,439,483,502,356
165,297,131,-231,17,214,-24,200,419,458,483,346
161,287,126,-224,17,207,-29,185,395,434,468,326
161,273,112,-217,24,192,-29,165,370,405,434,307
161,263,102,-212,29,183,-34,151,341,385,409,287
161,268,107,-214,26,187,-48,126,322,361,385,258
146,248,102,-197,21,175,-39,126,307,336,366,234
141,239,97,-190,21,168,-34,122,287,326,336,224
126,219,92,-173,17,156,-34,112,268,297,317,204
122,209,87,-165,17,148,-34,97,248,268,292,190
112,200,87,-156,12,143,-39,92,229,253,263,180
102,185,82,-143,9,134,-39,82,209,234,239,161
102,165,63,-134,19,114,-39,63,190,214,219,141
82,146,63,-114,9,104,-39,53,170,195,195,122
82,151,68,-117,7,109,-29,43,146,165,175,107
82,146,63,-114,9,104,-29,34,136,141,170,87
73,136,63,-104,4,100,-29,29,122,136,156,78
68,126,58,-97,4,92,-24,19,107,126,136,53
53,112,58,-82,-2,85,-24,4,102,117,122,53
53,107,53,-80,0,80,-29,0,92,97,107,48
39,92,53,-65,-7,73,-29,-4,78,78,92,29
34,82,48,-58,-7,65,-29,-14,63,68,73,24
43,78,34,-61,4,56,-24,-4,48,53,68,14
43,78,34,-61,4,56,-24,-14,39,53,53,4
34,73,39,-53,-2,56,-29,-24,29,43,48,-4
34,68,34,-51,0,51,-29,-29,24,34,39,-14
34,73,39,-53,-2,56,-29,-29,14,29,34,-19
34,68,34,-51,0,51,-29,-29,9,19,34,-24
24,63,39,-43,-7,51,-29,-29,9,9,19,-29
24,58,34,-41,-4,46,-34,-29,4,0,4,-34
24,43,19,-34,2,31,-34,-29,-9,-9,-9,-29
24,43,19,-34,2,31,-29,-34,-19,-14,-9,-34
14,43,29,-29,-7,36,-29,-39,-24,-19,-9,-34
9,39,29,-24,-9,34,-24,-48,-29,-24,-14,-39
9,34,24,-21,-7,29,-24,-39,-19,-24,-14,-39
4,34,29,-19,-12,31,-24,-39,-19,-24,-14,-43
4,34,29,-19,-12,31,-24,-34,-19,-29,-19,-48
4,29,24,-17,-9,26,-24,-34,-19,-29,-19,-48
14,29,14,-21,0,21,-24,-34,-34,-34,-29,-48
14,29,14,-21,0,21,-24,-43,-34,-39,-39,-58
14,29,14,-21,0,21,-24,-43,-39,-43,-43,-58
14,24,9,-19,2,17,-24,-39,-39,-43,-48,-58
4,24,19,-14,-7,21,-14,-39,-43,-53,-39,-58
4,24,19,-14,-7,21,-14,-39,-43,-53,-39,-58
-4,19,24,-7,-14,21,-14,-39,-43,-58,-43,-63
-9,9,19,0,-14,14,-14,-39,-43,-58,-43,-63
0,19,19,-9,-9,19,-19,-39,-34,-48,-43,-63
9,29,19,-19,-4,24,-19,-43,-39,-48,-48,-63
14,29,14,-21,0,21,-19,-43,-39,-53,-48,-63
14,29,14,-21,0,21,-19,-43,-39,-53,-48,-63
14,39,24,-26,-4,31,-19,-43,-48,-53,-48,-63
14,39,24,-26,-4,31,-19,-43,-48,-53,-48,-58
14,39,24,-26,-4,31,-19,-39,-48,-53,-48,-58
9,34,24,-21,-7,29,-19,-39,-48,-48,-43,-63
4,34,29,-19,-12,31,-19,-48,-48,-39,-43,-53
4,24,19,-14,-7,21,-19,-48,-48,-43,-43,-58
14,34,19,-24,-2,26,-19,-48,-48,-43,-43,-58
14,39,24,-26,-4,31,-19,-48,-48,-43,-43,-58
9,29,19,-19,-4,24,-19,-39,-58,-53,-43,-68
9,29,19,-19,-4,24,-14,-39,-58,-53,-43,-68
9,29,19,-19,-4,24,-14,-39,-53,-53,-43,-68
4,29,24,-17,-9,26,-14,-39,-53,-53,-43,-68
4,39,34,-21,-14,36,-9,-39,-43,-43,-34,-58
9,39,29,-24,-9,34,-9,-34,-43,-43,-34,-58
14,39,24,-26,-4,31,-9,-34,-43,-39,-34,-58
14,34,19,-24,-2,26,-4,-34,-43,-39,-34,-53
9,34,24,-21,-7,29,-14,-43,-53,-48,-43,-63
9,39,29,-24,-9,34,-14,-43,-53,-48,-43,-58
9,39,29,-24,-9,34,-14,-43,-53,-48,-43,-58
14,39,24,-26,-4,31,-14,-43,-53,-48,-39,-58
14,29,14,-21,0,21,-14,-34,-39,-43,-39,-58
14,29,14,-21,0,21,-14,-29,-39,-43,-39,-58
4,29,24,-17,-9,26,-14,-29,-39,-43,-39,-63
4,29,24,-17,-9,26,-14,-29,-39,-39,-34,-63
14,39,24,-26,-4,31,-14,-39,-39,-29,-29,-53
19,43,24,-31,-2,34,-19,-39,-39,-34,-29,-53
19,43,24,-31,-2,34,-19,-39,-39,-34,-29,-53
19,34,14,-26,2,24,-19,-43,-39,-34,-29,-53
9,34,24,-21,-7,29,-9,-34,-39,-29,-29,-53
9,39,29,-24,-9,34,-9,-29,-39,-29,-24,-48
14,39,24,-26,-4,31,-9,-29,-34,-29,-24,-48
14,39,24,-26,-4,31,-9,-29,-34,-29,-24,-48
24,39,14,-31,4,26,-19,-29,-34,-34,-14,-39
19,39,19,-29,0,29,-14,-29,-34,-34,-14,-34
19,34,14,-26,2,24,-14,-29,-34,-34,-19,-34
19,34,14,-26,2,24,-14,-39,-34,-34,-19,-34
34,43,9,-39,12,26,-4,-19,-24,-24,-19,-34
34,43,9,-39,12,26,-4,-19,-24,-19,-9,-34
24,43,19,-34,2,31,-4,-19,-24,-19,-9,-34
24,39,14,-31,4,26,-4,-19,-29,-24,-14,-34
14,29,14,-21,0,21,-4,-29,-29,-39,-24,-43
14,29,14,-21,0,21,-4,-29,-29,-39,-24,-53
19,34,14,-26,2,24,-9,-29,-29,-34,-24,-43
19,34,14,-26,2,24,-9,-29,-34,-34,-24,-43
24,34,9,-29,7,21,-9,-29,-43,-34,-19,-43
24,29,4,-26,9,17,-9,-29,-39,-34,-19,-39
29,29,0,-29,14,14,-9,-29,-39,-34,-19,-39
29,24,-4,-26,17,9,-9,-29,-39,-34,-19,-39
19,24,4,-21,7,14,-9,-29,-39,-39,-19,-39
19,29,9,-24,4,19,-9,-34,-39,-39,-19,-39
19,34,14,-26,2,24,-4,-34,-39,-39,-24,-39
19,34,14,-26,2,24,-4,-34,-39,-39,-24,-39
24,34,9,-29,7,21,-4,-34,-43,-39,-24,-39
24,24,0,-24,12,12,-4,-34,-48,-43,-24,-43
29,34,4,-31,12,19,-9,-39,-48,-43,-24,-48
34,34,0,-34,17,17,-9,-39,-48,-43,-24,-48
24,24,0,-24,12,12,9,-34,-39,-43,-24,-48
14,19,4,-17,4,12,-4,-34,-43,-43,-29,-53
14,9,-4,-12,9,2,-4,-39,-48,-53,-39,-53
19,19,0,-19,9,9,0,-39,-48,-53,-39,-53
29,29,0,-29,14,14,-4,-29,-43,-53,-39,-53
29,24,-4,-26,17,9,-4,-34,-43,-53,-34,-48
29,24,-4,-26,17,9,-4,-34,-48,-53,-34,-48
29,24,-4,-26,17,9,-4,-34,-48,-58,-34,-48
29,14,-14,-21,21,0,0,-34,-48,-58,-39,-53
24,14,-9,-19,17,2,0,-34,-48,-63,-43,-53
24,14,-9,-19,17,2,0,-34,-53,-63,-43,-53
24,14,-9,-19,17,2,-4,-34,-53,-63,-43,-53
24,14,-9,-19,17,2,-4,-43,-53,-58,-34,-53
24,14,-9,-19,17,2,0,-43,-53,-58,-39,-53
24,14,-9,-19,17,2,0,-48,-58,-63,-39,-53
24,9,-14,-17,19,-2,0,-48,-58,-73,-39,-53
24,19,-4,-21,14,7,9,-39,-48,-63,-29,-53
24,19,-4,-21,14,7,9,-39,-48,-58,-29,-53
24,19,-4,-21,14,7,9,-39,-48,-58,-29,-53
24,19,-4,-21,14,7,4,-39,-48,-63,-29,-58
24,9,-14,-17,19,-2,4,-48,-53,-63,-39,-58
19,9,-9,-14,14,0,4,-48,-53,-63,-39,-58
19,9,-9,-14,14,0,9,-48,-53,-63,-43,-58
19,9,-9,-14,14,0,9,-48,-53,-68,-43,-58
19,9,-9,-14,14,0,-4,-39,-53,-58,-34,-53
24,9,-14,-17,19,-2,-4,-39,-58,-58,-39,-53
24,9,-14,-17,19,-2,-4,-39,-58,-58,-39,-53
24,14,-9,-19,17,2,-4,-39,-58,-58,-39,-53
24,14,-9,-19,17,2,4,-43,-68,-63,-48,-53
19,14,-4,-17,12,4,4,-43,-73,-63,-48,-53
19,4,-14,-12,17,-4,4,-43,-73,-63,-48,-53
19,4,-14,-12,17,-4,9,-43,-73,-63,-48,-53
19,4,-14,-12,17,-4,9,-53,-63,-63,-39,-63
19,0,-19,-9,19,-9,4,-53,-63,-63,-39,-63
19,0,-19,-9,19,-9,4,-53,-63,-63,-39,-63
14,4,-9,-9,12,-2,4,-53,-63,-63,-39,-63
24,14,-9,-19,17,2,9,-43,-63,-73,-29,-63
19,14,-4,-17,12,4,9,-43,-63,-73,-29,-63
19,14,-4,-17,12,4,9,-43,-63,-73,-34,-63
19,14,-4,-17,12,4,9,-43,-63,-73,-34,-63
19,14,-4,-17,12,4,9,-43,-63,-63,-34,-43
19,14,-4,-17,12,4,9,-43,-63,-63,-34,-53
29,9,-19,-19,24,-4,9,-43,-63,-63,-34,-58
29,9,-19,-19,24,-4,9,-43,-63,-68,-34,-58
19,9,-9,-14,14,0,0,-43,-63,-68,-43,-58
19,9,-9,-14,14,0,0,-43,-63,-68,-48,-58
29,9,-19,-19,24,-4,0,-43,-63,-73,-48,-58
29,9,-19,-19,24,-4,0,-43,-68,-73,-43,-58
29,9,-19,-19,24,-4,9,-43,-73,-68,-43,-58
29,9,-19,-19,24,-4,9,-43,-73,-68,-43,-58
24,9,-14,-17,19,-2,4,-43,-68,-68,-43,-58
19,9,-9,-14,14,0,4,-43,-63,-68,-43,-58
39,24,-14,-31,26,4,4,-43,-63,-68,-43,-58
39,14,-24,-26,31,-4,4,-43,-63,-78,-43,-58
29,14,-14,-21,21,0,9,-43,-63,-78,-43,-53
39,24,-14,-31,26,4,9,-39,-63,-68,-43,-53
39,9,-29,-24,34,-9,9,-39,-58,-68,-39,-48
39,0,-39,-19,39,-19,0,-48,-68,-78,-39,-58
39,0,-39,-19,39,-19,0,-48,-68,-78,-39,-58
39,0,-39,-19,39,-19,0,-48,-68,-78,-39,-58
39,0,-39,-19,39,-19,0,-48,-68,-78,-39,-58
39,9,-29,-24,34,-9,9,-48,-68,-78,-48,-58
39,9,-29,-24,34,-9,9,-48,-68,-78,-48,-58
39,9,-29,-24,34,-9,9,-48,-68,-78,-48,-58
39,9,-29,-24,34,-9,9,-48,-68,-78,-48,-58
39,9,-29,-24,34,-9,0,-48,-78,-78,-48,-68
39,9,-29,-24,34,-9,0,-48,-78,-78,-48,-68
39,9,-29,-24,34,-9,0,-48,-78,-78,-48,-68
39,9,-29,-24,34,-9,0,-48,-78,-78,-48,-68
29,9,-19,-19,24,-4,0,-48,-68,-78,-48,-58
29,9,-19,-19,24,-4,0,-48,-68,-78,-48,-58
29,9,-19,-19,24,-4,0,-48,-68,-78,-48,-58
29,9,-19,-19,24,-4,0,-48,-68,-78,-48,-58
39,9,-29,-24,34,-9,0,-48,-78,-78,-48,-58
39,9,-29,-24,34,-9,0,-48,-78,-78,-48,-58
39,9,-29,-24,34,-9,0,-48,-78,-78,-48,-58
39,9,-29,-24,34,-9,0,-48,-78,-78,-48,-58
29,9,-19,-19,24,-4,0,-58,-78,-78,-48,-58
29,9,-19,-19,24,-4,0,-58,-78,-78,-48,-58
29,9,-19,-19,24,-4,0,-58,-78,-78,-48,-58
29,9,-19,-19,24,-4,0,-58,-78,-78,-48,-58
29,0,-29,-14,29,-14,0,-58,-78,-78,-48,-58
29,0,-29,-14,29,-14,0,-58,-78,-78,-48,-58
29,0,-29,-14,29,-14,0,-58,-78,-78,-48,-58
29,0,-29,-14,29,-14,0,-58,-78,-78,-48,-58
19,0,-19,-9,19,-9,0,-58,-78,-78,-58,-58
19,0,-19,-9,19,-9,0,-58,-78,-78,-58,-58
19,0,-19,-9,19,-9,0,-58,-78,-78,-58,-58
19,0,-19,-9,19,-9,0,-58,-78,-78,-58,-58
24,9,-14,-17,19,-2,0,-58,-78,-78,-48,-48
29,9,-19,-19,24,-4,0,-58,-78,-78,-48,-48
34,9,-24,-21,29,-7,0,-58,-78,-78,-48,-48
39,9,-29,-24,34,-9,0,-58,-78,-78,-48,-48
39,9,-29,-24,34,-9,0,-58,-78,-78,-58,-58
39,9,-29,-24,34,-9,0,-58,-78,-78,-58,-58
39,9,-29,-24,34,-9,0,-58,-78,-78,-58,-58
39,9,-29,-24,34,-9,0,-58,-78,-78,-58,-58
29,0,-29,-14,29,-14,0,-58,-87,-78,-58,-58
29,0,-29,-14,29,-14,0,-58,-87,-78,-58,-58
29,0,-29,-14,29,-14,0,-58,-87,-78,-58,-58
29,0,-29,-14,29,-14,0,-58,-87,-78,-58,-58
39,9,-29,-24,34,-9,-9,-58,-78,-78,-58,-58
39,9,-29,-24,34,-9,-9,-58,-78,-78,-58,-58
39,9,-29,-24,34,-9,-9,-58,-78,-78,-58,-58
39,9,-29,-24,34,-9,-9,-58,-78,-78,-58,-58
29,0,-29,-14,29,-14,-9,-58,-78,-78,-58,-58
29,0,-29,-14,29,-14,-9,-58,-78,-78,-58,-58
29,0,-29,-14,29,-14,-9,-58,-78,-78,-58,-58
29,0,-29,-14,29,-14,-9,-58,-78,-78,-58,-58
29,0,-29,-14,29,-14,0,-58,-78,-78,-48,-58
29,0,-29,-14,29,-14,0,-58,-78,-78,-48,-58
29,0,-29,-14,29,-14,0,-58,-78,-78,-48,-58
29,0,-29,-14,29,-14,0,-58,-78,-78,-48,-58
39,9,-29,-24,34,-9,-9,-58,-78,-78,-58,-58
39,9,-29,-24,34,-9,-9,-58,-78,-78,-58,-58
39,9,-29,-24,34,-9,-9,-58,-78,-78,-58,-58
39,9,-29,-24,34,-9,-9,-58,-78,-78,-58,-58
48,0,-48,-24,48,-24,-9,-58,-78,-87,-58,-58
48,0,-48,-24,48,-24,-9,-58,-78,-87,-58,-58
48,0,-48,-24,48,-24,-9,-58,-78,-87,-58,-58
48,0,-48,-24,48,-24,-9,-58,-78,-87,-58,-58
43,0,-43,-21,43,-21,0,-58,-78,-87,-58,-58
39,0,-39,-19,39,-19,0,-58,-78,-87,-58,-58
34,0,-34,-17,34,-17,0,-58,-78,-87,-58,-58
29,0,-29,-14,29,-14,0,-58,-78,-87,-58,-58
39,9,-29,-24,34,-9,-9,-58,-68,-78,-58,-58
39,9,-29,-24,34,-9,-9,-58,-68,-78,-58,-58
39,9,-29,-24,34,-9,-9,-58,-68,-78,-58,-58
39,9,-29,-24,34,-9,-9,-58,-68,-78,-58,-58
39,0,-39,-19,39,-19,-9,-58,-68,-78,-58,-48
39,0,-39,-19,39,-19,-9,-58,-68,-78,-58,-48
39,0,-39,-19,39,-19,-9,-58,-68,-78,-58,-48
39,0,-39,-19,39,-19,-9,-58,-68,-78,-58,-48
29,0,-29,-14,29,-14,-9,-58,-73,-87,-58,-48
29,0,-29,-14,29,-14,-9,-58,-78,-87,-58,-48
29,0,-29,-14,29,-14,-9,-58,-82,-87,-58,-48
29,0,-29,-14,29,-14,-9,-58,-87,-87,-58,-48
19,0,-19,-9,19,-9,0,-58,-78,-78,-58,-58
19,0,-19,-9,19,-9,0,-58,-78,-78,-58,-58
19,0,-19,-9,19,-9,0,-58,-78,-78,-58,-58
19,0,-19,-9,19,-9,0,-58,-78,-78,-58,-58
24,0,-24,-12,24,-12,-9,-58,-78,-68,-58,-58
29,0,-29,-14,29,-14,-9,-58,-78,-68,-58,-58
34,0,-34,-17,34,-17,-9,-58,-78,-68,-58,-58
39,0,-39,-19,39,-19,-9,-58,-78,-68,-58,-58
39,9,-29,-24,34,-9,0,-58,-78,-78,-48,-48
39,9,-29,-24,34,-9,0,-58,-78,-78,-48,-48
39,9,-29,-24,34,-9,0,-58,-78,-78,-48,-48
39,9,-29,-24,34,-9,0,-58,-78,-78,-48,-48
29,9,-19,-19,24,-4,0,-58,-78,-78,-48,-58
29,9,-19,-19,24,-4,0,-58,-78,-78,-48,-58
29,9,-19,-19,24,-4,0,-58,-78,-78,-48,-58
29,9,-19,-19,24,-4,0,-58,-78,-78,-48,-58
39,0,-39,-19,39,-19,0,-58,-78,-78,-58,-58
39,0,-39,-19,39,-19,0,-58,-78,-78,-58,-58
39,0,-39,-19,39,-19,0,-58,-78,-78,-58,-58
39,0,-39,-19,39,-19,0,-58,-78,-78,-58,-58
29,9,-19,-19,24,-4,0,-58,-78,-78,-48,-48
29,9,-19,-19,24,-4,0,-58,-78,-78,-48,-48
29,9,-19,-19,24,-4,0,-58,-78,-78,-48,-48
29,9,-19,-19,24,-4,0,-58,-78,-78,-48,-48
39,9,-29,-24,34,-9,0,-58,-68,-68,-48,-48
39,9,-29,-24,34,-9,0,-58,-68,-68,-48,-48
39,9,-29,-24,34,-9,0,-58,-68,-68,-48,-48
39,9,-29,-24,34,-9,0,-58,-68,-68,-48,-48
34,9,-24,-21,29,-7,-9,-58,-78,-78,-58,-48
29,9,-19,-19,24,-4,-9,-58,-78,-78,-58,-48
24,9,-14,-17,19,-2,-9,-58,-78,-78,-58,-48
19,9,-9,-14,14,0,-9,-58,-78,-78,-58,-48
29,9,-19,-19,24,-4,0,-58,-78,-68,-48,-48
29,9,-19,-19,24,-4,0,-58,-78,-68,-48,-48
29,9,-19,-19,24,-4,0,-58,-78,-68,-48,-48
29,9,-19,-19,24,-4,0,-58,-78,-68,-48,-48
29,9,-19,-19,24,-4,9,-48,-68,-58,-48,-39
29,9,-19,-19,24,-4,9,-48,-68,-58,-48,-39
29,9,-19,-19,24,-4,9,-48,-68,-58,-48,-39
29,9,-19,-19,24,-4,9,-48,-68,-58,-48,-39
29,0,-29,-14,29,-14,4,-58,-68,-68,-48,-48
29,0,-29,-14,29,-14,0,-58,-68,-68,-48,-48
29,0,-29,-14,29,-14,-4,-58,-68,-68,-48,-48
29,0,-29,-14,29,-14,-9,-58,-68,-68,-48,-48
29,9,-19,-19,24,-4,0,-48,-78,-68,-58,-48
29,9,-19,-19,24,-4,0,-48,-78,-68,-58,-48
29,9,-19,-19,24,-4,0,-48,-78,-68,-58,-48
29,9,-19,-19,24,-4,0,-48,-78,-68,-58,-48
39,9,-29,-24,34,-9,0,-48,-68,-78,-48,-48
39,9,-29,-24,34,-9,0,-48,-68,-78,-48,-48
39,9,-29,-24,34,-9,0,-48,-68,-78,-48,-48
39,9,-29,-24,34,-9,0,-48,-68,-78,-48,-48
29,9,-19,-19,24,-4,0,-58,-68,-68,-48,-48
29,9,-19,-19,24,-4,0,-58,-68,-68,-48,-48
29,9,-19,-19,24,-4,0,-58,-68,-68,-48,-48
29,9,-19,-19,24,-4,0,-58,-68,-68,-48,-48
29,0,-29,-14,29,-14,0,-58,-68,-78,-48,-39
29,0,-29,-14,29,-14,0,-58,-68,-78,-48,-39
29,0,-29,-14,29,-14,0,-58,-68,-78,-48,-39
29,0,-29,-14,29,-14,0,-58,-68,-78,-48,-39
29,9,-19,-19,24,-4,0,-58,-68,-68,-48,-39
29,9,-19,-19,24,-4,0,-58,-68,-68,-48,-39
29,9,-19,-19,24,-4,0,-58,-68,-68,-48,-39
29,9,-19,-19,24,-4,0,-58,-68,-68,-48,-39
29,9,-19,-19,24,-4,0,-48,-68,-68,-48,-39
29,9,-19,-19,24,-4,0,-48,-68,-68,-48,-39
29,9,-19,-19,24,-4,0,-48,-68,-68,-48,-39
29,9,-19,-19,24,-4,0,-48,-68,-68,-48,-39
29,9,-19,-19,24,-4,9,-48,-68,-68,-48,-39
29,9,-19,-19,24,-4,9,-48,-68,-68,-48,-39
29,9,-19,-19,24,-4,9,-48,-68,-68,-48,-39
29,9,-19,-19,24,-4,9,-48,-68,-68,-48,-39
19,9,-9,-14,14,0,9,-48,-68,-68,-39,-39
19,9,-9,-14,14,0,9,-48,-68,-68,-39,-39
19,9,-9,-14,14,0,9,-48,-68,-68,-39,-39
19,9,-9,-14,14,0,9,-48,-68,-68,-39,-39
9,9,0,-9,4,4,9,-48,-68,-68,-48,-48
9,9,0,-9,4,4,9,-48,-68,-68,-48,-48
9,9,0,-9,4,4,9,-48,-68,-68,-48,-48
9,9,0,-9,4,4,9,-48,-68,-68,-48,-48
14,9,-4,-12,9,2,0,-48,-68,-58,-48,-39
19,9,-9,-14,14,0,0,-48,-68,-58,-48,-39
24,9,-14,-17,19,-2,0,-48,-68,-58,-48,-39
29,9,-19,-19,24,-4,0,-48,-68,-58,-48,-39
19,9,-9,-14,14,0,9,-39,-68,-68,-48,-39
19,9,-9,-14,14,0,9,-39,-68,-68,-48,-39
19,9,-9,-14,14,0,9,-39,-68,-68,-48,-39
19,9,-9,-14,14,0,9,-39,-68,-68,-48,-39
9,9,0,-9,4,4,9,-48,-68,-68,-39,-39
9,9,0,-9,4,4,9,-48,-68,-68,-39,-39
9,9,0,-9,4,4,9,-48,-68,-68,-39,-39
9,9,0,-9,4,4,9,-48,-68,-68,-39,-39
14,9,-4,-12,9,2,19,-48,-58,-58,-48,-39
19,9,-9,-14,14,0,19,-48,-58,-58,-48,-39
24,9,-14,-17,19,-2,19,-48,-58,-58,-48,-39
29,9,-19,-19,24,-4,19,-48,-58,-58,-48,-39
19,9,-9,-14,14,0,19,-48,-68,-68,-39,-39
19,9,-9,-14,14,0,19,-48,-68,-68,-39,-39
19,9,-9,-14,14,0,19,-48,-68,-68,-39,-39
19,9,-9,-14,14,0,19,-48,-68,-68,-39,-39
19,9,-9,-14,14,0,9,-48,-58,-68,-39,-39
19,9,-9,-14,14,0,9,-48,-58,-68,-39,-39
19,9,-9,-14,14,0,9,-48,-58,-68,-39,-39
19,9,-9,-14,14,0,9,-48,-58,-68,-39,-39
19,9,-9,-14,14,0,9,-39,-58,-58,-39,-39
19,9,-9,-14,14,0,9,-39,-58,-58,-39,-39
19,9,-9,-14,14,0,9,-39,-58,-58,-39,-39
19,9,-9,-14,14,0,9,-39,-58,-58,-39,-39
19,9,-9,-14,14,0,19,-39,-58,-48,-39,-29
19,9,-9,-14,14,0,19,-39,-58,-48,-39,-29
19,9,-9,-14,14,0,19,-39,-58,-48,-39,-29
19,9,-9,-14,14,0,19,-39,-58,-48,-39,-29
19,0,-19,-9,19,-9,19,-39,-58,-58,-39,-29
19,0,-19,-9,19,-9,19,-39,-58,-58,-39,-29
19,0,-19,-9,19,-9,19,-39,-58,-58,-39,-29
19,0,-19,-9,19,-9,19,-39,-58,-58,-39,-29
14,0,-14,-7,14,-7,9,-39,-58,-58,-39,-39
9,0,-9,-4,9,-4,9,-39,-58,-58,-39,-39
4,0,-4,-2,4,-2,9,-39,-58,-58,-39,-39
0,0,0,0,0,0,9,-39,-58,-58,-39,-39
9,9,0,-9,4,4,9,-39,-58,-58,-39,-29
9,9,0,-9,4,4,9,-39,-58,-58,-39,-29
9,9,0,-9,4,4,9,-39,-58,-58,-39,-29
9,9,0,-9,4,4,9,-39,-58,-58,-39,-29
9,9,0,-9,4,4,19,-39,-58,-48,-29,-29
9,9,0,-9,4,4,19,-39,-58,-48,-29,-29
9,9,0,-9,4,4,19,-39,-58,-48,-29,-29
9,9,0,-9,4,4,19,-39,-58,-48,-29,-29
9,9,0,-9,4,4,19,-39,-48,-48,-29,-29
9,9,0,-9,4,4,19,-39,-48,-48,-29,-29
9,9,0,-9,4,4,19,-39,-48,-48,-29,-29
9,9,0,-9,4,4,19,-39,-48,-48,-29,-29
9,9,0,-9,4,4,19,-39,-58,-58,-39,-29
9,9,0,-9,4,4,19,-39,-58,-58,-39,-29
9,9,0,-9,4,4,19,-39,-58,-58,-39,-29
9,9,0,-9,4,4,19,-39,-58,-58,-39,-29
9,9,0,-9,4,4,19,-39,-58,-58,-39,-29
9,9,0,-9,4,4,19,-39,-58,-58,-39,-29
9,9,0,-9,4,4,19,-39,-58,-58,-39,-29
9,9,0,-9,4,4,19,-39,-58,-58,-39,-29
19,9,-9,-14,14,0,19,-29,-48,-48,-29,-19
19,9,-9,-14,14,0,19,-29,-48,-48,-29,-19
19,9,-9,-14,14,0,19,-29,-48,-48,-29,-19
19,9,-9,-14,14,0,19,-29,-48,-48,-29,-19
19,19,0,-19,9,9,19,-29,-48,-48,-29,-19
19,19,0,-19,9,9,19,-29,-48,-48,-29,-19
19,19,0,-19,9,9,19,-29,-48,-48,-29,-19
19,19,0,-19,9,9,19,-29,-48,-48,-29,-19
19,9,-9,-14,14,0,9,-39,-48,-48,-29,-29
19,9,-9,-14,14,0,9,-39,-48,-48,-29,-29
19,9,-9,-14,14,0,9,-39,-48,-48,-29,-29
19,9,-9,-14,14,0,9,-39,-48,-48,-29,-29
19,19,0,-19,9,9,19,-39,-48,-48,-29,-29
19,19,0,-19,9,9,19,-39,-48,-48,-29,-29
19,19,0,-19,9,9,19,-39,-48,-48,-29,-29
19,19,0,-19,9,9,19,-39,-48,-48,-29,-29
19,9,-9,-14,14,0,19,-29,-48,-58,-39,-29
19,9,-9,-14,14,0,19,-29,-48,-58,-39,-29
19,9,-9,-14,14,0,19,-29,-48,-58,-39,-29
19,9,-9,-14,14,0,19,-29,-48,-58,-39,-29
19,9,-9,-14,14,0,9,-39,-58,-48,-39,-39
19,9,-9,-14,14,0,9,-39,-58,-48,-39,-39
19,9,-9,-14,14,0,9,-39,-58,-48,-39,-39
19,9,-9,-14,14,0,9,-39,-58,-48,-39,-39
29,19,-9,-24,19,4,9,-29,-48,-48,-29,-29
29,19,-9,-24,19,4,9,-29,-48,-48,-29,-29
29,19,-9,-24,19,4,9,-29,-48,-48,-29,-29
29,19,-9,-24,19,4,9,-29,-48,-48,-29,-29
29,19,-9,-24,19,4,19,-39,-48,-48,-29,-29
29,19,-9,-24,19,4,19,-39,-48,-48,-29,-29
29,19,-9,-24,19,4,19,-39,-48,-48,-29,-29
29,19,-9,-24,19,4,19,-39,-48,-48,-29,-29
29,9,-19,-19,24,-4,19,-29,-48,-48,-29,-29
29,9,-19,-19,24,-4,19,-29,-48,-48,-29,-29
29,9,-19,-19,24,-4,19,-29,-48,-48,-29,-29
29,9,-19,-19,24,-4,19,-29,-48,-48,-29,-29
19,19,0,-19,9,9,19,-29,-48,-39,-29,-19
19,19,0,-19,9,9,19,-29,-48,-39,-29,-19
19,19,0,-19,9,9,19,-29,-48,-39,-29,-19
19,19,0,-19,9,9,19,-29,-48,-39,-29,-19
19,9,-9,-14,14,0,19,-29,-48,-48,-39,-29
19,9,-9,-14,14,0,19,-29,-48,-48,-39,-29
19,9,-9,-14,14,0,19,-29,-48,-48,-39,-29
19,9,-9,-14,14,0,19,-29,-48,-48,-39,-29
19,9,-9,-14,14,0,19,-29,-48,-39,-29,-29
19,9,-9,-14,14,0,19,-29,-48,-39,-29,-29
19,9,-9,-14,14,0,19,-29,-48,-39,-29,-29
19,9,-9,-14,14,0,19,-29,-48,-39,-29,-29
19,9,-9,-14,14,0,19,-29,-48,-39,-29,-29
19,9,-9,-14,14,0,19,-29,-48,-39,-29,-29
19,9,-9,-14,14,0,19,-29,-48,-39,-29,-29
19,9,-9,-14,14,0,19,-29,-48,-39,-29,-29
9,9,0,-9,4,4,19,-29,-48,-39,-29,-29
9,9,0,-9,4,4,19,-29,-48,-39,-29,-29
9,9,0,-9,4,4,19,-29,-48,-39,-29,-29
9,9,0,-9,4,4,19,-29,-48,-39,-29,-29
19,9,-9,-14,14,0,19,-29,-48,-48,-29,-29
19,9,-9,-14,14,0,19,-29,-48,-48,-29,-29
19,9,-9,-14,14,0,19,-29,-48,-48,-29,-29
19,9,-9,-14,14,0,19,-29,-48,-48,-29,-29
19,9,-9,-14,14,0,19,-29,-48,-39,-29,-19
19,9,-9,-14,14,0,19,-29,-48,-39,-29,-19
19,9,-9,-14,14,0,19,-29,-48,-39,-29,-19
19,9,-9,-14,14,0,19,-29,-48,-39,-29,-19
9,9,0,-9,4,4,19,-29,-39,-39,-29,-29
9,9,0,-9,4,4,19,-29,-39,-39,-29,-29
9,9,0,-9,4,4,19,-29,-39,-39,-29,-29
9,9,0,-9,4,4,19,-29,-39,-39,-29,-29
19,9,-9,-14,14,0,19,-29,-39,-48,-39,-29
19,9,-9,-14,14,0,19,-29,-39,-48,-39,-29
19,9,-9,-14,14,0,19,-29,-39,-48,-39,-29
19,9,-9,-14,14,0,19,-29,-39,-48,-39,-29
19,19,0,-19,9,9,19,-19,-48,-48,-29,-19
19,19,0,-19,9,9,19,-19,-48,-48,-29,-19
19,19,0,-19,9,9,19,-19,-48,-48,-29,-19
19,19,0,-19,9,9,19,-19,-48,-48,-29,-19
19,19,0,-19,9,9,19,-19,-48,-39,-19,-19
19,19,0,-19,9,9,19,-19,-48,-39,-19,-19
19,19,0,-19,9,9,19,-19,-48,-39,-19,-19
19,19,0,-19,9,9,19,-19,-48,-39,-19,-19
9,19,9,-14,0,14,29,-19,-39,-39,-19,-19
9,19,9,-14,0,14,29,-19,-39,-39,-19,-19
9,19,9,-14,0,14,29,-19,-39,-39,-19,-19
9,19,9,-14,0,14,29,-19,-39,-39,-19,-19
14,19,4,-17,4,12,19,-29,-39,-39,-29,-19
19,19,0,-19,9,9,19,-29,-39,-39,-29,-19
24,19,-4,-21,14,7,19,-29,-39,-39,-29,-19
29,19,-9,-24,19,4,19,-29,-39,-39,-29,-19
19,19,0,-19,9,9,19,-19,-39,-39,-29,-29
19,19,0,-19,9,9,19,-19,-39,-39,-29,-29
19,19,0,-19,9,9,19,-19,-39,-39,-29,-29
19,19,0,-19,9,9,19,-19,-39,-39,-29,-29
9,19,9,-14,0,14,19,-19,-39,-39,-19,-19
9,19,9,-14,0,14,19,-19,-39,-39,-19,-19
9,19,9,-14,0,14,19,-19,-39,-39,-19,-19
9,19,9,-14,0,14,19,-19,-39,-39,-19,-19
9,19,9,-14,0,14,29,-19,-29,-39,-19,-19
9,19,9,-14,0,14,29,-19,-29,-39,-19,-19
9,19,9,-14,0,14,29,-19,-29,-39,-19,-19
9,19,9,-14,0,14,29,-19,-29,-39,-19,-19
9,29,19,-19,-4,24,29,-19,-39,-39,-19,-19
9,29,19,-19,-4,24,29,-19,-39,-39,-19,-19
9,29,19,-19,-4,24,29,-19,-39,-39,-19,-19
9,29,19,-19,-4,24,29,-19,-39,-39,-19,-19
9,19,9,-14,0,14,19,-19,-29,-39,-19,-19
9,19,9,-14,0,14,19,-19,-29,-39,-19,-19
9,19,9,-14,0,14,19,-19,-29,-39,-19,-19
9,19,9,-14,0,14,19,-19,-29,-39,-19,-19
9,9,0,-9,4,4,29,-19,-39,-39,-19,-9
9,9,0,-9,4,4,29,-19,-39,-39,-19,-9
9,9,0,-9,4,4,29,-19,-39,-39,-19,-9
9,9,0,-9,4,4,29,-19,-39,-39,-19,-9
9,19,9,-14,0,14,29,-9,-29,-39,-19,-9
9,19,9,-14,0,14,29,-9,-29,-39,-19,-9
9,19,9,-14,0,14,29,-9,-29,-39,-19,-9
9,19,9,-14,0,14,29,-9,-29,-39,-19,-9
19,19,0,-19,9,9,39,-9,-29,-29,-19,-9
19,19,0,-19,9,9,39,-9,-29,-29,-19,-9
19,19,0,-19,9,9,39,-9,-29,-29,-19,-9
19,19,0,-19,9,9,39,-9,-29,-29,-19,-9
29,19,-9,-24,19,4,34,-9,-39,-39,-19,-9
29,19,-9,-24,19,4,29,-9,-39,-39,-19,-9
29,19,-9,-24,19,4,24,-9,-39,-39,-19,-9
29,19,-9,-24,19,4,19,-9,-39,-39,-19,-9
19,29,9,-24,4,19,29,-9,-29,-39,-19,-9
19,29,9,-24,4,19,29,-9,-29,-39,-19,-9
19,29,9,-24,4,19,29,-9,-29,-39,-19,-9
19,29,9,-24,4,19,29,-9,-29,-39,-19,-9
19,29,9,-24,4,19,39,-9,-19,-29,-19,0
19,29,9,-24,4,19,39,-9,-19,-29,-19,0
19,29,9,-24,4,19,39,-9,-19,-29,-19,0
19,29,9,-24,4,19,39,-9,-19,-29,-19,0
14,19,4,-17,4,12,29,-9,-29,-39,-19,-9
9,19,9,-14,0,14,29,-9,-29,-39,-19,-9
4,19,14,-12,-4,17,29,-9,-29,-39,-19,-9
0,19,19,-9,-9,19,29,-9,-29,-39,-19,-9
9,29,19,-19,-4,24,39,-9,-19,-29,-19,0
9,29,19,-19,-4,24,39,-9,-19,-29,-19,0
9,29,19,-19,-4,24,39,-9,-19,-29,-19,0
9,29,19,-19,-4,24,39,-9,-19,-29,-19,0
9,29,19,-19,-4,24,39,-9,-19,-29,-19,0
9,29,19,-19,-4,24,39,-9,-19,-29,-19,0
9,29,19,-19,-4,24,39,-9,-19,-29,-19,0
9,29,19,-19,-4,24,39,-9,-19,-29,-19,0
9,29,19,-19,-4,24,29,-9,-29,-29,-19,-9
9,29,19,-19,-4,24,29,-9,-29,-29,-19,-9
9,29,19,-19,-4,24,29,-9,-29,-29,-19,-9
9,29,19,-19,-4,24,29,-9,-29,-29,-19,-9
0,24,24,-12,-12,24,29,-9,-29,-39,-19,-9
0,19,19,-9,-9,19,29,-9,-29,-39,-19,-9
0,14,14,-7,-7,14,29,-9,-29,-39,-19,-9
0,9,9,-4,-4,9,29,-9,-29,-39,-19,-9
0,19,19,-9,-9,19,39,-9,-29,-29,-19,-9
0,19,19,-9,-9,19,39,-9,-29,-29,-19,-9
0,19,19,-9,-9,19,39,-9,-29,-29,-19,-9
0,19,19,-9,-9,19,39,-9,-29,-29,-19,-9
0,19,19,-9,-9,19,39,-9,-29,-39,-19,-9
0,19,19,-9,-9,19,39,-9,-29,-39,-19,-9
0,19,19,-9,-9,19,39,-9,-29,-39,-19,-9
0,19,19,-9,-9,19,39,-9,-29,-39,-19,-9
0,9,9,-4,-4,9,29,-19,-29,-39,-29,-9
0,9,9,-4,-4,9,29,-19,-29,-39,-29,-9
0,9,9,-4,-4,9,29,-19,-29,-39,-29,-9
0,9,9,-4,-4,9,29,-19,-29,-39,-29,-9
-9,9,19,0,-14,14,29,-19,-29,-29,-19,-9
-9,9,19,0,-14,14,29,-19,-29,-29,-19,-9
-9,9,19,0,-14,14,29,-19,-29,-29,-19,-9
-9,9,19,0,-14,14,29,-19,-29,-29,-19,-9
-9,0,9,4,-9,4,29,-19,-29,-39,-29,-9
-9,0,9,4,-9,4,29,-19,-29,-39,-29,-9
-9,0,9,4,-9,4,29,-19,-29,-39,-29,-9
-9,0,9,4,-9,4,29,-19,-29,-39,-29,-9
-4,9,14,-2,-9,12,29,-19,-39,-39,-29,-9
0,9,9,-4,-4,9,29,-19,-39,-39,-29,-9
4,9,4,-7,0,7,29,-19,-39,-39,-29,-9
9,9,0,-9,4,4,29,-19,-39,-39,-29,-9
4,9,4,-7,0,7,29,-19,-29,-39,-29,-9
0,9,9,-4,-4,9,29,-19,-29,-39,-29,-9
-4,9,14,-2,-9,12,29,-19,-29,-39,-29,-9
-9,9,19,0,-14,14,29,-19,-29,-39,-29,-9
-9,9,19,0,-14,14,39,-9,-29,-39,-19,-9
-9,9,19,0,-14,14,39,-9,-29,-39,-19,-9
-9,9,19,0,-14,14,39,-9,-29,-39,-19,-9
-9,9,19,0,-14,14,39,-9,-29,-39,-19,-9
-9,19,29,-4,-19,24,29,-19,-29,-29,-19,0
-9,19,29,-4,-19,24,29,-19,-29,-29,-19,0
-9,19,29,-4,-19,24,29,-19,-29,-29,-19,0
-9,19,29,-4,-19,24,29,-19,-29,-29,-19,0
-9,19,29,-4,-19,24,34,-9,-19,-29,-19,0
-9,19,29,-4,-19,24,39,-9,-19,-29,-19,0
-9,19,29,-4,-19,24,43,-9,-19,-29,-19,0
-9,19,29,-4,-19,24,48,-9,-19,-29,-19,0
-19,19,39,0,-29,29,43,-9,-29,-29,-19,-9
-19,19,39,0,-29,29,39,-9,-29,-29,-19,-9
-19,19,39,0,-29,29,34,-9,-29,-29,-19,-9
-19,19,39,0,-29,29,29,-9,-29,-29,-19,-9
-19,19,39,0,-29,29,29,-9,-29,-19,-19,0
-19,19,39,0,-29,29,29,-9,-29,-19,-19,0
-19,19,39,0,-29,29,29,-9,-29,-19,-19,0
-19,19,39,0,-29,29,29,-9,-29,-19,-19,0
-19,19,39,0,-29,29,29,-9,-29,-29,-19,-9
-19,19,39,0,-29,29,29,-9,-29,-29,-19,-9
-19,19,39,0,-29,29,29,-9,-29,-29,-19,-9
-19,19,39,0,-29,29,29,-9,-29,-29,-19,-9
-29,19,48,4,-39,34,39,-9,-19,-29,-19,0
-29,19,48,4,-39,34,39,-9,-19,-29,-19,0
-29,19,48,4,-39,34,39,-9,-19,-29,-19,0
-29,19,48,4,-39,34,39,-9,-19,-29,-19,0
-29,19,48,4,-39,34,39,-9,-19,-19,-9,0
-29,19,48,4,-39,34,39,-9,-19,-19,-9,0
-29,19,48,4,-39,34,39,-9,-19,-19,-9,0
-29,19,48,4,-39,34,39,-9,-19,-19,-9,0
-19,19,39,0,-29,29,39,-9,-19,-29,-9,0
-19,19,39,0,-29,29,39,-9,-19,-29,-9,0
-19,19,39,0,-29,29,39,-9,-19,-29,-9,0
-19,19,39,0,-29,29,39,-9,-19,-29,-9,0
-29,19,48,4,-39,34,48,0,-19,-19,-19,0
-29,19,48,4,-39,34,48,0,-19,-19,-19,0
-29,19,48,4,-39,34,48,0,-19,-19,-19,0
-29,19,48,4,-39,34,48,0,-19,-19,-19,0
-19,29,48,-4,-34,39,39,-9,-19,-29,-9,0
-19,29,48,-4,-34,39,39,-9,-19,-29,-9,0
-19,29,48,-4,-34,39,39,-9,-19,-29,-9,0
-19,29,48,-4,-34,39,39,-9,-19,-29,-9,0
-24,19,43,2,-34,31,39,-9,-9,-19,-19,0
-29,19,48,4,-39,34,39,-9,-9,-19,-19,0
-34,19,53,7,-43,36,39,-9,-9,-19,-19,0
-39,19,58,9,-48,39,39,-9,-9,-19,-19,0
-29,29,58,0,-43,43,39,-9,-9,-29,-19,0
-29,29,58,0,-43,43,39,-9,-9,-29,-19,0
-29,29,58,0,-43,43,39,-9,-9,-29,-19,0
-29,29,58,0,-43,43,39,-9,-9,-29,-19,0
-29,29,58,0,-43,43,39,-9,-9,-29,-9,0
-29,29,58,0,-43,43,39,-9,-9,-29,-9,0
-29,29,58,0,-43,43,39,-9,-9,-29,-9,0
-29,29,58,0,-43,43,39,-9,-9,-29,-9,0
-29,29,58,0,-43,43,39,-9,-9,-29,-19,-9
-29,29,58,0,-43,43,39,-9,-9,-29,-19,-9
-29,29,58,0,-43,43,39,-9,-9,-29,-19,-9
-29,29,58,0,-43,43,39,-9,-9,-29,-19,-9
-19,29,48,-4,-34,39,39,0,-9,-29,-9,0
-19,29,48,-4,-34,39,39,0,-9,-29,-9,0
-19,29,48,-4,-34,39,39,0,-9,-29,-9,0
-19,29,48,-4,-34,39,39,0,-9,-29,-9,0
-19,19,39,0,-29,29,48,0,0,-29,-9,0
-19,19,39,0,-29,29,48,0,0,-29,-9,0
-19,19,39,0,-29,29,48,0,0,-29,-9,0
-19,19,39,0,-29,29,48,0,0,-29,-9,0
-29,29,58,0,-43,43,39,-9,-9,-29,-19,0
-29,29,58,0,-43,43,39,-9,-9,-29,-19,0
-29,29,58,0,-43,43,39,-9,-9,-29,-19,0
-29,29,58,0,-43,43,39,-9,-9,-29,-19,0
-29,29,58,0,-43,43,39,0,0,-19,-9,0
-29,29,58,0,-43,43,39,0,0,-19,-9,0
-29,29,58,0,-43,43,39,0,0,-19,-9,0
-29,29,58,0,-43,43,39,0,0,-19,-9,0
-29,29,58,0,-43,43,48,0,0,-19,-9,9
-29,29,58,0,-43,43,48,0,0,-19,-9,9
-29,29,58,0,-43,43,48,0,0,-19,-9,9
-29,29,58,0,-43,43,48,0,0,-19,-9,9
-29,29,58,0,-43,43,48,0,0,-19,-9,0
-29,29,58,0,-43,43,48,0,0,-19,-9,0
-29,29,58,0,-43,43,48,0,0,-19,-9,0
-29,29,58,0,-43,43,48,0,0,-19,-9,0
-19,19,39,0,-29,29,48,0,0,-19,-9,9
-19,19,39,0,-29,29,48,0,0,-19,-9,9
-19,19,39,0,-29,29,48,0,0,-19,-9,9
-19,19,39,0,-29,29,48,0,0,-19,-9,9
-29,19,48,4,-39,34,48,0,0,-19,-9,9
-29,19,48,4,-39,34,48,0,0,-19,-9,9
-29,19,48,4,-39,34,48,0,0,-19,-9,9
-29,19,48,4,-39,34,48,0,0,-19,-9,9
-29,29,58,0,-43,43,48,0,0,-19,-9,0
-29,29,58,0,-43,43,48,0,0,-19,-9,0
-29,29,58,0,-43,43,48,0,0,-19,-9,0
-29,29,58,0,-43,43,48,0,0,-19,-9,0
-29,29,58,0,-43,43,48,9,0,-19,-9,0
-29,29,58,0,-43,43,48,9,0,-19,-9,0
-29,29,58,0,-43,43,48,9,0,-19,-9,0
-29,29,58,0,-43,43,48,9,0,-19,-9,0
-29,29,58,0,-43,43,48,0,0,-19,-9,0
-29,29,58,0,-43,43,48,0,0,-19,-9,0
-29,29,58,0,-43,43,48,0,0,-19,-9,0
-29,29,58,0,-43,43,48,0,0,-19,-9,0
-29,29,58,0,-43,43,39,0,0,-19,-9,0
-29,29,58,0,-43,43,39,0,0,-19,-9,0
-29,29,58,0,-43,43,39,0,0,-19,-9,0
-29,29,58,0,-43,43,39,0,0,-19,-9,0
-29,29,58,0,-43,43,48,0,0,-19,-9,9
-29,29,58,0,-43,43,48,0,0,-19,-9,9
-29,29,58,0,-43,43,48,0,0,-19,-9,9
-29,29,58,0,-43,43,48,0,0,-19,-9,9
-24,29,53,-2,-39,41,48,0,0,-19,-9,0
-19,29,48,-4,-34,39,48,0,0,-19,-9,0
-14,29,43,-7,-29,36,48,0,0,-19,-9,0
-9,29,39,-9,-24,34,48,0,0,-19,-9,0
-9,19,29,-4,-19,24,39,0,0,-19,-9,0
-9,19,29,-4,-19,24,39,0,0,-19,-9,0
-9,19,29,-4,-19,24,39,0,0,-19,-9,0
-9,19,29,-4,-19,24,39,0,0,-19,-9,0
-9,29,39,-9,-24,34,39,0,-9,-19,-19,0
-9,29,39,-9,-24,34,39,0,-9,-19,-19,0
-9,29,39,-9,-24,34,39,0,-9,-19,-19,0
-9,29,39,-9,-24,34,39,0,-9,-19,-19,0
0,29,29,-14,-14,29,39,0,-9,-19,-9,0
0,29,29,-14,-14,29,39,0,-9,-19,-9,0
0,29,29,-14,-14,29,39,0,-9,-19,-9,0
0,29,29,-14,-14,29,39,0,-9,-19,-9,0
-9,19,29,-4,-19,24,39,0,-9,-19,-14,-9
-9,19,29,-4,-19,24,39,0,-9,-19,-19,-9
-9,19,29,-4,-19,24,39,0,-9,-19,-24,-9
-9,19,29,-4,-19,24,39,0,-9,-19,-29,-9
-14,14,29,0,-21,21,39,0,0,-19,-19,-9
-19,9,29,4,-24,19,39,0,0,-19,-19,-9
-24,4,29,9,-26,17,39,0,0,-19,-19,-9
-29,0,29,14,-29,14,39,0,0,-19,-19,-9
-43,-19,24,31,-34,2,29,-4,-4,-24,-24,-19
-58,-29,29,43,-43,0,29,-9,-9,-29,-29,-19
-73,-39,34,56,-53,-2,29,-14,-14,-34,-34,-19
-87,-48,39,68,-63,-4,29,-19,-19,-39,-39,-19
-112,-73,39,92,-75,-17,14,-24,-24,-48,-43,-24
-126,-87,39,107,-82,-24,9,-29,-29,-48,-48,-29
-141,-102,39,122,-90,-31,4,-34,-34,-48,-53,-34
-156,-117,39,136,-97,-39,0,-39,-39,-48,-58,-39
-161,-126,34,143,-97,-46,0,-39,-39,-58,-58,-39
-165,-126,39,146,-102,-43,0,-39,-39,-58,-58,-39
-170,-126,43,148,-107,-41,0,-39,-39,-58,-58,-39
-175,-126,48,151,-112,-39,0,-39,-39,-58,-58,-39
-185,-131,53,158,-119,-39,0,-39,-48,-68,-68,-39
-185,-136,48,161,-117,-43,0,-39,-48,-68,-68,-39
-185,-141,43,163,-114,-48,0,-39,-48,-68,-68,-39
-185,-146,39,165,-112,-53,0,-39,-48,-68,-68,-39
-195,-146,48,170,-122,-48,-9,-48,-48,-68,-78,-48
-195,-146,48,170,-122,-48,-9,-48,-48,-68,-78,-48
-195,-146,48,170,-122,-48,-9,-48,-48,-68,-78,-48
-195,-146,48,170,-122,-48,-9,-48,-48,-68,-78,-48
-195,-146,48,170,-122,-48,-9,-48,-48,-68,-68,-48
-195,-146,48,170,-122,-48,-9,-48,-48,-68,-68,-48
-195,-146,48,170,-122,-48,-9,-48,-48,-68,-68,-48
-195,-146,48,170,-122,-48,-9,-48,-48,-68,-68,-48
-195,-146,48,170,-122,-48,-9,-48,-48,-68,-78,-58
-195,-146,48,170,-122,-48,-9,-48,-48,-68,-78,-58
-195,-146,48,170,-122,-48,-9,-48,-48,-68,-78,-58
-195,-146,48,170,-122,-48,-9,-48,-48,-68,-78,-58
-185,-146,39,165,-112,-53,0,-48,-48,-68,-78,-68
-185,-146,39,165,-112,-53,0,-48,-48,-68,-78,-68
-185,-146,39,165,-112,-53,0,-48,-48,-68,-78,-68
-185,-146,39,165,-112,-53,0,-48,-48,-68,-78,-68
-195,-156,39,175,-117,-58,-9,-48,-48,-68,-78,-63
-195,-156,39,175,-117,-58,-9,-48,-48,-68,-78,-58
-195,-156,39,175,-117,-58,-9,-48,-48,-68,-78,-53
-195,-156,39,175,-117,-58,-9,-48,-48,-68,-78,-48
-185,-156,29,170,-107,-63,-9,-39,-48,-58,-78,-48
-185,-156,29,170,-107,-63,-9,-39,-48,-58,-78,-48
-185,-156,29,170,-107,-63,-9,-39,-48,-58,-78,-48
-185,-156,29,170,-107,-63,-9,-39,-48,-58,-78,-48
-185,-151,34,168,-109,-58,-9,-48,-48,-68,-78,-48
-185,-146,39,165,-112,-53,-9,-48,-48,-68,-78,-48
-185,-141,43,163,-114,-48,-9,-48,-48,-68,-78,-48
-185,-136,48,161,-117,-43,-9,-48,-48,-68,-78,-48
-185,-141,43,163,-114,-48,0,-39,-48,-58,-78,-43
-185,-146,39,165,-112,-53,0,-39,-48,-58,-78,-39
-185,-151,34,168,-109,-58,0,-39,-48,-58,-78,-34
-185,-156,29,170,-107,-63,0,-39,-48,-58,-78,-29
-185,-146,39,165,-112,-53,-9,-39,-48,-58,-68,-34
-185,-146,39,165,-112,-53,-9,-39,-48,-58,-68,-39
-185,-146,39,165,-112,-53,-9,-39,-48,-58,-68,-43
-185,-146,39,165,-112,-53,-9,-39,-48,-58,-68,-48
-175,-136,39,156,-107,-48,-9,-39,-48,-68,-78,-48
-175,-136,39,156,-107,-48,-9,-39,-48,-68,-78,-48
-175,-136,39,156,-107,-48,-9,-39,-48,-68,-78,-48
-175,-136,39,156,-107,-48,-9,-39,-48,-68,-78,-48
-185,-136,48,161,-117,-43,0,-39,-48,-68,-78,-58
-185,-136,48,161,-117,-43,0,-39,-48,-68,-78,-58
-185,-136,48,161,-117,-43,0,-39,-48,-68,-78,-58
-185,-136,48,161,-117,-43,0,-39,-48,-68,-78,-58
-185,-136,48,161,-117,-43,0,-39,-48,-58,-68,-43
-185,-136,48,161,-117,-43,0,-39,-48,-58,-68,-39
-185,-136,48,161,-117,-43,0,-39,-48,-58,-68,-34
-185,-136,48,161,-117,-43,0,-39,-48,-58,-68,-29
-185,-146,39,165,-112,-53,0,-39,-48,-58,-58,-29
-185,-146,39,165,-112,-53,0,-39,-48,-58,-58,-29
-185,-146,39,165,-112,-53,0,-39,-48,-58,-58,-29
-185,-146,39,165,-112,-53,0,-39,-48,-58,-58,-29
-175,-136,39,156,-107,-48,0,-39,-48,-58,-68,-34
-175,-136,39,156,-107,-48,0,-39,-48,-58,-68,-39
-175,-136,39,156,-107,-48,0,-39,-48,-58,-68,-43
-175,-136,39,156,-107,-48,0,-39,-48,-58,-68,-48
-165,-136,29,151,-97,-53,0,-39,-48,-58,-68,-39
-165,-136,29,151,-97,-53,0,-39,-48,-58,-68,-39
-165,-136,29,151,-97,-53,0,-39,-48,-58,-68,-39
-165,-136,29,151,-97,-53,0,-39,-48,-58,-68,-39
-175,-126,48,151,-112,-39,9,-39,-48,-58,-68,-39
-175,-126,48,151,-112,-39,9,-39,-48,-58,-68,-39
-175,-126,48,151,-112,-39,9,-39,-48,-58,-68,-39
-175,-126,48,151,-112,-39,9,-39,-48,-58,-68,-39
-165,-126,39,146,-102,-43,19,-29,-39,-53,-58,-29
-165,-117,48,141,-107,-34,19,-29,-29,-43,-58,-24
-156,-107,48,131,-102,-29,29,-24,-29,-39,-48,-19
-156,-107,48,131,-102,-29,29,-19,-24,-29,-43,-19
-165,-102,63,134,-114,-19,24,-14,-19,-29,-53,-14
-165,-87,78,126,-122,-4,34,-14,-19,-29,-53,-14
-165,-73,92,119,-129,9,34,-14,-19,-29,-53,-14
-165,-68,97,117,-131,14,34,-4,-14,-29,-48,-14
-165,-58,107,112,-136,24,43,-9,-14,-24,-48,-14
-165,-53,112,109,-139,29,58,-9,-4,-24,-48,-14
-156,-53,102,104,-129,24,68,-4,0,-14,-48,-14
-151,-53,97,102,-124,21,78,0,0,-14,-48,-14
-161,-43,117,102,-139,36,92,14,4,4,-39,-19
-156,-34,122,95,-139,43,97,19,9,4,-34,-14
-151,-19,131,85,-141,56,97,19,9,4,-24,-14
-151,-19,131,85,-141,56,97,14,9,4,-19,-14
-161,-29,131,95,-146,51,97,9,4,4,-24,-9
-156,-24,131,90,-143,53,73,-4,-4,0,-24,-4
-151,-24,126,87,-139,51,48,-19,-9,-4,-24,4
-151,-24,126,87,-139,51,29,-34,-14,-9,-29,9
-141,-24,117,82,-129,46,4,-48,-19,-14,-29,14
-141,-24,117,82,-129,46,-9,-58,-24,-19,-29,14
-136,-34,102,85,-119,34,-29,-63,-24,-24,-29,14
-136,-39,97,87,-117,29,-29,-63,-29,-24,-39,4
-126,-39,87,82,-107,24,-43,-78,-43,-29,-43,-4
-117,-48,68,82,-92,9,-53,-82,-58,-43,-53,-4
-117,-48,68,82,-92,9,-63,-82,-58,-43,-53,-4
-117,-48,68,82,-92,9,-73,-92,-63,-48,-48,-4
-126,-39,87,82,-107,24,-78,-97,-63,-53,-48,-19
-126,-39,87,82,-107,24,-87,-102,-68,-58,-58,-24
-126,-48,78,87,-102,14,-87,-112,-82,-63,-58,-24
-122,-48,73,85,-97,12,-87,-112,-82,-63,-58,-24
-112,-48,63,80,-87,7,-92,-107,-87,-73,-58,-9
-112,-43,68,78,-90,12,-92,-107,-87,-73,-58,0
-107,-43,63,75,-85,9,-92,-107,-87,-73,-58,4
-107,-34,73,70,-90,19,-92,-107,-87,-73,-53,4
-107,-34,73,70,-90,19,-82,-97,-87,-73,-53,-9
-112,-43,68,78,-90,12,-78,-97,-92,-82,-63,-14
-112,-48,63,80,-87,7,-73,-92,-92,-87,-63,-14
-117,-58,58,87,-87,0,-68,-92,-92,-87,-58,-14
-117,-78,39,97,-78,-19,-63,-92,-82,-73,-48,-4
-122,-82,39,102,-80,-21,-58,-87,-82,-73,-53,-14
-122,-82,39,102,-80,-21,-48,-82,-68,-68,-53,-14
-136,-87,48,112,-92,-19,-43,-78,-58,-58,-43,-14
-141,-102,39,122,-90,-31,-34,-78,-68,-68,-58,-14
-141,-102,39,122,-90,-31,-29,-78,-78,-68,-58,-14
-151,-102,48,126,-100,-26,-14,-68,-68,-68,-58,-19
-156,-102,53,129,-104,-24,-14,-63,-58,-58,-58,-19
-156,-97,58,126,-107,-19,-19,-58,-58,-58,-63,-29
-156,-107,48,131,-102,-29,-14,-58,-58,-58,-63,-29
-156,-117,39,136,-97,-39,-14,-58,-58,-68,-63,-34
-156,-122,34,139,-95,-43,-14,-58,-58,-73,-73,-43
-165,-136,29,151,-97,-53,-4,-48,-58,-78,-78,-48
-165,-141,24,153,-95,-58,-4,-53,-68,-82,-82,-48
-165,-141,24,153,-95,-58,-4,-53,-73,-82,-87,-53
-165,-136,29,151,-97,-53,-4,-53,-73,-82,-92,-53
-156,-136,19,146,-87,-58,-4,-63,-73,-73,-92,-43
-156,-136,19,146,-87,-58,-4,-63,-73,-73,-87,-43
-156,-131,24,143,-90,-53,0,-58,-73,-73,-87,-43
-156,-131,24,143,-90,-53,0,-53,-68,-73,-87,-43
-161,-131,29,146,-95,-51,0,-43,-78,-78,-87,-53
-161,-131,29,146,-95,-51,0,-43,-78,-78,-87,-53
-165,-131,34,148,-100,-48,0,-43,-73,-78,-87,-53
-165,-136,29,151,-97,-53,0,-43,-73,-78,-92,-58
-165,-141,24,153,-95,-58,4,-43,-73,-78,-92,-58
-165,-141,24,153,-95,-58,9,-43,-73,-78,-92,-53
-165,-136,29,151,-97,-53,9,-34,-73,-78,-87,-53
-165,-136,29,151,-97,-53,9,-34,-73,-78,-87,-48
-165,-146,19,156,-92,-63,9,-34,-63,-78,-78,-43
-165,-146,19,156,-92,-63,9,-34,-63,-78,-78,-39
-165,-146,19,156,-92,-63,14,-34,-63,-78,-78,-34
-165,-146,19,156,-92,-63,14,-34,-58,-73,-73,-29
-156,-156,0,156,-78,-78,19,-34,-58,-82,-82,-39
-156,-156,0,156,-78,-78,19,-34,-58,-82,-78,-48
-156,-161,-4,158,-75,-82,24,-29,-53,-82,-73,-39
-156,-161,-4,158,-75,-82,24,-24,-53,-78,-73,-34
-151,-156,-4,153,-73,-80,24,-24,-53,-63,-63,-34
-151,-151,0,151,-75,-75,24,-24,-53,-63,-63,-39
-151,-146,4,148,-78,-70,24,-29,-53,-63,-68,-39
-151,-141,9,146,-80,-65,24,-29,-53,-68,-68,-39
-146,-131,14,139,-80,-58,34,-29,-53,-58,-68,-48
-161,-131,29,146,-95,-51,39,-29,-53,-53,-63,-48
-151,-131,19,141,-85,-56,39,-29,-53,-53,-63,-48
-146,-131,14,139,-80,-58,39,-19,-43,-53,-63,-48
-146,-122,24,134,-85,-48,58,14,-29,-34,-73,-53
-151,-131,19,141,-85,-56,87,48,4,-29,-82,-73
-180,-175,4,178,-92,-85,131,112,53,-9,-87,-107
-185,-200,-14,192,-85,-107,185,190,117,14,-107,-136
-175,-204,-29,190,-73,-117,234,273,195,48,-122,-156
-170,-229,-58,200,-56,-143,273,346,244,87,-112,-170
-170,-248,-78,209,-46,-163,287,375,278,122,-87,-161
-161,-248,-87,204,-36,-168,287,370,292,175,-24,-117
-146,-239,-92,192,-26,-165,273,395,341,244,68,-58
-112,-209,-97,161,-7,-153,268,434,424,366,209,14
-78,-165,-87,122,4,-126,239,444,512,507,385,122
-34,-87,-53,61,9,-70,195,434,605,673,605,292
39,48,9,-43,14,29,136,405,702,863,858,492
112,165,53,-139,29,109,68,380,775,1034,1107,717
170,278,107,-224,31,192,19,380,834,1171,1346,951
234,380,146,-307,43,263,-14,400,917,1332,1600,1190
273,439,165,-356,53,302,-29,429,995,1449,1810,1361
322,444,122,-383,100,283,-39,448,1044,1517,1952,1473
385,424,39,-405,173,231,-43,483,1078,1537,2034,1546
429,375,-53,-402,241,161,-43,497,1058,1488,2039,1556
419,312,-107,-366,263,102,-39,400,966,1405,1961,1517
385,287,-97,-336,241,95,-29,268,873,1356,1908,1493
331,229,-102,-280,217,63,-9,180,800,1302,1805,1429
273,141,-131,-207,202,4,29,107,658,1141,1586,1288
195,78,-117,-136,156,-19,58,9,405,863,1239,1078
102,58,-43,-80,73,7,102,-82,141,536,854,839
24,34,9,-29,7,21,122,-180,-136,151,419,590
-53,-9,43,31,-48,17,97,-322,-424,-248,0,336
-136,-53,82,95,-109,14,73,-409,-600,-483,-287,122
-180,-82,97,131,-139,7,92,-400,-610,-522,-385,-19
-204,-97,107,151,-156,4,92,-400,-619,-512,-429,-107
-219,-126,92,173,-156,-17,29,-453,-668,-561,-483,-165
-234,-156,78,195,-156,-39,-48,-488,-692,-575,-492,-200
-244,-165,78,204,-161,-43,-107,-473,-658,-561,-473,-214
-244,-156,87,200,-165,-34,-126,-448,-629,-556,-458,-224
-253,-141,112,197,-183,-14,-126,-419,-600,-536,-434,-209
-244,-126,117,185,-180,-4,-117,-351,-536,-488,-390,-185
-224,-92,131,158,-178,19,-92,-258,-439,-409,-326,-146
-200,-63,136,131,-168,36,-34,-170,-346,-346,-283,-122
-195,-63,131,129,-163,34,19,-87,-273,-297,-263,-112
-195,-78,117,136,-156,19,48,-14,-209,-244,-234,-92
-200,-107,92,153,-146,-7,58,24,-146,-204,-214,-82
-204,-126,78,165,-141,-24,63,34,-122,-175,-200,-78
-185,-107,78,146,-131,-14,82,29,-107,-146,-180,-73
-185,-102,82,143,-134,-9,63,4,-107,-141,-161,-73
-185,-112,73,148,-129,-19,48,-19,-97,-131,-146,-78
-190,-112,78,151,-134,-17,48,-19,-73,-102,-131,-58
-185,-112,73,148,-129,-19,58,-4,-63,-97,-131,-58
-170,-117,53,143,-112,-31,73,9,-63,-107,-146,-68
-180,-131,48,156,-114,-41,78,29,-58,-102,-146,-68
-195,-151,43,173,-119,-53,78,39,-43,-97,-156,-73
-195,-156,39,175,-117,-58,87,43,-39,-92,-146,-78
-195,-161,34,178,-114,-63,87,43,-29,-78,-141,-82
-195,-161,34,178,-114,-63,87,48,-24,-68,-126,-87
-185,-151,34,168,-109,-58,78,39,-24,-63,-117,-82
-180,-151,29,165,-104,-61,73,39,-14,-58,-112,-78
-175,-146,29,161,-102,-58,73,39,-14,-53,-112,-78
-170,-146,24,158,-97,-61,73,43,-9,-53,-112,-78
-175,-151,24,163,-100,-63,87,53,0,-53,-107,-73
-175,-156,19,165,-97,-68,87,53,0,-53,-107,-73
-180,-161,19,170,-100,-70,92,58,9,-43,-102,-78
-185,-175,9,180,-97,-82,92,58,9,-43,-97,-78
-180,-165,14,173,-97,-75,82,53,4,-34,-102,-73
-185,-161,24,173,-104,-68,82,53,9,-34,-92,-68
-185,-161,24,173,-104,-68,78,53,9,-34,-92,-73
-185,-161,24,173,-104,-68,78,53,9,-34,-92,-78
-190,-170,19,180,-104,-75,78,58,14,-43,-97,-68
-185,-170,14,178,-100,-78,82,58,14,-43,-97,-73
-200,-175,24,187,-112,-75,87,58,14,-43,-92,-73
-204,-175,29,190,-117,-73,87,58,19,-39,-92,-63
-195,-170,24,183,-109,-73,87,68,29,-29,-87,-68
-190,-170,19,180,-104,-75,87,73,29,-24,-78,-63
-190,-165,24,178,-107,-70,87,73,39,-19,-68,-53
-185,-161,24,173,-104,-68,87,68,43,-19,-63,-48
-190,-170,19,180,-104,-75,87,58,39,-34,-82,-53
-195,-170,24,183,-109,-73,82,58,34,-34,-87,-58
-200,-170,29,185,-114,-70,82,58,29,-34,-92,-63
-204,-170,34,187,-119,-68,87,63,24,-29,-97,-68
-204,-175,29,190,-117,-73,92,78,43,-29,-87,-63
-200,-175,24,187,-112,-75,92,78,43,-24,-87,-63
-200,-180,19,190,-109,-80,92,78,39,-19,-82,-63
-200,-180,19,190,-109,-80,92,82,39,-19,-82,-68
-200,-180,19,190,-109,-80,92,73,34,-19,-73,-58
-200,-175,24,187,-112,-75,92,73,34,-19,-73,-58
-200,-170,29,185,-114,-70,92,73,39,-19,-73,-53
-195,-170,24,183,-109,-73,92,73,39,-14,-68,-53
-195,-180,14,187,-104,-82,78,73,48,-14,-73,-63
-200,-180,19,190,-109,-80,78,73,48,-14,-73,-63
-200,-175,24,187,-112,-75,78,73,48,-14,-73,-63
-200,-175,24,187,-112,-75,78,73,48,-14,-78,-63
-200,-175,24,187,-112,-75,87,87,48,-14,-68,-58
-200,-180,19,190,-109,-80,87,92,53,-4,-68,-58
-209,-190,19,200,-114,-85,87,92,58,-4,-63,-58
-209,-190,19,200,-114,-85,87,92,58,-14,-63,-53
-200,-185,14,192,-107,-85,92,92,68,4,-58,-53
-200,-180,19,190,-109,-80,92,92,68,4,-58,-48
-195,-170,24,183,-109,-73,92,92,73,0,-58,-43
-195,-165,29,180,-112,-68,92,97,73,0,-53,-43
-185,-175,9,180,-97,-82,92,87,63,9,-63,-53
-185,-165,19,175,-102,-73,87,87,63,9,-58,-48
-185,-165,19,175,-102,-73,87,87,73,9,-53,-48
-185,-165,19,175,-102,-73,87,87,73,14,-53,-48
-200,-165,34,183,-117,-65,92,92,82,14,-53,-48
-200,-170,29,185,-114,-70,92,97,82,14,-53,-48
-204,-170,34,187,-119,-68,92,97,92,19,-53,-48
-209,-170,39,190,-124,-65,97,97,92,19,-53,-48
-200,-165,34,183,-117,-65,97,112,92,24,-48,-39
-200,-165,34,183,-117,-65,97,112,92,29,-39,-34
-190,-161,29,175,-109,-65,97,122,102,34,-34,-29
-180,-156,24,168,-102,-65,97,122,102,34,-24,-29
-170,-151,19,161,-95,-65,97,122,102,43,-34,-29
-170,-141,29,156,-100,-56,97,122,112,43,-24,-24
-170,-131,39,151,-104,-46,97,122,112,53,-24,-24
-170,-126,43,148,-107,-41,97,122,112,53,-24,-24
-180,-117,63,148,-122,-26,107,136,122,63,-14,-24
-180,-117,63,148,-122,-26,112,141,126,73,-14,-19
-175,-122,53,148,-114,-34,112,141,131,73,-4,-19
-175,-122,53,148,-114,-34,107,141,131,73,0,-19
-165,-117,48,141,-107,-34,102,141,136,73,0,-19
-161,-117,43,139,-102,-36,102,146,141,73,4,-19
-161,-107,53,134,-107,-26,107,146,146,82,4,-14
-165,-107,58,136,-112,-24,107,146,151,87,4,-14
-165,-107,58,136,-112,-24,112,165,161,82,14,0
-161,-102,58,131,-109,-21,112,165,161,82,14,0
-161,-102,58,131,-109,-21,117,165,161,87,14,9
-161,-102,58,131,-109,-21,117,165,170,87,24,9
-156,-102,53,129,-104,-24,117,165,165,102,24,14
-151,-97,53,124,-102,-21,117,165,170,107,24,19
-146,-97,48,122,-97,-24,117,165,170,107,29,29
-146,-87,58,117,-102,-14,117,175,175,107,29,34
-146,-87,58,117,-102,-14,107,180,185,117,29,24
-146,-87,58,117,-102,-14,107,180,190,126,34,29
-146,-87,58,117,-102,-14,107,180,195,131,34,24
-151,-87,63,119,-107,-12,112,185,200,131,43,14
-161,-87,73,124,-117,-7,112,195,195,122,34,24
-156,-87,68,122,-112,-9,107,195,200,122,39,24
-156,-82,73,119,-114,-4,107,195,204,126,48,24
-151,-82,68,117,-109,-7,107,204,209,131,53,34
-151,-78,73,114,-112,-2,107,209,219,151,53,43
-151,-78,73,114,-112,-2,97,214,224,156,58,48
-151,-78,73,114,-112,-2,107,219,234,161,63,48
-141,-68,73,104,-107,2,107,224,244,170,68,58
-141,-68,73,104,-107,2,107,214,239,175,73,48
-146,-68,78,107,-112,4,107,224,244,180,82,48
-146,-63,82,104,-114,9,107,229,253,180,87,48
-141,-48,92,95,-117,21,107,234,263,190,87,53
-141,-58,82,100,-112,12,97,239,263,195,97,63
-131,-58,73,95,-102,7,97,244,268,200,112,73
-126,-48,78,87,-102,14,97,253,283,214,117,78
-126,-39,87,82,-107,24,97,263,287,224,117,82
-131,-34,97,82,-114,31,97,263,297,229,117,73
-131,-34,97,82,-114,31,97,268,307,244,122,78
-131,-29,102,80,-117,36,102,278,317,248,136,82
-126,-24,102,75,-114,39,102,283,322,248,146,87
-102,-19,82,61,-92,31,102,283,326,248,146,107
-102,-9,92,56,-97,41,97,287,336,263,156,122
-102,-9,92,56,-97,41,97,302,351,278,170,126
-102,-4,97,53,-100,46,97,312,366,283,185,136
-87,0,87,43,-87,43,87,317,375,292,190,136
-87,4,92,41,-90,48,92,322,385,307,204,141
-87,4,92,41,-90,48,92,331,395,317,204,146
-82,9,92,36,-87,51,92,341,405,322,214,151
-58,14,73,21,-65,43,92,351,414,331,209,156
-53,29,82,12,-68,56,92,361,429,341,219,161
-53,34,87,9,-70,61,87,370,448,351,234,170
-53,39,92,7,-73,65,87,380,458,370,253,185
-39,43,82,-2,-61,63,97,380,463,370,268,195
-39,53,92,-7,-65,73,97,395,468,385,283,204
-39,58,97,-9,-68,78,97,400,488,405,292,214
-29,68,97,-19,-63,82,97,409,502,419,312,224
-14,82,97,-34,-56,90,92,424,517,424,317,229
-9,82,92,-36,-51,87,87,434,527,439,326,234
-9,87,97,-39,-53,92,82,444,546,458,336,253
4,107,102,-56,-48,104,78,453,566,473,356,263
4,102,97,-53,-46,100,78,453,580,478,380,278
9,107,97,-58,-43,102,78,463,595,497,395,297
24,122,97,-73,-36,109,78,473,600,507,414,317
24,126,102,-75,-39,114,78,478,605,522,429,336
34,122,87,-78,-26,104,82,483,624,551,444,336
34,126,92,-80,-29,109,82,497,639,566,453,346
39,136,97,-87,-29,117,82,507,653,580,473,366
48,146,97,-97,-24,122,82,517,668,595,492,380
43,165,122,-104,-39,143,63,512,678,600,497,395
48,170,122,-109,-36,146,58,522,683,610,512,400
63,175,112,-119,-24,143,58,527,692,624,527,409
63,190,126,-126,-31,158,53,527,697,634,541,419
68,200,131,-134,-31,165,43,536,712,639,541,429
78,200,122,-139,-21,161,48,541,717,658,551,444
87,214,126,-151,-19,170,48,551,722,668,575,453
102,224,122,-163,-9,173,48,556,736,688,595,473
102,214,112,-158,-4,163,48,556,736,692,614,478
102,219,117,-161,-7,168,48,556,741,702,619,488
107,224,117,-165,-4,170,43,556,741,707,629,497
107,229,122,-168,-7,175,43,556,736,707,639,497
107,234,126,-170,-9,180,43,556,741,717,639,512
107,244,136,-175,-14,190,43,551,746,717,653,517
107,244,136,-175,-14,190,39,546,751,717,653,522
107,244,136,-175,-14,190,39,531,751,727,658,527
112,253,141,-183,-14,197,29,527,741,727,673,546
107,253,146,-180,-19,200,29,517,732,727,678,551
112,258,146,-185,-17,202,29,507,727,727,678,551
117,263,146,-190,-14,204,29,497,722,722,688,551
122,273,151,-197,-14,212,29,497,717,732,697,551
122,263,141,-192,-9,202,29,483,707,722,688,541
112,253,141,-183,-14,197,24,473,697,712,683,531
112,248,136,-180,-12,192,24,463,688,712,673,531
122,239,117,-180,2,178,14,434,683,697,668,527
117,234,117,-175,0,175,14,424,663,688,663,527
117,229,112,-173,2,170,14,409,649,673,653,522
117,224,107,-170,4,165,14,400,629,663,639,507
107,219,112,-163,-2,165,14,380,610,663,629,497
107,204,97,-156,4,151,9,366,590,644,610,478
102,195,92,-148,4,143,9,346,570,619,590,463
97,180,82,-139,7,131,0,326,541,600,570,439
73,175,102,-124,-14,139,9,312,527,570,551,419
73,170,97,-122,-12,134,9,292,502,561,531,409
68,161,92,-114,-12,126,-4,278,478,541,512,385
68,151,82,-109,-7,117,-14,268,458,517,492,375
63,146,82,-104,-9,114,-4,253,434,492,468,366
63,126,63,-95,0,95,0,234,409,463,434,346
63,112,48,-87,7,80,0,219,380,444,409,326
63,112,48,-87,7,80,-9,195,361,419,385,297
48,102,53,-75,-2,78,-9,175,336,395,385,283
43,92,48,-68,-2,70,-4,170,317,385,356,273
29,73,43,-51,-7,58,-4,161,297,356,336,253
24,63,39,-43,-7,51,-4,146,278,326,312,239
14,53,39,-34,-12,46,-9,131,258,312,283,219
4,39,34,-21,-14,36,-9,122,239,292,258,200
4,19,14,-12,-4,17,-9,102,219,273,239,180
-14,0,14,7,-14,7,-9,92,200,253,214,161
-4,4,9,0,-7,7,-9,92,185,244,204,161
-4,0,4,2,-4,2,-9,82,175,219,200,146
-14,-9,4,12,-9,-2,-9,78,161,214,185,141
-19,-19,0,19,-9,-9,-4,68,146,204,165,122
-14,-19,-4,17,-4,-12,-4,53,126,180,141,97
-14,-19,-4,17,-4,-12,-9,48,112,156,117,87
-29,-29,0,29,-14,-14,-9,43,92,131,92,63
-34,-34,0,34,-17,-17,-9,34,73,117,63,53
-34,-48,-14,41,-9,-31,4,34,78,112,63,43
-34,-48,-14,41,-9,-31,4,24,68,112,53,34
-43,-53,-9,48,-17,-31,0,14,58,102,53,24
-43,-58,-14,51,-14,-36,0,9,53,92,48,14
-43,-63,-19,53,-12,-41,0,9,43,87,34,19
-43,-68,-24,56,-9,-46,0,9,39,78,34,14
-53,-73,-19,63,-17,-46,0,9,39,68,19,9
-53,-78,-24,65,-14,-51,-4,9,34,58,4,4
-53,-73,-19,63,-17,-46,-14,9,29,58,0,0
-53,-73,-19,63,-17,-46,-9,4,19,53,0,-4
-63,-73,-9,68,-26,-41,-9,0,14,48,0,-4
-68,-78,-9,73,-29,-43,-4,-9,9,43,-4,-9
-58,-82,-24,70,-17,-53,-4,-9,0,24,-19,-19
-63,-82,-19,73,-21,-51,-4,-9,0,24,-24,-24
-63,-82,-19,73,-21,-51,-4,-4,0,19,-34,-29
-63,-87,-24,75,-19,-56,-4,-4,0,19,-39,-29
-63,-97,-34,80,-14,-65,-4,-4,-4,14,-29,-19
-63,-97,-34,80,-14,-65,-4,-14,-4,9,-39,-29
-63,-97,-34,80,-14,-65,-4,-14,-9,4,-43,-29
-63,-102,-39,82,-12,-70,-4,-9,-9,4,-48,-29
-73,-92,-19,82,-26,-56,4,-9,-14,4,-48,-39
-73,-92,-19,82,-26,-56,4,-9,-14,4,-48,-39
-82,-97,-14,90,-34,-56,4,-9,-14,0,-53,-43
-87,-107,-19,97,-34,-63,4,-9,-14,0,-53,-43
-87,-97,-9,92,-39,-53,0,-9,-14,0,-53,-43
-78,-87,-9,82,-34,-48,0,-14,-19,0,-58,-43
-73,-87,-14,80,-29,-51,0,-14,-19,-4,-58,-43
-73,-87,-14,80,-29,-51,0,-14,-19,-4,-58,-43
-73,-78,-4,75,-34,-41,0,-14,-19,-4,-68,-53
-73,-78,-4,75,-34,-41,0,-14,-19,-4,-68,-48
-73,-78,-4,75,-34,-41,0,-9,-19,-4,-68,-48
-78,-82,-4,80,-36,-43,0,-9,-19,0,-63,-53
-73,-82,-9,78,-31,-46,0,-9,-19,0,-63,-43
-73,-92,-19,82,-26,-56,0,-9,-19,-4,-63,-48
-63,-82,-19,73,-21,-51,0,-9,-19,-4,-63,-48
-63,-78,-14,70,-24,-46,0,-9,-19,-4,-63,-48
-73,-87,-14,80,-29,-51,-9,-9,-19,4,-63,-48
-78,-87,-9,82,-34,-48,-4,-9,-19,4,-63,-48
-82,-87,-4,85,-39,-46,-4,-9,-14,4,-63,-48
-92,-87,4,90,-48,-41,-4,-9,-14,4,-63,-48
-92,-87,4,90,-48,-41,0,-9,-24,-4,-63,-48
-87,-87,0,87,-43,-43,0,-4,-24,-4,-63,-48
-82,-87,-4,85,-39,-46,0,-4,-24,0,-63,-48
-82,-92,-9,87,-36,-51,4,-4,-24,0,-63,-43
-78,-82,-4,80,-36,-43,4,-4,-14,-9,-63,-43
-78,-78,0,78,-39,-39,4,-4,-14,-9,-63,-39
-78,-78,0,78,-39,-39,4,-4,-14,-9,-63,-39
-73,-78,-4,75,-34,-41,4,-4,-14,-9,-58,-39
-63,-78,-14,70,-24,-46,-4,-4,-9,4,-48,-29
-63,-78,-14,70,-24,-46,-4,0,-9,4,-48,-29
-73,-78,-4,75,-34,-41,-4,0,-9,4,-48,-34
-73,-78,-4,75,-34,-41,-4,0,-9,9,-43,-34
-73,-78,-4,75,-34,-41,-4,0,-9,9,-48,-39
-68,-73,-4,70,-31,-39,-9,0,-9,4,-48,-43
-68,-73,-4,70,-31,-39,-9,0,-9,4,-48,-48
-68,-82,-14,75,-26,-48,-9,-4,-9,4,-48,-53
-87,-92,-4,90,-41,-48,0,-4,-9,0,-58,-53
-87,-87,0,87,-43,-43,0,0,-9,0,-53,-48
-82,-87,-4,85,-39,-46,0,0,-4,0,-53,-48
-82,-87,-4,85,-39,-46,0,0,-4,0,-53,-48
-82,-78,4,80,-43,-36,-9,0,-4,14,-43,-39
-87,-78,9,82,-48,-34,-4,0,-4,14,-43,-34
-87,-82,4,85,-46,-39,-4,0,-4,14,-48,-34
-87,-82,4,85,-46,-39,-4,-9,-4,14,-48,-34
-73,-73,0,73,-36,-36,-4,0,-4,4,-48,-34
-73,-73,0,73,-36,-36,-4,0,-4,9,-39,-34
-82,-73,9,78,-46,-31,-4,0,-4,9,-39,-34
-82,-78,4,80,-43,-36,-4,0,-9,4,-43,-34
-82,-82,0,82,-41,-41,4,0,-9,0,-43,-34
-82,-87,-4,85,-39,-46,4,0,-9,0,-43,-43
-78,-87,-9,82,-34,-48,0,0,-9,4,-43,-34
-78,-92,-14,85,-31,-53,0,0,-14,4,-43,-34
-82,-92,-9,87,-36,-51,-9,-9,-14,4,-48,-24
-82,-97,-14,90,-34,-56,-9,-9,-9,4,-48,-19
-78,-97,-19,87,-29,-58,-9,-9,-9,4,-48,-19
-78,-102,-24,90,-26,-63,-9,-9,-9,4,-48,-19
-78,-102,-24,90,-26,-63,-9,0,-9,0,-39,-29
-78,-97,-19,87,-29,-58,-9,-4,-9,0,-39,-29
-78,-92,-14,85,-31,-53,-4,-4,-9,0,-43,-29
-78,-92,-14,85,-31,-53,-4,-4,-9,0,-43,-29
-92,-82,9,87,-51,-36,4,-4,-14,9,-53,-29
-92,-92,0,92,-46,-46,4,-4,-19,4,-53,-34
-87,-82,4,85,-46,-39,0,-9,-19,4,-53,-39
-82,-82,0,82,-41,-41,0,-9,-19,4,-53,-39
-73,-82,-9,78,-31,-46,9,-4,-9,4,-43,-48
-82,-87,-4,85,-39,-46,-4,-4,-14,4,-48,-53
-82,-97,-14,90,-34,-56,-4,-9,-19,-4,-58,-53
-78,-87,-9,82,-34,-48,0,-9,-19,-4,-58,-53
-87,-97,-9,92,-39,-53,-4,-9,-19,-4,-68,-53
