I,II,III,aVR,aVL,aVF,V1,V2,V3,V4,V5,V6
-9,-29,-19,19,4,-24,87,175,78,9,-29,-39
-9,-29,-19,19,4,-24,87,175,78,9,-29,-39
-9,-29,-19,19,4,-24,87,175,78,9,-29,-39
-9,-29,-19,19,4,-24,87,175,78,9,-29,-39
-19,-19,0,19,-9,-9,92,190,87,14,-29,-39
-19,-19,0,19,-9,-9,97,195,87,19,-29,-39
-19,-19,0,19,-9,-9,102,200,87,24,-29,-39
-19,-19,0,19,-9,-9,107,204,87,29,-29,-39
-19,-29,-9,24,-4,-19,117,219,92,19,-29,-39
-19,-29,-9,24,-4,-19,117,224,97,19,-29,-39
-19,-29,-9,24,-4,-19,117,229,102,19,-29,-39
-19,-29,-9,24,-4,-19,117,234,107,19,-29,-39
-9,-29,-19,19,4,-24,117,248,112,29,-34,-43
-9,-29,-19,19,4,-24,117,253,117,29,-39,-48
-9,-29,-19,19,4,-24,117,258,122,29,-43,-53
-9,-29,-19,19,4,-24,117,263,126,29,-48,-58
-9,-19,-9,14,0,-14,131,278,136,39,-39,-48
-9,-19,-9,14,0,-14,136,283,136,39,-39,-48
-9,-19,-9,14,0,-14,141,287,136,39,-39,-48
-9,-19,-9,14,0,-14,146,292,136,39,-39,-48
-14,-29,-14,21,0,-21,151,312,146,43,-29,-39
-19,-29,-9,24,-4,-19,156,322,156,48,-29,-39
-24,-29,-4,26,-9,-17,161,331,165,53,-29,-39
-29,-29,0,29,-14,-14,165,341,175,58,-29,-39
-19,-19,0,19,-9,-9,170,346,185,48,-29,-48
-19,-19,0,19,-9,-9,175,351,185,48,-29,-48
-19,-19,0,19,-9,-9,180,356,185,48,-29,-48
-19,-19,0,19,-9,-9,185,361,185,48,-29,-48
-29,-19,9,24,-19,-4,190,366,195,48,-39,-48
-29,-19,9,24,-19,-4,195,370,195,48,-39,-48
-29,-19,9,24,-19,-4,200,375,195,48,-39,-48
-29,-19,9,24,-19,-4,204,380,195,48,-39,-48
-29,-9,19,19,-24,4,209,390,195,34,-53,-63
-29,-9,19,19,-24,4,214,390,195,29,-58,-68
-29,-9,19,19,-24,4,219,390,195,24,-63,-73
-29,-9,19,19,-24,4,224,390,195,19,-68,-78
-39,-9,29,24,-34,9,224,400,185,9,-73,-87
-39,-9,29,24,-34,9,224,400,185,9,-78,-87
-39,-9,29,24,-34,9,224,400,185,9,-82,-87
-39,-9,29,24,-34,9,224,400,185,9,-87,-87
-43,-14,29,29,-36,7,239,400,195,4,-97,-97
-48,-19,29,34,-39,4,244,400,195,0,-97,-97
-53,-24,29,39,-41,2,248,400,195,-4,-97,-97
-58,-29,29,43,-43,0,253,400,195,-9,-97,-97
-68,-29,39,48,-53,4,263,400,190,-14,-102,-97
-68,-29,39,48,-53,4,263,400,185,-19,-107,-97
-68,-29,39,48,-53,4,263,400,180,-24,-112,-97
-68,-29,39,48,-53,4,263,400,175,-29,-117,-97
-78,-29,48,53,-63,9,273,395,185,-29,-107,-107
-78,-29,48,53,-63,9,273,390,185,-29,-107,-107
-78,-29,48,53,-63,9,273,385,185,-29,-107,-107
-78,-29,48,53,-63,9,273,380,185,-29,-107,-107
-78,-14,63,46,-70,24,263,375,175,-29,-107,-92
-78,-9,68,43,-73,29,263,370,175,-29,-107,-87
-78,-4,73,41,-75,34,263,366,175,-29,-107,-82
-78,0,78,39,-78,39,263,361,175,-29,-107,-78
-68,9,78,29,-73,43,253,341,175,-19,-102,-87
-68,9,78,29,-73,43,244,331,175,-19,-97,-87
-68,9,78,29,-73,43,234,322,175,-19,-92,-87
-68,9,78,29,-73,43,224,312,175,-19,-87,-87
-58,9,68,24,-63,39,219,292,165,-4,-73,-78
-58,9,68,24,-63,39,214,283,165,0,-68,-68
-58,9,68,24,-63,39,209,273,165,4,-63,-58
-58,9,68,24,-63,39,204,263,165,9,-58,-48
-53,19,73,17,-63,46,185,248,161,14,-48,-34
-48,19,68,14,-58,43,175,234,156,19,-39,-29
-43,19,63,12,-53,41,165,219,151,24,-29,-24
-39,19,58,9,-48,39,156,204,146,29,-19,-19
-29,24,53,2,-41,39,141,180,141,39,-4,-14
-29,29,58,0,-43,43,126,165,136,39,0,-9
-29,34,63,-2,-46,48,112,151,131,39,4,-4
-29,39,68,-4,-48,53,97,136,126,39,9,0
-24,39,63,-7,-43,51,87,122,112,39,19,0
-19,39,58,-9,-39,48,78,107,107,39,19,0
-14,39,53,-12,-34,46,68,92,102,39,19,0
-9,39,48,-14,-29,43,58,78,97,39,19,0
-9,29,39,-9,-24,34,53,58,82,39,24,4
-9,29,39,-9,-24,34,48,48,78,39,29,9
-9,29,39,-9,-24,34,43,39,73,39,34,14
-9,29,39,-9,-24,34,39,29,68,39,39,19
-9,19,29,-4,-19,24,24,19,63,34,39,9
-9,19,29,-4,-19,24,19,9,58,29,39,9
-9,19,29,-4,-19,24,14,0,53,24,39,9
-9,19,29,-4,-19,24,9,-9,48,19,39,9
-9,19,29,-4,-19,24,0,-24,43,9,29,19
-9,19,29,-4,-19,24,0,-29,39,9,29,19
-9,19,29,-4,-19,24,0,-34,34,9,29,19
-9,19,29,-4,-19,24,0,-39,29,9,29,19
0,19,19,-9,-9,19,-9,-43,24,9,19,14
0,19,19,-9,-9,19,-9,-48,19,9,19,9
0,19,19,-9,-9,19,-9,-53,14,9,19,4
0,19,19,-9,-9,19,-9,-58,9,9,19,0
0,19,19,-9,-9,19,-19,-58,9,0,19,9
0,19,19,-9,-9,19,-19,-58,9,0,19,9
0,19,19,-9,-9,19,-19,-58,9,0,19,9
0,19,19,-9,-9,19,-19,-58,9,0,19,9
0,19,19,-9,-9,19,-19,-68,0,9,19,0
0,19,19,-9,-9,19,-19,-68,0,9,19,0
0,19,19,-9,-9,19,-19,-68,0,9,19,0
0,19,19,-9,-9,19,-19,-68,0,9,19,0
0,29,29,-14,-14,29,-19,-58,9,9,29,9
0,29,29,-14,-14,29,-19,-58,9,9,29,9
0,29,29,-14,-14,29,-19,-58,9,9,29,9
0,29,29,-14,-14,29,-19,-58,9,9,29,9
-9,24,34,-7,-21,29,-19,-48,9,4,24,0
-9,19,29,-4,-19,24,-19,-48,9,0,19,0
-9,14,24,-2,-17,19,-19,-48,9,-4,14,0
-9,9,19,0,-14,14,-19,-48,9,-9,9,0
-9,4,14,2,-12,9,-9,-48,9,0,19,0
-9,0,9,4,-9,4,-9,-48,9,0,19,0
-9,-4,4,7,-7,0,-9,-48,9,0,19,0
-9,-9,0,9,-4,-4,-9,-48,9,0,19,0
-9,-4,4,7,-7,0,-19,-48,9,0,9,0
-9,0,9,4,-9,4,-19,-48,9,0,9,0
-9,4,14,2,-12,9,-19,-48,9,0,9,0
-9,9,19,0,-14,14,-19,-48,9,0,9,0
-9,9,19,0,-14,14,-19,-48,0,-9,0,-9
-9,9,19,0,-14,14,-19,-48,0,-9,0,-9
-9,9,19,0,-14,14,-19,-48,0,-9,0,-9
-9,9,19,0,-14,14,-19,-48,0,-9,0,-9
0,9,9,-4,-4,9,-9,-48,4,-4,4,0
0,9,9,-4,-4,9,-9,-48,9,0,9,0
0,9,9,-4,-4,9,-9,-48,14,4,14,0
0,9,9,-4,-4,9,-9,-48,19,9,19,0
9,19,9,-14,0,14,-9,-39,19,9,19,-9
9,19,9,-14,0,14,-9,-39,19,9,19,-9
9,19,9,-14,0,14,-9,-39,19,9,19,-9
9,19,9,-14,0,14,-9,-39,19,9,19,-9
0,19,19,-9,-9,19,-14,-48,9,4,9,0
0,19,19,-9,-9,19,-19,-48,9,0,9,0
0,19,19,-9,-9,19,-24,-48,9,-4,9,0
0,19,19,-9,-9,19,-29,-48,9,-9,9,0
0,29,29,-14,-14,29,-19,-48,9,0,19,9
0,29,29,-14,-14,29,-19,-48,9,0,19,9
0,29,29,-14,-14,29,-19,-48,9,0,19,9
0,29,29,-14,-14,29,-19,-48,9,0,19,9
0,29,29,-14,-14,29,-19,-39,9,0,19,9
0,29,29,-14,-14,29,-19,-39,9,0,19,9
0,29,29,-14,-14,29,-19,-39,9,0,19,9
0,29,29,-14,-14,29,-19,-39,9,0,19,9
0,19,19,-9,-9,19,-19,-39,9,9,19,0
0,19,19,-9,-9,19,-19,-39,9,9,19,0
0,19,19,-9,-9,19,-19,-39,9,9,19,0
0,19,19,-9,-9,19,-19,-39,9,9,19,0
0,19,19,-9,-9,19,-19,-43,0,9,19,9
0,19,19,-9,-9,19,-19,-48,0,9,19,9
0,19,19,-9,-9,19,-19,-53,0,9,19,9
0,19,19,-9,-9,19,-19,-58,0,9,19,9
0,9,9,-4,-4,9,-19,-48,0,0,14,0
0,9,9,-4,-4,9,-19,-48,0,0,9,0
0,9,9,-4,-4,9,-19,-48,0,0,4,0
0,9,9,-4,-4,9,-19,-48,0,0,0,0
0,0,0,0,0,0,-19,-48,0,9,4,0
0,0,0,0,0,0,-19,-48,0,9,9,0
0,0,0,0,0,0,-19,-48,0,9,14,0
0,0,0,0,0,0,-19,-48,0,9,19,0
-9,9,19,0,-14,14,-19,-48,-4,4,9,0
-9,9,19,0,-14,14,-19,-48,-9,0,9,0
-9,9,19,0,-14,14,-19,-48,-14,-4,9,0
-9,9,19,0,-14,14,-19,-48,-19,-9,9,0
0,14,14,-7,-7,14,-29,-63,-29,-19,0,0
0,19,19,-9,-9,19,-29,-68,-29,-19,0,0
0,24,24,-12,-12,24,-29,-73,-29,-19,0,0
0,29,29,-14,-14,29,-29,-78,-29,-19,0,0
0,29,29,-14,-14,29,-39,-78,-29,-19,0,0
0,29,29,-14,-14,29,-39,-78,-29,-19,0,0
0,29,29,-14,-14,29,-39,-78,-29,-19,0,0
0,29,29,-14,-14,29,-39,-78,-29,-19,0,0
-9,19,29,-4,-19,24,-39,-87,-29,-29,0,0
-9,19,29,-4,-19,24,-39,-87,-29,-29,0,0
-9,19,29,-4,-19,24,-39,-87,-29,-29,0,0
-9,19,29,-4,-19,24,-39,-87,-29,-29,0,0
-9,9,19,0,-14,14,-39,-87,-39,-39,-9,-4
-9,9,19,0,-14,14,-39,-87,-39,-39,-9,-9
-9,9,19,0,-14,14,-39,-87,-39,-39,-9,-14
-9,9,19,0,-14,14,-39,-87,-39,-39,-9,-19
0,19,19,-9,-9,19,-39,-97,-39,-29,-9,-9
0,19,19,-9,-9,19,-39,-97,-39,-29,-9,-9
0,19,19,-9,-9,19,-39,-97,-39,-29,-9,-9
0,19,19,-9,-9,19,-39,-97,-39,-29,-9,-9
0,19,19,-9,-9,19,-39,-97,-39,-39,-9,-9
0,19,19,-9,-9,19,-39,-97,-39,-39,-9,-9
0,19,19,-9,-9,19,-39,-97,-39,-39,-9,-9
0,19,19,-9,-9,19,-39,-97,-39,-39,-9,-9
-9,19,29,-4,-19,24,-48,-107,-39,-29,-9,-9
-9,19,29,-4,-19,24,-48,-107,-39,-29,-9,-9
-9,19,29,-4,-19,24,-48,-107,-39,-29,-9,-9
-9,19,29,-4,-19,24,-48,-107,-39,-29,-9,-9
-9,14,24,-2,-17,19,-39,-97,-39,-39,0,-9
-9,9,19,0,-14,14,-39,-97,-39,-39,0,-9
-9,4,14,2,-12,9,-39,-97,-39,-39,0,-9
-9,0,9,4,-9,4,-39,-97,-39,-39,0,-9
-9,9,19,0,-14,14,-39,-107,-48,-48,-4,-19
-9,9,19,0,-14,14,-39,-107,-48,-48,-9,-19
-9,9,19,0,-14,14,-39,-107,-48,-48,-14,-19
-9,9,19,0,-14,14,-39,-107,-48,-48,-19,-19
-9,19,29,-4,-19,24,-48,-107,-48,-39,-9,-14
-9,19,29,-4,-19,24,-48,-107,-48,-39,-9,-9
-9,19,29,-4,-19,24,-48,-107,-48,-39,-9,-4
-9,19,29,-4,-19,24,-48,-107,-48,-39,-9,0
-9,19,29,-4,-19,24,-48,-107,-48,-39,0,0
-9,19,29,-4,-19,24,-48,-107,-48,-39,0,0
-9,19,29,-4,-19,24,-48,-107,-48,-39,0,0
-9,19,29,-4,-19,24,-48,-107,-48,-39,0,0
0,19,19,-9,-9,19,-48,-117,-58,-39,-4,0
0,19,19,-9,-9,19,-48,-117,-58,-39,-9,0
0,19,19,-9,-9,19,-48,-117,-58,-39,-14,0
0,19,19,-9,-9,19,-48,-117,-58,-39,-19,0
0,24,24,-12,-12,24,-53,-126,-58,-48,-9,-4
0,29,29,-14,-14,29,-58,-126,-58,-48,-9,-9
0,34,34,-17,-17,34,-63,-126,-58,-48,-9,-14
0,39,39,-19,-19,39,-68,-126,-58,-48,-9,-19
-9,34,43,-12,-26,39,-58,-117,-58,-48,-19,-19
-9,29,39,-9,-24,34,-58,-117,-58,-48,-19,-19
-9,24,34,-7,-21,29,-58,-117,-58,-48,-19,-19
-9,19,29,-4,-19,24,-58,-117,-58,-48,-19,-19
-9,9,19,0,-14,14,-48,-117,-58,-39,-19,-19
-9,9,19,0,-14,14,-48,-117,-58,-39,-19,-19
-9,9,19,0,-14,14,-48,-117,-58,-39,-19,-19
-9,9,19,0,-14,14,-48,-117,-58,-39,-19,-19
-9,19,29,-4,-19,24,-58,-126,-68,-48,-19,-9
-9,19,29,-4,-19,24,-58,-126,-68,-48,-19,-9
-9,19,29,-4,-19,24,-58,-126,-68,-48,-19,-9
-9,19,29,-4,-19,24,-58,-126,-68,-48,-19,-9
-9,9,19,0,-14,14,-68,-126,-58,-48,-19,-19
-9,9,19,0,-14,14,-68,-126,-58,-48,-19,-19
-9,9,19,0,-14,14,-68,-126,-58,-48,-19,-19
-9,9,19,0,-14,14,-68,-126,-58,-48,-19,-19
0,9,9,-4,-4,9,-68,-117,-48,-39,-9,-14
0,9,9,-4,-4,9,-68,-117,-48,-39,-9,-9
0,9,9,-4,-4,9,-68,-117,-48,-39,-9,-4
0,9,9,-4,-4,9,-68,-117,-48,-39,-9,0
0,14,14,-7,-7,14,-68,-126,-53,-43,-14,-14
0,19,19,-9,-9,19,-68,-126,-58,-48,-19,-19
0,24,24,-12,-12,24,-68,-126,-63,-53,-24,-24
0,29,29,-14,-14,29,-68,-126,-68,-58,-29,-29
-9,19,29,-4,-19,24,-58,-126,-58,-48,-24,-14
-9,19,29,-4,-19,24,-58,-126,-58,-48,-19,-9
-9,19,29,-4,-19,24,-58,-126,-58,-48,-14,-4
-9,19,29,-4,-19,24,-58,-126,-58,-48,-9,0
-4,29,34,-12,-19,31,-58,-117,-58,-58,-14,-9
0,29,29,-14,-14,29,-58,-117,-58,-58,-19,-19
4,29,24,-17,-9,26,-58,-117,-58,-58,-24,-29
9,29,19,-19,-4,24,-58,-117,-58,-58,-29,-39
0,29,29,-14,-14,29,-68,-122,-68,-58,-29,-24
0,29,29,-14,-14,29,-68,-126,-68,-58,-29,-19
0,29,29,-14,-14,29,-68,-131,-68,-58,-29,-14
0,29,29,-14,-14,29,-68,-136,-68,-58,-29,-9
-9,19,29,-4,-19,24,-68,-136,-68,-58,-19,-14
-9,19,29,-4,-19,24,-68,-136,-68,-58,-19,-19
-9,19,29,-4,-19,24,-68,-136,-68,-58,-19,-24
-9,19,29,-4,-19,24,-68,-136,-68,-58,-19,-29
-9,9,19,0,-14,14,-68,-126,-68,-58,-19,-29
-9,9,19,0,-14,14,-68,-126,-68,-58,-19,-29
-9,9,19,0,-14,14,-68,-126,-68,-58,-19,-29
-9,9,19,0,-14,14,-68,-126,-68,-58,-19,-29
-9,19,29,-4,-19,24,-68,-126,-58,-48,-19,-19
-9,19,29,-4,-19,24,-68,-126,-58,-48,-19,-19
-9,19,29,-4,-19,24,-68,-126,-58,-48,-19,-19
-9,19,29,-4,-19,24,-68,-126,-58,-48,-19,-19
0,19,19,-9,-9,19,-68,-126,-68,-58,-29,-9
0,19,19,-9,-9,19,-68,-126,-68,-58,-29,-9
0,19,19,-9,-9,19,-68,-126,-68,-58,-29,-9
0,19,19,-9,-9,19,-68,-126,-68,-58,-29,-9
-9,9,19,0,-14,14,-68,-136,-68,-58,-19,-19
-9,9,19,0,-14,14,-68,-136,-68,-58,-19,-19
-9,9,19,0,-14,14,-68,-136,-68,-58,-19,-19
-9,9,19,0,-14,14,-68,-136,-68,-58,-19,-19
-9,14,24,-2,-17,19,-68,-136,-68,-58,-19,-9
-9,19,29,-4,-19,24,-68,-136,-68,-58,-19,-9
-9,24,34,-7,-21,29,-68,-136,-68,-58,-19,-9
-9,29,39,-9,-24,34,-68,-136,-68,-58,-19,-9
-9,19,29,-4,-19,24,-68,-136,-78,-68,-24,-19
-9,19,29,-4,-19,24,-68,-136,-78,-68,-29,-19
-9,19,29,-4,-19,24,-68,-136,-78,-68,-34,-19
-9,19,29,-4,-19,24,-68,-136,-78,-68,-39,-19
-9,29,39,-9,-24,34,-68,-126,-73,-63,-34,-19
-9,29,39,-9,-24,34,-68,-126,-68,-58,-29,-19
-9,29,39,-9,-24,34,-68,-126,-63,-53,-24,-19
-9,29,39,-9,-24,34,-68,-126,-58,-48,-19,-19
-9,39,48,-14,-29,43,-58,-117,-58,-39,-9,-9
-9,39,48,-14,-29,43,-58,-117,-58,-39,-9,-9
-9,39,48,-14,-29,43,-58,-117,-58,-39,-9,-9
-9,39,48,-14,-29,43,-58,-117,-58,-39,-9,-9
0,53,53,-26,-26,53,-53,-107,-53,-29,0,0
0,58,58,-29,-29,58,-48,-107,-48,-29,0,0
0,63,63,-31,-31,63,-43,-107,-43,-29,0,0
0,73,73,-36,-36,73,-29,-102,-34,-29,0,0
9,78,68,-43,-29,73,-34,-87,-24,-19,14,14
9,82,73,-46,-31,78,-29,-87,-24,-19,14,19
9,97,87,-53,-39,92,-24,-87,-24,-19,14,19
9,97,87,-53,-39,92,-19,-87,-24,-19,14,19
0,107,107,-53,-53,107,-4,-87,-14,-19,34,34
0,112,112,-56,-56,112,-4,-82,-9,-4,34,34
0,117,117,-58,-58,117,-4,-82,-4,0,34,34
4,122,117,-63,-56,119,-4,-82,-4,0,39,34
9,122,112,-65,-51,117,-4,-78,-4,9,29,43
9,122,112,-65,-51,117,-4,-73,0,9,34,48
9,126,117,-68,-53,122,-9,-73,0,9,34,48
14,126,112,-70,-48,119,-19,-73,0,14,34,48
24,126,102,-75,-39,114,-29,-73,0,4,34,43
29,126,97,-78,-34,112,-39,-73,0,4,43,53
34,141,107,-87,-36,124,-39,-73,14,19,53,53
39,151,112,-95,-36,131,-39,-73,14,24,53,53
43,161,117,-102,-36,139,-43,-63,14,24,53,53
53,156,102,-104,-24,129,-58,-68,4,19,53,53
53,146,92,-100,-19,119,-68,-73,0,9,48,53
53,141,87,-97,-17,114,-82,-87,-14,0,43,39
53,131,78,-92,-12,104,-78,-102,-19,-9,39,39
53,131,78,-92,-12,104,-87,-112,-24,-9,39,48
53,131,78,-92,-12,104,-87,-112,-24,-14,29,48
53,126,73,-90,-9,100,-87,-112,-24,-14,29,48
53,136,82,-95,-14,109,-92,-102,-24,-4,39,58
58,136,78,-97,-9,107,-97,-97,-19,14,48,68
58,136,78,-97,-9,107,-107,-92,-9,14,53,68
58,126,68,-92,-4,97,-112,-87,-9,14,53,68
63,122,58,-92,2,90,-102,-78,0,24,53,63
68,107,39,-87,14,73,-107,-78,-9,19,48,48
68,102,34,-85,17,68,-112,-82,-19,14,43,39
63,97,34,-80,14,65,-112,-82,-24,4,34,34
63,92,29,-78,17,61,-112,-73,-19,4,43,29
63,78,14,-70,24,46,-122,-92,-24,-9,39,29
68,73,4,-70,31,39,-122,-102,-39,-14,34,34
68,73,4,-70,31,39,-122,-117,-48,-24,19,34
53,63,9,-58,21,36,-126,-126,-58,-29,4,14
39,63,24,-51,7,43,-112,-122,-53,-29,4,14
29,58,29,-43,0,43,-97,-122,-53,-29,4,14
14,53,39,-34,-12,46,-92,-122,-58,-34,4,14
4,48,43,-26,-19,46,-82,-126,-63,-39,9,4
4,48,43,-26,-19,46,-82,-136,-68,-43,4,9
-4,29,34,-12,-19,31,-82,-141,-78,-58,-4,9
-9,24,34,-7,-21,29,-82,-146,-82,-63,-19,9
-14,9,24,2,-19,17,-92,-170,-97,-68,-34,-14
-14,4,19,4,-17,12,-102,-175,-102,-73,-34,-19
-9,4,14,2,-12,9,-107,-175,-102,-78,-39,-24
-4,4,9,0,-7,7,-112,-180,-107,-82,-43,-34
-14,14,29,0,-21,21,-122,-180,-112,-87,-53,-39
-14,9,24,2,-19,17,-122,-180,-117,-92,-53,-39
-14,9,24,2,-19,17,-112,-180,-122,-97,-53,-29
-24,9,34,7,-29,21,-107,-180,-126,-102,-53,-19
-24,0,24,12,-24,12,-102,-180,-117,-92,-48,-39
-19,4,24,7,-21,14,-97,-175,-112,-92,-48,-39
-19,4,24,7,-21,14,-92,-170,-107,-82,-43,-24
-24,4,29,9,-26,17,-87,-170,-107,-82,-43,-24
-14,-4,9,9,-12,2,-87,-170,-107,-82,-43,-24
-14,-4,9,9,-12,2,-87,-175,-112,-87,-43,-34
-14,-9,4,12,-9,-2,-82,-175,-112,-87,-43,-24
-19,-9,9,14,-14,0,-82,-175,-112,-87,-39,-24
-29,-4,24,17,-26,9,-82,-175,-112,-87,-39,-34
-29,4,34,12,-31,19,-82,-175,-112,-87,-43,-34
-29,9,39,9,-34,24,-82,-175,-112,-87,-43,-34
-29,14,43,7,-36,29,-82,-175,-112,-87,-43,-34
-29,14,43,7,-36,29,-87,-161,-102,-78,-43,-24
-29,14,43,7,-36,29,-87,-161,-102,-78,-39,-29
-29,14,43,7,-36,29,-87,-161,-102,-78,-39,-29
-34,4,39,14,-36,21,-82,-161,-97,-78,-39,-24
-34,-4,29,19,-31,12,-82,-165,-97,-87,-48,-34
-34,-4,29,19,-31,12,-82,-165,-97,-87,-53,-39
-34,-4,29,19,-31,12,-82,-165,-102,-87,-53,-39
-34,-4,29,19,-31,12,-82,-165,-102,-87,-53,-39
-34,-4,29,19,-31,12,-82,-170,-112,-97,-53,-24
-34,-4,29,19,-31,12,-82,-170,-112,-97,-53,-24
-34,-4,29,19,-31,12,-87,-170,-112,-97,-53,-29
-34,-4,29,19,-31,12,-87,-170,-112,-97,-53,-29
-19,-4,14,12,-17,4,-87,-170,-112,-87,-39,-29
-19,-4,14,12,-17,4,-87,-170,-112,-87,-39,-29
-24,-4,19,14,-21,7,-87,-170,-112,-87,-39,-29
-24,-4,19,14,-21,7,-87,-170,-112,-87,-39,-29
-34,-4,29,19,-31,12,-87,-180,-112,-87,-53,-29
-34,-4,29,19,-31,12,-87,-180,-112,-92,-53,-39
-34,-4,29,19,-31,12,-87,-180,-112,-92,-53,-53
-34,-4,29,19,-31,12,-87,-180,-112,-87,-53,-43
-29,-9,19,19,-24,4,-78,-175,-102,-87,-39,-39
-29,-9,19,19,-24,4,-78,-175,-102,-87,-39,-39
-29,-4,24,17,-26,9,-78,-175,-102,-87,-39,-48
-29,-4,24,17,-26,9,-78,-170,-97,-82,-39,-39
-19,-4,14,12,-17,4,-73,-156,-97,-73,-29,-19
-19,9,29,4,-24,19,-63,-146,-87,-63,-29,-19
-14,9,24,2,-19,17,-53,-117,-63,-63,-29,-19
-9,0,9,4,-9,4,-48,-82,-34,-34,-14,-9
-4,19,24,-7,-14,21,-39,-29,9,0,14,19
19,68,48,-43,-14,58,-9,48,87,73,73,63
48,126,78,-87,-14,102,19,146,175,161,141,87
68,180,112,-124,-21,146,68,244,273,263,224,131
87,195,107,-141,-9,151,102,370,361,356,287,185
117,185,68,-151,24,126,126,497,463,463,356,229
161,214,53,-187,53,134,117,605,580,600,453,287
234,278,43,-256,95,161,82,663,697,771,595,380
317,351,34,-334,141,192,34,727,824,980,775,512
385,429,43,-407,170,236,-43,775,961,1220,976,678
448,541,92,-495,178,317,-126,746,1088,1439,1195,829
478,697,219,-588,129,458,-204,678,1176,1634,1400,980
488,834,346,-661,70,590,-287,512,1185,1747,1576,1156
439,927,488,-683,-24,707,-375,234,1049,1678,1654,1273
336,941,605,-639,-134,773,-419,-48,795,1444,1537,1234
219,814,595,-517,-187,705,-429,-283,492,1073,1229,1024
78,566,488,-322,-204,527,-375,-570,112,551,751,668
-131,287,419,-78,-275,353,-287,-980,-409,-141,136,239
-317,97,414,109,-366,256,-209,-1376,-878,-756,-390,-141
-380,29,409,175,-395,219,-190,-1468,-1019,-971,-614,-351
-361,-4,356,183,-358,175,-175,-1307,-912,-873,-605,-385
-331,-4,326,168,-329,161,-185,-1185,-834,-775,-551,-346
-297,0,297,148,-297,148,-234,-1151,-819,-746,-517,-322
-234,-24,209,129,-222,92,-307,-1093,-805,-722,-492,-307
-190,-43,146,117,-168,51,-331,-990,-746,-668,-453,-283
-156,-34,122,95,-139,43,-287,-854,-644,-566,-390,-234
-122,-39,82,80,-102,21,-239,-673,-527,-463,-317,-195
-78,-48,29,63,-53,-9,-190,-502,-424,-361,-258,-185
-53,-39,14,46,-34,-12,-126,-346,-312,-258,-190,-141
-48,-39,9,43,-29,-14,-68,-219,-180,-161,-102,-78
-43,-9,34,26,-39,12,-43,-146,-107,-107,-78,-58
-43,19,63,12,-53,41,-34,-112,-78,-87,-73,-48
-34,14,48,9,-41,31,-24,-97,-63,-73,-63,-39
-29,14,43,7,-36,29,-9,-82,-53,-68,-53,-34
-19,24,43,-2,-31,34,-4,-82,-63,-68,-53,-43
-34,24,58,4,-46,41,-4,-82,-63,-68,-53,-48
-39,19,58,9,-48,39,-4,-78,-68,-68,-58,-48
-39,14,53,12,-46,34,-4,-68,-68,-68,-58,-48
-53,-9,43,31,-48,17,-4,-68,-63,-63,-48,-43
-53,-9,43,31,-48,17,0,-68,-58,-63,-58,-48
-53,-14,39,34,-46,12,0,-68,-53,-63,-58,-48
-53,-14,39,34,-46,12,0,-68,-48,-63,-53,-43
-43,-14,29,29,-36,7,0,-68,-53,-68,-58,-43
-39,-14,24,26,-31,4,0,-63,-53,-68,-58,-43
-39,-9,29,24,-34,9,0,-63,-53,-68,-58,-48
-39,-9,29,24,-34,9,-4,-53,-53,-68,-58,-48
-43,-14,29,29,-36,7,4,-53,-43,-58,-48,-29
-43,-14,29,29,-36,7,4,-53,-43,-58,-48,-43
-43,-19,24,31,-34,2,9,-53,-43,-58,-48,-43
-43,-19,24,31,-34,2,9,-53,-43,-58,-48,-43
-39,-14,24,26,-31,4,0,-53,-48,-68,-53,-34
-39,-14,24,26,-31,4,0,-43,-48,-68,-53,-39
-39,-14,24,26,-31,4,0,-39,-48,-58,-53,-43
-39,-24,14,31,-26,-4,0,-39,-48,-58,-53,-58
-39,-24,14,31,-26,-4,0,-34,-48,-63,-63,-48
-39,-24,14,31,-26,-4,0,-29,-43,-63,-63,-48
-39,-24,14,31,-26,-4,0,-29,-43,-58,-68,-58
-39,-24,14,31,-26,-4,0,-34,-43,-58,-68,-58
-29,-34,-4,31,-12,-19,-9,-34,-43,-58,-58,-39
-29,-29,0,29,-14,-14,-9,-29,-43,-58,-58,-39
-29,-29,0,29,-14,-14,-9,-24,-43,-58,-58,-43
-29,-29,0,29,-14,-14,-9,-24,-43,-58,-53,-43
-39,-29,9,34,-24,-9,0,-14,-34,-48,-53,-53
-39,-34,4,36,-21,-14,0,-14,-34,-48,-53,-53
-39,-34,4,36,-21,-14,0,-14,-29,-48,-58,-53
-43,-34,9,39,-26,-12,4,-9,-29,-48,-58,-53
-34,-43,-9,39,-12,-26,4,-4,-24,-48,-58,-43
-29,-43,-14,36,-7,-29,4,-4,-24,-43,-53,-39
-29,-39,-9,34,-9,-24,4,0,-24,-43,-53,-39
-29,-39,-9,34,-9,-24,4,0,-24,-39,-58,-43
-39,-29,9,34,-24,-9,9,0,-19,-48,-58,-43
-39,-29,9,34,-24,-9,9,9,-19,-48,-58,-43
-39,-34,4,36,-21,-14,9,14,-19,-48,-58,-43
-39,-34,4,36,-21,-14,9,14,-14,-53,-58,-53
-39,-43,-4,41,-17,-24,9,14,-24,-43,-58,-43
-39,-43,-4,41,-17,-24,9,14,-19,-43,-53,-43
-39,-43,-4,41,-17,-24,9,14,-19,-39,-53,-43
-39,-39,0,39,-19,-19,14,19,-19,-39,-58,-43
-29,-29,0,29,-14,-14,19,29,-9,-39,-48,-53
-29,-29,0,29,-14,-14,19,29,-4,-34,-43,-53
-34,-34,0,34,-17,-17,19,39,0,-34,-43,-53
-34,-34,0,34,-17,-17,19,43,0,-34,-39,-53
-34,-24,9,29,-21,-7,14,43,-9,-39,-48,-43
-29,-24,4,26,-17,-9,14,43,-4,-39,-48,-39
-29,-24,4,26,-17,-9,14,39,-4,-34,-48,-39
-34,-19,14,26,-24,-2,14,34,-4,-34,-48,-39
-34,-29,4,31,-19,-12,14,43,0,-24,-48,-48
-34,-29,4,31,-19,-12,14,48,4,-24,-48,-34
-29,-34,-4,31,-12,-19,19,53,9,-19,-43,-34
-24,-34,-9,29,-7,-21,19,58,9,-19,-43,-34
-24,-34,-9,29,-7,-21,24,68,9,-19,-43,-43
-24,-29,-4,26,-9,-17,24,73,9,-19,-43,-34
-24,-29,-4,26,-9,-17,29,78,9,-14,-43,-34
-24,-29,-4,26,-9,-17,34,82,14,-14,-39,-39
-39,-29,9,34,-24,-9,24,87,19,-14,-39,-58
-39,-29,9,34,-24,-9,24,87,19,-9,-39,-48
-39,-29,9,34,-24,-9,24,97,29,-9,-39,-43
-39,-29,9,34,-24,-9,29,102,29,-9,-39,-43
-39,-43,-4,41,-17,-24,29,97,29,-9,-39,-39
-39,-43,-4,41,-17,-24,34,102,39,-4,-39,-39
-39,-43,-4,41,-17,-24,34,112,39,0,-39,-39
-39,-34,4,36,-21,-14,34,112,39,0,-39,-39
-39,-19,19,29,-29,0,34,122,43,0,-39,-43
-34,-19,14,26,-24,-2,43,131,48,4,-43,-43
-34,-29,4,31,-19,-12,43,131,53,4,-43,-39
-39,-29,9,34,-24,-9,43,136,53,4,-43,-39
-39,-24,14,31,-26,-4,63,156,53,4,-43,-34
-39,-24,14,31,-26,-4,63,161,63,9,-43,-34
-34,-24,9,29,-21,-7,63,170,68,9,-43,-19
-34,-24,9,29,-21,-7,63,175,73,19,-43,-29
-34,-34,0,34,-17,-17,63,180,73,19,-43,-39
-34,-34,0,34,-17,-17,73,190,78,19,-39,-39
-34,-34,0,34,-17,-17,73,200,82,19,-39,-39
-34,-34,0,34,-17,-17,73,214,87,24,-39,-39
-34,-24,9,29,-21,-7,87,214,92,24,-43,-39
-34,-24,9,29,-21,-7,92,219,92,34,-43,-43
-34,-24,9,29,-21,-7,92,234,102,34,-39,-43
-29,-24,4,26,-17,-9,92,244,107,34,-39,-34
-29,-29,0,29,-14,-14,92,253,112,34,-48,-43
-34,-29,4,31,-19,-12,102,253,112,34,-48,-53
-34,-29,4,31,-19,-12,107,263,122,34,-48,-53
-34,-29,4,31,-19,-12,107,273,122,34,-48,-53
-34,-19,14,26,-24,-2,102,283,122,29,-39,-48
-34,-14,19,24,-26,2,107,287,126,29,-39,-53
-34,-14,19,24,-26,2,112,297,136,34,-39,-39
-34,-14,19,24,-26,2,117,312,146,39,-43,-34
-34,-24,9,29,-21,-7,131,331,146,48,-43,-48
-34,-19,14,26,-24,-2,136,331,151,43,-43,-53
-34,-19,14,26,-24,-2,141,341,156,43,-43,-53
-34,-19,14,26,-24,-2,141,351,161,43,-43,-48
-34,-29,4,31,-19,-12,146,351,161,34,-58,-48
-39,-29,9,34,-24,-9,151,356,161,34,-58,-58
-39,-29,9,34,-24,-9,161,361,170,34,-58,-58
-43,-29,14,36,-29,-7,165,370,175,34,-63,-48
-43,-29,14,36,-29,-7,175,375,165,43,-53,-58
-43,-29,14,36,-29,-7,180,380,165,34,-63,-73
-48,-29,19,39,-34,-4,185,385,170,34,-68,-82
-48,-29,19,39,-34,-4,185,395,170,29,-68,-73
-48,-29,19,39,-34,-4,190,395,180,29,-73,-68
-53,-29,24,41,-39,-2,195,395,180,29,-78,-78
-53,-29,24,41,-39,-2,204,400,180,29,-78,-73
-58,-29,29,43,-43,0,204,400,185,24,-78,-58
-53,-24,29,39,-41,2,204,390,175,14,-92,-73
-58,-19,39,39,-48,9,204,390,175,9,-97,-82
-63,-14,48,39,-56,17,214,390,170,4,-102,-92
-63,-9,53,36,-58,21,224,395,170,0,-107,-97
-73,-14,58,43,-65,21,224,395,170,-4,-107,-87
-73,-19,53,46,-63,17,224,390,161,-14,-122,-92
-73,-24,48,48,-61,12,224,390,161,-19,-126,-107
-82,-39,43,61,-63,2,229,390,165,-24,-131,-107
-82,-39,43,61,-63,2,234,385,165,-24,-126,-97
-87,-34,53,61,-70,9,234,380,165,-29,-131,-97
-92,-34,58,63,-75,12,234,375,165,-29,-136,-102
-97,-34,63,65,-80,14,234,375,161,-39,-136,-102
-97,-24,73,61,-85,24,234,370,161,-29,-141,-112
-97,-19,78,58,-87,29,239,370,161,-29,-141,-107
-102,-19,82,61,-92,31,239,366,161,-29,-141,-107
-102,-19,82,61,-92,31,239,356,161,-29,-136,-107
-102,-19,82,61,-92,31,229,346,161,-29,-126,-92
-102,-19,82,61,-92,31,224,341,156,-29,-122,-92
-102,-9,92,56,-97,41,219,331,156,-24,-112,-92
-97,-9,87,53,-92,39,214,322,161,-14,-107,-82
-97,-14,82,56,-90,34,214,322,161,4,-92,-68
-97,-14,82,56,-90,34,200,312,161,4,-87,-58
-97,-9,87,53,-92,39,190,292,151,4,-78,-53
-97,-14,82,56,-90,34,175,278,151,9,-68,-53
-78,0,78,39,-78,39,151,248,136,19,-58,-29
-73,9,82,31,-78,46,141,239,131,24,-53,-24
-73,14,87,29,-80,51,131,224,126,29,-48,-24
-68,19,87,24,-78,53,117,204,126,34,-34,-19
-68,19,87,24,-78,53,112,190,126,39,-29,-19
-68,19,87,24,-78,53,102,175,122,43,-19,4
-63,19,82,21,-73,51,92,156,122,48,-9,14
-58,29,87,14,-73,58,82,141,112,48,0,14
-53,19,73,17,-63,46,73,131,112,48,9,14
-48,19,68,14,-58,43,63,122,102,48,9,9
-43,19,63,12,-53,41,53,107,92,48,14,9
-43,14,58,14,-51,36,43,92,87,48,19,9
-43,24,68,9,-56,46,34,87,78,48,19,19
-39,24,63,7,-51,43,29,78,73,48,29,39
-39,24,63,7,-51,43,19,68,58,48,29,39
-39,19,58,9,-48,39,9,53,48,48,24,34
-39,9,48,14,-43,29,-4,34,48,39,24,24
-34,9,43,12,-39,26,-9,24,48,39,24,34
-29,9,39,9,-34,24,-14,19,34,39,24,34
-29,4,34,12,-31,19,-24,9,29,29,24,19
-29,4,34,12,-31,19,-14,0,19,39,24,9
-29,9,39,9,-34,24,-19,-9,14,39,24,19
-29,14,43,7,-36,29,-19,-19,9,29,24,24
-34,14,48,9,-41,31,-24,-24,0,24,19,24
-34,0,34,17,-34,17,-19,-14,4,24,24,29
-34,4,39,14,-36,21,-24,-24,4,24,24,29
-34,0,34,17,-34,17,-24,-24,4,24,24,29
-34,-9,24,21,-29,7,-24,-29,-4,19,24,24
-29,-9,19,19,-24,4,-19,-29,-9,9,9,9
-29,-4,24,17,-26,9,-19,-34,-14,9,9,9
-34,-4,29,19,-31,12,-29,-39,-14,14,14,19
-34,-9,24,21,-29,7,-34,-43,-14,14,14,19
-34,-9,24,21,-29,7,-43,-43,-14,9,9,19
-29,-9,19,19,-24,4,-39,-43,-9,9,9,29
-29,-9,19,19,-24,4,-39,-43,-9,9,9,39
-34,-9,24,21,-29,7,-39,-48,-19,9,0,24
-34,-9,24,21,-29,7,-39,-39,-19,4,0,4
-34,-9,24,21,-29,7,-39,-39,-14,4,4,4
-34,-9,24,21,-29,7,-39,-39,-14,4,4,14
-29,-14,14,21,-21,0,-39,-39,-14,9,4,14
-29,-19,9,24,-19,-4,-39,-43,-14,9,9,19
-29,-19,9,24,-19,-4,-39,-43,-14,9,9,19
-34,-19,14,26,-24,-2,-39,-43,-14,9,9,34
-34,-14,19,24,-26,2,-39,-43,-14,9,9,24
-34,-14,19,24,-26,2,-39,-43,-24,9,4,14
-34,-19,14,26,-24,-2,-39,-43,-24,9,4,14
-34,-19,14,26,-24,-2,-39,-43,-24,9,4,24
-34,-14,19,24,-26,2,-39,-39,-19,9,9,24
-29,-14,14,21,-21,0,-39,-39,-9,14,0,19
-29,-14,14,21,-21,0,-39,-39,-14,14,0,19
-29,-14,14,21,-21,0,-39,-39,-14,9,0,14
-34,-14,19,24,-26,2,-39,-39,-9,9,0,14
-34,-24,9,29,-21,-7,-39,-29,-9,9,0,14
-34,-24,9,29,-21,-7,-39,-29,-9,9,-9,14
-34,-24,9,29,-21,-7,-39,-19,-9,9,0,19
-34,-29,4,31,-19,-12,-34,-19,-9,9,0,29
-43,-19,24,31,-34,2,-24,-19,-9,19,0,29
-43,-14,29,29,-36,7,-24,-19,-9,19,0,19
-43,-14,29,29,-36,7,-24,-14,-9,24,0,19
-43,-14,29,29,-36,7,-24,-14,-9,24,-9,19
-29,-24,4,26,-17,-9,-24,-19,-4,19,-9,19
-29,-24,4,26,-17,-9,-24,-19,-4,19,-4,19
-34,-24,9,29,-21,-7,-24,-19,0,19,0,19
-34,-29,4,31,-19,-12,-24,-14,4,19,9,24
-34,-29,4,31,-19,-12,-34,-24,-4,24,0,14
-34,-29,4,31,-19,-12,-34,-24,-4,24,0,9
-34,-24,9,29,-21,-7,-34,-24,-4,24,4,9
-34,-24,9,29,-21,-7,-34,-19,0,34,9,24
-39,-34,4,36,-21,-14,-34,-9,0,24,9,24
-39,-24,14,31,-26,-4,-34,-14,0,24,9,19
-34,-24,9,29,-21,-7,-34,-14,0,24,9,19
-34,-24,9,29,-21,-7,-34,-9,-4,24,9,29
-34,-24,9,29,-21,-7,-39,-19,0,24,9,29
-34,-24,9,29,-21,-7,-39,-24,0,24,9,24
-34,-24,9,29,-21,-7,-34,-24,0,24,14,24
-29,-19,9,24,-19,-4,-34,-24,0,24,14,24
-19,-9,9,14,-14,0,-34,-24,-9,24,14,24
-24,-9,14,17,-19,2,-34,-24,-9,24,9,19
-24,-9,14,17,-19,2,-34,-24,-9,24,9,19
-24,-9,14,17,-19,2,-39,-24,-9,24,9,24
-24,-19,4,21,-14,-7,-29,-24,0,24,4,29
-29,-19,9,24,-19,-4,-29,-19,0,24,9,29
-29,-19,9,24,-19,-4,-29,-19,0,29,9,29
-29,-19,9,24,-19,-4,-29,-19,0,29,9,34
-39,-19,19,29,-29,0,-39,-19,0,29,9,24
-43,-19,24,31,-34,2,-43,-24,-9,24,9,19
-43,-14,29,29,-36,7,-43,-24,-9,24,9,19
-39,-14,24,26,-31,4,-39,-29,-4,24,9,24
-29,-24,4,26,-17,-9,-39,-19,-14,24,9,34
-29,-24,4,26,-17,-9,-39,-19,-19,14,9,34
-29,-24,4,26,-17,-9,-43,-24,-24,14,4,24
-29,-14,14,21,-21,0,-43,-24,-24,14,4,24
-29,-24,4,26,-17,-9,-43,-29,-14,14,4,29
-29,-24,4,26,-17,-9,-43,-29,-14,9,4,29
-29,-24,4,26,-17,-9,-43,-29,-19,9,4,19
-29,-24,4,26,-17,-9,-43,-29,-19,9,4,19
-24,-19,4,21,-14,-7,-43,-43,-29,0,4,24
-24,-19,4,21,-14,-7,-43,-43,-29,0,4,24
-24,-19,4,21,-14,-7,-43,-39,-34,0,-4,19
-24,-19,4,21,-14,-7,-43,-39,-34,0,-4,9
-34,-19,14,26,-24,-2,-43,-48,-34,0,-9,9
-29,-19,9,24,-19,-4,-43,-48,-34,-4,-9,9
-29,-19,9,24,-19,-4,-48,-48,-39,-4,-14,0
-39,-14,24,26,-31,4,-48,-48,-39,-9,-14,0
-29,-14,14,21,-21,0,-43,-53,-34,0,-9,9
-29,-24,4,26,-17,-9,-39,-53,-34,0,-4,14
-24,-24,0,24,-12,-12,-34,-53,-34,0,0,14
-24,-24,0,24,-12,-12,-29,-53,-34,0,4,9
-43,-34,9,39,-26,-12,-43,-58,-39,0,0,19
-34,-29,4,31,-19,-12,-43,-58,-39,0,0,19
-34,-24,9,29,-21,-7,-43,-53,-39,-4,0,19
-34,-24,9,29,-21,-7,-43,-43,-39,-4,0,14
-34,-14,19,24,-26,2,-43,-43,-39,-4,0,14
-34,-14,19,24,-26,2,-43,-53,-43,-4,0,19
-34,-24,9,29,-21,-7,-43,-53,-43,-4,0,19
-34,-24,9,29,-21,-7,-43,-58,-48,-4,0,14
-24,-9,14,17,-19,2,-48,-63,-48,-14,-14,14
-24,-9,14,17,-19,2,-48,-63,-48,-14,-14,19
-34,-19,14,26,-24,-2,-48,-63,-48,-14,-14,19
-34,-19,14,26,-24,-2,-48,-68,-48,-19,-19,9
-34,-19,14,26,-24,-2,-48,-68,-48,-19,-19,4
-34,-19,14,26,-24,-2,-48,-73,-48,-14,-19,4
-34,-29,4,31,-19,-12,-48,-73,-48,-14,-19,4
-34,-19,14,26,-24,-2,-58,-82,-53,-19,-19,0
-34,-29,4,31,-19,-12,-48,-73,-53,-19,-19,-4
-34,-34,0,34,-17,-17,-48,-73,-53,-14,-14,9
-39,-34,4,36,-21,-14,-48,-78,-53,-14,-14,14
-39,-34,4,36,-21,-14,-53,-78,-53,-14,-14,14
-34,-43,-9,39,-12,-26,-53,-73,-63,-14,-4,4
-34,-39,-4,36,-14,-21,-53,-73,-68,-19,-4,4
-34,-39,-4,36,-14,-21,-53,-78,-68,-19,-4,9
-34,-39,-4,36,-14,-21,-53,-78,-68,-19,-4,9
-34,-29,4,31,-19,-12,-53,-68,-53,-19,-4,14
-34,-29,4,31,-19,-12,-53,-68,-53,-19,-4,14
-34,-39,-4,36,-14,-21,-53,-73,-58,-19,-4,19
-34,-39,-4,36,-14,-21,-53,-73,-58,-19,-4,19
-34,-24,9,29,-21,-7,-53,-82,-58,-19,-14,14
-34,-19,14,26,-24,-2,-53,-78,-58,-19,-14,9
-39,-19,19,29,-29,0,-53,-78,-63,-19,-14,4
-39,-14,24,26,-31,4,-58,-82,-63,-19,-14,0
-48,-19,29,34,-39,4,-58,-73,-63,-19,-9,0
-48,-24,24,36,-36,0,-58,-73,-63,-19,-9,4
-48,-29,19,39,-34,-4,-58,-73,-63,-24,-9,9
-48,-34,14,41,-31,-9,-58,-78,-63,-24,-9,19
-39,-39,0,39,-19,-19,-48,-78,-63,-34,-19,14
-39,-39,0,39,-19,-19,-48,-78,-63,-34,-19,9
-39,-34,4,36,-21,-14,-48,-73,-63,-29,-14,9
-39,-34,4,36,-21,-14,-43,-73,-63,-29,-14,4
-39,-43,-4,41,-17,-24,-43,-78,-63,-29,-14,0
-39,-43,-4,41,-17,-24,-48,-87,-63,-24,-14,0
-39,-43,-4,41,-17,-24,-48,-78,-63,-19,-9,4
-39,-43,-4,41,-17,-24,-48,-78,-63,-14,-9,14
-39,-34,4,36,-21,-14,-58,-78,-63,-24,-19,9
-39,-34,4,36,-21,-14,-53,-78,-68,-24,-19,4
-39,-43,-4,41,-17,-24,-53,-82,-68,-24,-19,4
-39,-34,4,36,-21,-14,-58,-87,-68,-24,-19,0
-39,-29,9,34,-24,-9,-48,-87,-68,-24,-19,9
-39,-29,9,34,-24,-9,-48,-78,-68,-24,-19,4
-39,-34,4,36,-21,-14,-48,-78,-68,-24,-19,4
-39,-34,4,36,-21,-14,-48,-82,-63,-24,-19,9
-39,-34,4,36,-21,-14,-58,-82,-63,-24,-9,0
-39,-34,4,36,-21,-14,-58,-82,-68,-24,-9,-9
-39,-34,4,36,-21,-14,-53,-82,-68,-24,-9,-9
-39,-34,4,36,-21,-14,-53,-82,-68,-24,-9,0
-29,-34,-4,31,-12,-19,-58,-92,-78,-24,-14,9
-29,-34,-4,31,-12,-19,-58,-92,-78,-29,-29,4
-29,-34,-4,31,-12,-19,-58,-87,-78,-29,-24,4
-29,-34,-4,31,-12,-19,-58,-87,-73,-24,-29,9
-39,-34,4,36,-21,-14,-48,-87,-73,-24,-19,0
-39,-34,4,36,-21,-14,-48,-87,-73,-24,-19,-9
-39,-39,0,39,-19,-19,-48,-92,-82,-24,-19,-9
-34,-39,-4,36,-14,-21,-48,-92,-73,-24,-19,0
-43,-39,4,41,-24,-17,-63,-82,-73,-29,-19,9
-43,-29,14,36,-29,-7,-63,-82,-78,-29,-19,4
-43,-29,14,36,-29,-7,-63,-82,-78,-24,-19,4
-48,-34,14,41,-31,-9,-63,-82,-78,-24,-19,9
-43,-39,4,41,-24,-17,-53,-87,-68,-14,-9,0
-39,-39,0,39,-19,-19,-53,-87,-68,-14,-9,-9
-34,-39,-4,36,-14,-21,-48,-87,-68,-14,-9,-9
-29,-34,-4,31,-12,-19,-48,-92,-68,-14,-9,-4
-39,-43,-4,41,-17,-24,-68,-87,-87,-19,-14,0
-39,-39,0,39,-19,-19,-58,-87,-78,-24,-19,0
-39,-39,0,39,-19,-19,-58,-82,-78,-29,-24,-4
-39,-43,-4,41,-17,-24,-58,-82,-78,-34,-29,-4
-39,-43,-4,41,-17,-24,-53,-87,-68,-24,-19,-4
-39,-43,-4,41,-17,-24,-53,-87,-68,-24,-19,-4
-39,-39,0,39,-19,-19,-53,-87,-78,-29,-24,-9
-39,-39,0,39,-19,-19,-53,-87,-68,-29,-24,-9
-29,-39,-9,34,-9,-24,-53,-87,-68,-29,-24,0
-29,-39,-9,34,-9,-24,-53,-87,-68,-29,-24,0
-29,-34,-4,31,-12,-19,-48,-82,-68,-29,-24,-4
-29,-34,-4,31,-12,-19,-48,-82,-68,-29,-24,-4
-34,-43,-9,39,-12,-26,-48,-92,-68,-29,-14,-4
-39,-43,-4,41,-17,-24,-48,-92,-68,-29,-19,-4
-43,-43,0,43,-21,-21,-53,-92,-73,-29,-19,-9
-48,-39,9,43,-29,-14,-53,-92,-73,-29,-19,-9
-39,-48,-9,43,-14,-29,-58,-92,-73,-39,-14,4
-39,-53,-14,46,-12,-34,-53,-92,-73,-39,-14,4
-43,-53,-9,48,-17,-31,-53,-87,-73,-34,-14,4
-43,-53,-9,48,-17,-31,-58,-87,-73,-34,-14,4
-29,-43,-14,36,-7,-29,-48,-92,-73,-39,-24,-4
-29,-14,14,21,-21,0,-58,-102,-82,-34,-34,-4
-48,-29,19,39,-34,-4,-58,-87,-78,-29,-19,0
-48,-34,14,41,-31,-9,-58,-87,-78,-29,-19,-9
-48,-39,9,43,-29,-14,-58,-87,-78,-29,-19,-9
-48,-43,4,46,-26,-19,-58,-87,-78,-29,-19,-9
-48,-48,0,48,-24,-24,-58,-87,-78,-29,-19,-9
-39,-48,-9,43,-14,-29,-58,-97,-78,-39,-29,0
-39,-48,-9,43,-14,-29,-58,-97,-78,-39,-29,0
-39,-48,-9,43,-14,-29,-58,-97,-78,-39,-29,0
-39,-48,-9,43,-14,-29,-58,-97,-78,-39,-29,0
-39,-39,0,39,-19,-19,-58,-107,-78,-29,-19,0
-39,-39,0,39,-19,-19,-58,-107,-78,-29,-19,0
-39,-39,0,39,-19,-19,-58,-107,-78,-29,-19,0
-39,-39,0,39,-19,-19,-58,-107,-78,-29,-19,0
-29,-48,-19,39,-4,-34,-58,-97,-78,-39,-19,0
-29,-48,-19,39,-4,-34,-58,-97,-78,-39,-19,0
-29,-48,-19,39,-4,-34,-58,-97,-78,-39,-19,0
-29,-48,-19,39,-4,-34,-58,-97,-78,-39,-19,0
-39,-39,0,39,-19,-19,-48,-97,-78,-29,-29,0
-39,-39,0,39,-19,-19,-48,-97,-78,-29,-29,0
-39,-39,0,39,-19,-19,-48,-97,-78,-29,-29,0
-39,-39,0,39,-19,-19,-48,-97,-78,-29,-29,0
-39,-34,4,36,-21,-14,-39,-92,-73,-19,-24,9
-39,-29,9,34,-24,-9,-39,-87,-68,-19,-19,9
-39,-24,14,31,-26,-4,-39,-82,-63,-19,-14,9
-39,-19,19,29,-29,0,-39,-78,-58,-19,-9,9
-29,-4,24,17,-26,9,-34,-73,-53,-14,-4,19
-29,4,34,12,-31,19,-19,-63,-43,-9,0,19
-29,14,43,7,-36,29,-9,-53,-29,4,19,34
-29,24,53,2,-41,39,0,-48,-24,9,24,39
-29,39,68,-4,-48,53,4,-58,-34,9,24,39
-29,39,68,-4,-48,53,9,-58,-34,9,24,39
-29,39,68,-4,-48,53,14,-48,-24,9,34,43
-29,43,73,-7,-51,58,14,-43,-19,24,34,43
-29,48,78,-9,-53,63,14,-43,-14,29,24,43
-24,53,78,-14,-51,65,14,-43,-14,29,29,43
-19,53,73,-17,-46,63,14,-39,-14,29,29,43
-19,53,73,-17,-46,63,14,-34,-9,29,34,48
-19,58,78,-19,-48,68,9,-24,0,29,34,58
-14,58,73,-21,-43,65,0,-24,0,34,34,58
-4,58,63,-26,-34,61,-9,-24,0,34,34,63
0,58,58,-29,-29,58,-19,-24,0,34,43,73
4,73,68,-39,-31,70,-19,-24,14,39,53,63
9,82,73,-46,-31,78,-19,-24,14,43,53,63
14,82,68,-48,-26,75,-24,-24,14,43,53,73
24,78,53,-51,-14,65,-39,-29,4,39,53,73
24,68,43,-46,-9,56,-39,-24,0,39,48,73
24,63,39,-43,-7,51,-53,-39,-14,29,43,58
24,63,39,-43,-7,51,-58,-43,-19,19,39,48
24,63,39,-43,-7,51,-68,-53,-24,19,39,58
24,58,34,-41,-4,46,-78,-58,-34,4,29,48
24,48,24,-36,0,36,-78,-63,-34,4,29,48
24,43,19,-34,2,31,-78,-58,-24,14,39,48
29,39,9,-34,9,24,-78,-58,-19,34,48,58
29,43,14,-36,7,29,-82,-43,-9,43,53,68
29,39,9,-34,9,24,-82,-39,-9,43,53,68
34,39,4,-36,14,21,-82,-39,-9,43,53,68
39,29,-9,-34,24,9,-87,-39,-19,39,48,58
29,14,-14,-21,21,0,-92,-43,-19,24,34,53
24,9,-14,-17,19,-2,-92,-43,-24,14,24,53
24,4,-19,-14,21,-7,-92,-43,-29,14,24,43
24,-9,-34,-7,29,-21,-102,-63,-34,0,19,39
39,-4,-43,-17,41,-24,-107,-82,-58,-4,14,39
39,-4,-43,-17,41,-24,-112,-97,-68,-14,0,34
24,-4,-29,-9,26,-17,-112,-97,-68,-19,-4,24
9,-4,-14,-2,12,-9,-102,-92,-63,-19,-4,24
9,-19,-29,4,19,-24,-82,-82,-53,-9,4,34
-4,-24,-19,14,7,-21,-73,-82,-58,-14,4,34
-14,-29,-14,21,0,-21,-68,-87,-63,-19,0,19
-14,-29,-14,21,0,-21,-63,-97,-68,-24,-4,19
-34,-48,-14,41,-9,-31,-63,-102,-78,-39,-14,14
-39,-53,-14,46,-12,-34,-63,-107,-82,-43,-29,9
-43,-58,-14,51,-14,-36,-63,-122,-97,-48,-34,0
-43,-63,-19,53,-12,-41,-73,-126,-102,-53,-34,0
-39,-63,-24,51,-7,-43,-68,-136,-112,-58,-48,-9
-34,-63,-29,48,-2,-46,-73,-141,-117,-63,-53,-14
-34,-63,-29,48,-2,-46,-73,-141,-117,-63,-53,-29
-34,-68,-34,51,0,-51,-73,-141,-117,-63,-53,-29
-34,-68,-34,51,0,-51,-73,-136,-107,-73,-53,-19
-43,-68,-24,56,-9,-46,-68,-131,-107,-73,-53,-9
-43,-68,-24,56,-9,-46,-68,-126,-107,-73,-48,-19
-39,-63,-24,51,-7,-43,-68,-117,-102,-73,-48,-19
-39,-63,-24,51,-7,-43,-68,-122,-107,-63,-43,-4
-43,-63,-19,53,-12,-41,-68,-122,-107,-63,-43,-4
-43,-63,-19,53,-12,-41,-68,-122,-107,-63,-53,-14
-43,-63,-19,53,-12,-41,-68,-126,-112,-68,-53,-24
-43,-68,-24,56,-9,-46,-63,-126,-112,-68,-43,-14
-48,-68,-19,58,-14,-43,-63,-126,-112,-68,-39,-14
-48,-68,-19,58,-14,-43,-63,-126,-112,-68,-39,-14
-48,-63,-14,56,-17,-39,-63,-126,-112,-68,-43,-14
-53,-73,-19,63,-17,-46,-63,-136,-112,-68,-53,-14
-58,-73,-14,65,-21,-43,-63,-136,-112,-68,-53,-14
-63,-73,-9,68,-26,-41,-58,-131,-112,-68,-53,-14
-68,-73,-4,70,-31,-39,-58,-131,-112,-68,-48,-19
-68,-73,-4,70,-31,-39,-58,-122,-112,-58,-48,-29
-73,-82,-9,78,-31,-46,-53,-122,-107,-58,-48,-24
-73,-82,-9,78,-31,-46,-53,-117,-107,-58,-48,-24
-73,-82,-9,78,-31,-46,-53,-117,-107,-58,-53,-29
-63,-82,-19,73,-21,-51,-63,-117,-112,-68,-53,-29
-63,-82,-19,73,-21,-51,-63,-117,-112,-68,-53,-29
-63,-82,-19,73,-21,-51,-63,-122,-112,-68,-53,-24
-63,-82,-19,73,-21,-51,-63,-122,-112,-68,-53,-24
-63,-82,-19,73,-21,-51,-58,-131,-112,-68,-53,-29
-63,-82,-19,73,-21,-51,-58,-131,-112,-68,-53,-29
-58,-82,-24,70,-17,-53,-58,-131,-112,-68,-48,-29
-58,-82,-24,70,-17,-53,-58,-131,-112,-68,-48,-29
-63,-92,-29,78,-17,-61,-58,-131,-112,-68,-58,-19
-63,-92,-29,78,-17,-61,-58,-131,-112,-68,-58,-19
-63,-92,-29,78,-17,-61,-58,-131,-112,-68,-63,-9
-63,-92,-29,78,-17,-61,-58,-131,-112,-73,-63,-19
-53,-92,-39,73,-7,-65,-58,-122,-112,-73,-63,-43
-53,-92,-39,73,-7,-65,-58,-122,-112,-68,-63,-34
-48,-97,-48,73,0,-73,-58,-117,-112,-68,-58,-29
-48,-97,-48,73,0,-73,-58,-117,-112,-68,-58,-29
-68,-92,-24,80,-21,-58,-48,-117,-102,-58,-58,-29
-68,-92,-24,80,-21,-58,-48,-112,-107,-53,-58,-29
-68,-92,-24,80,-21,-58,-53,-107,-107,-53,-58,-19
-68,-87,-19,78,-24,-53,-53,-97,-97,-53,-48,-19
-63,-78,-14,70,-24,-46,-43,-78,-82,-53,-48,-29
-58,-78,-19,68,-19,-48,-29,-43,-53,-34,-34,-29
-34,-48,-14,41,-9,-31,-9,9,-9,0,-4,0
-9,-19,-9,14,0,-14,19,78,58,63,43,53
0,9,9,-4,-4,9,48,165,146,141,112,97
0,43,43,-21,-21,43,87,273,244,234,195,151
29,78,48,-53,-9,63,131,390,331,336,268,185
78,117,39,-97,19,78,146,497,424,444,326,229
131,136,4,-134,63,70,126,605,522,561,414,278
185,161,-24,-173,104,68,112,673,629,722,536,351
268,234,-34,-251,151,100,53,746,766,932,697,473
346,341,-4,-344,175,168,-24,814,912,1151,907,639
419,453,34,-436,192,244,-117,844,1058,1381,1127,810
468,580,112,-524,178,346,-224,805,1166,1576,1322,961
507,717,209,-612,148,463,-336,668,1176,1698,1488,1107
488,810,322,-649,82,566,-444,419,1068,1688,1576,1234
375,834,458,-605,-41,646,-497,126,854,1503,1527,1244
258,766,507,-512,-124,636,-497,-107,570,1180,1278,1063
126,546,419,-336,-146,483,-463,-395,200,688,829,736
-92,239,331,-73,-212,285,-366,-824,-302,24,253,326
-326,9,336,158,-331,173,-258,-1278,-790,-610,-283,-43
-429,-78,351,253,-390,136,-209,-1478,-1029,-932,-575,-273
-419,-102,317,261,-368,107,-204,-1356,-990,-922,-634,-356
-390,-131,258,261,-324,63,-214,-1195,-883,-805,-590,-356
-356,-146,209,251,-283,31,-244,-1122,-849,-756,-546,-322
-292,-141,151,217,-222,4,-287,-1063,-824,-722,-512,-307
-229,-141,87,185,-158,-26,-302,-941,-756,-649,-473,-302
-195,-131,63,163,-129,-34,-258,-795,-653,-546,-400,-253
-161,-126,34,143,-97,-46,-209,-614,-527,-444,-326,-204
-126,-136,-9,131,-58,-73,-161,-424,-395,-331,-248,-156
-112,-136,-24,124,-43,-80,-107,-258,-283,-229,-180,-112
-87,-107,-19,97,-34,-63,-58,-141,-180,-131,-122,-78
-53,-68,-14,61,-19,-41,-14,-68,-107,-78,-87,-39
-63,-87,-24,75,-19,-56,14,-34,-78,-68,-73,-39
-92,-102,-9,97,-41,-56,24,-29,-73,-63,-73,-68
-87,-73,14,80,-51,-29,19,-34,-63,-48,-73,-53
-82,-82,0,82,-41,-41,14,-24,-53,-48,-63,-39
-92,-82,9,87,-51,-36,14,-24,-53,-48,-63,-39
-92,-87,4,90,-48,-41,14,-19,-58,-48,-68,-34
-87,-92,-4,90,-41,-48,14,-9,-58,-48,-68,-29
-92,-97,-4,95,-43,-51,24,-9,-58,-53,-68,-43
-92,-97,-4,95,-43,-51,29,-9,-58,-53,-78,-48
-92,-102,-9,97,-41,-56,29,-9,-58,-53,-78,-48
-92,-102,-9,97,-41,-56,29,-9,-58,-53,-73,-43
-92,-112,-19,102,-36,-65,19,-9,-53,-48,-68,-43
-87,-112,-24,100,-31,-68,19,-4,-53,-48,-68,-43
-87,-107,-19,97,-34,-63,19,-4,-53,-48,-68,-48
-87,-107,-19,97,-34,-63,14,4,-53,-48,-68,-48
-82,-102,-19,92,-31,-61,14,-4,-53,-48,-78,-39
-82,-102,-19,92,-31,-61,14,-4,-53,-48,-78,-53
-82,-107,-24,95,-29,-65,19,-4,-53,-48,-78,-53
-82,-107,-24,95,-29,-65,19,-4,-53,-48,-78,-53
-87,-102,-14,95,-36,-58,19,-4,-48,-58,-63,-48
-87,-102,-14,95,-36,-58,19,4,-48,-58,-63,-48
-87,-102,-14,95,-36,-58,19,9,-48,-48,-63,-48
-87,-112,-24,100,-31,-68,19,9,-48,-48,-63,-58
-87,-112,-24,100,-31,-68,29,14,-48,-43,-53,-48
-87,-112,-24,100,-31,-68,29,19,-43,-43,-53,-48
-87,-112,-24,100,-31,-68,29,19,-43,-39,-58,-58
-87,-112,-24,100,-31,-68,29,14,-43,-39,-58,-58
-78,-112,-34,95,-21,-73,19,24,-43,-48,-68,-48
-78,-107,-29,92,-24,-68,19,29,-43,-48,-68,-48
-78,-107,-29,92,-24,-68,19,34,-43,-48,-68,-53
-78,-107,-29,92,-24,-68,19,34,-43,-48,-63,-53
-78,-107,-29,92,-24,-68,9,34,-53,-58,-63,-53
-78,-112,-34,95,-21,-73,9,34,-53,-58,-63,-53
-78,-112,-34,95,-21,-73,9,34,-48,-58,-68,-53
-82,-112,-29,97,-26,-70,14,39,-48,-58,-68,-53
-73,-112,-39,92,-17,-75,24,53,-34,-48,-68,-53
-68,-112,-43,90,-12,-78,24,53,-34,-43,-63,-48
-68,-107,-39,87,-14,-73,24,58,-34,-43,-63,-48
-68,-107,-39,87,-14,-73,24,58,-34,-39,-68,-53
-78,-107,-29,92,-24,-68,29,48,-39,-48,-78,-53
-78,-107,-29,92,-24,-68,29,58,-39,-48,-78,-53
-78,-112,-34,95,-21,-73,29,63,-39,-48,-78,-53
-78,-112,-34,95,-21,-73,29,63,-34,-53,-78,-63
-78,-122,-43,100,-17,-82,29,63,-34,-53,-78,-63
-78,-122,-43,100,-17,-82,29,63,-29,-53,-73,-63
-78,-122,-43,100,-17,-82,29,63,-29,-48,-73,-63
-78,-117,-39,97,-19,-78,34,68,-29,-48,-78,-63
-68,-102,-34,85,-17,-68,39,78,-29,-39,-78,-63
-68,-97,-29,82,-19,-63,39,78,-24,-34,-73,-63
-73,-97,-24,85,-24,-61,39,87,-19,-34,-73,-63
-73,-92,-19,82,-26,-56,39,92,-19,-34,-68,-63
-63,-102,-39,82,-12,-70,43,87,-19,-29,-68,-73
-58,-102,-43,80,-7,-73,43,92,-14,-29,-68,-68
-58,-102,-43,80,-7,-73,43,92,-14,-24,-68,-68
-63,-97,-34,80,-14,-65,43,92,-14,-24,-68,-68
-68,-107,-39,87,-14,-73,34,112,-9,-24,-68,-68
-73,-107,-34,90,-19,-70,34,117,-4,-24,-68,-53
-73,-112,-39,92,-17,-75,39,122,0,-19,-63,-53
-73,-112,-39,92,-17,-75,39,126,0,-19,-63,-53
-73,-102,-29,87,-21,-65,43,117,0,-29,-63,-73
-73,-97,-24,85,-24,-61,43,122,0,-29,-63,-63
-73,-97,-24,85,-24,-61,48,126,0,-24,-63,-63
-73,-97,-24,85,-24,-61,53,131,4,-24,-58,-68
-68,-102,-34,85,-17,-68,53,146,9,-24,-58,-73
-68,-107,-39,87,-14,-73,53,146,9,-19,-58,-58
-68,-112,-43,90,-12,-78,53,156,19,-19,-58,-48
-68,-117,-48,92,-9,-82,58,161,19,-19,-58,-43
-68,-117,-48,92,-9,-82,58,165,29,-9,-58,-48
-68,-112,-43,90,-12,-78,63,170,39,-4,-58,-48
-68,-107,-39,87,-14,-73,63,180,39,0,-58,-48
-68,-92,-24,80,-21,-58,63,180,39,0,-58,-48
-78,-97,-19,87,-29,-58,73,190,34,-9,-58,-63
-73,-97,-24,85,-24,-61,82,200,39,-4,-63,-63
-73,-107,-34,90,-19,-70,82,200,43,-4,-63,-58
-78,-107,-29,92,-24,-68,82,204,43,-4,-63,-58
-68,-102,-34,85,-17,-68,87,214,43,-4,-53,-63
-68,-102,-34,85,-17,-68,82,219,53,0,-53,-63
-63,-102,-39,82,-12,-70,78,229,58,0,-53,-48
-63,-102,-39,82,-12,-70,73,234,63,9,-53,-58
-63,-92,-29,78,-17,-61,82,239,73,9,-53,-48
-63,-92,-29,78,-17,-61,92,248,78,9,-48,-48
-63,-92,-29,78,-17,-61,92,258,82,9,-48,-48
-63,-92,-29,78,-17,-61,92,273,87,14,-48,-48
-63,-92,-29,78,-17,-61,97,273,92,14,-63,-53
-63,-92,-29,78,-17,-61,102,278,92,24,-63,-63
-63,-92,-29,78,-17,-61,102,292,102,24,-58,-68
-58,-92,-34,75,-12,-63,102,302,107,24,-58,-63
-58,-78,-19,68,-19,-48,112,312,112,24,-58,-58
-63,-78,-14,70,-24,-46,122,312,112,24,-58,-63
-63,-78,-14,70,-24,-46,126,322,122,24,-58,-58
-63,-78,-14,70,-24,-46,126,331,122,24,-58,-53
-63,-78,-14,70,-24,-46,131,331,122,29,-58,-58
-63,-73,-9,68,-26,-41,136,336,126,29,-58,-73
-63,-73,-9,68,-26,-41,141,346,136,34,-58,-68
-63,-73,-9,68,-26,-41,146,361,146,39,-63,-73
-63,-73,-9,68,-26,-41,151,380,146,48,-53,-73
-63,-68,-4,65,-29,-36,156,380,151,43,-53,-73
-63,-68,-4,65,-29,-36,161,390,156,43,-53,-68
-63,-68,-4,65,-29,-36,161,400,161,43,-53,-58
-53,-68,-14,61,-19,-41,165,390,151,34,-63,-73
-58,-68,-9,63,-24,-39,170,395,151,34,-68,-87
-58,-68,-9,63,-24,-39,180,400,161,34,-73,-92
-63,-68,-4,65,-29,-36,185,409,165,34,-82,-87
-73,-78,-4,75,-34,-41,195,424,175,34,-73,-82
-73,-78,-4,75,-34,-41,200,429,175,24,-82,-92
-78,-78,0,78,-39,-39,204,434,180,24,-87,-97
-78,-78,0,78,-39,-39,204,444,180,19,-87,-82
-78,-68,9,73,-43,-29,200,434,170,19,-92,-92
-82,-68,14,75,-48,-26,204,434,170,19,-97,-107
-82,-68,14,75,-48,-26,214,439,170,19,-97,-107
-87,-68,19,78,-53,-24,214,439,175,14,-97,-97
-82,-78,4,80,-43,-36,224,448,185,14,-92,-87
-87,-78,9,82,-48,-34,224,448,185,9,-97,-92
-92,-78,14,85,-53,-31,234,448,180,4,-102,-97
-92,-78,14,85,-53,-31,244,453,180,0,-107,-97
-92,-73,19,82,-56,-26,234,444,180,-4,-107,-97
-92,-68,24,80,-58,-21,234,439,170,-14,-122,-102
-92,-63,29,78,-61,-17,234,439,170,-19,-126,-117
-102,-68,34,85,-68,-17,239,439,175,-24,-131,-117
-102,-68,34,85,-68,-17,253,434,165,-34,-136,-117
-107,-63,43,85,-75,-9,253,429,165,-39,-141,-117
-112,-63,48,87,-80,-7,253,424,165,-39,-146,-122
-117,-63,53,90,-85,-4,253,424,161,-48,-146,-122
-117,-63,53,90,-85,-4,253,429,161,-39,-141,-122
-117,-58,58,87,-87,0,258,429,161,-39,-141,-117
-122,-58,63,90,-92,2,258,424,161,-39,-141,-117
-122,-58,63,90,-92,2,258,414,161,-39,-136,-117
-112,-58,53,85,-82,-2,248,405,170,-39,-146,-112
-112,-58,53,85,-82,-2,244,400,165,-39,-141,-112
-112,-48,63,80,-87,7,239,390,165,-34,-131,-112
-107,-48,58,78,-82,4,234,380,170,-24,-126,-102
-107,-39,68,73,-87,14,234,370,161,-4,-102,-87
-107,-34,73,70,-90,19,219,361,161,-4,-97,-78
-107,-24,82,65,-95,29,209,341,151,-4,-87,-73
-107,-24,82,65,-95,29,195,326,151,0,-78,-73
-87,-14,73,51,-80,29,180,307,156,0,-78,-58
-82,-9,73,46,-78,31,170,297,151,4,-73,-53
-82,-9,73,46,-78,31,161,283,146,9,-68,-53
-78,-9,68,43,-73,29,146,263,146,14,-53,-48
-87,-19,68,53,-78,24,131,248,126,29,-39,-48
-87,-19,68,53,-78,24,122,234,122,34,-29,-24
-82,-19,63,51,-73,21,112,214,122,39,-19,-14
-78,-9,68,43,-73,29,102,200,112,39,-9,-14
-73,0,73,36,-73,36,82,180,112,29,-19,-24
-68,0,68,34,-68,34,73,170,102,29,-19,-29
-63,0,63,31,-63,31,63,156,92,29,-14,-29
-63,-4,58,34,-61,26,53,141,87,29,-9,-29
-53,-14,39,34,-46,12,53,126,73,39,-9,-19
-48,-14,34,31,-41,9,48,117,73,39,0,0
-48,-14,34,31,-41,9,39,107,63,39,0,0
-48,-19,29,34,-39,4,29,92,58,39,-4,-4
-48,-9,39,29,-43,14,24,82,58,29,-4,-14
-43,-9,34,26,-39,12,19,73,58,29,-4,-4
-39,-9,29,24,-34,9,14,68,43,29,-4,-4
-39,-14,24,26,-31,4,4,58,39,19,-4,-19
-39,-29,9,34,-24,-9,-4,48,29,29,4,-24
-39,-29,9,34,-24,-9,-9,39,24,29,4,-9
-39,-29,9,34,-24,-9,-9,29,19,19,4,0
-43,-34,9,39,-26,-12,-14,24,9,14,0,4
-34,-34,0,34,-17,-17,-9,24,14,14,-4,-4
-34,-24,9,29,-21,-7,-14,14,14,14,-4,-9
-34,-24,9,29,-21,-7,-14,14,14,14,-4,-14
-34,-29,4,31,-19,-12,-14,9,4,9,-4,-24
-29,-39,-9,34,-9,-24,-19,9,0,0,-19,-24
-29,-34,-4,31,-12,-19,-19,4,-4,0,-19,-19
-34,-34,0,34,-17,-17,-29,0,-4,4,-14,-4
-34,-39,-4,36,-14,-21,-34,-4,-4,4,-14,0
-34,-29,4,31,-19,-12,-34,-14,-4,0,-19,-24
-29,-29,0,29,-14,-14,-29,-14,0,0,-19,-19
-29,-29,0,29,-14,-14,-29,-14,0,0,-19,-14
-34,-29,4,31,-19,-12,-29,-19,-9,0,-29,-34
-24,-24,0,24,-12,-12,-29,-9,-9,-4,-19,-39
-24,-19,4,21,-14,-7,-29,-9,-4,-4,-14,-34
-24,-14,9,19,-17,-2,-29,-9,-4,-4,-14,-19
-19,-14,4,17,-12,-4,-29,-9,-4,0,-14,-14
-29,-29,0,29,-14,-14,-19,-4,-4,9,-9,-29
-29,-29,0,29,-14,-14,-19,-4,-4,9,-9,-29
-34,-29,4,31,-19,-12,-19,-4,-4,9,-9,-14
-34,-24,9,29,-21,-7,-19,-4,-4,9,-9,-24
-24,-34,-9,29,-7,-21,-19,-4,-4,9,-14,-24
-24,-39,-14,31,-4,-26,-19,-4,-4,9,-14,-24
-24,-39,-14,31,-4,-26,-19,-4,-4,9,-14,-14
-24,-34,-9,29,-7,-21,-19,0,0,9,-9,-14
-19,-24,-4,21,-7,-14,-19,0,0,4,-19,-19
-19,-24,-4,21,-7,-14,-19,0,-4,4,-19,-19
-19,-24,-4,21,-7,-14,-19,0,-4,0,-19,-24
-24,-24,0,24,-12,-12,-19,0,0,0,-19,-24
-24,-34,-9,29,-7,-21,-19,-9,-9,0,-29,-24
-24,-34,-9,29,-7,-21,-19,-9,-9,0,-39,-24
-24,-34,-9,29,-7,-21,-19,0,-9,0,-29,-19
-24,-39,-14,31,-4,-26,-14,0,-9,0,-29,-9
-24,-39,-14,31,-4,-26,-24,0,0,0,-29,-19
-24,-34,-9,29,-7,-21,-24,0,0,0,-29,-29
-24,-34,-9,29,-7,-21,-24,4,0,4,-29,-29
-24,-34,-9,29,-7,-21,-24,4,0,4,-39,-29
-29,-34,-4,31,-12,-19,-14,0,-4,9,-39,-29
-29,-34,-4,31,-12,-19,-14,0,-4,9,-34,-29
-34,-34,0,34,-17,-17,-14,0,0,9,-29,-29
-34,-39,-4,36,-14,-21,-14,4,4,9,-19,-24
-34,-39,-4,36,-14,-21,-14,4,4,4,-19,-24
-34,-39,-4,36,-14,-21,-14,4,4,4,-19,-29
-34,-34,0,34,-17,-17,-14,4,4,4,-14,-29
-34,-34,0,34,-17,-17,-14,9,9,14,-9,-14
-29,-34,-4,31,-12,-19,-24,9,0,4,-19,-24
-29,-24,4,26,-17,-9,-24,4,0,4,-19,-29
-24,-24,0,24,-12,-12,-24,4,0,4,-19,-29
-24,-24,0,24,-12,-12,-24,9,-4,4,-19,-19
-24,-24,0,24,-12,-12,-19,19,0,4,-19,-19
-24,-24,0,24,-12,-12,-19,14,0,4,-19,-24
-24,-24,0,24,-12,-12,-14,14,0,4,-14,-24
-19,-19,0,19,-9,-9,-14,14,0,4,-14,-24
-19,-19,0,19,-9,-9,-14,4,0,4,-14,-14
-24,-19,4,21,-14,-7,-14,4,0,4,-19,-19
-24,-19,4,21,-14,-7,-14,4,0,4,-19,-19
-24,-19,4,21,-14,-7,-19,4,0,4,-19,-14
-19,-9,9,14,-14,0,-19,4,0,4,-14,-19
-19,-9,9,14,-14,0,-19,9,0,4,-9,-19
-14,-9,4,12,-9,-2,-19,9,0,9,-9,-19
-9,-9,0,9,-4,-4,-19,9,0,9,-9,-14
-9,-14,-4,12,-2,-9,-19,9,0,0,-9,-14
-14,-19,-4,17,-4,-12,-24,4,-9,-4,-9,-19
-14,-19,-4,17,-4,-12,-24,4,-9,-4,-9,-19
-9,-24,-14,17,2,-19,-19,0,-4,-4,-9,-14
-9,-19,-9,14,0,-14,-19,-9,-4,4,-19,-14
-9,-14,-4,12,-2,-9,-19,-9,-9,-4,-19,-14
-9,-9,0,9,-4,-4,-24,-14,-14,-4,-24,-24
-9,4,14,2,-12,9,-24,-14,-14,-4,-24,-24
-9,-4,4,7,-7,0,-24,-9,-14,-4,-14,-19
-9,-4,4,7,-7,0,-24,-9,-14,-9,-14,-19
-9,-4,4,7,-7,0,-24,-9,-19,-9,-14,-29
-9,-4,4,7,-7,0,-24,-9,-19,-9,-14,-29
-4,-9,-4,7,0,-7,-24,-14,-19,-9,-14,-14
-4,-9,-4,7,0,-7,-24,-14,-19,-9,-14,-14
-4,-9,-4,7,0,-7,-24,-9,-24,-9,-24,-19
-4,-9,-4,7,0,-7,-24,-9,-24,-9,-24,-29
4,0,-4,-2,4,-2,-14,-19,-24,-9,-19,-9
9,0,-9,-4,9,-4,-14,-19,-24,-14,-19,-9
9,0,-9,-4,9,-4,-19,-19,-29,-14,-24,-19
0,4,4,-2,-2,4,-19,-19,-29,-19,-24,-19
-9,0,9,4,-9,4,-19,-24,-24,-9,-14,-19
-9,-14,-4,12,-2,-9,-19,-24,-24,-9,-14,-14
-4,-19,-14,12,4,-17,-19,-24,-24,-9,-14,-14
-4,-24,-19,14,7,-21,-19,-24,-24,-9,-14,-19
-4,-9,-4,7,0,-7,-34,-34,-39,-19,-19,-29
4,0,-4,-2,4,-2,-34,-39,-39,-19,-19,-29
4,9,4,-7,0,7,-34,-39,-39,-24,-19,-29
4,14,9,-9,-2,12,-34,-34,-39,-24,-19,-34
14,9,-4,-12,9,2,-24,-34,-29,-24,-29,-29
14,4,-9,-9,12,-2,-24,-43,-34,-24,-29,-19
14,-9,-24,-2,19,-17,-24,-43,-34,-24,-29,-14
14,-14,-29,0,21,-21,-24,-48,-39,-24,-29,-14
14,9,-4,-12,9,2,-29,-48,-39,-24,-24,-24
14,9,-4,-12,9,2,-29,-43,-39,-24,-24,-19
4,0,-4,-2,4,-2,-29,-39,-39,-24,-24,-19
4,0,-4,-2,4,-2,-29,-39,-39,-29,-29,-29
4,9,4,-7,0,7,-29,-39,-39,-39,-29,-29
4,9,4,-7,0,7,-29,-43,-39,-34,-29,-24
4,0,-4,-2,4,-2,-29,-43,-39,-34,-29,-19
4,9,4,-7,0,7,-39,-53,-43,-39,-29,-19
4,0,-4,-2,4,-2,-39,-53,-43,-29,-29,-39
4,-4,-9,0,7,-7,-39,-53,-43,-24,-24,-29
0,-4,-4,2,2,-4,-39,-58,-43,-24,-24,-29
0,-4,-4,2,2,-4,-43,-58,-43,-24,-24,-34
14,4,-9,-9,12,-2,-34,-53,-43,-24,-14,-29
14,9,-4,-12,9,2,-34,-53,-48,-29,-14,-24
14,9,-4,-12,9,2,-34,-58,-48,-29,-14,-14
14,9,-4,-12,9,2,-34,-58,-48,-29,-14,-9
14,9,-4,-12,9,2,-34,-58,-53,-39,-24,-19
14,9,-4,-12,9,2,-34,-58,-53,-39,-24,-24
14,0,-14,-7,14,-7,-34,-63,-58,-39,-24,-24
14,0,-14,-7,14,-7,-34,-63,-58,-39,-24,-29
4,0,-4,-2,4,-2,-34,-63,-48,-29,-14,-24
4,0,-4,-2,4,-2,-34,-58,-48,-29,-14,-19
0,-4,-4,2,2,-4,-34,-58,-53,-29,-14,-14
0,-4,-4,2,2,-4,-39,-63,-53,-29,-14,-9
9,-4,-14,-2,12,-9,-29,-63,-43,-29,-19,-19
9,-4,-14,-2,12,-9,-29,-63,-43,-29,-19,-24
9,-4,-14,-2,12,-9,-29,-63,-43,-34,-19,-29
9,-4,-14,-2,12,-9,-29,-68,-43,-34,-19,-29
19,0,-19,-9,19,-9,-39,-58,-53,-34,-19,-19
19,0,-19,-9,19,-9,-39,-58,-53,-34,-19,-19
19,4,-14,-12,17,-4,-39,-53,-53,-29,-14,-14
19,4,-14,-12,17,-4,-34,-53,-53,-29,-14,-14
19,4,-14,-12,17,-4,-34,-68,-43,-34,-14,-24
19,4,-14,-12,17,-4,-39,-78,-43,-34,-14,-29
19,4,-14,-12,17,-4,-39,-68,-43,-34,-9,-29
19,4,-14,-12,17,-4,-39,-68,-43,-34,-9,-24
9,4,-4,-7,7,0,-48,-68,-43,-34,-19,-14
9,4,-4,-7,7,0,-43,-68,-48,-34,-19,-14
9,-4,-14,-2,12,-9,-43,-73,-48,-34,-19,-9
9,4,-4,-7,7,0,-48,-78,-48,-34,-19,-9
19,9,-9,-14,14,0,-39,-78,-48,-34,-19,-9
19,9,-9,-14,14,0,-39,-68,-48,-34,-19,-14
19,4,-14,-12,17,-4,-39,-68,-48,-34,-19,-14
19,4,-14,-12,17,-4,-39,-73,-43,-34,-19,-9
19,4,-14,-12,17,-4,-39,-73,-53,-34,-19,-19
19,4,-14,-12,17,-4,-39,-73,-58,-34,-19,-29
19,4,-14,-12,17,-4,-34,-73,-58,-34,-19,-29
19,4,-14,-12,17,-4,-34,-73,-58,-34,-19,-19
19,4,-14,-12,17,-4,-39,-73,-48,-34,-9,-9
19,4,-14,-12,17,-4,-39,-73,-48,-39,-19,-14
19,4,-14,-12,17,-4,-39,-68,-48,-39,-9,-14
19,4,-14,-12,17,-4,-39,-68,-43,-34,-9,-9
9,-4,-14,-2,12,-9,-39,-78,-53,-43,-19,-19
9,-4,-14,-2,12,-9,-39,-78,-53,-43,-19,-29
9,-9,-19,0,14,-14,-39,-82,-63,-43,-19,-29
14,-9,-24,-2,19,-17,-39,-82,-53,-43,-19,-19
14,0,-14,-7,14,-7,-43,-73,-53,-39,-19,-19
14,9,-4,-12,9,2,-43,-73,-58,-39,-19,-24
14,9,-4,-12,9,2,-43,-73,-58,-34,-19,-24
9,4,-4,-7,7,0,-43,-73,-58,-34,-19,-19
9,-4,-14,-2,12,-9,-43,-68,-58,-34,-19,-9
9,-9,-19,0,14,-14,-43,-68,-58,-34,-19,-19
9,-14,-24,2,17,-19,-39,-68,-58,-34,-19,-19
9,-14,-24,2,17,-19,-39,-73,-58,-34,-19,-14
9,-4,-14,-2,12,-9,-48,-78,-68,-43,-19,-19
9,0,-9,-4,9,-4,-39,-78,-58,-43,-19,-19
9,0,-9,-4,9,-4,-39,-73,-58,-43,-19,-24
9,-4,-14,-2,12,-9,-39,-73,-58,-43,-19,-24
9,-4,-14,-2,12,-9,-43,-78,-58,-34,-19,-14
9,-4,-14,-2,12,-9,-43,-78,-58,-34,-19,-14
9,0,-9,-4,9,-4,-43,-78,-68,-39,-24,-19
9,0,-9,-4,9,-4,-43,-78,-58,-39,-24,-19
14,-4,-19,-4,17,-12,-43,-78,-58,-39,-24,-9
19,0,-19,-9,19,-9,-43,-78,-58,-39,-24,-9
24,9,-14,-17,19,-2,-39,-73,-58,-39,-24,-14
29,14,-14,-21,21,0,-39,-73,-58,-39,-24,-14
24,4,-19,-14,21,-7,-39,-73,-48,-29,-14,-4
19,4,-14,-12,17,-4,-39,-73,-48,-29,-19,-4
14,4,-9,-9,12,-2,-43,-73,-53,-29,-19,-9
9,9,0,-9,4,4,-43,-73,-53,-29,-19,-9
14,9,-4,-12,9,2,-39,-73,-53,-29,-14,-4
19,4,-14,-12,17,-4,-34,-73,-53,-29,-14,-4
19,4,-14,-12,17,-4,-34,-68,-53,-24,-14,-4
24,4,-19,-14,21,-7,-39,-68,-53,-24,-14,-4
19,4,-14,-12,17,-4,-39,-73,-63,-39,-24,-34
19,-4,-24,-7,21,-14,-29,-73,-53,-34,-24,-14
9,0,-9,-4,9,-4,-39,-78,-58,-29,-19,-19
14,9,-4,-12,9,2,-39,-78,-58,-39,-19,-9
19,9,-9,-14,14,0,-39,-78,-58,-39,-19,-9
24,9,-14,-17,19,-2,-39,-78,-58,-39,-19,-9
29,9,-19,-19,24,-4,-39,-78,-58,-39,-19,-9
19,9,-9,-14,14,0,-39,-68,-48,-29,-19,-19
19,9,-9,-14,14,0,-39,-68,-48,-29,-19,-19
19,9,-9,-14,14,0,-39,-68,-48,-29,-19,-19
19,9,-9,-14,14,0,-39,-68,-48,-29,-19,-19
19,0,-19,-9,19,-9,-48,-78,-58,-39,-19,-9
19,0,-19,-9,19,-9,-48,-78,-58,-39,-19,-9
19,0,-19,-9,19,-9,-48,-78,-58,-39,-19,-9
19,0,-19,-9,19,-9,-48,-78,-58,-39,-19,-9
19,0,-19,-9,19,-9,-39,-78,-58,-39,-19,-9
19,0,-19,-9,19,-9,-39,-78,-58,-39,-19,-9
19,0,-19,-9,19,-9,-39,-78,-58,-39,-19,-9
19,0,-19,-9,19,-9,-39,-78,-58,-39,-19,-9
9,9,0,-9,4,4,-39,-78,-58,-39,-19,-9
9,9,0,-9,4,4,-39,-78,-58,-39,-19,-9
9,9,0,-9,4,4,-39,-78,-58,-39,-19,-9
9,9,0,-9,4,4,-39,-78,-58,-39,-19,-9
19,0,-19,-9,19,-9,-29,-78,-58,-29,-9,0
19,0,-19,-9,19,-9,-29,-78,-58,-29,-9,0
19,0,-19,-9,19,-9,-29,-78,-58,-29,-9,0
19,0,-19,-9,19,-9,-29,-78,-58,-29,-9,0
19,4,-14,-12,17,-4,-29,-68,-48,-29,0,0
19,9,-9,-14,14,0,-29,-68,-48,-29,0,0
19,14,-4,-17,12,4,-29,-68,-48,-29,0,0
19,19,0,-19,9,9,-29,-68,-48,-29,0,0
19,24,4,-21,7,14,-24,-63,-43,-19,4,4
19,29,9,-24,4,19,-19,-58,-39,-19,9,9
19,34,14,-26,2,24,-14,-53,-34,-19,14,14
19,43,24,-31,-2,34,0,-43,-24,-19,19,19
19,58,39,-39,-9,48,14,-29,-4,-4,34,24
19,63,43,-41,-12,53,19,-29,-4,0,34,29
19,78,58,-48,-19,68,24,-29,-4,4,34,29
19,78,58,-48,-19,68,29,-29,-4,9,34,29
19,68,48,-43,-14,58,34,-19,4,9,43,43
19,73,53,-46,-17,63,34,-14,9,24,43,43
19,78,58,-48,-19,68,34,-14,14,29,43,43
24,82,58,-53,-17,70,34,-14,14,29,48,43
39,92,53,-65,-7,73,34,0,14,39,58,43
39,92,53,-65,-7,73,34,4,19,39,63,48
39,97,58,-68,-9,78,29,4,19,39,63,48
43,97,53,-70,-4,75,19,4,19,43,63,48
43,97,53,-70,-4,75,9,-4,9,39,53,43
48,97,48,-73,0,73,0,-4,9,34,63,53
53,112,58,-82,-2,85,0,-4,24,43,73,53
58,122,63,-90,-2,92,0,-4,24,43,73,53
73,122,48,-97,12,85,-4,-4,34,53,82,73
82,117,34,-100,24,75,-19,-9,24,48,82,73
82,107,24,-95,29,65,-29,-14,19,39,78,73
82,102,19,-92,31,61,-43,-29,4,29,73,58
82,92,9,-87,36,51,-48,-34,0,29,58,48
82,92,9,-87,36,51,-58,-43,-4,29,58,58
82,92,9,-87,36,51,-58,-43,-4,24,48,58
82,87,4,-85,39,46,-58,-43,-4,24,48,58
82,97,14,-90,34,56,-58,-43,-4,29,58,58
87,97,9,-92,39,53,-58,-39,0,43,68,68
87,97,9,-92,39,53,-63,-34,9,39,73,68
87,87,0,-87,43,43,-63,-29,9,34,73,68
92,92,0,-92,46,46,-63,-24,19,39,82,68
97,78,-19,-87,58,29,-68,-19,9,39,78,58
97,73,-24,-85,61,24,-73,-19,0,39,73,53
92,68,-24,-80,58,21,-73,-14,-4,34,63,53
92,53,-39,-73,65,7,-73,-24,-9,24,63,43
92,39,-53,-65,73,-7,-82,-43,-14,9,58,39
97,34,-63,-65,80,-14,-82,-53,-29,4,53,39
97,34,-63,-65,80,-14,-82,-68,-39,-4,39,34
82,34,-48,-58,65,-7,-87,-68,-48,-9,34,24
68,34,-34,-51,51,0,-73,-63,-43,-9,34,24
58,29,-29,-43,43,0,-58,-63,-43,-9,34,24
43,24,-19,-34,31,2,-53,-63,-48,-14,34,24
24,19,-4,-21,14,7,-43,-68,-43,-9,29,9
24,19,-4,-21,14,7,-43,-78,-48,-14,24,9
14,0,-14,-7,14,-7,-43,-82,-58,-29,14,4
9,-4,-14,-2,12,-9,-43,-87,-63,-34,0,0
14,-9,-24,-2,19,-17,-43,-102,-78,-39,-4,0
14,-14,-29,0,21,-21,-53,-107,-82,-43,-4,0
19,-14,-34,-2,26,-24,-58,-107,-82,-48,-9,0
24,-14,-39,-4,31,-26,-63,-112,-87,-53,-14,-4
24,-14,-39,-4,31,-26,-63,-122,-97,-63,-14,-24
24,-19,-43,-2,34,-31,-63,-122,-97,-63,-14,-29
24,-19,-43,-2,34,-31,-53,-122,-97,-63,-14,-24
14,-19,-34,2,24,-26,-48,-122,-97,-63,-14,-19
14,-9,-24,-2,19,-17,-58,-122,-97,-63,-9,-24
19,-4,-24,-7,21,-14,-58,-117,-92,-63,-9,-19
19,-4,-24,-7,21,-14,-58,-112,-87,-53,-4,0
14,-4,-19,-4,17,-12,-58,-112,-87,-53,-4,4
14,-4,-19,-4,17,-12,-48,-112,-87,-53,-14,-14
14,-4,-19,-4,17,-12,-48,-117,-92,-58,-14,-24
14,-9,-24,-2,19,-17,-43,-117,-92,-58,-14,-14
9,-9,-19,0,14,-14,-43,-117,-92,-58,-9,-14
0,-19,-19,9,9,-19,-43,-112,-82,-48,0,-4
0,-14,-14,7,7,-14,-43,-107,-82,-48,-4,-4
0,-14,-14,7,7,-14,-43,-102,-82,-48,-4,-4
0,-14,-14,7,7,-14,-43,-97,-82,-48,-4,-4
0,-24,-24,12,12,-24,-48,-102,-82,-58,-14,-14
0,-24,-24,12,12,-24,-48,-102,-82,-58,-9,-19
0,-24,-24,12,12,-24,-48,-102,-82,-58,-9,-19
-4,-34,-29,19,12,-31,-43,-102,-78,-58,-9,-14
-4,-24,-19,14,7,-21,-34,-107,-87,-58,-9,-4
-4,-24,-19,14,7,-21,-34,-107,-87,-58,-14,-9
-4,-24,-19,14,7,-21,-34,-107,-92,-58,-14,-9
-4,-24,-19,14,7,-21,-34,-107,-92,-58,-14,-9
0,-14,-14,7,7,-14,-34,-102,-82,-48,-14,-14
4,-14,-19,4,12,-17,-34,-102,-82,-48,-14,-14
9,-14,-24,2,17,-19,-39,-102,-82,-48,-14,-19
14,-14,-29,0,21,-21,-39,-102,-82,-48,-14,-19
9,-14,-24,2,17,-19,-39,-112,-82,-58,-9,-9
9,-14,-24,2,17,-19,-39,-112,-82,-58,-9,-9
4,-14,-19,4,12,-17,-39,-112,-82,-58,-9,-9
4,-14,-19,4,12,-17,-39,-112,-82,-58,-9,-9
4,-14,-19,4,12,-17,-39,-112,-92,-58,-24,-4
4,-14,-19,4,12,-17,-39,-112,-92,-63,-24,-19
4,-14,-19,4,12,-17,-39,-112,-92,-63,-24,-39
4,-14,-19,4,12,-17,-39,-112,-92,-58,-24,-34
9,-19,-29,4,19,-24,-39,-97,-92,-58,-9,-24
9,-19,-29,4,19,-24,-39,-97,-92,-58,-9,-19
9,-14,-24,2,17,-19,-39,-97,-92,-58,-9,-24
9,-14,-24,2,17,-19,-39,-92,-87,-53,-9,-9
9,-24,-34,7,21,-29,-34,-97,-78,-43,-9,0
0,0,0,0,0,0,-34,-97,-87,-53,-9,-29
14,9,-4,-12,9,2,-34,-68,-73,-43,-9,-29
39,19,-19,-29,29,0,-19,-24,-34,-14,14,0
53,39,-14,-46,34,12,0,19,19,19,34,29
48,48,0,-48,24,24,29,78,78,73,73,53
48,78,29,-63,9,53,48,156,146,151,141,97
87,141,53,-114,17,97,97,244,234,244,214,141
126,185,58,-156,34,122,131,351,322,326,278,195
146,185,39,-165,53,112,156,468,405,414,346,209
180,195,14,-187,82,104,156,605,512,541,434,268
253,229,-24,-241,139,102,131,692,619,692,556,361
326,292,-34,-309,180,129,82,756,736,863,697,473
424,390,-34,-407,229,178,14,834,883,1083,888,610
507,512,4,-509,251,258,-68,873,1029,1322,1098,771
575,649,73,-612,251,361,-156,854,1146,1527,1302,941
614,775,161,-695,226,468,-268,756,1195,1668,1478,1098
595,868,273,-732,161,570,-395,517,1107,1678,1586,1205
522,941,419,-732,51,680,-468,234,902,1542,1566,1215
414,912,497,-663,-41,705,-488,-9,658,1249,1376,1122
263,702,439,-483,-87,570,-453,-268,326,814,995,873
53,395,341,-224,-143,368,-375,-668,-126,219,448,463
-180,165,346,7,-263,256,-258,-1141,-624,-434,-107,53
-312,29,341,141,-326,185,-170,-1429,-932,-834,-458,-204
-331,-43,287,187,-309,122,-146,-1366,-932,-873,-556,-297
-322,-63,258,192,-290,97,-146,-1185,-824,-766,-522,-307
-297,-58,239,178,-268,90,-195,-1102,-800,-707,-488,-322
-234,-63,170,148,-202,53,-248,-1044,-785,-683,-453,-307
-180,-73,107,126,-143,17,-273,-941,-717,-619,-405,-253
-126,-73,53,100,-90,-9,-239,-785,-614,-536,-341,-195
-82,-78,4,80,-43,-36,-180,-624,-497,-434,-278,-156
-29,-68,-39,48,4,-53,-131,-453,-395,-331,-209,-136
-4,-48,-43,26,19,-46,-87,-287,-273,-229,-141,-102
9,-29,-39,9,24,-34,-48,-161,-170,-141,-82,-58
14,0,-14,-7,14,-7,-14,-68,-97,-78,-48,-48
14,19,4,-17,4,12,14,-24,-58,-48,-34,-48
14,14,0,-14,7,7,24,-9,-34,-43,-24,-29
19,4,-14,-12,17,-4,29,4,-24,-29,-14,-4
9,-4,-14,-2,12,-9,43,-4,-24,-39,-4,-14
-4,-4,0,4,-2,-2,43,-4,-24,-39,-4,-19
-9,-9,0,9,-4,-4,43,0,-29,-39,-9,-19
-9,-14,-4,12,-2,-9,43,9,-29,-39,-9,-19
-14,-29,-14,21,0,-21,43,9,-29,-34,-9,-24
-14,-29,-14,21,0,-21,48,9,-29,-34,-19,-29
-14,-34,-19,24,2,-26,48,9,-29,-34,-19,-29
-14,-34,-19,24,2,-26,48,9,-29,-34,-14,-24
4,-24,-29,9,17,-26,48,0,-24,-39,-19,-24
9,-24,-34,7,21,-29,48,4,-24,-39,-19,-24
9,-19,-29,4,19,-24,48,4,-24,-39,-19,-29
9,-19,-29,4,19,-24,43,14,-24,-39,-19,-29
-4,-29,-24,17,9,-26,43,24,-34,-39,-19,-19
-4,-34,-29,19,12,-31,43,24,-34,-39,-19,-34
-4,-43,-39,24,17,-41,48,24,-34,-39,-19,-34
-4,-48,-43,26,19,-46,48,24,-34,-39,-19,-34
9,-34,-43,12,26,-39,48,14,-19,-29,-14,-19
9,-34,-43,12,26,-39,48,24,-19,-29,-14,-19
9,-34,-43,12,26,-39,48,29,-19,-19,-14,-19
9,-43,-53,17,31,-48,48,29,-19,-19,-14,-29
9,-34,-43,12,26,-39,48,34,-29,-34,-14,-29
9,-34,-43,12,26,-39,48,39,-24,-34,-14,-29
9,-34,-43,12,26,-39,48,39,-24,-29,-19,-39
9,-34,-43,12,26,-39,48,34,-24,-29,-19,-39
0,-43,-43,21,21,-43,48,34,-24,-29,-19,-29
0,-39,-39,19,19,-39,48,39,-24,-29,-19,-29
0,-39,-39,19,19,-39,48,43,-24,-29,-19,-34
0,-39,-39,19,19,-39,48,43,-24,-29,-14,-34
0,-39,-39,19,19,-39,58,53,-24,-39,-14,-24
0,-43,-43,21,21,-43,58,53,-24,-39,-14,-24
0,-43,-43,21,21,-43,58,53,-19,-39,-19,-24
-4,-43,-39,24,17,-41,63,58,-19,-39,-19,-24
4,-34,-39,14,21,-36,53,63,-14,-39,-19,-24
9,-34,-43,12,26,-39,53,63,-14,-34,-14,-19
9,-29,-39,9,24,-34,53,68,-14,-34,-14,-19
9,-29,-39,9,24,-34,53,68,-14,-29,-19,-24
9,-39,-48,14,29,-43,68,78,-9,-29,-9,-24
9,-39,-48,14,29,-43,68,87,-9,-29,-9,-24
9,-43,-53,17,31,-48,68,92,-9,-29,-9,-24
9,-43,-53,17,31,-48,68,92,-4,-34,-9,-34
0,-43,-43,21,21,-43,58,82,-4,-34,-19,-24
0,-43,-43,21,21,-43,58,82,0,-34,-14,-24
0,-43,-43,21,21,-43,58,82,0,-29,-14,-24
0,-39,-39,19,19,-39,63,87,0,-29,-19,-24
9,-39,-48,14,29,-43,68,87,0,-29,-19,-34
9,-39,-48,14,29,-43,68,87,4,-24,-14,-34
4,-43,-48,19,26,-46,68,97,9,-24,-14,-34
4,-43,-48,19,26,-46,68,102,9,-24,-9,-34
14,-43,-58,14,36,-51,73,117,9,-19,-9,-24
19,-43,-63,12,41,-53,73,122,14,-19,-9,-19
19,-43,-63,12,41,-53,73,122,14,-14,-9,-19
14,-39,-53,12,34,-46,73,122,14,-14,-9,-19
4,-29,-34,12,19,-31,73,122,29,-4,-9,-29
4,-29,-34,12,19,-31,73,126,34,-4,-9,-14
9,-34,-43,12,26,-39,78,131,39,0,-4,-14
14,-34,-48,9,31,-41,78,136,39,0,-4,-14
24,-43,-68,9,46,-56,73,136,39,0,4,-24
24,-39,-63,7,43,-51,73,141,39,0,4,-14
24,-39,-63,7,43,-51,78,146,39,4,4,-14
24,-39,-63,7,43,-51,82,151,43,4,9,-19
9,-39,-48,14,29,-43,92,165,48,-4,0,-29
9,-39,-48,14,29,-43,92,165,48,0,0,-19
9,-39,-48,14,29,-43,92,175,58,0,0,-14
9,-39,-48,14,29,-43,97,180,58,0,0,-14
9,-43,-53,17,31,-48,87,180,58,0,-9,-29
9,-43,-53,17,31,-48,92,180,68,4,-9,-29
9,-43,-53,17,31,-48,92,185,68,9,-9,-29
9,-34,-43,12,26,-39,92,180,68,9,-9,-29
19,-29,-48,4,34,-39,92,200,63,0,0,-24
24,-29,-53,2,39,-41,102,209,68,4,-4,-24
24,-39,-63,7,43,-51,102,209,73,4,-4,-19
19,-39,-58,9,39,-48,102,214,73,4,-4,-19
19,-24,-43,2,31,-34,112,214,73,14,-4,-34
19,-24,-43,2,31,-34,112,219,82,19,-4,-34
24,-24,-48,0,36,-36,112,229,87,19,-4,-19
24,-24,-48,0,36,-36,112,234,92,29,-4,-29
14,-34,-48,9,31,-41,122,248,92,29,-4,-19
14,-34,-48,9,31,-41,131,258,97,29,0,-19
14,-34,-48,9,31,-41,131,268,102,29,0,-19
14,-34,-48,9,31,-41,131,283,107,34,0,-19
14,-43,-58,14,36,-51,146,273,112,34,-4,-19
14,-43,-58,14,36,-51,151,278,112,43,-4,-24
14,-43,-58,14,36,-51,151,292,122,43,0,-24
19,-43,-63,12,41,-53,151,302,126,43,0,-14
19,-34,-53,7,36,-43,141,312,131,53,0,-14
14,-29,-43,7,29,-36,151,312,131,53,0,-24
14,-24,-39,4,26,-31,156,322,141,53,0,-24
14,-19,-34,2,24,-26,156,331,141,53,0,-24
14,-19,-34,2,24,-26,161,341,151,48,0,-34
14,-14,-29,0,21,-21,165,346,156,48,0,-43
14,-14,-29,0,21,-21,170,356,165,53,0,-34
14,-14,-29,0,21,-21,175,370,175,58,-4,-34
14,-19,-34,2,24,-26,180,370,165,58,-14,-29
14,-19,-34,2,24,-26,185,370,170,53,-14,-34
14,-24,-39,4,26,-31,190,380,175,53,-14,-34
14,-29,-43,7,29,-36,190,390,180,53,-14,-29
14,-19,-34,2,24,-26,195,390,180,63,-9,-39
9,-19,-29,4,19,-24,200,395,180,63,-9,-48
9,-19,-29,4,19,-24,209,400,190,63,-9,-48
4,-19,-24,7,14,-21,214,409,195,63,-14,-39
4,-9,-14,2,9,-12,224,414,204,63,-4,-29
4,-9,-14,2,9,-12,229,419,204,53,-14,-43
0,-9,-9,4,4,-9,234,424,209,53,-19,-53
0,-9,-9,4,4,-9,234,434,209,48,-19,-43
9,-14,-24,2,17,-19,248,434,209,39,-34,-53
4,-19,-24,7,14,-21,253,434,209,39,-39,-68
4,-24,-29,9,17,-26,263,439,209,39,-39,-68
0,-29,-29,14,14,-29,263,439,214,34,-39,-58
-14,-24,-9,19,-2,-17,253,429,209,34,-34,-48
-19,-19,0,19,-9,-9,253,429,204,29,-39,-53
-24,-14,9,19,-17,-2,263,429,195,24,-43,-58
-24,-9,14,17,-19,2,273,434,190,19,-48,-58
-24,-9,14,17,-19,2,273,444,200,14,-58,-68
-24,-9,14,17,-19,2,273,439,190,4,-73,-73
-24,-9,14,17,-19,2,273,439,190,0,-78,-87
-34,-19,14,26,-24,-2,278,439,195,-4,-82,-87
-34,-29,4,31,-19,-12,292,434,185,-4,-87,-87
-39,-24,14,31,-26,-4,292,429,185,-9,-92,-87
-43,-24,19,34,-31,-2,292,424,185,-9,-97,-92
-48,-24,24,36,-36,0,292,424,180,-19,-97,-92
-58,-29,29,43,-43,0,292,429,185,-19,-92,-92
-58,-29,29,43,-43,0,297,429,190,-19,-92,-87
-63,-34,29,48,-46,-2,297,424,195,-19,-92,-87
-63,-39,24,51,-43,-7,297,414,200,-19,-87,-87
-53,-34,19,43,-36,-7,297,395,190,-9,-87,-73
-53,-29,24,41,-39,-2,292,390,185,-9,-82,-73
-53,-14,39,34,-46,12,287,380,185,-4,-73,-73
-48,-9,39,29,-43,14,283,370,190,4,-68,-63
-48,-9,39,29,-43,14,273,370,200,14,-53,-58
-48,-4,43,26,-46,19,258,361,200,14,-48,-48
-48,4,53,21,-51,29,248,341,190,14,-39,-43
-48,4,53,21,-51,29,234,326,190,19,-29,-43
-39,4,43,17,-41,24,219,307,175,19,-29,-29
-34,9,43,12,-39,26,209,297,170,24,-24,-24
-34,9,43,12,-39,26,200,283,165,29,-19,-24
-29,9,39,9,-34,24,185,263,165,34,-4,-19
-29,9,39,9,-34,24,170,248,165,48,9,-14
-29,9,39,9,-34,24,161,234,161,53,19,4
-24,9,34,7,-29,21,151,214,161,58,29,9
-19,19,39,0,-29,29,141,200,151,58,39,4
-14,9,24,2,-19,17,131,170,141,58,39,9
-9,9,19,0,-14,14,122,161,131,58,39,9
-4,9,14,-2,-9,12,112,146,122,58,43,14
-4,4,9,0,-7,7,102,131,117,58,48,19
4,9,4,-7,0,7,92,126,102,58,58,19
9,14,4,-12,2,9,87,117,102,58,68,39
9,19,9,-14,0,14,78,107,92,58,68,39
9,19,9,-14,0,14,68,92,87,58,63,34
9,4,-4,-7,7,0,53,73,78,58,53,34
14,0,-14,-7,14,-7,48,63,78,58,53,43
19,-4,-24,-7,21,-14,43,58,63,58,53,43
19,-14,-34,-2,26,-24,34,48,58,48,53,29
9,-9,-19,0,14,-14,34,48,58,48,53,19
9,-9,-19,0,14,-14,29,39,53,48,53,29
9,-9,-19,0,14,-14,29,29,48,39,53,34
4,-14,-19,4,12,-17,24,24,39,34,48,34
9,-14,-24,2,17,-19,19,19,43,43,43,29
14,-4,-19,-4,17,-12,14,4,43,43,43,29
19,-4,-24,-7,21,-14,14,0,43,43,43,29
24,-9,-34,-7,29,-21,14,-9,34,39,43,24
19,-9,-29,-4,24,-19,9,-19,19,19,39,9
19,-4,-24,-7,21,-14,9,-24,14,19,39,9
14,-4,-19,-4,17,-12,0,-29,14,24,43,19
14,-9,-24,-2,19,-17,-4,-34,14,24,43,19
14,-19,-34,2,24,-26,4,-24,14,19,39,9
19,-19,-39,0,29,-29,9,-24,19,19,39,19
19,-19,-39,0,29,-29,9,-24,19,19,39,29
14,-19,-34,2,24,-26,9,-29,9,19,29,14
14,-19,-34,2,24,-26,19,-19,19,14,39,14
14,-19,-34,2,24,-26,19,-19,24,14,43,14
14,-19,-34,2,24,-26,19,-19,24,14,43,24
19,-24,-43,2,31,-34,19,-19,24,19,43,24
9,-39,-48,14,29,-43,14,-24,14,19,48,9
9,-39,-48,14,29,-43,9,-24,14,19,48,9
4,-39,-43,17,24,-41,4,-24,14,19,48,24
4,-34,-39,14,21,-36,0,-24,14,19,48,14
14,-24,-39,4,26,-31,0,-24,14,19,34,14
14,-29,-43,7,29,-36,0,-24,14,19,34,14
14,-29,-43,7,29,-36,0,-24,14,19,34,24
14,-24,-39,4,26,-31,0,-19,19,19,39,24
9,-24,-34,7,21,-29,0,-29,9,24,39,19
9,-24,-34,7,21,-29,0,-29,4,24,39,19
9,-24,-34,7,21,-29,0,-29,4,19,39,14
4,-24,-29,9,17,-26,0,-29,9,19,39,14
14,-24,-39,4,26,-31,0,-29,19,29,39,4
14,-24,-39,4,26,-31,0,-29,19,29,29,4
14,-24,-39,4,26,-31,0,-19,19,29,39,9
14,-29,-43,7,29,-36,4,-19,19,29,39,19
4,-29,-34,12,19,-31,4,-19,19,19,39,19
4,-24,-29,9,17,-26,4,-19,19,19,39,9
4,-24,-29,9,17,-26,4,-14,19,24,39,9
4,-24,-29,9,17,-26,4,-14,19,24,29,9
19,-24,-43,2,31,-34,4,-19,24,9,24,9
19,-24,-43,2,31,-34,4,-19,24,9,24,9
14,-24,-39,4,26,-31,4,-19,29,9,24,9
14,-29,-43,7,29,-36,4,-14,34,9,29,14
14,-19,-34,2,24,-26,4,-14,24,14,39,14
14,-19,-34,2,24,-26,4,-14,24,14,39,9
14,-14,-29,0,21,-21,4,-14,24,14,43,9
14,-14,-29,0,21,-21,4,-9,29,24,48,24
9,-24,-34,7,21,-29,4,-19,29,24,39,24
9,-14,-24,2,17,-19,4,-24,29,24,39,19
14,-14,-29,0,21,-21,4,-24,29,24,39,19
14,-14,-29,0,21,-21,4,-19,24,24,39,29
4,-19,-24,7,14,-21,0,-19,19,14,29,24
4,-24,-29,9,17,-26,0,-24,19,14,29,14
4,-29,-34,12,19,-31,4,-24,19,14,34,9
9,-29,-39,9,24,-34,4,-24,19,14,34,4
9,-34,-43,12,26,-39,14,-14,19,14,34,4
4,-39,-43,17,24,-41,14,-14,19,14,29,0
4,-43,-48,19,26,-46,14,-14,19,14,29,0
4,-48,-53,21,29,-51,9,-14,19,14,29,4
4,-43,-48,19,26,-46,0,-19,19,14,34,9
0,-39,-39,19,19,-39,0,-19,19,14,39,9
0,-34,-34,17,17,-34,0,-24,19,19,39,9
0,-29,-29,14,14,-29,0,-29,19,19,39,14
9,-19,-29,4,19,-24,0,-19,29,19,39,19
4,-19,-24,7,14,-21,-4,-24,19,14,39,19
4,-14,-19,4,12,-17,-4,-24,19,14,39,24
9,-14,-24,2,17,-19,0,-29,24,14,39,34
0,-24,-24,12,12,-24,0,-29,14,14,39,24
0,-24,-24,12,12,-24,0,-29,9,4,39,24
0,-24,-24,12,12,-24,-4,-34,4,4,34,14
0,-14,-14,7,7,-14,-4,-34,4,4,34,14
9,-34,-43,12,26,-39,4,-29,4,4,34,29
9,-34,-43,12,26,-39,4,-29,4,0,34,29
9,-34,-43,12,26,-39,4,-29,0,0,34,19
9,-34,-43,12,26,-39,4,-29,0,0,34,19
9,-39,-48,14,29,-43,-4,-39,0,9,43,24
4,-39,-43,17,24,-41,-4,-43,0,9,43,24
0,-39,-39,19,19,-39,-4,-43,-4,9,34,19
-4,-39,-34,21,14,-36,-4,-48,-4,9,34,9
-4,-39,-34,21,14,-36,-4,-58,4,0,29,19
0,-39,-39,19,19,-39,-4,-58,4,-4,29,19
0,-39,-39,19,19,-39,-9,-58,0,-4,24,9
-9,-34,-24,21,7,-29,-9,-58,0,-9,24,9
-19,-24,-4,21,-7,-14,0,-63,-4,-9,14,0
-19,-34,-14,26,-2,-24,0,-63,-4,-9,14,4
-14,-34,-19,24,2,-26,0,-63,-4,-9,14,4
-14,-34,-19,24,2,-26,0,-63,-4,-9,14,0
-14,-43,-29,29,7,-36,-4,-73,-19,-19,19,9
-4,-39,-34,21,14,-36,-4,-78,-19,-19,19,9
-4,-34,-29,19,12,-31,-4,-78,-19,-24,19,9
-4,-34,-29,19,12,-31,-4,-73,-19,-24,19,4
-14,-24,-9,19,-2,-17,-4,-73,-19,-14,19,-4
-14,-24,-9,19,-2,-17,-4,-82,-24,-14,19,0
-14,-34,-19,24,2,-26,-4,-82,-24,-14,19,0
-14,-34,-19,24,2,-26,-4,-87,-29,-14,19,-4
4,-19,-24,7,14,-21,-19,-87,-29,-24,14,4
4,-19,-24,7,14,-21,-19,-82,-29,-24,14,9
-4,-29,-24,17,9,-26,-19,-78,-29,-24,14,9
-4,-29,-24,17,9,-26,-19,-78,-29,-29,9,0
-4,-29,-24,17,9,-26,-19,-78,-19,-19,19,9
-4,-29,-24,17,9,-26,-19,-82,-19,-14,19,14
-4,-39,-34,21,14,-36,-19,-82,-19,-14,19,19
-4,-29,-24,17,9,-26,-29,-92,-24,-19,19,19
-14,-29,-14,21,0,-21,-19,-92,-24,-29,9,0
-14,-34,-19,24,2,-26,-19,-92,-24,-24,14,9
-19,-34,-14,26,-2,-24,-19,-97,-24,-24,14,9
-19,-34,-14,26,-2,-24,-24,-97,-24,-24,14,4
-4,-43,-39,24,17,-41,-24,-92,-24,-24,14,4
-4,-39,-34,21,14,-36,-24,-92,-29,-29,14,4
-4,-39,-34,21,14,-36,-24,-97,-29,-29,14,9
-4,-39,-34,21,14,-36,-24,-97,-29,-29,14,9
-4,-29,-24,17,9,-26,-24,-97,-24,-29,14,4
-4,-29,-24,17,9,-26,-24,-97,-24,-29,14,4
-4,-39,-34,21,14,-36,-24,-102,-29,-29,14,9
-4,-39,-34,21,14,-36,-24,-102,-29,-29,14,9
4,-29,-34,12,19,-31,-24,-112,-29,-19,24,9
4,-29,-34,12,19,-31,-24,-107,-29,-19,24,9
0,-34,-34,17,17,-34,-24,-107,-34,-19,24,9
0,-34,-34,17,17,-34,-29,-112,-34,-19,24,9
-9,-43,-34,26,12,-39,-29,-112,-34,-29,9,4
-9,-43,-34,26,12,-39,-29,-112,-34,-29,9,4
-9,-43,-34,26,12,-39,-29,-112,-34,-34,9,4
-9,-43,-34,26,12,-39,-29,-117,-34,-34,9,9
-9,-39,-29,24,9,-34,-29,-107,-43,-24,9,9
-9,-39,-29,24,9,-34,-29,-107,-43,-24,9,9
-9,-34,-24,21,7,-29,-29,-102,-43,-19,14,14
-9,-34,-24,21,7,-29,-24,-102,-43,-19,14,14
-19,-43,-24,31,2,-34,-24,-117,-43,-34,4,-4
-19,-43,-24,31,2,-34,-29,-126,-43,-34,4,-9
-19,-43,-24,31,2,-34,-29,-117,-43,-34,9,-9
-19,-43,-24,31,2,-34,-29,-117,-43,-34,9,-4
-9,-34,-24,21,7,-29,-39,-117,-43,-34,9,0
-9,-34,-24,21,7,-29,-34,-117,-48,-34,9,4
-9,-43,-34,26,12,-39,-34,-122,-48,-34,9,14
-9,-34,-24,21,7,-29,-39,-126,-48,-34,9,19
-9,-39,-29,24,9,-34,-39,-117,-48,-34,9,14
-9,-39,-29,24,9,-34,-39,-107,-48,-34,9,4
-9,-43,-34,26,12,-39,-39,-107,-48,-34,9,0
-9,-43,-34,26,12,-39,-39,-112,-43,-34,9,0
-9,-53,-43,31,17,-48,-29,-122,-43,-34,9,4
-9,-53,-43,31,17,-48,-29,-122,-48,-34,9,0
-9,-53,-43,31,17,-48,-24,-122,-48,-34,9,4
-9,-53,-43,31,17,-48,-24,-122,-48,-34,9,19
-9,-43,-34,26,12,-39,-39,-122,-48,-24,9,14
-9,-43,-34,26,12,-39,-39,-122,-48,-29,0,4
-9,-43,-34,26,12,-39,-39,-117,-48,-29,9,0
-9,-43,-34,26,12,-39,-39,-117,-43,-24,9,0
-9,-43,-34,26,12,-39,-29,-117,-53,-24,9,4
-9,-43,-34,26,12,-39,-29,-117,-53,-24,9,0
-9,-48,-39,29,14,-43,-29,-122,-63,-24,9,4
-4,-48,-43,26,19,-46,-29,-122,-53,-24,9,19
-14,-48,-34,31,9,-41,-34,-112,-43,-39,0,9
-14,-39,-24,26,4,-31,-34,-112,-48,-39,0,4
-14,-39,-24,26,4,-31,-34,-112,-48,-34,0,4
-19,-43,-24,31,2,-34,-34,-112,-48,-34,0,9
-14,-43,-29,29,7,-36,-43,-122,-48,-43,0,9
-9,-39,-29,24,9,-34,-43,-126,-48,-43,0,0
-4,-34,-29,19,12,-31,-39,-131,-48,-43,0,0
0,-24,-24,12,12,-24,-39,-141,-48,-43,0,4
-9,-39,-29,24,9,-34,-39,-141,-58,-34,9,0
-9,-39,-29,24,9,-34,-29,-136,-48,-34,9,0
-9,-43,-34,26,12,-39,-29,-126,-48,-34,9,-4
-9,-53,-43,31,17,-48,-29,-122,-48,-34,9,-4
-9,-43,-34,26,12,-39,-34,-126,-48,-34,0,-4
-9,-43,-34,26,12,-39,-34,-126,-48,-34,0,-4
-9,-39,-29,24,9,-34,-34,-126,-58,-39,-4,-9
-9,-39,-29,24,9,-34,-34,-126,-48,-39,-4,-9
-14,-58,-43,36,14,-51,-34,-126,-48,-29,0,9
-19,-58,-39,39,9,-48,-34,-126,-48,-29,4,9
-24,-53,-29,39,2,-41,-29,-122,-48,-29,9,4
-29,-53,-24,41,-2,-39,-29,-122,-48,-29,14,4
-29,-43,-14,36,-7,-29,-39,-131,-58,-34,4,-4
-29,-43,-14,36,-7,-29,-39,-131,-58,-39,0,-4
-29,-43,-14,36,-7,-29,-43,-131,-63,-43,0,-9
-29,-39,-9,34,-9,-24,-43,-131,-63,-48,0,-9
-19,-39,-19,29,0,-29,-48,-131,-53,-39,4,4
-19,-43,-24,31,2,-34,-43,-131,-53,-39,4,4
-24,-43,-19,34,-2,-31,-43,-126,-53,-34,4,4
-24,-43,-19,34,-2,-31,-48,-126,-53,-34,4,4
-9,-34,-24,21,7,-29,-39,-122,-43,-29,24,24
-9,-24,-14,17,2,-19,-39,-131,-53,-43,14,14
-9,-19,-9,14,0,-14,-48,-146,-68,-48,0,0
-19,-29,-9,24,-4,-19,-39,-136,-68,-48,0,0
-19,-29,-9,24,-4,-19,-39,-136,-68,-48,0,0
-19,-29,-9,24,-4,-19,-39,-136,-68,-48,0,0
-19,-29,-9,24,-4,-19,-39,-136,-68,-48,0,0
-24,-34,-9,29,-7,-21,-39,-126,-58,-39,0,0
-29,-39,-9,34,-9,-24,-39,-126,-58,-39,0,0
-34,-43,-9,39,-12,-26,-39,-126,-58,-39,0,0
-39,-48,-9,43,-14,-29,-39,-126,-58,-39,0,0
-34,-48,-14,41,-9,-31,-39,-126,-58,-48,0,-9
-29,-48,-19,39,-4,-34,-39,-126,-58,-48,0,-9
-24,-48,-24,36,0,-36,-39,-126,-58,-48,0,-9
-19,-48,-29,34,4,-39,-39,-126,-58,-48,0,-9
-19,-48,-29,34,4,-39,-39,-136,-68,-48,0,0
-19,-48,-29,34,4,-39,-39,-136,-68,-48,0,0
-19,-48,-29,34,4,-39,-39,-136,-68,-48,0,0
-19,-48,-29,34,4,-39,-39,-136,-68,-48,0,0
-19,-43,-24,31,2,-34,-39,-126,-63,-39,9,9
-19,-39,-19,29,0,-29,-39,-126,-58,-39,9,9
-19,-34,-14,26,-2,-24,-39,-126,-53,-39,9,9
-19,-29,-9,24,-4,-19,-39,-126,-48,-39,9,9
-19,-14,4,17,-12,-4,-34,-117,-39,-34,19,19
-19,-9,9,14,-14,0,-29,-117,-39,-29,19,19
-19,-4,14,12,-17,4,-24,-117,-39,-24,19,19
-19,0,19,9,-19,9,-19,-117,-39,-19,19,19
-9,14,24,-2,-17,19,-9,-112,-29,-19,29,29
-9,24,34,-7,-21,29,0,-102,-24,-19,29,29
-9,34,43,-12,-26,39,4,-92,-14,-9,43,43
-9,43,53,-17,-31,48,9,-87,-14,-9,43,48
-19,43,63,-12,-41,53,4,-87,-14,0,43,48
-19,39,58,-9,-39,48,9,-87,-14,0,43,48
-19,34,53,-7,-36,43,14,-78,-4,0,53,53
-19,34,53,-7,-36,43,14,-73,0,14,53,53
-9,48,58,-19,-34,53,14,-82,4,9,53,53
-4,53,58,-24,-31,56,14,-82,4,9,58,53
0,53,53,-26,-26,53,14,-78,4,9,58,53
0,53,53,-26,-26,53,14,-73,9,9,63,58
-9,58,68,-24,-39,63,9,-73,9,0,53,48
-4,58,63,-26,-34,61,0,-73,9,4,53,48
4,58,53,-31,-24,56,-9,-73,9,4,53,53
9,58,48,-34,-19,53,-19,-73,9,4,63,63
14,73,58,-43,-21,65,-19,-73,14,29,73,63
19,82,63,-51,-21,73,-19,-73,14,34,73,63
24,82,58,-53,-17,70,-24,-73,14,34,73,73
34,78,43,-56,-4,61,-39,-78,4,29,73,73
34,68,34,-51,0,51,-48,-82,9,19,68,82
34,63,29,-48,2,46,-63,-97,-4,9,63,68
34,63,29,-48,2,46,-68,-102,-9,0,58,58
34,63,29,-48,2,46,-78,-112,-14,0,58,68
24,63,39,-43,-7,51,-78,-102,-14,-4,48,58
24,58,34,-41,-4,46,-78,-102,-14,-4,48,58
24,58,34,-41,-4,46,-78,-92,-4,4,58,58
29,58,29,-43,0,43,-78,-87,0,24,68,68
19,48,29,-34,-4,39,-82,-82,9,34,63,68
19,39,19,-29,0,29,-82,-78,9,34,63,68
24,34,9,-29,7,21,-82,-78,9,34,63,68
29,19,-9,-24,19,4,-87,-78,0,29,58,58
39,19,-19,-29,29,0,-102,-92,-9,14,63,63
34,19,-14,-26,24,2,-102,-92,-14,4,53,63
34,19,-14,-26,24,2,-102,-92,-19,4,53,53
34,9,-24,-21,29,-7,-112,-112,-24,-9,48,48
39,-4,-43,-17,41,-24,-112,-122,-39,-14,53,39
39,-4,-43,-17,41,-24,-112,-136,-48,-24,39,34
24,-4,-29,-9,26,-17,-107,-136,-48,-29,34,24
9,-4,-14,-2,12,-9,-92,-131,-43,-29,34,24
0,-19,-19,9,9,-19,-73,-131,-53,-29,24,34
-14,-24,-9,19,-2,-17,-63,-131,-58,-34,24,34
-24,-29,-4,26,-9,-17,-58,-136,-63,-39,19,19
-24,-29,-4,26,-9,-17,-53,-146,-68,-43,14,19
-24,-39,-14,31,-4,-26,-63,-151,-78,-68,-4,4
-29,-43,-14,36,-7,-29,-63,-156,-82,-73,-19,0
-34,-48,-14,41,-9,-31,-63,-170,-97,-78,-24,-9
-34,-53,-19,43,-7,-36,-73,-175,-102,-82,-24,-9
-39,-53,-14,46,-12,-34,-87,-185,-102,-78,-19,-19
-34,-53,-19,43,-7,-36,-92,-190,-107,-82,-24,-24
-34,-53,-19,43,-7,-36,-92,-190,-107,-82,-24,-39
-34,-58,-24,46,-4,-41,-92,-190,-107,-82,-24,-39
-34,-58,-24,46,-4,-41,-73,-185,-102,-73,-14,-14
-43,-58,-14,51,-14,-36,-68,-180,-97,-73,-14,0
-43,-58,-14,51,-14,-36,-68,-175,-92,-73,-9,-4
-39,-53,-14,46,-12,-34,-68,-165,-82,-73,-9,0
-39,-53,-14,46,-12,-34,-68,-165,-82,-68,-19,4
-43,-53,-9,48,-17,-31,-68,-170,-87,-73,-24,-4
-43,-53,-9,48,-17,-31,-68,-175,-92,-78,-39,-24
-43,-53,-9,48,-17,-31,-68,-185,-102,-87,-43,-43
-43,-58,-14,51,-14,-36,-63,-175,-92,-78,-39,-19
-48,-58,-9,53,-19,-34,-63,-175,-92,-78,-29,-14
-48,-58,-9,53,-19,-34,-63,-175,-92,-78,-24,-9
-48,-53,-4,51,-21,-29,-63,-175,-92,-78,-24,-4
-39,-48,-9,43,-14,-29,-73,-175,-102,-82,-29,-9
-39,-43,-4,41,-17,-24,-73,-175,-102,-87,-34,-14
-39,-39,0,39,-19,-19,-68,-170,-102,-92,-39,-19
-39,-34,4,36,-21,-14,-68,-170,-102,-97,-39,-29
-48,-48,0,48,-24,-24,-68,-180,-102,-97,-39,-29
-53,-63,-9,58,-21,-36,-63,-180,-97,-97,-39,-24
-53,-68,-14,61,-19,-41,-63,-175,-97,-97,-39,-24
-53,-73,-19,63,-17,-46,-63,-175,-97,-97,-43,-29
-53,-73,-19,63,-17,-46,-63,-175,-92,-87,-39,-24
-53,-73,-19,63,-17,-46,-63,-175,-92,-87,-34,-19
-53,-73,-19,63,-17,-46,-63,-180,-92,-87,-29,-9
-53,-73,-19,63,-17,-46,-63,-180,-92,-87,-24,-4
-53,-68,-14,61,-19,-41,-58,-170,-92,-87,-24,-19
-53,-63,-9,58,-21,-36,-58,-170,-92,-87,-24,-19
-48,-58,-9,53,-19,-34,-58,-170,-92,-87,-19,-19
-48,-53,-4,51,-21,-29,-58,-170,-92,-87,-19,-19
-43,-63,-19,53,-12,-41,-68,-170,-102,-87,-19,-9
-43,-63,-19,53,-12,-41,-68,-170,-102,-87,-19,-9
-43,-63,-19,53,-12,-41,-68,-170,-102,-87,-24,0
-43,-63,-19,53,-12,-41,-68,-170,-102,-92,-24,-9
-53,-63,-9,58,-21,-36,-78,-180,-102,-92,-24,-34
-53,-63,-9,58,-21,-36,-78,-180,-102,-87,-24,-24
-48,-68,-19,58,-14,-43,-78,-175,-102,-87,-19,-19
-48,-68,-19,58,-14,-43,-78,-175,-102,-87,-19,-19
-48,-82,-34,65,-7,-58,-68,-175,-112,-87,-48,-48
-48,-82,-34,65,-7,-58,-58,-170,-97,-92,-48,-29
-39,-63,-24,51,-7,-43,-63,-156,-87,-92,-39,-19
-29,-29,0,29,-14,-14,-63,-136,-87,-82,-39,-19
-34,-29,4,31,-19,-12,-63,-117,-73,-73,-29,-19
-29,-19,9,24,-19,-4,-39,-73,-34,-43,-4,-19
-4,0,4,2,-4,2,-9,-9,29,19,43,29
9,19,9,-14,0,14,19,68,117,92,102,73
9,68,58,-39,-24,63,48,156,195,180,180,107
29,92,63,-61,-17,78,87,263,292,273,244,151
68,107,39,-87,14,73,112,390,390,356,307,204
107,117,9,-112,48,63,117,517,483,453,375,248
151,165,14,-158,68,90,107,605,580,580,473,307
224,219,-4,-222,114,107,82,673,688,761,605,400
317,283,-34,-300,175,124,34,746,834,980,795,541
395,409,14,-402,190,212,-43,775,980,1210,995,697
458,561,102,-509,178,331,-126,736,1098,1429,1205,849
517,697,180,-607,168,439,-204,678,1195,1634,1439,1039
497,795,297,-646,100,546,-307,483,1176,1717,1595,1205
400,858,458,-629,-29,658,-405,175,1000,1620,1625,1273
287,873,585,-580,-148,729,-429,-97,736,1366,1488,1205
180,756,575,-468,-197,666,-409,-312,434,976,1171,976
19,478,458,-248,-219,468,-346,-619,24,414,653,590
-180,200,380,-9,-280,290,-239,-1049,-478,-268,48,170
-346,48,395,148,-370,222,-161,-1415,-868,-785,-409,-161
-400,-19,380,209,-390,180,-141,-1439,-951,-912,-566,-322
-370,-63,307,217,-339,122,-146,-1259,-824,-805,-546,-326
-351,-63,287,207,-319,112,-175,-1166,-775,-736,-512,-317
-317,-58,258,187,-287,100,-244,-1141,-790,-736,-488,-302
-253,-73,180,163,-217,53,-297,-1063,-775,-712,-473,-297
-200,-82,117,141,-158,17,-302,-951,-717,-658,-434,-273
-156,-82,73,119,-114,-4,-258,-805,-614,-566,-361,-214
-122,-87,34,104,-78,-26,-190,-634,-497,-453,-297,-185
-107,-87,19,97,-63,-34,-141,-473,-385,-361,-239,-165
-92,-87,4,90,-48,-41,-107,-326,-273,-258,-170,-122
-68,-68,0,68,-34,-34,-58,-200,-161,-161,-102,-68
-53,-48,4,51,-29,-21,-34,-117,-87,-107,-68,-58
-53,-39,14,46,-34,-12,-14,-92,-58,-97,-63,-58
-43,-43,0,43,-21,-21,-4,-78,-43,-82,-63,-48
-29,-34,-4,31,-12,-19,0,-73,-43,-78,-43,-34
-34,-43,-9,39,-12,-26,4,-73,-34,-68,-43,-43
-53,-43,9,48,-31,-17,4,-73,-34,-68,-43,-48
-63,-48,14,56,-39,-17,4,-68,-39,-68,-48,-48
-68,-53,14,61,-41,-19,4,-58,-39,-68,-48,-48
-63,-58,4,61,-34,-26,-4,-58,-48,-82,-48,-48
-63,-58,4,61,-34,-26,0,-58,-48,-82,-58,-48
-63,-63,0,63,-31,-31,0,-58,-48,-82,-58,-43
-63,-63,0,63,-31,-31,0,-58,-48,-82,-53,-34
-53,-63,-9,58,-21,-36,9,-58,-43,-87,-53,-39
-48,-63,-14,56,-17,-39,9,-53,-43,-87,-58,-43
-48,-58,-9,53,-19,-34,9,-53,-43,-87,-63,-53
-48,-58,-9,53,-19,-34,4,-43,-43,-87,-68,-58
-63,-63,0,63,-31,-31,4,-43,-43,-78,-63,-39
-63,-63,0,63,-31,-31,4,-43,-43,-78,-58,-53
-63,-68,-4,65,-29,-36,9,-43,-43,-78,-53,-53
-63,-68,-4,65,-29,-36,9,-43,-43,-78,-48,-53
-58,-63,-4,61,-26,-34,0,-43,-39,-87,-43,-39
-58,-63,-4,61,-26,-34,0,-34,-39,-87,-43,-39
-58,-63,-4,61,-26,-34,0,-29,-39,-78,-43,-39
-58,-73,-14,65,-21,-43,0,-29,-39,-78,-43,-48
-58,-73,-14,65,-21,-43,9,-24,-29,-73,-43,-39
-58,-73,-14,65,-21,-43,9,-19,-24,-73,-43,-39
-58,-73,-14,65,-21,-43,9,-19,-24,-68,-48,-48
-58,-73,-14,65,-21,-43,9,-24,-24,-68,-48,-48
-58,-63,-4,61,-26,-34,0,-24,-34,-68,-39,-48
-58,-58,0,58,-29,-29,0,-19,-34,-68,-39,-48
-58,-58,0,58,-29,-29,0,-14,-34,-68,-39,-53
-58,-58,0,58,-29,-29,0,-14,-34,-68,-34,-53
-58,-58,0,58,-29,-29,9,-4,-24,-58,-34,-43
-58,-63,-4,61,-26,-34,9,-4,-24,-58,-34,-43
-58,-63,-4,61,-26,-34,9,-4,-19,-58,-39,-43
-63,-63,0,63,-31,-31,14,0,-19,-58,-39,-43
-63,-73,-9,68,-26,-41,14,4,-24,-63,-48,-53
-58,-73,-14,65,-21,-43,14,4,-24,-63,-43,-48
-58,-68,-9,63,-24,-39,14,9,-24,-68,-43,-48
-58,-68,-9,63,-24,-39,14,9,-24,-68,-48,-53
-58,-68,-9,63,-24,-39,9,19,-9,-68,-48,-43
-58,-68,-9,63,-24,-39,9,29,-9,-68,-48,-43
-58,-73,-14,65,-21,-43,9,34,-9,-68,-48,-43
-58,-73,-14,65,-21,-43,9,34,-4,-73,-48,-53
-48,-73,-24,61,-12,-48,9,24,-4,-63,-58,-53
-48,-73,-24,61,-12,-48,9,24,0,-63,-53,-53
-48,-73,-24,61,-12,-48,9,24,0,-58,-53,-53
-48,-68,-19,58,-14,-43,14,29,0,-58,-58,-53
-58,-68,-9,63,-24,-39,19,29,-9,-68,-48,-43
-58,-68,-9,63,-24,-39,19,29,-4,-63,-43,-43
-63,-73,-9,68,-26,-41,19,39,0,-63,-43,-43
-63,-73,-9,68,-26,-41,19,43,0,-63,-39,-43
-63,-82,-19,73,-21,-51,24,48,0,-58,-39,-43
-58,-82,-24,70,-17,-53,24,53,4,-58,-39,-39
-58,-82,-24,70,-17,-53,24,53,4,-53,-39,-39
-63,-78,-14,70,-24,-46,24,53,4,-53,-39,-39
-63,-73,-9,68,-26,-41,24,63,9,-43,-39,-53
-63,-68,-4,65,-29,-36,24,68,14,-43,-39,-43
-58,-68,-9,63,-24,-39,29,73,19,-39,-34,-48
-53,-63,-9,58,-21,-36,29,78,19,-39,-34,-53
-43,-73,-29,58,-7,-51,34,68,19,-39,-34,-53
-43,-68,-24,56,-9,-46,34,73,19,-39,-34,-43
-43,-68,-24,56,-9,-46,39,78,19,-34,-34,-43
-43,-68,-24,56,-9,-46,43,82,24,-34,-29,-48
-58,-68,-9,63,-24,-39,39,87,29,-43,-39,-48
-58,-68,-9,63,-24,-39,34,87,29,-39,-39,-39
-58,-68,-9,63,-24,-39,29,97,39,-39,-39,-34
-58,-68,-9,63,-24,-39,29,102,39,-39,-39,-34
-58,-63,-4,61,-26,-34,39,107,39,-48,-39,-48
-58,-63,-4,61,-26,-34,43,112,48,-43,-39,-48
-58,-63,-4,61,-26,-34,43,122,48,-39,-39,-48
-58,-53,4,56,-31,-24,43,122,48,-39,-39,-48
-58,-53,4,56,-31,-24,34,141,53,-29,-39,-63
-53,-58,-4,56,-24,-31,43,151,58,-24,-43,-63
-53,-73,-19,63,-17,-46,43,151,63,-24,-43,-58
-58,-78,-19,68,-19,-48,43,156,63,-24,-43,-58
-48,-63,-14,56,-17,-39,63,165,63,-24,-43,-53
-48,-63,-14,56,-17,-39,63,170,73,-19,-43,-53
-43,-63,-19,53,-12,-41,63,180,78,-19,-43,-39
-43,-63,-19,53,-12,-41,63,185,82,-9,-43,-48
-53,-63,-9,58,-21,-36,63,190,82,-9,-43,-48
-53,-63,-9,58,-21,-36,73,200,87,-9,-39,-48
-53,-63,-9,58,-21,-36,73,209,92,-9,-39,-48
-53,-63,-9,58,-21,-36,73,224,97,-4,-39,-48
-53,-58,-4,56,-24,-31,78,224,102,-14,-43,-48
-53,-53,0,53,-26,-26,82,229,102,-4,-43,-53
-53,-48,4,51,-29,-21,82,244,112,-4,-39,-53
-48,-43,4,46,-26,-19,82,253,117,-4,-39,-43
-48,-43,4,46,-26,-19,92,263,122,4,-39,-53
-53,-48,4,51,-29,-21,102,263,122,4,-39,-63
-53,-53,0,53,-26,-26,107,273,131,4,-39,-63
-53,-58,-4,56,-24,-31,107,283,131,4,-39,-63
-43,-48,-4,46,-19,-26,112,292,141,9,-39,-58
-43,-43,0,43,-21,-21,117,297,146,9,-39,-63
-43,-43,0,43,-21,-21,122,307,156,14,-39,-48
-43,-43,0,43,-21,-21,126,322,165,19,-43,-43
-34,-34,0,34,-17,-17,141,331,165,19,-43,-58
-34,-29,4,31,-19,-12,146,331,170,14,-43,-63
-34,-29,4,31,-19,-12,151,341,175,14,-43,-63
-34,-29,4,31,-19,-12,151,351,180,14,-43,-58
-34,-29,4,31,-19,-12,146,361,180,14,-58,-58
-39,-29,9,34,-24,-9,151,366,180,14,-58,-68
-39,-29,9,34,-24,-9,161,370,190,14,-58,-68
-43,-29,14,36,-29,-7,165,380,195,14,-63,-58
-34,-29,4,31,-19,-12,175,385,195,24,-58,-58
-34,-29,4,31,-19,-12,180,390,195,14,-63,-73
-39,-29,9,34,-24,-9,185,395,200,14,-63,-82
-39,-29,9,34,-24,-9,185,405,200,9,-58,-73
-48,-29,19,39,-34,-4,190,395,200,4,-73,-73
-53,-29,24,41,-39,-2,195,395,200,0,-78,-87
-53,-29,24,41,-39,-2,204,400,200,-4,-78,-87
-58,-29,29,43,-43,0,204,400,204,-14,-78,-78
-63,-39,24,51,-43,-7,204,400,200,-24,-87,-82
-68,-39,29,53,-48,-4,204,400,195,-29,-97,-92
-73,-39,34,56,-53,-2,214,400,185,-34,-107,-102
-73,-39,34,56,-53,-2,224,405,180,-39,-117,-107
-73,-29,43,51,-58,7,224,405,180,-43,-117,-107
-73,-29,43,51,-58,7,224,400,170,-53,-131,-112
-73,-29,43,51,-58,7,224,400,170,-58,-136,-126
-82,-39,43,61,-63,2,229,400,175,-63,-141,-126
-73,-29,43,51,-58,7,234,395,175,-63,-136,-126
-78,-24,53,51,-65,14,234,390,175,-68,-141,-126
-82,-24,58,53,-70,17,234,385,175,-68,-146,-131
-87,-24,63,56,-75,19,234,385,170,-78,-146,-131
-87,-14,73,51,-80,29,234,380,180,-68,-131,-126
-87,-9,78,48,-82,34,239,380,180,-68,-131,-117
-92,-9,82,51,-87,36,239,375,180,-68,-131,-112
-92,-9,82,51,-87,36,239,366,180,-68,-126,-107
-92,-19,73,56,-82,26,219,346,170,-68,-126,-107
-92,-19,73,56,-82,26,214,341,165,-68,-122,-112
-92,-9,82,51,-87,36,209,331,165,-63,-112,-117
-87,-9,78,48,-82,34,204,322,170,-53,-107,-112
-78,-19,58,48,-68,19,204,312,170,-43,-97,-87
-78,-14,63,46,-70,24,190,302,170,-43,-97,-78
-78,-4,73,41,-75,34,180,283,161,-43,-92,-73
-78,-4,73,41,-75,34,165,268,161,-39,-87,-73
-68,4,73,31,-70,39,151,248,156,-19,-68,-68
-63,9,73,26,-68,41,141,239,151,-14,-63,-63
-63,9,73,26,-68,41,131,224,146,-9,-58,-63
-58,9,68,24,-63,39,117,204,146,-4,-43,-58
-58,0,58,29,-58,29,112,190,136,0,-29,-43
-58,0,58,29,-58,29,102,175,131,4,-19,-14
-53,0,53,26,-53,26,92,156,131,9,-9,0
-48,9,58,19,-53,34,82,141,122,9,0,4
-39,24,63,7,-51,43,63,122,122,9,0,-4
-29,29,58,0,-43,43,53,112,112,9,0,-9
-19,34,53,-7,-36,43,43,97,102,9,4,-9
-14,34,48,-9,-31,41,34,82,97,9,9,-9
-14,43,58,-14,-36,51,24,58,87,9,19,0
-9,43,53,-17,-31,48,19,48,82,9,29,19
-9,43,53,-17,-31,48,9,39,68,9,29,19
-9,39,48,-14,-29,43,0,24,58,9,24,14
-19,29,48,-4,-34,39,4,24,58,0,14,4
-14,29,43,-7,-29,36,0,14,58,0,14,14
-9,29,39,-9,-24,34,-4,9,43,0,14,14
-9,24,34,-7,-21,29,-14,0,39,-9,14,0
-9,29,39,-9,-24,34,-24,-19,39,-4,24,-4
-9,29,39,-9,-24,34,-29,-29,34,0,24,9
-9,29,39,-9,-24,34,-29,-39,29,-4,24,19
-14,24,39,-4,-26,31,-34,-43,19,-4,19,24
-14,9,24,2,-19,17,-29,-34,24,-14,4,9
-14,14,29,0,-21,21,-34,-43,24,-14,4,9
-14,9,24,2,-19,17,-34,-43,24,-14,4,9
-14,0,14,7,-14,7,-34,-48,14,-19,4,4
-9,4,14,2,-12,9,-29,-48,9,-29,0,-9
-9,14,24,-2,-17,19,-29,-53,4,-29,0,-9
-14,19,34,-2,-24,26,-39,-58,4,-24,4,0
-14,19,34,-2,-24,26,-43,-63,4,-24,4,0
-14,9,24,2,-19,17,-43,-63,4,-19,9,0
-9,9,19,0,-14,14,-39,-63,9,-19,9,9
-9,9,19,0,-14,14,-39,-63,9,-19,9,19
-14,9,24,2,-19,17,-39,-68,0,-19,0,4
-14,0,14,7,-14,7,-39,-68,-9,-24,0,-14
-14,0,14,7,-14,7,-39,-68,-4,-24,4,-14
-14,0,14,7,-14,7,-39,-68,-4,-24,4,-4
-9,-4,4,7,-7,0,-39,-68,-4,-19,4,-4
0,-4,-4,2,2,-4,-48,-73,-4,-29,4,-9
0,0,0,0,0,0,-48,-73,-4,-29,0,-9
-4,4,9,0,-7,7,-48,-73,-4,-29,-4,4
-4,14,19,-4,-12,17,-48,-73,-4,-29,-9,-4
-4,14,19,-4,-12,17,-48,-73,-4,-29,-4,-14
-4,9,14,-2,-9,12,-48,-73,-4,-29,-4,-14
-4,9,14,-2,-9,12,-48,-73,-4,-29,-4,-4
-4,14,19,-4,-12,17,-48,-68,0,-29,0,-4
0,14,14,-7,-7,14,-48,-68,-9,-24,-9,0
0,14,14,-7,-7,14,-48,-68,-14,-24,-9,0
0,14,14,-7,-7,14,-48,-68,-14,-29,-9,-4
-4,14,19,-4,-12,17,-48,-68,-9,-29,-9,-4
-4,4,9,0,-7,7,-48,-58,0,-29,-9,-14
-4,4,9,0,-7,7,-48,-58,0,-29,-19,-14
-4,4,9,0,-7,7,-48,-48,0,-29,-9,-9
-4,0,4,2,-4,2,-43,-48,0,-29,-9,0
4,4,0,-4,2,2,-39,-48,9,-24,-4,9
4,14,9,-9,-2,12,-34,-48,9,-19,0,0
4,19,14,-12,-4,17,-29,-43,9,-9,4,0
4,24,19,-14,-7,21,-24,-43,9,-4,0,0
9,24,14,-17,-2,19,-34,-48,4,-19,4,9
9,24,14,-17,-2,19,-34,-48,4,-19,4,9
4,24,19,-14,-7,21,-34,-48,9,-19,4,9
4,19,14,-12,-4,17,-34,-43,14,-19,9,14
4,29,24,-17,-9,26,-34,-43,4,-14,0,4
4,29,24,-17,-9,26,-34,-43,4,-14,0,0
4,34,29,-19,-12,31,-34,-43,4,-14,4,0
4,34,29,-19,-12,31,-34,-39,9,-4,9,14
0,14,14,-7,-7,14,-34,-39,9,-14,0,4
0,24,24,-12,-12,24,-34,-43,9,-14,0,0
4,24,19,-14,-7,21,-34,-43,9,-14,0,0
4,24,19,-14,-7,21,-34,-39,4,-14,0,9
4,24,19,-14,-7,21,-39,-29,9,-4,9,19
4,24,19,-14,-7,21,-39,-34,9,-4,9,14
4,24,19,-14,-7,21,-34,-34,9,-4,14,14
9,29,19,-19,-4,24,-34,-34,9,-4,14,14
9,29,19,-19,-4,24,-43,-43,9,4,24,14
4,29,24,-17,-9,26,-43,-43,9,4,19,9
4,29,24,-17,-9,26,-43,-43,9,4,19,9
4,29,24,-17,-9,26,-48,-43,9,4,19,14
4,24,19,-14,-7,21,-48,-53,0,-4,14,19
0,19,19,-9,-9,19,-48,-48,0,-4,19,19
0,14,14,-7,-7,14,-48,-48,0,0,19,19
0,9,9,-4,-4,9,-48,-48,0,0,19,24
9,14,4,-12,2,9,-39,-48,0,-9,9,19
4,19,14,-12,-4,17,-43,-53,-9,-14,9,9
4,29,24,-17,-9,26,-43,-53,-9,-14,9,4
9,34,24,-21,-7,29,-39,-58,-4,-14,9,4
0,24,24,-12,-12,24,-39,-58,4,-4,9,14
0,24,24,-12,-12,24,-39,-58,0,-14,9,14
0,24,24,-12,-12,24,-43,-63,-4,-14,4,4
0,34,34,-17,-17,34,-43,-63,-4,-14,4,4
0,34,34,-17,-17,34,-43,-68,-4,-24,4,0
0,34,34,-17,-17,34,-43,-68,-4,-29,4,0
0,34,34,-17,-17,34,-43,-68,-9,-29,4,-9
0,34,34,-17,-17,34,-43,-68,-9,-29,4,-9
4,19,14,-12,-4,17,-43,-82,-9,-19,4,14
4,19,14,-12,-4,17,-43,-82,-9,-19,4,14
4,19,14,-12,-4,17,-43,-78,-14,-19,-4,9
4,19,14,-12,-4,17,-43,-78,-14,-19,-4,0
4,9,4,-7,0,7,-43,-87,-14,-19,0,9
9,9,0,-9,4,4,-43,-87,-14,-24,0,9
9,9,0,-9,4,4,-48,-87,-19,-24,-4,0
0,14,14,-7,-7,14,-48,-87,-19,-29,-4,0
-9,14,24,-2,-17,19,-58,-102,-34,-39,-4,0
-9,4,14,2,-12,9,-58,-102,-34,-39,-4,4
-4,4,9,0,-7,7,-58,-102,-34,-39,-4,4
-4,4,9,0,-7,7,-58,-102,-34,-39,-4,0
-4,14,19,-4,-12,17,-53,-107,-39,-48,0,9
4,19,14,-12,-4,17,-53,-107,-39,-48,0,9
4,24,19,-14,-7,21,-53,-102,-39,-53,0,9
4,24,19,-14,-7,21,-53,-92,-39,-53,0,4
4,24,19,-14,-7,21,-63,-102,-39,-53,-9,-4
4,24,19,-14,-7,21,-63,-112,-43,-53,-9,0
4,14,9,-9,-2,12,-63,-112,-43,-53,-9,0
4,14,9,-9,-2,12,-63,-117,-48,-53,-9,-4
9,19,9,-14,0,14,-58,-117,-48,-58,-14,4
4,19,14,-12,-4,17,-58,-112,-48,-53,-14,9
-9,9,19,0,-14,14,-58,-107,-48,-48,-14,9
-14,9,24,2,-19,17,-58,-107,-48,-48,-19,0
-4,19,24,-7,-14,21,-63,-107,-58,-58,-19,-4
-4,19,24,-7,-14,21,-68,-112,-58,-53,-19,-4
-4,9,14,-2,-9,12,-73,-112,-58,-53,-19,-4
-4,19,24,-7,-14,21,-87,-122,-63,-58,-19,-9
-4,19,24,-7,-14,21,-68,-122,-53,-58,-9,-14
-4,14,19,-4,-12,17,-68,-122,-53,-53,-4,0
-9,14,24,-2,-17,19,-68,-126,-53,-53,-4,4
-9,14,24,-2,-17,19,-73,-126,-53,-53,-4,4
-14,9,24,2,-19,17,-73,-122,-63,-43,-14,4
-14,9,24,2,-19,17,-73,-122,-68,-48,-14,4
-14,4,19,4,-17,12,-73,-126,-68,-48,-14,9
-14,0,14,7,-14,7,-73,-126,-68,-48,-14,9
-14,0,14,7,-14,7,-63,-126,-63,-48,-14,4
-14,0,14,7,-14,7,-63,-126,-63,-48,-14,4
-14,-9,4,12,-9,-2,-63,-131,-68,-48,-14,9
-14,-9,4,12,-9,-2,-63,-131,-68,-48,-14,9
-4,0,4,2,-4,2,-73,-131,-68,-48,-14,0
-4,0,4,2,-4,2,-73,-126,-68,-48,-14,0
-9,-4,4,7,-7,0,-73,-126,-73,-48,-14,0
-9,-4,4,7,-7,0,-78,-131,-73,-48,-14,0
-9,4,14,2,-12,9,-78,-131,-63,-48,-9,4
-9,4,14,2,-12,9,-78,-131,-63,-48,-9,4
-9,4,14,2,-12,9,-78,-131,-63,-53,-9,4
-9,4,14,2,-12,9,-78,-136,-63,-53,-9,9
-9,-4,4,7,-7,0,-78,-136,-53,-53,-19,4
-9,-9,0,9,-4,-4,-78,-136,-53,-53,-19,0
-9,-9,0,9,-4,-4,-78,-131,-53,-48,-14,0
-9,-14,-4,12,-2,-9,-73,-131,-53,-48,-14,-4
-9,-9,0,9,-4,-4,-73,-136,-58,-63,-34,-14
-9,-4,4,7,-7,0,-78,-146,-63,-63,-34,-19
-9,0,9,4,-9,4,-78,-136,-68,-63,-29,-19
-9,4,14,2,-12,9,-78,-136,-73,-63,-29,-14
-9,4,14,2,-12,9,-78,-126,-63,-53,-19,-4
-9,4,14,2,-12,9,-73,-126,-68,-53,-19,-4
-9,-4,4,7,-7,0,-73,-131,-68,-53,-19,0
-9,4,14,2,-12,9,-78,-136,-68,-53,-19,0
0,9,9,-4,-4,9,-78,-146,-68,-53,-19,9
0,9,9,-4,-4,9,-78,-136,-68,-53,-19,4
0,4,4,-2,-2,4,-78,-136,-68,-53,-19,4
0,4,4,-2,-2,4,-78,-141,-63,-53,-19,9
0,4,4,-2,-2,4,-68,-141,-73,-53,-19,9
0,4,4,-2,-2,4,-68,-141,-78,-53,-19,0
0,4,4,-2,-2,4,-63,-141,-78,-53,-19,0
0,4,4,-2,-2,4,-63,-141,-78,-53,-19,9
0,14,14,-7,-7,14,-78,-151,-78,-63,-29,4
0,14,14,-7,-7,14,-78,-151,-78,-68,-39,-4
0,14,14,-7,-7,14,-78,-146,-78,-68,-29,-9
0,14,14,-7,-7,14,-78,-146,-73,-63,-29,-9
0,14,14,-7,-7,14,-78,-136,-73,-63,-19,-9
0,14,14,-7,-7,14,-78,-136,-73,-63,-19,-19
0,9,9,-4,-4,9,-78,-141,-82,-63,-19,-19
4,9,4,-7,0,7,-78,-141,-73,-63,-19,-9
-4,9,14,-2,-9,12,-73,-141,-63,-68,-19,0
-4,19,24,-7,-14,21,-73,-141,-68,-68,-19,-4
-4,19,24,-7,-14,21,-73,-141,-68,-63,-19,-4
-9,14,24,-2,-17,19,-73,-141,-68,-63,-19,0
-9,0,9,4,-9,4,-73,-136,-78,-63,-19,0
-9,0,9,4,-9,4,-73,-136,-78,-63,-19,-9
-9,0,9,4,-9,4,-68,-136,-78,-63,-19,-9
-9,4,14,2,-12,9,-68,-141,-78,-63,-19,-4
-9,14,24,-2,-17,19,-87,-146,-78,-53,-19,9
-9,19,29,-4,-19,24,-78,-146,-68,-53,-19,9
-9,19,29,-4,-19,24,-78,-141,-68,-53,-19,4
-9,14,24,-2,-17,19,-78,-141,-68,-53,-19,4
0,14,14,-7,-7,14,-82,-136,-68,-53,-19,-4
0,14,14,-7,-7,14,-82,-136,-68,-53,-19,-4
0,19,19,-9,-9,19,-82,-136,-78,-58,-24,-9
0,19,19,-9,-9,19,-82,-136,-68,-58,-24,-9
0,9,9,-4,-4,9,-82,-136,-68,-48,-14,9
0,9,9,-4,-4,9,-82,-136,-68,-48,-14,9
0,14,14,-7,-7,14,-78,-131,-68,-48,-14,4
0,14,14,-7,-7,14,-78,-131,-68,-48,-14,4
0,14,14,-7,-7,14,-78,-141,-78,-58,-24,-4
0,14,14,-7,-7,14,-78,-141,-78,-58,-29,-4
0,14,14,-7,-7,14,-82,-141,-82,-58,-29,-9
0,19,19,-9,-9,19,-82,-141,-82,-58,-29,-9
0,19,19,-9,-9,19,-87,-141,-82,-58,-24,-4
0,14,14,-7,-7,14,-82,-141,-82,-58,-24,-4
-4,14,19,-4,-12,17,-82,-136,-82,-53,-24,-4
-4,14,19,-4,-12,17,-87,-136,-82,-53,-24,-4
-9,14,24,-2,-17,19,-78,-131,-73,-58,-14,-4
0,14,14,-7,-7,14,-78,-131,-73,-53,-14,4
-9,9,19,0,-14,14,-68,-136,-78,-48,-19,-9
-9,9,19,0,-14,14,-78,-146,-78,-58,-29,-9
-9,9,19,0,-14,14,-78,-146,-78,-58,-29,-9
-9,9,19,0,-14,14,-78,-146,-78,-58,-29,-9
-9,9,19,0,-14,14,-78,-146,-78,-58,-29,-9
-9,19,29,-4,-19,24,-78,-146,-78,-68,-29,-9
-9,19,29,-4,-19,24,-78,-146,-78,-68,-29,-9
-9,19,29,-4,-19,24,-78,-146,-78,-68,-29,-9
-9,19,29,-4,-19,24,-78,-146,-78,-68,-29,-9
-9,19,29,-4,-19,24,-78,-136,-68,-63,-19,0
-9,19,29,-4,-19,24,-78,-136,-68,-58,-19,0
-9,19,29,-4,-19,24,-78,-136,-68,-53,-19,0
-9,19,29,-4,-19,24,-78,-136,-68,-48,-19,0
0,34,34,-17,-17,34,-73,-126,-68,-48,-19,9
0,39,39,-19,-19,39,-68,-126,-68,-48,-19,9
0,43,43,-21,-21,43,-63,-126,-68,-48,-19,9
0,48,48,-24,-24,48,-58,-126,-68,-48,-19,9
0,58,58,-29,-29,58,-48,-122,-53,-43,-14,19
0,63,63,-31,-31,63,-39,-112,-43,-39,-9,19
0,68,68,-34,-34,68,-34,-102,-29,-24,9,34
0,73,73,-36,-36,73,-29,-97,-24,-19,14,39
0,97,97,-48,-48,97,-34,-97,-34,-19,14,39
0,97,97,-48,-48,97,-29,-97,-34,-19,14,39
0,97,97,-48,-48,97,-24,-87,-24,-19,24,43
0,102,102,-51,-51,102,-24,-82,-19,-4,24,43
0,107,107,-53,-53,107,-14,-82,-4,0,24,43
4,112,107,-58,-51,109,-14,-82,-4,0,29,43
9,112,102,-61,-46,107,-14,-78,-4,0,29,43
9,112,102,-61,-46,107,-14,-73,0,0,34,48
19,126,107,-73,-43,117,-9,-73,0,9,34,58
24,126,102,-75,-39,114,-19,-73,0,14,34,58
34,126,92,-80,-29,109,-29,-73,0,14,34,63
39,126,87,-82,-24,107,-39,-73,0,14,43,73
39,141,102,-90,-31,122,-39,-63,14,29,63,68
39,151,112,-95,-36,131,-39,-63,14,34,63,63
39,151,112,-95,-36,131,-43,-63,14,34,63,68
43,146,102,-95,-29,124,-58,-68,4,29,63,63
43,126,82,-85,-19,104,-58,-73,0,19,48,68
43,122,78,-82,-17,100,-73,-87,-14,9,43,58
43,122,78,-82,-17,100,-78,-92,-19,0,39,53
43,122,78,-82,-17,100,-87,-102,-24,0,39,68
53,122,68,-87,-7,95,-92,-112,-34,-14,29,53
53,117,63,-85,-4,90,-97,-112,-34,-14,29,48
53,117,63,-85,-4,90,-102,-102,-24,-4,39,43
58,117,58,-87,0,87,-107,-97,-19,14,48,48
58,107,48,-82,4,78,-102,-82,-9,24,53,53
58,97,39,-78,9,68,-102,-78,-9,24,53,58
63,92,29,-78,17,61,-102,-78,-9,24,53,63
68,78,9,-73,29,43,-107,-78,-19,19,48,58
68,82,14,-75,26,48,-112,-82,-19,14,43,43
63,78,14,-70,24,46,-112,-82,-24,4,34,43
63,73,9,-68,26,41,-112,-82,-29,4,34,34
63,58,-4,-61,34,26,-122,-102,-34,-9,29,29
78,43,-34,-61,56,4,-131,-102,-48,-24,24,29
78,43,-34,-61,56,4,-131,-117,-58,-34,9,24
63,43,-19,-53,41,12,-126,-117,-58,-39,4,14
48,43,-4,-46,26,19,-112,-112,-53,-39,4,14
39,48,9,-43,14,29,-97,-112,-53,-34,4,24
24,43,19,-34,2,31,-92,-112,-58,-34,4,24
14,39,24,-26,-4,31,-92,-117,-63,-34,0,9
14,39,24,-26,-4,31,-92,-126,-68,-34,-4,9
-4,29,34,-12,-19,31,-82,-131,-78,-58,-4,4
-9,24,34,-7,-21,29,-82,-136,-82,-63,-19,0
-14,19,34,-2,-24,26,-82,-151,-97,-68,-24,-9
-14,14,29,0,-21,21,-92,-156,-102,-73,-24,-9
0,4,4,-2,-2,4,-87,-165,-102,-78,-39,-9
4,4,0,-4,2,2,-92,-170,-107,-82,-43,-14
4,4,0,-4,2,2,-92,-170,-107,-82,-43,-29
4,0,-4,-2,4,-2,-92,-170,-107,-82,-43,-29
-4,0,4,2,-4,2,-92,-170,-107,-82,-43,-29
-14,0,14,7,-14,7,-87,-170,-107,-82,-43,-19
-14,0,14,7,-14,7,-87,-170,-107,-82,-39,-29
-9,4,14,2,-12,9,-87,-165,-102,-82,-39,-29
-9,-4,4,7,-7,0,-87,-161,-97,-73,-34,-4
-14,-4,9,9,-12,2,-87,-161,-97,-73,-34,-4
-14,-4,9,9,-12,2,-87,-161,-97,-73,-43,-14
-14,-4,9,9,-12,2,-87,-165,-102,-78,-43,-24
-14,0,14,7,-14,7,-82,-165,-102,-78,-53,-24
-19,0,19,9,-19,9,-82,-165,-102,-78,-48,-24
-19,0,19,9,-19,9,-82,-165,-102,-78,-48,-24
-19,4,24,7,-21,14,-82,-165,-102,-78,-53,-24
-9,14,24,-2,-17,19,-82,-156,-102,-68,-43,-14
-9,14,24,-2,-17,19,-82,-156,-102,-68,-43,-14
-9,14,24,-2,-17,19,-78,-151,-102,-68,-43,-14
-9,14,24,-2,-17,19,-78,-151,-102,-68,-39,-19
-9,4,14,2,-12,9,-78,-151,-112,-78,-39,-19
-14,-4,9,9,-12,2,-73,-151,-107,-78,-39,-14
-14,-4,9,9,-12,2,-73,-146,-107,-78,-39,-14
-14,-4,9,9,-12,2,-73,-146,-107,-78,-43,-19
-24,4,29,9,-26,17,-73,-156,-102,-78,-43,-19
-24,4,29,9,-26,17,-73,-156,-102,-78,-43,-19
-24,4,29,9,-26,17,-73,-161,-102,-78,-43,-14
-24,4,29,9,-26,17,-73,-161,-102,-78,-43,-14
-14,-4,9,9,-12,2,-78,-151,-102,-78,-53,-19
-14,-4,9,9,-12,2,-78,-151,-102,-78,-53,-19
-9,-4,4,7,-7,0,-78,-151,-102,-78,-48,-19
-9,-4,4,7,-7,0,-78,-151,-102,-78,-48,-19
-14,4,19,4,-17,12,-78,-151,-102,-78,-39,-29
-14,4,19,4,-17,12,-78,-151,-102,-78,-39,-29
-14,4,19,4,-17,12,-78,-151,-102,-78,-43,-19
-14,4,19,4,-17,12,-78,-151,-102,-82,-43,-29
-24,-4,19,14,-21,7,-68,-151,-102,-73,-43,-34
-24,-4,19,14,-21,7,-68,-151,-102,-68,-43,-24
-19,-9,9,14,-14,0,-68,-146,-102,-68,-39,-19
-19,-9,9,14,-14,0,-68,-146,-102,-68,-39,-19
-19,-14,4,17,-12,-4,-68,-136,-92,-68,-39,-19
-19,-4,14,12,-17,4,-68,-131,-87,-63,-29,-19
-19,-14,4,17,-12,-4,-73,-126,-87,-73,-29,-9
-29,-19,9,24,-19,-4,-73,-126,-97,-73,-48,-29
-14,0,14,7,-14,7,-63,-107,-92,-63,-48,-48
9,19,9,-14,0,14,-39,-73,-53,-34,-24,-19
14,19,4,-17,4,12,-29,-29,-9,-9,-4,9
19,39,19,-29,0,29,0,39,48,43,43,43
29,87,58,-58,-14,73,29,126,136,141,122,97
48,141,92,-95,-21,117,68,224,234,234,204,151
87,165,78,-126,4,122,102,341,331,317,258,195
117,175,58,-146,29,117,126,458,414,414,326,229
161,204,43,-183,58,124,136,575,512,551,414,258
224,248,24,-236,100,136,112,663,639,712,546,351
297,302,4,-300,146,153,63,727,766,912,707,473
385,400,14,-392,185,207,-4,785,922,1151,907,629
458,522,63,-490,197,292,-97,805,1078,1381,1127,800
507,658,151,-583,178,405,-204,766,1176,1576,1332,961
517,775,258,-646,129,517,-317,629,1195,1708,1507,1107
497,888,390,-692,53,639,-405,390,1107,1717,1615,1234
434,971,536,-702,-51,753,-468,97,893,1551,1566,1244
297,873,575,-585,-139,724,-488,-146,600,1220,1327,1073
156,624,468,-390,-156,546,-453,-414,248,756,907,785
-34,346,380,-156,-207,363,-356,-805,-224,112,331,375
-248,136,385,56,-317,261,-258,-1259,-741,-570,-234,-34
-361,19,380,170,-370,200,-209,-1488,-1010,-932,-566,-283
-370,-24,346,197,-358,161,-185,-1376,-971,-922,-624,-356
-341,-34,307,187,-324,136,-195,-1205,-863,-824,-580,-346
-307,-39,268,173,-287,114,-244,-1141,-839,-775,-546,-341
-253,-53,200,153,-226,73,-297,-1093,-824,-732,-522,-336
-190,-63,126,126,-158,31,-312,-990,-766,-668,-473,-302
-146,-53,92,100,-119,19,-287,-854,-663,-575,-409,-253
-122,-68,53,95,-87,-7,-229,-692,-546,-483,-346,-204
-97,-78,19,87,-58,-29,-170,-502,-424,-380,-268,-175
-63,-78,-14,70,-24,-46,-126,-336,-312,-268,-200,-141
-48,-58,-9,53,-19,-34,-78,-209,-200,-170,-131,-97
-34,-29,4,31,-19,-12,-34,-117,-117,-107,-87,-58
-14,0,14,7,-14,7,-4,-82,-78,-78,-73,-58
-14,4,19,4,-17,12,4,-68,-63,-63,-63,-58
0,14,14,-7,-7,14,9,-63,-43,-58,-53,-24
-4,14,19,-4,-12,17,14,-53,-53,-58,-53,-34
-24,14,39,4,-31,26,14,-53,-53,-58,-53,-39
-34,9,43,12,-39,26,14,-48,-58,-58,-58,-39
-39,4,43,17,-41,24,14,-39,-58,-58,-58,-39
-43,-14,29,29,-36,7,24,-29,-48,-63,-58,-53
-43,-19,24,31,-34,2,29,-29,-48,-63,-68,-58
-43,-29,14,36,-29,-7,29,-29,-48,-63,-68,-58
-43,-34,9,39,-26,-12,29,-29,-48,-63,-63,-53
-34,-34,0,34,-17,-17,19,-39,-53,-58,-58,-43
-29,-34,-4,31,-12,-19,19,-34,-53,-58,-58,-43
-29,-29,0,29,-14,-14,19,-34,-53,-58,-58,-48
-29,-29,0,29,-14,-14,14,-24,-53,-58,-58,-48
-24,-43,-19,34,-2,-31,14,-14,-53,-58,-58,-48
-24,-43,-19,34,-2,-31,14,-14,-53,-58,-58,-63
-24,-48,-24,36,0,-36,19,-14,-53,-58,-58,-63
-24,-48,-24,36,0,-36,19,-14,-53,-58,-58,-63
-29,-39,-9,34,-9,-24,9,-19,-48,-58,-53,-39
-29,-34,-4,31,-12,-19,9,-14,-48,-58,-53,-39
-29,-29,0,29,-14,-14,9,-14,-48,-48,-53,-39
-29,-34,-4,31,-12,-19,9,-19,-48,-48,-53,-48
-29,-34,-4,31,-12,-19,9,-9,-48,-53,-53,-43
-29,-34,-4,31,-12,-19,9,0,-43,-53,-53,-48
-29,-34,-4,31,-12,-19,9,4,-43,-48,-58,-63
-29,-34,-4,31,-12,-19,9,4,-43,-48,-58,-68
-29,-43,-14,36,-7,-29,9,4,-43,-48,-58,-53
-29,-39,-9,34,-9,-24,9,9,-43,-48,-58,-48
-29,-39,-9,34,-9,-24,9,14,-43,-48,-58,-48
-29,-39,-9,34,-9,-24,9,14,-43,-48,-53,-43
-29,-29,0,29,-14,-14,19,14,-34,-48,-63,-53
-29,-34,-4,31,-12,-19,19,14,-34,-48,-63,-53
-29,-34,-4,31,-12,-19,19,14,-29,-48,-68,-53
-34,-34,0,34,-17,-17,24,19,-29,-48,-68,-53
-43,-39,4,41,-24,-17,24,24,-24,-48,-68,-43
-39,-43,-4,41,-17,-24,24,24,-24,-43,-63,-39
-39,-43,-4,41,-17,-24,24,29,-24,-43,-63,-39
-39,-48,-9,43,-14,-29,24,29,-24,-39,-68,-43
-29,-39,-9,34,-9,-24,19,29,-19,-39,-68,-43
-29,-39,-9,34,-9,-24,19,39,-19,-39,-68,-43
-29,-43,-14,36,-7,-29,19,43,-19,-39,-68,-43
-29,-43,-14,36,-7,-29,19,43,-14,-43,-68,-53
-29,-34,-4,31,-12,-19,29,53,-14,-34,-68,-43
-29,-34,-4,31,-12,-19,29,53,-9,-34,-63,-43
-29,-34,-4,31,-12,-19,29,53,-9,-29,-63,-43
-29,-29,0,29,-14,-14,34,58,-9,-29,-68,-43
-29,-39,-9,34,-9,-24,29,48,-19,-39,-58,-43
-29,-39,-9,34,-9,-24,29,48,-14,-34,-53,-43
-34,-43,-9,39,-12,-26,29,58,-9,-34,-53,-43
-34,-43,-9,39,-12,-26,29,63,-9,-34,-48,-43
-34,-34,0,34,-17,-17,34,68,-9,-19,-48,-43
-29,-34,-4,31,-12,-19,34,73,-4,-19,-48,-39
-29,-34,-4,31,-12,-19,34,73,-4,-14,-48,-39
-34,-29,4,31,-19,-12,34,73,-4,-14,-48,-39
-43,-34,9,39,-26,-12,39,92,9,-14,-48,-48
-43,-39,4,41,-24,-17,43,97,14,-14,-48,-34
-39,-48,-9,43,-14,-29,53,102,19,-9,-43,-34
-34,-53,-19,43,-7,-36,58,107,19,-9,-43,-34
-34,-43,-9,39,-12,-26,53,97,9,-19,-53,-53
-34,-39,-4,36,-14,-21,53,102,9,-19,-53,-43
-34,-39,-4,36,-14,-21,58,107,9,-14,-53,-43
-34,-39,-4,36,-14,-21,63,112,14,-14,-48,-48
-29,-39,-9,34,-9,-24,63,126,29,-4,-39,-48
-29,-39,-9,34,-9,-24,63,126,29,0,-39,-39
-29,-39,-9,34,-9,-24,63,136,39,0,-39,-34
-29,-39,-9,34,-9,-24,68,141,39,0,-39,-34
-34,-43,-9,39,-12,-26,58,136,29,0,-48,-39
-39,-43,-4,41,-17,-24,63,141,39,4,-48,-39
-43,-43,0,43,-21,-21,63,151,39,9,-48,-39
-48,-34,14,41,-31,-9,63,151,39,9,-48,-39
-39,-29,9,34,-24,-9,73,170,53,9,-39,-43
-34,-29,4,31,-19,-12,82,180,58,14,-43,-43
-34,-39,-4,36,-14,-21,82,180,63,14,-43,-39
-39,-39,0,39,-19,-19,82,185,63,14,-43,-39
-29,-43,-14,36,-7,-29,92,195,63,24,-43,-34
-29,-43,-14,36,-7,-29,92,200,73,29,-43,-34
-24,-43,-19,34,-2,-31,92,209,78,29,-43,-19
-24,-43,-19,34,-2,-31,92,214,82,39,-43,-29
-29,-43,-14,36,-7,-29,92,219,73,34,-53,-34
-34,-43,-9,39,-12,-26,102,229,78,29,-48,-39
-39,-43,-4,41,-17,-24,102,239,82,24,-48,-43
-43,-43,0,43,-21,-21,102,253,87,24,-48,-48
-43,-58,-14,51,-14,-36,107,253,92,24,-43,-39
-43,-63,-19,53,-12,-41,112,258,92,34,-43,-43
-43,-68,-24,56,-9,-46,112,273,102,34,-39,-43
-39,-73,-34,56,-2,-53,112,283,107,34,-39,-34
-39,-58,-19,48,-9,-39,112,283,112,34,-48,-34
-43,-48,-4,46,-19,-26,122,283,112,34,-48,-43
-43,-39,4,41,-24,-17,126,292,122,34,-48,-43
-43,-29,14,36,-29,-7,126,302,122,34,-48,-43
-43,-43,0,43,-21,-21,141,322,131,48,-39,-43
-43,-43,0,43,-21,-21,146,326,136,48,-39,-53
-43,-48,-4,46,-19,-26,151,336,146,53,-39,-43
-43,-53,-9,48,-17,-31,156,351,156,58,-43,-43
-43,-39,4,41,-24,-17,151,351,151,48,-48,-48
-43,-29,14,36,-29,-7,156,351,151,43,-53,-53
-43,-24,19,34,-31,-2,161,361,151,43,-58,-53
-43,-19,24,31,-34,2,161,370,151,43,-63,-48
-53,-24,29,39,-41,2,165,380,161,43,-58,-58
-58,-29,29,43,-43,0,170,385,161,43,-58,-68
-58,-34,24,46,-41,-4,180,390,170,43,-58,-68
-63,-39,24,51,-43,-7,185,400,175,43,-63,-58
-63,-39,24,51,-43,-7,195,395,175,43,-63,-48
-63,-39,24,51,-43,-7,200,400,175,34,-73,-63
-68,-39,29,53,-48,-4,204,405,180,34,-78,-73
-68,-39,29,53,-48,-4,204,414,180,29,-78,-63
-58,-39,19,48,-39,-9,219,414,180,29,-82,-73
-63,-39,24,51,-43,-7,224,414,180,29,-87,-87
-63,-39,24,51,-43,-7,234,419,180,29,-87,-87
-68,-39,29,53,-48,-4,234,419,185,24,-87,-78
-73,-29,43,51,-58,7,234,424,185,24,-92,-68
-78,-29,48,53,-63,9,234,429,185,19,-97,-73
-82,-29,53,56,-68,12,244,434,180,14,-102,-78
-82,-29,53,56,-68,12,253,444,180,9,-107,-78
-82,-29,53,56,-68,12,253,444,180,4,-97,-87
-82,-29,53,56,-68,12,253,439,170,-4,-112,-92
-82,-29,53,56,-68,12,253,439,170,-9,-117,-107
-92,-39,53,65,-73,7,258,439,175,-14,-122,-107
-92,-39,53,65,-73,7,263,434,175,-14,-117,-97
-97,-34,63,65,-80,14,263,429,175,-19,-122,-97
-102,-34,68,68,-85,17,263,424,175,-19,-126,-102
-107,-34,73,70,-90,19,263,424,170,-29,-126,-102
-107,-34,73,70,-90,19,263,419,170,-29,-131,-102
-107,-29,78,68,-92,24,268,419,170,-29,-131,-97
-112,-29,82,70,-97,26,268,414,170,-29,-131,-97
-112,-29,82,70,-97,26,268,405,170,-29,-126,-97
-112,-29,82,70,-97,26,258,395,170,-29,-126,-92
-112,-29,82,70,-97,26,253,390,165,-29,-122,-92
-112,-19,92,65,-102,36,248,380,165,-24,-112,-92
-107,-19,87,63,-97,34,244,370,170,-14,-107,-82
-117,-19,97,68,-107,39,253,351,170,4,-92,-78
-117,-14,102,65,-109,43,239,341,170,4,-87,-68
-117,-4,112,61,-114,53,229,322,161,4,-78,-63
-117,-4,112,61,-114,53,214,307,161,9,-68,-63
-87,4,92,41,-90,48,190,297,156,19,-58,-39
-82,9,92,36,-87,51,180,287,151,24,-53,-34
-82,9,92,36,-87,51,170,273,146,29,-48,-34
-78,9,87,34,-82,48,156,253,146,34,-34,-29
-87,0,87,43,-87,43,141,239,136,39,-29,-24
-87,0,87,43,-87,43,131,224,131,43,-19,-4
-82,0,82,41,-82,41,122,204,131,48,-9,0
-78,9,87,34,-82,48,112,190,122,48,0,-4
-78,0,78,39,-78,39,92,170,112,48,-9,4
-78,0,78,39,-78,39,82,161,102,48,-9,0
-78,0,78,39,-78,39,73,146,92,48,-4,0
-82,-4,78,43,-80,36,63,131,87,48,0,0
-73,-4,68,39,-70,31,53,107,73,48,0,-9
-68,-4,63,36,-65,29,48,97,73,48,9,9
-68,-4,63,36,-65,29,39,87,63,48,9,9
-68,-9,58,39,-63,24,29,73,58,48,4,4
-68,0,68,34,-68,34,34,73,58,48,14,4
-63,0,63,31,-63,31,29,63,58,48,14,14
-58,0,58,29,-58,29,24,58,43,48,14,14
-58,-4,53,31,-56,24,14,48,39,39,14,0
-58,-9,48,34,-53,19,14,39,29,39,14,0
-58,-9,48,34,-53,19,9,29,24,39,14,9
-58,-9,48,34,-53,19,9,19,19,29,14,14
-63,-14,48,39,-56,17,4,14,9,24,9,14
-53,-24,29,39,-41,2,0,14,4,14,4,9
-53,-14,39,34,-46,12,-4,4,4,14,4,9
-53,-14,39,34,-46,12,-4,4,4,14,4,9
-53,-19,34,36,-43,7,-4,0,-4,9,4,4
-48,-19,29,34,-39,4,-9,-9,-9,0,-9,0
-48,-14,34,31,-41,9,-9,-14,-14,0,-9,0
-53,-14,39,34,-46,12,-19,-19,-14,4,-4,9
-53,-19,34,36,-43,7,-24,-24,-14,4,-4,9
-53,-9,43,31,-48,17,-24,-14,-14,9,-9,-4
-48,-9,39,29,-43,14,-19,-14,-9,9,-9,0
-48,-9,39,29,-43,14,-19,-14,-9,9,-9,4
-53,-9,43,31,-48,17,-19,-19,-19,9,-19,-14
-53,-14,39,34,-46,12,-9,-19,-19,4,-9,-19
-53,-19,34,36,-43,7,-9,-19,-14,4,-4,-14
-53,-24,29,39,-41,2,-9,-19,-14,4,-4,0
-48,-34,14,41,-31,-9,-9,-19,-14,9,-4,4
-58,-29,29,43,-43,0,-19,-14,-24,9,-9,-4
-58,-29,29,43,-43,0,-19,-14,-24,9,-9,-9
-63,-29,34,46,-48,2,-19,-14,-24,9,-9,0
-63,-24,39,43,-51,7,-19,-14,-24,9,-9,-14
-53,-24,29,39,-41,2,-19,-24,-14,0,-14,-4
-53,-29,24,41,-39,-2,-19,-24,-14,0,-14,-4
-53,-29,24,41,-39,-2,-19,-24,-14,0,-14,4
-53,-24,29,39,-41,2,-19,-19,-9,0,-9,4
-48,-14,34,31,-41,9,-9,-9,-9,14,-9,-9
-48,-14,34,31,-41,9,-9,-9,-14,14,-9,-9
-48,-14,34,31,-41,9,-9,-9,-14,9,-9,-14
-53,-14,39,34,-46,12,-9,-9,-9,9,-9,-14
-58,-19,39,39,-48,9,-19,-9,-9,9,-9,-14
-63,-24,39,43,-51,7,-19,-9,-9,9,-19,-14
-68,-29,39,48,-53,4,-19,0,-9,9,-9,-9
-73,-39,34,56,-53,-2,-14,0,-9,9,-9,0
-63,-48,14,56,-39,-17,-4,0,0,9,0,-9
-63,-43,19,53,-41,-12,-4,0,0,9,0,-19
-63,-43,19,53,-41,-12,-4,4,0,14,0,-19
-63,-43,19,53,-41,-12,-4,4,0,14,-9,-19
-58,-43,14,51,-36,-14,-14,0,-14,9,-14,-9
-58,-43,14,51,-36,-14,-14,0,-14,9,-14,-9
-63,-43,19,53,-41,-12,-14,0,-9,9,-14,-9
-63,-48,14,56,-39,-17,-14,4,-4,9,-9,-4
-63,-39,24,51,-43,-7,-4,14,-4,14,-9,-9
-63,-39,24,51,-43,-7,-4,14,-4,14,-9,-19
-63,-34,29,48,-46,-2,-4,14,-4,14,-4,-24
-63,-34,29,48,-46,-2,-4,19,0,24,0,-14
-68,-43,24,56,-46,-9,-4,9,-9,14,-9,-19
-68,-34,34,51,-51,0,-4,4,-9,14,-9,-19
-63,-34,29,48,-46,-2,-4,4,-9,14,-9,-14
-63,-34,29,48,-46,-2,-4,9,-14,14,-9,0
-73,-43,29,58,-51,-7,-9,19,-9,14,-9,-9
-73,-43,29,58,-51,-7,-9,14,-9,14,-9,-14
-73,-43,29,58,-51,-7,-4,14,-9,14,-4,-14
-68,-39,29,53,-48,-4,-4,14,-9,14,-4,-14
-58,-39,19,48,-39,-9,-4,4,-9,4,-4,-4
-63,-39,24,51,-43,-7,-4,4,-9,4,-9,-9
-63,-39,24,51,-43,-7,-4,4,-9,4,-9,-9
-63,-39,24,51,-43,-7,-9,4,-9,4,-9,-4
-53,-48,4,51,-29,-21,-9,4,0,14,-4,-9
-58,-48,9,53,-34,-19,-9,9,0,14,0,-9
-58,-48,9,53,-34,-19,-9,9,0,19,0,-9
-58,-48,9,53,-34,-19,-9,9,0,19,0,-4
-48,-39,9,43,-29,-14,-9,9,-9,9,-9,-4
-53,-39,14,46,-34,-12,-14,4,-19,4,-9,-9
-53,-34,19,43,-36,-7,-14,4,-19,4,-9,-9
-48,-34,14,41,-31,-9,-9,0,-14,4,-9,-4
-48,-29,19,39,-34,-4,-9,0,-24,4,-9,-14
-48,-24,24,36,-36,0,-9,0,-29,-4,-9,-14
-48,-19,29,34,-39,4,-14,-4,-34,-4,-14,-24
-48,-4,43,26,-46,19,-14,-4,-34,-4,-14,-24
-43,-29,14,36,-29,-7,-14,-9,-24,4,-4,-9
-39,-34,4,36,-21,-14,-14,-9,-24,0,-4,-9
-34,-39,-4,36,-14,-21,-14,-9,-29,0,-4,-19
-29,-43,-14,36,-7,-29,-14,-9,-29,0,-4,-19
-9,-43,-34,26,12,-39,-19,-19,-39,-4,-9,-9
-4,-39,-34,21,14,-36,-24,-24,-39,-9,-14,-14
0,-34,-34,17,17,-34,-29,-24,-43,-14,-29,-24
4,-29,-34,12,19,-31,-34,-29,-43,-19,-34,-39
4,-29,-34,12,19,-31,-34,-39,-53,-19,-29,-19
9,-29,-39,9,24,-34,-34,-39,-53,-24,-29,-19
9,-29,-39,9,24,-34,-39,-39,-58,-24,-34,-29
0,-24,-24,12,12,-24,-39,-39,-58,-29,-34,-29
4,-24,-29,9,17,-26,-39,-53,-63,-39,-34,-39
9,-34,-43,12,26,-39,-39,-53,-63,-39,-34,-34
19,-34,-53,7,36,-43,-39,-53,-63,-39,-34,-34
24,-34,-58,4,41,-46,-39,-53,-63,-39,-34,-39
14,-43,-58,14,36,-51,-43,-53,-68,-39,-39,-39
24,-39,-63,7,43,-51,-43,-58,-68,-39,-39,-39
24,-34,-58,4,41,-46,-43,-58,-68,-43,-39,-39
24,-34,-58,4,41,-46,-43,-53,-68,-43,-39,-43
24,-34,-58,4,41,-46,-43,-53,-68,-43,-39,-43
24,-34,-58,4,41,-46,-43,-63,-73,-43,-39,-39
24,-43,-68,9,46,-56,-43,-63,-73,-43,-39,-39
24,-43,-68,9,46,-56,-43,-68,-78,-43,-39,-43
34,-29,-63,-2,48,-46,-58,-73,-87,-53,-53,-43
34,-29,-63,-2,48,-46,-58,-73,-87,-53,-53,-39
24,-39,-63,7,43,-51,-58,-73,-87,-53,-53,-39
24,-39,-63,7,43,-51,-58,-78,-87,-58,-58,-48
24,-39,-63,7,43,-51,-48,-78,-87,-68,-58,-48
24,-39,-63,7,43,-51,-48,-82,-87,-63,-58,-43
24,-48,-73,12,48,-61,-48,-82,-87,-63,-58,-39
24,-39,-63,7,43,-51,-58,-92,-92,-68,-58,-39
24,-39,-63,7,43,-51,-48,-92,-92,-68,-68,-48
24,-43,-68,9,46,-56,-48,-92,-92,-63,-63,-39
19,-43,-63,12,41,-53,-48,-97,-92,-63,-63,-39
19,-43,-63,12,41,-53,-53,-97,-92,-63,-63,-43
24,-43,-68,9,46,-56,-53,-82,-92,-63,-63,-43
24,-39,-63,7,43,-51,-53,-82,-97,-68,-63,-43
24,-39,-63,7,43,-51,-53,-87,-97,-68,-63,-39
24,-39,-63,7,43,-51,-53,-87,-97,-68,-63,-39
14,-39,-53,12,34,-46,-63,-97,-92,-68,-53,-43
14,-39,-53,12,34,-46,-63,-97,-92,-68,-53,-43
14,-48,-63,17,39,-56,-63,-102,-97,-68,-53,-39
14,-48,-63,17,39,-56,-63,-102,-97,-68,-53,-39
14,-39,-53,12,34,-46,-63,-92,-87,-68,-63,-39
14,-39,-53,12,34,-46,-63,-87,-87,-68,-63,-39
9,-43,-53,17,31,-48,-63,-87,-92,-68,-63,-39
9,-43,-53,17,31,-48,-68,-92,-92,-68,-63,-39
14,-43,-58,14,36,-51,-68,-102,-102,-58,-58,-43
19,-43,-63,12,41,-53,-68,-102,-102,-58,-58,-43
24,-43,-68,9,46,-56,-68,-102,-102,-63,-58,-43
29,-43,-73,7,51,-58,-68,-107,-102,-63,-58,-39
14,-58,-73,21,43,-65,-58,-107,-92,-63,-48,-39
9,-58,-68,24,39,-63,-58,-107,-92,-63,-48,-39
4,-53,-58,24,31,-56,-58,-102,-92,-58,-43,-34
0,-53,-53,26,26,-53,-53,-102,-92,-58,-43,-34
0,-53,-53,26,26,-53,-53,-97,-92,-63,-53,-43
0,-53,-53,26,26,-53,-58,-107,-92,-63,-53,-48
0,-53,-53,26,26,-53,-58,-97,-92,-63,-48,-48
0,-53,-53,26,26,-53,-58,-97,-92,-63,-48,-43
0,-53,-53,26,26,-53,-58,-87,-82,-63,-48,-34
0,-53,-53,26,26,-53,-53,-87,-87,-63,-48,-34
0,-63,-63,31,31,-63,-53,-92,-87,-63,-48,-29
0,-53,-53,26,26,-53,-58,-97,-87,-63,-48,-29
-9,-39,-29,24,9,-34,-58,-107,-97,-73,-58,-43
-9,-39,-29,24,9,-34,-58,-97,-97,-73,-58,-53
-9,-43,-34,26,12,-39,-58,-97,-97,-73,-58,-58
-9,-43,-34,26,12,-39,-58,-102,-92,-73,-58,-58
0,-43,-43,21,21,-43,-58,-92,-92,-68,-48,-43
0,-43,-43,21,21,-43,-58,-92,-97,-63,-48,-48
0,-43,-43,21,21,-43,-53,-92,-97,-58,-48,-43
0,-43,-43,21,21,-43,-53,-92,-97,-53,-48,-29
0,-43,-43,21,21,-43,-58,-92,-97,-53,-48,-34
0,-43,-43,21,21,-43,-58,-92,-97,-58,-58,-43
0,-43,-43,21,21,-43,-58,-87,-97,-58,-48,-48
0,-43,-43,21,21,-43,-58,-87,-92,-53,-48,-48
-9,-53,-43,31,17,-48,-58,-97,-92,-63,-58,-39
-9,-53,-43,31,17,-48,-58,-97,-92,-63,-58,-48
-9,-58,-48,34,19,-53,-58,-102,-102,-63,-58,-48
-4,-58,-53,31,24,-56,-58,-102,-92,-63,-58,-39
-4,-58,-53,31,24,-56,-53,-92,-92,-58,-48,-48
-4,-48,-43,26,19,-46,-53,-92,-97,-58,-48,-53
-4,-48,-43,26,19,-46,-53,-92,-97,-53,-48,-53
-9,-53,-43,31,17,-48,-53,-92,-97,-53,-48,-48
-9,-58,-48,34,19,-53,-63,-97,-97,-63,-48,-39
-9,-58,-48,34,19,-53,-63,-97,-97,-63,-48,-48
-9,-58,-48,34,19,-53,-58,-97,-97,-63,-48,-48
-9,-53,-43,31,17,-48,-58,-102,-97,-63,-48,-43
-9,-53,-43,31,17,-48,-68,-97,-97,-63,-48,-39
-9,-48,-39,29,14,-43,-58,-97,-87,-63,-48,-39
-9,-48,-39,29,14,-43,-58,-92,-87,-63,-48,-43
-9,-53,-43,31,17,-48,-58,-92,-87,-63,-48,-43
-9,-53,-43,31,17,-48,-63,-97,-97,-63,-48,-34
-9,-53,-43,31,17,-48,-63,-97,-97,-63,-48,-34
-9,-48,-39,29,14,-43,-63,-97,-107,-68,-53,-39
-9,-48,-39,29,14,-43,-63,-97,-97,-68,-53,-39
-9,-58,-48,34,19,-53,-63,-97,-97,-58,-53,-39
-9,-58,-48,34,19,-53,-63,-97,-97,-58,-53,-39
-9,-53,-43,31,17,-48,-58,-92,-97,-58,-53,-43
-9,-53,-43,31,17,-48,-58,-92,-97,-58,-53,-43
-9,-53,-43,31,17,-48,-58,-102,-97,-68,-53,-43
-9,-53,-43,31,17,-48,-58,-102,-97,-68,-58,-43
-9,-53,-43,31,17,-48,-63,-102,-102,-68,-58,-48
-9,-48,-39,29,14,-43,-63,-102,-102,-68,-58,-48
-9,-48,-39,29,14,-43,-58,-102,-92,-68,-43,-34
-9,-53,-43,31,17,-48,-53,-102,-92,-68,-43,-34
-14,-53,-39,34,12,-46,-53,-97,-92,-63,-43,-34
-14,-53,-39,34,12,-46,-58,-97,-92,-63,-43,-34
-9,-43,-34,26,12,-39,-58,-102,-92,-58,-43,-34
-19,-53,-34,36,7,-43,-68,-102,-92,-63,-53,-34
-9,-48,-39,29,14,-43,-68,-97,-97,-58,-48,-39
-9,-58,-48,34,19,-53,-58,-97,-97,-58,-48,-39
-9,-58,-48,34,19,-53,-58,-97,-97,-58,-48,-39
-9,-58,-48,34,19,-53,-58,-97,-97,-58,-48,-39
-9,-58,-48,34,19,-53,-58,-97,-97,-58,-48,-39
0,-58,-58,29,29,-58,-58,-87,-97,-48,-39,-39
0,-58,-58,29,29,-58,-58,-87,-97,-48,-39,-39
0,-58,-58,29,29,-58,-58,-87,-97,-48,-39,-39
0,-58,-58,29,29,-58,-58,-87,-97,-48,-39,-39
0,-53,-53,26,26,-53,-58,-87,-97,-58,-48,-29
0,-48,-48,24,24,-48,-58,-87,-97,-58,-48,-29
0,-43,-43,21,21,-43,-58,-87,-97,-58,-48,-29
0,-39,-39,19,19,-39,-58,-87,-97,-58,-48,-29
0,-43,-43,21,21,-43,-58,-97,-97,-58,-48,-29
0,-48,-48,24,24,-48,-58,-97,-97,-58,-48,-29
0,-53,-53,26,26,-53,-58,-97,-97,-58,-48,-29
0,-58,-58,29,29,-58,-58,-97,-97,-58,-48,-29
0,-53,-53,26,26,-53,-58,-97,-97,-68,-48,-29
0,-48,-48,24,24,-48,-58,-97,-97,-68,-48,-29
0,-43,-43,21,21,-43,-58,-97,-97,-68,-48,-29
0,-39,-39,19,19,-39,-58,-97,-97,-68,-48,-29
0,-39,-39,19,19,-39,-58,-97,-87,-58,-48,-39
0,-39,-39,19,19,-39,-58,-97,-87,-58,-48,-39
0,-39,-39,19,19,-39,-58,-97,-87,-58,-48,-39
0,-39,-39,19,19,-39,-58,-97,-87,-58,-48,-39
9,-24,-34,7,21,-29,-53,-92,-82,-53,-43,-34
9,-19,-29,4,19,-24,-48,-87,-78,-48,-39,-29
9,-14,-24,2,17,-19,-43,-82,-73,-43,-34,-24
9,-9,-19,0,14,-14,-39,-78,-68,-39,-29,-19
0,0,0,0,0,0,-29,-68,-68,-29,-29,-29
0,4,4,-2,-2,4,-19,-63,-63,-29,-29,-29
0,9,9,-4,-4,9,-14,-58,-53,-19,-14,-14
0,14,14,-7,-7,14,-9,-58,-53,-19,-14,-9
9,29,19,-19,-4,24,-4,-58,-53,-19,-14,0
9,29,19,-19,-4,24,0,-58,-53,-19,-14,0
9,29,19,-19,-4,24,4,-48,-43,-19,-4,4
9,34,24,-21,-7,29,4,-43,-39,-4,-4,4
9,39,29,-24,-9,34,4,-34,-24,9,4,-4
14,43,29,-29,-7,36,4,-34,-24,9,9,-4
19,43,24,-31,-2,34,4,-29,-24,9,9,-4
19,43,24,-31,-2,34,4,-24,-19,9,14,0
9,48,39,-29,-14,43,0,-34,-19,0,14,14
14,48,34,-31,-9,41,-9,-34,-19,4,14,19
24,48,24,-36,0,36,-19,-34,-19,4,14,29
29,48,19,-39,4,34,-29,-34,-19,4,24,43
34,53,19,-43,7,36,-29,-24,-4,29,34,39
39,63,24,-51,7,43,-29,-24,-4,34,34,34
43,63,19,-53,12,41,-34,-24,-4,34,34,39
53,58,4,-56,24,31,-48,-29,-14,29,34,34
43,58,14,-51,14,36,-68,-39,-29,9,19,34
43,53,9,-48,17,31,-82,-58,-43,0,14,19
43,53,9,-48,17,31,-87,-68,-48,-9,9,9
43,53,9,-48,17,31,-97,-82,-53,-9,9,19
53,53,0,-53,26,26,-97,-82,-53,-14,9,19
53,48,-4,-51,29,21,-97,-82,-53,-14,9,19
53,48,-4,-51,29,21,-97,-73,-43,-4,19,19
58,48,-9,-53,34,19,-97,-68,-39,14,29,29
58,48,-9,-53,34,19,-102,-53,-29,4,34,29
58,39,-19,-48,39,9,-102,-48,-29,4,34,29
63,34,-29,-48,46,2,-102,-48,-29,4,34,29
68,19,-48,-43,58,-14,-107,-48,-39,0,29,19
63,9,-53,-36,58,-21,-102,-63,-48,0,24,14
53,0,-53,-26,53,-26,-102,-63,-53,-4,14,14
48,-9,-58,-19,53,-34,-102,-63,-58,0,14,4
43,-29,-73,-7,58,-51,-112,-82,-63,-9,9,0
58,-24,-82,-17,70,-53,-112,-92,-78,-24,4,0
58,-24,-82,-17,70,-53,-112,-107,-87,-34,-9,-4
43,-24,-68,-9,56,-46,-107,-107,-87,-39,-14,-14
29,-24,-53,-2,41,-39,-92,-102,-82,-39,-14,-14
29,-19,-48,-4,39,-34,-78,-102,-82,-39,-14,-14
14,-24,-39,4,26,-31,-73,-102,-87,-43,-14,-14
4,-29,-34,12,19,-31,-73,-107,-92,-48,-19,-29
4,-29,-34,12,19,-31,-73,-117,-97,-53,-24,-29
-4,-48,-43,26,19,-46,-73,-112,-97,-58,-34,-24
-9,-53,-43,31,17,-48,-73,-117,-102,-63,-48,-29
-14,-58,-43,36,14,-51,-73,-131,-117,-68,-53,-39
-14,-63,-48,39,17,-56,-82,-136,-122,-73,-53,-39
-19,-78,-58,48,19,-68,-87,-146,-131,-82,-68,-48
-14,-82,-68,48,26,-75,-92,-151,-136,-92,-73,-53
-14,-87,-73,51,29,-80,-92,-151,-136,-97,-73,-68
-14,-97,-82,56,34,-90,-92,-151,-136,-102,-73,-68
-14,-92,-78,53,31,-85,-82,-141,-126,-97,-73,-48
-24,-87,-63,56,19,-75,-78,-141,-126,-92,-73,-39
-24,-82,-58,53,17,-70,-78,-141,-126,-87,-68,-48
-19,-73,-53,46,17,-63,-78,-136,-122,-82,-68,-48
-9,-73,-63,41,26,-68,-78,-141,-126,-73,-53,-39
-14,-73,-58,43,21,-65,-78,-141,-126,-73,-53,-43
-14,-73,-58,43,21,-65,-78,-141,-126,-73,-63,-58
-14,-73,-58,43,21,-65,-78,-146,-131,-78,-63,-73
-24,-78,-53,51,14,-65,-73,-146,-131,-87,-73,-63
-29,-78,-48,53,9,-63,-73,-146,-131,-87,-68,-63
-29,-78,-48,53,9,-63,-73,-146,-131,-87,-68,-63
-29,-73,-43,51,7,-58,-73,-146,-131,-87,-73,-63
-19,-73,-53,46,17,-63,-73,-136,-131,-87,-63,-53
-19,-73,-53,46,17,-63,-73,-136,-131,-87,-63,-53
-19,-73,-53,46,17,-63,-68,-131,-131,-87,-63,-53
-19,-73,-53,46,17,-63,-68,-131,-131,-87,-58,-58
-19,-63,-43,41,12,-53,-68,-131,-122,-78,-58,-58
-24,-73,-48,48,12,-61,-63,-131,-117,-78,-58,-53
-24,-73,-48,48,12,-61,-63,-126,-117,-78,-58,-53
-24,-73,-48,48,12,-61,-63,-126,-117,-78,-63,-58
-34,-73,-39,53,2,-56,-63,-126,-122,-87,-63,-58
-34,-73,-39,53,2,-56,-63,-126,-122,-87,-63,-58
-34,-73,-39,53,2,-56,-63,-131,-122,-87,-63,-53
-34,-73,-39,53,2,-56,-63,-131,-122,-87,-63,-53
-24,-78,-53,51,14,-65,-68,-122,-122,-87,-63,-58
-24,-82,-58,53,17,-70,-68,-122,-122,-87,-63,-58
-19,-87,-68,53,24,-78,-68,-122,-122,-87,-58,-58
-19,-92,-73,56,26,-82,-68,-122,-122,-87,-58,-58
-24,-82,-58,53,17,-70,-78,-126,-131,-87,-58,-48
-24,-82,-58,53,17,-70,-78,-131,-131,-87,-58,-48
-24,-82,-58,53,17,-70,-78,-136,-131,-87,-63,-39
-24,-82,-58,53,17,-70,-78,-141,-131,-92,-63,-48
-24,-73,-48,48,12,-61,-68,-131,-131,-92,-63,-73
-24,-73,-48,48,12,-61,-68,-131,-131,-87,-63,-63
-19,-78,-58,48,19,-68,-68,-126,-131,-87,-58,-58
-19,-78,-58,48,19,-68,-68,-126,-131,-87,-58,-58
-29,-82,-53,56,12,-68,-78,-126,-122,-97,-68,-39
-19,-82,-63,51,21,-73,-68,-122,-117,-92,-58,-39
-19,-73,-53,46,17,-63,-53,-117,-107,-73,-48,-29
-29,-78,-48,53,9,-63,-43,-107,-97,-63,-48,-29
-24,-78,-53,51,14,-65,-43,-87,-82,-53,-58,-48
0,-48,-48,24,24,-48,-39,-43,-53,-34,-34,-48
24,-9,-34,-7,29,-21,-9,19,0,19,14,0
39,29,-9,-34,24,9,19,97,78,92,73,53
48,58,9,-53,19,34,48,185,165,161,131,107
48,82,34,-65,7,58,87,283,244,244,204,141
97,107,9,-102,43,58,131,409,341,336,268,185
156,126,-29,-141,92,48,146,527,444,444,346,229
190,136,-53,-163,122,41,117,605,531,570,434,268
253,190,-63,-222,158,63,73,673,639,751,556,331
356,292,-63,-324,209,114,14,766,785,971,746,483
434,390,-43,-412,239,173,-73,824,941,1210,956,668
517,531,14,-524,251,273,-165,834,1078,1429,1176,849
556,658,102,-607,226,380,-273,775,1156,1605,1371,1010
546,756,209,-651,168,483,-385,580,1127,1668,1498,1127
488,839,351,-663,68,595,-463,292,980,1590,1546,1205
395,844,448,-619,-26,646,-488,29,746,1366,1429,1166
268,717,448,-492,-90,583,-488,-204,434,995,1112,927
107,448,341,-278,-117,395,-434,-531,14,444,614,551
-122,170,292,-24,-207,231,-326,-1000,-497,-229,39,161
-326,-19,307,173,-317,143,-229,-1385,-907,-766,-400,-141
-400,-117,283,258,-341,82,-190,-1449,-1019,-941,-595,-302
-370,-141,229,256,-300,43,-185,-1288,-932,-873,-605,-356
-351,-151,200,251,-275,24,-195,-1156,-854,-785,-561,-346
-307,-156,151,231,-229,-2,-244,-1112,-839,-756,-536,-331
-244,-161,82,202,-163,-39,-287,-1024,-805,-702,-502,-346
-190,-161,29,175,-109,-65,-292,-893,-727,-629,-453,-322
-136,-151,-14,143,-61,-82,-239,-727,-614,-517,-370,-244
-82,-156,-73,119,-4,-114,-180,-536,-478,-405,-297,-185
-68,-175,-107,122,19,-141,-131,-366,-346,-292,-219,-146
-63,-165,-102,114,19,-134,-87,-219,-234,-200,-141,-102
