I,II,III,aVR,aVL,aVF,V1,V2,V3,V4,V5,V6
-9,-48,-39,29,14,-43,68,146,117,39,9,-9
-9,-48,-39,29,14,-43,68,146,117,39,9,-9
-9,-48,-39,29,14,-43,68,146,117,39,9,-9
-9,-48,-39,29,14,-43,68,146,117,39,9,-9
0,-53,-53,26,26,-53,68,151,131,53,14,0
0,-58,-58,29,29,-58,68,156,136,58,19,0
0,-63,-63,31,31,-63,68,161,141,63,24,0
0,-68,-68,34,34,-68,68,165,146,68,29,0
4,-58,-63,26,34,-61,63,170,161,82,43,14
9,-48,-58,19,34,-53,58,175,165,87,48,19
14,-39,-53,12,34,-46,53,180,170,92,53,24
19,-29,-48,4,34,-39,48,185,175,97,58,29
19,-24,-43,2,31,-34,58,190,190,107,73,39
19,-19,-39,0,29,-29,58,195,195,117,78,48
19,-14,-34,-2,26,-24,58,200,200,126,82,58
19,-9,-29,-4,24,-19,58,204,204,136,87,68
24,-4,-29,-9,26,-17,53,214,214,151,102,73
29,0,-29,-14,29,-14,48,214,224,156,107,78
34,4,-29,-19,31,-12,43,214,234,161,112,82
39,9,-29,-24,34,-9,39,214,244,165,117,87
43,24,-19,-34,31,2,29,229,263,180,126,97
48,29,-19,-39,34,4,29,234,273,195,136,107
53,34,-19,-43,36,7,29,239,283,209,146,117
58,39,-19,-48,39,9,29,244,292,224,156,126
48,48,0,-48,24,24,19,244,312,239,170,136
48,58,9,-53,19,34,19,244,322,253,185,146
48,68,19,-58,14,43,19,244,331,268,200,156
48,78,29,-63,9,53,19,244,341,283,214,165
58,87,29,-73,14,58,4,253,351,302,234,185
68,97,29,-82,19,63,0,253,361,312,244,195
78,107,29,-92,24,68,-4,253,370,322,253,204
87,117,29,-102,29,73,-9,253,380,331,263,214
78,122,43,-100,17,82,0,258,390,356,278,229
78,126,48,-102,14,87,0,263,400,370,292,234
78,131,53,-104,12,92,0,268,409,385,307,239
78,136,58,-107,9,97,0,273,419,400,322,244
92,151,58,-122,17,104,-4,268,429,405,326,253
97,165,68,-131,14,117,-9,263,429,409,331,263
102,180,78,-141,12,129,-14,258,429,414,336,273
107,195,87,-151,9,141,-19,253,429,419,341,283
107,195,87,-151,9,141,-24,248,439,424,356,283
107,195,87,-151,9,141,-29,244,439,429,361,283
107,195,87,-151,9,141,-34,239,439,434,366,283
107,195,87,-151,9,141,-39,234,439,439,370,283
117,209,92,-163,12,151,-43,224,429,439,361,287
117,224,107,-170,4,165,-48,224,429,439,361,292
117,239,122,-178,-2,180,-53,224,429,439,361,297
117,253,136,-185,-9,195,-58,224,429,439,361,302
112,244,131,-178,-9,187,-43,224,429,444,370,317
107,234,126,-170,-9,180,-39,224,429,448,380,322
102,224,122,-163,-9,173,-34,224,429,453,390,326
97,214,117,-156,-9,165,-29,224,429,458,400,331
97,214,117,-156,-9,165,-34,214,409,439,380,317
97,214,117,-156,-9,165,-39,204,400,429,370,312
97,214,117,-156,-9,165,-43,195,390,419,361,307
97,214,117,-156,-9,165,-48,185,380,409,351,302
82,209,126,-146,-21,168,-39,175,366,395,336,278
78,204,126,-141,-24,165,-39,175,351,380,322,263
73,200,126,-136,-26,163,-39,175,336,366,307,248
68,195,126,-131,-29,161,-39,175,322,351,292,234
53,170,117,-112,-31,143,-24,161,307,331,278,224
48,156,107,-102,-29,131,-19,156,292,312,263,214
43,141,97,-92,-26,119,-14,151,278,292,248,204
39,126,87,-82,-24,107,-9,146,263,273,234,195
39,117,78,-78,-19,97,-9,131,239,253,214,170
39,117,78,-78,-19,97,-9,126,224,234,195,156
39,117,78,-78,-19,97,-9,122,209,214,175,141
39,117,78,-78,-19,97,-9,117,195,195,156,126
24,102,78,-63,-26,90,0,107,170,165,136,102
19,87,68,-53,-24,78,0,97,156,146,117,87
14,73,58,-43,-21,65,0,87,141,126,97,73
9,58,48,-34,-19,53,0,78,126,107,78,58
9,48,39,-29,-14,43,4,73,117,97,63,53
9,39,29,-24,-9,34,9,68,107,87,58,48
9,29,19,-19,-4,24,14,63,97,78,53,43
9,19,9,-14,0,14,19,58,87,68,48,39
0,14,14,-7,-7,14,9,43,73,53,29,19
0,9,9,-4,-4,9,9,39,58,39,19,9
0,4,4,-2,-2,4,9,34,43,24,9,0
0,0,0,0,0,0,9,29,29,9,0,-9
-4,-4,0,4,-2,-2,19,19,14,-4,-4,-9
-9,-9,0,9,-4,-4,19,19,9,-9,-9,-9
-14,-14,0,14,-7,-7,19,19,4,-14,-14,-9
-19,-19,0,19,-9,-9,19,19,0,-19,-19,-9
-24,-39,-14,31,-4,-26,29,9,-14,-34,-34,-29
-29,-48,-19,39,-4,-34,29,9,-19,-39,-39,-39
-34,-58,-24,46,-4,-41,29,9,-24,-43,-43,-48
-39,-68,-29,53,-4,-48,29,9,-29,-48,-48,-58
-24,-68,-43,46,9,-56,19,4,-39,-58,-53,-68
-19,-68,-48,43,14,-58,19,0,-39,-58,-58,-68
-14,-68,-53,41,19,-61,19,-4,-39,-58,-63,-68
-9,-68,-58,39,24,-63,19,-9,-39,-58,-68,-68
-14,-58,-43,36,14,-51,29,0,-39,-68,-78,-73
-19,-58,-39,39,9,-48,29,0,-39,-68,-78,-78
-24,-58,-34,41,4,-46,29,0,-39,-68,-78,-82
-29,-58,-29,43,0,-43,29,0,-39,-68,-78,-87
-19,-48,-29,34,4,-39,29,-9,-48,-58,-68,-73
-19,-48,-29,34,4,-39,29,-9,-48,-58,-68,-58
-19,-48,-29,34,4,-39,29,-9,-48,-58,-68,-43
-19,-48,-29,34,4,-39,29,-9,-48,-58,-68,-29
-24,-58,-34,41,4,-46,29,-9,-58,-63,-78,-39
-29,-58,-29,43,0,-43,29,-9,-58,-68,-78,-48
-34,-58,-24,46,-4,-41,29,-9,-58,-73,-78,-58
-39,-58,-19,48,-9,-39,29,-9,-58,-78,-78,-68
-48,-63,-14,56,-17,-39,29,-19,-63,-82,-82,-82
-48,-68,-19,58,-14,-43,29,-19,-68,-87,-87,-87
-48,-73,-24,61,-12,-48,29,-19,-73,-92,-92,-92
-48,-78,-29,63,-9,-53,29,-19,-78,-97,-97,-97
-39,-78,-39,58,0,-58,29,-9,-73,-87,-92,-92
-39,-78,-39,58,0,-58,29,-9,-68,-87,-87,-87
-39,-78,-39,58,0,-58,29,-9,-63,-87,-82,-82
-39,-78,-39,58,0,-58,29,-9,-58,-87,-78,-78
-39,-73,-34,56,-2,-53,19,-19,-68,-97,-82,-87
-39,-68,-29,53,-4,-48,19,-19,-68,-97,-87,-87
-39,-63,-24,51,-7,-43,19,-19,-68,-97,-92,-87
-39,-58,-19,48,-9,-39,19,-19,-68,-97,-97,-87
-29,-68,-39,48,4,-53,29,-19,-68,-107,-97,-78
-29,-68,-39,48,4,-53,29,-19,-68,-107,-97,-78
-29,-68,-39,48,4,-53,29,-19,-68,-107,-97,-78
-29,-68,-39,48,4,-53,29,-19,-68,-107,-97,-78
-39,-73,-34,56,-2,-53,29,-9,-78,-112,-112,-87
-39,-78,-39,58,0,-58,29,-9,-78,-117,-117,-97
-39,-82,-43,61,2,-63,29,-9,-78,-122,-122,-107
-39,-87,-48,63,4,-68,29,-9,-78,-126,-126,-117
-39,-87,-48,63,4,-68,34,-9,-78,-117,-117,-107
-39,-87,-48,63,4,-68,39,-9,-78,-117,-117,-107
-39,-87,-48,63,4,-68,43,-9,-78,-117,-117,-107
-39,-87,-48,63,4,-68,48,-9,-78,-117,-117,-107
-39,-82,-43,61,2,-63,39,-4,-73,-117,-117,-107
-39,-78,-39,58,0,-58,39,0,-68,-117,-117,-107
-39,-73,-34,56,-2,-53,39,4,-63,-117,-117,-107
-39,-68,-29,53,-4,-48,39,9,-58,-117,-117,-107
-39,-82,-43,61,2,-63,48,9,-48,-117,-126,-107
-39,-87,-48,63,4,-68,48,9,-48,-117,-126,-107
-39,-92,-53,65,7,-73,48,9,-48,-117,-126,-107
-39,-97,-58,68,9,-78,48,9,-48,-117,-126,-107
-48,-82,-34,65,-7,-58,39,9,-48,-117,-122,-107
-48,-78,-29,63,-9,-53,39,9,-48,-117,-117,-107
-48,-73,-24,61,-12,-48,39,9,-48,-117,-112,-107
-48,-68,-19,58,-14,-43,39,9,-48,-117,-107,-107
-39,-58,-19,48,-9,-39,39,9,-48,-112,-97,-92
-39,-58,-19,48,-9,-39,39,9,-48,-107,-97,-87
-39,-58,-19,48,-9,-39,39,9,-48,-102,-97,-82
-39,-58,-19,48,-9,-39,39,9,-48,-97,-97,-78
-48,-48,0,48,-24,-24,48,14,-43,-87,-87,-87
-48,-48,0,48,-24,-24,48,19,-39,-87,-87,-87
-48,-48,0,48,-24,-24,48,24,-34,-87,-87,-87
-48,-48,0,48,-24,-24,48,29,-29,-87,-87,-87
-39,-53,-14,46,-12,-34,58,29,-29,-87,-87,-87
-39,-58,-19,48,-9,-39,58,29,-29,-87,-87,-87
-39,-63,-24,51,-7,-43,58,29,-29,-87,-87,-87
-39,-68,-29,53,-4,-48,58,29,-29,-87,-87,-87
-39,-63,-24,51,-7,-43,53,29,-19,-87,-97,-92
-39,-58,-19,48,-9,-39,48,29,-19,-87,-97,-97
-39,-53,-14,46,-12,-34,43,29,-19,-87,-97,-102
-39,-48,-9,43,-14,-29,39,29,-19,-87,-97,-107
-29,-34,-4,31,-12,-19,24,19,-19,-82,-82,-102
-29,-29,0,29,-14,-14,19,19,-19,-78,-78,-97
-29,-24,4,26,-17,-9,14,19,-19,-73,-73,-92
-29,-19,9,24,-19,-4,9,19,-19,-68,-68,-87
-29,-24,4,26,-17,-9,24,19,-9,-63,-58,-82
-29,-29,0,29,-14,-14,29,19,-9,-58,-58,-78
-29,-34,-4,31,-12,-19,34,19,-9,-53,-58,-73
-29,-39,-9,34,-9,-24,39,19,-9,-48,-58,-68
-19,-48,-29,34,4,-39,39,24,0,-48,-58,-63
-19,-48,-29,34,4,-39,39,29,0,-48,-58,-58
-19,-48,-29,34,4,-39,39,34,0,-48,-58,-53
-19,-48,-29,34,4,-39,39,39,0,-48,-58,-48
-19,-48,-29,34,4,-39,39,34,-9,-39,-48,-48
-19,-48,-29,34,4,-39,39,29,-9,-39,-48,-48
-19,-48,-29,34,4,-39,39,24,-9,-39,-48,-48
-19,-48,-29,34,4,-39,39,19,-9,-39,-48,-48
-29,-39,-9,34,-9,-24,34,19,-9,-43,-58,-53
-29,-39,-9,34,-9,-24,29,19,-9,-48,-58,-58
-29,-39,-9,34,-9,-24,24,19,-9,-53,-58,-63
-29,-39,-9,34,-9,-24,19,19,-9,-58,-58,-68
-24,-34,-9,29,-7,-21,19,19,-19,-58,-68,-78
-19,-29,-9,24,-4,-19,19,19,-19,-58,-68,-78
-14,-24,-9,19,-2,-17,19,19,-19,-58,-68,-78
-9,-19,-9,14,0,-14,19,19,-19,-58,-68,-78
-19,-29,-9,24,-4,-19,29,19,-19,-48,-63,-63
-19,-29,-9,24,-4,-19,29,19,-19,-48,-58,-58
-19,-29,-9,24,-4,-19,29,19,-19,-48,-53,-53
-19,-29,-9,24,-4,-19,29,19,-19,-48,-48,-48
-9,-29,-19,19,4,-24,19,19,-19,-58,-58,-58
-9,-29,-19,19,4,-24,19,19,-19,-58,-58,-58
-9,-29,-19,19,4,-24,19,19,-19,-58,-58,-58
-9,-29,-19,19,4,-24,19,19,-19,-58,-58,-58
-19,-34,-14,26,-2,-24,24,19,-29,-58,-68,-68
-19,-39,-19,29,0,-29,29,19,-29,-58,-68,-68
-19,-43,-24,31,2,-34,34,19,-29,-58,-68,-68
-19,-48,-29,34,4,-39,39,19,-29,-58,-68,-68
-19,-43,-24,31,2,-34,29,9,-29,-68,-73,-73
-19,-39,-19,29,0,-29,29,9,-29,-68,-78,-78
-19,-34,-14,26,-2,-24,29,9,-29,-68,-82,-82
-19,-29,-9,24,-4,-19,29,9,-29,-68,-87,-87
-14,-29,-14,21,0,-21,19,9,-29,-58,-73,-78
-9,-29,-19,19,4,-24,19,9,-29,-58,-68,-68
-4,-29,-24,17,9,-26,19,9,-29,-58,-63,-58
0,-29,-29,14,14,-29,19,9,-29,-58,-58,-48
-9,-34,-24,21,7,-29,24,19,-29,-68,-68,-53
-19,-39,-19,29,0,-29,29,19,-29,-68,-68,-58
-29,-43,-14,36,-7,-29,34,19,-29,-68,-68,-63
-39,-48,-9,43,-14,-29,39,19,-29,-68,-68,-68
-34,-34,0,34,-17,-17,34,14,-34,-78,-73,-73
-29,-29,0,29,-14,-14,29,9,-39,-78,-78,-78
-24,-24,0,24,-12,-12,24,4,-43,-78,-82,-82
-19,-19,0,19,-9,-9,19,0,-48,-78,-87,-87
-29,-39,-9,34,-9,-24,24,9,-39,-68,-82,-82
-29,-48,-19,39,-4,-34,29,9,-39,-68,-78,-78
-29,-58,-29,43,0,-43,34,9,-39,-68,-73,-73
-29,-68,-39,48,4,-53,39,9,-39,-68,-68,-68
-19,-63,-43,41,12,-53,29,9,-39,-78,-78,-78
-19,-58,-39,39,9,-48,29,9,-39,-78,-78,-78
-19,-53,-34,36,7,-43,29,9,-39,-78,-78,-78
-19,-48,-29,34,4,-39,29,9,-39,-78,-78,-78
-19,-43,-24,31,2,-34,19,0,-48,-78,-78,-87
-19,-39,-19,29,0,-29,19,0,-48,-78,-78,-87
-19,-34,-14,26,-2,-24,19,0,-48,-78,-78,-87
-19,-29,-9,24,-4,-19,19,0,-48,-78,-78,-87
-29,-39,-9,34,-9,-24,19,9,-48,-78,-78,-78
-29,-39,-9,34,-9,-24,19,9,-48,-78,-78,-78
-29,-39,-9,34,-9,-24,19,9,-48,-78,-78,-78
-29,-39,-9,34,-9,-24,19,9,-48,-78,-78,-78
-39,-39,0,39,-19,-19,29,0,-48,-78,-87,-87
-39,-39,0,39,-19,-19,29,0,-48,-78,-87,-87
-39,-39,0,39,-19,-19,29,0,-48,-78,-87,-87
-39,-39,0,39,-19,-19,29,0,-48,-78,-87,-87
-29,-48,-19,39,-4,-34,29,0,-48,-68,-78,-78
-29,-48,-19,39,-4,-34,29,0,-48,-68,-78,-78
-29,-48,-19,39,-4,-34,29,0,-48,-68,-78,-78
-29,-48,-19,39,-4,-34,29,0,-48,-68,-78,-78
-29,-39,-9,34,-9,-24,19,0,-58,-82,-92,-82
-29,-39,-9,34,-9,-24,19,0,-58,-87,-97,-87
-29,-39,-9,34,-9,-24,19,0,-58,-92,-102,-92
-29,-39,-9,34,-9,-24,19,0,-58,-97,-107,-97
-19,-39,-19,29,0,-29,19,9,-48,-92,-92,-92
-19,-39,-19,29,0,-29,19,9,-48,-87,-87,-87
-19,-39,-19,29,0,-29,19,9,-48,-82,-82,-82
-19,-39,-19,29,0,-29,19,9,-48,-78,-78,-78
-29,-43,-14,36,-7,-29,24,0,-39,-78,-78,-78
-29,-48,-19,39,-4,-34,29,0,-39,-78,-78,-78
-29,-53,-24,41,-2,-39,34,0,-39,-78,-78,-78
-29,-58,-29,43,0,-43,39,0,-39,-78,-78,-78
-29,-53,-24,41,-2,-39,29,0,-48,-87,-82,-87
-29,-48,-19,39,-4,-34,29,0,-48,-87,-87,-87
-29,-43,-14,36,-7,-29,29,0,-48,-87,-92,-87
-29,-39,-9,34,-9,-24,29,0,-48,-87,-97,-87
-24,-24,0,24,-12,-12,14,-9,-48,-87,-92,-82
-19,-19,0,19,-9,-9,9,-9,-48,-87,-87,-78
-14,-14,0,14,-7,-7,4,-9,-48,-87,-82,-73
-9,-9,0,9,-4,-4,0,-9,-48,-87,-78,-68
-14,-29,-14,21,0,-21,14,0,-58,-87,-87,-73
-19,-39,-19,29,0,-29,19,0,-58,-87,-87,-78
-24,-48,-24,36,0,-36,24,0,-58,-87,-87,-82
-29,-58,-29,43,0,-43,29,0,-58,-87,-87,-87
-39,-58,-19,48,-9,-39,29,-9,-58,-78,-78,-78
-39,-58,-19,48,-9,-39,29,-9,-58,-78,-78,-78
-39,-58,-19,48,-9,-39,29,-9,-58,-78,-78,-78
-39,-58,-19,48,-9,-39,29,-9,-58,-78,-78,-78
-34,-43,-9,39,-12,-26,19,-9,-58,-82,-82,-82
-29,-39,-9,34,-9,-24,19,-9,-58,-87,-87,-87
-24,-34,-9,29,-7,-21,19,-9,-58,-92,-92,-92
-19,-29,-9,24,-4,-19,19,-9,-58,-97,-97,-97
-19,-39,-19,29,0,-29,29,-9,-48,-87,-92,-92
-19,-39,-19,29,0,-29,29,-9,-48,-87,-87,-87
-19,-39,-19,29,0,-29,29,-9,-48,-87,-82,-82
-19,-39,-19,29,0,-29,29,-9,-48,-87,-78,-78
-19,-29,-9,24,-4,-19,24,-9,-58,-97,-87,-78
-19,-29,-9,24,-4,-19,19,-9,-58,-97,-87,-78
-19,-29,-9,24,-4,-19,14,-9,-58,-97,-87,-78
-19,-29,-9,24,-4,-19,9,-9,-58,-97,-87,-78
-19,-24,-4,21,-7,-14,14,-9,-58,-87,-97,-87
-19,-19,0,19,-9,-9,19,-9,-58,-87,-97,-87
-19,-14,4,17,-12,-4,24,-9,-58,-87,-97,-87
-19,-9,9,14,-14,0,29,-9,-58,-87,-97,-87
-19,-19,0,19,-9,-9,19,-19,-68,-102,-107,-92
-19,-19,0,19,-9,-9,19,-19,-68,-107,-107,-97
-19,-19,0,19,-9,-9,19,-19,-68,-112,-107,-102
-19,-19,0,19,-9,-9,19,-19,-68,-117,-107,-107
-29,-19,9,24,-19,-4,29,-9,-58,-112,-102,-92
-29,-19,9,24,-19,-4,29,-9,-58,-107,-97,-87
-29,-19,9,24,-19,-4,29,-9,-58,-102,-92,-82
-29,-19,9,24,-19,-4,29,-9,-58,-97,-87,-78
-19,-9,9,14,-14,0,24,-9,-58,-87,-97,-92
-19,-9,9,14,-14,0,19,-9,-58,-87,-97,-97
-19,-9,9,14,-14,0,14,-9,-58,-87,-97,-102
-19,-9,9,14,-14,0,9,-9,-58,-87,-97,-107
-19,-19,0,19,-9,-9,14,-9,-58,-97,-87,-97
-19,-29,-9,24,-4,-19,19,-9,-58,-97,-87,-87
-19,-39,-19,29,0,-29,24,-9,-58,-97,-87,-78
-19,-48,-29,34,4,-39,29,-9,-58,-97,-87,-68
-19,-48,-29,34,4,-39,29,-9,-58,-107,-92,-78
-19,-48,-29,34,4,-39,29,-9,-58,-107,-97,-87
-19,-48,-29,34,4,-39,29,-9,-58,-107,-102,-97
-19,-48,-29,34,4,-39,29,-9,-58,-107,-107,-107
-9,-34,-24,21,7,-29,14,-19,-68,-107,-97,-97
-9,-19,-9,14,0,-14,9,-19,-68,-107,-97,-97
-9,-4,4,7,-7,0,4,-19,-68,-107,-97,-97
-9,9,19,0,-14,14,0,-19,-68,-107,-97,-97
-14,-9,4,12,-9,-2,9,-14,-58,-102,-92,-92
-14,-29,-14,21,0,-21,14,-9,-58,-97,-82,-87
-19,-43,-24,31,2,-34,24,-4,-58,-82,-73,-82
-19,-53,-34,36,7,-43,39,0,-58,-78,-68,-73
-29,-39,-9,34,-9,-24,29,-4,-68,-97,-87,-78
-29,-39,-9,34,-9,-24,29,-9,-68,-102,-97,-87
-29,-34,-4,31,-12,-19,29,-9,-68,-107,-112,-102
-29,-29,0,29,-14,-14,29,-14,-68,-112,-122,-112
-19,-19,0,19,-9,-9,14,-14,-58,-107,-117,-107
-19,0,19,9,-19,9,14,-9,-53,-102,-107,-102
-19,19,39,0,-29,29,9,-9,-48,-87,-102,-97
-19,29,48,-4,-34,39,14,-9,-43,-82,-82,-87
-14,14,29,0,-21,21,34,4,-29,-73,-78,-68
-14,19,34,-2,-24,26,43,14,-29,-68,-73,-68
-14,29,43,-7,-29,36,48,14,-24,-68,-68,-68
-9,34,43,-12,-26,39,53,14,-24,-68,-63,-68
-19,39,58,-9,-39,48,58,14,-29,-68,-68,-78
-19,43,63,-12,-41,53,68,14,-24,-68,-63,-78
-24,53,78,-14,-51,65,68,24,-24,-68,-68,-78
-24,53,78,-14,-51,65,68,24,-24,-68,-73,-73
-29,68,97,-19,-63,82,68,24,-24,-68,-73,-82
-24,73,97,-24,-61,85,68,24,-19,-68,-73,-73
-24,78,102,-26,-63,90,58,19,-19,-68,-73,-73
-29,92,122,-31,-75,107,48,4,-34,-73,-73,-73
-19,92,112,-36,-65,102,53,-4,-29,-63,-58,-68
-14,92,107,-39,-61,100,43,-4,-29,-58,-53,-58
-14,102,117,-43,-65,109,29,-14,-34,-58,-53,-53
-9,117,126,-53,-68,122,9,-24,-39,-63,-53,-48
-9,117,126,-53,-68,122,4,-39,-43,-63,-53,-48
0,107,107,-53,-53,107,-9,-43,-48,-63,-53,-48
4,107,102,-56,-48,104,-24,-48,-48,-63,-53,-53
9,102,92,-56,-41,97,-29,-48,-48,-63,-53,-53
4,117,112,-61,-53,114,-39,-48,-58,-68,-73,-63
-4,112,117,-53,-61,114,-34,-53,-63,-78,-78,-63
-9,102,112,-46,-61,107,-34,-58,-68,-82,-82,-68
0,107,107,-53,-53,107,-34,-63,-73,-87,-87,-87
9,82,73,-46,-31,78,-29,-48,-63,-87,-82,-68
14,78,63,-46,-24,70,-29,-48,-63,-87,-78,-63
19,73,53,-46,-17,63,-34,-48,-63,-87,-73,-58
39,73,34,-56,2,53,-34,-43,-63,-87,-68,-63
29,78,48,-53,-9,63,-39,-48,-53,-73,-68,-53
29,68,39,-48,-4,53,-39,-39,-48,-68,-63,-53
24,53,29,-39,-2,41,-39,-39,-48,-68,-63,-58
19,48,29,-34,-4,39,-39,-39,-53,-78,-68,-63
24,39,14,-31,4,26,-19,-29,-53,-73,-68,-63
14,14,0,-14,7,7,-9,-29,-58,-78,-73,-73
0,4,4,-2,-2,4,-9,-29,-63,-87,-78,-78
-9,-4,4,7,-7,0,-9,-29,-68,-87,-82,-87
-19,-24,-4,21,-7,-14,4,-24,-63,-87,-87,-78
-19,-24,-4,21,-7,-14,14,-24,-63,-87,-87,-78
-19,-34,-14,26,-2,-24,19,-19,-68,-97,-97,-78
-19,-34,-14,26,-2,-24,19,-19,-68,-102,-97,-87
-34,-29,4,31,-19,-12,19,-29,-68,-107,-107,-102
-34,-24,9,29,-21,-7,24,-29,-68,-107,-107,-102
-34,-34,0,34,-17,-17,24,-29,-68,-107,-107,-102
-34,-39,-4,36,-14,-21,29,-29,-68,-112,-112,-107
-24,-29,-4,26,-9,-17,14,-29,-87,-117,-126,-107
-19,-24,-4,21,-7,-14,9,-29,-92,-122,-131,-107
-4,-24,-19,14,7,-21,0,-34,-92,-136,-136,-117
0,-24,-24,12,12,-24,-4,-34,-92,-141,-141,-122
-9,-39,-29,24,9,-34,4,-34,-82,-126,-131,-112
-19,-43,-24,31,2,-34,9,-29,-82,-126,-131,-112
-19,-58,-39,39,9,-48,14,-29,-82,-136,-131,-112
-19,-53,-34,36,7,-43,24,-29,-82,-136,-136,-117
-29,-63,-34,46,2,-48,34,-19,-92,-146,-141,-122
-34,-63,-29,48,-2,-46,34,-19,-92,-146,-146,-126
-39,-68,-29,53,-4,-48,34,-19,-97,-146,-151,-126
-39,-68,-29,53,-4,-48,34,-19,-97,-151,-156,-131
-29,-63,-34,46,2,-48,29,-29,-87,-146,-141,-126
-29,-58,-29,43,0,-43,24,-29,-87,-141,-136,-122
-29,-53,-24,41,-2,-39,19,-29,-87,-131,-126,-117
-34,-48,-14,41,-9,-31,14,-24,-82,-126,-122,-112
-34,-68,-34,51,0,-51,19,-14,-82,-136,-126,-126
-29,-73,-43,51,7,-58,19,-14,-87,-136,-131,-126
-29,-78,-48,53,9,-63,19,-14,-87,-136,-136,-122
-39,-82,-43,61,2,-63,24,-14,-82,-136,-136,-112
-48,-102,-53,75,2,-78,29,-14,-82,-126,-126,-122
-43,-102,-58,73,7,-80,29,-9,-82,-126,-126,-122
-39,-97,-58,68,9,-78,24,-9,-82,-126,-126,-122
-39,-87,-48,63,4,-68,24,-19,-82,-126,-131,-126
-29,-68,-39,48,4,-53,9,-29,-102,-141,-136,-151
-29,-58,-29,43,0,-43,9,-24,-92,-141,-141,-151
-29,-48,-19,39,-4,-34,9,-24,-92,-146,-146,-136
-29,-39,-9,34,-9,-24,9,-19,-87,-146,-146,-122
-34,-102,-68,68,17,-85,29,-9,-87,-126,-126,-112
-29,-102,-73,65,21,-87,39,0,-68,-102,-107,-102
-34,-92,-58,63,12,-75,29,14,-43,-87,-102,-97
-24,-78,-53,51,14,-65,24,53,4,-58,-82,-82
9,-58,-68,24,39,-63,48,102,87,14,-19,-29
29,-43,-73,7,51,-58,58,112,151,97,43,4
39,-19,-58,-9,48,-39,39,126,209,190,117,58
63,63,0,-63,31,31,19,117,273,341,268,185
92,170,78,-131,7,124,-19,58,292,507,439,317
112,278,165,-195,-26,222,-63,-29,292,653,614,468
141,395,253,-268,-56,324,-112,-131,268,810,814,634
170,502,331,-336,-80,417,-175,-234,258,946,980,775
195,570,375,-383,-90,473,-214,-326,219,1044,1112,883
219,634,414,-427,-97,524,-248,-444,141,1088,1190,941
219,692,473,-456,-126,583,-273,-541,53,1117,1249,985
190,732,541,-461,-175,636,-292,-619,-14,1122,1273,1019
165,741,575,-453,-204,658,-336,-707,-112,1083,1239,1000
161,751,590,-456,-214,671,-370,-795,-248,976,1151,912
122,741,619,-431,-248,680,-409,-888,-409,795,985,780
73,668,595,-370,-261,631,-453,-995,-575,531,727,580
9,541,531,-275,-261,536,-468,-1063,-732,204,390,336
-63,419,483,-178,-273,451,-458,-1078,-863,-156,-9,43
-146,346,492,-100,-319,419,-444,-1088,-995,-512,-361,-234
-156,322,478,-82,-317,400,-453,-1102,-1083,-717,-517,-336
-126,292,419,-82,-273,356,-453,-1054,-1068,-736,-517,-317
-126,200,326,-36,-226,263,-419,-932,-971,-673,-492,-302
-136,131,268,2,-202,200,-380,-819,-878,-624,-478,-322
-117,117,234,0,-175,175,-361,-732,-790,-580,-448,-302
-107,87,195,9,-151,141,-312,-610,-673,-507,-405,-263
-122,68,190,26,-156,129,-239,-478,-536,-453,-366,-244
-102,73,175,14,-139,124,-185,-395,-434,-405,-341,-239
-68,58,126,4,-97,92,-131,-317,-370,-351,-312,-224
-58,43,102,7,-80,73,-87,-234,-292,-297,-273,-180
-78,39,117,19,-97,78,-68,-175,-239,-258,-248,-190
-68,29,97,19,-82,63,-53,-146,-224,-239,-229,-204
-48,19,68,14,-58,43,-34,-112,-209,-209,-200,-170
-43,-14,29,29,-36,7,-4,-87,-165,-185,-165,-122
-58,-39,19,48,-39,-9,4,-53,-136,-170,-146,-107
-48,-34,14,41,-31,-9,9,-39,-122,-170,-156,-136
-39,-19,19,29,-29,0,34,-29,-97,-161,-170,-156
-39,-14,24,26,-31,4,53,-14,-87,-156,-170,-146
-29,-24,4,26,-17,-9,39,-14,-78,-141,-151,-141
-29,-29,0,29,-14,-14,34,-9,-68,-136,-146,-141
-29,-29,0,29,-14,-14,39,-4,-68,-131,-136,-131
-29,-29,0,29,-14,-14,39,-4,-73,-131,-136,-122
-34,-24,9,29,-21,-7,39,9,-63,-131,-126,-117
-24,-24,0,24,-12,-12,39,14,-63,-131,-126,-122
-29,-34,-4,31,-12,-19,43,14,-53,-131,-126,-117
-34,-34,0,34,-17,-17,43,19,-43,-122,-122,-107
-39,-34,4,36,-21,-14,58,24,-34,-122,-126,-112
-34,-39,-4,36,-14,-21,58,24,-34,-122,-131,-112
-19,-39,-19,29,0,-29,58,24,-39,-122,-136,-112
-9,-29,-19,19,4,-24,58,34,-39,-117,-136,-112
-9,-24,-14,17,2,-19,58,34,-48,-117,-126,-107
-14,-19,-4,17,-4,-12,53,34,-43,-117,-126,-107
-14,-14,0,14,-7,-7,48,34,-43,-117,-126,-107
-14,-14,0,14,-7,-7,43,39,-39,-112,-122,-102
-24,-24,0,24,-12,-12,53,39,-34,-107,-107,-87
-19,-19,0,19,-9,-9,53,39,-34,-107,-107,-87
-19,-9,9,14,-14,0,58,39,-34,-107,-107,-92
-19,-24,-4,21,-7,-14,58,39,-34,-102,-107,-92
-19,-24,-4,21,-7,-14,68,34,-34,-112,-102,-92
-19,-24,-4,21,-7,-14,68,34,-24,-112,-107,-97
-19,-19,0,19,-9,-9,73,34,-34,-112,-117,-112
-19,-19,0,19,-9,-9,73,34,-34,-112,-131,-117
-19,-24,-4,21,-7,-14,63,43,-29,-102,-112,-97
-19,-24,-4,21,-7,-14,63,43,-24,-97,-107,-97
-19,-29,-9,24,-4,-19,63,48,-24,-97,-102,-102
-19,-29,-9,24,-4,-19,63,48,-24,-97,-102,-102
-9,-24,-14,17,2,-19,63,48,-19,-97,-102,-97
-9,-19,-9,14,0,-14,63,43,-19,-97,-102,-97
-9,-9,0,9,-4,-4,63,39,-19,-97,-102,-97
-9,-4,4,7,-7,0,63,34,-19,-92,-102,-97
-14,-14,0,14,-7,-7,68,43,-29,-92,-102,-97
-19,-14,4,17,-12,-4,68,43,-29,-92,-102,-92
-19,-14,4,17,-12,-4,68,43,-24,-92,-102,-92
-24,-9,14,17,-19,2,63,43,-24,-92,-97,-92
-9,-9,0,9,-4,-4,58,39,-24,-102,-102,-92
-9,0,9,4,-9,4,58,39,-24,-102,-107,-92
-14,-9,4,12,-9,-2,58,48,-19,-97,-112,-92
-14,-19,-4,17,-4,-12,58,48,-19,-97,-117,-97
-14,-9,4,12,-9,-2,53,39,-9,-87,-112,-87
-9,-4,4,7,-7,0,48,39,-9,-82,-107,-73
-9,-4,4,7,-7,0,48,43,-4,-82,-97,-73
-19,-9,9,14,-14,0,43,43,-4,-78,-82,-73
-9,0,9,4,-9,4,48,48,-14,-87,-92,-82
-4,0,4,2,-4,2,48,48,-9,-87,-102,-87
-4,4,9,0,-7,7,48,53,-4,-87,-102,-87
-4,4,9,0,-7,7,48,53,-4,-87,-97,-92
4,14,9,-9,-2,12,48,48,-14,-78,-97,-82
4,14,9,-9,-2,12,48,48,-14,-78,-97,-82
-14,14,29,0,-21,21,48,53,-14,-73,-97,-87
-14,14,29,0,-21,21,48,53,-14,-73,-97,-92
-9,9,19,0,-14,14,48,53,-9,-73,-82,-92
-9,4,14,2,-12,9,53,58,-4,-68,-82,-82
-4,0,4,2,-4,2,58,58,4,-68,-82,-78
-4,-4,0,4,-2,-2,58,58,9,-68,-82,-78
-4,-4,0,4,-2,-2,39,58,9,-58,-82,-82
0,0,0,0,0,0,39,58,14,-58,-82,-82
0,0,0,0,0,0,48,68,14,-58,-78,-82
0,0,0,0,0,0,48,68,14,-53,-78,-82
0,4,4,-2,-2,4,53,63,19,-58,-63,-68
0,9,9,-4,-4,9,53,68,19,-53,-63,-58
0,14,14,-7,-7,14,53,68,19,-53,-63,-53
0,19,19,-9,-9,19,43,68,19,-53,-68,-58
-4,14,19,-4,-12,17,53,78,29,-43,-68,-58
-4,9,14,-2,-9,12,48,78,34,-34,-58,-43
0,0,0,0,0,0,48,78,39,-34,-58,-43
0,-4,-4,2,2,-4,48,87,43,-29,-53,-43
0,9,9,-4,-4,9,48,78,48,-24,-43,-53
0,14,14,-7,-7,14,53,82,53,-19,-43,-48
0,24,24,-12,-12,24,53,82,58,-19,-43,-39
0,34,34,-17,-17,34,48,92,58,-14,-39,-39
4,29,24,-17,-9,26,43,82,63,-24,-48,-53
19,39,19,-29,0,29,39,87,68,-24,-48,-53
24,43,19,-34,2,31,34,92,78,-14,-48,-53
29,48,19,-39,4,34,29,97,78,-4,-39,-43
24,34,9,-29,7,21,39,97,78,4,-29,-34
19,19,0,-19,9,9,39,107,92,14,-14,-24
14,14,0,-14,7,7,39,112,102,24,0,-14
19,19,0,-19,9,9,39,112,102,34,4,-9
29,24,-4,-26,17,9,19,112,107,29,9,0
29,29,0,-29,14,14,29,117,112,34,14,0
29,34,4,-31,12,19,29,117,117,48,19,9
29,39,9,-34,9,24,29,122,126,48,24,19
29,58,29,-43,0,43,29,117,131,53,14,4
29,78,48,-53,-9,63,19,126,146,58,14,0
29,82,53,-56,-12,68,19,131,151,73,14,4
34,87,53,-61,-9,70,19,136,151,82,24,9
24,82,58,-53,-17,70,29,146,156,102,43,39
39,78,39,-58,0,58,24,146,170,117,63,43
39,82,43,-61,-2,63,24,146,180,131,78,53
43,97,53,-70,-4,75,24,161,190,141,82,68
53,87,34,-70,9,61,19,170,204,136,92,63
53,92,39,-73,7,65,14,170,219,146,102,73
48,97,48,-73,0,73,9,170,229,161,122,82
48,107,58,-78,-4,82,4,165,244,180,131,102
58,131,73,-95,-7,102,4,170,244,185,136,97
63,141,78,-102,-7,109,-4,175,253,200,151,97
63,151,87,-107,-12,119,-4,180,268,214,165,107
63,161,97,-112,-17,129,-4,180,283,229,170,131
78,165,87,-122,-4,126,-14,185,297,248,200,146
78,185,107,-131,-14,146,-19,185,302,268,214,156
87,200,112,-143,-12,156,-29,185,312,283,219,156
92,209,117,-151,-12,163,-34,185,322,292,239,165
92,214,122,-153,-14,168,-43,175,331,302,248,185
102,229,126,-165,-12,178,-48,175,341,317,253,195
102,234,131,-168,-14,183,-48,180,346,322,258,200
107,234,126,-170,-9,180,-48,185,361,336,268,214
97,244,146,-170,-24,195,-53,195,361,346,292,229
97,244,146,-170,-24,195,-53,190,366,356,297,229
102,244,141,-173,-19,192,-53,190,366,366,297,229
102,258,156,-180,-26,207,-53,190,366,375,312,244
112,268,156,-190,-21,212,-63,170,370,385,317,244
112,283,170,-197,-29,226,-73,170,375,390,331,248
117,292,175,-204,-29,234,-78,170,375,395,331,248
122,302,180,-212,-29,241,-82,170,380,395,336,253
112,307,195,-209,-41,251,-82,175,380,405,346,263
112,307,195,-209,-41,251,-82,170,380,405,351,263
112,302,190,-207,-39,246,-82,165,375,409,351,268
112,302,190,-207,-39,246,-78,161,375,409,351,268
122,302,180,-212,-29,241,-82,161,366,400,351,278
117,302,185,-209,-34,244,-87,156,366,400,351,278
117,302,185,-209,-34,244,-87,146,356,400,346,268
112,302,190,-207,-39,246,-87,146,346,400,346,268
107,302,195,-204,-43,248,-82,146,346,380,331,263
107,312,204,-209,-48,258,-82,141,331,375,326,248
102,312,209,-207,-53,261,-82,131,322,361,312,234
102,307,204,-204,-51,256,-78,126,317,351,297,229
92,287,195,-190,-51,241,-73,136,317,346,297,234
92,278,185,-185,-46,231,-68,122,297,331,283,234
87,263,175,-175,-43,219,-58,117,283,322,273,214
82,253,170,-168,-43,212,-48,107,263,312,263,204
87,248,161,-168,-36,204,-53,107,253,278,248,200
78,244,165,-161,-43,204,-48,107,239,258,234,190
78,229,151,-153,-36,190,-43,102,219,239,224,175
68,229,161,-148,-46,195,-48,87,209,219,204,156
73,214,141,-143,-34,178,-39,87,195,214,180,151
68,195,126,-131,-29,161,-34,78,180,190,165,131
68,185,117,-126,-24,151,-29,73,170,170,146,117
63,165,102,-114,-19,134,-29,63,146,151,136,107
48,151,102,-100,-26,126,-24,68,122,122,102,82
39,141,102,-90,-31,122,-19,58,112,102,92,73
34,136,102,-85,-34,119,-14,53,92,92,78,63
29,122,92,-75,-31,107,-9,43,78,73,63,34
29,122,92,-75,-31,107,-19,39,68,68,39,34
19,117,97,-68,-39,107,-14,29,58,58,29,24
19,117,97,-68,-39,107,-14,24,48,39,14,19
9,107,97,-58,-43,102,-14,19,39,19,0,-4
4,97,92,-51,-43,95,-9,4,19,4,-4,0
14,87,73,-51,-29,80,-9,0,4,-9,-14,0
24,82,58,-53,-17,70,-14,-9,-4,-24,-24,-14
14,63,48,-39,-17,56,-14,-14,-14,-29,-29,-29
4,58,53,-31,-24,56,-4,-9,-14,-24,-29,-24
0,48,48,-24,-24,48,4,-14,-14,-34,-39,-24
0,39,39,-19,-19,39,4,-14,-19,-39,-43,-24
0,39,39,-19,-19,39,0,-24,-19,-39,-53,-39
0,24,24,-12,-12,24,0,-19,-39,-53,-73,-48
0,19,19,-9,-9,19,0,-19,-39,-58,-78,-53
0,19,19,-9,-9,19,0,-24,-48,-73,-82,-58
0,19,19,-9,-9,19,0,-29,-58,-87,-97,-82
-9,19,29,-4,-19,24,-4,-34,-58,-87,-97,-82
-9,24,34,-7,-21,29,-4,-34,-63,-92,-97,-78
-19,24,43,-2,-31,34,-9,-34,-63,-102,-97,-78
-19,19,39,0,-29,29,-9,-39,-68,-102,-97,-78
-24,0,24,12,-24,12,0,-39,-73,-97,-102,-82
-24,-4,19,14,-21,7,0,-39,-78,-97,-107,-82
-19,-9,9,14,-14,0,4,-43,-78,-107,-112,-82
-19,-14,4,17,-12,-4,4,-43,-82,-112,-117,-92
-14,-9,4,12,-9,-2,-4,-43,-92,-112,-107,-92
-14,-4,9,9,-12,2,-4,-43,-92,-112,-112,-92
-14,-4,9,9,-12,2,0,-39,-92,-117,-112,-92
-9,-9,0,9,-4,-4,0,-39,-92,-122,-112,-92
-9,9,19,0,-14,14,0,-39,-82,-122,-112,-92
-9,9,19,0,-14,14,0,-43,-82,-122,-107,-92
-14,0,14,7,-14,7,0,-43,-82,-122,-107,-87
-14,-4,9,9,-12,2,0,-43,-87,-122,-107,-87
-14,-14,0,14,-7,-7,0,-48,-92,-131,-112,-112
-14,-9,4,12,-9,-2,0,-53,-102,-141,-126,-117
-14,-9,4,12,-9,-2,0,-58,-107,-141,-136,-122
-14,-9,4,12,-9,-2,0,-68,-117,-141,-146,-126
-19,-9,9,14,-14,0,-9,-58,-107,-146,-136,-117
-24,-9,14,17,-19,2,-9,-53,-107,-146,-131,-112
-34,-9,24,21,-29,7,-9,-48,-107,-146,-131,-107
-39,-14,24,26,-31,4,-9,-48,-107,-146,-136,-102
-34,-24,9,29,-21,-7,-4,-53,-97,-136,-126,-112
-29,-29,0,29,-14,-14,0,-53,-92,-136,-126,-112
-29,-34,-4,31,-12,-19,4,-48,-92,-136,-126,-112
-24,-39,-14,31,-4,-26,9,-48,-92,-141,-126,-112
-24,-29,-4,26,-9,-17,0,-58,-107,-151,-141,-112
-19,-24,-4,21,-7,-14,4,-58,-107,-151,-141,-112
-19,-19,0,19,-9,-9,4,-53,-107,-151,-146,-112
-19,-19,0,19,-9,-9,9,-48,-107,-151,-146,-97
-29,-24,4,26,-17,-9,19,-48,-107,-151,-146,-117
-29,-24,4,26,-17,-9,19,-48,-107,-151,-146,-122
-39,-29,9,34,-24,-9,14,-48,-107,-151,-151,-126
-29,-34,-4,31,-12,-19,14,-53,-107,-151,-151,-126
-19,-34,-14,26,-2,-24,14,-43,-107,-151,-141,-117
-29,-43,-14,36,-7,-29,14,-39,-107,-151,-141,-117
-29,-43,-14,36,-7,-29,14,-39,-107,-156,-141,-117
-19,-34,-14,26,-2,-24,14,-39,-107,-156,-141,-112
-19,-29,-9,24,-4,-19,14,-48,-107,-165,-151,-122
-19,-34,-14,26,-2,-24,19,-43,-102,-161,-151,-131
-19,-19,0,19,-9,-9,4,-43,-102,-161,-151,-131
-19,-14,4,17,-12,-4,0,-43,-97,-161,-146,-122
-34,-24,9,29,-21,-7,9,-29,-97,-161,-146,-122
-34,-24,9,29,-21,-7,14,-29,-97,-156,-151,-126
-29,-19,9,24,-19,-4,14,-29,-97,-156,-151,-126
-29,-19,9,24,-19,-4,9,-29,-97,-156,-151,-126
-29,-19,9,24,-19,-4,0,-29,-102,-156,-156,-136
-29,-14,14,21,-21,0,4,-34,-97,-151,-146,-136
-29,-14,14,21,-21,0,4,-29,-97,-146,-146,-136
-29,-19,9,24,-19,-4,9,-29,-87,-146,-151,-117
-19,-14,4,17,-12,-4,0,-29,-87,-146,-151,-107
-19,-4,14,12,-17,4,0,-29,-87,-146,-146,-117
-14,0,14,7,-14,7,-4,-34,-87,-141,-141,-117
-14,9,24,2,-19,17,-4,-34,-82,-136,-131,-112
-14,4,19,4,-17,12,9,-29,-82,-136,-126,-97
-14,0,14,7,-14,7,9,-29,-82,-136,-126,-112
-14,0,14,7,-14,7,4,-24,-78,-131,-126,-112
-14,-4,9,9,-12,2,0,-24,-78,-126,-126,-112
-19,0,19,9,-19,9,0,-19,-78,-126,-122,-107
-24,0,24,12,-24,12,0,-19,-68,-126,-122,-107
-24,0,24,12,-24,12,4,-19,-68,-117,-112,-102
-29,4,34,12,-31,19,4,-19,-58,-117,-112,-92
-19,0,19,9,-19,9,4,-19,-58,-117,-122,-102
-19,0,19,9,-19,9,4,-19,-58,-112,-117,-102
-19,0,19,9,-19,9,0,-19,-58,-107,-112,-102
-19,0,19,9,-19,9,0,-14,-58,-107,-107,-97
-9,9,19,0,-14,14,-4,-24,-43,-97,-107,-87
-9,14,24,-2,-17,19,-4,-24,-43,-97,-107,-87
-4,14,19,-4,-12,17,-4,-24,-43,-97,-112,-87
4,14,9,-9,-2,12,-4,-24,-43,-97,-112,-82
-14,14,29,0,-21,21,-4,-14,-43,-87,-107,-73
-14,14,29,0,-21,21,-4,-14,-43,-82,-102,-73
-14,14,29,0,-21,21,0,-14,-39,-82,-97,-73
-19,14,34,2,-26,24,0,-9,-39,-82,-92,-78
-19,14,34,2,-26,24,0,-14,-43,-92,-102,-87
-14,14,29,0,-21,21,-4,-14,-43,-92,-102,-82
-14,14,29,0,-21,21,-9,-19,-43,-87,-102,-82
-14,14,29,0,-21,21,-14,-29,-48,-87,-92,-82
-14,19,34,-2,-24,26,-14,-29,-39,-78,-82,-73
-9,19,29,-4,-19,24,-14,-24,-39,-78,-82,-63
-9,19,29,-4,-19,24,-9,-19,-39,-73,-82,-63
-9,19,29,-4,-19,24,-9,-14,-39,-73,-87,-68
-4,19,24,-7,-14,21,-9,-4,-39,-73,-78,-58
-14,19,34,-2,-24,26,-9,-9,-43,-78,-78,-58
-4,19,24,-7,-14,21,-9,-9,-43,-78,-78,-58
9,19,9,-14,0,14,-9,-9,-43,-78,-78,-58
-9,4,14,2,-12,9,4,-19,-34,-68,-78,-68
-19,4,24,7,-21,14,4,-14,-34,-63,-73,-53
-9,9,19,0,-14,14,9,-14,-34,-63,-63,-53
-9,9,19,0,-14,14,9,-14,-34,-63,-73,-63
-14,0,14,7,-14,7,0,-4,-43,-73,-87,-68
-14,4,19,4,-17,12,-4,-9,-43,-82,-87,-68
-4,4,9,0,-7,7,-4,-9,-48,-82,-87,-63
-14,-4,9,9,-12,2,-4,-9,-48,-78,-82,-63
-19,-4,14,12,-17,4,-4,-9,-48,-78,-82,-73
-19,4,24,7,-21,14,-4,-14,-48,-78,-92,-63
-14,14,29,0,-21,21,-4,-14,-48,-78,-92,-63
-9,14,24,-2,-17,19,-9,-14,-48,-78,-92,-63
0,14,14,-7,-7,14,-19,-9,-48,-78,-92,-63
-4,14,19,-4,-12,17,-14,-9,-48,-78,-92,-63
-4,4,9,0,-7,7,-14,-14,-48,-82,-92,-73
-4,4,9,0,-7,7,-14,-14,-48,-87,-92,-78
-19,0,19,9,-19,9,-9,-9,-43,-78,-87,-68
-19,0,19,9,-19,9,-4,-9,-48,-78,-82,-68
-14,-4,9,9,-12,2,0,-9,-53,-87,-82,-68
-14,-9,4,12,-9,-2,4,-14,-53,-87,-78,-58
-14,0,14,7,-14,7,4,-14,-53,-78,-78,-82
-14,0,14,7,-14,7,9,-14,-53,-78,-78,-73
-14,0,14,7,-14,7,9,-9,-53,-78,-78,-73
-14,4,19,4,-17,12,9,-9,-53,-82,-78,-78
-4,14,19,-4,-12,17,4,-14,-63,-92,-87,-78
-9,9,19,0,-14,14,0,-19,-63,-92,-87,-78
-9,0,9,4,-9,4,-4,-24,-63,-92,-87,-78
-4,14,19,-4,-12,17,-9,-29,-63,-92,-87,-73
-14,9,24,2,-19,17,4,-19,-53,-82,-78,-73
-14,-9,4,12,-9,-2,4,-19,-53,-82,-78,-73
-14,-24,-9,19,-2,-17,0,-19,-53,-82,-78,-73
-14,-19,-4,17,-4,-12,0,-19,-58,-82,-78,-73
-4,-4,0,4,-2,-2,0,-19,-58,-92,-82,-73
-4,0,4,2,-4,2,0,-24,-63,-92,-82,-73
0,0,0,0,0,0,0,-24,-63,-92,-82,-68
0,-4,-4,2,2,-4,0,-29,-63,-97,-87,-68
-4,-14,-9,9,2,-12,0,-19,-53,-87,-87,-73
-4,-9,-4,7,0,-7,-4,-19,-53,-87,-87,-78
-4,-9,-4,7,0,-7,-4,-19,-53,-92,-92,-78
-14,-14,0,14,-7,-7,0,-19,-53,-92,-97,-78
-14,-9,4,12,-9,-2,0,-29,-63,-92,-87,-78
-9,-9,0,9,-4,-4,0,-29,-63,-92,-87,-82
-9,-4,4,7,-7,0,0,-29,-63,-92,-87,-82
-9,0,9,4,-9,4,0,-29,-68,-92,-92,-78
-9,0,9,4,-9,4,-9,-19,-68,-97,-82,-68
-4,-4,0,4,-2,-2,-9,-19,-68,-97,-78,-68
0,-9,-9,4,4,-9,-9,-19,-68,-97,-78,-68
0,-14,-14,7,7,-14,-9,-19,-68,-97,-73,-68
-9,-14,-4,12,-2,-9,0,-19,-58,-87,-73,-78
-14,-14,0,14,-7,-7,0,-19,-58,-92,-82,-82
-14,-14,0,14,-7,-7,0,-29,-58,-92,-87,-82
-19,-19,0,19,-9,-9,0,-19,-58,-97,-92,-73
-19,-29,-9,24,-4,-19,9,-19,-58,-97,-82,-63
-9,-29,-19,19,4,-24,9,-24,-58,-97,-82,-73
-4,-29,-24,17,9,-26,9,-24,-58,-97,-78,-73
-4,-24,-19,14,7,-21,4,-24,-58,-97,-78,-73
-19,-29,-9,24,-4,-19,4,-24,-58,-97,-78,-63
-19,-29,-9,24,-4,-19,9,-24,-58,-92,-78,-73
-19,-34,-14,26,-2,-24,9,-19,-53,-92,-78,-73
-19,-34,-14,26,-2,-24,9,-19,-53,-87,-78,-68
-19,-34,-14,26,-2,-24,4,-19,-63,-97,-78,-63
-19,-34,-14,26,-2,-24,4,-19,-63,-102,-82,-63
-14,-34,-19,24,2,-26,0,-19,-68,-107,-82,-63
-9,-34,-24,21,7,-29,-9,-19,-73,-112,-87,-63
-9,-34,-24,21,7,-29,-9,-29,-68,-107,-92,-73
-9,-34,-24,21,7,-29,-4,-24,-68,-107,-92,-73
-9,-29,-19,19,4,-24,-4,-24,-68,-107,-92,-73
-9,-24,-14,17,2,-19,-4,-24,-68,-107,-102,-73
-9,-24,-14,17,2,-19,-9,-29,-78,-107,-92,-87
-14,-14,0,14,-7,-7,-9,-29,-78,-107,-92,-92
-19,-9,9,14,-14,0,-9,-29,-78,-107,-92,-102
-19,-9,9,14,-14,0,-9,-29,-78,-107,-92,-87
0,-9,-9,4,4,-9,0,-29,-78,-102,-92,-78
0,-9,-9,4,4,-9,0,-29,-78,-102,-92,-78
-9,-9,0,9,-4,-4,0,-24,-78,-87,-82,-73
-9,-19,-9,14,0,-14,4,-24,-68,-87,-73,-68
-4,-29,-24,17,9,-26,-4,-24,-68,-102,-73,-58
0,-29,-29,14,14,-29,-4,-24,-68,-107,-87,-63
0,-14,-14,7,7,-14,-9,-24,-68,-112,-87,-68
0,-14,-14,7,7,-14,-9,-29,-68,-117,-92,-73
-9,-24,-14,17,2,-19,-9,-29,-73,-107,-82,-73
-9,-19,-9,14,0,-14,-9,-29,-73,-107,-82,-73
-9,-19,-9,14,0,-14,-4,-29,-68,-102,-82,-63
-9,-29,-19,19,4,-24,-4,-34,-68,-102,-82,-73
-19,-48,-29,34,4,-39,0,-34,-73,-102,-92,-82
-24,-24,0,24,-12,-12,4,-34,-73,-97,-92,-73
-14,-4,9,9,-12,2,-4,-34,-73,-97,-92,-82
-4,-4,0,4,-2,-2,0,-39,-73,-102,-92,-82
0,-9,-9,4,4,-9,0,-39,-78,-97,-87,-68
0,-14,-14,7,7,-14,-9,-29,-78,-107,-97,-78
0,-19,-19,9,9,-19,-9,-29,-78,-107,-97,-78
0,-24,-24,12,12,-24,-9,-29,-78,-107,-97,-78
0,-29,-29,14,14,-29,-9,-29,-78,-107,-97,-78
-4,-29,-24,17,9,-26,0,-29,-68,-107,-97,-87
-9,-29,-19,19,4,-24,0,-29,-68,-107,-97,-87
-14,-29,-14,21,0,-21,0,-29,-68,-107,-97,-87
-19,-29,-9,24,-4,-19,0,-29,-68,-107,-97,-87
-19,-19,0,19,-9,-9,0,-29,-68,-97,-97,-82
-14,-24,-9,19,-2,-17,0,-29,-68,-97,-97,-78
-14,-29,-14,21,0,-21,-4,-29,-68,-97,-92,-73
-19,-29,-9,24,-4,-19,-4,-29,-68,-87,-87,-68
-14,-24,-9,19,-2,-17,9,-19,-68,-97,-87,-63
-9,-24,-14,17,2,-19,9,-19,-68,-102,-87,-58
-4,-29,-24,17,9,-26,9,-19,-68,-102,-87,-58
0,-29,-29,14,14,-29,9,-14,-68,-102,-92,-63
-4,-19,-14,12,4,-17,0,-24,-68,-102,-92,-73
-9,-14,-4,12,-2,-9,0,-24,-68,-102,-92,-73
-14,0,14,7,-14,7,4,-19,-63,-102,-87,-73
-19,14,34,2,-26,24,4,-19,-58,-92,-87,-73
-19,14,34,2,-26,24,24,-19,-53,-82,-73,-58
-24,9,34,7,-29,21,29,-14,-48,-82,-73,-48
-24,14,39,4,-31,26,34,-4,-48,-78,-73,-48
-24,24,48,0,-36,36,34,-4,-43,-78,-73,-48
-9,34,43,-12,-26,39,34,4,-43,-78,-73,-48
-9,39,48,-14,-29,43,39,14,-43,-73,-73,-48
-9,43,53,-17,-31,48,48,14,-34,-68,-63,-48
-14,53,68,-19,-41,61,48,24,-29,-63,-63,-48
-24,58,82,-17,-53,70,43,14,-34,-58,-63,-43
-19,68,87,-24,-53,78,39,14,-34,-58,-63,-43
-14,78,92,-31,-53,85,34,14,-29,-58,-63,-34
-14,87,102,-36,-58,95,19,9,-29,-58,-63,-34
-19,102,122,-41,-70,112,19,-4,-34,-63,-53,-43
-19,102,122,-41,-70,112,14,-19,-39,-63,-48,-43
-14,102,117,-43,-65,109,4,-24,-39,-58,-43,-39
-14,112,126,-48,-70,119,-9,-39,-43,-58,-43,-39
0,112,112,-56,-56,112,-19,-53,-48,-73,-48,-39
0,107,107,-53,-53,107,-19,-58,-53,-73,-53,-39
9,92,82,-51,-36,87,-29,-63,-58,-73,-58,-39
14,87,73,-51,-29,80,-39,-68,-58,-73,-63,-43
9,82,73,-46,-31,78,-39,-68,-68,-63,-53,-34
9,82,73,-46,-31,78,-39,-63,-73,-63,-58,-29
4,73,68,-39,-31,70,-34,-63,-73,-68,-58,-24
4,58,53,-31,-24,56,-34,-63,-73,-68,-58,-24
29,63,34,-46,-2,48,-43,-73,-63,-68,-58,-39
34,53,19,-43,7,36,-39,-68,-63,-68,-58,-24
34,53,19,-43,7,36,-39,-68,-63,-68,-58,-24
34,53,19,-43,7,36,-43,-68,-63,-68,-58,-24
48,43,-4,-46,26,19,-43,-63,-63,-78,-58,-24
39,39,0,-39,19,19,-48,-58,-53,-73,-58,-14
39,29,-9,-34,24,9,-48,-48,-48,-68,-53,-14
34,14,-19,-24,26,-2,-48,-48,-48,-68,-53,-19
19,19,0,-19,9,9,-48,-39,-53,-68,-58,-34
14,14,0,-14,7,7,-39,-39,-53,-73,-68,-34
4,-4,-9,0,7,-7,-29,-39,-58,-78,-73,-43
-9,-9,0,9,-4,-4,-29,-39,-63,-87,-78,-48
-9,-14,-4,12,-2,-9,-29,-39,-68,-97,-82,-58
-9,-24,-14,17,2,-19,-19,-43,-73,-97,-87,-58
-9,-24,-14,17,2,-19,-14,-43,-73,-97,-87,-58
-9,-34,-24,21,7,-29,-14,-39,-78,-107,-97,-58
-19,-39,-19,29,0,-29,-9,-39,-87,-102,-87,-68
-24,-43,-19,34,-2,-31,-9,-39,-87,-107,-87,-73
-24,-48,-24,36,0,-36,-4,-39,-87,-107,-87,-73
-24,-68,-43,46,9,-56,-4,-39,-87,-107,-87,-73
-24,-63,-39,43,7,-51,-9,-48,-87,-112,-102,-78
-29,-63,-34,46,2,-48,-9,-48,-97,-112,-107,-78
-29,-58,-29,43,0,-43,-9,-48,-102,-112,-112,-78
-19,-58,-39,39,9,-48,-14,-53,-102,-122,-117,-87
-9,-73,-63,41,26,-68,-14,-53,-102,-131,-122,-102
-19,-73,-53,46,17,-63,-9,-53,-102,-126,-122,-102
-29,-73,-43,51,7,-58,-9,-48,-102,-126,-122,-102
-29,-82,-53,56,12,-68,-9,-48,-102,-136,-122,-102
-39,-78,-39,58,0,-58,4,-39,-92,-126,-117,-97
-34,-82,-48,58,7,-65,4,-39,-92,-126,-117,-97
-34,-87,-53,61,9,-70,4,-39,-92,-126,-117,-97
-34,-97,-63,65,14,-80,4,-39,-97,-126,-117,-92
-29,-97,-68,63,19,-82,4,-39,-97,-131,-117,-102
-29,-97,-68,63,19,-82,4,-39,-97,-131,-117,-102
-29,-97,-68,63,19,-82,4,-39,-97,-131,-117,-102
-29,-97,-68,63,19,-82,4,-39,-97,-126,-112,-102
-34,-87,-53,61,9,-70,4,-43,-92,-126,-112,-112
-34,-92,-58,63,12,-75,9,-43,-92,-126,-112,-117
-29,-92,-63,61,17,-78,9,-43,-97,-126,-112,-117
-29,-92,-63,61,17,-78,9,-43,-97,-126,-112,-112
-29,-87,-58,58,14,-73,4,-34,-92,-126,-117,-92
-29,-92,-63,61,17,-78,9,-34,-92,-126,-117,-92
-24,-87,-63,56,19,-75,9,-29,-92,-126,-117,-92
-19,-78,-58,48,19,-68,4,-29,-92,-126,-117,-92
-24,-82,-58,53,17,-70,4,-29,-92,-117,-117,-87
-29,-87,-58,58,14,-73,0,-29,-102,-117,-112,-102
-34,-92,-58,63,12,-75,0,-24,-92,-112,-107,-102
-39,-97,-58,68,9,-78,0,-24,-92,-112,-102,-87
0,-87,-87,43,43,-87,9,-19,-87,-117,-107,-73
4,-102,-107,48,56,-104,0,-39,-97,-126,-117,-102
-19,-102,-82,61,31,-92,19,-19,-68,-112,-107,-112
-14,-102,-87,58,36,-95,29,24,-24,-78,-82,-78
14,-126,-141,56,78,-134,34,63,34,-39,-53,-43
39,-126,-165,43,102,-146,39,102,97,53,0,-19
48,-92,-141,21,95,-117,48,151,200,165,92,53
68,-29,-97,-19,82,-63,39,165,287,287,195,136
73,82,9,-78,31,46,9,107,312,390,326,253
73,200,126,-136,-26,163,-29,9,302,536,488,366
112,336,224,-224,-56,280,-82,-87,322,712,673,497
170,453,283,-312,-56,368,-141,-200,336,897,873,653
190,522,331,-356,-70,427,-204,-302,336,1054,1058,824
204,590,385,-397,-90,488,-263,-434,297,1171,1190,932
229,673,444,-451,-107,558,-307,-551,239,1254,1278,1010
239,732,492,-485,-126,612,-331,-639,180,1302,1356,1073
219,741,522,-480,-151,631,-361,-717,112,1307,1381,1117
204,751,546,-478,-170,649,-424,-814,14,1268,1356,1107
190,761,570,-475,-190,666,-507,-941,-122,1180,1278,1019
170,741,570,-456,-200,656,-585,-1044,-283,971,1093,849
102,629,527,-366,-212,578,-619,-1112,-458,649,785,639
29,492,463,-261,-217,478,-624,-1151,-634,292,409,366
-34,380,414,-173,-224,397,-595,-1166,-775,-107,9,73
-87,297,385,-104,-236,341,-561,-1137,-917,-444,-292,-156
-126,234,361,-53,-244,297,-541,-1112,-995,-610,-409,-219
-117,175,292,-29,-204,234,-531,-1044,-961,-600,-409,-219
-97,122,219,-12,-158,170,-497,-932,-873,-575,-405,-253
-97,92,190,2,-143,141,-448,-829,-810,-546,-390,-263
-97,97,195,0,-146,146,-390,-722,-722,-492,-361,-224
-78,78,156,0,-117,117,-312,-590,-595,-439,-336,-204
-82,39,122,21,-102,80,-248,-468,-488,-375,-317,-214
-92,24,117,34,-104,70,-204,-395,-405,-336,-292,-200
-68,19,87,24,-78,53,-161,-307,-341,-292,-263,-175
-58,4,63,26,-61,34,-117,-224,-263,-248,-224,-131
-58,-9,48,34,-53,19,-87,-185,-229,-219,-200,-131
-48,9,58,19,-53,34,-73,-165,-214,-200,-180,-156
-58,9,68,24,-63,39,-43,-131,-190,-180,-161,-131
-63,-24,39,43,-51,7,-14,-87,-146,-156,-136,-92
-39,-48,-9,43,-14,-29,-14,-73,-136,-151,-136,-107
-9,-53,-43,31,17,-48,-9,-48,-122,-141,-146,-126
-9,-58,-48,34,19,-53,-4,-39,-97,-131,-141,-126
-19,-63,-43,41,12,-53,4,-24,-78,-126,-122,-97
-29,-63,-34,46,2,-48,14,-19,-78,-122,-112,-92
-29,-68,-39,48,4,-53,14,-9,-68,-117,-107,-92
-29,-68,-39,48,4,-53,24,0,-68,-112,-97,-82
-29,-68,-39,48,4,-53,29,4,-73,-112,-97,-73
-29,-73,-43,51,7,-58,39,0,-68,-102,-107,-73
-14,-73,-58,43,21,-65,39,4,-63,-102,-107,-82
-14,-82,-68,48,26,-75,43,4,-48,-102,-107,-82
-14,-82,-68,48,26,-75,43,9,-34,-92,-102,-78
-14,-78,-63,46,24,-70,39,14,-29,-102,-112,-82
-14,-78,-63,46,24,-70,39,14,-34,-102,-112,-82
-4,-73,-68,39,31,-70,39,14,-43,-102,-112,-82
0,-58,-58,29,29,-58,39,24,-48,-97,-107,-82
-9,-58,-48,34,19,-53,53,24,-39,-97,-97,-78
-14,-58,-43,36,14,-51,53,24,-34,-97,-97,-78
-14,-58,-43,36,14,-51,53,24,-34,-97,-97,-78
-14,-63,-48,39,17,-56,53,29,-29,-92,-92,-73
-14,-63,-48,39,17,-56,43,29,-34,-97,-92,-68
-9,-58,-48,34,19,-53,43,29,-34,-97,-97,-68
-9,-48,-39,29,14,-43,48,29,-34,-97,-102,-73
-9,-63,-53,36,21,-58,48,29,-34,-92,-107,-73
-19,-73,-53,46,17,-63,58,43,-29,-87,-82,-63
-19,-73,-53,46,17,-63,58,43,-14,-82,-78,-58
-19,-68,-48,43,14,-58,63,43,-19,-78,-78,-63
-19,-68,-48,43,14,-58,63,43,-14,-73,-82,-58
-9,-63,-53,36,21,-58,53,43,-19,-82,-78,-63
-9,-63,-53,36,21,-58,53,43,-14,-78,-78,-68
-9,-68,-58,39,24,-63,53,48,-14,-78,-78,-78
-9,-68,-58,39,24,-63,53,48,-14,-78,-82,-82
-19,-58,-39,39,9,-48,53,43,-9,-78,-73,-68
-19,-58,-39,39,9,-48,53,43,-9,-78,-73,-68
-19,-53,-34,36,7,-43,53,43,-9,-78,-73,-68
-19,-53,-34,36,7,-43,53,43,-9,-73,-73,-68
-19,-63,-43,41,12,-53,58,53,-9,-63,-73,-68
-19,-63,-43,41,12,-53,58,53,-9,-63,-73,-63
-14,-63,-48,39,17,-56,58,53,-4,-63,-73,-63
-14,-58,-43,36,14,-51,53,53,-4,-63,-68,-63
-19,-63,-43,41,12,-53,58,48,-4,-63,-58,-58
-19,-58,-39,39,9,-48,58,48,-4,-63,-58,-53
-24,-73,-48,48,12,-61,58,58,0,-58,-58,-48
-24,-87,-63,56,19,-75,58,58,0,-58,-58,-48
-19,-82,-63,51,21,-73,53,48,-9,-68,-63,-63
-9,-73,-63,41,26,-68,48,48,-9,-63,-68,-53
-4,-68,-63,36,29,-65,48,53,-4,-63,-68,-58
-9,-68,-58,39,24,-63,43,53,-4,-58,-63,-63
-19,-68,-48,43,14,-58,43,58,4,-48,-58,-63
-14,-68,-53,41,19,-61,48,58,9,-48,-63,-58
-14,-63,-48,39,17,-56,53,63,14,-48,-58,-48
-14,-63,-48,39,17,-56,58,63,14,-48,-48,-43
-4,-63,-58,34,26,-61,48,58,14,-48,-48,-43
-4,-63,-58,34,26,-61,48,58,14,-48,-48,-43
-24,-63,-39,43,7,-51,48,63,14,-43,-48,-48
-24,-63,-39,43,7,-51,48,63,14,-43,-48,-53
-19,-53,-34,36,7,-43,48,73,24,-43,-43,-53
-19,-53,-34,36,7,-43,53,78,24,-39,-43,-43
-14,-53,-39,34,12,-46,58,78,29,-39,-43,-39
-14,-53,-39,34,12,-46,58,78,29,-39,-43,-39
-24,-63,-39,43,7,-51,39,78,29,-29,-43,-34
-19,-58,-39,39,9,-48,39,78,34,-29,-43,-34
-19,-58,-39,39,9,-48,48,87,34,-29,-39,-34
-19,-58,-39,39,9,-48,48,87,34,-24,-39,-34
-9,-58,-48,34,19,-53,43,82,48,-29,-34,-39
-9,-58,-48,34,19,-53,43,87,48,-24,-34,-39
-9,-58,-48,34,19,-53,43,87,48,-24,-34,-43
-9,-58,-48,34,19,-53,34,87,48,-24,-39,-58
-14,-43,-29,29,7,-36,43,87,48,-24,-39,-43
-14,-39,-24,26,4,-31,39,87,53,-14,-29,-24
-9,-39,-29,24,9,-34,39,87,58,-14,-29,-19
-9,-34,-24,21,7,-29,39,97,63,-9,-24,-14
-19,-43,-24,31,2,-34,39,97,68,-4,-14,-24
-19,-43,-24,31,2,-34,43,102,73,0,-14,-19
-19,-39,-19,29,0,-29,43,102,78,0,-14,-9
-19,-34,-14,26,-2,-24,39,112,78,4,-9,-9
-14,-39,-24,26,4,-31,29,112,82,4,-9,0
0,-29,-29,14,14,-29,29,117,87,4,-9,4
4,-24,-29,9,17,-26,29,122,97,14,-9,9
9,-19,-29,4,19,-24,29,126,97,24,0,24
0,-19,-19,9,9,-19,29,126,97,29,4,19
0,-29,-29,14,14,-29,29,136,112,34,14,14
0,-29,-29,14,14,-29,29,141,122,39,24,9
9,-19,-29,4,19,-24,29,141,122,43,24,0
14,-14,-29,0,21,-21,29,151,136,58,39,14
19,-9,-29,-4,24,-19,39,156,141,63,43,19
24,-4,-29,-9,26,-17,39,156,146,78,48,34
29,0,-29,-14,29,-14,39,161,156,78,53,48
19,4,-14,-12,17,-4,39,156,161,82,58,39
19,19,0,-19,9,9,29,165,175,87,63,39
19,19,0,-19,9,9,29,170,180,102,68,48
24,19,-4,-21,14,7,29,175,180,112,82,58
14,19,4,-17,4,12,19,185,195,122,87,63
29,19,-9,-24,19,4,14,185,209,136,102,63
29,29,0,-29,14,14,14,185,219,151,112,68
34,48,14,-41,9,31,14,200,229,161,112,78
43,39,-4,-41,24,17,14,214,244,165,112,82
43,43,0,-43,21,21,14,219,258,175,122,92
39,48,9,-43,14,29,14,224,268,190,141,102
39,58,19,-48,9,39,14,224,283,209,151,122
58,63,4,-61,26,34,4,219,283,214,165,117
63,73,9,-68,26,41,-4,224,292,229,180,117
63,82,19,-73,21,51,-4,229,307,244,195,126
63,92,29,-78,17,61,-4,229,322,258,200,151
68,107,39,-87,14,73,-9,234,341,283,229,170
68,126,58,-97,4,92,-9,244,351,297,244,185
78,141,63,-109,7,102,-14,253,366,307,248,190
82,151,68,-117,7,109,-14,263,380,312,268,204
82,151,68,-117,7,109,-14,253,380,341,278,214
92,161,68,-126,12,114,-19,253,390,356,283,224
92,161,68,-126,12,114,-19,258,395,361,287,229
97,156,58,-126,19,107,-19,263,409,375,297,244
97,185,87,-141,4,136,-24,263,419,395,317,268
97,185,87,-141,4,136,-24,258,424,405,326,268
102,185,82,-143,9,134,-24,258,424,414,331,268
102,200,97,-151,2,148,-24,258,424,424,351,283
112,204,92,-158,9,148,-39,258,419,429,346,283
112,214,102,-163,4,158,-43,258,424,429,361,287
117,219,102,-168,7,161,-43,258,424,429,361,287
122,224,102,-173,9,163,-43,258,429,424,366,292
122,234,112,-178,4,173,-48,244,429,434,356,292
122,239,117,-180,2,178,-53,239,429,434,361,292
122,239,117,-180,2,178,-58,234,424,439,361,297
122,244,122,-183,0,183,-58,229,424,439,361,297
117,244,126,-180,-4,185,-53,239,424,429,370,307
107,244,136,-175,-14,190,-58,234,424,429,370,307
102,244,141,-173,-19,192,-58,224,414,429,366,297
92,244,151,-168,-29,197,-58,224,405,429,366,297
97,234,136,-165,-19,185,-53,214,395,409,356,287
97,244,146,-170,-24,195,-53,209,380,405,356,278
92,244,151,-168,-29,197,-53,200,370,390,346,268
92,239,146,-165,-26,192,-48,195,366,380,336,268
82,224,141,-153,-29,183,-48,185,356,370,331,268
82,219,136,-151,-26,178,-48,170,336,351,312,263
78,209,131,-143,-26,170,-43,165,322,336,297,239
73,204,131,-139,-29,168,-39,156,302,322,283,224
68,195,126,-131,-29,161,-39,146,283,297,258,219
58,185,126,-122,-34,156,-29,146,268,278,244,209
58,165,107,-112,-24,136,-19,141,248,258,234,195
48,161,112,-104,-31,136,-19,126,239,239,214,175
53,146,92,-100,-19,119,-29,126,224,224,190,161
48,126,78,-87,-14,102,-24,117,209,200,175,141
48,117,68,-82,-9,92,-19,112,200,180,156,126
43,97,53,-70,-4,75,-19,102,175,161,146,117
24,87,63,-56,-19,75,-9,92,156,141,131,107
19,82,63,-51,-21,73,-9,78,141,122,122,102
19,82,63,-51,-21,73,-9,68,117,112,107,97
19,73,53,-46,-17,63,-9,53,97,92,92,73
29,58,29,-43,0,43,-9,48,92,87,78,53
19,48,29,-34,-4,39,-4,39,78,78,68,43
19,43,24,-31,-2,34,-4,34,63,58,53,39
9,29,19,-19,-4,24,-4,29,48,39,39,14
-14,24,39,-4,-26,31,9,24,39,34,24,19
-4,19,24,-7,-14,21,9,19,24,19,14,19
4,19,14,-12,-4,17,4,9,14,4,4,4
-4,4,9,0,-7,7,4,4,4,0,0,-9
-4,0,4,2,-4,2,0,0,0,0,-9,-24
-9,-9,0,9,-4,-4,4,-4,-4,-14,-19,-24
-9,-19,-9,14,0,-14,0,-4,-14,-24,-24,-24
-9,-19,-9,14,0,-14,-9,-14,-19,-29,-34,-39
-19,-14,4,17,-12,-4,-4,-9,-29,-29,-39,-34
-19,-19,0,19,-9,-9,0,-9,-29,-29,-39,-34
-19,-19,0,19,-9,-9,4,-14,-39,-39,-39,-34
-19,-19,0,19,-9,-9,9,-19,-48,-48,-48,-53
-9,-34,-24,21,7,-29,4,-24,-48,-48,-48,-43
-9,-34,-24,21,7,-29,4,-24,-53,-53,-48,-39
-19,-39,-19,29,0,-29,0,-24,-53,-63,-48,-39
-19,-48,-29,34,4,-39,0,-29,-58,-63,-48,-39
-24,-58,-34,41,4,-46,0,-29,-63,-68,-53,-34
-24,-63,-39,43,7,-51,0,-29,-68,-68,-58,-34
-19,-68,-48,43,14,-58,4,-34,-68,-78,-63,-34
-19,-73,-53,46,17,-63,4,-34,-73,-82,-68,-43
-24,-63,-39,43,7,-51,0,-39,-82,-82,-68,-48
-24,-63,-39,43,7,-51,-4,-43,-82,-82,-73,-53
-24,-68,-43,46,9,-56,-4,-43,-82,-87,-73,-58
-19,-78,-58,48,19,-68,-9,-48,-82,-92,-73,-63
-19,-58,-39,39,9,-48,-4,-39,-73,-82,-73,-58
-19,-58,-39,39,9,-48,0,-43,-73,-82,-68,-53
-24,-68,-43,46,9,-56,4,-43,-73,-82,-68,-43
-24,-73,-48,48,12,-61,9,-43,-78,-82,-68,-39
-24,-68,-43,46,9,-56,4,-53,-78,-92,-68,-63
-24,-58,-34,41,4,-46,0,-53,-82,-102,-78,-68
-24,-53,-29,39,2,-41,-4,-53,-82,-102,-82,-73
-24,-48,-24,36,0,-36,-9,-58,-87,-102,-87,-78
-24,-53,-29,39,2,-41,0,-58,-87,-107,-87,-68
-24,-58,-34,41,4,-46,0,-53,-87,-107,-82,-63
-29,-63,-34,46,2,-48,0,-48,-87,-107,-82,-58
-29,-73,-43,51,7,-58,0,-48,-87,-107,-87,-53
-29,-73,-43,51,7,-58,0,-48,-87,-97,-87,-73
-29,-78,-48,53,9,-63,0,-43,-82,-97,-87,-73
-34,-82,-48,58,7,-65,0,-34,-82,-97,-87,-73
-34,-87,-53,61,9,-70,0,-29,-82,-102,-87,-73
-34,-87,-53,61,9,-70,0,-39,-87,-122,-92,-73
-29,-82,-53,56,12,-68,4,-39,-87,-122,-92,-73
-29,-78,-48,53,9,-63,4,-34,-87,-122,-97,-73
-29,-78,-48,53,9,-63,9,-29,-87,-122,-97,-58
-39,-87,-48,63,4,-68,9,-19,-78,-112,-87,-68
-39,-82,-43,61,2,-63,9,-19,-78,-112,-87,-73
-48,-82,-34,65,-7,-58,4,-19,-78,-112,-92,-78
-39,-82,-43,61,2,-63,4,-24,-78,-112,-92,-78
-39,-68,-29,53,-4,-48,-4,-34,-82,-122,-102,-87
-48,-73,-24,61,-12,-48,-4,-29,-87,-122,-102,-87
-48,-68,-19,58,-14,-43,-4,-29,-92,-126,-102,-87
-39,-53,-14,46,-12,-34,-4,-29,-97,-126,-102,-82
-34,-53,-19,43,-7,-36,0,-19,-92,-117,-92,-73
-29,-63,-34,46,2,-48,9,-14,-82,-112,-92,-82
-24,-53,-29,39,2,-41,0,-14,-78,-112,-92,-82
-19,-53,-34,36,7,-43,0,-14,-68,-112,-87,-73
-24,-43,-19,34,-2,-31,9,-9,-68,-112,-87,-82
-24,-43,-19,34,-2,-31,14,-9,-68,-107,-92,-87
-19,-39,-19,29,0,-29,14,-9,-68,-107,-92,-87
-19,-39,-19,29,0,-29,9,-9,-68,-107,-92,-87
-29,-43,-14,36,-7,-29,19,-4,-63,-102,-82,-82
-29,-43,-14,36,-7,-29,24,-4,-58,-92,-68,-78
-29,-48,-19,39,-4,-34,24,4,-58,-82,-63,-73
-29,-58,-29,43,0,-43,29,9,-48,-78,-63,-48
-19,-63,-43,41,12,-53,29,19,-48,-78,-58,-39
-19,-63,-43,41,12,-53,29,19,-48,-78,-58,-48
-14,-68,-53,41,19,-61,24,14,-48,-73,-58,-48
-14,-68,-53,41,19,-61,24,14,-43,-68,-53,-43
-24,-63,-39,43,7,-51,19,9,-34,-78,-58,-34
-24,-58,-34,41,4,-46,19,9,-34,-78,-58,-53
-24,-48,-24,36,0,-36,14,14,-29,-73,-58,-58
-24,-43,-19,34,-2,-31,9,14,-29,-68,-58,-63
-24,-43,-19,34,-2,-31,0,19,-39,-58,-63,-48
-24,-39,-14,31,-4,-26,0,19,-29,-58,-63,-48
-19,-34,-14,26,-2,-24,4,19,-29,-48,-53,-43
-19,-24,-4,21,-7,-14,4,19,-19,-48,-53,-34
-9,-34,-24,21,7,-29,9,9,-19,-58,-53,-43
-9,-39,-29,24,9,-34,14,9,-19,-53,-48,-43
-9,-43,-34,26,12,-39,14,9,-19,-48,-43,-43
-9,-48,-39,29,14,-43,19,14,-19,-48,-39,-39
-19,-48,-29,34,4,-39,14,24,-4,-39,-39,-34
-19,-43,-24,31,2,-34,14,24,-4,-39,-39,-29
-14,-43,-29,29,7,-36,14,24,-4,-39,-43,-24
-4,-43,-39,24,17,-41,14,24,-4,-39,-43,-14
-24,-43,-19,34,-2,-31,14,24,-4,-39,-34,-29
-24,-43,-19,34,-2,-31,14,24,-4,-34,-34,-34
-24,-43,-19,34,-2,-31,19,24,0,-34,-34,-39
-29,-43,-14,36,-7,-29,19,29,0,-34,-34,-48
-24,-43,-19,34,-2,-31,14,24,-4,-34,-34,-43
-14,-43,-29,29,7,-36,14,24,-4,-34,-34,-34
-9,-43,-34,26,12,-39,14,19,-4,-29,-34,-29
-4,-43,-39,24,17,-41,14,9,-9,-29,-24,-24
-4,-39,-34,21,14,-36,19,14,-19,-39,-34,-34
0,-39,-39,19,19,-39,14,14,-19,-39,-34,-24
0,-39,-39,19,19,-39,14,14,-19,-34,-34,-24
0,-39,-39,19,19,-39,9,14,-19,-34,-39,-29
-14,-39,-24,26,4,-31,19,24,-9,-34,-29,-19
-24,-39,-14,31,-4,-26,19,19,-14,-39,-29,-19
-14,-39,-24,26,4,-31,19,19,-14,-39,-29,-19
0,-39,-39,19,19,-39,19,19,-14,-39,-29,-19
-9,-43,-34,26,12,-39,19,14,-24,-39,-39,-24
-19,-43,-24,31,2,-34,14,14,-24,-34,-34,-14
-9,-39,-29,24,9,-34,14,9,-24,-34,-24,-19
-9,-39,-29,24,9,-34,9,4,-24,-34,-34,-34
-14,-48,-34,31,9,-41,9,4,-24,-34,-39,-29
-14,-43,-29,29,7,-36,4,0,-24,-43,-39,-29
-4,-43,-39,24,17,-41,4,0,-29,-43,-39,-24
-14,-53,-39,34,12,-46,4,0,-29,-39,-34,-24
-19,-48,-29,34,4,-39,4,0,-39,-48,-34,-43
-19,-34,-14,26,-2,-24,4,-4,-39,-48,-43,-34
-14,-19,-4,17,-4,-12,4,-4,-39,-48,-43,-34
-9,-14,-4,12,-2,-9,0,-4,-39,-48,-43,-34
0,-29,-29,14,14,-29,9,0,-29,-39,-34,-24
-4,-34,-29,19,12,-31,14,0,-29,-39,-34,-24
-4,-48,-43,26,19,-46,14,-4,-29,-43,-34,-34
-4,-53,-48,29,21,-51,14,-4,-29,-48,-34,-39
-19,-58,-39,39,9,-48,14,0,-34,-39,-43,-29
-19,-58,-39,39,9,-48,14,0,-39,-39,-43,-29
-14,-63,-48,39,17,-56,14,0,-43,-48,-48,-29
-14,-68,-53,41,19,-61,14,-4,-43,-48,-48,-19
-4,-53,-48,29,21,-51,4,-14,-43,-43,-48,-39
-4,-48,-43,26,19,-46,9,-14,-43,-48,-48,-34
-4,-43,-39,24,17,-41,9,-9,-43,-53,-48,-39
-4,-34,-29,19,12,-31,9,-9,-43,-63,-48,-48
-14,-43,-29,29,7,-36,9,-9,-43,-53,-48,-39
-19,-48,-29,34,4,-39,9,-9,-43,-53,-48,-39
-19,-58,-39,39,9,-48,9,-9,-43,-53,-48,-39
-14,-43,-29,29,7,-36,9,-9,-43,-53,-48,-34
-9,-34,-24,21,7,-29,4,-19,-43,-63,-58,-43
-4,-48,-43,26,19,-46,4,-19,-43,-63,-58,-43
0,-58,-58,29,29,-58,0,-19,-43,-63,-58,-43
4,-48,-53,21,29,-51,0,-19,-48,-63,-58,-43
-4,-53,-48,29,21,-51,0,-9,-48,-63,-53,-43
-4,-48,-43,26,19,-46,0,-14,-53,-63,-53,-43
0,-48,-48,24,24,-48,0,-14,-53,-63,-53,-39
0,-53,-53,26,26,-53,0,-19,-53,-68,-58,-39
-14,-58,-43,36,14,-51,9,-9,-53,-58,-58,-53
-14,-58,-43,36,14,-51,4,-9,-53,-58,-58,-58
-14,-63,-48,39,17,-56,4,-9,-53,-63,-63,-58
-24,-73,-48,48,12,-61,9,-9,-53,-63,-68,-58
-24,-73,-48,48,12,-61,9,-9,-53,-63,-63,-53
-19,-68,-48,43,14,-58,9,-9,-53,-63,-58,-53
-19,-58,-39,39,9,-48,9,-9,-53,-63,-53,-48
-19,-48,-29,34,4,-39,9,-9,-58,-63,-53,-39
-19,-58,-39,39,9,-48,0,-9,-48,-68,-63,-48
-14,-63,-48,39,17,-56,0,-9,-48,-68,-58,-48
-9,-68,-58,39,24,-63,0,-9,-48,-68,-58,-48
-9,-73,-63,41,26,-68,0,-9,-48,-68,-53,-48
-19,-63,-43,41,12,-53,0,-9,-48,-58,-53,-48
-24,-63,-39,43,7,-51,0,-9,-48,-63,-63,-53
-24,-63,-39,43,7,-51,0,-19,-48,-63,-68,-53
-29,-68,-39,48,4,-53,0,-9,-48,-68,-73,-43
-29,-58,-29,43,0,-43,9,-9,-58,-68,-63,-34
-19,-58,-39,39,9,-48,9,-14,-58,-68,-63,-43
-14,-58,-43,36,14,-51,9,-14,-58,-68,-58,-43
-14,-53,-39,34,12,-46,4,-14,-58,-68,-58,-43
-19,-58,-39,39,9,-48,4,-24,-58,-68,-58,-53
-19,-58,-39,39,9,-48,9,-24,-58,-63,-58,-63
-19,-63,-43,41,12,-53,9,-19,-53,-63,-58,-63
-19,-63,-43,41,12,-53,9,-19,-53,-58,-58,-58
-19,-63,-43,41,12,-53,4,-19,-53,-58,-53,-43
-19,-63,-43,41,12,-53,4,-19,-53,-63,-53,-43
-14,-63,-48,39,17,-56,0,-19,-58,-68,-48,-43
-9,-63,-53,36,21,-58,-9,-19,-63,-73,-48,-43
-19,-63,-43,41,12,-53,0,-19,-68,-78,-63,-53
-19,-63,-43,41,12,-53,4,-14,-68,-78,-63,-53
-19,-58,-39,39,9,-48,4,-14,-68,-78,-63,-53
-19,-53,-34,36,7,-43,4,-14,-68,-78,-73,-53
-9,-58,-48,34,19,-53,9,-19,-58,-68,-63,-53
-14,-53,-39,34,12,-46,9,-19,-58,-68,-63,-53
-19,-53,-34,36,7,-43,9,-19,-58,-68,-63,-58
-19,-58,-39,39,9,-48,9,-19,-58,-68,-63,-39
-19,-58,-39,39,9,-48,0,-19,-58,-73,-73,-39
-19,-58,-39,39,9,-48,0,-19,-58,-73,-73,-39
-29,-58,-29,43,0,-43,0,-14,-58,-58,-63,-34
-29,-68,-39,48,4,-53,4,-14,-48,-58,-53,-29
-24,-73,-48,48,12,-61,4,-14,-58,-73,-63,-34
-19,-68,-48,43,14,-58,4,-14,-58,-78,-78,-43
-19,-48,-29,34,4,-39,0,-14,-58,-82,-78,-53
-19,-43,-24,31,2,-34,0,-19,-58,-87,-82,-63
0,-53,-53,26,26,-53,-9,-19,-73,-87,-82,-43
0,-58,-58,29,29,-58,-9,-19,-73,-78,-73,-53
0,-58,-58,29,29,-58,14,-9,-58,-73,-53,-53
-9,-58,-48,34,19,-53,19,-9,-58,-68,-48,-39
-9,-58,-48,34,19,-53,9,-19,-58,-78,-53,-43
-9,-58,-48,34,19,-53,9,-19,-58,-78,-58,-48
-9,-58,-48,34,19,-53,9,-19,-58,-78,-63,-53
-9,-58,-48,34,19,-53,9,-19,-58,-78,-68,-58
-14,-73,-58,43,21,-65,19,-9,-48,-78,-68,-53
-14,-78,-63,46,24,-70,14,-9,-48,-78,-63,-48
-19,-78,-58,48,19,-68,14,-9,-48,-68,-58,-43
-19,-73,-53,46,17,-63,19,-9,-48,-68,-58,-34
-9,-63,-53,36,21,-58,9,-19,-48,-73,-58,-43
-9,-68,-58,39,24,-63,9,-19,-48,-73,-58,-48
-9,-68,-58,39,24,-63,9,-14,-48,-73,-63,-58
-9,-68,-58,39,24,-63,9,-14,-48,-73,-63,-63
-9,-63,-53,36,21,-58,9,-14,-58,-73,-63,-48
-9,-48,-39,29,14,-43,14,-9,-53,-73,-58,-43
-9,-34,-24,21,7,-29,14,-9,-48,-63,-58,-39
-9,-29,-19,19,4,-24,24,-9,-43,-63,-43,-29
-14,-39,-24,26,4,-31,39,4,-39,-53,-34,-24
-14,-29,-14,21,0,-21,43,14,-39,-48,-34,-29
-14,-14,0,14,-7,-7,43,14,-34,-48,-34,-34
-9,-4,4,7,-7,0,43,14,-34,-48,-34,-39
-9,0,9,4,-9,4,39,14,-34,-53,-43,-34
-9,4,14,2,-12,9,48,14,-24,-48,-34,-29
-14,14,29,0,-21,21,48,24,-19,-43,-34,-24
-14,14,29,0,-21,21,48,24,-14,-39,-34,-14
-9,24,34,-7,-21,29,48,24,-14,-29,-24,-19
-4,34,39,-14,-21,36,48,24,-9,-29,-24,-14
-4,43,48,-19,-26,46,39,19,-9,-29,-24,-19
-9,63,73,-26,-41,68,29,4,-24,-34,-24,-24
-9,63,73,-26,-41,68,34,0,-29,-34,-29,-19
-4,63,68,-29,-36,65,24,-4,-29,-29,-24,-9
-4,73,78,-34,-41,75,9,-19,-34,-29,-24,-4
0,87,87,-43,-43,87,-9,-34,-39,-34,-24,0
-9,78,87,-34,-48,82,-19,-48,-43,-34,-24,-9
0,68,68,-34,-34,68,-29,-53,-48,-34,-24,-9
4,68,63,-36,-29,65,-39,-58,-48,-34,-24,-14
9,63,53,-36,-21,58,-39,-58,-48,-34,-24,-14
14,63,48,-39,-17,56,-39,-53,-53,-43,-29,-19
14,53,39,-34,-12,46,-34,-53,-53,-48,-29,-14
19,39,19,-29,0,29,-34,-53,-53,-48,-29,-14
39,39,0,-39,19,19,-34,-53,-53,-48,-29,-29
34,24,-9,-29,21,7,-39,-48,-53,-39,-29,-4
34,19,-14,-26,24,2,-39,-48,-53,-39,-29,-4
34,14,-19,-24,26,-2,-43,-48,-53,-39,-29,-4
48,14,-34,-31,41,-9,-43,-43,-53,-39,-29,-14
39,9,-29,-24,34,-9,-43,-48,-43,-34,-29,-4
39,0,-39,-19,39,-19,-39,-39,-39,-29,-24,-4
34,-14,-48,-9,41,-31,-34,-39,-39,-29,-24,-9
29,-19,-48,-4,39,-34,-29,-39,-43,-39,-29,-14
34,-14,-48,-9,41,-31,-29,-29,-34,-53,-39,-4
24,-34,-58,4,41,-46,-19,-29,-39,-58,-43,-14
9,-39,-48,14,29,-43,-19,-29,-43,-68,-48,-19
0,-43,-43,21,21,-43,-19,-29,-48,-68,-53,-29
-4,-63,-58,34,26,-61,-19,-34,-63,-68,-58,-34
-9,-63,-53,36,21,-58,-14,-34,-63,-68,-58,-39
-14,-73,-58,43,21,-65,-14,-29,-68,-78,-68,-43
-19,-73,-53,46,17,-63,-19,-29,-68,-82,-68,-58
-24,-82,-58,53,17,-70,-14,-19,-68,-78,-68,-58
-24,-82,-58,53,17,-70,-4,-19,-68,-78,-68,-53
-24,-97,-73,61,24,-85,0,-19,-68,-78,-68,-48
-24,-107,-82,65,29,-95,9,-19,-68,-82,-73,-48
-19,-102,-82,61,31,-92,4,-24,-78,-92,-78,-63
-19,-102,-82,61,31,-92,0,-29,-82,-92,-82,-68
-9,-107,-97,58,43,-102,-9,-39,-82,-102,-87,-82
-9,-112,-102,61,46,-107,-14,-43,-82,-102,-92,-92
-29,-112,-82,70,26,-97,-4,-34,-82,-97,-92,-87
-39,-112,-73,75,17,-92,0,-29,-82,-97,-92,-82
-39,-122,-82,80,21,-102,4,-29,-82,-107,-92,-78
-39,-112,-73,75,17,-92,14,-29,-82,-107,-97,-78
-24,-117,-92,70,34,-104,4,-29,-82,-97,-97,-78
-24,-122,-97,73,36,-109,4,-29,-82,-97,-97,-78
-24,-131,-107,78,41,-119,4,-29,-87,-97,-97,-73
-19,-136,-117,78,48,-126,4,-29,-87,-102,-97,-73
-29,-126,-97,78,34,-112,4,-29,-87,-112,-97,-82
-29,-126,-97,78,34,-112,4,-29,-87,-112,-97,-82
-29,-126,-97,78,34,-112,4,-29,-87,-107,-92,-82
-34,-126,-92,80,29,-109,4,-24,-82,-107,-92,-82
-29,-122,-92,75,31,-107,9,-34,-82,-107,-92,-87
-19,-122,-102,70,41,-112,9,-34,-87,-107,-92,-87
-14,-122,-107,68,46,-114,9,-34,-87,-107,-92,-82
-19,-122,-102,70,41,-112,14,-34,-82,-107,-87,-73
-24,-141,-117,82,46,-129,19,-24,-82,-97,-87,-73
-24,-141,-117,82,46,-129,19,-19,-82,-97,-87,-73
-24,-136,-112,80,43,-124,14,-19,-82,-97,-87,-73
-29,-126,-97,78,34,-112,14,-29,-82,-97,-92,-78
-24,-136,-112,80,43,-124,9,-29,-92,-107,-92,-82
-19,-136,-117,78,48,-126,9,-24,-82,-102,-92,-82
-14,-136,-122,75,53,-129,9,-24,-82,-102,-92,-68
-9,-136,-126,73,58,-131,9,-19,-78,-97,-87,-53
-34,-141,-107,87,36,-124,19,-19,-78,-87,-78,-43
-29,-141,-112,85,41,-126,19,-9,-68,-82,-78,-63
4,-131,-136,63,70,-134,19,4,-53,-78,-73,-68
4,-136,-141,65,73,-139,14,24,-34,-68,-82,-63
9,-146,-156,68,82,-151,29,53,19,-34,-58,-39
29,-141,-170,56,100,-156,29,92,112,48,4,-14
29,-107,-136,39,82,-122,39,146,219,170,87,19
34,-53,-87,9,61,-70,48,185,302,283,190,117
63,24,-39,-43,51,-7,19,146,341,400,322,239
102,131,29,-117,36,80,-24,48,351,556,478,361
141,278,136,-209,2,207,-82,-73,375,732,668,507
170,414,244,-292,-36,329,-146,-185,385,927,863,678
185,492,307,-339,-61,400,-195,-297,405,1102,1054,844
200,575,375,-387,-87,475,-248,-405,385,1234,1210,961
209,673,463,-441,-126,568,-312,-551,317,1302,1307,1005
219,732,512,-475,-146,622,-351,-678,239,1346,1361,1058
214,751,536,-483,-161,644,-405,-785,161,1346,1385,1107
219,780,561,-500,-170,671,-497,-883,73,1327,1376,1117
219,790,570,-505,-175,680,-605,-995,-58,1254,1327,1073
180,736,556,-458,-187,646,-678,-1102,-224,1049,1146,932
107,639,531,-373,-212,585,-702,-1180,-419,712,839,697
34,527,492,-280,-229,509,-692,-1215,-590,351,468,434
-48,395,444,-173,-246,419,-649,-1215,-741,-43,78,126
-107,273,380,-82,-244,326,-600,-1180,-888,-395,-234,-131
-117,195,312,-39,-214,253,-570,-1141,-971,-561,-361,-190
-117,151,268,-17,-192,209,-566,-1068,-932,-546,-356,-175
-107,122,229,-7,-168,175,-527,-956,-849,-527,-351,-195
-97,107,204,-4,-151,156,-468,-839,-780,-502,-351,-204
-107,87,195,9,-151,141,-409,-727,-722,-468,-326,-185
-92,58,151,17,-122,104,-336,-595,-605,-414,-307,-175
-82,43,126,19,-104,85,-253,-483,-502,-366,-292,-190
-78,29,107,24,-92,68,-200,-395,-409,-322,-253,-195
-68,-4,63,36,-65,29,-156,-322,-331,-278,-234,-170
-68,-29,39,48,-53,4,-126,-263,-268,-248,-219,-151
-58,-39,19,48,-39,-9,-102,-204,-234,-219,-190,-146
-58,-29,29,43,-43,0,-73,-151,-200,-180,-151,-131
-63,-43,19,53,-41,-12,-34,-107,-175,-165,-136,-102
-58,-68,-9,63,-24,-39,-24,-82,-156,-151,-126,-87
-48,-73,-24,61,-12,-48,-19,-58,-141,-151,-136,-87
-29,-78,-48,53,9,-63,-14,-58,-107,-141,-141,-117
-9,-82,-73,46,31,-78,-4,-53,-87,-126,-141,-117
-19,-92,-73,56,26,-82,0,-34,-78,-122,-122,-107
-19,-97,-78,58,29,-87,4,-19,-68,-117,-117,-102
-19,-97,-78,58,29,-87,19,-4,-68,-112,-107,-87
-19,-97,-78,58,29,-87,29,4,-73,-112,-107,-73
-24,-82,-58,53,17,-70,29,9,-73,-102,-107,-73
-14,-82,-68,48,26,-75,29,14,-73,-102,-107,-82
-19,-92,-73,56,26,-82,34,14,-63,-102,-107,-82
-24,-92,-68,58,21,-80,34,19,-53,-92,-102,-78
-34,-102,-68,68,17,-85,39,14,-34,-92,-92,-73
-34,-107,-73,70,19,-90,39,14,-34,-92,-92,-73
-24,-107,-82,65,29,-95,39,14,-39,-92,-92,-73
-19,-97,-78,58,29,-87,39,24,-39,-87,-87,-73
-29,-107,-78,68,24,-92,53,29,-29,-78,-87,-78
-34,-107,-73,70,19,-90,53,34,-24,-78,-87,-78
-34,-107,-73,70,19,-90,53,39,-24,-78,-87,-78
-34,-112,-78,73,21,-95,53,48,-19,-73,-82,-73
-24,-102,-78,63,26,-90,43,39,-24,-73,-82,-68
-19,-97,-78,58,29,-87,43,39,-24,-78,-87,-68
-19,-87,-68,53,24,-78,48,39,-24,-82,-92,-73
-19,-102,-82,61,31,-92,48,39,-24,-82,-97,-73
-29,-112,-82,70,26,-97,48,53,-14,-73,-78,-68
-29,-112,-82,70,26,-97,48,53,-4,-73,-78,-68
-29,-107,-78,68,24,-92,53,53,-14,-73,-82,-78
-29,-107,-78,68,24,-92,53,53,-14,-73,-92,-78
-19,-97,-78,58,29,-87,43,43,-19,-82,-92,-78
-19,-92,-73,56,26,-82,43,43,-14,-78,-87,-78
-19,-92,-73,56,26,-82,43,48,-14,-78,-82,-82
-19,-87,-68,53,24,-78,43,48,-14,-78,-82,-82
-19,-97,-78,58,29,-87,53,63,-9,-68,-73,-68
-19,-97,-78,58,29,-87,53,63,-9,-68,-73,-68
-19,-92,-73,56,26,-82,53,63,-9,-68,-73,-68
-19,-92,-73,56,26,-82,53,63,-9,-63,-73,-68
-9,-82,-73,46,31,-78,58,53,-9,-63,-73,-78
-9,-82,-73,46,31,-78,58,53,-9,-63,-73,-73
-4,-82,-78,43,36,-80,58,53,-4,-63,-73,-73
-4,-78,-73,41,34,-75,53,53,-4,-63,-68,-73
-4,-78,-73,41,34,-75,58,48,4,-63,-68,-63
-9,-68,-58,39,24,-63,58,48,4,-63,-68,-63
-19,-78,-58,48,19,-68,58,58,9,-58,-68,-63
-24,-87,-63,56,19,-75,58,58,9,-58,-68,-68
-34,-97,-63,65,14,-80,48,58,0,-68,-78,-68
-29,-92,-63,61,17,-78,48,58,0,-63,-78,-53
-29,-92,-63,61,17,-78,53,63,4,-63,-73,-53
-39,-97,-58,68,9,-78,53,63,4,-58,-63,-53
-34,-87,-53,61,9,-70,39,58,-4,-58,-63,-68
-24,-87,-63,56,19,-75,39,58,0,-58,-73,-68
-19,-82,-63,51,21,-73,39,63,4,-58,-73,-63
-14,-82,-68,48,26,-75,39,63,4,-58,-68,-63
-19,-78,-58,48,19,-68,34,68,9,-48,-58,-58
-24,-82,-58,53,17,-70,39,68,14,-48,-58,-53
-48,-87,-39,68,-4,-63,43,73,19,-43,-58,-53
-53,-92,-39,73,-7,-65,48,73,24,-43,-58,-53
-43,-82,-39,63,-2,-61,39,73,14,-53,-63,-63
-39,-82,-43,61,2,-63,43,78,14,-48,-63,-53
-29,-82,-53,56,12,-68,48,78,19,-48,-63,-48
-24,-82,-58,53,17,-70,48,78,19,-48,-63,-48
-34,-82,-48,58,7,-65,48,78,29,-39,-53,-53
-29,-78,-48,53,9,-63,48,78,34,-39,-53,-53
-29,-78,-48,53,9,-63,58,87,34,-39,-48,-53
-29,-78,-48,53,9,-63,58,87,34,-34,-48,-53
-19,-68,-48,43,14,-58,53,92,48,-29,-43,-43
-19,-68,-48,43,14,-58,53,97,48,-24,-43,-39
-19,-68,-48,43,14,-58,53,97,48,-24,-43,-39
-19,-68,-48,43,14,-58,43,97,48,-24,-48,-48
-14,-63,-48,39,17,-56,53,97,48,-34,-39,-39
-14,-68,-53,41,19,-61,48,97,53,-24,-29,-24
-9,-78,-68,43,29,-73,48,97,58,-24,-29,-24
-9,-82,-73,46,31,-78,48,107,63,-19,-24,-24
-19,-82,-63,51,21,-73,48,117,78,-4,-24,-24
-19,-82,-63,51,21,-73,53,122,82,0,-24,-19
-19,-78,-58,48,19,-68,53,122,87,0,-24,-9
-19,-73,-53,46,17,-63,48,131,87,4,-19,-9
-29,-78,-48,53,9,-63,48,122,82,-4,-19,-24
-19,-68,-48,43,14,-58,48,126,87,-4,-19,-24
-19,-63,-43,41,12,-53,48,131,97,4,-19,-24
-19,-58,-39,39,9,-48,48,136,97,14,-9,-14
-29,-48,-19,39,-4,-34,48,136,117,29,4,0
-29,-58,-29,43,0,-43,48,146,131,34,14,4
-29,-58,-29,43,0,-43,48,151,141,39,24,9
-19,-48,-29,34,4,-39,48,151,141,43,24,9
-9,-48,-39,29,14,-43,39,161,136,48,19,0
-9,-48,-39,29,14,-43,48,165,141,53,24,0
-9,-48,-39,29,14,-43,48,165,146,68,29,9
-9,-48,-39,29,14,-43,48,170,156,68,34,19
0,-43,-43,21,21,-43,48,175,161,73,39,19
0,-29,-29,14,14,-29,39,185,175,78,43,19
0,-29,-29,14,14,-29,39,190,180,92,48,29
4,-29,-34,12,19,-31,39,195,180,102,63,39
-4,-19,-14,12,4,-17,39,200,195,102,68,43
9,-19,-29,4,19,-24,34,204,209,117,82,43
9,-9,-19,0,14,-14,34,209,219,131,92,48
14,9,-4,-12,9,2,34,229,229,141,92,58
34,24,-9,-29,21,7,24,239,234,136,97,63
34,34,0,-34,17,17,24,239,248,146,102,73
29,43,14,-36,7,29,24,239,258,161,117,82
29,58,29,-43,0,43,24,234,273,180,122,102
39,68,29,-53,4,48,19,248,292,195,146,97
43,73,29,-58,7,51,14,253,302,209,161,97
43,78,34,-61,4,56,19,258,317,224,175,107
43,82,39,-63,2,61,24,258,331,239,180,131
39,78,39,-58,0,58,24,258,346,263,200,156
39,87,48,-63,-4,68,19,263,351,278,214,165
48,92,43,-70,2,68,9,268,361,287,219,165
53,92,39,-73,7,65,4,273,370,292,239,175
63,112,48,-87,7,80,4,283,390,312,258,195
73,131,58,-102,7,95,0,283,400,326,263,204
73,141,68,-107,2,104,0,287,405,331,268,209
78,146,68,-112,4,107,0,292,419,346,278,224
78,165,87,-122,-4,126,-9,283,419,356,292,239
78,165,87,-122,-4,126,-14,278,424,366,297,239
82,165,82,-124,0,124,-19,278,424,375,297,239
82,180,97,-131,-7,139,-24,278,424,385,312,253
82,175,92,-129,-4,134,-19,278,439,395,317,263
82,185,102,-134,-9,143,-24,278,444,400,331,268
87,190,102,-139,-7,146,-24,278,444,405,331,268
92,195,102,-143,-4,148,-24,278,448,405,336,273
82,204,122,-143,-19,163,-29,273,439,405,336,273
82,209,126,-146,-21,168,-34,268,439,405,341,273
82,209,126,-146,-21,168,-39,263,434,409,341,278
82,214,131,-148,-24,173,-39,258,434,409,341,278
92,214,122,-153,-14,168,-34,248,434,409,351,287
87,214,126,-151,-19,170,-39,244,434,409,351,287
87,214,126,-151,-19,170,-39,234,424,409,346,278
82,214,131,-148,-24,173,-39,234,414,409,346,278
68,204,136,-136,-34,170,-34,244,409,409,346,287
68,214,146,-141,-39,180,-34,239,400,405,346,278
63,214,151,-139,-43,183,-34,229,395,390,336,268
63,209,146,-136,-41,178,-29,224,395,380,326,268
73,195,122,-134,-24,158,-29,214,385,380,322,268
73,190,117,-131,-21,153,-29,200,366,361,302,263
68,180,112,-124,-21,146,-24,195,351,346,287,239
63,175,112,-119,-24,143,-19,185,331,331,273,224
48,165,117,-107,-34,141,-29,175,312,307,258,219
39,156,117,-97,-39,136,-19,175,297,287,244,209
39,136,97,-87,-29,117,-9,170,278,268,234,195
29,131,102,-80,-36,117,-9,156,268,248,214,175
34,131,97,-82,-31,114,-14,141,239,224,190,161
29,117,87,-73,-29,102,-14,126,219,200,175,141
29,112,82,-70,-26,97,-14,117,204,180,156,126
24,97,73,-61,-24,85,-19,102,175,161,146,117
14,92,78,-53,-31,85,-9,97,161,151,122,97
9,82,73,-46,-31,78,-9,87,151,131,112,92
9,78,68,-43,-29,73,-9,82,131,122,97,87
9,63,53,-36,-21,58,-9,73,117,102,82,63
9,48,39,-29,-14,43,-9,58,92,87,68,63
0,39,39,-19,-19,39,-4,48,78,78,58,53
0,34,34,-17,-17,34,-4,43,63,58,43,48
-9,19,29,-4,-19,24,-4,39,48,39,29,24
-24,14,39,4,-31,26,0,24,39,34,24,19
-14,9,24,2,-19,17,0,19,24,19,14,19
-4,9,14,-2,-9,12,-4,9,14,4,4,4
-14,-4,9,9,-12,2,-4,4,4,0,0,-9
-34,-14,19,24,-26,2,-4,0,0,-9,-9,-4
-39,-29,9,34,-24,-9,4,-4,-4,-24,-19,-4
-39,-43,-4,41,-17,-24,4,-4,-14,-34,-24,-4
-39,-48,-9,43,-14,-29,0,-14,-19,-39,-34,-19
-29,-53,-24,41,-2,-39,0,-19,-29,-39,-39,-34
-29,-58,-29,43,0,-43,0,-19,-29,-39,-39,-34
-29,-58,-29,43,0,-43,0,-24,-39,-48,-39,-34
-29,-58,-29,43,0,-43,0,-29,-48,-58,-48,-53
-29,-63,-34,46,2,-48,-4,-34,-48,-58,-53,-53
-29,-63,-34,46,2,-48,-4,-34,-53,-63,-58,-48
-39,-68,-29,53,-4,-48,-9,-34,-53,-73,-63,-48
-39,-78,-39,58,0,-58,-9,-39,-58,-73,-68,-48
-43,-73,-29,58,-7,-51,-9,-39,-53,-78,-63,-53
-43,-73,-29,58,-7,-51,-9,-39,-58,-78,-68,-53
-39,-73,-34,56,-2,-53,-4,-43,-58,-87,-73,-53
-39,-73,-34,56,-2,-53,-4,-43,-63,-92,-78,-63
-43,-82,-39,63,-2,-61,-4,-43,-63,-82,-78,-63
-43,-82,-39,63,-2,-61,-4,-43,-63,-82,-82,-63
-43,-87,-43,65,0,-65,0,-39,-63,-87,-82,-63
-39,-97,-58,68,9,-78,0,-39,-63,-92,-82,-63
-29,-78,-48,53,9,-63,-9,-39,-73,-92,-82,-63
-29,-78,-48,53,9,-63,-9,-43,-73,-92,-78,-63
-34,-87,-53,61,9,-70,-9,-43,-73,-92,-78,-58
-34,-92,-58,63,12,-75,-9,-43,-78,-92,-78,-58
-34,-92,-58,63,12,-75,-9,-43,-68,-82,-78,-68
-34,-87,-53,61,9,-70,-9,-43,-73,-92,-87,-68
-34,-87,-53,61,9,-70,-9,-43,-73,-92,-92,-68
-34,-87,-53,61,9,-70,-9,-48,-78,-92,-97,-68
-43,-97,-53,70,4,-75,0,-48,-87,-107,-97,-63
-43,-97,-53,70,4,-75,0,-43,-87,-107,-92,-63
-48,-97,-48,73,0,-73,0,-39,-87,-107,-92,-63
-48,-102,-53,75,2,-78,0,-39,-87,-107,-97,-63
-39,-92,-53,65,7,-73,0,-43,-78,-97,-97,-73
-39,-97,-58,68,9,-78,0,-43,-73,-97,-97,-73
-43,-102,-58,73,7,-80,0,-39,-73,-97,-97,-73
-43,-107,-63,75,9,-85,0,-39,-73,-102,-97,-73
-43,-117,-73,80,14,-95,0,-39,-78,-112,-102,-73
-39,-112,-73,75,17,-92,4,-39,-78,-112,-102,-73
-39,-107,-68,73,14,-87,4,-34,-78,-112,-107,-73
-39,-107,-68,73,14,-87,9,-29,-78,-112,-107,-58
-48,-117,-68,82,9,-92,9,-19,-78,-112,-97,-78
-48,-112,-63,80,7,-87,9,-19,-78,-112,-97,-82
-58,-112,-53,85,-2,-82,4,-19,-78,-112,-102,-87
-48,-112,-63,80,7,-87,4,-24,-78,-112,-102,-87
-39,-97,-58,68,9,-78,4,-24,-87,-122,-112,-97
-48,-102,-53,75,2,-78,4,-19,-87,-122,-112,-97
-48,-97,-48,73,0,-73,4,-19,-87,-126,-112,-97
-39,-82,-43,61,2,-63,4,-19,-87,-126,-112,-92
-48,-92,-43,70,-2,-68,9,-19,-78,-117,-112,-92
-48,-102,-53,75,2,-78,19,-14,-73,-112,-112,-102
-48,-92,-43,70,-2,-68,9,-14,-73,-112,-112,-102
-48,-92,-43,70,-2,-68,9,-14,-68,-112,-107,-92
-43,-82,-39,63,-2,-61,9,-9,-68,-122,-97,-92
-43,-82,-39,63,-2,-61,14,-9,-68,-117,-102,-97
-39,-78,-39,58,0,-58,14,-9,-68,-117,-102,-97
-39,-78,-39,58,0,-58,9,-9,-68,-117,-102,-97
-43,-68,-24,56,-9,-46,9,-4,-63,-107,-102,-82
-48,-63,-14,56,-17,-39,14,-4,-58,-102,-87,-78
-53,-63,-9,58,-21,-36,14,4,-58,-97,-82,-73
-58,-68,-9,63,-24,-39,19,9,-48,-97,-82,-48
-53,-82,-29,68,-12,-56,19,9,-48,-97,-97,-53
-48,-82,-34,65,-7,-58,19,9,-48,-97,-97,-68
-39,-87,-48,63,4,-68,14,4,-48,-92,-97,-73
-34,-87,-53,61,9,-70,14,4,-43,-87,-92,-73
-43,-82,-39,63,-2,-61,19,0,-43,-87,-78,-58
-43,-78,-34,61,-4,-56,19,0,-43,-87,-78,-73
-43,-68,-24,56,-9,-46,14,4,-39,-82,-78,-73
-43,-63,-19,53,-12,-41,9,4,-39,-78,-78,-73
-43,-68,-24,56,-9,-46,9,4,-39,-78,-73,-58
-43,-68,-24,56,-9,-46,9,9,-29,-78,-73,-58
-39,-68,-29,53,-4,-48,14,14,-29,-68,-63,-53
-39,-63,-24,51,-7,-43,14,19,-19,-68,-63,-43
-39,-68,-29,53,-4,-48,24,19,-19,-68,-63,-43
-39,-68,-29,53,-4,-48,24,19,-19,-63,-58,-43
-39,-68,-29,53,-4,-48,19,19,-19,-58,-53,-43
-39,-68,-29,53,-4,-48,19,24,-19,-58,-48,-39
-39,-68,-29,53,-4,-48,14,14,-24,-58,-48,-43
-39,-63,-24,51,-7,-43,14,14,-24,-58,-48,-48
-34,-63,-29,48,-2,-46,14,14,-24,-58,-53,-53
-24,-63,-39,43,7,-51,14,14,-24,-58,-53,-53
-43,-53,-9,48,-17,-31,14,14,-14,-58,-53,-43
-43,-53,-9,48,-17,-31,14,14,-14,-53,-53,-43
-43,-53,-9,48,-17,-31,19,14,-9,-53,-53,-43
-48,-53,-4,51,-21,-29,19,19,-9,-53,-53,-48
-48,-63,-14,56,-17,-39,14,9,-4,-53,-43,-39
-43,-63,-19,53,-12,-41,14,14,-4,-53,-43,-34
-43,-63,-19,53,-12,-41,14,14,-4,-48,-43,-34
-43,-63,-19,53,-12,-41,14,9,-9,-48,-34,-34
-53,-68,-14,61,-19,-41,9,14,-19,-48,-43,-43
-48,-68,-19,58,-14,-43,4,14,-19,-48,-43,-34
-48,-68,-19,58,-14,-43,4,14,-19,-43,-43,-34
-48,-68,-19,58,-14,-43,0,14,-19,-43,-48,-39
-39,-58,-19,48,-9,-39,0,4,-19,-43,-48,-39
-43,-58,-14,51,-14,-36,0,0,-24,-48,-48,-39
-29,-58,-29,43,0,-43,0,0,-24,-48,-48,-39
-9,-58,-48,34,19,-53,0,0,-24,-48,-48,-39
-19,-73,-53,46,17,-63,4,0,-14,-48,-58,-39
-29,-73,-43,51,7,-58,4,4,-14,-43,-53,-24
-19,-68,-48,43,14,-58,9,4,-14,-43,-43,-24
-19,-68,-48,43,14,-58,9,4,-14,-43,-53,-34
-34,-58,-24,46,-4,-41,9,4,-24,-43,-48,-39
-34,-53,-19,43,-7,-36,4,0,-24,-53,-48,-39
-24,-53,-29,39,2,-41,4,0,-29,-53,-48,-34
-34,-63,-29,48,-2,-46,4,0,-29,-48,-43,-34
-39,-82,-43,61,2,-63,4,9,-19,-48,-43,-43
-39,-73,-34,56,-2,-53,4,4,-19,-48,-53,-34
-34,-63,-29,48,-2,-46,4,4,-19,-48,-53,-34
-29,-63,-34,46,2,-48,0,4,-19,-48,-53,-34
-39,-73,-34,56,-2,-53,0,9,-29,-39,-43,-24
-43,-73,-29,58,-7,-51,4,9,-29,-39,-43,-24
-43,-82,-39,63,-2,-61,4,4,-29,-43,-43,-34
-43,-82,-39,63,-2,-61,4,4,-29,-48,-43,-39
-43,-63,-19,53,-12,-41,-14,-4,-43,-53,-48,-43
-39,-58,-19,48,-9,-39,-14,-9,-48,-58,-53,-48
-29,-58,-29,43,0,-43,-14,-14,-53,-73,-63,-53
-24,-58,-34,41,4,-46,-14,-24,-53,-78,-68,-48
-34,-68,-34,51,0,-51,-4,-14,-43,-68,-58,-53
-34,-68,-34,51,0,-51,0,-14,-43,-68,-58,-43
-34,-68,-34,51,0,-51,0,-9,-43,-68,-58,-43
-34,-63,-29,48,-2,-46,0,-9,-43,-73,-58,-48
-34,-68,-34,51,0,-51,0,-9,-43,-63,-58,-48
-39,-78,-39,58,0,-58,0,-9,-43,-63,-58,-48
-39,-92,-53,65,7,-73,0,-9,-43,-63,-58,-48
-34,-82,-48,58,7,-65,0,-9,-43,-63,-58,-43
-43,-78,-34,61,-4,-56,4,-9,-43,-63,-58,-34
-43,-87,-43,65,0,-65,4,-9,-43,-63,-58,-34
-43,-92,-48,68,2,-70,0,-9,-43,-63,-58,-34
-43,-78,-34,61,-4,-56,0,-9,-48,-63,-58,-34
-53,-82,-29,68,-12,-56,-9,-9,-48,-73,-63,-39
-53,-78,-24,65,-14,-51,-9,-14,-53,-73,-63,-43
-48,-78,-29,63,-9,-53,-9,-14,-53,-73,-63,-43
-48,-82,-34,65,-7,-58,-9,-19,-53,-78,-68,-48
-48,-78,-29,63,-9,-53,-9,-19,-53,-78,-58,-43
-43,-68,-24,56,-9,-46,-14,-19,-53,-78,-58,-48
-39,-63,-24,51,-7,-43,-14,-19,-53,-82,-63,-48
-43,-63,-19,53,-12,-41,-9,-19,-53,-82,-68,-48
-53,-73,-19,63,-17,-46,0,-19,-43,-73,-58,-48
-48,-78,-29,63,-9,-53,0,-19,-43,-73,-58,-53
-48,-78,-29,63,-9,-53,0,-19,-43,-73,-58,-53
-48,-78,-29,63,-9,-53,0,-19,-48,-73,-63,-48
-39,-78,-39,58,0,-58,-9,-29,-53,-78,-73,-58
-34,-82,-48,58,7,-65,-9,-29,-58,-78,-68,-58
-29,-87,-58,58,14,-73,-9,-29,-63,-78,-68,-58
-29,-92,-63,61,17,-78,-9,-29,-68,-78,-63,-58
-39,-82,-43,61,2,-63,0,-19,-68,-68,-53,-48
-43,-82,-39,63,-2,-61,0,-19,-68,-73,-63,-53
-43,-82,-39,63,-2,-61,0,-29,-68,-73,-68,-53
-48,-87,-39,68,-4,-63,0,-19,-68,-78,-73,-43
-48,-78,-29,63,-9,-53,0,-19,-58,-78,-73,-53
-39,-78,-39,58,0,-58,0,-24,-58,-78,-73,-63
-34,-78,-43,56,4,-61,0,-24,-58,-78,-68,-63
-34,-73,-39,53,2,-56,-4,-24,-58,-78,-68,-63
-29,-68,-39,48,4,-53,-4,-34,-68,-78,-68,-58
-29,-68,-39,48,4,-53,0,-34,-68,-73,-68,-63
-29,-73,-43,51,7,-58,0,-29,-63,-73,-68,-58
-29,-73,-43,51,7,-58,0,-29,-63,-68,-68,-48
-39,-73,-34,56,-2,-53,4,-19,-53,-68,-63,-53
-39,-73,-34,56,-2,-53,4,-19,-53,-73,-63,-53
-34,-73,-39,53,2,-56,0,-19,-58,-78,-58,-53
-29,-73,-43,51,7,-58,-9,-19,-63,-82,-58,-53
-39,-68,-29,53,-4,-48,0,-29,-68,-78,-63,-63
-39,-73,-34,56,-2,-53,4,-24,-68,-78,-63,-63
-39,-73,-34,56,-2,-53,4,-24,-68,-78,-63,-63
-39,-73,-34,56,-2,-53,4,-24,-68,-78,-73,-63
-39,-82,-43,61,2,-63,0,-19,-68,-78,-63,-53
-43,-73,-29,58,-7,-51,0,-19,-68,-78,-63,-53
-48,-68,-19,58,-14,-43,0,-19,-68,-78,-63,-58
-48,-68,-19,58,-14,-43,0,-19,-68,-78,-63,-39
-39,-78,-39,58,0,-58,0,-29,-58,-82,-73,-43
-39,-78,-39,58,0,-58,0,-29,-58,-82,-73,-48
-48,-78,-29,63,-9,-53,0,-24,-58,-68,-63,-48
-48,-87,-39,68,-4,-63,4,-24,-48,-68,-53,-48
-34,-82,-48,58,7,-65,-4,-24,-58,-73,-63,-39
-29,-78,-48,53,9,-63,-4,-24,-58,-78,-78,-43
-29,-58,-29,43,0,-43,-9,-24,-58,-82,-78,-48
-29,-53,-24,41,-2,-39,-9,-29,-58,-87,-82,-53
-29,-58,-29,43,0,-43,-9,-29,-63,-87,-78,-53
-29,-58,-29,43,0,-43,-9,-29,-63,-87,-73,-53
-29,-63,-34,46,2,-48,-4,-29,-58,-82,-68,-43
-29,-78,-48,53,9,-63,-4,-34,-58,-82,-63,-53
-29,-78,-48,53,9,-63,0,-34,-63,-82,-73,-73
-34,-82,-48,58,7,-65,-4,-34,-63,-87,-73,-63
-43,-73,-29,58,-7,-51,-4,-24,-63,-78,-73,-63
-58,-78,-19,68,-19,-48,9,-19,-58,-78,-68,-48
-43,-87,-43,65,0,-65,0,-19,-68,-87,-68,-48
-39,-87,-48,63,4,-68,0,-19,-68,-87,-68,-48
-34,-87,-53,61,9,-70,0,-19,-68,-87,-68,-48
-29,-87,-58,58,14,-73,0,-19,-68,-87,-68,-48
-29,-82,-53,56,12,-68,9,-19,-58,-78,-68,-58
-34,-87,-53,61,9,-70,4,-19,-58,-78,-63,-58
-43,-87,-43,65,0,-65,4,-19,-58,-68,-58,-58
-48,-82,-34,65,-7,-58,9,-19,-58,-68,-58,-53
-43,-78,-34,61,-4,-56,0,-29,-58,-73,-68,-58
-39,-78,-39,58,0,-58,0,-29,-58,-73,-68,-58
-34,-73,-39,53,2,-56,0,-24,-58,-73,-73,-63
-29,-68,-39,48,4,-53,0,-24,-58,-73,-73,-63
-29,-73,-43,51,7,-58,9,-24,-58,-73,-63,-53
-29,-58,-29,43,0,-43,14,-19,-53,-73,-58,-53
-29,-43,-14,36,-7,-29,14,-19,-48,-63,-58,-53
-29,-39,-9,34,-9,-24,24,-19,-43,-63,-43,-48
-34,-39,-4,36,-14,-21,19,-14,-48,-63,-43,-48
-34,-29,4,31,-19,-12,24,-4,-48,-58,-43,-48
-34,-14,19,24,-26,2,24,-4,-43,-58,-43,-48
-29,-4,24,17,-26,9,24,-4,-43,-58,-43,-48
-39,9,48,14,-43,29,39,14,-43,-63,-43,-43
-39,14,53,12,-46,34,48,14,-34,-58,-34,-39
-43,24,68,9,-56,46,48,24,-29,-53,-34,-34
-43,24,68,9,-56,46,48,24,-24,-48,-34,-24
-39,29,68,4,-53,48,39,24,-19,-43,-34,-24
-34,34,68,0,-51,51,39,24,-9,-39,-34,-14
-34,39,73,-2,-53,56,29,19,-4,-34,-34,-14
-39,53,92,-7,-65,73,19,4,-14,-34,-34,-14
-29,53,82,-12,-56,68,14,-19,-24,-39,-39,-24
-24,53,78,-14,-51,65,4,-24,-29,-39,-34,-19
-24,63,87,-19,-56,75,-9,-39,-39,-43,-34,-19
-19,78,97,-29,-58,87,-29,-53,-48,-53,-34,-19
-29,68,97,-19,-63,82,-19,-58,-43,-53,-34,-9
-19,58,78,-19,-48,68,-29,-63,-48,-53,-34,-9
-14,58,73,-21,-43,65,-39,-68,-48,-53,-34,-14
-9,53,63,-21,-36,58,-39,-68,-48,-53,-34,-14
-9,43,53,-17,-31,48,-29,-53,-53,-43,-29,-9
-14,34,48,-9,-31,41,-24,-53,-53,-48,-29,-4
-14,19,34,-2,-24,26,-24,-53,-53,-48,-29,-4
0,19,19,-9,-9,19,-24,-53,-53,-48,-29,-19
14,9,-4,-12,9,2,-24,-58,-53,-58,-39,-14
14,9,-4,-12,9,2,-29,-58,-53,-58,-39,-14
14,9,-4,-12,9,2,-39,-58,-53,-58,-39,-14
29,14,-14,-21,21,0,-43,-53,-53,-58,-39,-24
19,0,-19,-9,19,-9,-43,-39,-43,-43,-29,-4
19,-9,-29,-4,24,-19,-39,-29,-39,-39,-24,-4
14,-24,-39,4,26,-31,-34,-29,-39,-39,-24,-9
9,-29,-39,9,24,-34,-29,-29,-43,-48,-29,-14
4,-24,-29,9,17,-26,-29,-39,-43,-63,-39,-24
-4,-43,-39,24,17,-41,-19,-39,-48,-68,-43,-34
-19,-48,-29,34,4,-39,-19,-39,-53,-78,-48,-39
-29,-53,-24,41,-2,-39,-19,-39,-58,-78,-53,-48
-39,-63,-24,51,-7,-43,-14,-43,-73,-78,-68,-58
-39,-63,-24,51,-7,-43,-14,-43,-73,-78,-68,-58
-39,-73,-34,56,-2,-53,-19,-39,-78,-87,-78,-58
-39,-73,-34,56,-2,-53,-29,-39,-78,-92,-78,-68
-34,-82,-48,58,7,-65,-24,-29,-68,-87,-78,-63
-34,-82,-48,58,7,-65,-14,-29,-68,-87,-78,-63
-34,-97,-63,65,14,-80,-9,-29,-68,-87,-78,-63
-34,-107,-73,70,19,-90,0,-29,-68,-92,-82,-68
-39,-112,-73,75,17,-92,0,-39,-78,-92,-78,-68
-39,-112,-73,75,17,-92,0,-39,-82,-92,-82,-68
-29,-117,-87,73,29,-102,-4,-43,-82,-102,-87,-78
-29,-122,-92,75,31,-107,-4,-43,-82,-102,-92,-82
-39,-122,-82,80,21,-102,-9,-43,-82,-97,-92,-82
-48,-122,-73,85,12,-97,-9,-39,-82,-97,-92,-82
-48,-131,-82,90,17,-107,-9,-39,-82,-107,-92,-82
-48,-122,-73,85,12,-97,-4,-39,-82,-107,-97,-87
-39,-112,-73,75,17,-92,-4,-48,-92,-117,-107,-97
-34,-112,-78,73,21,-95,-4,-48,-92,-117,-107,-97
-29,-117,-87,73,29,-102,-4,-48,-97,-117,-107,-92
-19,-117,-97,68,39,-107,-4,-48,-97,-122,-107,-92
-24,-126,-102,75,39,-114,4,-39,-97,-112,-107,-102
-29,-126,-97,78,34,-112,4,-39,-97,-112,-107,-102
-34,-126,-92,80,29,-109,4,-39,-97,-107,-102,-102
-43,-126,-82,85,19,-104,4,-34,-92,-107,-102,-102
-43,-126,-82,85,19,-104,9,-24,-82,-97,-92,-92
-39,-122,-82,80,21,-102,9,-24,-87,-97,-92,-87
-39,-117,-78,78,19,-97,9,-24,-87,-97,-92,-78
-48,-112,-63,80,7,-87,14,-24,-82,-97,-87,-63
-48,-131,-82,90,17,-107,19,-24,-82,-97,-87,-63
-43,-131,-87,87,21,-109,19,-19,-82,-97,-87,-63
-39,-126,-87,82,24,-107,14,-19,-82,-97,-87,-63
-39,-117,-78,78,19,-97,14,-29,-82,-97,-92,-68
-29,-126,-97,78,34,-112,0,-39,-92,-102,-102,-92
-29,-126,-97,78,34,-112,0,-34,-82,-102,-102,-92
-29,-126,-97,78,34,-112,0,-34,-82,-107,-102,-78
-29,-126,-97,78,34,-112,0,-29,-78,-107,-97,-63
-43,-141,-97,92,26,-119,9,-29,-87,-97,-97,-73
-39,-161,-122,100,41,-141,19,-19,-78,-92,-87,-63
-24,-151,-126,87,51,-139,19,-14,-63,-87,-82,-87
4,-136,-141,65,73,-139,24,24,-34,-58,-73,-92
0,-146,-146,73,73,-146,29,63,29,-24,-58,-48
9,-151,-161,70,85,-156,19,102,102,39,-14,-4
39,-107,-146,34,92,-126,29,146,219,151,78,58
53,-53,-107,0,80,-80,39,175,312,273,190,126
53,24,-29,-39,41,-2,19,136,351,409,331,239
73,151,78,-112,-2,114,-34,39,361,566,507,380
112,297,185,-204,-36,241,-92,-73,385,761,688,527
141,414,273,-278,-65,344,-156,-185,405,956,893,697
175,492,317,-334,-70,405,-234,-317,395,1102,1063,834
219,566,346,-392,-63,456,-297,-444,366,1215,1180,941
239,644,405,-441,-82,524,-331,-561,317,1302,1288,1034
219,692,473,-456,-126,583,-361,-678,258,1356,1371,1098
214,722,507,-468,-146,614,-424,-785,190,1376,1405,1117
219,761,541,-490,-161,651,-517,-902,92,1346,1395,1137
190,780,590,-485,-200,685,-614,-1034,-58,1263,1327,1073
141,746,605,-444,-231,675,-678,-1132,-224,1049,1137,902
107,639,531,-373,-212,585,-702,-1210,-419,722,819,668
24,517,492,-270,-234,505,-702,-1254,-610,331,439,395
-68,395,463,-163,-265,429,-668,-1244,-771,-82,39,117
-117,292,409,-87,-263,351,-619,-1210,-917,-424,-253,-112
-117,244,361,-63,-239,302,-600,-1161,-980,-561,-351,-190
-117,200,317,-41,-217,258,-575,-1078,-932,-546,-346,-165
-126,112,239,7,-183,175,-527,-966,-849,-507,-351,-175
-126,68,195,29,-161,131,-468,-849,-780,-492,-341,-204
-107,68,175,19,-141,122,-390,-727,-702,-439,-307,-185
-102,48,151,26,-126,100,-317,-595,-595,-385,-287,-175
-102,24,126,39,-114,75,-244,-483,-492,-366,-273,-170
-97,9,107,43,-102,58,-200,-395,-409,-331,-253,-165
-78,4,82,36,-80,43,-165,-322,-331,-287,-234,-161
-68,-9,58,39,-63,24,-136,-253,-268,-248,-219,-151
-68,-29,39,48,-53,4,-102,-195,-224,-200,-190,-126
-68,-39,29,53,-48,-4,-63,-151,-209,-170,-161,-122
-73,-53,19,63,-46,-17,-43,-117,-185,-156,-146,-122
-58,-58,0,58,-29,-29,-24,-82,-165,-141,-136,-97
-19,-63,-43,41,12,-53,-19,-58,-151,-141,-136,-87
-19,-78,-58,48,19,-68,-14,-48,-117,-141,-131,-78
-39,-82,-43,61,2,-63,-4,-34,-97,-126,-131,-97
-48,-92,-43,70,-2,-68,0,-19,-82,-117,-117,-82
-48,-97,-48,73,0,-73,4,-9,-68,-107,-107,-82
-48,-97,-48,73,0,-73,19,0,-63,-97,-92,-73
-48,-97,-48,73,0,-73,29,4,-63,-92,-87,-63
-39,-92,-53,65,7,-73,29,19,-63,-102,-97,-63
-24,-92,-68,58,21,-80,29,24,-63,-102,-97,-73
-24,-102,-78,63,26,-90,34,24,-53,-102,-97,-73
-24,-102,-78,63,26,-90,34,29,-43,-92,-92,-68
-43,-92,-48,68,2,-70,29,24,-43,-82,-92,-73
-43,-97,-53,70,4,-75,29,24,-43,-82,-92,-73
-34,-97,-63,65,14,-80,29,24,-48,-82,-92,-73
-29,-87,-58,58,14,-73,29,34,-48,-78,-87,-73
-29,-87,-58,58,14,-73,34,34,-48,-87,-87,-68
-34,-87,-53,61,9,-70,34,34,-43,-87,-87,-68
-34,-87,-53,61,9,-70,34,34,-43,-87,-87,-68
-34,-92,-58,63,12,-75,34,39,-39,-82,-82,-63
-43,-102,-58,73,7,-80,43,39,-24,-78,-87,-68
-39,-97,-58,68,9,-78,43,39,-24,-78,-87,-68
-39,-87,-48,63,4,-68,48,39,-24,-78,-87,-73
-39,-102,-63,70,12,-82,48,39,-24,-73,-87,-73
-29,-92,-63,61,17,-78,39,43,-24,-82,-78,-68
-29,-92,-63,61,17,-78,39,43,-14,-82,-78,-68
-29,-87,-58,58,14,-73,43,43,-24,-82,-82,-78
-29,-87,-58,58,14,-73,43,43,-24,-82,-92,-78
-29,-92,-63,61,17,-78,53,53,-9,-78,-82,-58
-29,-92,-63,61,17,-78,53,53,-4,-68,-78,-58
-29,-97,-68,63,19,-82,53,58,-4,-63,-73,-63
-29,-97,-68,63,19,-82,53,58,-4,-58,-73,-63
-39,-107,-68,73,14,-87,53,63,0,-58,-63,-68
-39,-107,-68,73,14,-87,53,63,0,-58,-63,-68
-39,-102,-63,70,12,-82,53,63,0,-58,-63,-68
-39,-102,-63,70,12,-82,53,63,0,-53,-63,-68
-34,-102,-68,68,17,-85,48,63,0,-53,-63,-58
-29,-102,-73,65,21,-87,48,63,0,-53,-63,-53
-19,-102,-82,61,31,-92,48,63,4,-53,-63,-53
-14,-97,-82,56,34,-90,43,63,4,-53,-58,-53
-19,-87,-68,53,24,-78,39,58,4,-53,-58,-53
-19,-78,-58,48,19,-68,39,58,4,-53,-58,-53
-24,-87,-63,56,19,-75,39,68,9,-48,-58,-53
-24,-97,-73,61,24,-85,39,68,9,-48,-58,-58
-24,-92,-68,58,21,-80,48,58,9,-48,-68,-48
-19,-82,-63,51,21,-73,48,58,9,-43,-68,-34
-19,-78,-58,48,19,-68,53,63,14,-43,-63,-34
-29,-78,-48,53,9,-63,53,63,14,-39,-53,-34
-29,-68,-39,48,4,-53,48,68,4,-48,-43,-43
-24,-68,-43,46,9,-56,48,68,9,-48,-53,-48
-24,-63,-39,43,7,-51,48,73,14,-48,-53,-48
-24,-63,-39,43,7,-51,48,73,14,-48,-48,-53
-9,-63,-53,36,21,-58,39,68,14,-48,-58,-43
-4,-63,-58,34,26,-61,39,68,14,-48,-58,-43
-19,-63,-43,41,12,-53,39,73,14,-43,-58,-48
-14,-63,-48,39,17,-56,39,73,14,-43,-58,-53
-14,-63,-48,39,17,-56,48,73,24,-34,-43,-53
-19,-63,-43,41,12,-53,53,78,24,-29,-43,-43
-19,-63,-43,41,12,-53,58,78,29,-29,-43,-39
-24,-63,-39,43,7,-51,58,78,29,-29,-43,-39
-24,-63,-39,43,7,-51,48,78,39,-29,-43,-34
-19,-58,-39,39,9,-48,48,78,43,-29,-43,-34
-19,-58,-39,39,9,-48,58,87,43,-29,-39,-34
-19,-58,-39,39,9,-48,58,87,43,-24,-39,-34
-29,-68,-39,48,4,-53,53,92,58,-19,-24,-24
-29,-68,-39,48,4,-53,53,97,58,-14,-24,-19
-29,-68,-39,48,4,-53,53,97,58,-14,-24,-19
-29,-68,-39,48,4,-53,43,97,58,-14,-29,-29
-24,-58,-34,41,4,-46,43,107,58,-14,-29,-29
-24,-58,-34,41,4,-46,39,107,63,-4,-19,-14
-19,-63,-43,41,12,-53,39,107,68,-4,-19,-14
-19,-63,-43,41,12,-53,39,117,73,0,-14,-14
-9,-63,-53,36,21,-58,43,117,87,14,-4,-4
-9,-63,-53,36,21,-58,53,122,92,19,-4,0
-9,-58,-48,34,19,-53,58,122,97,19,-4,9
-9,-53,-43,31,17,-48,58,131,97,24,0,9
-9,-48,-39,29,14,-43,53,122,92,14,-9,0
0,-39,-39,19,19,-39,48,126,97,14,-9,-4
0,-34,-34,17,17,-34,43,131,107,24,-9,-9
0,-29,-29,14,14,-29,39,136,107,34,0,-4
0,-19,-19,9,9,-19,39,136,107,29,-4,0
0,-29,-29,14,14,-29,39,146,122,34,4,4
0,-29,-29,14,14,-29,39,151,131,39,14,9
9,-19,-29,4,19,-24,39,151,131,43,14,9
9,-19,-29,4,19,-24,39,161,146,58,29,9
9,-19,-29,4,19,-24,48,165,151,63,34,9
9,-19,-29,4,19,-24,48,165,156,78,39,19
9,-19,-29,4,19,-24,48,170,165,78,43,29
9,-14,-24,2,17,-19,48,175,180,82,58,34
9,0,-9,-4,9,-4,39,185,195,87,63,39
9,0,-9,-4,9,-4,39,190,200,102,68,53
14,0,-14,-7,14,-7,39,195,200,112,82,68
14,-9,-24,-2,19,-17,39,200,204,122,78,78
29,-9,-39,-9,34,-24,34,204,219,136,92,73
29,0,-29,-14,29,-14,34,209,229,151,102,73
34,19,-14,-26,24,2,34,229,239,161,102,78
34,19,-14,-26,24,2,34,234,253,156,112,92
34,24,-9,-29,21,7,34,239,268,165,122,102
29,29,0,-29,14,14,34,244,278,180,141,112
29,39,9,-34,9,24,34,244,292,200,151,131
48,58,9,-53,19,34,34,258,302,224,165,131
53,73,19,-63,17,46,24,263,312,239,180,126
53,87,34,-70,9,61,24,268,326,253,195,131
53,102,48,-78,2,75,24,268,341,268,200,151
58,92,34,-75,12,63,24,273,356,273,214,175
58,107,48,-82,4,78,19,273,361,287,224,185
68,117,48,-92,9,82,9,273,370,297,224,185
73,122,48,-97,12,85,4,273,380,302,239,195
73,151,78,-112,-2,114,-4,263,380,322,268,195
82,170,87,-126,-2,129,-9,263,390,336,273,204
82,180,97,-131,-7,139,-9,268,395,341,278,209
87,185,97,-136,-4,141,-9,273,409,356,287,224
87,195,107,-141,-9,151,-14,283,429,366,302,248
87,195,107,-141,-9,151,-14,278,434,375,307,248
92,195,102,-143,-4,148,-14,278,434,385,307,248
92,209,117,-151,-12,163,-14,278,434,395,322,263
82,209,126,-146,-21,168,-9,278,448,414,336,273
82,214,131,-148,-24,173,-14,278,453,419,351,278
87,214,126,-151,-19,170,-14,278,453,424,351,278
92,214,122,-153,-14,168,-14,278,458,424,356,283
92,224,131,-158,-19,178,-19,273,448,424,356,292
92,229,136,-161,-21,183,-24,268,448,424,361,292
92,229,136,-161,-21,183,-29,263,444,429,361,297
92,234,141,-163,-24,187,-29,258,444,429,361,297
102,244,141,-173,-19,192,-24,258,444,429,370,307
97,244,146,-170,-24,195,-29,253,444,429,370,307
97,244,146,-170,-24,195,-29,244,434,429,366,297
92,244,151,-168,-29,197,-29,244,424,429,366,297
97,234,136,-165,-19,185,-34,244,424,409,346,287
97,244,146,-170,-24,195,-34,239,409,405,346,278
92,244,151,-168,-29,197,-34,229,400,390,336,268
92,239,146,-165,-26,192,-29,224,395,380,326,268
82,224,141,-153,-29,183,-29,214,385,375,331,278
82,219,136,-151,-26,178,-29,200,366,361,312,273
78,209,131,-143,-26,170,-24,195,351,351,297,248
73,204,131,-139,-29,168,-19,185,331,341,283,234
68,195,126,-131,-29,161,-29,175,322,317,278,229
58,185,126,-122,-34,156,-19,175,307,297,263,219
58,165,107,-112,-24,136,-9,170,287,278,253,204
48,161,112,-104,-31,136,-9,156,278,258,234,185
43,156,112,-100,-34,134,-9,136,244,253,209,180
39,146,107,-92,-34,126,-4,126,229,229,195,161
39,146,107,-92,-34,126,0,122,219,209,175,146
34,136,102,-85,-34,119,0,112,195,190,165,136
34,107,73,-70,-19,90,9,107,180,170,151,136
29,92,63,-61,-17,78,9,97,170,151,141,131
29,82,53,-56,-12,68,9,92,151,141,126,126
29,63,34,-46,-2,48,9,82,136,122,112,102
24,48,24,-36,0,36,0,68,122,107,97,82
9,39,29,-24,-9,34,4,58,107,97,87,73
4,34,29,-19,-12,31,4,53,92,78,73,68
-9,19,29,-4,-19,24,4,48,78,58,58,43
-19,14,34,2,-26,24,9,34,63,43,43,39
-4,9,14,-2,-9,12,9,29,43,29,34,39
9,9,0,-9,4,4,4,19,29,14,24,24
4,-4,-9,0,7,-7,4,14,14,9,19,9
-14,-9,4,12,-9,-2,4,9,19,9,9,4
-19,-19,0,19,-9,-9,14,4,14,-4,0,4
-19,-29,-9,24,-4,-19,14,4,4,-14,-4,4
-19,-29,-9,24,-4,-19,9,-4,0,-19,-14,-9
-9,-24,-14,17,2,-19,0,-9,-19,-29,-24,-14
-9,-29,-19,19,4,-24,0,-9,-19,-29,-29,-14
-9,-29,-19,19,4,-24,0,-14,-29,-39,-34,-14
-9,-29,-19,19,4,-24,0,-19,-39,-48,-48,-34
-19,-34,-14,26,-2,-24,4,-24,-39,-48,-48,-43
-19,-34,-14,26,-2,-24,4,-24,-43,-53,-48,-39
-29,-39,-9,34,-9,-24,0,-24,-43,-63,-48,-39
-29,-48,-19,39,-4,-34,0,-29,-48,-63,-48,-39
-34,-53,-19,43,-7,-36,0,-29,-43,-48,-43,-43
-34,-53,-19,43,-7,-36,0,-29,-48,-48,-48,-43
-29,-53,-24,41,-2,-39,4,-34,-48,-58,-53,-43
-29,-53,-24,41,-2,-39,4,-34,-53,-63,-58,-53
-29,-43,-14,36,-7,-29,-4,-34,-53,-73,-68,-53
-24,-43,-19,34,-2,-31,-4,-34,-53,-73,-73,-53
-19,-48,-29,34,4,-39,0,-29,-53,-78,-73,-53
-9,-58,-48,34,19,-53,0,-29,-53,-82,-73,-53
-14,-53,-39,34,12,-46,9,-19,-43,-73,-63,-48
-19,-58,-39,39,9,-48,9,-24,-43,-73,-58,-43
-29,-73,-43,51,7,-58,9,-24,-43,-73,-58,-34
-34,-82,-48,58,7,-65,9,-24,-48,-73,-58,-29
-34,-92,-58,63,12,-75,9,-24,-48,-63,-48,-29
-34,-87,-53,61,9,-70,9,-24,-53,-73,-58,-29
-34,-87,-53,61,9,-70,9,-24,-53,-73,-63,-29
-34,-87,-53,61,9,-70,9,-29,-58,-73,-68,-29
-43,-82,-39,63,-2,-61,0,-39,-63,-82,-82,-43
-43,-78,-34,61,-4,-56,0,-34,-68,-87,-82,-53
-48,-73,-24,61,-12,-48,0,-29,-73,-92,-87,-63
-48,-73,-24,61,-12,-48,0,-29,-78,-97,-97,-73
-48,-63,-14,56,-17,-39,9,-34,-68,-107,-87,-82
-48,-68,-19,58,-14,-43,9,-34,-63,-107,-87,-82
-53,-73,-19,63,-17,-46,9,-29,-63,-107,-87,-82
-53,-78,-24,65,-14,-51,9,-29,-63,-112,-87,-82
-48,-92,-43,70,-2,-68,9,-19,-58,-107,-87,-68
-39,-92,-53,65,7,-73,14,-19,-58,-102,-82,-63
-34,-92,-58,63,12,-75,14,-14,-58,-97,-82,-58
-29,-97,-68,63,19,-82,19,-9,-58,-92,-78,-39
-29,-92,-63,61,17,-78,19,-19,-68,-102,-82,-63
-29,-82,-53,56,12,-68,19,-19,-68,-102,-87,-73
-39,-78,-39,58,0,-58,14,-19,-68,-102,-97,-82
-29,-73,-43,51,7,-58,14,-24,-68,-102,-102,-87
-39,-73,-34,56,-2,-53,19,-19,-58,-92,-97,-82
-48,-82,-34,65,-7,-58,24,-9,-58,-92,-92,-78
-48,-82,-34,65,-7,-58,29,-4,-58,-97,-87,-73
-39,-73,-34,56,-2,-53,34,0,-58,-97,-82,-63
-48,-78,-29,63,-9,-53,39,9,-58,-97,-73,-53
-48,-92,-43,70,-2,-68,48,14,-53,-92,-73,-63
-48,-87,-39,68,-4,-63,39,14,-53,-92,-73,-63
-48,-92,-43,70,-2,-68,39,14,-48,-92,-68,-53
-48,-82,-34,65,-7,-58,39,29,-39,-92,-73,-58
-43,-82,-39,63,-2,-61,43,29,-39,-87,-82,-68
-34,-78,-43,56,4,-61,43,29,-39,-87,-87,-73
-29,-78,-48,53,9,-63,39,29,-39,-87,-92,-78
-39,-73,-34,56,-2,-53,29,29,-39,-97,-102,-68
-39,-63,-24,51,-7,-43,34,24,-39,-92,-87,-68
-39,-58,-19,48,-9,-39,34,29,-43,-87,-82,-68
-39,-58,-19,48,-9,-39,39,29,-39,-87,-82,-48
-39,-68,-29,53,-4,-48,48,39,-29,-78,-73,-39
-39,-73,-34,56,-2,-53,48,39,-29,-78,-68,-48
-34,-82,-48,58,7,-65,43,34,-29,-73,-63,-48
-34,-87,-53,61,9,-70,43,34,-24,-68,-53,-43
-34,-78,-43,56,4,-61,39,29,-24,-78,-58,-19
-34,-78,-43,56,4,-61,39,29,-24,-78,-58,-34
-34,-73,-39,53,2,-56,34,34,-19,-73,-58,-34
-34,-73,-39,53,2,-56,29,34,-19,-68,-58,-34
-34,-73,-39,53,2,-56,39,29,-19,-68,-68,-43
-34,-68,-34,51,0,-51,39,29,-9,-68,-73,-48
-29,-63,-34,46,2,-48,43,29,-9,-58,-68,-48
-29,-53,-24,41,-2,-39,43,29,0,-58,-73,-43
-19,-48,-29,34,4,-39,34,29,-9,-58,-68,-39
-19,-48,-29,34,4,-39,34,29,-9,-53,-58,-34
-19,-48,-29,34,4,-39,29,29,-9,-48,-48,-29
-19,-48,-29,34,4,-39,29,34,-9,-48,-39,-19
-24,-68,-43,46,9,-56,29,43,4,-29,-29,-19
-29,-73,-43,51,7,-58,34,43,4,-29,-29,-19
-29,-82,-53,56,12,-68,39,43,4,-29,-34,-19
-24,-92,-68,58,21,-80,43,43,4,-29,-34,-14
-29,-78,-48,53,9,-63,39,39,-4,-39,-34,-24
-24,-73,-48,48,12,-61,34,34,-4,-34,-34,-24
-19,-68,-48,43,14,-58,34,29,0,-34,-34,-24
-19,-63,-43,41,12,-53,29,29,0,-34,-34,-29
-24,-53,-29,39,2,-41,43,29,4,-34,-34,-34
-24,-53,-29,39,2,-41,43,34,4,-34,-34,-34
-29,-53,-24,41,-2,-39,43,34,4,-29,-34,-39
-34,-53,-19,43,-7,-36,43,29,0,-29,-24,-43
-24,-63,-39,43,7,-51,48,34,0,-29,-24,-29
-19,-68,-48,43,14,-58,43,34,0,-29,-24,-14
-19,-73,-53,46,17,-63,43,34,0,-24,-24,-9
-19,-78,-58,48,19,-68,39,34,0,-24,-29,-9
-24,-78,-53,51,14,-65,34,34,0,-24,-29,-14
-34,-78,-43,56,4,-61,29,29,-4,-29,-29,-19
-24,-78,-53,51,14,-65,24,29,-4,-29,-29,-24
-9,-78,-68,43,29,-73,19,29,-4,-29,-29,-29
-19,-73,-53,46,17,-63,14,19,-14,-39,-39,-39
-29,-63,-34,46,2,-48,14,24,-14,-34,-34,-24
-19,-48,-29,34,4,-39,19,24,-14,-34,-24,-24
-19,-39,-19,29,0,-29,19,24,-14,-34,-34,-34
-14,-43,-29,29,7,-36,24,34,-4,-29,-34,-29
-14,-43,-29,29,7,-36,24,29,-4,-34,-29,-29
-4,-48,-43,26,19,-46,29,29,-9,-29,-24,-24
-14,-63,-48,39,17,-56,34,29,-9,-19,-14,-24
-19,-78,-58,48,19,-68,43,29,-9,-29,-14,-19
-19,-73,-53,46,17,-63,43,24,-9,-29,-24,-4
-14,-68,-53,41,19,-61,43,24,-9,-29,-24,0
-9,-73,-63,41,26,-68,39,24,-9,-29,-24,4
-19,-58,-39,39,9,-48,34,24,-14,-34,-34,-19
-24,-53,-29,39,2,-41,34,19,-19,-39,-43,-34
-24,-58,-34,41,4,-46,29,9,-24,-48,-53,-58
-24,-53,-29,39,2,-41,24,4,-29,-58,-63,-78
-29,-53,-24,41,-2,-39,19,9,-19,-43,-48,-68
-29,-58,-29,43,0,-43,24,9,-19,-39,-43,-58
-24,-68,-43,46,9,-56,29,9,-19,-43,-43,-48
-24,-78,-53,51,14,-65,34,4,-14,-39,-39,-29
-14,-87,-73,51,29,-80,34,14,-14,-19,-34,-29
-14,-87,-73,51,29,-80,39,14,-14,-19,-29,-14
-14,-87,-73,51,29,-80,39,19,-14,-19,-24,-9
-14,-82,-68,48,26,-75,39,19,-14,-24,-19,-9
-4,-73,-68,39,31,-70,34,19,-24,-34,-24,-19
-9,-78,-68,43,29,-73,29,19,-24,-34,-29,-19
-9,-87,-78,48,34,-82,24,19,-24,-34,-34,-19
-4,-73,-68,39,31,-70,19,19,-24,-34,-39,-14
-9,-63,-53,36,21,-58,24,9,-24,-39,-48,-19
-14,-68,-53,41,19,-61,24,9,-24,-43,-48,-24
-19,-68,-48,43,14,-58,19,9,-24,-48,-48,-29
-24,-48,-24,36,0,-36,19,9,-29,-53,-48,-34
-14,-53,-39,34,12,-46,29,14,-24,-48,-34,-34
-14,-58,-43,36,14,-51,29,14,-24,-43,-34,-34
-9,-68,-58,39,24,-63,29,19,-19,-39,-34,-29
-9,-82,-73,46,31,-78,29,19,-14,-39,-39,-29
-24,-82,-58,53,17,-70,39,9,-24,-48,-29,-24
-24,-78,-53,51,14,-65,34,9,-24,-48,-29,-29
-24,-78,-53,51,14,-65,34,9,-24,-53,-34,-29
-34,-82,-48,58,7,-65,39,9,-24,-53,-39,-29
-34,-78,-43,56,4,-61,29,9,-34,-53,-48,-34
-29,-78,-48,53,9,-63,29,9,-34,-53,-48,-43
-29,-73,-43,51,7,-58,29,9,-34,-53,-48,-48
-29,-68,-39,48,4,-53,29,9,-39,-53,-53,-48
-29,-58,-29,43,0,-43,19,9,-39,-53,-58,-58
-24,-63,-39,43,7,-51,19,9,-39,-58,-58,-58
-19,-68,-48,43,14,-58,19,9,-39,-63,-63,-58
-19,-73,-53,46,17,-63,19,9,-39,-68,-63,-58
-19,-87,-68,53,24,-78,24,19,-29,-53,-39,-43
-24,-92,-68,58,21,-80,29,19,-29,-53,-43,-43
-24,-97,-73,61,24,-85,34,9,-29,-48,-43,-39
-29,-107,-78,68,24,-92,39,19,-29,-48,-43,-24
-39,-102,-63,70,12,-82,29,9,-39,-48,-53,-29
-29,-97,-68,63,19,-82,29,4,-39,-48,-53,-43
-24,-92,-68,58,21,-80,29,4,-39,-48,-48,-48
-24,-82,-58,53,17,-70,24,4,-39,-48,-48,-53
-29,-68,-39,48,4,-53,19,-4,-48,-53,-53,-63
-29,-68,-39,48,4,-53,19,-4,-48,-53,-58,-73
-29,-73,-43,51,7,-58,14,0,-43,-58,-63,-73
-29,-73,-43,51,7,-58,9,0,-43,-58,-68,-68
-29,-82,-53,56,12,-68,29,9,-34,-48,-58,-58
-29,-82,-53,56,12,-68,34,9,-34,-53,-53,-53
-24,-82,-58,53,17,-70,34,9,-39,-58,-43,-48
-19,-82,-63,51,21,-73,29,9,-43,-63,-39,-43
-9,-92,-82,51,36,-87,29,9,-39,-58,-43,-43
-9,-102,-92,56,41,-97,34,14,-39,-58,-43,-43
-9,-107,-97,58,43,-102,34,14,-39,-58,-43,-43
-9,-112,-102,61,46,-107,34,14,-39,-58,-53,-43
-19,-107,-87,63,34,-97,19,9,-39,-68,-58,-53
-24,-92,-68,58,21,-80,19,9,-39,-68,-63,-63
-29,-82,-53,56,12,-68,19,9,-39,-68,-68,-78
-29,-78,-48,53,9,-63,19,9,-39,-68,-73,-68
-19,-78,-58,48,19,-68,29,0,-48,-73,-73,-68
-19,-78,-58,48,19,-68,29,0,-48,-73,-73,-68
-29,-78,-48,53,9,-63,29,4,-48,-58,-63,-63
-29,-87,-58,58,14,-73,34,4,-39,-58,-53,-58
-24,-112,-87,68,31,-100,43,9,-43,-48,-43,-43
-19,-117,-97,68,39,-107,43,14,-39,-48,-48,-34
-19,-107,-87,63,34,-97,39,19,-34,-48,-39,-24
-19,-112,-92,65,36,-102,39,19,-29,-48,-34,-14
-19,-107,-87,63,34,-97,34,9,-43,-58,-48,-24
-19,-97,-78,58,29,-87,29,9,-43,-58,-53,-34
-19,-92,-73,56,26,-82,29,9,-39,-53,-58,-34
-19,-97,-78,58,29,-87,24,4,-39,-53,-63,-53
-19,-58,-39,39,9,-48,0,4,-53,-73,-82,-82
-4,-53,-48,29,21,-51,14,4,-53,-78,-92,-92
-24,-63,-39,43,7,-51,14,4,-53,-87,-82,-73
-34,-53,-19,43,-7,-36,19,0,-43,-73,-73,-73
-19,-58,-39,39,9,-48,29,0,-48,-68,-68,-78
-29,-68,-39,48,4,-53,39,9,-39,-58,-63,-68
-29,-78,-48,53,9,-63,39,9,-39,-58,-58,-58
-29,-87,-58,58,14,-73,39,9,-39,-58,-53,-48
-29,-97,-68,63,19,-82,39,9,-39,-58,-48,-39
-19,-97,-78,58,29,-87,29,9,-39,-58,-48,-29
-19,-97,-78,58,29,-87,29,9,-39,-58,-48,-29
-19,-97,-78,58,29,-87,29,9,-39,-58,-48,-29
-19,-97,-78,58,29,-87,29,9,-39,-58,-48,-29
-29,-97,-68,63,19,-82,29,9,-39,-68,-53,-48
-29,-97,-68,63,19,-82,29,9,-39,-68,-58,-58
-29,-97,-68,63,19,-82,29,9,-39,-68,-63,-68
-29,-97,-68,63,19,-82,29,9,-39,-68,-68,-78
-29,-97,-68,63,19,-82,29,9,-39,-78,-68,-73
-29,-97,-68,63,19,-82,29,9,-39,-78,-68,-68
-29,-97,-68,63,19,-82,29,9,-39,-78,-68,-63
-29,-97,-68,63,19,-82,29,9,-39,-78,-68,-58
-19,-87,-68,53,24,-78,39,9,-39,-68,-68,-68
-19,-87,-68,53,24,-78,39,9,-39,-68,-68,-68
-19,-87,-68,53,24,-78,39,9,-39,-68,-68,-68
-19,-87,-68,53,24,-78,39,9,-39,-68,-68,-68
-19,-92,-73,56,26,-82,34,9,-48,-68,-63,-53
-19,-97,-78,58,29,-87,29,9,-48,-68,-58,-48
-19,-102,-82,61,31,-92,24,9,-48,-68,-53,-43
-19,-107,-87,63,34,-97,19,9,-48,-68,-48,-39
-19,-92,-73,56,26,-82,19,0,-48,-68,-53,-48
-19,-87,-68,53,24,-78,19,0,-48,-68,-58,-58
-19,-82,-63,51,21,-73,19,0,-48,-68,-63,-68
-14,-82,-68,48,26,-75,19,0,-48,-68,-68,-78
-19,-87,-68,53,24,-78,24,9,-48,-68,-73,-73
-29,-87,-58,58,14,-73,24,9,-48,-58,-68,-68
-34,-82,-48,58,7,-65,29,9,-48,-58,-68,-58
-39,-82,-43,61,2,-63,29,9,-48,-63,-68,-48
-24,-92,-68,58,21,-80,39,9,-43,-53,-53,-43
-19,-97,-78,58,29,-87,39,14,-39,-53,-53,-43
-14,-102,-87,58,36,-95,39,14,-34,-53,-48,-39
-9,-102,-92,56,41,-97,39,14,-29,-53,-43,-34
-14,-82,-68,48,26,-75,43,19,-29,-58,-53,-39
-19,-63,-43,41,12,-53,43,19,-29,-53,-58,-43
-24,-53,-29,39,2,-41,53,19,-29,-58,-48,-43
-34,-48,-14,41,-9,-31,58,24,-29,-63,-53,-39
-24,-34,-9,29,-7,-21,53,34,-29,-63,-58,-48
-24,-14,9,19,-17,-2,53,34,-24,-68,-63,-58
-19,0,19,9,-19,9,53,34,-24,-73,-68,-68
-19,9,29,4,-24,19,58,43,-24,-73,-73,-78
-19,4,24,7,-21,14,73,48,-4,-53,-53,-58
-24,4,29,9,-26,17,78,63,0,-43,-43,-48
-24,-4,19,14,-21,7,82,68,4,-34,-34,-34
-19,-9,9,14,-14,0,87,73,4,-29,-24,-24
-24,-19,4,21,-14,-7,87,63,19,-24,-19,-9
-24,-19,4,21,-14,-7,78,58,19,-19,-14,-4
-29,-9,19,19,-24,4,68,43,4,-19,-9,0
-29,-14,14,21,-21,0,63,29,0,-14,0,4
-19,4,24,7,-21,14,39,19,-4,-24,-4,0
-14,24,39,-4,-26,31,19,0,-14,-29,-14,-9
-4,48,53,-21,-29,51,-4,-19,-24,-39,-24,-19
0,58,58,-29,-29,58,-9,-29,-34,-43,-34,-29
0,58,58,-29,-29,58,-9,-29,-29,-43,-43,-39
4,68,63,-36,-29,65,-19,-29,-29,-43,-43,-43
9,73,63,-41,-26,68,-19,-24,-29,-43,-43,-43
9,82,73,-46,-31,78,-19,-14,-34,-43,-48,-39
14,58,43,-36,-14,51,0,-4,-29,-34,-34,-14
14,29,14,-21,0,21,4,-4,-24,-29,-29,-4
29,14,-14,-21,21,0,9,-4,-19,-24,-24,-9
34,-14,-48,-9,41,-31,19,0,-14,-19,-19,14
24,-19,-43,-2,34,-31,4,-9,-24,-24,-29,4
24,-24,-48,0,36,-36,-4,-9,-24,-29,-29,4
39,-24,-63,-7,51,-43,-9,-4,-24,-34,-29,-4
29,-29,-58,0,43,-43,-19,0,-14,-34,-29,4
29,-24,-53,-2,41,-39,-24,-4,-14,-34,-39,-14
24,-34,-58,4,41,-46,-29,-9,-19,-39,-43,-29
19,-34,-53,7,36,-43,-34,-14,-29,-53,-53,-43
14,-34,-48,9,31,-41,-29,-19,-34,-63,-68,-53
0,-68,-68,34,34,-68,-9,-4,-29,-63,-58,-48
-19,-78,-58,48,19,-68,0,0,-34,-68,-58,-48
-34,-87,-53,61,9,-70,9,4,-39,-63,-58,-53
-39,-102,-63,70,12,-82,29,4,-43,-58,-58,-48
-29,-112,-82,70,26,-97,34,4,-43,-48,-58,-53
-29,-122,-92,75,31,-107,34,9,-48,-58,-68,-58
-29,-122,-92,75,31,-107,29,9,-48,-63,-68,-73
-34,-122,-87,78,26,-104,29,9,-48,-68,-68,-82
-24,-112,-87,68,31,-100,24,0,-58,-78,-78,-73
-24,-117,-92,70,34,-104,24,0,-58,-78,-78,-73
-24,-117,-92,70,34,-104,29,0,-58,-82,-82,-78
-29,-112,-82,70,26,-97,29,0,-68,-82,-87,-78
-29,-112,-82,70,26,-97,19,-9,-73,-87,-102,-87
-19,-117,-97,68,39,-107,14,-14,-73,-102,-107,-97
-19,-122,-102,70,41,-112,14,-14,-73,-107,-112,-102
-29,-122,-92,75,31,-107,19,-14,-73,-107,-112,-102
-48,-126,-78,87,14,-102,29,0,-63,-97,-107,-97
-48,-141,-92,95,21,-117,29,0,-63,-107,-102,-92
-48,-136,-87,92,19,-112,34,0,-63,-107,-102,-92
-43,-141,-97,92,26,-119,34,0,-63,-107,-97,-87
-34,-141,-107,87,36,-124,34,9,-53,-102,-87,-87
-34,-146,-112,90,39,-129,34,9,-58,-97,-87,-82
-29,-146,-117,87,43,-131,34,9,-58,-97,-87,-82
-29,-146,-117,87,43,-131,34,9,-58,-92,-87,-82
-39,-136,-97,87,29,-117,34,9,-68,-97,-92,-82
-39,-136,-97,87,29,-117,34,9,-68,-97,-92,-82
-43,-136,-92,90,24,-114,34,14,-63,-102,-97,-82
-43,-141,-97,92,26,-119,39,14,-63,-107,-102,-87
-39,-151,-112,95,36,-131,39,4,-68,-97,-92,-97
-39,-151,-112,95,36,-131,39,4,-68,-97,-92,-92
-48,-151,-102,100,26,-126,43,4,-63,-97,-87,-82
-48,-161,-112,104,31,-136,48,4,-63,-97,-87,-82
-43,-161,-117,102,36,-139,48,19,-63,-97,-87,-82
-39,-156,-117,97,39,-136,43,19,-63,-97,-87,-82
-39,-146,-107,92,34,-126,43,9,-63,-97,-92,-87
-39,-146,-107,92,34,-126,39,9,-73,-97,-92,-102
-58,-156,-97,107,19,-126,48,4,-63,-102,-102,-112
-39,-146,-107,92,34,-126,39,4,-63,-102,-102,-97
-19,-136,-117,78,48,-126,29,9,-48,-87,-87,-82
-14,-131,-117,73,51,-124,39,9,-48,-78,-78,-82
-19,-151,-131,85,56,-141,48,29,-39,-82,-78,-82
-4,-170,-165,87,80,-168,48,73,-4,-58,-63,-68
4,-175,-180,85,92,-178,53,102,53,-19,-43,-43
9,-156,-165,73,87,-161,58,131,136,63,9,-29
9,-82,-92,36,51,-87,58,161,229,175,92,34
39,-9,-48,-14,43,-29,39,156,297,307,224,136
102,53,-48,-78,75,2,-9,107,341,458,395,273
131,161,29,-146,51,95,-48,39,361,624,566,434
141,278,136,-209,2,207,-92,-48,361,790,761,595
161,356,195,-258,-17,275,-131,-141,366,966,971,761
200,424,224,-312,-12,324,-175,-253,356,1102,1127,902
224,541,317,-383,-46,429,-234,-366,307,1200,1229,971
239,634,395,-436,-78,514,-278,-473,239,1263,1298,1029
239,673,434,-456,-97,553,-283,-561,180,1283,1346,1063
229,673,444,-451,-107,558,-292,-639,112,1268,1342,1068
204,663,458,-434,-126,561,-326,-727,4,1220,1317,1049
161,644,483,-402,-161,563,-380,-834,-151,1102,1220,980
82,595,512,-339,-214,553,-429,-936,-331,873,1015,819
24,512,488,-268,-231,500,-453,-1034,-507,561,697,580
-39,385,424,-173,-231,405,-458,-1093,-692,165,283,268
-112,263,375,-75,-244,319,-439,-1117,-844,-234,-117,-53
-165,209,375,-21,-270,292,-414,-1117,-956,-512,-361,-224
-165,185,351,-9,-258,268,-424,-1093,-1005,-610,-419,-258
-146,126,273,9,-209,200,-405,-1005,-951,-600,-429,-258
-146,63,209,41,-178,136,-390,-893,-883,-585,-424,-263
-126,43,170,41,-148,107,-380,-800,-819,-566,-419,-263
-107,39,146,34,-126,92,-341,-692,-722,-522,-390,-244
-107,19,126,43,-117,73,-263,-551,-585,-448,-356,-224
-122,-9,112,65,-117,51,-180,-419,-468,-375,-317,-224
-102,-14,87,58,-95,36,-136,-336,-385,-326,-292,-219
-78,-29,48,53,-63,9,-112,-268,-312,-292,-273,-214
-78,-43,34,61,-56,-4,-78,-195,-244,-239,-224,-180
-68,-39,29,53,-48,-4,-58,-136,-200,-190,-170,-141
-48,-39,9,43,-29,-14,-53,-117,-175,-161,-141,-126
-58,-58,0,58,-29,-29,-24,-82,-151,-141,-122,-102
-63,-82,-19,73,-21,-51,-4,-39,-136,-136,-117,-92
-48,-78,-29,63,-9,-53,-4,-24,-117,-131,-117,-107
-19,-73,-53,46,17,-63,9,-9,-92,-122,-126,-117
-9,-87,-78,48,34,-82,43,9,-68,-112,-131,-117
-29,-102,-73,65,21,-87,53,14,-48,-117,-131,-107
-39,-102,-63,70,12,-82,43,29,-48,-102,-107,-97
-39,-107,-68,73,14,-87,43,39,-39,-97,-97,-92
-39,-107,-68,73,14,-87,53,48,-39,-92,-82,-78
-39,-107,-68,73,14,-87,58,53,-43,-92,-78,-63
-48,-112,-63,80,7,-87,58,53,-34,-92,-92,-78
-34,-112,-78,73,21,-95,58,53,-34,-92,-97,-92
-34,-122,-87,78,26,-104,63,48,-24,-92,-102,-97
-34,-122,-87,78,26,-104,63,48,-14,-82,-102,-97
-34,-107,-73,70,19,-90,58,43,-9,-92,-102,-92
-34,-107,-73,70,19,-90,58,43,-14,-92,-102,-92
-24,-102,-78,63,26,-90,58,43,-24,-92,-102,-92
-19,-87,-68,53,24,-78,58,53,-29,-87,-97,-92
-29,-102,-73,65,21,-87,68,58,-14,-78,-82,-78
-34,-107,-73,70,19,-90,73,63,-4,-68,-78,-68
-34,-112,-78,73,21,-95,78,68,0,-58,-73,-58
-34,-122,-87,78,26,-104,82,78,9,-43,-63,-43
-29,-112,-82,70,26,-97,78,68,9,-48,-73,-53
-19,-107,-87,63,34,-97,73,68,4,-58,-78,-58
-14,-97,-82,56,34,-90,73,68,0,-68,-82,-68
-9,-112,-102,61,46,-107,68,68,-4,-73,-87,-73
-14,-107,-92,61,39,-100,68,63,-14,-73,-87,-82
-19,-102,-82,61,31,-92,68,63,-4,-73,-87,-87
-24,-92,-68,58,21,-80,73,63,-14,-73,-92,-102
-29,-87,-58,58,14,-73,73,63,-14,-73,-102,-107
-19,-87,-68,53,24,-78,82,73,0,-63,-78,-82
-19,-92,-73,56,26,-82,82,73,4,-58,-68,-78
-19,-102,-82,61,31,-92,82,78,4,-58,-58,-78
-19,-107,-87,63,34,-97,82,78,4,-58,-53,-73
-19,-107,-87,63,34,-97,82,73,9,-58,-63,-58
-19,-107,-87,63,34,-97,82,73,9,-58,-63,-58
-19,-102,-82,61,31,-92,82,73,9,-58,-63,-58
-19,-102,-82,61,31,-92,82,73,9,-53,-63,-58
-29,-87,-58,58,14,-73,82,73,0,-63,-68,-63
-29,-82,-53,56,12,-68,78,73,0,-63,-73,-63
-24,-78,-53,51,14,-65,73,73,4,-63,-78,-68
-24,-68,-43,46,9,-56,63,73,4,-63,-78,-73
-9,-58,-48,34,19,-53,68,78,14,-53,-68,-63
-9,-48,-39,29,14,-43,68,78,14,-53,-68,-63
-14,-58,-43,36,14,-51,68,87,19,-48,-68,-63
-14,-68,-53,41,19,-61,68,87,19,-48,-68,-68
-24,-78,-53,51,14,-65,78,78,19,-39,-58,-58
-19,-82,-63,51,21,-73,78,78,19,-34,-58,-43
-19,-92,-73,56,26,-82,82,82,24,-34,-53,-43
-29,-107,-78,68,24,-92,82,82,24,-29,-43,-43
-19,-97,-78,58,29,-87,78,78,24,-39,-43,-58
-14,-97,-82,56,34,-90,78,78,29,-39,-53,-58
-14,-92,-78,53,31,-85,78,82,34,-39,-53,-53
-14,-92,-78,53,31,-85,78,82,34,-39,-48,-53
4,-78,-82,36,43,-80,58,78,24,-39,-58,-63
4,-73,-78,34,41,-75,58,78,24,-39,-58,-63
-14,-68,-53,41,19,-61,58,82,24,-34,-58,-68
-14,-63,-48,39,17,-56,58,82,24,-34,-58,-73
-9,-58,-48,34,19,-53,53,73,24,-34,-53,-63
-9,-53,-43,31,17,-48,53,78,24,-29,-53,-53
-4,-48,-43,26,19,-46,53,78,29,-29,-53,-48
-4,-43,-39,24,17,-41,48,78,29,-29,-53,-48
-14,-48,-34,31,9,-41,53,87,39,-19,-43,-43
-9,-48,-39,29,14,-43,58,87,43,-19,-43,-43
-9,-53,-43,31,17,-48,73,97,43,-19,-39,-43
-9,-58,-48,34,19,-53,78,97,43,-14,-39,-43
0,-63,-63,31,31,-63,82,102,58,-9,-24,-34
0,-68,-68,34,34,-68,82,107,58,-4,-24,-29
0,-73,-73,36,36,-73,82,107,58,-4,-24,-29
0,-78,-78,39,39,-78,73,107,58,-4,-29,-39
-4,-53,-48,29,21,-51,68,107,58,-4,-39,-48
-4,-48,-43,26,19,-46,58,107,63,4,-29,-34
0,-48,-48,24,24,-48,53,107,68,4,-29,-34
0,-43,-43,21,21,-43,48,117,73,9,-24,-34
9,-48,-58,19,34,-53,53,117,78,14,-9,-29
9,-53,-63,21,36,-58,63,122,82,19,-4,-19
9,-53,-63,21,36,-58,68,122,87,19,0,-4
9,-53,-63,21,36,-58,68,131,87,24,9,0
4,-48,-53,21,29,-51,58,122,92,24,9,-4
9,-39,-48,14,29,-43,58,126,97,24,9,-4
4,-34,-39,14,21,-36,58,131,107,34,9,-4
0,-29,-29,14,14,-29,58,136,107,43,19,4
4,-19,-24,7,14,-21,58,136,117,48,14,0
9,-29,-39,9,24,-34,58,146,131,53,24,4
14,-29,-43,7,29,-36,58,151,141,58,34,9
29,-19,-48,-4,39,-34,58,151,141,63,34,9
29,-14,-43,-7,36,-29,43,141,136,78,39,14
29,-9,-39,-9,34,-24,48,146,141,82,43,19
29,-4,-34,-12,31,-19,43,146,146,97,48,34
29,0,-29,-14,29,-14,39,151,156,97,53,48
29,4,-24,-17,26,-9,39,165,161,92,58,39
29,19,-9,-24,19,4,29,175,175,97,63,39
29,19,-9,-24,19,4,29,180,180,112,68,48
34,19,-14,-26,24,2,29,185,180,122,82,58
24,19,-4,-21,14,7,39,185,204,141,92,82
39,19,-19,-29,29,0,34,185,219,156,112,82
39,29,-9,-34,24,9,34,185,229,170,126,87
43,48,4,-46,19,26,34,200,239,180,131,97
53,58,4,-56,24,31,19,209,244,185,131,92
53,63,9,-58,21,36,14,209,258,195,141,102
48,68,19,-58,14,43,9,209,268,209,161,112
48,78,29,-63,9,53,4,204,283,229,170,131
63,102,39,-82,12,70,4,209,292,253,190,151
73,112,39,-92,17,75,-4,214,302,268,209,156
78,122,43,-100,17,82,-4,219,317,283,229,170
82,131,48,-107,17,90,-4,219,331,297,239,200
87,126,39,-107,24,82,-4,224,336,302,253,200
87,136,48,-112,19,92,-9,224,341,317,263,204
97,141,43,-119,26,92,-19,224,351,326,263,200
102,141,39,-122,31,90,-24,224,361,331,278,204
92,161,68,-126,12,114,-14,224,370,351,297,224
102,180,78,-141,12,129,-19,224,380,366,302,234
102,190,87,-146,7,139,-19,229,385,370,307,239
107,195,87,-151,9,141,-19,234,400,385,317,253
117,214,97,-165,9,156,-39,224,405,385,326,253
117,214,97,-165,9,156,-43,219,405,395,326,248
122,214,92,-168,14,153,-48,219,400,405,322,244
122,229,107,-175,7,168,-53,219,395,414,331,253
117,219,102,-168,7,161,-48,209,409,434,351,273
112,224,112,-168,0,168,-53,209,414,439,370,287
112,224,112,-168,0,168,-53,209,414,444,375,297
112,224,112,-168,0,168,-53,209,419,444,385,312
112,244,131,-178,-9,187,-58,214,409,434,375,307
112,248,136,-180,-12,192,-63,209,409,434,380,302
112,248,136,-180,-12,192,-68,204,405,439,380,302
112,253,141,-183,-14,197,-68,200,405,439,380,297
112,253,141,-183,-14,197,-73,190,395,429,385,297
107,253,146,-180,-19,200,-78,185,395,429,380,297
107,253,146,-180,-19,200,-78,175,385,429,370,287
102,253,151,-178,-24,202,-78,175,375,429,366,287
97,234,136,-165,-19,185,-63,185,375,429,361,292
97,244,146,-170,-24,195,-63,180,361,424,366,287
92,244,151,-168,-29,197,-63,170,351,409,361,283
92,239,146,-165,-26,192,-58,165,346,400,356,287
92,229,136,-161,-21,183,-48,165,336,380,346,273
92,229,136,-161,-21,183,-48,151,317,361,322,263
87,224,136,-156,-24,180,-43,146,302,346,302,234
82,224,141,-153,-29,183,-39,136,283,331,283,214
78,204,126,-141,-24,165,-48,126,263,297,258,219
68,195,126,-131,-29,161,-39,126,248,278,244,209
68,175,107,-122,-19,141,-29,122,229,258,234,195
58,170,112,-114,-26,141,-29,107,219,239,214,175
63,161,97,-112,-17,129,-29,97,204,224,190,156
58,146,87,-102,-14,117,-24,87,190,200,175,131
58,141,82,-100,-12,112,-19,82,180,180,156,112
53,126,73,-90,-9,100,-19,73,156,161,146,97
34,112,78,-73,-21,95,-9,82,141,151,131,92
29,102,73,-65,-21,87,-9,78,131,131,122,92
29,97,68,-63,-19,82,-9,78,112,122,107,92
29,82,53,-56,-12,68,-9,73,97,102,92,73
39,58,19,-48,9,39,-4,58,87,97,78,53
29,48,19,-39,4,34,4,48,78,87,68,43
29,43,14,-36,7,29,9,43,68,68,53,39
19,29,9,-24,4,19,14,39,58,48,39,14
4,34,29,-19,-12,31,24,34,39,24,14,9
14,29,14,-21,0,21,19,29,24,9,4,9
24,29,4,-26,9,17,9,19,14,-4,-4,-4
14,14,0,-14,7,7,4,14,4,-9,-9,-19
-4,19,24,-7,-14,21,-4,9,0,-19,-14,-39
-9,9,19,0,-14,14,4,4,-4,-34,-29,-43
-9,0,9,4,-9,4,4,4,-14,-43,-39,-48
-9,0,9,4,-9,4,0,-4,-19,-48,-53,-68
-9,4,14,2,-12,9,4,0,-29,-53,-58,-58
-9,0,9,4,-9,4,9,0,-29,-48,-58,-53
-9,0,9,4,-9,4,14,-4,-39,-53,-58,-48
-9,0,9,4,-9,4,19,-9,-48,-58,-68,-63
0,-14,-14,7,7,-14,4,-14,-39,-58,-63,-53
0,-14,-14,7,7,-14,4,-14,-43,-63,-58,-48
-9,-19,-9,14,0,-14,0,-14,-43,-73,-53,-48
-9,-29,-19,19,4,-24,0,-19,-48,-73,-48,-48
-24,-34,-9,29,-7,-21,9,-19,-53,-78,-58,-58
-24,-34,-9,29,-7,-21,9,-19,-58,-78,-68,-63
-19,-34,-14,26,-2,-24,14,-24,-58,-87,-78,-68
-19,-34,-14,26,-2,-24,14,-24,-63,-92,-87,-82
-14,-34,-19,24,2,-26,24,-24,-63,-92,-78,-73
-14,-34,-19,24,2,-26,24,-24,-63,-92,-82,-73
-14,-39,-24,26,4,-31,29,-19,-63,-97,-82,-73
-9,-48,-39,29,14,-43,29,-19,-63,-102,-82,-73
-9,-39,-29,24,9,-34,19,-29,-73,-92,-82,-73
-9,-39,-29,24,9,-34,19,-34,-73,-92,-78,-73
-14,-48,-34,31,9,-41,19,-34,-73,-92,-78,-68
-14,-53,-39,34,12,-46,19,-34,-78,-92,-78,-68
-24,-63,-39,43,7,-51,19,-24,-87,-107,-92,-92
-24,-58,-34,41,4,-46,19,-24,-92,-122,-107,-97
-24,-58,-34,41,4,-46,19,-24,-92,-126,-117,-102
-24,-58,-34,41,4,-46,19,-29,-97,-131,-126,-107
-14,-63,-48,39,17,-56,29,-29,-92,-122,-112,-102
-14,-68,-53,41,19,-61,29,-24,-87,-117,-102,-92
-19,-73,-53,46,17,-63,29,-19,-82,-112,-97,-82
-19,-82,-63,51,21,-73,29,-19,-78,-107,-97,-73
-19,-73,-53,46,17,-63,19,-34,-82,-112,-112,-97
-19,-68,-48,43,14,-58,19,-34,-82,-117,-117,-102
-24,-63,-39,43,7,-51,19,-29,-87,-122,-122,-107
-24,-58,-34,41,4,-46,19,-29,-92,-131,-126,-112
-34,-58,-24,46,-4,-41,19,-29,-97,-131,-122,-112
-29,-53,-24,41,-2,-39,24,-29,-97,-131,-122,-112
-29,-48,-19,39,-4,-34,24,-24,-97,-131,-126,-112
-29,-48,-19,39,-4,-34,29,-19,-97,-131,-126,-97
-19,-53,-34,36,7,-43,29,-9,-87,-131,-117,-102
-19,-53,-34,36,7,-43,29,-9,-87,-131,-117,-102
-29,-58,-29,43,0,-43,24,-9,-87,-131,-122,-102
-19,-63,-43,41,12,-53,24,-14,-87,-131,-122,-97
-19,-58,-39,39,9,-48,14,-24,-97,-141,-126,-107
-29,-63,-34,46,2,-48,14,-19,-97,-141,-131,-117
-29,-58,-29,43,0,-43,14,-19,-97,-146,-136,-126
-19,-43,-24,31,2,-34,14,-19,-97,-146,-141,-131
-29,-48,-19,39,-4,-34,24,-9,-92,-141,-126,-122
-29,-63,-34,46,2,-48,39,-4,-82,-131,-122,-122
-29,-58,-29,43,0,-43,34,-4,-78,-126,-117,-112
-29,-63,-34,46,2,-48,39,-4,-68,-122,-107,-92
-34,-53,-19,43,-7,-36,29,0,-78,-131,-112,-107
-34,-53,-19,43,-7,-36,34,0,-78,-126,-122,-117
-29,-48,-19,39,-4,-34,34,0,-78,-126,-126,-122
-29,-48,-19,39,-4,-34,29,0,-78,-126,-131,-126
-19,-58,-39,39,9,-48,29,4,-63,-117,-126,-117
-19,-53,-34,36,7,-43,34,4,-58,-112,-107,-107
-19,-53,-34,36,7,-43,34,14,-58,-107,-97,-97
-19,-58,-39,39,9,-48,39,19,-48,-107,-92,-68
-29,-43,-14,36,-7,-29,34,14,-53,-117,-112,-87
-29,-34,-4,31,-12,-19,29,9,-58,-117,-117,-107
-24,-29,-4,26,-9,-17,19,0,-63,-112,-122,-117
-24,-19,4,21,-14,-7,14,-4,-63,-107,-122,-122
-24,-19,4,21,-14,-7,19,0,-53,-107,-117,-107
-24,-19,4,21,-14,-7,19,0,-53,-107,-117,-122
-24,-14,9,19,-17,-2,14,4,-48,-102,-117,-122
-24,-14,9,19,-17,-2,9,4,-48,-97,-117,-122
-9,-34,-24,21,7,-29,19,9,-48,-87,-97,-97
-4,-39,-34,21,14,-36,19,9,-39,-87,-92,-87
4,-43,-48,19,26,-46,24,9,-39,-78,-78,-73
9,-43,-53,17,31,-48,24,9,-29,-78,-73,-53
4,-24,-29,9,17,-26,14,19,-19,-78,-82,-58
0,-19,-19,9,9,-19,14,19,-19,-73,-78,-63
-4,-14,-9,9,2,-12,9,19,-19,-68,-73,-68
-9,-9,0,9,-4,-4,9,24,-19,-68,-68,-68
-9,-14,-4,12,-2,-9,9,34,-4,-48,-48,-58
-9,-14,-4,12,-2,-9,14,34,-4,-48,-48,-58
-4,-19,-14,12,4,-17,19,34,-4,-48,-53,-58
4,-24,-29,9,17,-26,24,34,-4,-48,-53,-53
-4,-34,-29,19,12,-31,24,29,-9,-58,-63,-53
-4,-34,-29,19,12,-31,24,24,-14,-53,-63,-53
-4,-34,-29,19,12,-31,29,19,-14,-53,-63,-53
-9,-34,-24,21,7,-29,29,19,-19,-53,-63,-58
-9,-29,-19,19,4,-24,29,9,-14,-53,-53,-58
-4,-24,-19,14,7,-21,24,14,-14,-53,-53,-53
-4,-19,-14,12,4,-17,19,14,-14,-48,-53,-53
-4,-14,-9,9,2,-12,14,9,-19,-48,-43,-53
-4,-19,-14,12,4,-17,19,14,-9,-39,-43,-53
0,-19,-19,9,9,-19,14,14,-9,-39,-43,-43
0,-19,-19,9,9,-19,14,14,-9,-34,-43,-43
0,-19,-19,9,9,-19,9,14,-9,-34,-48,-48
-4,-14,-9,9,2,-12,19,24,-9,-43,-58,-53
-14,-9,4,12,-9,-2,19,19,-14,-48,-58,-58
-4,-4,0,4,-2,-2,19,19,-14,-48,-58,-63
9,0,-9,-4,9,-4,19,19,-14,-48,-58,-68
9,-14,-24,2,17,-19,24,19,-24,-48,-58,-58
0,-14,-14,7,7,-14,24,24,-24,-43,-53,-43
9,-9,-19,0,14,-14,29,24,-24,-43,-43,-43
9,-9,-19,0,14,-14,29,24,-24,-43,-53,-53
0,-14,-14,7,7,-14,29,24,-24,-43,-48,-48
-4,-14,-9,9,2,-12,24,19,-24,-53,-48,-48
0,-19,-19,9,9,-19,24,19,-29,-53,-48,-43
-14,-34,-19,24,2,-26,24,19,-29,-48,-43,-43
-19,-29,-9,24,-4,-19,14,9,-39,-63,-58,-68
-19,-14,4,17,-12,-4,14,4,-39,-68,-73,-63
-14,0,14,7,-14,7,14,4,-39,-73,-78,-68
-9,4,14,2,-12,9,9,4,-39,-78,-82,-73
0,0,0,0,0,0,19,9,-29,-63,-73,-68
-4,-4,0,4,-2,-2,24,9,-29,-58,-63,-63
-4,-19,-14,12,4,-17,24,4,-29,-58,-53,-68
-4,-24,-19,14,7,-21,24,4,-29,-58,-43,-68
-19,-14,4,17,-12,-4,4,9,-34,-68,-58,-78
-19,-9,9,14,-14,0,4,9,-39,-68,-63,-78
-14,-9,4,12,-9,-2,4,9,-43,-78,-73,-78
-14,-9,4,12,-9,-2,4,4,-43,-78,-78,-68
-4,-14,-9,9,2,-12,9,-4,-43,-68,-78,-73
-4,-19,-14,12,4,-17,19,-4,-43,-68,-78,-63
-4,-24,-19,14,7,-21,24,0,-43,-68,-78,-63
-4,-24,-19,14,7,-21,29,0,-43,-73,-78,-68
-4,-19,-14,12,4,-17,24,0,-43,-63,-73,-58
-9,-19,-9,14,0,-14,19,0,-43,-63,-68,-58
-9,-24,-14,17,2,-19,14,0,-43,-63,-63,-58
-4,-4,0,4,-2,-2,9,0,-43,-63,-58,-53
4,-4,-9,0,7,-7,4,0,-53,-73,-63,-58
4,-19,-24,7,14,-21,4,0,-53,-73,-68,-63
4,-29,-34,12,19,-31,0,0,-53,-73,-73,-68
4,-19,-24,7,14,-21,0,0,-58,-73,-78,-73
-4,-19,-14,12,4,-17,14,9,-48,-63,-63,-73
-4,-19,-14,12,4,-17,19,4,-53,-63,-63,-73
0,-24,-24,12,12,-24,24,4,-53,-63,-63,-68
0,-34,-34,17,17,-34,29,0,-53,-68,-68,-68
-4,-24,-19,14,7,-21,14,-9,-63,-82,-82,-82
-4,-9,-4,7,0,-7,4,-9,-63,-87,-87,-97
-4,0,4,2,-4,2,0,-9,-63,-97,-97,-107
-14,4,19,4,-17,12,0,-9,-63,-102,-107,-117
-24,-19,4,21,-14,-7,14,0,-58,-87,-97,-97
-19,-29,-9,24,-4,-19,19,0,-53,-82,-87,-92
-19,-34,-14,26,-2,-24,24,0,-48,-78,-78,-82
-19,-39,-19,29,0,-29,29,0,-48,-73,-73,-68
-19,-34,-14,26,-2,-24,29,0,-58,-78,-82,-78
-14,-34,-19,24,2,-26,29,0,-58,-78,-78,-78
-9,-34,-24,21,7,-29,29,0,-58,-78,-78,-78
-9,-34,-24,21,7,-29,29,0,-58,-78,-73,-78
0,-24,-24,12,12,-24,19,0,-58,-68,-63,-68
-4,-24,-19,14,7,-21,19,0,-58,-73,-73,-73
-4,-24,-19,14,7,-21,19,-9,-58,-73,-78,-73
-9,-29,-19,19,4,-24,19,0,-58,-78,-82,-63
-19,-19,0,19,-9,-9,9,0,-68,-78,-82,-73
-9,-19,-9,14,0,-14,9,-4,-68,-78,-82,-82
-4,-19,-14,12,4,-17,9,-4,-68,-78,-78,-82
-4,-14,-9,9,2,-12,4,-4,-68,-78,-78,-82
-9,-14,-4,12,-2,-9,14,-4,-58,-78,-87,-82
-9,-19,-9,14,0,-14,19,-4,-58,-73,-87,-92
-9,-29,-19,19,4,-24,19,0,-53,-73,-87,-92
-9,-34,-24,21,7,-29,19,0,-53,-68,-87,-87
0,-29,-29,14,14,-29,24,-9,-63,-78,-92,-92
0,-24,-24,12,12,-24,24,-9,-63,-82,-92,-92
4,-19,-24,7,14,-21,19,-9,-68,-87,-87,-92
9,-14,-24,2,17,-19,9,-9,-73,-92,-87,-92
4,-14,-19,4,12,-17,9,-9,-68,-87,-92,-102
0,-14,-14,7,7,-14,14,-4,-68,-87,-92,-102
-4,-9,-4,7,0,-7,14,-4,-68,-87,-92,-102
-9,-4,4,7,-7,0,14,-4,-68,-87,-102,-102
0,-19,-19,9,9,-19,19,0,-63,-82,-97,-97
-4,-24,-19,14,7,-21,19,0,-58,-78,-92,-92
-9,-34,-24,21,7,-29,19,0,-53,-73,-87,-92
-9,-48,-39,29,14,-43,19,0,-48,-68,-82,-68
-9,-39,-29,24,9,-34,9,-9,-53,-78,-97,-82
-9,-29,-19,19,4,-24,9,-9,-58,-82,-102,-87
-19,-19,0,19,-9,-9,9,-4,-63,-73,-97,-87
-19,-19,0,19,-9,-9,14,-4,-58,-78,-92,-87
-24,-39,-14,31,-4,-26,24,4,-58,-73,-78,-82
-19,-39,-19,29,0,-29,24,4,-58,-78,-87,-82
-19,-24,-4,21,-7,-14,19,4,-58,-82,-82,-82
-19,-24,-4,21,-7,-14,19,0,-58,-87,-82,-82
-14,-19,-4,17,-4,-12,14,-9,-73,-97,-87,-87
-9,-9,0,9,-4,-4,9,-9,-73,-97,-92,-92
-4,-4,0,4,-2,-2,9,-9,-68,-92,-97,-87
0,-9,-9,4,4,-9,4,-14,-68,-92,-102,-102
-9,0,9,4,-9,4,9,-24,-73,-92,-102,-112
-4,4,9,0,-7,7,4,-24,-63,-87,-92,-102
-4,-4,0,4,-2,-2,4,-4,-73,-97,-92,-92
-4,-24,-19,14,7,-21,9,-9,-63,-102,-92,-102
0,-39,-39,19,19,-39,19,0,-58,-78,-87,-78
-9,-29,-19,19,4,-24,19,-4,-68,-82,-92,-82
-9,-29,-19,19,4,-24,19,-9,-68,-87,-97,-87
-9,-29,-19,19,4,-24,19,-14,-68,-92,-102,-92
-9,-29,-19,19,4,-24,19,-19,-68,-97,-107,-97
-9,-19,-9,14,0,-14,14,-19,-68,-107,-107,-107
-9,-19,-9,14,0,-14,9,-19,-68,-107,-107,-107
-9,-19,-9,14,0,-14,4,-19,-68,-107,-107,-107
-9,-19,-9,14,0,-14,0,-19,-68,-107,-107,-107
-9,-9,0,9,-4,-4,0,-9,-58,-92,-97,-92
-9,-9,0,9,-4,-4,0,-9,-58,-87,-97,-87
-9,-9,0,9,-4,-4,0,-9,-58,-82,-97,-82
-9,-9,0,9,-4,-4,0,-9,-58,-78,-97,-78
-9,-14,-4,12,-2,-9,9,-19,-68,-82,-107,-82
-9,-19,-9,14,0,-14,9,-19,-68,-87,-107,-87
-9,-24,-14,17,2,-19,9,-19,-68,-92,-107,-92
-9,-29,-19,19,4,-24,9,-19,-68,-97,-107,-97
-19,-29,-9,24,-4,-19,9,-9,-78,-107,-117,-107
-19,-29,-9,24,-4,-19,9,-9,-78,-107,-117,-107
-19,-29,-9,24,-4,-19,9,-9,-78,-107,-117,-107
-19,-29,-9,24,-4,-19,9,-9,-78,-107,-117,-107
-14,-14,0,14,-7,-7,4,-14,-78,-97,-107,-107
-9,0,9,4,-9,4,0,-19,-78,-97,-107,-107
-4,14,19,-4,-12,17,-4,-24,-78,-97,-107,-107
0,29,29,-14,-14,29,-9,-29,-78,-97,-107,-107
-4,9,14,-2,-9,12,0,-14,-68,-87,-97,-97
-9,-9,0,9,-4,-4,9,-9,-68,-87,-97,-97
-14,-29,-14,21,0,-21,19,-4,-68,-87,-97,-97
-19,-48,-29,34,4,-39,29,0,-68,-87,-97,-97
-9,-39,-29,24,9,-34,24,-4,-78,-87,-107,-87
-9,-29,-19,19,4,-24,19,-9,-78,-87,-107,-87
-4,-24,-19,14,7,-21,14,-14,-78,-87,-107,-87
-4,-19,-14,12,4,-17,4,-19,-78,-87,-102,-87
-9,-19,-9,14,0,-14,14,-9,-78,-82,-107,-102
-9,-14,-4,12,-2,-9,19,-9,-78,-87,-107,-102
-9,-14,-4,12,-2,-9,19,-9,-78,-97,-107,-102
-9,-19,-9,14,0,-14,19,-9,-78,-102,-107,-107
-9,-29,-19,19,4,-24,19,-4,-78,-92,-102,-107
-9,-29,-19,19,4,-24,19,-4,-78,-92,-102,-102
-9,-24,-14,17,2,-19,19,-4,-78,-92,-102,-97
-9,-9,0,9,-4,-4,24,0,-73,-92,-97,-92
0,9,9,-4,-4,9,14,0,-58,-92,-107,-92
0,19,19,-9,-9,19,24,0,-53,-92,-92,-87
-4,24,29,-9,-17,26,29,4,-48,-92,-92,-78
-4,39,43,-17,-24,41,34,14,-48,-87,-92,-78
-14,63,78,-24,-46,70,24,9,-53,-87,-92,-87
-9,73,82,-31,-46,78,24,4,-53,-87,-92,-87
-9,78,87,-34,-48,82,29,9,-53,-82,-92,-87
-9,82,92,-36,-51,87,39,4,-43,-78,-82,-87
-9,87,97,-39,-53,92,48,24,-29,-68,-73,-78
-4,82,87,-39,-46,85,48,24,-24,-58,-73,-73
4,82,78,-43,-36,80,48,24,-24,-53,-73,-73
14,82,68,-48,-26,75,48,24,-19,-48,-73,-63
0,87,87,-43,-43,87,43,19,-29,-58,-78,-68
-9,102,112,-46,-61,107,39,4,-43,-63,-82,-73
-14,102,117,-43,-65,109,39,-9,-48,-63,-82,-78
-14,102,117,-43,-65,109,34,-14,-48,-58,-82,-78
-9,122,131,-56,-70,126,14,-29,-43,-48,-78,-63
0,136,136,-68,-68,136,-9,-43,-48,-53,-73,-58
4,136,131,-70,-63,134,-14,-48,-53,-53,-68,-53
19,126,107,-73,-43,117,-29,-53,-58,-53,-63,-48
24,136,112,-80,-43,124,-48,-58,-68,-58,-68,-63
29,131,102,-80,-36,117,-48,-58,-68,-63,-73,-63
29,131,102,-80,-36,117,-48,-53,-73,-68,-82,-58
24,122,97,-73,-36,109,-43,-53,-73,-78,-87,-53
14,97,82,-56,-34,90,-43,-53,-63,-78,-87,-63
29,97,68,-63,-19,82,-43,-53,-63,-78,-87,-78
34,82,48,-58,-7,65,-39,-48,-63,-78,-87,-63
34,78,43,-56,-4,61,-39,-48,-63,-78,-87,-63
34,73,39,-53,-2,56,-43,-48,-73,-78,-78,-53
48,73,24,-61,12,48,-43,-43,-73,-78,-78,-63
39,68,29,-53,4,48,-48,-39,-63,-73,-78,-53
39,58,19,-48,9,39,-48,-29,-58,-68,-73,-53
24,34,9,-29,7,21,-39,-29,-58,-78,-73,-48
19,29,9,-24,4,19,-39,-29,-63,-87,-78,-53
14,24,9,-19,2,17,-29,-29,-63,-92,-87,-53
4,4,0,-4,2,2,-19,-29,-68,-97,-92,-63
-4,4,9,0,-7,7,-19,-29,-73,-102,-97,-73
-9,4,14,2,-12,9,-19,-29,-78,-97,-102,-87
-4,0,4,2,-4,2,-9,-34,-82,-92,-107,-92
0,4,4,-2,-2,4,-4,-34,-82,-87,-107,-97
-9,-4,4,7,-7,0,-4,-29,-87,-107,-126,-87
-9,-4,4,7,-7,0,-9,-29,-87,-112,-126,-97
-14,-4,9,9,-12,2,-9,-29,-87,-117,-126,-102
-14,-4,9,9,-12,2,-4,-29,-87,-117,-126,-102
-24,-24,0,24,-12,-12,4,-29,-78,-126,-126,-107
-24,-39,-14,31,-4,-26,9,-29,-78,-131,-131,-117
-29,-48,-19,39,-4,-34,9,-29,-87,-131,-136,-122
-29,-53,-24,41,-2,-39,9,-29,-92,-131,-141,-126
-9,-68,-58,39,24,-63,4,-34,-102,-131,-136,-126
-9,-73,-63,41,26,-68,4,-34,-102,-131,-141,-122
-19,-73,-53,46,17,-63,9,-34,-102,-126,-141,-112
-29,-73,-43,51,7,-58,9,-29,-102,-126,-141,-102
-19,-68,-48,43,14,-58,4,-39,-92,-136,-141,-107
-19,-53,-34,36,7,-43,4,-39,-92,-136,-146,-117
-14,-48,-34,31,9,-41,0,-39,-92,-136,-146,-122
-14,-43,-29,29,7,-36,-4,-39,-92,-136,-146,-126
-14,-48,-34,31,9,-41,-4,-39,-107,-136,-156,-122
-9,-48,-39,29,14,-43,-4,-39,-107,-141,-156,-122
-9,-48,-39,29,14,-43,-4,-39,-107,-141,-156,-122
-9,-48,-39,29,14,-43,-4,-39,-107,-141,-156,-122
-19,-48,-29,34,4,-39,4,-39,-107,-146,-151,-131
-24,-48,-24,36,0,-36,4,-34,-102,-146,-151,-131
-24,-53,-29,39,2,-41,9,-34,-102,-146,-151,-136
-19,-53,-34,36,7,-43,9,-34,-107,-146,-151,-136
-29,-63,-34,46,2,-48,19,-24,-97,-141,-141,-122
-39,-73,-34,56,-2,-53,24,-24,-92,-136,-136,-102
