I,II,III,aVR,aVL,aVF,V1,V2,V3,V4,V5,V6
-34,141,175,-53,-104,158,-82,-102,-102,-107,-97,-146
-34,141,175,-53,-104,158,-82,-102,-107,-112,-102,-151
-34,131,165,-48,-100,148,-87,-107,-112,-122,-102,-161
-34,131,165,-48,-100,148,-87,-107,-117,-126,-102,-165
-29,146,175,-58,-102,161,-87,-112,-122,-117,-102,-165
-24,156,180,-65,-102,168,-92,-117,-122,-122,-107,-165
-19,165,185,-73,-102,175,-92,-117,-131,-131,-112,-175
-39,170,209,-65,-124,190,-82,-126,-131,-131,-117,-175
-53,165,219,-56,-136,192,-68,-122,-126,-126,-126,-165
-78,156,234,-39,-156,195,-68,-117,-126,-122,-131,-170
-97,151,248,-26,-173,200,-58,-112,-122,-117,-136,-170
-102,146,248,-21,-175,197,-48,-92,-107,-102,-136,-165
-87,156,244,-34,-165,200,-53,-97,-107,-117,-141,-175
-73,156,229,-41,-151,192,-58,-102,-112,-122,-141,-180
-53,156,209,-51,-131,183,-63,-107,-117,-126,-151,-185
-39,156,195,-58,-117,175,-68,-112,-126,-136,-156,-190
-58,146,204,-43,-131,175,-68,-112,-122,-131,-146,-190
-63,136,200,-36,-131,168,-68,-112,-122,-131,-136,-190
-53,146,200,-46,-126,173,-58,-107,-117,-131,-126,-180
-58,146,204,-43,-131,175,-58,-107,-112,-126,-126,-180
-82,156,239,-36,-161,197,-53,-97,-102,-117,-146,-180
-73,156,229,-41,-151,192,-53,-97,-107,-117,-146,-180
-58,165,224,-53,-141,195,-53,-102,-107,-117,-146,-180
-58,170,229,-56,-143,200,-53,-102,-107,-117,-146,-180
-73,170,244,-48,-158,207,-58,-102,-102,-117,-136,-175
-78,156,234,-39,-156,195,-63,-97,-102,-112,-131,-170
-78,151,229,-36,-153,190,-63,-97,-97,-102,-131,-165
-78,151,229,-36,-153,190,-68,-92,-97,-102,-131,-161
-73,146,219,-36,-146,183,-48,-82,-97,-97,-146,-175
-87,126,214,-19,-151,170,-34,-78,-92,-97,-156,-185
-82,136,219,-26,-151,178,-9,-58,-63,-92,-156,-190
-112,146,258,-17,-185,202,34,-19,-39,-102,-200,-234
-165,141,307,12,-236,224,82,24,0,-131,-263,-307
-156,146,302,4,-229,224,126,82,78,-126,-326,-375
-107,165,273,-29,-190,219,180,175,180,-78,-361,-395
-82,170,253,-43,-168,212,214,253,268,-19,-370,-385
-82,200,283,-58,-183,241,214,297,375,87,-331,-312
-73,263,336,-95,-204,300,165,322,468,253,-224,-141
-48,366,414,-158,-231,390,82,317,561,488,-19,136
9,492,483,-251,-236,488,-14,253,600,732,204,473
92,663,570,-378,-239,617,-122,136,517,897,434,785
165,883,717,-524,-275,800,-253,-34,380,1024,683,1098
214,1122,907,-668,-346,1015,-405,-209,292,1234,995,1527
263,1381,1117,-822,-427,1249,-556,-409,190,1498,1322,1995
312,1629,1317,-971,-502,1473,-741,-688,-29,1673,1590,2371
351,1810,1459,-1080,-553,1634,-912,-980,-336,1703,1781,2620
336,1815,1478,-1076,-570,1647,-985,-1112,-546,1673,1917,2776
331,1464,1132,-897,-400,1298,-858,-990,-517,1629,1942,2806
326,854,527,-590,-100,690,-605,-683,-336,1561,1805,2664
331,468,136,-400,97,302,-434,-492,-283,1342,1605,2322
287,409,122,-348,82,265,-395,-478,-409,888,1381,1815
209,346,136,-278,36,241,-331,-453,-580,219,1039,1039
112,214,102,-163,4,158,-214,-405,-741,-473,551,131
19,156,136,-87,-58,146,-117,-366,-795,-805,195,-375
-19,122,141,-51,-80,131,-87,-331,-756,-834,48,-453
-58,39,97,9,-78,68,-53,-292,-712,-800,-43,-483
-122,-19,102,70,-112,41,34,-224,-649,-756,-146,-536
-146,-24,122,85,-134,48,107,-151,-556,-688,-209,-536
-165,-29,136,97,-151,53,146,-92,-492,-653,-244,-527
-165,-24,141,95,-153,58,146,-68,-458,-629,-297,-536
-165,-19,146,92,-156,63,141,-58,-439,-590,-356,-546
-180,-29,151,104,-165,61,156,-48,-419,-561,-385,-551
-195,-48,146,122,-170,48,156,-58,-409,-556,-390,-541
-175,-29,146,102,-161,58,136,-78,-390,-527,-370,-522
-175,0,175,87,-175,87,102,-87,-356,-473,-331,-483
-175,29,204,73,-190,117,68,-97,-317,-400,-292,-439
-161,53,214,53,-187,134,43,-92,-273,-336,-258,-390
-122,87,209,17,-165,148,19,-58,-209,-287,-244,-341
-92,126,219,-17,-156,173,14,-29,-151,-229,-239,-312
-131,117,248,7,-190,183,4,-29,-122,-200,-224,-297
-170,97,268,36,-219,183,-4,-43,-117,-195,-224,-297
-131,102,234,14,-183,168,-19,-43,-102,-190,-253,-307
-107,112,219,-2,-163,165,-4,-24,-92,-175,-248,-292
-102,117,219,-7,-161,168,9,-39,-87,-156,-244,-292
-107,117,224,-4,-165,170,14,-43,-82,-136,-234,-292
-112,107,219,2,-165,163,19,-43,-73,-126,-224,-273
-97,97,195,0,-146,146,9,-19,-53,-117,-204,-253
-82,92,175,-4,-129,134,4,-4,-43,-112,-200,-248
-82,87,170,-2,-126,129,4,4,-39,-112,-195,-244
-92,82,175,4,-134,129,9,4,-29,-117,-190,-244
-82,82,165,0,-124,124,0,0,-43,-117,-214,-253
-82,82,165,0,-124,124,0,-19,-48,-112,-229,-263
-92,87,180,2,-136,134,0,-34,-53,-107,-234,-268
-78,92,170,-7,-124,131,0,-39,-58,-97,-239,-263
-87,102,190,-7,-139,146,9,-29,-53,-97,-234,-253
-82,102,185,-9,-134,143,9,-19,-48,-102,-224,-248
-82,97,180,-7,-131,139,9,-14,-39,-112,-214,-248
-92,92,185,0,-139,139,9,-4,-34,-117,-209,-248
-82,97,180,-7,-131,139,9,-9,-39,-112,-200,-239
-78,102,180,-12,-129,141,4,-19,-39,-107,-209,-248
-78,107,185,-14,-131,146,0,-29,-43,-102,-219,-258
-78,112,190,-17,-134,151,-4,-39,-43,-97,-219,-258
-78,112,190,-17,-134,151,0,-39,-43,-102,-219,-258
-73,107,180,-17,-126,143,0,-39,-43,-102,-219,-253
-73,97,170,-12,-122,134,4,-29,-39,-107,-219,-253
-73,92,165,-9,-119,129,14,-24,-34,-107,-219,-253
-78,82,161,-2,-119,122,14,-24,-34,-107,-209,-253
-82,78,161,2,-122,119,14,-29,-34,-112,-219,-263
-87,78,165,4,-126,122,14,-29,-34,-112,-219,-263
-82,82,165,0,-124,124,14,-29,-34,-107,-209,-258
-82,87,170,-2,-126,129,4,-29,-48,-107,-219,-263
-87,78,165,4,-126,122,9,-29,-48,-107,-219,-263
-82,82,165,0,-124,124,9,-29,-48,-107,-219,-263
-73,92,165,-9,-119,129,4,-19,-48,-112,-224,-263
-78,82,161,-2,-119,122,4,-19,-34,-107,-229,-263
-78,82,161,-2,-119,122,4,-19,-34,-107,-229,-263
-82,82,165,0,-124,124,9,-19,-34,-107,-229,-263
-82,82,165,0,-124,124,9,-19,-34,-107,-229,-268
-68,82,151,-7,-109,117,9,-19,-39,-102,-219,-263
-63,87,151,-12,-107,119,9,-19,-39,-97,-219,-258
-68,87,156,-9,-112,122,9,-19,-39,-97,-219,-253
-63,92,156,-14,-109,124,0,-19,-39,-97,-224,-253
-63,87,151,-12,-107,119,9,-14,-39,-107,-234,-258
-63,82,146,-9,-104,114,14,-14,-34,-117,-234,-263
-63,78,141,-7,-102,109,14,-14,-34,-117,-244,-273
-68,73,141,-2,-104,107,14,-14,-34,-117,-244,-278
-82,73,156,4,-119,114,19,-14,-43,-126,-248,-278
-82,73,156,4,-119,114,14,-9,-43,-126,-248,-283
-82,73,156,4,-119,114,9,-9,-39,-126,-258,-283
-87,73,161,7,-124,117,4,-4,-34,-126,-258,-273
-78,82,161,-2,-119,122,19,4,-19,-117,-244,-273
-73,78,151,-2,-112,114,24,4,-19,-117,-244,-278
-73,78,151,-2,-112,114,29,4,-19,-117,-244,-278
-63,78,141,-7,-102,109,34,4,-19,-117,-244,-278
-68,78,146,-4,-107,112,24,-4,-29,-117,-244,-273
-73,78,151,-2,-112,114,24,-4,-29,-122,-239,-273
-82,73,156,4,-119,114,24,-4,-29,-122,-234,-278
-87,73,161,7,-124,117,24,0,-29,-122,-239,-278
-78,58,136,9,-107,97,24,0,-24,-122,-239,-278
-73,58,131,7,-102,95,29,0,-19,-126,-239,-278
-73,58,131,7,-102,95,29,4,-19,-126,-248,-292
-68,58,126,4,-97,92,29,4,-19,-131,-248,-302
-87,63,151,12,-119,107,19,-4,-24,-131,-263,-302
-87,63,151,12,-119,107,19,0,-24,-131,-263,-302
-82,68,151,7,-117,109,29,0,-14,-126,-263,-302
-73,68,141,2,-107,104,29,4,-9,-122,-263,-297
-63,68,131,-2,-97,100,39,19,0,-122,-253,-297
-63,68,131,-2,-97,100,39,19,0,-122,-253,-297
-63,68,131,-2,-97,100,39,29,0,-122,-263,-302
-73,58,131,7,-102,95,39,29,0,-122,-268,-312
-82,68,151,7,-117,109,39,19,4,-126,-278,-317
-82,68,151,7,-117,109,39,19,4,-126,-278,-322
-82,68,151,7,-117,109,39,24,14,-126,-278,-322
-82,58,141,12,-112,100,39,29,14,-126,-283,-322
-97,43,141,26,-119,92,29,19,19,-126,-283,-331
-92,39,131,26,-112,85,24,34,19,-131,-283,-331
-82,39,122,21,-102,80,24,39,24,-131,-283,-341
-53,43,97,4,-75,70,19,39,24,-131,-292,-346
-63,34,97,14,-80,65,24,39,24,-122,-283,-336
-73,29,102,21,-87,65,29,39,34,-126,-283,-336
-102,24,126,39,-114,75,39,48,39,-126,-283,-336
-112,24,136,43,-124,80,43,48,43,-126,-283,-336
-82,34,117,24,-100,75,43,58,53,-117,-287,-336
-58,34,92,12,-75,63,43,68,58,-117,-292,-336
-43,34,78,4,-61,56,53,73,58,-117,-292,-346
-48,24,73,12,-61,48,53,73,63,-117,-297,-351
-63,9,73,26,-68,41,63,68,68,-131,-302,-361
-78,9,87,34,-82,48,68,78,73,-131,-312,-361
-63,19,82,21,-73,51,68,82,78,-131,-317,-366
-53,19,73,17,-63,46,68,87,82,-136,-331,-380
-92,0,92,46,-92,46,68,92,97,-131,-326,-375
-102,-4,97,53,-100,46,68,102,107,-126,-326,-375
-102,-4,97,53,-100,46,68,102,107,-122,-326,-380
-87,-9,78,48,-82,34,68,107,107,-117,-331,-390
-73,-9,63,41,-68,26,58,107,117,-117,-322,-390
-73,-9,63,41,-68,26,58,112,122,-122,-331,-400
-87,-9,78,48,-82,34,63,112,126,-122,-336,-400
-87,-9,78,48,-82,34,63,126,141,-122,-336,-405
-87,-19,68,53,-78,24,63,122,131,-126,-351,-419
-87,-29,58,58,-73,14,68,122,131,-136,-361,-434
-87,-29,58,58,-73,14,68,122,141,-141,-370,-439
-82,-29,53,56,-68,12,68,131,151,-141,-380,-444
-82,-19,63,51,-73,21,68,131,151,-136,-380,-444
-87,-29,58,58,-73,14,68,131,151,-151,-385,-453
-87,-29,58,58,-73,14,68,131,156,-151,-390,-468
-87,-29,58,58,-73,14,68,141,156,-156,-385,-473
-78,-19,58,48,-68,19,58,141,165,-151,-380,-468
-73,-24,48,48,-61,12,58,141,165,-156,-375,-473
-73,-24,48,48,-61,12,63,131,165,-161,-370,-478
-73,-19,53,46,-63,17,63,131,165,-165,-366,-483
-82,-14,68,48,-75,26,53,131,170,-170,-356,-483
-73,-14,58,43,-65,21,48,131,170,-170,-356,-483
-73,-14,58,43,-65,21,48,131,161,-175,-356,-488
-78,-9,68,43,-73,29,43,136,161,-180,-356,-483
-78,0,78,39,-78,39,53,136,161,-175,-346,-488
-68,4,73,31,-70,39,48,131,161,-190,-341,-492
-68,4,73,31,-70,39,48,126,156,-190,-341,-492
-78,4,82,36,-80,43,48,122,151,-195,-336,-488
-87,19,107,34,-97,63,39,122,156,-190,-322,-483
-87,24,112,31,-100,68,34,122,151,-190,-317,-478
-78,19,97,29,-87,58,29,117,151,-195,-312,-473
-78,19,97,29,-87,58,29,112,146,-195,-312,-468
-73,24,97,24,-85,61,24,102,136,-185,-302,-458
-73,39,112,17,-92,75,14,97,136,-185,-292,-453
-68,39,107,14,-87,73,9,92,126,-185,-283,-439
-63,53,117,4,-90,85,4,78,122,-185,-278,-429
-43,73,117,-14,-80,95,14,82,136,-161,-253,-409
-39,92,131,-26,-85,112,14,87,131,-146,-239,-385
-48,102,151,-26,-100,126,9,82,131,-146,-229,-370
-29,126,156,-48,-92,141,0,73,136,-146,-219,-351
-43,122,165,-39,-104,143,-9,73,117,-131,-200,-326
-43,136,180,-46,-112,158,-14,73,117,-122,-185,-302
-48,136,185,-43,-117,161,-14,68,112,-97,-165,-283
-53,131,185,-39,-119,158,-19,53,102,-82,-151,-263
-43,141,185,-48,-114,163,-39,39,82,-92,-141,-253
-34,156,190,-61,-112,173,-48,19,68,-102,-136,-239
-19,156,175,-68,-97,165,-48,4,63,-97,-117,-219
-9,156,165,-73,-87,161,-53,4,53,-92,-102,-200
-14,165,180,-75,-97,173,-53,9,48,-92,-92,-195
-14,180,195,-82,-104,187,-58,-9,29,-92,-92,-175
-14,180,195,-82,-104,187,-63,-19,19,-87,-82,-165
-14,175,190,-80,-102,183,-68,-29,14,-87,-78,-156
-29,165,195,-68,-112,180,-63,-29,4,-102,-78,-151
-34,180,214,-73,-124,197,-63,-39,-4,-97,-73,-141
-34,180,214,-73,-124,197,-63,-39,-14,-102,-68,-141
-29,180,209,-75,-119,195,-68,-48,-24,-107,-63,-141
-43,180,224,-68,-134,202,-68,-48,-34,-107,-58,-141
-43,180,224,-68,-134,202,-68,-58,-43,-102,-58,-131
-29,180,209,-75,-119,195,-68,-58,-53,-102,-53,-136
-29,185,214,-78,-122,200,-63,-63,-53,-112,-53,-126
-53,180,234,-63,-143,207,-68,-58,-48,-112,-63,-126
-58,175,234,-58,-146,204,-78,-63,-53,-112,-63,-126
-58,151,209,-46,-134,180,-82,-73,-68,-117,-58,-126
-58,161,219,-51,-139,190,-87,-78,-73,-117,-58,-126
-39,161,200,-61,-119,180,-78,-82,-82,-117,-58,-126
-39,161,200,-61,-119,180,-78,-87,-87,-122,-58,-131
-29,161,190,-65,-109,175,-78,-97,-92,-131,-63,-136
-24,161,185,-68,-104,173,-87,-107,-97,-146,-63,-136
-39,161,200,-61,-119,180,-87,-92,-97,-136,-63,-136
-43,161,204,-58,-124,183,-82,-92,-97,-131,-63,-136
-48,161,209,-56,-129,185,-82,-87,-92,-126,-63,-136
-58,156,214,-48,-136,185,-82,-82,-87,-126,-63,-131
-58,151,209,-46,-134,180,-92,-92,-87,-126,-63,-122
-43,151,195,-53,-119,173,-87,-97,-97,-131,-63,-126
-43,161,204,-58,-124,183,-87,-97,-97,-131,-68,-126
-48,165,214,-58,-131,190,-92,-97,-97,-141,-68,-126
-63,165,229,-51,-146,197,-82,-87,-97,-141,-58,-126
-68,165,234,-48,-151,200,-87,-87,-97,-141,-63,-131
-68,165,234,-48,-151,200,-82,-87,-92,-141,-63,-131
-73,165,239,-46,-156,202,-53,-82,-82,-141,-53,-131
-63,161,224,-48,-143,192,-68,-92,-87,-136,-63,-141
-58,156,214,-48,-136,185,-73,-97,-92,-151,-68,-146
-58,156,214,-48,-136,185,-87,-97,-97,-156,-68,-146
-58,151,209,-46,-134,180,-97,-107,-112,-161,-68,-146
-53,141,195,-43,-124,168,-87,-107,-112,-175,-73,-156
-43,141,185,-48,-114,163,-82,-107,-112,-175,-73,-156
-39,141,180,-51,-109,161,-82,-107,-112,-175,-78,-161
-34,141,175,-53,-104,158,-87,-107,-117,-175,-87,-165
-39,141,180,-51,-109,161,-82,-102,-112,-175,-73,-156
-39,141,180,-51,-109,161,-68,-97,-102,-170,-73,-151
-58,141,200,-41,-129,170,-58,-87,-92,-161,-68,-141
-58,141,200,-41,-129,170,-53,-82,-87,-156,-63,-136
-58,136,195,-39,-126,165,-68,-92,-102,-156,-68,-141
-58,136,195,-39,-126,165,-73,-92,-102,-161,-73,-146
-58,141,200,-41,-129,170,-73,-92,-102,-161,-78,-146
-53,141,195,-43,-124,168,-73,-92,-97,-161,-82,-151
-63,131,195,-34,-129,163,-82,-102,-97,-165,-78,-151
-53,131,185,-39,-119,158,-82,-102,-92,-165,-78,-151
-43,131,175,-43,-109,153,-78,-102,-92,-165,-73,-151
-58,131,190,-36,-124,161,-78,-102,-92,-165,-68,-151
-68,122,190,-26,-129,156,-68,-92,-87,-156,-63,-136
-68,122,190,-26,-129,156,-68,-87,-87,-156,-63,-136
-63,117,180,-26,-122,148,-63,-82,-87,-151,-63,-136
-63,112,175,-24,-119,143,-63,-82,-82,-151,-58,-141
-58,122,180,-31,-119,151,-73,-92,-82,-146,-63,-146
-53,136,190,-41,-122,163,-78,-87,-78,-146,-68,-151
-43,146,190,-51,-117,168,-78,-87,-73,-146,-73,-151
-34,156,190,-61,-112,173,-78,-82,-73,-146,-82,-151
-39,151,190,-56,-114,170,-78,-82,-73,-131,-82,-136
-34,146,180,-56,-107,163,-73,-82,-73,-126,-78,-131
-39,141,180,-51,-109,161,-73,-87,-73,-126,-73,-131
-48,136,185,-43,-117,161,-78,-87,-73,-122,-73,-141
-43,136,180,-46,-112,158,-78,-82,-68,-112,-63,-122
-39,141,180,-51,-109,161,-78,-82,-68,-122,-63,-122
-29,141,170,-56,-100,156,-78,-82,-63,-122,-63,-122
-24,141,165,-58,-95,153,-78,-82,-58,-112,-63,-122
-34,151,185,-58,-109,168,-68,-68,-39,-102,-63,-102
-39,151,190,-56,-114,170,-68,-68,-39,-92,-63,-102
-43,151,195,-53,-119,173,-68,-68,-39,-87,-58,-102
-48,151,200,-51,-124,175,-63,-68,-34,-87,-53,-97
-48,161,209,-56,-129,185,-73,-68,-39,-82,-58,-87
-53,161,214,-53,-134,187,-73,-68,-39,-82,-58,-92
-53,161,214,-53,-134,187,-78,-68,-39,-82,-58,-92
-58,161,219,-51,-139,190,-78,-68,-39,-82,-58,-87
-39,165,204,-63,-122,185,-78,-73,-39,-82,-63,-97
-29,170,200,-70,-114,185,-78,-73,-34,-73,-58,-87
-19,175,195,-78,-107,185,-78,-73,-29,-68,-58,-87
-9,190,200,-90,-104,195,-78,-73,-29,-68,-58,-87
-9,185,195,-87,-102,190,-97,-78,-39,-78,-48,-87
-9,180,190,-85,-100,185,-82,-78,-39,-73,-48,-82
-14,175,190,-80,-102,183,-82,-78,-39,-68,-53,-82
-14,170,185,-78,-100,178,-92,-78,-39,-68,-58,-82
-24,165,190,-70,-107,178,-87,-73,-29,-63,-48,-73
-24,156,180,-65,-102,168,-87,-73,-24,-63,-48,-73
-24,170,195,-73,-109,183,-82,-68,-14,-53,-34,-73
-24,170,195,-73,-109,183,-78,-68,-14,-53,-24,-68
-29,165,195,-68,-112,180,-78,-68,-24,-63,-34,-68
-29,165,195,-68,-112,180,-78,-68,-24,-58,-34,-68
-29,165,195,-68,-112,180,-82,-63,-24,-58,-39,-68
-14,165,180,-75,-97,173,-82,-63,-24,-58,-39,-68
-9,180,190,-85,-100,185,-82,-63,-19,-53,-29,-63
-14,195,209,-90,-112,202,-82,-68,-19,-53,-29,-63
-9,200,209,-95,-109,204,-87,-73,-19,-53,-34,-63
9,200,190,-104,-90,195,-87,-73,-19,-53,-34,-68
0,190,190,-95,-95,190,-87,-63,-19,-53,-19,-63
-19,200,219,-90,-119,209,-82,-63,-14,-43,-9,-53
-29,200,229,-85,-129,214,-82,-58,-9,-39,-9,-43
-53,195,248,-70,-151,222,-92,-58,-9,-39,-9,-34
-34,195,229,-80,-131,212,-92,-73,-24,-43,-9,-43
-19,200,219,-90,-119,209,-97,-73,-29,-48,-14,-43
-9,200,209,-95,-109,204,-97,-73,-34,-53,-14,-43
0,190,190,-95,-95,190,-97,-78,-34,-53,-14,-48
-4,190,195,-92,-100,192,-102,-78,-34,-53,-24,-58
4,190,185,-97,-90,187,-102,-78,-34,-53,-24,-58
4,190,185,-97,-90,187,-97,-78,-34,-53,-19,-53
4,195,190,-100,-92,192,-97,-78,-39,-53,-19,-53
-4,200,204,-97,-104,202,-92,-78,-29,-58,-19,-43
0,200,200,-100,-100,200,-92,-78,-29,-58,-19,-43
0,195,195,-97,-97,195,-92,-78,-29,-58,-19,-43
-9,190,200,-90,-104,195,-97,-78,-34,-58,-19,-43
-14,190,204,-87,-109,197,-97,-78,-34,-58,-14,-29
-9,190,200,-90,-104,195,-92,-78,-29,-53,-4,-29
-4,195,200,-95,-102,197,-92,-73,-29,-53,4,-29
0,200,200,-100,-100,200,-92,-73,-34,-58,9,-34
-4,195,200,-95,-102,197,-97,-87,-43,-63,0,-43
-9,180,190,-85,-100,185,-112,-92,-43,-63,-9,-48
-14,175,190,-80,-102,183,-117,-92,-48,-73,-14,-53
-19,170,190,-75,-104,180,-122,-97,-53,-63,-24,-58
-9,180,190,-85,-100,185,-117,-92,-43,-63,-14,-48
-9,195,204,-92,-107,200,-112,-92,-43,-68,-9,-43
-14,185,200,-85,-107,192,-102,-87,-43,-68,-9,-34
-19,190,209,-85,-114,200,-97,-82,-43,-68,-9,-34
-9,180,190,-85,-100,185,-78,-92,-39,-58,-14,-48
-9,195,204,-92,-107,200,-78,-87,-39,-53,-14,-48
-19,195,214,-87,-117,204,-78,-87,-39,-53,-14,-48
0,185,185,-92,-92,185,-78,-87,-43,-58,-19,-48
4,185,180,-95,-87,183,-87,-82,-48,-68,-9,-48
-14,190,204,-87,-109,197,-97,-82,-48,-68,-9,-43
-24,190,214,-82,-119,202,-97,-82,-48,-68,-9,-39
-29,185,214,-78,-122,200,-97,-78,-48,-68,-4,-39
-24,180,204,-78,-114,192,-97,-87,-39,-58,-4,-39
-9,180,190,-85,-100,185,-97,-97,-39,-63,-14,-39
-14,185,200,-85,-107,192,-97,-97,-39,-63,-14,-39
-9,185,195,-87,-102,190,-97,-92,-39,-63,-9,-43
-4,195,200,-95,-102,197,-97,-92,-48,-73,-9,-43
0,195,195,-97,-97,195,-97,-92,-48,-73,-9,-43
4,195,190,-100,-92,192,-97,-97,-58,-78,-19,-53
9,190,180,-100,-85,185,-97,-102,-58,-78,-19,-53
4,180,175,-92,-85,178,-97,-92,-48,-78,-24,-43
0,175,175,-87,-87,175,-92,-92,-48,-78,-24,-43
-4,175,180,-85,-92,178,-92,-92,-53,-78,-24,-39
-9,175,185,-82,-97,180,-97,-87,-53,-78,-24,-39
-9,175,185,-82,-97,180,-107,-92,-58,-78,-34,-48
0,185,185,-92,-92,185,-107,-97,-63,-78,-34,-48
0,185,185,-92,-92,185,-107,-107,-68,-78,-34,-48
4,185,180,-95,-87,183,-112,-112,-73,-78,-39,-48
19,190,170,-104,-75,180,-117,-102,-68,-78,-34,-43
19,195,175,-107,-78,185,-102,-102,-63,-78,-24,-39
9,190,180,-100,-85,185,-97,-102,-53,-73,-19,-39
-4,195,200,-95,-102,197,-92,-102,-48,-73,-14,-39
-14,195,209,-90,-112,202,-97,-102,-58,-73,-14,-34
-14,190,204,-87,-109,197,-102,-102,-58,-73,-14,-34
-9,180,190,-85,-100,185,-107,-102,-58,-78,-14,-43
-9,175,185,-82,-97,180,-107,-102,-63,-78,-14,-43
0,180,180,-90,-90,180,-97,-102,-63,-87,-19,-48
24,180,156,-102,-65,168,-107,-112,-68,-92,-24,-53
14,180,165,-97,-75,173,-107,-112,-68,-92,-24,-58
14,180,165,-97,-75,173,-102,-112,-68,-92,-24,-58
0,185,185,-92,-92,185,-97,-97,-58,-82,-14,-39
0,185,185,-92,-92,185,-97,-97,-58,-82,-14,-39
-4,175,180,-85,-92,178,-97,-102,-63,-87,-14,-39
-14,175,190,-80,-102,183,-97,-102,-63,-87,-14,-43
-9,185,195,-87,-102,190,-107,-102,-68,-78,-24,-53
-4,185,190,-90,-97,187,-107,-97,-63,-78,-19,-48
-4,185,190,-90,-97,187,-102,-97,-63,-78,-19,-48
0,185,185,-92,-92,185,-102,-97,-68,-78,-19,-48
-9,195,204,-92,-107,200,-97,-107,-58,-78,-9,-39
-9,195,204,-92,-107,200,-102,-112,-58,-78,-9,-39
0,190,190,-95,-95,190,-102,-112,-58,-73,-9,-34
14,190,175,-102,-80,183,-102,-112,-58,-68,-9,-34
4,190,185,-97,-90,187,-92,-102,-58,-78,0,-34
-4,190,195,-92,-100,192,-92,-102,-58,-82,0,-34
-4,195,200,-95,-102,197,-92,-97,-58,-82,4,-34
0,200,200,-100,-100,200,-87,-97,-58,-82,4,-34
14,190,175,-102,-80,183,-92,-107,-68,-82,-9,-39
14,185,170,-100,-78,178,-97,-107,-73,-87,-14,-43
9,185,175,-97,-82,180,-102,-107,-82,-87,-19,-39
14,185,170,-100,-78,178,-107,-112,-73,-82,-24,-43
4,180,175,-92,-85,178,-117,-112,-68,-82,-24,-39
-9,170,180,-80,-95,175,-112,-112,-68,-87,-19,-48
0,180,180,-90,-90,180,-112,-112,-68,-87,-14,-48
14,180,165,-97,-75,173,-117,-112,-73,-87,-9,-48
19,180,161,-100,-70,170,-117,-102,-68,-87,-4,-39
19,185,165,-102,-73,175,-112,-102,-68,-78,-4,-39
9,190,180,-100,-85,185,-97,-102,-68,-78,-4,-43
9,185,175,-97,-82,180,-92,-102,-68,-78,-4,-48
9,175,165,-92,-78,170,-92,-102,-73,-87,-9,-48
9,180,170,-95,-80,175,-92,-102,-73,-92,-9,-43
14,200,185,-107,-85,192,-92,-102,-73,-92,-9,-39
14,204,190,-109,-87,197,-92,-102,-73,-97,-4,-29
14,200,185,-107,-85,192,-97,-112,-82,-97,-14,-34
14,180,165,-97,-75,173,-102,-112,-82,-97,-14,-34
9,175,165,-92,-78,170,-107,-117,-82,-97,-19,-39
4,170,165,-87,-80,168,-112,-117,-82,-97,-19,-39
4,185,180,-95,-87,183,-107,-97,-73,-82,-4,-29
4,170,165,-87,-80,168,-107,-112,-68,-82,-4,-29
9,175,165,-92,-78,170,-107,-117,-68,-87,-9,-29
19,185,165,-102,-73,175,-107,-117,-68,-87,0,-29
19,185,165,-102,-73,175,-107,-117,-68,-87,0,-29
19,185,165,-102,-73,175,-107,-117,-68,-87,0,-29
19,185,165,-102,-73,175,-107,-117,-68,-87,0,-29
19,185,165,-102,-73,175,-107,-107,-68,-78,9,-29
19,185,165,-102,-73,175,-107,-107,-68,-78,9,-29
19,185,165,-102,-73,175,-107,-107,-68,-78,9,-29
19,185,165,-102,-73,175,-107,-107,-68,-78,9,-29
14,175,161,-95,-73,168,-97,-107,-68,-78,0,-29
9,175,165,-92,-78,170,-97,-107,-68,-78,0,-29
4,175,170,-90,-82,173,-97,-107,-68,-78,0,-29
0,175,175,-87,-87,175,-97,-107,-68,-78,0,-29
9,165,156,-87,-73,161,-107,-107,-78,-87,-9,-29
9,165,156,-87,-73,161,-107,-107,-78,-87,-9,-29
9,165,156,-87,-73,161,-107,-107,-78,-87,-9,-29
9,165,156,-87,-73,161,-107,-107,-78,-87,-9,-29
14,175,161,-95,-73,168,-92,-97,-73,-78,-4,-19
19,185,165,-102,-73,175,-87,-97,-68,-78,0,-19
24,195,170,-109,-73,183,-82,-97,-63,-78,4,-19
29,204,175,-117,-73,190,-78,-97,-58,-78,9,-19
24,200,175,-112,-75,187,-82,-107,-68,-78,0,-29
19,195,175,-107,-78,185,-87,-107,-68,-78,0,-29
14,190,175,-102,-80,183,-92,-107,-68,-78,0,-29
9,185,175,-97,-82,180,-97,-107,-68,-78,0,-29
4,180,175,-92,-85,178,-97,-107,-78,-87,9,-29
0,175,175,-87,-87,175,-97,-107,-78,-87,9,-29
-4,170,175,-82,-90,173,-97,-107,-78,-87,9,-29
-9,165,175,-78,-92,170,-97,-107,-78,-87,9,-29
-19,165,185,-73,-102,175,-97,-97,-68,-78,9,-24
-19,165,185,-73,-102,175,-97,-97,-68,-78,9,-24
-14,170,185,-78,-100,178,-97,-97,-73,-78,9,-24
-4,170,175,-82,-90,173,-97,-107,-73,-87,9,-29
14,180,165,-97,-75,173,-102,-117,-78,-97,-4,-29
14,180,165,-97,-75,173,-102,-112,-82,-92,-4,-29
14,175,161,-95,-73,168,-102,-112,-87,-87,0,-29
24,175,151,-100,-63,163,-102,-112,-92,-87,0,-29
34,180,146,-107,-56,163,-97,-102,-87,-78,0,-29
43,190,146,-117,-51,168,-97,-102,-82,-78,-4,-24
39,195,156,-117,-58,175,-92,-102,-78,-78,-4,-24
19,200,180,-109,-80,190,-92,-102,-73,-78,-4,-29
14,200,185,-107,-85,192,-92,-112,-82,-87,-4,-29
14,195,180,-104,-82,187,-92,-112,-73,-87,-4,-29
14,190,175,-102,-80,183,-92,-107,-73,-87,-4,-24
14,185,170,-100,-78,178,-87,-107,-78,-87,0,-24
4,185,180,-95,-87,183,-97,-107,-78,-73,0,-29
4,185,180,-95,-87,183,-97,-107,-78,-73,0,-29
19,204,185,-112,-82,195,-97,-97,-73,-73,4,-24
34,204,170,-119,-68,187,-97,-97,-68,-68,4,-24
43,209,165,-126,-61,187,-87,-97,-68,-63,14,-14
48,219,170,-134,-61,195,-92,-97,-63,-63,19,-9
48,224,175,-136,-63,200,-97,-97,-63,-63,19,-9
39,224,185,-131,-73,204,-97,-97,-58,-58,29,-4
29,224,195,-126,-82,209,-107,-97,-58,-63,19,0
39,234,195,-136,-78,214,-112,-97,-58,-58,19,0
29,234,204,-131,-87,219,-112,-97,-53,-48,29,9
29,234,204,-131,-87,219,-107,-97,-43,-43,34,14
24,258,234,-141,-104,246,-97,-87,-29,-39,39,24
19,268,248,-143,-114,258,-97,-82,-24,-29,43,39
14,268,253,-141,-119,261,-97,-78,-19,-14,53,39
9,268,258,-139,-124,263,-97,-78,-14,-4,58,39
19,268,248,-143,-114,258,-97,-78,-24,-14,48,29
39,268,229,-153,-95,248,-102,-78,-24,-14,48,29
48,273,224,-161,-87,248,-107,-78,-34,-14,48,29
58,278,219,-168,-80,248,-117,-97,-39,-24,48,29
58,273,214,-165,-78,244,-131,-112,-53,-29,43,19
63,268,204,-165,-70,236,-136,-112,-53,-34,43,14
63,248,185,-156,-61,217,-141,-117,-63,-48,39,9
63,239,175,-151,-56,207,-161,-131,-87,-73,34,-4
68,234,165,-151,-48,200,-156,-141,-87,-68,29,4
68,224,156,-146,-43,190,-156,-141,-92,-78,29,-4
63,224,161,-143,-48,192,-151,-136,-92,-78,29,-4
48,219,170,-134,-61,195,-146,-131,-92,-73,29,0
43,214,170,-129,-63,192,-126,-126,-97,-73,34,0
43,200,156,-122,-56,178,-126,-126,-97,-78,34,-4
43,190,146,-117,-51,168,-126,-126,-102,-82,24,-9
48,185,136,-117,-43,161,-126,-126,-102,-92,19,-14
63,195,131,-129,-34,163,-126,-126,-102,-92,29,-14
63,200,136,-131,-36,168,-122,-117,-102,-87,29,-9
63,200,136,-131,-36,168,-122,-112,-92,-87,29,-9
53,185,131,-119,-39,158,-122,-112,-87,-82,29,-9
53,170,117,-112,-31,143,-126,-102,-73,-73,29,0
53,170,117,-112,-31,143,-122,-102,-73,-73,29,0
68,165,97,-117,-14,131,-112,-102,-73,-73,29,0
73,161,87,-117,-7,124,-112,-102,-73,-78,29,0
68,161,92,-114,-12,126,-102,-97,-68,-78,29,4
63,151,87,-107,-12,119,-107,-97,-73,-82,34,-4
58,151,92,-104,-17,122,-107,-92,-78,-82,39,-9
53,151,97,-102,-21,124,-107,-92,-82,-78,43,-9
73,156,82,-114,-4,119,-122,-107,-92,-92,34,-19
82,161,78,-122,2,119,-122,-107,-102,-102,24,-29
68,161,92,-114,-12,126,-112,-117,-102,-102,14,-29
68,161,92,-114,-12,126,-107,-117,-102,-102,9,-29
43,146,102,-95,-29,124,-97,-126,-117,-112,14,-34
24,146,122,-85,-48,134,-87,-126,-117,-112,9,-34
19,146,126,-82,-53,136,-78,-112,-107,-102,9,-29
14,146,131,-80,-58,139,-78,-112,-102,-102,4,-29
4,156,151,-80,-73,153,-87,-102,-97,-97,14,-24
9,156,146,-82,-68,151,-87,-102,-92,-92,4,-29
9,156,146,-82,-68,151,-87,-102,-92,-92,0,-34
-4,156,161,-75,-82,158,-87,-102,-92,-92,0,-34
-14,141,156,-63,-85,148,-97,-102,-102,-102,0,-43
0,146,146,-73,-73,146,-87,-97,-97,-102,9,-34
0,141,141,-70,-70,141,-87,-97,-92,-97,9,-34
-14,136,151,-61,-82,143,-92,-97,-92,-97,0,-34
4,136,131,-70,-63,134,-87,-107,-97,-97,-9,-34
29,146,117,-87,-43,131,-82,-112,-97,-97,-9,-34
39,151,112,-95,-36,131,-78,-112,-97,-97,-9,-34
43,151,107,-97,-31,129,-73,-112,-92,-97,-9,-34
24,146,122,-85,-48,134,-63,-97,-92,-92,4,-24
19,141,122,-80,-51,131,-58,-97,-87,-82,4,-24
14,141,126,-78,-56,134,-58,-92,-87,-82,4,-24
4,146,141,-75,-68,143,-48,-82,-78,-78,0,-19
19,156,136,-87,-58,146,-53,-78,-73,-78,0,-19
4,146,141,-75,-68,143,-48,-68,-63,-82,-9,-34
-4,136,141,-65,-73,139,-53,-68,-78,-102,-34,-68
-19,131,151,-56,-85,141,-14,-43,-58,-122,-58,-112
-29,136,165,-53,-97,151,48,24,-9,-136,-92,-151
-39,136,175,-48,-107,156,112,97,63,-136,-136,-209
-43,131,175,-43,-109,153,165,185,141,-136,-185,-248
-34,112,146,-39,-90,129,195,258,229,-117,-195,-253
-34,146,180,-56,-107,163,204,322,331,-29,-156,-190
-9,239,248,-114,-129,244,170,366,453,146,-58,-29
39,356,317,-197,-139,336,92,351,561,380,97,209
92,448,356,-270,-131,402,-14,283,566,595,297,512
175,590,414,-383,-119,502,-117,151,497,800,517,824
263,810,546,-536,-141,678,-229,4,429,1039,771,1176
351,1068,717,-710,-183,893,-390,-165,375,1322,1068,1615
429,1317,888,-873,-229,1102,-566,-395,283,1615,1395,2088
468,1595,1127,-1032,-329,1361,-756,-688,122,1898,1703,2522
483,1825,1342,-1154,-429,1583,-927,-1005,-136,2093,1976,2874
488,1844,1356,-1166,-434,1600,-1024,-1185,-331,2176,2127,3079
502,1527,1024,-1015,-261,1276,-946,-1083,-297,2186,2078,3084
497,995,497,-746,0,746,-717,-795,-136,2142,1898,2928
483,653,170,-568,156,412,-580,-653,-156,1922,1703,2625
473,590,117,-531,178,353,-566,-678,-366,1449,1517,2161
405,497,92,-451,156,295,-517,-697,-634,678,1234,1439
263,341,78,-302,92,209,-380,-639,-893,-239,819,531
126,258,131,-192,-2,195,-244,-556,-971,-766,478,-82
48,204,156,-126,-53,180,-161,-468,-878,-800,307,-219
34,107,73,-70,-19,90,-102,-390,-805,-746,165,-273
19,24,4,-21,7,14,-39,-317,-741,-746,24,-370
-9,-9,0,9,-4,-4,29,-248,-678,-692,-78,-409
-19,-14,4,17,-12,-4,68,-195,-624,-639,-112,-400
-39,-48,-9,43,-14,-29,82,-165,-585,-629,-151,-409
-82,-78,4,80,-43,-36,97,-156,-556,-619,-200,-424
-97,-58,39,78,-68,-9,117,-136,-507,-595,-224,-424
-97,-29,68,63,-82,19,117,-126,-458,-546,-234,-405
-107,-19,87,63,-97,34,82,-136,-414,-502,-224,-385
-107,9,117,48,-112,63,48,-146,-366,-429,-195,-341
-73,63,136,4,-104,100,14,-122,-292,-356,-151,-283
-53,68,122,-7,-87,95,-9,-97,-229,-278,-126,-234
-34,97,131,-31,-82,114,-24,-68,-180,-239,-112,-195
-24,117,141,-46,-82,129,-34,-58,-141,-219,-97,-170
-34,107,141,-36,-87,124,-43,-63,-107,-214,-97,-170
-53,102,156,-24,-104,129,-29,-43,-82,-190,-97,-161
-34,102,136,-34,-85,119,-14,-24,-63,-175,-97,-165
-34,107,141,-36,-87,124,0,-39,-58,-156,-97,-165
-43,107,151,-31,-97,129,4,-43,-53,-136,-92,-165
-53,97,151,-21,-102,124,9,-43,-43,-126,-87,-146
-29,107,136,-39,-82,122,19,-29,-19,-122,-73,-122
-14,102,117,-43,-65,109,14,-14,-14,-122,-73,-122
-14,97,112,-41,-63,104,14,-4,-14,-126,-73,-122
-24,92,117,-34,-70,104,19,-4,-9,-136,-73,-126
-14,82,97,-34,-56,90,9,-4,-19,-136,-73,-141
-14,82,97,-34,-56,90,9,-19,-19,-131,-82,-146
-24,87,112,-31,-68,100,9,-29,-19,-126,-82,-146
-9,92,102,-41,-56,97,9,-29,-19,-117,-82,-136
-19,82,102,-31,-61,92,4,-29,-19,-122,-92,-126
-14,82,97,-34,-56,90,0,-19,-19,-122,-87,-122
-14,78,92,-31,-53,85,-4,-14,-14,-126,-82,-122
-24,73,97,-24,-61,85,-9,-4,-14,-126,-82,-122
-34,82,117,-24,-75,100,4,-4,0,-117,-73,-112
-29,82,112,-26,-70,97,4,-9,0,-117,-82,-122
-29,82,112,-26,-70,97,4,-14,-4,-117,-92,-131
-29,82,112,-26,-70,97,4,-19,-4,-117,-92,-131
-24,87,112,-31,-68,100,4,-9,-14,-117,-82,-131
-14,87,102,-36,-58,95,0,-9,-14,-112,-82,-126
-9,82,92,-36,-51,87,0,0,-9,-112,-82,-126
-4,82,87,-39,-46,85,4,4,-4,-107,-82,-126
-4,82,87,-39,-46,85,9,4,-4,-117,-82,-126
-4,78,82,-36,-43,80,14,0,-4,-122,-92,-136
-4,78,82,-36,-43,80,19,0,-4,-122,-92,-136
4,82,78,-43,-36,80,24,0,-4,-117,-82,-131
-9,92,102,-41,-56,97,19,0,0,-107,-92,-126
-19,78,97,-29,-58,87,19,0,0,-107,-92,-126
-19,78,97,-29,-58,87,14,0,0,-107,-92,-126
-14,82,97,-34,-56,90,4,9,0,-112,-97,-126
-19,78,97,-29,-58,87,9,9,4,-107,-102,-126
-19,73,92,-26,-56,82,14,9,4,-107,-102,-126
-24,68,92,-21,-58,80,24,9,4,-107,-102,-126
-24,63,87,-19,-56,75,29,9,4,-107,-102,-131
-9,68,78,-29,-43,73,39,9,0,-102,-92,-131
-4,68,73,-31,-39,70,39,9,0,-97,-92,-131
-9,63,73,-26,-41,68,39,9,0,-97,-92,-131
-4,63,68,-29,-36,65,29,9,0,-97,-97,-136
-14,63,78,-24,-46,70,34,24,0,-107,-107,-136
-14,63,78,-24,-46,70,34,24,4,-117,-107,-136
-14,63,78,-24,-46,70,29,24,4,-117,-117,-141
-19,63,82,-21,-51,73,24,24,4,-117,-117,-141
-19,53,73,-17,-46,63,43,14,4,-117,-122,-151
-14,53,68,-19,-41,61,43,19,4,-117,-122,-156
-9,53,63,-21,-36,58,43,19,9,-117,-131,-156
-9,53,63,-21,-36,58,43,24,14,-117,-131,-146
0,63,63,-31,-31,63,43,43,19,-107,-117,-146
-4,58,63,-26,-34,61,43,43,19,-107,-117,-151
-14,58,73,-21,-43,65,43,43,19,-107,-117,-151
-14,58,73,-21,-43,65,43,43,19,-107,-117,-151
0,58,58,-29,-29,58,34,34,19,-117,-122,-156
4,58,53,-31,-24,56,34,34,19,-122,-122,-156
4,53,48,-29,-21,51,34,34,19,-122,-122,-161
9,53,43,-31,-17,48,34,39,19,-122,-131,-161
9,48,39,-29,-14,43,34,39,24,-112,-131,-161
4,48,43,-26,-19,46,39,39,29,-117,-131,-161
-4,48,53,-21,-29,51,39,43,29,-117,-141,-175
-9,48,58,-19,-34,53,39,43,29,-122,-141,-185
-4,43,48,-19,-26,46,39,43,24,-131,-156,-185
0,43,43,-21,-21,43,39,48,24,-131,-156,-185
9,48,39,-29,-14,43,48,48,34,-126,-156,-185
24,48,24,-36,0,36,48,53,39,-122,-156,-180
19,58,39,-39,-9,48,48,58,39,-131,-146,-180
14,58,43,-36,-14,51,48,58,39,-131,-146,-180
9,58,48,-34,-19,53,48,68,39,-131,-156,-185
-4,48,53,-21,-29,51,48,68,39,-131,-161,-195
-4,39,43,-17,-24,41,48,68,53,-126,-161,-200
-4,39,43,-17,-24,41,48,68,53,-126,-161,-204
-4,39,43,-17,-24,41,48,73,63,-126,-161,-204
-4,29,34,-12,-19,31,48,78,63,-126,-165,-204
-24,29,53,-2,-39,41,58,68,58,-126,-165,-204
-24,29,53,-2,-39,41,63,82,58,-131,-165,-204
-19,34,53,-7,-36,43,73,87,63,-131,-165,-214
4,43,39,-24,-17,41,78,87,63,-131,-175,-219
14,34,19,-24,-2,26,73,87,73,-131,-180,-224
14,29,14,-21,0,21,68,87,82,-136,-185,-229
-4,24,29,-9,-17,26,68,97,87,-136,-190,-234
-4,24,29,-9,-17,26,63,97,92,-136,-195,-239
-9,19,29,-4,-19,24,53,97,97,-141,-209,-248
0,14,14,-7,-7,14,53,107,97,-146,-214,-248
0,9,9,-4,-4,9,63,112,92,-151,-214,-258
-19,-4,14,12,-17,4,63,112,92,-156,-219,-263
-19,0,19,9,-19,9,63,117,107,-151,-209,-263
-29,0,29,14,-29,14,68,126,112,-151,-214,-263
-9,9,19,0,-14,14,68,131,117,-151,-214,-268
4,9,4,-7,0,7,68,136,122,-156,-224,-283
-19,-19,0,19,-9,-9,78,131,126,-165,-234,-287
-24,-24,0,24,-12,-12,78,141,136,-165,-239,-287
-19,-24,-4,21,-7,-14,78,141,136,-165,-244,-292
0,-29,-29,14,14,-29,78,146,136,-165,-253,-302
9,-24,-34,7,21,-29,92,165,146,-165,-244,-312
4,-19,-24,7,14,-21,97,170,151,-170,-253,-322
-14,-14,0,14,-7,-7,107,170,156,-170,-258,-322
-19,-9,9,14,-14,0,112,185,170,-170,-258,-326
-29,-9,19,19,-24,4,117,200,180,-175,-258,-336
-29,-19,9,24,-19,-4,117,200,180,-185,-263,-346
-29,-19,9,24,-19,-4,112,200,190,-190,-268,-346
-24,-19,4,21,-14,-7,107,209,200,-190,-273,-346
-14,-29,-14,21,0,-21,97,200,180,-195,-278,-361
-19,-39,-19,29,0,-29,97,200,180,-209,-287,-375
-19,-39,-19,29,0,-29,97,200,185,-209,-297,-395
-19,-39,-19,29,0,-29,97,209,185,-214,-297,-405
-9,-39,-29,24,9,-34,97,209,185,-224,-307,-409
-4,-43,-39,24,17,-41,97,209,185,-234,-307,-414
-4,-43,-39,24,17,-41,102,200,185,-244,-307,-419
-4,-39,-34,21,14,-36,102,200,185,-253,-307,-424
-4,-24,-19,14,7,-21,102,200,180,-258,-307,-429
4,-24,-29,9,17,-26,97,200,180,-258,-307,-434
4,-24,-29,9,17,-26,97,200,170,-263,-307,-444
0,-19,-19,9,9,-19,92,204,170,-268,-307,-444
-9,-19,-9,14,0,-14,102,204,180,-273,-297,-448
0,-14,-14,7,7,-14,97,200,180,-287,-292,-453
0,-14,-14,7,7,-14,97,195,175,-287,-292,-453
-9,-14,-4,12,-2,-9,97,190,170,-292,-287,-448
-14,-4,9,9,-12,2,87,190,175,-287,-283,-439
-19,4,24,7,-21,14,82,190,170,-287,-278,-439
-14,4,19,4,-17,12,78,185,170,-292,-273,-439
-19,9,29,4,-24,19,78,180,165,-292,-273,-439
-9,24,34,-7,-21,29,82,170,156,-292,-263,-429
-4,39,43,-17,-24,41,73,165,156,-292,-253,-424
4,39,34,-21,-14,36,68,161,146,-292,-244,-409
14,53,39,-34,-12,46,63,146,141,-292,-239,-400
24,43,19,-34,2,31,48,136,131,-278,-224,-385
19,53,34,-36,-7,43,43,136,122,-263,-209,-366
0,53,53,-26,-26,53,34,126,117,-263,-200,-356
9,68,58,-39,-24,63,19,112,117,-263,-190,-341
19,87,68,-53,-24,78,9,112,117,-253,-161,-307
34,117,82,-75,-24,100,4,112,117,-239,-146,-283
43,131,87,-87,-21,109,4,107,112,-209,-126,-263
53,141,87,-97,-17,114,0,92,102,-190,-112,-244
58,141,82,-100,-12,112,-4,87,102,-180,-102,-214
63,156,92,-109,-14,124,-9,68,87,-180,-97,-200
73,156,82,-114,-4,119,-4,53,82,-165,-78,-180
78,156,78,-117,0,117,-4,53,73,-151,-63,-161
73,156,82,-114,-4,119,-14,48,68,-136,-48,-131
73,170,97,-122,-12,134,-19,29,48,-131,-43,-107
73,170,97,-122,-12,134,-24,19,39,-122,-29,-92
73,165,92,-119,-9,129,-29,9,34,-117,-19,-78
58,165,107,-112,-24,136,-34,9,24,-117,-9,-68
53,180,126,-117,-36,153,-34,0,14,-107,-4,-53
53,180,126,-117,-36,153,-34,0,4,-107,0,-48
58,180,122,-119,-31,151,-39,-9,-4,-107,4,-43
48,170,122,-109,-36,146,-53,-29,-14,-107,0,-48
53,170,117,-112,-31,143,-58,-39,-24,-102,0,-34
73,170,97,-122,-12,134,-63,-39,-34,-102,4,-34
78,175,97,-126,-9,136,-63,-43,-34,-112,4,-19
68,165,97,-117,-14,131,-73,-48,-39,-102,4,-19
68,165,97,-117,-14,131,-78,-53,-43,-102,4,-19
73,146,73,-109,0,109,-78,-63,-58,-107,9,-19
78,161,82,-119,-2,122,-78,-68,-63,-107,9,-19
87,170,82,-129,2,126,-68,-68,-63,-102,19,-14
78,170,92,-124,-7,131,-68,-68,-68,-102,19,-14
78,170,92,-124,-7,131,-68,-73,-73,-107,14,-14
73,170,97,-122,-12,134,-78,-78,-78,-117,14,-9
78,175,97,-126,-9,136,-73,-73,-68,-107,19,-4
82,180,97,-131,-7,139,-63,-73,-68,-102,24,0
87,185,97,-136,-4,141,-58,-68,-63,-97,29,4
87,185,97,-136,-4,141,-53,-63,-58,-97,34,14
82,161,78,-122,2,119,-58,-73,-63,-97,24,4
92,161,68,-126,12,114,-58,-78,-78,-102,24,0
87,170,82,-129,2,126,-63,-78,-82,-102,19,0
78,175,97,-126,-9,136,-73,-78,-87,-112,19,0
78,175,97,-126,-9,136,-68,-87,-92,-122,19,0
87,175,87,-131,0,131,-78,-87,-97,-122,14,-4
102,175,73,-139,14,124,-78,-87,-97,-122,14,-4
112,175,63,-143,24,119,-53,-82,-92,-122,24,-4
97,161,63,-129,17,112,-43,-78,-92,-102,34,4
87,156,68,-122,9,112,-43,-78,-92,-112,29,0
73,156,82,-114,-4,119,-53,-73,-92,-112,29,0
58,151,92,-104,-17,122,-58,-78,-102,-112,29,0
73,151,78,-112,-2,114,-63,-82,-102,-117,14,-9
82,151,68,-117,7,109,-63,-87,-102,-117,14,-9
87,151,63,-119,12,107,-68,-92,-102,-117,9,-14
92,151,58,-122,17,104,-78,-97,-107,-117,0,-19
87,151,63,-119,12,107,-78,-87,-97,-112,4,-19
87,151,63,-119,12,107,-68,-87,-92,-112,4,-14
68,151,82,-109,-7,117,-63,-82,-87,-107,9,-4
68,151,82,-109,-7,117,-63,-82,-87,-107,14,0
87,156,68,-122,9,112,-58,-82,-92,-107,14,-9
87,156,68,-122,9,112,-63,-82,-92,-112,14,-9
87,161,73,-124,7,117,-63,-82,-92,-112,14,-4
92,161,68,-126,12,114,-63,-82,-87,-112,14,-4
82,151,68,-117,7,109,-73,-82,-87,-117,4,-14
92,151,58,-122,17,104,-73,-82,-82,-117,0,-14
102,151,48,-126,26,100,-68,-82,-82,-117,0,-14
87,151,63,-119,12,107,-68,-82,-82,-117,0,-14
87,151,63,-119,12,107,-78,-82,-78,-107,0,-9
87,151,63,-119,12,107,-78,-78,-78,-107,4,-9
92,146,53,-119,19,100,-73,-73,-78,-102,9,-9
92,141,48,-117,21,95,-73,-73,-73,-102,19,-14
87,146,58,-117,14,102,-58,-63,-73,-87,19,-4
82,156,73,-119,4,114,-58,-58,-68,-87,19,-4
82,161,78,-122,2,119,-53,-58,-63,-87,19,0
82,165,82,-124,0,124,-48,-53,-63,-87,14,4
73,161,87,-117,-7,124,-58,-53,-63,-82,14,9
82,156,73,-119,4,114,-53,-53,-63,-78,19,14
82,151,68,-117,7,109,-53,-58,-63,-78,24,14
78,146,68,-112,4,107,-58,-58,-63,-73,24,4
68,146,78,-107,-4,112,-68,-53,-48,-63,24,4
68,151,82,-109,-7,117,-68,-53,-48,-73,24,4
73,151,78,-112,-2,114,-68,-53,-43,-73,24,4
73,151,78,-112,-2,114,-68,-53,-39,-63,24,4
73,141,68,-107,2,104,-73,-58,-34,-73,19,14
78,141,63,-109,7,102,-78,-58,-39,-63,14,14
82,141,58,-112,12,100,-82,-58,-43,-58,14,14
87,141,53,-114,17,97,-82,-58,-43,-58,14,19
82,161,78,-122,2,119,-68,-53,-34,-53,29,29
82,161,78,-122,2,119,-63,-48,-29,-53,29,24
87,161,73,-124,7,117,-63,-43,-24,-53,29,24
87,161,73,-124,7,117,-58,-39,-19,-53,29,29
87,161,73,-124,7,117,-48,-43,-19,-53,29,19
87,161,73,-124,7,117,-48,-43,-14,-43,29,29
87,161,73,-124,7,117,-48,-43,-9,-39,24,29
87,170,82,-129,2,126,-48,-43,-9,-39,19,29
82,170,87,-126,-2,129,-58,-29,0,-29,34,34
78,170,92,-124,-7,131,-43,-29,0,-24,39,43
68,170,102,-119,-17,136,-43,-29,0,-19,39,48
63,170,107,-117,-21,139,-53,-29,0,-19,39,53
73,165,92,-119,-9,129,-68,-43,-4,-34,34,48
73,156,82,-114,-4,119,-68,-43,-4,-34,29,43
73,170,97,-122,-12,134,-63,-39,0,-24,39,39
73,170,97,-122,-12,134,-58,-39,-4,-24,43,39
68,165,97,-117,-14,131,-58,-39,-4,-24,43,48
68,165,97,-117,-14,131,-58,-39,-4,-19,43,48
68,165,97,-117,-14,131,-63,-34,-4,-19,39,48
82,165,82,-124,0,124,-63,-34,-4,-19,39,48
92,165,73,-129,9,119,-73,-43,-19,-24,39,53
82,175,92,-129,-4,134,-73,-48,-19,-24,39,53
82,175,92,-129,-4,134,-78,-53,-19,-24,34,53
97,170,73,-134,12,122,-78,-53,-19,-24,34,48
92,170,78,-131,7,124,-73,-48,-9,-14,48,48
78,180,102,-129,-12,141,-63,-43,-4,-4,58,53
73,180,107,-126,-17,143,-58,-34,0,0,58,58
53,175,122,-114,-34,148,-63,-29,0,0,58,63
73,165,92,-119,-9,129,-73,-43,-14,-4,48,63
78,170,92,-124,-7,131,-78,-43,-19,-9,43,63
78,170,92,-124,-7,131,-78,-43,-24,-14,43,63
78,161,82,-119,-2,122,-78,-48,-24,-14,43,58
68,170,102,-119,-17,136,-73,-58,-24,-24,43,48
82,170,87,-126,-2,129,-73,-58,-24,-24,43,48
87,170,82,-129,2,126,-68,-58,-24,-24,48,53
92,175,82,-134,4,129,-68,-58,-29,-24,48,53
102,185,82,-143,9,134,-63,-48,-19,-19,48,63
107,190,82,-148,12,136,-63,-48,-19,-19,48,63
107,190,82,-148,12,136,-63,-48,-19,-19,48,63
97,190,92,-143,2,141,-68,-48,-24,-19,48,63
87,185,97,-136,-4,141,-68,-48,-24,-19,58,68
87,180,92,-134,-2,136,-63,-48,-19,-14,63,68
87,180,92,-134,-2,136,-63,-43,-19,-14,68,68
87,180,92,-134,-2,136,-63,-43,-24,-19,68,63
87,180,92,-134,-2,136,-73,-58,-34,-24,53,58
87,170,82,-129,2,126,-82,-63,-34,-24,48,58
87,170,82,-129,2,126,-82,-63,-39,-34,48,58
87,170,82,-129,2,126,-82,-68,-43,-24,43,58
92,170,78,-131,7,124,-92,-68,-43,-34,43,48
97,175,78,-136,9,126,-92,-73,-43,-39,48,53
97,156,58,-126,19,107,-87,-73,-43,-39,48,63
97,151,53,-124,21,102,-87,-73,-43,-39,48,63
107,156,48,-131,29,102,-68,-73,-39,-29,53,58
107,175,68,-141,19,122,-68,-68,-39,-24,53,58
97,180,82,-139,7,131,-68,-68,-39,-24,53,58
117,175,58,-146,29,117,-68,-68,-43,-29,48,58
136,165,29,-151,53,97,-68,-73,-48,-29,48,53
122,170,48,-146,36,109,-78,-73,-48,-29,48,53
117,170,53,-143,31,112,-78,-73,-48,-29,48,53
117,165,48,-141,34,107,-78,-68,-48,-29,53,48
112,161,48,-136,31,104,-78,-78,-48,-39,53,48
117,161,43,-139,36,102,-78,-87,-48,-43,43,48
102,165,63,-134,19,114,-78,-87,-48,-43,43,48
97,165,68,-131,14,117,-78,-82,-48,-43,48,43
107,165,58,-136,24,112,-68,-73,-48,-39,58,48
107,165,58,-136,24,112,-68,-73,-48,-34,58,53
107,165,58,-136,24,112,-68,-78,-58,-34,48,48
107,161,53,-134,26,107,-68,-82,-58,-29,48,53
102,161,58,-131,21,109,-82,-92,-58,-39,43,43
97,156,58,-126,19,107,-82,-92,-58,-39,43,43
92,156,63,-124,14,109,-87,-92,-63,-39,43,48
87,156,68,-122,9,112,-97,-87,-63,-39,43,48
92,165,73,-129,9,119,-92,-82,-63,-29,53,58
107,175,68,-141,19,122,-87,-78,-63,-29,53,58
112,175,63,-143,24,119,-82,-78,-63,-29,53,58
122,175,53,-148,34,114,-82,-73,-63,-29,48,58
112,170,58,-141,26,114,-82,-82,-63,-39,39,58
107,165,58,-136,24,112,-73,-82,-63,-39,43,58
92,151,58,-122,17,104,-73,-82,-58,-34,43,53
73,146,73,-109,0,109,-73,-82,-58,-34,43,48
82,156,73,-119,4,114,-82,-92,-68,-43,34,53
92,161,68,-126,12,114,-82,-92,-68,-43,34,53
107,161,53,-134,26,107,-82,-92,-68,-48,34,43
117,165,48,-141,34,107,-78,-92,-73,-48,34,43
107,161,53,-134,26,107,-78,-87,-63,-43,39,43
131,161,29,-146,51,95,-87,-92,-68,-43,34,43
122,161,39,-141,41,100,-87,-87,-68,-39,34,43
122,161,39,-141,41,100,-82,-82,-68,-34,34,48
107,170,63,-139,21,117,-87,-87,-68,-34,34,48
107,165,58,-136,24,112,-87,-87,-68,-34,34,48
102,151,48,-126,26,100,-87,-92,-73,-39,34,48
92,146,53,-119,19,100,-87,-92,-73,-39,34,43
107,161,53,-134,26,107,-78,-92,-68,-29,34,53
112,165,53,-139,29,109,-78,-87,-63,-29,39,58
112,170,58,-141,26,114,-73,-87,-63,-29,39,58
117,175,58,-146,29,117,-73,-87,-68,-29,39,58
102,161,58,-131,21,109,-78,-87,-78,-34,29,53
97,156,58,-126,19,107,-82,-92,-78,-39,29,48
102,146,43,-124,29,95,-82,-92,-78,-39,29,48
112,141,29,-126,41,85,-82,-92,-78,-39,29,43
112,156,43,-134,34,100,-73,-82,-73,-34,34,53
102,161,58,-131,21,109,-73,-82,-68,-34,39,53
102,170,68,-136,17,119,-73,-78,-63,-29,48,53
107,180,73,-143,17,126,-68,-78,-58,-24,53,53
117,175,58,-146,29,117,-82,-87,-68,-29,43,43
112,165,53,-139,29,109,-87,-87,-73,-39,43,43
102,161,58,-131,21,109,-92,-87,-82,-43,43,53
102,156,53,-129,24,104,-97,-92,-73,-43,43,53
92,151,58,-122,17,104,-87,-92,-78,-34,39,48
78,141,63,-109,7,102,-82,-92,-78,-39,39,39
87,151,63,-119,12,107,-82,-92,-78,-39,39,39
102,151,48,-126,26,100,-87,-92,-82,-39,39,39
117,156,39,-136,39,97,-97,-82,-78,-48,39,43
117,156,39,-136,39,97,-92,-82,-78,-39,43,48
107,156,48,-131,29,102,-78,-82,-78,-39,48,48
107,146,39,-126,34,92,-73,-82,-78,-39,53,48
87,136,48,-112,19,92,-82,-92,-82,-29,39,43
87,141,53,-114,17,97,-82,-92,-82,-34,39,43
92,161,68,-126,12,114,-82,-92,-82,-34,39,43
92,165,73,-129,9,119,-82,-92,-82,-39,43,48
102,165,63,-134,19,114,-73,-82,-73,-39,43,48
102,151,48,-126,26,100,-73,-82,-73,-39,43,53
97,151,53,-124,21,102,-73,-87,-73,-39,39,53
92,151,58,-122,17,104,-73,-87,-73,-39,39,58
92,165,73,-129,9,119,-78,-87,-63,-24,43,58
112,170,58,-141,26,114,-87,-92,-78,-34,43,48
107,165,58,-136,24,112,-97,-87,-78,-39,39,48
107,161,53,-134,26,107,-97,-97,-87,-48,39,48
107,156,48,-131,29,102,-97,-97,-87,-48,39,48
107,151,43,-129,31,97,-97,-97,-87,-48,39,48
107,146,39,-126,34,92,-97,-97,-87,-48,39,48
97,156,58,-126,19,107,-82,-87,-82,-39,48,58
97,156,58,-126,19,107,-78,-87,-78,-39,48,58
97,156,58,-126,19,107,-73,-87,-73,-39,48,58
97,156,58,-126,19,107,-68,-87,-68,-39,48,58
92,151,58,-122,17,104,-73,-97,-78,-48,39,48
87,146,58,-117,14,102,-78,-97,-78,-48,39,48
82,141,58,-112,12,100,-82,-97,-78,-48,39,48
78,136,58,-107,9,97,-87,-97,-78,-48,39,48
92,151,58,-122,17,104,-87,-87,-78,-39,39,48
97,156,58,-126,19,107,-87,-87,-78,-39,39,48
102,161,58,-131,21,109,-87,-87,-78,-39,39,48
107,165,58,-136,24,112,-87,-87,-78,-39,39,48
97,161,63,-129,17,112,-87,-97,-78,-48,39,48
97,156,58,-126,19,107,-87,-97,-78,-48,39,48
97,151,53,-124,21,102,-87,-97,-78,-48,39,48
97,146,48,-122,24,97,-87,-97,-78,-48,39,48
87,136,48,-112,19,92,-78,-87,-78,-39,48,58
87,136,48,-112,19,92,-78,-87,-78,-39,48,58
87,136,48,-112,19,92,-78,-87,-78,-39,48,58
87,136,48,-112,19,92,-78,-87,-78,-39,48,58
78,136,58,-107,9,97,-87,-97,-78,-39,48,48
78,136,58,-107,9,97,-87,-97,-78,-39,48,53
78,136,58,-107,9,97,-87,-97,-78,-39,48,53
82,141,58,-112,12,100,-87,-97,-82,-39,48,53
97,151,53,-124,21,102,-82,-97,-82,-48,58,48
102,151,48,-126,26,100,-82,-97,-82,-48,53,48
97,151,53,-124,21,102,-78,-92,-82,-43,53,48
92,146,53,-119,19,100,-73,-92,-82,-39,58,48
102,156,53,-129,24,104,-73,-102,-82,-39,48,48
117,156,39,-136,39,97,-78,-102,-82,-39,48,48
131,161,29,-146,51,95,-78,-102,-82,-39,43,53
131,161,29,-146,51,95,-73,-102,-82,-39,43,53
107,156,48,-131,29,102,-82,-102,-82,-39,53,48
102,156,53,-129,24,104,-82,-102,-82,-39,53,48
102,151,48,-126,26,100,-82,-102,-73,-39,53,48
102,146,43,-124,29,95,-82,-97,-73,-39,53,53
92,156,63,-124,14,109,-78,-87,-78,-39,48,53
82,146,63,-114,9,104,-78,-87,-78,-34,48,58
82,146,63,-114,9,104,-78,-87,-78,-34,48,58
97,165,68,-131,14,117,-78,-78,-73,-34,53,63
122,165,43,-143,39,104,-78,-78,-58,-19,63,73
122,170,48,-146,36,109,-78,-78,-58,-14,63,73
126,180,53,-153,36,117,-82,-78,-53,-14,68,78
126,185,58,-156,34,122,-87,-78,-53,-14,68,78
107,175,68,-141,19,122,-97,-78,-58,-19,68,82
107,185,78,-146,14,131,-97,-78,-58,-14,68,87
117,195,78,-156,19,136,-102,-78,-58,-9,68,87
107,195,87,-151,9,141,-102,-78,-53,0,78,97
97,195,97,-146,0,146,-87,-78,-39,9,82,102
97,209,112,-153,-7,161,-87,-78,-29,14,82,102
97,219,122,-158,-12,170,-87,-73,-19,24,82,117
97,219,122,-158,-12,170,-87,-68,-9,39,87,117
102,229,126,-165,-12,178,-82,-58,-14,43,97,117
107,224,117,-165,-4,170,-78,-58,-14,43,97,117
122,219,97,-170,12,158,-78,-58,-14,43,97,117
126,219,92,-173,17,156,-78,-58,-24,43,97,117
117,204,87,-161,14,146,-92,-87,-39,24,87,107
117,209,92,-163,12,151,-107,-92,-43,24,92,107
122,204,82,-163,19,143,-112,-92,-43,24,92,102
122,185,63,-153,29,124,-117,-97,-53,14,87,97
131,185,53,-158,39,119,-131,-112,-78,-4,82,82
141,185,43,-163,48,114,-136,-122,-87,-9,78,82
146,180,34,-163,56,107,-136,-122,-92,-19,78,73
146,185,39,-165,53,112,-131,-117,-92,-19,78,73
136,180,43,-158,46,112,-126,-112,-92,-14,87,87
131,175,43,-153,43,109,-117,-107,-87,-14,92,87
131,161,29,-146,51,95,-117,-107,-87,-19,92,82
131,151,19,-141,56,85,-117,-107,-92,-24,82,78
146,146,0,-146,73,73,-117,-107,-92,-34,68,63
161,146,-14,-153,87,65,-117,-107,-92,-34,68,63
161,151,-9,-156,85,70,-112,-97,-92,-29,68,68
161,151,-9,-156,85,70,-112,-92,-82,-29,68,68
141,126,-14,-134,78,56,-107,-92,-78,-24,78,73
131,122,-9,-126,70,56,-97,-82,-73,-14,87,87
122,122,0,-122,61,61,-87,-82,-73,-14,87,92
126,117,-9,-122,68,53,-73,-82,-73,-14,87,97
136,112,-24,-124,80,43,-82,-82,-82,-29,78,92
141,112,-29,-126,85,41,-82,-82,-87,-34,73,82
146,102,-43,-124,95,29,-87,-87,-92,-43,73,68
151,102,-48,-126,100,26,-87,-87,-97,-48,73,58
165,112,-53,-139,109,29,-97,-92,-92,-48,73,58
170,117,-53,-143,112,31,-102,-97,-92,-53,68,58
175,122,-53,-148,114,34,-102,-97,-102,-63,63,48
156,122,-34,-139,95,43,-92,-107,-102,-63,58,48
131,112,-19,-122,75,46,-87,-107,-102,-53,58,58
107,107,0,-107,53,53,-87,-107,-107,-53,53,53
87,107,19,-97,34,63,-78,-107,-107,-53,48,53
82,107,24,-95,29,65,-68,-92,-97,-43,48,58
82,117,34,-100,24,75,-68,-92,-92,-39,48,68
82,117,34,-100,24,75,-68,-92,-92,-34,53,63
87,117,29,-102,29,73,-68,-92,-92,-29,48,58
87,117,29,-102,29,73,-68,-92,-97,-29,48,53
82,117,34,-100,24,75,-58,-82,-92,-43,48,53
82,107,24,-95,29,65,-58,-82,-92,-43,58,53
97,117,19,-107,39,68,-48,-78,-87,-43,68,63
97,117,19,-107,39,68,-48,-78,-82,-39,68,63
82,102,19,-92,31,61,-43,-87,-87,-48,48,53
92,97,4,-95,43,51,-43,-87,-97,-48,48,53
107,102,-4,-104,56,48,-43,-92,-102,-48,48,53
107,102,-4,-104,56,48,-43,-92,-107,-48,48,53
102,117,14,-109,43,65,-48,-92,-97,-39,48,63
97,107,9,-102,43,58,-53,-87,-92,-34,53,63
97,107,9,-102,43,58,-53,-87,-82,-24,53,63
97,112,14,-104,41,63,-58,-82,-78,-24,53,63
82,107,24,-95,29,65,-48,-73,-68,-19,48,68
39,97,58,-68,-9,78,-24,-58,-63,-9,58,68
34,117,82,-75,-24,100,0,-39,-43,-4,58,63
73,136,63,-104,4,100,4,-29,-48,-34,24,19
68,92,24,-80,21,58,24,-14,-58,-102,-48,-63
0,58,58,-29,-29,58,78,63,0,-126,-92,-131
-19,68,87,-24,-53,78,151,175,102,-107,-117,-161
4,63,58,-34,-26,61,204,283,190,-78,-136,-161
14,73,58,-43,-21,65,234,356,278,0,-117,-126
34,136,102,-85,-34,119,224,400,409,146,-29,4
107,239,131,-173,-12,185,161,424,541,361,117,224
175,346,170,-261,2,258,82,380,610,585,302,512
239,478,239,-358,0,358,-24,263,575,790,502,805
302,658,356,-480,-26,507,-146,112,517,1005,732,1127
361,878,517,-619,-78,697,-297,-53,478,1283,1015,1517
458,1137,678,-797,-109,907,-478,-263,434,1625,1342,1995
546,1415,868,-980,-161,1141,-673,-551,312,1956,1659,2449
566,1654,1088,-1110,-261,1371,-873,-912,73,2220,1947,2835
600,1766,1166,-1183,-283,1466,-1024,-1190,-156,2366,2142,3079
663,1600,936,-1132,-136,1268,-1005,-1185,-204,2391,2147,3137
668,1176,507,-922,80,841,-810,-946,-92,2342,1961,2976
634,810,175,-722,229,492,-668,-766,-68,2161,1742,2684
590,683,92,-636,248,387,-619,-771,-244,1786,1586,2293
531,629,97,-580,217,363,-575,-785,-522,1156,1371,1722
424,497,73,-461,175,285,-458,-746,-849,219,1010,883
273,380,107,-326,82,244,-331,-678,-1058,-522,644,161
185,317,131,-251,26,224,-244,-585,-1019,-717,429,-102
146,224,78,-185,34,151,-170,-497,-907,-663,307,-131
102,117,14,-109,43,65,-82,-409,-834,-649,165,-214
29,24,-4,-26,17,9,0,-326,-761,-629,43,-292
-29,-29,0,29,-14,-14,39,-268,-707,-605,-19,-312
-29,-34,-4,31,-12,-19,68,-224,-663,-570,-53,-312
-19,-48,-29,34,4,-39,102,-185,-614,-541,-92,-322
-24,-78,-53,51,14,-65,107,-165,-575,-512,-141,-326
-19,-87,-68,53,24,-78,97,-165,-536,-497,-165,-326
-19,-48,-29,34,4,-39,78,-156,-468,-448,-156,-297
-19,-19,0,19,-9,-9,53,-156,-405,-375,-126,-258
-9,19,29,-4,-19,24,29,-156,-336,-312,-97,-204
4,53,48,-29,-21,51,24,-112,-263,-239,-53,-146
-4,78,82,-36,-43,80,19,-68,-200,-180,-29,-97
4,87,82,-46,-39,85,14,-58,-170,-151,-14,-87
34,87,53,-61,-9,70,-4,-48,-151,-141,-19,-82
14,68,53,-41,-19,61,-4,-43,-126,-126,-19,-82
24,63,39,-43,-7,51,0,-24,-102,-122,-29,-82
39,73,34,-56,2,53,0,-19,-82,-117,-29,-68
43,78,34,-61,4,56,9,-39,-78,-97,-29,-68
39,78,39,-58,0,58,9,-48,-73,-78,-24,-68
34,68,34,-51,0,51,9,-53,-63,-68,-19,-48
39,58,19,-48,9,39,19,-34,-48,-63,-4,-34
53,53,0,-53,26,26,14,-14,-43,-63,-4,-34
53,48,-4,-51,29,21,14,0,-43,-68,-4,-34
43,43,0,-43,21,21,19,4,-39,-78,-4,-39
43,43,0,-43,21,21,9,-4,-39,-68,-14,-43
43,43,0,-43,21,21,9,-19,-39,-63,-24,-48
34,48,14,-41,9,31,9,-29,-39,-58,-24,-48
48,53,4,-51,21,29,9,-29,-39,-48,-24,-39
48,63,14,-56,17,39,9,-19,-39,-48,-24,-39
53,63,9,-58,21,36,9,-9,-39,-53,-19,-34
53,58,4,-56,24,31,9,-4,-34,-63,-14,-34
43,53,9,-48,17,31,9,4,-34,-68,-14,-34
53,53,0,-53,26,26,24,4,-29,-58,-4,-24
58,53,-4,-56,31,24,24,0,-29,-58,-14,-34
58,53,-4,-56,31,24,24,-4,-34,-58,-24,-43
58,53,-4,-56,31,24,24,-9,-34,-58,-24,-43
48,48,0,-48,24,24,34,-9,-24,-58,-14,-34
43,48,4,-46,19,26,29,-9,-24,-53,-14,-29
34,43,9,-39,12,26,29,0,-19,-53,-14,-29
24,43,19,-34,2,31,34,4,-14,-48,-14,-29
39,48,9,-43,14,29,43,14,-24,-39,-14,-19
43,48,4,-46,19,26,43,9,-24,-43,-24,-29
48,53,4,-51,21,29,43,9,-24,-43,-24,-29
63,63,0,-63,31,31,43,9,-24,-39,-14,-24
39,53,14,-46,12,34,29,0,-29,-43,-24,-24
29,39,9,-34,9,24,29,0,-29,-48,-24,-29
29,39,9,-34,9,24,24,0,-29,-53,-24,-34
34,43,9,-39,12,26,14,9,-29,-63,-29,-39
39,43,4,-41,17,24,14,9,-34,-63,-43,-39
48,43,-4,-46,26,19,14,9,-34,-58,-43,-39
53,43,-9,-48,31,17,19,9,-34,-53,-43,-39
63,43,-19,-53,41,12,19,9,-34,-48,-43,-43
48,39,-9,-43,29,14,24,19,-19,-53,-43,-34
43,39,-4,-41,24,17,29,19,-19,-48,-43,-34
29,34,4,-31,12,19,34,19,-19,-48,-43,-34
24,34,9,-29,7,21,29,19,-19,-48,-48,-39
29,29,0,-29,14,14,39,24,-29,-48,-58,-48
34,24,-9,-29,21,7,43,24,-24,-58,-58,-48
39,19,-19,-29,29,0,43,24,-24,-58,-68,-53
39,14,-24,-26,31,-4,43,24,-24,-58,-68,-53
29,9,-19,-19,24,-4,53,34,-19,-53,-53,-43
34,14,-19,-24,26,-2,53,39,-14,-48,-53,-48
39,19,-19,-29,29,0,53,39,-4,-43,-63,-48
39,24,-14,-31,26,4,53,43,4,-39,-63,-39
48,19,-29,-34,39,-4,53,53,9,-39,-58,-48
43,9,-34,-26,39,-12,53,53,9,-39,-58,-53
34,4,-29,-19,31,-12,53,53,9,-39,-58,-53
34,0,-34,-17,34,-17,53,53,9,-39,-58,-53
43,9,-34,-26,39,-12,53,63,9,-39,-73,-48
43,9,-34,-26,39,-12,53,63,9,-43,-73,-48
39,4,-34,-21,36,-14,53,63,9,-43,-73,-53
39,4,-34,-21,36,-14,53,68,9,-43,-82,-53
43,0,-43,-21,43,-21,53,58,14,-43,-82,-53
43,0,-43,-21,43,-21,58,58,19,-48,-82,-53
39,0,-39,-19,39,-19,58,63,19,-48,-92,-68
39,0,-39,-19,39,-19,58,63,19,-53,-92,-78
39,-14,-53,-12,46,-34,68,63,4,-53,-97,-78
39,-14,-53,-12,46,-34,68,68,4,-53,-97,-78
43,-9,-53,-17,48,-31,78,68,14,-48,-97,-78
53,-9,-63,-21,58,-36,78,73,19,-43,-97,-73
48,-19,-68,-14,58,-43,68,78,29,-53,-97,-73
43,-19,-63,-12,53,-41,68,78,29,-53,-97,-73
39,-19,-58,-9,48,-39,68,87,29,-53,-107,-78
24,-29,-53,2,39,-41,68,87,29,-53,-112,-87
14,-19,-34,2,24,-26,78,97,39,-58,-102,-82
14,-19,-34,2,24,-26,78,97,43,-58,-102,-87
14,-19,-34,2,24,-26,78,102,58,-58,-102,-87
14,-29,-43,7,29,-36,78,107,63,-58,-107,-87
-4,-34,-29,19,12,-31,82,97,58,-48,-112,-97
-4,-39,-34,21,14,-36,82,112,58,-53,-117,-97
0,-39,-39,19,19,-39,87,117,63,-53,-122,-107
24,-34,-58,4,41,-46,87,117,63,-53,-136,-112
29,-34,-63,2,46,-48,87,126,73,-43,-136,-112
34,-39,-73,2,53,-56,87,126,82,-48,-136,-112
19,-43,-63,12,41,-53,92,136,87,-48,-136,-112
24,-43,-68,9,46,-56,92,136,92,-48,-136,-112
24,-34,-58,4,41,-46,92,146,102,-58,-131,-112
29,-34,-63,2,46,-48,92,156,107,-58,-136,-112
24,-34,-58,4,41,-46,102,161,107,-58,-136,-122
0,-43,-43,21,21,-43,102,161,112,-58,-141,-126
14,-58,-73,21,43,-65,92,156,112,-73,-146,-141
9,-68,-78,29,43,-73,97,165,112,-73,-156,-146
34,-68,-102,17,68,-85,97,170,112,-73,-161,-156
53,-78,-131,12,92,-104,97,175,112,-78,-175,-175
19,-82,-102,31,61,-92,122,190,136,-78,-175,-175
4,-82,-87,39,46,-85,126,200,146,-78,-180,-170
0,-78,-78,39,39,-78,131,200,146,-78,-185,-170
9,-78,-87,34,48,-82,136,204,146,-78,-195,-175
24,-87,-112,31,68,-100,131,214,156,-87,-195,-185
24,-87,-112,31,68,-100,126,219,161,-92,-204,-195
9,-87,-97,39,53,-92,126,219,165,-92,-209,-195
9,-87,-97,39,53,-92,122,234,180,-92,-209,-200
4,-82,-87,39,46,-85,141,239,180,-97,-209,-204
9,-87,-97,39,53,-92,146,239,180,-107,-214,-219
14,-82,-97,34,56,-90,146,239,190,-112,-219,-224
24,-78,-102,26,63,-90,146,248,200,-112,-224,-229
24,-87,-112,31,68,-100,146,248,185,-126,-229,-248
19,-97,-117,39,68,-107,146,248,180,-141,-239,-258
19,-97,-117,39,68,-107,146,248,180,-141,-248,-273
19,-97,-117,39,68,-107,146,258,175,-146,-248,-278
14,-87,-102,36,58,-95,136,268,195,-141,-248,-273
14,-92,-107,39,61,-100,136,268,195,-146,-248,-278
9,-92,-102,41,56,-97,141,258,195,-151,-248,-283
4,-87,-92,41,48,-90,141,258,195,-156,-248,-287
4,-82,-87,39,46,-85,136,248,195,-165,-248,-302
14,-82,-97,34,56,-90,126,248,190,-170,-248,-307
14,-82,-97,34,56,-90,122,248,175,-180,-248,-317
9,-78,-87,34,48,-82,112,253,170,-190,-248,-317
19,-78,-97,29,58,-87,122,253,170,-185,-248,-312
29,-73,-102,21,65,-87,117,248,170,-200,-244,-317
29,-73,-102,21,65,-87,117,244,165,-200,-244,-317
19,-73,-92,26,56,-82,117,239,161,-204,-239,-312
24,-43,-68,9,46,-56,107,229,156,-200,-234,-312
29,-34,-63,2,46,-48,102,229,151,-200,-229,-312
43,-34,-78,-4,61,-56,97,224,151,-204,-224,-312
48,-29,-78,-9,63,-53,97,219,146,-204,-224,-312
39,-24,-63,-7,51,-43,102,214,156,-195,-209,-297
34,-9,-43,-12,39,-26,92,214,156,-195,-195,-287
34,-9,-43,-12,39,-26,87,214,146,-195,-180,-268
34,4,-29,-19,31,-12,82,204,141,-195,-170,-253
48,-4,-53,-21,51,-29,73,195,131,-180,-165,-239
48,4,-43,-26,46,-19,73,195,122,-165,-151,-219
34,4,-29,-19,31,-12,68,185,117,-165,-141,-209
48,19,-29,-34,39,-4,58,170,117,-165,-131,-195
53,34,-19,-43,36,7,58,161,117,-156,-112,-170
63,58,-4,-61,34,26,53,161,117,-141,-97,-146
68,68,0,-68,34,34,53,156,112,-112,-78,-126
73,73,0,-73,36,36,48,141,102,-92,-63,-107
68,68,0,-68,34,34,29,126,92,-82,-53,-78
63,78,14,-70,24,46,19,107,78,-82,-48,-63
63,73,9,-68,26,41,19,92,73,-68,-29,-43
58,68,9,-63,24,39,14,92,63,-53,-14,-24
63,73,9,-68,26,41,-4,78,58,-48,-9,-4
73,92,19,-82,26,56,-9,58,39,-43,-4,19
82,97,14,-90,34,56,-14,48,29,-34,9,34
92,97,4,-95,43,51,-19,39,24,-29,19,48
107,107,0,-107,53,53,-14,39,4,-29,19,48
112,122,9,-117,51,65,-14,29,-4,-19,24,63
122,122,0,-122,61,61,-14,29,-14,-19,29,68
136,122,-14,-129,75,53,-19,19,-24,-19,34,73
107,112,4,-109,51,58,-14,19,-29,-9,48,87
102,112,9,-107,46,61,-19,9,-34,-4,48,102
112,112,0,-112,56,56,-24,9,-39,-4,53,102
107,117,9,-112,48,63,-24,4,-34,-14,53,117
107,107,0,-107,53,53,-34,-9,-48,-4,53,117
107,107,0,-107,53,53,-39,-14,-53,-4,53,117
112,87,-24,-100,68,31,-39,-24,-68,-9,58,117
117,102,-14,-109,65,43,-39,-29,-73,-9,58,117
107,102,-4,-104,56,48,-34,-29,-63,-4,68,122
97,102,4,-100,46,53,-29,-29,-68,-4,68,122
97,102,4,-100,46,53,-24,-34,-73,-9,63,122
92,102,9,-97,41,56,-29,-39,-78,-19,63,126
102,97,-4,-100,53,46,-34,-48,-82,-19,53,117
102,92,-9,-97,56,41,-34,-53,-87,-14,53,117
102,87,-14,-95,58,36,-39,-53,-87,-9,53,117
97,78,-19,-87,58,29,-43,-53,-87,-9,53,122
97,68,-29,-82,63,19,-43,-53,-97,-19,53,112
112,73,-39,-92,75,17,-39,-58,-107,-24,53,107
112,87,-24,-100,68,31,-39,-58,-107,-24,48,107
107,97,-9,-102,58,43,-43,-58,-107,-34,48,107
87,87,0,-87,43,43,-39,-68,-102,-24,58,117
87,87,0,-87,43,43,-48,-68,-107,-24,53,112
92,87,-4,-90,48,41,-48,-68,-107,-24,53,112
92,87,-4,-90,48,41,-24,-63,-102,-24,63,112
97,87,-9,-92,53,39,-14,-58,-102,-4,53,122
97,87,-9,-92,53,39,-14,-58,-102,-14,48,117
92,92,0,-92,46,46,-24,-53,-102,-14,48,117
87,92,4,-90,41,48,-29,-58,-112,-14,48,117
102,92,-9,-97,56,41,-34,-58,-112,-19,48,107
112,92,-19,-102,65,36,-34,-58,-112,-19,53,107
117,92,-24,-104,70,34,-39,-58,-112,-19,53,102
122,92,-29,-107,75,31,-48,-58,-117,-19,48,97
112,87,-24,-100,68,31,-58,-58,-117,-24,48,102
107,82,-24,-95,65,29,-48,-58,-112,-24,43,102
82,78,-4,-80,43,36,-43,-53,-107,-19,43,107
78,73,-4,-75,41,34,-43,-53,-107,-19,43,107
97,78,-19,-87,58,29,-39,-53,-112,-19,43,97
97,78,-19,-87,58,29,-43,-53,-112,-24,43,97
97,82,-14,-90,56,34,-43,-53,-112,-24,43,102
102,82,-19,-92,61,31,-43,-53,-107,-24,43,102
112,87,-24,-100,68,31,-34,-43,-102,-14,53,112
122,92,-29,-107,75,31,-34,-43,-92,-9,48,112
131,97,-34,-114,82,31,-29,-43,-87,-4,48,112
117,102,-14,-109,65,43,-29,-43,-82,0,48,112
112,92,-19,-102,65,36,-29,-43,-87,-9,43,112
107,92,-14,-100,61,39,-29,-39,-87,-9,43,107
107,87,-19,-97,63,34,-24,-34,-87,-4,43,102
102,82,-19,-92,61,31,-24,-34,-82,-4,48,92
87,73,-14,-80,51,29,-34,-43,-82,0,48,102
82,78,-4,-80,43,36,-39,-39,-78,0,48,102
82,78,-4,-80,43,36,-39,-39,-73,0,48,107
82,78,-4,-80,43,36,-39,-34,-73,0,43,112
87,82,-4,-85,46,39,-39,-24,-73,4,34,107
102,87,-14,-95,58,36,-34,-24,-73,9,39,112
107,92,-14,-100,61,39,-34,-29,-73,9,43,112
107,97,-9,-102,58,43,-39,-29,-73,14,43,102
107,82,-24,-95,65,29,-39,-34,-68,14,43,112
107,82,-24,-95,65,29,-39,-34,-68,4,43,112
112,78,-34,-95,73,21,-39,-34,-63,4,43,112
112,73,-39,-92,75,17,-39,-34,-58,14,43,112
97,87,-9,-92,53,39,-34,-24,-48,24,48,122
97,92,-4,-95,51,43,-29,-19,-48,34,43,122
97,97,0,-97,48,48,-24,-14,-48,39,43,122
97,102,4,-100,46,53,-14,-9,-43,39,43,126
102,102,0,-102,51,51,-14,-9,-29,43,39,136
102,102,0,-102,51,51,-14,-9,-29,43,39,131
107,102,-4,-104,56,48,-19,-9,-29,43,39,131
107,102,-4,-104,56,48,-19,-9,-29,43,39,136
107,92,-14,-100,61,39,-9,-4,-39,43,43,126
107,92,-14,-100,61,39,-9,-4,-34,53,48,136
107,92,-14,-100,61,39,-9,-4,-29,58,48,136
107,102,-4,-104,56,48,-9,-4,-29,58,48,136
117,97,-19,-107,68,39,-24,0,-19,48,58,146
117,92,-24,-104,70,34,-14,0,-19,53,58,151
112,87,-24,-100,68,31,-19,0,-19,58,53,151
112,82,-29,-97,70,26,-34,0,-19,58,48,151
112,82,-29,-97,70,26,-34,-4,-29,53,58,151
112,78,-34,-95,73,21,-29,-4,-24,53,58,151
112,97,-14,-104,63,41,-19,0,-14,63,73,151
112,102,-9,-107,61,46,-9,0,-14,63,82,156
102,87,-14,-95,58,36,-14,0,-14,63,82,156
107,87,-19,-97,63,34,-19,0,-14,68,82,156
112,87,-24,-100,68,31,-29,4,-14,68,78,156
131,87,-43,-109,87,21,-34,4,-14,68,78,156
122,92,-29,-107,75,31,-24,-4,-19,73,68,161
112,107,-4,-109,58,51,-24,-9,-19,73,68,161
112,112,0,-112,56,56,-29,-14,-19,73,63,161
126,112,-14,-119,70,48,-29,-14,-19,73,63,156
122,102,-19,-112,70,41,-19,-4,-29,63,58,156
107,112,4,-109,51,58,-14,-4,-24,73,68,161
102,112,9,-107,46,61,-14,0,-19,78,68,165
82,107,24,-95,29,65,-24,0,-19,78,68,170
102,97,-4,-100,53,46,-24,-14,-14,73,68,161
107,102,-4,-104,56,48,-29,-14,-19,68,63,161
107,102,-4,-104,56,48,-29,-14,-24,63,63,161
107,92,-14,-100,61,39,-29,-19,-24,63,63,156
117,97,-19,-107,68,39,-34,-9,-24,63,68,165
131,102,-29,-117,80,36,-34,-9,-24,63,73,165
136,107,-29,-122,82,39,-29,-9,-24,63,82,170
141,117,-24,-129,82,46,-29,-9,-29,63,87,170
131,117,-14,-124,73,51,-43,-19,-39,58,87,161
136,112,-24,-124,80,43,-43,-19,-39,58,87,161
136,102,-34,-119,85,34,-43,-19,-39,58,87,161
126,92,-34,-109,80,29,-48,-19,-43,58,87,161
117,97,-19,-107,68,39,-48,-29,-43,58,78,165
117,92,-24,-104,70,34,-43,-29,-39,63,82,165
117,92,-24,-104,70,34,-43,-24,-39,63,87,165
117,92,-24,-104,70,34,-43,-24,-43,58,87,161
117,102,-14,-109,65,43,-34,-19,-43,53,82,156
117,92,-24,-104,70,34,-43,-24,-43,53,78,156
117,92,-24,-104,70,34,-43,-24,-48,43,78,156
117,92,-24,-104,70,34,-43,-29,-53,53,73,156
107,97,-9,-102,58,43,-43,-19,-43,53,73,156
97,107,9,-102,43,58,-43,-24,-43,48,78,161
82,92,9,-87,36,51,-39,-24,-43,48,78,170
68,92,24,-80,21,58,-39,-24,-43,48,78,170
78,92,14,-85,31,53,-39,-29,-48,48,73,156
87,107,19,-97,34,63,-39,-29,-48,53,73,156
87,107,19,-97,34,63,-39,-34,-48,53,73,156
117,97,-19,-107,68,39,-39,-39,-53,48,68,156
141,97,-43,-119,92,26,-48,-53,-63,34,58,141
131,102,-29,-117,80,36,-58,-53,-68,29,58,141
131,102,-29,-117,80,36,-58,-53,-73,24,58,141
136,97,-39,-117,87,29,-58,-48,-78,19,63,136
131,92,-39,-112,85,26,-53,-43,-73,34,68,141
136,92,-43,-114,90,24,-48,-48,-68,34,63,146
122,97,-24,-109,73,36,-43,-43,-63,39,68,151
117,97,-19,-107,68,39,-39,-34,-58,43,78,151
112,87,-24,-100,68,31,-39,-34,-58,43,78,151
107,87,-19,-97,63,34,-39,-34,-58,43,78,151
102,87,-14,-95,58,36,-39,-39,-68,39,68,141
97,82,-14,-90,56,34,-39,-43,-68,39,68,141
107,73,-34,-90,70,19,-29,-43,-68,39,82,141
107,68,-39,-87,73,14,-24,-43,-68,39,82,141
107,68,-39,-87,73,14,-24,-43,-73,39,82,146
107,68,-39,-87,73,14,-29,-39,-73,39,82,146
97,78,-19,-87,58,29,-39,-48,-73,29,73,146
107,87,-19,-97,63,34,-39,-48,-73,29,73,146
107,87,-19,-97,63,34,-39,-53,-73,29,73,146
112,87,-24,-100,68,31,-43,-53,-73,29,68,146
117,87,-29,-102,73,29,-53,-53,-82,29,78,146
117,87,-29,-102,73,29,-43,-53,-82,29,82,146
107,78,-29,-92,68,24,-43,-53,-78,34,82,141
92,78,-14,-85,53,31,-43,-53,-78,34,82,136
82,73,-9,-78,46,31,-34,-43,-78,34,73,151
82,73,-9,-78,46,31,-34,-43,-78,34,73,151
87,68,-19,-78,53,24,-34,-43,-78,29,73,141
87,68,-19,-78,53,24,-29,-43,-82,29,73,141
87,82,-4,-85,46,39,-39,-43,-73,29,68,146
112,82,-29,-97,70,26,-48,-53,-78,24,63,141
102,82,-19,-92,61,31,-48,-53,-78,24,63,136
102,82,-19,-92,61,31,-43,-53,-78,24,63,136
102,97,-4,-100,53,46,-39,-48,-78,34,53,136
107,97,-9,-102,58,43,-39,-48,-78,34,53,136
107,87,-19,-97,63,34,-39,-53,-82,29,53,136
102,87,-14,-95,58,36,-39,-53,-82,29,53,131
102,82,-19,-92,61,31,-39,-63,-87,19,63,131
102,78,-24,-90,63,26,-39,-58,-82,19,68,136
97,73,-24,-85,61,24,-34,-58,-82,19,68,136
97,68,-29,-82,63,19,-34,-58,-87,19,68,136
97,68,-29,-82,63,19,-39,-53,-87,19,68,126
97,68,-29,-82,63,19,-43,-53,-87,19,68,126
107,63,-43,-85,75,9,-43,-48,-87,24,68,131
122,63,-58,-92,90,2,-43,-43,-87,29,68,131
117,73,-43,-95,80,14,-43,-53,-87,19,68,122
102,73,-29,-87,65,21,-43,-53,-87,14,68,122
97,78,-19,-87,58,29,-43,-48,-87,14,73,122
97,82,-14,-90,56,34,-39,-48,-87,14,73,122
97,92,-4,-95,51,43,-29,-39,-78,19,82,126
92,87,-4,-90,48,41,-29,-39,-82,19,82,131
82,87,4,-85,39,46,-29,-39,-92,24,82,146
82,87,4,-85,39,46,-29,-43,-82,34,82,151
92,82,-9,-87,51,36,-39,-43,-78,34,68,136
78,73,-4,-75,41,34,-34,-43,-78,29,68,126
87,82,-4,-85,46,39,-34,-43,-78,29,68,126
102,82,-19,-92,61,31,-39,-43,-82,29,68,126
117,78,-39,-97,78,19,-48,-53,-87,9,63,126
117,78,-39,-97,78,19,-43,-53,-87,19,63,126
107,78,-29,-92,68,24,-29,-53,-87,19,63,122
107,68,-39,-87,73,14,-24,-53,-87,19,63,117
92,63,-29,-78,61,17,-29,-53,-92,19,68,122
87,63,-24,-75,56,19,-34,-53,-92,14,68,122
87,78,-9,-82,48,34,-39,-53,-92,14,68,122
82,78,-4,-80,43,36,-43,-53,-92,9,73,126
92,92,0,-92,46,46,-53,-53,-82,19,73,117
102,82,-19,-92,61,31,-53,-53,-82,19,73,122
107,87,-19,-97,63,34,-53,-58,-82,19,68,122
112,92,-19,-102,65,36,-53,-58,-82,19,68,126
112,87,-24,-100,68,31,-39,-58,-82,24,73,126
122,82,-39,-102,80,21,-39,-43,-78,24,73,126
117,78,-39,-97,78,19,-29,-39,-78,19,78,117
107,68,-39,-87,73,14,-19,-48,-87,9,68,126
97,68,-29,-82,63,19,-19,-48,-87,9,68,126
87,68,-19,-78,53,24,-19,-48,-87,9,68,126
78,68,-9,-73,43,29,-19,-48,-87,9,68,126
78,68,-9,-73,43,29,-29,-48,-87,19,68,117
78,68,-9,-73,43,29,-29,-48,-87,19,68,117
78,68,-9,-73,43,29,-29,-48,-87,19,68,117
78,68,-9,-73,43,29,-29,-48,-87,19,68,117
92,68,-24,-80,58,21,-34,-53,-87,14,68,117
97,68,-29,-82,63,19,-39,-58,-87,9,68,117
102,68,-34,-85,68,17,-43,-63,-87,4,68,117
107,68,-39,-87,73,14,-48,-68,-87,0,68,117
107,78,-29,-92,68,24,-39,-63,-87,0,68,107
107,78,-29,-92,68,24,-39,-58,-87,0,68,107
107,78,-29,-92,68,24,-39,-53,-87,0,68,107
107,78,-29,-92,68,24,-39,-48,-87,0,68,107
92,78,-14,-85,53,31,-48,-58,-87,0,58,107
87,78,-9,-82,48,34,-48,-58,-87,0,58,107
82,78,-4,-80,43,36,-48,-58,-87,0,58,107
78,78,0,-78,39,39,-48,-58,-87,0,58,107
92,73,-19,-82,56,26,-43,-58,-87,0,58,97
97,68,-29,-82,63,19,-39,-58,-87,0,58,97
102,63,-39,-82,70,12,-34,-58,-87,0,58,97
107,58,-48,-82,78,4,-29,-58,-87,0,58,97
92,68,-24,-80,58,21,-24,-43,-82,4,73,112
87,68,-19,-78,53,24,-19,-39,-78,9,78,117
82,68,-14,-75,48,26,-14,-34,-73,14,82,122
78,68,-9,-73,43,29,-9,-29,-68,19,87,126
92,78,-14,-85,53,31,-24,-34,-78,14,78,112
97,78,-19,-87,58,29,-29,-39,-78,9,68,107
102,78,-24,-90,63,26,-34,-43,-78,4,58,102
107,78,-29,-92,68,24,-39,-48,-78,0,48,97
107,73,-34,-90,70,19,-43,-53,-87,0,58,97
107,68,-39,-87,73,14,-48,-58,-87,0,58,97
107,63,-43,-85,75,9,-53,-63,-87,0,58,97
107,58,-48,-82,78,4,-58,-68,-87,0,58,97
97,48,-48,-73,73,0,-48,-63,-87,0,68,102
97,48,-48,-73,73,0,-39,-58,-87,0,68,102
102,53,-48,-78,75,2,-29,-53,-92,0,68,102
112,53,-58,-82,85,-2,-19,-58,-92,-9,68,97
112,58,-53,-85,82,2,-29,-58,-82,-9,53,97
102,63,-39,-82,70,12,-34,-53,-82,-4,53,97
92,63,-29,-78,61,17,-39,-53,-82,0,58,97
92,68,-24,-80,58,21,-43,-53,-82,0,58,97
107,78,-29,-92,68,24,-43,-53,-82,-9,53,82
122,82,-39,-102,80,21,-39,-53,-82,-9,43,82
122,82,-39,-102,80,21,-29,-53,-82,-9,39,78
107,82,-24,-95,65,29,-24,-53,-82,-9,34,68
97,78,-19,-87,58,29,-34,-43,-82,-4,48,82
92,78,-14,-85,53,31,-34,-43,-73,0,53,87
87,78,-9,-82,48,34,-34,-39,-73,4,58,97
82,78,-4,-80,43,36,-29,-39,-78,9,68,102
82,58,-24,-70,53,17,-29,-39,-68,4,68,97
82,58,-24,-70,53,17,-29,-39,-68,4,68,97
97,78,-19,-87,58,29,-29,-29,-63,4,73,102
112,78,-34,-95,73,21,-29,-29,-58,9,73,102
122,92,-29,-107,75,31,-39,-29,-58,14,63,102
126,102,-24,-114,75,39,-43,-29,-53,14,68,107
126,107,-19,-117,73,43,-48,-29,-53,14,68,107
117,107,-9,-112,63,48,-48,-29,-48,19,78,112
122,117,-4,-119,63,56,-39,-39,-58,24,68,107
136,126,-9,-131,73,58,-43,-39,-58,29,68,107
131,126,-4,-129,68,61,-43,-39,-53,39,78,117
136,126,-9,-131,73,58,-39,-39,-43,43,82,122
136,131,-4,-134,70,63,-29,-39,-29,34,82,112
136,141,4,-139,65,73,-29,-34,-24,39,82,126
136,141,4,-139,65,73,-29,-29,-19,48,87,126
136,141,4,-139,65,73,-29,-29,-14,53,87,126
122,131,9,-126,56,70,-39,-29,-24,53,87,136
126,122,-4,-124,65,58,-43,-29,-24,53,87,136
122,117,-4,-119,63,56,-48,-29,-34,53,87,136
117,112,-4,-114,61,53,-58,-48,-39,43,87,136
107,112,4,-109,51,58,-68,-53,-34,43,92,136
112,112,0,-112,56,56,-68,-53,-34,43,92,131
112,97,-14,-104,63,41,-68,-58,-43,34,87,126
112,92,-19,-102,65,36,-82,-73,-68,14,82,112
131,97,-34,-114,82,31,-82,-78,-68,19,87,122
136,87,-48,-112,92,19,-78,-73,-73,9,87,112
136,87,-48,-112,92,19,-68,-63,-73,9,87,112
126,82,-43,-104,85,19,-58,-53,-73,14,87,117
126,87,-39,-107,82,24,-53,-53,-78,4,82,112
131,73,-58,-102,95,7,-58,-58,-78,0,82,102
136,63,-73,-100,104,-4,-63,-63,-82,-4,73,92
146,58,-87,-102,117,-14,-68,-68,-82,-14,68,82
156,68,-87,-112,122,-9,-58,-68,-92,-14,63,73
151,73,-78,-112,114,-2,-53,-58,-92,-9,58,78
146,73,-73,-109,109,0,-53,-53,-82,-9,53,78
131,58,-73,-95,102,-7,-53,-53,-78,-4,48,78
136,43,-92,-90,114,-24,-53,-43,-73,4,68,97
141,43,-97,-92,119,-26,-53,-43,-73,4,68,97
161,39,-122,-100,141,-41,-48,-43,-73,4,68,97
170,34,-136,-102,153,-51,-53,-43,-73,0,68,97
161,24,-136,-92,148,-56,-53,-53,-78,-4,73,92
161,14,-146,-87,153,-65,-58,-58,-82,-14,73,82
161,14,-146,-87,153,-65,-58,-58,-87,-19,73,78
161,14,-146,-87,153,-65,-58,-63,-92,-19,73,78
146,34,-112,-90,129,-39,-53,-68,-92,-29,53,73
141,43,-97,-92,119,-26,-53,-68,-102,-43,43,58
112,48,-63,-80,87,-7,-43,-78,-102,-48,34,53
97,53,-43,-75,70,4,-39,-78,-102,-53,29,48
92,48,-43,-70,68,2,-29,-68,-102,-39,29,48
82,48,-34,-65,58,7,-19,-68,-97,-34,29,53
87,48,-39,-68,63,4,-9,-53,-82,-19,34,63
92,48,-43,-70,68,2,-9,-53,-73,-14,34,68
92,39,-53,-65,73,-7,-19,-53,-87,-29,34,58
97,29,-68,-63,82,-19,-19,-53,-92,-34,24,48
97,19,-78,-58,87,-29,-19,-53,-102,-43,19,39
82,9,-73,-46,78,-31,-19,-53,-112,-53,19,34
73,14,-58,-43,65,-21,-9,-43,-107,-48,29,43
87,29,-58,-58,73,-14,0,-39,-97,-43,39,53
87,34,-53,-61,70,-9,0,-39,-87,-34,39,53
73,39,-34,-56,53,2,-4,-39,-82,-29,29,53
82,29,-53,-56,68,-12,-14,-39,-97,-39,29,43
97,39,-58,-68,78,-9,-14,-43,-97,-39,29,43
97,43,-53,-70,75,-4,-14,-43,-97,-39,29,43
92,43,-48,-68,70,-2,-14,-43,-92,-39,29,43
87,39,-48,-63,68,-4,-14,-43,-92,-43,29,43
87,34,-53,-61,70,-9,-9,-48,-87,-34,24,43
87,34,-53,-61,70,-9,-9,-48,-87,-34,19,43
82,39,-43,-61,63,-2,0,-43,-78,-29,9,48
48,39,-9,-43,29,14,14,-19,-43,-9,19,48
43,48,4,-46,19,26,39,0,-34,-4,-9,24
14,19,4,-17,4,12,63,29,-19,-24,-43,-29
0,4,4,-2,-2,4,92,73,9,-43,-97,-92
9,9,0,-9,4,4,136,141,78,-58,-170,-161
19,19,0,-19,9,9,200,244,161,-58,-214,-200
14,34,19,-24,-2,26,244,341,248,-29,-224,-190
14,53,39,-34,-12,46,253,405,346,58,-175,-117
43,117,73,-80,-14,95,234,439,468,224,-68,34
136,229,92,-183,21,161,180,463,610,448,126,292
244,366,122,-305,61,244,92,429,697,702,370,619
287,468,180,-378,53,324,-24,292,644,897,590,932
331,629,297,-480,17,463,-156,112,546,1093,819,1263
429,868,439,-649,-4,653,-297,-53,478,1332,1112,1683
497,1098,600,-797,-51,849,-468,-273,395,1625,1439,2161
507,1337,829,-922,-161,1083,-644,-570,224,1908,1756,2605
527,1586,1058,-1056,-265,1322,-814,-883,-4,2132,2044,2991
600,1678,1078,-1139,-239,1378,-927,-1083,-204,2230,2220,3215
663,1434,771,-1049,-53,1102,-897,-1029,-244,2215,2186,3215
678,932,253,-805,212,592,-683,-780,-112,2147,1971,3006
624,585,-39,-605,331,273,-512,-590,-78,1956,1751,2693
551,478,-73,-514,312,202,-483,-595,-273,1532,1576,2235
453,356,-97,-405,275,129,-439,-619,-570,795,1273,1498
336,214,-122,-275,229,46,-283,-541,-819,-92,834,561
204,126,-78,-165,141,24,-126,-444,-912,-629,478,-73
126,53,-73,-90,100,-9,-68,-400,-893,-727,283,-229
117,-29,-146,-43,131,-87,-43,-361,-829,-702,161,-258
82,-78,-161,-2,122,-119,43,-263,-727,-668,48,-322
19,-122,-141,51,80,-131,117,-170,-634,-610,-34,-351
0,-146,-146,73,73,-146,156,-122,-590,-585,-107,-351
0,-161,-161,80,80,-161,165,-97,-566,-570,-170,-370
-29,-165,-136,97,53,-151,190,-68,-527,-541,-209,-380
-63,-185,-122,124,29,-153,214,-48,-488,-512,-239,-385
-58,-175,-117,117,29,-146,224,-58,-468,-497,-253,-385
-48,-156,-107,102,29,-131,195,-68,-448,-468,-234,-366
-58,-146,-87,102,14,-117,170,-78,-395,-405,-204,-317
-58,-117,-58,87,0,-87,117,-87,-336,-351,-175,-283
-24,-82,-58,53,17,-70,73,-82,-283,-287,-151,-244
-34,-78,-43,56,4,-61,39,-58,-219,-239,-136,-204
-43,-68,-24,56,-9,-46,24,-39,-170,-219,-141,-195
14,-39,-53,12,34,-46,34,-29,-141,-200,-136,-180
53,-9,-63,-21,58,-36,53,-4,-97,-156,-107,-161
53,14,-39,-34,46,-12,68,34,-53,-112,-87,-122
48,0,-48,-24,48,-24,73,43,-34,-107,-82,-112
43,0,-43,-21,43,-21,78,29,-29,-87,-78,-107
29,-4,-34,-12,31,-19,73,24,-24,-68,-68,-102
14,-19,-34,2,24,-26,68,24,-14,-58,-58,-78
29,-19,-48,-4,39,-34,63,24,-9,-68,-63,-78
43,-24,-68,-9,56,-46,53,34,-4,-73,-73,-82
43,-29,-73,-7,58,-51,48,39,-4,-82,-82,-87
34,-34,-68,0,51,-51,48,34,0,-97,-92,-97
29,-34,-63,2,46,-48,63,48,0,-92,-102,-112
24,-34,-58,4,41,-46,68,39,0,-82,-112,-117
9,-29,-39,9,24,-34,73,34,0,-73,-112,-117
19,-24,-43,2,31,-34,78,39,0,-58,-112,-107
24,-34,-58,4,41,-46,68,24,0,-58,-107,-97
34,-34,-68,0,51,-51,68,29,0,-63,-97,-92
39,-39,-78,0,58,-58,68,29,4,-73,-87,-92
34,-43,-78,4,56,-61,68,34,4,-78,-82,-92
24,-53,-78,14,51,-65,63,43,9,-68,-82,-82
29,-53,-82,12,56,-68,63,39,9,-68,-92,-92
29,-53,-82,12,56,-68,63,34,4,-68,-102,-102
29,-53,-82,12,56,-68,63,29,4,-68,-102,-102
19,-39,-58,9,39,-48,63,29,4,-68,-82,-92
24,-39,-63,7,43,-51,58,29,4,-63,-82,-87
24,-43,-68,9,46,-56,58,39,9,-63,-82,-87
24,-43,-68,9,46,-56,63,43,14,-58,-82,-87
19,-34,-53,7,36,-43,63,43,14,-68,-97,-102
14,-39,-53,12,34,-46,63,39,14,-73,-112,-117
9,-39,-48,14,29,-43,63,39,14,-73,-117,-122
14,-34,-48,9,31,-41,63,39,14,-68,-112,-122
9,-43,-53,17,31,-48,63,39,19,-58,-117,-107
0,-58,-58,29,29,-58,68,39,19,-58,-122,-107
0,-58,-58,29,29,-58,68,39,19,-58,-126,-107
4,-53,-58,24,31,-56,63,48,19,-63,-136,-107
14,-53,-68,19,41,-61,63,48,14,-68,-131,-126
19,-53,-73,17,46,-63,63,48,14,-68,-131,-126
19,-53,-73,17,46,-63,68,48,14,-68,-131,-126
24,-53,-78,14,51,-65,68,48,14,-68,-131,-131
14,-63,-78,24,46,-70,68,58,29,-63,-122,-126
14,-68,-82,26,48,-75,68,58,29,-58,-112,-122
4,-78,-82,36,43,-80,68,58,29,-58,-102,-117
4,-82,-87,39,46,-85,58,58,29,-58,-97,-117
14,-78,-92,31,53,-85,68,53,24,-68,-107,-117
14,-73,-87,29,51,-80,73,53,24,-78,-107,-117
14,-68,-82,26,48,-75,73,53,19,-78,-117,-122
9,-63,-73,26,41,-68,73,53,14,-78,-117,-122
9,-63,-73,26,41,-68,82,53,24,-87,-122,-126
14,-63,-78,24,46,-70,82,58,24,-87,-131,-136
19,-63,-82,21,51,-73,82,58,29,-87,-151,-141
19,-63,-82,21,51,-73,82,63,34,-87,-161,-136
4,-73,-78,34,41,-75,82,73,48,-82,-151,-126
-4,-78,-73,41,34,-75,82,73,48,-78,-146,-131
-19,-78,-58,48,19,-68,82,73,48,-73,-141,-131
-24,-78,-53,51,14,-65,82,73,48,-68,-136,-131
-4,-87,-82,46,39,-85,82,73,39,-78,-151,-141
-4,-87,-82,46,39,-85,82,73,39,-82,-151,-146
-9,-92,-82,51,36,-87,82,73,39,-82,-151,-156
-9,-92,-82,51,36,-87,82,78,39,-82,-161,-161
4,-107,-112,51,58,-109,82,78,43,-82,-151,-151
4,-107,-112,51,58,-109,87,78,48,-87,-151,-151
0,-107,-107,53,53,-107,87,82,48,-87,-161,-165
0,-107,-107,53,53,-107,87,82,48,-92,-161,-175
-9,-107,-97,58,43,-102,97,82,43,-92,-156,-165
-9,-102,-92,56,41,-97,97,87,43,-92,-156,-165
-4,-92,-87,48,41,-90,107,87,53,-87,-156,-165
4,-87,-92,41,48,-90,107,92,58,-82,-156,-161
-4,-87,-82,46,39,-85,107,87,63,-92,-165,-165
-4,-87,-82,46,39,-85,107,87,58,-92,-175,-170
-4,-87,-82,46,39,-85,107,97,53,-92,-195,-180
-14,-97,-82,56,34,-90,107,97,48,-92,-209,-195
-19,-107,-87,63,34,-97,107,107,63,-97,-219,-209
-24,-107,-82,65,29,-95,107,107,63,-97,-219,-214
-29,-107,-78,68,24,-92,107,112,73,-97,-219,-214
-34,-117,-82,75,24,-100,107,117,73,-97,-224,-214
-43,-131,-87,87,21,-109,112,107,87,-92,-214,-209
-43,-136,-92,90,24,-114,112,122,87,-92,-204,-204
-39,-136,-97,87,29,-117,117,126,92,-87,-195,-209
-14,-131,-117,73,51,-124,117,126,92,-82,-195,-209
-14,-136,-122,75,53,-129,126,136,97,-73,-185,-209
-14,-146,-131,80,58,-139,126,136,112,-78,-185,-209
-34,-156,-122,95,43,-139,131,146,122,-78,-185,-209
-34,-161,-126,97,46,-143,131,146,131,-78,-185,-209
-39,-151,-112,95,36,-131,122,146,136,-82,-204,-224
-29,-151,-122,90,46,-136,122,156,136,-87,-214,-229
-29,-151,-122,90,46,-136,131,161,131,-92,-219,-244
-48,-161,-112,104,31,-136,131,161,131,-97,-229,-253
-39,-146,-107,92,34,-126,126,161,126,-102,-239,-258
-48,-136,-87,92,19,-112,126,165,131,-102,-253,-263
-29,-117,-87,73,29,-102,122,165,136,-102,-263,-273
-14,-107,-92,61,39,-100,117,165,141,-107,-283,-292
-43,-146,-102,95,29,-124,131,180,165,-102,-278,-292
-53,-161,-107,107,26,-134,136,190,175,-97,-278,-287
-53,-170,-117,112,31,-143,141,190,175,-92,-278,-287
-39,-185,-146,112,53,-165,146,195,175,-87,-283,-292
-24,-200,-175,112,75,-187,151,214,190,-78,-268,-292
-24,-204,-180,114,78,-192,156,219,200,-82,-273,-302
-39,-209,-170,124,65,-190,165,219,209,-82,-273,-302
-39,-214,-175,126,68,-195,170,234,229,-82,-268,-307
-39,-209,-170,124,65,-190,165,229,224,-87,-287,-331
-39,-214,-175,126,68,-195,165,229,219,-97,-292,-346
-39,-209,-170,124,65,-190,161,229,224,-102,-297,-351
-34,-204,-170,119,68,-187,156,239,229,-102,-302,-356
-34,-195,-161,114,63,-178,146,229,219,-107,-312,-375
-39,-195,-156,117,58,-175,146,229,219,-122,-326,-385
-39,-185,-146,112,53,-165,146,229,224,-122,-341,-400
-39,-175,-136,107,48,-156,146,239,224,-126,-346,-405
-39,-180,-141,109,51,-161,156,248,244,-122,-356,-409
-34,-190,-156,112,61,-173,156,248,244,-126,-356,-414
-34,-195,-161,114,63,-178,161,239,244,-131,-356,-419
-34,-195,-161,114,63,-178,161,239,244,-136,-356,-424
-43,-200,-156,122,56,-178,165,244,258,-131,-341,-424
-34,-209,-175,122,70,-192,165,248,258,-131,-336,-424
-34,-219,-185,126,75,-202,170,253,248,-136,-331,-429
-39,-224,-185,131,73,-204,170,263,248,-141,-326,-424
-39,-219,-180,129,70,-200,161,253,248,-136,-336,-429
-29,-209,-180,119,75,-195,156,248,248,-151,-331,-434
-29,-204,-175,117,73,-190,156,244,244,-151,-331,-434
-39,-200,-161,119,61,-180,156,239,239,-156,-326,-429
-29,-180,-151,104,61,-165,136,239,244,-161,-326,-439
-29,-170,-141,100,56,-156,131,239,239,-161,-326,-439
-19,-170,-151,95,65,-161,126,234,239,-165,-326,-439
-19,-165,-146,92,63,-156,126,229,234,-165,-331,-439
-14,-146,-131,80,58,-139,112,219,224,-156,-322,-429
-14,-126,-112,70,48,-119,102,214,224,-156,-312,-424
-9,-122,-112,65,51,-117,97,209,214,-156,-302,-409
-4,-102,-97,53,46,-100,92,195,209,-156,-297,-400
4,-112,-117,53,61,-114,102,204,224,-136,-278,-375
0,-112,-112,56,56,-112,102,204,219,-117,-258,-356
-19,-122,-102,70,41,-112,97,195,219,-112,-244,-346
-9,-117,-107,63,48,-112,87,180,224,-107,-229,-331
4,-102,-107,48,56,-104,78,180,214,-112,-200,-307
24,-78,-102,26,63,-90,73,180,214,-102,-185,-283
39,-68,-107,14,73,-87,73,175,209,-78,-165,-263
53,-63,-117,4,85,-90,68,161,200,-63,-151,-244
53,-34,-87,-9,70,-61,58,146,180,-58,-151,-229
53,-9,-63,-21,58,-36,48,126,165,-63,-156,-219
58,0,-58,-29,58,-29,48,112,161,-53,-146,-204
58,9,-48,-34,53,-19,43,112,151,-43,-141,-190
53,4,-48,-29,51,-21,43,107,141,-53,-117,-180
53,14,-39,-34,46,-12,39,87,117,-53,-112,-156
53,9,-43,-31,48,-17,34,78,102,-48,-97,-141
53,0,-53,-26,53,-26,29,68,92,-48,-87,-126
48,-9,-58,-19,53,-34,34,68,92,-48,-68,-107
43,-4,-48,-19,46,-26,34,58,82,-39,-63,-92
43,-14,-58,-14,51,-36,34,58,73,-39,-58,-87
48,-24,-73,-12,61,-48,29,48,63,-39,-53,-82
29,-4,-34,-12,31,-19,34,48,53,-39,-58,-87
24,4,-19,-14,21,-7,29,39,43,-34,-58,-73
34,14,-19,-24,26,-2,24,39,34,-34,-53,-73
29,29,0,-29,14,14,24,34,34,-43,-53,-58
29,24,-4,-26,17,9,19,19,19,-48,-63,-73
39,19,-19,-29,29,0,9,14,14,-53,-63,-78
53,-4,-58,-24,56,-31,4,4,0,-63,-58,-82
68,4,-63,-36,65,-29,0,0,-4,-68,-58,-87
58,4,-53,-31,56,-24,4,4,4,-53,-39,-78
48,4,-43,-26,46,-19,9,9,0,-53,-39,-73
48,4,-43,-26,46,-19,14,9,-4,-58,-43,-68
43,4,-39,-24,41,-17,9,9,-9,-68,-43,-58
39,9,-29,-24,34,-9,9,0,-24,-73,-58,-73
34,14,-19,-24,26,-2,14,-4,-29,-73,-63,-78
29,19,-9,-24,19,4,14,-4,-29,-73,-68,-82
19,19,0,-19,9,9,14,-4,-29,-78,-73,-82
29,0,-29,-14,29,-14,9,-14,-39,-87,-68,-82
43,-4,-48,-19,46,-26,9,-19,-48,-92,-63,-87
43,0,-43,-21,43,-21,4,-19,-48,-92,-63,-87
39,0,-39,-19,39,-19,-4,-19,-48,-102,-58,-87
34,9,-24,-21,29,-7,-9,-19,-48,-97,-58,-87
39,9,-29,-24,34,-9,-19,-19,-48,-92,-63,-92
48,9,-39,-29,43,-14,-19,-19,-43,-87,-63,-92
53,9,-43,-31,48,-17,4,-14,-34,-82,-53,-92
58,14,-43,-36,51,-14,9,-9,-34,-78,-58,-102
58,9,-48,-34,53,-19,14,-9,-34,-92,-68,-107
53,9,-43,-31,48,-17,9,-4,-34,-97,-73,-107
48,4,-43,-26,46,-19,9,-9,-43,-102,-78,-107
48,-4,-53,-21,51,-29,9,-19,-43,-97,-78,-107
53,-4,-58,-24,56,-31,14,-19,-43,-97,-73,-107
53,-4,-58,-24,56,-31,14,-19,-43,-97,-73,-112
53,-4,-58,-24,56,-31,9,-19,-48,-97,-78,-117
53,-14,-68,-19,61,-41,0,-9,-39,-102,-73,-112
48,-14,-63,-17,56,-39,9,-9,-34,-102,-73,-112
24,-14,-39,-4,31,-26,14,-4,-29,-97,-68,-107
19,-14,-34,-2,26,-24,14,-4,-29,-97,-63,-107
43,0,-43,-21,43,-21,0,-9,-48,-107,-78,-117
48,9,-39,-29,43,-14,-4,-14,-53,-112,-82,-117
53,24,-29,-39,41,-2,-4,-19,-58,-112,-87,-112
63,34,-29,-48,46,2,-4,-24,-58,-112,-92,-112
43,4,-39,-24,41,-17,0,-14,-48,-117,-102,-126
43,-14,-58,-14,51,-36,4,-14,-43,-117,-107,-131
43,-34,-78,-4,61,-56,14,-14,-43,-117,-107,-136
19,-53,-73,17,46,-63,19,-14,-43,-117,-107,-141
24,-43,-68,9,46,-56,19,-14,-39,-117,-102,-136
29,-34,-63,2,46,-48,19,-9,-39,-117,-102,-136
39,-29,-68,-4,53,-48,24,-4,-39,-112,-102,-136
43,-24,-68,-9,56,-46,24,-4,-34,-112,-97,-141
39,-34,-73,-2,56,-53,14,-14,-43,-97,-87,-141
34,-29,-63,-2,48,-46,9,-9,-39,-97,-87,-141
34,-29,-63,-2,48,-46,9,-9,-34,-97,-87,-136
34,-29,-63,-2,48,-46,9,-4,-34,-97,-92,-131
19,-29,-48,4,34,-39,9,-14,-34,-92,-82,-117
24,-29,-53,2,39,-41,14,-14,-34,-87,-78,-112
19,-29,-48,4,34,-39,14,-19,-34,-87,-73,-112
9,-29,-39,9,24,-34,9,-19,-34,-82,-73,-122
0,-24,-24,12,12,-24,19,-9,-24,-63,-87,-112
0,-14,-14,7,7,-14,19,-4,-19,-73,-92,-112
4,-9,-14,2,9,-12,19,0,-9,-73,-97,-112
4,-4,-9,0,7,-7,19,4,0,-63,-102,-112
0,0,0,0,0,0,9,4,-4,-73,-107,-107
0,4,4,-2,-2,4,9,0,-9,-63,-112,-112
0,9,9,-4,-4,9,9,-4,-14,-58,-112,-117
0,14,14,-7,-7,14,14,-9,-14,-58,-112,-117
19,9,-9,-14,14,0,9,-9,-9,-63,-102,-107
24,-4,-29,-9,26,-17,4,-9,-9,-63,-97,-112
34,-19,-53,-7,43,-36,-4,-9,-9,-63,-92,-112
39,-34,-73,-2,56,-53,-9,-9,-9,-63,-87,-107
34,-34,-68,0,51,-51,4,4,-4,-48,-73,-92
29,-34,-63,2,46,-48,9,4,4,-34,-68,-78
24,-34,-58,4,41,-46,14,4,14,-24,-68,-73
19,-24,-43,2,31,-34,19,4,19,-19,-68,-68
24,-9,-34,-7,29,-21,0,0,9,-24,-73,-82
19,-4,-24,-7,21,-14,14,0,9,-24,-78,-82
9,0,-9,-4,9,-4,14,0,9,-24,-87,-87
4,4,0,-4,2,2,4,0,9,-29,-97,-92
4,0,-4,-2,4,-2,0,-4,0,-34,-107,-92
4,-9,-14,2,9,-12,0,-4,4,-34,-107,-92
4,4,0,-4,2,2,4,0,14,-24,-92,-92
4,4,0,-4,2,2,9,0,14,-24,-82,-87
0,9,9,-4,-4,9,9,0,24,-14,-73,-73
0,9,9,-4,-4,9,9,0,24,-9,-63,-68
0,9,9,-4,-4,9,4,4,24,-9,-58,-63
14,9,-4,-12,9,2,4,4,24,-9,-48,-58
14,-4,-19,-4,17,-12,4,4,19,-14,-63,-63
4,0,-4,-2,4,-2,4,0,19,-14,-68,-63
4,-4,-9,0,7,-7,0,-4,19,-14,-78,-63
19,-14,-34,-2,26,-24,0,-4,19,-14,-82,-68
29,4,-24,-17,26,-9,-4,-9,4,-24,-97,-82
19,24,4,-21,7,14,-4,-14,4,-14,-97,-82
19,34,14,-26,2,24,-9,-14,4,-9,-107,-82
4,39,34,-21,-14,36,-24,-19,0,-9,-117,-82
14,29,14,-21,0,21,-4,-9,4,-9,-92,-73
19,24,4,-21,7,14,0,-4,9,-9,-82,-63
19,14,-4,-17,12,4,9,0,14,-9,-68,-53
19,-4,-24,-7,21,-14,19,0,24,-4,-53,-48
14,-14,-29,0,21,-21,14,9,24,-4,-53,-58
24,-14,-39,-4,31,-26,14,9,24,-4,-53,-58
24,-14,-39,-4,31,-26,19,9,24,-4,-48,-53
24,-9,-34,-7,29,-21,19,9,19,-4,-48,-53
14,9,-4,-12,9,2,4,0,9,0,-48,-43
19,14,-4,-17,12,4,4,0,9,0,-48,-43
19,14,-4,-17,12,4,4,0,9,0,-48,-43
9,14,4,-12,2,9,0,0,4,0,-48,-43
4,14,9,-9,-2,12,-9,-9,4,-9,-58,-53
9,14,4,-12,2,9,-4,-9,9,-4,-63,-58
14,19,4,-17,4,12,-4,-4,9,-4,-68,-63
19,24,4,-21,7,14,-4,-4,4,-9,-78,-73
14,14,0,-14,7,7,4,0,4,-4,-73,-63
9,4,-4,-7,7,0,-4,-4,4,-4,-68,-58
4,4,0,-4,2,2,-4,-4,0,-14,-58,-53
0,4,4,-2,-2,4,-4,-9,-4,-4,-53,-48
14,9,-4,-12,9,2,-9,-19,-4,-9,-68,-58
19,19,0,-19,9,9,-14,-24,-4,-19,-68,-63
19,4,-14,-12,17,-4,-14,-24,-4,-24,-73,-63
19,4,-14,-12,17,-4,-19,-24,-4,-29,-78,-73
14,-4,-19,-4,17,-12,-4,-14,0,-19,-63,-68
9,9,0,-9,4,4,0,-9,0,-14,-63,-68
-4,9,14,-2,-9,12,4,-9,0,-14,-63,-68
9,0,-9,-4,9,-4,9,-9,-4,-19,-68,-68
29,9,-19,-19,24,-4,0,-24,-9,-29,-68,-82
14,14,0,-14,7,7,-9,-24,-9,-29,-68,-82
9,14,4,-12,2,9,-9,-24,-9,-29,-68,-82
9,9,0,-9,4,4,-9,-19,-9,-29,-63,-87
4,-4,-9,0,7,-7,-9,-9,-9,-29,-53,-78
9,-4,-14,-2,12,-9,-9,-19,-9,-34,-63,-78
-4,0,4,2,-4,2,-9,-19,-9,-34,-63,-78
-9,0,9,4,-9,4,-9,-14,-9,-34,-58,-82
-9,-4,4,7,-7,0,-9,-14,-9,-24,-58,-78
-9,-9,0,9,-4,-4,-9,-14,-9,-24,-58,-73
-9,-14,-4,12,-2,-9,-9,-19,-19,-29,-68,-78
-9,-24,-14,17,2,-19,-9,-24,-19,-29,-68,-73
0,-14,-14,7,7,-14,0,-24,-9,-29,-73,-82
0,-19,-19,9,9,-19,4,-24,-9,-29,-73,-82
0,-19,-19,9,9,-19,4,-24,-14,-29,-73,-78
0,-19,-19,9,9,-19,0,-19,-14,-29,-73,-78
-14,-19,-4,17,-4,-12,4,-9,-4,-19,-68,-68
-9,-9,0,9,-4,-4,9,-9,-4,-19,-63,-68
-14,-9,4,12,-9,-2,14,-14,-4,-19,-58,-68
-14,-9,4,12,-9,-2,14,-14,-4,-19,-58,-68
4,-9,-14,2,9,-12,-9,-24,-14,-34,-73,-73
9,-9,-19,0,14,-14,-4,-24,-14,-39,-73,-78
4,-19,-24,7,14,-21,-9,-24,-9,-39,-78,-87
-4,-19,-14,12,4,-17,-14,-24,-9,-43,-82,-97
-19,-24,-4,21,-7,-14,-9,-14,-9,-39,-73,-78
-24,-24,0,24,-12,-12,-4,-14,-9,-34,-73,-73
-24,-29,-4,26,-9,-17,0,-14,-9,-34,-73,-78
-29,-29,0,29,-14,-14,9,-14,-14,-29,-73,-73
-24,-14,9,19,-17,-2,0,-24,-14,-39,-78,-87
4,-14,-19,4,12,-17,-9,-34,-19,-43,-82,-92
0,-14,-14,7,7,-14,-9,-34,-19,-43,-82,-97
4,-14,-19,4,12,-17,-4,-34,-19,-43,-82,-97
4,-4,-9,0,7,-7,-9,-39,-29,-43,-73,-87
9,-9,-19,0,14,-14,-9,-39,-29,-43,-73,-87
9,-24,-34,7,21,-29,-9,-43,-34,-48,-73,-87
4,-29,-34,12,19,-31,-9,-43,-34,-48,-73,-92
0,-29,-29,14,14,-29,0,-39,-19,-39,-73,-102
-4,-29,-24,17,9,-26,0,-29,-14,-39,-68,-97
-14,-29,-14,21,0,-21,4,-24,-14,-39,-68,-97
-19,-29,-9,24,-4,-19,4,-19,-19,-39,-68,-97
-19,-14,4,17,-12,-4,0,-19,-9,-48,-73,-87
-19,-9,9,14,-14,0,-4,-24,-9,-48,-78,-87
-9,-9,0,9,-4,-4,-4,-24,-9,-43,-82,-82
4,-4,-9,0,7,-7,-4,-24,-9,-39,-87,-82
-9,-24,-14,17,2,-19,-9,-34,-19,-39,-82,-82
-24,-34,-9,29,-7,-21,-14,-34,-19,-43,-78,-82
-29,-39,-9,34,-9,-24,-19,-29,-19,-43,-68,-82
-29,-43,-14,36,-7,-29,-19,-29,-19,-43,-63,-82
-19,-29,-9,24,-4,-19,-9,-39,-29,-53,-73,-97
-14,-29,-14,21,0,-21,-9,-39,-34,-58,-82,-102
-14,-24,-9,19,-2,-17,-9,-39,-43,-58,-92,-97
-4,-19,-14,12,4,-17,-9,-43,-34,-53,-102,-102
-19,-34,-14,26,-2,-24,-4,-39,-24,-43,-97,-92
-39,-43,-4,41,-17,-24,4,-34,-19,-48,-87,-97
-34,-34,0,34,-17,-17,9,-29,-14,-48,-78,-92
-24,-34,-9,29,-7,-21,9,-24,-14,-48,-68,-87
-9,-29,-19,19,4,-24,-4,-24,-19,-58,-82,-97
-9,-29,-19,19,4,-24,-4,-24,-19,-48,-82,-97
-19,-29,-9,24,-4,-19,4,-24,-19,-48,-82,-102
-19,-39,-19,29,0,-29,4,-24,-19,-48,-82,-107
-29,-48,-19,39,-4,-34,-4,-24,-24,-39,-87,-107
-29,-43,-14,36,-7,-29,-4,-24,-24,-43,-87,-102
-24,-24,0,24,-12,-12,-4,-24,-24,-43,-87,-97
-24,-19,4,21,-14,-7,-4,-24,-24,-48,-82,-87
-14,-29,-14,21,0,-21,4,-24,-24,-48,-73,-97
-14,-43,-29,29,7,-36,4,-24,-24,-48,-73,-92
-19,-43,-24,31,2,-34,4,-29,-24,-48,-78,-92
-24,-43,-19,34,-2,-31,4,-29,-24,-48,-78,-87
-4,-68,-63,36,29,-65,-9,-48,-34,-53,-73,-87
-4,-43,-39,24,17,-41,9,-43,-29,-43,-73,-87
-19,-19,0,19,-9,-9,9,-39,-29,-58,-87,-97
-29,-24,4,26,-17,-9,0,-34,-29,-48,-78,-107
-29,-29,0,29,-14,-14,0,-29,-29,-48,-78,-107
-29,-34,-4,31,-12,-19,0,-24,-29,-48,-78,-107
-29,-39,-9,34,-9,-24,0,-19,-29,-48,-78,-107
-19,-34,-14,26,-2,-24,-9,-29,-29,-39,-82,-92
-19,-29,-9,24,-4,-19,-9,-29,-29,-39,-87,-92
-14,-19,-4,17,-4,-12,-9,-29,-34,-39,-92,-92
-4,-14,-9,9,2,-12,-9,-39,-34,-48,-97,-97
0,-24,-24,12,12,-24,-24,-39,-43,-58,-97,-107
-4,-34,-29,19,12,-31,-24,-34,-43,-53,-92,-107
-9,-48,-39,29,14,-43,-24,-34,-43,-48,-82,-107
-4,-58,-53,31,24,-56,-24,-34,-43,-48,-78,-107
-4,-48,-43,26,19,-46,-19,-34,-39,-39,-68,-102
4,-43,-48,19,26,-46,-19,-34,-34,-39,-73,-92
0,-43,-43,21,21,-43,-14,-34,-29,-39,-73,-87
-19,-43,-24,31,2,-34,-14,-34,-24,-39,-73,-87
-24,-29,-4,26,-9,-17,-9,-24,-34,-48,-78,-92
-24,-29,-4,26,-9,-17,-4,-24,-24,-48,-82,-97
-24,-29,-4,26,-9,-17,0,-19,-24,-48,-87,-97
-24,-29,-4,26,-9,-17,9,-19,-29,-48,-87,-102
-24,-48,-24,36,0,-36,0,-29,-29,-53,-78,-97
-24,-48,-24,36,0,-36,0,-29,-29,-53,-78,-97
-9,-29,-19,19,4,-24,0,-19,-24,-53,-73,-92
4,-29,-34,12,19,-31,0,-19,-19,-48,-73,-92
14,-14,-29,0,21,-21,0,-19,-9,-39,-73,-82
19,4,-14,-12,17,-4,-4,-19,-4,-34,-68,-78
19,19,0,-19,9,9,-9,-19,-4,-29,-68,-78
9,29,19,-19,-4,24,-9,-19,0,-19,-58,-73
19,39,19,-29,0,29,-4,-9,9,-4,-53,-63
29,48,19,-39,4,34,-4,-9,9,0,-48,-58
19,48,29,-34,-4,39,0,-9,14,9,-34,-43
19,48,29,-34,-4,39,9,-9,24,14,-24,-34
29,53,24,-41,2,39,0,-14,14,9,-29,-48
29,63,34,-46,-2,48,0,-14,14,9,-34,-39
29,63,34,-46,-2,48,0,-14,14,14,-34,-43
29,63,34,-46,-2,48,0,-19,14,14,-39,-48
24,68,43,-46,-9,56,-9,-19,24,24,-29,-39
29,63,34,-46,-2,48,-14,-19,24,24,-29,-39
24,63,39,-43,-7,51,-19,-19,14,24,-29,-39
19,63,43,-41,-12,53,-29,-39,9,14,-29,-39
24,82,58,-53,-17,70,-39,-34,4,14,-24,-29
34,82,48,-58,-7,65,-39,-34,4,14,-24,-34
39,68,29,-53,4,48,-39,-39,-4,4,-29,-39
43,63,19,-53,12,41,-53,-53,-29,-14,-34,-53
53,58,4,-56,24,31,-58,-63,-29,-9,-39,-53
58,48,-9,-53,34,19,-58,-63,-34,-19,-39,-63
58,48,-9,-53,34,19,-53,-58,-34,-19,-39,-63
48,43,-4,-46,26,19,-48,-53,-34,-14,-39,-58
43,29,-14,-36,29,7,-34,-39,-29,-19,-34,-58
43,14,-29,-29,36,-7,-29,-39,-29,-29,-34,-63
43,4,-39,-24,41,-17,-24,-39,-34,-39,-43,-68
48,0,-48,-24,48,-24,-19,-39,-34,-53,-48,-73
58,0,-58,-29,58,-29,-19,-29,-24,-43,-34,-58
53,4,-48,-29,51,-21,-14,-19,-24,-29,-29,-48
48,4,-43,-26,46,-19,-14,-14,-14,-19,-24,-43
34,-9,-43,-12,39,-26,-14,-14,-9,-4,-19,-39
48,-4,-53,-21,51,-29,-14,-9,-4,0,-14,-34
53,-4,-58,-24,56,-31,-14,-14,-4,-4,-19,-39
73,-9,-82,-31,78,-46,-9,-19,-4,-9,-24,-43
82,-14,-97,-34,90,-56,-14,-24,-4,-19,-29,-48
92,-24,-117,-34,104,-70,-14,-24,-19,-24,-34,-53
92,-34,-126,-29,109,-80,-19,-29,-24,-34,-34,-63
92,-34,-126,-29,109,-80,-19,-29,-29,-39,-34,-68
92,-34,-126,-29,109,-80,-19,-34,-34,-39,-34,-68
78,-29,-107,-24,92,-68,-19,-29,-24,-43,-48,-78
73,-24,-97,-24,85,-61,-14,-29,-34,-53,-53,-87
43,-24,-68,-9,56,-46,0,-39,-34,-53,-58,-87
29,-24,-53,-2,41,-39,9,-39,-34,-53,-58,-87
14,-24,-39,4,26,-31,9,-29,-29,-43,-58,-82
4,-19,-24,7,14,-21,19,-29,-29,-43,-58,-82
9,-14,-24,2,17,-19,29,-14,-19,-34,-53,-78
14,-9,-24,-2,19,-17,29,-14,-14,-34,-53,-78
14,-19,-34,2,24,-26,19,-14,-24,-43,-63,-82
19,-19,-39,0,29,-29,19,-14,-24,-43,-73,-87
19,-19,-39,0,29,-29,19,-14,-29,-48,-78,-92
4,-19,-24,7,14,-21,19,-14,-34,-53,-78,-92
14,-24,-39,4,26,-31,14,-24,-34,-53,-58,-92
29,-9,-39,-9,34,-24,19,-19,-29,-53,-48,-82
29,-4,-34,-12,31,-19,14,-19,-24,-48,-48,-82
14,0,-14,-7,14,-7,4,-19,-24,-48,-58,-82
24,-9,-34,-7,29,-21,4,-29,-39,-48,-63,-92
39,0,-39,-19,39,-19,4,-34,-39,-48,-68,-92
39,4,-34,-21,36,-14,4,-34,-39,-48,-73,-92
34,4,-29,-19,31,-12,4,-34,-34,-48,-78,-92
24,-9,-34,-7,29,-21,9,-24,-29,-43,-58,-87
19,-14,-34,-2,26,-24,19,-19,-19,-34,-53,-82
14,-14,-29,0,21,-21,24,-9,-14,-34,-48,-78
4,-9,-14,2,9,-12,39,4,0,-29,-48,-68
0,-9,-9,4,4,-9,63,19,14,-19,-48,-68
-4,-9,-4,7,0,-7,78,29,24,-34,-87,-112
-14,-29,-14,21,0,-21,92,48,39,-63,-131,-165
-9,-34,-24,21,7,-29,131,102,87,-63,-185,-219
-29,-48,-19,39,-4,-34,185,180,175,-39,-229,-268
-48,-58,-9,53,-19,-34,229,273,278,0,-273,-287
-34,-14,19,24,-26,2,253,331,366,58,-263,-258
-14,73,87,-29,-51,80,253,375,453,175,-204,-165
-14,156,170,-70,-92,163,234,400,556,361,-87,4
58,258,200,-158,-70,229,170,385,658,595,87,273
185,395,209,-290,-12,302,73,312,668,810,292,570
229,527,297,-378,-34,412,-43,195,575,956,502,863
234,678,444,-456,-104,561,-175,34,448,1093,751,1185
302,917,614,-610,-156,766,-336,-151,351,1293,1054,1605
390,1205,814,-797,-212,1010,-507,-361,239,1537,1390,2064
409,1473,1063,-941,-326,1268,-663,-629,29,1722,1668,2459
419,1664,1244,-1041,-412,1454,-814,-893,-258,1790,1898,2737
463,1659,1195,-1061,-366,1427,-888,-1024,-439,1771,2025,2893
488,1298,810,-893,-161,1054,-771,-883,-400,1727,2010,2884
463,697,234,-580,114,466,-517,-575,-209,1649,1834,2723
409,322,-87,-366,248,117,-375,-405,-165,1410,1634,2381
356,234,-122,-295,239,56,-346,-409,-331,936,1420,1854
278,141,-136,-209,207,2,-283,-395,-531,248,1058,1068
170,19,-151,-95,161,-65,-136,-326,-673,-434,600,209
97,-19,-117,-39,107,-68,-39,-278,-707,-736,292,-248
58,-53,-112,-2,85,-82,0,-244,-668,-727,156,-307
29,-117,-146,43,87,-131,43,-204,-614,-692,53,-346
4,-156,-161,75,82,-158,122,-126,-541,-658,-48,-419
-9,-170,-161,90,75,-165,185,-63,-468,-600,-122,-419
-48,-204,-156,126,53,-180,214,-4,-405,-566,-175,-419
-107,-258,-151,183,21,-204,204,9,-380,-561,-239,-458
-117,-263,-146,190,14,-204,209,19,-351,-531,-278,-458
-63,-214,-151,139,43,-183,244,39,-322,-483,-268,-424
-58,-195,-136,126,39,-165,244,19,-312,-458,-273,-414
-97,-224,-126,161,14,-175,214,-9,-302,-429,-263,-405
-97,-195,-97,146,0,-146,180,-19,-268,-366,-234,-366
-58,-136,-78,97,9,-107,136,-29,-209,-312,-204,-322
-24,-112,-87,68,31,-100,102,-14,-156,-258,-170,-283
-4,-87,-82,46,39,-85,97,29,-92,-200,-146,-234
4,-58,-63,26,34,-61,82,58,-43,-151,-122,-204
-4,-48,-43,26,19,-46,73,58,-14,-122,-117,-190
-14,-58,-43,36,14,-51,82,53,9,-97,-117,-180
-14,-73,-58,43,21,-65,87,63,24,-92,-126,-180
-14,-73,-58,43,21,-65,92,68,29,-82,-136,-175
-14,-68,-53,41,19,-61,97,48,29,-68,-136,-175
-24,-68,-43,46,9,-56,92,39,29,-53,-131,-175
-34,-78,-43,56,4,-61,87,34,34,-48,-126,-156
-9,-87,-78,48,34,-82,97,58,58,-34,-112,-151
4,-92,-97,43,51,-95,92,73,63,-34,-112,-151
4,-97,-102,46,53,-100,92,82,63,-39,-112,-151
-4,-102,-97,53,46,-100,97,82,68,-48,-112,-156
4,-97,-102,46,53,-100,87,82,68,-43,-107,-156
4,-92,-97,43,51,-95,87,68,68,-34,-112,-156
-4,-82,-78,43,36,-80,87,58,68,-24,-107,-151
9,-73,-82,31,46,-78,87,58,68,-9,-102,-136
0,-73,-73,36,36,-73,87,48,68,-9,-112,-131
4,-73,-78,34,41,-75,87,58,68,-14,-107,-131
4,-78,-82,36,43,-80,87,63,73,-24,-102,-136
-4,-82,-78,43,36,-80,87,73,73,-29,-102,-141
4,-92,-97,43,51,-95,82,73,78,-29,-92,-131
9,-92,-102,41,56,-97,82,68,78,-29,-102,-141
9,-92,-102,41,56,-97,82,63,73,-29,-112,-151
9,-92,-102,41,56,-97,82,58,73,-29,-112,-151
0,-92,-92,46,46,-92,92,58,73,-19,-102,-141
4,-97,-102,46,53,-100,87,58,73,-14,-102,-136
4,-107,-112,51,58,-109,87,68,78,-14,-102,-136
4,-112,-117,53,61,-114,92,73,82,-9,-102,-136
4,-107,-112,51,58,-109,92,73,82,-19,-92,-136
4,-107,-112,51,58,-109,92,68,82,-24,-102,-146
4,-102,-107,48,56,-104,92,68,82,-24,-102,-146
14,-92,-107,39,61,-100,92,68,82,-19,-92,-141
9,-92,-102,41,56,-97,102,68,78,-19,-97,-146
0,-107,-107,53,53,-107,107,68,78,-19,-102,-146
0,-107,-107,53,53,-107,107,68,78,-19,-107,-146
4,-102,-107,48,56,-104,102,78,78,-24,-117,-146
14,-97,-112,41,63,-104,102,78,82,-19,-117,-151
19,-92,-112,36,65,-102,102,78,82,-19,-112,-146
19,-87,-107,34,63,-97,107,78,82,-19,-107,-141
24,-82,-107,29,65,-95,107,78,82,-19,-102,-141
9,-97,-107,43,58,-102,97,78,87,-24,-102,-141
4,-107,-112,51,58,-109,97,78,87,-19,-102,-141
-9,-122,-112,65,51,-117,97,78,87,-19,-102,-141
-14,-131,-117,73,51,-124,87,78,87,-19,-107,-146
4,-117,-122,56,63,-119,87,73,78,-19,-117,-146
14,-112,-126,48,70,-119,92,73,82,-29,-117,-146
24,-107,-131,41,78,-119,92,73,82,-29,-126,-151
29,-102,-131,36,80,-117,92,73,82,-29,-126,-151
9,-112,-122,51,65,-117,107,78,92,-19,-117,-141
4,-112,-117,53,61,-114,112,87,92,-19,-112,-146
0,-112,-112,56,56,-112,117,92,97,-19,-117,-146
-9,-112,-102,61,46,-107,122,102,102,-19,-112,-136
0,-117,-117,58,58,-117,112,107,97,-24,-112,-151
4,-126,-131,61,68,-129,112,102,97,-29,-117,-161
4,-131,-136,63,70,-134,112,97,97,-34,-122,-165
14,-136,-151,61,82,-143,112,92,97,-39,-126,-170
14,-126,-141,56,78,-134,102,92,97,-39,-131,-165
14,-126,-141,56,78,-134,102,92,97,-43,-131,-165
9,-131,-141,61,75,-136,102,92,97,-43,-131,-170
9,-131,-141,61,75,-136,102,97,97,-43,-141,-170
4,-146,-151,70,78,-148,92,97,92,-43,-131,-170
4,-146,-151,70,78,-148,97,97,97,-48,-131,-170
0,-146,-146,73,73,-146,97,102,97,-48,-141,-185
0,-146,-146,73,73,-146,97,102,97,-53,-141,-195
-4,-151,-146,78,70,-148,107,92,102,-63,-156,-185
0,-151,-151,75,75,-151,107,97,102,-63,-156,-185
9,-146,-156,68,82,-151,117,97,112,-58,-156,-185
24,-146,-170,61,97,-158,117,102,117,-53,-156,-180
24,-136,-161,56,92,-148,117,117,117,-43,-151,-180
24,-136,-161,56,92,-148,117,117,117,-43,-146,-180
24,-136,-161,56,92,-148,117,126,117,-43,-151,-185
14,-146,-161,65,87,-153,117,126,117,-43,-151,-195
24,-156,-180,65,102,-168,117,117,122,-48,-156,-200
24,-156,-180,65,102,-168,117,117,122,-48,-161,-204
24,-156,-180,65,102,-168,117,122,131,-48,-165,-204
24,-165,-190,70,107,-178,117,126,131,-48,-175,-204
-4,-170,-165,87,80,-168,131,126,146,-39,-161,-195
-14,-175,-161,95,73,-168,131,141,146,-43,-156,-195
-19,-175,-156,97,68,-165,136,146,151,-43,-151,-204
-4,-170,-165,87,80,-168,136,146,151,-43,-156,-209
9,-180,-190,85,100,-185,126,136,141,-53,-161,-214
14,-185,-200,85,107,-192,126,136,151,-58,-165,-219
0,-190,-190,95,95,-190,131,146,156,-58,-170,-224
4,-190,-195,92,100,-192,131,146,161,-58,-175,-229
0,-190,-190,95,95,-190,131,146,170,-48,-190,-229
9,-190,-200,90,104,-195,131,156,175,-48,-195,-229
9,-190,-200,90,104,-195,141,161,175,-48,-195,-239
-9,-200,-190,104,90,-195,141,161,180,-48,-200,-244
0,-214,-214,107,107,-214,141,165,195,-53,-190,-244
-9,-214,-204,112,97,-209,146,175,200,-53,-195,-244
9,-204,-214,97,112,-209,146,180,204,-53,-195,-248
24,-204,-229,90,126,-217,146,185,209,-58,-204,-263
-14,-214,-200,114,92,-207,165,200,214,-48,-195,-263
-24,-219,-195,122,85,-207,165,209,224,-48,-200,-258
-24,-219,-195,122,85,-207,165,209,224,-48,-204,-258
-9,-224,-214,117,102,-219,165,214,224,-48,-214,-263
14,-224,-239,104,126,-231,161,219,234,-58,-224,-278
14,-224,-239,104,126,-231,156,219,239,-63,-234,-292
0,-224,-224,112,112,-224,156,214,244,-63,-239,-297
0,-224,-224,112,112,-224,151,224,258,-63,-239,-307
0,-234,-234,117,117,-234,170,239,258,-58,-239,-317
0,-244,-244,122,122,-244,175,239,258,-68,-244,-326
0,-244,-244,122,122,-244,175,239,268,-73,-248,-326
4,-244,-248,119,126,-246,175,248,278,-73,-253,-326
14,-229,-244,107,129,-236,185,248,273,-63,-253,-331
9,-234,-244,112,126,-239,185,248,278,-73,-258,-336
9,-229,-239,109,124,-234,185,248,287,-68,-263,-346
9,-224,-234,107,122,-229,185,258,292,-68,-258,-346
-4,-239,-234,122,114,-236,175,258,292,-82,-258,-351
-4,-248,-244,126,119,-246,175,258,292,-87,-258,-356
-9,-253,-244,131,117,-248,180,248,292,-92,-258,-361
-14,-253,-239,134,112,-246,180,248,292,-97,-258,-366
-34,-248,-214,141,90,-231,165,248,287,-112,-258,-380
-24,-248,-224,136,100,-236,156,248,287,-112,-258,-385
-24,-248,-224,136,100,-236,151,248,278,-117,-258,-395
-29,-244,-214,136,92,-229,141,253,278,-122,-258,-395
-24,-229,-204,126,90,-217,146,263,283,-117,-258,-390
-9,-219,-209,114,100,-214,146,258,287,-131,-253,-395
-4,-214,-209,109,102,-212,151,253,287,-131,-253,-395
-9,-209,-200,109,95,-204,156,248,287,-136,-248,-390
-9,-195,-185,102,87,-190,156,239,283,-131,-234,-380
-9,-190,-180,100,85,-185,151,239,278,-131,-229,-380
0,-195,-195,97,97,-195,146,234,278,-136,-224,-380
0,-195,-195,97,97,-195,146,229,273,-136,-224,-380
4,-180,-185,87,95,-183,141,224,283,-126,-209,-361
4,-165,-170,80,87,-168,131,224,283,-126,-195,-356
9,-165,-175,78,92,-170,126,224,273,-126,-180,-341
14,-151,-165,68,90,-158,122,214,268,-126,-170,-331
19,-141,-161,61,90,-151,117,204,258,-122,-161,-326
19,-131,-151,56,85,-141,112,204,248,-107,-151,-307
4,-131,-136,63,70,-134,102,195,244,-107,-146,-297
19,-117,-136,48,78,-126,87,180,244,-107,-141,-283
34,-107,-141,36,87,-124,68,175,224,-102,-122,-258
43,-87,-131,21,87,-109,63,170,224,-92,-107,-234
48,-82,-131,17,90,-107,63,161,219,-68,-87,-214
53,-82,-136,14,95,-109,58,141,209,-53,-73,-195
53,-68,-122,7,87,-95,63,136,209,-53,-53,-165
53,-48,-102,-2,78,-75,58,126,195,-53,-48,-151
58,-43,-102,-7,80,-73,63,122,190,-39,-29,-131
58,-39,-97,-9,78,-68,63,131,180,-24,-14,-112
43,-48,-92,2,68,-70,63,126,175,-24,0,-102
43,-34,-78,-4,61,-56,58,107,156,-24,4,-78
43,-34,-78,-4,61,-56,53,97,146,-19,19,-63
43,-39,-82,-2,63,-61,48,87,141,-19,29,-48
43,-39,-82,-2,63,-61,39,78,122,-24,24,-43
43,-24,-68,-9,56,-46,34,68,112,-19,24,-34
48,-24,-73,-12,61,-48,29,68,102,-24,24,-34
58,-24,-82,-17,70,-53,19,58,92,-29,24,-34
34,-34,-68,0,51,-51,29,48,73,-39,39,-39
34,-34,-68,0,51,-51,29,39,63,-34,39,-24
48,-34,-82,-7,65,-58,29,39,53,-34,43,-24
48,-29,-78,-9,63,-53,34,34,53,-43,43,-9
43,-14,-58,-14,51,-36,34,34,53,-34,53,0
48,-9,-58,-19,53,-34,29,34,53,-34,53,0
58,-24,-82,-17,70,-53,29,29,43,-39,58,0
68,-4,-73,-31,70,-39,29,29,43,-39,58,0
68,-4,-73,-31,70,-39,29,29,43,-24,68,14
58,-4,-63,-26,61,-34,29,29,39,-24,68,14
58,-4,-63,-26,61,-34,29,24,34,-29,63,14
53,-4,-58,-24,56,-31,19,19,29,-39,63,19
53,-9,-63,-21,58,-36,14,9,24,-43,58,14
53,-14,-68,-19,61,-41,14,4,19,-43,53,9
53,-19,-73,-17,63,-46,9,4,19,-43,48,4
48,-29,-78,-9,63,-53,4,4,19,-48,43,4
39,-34,-73,-2,56,-53,4,4,19,-48,53,4
53,-34,-87,-9,70,-61,9,0,9,-53,53,0
53,-24,-78,-14,65,-51,9,0,9,-53,48,0
48,-19,-68,-14,58,-43,4,0,9,-63,48,0
39,-19,-58,-9,48,-39,4,0,4,-53,39,0
39,-19,-58,-9,48,-39,0,0,0,-53,34,-4
43,-19,-63,-12,53,-41,4,0,0,-53,34,-4
43,-19,-63,-12,53,-41,34,4,4,-53,43,-4
48,-34,-82,-7,65,-58,24,14,4,-53,53,-4
48,-39,-87,-4,68,-63,24,9,4,-63,48,-9
43,-39,-82,-2,63,-61,14,9,4,-63,48,-9
39,-43,-82,2,61,-63,9,0,-4,-63,48,-9
29,-34,-63,2,46,-48,0,0,-4,-78,39,-9
34,-34,-68,0,51,-51,4,0,-4,-78,43,-9
34,-34,-68,0,51,-51,4,0,-4,-78,43,-14
34,-34,-68,0,51,-51,0,0,-9,-78,39,-19
48,-24,-73,-12,61,-48,9,0,-9,-73,43,-24
58,-24,-82,-17,70,-53,19,0,-4,-73,43,-24
48,-24,-73,-12,61,-48,24,4,0,-68,48,-19
58,-24,-82,-17,70,-53,24,4,0,-68,53,-19
53,-39,-92,-7,73,-65,9,4,-4,-68,43,-19
48,-39,-87,-4,68,-63,4,4,-4,-73,43,-19
43,-34,-78,-4,61,-56,4,4,-4,-73,43,-14
43,-34,-78,-4,61,-56,4,4,0,-73,43,-14
43,-24,-68,-9,56,-46,9,4,0,-78,34,-24
53,-24,-78,-14,65,-51,14,4,4,-78,29,-24
63,-24,-87,-19,75,-56,24,4,4,-78,29,-24
48,-24,-73,-12,61,-48,29,4,4,-78,29,-24
58,-24,-82,-17,70,-53,29,-4,9,-78,34,-19
58,-24,-82,-17,70,-53,29,0,9,-78,34,-19
63,-29,-92,-17,78,-61,34,4,9,-73,34,-19
63,-34,-97,-14,80,-65,34,4,14,-73,39,-24
39,-34,-73,-2,56,-53,24,14,14,-58,39,-14
34,-29,-63,-2,48,-46,19,19,19,-58,39,-14
34,-29,-63,-2,48,-46,19,19,24,-58,39,-9
34,-29,-63,-2,48,-46,19,24,24,-58,34,-4
24,-29,-53,2,39,-41,9,14,24,-53,24,-9
34,-29,-63,-2,48,-46,14,14,24,-48,29,-4
34,-29,-63,-2,48,-46,14,9,24,-48,34,-4
29,-29,-58,0,43,-43,9,9,24,-43,34,-14
39,-39,-78,0,58,-58,9,14,29,-34,34,-4
39,-34,-73,-2,56,-53,9,14,29,-43,34,-4
43,-34,-78,-4,61,-56,9,14,34,-43,34,-4
43,-34,-78,-4,61,-56,9,14,39,-34,34,-4
48,-29,-78,-9,63,-53,14,19,48,-24,34,14
48,-24,-73,-12,61,-48,19,19,48,-14,34,14
48,-19,-68,-14,58,-43,24,19,48,-9,39,14
48,-14,-63,-17,56,-39,34,19,53,-9,43,19
43,-14,-58,-14,51,-36,24,19,48,-14,48,19
43,-14,-58,-14,51,-36,24,19,48,-14,48,14
48,-14,-63,-17,56,-39,19,19,48,-14,48,14
48,-14,-63,-17,56,-39,19,19,48,-14,48,19
58,-9,-68,-24,63,-39,19,24,48,-4,43,19
58,-4,-63,-26,61,-34,19,24,53,4,48,29
58,0,-58,-29,58,-29,19,24,58,9,48,29
58,14,-43,-36,51,-14,19,24,58,9,48,29
63,4,-58,-34,61,-26,9,29,68,9,53,39
58,4,-53,-31,56,-24,24,29,68,14,58,43
48,4,-43,-26,46,-19,24,29,68,19,58,43
43,4,-39,-24,41,-17,14,29,68,19,58,43
53,0,-53,-26,53,-26,0,14,63,14,53,34
53,-9,-63,-21,58,-36,0,14,63,14,48,34
53,4,-48,-29,51,-21,4,19,68,24,58,34
53,4,-48,-29,51,-21,9,19,63,24,63,39
48,4,-43,-26,46,-19,9,29,73,24,73,48
48,9,-39,-29,43,-14,9,29,73,29,73,48
48,14,-34,-31,41,-9,4,34,73,29,68,48
63,19,-43,-41,53,-12,4,34,73,29,68,48
78,19,-58,-48,68,-19,9,24,58,24,78,53
73,29,-43,-51,58,-7,14,19,58,24,78,53
78,29,-48,-53,63,-9,14,14,58,24,73,53
97,24,-73,-61,85,-24,19,14,58,24,73,48
82,24,-58,-53,70,-17,19,24,63,34,78,53
68,34,-34,-51,51,0,24,24,73,43,87,63
63,34,-29,-48,46,2,24,29,82,48,87,73
43,29,-14,-36,29,7,14,29,87,48,87,82
58,29,-29,-43,43,0,9,24,78,34,78,68
68,34,-34,-51,51,0,0,24,68,29,73,63
73,34,-39,-53,56,-2,-4,24,58,24,73,58
78,24,-53,-51,65,-14,-9,19,53,24,73,48
68,19,-48,-43,58,-14,-14,9,53,34,73,58
73,14,-58,-43,65,-21,-14,9,53,34,73,58
68,9,-58,-39,63,-24,-9,9,53,34,78,63
63,9,-53,-36,58,-21,-9,9,48,34,78,63
68,24,-43,-46,56,-9,-9,9,58,29,78,63
78,34,-43,-56,61,-4,-4,9,58,29,78,63
82,39,-43,-61,63,-2,0,9,58,29,78,63
78,43,-34,-61,56,4,0,9,53,29,78,63
58,39,-19,-48,39,9,9,19,53,39,87,78
58,34,-24,-46,41,4,14,19,58,43,92,78
58,34,-24,-46,41,4,14,24,58,43,97,78
58,34,-24,-46,41,4,14,24,53,39,97,73
63,43,-19,-53,41,12,4,9,53,24,92,68
68,34,-34,-51,51,0,-4,4,53,24,87,68
73,34,-39,-53,56,-2,-4,4,48,14,87,68
78,34,-43,-56,61,-4,-4,0,43,24,82,68
87,29,-58,-58,73,-14,0,9,43,34,92,58
87,39,-48,-63,68,-4,4,4,43,29,97,63
82,24,-58,-53,70,-17,14,4,43,29,97,73
78,24,-53,-51,65,-14,19,4,43,29,97,73
73,14,-58,-43,65,-21,24,4,39,19,92,58
68,29,-39,-48,53,-4,19,9,39,24,92,58
53,29,-24,-41,39,2,14,9,39,24,92,58
68,19,-48,-43,58,-14,9,9,34,19,87,58
87,29,-58,-58,73,-14,0,4,29,19,78,53
73,34,-39,-53,56,-2,-9,4,29,19,78,53
68,34,-34,-51,51,0,-9,4,29,19,78,53
68,29,-39,-48,53,-4,-9,9,29,19,82,48
78,24,-53,-51,65,-14,-4,9,19,19,82,58
87,24,-63,-56,75,-19,0,0,19,14,73,58
78,29,-48,-53,63,-9,4,0,19,14,73,58
78,29,-48,-53,63,-9,9,4,19,14,78,53
68,29,-39,-48,53,-4,4,4,19,14,78,53
68,29,-39,-48,53,-4,0,4,19,14,78,53
68,29,-39,-48,53,-4,-4,0,9,9,68,43
68,24,-43,-46,56,-9,-9,-4,9,9,68,43
73,24,-48,-48,61,-12,0,-4,19,9,82,43
78,19,-58,-48,68,-19,4,-4,19,9,82,43
82,19,-63,-51,73,-21,4,-4,14,9,82,48
87,19,-68,-53,78,-24,0,0,14,9,82,48
78,9,-68,-43,73,-29,0,-9,4,0,73,39
87,19,-68,-53,78,-24,0,-9,4,0,73,39
87,19,-68,-53,78,-24,0,-14,4,0,73,39
92,19,-73,-56,82,-26,-4,-14,4,0,68,39
97,29,-68,-63,82,-19,-24,-4,4,0,78,43
97,29,-68,-63,82,-19,-14,-4,4,0,82,48
87,19,-68,-53,78,-24,-14,-4,9,4,82,48
73,19,-53,-46,63,-17,-14,-4,9,4,82,48
73,24,-48,-48,61,-12,-4,-4,9,14,82,43
73,24,-48,-48,61,-12,-4,-4,9,14,82,43
78,19,-58,-48,68,-19,-4,-4,9,9,82,34
78,19,-58,-48,68,-19,0,-4,4,9,82,34
78,24,-53,-51,65,-14,0,-14,-4,0,68,29
102,24,-78,-63,90,-26,-9,-24,-9,-4,63,24
92,24,-68,-58,80,-21,-9,-24,-9,-4,63,19
92,24,-68,-58,80,-21,-4,-24,-9,-4,63,19
97,39,-58,-68,78,-9,-9,-9,0,-4,63,39
107,39,-68,-73,87,-14,-9,-9,0,-4,63,39
112,29,-82,-70,97,-26,-9,-14,-4,-9,63,39
112,29,-82,-70,97,-26,-9,-14,-4,-9,63,34
102,29,-73,-65,87,-21,-9,-24,0,0,63,34
102,29,-73,-65,87,-21,-9,-19,4,0,68,39
97,29,-68,-63,82,-19,-4,-19,4,0,68,39
97,29,-68,-63,82,-19,-4,-19,0,0,68,39
87,29,-58,-58,73,-14,-19,-9,-9,-9,78,29
87,29,-58,-58,73,-14,-24,-14,-9,-9,78,29
97,24,-73,-61,85,-24,-24,-14,-9,-4,78,34
112,24,-87,-68,100,-31,-24,-14,-9,0,78,34
102,24,-78,-63,90,-26,-34,-19,-19,-9,73,24
92,24,-68,-58,80,-21,-34,-24,-19,-14,68,24
92,29,-63,-61,78,-17,-34,-24,-19,-14,68,24
97,34,-63,-65,80,-14,-29,-29,-19,-14,63,24
107,29,-78,-68,92,-24,-14,-19,-14,-14,73,24
102,19,-82,-61,92,-31,-9,-19,-14,-19,73,24
92,14,-78,-53,85,-31,-4,-19,-19,-19,73,34
92,9,-82,-51,87,-36,0,-24,-4,-14,73,34
92,19,-73,-56,82,-26,0,-14,0,-9,78,39
78,14,-63,-46,70,-24,4,-14,0,-9,78,29
87,29,-58,-58,73,-14,4,-14,0,-4,78,29
102,34,-68,-68,85,-17,0,-14,-4,0,78,29
97,29,-68,-63,82,-19,-14,-14,-19,-9,73,39
87,29,-58,-58,73,-14,-14,-14,-19,0,73,39
68,29,-39,-48,53,-4,-4,-14,-19,0,73,34
58,19,-39,-39,48,-9,-4,-14,-19,0,73,29
63,29,-34,-46,48,-2,-14,-19,-24,-4,58,14
78,34,-43,-56,61,-4,-24,-24,-24,-14,58,14
97,53,-43,-75,70,4,-34,-29,-24,-19,58,14
112,58,-53,-85,82,2,-43,-34,-24,-29,63,19
102,48,-53,-75,78,-2,-43,-34,-34,-29,63,9
92,24,-68,-58,80,-21,-43,-34,-34,-29,63,14
78,14,-63,-46,70,-24,-43,-39,-34,-29,58,14
63,4,-58,-34,61,-26,-43,-39,-34,-29,58,19
102,29,-73,-65,87,-21,-19,-29,-24,-14,63,29
82,34,-48,-58,65,-7,-9,-14,-19,-4,73,29
97,48,-48,-73,73,0,0,-9,-9,0,78,29
107,39,-68,-73,87,-14,0,-19,-19,-9,78,29
107,39,-68,-73,87,-14,0,-19,-19,-9,78,29
107,39,-68,-73,87,-14,0,-19,-19,-9,78,29
107,39,-68,-73,87,-14,0,-19,-19,-9,78,29
102,29,-73,-65,87,-21,-9,-29,-29,-19,68,29
97,29,-68,-63,82,-19,-9,-29,-29,-19,68,29
92,29,-63,-61,78,-17,-9,-29,-29,-19,68,29
87,29,-58,-58,73,-14,-9,-29,-29,-19,68,29
78,34,-43,-56,61,-4,-19,-19,-24,-9,73,29
78,39,-39,-58,58,0,-19,-19,-19,-9,78,29
78,43,-34,-61,56,4,-19,-19,-14,-9,82,29
78,48,-29,-63,53,9,-19,-19,-9,-9,87,29
68,39,-29,-53,48,4,-29,-24,-24,-19,73,19
68,29,-39,-48,53,-4,-29,-29,-29,-19,68,19
68,19,-48,-43,58,-14,-29,-34,-34,-19,63,19
68,9,-58,-39,63,-24,-29,-39,-39,-19,58,19
82,14,-68,-48,75,-26,-19,-29,-29,-29,63,29
87,19,-68,-53,78,-24,-19,-29,-29,-29,68,29
92,24,-68,-58,80,-21,-19,-29,-29,-29,73,29
97,29,-68,-63,82,-19,-19,-29,-29,-29,78,29
107,34,-73,-70,90,-19,-14,-29,-29,-19,78,39
107,39,-68,-73,87,-14,-9,-29,-29,-19,78,39
107,43,-63,-75,85,-9,-4,-29,-29,-19,78,39
107,48,-58,-78,82,-4,0,-29,-29,-19,78,39
102,43,-58,-73,80,-7,-4,-29,-29,-29,78,29
97,39,-58,-68,78,-9,-9,-29,-29,-29,78,29
92,34,-58,-63,75,-12,-14,-29,-29,-29,78,29
87,29,-58,-58,73,-14,-19,-29,-29,-29,78,29
78,29,-48,-53,63,-9,-19,-29,-29,-19,78,39
78,29,-48,-53,63,-9,-19,-29,-29,-19,78,39
78,29,-48,-53,63,-9,-19,-29,-29,-19,78,39
78,29,-48,-53,63,-9,-19,-29,-29,-19,78,39
87,29,-58,-58,73,-14,-29,-29,-39,-29,68,29
87,29,-58,-58,73,-14,-29,-29,-39,-29,68,29
87,29,-58,-58,73,-14,-29,-29,-39,-29,68,29
87,29,-58,-58,73,-14,-29,-29,-39,-29,68,29
78,29,-48,-53,63,-9,-29,-29,-29,-19,82,34
78,29,-48,-53,63,-9,-29,-29,-29,-19,87,39
78,29,-48,-53,63,-9,-29,-29,-29,-19,92,43
78,29,-48,-53,63,-9,-29,-29,-29,-19,97,48
63,24,-39,-43,51,-7,-29,-29,-29,-29,92,43
58,19,-39,-39,48,-9,-29,-29,-29,-29,87,39
53,14,-39,-34,46,-12,-29,-29,-29,-29,82,34
48,9,-39,-29,43,-14,-29,-29,-29,-29,78,29
68,24,-43,-46,56,-9,-19,-29,-29,-29,87,29
78,29,-48,-53,63,-9,-9,-29,-29,-29,87,34
87,34,-53,-61,70,-9,0,-29,-29,-29,87,34
102,43,-58,-73,80,-7,9,-29,-34,-29,87,34
102,53,-48,-78,75,2,0,-29,-34,-29,87,39
102,53,-48,-78,75,2,-4,-29,-34,-29,82,39
92,53,-39,-73,65,7,-4,-24,-34,-24,82,39
82,48,-34,-65,58,7,-4,-24,-34,-19,87,39
73,34,-39,-53,56,-2,-14,-34,-43,-29,87,39
87,29,-58,-58,73,-14,-19,-34,-43,-29,87,39
102,29,-73,-65,87,-21,-19,-34,-43,-29,82,43
102,24,-78,-63,90,-26,-14,-34,-43,-29,82,43
87,34,-53,-61,70,-9,-14,-24,-34,-19,92,39
82,39,-43,-61,63,-2,-14,-24,-34,-19,92,39
82,39,-43,-61,63,-2,-14,-24,-24,-19,92,39
82,39,-43,-61,63,-2,-14,-19,-24,-19,92,43
82,29,-53,-56,68,-12,-14,-29,-29,-29,92,34
73,19,-53,-46,63,-17,-19,-29,-29,-24,87,39
73,19,-53,-46,63,-17,-24,-29,-29,-24,82,39
87,39,-48,-63,68,-4,-29,-19,-24,-24,82,43
102,48,-53,-75,78,-2,-24,-9,-9,-14,92,53
102,53,-48,-78,75,2,-19,-9,-9,-4,92,53
107,63,-43,-85,75,9,-19,-9,-4,0,97,58
107,68,-39,-87,73,14,-19,-9,-4,4,97,58
87,68,-19,-78,53,24,-19,-19,-9,4,107,63
87,78,-9,-82,48,34,-19,-19,-9,4,107,68
97,87,-9,-92,53,39,-24,-19,-9,4,107,68
87,87,0,-87,43,43,-24,-19,-4,9,117,78
97,78,-19,-87,58,29,-29,-19,4,24,122,73
97,92,-4,-95,51,43,-29,-19,9,24,122,73
97,102,4,-100,46,53,-29,-14,14,29,122,87
97,102,4,-100,46,53,-29,-9,19,39,126,87
107,107,0,-107,53,53,-19,0,34,43,136,92
107,107,0,-107,53,53,-19,0,34,43,136,97
117,107,-9,-112,63,48,-24,0,34,43,136,102
117,112,-4,-114,61,53,-29,0,24,43,136,107
102,107,4,-104,48,56,-48,-29,9,34,126,97
97,112,14,-104,41,63,-58,-34,4,34,131,97
97,107,9,-102,43,58,-58,-34,4,34,131,92
92,87,-4,-90,48,41,-58,-39,-4,24,126,87
102,97,-4,-100,53,46,-63,-53,-29,4,122,73
122,97,-24,-109,73,36,-68,-63,-39,0,117,73
136,92,-43,-114,90,24,-68,-63,-43,-9,117,63
146,97,-48,-122,97,24,-63,-58,-43,-9,117,63
117,78,-39,-97,78,19,-48,-53,-34,-4,122,78
102,68,-34,-85,68,17,-39,-48,-29,-4,131,78
92,48,-43,-70,68,2,-39,-48,-29,-9,136,73
82,34,-48,-58,65,-7,-39,-48,-34,-14,131,68
97,39,-58,-68,78,-9,-39,-48,-34,-24,117,63
112,39,-73,-75,92,-17,-39,-48,-34,-24,117,63
112,43,-68,-78,90,-12,-34,-39,-34,-19,117,68
112,43,-68,-78,90,-12,-34,-34,-24,-19,117,68
112,39,-73,-75,92,-17,-34,-24,-19,-4,126,68
112,34,-78,-73,95,-21,-29,-14,-14,4,136,78
112,34,-78,-73,95,-21,-24,-14,-14,4,136,78
126,29,-97,-78,112,-34,-14,-14,-14,4,136,78
122,19,-102,-70,112,-41,-24,-24,-14,-9,126,78
122,14,-107,-68,114,-46,-24,-24,-19,-14,122,73
122,0,-122,-61,122,-61,-29,-29,-24,-24,122,63
122,-4,-126,-58,124,-65,-29,-29,-29,-29,122,58
126,4,-122,-65,124,-58,-29,-24,-34,-19,131,68
131,9,-122,-70,126,-56,-34,-29,-34,-24,126,68
136,14,-122,-75,129,-53,-34,-29,-43,-34,122,58
117,14,-102,-65,109,-43,-24,-39,-43,-34,117,58
102,0,-102,-51,102,-51,-34,-43,-53,-39,107,48
78,-9,-87,-34,82,-48,-39,-48,-58,-43,102,43
58,-14,-73,-21,65,-43,-34,-53,-58,-48,97,43
53,-19,-73,-17,63,-46,-29,-43,-48,-43,97,48
63,0,-63,-31,63,-31,-19,-29,-29,-29,107,53
63,9,-53,-36,58,-21,-9,-24,-24,-24,112,53
68,19,-48,-43,58,-14,0,-19,-19,-19,107,53
68,29,-39,-48,53,-4,9,-14,-19,-19,107,53
43,14,-29,-29,36,-7,4,-24,-34,-24,97,53
43,0,-43,-21,43,-21,0,-24,-34,-24,107,53
58,4,-53,-31,56,-24,4,-19,-29,-24,117,63
58,0,-58,-29,58,-29,0,-19,-24,-19,117,63
48,0,-48,-24,48,-24,-4,-19,-34,-29,97,58
63,0,-63,-31,63,-31,-4,-19,-39,-29,97,53
82,9,-73,-46,78,-31,-4,-24,-39,-29,97,48
87,14,-73,-51,80,-29,-4,-24,-39,-29,97,43
73,14,-58,-43,65,-21,-4,-34,-43,-39,97,53
68,0,-68,-34,68,-34,-4,-29,-43,-34,102,53
68,-4,-73,-31,70,-39,0,-29,-39,-24,102,53
68,-4,-73,-31,70,-39,0,-24,-39,-24,102,53
63,0,-63,-31,63,-31,9,-24,-19,-19,97,48
48,0,-48,-24,48,-24,14,-19,-14,-9,97,48
34,-19,-53,-7,43,-36,9,-9,-4,-14,87,43
24,-29,-53,2,39,-41,24,0,-9,-34,63,0
19,-34,-53,7,36,-43,43,14,-9,-73,29,-53
19,-29,-48,4,34,-39,107,73,29,-97,-14,-112
29,-9,-39,-9,34,-24,170,165,112,-87,-48,-141
34,-14,-48,-9,41,-31,244,273,209,-58,-68,-161
14,-24,-39,4,26,-31,292,375,297,-19,-68,-146
24,19,-4,-21,14,7,302,439,409,78,-29,-73
58,122,63,-90,-2,92,268,463,531,263,78,87
97,209,112,-153,-7,161,190,429,619,478,224,317
151,292,141,-222,4,217,82,351,624,683,414,590
244,463,219,-353,12,341,-29,239,566,878,634,902
331,683,351,-507,-9,517,-161,92,497,1107,888,1254
400,893,492,-646,-46,692,-331,-97,434,1390,1176,1683
458,1141,683,-800,-112,912,-507,-326,351,1712,1503,2156
497,1410,912,-954,-207,1161,-697,-639,190,2005,1800,2601
522,1639,1117,-1080,-297,1378,-878,-956,-58,2210,2064,2942
546,1678,1132,-1112,-292,1405,-966,-1127,-224,2313,2215,3137
590,1381,790,-985,-100,1085,-878,-1005,-190,2313,2156,3123
605,888,283,-746,161,585,-668,-746,-48,2249,1947,2947
580,575,-4,-578,292,285,-541,-605,-78,2010,1751,2625
541,512,-29,-527,285,241,-507,-629,-287,1546,1586,2181
473,419,-53,-446,263,183,-439,-629,-575,766,1312,1478
351,253,-97,-302,224,78,-322,-590,-854,-161,907,580
185,122,-63,-153,124,29,-204,-517,-951,-688,556,-14
78,39,-39,-58,58,0,-141,-448,-878,-722,366,-151
53,-58,-112,2,82,-85,-82,-370,-785,-678,244,-195
39,-122,-161,41,100,-141,0,-278,-702,-668,122,-283
48,-107,-156,29,102,-131,97,-190,-610,-614,48,-312
68,-102,-170,17,119,-136,136,-126,-566,-551,14,-292
39,-156,-195,58,117,-175,122,-97,-536,-541,-34,-312
24,-165,-190,70,107,-178,146,-68,-507,-531,-82,-326
19,-146,-165,63,92,-156,185,-58,-458,-497,-107,-326
-9,-165,-156,87,73,-161,165,-78,-429,-478,-136,-336
-29,-165,-136,97,53,-151,131,-97,-385,-434,-126,-317
0,-107,-107,53,53,-107,107,-87,-317,-351,-87,-263
34,-63,-97,14,65,-80,82,-73,-253,-278,-43,-195
34,-48,-82,7,58,-65,68,-39,-180,-219,-19,-156
34,-29,-63,-2,48,-46,63,9,-122,-170,14,-117
24,-29,-53,2,39,-41,63,19,-102,-141,19,-82
14,-39,-53,12,34,-46,63,14,-78,-136,19,-82
14,-43,-58,14,36,-51,58,34,-43,-122,19,-92
34,-39,-73,2,53,-56,58,34,-14,-107,19,-78
34,-29,-63,-2,48,-46,68,19,-9,-87,19,-78
24,-24,-48,0,36,-36,68,14,-4,-68,24,-78
14,-29,-43,7,29,-36,68,14,4,-58,29,-58
39,-39,-78,0,58,-58,58,19,14,-63,39,-53
63,-43,-107,-9,85,-75,53,34,14,-63,34,-53
73,-48,-122,-12,97,-85,53,43,9,-68,29,-53
73,-53,-126,-9,100,-90,58,43,9,-78,24,-58
58,-63,-122,2,90,-92,68,53,19,-68,24,-53
53,-63,-117,4,85,-90,68,39,19,-63,14,-58
39,-58,-97,9,68,-78,68,29,19,-58,14,-58
48,-53,-102,2,75,-78,68,29,19,-48,14,-48
53,-43,-97,-4,75,-70,68,39,19,-53,24,-48
63,-43,-107,-9,85,-75,68,48,19,-53,29,-43
68,-48,-117,-9,92,-82,68,53,24,-58,34,-43
63,-53,-117,-4,90,-85,68,63,24,-58,34,-43
63,-53,-117,-4,90,-85,63,63,29,-48,24,-43
68,-53,-122,-7,95,-87,63,58,29,-48,14,-53
68,-53,-122,-7,95,-87,63,53,24,-48,4,-63
68,-53,-122,-7,95,-87,63,48,24,-48,4,-63
63,-58,-122,-2,92,-90,63,48,24,-48,24,-53
63,-58,-122,-2,92,-90,58,48,24,-43,24,-48
58,-63,-122,2,90,-92,58,58,29,-43,24,-48
53,-63,-117,4,85,-90,63,63,34,-39,24,-48
53,-53,-107,0,80,-80,68,73,34,-39,34,-39
53,-58,-112,2,82,-85,73,68,34,-43,24,-48
53,-58,-112,2,82,-85,78,68,34,-43,24,-48
63,-53,-117,-4,90,-85,82,68,34,-39,34,-43
63,-43,-107,-9,85,-75,73,63,29,-48,24,-48
58,-58,-117,0,87,-87,78,58,29,-48,24,-48
63,-58,-122,-2,92,-90,78,53,29,-48,24,-48
73,-53,-126,-9,100,-90,73,58,29,-53,19,-48
63,-58,-122,-2,92,-90,73,58,34,-48,14,-58
68,-63,-131,-2,100,-97,73,58,34,-48,14,-58
68,-68,-136,0,102,-102,78,58,34,-48,14,-58
73,-73,-146,0,109,-109,78,58,34,-48,14,-63
63,-73,-136,4,100,-104,78,68,48,-53,14,-53
63,-68,-131,2,97,-100,78,68,48,-48,14,-53
53,-68,-122,7,87,-95,78,68,48,-48,14,-53
53,-63,-117,4,85,-90,68,68,48,-48,9,-58
58,-73,-131,7,95,-102,68,73,39,-48,9,-58
63,-73,-136,4,100,-104,73,73,43,-58,9,-58
68,-73,-141,2,104,-107,73,73,43,-58,0,-63
68,-73,-141,2,104,-107,73,73,43,-58,0,-63
53,-73,-126,9,90,-100,92,73,53,-48,4,-53
53,-73,-126,9,90,-100,92,78,53,-48,4,-58
53,-73,-126,9,90,-100,92,78,58,-48,-4,-58
48,-73,-122,12,85,-97,92,82,63,-48,-4,-48
58,-82,-141,12,100,-112,82,92,58,-48,0,-58
53,-87,-141,17,97,-114,82,92,58,-48,0,-63
43,-87,-131,21,87,-109,82,92,58,-48,0,-63
43,-87,-131,21,87,-109,82,92,58,-48,0,-63
58,-87,-146,14,102,-117,92,82,48,-48,-14,-78
63,-87,-151,12,107,-119,92,82,48,-53,-14,-78
63,-92,-156,14,109,-124,92,82,48,-53,-14,-82
68,-92,-161,12,114,-126,92,87,48,-53,-24,-82
68,-87,-156,9,112,-122,102,92,58,-53,-19,-78
63,-87,-151,12,107,-119,107,97,68,-58,-14,-73
53,-87,-141,17,97,-114,107,107,73,-58,-19,-82
48,-87,-136,19,92,-112,107,112,78,-63,-14,-87
29,-97,-126,34,78,-112,102,102,63,-63,-19,-97
29,-102,-131,36,80,-117,97,107,63,-63,-19,-97
34,-102,-136,34,85,-119,102,107,73,-58,-19,-97
43,-107,-151,31,97,-129,97,112,78,-53,-19,-92
48,-102,-151,26,100,-126,112,126,97,-63,-9,-82
53,-97,-151,21,102,-124,117,126,97,-63,-9,-82
58,-92,-151,17,104,-122,122,136,97,-63,-19,-87
53,-97,-151,21,102,-124,126,136,97,-63,-24,-97
48,-102,-151,26,100,-126,117,136,92,-58,-24,-92
43,-107,-151,31,97,-129,117,136,92,-58,-24,-97
39,-112,-151,36,95,-131,117,141,102,-58,-24,-97
34,-126,-161,46,97,-143,117,146,102,-58,-29,-97
19,-122,-141,51,80,-131,122,146,117,-58,-39,-97
24,-126,-151,51,87,-139,122,161,117,-63,-39,-97
34,-126,-161,46,97,-143,126,165,122,-63,-39,-107
63,-122,-185,29,124,-153,126,165,122,-63,-48,-112
73,-112,-185,19,129,-148,136,156,112,-63,-53,-117
73,-117,-190,21,131,-153,136,156,122,-68,-58,-122
53,-122,-175,34,114,-148,141,165,126,-68,-63,-126
53,-122,-175,34,114,-148,141,165,131,-68,-68,-131
53,-122,-175,34,114,-148,141,170,156,-58,-68,-122
58,-122,-180,31,119,-151,141,185,165,-58,-68,-122
53,-122,-175,34,114,-148,151,195,170,-58,-63,-131
29,-131,-161,51,95,-146,151,200,180,-58,-63,-136
29,-146,-175,58,102,-161,141,195,180,-73,-73,-141
19,-146,-165,63,92,-156,146,204,180,-73,-78,-146
39,-136,-175,48,107,-156,146,209,180,-73,-78,-156
53,-136,-190,41,122,-163,146,214,180,-78,-87,-175
24,-156,-180,65,102,-168,156,229,204,-78,-87,-170
14,-161,-175,73,95,-168,156,239,214,-78,-92,-170
14,-161,-175,73,95,-168,156,239,214,-78,-97,-175
29,-165,-195,68,112,-180,156,244,214,-78,-107,-185
34,-156,-190,61,112,-173,165,244,214,-78,-97,-195
34,-156,-190,61,112,-173,165,248,219,-82,-107,-204
19,-156,-175,68,97,-165,170,248,224,-82,-112,-204
19,-156,-175,68,97,-165,170,263,239,-82,-112,-209
19,-165,-185,73,102,-175,180,278,239,-97,-122,-224
19,-175,-195,78,107,-185,185,278,239,-107,-126,-239
19,-175,-195,78,107,-185,185,278,248,-112,-131,-244
24,-175,-200,75,112,-187,185,287,258,-112,-136,-248
34,-170,-204,68,119,-187,195,287,258,-107,-131,-248
29,-175,-204,73,117,-190,195,287,258,-122,-141,-258
29,-170,-200,70,114,-185,195,287,263,-122,-151,-273
29,-165,-195,68,112,-180,195,297,263,-126,-151,-278
19,-170,-190,75,104,-180,185,307,263,-141,-156,-292
24,-180,-204,78,114,-192,185,307,263,-146,-161,-297
24,-185,-209,80,117,-197,190,297,263,-151,-165,-302
24,-185,-209,80,117,-197,190,297,263,-156,-170,-307
4,-175,-180,85,92,-178,200,307,268,-151,-161,-302
14,-170,-185,78,100,-178,195,307,268,-151,-161,-307
14,-165,-180,75,97,-173,195,307,258,-156,-161,-317
9,-156,-165,73,87,-161,190,312,258,-161,-161,-317
4,-161,-165,78,85,-163,180,312,258,-170,-170,-326
9,-161,-170,75,90,-165,175,307,258,-190,-165,-336
4,-165,-170,80,87,-168,175,302,253,-195,-165,-341
-9,-170,-161,90,75,-165,175,297,248,-204,-161,-341
0,-141,-141,70,70,-141,165,292,244,-209,-146,-331
9,-131,-141,61,75,-136,161,287,239,-209,-141,-331
29,-131,-161,51,95,-146,156,278,239,-214,-136,-331
39,-126,-165,43,102,-146,156,268,234,-214,-136,-331
34,-122,-156,43,95,-139,161,263,234,-204,-136,-322
34,-107,-141,36,87,-124,151,263,234,-204,-126,-317
39,-107,-146,34,92,-126,146,263,224,-204,-117,-302
43,-92,-136,24,90,-114,141,253,219,-204,-112,-292
43,-102,-146,29,95,-124,131,248,209,-200,-97,-287
39,-92,-131,26,85,-112,131,244,200,-185,-82,-268
19,-92,-112,36,65,-102,126,229,195,-185,-73,-258
29,-78,-107,24,68,-92,117,209,195,-185,-63,-244
48,-48,-97,0,73,-73,107,209,190,-175,-43,-219
73,-19,-92,-26,82,-56,102,209,195,-161,-29,-195
92,-4,-97,-43,95,-51,102,204,195,-131,-9,-175
112,4,-107,-58,109,-51,97,190,190,-112,4,-156
102,9,-92,-56,97,-41,97,180,180,-102,24,-131
92,19,-73,-56,82,-26,87,165,165,-102,29,-112
87,14,-73,-51,80,-29,87,156,161,-87,48,-87
78,9,-68,-43,73,-29,82,161,151,-73,63,-63
73,9,-63,-41,68,-26,63,146,136,-68,68,-53
73,24,-48,-48,61,-12,58,126,117,-63,73,-29
73,24,-48,-48,61,-12,53,117,107,-53,87,-14
73,19,-53,-46,63,-17,48,107,102,-48,97,0
73,19,-53,-46,63,-17,43,87,92,-39,107,19
73,34,-39,-53,56,-2,43,78,82,-29,112,34
78,34,-43,-56,61,-4,43,78,73,-29,117,39
87,34,-53,-61,70,-9,39,68,63,-29,122,43
78,43,-34,-61,56,4,24,48,53,-29,126,48
82,43,-39,-63,61,2,19,39,43,-24,126,63
102,43,-58,-73,80,-7,14,39,34,-24,131,63
107,48,-58,-78,82,-4,14,34,34,-34,131,78
92,58,-34,-75,63,12,19,34,39,-19,141,82
87,58,-29,-73,58,14,19,34,34,-14,141,87
87,39,-48,-63,68,-4,24,29,19,-14,146,92
87,53,-34,-70,61,9,29,29,14,-9,146,97
92,43,-48,-68,70,-2,24,24,4,-9,151,97
87,43,-43,-65,65,0,19,19,0,-14,146,92
92,43,-48,-68,70,-2,14,9,-4,-24,136,87
