I,II,III,aVR,aVL,aVF,V1,V2,V3,V4,V5,V6
-68,-97,-29,82,-19,-63,19,-58,78,-78,58,68
-68,-97,-29,82,-19,-63,19,-58,78,-78,58,68
-68,-97,-29,82,-19,-63,19,-58,78,-78,58,68
-68,-97,-29,82,-19,-63,19,-58,78,-78,58,68
-68,-102,-34,85,-17,-68,24,-58,87,-68,48,58
-68,-107,-39,87,-14,-73,29,-58,87,-68,48,58
-68,-112,-43,90,-12,-78,34,-58,87,-68,48,58
-68,-117,-48,92,-9,-82,39,-58,87,-68,48,58
-78,-126,-48,102,-14,-87,39,-53,97,-68,48,58
-78,-126,-48,102,-14,-87,39,-48,97,-68,48,58
-78,-126,-48,102,-14,-87,39,-43,97,-68,48,58
-78,-126,-48,102,-14,-87,39,-39,97,-68,48,58
-68,-136,-68,102,0,-102,29,-48,97,-58,48,58
-68,-136,-68,102,0,-102,29,-48,97,-58,48,58
-68,-136,-68,102,0,-102,29,-48,97,-58,48,58
-68,-136,-68,102,0,-102,29,-48,97,-58,48,58
-78,-146,-68,112,-4,-107,14,-48,87,-68,48,48
-78,-146,-68,112,-4,-107,9,-48,87,-68,48,48
-78,-146,-68,112,-4,-107,4,-48,87,-68,48,48
-78,-146,-68,112,-4,-107,0,-48,87,-68,48,48
-87,-156,-68,122,-9,-112,0,-48,82,-68,48,48
-87,-156,-68,122,-9,-112,0,-48,78,-68,48,48
-87,-156,-68,122,-9,-112,0,-48,73,-68,48,48
-87,-156,-68,122,-9,-112,0,-48,68,-68,48,48
-87,-165,-78,126,-4,-122,-9,-43,58,-68,48,39
-87,-165,-78,126,-4,-122,-9,-39,58,-68,48,39
-87,-165,-78,126,-4,-122,-9,-34,58,-68,48,39
-87,-165,-78,126,-4,-122,-9,-29,58,-68,48,39
-73,-175,-102,124,14,-139,-9,-29,58,-68,48,39
-68,-175,-107,122,19,-141,-9,-29,58,-68,48,39
-63,-175,-112,119,24,-143,-9,-29,58,-68,48,39
-58,-175,-117,117,29,-146,-9,-29,58,-68,48,39
-68,-175,-107,122,19,-141,-9,-19,48,-58,39,39
-68,-175,-107,122,19,-141,-9,-19,48,-58,39,39
-68,-175,-107,122,19,-141,-9,-19,48,-58,39,39
-68,-175,-107,122,19,-141,-9,-19,48,-58,39,39
-78,-180,-102,129,12,-141,-4,-14,48,-48,43,48
-78,-185,-107,131,14,-146,0,-9,48,-48,48,48
-78,-190,-112,134,17,-151,4,-4,48,-48,53,48
-78,-195,-117,136,19,-156,9,0,48,-48,58,48
-73,-185,-112,129,19,-148,9,0,48,-48,48,43
-68,-185,-117,126,24,-151,9,0,48,-48,48,39
-63,-185,-122,124,29,-153,9,0,48,-48,48,34
-58,-185,-126,122,34,-156,9,0,48,-48,48,29
-73,-185,-112,129,19,-148,19,14,58,-43,63,43
-78,-185,-107,131,14,-146,19,19,58,-39,68,48
-82,-185,-102,134,9,-143,19,24,58,-34,73,53
-87,-185,-97,136,4,-141,19,29,58,-29,78,58
-78,-185,-107,131,14,-146,29,34,63,-19,68,58
-78,-185,-107,131,14,-146,29,39,68,-19,68,58
-78,-185,-107,131,14,-146,29,43,73,-19,68,58
-78,-185,-107,131,14,-146,29,48,78,-19,68,58
-78,-175,-97,126,9,-136,34,63,82,-4,73,68
-78,-175,-97,126,9,-136,39,68,87,0,78,68
-78,-175,-97,126,9,-136,43,73,92,4,82,68
-78,-175,-97,126,9,-136,48,78,97,9,87,68
-73,-170,-97,122,12,-134,48,92,102,14,92,78
-68,-165,-97,117,14,-131,48,97,107,19,97,78
-63,-161,-97,112,17,-129,48,102,112,24,102,78
-58,-156,-97,107,19,-126,48,107,117,29,107,78
-58,-151,-92,104,17,-122,58,112,122,43,112,82
-58,-146,-87,102,14,-117,58,117,126,48,117,87
-58,-141,-82,100,12,-112,58,122,131,53,122,92
-58,-136,-78,97,9,-107,58,126,136,58,126,97
-58,-126,-68,92,4,-97,58,136,141,63,131,107
-58,-126,-68,92,4,-97,58,146,146,68,136,107
-58,-126,-68,92,4,-97,58,156,151,73,141,107
-58,-126,-68,92,4,-97,58,165,156,78,146,107
-48,-126,-78,87,14,-102,58,175,165,87,156,117
-48,-126,-78,87,14,-102,58,175,165,87,156,117
-48,-126,-78,87,14,-102,58,175,165,87,156,117
-48,-126,-78,87,14,-102,58,175,165,87,156,117
-48,-122,-73,85,12,-97,48,185,175,97,165,131
-48,-117,-68,82,9,-92,48,195,185,107,175,136
-48,-112,-63,80,7,-87,48,204,195,117,185,141
-48,-107,-58,78,4,-82,48,214,204,126,195,146
-48,-92,-43,70,-2,-68,48,229,219,136,200,156
-48,-87,-39,68,-4,-63,48,234,224,146,204,156
-48,-82,-34,65,-7,-58,48,239,229,156,209,156
-48,-78,-29,63,-9,-53,48,244,234,165,214,156
-43,-68,-24,56,-9,-46,39,263,239,180,229,161
-39,-68,-29,53,-4,-48,39,273,244,185,234,165
-34,-68,-34,51,0,-51,39,283,248,190,239,170
-29,-68,-39,48,4,-53,39,292,253,195,244,175
-29,-68,-39,48,4,-53,39,302,258,200,248,180
-29,-68,-39,48,4,-53,39,312,263,204,253,185
-29,-68,-39,48,4,-53,39,322,268,209,258,190
-29,-68,-39,48,4,-53,39,331,273,214,263,195
-29,-58,-29,43,0,-43,48,336,283,234,273,200
-29,-58,-29,43,0,-43,48,341,292,244,283,204
-29,-58,-29,43,0,-43,48,346,302,253,292,209
-29,-58,-29,43,0,-43,48,351,312,263,302,214
-39,-43,-4,41,-17,-24,39,361,312,268,307,219
-39,-39,0,39,-19,-19,39,361,312,273,312,224
-39,-34,4,36,-21,-14,39,361,312,278,317,229
-39,-29,9,34,-24,-9,39,361,312,283,322,234
-29,-29,0,29,-14,-14,34,351,312,283,331,244
-29,-29,0,29,-14,-14,29,351,312,283,331,244
-29,-29,0,29,-14,-14,24,351,312,283,331,244
-29,-29,0,29,-14,-14,19,351,312,283,331,244
-19,-29,-9,24,-4,-19,4,346,307,273,322,244
-19,-29,-9,24,-4,-19,0,341,302,273,322,244
-19,-29,-9,24,-4,-19,-4,336,297,273,322,244
-19,-29,-9,24,-4,-19,-9,331,292,273,322,244
-9,-19,-9,14,0,-14,-14,322,278,263,312,234
-9,-19,-9,14,0,-14,-19,312,273,263,312,234
-9,-19,-9,14,0,-14,-24,302,268,263,312,234
-9,-19,-9,14,0,-14,-29,292,263,263,312,234
-19,-24,-4,21,-7,-14,-34,268,244,244,297,224
-19,-29,-9,24,-4,-19,-39,253,234,234,292,224
-19,-34,-14,26,-2,-24,-43,239,224,224,287,224
-19,-39,-19,29,0,-29,-48,224,214,214,283,224
-29,-48,-19,39,-4,-34,-58,195,190,195,268,214
-29,-58,-29,43,0,-43,-58,175,175,175,253,204
-29,-68,-39,48,4,-53,-58,156,161,156,239,195
-29,-78,-48,53,9,-63,-58,136,146,136,224,185
-34,-82,-48,58,7,-65,-48,117,126,122,204,175
-39,-87,-48,63,4,-68,-48,97,117,107,195,165
-43,-92,-48,68,2,-70,-48,78,107,92,185,156
-48,-97,-48,73,0,-73,-48,58,97,78,175,146
-53,-102,-48,78,-2,-75,-43,43,78,63,165,141
-58,-107,-48,82,-4,-78,-39,29,68,48,156,136
-63,-112,-48,87,-7,-80,-34,14,58,34,146,131
-68,-117,-48,92,-9,-82,-29,0,48,19,136,126
-58,-122,-63,90,2,-92,-24,-14,39,0,126,117
-58,-126,-68,92,4,-97,-19,-19,29,-9,117,107
-58,-131,-73,95,7,-102,-14,-24,19,-19,107,97
-58,-136,-78,97,9,-107,-9,-29,9,-29,97,87
-63,-146,-82,104,9,-114,-9,-43,4,-43,82,78
-68,-146,-78,107,4,-112,-9,-48,0,-48,78,78
-73,-146,-73,109,0,-109,-9,-53,-4,-53,73,78
-78,-146,-68,112,-4,-107,-9,-58,-9,-58,68,78
-82,-156,-73,119,-4,-114,0,-63,-19,-63,53,73
-87,-156,-68,122,-9,-112,0,-68,-19,-68,48,68
-92,-156,-63,124,-14,-109,0,-73,-19,-73,43,63
-97,-156,-58,126,-19,-107,0,-78,-19,-78,39,58
-97,-156,-58,126,-19,-107,9,-78,-19,-87,29,48
-97,-156,-58,126,-19,-107,9,-78,-19,-87,29,48
-97,-156,-58,126,-19,-107,9,-78,-19,-87,29,48
-97,-156,-58,126,-19,-107,9,-78,-19,-87,29,48
-97,-146,-48,122,-24,-97,9,-87,-19,-87,29,48
-97,-146,-48,122,-24,-97,9,-87,-19,-87,29,48
-97,-146,-48,122,-24,-97,9,-87,-19,-87,29,48
-97,-146,-48,122,-24,-97,9,-87,-19,-87,29,48
-97,-136,-39,117,-29,-87,9,-78,-19,-87,29,48
-97,-136,-39,117,-29,-87,9,-78,-19,-87,29,48
-97,-136,-39,117,-29,-87,9,-78,-19,-87,29,48
-97,-136,-39,117,-29,-87,9,-78,-19,-87,29,48
-97,-126,-29,112,-34,-78,14,-68,-9,-78,39,58
-97,-126,-29,112,-34,-78,19,-68,-9,-78,39,58
-97,-126,-29,112,-34,-78,24,-68,-9,-78,39,58
-97,-126,-29,112,-34,-78,29,-68,-9,-78,39,58
-107,-117,-9,112,-48,-63,19,-68,-9,-78,39,58
-107,-117,-9,112,-48,-63,19,-68,-9,-78,39,58
-107,-117,-9,112,-48,-63,19,-68,-9,-78,39,58
-107,-117,-9,112,-48,-63,19,-68,-9,-78,39,58
-102,-126,-24,114,-39,-75,14,-68,-9,-78,48,68
-97,-126,-29,112,-34,-78,9,-68,-9,-78,48,68
-92,-126,-34,109,-29,-80,4,-68,-9,-78,48,68
-87,-126,-39,107,-24,-82,0,-68,-9,-78,48,68
-87,-117,-29,102,-29,-73,9,-58,0,-78,48,58
-87,-117,-29,102,-29,-73,9,-58,0,-78,48,58
-87,-117,-29,102,-29,-73,9,-58,0,-78,48,58
-87,-117,-29,102,-29,-73,9,-58,0,-78,48,58
-87,-126,-39,107,-24,-82,19,-58,-9,-78,39,58
-87,-126,-39,107,-24,-82,19,-58,-9,-78,39,58
-87,-126,-39,107,-24,-82,19,-58,-9,-78,39,58
-87,-126,-39,107,-24,-82,19,-58,-9,-78,39,58
-92,-117,-24,104,-34,-70,19,-58,0,-68,48,58
-97,-117,-19,107,-39,-68,19,-58,0,-68,48,58
-102,-117,-14,109,-43,-65,19,-58,0,-68,48,58
-107,-117,-9,112,-48,-63,19,-58,0,-68,48,58
-107,-122,-14,114,-46,-68,24,-48,0,-68,39,58
-107,-126,-19,117,-43,-73,29,-48,0,-68,39,58
-107,-131,-24,119,-41,-78,34,-48,0,-68,39,58
-107,-136,-29,122,-39,-82,39,-48,0,-68,39,58
-97,-126,-29,112,-34,-78,39,-48,0,-68,43,58
-97,-126,-29,112,-34,-78,39,-48,0,-68,48,58
-107,-126,-19,117,-43,-73,39,-48,0,-68,48,58
-107,-126,-19,117,-43,-73,39,-48,0,-63,53,58
-97,-112,-14,104,-41,-63,34,-53,14,-63,43,58
-92,-112,-19,102,-36,-65,29,-53,14,-63,43,58
-87,-122,-34,104,-26,-78,24,-53,14,-63,48,63
-78,-126,-48,102,-14,-87,9,-58,14,-68,48,63
-87,-112,-24,100,-31,-68,9,-48,9,-58,53,63
-92,-107,-14,100,-39,-61,9,-48,9,-58,53,63
-92,-97,-4,95,-43,-51,9,-48,9,-53,48,58
-92,-92,0,92,-46,-46,9,-48,9,-53,48,53
-78,-102,-24,90,-26,-63,4,-39,14,-53,58,63
-73,-102,-29,87,-21,-65,4,-39,14,-53,58,68
-68,-102,-34,85,-17,-68,4,-39,14,-58,58,68
-63,-102,-39,82,-12,-70,4,-39,9,-58,58,68
-53,-97,-43,75,-4,-70,4,-34,4,-53,68,68
-53,-97,-43,75,-4,-70,4,-34,9,-53,73,68
-53,-92,-39,73,-7,-65,4,-29,14,-48,73,68
-53,-92,-39,73,-7,-65,4,-24,19,-43,68,73
-48,-82,-34,65,-7,-58,14,-34,19,-39,68,73
-43,-78,-34,61,-4,-56,9,-34,24,-39,68,68
-39,-73,-34,56,-2,-53,4,-34,24,-39,68,63
-34,-68,-34,51,0,-51,4,-34,24,-34,68,63
-24,-68,-43,46,9,-56,9,-34,19,-39,68,78
-24,-73,-48,48,12,-61,9,-34,14,-43,68,78
-29,-78,-48,53,9,-63,9,-34,9,-48,68,78
-29,-78,-48,53,9,-63,9,-34,4,-58,68,78
-29,-68,-39,48,4,-53,14,-24,14,-53,73,68
-34,-73,-39,53,2,-56,19,-24,14,-48,73,68
-34,-73,-39,53,2,-56,24,-29,14,-48,68,63
-34,-73,-39,53,2,-56,24,-29,14,-53,73,58
-24,-63,-39,43,7,-51,34,-34,9,-53,63,58
-19,-63,-43,41,12,-53,34,-34,9,-53,63,63
-19,-63,-43,41,12,-53,34,-34,9,-53,63,63
-24,-68,-43,46,9,-56,29,-34,9,-53,63,53
-19,-58,-39,39,9,-48,29,-34,-4,-58,53,53
-9,-58,-48,34,19,-53,34,-39,-4,-58,53,53
4,-58,-63,26,34,-61,34,-39,-4,-63,53,53
14,-58,-73,21,43,-65,34,-39,-4,-68,58,58
4,-43,-48,19,26,-46,39,-34,0,-63,68,68
4,-43,-48,19,26,-46,39,-29,4,-63,68,68
9,-48,-58,19,34,-53,39,-24,4,-58,68,68
9,-48,-58,19,34,-53,43,-19,9,-53,68,68
4,-48,-53,21,29,-51,58,-9,19,-43,68,58
4,-48,-53,21,29,-51,58,-9,19,-43,68,58
4,-48,-53,21,29,-51,63,-9,19,-43,68,58
4,-48,-53,21,29,-51,68,-14,19,-43,63,58
4,-39,-43,17,24,-41,78,-14,19,-53,63,68
4,-39,-43,17,24,-41,78,-14,19,-53,63,68
4,-39,-43,17,24,-41,78,-14,19,-53,63,63
0,-39,-39,19,19,-39,82,-9,19,-53,63,63
0,-34,-34,17,17,-34,73,-19,19,-43,73,63
0,-29,-29,14,14,-29,73,-19,14,-43,73,63
4,-24,-29,9,17,-26,73,-19,14,-43,73,63
4,-19,-24,7,14,-21,73,-19,14,-43,73,63
-9,-9,0,9,-4,-4,82,-9,29,-34,82,68
-14,-19,-4,17,-4,-12,87,-9,29,-34,82,73
-14,-19,-4,17,-4,-12,87,-9,29,-34,82,78
-9,-14,-4,12,-2,-9,87,-14,24,-39,78,78
-9,-14,-4,12,-2,-9,87,-14,34,-29,87,78
-9,-14,-4,12,-2,-9,87,-9,39,-24,87,82
-9,-14,-4,12,-2,-9,87,-9,39,-24,92,82
-4,-9,-4,7,0,-7,87,-14,39,-24,92,82
-9,-14,-4,12,-2,-9,87,-4,34,-34,73,78
-19,-19,0,19,-9,-9,87,-4,29,-39,68,73
-24,-24,0,24,-12,-12,87,-4,24,-39,68,68
-29,-29,0,29,-14,-14,87,-4,19,-43,63,63
-14,-29,-14,21,0,-21,82,-14,9,-43,58,63
-9,-29,-19,19,4,-24,73,-14,9,-48,53,58
-4,-29,-24,17,9,-26,68,-14,9,-48,53,58
0,-29,-29,14,14,-29,63,-14,9,-48,53,63
-14,-39,-24,26,4,-31,73,-9,19,-43,63,73
-19,-39,-19,29,0,-29,78,-9,19,-43,68,73
-24,-43,-19,34,-2,-31,78,-4,19,-43,68,73
-29,-43,-14,36,-7,-29,78,-4,19,-43,68,73
-19,-43,-24,31,2,-34,78,-14,9,-53,68,63
-19,-43,-24,31,2,-34,78,-14,9,-53,63,63
-19,-43,-24,31,2,-34,78,-14,9,-53,58,63
-19,-39,-19,29,0,-29,78,-9,9,-53,53,63
-14,-39,-24,26,4,-31,78,-19,9,-63,53,53
-9,-39,-29,24,9,-34,73,-19,9,-63,53,53
-4,-39,-34,21,14,-36,73,-24,9,-63,53,53
0,-39,-39,19,19,-39,73,-24,9,-63,53,53
-9,-39,-29,24,9,-34,87,-9,9,-43,63,63
-24,-43,-19,34,-2,-31,87,-9,19,-34,63,63
-48,-48,0,48,-24,-24,97,9,39,-24,82,82
-43,-53,-9,48,-17,-31,97,14,29,-24,73,73
-29,-53,-24,41,-2,-39,87,9,19,-43,53,58
-19,-53,-34,36,7,-43,87,14,29,-43,58,53
-9,-58,-48,34,19,-53,102,43,39,-29,58,53
-24,-58,-34,41,4,-46,117,63,53,-14,68,53
-29,-53,-24,41,-2,-39,112,92,92,29,97,73
19,-29,-48,4,34,-39,82,112,141,78,141,102
48,-4,-53,-21,51,-29,78,161,204,161,219,151
24,29,4,-26,9,17,97,234,297,278,322,224
39,82,43,-61,-2,63,78,317,375,375,405,287
92,151,58,-122,17,104,58,424,478,502,517,366
136,239,102,-187,17,170,58,600,644,697,707,512
200,341,141,-270,29,241,58,795,849,951,936,683
292,439,146,-366,73,292,24,941,1024,1190,1161,858
395,517,122,-456,136,319,-39,995,1107,1346,1322,995
473,605,131,-539,170,368,-112,1005,1151,1468,1468,1127
546,697,151,-622,197,424,-161,1039,1244,1629,1664,1302
668,771,102,-719,283,436,-244,1005,1254,1722,1786,1424
775,844,68,-810,353,456,-366,805,1107,1629,1761,1449
775,897,122,-836,326,509,-444,502,883,1444,1659,1439
683,897,214,-790,234,556,-473,209,610,1132,1439,1346
580,819,239,-700,170,529,-448,-58,312,732,1083,1122
409,775,366,-592,21,570,-361,-331,87,380,746,907
209,775,566,-492,-178,671,-268,-600,-48,141,531,766
63,771,707,-417,-322,739,-190,-795,-161,-43,356,649
-19,746,766,-363,-392,756,-131,-936,-268,-200,204,527
-87,722,810,-317,-448,766,-92,-1015,-341,-307,102,429
-136,712,849,-287,-492,780,-58,-1000,-341,-326,58,366
-146,697,844,-275,-495,771,-24,-902,-302,-297,48,322
-122,658,780,-268,-451,719,-39,-780,-268,-273,48,302
-112,570,683,-229,-397,627,-73,-683,-258,-248,39,268
-97,478,575,-190,-336,527,-117,-600,-248,-234,39,244
-82,395,478,-156,-280,436,-117,-502,-200,-195,58,229
-58,317,375,-129,-217,346,-78,-380,-141,-151,63,204
-34,239,273,-102,-153,256,-58,-302,-107,-126,53,156
-19,190,209,-85,-114,200,-48,-234,-82,-107,63,136
4,156,151,-80,-73,153,-29,-180,-48,-78,73,131
14,131,117,-73,-51,124,4,-146,-29,-63,78,122
9,117,107,-63,-48,112,24,-102,0,-48,82,136
0,102,102,-51,-51,102,29,-92,4,-48,82,126
0,63,63,-31,-31,63,43,-68,9,-58,68,107
9,29,19,-19,-4,24,63,-34,34,-39,78,92
29,4,-24,-17,26,-9,73,-14,48,-24,73,87
39,4,-34,-21,36,-14,58,-4,48,-14,73,82
24,14,-9,-19,17,2,68,4,58,-9,82,82
24,14,-9,-19,17,2,78,9,48,-19,73,92
24,14,-9,-19,17,2,87,9,48,-19,73,87
24,14,-9,-19,17,2,87,14,48,-19,73,87
24,4,-19,-14,21,-7,92,14,48,-19,73,87
34,4,-29,-19,31,-12,82,14,43,-29,63,73
29,4,-24,-17,26,-9,92,24,53,-14,68,73
29,0,-29,-14,29,-14,92,29,53,-14,68,73
29,0,-29,-14,29,-14,92,29,53,-14,68,73
34,-9,-43,-12,39,-26,82,24,53,-24,78,73
39,-4,-43,-17,41,-24,82,24,48,-24,73,73
43,-4,-48,-19,46,-26,82,24,48,-24,73,73
43,-9,-53,-17,48,-31,82,34,48,-24,78,73
29,-9,-39,-9,34,-24,102,43,53,-19,82,73
24,-4,-29,-9,26,-17,102,48,63,-14,82,73
19,-4,-24,-7,21,-14,102,53,68,-9,78,68
14,0,-14,-7,14,-7,102,58,73,-4,78,68
19,4,-14,-12,17,-4,102,68,78,9,82,82
24,9,-14,-17,19,-2,102,68,82,9,87,82
29,19,-9,-24,19,4,102,68,82,9,87,82
34,24,-9,-29,21,7,102,68,82,9,87,87
39,19,-19,-29,29,0,107,78,82,24,92,102
43,19,-24,-31,34,-2,107,78,87,24,102,102
48,19,-29,-34,39,-4,107,82,87,24,107,97
53,19,-34,-36,43,-7,107,87,87,24,112,97
43,24,-19,-34,31,2,107,92,78,24,102,87
43,24,-19,-34,31,2,107,92,78,24,102,87
43,24,-19,-34,31,2,107,92,82,29,107,87
43,24,-19,-34,31,2,107,92,82,29,112,87
53,14,-39,-34,46,-12,107,102,82,24,102,92
53,24,-29,-39,41,-2,112,102,82,24,102,92
53,24,-29,-39,41,-2,112,107,82,24,102,97
58,29,-29,-43,43,0,112,107,87,24,107,97
63,39,-24,-51,43,7,102,107,97,34,117,107
68,48,-19,-58,43,14,102,112,97,39,117,107
73,48,-24,-61,48,12,107,112,97,43,122,107
78,43,-34,-61,56,4,107,117,102,53,126,107
82,53,-29,-68,56,12,107,117,102,43,117,107
87,53,-34,-70,61,9,112,122,107,48,117,107
92,53,-39,-73,65,7,112,126,107,48,117,112
97,48,-48,-73,73,0,117,126,107,48,122,112
102,58,-43,-80,73,7,107,136,107,63,122,122
102,63,-39,-82,70,12,107,141,117,68,126,122
102,68,-34,-85,68,17,107,141,117,73,126,126
102,68,-34,-85,68,17,107,146,117,78,136,131
122,82,-39,-102,80,21,107,136,122,78,136,122
112,82,-29,-97,70,26,102,136,122,78,136,122
112,78,-34,-95,73,21,102,146,122,78,136,122
112,78,-34,-95,73,21,107,146,122,78,136,122
102,78,-24,-90,63,26,117,146,122,73,136,122
107,78,-29,-92,68,24,122,146,122,73,136,122
107,78,-29,-92,68,24,122,146,131,73,141,126
107,78,-29,-92,68,24,117,141,136,73,146,126
107,78,-29,-92,68,24,126,151,146,82,156,141
107,78,-29,-92,68,24,126,156,146,92,161,141
112,78,-34,-95,73,21,126,161,151,97,165,146
117,82,-34,-100,75,24,126,170,156,107,170,146
126,82,-43,-104,85,19,117,161,146,102,165,136
126,82,-43,-104,85,19,117,161,151,102,165,136
126,78,-48,-102,87,14,117,175,151,107,170,141
126,78,-48,-102,87,14,117,180,156,122,165,141
136,82,-53,-109,95,14,112,180,156,122,165,131
141,82,-58,-112,100,12,107,175,156,117,165,136
141,82,-58,-112,100,12,102,180,151,112,170,141
141,82,-58,-112,100,12,97,190,151,117,175,146
136,97,-39,-117,87,29,97,200,165,117,175,136
141,97,-43,-119,92,26,97,204,165,122,175,141
141,97,-43,-119,92,26,97,209,170,131,175,141
141,97,-43,-119,92,26,97,219,175,141,185,141
146,102,-43,-124,95,29,97,229,195,151,200,151
151,112,-39,-131,95,36,97,234,200,161,204,161
156,117,-39,-136,97,39,97,248,209,170,209,165
161,122,-39,-141,100,41,97,253,214,180,219,170
170,117,-53,-143,112,31,102,268,214,180,219,170
170,112,-58,-141,114,26,107,278,214,190,219,175
180,112,-68,-146,124,21,112,283,219,200,229,175
180,107,-73,-143,126,17,117,287,224,204,234,175
175,97,-78,-136,126,9,126,297,224,224,248,190
175,97,-78,-136,126,9,126,297,234,229,248,190
170,97,-73,-134,122,12,131,312,239,229,253,200
165,102,-63,-134,114,19,136,322,244,229,263,200
175,102,-73,-139,124,14,126,331,239,239,263,200
185,102,-82,-143,134,9,122,336,244,244,263,200
185,102,-82,-143,134,9,122,356,253,258,273,204
185,102,-82,-143,134,9,122,370,263,263,278,209
175,97,-78,-136,126,9,126,375,273,283,287,214
180,97,-82,-139,131,7,126,385,283,297,297,219
180,102,-78,-141,129,12,122,390,292,312,312,224
180,102,-78,-141,129,12,122,400,302,322,322,239
185,112,-73,-148,129,19,107,405,302,322,317,244
190,117,-73,-153,131,21,97,405,302,322,322,248
195,126,-68,-161,131,29,92,405,297,317,326,248
209,131,-78,-170,143,26,87,405,287,312,331,248
209,131,-78,-170,143,26,87,405,297,322,336,263
209,126,-82,-168,146,21,82,405,292,322,341,263
209,122,-87,-165,148,17,82,405,292,322,346,263
209,117,-92,-163,151,12,82,400,287,317,346,263
224,126,-97,-175,161,14,73,390,273,317,346,258
234,126,-107,-180,170,9,68,385,273,317,346,263
239,131,-107,-185,173,12,63,380,263,317,346,263
248,136,-112,-192,180,12,43,370,258,317,341,263
248,141,-107,-195,178,17,43,356,253,302,336,253
239,141,-97,-190,168,21,43,351,248,297,331,253
239,146,-92,-192,165,26,34,346,234,287,326,253
244,146,-97,-195,170,24,34,331,224,273,322,253
239,141,-97,-190,168,21,34,307,219,268,326,263
234,136,-97,-185,165,19,34,292,204,263,326,263
234,131,-102,-183,168,14,24,273,200,258,312,258
229,126,-102,-178,165,12,24,248,190,248,312,258
229,131,-97,-180,163,17,14,214,170,224,297,253
224,131,-92,-178,158,19,14,195,161,219,287,239
219,136,-82,-178,151,26,19,180,156,209,273,234
214,141,-73,-178,143,34,19,161,141,185,258,219
200,136,-63,-168,131,36,24,136,107,165,234,204
195,136,-58,-165,126,39,29,122,97,146,219,195
190,131,-58,-161,124,36,39,112,97,131,209,185
185,126,-58,-156,122,34,43,97,87,122,190,170
195,117,-78,-156,136,19,43,97,68,102,175,165
195,112,-82,-153,139,14,43,82,58,92,165,151
195,107,-87,-151,141,9,43,78,53,73,156,151
185,107,-78,-146,131,14,43,63,43,63,151,146
180,107,-73,-143,126,17,48,63,39,58,151,136
180,102,-78,-141,129,12,53,58,34,53,151,136
180,102,-78,-141,129,12,53,53,29,43,136,131
180,97,-82,-139,131,7,53,43,19,29,131,122
185,107,-78,-146,131,14,53,29,9,14,117,112
180,112,-68,-146,124,21,58,19,9,14,112,107
175,112,-63,-143,119,24,58,14,9,14,107,107
170,102,-68,-136,119,17,68,9,4,4,102,107
161,107,-53,-134,107,26,68,4,0,0,92,117
161,107,-53,-134,107,26,68,4,0,0,92,117
165,112,-53,-139,109,29,68,0,-4,0,87,112
165,117,-48,-141,107,34,68,-4,-9,-14,87,107
165,102,-63,-134,114,19,68,-9,-14,-14,82,92
161,92,-68,-126,114,12,73,-9,-14,-14,78,87
151,87,-63,-119,107,12,73,-9,-14,-19,73,87
141,78,-63,-109,102,7,73,-9,-14,-19,73,87
151,68,-82,-109,117,-7,63,-14,-24,-24,68,73
156,68,-87,-112,122,-9,63,-24,-24,-29,63,73
156,68,-87,-112,122,-9,63,-34,-24,-34,58,73
156,63,-92,-109,124,-14,63,-39,-29,-39,53,68
146,78,-68,-112,107,4,53,-48,-34,-48,58,78
141,82,-58,-112,100,12,53,-48,-43,-53,58,78
136,82,-53,-109,95,14,53,-48,-43,-53,58,73
126,87,-39,-107,82,24,58,-53,-43,-53,53,73
117,68,-48,-92,82,9,58,-43,-39,-63,48,68
122,63,-58,-92,90,2,58,-43,-43,-63,43,68
122,63,-58,-92,90,2,58,-39,-48,-58,39,68
122,58,-63,-90,92,-2,58,-39,-53,-58,34,63
112,53,-58,-82,85,-2,63,-48,-43,-48,43,63
112,53,-58,-82,85,-2,63,-48,-39,-53,43,63
112,53,-58,-82,85,-2,63,-48,-39,-53,43,63
112,53,-58,-82,85,-2,63,-48,-34,-48,43,63
107,58,-48,-82,78,4,73,-39,-34,-48,39,63
107,63,-43,-85,75,9,73,-39,-34,-48,39,68
107,68,-39,-87,73,14,78,-39,-34,-48,43,68
107,68,-39,-87,73,14,82,-34,-34,-43,43,63
97,58,-39,-78,68,9,87,-34,-39,-53,34,63
87,48,-39,-68,63,4,87,-39,-34,-53,34,63
87,39,-48,-63,68,-4,87,-39,-34,-53,34,63
97,29,-68,-63,82,-19,82,-34,-34,-53,34,63
68,39,-29,-53,48,4,92,-29,-19,-34,43,73
82,48,-34,-65,58,7,82,-48,-29,-43,34,63
107,58,-48,-82,78,4,78,-58,-48,-58,19,48
92,53,-39,-73,65,7,87,-48,-58,-68,19,48
87,48,-39,-68,63,4,87,-48,-58,-68,19,48
82,43,-39,-63,61,2,87,-48,-58,-68,19,48
78,39,-39,-58,58,0,87,-48,-58,-68,19,48
78,24,-53,-51,65,-14,97,-43,-48,-68,14,48
78,19,-58,-48,68,-19,97,-39,-48,-63,14,48
82,19,-63,-51,73,-21,97,-39,-43,-63,14,48
82,14,-68,-48,75,-26,97,-34,-43,-63,14,48
73,19,-53,-46,63,-17,107,-29,-34,-58,29,53
78,19,-58,-48,68,-19,97,-29,-34,-58,29,53
78,24,-53,-51,65,-14,97,-24,-39,-53,24,53
73,29,-43,-51,58,-7,97,-19,-39,-48,24,53
78,43,-34,-61,56,4,87,-19,-39,-53,29,48
82,43,-39,-63,61,2,87,-19,-39,-53,29,43
87,43,-43,-65,65,0,92,-19,-34,-53,29,43
92,43,-48,-68,70,-2,92,-19,-34,-53,29,48
78,34,-43,-56,61,-4,97,-19,-29,-53,29,48
73,34,-39,-53,56,-2,102,-19,-29,-48,29,48
78,29,-48,-53,63,-9,107,-19,-34,-43,29,48
73,29,-43,-51,58,-7,112,-24,-29,-43,34,48
68,39,-29,-53,48,4,112,-24,-19,-34,34,48
63,43,-19,-53,41,12,112,-24,-19,-34,29,53
58,53,-4,-56,31,24,112,-24,-19,-39,29,53
53,58,4,-56,24,31,107,-24,-14,-39,29,48
58,68,9,-63,24,39,102,-24,-24,-39,39,53
63,68,4,-65,29,36,102,-24,-24,-34,39,53
68,68,0,-68,34,34,107,-24,-24,-34,39,58
73,63,-9,-68,41,26,107,-24,-24,-34,39,58
82,48,-34,-65,58,7,102,-24,-34,-43,29,58
87,48,-39,-68,63,4,97,-24,-34,-48,29,58
92,48,-43,-70,68,2,92,-24,-34,-48,29,58
92,43,-48,-68,70,-2,87,-24,-34,-48,24,58
92,34,-58,-63,75,-12,87,-19,-24,-48,19,53
92,34,-58,-63,75,-12,82,-19,-24,-53,24,48
92,34,-58,-63,75,-12,82,-24,-29,-48,29,48
97,34,-63,-65,80,-14,82,-24,-29,-43,34,53
87,34,-53,-61,70,-9,73,-34,-39,-53,29,53
82,29,-53,-56,68,-12,68,-34,-39,-53,24,43
78,29,-48,-53,63,-9,68,-34,-43,-53,19,43
78,29,-48,-53,63,-9,73,-39,-43,-48,14,43
82,29,-53,-56,68,-12,63,-39,-53,-58,4,34
82,29,-53,-56,68,-12,63,-39,-53,-58,9,39
82,34,-48,-58,65,-7,58,-39,-53,-58,9,39
82,34,-48,-58,65,-7,58,-39,-53,-63,9,39
78,19,-58,-48,68,-19,58,-39,-48,-63,19,39
78,19,-58,-48,68,-19,63,-39,-48,-63,19,39
73,19,-53,-46,63,-17,63,-39,-48,-63,19,39
73,19,-53,-46,63,-17,58,-39,-48,-63,19,39
82,14,-68,-48,75,-26,48,-48,-53,-68,14,29
82,9,-73,-46,78,-31,48,-53,-58,-73,4,29
82,4,-78,-43,80,-36,48,-53,-63,-78,0,29
82,0,-82,-41,82,-41,48,-53,-68,-82,-4,29
78,9,-68,-43,73,-29,58,-53,-68,-92,-14,24
68,9,-58,-39,63,-24,63,-48,-68,-92,-14,24
63,9,-53,-36,58,-21,63,-48,-68,-92,-14,24
58,9,-48,-34,53,-19,63,-48,-73,-92,-14,24
63,4,-58,-34,61,-26,73,-39,-63,-87,-9,29
63,0,-63,-31,63,-31,73,-39,-63,-82,-4,34
58,-4,-63,-26,61,-34,73,-39,-58,-78,0,39
53,-19,-73,-17,63,-46,78,-39,-58,-73,4,43
34,-29,-63,-2,48,-46,78,-48,-68,-82,-4,39
29,-24,-53,-2,41,-39,78,-53,-73,-87,-9,29
19,-24,-43,2,31,-34,78,-53,-73,-87,-9,24
9,-24,-34,7,21,-29,78,-48,-68,-82,-9,24
14,-34,-48,9,31,-41,73,-53,-82,-87,-19,19
24,-29,-53,2,39,-41,68,-63,-87,-92,-24,14
29,-29,-58,0,43,-43,63,-68,-92,-102,-34,9
29,-29,-58,0,43,-43,58,-73,-97,-107,-39,4
19,-43,-63,12,41,-53,58,-82,-107,-107,-34,-4
19,-48,-68,14,43,-58,58,-82,-107,-112,-34,-4
19,-53,-73,17,46,-63,58,-82,-107,-117,-39,-4
19,-58,-78,19,48,-68,53,-82,-107,-126,-43,-9
9,-68,-78,29,43,-73,63,-82,-102,-112,-39,-4
9,-68,-78,29,43,-73,63,-82,-97,-107,-34,4
9,-68,-78,29,43,-73,63,-87,-92,-97,-29,9
9,-68,-78,29,43,-73,68,-87,-87,-92,-19,14
0,-73,-73,36,36,-73,68,-82,-92,-97,-24,9
0,-73,-73,36,36,-73,68,-82,-97,-102,-29,4
0,-73,-73,36,36,-73,68,-82,-102,-107,-29,0
0,-73,-73,36,36,-73,68,-82,-107,-112,-34,-4
-4,-78,-73,41,34,-75,78,-82,-112,-126,-48,-9
-9,-78,-68,43,29,-73,78,-78,-117,-131,-53,-14
-14,-82,-68,48,26,-75,78,-78,-122,-136,-58,-19
-19,-87,-68,53,24,-78,73,-78,-126,-141,-63,-24
-9,-78,-68,43,29,-73,68,-87,-126,-131,-53,-19
0,-78,-78,39,39,-78,63,-92,-126,-131,-53,-14
9,-78,-87,34,48,-82,63,-92,-126,-131,-53,-9
14,-82,-97,34,56,-90,58,-97,-126,-131,-53,-4
19,-87,-107,34,63,-97,68,-87,-117,-122,-53,-14
4,-82,-87,39,46,-85,78,-73,-117,-131,-53,-14
-29,-73,-43,51,7,-58,87,-78,-107,-122,-53,-19
-39,-82,-43,61,2,-63,97,-53,-78,-92,-39,-14
-9,-78,-68,43,29,-73,102,-24,-48,-87,-29,-14
34,-78,-112,21,73,-95,87,-14,-53,-92,-48,-24
39,-53,-92,7,65,-73,92,4,-14,-48,-9,-4
39,-19,-58,-9,48,-39,102,43,53,39,73,53
39,-14,-53,-12,46,-34,107,92,107,122,151,112
34,-9,-43,-12,39,-26,117,146,161,200,224,165
48,24,-24,-36,36,0,117,219,239,297,307,219
82,92,9,-87,36,51,97,336,370,444,429,307
126,180,53,-153,36,117,97,483,536,639,610,444
180,273,92,-226,43,183,68,639,683,854,810,595
253,361,107,-307,73,234,24,795,868,1083,1034,761
336,448,112,-392,112,280,-19,878,1010,1307,1263,946
434,536,102,-485,165,319,-102,888,1063,1459,1439,1117
566,639,73,-602,246,356,-190,863,1117,1600,1615,1263
658,732,73,-695,292,402,-283,829,1146,1693,1737,1395
688,814,126,-751,280,470,-366,678,1058,1639,1742,1449
707,888,180,-797,263,534,-444,444,854,1473,1668,1459
692,907,214,-800,239,561,-483,161,580,1171,1459,1376
610,858,248,-734,180,553,-468,-117,283,771,1102,1151
468,805,336,-636,65,570,-400,-400,9,351,707,868
268,766,497,-517,-114,631,-326,-658,-185,43,414,678
102,751,649,-427,-273,700,-248,-824,-297,-141,239,570
29,736,707,-383,-339,722,-200,-946,-405,-297,87,448
-29,741,771,-356,-400,756,-161,-1034,-468,-405,-14,351
-117,741,858,-312,-488,800,-107,-1010,-448,-395,-19,326
-146,717,863,-285,-505,790,-73,-941,-409,-356,-19,302
-122,649,771,-263,-446,710,-87,-868,-395,-351,-39,253
-73,580,653,-253,-363,617,-122,-780,-356,-317,-39,209
-78,507,585,-214,-331,546,-146,-688,-317,-263,-19,204
-53,444,497,-195,-275,470,-156,-610,-307,-244,-9,190
19,346,326,-183,-153,336,-165,-517,-297,-248,-43,136
43,258,214,-151,-85,236,-156,-429,-263,-214,-43,87
19,219,200,-119,-90,209,-136,-341,-200,-146,-4,107
14,185,170,-100,-78,178,-117,-258,-136,-107,24,112
34,141,107,-87,-36,124,-112,-234,-156,-141,-19,63
39,117,78,-78,-19,97,-92,-239,-175,-175,-53,29
48,102,53,-75,-2,78,-58,-200,-131,-136,-34,48
48,53,4,-51,21,29,-34,-165,-97,-97,0,58
48,9,-39,-29,43,-14,-4,-141,-102,-107,-9,43
29,-14,-43,-7,36,-29,14,-131,-117,-122,-34,9
29,-24,-53,-2,41,-39,9,-122,-117,-122,-43,-4
43,-34,-78,-4,61,-56,0,-112,-107,-117,-43,-14
43,-34,-78,-4,61,-56,-9,-97,-97,-117,-43,-14
43,-34,-78,-4,61,-56,0,-97,-97,-117,-43,-19
43,-34,-78,-4,61,-56,0,-92,-97,-117,-43,-19
43,-43,-87,0,65,-65,4,-92,-97,-117,-43,-19
43,-58,-102,7,73,-80,-4,-82,-102,-117,-53,-34
39,-63,-102,12,70,-82,4,-73,-92,-102,-48,-34
39,-73,-112,17,75,-92,4,-68,-92,-102,-48,-34
39,-78,-117,19,78,-97,4,-68,-92,-102,-48,-34
39,-87,-126,24,82,-107,14,-73,-92,-112,-58,-43
39,-82,-122,21,80,-102,14,-73,-97,-112,-63,-43
39,-82,-122,21,80,-102,14,-73,-97,-112,-63,-43
34,-87,-122,26,78,-104,14,-63,-97,-112,-58,-43
34,-97,-131,31,82,-114,34,-58,-102,-122,-53,-34
34,-102,-136,34,85,-119,34,-58,-102,-122,-53,-34
34,-112,-146,39,90,-129,34,-58,-107,-122,-58,-39
34,-117,-151,41,92,-134,34,-58,-112,-122,-58,-39
34,-122,-156,43,95,-139,29,-58,-107,-107,-53,-43
34,-126,-161,46,97,-143,24,-58,-102,-107,-48,-43
34,-126,-161,46,97,-143,19,-58,-102,-107,-48,-43
34,-131,-165,48,100,-148,14,-58,-102,-107,-48,-39
34,-122,-156,43,95,-139,29,-58,-97,-102,-39,-34
34,-117,-151,41,92,-134,29,-58,-87,-102,-34,-34
34,-112,-146,39,90,-129,29,-53,-82,-102,-34,-39
34,-107,-141,36,87,-124,29,-48,-78,-102,-34,-39
34,-112,-146,39,90,-129,43,-34,-82,-102,-39,-43
34,-112,-146,39,90,-129,48,-34,-87,-102,-43,-48
34,-112,-146,39,90,-129,53,-34,-87,-97,-43,-53
34,-112,-146,39,90,-129,58,-34,-92,-97,-43,-58
29,-122,-151,46,90,-136,73,-24,-87,-82,-34,-48
24,-112,-136,43,80,-124,82,-24,-82,-82,-34,-43
19,-112,-131,46,75,-122,87,-19,-78,-82,-34,-34
19,-107,-126,43,73,-117,92,-19,-68,-82,-29,-29
29,-102,-131,36,80,-117,87,-19,-68,-68,-24,-19
29,-87,-117,29,73,-102,82,-14,-68,-68,-19,-19
29,-82,-112,26,70,-97,82,-14,-68,-68,-9,-19
29,-82,-112,26,70,-97,78,-9,-63,-63,0,-19
39,-92,-131,26,85,-112,87,0,-48,-58,0,-9
39,-92,-131,26,85,-112,92,4,-39,-48,0,-9
39,-92,-131,26,85,-112,92,9,-34,-43,0,-4
39,-97,-136,29,87,-117,97,9,-29,-39,4,-4
43,-82,-126,19,85,-104,97,9,-34,-39,-4,-14
43,-73,-117,14,80,-95,97,14,-29,-39,0,-14
43,-63,-107,9,75,-85,97,14,-34,-39,0,-9
43,-58,-102,7,73,-80,97,19,-39,-39,9,-4
63,-63,-126,0,95,-95,97,9,-24,-39,0,-14
53,-63,-117,4,85,-90,92,9,-24,-39,0,-14
53,-68,-122,7,87,-95,92,19,-24,-39,0,-14
53,-68,-122,7,87,-95,97,19,-24,-39,0,-14
63,-58,-122,-2,92,-90,87,34,-24,-24,9,-9
68,-58,-126,-4,97,-92,92,39,-24,-24,9,-4
68,-58,-126,-4,97,-92,92,43,-14,-24,14,4
68,-58,-126,-4,97,-92,87,43,-9,-24,19,9
78,-39,-117,-19,97,-78,82,53,4,-9,29,24
78,-29,-107,-24,92,-68,78,58,9,-4,34,24
82,-19,-102,-31,92,-61,73,63,19,-4,39,29
87,-4,-92,-41,90,-48,68,73,29,0,43,29
87,-4,-92,-41,90,-48,58,78,34,24,53,43
87,-4,-92,-41,90,-48,58,82,43,34,68,48
87,-9,-97,-39,92,-53,58,102,48,48,87,58
87,-9,-97,-39,92,-53,58,112,58,73,97,63
97,-14,-112,-41,104,-63,48,112,63,68,82,48
102,-14,-117,-43,109,-65,48,107,58,58,78,48
102,-14,-117,-43,109,-65,48,112,48,48,78,48
102,-14,-117,-43,109,-65,48,122,43,48,78,48
97,-14,-112,-41,104,-63,39,112,48,39,68,43
102,-19,-122,-41,112,-70,39,117,48,43,68,43
102,-24,-126,-39,114,-75,39,122,53,53,68,39
102,-29,-131,-36,117,-80,39,131,58,63,78,34
107,-29,-136,-39,122,-82,29,131,68,68,87,43
112,-24,-136,-43,124,-80,19,136,73,73,97,53
117,-24,-141,-46,129,-82,9,151,82,78,107,58
122,-24,-146,-48,134,-85,0,156,87,82,122,63
107,-34,-141,-36,124,-87,-9,165,87,92,126,63
102,-34,-136,-34,119,-85,-9,170,87,102,122,68
107,-29,-136,-39,122,-82,-9,170,92,112,126,68
102,-29,-131,-36,117,-80,-9,170,97,117,126,68
112,-39,-151,-36,131,-95,-19,180,97,117,141,73
117,-39,-156,-39,136,-97,-19,180,107,122,141,73
117,-39,-156,-39,136,-97,-14,195,112,122,146,82
117,-34,-151,-41,134,-92,-9,204,117,122,156,82
117,-43,-161,-36,139,-102,-14,209,112,136,165,82
126,-43,-170,-41,148,-107,-24,209,117,146,165,82
126,-43,-170,-41,148,-107,-29,224,126,165,175,87
126,-43,-170,-41,148,-107,-34,234,136,175,180,92
117,-34,-151,-41,134,-92,-39,224,126,165,180,92
122,-29,-151,-46,136,-90,-39,229,126,170,180,92
122,-19,-141,-51,131,-80,-43,229,126,175,185,92
122,-14,-136,-53,129,-75,-43,234,126,175,185,102
126,-19,-146,-53,136,-82,-48,248,141,185,195,112
131,-19,-151,-56,141,-85,-58,248,146,195,204,122
136,-14,-151,-61,143,-82,-63,248,146,200,214,126
151,-14,-165,-68,158,-90,-68,248,141,204,224,131
161,-19,-180,-70,170,-100,-68,239,141,195,219,131
161,-19,-180,-70,170,-100,-73,239,136,195,214,126
161,-19,-180,-70,170,-100,-73,239,136,195,209,122
161,-19,-180,-70,170,-100,-73,234,131,190,200,117
146,-19,-165,-63,156,-92,-73,239,117,190,204,131
146,-19,-165,-63,156,-92,-68,239,117,190,209,136
141,-14,-156,-63,148,-85,-63,239,107,190,214,136
141,-9,-151,-65,146,-80,-73,234,102,190,214,136
146,0,-146,-73,146,-73,-73,214,102,180,204,126
141,-4,-146,-68,143,-75,-73,204,102,180,204,126
146,-4,-151,-70,148,-78,-82,195,92,175,204,126
156,-9,-165,-73,161,-87,-82,175,87,165,204,126
146,0,-146,-73,146,-73,-78,141,68,151,195,126
146,0,-146,-73,146,-73,-73,126,48,136,190,126
151,0,-151,-75,151,-75,-78,107,39,122,170,122
151,0,-151,-75,151,-75,-73,82,24,102,165,122
141,4,-136,-73,139,-65,-82,63,4,78,151,112
136,4,-131,-70,134,-63,-82,48,-4,73,141,102
131,9,-122,-70,126,-56,-78,39,-9,63,126,102
126,14,-112,-70,119,-48,-78,24,-24,39,112,92
122,-4,-126,-58,124,-65,-58,19,-48,19,82,78
117,-9,-126,-53,122,-68,-48,4,-58,0,73,68
112,-19,-131,-46,122,-75,-34,-4,-58,-14,68,58
107,-29,-136,-39,122,-82,-24,-19,-68,-24,53,43
112,-14,-126,-48,119,-70,-14,-39,-68,-39,48,39
117,-14,-131,-51,124,-73,-14,-53,-78,-43,39,24
122,-14,-136,-53,129,-75,-14,-58,-82,-58,29,24
117,-9,-126,-53,122,-68,-14,-73,-92,-63,24,19
107,-9,-117,-48,112,-63,0,-78,-87,-78,4,4
102,-14,-117,-43,109,-65,14,-78,-92,-82,4,0
97,-14,-112,-41,104,-63,24,-78,-97,-92,-9,-9
92,-19,-112,-36,102,-65,34,-82,-107,-107,-14,-24
92,-9,-102,-41,97,-56,24,-92,-117,-112,-34,-34
92,-4,-97,-43,95,-51,29,-97,-117,-112,-34,-39
92,-4,-97,-43,95,-51,29,-97,-117,-112,-34,-39
92,-14,-107,-39,100,-61,39,-97,-122,-122,-34,-39
92,-19,-112,-36,102,-65,34,-102,-136,-136,-53,-29
92,-29,-122,-31,107,-75,29,-102,-136,-136,-53,-29
97,-34,-131,-31,114,-82,24,-107,-141,-136,-58,-34
97,-39,-136,-29,117,-87,19,-112,-146,-151,-58,-39
68,-39,-107,-14,87,-73,29,-117,-141,-151,-63,-43
92,-34,-126,-29,109,-80,24,-126,-131,-131,-48,-48
117,-39,-156,-39,136,-97,9,-136,-146,-156,-68,-58
117,-43,-161,-36,139,-102,9,-126,-146,-156,-68,-48
117,-48,-165,-34,141,-107,9,-126,-146,-156,-68,-48
117,-53,-170,-31,143,-112,9,-126,-146,-156,-68,-48
117,-58,-175,-29,146,-117,9,-126,-146,-156,-68,-48
97,-58,-156,-19,126,-107,9,-126,-146,-146,-63,-58
97,-58,-156,-19,126,-107,9,-126,-146,-141,-63,-58
102,-53,-156,-24,129,-104,9,-131,-141,-141,-63,-58
102,-53,-156,-24,129,-104,9,-131,-141,-141,-63,-58
112,-73,-185,-19,148,-129,0,-136,-151,-161,-78,-63
117,-78,-195,-19,156,-136,-9,-146,-161,-175,-87,-73
117,-78,-195,-19,156,-136,-9,-151,-175,-185,-102,-82
112,-78,-190,-17,151,-134,-9,-156,-185,-195,-112,-92
126,-87,-214,-19,170,-151,-9,-156,-195,-200,-126,-107
131,-92,-224,-19,178,-158,-9,-156,-195,-200,-126,-112
136,-97,-234,-19,185,-165,-4,-156,-190,-200,-126,-112
141,-102,-244,-19,192,-173,-4,-156,-190,-200,-126,-107
151,-102,-253,-24,202,-178,-9,-165,-180,-195,-126,-117
151,-102,-253,-24,202,-178,-14,-165,-185,-195,-126,-117
161,-107,-268,-26,214,-187,-19,-165,-195,-195,-126,-117
161,-107,-268,-26,214,-187,-24,-170,-195,-200,-122,-117
161,-102,-263,-29,212,-183,-34,-170,-185,-190,-117,-107
161,-102,-263,-29,212,-183,-34,-170,-185,-190,-117,-102
161,-97,-258,-31,209,-178,-34,-170,-185,-195,-112,-102
161,-97,-258,-31,209,-178,-39,-170,-180,-195,-107,-107
170,-97,-268,-36,219,-183,-53,-161,-190,-195,-112,-112
170,-97,-268,-36,219,-183,-53,-161,-190,-190,-117,-112
170,-97,-268,-36,219,-183,-48,-161,-190,-190,-122,-107
170,-102,-273,-34,222,-187,-48,-161,-190,-190,-126,-107
175,-102,-278,-36,226,-190,-48,-151,-175,-185,-122,-107
175,-97,-273,-39,224,-185,-48,-151,-170,-185,-117,-107
175,-92,-268,-41,222,-180,-48,-151,-165,-180,-112,-107
170,-92,-263,-39,217,-178,-48,-151,-161,-175,-112,-107
180,-97,-278,-41,229,-187,-63,-156,-170,-185,-126,-122
190,-102,-292,-43,241,-197,-73,-156,-180,-200,-131,-126
200,-107,-307,-46,253,-207,-78,-161,-195,-204,-136,-126
214,-112,-326,-51,270,-219,-82,-161,-204,-209,-141,-122
204,-107,-312,-48,258,-209,-82,-151,-195,-200,-131,-117
190,-107,-297,-41,244,-202,-87,-151,-185,-190,-122,-122
175,-102,-278,-36,226,-190,-87,-151,-180,-180,-112,-117
165,-97,-263,-34,214,-180,-82,-156,-170,-165,-102,-112
185,-87,-273,-48,229,-180,-82,-146,-170,-170,-112,-112
190,-87,-278,-51,234,-183,-82,-146,-170,-175,-107,-107
195,-82,-278,-56,236,-180,-87,-146,-170,-180,-107,-107
200,-82,-283,-58,241,-183,-87,-146,-170,-190,-107,-107
195,-92,-287,-51,241,-190,-78,-146,-170,-185,-97,-107
195,-97,-292,-48,244,-195,-73,-146,-165,-180,-97,-107
190,-102,-292,-43,241,-197,-73,-146,-161,-175,-97,-107
190,-107,-297,-41,244,-202,-78,-146,-156,-170,-97,-107
180,-92,-273,-43,226,-183,-73,-131,-156,-170,-107,-97
180,-87,-268,-46,224,-178,-68,-131,-156,-170,-112,-97
180,-82,-263,-48,222,-173,-63,-126,-156,-170,-112,-97
180,-78,-258,-51,219,-168,-58,-122,-156,-170,-112,-97
180,-78,-258,-51,219,-168,-48,-122,-156,-180,-122,-112
175,-78,-253,-48,214,-165,-43,-117,-156,-180,-122,-112
175,-78,-253,-48,214,-165,-43,-117,-156,-180,-122,-112
175,-78,-253,-48,214,-165,-43,-117,-161,-180,-122,-112
190,-78,-268,-56,229,-173,-48,-122,-161,-170,-117,-107
190,-78,-268,-56,229,-173,-53,-126,-161,-170,-112,-102
185,-78,-263,-53,224,-170,-58,-131,-156,-170,-107,-97
180,-87,-268,-46,224,-178,-58,-136,-156,-170,-102,-92
180,-82,-263,-48,222,-173,-58,-126,-146,-170,-102,-92
185,-73,-258,-56,222,-165,-58,-131,-151,-175,-107,-97
185,-68,-253,-58,219,-161,-58,-131,-151,-175,-107,-97
185,-63,-248,-61,217,-156,-58,-126,-146,-170,-107,-92
175,-73,-248,-51,212,-161,-48,-136,-146,-161,-102,-92
180,-68,-248,-56,214,-158,-48,-141,-146,-161,-102,-92
180,-68,-248,-56,214,-158,-48,-141,-146,-165,-107,-92
175,-68,-244,-53,209,-156,-48,-141,-146,-165,-107,-92
185,-58,-244,-63,214,-151,-48,-131,-136,-170,-92,-92
185,-58,-244,-63,214,-151,-48,-131,-136,-170,-92,-92
185,-58,-244,-63,214,-151,-48,-131,-136,-170,-97,-92
185,-58,-244,-63,214,-151,-53,-131,-136,-175,-102,-97
165,-63,-229,-51,197,-146,-43,-126,-146,-180,-107,-107
156,-68,-224,-43,190,-146,-34,-122,-146,-185,-112,-102
146,-73,-219,-36,183,-146,-24,-122,-146,-185,-117,-102
136,-78,-214,-29,175,-146,-9,-117,-146,-190,-117,-102
122,-87,-209,-17,165,-148,0,-122,-141,-175,-102,-97
117,-92,-209,-12,163,-151,0,-122,-136,-170,-97,-92
112,-97,-209,-7,161,-153,0,-122,-131,-165,-87,-87
107,-102,-209,-2,158,-156,0,-122,-126,-161,-82,-82
117,-92,-209,-12,163,-151,-9,-112,-136,-170,-97,-92
117,-87,-204,-14,161,-146,-9,-107,-136,-170,-102,-92
117,-87,-204,-14,161,-146,-9,-107,-136,-170,-107,-92
117,-87,-204,-14,161,-146,-14,-107,-136,-170,-112,-92
117,-87,-204,-14,161,-146,-24,-117,-136,-180,-112,-102
117,-87,-204,-14,161,-146,-24,-122,-136,-180,-112,-102
117,-87,-204,-14,161,-146,-19,-122,-136,-180,-112,-102
112,-92,-204,-9,158,-148,-19,-126,-136,-180,-112,-102
126,-87,-214,-19,170,-151,-9,-117,-126,-170,-112,-112
82,-92,-175,4,129,-134,9,-92,-107,-151,-92,-92
58,-102,-161,21,109,-131,29,-78,-97,-141,-82,-78
78,-122,-200,21,139,-161,29,-73,-107,-161,-107,-102
78,-136,-214,29,146,-175,34,-53,-97,-156,-107,-112
92,-136,-229,21,161,-183,39,-34,-63,-122,-87,-112
78,-141,-219,31,148,-180,43,-14,-14,-78,-48,-82
9,-136,-146,63,78,-141,73,34,34,-19,14,-34
29,-112,-141,41,85,-126,58,53,68,34,53,-4
92,-68,-161,-12,126,-114,29,78,112,102,126,39
117,-14,-131,-51,124,-73,19,151,219,229,229,131
122,53,-68,-87,95,-7,19,268,351,385,370,229
136,141,4,-139,65,73,19,414,517,590,551,366
180,224,43,-202,68,134,29,590,722,834,790,536
234,312,78,-273,78,195,4,746,917,1093,1024,712
326,409,82,-368,122,246,-39,839,1049,1298,1224,878
453,507,53,-480,200,280,-131,849,1112,1449,1410,1029
566,600,34,-583,265,317,-219,834,1146,1581,1595,1205
600,692,92,-646,253,392,-273,790,1156,1664,1717,1356
610,766,156,-688,226,461,-336,658,1088,1639,1751,1429
639,839,200,-739,219,519,-424,434,932,1503,1678,1429
624,868,244,-746,190,556,-473,200,678,1239,1488,1337
512,810,297,-661,107,553,-429,-48,380,839,1132,1112
312,736,424,-524,-56,580,-341,-331,107,390,697,819
151,717,566,-434,-207,641,-268,-580,-97,43,366,600
43,712,668,-378,-312,690,-209,-766,-258,-180,170,473
-39,697,736,-329,-387,717,-170,-897,-385,-356,0,351
-107,702,810,-297,-458,756,-131,-1005,-458,-463,-92,253
-165,722,888,-278,-527,805,-87,-1000,-429,-444,-97,229
-204,697,902,-246,-553,800,-43,-941,-380,-405,-87,204
-170,619,790,-224,-480,705,-39,-868,-375,-409,-126,146
-151,561,712,-204,-431,636,-43,-780,-336,-385,-126,122
-185,507,692,-161,-439,600,-68,-668,-268,-302,-68,136
-122,424,546,-151,-334,485,-126,-600,-268,-273,-68,112
-9,326,336,-158,-173,331,-175,-527,-268,-278,-92,58
4,248,244,-126,-119,246,-146,-419,-224,-244,-82,39
-9,200,209,-95,-109,204,-136,-341,-161,-204,-73,39
53,185,131,-119,-39,158,-136,-297,-126,-175,-53,34
63,151,87,-107,-12,119,-131,-253,-97,-141,-39,24
39,107,68,-73,-14,87,-112,-219,-87,-146,-43,9
68,63,-4,-65,36,29,-97,-200,-82,-156,-63,-9
97,43,-53,-70,75,-4,-92,-195,-87,-156,-78,-29
107,19,-87,-63,97,-34,-92,-190,-82,-146,-78,-34
78,-4,-82,-36,80,-43,-82,-161,-78,-141,-73,-29
58,-24,-82,-17,70,-53,-68,-141,-78,-151,-82,-43
63,-34,-97,-14,80,-65,-78,-131,-78,-156,-92,-63
63,-34,-97,-14,80,-65,-68,-126,-68,-146,-92,-63
63,-34,-97,-14,80,-65,-58,-126,-68,-146,-92,-68
63,-34,-97,-14,80,-65,-58,-122,-68,-146,-92,-68
63,-43,-107,-9,85,-75,-53,-122,-68,-146,-92,-68
82,-48,-131,-17,107,-90,-63,-122,-68,-156,-92,-63
87,-43,-131,-21,109,-87,-53,-112,-63,-141,-87,-63
97,-43,-141,-26,119,-92,-53,-107,-68,-141,-87,-63
107,-39,-146,-34,126,-92,-53,-107,-73,-141,-87,-63
117,-34,-151,-41,134,-92,-43,-92,-48,-131,-78,-58
117,-24,-141,-46,129,-82,-34,-82,-39,-122,-73,-53
117,-19,-136,-48,126,-78,-24,-73,-24,-112,-63,-48
112,-19,-131,-46,122,-75,-14,-53,-9,-102,-48,-43
126,-19,-146,-53,136,-82,0,-48,-14,-112,-48,-53
131,-14,-146,-58,139,-80,4,-48,-14,-112,-53,-53
136,-14,-151,-61,143,-82,9,-48,-19,-112,-63,-58
141,-9,-151,-65,146,-80,14,-48,-24,-112,-68,-58
141,-4,-146,-68,143,-75,19,-29,-14,-97,-58,-43
141,0,-141,-70,141,-70,24,-29,-4,-97,-48,-43
141,9,-131,-75,136,-61,29,-29,0,-97,-43,-43
141,14,-126,-78,134,-56,34,-29,4,-97,-39,-39
146,29,-117,-87,131,-43,39,-19,14,-78,-34,-24
151,29,-122,-90,136,-46,39,-19,19,-73,-24,-24
156,29,-126,-92,141,-48,39,-14,19,-68,-19,-29
161,29,-131,-95,146,-51,39,-9,19,-63,-14,-29
170,29,-141,-100,156,-56,43,4,29,-73,-14,-19
170,34,-136,-102,153,-51,48,4,29,-73,-14,-19
170,39,-131,-104,151,-46,53,4,34,-68,-9,-19
170,43,-126,-107,148,-41,58,4,34,-68,-4,-19
161,29,-131,-95,146,-51,63,9,43,-53,4,-14
161,34,-126,-97,143,-46,73,14,43,-53,4,-14
161,29,-131,-95,146,-51,78,24,43,-53,4,-9
165,29,-136,-97,151,-53,82,29,48,-53,9,-9
165,29,-136,-97,151,-53,92,39,53,-43,19,0
165,39,-126,-102,146,-43,92,43,58,-39,19,0
165,39,-126,-102,146,-43,97,43,63,-34,24,0
165,34,-131,-100,148,-48,97,48,73,-24,29,0
175,39,-136,-107,156,-48,97,48,73,-24,19,0
175,43,-131,-109,153,-43,102,53,78,-19,19,0
175,48,-126,-112,151,-39,102,58,78,-19,19,4
175,48,-126,-112,151,-39,107,58,78,-19,24,4
180,48,-131,-114,156,-41,117,68,78,-14,34,4
180,53,-126,-117,153,-36,117,73,87,-9,39,4
180,58,-122,-119,151,-31,117,73,87,-4,39,9
180,58,-122,-119,151,-31,117,78,87,0,48,14
190,73,-117,-131,153,-21,117,87,102,0,48,24
180,73,-107,-126,143,-17,112,87,102,0,48,24
180,68,-112,-124,146,-21,112,97,102,0,48,24
180,68,-112,-124,146,-21,117,97,102,0,48,24
170,73,-97,-122,134,-12,107,102,112,9,58,34
175,78,-97,-126,136,-9,112,107,112,14,58,34
175,82,-92,-129,134,-4,112,112,122,19,63,39
175,87,-87,-131,131,0,107,112,126,24,68,39
185,102,-82,-143,134,9,97,122,131,43,87,53
185,107,-78,-146,131,14,97,126,136,53,92,53
190,112,-78,-151,134,17,97,131,146,58,97,58
195,122,-73,-158,134,24,97,141,156,68,102,58
204,131,-73,-168,139,29,97,151,156,63,102,68
204,131,-73,-168,139,29,97,151,161,63,107,68
204,126,-78,-165,141,24,97,165,161,68,117,73
204,126,-78,-165,141,24,97,170,165,82,117,73
200,126,-73,-163,136,26,97,165,185,87,117,63
200,122,-78,-161,139,21,97,165,185,87,117,68
195,117,-78,-156,136,19,97,175,180,87,122,73
190,112,-78,-151,134,17,97,190,180,97,126,78
200,126,-73,-163,136,26,82,180,195,107,136,78
209,126,-82,-168,146,21,78,185,195,112,136,82
214,126,-87,-170,151,19,73,190,200,122,136,82
219,126,-92,-173,156,17,68,200,204,131,146,82
204,117,-87,-161,146,14,58,209,214,126,151,97
200,122,-78,-161,139,21,58,214,219,131,156,102
195,122,-73,-158,134,24,58,229,229,136,161,102
190,122,-68,-156,129,26,58,234,234,141,170,102
200,112,-87,-156,143,12,48,239,244,151,180,112
200,112,-87,-156,143,12,48,248,244,161,180,117
209,117,-92,-163,151,12,48,253,248,170,190,117
209,117,-92,-163,151,12,48,258,253,175,195,117
214,126,-87,-170,151,19,48,258,263,195,200,131
214,126,-87,-170,151,19,48,258,273,200,200,131
209,126,-82,-168,146,21,53,273,278,200,204,141
204,131,-73,-168,139,29,58,283,283,200,214,141
204,126,-78,-165,141,24,58,297,278,209,219,141
214,122,-92,-168,153,14,53,297,283,214,224,141
214,117,-97,-165,156,9,53,312,292,229,239,146
214,112,-102,-163,158,4,53,322,302,234,248,151
204,117,-87,-161,146,14,43,312,302,234,239,151
209,117,-92,-163,151,12,39,317,302,239,239,151
209,122,-87,-165,148,17,29,317,302,244,244,151
209,122,-87,-165,148,17,24,322,302,244,244,161
219,122,-97,-170,158,12,14,317,302,239,239,156
219,117,-102,-168,161,7,0,317,302,244,244,161
219,117,-102,-168,161,7,-9,317,297,244,248,161
229,112,-117,-170,173,-2,-19,317,287,244,253,161
229,112,-117,-170,173,-2,-19,307,278,239,244,156
229,107,-122,-168,175,-7,-24,307,273,234,244,156
229,102,-126,-165,178,-12,-24,307,273,229,244,156
229,97,-131,-163,180,-17,-24,302,268,219,239,156
224,87,-136,-156,180,-24,-19,292,253,219,239,161
224,87,-136,-156,180,-24,-19,287,253,219,239,165
219,92,-126,-156,173,-17,-19,283,244,219,239,165
219,97,-122,-158,170,-12,-34,273,239,219,234,165
209,102,-107,-156,158,-2,-24,253,229,204,224,156
200,102,-97,-151,148,2,-24,244,229,200,224,156
200,107,-92,-153,146,7,-34,234,219,190,224,156
204,107,-97,-156,151,4,-34,214,214,175,224,156
204,107,-97,-156,151,4,-24,185,195,161,214,146
204,107,-97,-156,151,4,-24,165,175,146,209,146
209,107,-102,-158,156,2,-34,141,165,131,190,141
209,107,-102,-158,156,2,-34,112,151,112,185,141
195,117,-78,-156,136,19,-29,92,141,87,170,131
185,112,-73,-148,129,19,-24,78,131,82,161,122
175,112,-63,-143,119,24,-14,68,126,73,146,122
165,112,-53,-139,109,29,-9,53,112,48,131,112
161,97,-63,-129,112,17,-4,48,78,24,107,97
156,97,-58,-126,107,19,0,34,68,9,92,87
151,92,-58,-122,104,17,9,24,68,0,82,78
146,87,-58,-117,102,14,14,9,58,-4,63,63
136,87,-48,-112,92,19,19,4,53,-9,68,68
136,82,-53,-109,95,14,24,-4,48,-14,58,53
136,78,-58,-107,97,9,29,-4,48,-29,48,53
126,78,-48,-102,87,14,34,-14,43,-34,43,48
126,82,-43,-104,85,19,48,-9,43,-34,39,43
131,82,-48,-107,90,17,53,-9,43,-34,43,48
136,87,-48,-112,92,19,53,-9,43,-39,34,48
141,87,-53,-114,97,17,53,-14,39,-48,34,43
136,97,-39,-117,87,29,53,-24,48,-48,29,43
131,102,-29,-117,80,36,58,-29,48,-43,34,39
126,102,-24,-114,75,39,58,-29,48,-39,39,39
122,92,-29,-107,75,31,68,-29,43,-43,43,39
131,102,-29,-117,80,36,58,-34,39,-58,24,29
131,97,-34,-114,82,31,58,-34,39,-58,24,29
136,97,-39,-117,87,29,58,-39,34,-58,19,24
136,97,-39,-117,87,29,58,-43,29,-73,19,19
146,107,-39,-126,92,34,48,-48,24,-63,19,19
141,102,-39,-122,90,31,53,-48,24,-63,19,19
131,102,-29,-117,80,36,53,-48,24,-68,19,24
122,97,-24,-109,73,36,53,-48,24,-68,24,29
131,102,-29,-117,80,36,43,-43,29,-58,34,29
136,107,-29,-122,82,39,43,-43,34,-58,34,34
136,112,-24,-124,80,43,43,-43,39,-58,34,39
136,112,-24,-124,80,43,43,-39,39,-58,34,39
141,112,-29,-126,85,41,53,-48,34,-58,19,29
141,112,-29,-126,85,41,53,-48,24,-63,19,29
141,107,-34,-124,87,36,53,-48,24,-63,19,24
136,107,-29,-122,82,39,58,-53,24,-63,14,24
122,102,-19,-112,70,41,58,-43,43,-53,19,29
122,102,-19,-112,70,41,58,-43,43,-53,24,29
117,107,-9,-112,63,48,58,-39,43,-48,29,29
112,107,-4,-109,58,51,58,-39,43,-48,34,24
122,102,-19,-112,70,41,53,-39,48,-48,34,34
122,102,-19,-112,70,41,53,-39,48,-53,34,34
122,102,-19,-112,70,41,53,-39,43,-53,34,34
122,102,-19,-112,70,41,53,-39,43,-48,34,34
117,102,-14,-109,65,43,63,-39,53,-48,39,24
117,102,-14,-109,65,43,63,-39,53,-48,39,29
117,102,-14,-109,65,43,68,-39,53,-48,43,29
117,97,-19,-107,68,39,73,-34,53,-43,43,24
107,87,-19,-97,63,34,78,-24,48,-43,34,24
97,87,-9,-92,53,39,78,-29,53,-43,34,24
97,87,-9,-92,53,39,78,-29,53,-43,34,24
107,87,-19,-97,63,34,73,-24,53,-43,34,24
102,87,-14,-95,58,36,73,-19,68,-39,43,34
92,87,-4,-90,48,41,73,-19,68,-34,43,34
87,87,0,-87,43,43,73,-24,68,-29,43,34
78,87,9,-82,34,48,73,-24,73,-24,43,34
78,78,0,-78,39,39,63,-34,73,-34,43,34
82,78,-4,-80,43,36,63,-34,68,-39,43,34
87,78,-9,-82,48,34,63,-34,58,-39,43,34
92,78,-14,-85,53,31,63,-34,53,-39,43,34
92,78,-14,-85,53,31,63,-39,68,-24,43,34
87,73,-14,-80,51,29,68,-29,68,-24,43,34
82,73,-9,-78,46,31,68,-24,68,-24,53,34
78,78,0,-78,39,39,68,-24,73,-19,53,39
82,78,-4,-80,43,36,63,-24,68,-29,43,29
87,78,-9,-82,48,34,58,-24,63,-29,43,24
102,82,-19,-92,61,31,53,-24,58,-29,43,24
112,82,-29,-97,70,26,48,-19,53,-29,43,24
63,78,14,-70,24,46,48,-24,63,-9,63,48
78,87,9,-82,34,48,48,-19,78,0,68,48
82,78,-4,-80,43,36,39,-29,63,-14,63,43
87,78,-9,-82,48,34,39,-29,58,-19,58,39
92,78,-14,-85,53,31,39,-29,53,-24,53,34
97,78,-19,-87,58,29,39,-29,48,-29,48,29
78,78,0,-78,39,39,39,-19,48,-29,43,39
78,78,0,-78,39,39,39,-19,48,-24,43,39
82,82,0,-82,41,41,39,-24,53,-24,43,39
82,82,0,-82,41,41,39,-24,53,-24,43,39
92,78,-14,-85,53,31,48,-34,53,-14,48,43
97,78,-19,-87,58,29,39,-39,53,-19,48,43
97,82,-14,-90,56,34,39,-39,48,-19,43,43
92,87,-4,-90,48,41,39,-39,48,-19,43,43
82,102,19,-92,31,61,39,-29,58,-14,43,48
82,102,19,-92,31,61,39,-29,58,-14,48,43
82,102,19,-92,31,61,43,-29,63,-14,53,43
82,102,19,-92,31,61,43,-29,63,-14,58,48
87,97,9,-92,39,53,34,-39,58,-24,53,39
92,92,0,-92,46,46,34,-39,48,-29,48,39
107,82,-24,-95,65,29,34,-39,34,-34,43,39
112,78,-34,-95,73,21,34,-43,29,-43,43,39
102,82,-19,-92,61,31,43,-43,39,-34,43,39
102,82,-19,-92,61,31,43,-43,39,-34,39,43
102,87,-14,-95,58,36,43,-43,39,-39,39,43
102,87,-14,-95,58,36,39,-43,43,-39,39,39
112,97,-14,-104,63,41,43,-43,53,-39,48,39
112,107,-4,-109,58,51,43,-43,53,-34,48,43
112,117,4,-114,53,61,48,-43,53,-34,48,53
112,122,9,-117,51,65,48,-43,53,-34,48,58
117,107,-9,-112,63,48,53,-34,43,-24,48,48
117,107,-9,-112,63,48,58,-34,43,-29,48,48
117,107,-9,-112,63,48,63,-34,43,-29,48,48
112,102,-9,-107,61,46,68,-34,43,-29,43,48
112,102,-9,-107,61,46,68,-29,43,-24,43,43
112,102,-9,-107,61,46,63,-29,43,-34,43,39
112,102,-9,-107,61,46,63,-34,39,-34,43,39
117,102,-14,-109,65,43,63,-34,39,-34,43,43
117,112,-4,-114,61,53,58,-43,39,-43,43,53
112,107,-4,-109,58,51,48,-43,39,-43,43,43
107,107,0,-107,53,53,43,-43,34,-43,43,43
107,107,0,-107,53,53,43,-48,34,-39,43,43
102,97,-4,-100,53,46,53,-48,34,-48,34,34
102,97,-4,-100,53,46,53,-48,34,-48,39,39
102,102,0,-102,51,51,48,-48,34,-48,39,39
102,102,0,-102,51,51,48,-48,34,-53,39,39
107,92,-14,-100,61,39,58,-48,29,-53,29,34
107,87,-19,-97,63,34,63,-48,29,-53,29,29
102,82,-19,-92,61,31,63,-48,29,-53,29,24
102,78,-24,-90,63,26,58,-48,29,-53,29,19
92,68,-24,-80,58,21,68,-43,29,-53,29,19
92,68,-24,-80,58,21,68,-43,29,-53,24,19
92,68,-24,-80,58,21,68,-39,29,-53,24,19
92,68,-24,-80,58,21,68,-34,29,-53,24,19
92,58,-34,-75,63,12,58,-43,29,-53,24,24
87,58,-29,-73,58,14,63,-39,29,-53,24,24
87,58,-29,-73,58,14,63,-39,29,-53,24,24
87,58,-29,-73,58,14,63,-39,24,-53,24,24
82,58,-24,-70,53,17,63,-39,24,-53,14,14
82,58,-24,-70,53,17,63,-39,24,-53,14,14
78,58,-19,-68,48,19,63,-39,29,-53,14,14
73,48,-24,-61,48,12,68,-39,29,-53,14,14
63,48,-14,-56,39,17,68,-39,29,-43,24,24
68,53,-14,-61,41,19,68,-43,24,-48,19,19
68,53,-14,-61,41,19,68,-43,24,-48,19,19
68,53,-14,-61,41,19,68,-39,29,-43,19,24
73,63,-9,-68,41,26,63,-48,24,-48,19,14
82,68,-14,-75,48,26,58,-53,19,-53,14,14
87,68,-19,-78,53,24,53,-53,14,-63,4,14
87,68,-19,-78,53,24,48,-53,9,-68,0,14
78,58,-19,-68,48,19,58,-43,9,-63,14,14
78,58,-19,-68,48,19,58,-43,9,-63,14,14
78,58,-19,-68,48,19,58,-43,9,-63,9,14
78,58,-19,-68,48,19,53,-43,9,-68,4,9
78,68,-9,-73,43,29,53,-43,19,-58,14,19
78,68,-9,-73,43,29,53,-43,19,-58,14,24
78,68,-9,-73,43,29,53,-48,19,-53,14,24
78,68,-9,-73,43,29,58,-48,19,-53,19,24
82,73,-9,-78,46,31,48,-43,19,-53,29,34
87,82,-4,-85,46,39,48,-43,19,-53,29,34
92,92,0,-92,46,46,48,-43,19,-53,34,34
97,102,4,-100,46,53,48,-43,19,-53,34,34
87,97,9,-92,39,53,48,-53,19,-43,34,34
87,97,9,-92,39,53,48,-48,19,-43,34,34
87,92,4,-90,41,48,48,-48,19,-43,34,34
87,87,0,-87,43,43,43,-48,19,-43,34,34
92,87,-4,-90,48,41,34,-53,9,-48,24,24
97,87,-9,-92,53,39,34,-53,9,-53,24,24
102,87,-14,-95,58,36,39,-48,9,-58,24,24
102,82,-19,-92,61,31,39,-48,9,-63,24,24
87,87,0,-87,43,43,48,-48,9,-63,24,24
102,92,-9,-97,56,41,58,-43,19,-53,34,34
107,92,-14,-100,61,39,58,-39,9,-53,24,29
97,82,-14,-90,56,34,68,-24,19,-43,29,24
97,87,-9,-92,53,39,82,-14,39,-39,29,14
102,87,-14,-95,58,36,87,14,73,-34,29,14
126,102,-24,-114,75,39,102,43,102,0,58,34
146,126,-19,-136,82,53,92,82,141,58,102,63
156,151,-4,-153,80,73,68,122,204,141,170,102
170,175,4,-173,82,90,78,175,278,239,253,165
175,209,34,-192,70,122,87,248,356,336,346,239
180,268,87,-224,46,178,97,366,478,473,468,326
234,346,112,-290,61,229,87,522,634,658,639,444
317,448,131,-383,92,290,58,688,819,883,839,595
400,556,156,-478,122,356,43,854,1015,1132,1073,771
414,644,229,-529,92,436,9,966,1166,1356,1293,946
463,722,258,-592,102,490,-43,995,1239,1517,1459,1088
605,814,209,-710,197,512,-112,1000,1293,1659,1615,1224
736,907,170,-822,283,539,-195,995,1332,1781,1776,1366
785,971,185,-878,300,578,-287,883,1263,1786,1820,1459
805,1024,219,-915,292,622,-375,619,1058,1620,1756,1468
780,1044,263,-912,258,653,-444,326,775,1346,1576,1395
717,1005,287,-861,214,646,-439,78,507,995,1278,1220
585,971,385,-778,100,678,-361,-185,263,595,922,995
395,961,566,-678,-85,763,-287,-492,48,268,619,795
248,956,707,-602,-229,832,-229,-766,-122,24,395,649
146,932,785,-539,-319,858,-161,-936,-258,-161,234,536
48,878,829,-463,-390,854,-112,-1044,-361,-297,102,429
-19,829,849,-405,-434,839,-68,-1068,-400,-356,29,356
-48,805,854,-378,-451,829,-34,-980,-370,-356,9,302
-24,775,800,-375,-412,788,-48,-839,-307,-312,19,283
14,717,702,-366,-344,710,-92,-722,-268,-268,29,258
29,634,605,-331,-287,619,-136,-629,-248,-244,19,224
24,551,527,-287,-251,539,-136,-531,-209,-195,29,200
39,473,434,-256,-197,453,-107,-419,-141,-151,43,185
63,395,331,-229,-134,363,-78,-331,-97,-117,53,146
78,326,248,-202,-85,287,-48,-253,-63,-87,53,126
82,283,200,-183,-58,241,-29,-190,-29,-68,63,122
102,258,156,-180,-26,207,-14,-156,-19,-73,58,102
107,224,117,-165,-4,170,4,-122,9,-58,53,97
107,200,92,-153,7,146,29,-92,14,-48,53,87
117,170,53,-143,31,112,43,-78,19,-48,39,58
117,146,29,-131,43,87,63,-63,34,-39,39,43
107,131,24,-119,41,78,82,-34,48,-34,34,39
97,112,14,-104,41,63,78,-24,39,-34,34,34
102,102,0,-102,51,51,87,-14,48,-29,43,34
102,92,-9,-97,56,41,87,-9,58,-29,43,34
102,92,-9,-97,56,41,97,-9,58,-29,43,29
102,92,-9,-97,56,41,97,-4,58,-29,43,29
102,82,-19,-92,61,31,102,-4,58,-29,43,29
102,82,-19,-92,61,31,92,14,68,-24,43,34
97,82,-14,-90,56,34,102,24,82,-4,48,34
97,78,-19,-87,58,29,102,29,87,0,48,34
97,78,-19,-87,58,29,102,29,92,4,48,34
97,68,-29,-82,63,19,97,24,92,-4,58,34
97,73,-24,-85,61,24,92,24,87,-4,53,34
97,73,-24,-85,61,24,87,24,87,-4,53,34
92,68,-24,-80,58,21,82,34,87,-4,58,34
92,73,-19,-82,56,26,92,29,78,-4,63,34
92,73,-19,-82,56,26,92,29,82,-4,63,34
92,68,-24,-80,58,21,92,29,82,-4,58,29
92,68,-24,-80,58,21,92,29,82,-4,58,29
82,58,-24,-70,53,17,82,34,82,4,58,24
82,58,-24,-70,53,17,82,29,82,0,58,24
82,63,-19,-73,51,21,82,24,78,-4,53,24
82,63,-19,-73,51,21,82,19,73,-9,48,29
73,68,-4,-70,39,31,78,19,73,4,48,34
73,68,-4,-70,39,31,78,19,78,4,53,34
73,68,-4,-70,39,31,78,24,78,4,53,29
73,68,-4,-70,39,31,78,29,78,4,53,29
82,53,-29,-68,56,12,68,34,78,4,53,39
82,53,-29,-68,56,12,68,34,78,4,53,39
82,53,-29,-68,56,12,68,34,82,9,58,39
82,53,-29,-68,56,12,68,34,82,9,63,39
92,53,-39,-73,65,7,58,34,82,4,53,43
92,63,-29,-78,61,17,63,34,82,4,53,43
92,63,-29,-78,61,17,63,39,82,4,53,48
97,68,-29,-82,63,19,63,39,87,4,58,48
87,58,-29,-73,58,14,63,39,87,19,58,48
87,68,-19,-78,53,24,63,43,87,19,58,48
87,68,-19,-78,53,24,68,43,87,19,63,48
87,63,-24,-75,56,19,68,48,92,24,68,48
87,68,-19,-78,53,24,68,48,102,24,78,48
87,73,-14,-80,51,29,73,53,107,29,78,48
87,78,-9,-82,48,34,73,58,107,29,78,53
87,78,-9,-82,48,34,78,58,107,29,82,53
102,87,-14,-95,58,36,78,58,107,34,73,53
102,92,-9,-97,56,41,78,63,117,39,78,53
102,97,-4,-100,53,46,78,63,117,43,78,58
102,97,-4,-100,53,46,78,68,117,48,87,63
112,102,-9,-107,61,46,87,68,122,48,87,63
102,102,0,-102,51,51,82,68,122,48,87,63
102,97,-4,-100,53,46,82,78,122,48,87,63
102,97,-4,-100,53,46,87,78,122,48,87,63
102,107,4,-104,48,56,87,82,131,53,87,63
107,107,0,-107,53,53,92,87,131,53,87,63
107,107,0,-107,53,53,92,92,141,53,92,68
107,107,0,-107,53,53,87,92,146,53,97,68
112,117,4,-114,53,61,92,97,156,63,112,82
117,117,0,-117,58,58,97,107,156,73,112,82
126,117,-9,-122,68,53,102,117,161,78,112,87
136,122,-14,-129,75,53,107,131,165,87,112,87
126,122,-4,-124,65,58,107,131,156,87,102,78
126,122,-4,-124,65,58,107,131,161,82,107,78
126,117,-9,-122,68,53,107,146,161,82,117,82
126,117,-9,-122,68,53,107,151,165,92,117,82
126,131,4,-129,61,68,117,165,185,107,122,82
131,131,0,-131,65,65,117,165,185,107,126,87
131,131,0,-131,65,65,117,175,180,107,136,92
131,131,0,-131,65,65,117,190,180,117,146,97
126,131,4,-129,61,68,126,190,190,126,146,97
131,126,-4,-129,68,61,126,195,195,131,146,102
131,122,-9,-126,70,56,126,200,204,141,146,102
131,117,-14,-124,73,51,126,209,214,151,156,102
141,117,-24,-129,82,46,126,219,219,151,151,97
141,122,-19,-131,80,51,126,224,219,151,156,102
141,122,-19,-131,80,51,126,239,224,151,161,102
141,122,-19,-131,80,51,126,244,224,151,170,102
151,122,-29,-136,90,46,126,263,239,170,180,122
151,122,-29,-136,90,46,126,278,244,180,180,126
161,126,-34,-143,97,46,126,287,253,190,190,126
161,126,-34,-143,97,46,126,297,263,195,195,126
175,126,-48,-151,112,39,122,297,268,195,200,122
175,126,-48,-151,112,39,117,297,273,200,200,122
170,126,-43,-148,107,41,117,312,273,200,204,131
165,131,-34,-148,100,48,117,322,273,200,214,131
165,122,-43,-143,104,39,107,326,268,209,214,141
175,122,-53,-148,114,34,102,326,273,214,214,141
175,122,-53,-148,114,34,102,341,283,229,224,146
175,122,-53,-148,114,34,102,351,292,234,229,151
165,122,-43,-143,104,39,87,341,287,229,219,141
170,117,-53,-143,112,31,87,346,283,229,219,141
170,117,-53,-143,112,31,82,346,278,229,224,141
170,112,-58,-141,114,26,82,351,273,224,224,151
180,117,-63,-148,122,26,87,356,287,239,239,156
180,117,-63,-148,122,26,78,356,292,244,244,161
180,122,-58,-151,119,31,73,356,292,244,248,161
190,122,-68,-156,129,26,68,356,287,244,253,161
200,136,-63,-168,131,36,58,356,287,244,244,165
200,136,-63,-168,131,36,53,356,283,244,244,165
200,136,-63,-168,131,36,53,356,283,244,244,165
200,136,-63,-168,131,36,53,351,278,239,239,165
200,136,-63,-168,131,36,43,341,263,239,248,170
204,136,-68,-170,136,34,39,336,263,239,248,175
204,141,-63,-173,134,39,34,331,253,239,248,175
209,146,-63,-178,136,41,14,322,248,239,244,175
219,156,-63,-187,141,46,14,297,244,234,234,175
209,151,-58,-180,134,46,14,292,239,229,234,175
209,151,-58,-180,134,46,4,287,224,219,234,175
214,146,-68,-180,141,39,4,273,214,204,234,175
204,146,-58,-175,131,43,0,248,209,204,229,175
204,146,-58,-175,131,43,-4,234,195,195,229,175
209,146,-63,-178,136,41,-19,214,190,185,214,170
209,146,-63,-178,136,41,-24,190,180,170,214,170
200,156,-43,-178,122,56,-34,156,165,146,204,161
195,151,-43,-173,119,53,-34,136,151,141,200,151
190,151,-39,-170,114,56,-29,122,141,131,190,151
185,151,-34,-168,109,58,-29,102,122,107,180,141
170,146,-24,-158,97,61,-29,82,107,102,170,141
165,146,-19,-156,92,63,-29,63,97,87,161,136
161,141,-19,-151,90,61,-24,48,97,78,156,131
156,136,-19,-146,87,58,-24,29,87,73,141,122
156,126,-29,-141,92,48,-19,29,78,58,136,117
156,122,-34,-139,95,43,-14,14,68,53,126,102
156,117,-39,-136,97,39,-9,9,63,39,117,102
146,117,-29,-131,87,43,-4,-4,53,34,112,97
141,122,-19,-131,80,51,0,-14,48,39,102,97
141,122,-19,-131,80,51,4,-19,43,34,102,97
141,126,-14,-134,78,56,4,-24,39,24,87,92
141,126,-14,-134,78,56,4,-34,29,9,82,82
126,117,-9,-122,68,53,-4,-34,29,4,73,73
122,122,0,-122,61,61,0,-39,29,4,73,68
117,122,4,-119,56,63,0,-39,29,4,73,68
112,112,0,-112,56,56,9,-39,24,-4,73,68
122,112,-9,-117,65,51,0,-53,9,-9,73,68
122,107,-14,-114,68,46,0,-53,9,-9,73,68
126,107,-19,-117,73,43,0,-58,4,-9,68,63
126,107,-19,-117,73,43,0,-63,0,-24,68,58
126,107,-19,-117,73,43,9,-63,0,-14,73,63
122,102,-19,-112,70,41,14,-58,4,-14,68,58
112,102,-9,-107,61,46,14,-53,9,-19,63,58
102,97,-4,-100,53,46,14,-48,14,-19,63,58
92,97,4,-95,43,51,24,-39,14,-9,63,63
97,97,0,-97,48,48,24,-43,14,-9,63,63
97,97,0,-97,48,48,24,-48,14,-9,63,63
97,92,-4,-95,51,43,24,-48,9,-9,63,58
102,97,-4,-100,53,46,34,-43,9,-14,63,63
102,102,0,-102,51,51,34,-39,4,-14,68,68
102,102,0,-102,51,51,34,-34,9,-9,73,68
97,107,9,-102,43,58,39,-34,14,-4,73,73
97,107,9,-102,43,58,39,-34,34,-4,82,87
102,112,9,-107,46,61,39,-34,34,-4,82,87
102,122,19,-112,41,70,39,-29,34,0,82,87
102,126,24,-114,39,75,39,-29,34,0,82,82
112,122,9,-117,51,65,34,-29,29,0,82,82
112,122,9,-117,51,65,34,-29,29,-4,82,82
112,122,9,-117,51,65,34,-29,24,-4,82,82
112,122,9,-117,51,65,34,-29,24,0,82,82
97,117,19,-107,39,68,24,-34,24,-9,68,78
97,112,14,-104,41,63,24,-39,24,-9,68,78
97,107,9,-102,43,58,29,-43,24,-9,73,73
97,97,0,-97,48,48,34,-43,24,-4,73,63
87,97,9,-92,39,53,39,-34,19,-14,73,63
78,97,19,-87,29,58,39,-39,24,-14,73,63
78,97,19,-87,29,58,39,-39,24,-14,73,63
87,97,9,-92,39,53,34,-34,24,-14,73,63
87,92,4,-90,41,48,39,-29,19,-14,73,73
82,87,4,-85,39,46,43,-29,19,-14,73,73
82,82,0,-82,41,41,48,-34,19,-14,73,73
78,78,0,-78,39,39,53,-34,24,-14,73,73
78,78,0,-78,39,39,43,-34,29,-4,63,68
82,78,-4,-80,43,36,43,-34,29,-9,63,63
87,78,-9,-82,48,34,43,-34,24,-9,63,58
92,78,-14,-85,53,31,43,-34,24,-9,63,53
78,87,9,-82,34,48,63,-19,39,4,82,63
87,82,-4,-85,46,39,68,-9,48,4,92,73
58,73,14,-65,21,43,68,-4,48,4,92,63
58,78,19,-68,19,48,58,-14,43,9,82,58
87,87,0,-87,43,43,48,-19,39,0,78,58
97,78,-19,-87,58,29,39,-19,29,-9,78,58
97,78,-19,-87,58,29,39,-19,29,-9,78,58
97,78,-19,-87,58,29,39,-19,29,-9,78,58
97,78,-19,-87,58,29,39,-19,29,-9,78,58
87,68,-19,-78,53,24,48,-9,29,-9,73,58
87,68,-19,-78,53,24,48,-9,29,-4,73,58
92,73,-19,-82,56,26,48,-14,34,-4,73,58
92,73,-19,-82,56,26,48,-14,34,-4,73,58
92,73,-19,-82,56,26,39,-14,34,-4,68,53
97,68,-29,-82,63,19,29,-19,34,-9,68,53
97,68,-29,-82,63,19,29,-19,29,-9,63,53
92,68,-24,-80,58,21,29,-19,29,-9,63,53
102,82,-19,-92,61,31,19,-24,19,-14,68,48
102,82,-19,-92,61,31,9,-29,19,-14,68,43
102,82,-19,-92,61,31,4,-34,24,-14,68,43
102,82,-19,-92,61,31,-4,-39,24,-14,68,48
92,92,0,-92,46,46,-9,-43,24,-9,58,48
92,92,0,-92,46,46,-14,-48,19,-9,58,48
102,87,-14,-95,58,36,-19,-53,9,-9,58,48
102,87,-14,-95,58,36,-24,-63,9,-14,63,48
102,82,-19,-92,61,31,-14,-53,9,-14,73,58
102,82,-19,-92,61,31,-14,-53,9,-14,68,63
102,87,-14,-95,58,36,-14,-53,9,-19,68,63
102,87,-14,-95,58,36,-19,-53,14,-19,68,58
112,92,-19,-102,65,36,-24,-63,14,-19,68,53
112,97,-14,-104,63,41,-24,-63,14,-14,68,53
112,102,-9,-107,61,46,-19,-63,14,-14,68,58
112,102,-9,-107,61,46,-19,-63,14,-14,68,58
117,107,-9,-112,63,48,-9,-63,14,-14,68,48
117,107,-9,-112,63,48,-9,-63,14,-19,68,48
117,107,-9,-112,63,48,-9,-63,14,-19,68,48
112,102,-9,-107,61,46,-9,-63,14,-19,63,48
112,102,-9,-107,61,46,-9,-58,4,-14,63,48
112,102,-9,-107,61,46,-14,-58,4,-24,63,48
112,102,-9,-107,61,46,-14,-63,0,-24,63,53
117,102,-14,-109,65,43,-14,-63,0,-24,63,63
126,112,-14,-119,70,48,-4,-53,4,-14,73,73
122,107,-14,-114,68,46,-9,-53,9,-14,73,63
117,107,-9,-112,63,48,-9,-53,9,-14,73,63
117,107,-9,-112,63,48,-4,-58,14,-9,73,63
112,107,-4,-109,58,51,-14,-58,14,-9,73,63
112,107,-4,-109,58,51,-14,-58,14,-9,78,68
112,112,0,-112,56,56,-19,-58,14,-9,78,68
112,112,0,-112,56,56,-19,-58,14,-14,78,68
126,97,-29,-112,78,34,-19,-68,0,-24,73,63
126,97,-29,-112,78,34,-14,-68,0,-24,68,58
122,97,-24,-109,73,36,-14,-68,0,-24,63,53
122,97,-24,-109,73,36,-19,-68,0,-24,58,48
117,92,-24,-104,70,34,-9,-68,0,-24,58,48
112,87,-24,-100,68,31,-9,-73,0,-24,53,48
107,82,-24,-95,65,29,-9,-73,0,-24,53,48
102,78,-24,-90,63,26,-9,-73,0,-24,53,48
107,68,-39,-87,73,14,-19,-78,-9,-29,43,34
107,68,-39,-87,73,14,-14,-78,-9,-34,43,34
112,68,-43,-90,78,12,-14,-82,-9,-39,43,34
117,68,-48,-92,82,9,-14,-87,-14,-43,43,34
117,68,-48,-92,82,9,-4,-87,-14,-43,43,34
112,68,-43,-90,78,12,-4,-87,-14,-43,43,34
102,68,-34,-85,68,17,-4,-87,-9,-43,43,34
92,58,-34,-75,63,12,0,-87,-9,-43,43,34
92,48,-43,-70,68,2,0,-87,-19,-53,43,24
97,53,-43,-75,70,4,0,-92,-24,-58,39,19
97,53,-43,-75,70,4,0,-92,-24,-58,39,19
97,53,-43,-75,70,4,0,-87,-19,-53,39,24
107,48,-58,-78,82,-4,0,-97,-24,-58,39,19
112,48,-63,-80,87,-7,0,-102,-29,-63,34,14
112,43,-68,-78,90,-12,0,-102,-34,-73,24,9
107,39,-68,-73,87,-14,0,-102,-39,-78,19,4
102,29,-73,-65,87,-21,9,-102,-29,-63,24,14
97,29,-68,-63,82,-19,9,-102,-29,-63,24,14
92,29,-63,-61,78,-17,9,-102,-29,-63,19,14
87,29,-58,-58,73,-14,4,-102,-29,-68,14,9
97,24,-73,-61,85,-24,4,-92,-39,-68,14,0
97,19,-78,-58,87,-29,4,-92,-39,-68,14,4
97,14,-82,-56,90,-34,4,-97,-39,-63,14,4
97,9,-87,-53,92,-39,9,-97,-39,-63,19,4
97,-4,-102,-46,100,-53,9,-92,-29,-73,9,-4
97,-4,-102,-46,100,-53,9,-92,-29,-73,9,-4
97,-4,-102,-46,100,-53,9,-92,-29,-73,14,-4
97,-4,-102,-46,100,-53,9,-92,-29,-73,14,-4
87,-9,-97,-39,92,-53,9,-102,-39,-82,4,-4
87,-9,-97,-39,92,-53,9,-97,-39,-82,4,-4
87,-14,-102,-36,95,-58,9,-97,-39,-82,4,-4
87,-19,-107,-34,97,-63,4,-97,-39,-82,4,-4
97,-9,-107,-43,102,-58,14,-92,-39,-82,4,-4
97,-9,-107,-43,102,-58,14,-92,-39,-82,4,-4
97,-9,-107,-43,102,-58,19,-87,-39,-82,4,-4
92,-14,-107,-39,100,-61,19,-87,-39,-82,4,-4
97,-19,-117,-39,107,-68,29,-78,-29,-82,14,-4
82,-24,-107,-29,95,-65,39,-73,-29,-82,4,-14
68,-24,-92,-21,80,-58,39,-78,-29,-82,4,-9
87,-34,-122,-26,104,-78,39,-63,-19,-82,-9,-24
107,-29,-136,-39,122,-82,43,-53,-9,-78,-9,-34
112,-19,-131,-46,122,-75,39,-34,4,-63,0,-24
97,-14,-112,-41,104,-63,43,-4,53,-9,39,4
107,19,-87,-63,97,-34,43,63,141,87,122,53
136,43,-92,-90,114,-24,48,131,224,180,209,122
141,68,-73,-104,107,-2,39,195,278,268,283,165
136,112,-24,-124,80,43,48,297,385,385,385,239
170,200,29,-185,70,114,58,473,546,570,546,356
224,307,82,-265,70,195,68,668,741,805,746,502
317,409,92,-363,112,251,39,844,946,1049,966,673
409,497,87,-453,161,292,-14,941,1083,1249,1171,829
492,575,82,-534,204,329,-78,985,1176,1415,1342,956
551,683,131,-617,209,407,-112,1044,1278,1595,1527,1127
653,775,122,-714,265,448,-200,1078,1351,1756,1703,1283
766,849,82,-807,341,466,-312,985,1293,1781,1776,1376
824,912,87,-868,368,500,-414,736,1098,1649,1732,1410
805,946,141,-875,331,544,-502,405,834,1395,1581,1361
741,927,185,-834,278,556,-522,112,551,1063,1332,1229
619,868,248,-744,185,558,-488,-156,283,683,985,1015
448,863,414,-656,17,639,-419,-478,58,331,678,819
248,863,614,-556,-183,739,-336,-785,-97,82,473,697
122,829,707,-475,-292,768,-278,-1000,-239,-112,297,580
68,775,707,-422,-319,741,-239,-1151,-385,-297,126,439
9,712,702,-361,-346,707,-209,-1200,-478,-395,24,331
-58,683,741,-312,-400,712,-156,-1098,-458,-395,0,287
-58,668,727,-305,-392,697,-141,-932,-370,-326,19,273
-14,629,644,-307,-329,636,-204,-810,-317,-273,39,253
14,541,527,-278,-256,534,-268,-732,-297,-248,29,219
29,478,448,-253,-209,463,-273,-629,-248,-214,39,204
43,414,370,-229,-163,392,-234,-522,-190,-165,48,190
48,346,297,-197,-124,322,-204,-439,-151,-141,43,146
63,287,224,-175,-80,256,-175,-361,-117,-117,43,117
68,239,170,-153,-51,204,-146,-302,-92,-97,53,107
73,204,131,-139,-29,168,-126,-258,-68,-87,43,82
92,180,87,-136,2,134,-102,-214,-48,-73,48,82
97,165,68,-131,14,117,-92,-200,-39,-78,43,68
87,141,53,-114,17,97,-78,-180,-24,-68,43,58
97,112,14,-104,41,63,-53,-146,0,-58,39,48
107,78,-29,-92,68,24,-53,-131,-4,-58,39,34
117,63,-53,-90,85,4,-53,-131,-9,-63,24,19
97,63,-34,-80,65,14,-39,-102,0,-43,34,34
82,73,-9,-78,46,31,-19,-92,19,-39,43,34
92,63,-29,-78,61,17,-29,-97,9,-48,34,24
92,63,-29,-78,61,17,-19,-97,9,-48,34,19
92,63,-29,-78,61,17,-19,-92,9,-48,34,19
92,53,-39,-73,65,7,-14,-92,9,-48,34,19
102,43,-58,-73,80,-7,-4,-73,24,-48,34,14
97,43,-53,-70,75,-4,4,-63,34,-34,39,14
97,39,-58,-68,78,-9,4,-58,34,-34,39,14
97,39,-58,-68,78,-9,4,-58,34,-34,39,14
97,39,-58,-68,78,-9,14,-63,24,-43,39,14
97,43,-53,-70,75,-4,14,-63,19,-43,34,14
97,43,-53,-70,75,-4,14,-63,19,-43,34,14
92,39,-53,-65,73,-7,14,-53,19,-43,39,14
82,24,-58,-53,70,-17,24,-48,29,-34,43,14
82,24,-58,-53,70,-17,24,-48,34,-34,43,14
82,19,-63,-51,73,-21,24,-48,34,-34,39,9
82,19,-63,-51,73,-21,24,-48,34,-34,39,9
82,19,-63,-51,73,-21,24,-39,29,-29,43,4
82,19,-63,-51,73,-21,24,-39,34,-29,48,4
82,24,-58,-53,70,-17,24,-39,34,-29,48,4
82,24,-58,-53,70,-17,24,-39,34,-29,48,9
92,19,-73,-56,82,-26,29,-39,34,-34,39,14
92,19,-73,-56,82,-26,29,-39,39,-34,43,14
92,19,-73,-56,82,-26,29,-34,39,-34,43,9
92,19,-73,-56,82,-26,29,-29,39,-34,43,9
92,4,-87,-48,90,-41,29,-24,29,-34,34,9
92,4,-87,-48,90,-41,29,-24,29,-34,34,9
92,4,-87,-48,90,-41,29,-24,34,-29,39,9
92,4,-87,-48,90,-41,29,-24,34,-29,43,9
82,-4,-87,-39,85,-46,39,-19,43,-24,43,4
82,4,-78,-43,80,-36,43,-14,43,-24,43,4
82,4,-78,-43,80,-36,43,-4,43,-24,43,9
87,9,-78,-48,82,-34,43,0,48,-24,48,9
97,19,-78,-58,87,-29,43,9,58,-14,58,19
97,29,-68,-63,82,-19,43,14,58,-9,58,19
97,29,-68,-63,82,-19,48,14,58,-4,63,19
97,24,-73,-61,85,-24,48,19,63,4,68,19
107,34,-73,-70,90,-19,39,19,73,14,78,24
107,34,-73,-70,90,-19,43,24,78,19,78,29
107,34,-73,-70,90,-19,43,29,78,19,78,39
107,29,-78,-68,92,-24,48,29,78,19,82,43
112,29,-82,-70,97,-26,43,19,78,14,82,34
112,34,-78,-73,95,-21,39,24,87,19,87,34
112,39,-73,-75,92,-17,34,24,87,24,87,39
112,39,-73,-75,92,-17,29,29,87,29,97,43
117,34,-82,-75,100,-24,34,29,92,29,87,53
102,34,-68,-68,85,-17,34,29,92,29,87,53
97,29,-68,-63,82,-19,39,39,92,29,87,53
92,29,-63,-61,78,-17,48,39,92,29,87,53
92,19,-73,-56,82,-26,48,43,92,43,97,43
97,19,-78,-58,87,-29,53,48,92,43,97,43
97,19,-78,-58,87,-29,53,53,102,43,102,48
97,19,-78,-58,87,-29,48,53,107,43,107,48
97,29,-68,-63,82,-19,58,53,107,39,102,43
97,29,-68,-63,82,-19,58,58,107,43,102,43
102,29,-73,-65,87,-21,58,63,112,43,102,48
107,34,-73,-70,90,-19,58,73,117,48,102,48
107,24,-82,-65,95,-29,48,73,117,53,102,48
107,24,-82,-65,95,-29,48,73,122,53,107,48
107,19,-87,-63,97,-34,48,87,122,58,117,53
107,19,-87,-63,97,-34,48,92,126,73,117,53
97,14,-82,-56,90,-34,43,87,126,68,117,53
102,14,-87,-58,95,-36,39,87,126,68,117,58
102,14,-87,-58,95,-36,34,97,122,68,122,63
102,14,-87,-58,95,-36,29,112,122,78,126,68
97,19,-78,-58,87,-29,29,122,131,78,136,68
102,19,-82,-61,92,-31,29,126,136,82,136,73
102,19,-82,-61,92,-31,29,131,146,92,136,73
102,19,-82,-61,92,-31,29,141,156,102,146,73
102,29,-73,-65,87,-21,39,141,165,107,141,78
102,34,-68,-68,85,-17,39,146,170,112,146,82
102,34,-68,-68,85,-17,39,161,180,117,151,82
102,34,-68,-68,85,-17,39,165,185,122,161,82
92,43,-48,-68,70,-2,19,180,195,122,170,92
92,43,-48,-68,70,-2,19,190,195,131,170,97
102,48,-53,-75,78,-2,19,195,200,141,180,97
102,48,-53,-75,78,-2,19,200,204,146,185,97
117,39,-78,-78,97,-19,19,209,204,165,190,102
117,39,-78,-78,97,-19,19,209,214,170,190,102
112,39,-73,-75,92,-17,24,224,219,170,195,112
107,43,-63,-75,85,-9,29,234,224,170,204,112
97,43,-53,-70,75,-4,19,244,239,190,214,117
107,43,-63,-75,85,-9,14,248,244,195,214,122
107,43,-63,-75,85,-9,14,268,253,209,224,131
107,43,-63,-75,85,-9,14,283,263,214,229,141
112,48,-63,-80,87,-7,9,273,258,209,229,131
122,48,-73,-85,97,-12,9,278,253,209,229,131
126,53,-73,-90,100,-9,4,278,248,209,234,131
131,53,-78,-92,104,-12,4,283,244,204,234,141
131,58,-73,-95,102,-7,9,278,248,209,229,136
131,58,-73,-95,102,-7,0,278,253,214,234,141
131,63,-68,-97,100,-2,-4,278,253,214,239,141
141,63,-78,-102,109,-7,-9,278,248,214,244,141
151,78,-73,-114,112,2,0,278,258,214,253,146
151,78,-73,-114,112,2,-4,278,253,214,253,146
151,78,-73,-114,112,2,-4,278,253,214,253,146
151,78,-73,-114,112,2,-4,273,248,209,248,146
151,78,-73,-114,112,2,-9,273,234,209,248,151
156,78,-78,-117,117,0,-9,268,234,209,248,156
156,82,-73,-119,114,4,-9,263,224,209,248,156
161,87,-73,-124,117,7,-24,253,219,209,244,156
161,92,-68,-126,114,12,-14,239,229,209,253,165
151,92,-58,-122,104,17,-14,234,229,209,253,165
151,97,-53,-124,102,21,-24,229,219,204,253,165
156,97,-58,-126,107,19,-24,214,214,195,253,165
165,107,-58,-136,112,24,-34,180,190,185,248,175
165,107,-58,-136,112,24,-34,165,175,175,248,175
170,107,-63,-139,117,21,-43,146,170,165,234,170
170,107,-63,-139,117,21,-43,122,161,151,234,170
165,107,-58,-136,112,24,-34,97,141,136,219,161
156,102,-53,-129,104,24,-34,78,131,131,209,151
146,102,-43,-124,95,29,-29,63,126,122,195,151
136,102,-34,-119,85,34,-29,43,112,97,180,141
131,97,-34,-114,82,31,-29,29,87,82,161,122
126,97,-29,-112,78,34,-29,14,78,68,151,117
122,92,-29,-107,75,31,-24,4,78,58,146,112
117,87,-29,-102,73,29,-24,-9,68,53,131,102
117,87,-29,-102,73,29,-34,-19,68,48,131,107
117,82,-34,-100,75,24,-34,-34,58,43,126,92
117,78,-39,-97,78,19,-34,-39,53,29,122,92
107,78,-29,-92,68,24,-34,-53,43,24,122,87
102,78,-24,-90,63,26,-29,-58,39,19,112,82
102,73,-29,-87,65,21,-24,-58,34,14,112,87
102,73,-29,-87,65,21,-24,-58,29,4,97,87
102,68,-34,-85,68,17,-24,-63,19,-9,92,82
97,63,-34,-80,65,14,-14,-73,29,-4,92,82
92,63,-29,-78,61,17,-9,-78,29,-4,92,78
87,58,-29,-73,58,14,-9,-78,29,-4,92,78
82,43,-39,-63,61,2,0,-78,24,-14,92,78
73,43,-29,-58,51,7,0,-82,19,-9,82,68
73,39,-34,-56,53,2,0,-82,19,-9,82,68
78,39,-39,-58,58,0,0,-87,14,-9,78,63
78,39,-39,-58,58,0,0,-92,9,-24,78,58
87,48,-39,-68,63,4,-9,-97,-4,-34,73,53
82,43,-39,-63,61,2,-4,-97,-4,-34,68,48
73,43,-29,-58,51,7,-4,-97,-4,-39,63,48
63,39,-24,-51,43,7,-4,-97,-4,-39,63,48
58,29,-29,-43,43,0,-4,-87,-4,-29,63,43
58,29,-29,-43,43,0,-4,-92,-4,-29,63,43
53,29,-24,-41,39,2,-4,-97,-4,-29,63,43
48,24,-24,-36,36,0,-4,-97,-9,-29,63,39
43,14,-29,-29,36,-7,-14,-107,-14,-39,58,48
43,14,-29,-29,36,-7,-14,-107,-24,-43,58,48
43,9,-34,-26,39,-12,-14,-107,-24,-43,58,43
39,9,-29,-24,34,-9,-9,-112,-24,-43,53,43
39,4,-34,-21,36,-14,-19,-112,-24,-53,53,39
43,4,-39,-24,41,-17,-19,-112,-24,-53,53,39
43,9,-34,-26,39,-12,-19,-107,-24,-48,53,39
43,9,-34,-26,39,-12,-19,-107,-24,-48,53,34
34,4,-29,-19,31,-12,-24,-117,-39,-58,43,34
34,4,-29,-19,31,-12,-24,-117,-39,-63,43,34
34,4,-29,-19,31,-12,-24,-117,-43,-63,43,34
34,4,-29,-19,31,-12,-24,-117,-43,-58,43,34
19,0,-19,-9,19,-9,-24,-126,-43,-68,39,24
19,-4,-24,-7,21,-14,-24,-126,-43,-68,39,29
19,-9,-29,-4,24,-19,-19,-126,-43,-68,43,29
19,-19,-39,0,29,-29,-14,-122,-43,-63,43,24
19,-19,-39,0,29,-29,-19,-122,-43,-73,34,14
9,-19,-29,4,19,-24,-19,-126,-43,-73,34,14
9,-19,-29,4,19,-24,-19,-126,-48,-73,34,14
19,-19,-39,0,29,-29,-24,-122,-53,-73,34,14
19,-24,-43,2,31,-34,-34,-107,-48,-63,24,14
14,-29,-43,7,29,-36,-34,-107,-48,-63,24,14
14,-34,-48,9,31,-41,-34,-112,-48,-63,24,14
9,-39,-48,14,29,-43,-34,-112,-43,-63,24,14
4,-39,-43,17,24,-41,-24,-102,-39,-63,34,14
4,-39,-43,17,24,-41,-24,-102,-39,-68,34,14
4,-39,-43,17,24,-41,-24,-102,-43,-68,34,14
4,-39,-43,17,24,-41,-24,-102,-43,-68,34,14
19,-34,-53,7,36,-43,-24,-97,-29,-58,34,24
19,-34,-53,7,36,-43,-19,-87,-29,-53,34,24
19,-29,-48,4,34,-39,-19,-82,-29,-48,43,24
19,-19,-39,0,29,-29,-19,-82,-24,-39,43,29
19,-19,-39,0,29,-29,-9,-73,-14,-39,53,39
19,-19,-39,0,29,-29,-9,-73,-14,-39,53,34
29,-14,-43,-7,36,-29,-9,-73,-14,-39,53,34
34,-14,-48,-9,41,-31,-9,-68,-14,-39,53,34
43,-9,-53,-17,48,-31,-9,-73,-14,-29,53,29
43,-4,-48,-19,46,-26,-9,-73,-14,-29,53,29
43,-4,-48,-19,46,-26,-9,-73,-14,-34,53,29
39,-9,-48,-14,43,-29,-9,-73,-14,-34,53,29
39,-9,-48,-14,43,-29,-9,-73,-14,-43,43,29
39,-9,-48,-14,43,-29,-9,-73,-19,-43,43,29
43,-9,-53,-17,48,-31,-9,-73,-19,-43,43,29
43,-4,-48,-19,46,-26,-9,-73,-19,-39,43,29
53,-4,-58,-24,56,-31,0,-68,-14,-43,43,29
53,-4,-58,-24,56,-31,0,-68,-14,-43,43,29
58,-4,-63,-26,61,-34,0,-63,-14,-48,43,29
63,0,-63,-31,63,-31,0,-58,-14,-48,43,29
73,-4,-78,-34,75,-41,9,-58,-9,-39,43,29
63,9,-53,-36,58,-21,19,-58,-4,-39,53,39
58,19,-39,-39,48,-9,29,-58,-4,-29,53,48
58,29,-29,-43,43,0,24,-68,0,-24,53,39
68,29,-39,-48,53,-4,19,-68,0,-29,58,39
68,29,-39,-48,53,-4,9,-78,-9,-29,58,39
68,29,-39,-48,53,-4,9,-78,-9,-29,58,39
68,29,-39,-48,53,-4,9,-78,-9,-29,58,39
68,29,-39,-48,53,-4,9,-78,-9,-29,58,39
68,39,-29,-53,48,4,0,-78,-19,-39,53,39
68,39,-29,-53,48,4,0,-78,-19,-34,53,39
73,43,-29,-58,51,7,0,-82,-14,-34,53,39
73,43,-29,-58,51,7,0,-82,-14,-34,53,39
63,24,-39,-43,51,-7,9,-73,-14,-43,58,34
68,19,-48,-43,58,-14,0,-78,-14,-48,58,34
68,19,-48,-43,58,-14,0,-78,-19,-48,53,34
63,19,-43,-41,53,-12,0,-78,-19,-48,53,34
73,14,-58,-43,65,-21,0,-82,-29,-43,39,29
73,14,-58,-43,65,-21,0,-87,-29,-43,39,24
73,14,-58,-43,65,-21,4,-92,-24,-43,39,24
73,14,-58,-43,65,-21,4,-97,-24,-43,39,29
68,4,-63,-36,65,-29,4,-87,-24,-48,39,19
63,4,-58,-34,61,-26,4,-87,-29,-48,39,19
68,0,-68,-34,68,-34,4,-87,-39,-48,39,19
63,0,-63,-31,63,-31,4,-92,-39,-53,43,19
63,-9,-73,-26,68,-41,4,-92,-39,-53,34,9
63,-14,-78,-24,70,-46,4,-92,-39,-53,29,14
63,-14,-78,-24,70,-46,4,-92,-39,-58,29,14
63,-19,-82,-21,73,-51,0,-92,-34,-58,29,9
63,-14,-78,-24,70,-46,-4,-102,-34,-68,29,4
63,-9,-73,-26,68,-41,-4,-102,-34,-63,29,4
63,-4,-68,-29,65,-36,0,-102,-34,-63,29,9
63,-4,-68,-29,65,-36,0,-102,-34,-63,29,9
58,-19,-78,-19,68,-48,-4,-112,-39,-73,24,4
58,-19,-78,-19,68,-48,-9,-112,-43,-78,19,0
58,-19,-78,-19,68,-48,-14,-112,-48,-78,14,-4
53,-24,-78,-14,65,-51,-19,-112,-53,-78,4,-9
48,-29,-78,-9,63,-53,-14,-107,-53,-82,4,-4
43,-34,-78,-4,61,-56,-14,-107,-53,-92,4,-9
39,-39,-78,0,58,-58,-9,-112,-58,-92,4,-9
39,-43,-82,2,61,-63,-4,-112,-58,-92,4,-4
29,-43,-73,7,51,-58,-4,-102,-48,-82,4,-14
24,-48,-73,12,48,-61,-9,-102,-48,-82,4,-24
19,-48,-68,14,43,-58,-9,-102,-53,-82,4,-24
19,-48,-68,14,43,-58,-4,-107,-53,-78,4,-24
34,-39,-73,2,53,-56,-14,-107,-43,-68,14,-19
34,-39,-73,2,53,-56,-14,-107,-43,-68,19,-9
34,-34,-68,0,51,-51,-19,-107,-43,-68,19,-4
34,-34,-68,0,51,-51,-19,-107,-43,-73,19,0
43,-29,-73,-7,58,-51,-29,-107,-48,-82,19,0
48,-29,-78,-9,63,-53,-24,-107,-48,-82,19,0
48,-29,-78,-9,63,-53,-24,-107,-48,-82,19,0
53,-29,-82,-12,68,-56,-29,-107,-48,-82,19,0
53,-39,-92,-7,73,-65,-43,-117,-48,-73,19,-9
53,-39,-92,-7,73,-65,-48,-122,-48,-73,14,-9
53,-39,-92,-7,73,-65,-53,-122,-48,-73,14,-9
53,-39,-92,-7,73,-65,-58,-122,-48,-73,14,-9
43,-29,-73,-7,58,-51,-58,-122,-48,-73,14,-4
39,-29,-68,-4,53,-48,-53,-117,-48,-73,14,-4
39,-29,-68,-4,53,-48,-53,-117,-48,-73,14,-4
39,-29,-68,-4,53,-48,-53,-117,-53,-73,14,-4
53,-29,-82,-12,68,-56,-53,-126,-58,-78,4,-14
53,-29,-82,-12,68,-56,-53,-126,-63,-82,4,-14
48,-29,-78,-9,63,-53,-53,-126,-63,-87,4,-14
43,-39,-82,-2,63,-61,-48,-126,-68,-92,4,-14
53,-39,-92,-7,73,-65,-48,-122,-58,-82,4,-4
58,-34,-92,-12,75,-63,-48,-122,-63,-87,0,-9
58,-34,-92,-12,75,-63,-48,-117,-63,-87,0,-9
58,-34,-92,-12,75,-63,-48,-107,-58,-82,0,-4
63,-24,-87,-19,75,-56,-48,-117,-58,-82,4,-14
73,-19,-92,-26,82,-56,-48,-122,-58,-82,4,-14
78,-19,-97,-29,87,-58,-48,-122,-58,-87,0,-14
78,-19,-97,-29,87,-58,-48,-122,-58,-87,0,-14
68,-9,-78,-29,73,-43,-43,-117,-53,-73,9,-9
68,-9,-78,-29,73,-43,-39,-112,-48,-73,14,-4
68,-9,-78,-29,73,-43,-34,-107,-43,-73,14,0
68,-9,-78,-29,73,-43,-34,-102,-39,-78,14,0
68,-9,-78,-29,73,-43,-34,-112,-43,-87,9,-4
68,-9,-78,-29,73,-43,-34,-112,-48,-87,4,-4
68,-9,-78,-29,73,-43,-34,-117,-53,-82,0,-9
68,-9,-78,-29,73,-43,-29,-117,-58,-82,0,-14
68,-4,-73,-31,70,-39,-29,-122,-48,-82,0,-4
68,-4,-73,-31,70,-39,-29,-122,-48,-82,0,-4
68,-4,-73,-31,70,-39,-29,-122,-48,-82,4,-4
68,-4,-73,-31,70,-39,-29,-122,-48,-82,4,-4
78,0,-78,-39,78,-39,-39,-131,-48,-82,4,-14
78,9,-68,-43,73,-29,-39,-126,-48,-82,4,-14
78,14,-63,-46,70,-24,-39,-126,-48,-82,4,-14
78,19,-58,-48,68,-19,-43,-126,-48,-82,4,-14
78,19,-58,-48,68,-19,-43,-141,-58,-92,-4,-14
78,19,-58,-48,68,-19,-43,-141,-58,-92,-4,-14
78,19,-58,-48,68,-19,-39,-136,-58,-92,-4,-14
73,14,-58,-43,65,-21,-39,-136,-58,-92,-4,-14
58,0,-58,-29,58,-29,-9,-126,-48,-82,4,-14
82,-4,-87,-39,85,-46,-9,-122,-48,-82,4,-14
107,-14,-122,-46,114,-68,-19,-136,-68,-92,-14,-39
97,-34,-131,-31,114,-82,-9,-122,-58,-92,-19,-43
48,-48,-97,0,73,-73,4,-92,-39,-78,-19,-34
34,-29,-63,-2,48,-46,19,-53,-4,-53,9,-24
39,-24,-63,-7,51,-43,24,-24,24,-19,39,-4
68,-9,-78,-29,73,-43,4,-4,53,29,82,14
97,24,-73,-61,85,-24,-9,43,117,102,151,53
102,48,-53,-75,78,-2,0,117,200,209,234,126
107,92,-14,-100,61,39,0,219,297,317,336,200
131,141,9,-136,61,75,0,356,429,473,468,307
175,219,43,-197,65,131,0,551,614,688,658,434
248,322,73,-285,87,197,-9,736,819,932,868,595
331,419,87,-375,122,253,-43,863,966,1151,1083,751
414,497,82,-456,165,290,-97,907,1049,1298,1234,878
502,585,82,-544,209,334,-161,927,1112,1429,1390,1010
605,678,73,-641,265,375,-229,951,1176,1590,1566,1176
707,741,34,-724,336,387,-331,907,1156,1664,1678,1298
766,795,29,-780,368,412,-434,697,1010,1581,1673,1351
785,849,63,-817,361,456,-522,385,795,1385,1571,1332
741,858,117,-800,312,488,-570,92,541,1102,1361,1239
649,819,170,-734,239,495,-527,-146,292,751,1054,1044
468,795,326,-631,70,561,-448,-439,58,390,727,829
278,805,527,-541,-124,666,-366,-746,-126,102,473,668
141,800,658,-470,-258,729,-287,-961,-248,-92,287,541
39,746,707,-392,-334,727,-219,-1093,-366,-258,126,419
-29,692,722,-331,-375,707,-180,-1161,-448,-366,24,331
-78,653,732,-287,-405,692,-146,-1117,-448,-375,-9,268
-87,619,707,-265,-397,663,-141,-971,-390,-336,-9,234
-53,570,624,-258,-339,597,-185,-849,-346,-292,9,214
-24,502,527,-239,-275,514,-239,-761,-336,-278,0,190
-9,429,439,-209,-224,434,-253,-688,-326,-263,-19,146
-4,366,370,-180,-187,368,-234,-580,-278,-234,-9,122
9,297,287,-153,-139,292,-195,-478,-219,-190,-4,97
14,229,214,-122,-100,222,-156,-380,-175,-156,-4,68
48,170,122,-109,-36,146,-136,-312,-151,-136,4,58
73,126,53,-100,9,90,-126,-258,-126,-126,4,34
82,102,19,-92,31,61,-102,-214,-107,-112,0,24
97,87,-9,-92,53,39,-82,-190,-78,-97,4,29
87,82,-4,-85,46,39,-58,-170,-73,-87,4,19
78,63,-14,-70,46,24,-43,-156,-68,-97,-9,-9
78,48,-29,-63,53,9,-34,-141,-53,-78,-9,-14
87,34,-53,-61,70,-9,-24,-112,-39,-73,-4,-19
78,14,-63,-46,70,-24,-19,-92,-39,-73,-4,-14
102,4,-97,-53,100,-46,-19,-92,-48,-78,-4,-24
102,-14,-117,-43,109,-65,-29,-87,-48,-87,-14,-34
102,-14,-117,-43,109,-65,-19,-87,-48,-87,-14,-39
102,-14,-117,-43,109,-65,-19,-82,-48,-87,-14,-39
102,-24,-126,-39,114,-75,-14,-82,-48,-87,-14,-39
92,-34,-126,-29,109,-80,-14,-73,-43,-78,-24,-43
87,-34,-122,-26,104,-78,-4,-63,-34,-63,-19,-43
87,-39,-126,-24,107,-82,-4,-58,-34,-63,-19,-43
87,-39,-126,-24,107,-82,-4,-58,-34,-63,-19,-43
92,-29,-122,-31,107,-75,-9,-68,-34,-73,-9,-43
97,-24,-122,-36,109,-73,-14,-73,-39,-73,-14,-43
102,-24,-126,-39,114,-75,-19,-78,-39,-73,-14,-43
102,-29,-131,-36,117,-80,-24,-73,-39,-73,-9,-43
92,-24,-117,-34,104,-70,-14,-68,-48,-73,-14,-34
92,-24,-117,-34,104,-70,-14,-68,-43,-73,-14,-34
92,-29,-122,-31,107,-75,-14,-68,-43,-73,-19,-39
92,-29,-122,-31,107,-75,-14,-68,-43,-73,-19,-39
92,-39,-131,-26,112,-85,-24,-68,-48,-68,-14,-34
92,-39,-131,-26,112,-85,-24,-68,-43,-68,-9,-34
92,-34,-126,-29,109,-80,-24,-68,-43,-68,-9,-34
92,-34,-126,-29,109,-80,-24,-68,-43,-68,-9,-29
92,-39,-131,-26,112,-85,-34,-68,-43,-73,-19,-29
92,-39,-131,-26,112,-85,-39,-68,-39,-73,-14,-34
92,-39,-131,-26,112,-85,-43,-63,-39,-73,-14,-43
92,-39,-131,-26,112,-85,-48,-58,-39,-73,-14,-48
82,-43,-126,-19,104,-85,-43,-53,-39,-63,0,-39
82,-43,-126,-19,104,-85,-39,-53,-39,-63,4,-39
82,-43,-126,-19,104,-85,-34,-53,-34,-58,14,-39
82,-43,-126,-19,104,-85,-29,-53,-34,-58,24,-39
73,-53,-126,-9,100,-90,-29,-53,-24,-53,14,-43
73,-43,-117,-14,95,-80,-24,-53,-24,-53,14,-43
73,-43,-117,-14,95,-80,-24,-48,-24,-53,14,-39
78,-39,-117,-19,97,-78,-24,-48,-19,-53,19,-39
78,-39,-117,-19,97,-78,-14,-48,-29,-53,14,-39
78,-29,-107,-24,92,-68,-14,-43,-29,-58,9,-39
78,-29,-107,-24,92,-68,-9,-43,-29,-63,9,-39
78,-34,-112,-21,95,-73,-9,-39,-24,-63,9,-39
68,-39,-107,-14,87,-73,-9,-29,-19,-53,9,-39
68,-43,-112,-12,90,-78,-4,-24,-19,-48,9,-39
68,-48,-117,-9,92,-82,-4,-19,-24,-48,9,-34
68,-58,-126,-4,97,-92,0,-19,-29,-48,14,-34
63,-53,-117,-4,90,-85,0,-19,-24,-43,24,-34
63,-43,-107,-9,85,-75,0,-14,-9,-39,29,-34
63,-34,-97,-14,80,-65,0,-14,-4,-34,29,-29
63,-29,-92,-17,78,-61,0,-9,0,-29,39,-24
82,-19,-102,-31,92,-61,9,-9,4,-19,48,-14
73,-14,-87,-29,80,-51,4,-9,4,-19,48,-14
73,-14,-87,-29,80,-51,4,0,4,-19,48,-14
73,-9,-82,-31,78,-46,9,0,4,-19,48,-14
82,-19,-102,-31,92,-61,0,-4,-4,-24,39,-24
87,-19,-107,-34,97,-63,4,0,-4,-24,39,-24
87,-19,-107,-34,97,-63,4,4,4,-24,43,-19
87,-19,-107,-34,97,-63,0,4,9,-24,48,-19
78,-14,-92,-31,85,-53,4,14,9,-9,53,-14
68,-19,-87,-24,78,-53,9,19,9,-4,53,-14
63,-24,-87,-19,75,-56,14,24,14,-4,53,-9
58,-24,-82,-17,70,-53,19,34,19,0,53,-9
58,-19,-78,-19,68,-48,19,34,29,4,63,0
58,-14,-73,-21,65,-43,19,34,34,4,68,0
58,-14,-73,-21,65,-43,19,48,34,9,78,4
58,-9,-68,-24,63,-39,19,53,39,24,78,4
73,-4,-78,-34,75,-41,9,58,48,29,68,-4
82,-4,-87,-39,85,-46,9,58,48,29,68,0
87,-4,-92,-41,90,-48,9,68,43,29,73,4
92,-4,-97,-43,95,-51,9,82,43,39,78,9
87,0,-87,-43,87,-43,9,82,58,29,87,9
92,0,-92,-46,92,-46,9,87,58,34,87,14
92,0,-92,-46,92,-46,9,92,63,43,87,14
92,0,-92,-46,92,-46,9,102,68,53,97,14
102,0,-102,-51,102,-51,19,112,73,48,92,9
102,4,-97,-53,100,-46,19,117,73,53,97,14
102,4,-97,-53,100,-46,19,131,78,58,102,14
102,4,-97,-53,100,-46,19,136,78,63,112,14
102,4,-97,-53,100,-46,0,146,87,73,112,24
102,4,-97,-53,100,-46,0,151,87,82,112,29
112,9,-102,-61,107,-46,0,151,92,92,122,29
112,9,-102,-61,107,-46,0,151,97,97,126,29
126,9,-117,-68,122,-53,-9,175,97,107,131,43
126,9,-117,-68,122,-53,-9,180,107,112,131,43
122,9,-112,-65,117,-51,-4,200,112,112,136,53
117,14,-102,-65,109,-43,0,214,117,112,146,53
117,14,-102,-65,109,-43,0,209,131,122,146,53
126,14,-112,-70,119,-48,-4,209,136,126,146,53
126,14,-112,-70,119,-48,-4,224,146,141,156,58
126,14,-112,-70,119,-48,-4,234,156,146,161,63
126,29,-97,-78,112,-34,-19,224,156,156,165,73
131,29,-102,-80,117,-36,-19,229,156,161,170,73
131,34,-97,-82,114,-31,-24,229,156,165,180,73
131,34,-97,-82,114,-31,-24,234,156,165,185,82
141,43,-97,-92,119,-26,-34,224,146,156,185,78
141,48,-92,-95,117,-21,-48,219,146,156,185,82
141,58,-82,-100,112,-12,-58,214,141,151,185,82
151,63,-87,-107,119,-12,-68,209,131,146,185,82
141,63,-78,-102,109,-7,-63,219,141,151,185,87
141,58,-82,-100,112,-12,-63,219,136,156,185,87
141,53,-87,-97,114,-17,-58,219,136,161,185,87
141,48,-92,-95,117,-21,-53,214,131,161,180,87
151,53,-97,-102,124,-21,-68,204,126,151,180,87
156,58,-97,-107,126,-19,-68,200,126,151,180,87
156,68,-87,-112,122,-9,-68,195,117,151,180,82
161,78,-82,-119,122,-2,-82,185,112,151,175,78
151,82,-68,-117,109,7,-73,170,112,151,185,87
141,82,-58,-112,100,12,-73,165,112,151,185,87
141,87,-53,-114,97,17,-82,161,102,146,185,87
146,87,-58,-117,102,14,-82,146,97,136,185,87
146,87,-58,-117,102,14,-73,131,82,126,185,97
146,87,-58,-117,102,14,-73,117,68,117,180,97
151,87,-63,-119,107,12,-82,97,63,107,161,92
151,87,-63,-119,107,12,-82,73,53,92,156,92
146,78,-68,-112,107,4,-73,58,53,78,146,82
136,73,-63,-104,100,4,-73,39,43,73,141,73
126,73,-53,-100,90,9,-68,24,39,63,131,73
117,73,-43,-95,80,14,-68,4,24,39,122,63
117,82,-34,-100,75,24,-78,-9,9,34,112,63
117,87,-29,-102,73,29,-78,-24,0,19,102,58
117,87,-29,-102,73,29,-73,-34,0,9,97,53
117,87,-29,-102,73,29,-73,-48,-9,4,82,43
112,78,-34,-95,73,21,-68,-58,-29,-19,68,29
107,73,-34,-90,70,19,-63,-73,-39,-24,58,14
102,68,-34,-85,68,17,-58,-78,-43,-39,48,14
87,68,-19,-78,53,24,-53,-92,-53,-43,43,9
73,53,-19,-63,46,17,-48,-92,-58,-58,29,-9
73,43,-29,-58,51,7,-43,-97,-63,-63,24,-9
73,39,-34,-56,53,2,-43,-102,-68,-73,4,-14
73,29,-43,-51,58,-7,-43,-112,-78,-87,-4,-24
68,39,-29,-53,48,4,-48,-122,-68,-82,-9,-24
63,43,-19,-53,41,12,-48,-126,-68,-82,-4,-29
58,43,-14,-51,36,14,-53,-126,-68,-82,0,-29
53,34,-19,-43,36,7,-48,-126,-73,-92,4,-29
53,34,-19,-43,36,7,-58,-131,-87,-107,-9,-39
53,29,-24,-41,39,2,-58,-131,-87,-107,-14,-39
58,29,-29,-43,43,0,-58,-136,-92,-107,-24,-43
58,29,-29,-43,43,0,-58,-141,-97,-122,-29,-48
48,24,-24,-36,36,0,-58,-146,-112,-122,-24,-53
43,14,-29,-29,36,-7,-53,-146,-112,-122,-29,-58
34,9,-24,-21,29,-7,-53,-146,-112,-126,-34,-58
24,0,-24,-12,24,-12,-53,-146,-112,-126,-34,-58
39,14,-24,-26,31,-4,-58,-156,-112,-126,-43,-63
48,19,-29,-34,39,-4,-63,-161,-112,-126,-43,-63
53,24,-29,-39,41,-2,-68,-165,-112,-126,-43,-63
58,24,-34,-41,46,-4,-73,-165,-117,-126,-43,-68
43,9,-34,-26,39,-12,-58,-161,-112,-131,-39,-68
43,4,-39,-24,41,-17,-53,-156,-122,-131,-39,-68
43,-4,-48,-19,46,-26,-48,-151,-122,-126,-39,-73
39,-9,-48,-14,43,-29,-39,-151,-122,-122,-43,-73
39,-14,-53,-12,46,-34,-48,-161,-112,-131,-43,-58
43,-14,-58,-14,51,-36,-48,-161,-112,-131,-43,-58
43,-9,-53,-17,48,-31,-48,-156,-112,-126,-43,-58
43,-9,-53,-17,48,-31,-48,-156,-112,-126,-43,-63
53,0,-53,-26,53,-26,-53,-156,-112,-117,-43,-73
53,4,-48,-29,51,-21,-53,-156,-107,-122,-43,-73
53,9,-43,-31,48,-17,-53,-156,-107,-122,-43,-73
53,14,-39,-34,46,-12,-53,-156,-102,-117,-43,-73
39,4,-34,-21,36,-14,-43,-146,-112,-122,-48,-73
39,4,-34,-21,36,-14,-43,-146,-112,-126,-48,-68
39,4,-34,-21,36,-14,-39,-146,-112,-131,-43,-68
39,0,-39,-19,39,-19,-34,-141,-112,-131,-43,-73
39,-14,-53,-12,46,-34,-29,-141,-117,-131,-43,-73
29,-19,-48,-4,39,-34,-29,-146,-112,-131,-43,-73
29,-24,-53,-2,41,-39,-29,-146,-112,-131,-43,-73
39,-29,-68,-4,53,-48,-34,-141,-112,-131,-43,-73
39,-14,-53,-12,46,-34,-43,-136,-97,-122,-43,-68
34,-9,-43,-12,39,-26,-43,-136,-97,-122,-43,-63
34,-4,-39,-14,36,-21,-43,-141,-97,-122,-43,-58
29,0,-29,-14,29,-14,-43,-141,-92,-122,-43,-53
24,-9,-34,-7,29,-21,-34,-126,-87,-117,-34,-63
24,-9,-34,-7,29,-21,-34,-122,-87,-117,-34,-63
24,-9,-34,-7,29,-21,-34,-117,-92,-112,-34,-63
24,-9,-34,-7,29,-21,-34,-112,-92,-107,-34,-63
19,-14,-34,-2,26,-24,-29,-107,-87,-112,-43,-73
19,-24,-43,2,31,-34,-19,-97,-87,-112,-43,-73
19,-29,-48,4,34,-39,-14,-92,-87,-112,-34,-73
19,-29,-48,4,34,-39,-9,-92,-82,-107,-34,-68
19,-24,-43,2,31,-34,-9,-92,-73,-107,-34,-68
19,-19,-39,0,29,-29,-9,-92,-73,-107,-34,-73
29,-9,-39,-9,34,-24,-9,-92,-73,-107,-34,-73
34,-4,-39,-14,36,-21,-9,-87,-73,-107,-34,-73
34,4,-29,-19,31,-12,-9,-73,-63,-102,-24,-58
34,14,-19,-24,26,-2,-9,-73,-63,-97,-24,-58
34,19,-14,-26,24,2,-9,-73,-63,-97,-24,-58
29,19,-9,-24,19,4,-9,-73,-63,-92,-24,-58
39,9,-29,-24,34,-9,-4,-68,-53,-92,-14,-48
39,9,-29,-24,34,-9,0,-63,-58,-92,-14,-48
43,9,-34,-26,39,-12,4,-58,-58,-92,-14,-48
43,14,-29,-29,36,-7,9,-53,-58,-87,-14,-48
43,14,-29,-29,36,-7,9,-63,-53,-82,-24,-58
43,14,-29,-29,36,-7,9,-68,-53,-82,-24,-58
48,14,-34,-31,41,-9,9,-68,-53,-87,-24,-58
53,19,-34,-36,43,-7,9,-68,-53,-87,-24,-58
53,24,-29,-39,41,-2,9,-68,-48,-87,-14,-48
53,29,-24,-41,39,2,9,-68,-53,-87,-14,-48
48,29,-19,-39,34,4,9,-68,-53,-87,-14,-48
48,29,-19,-39,34,4,14,-68,-58,-82,-14,-48
39,24,-14,-31,26,4,14,-78,-63,-87,-19,-58
43,19,-24,-31,34,-2,14,-78,-68,-97,-24,-58
43,9,-34,-26,39,-12,14,-78,-73,-102,-29,-58
39,4,-34,-21,36,-14,19,-73,-78,-107,-34,-58
39,9,-29,-24,34,-9,14,-73,-78,-107,-34,-68
43,9,-34,-26,39,-12,0,-78,-78,-107,-34,-73
53,14,-39,-34,46,-12,-4,-82,-78,-107,-39,-73
43,14,-29,-29,36,-7,-4,-82,-78,-107,-39,-68
43,4,-39,-24,41,-17,-4,-82,-87,-117,-39,-78
48,0,-48,-24,48,-24,-4,-82,-87,-117,-43,-78
48,-9,-58,-19,53,-34,-4,-82,-92,-122,-43,-82
43,-14,-58,-14,51,-36,-4,-82,-92,-122,-43,-82
39,-24,-63,-7,51,-43,-9,-92,-92,-126,-58,-82
34,-29,-63,-2,48,-46,-9,-92,-97,-131,-63,-87
29,-39,-68,4,48,-53,-14,-102,-107,-141,-78,-107
24,-48,-73,12,48,-61,-14,-102,-117,-151,-82,-112
34,-39,-73,2,53,-56,-24,-92,-107,-141,-68,-102
29,-39,-68,4,48,-53,-24,-97,-107,-136,-58,-97
29,-43,-73,7,51,-58,-24,-97,-107,-136,-53,-92
29,-43,-73,7,51,-58,-24,-97,-107,-141,-48,-87
29,-39,-68,4,48,-53,-34,-97,-97,-131,-39,-78
29,-39,-68,4,48,-53,-29,-92,-102,-131,-43,-82
29,-43,-73,7,51,-58,-29,-92,-102,-141,-48,-87
29,-43,-73,7,51,-58,-29,-102,-102,-141,-53,-87
24,-43,-68,9,46,-56,-39,-102,-112,-151,-58,-92
24,-43,-68,9,46,-56,-34,-102,-112,-151,-58,-97
24,-48,-73,12,48,-61,-29,-102,-112,-156,-63,-97
19,-53,-73,17,46,-63,-29,-102,-112,-156,-68,-102
14,-63,-78,24,46,-70,-29,-112,-112,-146,-63,-102
9,-68,-78,29,43,-73,-34,-112,-112,-146,-63,-102
4,-68,-73,31,39,-70,-34,-117,-117,-151,-73,-102
-4,-68,-63,36,29,-65,-39,-122,-117,-151,-73,-102
0,-63,-63,31,31,-63,-43,-112,-131,-161,-87,-102
4,-58,-63,26,34,-61,-48,-112,-131,-165,-92,-107
9,-53,-63,21,36,-58,-53,-112,-131,-170,-97,-112
14,-48,-63,17,39,-56,-58,-112,-131,-175,-97,-112
4,-53,-58,24,31,-56,-63,-122,-122,-165,-92,-112
0,-53,-53,26,26,-53,-63,-122,-122,-165,-92,-112
0,-58,-58,29,29,-58,-68,-122,-122,-165,-87,-112
0,-58,-58,29,29,-58,-68,-122,-122,-165,-82,-117
0,-68,-68,34,34,-68,-58,-122,-122,-156,-68,-117
0,-68,-68,34,34,-68,-58,-126,-122,-156,-68,-112
0,-68,-68,34,34,-68,-58,-126,-122,-161,-73,-107
0,-68,-68,34,34,-68,-58,-126,-131,-161,-78,-107
-4,-82,-78,43,36,-80,-58,-136,-136,-170,-92,-117
-14,-82,-68,48,26,-75,-58,-136,-136,-170,-92,-117
-19,-82,-63,51,21,-73,-58,-136,-131,-161,-87,-117
-24,-82,-58,53,17,-70,-58,-136,-131,-161,-87,-117
-14,-78,-63,46,24,-70,-58,-131,-141,-170,-87,-117
-14,-73,-58,43,21,-65,-58,-131,-141,-170,-82,-117
-14,-68,-53,41,19,-61,-58,-131,-141,-175,-82,-117
-9,-58,-48,34,19,-53,-58,-131,-141,-175,-82,-117
-9,-48,-39,29,14,-43,-63,-122,-122,-161,-73,-107
-14,-39,-24,26,4,-31,-63,-122,-117,-161,-63,-92
4,-39,-43,17,24,-41,-68,-117,-117,-146,-63,-92
9,-58,-68,24,39,-63,-58,-117,-126,-156,-78,-107
4,-68,-73,31,39,-70,-53,-117,-126,-165,-87,-112
0,-68,-68,34,34,-68,-48,-117,-126,-165,-87,-117
-4,-68,-63,36,29,-65,-43,-117,-126,-165,-87,-122
-9,-68,-58,39,24,-63,-39,-117,-126,-165,-87,-126
-9,-68,-58,39,24,-63,-39,-126,-126,-165,-78,-122
-9,-68,-58,39,24,-63,-39,-126,-126,-165,-78,-117
-9,-68,-58,39,24,-63,-39,-126,-126,-165,-78,-112
-9,-68,-58,39,24,-63,-39,-126,-126,-165,-78,-107
-9,-68,-58,39,24,-63,-39,-117,-131,-170,-82,-112
-9,-68,-58,39,24,-63,-39,-117,-136,-175,-87,-117
-9,-68,-58,39,24,-63,-39,-117,-141,-180,-92,-122
-9,-68,-58,39,24,-63,-39,-117,-146,-185,-97,-126
-9,-68,-58,39,24,-63,-24,-107,-131,-170,-92,-122
-9,-68,-58,39,24,-63,-19,-107,-126,-165,-87,-117
-9,-68,-58,39,24,-63,-14,-107,-122,-161,-82,-112
-9,-68,-58,39,24,-63,-9,-107,-117,-156,-78,-107
-9,-78,-68,43,29,-73,-19,-117,-122,-161,-82,-112
-9,-78,-68,43,29,-73,-19,-117,-126,-165,-87,-117
-9,-78,-68,43,29,-73,-19,-117,-131,-170,-92,-122
-9,-78,-68,43,29,-73,-19,-117,-136,-175,-97,-126
-19,-68,-48,43,14,-58,-9,-117,-146,-185,-97,-126
-19,-68,-48,43,14,-58,-9,-117,-146,-185,-97,-126
-19,-68,-48,43,14,-58,-9,-117,-146,-185,-97,-126
-19,-68,-48,43,14,-58,-9,-117,-146,-185,-97,-126
-19,-68,-48,43,14,-58,-9,-107,-131,-180,-87,-126
-19,-68,-48,43,14,-58,-9,-107,-126,-175,-87,-126
-19,-68,-48,43,14,-58,-9,-107,-122,-170,-87,-126
-19,-68,-48,43,14,-58,-9,-107,-117,-165,-87,-126
-19,-58,-39,39,9,-48,-19,-117,-122,-175,-97,-126
-19,-58,-39,39,9,-48,-19,-117,-126,-175,-97,-126
-19,-58,-39,39,9,-48,-19,-117,-131,-175,-97,-126
-19,-58,-39,39,9,-48,-19,-117,-136,-175,-97,-126
-19,-58,-39,39,9,-48,-9,-107,-126,-165,-87,-117
-19,-58,-39,39,9,-48,-9,-107,-126,-165,-87,-117
-19,-58,-39,39,9,-48,-9,-107,-126,-165,-87,-117
-19,-58,-39,39,9,-48,-9,-107,-126,-165,-87,-117
-19,-58,-39,39,9,-48,-19,-117,-131,-170,-97,-126
-19,-58,-39,39,9,-48,-19,-117,-136,-175,-97,-126
-19,-58,-39,39,9,-48,-19,-117,-141,-180,-97,-126
-19,-58,-39,39,9,-48,-19,-117,-146,-185,-97,-126
-29,-68,-39,48,4,-53,-19,-126,-136,-175,-97,-117
-29,-68,-39,48,4,-53,-19,-126,-136,-175,-97,-117
-29,-68,-39,48,4,-53,-19,-126,-136,-175,-97,-117
-29,-68,-39,48,4,-53,-19,-126,-136,-175,-97,-117
-19,-68,-48,43,14,-58,-29,-126,-146,-180,-107,-122
-19,-68,-48,43,14,-58,-29,-126,-146,-185,-107,-126
-19,-68,-48,43,14,-58,-29,-126,-146,-190,-107,-131
-19,-68,-48,43,14,-58,-29,-126,-146,-195,-107,-136
-19,-78,-58,48,19,-68,-43,-126,-146,-185,-107,-136
-19,-87,-68,53,24,-78,-48,-126,-146,-185,-107,-136
-19,-97,-78,58,29,-87,-53,-126,-146,-185,-107,-136
-19,-107,-87,63,34,-97,-58,-126,-146,-185,-107,-136
-19,-102,-82,61,31,-92,-63,-136,-151,-195,-107,-136
-19,-97,-78,58,29,-87,-68,-136,-156,-195,-107,-136
-19,-92,-73,56,26,-82,-73,-136,-161,-195,-107,-136
-19,-87,-68,53,24,-78,-78,-136,-165,-195,-107,-136
-29,-78,-48,53,9,-63,-87,-146,-165,-200,-117,-146
-29,-78,-48,53,9,-63,-87,-146,-165,-204,-117,-146
-29,-78,-48,53,9,-63,-87,-146,-165,-209,-117,-146
-29,-78,-48,53,9,-63,-87,-146,-165,-214,-117,-146
-29,-82,-53,56,12,-68,-82,-141,-161,-200,-117,-136
-29,-87,-58,58,14,-73,-78,-136,-156,-195,-117,-136
-29,-92,-63,61,17,-78,-73,-131,-151,-190,-117,-136
-29,-97,-68,63,19,-82,-68,-126,-146,-185,-117,-136
-29,-87,-58,58,14,-73,-78,-126,-146,-185,-107,-126
-29,-87,-58,58,14,-73,-78,-126,-146,-185,-107,-126
-29,-87,-58,58,14,-73,-78,-126,-146,-185,-107,-126
-29,-87,-58,58,14,-73,-78,-126,-146,-185,-107,-126
-19,-73,-53,46,17,-63,-73,-136,-136,-185,-107,-136
-19,-68,-48,43,14,-58,-68,-136,-136,-185,-107,-136
-19,-63,-43,41,12,-53,-63,-136,-136,-185,-107,-136
-19,-58,-39,39,9,-48,-58,-136,-136,-185,-107,-136
-29,-48,-19,39,-4,-34,-48,-126,-136,-175,-97,-126
-29,-48,-19,39,-4,-34,-48,-126,-136,-175,-97,-126
-29,-48,-19,39,-4,-34,-48,-126,-136,-175,-97,-126
-29,-48,-19,39,-4,-34,-48,-126,-136,-175,-97,-126
-39,-39,0,39,-19,-19,-48,-136,-136,-185,-107,-126
-39,-39,0,39,-19,-19,-48,-136,-136,-185,-107,-126
-39,-39,0,39,-19,-19,-48,-136,-136,-185,-107,-126
-39,-39,0,39,-19,-19,-48,-136,-136,-185,-107,-126
-34,-43,-9,39,-12,-26,-39,-126,-136,-175,-107,-126
-29,-48,-19,39,-4,-34,-39,-126,-136,-175,-107,-126
-24,-53,-29,39,2,-41,-39,-126,-136,-175,-107,-126
-19,-58,-39,39,9,-48,-39,-126,-136,-175,-107,-126
-29,-63,-34,46,2,-48,-29,-126,-146,-185,-107,-126
-29,-68,-39,48,4,-53,-29,-126,-146,-185,-107,-126
-29,-73,-43,51,7,-58,-29,-126,-146,-185,-107,-126
-29,-78,-48,53,9,-63,-29,-126,-146,-185,-107,-126
-29,-73,-43,51,7,-58,-19,-117,-141,-175,-117,-126
-29,-68,-39,48,4,-53,-19,-117,-136,-175,-117,-126
-29,-63,-34,46,2,-48,-19,-117,-131,-175,-117,-126
-29,-58,-29,43,0,-43,-19,-117,-126,-175,-117,-126
-29,-48,-19,39,-4,-34,-29,-107,-136,-185,-117,-136
-29,-48,-19,39,-4,-34,-29,-107,-136,-185,-117,-136
-29,-48,-19,39,-4,-34,-29,-107,-136,-185,-117,-136
-29,-48,-19,39,-4,-34,-29,-107,-136,-185,-117,-136
-19,-58,-39,39,9,-48,-29,-107,-136,-185,-117,-126
-19,-58,-39,39,9,-48,-29,-107,-136,-185,-117,-126
-19,-58,-39,39,9,-48,-29,-107,-136,-185,-117,-126
-19,-58,-39,39,9,-48,-29,-107,-136,-185,-117,-126
-19,-48,-29,34,4,-39,-29,-107,-136,-180,-107,-136
-19,-48,-29,34,4,-39,-29,-107,-136,-175,-107,-136
-19,-48,-29,34,4,-39,-29,-107,-136,-170,-107,-136
-19,-48,-29,34,4,-39,-29,-107,-136,-165,-107,-136
-29,-48,-19,39,-4,-34,-19,-107,-136,-175,-117,-136
-29,-48,-19,39,-4,-34,-19,-107,-136,-175,-117,-136
-29,-48,-19,39,-4,-34,-19,-107,-136,-175,-117,-136
-29,-48,-19,39,-4,-34,-19,-107,-136,-175,-117,-136
-19,-48,-29,34,4,-39,-19,-107,-141,-190,-131,-146
-19,-48,-29,34,4,-39,-19,-107,-146,-195,-136,-146
-19,-48,-29,34,4,-39,-19,-107,-151,-200,-141,-146
-19,-48,-29,34,4,-39,-19,-107,-156,-204,-146,-146
-19,-48,-29,34,4,-39,-19,-107,-151,-190,-131,-141
-19,-48,-29,34,4,-39,-19,-107,-146,-185,-126,-136
-19,-48,-29,34,4,-39,-19,-107,-141,-180,-122,-131
-19,-48,-29,34,4,-39,-19,-107,-136,-175,-117,-126
-29,-58,-29,43,0,-43,-24,-107,-136,-175,-117,-126
-29,-58,-29,43,0,-43,-29,-107,-136,-175,-117,-126
-29,-58,-29,43,0,-43,-34,-107,-136,-175,-117,-126
-29,-58,-29,43,0,-43,-39,-107,-136,-175,-117,-126
-19,-68,-48,43,14,-58,-53,-112,-151,-185,-126,-141
-19,-68,-48,43,14,-58,-58,-117,-156,-195,-136,-146
-19,-68,-48,43,14,-58,-63,-122,-161,-204,-146,-151
-19,-68,-48,43,14,-58,-68,-126,-165,-214,-156,-156
-24,-78,-53,51,14,-65,-58,-117,-161,-200,-141,-151
-29,-78,-48,53,9,-63,-58,-117,-156,-195,-136,-146
-34,-78,-43,56,4,-61,-58,-117,-151,-190,-131,-141
-39,-78,-39,58,0,-58,-58,-117,-146,-185,-126,-136
-34,-78,-43,56,4,-61,-58,-126,-156,-190,-131,-146
-29,-78,-48,53,9,-63,-58,-126,-156,-195,-136,-146
-24,-78,-53,51,14,-65,-58,-126,-156,-200,-141,-146
-19,-78,-58,48,19,-68,-58,-126,-156,-204,-146,-146
-9,-63,-53,36,21,-58,-63,-126,-146,-200,-141,-136
-9,-58,-48,34,19,-53,-68,-126,-146,-195,-136,-136
-9,-53,-43,31,17,-48,-73,-126,-146,-190,-131,-136
-9,-48,-39,29,14,-43,-78,-126,-146,-185,-126,-136
-9,-58,-48,34,19,-53,-78,-131,-146,-185,-126,-136
-9,-58,-48,34,19,-53,-78,-136,-146,-185,-126,-136
-9,-58,-48,34,19,-53,-78,-141,-146,-185,-126,-136
-9,-58,-48,34,19,-53,-78,-146,-146,-185,-126,-136
-14,-58,-43,36,14,-51,-73,-146,-151,-190,-131,-146
-19,-58,-39,39,9,-48,-68,-146,-156,-195,-136,-146
-24,-58,-34,41,4,-46,-63,-146,-161,-200,-141,-146
-29,-58,-29,43,0,-43,-58,-146,-165,-204,-146,-146
-29,-58,-29,43,0,-43,-48,-146,-156,-204,-136,-136
-29,-58,-29,43,0,-43,-48,-146,-156,-204,-136,-136
-29,-58,-29,43,0,-43,-48,-146,-156,-204,-136,-136
-29,-58,-29,43,0,-43,-48,-146,-156,-204,-136,-136
-19,-58,-39,39,9,-48,-48,-141,-151,-200,-136,-136
-19,-58,-39,39,9,-48,-48,-136,-146,-195,-136,-136
-19,-58,-39,39,9,-48,-48,-131,-141,-190,-136,-136
-19,-58,-39,39,9,-48,-48,-126,-136,-185,-136,-136
-19,-43,-24,31,2,-34,-48,-136,-126,-185,-131,-136
-19,-39,-19,29,0,-29,-48,-136,-126,-185,-126,-136
-19,-34,-14,26,-2,-24,-48,-136,-126,-185,-122,-136
-19,-29,-9,24,-4,-19,-48,-136,-126,-185,-117,-136
-14,-34,-19,24,2,-26,-48,-126,-141,-190,-122,-146
-9,-39,-29,24,9,-34,-48,-126,-146,-195,-126,-146
-4,-43,-39,24,17,-41,-48,-126,-151,-200,-131,-146
-9,-48,-39,29,14,-43,-48,-126,-156,-204,-141,-146
-14,-63,-48,39,17,-56,-48,-126,-156,-200,-141,-156
-14,-63,-48,39,17,-56,-48,-131,-151,-200,-141,-156
-19,-68,-48,43,14,-58,-48,-131,-151,-200,-141,-156
-24,-82,-58,53,17,-70,-48,-131,-151,-200,-136,-151
-19,-73,-53,46,17,-63,-48,-126,-151,-214,-146,-161
-19,-68,-48,43,14,-58,-48,-126,-156,-214,-151,-161
-24,-63,-39,43,7,-51,-48,-126,-156,-214,-151,-161
-24,-53,-29,39,2,-41,-48,-126,-156,-209,-156,-165
-14,-53,-39,34,12,-46,-39,-122,-151,-195,-141,-165
-14,-53,-39,34,12,-46,-34,-117,-141,-190,-136,-161
-14,-53,-39,34,12,-46,-34,-112,-136,-185,-131,-151
-14,-53,-39,34,12,-46,-34,-107,-131,-185,-126,-146
-19,-43,-24,31,2,-34,-34,-97,-126,-180,-117,-136
-14,-48,-34,31,9,-41,-34,-97,-136,-175,-117,-136
-19,-48,-29,34,4,-39,-34,-102,-136,-175,-112,-136
-24,-43,-19,34,-2,-31,-34,-102,-136,-170,-112,-136
-19,-39,-19,29,0,-29,-34,-112,-136,-175,-122,-141
-14,-29,-14,21,0,-21,-34,-112,-136,-185,-126,-141
-9,-24,-14,17,2,-19,-39,-112,-131,-190,-131,-146
-4,-19,-14,12,4,-17,-43,-112,-131,-195,-136,-151
-4,-24,-19,14,7,-21,-53,-102,-141,-190,-136,-151
-4,-29,-24,17,9,-26,-48,-102,-141,-190,-136,-146
-4,-39,-34,21,14,-36,-48,-102,-141,-190,-136,-146
-9,-48,-39,29,14,-43,-48,-102,-141,-190,-136,-146
-14,-53,-39,34,12,-46,-43,-112,-141,-195,-136,-156
-19,-58,-39,39,9,-48,-39,-112,-141,-195,-136,-156
-29,-68,-39,48,4,-53,-34,-112,-141,-195,-141,-156
-34,-73,-39,53,2,-56,-29,-117,-141,-200,-151,-161
-24,-63,-39,43,7,-51,-43,-117,-146,-209,-161,-165
-24,-63,-39,43,7,-51,-43,-122,-156,-209,-161,-165
-19,-63,-43,41,12,-53,-43,-122,-161,-209,-161,-161
-19,-63,-43,41,12,-53,-43,-122,-165,-209,-161,-161
-24,-58,-34,41,4,-46,-39,-117,-161,-204,-156,-165
-29,-58,-29,43,0,-43,-39,-112,-161,-200,-151,-161
-29,-58,-29,43,0,-43,-34,-112,-156,-190,-146,-156
-24,-58,-34,41,4,-46,-34,-107,-151,-185,-141,-151
-14,-48,-34,31,9,-41,-43,-107,-141,-185,-146,-156
-14,-43,-29,29,7,-36,-48,-107,-141,-185,-146,-156
-14,-43,-29,29,7,-36,-48,-107,-141,-190,-146,-156
-9,-48,-39,29,14,-43,-48,-107,-146,-190,-146,-156
-14,-39,-24,26,4,-31,-43,-117,-146,-190,-136,-146
-24,-39,-14,31,-4,-26,-43,-117,-146,-190,-136,-146
-29,-39,-9,34,-9,-24,-48,-117,-146,-190,-136,-146
-34,-39,-4,36,-14,-21,-48,-117,-146,-190,-136,-146
-39,-53,-14,46,-12,-34,-43,-131,-151,-195,-146,-146
-43,-58,-14,51,-14,-36,-39,-131,-156,-200,-151,-146
-48,-63,-14,56,-17,-39,-34,-131,-161,-204,-156,-146
-53,-68,-14,61,-19,-41,-29,-131,-165,-209,-161,-151
-48,-68,-19,58,-14,-43,-24,-136,-156,-200,-151,-151
-48,-68,-19,58,-14,-43,-24,-136,-156,-200,-151,-151
-48,-68,-19,58,-14,-43,-24,-136,-161,-200,-151,-151
-43,-68,-24,56,-9,-46,-24,-136,-161,-200,-151,-151
-43,-68,-24,56,-9,-46,-29,-136,-151,-190,-141,-151
-48,-68,-19,58,-14,-43,-34,-136,-146,-190,-141,-151
-53,-78,-24,65,-14,-51,-34,-136,-146,-190,-141,-151
-53,-78,-24,65,-14,-51,-39,-136,-146,-190,-141,-151
-39,-63,-24,51,-7,-43,-43,-151,-156,-200,-151,-161
-39,-63,-24,51,-7,-43,-48,-151,-161,-204,-156,-165
-39,-63,-24,51,-7,-43,-53,-146,-161,-204,-161,-165
-39,-63,-24,51,-7,-43,-58,-146,-165,-209,-161,-170
-39,-63,-24,51,-7,-43,-63,-161,-180,-214,-165,-180
-43,-68,-24,56,-9,-46,-68,-161,-185,-224,-175,-180
-53,-73,-19,63,-17,-46,-73,-161,-190,-229,-180,-180
-58,-78,-19,68,-19,-48,-78,-161,-195,-229,-180,-180
-48,-73,-24,61,-12,-48,-73,-161,-190,-219,-175,-175
-48,-68,-19,58,-14,-43,-68,-161,-185,-219,-175,-170
-48,-63,-14,56,-17,-39,-68,-161,-180,-224,-175,-170
-48,-58,-9,53,-19,-34,-63,-161,-175,-224,-170,-165
-48,-73,-24,61,-12,-48,-58,-146,-165,-214,-161,-161
-48,-78,-29,63,-9,-53,-53,-146,-165,-209,-161,-161
-48,-82,-34,65,-7,-58,-43,-141,-165,-209,-156,-161
-48,-92,-43,70,-2,-68,-39,-131,-165,-209,-156,-161
-48,-87,-39,68,-4,-63,-48,-141,-161,-204,-156,-151
-48,-82,-34,65,-7,-58,-48,-141,-156,-200,-151,-151
-48,-78,-29,63,-9,-53,-48,-141,-151,-195,-151,-151
-48,-73,-24,61,-12,-48,-48,-141,-146,-190,-151,-151
-58,-58,0,58,-29,-29,-43,-126,-151,-195,-161,-161
-58,-58,0,58,-29,-29,-39,-126,-156,-200,-161,-161
-58,-58,0,58,-29,-29,-39,-126,-161,-204,-161,-161
-58,-58,0,58,-29,-29,-34,-131,-165,-209,-161,-161
-48,-58,-9,53,-19,-34,-43,-131,-161,-204,-156,-151
-48,-58,-9,53,-19,-34,-39,-126,-156,-200,-151,-151
-53,-63,-9,58,-21,-36,-39,-126,-151,-195,-146,-151
-58,-68,-9,63,-24,-39,-39,-126,-146,-190,-141,-151
-63,-53,9,58,-36,-21,-48,-122,-117,-170,-131,-141
-58,-34,24,46,-41,-4,-29,-117,-117,-170,-141,-146
-48,-43,4,46,-26,-19,-9,-102,-136,-200,-156,-161
-48,-58,-9,53,-19,-34,-14,-92,-146,-204,-165,-170
-53,-68,-14,61,-19,-41,-9,-63,-112,-170,-146,-170
-48,-73,-24,61,-12,-48,-4,-43,-63,-126,-107,-151
-39,-68,-29,53,-4,-48,-14,-14,-24,-68,-63,-112
-29,-53,-24,41,-2,-39,-19,24,29,-4,-4,-63
-24,-29,-4,26,-9,-17,-39,58,92,82,78,-9
-9,24,34,-7,-21,29,-48,112,151,180,161,53
24,102,78,-63,-26,90,-48,200,253,297,283,141
58,200,141,-129,-41,170,-78,336,419,502,463,268
112,312,200,-212,-43,256,-107,522,624,766,712,458
156,409,253,-283,-48,331,-122,678,800,1005,956,653
219,488,268,-353,-24,378,-165,751,902,1190,1137,810
307,556,248,-431,29,402,-219,751,966,1342,1293,941
419,639,219,-529,100,429,-297,736,1029,1483,1459,1078
531,712,180,-622,175,446,-370,712,1068,1615,1629,1239
580,785,204,-683,187,495,-444,570,1010,1620,1703,1361
590,839,248,-714,170,544,-522,326,805,1464,1629,1371
585,878,292,-732,146,585,-561,92,551,1220,1468,1298
522,868,346,-695,87,607,-546,-97,331,897,1180,1132
361,824,463,-592,-51,644,-468,-331,87,488,785,858
170,814,644,-492,-236,729,-375,-590,-136,92,414,600
14,790,775,-402,-380,783,-307,-805,-297,-161,170,424
-87,766,854,-339,-470,810,-258,-956,-405,-317,9,312
-156,761,917,-302,-536,839,-190,-1024,-458,-414,-63,253
-214,751,966,-268,-590,858,-146,-1029,-468,-444,-107,190
-244,727,971,-241,-607,849,-141,-980,-458,-444,-136,136
-219,697,917,-239,-568,807,-156,-888,-444,-419,-136,117
-180,639,819,-229,-500,729,-190,-771,-405,-385,-117,92
-146,546,692,-200,-419,619,-234,-678,-366,-331,-107,68
-122,444,566,-161,-344,505,-234,-580,-317,-292,-97,53
-117,336,453,-109,-285,395,-204,-478,-278,-268,-102,9
-102,258,361,-78,-231,309,-185,-400,-234,-234,-112,-9
-87,219,307,-65,-197,263,-165,-331,-180,-185,-82,-19
-82,175,258,-46,-170,217,-146,-287,-146,-156,-82,-24
-73,131,204,-29,-139,168,-122,-244,-146,-161,-97,-53
-58,97,156,-19,-107,126,-102,-209,-175,-195,-131,-87
-48,63,112,-7,-80,87,-87,-190,-170,-204,-131,-87
-48,43,92,2,-70,68,-73,-165,-146,-185,-126,-87
-48,29,78,9,-63,53,-63,-151,-131,-175,-126,-102
-39,4,43,17,-41,24,-53,-141,-117,-170,-122,-117
-29,-24,4,26,-17,-9,-29,-112,-107,-141,-112,-112
-34,-53,-19,43,-7,-36,-29,-102,-97,-146,-112,-112
-43,-63,-19,53,-12,-41,-19,-87,-97,-156,-117,-117
-43,-63,-19,53,-12,-41,-9,-87,-97,-156,-122,-126
-43,-63,-19,53,-12,-41,-9,-82,-97,-156,-126,-131
-43,-73,-29,58,-7,-51,-4,-82,-97,-156,-131,-136
-43,-97,-53,70,4,-75,4,-73,-92,-156,-122,-131
-48,-102,-53,75,2,-78,14,-63,-82,-141,-117,-131
-48,-112,-63,80,7,-87,14,-58,-82,-141,-117,-131
-48,-117,-68,82,9,-92,14,-58,-82,-141,-117,-131
-53,-131,-78,92,12,-104,14,-63,-87,-146,-122,-141
-58,-131,-73,95,7,-102,14,-63,-97,-151,-131,-141
-63,-136,-73,100,4,-104,14,-63,-102,-156,-136,-141
-73,-146,-73,109,0,-109,14,-53,-107,-161,-136,-141
-58,-156,-97,107,19,-126,14,-48,-97,-161,-141,-141
-53,-161,-107,107,26,-134,14,-48,-92,-161,-141,-141
-48,-170,-122,109,36,-146,14,-48,-92,-161,-146,-146
-43,-175,-131,109,43,-153,14,-48,-92,-161,-146,-146
-43,-175,-131,109,43,-153,24,-29,-78,-141,-126,-131
-43,-175,-131,109,43,-153,24,-29,-73,-136,-117,-131
-43,-170,-126,107,41,-148,24,-29,-73,-131,-112,-131
-43,-170,-126,107,41,-148,24,-29,-73,-126,-107,-126
-43,-156,-112,100,34,-134,19,-19,-82,-126,-112,-131
-43,-156,-112,100,34,-134,19,-19,-78,-131,-112,-131
-43,-156,-112,100,34,-134,19,-14,-78,-136,-117,-136
-43,-156,-112,100,34,-134,19,-9,-78,-141,-122,-136
-34,-170,-136,102,51,-153,19,-14,-68,-126,-117,-131
-34,-170,-136,102,51,-153,19,-14,-68,-122,-112,-126
-34,-170,-136,102,51,-153,19,-14,-63,-112,-102,-122
-34,-170,-136,102,51,-153,19,-14,-63,-107,-92,-117
-43,-175,-131,109,43,-153,29,-4,-53,-112,-102,-122
-43,-170,-126,107,41,-148,34,-4,-53,-112,-102,-122
-43,-175,-131,109,43,-153,34,0,-53,-112,-102,-117
-39,-175,-136,107,48,-156,34,0,-48,-112,-97,-117
-29,-165,-136,97,53,-151,24,0,-58,-107,-97,-107
-29,-156,-126,92,48,-141,24,4,-58,-107,-97,-107
-29,-156,-126,92,48,-141,29,4,-58,-107,-92,-107
-29,-161,-131,95,51,-146,29,9,-53,-102,-87,-107
-19,-161,-141,90,61,-151,29,14,-39,-97,-78,-97
-19,-161,-141,90,61,-151,34,24,-29,-87,-78,-97
-19,-161,-141,90,61,-151,34,34,-24,-82,-78,-92
-19,-165,-146,92,63,-156,39,39,-19,-78,-73,-92
-24,-161,-136,92,56,-148,34,34,-34,-78,-82,-102
-24,-151,-126,87,51,-139,29,34,-29,-78,-78,-102
-24,-141,-117,82,46,-129,24,29,-34,-78,-78,-97
-24,-136,-112,80,43,-124,19,29,-39,-78,-68,-92
-9,-131,-122,70,56,-126,9,24,-34,-78,-78,-92
-14,-131,-117,73,51,-124,4,19,-34,-78,-78,-92
-9,-136,-126,73,58,-131,4,24,-34,-78,-78,-92
-4,-136,-131,70,63,-134,9,19,-34,-78,-78,-92
-9,-126,-117,68,53,-122,19,14,-34,-73,-68,-92
-9,-126,-117,68,53,-122,24,19,-34,-73,-68,-92
-14,-126,-112,70,48,-119,24,24,-24,-73,-63,-87
-19,-126,-107,73,43,-117,19,24,-19,-73,-58,-87
-19,-126,-107,73,43,-117,14,24,-19,-68,-63,-92
-19,-126,-107,73,43,-117,9,29,-19,-63,-63,-92
-14,-126,-112,70,48,-119,4,34,-14,-63,-63,-87
-9,-122,-112,65,51,-117,0,43,-9,-58,-63,-87
-9,-112,-102,61,46,-107,4,34,-9,-53,-63,-78
-9,-112,-102,61,46,-107,9,34,-4,-53,-58,-78
-9,-117,-107,63,48,-112,14,48,-4,-48,-48,-73
-9,-117,-107,63,48,-112,19,53,0,-34,-48,-73
-14,-122,-107,68,46,-114,29,63,14,-19,-43,-63
-14,-122,-107,68,46,-114,29,68,19,-19,-39,-58
-19,-122,-102,70,41,-112,29,82,19,-19,-29,-53
-24,-122,-97,73,36,-109,29,102,24,-9,-19,-48
-9,-112,-102,61,46,-107,19,97,19,-19,-29,-48
-4,-107,-102,56,48,-104,19,97,19,-14,-29,-43
-4,-102,-97,53,46,-100,19,97,24,-4,-29,-43
-4,-97,-92,51,43,-95,19,102,29,4,-19,-43
-14,-97,-82,56,34,-90,19,112,29,0,-24,-43
-14,-92,-78,53,31,-85,19,117,34,4,-19,-43
-14,-92,-78,53,31,-85,19,131,43,9,-14,-48
-14,-92,-78,53,31,-85,19,136,48,14,-4,-53
-9,-82,-73,46,31,-78,9,146,58,14,-4,-43
-4,-82,-78,43,36,-80,9,151,58,24,-4,-39
9,-78,-87,34,48,-82,9,151,63,34,4,-39
14,-78,-92,31,53,-85,9,151,68,39,9,-39
29,-87,-117,29,73,-102,9,170,68,39,14,-24
29,-87,-117,29,73,-102,9,170,78,43,14,-24
24,-87,-112,31,68,-100,14,185,82,43,19,-14
19,-82,-102,31,61,-92,19,195,87,43,29,-14
29,-73,-102,21,65,-87,9,190,87,48,19,-24
39,-73,-112,17,75,-92,4,190,87,48,19,-24
39,-73,-112,17,75,-92,4,204,92,58,29,-19
39,-73,-112,17,75,-92,4,214,97,58,34,-14
39,-58,-97,9,68,-78,14,219,107,68,43,-4
43,-58,-102,7,73,-80,19,229,107,73,43,-4
43,-53,-97,4,70,-75,19,234,107,78,48,-4
43,-53,-97,4,70,-75,24,244,107,78,48,4
48,-48,-97,0,73,-73,24,248,102,73,43,4
53,-48,-102,-2,78,-75,19,248,107,78,48,4
58,-43,-102,-7,80,-73,19,248,107,78,53,0
73,-43,-117,-14,95,-80,19,248,102,78,58,-4
78,-29,-107,-24,92,-68,29,248,107,82,68,4
82,-29,-112,-26,97,-70,24,248,107,87,68,9
87,-29,-117,-29,102,-73,24,248,112,92,68,14
92,-29,-122,-31,107,-75,24,244,112,92,63,19
92,-24,-117,-34,104,-70,29,248,97,82,53,14
97,-19,-117,-39,107,-68,29,248,97,82,53,19
97,-9,-107,-43,102,-58,29,248,87,82,53,19
102,0,-102,-51,102,-51,14,244,82,82,48,19
117,4,-112,-61,114,-53,24,234,92,82,53,19
112,4,-107,-58,109,-51,24,234,92,82,58,19
117,9,-107,-63,112,-48,14,234,82,78,63,19
126,9,-117,-68,122,-53,14,224,78,68,68,19
136,14,-122,-75,129,-53,24,214,73,78,82,34
136,19,-117,-78,126,-48,24,214,68,78,82,39
141,24,-117,-82,129,-46,14,209,73,78,68,39
141,29,-112,-85,126,-41,14,200,73,73,68,43
180,39,-141,-109,161,-51,4,185,53,58,58,34
175,39,-136,-107,156,-48,19,185,58,78,78,48
165,39,-126,-102,146,-43,29,175,58,73,78,58
165,39,-126,-102,146,-43,29,175,58,68,78,58
165,39,-126,-102,146,-43,29,175,58,63,78,58
165,39,-126,-102,146,-43,29,175,58,58,78,58
151,48,-102,-100,126,-26,29,156,53,43,68,53
146,48,-97,-97,122,-24,29,136,48,43,63,48
146,53,-92,-100,119,-19,29,112,48,39,58,43
141,53,-87,-97,114,-17,29,92,43,34,53,39
151,58,-92,-104,122,-17,19,68,29,19,48,29
156,58,-97,-107,126,-19,9,48,24,9,39,24
156,63,-92,-109,124,-14,9,34,14,4,24,19
151,68,-82,-109,117,-7,9,19,9,0,14,14
141,68,-73,-104,107,-2,14,4,0,-14,4,4
141,63,-78,-102,109,-7,19,0,-9,-24,0,-4
141,58,-82,-100,112,-12,29,-4,-14,-34,-4,-9
141,53,-87,-97,114,-17,34,-9,-24,-43,-9,-9
131,53,-78,-92,104,-12,39,-19,-14,-48,-14,-19
131,53,-78,-92,104,-12,43,-19,-19,-48,-19,-19
141,48,-92,-95,117,-21,48,-19,-29,-48,-24,-19
141,48,-92,-95,117,-21,53,-24,-29,-53,-24,-19
141,63,-78,-102,109,-7,48,-29,-34,-58,-29,-29
141,63,-78,-102,109,-7,43,-34,-39,-63,-39,-24
141,68,-73,-104,107,-2,39,-39,-43,-73,-43,-24
141,68,-73,-104,107,-2,29,-43,-43,-78,-48,-29
131,68,-63,-100,97,2,34,-53,-53,-78,-48,-43
131,68,-63,-100,97,2,34,-53,-53,-73,-48,-43
131,68,-63,-100,97,2,39,-53,-53,-73,-48,-39
131,63,-68,-97,100,-2,39,-53,-53,-73,-48,-39
126,58,-68,-92,97,-4,29,-53,-53,-73,-48,-39
126,58,-68,-92,97,-4,29,-53,-53,-78,-48,-39
126,58,-68,-92,97,-4,29,-53,-53,-78,-48,-39
122,53,-68,-87,95,-7,29,-53,-53,-78,-53,-39
117,43,-73,-80,95,-14,34,-58,-53,-82,-63,-43
112,43,-68,-78,90,-12,34,-58,-53,-92,-63,-48
107,43,-63,-75,85,-9,39,-63,-58,-92,-63,-48
107,43,-63,-75,85,-9,43,-63,-58,-92,-63,-43
107,53,-53,-80,80,0,34,-53,-58,-92,-53,-34
102,48,-53,-75,78,-2,29,-53,-58,-92,-53,-43
97,48,-48,-73,73,0,29,-53,-63,-92,-53,-43
97,48,-48,-73,73,0,34,-58,-63,-87,-53,-43
102,58,-43,-80,73,7,24,-48,-58,-78,-53,-34
102,58,-43,-80,73,7,24,-48,-53,-78,-48,-29
102,63,-39,-82,70,12,19,-48,-48,-78,-48,-29
102,63,-39,-82,70,12,19,-48,-43,-82,-48,-29
97,68,-29,-82,63,19,19,-48,-39,-78,-39,-19
97,68,-29,-82,63,19,24,-48,-39,-73,-39,-19
92,68,-24,-80,58,21,24,-48,-39,-68,-39,-19
92,68,-24,-80,58,21,19,-48,-39,-63,-39,-19
82,68,-14,-75,48,26,19,-39,-39,-73,-39,-19
82,68,-14,-75,48,26,19,-43,-39,-73,-43,-19
82,68,-14,-75,48,26,19,-43,-39,-73,-43,-19
82,68,-14,-75,48,26,19,-43,-39,-73,-43,-19
82,63,-19,-73,51,21,29,-34,-29,-63,-43,-24
78,58,-19,-68,48,19,34,-29,-29,-63,-43,-24
78,53,-24,-65,51,14,34,-29,-29,-63,-43,-24
78,48,-29,-63,53,9,34,-29,-34,-63,-43,-24
82,39,-43,-61,63,-2,34,-29,-24,-63,-43,-24
82,39,-43,-61,63,-2,34,-29,-24,-63,-43,-24
78,39,-39,-58,58,0,34,-29,-19,-63,-43,-24
73,29,-43,-51,58,-7,39,-29,-19,-63,-43,-24
68,34,-34,-51,51,0,39,-19,-19,-53,-43,-24
68,43,-24,-56,46,9,39,-24,-24,-58,-48,-29
63,48,-14,-56,39,17,39,-24,-24,-58,-48,-29
58,53,-4,-56,31,24,39,-19,-19,-53,-48,-24
73,63,-9,-68,41,26,29,-9,-9,-48,-39,-14
82,68,-14,-75,48,26,29,-14,-9,-43,-34,-14
87,68,-19,-78,53,24,29,-14,-9,-43,-34,-14
87,68,-19,-78,53,24,29,-14,-9,-39,-29,-14
78,58,-19,-68,48,19,39,-9,-9,-34,-14,-4
78,58,-19,-68,48,19,39,-4,-9,-34,-14,-4
78,58,-19,-68,48,19,39,0,-9,-34,-19,-4
78,58,-19,-68,48,19,34,4,-9,-39,-24,-9
87,48,-39,-68,63,4,43,-4,-19,-43,-34,-14
87,48,-39,-68,63,4,43,-4,-19,-48,-34,-14
87,48,-39,-68,63,4,43,-9,-19,-48,-34,-19
87,48,-39,-68,63,4,48,-9,-19,-53,-29,-24
87,53,-34,-70,61,9,58,-4,-9,-43,-29,-14
87,53,-34,-70,61,9,58,-4,-9,-43,-29,-14
87,53,-34,-70,61,9,58,-4,-9,-43,-24,-14
87,53,-34,-70,61,9,58,-4,-9,-43,-24,-14
102,53,-48,-78,75,2,48,-4,-9,-53,-24,-24
107,58,-48,-82,78,4,48,0,-9,-53,-24,-24
112,58,-53,-85,82,2,48,0,-9,-53,-24,-24
117,58,-58,-87,87,0,43,0,-9,-53,-24,-24
107,58,-48,-82,78,4,39,-4,-9,-43,-24,-14
107,58,-48,-82,78,4,34,-4,-9,-43,-24,-14
107,58,-48,-82,78,4,34,0,-9,-43,-24,-14
102,53,-48,-78,75,2,29,0,-9,-43,-24,-14
117,58,-58,-87,87,0,39,9,0,-24,-14,-4
131,53,-78,-92,104,-12,39,4,0,-34,-14,-14
117,43,-73,-80,95,-14,39,9,0,-34,-24,-19
97,34,-63,-65,80,-14,58,14,0,-34,-19,-24
117,29,-87,-73,102,-29,63,14,-9,-58,-39,-43
131,19,-112,-75,122,-46,68,24,-4,-63,-58,-63
107,14,-92,-61,100,-39,63,34,4,-48,-48,-63
107,19,-87,-63,97,-34,53,43,34,-19,-34,-53
117,34,-82,-75,100,-24,48,63,68,34,14,-14
112,58,-53,-85,82,2,39,107,112,92,68,19
126,73,-53,-100,90,9,29,170,170,170,141,73
151,131,-19,-141,85,56,48,287,302,326,273,161
195,209,14,-202,90,112,48,463,478,522,453,287
258,302,43,-280,107,173,29,649,663,756,673,458
331,409,78,-370,126,244,-4,824,858,1024,927,653
414,507,92,-461,161,300,-58,917,990,1239,1137,829
522,605,82,-563,219,344,-112,956,1063,1400,1312,990
644,707,63,-675,290,385,-180,980,1137,1561,1488,1156
678,790,112,-734,283,451,-253,917,1166,1644,1620,1288
707,873,165,-790,270,519,-336,756,1098,1620,1664,1361
727,966,239,-846,244,602,-405,502,912,1483,1610,1390
683,995,312,-839,185,653,-444,190,639,1200,1420,1307
551,956,405,-753,73,680,-400,-107,331,810,1083,1102
370,922,551,-646,-90,736,-331,-409,58,390,697,858
200,932,732,-566,-265,832,-268,-697,-126,92,434,678
82,956,873,-519,-395,915,-219,-922,-248,-92,278,590
9,932,922,-470,-456,927,-200,-1063,-366,-258,126,488
-68,897,966,-414,-517,932,-180,-1122,-429,-346,24,380
-126,888,1015,-380,-570,951,-136,-1058,-390,-317,19,346
-126,854,980,-363,-553,917,-122,-941,-341,-287,29,312
-73,785,858,-356,-466,822,-156,-829,-336,-283,0,253
-43,697,741,-326,-392,719,-219,-751,-326,-268,-19,209
-39,614,653,-287,-346,634,-244,-658,-297,-244,-9,185
-34,531,566,-248,-300,549,-224,-541,-258,-204,0,170
0,434,434,-217,-217,434,-185,-429,-209,-180,-4,126
24,326,302,-175,-139,314,-146,-331,-175,-156,-14,78
29,248,219,-139,-95,234,-117,-263,-141,-126,-14,58
43,204,161,-124,-58,183,-78,-209,-107,-107,-14,34
63,180,117,-122,-26,148,-63,-175,-78,-92,-9,24
58,165,107,-112,-24,136,-63,-151,-68,-78,-14,29
58,141,82,-100,-12,112,-58,-151,-73,-97,-34,9
68,122,53,-95,7,87,-43,-136,-78,-107,-48,-9
87,87,0,-87,43,43,-24,-102,-73,-107,-48,-24
87,63,-24,-75,56,19,-14,-82,-68,-102,-53,-39
78,43,-34,-61,56,4,0,-63,-58,-92,-53,-43
82,43,-39,-63,61,2,19,-43,-39,-78,-43,-43
82,43,-39,-63,61,2,9,-48,-29,-78,-43,-43
82,43,-39,-63,61,2,19,-48,-29,-78,-43,-48
82,43,-39,-63,61,2,19,-43,-29,-78,-43,-48
82,34,-48,-58,65,-7,24,-43,-29,-78,-43,-48
87,14,-73,-51,80,-29,19,-43,-29,-82,-43,-63
87,14,-73,-51,80,-29,24,-34,-24,-73,-39,-63
92,9,-82,-51,87,-36,19,-29,-29,-78,-39,-63
97,9,-87,-53,92,-39,14,-29,-34,-82,-39,-63
107,9,-97,-58,102,-43,24,-24,-34,-82,-48,-63
107,14,-92,-61,100,-39,24,-24,-39,-82,-53,-63
107,14,-92,-61,100,-39,24,-24,-39,-82,-53,-63
102,9,-92,-56,97,-41,24,-14,-39,-82,-48,-63
112,14,-97,-63,104,-41,24,-9,-39,-73,-53,-63
112,14,-97,-63,104,-41,24,-9,-34,-73,-53,-63
112,9,-102,-61,107,-46,24,-9,-34,-73,-58,-68
112,9,-102,-61,107,-46,24,-9,-34,-73,-58,-68
112,9,-102,-61,107,-46,29,0,-19,-58,-48,-53
112,9,-102,-61,107,-46,34,0,-14,-58,-39,-53
112,14,-97,-63,104,-41,39,0,-14,-58,-34,-53
112,14,-97,-63,104,-41,43,0,-14,-58,-29,-48
112,29,-82,-70,97,-26,48,9,-4,-53,-39,-43
112,29,-82,-70,97,-26,48,9,0,-53,-34,-43
112,29,-82,-70,97,-26,48,14,0,-53,-34,-48
112,29,-82,-70,97,-26,48,19,0,-53,-34,-48
122,34,-87,-78,104,-26,48,14,0,-43,-24,-48
122,34,-87,-78,104,-26,48,14,0,-43,-24,-48
122,34,-87,-78,104,-26,48,14,4,-39,-19,-48
122,34,-87,-78,104,-26,48,14,4,-39,-14,-48
131,34,-97,-82,114,-31,58,19,14,-24,-14,-34
131,43,-87,-87,109,-21,63,24,14,-24,-14,-34
131,43,-87,-87,109,-21,63,34,14,-24,-14,-29
136,48,-87,-92,112,-19,63,39,19,-24,-9,-29
146,48,-97,-97,122,-24,63,48,29,-9,0,-29
146,58,-87,-102,117,-14,63,53,29,-9,0,-29
146,58,-87,-102,117,-14,68,53,29,-9,4,-29
146,53,-92,-100,119,-19,68,58,34,-4,9,-29
156,63,-92,-109,124,-14,68,68,43,-4,9,-29
156,63,-92,-109,124,-14,73,73,48,0,9,-29
156,63,-92,-109,124,-14,73,78,48,0,9,-24
156,58,-97,-107,126,-19,78,78,48,0,14,-24
151,48,-102,-100,126,-26,87,78,48,4,14,-14
151,53,-97,-102,124,-21,87,82,58,9,19,-14
151,58,-92,-104,122,-17,87,82,58,14,19,-9
151,58,-92,-104,122,-17,87,87,58,19,29,-4
161,73,-87,-117,124,-7,97,92,63,19,29,-4
151,73,-78,-112,114,-2,92,97,63,19,29,-4
151,68,-82,-109,117,-7,92,112,63,19,29,-4
151,68,-82,-109,117,-7,97,117,63,19,29,-4
161,78,-82,-119,122,-2,97,131,78,29,34,4
165,78,-87,-122,126,-4,102,136,82,34,39,4
165,78,-87,-122,126,-4,102,141,97,39,48,9
165,78,-87,-122,126,-4,97,141,107,43,58,9
165,97,-68,-131,117,14,97,131,97,48,63,4
165,97,-68,-131,117,14,97,136,97,53,63,4
170,97,-73,-134,122,12,97,141,102,53,63,9
175,102,-73,-139,124,14,97,151,107,58,63,9
165,112,-53,-139,109,29,92,151,117,73,73,19
165,112,-53,-139,109,29,87,151,122,73,78,19
165,107,-58,-136,112,24,82,165,122,78,87,24
165,107,-58,-136,112,24,78,170,126,92,87,24
175,122,-53,-148,114,34,68,175,141,102,92,29
180,122,-58,-151,119,31,68,175,146,107,97,39
180,122,-58,-151,119,31,68,185,146,112,107,48
180,122,-58,-151,119,31,68,200,151,126,117,58
185,136,-48,-161,117,43,58,200,165,136,126,58
190,136,-53,-163,122,41,58,204,165,141,126,63
190,136,-53,-163,122,41,58,209,170,151,126,63
190,136,-53,-163,122,41,58,219,175,161,136,63
