I,II,III,aVR,aVL,aVF,V1,V2,V3,V4,V5,V6
-9,0,9,4,-9,4,-234,-195,0,-585,-9,-19
-9,0,9,4,-9,4,-223,-195,0,-584,-9,-19
-9,0,9,4,-9,4,-214,-195,0,-584,-9,-19
-8,0,8,4,-8,4,-204,-194,0,-585,-8,-18
-8,0,8,4,-8,4,-195,-194,0,-585,-8,-18
-9,0,9,4,-9,4,-185,-197,0,-584,-11,-19
-9,0,9,4,-9,4,-175,-199,0,-584,-13,-19
-8,0,8,4,-8,4,-164,-202,0,-585,-16,-18
-8,0,8,4,-8,4,-156,-203,0,-585,-18,-18
-9,0,9,4,-9,4,-152,-204,0,-582,-21,-22
-9,0,9,4,-9,4,-151,-204,0,-580,-23,-28
-8,0,8,4,-8,4,-149,-203,0,-578,-26,-34
-8,0,8,4,-8,4,-146,-203,0,-575,-28,-38
-10,0,10,5,-10,5,-141,-204,0,-568,-29,-39
-13,0,13,6,-13,6,-136,-204,0,-561,-28,-39
-16,0,16,8,-16,8,-129,-203,0,-553,-29,-38
-18,0,18,9,-18,9,-126,-203,0,-546,-29,-38
-19,0,19,9,-19,9,-129,-204,0,-538,-26,-39
-19,0,19,9,-19,9,-135,-204,0,-531,-24,-39
-18,0,18,9,-18,9,-141,-203,0,-523,-22,-38
-18,0,18,9,-18,9,-145,-203,0,-517,-19,-38
-19,0,19,9,-19,9,-148,-205,0,-509,-11,-39
-19,0,19,9,-19,9,-150,-208,0,-502,0,-39
-18,0,18,9,-18,9,-152,-211,0,-493,11,-38
-18,0,18,9,-18,9,-155,-213,0,-488,18,-38
-19,1,20,9,-19,10,-161,-214,0,-487,20,-39
-19,3,22,8,-20,12,-169,-214,0,-487,19,-39
-18,6,24,6,-21,15,-178,-213,0,-487,18,-38
-18,8,26,5,-22,17,-184,-213,0,-487,18,-38
-19,9,28,5,-23,18,-186,-216,0,-491,19,-39
-19,9,28,5,-23,18,-185,-218,0,-496,19,-39
-18,8,26,5,-22,17,-183,-221,0,-502,18,-38
-18,8,26,5,-22,17,-184,-223,0,-506,18,-38
-19,11,30,4,-24,20,-189,-224,0,-511,23,-39
-19,13,32,3,-25,22,-194,-224,0,-516,28,-39
-18,16,34,1,-26,25,-200,-223,0,-522,34,-38
-18,18,36,0,-27,27,-203,-224,0,-526,38,-38
-19,19,38,0,-28,28,-206,-223,0,-531,41,-39
-19,19,38,0,-28,28,-208,-223,0,-535,42,-39
-18,18,36,0,-27,27,-211,-225,0,-540,45,-38
-18,18,36,0,-27,27,-213,-224,0,-545,47,-38
-19,19,38,0,-28,28,-214,-218,0,-553,48,-39
-19,19,38,0,-28,28,-213,-209,0,-560,48,-39
-18,19,37,0,-27,28,-214,-199,0,-568,47,-38
-18,19,37,0,-27,28,-214,-194,0,-574,47,-38
-19,18,37,0,-28,27,-209,-200,0,-580,52,-39
-19,18,37,0,-28,27,-204,-208,0,-584,57,-39
-18,19,37,0,-27,28,-198,-214,0,-589,63,-38
-18,19,37,0,-27,28,-195,-223,0,-594,67,-38
-19,17,36,1,-27,26,-194,-243,0,-602,73,-39
-19,14,33,2,-26,23,-194,-267,0,-609,77,-39
-18,11,29,3,-23,20,-195,-290,0,-617,81,-38
-18,9,27,4,-22,18,-195,-311,0,-623,86,-38
-19,8,27,5,-23,17,-190,-333,0,-629,99,-39
-19,8,27,5,-23,17,-185,-355,0,-633,116,-39
-18,9,27,4,-22,18,-179,-379,0,-639,135,-38
-18,9,27,4,-22,18,-175,-399,0,-643,145,-38
-19,8,27,5,-23,17,-170,-415,0,-646,141,-39
-19,8,27,5,-23,17,-165,-428,0,-648,131,-39
-18,9,27,4,-22,18,-160,-444,0,-650,124,-38
-18,9,27,4,-22,18,-156,-457,0,-652,117,-38
-20,8,28,6,-24,18,-151,-464,0,-655,103,-39
-23,8,31,7,-27,19,-146,-467,0,-657,87,-39
-26,9,35,8,-30,22,-141,-473,0,-660,71,-38
-28,9,37,9,-32,23,-136,-477,0,-662,58,-38
-29,5,34,12,-31,19,-130,-478,0,-665,49,-39
-29,0,29,14,-29,14,-126,-478,0,-667,43,-39
-28,-5,23,16,-25,9,-121,-478,0,-669,36,-38
-28,-8,20,18,-24,6,-117,-478,0,-672,29,-38
-29,-9,20,19,-24,5,-110,-475,0,-680,22,-39
-29,-9,20,19,-24,5,-102,-473,0,-691,14,-39
-28,-8,20,18,-24,6,-94,-471,0,-703,5,-38
-28,-8,20,18,-24,6,-87,-468,0,-711,0,-38
-29,-11,18,20,-23,3,-82,-459,0,-715,2,-40
-29,-13,16,21,-22,1,-78,-448,0,-716,8,-42
-28,-16,12,22,-20,-2,-73,-438,0,-719,13,-45
-28,-18,10,23,-19,-4,-68,-429,0,-721,18,-47
-30,-19,11,24,-20,-4,-60,-419,0,-722,30,-48
-33,-19,14,26,-23,-2,-53,-409,0,-721,42,-48
-36,-18,18,27,-27,0,-45,-399,0,-722,53,-47
-38,-18,20,28,-29,1,-39,-390,0,-722,67,-47
-39,-19,20,29,-29,0,-31,-380,0,-717,91,-48
-39,-19,20,29,-29,0,-24,-370,0,-712,121,-48
-38,-18,20,28,-29,1,-16,-359,0,-706,153,-47
-38,-18,20,28,-29,1,-9,-351,0,-702,174,-47
-39,-20,19,29,-29,0,-4,-345,0,-697,178,-48
-39,-23,16,31,-27,-3,0,-341,0,-692,175,-48
-38,-26,12,32,-25,-7,4,-336,0,-687,175,-47
-38,-28,10,33,-24,-9,8,-331,0,-683,175,-47
-39,-29,10,34,-24,-9,13,-326,0,-678,169,-48
-39,-29,10,34,-24,-9,18,-322,0,-673,161,-48
-38,-28,10,33,-24,-9,24,-316,0,-667,153,-47
-38,-28,10,33,-24,-9,28,-312,0,-663,146,-47
-39,-30,9,34,-24,-10,31,-309,0,-660,136,-48
-39,-33,6,36,-22,-13,33,-307,0,-658,126,-48
-38,-36,2,37,-20,-17,36,-304,0,-655,116,-47
-38,-38,0,38,-19,-19,38,-302,0,-653,107,-48
-38,-39,-1,38,-18,-20,40,-301,0,-652,97,-47
-38,-39,-1,38,-18,-20,42,-302,0,-652,87,-47
-39,-38,1,38,-20,-18,45,-301,0,-652,77,-48
-39,-38,1,38,-20,-18,47,-301,0,-652,68,-48
-38,-39,-1,38,-18,-20,48,-306,0,-655,58,-47
-38,-39,-1,38,-18,-20,48,-311,0,-657,48,-47
-39,-38,1,38,-20,-18,48,-316,0,-660,38,-48
-39,-38,1,38,-20,-18,48,-321,0,-662,29,-48
-38,-39,-1,38,-18,-20,45,-330,0,-665,21,-47
-38,-38,0,38,-19,-19,43,-340,0,-667,14,-47
-39,-39,0,39,-19,-19,40,-351,0,-670,6,-48
-39,-39,0,39,-19,-19,39,-360,0,-672,0,-48
-38,-38,0,38,-19,-19,36,-369,0,-675,-1,-47
-38,-38,0,38,-19,-19,34,-379,0,-677,0,-47
-39,-39,0,39,-19,-19,31,-391,0,-680,0,-48
-39,-39,0,39,-19,-19,29,-399,0,-682,0,-48
-37,-38,-1,37,-18,-19,28,-401,0,-687,0,-47
-34,-38,-4,36,-15,-21,29,-400,0,-691,0,-47
-31,-39,-8,35,-11,-23,28,-400,0,-696,0,-48
-29,-39,-10,34,-9,-24,28,-400,0,-701,0,-48
-28,-34,-6,31,-11,-20,31,-395,0,-706,0,-44
-28,-29,-1,28,-13,-15,33,-390,0,-711,0,-39
-29,-24,5,26,-17,-9,35,-385,0,-716,0,-33
-29,-19,10,24,-19,-4,38,-380,0,-721,0,-29
-28,-12,16,20,-22,2,44,-371,0,-727,0,-28
-28,-4,24,16,-26,10,52,-361,0,-731,0,-28
-29,2,31,13,-30,16,60,-351,0,-735,0,-29
-29,8,37,10,-33,22,67,-341,0,-740,0,-29
-28,13,41,7,-34,27,75,-331,0,-751,0,-28
-28,18,46,5,-37,32,81,-322,0,-765,0,-28
-29,24,53,2,-41,38,88,-313,0,-778,0,-29
-29,28,57,0,-43,42,96,-302,0,-789,0,-29
-28,31,59,-1,-43,45,109,-287,0,-801,0,-28
-28,33,61,-2,-44,47,125,-268,0,-813,0,-28
-29,36,65,-3,-47,50,144,-249,0,-825,0,-29
-29,38,67,-4,-48,52,155,-234,0,-838,0,-29
-28,39,67,-5,-47,53,152,-227,0,-852,0,-27
-28,39,67,-5,-47,53,141,-224,0,-867,0,-24
-29,38,67,-4,-48,52,132,-219,0,-882,0,-21
-29,38,67,-4,-48,52,126,-214,0,-896,0,-19
-26,39,65,-6,-45,52,121,-211,0,-907,0,-18
-24,38,62,-7,-43,50,117,-209,0,-916,0,-18
-21,39,60,-9,-40,49,112,-206,0,-927,0,-19
-19,39,58,-10,-38,48,107,-204,0,-935,0,-19
-16,38,54,-11,-35,46,98,-203,0,-937,0,-14
-14,38,52,-12,-33,45,87,-203,0,-936,0,-9
-12,40,52,-14,-32,46,76,-204,0,-935,0,-4
-9,39,48,-15,-28,43,68,-204,0,-935,0,0
-2,30,32,-14,-17,31,64,-200,0,-936,5,5
8,19,11,-13,-1,15,63,-195,0,-936,13,13
21,8,-13,-14,17,-2,60,-189,0,-936,22,22
28,0,-28,-14,28,-14,58,-185,0,-936,28,28
26,-6,-32,-10,29,-19,57,-184,0,-935,29,29
19,-13,-32,-3,25,-22,58,-184,0,-935,28,29
13,-21,-34,4,23,-27,57,-184,0,-936,29,29
9,-28,-37,9,23,-32,57,-184,0,-936,29,29
4,-34,-38,15,21,-36,61,-188,0,-932,22,23
0,-38,-38,19,19,-38,67,-194,0,-927,14,14
-4,-43,-39,23,17,-41,73,-200,0,-921,6,6
-8,-47,-39,27,15,-43,77,-203,0,-917,0,0
-13,-48,-35,30,11,-41,78,-204,0,-916,-6,-2
-18,-48,-30,33,6,-39,78,-203,0,-916,-13,-3
-24,-47,-23,35,0,-35,78,-204,0,-917,-22,-5
-28,-47,-19,37,-4,-33,78,-204,0,-917,-28,-8
-29,-49,-20,39,-4,-34,76,-200,0,-914,-32,-15
-29,-52,-23,40,-3,-37,73,-195,0,-912,-33,-23
-28,-55,-27,41,0,-41,70,-190,0,-910,-36,-32
-28,-57,-29,42,0,-43,68,-185,0,-907,-38,-38
-29,-58,-29,43,0,-43,67,-176,0,-900,-39,-40
-29,-58,-29,43,0,-43,67,-165,0,-893,-39,-39
-28,-57,-29,42,0,-43,68,-154,0,-887,-38,-38
-28,-57,-29,42,0,-43,68,-146,0,-878,-38,-38
-29,-57,-28,43,0,-42,67,-142,0,-862,-40,-40
-29,-57,-28,43,0,-42,67,-141,0,-844,-42,-42
-28,-58,-30,43,1,-44,68,-138,0,-829,-45,-45
-28,-58,-30,43,1,-44,68,-136,0,-810,-47,-47
-29,-56,-27,42,-1,-41,67,-135,0,-781,-52,-48
-29,-53,-24,41,-2,-38,67,-136,0,-742,-57,-48
-28,-50,-22,39,-3,-36,68,-135,0,-701,-63,-47
-28,-48,-20,38,-4,-34,68,-135,0,-673,-67,-47
-30,-47,-17,38,-6,-32,67,-139,0,-670,-70,-49
-33,-47,-14,40,-9,-30,67,-145,0,-673,-72,-52
-36,-48,-12,42,-12,-30,68,-153,0,-665,-75,-55
-38,-48,-10,43,-14,-29,68,-156,0,-672,-77,-57
-39,-45,-6,42,-16,-25,67,-150,0,-716,-78,-58
-39,-43,-4,41,-17,-23,67,-141,0,-782,-78,-58
-38,-40,-2,39,-18,-21,68,-135,0,-844,-77,-57
-38,-39,-1,38,-18,-20,68,-126,0,-895,-77,-57
-39,-38,1,38,-20,-18,66,-106,0,-936,-81,-61
-39,-38,1,38,-20,-18,63,-79,0,-978,-86,-67
-38,-39,-1,38,-18,-20,60,-51,0,-1025,-92,-73
-38,-39,-1,38,-18,-20,58,-29,0,-1062,-96,-77
-40,-38,2,39,-21,-18,57,-14,0,-1069,-97,-78
-42,-38,4,40,-23,-17,58,-4,0,-1063,-97,-78
-45,-39,6,42,-25,-16,57,6,0,-1060,-96,-77
-47,-39,8,43,-27,-15,57,18,0,-1062,-96,-77
-48,-38,10,43,-29,-14,60,32,0,-1065,-97,-78
-48,-38,10,43,-29,-14,62,47,0,-1067,-96,-77
-47,-39,8,43,-27,-15,64,63,0,-1070,-97,-78
-47,-39,8,43,-27,-15,67,77,0,-1072,-97,-78
-51,-38,13,44,-32,-12,73,86,0,-1076,-96,-77
-57,-38,19,47,-38,-9,81,91,0,-1082,-96,-77
-65,-40,25,52,-45,-7,91,97,0,-1092,-99,-79
-68,-39,29,53,-48,-5,96,106,0,-1093,-97,-78
-59,-34,25,46,-42,-4,96,120,0,-1076,-87,-70
-48,-29,19,38,-33,-5,96,144,0,-1063,-81,-63
-41,-27,14,34,-27,-6,104,177,0,-1066,-86,-61
-29,-19,10,24,-19,-4,98,185,0,-1036,-69,-49
-2,2,4,0,-3,3,56,143,0,-926,0,-10
32,28,-4,-30,18,12,-1,84,0,-780,93,37
63,46,-17,-54,40,14,-52,44,0,-653,174,77
95,76,-19,-85,57,28,-104,-15,0,-523,258,123
138,134,-4,-136,71,65,-174,-139,0,-353,371,192
192,215,23,-203,84,119,-263,-314,0,-150,510,282
252,300,48,-276,102,174,-361,-498,0,62,660,379
291,359,68,-325,111,213,-427,-621,0,228,768,446
286,372,86,-329,100,229,-430,-630,0,309,792,454
263,369,106,-316,78,237,-409,-591,0,375,789,439
252,383,131,-317,60,257,-408,-577,0,489,816,441
235,381,146,-308,44,263,-391,-557,0,529,812,430
189,326,137,-257,26,231,-314,-484,0,369,706,366
124,242,118,-183,3,180,-200,-379,0,103,543,272
60,163,103,-111,-21,133,-86,-279,0,-134,390,182
10,99,89,-54,-39,94,-2,-198,0,-332,267,109
-17,53,70,-18,-43,61,35,-137,0,-512,174,57
-37,11,48,13,-42,29,52,-89,0,-702,86,11
-64,-38,26,51,-45,-6,75,-41,0,-915,-16,-43
-86,-76,10,81,-48,-33,105,16,0,-1078,-94,-85
-90,-84,6,87,-48,-39,133,88,0,-1122,-111,-94
-87,-78,9,82,-48,-34,159,166,0,-1107,-97,-87
-86,-78,8,82,-47,-35,186,242,0,-1112,-94,-85
-87,-78,9,82,-48,-34,212,318,0,-1131,-97,-87
-82,-67,15,74,-48,-26,236,400,0,-1138,-92,-84
-73,-48,25,60,-49,-11,261,487,0,-1137,-82,-78
-64,-30,34,47,-49,2,289,575,0,-1137,-73,-72
-58,-19,39,38,-48,10,311,659,0,-1140,-68,-68
-56,-20,36,38,-46,8,319,737,0,-1147,-67,-67
-57,-28,29,42,-43,0,321,815,0,-1155,-67,-67
-58,-35,23,46,-40,-6,326,896,0,-1163,-68,-68
-58,-38,20,48,-39,-9,330,972,0,-1170,-68,-68
-54,-39,15,46,-34,-12,331,1035,0,-1175,-67,-67
-48,-39,9,43,-28,-15,330,1090,0,-1179,-67,-67
-41,-38,3,39,-22,-17,332,1147,0,-1184,-68,-68
-38,-38,0,38,-19,-19,331,1207,0,-1189,-68,-68
-43,-39,4,41,-23,-17,321,1270,0,-1192,-63,-66
-52,-39,13,45,-32,-13,307,1342,0,-1194,-58,-63
-62,-38,24,50,-43,-7,296,1421,0,-1197,-53,-60
-67,-38,29,52,-48,-4,283,1481,0,-1199,-48,-58
-65,-39,26,52,-45,-6,265,1497,0,-1200,-41,-57
-58,-39,19,48,-38,-10,244,1505,0,-1200,-34,-57
-51,-38,13,44,-32,-12,226,1538,0,-1199,-26,-58
-48,-38,10,43,-29,-14,205,1534,0,-1199,-19,-58
-47,-39,8,43,-27,-15,172,1428,0,-1201,-14,-56
-47,-39,8,43,-27,-15,124,1257,0,-1200,-9,-53
-48,-38,10,43,-29,-14,67,1089,0,-1196,-3,-50
-48,-38,10,43,-29,-14,38,970,0,-1199,0,-48
-47,-39,8,43,-27,-15,72,924,0,-1219,0,-47
-47,-39,8,43,-27,-15,142,917,0,-1247,0,-47
-48,-38,10,43,-29,-14,208,900,0,-1273,2,-48
-48,-38,10,43,-29,-14,251,869,0,-1296,0,-48
-46,-40,6,43,-26,-17,263,831,0,-1319,-11,-47
-43,-42,1,42,-22,-20,262,792,0,-1340,-28,-47
-40,-45,-5,42,-17,-25,268,753,0,-1361,-42,-48
-39,-47,-8,43,-15,-27,273,714,0,-1383,-57,-48
-38,-48,-10,43,-14,-29,264,671,0,-1412,-78,-47
-38,-48,-10,43,-14,-29,248,626,0,-1447,-105,-47
-39,-47,-8,43,-15,-27,234,581,0,-1484,-133,-48
-39,-48,-9,43,-15,-28,224,538,0,-1511,-155,-48
-38,-47,-9,42,-14,-28,216,498,0,-1516,-163,-47
-38,-47,-9,42,-14,-28,209,460,0,-1512,-164,-47
-39,-48,-9,43,-15,-28,200,422,0,-1512,-169,-48
-39,-48,-9,43,-15,-28,195,382,0,-1512,-174,-48
-37,-44,-7,40,-15,-25,197,338,0,-1503,-175,-47
-34,-39,-5,36,-14,-22,195,286,0,-1488,-175,-47
-31,-33,-2,32,-14,-17,182,227,0,-1475,-175,-48
-29,-29,0,29,-14,-14,192,186,0,-1464,-175,-48
-26,-28,-2,27,-12,-15,259,183,0,-1458,-172,-44
-24,-28,-4,26,-10,-16,355,199,0,-1454,-170,-39
-21,-29,-8,25,-6,-18,443,206,0,-1450,-168,-33
-19,-29,-10,24,-4,-19,522,213,0,-1444,-165,-29
-18,-28,-10,23,-4,-19,602,235,0,-1436,-157,-28
-18,-28,-10,23,-4,-19,687,270,0,-1429,-146,-28
-19,-29,-10,24,-4,-19,775,308,0,-1425,-136,-29
-19,-29,-10,24,-4,-19,854,330,0,-1415,-126,-29
-17,-28,-11,22,-3,-19,909,325,0,-1391,-115,-25
-14,-28,-14,21,0,-21,962,316,0,-1357,-102,-19
-11,-29,-18,20,3,-23,1029,324,0,-1326,-89,-13
-9,-29,-20,19,5,-24,1072,305,0,-1299,-78,-9
-8,-28,-20,18,6,-24,1049,212,0,-1278,-72,-8
-8,-28,-20,18,6,-24,993,76,0,-1260,-68,-8
-9,-29,-20,19,5,-24,946,-58,0,-1239,-63,-9
-9,-29,-20,19,5,-24,909,-160,0,-1220,-58,-9
-8,-28,-20,18,6,-24,871,-215,0,-1207,-51,-5
-8,-28,-20,18,6,-24,831,-250,0,-1195,-43,0
-9,-29,-20,19,5,-24,789,-298,0,-1182,-35,5
-9,-29,-20,19,5,-24,752,-339,0,-1171,-29,8
-7,-25,-18,16,5,-21,728,-349,0,-1164,-25,9
-4,-19,-15,11,5,-17,712,-341,0,-1161,-24,9
-1,-13,-12,7,5,-12,697,-338,0,-1157,-22,8
0,-9,-9,4,4,-9,674,-340,0,-1151,-19,8
0,-6,-6,3,3,-6,641,-344,0,-1141,-12,12
0,-4,-4,2,2,-4,602,-346,0,-1127,-4,18
0,-2,-2,1,1,-2,565,-344,0,-1113,3,24
0,0,0,0,0,0,529,-350,0,-1102,8,28
1,1,0,-1,0,0,490,-372,0,-1098,10,29
3,3,0,-3,1,1,450,-403,0,-1098,9,29
6,6,0,-6,3,3,409,-431,0,-1096,7,28
8,8,0,-8,4,4,372,-456,0,-1093,8,28
9,9,0,-9,4,4,339,-478,0,-1086,14,30
9,9,0,-9,4,4,308,-500,0,-1078,23,33
8,8,0,-8,4,4,277,-524,0,-1070,32,36
8,8,0,-8,4,4,245,-545,0,-1063,38,38
12,10,-2,-11,7,4,217,-555,0,-1056,40,40
18,13,-5,-15,11,4,191,-560,0,-1049,39,42
24,16,-8,-20,16,4,164,-568,0,-1042,38,44
28,18,-10,-23,19,4,137,-574,0,-1034,38,47
29,19,-10,-24,19,4,111,-575,0,-1025,42,52
29,19,-10,-24,19,4,83,-574,0,-1015,47,57
28,18,-10,-23,19,4,53,-576,0,-1005,53,63
28,18,-10,-23,19,4,30,-575,0,-995,57,67
30,20,-10,-25,20,5,20,-563,0,-984,58,68
33,23,-10,-28,21,6,19,-547,0,-971,58,68
36,26,-10,-31,23,8,15,-532,0,-958,57,67
38,28,-10,-33,24,9,9,-518,0,-946,57,67
39,29,-10,-34,24,9,3,-499,0,-938,61,69
39,29,-10,-34,24,9,-3,-479,0,-932,67,72
38,28,-10,-33,24,9,-11,-459,0,-924,73,75
38,28,-10,-33,24,9,-18,-440,0,-917,77,77
39,29,-10,-34,24,9,-24,-423,0,-911,80,78
39,29,-10,-34,24,9,-28,-406,0,-907,81,78
38,28,-10,-33,24,9,-34,-387,0,-902,84,77
38,28,-10,-33,24,9,-38,-370,0,-897,86,77
39,29,-10,-34,24,9,-41,-359,0,-892,87,78
39,29,-10,-34,24,9,-42,-351,0,-888,87,78
38,28,-10,-33,24,9,-45,-342,0,-884,86,78
38,28,-10,-33,24,9,-47,-331,0,-878,86,78
39,30,-9,-34,24,10,-50,-320,0,-868,88,77
39,33,-6,-36,22,13,-52,-307,0,-858,91,77
38,36,-2,-37,20,17,-55,-295,0,-850,94,78
39,38,-1,-38,20,18,-57,-283,0,-839,96,78
38,39,1,-38,18,20,-60,-275,0,-822,99,76
38,39,1,-38,18,20,-62,-268,0,-801,101,73
39,38,-1,-38,20,18,-65,-262,0,-783,104,70
39,38,-1,-38,20,18,-67,-253,0,-762,106,68
38,39,1,-38,18,20,-68,-240,0,-733,109,67
38,39,1,-38,18,20,-68,-225,0,-699,111,67
39,39,0,-39,19,19,-67,-209,0,-666,113,68
39,39,0,-39,19,19,-67,-195,0,-636,116,68
38,38,0,-38,19,19,-67,-186,0,-604,122,65
38,38,0,-38,19,19,-67,-180,0,-564,130,63
39,39,0,-39,19,19,-68,-175,0,-515,138,60
39,39,0,-39,19,19,-68,-165,0,-488,145,58
38,37,-1,-37,19,18,-67,-148,0,-511,153,53
38,34,-4,-36,21,15,-67,-127,0,-558,160,48
39,31,-8,-35,23,11,-69,-107,0,-593,167,43
39,29,-10,-34,24,9,-68,-88,0,-630,174,39
35,26,-9,-30,22,8,-58,-70,0,-691,182,36
29,24,-5,-26,17,9,-44,-54,0,-769,189,34
23,22,-1,-22,12,10,-30,-39,0,-847,194,31
19,19,0,-19,9,9,-19,-20,0,-913,203,29
16,14,-2,-15,9,6,-13,5,0,-957,220,28
14,9,-5,-11,9,2,-9,36,0,-992,242,28
12,3,-9,-7,10,-3,-4,67,0,-1033,263,29
9,0,-9,-4,9,-4,0,95,0,-1070,281,29
5,0,-5,-2,5,-2,2,120,0,-1090,296,25
0,0,0,0,0,0,3,144,0,-1101,310,19
-4,0,4,2,-4,2,4,168,0,-1113,328,13
-8,0,8,4,-8,4,8,193,0,-1130,340,9
-11,-1,10,6,-10,4,18,220,0,-1149,339,8
-13,-3,10,8,-11,3,32,250,0,-1169,331,8
-16,-6,10,11,-13,2,46,283,0,-1188,326,9
-18,-8,10,13,-14,1,57,310,0,-1208,322,9
-21,-9,12,15,-16,1,63,321,0,-1231,313,5
-23,-9,14,16,-18,2,67,325,0,-1257,302,0
-26,-8,18,17,-22,5,73,333,0,-1281,292,-4
-28,-8,20,18,-24,6,77,340,0,-1305,283,-8
-29,-10,19,19,-24,4,78,342,0,-1327,273,-9
-29,-13,16,21,-22,1,78,341,0,-1349,263,-9
-28,-16,12,22,-20,-2,77,340,0,-1371,255,-8
-28,-18,10,23,-19,-4,77,340,0,-1393,244,-8
-29,-19,10,24,-19,-4,78,341,0,-1412,229,-12
-29,-19,10,24,-19,-4,78,341,0,-1432,210,-18
-28,-19,9,23,-18,-5,78,340,0,-1455,192,-24
-28,-19,9,23,-18,-5,78,340,0,-1472,176,-28
-29,-17,12,23,-20,-2,77,341,0,-1474,163,-29
-29,-14,15,21,-22,0,77,341,0,-1472,151,-29
-28,-11,17,19,-22,3,78,339,0,-1477,139,-28
-28,-9,19,18,-23,5,78,340,0,-1474,126,-28
-30,-8,22,19,-26,7,76,346,0,-1448,116,-29
-33,-8,25,20,-29,8,73,355,0,-1412,107,-29
-36,-9,27,22,-31,9,70,363,0,-1382,97,-28
-38,-9,29,23,-33,10,68,369,0,-1349,87,-28
-39,-8,31,23,-35,11,67,371,0,-1300,78,-30
-39,-8,31,23,-35,11,67,370,0,-1243,68,-33
-39,-9,30,24,-34,10,68,369,0,-1188,58,-36
-39,-9,30,24,-34,10,67,369,0,-1136,48,-38
-37,-8,29,22,-33,10,68,370,0,-1079,41,-39
-34,-8,26,21,-30,9,68,370,0,-1011,34,-39
-31,-9,22,20,-26,6,67,368,0,-929,27,-38
-29,-8,21,18,-25,6,67,369,0,-878,19,-38
-28,-9,19,18,-23,5,71,378,0,-901,12,-38
-28,-9,19,18,-23,5,77,389,0,-961,4,-38
-29,-8,21,18,-25,6,83,395,0,-1008,-2,-39
-29,-8,21,18,-25,6,86,407,0,-1050,-8,-39
-29,-9,20,19,-24,5,87,434,0,-1106,-11,-37
-29,-9,20,19,-24,5,87,470,0,-1174,-13,-34
-28,-8,20,18,-24,6,87,504,0,-1243,-16,-31
-28,-8,20,18,-24,6,87,533,0,-1302,-18,-29
-30,-9,21,19,-25,6,85,559,0,-1344,-19,-28
-33,-9,24,21,-28,7,82,583,0,-1378,-19,-28
-36,-8,28,22,-32,10,79,607,0,-1416,-18,-29
-38,-8,30,23,-34,11,78,631,0,-1451,-18,-29
-39,-12,27,25,-33,7,77,656,0,-1472,-19,-28
-39,-18,21,28,-30,1,78,680,0,-1486,-19,-28
-38,-24,14,31,-26,-5,77,705,0,-1503,-18,-29
-38,-28,10,33,-24,-9,77,729,0,-1520,-18,-29
-39,-29,10,34,-24,-9,82,754,0,-1531,-20,-28
-39,-29,10,34,-24,-9,91,778,0,-1536,-23,-28
-39,-28,11,33,-25,-8,99,800,0,-1541,-26,-29
-39,-28,11,33,-25,-8,106,826,0,-1549,-28,-28
-38,-28,10,33,-24,-9,109,861,0,-1566,-31,-29
-38,-28,10,33,-24,-9,111,899,0,-1588,-33,-29
-39,-29,10,34,-24,-9,114,932,0,-1609,-36,-28
-39,-29,10,34,-24,-9,116,971,0,-1627,-38,-28
-37,-25,12,31,-24,-6,117,1028,0,-1641,-40,-29
-34,-19,15,26,-24,-2,117,1100,0,-1653,-42,-29
-31,-13,18,22,-24,2,117,1176,0,-1664,-45,-28
-29,-9,20,19,-24,5,117,1235,0,-1676,-47,-28
-28,-8,20,18,-24,6,116,1260,0,-1691,-48,-29
-28,-8,20,18,-24,6,116,1276,0,-1706,-48,-29
-28,-9,19,18,-23,5,119,1306,0,-1721,-47,-28
-28,-9,19,18,-23,5,117,1318,0,-1735,-47,-28
-30,-8,22,19,-26,7,102,1273,0,-1751,-51,-32
-33,-8,25,20,-29,8,80,1196,0,-1769,-57,-38
-36,-9,27,22,-31,9,57,1125,0,-1788,-63,-44
-38,-9,29,23,-33,10,40,1067,0,-1804,-67,-47
-40,-8,32,24,-36,12,28,1019,0,-1809,-70,-48
-42,-8,34,25,-38,13,19,975,0,-1809,-72,-48
-45,-9,36,27,-40,13,9,927,0,-1811,-75,-47
-47,-9,38,28,-42,14,0,881,0,-1814,-77,-47
-48,-8,40,28,-44,16,-1,844,0,-1815,-78,-47
-48,-9,39,28,-43,15,0,812,0,-1815,-78,-47
-48,-8,40,28,-44,16,0,778,0,-1814,-78,-48
-48,-8,40,28,-44,16,0,743,0,-1814,-78,-48
-46,-9,37,27,-41,14,0,711,0,-1818,-76,-44
-43,-9,34,26,-38,12,0,680,0,-1824,-73,-39
-40,-8,32,24,-36,12,-1,648,0,-1830,-70,-33
-39,-8,31,23,-35,11,0,616,0,-1833,-68,-29
-38,-9,29,23,-33,10,6,587,0,-1834,-65,-28
-38,-9,29,23,-33,10,17,558,0,-1834,-63,-28
-38,-8,30,23,-34,11,29,528,0,-1834,-60,-28
-38,-8,30,23,-34,11,38,499,0,-1834,-58,-28
-40,-9,31,24,-35,11,43,475,0,-1832,-57,-32
-42,-9,33,25,-37,12,47,454,0,-1830,-57,-38
-45,-7,38,26,-41,15,52,432,0,-1827,-57,-44
-47,-8,39,27,-43,15,57,410,0,-1825,-57,-47
-50,-14,36,32,-43,11,62,392,0,-1822,-59,-48
-52,-23,29,37,-40,3,67,376,0,-1820,-62,-48
-55,-32,23,43,-39,-4,74,360,0,-1817,-65,-48
-57,-38,19,47,-38,-9,77,342,0,-1815,-67,-48
-58,-39,19,48,-38,-10,75,320,0,-1814,-68,-46
-58,-39,19,48,-38,-10,68,294,0,-1815,-68,-43
-58,-39,19,48,-38,-10,63,268,0,-1813,-67,-40
-58,-39,19,48,-38,-10,58,245,0,-1814,-67,-39
-56,-35,21,45,-38,-7,51,230,0,-1820,-68,-38
-53,-29,24,41,-38,-2,43,219,0,-1829,-68,-38
-50,-23,27,36,-38,2,35,208,0,-1835,-67,-38
-48,-19,29,33,-38,5,29,196,0,-1843,-67,-38
-45,-18,27,31,-36,4,28,183,0,-1854,-68,-40
-43,-18,25,30,-34,3,28,171,0,-1867,-68,-42
-40,-19,21,29,-30,1,28,157,0,-1879,-67,-45
-39,-19,20,29,-29,0,28,146,0,-1891,-67,-47
-38,-19,19,28,-28,0,32,141,0,-1907,-68,-48
-38,-19,19,28,-28,0,38,140,0,-1921,-68,-48
-39,-18,21,28,-30,1,43,140,0,-1929,-67,-47
-39,-18,21,28,-30,1,47,136,0,-1948,-67,-47
-38,-20,18,29,-28,-1,50,124,0,-1997,-71,-48
-38,-23,15,30,-26,-4,52,108,0,-2062,-77,-48
-38,-26,12,32,-25,-7,55,93,0,-2126,-82,-47
-38,-28,10,33,-24,-9,57,79,0,-2181,-86,-47
-39,-29,10,34,-24,-9,58,65,0,-2228,-92,-48
-39,-29,10,34,-24,-9,58,53,0,-2281,-101,-48
-38,-29,9,33,-23,-10,57,44,0,-2349,-110,-47
-38,-29,9,33,-23,-10,57,30,0,-2390,-116,-47
-40,-27,13,33,-26,-7,61,5,0,-2360,-114,-51
-42,-24,18,33,-30,-3,67,-26,0,-2294,-107,-57
-45,-21,24,33,-34,1,72,-54,0,-2241,-101,-64
-47,-19,28,33,-37,4,77,-83,0,-2191,-97,-68
-48,-18,30,33,-39,6,85,-119,0,-2118,-94,-61
-48,-18,30,33,-39,6,95,-157,0,-2028,-92,-49
-47,-19,28,33,-37,4,106,-193,0,-1941,-89,-37
-48,-19,29,33,-38,5,116,-230,0,-1861,-87,-29
-47,-16,31,31,-39,7,123,-273,0,-1791,-86,-24
-47,-14,33,30,-40,9,130,-321,0,-1728,-86,-19
-48,-12,36,30,-42,12,137,-368,0,-1666,-87,-14
-48,-9,39,28,-43,15,145,-414,0,-1597,-87,-9
-44,-4,40,24,-42,18,151,-458,0,-1516,-85,-6
-39,3,42,18,-40,22,155,-502,0,-1440,-82,-4
-33,11,44,11,-38,27,160,-548,0,-1382,-79,-1
-29,18,47,5,-38,32,164,-591,0,-1291,-78,0
-28,23,51,2,-39,37,168,-625,0,-1115,-77,0
-28,28,56,0,-42,42,174,-654,0,-903,-77,0
-29,34,63,-2,-46,48,183,-687,0,-716,-78,0
-29,38,67,-4,-48,52,185,-719,0,-512,-78,0
-25,36,61,-5,-43,48,171,-746,0,-223,-77,0
-19,29,48,-5,-33,38,148,-772,0,144,-77,0
-13,23,36,-5,-24,29,126,-801,0,546,-78,0
-9,19,28,-5,-18,23,108,-827,0,840,-78,0
-7,18,25,-5,-16,21,93,-841,0,899,-76,4
-8,18,26,-5,-17,22,79,-852,0,834,-73,13
-10,18,28,-4,-19,23,63,-869,0,808,-70,22
-9,18,27,-4,-18,22,49,-878,0,802,-68,28
-3,20,23,-8,-13,21,38,-864,0,755,-67,30
7,23,16,-15,-4,19,29,-836,0,693,-67,29
20,26,6,-23,7,16,19,-811,0,652,-67,28
28,28,0,-28,14,14,9,-791,0,586,-67,28
25,28,3,-26,11,15,4,-776,0,435,-69,28
15,28,13,-21,1,20,0,-762,0,234,-72,28
5,30,25,-17,-10,27,-4,-748,0,42,-75,29
0,29,29,-14,-14,29,-8,-733,0,-129,-77,29
-1,19,20,-9,-10,19,-9,-718,0,-285,-78,27
0,1,1,0,0,1,-9,-703,0,-437,-78,24
1,-15,-16,7,8,-15,-9,-688,0,-591,-77,22
0,-28,-28,14,14,-28,-9,-674,0,-745,-77,19
-6,-31,-25,18,9,-28,-5,-660,0,-891,-81,14
-17,-29,-12,23,-2,-20,0,-645,0,-1037,-86,9
-29,-27,2,28,-15,-12,4,-630,0,-1194,-91,5
-38,-28,10,33,-24,-9,8,-615,0,-1333,-96,0
-40,-31,9,35,-24,-11,11,-599,0,-1427,-99,-8
-39,-33,6,36,-22,-13,13,-581,0,-1498,-101,-22
-38,-35,3,36,-20,-16,16,-564,0,-1582,-104,-37
-38,-38,0,38,-19,-19,18,-547,0,-1661,-106,-47
-39,-44,-5,41,-17,-24,19,-532,0,-1708,-107,-45
-39,-52,-13,45,-13,-32,19,-518,0,-1738,-107,-35
-38,-60,-22,49,-8,-41,18,-503,0,-1773,-106,-25
-38,-67,-29,52,-4,-48,18,-489,0,-1811,-106,-19
-39,-70,-31,54,-4,-50,19,-476,0,-1843,-108,-18
-39,-72,-33,55,-3,-52,19,-464,0,-1874,-111,-18
-39,-75,-36,57,-1,-55,18,-452,0,-1910,-114,-18
-39,-77,-38,58,0,-57,18,-440,0,-1940,-116,-18
-38,-78,-40,58,1,-59,19,-426,0,-1946,-117,-20
-38,-78,-40,58,1,-59,19,-410,0,-1942,-117,-23
-39,-77,-38,58,0,-57,18,-395,0,-1942,-116,-25
-39,-78,-39,58,0,-58,18,-381,0,-1942,-116,-28
-38,-77,-39,57,0,-58,20,-367,0,-1932,-117,-33
-38,-77,-39,57,0,-58,23,-352,0,-1918,-117,-41
-39,-78,-39,58,0,-58,26,-336,0,-1909,-116,-51
-39,-78,-39,58,0,-58,28,-323,0,-1895,-116,-57
-35,-73,-38,54,1,-55,29,-315,0,-1863,-116,-55
-29,-64,-35,46,3,-49,29,-312,0,-1823,-116,-48
-22,-53,-31,37,4,-42,29,-308,0,-1792,-117,-42
-19,-48,-29,33,5,-38,29,-302,0,-1752,-117,-39
-21,-51,-30,36,4,-40,27,-294,0,-1687,-116,-38
-28,-61,-33,44,2,-47,24,-284,0,-1612,-116,-38
-34,-71,-37,52,1,-54,21,-273,0,-1550,-117,-39
-38,-77,-39,57,0,-58,19,-263,0,-1475,-117,-39
-39,-79,-40,59,0,-59,18,-257,0,-1355,-115,-38
-39,-78,-39,58,0,-58,19,-253,0,-1234,-112,-38
-38,-76,-38,57,0,-57,18,-249,0,-1155,-109,-39
-38,-77,-39,57,0,-58,18,-244,0,-1011,-107,-39
-38,-82,-44,60,3,-63,22,-236,0,-692,-104,-38
-38,-90,-52,64,7,-71,28,-225,0,-358,-102,-38
-39,-100,-61,69,11,-80,34,-213,0,-168,-99,-39
-39,-106,-67,72,14,-86,38,-204,0,238,-97,-39
-37,-104,-67,70,15,-85,40,-199,0,1289,-96,-38
-34,-97,-63,65,14,-80,39,-195,0,2744,-96,-38
-31,-91,-60,61,14,-75,37,-189,0,4174,-97,-39
-29,-87,-58,58,14,-72,38,-185,0,5385,-97,-39
-28,-86,-58,57,15,-72,44,-184,0,6312,-93,-38
-28,-86,-58,57,15,-72,56,-185,0,7125,-91,-38
-30,-88,-58,59,14,-73,71,-182,0,8021,-94,-41
-29,-87,-58,58,14,-72,78,-184,0,8859,-89,-39
-20,-82,-62,51,21,-72,64,-195,0,9432,-61,-27
-9,-78,-69,43,30,-73,44,-200,0,9825,-27,-14
-5,-78,-73,41,34,-75,35,-186,0,10215,-5,-10
6,-70,-76,32,41,-73,13,-206,0,10723,31,5
42,-38,-80,-2,61,-59,-47,-317,0,11422,120,54
95,4,-91,-49,93,-43,-131,-478,0,12216,239,123
147,41,-106,-94,126,-32,-210,-626,0,12977,352,186
190,81,-109,-135,149,-14,-283,-763,0,13730,456,246
222,141,-81,-181,151,30,-359,-913,0,14546,560,309
253,223,-30,-238,141,96,-450,-1093,0,15443,681,385
295,316,21,-305,137,168,-559,-1303,0,16392,823,473
321,377,56,-349,132,216,-631,-1447,0,17208,922,533
303,365,62,-334,120,213,-611,-1427,0,17708,908,521
262,317,55,-289,103,186,-543,-1319,0,18024,840,473
230,282,52,-256,89,167,-491,-1235,0,18367,800,440
199,249,50,-224,74,149,-445,-1169,0,18783,751,406
151,188,37,-169,57,112,-375,-1079,0,19256,625,335
89,107,18,-98,35,62,-284,-965,0,19773,446,236
24,23,-1,-23,12,11,-187,-846,0,20313,262,134
-25,-42,-17,33,-4,-29,-112,-749,0,20790,119,54
-42,-74,-32,58,-5,-53,-83,-695,0,21128,47,16
-42,-89,-47,65,2,-68,-78,-666,0,21434,9,-1
-48,-113,-65,80,8,-89,-66,-632,0,21822,-44,-30
-57,-134,-77,95,10,-105,-49,-590,0,22103,-93,-56
-59,-135,-76,97,8,-105,-37,-542,0,22045,-101,-56
-58,-123,-65,90,3,-94,-29,-489,0,21793,-84,-41
-58,-113,-55,85,-1,-84,-20,-434,0,21587,-72,-26
-58,-107,-49,82,-4,-78,-10,-385,0,21431,-68,-19
-52,-102,-50,77,-1,-76,0,-348,0,21287,-65,-17
-44,-97,-53,70,4,-75,12,-316,0,21349,-63,-18
-35,-91,-56,63,10,-73,26,-279,0,21719,-60,-19
-29,-87,-58,58,14,-72,38,-246,0,21483,-58,-19
-26,-86,-60,56,17,-73,41,-229,0,19657,-57,-18
-24,-86,-62,55,19,-74,39,-220,0,16922,-57,-18
-21,-86,-65,53,22,-75,38,-208,0,14373,-58,-19
-19,-86,-67,52,24,-76,38,-196,0,12098,-58,-19
-18,-90,-72,54,27,-81,39,-187,0,9846,-56,-17
-18,-96,-78,57,30,-87,38,-180,0,7516,-53,-14
-19,-103,-84,61,32,-93,39,-174,0,5107,-50,-11
-19,-106,-87,62,34,-96,39,-166,0,2868,-48,-9
-17,-104,-87,60,35,-95,37,-155,0,1076,-47,-8
-14,-97,-83,55,34,-90,34,-142,0,-402,-47,-8
-11,-92,-81,51,35,-86,31,-129,0,-1844,-48,-9
-9,-87,-78,48,34,-82,29,-118,0,-3538,-48,-9
-8,-82,-74,45,33,-78,28,-109,0,-5708,-46,-8
-8,-74,-66,41,29,-70,29,-102,0,-8204,-43,-8
-9,-63,-54,36,22,-58,28,-96,0,-10738,-40,-9
-9,-57,-48,33,19,-52,28,-88,0,-13014,-39,-9
-8,-63,-55,35,23,-59,33,-75,0,-14897,-38,-8
-8,-76,-68,42,30,-72,41,-60,0,-17197,-38,-8
-9,-88,-79,48,35,-83,50,-43,0,-20493,-39,-9
-9,-96,-87,52,39,-91,57,-30,0,-22005,-39,-9
-8,-98,-90,53,41,-94,59,-23,0,-18571,-38,-8
-8,-97,-89,52,40,-93,58,-19,0,-11837,-38,-8
-9,-97,-88,53,39,-92,58,-15,0,-5015,-39,-9
-9,-97,-88,53,39,-92,58,-9,0,-339,-39,-9
-7,-95,-88,51,40,-91,56,-3,0,823,-38,-8
-4,-92,-88,48,42,-90,53,3,0,90,-38,-8
-1,-89,-88,45,43,-88,50,11,0,-220,-39,-9
0,-87,-87,43,43,-87,48,18,0,-24,-39,-9
0,-83,-83,41,41,-83,47,22,0,59,-37,-8
0,-78,-78,39,39,-78,47,23,0,6,-34,-8
0,-72,-72,36,36,-72,48,25,0,-15,-31,-9
0,-68,-68,34,34,-68,48,28,0,-1,-29,-9
0,-67,-67,33,33,-67,47,34,0,4,-28,-8
0,-67,-67,33,33,-67,47,41,0,0,-28,-8
0,-67,-67,33,33,-67,48,49,0,-1,-29,-9
0,-67,-67,33,33,-67,48,57,0,0,-29,-9
0,-71,-71,35,35,-71,45,62,0,0,-25,-6
0,-77,-77,38,38,-77,39,67,0,0,-19,0
0,-83,-83,41,41,-83,33,72,0,0,-13,4
0,-86,-86,43,43,-86,29,77,0,0,-9,8
1,-84,-85,41,43,-84,28,83,0,0,-8,9
3,-78,-81,37,42,-79,28,91,0,0,-8,9
6,-72,-78,33,42,-75,29,98,0,0,-9,8
8,-68,-76,30,42,-72,29,106,0,0,-9,8
9,-67,-76,29,42,-71,28,111,0,0,-7,9
9,-67,-76,29,42,-71,28,116,0,0,-4,9
8,-68,-76,30,42,-72,29,120,0,0,-1,8
8,-68,-76,30,42,-72,29,125,0,0,0,8
10,-64,-74,27,42,-69,27,130,0,0,0,9
13,-58,-71,22,42,-64,24,135,0,0,0,9
16,-52,-68,18,42,-60,21,140,0,0,0,8
18,-48,-66,15,42,-57,19,145,0,0,0,8
19,-47,-66,14,42,-56,18,148,0,0,3,10
19,-47,-66,14,42,-56,18,150,0,0,8,13
18,-48,-66,15,42,-57,19,153,0,0,13,15
18,-48,-66,15,42,-57,19,155,0,0,18,18
20,-46,-66,13,43,-56,18,156,0,0,21,22
23,-43,-66,10,44,-54,18,156,0,0,23,28
26,-40,-66,7,46,-53,19,155,0,0,25,33
28,-39,-67,5,47,-53,19,156,0,0,28,38
29,-38,-67,4,48,-52,18,155,0,0,33,41
29,-38,-67,4,48,-52,18,155,0,0,38,42
28,-39,-67,5,47,-53,19,157,0,0,43,44
28,-39,-67,5,47,-53,19,156,0,0,47,47
30,-35,-65,2,47,-50,18,150,0,0,52,50
33,-29,-62,-2,47,-45,18,142,0,0,57,52
36,-23,-59,-6,47,-41,19,133,0,0,62,55
38,-19,-57,-9,47,-38,19,126,0,0,67,57
39,-18,-57,-10,48,-37,17,123,0,0,72,58
39,-18,-57,-10,48,-37,14,122,0,0,77,58
38,-19,-57,-9,47,-38,11,119,0,0,82,57
38,-19,-57,-9,47,-38,9,117,0,0,86,57
41,-18,-59,-11,50,-38,8,116,0,0,89,61
47,-18,-65,-14,56,-41,8,117,0,0,91,67
53,-19,-72,-17,62,-45,9,116,0,0,94,73
57,-19,-76,-19,66,-47,9,116,0,0,96,77
58,-18,-76,-20,67,-47,6,119,0,0,99,78
58,-18,-76,-20,67,-47,0,125,0,0,101,78
57,-19,-76,-19,66,-47,-4,131,0,0,103,77
57,-19,-76,-19,66,-47,-8,135,0,0,106,77
58,-18,-76,-20,67,-47,-9,136,0,0,110,79
58,-18,-76,-20,67,-47,-9,135,0,0,116,81
57,-18,-75,-19,66,-46,-8,137,0,0,121,84
57,-18,-75,-19,66,-46,-8,136,0,0,125,86
58,-19,-77,-19,67,-48,-8,127,0,0,128,87
58,-19,-77,-19,67,-48,-8,113,0,0,130,87
58,-18,-76,-20,67,-47,-9,100,0,0,133,86
58,-18,-76,-20,67,-47,-9,88,0,0,135,86
57,-19,-76,-19,66,-47,-7,78,0,0,136,88
57,-19,-76,-19,66,-47,-4,69,0,0,136,91
58,-18,-76,-20,67,-47,-2,57,0,0,135,94
58,-18,-76,-20,67,-47,0,48,0,0,135,96
57,-19,-76,-19,66,-47,5,46,0,0,136,97
57,-19,-76,-19,66,-47,12,48,0,0,136,97
58,-18,-76,-20,67,-47,20,45,0,0,135,96
58,-18,-76,-20,67,-47,27,46,0,0,136,96
54,-20,-74,-17,64,-47,37,60,0,0,135,97
48,-23,-71,-12,59,-47,50,83,0,0,135,97
43,-26,-69,-8,56,-47,65,106,0,0,136,96
39,-28,-67,-5,53,-47,77,124,0,0,136,96
38,-29,-67,-4,52,-48,79,135,0,0,135,96
38,-29,-67,-4,52,-48,78,144,0,0,135,96
39,-28,-67,-5,53,-47,79,156,0,0,136,97
39,-28,-67,-5,53,-47,78,164,0,0,136,97
37,-30,-67,-3,52,-48,69,161,0,0,132,96
34,-33,-67,0,50,-50,55,148,0,0,126,96
31,-36,-67,2,49,-51,40,131,0,0,121,97
29,-38,-67,4,48,-52,29,125,0,0,117,97
28,-40,-68,6,48,-54,27,141,0,0,114,95
28,-42,-70,7,49,-56,28,170,0,0,112,92
29,-45,-74,8,51,-59,28,196,0,0,110,89
29,-47,-76,9,52,-61,28,220,0,0,107,87
25,-48,-73,11,49,-60,34,248,0,0,103,86
19,-48,-67,14,43,-57,46,281,0,0,97,86
13,-47,-60,17,36,-53,58,318,0,0,92,87
9,-47,-56,19,32,-51,67,348,0,0,87,87
8,-49,-57,20,32,-53,69,360,0,0,83,85
8,-52,-60,22,34,-56,68,361,0,0,78,82
9,-55,-64,23,36,-59,67,361,0,0,73,79
9,-57,-66,24,37,-61,67,368,0,0,68,78
6,-58,-64,26,35,-61,68,383,0,0,65,77
0,-58,-58,29,29,-58,68,402,0,0,63,77
-4,-57,-53,30,24,-55,67,420,0,0,61,78
-8,-57,-49,32,20,-53,67,436,0,0,58,78
-9,-58,-49,33,20,-53,71,453,0,0,54,74
-9,-58,-49,33,20,-53,77,470,0,0,48,68
-8,-57,-49,32,20,-53,82,488,0,0,44,62
-8,-57,-49,32,20,-53,86,505,0,0,39,58
-9,-58,-49,33,20,-53,87,515,0,0,34,57
-9,-58,-49,33,20,-53,87,521,0,0,29,57
-8,-57,-49,32,20,-53,86,527,0,0,24,58
-8,-57,-49,32,20,-53,86,534,0,0,19,58
-10,-58,-48,34,19,-53,86,545,0,0,16,54
-13,-58,-45,35,16,-51,86,558,0,0,14,48
-16,-57,-41,36,12,-49,87,574,0,0,12,43
-18,-57,-39,37,10,-48,87,584,0,0,9,39
-19,-58,-39,38,10,-48,85,581,0,0,6,35
-19,-58,-39,38,10,-48,82,571,0,0,4,29
-18,-57,-39,37,10,-48,80,562,0,0,2,23
-18,-57,-39,37,10,-48,78,556,0,0,0,19
-22,-59,-37,40,7,-48,76,553,0,0,-3,18
-28,-62,-34,45,3,-48,73,551,0,0,-8,18
-34,-65,-31,49,-1,-48,70,550,0,0,-13,19
-38,-67,-29,52,-4,-48,68,546,0,0,-18,19
-39,-68,-29,53,-5,-48,67,537,0,0,-19,18
-39,-68,-29,53,-5,-48,67,524,0,0,-19,18
-38,-67,-29,52,-4,-48,68,510,0,0,-18,19
-38,-67,-29,52,-4,-48,67,498,0,0,-18,19
-40,-68,-28,54,-6,-48,68,488,0,0,-19,18
-42,-68,-26,55,-8,-47,68,479,0,0,-19,18
-45,-68,-23,56,-11,-45,67,469,0,0,-18,19
-47,-68,-21,57,-13,-44,67,459,0,0,-18,19
-48,-67,-19,57,-14,-43,71,451,0,0,-19,19
-48,-67,-19,57,-14,-43,77,444,0,0,-19,19
-48,-68,-20,58,-14,-44,82,438,0,0,-19,18
-48,-68,-20,58,-14,-44,86,430,0,0,-19,18
-46,-66,-20,56,-13,-43,90,420,0,0,-18,19
-43,-63,-20,53,-11,-41,96,410,0,0,-18,19
-40,-60,-20,50,-10,-40,101,400,0,0,-19,18
-39,-58,-19,48,-10,-38,106,391,0,0,-19,18
-38,-57,-19,47,-9,-38,107,381,0,0,-18,19
-38,-57,-19,47,-9,-38,107,371,0,0,-18,19
-38,-58,-20,48,-9,-39,106,361,0,0,-19,18
-38,-58,-20,48,-9,-39,106,352,0,0,-19,18
-40,-57,-17,48,-11,-37,107,343,0,0,-15,20
-42,-57,-15,49,-13,-36,107,336,0,0,-9,23
-45,-58,-13,51,-16,-35,107,332,0,0,-4,26
-47,-58,-11,52,-18,-34,107,324,0,0,0,28
-48,-57,-9,52,-19,-33,106,306,0,0,3,29
-48,-57,-9,52,-19,-33,106,281,0,0,8,29
-47,-58,-11,52,-18,-34,107,257,0,0,13,28
-47,-58,-11,52,-18,-34,107,236,0,0,18,28
-48,-58,-10,53,-19,-34,105,221,0,0,23,32
-48,-58,-10,53,-19,-34,102,206,0,0,28,38
-47,-57,-10,52,-18,-33,99,188,0,0,33,43
-47,-57,-10,52,-18,-33,97,175,0,0,38,47
-49,-58,-9,53,-20,-33,96,177,0,0,39,48
-52,-58,-6,55,-23,-32,96,188,0,0,39,48
-55,-57,-2,56,-26,-29,97,197,0,0,38,47
-57,-57,0,57,-28,-28,97,203,0,0,38,47
-58,-58,0,58,-29,-29,96,208,0,0,39,49
-58,-58,0,58,-29,-29,96,213,0,0,39,52
-57,-57,0,57,-28,-28,97,217,0,0,38,55
-57,-57,0,57,-28,-28,97,223,0,0,38,57
-58,-59,-1,58,-28,-30,97,230,0,0,40,58
-57,-62,-5,59,-26,-33,97,237,0,0,42,58
-58,-65,-7,61,-25,-36,96,244,0,0,45,57
-58,-67,-9,62,-24,-38,96,251,0,0,47,57
-57,-68,-11,62,-23,-39,97,262,0,0,48,58
-57,-68,-11,62,-23,-39,97,275,0,0,48,58
-58,-67,-9,62,-24,-38,96,288,0,0,47,57
-58,-67,-9,62,-24,-38,96,300,0,0,47,57
-54,-69,-15,61,-19,-42,98,313,0,0,51,59
-49,-72,-23,60,-13,-47,101,328,0,0,57,62
-42,-75,-33,58,-4,-54,104,344,0,0,62,65
-38,-77,-39,57,0,-58,106,358,0,0,67,67
-42,-78,-36,60,-3,-57,108,371,0,0,70,68
-51,-78,-27,64,-12,-52,111,383,0,0,72,68
-61,-77,-16,69,-22,-46,114,395,0,0,75,68
-67,-77,-10,72,-28,-43,116,407,0,0,77,68
-65,-78,-13,71,-26,-45,117,417,0,0,78,66
-59,-78,-19,68,-20,-48,117,427,0,0,78,63
-52,-77,-25,64,-13,-51,116,437,0,0,78,60
-48,-77,-29,62,-9,-53,116,446,0,0,78,58
-47,-78,-31,62,-8,-54,117,454,0,0,76,57
-47,-78,-31,62,-8,-54,117,461,0,0,73,57
-48,-77,-29,62,-9,-53,116,469,0,0,71,58
-48,-77,-29,62,-9,-53,116,476,0,0,68,58
-48,-79,-31,63,-8,-55,117,485,0,0,64,57
-48,-81,-33,64,-7,-57,117,495,0,0,58,57
-47,-84,-37,65,-5,-60,117,506,0,0,54,58
-47,-86,-39,66,-4,-62,117,516,0,0,49,58
-49,-87,-38,68,-5,-62,116,518,0,0,41,56
-52,-87,-35,69,-8,-61,116,517,0,0,30,53
-55,-86,-31,70,-12,-58,117,517,0,0,19,50
-57,-86,-29,71,-14,-57,117,517,0,0,9,48
-59,-88,-29,73,-15,-58,116,514,0,0,7,47
-62,-91,-29,76,-16,-60,116,512,0,0,8,47
-65,-94,-29,79,-18,-61,117,511,0,0,9,48
-67,-96,-29,81,-19,-62,117,508,0,0,9,48
-68,-97,-29,82,-19,-63,115,495,0,0,8,47
-68,-97,-29,82,-19,-63,112,476,0,0,8,47
-67,-96,-29,81,-19,-62,109,457,0,0,9,48
-67,-96,-29,81,-19,-62,107,441,0,0,9,48
-68,-97,-29,82,-19,-63,106,428,0,0,8,46
-68,-97,-29,82,-19,-63,106,416,0,0,8,43
-67,-96,-29,81,-19,-62,107,402,0,0,9,40
-67,-96,-29,81,-19,-62,107,391,0,0,9,39
-68,-97,-29,82,-19,-63,106,388,0,0,8,38
-68,-97,-29,82,-19,-63,106,389,0,0,8,38
-67,-96,-29,81,-19,-62,107,389,0,0,9,39
-67,-96,-29,81,-19,-62,107,389,0,0,9,39
-68,-97,-29,82,-19,-63,107,393,0,0,8,37
-68,-97,-29,82,-19,-63,107,399,0,0,8,34
-67,-96,-29,81,-19,-62,106,403,0,0,9,31
-67,-96,-29,81,-19,-62,106,408,0,0,9,29
-68,-97,-29,82,-19,-63,107,414,0,0,8,28
-68,-97,-29,82,-19,-63,107,422,0,0,8,28
-67,-96,-29,81,-19,-62,106,429,0,0,9,29
-67,-96,-29,81,-19,-62,106,437,0,0,9,29
-71,-98,-27,84,-22,-62,108,447,0,0,7,28
-76,-101,-25,88,-25,-63,111,460,0,0,4,28
-83,-104,-21,93,-31,-62,114,474,0,0,1,28
-86,-106,-20,96,-33,-63,116,486,0,0,0,28
-84,-107,-23,95,-30,-65,119,493,0,0,0,29
-79,-107,-28,93,-25,-67,121,496,0,0,0,29
-72,-106,-34,89,-19,-70,123,500,0,0,0,28
-68,-106,-38,87,-15,-72,125,505,0,0,0,28
-67,-107,-40,87,-13,-73,131,513,0,0,-1,30
-67,-107,-40,87,-13,-73,139,520,0,0,-3,33
-68,-106,-38,87,-15,-72,147,527,0,0,-6,36
-68,-107,-39,87,-14,-73,154,534,0,0,-8,38
-68,-106,-38,87,-15,-72,160,544,0,0,-9,39
-68,-106,-38,87,-15,-72,164,554,0,0,-9,39
-67,-107,-40,87,-13,-73,167,561,0,0,-8,38
-67,-107,-40,87,-13,-73,169,565,0,0,-8,38
-69,-106,-37,87,-16,-71,172,569,0,0,-9,40
-72,-106,-34,89,-19,-70,174,574,0,0,-9,42
-73,-107,-34,90,-19,-70,175,576,0,0,-8,45
-73,-107,-34,90,-19,-70,175,575,0,0,-8,47
-72,-103,-31,87,-20,-67,175,570,0,0,-9,49
-72,-98,-26,85,-23,-62,175,562,0,0,-9,52
-73,-91,-18,82,-27,-54,174,553,0,0,-7,55
-73,-87,-14,80,-29,-50,174,546,0,0,-4,57
-73,-86,-13,79,-30,-49,177,545,-1,-1,1,58
-73,-83,-10,78,-31,-46,183,546,-3,-3,7,57
-72,-73,-1,72,-35,-37,192,544,-4,-6,13,59
-72,-60,12,66,-42,-24,199,541,-4,-8,18,62
-73,-50,23,61,-48,-13,201,538,-4,-7,22,64
-73,-43,30,58,-51,-6,203,536,-4,-4,28,67
-71,-39,32,55,-51,-3,210,533,-2,-3,33,72
-68,-38,30,53,-49,-4,222,531,0,-3,38,77
-67,-41,26,54,-46,-7,231,531,0,-3,41,77
-67,-43,24,55,-45,-9,237,531,-3,-3,42,73
-68,-38,30,53,-49,-4,243,527,-7,-6,43,69
-67,-30,37,48,-52,3,247,522,-9,-8,42,67
-68,-24,44,46,-56,10,247,521,-4,-7,43,69
-68,-23,45,45,-56,11,240,518,3,-4,43,72
-66,-25,41,45,-53,8,227,506,5,-3,41,73
-63,-28,35,45,-49,3,215,493,4,-4,39,73
-60,-29,31,44,-45,1,212,488,4,-2,38,72
-58,-29,29,43,-43,0,214,488,4,0,38,72
-58,-28,30,43,-44,1,208,483,-1,0,39,73
-58,-28,30,43,-44,1,197,474,-8,0,39,73
-54,-30,24,42,-39,-3,184,465,-10,-1,37,72
-48,-33,15,40,-31,-9,172,458,-9,-3,34,72
-45,-37,8,41,-26,-14,159,457,-8,-4,32,76
-43,-39,4,41,-23,-17,147,458,-8,-4,33,81
-41,-36,5,38,-23,-15,139,454,-9,-3,37,82
-39,-33,6,36,-22,-13,132,448,-9,-3,42,82
-38,-38,0,38,-19,-19,122,445,-7,-4,44,81
-38,-46,-8,42,-15,-27,109,440,-4,-4,43,82
-39,-52,-13,45,-13,-32,96,429,-3,-3,41,81
-39,-56,-17,47,-11,-36,87,416,-3,-3,39,78
-39,-63,-24,51,-7,-43,85,405,-4,-6,36,73
-41,-71,-30,56,-5,-50,86,396,-4,-9,34,68
-49,-77,-28,63,-10,-52,87,384,-2,-5,34,66
-61,-81,-20,71,-20,-50,87,369,0,0,34,63
-71,-85,-14,78,-28,-49,86,351,0,0,29,57
-77,-90,-13,83,-32,-51,86,333,0,0,24,49
-78,-99,-21,88,-28,-60,87,319,4,1,23,41
-77,-110,-33,93,-22,-71,87,304,8,3,24,35
-79,-118,-39,98,-20,-78,86,287,6,4,19,28
-81,-124,-43,102,-19,-83,86,270,0,4,14,24
-82,-130,-48,106,-17,-89,87,259,-2,2,15,23
-82,-135,-53,108,-14,-94,87,249,-3,0,18,24
-81,-139,-58,110,-11,-98,86,237,-4,0,17,22
-81,-144,-63,112,-9,-103,86,225,-4,0,14,19
-85,-151,-66,118,-9,-108,90,220,-2,0,12,16
-91,-159,-68,125,-11,-113,95,219,0,0,13,14
-93,-168,-75,130,-9,-121,101,215,2,-1,16,14
-92,-174,-82,133,-5,-128,106,209,4,-3,18,14
-90,-175,-85,132,-2,-130,109,205,1,-4,19,12
-87,-171,-84,129,-1,-127,111,204,-3,-4,19,9
-84,-164,-80,124,-2,-122,115,204,-4,-2,18,8
-82,-161,-79,121,-1,-120,121,204,-4,0,18,8
-81,-163,-82,122,0,-122,125,202,-4,0,18,9
-81,-169,-88,125,3,-128,130,200,-4,0,18,9
-84,-173,-89,128,2,-131,135,198,-2,0,19,8
-86,-174,-88,130,1,-131,140,195,0,0,19,9
-87,-175,-88,131,0,-131,141,189,0,-1,17,8
-87,-175,-88,131,0,-131,141,181,0,-3,14,8
-86,-174,-88,130,1,-131,140,174,0,-4,13,9
-86,-175,-89,130,1,-132,140,170,0,-4,13,9
-86,-174,-88,130,1,-131,141,169,-1,-3,14,6
-86,-174,-88,130,1,-131,140,169,-3,-3,14,4
-87,-175,-88,131,0,-131,141,171,-4,-4,12,3
-87,-175,-88,131,0,-131,141,170,-4,-4,9,4
-85,-171,-86,128,0,-128,139,165,-3,-3,6,2
-82,-166,-84,124,1,-125,136,157,-3,-3,4,0
-77,-160,-83,118,3,-121,131,148,-4,-4,2,-2
-73,-156,-83,114,5,-119,126,137,-4,-4,0,-3
-72,-154,-82,113,5,-118,125,127,-3,-2,0,-4
-72,-152,-80,112,4,-116,125,118,-3,0,0,-4
-73,-144,-71,108,-1,-107,126,110,-4,0,0,-3
-73,-136,-63,104,-5,-99,126,103,-4,0,0,-3
-73,-136,-63,104,-5,-99,125,96,-3,-1,-4,-4
-73,-140,-67,106,-3,-103,125,88,-3,-3,-12,-4
-72,-140,-68,106,-2,-104,125,80,-4,-4,-20,-3
-72,-136,-64,104,-4,-100,125,74,-4,-4,-24,-3
-74,-133,-59,103,-7,-96,126,69,-3,-1,-18,-4
-77,-131,-54,104,-11,-92,129,67,0,2,-10,-4
-80,-131,-51,105,-14,-91,137,69,3,9,-6,-3
-79,-131,-52,105,-13,-91,137,65,4,10,-2,0
-68,-127,-59,97,-4,-93,118,47,-1,0,15,5
-51,-122,-71,86,10,-96,91,26,-8,-13,42,12
-35,-121,-86,78,25,-103,73,16,-7,-12,70,19
-18,-111,-93,64,37,-102,50,-1,-14,-19,107,36
8,-73,-81,32,44,-77,-2,-57,-51,-59,170,80
48,-15,-63,-16,55,-39,-84,-149,-95,-106,262,146
101,42,-59,-71,80,-8,-181,-261,-114,-117,376,222
149,86,-63,-117,106,11,-265,-347,-119,-121,477,284
172,108,-64,-140,118,22,-313,-362,-139,-167,530,311
185,129,-56,-157,120,36,-350,-366,-166,-230,568,329
215,177,-38,-196,126,69,-419,-448,-175,-254,648,376
248,235,-13,-241,130,111,-492,-573,-158,-225,738,431
260,267,7,-263,126,137,-518,-660,-112,-151,774,452
244,266,22,-255,111,144,-488,-681,-74,-90,754,435
206,236,30,-221,88,133,-420,-639,-85,-102,701,394
163,193,30,-178,66,111,-360,-589,-89,-101,643,348
132,154,22,-143,55,88,-361,-592,-10,32,603,313
100,115,15,-107,42,65,-371,-607,107,217,548,270
45,63,18,-54,13,40,-310,-563,177,301,432,191
-11,9,20,1,-15,14,-211,-489,205,293,298,105
-34,-30,4,32,-19,-13,-146,-452,226,259,219,53
-34,-54,-20,44,-7,-37,-116,-447,239,225,185,31
-38,-69,-31,53,-3,-50,-92,-444,224,191,152,15
-50,-79,-29,64,-10,-54,-71,-429,168,137,103,-7
-64,-90,-26,77,-19,-58,-57,-396,62,43,38,-44
-72,-96,-24,84,-24,-60,-49,-361,-36,-43,-14,-74
-69,-93,-24,81,-22,-58,-41,-342,-61,-58,-17,-77
-59,-87,-28,73,-15,-57,-31,-340,-34,-25,5,-64
-54,-87,-33,70,-10,-60,-20,-344,-14,-3,12,-60
-53,-88,-35,70,-9,-61,-10,-346,-9,0,8,-62
-50,-77,-27,63,-11,-52,-4,-342,-9,-1,16,-60
-44,-60,-16,52,-14,-38,-3,-350,-9,-3,27,-53
-36,-49,-13,42,-11,-31,-7,-393,-5,-4,27,-51
-30,-44,-14,37,-8,-29,-16,-459,0,-4,20,-52
-26,-38,-12,32,-7,-25,-29,-526,1,-4,17,-53
-24,-34,-10,29,-7,-22,-38,-595,0,-4,18,-53
-22,-36,-14,29,-4,-25,-34,-678,0,-3,19,-52
-19,-42,-23,30,2,-32,-25,-778,0,-3,18,-52
-17,-44,-27,30,5,-35,-22,-891,0,-5,19,-54
-14,-43,-29,28,7,-36,-24,-997,0,-8,19,-57
-11,-39,-28,25,8,-33,-20,-1072,-3,-9,13,-61
-9,-35,-26,22,8,-30,-11,-1126,-8,-9,5,-66
-8,-29,-21,18,6,-25,0,-1183,-9,-9,0,-72
-9,-24,-15,16,3,-19,4,-1242,-9,-9,-3,-77
-7,-20,-13,13,3,-16,-2,-1296,-8,-7,-4,-80
-4,-15,-11,9,3,-13,-16,-1349,-8,-4,-4,-81
-3,-9,-6,6,1,-7,-29,-1412,-9,-3,-3,-82
-3,-4,-1,3,-1,-2,-41,-1466,-9,-3,-3,-82
-4,-1,3,2,-3,1,-49,-1485,-7,-4,-4,-81
-4,0,4,2,-4,2,-60,-1486,-4,-4,-4,-82
-2,0,2,1,-2,1,-76,-1498,-1,-3,-2,-81
0,0,0,0,0,0,-90,-1505,0,-3,0,-81
1,0,-1,0,1,0,-89,-1479,0,-4,1,-82
3,0,-3,-1,3,-1,-76,-1433,0,-4,3,-82
5,2,-3,-3,4,0,-62,-1392,0,-3,4,-80
8,7,-1,-7,4,3,-53,-1357,0,-3,4,-78
10,15,5,-12,2,10,-53,-1321,-1,-4,3,-77
13,22,9,-17,2,15,-57,-1281,-3,-4,3,-77
16,25,9,-20,3,17,-59,-1238,-4,-3,3,-77
18,24,6,-21,6,15,-58,-1197,-4,-3,3,-77
19,20,1,-19,9,10,-56,-1162,-3,-4,4,-79
19,18,-1,-18,10,8,-53,-1132,-3,-4,4,-81
18,21,3,-19,7,12,-51,-1104,-6,-3,3,-84
19,27,8,-23,5,17,-48,-1071,-8,-3,3,-86
18,32,14,-25,2,23,-44,-1025,-7,-4,8,-87
18,33,15,-25,1,24,-40,-972,-4,-4,16,-87
20,33,13,-26,3,23,-34,-918,-2,-3,26,-85
23,33,10,-28,6,21,-29,-871,-3,-3,33,-82
26,35,9,-30,8,22,-25,-835,-5,-4,32,-81
28,38,10,-33,9,24,-23,-805,-8,-4,25,-81
29,38,9,-33,10,23,-25,-774,-9,-3,18,-83
28,38,10,-33,9,24,-28,-739,-9,-3,14,-86
30,41,11,-35,9,26,-28,-701,-6,-4,14,-87
33,46,13,-39,10,29,-24,-661,-4,-4,18,-87
35,52,17,-43,9,34,-21,-620,-3,-3,21,-85
38,57,19,-47,9,38,-19,-582,-3,-3,23,-82
42,60,18,-51,12,39,-18,-549,-4,-6,24,-81
47,62,15,-54,16,38,-18,-518,-4,-8,24,-81
49,64,15,-56,17,39,-21,-485,-3,-7,23,-83
48,67,19,-57,14,43,-23,-453,-3,-4,23,-86
43,70,27,-56,8,48,-24,-428,-4,-3,24,-90
39,72,33,-55,3,52,-24,-405,-4,-3,24,-92
40,72,32,-56,4,52,-24,-377,-2,-4,23,-88
46,72,26,-59,10,49,-24,-350,0,-4,23,-82
52,75,23,-63,14,49,-22,-334,-1,-3,27,-81
56,80,24,-68,16,52,-19,-324,-3,-3,33,-81
62,86,24,-74,19,55,-17,-309,-4,-4,36,-81
67,91,24,-79,21,57,-18,-290,-4,-4,38,-78
70,93,23,-81,23,58,-22,-273,-4,-3,40,-75
72,92,20,-82,26,56,-28,-256,-4,-3,42,-73
75,90,15,-82,30,52,-29,-238,-2,-4,45,-72
77,91,14,-84,31,52,-29,-221,0,-4,47,-72
78,97,19,-87,29,58,-28,-211,-1,-3,48,-74
78,105,27,-91,25,66,-29,-205,-3,-3,47,-77
77,110,33,-93,22,71,-28,-196,-4,-5,48,-78
77,111,34,-94,21,72,-28,-186,-4,-8,48,-78
79,113,34,-96,22,73,-33,-181,-3,-10,45,-76
81,116,35,-98,23,75,-41,-180,-4,-9,43,-73
84,119,35,-101,24,77,-48,-179,-3,-6,43,-68
86,121,35,-103,25,78,-52,-179,-3,-3,47,-63
87,123,36,-105,25,79,-53,-180,-5,-7,51,-62
86,125,39,-105,23,82,-53,-180,-8,-13,56,-62
87,129,42,-108,22,85,-53,-179,-9,-13,61,-62
91,134,43,-112,24,88,-56,-179,-9,-9,66,-59
96,140,44,-118,26,92,-65,-182,-7,-6,72,-53
101,145,44,-123,28,94,-79,-188,-4,-4,79,-44
102,147,45,-124,28,96,-91,-194,-3,-3,91,-35
102,150,48,-126,27,99,-100,-202,-3,-3,101,-29
101,155,54,-128,23,104,-103,-211,-5,-5,100,-30
105,163,58,-134,23,110,-102,-221,-8,-8,93,-37
114,172,58,-143,28,115,-101,-230,-9,-12,88,-45
124,182,58,-153,33,120,-104,-237,-9,-14,86,-52
127,192,65,-159,31,128,-118,-242,-8,-10,88,-54
126,201,75,-163,25,138,-137,-247,-8,-4,91,-53
127,212,85,-169,21,148,-153,-251,-10,-2,92,-49
130,222,92,-176,19,157,-163,-256,-13,-3,92,-43
130,228,98,-179,16,163,-168,-262,-14,-6,90,-40
130,233,103,-181,13,168,-169,-266,-14,-9,91,-39
134,237,103,-185,15,170,-170,-271,-13,-7,95,-36
140,239,99,-189,20,169,-170,-273,-13,-4,101,-34
141,236,95,-188,23,165,-168,-269,-14,-5,102,-34
137,230,93,-183,22,161,-165,-264,-14,-8,101,-34
127,225,98,-176,14,161,-163,-260,-13,-10,104,-31
118,220,102,-169,8,161,-161,-262,-13,-9,107,-29
117,213,96,-165,10,154,-156,-267,-14,-6,103,-31
121,205,84,-163,18,144,-148,-272,-14,-4,94,-37
123,196,73,-159,25,134,-137,-273,-12,-3,82,-43
122,187,65,-154,28,126,-127,-272,-9,-4,74,-47
121,176,55,-148,33,115,-120,-274,-6,-2,71,-48
121,166,45,-143,38,105,-113,-277,-4,0,72,-48
122,158,36,-140,43,97,-105,-279,-5,0,71,-48
122,152,30,-137,46,91,-97,-282,-8,0,68,-48
120,145,25,-132,47,85,-96,-285,-9,0,67,-46
117,137,20,-127,48,78,-97,-287,-9,0,67,-43
116,128,12,-122,52,70,-95,-285,-9,-1,68,-42
116,122,6,-119,55,64,-92,-285,-9,-3,67,-42
116,123,7,-119,54,65,-91,-297,-6,-4,68,-45
116,133,17,-124,49,75,-91,-317,-4,-4,68,-47
118,147,29,-132,44,88,-92,-336,-5,-4,65,-48
121,159,38,-140,41,98,-91,-349,-8,-4,59,-48
123,161,38,-142,42,99,-92,-352,-7,-2,52,-48
122,156,34,-139,44,95,-92,-351,-4,0,44,-48
118,155,37,-136,40,96,-90,-351,-3,0,38,-47
113,156,43,-134,35,99,-87,-351,-3,0,34,-47
109,154,45,-131,32,99,-86,-344,-3,0,32,-51
107,151,44,-129,31,97,-87,-333,-3,0,30,-56
106,149,43,-127,31,96,-86,-323,-6,0,23,-61
106,150,44,-128,31,97,-82,-314,-8,0,15,-62
107,153,46,-130,30,99,-78,-301,-8,0,10,-61
107,159,52,-133,27,105,-73,-286,-4,0,8,-58
105,166,61,-135,22,113,-71,-272,-1,0,9,-54
102,170,68,-136,17,119,-68,-260,0,0,9,-52
98,165,67,-131,15,116,-62,-250,0,0,6,-55
93,153,60,-123,16,106,-54,-241,-3,0,1,-61
87,140,53,-113,17,96,-48,-230,-6,1,-3,-67
82,128,46,-105,18,87,-43,-217,-8,3,-8,-72
79,119,40,-99,19,79,-40,-199,-7,3,-12,-75
78,113,35,-95,21,74,-39,-179,-4,0,-17,-77
78,107,29,-92,24,68,-38,-159,-3,-2,-22,-77
78,102,24,-90,27,63,-39,-140,-3,-4,-27,-77
76,102,26,-89,25,64,-38,-122,-4,-2,-33,-81
73,102,29,-87,22,65,-35,-105,-4,0,-38,-86
70,98,28,-84,21,63,-29,-88,-3,0,-40,-87
68,92,24,-80,22,58,-24,-71,-4,0,-42,-87
67,90,23,-78,22,56,-23,-55,-3,0,-46,-87
67,91,24,-79,21,57,-24,-38,-3,0,-51,-87
68,92,24,-80,22,58,-22,-17,-4,-1,-57,-83
68,92,24,-80,22,58,-19,4,-4,-3,-61,-81
66,90,24,-78,21,57,-16,23,-2,-4,-66,-89
63,87,24,-75,19,55,-14,39,0,-4,-71,-103
62,83,21,-72,20,52,-12,55,-1,-2,-76,-116
63,78,15,-70,24,46,-9,69,-3,0,-80,-121
61,76,15,-68,23,45,-7,82,-3,0,-86,-119
58,77,19,-67,19,48,-4,94,-3,0,-94,-113
57,79,22,-68,17,50,-1,105,-6,0,-104,-108
57,81,24,-69,16,52,0,115,-8,0,-111,-106
58,82,24,-70,17,53,-1,121,-7,0,-110,-109
58,82,24,-70,17,53,-7,125,-4,0,-103,-111
57,81,24,-69,16,52,-14,128,-5,0,-97,-110
57,78,21,-67,18,49,-18,134,-8,0,-96,-107
58,74,16,-66,21,45,-16,142,-7,-1,-100,-106
58,69,11,-63,23,40,-10,153,-4,-3,-106,-106
57,63,6,-60,25,34,-4,164,-4,-4,-108,-107
58,58,0,-58,29,29,0,173,-8,-4,-107,-107
57,55,-2,-56,29,26,2,179,-10,-3,-106,-104
57,53,-4,-55,30,24,3,184,-9,-3,-106,-98
58,50,-8,-54,33,21,3,188,-6,-3,-106,-92
58,48,-10,-53,34,19,3,190,-4,-3,-106,-87
57,47,-10,-52,33,18,5,186,-3,-4,-108,-86
57,48,-9,-52,33,19,8,177,-3,-4,-111,-87
58,47,-11,-52,34,18,8,167,-3,-2,-114,-86
58,47,-11,-52,34,18,8,161,-3,0,-116,-86
56,51,-5,-53,30,23,11,164,-5,0,-115,-91
53,60,7,-56,23,33,17,173,-8,0,-112,-100
51,72,21,-61,15,46,23,179,-9,0,-111,-107
48,78,30,-63,9,54,28,184,-9,0,-111,-111
45,70,25,-57,10,47,31,188,-8,0,-112,-110
43,55,12,-49,15,33,33,193,-8,0,-112,-103
42,48,6,-45,18,27,34,198,-9,0,-111,-95
42,47,5,-44,18,26,34,200,-9,0,-111,-88
44,48,4,-46,20,26,33,197,-9,0,-112,-85
47,48,1,-47,23,24,33,191,-9,0,-112,-86
48,47,-1,-47,24,23,34,183,-8,0,-110,-87
48,47,-1,-47,24,23,34,176,-8,0,-107,-87
46,49,3,-47,21,26,33,173,-9,-1,-106,-86
43,52,9,-47,17,30,33,174,-9,-3,-106,-86
42,55,13,-48,14,34,34,176,-6,-4,-107,-86
42,57,15,-49,13,36,34,179,-4,-4,-107,-86
43,56,13,-49,15,34,32,182,-4,-3,-106,-87
43,53,10,-48,16,31,29,184,-8,-3,-106,-87
41,52,11,-46,15,31,26,185,-11,-4,-107,-85
39,52,13,-45,13,32,24,184,-14,-4,-107,-82
40,54,14,-47,13,34,23,185,-12,-3,-106,-80
42,57,15,-49,13,36,23,189,-9,-3,-106,-78
42,60,18,-51,12,39,24,193,-8,-4,-107,-76
39,62,23,-50,8,42,24,198,-9,-4,-107,-73
38,62,24,-50,7,43,23,202,-7,-3,-105,-70
38,62,24,-50,7,43,23,207,-4,-3,-102,-64
39,64,25,-51,7,44,25,215,-3,-4,-101,-55
39,67,28,-53,5,47,28,222,-3,-4,-101,-48
36,68,32,-52,2,50,30,225,-4,-3,-101,-50
34,67,33,-50,0,50,33,224,-4,-3,-101,-60
34,68,34,-51,0,51,36,223,-4,-4,-102,-70
34,68,34,-51,0,51,38,223,-4,-4,-102,-77
31,64,33,-47,-1,48,39,226,-3,-3,-98,-78
25,58,33,-41,-4,45,39,232,-3,-3,-93,-78
18,57,39,-37,-10,48,38,238,-5,-4,-89,-78
14,57,43,-35,-14,50,38,243,-8,-4,-87,-78
17,57,40,-37,-11,48,38,244,-9,-3,-85,-72
26,57,31,-41,-2,44,38,243,-9,-3,-83,-61
36,59,23,-47,6,41,39,245,-8,-4,-77,-47
42,62,20,-52,11,41,39,245,-8,-4,-72,-39
40,63,23,-51,8,43,37,235,-8,-2,-77,-42
31,62,31,-46,0,46,34,218,-8,0,-88,-54
19,63,44,-41,-12,53,31,199,-9,0,-101,-66
10,63,53,-36,-21,58,29,183,-9,0,-110,-76
7,60,53,-33,-23,56,28,170,-7,0,-113,-82
8,54,46,-31,-19,50,29,162,-4,0,-111,-86
9,48,39,-28,-15,43,28,157,-3,-1,-113,-88
8,43,35,-25,-13,39,28,152,-3,-3,-116,-87
9,40,31,-24,-11,35,31,145,-5,-4,-116,-82
12,35,23,-23,-5,29,37,137,-8,-4,-112,-74
18,28,10,-23,4,19,44,133,-9,-2,-109,-67
23,24,1,-23,11,12,48,131,-9,0,-107,-62
25,27,2,-26,11,14,44,126,-7,0,-106,-65
24,36,12,-30,6,24,36,118,-4,0,-107,-71
21,46,25,-33,-2,35,27,111,-3,-1,-105,-74
19,52,33,-35,-7,42,20,107,-3,-3,-102,-73
18,52,34,-35,-8,43,16,106,-4,-4,-98,-72
18,48,30,-33,-6,39,14,107,-4,-4,-93,-72
19,46,27,-32,-4,36,13,105,-3,-3,-87,-72
19,47,28,-33,-4,37,13,102,-3,-3,-82,-72
18,51,33,-34,-7,42,15,98,-5,-4,-81,-74
18,56,38,-37,-10,47,18,93,-8,-4,-81,-77
19,60,41,-39,-11,50,19,87,-9,-2,-82,-80
18,58,40,-38,-11,49,19,82,-9,0,-82,-81
19,53,34,-36,-7,43,18,80,-9,0,-79,-81
19,44,25,-31,-3,34,18,81,-9,0,-74,-79
18,37,19,-27,0,28,19,83,-7,-1,-68,-73
18,34,16,-26,1,25,19,82,-4,-3,-63,-68
19,35,16,-27,1,25,18,76,-3,-4,-61,-67
19,38,19,-28,0,28,18,65,-3,-4,-62,-67
17,39,22,-28,-2,30,19,55,-4,-4,-64,-67
14,39,25,-26,-5,32,19,48,-4,-4,-67,-67
11,39,28,-25,-8,33,17,46,-3,-2,-69,-69
9,42,33,-25,-12,37,14,47,-3,0,-72,-72
8,45,37,-26,-14,41,10,48,-5,0,-75,-75
8,48,40,-28,-16,44,8,48,-8,0,-77,-77
10,44,34,-27,-12,39,12,47,-9,0,-78,-78
13,36,23,-24,-5,29,21,47,-9,0,-78,-78
15,25,10,-20,2,17,32,48,-8,0,-77,-77
18,19,1,-18,8,10,39,48,-8,0,-77,-77
21,22,1,-21,10,11,33,45,-9,0,-78,-78
23,32,9,-27,7,20,21,40,-9,0,-78,-78
24,37,13,-30,5,25,13,34,-8,0,-77,-78
24,38,14,-31,5,26,9,29,-8,0,-77,-78
23,42,19,-32,2,30,5,26,-9,0,-78,-77
23,47,24,-35,0,35,0,24,-9,0,-78,-77
24,49,25,-36,0,37,0,21,-8,0,-77,-78
24,48,24,-36,0,36,0,19,-8,0,-77,-78
23,45,22,-34,0,33,0,18,-9,0,-78,-76
23,40,17,-31,3,28,0,18,-9,0,-78,-73
24,34,10,-29,7,22,0,18,-8,0,-76,-70
24,29,5,-26,9,17,0,18,-8,0,-73,-68
23,28,5,-25,9,16,2,20,-10,0,-71,-67
23,32,9,-27,7,20,7,23,-13,-3,-72,-68
24,42,18,-33,3,30,15,23,-14,-6,-75,-66
24,55,31,-39,-3,43,22,23,-14,-8,-77,-63
22,64,42,-43,-10,53,26,26,-14,-7,-76,-61
19,71,52,-45,-16,61,28,32,-14,-4,-73,-58
18,77,59,-47,-20,68,33,37,-12,-3,-71,-54
18,78,60,-48,-21,69,44,41,-9,-3,-68,-49
19,71,52,-45,-16,61,59,47,-9,-3,-64,-45
19,60,41,-39,-11,50,74,52,-12,-3,-59,-43
19,53,34,-36,-7,43,87,51,-17,-6,-55,-41
19,56,37,-37,-9,46,99,51,-19,-8,-53,-39
18,67,49,-42,-15,58,109,61,-13,-7,-50,-36
18,83,65,-50,-23,74,116,75,-5,-4,-48,-34
20,97,77,-58,-28,87,117,82,-2,-3,-47,-33
23,105,82,-64,-29,93,116,82,-4,-4,-47,-33
26,108,82,-67,-28,95,118,81,-2,-2,-48,-34
28,107,79,-67,-25,93,117,78,0,0,-48,-34
29,106,77,-67,-24,91,110,73,-2,0,-47,-33
28,106,78,-67,-25,92,99,65,-8,0,-47,-33
29,108,79,-68,-25,93,90,56,-10,-1,-48,-34
29,111,82,-70,-26,96,83,49,-9,-3,-48,-34
26,113,87,-69,-30,100,76,46,-8,-4,-46,-31
23,115,92,-69,-34,103,69,47,-8,-4,-44,-25
26,122,96,-74,-35,109,62,48,-9,-3,-39,-20
32,130,98,-81,-33,114,55,48,-9,-3,-34,-15
36,130,94,-83,-29,112,45,47,-6,-4,-33,-9
38,126,88,-82,-25,107,32,47,-4,-4,-33,-4
41,124,83,-82,-21,103,17,49,-4,-3,-34,-2
46,122,76,-84,-15,99,2,51,-7,-3,-34,-3
51,118,67,-84,-8,92,-6,56,-11,-6,-34,-6
53,113,60,-83,-3,86,-8,61,-14,-9,-34,-8
49,109,60,-79,-5,84,-7,65,-12,-6,-33,-8
44,107,63,-75,-9,85,-4,67,-9,0,-33,-8
40,106,66,-73,-13,86,-1,69,-9,0,-36,-11
39,103,64,-71,-12,83,0,68,-9,0,-41,-17
36,95,59,-65,-11,77,0,63,-5,1,-45,-24
30,84,54,-57,-12,69,0,55,0,3,-51,-32
22,75,53,-48,-15,64,0,45,-2,4,-60,-37
15,69,54,-42,-19,61,0,36,-7,4,-71,-42
12,64,52,-38,-20,58,0,27,-10,2,-75,-46
13,59,46,-36,-16,52,0,17,-9,0,-77,-51
15,54,39,-34,-12,46,0,4,-6,0,-82,-58
14,49,35,-31,-10,42,0,-7,-4,0,-90,-66
9,45,36,-27,-13,40,0,-10,-3,0,-96,-71
1,43,42,-22,-20,42,0,-9,-4,0,-101,-72
-2,41,43,-19,-22,42,0,-9,-3,-1,-104,-72
-3,39,42,-18,-22,40,0,-12,-3,-3,-106,-72
-3,36,39,-16,-21,37,-1,-16,-7,-4,-107,-74
-3,34,37,-15,-20,35,-3,-18,-13,-4,-107,-77
-4,34,38,-15,-21,36,-3,-18,-14,-2,-106,-78
-4,34,38,-15,-21,36,-3,-18,-14,0,-106,-78
-3,31,34,-14,-18,32,-6,-24,-14,0,-107,-77
-3,25,28,-11,-15,26,-12,-35,-14,0,-107,-78
-6,20,26,-7,-16,23,-18,-47,-12,0,-106,-77
-9,18,27,-4,-18,22,-23,-56,-9,0,-106,-77
-6,23,29,-8,-17,26,-24,-61,-8,0,-108,-80
1,35,34,-18,-16,34,-24,-62,-8,0,-111,-85
12,48,36,-30,-12,42,-24,-62,-9,1,-112,-91
18,57,39,-37,-10,48,-24,-62,-8,3,-112,-96
14,54,40,-34,-13,47,-22,-64,-9,4,-111,-96
0,42,42,-21,-21,42,-19,-67,-9,4,-111,-93
-15,29,44,-7,-29,36,-17,-70,-7,4,-113,-87
-27,20,47,3,-37,33,-14,-72,-4,4,-116,-82
-28,17,45,5,-36,31,-11,-74,-3,3,-118,-80
-21,18,39,1,-30,28,-9,-77,-3,0,-121,-78
-12,19,31,-3,-21,25,-8,-81,-4,-2,-123,-76
-5,19,24,-7,-14,21,-8,-86,-4,-3,-125,-73
-2,16,18,-7,-10,17,-9,-88,-3,-2,-126,-72
-3,13,16,-5,-9,14,-9,-87,-3,0,-126,-72
-4,16,20,-6,-12,18,-8,-85,-4,0,-125,-73
-4,19,23,-7,-13,21,-9,-82,-3,0,-125,-73
-4,16,20,-6,-12,18,-8,-81,-4,0,-126,-73
-4,10,14,-3,-9,12,-8,-81,-4,0,-126,-73
-3,7,10,-2,-6,8,-9,-82,-3,1,-124,-72
-3,8,11,-2,-7,9,-9,-82,-3,3,-122,-72
-7,9,16,-1,-11,12,-7,-82,-4,5,-121,-75
-12,9,21,1,-16,15,-4,-82,-4,8,-122,-77
-16,7,23,4,-19,15,-2,-81,-2,11,-121,-76
-18,5,23,6,-20,14,0,-81,-2,10,-124,-76
-21,0,21,10,-21,10,2,-82,-10,2,-134,-85
-23,-7,16,15,-19,4,7,-85,-18,-4,-148,-98
-23,-14,9,18,-16,-2,13,-90,-17,2,-154,-108
-23,-18,5,20,-14,-6,21,-89,-23,1,-155,-112
-28,-16,12,22,-20,-2,31,-73,-57,-36,-159,-108
-37,-10,27,23,-32,8,40,-46,-103,-88,-164,-99
-40,-5,35,22,-37,15,47,-22,-123,-105,-161,-88
-33,-4,29,18,-31,12,40,-12,-128,-110,-140,-73
-10,-4,6,7,-8,1,4,-28,-147,-155,-92,-48
24,-4,-28,-10,26,-16,-51,-77,-174,-220,-20,-14
61,1,-60,-31,60,-29,-115,-168,-186,-252,62,28
109,38,-71,-73,90,-16,-199,-323,-170,-229,175,93
180,136,-44,-158,112,46,-328,-569,-125,-156,341,196
259,265,6,-262,126,135,-476,-858,-85,-88,532,316
320,367,47,-343,136,207,-594,-1110,-92,-92,694,416
355,428,73,-391,141,250,-678,-1279,-101,-95,813,483
366,459,93,-412,136,276,-744,-1344,-28,28,897,523
359,481,122,-420,118,301,-786,-1328,90,214,954,542
342,510,168,-426,87,339,-781,-1275,165,309,988,550
313,516,203,-414,55,359,-725,-1202,194,305,964,527
263,450,187,-356,38,318,-619,-1114,215,271,833,446
198,337,139,-267,29,238,-484,-1016,228,233,630,328
129,233,104,-181,12,168,-351,-916,217,196,431,217
66,157,91,-111,-12,124,-251,-825,163,142,260,124
22,101,79,-61,-28,90,-208,-760,61,50,113,43
-7,58,65,-25,-36,61,-204,-723,-41,-39,-3,-24
-30,19,49,5,-39,34,-197,-705,-71,-59,-84,-71
-45,-12,33,28,-39,10,-180,-689,-46,-28,-129,-98
-49,-29,20,39,-34,-4,-159,-655,-24,-3,-143,-106
-44,-30,14,37,-29,-8,-140,-607,-19,3,-138,-103
-39,-22,17,30,-28,-2,-126,-563,-19,4,-127,-98
-35,-11,24,23,-29,6,-115,-523,-19,4,-118,-93
-28,-3,25,15,-26,11,-101,-478,-15,3,-116,-87
-20,2,22,9,-21,12,-85,-430,-10,3,-117,-80
-16,9,25,3,-20,17,-72,-389,-7,3,-114,-71
-14,14,28,0,-21,21,-61,-354,-8,3,-108,-64
-12,9,21,1,-16,15,-48,-322,-9,4,-104,-61
-9,0,9,4,-9,4,-36,-293,-9,4,-102,-62
-7,-10,-3,8,-2,-6,-28,-271,-8,2,-99,-65
-4,-14,-10,9,3,-12,-24,-255,-8,0,-97,-67
-2,-8,-6,5,2,-7,-23,-248,-12,0,-98,-68
0,4,4,-2,-2,4,-23,-245,-17,0,-101,-68
0,20,20,-10,-10,20,-24,-239,-20,0,-102,-67
0,32,32,-16,-16,32,-24,-231,-19,0,-102,-67
0,33,33,-16,-16,33,-23,-221,-18,1,-100,-68
-2,26,28,-12,-15,27,-23,-211,-18,3,-97,-68
-7,19,26,-6,-16,22,-24,-202,-19,4,-94,-66
-12,14,26,-1,-19,20,-24,-196,-19,4,-92,-63
-15,12,27,1,-21,19,-20,-192,-17,3,-91,-62
-14,9,23,2,-18,16,-15,-190,-14,3,-92,-62
-12,5,17,3,-14,11,-12,-189,-11,4,-90,-63
-9,0,9,4,-9,4,-13,-186,-9,4,-87,-62
-7,-1,6,4,-6,2,-14,-179,-8,3,-84,-63
-4,0,4,2,-4,2,-14,-171,-8,3,-82,-63
-2,1,3,0,-2,2,-13,-165,-8,4,-81,-61
0,6,6,-3,-3,6,-13,-162,-8,4,-81,-58
0,17,17,-8,-8,17,-15,-157,-10,3,-83,-57
0,30,30,-15,-15,30,-18,-152,-13,3,-86,-57
0,41,41,-20,-20,41,-19,-145,-14,4,-89,-58
0,44,44,-22,-22,44,-19,-138,-14,4,-91,-58
0,34,34,-17,-17,34,-17,-130,-13,3,-92,-57
0,18,18,-9,-9,18,-14,-123,-13,3,-92,-57
0,5,5,-2,-2,5,-11,-117,-16,4,-92,-58
0,0,0,0,0,0,-9,-109,-18,4,-92,-58
0,0,0,0,0,0,-8,-100,-17,3,-90,-55
0,3,3,-1,-1,3,-8,-89,-14,3,-88,-50
1,4,3,-2,-1,3,-9,-80,-12,4,-83,-41
3,3,0,-3,1,1,-9,-73,-13,4,-81,-34
4,5,1,-4,1,3,-8,-72,-15,3,-85,-34
4,8,4,-6,0,6,-8,-73,-18,3,-94,-40
2,9,7,-5,-2,8,-12,-71,-19,4,-103,-49
0,9,9,-4,-4,9,-17,-68,-19,4,-110,-56
0,8,8,-4,-4,8,-20,-67,-17,2,-113,-59
0,9,9,-4,-4,9,-19,-67,-14,0,-112,-58
0,8,8,-4,-4,8,-18,-67,-13,-1,-111,-56
0,8,8,-4,-4,8,-19,-67,-13,-3,-111,-53
2,10,8,-6,-3,9,-18,-69,-14,-6,-113,-50
7,13,6,-10,0,9,-18,-72,-14,-8,-116,-48
10,15,5,-12,2,10,-20,-74,-13,-7,-119,-47
10,18,8,-14,1,13,-23,-77,-13,-4,-121,-47
5,21,16,-13,-5,18,-24,-79,-14,-3,-120,-49
0,23,23,-11,-11,23,-24,-81,-14,-3,-117,-49
2,24,22,-13,-10,23,-23,-82,-11,-4,-115,-43
7,23,16,-15,-4,19,-23,-81,-9,-4,-112,-35
10,25,15,-17,-2,20,-23,-82,-10,-3,-108,-32
9,28,19,-18,-5,23,-23,-82,-13,-3,-103,-33
8,31,23,-19,-7,27,-24,-78,-14,-4,-98,-32
8,33,25,-20,-8,29,-27,-73,-14,-4,-96,-29
10,34,24,-22,-7,29,-35,-72,-14,-3,-99,-27
13,34,21,-23,-4,27,-45,-72,-14,-3,-105,-28
15,33,18,-24,-1,25,-53,-72,-11,-4,-111,-30
18,33,15,-25,1,24,-57,-72,-9,-4,-116,-33
21,37,16,-29,2,26,-58,-76,-10,-2,-116,-34
27,42,15,-34,6,28,-58,-84,-13,0,-113,-34
33,43,10,-38,11,26,-57,-92,-14,0,-109,-32
38,43,5,-40,16,24,-57,-96,-14,0,-107,-29
38,42,4,-40,17,23,-59,-95,-13,0,-107,-27
35,42,7,-38,14,24,-62,-92,-14,0,-107,-25
31,43,12,-37,9,27,-63,-91,-13,2,-104,-20
29,43,14,-36,7,28,-63,-91,-13,4,-98,-15
28,41,13,-34,7,27,-62,-92,-15,1,-94,-11
28,39,11,-33,8,25,-62,-91,-18,-3,-92,-9
30,38,8,-34,11,23,-64,-92,-19,-3,-89,-5
33,38,5,-35,14,21,-66,-92,-19,0,-87,-1
36,40,4,-38,16,22,-71,-90,-17,1,-86,2
38,42,4,-40,17,23,-76,-87,-14,0,-87,3
38,43,5,-40,16,24,-80,-86,-13,-1,-85,4
34,42,8,-38,13,25,-81,-86,-13,-3,-82,7
32,43,11,-37,10,27,-82,-87,-15,-4,-80,13
32,46,14,-39,9,30,-81,-87,-18,-3,-78,21
39,51,12,-45,13,31,-82,-85,-19,-4,-75,29
46,57,11,-51,17,34,-85,-82,-19,-4,-69,33
47,58,11,-52,18,34,-90,-81,-17,-1,-64,33
43,58,15,-50,14,36,-96,-81,-14,3,-59,33
42,57,15,-49,13,36,-97,-81,-13,5,-55,36
42,57,15,-49,13,36,-96,-81,-13,4,-53,41
42,58,16,-50,13,37,-98,-83,-14,2,-52,43
42,58,16,-50,13,37,-101,-86,-14,0,-49,43
45,56,11,-50,17,33,-102,-87,-13,1,-42,42
51,53,2,-52,24,27,-102,-87,-13,3,-35,43
57,52,-5,-54,31,23,-101,-85,-14,3,-32,42
62,53,-9,-57,35,22,-102,-82,-14,0,-33,42
61,52,-9,-56,35,21,-101,-82,-13,0,-33,44
58,52,-6,-55,32,23,-101,-85,-13,0,-30,47
60,55,-5,-57,32,25,-103,-92,-15,1,-25,48
66,61,-5,-63,35,28,-106,-100,-18,3,-20,48
70,66,-4,-68,37,31,-107,-105,-20,4,-16,47
72,68,-4,-70,38,32,-107,-106,-19,4,-14,47
73,66,-7,-69,40,29,-106,-107,-16,4,-11,48
72,63,-9,-67,40,27,-106,-107,-14,4,-9,48
73,62,-11,-67,42,25,-106,-106,-15,2,-9,47
73,63,-10,-68,41,26,-106,-106,-18,0,-9,47
69,61,-8,-65,38,26,-107,-110,-19,0,-6,50
64,58,-6,-61,35,26,-107,-115,-19,3,-1,56
60,55,-5,-57,32,25,-105,-118,-19,4,3,61
58,53,-5,-55,31,24,-102,-120,-19,4,7,63
56,52,-4,-54,30,24,-101,-127,-16,3,11,61
53,56,3,-54,25,29,-101,-137,-14,3,14,58
52,64,12,-58,20,38,-101,-147,-15,3,12,57
52,72,20,-62,16,46,-101,-154,-18,3,9,57
53,71,18,-62,17,44,-103,-158,-17,4,9,57
53,64,11,-58,21,37,-106,-160,-14,4,12,57
50,60,10,-55,20,35,-107,-162,-13,2,17,58
44,58,14,-51,15,36,-107,-164,-13,0,22,58
39,56,17,-47,11,36,-107,-165,-13,0,26,55
35,53,18,-44,8,35,-107,-165,-13,3,28,49
31,52,21,-41,5,36,-105,-164,-15,6,27,45
29,53,24,-41,2,38,-102,-165,-18,8,24,43
29,51,22,-40,3,36,-99,-164,-18,9,22,43
29,48,19,-38,5,33,-97,-164,-15,9,23,46
27,45,18,-36,4,31,-97,-166,-11,9,26,50
24,43,19,-33,2,31,-97,-169,-9,9,28,52
23,42,19,-32,2,30,-94,-172,-9,7,26,52
23,43,20,-33,1,31,-88,-174,-12,4,21,48
24,42,18,-33,3,30,-84,-175,-16,3,14,46
24,39,15,-31,4,27,-82,-175,-18,3,9,43
22,36,14,-29,4,25,-80,-175,-17,4,8,41
19,34,15,-26,2,24,-78,-175,-14,4,12,39
18,33,15,-25,1,24,-77,-174,-13,3,18,39
19,33,14,-26,2,23,-77,-174,-13,3,20,39
17,34,17,-25,0,25,-78,-177,-14,4,9,34
14,34,20,-24,-3,27,-78,-183,-14,4,-12,25
12,30,18,-21,-3,24,-75,-188,-13,2,-33,21
9,25,16,-17,-3,20,-73,-193,-14,0,-49,19
7,22,15,-14,-4,18,-74,-197,-13,0,-58,15
4,23,19,-13,-7,21,-80,-199,-13,3,-62,10
2,24,22,-13,-10,23,-85,-198,-14,4,-65,7
0,24,24,-12,-12,24,-87,-195,-14,4,-71,5
-1,22,23,-10,-12,22,-85,-193,-11,2,-77,0
-3,20,23,-8,-13,21,-82,-194,-9,0,-84,-7
-3,15,18,-6,-10,16,-80,-196,-10,0,-92,-12
-3,10,13,-3,-8,11,-78,-199,-13,0,-100,-13
-5,6,11,0,-8,8,-76,-200,-14,0,-105,-14
-8,4,12,2,-10,8,-73,-199,-13,0,-110,-13
-9,3,12,3,-10,7,-70,-201,-15,0,-115,-14
-8,3,11,2,-9,7,-68,-203,-18,0,-120,-17
-10,4,14,3,-12,9,-67,-203,-17,0,-126,-22
-13,4,17,4,-15,10,-67,-200,-14,0,-133,-27
-15,2,17,6,-16,9,-67,-197,-15,0,-142,-29
-18,0,18,9,-18,9,-67,-195,-18,0,-152,-29
-21,0,21,10,-21,10,-69,-194,-17,0,-163,-28
-27,0,27,13,-27,13,-71,-194,-14,0,-172,-28
-34,0,34,17,-34,17,-75,-195,-14,1,-179,-29
-38,0,38,19,-38,19,-77,-195,-18,3,-184,-29
-36,0,36,18,-36,18,-76,-193,-20,4,-185,-28
-27,0,27,13,-27,13,-73,-190,-19,4,-184,-28
-16,0,16,8,-16,8,-72,-189,-17,4,-185,-28
-9,0,9,4,-9,4,-73,-190,-14,4,-185,-28
-10,0,10,5,-10,5,-71,-188,-13,2,-180,-29
-16,0,16,8,-16,8,-68,-185,-13,0,-172,-29
-23,0,23,11,-23,11,-67,-183,-13,0,-165,-28
-28,0,28,14,-28,14,-67,-181,-13,0,-158,-28
-29,0,29,14,-29,14,-68,-176,-15,0,-147,-29
-29,0,29,14,-29,14,-67,-171,-18,0,-134,-29
-28,0,28,14,-28,14,-68,-168,-19,0,-123,-27
-28,0,28,14,-28,14,-68,-166,-19,0,-114,-24
-30,-3,27,16,-28,12,-66,-158,-18,0,-104,-23
-33,-8,25,20,-29,8,-63,-144,-18,0,-91,-24
-35,-7,28,21,-31,10,-62,-133,-19,0,-77,-22
-34,-1,33,17,-33,16,-63,-124,-19,0,-65,-19
-31,1,32,15,-31,16,-61,-117,-19,0,-57,-18
-25,0,25,12,-25,12,-58,-113,-19,0,-50,-18
-21,0,21,10,-21,10,-55,-110,-18,0,-41,-19
-18,0,18,9,-18,9,-53,-107,-18,0,-31,-19
-20,0,20,10,-20,10,-52,-104,-19,0,-25,-18
-23,3,26,10,-24,14,-52,-98,-19,0,-24,-18
-25,6,31,9,-28,18,-53,-92,-17,1,-23,-19
-24,8,32,8,-28,20,-53,-84,-14,3,-20,-19
-22,7,29,7,-25,18,-50,-75,-14,4,-13,-18
-19,4,23,7,-21,13,-44,-65,-17,4,-3,-15
-19,3,22,8,-20,12,-39,-56,-21,3,7,-10
-19,3,22,8,-20,12,-34,-49,-23,3,16,-5
-15,4,19,5,-17,11,-33,-45,-22,4,22,-3
-10,4,14,3,-12,9,-33,-43,-19,4,23,-3
-7,4,11,1,-9,7,-34,-40,-18,3,24,-4
-8,4,12,2,-10,8,-34,-35,-18,3,27,-4
-9,3,12,3,-10,7,-33,-32,-18,4,33,-4
-9,3,12,3,-10,7,-30,-29,-18,4,41,-4
-8,5,13,1,-10,9,-25,-26,-20,3,46,-3
-8,8,16,0,-12,12,-20,-20,-23,3,50,0
-10,9,19,0,-14,14,-16,-15,-24,4,60,2
-13,8,21,2,-17,14,-14,-10,-24,4,73,7
-15,10,25,2,-20,17,-12,-5,-24,3,87,13
-14,10,24,2,-19,17,-9,-1,-24,3,99,18
-10,3,13,3,-11,8,-8,1,-22,4,106,19
-2,-6,-4,4,1,-5,-8,3,-19,4,111,19
5,-14,-19,4,12,-16,-9,5,-18,3,113,18
12,-18,-30,3,21,-24,-9,8,-18,3,115,18
14,-19,-33,2,23,-26,-8,10,-19,4,120,20
14,-19,-33,2,23,-26,-8,13,-19,4,127,23
14,-17,-31,1,22,-24,-9,15,-18,3,139,26
14,-15,-29,0,21,-22,-9,18,-18,3,149,28
11,-10,-21,0,16,-15,-8,20,-18,5,150,29
6,-5,-11,0,8,-8,-8,23,-18,8,143,28
0,-1,-1,0,0,-1,-9,24,-19,9,136,29
-7,2,9,2,-8,5,-9,24,-19,9,131,29
-11,7,18,2,-14,12,-9,22,-18,9,130,25
-13,12,25,0,-19,18,-9,23,-18,9,131,20
-15,18,33,-1,-24,25,-8,27,-20,7,129,17
-18,23,41,-2,-29,32,-8,33,-23,4,126,18
-19,24,43,-2,-31,33,-9,31,-24,3,124,19
-19,24,43,-2,-31,33,-9,25,-24,3,122,19
-17,23,40,-3,-28,31,-8,22,-22,5,120,18
-14,23,37,-4,-25,30,-8,23,-19,8,118,15
-13,25,38,-6,-25,31,-9,24,-18,9,113,10
-13,27,40,-7,-26,33,-9,23,-18,9,108,5
-15,31,46,-8,-30,38,-8,25,-20,7,104,3
-18,33,51,-7,-34,42,-8,27,-23,4,102,3
-20,32,52,-6,-36,42,-10,31,-24,3,100,4
-23,29,52,-3,-37,40,-13,33,-24,3,97,4
-26,27,53,0,-39,40,-14,34,-23,4,95,4
-28,28,56,0,-42,42,-14,34,-23,4,92,4
-29,32,61,-1,-45,46,-12,33,-24,3,90,2
-29,37,66,-4,-47,51,-9,33,-24,3,87,0
-29,40,69,-5,-49,54,-8,34,-22,5,84,-1
-29,39,68,-5,-48,53,-8,34,-19,8,82,-3
-27,37,64,-5,-45,50,-9,33,-20,9,81,-5
-25,34,59,-4,-42,46,-8,33,-23,9,82,-8
-21,33,54,-6,-37,43,-9,34,-24,7,81,-9
-19,33,52,-7,-35,42,-9,34,-24,4,81,-9
-18,35,53,-8,-35,44,-7,33,-23,3,84,-8
-18,38,56,-10,-37,47,-4,33,-23,3,90,-8
-18,39,57,-10,-37,48,-2,35,-24,4,94,-9
-18,38,56,-10,-37,47,0,38,-24,4,96,-9
-20,40,60,-10,-40,50,0,39,-23,3,97,-8
-23,42,65,-9,-44,53,0,39,-23,3,96,-8
-24,42,66,-9,-45,54,0,38,-24,4,97,-9
-24,39,63,-7,-43,51,0,38,-24,4,100,-9
-22,38,60,-8,-41,49,1,39,-23,3,106,-7
-19,39,58,-10,-38,48,3,42,-23,3,114,-5
-18,37,55,-9,-36,46,4,44,-24,5,123,-1
-18,34,52,-8,-35,43,4,47,-24,8,130,0
-20,32,52,-6,-36,42,3,48,-22,10,128,0
-23,29,52,-3,-37,40,3,48,-19,13,119,-3
-24,27,51,-1,-37,39,5,47,-18,15,111,-4
-24,24,48,0,-36,36,8,47,-18,14,107,-4
-23,23,46,0,-34,34,9,48,-18,10,108,-3
-23,23,46,0,-34,34,9,48,-18,5,111,-3
-24,24,48,0,-36,36,8,47,-20,3,111,-4
-24,24,48,0,-36,36,8,47,-23,3,107,-4
-23,22,45,0,-34,33,10,49,-24,3,106,-2
-23,19,42,2,-32,30,13,51,-23,3,106,0
-25,18,43,3,-34,30,16,55,-25,5,107,0
-28,18,46,5,-37,32,18,57,-28,8,107,0
-29,19,48,5,-38,33,19,58,-29,9,106,0
-29,19,48,5,-38,33,19,58,-29,9,106,0
-28,18,46,5,-37,32,19,57,-28,8,107,0
-28,18,46,5,-37,32,19,57,-28,8,107,0
-29,19,48,5,-38,33,17,58,-29,9,105,-1
-29,19,48,5,-38,33,15,58,-29,9,102,-3
-28,18,46,5,-37,32,11,57,-28,8,100,-4
-28,18,46,5,-37,32,9,57,-28,8,97,-3
-29,20,49,4,-39,34,8,58,-29,8,95,-5
-29,22,51,3,-40,36,8,58,-29,8,92,-8
-27,26,53,0,-40,39,9,57,-28,9,90,-9
-24,28,52,-2,-38,40,8,57,-28,9,88,-9
-23,29,52,-3,-37,40,9,58,-29,8,82,-9
-23,29,52,-3,-37,40,9,58,-29,8,75,-9
-24,28,52,-2,-38,40,8,57,-28,9,68,-8
-24,28,52,-2,-38,40,8,57,-28,9,63,-8
-23,29,52,-3,-37,40,12,62,-30,7,62,-11
-24,31,55,-3,-39,43,20,70,-33,5,63,-17
-23,40,63,-8,-43,51,31,76,-34,1,61,-21
-23,53,76,-15,-49,64,41,80,-34,0,58,-23
-24,65,89,-20,-56,77,45,85,-34,0,57,-23
-24,75,99,-25,-61,87,46,90,-34,3,57,-20
-22,82,104,-30,-63,93,53,95,-32,4,58,-15
-19,86,105,-33,-62,95,64,100,-29,4,58,-9
-18,86,104,-34,-61,95,75,106,-29,4,57,-9
-18,85,103,-33,-60,94,84,111,-32,4,54,-12
-18,92,110,-37,-64,101,91,111,-37,2,49,-16
-18,103,121,-42,-69,112,99,110,-39,0,43,-18
-20,112,132,-46,-76,122,109,117,-34,0,43,-17
-23,116,139,-46,-81,127,119,128,-25,3,46,-14
-24,117,141,-46,-82,129,124,133,-22,4,49,-13
-24,117,141,-46,-82,129,125,132,-24,3,48,-13
-23,115,138,-46,-80,126,127,128,-22,5,45,-15
-23,113,136,-45,-79,124,127,124,-19,8,40,-18
-26,109,135,-41,-80,122,121,116,-21,9,35,-20
-29,107,136,-39,-82,121,110,105,-27,9,30,-23
-26,108,134,-41,-80,121,99,95,-30,7,25,-25
-20,111,131,-45,-75,121,90,88,-29,4,20,-24
-16,113,129,-48,-72,121,80,85,-28,3,16,-20
-14,115,129,-50,-71,122,70,86,-28,3,14,-14
-10,120,130,-55,-70,125,63,88,-29,4,14,-14
-5,125,130,-60,-67,127,55,91,-29,4,14,-17
-2,124,126,-61,-64,125,46,94,-27,3,11,-21
0,118,118,-59,-59,118,33,96,-24,3,5,-23
1,114,113,-57,-56,113,19,97,-24,4,0,-23
3,112,109,-57,-53,110,6,96,-27,4,-2,-23
4,109,105,-56,-50,107,0,98,-31,2,-6,-25
4,103,99,-53,-47,101,0,100,-34,0,-11,-28
1,98,97,-49,-48,97,0,103,-32,2,-19,-29
-2,93,95,-45,-48,94,3,106,-29,7,-29,-28
-5,89,94,-42,-49,91,5,108,-29,9,-44,-31
-8,84,92,-38,-50,88,8,107,-29,8,-59,-36
-11,76,87,-32,-49,81,9,103,-25,10,-68,-43
-16,66,82,-25,-49,74,9,95,-19,13,-75,-50
-24,57,81,-16,-52,69,8,84,-20,14,-86,-57
-32,49,81,-8,-56,65,8,75,-26,14,-98,-61
-35,44,79,-4,-57,61,9,69,-31,12,-105,-64
-34,40,74,-3,-54,57,9,64,-33,9,-106,-66
-32,35,67,-1,-49,51,9,57,-34,8,-110,-71
-33,30,63,1,-48,46,9,49,-34,8,-118,-76
-36,26,62,5,-49,44,8,46,-32,9,-128,-80
-41,24,65,8,-53,44,8,47,-30,9,-137,-82
-43,22,65,10,-54,43,9,47,-26,7,-146,-81
-43,19,62,12,-52,40,9,44,-23,4,-154,-81
-42,16,58,13,-50,37,7,41,-26,3,-158,-85
-42,14,56,14,-49,35,4,39,-32,3,-160,-94
-43,14,57,14,-50,35,3,38,-35,5,-162,-101
-43,14,57,14,-50,35,3,38,-34,8,-164,-105
-42,11,53,15,-47,32,4,38,-34,9,-166,-108
-42,5,47,18,-44,26,4,38,-34,9,-169,-111
-44,1,45,21,-44,23,3,39,-32,8,-171,-113
-47,0,47,23,-47,23,3,39,-29,9,-173,-116
-48,0,48,24,-48,24,4,37,-28,8,-179,-117
-48,3,51,22,-49,27,4,34,-28,8,-187,-117
-47,5,52,21,-49,28,3,33,-28,10,-193,-116
-47,8,55,19,-51,31,3,33,-28,13,-198,-116
-49,9,58,20,-53,33,4,34,-30,14,-203,-120
-51,9,60,21,-55,34,4,34,-33,14,-210,-128
-54,8,62,23,-58,35,3,33,-34,14,-220,-135
-57,8,65,24,-61,36,3,33,-34,14,-231,-139
-58,8,66,25,-62,37,4,34,-33,12,-238,-142
-58,8,66,25,-62,37,4,34,-33,10,-242,-145
-56,9,65,23,-60,37,2,32,-34,6,-246,-147
-53,9,62,22,-57,35,0,30,-34,4,-251,-150
-52,8,60,22,-56,34,-1,26,-33,5,-257,-152
-52,8,60,22,-56,34,-3,24,-33,8,-265,-155
-53,12,65,20,-59,38,-5,23,-33,9,-272,-157
-52,18,70,17,-61,44,-8,23,-33,9,-280,-160
-53,17,70,18,-61,43,-9,24,-34,8,-289,-162
-53,10,63,21,-58,36,-9,24,-34,8,-298,-164
-52,7,59,22,-55,33,-9,23,-33,10,-307,-166
-52,8,60,22,-56,34,-9,23,-33,13,-314,-168
-55,9,64,23,-59,36,-6,25,-34,15,-322,-172
-61,9,70,26,-65,39,-1,27,-34,18,-332,-174
-65,7,72,29,-68,39,3,31,-32,20,-343,-174
-67,5,72,31,-69,38,7,33,-32,20,-355,-174
-69,1,70,34,-69,35,10,33,-39,12,-372,-179
-72,-2,70,37,-71,34,12,30,-46,4,-389,-187
-73,-7,66,40,-69,29,17,25,-46,9,-402,-193
-73,-9,64,41,-68,27,22,25,-51,10,-408,-192
-71,-5,66,38,-68,30,24,41,-82,-23,-406,-183
-65,1,66,32,-65,33,20,68,-125,-75,-395,-169
-55,6,61,24,-58,33,14,92,-145,-94,-376,-155
-37,11,48,13,-42,29,-2,103,-147,-98,-342,-135
-8,23,31,-7,-19,27,-44,90,-164,-140,-283,-101
32,47,15,-39,8,31,-110,42,-192,-206,-198,-49
81,83,2,-82,39,42,-189,-59,-205,-241,-93,16
136,139,3,-137,66,71,-281,-211,-191,-222,31,95
194,226,32,-210,81,129,-391,-400,-149,-153,173,187
248,325,77,-286,85,201,-502,-591,-110,-82,316,279
284,402,118,-343,83,260,-588,-741,-118,-81,435,352
300,442,142,-371,79,292,-643,-832,-132,-89,517,399
298,448,150,-373,74,299,-679,-860,-67,24,559,416
281,434,153,-357,64,293,-683,-828,51,212,565,407
252,421,169,-336,41,295,-633,-746,132,316,541,380
211,396,185,-303,13,290,-541,-644,163,317,472,330
157,330,173,-243,-8,251,-442,-566,184,283,337,249
92,233,141,-162,-24,187,-348,-510,202,246,156,147
19,141,122,-80,-51,131,-256,-453,196,209,-28,47
-45,71,116,-13,-80,93,-181,-393,150,157,-191,-38
-85,23,108,31,-96,65,-148,-344,51,67,-315,-103
-99,-9,90,54,-94,40,-145,-316,-54,-24,-396,-146
-104,-37,67,70,-85,15,-143,-310,-91,-50,-435,-166
-106,-61,45,83,-75,-8,-131,-308,-68,-20,-446,-170
-106,-75,31,90,-68,-22,-113,-277,-45,5,-448,-168
-103,-75,28,89,-65,-23,-92,-220,-42,13,-446,-163
-99,-65,34,82,-66,-15,-78,-163,-45,14,-436,-154
-94,-52,42,73,-68,-5,-67,-116,-48,14,-422,-144
-87,-42,45,64,-66,1,-52,-76,-45,13,-414,-136
-79,-36,43,57,-61,3,-35,-43,-40,13,-410,-132
-75,-29,46,52,-60,8,-18,-16,-37,13,-403,-128
-73,-24,49,48,-61,12,-4,6,-38,13,-392,-123
-71,-26,45,48,-58,9,6,28,-39,14,-386,-118
-68,-32,36,50,-52,2,12,47,-39,14,-385,-113
-66,-35,31,50,-48,-2,14,60,-38,12,-383,-109
-64,-34,30,49,-47,-2,14,67,-38,9,-381,-107
-59,-32,27,45,-43,-2,13,68,-41,8,-377,-106
-54,-30,24,42,-39,-3,13,67,-46,8,-372,-106
-50,-26,24,38,-37,-1,13,68,-48,8,-365,-107
-48,-24,24,36,-36,0,13,71,-48,8,-358,-107
-47,-24,23,35,-35,0,14,75,-47,10,-351,-106
-47,-27,20,37,-33,-3,14,77,-47,13,-343,-103
-49,-31,18,40,-33,-6,13,78,-48,14,-335,-98
-52,-33,19,42,-35,-7,12,78,-48,14,-328,-93
-53,-34,19,43,-36,-7,18,77,-46,13,-322,-91
-53,-33,20,43,-36,-6,26,78,-44,13,-318,-91
-51,-35,16,43,-33,-9,32,77,-41,14,-312,-92
-48,-38,10,43,-29,-14,33,77,-39,14,-304,-92
-46,-39,7,42,-26,-16,34,79,-38,13,-296,-91
-43,-39,4,41,-23,-17,33,81,-38,13,-289,-88
-41,-36,5,38,-23,-15,34,82,-38,14,-283,-84
-39,-31,8,35,-23,-11,34,82,-38,14,-279,-79
-38,-23,15,30,-26,-4,32,80,-40,13,-273,-76
-38,-15,23,26,-30,4,29,78,-42,13,-265,-73
-39,-11,28,25,-33,8,28,77,-43,14,-257,-71
-39,-12,27,25,-33,7,28,77,-43,14,-250,-68
-38,-17,21,27,-29,2,29,78,-42,13,-244,-67
-39,-22,17,30,-28,-2,29,81,-42,13,-240,-67
-38,-23,15,30,-26,-4,28,83,-44,14,-236,-68
-38,-20,18,29,-28,-1,28,86,-47,14,-231,-67
-39,-16,23,27,-31,3,29,87,-47,13,-224,-68
-39,-14,25,26,-32,5,29,87,-43,13,-216,-68
-37,-14,23,25,-30,4,28,85,-42,14,-208,-66
-35,-14,21,24,-28,3,28,83,-42,14,-201,-64
-31,-11,20,21,-25,4,29,80,-44,13,-197,-61
-29,-5,24,17,-26,9,29,78,-47,13,-195,-58
-28,-1,27,14,-27,13,26,77,-48,14,-193,-57
-28,0,28,14,-28,14,20,78,-48,14,-190,-57
-28,0,28,14,-28,14,16,76,-46,13,-188,-58
-28,0,28,14,-28,14,14,74,-43,13,-185,-58
-29,0,29,14,-29,14,12,70,-42,14,-183,-56
-29,0,29,14,-29,14,9,68,-42,14,-181,-53
-26,0,26,13,-26,13,8,67,-44,12,-176,-52
-20,0,20,10,-20,10,9,67,-46,9,-168,-52
-17,0,17,8,-17,8,7,68,-49,9,-159,-54
-17,0,17,8,-17,8,4,68,-52,13,-152,-57
-22,1,23,10,-22,12,3,66,-53,14,-148,-59
-28,3,31,12,-29,17,3,63,-53,14,-146,-59
-27,4,31,11,-29,17,4,62,-51,13,-145,-53
-20,3,23,8,-21,13,4,63,-48,13,-142,-45
-17,5,22,6,-19,13,4,62,-49,14,-136,-40
-18,7,25,5,-21,16,4,62,-52,14,-128,-39
-19,10,29,4,-24,19,3,66,-53,13,-122,-36
-19,13,32,3,-25,22,1,71,-53,13,-118,-30
-17,14,31,1,-24,22,-3,72,-53,14,-115,-26
-15,14,29,0,-22,21,-7,69,-53,14,-112,-24
-12,13,25,0,-18,19,-9,65,-51,13,-110,-23
-9,13,22,-2,-15,17,-9,63,-48,13,-108,-23
-8,16,24,-4,-16,20,-8,62,-48,14,-103,-24
-8,22,30,-7,-19,26,-9,62,-52,14,-95,-24
-9,25,34,-8,-21,29,-8,64,-53,12,-86,-22
-9,24,33,-7,-21,28,-8,66,-53,9,-79,-19
-7,23,30,-8,-18,26,-11,69,-52,7,-77,-17
-5,23,28,-9,-16,25,-17,72,-53,8,-78,-15
-2,24,26,-11,-14,25,-21,73,-52,11,-76,-10
0,24,24,-12,-12,24,-23,73,-52,14,-70,-5
0,23,23,-11,-11,23,-24,72,-54,11,-63,-3
0,23,23,-11,-11,23,-23,72,-57,5,-55,-3
0,25,25,-12,-12,25,-24,72,-58,3,-48,-3
2,27,25,-14,-11,26,-27,72,-58,7,-41,0
7,31,24,-19,-8,27,-32,73,-56,11,-35,1
12,33,21,-22,-4,27,-37,73,-53,13,-31,3
15,34,19,-24,-2,26,-41,71,-52,14,-24,5
14,33,19,-23,-2,26,-42,68,-52,14,-16,7
12,34,22,-23,-5,28,-43,67,-54,12,-11,11
12,37,25,-24,-6,31,-42,67,-57,10,-9,17
18,41,23,-29,-2,32,-43,69,-58,6,-6,21
26,46,20,-36,3,33,-46,72,-58,3,-1,23
30,50,20,-40,5,35,-51,73,-56,6,3,23
29,52,23,-40,3,37,-56,73,-53,12,7,23
30,54,24,-42,3,39,-58,73,-52,15,11,26
33,56,23,-44,5,39,-57,73,-52,14,13,32
34,61,27,-47,3,44,-60,71,-54,11,14,36
33,66,33,-49,0,49,-66,68,-56,9,17,38
36,70,34,-53,1,52,-70,67,-59,10,23,40
41,72,31,-56,5,51,-72,67,-62,13,32,42
45,73,28,-59,8,50,-73,69,-63,14,35,43
44,73,29,-58,7,51,-73,72,-63,13,34,42
38,72,34,-55,2,53,-72,72,-62,14,34,44
30,72,42,-51,-6,57,-72,69,-62,17,37,47
30,74,44,-52,-7,59,-74,64,-63,21,41,48
36,77,41,-56,-2,59,-77,59,-63,23,46,48
41,78,37,-59,2,57,-78,57,-61,24,49,48
42,78,36,-60,3,57,-78,57,-59,23,52,48
42,76,34,-59,4,55,-77,58,-55,24,54,46
42,73,31,-57,5,52,-78,57,-53,24,57,44
43,72,29,-57,7,50,-77,58,-54,22,58,41
43,72,29,-57,7,50,-77,58,-57,19,58,39
41,72,31,-56,5,51,-79,56,-58,19,57,39
39,72,33,-55,3,52,-81,53,-58,23,58,42
38,73,35,-55,1,54,-82,52,-58,24,57,43
39,73,34,-56,2,53,-82,53,-58,24,57,43
37,70,33,-53,2,51,-81,51,-56,23,58,41
34,64,30,-49,2,47,-81,48,-53,23,58,39
33,62,29,-47,2,45,-82,47,-54,23,55,38
33,63,30,-48,1,46,-82,48,-57,23,49,38
34,61,27,-47,3,44,-81,46,-58,24,45,38
34,58,24,-46,5,41,-79,44,-57,24,43,38
31,57,26,-44,2,41,-74,41,-59,22,42,39
25,58,33,-41,-4,45,-69,39,-62,19,42,39
21,56,35,-38,-7,45,-67,38,-62,19,43,36
19,53,34,-36,-7,43,-67,38,-58,22,43,30
18,52,34,-35,-8,43,-67,38,-57,26,40,26
18,53,35,-35,-8,44,-64,38,-57,28,35,24
20,52,32,-36,-6,42,-60,40,-58,29,31,24
23,49,26,-36,-1,37,-58,42,-58,29,29,27
24,45,21,-34,1,33,-58,43,-57,29,29,31
24,43,19,-33,2,31,-58,43,-57,29,29,34
22,42,20,-32,1,31,-55,42,-57,27,27,32
19,43,24,-31,-2,33,-49,42,-57,24,25,26
17,42,25,-29,-4,33,-46,44,-58,23,22,20
15,40,25,-27,-5,32,-43,46,-58,23,20,15
12,36,24,-24,-6,30,-40,49,-57,24,16,11
9,30,21,-19,-6,25,-35,52,-57,24,10,9
8,26,18,-17,-5,22,-31,54,-59,23,6,9
9,24,15,-16,-3,19,-29,57,-62,23,1,9
7,24,17,-15,-5,20,-27,58,-63,24,-2,6
5,24,19,-14,-7,21,-25,58,-63,24,-7,1
2,21,19,-11,-8,20,-20,58,-62,22,-10,0
0,15,15,-7,-7,15,-15,58,-62,19,-13,0
-1,12,13,-5,-7,12,-13,57,-62,19,-15,-2
-3,13,16,-5,-9,14,-13,57,-62,22,-18,-7
-5,14,19,-4,-12,16,-13,60,-63,24,-20,-10
-7,14,21,-3,-14,17,-10,66,-63,24,-23,-12
-10,13,23,-1,-16,18,-7,70,-61,22,-25,-17
-13,10,23,1,-18,16,-4,72,-58,19,-28,-22
-14,6,20,4,-17,13,-2,73,-59,18,-30,-25
-13,1,14,6,-13,7,0,72,-62,18,-33,-24
-15,-1,14,8,-14,6,1,73,-63,20,-35,-23
-18,0,18,9,-18,9,3,73,-62,22,-37,-23
-19,1,20,9,-19,10,5,71,-64,25,-40,-24
-18,3,21,7,-19,12,8,68,-67,28,-42,-27
-19,4,23,7,-21,13,9,67,-66,29,-42,-33
-22,4,26,9,-24,15,9,67,-63,29,-39,-40
-25,2,27,11,-26,14,8,68,-63,29,-37,-45
-28,0,28,14,-28,14,8,68,-67,29,-38,-47
-29,-1,28,15,-28,13,10,68,-68,27,-41,-48
-29,-3,26,16,-27,11,12,68,-67,24,-46,-48
-28,-5,23,16,-25,9,15,67,-70,23,-48,-47
-28,-8,20,18,-24,6,17,67,-76,23,-48,-48
-29,-9,20,19,-24,5,20,69,-79,24,-47,-47
-29,-9,20,19,-24,5,23,72,-78,24,-47,-47
-28,-8,20,18,-24,6,24,73,-76,24,-48,-48
-28,-8,20,18,-24,6,23,73,-73,24,-48,-48
-29,-11,18,20,-23,3,25,72,-72,23,-47,-46
-29,-16,13,22,-21,-1,28,72,-72,23,-47,-44
-28,-23,5,25,-16,-9,29,72,-73,25,-48,-41
-28,-28,0,28,-14,-14,29,72,-72,28,-48,-39
-29,-27,2,28,-15,-12,28,73,-73,29,-46,-39
-29,-21,8,25,-18,-6,28,73,-73,29,-43,-42
-28,-14,14,21,-21,0,28,70,-71,28,-42,-43
-28,-9,19,18,-23,5,28,68,-68,28,-42,-42
-30,-11,19,20,-24,4,29,69,-68,29,-44,-44
-33,-17,16,25,-24,0,29,75,-71,29,-46,-47
-34,-17,17,25,-25,0,27,80,-75,29,-49,-48
-34,-11,23,22,-28,6,25,81,-77,29,-52,-48
-32,-5,27,18,-29,11,22,81,-78,28,-53,-47
-29,-1,28,15,-28,13,19,79,-78,28,-53,-47
-28,2,30,13,-29,16,17,74,-77,29,-51,-48
-28,7,35,10,-31,21,14,69,-77,29,-48,-47
-30,10,40,10,-35,25,12,66,-78,27,-47,-48
-33,13,46,10,-39,29,10,67,-78,24,-47,-48
-35,15,50,10,-42,32,7,69,-76,23,-47,-47
-35,18,53,8,-44,35,4,71,-73,23,-47,-47
-31,20,51,5,-41,35,3,74,-73,24,-48,-50
-25,22,47,1,-36,34,4,77,-76,24,-51,-55
-22,27,49,-2,-35,38,3,78,-80,23,-55,-60
-20,33,53,-6,-36,43,3,78,-81,23,-58,-63
-14,32,46,-9,-30,39,6,76,-81,24,-56,-61
-3,26,29,-11,-16,27,11,73,-78,24,-50,-55
4,20,16,-12,-6,18,17,72,-77,23,-44,-49
8,16,8,-12,0,12,22,72,-77,23,-40,-44
7,9,2,-8,2,5,26,72,-77,25,-36,-42
2,0,-2,-1,2,-1,31,72,-77,27,-34,-42
-2,-9,-7,5,2,-8,38,74,-79,30,-33,-42
-7,-17,-10,12,1,-13,46,77,-81,33,-33,-40
-12,-20,-8,16,-2,-14,49,78,-82,34,-34,-37
-17,-19,-2,18,-7,-10,48,78,-82,34,-33,-35
-21,-18,3,19,-12,-7,47,78,-81,33,-34,-32
-23,-18,5,20,-14,-6,47,78,-82,33,-34,-29
-24,-21,3,22,-13,-9,48,76,-81,34,-32,-28
-24,-27,-3,25,-10,-15,48,74,-81,34,-29,-28
-23,-29,-6,26,-8,-17,47,71,-83,33,-28,-29
-24,-29,-5,26,-9,-17,48,68,-86,33,-28,-29
-23,-28,-5,25,-9,-16,47,67,-87,34,-30,-28
-23,-29,-6,26,-8,-17,47,67,-87,34,-33,-29
-24,-28,-4,26,-10,-16,48,68,-86,33,-34,-28
-24,-25,-1,24,-11,-13,48,67,-86,33,-34,-28
-22,-21,1,21,-11,-10,46,68,-86,34,-33,-29
-19,-16,3,17,-11,-6,44,68,-86,34,-33,-29
-18,-10,8,14,-13,-1,41,67,-87,32,-34,-28
-18,-5,13,11,-15,4,39,64,-87,29,-34,-28
-19,-3,16,11,-17,6,38,59,-85,29,-33,-31
-19,-3,16,11,-17,6,38,54,-82,32,-33,-37
-18,-4,14,11,-16,5,39,52,-81,34,-35,-40
-18,-4,14,11,-16,5,39,53,-81,34,-37,-39
-19,-4,15,11,-17,5,38,50,-83,32,-40,-37
-19,-4,15,11,-17,5,38,44,-86,29,-42,-34
-17,-3,14,10,-15,5,39,42,-87,28,-44,-32
-14,-3,11,8,-12,4,39,42,-87,28,-46,-33
-14,-5,9,9,-11,2,38,42,-86,30,-49,-36
-17,-7,10,12,-13,1,38,39,-86,33,-52,-41
-22,-10,12,16,-17,1,39,38,-88,34,-53,-43
-27,-13,14,20,-20,0,39,38,-91,34,-53,-43
-29,-15,14,22,-21,0,37,39,-92,33,-52,-42
-29,-18,11,23,-20,-3,34,39,-92,33,-53,-42
-28,-20,8,24,-18,-6,32,37,-91,34,-52,-43
-28,-19,9,23,-18,-5,33,34,-91,34,-52,-43
-28,-16,12,22,-20,-2,36,33,-92,33,-54,-41
-28,-10,18,19,-23,4,41,33,-92,33,-56,-36
-29,-7,22,18,-25,7,45,34,-90,35,-59,-29
-29,-8,21,18,-25,6,47,34,-87,38,-62,-24
-27,-10,17,18,-22,3,48,33,-87,39,-63,-26
-21,-13,8,17,-14,-2,48,33,-90,39,-63,-35
-14,-14,0,14,-7,-7,48,34,-92,37,-62,-43
-9,-14,-5,11,-2,-9,48,34,-92,34,-63,-47
-11,-13,-2,12,-4,-7,46,31,-91,33,-62,-48
-19,-13,6,16,-12,-3,44,26,-91,33,-62,-48
-30,-15,15,22,-22,0,41,21,-92,34,-64,-47
-37,-18,19,27,-28,0,39,19,-91,33,-67,-47
-39,-18,21,28,-30,1,38,18,-92,34,-67,-48
-36,-18,18,27,-27,0,38,18,-92,34,-64,-48
-30,-21,9,25,-19,-6,40,19,-91,33,-59,-47
-25,-27,-2,26,-11,-14,42,19,-91,30,-54,-47
-23,-30,-7,26,-8,-18,42,18,-92,26,-53,-48
-23,-32,-9,27,-7,-20,39,18,-95,23,-56,-48
-24,-37,-13,30,-5,-25,38,19,-99,25,-60,-47
-24,-42,-18,33,-3,-30,38,19,-101,26,-63,-47
-23,-41,-18,32,-2,-29,39,18,-101,16,-61,-48
-23,-36,-13,29,-5,-24,39,18,-97,-4,-55,-48
-25,-31,-6,28,-9,-18,38,19,-96,-28,-49,-47
-28,-29,-1,28,-13,-15,38,19,-96,-51,-47,-47
-29,-27,2,28,-15,-12,39,18,-97,-66,-50,-48
-29,-25,4,27,-16,-10,39,18,-97,-77,-59,-48
-28,-22,6,25,-17,-8,38,19,-96,-90,-68,-47
-28,-19,9,23,-18,-5,38,19,-96,-104,-76,-47
-29,-18,11,23,-20,-3,38,18,-97,-106,-79,-48
-29,-18,11,23,-20,-3,38,18,-97,-99,-78,-48
-28,-19,9,23,-18,-5,39,19,-96,-94,-77,-47
-28,-19,9,23,-18,-5,39,19,-96,-92,-77,-47
-29,-18,11,23,-20,-3,38,18,-97,-90,-78,-49
-29,-18,11,23,-20,-3,38,18,-97,-87,-77,-51
-27,-19,8,23,-17,-5,39,19,-96,-87,-78,-54
-24,-19,5,21,-14,-7,39,19,-96,-87,-78,-57
-23,-18,5,20,-14,-6,38,18,-98,-84,-76,-58
-23,-18,5,20,-14,-6,38,18,-100,-76,-74,-57
-24,-18,6,21,-15,-6,40,21,-103,-67,-71,-58
-24,-16,8,20,-16,-4,45,27,-106,-60,-68,-59
-22,-8,14,15,-18,3,52,30,-107,-56,-66,-54
-20,4,24,8,-22,14,60,32,-107,-54,-64,-43
-17,14,31,1,-24,22,64,36,-107,-49,-60,-32
-15,21,36,-3,-25,28,66,41,-107,-44,-54,-22
-12,26,38,-7,-25,32,72,45,-105,-42,-51,-14
-9,28,37,-9,-23,32,82,50,-102,-43,-48,-10
-8,28,36,-10,-22,32,93,56,-102,-41,-46,-7
-8,27,35,-9,-21,31,103,62,-105,-36,-43,-8
-8,33,41,-12,-24,37,111,62,-110,-30,-42,-11
-8,43,51,-17,-29,47,118,61,-115,-25,-43,-17
-10,52,62,-21,-36,57,126,67,-116,-20,-42,-21
-13,57,70,-22,-41,63,134,78,-113,-15,-39,-23
-14,58,72,-22,-43,65,136,84,-109,-11,-38,-24
-14,58,72,-22,-43,65,136,82,-104,-6,-38,-24
-12,57,69,-22,-40,63,136,81,-98,0,-38,-23
-9,58,67,-24,-38,62,137,79,-95,4,-38,-23
-9,57,66,-24,-37,61,131,73,-102,1,-39,-24
-9,57,66,-24,-37,61,121,62,-113,-8,-41,-27
-6,59,65,-26,-35,62,110,50,-118,-21,-44,-31
-1,62,63,-30,-32,62,100,41,-117,-32,-47,-34
1,64,63,-32,-31,63,91,37,-117,-33,-47,-31
2,66,64,-34,-31,65,81,38,-120,-27,-44,-26
6,71,65,-38,-29,68,73,39,-123,-19,-40,-22
12,77,65,-44,-26,71,66,39,-123,-12,-35,-20
16,76,60,-46,-22,68,57,39,-119,-4,-31,-16
18,70,52,-44,-17,61,47,39,-113,4,-26,-11
20,65,45,-42,-12,55,37,38,-110,15,-20,-6
23,63,40,-43,-8,51,30,38,-110,25,-15,-4
25,60,35,-42,-5,47,27,40,-114,32,-13,-4
24,55,31,-39,-3,43,28,45,-119,38,-13,-4
21,49,28,-35,-3,38,30,51,-124,51,-13,-2
15,44,29,-29,-7,36,33,56,-126,65,-13,0
11,40,29,-25,-9,34,34,59,-124,67,-16,-1
9,36,27,-22,-9,31,34,59,-119,58,-21,-6
7,28,21,-17,-7,24,32,54,-113,45,-26,-13
2,18,16,-10,-7,17,29,46,-111,33,-31,-21
-4,8,12,-2,-8,10,28,36,-115,23,-39,-27
-11,2,13,4,-12,7,28,27,-123,16,-50,-32
-15,-2,13,8,-14,5,29,20,-126,10,-55,-35
-14,-7,7,10,-10,0,29,16,-123,5,-56,-37
-13,-12,1,12,-7,-5,28,9,-121,1,-61,-41
-12,-17,-5,14,-3,-11,29,2,-121,-2,-70,-46
-16,-21,-5,18,-5,-13,28,-1,-122,-5,-75,-50
-22,-23,-1,22,-10,-12,28,0,-122,-7,-77,-52
-25,-24,1,24,-13,-11,29,0,-121,-11,-78,-52
-24,-24,0,24,-12,-12,29,-2,-121,-16,-78,-52
-23,-24,-1,23,-11,-12,27,-5,-124,-22,-77,-54
-23,-24,-1,23,-11,-12,24,-8,-129,-27,-77,-57
-24,-23,1,23,-12,-11,23,-9,-131,-29,-78,-58
-24,-23,1,23,-12,-11,23,-9,-131,-29,-78,-58
-23,-26,-3,24,-10,-14,24,-8,-131,-28,-77,-57
-23,-31,-8,27,-7,-19,24,-8,-131,-29,-77,-57
-25,-36,-11,30,-7,-23,22,-9,-129,-28,-78,-58
-28,-38,-10,33,-9,-24,20,-12,-126,-28,-80,-58
-29,-39,-10,34,-9,-24,17,-17,-125,-30,-85,-57
-29,-39,-10,34,-9,-24,14,-22,-125,-33,-90,-57
-28,-38,-10,33,-9,-24,13,-24,-125,-34,-93,-58
-28,-38,-10,33,-9,-24,13,-24,-125,-34,-92,-61
-29,-38,-9,33,-10,-23,14,-23,-127,-34,-91,-66
-29,-38,-9,33,-10,-23,14,-23,-130,-34,-91,-71
-28,-39,-11,33,-8,-25,14,-24,-131,-32,-93,-73
-28,-39,-11,33,-8,-25,14,-24,-131,-26,-96,-73
-29,-38,-9,33,-10,-23,13,-23,-130,-20,-97,-73
-29,-38,-9,33,-10,-23,13,-23,-130,-15,-97,-73
-28,-41,-13,34,-7,-27,14,-24,-131,-13,-95,-71
-28,-48,-20,38,-4,-34,17,-24,-131,-14,-93,-69
-30,-59,-29,44,0,-44,22,-22,-130,-12,-90,-66
-33,-67,-34,50,0,-50,28,-20,-130,-9,-87,-63
-34,-63,-29,48,-2,-46,27,-17,-131,-9,-86,-61
-34,-51,-17,42,-8,-34,21,-14,-134,-12,-86,-59
-33,-45,-12,39,-10,-28,15,-13,-137,-17,-88,-56
-34,-47,-13,40,-10,-30,10,-13,-140,-22,-91,-53
-33,-48,-15,40,-9,-31,8,-15,-141,-24,-90,-52
-33,-48,-15,40,-9,-31,8,-17,-140,-24,-85,-52
-35,-47,-12,41,-11,-29,10,-20,-141,-23,-77,-54
-38,-48,-10,43,-14,-29,12,-23,-141,-23,-72,-56
-39,-47,-8,43,-15,-27,15,-23,-138,-26,-76,-59
-38,-44,-6,41,-16,-25,18,-23,-133,-33,-89,-64
-39,-39,0,39,-19,-19,19,-25,-128,-48,-109,-74
-41,-34,7,37,-24,-13,21,-28,-130,-66,-129,-87
-44,-36,8,40,-26,-14,30,-28,-148,-78,-140,-95
-47,-45,2,46,-24,-21,43,-20,-170,-82,-139,-94
-48,-50,-2,49,-23,-26,52,-2,-173,-80,-128,-85
-45,-52,-7,48,-19,-29,53,23,-173,-70,-111,-72
-36,-54,-18,45,-9,-36,50,48,-219,-46,-86,-61
-19,-58,-39,38,10,-48,39,65,-291,3,-49,-50
9,-55,-64,23,36,-59,7,64,-321,90,7,-28
48,-40,-88,-4,68,-64,-47,20,-303,218,89,11
98,-5,-103,-46,100,-54,-127,-101,-279,385,195,73
155,54,-101,-104,128,-23,-230,-294,-269,584,322,156
214,141,-73,-177,143,34,-349,-515,-268,802,465,251
268,240,-28,-254,148,106,-471,-732,-262,1024,613,347
308,322,14,-315,147,168,-573,-917,-231,1227,751,433
331,375,44,-353,143,209,-650,-1056,-197,1401,865,498
338,404,66,-371,136,235,-711,-1139,-206,1542,941,534
330,416,86,-373,122,251,-735,-1149,-205,1647,974,541
305,421,116,-363,94,268,-690,-1067,-69,1705,966,521
264,408,144,-336,60,276,-588,-928,141,1688,909,473
212,348,136,-280,38,242,-478,-809,234,1553,790,394
150,251,101,-200,24,176,-377,-727,169,1292,620,292
78,154,76,-116,1,115,-277,-651,35,928,426,186
8,78,70,-43,-31,74,-188,-572,-86,540,239,88
-36,23,59,6,-47,41,-135,-499,-130,241,85,8
-55,-15,40,35,-47,12,-118,-446,-120,64,-19,-47
-59,-46,13,52,-36,-16,-117,-427,-144,-23,-73,-76
-58,-71,-13,64,-22,-42,-121,-425,-200,-56,-89,-85
-56,-83,-27,69,-14,-55,-121,-398,-213,-69,-95,-89
-54,-81,-27,67,-13,-54,-116,-342,-182,-74,-98,-92
-50,-70,-20,60,-15,-45,-104,-283,-163,-67,-92,-90
-45,-57,-12,51,-16,-34,-86,-229,-169,-53,-81,-84
-38,-48,-10,43,-14,-29,-64,-181,-181,-41,-76,-79
-31,-44,-13,37,-9,-28,-42,-137,-187,-35,-78,-74
-26,-39,-13,32,-6,-26,-24,-102,-192,-33,-75,-69
-24,-34,-10,29,-7,-22,-12,-73,-197,-33,-69,-64
-22,-35,-13,28,-4,-24,-4,-48,-204,-33,-66,-61
-20,-41,-21,30,0,-31,2,-26,-212,-33,-67,-62
-17,-44,-27,30,5,-35,4,-10,-214,-36,-68,-64
-15,-43,-28,29,6,-35,4,-2,-213,-44,-67,-67
-12,-41,-29,26,8,-35,3,1,-216,-51,-69,-68
-9,-39,-30,24,10,-34,3,2,-222,-56,-72,-68
-8,-37,-29,22,10,-33,4,6,-225,-59,-73,-67
-8,-34,-26,21,9,-30,3,11,-224,-58,-73,-67
-8,-33,-25,20,8,-29,4,16,-223,-56,-72,-68
-8,-33,-25,20,8,-29,4,18,-223,-53,-72,-68
-10,-35,-25,22,7,-30,3,19,-224,-53,-72,-65
-13,-37,-24,25,5,-30,3,19,-224,-56,-72,-60
-14,-40,-26,27,6,-33,6,19,-223,-59,-73,-55
-14,-42,-28,28,7,-35,12,19,-223,-62,-73,-53
-12,-44,-32,28,10,-38,15,18,-223,-63,-72,-52
-10,-46,-36,28,13,-41,14,18,-223,-63,-69,-52
-7,-49,-42,28,17,-45,13,20,-224,-62,-66,-53
-5,-50,-45,27,20,-47,13,23,-224,-63,-63,-53
-1,-41,-40,21,19,-40,14,24,-223,-62,-62,-52
5,-23,-28,9,16,-25,14,24,-223,-62,-62,-52
13,0,-13,-6,13,-6,12,22,-224,-63,-63,-54
18,19,1,-18,8,10,9,19,-224,-63,-63,-57
16,23,7,-19,4,15,10,18,-222,-61,-62,-58
8,11,3,-9,2,7,15,18,-216,-55,-63,-58
-1,-7,-6,4,2,-6,23,20,-210,-49,-62,-57
-7,-24,-17,15,5,-20,28,22,-205,-44,-62,-57
-9,-31,-22,20,6,-26,27,25,-203,-42,-63,-57
-9,-30,-21,19,6,-25,21,28,-204,-42,-63,-57
-9,-26,-17,17,4,-21,15,29,-203,-43,-62,-58
-9,-24,-15,16,3,-19,10,29,-200,-43,-59,-58
-7,-23,-16,15,4,-19,8,27,-199,-42,-56,-56
-2,-24,-22,13,10,-23,8,24,-199,-42,-53,-54
2,-22,-24,10,13,-23,9,23,-200,-42,-52,-51
7,-19,-26,6,16,-22,9,23,-200,-42,-52,-49
11,-18,-29,3,20,-23,6,25,-198,-43,-53,-45
16,-18,-34,1,25,-26,1,28,-192,-43,-53,-41
22,-19,-41,-1,31,-30,0,29,-186,-42,-52,-35
28,-18,-46,-5,37,-32,0,29,-181,-42,-49,-30
27,-19,-46,-4,36,-32,0,28,-179,-44,-46,-28
21,-19,-40,-1,30,-29,0,28,-179,-46,-43,-32
17,-17,-34,0,25,-25,0,29,-180,-48,-42,-36
18,-15,-33,-1,25,-24,0,28,-180,-48,-42,-41
20,-12,-32,-4,26,-22,0,29,-180,-46,-43,-44
20,-10,-30,-5,25,-20,0,29,-180,-43,-43,-47
15,-7,-22,-4,18,-14,1,28,-179,-43,-42,-49
9,-4,-13,-2,11,-8,3,28,-177,-43,-39,-49
10,-3,-13,-3,11,-8,4,30,-171,-41,-37,-44
16,-3,-19,-6,17,-11,4,33,-163,-36,-35,-36
20,-4,-24,-8,22,-14,3,33,-159,-32,-31,-32
19,-4,-23,-7,21,-13,4,33,-157,-29,-25,-33
19,-4,-23,-7,21,-13,3,37,-152,-27,-21,-33
22,-4,-26,-9,24,-15,1,44,-144,-25,-19,-30
26,-3,-29,-11,27,-16,-2,50,-136,-22,-17,-27
32,-3,-35,-14,33,-19,-7,52,-128,-19,-15,-24
36,-4,-40,-16,38,-22,-9,53,-122,-17,-11,-23
38,-4,-42,-17,40,-23,-9,53,-118,-15,-6,-23
39,-2,-41,-18,40,-21,-8,52,-116,-11,-1,-24
39,2,-37,-20,38,-17,-9,52,-116,-5,2,-24
38,5,-33,-21,35,-14,-8,53,-117,-3,5,-21
38,4,-34,-21,36,-15,-8,56,-117,-3,8,-16
39,2,-37,-20,38,-17,-11,59,-116,-4,9,-10
41,2,-39,-21,40,-18,-16,62,-113,-2,8,-6
46,7,-39,-26,42,-16,-21,63,-108,4,10,-1
54,18,-36,-36,45,-9,-23,63,-103,11,12,2
62,32,-30,-47,46,1,-24,62,-101,14,15,4
67,44,-23,-55,45,10,-23,62,-102,13,17,4
67,50,-17,-58,42,16,-24,63,-100,16,21,3
64,49,-15,-56,39,17,-27,66,-94,25,27,3
62,46,-16,-54,39,15,-31,70,-88,32,30,3
62,44,-18,-53,40,13,-37,72,-81,37,32,3
63,40,-23,-51,43,8,-40,72,-73,42,36,4
63,36,-27,-49,45,4,-39,69,-66,49,41,7
62,31,-31,-46,46,0,-37,67,-58,57,44,11
61,28,-33,-44,47,-2,-34,67,-50,65,46,16
66,31,-35,-48,50,-2,-34,69,-44,69,50,21
75,37,-38,-56,56,0,-37,72,-40,71,55,23
79,40,-39,-59,59,0,-41,73,-36,76,61,23
78,39,-39,-58,58,0,-46,73,-31,86,66,23
78,38,-40,-58,59,-1,-48,73,-25,98,69,26
81,38,-43,-59,62,-2,-47,73,-17,108,72,31
82,41,-41,-61,61,0,-48,71,-9,115,73,36
81,45,-36,-63,58,4,-51,69,-2,120,75,38
83,50,-33,-66,58,8,-54,66,1,124,81,40
86,52,-34,-69,60,9,-56,66,3,129,89,42
87,53,-34,-70,60,9,-59,70,5,131,93,43
84,53,-31,-68,57,11,-62,75,7,131,92,42
77,52,-25,-64,51,13,-63,80,10,130,92,44
69,52,-17,-60,43,17,-62,82,13,130,95,47
68,54,-14,-61,41,20,-64,81,15,131,99,48
75,56,-19,-65,47,18,-67,78,17,131,101,48
80,58,-22,-69,51,18,-67,77,21,130,101,47
81,58,-23,-69,52,17,-64,77,26,130,98,47
81,56,-25,-68,53,15,-61,78,32,131,95,48
81,53,-28,-67,54,12,-58,77,37,131,93,48
82,52,-30,-67,56,11,-57,78,40,129,90,47
82,52,-30,-67,56,11,-57,78,42,124,87,47
80,53,-27,-66,53,13,-58,76,44,119,86,49
78,53,-25,-65,51,14,-58,73,47,115,86,51
77,52,-25,-64,51,13,-57,72,48,106,86,53
78,52,-26,-65,52,13,-57,73,48,96,86,53
76,53,-23,-64,49,15,-59,72,48,88,87,51
74,55,-19,-64,46,18,-62,69,48,83,87,49
72,63,-9,-67,40,27,-63,65,45,80,85,46
72,71,-1,-71,36,35,-63,60,40,75,80,44
73,70,-3,-71,38,33,-63,54,37,69,75,41
73,61,-12,-67,42,24,-63,49,35,61,73,39
70,54,-16,-62,43,19,-61,47,31,54,72,39
65,53,-12,-59,38,20,-58,47,25,49,72,39
60,53,-7,-56,33,23,-57,48,23,46,72,36
58,53,-5,-55,31,24,-58,48,23,44,70,31
57,52,-5,-54,31,23,-57,47,24,41,63,26
57,52,-5,-54,31,23,-54,47,24,36,52,24
58,53,-5,-55,31,24,-51,48,23,29,43,23
58,53,-5,-55,31,24,-48,48,23,22,39,23
56,52,-4,-54,30,24,-48,46,25,15,38,24
54,52,-2,-53,28,25,-48,41,28,10,35,24
51,53,2,-52,24,27,-46,36,29,6,30,22
49,53,4,-51,22,28,-41,34,26,1,22,16
46,51,5,-48,20,28,-37,34,19,-2,15,10
44,46,2,-45,21,24,-35,34,11,-6,10,5
41,38,-3,-39,22,17,-32,32,7,-12,6,2
39,31,-8,-35,23,11,-29,29,8,-20,1,0
38,26,-12,-32,25,7,-29,28,8,-27,-1,0
39,24,-15,-31,27,4,-32,28,5,-32,-3,0
38,24,-14,-31,26,5,-35,29,2,-35,-5,-2
35,24,-11,-29,23,6,-35,29,0,-37,-7,-7
32,21,-11,-26,21,5,-31,28,0,-42,-10,-9
30,15,-15,-22,22,0,-25,25,-2,-49,-12,-8
27,12,-15,-19,21,-1,-23,21,-5,-56,-16,-11
25,13,-12,-19,18,0,-23,19,-8,-60,-21,-16
22,14,-8,-18,15,3,-23,20,-8,-65,-26,-20
20,14,-6,-17,13,4,-20,23,-5,-70,-28,-22
17,13,-4,-15,10,4,-17,23,-1,-75,-29,-26
14,10,-4,-12,9,3,-14,20,0,-77,-28,-32
13,7,-6,-10,9,0,-13,17,-3,-78,-29,-34
14,4,-10,-9,12,-3,-13,14,-11,-77,-32,-34
12,4,-8,-8,10,-2,-14,13,-15,-78,-35,-33
9,7,-2,-8,5,2,-14,14,-14,-80,-37,-33
8,10,2,-9,3,6,-12,12,-15,-84,-40,-34
9,13,4,-11,2,8,-9,9,-18,-89,-42,-37
8,14,6,-11,1,10,-8,8,-18,-95,-43,-41
5,14,9,-9,-2,11,-8,9,-17,-100,-42,-46
3,13,10,-8,-3,11,-9,8,-23,-103,-43,-48
3,13,10,-8,-3,11,-9,5,-34,-105,-46,-48
5,15,10,-10,-2,12,-8,2,-42,-108,-50,-47
8,18,10,-13,-1,14,-8,0,-45,-111,-56,-47
9,19,10,-14,0,14,-9,0,-52,-112,-58,-48
9,19,10,-14,0,14,-9,0,-63,-112,-58,-48
9,18,9,-13,0,13,-7,0,-72,-111,-57,-47
9,18,9,-13,0,13,-4,0,-77,-111,-57,-48
8,19,11,-13,-1,15,-4,-1,-77,-112,-58,-47
5,19,14,-12,-4,16,-7,-6,-73,-115,-61,-47
2,18,16,-10,-7,17,-9,-11,-72,-119,-64,-48
0,18,18,-9,-9,18,-9,-13,-73,-121,-67,-48
0,19,19,-9,-9,19,-8,-14,-71,-121,-68,-47
0,19,19,-9,-9,19,-9,-14,-65,-118,-68,-47
0,18,18,-9,-9,18,-8,-12,-59,-116,-66,-49
0,18,18,-9,-9,18,-8,-9,-54,-116,-63,-52
0,20,20,-10,-10,20,-10,-9,-50,-117,-62,-53
0,23,23,-11,-11,23,-13,-13,-48,-117,-62,-53
0,22,22,-11,-11,22,-14,-13,-48,-116,-63,-53
-3,19,22,-8,-12,20,-14,-10,-48,-116,-63,-53
-4,20,24,-8,-14,22,-13,-7,-45,-117,-62,-51
-4,26,30,-11,-17,28,-13,-4,-38,-116,-62,-48
-2,30,32,-14,-17,31,-14,-3,-28,-117,-63,-47
0,29,29,-14,-14,29,-14,-3,-21,-117,-63,-47
0,28,28,-14,-14,28,-13,-5,-17,-116,-61,-48
0,28,28,-14,-14,28,-13,-8,-18,-116,-58,-48
0,29,29,-14,-14,29,-14,-9,-19,-117,-57,-47
-2,28,30,-13,-16,29,-13,-9,-19,-117,-58,-48
-5,29,34,-12,-19,31,-14,-8,-16,-115,-56,-47
-8,29,37,-10,-22,33,-14,-8,-11,-112,-51,-47
-9,27,36,-9,-22,31,-13,-9,-6,-111,-43,-48
-8,25,33,-8,-20,29,-13,-9,-4,-111,-35,-48
-9,23,32,-7,-20,27,-14,-8,-3,-112,-34,-46
-9,23,32,-7,-20,27,-14,-8,-4,-112,-39,-43
-6,25,31,-9,-18,28,-13,-9,-3,-111,-47,-42
-1,27,28,-13,-14,27,-13,-9,-1,-111,-55,-42
0,30,30,-15,-15,30,-14,-7,1,-112,-59,-43
0,33,33,-16,-16,33,-17,-4,2,-112,-59,-42
0,33,33,-16,-16,33,-20,-3,5,-111,-56,-43
0,33,33,-16,-16,33,-23,-4,8,-111,-53,-43
0,35,35,-17,-17,35,-23,-3,8,-112,-52,-42
0,40,40,-20,-20,40,-20,0,5,-115,-52,-39
-1,44,45,-21,-23,44,-18,0,3,-118,-53,-38
-3,46,49,-21,-26,47,-18,0,3,-121,-52,-38
-3,49,52,-23,-27,50,-19,0,4,-122,-53,-39
-1,52,53,-25,-27,52,-19,0,7,-122,-53,-39
1,52,51,-26,-25,51,-18,0,10,-121,-51,-38
3,49,46,-26,-21,47,-18,0,13,-121,-49,-38
4,47,43,-25,-19,45,-19,0,13,-122,-47,-39
4,47,43,-25,-19,45,-19,0,10,-122,-47,-38
3,48,45,-25,-21,46,-18,0,8,-121,-49,-39
3,47,44,-25,-20,45,-18,0,8,-121,-52,-39
3,48,45,-25,-21,46,-19,0,10,-122,-53,-38
3,48,45,-25,-21,46,-19,0,12,-122,-53,-38
4,46,42,-25,-19,44,-18,0,15,-121,-52,-39
4,43,39,-23,-17,41,-19,0,18,-121,-52,-39
3,42,39,-22,-18,40,-18,0,19,-123,-53,-37
0,42,42,-21,-21,42,-18,0,19,-125,-53,-34
0,43,43,-21,-21,43,-19,-1,19,-126,-52,-34
0,43,43,-21,-21,43,-19,-3,19,-125,-52,-37
0,43,43,-21,-21,43,-18,-3,18,-126,-54,-39
0,43,43,-21,-21,43,-18,-3,15,-129,-56,-39
0,42,42,-21,-21,42,-19,-6,12,-132,-58,-37
0,42,42,-21,-21,42,-19,-12,9,-135,-58,-35
0,43,43,-21,-21,43,-18,-14,8,-136,-57,-33
3,46,43,-24,-20,44,-18,-13,8,-136,-57,-32
4,49,45,-26,-20,47,-19,-15,9,-135,-59,-36
4,52,48,-28,-22,50,-19,-18,9,-135,-62,-41
2,53,51,-27,-24,52,-17,-18,8,-138,-63,-43
0,53,53,-26,-26,53,-15,-15,8,-143,-63,-43
0,51,51,-25,-25,51,-13,-11,10,-148,-63,-42
0,49,49,-24,-24,49,-13,-9,12,-150,-63,-42
0,46,46,-23,-23,46,-14,-9,14,-150,-61,-42
0,46,46,-23,-23,46,-14,-12,14,-150,-59,-42
0,50,50,-25,-25,50,-12,-15,12,-152,-57,-43
0,56,56,-28,-28,56,-9,-17,9,-154,-57,-46
0,59,59,-29,-29,59,-8,-20,8,-156,-59,-49
0,58,58,-29,-29,58,-8,-23,9,-156,-62,-52
0,56,56,-28,-28,56,-9,-24,7,-155,-63,-53
0,54,54,-27,-27,54,-9,-24,5,-155,-62,-53
0,51,51,-25,-25,51,-9,-23,3,-157,-63,-52
0,48,48,-24,-24,48,-9,-23,3,-162,-66,-52
0,47,47,-23,-23,47,-8,-25,4,-167,-69,-54
0,47,47,-23,-23,47,-8,-28,4,-169,-71,-57
0,47,47,-23,-23,47,-9,-29,3,-170,-75,-58
0,47,47,-23,-23,47,-12,-29,3,-170,-79,-58
0,48,48,-24,-24,48,-15,-28,4,-170,-84,-57
-3,48,51,-22,-27,49,-18,-28,3,-170,-86,-57
-4,45,49,-20,-26,47,-19,-29,4,-169,-86,-58
-4,40,44,-18,-24,42,-19,-28,4,-169,-83,-61
-3,38,41,-17,-22,39,-17,-29,3,-171,-81,-64
0,38,38,-19,-19,38,-15,-29,3,-174,-81,-67
0,39,39,-19,-19,39,-13,-28,4,-175,-81,-68
0,41,41,-20,-20,41,-13,-28,4,-174,-81,-67
-1,46,47,-22,-24,46,-15,-30,3,-176,-83,-69
-3,52,55,-24,-29,53,-18,-33,0,-179,-85,-72
-4,51,55,-23,-29,53,-18,-33,0,-180,-87,-72
-3,45,48,-21,-25,46,-15,-30,0,-179,-87,-69
-5,40,45,-17,-25,42,-12,-28,0,-180,-86,-67
-7,39,46,-16,-26,42,-9,-28,0,-183,-86,-67
-9,38,47,-14,-28,42,-8,-29,0,-187,-87,-68
-9,38,47,-14,-28,42,-8,-29,0,-192,-87,-68
-8,39,47,-15,-27,43,-9,-28,0,-197,-86,-67
-8,39,47,-15,-27,43,-9,-28,0,-202,-86,-67
-9,38,47,-14,-28,42,-8,-29,1,-204,-87,-68
-9,38,47,-14,-28,42,-8,-29,3,-204,-87,-68
-8,39,47,-15,-27,43,-9,-28,4,-203,-86,-67
-8,41,49,-16,-28,45,-9,-29,3,-203,-86,-67
-10,43,53,-16,-31,48,-8,-28,5,-203,-87,-68
-12,46,58,-17,-35,52,-8,-28,8,-203,-87,-68
-14,50,64,-18,-39,57,-9,-29,9,-204,-86,-67
-14,56,70,-21,-42,63,-9,-29,8,-204,-86,-67
-13,58,71,-22,-42,64,-8,-28,10,-202,-87,-68
-13,58,71,-22,-42,64,-8,-28,16,-197,-87,-68
-14,57,71,-21,-42,64,-9,-29,22,-191,-86,-67
-14,57,71,-21,-42,64,-9,-29,27,-186,-83,-67
-13,58,71,-22,-42,64,-7,-26,30,-184,-80,-68
-10,60,70,-25,-40,65,0,-21,32,-184,-78,-68
-7,68,75,-30,-41,71,9,-17,36,-185,-77,-66
-4,80,84,-38,-44,82,20,-15,41,-185,-78,-64
-3,93,96,-45,-49,94,25,-11,44,-183,-77,-61
-4,103,107,-49,-55,105,27,-6,46,-180,-74,-59
-3,110,113,-53,-58,111,32,-1,50,-179,-71,-55
0,116,116,-58,-58,116,42,1,56,-180,-69,-49
0,116,116,-58,-58,116,53,7,59,-178,-66,-47
0,115,115,-57,-57,115,63,12,58,-175,-63,-47
0,120,120,-60,-60,120,71,13,56,-174,-62,-48
0,131,131,-65,-65,131,78,12,56,-175,-63,-48
0,140,140,-70,-70,140,86,18,61,-173,-61,-46
-3,144,147,-70,-75,145,94,29,70,-171,-59,-43
-4,146,150,-71,-77,148,98,36,74,-169,-57,-42
-4,146,150,-71,-77,148,97,35,73,-169,-57,-42
-2,145,147,-71,-74,146,96,32,72,-169,-58,-43
0,146,146,-73,-73,146,94,27,70,-169,-58,-43
0,145,145,-72,-72,145,86,19,62,-170,-57,-42
0,145,145,-72,-72,145,74,8,51,-173,-57,-42
1,147,146,-74,-72,146,62,0,47,-176,-58,-43
6,149,143,-77,-68,146,52,-7,50,-179,-58,-43
10,152,142,-81,-66,147,42,-9,55,-180,-57,-41
12,154,142,-83,-65,148,33,-9,57,-180,-54,-36
16,158,142,-87,-63,150,25,-8,58,-179,-50,-32
21,164,143,-92,-61,153,17,-8,61,-176,-44,-29
26,163,137,-94,-55,150,8,-8,65,-173,-42,-27
28,158,130,-93,-51,144,-3,-8,71,-170,-42,-25
29,154,125,-91,-48,139,-15,-9,73,-169,-43,-23
29,152,123,-90,-47,137,-25,-9,73,-169,-43,-23
28,149,121,-88,-46,135,-30,-8,72,-171,-43,-25
25,143,118,-84,-46,130,-30,-5,72,-174,-43,-28
21,138,117,-79,-48,127,-27,-2,73,-175,-42,-29
16,132,116,-74,-50,124,-25,0,73,-174,-42,-28
12,129,117,-70,-52,123,-22,0,71,-176,-44,-30
10,125,115,-67,-52,120,-19,0,68,-181,-50,-35
7,117,110,-62,-51,113,-18,-1,67,-189,-55,-42
3,106,103,-54,-50,104,-18,-5,65,-198,-59,-49
-3,97,100,-47,-51,98,-19,-12,57,-210,-67,-56
-11,89,100,-39,-55,94,-19,-20,44,-223,-78,-61
-15,84,99,-34,-57,91,-18,-26,34,-233,-84,-64
-14,80,94,-33,-54,87,-18,-31,30,-241,-85,-66
-13,75,88,-31,-50,81,-18,-37,27,-246,-90,-70
-12,70,82,-29,-47,76,-18,-45,24,-251,-98,-75
-16,66,82,-25,-49,74,-19,-49,23,-254,-104,-79
-21,64,85,-21,-53,74,-19,-48,23,-256,-106,-81
-25,61,86,-18,-55,73,-18,-48,24,-260,-107,-81
-24,59,83,-17,-53,71,-18,-51,25,-265,-107,-81
-22,57,79,-17,-50,68,-20,-54,21,-270,-107,-83
-20,57,77,-18,-48,67,-22,-57,15,-272,-107,-89
-17,59,76,-21,-46,67,-24,-58,13,-273,-106,-94
-14,62,76,-24,-45,69,-24,-58,13,-272,-106,-96
-13,62,75,-24,-44,68,-23,-57,13,-273,-107,-97
-13,59,72,-23,-42,65,-23,-58,10,-276,-110,-97
-15,57,72,-21,-43,64,-24,-57,8,-279,-113,-96
-18,57,75,-19,-46,66,-24,-57,8,-281,-115,-96
-19,59,78,-20,-48,68,-23,-59,9,-284,-118,-97
-19,61,80,-21,-49,70,-23,-61,8,-286,-121,-97
-18,64,82,-23,-50,73,-24,-63,9,-287,-122,-96
-18,67,85,-24,-51,76,-24,-63,9,-286,-122,-96
-18,68,86,-25,-52,77,-23,-62,7,-287,-121,-98
-18,68,86,-25,-52,77,-23,-62,5,-290,-121,-100
-19,67,86,-24,-52,76,-24,-63,3,-293,-123,-102
-19,67,86,-24,-52,76,-24,-63,3,-295,-125,-102
-18,68,86,-25,-52,77,-23,-62,4,-298,-125,-101
-15,71,86,-28,-50,78,-23,-62,4,-300,-123,-101
-11,74,85,-31,-48,79,-25,-64,3,-303,-120,-102
-5,77,82,-36,-43,79,-27,-66,3,-306,-117,-102
-3,78,81,-37,-42,79,-29,-68,4,-307,-116,-101
-3,79,82,-38,-42,80,-29,-68,3,-306,-116,-102
-4,86,90,-41,-47,88,-28,-66,4,-307,-116,-101
-4,94,98,-45,-51,96,-28,-63,4,-310,-116,-101
-4,96,100,-46,-52,98,-28,-62,3,-314,-118,-102
-4,89,93,-42,-48,91,-28,-62,3,-319,-120,-102
-3,85,88,-41,-45,86,-29,-63,4,-323,-122,-101
-3,85,88,-41,-45,86,-29,-63,4,-325,-122,-101
-5,88,93,-41,-49,90,-28,-62,2,-326,-121,-103
-8,91,99,-41,-53,95,-25,-62,-1,-326,-121,-106
-9,92,101,-41,-55,96,-22,-63,-6,-326,-122,-106
-8,92,100,-42,-54,96,-19,-63,-12,-328,-123,-106
-9,91,100,-41,-54,95,-18,-62,-15,-335,-129,-109
-12,92,104,-40,-58,98,-16,-59,-17,-345,-137,-114
-14,91,105,-38,-59,98,-10,-56,-21,-356,-142,-118
-15,93,108,-39,-61,100,-4,-51,-23,-359,-140,-115
-12,102,114,-45,-63,108,-6,-42,-8,-346,-129,-106
-5,116,121,-55,-63,118,-17,-29,25,-313,-109,-93
6,126,120,-66,-57,123,-31,-19,74,-265,-82,-80
26,134,108,-80,-41,121,-55,-18,139,-198,-42,-62
55,150,95,-102,-20,122,-98,-36,229,-103,24,-27
94,180,86,-137,4,133,-164,-90,344,28,121,28
142,224,82,-183,30,153,-248,-199,481,200,247,103
196,285,89,-240,53,187,-344,-359,632,403,388,190
251,365,114,-308,68,239,-449,-543,783,613,528,278
299,454,155,-376,72,304,-552,-723,923,808,653,356
330,523,193,-426,68,358,-631,-866,1042,971,755,419
341,560,219,-450,61,389,-681,-954,1137,1099,827,459
335,563,228,-449,53,395,-708,-982,1211,1198,860,468
313,542,229,-427,42,385,-704,-952,1272,1261,854,447
276,520,244,-398,16,382,-644,-868,1321,1267,814,405
229,492,263,-360,-17,377,-540,-759,1327,1187,734,344
177,431,254,-304,-38,342,-438,-672,1221,991,605,263
121,342,221,-231,-50,281,-355,-615,1000,694,435,169
59,254,195,-156,-68,224,-277,-560,723,359,254,75
-1,186,187,-92,-94,186,-208,-500,446,50,90,-8
-40,140,180,-50,-110,160,-171,-448,219,-172,-32,-73
-55,112,167,-28,-111,139,-165,-413,60,-298,-106,-117
-59,91,150,-16,-104,120,-163,-401,-40,-363,-136,-138
-58,74,132,-8,-95,103,-153,-398,-90,-388,-137,-141
-57,64,121,-3,-89,92,-137,-372,-92,-384,-135,-140
-54,64,118,-5,-86,91,-119,-319,-66,-365,-137,-137
-51,74,125,-11,-88,99,-106,-265,-42,-349,-132,-132
-46,90,136,-22,-91,113,-97,-219,-32,-345,-120,-125
-39,102,141,-31,-90,121,-85,-180,-25,-346,-115,-119
-31,109,140,-39,-85,124,-70,-146,-17,-349,-116,-114
-26,115,141,-44,-83,128,-56,-116,-11,-352,-115,-109
-24,121,145,-48,-84,133,-44,-92,-9,-354,-109,-103
-23,120,143,-48,-83,131,-34,-71,-8,-357,-105,-100
-23,114,137,-45,-80,125,-26,-54,-9,-359,-106,-101
-24,110,134,-43,-79,122,-22,-43,-8,-362,-107,-103
-24,111,135,-43,-79,123,-23,-39,-8,-367,-106,-106
-22,113,135,-45,-78,124,-24,-38,-11,-372,-108,-107
-20,115,135,-47,-77,125,-24,-39,-16,-377,-110,-107
-18,118,136,-50,-77,127,-23,-38,-19,-383,-112,-106
-18,121,139,-51,-78,130,-24,-35,-19,-388,-111,-106
-18,122,140,-52,-79,131,-23,-32,-19,-390,-112,-108
-18,122,140,-52,-79,131,-23,-29,-22,-389,-115,-110
-19,121,140,-51,-79,130,-24,-28,-25,-390,-118,-112
-22,121,143,-49,-82,132,-24,-28,-27,-393,-121,-112
-24,122,146,-49,-85,134,-21,-29,-30,-395,-122,-111
-24,122,146,-49,-85,134,-16,-28,-32,-395,-122,-111
-22,121,143,-49,-82,132,-13,-29,-35,-394,-121,-112
-20,118,138,-49,-79,128,-13,-29,-38,-394,-118,-112
-17,115,132,-49,-74,123,-14,-27,-39,-395,-115,-111
-15,112,127,-48,-71,119,-14,-25,-39,-395,-112,-109
-12,112,124,-50,-68,118,-13,-23,-38,-394,-111,-104
-9,114,123,-52,-66,118,-13,-23,-38,-394,-111,-98
-8,120,128,-56,-68,124,-15,-25,-39,-395,-112,-96
-8,127,135,-59,-71,131,-17,-27,-39,-395,-112,-96
-9,132,141,-61,-75,136,-19,-29,-38,-395,-111,-97
-9,133,142,-62,-75,137,-19,-29,-35,-395,-112,-97
-9,127,136,-59,-72,131,-18,-28,-32,-394,-111,-96
-9,119,128,-55,-68,123,-18,-25,-29,-394,-111,-96
-8,115,123,-53,-65,119,-19,-22,-28,-395,-112,-96
-8,116,124,-54,-66,120,-19,-19,-29,-395,-112,-96
-10,117,127,-53,-68,122,-18,-18,-28,-394,-111,-97
-12,117,129,-52,-70,123,-18,-18,-25,-394,-108,-97
-14,115,129,-50,-71,122,-19,-20,-23,-395,-105,-96
-14,112,126,-49,-70,119,-19,-22,-23,-395,-103,-93
-12,111,123,-49,-67,117,-18,-24,-24,-392,-100,-90
-10,112,122,-51,-66,117,-18,-24,-24,-387,-98,-87
-8,111,119,-51,-63,115,-21,-22,-23,-383,-95,-86
-8,108,116,-50,-62,112,-26,-20,-20,-379,-93,-86
-9,106,115,-48,-62,110,-29,-18,-17,-367,-90,-87
-12,106,118,-47,-65,112,-29,-18,-14,-346,-88,-87
-15,106,121,-45,-68,113,-28,-19,-13,-327,-85,-86
-19,106,125,-43,-72,115,-28,-19,-13,-308,-83,-83
-17,107,124,-45,-70,115,-28,-18,-14,-281,-80,-80
-11,110,121,-49,-66,115,-28,-19,-13,-242,-79,-78
-7,113,120,-53,-63,116,-30,-18,-14,-194,-76,-77
-6,115,121,-54,-63,118,-32,-18,-14,-148,-74,-77
-12,118,130,-53,-71,124,-34,-19,-13,-118,-71,-78
-21,121,142,-50,-81,131,-34,-19,-10,-103,-69,-79
-24,122,146,-49,-85,134,-33,-17,-6,-88,-67,-74
-20,122,142,-51,-81,132,-33,-14,-1,-70,-64,-66
-18,121,139,-51,-78,130,-33,-14,0,-57,-60,-61
-18,118,136,-50,-77,127,-33,-14,0,-50,-55,-62
-19,115,134,-48,-76,124,-34,-11,0,-45,-51,-62
-19,112,131,-46,-75,121,-37,-6,2,-38,-49,-59
-18,111,129,-46,-73,120,-41,-3,4,-29,-46,-56
-15,111,126,-48,-70,118,-46,-3,7,-18,-44,-53
-12,111,123,-49,-67,117,-48,-4,11,-10,-41,-52
-10,111,121,-50,-65,116,-48,-4,17,-1,-39,-52
-7,113,120,-53,-63,116,-47,-4,19,11,-37,-53
-5,116,121,-55,-63,118,-48,-4,19,29,-35,-53
-2,116,118,-57,-60,117,-47,-3,19,47,-32,-52
0,113,113,-56,-56,113,-47,-1,21,61,-29,-49
0,111,111,-55,-55,111,-49,1,26,73,-29,-46
2,111,109,-56,-53,110,-55,3,31,85,-29,-44
5,112,107,-58,-51,109,-60,4,36,99,-27,-40
8,111,103,-59,-47,107,-62,3,40,115,-21,-35
8,112,104,-60,-48,108,-63,4,45,126,-16,-33
5,115,110,-60,-52,112,-62,7,49,131,-11,-33
2,119,117,-60,-57,118,-63,10,56,142,-6,-33
2,123,121,-62,-59,122,-66,13,64,157,-1,-30
6,127,121,-66,-57,124,-70,14,71,170,1,-27
11,130,119,-70,-54,124,-75,14,76,177,2,-24
15,131,116,-73,-50,123,-79,12,79,182,6,-23
14,130,116,-72,-51,123,-81,10,81,187,11,-21
12,131,119,-71,-53,125,-81,8,82,191,15,-15
12,133,121,-72,-54,127,-79,8,85,194,17,-7
17,138,121,-77,-52,129,-77,10,89,195,20,0
25,144,119,-84,-47,131,-76,12,94,197,26,3
30,146,116,-88,-43,131,-80,14,99,204,31,3
29,146,117,-87,-44,131,-85,14,104,217,36,3
29,145,116,-87,-43,130,-87,14,108,229,40,5
33,145,112,-89,-39,128,-86,14,110,237,42,11
33,147,114,-90,-40,130,-87,13,113,239,42,15
30,153,123,-91,-46,138,-90,10,115,238,42,17
29,157,128,-93,-49,142,-92,8,118,240,45,20
32,160,128,-96,-48,144,-92,7,120,245,50,23
35,161,126,-98,-45,143,-91,11,122,249,53,24
36,161,125,-98,-44,143,-92,16,124,251,53,23
30,160,130,-95,-50,145,-91,20,127,255,53,24
21,160,139,-90,-59,149,-91,20,130,260,56,27
19,161,142,-90,-61,151,-93,16,130,264,59,29
25,164,139,-94,-57,151,-99,10,127,267,62,29
31,165,134,-98,-51,149,-104,8,125,268,63,28
33,165,132,-99,-49,148,-106,8,125,267,62,28
34,164,130,-99,-48,147,-107,8,127,268,63,29
33,161,128,-97,-47,144,-107,5,130,268,66,29
34,160,126,-97,-46,143,-106,2,130,266,68,28
34,160,126,-97,-46,143,-106,1,127,263,68,28
32,161,129,-96,-48,145,-107,-1,124,263,67,29
29,161,132,-95,-51,146,-107,-3,119,266,67,29
28,161,133,-94,-52,147,-105,-4,114,268,68,28
29,161,132,-95,-51,146,-103,-3,108,267,68,25
28,160,132,-94,-52,146,-101,-4,106,268,67,22
25,162,137,-93,-56,149,-101,-7,107,271,65,19
23,169,146,-96,-61,157,-102,-9,105,274,59,18
23,178,155,-100,-66,166,-101,-9,99,277,51,18
24,178,154,-101,-65,166,-102,-8,94,278,45,19
24,169,145,-96,-60,157,-102,-8,90,278,43,22
22,161,139,-91,-58,150,-100,-9,83,277,42,25
17,157,140,-87,-61,148,-98,-9,75,274,42,28
11,154,143,-82,-66,148,-96,-8,72,271,42,27
6,151,145,-78,-69,148,-96,-8,72,269,41,21
2,150,148,-76,-73,149,-96,-9,72,267,35,16
0,151,151,-75,-75,151,-94,-9,69,264,27,14
0,150,150,-75,-75,150,-89,-7,66,260,22,13
0,147,147,-73,-73,147,-84,-5,63,255,22,13
0,144,144,-72,-72,144,-80,-3,62,250,25,14
-2,141,143,-69,-72,142,-79,-3,60,246,28,14
-5,140,145,-67,-75,142,-75,-4,54,240,27,12
-7,141,148,-67,-77,144,-70,-4,45,232,22,6
-10,140,150,-65,-80,145,-66,-3,33,226,16,1
-12,138,150,-63,-81,144,-64,-1,22,221,11,-2
-15,133,148,-59,-81,140,-60,0,17,216,6,-5
-18,128,146,-55,-82,137,-55,2,18,211,2,-8
-19,124,143,-52,-81,133,-51,5,18,206,-2,-8
-18,122,140,-52,-79,131,-48,8,16,201,-6,-8
-19,122,141,-51,-80,131,-47,9,11,198,-11,-11
-22,122,144,-50,-83,133,-44,9,6,196,-16,-16
-25,119,144,-47,-84,131,-40,9,1,193,-20,-19
-27,114,141,-43,-84,127,-35,9,-2,188,-22,-18
-30,110,140,-40,-85,125,-33,8,-5,181,-25,-20
-32,111,143,-39,-87,127,-33,8,-7,174,-31,-26
-35,112,147,-38,-91,129,-33,10,-10,165,-36,-30
-37,112,149,-37,-93,130,-30,16,-12,155,-41,-32
-40,111,151,-35,-95,131,-27,20,-14,148,-44,-36
-42,108,150,-33,-96,129,-25,20,-16,146,-46,-41
-43,104,147,-30,-95,125,-22,17,-22,146,-49,-43
-42,99,141,-28,-91,120,-20,14,-30,146,-51,-43
-43,95,138,-26,-90,116,-17,13,-35,145,-54,-42
-46,92,138,-23,-92,115,-15,14,-37,142,-56,-42
-48,91,139,-21,-93,115,-12,13,-41,139,-59,-43
-47,91,138,-22,-92,114,-9,10,-46,137,-62,-45
-48,92,140,-22,-94,116,-8,8,-48,134,-63,-50
-51,92,143,-20,-97,117,-8,8,-47,132,-62,-55
-54,90,144,-18,-99,117,-9,9,-49,129,-63,-58
-57,88,145,-15,-101,116,-9,9,-55,127,-65,-58
-58,86,144,-14,-101,115,-8,9,-58,124,-70,-57
-58,86,144,-14,-101,115,-5,9,-57,122,-76,-57
-57,87,144,-15,-100,115,-2,8,-59,121,-78,-58
-57,87,144,-15,-100,115,-1,8,-65,121,-78,-58
-58,86,144,-14,-101,115,1,10,-69,122,-77,-57
-58,86,144,-14,-101,115,3,12,-69,124,-77,-58
-57,87,144,-15,-100,115,4,14,-66,127,-78,-57
-57,87,144,-15,-100,115,3,14,-63,130,-78,-57
-58,86,144,-14,-101,115,4,13,-62,131,-77,-58
-58,86,144,-14,-101,115,7,14,-62,130,-77,-58
-57,87,144,-15,-100,115,9,13,-62,131,-78,-57
-57,87,144,-15,-100,115,9,13,-62,134,-78,-57
-58,86,144,-14,-101,115,8,15,-63,136,-76,-59
-58,86,144,-14,-101,115,9,18,-66,136,-74,-61
-57,87,144,-15,-100,115,8,19,-68,135,-72,-63
-57,88,145,-15,-101,116,8,18,-68,135,-72,-63
-58,84,142,-13,-100,113,9,20,-67,136,-73,-63
-61,79,140,-9,-100,109,12,26,-67,139,-73,-63
-63,78,141,-7,-102,109,14,30,-68,142,-72,-62
-63,84,147,-10,-105,115,14,33,-68,144,-72,-59
-61,88,149,-13,-105,118,13,34,-68,147,-73,-57
-59,87,146,-14,-102,116,13,34,-68,149,-73,-57
-57,86,143,-14,-100,114,14,32,-67,152,-71,-58
-57,86,143,-14,-100,114,14,30,-67,155,-68,-58
-59,87,146,-14,-102,116,13,28,-68,156,-68,-57
-61,86,147,-12,-104,116,10,28,-68,155,-70,-58
-63,87,150,-12,-106,118,7,29,-66,156,-74,-57
-63,87,150,-12,-106,118,4,32,-63,159,-77,-57
-61,86,147,-12,-104,116,3,35,-63,161,-77,-58
-58,83,141,-12,-99,112,3,37,-65,161,-74,-58
-58,81,139,-11,-98,110,4,39,-69,160,-71,-56
-58,80,138,-11,-98,109,4,39,-72,160,-68,-54
-56,83,139,-13,-97,111,3,37,-72,161,-67,-52
-50,88,138,-19,-94,113,3,35,-69,161,-67,-52
-47,94,141,-23,-94,117,4,33,-67,160,-68,-53
-47,100,147,-26,-97,123,4,33,-67,160,-68,-52
-48,102,150,-27,-99,126,3,33,-67,161,-67,-53
-48,101,149,-26,-98,125,3,33,-67,161,-64,-53
-47,102,149,-27,-98,125,5,34,-68,160,-62,-51
-47,105,152,-29,-99,128,7,37,-71,160,-62,-49
-49,107,156,-29,-102,131,9,39,-73,161,-63,-47
-51,107,158,-28,-104,132,9,39,-73,160,-66,-47
-53,107,160,-27,-106,133,8,38,-72,161,-69,-47
-53,107,160,-27,-106,133,8,38,-72,161,-72,-47
-52,105,157,-26,-104,131,9,39,-73,160,-72,-48
-52,99,151,-23,-101,125,9,39,-75,160,-69,-51
-53,96,149,-21,-101,122,8,38,-80,161,-67,-54
-53,96,149,-21,-101,122,8,38,-85,161,-67,-57
-52,97,149,-22,-100,123,9,39,-87,160,-69,-58
-52,96,148,-22,-100,122,9,39,-87,160,-71,-58
-53,97,150,-22,-101,123,8,38,-86,161,-73,-57
-53,100,153,-23,-103,126,8,38,-86,161,-73,-57
-52,102,154,-25,-103,128,9,39,-87,160,-72,-58
-52,102,154,-25,-103,128,9,39,-87,158,-72,-58
-53,102,155,-24,-104,128,9,38,-87,153,-73,-57
-56,102,158,-23,-107,130,9,36,-87,147,-73,-57
-58,101,159,-21,-108,130,8,31,-86,145,-72,-59
-58,98,156,-20,-107,127,8,25,-86,145,-72,-65
-57,95,152,-19,-104,123,9,23,-87,145,-73,-69
-57,92,149,-17,-103,120,9,24,-89,142,-76,-69
-58,91,149,-16,-103,120,8,22,-94,139,-78,-66
-58,91,149,-16,-103,120,8,16,-99,136,-78,-64
-57,92,149,-17,-103,120,9,13,-103,135,-77,-62
-54,92,146,-19,-100,119,9,13,-106,135,-77,-62
-52,91,143,-19,-97,117,8,13,-107,136,-79,-64
-52,91,143,-19,-97,117,8,10,-106,136,-84,-67
-54,92,146,-19,-100,119,9,8,-107,135,-88,-67
-56,92,148,-18,-102,120,9,8,-110,132,-91,-64
-58,91,149,-16,-103,120,8,9,-112,130,-92,-62
-58,88,146,-15,-102,117,5,9,-112,130,-92,-62
-57,86,143,-14,-100,114,3,8,-111,131,-91,-62
-57,85,142,-14,-99,113,3,5,-111,131,-91,-62
-58,89,147,-15,-102,118,5,2,-112,129,-92,-63
-58,94,152,-18,-105,123,7,1,-112,127,-92,-66
-57,97,154,-20,-105,125,9,-1,-110,125,-91,-69
-57,97,154,-20,-105,125,9,-3,-107,125,-92,-71
-58,96,154,-19,-106,125,8,-4,-107,126,-91,-74
-58,96,154,-19,-106,125,8,-4,-110,126,-91,-77
-57,97,154,-20,-105,125,9,-3,-112,125,-92,-78
-57,100,157,-21,-107,128,9,-3,-112,123,-92,-78
-58,103,161,-22,-109,132,8,-5,-111,120,-91,-77
-58,106,164,-24,-111,135,8,-8,-111,118,-91,-78
-57,106,163,-24,-110,134,8,-9,-112,115,-92,-77
-57,106,163,-24,-110,134,8,-8,-112,113,-95,-77
-58,108,166,-25,-112,137,9,-10,-111,110,-98,-78
-61,114,175,-26,-118,144,9,-15,-111,108,-101,-80
-63,117,180,-27,-121,148,8,-21,-111,105,-102,-83
-63,117,180,-27,-121,148,8,-27,-111,103,-102,-86
-61,116,177,-27,-119,146,9,-29,-112,100,-101,-87
-58,117,175,-29,-116,146,9,-29,-112,97,-101,-87
-58,116,174,-29,-116,145,8,-28,-111,96,-102,-86
-61,113,174,-26,-117,143,5,-28,-111,97,-105,-86
-63,111,174,-24,-118,142,2,-29,-112,96,-107,-87
-62,111,173,-24,-117,142,0,-29,-115,93,-107,-87
-63,113,176,-25,-119,144,0,-28,-119,90,-106,-86
-66,115,181,-24,-123,148,0,-28,-123,87,-106,-86
-68,117,185,-24,-126,151,0,-29,-127,86,-107,-87
-68,117,185,-24,-126,151,0,-32,-129,86,-107,-87
-68,116,184,-24,-126,150,0,-35,-131,87,-106,-86
-68,116,184,-24,-126,150,0,-38,-134,87,-106,-86
-67,117,184,-25,-125,150,0,-39,-137,85,-108,-87
-64,117,181,-26,-122,149,0,-39,-140,80,-110,-87
-62,116,178,-27,-120,147,0,-38,-141,76,-112,-86
-62,116,178,-27,-120,147,0,-38,-140,74,-111,-86
-63,117,180,-27,-121,148,0,-39,-141,71,-112,-87
-63,120,183,-28,-123,151,0,-38,-144,69,-115,-87
-62,123,185,-30,-123,154,0,-39,-146,67,-117,-86
-62,124,186,-31,-124,155,0,-39,-146,67,-117,-86
-63,126,189,-31,-126,157,0,-38,-145,68,-117,-87
-63,129,192,-33,-127,160,0,-38,-145,68,-117,-87
-62,132,194,-35,-128,163,0,-39,-145,67,-116,-86
-62,135,197,-36,-129,166,0,-39,-145,67,-113,-86
-63,136,199,-36,-131,167,1,-37,-146,68,-110,-87
-63,137,200,-37,-131,168,5,-31,-146,68,-107,-87
-62,145,207,-41,-134,176,12,-27,-145,67,-106,-85
-62,158,220,-48,-141,189,20,-25,-142,67,-107,-83
-63,169,232,-53,-147,200,25,-22,-140,69,-106,-81
-63,177,240,-57,-151,208,27,-17,-137,71,-103,-82
-62,182,244,-60,-153,213,31,-11,-133,73,-100,-81
-59,185,244,-63,-151,214,41,-6,-128,72,-98,-79
-57,183,240,-63,-148,211,53,-1,-124,73,-95,-77
-57,180,237,-61,-147,208,63,3,-122,76,-92,-77
-57,181,238,-62,-147,209,71,3,-121,78,-91,-78
-57,190,247,-66,-152,218,78,2,-119,77,-92,-78
-58,198,256,-70,-157,227,85,7,-113,78,-91,-77
-61,202,263,-70,-162,232,93,18,-105,80,-88,-74
-63,204,267,-70,-165,235,98,26,-100,82,-86,-72
-63,203,266,-70,-164,234,97,25,-101,82,-86,-72
-61,204,265,-71,-163,234,96,22,-102,80,-87,-73
-58,207,265,-74,-161,236,95,17,-104,76,-90,-73
-58,210,268,-76,-163,239,87,10,-110,69,-93,-72
-58,212,270,-77,-164,241,75,1,-121,61,-96,-72
-56,215,271,-79,-163,243,62,-8,-127,55,-97,-73
-50,217,267,-83,-158,242,53,-16,-127,53,-97,-73
-46,219,265,-86,-155,242,43,-20,-125,52,-96,-71
-44,221,265,-88,-154,243,33,-19,-125,52,-94,-65
-41,226,267,-92,-154,246,25,-18,-125,53,-89,-61
-36,232,268,-98,-152,250,18,-18,-124,53,-81,-59
-32,233,265,-100,-148,249,9,-19,-119,52,-75,-56
-30,227,257,-98,-143,242,-2,-19,-114,52,-73,-54
-27,222,249,-97,-138,235,-14,-18,-111,53,-72,-52
-25,220,245,-97,-135,232,-25,-16,-111,53,-72,-52
-23,217,240,-97,-131,228,-30,-11,-112,51,-73,-54
-22,212,234,-95,-128,223,-30,-6,-112,48,-73,-57
-25,205,230,-90,-127,217,-27,-2,-111,48,-71,-57
-31,195,226,-82,-128,210,-22,0,-108,51,-68,-54
-35,186,221,-75,-128,203,-16,0,-106,52,-68,-52
-37,176,213,-69,-125,194,-10,0,-106,50,-71,-55
-40,162,202,-61,-121,182,-8,-1,-107,46,-73,-60
-44,142,186,-49,-115,164,-8,-5,-111,42,-75,-65
-51,121,172,-35,-111,146,-9,-12,-123,35,-81,-69
-59,104,163,-22,-111,133,-9,-20,-139,28,-89,-71
-64,93,157,-14,-110,125,-7,-25,-149,21,-92,-73
-64,88,152,-12,-108,120,-3,-27,-151,16,-91,-76
-62,85,147,-11,-104,116,2,-31,-150,12,-93,-80
-61,81,142,-10,-101,111,7,-37,-151,9,-99,-84
-64,74,138,-5,-101,106,9,-38,-150,9,-103,-87
-70,63,133,3,-101,98,9,-35,-148,12,-103,-87
-73,53,126,10,-99,89,8,-33,-144,14,-100,-85
-73,43,116,15,-94,79,9,-33,-140,14,-98,-83
-72,35,107,18,-89,71,8,-34,-142,13,-96,-81
-72,27,99,22,-85,63,8,-34,-148,10,-96,-82
-73,21,94,26,-83,57,9,-33,-152,8,-97,-81
-73,17,90,28,-81,53,12,-30,-151,8,-97,-79
-72,9,81,31,-76,45,15,-27,-150,10,-95,-76
-72,-2,70,37,-71,34,17,-25,-148,15,-90,-74
-73,-14,59,43,-66,22,20,-22,-143,21,-84,-71
-76,-24,52,50,-64,14,22,-19,-138,27,-79,-69
-78,-32,46,55,-62,7,24,-18,-135,28,-78,-66
-78,-39,39,58,-58,0,24,-19,-135,25,-80,-64
-77,-46,31,61,-54,-7,23,-18,-136,23,-82,-61
-77,-54,23,65,-50,-15,23,-15,-136,23,-82,-58
-78,-60,18,69,-48,-21,25,-12,-136,24,-81,-57
-78,-65,13,71,-45,-26,30,-10,-136,24,-78,-58
-77,-69,8,73,-42,-30,36,-7,-135,23,-77,-57
-77,-74,3,75,-40,-35,41,-5,-132,23,-78,-54
-78,-80,-2,79,-38,-41,43,-2,-130,24,-77,-51
-78,-87,-9,82,-34,-48,43,0,-130,24,-74,-49
-77,-95,-18,86,-29,-56,42,0,-131,23,-71,-46
-74,-103,-29,88,-22,-66,39,0,-131,23,-69,-44
-72,-108,-36,90,-18,-72,38,0,-130,24,-66,-42
-72,-109,-37,90,-17,-73,38,0,-130,27,-64,-42
-73,-104,-31,88,-21,-67,39,0,-131,29,-61,-43
-73,-98,-25,85,-24,-61,39,2,-131,29,-58,-43
-72,-98,-26,85,-23,-62,38,5,-131,27,-57,-42
-69,-103,-34,86,-17,-68,35,7,-131,24,-58,-40
-66,-108,-42,87,-12,-75,32,10,-130,24,-57,-37
-63,-107,-44,85,-9,-75,29,12,-130,25,-54,-34
-63,-106,-43,84,-10,-74,29,15,-131,21,-52,-34
-66,-106,-40,86,-13,-73,32,17,-131,10,-52,-37
-68,-107,-39,87,-14,-73,35,20,-130,0,-53,-38
-67,-110,-43,88,-12,-76,38,23,-130,-11,-55,-38
-68,-113,-45,90,-11,-79,39,23,-132,-25,-61,-41
-71,-119,-48,95,-11,-83,40,21,-136,-42,-72,-48
-73,-124,-51,98,-11,-87,45,17,-144,-61,-81,-55
-74,-126,-52,100,-11,-89,51,16,-149,-74,-82,-56
-71,-123,-52,97,-9,-87,52,23,-137,-65,-71,-47
-64,-115,-51,89,-6,-83,45,36,-103,-28,-46,-26
-52,-110,-58,81,3,-84,33,46,-55,25,-13,-4
-33,-106,-73,69,20,-89,14,47,6,96,29,21
-5,-96,-91,50,43,-93,-23,35,95,191,94,55
32,-75,-107,21,69,-91,-84,-3,214,319,188,105
79,-41,-120,-19,99,-80,-161,-96,356,488,308,172
133,10,-123,-71,128,-56,-251,-243,511,691,447,253
189,82,-107,-135,148,-12,-350,-418,667,900,586,339
240,164,-76,-202,158,44,-447,-590,813,1093,713,422
276,227,-49,-251,162,89,-519,-725,939,1255,817,489
291,258,-33,-274,162,112,-562,-806,1041,1383,891,533
288,260,-28,-274,158,116,-591,-835,1119,1486,928,548
269,244,-25,-256,147,109,-597,-811,1180,1560,927,534
237,226,-11,-231,124,107,-552,-735,1230,1581,892,499
193,201,8,-197,92,104,-458,-629,1242,1517,818,445
141,144,3,-142,69,73,-358,-542,1146,1331,695,368
80,56,-24,-68,52,16,-270,-489,932,1032,530,274
12,-32,-44,10,28,-38,-188,-440,656,687,351,178
-53,-101,-48,77,-2,-74,-115,-386,378,365,188,93
-96,-149,-53,122,-21,-101,-74,-335,148,132,63,27
-110,-180,-70,145,-20,-125,-67,-298,-10,5,-11,-15
