I,II,III,aVR,aVL,aVF,V1,V2,V3,V4,V5,V6
97,126,29,-112,34,78,-78,-29,-19,-19,-53,82
97,122,24,-109,36,73,-78,-29,-24,-29,-63,68
97,122,24,-109,36,73,-78,-34,-39,-39,-68,63
92,117,24,-104,34,70,-68,-39,-39,-48,-73,58
78,122,43,-100,17,82,-43,-39,-43,-48,-68,58
73,126,53,-100,9,90,-43,-34,-48,-53,-68,58
58,112,53,-85,2,82,-39,-34,-48,-58,-73,53
58,117,58,-87,0,87,-39,-43,-53,-63,-87,48
68,112,43,-90,12,78,-39,-48,-68,-78,-102,34
68,92,24,-80,21,58,-39,-63,-78,-82,-112,24
53,82,29,-68,12,56,-39,-73,-87,-92,-122,14
39,73,34,-56,2,53,-39,-78,-97,-107,-126,9
39,63,24,-51,7,43,-48,-87,-102,-122,-136,4
34,58,24,-46,4,41,-48,-87,-102,-122,-141,0
19,48,29,-34,-4,39,-39,-82,-102,-122,-141,-4
-4,43,48,-19,-26,46,-29,-82,-102,-122,-141,-4
-14,34,48,-9,-31,41,-14,-82,-102,-122,-146,-9
-14,29,43,-7,-29,36,-9,-82,-102,-122,-151,-14
-14,29,43,-7,-29,36,-9,-82,-112,-126,-151,-14
-19,19,39,0,-29,29,-9,-92,-117,-131,-156,-14
-19,19,39,0,-29,29,-19,-102,-122,-146,-161,-24
-19,24,43,-2,-31,34,-19,-107,-122,-151,-165,-29
-24,19,43,2,-34,31,-19,-112,-126,-161,-170,-39
-34,19,53,7,-43,36,-19,-122,-136,-161,-180,-48
-43,29,73,7,-58,51,-9,-112,-136,-161,-190,-39
-43,24,68,9,-56,46,-9,-112,-131,-161,-190,-39
-34,19,53,7,-43,36,-9,-112,-131,-161,-190,-39
-43,9,53,17,-48,31,-9,-112,-131,-161,-190,-39
-43,4,48,19,-46,26,-4,-102,-122,-156,-185,-39
-43,4,48,19,-46,26,-4,-102,-126,-156,-180,-39
-43,0,43,21,-43,21,-4,-112,-131,-156,-180,-43
-43,-4,39,24,-41,17,-4,-112,-131,-156,-175,-43
-43,0,43,21,-43,21,-14,-112,-141,-161,-185,-53
-43,9,53,17,-48,31,-14,-112,-141,-156,-185,-53
-39,19,58,9,-48,39,-14,-112,-141,-161,-180,-53
-39,24,63,7,-51,43,-14,-112,-141,-165,-180,-48
-53,14,68,19,-61,41,-9,-112,-126,-151,-170,-39
-53,14,68,19,-61,41,-9,-107,-126,-151,-170,-39
-53,14,68,19,-61,41,-4,-107,-126,-151,-170,-39
-63,14,78,24,-70,46,-4,-107,-126,-151,-175,-39
-68,19,87,24,-78,53,-4,-107,-131,-151,-175,-39
-63,19,82,21,-73,51,-4,-107,-131,-156,-180,-43
-43,24,68,9,-56,46,-4,-107,-131,-156,-180,-43
-39,24,63,7,-51,43,-4,-107,-131,-151,-180,-43
-43,4,48,19,-46,26,4,-97,-122,-151,-190,-43
-53,4,58,24,-56,31,4,-97,-122,-151,-185,-43
-58,9,68,24,-63,39,9,-97,-122,-151,-180,-43
-63,9,73,26,-68,41,9,-97,-122,-151,-180,-39
-63,4,68,29,-65,36,0,-112,-131,-161,-190,-43
-53,4,58,24,-56,31,0,-112,-131,-161,-190,-48
-43,9,53,17,-48,31,0,-112,-131,-161,-190,-53
-43,9,53,17,-48,31,0,-112,-131,-161,-190,-58
-43,19,63,12,-53,41,9,-107,-117,-146,-175,-53
-43,19,63,12,-53,41,9,-107,-117,-146,-175,-48
-43,19,63,12,-53,41,9,-102,-117,-146,-175,-43
-43,19,63,12,-53,41,9,-102,-117,-146,-175,-39
-53,19,73,17,-63,46,19,-107,-117,-146,-165,-39
-63,14,78,24,-70,46,19,-107,-117,-146,-165,-39
-68,14,82,26,-75,48,19,-107,-117,-146,-165,-39
-68,14,82,26,-75,48,19,-107,-117,-146,-165,-34
-53,29,82,12,-68,56,9,-107,-112,-146,-165,-34
-29,58,87,-14,-58,73,9,-97,-112,-141,-151,-19
-24,73,97,-24,-61,85,0,-97,-107,-141,-146,-19
-34,73,107,-19,-70,90,0,-107,-97,-136,-141,-9
-53,78,131,-12,-92,104,19,-102,-82,-107,-117,14
-43,97,141,-26,-92,119,39,-82,-63,-73,-82,48
-34,107,141,-36,-87,124,34,-58,-39,-43,-53,63
-29,92,122,-31,-75,107,24,-39,-19,-29,-39,87
-24,73,97,-24,-61,85,34,-9,-14,-19,-9,107
-14,73,87,-29,-51,80,29,19,4,0,14,141
19,78,58,-48,-19,68,24,39,4,19,43,165
68,53,-14,-61,41,19,-4,39,-19,4,58,180
156,24,-131,-90,143,-53,-43,34,-63,-24,53,180
229,-19,-248,-104,239,-134,-82,39,-97,-43,53,185
307,-39,-346,-134,326,-192,-102,58,-102,-29,87,219
400,-24,-424,-187,412,-224,-131,112,-68,24,170,287
468,-9,-478,-229,473,-244,-151,195,-19,92,253,370
507,4,-502,-256,505,-248,-175,258,19,151,326,439
580,9,-570,-295,575,-280,-214,268,34,190,375,473
653,34,-619,-344,636,-292,-244,229,39,209,405,492
663,53,-610,-358,636,-278,-244,219,78,253,414,478
649,63,-585,-356,617,-261,-204,214,112,258,380,424
634,0,-634,-317,634,-317,-165,224,112,190,229,258
605,-122,-727,-241,666,-424,-136,209,73,73,24,14
546,-224,-771,-161,658,-497,-122,156,29,-34,-136,-180
463,-253,-717,-104,590,-485,-82,73,0,-82,-219,-287
346,-253,-600,-46,473,-427,-53,-78,-68,-151,-307,-351
214,-273,-488,29,351,-380,-24,-248,-209,-263,-414,-409
73,-253,-326,90,200,-290,9,-419,-380,-380,-492,-448
-48,-234,-185,141,68,-209,53,-561,-522,-488,-561,-463
-161,-234,-73,197,-43,-153,92,-649,-629,-566,-614,-488
-253,-229,24,241,-139,-102,141,-649,-673,-610,-644,-488
-336,-209,126,273,-231,-41,185,-605,-692,-629,-639,-478
-414,-229,185,322,-300,-21,209,-546,-692,-649,-653,-478
-434,-263,170,348,-302,-46,224,-497,-702,-673,-678,-488
-405,-283,122,344,-263,-80,214,-453,-702,-692,-688,-478
-380,-263,117,322,-248,-73,195,-434,-683,-673,-663,-448
-346,-248,97,297,-222,-75,180,-395,-639,-629,-619,-405
-292,-253,39,273,-165,-107,161,-331,-590,-575,-580,-380
-229,-214,14,222,-122,-100,112,-263,-507,-512,-517,-331
-195,-146,48,170,-122,-48,82,-190,-400,-424,-439,-268
-161,-117,43,139,-102,-36,73,-107,-322,-346,-370,-219
-126,-107,19,117,-73,-43,63,-9,-263,-292,-326,-180
-107,-82,24,95,-65,-29,53,58,-204,-234,-278,-146
-97,-24,73,61,-85,24,58,122,-141,-190,-239,-112
-78,29,107,24,-92,68,78,151,-107,-161,-204,-82
-53,43,97,4,-75,70,87,131,-107,-151,-195,-68
-39,53,92,-7,-65,73,82,107,-97,-146,-190,-68
-24,68,92,-21,-58,80,68,92,-78,-126,-170,-58
-24,78,102,-26,-63,90,63,58,-73,-117,-165,-43
-29,68,97,-19,-63,82,48,19,-82,-126,-161,-39
-24,73,97,-24,-61,85,48,-4,-82,-122,-151,-34
-34,82,117,-24,-75,100,58,-14,-78,-117,-146,-29
-48,73,122,-12,-85,97,58,-9,-68,-112,-141,-24
-53,73,126,-9,-90,100,53,9,-68,-107,-141,-19
-48,78,126,-14,-87,102,53,14,-63,-102,-131,-9
-58,78,136,-9,-97,107,48,14,-63,-97,-126,-4
-34,87,122,-26,-78,104,34,9,-53,-87,-122,-4
-29,92,122,-31,-75,107,29,4,-48,-82,-117,-4
-24,92,117,-34,-70,104,29,4,-48,-82,-117,0
-24,87,112,-31,-68,100,29,4,-48,-82,-112,0
-34,97,131,-31,-82,114,29,4,-43,-87,-112,4
-34,97,131,-31,-82,114,29,0,-48,-87,-112,4
-34,97,131,-31,-82,114,29,-4,-53,-87,-112,4
-29,97,126,-34,-78,112,24,-9,-58,-87,-112,4
-19,102,122,-41,-70,112,14,-19,-58,-82,-117,-4
-19,97,117,-39,-68,107,9,-24,-58,-78,-117,0
-19,92,112,-36,-65,102,9,-24,-58,-78,-112,0
-14,97,112,-41,-63,104,9,-24,-53,-78,-112,4
-14,102,117,-43,-65,109,9,-9,-53,-78,-117,14
-14,107,122,-46,-68,114,9,-4,-53,-73,-117,14
-14,112,126,-48,-70,119,9,0,-48,-73,-117,14
-14,107,122,-46,-68,114,4,4,-48,-68,-117,14
-24,107,131,-41,-78,119,4,-4,-39,-58,-112,14
-24,112,136,-43,-80,124,4,-4,-39,-58,-102,19
-14,112,126,-48,-70,119,4,-4,-39,-58,-97,19
-9,112,122,-51,-65,117,0,-4,-39,-58,-92,24
-14,112,126,-48,-70,119,-9,0,-34,-63,-92,14
-24,112,136,-43,-80,124,-9,4,-39,-58,-92,14
-29,107,136,-39,-82,122,-9,4,-43,-58,-97,14
-29,102,131,-36,-80,117,-14,9,-43,-58,-102,19
-14,112,126,-48,-70,119,-14,19,-39,-53,-92,34
0,112,112,-56,-56,112,-9,19,-34,-48,-87,34
4,117,112,-61,-53,114,-4,14,-29,-48,-78,34
0,122,122,-61,-61,122,0,14,-19,-48,-73,39
14,122,107,-68,-46,114,-4,4,-24,-43,-78,39
24,122,97,-73,-36,109,-9,9,-29,-43,-78,39
29,122,92,-75,-31,107,-14,19,-24,-34,-73,43
34,122,87,-78,-26,104,-19,29,-24,-34,-68,53
14,122,107,-68,-46,114,-19,39,-19,-34,-58,53
9,122,112,-65,-51,117,-14,34,-14,-34,-63,48
9,126,117,-68,-53,122,-9,34,-9,-34,-63,48
0,126,126,-63,-63,126,-9,39,-4,-34,-58,43
9,136,126,-73,-58,131,-14,29,-9,-24,-68,43
19,136,117,-78,-48,126,-19,29,-9,-24,-63,48
39,136,97,-87,-29,117,-29,34,-4,-24,-58,48
48,136,87,-92,-19,112,-34,39,-9,-24,-58,48
24,126,102,-75,-39,114,-19,48,-4,-19,-39,68
19,131,112,-75,-46,122,-19,53,4,-9,-39,78
24,131,107,-78,-41,119,-19,58,9,-4,-34,78
19,131,112,-75,-46,122,-24,63,14,0,-29,78
29,131,102,-80,-36,117,-34,53,9,-9,-39,73
34,141,107,-87,-36,124,-34,63,19,-4,-39,73
48,141,92,-95,-21,117,-39,63,24,0,-29,68
53,151,97,-102,-21,124,-48,63,29,4,-29,63
53,170,117,-112,-31,143,-39,73,29,14,-19,73
53,170,117,-112,-31,143,-34,82,29,14,-19,78
53,170,117,-112,-31,143,-34,82,39,14,-9,87
53,170,117,-112,-31,143,-39,97,39,24,-4,92
63,170,107,-117,-21,139,-39,97,48,29,-9,92
68,170,102,-119,-17,136,-43,97,48,34,-9,92
73,170,97,-122,-12,134,-48,97,48,34,-9,92
82,180,97,-131,-7,139,-48,102,63,43,4,102
82,180,97,-131,-7,139,-43,122,68,39,9,97
78,180,102,-129,-12,141,-43,126,73,43,14,102
82,185,102,-134,-9,143,-48,136,78,53,14,102
78,190,112,-134,-17,151,-48,141,82,58,19,112
87,185,97,-136,-4,141,-48,146,92,63,24,117
87,185,97,-136,-4,141,-48,161,97,68,29,117
92,195,102,-143,-4,148,-48,165,102,73,34,117
92,200,107,-146,-7,153,-48,170,112,82,43,122
97,200,102,-148,-2,151,-58,175,112,73,48,126
107,200,92,-153,7,146,-63,185,117,78,48,131
117,200,82,-158,17,141,-63,190,122,82,53,136
122,204,82,-163,19,143,-63,204,126,92,63,141
136,209,73,-173,31,141,-53,224,146,102,78,151
136,214,78,-175,29,146,-53,229,161,117,82,151
131,214,82,-173,24,148,-53,248,170,126,87,156
131,219,87,-175,21,153,-48,263,180,141,97,156
136,234,97,-185,19,165,-58,263,175,141,92,156
141,234,92,-187,24,163,-68,263,180,141,87,156
156,234,78,-195,39,156,-68,268,185,141,87,161
156,244,87,-200,34,165,-58,287,200,146,92,165
151,234,82,-192,34,158,-58,292,204,151,92,165
151,234,82,-192,34,158,-58,297,209,151,92,165
151,234,82,-192,34,158,-58,302,214,161,102,170
141,239,97,-190,21,168,-58,312,229,165,107,175
151,248,97,-200,26,173,-43,331,239,175,117,185
156,253,97,-204,29,175,-43,336,239,175,117,180
165,253,87,-209,39,170,-43,341,239,180,117,175
165,258,92,-212,36,175,-43,341,248,180,112,175
161,258,97,-209,31,178,-43,341,244,170,112,180
161,258,97,-209,31,178,-43,346,248,180,112,180
156,263,107,-209,24,185,-39,351,253,185,112,180
156,263,107,-209,24,185,-39,351,253,185,112,180
165,253,87,-209,39,170,-48,356,253,185,112,180
165,248,82,-207,41,165,-48,356,258,185,107,175
156,248,92,-202,31,170,-48,356,258,185,107,175
156,248,92,-202,31,170,-48,356,258,185,107,175
146,248,102,-197,21,175,-53,356,258,185,97,175
146,253,107,-200,19,180,-48,356,258,175,97,175
146,253,107,-200,19,180,-48,346,253,170,92,165
151,248,97,-200,26,173,-48,341,253,170,87,165
141,248,107,-195,17,178,-39,336,248,165,92,161
141,248,107,-195,17,178,-43,336,244,165,87,161
131,244,112,-187,9,178,-43,322,239,161,82,156
131,244,112,-187,9,178,-43,317,234,156,78,156
136,244,107,-190,14,175,-43,312,239,161,78,156
136,239,102,-187,17,170,-43,292,224,151,73,156
131,239,107,-185,12,173,-48,278,219,141,68,151
126,234,107,-180,9,170,-48,273,209,141,63,151
107,234,126,-170,-9,180,-43,244,190,126,53,146
102,239,136,-170,-17,187,-43,229,185,122,48,146
102,239,136,-170,-17,187,-43,209,170,112,43,136
112,224,112,-168,0,168,-43,200,165,107,39,131
97,204,107,-151,-4,156,-48,185,161,97,39,126
78,195,117,-136,-19,156,-48,170,151,92,34,126
68,195,126,-131,-29,161,-48,151,136,78,29,122
58,195,136,-126,-39,165,-48,141,131,68,24,122
68,200,131,-134,-31,165,-48,122,112,68,29,122
63,195,131,-129,-34,163,-48,102,92,63,24,112
58,190,131,-124,-36,161,-48,82,82,53,9,102
48,185,136,-117,-43,161,-43,68,68,53,0,97
48,185,136,-117,-43,161,-29,68,63,43,-4,102
43,185,141,-114,-48,163,-29,53,58,43,-4,102
43,175,131,-109,-43,153,-29,53,48,34,-9,97
39,175,136,-107,-48,156,-29,43,39,24,-14,87
39,175,136,-107,-48,156,-39,29,29,14,-39,73
34,165,131,-100,-48,148,-34,14,14,4,-39,68
29,151,122,-90,-46,136,-34,9,9,-9,-43,63
19,146,126,-82,-53,136,-34,-4,4,-24,-48,58
-4,131,136,-63,-70,134,-24,-9,0,-19,-48,63
-9,122,131,-56,-70,126,-24,-4,0,-19,-53,58
-14,122,136,-53,-75,129,-19,-4,4,-24,-58,58
-14,122,136,-53,-75,129,-19,-4,4,-29,-58,48
-4,107,112,-51,-58,109,-19,-19,-14,-34,-63,34
-4,102,107,-48,-56,104,-19,-24,-14,-43,-73,29
-14,97,112,-41,-63,104,-19,-29,-24,-58,-78,24
-14,87,102,-36,-58,95,-19,-29,-34,-58,-82,19
-24,87,112,-31,-68,100,-9,-34,-34,-58,-73,24
-24,97,122,-36,-73,109,-9,-34,-34,-58,-73,29
-29,87,117,-29,-73,102,-14,-34,-34,-58,-82,34
-39,87,126,-24,-82,107,-14,-39,-34,-63,-82,39
-34,107,141,-36,-87,124,-24,-29,-24,-68,-87,19
-19,112,131,-46,-75,122,-24,-29,-29,-73,-92,14
-9,97,107,-43,-58,102,-19,-34,-34,-73,-92,14
-4,102,107,-48,-56,104,-19,-34,-39,-78,-92,9
0,97,97,-48,-48,97,-19,-34,-48,-78,-92,9
0,97,97,-48,-48,97,-19,-34,-53,-78,-97,9
-9,97,107,-43,-58,102,-19,-34,-53,-82,-97,9
-9,92,102,-41,-56,97,-19,-34,-53,-82,-102,9
-4,87,92,-41,-48,90,-29,-34,-48,-82,-112,-4
-4,82,87,-39,-46,85,-24,-34,-48,-82,-112,-4
-4,78,82,-36,-43,80,-19,-34,-48,-78,-112,-4
-14,73,87,-29,-51,80,-19,-29,-48,-78,-107,0
-9,82,92,-36,-51,87,-24,-19,-43,-68,-102,4
-14,82,97,-34,-56,90,-19,-19,-39,-68,-97,4
-24,82,107,-29,-65,95,-14,-14,-34,-68,-97,9
-29,82,112,-26,-70,97,-4,-14,-29,-73,-97,14
-29,73,102,-21,-65,87,-14,-24,-39,-82,-107,4
-29,82,112,-26,-70,97,-14,-24,-39,-82,-102,4
-29,82,112,-26,-70,97,-14,-24,-39,-78,-102,4
-29,82,112,-26,-70,97,-14,-24,-39,-78,-97,4
-9,92,102,-41,-56,97,-14,-19,-39,-73,-97,19
-9,92,102,-41,-56,97,-14,-19,-39,-68,-97,24
-14,92,107,-39,-61,100,-14,-19,-34,-63,-97,24
-14,97,112,-41,-63,104,-14,-19,-34,-58,-92,24
-4,97,102,-46,-53,100,-14,-19,-34,-63,-92,14
-4,92,97,-43,-51,95,-14,-19,-34,-63,-92,9
-4,92,97,-43,-51,95,-14,-19,-34,-63,-92,9
-4,92,97,-43,-51,95,-14,-19,-34,-63,-92,14
4,92,87,-48,-41,90,-4,-19,-24,-58,-92,14
-9,92,102,-41,-56,97,-4,-14,-24,-58,-87,14
-9,97,107,-43,-58,102,-4,-14,-24,-58,-82,19
-9,97,107,-43,-58,102,-4,-14,-24,-53,-82,19
0,107,107,-53,-53,107,-4,-14,-24,-53,-82,29
0,112,112,-56,-56,112,-9,-14,-24,-53,-82,29
0,117,117,-58,-58,117,-9,-14,-19,-48,-82,34
0,117,117,-58,-58,117,-4,-14,-19,-43,-78,34
-4,107,112,-51,-58,109,-4,-14,-19,-53,-68,43
-4,107,112,-51,-58,109,-9,-14,-19,-53,-68,43
-9,107,117,-48,-63,112,-9,-14,-19,-48,-68,43
-9,107,117,-48,-63,112,-9,-14,-19,-48,-63,43
-14,107,122,-46,-68,114,-9,-14,-14,-43,-73,43
-14,102,117,-43,-65,109,-9,-14,-14,-43,-73,43
-19,102,122,-41,-70,112,-9,-14,-14,-43,-68,39
-19,102,122,-41,-70,112,-9,-14,-14,-43,-68,34
-14,102,117,-43,-65,109,-9,-14,-14,-43,-58,43
-14,107,122,-46,-68,114,-9,-14,-14,-39,-58,48
-9,107,117,-48,-63,112,-9,-19,-9,-39,-58,53
-9,107,117,-48,-63,112,-9,-19,-9,-34,-58,53
4,117,112,-61,-53,114,-19,-29,-14,-43,-68,43
9,122,112,-65,-51,117,-19,-29,-14,-48,-63,43
14,122,107,-68,-46,114,-19,-29,-14,-48,-58,43
9,122,112,-65,-51,117,-19,-29,-9,-48,-58,48
4,112,107,-58,-51,109,-9,-24,-9,-34,-48,58
4,112,107,-58,-51,109,-14,-29,-9,-34,-48,58
0,107,107,-53,-53,107,-14,-24,-9,-39,-53,58
0,107,107,-53,-53,107,-14,-19,-9,-39,-53,58
-9,117,126,-53,-68,122,-14,-24,-29,-48,-68,43
-9,117,126,-53,-68,122,-24,-34,-29,-53,-68,43
-14,117,131,-51,-73,124,-24,-39,-29,-53,-63,43
-19,117,136,-48,-78,126,-14,-39,-29,-53,-63,39
-24,107,131,-41,-78,119,-14,-39,-29,-48,-63,39
-9,107,117,-48,-63,112,-14,-39,-29,-48,-63,39
0,107,107,-53,-53,107,-14,-48,-29,-53,-63,39
4,107,102,-56,-48,104,-14,-48,-29,-53,-63,39
-4,97,102,-46,-53,100,-19,-48,-24,-43,-53,39
-9,97,107,-43,-58,102,-19,-43,-29,-48,-53,39
-9,97,107,-43,-58,102,-19,-39,-29,-48,-53,39
-9,97,107,-43,-58,102,-19,-34,-29,-48,-53,39
4,107,102,-56,-48,104,-19,-43,-29,-48,-63,48
4,107,102,-56,-48,104,-19,-43,-29,-48,-63,43
-9,107,117,-48,-63,112,-14,-43,-29,-48,-63,43
-24,107,131,-41,-78,119,-14,-43,-29,-48,-63,43
-4,107,112,-51,-58,109,-4,-39,-24,-39,-58,39
4,107,102,-56,-48,104,-14,-39,-24,-48,-63,39
4,107,102,-56,-48,104,-4,-34,-24,-48,-63,43
-4,107,112,-51,-58,109,-4,-34,-24,-48,-68,43
-9,92,102,-41,-56,97,-4,-34,-29,-48,-63,43
-14,92,107,-39,-61,100,-4,-34,-29,-53,-63,43
-19,92,112,-36,-65,102,-4,-39,-34,-53,-63,43
-19,82,102,-31,-61,92,-9,-39,-34,-53,-63,39
-19,92,112,-36,-65,102,-9,-39,-43,-53,-73,43
-24,92,117,-34,-70,104,-9,-43,-43,-48,-73,43
-24,87,112,-31,-68,100,-9,-48,-43,-48,-73,43
-24,87,112,-31,-68,100,-9,-53,-43,-58,-73,43
-19,92,112,-36,-65,102,-14,-43,-48,-58,-78,29
-14,92,107,-39,-61,100,-14,-53,-48,-68,-82,24
-9,87,97,-39,-53,92,-14,-53,-48,-68,-82,24
-14,82,97,-34,-56,90,-19,-53,-53,-68,-82,29
-29,82,112,-26,-70,97,-9,-53,-43,-68,-82,24
-29,87,117,-29,-73,102,-9,-53,-43,-68,-82,29
-34,87,122,-26,-78,104,-9,-53,-43,-68,-82,29
-43,87,131,-21,-87,109,-9,-58,-43,-73,-82,19
-34,68,102,-17,-68,85,-9,-68,-43,-82,-78,29
-29,78,107,-24,-68,92,-9,-68,-48,-82,-78,24
-29,78,107,-24,-68,92,-9,-68,-48,-82,-87,24
-9,78,87,-34,-48,82,-9,-68,-48,-82,-87,24
-29,87,117,-29,-73,102,-9,-68,-48,-78,-78,34
-43,82,126,-19,-85,104,-4,-68,-48,-78,-78,34
-43,82,126,-19,-85,104,-4,-68,-48,-78,-78,34
-34,82,117,-24,-75,100,-4,-68,-43,-78,-78,34
-34,82,117,-24,-75,100,-14,-68,-53,-78,-73,34
-43,73,117,-14,-80,95,-14,-68,-53,-78,-73,34
-34,68,102,-17,-68,85,-14,-68,-58,-78,-73,34
-34,68,102,-17,-68,85,-14,-68,-58,-78,-73,34
-39,78,117,-19,-78,97,-9,-63,-48,-73,-63,29
-43,82,126,-19,-85,104,-4,-63,-48,-73,-63,29
-39,82,122,-21,-80,102,0,-58,-48,-73,-63,29
-58,82,141,-12,-100,112,4,-58,-58,-73,-68,29
-43,73,117,-14,-80,95,-4,-73,-58,-82,-78,19
-39,73,112,-17,-75,92,-4,-73,-53,-82,-82,19
-34,68,102,-17,-68,85,-4,-73,-53,-82,-82,19
-34,63,97,-14,-65,80,-4,-73,-53,-87,-87,19
-48,53,102,-2,-75,78,4,-73,-58,-87,-92,4
-53,53,107,0,-80,80,4,-73,-58,-87,-92,4
-58,53,112,2,-85,82,4,-73,-58,-87,-92,4
-58,53,112,2,-85,82,4,-78,-58,-87,-92,4
-43,68,112,-12,-78,90,-4,-68,-48,-82,-82,14
-34,68,102,-17,-68,85,-4,-68,-48,-82,-82,14
-48,68,117,-9,-82,92,-4,-68,-48,-78,-78,14
-58,68,126,-4,-92,97,-4,-63,-43,-78,-78,19
-58,53,112,2,-85,82,4,-73,-53,-87,-87,19
-53,53,107,0,-80,80,4,-73,-53,-92,-87,14
-48,53,102,-2,-75,78,4,-73,-63,-92,-92,14
-48,53,102,-2,-75,78,4,-73,-68,-97,-102,9
-34,43,78,-4,-56,61,0,-73,-68,-107,-92,-4
-34,48,82,-7,-58,65,0,-73,-63,-102,-87,-4
-34,48,82,-7,-58,65,0,-73,-63,-97,-87,-4
-34,43,78,-4,-56,61,0,-73,-68,-97,-82,-4
-34,39,73,-2,-53,56,0,-73,-68,-87,-82,-4
-43,39,82,2,-63,61,0,-73,-68,-92,-82,-4
-43,39,82,2,-63,61,14,-73,-68,-92,-87,4
-43,43,87,0,-65,65,14,-73,-63,-92,-87,4
-29,58,87,-14,-58,73,0,-73,-63,-87,-87,-4
-24,63,87,-19,-56,75,-4,-78,-63,-87,-87,-4
-24,68,92,-21,-58,80,-9,-78,-73,-87,-87,-4
-24,63,87,-19,-56,75,-14,-73,-73,-82,-87,-4
-24,63,87,-19,-56,75,-9,-73,-63,-82,-78,4
-29,68,97,-19,-63,82,-4,-78,-63,-87,-78,4
-29,68,97,-19,-63,82,0,-78,-63,-87,-78,4
-24,68,92,-21,-58,80,4,-78,-63,-87,-78,9
-34,53,87,-9,-61,70,-4,-68,-63,-87,-73,19
-39,48,87,-4,-63,68,-4,-68,-63,-87,-73,14
-39,43,82,-2,-61,63,-4,-68,-63,-87,-73,14
-34,39,73,-2,-53,56,-4,-73,-68,-92,-73,14
-34,48,82,-7,-58,65,-4,-82,-73,-82,-73,4
-58,48,107,4,-82,78,-4,-82,-73,-82,-73,4
-58,48,107,4,-82,78,-4,-82,-58,-78,-73,4
-53,48,102,2,-78,75,0,-82,-58,-78,-73,9
-29,58,87,-14,-58,73,9,-73,-48,-78,-73,19
-29,58,87,-14,-58,73,9,-68,-53,-87,-73,14
-39,58,97,-9,-68,78,9,-63,-53,-78,-73,14
-39,58,97,-9,-68,78,9,-58,-53,-78,-68,14
-48,58,107,-4,-78,82,9,-68,-53,-87,-68,4
-48,58,107,-4,-78,82,9,-68,-53,-87,-68,4
-48,58,107,-4,-78,82,9,-68,-53,-82,-68,4
-48,58,107,-4,-78,82,9,-73,-58,-82,-68,4
-43,63,107,-9,-75,85,-4,-78,-68,-97,-78,4
-29,63,92,-17,-61,78,-4,-78,-63,-97,-82,4
-24,58,82,-17,-53,70,-4,-73,-63,-97,-82,4
-19,58,78,-19,-48,68,-4,-73,-63,-97,-78,4
-29,73,102,-21,-65,87,4,-73,-48,-82,-73,19
-39,73,112,-17,-75,92,4,-68,-43,-78,-68,24
-43,73,117,-14,-80,95,4,-68,-43,-73,-63,24
-43,73,117,-14,-80,95,9,-63,-43,-63,-48,19
-29,82,112,-26,-70,97,19,-58,-34,-63,-39,14
-19,87,107,-34,-63,97,19,-53,-34,-63,-39,14
0,102,102,-51,-51,102,19,-48,-29,-53,-34,19
9,117,107,-63,-48,112,19,-39,-19,-48,-29,19
4,117,112,-61,-53,114,34,-19,-4,-34,-19,24
0,117,117,-58,-58,117,34,-14,-4,-29,-19,34
0,112,112,-56,-56,112,39,-14,-4,-29,-14,48
-9,107,117,-48,-63,112,39,-14,4,-29,-14,53
0,102,102,-51,-51,102,48,4,19,-14,-4,53
9,126,117,-68,-53,122,53,9,34,-14,0,53
-14,117,131,-51,-73,124,53,9,24,-14,4,48
0,122,122,-61,-61,122,53,9,29,-9,9,58
29,146,117,-87,-43,131,58,19,39,9,9,68
39,141,102,-90,-31,122,48,9,39,9,19,73
39,136,97,-87,-29,117,39,9,39,9,19,78
39,131,92,-85,-26,112,29,9,39,9,19,82
39,126,87,-82,-24,107,19,9,39,9,19,87
39,126,87,-82,-24,107,0,-9,39,0,29,82
48,136,87,-92,-19,112,-14,-9,39,9,34,92
53,141,87,-97,-17,114,-24,-9,43,9,39,97
53,161,107,-107,-26,134,-39,-9,48,9,43,102
73,151,78,-112,-2,114,-48,-24,39,14,34,92
73,136,63,-104,4,100,-58,-29,29,14,34,92
73,136,63,-104,4,100,-58,-29,19,9,34,92
82,131,48,-107,17,90,-53,-29,19,9,34,92
78,117,39,-97,19,78,-58,-29,19,9,34,82
78,112,34,-95,21,73,-58,-29,14,0,24,68
78,112,34,-95,21,73,-58,-34,0,-9,19,63
73,107,34,-90,19,70,-48,-39,0,-19,14,58
58,107,48,-82,4,78,-24,-39,-4,-9,19,68
53,107,53,-80,0,80,-24,-34,-9,-14,19,68
39,87,48,-63,-4,68,-19,-34,-9,-19,14,63
39,87,48,-63,-4,68,-19,-43,-14,-24,0,58
43,73,29,-58,7,51,-19,-39,-19,-39,-4,53
39,53,14,-46,12,34,-19,-53,-29,-43,-14,43
19,43,24,-31,-2,34,-19,-63,-39,-53,-24,34
0,34,34,-17,-17,34,-19,-68,-48,-68,-29,29
9,19,9,-14,0,14,-29,-78,-63,-82,-39,14
4,19,14,-12,-4,17,-29,-78,-63,-82,-43,9
-9,14,24,-2,-17,19,-19,-73,-63,-82,-43,4
-34,14,48,9,-41,31,-9,-73,-63,-82,-43,4
-24,14,39,4,-31,26,-4,-73,-63,-82,-48,0
-24,9,34,7,-29,21,0,-73,-63,-82,-53,-4
-24,9,34,7,-29,21,0,-73,-73,-87,-53,-4
-29,0,29,14,-29,14,0,-82,-78,-92,-58,-4
-48,4,53,21,-51,29,0,-73,-82,-87,-58,4
-48,4,53,21,-51,29,0,-78,-82,-92,-58,0
-53,-4,48,29,-51,21,0,-82,-87,-102,-58,-9
-63,-9,53,36,-58,21,0,-92,-97,-102,-63,-19
-78,-19,58,48,-68,19,9,-92,-97,-102,-73,-29
-82,-24,58,53,-70,17,9,-92,-92,-102,-73,-29
-78,-29,48,53,-63,9,9,-92,-92,-102,-73,-29
-92,-39,53,65,-73,7,9,-92,-92,-102,-73,-29
-92,-29,63,61,-78,17,4,-87,-102,-107,-82,-39
-92,-24,68,58,-80,21,4,-92,-107,-117,-82,-39
-92,-24,68,58,-80,21,4,-107,-112,-126,-87,-43
-92,-24,68,58,-80,21,4,-112,-112,-136,-87,-43
-82,-39,43,61,-63,2,4,-112,-112,-136,-97,-53
-82,-39,43,61,-63,2,4,-112,-112,-126,-97,-53
-78,-39,39,58,-58,0,4,-112,-112,-126,-92,-53
-78,-43,34,61,-56,-4,4,-112,-112,-126,-92,-48
-92,-34,58,63,-75,12,19,-102,-97,-122,-87,-39
-92,-34,58,63,-75,12,19,-97,-97,-122,-82,-39
-92,-34,58,63,-75,12,24,-97,-97,-122,-78,-39
-102,-34,68,68,-85,17,24,-97,-97,-122,-78,-39
-122,-39,82,80,-102,21,24,-97,-82,-112,-78,-39
-122,-39,82,80,-102,21,24,-97,-82,-117,-82,-43
-107,-34,73,70,-90,19,24,-97,-82,-117,-82,-43
-107,-34,73,70,-90,19,24,-97,-82,-112,-82,-43
-117,-53,63,85,-90,4,24,-97,-92,-112,-82,-43
-122,-53,68,87,-95,7,24,-97,-92,-112,-78,-43
-122,-48,73,85,-97,12,29,-97,-92,-112,-73,-43
-122,-48,73,85,-97,12,29,-97,-92,-112,-73,-39
-122,-43,78,82,-100,17,19,-102,-102,-112,-73,-29
-112,-43,68,78,-90,12,19,-102,-102,-112,-73,-29
-102,-39,63,70,-82,12,19,-102,-102,-112,-73,-29
-102,-39,63,70,-82,12,19,-102,-102,-112,-73,-29
-92,-34,58,63,-75,12,19,-97,-87,-107,-58,-19
-92,-29,63,61,-78,17,19,-97,-87,-107,-58,-19
-92,-24,68,58,-80,21,19,-92,-87,-107,-58,-19
-92,-19,73,56,-82,26,19,-92,-87,-107,-58,-19
-97,-34,63,65,-80,14,9,-102,-97,-117,-63,-24
-112,-43,68,78,-90,12,9,-107,-97,-117,-68,-29
-122,-48,73,85,-97,12,9,-112,-97,-117,-73,-34
-126,-53,73,90,-100,9,9,-117,-97,-117,-78,-34
-82,-29,53,56,-68,12,19,-97,-92,-107,-58,-24
-58,-19,39,39,-48,9,29,-87,-82,-92,-43,-9
-92,-14,78,53,-85,31,39,-97,-68,-82,-29,0
-102,-4,97,53,-100,46,29,-97,-58,-78,-24,9
-92,9,102,41,-97,56,29,-92,-53,-58,0,34
-112,29,141,41,-126,85,39,-73,-24,-24,34,68
-122,29,151,46,-136,90,43,-48,0,14,63,92
-97,24,122,36,-109,73,43,-29,9,19,78,107
-63,14,78,24,-70,46,34,-9,4,19,97,117
-53,4,58,24,-56,31,39,19,24,48,131,151
-9,-9,0,9,-4,-4,24,39,24,48,151,165
68,-24,-92,-21,80,-58,-4,29,-9,24,146,170
126,-53,-180,-36,153,-117,-24,34,-43,4,151,180
161,-97,-258,-31,209,-178,-53,39,-58,4,161,204
258,-97,-356,-80,307,-226,-92,48,-63,19,195,239
370,-82,-453,-143,412,-268,-141,92,-39,63,258,297
439,-68,-507,-185,473,-287,-170,165,-9,112,341,370
488,-63,-551,-212,519,-307,-185,229,29,170,414,419
561,-58,-619,-251,590,-339,-214,258,53,200,463,463
614,-43,-658,-285,636,-351,-244,239,78,239,502,483
624,-24,-649,-300,636,-336,-234,229,107,283,512,488
600,-24,-624,-287,612,-324,-195,234,131,278,468,414
556,-107,-663,-224,610,-385,-156,234,141,219,307,229
507,-239,-746,-134,627,-492,-107,219,112,112,112,-14
458,-322,-780,-68,619,-551,-73,175,78,24,-29,-190
385,-331,-717,-26,551,-524,-53,92,48,-14,-92,-268
278,-322,-600,21,439,-461,-34,-58,-19,-73,-161,-331
156,-322,-478,82,317,-400,-4,-229,-131,-175,-258,-390
4,-322,-326,158,165,-324,39,-409,-273,-302,-356,-429
-146,-322,-175,234,14,-248,82,-551,-424,-400,-424,-453
-248,-292,-43,270,-102,-168,131,-619,-531,-468,-468,-458
-322,-258,63,290,-192,-97,180,-610,-575,-502,-478,-448
-385,-258,126,322,-256,-65,214,-556,-585,-531,-483,-448
-444,-278,165,361,-305,-56,219,-517,-624,-570,-497,-448
-453,-292,161,373,-307,-65,244,-478,-644,-614,-531,-458
-444,-312,131,378,-287,-90,244,-434,-634,-624,-561,-458
-419,-312,107,366,-263,-102,224,-395,-605,-595,-527,-429
-424,-317,107,370,-265,-104,209,-356,-561,-561,-473,-385
-380,-312,68,346,-224,-122,200,-292,-512,-517,-444,-361
-278,-273,4,275,-141,-134,151,-234,-448,-463,-400,-322
-195,-234,-39,214,-78,-136,112,-170,-370,-366,-322,-268
-180,-195,-14,187,-82,-104,112,-78,-283,-297,-253,-219
-165,-156,9,161,-87,-73,92,0,-214,-253,-200,-180
-146,-141,4,143,-75,-68,73,68,-165,-204,-161,-146
-136,-122,14,129,-75,-53,87,131,-112,-151,-122,-112
-136,-87,48,112,-92,-19,107,161,-68,-122,-87,-82
-131,-63,68,97,-100,2,97,151,-58,-112,-78,-68
-107,-63,43,85,-75,-9,92,126,-58,-97,-73,-58
-63,-58,4,61,-34,-26,78,102,-48,-87,-63,-58
-53,-48,4,51,-29,-21,73,78,-43,-78,-48,-43
-97,-29,68,63,-82,19,68,58,-34,-68,-43,-29
-112,-14,97,63,-104,41,78,24,-34,-73,-24,-24
-82,4,87,39,-85,46,78,-4,-39,-68,-19,-19
-82,14,97,34,-90,56,68,0,-19,-53,-4,-4
-82,14,97,34,-90,56,63,19,-19,-48,-4,0
-73,19,92,26,-82,56,63,24,-14,-43,4,9
-78,19,97,29,-87,58,58,24,-14,-39,9,14
-53,24,78,14,-65,51,34,14,-24,-48,9,4
-48,24,73,12,-61,48,29,4,-19,-43,9,4
-43,19,63,12,-53,41,29,0,-19,-43,4,9
-43,9,53,17,-48,31,29,-4,-19,-43,4,9
-53,9,63,21,-58,36,39,0,-9,-39,14,24
-63,9,73,26,-68,41,39,0,-9,-39,14,24
-73,9,82,31,-78,46,39,0,-9,-39,14,24
-78,9,87,34,-82,48,34,0,-9,-39,14,24
-63,9,73,26,-68,41,24,9,-9,-43,14,14
-58,9,68,24,-63,39,19,4,-9,-39,9,19
-53,9,63,21,-58,36,19,4,-9,-39,9,19
-43,19,63,12,-53,41,19,4,-4,-39,4,24
-48,29,78,9,-63,53,19,4,-4,-29,19,24
-53,29,82,12,-68,56,19,4,-4,-24,19,24
-58,29,87,14,-73,58,19,4,0,-24,19,24
-63,19,82,21,-73,51,14,4,0,-19,19,24
-53,19,73,17,-63,46,14,4,0,-29,9,24
-53,24,78,14,-65,51,14,4,0,-29,14,29
-43,24,68,9,-56,46,14,4,0,-29,14,29
-39,24,63,7,-51,43,9,4,0,-29,14,34
-39,19,58,9,-48,39,9,9,9,-14,29,43
-43,24,68,9,-56,46,9,14,9,-9,34,43
-43,24,68,9,-56,46,9,14,9,-9,34,43
-39,24,63,7,-51,43,4,19,14,-9,34,48
-29,34,63,-2,-46,48,0,9,14,-4,39,53
-19,34,53,-7,-36,43,0,9,14,0,39,53
-19,39,58,-9,-39,48,0,4,14,0,43,53
-29,43,73,-7,-51,58,0,4,19,0,43,58
-39,34,73,2,-56,53,-4,4,19,4,39,53
-34,34,68,0,-51,51,-9,9,19,4,39,48
-34,34,68,0,-51,51,-14,19,29,14,43,48
-34,34,68,0,-51,51,-19,29,34,14,48,53
-29,34,63,-2,-46,48,-14,29,24,4,48,53
-19,34,53,-7,-36,43,-14,24,24,4,43,48
-4,39,43,-17,-24,41,-14,24,24,4,43,48
0,39,39,-19,-19,39,-19,29,24,4,48,43
-14,29,43,-7,-29,36,-19,29,24,14,39,43
-19,29,48,-4,-34,39,-19,29,29,14,43,48
-14,29,43,-7,-29,36,-24,34,39,14,48,48
-19,29,48,-4,-34,39,-24,39,39,14,48,48
-14,39,53,-12,-34,46,-29,39,39,19,58,58
-9,43,53,-17,-31,48,-29,43,43,29,58,68
4,43,39,-24,-17,41,-29,48,43,34,63,68
9,43,34,-26,-12,39,-34,53,43,39,68,68
0,53,53,-26,-26,53,-34,63,58,48,78,73
4,63,58,-34,-26,61,-34,73,68,53,78,82
19,63,43,-41,-12,53,-39,73,73,58,87,87
24,73,48,-48,-12,61,-48,73,78,63,87,92
19,73,53,-46,-17,63,-39,73,78,63,87,97
14,73,58,-43,-21,65,-34,82,78,63,87,97
9,73,63,-41,-26,68,-34,82,87,63,97,102
4,73,68,-39,-31,70,-39,97,87,73,102,102
19,73,53,-46,-17,63,-39,97,87,78,107,102
29,73,43,-51,-7,58,-43,97,87,82,107,102
39,73,34,-56,2,53,-48,97,87,82,107,102
53,82,29,-68,12,56,-48,102,102,92,122,112
48,82,34,-65,7,58,-43,122,107,97,126,117
48,82,34,-65,7,58,-43,126,112,102,131,122
58,87,29,-73,14,58,-48,136,117,112,131,122
58,92,34,-75,12,63,-48,141,122,117,136,131
68,97,29,-82,19,63,-48,136,131,112,131,126
68,97,29,-82,19,63,-48,151,136,117,136,126
73,107,34,-90,19,70,-48,156,141,122,141,126
73,112,39,-92,17,75,-48,161,151,131,151,131
78,112,34,-95,21,73,-58,165,151,131,156,136
87,112,24,-100,31,68,-63,175,156,136,156,141
97,112,14,-104,41,63,-63,180,161,141,161,146
102,117,14,-109,43,65,-63,195,165,151,170,151
107,131,24,-119,41,78,-63,200,175,156,175,161
107,136,29,-122,39,82,-63,200,190,165,180,161
102,136,34,-119,34,85,-63,214,200,170,185,165
102,141,39,-122,31,90,-58,224,209,180,195,165
97,146,48,-122,24,97,-58,234,214,185,195,175
102,146,43,-124,29,95,-68,234,219,190,195,175
117,146,29,-131,43,87,-68,239,224,195,200,180
117,156,39,-136,39,97,-58,258,239,204,209,185
117,156,39,-136,39,97,-58,263,234,209,200,175
122,156,34,-139,43,95,-58,268,239,209,200,175
126,156,29,-141,48,92,-58,273,244,219,209,180
122,161,39,-141,41,100,-58,283,258,224,214,185
117,161,43,-139,36,102,-53,283,268,224,214,195
117,165,48,-141,34,107,-53,287,268,224,214,190
122,165,43,-143,39,104,-53,292,268,229,214,185
117,170,53,-143,31,112,-53,292,278,229,209,185
112,170,58,-141,26,114,-63,302,273,219,209,190
112,170,58,-141,26,114,-63,307,278,229,209,190
107,175,68,-141,19,122,-58,312,283,234,209,190
107,175,68,-141,19,122,-58,312,283,234,209,190
112,185,73,-148,19,129,-58,317,292,234,209,180
117,180,63,-148,26,122,-58,317,297,234,204,175
112,180,68,-146,21,124,-58,317,297,234,204,175
117,180,63,-148,26,122,-58,317,297,234,204,175
126,170,43,-148,41,107,-53,326,307,234,204,185
126,175,48,-151,39,112,-48,326,307,224,204,185
126,175,48,-151,39,112,-48,317,302,219,200,175
131,170,39,-151,46,104,-48,312,302,219,195,175
126,180,53,-153,36,117,-48,307,287,214,190,170
122,180,58,-151,31,119,-53,307,283,214,185,170
107,175,68,-141,19,122,-53,292,278,209,180,165
102,175,73,-139,14,124,-53,287,273,204,175,165
97,175,78,-136,9,126,-53,273,268,200,175,156
97,170,73,-134,12,122,-53,253,253,190,170,156
92,170,78,-131,7,124,-58,239,248,180,165,151
87,165,78,-126,4,122,-58,234,239,180,161,151
78,156,78,-117,0,117,-63,214,219,165,161,156
73,161,87,-117,-7,124,-63,200,214,161,156,156
73,161,87,-117,-7,124,-63,180,200,151,151,146
82,146,63,-114,9,104,-63,170,195,146,146,141
82,146,63,-114,9,104,-63,156,190,146,146,136
68,136,68,-102,0,102,-58,141,180,141,141,136
63,136,73,-100,-4,104,-53,122,165,126,136,131
58,136,78,-97,-9,107,-48,112,161,117,131,131
53,117,63,-85,-4,90,-39,112,165,117,136,122
43,107,63,-75,-9,85,-39,102,151,112,131,112
34,97,63,-65,-14,80,-39,92,146,102,117,102
19,87,68,-53,-24,78,-34,87,136,102,107,97
9,68,58,-39,-24,63,-39,78,126,92,92,82
4,68,63,-36,-29,65,-39,63,117,92,92,82
4,58,53,-31,-24,56,-39,63,102,82,87,78
0,58,58,-29,-29,58,-39,53,87,73,82,68
4,68,63,-36,-29,65,-39,34,78,58,58,73
4,58,53,-31,-24,56,-34,24,63,53,58,68
4,43,39,-24,-17,41,-34,24,58,43,53,63
0,39,39,-19,-19,39,-34,14,53,34,48,58
-14,43,58,-14,-36,51,-34,4,34,39,39,53
-19,34,53,-7,-36,43,-34,4,29,39,34,48
-24,34,58,-4,-41,46,-29,0,29,34,29,48
-24,34,58,-4,-41,46,-29,-4,24,29,29,39
-34,29,63,2,-48,46,-29,-9,24,24,24,34
-34,24,58,4,-46,41,-29,-14,24,14,14,29
-43,19,63,12,-53,41,-29,-19,14,0,9,24
-43,9,53,17,-48,31,-29,-19,4,0,4,19
-29,19,48,4,-39,34,-19,-14,4,0,4,9
-24,29,53,-2,-39,41,-19,-14,4,0,4,9
-24,19,43,2,-34,31,-24,-14,4,0,-4,9
-29,19,48,4,-39,34,-24,-19,4,-4,-4,9
-34,19,53,7,-43,36,-24,-9,4,-9,-9,9
-29,14,43,7,-36,29,-24,-9,0,-14,-14,4
-29,-9,19,19,-24,4,-19,-14,-4,-14,-14,4
-34,-14,19,24,-26,2,-19,-14,-9,-19,-14,0
-39,0,39,19,-39,19,-19,-14,-9,-19,-14,-9
-39,0,39,19,-39,19,-19,-14,-14,-19,-19,-9
-48,0,48,24,-48,24,-19,-14,-14,-24,-19,-9
-48,-4,43,26,-46,19,-19,-14,-14,-24,-24,-9
-34,-4,29,19,-31,12,-29,-24,-9,-24,-24,-14
-34,-4,29,19,-31,12,-24,-24,-9,-24,-24,-14
-34,-4,29,19,-31,12,-19,-24,-9,-19,-24,-14
-43,-4,39,24,-41,17,-19,-19,-9,-19,-19,-9
-39,-19,19,29,-29,0,-19,-9,0,-9,-19,-9
-43,-24,19,34,-31,-2,-19,-9,0,-9,-19,-14
-53,-29,24,41,-39,-2,-19,-4,0,-9,-24,-14
-58,-34,24,46,-41,-4,-14,-4,0,-14,-29,-14
-43,-39,4,41,-24,-17,-14,-4,0,-14,-19,-4
-39,-24,14,31,-26,-4,-14,-4,0,-14,-14,-4
-34,-19,14,26,-24,-2,-14,-4,0,-9,-14,-4
-29,-14,14,21,-21,0,-14,-4,0,-9,-9,-4
-29,-14,14,21,-21,0,-14,0,0,-9,-9,-9
-39,-14,24,26,-31,4,-14,0,0,-9,-9,-4
-53,-14,39,34,-46,12,-14,0,4,-9,-9,-4
-63,-9,53,36,-58,21,-14,0,4,-9,-4,-4
-39,-9,29,24,-34,9,-19,-4,-4,-14,-14,-4
-34,-14,19,24,-26,2,-24,-9,-4,-14,-14,-9
-29,-14,14,21,-21,0,-29,-14,-4,-14,-14,-9
-24,-14,9,19,-17,-2,-34,-19,-4,-14,-14,-4
-4,4,9,0,-7,7,-29,-9,4,0,-14,4
-19,4,24,7,-21,14,-24,-4,4,0,-9,4
-19,9,29,4,-24,19,-19,-4,4,0,-4,9
-19,9,29,4,-24,19,-14,-4,4,4,-4,9
-29,0,29,14,-29,14,-24,-4,4,4,-14,0
-29,4,34,12,-31,19,-29,-4,4,4,-14,0
-29,9,39,9,-34,24,-29,-4,9,9,-14,4
-29,9,39,9,-34,24,-24,-4,9,14,-9,4
-34,9,43,12,-39,26,-24,-4,19,14,-9,4
-34,9,43,12,-39,26,-29,-4,19,14,-9,4
-39,9,48,14,-43,29,-29,-4,19,19,-9,4
-39,9,48,14,-43,29,-29,-4,19,19,-4,4
-29,19,48,4,-39,34,-39,-4,14,14,-4,0
-24,14,39,4,-31,26,-39,-4,14,14,-4,4
-24,14,39,4,-31,26,-39,-4,14,14,0,4
-19,14,34,2,-26,24,-39,-4,14,14,0,4
-24,19,43,2,-34,31,-29,-4,4,4,0,4
-24,29,53,-2,-39,41,-29,-4,4,9,0,9
-19,34,53,-7,-36,43,-29,-9,9,9,0,14
-19,39,58,-9,-39,48,-29,-9,9,14,0,14
-19,29,48,-4,-34,39,-39,-14,4,14,0,14
-19,34,53,-7,-36,43,-39,-19,4,9,4,14
-19,34,53,-7,-36,43,-39,-24,4,9,9,14
-29,34,63,-2,-46,48,-39,-29,9,9,9,19
-39,24,63,7,-51,43,-34,-24,14,24,9,19
-34,24,58,4,-46,41,-34,-29,19,24,9,19
-34,19,53,7,-43,36,-29,-24,24,19,4,19
-29,19,48,4,-39,34,-24,-19,29,19,4,19
-24,14,39,4,-31,26,-24,-19,19,19,0,14
-19,9,29,4,-24,19,-34,-24,19,14,0,14
-19,4,24,7,-21,14,-34,-24,19,14,4,14
-19,0,19,9,-19,9,-24,-19,19,14,4,9
-29,9,39,9,-34,24,-34,-19,19,19,4,9
-19,9,29,4,-24,19,-34,-19,19,19,4,9
-14,9,24,2,-19,17,-34,-29,19,14,4,9
-14,9,24,2,-19,17,-34,-29,19,14,4,9
-14,19,34,-2,-24,26,-48,-43,4,4,-4,9
-19,19,39,0,-29,29,-48,-43,0,0,-4,9
-19,19,39,0,-29,29,-48,-43,0,0,-4,9
-19,19,39,0,-29,29,-48,-43,0,0,-4,9
-19,19,39,0,-29,29,-39,-34,0,0,-14,9
-24,19,43,2,-34,31,-39,-34,0,0,-14,4
-43,19,63,12,-53,41,-34,-34,0,0,-14,4
-63,19,82,21,-73,51,-34,-34,0,0,-14,4
-39,9,48,14,-43,29,-43,-48,-14,-9,-19,-9
-24,9,34,7,-29,21,-53,-48,-14,-19,-24,-9
-19,9,29,4,-24,19,-43,-43,-14,-19,-24,-4
-24,9,34,7,-29,21,-43,-43,-14,-19,-29,-4
-24,14,39,4,-31,26,-34,-43,-9,-9,-24,-4
-24,14,39,4,-31,26,-34,-43,-9,-14,-24,-4
-24,14,39,4,-31,26,-34,-48,-14,-14,-24,-4
-19,4,24,7,-21,14,-39,-48,-14,-14,-24,-9
-29,-9,19,19,-24,4,-29,-34,-14,-14,-24,-14
-34,-14,19,24,-26,2,-29,-34,-14,-9,-24,-14
-34,-24,9,29,-21,-7,-29,-34,-14,-9,-24,-14
-34,-29,4,31,-19,-12,-29,-34,-14,-19,-24,-14
-43,-24,19,34,-31,-2,-24,-34,-9,-4,-24,-4
-53,-24,29,39,-41,2,-24,-43,-9,-9,-24,-4
-63,-29,34,46,-48,2,-24,-43,-9,-4,-19,0
-82,-34,48,58,-65,7,-29,-43,-14,0,-14,9
-63,-34,29,48,-46,-2,-39,-48,-24,-14,-29,4
-48,-29,19,39,-34,-4,-39,-53,-24,-19,-34,0
-39,-29,9,34,-24,-9,-39,-58,-24,-24,-39,-9
-34,-29,4,31,-19,-12,-39,-68,-24,-34,-43,-29
-43,-34,9,39,-26,-12,-48,-68,-34,-34,-48,-29
-39,-19,19,29,-29,0,-48,-68,-39,-34,-48,-34
-39,-14,24,26,-31,4,-48,-68,-39,-34,-58,-34
-19,-9,9,14,-14,0,-48,-68,-39,-34,-58,-34
-39,0,39,19,-39,19,-39,-68,-39,-39,-48,-34
-53,-4,48,29,-51,21,-34,-68,-39,-39,-48,-34
-53,-4,48,29,-51,21,-34,-68,-39,-39,-48,-34
-43,-4,39,24,-41,17,-34,-68,-34,-39,-48,-34
-43,-4,39,24,-41,17,-43,-58,-43,-39,-43,-34
-53,-14,39,34,-46,12,-43,-58,-43,-39,-43,-34
-43,-19,24,31,-34,2,-43,-58,-48,-39,-43,-34
-43,-19,24,31,-34,2,-43,-58,-48,-39,-43,-34
-53,-19,34,36,-43,7,-53,-73,-48,-43,-53,-29
-53,-14,39,34,-46,12,-53,-73,-48,-43,-53,-29
-43,-14,29,29,-36,7,-53,-68,-48,-43,-53,-29
-58,-14,43,36,-51,14,-53,-68,-58,-43,-58,-29
-48,-14,34,31,-41,9,-53,-82,-48,-43,-63,-39
-48,-14,34,31,-41,9,-53,-82,-43,-43,-63,-39
-48,-19,29,34,-39,4,-53,-82,-43,-43,-58,-39
-53,-24,29,39,-41,2,-53,-82,-43,-48,-58,-39
-53,-24,29,39,-41,2,-48,-73,-48,-48,-53,-43
-53,-24,29,39,-41,2,-43,-73,-48,-48,-53,-43
-53,-24,29,39,-41,2,-39,-73,-48,-48,-53,-43
-48,-24,24,36,-36,0,-34,-78,-48,-48,-53,-43
-48,-29,19,39,-34,-4,-34,-68,-39,-53,-58,-43
-43,-39,4,41,-24,-17,-34,-68,-39,-53,-63,-43
-63,-48,14,56,-39,-17,-34,-68,-39,-48,-63,-43
-78,-58,19,68,-48,-19,-34,-63,-34,-48,-68,-39
-73,-58,14,65,-43,-21,-43,-68,-43,-48,-68,-48
-63,-53,9,58,-36,-21,-43,-73,-43,-53,-68,-53
-53,-48,4,51,-29,-21,-43,-78,-53,-53,-73,-53
-48,-43,4,46,-26,-19,-43,-82,-58,-58,-82,-58
-48,-34,14,41,-31,-9,-39,-73,-58,-68,-82,-63
-53,-29,24,41,-39,-2,-39,-73,-53,-63,-78,-63
-58,-29,29,43,-43,0,-39,-73,-53,-58,-78,-63
-63,-34,29,48,-46,-2,-39,-73,-58,-58,-73,-63
-58,-34,24,46,-41,-4,-48,-73,-48,-53,-63,-58
-63,-29,34,46,-48,2,-48,-73,-48,-53,-63,-53
-58,-24,34,41,-46,4,-34,-73,-48,-48,-68,-39
-53,-14,39,34,-46,12,-34,-73,-43,-43,-68,-34
-58,-24,34,41,-46,4,-34,-73,-43,-58,-68,-43
-53,-34,19,43,-36,-7,-34,-78,-43,-58,-68,-43
-53,-43,9,48,-31,-17,-34,-78,-53,-58,-68,-43
-53,-63,-9,58,-21,-36,-34,-73,-53,-53,-68,-43
-58,-63,-4,61,-26,-34,-24,-63,-43,-53,-68,-53
-68,-58,9,63,-39,-24,-24,-68,-43,-58,-68,-53
-73,-58,14,65,-43,-21,-24,-68,-43,-58,-68,-53
-73,-58,14,65,-43,-21,-24,-68,-43,-58,-68,-48
-63,-53,9,58,-36,-21,-29,-78,-43,-58,-73,-58
-68,-48,19,58,-43,-14,-34,-78,-43,-58,-73,-63
-68,-43,24,56,-46,-9,-39,-78,-43,-58,-73,-63
-63,-39,24,51,-43,-7,-43,-82,-48,-63,-73,-63
-48,-29,19,39,-34,-4,-53,-92,-63,-53,-73,-63
-68,-29,39,48,-53,4,-53,-92,-63,-53,-73,-63
-63,-29,34,46,-48,2,-53,-92,-48,-48,-73,-63
-53,-29,24,41,-39,-2,-48,-92,-48,-48,-73,-58
-48,-29,19,39,-34,-4,-39,-87,-48,-58,-82,-58
-48,-29,19,39,-34,-4,-39,-87,-53,-68,-82,-63
-58,-29,29,43,-43,0,-39,-87,-53,-58,-82,-63
-58,-29,29,43,-43,0,-39,-87,-53,-58,-78,-63
-58,-39,19,48,-39,-9,-39,-82,-53,-48,-68,-63
-58,-48,9,53,-34,-19,-39,-78,-53,-48,-68,-63
-58,-58,0,58,-29,-29,-39,-73,-53,-43,-68,-63
-58,-68,-9,63,-24,-39,-39,-73,-58,-43,-68,-63
-48,-58,-9,53,-19,-34,-43,-87,-68,-48,-68,-63
-39,-53,-14,46,-12,-34,-43,-87,-63,-48,-73,-63
-39,-53,-14,46,-12,-34,-43,-82,-63,-48,-73,-63
-39,-48,-9,43,-14,-29,-43,-82,-63,-48,-68,-63
-48,-39,9,43,-29,-14,-34,-82,-58,-48,-78,-48
-58,-34,24,46,-41,-4,-34,-78,-53,-48,-78,-43
-63,-29,34,46,-48,2,-34,-78,-53,-48,-78,-43
-63,-24,39,43,-51,7,-29,-73,-53,-43,-68,-48
-48,-29,19,39,-34,-4,-29,-63,-48,-43,-68,-53
-48,-29,19,39,-34,-4,-29,-63,-43,-43,-68,-53
-39,-19,19,29,-29,0,-29,-63,-34,-34,-63,-48
-39,-9,29,24,-34,9,-29,-58,-19,-29,-58,-48
-34,0,34,17,-34,17,-24,-48,-14,-24,-58,-48
-29,9,39,9,-34,24,-24,-43,-14,-19,-58,-43
-19,14,34,2,-26,24,-19,-43,-14,-19,-53,-34
-19,19,39,0,-29,29,-19,-43,-4,-19,-53,-34
-9,34,43,-12,-26,39,-9,-43,0,-4,-43,-34
-9,39,48,-14,-29,43,-4,-39,14,4,-39,-24
-4,48,53,-21,-29,51,4,-29,14,14,-34,-19
0,53,53,-26,-26,53,4,-29,19,19,-29,-19
-29,48,78,-9,-53,63,14,-9,43,24,-14,4
-48,39,87,4,-68,63,14,-4,39,9,-9,-4
-48,29,78,9,-63,53,-9,-9,19,-9,-19,-19
-24,39,63,-7,-43,51,-29,-24,14,0,-29,-19
-9,39,48,-14,-29,43,-39,-29,9,0,-29,-19
4,39,34,-21,-14,36,-48,-34,4,0,-29,-19
19,39,19,-29,0,29,-58,-39,0,0,-29,-19
19,43,24,-31,-2,34,-73,-39,9,14,-4,0
29,58,29,-43,0,43,-82,-39,19,29,4,14
34,68,34,-51,0,51,-87,-39,34,34,14,24
34,92,58,-63,-12,75,-97,-39,48,39,24,34
34,68,34,-51,0,51,-107,-43,34,29,19,19
34,48,14,-41,9,31,-117,-48,19,24,14,14
34,43,9,-39,12,26,-117,-48,4,14,9,9
43,34,-9,-39,26,12,-112,-48,0,9,4,4
43,14,-29,-29,36,-7,-107,-58,0,9,0,-4
39,4,-34,-21,36,-14,-107,-58,-4,0,-14,-19
34,0,-34,-17,34,-17,-107,-63,-19,-9,-24,-24
24,-9,-34,-7,29,-21,-97,-68,-19,-19,-34,-29
4,-9,-14,2,9,-12,-82,-58,-24,-19,-34,-19
-4,-9,-4,7,0,-7,-82,-53,-29,-24,-29,-19
-24,-29,-4,26,-9,-17,-78,-53,-29,-29,-29,-24
-29,-29,0,29,-14,-14,-78,-63,-34,-34,-39,-29
-9,-58,-48,34,19,-53,-87,-73,-58,-48,-53,-43
-9,-82,-73,46,31,-78,-87,-92,-68,-53,-63,-53
-24,-97,-73,61,24,-85,-87,-107,-78,-63,-73,-63
-39,-112,-73,75,17,-92,-87,-117,-87,-78,-78,-68
-39,-112,-73,75,17,-92,-78,-107,-92,-82,-87,-73
-43,-107,-63,75,9,-85,-78,-107,-92,-82,-92,-78
-58,-107,-48,82,-4,-78,-68,-102,-92,-82,-92,-82
-82,-102,-19,92,-31,-61,-58,-102,-92,-82,-92,-82
-73,-112,-39,92,-17,-75,-63,-102,-92,-82,-97,-97
-73,-117,-43,95,-14,-80,-58,-102,-92,-82,-102,-102
-73,-117,-43,95,-14,-80,-58,-102,-102,-87,-102,-102
-78,-126,-48,102,-14,-87,-58,-112,-107,-92,-107,-102
-92,-131,-39,112,-26,-85,-48,-112,-112,-107,-112,-97
-97,-131,-34,114,-31,-82,-48,-117,-112,-112,-117,-97
-107,-141,-34,124,-36,-87,-48,-122,-117,-122,-122,-102
-122,-146,-24,134,-48,-85,-48,-131,-126,-122,-131,-107
-122,-146,-24,134,-48,-85,-53,-131,-126,-131,-141,-122
-122,-151,-29,136,-46,-90,-58,-131,-122,-131,-141,-126
-112,-156,-43,134,-34,-100,-63,-131,-122,-131,-141,-131
-122,-165,-43,143,-39,-104,-68,-131,-122,-131,-141,-136
-122,-165,-43,143,-39,-104,-63,-131,-122,-122,-141,-136
-122,-161,-39,141,-41,-100,-63,-131,-126,-126,-141,-136
-122,-161,-39,141,-41,-100,-63,-141,-131,-131,-146,-141
-122,-161,-39,141,-41,-100,-63,-141,-131,-136,-146,-141
-122,-161,-39,141,-41,-100,-73,-151,-141,-146,-156,-141
-122,-156,-34,139,-43,-95,-73,-151,-141,-136,-156,-141
-117,-151,-34,134,-41,-92,-73,-151,-141,-136,-151,-141
-117,-151,-34,134,-41,-92,-73,-151,-141,-136,-151,-136
-126,-151,-24,139,-51,-87,-63,-136,-131,-126,-146,-131
-131,-151,-19,141,-56,-85,-58,-126,-126,-122,-141,-126
-136,-151,-14,143,-61,-82,-48,-122,-122,-117,-136,-122
-151,-151,0,151,-75,-75,-43,-117,-117,-112,-136,-117
-156,-165,-9,161,-73,-87,-53,-126,-122,-117,-136,-126
-151,-165,-14,158,-68,-90,-53,-126,-122,-126,-141,-131
-131,-161,-29,146,-51,-95,-53,-126,-122,-131,-141,-131
-126,-161,-34,143,-46,-97,-53,-126,-122,-131,-141,-131
-136,-170,-34,153,-51,-102,-53,-136,-122,-131,-151,-122
-141,-170,-29,156,-56,-100,-53,-136,-122,-131,-146,-122
-141,-165,-24,153,-58,-95,-48,-136,-122,-131,-141,-122
-141,-165,-24,153,-58,-95,-48,-136,-122,-131,-141,-117
-151,-151,0,151,-75,-75,-48,-141,-122,-122,-141,-126
-141,-151,-9,146,-65,-80,-48,-141,-122,-122,-141,-126
-131,-146,-14,139,-58,-80,-48,-141,-122,-122,-141,-126
-131,-146,-14,139,-58,-80,-48,-141,-122,-122,-141,-126
-131,-136,-4,134,-63,-70,-58,-126,-117,-117,-136,-126
-131,-136,-4,134,-63,-70,-58,-126,-117,-117,-136,-126
-131,-136,-4,134,-63,-70,-58,-122,-117,-117,-136,-126
-131,-136,-4,134,-63,-70,-58,-122,-117,-117,-136,-126
-117,-146,-29,131,-43,-87,-58,-136,-126,-126,-146,-136
-122,-151,-29,136,-46,-90,-58,-136,-126,-126,-146,-136
-122,-151,-29,136,-46,-90,-58,-136,-126,-126,-146,-136
-117,-151,-34,134,-41,-92,-58,-136,-126,-126,-146,-131
-112,-146,-34,129,-39,-90,-58,-146,-122,-126,-146,-131
-136,-136,0,136,-68,-68,-48,-136,-122,-122,-131,-126
-151,-141,9,146,-80,-65,-39,-136,-107,-102,-117,-107
-151,-122,29,136,-90,-46,-48,-136,-87,-87,-102,-87
-112,-87,24,100,-68,-31,-39,-122,-73,-68,-78,-63
-73,-68,4,70,-39,-31,-29,-92,-53,-34,-43,-29
-92,-68,24,80,-58,-21,-34,-78,-39,-14,-4,4
-97,-82,14,90,-56,-34,-24,-58,-19,9,19,19
-73,-102,-29,87,-21,-65,-24,-39,-14,29,48,58
-34,-131,-97,82,31,-114,-39,-29,-24,29,73,82
29,-146,-175,58,102,-161,-63,-29,-53,9,82,97
87,-180,-268,46,178,-224,-92,-29,-78,14,107,131
117,-229,-346,56,231,-287,-122,-14,-82,24,151,170
161,-234,-395,36,278,-314,-151,29,-68,53,219,234
229,-185,-414,-21,322,-300,-190,78,-34,136,322,336
302,-141,-444,-80,373,-292,-209,151,39,229,444,453
370,-126,-497,-122,434,-312,-219,224,87,297,527,536
458,-141,-600,-158,529,-370,-253,248,107,336,580,585
512,-126,-639,-192,575,-383,-292,219,122,375,619,600
527,-82,-610,-222,568,-346,-283,209,156,414,639,580
517,-73,-590,-222,553,-331,-253,219,185,409,590,497
492,-151,-644,-170,568,-397,-224,224,190,336,429,307
439,-263,-702,-87,570,-483,-185,224,161,248,229,53
370,-336,-707,-17,539,-522,-156,200,141,170,82,-141
312,-351,-663,19,488,-507,-122,165,136,131,-9,-248
248,-341,-590,46,419,-466,-102,53,87,92,-92,-326
161,-351,-512,95,336,-431,-92,-126,-39,-34,-209,-419
19,-351,-370,165,195,-361,-63,-297,-209,-175,-336,-488
-122,-331,-209,226,43,-270,-19,-439,-370,-312,-424,-527
-234,-322,-87,278,-73,-204,24,-502,-483,-400,-483,-541
-317,-302,14,309,-165,-143,92,-502,-522,-439,-497,-536
-390,-317,73,353,-231,-122,131,-453,-556,-463,-507,-527
-424,-356,68,390,-246,-143,126,-419,-614,-522,-541,-546
-424,-385,39,405,-231,-173,112,-409,-663,-590,-585,-566
-414,-390,24,402,-219,-183,136,-380,-683,-624,-619,-575
-395,-419,-24,407,-185,-222,136,-356,-683,-634,-639,-575
-400,-429,-29,414,-185,-229,117,-326,-653,-614,-614,-566
-375,-434,-58,405,-158,-246,102,-287,-610,-580,-590,-541
-302,-419,-117,361,-92,-268,63,-234,-551,-546,-551,-517
-229,-390,-161,309,-34,-275,14,-195,-488,-463,-478,-458
-204,-331,-126,268,-39,-229,-4,-131,-390,-375,-380,-385
-180,-273,-92,226,-43,-183,14,-39,-292,-287,-312,-326
-175,-244,-68,209,-53,-156,14,48,-224,-224,-248,-268
-165,-229,-63,197,-51,-146,14,107,-175,-165,-200,-224
-136,-190,-53,163,-41,-122,19,141,-131,-131,-170,-200
-117,-156,-39,136,-39,-97,29,131,-107,-122,-156,-190
-122,-151,-29,136,-46,-90,19,92,-97,-122,-156,-185
-97,-131,-34,114,-31,-82,4,58,-97,-117,-151,-185
-63,-107,-43,85,-9,-75,-9,43,-87,-97,-131,-165
-92,-87,4,90,-48,-41,-14,19,-82,-87,-117,-141
-146,-97,48,122,-97,-24,-9,-9,-82,-78,-102,-136
-180,-112,68,146,-124,-21,-9,-24,-82,-73,-92,-122
-151,-112,39,131,-95,-36,0,-34,-87,-78,-107,-136
-131,-112,19,122,-75,-46,-9,-43,-78,-82,-112,-141
-122,-112,9,117,-65,-51,-14,-29,-78,-78,-112,-136
-102,-107,-4,104,-48,-56,-14,-29,-73,-73,-102,-126
-97,-107,-9,102,-43,-58,-19,-34,-73,-68,-97,-122
-87,-97,-9,92,-39,-53,-24,-39,-63,-58,-82,-117
-87,-92,-4,90,-41,-48,-29,-43,-58,-53,-78,-112
-87,-92,-4,90,-41,-48,-29,-43,-58,-53,-78,-102
-92,-97,-4,95,-43,-51,-29,-43,-58,-53,-73,-97
-102,-107,-4,104,-48,-56,-19,-39,-58,-58,-73,-102
-102,-107,-4,104,-48,-56,-19,-39,-58,-58,-73,-102
-102,-107,-4,104,-48,-56,-19,-39,-58,-58,-73,-102
-97,-107,-9,102,-43,-58,-24,-39,-58,-58,-73,-102
-92,-97,-4,95,-43,-51,-34,-39,-48,-43,-68,-102
-97,-97,0,97,-48,-48,-39,-43,-48,-39,-68,-97
-102,-97,4,100,-53,-46,-39,-43,-48,-39,-63,-97
-102,-87,14,95,-58,-36,-39,-43,-43,-39,-63,-92
-97,-87,9,92,-53,-39,-48,-48,-53,-48,-58,-92
-92,-87,4,90,-48,-41,-48,-53,-53,-43,-58,-92
-87,-87,0,87,-43,-43,-48,-58,-48,-43,-58,-92
-82,-97,-14,90,-34,-56,-53,-63,-48,-39,-58,-92
-78,-92,-14,85,-31,-53,-53,-58,-39,-29,-58,-92
-73,-82,-9,78,-31,-46,-53,-53,-39,-29,-53,-87
-58,-78,-19,68,-19,-48,-53,-48,-39,-29,-53,-87
-48,-73,-24,61,-12,-48,-58,-43,-39,-29,-53,-82
-63,-78,-14,70,-24,-46,-48,-48,-34,-34,-48,-82
-73,-73,0,73,-36,-36,-48,-43,-39,-29,-43,-82
-78,-73,4,75,-41,-34,-48,-43,-43,-29,-43,-82
-78,-73,4,75,-41,-34,-53,-39,-43,-29,-43,-78
-73,-73,0,73,-36,-36,-68,-39,-34,-14,-39,-82
-58,-73,-14,65,-21,-43,-68,-39,-34,-9,-39,-82
-53,-68,-14,61,-19,-41,-68,-43,-34,-9,-34,-82
-58,-63,-4,61,-26,-34,-68,-43,-29,-9,-34,-78
-58,-53,4,56,-31,-24,-68,-43,-29,-14,-19,-68
-53,-53,0,53,-26,-26,-68,-39,-29,-14,-19,-68
-53,-53,0,53,-26,-26,-68,-29,-19,-4,-14,-63
-53,-53,0,53,-26,-26,-68,-19,-14,-4,-9,-53
-43,-63,-19,53,-12,-41,-73,-29,-14,4,-9,-53
-39,-63,-24,51,-7,-43,-73,-34,-14,4,-14,-58
-29,-58,-29,43,0,-43,-73,-34,-14,4,-14,-58
-29,-58,-29,43,0,-43,-78,-29,-14,4,-9,-63
-34,-58,-24,46,-4,-41,-73,-29,-4,14,-9,-63
-39,-58,-19,48,-9,-39,-68,-29,0,14,-4,-58
-34,-58,-24,46,-4,-41,-68,-24,9,14,0,-58
-39,-58,-19,48,-9,-39,-63,-19,9,14,0,-58
-58,-58,0,58,-29,-29,-68,-19,9,19,4,-58
-58,-53,4,56,-31,-24,-68,-14,14,29,0,-48
-48,-53,-4,51,-21,-29,-68,-9,14,34,0,-48
-48,-53,-4,51,-21,-29,-73,-4,14,39,0,-48
-39,-53,-14,46,-12,-34,-68,4,19,39,14,-43
-34,-43,-9,39,-12,-26,-63,14,29,43,19,-34
-19,-43,-24,31,2,-34,-63,14,34,48,34,-29
-14,-34,-19,24,2,-26,-68,14,39,53,39,-24
-24,-19,4,21,-14,-7,-78,14,48,58,39,-9
-24,-14,9,19,-17,-2,-73,24,48,63,39,-9
-24,-9,14,17,-19,2,-73,24,58,68,48,-4
-24,-4,19,14,-21,7,-78,39,58,82,53,-4
-29,-14,14,21,-21,0,-68,58,68,78,58,4
-29,-14,14,21,-21,0,-73,58,68,82,58,4
-29,-14,14,21,-21,0,-78,58,68,82,58,4
-24,-4,19,14,-21,7,-78,63,82,92,73,14
-9,9,19,0,-14,14,-73,63,87,107,87,29
0,14,14,-7,-7,14,-73,68,92,112,92,34
19,24,4,-21,7,14,-78,78,97,122,92,34
29,34,4,-31,12,19,-78,82,102,126,97,43
19,29,9,-24,4,19,-87,78,112,122,102,48
19,29,9,-24,4,19,-87,92,117,126,107,48
24,39,14,-31,4,26,-87,97,122,131,112,48
24,43,19,-34,2,31,-87,102,131,141,122,53
19,53,34,-36,-7,43,-87,97,141,151,117,48
29,53,24,-41,2,39,-92,107,146,156,117,53
39,53,14,-46,12,34,-92,112,151,161,122,58
43,58,14,-51,14,36,-92,126,156,170,131,63
58,73,14,-65,21,43,-92,141,156,165,146,73
58,78,19,-68,19,48,-92,141,170,175,151,73
53,78,24,-65,14,51,-92,156,180,180,156,78
53,82,29,-68,12,56,-87,165,190,190,165,78
58,87,29,-73,14,58,-87,175,204,195,165,78
63,87,24,-75,19,56,-97,175,209,200,165,78
78,87,9,-82,34,48,-97,180,214,204,170,82
78,97,19,-87,29,58,-87,200,229,214,180,87
58,92,34,-75,12,63,-87,195,234,219,170,87
53,87,34,-70,9,61,-87,200,239,219,170,87
48,82,34,-65,7,58,-87,204,244,229,180,92
34,82,48,-58,-7,65,-87,214,258,234,185,97
34,82,48,-58,-7,65,-78,224,258,234,185,97
39,87,48,-63,-4,68,-73,229,258,234,185,92
48,87,39,-68,4,63,-68,234,258,239,185,87
48,92,43,-70,2,68,-63,234,268,239,180,87
58,92,34,-75,12,63,-63,244,273,229,170,82
63,92,29,-78,17,61,-63,248,278,239,170,82
63,97,34,-80,14,65,-58,253,283,244,170,82
68,97,29,-82,19,63,-58,253,283,244,170,82
58,102,43,-80,7,73,-58,268,283,244,175,92
58,102,43,-80,7,73,-58,268,287,244,175,87
48,107,58,-78,-4,82,-58,268,287,244,180,87
48,112,63,-80,-7,87,-58,268,287,244,185,87
58,102,43,-80,7,73,-58,263,278,244,175,87
58,107,48,-82,4,78,-58,258,278,234,175,87
58,107,48,-82,4,78,-63,244,273,229,170,78
63,102,39,-82,12,70,-68,234,273,229,165,78
73,112,39,-92,17,75,-68,239,268,224,170,82
73,112,39,-92,17,75,-73,239,263,224,165,82
63,107,43,-85,9,75,-73,224,258,219,161,78
63,107,43,-85,9,75,-73,219,253,214,156,78
48,102,53,-75,-2,78,-73,204,248,200,146,73
48,92,43,-70,2,68,-73,185,234,190,141,68
43,87,43,-65,0,65,-78,170,229,180,136,58
39,78,39,-58,0,58,-78,165,219,180,131,53
19,78,58,-48,-19,68,-63,151,219,175,131,58
14,82,68,-48,-26,75,-63,141,214,170,126,58
14,82,68,-48,-26,75,-63,126,200,161,122,48
24,68,43,-46,-9,56,-63,122,195,156,117,43
19,63,43,-41,-12,53,-58,117,180,156,117,39
9,58,48,-34,-19,53,-58,102,170,151,112,39
9,63,53,-36,-21,58,-58,82,156,136,107,34
9,68,58,-39,-24,63,-58,73,151,126,102,34
9,48,39,-29,-14,43,-63,48,136,112,97,34
4,39,34,-21,-14,36,-68,34,112,102,92,24
0,29,29,-14,-14,29,-73,19,97,87,78,14
-9,19,29,-4,-19,24,-73,9,78,82,68,9
-29,14,43,7,-36,29,-63,14,78,78,73,14
-34,19,53,7,-43,36,-58,4,78,82,73,14
-34,14,48,9,-41,31,-53,9,73,78,68,9
-39,19,58,9,-48,39,-48,4,68,73,63,0
-43,4,48,19,-46,26,-39,-4,58,58,48,-4
-53,-9,43,31,-48,17,-34,-14,43,53,48,-9
-63,-29,34,46,-48,2,-34,-14,39,43,43,-14
-78,-39,39,58,-58,0,-34,-24,34,34,39,-19
-82,-43,39,63,-61,-2,-39,-34,24,29,19,-34
-78,-53,24,65,-51,-14,-43,-34,19,29,14,-39
-73,-53,19,63,-46,-17,-43,-39,19,24,9,-39
-63,-53,9,58,-36,-21,-48,-43,14,19,9,-48
-53,-43,9,48,-31,-17,-48,-39,4,14,-4,-43
-53,-43,9,48,-31,-17,-48,-43,4,4,-14,-48
-63,-43,19,53,-41,-12,-48,-48,-4,-9,-19,-53
-63,-48,14,56,-39,-17,-48,-48,-14,-9,-24,-58
-63,-58,4,61,-34,-26,-39,-53,-14,-9,-19,-58
-63,-48,14,56,-39,-17,-39,-53,-14,-9,-14,-58
-68,-58,9,63,-39,-24,-43,-53,-14,-9,-19,-58
-78,-58,19,68,-48,-19,-43,-58,-14,-14,-14,-58
-78,-53,24,65,-51,-14,-43,-48,-14,-19,-29,-68
-68,-53,14,61,-41,-19,-43,-48,-19,-24,-34,-73
-63,-73,-9,68,-26,-41,-39,-53,-24,-24,-34,-73
-63,-73,-9,68,-26,-41,-39,-53,-29,-29,-34,-78
-73,-78,-4,75,-34,-41,-29,-43,-19,-19,-24,-78
-78,-78,0,78,-39,-39,-29,-43,-24,-19,-29,-78
-92,-78,14,85,-53,-31,-29,-43,-24,-24,-29,-78
-97,-82,14,90,-56,-34,-29,-43,-24,-24,-34,-78
-82,-73,9,78,-46,-31,-29,-43,-19,-24,-34,-82
-82,-73,9,78,-46,-31,-24,-43,-19,-24,-34,-82
-82,-73,9,78,-46,-31,-19,-43,-19,-19,-34,-82
-92,-73,19,82,-56,-26,-19,-39,-19,-19,-29,-78
-68,-63,4,65,-36,-29,-39,-48,-29,-24,-39,-87
-63,-63,0,63,-31,-31,-39,-48,-29,-29,-39,-92
-63,-63,0,63,-31,-31,-39,-43,-29,-34,-43,-92
-58,-63,-4,61,-26,-34,-34,-43,-29,-43,-48,-92
-63,-73,-9,68,-26,-41,-34,-43,-29,-34,-39,-82
-68,-63,4,65,-36,-29,-34,-43,-29,-34,-34,-82
-73,-63,9,68,-41,-26,-34,-43,-29,-29,-34,-82
-78,-63,14,70,-46,-24,-34,-43,-29,-29,-29,-82
-68,-73,-4,70,-31,-39,-34,-39,-29,-19,-19,-87
-68,-73,-4,70,-31,-39,-34,-39,-29,-19,-19,-82
-73,-73,0,73,-36,-36,-34,-39,-24,-19,-19,-82
-73,-68,4,70,-39,-31,-34,-39,-24,-19,-14,-82
-63,-58,4,61,-34,-26,-24,-39,-19,-14,-14,-73
-63,-63,0,63,-31,-31,-24,-39,-14,-14,-14,-78
-63,-63,0,63,-31,-31,-24,-39,-9,-14,-14,-78
-63,-63,0,63,-31,-31,-24,-39,-4,-14,-14,-73
-53,-58,-4,56,-24,-31,-14,-39,-4,0,-14,-63
-68,-63,4,65,-36,-29,-14,-34,-4,0,-9,-63
-68,-63,4,65,-36,-29,-14,-34,-4,0,-4,-58
-68,-68,0,68,-34,-34,-14,-34,-4,4,-4,-58
-58,-68,-9,63,-24,-39,-29,-43,-14,0,-14,-58
-58,-63,-4,61,-26,-34,-39,-43,-14,-4,-14,-58
-58,-58,0,58,-29,-29,-43,-43,-9,-4,-14,-53
-58,-58,0,58,-29,-29,-43,-43,-9,-4,-9,-53
-63,-48,14,56,-39,-17,-39,-34,-4,4,-9,-53
-63,-48,14,56,-39,-17,-39,-34,0,4,-9,-53
-68,-48,19,58,-43,-14,-34,-34,4,9,-9,-53
-68,-48,19,58,-43,-14,-29,-34,9,9,-4,-53
-73,-48,24,61,-48,-12,-29,-34,4,4,-4,-58
-73,-53,19,63,-46,-17,-29,-34,4,4,-4,-53
-78,-53,24,65,-51,-14,-29,-34,4,4,0,-53
-78,-53,24,65,-51,-14,-29,-34,4,4,0,-53
-63,-63,0,63,-31,-31,-29,-34,4,14,0,-53
-63,-58,4,61,-34,-26,-29,-34,4,19,0,-48
-58,-58,0,58,-29,-29,-29,-39,9,19,0,-43
-58,-58,0,58,-29,-29,-29,-39,9,24,0,-43
-58,-48,9,53,-34,-19,-29,-48,-4,14,0,-43
-58,-43,14,51,-36,-14,-29,-48,-4,9,4,-43
-58,-43,14,51,-36,-14,-29,-48,-4,9,9,-43
-68,-43,24,56,-46,-9,-29,-48,0,9,9,-39
-78,-34,43,56,-61,4,-29,-43,0,14,0,-39
-73,-34,39,53,-56,2,-34,-48,0,14,0,-39
-73,-39,34,56,-53,-2,-34,-43,0,9,-4,-39
-68,-39,29,53,-48,-4,-34,-39,0,9,-4,-39
-63,-29,34,46,-48,2,-34,-48,-9,9,0,-43
-58,-29,29,43,-43,0,-43,-53,-9,4,0,-43
-58,-29,29,43,-43,0,-43,-53,-9,4,4,-43
-58,-29,29,43,-43,0,-34,-48,-9,4,4,-48
-58,-39,19,48,-39,-9,-34,-48,-9,9,4,-39
-48,-39,9,43,-29,-14,-34,-48,-9,9,4,-39
-43,-39,4,41,-24,-17,-34,-58,-9,4,4,-39
-43,-39,4,41,-24,-17,-34,-58,-9,4,4,-39
-48,-39,9,43,-29,-14,-29,-53,-4,4,4,-39
-58,-39,19,48,-39,-9,-29,-53,-9,0,4,-39
-63,-39,24,51,-43,-7,-29,-53,-9,0,4,-39
-68,-39,29,53,-48,-4,-29,-53,-9,0,4,-39
-53,-43,9,48,-31,-17,-29,-63,-19,0,4,-39
-53,-48,4,51,-29,-21,-29,-63,-19,0,4,-43
-68,-53,14,61,-41,-19,-24,-63,-19,0,4,-43
-82,-58,24,70,-53,-17,-24,-63,-19,0,4,-43
-63,-53,9,58,-36,-21,-24,-58,-24,0,0,-58
-53,-48,4,51,-29,-21,-34,-58,-24,-9,-4,-58
-53,-43,9,48,-31,-17,-24,-53,-24,-9,-4,-53
-63,-39,24,51,-43,-7,-24,-53,-24,-9,-9,-53
-63,-43,19,53,-41,-12,-29,-73,-29,-9,-4,-53
-63,-43,19,53,-41,-12,-34,-73,-29,-14,-4,-53
-63,-43,19,53,-41,-12,-39,-78,-34,-14,-4,-53
-58,-53,4,56,-31,-24,-48,-78,-34,-14,-4,-58
-68,-63,4,65,-36,-29,-43,-82,-34,-14,-14,-63
-73,-63,9,68,-41,-26,-39,-82,-34,-9,-14,-63
-73,-68,4,70,-39,-31,-34,-82,-34,-9,-14,-63
-73,-68,4,70,-39,-31,-29,-82,-34,-19,-14,-63
-68,-63,4,65,-36,-29,-34,-82,-48,-29,-19,-58
-63,-63,0,63,-31,-31,-34,-92,-48,-39,-24,-63
-58,-68,-9,63,-24,-39,-34,-92,-48,-39,-24,-63
-63,-73,-9,68,-26,-41,-39,-92,-53,-39,-24,-58
-73,-73,0,73,-36,-36,-29,-82,-43,-29,-34,-58
-68,-68,0,68,-34,-34,-29,-82,-43,-29,-34,-58
-68,-68,0,68,-34,-34,-29,-82,-43,-29,-34,-63
-73,-68,4,70,-39,-31,-29,-87,-43,-34,-34,-78
-73,-73,0,73,-36,-36,-29,-78,-43,-34,-29,-68
-68,-58,9,63,-39,-24,-29,-78,-48,-34,-29,-73
-68,-53,14,61,-41,-19,-29,-78,-48,-34,-39,-73
-48,-48,0,48,-24,-24,-29,-78,-48,-34,-39,-73
-68,-58,9,63,-39,-24,-29,-87,-48,-29,-29,-73
-82,-63,19,73,-51,-21,-24,-87,-48,-29,-29,-73
-82,-63,19,73,-51,-21,-24,-87,-48,-29,-29,-73
-73,-63,9,68,-41,-26,-24,-87,-43,-29,-29,-73
-82,-53,29,68,-56,-12,-14,-78,-34,-29,-24,-68
-92,-63,29,78,-61,-17,-14,-78,-34,-29,-24,-63
-82,-68,14,75,-48,-26,-14,-78,-39,-29,-24,-58
-82,-68,14,75,-48,-26,-14,-78,-39,-29,-24,-53
-82,-68,14,75,-48,-26,-24,-92,-48,-34,-34,-68
-82,-63,19,73,-51,-21,-24,-92,-48,-34,-34,-68
-73,-63,9,68,-41,-26,-24,-87,-48,-34,-34,-68
-87,-63,24,75,-56,-19,-24,-87,-58,-34,-39,-68
-87,-63,24,75,-56,-19,-24,-82,-48,-34,-34,-58
-87,-63,24,75,-56,-19,-24,-82,-43,-34,-34,-58
-87,-68,19,78,-53,-24,-24,-82,-43,-34,-29,-58
-92,-73,19,82,-56,-26,-24,-82,-43,-39,-29,-58
-87,-68,19,78,-53,-24,-34,-92,-58,-39,-43,-73
-82,-63,19,73,-51,-21,-34,-92,-58,-39,-43,-73
-78,-58,19,68,-48,-19,-34,-92,-58,-39,-43,-73
-68,-53,14,61,-41,-19,-34,-97,-58,-39,-43,-73
-63,-48,14,56,-39,-17,-34,-97,-58,-53,-43,-73
-53,-48,4,51,-29,-21,-34,-97,-58,-53,-43,-73
-68,-48,19,58,-43,-14,-34,-97,-58,-48,-39,-73
-78,-48,29,63,-53,-9,-34,-92,-53,-48,-39,-68
-92,-63,29,78,-61,-17,-29,-82,-43,-39,-39,-68
-92,-63,29,78,-61,-17,-24,-82,-43,-43,-39,-73
-92,-63,29,78,-61,-17,-19,-82,-53,-43,-43,-73
-97,-63,34,80,-65,-14,-14,-82,-58,-48,-53,-78
-82,-63,19,73,-51,-21,-19,-82,-58,-48,-53,-82
-82,-58,24,70,-53,-17,-19,-82,-53,-43,-48,-82
-82,-58,24,70,-53,-17,-19,-82,-53,-39,-48,-82
-82,-63,19,73,-51,-21,-19,-82,-58,-39,-43,-82
-73,-68,4,70,-39,-31,-29,-82,-58,-48,-43,-73
-82,-68,14,75,-48,-26,-29,-82,-58,-53,-43,-73
-82,-68,14,75,-48,-26,-14,-82,-58,-53,-48,-63
-82,-63,19,73,-51,-21,-14,-82,-53,-53,-48,-63
-78,-63,14,70,-46,-24,-14,-92,-63,-58,-58,-82
-73,-63,9,68,-41,-26,-14,-97,-63,-58,-58,-82
-73,-63,9,68,-41,-26,-14,-97,-73,-58,-58,-82
-73,-73,0,73,-36,-36,-14,-92,-73,-53,-58,-82
-82,-82,0,82,-41,-41,-24,-92,-73,-63,-58,-82
-87,-78,9,82,-48,-34,-24,-97,-73,-68,-58,-82
-87,-78,9,82,-48,-34,-24,-97,-73,-68,-58,-82
-82,-78,4,80,-43,-36,-24,-97,-73,-68,-58,-78
-78,-73,4,75,-41,-34,-24,-87,-68,-58,-53,-78
-78,-68,9,73,-43,-29,-24,-87,-63,-58,-53,-82
-73,-63,9,68,-41,-26,-24,-87,-58,-58,-53,-82
-63,-58,4,61,-34,-26,-24,-92,-58,-63,-53,-82
-53,-58,-4,56,-24,-31,-14,-92,-63,-53,-43,-82
-78,-58,19,68,-48,-19,-14,-92,-63,-53,-43,-82
-78,-58,19,68,-48,-19,-14,-92,-48,-48,-43,-82
-73,-58,14,65,-43,-21,-9,-92,-48,-48,-43,-78
-68,-68,0,68,-34,-34,-9,-87,-58,-58,-43,-68
-68,-68,0,68,-34,-34,-9,-87,-63,-68,-43,-73
-78,-68,9,73,-43,-29,-9,-87,-63,-58,-43,-73
-78,-68,9,73,-43,-29,-9,-87,-63,-58,-39,-73
-87,-73,14,80,-51,-29,-9,-97,-63,-58,-48,-82
-87,-78,9,82,-48,-34,-9,-97,-63,-58,-48,-82
-87,-82,4,85,-46,-39,-9,-97,-63,-53,-48,-82
-87,-87,0,87,-43,-43,-9,-102,-68,-53,-48,-82
-97,-73,24,85,-61,-24,-14,-97,-68,-58,-48,-82
-87,-73,14,80,-51,-29,-14,-97,-63,-58,-53,-82
-87,-78,9,82,-48,-34,-14,-92,-63,-58,-53,-82
-87,-78,9,82,-48,-34,-14,-92,-63,-58,-48,-82
-78,-73,4,75,-41,-34,-4,-82,-48,-53,-48,-68
-87,-73,14,80,-51,-29,-4,-78,-43,-48,-48,-63
-92,-73,19,82,-56,-26,-4,-78,-43,-43,-48,-63
-92,-73,19,82,-56,-26,0,-73,-43,-34,-39,-68
-73,-53,19,63,-46,-17,-4,-82,-43,-34,-29,-68
-68,-48,19,58,-43,-14,-9,-82,-43,-34,-29,-63
-53,-34,19,43,-36,-7,-14,-82,-39,-24,-24,-53
-48,-19,29,34,-39,4,-19,-78,-29,-19,-19,-48
-43,-14,29,29,-36,7,-4,-68,-34,-24,-29,-48
-39,-9,29,24,-34,9,-4,-63,-34,-19,-29,-43
-29,-9,19,19,-24,4,0,-63,-34,-19,-24,-34
-29,-9,19,19,-24,4,0,-63,-24,-19,-24,-34
-39,-4,34,21,-36,14,19,-53,-9,-4,-4,-43
-48,0,48,24,-48,24,24,-48,4,4,0,-34
-53,9,63,21,-58,36,34,-39,4,14,4,-29
-58,14,73,21,-65,43,34,-39,9,19,9,-29
-58,9,68,24,-63,39,43,-19,24,24,4,-14
-58,0,58,29,-58,29,34,-14,29,29,9,-4
-48,9,58,19,-53,34,19,-19,29,29,19,-9
-43,19,63,12,-53,41,9,-29,29,29,19,-9
-39,19,58,9,-48,39,0,-29,29,29,19,-9
-34,19,53,7,-43,36,-9,-29,29,29,19,-9
-29,19,48,4,-39,34,-19,-29,29,29,19,-9
-14,19,34,-2,-24,26,-29,-43,29,39,29,4
0,29,29,-14,-14,29,-43,-48,29,48,34,14
9,34,24,-21,-7,29,-53,-53,34,48,39,19
14,53,39,-34,-12,46,-68,-58,39,48,43,24
34,43,9,-39,12,26,-68,-53,29,43,34,24
34,29,-4,-31,19,12,-78,-58,19,43,34,24
34,29,-4,-31,19,12,-78,-58,9,39,34,24
43,24,-19,-34,31,2,-73,-58,9,39,34,24
34,9,-24,-21,29,-7,-78,-68,0,39,34,24
29,4,-24,-17,26,-9,-78,-68,-4,29,24,9
24,4,-19,-14,21,-7,-78,-73,-19,19,19,4
14,0,-14,-7,14,-7,-68,-78,-19,9,14,0
9,-9,-19,0,14,-14,-43,-68,-19,19,19,9
4,-9,-14,2,9,-12,-43,-63,-19,14,19,9
-9,-29,-19,19,4,-24,-39,-63,-14,9,14,4
-9,-29,-19,19,4,-24,-39,-73,-14,4,0,0
-9,-39,-29,24,9,-34,-39,-68,-29,-19,-4,-24
-9,-53,-43,31,17,-48,-39,-82,-39,-24,-14,-34
-24,-58,-34,41,4,-46,-39,-92,-48,-34,-24,-43
-39,-63,-24,51,-7,-43,-39,-97,-58,-48,-29,-48
-29,-78,-48,53,9,-63,-39,-107,-73,-53,-48,-53
-34,-78,-43,56,4,-61,-39,-107,-73,-53,-53,-58
-48,-82,-34,65,-7,-58,-29,-102,-73,-53,-53,-63
-73,-82,-9,78,-31,-46,-19,-102,-73,-53,-53,-63
-68,-92,-24,80,-21,-58,-24,-112,-82,-63,-68,-78
-63,-97,-34,80,-14,-65,-19,-112,-82,-63,-73,-82
-58,-97,-39,78,-9,-68,-19,-112,-92,-68,-73,-82
-58,-107,-48,82,-4,-78,-19,-122,-97,-73,-78,-82
-68,-102,-34,85,-17,-68,-9,-112,-102,-78,-73,-82
-68,-102,-34,85,-17,-68,-9,-117,-102,-82,-78,-87
-73,-112,-39,92,-17,-75,-9,-122,-107,-92,-82,-97
-82,-117,-34,100,-24,-75,-9,-131,-117,-92,-92,-107
-107,-126,-19,117,-43,-73,-9,-122,-107,-87,-87,-102
-112,-131,-19,122,-46,-75,-9,-122,-102,-82,-82,-97
-107,-136,-29,122,-39,-82,-9,-122,-102,-78,-78,-92
-122,-146,-24,134,-48,-85,-9,-122,-102,-73,-73,-87
-117,-136,-19,126,-48,-78,-14,-122,-112,-87,-87,-92
-112,-131,-19,122,-46,-75,-14,-122,-117,-97,-92,-97
-107,-131,-24,119,-41,-78,-14,-131,-122,-107,-102,-107
-102,-131,-29,117,-36,-80,-14,-131,-122,-117,-107,-112
-112,-122,-9,117,-51,-65,-4,-122,-117,-112,-97,-102
-112,-117,-4,114,-53,-61,-4,-122,-112,-97,-97,-102
-107,-112,-4,109,-51,-58,-4,-122,-107,-92,-92,-102
-107,-112,-4,109,-51,-58,-4,-122,-102,-87,-92,-97
-92,-122,-29,107,-31,-75,0,-131,-102,-92,-92,-107
-82,-122,-39,102,-21,-80,0,-126,-107,-92,-92,-107
-73,-122,-48,97,-12,-85,4,-126,-112,-92,-92,-107
-73,-122,-48,97,-12,-85,4,-126,-117,-92,-97,-107
-97,-126,-29,112,-34,-78,-4,-126,-112,-82,-87,-97
-102,-126,-24,114,-39,-75,-4,-126,-112,-87,-92,-102
-92,-122,-29,107,-31,-75,-4,-126,-112,-87,-92,-102
-97,-122,-24,109,-36,-73,-4,-126,-112,-82,-92,-102
-87,-122,-34,104,-26,-78,-4,-136,-112,-87,-102,-102
-92,-122,-29,107,-31,-75,-4,-136,-112,-92,-97,-102
-92,-117,-24,104,-34,-70,0,-136,-112,-97,-92,-102
-92,-117,-24,104,-34,-70,0,-136,-112,-102,-92,-97
-92,-112,-19,102,-36,-65,0,-131,-112,-92,-102,-97
-82,-112,-29,97,-26,-70,0,-131,-112,-92,-102,-97
-73,-107,-34,90,-19,-70,0,-131,-112,-92,-102,-97
-73,-107,-34,90,-19,-70,0,-131,-112,-92,-102,-97
-78,-117,-39,97,-19,-78,0,-126,-107,-87,-87,-97
-82,-117,-34,100,-24,-75,0,-126,-107,-87,-87,-97
-87,-117,-29,102,-29,-73,0,-122,-107,-87,-87,-97
-92,-117,-24,104,-34,-70,0,-122,-107,-87,-87,-97
-82,-112,-29,97,-26,-70,0,-126,-107,-97,-97,-97
-92,-112,-19,102,-36,-65,0,-126,-107,-97,-97,-97
-97,-107,-9,102,-43,-58,0,-126,-107,-97,-97,-97
-97,-102,-4,100,-46,-53,0,-126,-107,-97,-97,-92
-102,-107,-4,104,-48,-56,0,-126,-92,-87,-97,-92
-107,-97,9,102,-58,-43,0,-126,-92,-92,-92,-97
-73,-73,0,73,-36,-36,-9,-146,-97,-82,-87,-87
-53,-53,0,53,-26,-26,-9,-156,-87,-58,-53,-68
-63,-29,34,46,-48,2,0,-141,-73,-39,-19,-34
-53,-9,43,31,-48,17,-9,-131,-73,-24,-4,-19
-43,-9,34,26,-39,12,-4,-107,-39,4,24,14
-58,-24,34,41,-46,4,14,-58,0,48,68,58
-43,-34,9,39,-26,-12,14,-29,14,68,97,87
-14,-63,-48,39,17,-56,0,-29,4,48,112,102
29,-87,-117,29,73,-102,-4,-19,-14,48,131,126
97,-112,-209,7,153,-161,-24,0,-39,53,146,141
146,-151,-297,2,222,-224,-73,-4,-73,34,161,161
190,-185,-375,-2,283,-280,-112,9,-87,34,190,195
278,-165,-444,-56,361,-305,-141,48,-63,87,273,278
380,-122,-502,-129,441,-312,-151,122,0,170,385,395
458,-78,-536,-190,497,-307,-161,204,58,258,488,488
497,-82,-580,-207,539,-331,-195,248,97,307,551,536
551,-58,-610,-246,580,-334,-214,239,112,346,600,561
614,-14,-629,-300,622,-322,-214,219,146,395,619,570
624,4,-619,-314,622,-307,-204,209,185,409,610,536
580,-63,-644,-258,612,-353,-175,214,200,375,497,385
536,-175,-712,-180,624,-444,-126,224,180,268,307,151
497,-278,-775,-109,636,-527,-107,180,131,151,102,-82
419,-322,-741,-48,580,-531,-92,107,87,82,-19,-229
307,-331,-639,12,473,-485,-73,-14,29,14,-112,-326
209,-341,-551,65,380,-446,-53,-185,-107,-122,-239,-419
97,-361,-458,131,278,-409,-24,-366,-297,-273,-366,-488
-24,-361,-336,192,156,-348,29,-507,-458,-380,-453,-527
-156,-361,-204,258,24,-283,63,-590,-570,-468,-512,-541
-278,-351,-73,314,-102,-212,112,-600,-629,-517,-527,-536
-351,-356,-4,353,-173,-180,161,-551,-634,-541,-536,-527
-405,-385,19,395,-212,-183,185,-497,-653,-580,-561,-527
-434,-414,19,424,-226,-197,200,-448,-673,-629,-605,-556
-434,-419,14,427,-224,-202,204,-419,-692,-663,-639,-566
-395,-400,-4,397,-195,-202,185,-395,-673,-644,-629,-556
-361,-380,-19,370,-170,-200,156,-366,-634,-605,-585,-517
-336,-385,-48,361,-143,-217,141,-307,-580,-541,-531,-463
-322,-390,-68,356,-126,-229,122,-244,-502,-478,-453,-400
-268,-331,-63,300,-102,-197,92,-175,-400,-385,-370,-331
-175,-263,-87,219,-43,-175,73,-102,-312,-307,-292,-278
-122,-234,-112,178,-4,-173,73,-19,-253,-248,-253,-239
-107,-214,-107,161,0,-161,73,68,-185,-204,-209,-209
-97,-161,-63,129,-17,-112,73,126,-136,-146,-161,-175
-78,-122,-43,100,-17,-82,68,151,-92,-102,-131,-151
-87,-107,-19,97,-34,-63,78,151,-78,-82,-117,-141
-112,-112,0,112,-56,-56,97,131,-68,-73,-97,-117
-107,-102,4,104,-56,-48,92,107,-58,-78,-92,-107
-63,-87,-24,75,-19,-56,78,82,-48,-68,-82,-97
-43,-87,-43,65,0,-65,63,39,-53,-58,-68,-82
-78,-78,0,78,-39,-39,48,9,-53,-58,-73,-78
-102,-63,39,82,-70,-12,48,-14,-53,-53,-63,-73
-112,-43,68,78,-90,12,58,-14,-39,-48,-58,-68
-107,-58,48,82,-78,-4,58,-14,-39,-43,-63,-73
-102,-63,39,82,-70,-12,53,0,-39,-39,-63,-68
-87,-63,24,75,-56,-19,53,0,-34,-34,-53,-58
-87,-68,19,78,-53,-24,48,-4,-34,-29,-48,-53
-73,-48,24,61,-48,-12,24,-19,-43,-29,-43,-53
-68,-43,24,56,-46,-9,19,-24,-39,-24,-39,-53
-63,-43,19,53,-41,-12,19,-24,-39,-24,-39,-48
-63,-48,14,56,-39,-17,19,-24,-39,-24,-34,-48
-53,-39,14,46,-34,-12,29,-9,-24,-9,-34,-39
-43,-39,4,41,-24,-17,29,-9,-19,-9,-34,-34
-34,-39,-4,36,-14,-21,29,-9,-14,-9,-34,-29
-19,-39,-19,29,0,-29,24,-9,-9,-9,-34,-24
-19,-39,-19,29,0,-29,14,-19,-19,-14,-29,-24
-29,-39,-9,34,-9,-24,9,-24,-19,-9,-29,-19
-39,-39,0,39,-19,-19,9,-24,-19,-9,-24,-19
-43,-29,14,36,-29,-7,9,-24,-14,-9,-24,-14
-43,-39,4,41,-24,-17,19,-14,-14,-9,-9,-14
-43,-39,4,41,-24,-17,19,-14,-14,-4,-9,-14
-43,-39,4,41,-24,-17,19,-14,-9,-4,-9,-14
-43,-48,-4,46,-19,-26,14,-14,-9,0,-9,-14
-34,-43,-9,39,-12,-26,14,-14,0,9,-9,-14
-34,-34,0,34,-17,-17,14,-14,0,9,-4,-9
-24,-29,-4,26,-9,-17,14,-14,0,9,-4,-9
-19,-24,-4,21,-7,-14,9,-14,0,9,-4,-4
-34,-19,14,26,-24,-2,9,-9,9,14,0,-4
-43,-14,29,29,-36,7,9,-4,9,19,4,-4
-48,-14,34,31,-41,9,9,-4,9,19,4,-4
-48,-14,34,31,-41,9,4,0,14,19,4,0
-34,-14,19,24,-26,2,-9,-9,4,14,9,-4
-19,-14,4,17,-12,-4,-9,-9,4,19,9,-4
-14,-9,4,12,-9,-2,-9,-14,4,19,14,-4
-19,-4,14,12,-17,4,-9,-14,9,19,14,0
-29,-14,14,21,-21,0,0,-9,19,34,9,9
-24,-14,9,19,-17,-2,0,0,19,34,9,9
-24,-14,9,19,-17,-2,0,14,29,43,14,14
-24,-14,9,19,-17,-2,0,29,34,43,19,24
-14,-14,0,14,-7,-7,-14,24,24,34,19,19
-9,-14,-4,12,-2,-9,-14,14,24,34,14,9
0,-9,-9,4,4,-9,-14,9,24,34,14,4
0,-9,-9,4,4,-9,-19,9,24,34,19,-4
-4,0,4,2,-4,2,-14,14,29,53,29,9
-9,0,9,4,-9,4,-9,19,39,53,34,19
-4,0,4,2,-4,2,-9,29,53,53,39,24
-9,0,9,4,-9,4,-4,39,58,53,39,29
-4,-9,-4,7,0,-7,-4,29,53,48,39,34
0,-4,-4,2,2,-4,-9,34,53,58,39,39
14,-4,-19,-4,17,-12,-14,39,48,63,43,34
19,-4,-24,-7,21,-14,-24,43,43,68,48,29
14,-4,-19,-4,17,-12,-24,34,48,68,48,39
14,4,-9,-9,12,-2,-24,43,58,73,48,43
24,4,-19,-14,21,-7,-29,43,63,78,58,43
24,14,-9,-19,17,2,-39,43,68,82,58,43
34,29,-4,-31,19,12,-29,43,78,82,58,39
34,34,0,-34,17,17,-24,53,78,82,58,39
34,39,4,-36,14,21,-24,53,87,82,68,43
34,43,9,-39,12,26,-29,68,87,92,73,43
43,43,0,-43,21,21,-29,87,97,97,87,63
48,43,-4,-46,26,19,-34,87,97,102,87,63
53,43,-9,-48,31,17,-39,87,97,102,87,63
63,53,-9,-58,36,21,-39,92,112,112,102,73
63,48,-14,-56,39,17,-34,102,117,117,97,68
58,43,-14,-51,36,14,-34,107,122,122,102,73
63,43,-19,-53,41,12,-39,117,126,131,102,73
58,43,-14,-51,36,14,-39,122,131,136,107,82
48,53,4,-51,21,29,-39,136,141,141,122,92
48,58,9,-53,19,34,-39,151,146,146,126,97
53,73,19,-63,17,46,-39,156,151,151,131,102
53,82,29,-68,12,56,-39,161,161,161,141,112
63,92,29,-78,17,61,-39,165,170,170,146,107
78,92,14,-85,31,53,-43,175,175,175,146,112
92,92,0,-92,46,46,-43,180,180,180,151,117
102,97,-4,-100,53,46,-43,195,185,190,161,122
97,102,4,-100,46,53,-34,209,204,195,175,131
97,107,9,-102,43,58,-34,209,219,204,180,131
92,107,14,-100,39,61,-34,224,229,209,185,136
92,112,19,-102,36,65,-29,234,239,219,195,136
107,107,0,-107,53,53,-29,244,244,224,195,136
112,107,-4,-109,58,51,-39,244,248,229,195,136
126,107,-19,-117,73,43,-39,248,253,234,200,141
126,117,-9,-122,68,53,-29,268,268,244,209,146
112,126,14,-119,48,70,-39,273,263,239,200,146
112,126,14,-119,48,70,-39,278,268,239,200,146
112,126,14,-119,48,70,-39,283,273,248,209,151
102,131,29,-117,36,80,-39,292,287,253,214,156
107,131,24,-119,41,78,-34,302,297,263,214,165
117,136,19,-126,48,78,-34,307,297,263,214,161
131,136,4,-134,63,70,-34,312,297,268,214,156
136,141,4,-139,65,73,-34,312,307,268,209,156
131,151,19,-141,56,85,-34,302,302,258,209,151
131,151,19,-141,56,85,-34,307,307,268,209,151
126,156,29,-141,48,92,-29,312,312,273,209,151
126,156,29,-141,48,92,-29,312,312,273,209,151
126,146,19,-136,53,82,-19,317,312,263,209,151
126,141,14,-134,56,78,-19,317,317,263,204,146
117,141,24,-129,46,82,-19,317,317,263,204,146
117,141,24,-129,46,82,-19,317,317,263,204,146
117,141,24,-129,46,82,-24,326,317,253,204,146
117,146,29,-131,43,87,-19,326,317,244,204,146
117,146,29,-131,43,87,-19,317,312,239,200,136
122,141,19,-131,51,80,-19,312,312,239,195,136
112,141,29,-126,41,85,-9,317,307,239,200,141
112,141,29,-126,41,85,-14,317,302,244,195,141
102,136,34,-119,34,85,-14,302,297,244,190,136
102,136,34,-119,34,85,-14,297,292,244,185,136
112,136,24,-124,43,80,-24,287,278,234,180,131
117,131,14,-124,51,73,-24,263,263,219,170,126
117,131,14,-124,51,73,-29,244,258,204,161,117
117,126,9,-122,53,68,-29,234,248,200,151,112
92,122,29,-107,31,75,-24,214,248,204,151,117
82,122,39,-102,21,80,-24,200,244,200,146,117
78,117,39,-97,19,78,-24,180,229,190,141,107
82,97,14,-90,34,56,-24,170,224,185,136,102
73,102,29,-87,21,65,-19,161,209,185,146,102
58,97,39,-78,9,68,-19,151,200,180,141,107
53,102,48,-78,2,75,-19,136,185,165,136,107
48,107,58,-78,-4,82,-19,131,180,156,131,112
48,92,43,-70,2,68,-29,112,170,151,126,102
43,87,43,-65,0,65,-29,92,151,141,122,92
39,82,43,-61,-2,63,-29,73,141,126,107,82
29,78,48,-53,-9,63,-24,58,126,122,97,78
14,63,48,-39,-17,56,-19,58,112,102,87,73
4,58,53,-31,-24,56,-19,43,107,102,82,73
0,43,43,-21,-21,43,-19,43,97,92,73,68
-9,39,48,-14,-29,43,-19,34,87,82,63,58
0,48,48,-24,-24,48,-19,24,87,78,53,53
-4,39,43,-17,-24,41,-14,14,73,73,58,48
-9,24,34,-7,-21,29,-14,14,68,63,58,43
-19,19,39,0,-29,29,-14,4,63,53,58,39
-24,24,48,0,-36,36,-14,-4,43,48,39,34
-19,14,34,2,-26,24,-14,-4,39,48,34,29
-14,14,29,0,-21,21,-9,-9,39,43,29,29
-4,14,19,-4,-12,17,-9,-14,34,39,29,19
-19,0,19,9,-19,9,-9,-19,34,34,24,14
-24,-4,19,14,-21,7,-9,-24,34,24,14,9
-39,-9,29,24,-34,9,-9,-29,24,9,9,4
-43,-19,24,31,-34,2,-9,-29,14,9,4,0
-39,-14,24,26,-31,4,9,-24,14,14,4,0
-34,0,34,17,-34,17,9,-24,14,19,4,0
-34,-4,29,19,-31,12,4,-24,14,24,-4,0
-39,0,39,19,-39,19,4,-29,14,24,-4,0
-29,14,43,7,-36,29,4,-29,4,9,0,0
-19,14,34,2,-26,24,4,-29,0,4,-4,-4
-14,-4,9,9,-12,2,9,-34,-4,4,-4,-4
-14,-4,9,9,-12,2,9,-34,-9,0,-4,-9
-24,-14,9,19,-17,-2,9,-24,0,9,-4,-9
-29,-19,9,24,-19,-4,9,-24,-4,9,-9,-9
-43,-24,19,34,-31,-2,9,-24,-4,4,-9,-9
-48,-34,14,41,-31,-9,9,-24,-4,4,-14,-9
-34,-29,4,31,-19,-12,0,-34,0,4,-14,-14
-34,-24,9,29,-21,-7,4,-34,0,4,-14,-14
-34,-19,14,26,-24,-2,9,-34,0,9,-14,-14
-43,-14,29,29,-36,7,9,-29,0,9,-9,-9
-24,-14,9,19,-17,-2,0,-19,0,0,-19,-19
-24,-14,9,19,-17,-2,0,-19,0,0,-19,-24
-29,-14,14,21,-21,0,0,-14,0,0,-24,-24
-29,-14,14,21,-21,0,4,-14,0,-4,-29,-24
-29,-14,14,21,-21,0,4,-24,-9,-4,-29,-24
-29,-4,24,17,-26,9,4,-24,-9,-4,-24,-24
-29,-4,24,17,-26,9,4,-24,-9,0,-24,-24
-29,-4,24,17,-26,9,4,-24,-9,0,-19,-24
-9,-9,0,9,-4,-4,4,-19,-9,-9,-19,-29
-9,-14,-4,12,-2,-9,4,-19,-9,-9,-19,-24
-14,-19,-4,17,-4,-12,4,-19,-4,-9,-19,-24
-14,-19,-4,17,-4,-12,4,-19,-4,-9,-14,-24
-19,-24,-4,21,-7,-14,14,-19,4,4,-4,-19
-24,-34,-9,29,-7,-21,14,-19,4,4,-4,-19
-29,-39,-9,34,-9,-24,14,-19,4,4,-4,-14
-34,-43,-9,39,-12,-26,14,-19,4,4,-4,-4
-14,-19,-4,17,-4,-12,14,-9,14,9,-4,-4
-29,-14,14,21,-21,0,14,-4,14,9,0,-4
-29,-4,24,17,-26,9,14,-4,14,9,4,0
-29,0,29,14,-29,14,14,-4,14,14,4,0
-19,0,19,9,-19,9,24,4,24,14,14,9
-19,4,24,7,-21,14,19,4,24,14,14,9
-19,9,29,4,-24,19,19,4,29,19,14,14
-19,9,29,4,-24,19,24,4,29,24,19,14
-24,0,24,12,-24,12,14,-4,29,24,9,4
-24,0,24,12,-24,12,9,-4,29,24,9,4
-29,0,29,14,-29,14,9,-4,29,29,9,4
-29,0,29,14,-29,14,9,-4,29,29,14,4
-39,-9,29,24,-34,9,19,-4,24,24,14,9
-43,-14,29,29,-36,7,19,-4,24,24,14,14
-53,-14,39,34,-46,12,19,-4,24,24,19,14
-58,-14,43,36,-51,14,19,-4,24,24,19,14
-43,0,43,21,-43,21,9,-4,24,34,29,14
-34,9,43,12,-39,26,9,-4,24,39,29,19
-19,14,34,2,-26,24,9,-9,29,39,29,24
-9,19,29,-4,-19,24,9,-9,29,43,29,24
-9,9,19,0,-14,14,9,-9,24,34,29,34
-9,14,24,-2,-17,19,9,-9,24,29,34,34
-9,14,24,-2,-17,19,9,-9,24,29,39,34
-19,14,34,2,-26,24,9,-9,29,29,39,39
-29,4,34,12,-31,19,9,-9,19,34,29,34
-24,4,29,9,-26,17,4,-19,19,34,29,29
-24,0,24,12,-24,12,4,-19,19,29,24,24
-19,0,19,9,-19,9,4,-19,19,29,24,19
-9,4,14,2,-12,9,14,-19,14,29,19,24
-9,9,19,0,-14,14,4,-24,19,24,19,24
-14,14,29,0,-21,21,4,-24,24,24,24,24
-19,19,39,0,-29,29,14,-19,29,24,24,19
-19,9,29,4,-24,19,4,-19,19,29,14,19
-9,9,19,0,-14,14,4,-19,19,29,14,19
-4,9,14,-2,-9,12,4,-29,19,24,14,19
-4,9,14,-2,-9,12,4,-29,19,24,14,19
-14,9,24,2,-19,17,9,-34,14,24,14,19
-19,9,29,4,-24,19,9,-34,9,19,14,19
-19,9,29,4,-24,19,9,-34,9,19,14,19
-19,9,29,4,-24,19,9,-34,9,19,14,19
4,9,4,-7,0,7,0,-24,9,19,24,19
4,9,4,-7,0,7,0,-24,9,19,24,14
-9,9,19,0,-14,14,4,-24,9,19,24,14
-24,9,34,7,-29,21,4,-24,9,19,24,14
-14,0,14,7,-14,7,4,-39,4,9,9,9
-4,0,4,2,-4,2,-4,-39,4,0,4,9
-4,0,4,2,-4,2,4,-34,4,0,4,14
-14,0,14,7,-14,7,4,-34,4,0,0,14
-19,-4,14,12,-17,4,4,-34,0,9,4,14
-24,-4,19,14,-21,7,4,-34,0,4,4,14
-29,-4,24,17,-26,9,4,-39,-4,4,4,14
-29,-14,14,21,-21,0,0,-39,-4,4,4,9
-24,0,24,12,-24,12,9,-43,-4,0,-4,4
-24,4,29,9,-26,17,9,-43,-4,0,-4,4
-19,4,24,7,-21,14,9,-43,-4,-4,-4,4
-14,9,24,2,-19,17,9,-43,-4,-19,-4,4
-4,4,9,0,-7,7,9,-43,-19,-9,-9,0
-4,4,9,0,-7,7,4,-53,-19,-19,-14,-4
-4,0,4,2,-4,2,0,-53,-19,-19,-14,-4
-14,-4,9,9,-12,2,-9,-53,-24,-19,-14,0
-24,4,29,9,-26,17,0,-53,-24,-9,-14,-4
-19,9,29,4,-24,19,0,-53,-24,-9,-14,0
-19,9,29,4,-24,19,0,-53,-24,-9,-14,0
-24,9,34,7,-29,21,0,-58,-24,-14,-14,-9
-29,-4,24,17,-26,9,9,-58,-14,-14,0,-4
-29,0,29,14,-29,14,9,-58,-19,-14,0,-4
-34,-4,29,19,-31,12,9,-58,-19,-14,-9,0
-19,-9,9,14,-14,0,9,-58,-19,-14,-9,4
-29,-9,19,19,-24,4,9,-48,-19,-19,-9,-4
-43,-14,29,29,-36,7,14,-48,-19,-19,-9,-4
-43,-14,29,29,-36,7,14,-48,-19,-19,-9,-4
-34,-14,19,24,-26,2,14,-48,-14,-19,-9,-4
-39,-4,34,21,-36,14,14,-58,-24,-19,-14,-4
-43,-14,29,29,-36,7,14,-58,-24,-19,-14,-4
-29,-19,9,24,-19,-4,14,-58,-29,-19,-14,-4
-24,-19,4,21,-14,-7,14,-58,-29,-19,-14,-4
-29,-19,9,24,-19,-4,4,-63,-29,-24,-14,-9
-34,-14,19,24,-26,2,4,-63,-29,-24,-14,-9
-29,-14,14,21,-21,0,4,-58,-29,-24,-14,-9
-48,-14,34,31,-41,9,4,-58,-39,-24,-19,-9
-43,-9,34,26,-39,12,4,-63,-39,-34,-24,-9
-39,-4,34,21,-36,14,4,-63,-34,-34,-24,-9
-34,-4,29,19,-31,12,4,-63,-34,-34,-19,-9
-34,-4,29,19,-31,12,4,-63,-34,-39,-19,-9
-34,-14,19,24,-26,2,4,-63,-29,-29,-24,-14
-34,-14,19,24,-26,2,4,-63,-29,-29,-24,-14
-34,-14,19,24,-26,2,4,-63,-29,-29,-24,-14
-29,-14,14,21,-21,0,4,-68,-29,-29,-24,-14
-34,0,34,17,-34,17,14,-58,-29,-24,-24,-14
-24,0,24,12,-24,12,14,-58,-29,-24,-24,-14
-39,0,39,19,-39,19,14,-58,-29,-19,-19,-14
-48,0,48,24,-48,24,14,-53,-24,-19,-19,-9
-34,-4,29,19,-31,12,9,-63,-34,-24,-29,-9
-24,-4,19,14,-21,7,4,-63,-34,-34,-29,-14
-14,-4,9,9,-12,2,0,-63,-43,-39,-34,-14
-9,-4,4,7,-7,0,-4,-63,-48,-48,-43,-19
-19,4,24,7,-21,14,0,-63,-39,-48,-34,-24
-24,9,34,7,-29,21,0,-63,-34,-43,-29,-24
-29,9,39,9,-34,24,0,-63,-34,-39,-29,-24
-34,4,39,14,-36,21,0,-63,-39,-39,-24,-24
-34,-4,29,19,-31,12,-9,-73,-48,-39,-34,-14
-43,-9,34,26,-39,12,-9,-73,-48,-43,-34,-14
-43,-14,29,29,-36,7,4,-73,-48,-43,-39,-4
-43,-14,29,29,-36,7,4,-73,-43,-43,-39,-4
-29,-4,24,17,-26,9,4,-63,-34,-39,-29,-14
-24,-4,19,14,-21,7,4,-68,-34,-39,-29,-14
-24,-4,19,14,-21,7,4,-68,-43,-39,-29,-14
-24,-14,9,19,-17,-2,4,-63,-43,-34,-29,-14
-24,-4,19,14,-21,7,-4,-63,-43,-34,-29,-14
-29,0,29,14,-29,14,-4,-68,-43,-39,-29,-14
-29,0,29,14,-29,14,-4,-68,-43,-39,-29,-14
-24,0,24,12,-24,12,-4,-68,-43,-39,-29,-9
-24,0,24,12,-24,12,4,-68,-43,-39,-34,-9
-29,0,29,14,-29,14,4,-68,-43,-39,-34,-14
-29,0,29,14,-29,14,4,-68,-43,-39,-34,-14
-24,0,24,12,-24,12,4,-73,-48,-43,-34,-14
-14,-9,4,12,-9,-2,4,-73,-53,-43,-34,-24
-39,-9,29,24,-34,9,4,-73,-53,-43,-34,-24
-39,-9,29,24,-34,9,4,-73,-39,-39,-34,-24
-34,-9,24,21,-29,7,9,-73,-39,-39,-34,-19
-24,-9,14,17,-19,2,0,-68,-39,-39,-34,-9
-29,-9,19,19,-24,4,0,-68,-43,-48,-34,-14
-43,-9,34,26,-39,12,0,-68,-43,-39,-34,-14
-48,-9,39,29,-43,14,0,-68,-43,-39,-29,-14
-34,0,34,17,-34,17,9,-68,-34,-48,-29,-14
-29,0,29,14,-29,14,9,-68,-34,-48,-29,-14
-24,0,24,12,-24,12,9,-68,-34,-43,-29,-14
-19,0,19,9,-19,9,9,-73,-39,-43,-29,-14
-29,4,34,12,-31,19,4,-68,-39,-39,-19,-14
-19,4,24,7,-21,14,4,-68,-34,-39,-24,-14
-19,0,19,9,-19,9,4,-63,-34,-39,-24,-14
-19,0,19,9,-19,9,4,-63,-34,-39,-19,-14
-29,-4,24,17,-26,9,4,-73,-39,-43,-24,-14
-39,-4,34,21,-36,14,4,-68,-34,-48,-29,-14
-43,-4,39,24,-41,17,4,-68,-34,-53,-34,-19
-43,-4,39,24,-41,17,9,-63,-34,-53,-29,-29
-39,0,39,19,-39,19,9,-63,-34,-48,-19,-19
-39,0,39,19,-39,19,9,-63,-34,-43,-19,-14
-29,9,39,9,-34,24,9,-63,-29,-29,-14,-4
-29,19,48,4,-39,34,9,-58,-19,-19,-9,0
-14,29,43,-7,-29,36,14,-48,-9,-24,0,0
-9,39,48,-14,-29,43,14,-43,-4,-19,0,4
0,43,43,-21,-21,43,19,-43,0,-19,4,14
0,48,48,-24,-24,48,19,-43,14,-19,4,14
9,53,43,-31,-17,48,19,-34,14,-14,4,14
9,58,48,-34,-19,53,24,-29,24,-4,9,24
14,68,53,-41,-19,61,34,-19,19,4,14,29
19,73,53,-46,-17,63,34,-19,19,9,19,29
9,97,87,-53,-39,92,53,0,53,34,43,53
39,87,48,-63,-4,68,53,4,58,29,39,43
9,87,78,-48,-34,82,53,4,58,29,39,34
-9,87,97,-39,-53,92,48,14,58,39,48,43
-9,87,97,-39,-53,92,39,0,58,39,48,48
9,97,87,-53,-39,92,29,-9,48,29,39,39
19,97,78,-58,-29,87,19,-9,48,29,39,39
29,97,68,-63,-19,82,9,-9,48,29,39,39
39,97,58,-68,-9,78,0,-9,48,29,39,39
48,87,39,-68,4,63,-19,-19,48,39,58,53
58,97,39,-78,9,68,-34,-19,48,48,63,63
63,102,39,-82,12,70,-43,-19,53,48,68,68
63,122,58,-92,2,90,-58,-19,58,48,73,73
68,102,34,-85,17,68,-68,-14,48,48,63,63
63,87,24,-75,19,56,-78,-19,39,43,63,63
58,87,29,-73,14,58,-78,-19,29,34,63,63
63,82,19,-73,21,51,-73,-19,29,29,63,63
78,78,0,-78,39,39,-68,-24,19,39,63,73
78,73,-4,-75,41,34,-68,-29,14,29,53,58
78,73,-4,-75,41,34,-68,-39,0,19,48,53
73,68,-4,-70,39,31,-58,-48,0,9,43,48
58,78,19,-68,19,48,-34,-39,0,19,39,58
53,78,24,-65,14,51,-34,-34,0,14,39,58
39,58,19,-48,9,39,-29,-34,4,9,34,53
39,58,19,-48,9,39,-29,-43,4,4,19,48
48,43,-4,-46,26,19,-39,-58,-19,-9,4,24
48,24,-24,-36,36,0,-39,-73,-29,-14,-4,14
34,14,-19,-24,26,-2,-39,-82,-39,-24,-14,4
19,4,-14,-12,17,-4,-39,-87,-48,-39,-19,0
34,9,-24,-21,29,-7,-39,-97,-53,-48,-29,4
34,9,-24,-21,29,-7,-39,-97,-53,-53,-34,0
24,4,-19,-14,21,-7,-29,-92,-53,-58,-34,-4
4,4,0,-4,2,2,-19,-92,-53,-63,-34,-4
-9,4,14,2,-12,9,-4,-87,-43,-68,-34,0
-14,0,14,7,-14,7,0,-82,-43,-63,-34,-4
-19,0,19,9,-19,9,0,-78,-53,-63,-29,-4
-29,-9,19,19,-24,4,0,-82,-58,-63,-29,-4
-34,-4,29,19,-31,12,-4,-87,-68,-73,-39,-9
-29,-4,24,17,-26,9,-9,-97,-73,-82,-48,-19
-29,-14,14,21,-21,0,-14,-107,-82,-97,-58,-34
-34,-19,14,26,-24,-2,-19,-122,-97,-102,-73,-48
-43,-19,24,31,-34,2,-9,-117,-87,-92,-63,-48
-43,-24,19,34,-31,-2,-9,-112,-82,-92,-63,-48
-34,-29,4,31,-19,-12,-9,-107,-82,-92,-63,-48
-43,-39,4,41,-24,-17,-9,-102,-82,-92,-63,-48
-39,-39,0,39,-19,-19,4,-102,-82,-82,-63,-39
-34,-34,0,34,-17,-17,4,-102,-87,-87,-63,-39
-29,-34,-4,31,-12,-19,4,-112,-92,-92,-68,-43
-24,-34,-9,29,-7,-21,4,-112,-92,-97,-68,-43
-39,-34,4,36,-21,-14,4,-112,-92,-97,-68,-43
-43,-29,14,36,-29,-7,4,-112,-92,-87,-68,-43
-43,-24,19,34,-31,-2,4,-112,-92,-87,-63,-43
-48,-24,24,36,-36,0,4,-112,-92,-87,-63,-39
-53,-34,19,43,-36,-7,0,-122,-87,-92,-73,-39
-53,-34,19,43,-36,-7,0,-117,-87,-92,-73,-39
-53,-34,19,43,-36,-7,4,-117,-87,-92,-73,-39
-63,-34,29,48,-46,-2,4,-117,-87,-92,-78,-39
-73,-29,43,51,-58,7,14,-107,-82,-92,-73,-39
-73,-29,43,51,-58,7,14,-107,-82,-97,-73,-43
-58,-24,34,41,-46,4,14,-107,-82,-97,-68,-43
-58,-24,34,41,-46,4,14,-107,-82,-92,-63,-43
-68,-34,34,51,-51,0,14,-97,-82,-92,-63,-43
-73,-34,39,53,-56,2,14,-97,-82,-92,-58,-43
-73,-29,43,51,-58,7,19,-97,-82,-92,-53,-43
-73,-29,43,51,-58,7,19,-97,-82,-92,-53,-39
-78,-24,53,51,-65,14,19,-112,-73,-92,-53,-39
-63,-24,39,43,-51,7,19,-112,-73,-92,-53,-39
-48,-19,29,34,-39,4,19,-112,-73,-92,-53,-39
-43,-19,24,31,-34,2,19,-112,-73,-92,-53,-39
-43,-29,14,36,-29,-7,9,-107,-78,-97,-53,-48
-43,-29,14,36,-29,-7,9,-107,-78,-97,-58,-48
-43,-29,14,36,-29,-7,9,-102,-78,-97,-63,-48
-43,-29,14,36,-29,-7,9,-102,-78,-97,-68,-48
-48,-19,29,34,-39,4,14,-97,-73,-92,-63,-43
-63,-24,39,43,-51,7,19,-97,-68,-87,-58,-39
-73,-24,48,48,-61,12,24,-97,-63,-82,-53,-34
-78,-24,53,51,-65,14,29,-97,-58,-78,-48,-24
-34,-19,14,26,-24,-2,0,-107,-63,-78,-58,-34
-58,-9,48,34,-53,19,19,-107,-63,-73,-53,-19
-43,4,48,19,-46,26,29,-107,-48,-53,-29,0
-43,34,78,4,-61,56,29,-107,-39,-39,-14,19
-73,58,131,7,-102,95,29,-102,-24,-19,9,43
-82,68,151,7,-117,109,29,-92,-14,-4,34,68
-63,68,131,-2,-97,100,34,-58,9,24,63,82
-39,63,102,-12,-70,82,34,-29,29,58,87,107
-24,53,78,-14,-51,65,34,-9,43,68,117,136
4,43,39,-24,-17,41,29,9,53,78,161,170
19,0,-19,-9,19,-9,14,29,43,87,180,195
87,-34,-122,-26,104,-78,-24,19,9,53,165,190
195,-53,-248,-70,222,-151,-63,14,-34,24,161,190
239,-68,-307,-85,273,-187,-82,19,-48,24,180,204
307,-68,-375,-119,341,-222,-112,58,-43,48,224,258
400,-34,-434,-183,417,-234,-151,122,-9,102,307,336
468,-19,-488,-224,478,-253,-170,195,39,170,390,409
546,-14,-561,-265,553,-287,-195,248,78,229,463,468
629,-9,-639,-309,634,-324,-234,229,82,268,512,502
673,-4,-678,-334,675,-341,-253,200,97,297,541,512
663,4,-658,-334,661,-326,-234,200,136,331,541,497
658,-14,-673,-322,666,-344,-195,195,141,297,458,395
634,-87,-722,-273,678,-405,-165,195,131,209,287,200
566,-180,-746,-192,656,-463,-136,190,102,92,102,-24
488,-244,-732,-122,610,-488,-102,126,78,34,-29,-190
405,-263,-668,-70,536,-466,-73,4,29,-14,-112,-268
317,-273,-590,-21,453,-431,-43,-156,-78,-112,-200,-341
204,-292,-497,43,351,-395,-14,-346,-239,-253,-317,-409
73,-292,-366,109,219,-329,9,-536,-419,-380,-414,-458
-78,-292,-214,185,68,-253,53,-658,-561,-488,-473,-483
-190,-283,-92,236,-48,-187,122,-688,-639,-546,-517,-478
-283,-258,24,270,-153,-117,161,-658,-663,-580,-536,-478
-375,-258,117,317,-246,-70,175,-614,-663,-600,-541,-468
-424,-297,126,361,-275,-85,190,-556,-673,-629,-566,-478
-424,-331,92,378,-258,-119,214,-507,-683,-663,-600,-497
-405,-331,73,368,-239,-129,204,-473,-663,-644,-600,-488
-370,-302,68,336,-219,-117,185,-434,-614,-595,-546,-439
-336,-297,39,317,-187,-129,180,-375,-570,-541,-492,-395
-273,-292,-19,283,-126,-156,161,-302,-512,-497,-434,-351
-209,-263,-53,236,-78,-158,112,-244,-429,-424,-370,-292
-156,-204,-48,180,-53,-126,73,-170,-341,-346,-292,-248
-122,-146,-24,134,-48,-85,53,-68,-253,-268,-234,-209
-68,-87,-19,78,-24,-53,53,29,-165,-195,-180,-151
-48,-63,-14,56,-17,-39,63,97,-107,-136,-122,-107
-68,-53,14,61,-41,-19,78,141,-63,-92,-82,-82
-68,-29,39,48,-53,4,87,141,-48,-82,-68,-63
-63,-14,48,39,-56,17,87,112,-48,-82,-78,-58
-68,-14,53,41,-61,19,92,87,-48,-78,-63,-48
-63,-9,53,36,-58,21,87,82,-29,-58,-43,-19
-53,9,63,21,-58,36,73,58,-14,-48,-39,-4
-68,29,97,19,-82,63,58,9,-24,-58,-34,-19
-63,24,87,19,-75,56,48,-14,-24,-63,-34,-14
-53,24,78,14,-65,51,58,-14,-19,-48,-29,-9
-58,24,82,17,-70,53,48,-4,-19,-53,-24,-4
-53,24,78,14,-65,51,43,9,-19,-48,-24,0
-39,29,68,4,-53,48,43,9,-14,-43,-14,9
-39,29,68,4,-53,48,39,4,-14,-39,-9,14
-29,39,68,-4,-48,53,34,9,-9,-29,-4,14
-29,43,73,-7,-51,58,29,4,0,-24,0,14
-29,43,73,-7,-51,58,29,4,4,-24,0,19
-34,39,73,-2,-53,56,29,4,9,-24,4,19
-24,39,63,-7,-43,51,29,0,14,-29,4,24
-24,39,63,-7,-43,51,29,0,9,-29,4,24
-24,39,63,-7,-43,51,29,0,4,-29,4,24
-19,39,58,-9,-39,48,24,0,0,-29,4,24
-4,58,63,-26,-34,61,24,0,0,-24,9,24
0,58,58,-29,-29,58,19,-4,0,-19,9,29
4,58,53,-31,-24,56,19,-4,0,-19,14,29
14,68,53,-41,-19,61,19,-4,4,-19,14,34
9,58,48,-34,-19,53,19,-4,14,-9,19,34
4,58,53,-31,-24,56,19,-4,14,-4,19,34
0,58,58,-29,-29,58,19,-4,19,-4,19,34
-4,48,53,-21,-29,51,14,-4,19,0,19,34
-4,53,58,-24,-31,56,9,-4,19,-9,19,24
-4,63,68,-29,-36,65,4,-4,19,-9,24,29
4,68,63,-36,-29,65,0,-4,19,-9,24,29
9,73,63,-41,-26,68,-9,-4,19,-9,24,34
19,68,48,-43,-14,58,-4,0,29,4,39,39
14,73,58,-43,-21,65,0,4,29,9,43,43
14,73,58,-43,-21,65,4,4,29,9,43,48
19,73,53,-46,-17,63,4,9,34,9,43,58
4,73,68,-39,-31,70,0,9,34,4,39,53
9,73,63,-41,-26,68,0,9,34,9,39,53
4,78,73,-41,-34,75,0,4,34,9,43,53
-9,82,92,-36,-51,87,0,4,39,9,43,58
4,73,68,-39,-31,70,0,14,39,14,58,58
14,73,58,-43,-21,65,0,19,39,14,58,58
19,73,53,-46,-17,63,0,29,48,24,63,63
24,73,48,-48,-12,61,0,39,53,24,68,73
19,73,53,-46,-17,63,-4,39,53,24,68,73
19,73,53,-46,-17,63,-4,34,53,24,63,68
24,78,53,-51,-14,65,-4,34,53,24,63,68
19,78,58,-48,-19,68,-9,39,53,24,68,63
24,68,43,-46,-9,56,-19,39,53,43,68,63
29,68,39,-48,-4,53,-19,39,58,43,73,68
43,68,24,-56,9,46,-24,43,68,43,78,68
48,68,19,-58,14,43,-24,48,68,43,78,68
29,82,53,-56,-12,68,-19,48,68,48,87,87
29,92,63,-61,-17,78,-19,53,73,58,87,97
39,97,58,-68,-9,78,-19,58,73,63,92,97
39,102,63,-70,-12,82,-24,63,73,68,97,97
29,97,68,-63,-19,82,-24,53,68,63,87,87
34,102,68,-68,-17,85,-24,63,78,63,87,92
48,97,48,-73,0,73,-29,63,82,63,97,92
53,102,48,-78,2,75,-39,63,87,63,97,92
63,112,48,-87,7,80,-39,73,87,73,107,87
63,112,48,-87,7,80,-34,82,87,73,107,87
63,112,48,-87,7,80,-34,82,97,73,117,92
63,112,48,-87,7,80,-39,97,97,82,122,92
73,122,48,-97,12,85,-29,107,117,87,117,102
78,122,43,-100,17,82,-34,107,117,92,117,102
82,122,39,-102,21,80,-39,107,117,92,117,102
92,131,39,-112,26,85,-39,112,131,102,131,112
102,122,19,-112,41,70,-43,131,136,97,146,117
107,122,14,-114,46,68,-43,136,141,102,151,122
122,126,4,-124,58,65,-48,146,146,112,151,122
126,131,4,-129,61,68,-48,151,151,117,156,131
117,126,9,-122,53,68,-39,156,161,131,161,146
107,126,19,-117,43,73,-39,170,165,136,165,146
102,136,34,-119,34,85,-39,175,170,141,170,146
92,141,48,-117,21,95,-39,180,180,151,180,151
102,151,48,-126,26,100,-48,190,200,151,185,156
117,151,34,-134,41,92,-53,204,204,156,185,161
131,151,19,-141,56,85,-53,214,209,161,190,165
141,156,14,-148,63,85,-53,234,214,170,200,170
156,170,14,-163,70,92,-53,239,214,175,204,170
156,175,19,-165,68,97,-53,239,229,185,209,170
151,175,24,-163,63,100,-53,253,239,190,214,175
151,180,29,-165,61,104,-48,263,248,200,224,175
146,175,29,-161,58,102,-48,283,253,195,224,185
151,175,24,-163,63,100,-58,283,258,200,224,185
165,175,9,-170,78,92,-58,287,263,204,229,190
165,185,19,-175,73,102,-48,307,278,214,239,195
165,195,29,-180,68,112,-48,302,283,229,239,195
170,195,24,-183,73,109,-48,307,287,229,239,195
175,195,19,-185,78,107,-48,312,292,239,248,200
170,200,29,-185,70,114,-48,322,307,244,253,204
161,200,39,-180,61,119,-53,322,297,234,244,195
165,204,39,-185,63,122,-53,326,297,234,244,190
175,204,29,-190,73,117,-53,331,297,239,244,185
175,209,34,-192,70,122,-53,331,307,239,239,185
170,200,29,-185,70,114,-48,346,322,229,248,190
170,200,29,-185,70,114,-43,356,326,239,248,190
165,204,39,-185,63,122,-34,366,331,244,248,190
165,204,39,-185,63,122,-29,370,331,244,248,190
170,204,34,-187,68,119,-34,366,322,244,248,190
175,200,24,-187,75,112,-39,366,326,244,244,185
170,200,29,-185,70,114,-43,366,326,244,244,185
175,200,24,-187,75,112,-48,366,326,244,244,185
161,200,39,-180,61,119,-43,375,336,253,244,195
156,204,48,-180,53,126,-39,375,336,244,244,195
151,204,53,-178,48,129,-39,366,331,239,239,185
151,200,48,-175,51,124,-39,361,331,239,234,185
151,195,43,-173,53,119,-29,356,326,234,219,170
151,190,39,-170,56,114,-34,356,322,234,214,170
141,180,39,-161,51,109,-34,341,317,229,209,165
141,175,34,-158,53,104,-34,336,312,224,204,165
146,180,34,-163,56,107,-43,322,307,209,209,175
146,180,34,-163,56,107,-43,302,292,200,209,175
141,185,43,-163,48,114,-48,287,287,190,209,170
136,185,48,-161,43,117,-48,283,278,190,209,170
136,195,58,-165,39,126,-34,253,258,195,209,175
131,200,68,-165,31,134,-34,239,253,190,204,175
131,200,68,-165,31,134,-34,219,239,180,200,165
141,185,43,-163,48,114,-34,209,234,175,195,161
126,175,48,-151,39,112,-39,195,219,165,185,156
107,165,58,-136,24,112,-39,180,209,161,180,156
97,165,68,-131,14,117,-39,161,195,146,175,151
87,165,78,-126,4,122,-39,151,190,136,170,151
78,151,73,-114,2,112,-39,126,190,131,165,141
73,146,73,-109,0,109,-39,112,170,122,161,131
68,141,73,-104,-2,107,-39,97,161,107,146,122
58,136,78,-97,-9,107,-34,87,146,102,136,117
58,126,68,-92,-4,97,-39,68,131,92,122,102
53,126,73,-90,-9,100,-39,53,126,92,122,102
53,117,63,-85,-4,90,-39,53,117,82,117,97
48,117,68,-82,-9,92,-39,43,107,73,112,87
39,122,82,-80,-21,102,-29,34,107,68,107,87
34,117,82,-75,-24,100,-24,24,92,63,107,87
29,107,78,-68,-24,92,-24,24,87,53,102,87
19,107,87,-63,-34,97,-24,14,82,43,97,87
14,112,97,-63,-41,104,-34,4,63,39,87,82
19,102,82,-61,-31,92,-34,4,58,39,82,78
24,102,78,-63,-26,90,-29,0,58,34,78,78
34,102,68,-68,-17,85,-29,-4,53,29,78,68
24,92,68,-58,-21,80,-19,-9,43,24,73,63
24,82,58,-53,-17,70,-19,-14,43,14,63,58
14,73,58,-43,-21,65,-19,-19,34,0,58,53
14,58,43,-36,-14,51,-19,-19,24,0,53,48
4,48,43,-26,-19,46,-9,-24,24,0,53,39
4,58,53,-31,-24,56,-9,-24,24,0,53,39
0,48,48,-24,-24,48,-14,-24,24,0,43,39
-9,48,58,-19,-34,53,-14,-29,24,-4,43,39
-9,53,63,-21,-36,58,-14,-29,34,-9,39,39
0,53,53,-26,-26,53,-14,-29,29,-14,34,34
4,34,29,-19,-12,31,-9,-34,24,-14,34,34
4,34,29,-19,-12,31,-9,-34,19,-19,34,29
9,39,29,-24,-9,34,-19,-34,19,-19,34,29
9,39,29,-24,-9,34,-19,-34,14,-19,29,29
0,39,39,-19,-19,39,-19,-34,14,-24,29,29
0,34,34,-17,-17,34,-19,-34,14,-24,24,29
14,39,24,-26,-4,31,-19,-34,9,-24,24,24
14,43,29,-29,-7,36,-14,-34,9,-24,24,24
14,48,34,-31,-9,41,-9,-34,9,-19,24,24
4,53,48,-29,-21,51,-9,-29,9,-19,29,29
4,43,39,-24,-17,41,-9,-19,19,-19,39,29
4,43,39,-24,-17,41,-9,-19,19,-19,39,24
0,43,43,-21,-21,43,-9,-14,19,-19,34,24
0,43,43,-21,-21,43,-4,-14,19,-24,29,24
9,43,34,-26,-12,39,-14,-24,9,-24,19,24
9,53,43,-31,-17,48,-14,-24,9,-24,24,24
9,53,43,-31,-17,48,-14,-24,9,-19,24,24
9,53,43,-31,-17,48,-14,-24,9,-19,29,24
14,48,34,-31,-9,41,-14,-19,9,-19,29,19
9,43,34,-26,-12,39,-14,-19,9,-19,29,24
0,39,39,-19,-19,39,-14,-19,14,-19,29,24
-4,39,43,-17,-24,41,-14,-19,14,-19,34,24
4,48,43,-26,-19,46,-14,-19,14,-24,34,34
4,43,39,-24,-17,41,-14,-19,14,-24,34,29
4,43,39,-24,-17,41,-14,-19,14,-24,34,29
4,43,39,-24,-17,41,-14,-19,14,-24,34,34
14,63,48,-39,-17,56,-4,-19,34,-14,43,43
0,63,63,-31,-31,63,-4,-14,34,-9,48,43
0,68,68,-34,-34,68,-4,-14,34,-4,53,48
0,68,68,-34,-34,68,-4,-14,34,4,53,48
9,58,48,-34,-19,53,-4,-14,34,-4,53,39
9,63,53,-36,-21,58,-9,-14,34,-4,53,39
9,68,58,-39,-24,63,-9,-14,39,0,53,43
9,68,58,-39,-24,63,-4,-14,39,4,58,43
4,68,63,-36,-29,65,-4,-24,39,4,48,53
4,68,63,-36,-29,65,-9,-24,39,4,48,53
0,68,68,-34,-34,68,-9,-24,39,9,48,53
0,68,68,-34,-34,68,-9,-24,39,9,53,53
14,68,53,-41,-19,61,-9,-14,43,4,53,48
14,63,48,-39,-17,56,-9,-14,43,4,53,53
9,63,53,-36,-21,58,-9,-14,43,4,58,53
9,63,53,-36,-21,58,-9,-14,43,4,58,53
4,63,58,-34,-26,61,-9,-14,43,4,58,53
4,68,63,-36,-29,65,-9,-14,43,9,58,58
9,68,58,-39,-24,63,-9,-19,48,9,58,63
9,68,58,-39,-24,63,-9,-19,48,14,58,63
9,68,58,-39,-24,63,-9,-9,53,14,58,63
9,73,63,-41,-26,68,-9,-9,53,9,63,63
9,73,63,-41,-26,68,-9,-9,53,9,68,63
0,73,73,-36,-36,73,-9,-9,58,9,68,68
9,73,63,-41,-26,68,-9,-9,48,4,58,68
14,73,58,-43,-21,65,-14,-19,48,4,58,68
14,68,53,-41,-19,61,-14,-19,48,0,53,68
19,68,48,-43,-14,58,-14,-19,48,0,53,68
14,58,43,-36,-14,51,-24,-29,29,0,48,63
9,58,48,-34,-19,53,-34,-34,29,-4,48,63
0,58,58,-29,-29,58,-34,-34,29,-4,53,63
-9,58,68,-24,-39,63,-24,-29,29,-4,53,58
-9,58,68,-24,-39,63,-24,-39,29,-9,53,58
0,58,58,-29,-29,58,-24,-39,29,-9,53,58
4,58,53,-31,-24,56,-24,-48,29,-14,53,58
4,58,53,-31,-24,56,-24,-48,29,-14,53,58
19,73,53,-46,-17,63,-24,-43,34,-9,53,58
19,78,58,-48,-19,68,-19,-43,29,-9,53,58
24,82,58,-53,-17,70,-14,-43,29,-4,53,58
29,87,58,-58,-14,73,-9,-43,29,0,53,58
34,82,48,-58,-7,65,-19,-43,29,0,63,68
24,78,53,-51,-14,65,-19,-43,29,0,63,63
0,73,73,-36,-36,73,-14,-43,29,0,63,63
-24,68,92,-21,-58,80,-14,-43,29,0,63,63
-9,68,78,-29,-43,73,-19,-58,19,-9,48,48
4,68,63,-36,-29,65,-34,-58,14,-19,43,48
9,68,58,-39,-24,63,-29,-53,9,-19,43,53
4,68,63,-36,-29,65,-34,-53,4,-19,39,53
4,73,68,-39,-31,70,-24,-53,0,-19,34,43
4,73,68,-39,-31,70,-24,-53,0,-24,34,43
4,73,68,-39,-31,70,-24,-58,-4,-24,34,43
9,63,53,-36,-21,58,-29,-58,-4,-24,34,39
4,53,48,-29,-21,51,-29,-63,4,-34,34,43
-4,53,58,-24,-31,56,-29,-63,4,-29,34,43
-9,48,58,-19,-34,53,-29,-63,4,-29,34,43
-14,48,63,-17,-39,56,-29,-63,4,-39,34,43
-9,53,63,-21,-36,58,-24,-53,9,-34,29,39
-4,53,58,-24,-31,56,-24,-63,9,-39,24,34
0,48,48,-24,-24,48,-24,-63,9,-34,24,34
-4,43,48,-19,-26,46,-29,-63,4,-29,24,39
-14,43,58,-14,-36,51,-19,-63,4,-29,34,43
-9,48,58,-19,-34,53,-19,-63,4,-29,34,48
-9,48,58,-19,-34,53,-19,-63,4,-29,34,48
-14,48,63,-17,-39,56,-19,-68,4,-34,34,39
-4,53,58,-24,-31,56,-29,-68,4,-34,29,39
0,68,68,-34,-34,68,-29,-68,0,-34,29,34
0,73,73,-36,-36,73,-29,-68,0,-34,19,34
19,78,58,-48,-19,68,-29,-68,0,-34,19,34
0,68,68,-34,-34,68,-19,-68,0,-39,19,43
-14,63,78,-24,-46,70,-14,-68,0,-39,19,43
-14,63,78,-24,-46,70,-14,-68,0,-39,19,43
-4,63,68,-29,-36,65,-14,-68,4,-39,19,43
-14,63,78,-24,-46,70,-14,-68,-4,-48,14,39
-24,53,78,-14,-51,65,-14,-68,-4,-48,14,34
-14,48,63,-17,-39,56,-14,-68,-9,-48,14,29
-14,48,63,-17,-39,56,-14,-68,-9,-48,14,24
-14,48,63,-17,-39,56,-24,-73,-9,-53,4,9
-14,53,68,-19,-41,61,-24,-73,-9,-53,4,9
-4,53,58,-24,-31,56,-24,-68,-9,-53,4,9
-19,53,73,-17,-46,63,-24,-68,-19,-53,0,9
-9,43,53,-17,-31,48,-24,-82,-19,-63,4,9
-9,43,53,-17,-31,48,-24,-82,-14,-63,4,9
-9,39,48,-14,-29,43,-24,-82,-14,-63,9,9
-14,34,48,-9,-31,41,-24,-82,-14,-68,9,9
-19,43,63,-12,-41,53,-19,-73,-9,-63,4,9
-24,43,68,-9,-46,56,-14,-73,-9,-58,4,14
-29,43,73,-7,-51,58,-9,-73,-9,-53,4,19
-29,43,73,-7,-51,58,-4,-78,-9,-48,4,24
-19,58,78,-19,-48,68,-14,-78,-9,-63,4,14
-4,58,63,-26,-34,61,-14,-78,-9,-63,4,14
-14,58,73,-21,-43,65,-14,-78,-9,-58,9,14
-19,58,78,-19,-48,68,-14,-73,-4,-58,9,19
-29,43,73,-7,-51,58,-4,-73,-14,-48,9,19
-24,43,68,-9,-46,56,-4,-73,-14,-53,9,14
-19,43,63,-12,-41,53,-4,-73,-24,-53,4,14
-19,43,63,-12,-41,53,-4,-73,-29,-58,-4,9
-14,34,48,-9,-31,41,-4,-73,-29,-68,-4,14
-14,39,53,-12,-34,46,-9,-73,-24,-63,0,14
-14,39,53,-12,-34,46,-14,-73,-24,-58,0,14
-14,34,48,-9,-31,41,-19,-73,-29,-58,4,14
-24,29,53,-2,-39,41,-19,-73,-19,-58,4,4
-34,29,63,2,-48,46,-19,-73,-19,-63,4,4
-34,29,63,2,-48,46,-4,-73,-19,-63,0,14
-34,34,68,0,-51,51,-4,-73,-14,-63,0,14
-19,43,63,-12,-41,53,-14,-82,-24,-68,-9,4
-14,43,58,-14,-36,51,-14,-87,-24,-68,-9,4
-14,43,58,-14,-36,51,-14,-87,-34,-68,-9,4
-14,34,48,-9,-31,41,-14,-82,-34,-63,-9,4
-4,34,39,-14,-21,36,-24,-82,-34,-63,-9,-4
-9,39,48,-14,-29,43,-24,-87,-34,-68,-9,-4
-9,39,48,-14,-29,43,-24,-87,-34,-68,-9,-4
-4,39,43,-17,-24,41,-24,-87,-34,-68,-9,0
-14,39,53,-12,-34,46,-24,-87,-34,-68,-14,-9
-19,39,58,-9,-39,48,-24,-87,-34,-68,-14,-14
-19,39,58,-9,-39,48,-24,-87,-34,-68,-14,-14
-14,39,53,-12,-34,46,-24,-92,-39,-73,-14,-14
-9,39,48,-14,-29,43,-14,-82,-34,-73,-4,-14
-39,39,78,0,-58,58,-14,-82,-34,-73,-4,-14
-43,39,82,2,-63,61,-14,-82,-19,-68,-4,-14
-43,39,82,2,-63,61,-9,-82,-19,-68,-4,-9
-24,39,63,-7,-43,51,-9,-87,-29,-68,-4,-9
-19,39,58,-9,-39,48,-9,-87,-34,-78,-4,-14
-24,39,63,-7,-43,51,-9,-87,-34,-68,-4,-14
-19,39,58,-9,-39,48,-9,-87,-34,-68,0,-14
-14,39,53,-12,-34,46,-19,-87,-34,-78,-9,-14
-9,39,48,-14,-29,43,-19,-87,-34,-78,-9,-14
-4,39,43,-17,-24,41,-19,-87,-34,-73,-9,-14
0,39,39,-19,-19,39,-19,-92,-39,-73,-9,-14
-4,34,39,-14,-21,36,-14,-97,-29,-78,-9,-14
0,34,34,-17,-17,34,-14,-97,-24,-78,-14,-14
-4,29,34,-12,-19,31,-14,-92,-24,-78,-14,-14
-9,29,39,-9,-24,34,-14,-92,-24,-78,-9,-14
-19,43,63,-12,-41,53,-14,-82,-19,-68,0,-9
-29,43,73,-7,-51,58,-14,-78,-14,-68,0,-4
-34,43,78,-4,-56,61,-14,-78,-14,-68,0,-4
-34,43,78,-4,-56,61,-9,-73,-14,-63,9,-9
-39,58,97,-9,-68,78,-9,-73,-14,-53,9,-9
-39,58,97,-9,-68,78,-9,-73,-14,-53,9,-4
-29,68,97,-19,-63,82,-9,-73,-9,-43,14,4
-29,78,107,-24,-68,92,-9,-68,0,-39,19,9
-9,73,82,-31,-46,78,-4,-58,4,-34,29,9
0,78,78,-39,-39,78,-4,-53,4,-29,29,14
14,78,63,-46,-24,70,0,-53,4,-29,34,24
19,78,58,-48,-19,68,0,-53,14,-29,34,24
9,92,82,-51,-36,87,19,-34,19,-34,34,24
9,97,87,-53,-39,92,24,-29,34,-24,39,34
14,107,92,-61,-39,100,34,-19,34,-14,43,39
19,112,92,-65,-36,102,34,-19,39,-9,48,39
29,126,97,-78,-34,112,34,-9,53,-4,53,34
19,117,97,-68,-39,107,34,-4,68,0,58,43
9,117,107,-63,-48,112,43,4,68,0,58,43
19,126,107,-73,-43,117,29,0,58,0,58,48
34,126,92,-80,-29,109,14,-9,48,0,58,48
39,126,87,-82,-24,107,9,-9,48,0,58,48
43,126,82,-85,-19,104,4,-9,48,0,58,48
48,126,78,-87,-14,102,0,-9,48,0,58,48
58,117,58,-87,0,87,-14,-19,58,4,78,53
68,126,58,-97,4,92,-34,-19,58,19,82,63
73,131,58,-102,7,95,-48,-19,63,24,87,68
73,151,78,-112,-2,114,-68,-19,68,29,92,73
92,141,48,-117,21,95,-78,-24,78,34,102,82
92,126,34,-109,29,80,-87,-29,68,34,102,82
92,126,34,-109,29,80,-87,-29,58,29,102,82
102,122,19,-112,41,70,-82,-29,58,29,102,82
102,107,4,-104,48,56,-87,-29,58,29,92,92
97,102,4,-100,46,53,-87,-29,53,19,82,78
92,102,9,-97,41,56,-87,-34,39,9,78,73
82,97,14,-90,34,56,-78,-39,39,0,73,68
87,97,9,-92,39,53,-73,-43,24,-9,58,63
82,97,14,-90,34,56,-73,-43,19,-14,58,58
68,78,9,-73,29,43,-68,-48,19,-19,53,48
68,78,9,-73,29,43,-68,-63,14,-24,39,39
68,68,0,-68,34,34,-68,-68,-9,-39,34,24
68,53,-14,-61,41,19,-68,-82,-19,-43,24,14
53,48,-4,-51,29,21,-68,-92,-29,-53,14,4
39,43,4,-41,17,24,-68,-97,-39,-68,9,0
29,24,-4,-26,17,9,-68,-97,-39,-73,0,4
24,19,-4,-21,14,7,-68,-97,-34,-73,-4,0
9,9,0,-9,4,4,-58,-92,-29,-73,-4,-4
-14,4,19,4,-17,12,-48,-92,-24,-73,-4,-4
-4,9,14,-2,-9,12,-34,-92,-34,-73,-9,-9
-4,9,14,-2,-9,12,-29,-92,-34,-73,-14,-14
-4,14,19,-4,-12,17,-29,-92,-43,-78,-14,-14
-9,9,19,0,-14,14,-29,-102,-48,-82,-19,-14
-29,4,34,12,-31,19,-29,-102,-43,-87,-14,-14
-29,4,34,12,-31,19,-29,-107,-43,-92,-19,-19
-34,-4,29,19,-31,12,-29,-112,-48,-102,-24,-29
-43,-9,34,26,-39,12,-29,-122,-58,-102,-34,-39
-43,-9,34,26,-39,12,-39,-131,-68,-112,-34,-39
-43,-14,29,29,-36,7,-39,-131,-63,-112,-34,-39
-34,-19,14,26,-24,-2,-39,-131,-63,-112,-34,-39
-43,-29,14,36,-29,-7,-39,-131,-63,-112,-34,-39
-48,-29,19,39,-34,-4,-24,-117,-63,-102,-34,-48
-53,-24,29,39,-41,2,-24,-112,-68,-107,-34,-48
-58,-24,34,41,-46,4,-24,-117,-73,-112,-39,-53
-63,-24,39,43,-51,7,-24,-112,-73,-117,-39,-53
-48,-24,24,36,-36,0,-24,-117,-73,-126,-43,-63
-43,-19,24,31,-34,2,-24,-122,-73,-117,-48,-63
-34,-14,19,24,-26,2,-24,-126,-73,-117,-48,-63
-29,-14,14,21,-21,0,-24,-131,-73,-117,-53,-58
-43,-24,19,34,-31,-2,-19,-122,-68,-112,-53,-48
-43,-24,19,34,-31,-2,-19,-117,-68,-112,-53,-48
-43,-24,19,34,-31,-2,-14,-117,-68,-112,-53,-48
-53,-24,29,39,-41,2,-14,-117,-68,-112,-58,-48
-63,-39,24,51,-43,-7,-24,-117,-73,-112,-48,-48
-63,-39,24,51,-43,-7,-24,-117,-73,-117,-53,-53
-48,-34,14,41,-31,-9,-24,-117,-73,-117,-53,-53
-48,-34,14,41,-31,-9,-24,-117,-73,-112,-53,-53
-39,-34,4,36,-21,-14,-14,-117,-68,-112,-53,-53
-43,-24,19,34,-31,-2,-14,-117,-63,-112,-48,-53
-43,-9,34,26,-39,12,-9,-117,-58,-112,-43,-53
-43,0,43,21,-43,21,-9,-117,-53,-112,-43,-48
-68,-9,58,39,-63,24,0,-122,-53,-102,-43,-48
-63,-14,48,39,-56,17,0,-122,-53,-102,-43,-48
-58,-14,43,36,-51,14,0,-122,-53,-102,-43,-48
-63,-19,43,41,-53,12,0,-122,-53,-102,-43,-48
-53,-29,24,41,-39,-2,-9,-117,-48,-97,-29,-39
-53,-29,24,41,-39,-2,-9,-117,-48,-97,-29,-39
-53,-29,24,41,-39,-2,-9,-112,-48,-97,-29,-39
-53,-29,24,41,-39,-2,-9,-112,-48,-97,-29,-39
-43,-19,24,31,-34,2,-9,-117,-48,-97,-29,-48
-53,-24,29,39,-41,2,-9,-117,-48,-97,-29,-48
-58,-24,34,41,-46,4,-9,-117,-48,-97,-29,-48
-58,-24,34,41,-46,4,-9,-117,-48,-97,-29,-43
-43,-9,34,26,-39,12,0,-107,-43,-87,-29,-34
-58,-9,48,34,-53,19,9,-107,-43,-82,-24,-29
-53,4,58,24,-56,31,0,-117,-39,-82,-19,-29
-43,34,78,4,-61,56,0,-117,-39,-78,-4,-19
-24,58,82,-17,-53,70,0,-112,-24,-58,9,-4
-24,58,82,-17,-53,70,0,-102,-14,-43,34,9
-43,58,102,-7,-73,80,14,-78,19,-14,63,43
-29,63,92,-17,-61,78,14,-39,48,29,107,78
24,73,48,-48,-12,61,4,-19,53,48,136,97
43,53,9,-48,17,31,0,-9,53,58,161,131
39,19,-19,-29,29,0,-4,9,43,68,180,156
78,-14,-92,-31,85,-53,-34,9,19,43,185,161
146,-34,-180,-56,163,-107,-53,4,-14,14,170,161
180,-58,-239,-61,209,-148,-73,9,-29,4,170,175
239,-78,-317,-80,278,-197,-102,19,-43,9,195,200
351,-73,-424,-139,387,-248,-151,53,-48,34,239,239
458,-58,-517,-200,488,-287,-170,126,-9,92,331,322
546,-43,-590,-251,568,-317,-185,219,58,170,434,409
610,-48,-658,-280,634,-353,-214,268,102,219,502,463
653,-43,-697,-305,675,-370,-253,239,97,248,522,473
673,-14,-688,-329,680,-351,-263,190,107,273,522,458
678,14,-663,-346,671,-324,-244,175,131,278,478,405
653,-29,-683,-312,668,-356,-204,185,141,219,356,248
605,-131,-736,-236,671,-434,-156,190,122,112,170,34
536,-234,-771,-151,653,-502,-122,185,97,34,29,-151
463,-283,-746,-90,605,-514,-102,122,87,-14,-53,-258
385,-283,-668,-51,527,-475,-82,-19,39,-53,-122,-341
253,-302,-556,24,405,-429,-43,-190,-63,-136,-200,-390
112,-283,-395,85,253,-339,0,-361,-195,-244,-297,-439
0,-253,-253,126,126,-253,34,-531,-336,-361,-375,-463
-141,-244,-102,192,-19,-173,82,-639,-453,-439,-419,-458
-283,-229,53,256,-168,-87,151,-649,-517,-473,-429,-439
-356,-219,136,287,-246,-41,185,-605,-546,-502,-444,-439
-395,-248,146,322,-270,-51,190,-556,-575,-551,-458,-448
-405,-283,122,344,-263,-80,204,-517,-605,-585,-492,-468
-395,-283,112,339,-253,-85,224,-473,-605,-614,-512,-468
-351,-253,97,302,-224,-78,224,-434,-585,-605,-507,-458
-336,-248,87,292,-212,-80,200,-414,-551,-570,-483,-424
-322,-273,48,297,-185,-112,180,-361,-512,-536,-453,-400
-287,-263,24,275,-156,-119,161,-292,-458,-492,-419,-361
-224,-214,9,219,-117,-102,122,-229,-380,-424,-341,-317
-131,-185,-53,158,-39,-119,92,-165,-312,-356,-273,-268
-68,-165,-97,117,14,-131,73,-78,-244,-292,-219,-239
-58,-131,-73,95,7,-102,63,9,-175,-224,-161,-195
-68,-92,-24,80,-21,-58,58,82,-102,-161,-102,-141
-48,-68,-19,58,-14,-43,58,122,-58,-131,-87,-122
-43,-43,0,43,-21,-21,58,112,-48,-122,-78,-107
-68,-14,53,41,-61,19,63,107,-39,-107,-63,-87
-73,19,92,26,-82,56,78,102,-19,-87,-34,-58
-43,9,53,17,-48,31,63,68,-24,-78,-19,-53
-29,-9,19,19,-24,4,48,29,-24,-78,-14,-58
-24,4,29,9,-26,17,39,4,-14,-63,-14,-43
-43,34,78,4,-61,56,48,-4,0,-48,0,-29
-48,34,82,7,-65,58,39,-14,0,-48,0,-34
-43,34,78,4,-61,56,34,0,0,-48,-4,-29
-29,39,68,-4,-48,53,34,0,4,-48,0,-19
-29,39,68,-4,-48,53,29,-4,4,-48,0,-14
-9,48,58,-19,-34,53,24,-9,4,-53,4,-24
-9,53,63,-21,-36,58,19,-14,9,-53,9,-24
-9,53,63,-21,-36,58,19,-14,9,-58,9,-19
-14,48,63,-17,-39,56,19,-14,9,-63,14,-19
-4,48,53,-21,-29,51,9,-9,19,-53,24,-4
-4,48,53,-21,-29,51,9,-9,19,-48,24,-4
-4,48,53,-21,-29,51,9,-9,19,-43,24,-4
0,48,48,-24,-24,48,4,-9,19,-39,24,-4
4,58,53,-31,-24,56,4,-9,19,-34,29,-4
0,58,58,-29,-29,58,0,-14,19,-29,29,0
-4,58,63,-26,-34,61,0,-14,19,-29,34,0
-4,68,73,-31,-39,70,0,-14,24,-29,34,4
4,58,53,-31,-24,56,9,-4,24,-39,29,14
4,58,53,-31,-24,56,9,-4,24,-34,29,14
4,58,53,-31,-24,56,9,-4,29,-34,29,14
4,48,43,-26,-19,46,4,-4,29,-29,29,14
14,58,43,-36,-14,51,-4,-14,19,-29,19,9
14,63,48,-39,-17,56,-4,-14,19,-29,24,9
24,63,39,-43,-7,51,-4,-14,19,-29,24,4
29,63,34,-46,-2,48,-9,-14,19,-29,24,4
24,58,34,-41,-4,46,-9,0,39,-14,39,14
14,63,48,-39,-17,56,-9,4,39,-9,43,14
9,63,53,-36,-21,58,-9,4,39,-9,43,14
9,63,53,-36,-21,58,-14,9,43,-9,43,19
24,53,29,-39,-2,41,-19,4,34,-9,43,19
39,53,14,-46,12,34,-19,0,34,-9,39,14
43,58,14,-51,14,36,-19,-9,34,-14,39,9
39,63,24,-51,7,43,-19,-14,39,-19,34,9
34,73,39,-53,-2,56,-19,-9,48,-4,48,19
34,73,39,-53,-2,56,-19,0,48,-4,48,19
29,73,43,-51,-7,58,-19,14,58,4,53,24
24,73,48,-48,-12,61,-19,29,63,4,58,34
24,73,48,-48,-12,61,-24,19,53,4,68,43
29,73,43,-51,-7,58,-24,14,53,4,63,39
39,78,39,-58,0,58,-24,14,53,4,63,39
39,78,39,-58,0,58,-29,19,53,4,68,34
39,68,29,-53,4,48,-29,19,53,4,58,34
39,68,29,-53,4,48,-29,19,58,4,63,39
48,68,19,-58,14,43,-34,24,68,4,68,39
48,68,19,-58,14,43,-34,29,68,4,68,39
39,73,34,-56,2,53,-29,29,78,19,87,39
39,82,43,-61,-2,63,-29,34,82,29,87,48
48,87,39,-68,4,63,-29,39,82,34,92,48
48,92,43,-70,2,68,-34,43,82,39,97,48
58,82,24,-70,17,53,-43,43,78,39,97,58
63,92,29,-78,17,61,-43,53,87,43,97,63
78,92,14,-85,31,53,-48,53,92,48,107,63
82,102,19,-92,31,61,-58,53,97,53,107,63
82,107,24,-95,29,65,-48,53,87,43,102,58
82,102,19,-92,31,61,-43,63,87,43,97,58
82,97,14,-90,34,56,-43,63,97,43,102,63
82,92,9,-87,36,51,-48,78,97,53,102,63
78,97,19,-87,29,58,-48,87,107,68,112,78
78,102,24,-90,26,63,-53,87,107,73,117,82
78,107,29,-92,24,68,-58,87,107,73,122,87
82,122,39,-102,21,80,-58,92,122,82,141,102
87,112,24,-100,31,68,-63,92,117,78,141,102
87,112,24,-100,31,68,-63,97,122,82,141,102
97,117,19,-107,39,68,-68,107,126,92,136,97
97,122,24,-109,36,73,-68,112,131,97,136,102
102,126,24,-114,39,75,-68,126,151,102,151,117
107,126,19,-117,43,73,-68,141,156,107,156,117
117,136,19,-126,48,78,-68,146,161,112,161,117
122,141,19,-131,51,80,-68,151,170,122,170,122
126,161,34,-143,46,97,-68,156,180,122,175,117
136,161,24,-148,56,92,-73,165,185,126,175,122
146,161,14,-153,65,87,-73,170,190,131,180,126
151,165,14,-158,68,90,-73,185,195,141,190,131
146,170,24,-158,61,97,-63,200,204,146,195,141
146,175,29,-161,58,102,-63,200,219,156,200,141
141,175,34,-158,53,104,-63,214,229,161,204,146
141,180,39,-161,51,109,-58,224,239,170,214,146
136,180,43,-158,46,112,-68,224,239,165,204,151
141,175,34,-158,53,104,-78,224,239,170,204,146
156,170,14,-163,70,92,-78,229,239,175,209,146
156,175,19,-165,68,97,-68,248,248,185,219,146
141,180,39,-161,51,109,-68,263,263,200,229,151
141,185,43,-163,48,114,-68,268,268,200,229,156
141,190,48,-165,46,119,-68,273,273,209,239,165
131,200,68,-165,31,134,-68,283,287,214,244,175
136,190,53,-163,41,122,-53,292,297,224,244,165
146,195,48,-170,48,122,-53,297,297,224,244,161
161,195,34,-178,63,114,-53,302,297,229,244,156
165,200,34,-183,65,117,-53,302,307,229,239,156
170,190,19,-180,75,104,-58,302,302,214,229,151
170,190,19,-180,75,104,-63,307,307,219,229,151
165,195,29,-180,68,112,-63,312,312,219,229,151
165,195,29,-180,68,112,-68,312,312,214,229,151
161,195,34,-178,63,114,-58,307,302,214,229,161
156,190,34,-173,61,112,-58,307,307,214,224,156
141,190,48,-165,46,119,-58,307,307,214,224,156
136,190,53,-163,41,122,-58,307,307,214,224,156
141,190,48,-165,46,119,-53,326,317,224,224,156
146,195,48,-170,48,122,-48,326,317,214,224,156
151,195,43,-173,53,119,-48,317,312,209,219,146
161,190,29,-175,65,109,-48,312,312,209,214,146
151,190,39,-170,56,114,-39,307,312,214,219,151
151,190,39,-170,56,114,-43,307,312,214,214,151
141,185,43,-163,48,114,-43,292,312,209,209,146
141,185,43,-163,48,114,-43,287,312,204,204,146
136,195,58,-165,39,126,-43,283,317,209,204,136
136,190,53,-163,41,122,-43,263,302,200,200,136
131,190,58,-161,36,124,-48,248,297,190,195,131
126,185,58,-156,34,122,-48,244,287,190,190,131
107,195,87,-151,9,141,-43,234,278,185,200,146
102,200,97,-151,2,148,-43,219,273,180,195,146
102,200,97,-151,2,148,-43,200,258,170,190,136
112,185,73,-148,19,129,-43,190,253,165,185,131
107,165,58,-136,24,112,-39,175,239,165,175,117
97,156,58,-126,19,107,-39,161,229,161,170,117
97,156,58,-126,19,107,-39,141,214,146,165,112
97,156,58,-126,19,107,-39,131,209,136,161,112
97,151,53,-124,21,102,-48,122,209,131,165,112
92,146,53,-119,19,100,-48,112,190,122,161,102
87,141,53,-114,17,97,-48,102,180,107,146,92
78,136,58,-107,9,97,-43,97,165,102,136,87
68,136,68,-102,0,102,-39,78,170,97,131,92
63,136,73,-100,-4,104,-39,63,165,102,131,92
63,126,63,-95,0,95,-39,63,156,97,126,87
58,126,68,-92,-4,97,-39,53,146,92,122,78
68,126,58,-97,4,92,-39,34,126,78,107,73
63,117,53,-90,4,85,-34,24,112,73,107,68
58,102,43,-80,7,73,-34,24,107,63,102,63
48,97,48,-73,0,73,-34,14,102,53,97,58
34,92,58,-63,-12,75,-34,4,92,48,97,63
29,82,53,-56,-12,68,-34,4,87,48,92,58
24,82,58,-53,-17,70,-29,0,87,43,87,58
24,82,58,-53,-17,70,-29,-4,82,39,87,48
34,78,43,-56,-4,61,-29,-9,63,34,73,34
34,73,39,-53,-2,56,-29,-14,63,24,63,29
24,68,43,-46,-9,56,-29,-19,53,9,58,24
24,58,34,-41,-4,46,-29,-19,43,9,53,19
14,53,39,-34,-12,46,-19,-14,53,0,43,9
14,58,43,-36,-14,51,-19,-14,53,0,43,9
9,43,34,-26,-12,39,-24,-14,53,0,34,9
0,39,39,-19,-19,39,-24,-19,53,-4,34,9
0,43,43,-21,-21,43,-24,-19,43,0,29,-9
9,43,34,-26,-12,39,-24,-19,39,-4,24,-14
14,24,9,-19,2,17,-19,-24,34,-4,24,-14
14,24,9,-19,2,17,-19,-24,29,-9,24,-19
9,39,29,-24,-9,34,-19,-24,29,-19,24,-19
9,39,29,-24,-9,34,-19,-24,24,-19,19,-19
0,39,39,-19,-19,39,-19,-24,24,-24,19,-19
0,34,34,-17,-17,34,-19,-24,24,-24,14,-19
0,34,34,-17,-17,34,-19,-24,39,-24,14,-24
-4,34,39,-14,-21,36,-14,-24,39,-24,14,-24
-9,34,43,-12,-26,39,-9,-24,39,-19,14,-24
-24,34,58,-4,-41,46,-9,-19,39,-19,19,-19
-14,34,48,-9,-31,41,-19,-19,29,-9,29,-9
-14,34,48,-9,-31,41,-19,-19,29,-9,29,-14
-19,34,53,-7,-36,43,-19,-14,29,-9,24,-14
-19,34,53,-7,-36,43,-14,-14,29,-14,19,-14
-9,34,43,-12,-26,39,-14,-24,29,-24,19,-14
-9,43,53,-17,-31,48,-14,-24,29,-24,24,-14
-9,43,53,-17,-31,48,-14,-24,29,-19,24,-14
-9,43,53,-17,-31,48,-14,-24,29,-19,29,-14
0,43,43,-21,-21,43,-14,-9,39,-19,19,-19
0,43,43,-21,-21,43,-14,-9,39,-19,19,-14
-4,43,48,-19,-26,46,-14,-9,43,-19,19,-14
-4,48,53,-21,-29,51,-14,-9,43,-19,24,-14
-4,39,43,-17,-24,41,-14,-9,43,-14,24,-4
-4,34,39,-14,-21,36,-14,-9,43,-14,24,-9
-4,34,39,-14,-21,36,-14,-9,43,-14,24,-9
-4,34,39,-14,-21,36,-14,-9,43,-14,24,-4
9,53,43,-31,-17,48,-14,-19,43,-9,24,-14
0,53,53,-26,-26,53,-14,-14,43,-9,29,-14
4,58,53,-31,-24,56,-14,-14,43,-9,34,-9
9,58,48,-34,-19,53,-14,-14,43,-4,34,-9
0,53,53,-26,-26,53,-14,-4,43,-4,34,-9
0,53,53,-26,-26,53,-19,-4,43,-4,34,-9
0,53,53,-26,-26,53,-19,-4,48,0,34,-4
0,48,48,-24,-24,48,-14,-4,48,4,39,-4
14,39,24,-26,-4,31,-14,-14,48,-4,29,-4
14,39,24,-26,-4,31,-19,-14,48,-4,29,-4
9,39,29,-24,-9,34,-19,-14,48,0,29,-4
9,39,29,-24,-9,34,-19,-14,48,0,34,-4
4,43,39,-24,-17,41,-9,-4,53,4,34,0
4,43,39,-24,-17,41,-9,-4,53,4,34,4
0,48,48,-24,-24,48,-9,-4,53,4,39,4
0,53,53,-26,-26,53,-9,-4,53,4,39,4
14,58,43,-36,-14,51,-19,-4,43,14,48,14
14,68,53,-41,-19,61,-19,-4,43,19,48,19
19,73,53,-46,-17,63,-19,-9,48,19,48,24
19,78,58,-48,-19,68,-19,-9,48,24,48,24
14,73,58,-43,-21,65,-19,-9,43,14,39,14
9,73,63,-41,-26,68,-19,-9,43,9,43,14
4,68,63,-36,-29,65,-19,-9,43,9,48,14
-9,63,73,-26,-41,68,-19,-9,48,9,48,19
4,73,68,-39,-31,70,-19,-19,39,4,48,14
14,73,58,-43,-21,65,-24,-29,39,4,48,9
19,68,48,-43,-14,58,-24,-29,39,0,43,4
29,68,39,-48,-4,53,-24,-29,39,0,43,0
24,58,34,-41,-4,46,-14,-29,39,9,48,0
19,58,39,-39,-9,48,-24,-34,39,4,48,4
9,58,48,-34,-19,53,-24,-34,39,4,53,9
0,58,58,-29,-29,58,-14,-29,39,4,53,9
-19,58,78,-19,-48,68,-24,-29,48,9,53,19
-9,58,68,-24,-39,63,-24,-29,48,9,53,19
-4,58,63,-26,-34,61,-24,-39,48,4,53,19
-4,58,63,-26,-34,61,-24,-39,48,4,53,19
4,58,53,-31,-24,56,-19,-43,34,-4,43,9
0,58,58,-29,-29,58,-19,-43,29,-9,43,9
0,58,58,-29,-29,58,-19,-43,29,-9,43,9
0,58,58,-29,-29,58,-19,-43,29,-9,43,9
9,48,39,-29,-14,43,-29,-34,39,-9,43,0
4,48,43,-26,-19,46,-29,-34,39,-9,43,-4
-14,48,63,-17,-39,56,-24,-34,39,-9,43,-4
-34,48,82,-7,-58,65,-24,-34,39,-9,43,-4
-19,58,78,-19,-48,68,-19,-39,34,-4,43,-4
-4,58,63,-26,-34,61,-24,-39,34,-9,43,0
0,58,58,-29,-29,58,-9,-34,34,-4,48,9
-4,58,63,-26,-34,61,-4,-34,34,0,48,14
4,53,48,-29,-21,51,-9,-53,19,-4,34,4
4,53,48,-29,-21,51,-14,-53,19,-14,34,4
4,53,48,-29,-21,51,-19,-58,14,-19,34,4
9,43,34,-26,-12,39,-29,-58,14,-24,34,0
0,53,53,-26,-26,53,-19,-43,14,-24,24,-4
-4,53,58,-24,-31,56,-19,-43,14,-19,24,-4
-4,48,53,-21,-29,51,-19,-43,14,-19,24,-4
-4,48,53,-21,-29,51,-19,-43,14,-29,24,-4
-4,53,58,-24,-31,56,-24,-53,9,-29,19,-19
-4,53,58,-24,-31,56,-24,-63,9,-39,14,-24
-4,48,53,-21,-29,51,-24,-63,9,-39,14,-24
-14,43,58,-14,-36,51,-29,-63,4,-39,14,-19
-9,43,53,-17,-31,48,-29,-63,-4,-39,14,-24
0,48,48,-24,-24,48,-29,-63,-4,-39,14,-19
4,48,43,-26,-19,46,-29,-63,-4,-39,14,-19
4,48,43,-26,-19,46,-29,-68,-4,-43,14,-29
0,29,29,-14,-14,29,-29,-63,0,-34,24,-14
0,39,39,-19,-19,39,-29,-58,0,-34,29,-14
-4,39,43,-17,-24,41,-29,-53,4,-34,24,-9
9,39,29,-24,-9,34,-29,-48,9,-34,29,-4
0,39,39,-19,-19,39,-29,-53,4,-39,24,-9
-14,34,48,-9,-31,41,-24,-58,0,-39,19,-14
-14,34,48,-9,-31,41,-24,-63,-4,-39,14,-19
-4,34,39,-14,-21,36,-24,-68,-4,-39,9,-24
-24,34,58,-4,-41,46,-24,-68,-4,-48,-4,-34
-34,24,58,4,-46,41,-24,-68,-4,-48,-4,-34
-24,19,43,2,-34,31,-24,-68,-9,-48,-4,-34
-24,19,43,2,-34,31,-24,-68,-9,-48,-4,-34
-14,29,43,-7,-29,36,-14,-73,0,-43,4,-29
-14,34,48,-9,-31,41,-14,-73,0,-43,4,-29
-4,34,39,-14,-21,36,-14,-68,0,-43,4,-29
-19,34,53,-7,-36,43,-14,-68,-9,-43,0,-29
-9,24,34,-7,-21,29,-24,-73,-19,-53,-14,-39
-9,24,34,-7,-21,29,-24,-73,-14,-53,-14,-39
-9,19,29,-4,-19,24,-24,-73,-14,-53,-9,-39
-14,14,29,0,-21,21,-24,-73,-14,-58,-9,-39
-14,24,39,-4,-26,31,-24,-73,-19,-48,-4,-43
-14,24,39,-4,-26,31,-24,-73,-19,-48,-4,-43
-14,24,39,-4,-26,31,-24,-73,-19,-48,-4,-43
-9,24,34,-7,-21,29,-24,-78,-19,-48,-4,-43
-19,39,58,-9,-39,48,-24,-78,-19,-63,-4,-34
-14,39,53,-12,-34,46,-24,-78,-19,-63,-4,-34
-34,39,73,-2,-53,56,-24,-78,-19,-58,0,-34
-48,39,87,4,-68,63,-24,-73,-14,-58,0,-29
-34,29,63,2,-48,46,-24,-73,-24,-63,-4,-34
-24,24,48,0,-36,36,-24,-73,-24,-73,-9,-43
-14,19,34,-2,-24,26,-24,-73,-34,-78,-19,-48
-9,14,24,-2,-17,19,-24,-73,-39,-87,-34,-58
-9,14,24,-2,-17,19,-9,-63,-34,-78,-24,-48
-14,19,34,-2,-24,26,-9,-63,-24,-63,-9,-43
-19,19,39,0,-29,29,-9,-63,-19,-48,0,-39
-24,14,39,4,-31,26,-9,-63,-19,-39,14,-34
-14,0,14,7,-14,7,-29,-73,-19,-43,9,-43
-24,0,24,12,-24,12,-29,-73,-19,-53,4,-43
-24,0,24,12,-24,12,-14,-73,-19,-58,-4,-34
-24,4,29,9,-26,17,-14,-73,-14,-63,-9,-34
-24,4,29,9,-26,17,-24,-73,-24,-68,-19,-43
-24,4,29,9,-26,17,-24,-78,-24,-68,-19,-43
-29,4,34,12,-31,19,-24,-78,-34,-68,-19,-43
-34,-4,29,19,-31,12,-24,-73,-34,-63,-19,-43
-19,4,24,7,-21,14,-14,-63,-24,-63,-29,-48
-19,9,29,4,-24,19,-14,-68,-24,-68,-29,-53
-14,9,24,2,-19,17,-14,-68,-24,-68,-29,-58
-4,9,14,-2,-9,12,-14,-68,-24,-68,-29,-58
-4,9,14,-2,-9,12,-19,-78,-34,-68,-24,-48
-9,9,19,0,-14,14,-24,-78,-34,-68,-24,-53
-9,9,19,0,-14,14,-29,-78,-34,-68,-24,-53
-4,9,14,-2,-9,12,-34,-82,-39,-73,-24,-53
0,9,9,-4,-4,9,-24,-82,-43,-73,-24,-53
-29,9,39,9,-34,24,-24,-82,-43,-73,-24,-53
-34,9,43,12,-39,26,-24,-82,-29,-68,-24,-53
-34,9,43,12,-39,26,-19,-82,-29,-68,-24,-48
-9,14,24,-2,-17,19,-19,-87,-39,-68,-24,-48
-9,19,29,-4,-19,24,-19,-87,-43,-78,-24,-53
-19,24,43,-2,-31,34,-19,-87,-43,-68,-24,-53
-19,29,48,-4,-34,39,-19,-87,-43,-68,-19,-53
-24,14,39,4,-31,26,-29,-78,-34,-68,-19,-43
-29,9,39,9,-34,24,-29,-78,-34,-68,-19,-43
-34,4,39,14,-36,21,-29,-78,-34,-63,-19,-43
-39,0,39,19,-39,19,-29,-82,-39,-63,-19,-43
-24,4,29,9,-26,17,-24,-87,-48,-78,-24,-48
-9,4,14,2,-12,9,-24,-87,-43,-78,-34,-53
-4,0,4,2,-4,2,-24,-82,-43,-78,-39,-58
0,0,0,0,0,0,-24,-82,-43,-78,-39,-63
-4,4,9,0,-7,7,-24,-82,-39,-78,-29,-48
-19,4,24,7,-21,14,-24,-78,-34,-78,-29,-43
-29,4,34,12,-31,19,-24,-78,-34,-78,-29,-43
-34,4,39,14,-36,21,-19,-73,-34,-73,-19,-48
-29,9,39,9,-34,24,-19,-73,-24,-63,-19,-53
-29,9,39,9,-34,24,-19,-73,-24,-63,-19,-53
-19,19,39,0,-29,29,-19,-73,-19,-53,-14,-48
-19,29,48,-4,-34,39,-19,-68,-9,-48,-9,-48
-24,34,58,-4,-41,46,-14,-48,-4,-53,0,-39
-19,39,58,-9,-39,48,-14,-43,-4,-48,0,-34
-9,39,48,-14,-29,43,-9,-43,-4,-48,4,-24
-9,39,48,-14,-29,43,-9,-43,4,-48,4,-24
4,63,58,-34,-26,61,9,-43,9,-34,14,-14
9,68,58,-39,-24,63,14,-39,24,-24,19,-4
19,78,58,-48,-19,68,24,-29,24,-14,24,0
29,82,53,-56,-12,68,24,-29,29,-9,29,0
29,97,68,-63,-19,82,24,-29,24,-14,14,-14
9,78,68,-43,-29,73,14,-24,29,-19,9,-14
-9,58,68,-24,-39,63,24,-14,39,-9,19,-14
0,48,48,-24,-24,48,9,-14,39,-9,19,-14
29,58,29,-43,0,43,-9,-19,29,-9,19,-19
19,73,53,-46,-17,63,-14,-19,39,-4,24,-4
19,78,58,-48,-19,68,-19,-19,39,0,29,0
19,82,63,-51,-21,73,-24,-19,39,4,34,4
19,87,68,-53,-24,78,-29,-19,39,9,39,9
34,87,53,-61,-9,70,-43,-39,39,9,39,4
48,97,48,-73,0,73,-53,-39,39,19,43,14
58,102,43,-80,7,73,-58,-39,43,19,48,19
63,122,58,-92,2,90,-68,-39,48,19,53,24
68,102,34,-85,17,68,-78,-43,39,24,53,24
63,87,24,-75,19,56,-87,-48,29,24,53,24
58,87,29,-73,14,58,-87,-48,19,19,53,24
63,82,19,-73,21,51,-82,-48,19,19,53,24
73,87,14,-80,29,51,-68,-39,29,19,63,34
78,82,4,-80,36,43,-68,-39,24,9,53,19
82,82,0,-82,41,41,-68,-43,9,0,48,14
82,78,-4,-80,43,36,-58,-48,9,-9,43,9
63,63,0,-63,31,31,-48,-58,-4,-19,29,0
53,58,4,-56,24,31,-53,-53,-9,-24,29,0
34,34,0,-34,17,17,-53,-53,-9,-29,24,-4
29,29,0,-29,14,14,-58,-63,-14,-34,9,-9
53,24,-29,-39,41,-2,-58,-68,-29,-58,-9,-29
58,4,-53,-31,56,-24,-58,-82,-39,-63,-24,-43
48,-4,-53,-21,51,-29,-58,-92,-48,-73,-39,-58
39,-14,-53,-12,46,-34,-58,-97,-58,-87,-48,-68
24,-9,-34,-7,29,-21,-53,-97,-63,-82,-48,-63
14,-9,-24,-2,19,-17,-48,-97,-63,-82,-53,-68
-4,-14,-9,9,2,-12,-34,-92,-63,-82,-53,-73
-34,-14,19,24,-26,2,-19,-92,-63,-82,-53,-73
-34,-24,9,29,-21,-7,-19,-92,-63,-82,-48,-68
-34,-29,4,31,-19,-12,-19,-92,-63,-82,-53,-73
-34,-29,4,31,-19,-12,-24,-92,-73,-87,-53,-73
-39,-39,0,39,-19,-19,-29,-102,-78,-92,-58,-73
-39,-43,-4,41,-17,-24,-29,-112,-82,-107,-73,-82
-39,-43,-4,41,-17,-24,-29,-117,-82,-112,-78,-87
-43,-53,-9,48,-17,-31,-29,-122,-87,-122,-82,-97
-53,-58,-4,56,-24,-31,-29,-131,-97,-122,-92,-107
-73,-58,14,65,-43,-21,-29,-122,-97,-122,-92,-107
-73,-63,9,68,-41,-26,-29,-122,-92,-122,-92,-107
-63,-68,-4,65,-29,-36,-29,-122,-92,-122,-92,-107
-73,-78,-4,75,-34,-41,-29,-122,-92,-122,-92,-107
-73,-78,-4,75,-34,-41,-14,-102,-82,-112,-82,-97
-73,-73,0,73,-36,-36,-14,-102,-87,-117,-82,-97
-73,-73,0,73,-36,-36,-14,-112,-92,-122,-87,-102
-73,-73,0,73,-36,-36,-14,-112,-92,-126,-87,-102
-68,-82,-14,75,-26,-48,-24,-112,-92,-117,-87,-102
-63,-78,-14,70,-24,-46,-24,-112,-92,-107,-87,-102
-53,-73,-19,63,-17,-46,-24,-112,-92,-107,-82,-102
-48,-73,-24,61,-12,-48,-24,-112,-92,-107,-82,-97
-53,-63,-9,58,-21,-36,-19,-112,-87,-112,-73,-97
-53,-63,-9,58,-21,-36,-19,-107,-87,-112,-73,-97
-53,-63,-9,58,-21,-36,-14,-107,-87,-112,-73,-97
-63,-63,0,63,-31,-31,-14,-107,-87,-112,-78,-97
-73,-78,-4,75,-34,-41,-14,-117,-92,-122,-82,-107
-73,-78,-4,75,-34,-41,-14,-117,-92,-126,-92,-112
-58,-73,-14,65,-21,-43,-14,-117,-92,-126,-97,-112
-58,-73,-14,65,-21,-43,-14,-117,-92,-122,-102,-112
-68,-82,-14,75,-26,-48,-14,-107,-82,-112,-102,-102
-73,-82,-9,78,-31,-46,-14,-107,-82,-112,-97,-102
-73,-78,-4,75,-34,-41,-9,-107,-82,-112,-92,-102
-73,-78,-4,75,-34,-41,-9,-107,-82,-112,-92,-97
-73,-73,0,73,-36,-36,-9,-112,-82,-102,-92,-97
-63,-73,-9,68,-26,-41,-9,-112,-82,-102,-92,-97
-53,-68,-14,61,-19,-41,-9,-112,-82,-102,-92,-97
-53,-68,-14,61,-19,-41,-9,-112,-82,-102,-92,-97
-53,-58,-4,56,-24,-31,0,-107,-87,-102,-87,-97
-53,-58,-4,56,-24,-31,0,-107,-87,-107,-87,-97
-53,-58,-4,56,-24,-31,0,-102,-87,-112,-87,-97
-53,-58,-4,56,-24,-31,0,-102,-87,-117,-87,-97
-53,-53,0,53,-26,-26,0,-117,-78,-107,-87,-97
-63,-53,9,58,-36,-21,0,-117,-78,-107,-87,-97
-68,-48,19,58,-43,-14,0,-117,-78,-107,-87,-97
-68,-43,24,56,-46,-9,0,-117,-78,-107,-87,-92
-82,-58,24,70,-53,-17,0,-117,-73,-97,-78,-92
-48,-48,0,48,-24,-24,-19,-107,-82,-92,-63,-87
-53,-34,19,43,-36,-7,-19,-107,-78,-82,-48,-68
-82,-14,68,48,-75,26,0,-97,-48,-48,-14,-29
-63,9,73,26,-68,41,9,-92,-34,-19,9,-4
-43,9,53,17,-48,31,9,-92,-14,-4,24,9
-43,19,63,12,-53,41,14,-58,9,14,43,34
-39,24,63,7,-51,43,14,-19,29,29,78,58
-4,4,9,0,-7,7,4,-19,34,39,97,87
63,-24,-87,-19,75,-56,-19,-19,14,29,122,112
107,-58,-165,-24,136,-112,-34,0,-14,19,151,146
126,-92,-219,-17,173,-156,-43,9,-29,34,175,180
165,-131,-297,-17,231,-214,-73,24,-43,34,190,209
239,-146,-385,-46,312,-265,-112,29,-48,53,229,253
297,-117,-414,-90,356,-265,-151,68,-24,107,322,336
351,-73,-424,-139,387,-248,-170,151,39,200,453,453
439,-48,-488,-195,463,-268,-170,234,107,287,575,556
546,-24,-570,-261,558,-297,-195,278,146,346,649,614
580,-9,-590,-285,585,-300,-224,258,170,385,688,649
556,14,-541,-285,549,-263,-224,239,185,424,707,649
575,24,-551,-300,563,-263,-214,229,214,429,658,575
551,-34,-585,-258,568,-309,-175,244,229,385,507,395
478,-146,-624,-165,551,-385,-126,263,219,287,307,151
448,-209,-658,-119,553,-434,-97,248,190,200,151,-63
380,-244,-624,-68,502,-434,-73,185,165,151,48,-200
297,-263,-561,-17,429,-412,-53,73,126,92,-34,-278
200,-263,-463,31,331,-363,-53,-87,19,-4,-131,-341
87,-244,-331,78,209,-287,-14,-248,-131,-146,-248,-409
-34,-224,-190,129,78,-207,29,-390,-302,-273,-356,-458
-136,-214,-78,175,-29,-146,73,-483,-414,-361,-414,-473
-248,-204,43,226,-146,-80,122,-483,-463,-400,-429,-468
-361,-219,141,290,-251,-39,180,-434,-497,-434,-448,-468
-405,-258,146,331,-275,-56,175,-409,-566,-502,-473,-488
-395,-268,126,331,-261,-70,170,-380,-595,-561,-517,-497
-366,-263,102,314,-234,-80,195,-341,-605,-585,-541,-507
-317,-273,43,295,-180,-114,195,-297,-605,-595,-561,-507
-283,-312,-29,297,-126,-170,165,-287,-595,-585,-546,-497
-258,-336,-78,297,-90,-207,151,-258,-551,-570,-522,-473
-234,-331,-97,283,-68,-214,141,-195,-502,-527,-492,-458
-200,-292,-92,246,-53,-192,102,-146,-429,-453,-429,-400
-175,-244,-68,209,-53,-156,82,-92,-341,-366,-351,-326
-151,-195,-43,173,-53,-119,92,-9,-253,-278,-273,-278
-107,-156,-48,131,-29,-102,82,87,-185,-204,-209,-239
-68,-141,-73,104,2,-107,63,156,-107,-146,-161,-195
-48,-131,-82,90,17,-107,68,190,-73,-112,-122,-170
-39,-107,-68,73,14,-87,78,180,-58,-102,-117,-151
-34,-82,-48,58,7,-65,78,141,-68,-112,-117,-136
-19,-73,-53,46,17,-63,53,107,-58,-107,-112,-126
-24,-58,-34,41,4,-46,48,92,-48,-87,-102,-107
-53,-39,14,46,-34,-12,53,78,-43,-78,-87,-102
-68,-39,29,53,-48,-4,48,48,-34,-68,-73,-97
