I,II,III,aVR,aVL,aVF,V1,V2,V3,V4,V5,V6
19,39,19,-29,0,29,-1298,-165,-68,-165,0,58
19,39,19,-29,0,29,-1298,-165,-68,-165,0,58
19,39,19,-29,0,29,-1298,-165,-68,-165,0,58
19,39,19,-29,0,29,-1298,-165,-68,-165,0,58
19,39,19,-29,0,29,-1288,-156,-68,-151,9,73
19,39,19,-29,0,29,-1288,-156,-68,-146,19,78
19,39,19,-29,0,29,-1288,-156,-68,-141,29,82
19,39,19,-29,0,29,-1288,-156,-68,-136,39,87
9,48,39,-29,-14,43,-1278,-146,-63,-131,48,97
9,48,39,-29,-14,43,-1268,-146,-58,-126,48,97
9,48,39,-29,-14,43,-1259,-146,-53,-122,48,97
9,48,39,-29,-14,43,-1249,-146,-48,-117,48,97
19,58,39,-39,-9,48,-1244,-136,-43,-107,48,107
19,58,39,-39,-9,48,-1239,-136,-39,-107,48,107
19,63,43,-41,-12,53,-1220,-136,-34,-107,48,107
19,68,48,-43,-14,58,-1200,-136,-19,-112,43,107
9,68,58,-39,-24,63,-1200,-136,-19,-112,43,97
9,68,58,-39,-24,63,-1195,-136,-19,-112,39,97
9,73,63,-41,-26,68,-1195,-141,-19,-112,39,97
14,73,58,-43,-21,65,-1195,-146,-19,-107,39,92
4,73,68,-39,-31,70,-1195,-146,-19,-102,43,97
9,82,73,-46,-31,78,-1200,-146,-19,-102,43,102
9,82,73,-46,-31,78,-1210,-146,-19,-102,43,107
9,87,78,-48,-34,82,-1220,-151,-19,-107,43,112
19,102,82,-61,-31,92,-1215,-156,-14,-107,43,117
19,107,87,-63,-34,97,-1224,-156,-24,-112,43,117
19,112,92,-65,-36,102,-1239,-165,-24,-112,43,117
19,112,92,-65,-36,102,-1244,-170,-29,-117,43,117
24,102,78,-63,-26,90,-1249,-185,-29,-117,39,117
24,97,73,-61,-24,85,-1249,-185,-34,-117,39,117
24,97,73,-61,-24,85,-1249,-185,-34,-117,39,122
24,97,73,-61,-24,85,-1249,-185,-43,-117,39,122
24,92,68,-58,-21,80,-1254,-190,-43,-122,34,122
24,92,68,-58,-21,80,-1254,-190,-43,-126,34,117
24,92,68,-58,-21,80,-1254,-185,-39,-131,34,117
24,92,68,-58,-21,80,-1249,-185,-39,-136,34,117
14,82,68,-48,-26,75,-1244,-180,-39,-146,43,107
19,78,58,-48,-19,68,-1244,-180,-39,-141,43,107
19,78,58,-48,-19,68,-1244,-180,-34,-136,43,107
19,73,53,-46,-17,63,-1244,-180,-34,-136,43,107
19,63,43,-41,-12,53,-1249,-185,-43,-136,53,97
19,58,39,-39,-9,48,-1249,-185,-43,-141,53,97
19,53,34,-36,-7,43,-1249,-185,-43,-141,48,92
19,48,29,-34,-4,39,-1249,-185,-43,-141,48,92
14,48,34,-31,-9,41,-1234,-175,-43,-141,48,87
14,43,29,-29,-7,36,-1229,-175,-39,-136,48,82
14,39,24,-26,-4,31,-1220,-170,-39,-136,48,78
14,39,24,-26,-4,31,-1220,-170,-39,-131,53,73
24,48,24,-36,0,36,-1215,-156,-29,-136,53,68
29,48,19,-39,4,34,-1210,-156,-29,-136,53,68
29,43,14,-36,7,29,-1205,-161,-29,-136,48,68
29,43,14,-36,7,29,-1205,-161,-29,-136,48,68
19,34,14,-26,2,24,-1195,-161,-39,-136,48,53
19,34,14,-26,2,24,-1190,-161,-39,-136,39,48
19,29,9,-24,4,19,-1190,-161,-43,-136,39,48
9,29,19,-19,-4,24,-1190,-161,-43,-141,34,43
4,14,9,-9,-2,12,-1190,-170,-48,-156,19,39
4,14,9,-9,-2,12,-1190,-170,-48,-161,14,34
4,14,9,-9,-2,12,-1180,-170,-48,-161,14,34
4,14,9,-9,-2,12,-1176,-170,-53,-161,14,34
14,24,9,-19,2,17,-1166,-161,-53,-151,24,24
9,19,9,-14,0,14,-1161,-165,-53,-151,19,24
9,19,9,-14,0,14,-1161,-165,-53,-146,19,24
9,19,9,-14,0,14,-1156,-165,-58,-146,19,29
14,19,4,-17,4,12,-1166,-165,-58,-156,14,24
14,14,0,-14,7,7,-1166,-165,-63,-161,14,19
9,14,4,-12,2,9,-1166,-165,-63,-161,14,4
9,19,9,-14,0,14,-1166,-165,-63,-161,14,0
0,19,19,-9,-9,19,-1156,-156,-68,-151,19,-9
0,14,14,-7,-7,14,-1156,-156,-73,-156,19,-9
4,14,9,-9,-2,12,-1151,-156,-73,-156,19,-9
4,19,14,-12,-4,17,-1151,-156,-73,-156,19,-9
4,19,14,-12,-4,17,-1151,-161,-73,-151,29,-9
4,19,14,-12,-4,17,-1151,-161,-73,-151,24,-19
4,19,14,-12,-4,17,-1151,-165,-73,-156,19,-19
4,19,14,-12,-4,17,-1146,-165,-73,-156,19,-19
4,9,4,-7,0,7,-1141,-161,-73,-141,19,-19
4,9,4,-7,0,7,-1141,-161,-78,-141,19,-19
4,9,4,-7,0,7,-1141,-161,-78,-146,19,-24
4,9,4,-7,0,7,-1137,-161,-73,-146,19,-24
14,9,-4,-12,9,2,-1137,-161,-82,-136,24,-19
14,9,-4,-12,9,2,-1137,-161,-82,-136,24,-19
14,9,-4,-12,9,2,-1132,-161,-78,-136,19,-19
14,9,-4,-12,9,2,-1132,-161,-78,-136,19,-19
14,19,4,-17,4,12,-1122,-151,-68,-126,24,-19
14,19,4,-17,4,12,-1117,-151,-68,-126,19,-19
14,19,4,-17,4,12,-1117,-151,-68,-126,14,-19
14,14,0,-14,7,7,-1117,-151,-73,-122,4,-24
14,14,0,-14,7,7,-1112,-161,-73,-112,29,-29
14,14,0,-14,7,7,-1102,-156,-73,-112,29,-29
14,14,0,-14,7,7,-1107,-151,-68,-112,29,-39
14,9,-4,-12,9,2,-1098,-141,-73,-117,14,-43
9,0,-9,-4,9,-4,-1098,-126,-53,-122,9,-48
4,0,-4,-2,4,-2,-1088,-97,-19,-131,4,-53
4,0,-4,-2,4,-2,-1068,-58,24,-131,9,-58
14,0,-14,-7,14,-7,-1058,-9,73,-126,4,-63
14,9,-4,-12,9,2,-1039,24,122,-122,4,-53
4,24,19,-14,-7,21,-1049,24,136,-117,9,-63
9,39,29,-24,-9,34,-1054,0,136,-92,29,-53
29,43,14,-36,7,29,-1063,-9,141,-34,63,-29
58,73,14,-65,21,43,-1083,19,185,48,131,4
73,102,29,-87,21,65,-1083,102,258,146,195,43
87,141,53,-114,17,97,-1063,224,351,239,263,87
112,175,63,-143,24,119,-1063,292,419,341,341,136
146,209,63,-178,41,136,-1088,302,463,448,429,200
175,248,73,-212,51,161,-1093,263,468,556,507,248
204,312,107,-258,48,209,-1102,239,458,697,605,307
248,380,131,-314,58,256,-1112,263,492,863,712,370
292,453,161,-373,65,307,-1122,200,541,1039,814,439
322,512,190,-417,65,351,-1176,19,517,1195,917,502
356,561,204,-458,75,383,-1224,-151,444,1312,1010,575
390,610,219,-500,85,414,-1288,-326,356,1434,1088,629
424,658,234,-541,95,446,-1332,-546,244,1561,1171,683
453,639,185,-546,134,412,-1366,-732,122,1615,1210,692
444,570,126,-507,158,348,-1400,-829,-34,1566,1161,663
419,488,68,-453,175,278,-1420,-932,-224,1429,1039,590
356,390,34,-373,161,212,-1420,-1063,-434,1205,854,473
258,292,34,-275,112,163,-1420,-1151,-658,897,605,322
136,204,68,-170,34,136,-1405,-1180,-834,531,346,180
29,141,112,-85,-41,126,-1351,-1156,-951,190,122,58
-53,82,136,-14,-95,109,-1302,-1102,-995,-117,-39,-48
-63,39,102,12,-82,70,-1302,-1024,-946,-283,-126,-107
-48,29,78,9,-63,53,-1342,-936,-858,-312,-117,-107
-29,24,53,2,-41,39,-1371,-849,-790,-312,-97,-107
-9,14,24,-2,-17,19,-1351,-712,-727,-307,-87,-107
9,-4,-14,-2,12,-9,-1327,-595,-653,-307,-82,-107
24,-19,-43,-2,34,-31,-1298,-522,-600,-292,-78,-107
24,-19,-43,-2,34,-31,-1263,-458,-531,-268,-68,-107
14,-19,-34,2,24,-26,-1244,-409,-473,-258,-63,-112
9,-14,-24,2,17,-19,-1215,-370,-419,-253,-63,-112
9,-24,-34,7,21,-29,-1185,-346,-385,-248,-73,-117
4,-34,-39,14,21,-36,-1176,-326,-356,-248,-87,-117
0,-29,-29,14,14,-29,-1161,-302,-331,-244,-92,-122
-4,-14,-9,9,2,-12,-1151,-268,-302,-224,-102,-122
-14,-14,0,14,-7,-7,-1151,-244,-268,-214,-112,-117
-14,-19,-4,17,-4,-12,-1141,-219,-234,-200,-117,-126
-14,-19,-4,17,-4,-12,-1137,-204,-200,-200,-126,-122
-9,-24,-14,17,2,-19,-1132,-185,-170,-200,-136,-122
-4,-34,-29,19,12,-31,-1117,-161,-156,-204,-146,-122
-4,-43,-39,24,17,-41,-1102,-151,-151,-204,-165,-131
-4,-43,-39,24,17,-41,-1083,-136,-151,-204,-180,-131
-4,-43,-39,24,17,-41,-1063,-136,-146,-200,-195,-141
-4,-43,-39,24,17,-41,-1044,-131,-146,-200,-195,-141
4,-34,-39,14,21,-36,-1024,-126,-156,-195,-185,-141
4,-34,-39,14,21,-36,-995,-122,-146,-200,-185,-141
4,-34,-39,14,21,-36,-976,-122,-136,-200,-185,-136
4,-34,-39,14,21,-36,-951,-112,-131,-204,-185,-126
4,-39,-43,17,24,-41,-922,-112,-126,-219,-180,-112
4,-39,-43,17,24,-41,-902,-107,-122,-224,-175,-102
4,-43,-48,19,26,-46,-888,-97,-122,-239,-170,-97
4,-43,-48,19,26,-46,-868,-92,-112,-244,-156,-78
-4,-58,-53,31,24,-56,-863,-92,-112,-258,-151,-68
-4,-58,-53,31,24,-56,-858,-92,-107,-273,-141,-58
-4,-58,-53,31,24,-56,-854,-87,-92,-278,-136,-48
0,-58,-58,29,29,-58,-858,-82,-87,-283,-131,-39
-9,-58,-48,34,19,-53,-858,-78,-82,-292,-117,-24
-9,-58,-48,34,19,-53,-854,-68,-78,-297,-107,-19
-9,-58,-48,34,19,-53,-854,-63,-73,-297,-97,-19
-9,-53,-43,31,17,-48,-849,-68,-73,-292,-92,-19
0,-53,-53,26,26,-53,-858,-63,-78,-283,-82,-14
0,-58,-58,29,29,-58,-854,-63,-78,-283,-73,-14
-4,-63,-58,34,26,-61,-854,-58,-73,-283,-63,-14
-4,-63,-58,34,26,-61,-854,-53,-68,-283,-58,-9
-4,-63,-58,34,26,-61,-858,-58,-78,-287,-63,-9
-9,-63,-53,36,21,-58,-863,-53,-78,-278,-58,-4
-14,-63,-48,39,17,-56,-863,-53,-78,-273,-53,0
-19,-63,-43,41,12,-53,-868,-53,-73,-268,-53,4
-9,-63,-53,36,21,-58,-868,-53,-63,-263,-43,19
-14,-68,-53,41,19,-61,-873,-53,-63,-263,-34,24
-14,-68,-53,41,19,-61,-878,-58,-63,-258,-24,29
-14,-68,-53,41,19,-61,-888,-58,-58,-244,-19,34
-9,-63,-53,36,21,-58,-888,-53,-58,-234,-19,48
-4,-63,-58,34,26,-61,-893,-53,-53,-229,-14,53
0,-58,-58,29,29,-58,-897,-58,-43,-219,-9,58
4,-48,-53,21,29,-51,-902,-63,-43,-214,-4,63
0,-53,-53,26,26,-53,-902,-53,-39,-204,-14,63
-4,-58,-53,31,24,-56,-907,-58,-39,-190,-9,63
-9,-63,-53,36,21,-58,-907,-58,-34,-180,-9,63
-14,-73,-58,43,21,-65,-907,-58,-29,-165,-19,63
0,-63,-63,31,31,-63,-902,-53,-14,-161,-29,68
4,-58,-63,26,34,-61,-897,-48,-9,-146,-43,68
9,-53,-63,21,36,-58,-893,-34,-9,-136,-48,68
14,-53,-68,19,41,-61,-888,-19,-4,-126,-48,63
14,-53,-68,19,41,-61,-878,-19,-4,-117,-68,48
14,-53,-68,19,41,-61,-873,-19,0,-112,-73,48
14,-58,-73,21,43,-65,-873,-14,0,-107,-82,48
14,-63,-78,24,46,-70,-868,-9,0,-102,-87,48
14,-63,-78,24,46,-70,-858,-4,4,-97,-97,43
14,-63,-78,24,46,-70,-868,0,9,-92,-112,39
14,-63,-78,24,46,-70,-873,4,14,-82,-117,39
14,-73,-87,29,51,-80,-878,4,14,-82,-122,39
4,-73,-78,34,41,-75,-868,9,29,-82,-122,39
4,-73,-78,34,41,-75,-868,9,34,-87,-122,34
4,-73,-78,34,41,-75,-873,14,34,-78,-122,39
4,-73,-78,34,41,-75,-873,14,34,-82,-117,34
4,-87,-92,41,48,-90,-868,14,43,-97,-126,34
4,-87,-92,41,48,-90,-873,14,48,-97,-122,34
4,-87,-92,41,48,-90,-873,14,48,-97,-117,39
4,-87,-92,41,48,-90,-873,14,43,-97,-117,39
19,-87,-107,34,63,-97,-858,19,48,-102,-122,29
24,-87,-112,31,68,-100,-858,24,58,-112,-117,29
24,-87,-112,31,68,-100,-858,29,68,-122,-122,24
29,-87,-117,29,73,-102,-858,34,78,-131,-122,19
19,-92,-112,36,65,-102,-849,34,82,-141,-126,14
19,-92,-112,36,65,-102,-844,39,87,-136,-136,14
19,-92,-112,36,65,-102,-839,39,92,-136,-141,19
19,-87,-107,34,63,-97,-834,43,97,-131,-151,24
24,-97,-122,36,73,-109,-824,58,117,-122,-141,19
24,-97,-122,36,73,-109,-819,63,122,-117,-146,9
24,-97,-122,36,73,-109,-819,63,136,-117,-146,9
24,-97,-122,36,73,-109,-824,68,141,-112,-141,9
29,-87,-117,29,73,-102,-814,73,165,-92,-141,4
29,-82,-112,26,70,-97,-819,82,175,-82,-136,4
34,-82,-117,24,75,-100,-829,92,190,-73,-136,-4
39,-82,-122,21,80,-102,-834,97,204,-58,-126,-4
29,-87,-117,29,73,-102,-849,102,204,-48,-122,4
29,-87,-117,29,73,-102,-854,112,214,-43,-112,4
34,-82,-117,24,75,-100,-868,112,224,-34,-97,0
34,-78,-112,21,73,-95,-873,117,234,-29,-87,0
39,-68,-107,14,73,-87,-888,131,253,-14,-78,0
39,-63,-102,12,70,-82,-888,141,268,4,-68,4
39,-63,-102,12,70,-82,-893,146,287,19,-58,4
39,-63,-102,12,70,-82,-907,146,302,39,-48,4
39,-58,-97,9,68,-78,-917,151,302,48,-43,14
39,-58,-97,9,68,-78,-927,156,307,58,-43,14
43,-53,-97,4,70,-75,-927,161,312,68,-43,14
43,-48,-92,2,68,-70,-932,161,322,78,-34,14
48,-43,-92,-2,70,-68,-946,165,341,92,-29,14
53,-29,-82,-12,68,-56,-946,165,346,97,-29,14
68,-19,-87,-24,78,-53,-951,170,351,102,-24,14
73,-14,-87,-29,80,-51,-956,170,356,117,-24,14
58,-19,-78,-19,68,-48,-971,161,346,107,-34,4
48,-24,-73,-12,61,-48,-976,156,346,107,-34,4
43,-34,-78,-4,61,-56,-976,156,351,117,-24,0
39,-43,-82,2,61,-63,-980,156,356,122,-19,-4
39,-53,-92,7,65,-73,-990,141,356,122,-29,-4
34,-48,-82,7,58,-65,-995,136,356,131,-19,-4
29,-48,-78,9,53,-63,-1000,136,351,136,-19,-4
24,-43,-68,9,46,-56,-1005,131,346,146,-14,-4
34,-34,-68,0,51,-51,-1019,136,336,161,-14,0
34,-29,-63,-2,48,-46,-1019,131,336,165,-4,4
34,-29,-63,-2,48,-46,-1015,122,336,165,9,14
34,-24,-58,-4,46,-41,-1015,117,331,165,19,19
29,-24,-53,-2,41,-39,-1024,107,326,180,43,29
29,-24,-53,-2,41,-39,-1024,102,322,185,48,29
29,-19,-48,-4,39,-34,-1019,97,317,185,58,29
29,-19,-48,-4,39,-34,-1019,92,307,185,63,29
29,-4,-34,-12,31,-19,-1019,78,292,175,68,39
29,-4,-34,-12,31,-19,-1015,68,283,175,82,43
29,0,-29,-14,29,-14,-1010,63,278,170,97,53
29,4,-24,-17,26,-9,-1005,63,273,165,102,53
39,9,-29,-24,34,-9,-1010,58,263,175,112,58
39,9,-29,-24,34,-9,-1005,53,253,165,117,63
39,9,-29,-24,34,-9,-1000,43,244,161,122,63
39,9,-29,-24,34,-9,-995,39,234,161,112,68
39,14,-24,-26,31,-4,-985,34,209,141,107,87
43,19,-24,-31,34,-2,-985,24,200,131,112,92
43,24,-19,-34,31,2,-976,14,185,122,107,97
43,24,-19,-34,31,2,-971,4,170,107,107,102
43,24,-19,-34,31,2,-980,4,165,107,97,112
43,29,-14,-36,29,7,-976,-9,156,87,92,112
43,29,-14,-36,29,7,-976,-9,146,78,82,112
43,34,-9,-39,26,12,-976,-14,131,68,73,117
34,24,-9,-29,21,7,-961,-29,107,39,63,107
34,24,-9,-29,21,7,-961,-39,92,29,63,117
29,24,-4,-26,17,9,-961,-48,78,14,58,122
29,24,-4,-26,17,9,-961,-58,73,0,48,122
29,39,9,-34,9,24,-951,-58,63,0,43,112
29,43,14,-36,7,29,-951,-58,58,-14,39,117
29,48,19,-39,4,34,-941,-68,48,-19,39,117
34,53,19,-43,7,36,-941,-78,39,-39,34,122
43,53,9,-48,17,31,-941,-87,24,-58,24,122
34,53,19,-43,7,36,-941,-87,19,-68,34,122
34,53,19,-43,7,36,-946,-92,14,-73,39,122
34,48,14,-41,9,31,-946,-97,9,-78,39,122
34,53,19,-43,7,36,-941,-107,9,-87,39,126
34,53,19,-43,7,36,-936,-117,0,-97,39,131
34,53,19,-43,7,36,-932,-122,-4,-107,34,131
34,53,19,-43,7,36,-922,-126,-9,-112,34,126
24,43,19,-34,2,31,-922,-126,-14,-112,43,136
24,43,19,-34,2,31,-927,-126,-19,-122,43,136
24,43,19,-34,2,31,-927,-131,-29,-131,34,131
24,43,19,-34,2,31,-927,-136,-34,-141,29,126
19,43,24,-31,-2,34,-917,-141,-39,-151,34,107
19,43,24,-31,-2,34,-917,-141,-43,-156,29,102
19,43,24,-31,-2,34,-917,-146,-43,-161,19,97
19,43,24,-31,-2,34,-917,-146,-53,-170,0,97
29,43,14,-36,7,29,-927,-156,-63,-180,-9,92
29,43,14,-36,7,29,-927,-161,-63,-175,-19,87
29,43,14,-36,7,29,-927,-165,-73,-170,-24,73
24,43,19,-34,2,31,-927,-170,-78,-170,-29,58
24,43,19,-34,2,31,-927,-165,-82,-170,-29,43
24,43,19,-34,2,31,-932,-170,-87,-165,-43,39
24,43,19,-34,2,31,-932,-175,-87,-165,-53,39
24,43,19,-34,2,31,-932,-180,-87,-165,-73,34
9,29,19,-19,-4,24,-936,-180,-97,-175,-82,24
9,29,19,-19,-4,24,-946,-185,-102,-175,-107,19
9,29,19,-19,-4,24,-951,-185,-107,-175,-117,19
14,29,14,-21,0,21,-956,-180,-107,-175,-126,19
24,39,14,-31,4,26,-946,-165,-107,-195,-136,29
24,34,9,-29,7,21,-941,-165,-112,-200,-151,29
19,34,14,-26,2,24,-941,-165,-122,-200,-156,29
19,34,14,-26,2,24,-941,-161,-122,-200,-161,29
19,34,14,-26,2,24,-941,-156,-122,-200,-156,29
19,34,14,-26,2,24,-936,-151,-122,-209,-175,29
19,39,19,-29,0,29,-927,-146,-122,-209,-175,34
24,39,14,-31,4,26,-912,-141,-117,-209,-175,34
24,48,24,-36,0,36,-907,-146,-112,-214,-175,19
19,43,24,-31,-2,34,-902,-146,-112,-224,-175,19
19,43,24,-31,-2,34,-893,-136,-107,-234,-175,19
19,43,24,-31,-2,34,-883,-131,-97,-248,-175,19
19,34,14,-26,2,24,-888,-131,-92,-244,-161,19
19,34,14,-26,2,24,-873,-122,-78,-248,-156,19
19,34,14,-26,2,24,-863,-117,-73,-248,-151,24
19,34,14,-26,2,24,-863,-117,-68,-253,-141,24
19,39,19,-29,0,29,-863,-117,-63,-248,-141,9
19,39,19,-29,0,29,-858,-117,-58,-253,-141,4
19,39,19,-29,0,29,-849,-117,-53,-248,-141,4
19,39,19,-29,0,29,-849,-112,-48,-244,-136,0
19,48,29,-34,-4,39,-834,-112,-39,-234,-131,-9
19,48,29,-34,-4,39,-834,-112,-34,-229,-126,-19
19,48,29,-34,-4,39,-829,-112,-29,-219,-126,-19
19,48,29,-34,-4,39,-824,-107,-29,-209,-122,-14
19,39,19,-29,0,29,-834,-107,-24,-195,-117,-24
19,39,19,-29,0,29,-834,-107,-24,-185,-117,-24
19,39,19,-29,0,29,-834,-102,-24,-180,-112,-19
19,39,19,-29,0,29,-839,-102,-24,-175,-107,-14
14,39,24,-26,-4,31,-829,-97,-24,-161,-107,-9
9,39,29,-24,-9,34,-834,-92,-29,-156,-102,-9
4,39,34,-21,-14,36,-839,-87,-34,-151,-92,0
0,39,39,-19,-19,39,-844,-87,-34,-146,-97,9
0,34,34,-17,-17,34,-844,-82,-39,-151,-102,14
0,34,34,-17,-17,34,-849,-82,-39,-146,-87,19
4,39,34,-21,-14,36,-854,-82,-39,-146,-73,29
4,39,34,-21,-14,36,-849,-82,-43,-141,-63,29
14,43,29,-29,-7,36,-849,-82,-39,-131,-63,34
14,43,29,-29,-7,36,-854,-82,-39,-131,-58,39
14,43,29,-29,-7,36,-854,-82,-39,-131,-53,39
14,48,34,-31,-9,41,-863,-82,-34,-131,-48,39
14,48,34,-31,-9,41,-863,-73,-29,-126,-48,53
14,48,34,-31,-9,41,-868,-78,-34,-126,-43,53
14,48,34,-31,-9,41,-873,-78,-34,-122,-34,53
14,48,34,-31,-9,41,-873,-78,-39,-117,-29,58
24,58,34,-41,-4,46,-868,-82,-29,-126,-29,68
24,58,34,-41,-4,46,-873,-82,-39,-131,-24,63
24,58,34,-41,-4,46,-883,-87,-43,-131,-19,58
24,58,34,-41,-4,46,-883,-97,-43,-136,-19,58
24,53,29,-39,-2,41,-888,-92,-43,-136,-19,63
24,53,29,-39,-2,41,-893,-97,-48,-146,-24,63
24,53,29,-39,-2,41,-897,-102,-48,-151,-24,53
24,58,34,-41,-4,46,-897,-107,-53,-156,-29,48
14,53,39,-34,-12,46,-893,-112,-58,-165,-39,53
9,48,39,-29,-14,43,-902,-117,-58,-165,-39,53
9,43,34,-26,-12,39,-912,-117,-58,-170,-43,43
9,39,29,-24,-9,34,-917,-122,-58,-170,-48,43
19,48,29,-34,-4,39,-922,-126,-68,-180,-53,43
19,48,29,-34,-4,39,-927,-131,-73,-185,-63,43
24,48,24,-36,0,36,-932,-136,-73,-185,-63,43
29,48,19,-39,4,34,-936,-141,-73,-180,-73,43
19,39,19,-29,0,29,-936,-156,-78,-190,-82,29
14,39,24,-26,-4,31,-941,-161,-82,-190,-92,24
14,39,24,-26,-4,31,-951,-161,-82,-200,-102,24
14,39,24,-26,-4,31,-956,-161,-78,-204,-112,24
14,29,14,-21,0,21,-961,-156,-73,-209,-122,24
14,24,9,-19,2,17,-961,-156,-73,-209,-126,24
14,24,9,-19,2,17,-971,-151,-73,-204,-131,24
14,24,9,-19,2,17,-976,-146,-73,-200,-136,24
14,34,19,-24,-2,26,-985,-156,-63,-200,-141,24
14,34,19,-24,-2,26,-985,-156,-63,-200,-151,24
14,34,19,-24,-2,26,-985,-156,-58,-190,-151,24
14,34,19,-24,-2,26,-985,-156,-58,-190,-151,24
14,43,29,-29,-7,36,-990,-146,-68,-185,-151,19
14,43,29,-29,-7,36,-995,-151,-68,-180,-156,19
14,43,29,-29,-7,36,-995,-151,-68,-180,-156,24
14,43,29,-29,-7,36,-995,-146,-68,-175,-146,24
24,53,29,-39,-2,41,-1005,-146,-68,-175,-141,24
24,53,29,-39,-2,41,-1005,-146,-68,-170,-131,24
24,53,29,-39,-2,41,-1005,-146,-68,-170,-122,29
24,53,29,-39,-2,41,-1005,-141,-68,-165,-117,34
24,43,19,-34,2,31,-1005,-151,-78,-151,-112,48
24,43,19,-34,2,31,-1010,-151,-78,-151,-97,53
24,43,19,-34,2,31,-1019,-151,-78,-146,-82,58
29,48,19,-39,4,34,-1024,-151,-78,-146,-68,68
29,48,19,-39,4,34,-1034,-151,-78,-146,-68,68
24,48,24,-36,0,36,-1034,-151,-78,-146,-58,73
24,48,24,-36,0,36,-1029,-151,-82,-146,-53,78
24,48,24,-36,0,36,-1029,-151,-82,-141,-43,78
19,48,29,-34,-4,39,-1039,-151,-78,-136,-29,92
19,43,24,-31,-2,34,-1029,-151,-78,-126,-19,97
19,39,19,-29,0,29,-1024,-151,-68,-122,-9,102
14,29,14,-21,0,21,-1024,-151,-68,-122,-4,102
14,29,14,-21,0,21,-1024,-141,-58,-112,4,112
14,29,14,-21,0,21,-1015,-141,-58,-107,9,117
14,34,19,-24,-2,26,-1015,-141,-58,-102,9,122
19,34,14,-26,2,24,-1010,-141,-58,-102,9,122
19,24,4,-21,7,14,-1015,-141,-58,-97,0,131
19,24,4,-21,7,14,-1005,-141,-53,-97,0,131
19,34,14,-26,2,24,-995,-141,-48,-97,0,136
19,34,14,-26,2,24,-985,-141,-48,-97,4,141
19,43,24,-31,-2,34,-990,-141,-48,-97,-4,141
19,43,24,-31,-2,34,-985,-141,-48,-97,-4,136
19,48,29,-34,-4,39,-980,-141,-43,-97,-14,136
19,48,29,-34,-4,39,-976,-141,-43,-97,-19,136
29,48,19,-39,4,34,-961,-141,-34,-82,-14,146
39,58,19,-48,9,39,-956,-131,-24,-73,-9,146
39,68,29,-53,4,48,-936,-126,-29,-78,-19,146
29,68,39,-48,-4,53,-927,-126,-29,-68,-29,146
29,68,39,-48,-4,53,-927,-126,-29,-68,-29,146
29,68,39,-48,-4,53,-927,-126,-29,-68,-29,146
29,68,39,-48,-4,53,-927,-126,-29,-68,-29,146
29,73,43,-51,-7,58,-902,-126,-29,-68,-29,146
29,78,48,-53,-9,63,-888,-126,-19,-73,-34,146
29,78,48,-53,-9,63,-888,-126,-19,-73,-34,146
29,78,48,-53,-9,63,-883,-126,-19,-73,-39,146
29,82,53,-56,-12,68,-873,-131,-29,-82,-29,146
34,82,48,-58,-7,65,-873,-136,-29,-78,-29,141
34,82,48,-58,-7,65,-873,-136,-29,-73,-24,141
39,92,53,-65,-7,73,-878,-136,-29,-73,-24,141
39,92,53,-65,-7,73,-878,-136,-39,-73,-14,141
39,97,58,-68,-9,78,-888,-141,-39,-78,-14,141
39,102,63,-70,-12,82,-893,-146,-43,-78,-14,146
39,107,68,-73,-14,87,-902,-146,-53,-82,-14,146
39,112,73,-75,-17,92,-917,-165,-53,-92,-14,136
39,112,73,-75,-17,92,-922,-170,-58,-97,-14,136
43,112,68,-78,-12,90,-927,-175,-58,-97,-19,136
43,107,63,-75,-9,85,-927,-175,-63,-97,-19,136
39,97,58,-68,-9,78,-936,-185,-73,-107,-19,131
34,97,63,-65,-14,80,-936,-185,-82,-107,-19,131
29,92,63,-61,-17,78,-941,-180,-82,-107,-14,131
24,92,68,-58,-21,80,-941,-180,-82,-107,-14,126
34,92,58,-63,-12,75,-941,-175,-87,-112,-14,136
34,92,58,-63,-12,75,-936,-175,-87,-117,-14,136
34,92,58,-63,-12,75,-932,-170,-87,-122,-14,136
39,87,48,-63,-4,68,-932,-170,-87,-122,-14,136
48,97,48,-73,0,73,-932,-180,-82,-126,-24,126
48,92,43,-70,2,68,-932,-180,-82,-126,-24,126
48,82,34,-65,7,58,-927,-185,-82,-136,-24,126
48,78,29,-63,9,53,-927,-185,-82,-141,-24,126
39,63,24,-51,7,43,-936,-185,-92,-141,-29,122
39,58,19,-48,9,39,-936,-185,-92,-141,-29,122
34,58,24,-46,4,41,-932,-185,-92,-141,-29,122
34,53,19,-43,7,36,-927,-185,-87,-136,-29,122
39,53,14,-46,12,34,-917,-170,-78,-136,-39,131
43,58,14,-51,14,36,-917,-170,-78,-131,-34,131
48,63,14,-56,17,39,-912,-165,-78,-126,-34,136
58,68,9,-63,24,39,-907,-165,-78,-126,-34,136
48,63,14,-56,17,39,-893,-161,-78,-136,-48,136
48,63,14,-56,17,39,-893,-161,-78,-136,-48,136
48,53,4,-51,21,29,-893,-161,-78,-136,-48,131
48,53,4,-51,21,29,-888,-161,-78,-136,-58,126
39,39,0,-39,19,19,-888,-170,-82,-136,-58,126
29,39,9,-34,9,24,-888,-170,-82,-141,-63,122
24,34,9,-29,7,21,-878,-170,-87,-146,-68,117
24,34,9,-29,7,21,-878,-170,-87,-151,-73,112
39,39,0,-39,19,19,-858,-161,-78,-161,-82,117
43,43,0,-43,21,21,-854,-161,-82,-161,-82,122
48,48,0,-48,24,24,-849,-161,-82,-161,-82,126
48,48,0,-48,24,24,-849,-165,-82,-161,-87,131
43,39,-4,-41,24,17,-844,-165,-82,-156,-87,122
39,39,0,-39,19,19,-844,-165,-87,-156,-87,126
39,39,0,-39,19,19,-844,-165,-87,-156,-92,126
34,34,0,-34,17,17,-844,-165,-92,-161,-92,126
19,24,4,-21,7,14,-844,-175,-92,-165,-102,117
19,29,9,-24,4,19,-844,-175,-92,-170,-102,117
19,29,9,-24,4,19,-844,-175,-97,-175,-97,117
19,24,4,-21,7,14,-844,-175,-102,-185,-97,117
24,34,9,-29,7,21,-829,-175,-92,-185,-107,117
24,39,14,-31,4,26,-829,-175,-92,-185,-107,117
24,39,14,-31,4,26,-829,-170,-92,-180,-107,117
24,39,14,-31,4,26,-829,-170,-92,-180,-112,107
24,29,4,-26,9,17,-819,-175,-102,-195,-126,107
24,29,4,-26,9,17,-814,-175,-102,-195,-126,107
24,29,4,-26,9,17,-810,-170,-102,-190,-126,107
24,29,4,-26,9,17,-810,-170,-107,-190,-126,107
14,19,4,-17,4,12,-810,-170,-107,-204,-131,107
14,19,4,-17,4,12,-805,-170,-102,-204,-136,112
14,19,4,-17,4,12,-805,-170,-102,-204,-136,122
14,19,4,-17,4,12,-805,-170,-102,-204,-141,126
24,29,4,-26,9,17,-790,-170,-107,-204,-156,126
24,29,4,-26,9,17,-790,-170,-107,-204,-156,126
24,29,4,-26,9,17,-790,-170,-107,-204,-161,126
24,29,4,-26,9,17,-785,-170,-107,-204,-165,126
14,19,4,-17,4,12,-795,-170,-107,-214,-161,117
14,14,0,-14,7,7,-795,-170,-112,-209,-170,112
14,14,0,-14,7,7,-790,-170,-112,-209,-175,107
14,14,0,-14,7,7,-790,-165,-112,-209,-175,107
14,4,-9,-9,12,-2,-785,-161,-107,-209,-175,107
14,9,-4,-12,9,2,-785,-151,-92,-214,-170,112
9,9,0,-9,4,4,-775,-126,-63,-209,-185,107
4,0,-4,-2,4,-2,-766,-87,-19,-209,-190,102
14,0,-14,-7,14,-7,-756,-48,24,-200,-185,107
24,9,-14,-17,19,-2,-756,9,73,-195,-190,102
24,19,-4,-21,14,7,-746,34,112,-190,-190,112
24,34,9,-29,7,21,-746,24,126,-175,-175,122
39,58,19,-48,9,39,-761,0,126,-141,-146,141
58,73,14,-65,21,43,-780,0,151,-73,-92,175
68,92,24,-80,21,58,-780,39,214,19,-24,219
73,112,39,-92,17,75,-790,141,287,107,39,258
97,151,53,-124,21,102,-780,244,380,200,107,302
131,185,53,-158,39,119,-780,312,439,302,185,361
175,229,53,-202,61,141,-805,302,463,409,273,405
214,278,63,-246,75,170,-810,244,458,536,370,463
244,341,97,-292,73,219,-819,239,458,678,478,541
278,409,131,-344,73,270,-829,253,502,854,595,614
312,473,161,-392,75,317,-858,161,541,1019,707,692
341,531,190,-436,75,361,-902,-39,507,1166,810,766
375,580,204,-478,85,392,-971,-209,424,1283,883,829
409,629,219,-519,95,424,-1015,-395,326,1405,971,893
444,658,214,-551,114,436,-1058,-634,214,1522,1044,936
463,629,165,-546,148,397,-1102,-800,73,1566,1073,956
453,561,107,-507,173,334,-1117,-888,-102,1498,1024,907
409,468,58,-439,175,263,-1137,-1010,-302,1342,883,834
336,370,34,-353,151,202,-1127,-1122,-512,1107,688,717
239,283,43,-261,97,163,-1127,-1200,-727,771,439,575
136,195,58,-165,39,126,-1093,-1210,-883,414,170,434
29,141,112,-85,-41,126,-1029,-1176,-990,82,-43,312
-43,73,117,-14,-80,95,-990,-1122,-1015,-214,-204,234
-43,39,82,2,-63,61,-1000,-1044,-966,-351,-273,185
-29,29,58,0,-43,43,-1029,-946,-878,-351,-263,185
-19,24,43,-2,-31,34,-1049,-849,-819,-361,-234,185
0,14,14,-7,-7,14,-1039,-732,-756,-375,-224,185
9,-4,-14,-2,12,-9,-1015,-614,-692,-366,-229,185
14,-19,-34,2,24,-26,-976,-531,-629,-351,-224,185
24,-19,-43,-2,34,-31,-951,-468,-561,-346,-214,185
24,-19,-43,-2,34,-31,-922,-419,-502,-336,-209,180
19,-24,-43,2,31,-34,-902,-400,-458,-322,-219,180
9,-24,-34,7,21,-29,-883,-375,-434,-317,-219,175
0,-24,-24,12,12,-24,-873,-346,-405,-317,-224,165
0,-19,-19,9,9,-19,-858,-322,-380,-312,-229,161
0,-4,-4,2,2,-4,-849,-287,-351,-292,-239,161
-4,-4,0,4,-2,-2,-849,-263,-317,-283,-248,165
-4,-19,-14,12,4,-17,-839,-239,-273,-278,-253,175
-4,-19,-14,12,4,-17,-834,-224,-239,-278,-263,180
0,-24,-24,12,12,-24,-829,-204,-209,-278,-273,180
4,-34,-39,14,21,-36,-814,-180,-195,-283,-283,180
-4,-53,-48,29,21,-51,-805,-175,-200,-273,-287,170
-4,-53,-48,29,21,-51,-790,-165,-200,-273,-297,170
-4,-53,-48,29,21,-51,-775,-170,-195,-268,-307,161
-4,-53,-48,29,21,-51,-761,-170,-195,-268,-302,161
4,-48,-53,21,29,-51,-732,-156,-195,-258,-297,170
4,-43,-48,19,26,-46,-702,-151,-185,-258,-292,170
4,-39,-43,17,24,-41,-683,-151,-175,-253,-287,175
4,-34,-39,14,21,-36,-658,-141,-170,-253,-283,185
0,-39,-39,19,19,-39,-649,-141,-170,-268,-273,200
4,-39,-43,17,24,-41,-629,-136,-161,-273,-263,209
9,-43,-53,17,31,-48,-614,-126,-156,-287,-253,214
14,-43,-58,14,36,-51,-595,-122,-141,-292,-234,234
9,-39,-48,14,29,-43,-595,-126,-131,-312,-234,244
4,-39,-43,17,24,-41,-585,-122,-126,-322,-219,253
0,-39,-39,19,19,-39,-575,-112,-112,-322,-209,263
0,-39,-39,19,19,-39,-575,-102,-107,-322,-200,273
9,-39,-48,14,29,-43,-566,-92,-102,-312,-180,287
9,-39,-48,14,29,-43,-561,-78,-97,-317,-165,292
9,-39,-48,14,29,-43,-561,-68,-92,-317,-151,292
9,-34,-43,12,26,-39,-556,-68,-92,-312,-141,292
9,-24,-34,7,21,-29,-566,-58,-87,-302,-131,292
9,-29,-39,9,24,-34,-561,-63,-87,-302,-122,287
4,-34,-39,14,21,-36,-561,-63,-82,-302,-112,283
4,-34,-39,14,21,-36,-561,-63,-78,-302,-107,283
9,-34,-43,12,26,-39,-566,-48,-68,-287,-97,283
9,-34,-43,12,26,-39,-570,-43,-68,-278,-87,287
9,-34,-43,12,26,-39,-570,-43,-68,-273,-78,292
9,-34,-43,12,26,-39,-575,-43,-63,-268,-73,297
0,-43,-43,21,21,-43,-595,-53,-63,-258,-63,292
-4,-48,-43,26,19,-46,-600,-53,-63,-253,-53,297
-4,-48,-43,26,19,-46,-605,-58,-63,-244,-43,302
-4,-48,-43,26,19,-46,-614,-58,-58,-224,-39,307
-14,-58,-43,36,14,-51,-634,-53,-48,-204,-29,307
-14,-63,-48,39,17,-56,-639,-53,-43,-200,-24,307
-14,-63,-48,39,17,-56,-644,-58,-34,-190,-19,307
-14,-58,-43,36,14,-51,-649,-63,-34,-185,-14,307
-4,-58,-53,31,24,-56,-639,-58,-29,-165,-14,297
-4,-58,-53,31,24,-56,-644,-58,-29,-141,-9,297
-4,-58,-53,31,24,-56,-644,-53,-24,-122,-9,297
-4,-63,-58,34,26,-61,-644,-48,-19,-97,-19,297
-4,-68,-63,36,29,-65,-644,-39,-14,-82,-24,287
-4,-68,-63,36,29,-65,-644,-39,-9,-68,-43,283
-4,-68,-63,36,29,-65,-644,-29,-9,-58,-53,278
-4,-73,-68,39,31,-70,-644,-19,-4,-48,-58,268
-4,-73,-68,39,31,-70,-649,-19,4,-34,-58,258
-4,-73,-68,39,31,-70,-649,-19,9,-24,-63,253
-4,-78,-73,41,34,-75,-653,-14,9,-14,-73,248
-4,-82,-78,43,36,-80,-653,-9,9,-4,-78,244
-4,-82,-78,43,36,-80,-663,-4,14,-9,-92,234
-4,-82,-78,43,36,-80,-673,0,19,-4,-102,224
-4,-82,-78,43,36,-80,-678,4,24,4,-102,219
-4,-92,-87,48,41,-90,-683,4,24,4,-102,214
-14,-102,-87,58,36,-95,-697,0,19,4,-92,209
-14,-102,-87,58,36,-95,-702,0,24,0,-92,200
-14,-102,-87,58,36,-95,-712,4,24,9,-92,200
-14,-102,-87,58,36,-95,-717,4,24,4,-87,190
-14,-107,-92,61,39,-100,-727,4,34,-4,-87,180
-14,-107,-92,61,39,-100,-736,4,39,-9,-82,170
-14,-107,-92,61,39,-100,-741,4,39,-14,-78,165
-14,-107,-92,61,39,-100,-746,4,34,-19,-78,156
0,-102,-102,51,51,-102,-751,14,43,-29,-73,146
4,-97,-102,46,53,-100,-751,14,48,-34,-58,146
4,-92,-97,43,51,-95,-751,14,53,-39,-53,141
9,-87,-97,39,53,-92,-751,14,58,-43,-43,136
14,-87,-102,36,58,-95,-751,24,73,-43,-34,112
19,-82,-102,31,61,-92,-756,29,78,-39,-39,102
24,-78,-102,26,63,-90,-761,29,82,-39,-39,97
29,-68,-97,19,63,-82,-766,34,87,-34,-43,92
29,-78,-107,24,68,-92,-761,39,97,-24,-34,82
24,-78,-102,26,63,-90,-761,43,102,-19,-39,68
19,-78,-97,29,58,-87,-766,43,117,-19,-39,63
14,-78,-92,31,53,-85,-775,48,122,-14,-34,58
19,-82,-102,31,61,-92,-780,43,136,-4,-24,43
19,-82,-102,31,61,-92,-790,53,146,4,-19,43
24,-87,-112,31,68,-100,-805,63,161,14,-19,34
29,-92,-122,31,75,-107,-814,68,175,29,-9,34
24,-97,-122,36,73,-109,-829,63,175,34,0,29
19,-97,-117,39,68,-107,-844,73,185,43,4,24
19,-92,-112,36,65,-102,-868,73,195,58,14,14
14,-87,-102,36,58,-95,-883,78,204,68,19,9
14,-78,-92,31,53,-85,-902,82,219,87,39,0
19,-73,-92,26,56,-82,-907,92,229,102,48,4
24,-73,-97,24,61,-85,-917,97,244,112,58,4
29,-73,-102,21,65,-87,-936,97,253,126,68,4
39,-53,-92,7,65,-73,-941,102,253,146,78,4
39,-48,-87,4,63,-68,-956,107,258,156,82,4
43,-39,-82,-2,63,-61,-961,112,263,165,87,4
43,-29,-73,-7,58,-51,-971,112,273,175,102,4
34,-29,-63,-2,48,-46,-980,117,292,200,112,0
34,-19,-53,-7,43,-36,-985,117,297,204,117,-4
43,-14,-58,-14,51,-36,-995,122,302,209,126,-9
43,-14,-58,-14,51,-36,-1005,122,307,224,131,-14
53,-9,-63,-21,58,-36,-1010,112,317,239,136,-19
48,-4,-53,-21,51,-29,-1015,107,317,244,141,-24
48,-4,-53,-21,51,-29,-1015,107,322,258,156,-34
48,-4,-53,-21,51,-29,-1019,107,326,268,165,-43
43,-4,-48,-19,46,-26,-1024,102,326,292,175,-58
43,0,-43,-21,43,-21,-1024,97,326,307,195,-63
43,0,-43,-21,43,-21,-1024,97,322,317,204,-68
43,4,-39,-24,41,-17,-1024,92,317,331,219,-73
43,4,-39,-24,41,-17,-1034,97,326,351,239,-78
43,9,-34,-26,39,-12,-1039,92,326,361,248,-82
43,9,-34,-26,39,-12,-1039,82,326,366,263,-82
43,14,-29,-29,36,-7,-1044,78,322,370,273,-87
39,4,-34,-21,36,-14,-1054,68,317,390,297,-102
39,4,-34,-21,36,-14,-1054,63,312,400,302,-107
39,9,-29,-24,34,-9,-1049,58,307,405,312,-112
39,9,-29,-24,34,-9,-1049,53,297,409,317,-117
39,14,-24,-26,31,-4,-1058,58,292,424,331,-126
39,14,-24,-26,31,-4,-1054,48,283,429,346,-122
39,19,-19,-29,29,0,-1049,43,278,429,361,-112
39,24,-14,-31,26,4,-1044,43,273,429,366,-112
39,19,-19,-29,29,0,-1039,39,263,439,380,-122
39,19,-19,-29,29,0,-1034,34,253,429,380,-122
39,19,-19,-29,29,0,-1029,24,244,424,380,-126
39,19,-19,-29,29,0,-1024,19,234,424,366,-126
29,14,-14,-21,21,0,-1024,14,219,424,366,-126
34,19,-14,-26,24,2,-1024,4,209,414,366,-131
34,24,-9,-29,21,7,-1015,-4,195,405,356,-136
34,24,-9,-29,21,7,-1010,-14,180,390,351,-141
34,34,0,-34,17,17,-1000,-4,175,380,351,-146
34,39,4,-36,14,21,-995,-19,165,361,346,-151
34,39,4,-36,14,21,-995,-19,156,351,336,-156
34,43,9,-39,12,26,-995,-24,141,341,326,-156
34,43,9,-39,12,26,-990,-39,126,312,307,-161
34,43,9,-39,12,26,-990,-48,112,302,307,-156
29,43,14,-36,7,29,-990,-58,97,287,302,-156
29,43,14,-36,7,29,-990,-68,92,273,292,-161
29,39,9,-34,9,24,-985,-78,82,263,287,-165
29,43,14,-36,7,29,-980,-78,78,248,283,-165
29,48,19,-39,4,34,-966,-87,68,244,283,-170
34,53,19,-43,7,36,-961,-97,58,224,278,-170
34,53,19,-43,7,36,-951,-107,34,204,263,-180
24,53,29,-39,-2,41,-951,-107,29,195,268,-180
24,53,29,-39,-2,41,-956,-112,24,190,268,-180
24,48,24,-36,0,36,-956,-117,19,185,263,-180
24,48,24,-36,0,36,-951,-126,9,175,253,-175
24,53,29,-39,-2,41,-946,-136,0,165,253,-170
24,58,34,-41,-4,46,-941,-141,-4,156,248,-170
24,63,39,-43,-7,51,-932,-146,-9,151,248,-175
34,73,39,-53,-2,56,-922,-136,-4,151,244,-175
34,73,39,-53,-2,56,-917,-136,-9,141,239,-175
34,73,39,-53,-2,56,-907,-141,-19,131,224,-180
34,73,39,-53,-2,56,-897,-146,-24,122,214,-185
39,73,34,-56,2,53,-893,-151,-19,102,204,-204
39,73,34,-56,2,53,-888,-151,-24,97,195,-209
39,73,34,-56,2,53,-883,-156,-24,92,180,-214
39,73,34,-56,2,53,-878,-156,-34,82,156,-214
39,73,34,-56,2,53,-868,-156,-53,68,131,-229
39,73,34,-56,2,53,-868,-161,-53,68,117,-234
39,73,34,-56,2,53,-868,-165,-63,68,107,-248
34,73,39,-53,-2,56,-868,-170,-68,63,97,-263
24,63,39,-43,-7,51,-858,-185,-73,48,73,-278
24,63,39,-43,-7,51,-863,-190,-78,48,53,-283
24,63,39,-43,-7,51,-863,-195,-78,43,39,-283
24,63,39,-43,-7,51,-863,-200,-78,39,14,-287
19,58,39,-39,-9,48,-854,-190,-87,34,-9,-297
19,58,39,-39,-9,48,-858,-195,-92,29,-39,-302
19,58,39,-39,-9,48,-858,-195,-97,24,-53,-302
24,58,34,-41,-4,46,-858,-190,-97,19,-68,-302
24,58,34,-41,-4,46,-868,-175,-107,-4,-92,-302
24,53,29,-39,-2,41,-863,-175,-112,-14,-122,-302
19,53,34,-36,-7,43,-863,-175,-122,-19,-141,-302
19,53,34,-36,-7,43,-863,-170,-122,-24,-161,-302
9,43,34,-26,-12,39,-844,-156,-112,-39,-180,-312
9,43,34,-26,-12,39,-839,-151,-112,-53,-204,-312
9,48,39,-29,-14,43,-829,-146,-112,-58,-209,-307
14,48,34,-31,-9,41,-814,-141,-107,-63,-214,-307
14,58,43,-36,-14,51,-800,-136,-92,-68,-229,-322
9,53,43,-31,-17,48,-795,-136,-92,-78,-234,-322
9,53,43,-31,-17,48,-785,-126,-87,-87,-239,-322
9,53,43,-31,-17,48,-775,-122,-78,-102,-244,-322
9,53,43,-31,-17,48,-761,-112,-63,-107,-253,-322
9,53,43,-31,-17,48,-746,-102,-48,-112,-253,-322
9,53,43,-31,-17,48,-736,-97,-43,-112,-253,-317
9,53,43,-31,-17,48,-736,-97,-39,-117,-248,-317
9,48,39,-29,-14,43,-722,-92,-29,-117,-253,-312
9,48,39,-29,-14,43,-712,-87,-19,-126,-258,-317
9,48,39,-29,-14,43,-697,-82,-9,-126,-263,-317
9,48,39,-29,-14,43,-692,-73,0,-126,-263,-322
19,53,34,-36,-7,43,-678,-53,0,-117,-263,-322
19,58,39,-39,-9,48,-678,-53,4,-112,-263,-331
19,63,43,-41,-12,53,-673,-53,9,-102,-268,-331
19,68,48,-43,-14,58,-668,-48,9,-92,-268,-326
19,58,39,-39,-9,48,-658,-48,24,-97,-263,-317
19,58,39,-39,-9,48,-658,-48,24,-87,-263,-317
19,58,39,-39,-9,48,-658,-43,24,-82,-258,-312
19,58,39,-39,-9,48,-663,-43,24,-78,-253,-307
9,58,48,-34,-19,53,-658,-39,34,-82,-258,-302
9,58,48,-34,-19,53,-658,-34,29,-78,-248,-302
9,58,48,-34,-19,53,-658,-29,24,-73,-234,-292
9,58,48,-34,-19,53,-658,-29,24,-68,-234,-283
19,63,43,-41,-12,53,-658,-24,29,-63,-229,-268
19,63,43,-41,-12,53,-663,-24,29,-58,-214,-263
24,68,43,-46,-9,56,-668,-24,29,-58,-200,-253
24,68,43,-46,-9,56,-663,-24,24,-53,-190,-253
24,73,48,-48,-12,61,-663,-24,24,-43,-185,-239
24,73,48,-48,-12,61,-668,-24,19,-43,-175,-234
24,73,48,-48,-12,61,-668,-24,14,-43,-165,-234
24,78,53,-51,-14,65,-678,-24,14,-43,-156,-234
14,73,58,-43,-21,65,-673,-34,19,-39,-156,-219
14,68,53,-41,-19,61,-683,-39,14,-39,-151,-219
14,63,48,-39,-17,56,-692,-39,14,-34,-141,-219
14,58,43,-36,-14,51,-697,-39,9,-29,-136,-214
9,48,39,-29,-14,43,-702,-34,14,-29,-126,-204
4,48,43,-26,-19,46,-707,-34,9,-34,-122,-209
0,48,48,-24,-24,48,-717,-39,9,-34,-117,-214
-4,48,53,-21,-29,51,-717,-48,14,-39,-117,-214
0,48,48,-24,-24,48,-736,-43,14,-24,-117,-214
4,53,48,-29,-21,51,-746,-48,9,-29,-122,-209
9,58,48,-34,-19,53,-756,-53,9,-29,-122,-214
14,68,53,-41,-19,61,-761,-58,4,-29,-126,-214
24,78,53,-51,-14,65,-766,-53,4,-19,-117,-214
19,78,58,-48,-19,68,-775,-58,9,-19,-117,-209
19,78,58,-48,-19,68,-785,-58,14,-24,-122,-214
19,78,58,-48,-19,68,-790,-63,19,-24,-126,-209
29,87,58,-58,-14,73,-800,-68,19,-19,-126,-219
29,87,58,-58,-14,73,-810,-73,14,-19,-131,-219
34,87,53,-61,-9,70,-819,-78,14,-14,-126,-219
39,87,48,-63,-4,68,-829,-82,14,-4,-131,-219
39,78,39,-58,0,58,-829,-87,19,4,-131,-234
34,78,43,-56,-4,61,-834,-92,14,4,-141,-239
34,78,43,-56,-4,61,-844,-92,14,-4,-151,-239
34,78,43,-56,-4,61,-849,-92,19,-9,-161,-239
34,78,43,-56,-4,61,-854,-92,14,-9,-161,-244
34,73,39,-53,-2,56,-854,-97,14,-4,-165,-248
34,73,39,-53,-2,56,-863,-97,14,4,-170,-253
34,73,39,-53,-2,56,-868,-97,14,14,-175,-258
24,63,39,-43,-7,51,-888,-107,4,4,-190,-263
24,63,39,-43,-7,51,-888,-107,4,4,-200,-268
24,63,39,-43,-7,51,-888,-107,9,14,-200,-273
24,63,39,-43,-7,51,-888,-107,9,14,-200,-278
14,53,39,-34,-12,46,-893,-97,0,19,-209,-292
14,53,39,-34,-12,46,-897,-102,0,24,-214,-292
14,53,39,-34,-12,46,-897,-102,0,24,-214,-287
14,53,39,-34,-12,46,-897,-97,0,29,-204,-287
19,63,43,-41,-12,53,-907,-102,-9,34,-204,-287
24,63,39,-43,-7,51,-907,-107,-9,34,-200,-287
29,63,34,-46,-2,48,-907,-112,-9,29,-195,-283
34,63,29,-48,2,46,-907,-112,-9,29,-195,-278
34,73,39,-53,-2,56,-902,-102,-19,24,-195,-283
34,73,39,-53,-2,56,-902,-102,-19,24,-185,-278
34,73,39,-53,-2,56,-907,-102,-19,29,-175,-273
39,78,39,-58,0,58,-907,-102,-19,29,-165,-263
34,63,29,-48,2,46,-897,-112,-9,29,-170,-268
24,58,34,-41,-4,46,-897,-112,-9,29,-165,-258
19,53,34,-36,-7,43,-893,-112,-14,29,-165,-248
14,48,34,-31,-9,41,-893,-112,-14,34,-161,-244
29,58,29,-43,0,43,-883,-102,-19,39,-141,-239
29,63,34,-46,-2,48,-873,-102,-19,48,-136,-234
29,68,39,-48,-4,53,-868,-102,-9,53,-131,-229
24,68,43,-46,-9,56,-868,-102,-9,53,-131,-229
24,68,43,-46,-9,56,-868,-112,-9,39,-136,-239
24,68,43,-46,-9,56,-858,-112,-9,39,-136,-234
24,73,48,-48,-12,61,-858,-112,-9,39,-141,-229
29,73,43,-51,-7,58,-854,-112,-9,34,-146,-229
29,63,34,-46,-2,48,-839,-112,-14,29,-156,-239
29,63,34,-46,-2,48,-829,-112,-14,29,-156,-239
29,73,43,-51,-7,58,-819,-112,-14,29,-156,-234
29,73,43,-51,-7,58,-810,-112,-19,29,-151,-229
29,82,53,-56,-12,68,-800,-112,-19,29,-170,-239
29,92,63,-61,-17,78,-790,-112,-19,19,-180,-244
29,97,68,-63,-19,82,-780,-117,-19,19,-185,-244
19,87,68,-53,-24,78,-771,-107,-9,19,-190,-234
19,87,68,-53,-24,78,-761,-107,-9,19,-195,-234
19,87,68,-53,-24,78,-751,-107,-9,19,-200,-234
19,87,68,-53,-24,78,-741,-107,-9,19,-204,-234
19,92,73,-56,-26,82,-722,-102,-9,9,-214,-234
19,97,78,-58,-29,87,-702,-97,0,4,-219,-234
19,97,78,-58,-29,87,-697,-92,0,4,-219,-234
19,97,78,-58,-29,87,-688,-87,0,4,-224,-234
29,112,82,-70,-26,97,-683,-92,-9,0,-234,-244
34,112,78,-73,-21,95,-678,-97,-9,0,-234,-248
34,112,78,-73,-21,95,-673,-97,-9,0,-229,-248
39,122,82,-80,-21,102,-673,-97,-9,-4,-229,-248
39,122,82,-80,-21,102,-673,-97,0,-4,-229,-248
39,126,87,-82,-24,107,-683,-102,0,-9,-229,-248
39,131,92,-85,-26,112,-688,-107,-4,-9,-229,-244
39,136,97,-87,-29,117,-697,-107,-14,-14,-229,-244
39,141,102,-90,-31,122,-712,-107,-14,-4,-229,-253
39,141,102,-90,-31,122,-717,-112,-19,-9,-229,-253
43,141,97,-92,-26,119,-722,-117,-19,-9,-234,-253
43,136,92,-90,-24,114,-722,-117,-24,-9,-234,-253
43,146,102,-95,-29,124,-732,-122,-24,-14,-244,-253
43,146,102,-95,-29,124,-732,-126,-34,-19,-244,-258
43,141,97,-92,-26,119,-736,-126,-34,-24,-239,-263
43,141,97,-92,-26,119,-736,-131,-34,-29,-239,-273
34,131,97,-82,-31,114,-727,-136,-39,-39,-248,-273
34,131,97,-82,-31,114,-722,-136,-39,-39,-248,-273
34,131,97,-82,-31,114,-717,-131,-39,-39,-248,-273
39,126,87,-82,-24,107,-717,-131,-39,-34,-248,-273
39,126,87,-82,-24,107,-707,-122,-34,-39,-248,-273
39,122,82,-80,-21,102,-707,-122,-34,-39,-248,-273
39,112,73,-75,-17,92,-702,-126,-34,-48,-248,-273
39,107,68,-73,-14,87,-702,-126,-34,-53,-248,-273
48,102,53,-75,-2,78,-697,-126,-43,-53,-253,-287
48,97,48,-73,0,73,-692,-126,-43,-53,-253,-287
43,97,53,-70,-4,75,-683,-126,-43,-53,-253,-287
43,92,48,-68,-2,70,-673,-126,-39,-48,-253,-287
43,78,34,-61,4,56,-663,-122,-39,-58,-263,-297
43,78,34,-61,4,56,-663,-122,-39,-53,-258,-297
43,78,34,-61,4,56,-658,-117,-39,-48,-258,-292
48,78,29,-63,9,53,-653,-117,-39,-48,-258,-292
43,73,29,-58,7,51,-649,-112,-39,-58,-268,-292
39,73,34,-56,2,53,-649,-112,-39,-58,-273,-292
34,63,29,-48,2,46,-649,-112,-39,-58,-278,-297
29,63,34,-46,-2,48,-644,-112,-39,-58,-292,-302
29,48,19,-39,4,34,-644,-122,-43,-58,-292,-312
19,48,29,-34,-4,39,-644,-122,-43,-63,-297,-317
14,43,29,-29,-7,36,-634,-122,-48,-68,-302,-322
14,43,29,-29,-7,36,-634,-122,-48,-73,-307,-326
24,48,24,-36,0,36,-614,-117,-43,-63,-307,-317
24,53,29,-39,-2,41,-610,-112,-43,-63,-307,-317
24,58,34,-41,-4,46,-605,-107,-39,-63,-307,-317
19,58,39,-39,-9,48,-605,-107,-34,-63,-312,-317
29,58,29,-43,0,43,-610,-97,-24,-53,-307,-307
29,58,29,-43,0,43,-610,-97,-29,-48,-302,-302
34,58,24,-46,4,41,-610,-97,-29,-43,-302,-302
34,53,19,-43,7,36,-610,-97,-34,-43,-297,-302
19,53,34,-36,-7,43,-610,-97,-24,-43,-307,-302
19,58,39,-39,-9,48,-610,-97,-24,-43,-307,-302
19,58,39,-39,-9,48,-610,-97,-29,-43,-302,-302
19,53,34,-36,-7,43,-610,-97,-34,-48,-302,-302
34,53,19,-43,7,36,-595,-87,-29,-43,-312,-292
34,58,24,-46,4,41,-595,-87,-24,-39,-312,-292
34,58,24,-46,4,41,-595,-82,-19,-29,-312,-292
34,58,24,-46,4,41,-595,-82,-14,-24,-317,-302
24,48,24,-36,0,36,-595,-87,-14,-19,-312,-292
24,48,24,-36,0,36,-590,-87,-14,-19,-312,-292
24,48,24,-36,0,36,-585,-82,-14,-14,-312,-292
24,48,24,-36,0,36,-585,-82,-19,-14,-312,-292
14,48,34,-31,-9,41,-575,-82,-9,-14,-312,-287
14,48,34,-31,-9,41,-570,-82,-4,-9,-312,-287
14,48,34,-31,-9,41,-570,-82,-4,-4,-307,-283
14,48,34,-31,-9,41,-570,-82,-4,0,-307,-283
24,48,24,-36,0,36,-566,-82,0,0,-302,-273
24,48,24,-36,0,36,-566,-82,0,0,-302,-273
24,48,24,-36,0,36,-566,-82,0,0,-307,-273
24,48,24,-36,0,36,-561,-82,0,0,-312,-273
19,39,19,-29,0,29,-551,-82,-9,0,-307,-263
14,34,19,-24,-2,26,-551,-82,-14,4,-317,-268
9,34,24,-21,-7,29,-546,-82,-14,4,-322,-273
4,34,29,-19,-12,31,-546,-78,-14,4,-322,-273
14,43,29,-29,-7,36,-541,-82,-9,4,-322,-273
34,48,14,-41,9,31,-531,-63,4,9,-326,-268
29,58,29,-43,0,43,-522,-39,14,-4,-331,-273
34,58,24,-46,4,41,-502,-9,39,-4,-336,-268
34,48,14,-41,9,31,-492,39,82,-4,-341,-273
34,48,14,-41,9,31,-483,68,131,-19,-346,-278
24,48,24,-36,0,36,-473,92,170,-14,-356,-278
24,63,39,-43,-7,51,-473,92,195,-9,-351,-278
29,78,48,-53,-9,63,-468,78,195,14,-331,-258
48,102,53,-75,-2,78,-478,68,209,82,-287,-234
78,122,43,-100,17,82,-488,107,253,156,-219,-190
82,141,58,-112,12,100,-497,190,326,244,-156,-161
107,170,63,-139,21,117,-488,302,419,326,-87,-117
141,214,73,-178,34,143,-488,380,478,429,-9,-78
185,248,63,-217,61,156,-502,390,522,536,78,-14
214,297,82,-256,65,190,-507,351,527,653,165,43
244,361,117,-302,63,239,-527,326,517,795,273,102
278,419,141,-348,68,280,-527,361,551,961,380,175
312,483,170,-397,70,326,-536,326,590,1127,502,253
341,531,190,-436,75,361,-580,146,556,1263,605,317
385,590,204,-488,90,397,-639,-53,463,1381,697,380
429,649,219,-539,104,434,-702,-229,356,1503,775,434
473,688,214,-580,129,451,-756,-458,234,1629,858,478
483,678,195,-580,143,436,-790,-663,102,1703,897,507
483,629,146,-556,168,387,-824,-780,-63,1664,858,468
458,546,87,-502,185,317,-834,-873,-244,1527,746,405
385,439,53,-412,165,246,-814,-985,-434,1322,570,297
268,322,53,-295,107,187,-795,-1083,-649,995,312,146
136,224,87,-180,24,156,-780,-1112,-814,629,34,-24
19,151,131,-85,-56,141,-717,-1098,-922,278,-190,-156
-63,92,156,-14,-109,124,-668,-1054,-976,-29,-370,-253
-63,68,131,-2,-97,100,-678,-976,-936,-195,-458,-312
-29,78,107,-24,-68,92,-717,-888,-839,-214,-448,-312
-9,73,82,-31,-46,78,-736,-800,-771,-224,-429,-302
9,53,43,-31,-17,48,-727,-673,-707,-239,-419,-302
19,43,24,-31,-2,34,-692,-546,-634,-229,-405,-302
24,19,-4,-21,14,7,-663,-453,-570,-224,-400,-312
24,0,-24,-12,24,-12,-629,-390,-512,-219,-400,-312
24,9,-14,-17,19,-2,-610,-341,-453,-209,-395,-317
19,4,-14,-12,17,-4,-590,-322,-409,-214,-395,-317
9,4,-4,-7,7,0,-570,-297,-375,-209,-414,-322
9,4,-4,-7,7,0,-561,-268,-336,-200,-424,-322
9,9,0,-9,4,4,-546,-244,-312,-195,-434,-326
9,24,14,-17,-2,19,-536,-209,-283,-175,-448,-326
4,24,19,-14,-7,21,-536,-185,-248,-165,-463,-322
14,24,9,-19,2,17,-546,-180,-204,-165,-473,-322
14,29,14,-21,0,21,-541,-165,-170,-170,-488,-317
19,29,9,-24,4,19,-536,-146,-141,-175,-502,-317
24,24,0,-24,12,12,-522,-122,-126,-185,-517,-317
24,4,-19,-14,21,-7,-512,-107,-122,-185,-536,-317
24,4,-19,-14,21,-7,-497,-87,-122,-185,-551,-317
24,4,-19,-14,21,-7,-483,-82,-117,-180,-566,-326
24,4,-19,-14,21,-7,-468,-73,-117,-180,-566,-326
14,4,-9,-9,12,-2,-439,-68,-107,-170,-566,-326
14,4,-9,-9,12,-2,-409,-63,-97,-170,-566,-326
14,4,-9,-9,12,-2,-390,-63,-87,-165,-566,-322
14,4,-9,-9,12,-2,-366,-53,-82,-165,-566,-312
4,-9,-14,2,9,-12,-346,-34,-73,-161,-556,-317
4,-9,-14,2,9,-12,-326,-29,-63,-165,-546,-317
4,-14,-19,4,12,-17,-312,-19,-58,-180,-536,-322
4,-14,-19,4,12,-17,-292,-14,-43,-185,-517,-312
-4,-29,-24,17,9,-26,-283,0,-24,-195,-497,-302
-4,-29,-24,17,9,-26,-273,4,-19,-204,-483,-292
-4,-29,-24,17,9,-26,-263,14,-4,-204,-473,-283
0,-29,-29,14,14,-29,-263,24,0,-204,-463,-273
0,-29,-29,14,14,-29,-263,43,19,-200,-439,-263
0,-29,-29,14,14,-29,-258,58,29,-200,-419,-253
0,-29,-29,14,14,-29,-258,68,39,-195,-400,-248
0,-24,-24,12,12,-24,-253,68,43,-185,-385,-244
9,-24,-34,7,21,-29,-253,82,48,-195,-375,-239
9,-29,-39,9,24,-34,-248,82,48,-195,-366,-239
4,-34,-39,14,21,-36,-248,87,53,-195,-356,-239
4,-34,-39,14,21,-36,-248,92,58,-195,-351,-234
9,-24,-34,7,21,-29,-253,107,48,-180,-331,-244
9,-24,-34,7,21,-29,-258,112,48,-170,-322,-239
9,-24,-34,7,21,-29,-258,112,48,-165,-312,-234
9,-24,-34,7,21,-29,-263,112,53,-161,-307,-229
9,-24,-34,7,21,-29,-283,102,43,-161,-302,-224
4,-29,-34,12,19,-31,-287,102,43,-165,-297,-219
4,-29,-34,12,19,-31,-292,97,43,-165,-292,-214
4,-29,-34,12,19,-31,-302,97,48,-156,-292,-209
4,-19,-24,7,14,-21,-302,102,48,-156,-302,-204
4,-24,-29,9,17,-26,-307,102,53,-161,-297,-200
4,-24,-29,9,17,-26,-312,97,63,-161,-292,-195
4,-19,-24,7,14,-21,-317,92,63,-165,-287,-190
4,-19,-24,7,14,-21,-317,92,63,-170,-292,-190
4,-19,-24,7,14,-21,-322,87,58,-161,-292,-190
4,-19,-24,7,14,-21,-322,87,58,-156,-297,-190
4,-24,-29,9,17,-26,-322,87,58,-146,-312,-190
14,-39,-53,12,34,-46,-312,87,53,-146,-331,-185
14,-39,-53,12,34,-46,-312,87,58,-136,-356,-185
14,-39,-53,12,34,-46,-312,97,58,-131,-370,-185
14,-43,-58,14,36,-51,-312,107,63,-126,-380,-190
4,-43,-48,19,26,-46,-307,102,63,-112,-400,-195
4,-43,-48,19,26,-46,-307,97,68,-102,-414,-195
4,-48,-53,21,29,-51,-312,97,68,-92,-434,-195
4,-53,-58,24,31,-56,-312,97,68,-82,-448,-195
-4,-53,-48,29,21,-51,-312,92,63,-73,-458,-200
-4,-53,-48,29,21,-51,-322,97,68,-63,-473,-204
-4,-53,-48,29,21,-51,-326,102,73,-48,-478,-204
-4,-63,-58,34,26,-61,-331,102,73,-43,-483,-204
4,-73,-78,34,41,-75,-346,97,68,-24,-468,-200
4,-73,-78,34,41,-75,-351,97,73,-19,-463,-200
4,-73,-78,34,41,-75,-361,102,73,0,-458,-190
4,-73,-78,34,41,-75,-366,102,73,4,-448,-190
-4,-78,-73,41,34,-75,-370,92,73,9,-439,-190
-4,-78,-73,41,34,-75,-375,92,78,9,-424,-190
-4,-78,-73,41,34,-75,-375,92,78,9,-409,-185
-4,-78,-73,41,34,-75,-375,92,73,9,-400,-185
9,-78,-87,34,48,-82,-370,102,82,14,-385,-190
14,-78,-92,31,53,-85,-370,102,87,14,-361,-185
14,-78,-92,31,53,-85,-370,102,92,14,-346,-185
19,-78,-97,29,58,-87,-370,102,97,14,-326,-185
29,-82,-112,26,70,-97,-366,102,92,24,-312,-185
29,-82,-112,26,70,-97,-366,107,97,29,-312,-190
29,-82,-112,26,70,-97,-366,107,102,29,-307,-190
29,-78,-107,24,68,-92,-366,112,107,34,-307,-190
29,-87,-117,29,73,-102,-356,126,107,34,-302,-204
24,-87,-112,31,68,-100,-351,131,112,39,-302,-214
19,-87,-107,34,63,-97,-351,131,126,39,-297,-214
14,-87,-102,36,58,-95,-356,136,131,43,-287,-214
9,-87,-97,39,53,-92,-366,141,146,43,-297,-209
9,-82,-92,36,51,-87,-370,151,156,53,-292,-209
14,-82,-97,34,56,-90,-380,161,170,63,-292,-219
19,-82,-102,31,61,-92,-385,165,185,78,-283,-219
29,-78,-107,24,68,-92,-380,170,195,87,-283,-219
29,-78,-107,24,68,-92,-385,180,204,92,-278,-219
34,-73,-107,19,70,-90,-400,180,214,102,-268,-224
34,-68,-102,17,68,-85,-405,185,224,107,-263,-224
19,-73,-92,26,56,-82,-419,190,239,112,-263,-224
19,-73,-92,26,56,-82,-419,200,248,122,-263,-219
19,-78,-97,29,58,-87,-424,204,263,126,-263,-219
19,-82,-102,31,61,-92,-439,204,273,136,-263,-219
29,-73,-102,21,65,-87,-429,209,283,146,-258,-209
29,-68,-97,19,63,-82,-439,214,287,156,-258,-209
34,-58,-92,12,63,-75,-439,219,292,165,-258,-209
34,-48,-82,7,58,-65,-444,219,302,175,-248,-209
24,-58,-82,17,53,-70,-439,224,312,180,-234,-200
24,-48,-73,12,48,-61,-439,224,317,185,-234,-200
34,-43,-78,4,56,-61,-444,229,322,190,-229,-200
34,-43,-78,4,56,-61,-448,229,326,204,-229,-200
43,-39,-82,-2,63,-61,-453,239,336,209,-219,-190
39,-34,-73,-2,56,-53,-458,234,336,214,-219,-190
39,-34,-73,-2,56,-53,-458,234,341,229,-209,-195
39,-34,-73,-2,56,-53,-463,234,346,239,-204,-200
43,-24,-68,-9,56,-46,-458,229,336,244,-190,-190
43,-19,-63,-12,53,-41,-458,224,336,248,-175,-190
43,-19,-63,-12,53,-41,-458,224,331,248,-170,-190
43,-14,-58,-14,51,-36,-458,219,326,253,-161,-190
43,-14,-58,-14,51,-36,-463,214,326,258,-151,-190
43,-9,-53,-17,48,-31,-463,209,326,263,-141,-190
43,-9,-53,-17,48,-31,-458,200,326,263,-126,-185
43,-4,-48,-19,46,-26,-458,195,322,263,-117,-185
29,-14,-43,-7,36,-29,-453,185,317,258,-107,-185
29,-14,-43,-7,36,-29,-448,180,312,263,-107,-185
29,-9,-39,-9,34,-24,-439,175,307,263,-102,-185
29,-9,-39,-9,34,-24,-434,170,297,263,-102,-185
29,-4,-34,-12,31,-19,-434,175,302,258,-112,-190
29,-4,-34,-12,31,-19,-429,165,292,253,-112,-190
29,0,-29,-14,29,-14,-424,161,287,244,-112,-185
29,4,-24,-17,26,-9,-419,161,283,234,-122,-190
29,0,-29,-14,29,-14,-409,156,273,219,-131,-190
29,0,-29,-14,29,-14,-400,151,263,204,-136,-190
29,0,-29,-14,29,-14,-390,141,253,195,-141,-195
29,0,-29,-14,29,-14,-380,136,244,190,-161,-195
29,14,-14,-21,21,0,-370,131,239,170,-185,-185
34,19,-14,-26,24,2,-370,122,229,161,-190,-190
34,24,-9,-29,21,7,-361,112,214,151,-204,-195
34,24,-9,-29,21,7,-356,102,200,136,-214,-200
34,24,-9,-29,21,7,-346,92,185,122,-219,-200
34,29,-4,-31,19,12,-341,78,175,97,-229,-200
34,29,-4,-31,19,12,-341,78,165,82,-244,-200
34,34,0,-34,17,17,-341,73,151,68,-258,-195
34,34,0,-34,17,17,-331,63,141,58,-258,-185
34,34,0,-34,17,17,-326,58,131,48,-258,-175
29,34,4,-31,12,19,-322,53,122,34,-263,-170
29,34,4,-31,12,19,-317,48,122,19,-273,-170
29,39,9,-34,9,24,-326,48,102,4,-278,-170
29,43,14,-36,7,29,-326,48,97,-14,-283,-165
29,48,19,-39,4,34,-317,39,87,-24,-283,-165
34,53,19,-43,7,36,-317,29,78,-48,-287,-161
34,63,29,-48,2,46,-317,19,63,-48,-292,-170
24,63,39,-43,-7,51,-317,19,58,-58,-287,-170
24,63,39,-43,-7,51,-322,14,53,-63,-287,-170
24,58,34,-41,-4,46,-322,9,48,-68,-292,-170
24,53,29,-39,-2,41,-322,9,39,-78,-292,-161
24,53,29,-39,-2,41,-322,0,29,-87,-292,-151
24,53,29,-39,-2,41,-322,-4,24,-97,-297,-146
24,53,29,-39,-2,41,-317,-9,19,-102,-297,-146
24,53,29,-39,-2,41,-307,-9,14,-107,-287,-136
24,53,29,-39,-2,41,-312,-9,9,-112,-287,-136
24,53,29,-39,-2,41,-312,-14,0,-117,-297,-141
24,53,29,-39,-2,41,-312,-19,-4,-122,-302,-146
19,53,34,-36,-7,43,-322,-24,-9,-131,-297,-146
19,53,34,-36,-7,43,-322,-24,-14,-136,-302,-151
19,53,34,-36,-7,43,-322,-29,-14,-141,-312,-156
19,53,34,-36,-7,43,-322,-29,-24,-151,-331,-156
19,53,34,-36,-7,43,-322,-29,-24,-151,-331,-156
19,53,34,-36,-7,43,-322,-34,-24,-146,-341,-156
19,53,34,-36,-7,43,-322,-39,-34,-141,-346,-165
14,53,39,-34,-12,46,-322,-43,-39,-141,-351,-175
14,43,29,-29,-7,36,-312,-39,-34,-131,-356,-170
14,43,29,-29,-7,36,-317,-43,-39,-126,-366,-175
14,43,29,-29,-7,36,-317,-48,-39,-126,-370,-175
14,43,29,-29,-7,36,-317,-53,-39,-126,-385,-180
0,29,29,-14,-14,29,-317,-43,-39,-126,-390,-175
0,29,29,-14,-14,29,-322,-48,-43,-126,-419,-175
0,29,29,-14,-14,29,-322,-48,-48,-126,-434,-170
4,29,24,-17,-9,26,-322,-43,-48,-126,-448,-165
-4,29,34,-12,-19,31,-317,-29,-43,-126,-453,-175
-4,24,29,-9,-17,26,-307,-29,-43,-131,-463,-175
-9,24,34,-7,-21,29,-302,-29,-48,-131,-463,-175
-9,24,34,-7,-21,29,-297,-24,-43,-131,-463,-175
-4,24,29,-9,-17,26,-287,-9,-43,-122,-463,-175
0,24,24,-12,-12,24,-283,-4,-43,-122,-478,-175
4,29,24,-17,-9,26,-273,0,-43,-112,-473,-170
14,29,14,-21,0,21,-258,4,-39,-102,-468,-170
14,39,24,-26,-4,31,-248,9,-34,-102,-458,-170
9,34,24,-21,-7,29,-239,9,-34,-107,-458,-165
9,34,24,-21,-7,29,-224,19,-29,-112,-458,-161
9,34,24,-21,-7,29,-209,24,-19,-122,-458,-156
9,43,34,-26,-12,39,-195,24,-14,-126,-453,-156
9,43,34,-26,-12,39,-180,34,0,-131,-448,-156
9,43,34,-26,-12,39,-170,39,4,-131,-444,-151
9,43,34,-26,-12,39,-170,39,9,-136,-434,-151
0,39,39,-19,-19,39,-161,29,14,-141,-424,-146
0,39,39,-19,-19,39,-156,29,19,-156,-424,-151
0,39,39,-19,-19,39,-146,29,24,-161,-424,-151
0,39,39,-19,-19,39,-146,34,29,-165,-419,-156
0,39,39,-19,-19,39,-151,43,39,-165,-409,-156
0,39,39,-19,-19,39,-151,43,43,-161,-400,-156
0,39,39,-19,-19,39,-146,43,48,-151,-395,-146
0,39,39,-19,-19,39,-141,48,48,-141,-385,-131
0,39,39,-19,-19,39,-156,58,43,-136,-366,-141
0,39,39,-19,-19,39,-161,58,43,-126,-361,-141
0,39,39,-19,-19,39,-165,63,43,-122,-351,-136
0,39,39,-19,-19,39,-175,63,43,-117,-341,-131
0,39,39,-19,-19,39,-180,58,43,-122,-326,-126
0,39,39,-19,-19,39,-190,63,39,-117,-317,-126
0,39,39,-19,-19,39,-200,68,34,-112,-302,-117
0,39,39,-19,-19,39,-209,68,34,-107,-302,-107
-9,24,34,-7,-21,29,-224,63,29,-102,-283,-102
-9,24,34,-7,-21,29,-234,63,29,-97,-263,-97
-4,29,34,-12,-19,31,-244,63,29,-97,-244,-87
-4,29,34,-12,-19,31,-244,63,24,-92,-229,-87
4,43,39,-24,-17,41,-258,53,14,-102,-204,-92
4,43,39,-24,-17,41,-268,53,9,-102,-195,-87
4,43,39,-24,-17,41,-273,53,4,-102,-185,-87
4,48,43,-26,-19,46,-287,53,4,-102,-175,-87
14,58,43,-36,-14,51,-292,48,0,-117,-175,-92
14,58,43,-36,-14,51,-302,39,-4,-117,-170,-92
14,58,43,-36,-14,51,-312,34,-4,-112,-161,-92
14,58,43,-36,-14,51,-317,29,-9,-107,-156,-87
4,48,43,-26,-19,46,-331,19,-19,-112,-161,-102
4,48,43,-26,-19,46,-346,14,-29,-122,-161,-112
4,48,43,-26,-19,46,-366,4,-34,-126,-161,-122
4,48,43,-26,-19,46,-375,-9,-34,-136,-165,-126
4,43,39,-24,-17,41,-395,-4,-43,-126,-165,-131
4,43,39,-24,-17,41,-405,-9,-48,-136,-170,-131
4,43,39,-24,-17,41,-414,-14,-48,-141,-170,-141
4,48,43,-26,-19,46,-419,-19,-53,-146,-175,-146
-4,43,48,-19,-26,46,-429,-34,-58,-136,-165,-151
-9,39,48,-14,-29,43,-444,-39,-58,-136,-165,-151
-9,34,43,-12,-26,39,-458,-39,-58,-141,-170,-161
-9,29,39,-9,-24,34,-468,-43,-58,-141,-175,-161
0,34,34,-17,-17,34,-473,-39,-58,-136,-175,-156
0,39,39,-19,-19,39,-478,-43,-63,-136,-180,-151
4,43,39,-24,-17,41,-483,-48,-63,-131,-175,-146
9,48,39,-29,-14,43,-488,-53,-63,-122,-180,-141
19,58,39,-39,-9,48,-488,-58,-58,-117,-170,-141
14,58,43,-36,-14,51,-492,-63,-63,-112,-170,-141
14,58,43,-36,-14,51,-502,-63,-63,-117,-170,-136
14,58,43,-36,-14,51,-507,-63,-58,-117,-170,-131
9,48,39,-29,-14,43,-512,-63,-53,-107,-170,-117
4,43,39,-24,-17,41,-512,-68,-53,-102,-165,-112
0,43,43,-21,-21,43,-522,-68,-53,-92,-161,-107
-4,43,48,-19,-26,46,-527,-68,-53,-82,-156,-102
4,43,39,-24,-17,41,-536,-78,-63,-82,-146,-87
4,43,39,-24,-17,41,-536,-78,-63,-82,-151,-82
4,43,39,-24,-17,41,-536,-78,-58,-73,-146,-78
4,43,39,-24,-17,41,-536,-78,-58,-73,-141,-73
4,43,39,-24,-17,41,-541,-68,-68,-68,-126,-68
4,43,39,-24,-17,41,-546,-73,-68,-63,-126,-68
4,43,39,-24,-17,41,-546,-73,-68,-63,-122,-63
4,43,39,-24,-17,41,-546,-68,-68,-58,-107,-63
4,43,39,-24,-17,41,-546,-78,-78,-58,-112,-58
4,43,39,-24,-17,41,-546,-78,-78,-53,-102,-53
4,43,39,-24,-17,41,-546,-78,-78,-53,-92,-43
4,43,39,-24,-17,41,-546,-73,-78,-48,-87,-34
0,39,39,-19,-19,39,-551,-82,-87,-48,-92,-34
-4,34,39,-14,-21,36,-551,-82,-87,-53,-78,-34
-9,29,39,-9,-24,34,-556,-82,-87,-53,-63,-34
-9,29,39,-9,-24,34,-556,-82,-87,-58,-48,-29
-19,24,43,-2,-31,34,-556,-82,-87,-48,-39,-39
-24,19,43,2,-34,31,-556,-82,-87,-48,-29,-34
-24,14,39,4,-31,26,-551,-82,-92,-48,-24,-29
-24,9,34,7,-29,21,-551,-82,-92,-43,-14,-29
-4,24,29,-9,-17,26,-546,-73,-78,-39,-4,-24
0,34,34,-17,-17,34,-531,-73,-78,-29,0,-19
4,43,39,-24,-17,41,-522,-73,-68,-24,4,-14
4,48,43,-26,-19,46,-517,-73,-68,-24,4,-14
4,39,34,-21,-14,36,-517,-63,-68,-24,-4,-19
4,39,34,-21,-14,36,-507,-63,-68,-19,0,-19
4,43,39,-24,-17,41,-507,-63,-68,-14,0,-19
9,43,34,-26,-12,39,-502,-63,-68,-14,0,-24
4,39,34,-21,-14,36,-502,-73,-68,-29,-4,-34
0,34,34,-17,-17,34,-497,-73,-63,-29,-9,-34
-4,39,43,-17,-24,41,-492,-73,-58,-29,-14,-29
-9,34,43,-12,-26,39,-488,-73,-58,-29,-14,-24
19,63,43,-41,-12,53,-468,-53,-39,-9,-14,-24
19,63,43,-41,-12,53,-439,-53,-39,-9,-14,-29
9,68,58,-39,-24,63,-429,-53,-34,-19,-24,-29
19,87,68,-53,-24,78,-419,-48,-29,-9,-29,-29
19,87,68,-53,-24,78,-405,-48,-29,-24,-34,-39
19,87,68,-53,-24,78,-400,-48,-29,-29,-39,-39
19,87,68,-53,-24,78,-395,-48,-29,-34,-43,-39
19,87,68,-53,-24,78,-390,-48,-29,-39,-48,-39
9,82,73,-46,-31,78,-375,-39,-29,-43,-53,-43
9,87,78,-48,-34,82,-361,-39,-19,-53,-63,-48
9,87,78,-48,-34,82,-361,-39,-19,-58,-68,-53
9,87,78,-48,-34,82,-356,-39,-19,-63,-78,-58
0,82,82,-41,-41,82,-356,-34,-19,-68,-87,-58
4,82,78,-43,-36,80,-356,-39,-19,-68,-87,-63
4,82,78,-43,-36,80,-356,-39,-19,-68,-82,-63
9,92,82,-51,-36,87,-361,-39,-19,-73,-82,-63
0,87,87,-43,-43,87,-370,-39,-19,-82,-92,-73
0,87,87,-43,-43,87,-380,-43,-19,-87,-92,-73
0,87,87,-43,-43,87,-385,-48,-24,-87,-92,-68
0,87,87,-43,-43,87,-395,-48,-34,-92,-92,-68
9,102,92,-56,-41,97,-409,-58,-34,-82,-82,-78
9,102,92,-56,-41,97,-414,-63,-39,-87,-82,-78
14,102,87,-58,-36,95,-419,-68,-39,-87,-87,-78
14,97,82,-56,-34,90,-419,-68,-43,-87,-87,-78
4,107,102,-56,-48,104,-419,-73,-53,-87,-87,-78
4,107,102,-56,-48,104,-419,-78,-63,-87,-87,-82
4,102,97,-53,-46,100,-424,-78,-63,-87,-82,-87
4,102,97,-53,-46,100,-424,-82,-63,-87,-82,-97
4,92,87,-48,-41,90,-419,-78,-58,-78,-78,-87
4,92,87,-48,-41,90,-409,-78,-58,-78,-73,-87
4,92,87,-48,-41,90,-400,-73,-58,-78,-68,-87
9,87,78,-48,-34,82,-395,-73,-58,-73,-63,-87
0,78,78,-39,-39,78,-385,-73,-53,-63,-58,-73
0,73,73,-36,-36,73,-385,-73,-53,-58,-53,-68
0,63,63,-31,-31,63,-380,-78,-53,-63,-48,-63
0,58,58,-29,-29,58,-380,-78,-53,-63,-43,-58
0,53,53,-26,-26,53,-370,-68,-63,-58,-43,-53
0,48,48,-24,-24,48,-370,-68,-63,-53,-39,-53
-4,48,53,-21,-29,51,-366,-68,-63,-48,-34,-53
-4,43,48,-19,-26,46,-361,-68,-58,-39,-29,-53
-4,39,43,-17,-24,41,-351,-73,-48,-29,-19,-43
-4,39,43,-17,-24,41,-351,-73,-48,-24,-14,-43
-4,39,43,-17,-24,41,-346,-68,-48,-19,-14,-39
0,39,39,-19,-19,39,-341,-68,-48,-19,-14,-39
0,24,24,-12,-12,24,-336,-63,-39,-19,-14,-29
0,24,24,-12,-12,24,-336,-63,-39,-19,-9,-29
0,14,14,-7,-7,14,-336,-63,-39,-19,-4,-34
0,14,14,-7,-7,14,-331,-63,-39,-19,-9,-39
-9,9,19,0,-14,14,-331,-63,-53,-19,0,-34
-19,9,29,4,-24,19,-331,-63,-53,-24,-4,-34
-24,4,29,9,-26,17,-322,-63,-58,-29,-9,-34
-24,4,29,9,-26,17,-322,-63,-58,-34,-14,-34
-24,-4,19,14,-21,7,-317,-63,-68,-43,-4,-24
-24,-4,19,14,-21,7,-317,-63,-73,-43,-4,-24
-24,-4,19,14,-21,7,-317,-63,-73,-43,-4,-24
-29,-9,19,19,-24,4,-322,-68,-73,-43,-9,-24
-39,-19,19,29,-29,0,-317,-68,-73,-48,-4,-19
-39,-19,19,29,-29,0,-317,-68,-78,-48,0,-9
-34,-19,14,26,-24,-2,-317,-68,-78,-48,0,-4
-34,-24,9,29,-21,-7,-317,-68,-82,-53,4,0
-39,-34,4,36,-21,-14,-317,-78,-82,-53,14,-4
-39,-29,9,34,-24,-9,-317,-78,-82,-53,14,0
-39,-29,9,34,-24,-9,-317,-78,-87,-53,19,4
-39,-34,4,36,-21,-14,-317,-78,-92,-58,19,9
-43,-34,9,39,-26,-12,-322,-87,-102,-58,24,14
-43,-29,14,36,-29,-7,-322,-87,-102,-58,29,19
-43,-29,14,36,-29,-7,-322,-82,-102,-53,34,24
-43,-29,14,36,-29,-7,-322,-82,-102,-53,34,19
-34,-29,4,31,-19,-12,-322,-78,-92,-48,34,9
-34,-29,4,31,-19,-12,-317,-78,-92,-48,39,9
-34,-29,4,31,-19,-12,-312,-73,-92,-43,43,9
-34,-29,4,31,-19,-12,-312,-73,-97,-43,48,9
-43,-29,14,36,-29,-7,-312,-73,-97,-58,43,0
-43,-29,14,36,-29,-7,-307,-73,-92,-58,39,-4
-43,-29,14,36,-29,-7,-307,-73,-92,-58,39,-4
-43,-29,14,36,-29,-7,-307,-73,-92,-58,34,-9
-34,-19,14,26,-24,-2,-312,-73,-92,-68,24,0
-34,-19,14,26,-24,-2,-312,-73,-97,-68,19,0
-34,-19,14,26,-24,-2,-312,-73,-102,-68,9,0
-34,-19,14,26,-24,-2,-307,-73,-107,-68,0,0
-34,-19,14,26,-24,-2,-307,-73,-107,-73,-4,9
-34,-24,9,29,-21,-7,-307,-73,-112,-73,-14,4
-34,-24,9,29,-21,-7,-302,-73,-112,-78,-19,0
-34,-24,9,29,-21,-7,-302,-68,-112,-82,-19,0
-43,-24,19,34,-31,-2,-287,-63,-107,-92,-19,-9
-53,-39,14,46,-34,-12,-297,-53,-102,-97,-24,-24
-58,-58,0,58,-29,-29,-287,-29,-82,-112,-29,-39
-53,-58,-4,56,-24,-31,-278,9,-39,-112,-34,-43
-53,-58,-4,56,-24,-31,-268,48,4,-122,-39,-48
-53,-58,-4,56,-24,-31,-248,78,53,-117,-43,-53
-43,-29,14,36,-29,-7,-248,102,92,-102,-34,-34
-34,-4,29,19,-31,12,-248,92,97,-87,-19,-24
-29,9,39,9,-34,24,-253,68,97,-43,0,-4
0,34,34,-17,-17,34,-263,78,112,24,53,19
29,82,53,-56,-12,68,-263,126,175,117,122,53
63,122,58,-92,2,90,-253,229,268,214,195,92
87,151,63,-119,12,107,-263,302,341,317,273,136
112,175,63,-143,24,119,-283,341,400,419,361,195
136,219,82,-178,26,151,-297,331,434,546,448,258
156,268,112,-212,21,190,-312,312,429,683,546,317
195,341,146,-268,24,244,-322,346,448,854,663,385
248,409,161,-329,43,285,-322,370,512,1029,771,448
273,463,190,-368,41,326,-361,258,522,1185,873,507
302,492,190,-397,56,341,-414,87,468,1302,966,570
326,531,204,-429,61,368,-473,-53,385,1420,1058,634
351,570,219,-461,65,395,-527,-258,258,1542,1146,688
375,590,214,-483,80,402,-570,-478,107,1649,1220,741
385,570,185,-478,100,378,-605,-605,-63,1654,1229,751
366,512,146,-439,109,329,-639,-692,-239,1556,1141,702
322,409,87,-366,117,248,-639,-805,-439,1371,980,600
239,302,63,-270,87,183,-619,-917,-658,1088,746,463
141,195,53,-168,43,124,-580,-966,-834,732,478,302
29,117,87,-73,-29,102,-527,-966,-961,366,229,161
-78,53,131,12,-104,92,-473,-941,-1039,24,24,48
-122,4,126,58,-124,65,-463,-878,-1015,-214,-97,-19
-112,-9,102,61,-107,46,-492,-800,-927,-283,-117,-39
-87,0,87,43,-87,43,-522,-732,-839,-292,-97,-19
-78,-4,73,41,-75,34,-522,-634,-771,-302,-78,-9
-58,-24,34,41,-46,4,-512,-507,-697,-317,-78,-9
-39,-53,-14,46,-12,-34,-488,-419,-624,-317,-63,-19
-34,-78,-43,56,4,-61,-458,-356,-561,-312,-68,-9
-34,-87,-53,61,9,-70,-434,-312,-502,-307,-58,-9
-43,-78,-34,61,-4,-56,-414,-283,-453,-297,-43,4
-48,-73,-24,61,-12,-48,-395,-263,-419,-292,-43,4
-58,-73,-14,65,-21,-43,-375,-239,-375,-278,-53,0
-68,-73,-4,70,-31,-39,-366,-219,-336,-258,-48,9
-68,-68,0,68,-34,-34,-351,-195,-312,-253,-53,4
-68,-53,14,61,-41,-19,-341,-161,-283,-234,-63,4
-73,-53,19,63,-46,-17,-341,-136,-248,-224,-73,9
-73,-63,9,68,-41,-26,-341,-126,-214,-209,-68,9
-73,-68,4,70,-39,-31,-336,-117,-180,-209,-78,14
-68,-78,-9,73,-29,-43,-331,-102,-151,-209,-87,14
-63,-92,-29,78,-17,-61,-317,-82,-136,-214,-97,14
-68,-102,-34,85,-17,-68,-307,-82,-141,-204,-117,0
-73,-102,-29,87,-21,-65,-292,-68,-141,-204,-131,-4
-78,-102,-24,90,-26,-63,-278,-68,-136,-200,-146,-19
-82,-102,-19,92,-31,-61,-263,-63,-136,-200,-146,-24
-73,-92,-19,82,-26,-56,-234,-48,-126,-185,-136,-24
-73,-92,-19,82,-26,-56,-204,-43,-117,-180,-126,-24
-73,-92,-19,82,-26,-56,-185,-43,-107,-170,-117,-19
-73,-92,-19,82,-26,-56,-161,-34,-102,-165,-107,-9
-68,-97,-29,82,-19,-63,-141,-24,-82,-161,-97,-4
-63,-97,-34,80,-14,-65,-122,-19,-73,-165,-87,4
-58,-102,-43,80,-7,-73,-107,-9,-68,-180,-78,9
-53,-102,-48,78,-2,-75,-87,-4,-53,-185,-58,29
-63,-97,-34,80,-14,-65,-78,0,-34,-185,-63,39
-63,-97,-34,80,-14,-65,-68,4,-29,-195,-53,48
-63,-97,-34,80,-14,-65,-58,14,-14,-195,-48,58
-58,-97,-39,78,-9,-68,-58,24,-9,-195,-43,68
-58,-97,-39,78,-9,-68,-48,43,4,-204,-34,82
-58,-97,-39,78,-9,-68,-43,58,9,-209,-29,87
-58,-97,-39,78,-9,-68,-43,68,14,-209,-24,87
-58,-92,-34,75,-12,-63,-39,68,14,-204,-24,87
-68,-102,-34,85,-17,-68,-43,82,9,-204,-14,92
-68,-107,-39,87,-14,-73,-43,82,9,-204,-4,92
-73,-112,-39,92,-17,-75,-48,87,14,-204,4,92
-73,-112,-39,92,-17,-75,-53,92,19,-204,9,97
-78,-112,-34,95,-21,-73,-63,107,9,-209,29,107
-78,-112,-34,95,-21,-73,-73,112,9,-209,39,112
-78,-112,-34,95,-21,-73,-78,112,9,-214,48,117
-78,-112,-34,95,-21,-73,-87,112,14,-219,53,122
-78,-112,-34,95,-21,-73,-112,107,4,-239,63,131
-82,-117,-34,100,-24,-75,-122,102,4,-253,73,141
-82,-117,-34,100,-24,-75,-131,92,4,-263,82,151
-82,-117,-34,100,-24,-75,-146,87,9,-263,87,161
-82,-126,-43,104,-19,-85,-156,73,0,-273,78,170
-82,-131,-48,107,-17,-90,-161,73,4,-287,82,180
-82,-131,-48,107,-17,-90,-165,68,14,-297,87,190
-82,-126,-43,104,-19,-85,-170,63,14,-312,92,200
-82,-126,-43,104,-19,-85,-175,53,9,-317,82,190
-82,-126,-43,104,-19,-85,-185,48,9,-307,78,190
-82,-126,-43,104,-19,-85,-190,48,14,-302,68,190
-82,-131,-48,107,-17,-90,-195,48,19,-292,48,190
-82,-136,-53,109,-14,-95,-195,39,14,-268,34,175
-82,-136,-53,109,-14,-95,-195,39,19,-244,14,175
-82,-136,-53,109,-14,-95,-195,48,19,-224,4,175
-82,-141,-58,112,-12,-100,-195,58,24,-204,0,170
-82,-141,-58,112,-12,-100,-214,48,34,-170,-19,165
-82,-141,-58,112,-12,-100,-219,48,39,-151,-24,165
-82,-146,-63,114,-9,-104,-229,53,39,-131,-34,165
-82,-151,-68,117,-7,-109,-234,58,39,-112,-39,165
-73,-151,-78,112,2,-114,-248,48,53,-82,-24,175
-73,-151,-78,112,2,-114,-263,48,58,-63,-24,175
-73,-151,-78,112,2,-114,-273,48,63,-39,-14,180
-73,-161,-87,117,7,-124,-283,43,63,-24,-4,185
-82,-161,-78,122,-2,-119,-297,39,78,-9,9,195
-82,-161,-78,122,-2,-119,-302,39,82,0,24,200
-82,-161,-78,122,-2,-119,-312,43,82,24,39,214
-82,-161,-78,122,-2,-119,-317,43,82,34,58,219
-73,-165,-92,119,9,-129,-331,34,92,39,78,229
-73,-165,-92,119,9,-129,-336,34,97,48,102,239
-73,-165,-92,119,9,-129,-336,34,97,58,126,253
-73,-165,-92,119,9,-129,-336,34,92,68,146,263
-73,-175,-102,124,14,-139,-341,34,82,82,161,273
-73,-175,-102,124,14,-139,-341,34,87,82,185,283
-78,-175,-97,126,9,-136,-341,34,92,82,200,287
-78,-175,-97,126,9,-136,-341,34,97,82,219,292
-78,-180,-102,129,12,-141,-346,43,92,87,229,287
-78,-180,-102,129,12,-141,-346,48,97,97,234,287
-78,-180,-102,129,12,-141,-346,48,102,102,244,292
-78,-175,-97,126,9,-136,-346,53,107,112,248,297
-68,-165,-97,117,14,-131,-356,63,117,117,268,292
-63,-165,-102,114,19,-134,-361,73,122,126,273,283
-58,-165,-107,112,24,-136,-370,78,136,131,283,283
-53,-165,-112,109,29,-139,-385,87,141,141,297,283
-39,-156,-117,97,39,-136,-390,102,161,141,312,268
-39,-151,-112,95,36,-131,-400,112,175,151,322,268
-34,-151,-117,92,41,-134,-414,122,195,161,326,258
-29,-151,-122,90,46,-136,-424,126,214,175,341,258
-29,-141,-112,85,41,-126,-434,131,234,165,331,268
-29,-136,-107,82,39,-122,-444,141,244,170,336,268
-24,-126,-102,75,39,-114,-463,141,253,180,346,263
-24,-117,-92,70,34,-104,-473,146,263,185,351,263
-29,-122,-92,75,31,-107,-478,151,287,180,356,268
-29,-122,-92,75,31,-107,-478,161,297,190,361,278
-29,-126,-97,78,34,-112,-483,165,312,195,366,283
-29,-131,-102,80,36,-117,-497,165,322,204,370,287
-29,-136,-107,82,39,-122,-497,170,341,204,385,292
-29,-136,-107,82,39,-122,-507,175,346,214,385,297
-24,-131,-107,78,41,-119,-507,180,351,224,385,302
-24,-126,-102,75,39,-114,-512,180,361,234,395,307
-34,-126,-92,80,29,-109,-527,185,366,244,390,317
-34,-117,-82,75,24,-100,-527,185,366,244,390,317
-24,-112,-87,68,31,-100,-531,190,366,244,395,317
-24,-112,-87,68,31,-100,-536,190,366,253,395,317
-34,-107,-73,70,19,-90,-541,175,366,253,395,317
-39,-102,-63,70,12,-82,-546,165,366,253,395,317
-39,-102,-63,70,12,-82,-546,161,370,263,405,312
-39,-102,-63,70,12,-82,-551,156,375,268,409,307
-43,-107,-63,75,9,-85,-551,161,366,268,409,297
-43,-107,-63,75,9,-85,-546,156,366,278,419,297
-43,-112,-68,78,12,-90,-541,156,361,283,419,297
-43,-112,-68,78,12,-90,-536,151,356,292,424,297
-39,-97,-58,68,9,-78,-531,156,346,297,429,297
-34,-87,-53,61,9,-70,-522,151,346,302,434,297
-29,-82,-53,56,12,-68,-507,141,346,302,444,302
-24,-73,-48,48,12,-61,-497,136,341,302,448,302
-24,-68,-43,46,9,-56,-492,136,346,307,453,292
-19,-63,-43,41,12,-53,-488,131,341,312,448,292
-14,-53,-39,34,12,-46,-478,126,336,312,448,292
-9,-48,-39,29,14,-43,-473,122,326,312,444,292
-9,-53,-43,31,17,-48,-458,126,322,312,429,283
-9,-53,-43,31,17,-48,-448,117,312,312,434,287
-9,-48,-39,29,14,-43,-439,112,307,307,439,297
-9,-43,-34,26,12,-39,-429,112,302,302,434,297
-9,-29,-19,19,4,-24,-414,107,292,292,429,297
-9,-29,-19,19,4,-24,-409,102,283,283,419,297
-9,-29,-19,19,4,-24,-405,92,273,278,409,292
-9,-29,-19,19,4,-24,-400,87,263,278,385,292
-19,-34,-14,26,-2,-24,-400,82,239,263,375,307
-14,-29,-14,21,0,-21,-400,73,229,248,375,307
-14,-24,-9,19,-2,-17,-390,63,214,234,366,307
-14,-24,-9,19,-2,-17,-385,53,200,214,361,307
-24,-24,0,24,-12,-12,-385,53,195,204,370,307
-24,-19,4,21,-14,-7,-380,39,185,185,366,307
-24,-19,4,21,-14,-7,-380,39,175,175,356,307
-24,-14,9,19,-17,-2,-380,34,161,165,346,312
-24,-14,9,19,-17,-2,-385,29,146,146,346,307
-24,-14,9,19,-17,-2,-385,19,131,136,346,312
-29,-14,14,21,-21,0,-385,9,117,122,341,312
-29,-14,14,21,-21,0,-385,0,112,107,331,307
-29,-9,19,19,-24,4,-390,-9,92,97,331,297
-29,-4,24,17,-26,9,-395,-9,87,82,331,302
-29,0,29,14,-29,14,-390,-19,78,78,336,302
-24,4,29,9,-26,17,-395,-29,68,58,336,307
-34,-4,29,19,-31,12,-400,-48,43,39,322,297
-43,-4,39,24,-41,17,-405,-48,39,29,326,297
-43,-4,39,24,-41,17,-414,-53,34,24,326,297
-43,-9,34,26,-39,12,-419,-58,29,19,322,297
-53,-24,29,39,-41,2,-424,-68,19,9,317,297
-53,-24,29,39,-41,2,-429,-78,9,0,312,297
-53,-24,29,39,-41,2,-434,-82,4,-9,302,292
-53,-24,29,39,-41,2,-434,-87,0,-14,297,283
-63,-14,48,39,-56,17,-444,-87,-14,-34,287,283
-63,-14,48,39,-56,17,-448,-87,-19,-43,287,283
-63,-14,48,39,-56,17,-448,-92,-29,-53,278,278
-63,-14,48,39,-56,17,-448,-97,-34,-63,273,273
-58,-24,34,41,-46,4,-448,-102,-48,-73,258,263
-58,-24,34,41,-46,4,-448,-102,-53,-78,253,258
-58,-24,34,41,-46,4,-448,-107,-53,-82,244,253
-58,-24,34,41,-46,4,-448,-107,-63,-92,224,253
-58,-24,34,41,-46,4,-448,-107,-73,-92,214,248
-58,-24,34,41,-46,4,-448,-112,-73,-87,204,244
-58,-24,34,41,-46,4,-448,-117,-82,-82,200,229
-63,-24,39,43,-51,7,-448,-122,-87,-82,195,214
-53,-14,39,34,-46,12,-439,-126,-102,-92,190,214
-53,-14,39,34,-46,12,-444,-131,-107,-87,180,214
-53,-14,39,34,-46,12,-444,-136,-107,-87,175,219
-53,-14,39,34,-46,12,-444,-141,-107,-87,161,219
-58,-9,48,34,-53,19,-434,-131,-117,-97,170,224
-58,-9,48,34,-53,19,-439,-136,-122,-97,156,224
-58,-9,48,34,-53,19,-439,-136,-126,-97,156,229
-53,-9,43,31,-48,17,-439,-131,-126,-97,156,234
-63,-19,43,41,-53,12,-439,-126,-131,-107,151,234
-63,-24,39,43,-51,7,-434,-126,-141,-112,141,234
-68,-24,43,46,-56,9,-434,-126,-156,-112,141,234
-68,-24,43,46,-56,9,-434,-122,-161,-112,141,234
-63,-24,39,43,-51,7,-424,-112,-161,-102,146,234
-58,-24,34,41,-46,4,-419,-112,-161,-112,136,234
-53,-19,34,36,-43,7,-409,-112,-161,-112,146,239
-43,-19,24,31,-34,2,-395,-112,-156,-112,156,239
-48,-19,29,34,-39,4,-400,-117,-141,-122,170,234
-58,-24,34,41,-46,4,-395,-117,-141,-126,175,234
-63,-24,39,43,-51,7,-385,-107,-136,-131,180,234
-68,-24,43,46,-56,9,-375,-102,-126,-141,185,234
-58,-14,43,36,-51,14,-375,-107,-131,-146,190,234
-58,-14,43,36,-51,14,-366,-102,-117,-151,195,234
-58,-14,43,36,-51,14,-361,-102,-112,-151,200,239
-58,-14,43,36,-51,14,-366,-107,-107,-156,209,239
-58,-19,39,39,-48,9,-375,-112,-112,-156,214,234
-58,-19,39,39,-48,9,-370,-117,-107,-165,209,229
-58,-19,39,39,-48,9,-361,-122,-102,-165,204,229
-58,-19,39,39,-48,9,-361,-122,-97,-165,204,224
-68,-9,58,39,-63,24,-366,-122,-97,-146,219,224
-68,-9,58,39,-63,24,-375,-122,-92,-141,224,214
-68,-9,58,39,-63,24,-380,-122,-87,-131,224,214
-68,-9,58,39,-63,24,-385,-117,-87,-122,229,219
-58,0,58,29,-58,29,-395,-126,-87,-117,248,229
-58,0,58,29,-58,29,-405,-126,-92,-107,263,229
-58,0,58,29,-58,29,-414,-122,-97,-102,283,234
-58,0,58,29,-58,29,-429,-122,-102,-97,302,239
-58,0,58,29,-58,29,-444,-126,-112,-92,322,248
-58,0,58,29,-58,29,-453,-122,-117,-87,346,253
-58,0,58,29,-58,29,-463,-117,-122,-82,375,268
-58,0,58,29,-58,29,-473,-117,-122,-78,390,283
-68,-4,63,36,-65,29,-492,-117,-136,-82,419,292
-68,-4,63,36,-65,29,-507,-122,-136,-78,448,302
-63,0,63,31,-63,31,-522,-126,-136,-78,478,317
-63,0,63,31,-63,31,-527,-131,-141,-73,502,322
-63,-4,58,34,-61,26,-546,-136,-156,-73,536,331
-63,-4,58,34,-61,26,-561,-141,-165,-73,556,341
-63,-4,58,34,-61,26,-570,-146,-175,-73,575,346
-63,0,63,31,-63,31,-590,-151,-180,-73,595,351
-53,0,53,26,-53,26,-600,-156,-195,-87,614,356
-53,0,53,26,-53,26,-614,-165,-200,-87,629,356
-53,0,53,26,-53,26,-629,-170,-200,-82,649,356
-53,0,53,26,-53,26,-639,-175,-204,-78,663,361
-53,9,63,21,-58,36,-649,-185,-214,-87,668,361
-53,9,63,21,-58,36,-658,-190,-224,-92,678,356
-53,9,63,21,-58,36,-673,-200,-229,-92,688,351
-53,9,63,21,-58,36,-678,-214,-229,-97,692,351
-53,4,58,24,-56,31,-697,-229,-234,-107,683,331
-53,4,58,24,-56,31,-717,-234,-244,-117,678,326
-53,4,58,24,-56,31,-736,-239,-248,-122,678,312
-53,9,63,21,-58,36,-751,-244,-258,-126,673,302
-53,9,63,21,-58,36,-766,-258,-253,-122,683,287
-58,9,68,24,-63,39,-775,-263,-253,-117,683,287
-58,9,68,24,-63,39,-785,-263,-253,-117,678,278
-58,9,68,24,-63,39,-790,-268,-253,-112,673,278
-48,9,58,19,-53,34,-810,-263,-244,-102,678,273
-48,9,58,19,-53,34,-819,-268,-248,-107,668,268
-43,9,53,17,-48,31,-829,-273,-248,-107,668,263
-39,9,48,14,-43,29,-839,-278,-248,-102,658,258
-39,9,48,14,-43,29,-854,-283,-244,-92,653,253
-43,9,53,17,-48,31,-863,-287,-248,-92,649,248
-43,9,53,17,-48,31,-878,-287,-248,-102,644,248
-43,9,53,17,-48,31,-888,-287,-244,-107,639,248
-43,9,53,17,-48,31,-902,-297,-229,-102,639,248
-43,4,48,19,-46,26,-902,-302,-229,-102,634,248
-43,4,48,19,-46,26,-912,-302,-229,-97,629,248
-43,4,48,19,-46,26,-917,-302,-229,-92,624,248
-53,4,58,24,-56,31,-936,-302,-229,-102,624,239
-53,4,58,24,-56,31,-936,-302,-229,-102,619,239
-53,4,58,24,-56,31,-936,-302,-224,-92,624,239
-53,4,58,24,-56,31,-936,-302,-224,-92,629,239
-53,-4,48,29,-51,21,-951,-292,-224,-97,639,224
-53,-4,48,29,-51,21,-956,-297,-224,-92,634,224
-53,-4,48,29,-51,21,-956,-297,-224,-92,634,229
-53,-4,48,29,-51,21,-956,-292,-224,-87,644,229
-53,4,58,24,-56,31,-956,-302,-224,-82,644,219
-53,4,58,24,-56,31,-956,-302,-224,-82,649,219
-53,4,58,24,-56,31,-956,-302,-224,-87,653,224
-53,4,58,24,-56,31,-956,-297,-224,-87,653,229
-48,9,58,19,-53,34,-941,-287,-224,-92,653,224
-43,14,58,14,-51,36,-941,-287,-224,-92,663,229
-39,19,58,9,-48,39,-946,-287,-224,-87,673,234
-29,29,58,0,-43,43,-946,-287,-224,-87,683,244
-19,29,48,-4,-34,39,-941,-287,-219,-78,688,244
-24,29,53,-2,-39,41,-936,-287,-214,-78,692,248
-24,29,53,-2,-39,41,-927,-287,-214,-78,692,253
-24,29,53,-2,-39,41,-922,-287,-209,-73,697,253
-29,29,58,0,-43,43,-922,-278,-204,-73,688,253
-29,24,53,2,-41,39,-912,-278,-204,-68,683,253
-29,19,48,4,-39,34,-907,-278,-195,-68,678,253
-34,9,43,12,-39,26,-907,-278,-195,-73,668,248
-34,19,53,7,-43,36,-897,-268,-185,-78,653,244
-34,19,53,7,-43,36,-888,-268,-185,-78,653,244
-34,24,58,4,-46,41,-888,-268,-185,-78,649,244
-29,24,53,2,-41,39,-883,-268,-185,-82,644,239
-29,34,63,-2,-46,48,-868,-268,-175,-87,624,229
-19,43,63,-12,-41,53,-858,-258,-170,-87,614,229
-19,34,53,-7,-36,43,-849,-258,-165,-87,605,234
-29,39,68,-4,-48,53,-829,-253,-156,-87,595,234
-29,39,68,-4,-48,53,-814,-244,-146,-87,590,234
-29,39,68,-4,-48,53,-810,-244,-146,-87,585,234
-29,39,68,-4,-48,53,-805,-244,-146,-87,580,234
-29,39,68,-4,-48,53,-800,-244,-146,-87,575,234
-39,43,82,-2,-61,63,-771,-234,-131,-78,561,234
-39,48,87,-4,-63,68,-751,-234,-117,-82,551,234
-39,48,87,-4,-63,68,-746,-234,-112,-82,546,234
-39,48,87,-4,-63,68,-736,-234,-107,-82,536,234
-39,53,92,-7,-65,73,-727,-229,-97,-78,536,224
-34,53,87,-9,-61,70,-727,-234,-97,-68,536,219
-34,53,87,-9,-61,70,-727,-234,-97,-58,541,219
-29,63,92,-17,-61,78,-732,-234,-97,-53,541,219
-19,73,92,-26,-56,82,-732,-224,-92,-48,531,204
-19,78,97,-29,-58,87,-741,-229,-87,-48,531,200
-19,82,102,-31,-61,92,-746,-234,-87,-43,531,200
-19,87,107,-34,-63,97,-756,-234,-92,-43,531,195
-19,92,112,-36,-65,102,-761,-244,-82,-34,527,185
-19,92,112,-36,-65,102,-766,-248,-87,-39,522,185
-14,92,107,-39,-61,100,-771,-253,-87,-39,512,185
-14,87,102,-36,-58,95,-771,-253,-92,-39,507,185
-24,87,112,-31,-68,100,-761,-253,-82,-34,502,185
-24,87,112,-31,-68,100,-761,-253,-92,-29,497,180
-24,82,107,-29,-65,95,-766,-248,-92,-24,497,175
-24,82,107,-29,-65,95,-766,-248,-92,-19,492,165
-14,73,87,-29,-51,80,-761,-244,-87,-14,492,156
-14,73,87,-29,-51,80,-751,-244,-87,-9,492,156
-14,73,87,-29,-51,80,-741,-239,-87,-4,492,156
-9,68,78,-29,-43,73,-736,-239,-87,4,492,156
-9,78,87,-34,-48,82,-727,-234,-73,19,483,156
-9,73,82,-31,-46,78,-727,-229,-73,19,483,156
-9,63,73,-26,-41,68,-722,-229,-73,9,483,156
-9,58,68,-24,-39,63,-722,-224,-73,4,483,156
-9,43,53,-17,-31,48,-722,-214,-73,14,468,156
-9,39,48,-14,-29,43,-722,-214,-73,14,468,161
-14,39,53,-12,-34,46,-717,-214,-73,14,468,165
-14,34,48,-9,-31,41,-712,-214,-68,19,468,170
-14,39,53,-12,-34,46,-702,-200,-58,9,463,180
-14,39,53,-12,-34,46,-702,-200,-58,14,463,180
-14,39,53,-12,-34,46,-697,-195,-58,19,458,185
-9,39,48,-14,-29,43,-692,-195,-58,19,453,185
0,43,43,-21,-21,43,-683,-190,-48,19,448,185
0,43,43,-21,-21,43,-678,-190,-48,19,448,185
0,34,34,-17,-17,34,-673,-190,-48,19,448,180
0,34,34,-17,-17,34,-663,-190,-48,19,439,175
0,29,29,-14,-14,29,-663,-190,-43,9,434,165
-9,29,39,-9,-24,34,-663,-190,-43,4,424,161
-14,24,39,-4,-26,31,-653,-190,-48,0,414,156
-14,24,39,-4,-26,31,-653,-190,-48,-4,405,151
-14,14,29,0,-21,21,-644,-180,-58,-4,400,141
-14,14,29,0,-21,21,-639,-180,-63,-4,395,141
-14,14,29,0,-21,21,-634,-180,-63,-4,390,141
-19,9,29,4,-24,19,-634,-185,-63,-4,380,141
-29,9,39,9,-34,24,-629,-185,-53,0,370,131
-29,9,39,9,-34,24,-629,-185,-58,0,370,136
-24,9,34,7,-29,21,-629,-185,-58,0,366,136
-24,4,29,9,-26,17,-629,-185,-63,-4,366,136
-29,4,34,12,-31,19,-619,-185,-53,9,361,117
-29,9,39,9,-34,24,-619,-185,-53,14,356,117
-29,9,39,9,-34,24,-619,-185,-58,19,356,117
-29,4,34,12,-31,19,-619,-185,-63,19,351,117
-24,4,29,9,-26,17,-614,-175,-53,24,341,117
-24,9,34,7,-29,21,-614,-175,-53,29,341,117
-24,9,34,7,-29,21,-614,-170,-53,39,341,117
-24,9,34,7,-29,21,-614,-170,-53,43,336,107
-24,9,34,7,-29,21,-605,-165,-53,43,341,107
-24,9,34,7,-29,21,-600,-165,-53,48,341,107
-24,9,34,7,-29,21,-595,-161,-53,58,341,107
-24,9,34,7,-29,21,-595,-161,-58,63,341,107
-24,9,34,7,-29,21,-585,-161,-48,63,336,92
-24,9,34,7,-29,21,-580,-161,-43,68,331,92
-24,9,34,7,-29,21,-580,-161,-43,73,331,97
-24,9,34,7,-29,21,-580,-161,-43,78,326,97
-14,19,34,-2,-24,26,-566,-151,-39,92,312,87
-14,19,34,-2,-24,26,-566,-151,-39,97,312,87
-14,19,34,-2,-24,26,-566,-151,-39,102,307,87
-14,19,34,-2,-24,26,-561,-151,-39,107,302,87
-14,19,34,-2,-24,26,-551,-141,-29,112,292,87
-14,14,29,0,-21,21,-551,-141,-34,122,278,82
-14,14,29,0,-21,21,-546,-141,-34,126,268,78
-14,14,29,0,-21,21,-546,-136,-34,131,263,78
-14,14,29,0,-21,21,-531,-122,-9,151,263,78
-14,19,34,-2,-24,26,-531,-112,-4,146,248,73
-9,9,19,0,-14,14,-531,-78,14,141,234,68
-14,9,24,2,-19,17,-522,-48,39,141,209,53
-14,0,14,7,-14,7,-502,-9,82,141,195,39
-14,9,24,2,-19,17,-492,39,151,146,190,34
-14,9,24,2,-19,17,-473,63,190,151,180,24
-24,24,48,0,-36,36,-473,63,204,156,185,34
-19,29,48,-4,-34,39,-478,48,204,180,204,43
0,43,43,-21,-21,43,-488,39,209,248,248,68
29,73,43,-51,-7,58,-507,68,253,361,307,102
53,122,68,-87,-7,95,-497,151,346,458,361,141
78,161,82,-119,-2,122,-488,253,429,551,429,175
102,195,92,-148,4,143,-488,312,488,644,507,214
136,219,82,-178,26,151,-502,322,531,761,595,278
175,268,92,-222,41,180,-517,283,536,868,683,336
204,322,117,-263,43,219,-517,287,536,1019,800,405
229,380,151,-305,39,265,-507,322,580,1205,907,478
253,444,190,-348,31,317,-527,258,619,1381,1019,546
283,502,219,-392,31,361,-580,87,585,1527,1112,600
317,541,224,-429,46,383,-639,-63,512,1644,1185,653
341,590,248,-466,46,419,-692,-229,414,1756,1263,697
375,619,244,-497,65,431,-736,-458,283,1873,1337,751
395,600,204,-497,95,402,-771,-634,131,1917,1376,771
395,541,146,-468,124,344,-795,-722,-24,1869,1337,741
370,458,87,-414,141,273,-795,-824,-214,1722,1224,668
307,370,63,-339,122,217,-795,-936,-434,1488,1019,541
209,273,63,-241,73,168,-785,-1015,-649,1161,761,390
107,195,87,-151,9,141,-761,-1034,-805,795,492,229
0,131,131,-65,-65,131,-707,-1010,-912,424,258,97
-73,82,156,-4,-114,119,-668,-966,-946,107,78,-9
-82,39,122,21,-102,80,-678,-888,-878,-58,9,-58
-68,39,107,14,-87,73,-707,-810,-780,-68,29,-48
-48,34,82,7,-65,58,-717,-722,-712,-68,58,-39
-29,24,53,2,-41,39,-697,-605,-649,-82,68,-39
-19,-4,14,12,-17,4,-673,-488,-575,-73,63,-58
-14,-19,-4,17,-4,-12,-634,-405,-512,-68,78,-68
-4,-19,-14,12,4,-17,-610,-351,-453,-53,78,-78
-4,-19,-14,12,4,-17,-580,-302,-395,-53,82,-73
-19,-14,4,17,-12,-4,-561,-273,-351,-48,73,-82
-19,-24,-4,21,-7,-14,-541,-268,-317,-43,63,-97
-24,-24,0,24,-12,-12,-522,-239,-268,-29,58,-107
-29,-19,9,24,-19,-4,-507,-214,-244,-19,53,-112
-34,-4,29,19,-31,12,-497,-180,-214,4,43,-112
-43,-4,39,24,-41,17,-497,-156,-180,19,34,-107
-43,-9,34,26,-39,12,-488,-141,-146,19,19,-117
-43,-9,34,26,-39,12,-483,-126,-112,14,0,-112
-39,-14,24,26,-31,4,-478,-107,-82,9,-19,-112
-34,-24,9,29,-21,-7,-463,-82,-68,0,-39,-112
-34,-43,-9,39,-12,-26,-453,-73,-63,-4,-68,-122
-34,-43,-9,39,-12,-26,-439,-58,-63,-9,-82,-122
-34,-43,-9,39,-12,-26,-424,-58,-58,-9,-97,-131
-34,-43,-9,39,-12,-26,-409,-53,-58,-14,-97,-131
-34,-34,0,34,-17,-17,-385,-48,-68,-14,-102,-141
-34,-34,0,34,-17,-17,-351,-43,-58,-14,-107,-141
-34,-34,0,34,-17,-17,-326,-43,-48,-9,-112,-136
-34,-34,0,34,-17,-17,-297,-34,-43,-9,-117,-126
-34,-39,-4,36,-14,-21,-268,-24,-34,-4,-102,-122
-34,-39,-4,36,-14,-21,-239,-19,-24,-9,-97,-112
-34,-43,-9,39,-12,-26,-214,-9,-19,-24,-92,-107
-34,-43,-9,39,-12,-26,-185,-4,-4,-29,-78,-87
-24,-39,-14,31,-4,-26,-165,9,14,-29,-68,-68
-24,-39,-14,31,-4,-26,-156,14,19,-39,-53,-58
-24,-39,-14,31,-4,-26,-146,24,34,-39,-43,-48
-19,-39,-19,29,0,-29,-146,34,39,-39,-34,-39
-29,-48,-19,39,-4,-34,-136,34,43,-43,-19,-29
-29,-48,-19,39,-4,-34,-131,48,48,-53,-9,-19
-29,-48,-19,39,-4,-34,-131,58,53,-58,0,-14
-29,-43,-14,36,-7,-29,-126,58,53,-58,4,-9
-29,-43,-14,36,-7,-29,-126,82,58,-63,14,-4
-29,-48,-19,39,-4,-34,-122,82,58,-68,24,-4
-34,-53,-19,43,-7,-36,-122,87,63,-73,34,-4
-34,-53,-19,43,-7,-36,-122,92,68,-78,39,0
-19,-43,-24,31,2,-34,-122,107,68,-73,39,0
-19,-43,-24,31,2,-34,-122,112,68,-63,48,4
-19,-43,-24,31,2,-34,-117,112,68,-58,58,9
-19,-43,-24,31,2,-34,-117,112,73,-53,63,14
-29,-43,-14,36,-7,-29,-126,112,63,-48,73,19
-34,-48,-14,41,-9,-31,-131,112,63,-48,82,24
-34,-48,-14,41,-9,-31,-136,107,63,-43,92,29
-34,-48,-14,41,-9,-31,-146,107,68,-29,97,34
-29,-58,-29,43,0,-43,-146,102,68,-24,92,29
-24,-63,-39,43,7,-51,-151,102,73,-24,92,34
-19,-63,-43,41,12,-53,-156,97,82,-19,92,39
-14,-58,-43,36,14,-51,-161,92,82,-19,92,43
-24,-58,-34,41,4,-46,-161,97,87,-9,87,43
-24,-58,-34,41,4,-46,-165,97,87,4,87,43
-24,-58,-34,41,4,-46,-165,102,92,14,82,43
-24,-63,-39,43,7,-51,-165,107,97,29,68,43
-24,-58,-34,41,4,-46,-156,107,112,34,43,39
-24,-58,-34,41,4,-46,-156,107,117,48,24,39
-24,-58,-34,41,4,-46,-156,117,117,58,14,39
-24,-63,-39,43,7,-51,-156,126,122,68,9,34
-24,-63,-39,43,7,-51,-151,126,131,78,-4,39
-24,-63,-39,43,7,-51,-151,126,136,82,-14,39
-24,-68,-43,46,9,-56,-156,131,136,87,-29,39
-24,-73,-48,48,12,-61,-156,136,136,92,-39,39
-24,-82,-58,53,17,-70,-146,131,141,107,-53,39
-24,-82,-58,53,17,-70,-156,136,146,112,-63,39
-24,-82,-58,53,17,-70,-161,141,151,122,-63,43
-24,-92,-68,58,21,-80,-165,141,151,122,-63,48
-29,-102,-73,65,21,-87,-161,146,165,117,-63,53
-34,-102,-68,68,17,-85,-165,146,170,117,-63,53
-39,-102,-63,70,12,-82,-175,151,170,131,-63,63
-43,-102,-58,73,7,-80,-180,151,170,131,-58,63
-39,-97,-58,68,9,-78,-180,165,180,126,-48,78
-34,-97,-63,65,14,-80,-180,170,185,126,-43,82
-29,-97,-68,63,19,-82,-175,175,185,126,-39,92
-24,-97,-73,61,24,-85,-170,180,180,126,-39,97
-19,-87,-68,53,24,-78,-156,180,185,117,-43,92
-14,-87,-73,51,29,-80,-156,180,195,112,-29,97
-14,-87,-73,51,29,-80,-156,180,204,107,-24,97
-9,-87,-78,48,34,-82,-156,180,214,102,-14,97
-19,-97,-78,58,29,-87,-141,190,219,97,-29,78
-19,-102,-82,61,31,-92,-141,195,224,97,-39,73
-19,-107,-87,63,34,-97,-141,195,229,92,-43,73
-19,-107,-87,63,34,-97,-141,200,234,92,-53,73
-14,-97,-82,56,34,-90,-122,214,234,92,-58,58
-14,-97,-82,56,34,-90,-117,219,239,97,-68,48
-14,-97,-82,56,34,-90,-117,219,253,97,-73,48
-14,-97,-82,56,34,-90,-122,224,258,102,-73,48
0,-87,-87,43,43,-87,-117,219,263,107,-82,39
0,-82,-82,41,41,-82,-117,229,273,112,-87,34
4,-82,-87,39,46,-85,-122,239,287,117,-97,19
9,-82,-92,36,51,-87,-122,244,302,126,-97,14
9,-68,-78,29,43,-73,-117,248,307,126,-102,4
9,-68,-78,29,43,-73,-122,258,312,131,-102,4
14,-63,-78,24,46,-70,-136,258,317,141,-97,0
14,-58,-73,21,43,-65,-141,263,322,146,-97,0
19,-58,-78,19,48,-68,-146,258,331,151,-107,0
19,-53,-73,17,46,-63,-146,268,336,161,-107,4
19,-53,-73,17,46,-63,-151,273,346,165,-107,4
19,-53,-73,17,46,-63,-165,273,351,175,-107,4
9,-58,-68,24,39,-63,-170,273,361,175,-112,9
9,-58,-68,24,39,-63,-185,273,366,185,-112,14
14,-53,-68,19,41,-61,-190,273,370,195,-112,19
14,-48,-63,17,39,-56,-200,268,380,204,-102,24
14,-48,-63,17,39,-56,-204,273,380,209,-97,34
14,-39,-53,12,34,-46,-204,273,385,214,-97,34
24,-34,-58,4,41,-46,-209,278,390,219,-92,34
24,-34,-58,4,41,-46,-214,278,395,234,-92,34
34,-29,-63,-2,48,-46,-219,278,385,219,-92,43
29,-24,-53,-2,41,-39,-224,273,385,214,-92,43
29,-24,-53,-2,41,-39,-224,273,390,219,-82,39
29,-24,-53,-2,41,-39,-229,273,395,219,-78,34
29,-24,-53,-2,41,-39,-244,268,395,219,-82,43
24,-19,-43,-2,34,-31,-244,263,395,229,-68,43
19,-19,-39,0,29,-29,-244,263,390,234,-63,43
14,-14,-29,0,21,-21,-244,258,385,244,-53,43
14,-24,-39,4,26,-31,-258,263,395,239,-53,43
14,-19,-34,2,24,-26,-258,258,395,244,-43,43
14,-19,-34,2,24,-26,-253,248,395,244,-29,48
14,-14,-29,0,21,-21,-253,244,390,244,-19,48
19,-4,-24,-7,21,-14,-244,253,385,258,4,58
19,-4,-24,-7,21,-14,-244,248,380,263,9,58
19,0,-19,-9,19,-9,-239,244,375,263,19,58
19,0,-19,-9,19,-9,-239,239,366,263,24,58
19,4,-14,-12,17,-4,-239,224,361,273,34,63
19,4,-14,-12,17,-4,-234,214,351,273,43,73
19,9,-9,-14,14,0,-229,209,346,268,53,87
19,14,-4,-17,12,4,-224,209,341,263,53,92
19,19,0,-19,9,9,-229,204,331,273,58,102
19,19,0,-19,9,9,-224,200,322,263,58,102
19,19,0,-19,9,9,-219,190,312,258,58,97
19,19,0,-19,9,9,-214,185,302,258,43,97
9,24,14,-17,-2,19,-204,180,287,253,43,112
14,29,14,-21,0,21,-204,170,278,248,53,112
14,34,19,-24,-2,26,-195,161,263,244,53,112
14,34,19,-24,-2,26,-190,151,248,234,58,112
14,34,19,-24,-2,26,-190,151,234,239,68,112
14,39,24,-26,-4,31,-185,136,224,224,63,112
14,39,24,-26,-4,31,-185,136,214,219,53,112
14,43,29,-29,-7,36,-185,131,200,214,43,117
14,43,29,-29,-7,36,-170,126,185,195,34,126
14,43,29,-29,-7,36,-170,117,170,185,34,136
9,43,34,-26,-12,39,-170,107,156,170,29,141
9,43,34,-26,-12,39,-170,97,151,156,19,141
0,43,43,-21,-21,43,-161,78,136,136,9,151
0,43,43,-21,-21,43,-161,78,126,122,9,156
0,43,43,-21,-21,43,-151,68,112,117,14,156
4,43,39,-24,-17,41,-151,58,97,97,14,161
4,43,39,-24,-17,41,-141,58,73,82,9,161
-4,43,48,-19,-26,46,-141,58,68,68,14,161
-4,43,48,-19,-26,46,-146,53,63,58,14,161
-4,39,43,-17,-24,41,-146,48,58,48,9,161
0,48,48,-24,-24,48,-136,39,48,24,0,156
4,53,48,-29,-21,51,-136,29,39,9,0,161
9,58,48,-34,-19,53,-136,24,34,-4,-4,161
14,63,48,-39,-17,56,-131,19,29,-14,-4,156
14,63,48,-39,-17,56,-122,29,24,-29,-9,156
14,63,48,-39,-17,56,-126,29,19,-43,-14,156
14,63,48,-39,-17,56,-126,24,9,-58,-29,151
14,63,48,-39,-17,56,-126,19,4,-73,-39,146
9,53,43,-31,-17,48,-117,14,-9,-87,-53,126
9,53,43,-31,-17,48,-117,14,-14,-97,-58,122
9,53,43,-31,-17,48,-117,9,-14,-107,-68,117
9,53,43,-31,-17,48,-117,9,-24,-122,-87,117
9,53,43,-31,-17,48,-126,0,-24,-131,-92,107
9,53,43,-31,-17,48,-126,-4,-24,-126,-107,107
9,53,43,-31,-17,48,-126,-9,-34,-122,-117,97
4,53,48,-29,-21,51,-126,-14,-39,-122,-126,87
-4,43,48,-19,-26,46,-126,-9,-43,-122,-131,92
-4,43,48,-19,-26,46,-131,-14,-48,-117,-141,87
-4,43,48,-19,-26,46,-131,-19,-48,-117,-146,87
-4,43,48,-19,-26,46,-131,-24,-48,-117,-161,82
0,48,48,-24,-24,48,-141,-24,-48,-112,-170,92
0,48,48,-24,-24,48,-146,-29,-53,-107,-195,87
0,48,48,-24,-24,48,-146,-29,-58,-102,-204,87
4,48,43,-26,-19,46,-146,-24,-58,-97,-214,87
-4,48,53,-21,-29,51,-146,-9,-48,-107,-229,92
-4,43,48,-19,-26,46,-141,-9,-53,-112,-248,97
-9,43,53,-17,-31,48,-141,-9,-63,-112,-258,102
-9,43,53,-17,-31,48,-141,-4,-63,-112,-268,107
-9,34,43,-12,-26,39,-131,0,-53,-102,-287,117
-9,34,43,-12,-26,39,-126,4,-53,-112,-312,117
-9,39,48,-14,-29,43,-117,9,-53,-112,-317,122
-4,39,43,-17,-24,41,-102,14,-48,-112,-322,122
-4,39,43,-17,-24,41,-107,19,-43,-112,-326,122
-9,34,43,-12,-26,39,-102,19,-43,-117,-331,126
-9,34,43,-12,-26,39,-92,29,-39,-122,-336,131
-9,34,43,-12,-26,39,-82,34,-29,-131,-341,136
-19,34,53,-7,-36,43,-87,24,-34,-136,-336,146
-19,34,53,-7,-36,43,-73,34,-19,-141,-331,146
-19,34,53,-7,-36,43,-63,39,-14,-141,-326,151
-19,34,53,-7,-36,43,-63,39,-9,-146,-317,151
-9,29,39,-9,-24,34,-53,39,4,-146,-307,156
-9,29,39,-9,-24,34,-48,39,9,-156,-307,151
-9,29,39,-9,-24,34,-39,39,14,-156,-307,151
-9,29,39,-9,-24,34,-39,43,19,-156,-302,146
-9,39,48,-14,-29,43,-34,43,24,-151,-287,126
-9,39,48,-14,-29,43,-34,43,24,-151,-283,117
-9,39,48,-14,-29,43,-29,43,24,-146,-283,117
-9,39,48,-14,-29,43,-24,48,19,-141,-278,122
-9,29,39,-9,-24,34,-9,58,24,-146,-258,112
-9,29,39,-9,-24,34,-4,58,24,-136,-253,112
-9,29,39,-9,-24,34,0,63,24,-131,-244,117
-9,29,39,-9,-24,34,0,63,24,-126,-234,122
0,34,34,-17,-17,34,14,68,34,-107,-224,117
0,39,39,-19,-19,39,14,73,29,-97,-209,117
0,43,43,-21,-21,43,14,78,24,-87,-190,126
0,48,48,-24,-24,48,14,78,24,-78,-185,136
-9,43,53,-17,-31,48,19,82,29,-82,-180,141
-9,43,53,-17,-31,48,9,82,29,-78,-165,146
-4,48,53,-21,-29,51,0,82,29,-78,-151,156
-4,48,53,-21,-29,51,0,82,24,-73,-141,156
-4,43,48,-19,-26,46,-4,92,24,-68,-126,161
-4,43,48,-19,-26,46,-14,92,19,-63,-117,165
-4,43,48,-19,-26,46,-19,92,14,-58,-107,165
-4,48,53,-21,-29,51,-34,92,14,-53,-97,165
4,48,43,-26,-19,46,-48,92,19,-53,-87,161
4,48,43,-26,-19,46,-58,87,14,-48,-82,161
4,48,43,-26,-19,46,-68,87,14,-39,-73,161
4,48,43,-26,-19,46,-73,87,9,-29,-68,165
-4,39,43,-17,-24,41,-68,82,19,-39,-58,165
-4,39,43,-17,-24,41,-73,82,9,-43,-53,161
-4,39,43,-17,-24,41,-82,78,4,-43,-48,156
-4,39,43,-17,-24,41,-82,68,4,-48,-48,156
-4,34,39,-14,-21,36,-102,63,4,-39,-58,161
-4,34,39,-14,-21,36,-112,58,0,-48,-63,161
-4,34,39,-14,-21,36,-122,53,0,-53,-63,151
-4,39,43,-17,-24,41,-126,48,-4,-58,-68,146
-4,48,53,-21,-29,51,-122,53,-19,-68,-73,131
-9,48,58,-19,-34,53,-131,48,-19,-68,-78,131
-9,48,58,-19,-34,53,-141,48,-19,-73,-87,122
-9,48,58,-19,-34,53,-146,43,-19,-73,-97,122
-9,39,48,-14,-29,43,-156,29,-29,-78,-112,117
-9,39,48,-14,-29,43,-165,24,-34,-87,-122,112
-4,39,43,-17,-24,41,-175,19,-34,-92,-122,107
0,39,39,-19,-19,39,-185,14,-34,-92,-131,102
0,48,48,-24,-24,48,-185,9,-39,-102,-131,97
-4,48,53,-21,-29,51,-190,4,-43,-102,-141,92
-4,48,53,-21,-29,51,-200,4,-43,-112,-151,92
-4,48,53,-21,-29,51,-204,4,-39,-117,-161,92
4,48,43,-26,-19,46,-209,4,-43,-122,-161,82
4,43,39,-24,-17,41,-209,0,-43,-122,-165,82
4,43,39,-24,-17,41,-219,0,-43,-117,-170,82
4,43,39,-24,-17,41,-224,0,-43,-112,-175,82
-4,43,48,-19,-26,46,-229,-9,-43,-117,-180,73
-4,43,48,-19,-26,46,-224,-9,-43,-122,-190,73
-4,43,48,-19,-26,46,-219,-9,-39,-117,-190,73
-4,43,48,-19,-26,46,-214,-9,-39,-122,-190,73
-4,43,48,-19,-26,46,-219,-9,-39,-126,-180,68
-4,43,48,-19,-26,46,-224,-14,-39,-122,-185,68
-4,43,48,-19,-26,46,-224,-14,-39,-122,-185,73
-4,43,48,-19,-26,46,-224,-9,-39,-117,-175,73
4,53,48,-29,-21,51,-224,0,-29,-107,-170,82
4,63,58,-34,-26,61,-214,0,-29,-102,-161,82
4,63,58,-34,-26,61,-214,0,-29,-102,-161,87
4,63,58,-34,-26,61,-214,4,-29,-87,-146,92
0,58,58,-29,-29,58,-214,9,-19,-87,-146,97
0,68,68,-34,-34,68,-204,9,-19,-78,-141,107
0,68,68,-34,-34,68,-204,9,-19,-78,-136,107
0,68,68,-34,-34,68,-204,9,-19,-78,-131,107
0,68,68,-34,-34,68,-204,9,-19,-78,-126,107
0,73,73,-36,-36,73,-195,19,-19,-68,-107,117
0,78,78,-39,-39,78,-185,19,-9,-63,-102,117
0,78,78,-39,-39,78,-190,19,-9,-53,-92,117
0,78,78,-39,-39,78,-190,19,-9,-43,-87,117
-9,73,82,-31,-46,78,-195,4,-9,-34,-73,131
-4,73,78,-34,-41,75,-200,0,-9,-29,-68,131
-4,73,78,-34,-41,75,-204,0,-9,-24,-58,136
0,82,82,-41,-41,82,-214,0,-9,-24,-53,141
0,82,82,-41,-41,82,-224,-9,0,-19,-48,156
0,87,87,-43,-43,87,-234,-14,0,-19,-43,161
0,92,92,-46,-46,92,-239,-19,-4,-14,-39,170
0,97,97,-48,-48,97,-248,-19,-14,-14,-34,175
9,112,102,-61,-46,107,-253,-19,-9,0,-24,185
9,112,102,-61,-46,107,-258,-24,-9,0,-24,185
14,112,97,-63,-41,104,-263,-29,-4,4,-29,185
14,107,92,-61,-39,100,-263,-29,-4,9,-29,185
14,97,82,-56,-34,90,-273,-39,-4,19,-39,190
14,97,82,-56,-34,90,-273,-39,-14,19,-39,190
14,92,78,-53,-31,85,-278,-34,-14,19,-34,190
14,92,78,-53,-31,85,-278,-34,-14,19,-34,185
14,92,78,-53,-31,85,-278,-39,-9,19,-24,185
14,92,78,-53,-31,85,-273,-39,-9,19,-24,185
14,92,78,-53,-31,85,-268,-34,-9,19,-24,185
19,87,68,-53,-24,78,-268,-34,-9,24,-24,185
19,87,68,-53,-24,78,-268,-34,-4,29,-14,185
19,82,63,-51,-21,73,-268,-34,-4,29,-14,185
19,73,53,-46,-17,63,-263,-39,-4,19,-14,185
19,68,48,-43,-14,58,-263,-39,-4,14,-14,185
19,53,34,-36,-7,43,-253,-39,-9,4,-19,180
19,48,29,-34,-4,39,-253,-39,-14,4,-19,180
14,48,34,-31,-9,41,-248,-39,-19,4,-19,180
14,43,29,-29,-7,36,-244,-39,-19,9,-19,180
4,39,34,-21,-14,36,-244,-43,-29,4,-29,170
4,39,34,-21,-14,36,-244,-43,-29,4,-24,170
4,39,34,-21,-14,36,-239,-39,-29,4,-24,175
9,39,29,-24,-9,34,-234,-39,-29,0,-24,175
0,34,34,-17,-17,34,-219,-34,-39,-14,-19,175
0,34,34,-17,-17,34,-219,-34,-39,-19,-19,175
0,24,24,-12,-12,24,-219,-34,-39,-24,-19,170
0,24,24,-12,-12,24,-214,-34,-39,-29,-29,165
9,29,19,-19,-4,24,-224,-43,-43,-39,-39,165
0,29,29,-14,-14,29,-224,-43,-43,-43,-43,161
-4,24,29,-9,-17,26,-214,-43,-48,-48,-48,156
-4,24,29,-9,-17,26,-214,-43,-48,-53,-53,151
4,34,29,-19,-12,31,-204,-34,-58,-58,-43,151
4,34,29,-19,-12,31,-200,-34,-63,-63,-43,151
4,34,29,-19,-12,31,-195,-34,-63,-68,-43,151
0,29,29,-14,-14,29,-195,-39,-63,-73,-48,151
-9,19,29,-4,-19,24,-209,-48,-63,-82,-58,161
-9,19,29,-4,-19,24,-209,-48,-68,-87,-58,165
-4,19,24,-7,-14,21,-209,-48,-68,-92,-63,165
-4,14,19,-4,-12,17,-209,-48,-73,-102,-63,165
0,14,14,-7,-7,14,-200,-48,-73,-102,-73,146
0,19,19,-9,-9,19,-200,-48,-73,-102,-73,146
0,19,19,-9,-9,19,-200,-48,-78,-102,-68,146
0,14,14,-7,-7,14,-200,-48,-82,-107,-68,146
-4,14,19,-4,-12,17,-195,-58,-82,-117,-58,136
-4,19,24,-7,-14,21,-195,-58,-82,-117,-58,136
-4,19,24,-7,-14,21,-195,-53,-82,-112,-58,136
-4,19,24,-7,-14,21,-195,-53,-82,-112,-63,126
-14,9,24,2,-19,17,-195,-48,-92,-117,-63,126
-14,9,24,2,-19,17,-190,-48,-92,-117,-58,126
-14,9,24,2,-19,17,-185,-43,-92,-112,-53,126
-14,9,24,2,-19,17,-185,-43,-97,-112,-48,126
-4,19,24,-7,-14,21,-175,-43,-97,-107,-39,112
-4,19,24,-7,-14,21,-170,-43,-92,-107,-39,112
-4,19,24,-7,-14,21,-170,-43,-92,-107,-34,117
-4,19,24,-7,-14,21,-170,-43,-92,-107,-34,117
-9,14,24,-2,-17,19,-175,-43,-97,-107,-34,117
-14,9,24,2,-19,17,-175,-43,-97,-107,-29,117
-19,4,24,7,-21,14,-175,-43,-97,-107,-29,117
-24,0,24,12,-24,12,-170,-43,-97,-107,-29,117
-19,4,24,7,-21,14,-165,-34,-97,-102,-24,117
-14,4,19,4,-17,12,-161,-34,-102,-92,-24,112
-9,9,19,0,-14,14,-151,-34,-102,-87,-19,107
-4,14,19,-4,-12,17,-146,-29,-102,-82,-9,107
-4,24,29,-9,-17,26,-141,-24,-87,-73,0,107
-14,9,24,2,-19,17,-141,-14,-73,-68,-4,112
-19,0,19,9,-19,9,-141,9,-63,-63,-9,97
-14,-9,4,12,-9,-2,-131,39,-29,-63,-4,82
-14,-9,4,12,-9,-2,-112,78,24,-63,-9,78
-14,0,14,7,-14,7,-102,136,82,-58,-14,73
-14,9,24,2,-19,17,-92,161,122,-63,-14,73
-4,34,39,-14,-21,36,-102,151,136,-48,-9,73
9,58,48,-34,-19,53,-107,126,136,-14,0,73
29,73,43,-51,-7,58,-126,117,151,53,43,97
39,92,53,-65,-7,73,-146,156,195,156,102,141
53,102,48,-78,2,75,-146,239,278,244,165,170
58,122,63,-90,-2,92,-136,341,361,326,224,204
102,175,73,-139,14,124,-146,409,429,439,312,253
146,219,73,-183,36,146,-161,419,473,556,390,307
175,278,102,-226,36,190,-175,370,478,673,478,366
204,341,136,-273,34,239,-185,366,478,824,575,434
239,409,170,-324,34,290,-185,390,522,1010,683,497
273,453,180,-363,46,317,-214,307,551,1176,785,566
292,502,209,-397,41,356,-258,117,517,1312,868,629
336,551,214,-444,61,383,-317,-43,434,1429,951,683
380,610,229,-495,75,419,-361,-219,356,1542,1039,746
414,649,234,-531,90,441,-414,-448,234,1649,1112,800
424,639,214,-531,104,427,-458,-614,92,1693,1141,819
424,570,146,-497,139,358,-483,-712,-73,1634,1073,780
380,478,97,-429,141,287,-502,-814,-283,1478,941,697
307,370,63,-339,122,217,-502,-936,-512,1224,736,590
209,273,63,-241,73,168,-492,-1024,-727,888,488,448
87,175,87,-131,0,131,-478,-1034,-883,512,219,297
-19,112,131,-46,-75,122,-424,-1019,-990,151,-4,175
-63,73,136,-4,-100,104,-385,-966,-1024,-156,-175,78
-63,58,122,2,-92,90,-395,-878,-956,-292,-234,29
-58,48,107,4,-82,78,-434,-790,-868,-302,-214,29
-48,43,92,2,-70,68,-453,-702,-800,-302,-195,39
-19,34,53,-7,-36,43,-434,-575,-736,-317,-195,29
0,14,14,-7,-7,14,-409,-458,-673,-307,-190,29
4,-19,-24,7,14,-21,-370,-385,-600,-302,-185,19
4,-39,-43,17,24,-41,-346,-322,-531,-297,-185,19
4,-39,-43,17,24,-41,-326,-283,-473,-297,-190,14
0,-34,-34,17,17,-34,-307,-263,-419,-292,-190,4
-9,-34,-24,21,7,-29,-297,-239,-385,-287,-209,0
-24,-34,-9,29,-7,-21,-268,-200,-351,-278,-224,-9
-29,-29,0,29,-14,-14,-253,-175,-331,-273,-239,-14
-34,-14,19,24,-26,2,-244,-141,-307,-253,-258,-14
-43,-14,29,29,-36,7,-244,-117,-278,-244,-278,-9
-39,-19,19,29,-29,0,-234,-102,-234,-239,-273,0
-34,-19,14,26,-24,-2,-229,-87,-200,-239,-283,4
-24,-24,0,24,-12,-12,-224,-68,-170,-239,-292,4
-14,-34,-19,24,2,-26,-209,-43,-156,-244,-302,4
-14,-34,-19,24,2,-26,-190,-34,-161,-244,-312,0
-14,-34,-19,24,2,-26,-175,-19,-161,-244,-326,4
-14,-34,-19,24,2,-26,-161,-19,-156,-239,-341,0
-14,-34,-19,24,2,-26,-146,-14,-156,-239,-341,4
-19,-39,-19,29,0,-29,-136,-19,-165,-234,-331,14
-24,-43,-19,34,-2,-31,-107,-14,-156,-239,-331,14
-29,-48,-19,39,-4,-34,-87,-14,-146,-239,-331,19
-34,-53,-19,43,-7,-36,-63,-4,-141,-244,-331,29
-34,-58,-24,46,-4,-41,-43,-4,-131,-248,-312,34
-34,-58,-24,46,-4,-41,-24,0,-122,-253,-302,43
-34,-63,-29,48,-2,-46,-9,9,-117,-268,-292,48
-34,-63,-29,48,-2,-46,9,14,-102,-273,-273,68
-24,-58,-34,41,4,-46,19,19,-102,-292,-268,68
-24,-58,-34,41,4,-46,29,24,-97,-302,-258,78
-24,-58,-34,41,4,-46,39,34,-82,-302,-253,87
-19,-58,-39,39,9,-48,39,43,-78,-302,-248,97
-29,-58,-29,43,0,-43,48,43,-63,-302,-234,102
-29,-58,-29,43,0,-43,53,58,-58,-307,-224,107
-29,-58,-29,43,0,-43,53,68,-53,-307,-214,107
-29,-53,-24,41,-2,-39,58,68,-53,-302,-209,107
-24,-53,-29,39,2,-41,68,73,-48,-302,-209,112
-19,-58,-39,39,9,-48,73,73,-48,-302,-200,112
-19,-63,-43,41,12,-53,73,78,-43,-302,-190,112
-14,-63,-48,39,17,-56,73,82,-39,-302,-185,117
-19,-63,-43,41,12,-53,68,78,-39,-287,-185,117
-19,-63,-43,41,12,-53,63,82,-39,-278,-175,122
-19,-63,-43,41,12,-53,63,82,-39,-273,-165,126
-19,-63,-43,41,12,-53,58,82,-34,-268,-161,131
-29,-63,-34,46,2,-48,48,92,-43,-253,-141,126
-34,-68,-34,51,0,-51,43,92,-43,-253,-131,131
-34,-68,-34,51,0,-51,39,87,-43,-248,-122,136
-34,-68,-34,51,0,-51,29,87,-39,-234,-117,141
-24,-68,-43,46,9,-56,19,82,-48,-214,-112,146
-24,-73,-48,48,12,-61,14,82,-43,-209,-102,151
-24,-73,-48,48,12,-61,9,78,-34,-200,-92,156
-24,-68,-43,46,9,-56,4,73,-34,-195,-82,161
-34,-78,-43,56,4,-61,4,82,-29,-180,-78,165
-34,-78,-43,56,4,-61,0,78,-29,-161,-68,170
-34,-78,-43,56,4,-61,0,78,-24,-146,-63,175
-34,-82,-48,58,7,-65,0,78,-19,-126,-68,180
-34,-78,-43,56,4,-61,0,78,-24,-122,-68,175
-34,-78,-43,56,4,-61,0,78,-19,-107,-82,175
-34,-78,-43,56,4,-61,0,87,-19,-97,-87,175
-34,-82,-48,58,7,-65,0,97,-14,-87,-87,170
-34,-92,-58,63,12,-75,-4,97,-14,-82,-97,165
-34,-92,-58,63,12,-75,-4,97,-9,-73,-102,165
-34,-97,-63,65,14,-80,-9,102,-9,-63,-112,165
-34,-102,-68,68,17,-85,-9,107,-9,-53,-117,165
-24,-102,-78,63,26,-90,-9,102,-4,-58,-112,156
-24,-102,-78,63,26,-90,-19,107,0,-53,-122,156
-24,-102,-78,63,26,-90,-24,112,4,-43,-122,161
-24,-112,-87,68,31,-100,-29,112,4,-43,-122,165
-14,-102,-87,58,36,-95,-24,117,9,-48,-122,161
-14,-102,-87,58,36,-95,-29,117,14,-48,-122,161
-14,-102,-87,58,36,-95,-39,122,14,-34,-122,170
-14,-102,-87,58,36,-95,-43,122,14,-34,-117,170
-24,-107,-82,65,29,-95,-48,131,24,-43,-117,165
-24,-107,-82,65,29,-95,-53,131,29,-48,-112,161
-24,-107,-82,65,29,-95,-53,131,29,-53,-107,161
-24,-107,-82,65,29,-95,-53,131,24,-58,-107,156
-19,-117,-97,68,39,-107,-48,131,29,-63,-107,151
-14,-117,-102,65,43,-109,-48,131,39,-73,-97,156
-14,-117,-102,65,43,-109,-48,131,48,-82,-97,156
-9,-117,-107,63,48,-112,-48,131,58,-92,-92,156
0,-112,-112,56,56,-112,-39,151,68,-92,-97,156
0,-112,-112,56,56,-112,-34,156,78,-87,-107,151
0,-112,-112,56,56,-112,-29,156,87,-87,-112,151
0,-107,-107,53,53,-107,-24,161,97,-82,-122,151
-4,-107,-102,56,48,-104,-24,165,117,-92,-122,156
-4,-107,-102,56,48,-104,-19,170,122,-87,-126,146
-4,-107,-102,56,48,-104,-19,170,136,-87,-126,146
-4,-107,-102,56,48,-104,-24,175,141,-82,-122,146
0,-117,-117,58,58,-117,-34,190,156,-63,-122,151
0,-112,-112,56,56,-112,-39,200,165,-53,-117,151
4,-112,-117,53,61,-114,-48,209,180,-43,-117,141
9,-112,-122,51,65,-117,-53,214,195,-29,-107,141
0,-107,-107,53,53,-107,-58,219,204,-19,-107,146
0,-107,-107,53,53,-107,-63,229,214,-14,-102,151
4,-102,-107,48,56,-104,-78,229,224,-4,-92,151
4,-97,-102,46,53,-100,-82,234,234,0,-87,156
9,-97,-107,43,58,-102,-97,239,253,14,-73,165
9,-92,-102,41,56,-97,-97,248,268,24,-68,170
9,-92,-102,41,56,-97,-102,253,287,29,-63,170
9,-92,-102,41,56,-97,-117,253,302,39,-58,170
9,-78,-87,34,48,-82,-126,258,302,48,-43,161
9,-78,-87,34,48,-82,-136,263,307,58,-43,161
14,-73,-87,29,51,-80,-136,268,312,68,-43,161
14,-68,-82,26,48,-75,-141,268,322,78,-34,161
4,-78,-82,36,43,-80,-146,263,341,92,-29,151
4,-68,-73,31,39,-70,-146,263,346,97,-29,151
14,-63,-78,24,46,-70,-151,268,351,102,-24,151
14,-63,-78,24,46,-70,-156,268,356,117,-24,151
19,-48,-68,14,43,-58,-151,268,346,126,-14,141
19,-43,-63,12,41,-53,-156,263,346,126,-14,141
24,-43,-68,9,46,-56,-156,263,351,136,-4,136
29,-43,-73,7,51,-58,-161,263,356,141,0,131
24,-34,-58,4,41,-46,-175,258,366,161,4,122
24,-29,-53,2,39,-41,-175,253,366,170,19,122
24,-29,-53,2,39,-41,-175,253,361,175,24,122
24,-24,-48,0,36,-36,-175,248,356,185,34,122
14,-34,-48,9,31,-41,-190,244,356,200,39,117
14,-29,-43,7,29,-36,-190,239,356,204,43,112
14,-29,-43,7,29,-36,-185,229,356,204,53,112
14,-24,-39,4,26,-31,-185,224,351,204,58,107
19,-24,-43,2,31,-34,-190,224,336,219,73,97
19,-24,-43,2,31,-34,-195,219,331,224,78,97
19,-19,-39,0,29,-29,-195,214,326,224,87,97
19,-19,-39,0,29,-29,-200,209,317,224,92,97
19,-24,-43,2,31,-34,-209,195,312,234,97,97
19,-24,-43,2,31,-34,-204,185,302,234,112,102
19,-19,-39,0,29,-29,-200,180,297,229,126,112
19,-14,-34,-2,26,-24,-195,180,292,224,131,112
29,-4,-34,-12,31,-19,-200,175,283,224,146,122
29,0,-29,-14,29,-14,-195,170,273,214,146,122
29,4,-24,-17,26,-9,-190,161,263,209,146,117
29,9,-19,-19,24,-4,-185,156,253,209,131,117
19,4,-14,-12,17,-4,-195,151,229,190,126,131
24,9,-14,-17,19,-2,-195,141,219,180,131,131
24,14,-9,-19,17,2,-185,131,204,170,126,131
24,14,-9,-19,17,2,-180,122,190,156,126,131
24,14,-9,-19,17,2,-190,112,165,141,126,122
24,19,-4,-21,14,7,-185,97,156,117,122,122
24,19,-4,-21,14,7,-185,97,146,102,112,122
24,24,0,-24,12,12,-185,92,131,87,102,126
24,24,0,-24,12,12,-170,87,117,78,92,126
24,24,0,-24,12,12,-170,78,102,68,92,136
19,24,4,-21,7,14,-170,68,87,53,87,141
19,24,4,-21,7,14,-170,58,82,39,78,141
19,29,9,-24,4,19,-170,48,68,19,68,151
19,34,14,-26,2,24,-170,48,58,4,68,156
19,39,19,-29,0,29,-161,39,43,0,73,156
24,43,19,-34,2,31,-161,29,29,-19,73,161
24,43,19,-34,2,31,-151,9,14,-39,58,161
14,43,29,-29,-7,36,-151,9,9,-48,63,161
14,43,29,-29,-7,36,-156,4,4,-53,63,161
14,39,24,-26,-4,31,-156,0,0,-58,58,161
14,34,19,-24,-2,26,-156,0,-9,-68,53,161
14,34,19,-24,-2,26,-156,-9,-19,-78,48,161
14,34,19,-24,-2,26,-156,-14,-24,-87,39,156
14,34,19,-24,-2,26,-151,-19,-29,-92,34,146
14,34,19,-24,-2,26,-146,-29,-34,-102,34,136
14,34,19,-24,-2,26,-146,-29,-39,-112,34,136
14,34,19,-24,-2,26,-141,-34,-48,-122,24,131
14,34,19,-24,-2,26,-136,-39,-53,-131,19,126
19,34,14,-26,2,24,-136,-43,-58,-141,4,117
19,34,14,-26,2,24,-136,-43,-63,-146,0,112
19,34,14,-26,2,24,-136,-48,-63,-151,-9,107
19,34,14,-26,2,24,-136,-48,-73,-161,-29,107
9,24,14,-17,-2,19,-126,-48,-73,-175,-43,97
9,24,14,-17,-2,19,-126,-53,-73,-175,-58,87
9,24,14,-17,-2,19,-126,-58,-82,-175,-68,68
4,24,19,-14,-7,21,-126,-63,-87,-180,-78,48
4,14,9,-9,-2,12,-126,-58,-102,-190,-87,43
4,14,9,-9,-2,12,-131,-63,-107,-185,-102,39
4,14,9,-9,-2,12,-131,-68,-107,-185,-112,39
4,14,9,-9,-2,12,-131,-73,-107,-185,-131,34
-9,19,29,-4,-19,24,-141,-82,-117,-195,-146,24
-9,19,29,-4,-19,24,-146,-87,-122,-195,-175,19
-9,19,29,-4,-19,24,-146,-87,-126,-195,-190,19
-4,19,24,-7,-14,21,-146,-82,-126,-195,-204,19
4,19,14,-12,-4,17,-146,-68,-126,-204,-214,29
4,14,9,-9,-2,12,-141,-68,-131,-209,-229,29
0,14,14,-7,-7,14,-141,-68,-141,-209,-234,29
0,14,14,-7,-7,14,-141,-63,-141,-209,-239,29
9,24,14,-17,-2,19,-141,-58,-151,-214,-253,39
9,24,14,-17,-2,19,-136,-53,-151,-229,-273,39
9,29,19,-19,-4,24,-126,-48,-151,-234,-273,43
14,29,14,-21,0,21,-112,-43,-146,-239,-273,43
4,24,19,-14,-7,21,-107,-39,-131,-244,-263,43
0,14,14,-7,-7,14,-102,-39,-131,-253,-263,48
0,9,9,-4,-4,9,-92,-29,-126,-263,-263,53
0,4,4,-2,-2,4,-82,-24,-117,-278,-263,58
9,14,4,-12,2,9,-87,-29,-122,-273,-258,68
9,14,4,-12,2,9,-73,-24,-107,-278,-253,68
9,14,4,-12,2,9,-63,-24,-102,-278,-248,73
9,14,4,-12,2,9,-63,-29,-97,-283,-239,73
0,9,9,-4,-4,9,-63,-19,-92,-273,-229,78
0,9,9,-4,-4,9,-58,-19,-87,-283,-229,73
0,9,9,-4,-4,9,-48,-19,-82,-283,-229,73
0,9,9,-4,-4,9,-48,-14,-78,-283,-224,68
0,9,9,-4,-4,9,-34,-4,-68,-263,-209,68
0,9,9,-4,-4,9,-34,-4,-63,-258,-204,58
0,9,9,-4,-4,9,-29,-4,-58,-248,-204,58
0,9,9,-4,-4,9,-24,0,-58,-239,-200,63
0,9,9,-4,-4,9,-14,0,-53,-224,-180,53
0,9,9,-4,-4,9,-14,0,-53,-214,-175,53
0,9,9,-4,-4,9,-14,4,-53,-209,-165,58
0,9,9,-4,-4,9,-19,4,-53,-204,-156,63
0,19,19,-9,-9,19,-19,9,-53,-190,-151,78
0,19,19,-9,-9,19,-24,14,-58,-185,-141,78
0,19,19,-9,-9,19,-29,19,-63,-180,-126,87
0,19,19,-9,-9,19,-34,19,-63,-175,-126,97
9,14,4,-12,2,9,-34,24,-63,-161,-122,92
9,14,4,-12,2,9,-39,24,-58,-156,-107,97
14,19,4,-17,4,12,-43,24,-53,-156,-92,107
14,19,4,-17,4,12,-39,24,-53,-151,-82,107
4,24,19,-14,-7,21,-43,24,-53,-146,-78,122
4,24,19,-14,-7,21,-53,24,-58,-141,-68,126
4,24,19,-14,-7,21,-58,24,-63,-136,-58,126
4,29,24,-17,-9,26,-73,24,-63,-131,-48,126
4,29,24,-17,-9,26,-73,34,-58,-122,-29,141
4,29,24,-17,-9,26,-78,29,-63,-117,-24,141
4,29,24,-17,-9,26,-82,29,-63,-107,-14,141
4,29,24,-17,-9,26,-82,29,-68,-97,-9,146
4,29,24,-17,-9,26,-87,24,-58,-87,-9,156
4,29,24,-17,-9,26,-92,24,-68,-92,-4,151
4,29,24,-17,-9,26,-102,19,-73,-92,0,146
4,29,24,-17,-9,26,-102,9,-73,-97,0,146
4,14,9,-9,-2,12,-112,4,-82,-87,9,151
4,14,9,-9,-2,12,-122,0,-87,-97,4,151
4,14,9,-9,-2,12,-131,-4,-87,-102,4,141
4,19,14,-12,-4,17,-136,-9,-92,-107,0,136
14,29,14,-21,0,21,-141,-14,-97,-117,-9,141
9,29,19,-19,-4,24,-151,-19,-97,-117,-9,141
9,29,19,-19,-4,24,-161,-19,-97,-122,-14,131
9,29,19,-19,-4,24,-165,-24,-97,-122,-19,131
0,19,19,-9,-9,19,-175,-29,-97,-126,-29,122
0,19,19,-9,-9,19,-185,-34,-102,-136,-43,122
4,19,14,-12,-4,17,-195,-39,-102,-141,-48,122
9,19,9,-14,0,14,-204,-43,-102,-141,-63,122
9,19,9,-14,0,14,-204,-48,-107,-146,-73,107
4,19,14,-12,-4,17,-209,-53,-112,-151,-82,102
4,19,14,-12,-4,17,-219,-53,-112,-165,-92,102
4,19,14,-12,-4,17,-224,-53,-107,-175,-102,102
4,29,24,-17,-9,26,-229,-53,-102,-190,-102,92
4,24,19,-14,-7,21,-229,-58,-102,-190,-107,92
4,24,19,-14,-7,21,-239,-58,-102,-185,-112,92
4,24,19,-14,-7,21,-244,-58,-102,-180,-117,92
4,34,29,-19,-12,31,-248,-48,-92,-190,-122,92
4,34,29,-19,-12,31,-244,-48,-92,-190,-131,92
4,34,29,-19,-12,31,-239,-48,-87,-180,-131,92
4,34,29,-19,-12,31,-234,-48,-87,-180,-131,92
14,24,9,-19,2,17,-239,-48,-78,-185,-122,87
14,24,9,-19,2,17,-244,-53,-78,-180,-126,87
14,24,9,-19,2,17,-244,-53,-78,-180,-126,92
14,24,9,-19,2,17,-244,-48,-78,-175,-117,92
14,24,9,-19,2,17,-253,-48,-78,-165,-122,102
14,24,9,-19,2,17,-253,-48,-78,-161,-112,102
14,24,9,-19,2,17,-253,-48,-78,-161,-102,107
14,24,9,-19,2,17,-253,-43,-78,-156,-97,112
4,24,19,-14,-7,21,-258,-43,-68,-146,-82,107
4,24,19,-14,-7,21,-258,-43,-68,-141,-68,112
4,24,19,-14,-7,21,-263,-43,-68,-131,-53,117
9,29,19,-19,-4,24,-263,-43,-68,-126,-39,126
19,29,9,-24,4,19,-263,-43,-68,-122,-39,126
14,29,14,-21,0,21,-263,-43,-68,-117,-29,131
14,29,14,-21,0,21,-258,-43,-73,-112,-24,136
14,29,14,-21,0,21,-258,-43,-73,-102,-14,136
9,24,14,-17,-2,19,-268,-34,-58,-87,-4,141
9,24,14,-17,-2,19,-258,-34,-58,-78,0,146
9,24,14,-17,-2,19,-253,-34,-48,-73,4,151
4,19,14,-12,-4,17,-253,-34,-48,-73,4,151
4,19,14,-12,-4,17,-263,-34,-58,-63,14,141
4,19,14,-12,-4,17,-253,-34,-58,-58,19,146
4,24,19,-14,-7,21,-253,-34,-58,-53,19,151
9,24,14,-17,-2,19,-248,-34,-58,-53,19,151
0,19,19,-9,-9,19,-258,-34,-58,-53,19,161
0,14,14,-7,-7,14,-253,-34,-53,-48,19,161
0,19,19,-9,-9,19,-248,-34,-48,-43,19,165
0,14,14,-7,-7,14,-244,-34,-48,-39,24,170
0,4,4,-2,-2,4,-248,-43,-48,-39,24,161
0,4,4,-2,-2,4,-244,-43,-48,-39,24,156
0,9,9,-4,-4,9,-239,-43,-43,-39,14,156
0,9,9,-4,-4,9,-234,-43,-43,-39,9,156
9,19,9,-14,0,14,-229,-43,-43,-34,9,165
9,19,9,-14,0,14,-234,-43,-43,-34,9,165
9,19,9,-14,0,14,-234,-39,-48,-39,4,165
9,19,9,-14,0,14,-239,-34,-48,-39,9,165
9,9,0,-9,4,4,-244,-43,-48,-39,19,165
9,14,4,-12,2,9,-239,-39,-48,-39,19,165
9,24,14,-17,-2,19,-234,-39,-43,-39,19,165
9,24,14,-17,-2,19,-229,-39,-43,-43,19,165
0,24,24,-12,-12,24,-229,-39,-53,-43,19,175
9,19,9,-14,0,14,-219,-39,-53,-43,19,175
9,19,9,-14,0,14,-214,-39,-48,-48,19,175
9,14,4,-12,2,9,-219,-39,-48,-48,19,175
9,19,9,-14,0,14,-214,-39,-53,-53,19,165
9,19,9,-14,0,14,-219,-39,-53,-53,19,165
9,19,9,-14,0,14,-219,-39,-53,-53,24,165
4,19,14,-12,-4,17,-219,-39,-53,-53,24,165
4,14,9,-9,-2,12,-224,-34,-53,-58,34,161
4,19,14,-12,-4,17,-229,-39,-58,-58,34,156
9,29,19,-19,-4,24,-229,-39,-63,-53,34,146
9,29,19,-19,-4,24,-229,-43,-63,-48,34,141
9,19,9,-14,0,14,-234,-43,-68,-48,34,131
9,19,9,-14,0,14,-229,-48,-63,-48,39,131
9,19,9,-14,0,14,-224,-48,-58,-53,39,131
4,19,14,-12,-4,17,-219,-39,-58,-63,39,131
4,29,24,-17,-9,26,-200,-39,-58,-53,43,126
4,29,24,-17,-9,26,-200,-34,-53,-53,43,126
0,29,29,-14,-14,29,-195,-39,-48,-48,39,117
9,34,24,-21,-7,29,-185,-39,-58,-58,39,117
9,39,29,-24,-9,34,-185,-39,-58,-58,39,117
9,43,34,-26,-12,39,-185,-39,-58,-58,39,117
9,48,39,-29,-14,43,-185,-39,-58,-58,39,117
9,43,34,-26,-12,39,-180,-29,-68,-58,39,112
9,48,39,-29,-14,43,-165,-29,-58,-63,34,107
9,48,39,-29,-14,43,-165,-29,-58,-63,34,102
9,48,39,-29,-14,43,-161,-29,-58,-63,29,97
9,53,43,-31,-17,48,-175,-34,-58,-73,29,87
14,53,39,-34,-12,46,-180,-39,-58,-68,29,82
14,53,39,-34,-12,46,-185,-39,-58,-63,34,82
19,63,43,-41,-12,53,-195,-39,-58,-63,34,82
9,53,43,-31,-17,48,-204,-48,-58,-63,29,82
9,58,48,-34,-19,53,-214,-53,-58,-68,24,82
9,63,53,-36,-21,58,-219,-58,-63,-68,19,87
9,68,58,-39,-24,63,-229,-58,-73,-73,14,87
9,73,63,-41,-26,68,-234,-68,-73,-73,14,87
9,73,63,-41,-26,68,-239,-73,-78,-78,14,87
14,73,58,-43,-21,65,-244,-78,-78,-78,9,87
14,68,53,-41,-19,61,-244,-78,-82,-78,9,87
24,78,53,-51,-14,65,-253,-78,-73,-78,9,92
24,78,53,-51,-14,65,-253,-78,-82,-78,9,92
24,73,48,-48,-12,61,-258,-73,-82,-78,14,92
24,73,48,-48,-12,61,-258,-73,-82,-78,14,87
34,63,29,-48,2,46,-268,-78,-68,-78,4,97
34,63,29,-48,2,46,-263,-78,-68,-78,4,97
34,63,29,-48,2,46,-258,-73,-68,-78,4,97
39,58,19,-48,9,39,-258,-73,-68,-73,4,97
39,63,24,-51,7,43,-258,-63,-53,-78,4,97
39,63,24,-51,7,43,-258,-63,-53,-78,4,97
39,58,19,-48,9,39,-253,-68,-53,-87,4,97
39,58,19,-48,9,39,-253,-68,-53,-92,4,97
39,43,4,-41,17,24,-253,-58,-53,-82,-9,82
39,39,0,-39,19,19,-253,-58,-53,-82,-9,82
34,39,4,-36,14,21,-248,-58,-53,-82,-9,82
34,34,0,-34,17,17,-244,-58,-48,-78,-9,82
24,19,-4,-21,14,7,-244,-63,-39,-78,-19,73
24,19,-4,-21,14,7,-244,-63,-39,-73,-14,73
24,19,-4,-21,14,7,-239,-58,-39,-68,-14,78
29,19,-9,-24,19,4,-234,-58,-39,-68,-14,78
19,24,4,-21,7,14,-239,-53,-39,-58,-9,78
19,24,4,-21,7,14,-239,-53,-39,-58,-9,78
19,14,-4,-17,12,4,-239,-53,-39,-58,-9,73
19,14,-4,-17,12,4,-234,-53,-39,-58,-19,68
29,19,-9,-24,19,4,-244,-63,-43,-58,-9,68
19,19,0,-19,9,9,-244,-63,-43,-63,-14,63
14,14,0,-14,7,7,-234,-63,-48,-68,-19,58
14,14,0,-14,7,7,-234,-63,-48,-73,-24,53
14,14,0,-14,7,7,-224,-63,-58,-63,-14,53
14,14,0,-14,7,7,-219,-63,-63,-63,-14,53
14,14,0,-14,7,7,-214,-63,-63,-63,-14,53
9,9,0,-9,4,4,-214,-68,-63,-63,-19,53
9,9,0,-9,4,4,-209,-78,-73,-58,-19,43
9,9,0,-9,4,4,-209,-78,-78,-58,-19,48
14,9,-4,-12,9,2,-209,-78,-78,-58,-24,48
14,4,-9,-9,12,-2,-209,-78,-82,-63,-24,48
9,4,-4,-7,7,0,-219,-78,-92,-53,-24,29
9,9,0,-9,4,4,-219,-78,-92,-53,-24,29
9,9,0,-9,4,4,-219,-78,-97,-53,-19,29
9,4,-4,-7,7,0,-219,-78,-102,-58,-19,29
4,-4,-9,0,7,-7,-224,-87,-102,-58,-29,29
4,0,-4,-2,4,-2,-224,-87,-102,-58,-29,29
4,0,-4,-2,4,-2,-224,-82,-102,-53,-29,29
4,0,-4,-2,4,-2,-224,-82,-102,-53,-34,19
4,9,4,-7,0,7,-234,-87,-112,-58,-39,9
4,9,4,-7,0,7,-229,-87,-112,-58,-39,9
4,9,4,-7,0,7,-224,-82,-112,-53,-39,9
4,9,4,-7,0,7,-224,-82,-117,-53,-39,9
14,0,-14,-7,14,-7,-229,-82,-117,-68,-48,4
14,0,-14,-7,14,-7,-229,-82,-112,-68,-48,4
14,0,-14,-7,14,-7,-234,-82,-112,-68,-43,9
14,0,-14,-7,14,-7,-239,-82,-112,-68,-43,9
4,0,-4,-2,4,-2,-244,-92,-107,-82,-58,9
4,0,-4,-2,4,-2,-244,-92,-107,-87,-58,9
4,0,-4,-2,4,-2,-244,-92,-107,-92,-63,9
4,0,-4,-2,4,-2,-239,-92,-107,-97,-68,9
4,0,-4,-2,4,-2,-229,-92,-107,-97,-63,9
4,-4,-9,0,7,-7,-229,-92,-112,-92,-73,4
4,-4,-9,0,7,-7,-224,-92,-112,-92,-78,0
4,-4,-9,0,7,-7,-224,-87,-112,-92,-78,0
4,-4,-9,0,7,-7,-219,-82,-97,-102,-87,9
4,-9,-14,2,9,-12,-219,-73,-92,-107,-92,4
9,-9,-19,0,14,-14,-200,-58,-73,-112,-97,0
4,-19,-24,7,14,-21,-190,-29,-58,-112,-112,-4
4,-19,-24,7,14,-21,-180,9,-14,-112,-126,-9
4,-19,-24,7,14,-21,-170,58,34,-117,-122,-14
4,-9,-14,2,9,-12,-170,102,82,-122,-131,-14
4,4,0,-4,2,2,-151,112,126,-107,-126,-14
9,9,0,-9,4,4,-156,97,126,-102,-117,-4
9,24,14,-17,-2,19,-156,87,131,-63,-92,9
39,53,14,-46,12,34,-165,97,165,19,-34,43
73,92,19,-82,26,56,-165,170,229,107,48,92
97,131,34,-114,31,82,-156,283,322,200,117,126
112,156,43,-134,34,100,-156,370,390,302,195,165
146,190,43,-168,51,117,-170,400,424,409,273,219
175,229,53,-202,61,141,-185,361,448,527,361,278
214,292,78,-253,68,185,-185,317,448,658,458,336
248,351,102,-300,73,226,-185,331,473,824,566,400
273,414,141,-344,65,278,-204,326,522,1000,678,468
292,473,180,-383,56,326,-258,175,527,1156,771,531
326,512,185,-419,70,348,-317,-14,463,1273,873,595
361,561,200,-461,80,380,-370,-180,375,1395,951,658
385,600,214,-492,85,407,-424,-409,263,1522,1044,712
414,610,195,-512,109,402,-478,-634,141,1615,1093,751
444,590,146,-517,148,368,-502,-751,-4,1625,1083,751
419,507,87,-463,165,297,-522,-844,-185,1517,1000,697
375,429,53,-402,161,241,-522,-956,-385,1332,854,619
307,341,34,-324,136,187,-522,-1054,-610,1054,634,488
204,244,39,-224,82,141,-527,-1102,-805,697,375,326
97,161,63,-129,17,112,-483,-1088,-932,336,131,195
4,102,97,-53,-46,100,-414,-1054,-1024,-9,-68,87
-43,48,92,-2,-68,70,-405,-985,-1015,-253,-204,9
-58,9,68,24,-63,39,-434,-897,-936,-331,-244,-29
-58,-4,53,31,-56,24,-453,-810,-858,-351,-224,-29
-39,-4,34,21,-36,14,-463,-702,-795,-356,-214,-29
-19,-24,-4,21,-7,-14,-439,-566,-722,-356,-209,-29
-4,-39,-34,21,14,-36,-409,-463,-658,-341,-195,-39
14,-48,-63,17,39,-56,-385,-400,-590,-336,-175,-29
14,-48,-63,17,39,-56,-366,-331,-522,-326,-170,-34
9,-43,-53,17,31,-48,-346,-302,-468,-312,-170,-34
0,-43,-43,21,21,-43,-336,-287,-434,-307,-170,-29
0,-34,-34,17,17,-34,-312,-248,-385,-297,-180,-39
0,-29,-29,14,14,-29,-292,-224,-361,-292,-190,-43
0,-14,-14,7,7,-14,-278,-190,-331,-273,-204,-43
-4,-14,-9,9,2,-12,-273,-165,-297,-263,-219,-39
4,-19,-24,7,14,-21,-283,-151,-253,-253,-224,-39
4,-19,-24,7,14,-21,-278,-136,-219,-248,-234,-34
9,-24,-34,7,21,-29,-273,-117,-190,-244,-244,-34
14,-34,-48,9,31,-41,-258,-92,-175,-244,-253,-34
4,-43,-48,19,26,-46,-239,-73,-161,-234,-263,-43
4,-43,-48,19,26,-46,-224,-58,-161,-234,-278,-43
4,-43,-48,19,26,-46,-209,-58,-156,-229,-292,-53
4,-43,-48,19,26,-46,-195,-53,-156,-229,-292,-53
-4,-53,-48,29,21,-51,-185,-48,-165,-219,-292,-53
-4,-53,-48,29,21,-51,-156,-43,-156,-219,-292,-53
-4,-53,-48,29,21,-51,-136,-43,-146,-214,-292,-48
-4,-53,-48,29,21,-51,-112,-34,-141,-214,-292,-39
-4,-58,-53,31,24,-56,-92,-29,-141,-229,-278,-43
-4,-58,-53,31,24,-56,-73,-29,-131,-234,-273,-34
-4,-63,-58,34,26,-61,-58,-24,-126,-248,-268,-29
-4,-63,-58,34,26,-61,-39,-24,-112,-253,-253,-9
-4,-58,-53,31,24,-56,-39,-19,-102,-273,-253,-9
-4,-58,-53,31,24,-56,-29,-14,-97,-283,-239,0
-4,-58,-53,31,24,-56,-19,-4,-82,-283,-229,9
0,-58,-58,29,29,-58,-19,4,-78,-283,-219,19
-9,-68,-58,39,24,-63,-9,9,-73,-283,-214,14
-9,-68,-58,39,24,-63,-4,19,-68,-287,-204,19
-9,-68,-58,39,24,-63,-4,24,-63,-287,-195,19
-9,-63,-53,36,21,-58,0,19,-63,-283,-190,19
-9,-63,-53,36,21,-58,9,34,-58,-273,-180,24
-9,-68,-58,39,24,-63,14,34,-58,-273,-170,24
-14,-73,-58,43,21,-65,14,39,-53,-273,-161,24
-14,-73,-58,43,21,-65,14,43,-48,-273,-156,29
-9,-63,-53,36,21,-58,19,48,-48,-258,-136,19
-9,-63,-53,36,21,-58,14,53,-48,-248,-126,24
-9,-63,-53,36,21,-58,14,53,-48,-244,-117,29
-9,-63,-53,36,21,-58,9,53,-43,-239,-112,34
-9,-73,-63,41,26,-68,9,63,-34,-224,-97,43
-14,-78,-63,46,24,-70,4,63,-34,-224,-82,53
-14,-78,-63,46,24,-70,0,58,-34,-219,-68,63
-14,-78,-63,46,24,-70,-9,58,-29,-204,-58,73
-4,-78,-73,41,34,-75,-9,63,-19,-190,-48,87
-4,-82,-78,43,36,-80,-14,63,-14,-180,-34,92
-4,-82,-78,43,36,-80,-19,58,-4,-165,-19,97
-4,-78,-73,41,34,-75,-24,53,-4,-156,-4,102
-4,-78,-73,41,34,-75,-24,63,9,-141,-4,102
-4,-78,-73,41,34,-75,-29,58,9,-122,0,102
-4,-78,-73,41,34,-75,-29,58,14,-107,0,102
-4,-82,-78,43,36,-80,-29,58,19,-87,-9,102
-9,-97,-87,53,39,-92,-19,68,24,-73,-14,107
-14,-97,-82,56,34,-90,-19,68,29,-58,-34,107
-19,-97,-78,58,29,-87,-19,78,29,-48,-43,107
-24,-102,-78,63,26,-90,-19,87,34,-39,-48,102
-14,-92,-78,53,31,-85,-14,97,34,-34,-63,107
-14,-92,-78,53,31,-85,-14,97,39,-24,-73,107
-14,-97,-82,56,34,-90,-19,102,39,-14,-87,107
-14,-102,-87,58,36,-95,-19,107,39,-4,-97,107
-4,-92,-87,48,41,-90,-19,102,43,-9,-112,107
-4,-92,-87,48,41,-90,-29,107,48,-4,-122,107
-4,-92,-87,48,41,-90,-34,112,53,4,-122,112
-4,-102,-97,53,46,-100,-39,112,53,4,-122,117
-14,-112,-97,63,41,-104,-43,117,58,4,-122,122
-14,-112,-97,63,41,-104,-48,117,63,0,-122,122
-14,-112,-97,63,41,-104,-58,122,63,9,-122,131
-14,-112,-97,63,41,-104,-63,122,63,4,-117,131
-14,-117,-102,65,43,-109,-78,122,73,-14,-117,131
-14,-117,-102,65,43,-109,-82,122,78,-19,-112,131
-14,-117,-102,65,43,-109,-82,122,78,-24,-107,136
-14,-117,-102,65,43,-109,-82,122,73,-29,-107,136
-9,-126,-117,68,53,-122,-68,131,73,-39,-107,131
-4,-126,-122,65,58,-124,-68,131,78,-43,-97,136
-4,-126,-122,65,58,-124,-68,131,82,-48,-97,136
0,-126,-126,63,63,-126,-68,131,87,-53,-92,136
0,-131,-131,65,65,-131,-63,131,92,-63,-97,126
0,-131,-131,65,65,-131,-63,136,97,-58,-107,122
0,-131,-131,65,65,-131,-63,136,102,-58,-112,122
0,-126,-126,63,63,-126,-63,141,107,-53,-122,122
14,-117,-131,51,73,-124,-53,146,117,-53,-112,117
14,-117,-131,51,73,-124,-48,151,122,-48,-117,107
14,-117,-131,51,73,-124,-48,151,136,-48,-117,107
14,-117,-131,51,73,-124,-53,156,141,-43,-112,107
19,-107,-126,43,73,-117,-53,161,146,-34,-112,92
19,-102,-122,41,70,-112,-58,170,156,-24,-107,92
24,-102,-126,39,75,-114,-68,180,170,-14,-107,82
29,-102,-131,36,80,-117,-73,185,185,0,-97,82
19,-107,-126,43,73,-117,-68,180,195,-9,-97,82
19,-107,-126,43,73,-117,-73,190,204,-4,-92,82
24,-102,-126,39,75,-114,-87,190,214,4,-82,78
24,-97,-122,36,73,-109,-92,195,224,9,-78,78
19,-87,-107,34,63,-97,-107,209,239,29,-63,78
19,-82,-102,31,61,-92,-107,219,248,43,-58,82
19,-82,-102,31,61,-92,-112,224,263,53,-53,82
19,-82,-102,31,61,-92,-126,224,273,68,-48,82
19,-82,-102,31,61,-92,-126,219,273,68,-53,73
19,-87,-107,34,63,-97,-136,224,278,78,-53,73
24,-87,-112,31,68,-100,-136,229,283,87,-53,73
24,-87,-112,31,68,-100,-141,229,292,97,-43,73
14,-97,-112,41,63,-104,-146,224,302,107,-39,73
14,-87,-102,36,58,-95,-146,224,307,107,-39,73
24,-82,-107,29,65,-95,-151,229,312,107,-34,73
24,-82,-107,29,65,-95,-156,229,317,117,-34,73
24,-78,-102,26,63,-90,-151,229,326,117,-34,73
19,-73,-92,26,56,-82,-156,224,326,117,-34,73
19,-73,-92,26,56,-82,-156,224,331,126,-24,68
19,-73,-92,26,56,-82,-161,224,336,131,-19,63
24,-63,-87,19,56,-75,-161,229,341,151,-14,73
24,-58,-82,17,53,-70,-156,224,346,161,0,73
24,-58,-82,17,53,-70,-151,224,346,165,4,73
24,-53,-78,14,51,-65,-146,219,346,175,14,73
34,-43,-78,4,56,-61,-136,224,346,190,24,73
34,-39,-73,2,53,-56,-122,219,346,195,34,73
34,-39,-73,2,53,-56,-102,209,346,195,48,78
34,-34,-68,0,51,-51,-87,204,341,195,58,78
29,-34,-63,2,46,-48,-78,195,326,200,78,78
29,-34,-63,2,46,-48,-68,190,322,204,87,78
29,-29,-58,0,43,-43,-53,185,317,204,102,78
29,-29,-58,0,43,-43,-43,180,307,204,112,78
39,-24,-63,-7,51,-43,-24,175,302,214,122,82
39,-24,-63,-7,51,-43,-9,165,292,214,131,92
39,-19,-58,-9,48,-39,4,161,287,209,141,107
39,-14,-53,-12,46,-34,19,161,283,204,141,112
39,-14,-53,-12,46,-34,34,156,263,195,146,126
39,-19,-58,-9,48,-39,48,151,253,185,146,131
39,-24,-63,-7,51,-43,63,141,244,180,146,131
39,-29,-68,-4,53,-48,78,136,234,180,131,136
39,-19,-58,-9,48,-39,87,131,219,170,122,161
43,-9,-53,-17,48,-31,97,122,209,161,122,161
43,0,-43,-21,43,-21,117,112,195,151,112,161
43,4,-39,-24,41,-17,131,102,180,136,107,161
43,14,-29,-29,36,-7,151,102,165,117,117,165
43,19,-24,-31,34,-2,165,87,156,97,112,170
43,19,-24,-31,34,-2,175,87,146,87,102,175
43,24,-19,-34,31,2,185,82,131,78,92,185
34,14,-19,-24,26,-2,185,68,117,48,92,185
34,14,-19,-24,26,-2,180,58,102,39,92,195
29,14,-14,-21,21,0,175,48,87,24,87,200
29,14,-14,-21,21,0,170,39,82,9,78,200
29,19,-9,-24,19,4,180,29,73,0,87,214
29,24,-4,-26,17,9,180,29,68,-14,87,224
29,29,0,-29,14,14,190,19,58,-19,92,229
34,34,0,-34,17,17,190,9,48,-39,92,239
43,34,-9,-39,26,12,185,0,43,-48,87,253
34,34,0,-34,17,17,180,0,39,-58,92,258
34,34,0,-34,17,17,170,-4,34,-63,92,263
34,29,-4,-31,19,12,165,-9,29,-68,87,268
24,24,0,-24,12,12,161,0,29,-73,78,273
24,24,0,-24,12,12,156,-9,19,-78,78,278
24,24,0,-24,12,12,151,-14,14,-82,73,278
24,24,0,-24,12,12,151,-19,9,-82,73,273
24,24,0,-24,12,12,136,-29,14,-87,73,273
24,24,0,-24,12,12,126,-29,9,-92,73,273
24,24,0,-24,12,12,122,-34,0,-97,63,268
24,24,0,-24,12,12,117,-39,-4,-102,58,263
29,34,4,-31,12,19,102,-43,-9,-107,53,253
29,34,4,-31,12,19,97,-43,-14,-107,48,248
29,34,4,-31,12,19,92,-48,-14,-107,39,244
29,34,4,-31,12,19,87,-48,-24,-112,19,244
19,29,9,-24,4,19,87,-58,-34,-117,14,239
19,24,4,-21,7,14,87,-63,-34,-117,0,234
19,19,0,-19,9,9,87,-68,-43,-117,-9,219
14,14,0,-14,7,7,87,-73,-48,-122,-19,204
4,4,0,-4,2,2,87,-87,-58,-126,-19,195
4,4,0,-4,2,2,82,-92,-68,-126,-34,185
4,4,0,-4,2,2,82,-97,-73,-131,-43,180
4,4,0,-4,2,2,82,-102,-78,-136,-63,170
9,9,0,-9,4,4,73,-102,-87,-141,-78,161
9,9,0,-9,4,4,68,-107,-92,-146,-107,156
9,9,0,-9,4,4,68,-107,-97,-151,-122,156
14,9,-4,-12,9,2,68,-102,-97,-156,-136,156
4,9,4,-7,0,7,78,-87,-87,-170,-156,156
4,4,0,-4,2,2,82,-87,-92,-180,-170,156
0,4,4,-2,-2,4,82,-87,-102,-185,-175,156
0,4,4,-2,-2,4,82,-82,-102,-190,-180,156
9,4,-4,-7,7,0,97,-68,-112,-195,-195,156
