I,II,III,aVR,aVL,aVF,V1,V2,V3,V4,V5,V6
-19,-58,-39,38,10,-48,-29,-48,-68,-39,-29,-48
-16,-59,-43,37,13,-51,-29,-47,-65,-38,-30,-47
-14,-62,-48,38,17,-55,-29,-47,-63,-38,-33,-47
-11,-66,-55,38,22,-60,-28,-48,-60,-39,-37,-48
-9,-67,-58,38,24,-62,-28,-48,-58,-39,-38,-48
-8,-68,-60,38,26,-64,-29,-47,-57,-38,-39,-47
-8,-68,-60,38,26,-64,-29,-47,-57,-38,-38,-47
-9,-67,-58,38,24,-62,-28,-48,-58,-39,-39,-48
-9,-67,-58,38,24,-62,-28,-48,-58,-39,-39,-48
-8,-67,-59,37,25,-63,-29,-45,-55,-36,-36,-47
-8,-67,-59,37,25,-63,-29,-43,-53,-34,-34,-47
-10,-68,-58,39,24,-63,-28,-43,-53,-33,-32,-48
-9,-68,-59,38,25,-63,-28,-39,-48,-29,-29,-48
-4,-66,-62,35,29,-64,-29,-21,-29,-15,-22,-46
0,-67,-67,33,33,-67,-29,0,-9,-4,-18,-47
0,-72,-72,36,36,-72,-28,18,3,-1,-22,-52
8,-68,-76,30,42,-72,-28,38,28,18,-9,-48
37,-46,-83,4,60,-64,-33,67,84,81,39,-25
72,-19,-91,-26,81,-55,-38,96,150,160,101,3
102,3,-99,-52,100,-48,-43,122,208,228,154,27
135,28,-107,-81,121,-39,-47,155,272,301,213,57
181,65,-116,-123,148,-25,-54,209,360,399,297,109
233,106,-127,-169,180,-10,-62,277,467,516,399,174
284,147,-137,-215,210,5,-71,349,579,637,503,239
330,184,-146,-257,238,19,-77,399,662,731,584,291
372,220,-152,-296,262,34,-82,411,692,777,629,325
418,257,-161,-337,289,48,-86,413,706,809,662,350
471,296,-175,-383,323,60,-92,432,741,860,709,380
506,330,-176,-418,341,77,-96,429,751,888,740,408
503,356,-147,-429,325,104,-99,370,692,851,732,430
488,379,-109,-433,298,135,-101,292,610,795,712,452
485,408,-77,-446,281,165,-104,234,550,760,707,480
468,428,-40,-448,254,194,-106,156,468,702,683,496
405,430,25,-417,190,227,-107,18,319,574,601,486
322,428,106,-375,108,267,-107,-154,132,410,492,468
247,437,190,-342,28,313,-105,-325,-47,254,394,459
175,429,254,-302,-39,341,-106,-467,-202,117,302,439
95,380,285,-237,-95,332,-113,-566,-331,-5,205,382
4,312,308,-158,-152,310,-121,-657,-461,-134,97,307
-91,253,344,-81,-217,298,-127,-768,-612,-279,-16,236
-164,195,359,-15,-261,277,-135,-848,-721,-389,-106,175
-192,127,319,32,-255,223,-151,-850,-735,-420,-149,122
-203,48,251,77,-227,149,-174,-824,-712,-418,-174,68
-228,-34,194,131,-211,80,-200,-820,-713,-437,-214,9
-243,-96,147,169,-195,25,-213,-800,-702,-448,-243,-38
-227,-119,108,173,-167,-5,-204,-719,-635,-417,-237,-60
-195,-125,70,160,-132,-27,-185,-606,-536,-366,-214,-72
-168,-141,27,154,-97,-57,-171,-498,-444,-321,-198,-91
-146,-155,-9,150,-68,-82,-156,-409,-370,-283,-185,-106
-123,-154,-31,138,-46,-92,-130,-340,-314,-245,-165,-106
-97,-146,-49,121,-24,-97,-97,-273,-263,-204,-141,-97
-68,-140,-72,104,2,-106,-64,-198,-204,-159,-115,-90
-48,-136,-88,92,20,-112,-39,-136,-156,-126,-97,-87
-44,-131,-87,87,21,-109,-26,-109,-135,-118,-91,-86
-47,-126,-79,86,16,-102,-19,-97,-126,-121,-92,-86
-48,-121,-73,84,12,-97,-9,-78,-111,-121,-89,-87
-47,-117,-70,82,11,-93,0,-58,-97,-117,-87,-87
-49,-114,-65,81,8,-89,5,-46,-90,-110,-86,-86
-52,-112,-60,82,4,-86,8,-39,-87,-102,-86,-86
-55,-109,-54,82,0,-81,14,-28,-82,-93,-87,-86
-57,-107,-50,82,-3,-78,18,-19,-78,-87,-87,-86
-58,-106,-48,82,-5,-77,21,-17,-77,-85,-86,-87
-58,-106,-48,82,-5,-77,23,-18,-77,-86,-86,-87
-57,-107,-50,82,-3,-78,26,-19,-78,-87,-87,-86
-57,-107,-50,82,-3,-78,28,-19,-78,-87,-87,-86
-61,-106,-45,83,-8,-75,29,-18,-77,-86,-86,-88
-67,-106,-39,86,-14,-72,29,-18,-77,-86,-86,-91
-73,-107,-34,90,-19,-70,28,-19,-78,-87,-87,-94
-77,-107,-30,92,-23,-68,29,-19,-78,-87,-87,-96
-78,-106,-28,92,-25,-67,28,-18,-76,-87,-84,-97
-78,-106,-28,92,-25,-67,28,-18,-73,-87,-82,-97
-78,-107,-29,92,-24,-68,29,-19,-70,-86,-79,-96
-78,-107,-29,92,-24,-68,29,-19,-68,-86,-78,-96
-76,-106,-30,91,-23,-68,24,-18,-67,-87,-77,-97
-73,-106,-33,89,-20,-69,19,-18,-67,-87,-77,-97
-70,-107,-37,88,-16,-72,13,-19,-68,-86,-78,-96
-68,-107,-39,87,-14,-73,9,-19,-68,-86,-78,-96
-67,-106,-39,86,-14,-72,6,-18,-68,-88,-77,-97
-67,-106,-39,86,-14,-72,4,-18,-68,-91,-77,-97
-69,-107,-38,88,-15,-72,1,-19,-67,-94,-78,-96
-68,-107,-39,87,-14,-73,0,-19,-67,-96,-78,-96
-62,-106,-44,84,-9,-75,0,-18,-69,-97,-78,-97
-53,-106,-53,79,0,-79,0,-18,-72,-97,-78,-97
-43,-107,-64,75,10,-85,0,-19,-75,-96,-77,-96
-39,-107,-68,73,14,-87,0,-19,-77,-96,-77,-96
-41,-106,-65,73,12,-85,1,-14,-78,-97,-78,-97
-47,-106,-59,76,6,-82,3,-9,-78,-97,-78,-97
-54,-107,-53,80,0,-80,6,-3,-77,-96,-77,-96
-57,-107,-50,82,-3,-78,8,0,-77,-96,-77,-96
-58,-106,-48,82,-5,-77,9,0,-78,-97,-79,-97
-58,-106,-48,82,-5,-77,9,0,-78,-97,-81,-97
-58,-107,-49,82,-4,-78,8,0,-77,-96,-84,-96
-58,-107,-49,82,-4,-78,8,0,-77,-96,-86,-96
-55,-106,-51,80,-2,-78,9,0,-79,-97,-87,-97
-53,-106,-53,79,0,-79,9,0,-81,-97,-87,-97
-50,-107,-57,78,3,-82,8,0,-84,-96,-86,-96
-48,-107,-59,77,5,-83,8,0,-86,-96,-86,-96
-45,-105,-60,75,7,-82,9,0,-87,-97,-87,-97
-43,-102,-59,72,8,-80,9,0,-87,-97,-87,-97
-40,-99,-59,69,9,-79,8,0,-86,-96,-86,-96
-39,-97,-58,68,9,-77,8,0,-86,-96,-86,-96
-38,-96,-58,67,10,-77,9,0,-87,-97,-87,-97
-38,-96,-58,67,10,-77,9,0,-87,-97,-87,-97
-39,-97,-58,68,9,-77,8,0,-86,-96,-86,-96
-39,-97,-58,68,9,-77,8,0,-86,-96,-86,-96
-39,-96,-57,67,9,-76,9,0,-87,-97,-88,-97
-39,-96,-57,67,9,-76,9,0,-87,-97,-91,-97
-38,-97,-59,67,10,-78,8,0,-86,-96,-94,-96
-38,-97,-59,67,10,-78,8,0,-86,-96,-96,-96
-40,-97,-57,68,8,-77,11,1,-87,-97,-97,-97
-42,-97,-55,69,6,-76,13,3,-87,-97,-97,-97
-45,-96,-51,70,3,-73,16,6,-86,-96,-96,-96
-47,-96,-49,71,1,-72,18,8,-86,-96,-96,-96
-48,-97,-49,72,0,-73,21,9,-86,-97,-97,-97
-48,-97,-49,72,0,-73,23,9,-86,-97,-97,-97
-48,-96,-48,72,0,-72,26,8,-87,-96,-96,-96
-48,-96,-48,72,0,-72,28,8,-87,-97,-96,-96
-45,-98,-53,71,4,-75,29,10,-86,-96,-97,-97
-43,-101,-58,72,7,-79,29,13,-86,-96,-97,-97
-40,-104,-64,72,12,-84,28,16,-87,-97,-96,-96
-39,-106,-67,72,14,-86,28,18,-87,-97,-96,-96
-38,-107,-69,72,15,-88,29,19,-86,-96,-97,-97
-38,-107,-69,72,15,-88,29,19,-86,-96,-97,-97
-39,-106,-67,72,14,-86,28,18,-87,-97,-96,-96
-39,-106,-67,72,14,-86,28,18,-87,-97,-96,-96
-39,-107,-68,73,14,-87,31,21,-86,-96,-97,-98
-39,-107,-68,73,14,-87,33,23,-86,-96,-97,-101
-38,-107,-69,72,15,-88,36,26,-87,-97,-96,-104
-38,-107,-69,72,15,-88,38,28,-87,-97,-96,-106
-40,-106,-66,73,13,-86,40,31,-84,-96,-97,-107
-42,-106,-64,74,11,-85,42,33,-82,-96,-97,-107
-45,-107,-62,76,8,-84,45,36,-79,-97,-96,-106
-47,-107,-60,77,6,-83,47,38,-78,-97,-96,-106
-48,-105,-57,76,4,-81,48,39,-77,-96,-97,-107
-47,-102,-55,74,4,-78,48,39,-77,-96,-97,-107
-48,-99,-51,73,1,-75,47,38,-78,-97,-96,-106
-48,-97,-49,72,0,-73,47,38,-78,-97,-96,-106
-44,-96,-52,70,4,-74,48,39,-77,-96,-97,-107
-39,-96,-57,67,9,-76,48,39,-77,-96,-97,-107
-33,-97,-64,65,15,-80,47,38,-78,-97,-96,-106
-29,-97,-68,63,19,-82,47,38,-78,-97,-96,-106
-28,-95,-67,61,19,-81,48,40,-75,-96,-97,-107
-28,-92,-64,60,18,-78,48,42,-73,-96,-97,-107
-29,-89,-60,59,15,-74,47,45,-70,-97,-96,-107
-29,-87,-58,58,14,-72,47,47,-68,-97,-96,-107
-28,-86,-58,57,15,-72,48,48,-65,-96,-97,-106
-28,-86,-58,57,15,-72,48,48,-63,-96,-97,-106
-28,-87,-59,57,15,-73,47,47,-60,-97,-96,-107
-28,-86,-58,57,15,-72,47,47,-58,-97,-96,-107
-29,-87,-58,58,14,-72,48,48,-57,-96,-98,-106
-29,-87,-58,58,14,-72,48,48,-57,-96,-101,-106
-28,-86,-58,57,15,-72,47,47,-58,-97,-104,-107
-28,-86,-58,57,15,-72,47,47,-58,-97,-106,-107
-30,-90,-60,60,15,-75,48,48,-57,-94,-107,-106
-33,-96,-63,64,15,-79,48,48,-57,-92,-107,-106
-36,-103,-67,69,15,-85,47,47,-58,-89,-107,-107
-38,-107,-69,72,15,-88,47,47,-58,-87,-107,-107
-39,-103,-64,71,12,-83,48,51,-55,-84,-105,-105
-39,-97,-58,68,9,-77,48,57,-53,-82,-102,-102
-39,-91,-52,65,6,-71,47,63,-50,-79,-99,-99
-39,-87,-48,63,4,-67,47,67,-48,-78,-97,-97
-37,-82,-45,59,4,-63,48,68,-45,-77,-96,-96
-34,-78,-44,56,5,-61,48,68,-43,-77,-96,-96
-31,-72,-41,51,5,-56,47,67,-41,-78,-97,-97
-29,-68,-39,48,5,-53,47,67,-39,-78,-97,-97
-28,-67,-39,47,5,-53,48,69,-36,-76,-96,-93
-28,-67,-39,47,5,-53,48,72,-34,-73,-96,-87
-29,-68,-39,48,5,-53,47,75,-31,-70,-97,-81
-29,-68,-39,48,5,-53,47,77,-29,-68,-97,-78
-28,-66,-38,47,5,-52,48,78,-28,-67,-93,-77
-28,-63,-35,45,3,-49,48,78,-28,-67,-87,-77
-29,-60,-31,44,1,-45,47,77,-29,-68,-81,-78
-29,-58,-29,43,0,-43,47,77,-29,-68,-78,-78
-28,-57,-29,42,0,-43,49,78,-28,-67,-77,-76
-28,-57,-29,42,0,-43,52,78,-28,-67,-77,-73
-30,-59,-29,44,0,-44,55,77,-29,-68,-78,-70
-29,-58,-29,43,0,-43,57,77,-29,-68,-78,-68
-23,-52,-29,37,3,-40,58,78,-28,-67,-76,-67
-14,-43,-29,28,7,-36,58,78,-28,-67,-73,-67
-5,-35,-30,20,12,-32,57,77,-29,-68,-70,-68
0,-29,-29,14,14,-29,57,77,-29,-68,-68,-68
0,-25,-25,12,12,-25,58,78,-26,-65,-67,-67
0,-24,-24,12,12,-24,58,78,-24,-63,-67,-67
0,-21,-21,10,10,-21,57,77,-21,-60,-68,-68
0,-19,-19,9,9,-19,57,77,-19,-58,-68,-68
-5,-16,-11,10,3,-13,59,78,-14,-53,-64,-64
-13,-14,-1,13,-6,-7,62,78,-9,-48,-58,-58
-22,-11,11,16,-16,0,65,77,-3,-43,-52,-52
-28,-9,19,18,-23,5,67,77,0,-39,-48,-48
-30,-4,26,17,-28,11,70,78,0,-36,-46,-45
-29,0,29,14,-29,14,72,78,0,-34,-47,-43
-28,4,32,12,-30,18,75,77,0,-31,-49,-41
-28,8,36,10,-32,22,77,77,0,-29,-48,-39
-30,13,43,8,-36,28,78,79,1,-26,-42,-34
-33,18,51,7,-42,34,78,81,3,-24,-34,-29
-36,24,60,6,-48,42,77,84,6,-22,-25,-24
-38,28,66,5,-52,47,77,86,8,-19,-19,-19
-39,32,71,3,-55,51,78,87,13,-14,-15,-14
-39,33,72,3,-55,52,78,86,18,-9,-14,-9
-38,35,73,1,-55,54,77,87,24,-4,-12,-4
-38,38,76,0,-57,57,77,87,28,0,-9,0
-38,46,84,-4,-61,65,77,84,31,4,-3,4
-38,57,95,-9,-66,76,77,82,33,8,3,8
-39,68,107,-14,-73,87,78,79,36,14,11,13
-39,77,116,-19,-77,96,78,78,38,18,18,18
-37,83,120,-23,-78,101,77,75,40,21,24,23
-34,86,120,-26,-77,103,77,73,42,23,28,28
-31,91,122,-30,-76,106,78,70,45,25,33,33
-29,96,125,-33,-77,110,78,68,47,28,38,38
-28,103,131,-37,-79,117,76,65,50,34,43,45
-28,111,139,-41,-83,125,73,63,52,42,47,52
-29,119,148,-45,-88,133,70,60,55,50,51,60
-29,125,154,-48,-91,139,68,58,57,57,57,67
-26,131,157,-52,-91,144,67,55,62,63,66,74
-24,135,159,-55,-91,147,67,53,67,67,77,81
-21,140,161,-59,-91,150,68,50,73,72,88,89
-19,145,164,-63,-91,154,68,48,77,77,96,96
-16,152,168,-68,-92,160,66,44,79,84,102,104
-14,160,174,-73,-94,167,63,39,78,91,106,111
-11,168,179,-78,-95,173,60,33,76,99,111,119
-9,174,183,-82,-96,178,58,29,77,106,116,125
-8,179,187,-85,-97,183,57,28,83,114,123,130
-8,184,192,-88,-100,188,57,28,91,121,130,135
-9,190,199,-90,-104,194,58,29,100,129,138,141
-9,194,203,-92,-106,198,58,29,106,135,145,145
-5,197,202,-96,-103,199,54,29,110,141,151,148
0,199,199,-99,-99,199,48,29,111,145,155,150
4,201,197,-102,-96,199,42,28,113,150,159,153
8,203,195,-105,-93,199,39,28,116,155,164,155
11,206,195,-108,-92,200,38,30,122,162,171,159
13,208,195,-110,-91,201,38,33,130,169,179,164
15,211,196,-113,-90,203,39,36,138,177,188,170
18,213,195,-115,-88,204,39,38,145,184,194,174
23,216,193,-119,-85,204,37,40,151,190,198,177
28,218,190,-123,-81,204,34,42,155,194,199,179
33,221,188,-127,-77,204,31,45,160,199,202,182
38,223,185,-130,-73,204,29,47,164,203,203,184
43,224,181,-133,-69,202,28,48,167,206,204,185
47,224,177,-135,-65,200,28,48,169,208,204,185
53,224,171,-138,-59,197,29,46,171,210,203,185
57,224,167,-140,-55,195,29,47,174,213,203,185
60,222,162,-141,-51,192,27,53,181,218,205,183
62,219,157,-140,-47,188,24,62,189,223,208,180
64,216,152,-140,-44,184,21,70,197,229,211,177
67,214,147,-140,-40,180,19,77,203,233,213,175
72,211,139,-141,-33,175,18,82,207,234,214,172
77,209,132,-143,-27,170,18,86,208,234,214,170
82,206,124,-144,-21,165,19,91,211,233,214,167
86,204,118,-145,-16,161,19,96,213,233,214,165
89,202,113,-145,-12,157,18,101,216,234,212,162
91,200,109,-145,-9,154,18,106,218,234,209,161
94,197,103,-145,-4,150,19,111,221,234,206,159
96,195,99,-145,-1,147,19,116,223,234,204,156
97,192,95,-144,1,143,18,121,224,233,202,151
97,190,93,-143,2,141,18,125,224,233,200,146
96,188,92,-142,2,140,19,131,223,234,198,141
96,185,89,-140,3,137,19,135,224,234,195,136
100,178,78,-139,11,128,18,138,223,230,190,129
106,170,64,-138,21,117,18,140,223,224,185,122
112,163,51,-137,30,107,19,143,224,219,180,114
116,156,40,-136,38,98,19,145,224,214,175,107
117,149,32,-133,42,90,18,148,220,209,168,103
117,141,24,-129,46,82,18,150,214,204,161,102
116,133,17,-124,49,75,19,153,208,200,153,100
116,126,10,-121,53,68,19,155,204,195,146,97
116,121,5,-118,55,63,18,156,199,188,140,90
116,117,1,-116,57,59,18,156,195,180,136,82
117,112,-5,-114,61,53,19,155,190,172,131,74
117,107,-10,-112,63,48,19,156,185,165,126,68
114,100,-14,-107,64,43,18,155,182,160,121,63
112,92,-20,-102,66,36,18,155,180,156,117,58
110,84,-26,-97,68,29,19,156,178,151,112,53
107,78,-29,-92,68,24,19,156,175,146,107,48
101,73,-28,-87,64,22,18,152,170,139,102,44
92,68,-24,-80,58,22,18,146,165,131,97,43
83,63,-20,-73,51,21,19,141,161,123,92,41
78,58,-20,-68,49,19,19,136,156,117,87,39
81,53,-28,-67,54,12,18,131,147,111,79,33
91,48,-43,-69,67,2,18,126,136,107,68,24
101,43,-58,-72,79,-7,19,121,125,102,56,15
106,39,-67,-72,86,-14,19,117,117,97,48,9
104,38,-66,-71,85,-14,18,114,113,90,46,7
97,38,-59,-67,78,-10,18,112,112,82,47,8
91,39,-52,-65,71,-6,19,110,110,74,49,9
87,39,-48,-63,67,-4,19,107,107,68,48,9
84,35,-49,-59,66,-7,15,102,102,64,44,6
82,29,-53,-55,67,-12,9,97,97,63,39,4
80,23,-57,-51,68,-17,3,92,92,61,33,1
78,19,-59,-48,68,-20,0,87,87,58,29,0
75,16,-59,-45,67,-21,0,82,82,53,26,-1
73,14,-59,-43,66,-22,0,78,78,48,24,-3
70,11,-59,-40,64,-24,0,73,73,43,21,-6
68,9,-59,-38,63,-25,0,68,68,39,19,-8
67,6,-61,-36,64,-27,0,63,63,36,16,-11
67,4,-63,-35,65,-29,0,58,58,34,14,-13
68,1,-67,-34,67,-33,0,52,52,31,11,-16
68,0,-68,-34,68,-34,0,48,48,29,9,-18
64,-1,-65,-31,64,-33,0,45,45,26,8,-19
58,-3,-61,-27,59,-32,0,43,43,24,8,-19
52,-6,-58,-23,55,-32,0,41,41,21,9,-18
48,-8,-56,-20,52,-32,0,39,39,19,9,-18
47,-9,-56,-19,51,-32,0,36,36,18,6,-19
47,-9,-56,-19,51,-32,0,34,34,18,4,-19
47,-8,-55,-19,51,-31,0,31,31,19,1,-18
47,-8,-55,-19,51,-31,0,29,29,19,0,-18
51,-9,-60,-21,55,-34,-1,26,24,15,-1,-20
57,-9,-66,-24,61,-37,-3,24,19,9,-3,-23
63,-8,-71,-27,67,-39,-6,21,13,3,-6,-26
67,-8,-75,-29,71,-41,-8,19,9,0,-8,-28
68,-9,-77,-29,72,-43,-9,16,8,0,-9,-29
68,-9,-77,-29,72,-43,-9,14,8,0,-9,-29
67,-8,-75,-29,71,-41,-8,11,9,0,-8,-28
67,-8,-75,-29,71,-41,-8,9,9,0,-8,-28
67,-9,-76,-29,71,-42,-9,8,5,0,-10,-29
67,-9,-76,-29,71,-42,-9,8,0,0,-13,-29
68,-8,-76,-30,72,-42,-8,9,-5,0,-16,-28
68,-8,-76,-30,72,-42,-8,9,-8,0,-18,-28
64,-10,-74,-27,69,-42,-9,5,-9,-1,-19,-29
58,-13,-71,-22,64,-42,-9,0,-9,-3,-19,-29
52,-16,-68,-18,60,-42,-8,-5,-8,-6,-18,-28
48,-18,-66,-15,57,-42,-8,-8,-8,-8,-18,-28
47,-19,-66,-14,56,-42,-9,-9,-9,-9,-19,-29
47,-19,-66,-14,56,-42,-9,-9,-9,-9,-19,-29
48,-18,-66,-15,57,-42,-8,-8,-8,-8,-18,-28
48,-18,-66,-15,57,-42,-8,-8,-8,-8,-18,-28
48,-20,-68,-14,58,-44,-9,-9,-9,-9,-19,-30
48,-23,-71,-12,59,-47,-9,-9,-9,-9,-19,-33
47,-26,-73,-10,60,-49,-9,-8,-8,-8,-18,-36
47,-28,-75,-9,61,-51,-9,-8,-8,-8,-18,-38
49,-29,-78,-10,63,-53,-8,-10,-10,-10,-19,-39
52,-29,-81,-11,66,-55,-8,-13,-13,-13,-19,-39
55,-28,-83,-13,69,-55,-9,-16,-16,-16,-18,-38
57,-28,-85,-14,71,-56,-9,-18,-18,-18,-18,-38
58,-29,-87,-14,72,-58,-8,-19,-19,-19,-20,-39
58,-29,-87,-14,72,-58,-8,-19,-19,-19,-23,-39
58,-29,-87,-14,72,-58,-9,-18,-18,-18,-26,-38
58,-29,-87,-14,72,-58,-9,-18,-18,-18,-28,-38
56,-28,-84,-14,70,-56,-8,-20,-20,-19,-29,-39
53,-28,-81,-12,67,-54,-8,-23,-23,-19,-29,-39
50,-29,-79,-10,64,-54,-9,-26,-26,-18,-29,-38
48,-29,-77,-9,62,-53,-9,-28,-28,-18,-29,-38
47,-27,-74,-10,60,-50,-8,-29,-29,-19,-27,-38
47,-24,-71,-11,59,-47,-8,-29,-29,-19,-24,-38
48,-21,-69,-13,58,-45,-9,-29,-28,-18,-21,-39
48,-19,-67,-14,57,-43,-9,-29,-28,-18,-19,-39
47,-18,-65,-14,56,-41,-7,-27,-29,-19,-18,-38
47,-18,-65,-14,56,-41,-4,-24,-29,-19,-18,-38
48,-18,-66,-15,57,-42,-1,-21,-28,-18,-18,-39
48,-18,-66,-15,57,-42,0,-19,-28,-18,-18,-39
47,-20,-67,-13,57,-43,0,-18,-30,-19,-20,-38
47,-23,-70,-12,58,-46,0,-18,-33,-19,-23,-38
48,-26,-74,-11,61,-50,0,-18,-36,-18,-26,-39
48,-28,-76,-10,62,-52,0,-18,-38,-18,-28,-39
46,-29,-75,-8,60,-52,-1,-20,-39,-19,-29,-37
43,-29,-72,-7,57,-50,-3,-23,-39,-19,-29,-34
40,-29,-69,-5,54,-49,-6,-26,-38,-18,-29,-31
39,-29,-68,-5,53,-48,-8,-28,-38,-18,-29,-29
38,-27,-65,-5,51,-46,-9,-29,-39,-19,-27,-28
38,-24,-62,-7,50,-43,-9,-29,-39,-19,-24,-28
39,-21,-60,-9,49,-40,-8,-28,-38,-18,-21,-29
39,-19,-58,-10,48,-38,-8,-28,-38,-18,-19,-29
38,-18,-56,-10,47,-37,-9,-29,-39,-20,-18,-28
38,-18,-56,-10,47,-37,-9,-29,-39,-23,-18,-28
38,-18,-56,-10,47,-37,-8,-28,-39,-26,-19,-28
38,-18,-56,-10,47,-37,-8,-28,-39,-28,-19,-28
39,-20,-59,-9,49,-39,-9,-29,-38,-29,-18,-29
39,-23,-62,-8,50,-42,-9,-29,-38,-29,-18,-29
38,-26,-64,-6,51,-45,-8,-28,-39,-28,-19,-28
38,-28,-66,-5,52,-47,-8,-28,-39,-28,-19,-28
40,-29,-69,-5,54,-49,-9,-29,-38,-29,-18,-30
42,-29,-71,-6,56,-50,-9,-29,-38,-29,-18,-33
45,-28,-73,-8,59,-50,-8,-28,-39,-28,-19,-36
47,-28,-75,-9,61,-51,-8,-28,-39,-28,-19,-38
48,-29,-77,-9,62,-53,-9,-29,-37,-29,-18,-39
48,-29,-77,-9,62,-53,-9,-29,-34,-29,-18,-39
47,-29,-76,-9,61,-52,-8,-28,-31,-28,-19,-39
47,-29,-76,-9,61,-52,-8,-28,-29,-28,-19,-39
48,-28,-76,-10,62,-52,-9,-29,-28,-29,-18,-37
48,-28,-76,-10,62,-52,-9,-29,-28,-29,-18,-34
47,-29,-76,-9,61,-52,-8,-28,-28,-28,-19,-31
47,-29,-76,-9,61,-52,-8,-28,-28,-28,-19,-29
47,-27,-74,-10,60,-50,-9,-29,-30,-29,-18,-28
47,-24,-71,-11,59,-47,-9,-29,-33,-29,-18,-28
48,-21,-69,-13,58,-45,-8,-28,-36,-28,-19,-29
48,-19,-67,-14,57,-43,-8,-28,-38,-28,-19,-29
47,-18,-65,-14,56,-41,-9,-29,-39,-29,-18,-28
47,-18,-65,-14,56,-41,-9,-29,-39,-29,-18,-28
48,-18,-66,-15,57,-42,-8,-28,-38,-28,-19,-29
48,-18,-66,-15,57,-42,-8,-28,-38,-28,-19,-29
46,-20,-66,-13,56,-43,-9,-29,-39,-29,-18,-28
43,-23,-66,-10,54,-44,-9,-29,-39,-29,-18,-28
40,-26,-66,-7,53,-46,-8,-28,-38,-28,-19,-28
39,-28,-67,-5,53,-47,-8,-28,-38,-28,-19,-28
38,-29,-67,-4,52,-48,-9,-29,-39,-29,-18,-29
38,-29,-67,-4,52,-48,-9,-29,-39,-29,-18,-29
39,-28,-67,-5,53,-47,-8,-28,-38,-29,-19,-28
39,-28,-67,-5,53,-47,-8,-28,-38,-29,-19,-28
38,-28,-66,-5,52,-47,-9,-29,-39,-28,-18,-29
38,-28,-66,-5,52,-47,-9,-29,-39,-28,-18,-29
39,-29,-68,-5,53,-48,-8,-28,-39,-29,-19,-28
39,-29,-68,-5,53,-48,-8,-28,-39,-29,-19,-28
38,-27,-65,-5,51,-46,-10,-29,-38,-28,-18,-30
38,-24,-62,-7,50,-43,-13,-28,-38,-28,-18,-33
39,-21,-60,-9,49,-40,-16,-29,-39,-29,-19,-36
39,-19,-58,-10,48,-38,-18,-29,-39,-29,-19,-38
37,-18,-55,-9,46,-36,-19,-28,-38,-28,-18,-39
34,-18,-52,-8,43,-35,-19,-28,-38,-28,-18,-39
31,-18,-49,-6,40,-33,-19,-29,-39,-29,-19,-39
29,-18,-47,-5,38,-32,-19,-29,-39,-29,-19,-39
28,-20,-48,-4,38,-34,-17,-28,-38,-28,-18,-37
28,-23,-51,-2,39,-37,-14,-28,-38,-28,-18,-34
29,-26,-55,-1,42,-40,-11,-29,-39,-29,-19,-31
29,-28,-57,0,43,-42,-9,-29,-39,-29,-19,-29
28,-31,-59,1,43,-45,-8,-28,-37,-28,-18,-28
29,-33,-62,2,45,-47,-8,-28,-34,-28,-18,-28
28,-36,-64,4,46,-50,-9,-29,-31,-29,-19,-29
28,-38,-66,5,47,-52,-9,-29,-29,-29,-19,-29
29,-39,-68,5,48,-53,-8,-28,-28,-28,-18,-28
29,-38,-67,4,48,-52,-8,-28,-28,-28,-18,-28
28,-39,-67,5,47,-53,-9,-29,-29,-29,-19,-29
28,-39,-67,5,47,-53,-9,-29,-29,-29,-19,-29
33,-35,-68,1,50,-51,-8,-28,-28,-28,-18,-28
42,-29,-71,-6,56,-50,-8,-28,-28,-28,-18,-28
51,-23,-74,-14,62,-48,-9,-29,-29,-29,-19,-29
57,-19,-76,-19,66,-47,-9,-29,-29,-29,-19,-29
59,-16,-75,-21,67,-45,-8,-28,-28,-27,-18,-28
58,-14,-72,-22,65,-43,-8,-28,-28,-24,-18,-28
58,-11,-69,-23,63,-40,-9,-29,-29,-21,-19,-29
58,-9,-67,-24,62,-38,-9,-29,-29,-19,-19,-29
56,-8,-64,-24,60,-36,-8,-28,-28,-18,-18,-28
53,-8,-61,-22,57,-34,-8,-28,-28,-18,-18,-28
50,-8,-58,-21,54,-33,-9,-29,-29,-19,-19,-29
48,-8,-56,-20,52,-32,-9,-29,-29,-19,-19,-29
45,-10,-55,-17,50,-32,-8,-28,-28,-18,-18,-28
43,-13,-56,-15,49,-34,-8,-28,-28,-18,-18,-28
40,-16,-56,-12,48,-36,-9,-29,-29,-19,-19,-29
39,-18,-57,-10,48,-37,-9,-29,-29,-19,-19,-29
38,-19,-57,-9,47,-38,-8,-28,-28,-17,-18,-28
38,-19,-57,-9,47,-38,-8,-28,-28,-14,-18,-28
39,-19,-58,-10,48,-38,-9,-29,-29,-11,-19,-29
38,-19,-57,-9,47,-38,-9,-29,-29,-9,-19,-29
39,-17,-56,-11,47,-36,-8,-28,-28,-8,-17,-28
39,-14,-53,-12,46,-33,-8,-28,-28,-8,-14,-28
38,-11,-49,-13,43,-30,-9,-29,-29,-8,-11,-29
38,-9,-47,-14,42,-28,-9,-29,-29,-8,-9,-29
43,-8,-51,-17,47,-29,-8,-28,-28,-10,-8,-28
52,-8,-60,-22,56,-34,-8,-28,-28,-13,-8,-28
61,-8,-69,-26,65,-38,-9,-29,-29,-16,-9,-29
67,-8,-75,-29,71,-41,-9,-29,-29,-18,-9,-29
65,-10,-75,-27,70,-42,-8,-27,-27,-19,-8,-28
58,-13,-71,-22,64,-42,-8,-24,-24,-19,-8,-28
52,-16,-68,-18,60,-42,-9,-21,-21,-18,-9,-29
48,-18,-66,-15,57,-42,-9,-19,-19,-18,-9,-29
44,-19,-63,-12,53,-41,-8,-18,-18,-19,-8,-27
39,-19,-58,-10,48,-38,-8,-18,-18,-19,-8,-24
33,-18,-51,-7,42,-34,-9,-19,-19,-18,-9,-21
29,-18,-47,-5,38,-32,-9,-19,-19,-18,-9,-19
31,-19,-50,-6,40,-34,-8,-18,-18,-19,-8,-18
38,-19,-57,-9,47,-38,-8,-18,-18,-19,-8,-18
44,-18,-62,-13,53,-40,-9,-19,-19,-18,-8,-19
47,-18,-65,-14,56,-41,-9,-19,-19,-18,-8,-19
48,-19,-67,-14,57,-43,-8,-18,-18,-19,-9,-18
48,-19,-67,-14,57,-43,-8,-18,-18,-19,-9,-18
47,-18,-65,-14,56,-41,-9,-19,-19,-18,-8,-19
47,-18,-65,-14,56,-41,-9,-19,-19,-18,-8,-19
48,-18,-66,-15,57,-42,-8,-19,-18,-19,-9,-18
48,-18,-66,-15,57,-42,-9,-19,-18,-19,-9,-18
47,-19,-66,-14,56,-42,-9,-18,-19,-18,-8,-18
47,-19,-66,-14,56,-42,-9,-18,-19,-18,-8,-18
48,-18,-66,-15,57,-42,-9,-19,-19,-19,-9,-19
48,-18,-66,-15,57,-42,-9,-19,-19,-19,-9,-19
47,-19,-66,-14,56,-42,-8,-18,-18,-18,-8,-18
47,-19,-66,-14,56,-42,-8,-18,-18,-18,-8,-18
48,-18,-66,-15,57,-42,-9,-19,-19,-19,-10,-19
48,-18,-66,-15,57,-42,-9,-19,-19,-19,-13,-19
47,-19,-66,-14,56,-42,-8,-18,-18,-18,-16,-18
47,-19,-66,-14,56,-42,-8,-18,-18,-18,-18,-18
48,-17,-65,-15,56,-41,-9,-20,-19,-19,-19,-20
48,-14,-62,-17,55,-38,-9,-23,-19,-19,-19,-23
47,-11,-58,-18,52,-34,-8,-26,-18,-18,-18,-26
47,-9,-56,-19,51,-32,-8,-28,-18,-18,-18,-28
48,-8,-56,-20,52,-32,-9,-29,-19,-19,-19,-31
48,-8,-56,-20,52,-32,-9,-29,-19,-19,-19,-33
47,-8,-55,-19,51,-31,-8,-28,-18,-18,-18,-36
47,-8,-55,-19,51,-31,-8,-28,-18,-18,-18,-38
49,-10,-59,-19,54,-34,-9,-29,-20,-19,-19,-39
52,-13,-65,-19,58,-39,-9,-29,-23,-19,-19,-39
55,-16,-71,-19,63,-43,-8,-28,-26,-18,-18,-39
57,-18,-75,-19,66,-46,-8,-28,-28,-18,-18,-39
58,-19,-77,-19,67,-48,-9,-29,-29,-19,-19,-37
58,-19,-77,-19,67,-48,-9,-29,-29,-19,-19,-34
57,-18,-75,-19,66,-46,-8,-28,-28,-18,-18,-31
57,-18,-75,-19,66,-46,-8,-28,-28,-18,-18,-29
58,-19,-77,-19,67,-48,-9,-29,-29,-19,-19,-28
58,-19,-77,-19,67,-48,-9,-29,-29,-19,-19,-28
57,-18,-75,-19,66,-46,-8,-28,-28,-18,-18,-29
57,-18,-75,-19,66,-46,-8,-28,-28,-18,-18,-29
58,-19,-77,-19,67,-48,-9,-29,-29,-19,-19,-28
58,-19,-77,-19,67,-48,-9,-29,-29,-19,-19,-28
57,-18,-75,-19,66,-46,-8,-28,-28,-18,-18,-29
57,-18,-75,-19,66,-46,-8,-28,-28,-18,-18,-29
58,-19,-77,-19,67,-48,-9,-29,-29,-20,-18,-28
58,-19,-77,-19,67,-48,-9,-29,-29,-23,-18,-28
57,-18,-75,-19,66,-46,-8,-28,-28,-26,-19,-29
57,-18,-75,-19,66,-46,-8,-28,-28,-28,-19,-29
58,-19,-77,-19,67,-48,-9,-29,-30,-29,-18,-28
58,-19,-77,-19,67,-48,-9,-29,-33,-29,-18,-28
57,-18,-75,-19,66,-46,-8,-28,-36,-28,-19,-29
57,-18,-75,-19,66,-46,-8,-28,-38,-28,-19,-29
57,-19,-76,-19,66,-47,-9,-29,-39,-28,-18,-27
57,-19,-76,-19,66,-47,-9,-29,-39,-28,-18,-24
58,-18,-76,-20,67,-47,-8,-28,-39,-29,-19,-21
58,-18,-76,-20,67,-47,-8,-28,-39,-29,-19,-19
57,-19,-76,-19,66,-47,-9,-29,-37,-27,-18,-18
57,-19,-76,-19,66,-47,-9,-29,-34,-24,-18,-18
58,-18,-76,-20,67,-47,-8,-28,-31,-21,-19,-19
58,-18,-76,-20,67,-47,-8,-28,-29,-19,-19,-19
57,-19,-76,-19,66,-47,-9,-29,-28,-18,-18,-18
57,-19,-76,-19,66,-47,-9,-29,-28,-19,-18,-18
58,-18,-76,-20,67,-47,-8,-28,-28,-18,-19,-19
58,-18,-76,-20,67,-47,-8,-28,-28,-18,-19,-19
57,-19,-76,-19,66,-47,-10,-29,-30,-22,-18,-18
57,-19,-76,-19,66,-47,-13,-29,-33,-28,-18,-18
58,-18,-76,-20,67,-47,-16,-28,-36,-35,-19,-19
58,-19,-77,-19,67,-48,-18,-28,-38,-38,-19,-19
57,-18,-75,-19,66,-46,-19,-29,-39,-36,-17,-18
57,-18,-75,-19,66,-46,-19,-29,-39,-29,-14,-18
58,-19,-77,-19,67,-48,-19,-28,-38,-23,-11,-19
58,-19,-77,-19,67,-48,-19,-28,-38,-19,-9,-19
56,-18,-74,-19,65,-46,-17,-29,-39,-18,-8,-18
53,-18,-71,-17,62,-44,-14,-29,-39,-18,-8,-18
50,-19,-69,-15,59,-44,-11,-28,-38,-19,-8,-19
48,-19,-67,-14,57,-43,-9,-28,-38,-19,-8,-19
47,-18,-65,-14,56,-41,-8,-29,-39,-18,-10,-18
47,-18,-65,-14,56,-41,-8,-29,-39,-18,-13,-18
47,-19,-66,-14,56,-42,-9,-28,-38,-18,-16,-19
47,-19,-66,-14,56,-42,-9,-28,-38,-18,-18,-19
49,-18,-67,-15,58,-42,-8,-29,-39,-19,-19,-18
52,-18,-70,-17,61,-44,-8,-29,-39,-19,-19,-18
55,-19,-74,-18,64,-46,-9,-28,-38,-18,-18,-19
57,-19,-76,-19,66,-47,-9,-28,-38,-18,-18,-19
58,-18,-76,-20,67,-47,-8,-29,-39,-20,-19,-18
58,-18,-76,-20,67,-47,-8,-29,-39,-23,-19,-18
57,-19,-76,-19,66,-47,-9,-28,-38,-26,-18,-19
57,-19,-76,-19,66,-47,-9,-28,-38,-28,-18,-19
58,-18,-76,-20,67,-47,-8,-29,-39,-29,-19,-18
58,-18,-76,-20,67,-47,-8,-29,-39,-29,-19,-18
57,-19,-76,-19,66,-47,-9,-26,-36,-26,-19,-19
57,-19,-76,-19,66,-47,-9,-24,-34,-24,-19,-19
58,-18,-76,-20,67,-47,-8,-23,-34,-23,-18,-18
58,-18,-76,-20,67,-47,-8,-23,-34,-24,-18,-18
57,-19,-76,-19,66,-47,-9,-24,-31,-21,-19,-19
57,-19,-76,-19,66,-47,-9,-24,-29,-19,-19,-19
61,-18,-79,-21,70,-48,-8,-24,-30,-18,-18,-18
63,-18,-81,-22,72,-49,-8,-24,-33,-18,-18,-18
57,-19,-76,-19,66,-47,-9,-23,-35,-19,-19,-19
48,-19,-67,-14,57,-43,-9,-23,-34,-19,-19,-19
45,-18,-63,-13,54,-40,-8,-26,-31,-18,-17,-17
47,-18,-65,-14,56,-41,-8,-28,-29,-18,-14,-14
52,-19,-71,-16,61,-45,-9,-29,-28,-19,-11,-11
57,-19,-76,-19,66,-47,-9,-29,-28,-19,-9,-9
60,-16,-76,-22,68,-46,-8,-28,-29,-18,-8,-8
62,-14,-76,-24,69,-45,-8,-28,-29,-18,-8,-8
65,-13,-78,-26,71,-45,-9,-29,-28,-21,-11,-8
67,-13,-80,-27,73,-46,-9,-29,-28,-23,-13,-8
68,-14,-82,-27,75,-48,-8,-28,-31,-24,-14,-10
68,-14,-82,-27,75,-48,-8,-28,-33,-24,-14,-13
68,-14,-82,-27,75,-48,-9,-29,-34,-23,-13,-16
68,-14,-82,-27,75,-48,-9,-29,-34,-23,-13,-18
65,-13,-78,-26,71,-45,-8,-28,-33,-24,-14,-19
63,-13,-76,-25,69,-44,-8,-28,-33,-24,-14,-19
62,-16,-78,-23,70,-47,-9,-29,-34,-24,-14,-18
62,-18,-80,-22,71,-49,-9,-29,-34,-24,-14,-18
63,-19,-82,-22,72,-50,-8,-28,-33,-23,-13,-19
63,-19,-82,-22,72,-50,-8,-28,-33,-23,-13,-19
60,-17,-77,-21,68,-47,-9,-29,-34,-24,-14,-18
58,-14,-72,-22,65,-43,-9,-29,-34,-24,-14,-18
57,-11,-68,-23,62,-39,-8,-29,-33,-21,-11,-21
57,-9,-66,-24,61,-37,-8,-29,-33,-19,-9,-23
60,-8,-68,-26,64,-38,-9,-28,-34,-18,-8,-24
62,-8,-70,-27,66,-39,-9,-28,-34,-18,-8,-24
63,-9,-72,-27,67,-40,-8,-29,-32,-18,-9,-23
63,-9,-72,-27,67,-40,-8,-29,-29,-18,-9,-23
62,-8,-70,-27,66,-39,-9,-28,-26,-20,-8,-23
62,-8,-70,-27,66,-39,-9,-28,-24,-23,-8,-23
63,-8,-71,-27,67,-39,-8,-29,-23,-25,-11,-24
63,-8,-71,-27,67,-39,-8,-29,-23,-24,-13,-24
63,-9,-72,-27,67,-40,-9,-28,-24,-21,-14,-21
63,-9,-72,-27,67,-40,-9,-28,-24,-19,-14,-19
62,-8,-70,-27,66,-39,-8,-29,-22,-18,-13,-18
62,-8,-70,-27,66,-39,-8,-29,-19,-18,-13,-18
63,-9,-72,-27,67,-40,-9,-28,-16,-19,-14,-19
63,-9,-72,-27,67,-40,-9,-28,-14,-19,-14,-19
60,-6,-66,-27,63,-36,-6,-29,-13,-18,-11,-18
58,-4,-62,-27,60,-33,-4,-29,-13,-18,-9,-18
57,-3,-60,-27,58,-31,-3,-26,-14,-19,-8,-19
57,-3,-60,-27,58,-31,-3,-24,-14,-19,-8,-19
58,-4,-62,-27,60,-33,-4,-23,-11,-18,-9,-16
58,-4,-62,-27,60,-33,-4,-23,-9,-18,-9,-14
57,-3,-60,-27,58,-31,-4,-24,-8,-19,-8,-13
57,-3,-60,-27,58,-31,-4,-24,-8,-19,-8,-13
60,-4,-64,-28,62,-34,-3,-23,-10,-18,-9,-13
67,-4,-71,-31,69,-37,-3,-23,-13,-18,-9,-13
76,-3,-79,-36,77,-41,-6,-26,-16,-21,-8,-16
81,-3,-84,-39,82,-43,-8,-28,-18,-23,-8,-18
78,-4,-82,-37,80,-43,-9,-29,-18,-24,-9,-19
69,-4,-73,-32,71,-38,-8,-29,-18,-24,-9,-19
61,-2,-63,-29,62,-32,-10,-28,-21,-23,-8,-18
57,0,-57,-28,57,-28,-13,-28,-23,-23,-8,-18
61,0,-61,-30,61,-30,-15,-28,-24,-24,-8,-18
67,0,-67,-33,67,-33,-14,-28,-24,-24,-8,-18
71,0,-71,-35,71,-35,-11,-29,-23,-23,-9,-19
72,0,-72,-36,72,-36,-9,-29,-23,-23,-9,-19
73,-1,-74,-36,73,-37,-8,-26,-24,-24,-8,-16
72,-3,-75,-34,73,-39,-8,-24,-24,-24,-8,-14
73,-6,-79,-33,76,-42,-9,-23,-23,-23,-9,-13
73,-8,-81,-32,77,-44,-9,-23,-23,-23,-9,-13
69,-9,-78,-30,73,-43,-8,-23,-25,-26,-8,-14
63,-9,-72,-27,67,-40,-8,-23,-28,-28,-8,-14
57,-6,-63,-25,60,-34,-8,-26,-31,-29,-9,-13
53,-4,-57,-24,55,-30,-8,-28,-33,-29,-9,-13
54,-3,-57,-25,55,-30,-9,-29,-34,-28,-8,-14
57,-3,-60,-27,58,-31,-9,-29,-34,-28,-8,-14
58,-3,-61,-27,59,-32,-8,-28,-33,-29,-11,-13
58,-3,-61,-27,59,-32,-8,-28,-33,-29,-13,-13
56,-5,-61,-25,58,-33,-11,-29,-34,-28,-14,-16
53,-8,-61,-22,57,-34,-13,-29,-33,-28,-14,-18
48,-11,-59,-18,53,-35,-15,-29,-34,-29,-11,-19
43,-13,-56,-15,49,-34,-14,-29,-34,-29,-9,-19
41,-14,-55,-13,48,-34,-11,-28,-33,-26,-8,-18
42,-13,-55,-14,48,-34,-9,-28,-33,-24,-8,-18
44,-14,-58,-15,51,-36,-8,-29,-35,-24,-9,-19
47,-14,-61,-16,54,-37,-9,-29,-34,-24,-9,-19
51,-12,-63,-19,57,-37,-8,-27,-28,-20,-6,-18
57,-9,-66,-24,61,-37,-4,-20,-15,-14,-4,-18
63,-8,-71,-27,67,-39,1,-5,0,-8,-3,-21
67,-8,-75,-29,71,-41,8,16,21,2,0,-23
68,-10,-78,-29,73,-44,13,38,45,22,9,-23
67,-9,-76,-29,71,-42,18,64,81,61,34,-15
72,0,-72,-36,72,-36,22,94,135,126,79,3
88,16,-72,-52,80,-28,20,127,200,208,141,34
121,41,-80,-81,100,-19,6,157,267,294,217,73
172,76,-96,-124,134,-10,-11,190,340,387,304,123
236,122,-114,-179,175,4,-23,232,428,492,404,185
303,173,-130,-238,216,21,-28,292,535,608,508,250
361,222,-139,-291,250,41,-29,373,658,730,609,306
416,263,-153,-339,284,55,-28,453,768,837,693,351
476,293,-183,-384,329,55,-30,510,832,906,749,382
523,318,-205,-420,364,56,-33,535,856,942,782,406
534,345,-189,-439,361,78,-34,530,860,961,799,429
530,379,-151,-454,340,114,-38,502,851,970,812,458
540,423,-117,-481,328,153,-48,456,828,970,826,494
546,464,-82,-505,314,191,-57,398,772,935,822,524
524,484,-40,-504,282,222,-56,327,663,842,774,533
479,495,16,-487,231,255,-44,241,529,717,701,530
427,511,84,-469,171,297,-29,133,402,601,629,534
357,521,164,-439,96,342,-15,-7,261,472,544,529
256,511,255,-383,0,383,-8,-187,71,299,423,496
133,478,345,-305,-106,411,-1,-364,-138,103,277,434
10,429,419,-219,-204,424,12,-492,-322,-77,132,348
-87,373,460,-143,-273,416,23,-575,-462,-219,12,262
-139,316,455,-88,-297,385,17,-638,-557,-306,-65,199
-170,249,419,-39,-294,334,2,-683,-613,-355,-115,148
-210,159,369,25,-289,264,-12,-706,-643,-390,-161,89
-245,60,305,92,-275,182,-34,-716,-652,-416,-204,26
-247,-26,221,136,-234,97,-78,-721,-647,-431,-235,-28
-223,-86,137,154,-180,25,-129,-710,-623,-430,-252,-69
-188,-111,77,149,-132,-17,-166,-667,-576,-409,-252,-89
-150,-112,38,131,-94,-37,-176,-588,-507,-371,-237,-96
-115,-107,8,111,-61,-49,-153,-477,-422,-325,-208,-98
-82,-98,-16,90,-33,-57,-116,-360,-333,-270,-170,-93
-53,-85,-32,69,-10,-58,-88,-266,-253,-210,-127,-77
-31,-74,-43,52,6,-58,-66,-197,-187,-156,-90,-59
-20,-69,-49,44,14,-59,-37,-146,-138,-123,-70,-50
-18,-68,-50,43,16,-59,-7,-106,-105,-108,-63,-48
-23,-63,-40,43,8,-51,14,-76,-87,-100,-62,-45
-28,-58,-30,43,1,-44,27,-55,-78,-97,-62,-43
-30,-56,-26,43,-2,-41,32,-43,-71,-94,-63,-42
-29,-57,-28,43,0,-42,33,-35,-64,-92,-63,-43
-28,-60,-32,44,2,-46,35,-24,-55,-88,-59,-42
-28,-62,-34,45,3,-48,38,-10,-44,-82,-53,-42
-30,-63,-33,46,1,-48,43,0,-33,-75,-46,-46
-33,-62,-29,47,-2,-45,47,8,-24,-68,-42,-52
-35,-64,-29,49,-3,-46,50,11,-22,-66,-46,-56
-41,-67,-26,54,-7,-46,52,13,-23,-67,-52,-57
-54,-71,-17,62,-18,-44,57,19,-26,-70,-54,-57
-66,-77,-11,71,-27,-44,62,23,-28,-72,-53,-57
-69,-82,-13,75,-28,-47,64,21,-31,-73,-52,-60
-67,-86,-19,76,-24,-52,63,14,-33,-73,-52,-62
-70,-88,-18,79,-26,-53,61,11,-36,-70,-53,-61
-73,-87,-14,80,-29,-50,58,9,-38,-68,-53,-58
-67,-83,-16,75,-25,-49,55,5,-39,-67,-52,-55
-58,-78,-20,68,-19,-49,53,0,-39,-67,-52,-53
-55,-74,-19,64,-18,-46,51,-2,-38,-68,-53,-50
-53,-73,-20,63,-16,-46,48,-3,-38,-67,-53,-48
-48,-72,-24,60,-12,-48,41,-6,-39,-68,-50,-47
-43,-73,-30,58,-6,-51,34,-8,-39,-68,-48,-47
-41,-72,-31,56,-5,-51,33,-7,-38,-65,-47,-50
-42,-72,-30,57,-6,-51,34,-4,-38,-63,-47,-52
-43,-75,-32,59,-5,-53,32,-3,-39,-62,-47,-53
-43,-77,-34,60,-4,-55,29,-3,-39,-62,-47,-53
-41,-76,-35,58,-3,-55,28,-4,-38,-63,-50,-50
-39,-73,-34,56,-2,-53,28,-4,-38,-63,-52,-48
-38,-70,-32,54,-3,-51,29,-2,-40,-62,-53,-47
-38,-68,-30,53,-4,-49,29,0,-42,-62,-53,-47
-39,-67,-28,53,-5,-47,28,0,-44,-66,-52,-49
-39,-67,-28,53,-5,-47,28,0,-47,-72,-52,-52
-38,-67,-29,52,-4,-48,30,-1,-50,-76,-53,-55
-38,-67,-29,52,-4,-48,33,-3,-52,-77,-53,-57
-39,-69,-30,54,-4,-49,39,-4,-51,-78,-52,-57
-39,-72,-33,55,-3,-52,42,-4,-48,-78,-52,-57
-37,-75,-38,56,0,-56,40,-4,-46,-77,-54,-59
-34,-77,-43,55,4,-60,34,-4,-47,-77,-57,-62
-30,-80,-50,55,10,-65,31,-2,-51,-79,-60,-64
-28,-81,-53,54,12,-67,29,0,-57,-81,-62,-63
-32,-82,-50,57,9,-66,26,0,-61,-84,-65,-60
-38,-82,-44,60,3,-63,24,0,-62,-86,-67,-58
-40,-81,-41,60,0,-61,25,1,-62,-86,-67,-57
-39,-81,-42,60,1,-61,28,3,-62,-86,-67,-57
-39,-82,-43,60,2,-62,29,4,-65,-89,-69,-57
-39,-82,-43,60,2,-62,29,4,-67,-91,-72,-57
-37,-81,-44,59,3,-62,28,2,-68,-90,-73,-60
-38,-81,-43,59,2,-62,28,0,-67,-87,-73,-62
-44,-82,-38,63,-3,-60,29,0,-69,-84,-72,-63
-48,-82,-34,65,-7,-58,29,0,-72,-82,-73,-62
-42,-81,-39,61,-1,-60,28,1,-73,-81,-72,-64
-34,-81,-47,57,6,-64,28,3,-73,-81,-72,-67
-36,-82,-46,59,5,-64,29,4,-72,-81,-75,-68
-42,-82,-40,62,-1,-61,29,4,-72,-81,-77,-68
-41,-81,-40,61,0,-60,28,3,-73,-83,-78,-67
-34,-81,-47,57,6,-64,28,3,-73,-86,-77,-67
-30,-86,-56,58,13,-71,29,4,-72,-91,-79,-68
-28,-91,-63,59,17,-77,29,4,-72,-96,-81,-67
-30,-93,-63,61,16,-78,28,2,-73,-97,-82,-68
-33,-92,-59,62,13,-75,28,0,-73,-97,-82,-68
-38,-91,-53,64,7,-72,31,-2,-72,-96,-81,-67
-42,-91,-49,66,3,-70,33,-4,-72,-96,-82,-67
-44,-92,-48,68,2,-70,34,-2,-73,-97,-81,-70
-43,-91,-48,67,2,-69,34,0,-73,-97,-81,-72
-39,-92,-53,65,7,-72,33,0,-72,-96,-84,-73
-34,-92,-58,63,12,-75,33,0,-72,-96,-86,-73
-31,-91,-60,61,14,-75,34,1,-73,-98,-87,-72
-33,-91,-58,62,12,-74,34,3,-73,-101,-87,-72
-40,-94,-54,67,7,-74,33,6,-72,-102,-86,-73
-47,-96,-49,71,1,-72,33,8,-72,-102,-86,-73
-47,-97,-50,72,1,-73,34,9,-74,-99,-87,-72
-43,-97,-54,70,5,-75,34,8,-77,-97,-87,-72
-43,-97,-54,70,5,-75,33,10,-80,-96,-86,-73
-47,-97,-50,72,1,-73,33,13,-81,-96,-86,-73
-50,-94,-44,72,-3,-69,36,15,-81,-96,-87,-72
-52,-92,-40,72,-6,-66,38,14,-78,-96,-87,-72
-53,-91,-38,72,-7,-64,39,11,-75,-99,-86,-73
-53,-91,-38,72,-7,-64,39,9,-73,-101,-86,-73
-51,-92,-41,71,-5,-66,38,10,-72,-102,-87,-72
-48,-92,-44,70,-2,-68,38,13,-72,-102,-86,-72
-45,-92,-47,68,1,-69,39,14,-73,-101,-87,-74
-43,-92,-49,67,3,-70,39,14,-72,-101,-87,-77
-40,-91,-51,65,5,-71,39,13,-73,-102,-86,-78
-39,-91,-52,65,6,-71,39,13,-73,-102,-86,-78
-39,-93,-54,66,7,-73,38,15,-71,-99,-87,-75
-42,-96,-54,69,6,-75,38,18,-68,-97,-87,-73
-47,-97,-50,72,1,-73,39,21,-65,-96,-86,-72
-52,-97,-45,74,-3,-71,39,23,-63,-96,-86,-72
-54,-95,-41,74,-6,-68,36,26,-60,-97,-87,-72
-53,-92,-39,72,-7,-65,34,28,-58,-97,-87,-72
-49,-89,-40,69,-4,-64,33,29,-57,-96,-86,-74
-43,-87,-44,65,0,-65,33,29,-57,-97,-86,-77
-40,-84,-44,62,2,-64,34,28,-58,-96,-88,-78
-39,-82,-43,60,2,-62,34,28,-58,-96,-91,-78
-38,-79,-41,58,1,-60,34,30,-57,-97,-92,-75
-38,-78,-40,58,1,-59,34,33,-57,-97,-92,-73
-39,-78,-39,58,0,-58,33,36,-58,-94,-89,-72
-38,-78,-40,58,1,-59,33,38,-58,-92,-87,-72
-39,-76,-37,57,-1,-56,36,41,-55,-91,-86,-73
-39,-73,-34,56,-2,-53,38,42,-53,-91,-86,-73
-38,-72,-34,55,-2,-53,39,43,-52,-92,-87,-72
-38,-72,-34,55,-2,-53,39,43,-53,-92,-87,-72
-41,-73,-32,57,-4,-52,38,42,-51,-90,-85,-73
-46,-72,-26,59,-10,-49,38,42,-48,-87,-82,-73
-54,-73,-19,63,-17,-46,39,43,-45,-82,-80,-70
-58,-73,-15,65,-21,-44,39,43,-43,-78,-78,-68
-53,-70,-17,61,-18,-43,38,42,-42,-77,-75,-67
-44,-68,-24,56,-10,-46,39,42,-42,-77,-73,-67
-36,-67,-31,51,-2,-49,38,43,-43,-78,-72,-68
-33,-67,-34,50,0,-50,38,43,-42,-78,-72,-67
-37,-68,-31,52,-3,-49,39,42,-43,-77,-72,-68
-42,-67,-25,54,-8,-46,39,42,-43,-77,-72,-68
-43,-68,-25,55,-9,-46,38,44,-41,-78,-74,-66
-43,-68,-25,55,-9,-46,38,47,-39,-78,-77,-63
-43,-66,-23,54,-10,-44,40,50,-36,-75,-79,-60
-43,-63,-20,53,-11,-41,42,52,-34,-73,-78,-58
-39,-60,-21,49,-9,-40,43,53,-33,-72,-75,-55
-34,-58,-24,46,-5,-41,43,53,-34,-73,-73,-53
-32,-55,-23,43,-4,-39,42,52,-32,-71,-72,-52
-33,-53,-20,43,-6,-36,42,52,-29,-68,-73,-52
-37,-50,-13,43,-12,-31,43,54,-26,-65,-71,-53
-42,-48,-6,45,-18,-27,43,57,-24,-63,-68,-53
-43,-45,-2,44,-20,-23,42,60,-22,-61,-65,-49
-43,-43,0,43,-21,-21,42,62,-19,-58,-63,-43
-43,-41,2,42,-22,-19,43,62,-16,-55,-60,-38
-43,-39,4,41,-23,-17,43,62,-14,-53,-58,-34
-39,-38,1,38,-20,-18,42,64,-13,-54,-55,-33
-34,-34,0,34,-17,-17,42,67,-13,-57,-53,-34
-31,-27,4,29,-17,-11,44,68,-14,-58,-50,-32
-33,-19,14,26,-23,-2,47,68,-14,-58,-48,-29
-39,-18,21,28,-30,1,48,66,-12,-58,-45,-27
-47,-19,28,33,-37,4,48,63,-9,-58,-43,-24
-51,-15,36,33,-43,10,47,60,-6,-56,-41,-19
-52,-9,43,30,-47,17,47,58,-4,-53,-39,-14
-53,-8,45,30,-49,18,50,57,-1,-48,-36,-13
-53,-9,44,31,-48,17,52,57,0,-43,-34,-14
-52,-6,46,29,-49,20,53,58,0,-40,-32,-10
-52,-1,51,26,-51,25,52,58,0,-38,-29,-4
-53,5,58,24,-55,31,54,58,1,-39,-24,-1
-53,12,65,20,-59,38,57,58,3,-39,-19,0
-51,20,71,15,-61,45,58,57,5,-34,-16,0
-52,28,80,12,-66,54,57,57,8,-29,-14,0
-60,32,92,14,-76,62,59,59,14,-28,-10,2
-71,33,104,19,-87,68,62,62,22,-29,-4,8
-76,34,110,21,-93,72,65,63,27,-25,0,13
-73,37,110,18,-91,73,67,63,28,-19,3,18
-67,47,114,10,-90,80,70,62,28,-14,7,23
-63,57,120,3,-91,88,72,62,28,-9,13,28
-66,58,124,4,-95,91,73,65,31,-5,18,33
-72,57,129,7,-100,93,73,67,33,0,23,38
-74,63,137,5,-105,100,71,66,33,3,28,42
-73,71,144,1,-108,107,68,63,33,8,33,47
-73,76,149,-1,-111,112,65,63,37,13,37,51
-73,80,153,-3,-113,116,63,63,42,18,41,56
-68,90,158,-11,-113,124,62,59,45,22,49,65
-63,104,167,-20,-115,135,62,53,47,28,56,76
-62,119,181,-28,-121,150,63,51,49,34,62,84
-63,129,192,-33,-127,160,63,52,52,41,67,90
-60,133,193,-36,-126,163,60,55,59,48,73,98
-54,135,189,-40,-121,162,58,57,66,52,81,105
-46,141,187,-47,-116,164,59,56,71,55,85,111
-39,150,189,-55,-114,169,62,53,72,57,90,116
-37,153,190,-58,-113,171,63,50,74,61,100,119
-38,155,193,-58,-115,174,63,48,77,67,110,121
-40,160,200,-60,-120,180,63,47,81,72,117,122
-42,168,210,-63,-126,189,63,47,86,80,121,125
-45,175,220,-65,-132,197,61,50,91,92,126,131
-47,179,226,-66,-136,202,58,52,96,105,134,139
-46,181,227,-67,-136,204,57,53,101,112,142,147
-43,184,227,-70,-135,205,57,53,106,116,150,155
-42,188,230,-73,-136,209,58,53,111,119,154,159
-46,194,240,-74,-143,217,57,53,116,124,159,164
-56,198,254,-71,-155,226,58,51,120,133,167,170
-62,200,262,-69,-162,231,58,48,122,140,174,174
-58,198,256,-70,-157,227,56,47,119,141,173,174
-45,195,240,-75,-142,217,53,47,117,140,170,170
-33,193,226,-80,-129,209,52,47,118,143,172,168
-24,194,218,-85,-121,206,52,47,124,149,178,169
-22,197,219,-87,-120,208,53,49,133,156,184,173
-23,203,226,-90,-124,214,53,52,144,163,189,179
-26,208,234,-91,-130,221,51,55,153,172,194,183
-25,213,238,-94,-131,225,48,57,160,179,199,184
-15,214,229,-99,-122,221,45,59,162,180,202,185
-4,214,218,-105,-111,216,43,62,161,179,203,185
-4,213,217,-104,-110,215,42,66,161,182,205,184
-8,213,221,-102,-114,217,42,72,164,188,208,184
-8,214,222,-103,-115,218,43,77,170,195,213,185
-1,214,215,-106,-108,214,43,81,178,199,218,185
8,211,203,-109,-97,207,41,82,186,199,219,184
17,209,192,-113,-87,200,39,81,193,199,219,184
21,209,188,-115,-83,198,38,84,199,204,218,188
23,213,190,-118,-83,201,38,90,203,212,219,194
28,217,189,-122,-80,203,39,98,207,221,218,198
33,218,185,-125,-76,201,39,106,212,228,218,200
35,217,182,-126,-73,199,34,109,218,232,220,196
34,214,180,-124,-73,197,29,111,223,233,223,190
33,211,178,-122,-72,194,27,115,224,234,224,187
34,209,175,-121,-70,192,28,121,223,234,224,185
33,206,173,-119,-70,189,29,126,225,233,222,181
33,201,168,-117,-67,184,29,130,228,234,219,176
36,194,158,-115,-61,176,28,132,229,233,217,170
38,186,148,-112,-55,167,28,135,229,233,214,165
37,179,142,-108,-52,160,29,140,228,234,209,163
34,175,141,-104,-53,158,29,145,228,234,204,161
33,173,140,-103,-53,156,27,148,229,230,202,155
34,170,136,-102,-51,153,24,150,229,225,200,147
33,164,131,-98,-49,147,23,153,225,219,196,141
33,157,124,-95,-45,140,23,156,220,214,190,136
37,151,114,-94,-38,132,26,154,214,212,185,132
42,147,105,-94,-31,126,28,151,209,209,180,126
43,140,97,-91,-27,118,29,152,205,203,175,122
42,132,90,-87,-24,111,29,155,200,196,170,117
44,126,82,-85,-19,104,26,156,197,190,166,113
47,122,75,-84,-14,98,24,156,195,186,161,108
49,118,69,-83,-10,93,23,156,193,179,156,101
48,113,65,-80,-8,89,23,156,190,171,151,97
44,105,61,-74,-8,83,24,154,186,164,146,96
39,98,59,-68,-10,78,24,151,181,157,141,97
38,93,55,-65,-8,74,22,149,175,149,136,93
39,92,53,-65,-7,72,19,146,170,142,131,88
37,90,53,-63,-8,71,16,142,167,136,128,82
34,87,53,-60,-9,70,14,136,162,131,126,78
33,83,50,-58,-8,66,13,133,153,125,123,74
34,78,44,-56,-5,61,13,131,142,118,118,68
32,74,42,-53,-5,58,14,129,135,110,110,63
29,68,39,-48,-5,53,14,126,131,103,103,58
26,63,37,-44,-5,50,11,124,127,98,97,55
24,58,34,-41,-5,46,9,122,123,93,92,53
21,56,35,-38,-7,45,8,121,116,84,88,51
19,53,34,-36,-7,43,9,117,108,74,83,48
18,48,30,-33,-6,39,7,110,101,67,75,45
18,43,25,-30,-3,34,4,102,97,63,68,43
19,41,22,-30,-1,31,3,99,94,61,64,42
19,39,20,-29,0,29,4,97,92,58,63,39
16,34,18,-25,-1,26,2,91,88,54,61,33
14,29,15,-21,0,22,0,83,83,48,58,25
13,27,14,-20,0,20,-1,79,77,43,53,20
17,28,11,-22,3,19,-3,78,73,39,48,19
26,30,4,-28,11,17,-4,76,73,36,47,17
33,29,-4,-31,18,12,-4,73,73,34,47,14
32,25,-7,-28,19,9,-2,68,68,31,47,9
25,19,-6,-22,15,6,0,63,59,29,43,4
18,16,-2,-17,10,7,0,60,52,28,39,2
14,14,0,-14,7,7,0,58,48,28,34,3
12,13,1,-12,5,7,0,56,47,29,32,4
13,13,0,-13,6,6,0,53,48,29,29,4
16,14,-2,-15,9,6,-1,50,45,25,24,2
18,14,-4,-16,11,5,-3,48,40,19,19,0
19,12,-7,-15,13,2,-4,46,34,17,17,0
19,9,-10,-14,14,0,-4,43,29,18,18,0
18,6,-12,-12,15,-3,-3,40,28,19,19,0
18,4,-14,-11,16,-5,-3,39,28,19,19,0
19,3,-16,-11,17,-6,-4,39,29,16,18,0
19,4,-15,-11,17,-5,-4,39,29,14,18,0
15,3,-12,-9,13,-4,-3,37,27,13,19,0
9,3,-6,-6,7,-1,-3,34,24,14,19,0
7,5,-2,-6,4,1,-4,31,21,12,15,-1
8,8,0,-8,4,4,-4,29,19,9,9,-3
9,9,0,-9,4,4,-3,26,16,6,7,-4
9,9,0,-9,4,4,-3,24,14,4,8,-4
6,9,3,-7,1,6,-5,24,12,3,9,-3
3,9,6,-6,-1,7,-8,24,9,4,9,-3
7,7,0,-7,3,3,-9,22,6,2,7,-5
13,4,-9,-8,11,-2,-9,19,4,0,4,-8
16,3,-13,-9,14,-5,-8,18,4,0,3,-9
14,3,-11,-8,12,-4,-8,19,4,0,3,-9
8,4,-4,-6,6,0,-9,17,1,-1,6,-8
1,4,3,-2,-1,3,-9,14,-3,-3,8,-8
-2,2,4,0,-3,3,-8,11,-6,-4,9,-9
-3,0,3,1,-3,1,-8,9,-8,-4,9,-9
-4,-1,3,2,-3,1,-9,6,-8,-3,8,-8
-4,-3,1,3,-2,-1,-9,4,-8,-4,8,-8
-2,-6,-4,4,1,-5,-9,3,-10,-3,9,-9
0,-8,-8,4,4,-8,-9,3,-13,-3,9,-9
0,-9,-9,4,4,-9,-8,4,-14,-5,7,-8
0,-9,-9,4,4,-9,-8,4,-14,-8,4,-9
-1,-8,-7,4,3,-7,-9,2,-13,-9,1,-8
-3,-8,-5,5,1,-6,-9,0,-13,-9,0,-8
-4,-9,-5,6,0,-7,-8,0,-14,-8,0,-9
-4,-9,-5,6,0,-7,-8,0,-14,-8,0,-9
-2,-8,-6,5,2,-7,-9,0,-13,-9,0,-8
-3,-8,-5,5,1,-6,-9,0,-13,-9,0,-8
-10,-9,1,9,-5,-4,-7,0,-14,-7,0,-9
-18,-9,9,13,-13,0,-4,0,-14,-4,0,-9
-15,-8,7,11,-11,0,-2,-1,-11,-3,0,-8
-5,-8,-3,6,-1,-5,-3,-3,-9,-3,0,-8
0,-11,-11,5,5,-11,-8,-6,-10,-6,0,-10
3,-13,-16,5,9,-14,-13,-8,-13,-8,0,-13
5,-13,-18,4,11,-15,-15,-9,-14,-9,1,-14
4,-9,-13,2,8,-11,-14,-9,-14,-9,3,-14
-1,-6,-5,3,2,-5,-13,-8,-13,-8,4,-13
-8,-4,4,6,-6,0,-13,-8,-13,-8,4,-13
-6,-3,3,4,-4,0,-13,-9,-15,-9,3,-14
0,-3,-3,1,1,-3,-13,-9,-18,-9,3,-14
1,-4,-5,1,3,-4,-14,-8,-19,-7,4,-12
0,-4,-4,2,2,-4,-14,-8,-19,-4,4,-9
-1,-3,-2,2,0,-2,-12,-10,-18,-3,3,-6
-3,-3,0,3,-1,-1,-9,-13,-19,-3,3,-4
-4,-4,0,4,-2,-2,-6,-14,-18,-5,4,-3
-4,-4,0,4,-2,-2,-4,-14,-18,-8,4,-3
-2,-3,-1,2,0,-2,-3,-13,-20,-11,3,-6
0,-3,-3,1,1,-3,-3,-13,-23,-13,3,-8
0,-5,-5,2,2,-5,-4,-14,-24,-16,4,-9
0,-8,-8,4,4,-8,-4,-14,-24,-18,4,-9
-1,-9,-8,5,3,-8,-3,-13,-23,-19,3,-8
-3,-9,-6,6,1,-7,-3,-13,-24,-19,3,-8
-4,-8,-4,6,0,-6,-4,-14,-23,-17,5,-9
-4,-8,-4,6,0,-6,-4,-13,-23,-14,8,-9
-3,-9,-6,6,1,-7,-3,-14,-25,-13,10,-8
-3,-9,-6,6,1,-7,-3,-14,-28,-13,9,-8
-4,-8,-4,6,0,-6,-4,-13,-29,-16,5,-9
-4,-8,-4,6,0,-6,-4,-13,-29,-18,0,-9
-3,-9,-6,6,1,-7,-3,-14,-27,-19,-2,-8
-3,-9,-6,6,1,-7,-3,-14,-24,-19,-3,-8
-4,-8,-4,6,0,-6,-4,-13,-23,-18,-4,-10
-4,-8,-4,6,0,-6,-4,-13,-23,-18,-4,-13
-3,-9,-6,6,1,-7,-3,-15,-26,-19,-3,-16
-3,-9,-6,6,1,-7,-3,-18,-28,-19,-3,-18
-4,-8,-4,6,0,-6,-5,-19,-29,-18,-4,-19
-4,-8,-4,6,0,-6,-8,-19,-29,-18,-4,-19
-3,-9,-6,6,1,-7,-11,-18,-28,-20,-3,-18
-3,-9,-6,6,1,-7,-13,-18,-28,-23,-3,-18
-5,-8,-3,6,-1,-5,-14,-19,-29,-24,-4,-19
-8,-8,0,8,-4,-4,-14,-19,-29,-24,-4,-19
-9,-9,0,9,-4,-4,-12,-18,-28,-21,-2,-17
-8,-8,0,8,-4,-4,-9,-18,-28,-19,0,-14
-10,-9,1,9,-5,-4,-8,-19,-30,-18,0,-13
-9,-9,0,9,-4,-4,-8,-19,-33,-18,0,-13
-3,-8,-5,5,1,-6,-11,-18,-36,-19,0,-14
3,-8,-11,2,7,-9,-13,-18,-38,-19,0,-14
4,-9,-13,2,8,-11,-14,-20,-40,-18,0,-13
0,-9,-9,4,4,-9,-13,-23,-42,-18,0,-13
-2,-8,-6,5,2,-7,-15,-26,-45,-21,0,-15
-3,-8,-5,5,1,-6,-18,-28,-47,-23,0,-18
-3,-9,-6,6,1,-7,-19,-27,-48,-22,0,-19
-3,-9,-6,6,1,-7,-19,-24,-48,-19,0,-19
-5,-8,-3,6,-1,-5,-18,-21,-47,-18,0,-18
-8,-8,0,8,-4,-4,-18,-19,-47,-18,0,-18
-9,-9,0,9,-4,-4,-19,-18,-48,-19,0,-19
-9,-9,0,9,-4,-4,-19,-18,-48,-19,0,-19
-8,-8,0,8,-4,-4,-18,-19,-47,-18,0,-18
-8,-8,0,8,-4,-4,-18,-19,-47,-18,0,-18
-9,-9,0,9,-4,-4,-19,-18,-48,-19,0,-19
-9,-9,0,9,-4,-4,-19,-18,-48,-19,0,-19
-8,-8,0,8,-4,-4,-18,-19,-47,-18,0,-18
-8,-8,0,8,-4,-4,-18,-19,-47,-18,0,-18
-9,-10,-1,9,-4,-5,-19,-18,-48,-19,0,-19
-9,-13,-4,11,-2,-8,-19,-18,-48,-19,0,-19
-8,-16,-8,12,0,-12,-18,-19,-47,-18,0,-18
-8,-18,-10,13,1,-14,-18,-19,-47,-18,0,-18
-9,-19,-10,14,0,-14,-19,-18,-48,-19,0,-19
-9,-19,-10,14,0,-14,-19,-18,-48,-19,0,-19
-8,-18,-10,13,1,-14,-18,-18,-47,-18,0,-18
-8,-18,-10,13,1,-14,-18,-18,-47,-18,0,-18
-9,-19,-10,14,0,-14,-19,-19,-48,-19,0,-20
-9,-19,-10,14,0,-14,-19,-19,-48,-19,0,-23
-8,-18,-10,13,1,-14,-18,-18,-47,-18,0,-26
-8,-18,-10,13,1,-14,-18,-18,-47,-18,0,-28
-9,-19,-10,14,0,-14,-19,-19,-48,-19,0,-29
-9,-19,-10,14,0,-14,-19,-19,-48,-19,0,-29
-8,-18,-10,13,1,-14,-18,-18,-47,-18,0,-28
-8,-18,-10,13,1,-14,-18,-18,-47,-18,0,-28
-10,-19,-9,14,0,-14,-19,-19,-48,-19,0,-29
-13,-19,-6,16,-3,-12,-19,-19,-48,-19,0,-29
-16,-18,-2,17,-7,-10,-18,-18,-47,-18,0,-29
-18,-18,0,18,-9,-9,-18,-18,-47,-18,0,-29
-19,-21,-2,20,-8,-11,-19,-20,-48,-19,-1,-28
-19,-27,-8,23,-5,-17,-19,-23,-48,-19,-3,-28
-18,-34,-16,26,-1,-25,-18,-26,-47,-18,-6,-29
-18,-38,-20,28,1,-29,-18,-28,-47,-18,-8,-29
-18,-36,-18,27,0,-27,-19,-29,-48,-19,-9,-27
-18,-30,-12,24,-3,-21,-19,-29,-48,-19,-9,-24
-19,-23,-4,21,-7,-13,-18,-29,-47,-18,-8,-21
-19,-19,0,19,-9,-9,-18,-29,-47,-18,-8,-19
-17,-18,-1,17,-8,-9,-19,-27,-48,-19,-9,-18
-14,-18,-4,16,-5,-11,-19,-24,-48,-19,-9,-18
-11,-19,-8,15,-1,-13,-18,-21,-47,-18,-9,-19
-9,-19,-10,14,0,-14,-18,-19,-47,-18,-9,-19
-7,-17,-10,12,1,-13,-19,-18,-48,-20,-8,-18
-4,-14,-10,9,3,-12,-19,-18,-48,-23,-8,-18
-2,-11,-9,6,3,-10,-18,-19,-47,-26,-9,-19
0,-9,-9,4,4,-9,-18,-19,-47,-28,-9,-19
0,-8,-8,4,4,-8,-19,-18,-48,-29,-7,-19
0,-8,-8,4,4,-8,-19,-18,-48,-29,-4,-19
0,-8,-8,4,4,-8,-18,-18,-47,-29,-1,-18
0,-8,-8,4,4,-8,-18,-18,-47,-29,0,-18
-2,-10,-8,6,3,-9,-19,-19,-48,-27,0,-19
-7,-13,-6,10,0,-9,-19,-19,-48,-24,0,-19
-13,-16,-3,14,-5,-9,-18,-18,-47,-21,0,-18
-18,-18,0,18,-9,-9,-18,-18,-47,-19,0,-18
-19,-19,0,19,-9,-9,-19,-20,-48,-18,0,-20
-19,-19,0,19,-9,-9,-19,-23,-48,-18,0,-23
-19,-18,1,18,-10,-8,-18,-26,-47,-18,0,-26
-19,-18,1,18,-10,-8,-18,-28,-47,-18,0,-28
-16,-19,-3,17,-6,-11,-20,-29,-49,-20,-1,-29
-10,-19,-9,14,0,-14,-23,-29,-52,-23,-3,-29
-3,-18,-15,10,6,-16,-26,-28,-55,-26,-6,-28
0,-18,-18,9,9,-18,-28,-28,-57,-28,-8,-28
-3,-18,-15,10,6,-16,-29,-29,-58,-29,-9,-29
-11,-18,-7,14,-2,-12,-29,-29,-58,-29,-9,-29
-21,-19,2,20,-11,-8,-29,-28,-58,-28,-8,-28
-28,-19,9,23,-18,-5,-29,-28,-58,-28,-8,-28
-29,-18,11,23,-20,-3,-27,-29,-56,-29,-9,-29
-28,-18,10,23,-19,-4,-24,-29,-53,-29,-9,-29
-30,-19,11,24,-20,-4,-21,-28,-50,-28,-8,-28
-29,-19,10,24,-19,-4,-19,-28,-48,-28,-8,-28
-21,-17,4,19,-12,-6,-18,-29,-47,-29,-9,-29
-7,-14,-7,10,0,-10,-18,-29,-47,-29,-9,-29
8,-11,-19,1,13,-15,-19,-28,-48,-28,-8,-28
18,-9,-27,-4,22,-18,-19,-28,-48,-28,-8,-28
16,-8,-24,-4,20,-16,-18,-29,-47,-29,-9,-29
6,-8,-14,1,10,-11,-18,-29,-47,-29,-9,-29
-2,-9,-7,5,2,-8,-19,-28,-48,-28,-8,-28
-8,-9,-1,8,-3,-5,-19,-28,-48,-28,-8,-28
-9,-8,1,8,-5,-3,-19,-29,-47,-29,-9,-29
-9,-8,1,8,-5,-3,-19,-29,-47,-29,-9,-29
-8,-9,-1,8,-3,-5,-18,-28,-48,-28,-8,-28
-8,-9,-1,8,-3,-5,-18,-28,-48,-28,-8,-28
-8,-8,0,8,-4,-4,-19,-29,-47,-29,-9,-28
-8,-8,0,8,-4,-4,-19,-29,-47,-29,-9,-28
-9,-9,0,9,-4,-4,-18,-28,-48,-28,-8,-29
-9,-9,0,9,-4,-4,-18,-28,-48,-28,-8,-29
-7,-9,-2,8,-2,-5,-20,-29,-47,-29,-9,-28
-4,-9,-5,6,0,-7,-23,-29,-47,-29,-9,-28
-1,-8,-7,4,3,-7,-26,-28,-47,-28,-8,-29
0,-8,-8,4,4,-8,-28,-28,-47,-28,-8,-29
0,-9,-9,4,4,-9,-29,-29,-48,-29,-9,-28
0,-9,-9,4,4,-9,-29,-29,-48,-29,-9,-28
0,-8,-8,4,4,-8,-28,-28,-47,-28,-8,-29
0,-8,-8,4,4,-8,-28,-28,-47,-28,-8,-29
0,-9,-9,4,4,-9,-29,-29,-48,-29,-9,-28
0,-9,-9,4,4,-9,-29,-29,-48,-29,-9,-28
0,-8,-8,4,4,-8,-28,-28,-47,-28,-8,-29
0,-8,-8,4,4,-8,-28,-28,-47,-28,-8,-29
0,-10,-10,5,5,-10,-29,-29,-48,-29,-9,-28
0,-13,-13,6,6,-13,-29,-29,-48,-29,-9,-28
0,-16,-16,8,8,-16,-28,-28,-47,-28,-8,-29
0,-18,-18,9,9,-18,-28,-28,-47,-28,-8,-29
0,-19,-19,9,9,-19,-29,-29,-48,-29,-9,-28
0,-19,-19,9,9,-19,-29,-29,-48,-29,-9,-28
0,-18,-18,9,9,-18,-28,-28,-47,-28,-8,-29
0,-18,-18,9,9,-18,-28,-28,-47,-28,-8,-29
-1,-19,-18,10,8,-18,-29,-29,-49,-29,-9,-27
-3,-19,-16,11,6,-17,-29,-29,-52,-29,-9,-24
-6,-18,-12,12,3,-15,-28,-28,-55,-28,-8,-21
-8,-18,-10,13,1,-14,-28,-28,-57,-28,-8,-19
-9,-19,-10,14,0,-14,-29,-30,-58,-29,-9,-18
-9,-19,-10,14,0,-14,-29,-33,-58,-29,-9,-18
-8,-18,-10,13,1,-14,-28,-36,-57,-28,-8,-18
-8,-18,-10,13,1,-14,-28,-38,-57,-28,-8,-18
-9,-19,-10,14,0,-14,-29,-39,-58,-30,-9,-20
-9,-19,-10,14,0,-14,-29,-39,-58,-33,-9,-23
-8,-18,-10,13,1,-14,-28,-38,-57,-36,-8,-26
-8,-18,-10,13,1,-14,-28,-38,-57,-38,-8,-28
-9,-20,-11,14,1,-15,-29,-39,-58,-39,-9,-29
-9,-23,-14,16,2,-18,-29,-39,-58,-39,-9,-29
-8,-26,-18,17,5,-22,-28,-38,-57,-38,-8,-28
-8,-28,-20,18,6,-24,-28,-38,-57,-38,-8,-28
-9,-29,-20,19,5,-24,-29,-39,-58,-39,-9,-29
-9,-29,-20,19,5,-24,-29,-39,-57,-39,-9,-29
-8,-28,-20,18,6,-24,-28,-38,-58,-39,-8,-28
-8,-28,-20,18,6,-24,-28,-38,-58,-39,-8,-28
-9,-29,-20,19,5,-24,-29,-38,-57,-38,-9,-29
-9,-29,-20,19,5,-24,-29,-38,-57,-38,-9,-29
-8,-29,-21,18,6,-25,-28,-39,-58,-39,-8,-28
-8,-29,-21,18,6,-25,-28,-39,-58,-39,-8,-28
-9,-28,-19,18,5,-23,-29,-38,-57,-37,-9,-30
-9,-28,-19,18,5,-23,-29,-38,-57,-34,-9,-33
-8,-29,-21,18,6,-25,-28,-39,-58,-31,-8,-36
-8,-29,-21,18,6,-25,-28,-39,-58,-29,-8,-38
-9,-27,-18,18,4,-22,-29,-38,-57,-28,-9,-39
-9,-24,-15,16,3,-19,-29,-38,-57,-28,-9,-39
-8,-21,-13,14,2,-17,-28,-39,-58,-29,-8,-39
-8,-19,-11,13,1,-15,-28,-39,-58,-29,-8,-39
-11,-18,-7,14,-2,-12,-29,-37,-55,-28,-9,-37
-17,-18,-1,17,-8,-9,-29,-34,-49,-28,-9,-34
-24,-19,5,21,-14,-7,-28,-31,-43,-29,-8,-31
-28,-19,9,23,-18,-5,-28,-29,-39,-29,-8,-29
-26,-19,7,22,-16,-6,-29,-28,-40,-28,-9,-28
-20,-19,1,19,-10,-9,-29,-28,-46,-28,-9,-28
-14,-18,-4,16,-5,-11,-28,-28,-52,-28,-8,-28
-9,-18,-9,13,0,-13,-29,-28,-57,-28,-8,-28
-5,-20,-15,12,5,-17,-29,-30,-58,-29,-10,-30
-1,-23,-22,12,10,-22,-28,-33,-58,-29,-13,-33
4,-26,-30,11,17,-28,-28,-36,-57,-28,-16,-36
8,-28,-36,10,22,-32,-28,-38,-57,-28,-18,-38
7,-29,-36,11,21,-32,-28,-39,-58,-29,-19,-39
1,-29,-30,14,15,-29,-28,-39,-58,-29,-19,-39
-4,-28,-24,16,10,-26,-29,-38,-57,-28,-18,-38
-8,-28,-20,18,6,-24,-28,-38,-57,-28,-18,-38
-9,-29,-20,19,5,-24,-28,-39,-58,-29,-19,-39
-9,-29,-20,19,5,-24,-28,-39,-58,-29,-19,-39
-8,-27,-19,17,5,-23,-29,-37,-56,-27,-17,-39
-9,-24,-15,16,3,-19,-29,-34,-53,-24,-14,-39
-8,-23,-15,15,3,-19,-28,-33,-51,-23,-13,-38
-8,-24,-16,16,4,-20,-28,-33,-48,-24,-14,-38
-9,-22,-13,15,2,-17,-29,-34,-44,-22,-12,-39
-9,-19,-10,14,0,-14,-29,-34,-39,-19,-9,-39
-5,-18,-13,11,4,-15,-28,-34,-39,-18,-6,-37
0,-18,-18,9,9,-18,-28,-34,-42,-18,-4,-34
-2,-19,-17,10,7,-18,-29,-33,-43,-19,-2,-31
-7,-19,-12,13,2,-15,-29,-33,-43,-19,0,-29
-10,-18,-8,14,-1,-13,-28,-35,-42,-18,0,-28
-9,-18,-9,13,0,-13,-28,-38,-42,-18,0,-28
-5,-19,-14,12,4,-16,-29,-39,-44,-19,0,-28
0,-19,-19,9,9,-19,-29,-39,-47,-19,0,-28
0,-18,-18,9,9,-18,-28,-38,-48,-18,0,-30
0,-18,-18,9,9,-18,-28,-38,-48,-18,-3,-33
0,-20,-20,10,10,-20,-29,-39,-47,-20,-8,-36
0,-23,-23,11,11,-23,-29,-39,-47,-23,-13,-38
0,-25,-25,12,12,-25,-28,-38,-49,-24,-14,-39
0,-28,-28,14,14,-28,-28,-38,-52,-24,-14,-39
0,-31,-31,15,15,-31,-29,-39,-53,-23,-13,-38
0,-33,-33,16,16,-33,-29,-39,-53,-23,-13,-38
-2,-34,-32,18,15,-33,-28,-38,-52,-24,-14,-39
-7,-33,-26,20,9,-29,-28,-38,-52,-24,-14,-39
-11,-35,-24,23,6,-29,-29,-39,-53,-23,-13,-38
-13,-38,-25,25,6,-31,-29,-39,-53,-23,-13,-38
-13,-40,-27,26,7,-33,-28,-38,-52,-25,-15,-39
-13,-42,-29,27,8,-35,-28,-38,-52,-28,-18,-39
-16,-43,-27,29,5,-35,-29,-39,-53,-31,-21,-38
-18,-43,-25,30,3,-34,-29,-39,-53,-33,-23,-38
-17,-41,-24,29,3,-32,-28,-39,-52,-32,-22,-40
-10,-39,-29,24,9,-34,-28,-39,-52,-29,-19,-42
-2,-38,-36,20,17,-37,-29,-38,-53,-28,-18,-43
3,-38,-41,17,22,-39,-29,-38,-53,-28,-18,-43
3,-39,-42,18,22,-40,-28,-39,-52,-28,-19,-42
-2,-39,-37,20,17,-38,-28,-39,-52,-28,-19,-42
-8,-38,-30,23,11,-34,-29,-38,-53,-30,-18,-42
-13,-39,-26,26,6,-32,-29,-38,-53,-33,-18,-42
-14,-38,-24,26,5,-31,-28,-39,-52,-34,-20,-43
-14,-38,-24,26,5,-31,-28,-39,-52,-34,-23,-43
-13,-39,-26,26,6,-32,-29,-38,-53,-32,-24,-41
-13,-39,-26,26,6,-32,-29,-38,-53,-29,-24,-39
-14,-37,-23,25,4,-30,-28,-39,-52,-28,-23,-38
-14,-34,-20,24,3,-27,-28,-39,-52,-28,-23,-38
-13,-32,-19,22,3,-25,-29,-38,-53,-29,-24,-39
-13,-29,-16,21,1,-22,-29,-38,-53,-29,-24,-39
-14,-26,-12,20,-1,-19,-28,-39,-52,-28,-22,-38
-14,-24,-10,19,-2,-17,-28,-39,-52,-28,-19,-38
-12,-23,-11,17,0,-17,-30,-37,-53,-29,-18,-39
-9,-23,-14,16,2,-18,-33,-34,-53,-29,-18,-39
-8,-24,-16,16,4,-20,-34,-33,-51,-28,-19,-35
-8,-24,-16,16,4,-20,-34,-33,-48,-28,-19,-30
-8,-23,-15,15,3,-19,-34,-34,-47,-29,-18,-26
-8,-23,-15,15,3,-19,-34,-34,-47,-29,-18,-24
-10,-25,-15,17,2,-20,-32,-33,-48,-28,-19,-23
-13,-28,-15,20,1,-21,-29,-33,-48,-28,-19,-23
-14,-31,-17,22,1,-24,-28,-35,-48,-30,-18,-25
-14,-33,-19,23,2,-26,-28,-38,-48,-33,-18,-28
-14,-34,-20,24,3,-27,-28,-39,-47,-34,-19,-29
-14,-34,-20,24,3,-27,-28,-39,-47,-34,-19,-29
-12,-32,-20,22,4,-26,-30,-38,-49,-33,-18,-28
-9,-29,-20,19,5,-24,-33,-38,-52,-33,-18,-28
-8,-28,-20,18,6,-24,-34,-38,-53,-34,-18,-30
-8,-28,-20,18,6,-24,-34,-38,-53,-34,-18,-33
-10,-29,-19,19,4,-24,-32,-39,-52,-33,-19,-36
-13,-29,-16,21,1,-22,-29,-39,-52,-33,-19,-38
-14,-28,-14,21,0,-21,-28,-37,-53,-34,-18,-37
-14,-29,-15,21,0,-22,-28,-34,-53,-34,-18,-34
-13,-28,-15,20,1,-21,-29,-33,-52,-33,-19,-33
-13,-28,-15,20,1,-21,-29,-33,-52,-33,-19,-33
-13,-29,-16,21,1,-22,-28,-33,-53,-34,-18,-34
-13,-29,-16,21,1,-22,-28,-33,-53,-34,-18,-34
-14,-27,-13,20,0,-20,-28,-35,-52,-32,-19,-33
-14,-24,-10,19,-2,-17,-28,-38,-52,-29,-19,-33
-12,-23,-11,17,0,-17,-29,-39,-53,-28,-18,-34
-9,-23,-14,16,2,-18,-29,-39,-52,-28,-18,-34
-8,-24,-16,16,4,-20,-28,-38,-53,-29,-20,-33
-8,-24,-16,16,4,-20,-28,-38,-53,-29,-23,-33
-8,-23,-15,15,3,-19,-30,-39,-52,-28,-24,-35
-8,-23,-15,15,3,-19,-33,-39,-52,-28,-24,-38
-10,-23,-13,16,1,-18,-34,-38,-53,-29,-22,-39
-13,-23,-10,18,-1,-16,-34,-38,-53,-29,-19,-39
-15,-24,-9,19,-3,-16,-32,-39,-52,-27,-18,-38
-14,-24,-10,19,-2,-17,-29,-39,-52,-24,-18,-38
-11,-23,-12,17,0,-17,-28,-38,-53,-23,-19,-39
-9,-23,-14,16,2,-18,-28,-38,-53,-23,-19,-39
-9,-25,-16,17,3,-20,-29,-39,-52,-24,-18,-38
-13,-27,-14,20,0,-20,-29,-36,-49,-24,-18,-38
-16,-32,-16,24,0,-24,-26,-24,-41,-21,-19,-39
-18,-37,-19,27,0,-28,-20,-5,-28,-15,-19,-41
-17,-41,-24,29,3,-32,-15,16,-8,-8,-17,-46
-11,-40,-29,25,9,-34,-10,40,23,10,-5,-49
0,-31,-31,15,15,-31,-5,71,72,54,24,-39
17,-14,-31,-1,24,-22,-6,104,134,121,76,-16
46,9,-37,-27,41,-14,-21,132,198,203,145,19
89,42,-47,-65,68,-2,-43,161,267,296,229,67
144,86,-58,-115,101,14,-58,200,351,400,325,128
207,137,-70,-172,138,33,-66,255,454,515,426,193
270,188,-82,-229,176,53,-71,331,572,638,529,252
334,234,-100,-284,217,67,-76,411,680,751,620,301
402,268,-134,-335,268,67,-83,469,744,827,682,337
458,295,-163,-376,310,66,-90,495,768,869,719,363
481,322,-159,-401,320,81,-93,488,776,898,744,389
485,355,-130,-420,307,112,-95,455,776,921,765,420
500,398,-102,-449,301,148,-103,405,765,937,787,457
516,440,-76,-478,296,182,-114,340,722,921,793,490
505,463,-42,-484,273,210,-122,261,619,840,762,506
472,474,2,-473,235,238,-125,163,479,718,706,510
434,489,55,-461,189,272,-125,46,346,604,652,517
377,501,124,-439,126,312,-122,-101,204,481,584,519
276,493,217,-384,29,355,-119,-287,13,313,472,501
142,463,321,-302,-89,392,-114,-478,-204,113,325,458
5,416,411,-210,-203,413,-102,-625,-400,-74,178,394
-105,360,465,-127,-285,412,-92,-722,-553,-223,54,320
-165,305,470,-70,-317,387,-96,-785,-657,-318,-30,253
-195,243,438,-24,-316,340,-112,-826,-720,-374,-88,191
-233,159,392,37,-312,275,-129,-849,-758,-413,-141,124
-272,63,335,104,-303,199,-149,-855,-772,-442,-189,55
-281,-25,256,153,-268,115,-178,-841,-755,-456,-224,-6
-264,-90,174,177,-219,42,-208,-800,-708,-452,-242,-53
-236,-119,117,177,-176,-1,-223,-726,-636,-427,-242,-82
-203,-122,81,162,-142,-20,-218,-624,-550,-386,-229,-95
-168,-119,49,143,-108,-35,-192,-506,-459,-339,-205,-100
-134,-114,20,124,-77,-47,-154,-388,-372,-287,-174,-99
-105,-104,1,104,-53,-51,-124,-290,-292,-228,-137,-86
-83,-93,-10,88,-36,-51,-98,-215,-224,-172,-103,-70
-64,-88,-24,76,-20,-56,-70,-161,-172,-135,-82,-64
-50,-87,-37,68,-6,-62,-40,-120,-137,-115,-74,-66
-42,-84,-42,63,0,-63,-17,-89,-117,-104,-71,-70
-38,-79,-41,58,1,-60,-2,-67,-108,-98,-72,-72
-40,-75,-35,57,-2,-55,3,-55,-103,-94,-75,-73
-46,-73,-27,59,-9,-50,4,-49,-98,-92,-77,-73
-52,-72,-20,62,-16,-46,4,-42,-92,-89,-77,-72
-57,-72,-15,64,-21,-43,7,-31,-84,-83,-74,-72
-58,-72,-14,65,-22,-43,14,-20,-73,-76,-68,-74
-58,-72,-14,65,-22,-43,22,-10,-64,-69,-63,-77
-57,-74,-17,65,-20,-45,28,-6,-61,-66,-65,-78
-60,-77,-17,68,-21,-47,32,-4,-62,-67,-71,-78
-72,-80,-8,76,-32,-44,37,0,-63,-70,-74,-77
-84,-85,-1,84,-41,-43,42,3,-63,-72,-73,-77
-88,-91,-3,89,-42,-47,44,2,-62,-73,-72,-79
-86,-96,-10,91,-38,-53,43,-2,-62,-73,-72,-81
-90,-98,-8,94,-41,-53,41,-6,-64,-72,-74,-82
-96,-97,-1,96,-47,-49,39,-8,-67,-72,-77,-82
-94,-93,1,93,-47,-46,36,-12,-68,-74,-79,-82
-88,-88,0,88,-44,-44,34,-18,-68,-77,-81,-82
-84,-84,0,84,-42,-42,33,-19,-67,-78,-82,-80
-82,-82,0,82,-41,-41,30,-19,-67,-78,-82,-78
-78,-81,-3,79,-37,-42,23,-19,-68,-78,-80,-77
-73,-82,-9,77,-32,-45,15,-19,-68,-78,-78,-77
-71,-81,-10,76,-30,-45,12,-17,-67,-76,-76,-79
-72,-81,-9,76,-31,-45,13,-14,-67,-73,-73,-81
-73,-84,-11,78,-31,-47,12,-13,-68,-72,-70,-82
-73,-86,-13,79,-30,-49,9,-13,-68,-72,-68,-82
-69,-86,-17,77,-26,-51,8,-14,-67,-73,-69,-80
-64,-82,-18,73,-23,-50,8,-14,-67,-73,-72,-78
-60,-79,-19,69,-20,-49,9,-12,-69,-72,-73,-77
-58,-78,-20,68,-19,-49,9,-10,-72,-72,-73,-77
-57,-77,-20,67,-18,-48,8,-5,-73,-74,-72,-78
-58,-77,-19,67,-19,-48,8,-1,-73,-77,-73,-78
-57,-77,-20,67,-18,-48,9,2,-73,-78,-72,-78
-57,-77,-20,67,-18,-48,12,3,-73,-78,-72,-78
-62,-79,-17,70,-22,-48,18,4,-71,-77,-73,-77
-70,-81,-11,75,-29,-46,23,4,-68,-77,-76,-77
-78,-83,-5,80,-36,-44,21,3,-67,-78,-81,-79
-82,-86,-4,84,-39,-45,15,3,-67,-78,-86,-81
-79,-89,-10,84,-34,-49,12,4,-69,-77,-87,-82
-73,-91,-18,82,-27,-54,13,4,-72,-77,-87,-82
-73,-92,-19,82,-27,-55,13,2,-73,-78,-86,-80
-77,-92,-15,84,-31,-53,13,0,-73,-78,-87,-78
-78,-91,-13,84,-32,-52,15,0,-72,-77,-86,-77
-78,-91,-13,84,-32,-52,18,3,-72,-77,-86,-77
-78,-92,-14,85,-32,-53,19,4,-74,-79,-88,-77
-78,-92,-14,85,-32,-53,19,4,-77,-81,-91,-77
-74,-90,-16,82,-29,-53,18,2,-78,-82,-92,-79
-68,-87,-19,77,-24,-53,18,0,-77,-82,-92,-81
-68,-84,-16,76,-26,-50,19,0,-79,-81,-91,-82
-69,-82,-13,75,-28,-47,19,0,-81,-81,-92,-81
-61,-81,-20,71,-20,-50,18,1,-82,-82,-91,-83
-49,-81,-32,65,-8,-56,19,3,-82,-81,-91,-86
-47,-82,-35,64,-6,-58,18,4,-81,-82,-93,-87
-51,-82,-31,66,-10,-56,18,4,-81,-82,-96,-87
-53,-81,-28,67,-12,-54,19,3,-82,-81,-97,-86
-52,-81,-29,66,-11,-55,19,3,-82,-81,-96,-86
-54,-85,-31,69,-11,-58,18,4,-81,-83,-98,-87
-57,-90,-33,73,-12,-61,18,3,-81,-86,-101,-86
-59,-94,-35,76,-12,-64,19,4,-82,-87,-102,-87
-62,-96,-34,79,-14,-65,22,4,-82,-87,-102,-87
-66,-99,-33,82,-16,-66,27,3,-81,-86,-101,-86
-71,-101,-30,86,-20,-65,33,3,-81,-86,-102,-86
-74,-102,-28,88,-23,-65,34,5,-81,-87,-101,-88
-73,-101,-28,87,-22,-64,34,8,-81,-87,-101,-91
-69,-102,-33,85,-18,-67,33,9,-82,-86,-103,-92
-64,-102,-38,83,-13,-70,33,9,-82,-86,-106,-92
-60,-99,-39,79,-10,-69,34,8,-81,-88,-107,-90
-61,-93,-32,77,-14,-62,34,8,-81,-91,-107,-87
-69,-89,-20,79,-24,-54,33,9,-82,-92,-106,-84
-77,-87,-10,82,-33,-48,33,9,-82,-92,-106,-82
-76,-86,-10,81,-33,-48,34,8,-81,-90,-107,-81
-69,-86,-17,77,-26,-51,34,8,-81,-87,-107,-81
-66,-86,-20,76,-23,-53,33,10,-82,-86,-106,-81
-67,-86,-19,76,-24,-52,33,13,-82,-86,-106,-81
-70,-87,-17,78,-26,-52,35,16,-80,-86,-107,-83
-72,-90,-18,81,-27,-54,38,18,-78,-86,-107,-86
-73,-95,-22,84,-25,-58,39,19,-76,-88,-106,-89
-73,-101,-28,87,-22,-64,39,18,-73,-91,-106,-91
-71,-102,-31,86,-20,-66,38,20,-71,-92,-107,-92
-68,-102,-34,85,-17,-68,38,23,-68,-92,-106,-91
-66,-102,-36,84,-15,-69,39,24,-65,-91,-107,-93
-63,-102,-39,82,-12,-70,38,24,-63,-91,-107,-96
-60,-100,-40,80,-10,-70,39,23,-62,-92,-106,-97
-58,-97,-39,77,-9,-68,39,23,-63,-92,-106,-97
-58,-96,-38,77,-10,-67,38,25,-61,-90,-107,-95
-61,-96,-35,78,-13,-65,38,28,-58,-87,-107,-92
-66,-97,-31,81,-17,-64,40,30,-56,-86,-106,-91
-72,-97,-25,84,-23,-61,42,33,-53,-86,-106,-91
-74,-95,-21,84,-26,-58,43,36,-50,-87,-107,-91
-73,-92,-19,82,-27,-55,43,38,-48,-87,-107,-91
-71,-91,-20,81,-25,-55,42,39,-47,-86,-106,-93
-68,-91,-23,79,-22,-57,42,39,-47,-87,-106,-96
-67,-92,-25,79,-21,-58,43,38,-48,-86,-108,-97
-67,-92,-25,79,-21,-58,42,38,-48,-86,-111,-97
-68,-90,-22,79,-23,-56,43,40,-47,-87,-112,-95
-68,-87,-19,77,-24,-53,43,42,-47,-87,-112,-92
-67,-86,-19,76,-24,-52,42,44,-48,-85,-110,-91
-67,-86,-19,76,-24,-52,42,47,-48,-82,-107,-91
-67,-86,-19,76,-24,-52,44,50,-46,-81,-106,-92
-67,-86,-19,76,-24,-52,47,52,-43,-81,-106,-92
-68,-88,-20,78,-24,-54,48,53,-42,-82,-107,-91
-68,-91,-23,79,-22,-57,48,53,-43,-81,-107,-91
-67,-92,-25,79,-21,-58,47,52,-42,-82,-106,-92
-67,-91,-24,79,-21,-57,47,53,-39,-82,-106,-92
-68,-92,-24,80,-22,-58,48,52,-36,-80,-107,-90
-68,-92,-24,80,-22,-58,48,52,-34,-78,-107,-87
-65,-88,-23,76,-21,-55,47,54,-33,-77,-105,-86
-59,-83,-24,71,-17,-53,48,57,-33,-77,-102,-86
-54,-79,-25,66,-14,-52,47,60,-34,-78,-101,-87
-53,-78,-25,65,-14,-51,47,62,-34,-78,-101,-86
-53,-77,-24,65,-14,-50,48,63,-32,-77,-101,-87
-53,-77,-24,65,-14,-50,48,62,-30,-77,-101,-87
-48,-78,-30,63,-9,-54,47,64,-25,-78,-103,-85
-43,-78,-35,60,-4,-56,47,67,-20,-78,-106,-82
-45,-76,-31,60,-7,-53,49,70,-16,-76,-107,-80
-51,-73,-22,62,-14,-47,52,72,-14,-73,-107,-78
-54,-71,-17,62,-18,-44,53,73,-13,-72,-105,-76
-53,-68,-15,60,-19,-41,53,73,-13,-73,-102,-73
-51,-66,-15,58,-18,-40,52,72,-14,-71,-100,-72
-52,-63,-11,57,-20,-37,53,72,-13,-68,-98,-72
-56,-61,-5,58,-25,-33,52,74,-14,-66,-93,-73
-61,-58,3,59,-32,-27,52,77,-14,-63,-88,-73
-63,-56,7,59,-35,-24,54,79,-12,-61,-84,-71
-63,-53,10,58,-36,-21,57,81,-9,-58,-82,-68
-63,-50,13,56,-38,-18,60,81,-6,-55,-80,-65
-63,-48,15,55,-39,-16,62,81,-4,-53,-78,-63
-61,-47,14,54,-37,-16,63,83,-3,-52,-77,-62
-58,-44,14,51,-36,-15,62,86,-3,-53,-77,-63
-58,-37,21,47,-39,-8,64,87,-4,-51,-78,-61
-61,-30,31,45,-46,0,67,87,-4,-48,-78,-58
-67,-28,39,47,-53,5,68,86,-2,-47,-76,-56
-72,-29,43,50,-57,7,68,86,0,-48,-73,-54
-73,-25,48,49,-60,11,67,87,1,-47,-71,-49
-73,-20,53,46,-63,16,67,87,3,-44,-68,-43
-72,-18,54,45,-63,18,69,86,6,-39,-66,-42
-72,-19,53,45,-62,17,72,86,8,-35,-63,-43
-72,-16,56,44,-64,20,73,87,9,-31,-61,-40
-72,-10,62,41,-67,26,73,87,8,-29,-59,-35
-73,-4,69,38,-71,32,73,85,10,-29,-54,-29
-73,1,74,36,-73,37,73,82,13,-29,-49,-25
-71,9,80,31,-75,44,71,79,14,-25,-45,-22
-71,17,88,27,-79,52,68,78,17,-19,-43,-19
-78,22,100,28,-89,61,67,78,25,-18,-40,-15
-89,23,112,33,-100,67,67,81,36,-19,-35,-10
-95,24,119,35,-107,71,67,82,44,-16,-30,-5
-93,26,119,33,-106,72,67,82,47,-10,-25,-1
-85,37,122,24,-103,79,69,80,48,-5,-20,3
-74,50,124,12,-99,87,72,78,47,-1,-15,7
-71,56,127,7,-99,91,73,78,49,3,-10,12
-72,57,129,7,-100,93,73,78,52,7,-5,17
-73,62,135,5,-104,98,72,76,54,12,0,22
-73,70,143,1,-108,106,72,73,56,17,2,27
-73,76,149,-1,-111,112,73,73,63,22,6,32
-73,80,153,-3,-113,116,73,73,71,27,12,37
-72,87,159,-7,-115,123,72,69,75,32,19,43
-72,98,170,-13,-121,134,72,64,77,37,27,51
-76,110,186,-17,-131,148,73,61,78,43,32,56
-81,120,201,-19,-141,160,73,62,81,51,37,61
-78,123,201,-22,-139,162,69,62,84,57,43,68
-67,124,191,-28,-129,157,64,59,86,62,51,76
-52,131,183,-39,-117,157,61,52,85,64,56,81
-40,139,179,-49,-109,159,62,44,82,67,61,85
-40,142,182,-51,-111,162,63,40,82,70,69,90
-49,140,189,-45,-119,164,62,39,85,76,79,95
-62,142,204,-40,-133,173,63,39,90,82,86,100
-71,148,219,-38,-145,183,63,39,95,89,90,105
-72,156,228,-42,-150,192,61,38,100,99,96,111
-65,163,228,-49,-146,195,58,35,105,109,104,119
-55,168,223,-56,-139,195,58,30,110,115,113,127
-45,173,218,-64,-131,195,58,24,115,116,120,134
-38,178,216,-70,-127,197,55,23,120,118,124,139
-34,183,217,-74,-125,200,49,24,124,123,129,144
-33,187,220,-77,-126,203,44,22,128,131,136,149
-34,189,223,-77,-128,206,40,19,130,139,144,154
-32,190,222,-79,-127,206,36,19,130,143,146,158
-29,189,218,-80,-123,203,34,22,130,144,145,160
-26,190,216,-82,-121,203,33,26,134,150,149,163
-24,193,217,-84,-120,205,33,28,143,158,158,168
-23,199,222,-88,-122,210,34,30,152,166,166,173
-23,206,229,-91,-126,217,34,33,162,172,172,178
-25,215,240,-95,-132,227,32,35,171,180,180,182
-25,222,247,-98,-136,234,29,38,178,188,188,184
-16,225,241,-104,-128,233,26,40,181,192,192,185
-2,224,226,-111,-114,225,24,42,180,193,194,185
2,223,221,-112,-109,222,23,45,180,199,196,185
0,223,223,-111,-111,223,23,51,183,206,199,185
0,224,224,-112,-112,224,24,57,189,212,202,183
6,224,218,-115,-106,221,24,62,197,214,203,181
16,222,206,-119,-95,214,22,63,205,212,202,177
27,219,192,-123,-82,205,19,62,212,209,200,175
30,217,187,-123,-78,202,19,65,216,209,199,176
29,214,185,-121,-78,199,22,70,218,212,199,179
29,212,183,-120,-77,197,27,78,219,215,199,181
32,209,177,-120,-72,193,29,85,222,218,199,180
36,207,171,-121,-67,189,26,89,229,220,201,176
38,204,166,-121,-64,185,20,91,237,223,203,171
40,202,162,-121,-61,182,17,94,241,224,204,167
42,200,158,-121,-58,179,18,99,243,224,204,165
44,197,153,-120,-54,175,19,107,245,223,201,162
46,191,145,-118,-49,168,19,115,247,223,196,157
52,184,132,-118,-40,158,18,120,248,224,191,151
57,177,120,-117,-31,148,18,124,248,224,186,147
57,170,113,-113,-28,141,19,129,247,223,181,144
53,165,112,-109,-29,138,19,134,247,220,176,142
52,164,112,-108,-30,138,17,137,248,214,173,136
53,162,109,-107,-28,135,14,139,248,206,171,128
50,155,105,-102,-27,130,13,144,246,199,166,122
44,144,100,-94,-28,122,13,150,244,195,158,118
41,134,93,-87,-26,113,15,151,242,193,150,113
42,128,86,-85,-22,107,18,150,240,191,142,108
45,121,76,-83,-15,98,19,152,235,185,136,103
50,113,63,-81,-6,88,19,155,230,177,132,98
58,108,50,-83,4,79,17,156,226,171,128,93
66,103,37,-84,14,70,14,155,224,166,123,88
70,98,28,-84,21,63,13,157,222,160,117,81
69,93,24,-81,22,58,13,160,220,153,109,74
64,86,22,-75,21,54,14,161,215,145,101,70
58,79,21,-68,18,50,14,161,210,138,94,68
57,75,18,-66,19,46,13,159,205,131,87,65
58,73,15,-65,21,44,13,157,201,126,82,59
56,72,16,-64,20,44,14,152,197,124,80,54
53,69,16,-61,18,42,14,147,192,123,78,49
52,63,11,-57,20,37,13,143,183,117,75,43
53,55,2,-54,25,28,13,141,172,109,70,36
51,47,-4,-49,27,21,14,139,165,101,62,28
48,40,-8,-44,28,16,14,137,162,93,55,20
46,34,-12,-40,29,11,12,132,158,88,48,16
43,30,-13,-36,28,8,9,127,152,84,44,14
41,27,-14,-34,27,6,8,123,146,75,40,12
39,25,-14,-32,26,5,9,118,138,65,35,9
38,20,-18,-29,28,1,7,111,129,59,28,8
38,15,-23,-26,30,-4,4,103,119,57,20,8
39,11,-28,-25,33,-8,3,100,111,58,15,9
39,9,-30,-24,34,-10,4,98,103,58,14,9
36,6,-30,-21,33,-12,3,92,98,55,14,6
30,4,-26,-17,28,-11,0,83,93,49,14,4
26,5,-21,-15,23,-8,-1,79,87,44,12,5
27,8,-19,-17,23,-5,-3,78,82,40,9,8
35,10,-25,-22,30,-7,-4,75,81,37,8,8
45,9,-36,-27,40,-13,-4,70,82,34,9,5
49,6,-43,-27,46,-18,-2,62,78,32,7,0
44,1,-43,-22,43,-21,0,54,70,29,4,-3
39,-3,-42,-18,40,-22,0,50,63,27,1,-4
34,-7,-41,-13,37,-24,0,48,58,24,0,-4
33,-11,-44,-11,38,-27,0,46,57,22,0,-3
33,-13,-46,-10,39,-29,0,43,58,20,0,-3
33,-14,-47,-9,40,-30,-1,41,55,15,-2,-5
30,-13,-43,-8,36,-28,-3,39,49,10,-7,-8
24,-15,-39,-4,31,-27,-4,37,44,8,-9,-9
19,-17,-36,-1,27,-26,-3,34,39,8,-9,-8
19,-21,-40,1,29,-30,-5,31,38,8,-8,-10
22,-23,-45,0,33,-34,-7,29,38,5,-8,-12
27,-24,-51,-1,39,-37,-11,28,39,0,-9,-16
29,-23,-52,-3,40,-37,-13,29,39,-3,-9,-18
26,-25,-51,0,38,-38,-14,27,37,-4,-8,-19
20,-28,-48,4,34,-38,-14,24,34,-3,-8,-18
17,-29,-46,6,31,-37,-14,22,32,-5,-12,-20
18,-29,-47,5,32,-38,-14,19,29,-7,-17,-23
18,-28,-46,5,32,-37,-12,16,27,-11,-20,-24
15,-29,-44,7,29,-36,-9,14,24,-13,-19,-24
9,-28,-37,9,23,-32,-8,13,22,-13,-18,-23
4,-28,-32,12,18,-30,-8,14,19,-13,-18,-23
6,-30,-36,12,21,-33,-9,12,16,-15,-20,-26
12,-33,-45,10,28,-39,-9,9,14,-18,-23,-32
16,-34,-50,9,33,-42,-8,8,13,-19,-24,-36
15,-34,-49,9,32,-41,-8,9,13,-18,-24,-38
10,-33,-43,11,26,-38,-9,7,13,-20,-23,-39
5,-33,-38,14,21,-35,-9,4,13,-23,-23,-39
3,-35,-38,16,20,-36,-8,2,15,-24,-25,-39
3,-38,-41,17,22,-39,-8,0,18,-24,-28,-39
4,-39,-43,17,23,-41,-9,-1,19,-23,-29,-37
3,-39,-42,18,22,-40,-8,-3,19,-24,-29,-34
4,-39,-43,17,23,-41,-9,-4,17,-23,-28,-31
7,-39,-46,16,26,-42,-9,-4,14,-23,-28,-29
12,-36,-48,12,30,-42,-8,-3,12,-25,-29,-28
17,-30,-47,6,32,-38,-8,-3,9,-28,-29,-28
21,-24,-45,1,33,-34,-9,-5,7,-29,-28,-29
23,-19,-42,-2,32,-30,-9,-8,4,-29,-28,-29
23,-18,-41,-2,32,-29,-8,-9,3,-28,-29,-28
23,-18,-41,-2,32,-29,-8,-9,3,-28,-29,-28
25,-18,-43,-3,34,-30,-9,-8,4,-29,-28,-28
25,-18,-43,-3,34,-30,-9,-9,4,-29,-28,-28
17,-20,-37,1,27,-28,-7,-8,2,-28,-29,-29
5,-23,-28,9,16,-25,-4,-8,0,-28,-29,-29
4,-25,-29,10,16,-27,-2,-10,0,-30,-28,-28
11,-27,-38,8,24,-32,-3,-13,0,-33,-28,-28
17,-32,-49,7,33,-40,-7,-16,-1,-36,-30,-30
18,-37,-55,9,36,-46,-12,-18,-3,-38,-33,-33
19,-40,-59,10,39,-49,-15,-19,-4,-39,-34,-34
16,-39,-55,11,35,-47,-14,-19,-4,-39,-34,-34
6,-37,-43,15,24,-40,-13,-17,-3,-38,-33,-33
-6,-34,-28,20,11,-31,-13,-14,-3,-38,-33,-33
-11,-33,-22,22,5,-27,-13,-11,-5,-39,-34,-34
-10,-33,-23,21,6,-28,-13,-9,-8,-39,-34,-34
-5,-34,-29,19,12,-31,-14,-8,-9,-37,-33,-32
-1,-34,-33,17,16,-33,-14,-8,-9,-34,-33,-29
1,-33,-34,16,17,-33,-12,-10,-8,-33,-34,-26
3,-33,-36,15,19,-34,-9,-13,-9,-33,-34,-24
7,-34,-41,13,24,-37,-9,-15,-8,-35,-33,-23
15,-34,-49,9,32,-41,-12,-18,-8,-38,-33,-23
27,-33,-60,3,43,-46,-17,-20,-10,-40,-34,-25
37,-33,-70,-2,53,-51,-22,-23,-13,-42,-34,-28
38,-35,-73,-1,55,-54,-24,-24,-14,-43,-33,-29
31,-38,-69,3,50,-53,-24,-24,-14,-43,-33,-29
22,-39,-61,8,41,-50,-24,-23,-13,-42,-34,-28
15,-39,-54,12,34,-46,-24,-23,-14,-39,-34,-28
12,-38,-50,13,31,-44,-22,-24,-13,-37,-32,-29
13,-38,-51,12,32,-44,-20,-24,-13,-34,-29,-29
14,-39,-53,12,33,-46,-16,-23,-15,-33,-28,-28
14,-39,-53,12,33,-46,-14,-24,-18,-33,-28,-28
13,-38,-51,12,32,-44,-13,-23,-19,-35,-30,-29
13,-39,-52,13,32,-45,-13,-23,-19,-38,-33,-29
14,-38,-52,12,33,-45,-14,-24,-17,-39,-34,-28
14,-38,-52,12,33,-45,-14,-24,-14,-39,-33,-28
13,-39,-52,13,32,-45,-14,-23,-13,-38,-35,-29
13,-39,-52,13,32,-45,-14,-23,-13,-38,-38,-29
14,-38,-52,12,33,-45,-13,-25,-15,-39,-40,-28
14,-38,-52,12,33,-45,-13,-28,-18,-39,-42,-28
13,-39,-52,13,32,-45,-15,-29,-19,-38,-43,-29
13,-42,-55,14,34,-48,-18,-29,-19,-38,-43,-29
14,-45,-59,15,36,-52,-21,-28,-18,-40,-42,-28
14,-47,-61,16,37,-54,-23,-28,-18,-42,-42,-28
13,-48,-61,17,37,-54,-24,-29,-19,-42,-43,-29
13,-48,-61,17,37,-54,-24,-29,-19,-40,-43,-29
16,-48,-64,16,40,-56,-22,-28,-18,-35,-41,-27
19,-48,-67,14,43,-57,-19,-28,-18,-30,-39,-24
16,-46,-62,15,39,-54,-18,-29,-19,-28,-38,-23
10,-43,-53,16,31,-48,-18,-29,-19,-28,-38,-23
9,-41,-50,16,29,-45,-20,-28,-18,-29,-39,-24
12,-39,-51,13,31,-45,-23,-28,-18,-29,-39,-24
14,-38,-52,12,33,-45,-24,-29,-20,-28,-38,-23
14,-38,-52,12,33,-45,-23,-29,-22,-28,-38,-23
13,-39,-52,13,32,-45,-25,-28,-26,-30,-39,-25
14,-39,-53,12,33,-46,-28,-28,-28,-33,-39,-28
13,-38,-51,12,32,-44,-28,-29,-29,-32,-38,-29
13,-38,-51,12,32,-44,-25,-29,-29,-29,-38,-29
15,-39,-54,12,34,-46,-21,-28,-28,-28,-39,-28
18,-39,-57,10,37,-48,-19,-28,-28,-28,-39,-28
19,-38,-57,9,38,-47,-18,-29,-29,-29,-38,-29
19,-38,-57,9,38,-47,-18,-29,-29,-29,-38,-29
18,-39,-57,10,37,-48,-19,-28,-28,-28,-39,-28
18,-39,-57,10,37,-48,-19,-28,-28,-28,-39,-28
19,-37,-56,9,37,-46,-18,-29,-29,-29,-38,-29
19,-35,-54,8,36,-44,-18,-29,-29,-29,-38,-29
18,-31,-49,6,33,-40,-19,-28,-28,-28,-39,-28
18,-29,-47,5,32,-38,-19,-28,-28,-28,-39,-28
19,-28,-47,4,33,-37,-18,-29,-29,-29,-37,-28
19,-28,-47,4,33,-37,-18,-29,-29,-29,-35,-28
19,-29,-48,5,33,-38,-19,-28,-28,-28,-31,-29
19,-29,-48,5,33,-38,-19,-28,-28,-28,-29,-29
18,-28,-46,5,32,-37,-18,-29,-28,-29,-28,-28
18,-28,-46,5,32,-37,-18,-29,-28,-29,-28,-28
19,-28,-47,4,33,-37,-19,-28,-29,-28,-29,-29
19,-28,-47,4,33,-37,-19,-28,-29,-28,-29,-29
18,-29,-47,5,32,-38,-18,-29,-28,-29,-28,-28
18,-29,-47,5,32,-38,-18,-29,-28,-29,-28,-28
19,-28,-47,4,33,-37,-19,-28,-29,-28,-29,-29
19,-28,-47,4,33,-37,-19,-28,-29,-28,-29,-29
17,-30,-47,6,32,-38,-18,-29,-28,-29,-28,-27
15,-32,-47,8,31,-39,-18,-29,-28,-29,-28,-25
11,-36,-47,12,29,-41,-19,-28,-29,-28,-29,-21
9,-38,-47,14,28,-42,-19,-28,-29,-28,-29,-19
8,-39,-47,15,27,-43,-18,-29,-28,-29,-28,-18
8,-39,-47,15,27,-43,-18,-29,-28,-29,-28,-18
9,-38,-47,14,28,-42,-19,-28,-29,-28,-29,-19
9,-38,-47,14,28,-42,-19,-28,-29,-28,-29,-19
8,-39,-47,15,27,-43,-17,-29,-27,-29,-28,-18
8,-39,-47,15,27,-43,-15,-28,-25,-29,-28,-18
9,-38,-47,14,28,-42,-11,-28,-21,-28,-29,-18
9,-38,-47,14,28,-42,-9,-28,-19,-28,-29,-18
6,-39,-45,16,25,-42,-8,-29,-18,-29,-27,-19
0,-39,-39,19,19,-39,-8,-28,-18,-29,-25,-19
-10,-38,-28,24,9,-33,-8,-29,-19,-28,-21,-18
-18,-38,-20,28,1,-29,-8,-28,-19,-28,-19,-18
-17,-39,-22,28,2,-30,-10,-28,-19,-29,-18,-20
-11,-39,-28,25,8,-33,-12,-28,-19,-29,-19,-22
-5,-38,-33,21,14,-35,-16,-29,-18,-28,-18,-26
-1,-38,-37,19,18,-37,-18,-28,-18,-28,-18,-28
3,-39,-42,18,22,-40,-19,-28,-20,-30,-21,-29
11,-39,-50,14,30,-44,-19,-28,-22,-32,-26,-29
19,-38,-57,9,38,-47,-18,-28,-26,-36,-33,-28
27,-38,-65,5,46,-51,-18,-28,-28,-38,-38,-28
30,-39,-69,4,49,-54,-19,-28,-29,-39,-39,-29
29,-39,-68,5,48,-53,-19,-28,-29,-39,-39,-29
29,-38,-67,4,48,-52,-18,-29,-28,-38,-38,-28
29,-38,-67,4,48,-52,-18,-28,-28,-38,-38,-28
26,-38,-64,6,45,-51,-19,-29,-29,-39,-39,-29
21,-38,-59,8,40,-48,-19,-28,-29,-39,-39,-29
14,-39,-53,12,33,-46,-18,-29,-28,-38,-38,-28
9,-39,-48,15,28,-43,-18,-29,-28,-38,-38,-28
10,-38,-48,14,29,-43,-19,-28,-29,-39,-39,-29
16,-38,-54,11,35,-46,-19,-28,-29,-39,-39,-29
23,-39,-62,8,42,-50,-18,-29,-28,-38,-38,-28
28,-39,-67,5,47,-53,-18,-29,-28,-38,-38,-28
29,-38,-67,4,48,-52,-19,-28,-29,-39,-39,-29
29,-38,-67,4,48,-52,-19,-28,-29,-39,-39,-29
29,-39,-68,5,48,-53,-18,-29,-28,-38,-39,-28
29,-39,-68,5,48,-53,-18,-29,-28,-38,-39,-28
27,-38,-65,5,46,-51,-19,-28,-29,-39,-38,-29
25,-38,-63,6,44,-50,-19,-28,-29,-39,-38,-29
21,-39,-60,9,40,-49,-18,-29,-28,-38,-39,-28
19,-39,-58,10,38,-48,-18,-29,-28,-38,-39,-28
18,-38,-56,10,37,-47,-19,-28,-30,-39,-38,-30
18,-38,-56,10,37,-47,-19,-28,-32,-39,-38,-32
19,-39,-58,10,38,-48,-18,-29,-36,-38,-39,-36
19,-39,-58,10,38,-48,-18,-29,-38,-38,-39,-38
18,-38,-56,10,37,-47,-19,-28,-39,-38,-38,-39
18,-38,-56,10,37,-47,-19,-28,-39,-38,-38,-39
19,-39,-58,10,38,-48,-18,-29,-39,-39,-39,-38
19,-39,-58,10,38,-48,-18,-29,-39,-39,-39,-38
18,-37,-55,9,36,-46,-19,-28,-37,-38,-35,-39
18,-35,-53,8,35,-44,-19,-28,-35,-38,-27,-39
19,-31,-50,6,34,-40,-18,-29,-31,-39,-17,-38
19,-29,-48,5,33,-38,-18,-29,-29,-39,-9,-38
18,-28,-46,5,32,-37,-20,-28,-28,-38,-11,-38
18,-28,-46,5,32,-37,-22,-28,-28,-38,-20,-38
19,-29,-48,5,33,-38,-26,-29,-29,-39,-30,-39
19,-29,-48,5,33,-38,-28,-29,-29,-39,-37,-39
18,-28,-46,5,32,-37,-29,-28,-28,-38,-40,-38
18,-28,-46,5,32,-37,-29,-28,-28,-38,-39,-38
19,-29,-48,5,33,-38,-29,-29,-29,-39,-38,-39
19,-29,-48,5,33,-38,-29,-29,-29,-39,-39,-39
17,-28,-45,5,31,-36,-27,-28,-28,-38,-37,-37
15,-28,-43,6,29,-35,-25,-28,-28,-38,-35,-35
11,-28,-39,8,25,-33,-21,-29,-29,-39,-31,-31
9,-28,-37,9,23,-32,-19,-29,-29,-39,-29,-29
8,-29,-37,10,22,-33,-18,-28,-28,-38,-28,-28
8,-29,-37,10,22,-33,-18,-28,-28,-38,-28,-28
9,-28,-37,9,23,-32,-19,-29,-29,-39,-29,-29
9,-28,-37,9,23,-32,-19,-29,-29,-39,-29,-29
8,-29,-37,10,22,-33,-18,-28,-28,-37,-27,-27
8,-29,-37,10,22,-33,-18,-28,-28,-35,-25,-25
9,-28,-37,9,23,-32,-19,-29,-29,-31,-21,-21
9,-28,-37,9,23,-32,-19,-29,-29,-29,-19,-19
8,-30,-38,11,23,-34,-18,-28,-29,-28,-18,-18
8,-32,-40,12,24,-36,-18,-28,-29,-28,-18,-18
9,-36,-45,13,27,-40,-19,-29,-28,-29,-19,-18
9,-38,-47,14,28,-42,-19,-29,-28,-29,-19,-18
8,-39,-47,15,27,-43,-18,-27,-29,-28,-18,-20
8,-39,-47,15,27,-43,-18,-25,-29,-28,-18,-22
9,-38,-47,14,28,-42,-19,-21,-28,-29,-19,-26
9,-38,-47,14,28,-42,-19,-19,-28,-29,-19,-28
9,-39,-48,15,28,-43,-18,-18,-29,-28,-18,-29
9,-39,-48,15,28,-43,-18,-18,-29,-28,-18,-29
8,-38,-46,15,27,-42,-19,-19,-28,-29,-19,-28
8,-38,-46,15,27,-42,-19,-19,-28,-29,-19,-28
9,-39,-48,15,28,-43,-18,-18,-29,-29,-18,-29
9,-39,-48,15,28,-43,-18,-18,-29,-29,-18,-29
8,-38,-46,15,27,-42,-19,-19,-28,-28,-19,-28
8,-38,-46,15,27,-42,-19,-19,-28,-28,-19,-28
9,-39,-48,15,28,-43,-18,-19,-29,-29,-18,-29
9,-39,-48,15,28,-43,-18,-19,-29,-29,-18,-29
8,-39,-47,15,27,-43,-19,-18,-28,-28,-19,-28
8,-39,-47,15,27,-43,-19,-18,-28,-28,-19,-28
9,-38,-47,14,28,-42,-18,-19,-30,-29,-18,-29
9,-38,-47,14,28,-42,-18,-19,-32,-29,-18,-29
8,-39,-47,15,27,-43,-19,-18,-36,-28,-19,-28
8,-39,-47,15,27,-43,-19,-18,-38,-28,-19,-28
10,-38,-48,14,29,-43,-18,-20,-39,-30,-18,-30
12,-38,-50,13,31,-44,-18,-22,-39,-32,-18,-32
15,-39,-54,12,34,-46,-19,-26,-38,-36,-18,-36
18,-39,-57,10,37,-48,-19,-28,-38,-38,-18,-38
19,-38,-57,9,38,-47,-18,-29,-39,-39,-19,-39
19,-38,-57,9,38,-47,-18,-29,-39,-39,-19,-39
18,-39,-57,10,37,-48,-19,-29,-38,-38,-18,-39
18,-39,-57,10,37,-48,-19,-29,-38,-38,-18,-39
20,-37,-57,8,38,-47,-18,-27,-39,-39,-19,-37
22,-35,-57,6,39,-46,-18,-25,-39,-39,-19,-35
25,-31,-56,3,40,-43,-19,-21,-38,-38,-18,-31
28,-29,-57,0,42,-43,-19,-19,-38,-38,-18,-29
29,-28,-57,0,43,-42,-18,-18,-39,-38,-19,-28
29,-28,-57,0,43,-42,-18,-19,-39,-38,-19,-28
28,-29,-57,0,42,-43,-19,-18,-38,-39,-18,-29
28,-29,-57,0,42,-43,-19,-18,-38,-39,-18,-29
29,-28,-57,0,43,-42,-18,-21,-38,-38,-19,-28
28,-28,-56,0,42,-42,-18,-26,-38,-38,-19,-28
29,-28,-57,0,43,-42,-19,-33,-39,-39,-18,-29
29,-28,-57,0,43,-42,-19,-37,-39,-39,-18,-29
28,-29,-57,0,42,-43,-18,-39,-38,-37,-19,-29
28,-29,-57,0,42,-43,-18,-39,-38,-35,-19,-29
29,-28,-57,0,43,-42,-19,-38,-39,-32,-18,-28
29,-28,-57,0,43,-42,-19,-38,-39,-29,-18,-28
26,-30,-56,2,41,-43,-18,-39,-38,-28,-19,-29
21,-32,-53,5,37,-42,-18,-39,-38,-28,-19,-29
14,-36,-50,11,32,-43,-19,-38,-39,-29,-18,-28
9,-38,-47,14,28,-42,-19,-38,-39,-29,-18,-28
10,-39,-49,14,29,-44,-18,-39,-38,-28,-20,-30
16,-39,-55,11,35,-47,-18,-39,-38,-28,-22,-32
23,-39,-62,8,42,-50,-19,-38,-39,-29,-25,-35
27,-39,-66,6,46,-52,-19,-38,-39,-29,-28,-38
30,-37,-67,3,48,-52,-18,-39,-37,-28,-29,-39
29,-35,-64,3,46,-49,-18,-39,-35,-28,-29,-39
27,-32,-59,2,43,-45,-19,-37,-31,-29,-27,-37
24,-29,-53,2,38,-41,-19,-34,-29,-29,-24,-34
24,-28,-52,2,38,-40,-18,-33,-28,-28,-23,-33
24,-28,-52,2,38,-40,-18,-33,-28,-28,-24,-34
21,-29,-50,4,35,-39,-19,-34,-28,-29,-22,-32
18,-29,-47,5,32,-38,-19,-34,-28,-29,-19,-29
22,-28,-50,3,36,-39,-18,-33,-30,-28,-18,-28
28,-28,-56,0,42,-42,-18,-34,-33,-28,-18,-28
27,-29,-56,1,41,-42,-19,-33,-34,-29,-18,-29
21,-29,-50,4,35,-39,-19,-33,-34,-29,-18,-29
16,-28,-44,6,30,-36,-18,-34,-32,-28,-20,-28
17,-28,-45,5,31,-36,-18,-34,-29,-28,-22,-28
22,-29,-51,3,36,-40,-19,-32,-28,-29,-26,-28
27,-29,-56,1,41,-42,-19,-29,-28,-29,-28,-28
30,-28,-58,-1,44,-43,-18,-28,-29,-28,-29,-29
29,-28,-57,0,43,-42,-18,-28,-29,-28,-28,-29
28,-30,-58,1,43,-44,-19,-29,-28,-30,-30,-28
28,-33,-61,2,44,-47,-19,-29,-28,-33,-33,-28
30,-33,-63,1,46,-48,-18,-28,-30,-34,-34,-30
32,-30,-62,-1,47,-46,-18,-28,-33,-34,-34,-32
36,-26,-62,-5,49,-44,-19,-29,-34,-33,-34,-35
38,-24,-62,-7,50,-43,-19,-29,-34,-33,-34,-38
37,-23,-60,-7,48,-41,-18,-28,-33,-34,-32,-39
34,-23,-57,-5,45,-40,-18,-28,-33,-34,-30,-39
33,-25,-58,-4,45,-41,-19,-29,-34,-34,-27,-39
33,-27,-60,-3,46,-43,-19,-29,-34,-34,-24,-39
34,-30,-64,-2,49,-47,-18,-28,-32,-33,-23,-38
34,-33,-67,0,50,-50,-18,-28,-30,-33,-23,-35
32,-34,-66,1,49,-50,-19,-29,-27,-34,-24,-31
30,-34,-64,2,47,-49,-19,-29,-24,-34,-24,-29
27,-32,-59,2,43,-45,-17,-28,-23,-32,-22,-30
24,-29,-53,2,38,-41,-15,-29,-23,-29,-19,-33
23,-28,-51,2,37,-39,-12,-28,-24,-28,-18,-34
23,-28,-51,2,37,-39,-9,-28,-24,-28,-18,-34
24,-29,-53,2,38,-41,-8,-29,-23,-28,-19,-33
24,-29,-53,2,38,-41,-8,-29,-23,-28,-19,-33
23,-28,-51,2,37,-39,-9,-28,-23,-30,-18,-33
23,-28,-51,2,37,-39,-9,-28,-23,-33,-18,-33
24,-29,-53,2,38,-41,-9,-29,-24,-34,-20,-34
24,-28,-52,2,38,-40,-9,-29,-24,-34,-23,-34
24,-29,-53,2,38,-41,-8,-28,-23,-32,-24,-32
24,-29,-53,2,38,-41,-8,-28,-23,-29,-24,-29
23,-28,-51,2,37,-39,-10,-29,-25,-28,-23,-28
23,-28,-51,2,37,-39,-12,-29,-27,-28,-23,-28
24,-29,-53,2,38,-41,-16,-28,-30,-29,-24,-29
24,-29,-53,2,38,-41,-18,-28,-33,-29,-24,-29
23,-27,-50,2,36,-38,-17,-29,-34,-28,-22,-28
23,-24,-47,0,35,-35,-14,-29,-34,-28,-19,-28
25,-23,-48,-1,36,-35,-13,-27,-34,-29,-18,-29
27,-24,-51,-1,39,-37,-13,-24,-34,-29,-18,-29
30,-23,-53,-3,41,-38,-14,-24,-32,-28,-19,-27
32,-20,-52,-6,42,-36,-14,-27,-29,-28,-19,-24
36,-16,-52,-10,44,-34,-14,-31,-28,-29,-18,-23
38,-14,-52,-12,45,-33,-14,-33,-28,-29,-18,-23
37,-14,-51,-11,44,-32,-13,-34,-30,-28,-19,-23
34,-17,-51,-8,42,-34,-13,-33,-32,-28,-19,-23
33,-20,-53,-6,43,-36,-15,-35,-35,-30,-18,-25
33,-23,-56,-5,44,-39,-18,-38,-38,-33,-18,-28
33,-24,-57,-4,45,-40,-19,-39,-39,-34,-19,-29
33,-24,-57,-4,45,-40,-18,-39,-38,-34,-19,-29
35,-22,-57,-6,46,-39,-20,-38,-40,-33,-18,-28
38,-19,-57,-9,47,-38,-23,-38,-42,-33,-18,-28
39,-19,-58,-10,48,-38,-24,-38,-43,-34,-18,-28
39,-22,-61,-8,50,-41,-24,-38,-43,-34,-18,-28
37,-26,-63,-5,50,-44,-22,-39,-42,-34,-19,-29
34,-28,-62,-3,48,-45,-19,-39,-42,-34,-19,-29
33,-29,-62,-2,47,-45,-18,-37,-42,-33,-18,-27
33,-29,-62,-2,47,-45,-18,-34,-42,-33,-18,-24
34,-28,-62,-3,48,-45,-19,-33,-43,-34,-19,-23
34,-28,-62,-3,48,-45,-19,-33,-43,-34,-19,-23
32,-29,-61,-1,46,-45,-17,-33,-42,-33,-18,-24
30,-29,-59,0,44,-44,-15,-33,-40,-30,-18,-24
26,-27,-53,0,39,-40,-12,-35,-37,-25,-19,-23
24,-24,-48,0,36,-36,-9,-38,-34,-20,-19,-23
25,-23,-48,-1,36,-35,-8,-38,-33,-18,-18,-24
28,-23,-51,-2,39,-37,-9,-35,-33,-18,-18,-24
29,-24,-53,-2,41,-38,-8,-31,-34,-19,-20,-23
29,-24,-53,-2,41,-38,-8,-29,-34,-18,-23,-23
29,-23,-52,-3,40,-37,-11,-28,-33,-19,-24,-25
29,-23,-52,-3,40,-37,-16,-29,-34,-22,-24,-28
27,-24,-51,-1,39,-37,-21,-28,-33,-26,-22,-29
24,-24,-48,0,36,-36,-24,-28,-33,-28,-19,-29
23,-23,-46,0,34,-34,-22,-31,-34,-28,-18,-28
23,-23,-46,0,34,-34,-19,-36,-34,-25,-18,-29
25,-24,-49,0,37,-36,-18,-42,-33,-22,-18,-28
28,-24,-52,-2,40,-38,-18,-46,-33,-22,-18,-28
29,-23,-52,-3,40,-37,-19,-49,-35,-26,-20,-30
29,-23,-52,-3,40,-37,-19,-46,-38,-32,-22,-32
28,-24,-52,-2,40,-38,-16,-34,-37,-35,-25,-35
28,-27,-55,0,41,-41,-11,-16,-28,-34,-27,-40
29,-33,-62,2,45,-47,-5,3,-14,-31,-31,-48
31,-38,-69,3,50,-53,1,24,10,-19,-28,-56
39,-36,-75,-1,57,-55,8,52,52,16,-9,-55
55,-24,-79,-15,67,-51,11,82,108,75,32,-39
79,-8,-87,-35,83,-47,0,105,167,150,93,-6
114,13,-101,-63,107,-44,-17,123,228,238,169,41
163,44,-119,-103,141,-37,-31,145,297,333,252,101
221,84,-137,-152,179,-26,-37,187,389,441,345,166
279,133,-146,-206,212,-6,-40,272,519,572,455,226
334,183,-151,-258,242,16,-41,380,661,707,568,276
392,223,-169,-307,280,27,-46,470,762,807,654,313
443,252,-191,-347,317,30,-51,524,815,869,711,340
473,280,-193,-376,333,43,-54,544,847,917,749,369
489,312,-177,-400,333,67,-55,538,871,960,782,404
512,351,-161,-431,336,95,-63,514,884,998,817,445
539,393,-146,-466,342,123,-75,476,869,1007,839,485
549,431,-118,-490,333,156,-79,423,795,952,822,509
543,464,-79,-503,311,192,-75,355,681,851,774,522
536,501,-35,-518,285,233,-67,272,576,759,728,536
508,534,26,-521,241,280,-56,156,463,661,672,547
419,541,122,-480,148,331,-46,-22,281,499,563,533
280,520,240,-400,20,380,-34,-234,45,283,408,490
136,480,344,-308,-104,412,-17,-405,-173,74,248,425
16,432,416,-224,-200,424,0,-521,-346,-94,110,349
-62,384,446,-161,-254,415,4,-606,-475,-214,11,280
-115,331,446,-108,-280,388,-1,-669,-567,-296,-55,219
-174,261,435,-43,-304,348,-6,-710,-631,-361,-114,153
-232,173,405,29,-318,289,-17,-736,-673,-413,-170,84
-259,73,332,93,-295,202,-59,-761,-692,-446,-219,17
-253,-19,234,136,-243,107,-122,-778,-692,-458,-257,-36
-238,-81,157,159,-197,38,-177,-771,-674,-451,-281,-72
-216,-108,108,162,-162,0,-203,-724,-630,-427,-286,-91
-177,-113,64,145,-120,-24,-193,-622,-551,-387,-269,-104
-126,-106,20,116,-73,-43,-162,-491,-447,-334,-234,-111
-77,-94,-17,85,-30,-55,-137,-377,-351,-275,-194,-109
-39,-84,-45,61,3,-64,-120,-294,-273,-218,-158,-100
-17,-79,-62,48,22,-70,-93,-229,-210,-174,-129,-90
-9,-78,-69,43,30,-73,-56,-174,-161,-144,-108,-81
-8,-75,-67,41,29,-71,-24,-127,-125,-123,-93,-72
-9,-70,-61,39,26,-65,-4,-91,-102,-110,-83,-64
-8,-64,-56,36,24,-60,3,-72,-91,-104,-81,-61
-5,-59,-54,32,24,-56,4,-65,-88,-102,-81,-62
-2,-55,-53,28,25,-54,3,-57,-84,-100,-80,-62
0,-53,-53,26,26,-53,6,-44,-77,-95,-75,-62
0,-52,-52,26,26,-52,14,-31,-64,-86,-68,-64
0,-52,-52,26,26,-52,25,-21,-51,-76,-63,-67
0,-53,-53,26,26,-53,34,-17,-44,-69,-65,-68
-1,-56,-55,28,27,-55,40,-15,-42,-67,-71,-68
-11,-60,-49,35,19,-54,46,-9,-43,-69,-74,-67
-25,-65,-40,45,7,-52,51,-1,-43,-72,-73,-67
-30,-71,-41,50,5,-56,54,0,-42,-73,-72,-69
-28,-76,-48,52,10,-62,53,-2,-42,-73,-72,-72
-31,-79,-48,55,8,-63,51,-5,-44,-71,-73,-73
-37,-79,-42,58,2,-60,49,-7,-47,-68,-73,-73
-37,-75,-38,56,0,-56,45,-12,-48,-67,-72,-73
-31,-69,-38,50,3,-53,43,-17,-48,-67,-72,-73
-26,-65,-39,45,6,-52,43,-19,-47,-68,-73,-71
-25,-63,-38,44,6,-50,43,-19,-48,-68,-73,-68
-20,-62,-42,41,11,-52,40,-19,-47,-68,-71,-67
-15,-63,-48,39,16,-55,35,-19,-47,-68,-68,-67
-13,-62,-49,37,18,-55,33,-17,-49,-67,-67,-69
-17,-62,-45,39,14,-53,33,-14,-51,-67,-67,-72
-21,-64,-43,42,11,-53,33,-13,-54,-69,-67,-73
-23,-67,-44,45,10,-55,30,-13,-57,-72,-67,-73
-22,-68,-46,45,12,-57,27,-14,-58,-73,-69,-71
-19,-68,-49,43,15,-58,24,-14,-57,-73,-72,-68
-18,-67,-49,42,15,-58,22,-12,-59,-72,-73,-67
-18,-67,-49,42,15,-58,19,-10,-62,-72,-73,-67
-19,-69,-50,44,15,-59,18,-7,-63,-74,-72,-68
-18,-75,-57,46,19,-66,18,-4,-63,-77,-72,-68
-19,-82,-63,50,22,-72,19,-3,-63,-78,-73,-68
-19,-87,-68,53,24,-77,22,-3,-63,-78,-73,-68
-18,-83,-65,50,23,-74,27,-4,-61,-77,-72,-67
-15,-73,-58,44,21,-65,33,-3,-58,-77,-72,-67
-11,-60,-49,35,19,-54,32,-4,-57,-78,-74,-69
-6,-49,-43,27,18,-46,25,-4,-57,-78,-77,-72
0,-47,-47,23,23,-47,22,-2,-59,-77,-77,-73
3,-51,-54,24,28,-52,23,0,-62,-77,-74,-73
4,-53,-57,24,30,-55,24,0,-63,-78,-71,-71
1,-53,-54,26,27,-53,23,0,-63,-78,-68,-68
-4,-53,-49,28,22,-51,25,0,-61,-77,-67,-67
-14,-56,-42,35,14,-49,28,0,-58,-77,-67,-67
-27,-59,-32,43,2,-45,29,0,-57,-79,-69,-67
-37,-62,-25,49,-6,-43,29,-2,-57,-81,-72,-67
-37,-63,-26,50,-5,-44,28,-5,-57,-82,-73,-69
-30,-63,-33,46,1,-48,28,-8,-57,-82,-73,-72
-28,-62,-34,45,3,-48,29,-9,-59,-82,-72,-73
-30,-62,-32,46,1,-47,29,-9,-61,-82,-73,-72
-23,-62,-39,42,8,-50,28,-7,-64,-81,-72,-74
-11,-62,-51,36,20,-56,28,-4,-66,-79,-72,-77
-8,-63,-55,35,23,-59,29,-3,-69,-76,-74,-78
-12,-63,-51,37,19,-57,29,-3,-72,-73,-77,-78
-14,-62,-48,38,17,-55,28,-4,-73,-72,-78,-77
-14,-62,-48,38,17,-55,28,-4,-73,-72,-77,-78
-14,-65,-51,39,18,-58,29,-3,-72,-74,-78,-77
-17,-71,-54,44,18,-62,29,-4,-72,-77,-81,-77
-20,-75,-55,47,17,-65,27,-3,-73,-79,-82,-78
-22,-77,-55,49,16,-66,24,-3,-73,-81,-82,-81
-26,-79,-53,52,13,-66,23,-4,-72,-83,-81,-83
-31,-81,-50,56,9,-65,23,-4,-72,-86,-82,-85
-37,-83,-46,60,4,-64,24,-2,-73,-87,-81,-88
-41,-85,-44,63,1,-64,24,0,-73,-87,-81,-91
-43,-88,-45,65,1,-66,23,0,-72,-86,-83,-92
-43,-91,-48,67,2,-69,23,0,-72,-86,-86,-92
-41,-92,-51,66,5,-71,24,0,-73,-88,-87,-91
-41,-91,-50,66,4,-70,24,0,-73,-91,-87,-91
-47,-93,-46,70,0,-69,23,0,-72,-92,-86,-92
-56,-96,-40,76,-8,-68,23,0,-72,-92,-86,-92
-56,-97,-41,76,-7,-69,24,0,-73,-90,-87,-91
-50,-97,-47,73,-1,-72,24,0,-73,-87,-87,-91
-46,-97,-51,71,2,-74,23,0,-72,-86,-86,-92
-46,-97,-51,71,2,-74,23,2,-72,-86,-86,-92
-49,-95,-46,72,-1,-70,25,5,-73,-86,-88,-90
-52,-92,-40,72,-6,-66,28,8,-73,-86,-90,-88
-53,-91,-38,72,-7,-64,29,9,-72,-88,-93,-85
-53,-91,-38,72,-7,-64,29,8,-72,-91,-96,-82
-52,-93,-41,72,-5,-67,28,10,-73,-92,-97,-81
-52,-95,-43,73,-4,-69,28,13,-73,-92,-97,-81
-53,-98,-45,75,-4,-71,29,14,-72,-91,-97,-83
-53,-101,-48,77,-2,-74,28,14,-72,-91,-97,-85
-52,-102,-50,77,-1,-76,29,13,-73,-92,-96,-88
-52,-101,-49,76,-1,-75,29,13,-73,-92,-93,-91
-55,-103,-48,79,-3,-75,28,15,-71,-90,-90,-92
-60,-106,-46,83,-7,-76,28,18,-69,-87,-87,-92
-65,-107,-42,86,-11,-74,30,19,-66,-86,-86,-91
-67,-107,-40,87,-13,-73,33,19,-64,-86,-86,-92
-67,-105,-38,86,-14,-71,34,18,-61,-87,-87,-91
-64,-102,-38,83,-13,-70,34,18,-58,-87,-87,-91
-60,-101,-41,80,-9,-71,33,19,-57,-86,-86,-93
-54,-101,-47,77,-3,-74,33,19,-57,-87,-86,-96
-50,-102,-52,76,1,-77,34,18,-58,-86,-88,-97
-48,-102,-54,75,3,-78,33,18,-58,-86,-91,-97
-47,-99,-52,73,2,-75,34,20,-56,-87,-92,-95
-47,-93,-46,70,0,-69,34,22,-54,-87,-92,-92
-48,-90,-42,69,-3,-66,33,25,-51,-85,-90,-91
-48,-88,-40,68,-4,-64,33,27,-49,-82,-87,-91
-46,-84,-38,65,-4,-61,35,30,-46,-81,-86,-92
-44,-79,-35,61,-4,-57,38,33,-43,-81,-86,-92
-41,-75,-34,58,-3,-54,39,34,-42,-82,-87,-91
-39,-73,-34,56,-2,-53,39,34,-43,-81,-87,-91
-38,-72,-34,55,-2,-53,38,33,-42,-82,-86,-92
-38,-72,-34,55,-2,-53,38,34,-40,-82,-86,-92
-38,-73,-35,55,-1,-54,39,33,-37,-81,-87,-90
-38,-73,-35,55,-1,-54,39,33,-34,-79,-87,-88
-39,-72,-33,55,-3,-52,38,35,-33,-76,-85,-85
-41,-72,-31,56,-5,-51,39,37,-33,-74,-82,-83
-45,-74,-29,59,-8,-51,38,40,-34,-71,-81,-80
-50,-77,-27,63,-11,-52,38,42,-33,-69,-82,-78
-56,-78,-22,67,-17,-50,39,43,-34,-66,-81,-78
-61,-78,-17,69,-22,-47,39,42,-34,-63,-78,-78
-63,-78,-15,70,-24,-46,38,43,-32,-61,-77,-76
-63,-78,-15,70,-24,-46,38,46,-30,-59,-77,-73
-62,-76,-14,69,-24,-45,40,49,-27,-56,-78,-72
-59,-74,-15,66,-22,-44,42,52,-24,-53,-78,-72
-53,-71,-18,62,-17,-44,43,53,-23,-52,-76,-73
-45,-68,-23,56,-11,-45,43,53,-23,-52,-73,-73
-40,-66,-26,53,-7,-46,42,51,-24,-53,-72,-72
-41,-64,-23,52,-9,-43,42,48,-23,-53,-73,-72
-46,-61,-15,53,-15,-38,43,47,-24,-52,-71,-73
-51,-58,-7,54,-22,-32,43,47,-24,-52,-68,-73
-53,-56,-3,54,-25,-29,42,49,-22,-53,-67,-72
-53,-54,-1,53,-26,-27,42,52,-20,-53,-67,-69
-53,-51,2,52,-27,-24,43,53,-17,-52,-68,-66
-53,-48,5,50,-29,-21,43,52,-14,-52,-68,-63
-50,-47,3,48,-26,-22,42,54,-13,-53,-67,-62
-45,-44,1,44,-23,-21,42,57,-13,-53,-67,-63
-41,-38,3,39,-22,-17,44,58,-14,-51,-68,-61
-41,-30,11,35,-26,-9,47,58,-14,-48,-68,-59
-46,-28,18,37,-32,-5,48,57,-12,-47,-65,-56
-55,-29,26,42,-40,-1,48,57,-10,-48,-60,-54
-60,-26,34,43,-47,4,47,58,-7,-47,-54,-49
-62,-20,42,41,-52,11,47,58,-4,-44,-49,-44
-63,-18,45,40,-54,13,49,57,-2,-40,-46,-42
-63,-19,44,41,-53,12,52,58,0,-35,-43,-43
-62,-17,45,39,-53,14,53,57,0,-31,-42,-41
-62,-11,51,36,-56,20,52,57,0,-29,-40,-36
-63,-5,58,34,-60,26,54,58,0,-29,-36,-30
-63,-1,62,32,-62,30,57,58,0,-29,-30,-25
-61,2,63,29,-62,32,58,57,0,-26,-27,-22
-61,7,68,27,-64,37,58,57,-1,-20,-25,-20
-67,11,78,28,-72,44,57,60,3,-18,-21,-16
-78,13,91,32,-84,52,58,65,11,-19,-16,-11
-85,13,98,36,-91,55,57,70,16,-17,-10,-6
-84,15,99,34,-91,57,57,73,18,-11,-5,-1
-76,26,102,25,-89,64,59,71,18,-5,-1,2
-66,42,108,12,-87,75,62,68,18,-1,2,7
-61,52,113,4,-87,82,63,67,20,2,6,11
-62,56,118,3,-90,87,63,68,22,7,12,16
-63,61,124,1,-93,92,62,66,25,11,16,22
-63,69,132,-3,-97,100,63,63,27,16,18,27
-62,76,138,-7,-100,107,62,63,32,22,19,31
-62,80,142,-9,-102,111,62,63,40,27,22,36
-63,85,148,-11,-105,116,63,60,45,31,28,43
-65,93,158,-14,-111,125,66,54,47,36,36,50
-72,102,174,-15,-123,138,70,51,48,42,41,56
-80,110,190,-15,-135,150,73,52,51,50,45,60
-81,112,193,-15,-137,152,70,54,56,56,52,67
-76,111,187,-17,-131,149,64,57,61,61,60,75
-67,114,181,-23,-124,147,61,57,63,64,65,81
-60,120,180,-30,-120,150,62,54,63,66,70,85
-56,123,179,-33,-117,151,63,51,63,70,78,89
-57,124,181,-33,-119,152,63,48,66,75,88,94
-59,129,188,-35,-123,158,63,47,70,81,95,99
-62,137,199,-37,-130,168,63,47,75,88,100,104
-63,146,209,-41,-136,177,61,48,80,98,105,110
-63,153,216,-45,-139,184,58,48,85,108,113,118
-60,158,218,-49,-139,188,57,46,89,114,121,126
-55,162,217,-53,-136,189,57,43,94,116,128,133
-51,168,219,-58,-135,193,58,42,102,118,133,139
-51,176,227,-62,-139,201,61,43,112,123,138,143
-56,184,240,-64,-148,212,65,42,123,130,146,149
-62,188,250,-63,-156,219,68,39,130,138,154,154
-59,190,249,-65,-154,219,65,38,129,141,155,156
-48,189,237,-70,-142,213,56,38,123,140,151,156
-35,190,225,-77,-130,207,48,38,120,142,152,156
-26,193,219,-83,-122,206,43,38,123,148,158,159
-22,196,218,-87,-120,207,42,39,130,154,164,163
-23,199,222,-88,-122,210,43,41,141,161,168,168
-25,201,226,-88,-125,213,42,44,151,169,172,172
-25,203,228,-89,-126,215,39,47,159,177,178,174
-19,204,223,-92,-121,213,38,49,161,181,182,175
-10,204,214,-97,-112,209,38,51,161,183,184,175
-9,203,212,-97,-110,207,40,55,161,188,185,174
-16,203,219,-93,-117,211,42,60,163,196,188,174
-20,204,224,-92,-122,214,43,66,168,204,193,175
-20,204,224,-92,-122,214,43,71,176,211,198,175
-16,202,218,-93,-117,210,42,73,184,215,200,174
-11,200,211,-94,-111,205,40,72,192,217,200,174
-6,199,205,-96,-105,202,37,74,197,221,199,176
-2,199,201,-98,-101,200,34,78,199,226,200,178
4,200,196,-102,-96,198,32,86,200,232,199,181
11,200,189,-105,-89,194,30,94,202,237,199,181
16,198,182,-107,-83,190,26,98,207,241,201,177
18,196,178,-107,-80,187,20,97,212,243,206,172
20,193,173,-106,-76,183,18,97,214,244,211,167
22,190,168,-106,-73,179,18,100,213,244,214,165
26,188,162,-107,-68,175,19,105,215,243,212,164
31,186,155,-108,-62,170,19,110,218,244,206,162
37,182,145,-109,-54,163,18,113,219,243,200,159
45,177,132,-111,-43,154,18,115,219,243,196,156
51,171,120,-111,-34,145,19,119,218,244,192,155
58,166,108,-112,-25,137,19,124,218,244,190,152
70,164,94,-117,-12,129,17,127,219,241,190,147
80,162,82,-121,-1,122,14,129,219,236,190,139
79,157,78,-118,0,117,13,133,218,231,188,132
67,149,82,-108,-7,115,13,139,218,229,182,127
58,142,84,-100,-13,113,15,141,219,229,176,123
53,138,85,-95,-16,111,18,140,219,230,171,119
52,132,80,-92,-14,106,19,142,216,225,167,114
52,124,72,-88,-10,98,19,145,211,217,162,108
54,118,64,-86,-5,91,17,146,207,210,158,104
56,113,57,-84,0,85,15,146,204,206,153,99
59,109,50,-84,4,79,12,146,202,199,147,92
59,104,45,-81,7,74,10,146,197,189,139,84
55,97,42,-76,6,69,7,144,190,178,131,80
49,89,40,-69,4,64,4,142,183,168,124,78
48,84,36,-66,6,60,3,139,176,161,118,75
51,82,31,-66,10,56,3,137,171,157,113,70
53,81,28,-67,12,54,3,133,167,154,110,64
53,79,26,-66,13,52,3,127,163,152,107,60
52,75,23,-63,14,49,4,124,157,147,105,55
53,70,17,-61,18,43,7,125,152,139,103,50
52,65,13,-58,19,39,11,126,150,131,99,45
49,60,11,-54,19,35,13,126,151,124,94,40
44,54,10,-49,17,32,13,124,149,119,88,37
37,49,12,-43,12,30,9,119,143,114,83,34
28,46,18,-37,5,32,8,114,137,106,79,32
20,44,24,-32,-2,34,9,109,129,96,75,30
19,40,21,-29,-1,30,7,102,120,87,68,27
25,35,10,-30,7,22,4,94,111,83,60,24
33,32,-1,-32,17,15,3,90,102,81,55,22
38,30,-8,-34,23,11,4,89,94,79,53,20
37,25,-12,-31,24,6,2,81,88,74,51,16
31,17,-14,-24,22,1,-1,68,84,66,46,10
26,11,-15,-18,20,-2,-7,56,78,58,38,8
27,9,-18,-18,22,-4,-12,49,74,50,30,8
32,9,-23,-20,27,-7,-15,48,73,45,28,8
38,9,-29,-23,33,-10,-14,51,73,43,28,5
36,6,-30,-21,33,-12,-12,53,70,42,28,1
27,1,-26,-14,26,-12,-9,53,61,40,25,-2
19,-1,-20,-9,19,-10,-8,51,53,37,21,-4
15,0,-15,-7,15,-7,-8,49,48,34,19,-4
13,1,-12,-7,12,-5,-8,46,48,32,19,-3
13,3,-10,-8,11,-3,-8,43,48,30,19,-3
15,4,-11,-9,13,-3,-10,41,45,26,16,-6
18,4,-14,-11,16,-5,-13,39,37,20,10,-11
19,3,-16,-11,17,-6,-14,37,28,17,8,-16
19,1,-18,-10,18,-8,-14,35,21,18,8,-18
17,-2,-19,-7,18,-10,-13,32,17,19,8,-19
15,-7,-22,-4,18,-14,-13,29,18,19,5,-18
12,-10,-22,-1,17,-16,-14,28,19,17,2,-19
10,-13,-23,1,16,-18,-14,29,19,14,0,-19
5,-15,-20,5,12,-17,-13,28,16,13,0,-17
-1,-18,-17,9,8,-17,-13,25,11,14,0,-14
-6,-19,-13,12,3,-16,-14,22,5,13,-2,-13
-9,-19,-10,14,0,-14,-14,20,1,10,-7,-13
-7,-18,-11,12,2,-14,-13,16,-1,7,-8,-14
-4,-15,-11,9,3,-13,-13,11,-3,4,-5,-14
-4,-11,-7,7,1,-9,-15,7,-5,3,-1,-13
-4,-9,-5,6,0,-7,-18,4,-7,4,0,-13
-1,-9,-8,5,3,-8,-19,2,-10,3,0,-15
5,-12,-17,3,11,-14,-19,0,-13,0,-3,-18
12,-14,-26,1,19,-20,-18,0,-14,0,-4,-19
14,-14,-28,0,21,-21,-18,0,-13,0,-3,-18
12,-13,-25,0,18,-19,-19,0,-15,0,-4,-19
9,-13,-22,2,15,-17,-19,-2,-18,-3,-7,-22
10,-15,-25,2,17,-20,-18,-5,-19,-4,-12,-25
13,-17,-30,2,21,-23,-18,-7,-19,-4,-17,-28
12,-20,-32,4,22,-26,-18,-10,-18,-3,-19,-29
6,-22,-28,8,17,-25,-18,-13,-18,-4,-19,-29
1,-25,-26,12,13,-25,-19,-14,-20,-3,-18,-28
0,-28,-28,14,14,-28,-19,-14,-23,-3,-18,-28
0,-28,-28,14,14,-28,-18,-13,-24,-5,-19,-29
0,-25,-25,12,12,-25,-18,-13,-24,-8,-19,-29
0,-22,-22,11,11,-22,-19,-15,-23,-9,-18,-29
-3,-19,-16,11,6,-17,-19,-18,-23,-9,-18,-29
-4,-18,-14,11,5,-16,-17,-18,-24,-8,-19,-28
-4,-18,-14,11,5,-16,-15,-15,-24,-8,-19,-28
-3,-19,-16,11,6,-17,-12,-12,-23,-9,-18,-29
-2,-19,-17,10,7,-18,-10,-9,-23,-9,-18,-29
-7,-18,-11,12,2,-14,-7,-8,-25,-8,-19,-28
-13,-15,-2,14,-5,-8,-4,-8,-28,-8,-19,-25
-11,-11,0,11,-5,-5,-2,-10,-29,-9,-18,-21
0,-8,-8,4,4,-8,-2,-12,-28,-12,-18,-19
8,-11,-19,1,13,-15,-6,-15,-30,-15,-20,-19
12,-16,-28,2,20,-22,-12,-18,-32,-18,-23,-22
15,-20,-35,2,25,-27,-14,-19,-34,-19,-24,-24
16,-19,-35,1,25,-27,-14,-19,-34,-19,-24,-24
8,-18,-26,5,17,-22,-13,-18,-32,-18,-23,-23
-4,-18,-14,11,5,-16,-13,-18,-29,-18,-23,-23
-11,-20,-9,15,-1,-14,-13,-19,-28,-19,-24,-24
-10,-23,-13,16,1,-18,-13,-19,-28,-19,-24,-24
-6,-24,-18,15,6,-21,-15,-18,-29,-17,-23,-23
-1,-24,-23,12,11,-23,-18,-18,-29,-15,-23,-23
1,-23,-24,11,12,-23,-19,-20,-29,-13,-24,-24
3,-23,-26,10,14,-24,-19,-23,-29,-13,-24,-24
3,-24,-27,10,15,-25,-18,-24,-28,-15,-23,-23
3,-24,-27,10,15,-25,-18,-24,-28,-17,-23,-23
5,-23,-28,9,16,-25,-20,-23,-30,-20,-24,-25
7,-23,-30,8,18,-26,-23,-23,-33,-22,-24,-28
9,-25,-34,8,21,-29,-24,-24,-34,-25,-23,-29
9,-28,-37,9,23,-32,-24,-27,-34,-28,-23,-29
7,-29,-36,11,21,-32,-23,-30,-33,-29,-24,-28
4,-29,-33,12,18,-31,-23,-33,-34,-29,-24,-28
3,-28,-31,12,17,-29,-24,-34,-33,-27,-22,-29
3,-28,-31,12,17,-29,-24,-34,-33,-25,-20,-29
4,-29,-33,12,18,-31,-23,-33,-35,-23,-18,-28
4,-29,-33,12,18,-31,-23,-33,-37,-23,-18,-28
3,-28,-31,12,17,-29,-24,-34,-39,-25,-20,-29
3,-28,-31,12,17,-29,-24,-33,-39,-28,-23,-29
4,-29,-33,12,18,-31,-23,-34,-37,-29,-24,-28
4,-29,-33,12,18,-31,-23,-34,-34,-29,-24,-28
3,-28,-31,12,17,-29,-24,-33,-33,-27,-23,-29
3,-28,-31,12,17,-29,-24,-33,-33,-25,-23,-29
4,-29,-33,12,18,-31,-23,-35,-35,-22,-24,-28
4,-29,-33,12,18,-31,-23,-38,-38,-19,-24,-28
3,-28,-31,12,17,-29,-24,-39,-39,-18,-24,-29
3,-28,-31,12,17,-29,-24,-39,-39,-18,-24,-29
4,-29,-33,12,18,-31,-23,-38,-38,-20,-23,-28
4,-29,-33,12,18,-31,-23,-38,-38,-22,-23,-28
2,-28,-30,13,16,-29,-24,-38,-39,-24,-24,-29
0,-28,-28,14,14,-28,-24,-38,-39,-24,-24,-29
0,-29,-29,14,14,-29,-22,-39,-38,-22,-22,-27
1,-29,-30,14,15,-29,-20,-39,-38,-19,-19,-24
-4,-28,-24,16,10,-26,-18,-38,-39,-18,-18,-23
-14,-28,-14,21,0,-21,-18,-35,-39,-18,-18,-23
-22,-29,-7,25,-7,-18,-20,-32,-38,-19,-19,-24
-24,-29,-5,26,-9,-17,-23,-29,-38,-18,-19,-23
-22,-28,-6,25,-8,-17,-24,-29,-39,-19,-18,-24
-20,-28,-8,24,-6,-18,-23,-32,-41,-21,-18,-27
-17,-29,-12,23,-2,-20,-25,-35,-44,-27,-19,-32
-15,-29,-14,22,0,-21,-28,-38,-47,-32,-19,-37
-11,-28,-17,19,3,-22,-28,-39,-48,-33,-18,-38
-6,-25,-19,15,6,-22,-25,-39,-48,-30,-15,-35
-2,-22,-20,12,9,-21,-22,-38,-47,-28,-12,-32
0,-19,-19,9,9,-19,-19,-38,-47,-28,-9,-29
0,-18,-18,9,9,-18,-18,-39,-48,-29,-8,-28
0,-18,-18,9,9,-18,-18,-39,-48,-29,-8,-28
0,-18,-18,9,9,-18,-19,-38,-47,-28,-9,-29
0,-18,-18,9,9,-18,-19,-38,-47,-28,-9,-29
0,-19,-19,9,9,-19,-18,-39,-48,-29,-8,-28
-2,-22,-20,12,9,-21,-18,-39,-48,-29,-8,-28
-5,-25,-20,15,7,-22,-19,-38,-47,-28,-9,-29
-8,-28,-20,18,6,-24,-19,-38,-47,-28,-9,-29
-9,-29,-20,19,5,-24,-18,-39,-48,-29,-8,-28
-9,-29,-20,19,5,-24,-18,-39,-48,-29,-8,-28
-8,-28,-20,18,6,-24,-19,-38,-47,-28,-9,-29
-8,-28,-20,18,6,-24,-19,-38,-47,-28,-9,-29
-9,-29,-20,19,5,-24,-18,-39,-48,-29,-8,-28
-9,-29,-20,19,5,-24,-18,-39,-48,-29,-8,-28
-9,-28,-19,18,5,-23,-19,-38,-47,-28,-8,-29
-9,-28,-19,18,5,-23,-19,-38,-47,-28,-8,-29
-8,-29,-21,18,6,-25,-19,-39,-48,-29,-9,-28
-8,-29,-21,18,6,-25,-19,-39,-48,-29,-9,-28
-9,-28,-19,18,5,-23,-18,-38,-47,-28,-8,-29
-9,-28,-19,18,5,-23,-18,-38,-47,-28,-8,-29
-8,-29,-21,18,6,-25,-19,-39,-48,-29,-9,-28
-5,-29,-24,17,9,-26,-19,-39,-48,-29,-9,-28
-2,-28,-26,15,12,-27,-18,-38,-47,-28,-8,-28
0,-28,-28,14,14,-28,-18,-38,-47,-28,-8,-28
0,-29,-29,14,14,-29,-19,-39,-48,-29,-9,-29
0,-29,-29,14,14,-29,-19,-39,-48,-29,-9,-29
0,-28,-28,14,14,-28,-18,-38,-47,-28,-8,-28
0,-28,-28,14,14,-28,-18,-38,-47,-28,-8,-28
-1,-29,-28,15,13,-28,-19,-39,-48,-29,-9,-29
-6,-32,-26,19,10,-29,-19,-39,-48,-29,-12,-29
-12,-35,-23,23,5,-29,-18,-38,-47,-28,-15,-28
-18,-38,-20,28,1,-29,-18,-38,-47,-28,-17,-28
-17,-39,-22,28,2,-30,-19,-39,-48,-29,-20,-29
-12,-39,-27,25,7,-33,-22,-39,-48,-29,-22,-29
-5,-39,-34,22,14,-36,-25,-38,-47,-28,-25,-28
-1,-39,-38,20,18,-38,-28,-38,-47,-28,-28,-28
0,-38,-38,19,19,-38,-29,-39,-48,-29,-29,-29
0,-35,-35,17,17,-35,-29,-39,-48,-29,-29,-29
0,-32,-32,16,16,-32,-29,-38,-47,-28,-29,-28
0,-29,-29,14,14,-29,-29,-38,-47,-28,-29,-28
0,-28,-28,14,14,-28,-28,-39,-48,-29,-28,-29
0,-28,-28,14,14,-28,-25,-39,-48,-29,-25,-29
0,-29,-29,14,14,-29,-22,-38,-47,-28,-22,-28
0,-29,-29,14,14,-29,-19,-38,-47,-28,-19,-28
0,-28,-28,14,14,-28,-18,-39,-48,-29,-18,-29
0,-28,-28,14,14,-28,-18,-39,-48,-29,-18,-32
0,-29,-29,14,14,-29,-19,-38,-48,-28,-19,-35
0,-29,-29,14,14,-29,-19,-38,-48,-28,-19,-38
0,-28,-28,14,14,-28,-18,-39,-48,-29,-18,-39
-2,-28,-26,15,12,-27,-18,-39,-48,-29,-18,-39
-5,-29,-24,17,9,-26,-19,-38,-47,-28,-19,-38
-8,-29,-21,18,6,-25,-19,-38,-48,-28,-19,-38
-9,-28,-19,18,5,-23,-18,-39,-48,-29,-18,-39
-9,-28,-19,18,5,-23,-18,-41,-47,-29,-18,-39
-8,-29,-21,18,6,-25,-19,-44,-48,-28,-19,-38
-8,-29,-21,18,6,-25,-19,-47,-48,-28,-19,-38
-9,-28,-19,18,5,-23,-18,-48,-48,-29,-18,-39
-9,-28,-19,18,5,-23,-18,-48,-48,-29,-18,-39
-9,-29,-20,19,5,-24,-19,-47,-48,-28,-19,-38
-9,-29,-20,19,5,-24,-19,-47,-48,-28,-19,-38
-8,-28,-20,18,6,-24,-18,-48,-48,-29,-18,-39
-8,-28,-20,18,6,-24,-18,-48,-48,-29,-18,-39
-9,-29,-20,19,5,-24,-19,-47,-48,-28,-19,-38
-9,-29,-20,19,5,-24,-19,-47,-47,-28,-19,-38
-8,-28,-20,18,6,-24,-18,-48,-48,-29,-18,-39
-5,-28,-23,16,9,-25,-18,-48,-48,-29,-18,-39
-2,-29,-27,15,12,-28,-19,-47,-47,-28,-19,-38
0,-29,-29,14,14,-29,-19,-47,-47,-28,-19,-38
0,-28,-28,14,14,-28,-18,-48,-48,-29,-18,-39
0,-28,-28,14,14,-28,-18,-48,-48,-29,-18,-39
0,-29,-29,14,14,-29,-19,-47,-47,-28,-19,-38
0,-29,-29,14,14,-29,-19,-47,-47,-28,-19,-38
0,-29,-29,14,14,-29,-19,-48,-48,-29,-18,-39
0,-29,-29,14,14,-29,-19,-48,-48,-29,-18,-39
0,-28,-28,14,14,-28,-18,-48,-47,-28,-19,-38
0,-28,-28,14,14,-28,-18,-48,-47,-28,-19,-38
0,-29,-29,14,14,-29,-19,-47,-48,-29,-18,-39
-2,-29,-27,15,12,-28,-19,-47,-48,-29,-18,-39
-5,-28,-23,16,9,-25,-18,-48,-47,-28,-19,-38
-8,-28,-20,18,6,-24,-18,-48,-47,-28,-19,-38
-9,-29,-20,19,5,-24,-19,-47,-48,-29,-18,-39
-9,-29,-20,19,5,-24,-19,-47,-48,-29,-15,-39
-8,-28,-20,18,6,-24,-18,-48,-47,-28,-12,-38
-8,-28,-20,18,6,-24,-18,-48,-47,-28,-9,-38
-8,-29,-21,18,6,-25,-19,-47,-48,-29,-8,-39
-8,-29,-21,18,6,-25,-19,-47,-48,-29,-8,-39
-9,-28,-19,18,5,-23,-18,-48,-47,-28,-8,-38
-9,-28,-19,18,5,-23,-18,-48,-47,-28,-8,-38
-8,-29,-21,18,6,-25,-19,-47,-48,-29,-9,-39
-5,-29,-24,17,9,-26,-19,-47,-48,-29,-12,-41
-2,-28,-26,15,12,-27,-18,-48,-47,-28,-15,-44
0,-28,-28,14,14,-28,-18,-48,-47,-28,-18,-47
0,-29,-29,14,14,-29,-19,-47,-48,-29,-19,-48
0,-29,-29,14,14,-29,-19,-44,-48,-32,-19,-48
0,-28,-28,14,14,-28,-18,-41,-47,-35,-18,-47
0,-28,-28,14,14,-28,-18,-39,-47,-38,-18,-47
0,-29,-29,14,14,-29,-19,-38,-48,-39,-19,-48
0,-29,-29,14,14,-29,-19,-38,-48,-39,-19,-48
0,-28,-28,14,14,-28,-18,-38,-47,-38,-18,-47
0,-28,-28,14,14,-28,-18,-38,-47,-38,-18,-47
0,-29,-29,14,14,-29,-19,-39,-48,-39,-19,-47
0,-29,-29,14,14,-29,-22,-41,-48,-39,-19,-47
0,-28,-28,14,14,-28,-25,-44,-47,-39,-18,-48
0,-28,-28,14,14,-28,-28,-47,-47,-39,-18,-48
0,-29,-29,14,14,-29,-29,-48,-48,-38,-19,-47
-2,-32,-30,17,14,-31,-29,-48,-48,-38,-19,-47
-5,-35,-30,20,12,-32,-28,-47,-47,-39,-18,-48
-7,-38,-31,22,12,-34,-28,-47,-47,-39,-18,-48
-10,-39,-29,24,9,-34,-29,-48,-48,-38,-19,-47
-15,-38,-23,26,4,-30,-29,-48,-48,-35,-19,-44
-22,-39,-17,30,-2,-28,-28,-47,-47,-32,-18,-41
-28,-39,-11,33,-8,-25,-28,-47,-47,-29,-18,-39
-27,-37,-10,32,-8,-23,-29,-48,-48,-28,-19,-38
-18,-31,-13,24,-2,-22,-29,-48,-51,-28,-19,-38
-9,-25,-16,17,3,-20,-28,-47,-54,-29,-18,-39
-2,-20,-18,11,8,-19,-28,-47,-57,-29,-18,-39
2,-18,-20,8,11,-19,-29,-48,-58,-28,-19,-38
6,-18,-24,6,15,-21,-29,-48,-58,-28,-19,-38
12,-19,-31,3,21,-25,-28,-47,-58,-29,-18,-38
18,-19,-37,0,27,-28,-28,-47,-58,-29,-18,-38
18,-18,-36,0,27,-27,-29,-48,-57,-28,-19,-39
12,-18,-30,3,21,-24,-29,-48,-54,-28,-19,-39
5,-18,-23,6,14,-20,-28,-48,-51,-29,-18,-38
1,-18,-19,8,10,-18,-28,-48,-48,-29,-18,-38
0,-19,-19,9,9,-19,-29,-47,-47,-28,-19,-39
0,-19,-19,9,9,-19,-29,-47,-47,-28,-19,-41
0,-18,-18,9,9,-18,-28,-48,-48,-29,-18,-44
0,-18,-18,9,9,-18,-28,-48,-48,-29,-18,-47
0,-20,-20,10,10,-20,-28,-47,-47,-28,-19,-48
-2,-26,-24,14,11,-25,-28,-47,-47,-28,-19,-48
-5,-32,-27,18,11,-29,-29,-48,-48,-29,-18,-47
-8,-37,-29,22,10,-33,-29,-48,-48,-29,-18,-47
-9,-39,-30,24,10,-34,-28,-47,-47,-28,-19,-48
-9,-39,-30,24,10,-34,-28,-47,-47,-28,-19,-48
-8,-38,-30,23,11,-34,-29,-48,-48,-29,-18,-47
-8,-38,-30,23,11,-34,-29,-48,-48,-29,-18,-47
-9,-39,-30,24,10,-34,-28,-47,-47,-28,-19,-48
-9,-39,-30,24,10,-34,-28,-47,-47,-28,-19,-48
-8,-38,-30,23,11,-34,-29,-48,-48,-29,-18,-47
-8,-38,-30,23,11,-34,-29,-48,-48,-29,-18,-47
-9,-39,-30,24,10,-34,-28,-47,-47,-28,-19,-48
-9,-39,-30,24,10,-34,-28,-44,-44,-29,-19,-48
-8,-38,-30,23,11,-34,-29,-41,-41,-28,-18,-47
-8,-38,-30,23,11,-34,-29,-39,-39,-28,-18,-47
-9,-39,-30,24,10,-34,-28,-38,-38,-29,-19,-48
-9,-39,-30,24,10,-34,-28,-38,-38,-29,-19,-48
-8,-38,-30,23,11,-34,-29,-39,-39,-28,-18,-47
-8,-38,-30,23,11,-34,-29,-39,-39,-28,-18,-47
-9,-39,-30,24,10,-34,-28,-38,-38,-29,-19,-48
-9,-39,-30,24,10,-34,-28,-38,-38,-29,-19,-48
-8,-38,-30,23,11,-34,-29,-38,-39,-28,-18,-47
-8,-38,-30,23,11,-34,-29,-38,-39,-28,-18,-47
-9,-39,-30,24,10,-34,-28,-39,-38,-29,-19,-48
-9,-39,-30,24,10,-34,-25,-39,-38,-29,-19,-48
-8,-38,-30,23,11,-34,-22,-38,-39,-28,-18,-47
-8,-38,-30,23,11,-34,-19,-38,-39,-28,-18,-47
-9,-39,-30,24,10,-34,-18,-39,-38,-29,-19,-48
-9,-39,-30,24,10,-34,-18,-42,-38,-29,-19,-47
-8,-37,-29,22,10,-33,-19,-43,-39,-28,-17,-48
-8,-34,-26,21,9,-30,-19,-43,-39,-28,-14,-48
-9,-33,-24,21,7,-28,-18,-42,-38,-29,-13,-47
-10,-34,-24,22,7,-29,-18,-42,-38,-29,-14,-47
-6,-33,-27,19,10,-30,-18,-43,-39,-28,-12,-48
-1,-30,-29,15,14,-29,-18,-43,-42,-28,-10,-48
0,-28,-28,14,14,-28,-19,-42,-43,-29,-8,-47
-6,-28,-22,17,8,-25,-19,-42,-43,-29,-8,-47
-10,-29,-19,19,4,-24,-18,-43,-42,-28,-8,-48
-10,-29,-19,19,4,-24,-18,-46,-39,-28,-8,-48
-6,-29,-23,17,8,-26,-19,-49,-38,-29,-9,-47
-1,-29,-28,15,13,-28,-22,-51,-38,-29,-12,-47
0,-28,-28,14,14,-28,-25,-54,-39,-28,-15,-48
0,-28,-28,14,14,-28,-28,-57,-39,-28,-17,-48
0,-30,-30,15,15,-30,-29,-58,-38,-31,-20,-47
0,-32,-32,16,16,-32,-29,-58,-38,-36,-23,-47
0,-34,-34,17,17,-34,-28,-57,-39,-40,-24,-48
0,-34,-34,17,17,-34,-28,-57,-42,-42,-24,-48
0,-33,-33,16,16,-33,-29,-58,-43,-43,-23,-47
0,-34,-34,17,17,-34,-29,-58,-43,-43,-23,-47
0,-33,-33,16,16,-33,-28,-57,-42,-42,-24,-48
-2,-33,-31,17,14,-32,-28,-57,-42,-42,-24,-48
-6,-35,-29,20,11,-32,-29,-58,-43,-43,-24,-47
-14,-37,-23,25,4,-30,-29,-58,-43,-43,-24,-47
-24,-39,-15,31,-4,-27,-28,-58,-42,-42,-23,-48
-32,-39,-7,35,-12,-23,-28,-58,-42,-42,-23,-48
-31,-38,-7,34,-12,-22,-29,-57,-43,-43,-24,-47
-20,-35,-15,27,-2,-25,-29,-57,-43,-43,-24,-47
-6,-32,-26,19,10,-29,-28,-58,-42,-42,-22,-49
4,-29,-33,12,18,-31,-28,-58,-42,-39,-20,-51
11,-28,-39,8,25,-33,-29,-57,-43,-38,-18,-53
13,-28,-41,7,27,-34,-29,-57,-43,-38,-18,-53
14,-29,-43,7,28,-36,-28,-58,-42,-38,-19,-52
14,-29,-43,7,28,-36,-28,-58,-42,-38,-19,-52
12,-28,-40,8,26,-34,-29,-57,-43,-39,-18,-53
6,-28,-34,11,20,-31,-29,-54,-43,-42,-18,-52
1,-28,-29,13,15,-28,-28,-51,-42,-43,-20,-53
-2,-28,-26,15,12,-27,-28,-48,-42,-43,-22,-53
-4,-29,-25,16,10,-27,-29,-47,-43,-42,-24,-52
-4,-29,-25,16,10,-27,-29,-47,-43,-39,-24,-52
-3,-28,-25,15,11,-26,-28,-48,-42,-38,-23,-54
-3,-28,-25,15,11,-26,-28,-48,-42,-38,-23,-56
-3,-30,-27,16,12,-28,-29,-47,-43,-39,-25,-58
-3,-32,-29,17,13,-30,-29,-47,-43,-39,-27,-58
-4,-34,-30,19,13,-32,-27,-48,-42,-38,-29,-57
-4,-34,-30,19,13,-32,-25,-48,-42,-38,-29,-58
-3,-33,-30,18,13,-31,-23,-46,-43,-39,-28,-57
0,-33,-33,16,16,-33,-23,-44,-43,-39,-28,-55
0,-34,-34,17,17,-34,-24,-42,-42,-38,-29,-50
0,-34,-34,17,17,-34,-24,-42,-39,-38,-29,-44
0,-33,-33,16,16,-33,-24,-43,-38,-39,-28,-42
0,-33,-33,16,16,-33,-24,-43,-38,-39,-28,-42
0,-34,-34,17,17,-34,-23,-42,-39,-38,-29,-42
-3,-37,-34,20,15,-35,-23,-42,-39,-38,-29,-42
-4,-40,-36,22,16,-38,-25,-44,-39,-39,-28,-44
-4,-42,-38,23,17,-40,-28,-46,-39,-42,-28,-46
-4,-43,-39,23,17,-41,-29,-48,-38,-43,-29,-48
-4,-43,-39,23,17,-41,-28,-48,-38,-43,-29,-48
-2,-42,-40,22,19,-41,-29,-47,-40,-42,-28,-47
1,-39,-40,19,20,-39,-32,-47,-45,-42,-29,-47
6,-38,-44,16,25,-41,-34,-47,-49,-43,-28,-47
8,-38,-46,15,27,-42,-34,-47,-52,-43,-28,-47
8,-39,-47,15,27,-43,-32,-48,-53,-42,-29,-48
5,-39,-44,17,24,-41,-29,-48,-53,-42,-29,-48
3,-38,-41,17,22,-39,-28,-46,-52,-43,-28,-46
3,-39,-42,18,22,-40,-28,-44,-52,-43,-28,-44
3,-38,-41,17,22,-39,-29,-42,-53,-42,-29,-42
1,-38,-39,18,20,-38,-29,-42,-53,-42,-29,-42
-1,-39,-38,20,18,-38,-28,-42,-53,-43,-28,-43
-3,-39,-36,21,16,-37,-28,-42,-53,-43,-28,-43
-4,-37,-33,20,14,-35,-28,-44,-52,-42,-29,-42
-4,-35,-31,19,13,-33,-28,-46,-52,-39,-29,-40
-3,-33,-30,18,13,-31,-29,-48,-53,-38,-28,-37
0,-33,-33,16,16,-33,-29,-48,-53,-38,-28,-34
0,-34,-34,17,17,-34,-28,-47,-52,-39,-30,-33
0,-34,-34,17,17,-34,-28,-47,-49,-39,-32,-33
0,-33,-33,16,16,-33,-30,-48,-46,-38,-34,-35
0,-33,-33,16,16,-33,-32,-48,-43,-38,-34,-37
0,-34,-34,17,17,-34,-34,-47,-42,-39,-32,-39
-3,-34,-31,18,14,-32,-34,-47,-42,-39,-29,-39
-4,-33,-29,18,12,-31,-32,-48,-43,-37,-28,-38
-4,-33,-29,18,12,-31,-30,-48,-42,-35,-28,-38
-3,-34,-31,18,14,-32,-28,-47,-43,-33,-29,-39
0,-34,-34,17,17,-34,-28,-47,-43,-33,-28,-39
0,-33,-33,16,16,-33,-29,-47,-42,-34,-29,-39
0,-33,-33,16,16,-33,-29,-44,-38,-35,-29,-39
0,-34,-34,17,17,-34,-27,-30,-27,-31,-27,-38
1,-37,-38,18,19,-37,-21,-5,-8,-21,-23,-38
7,-40,-47,16,27,-43,-16,23,18,-4,-13,-39
17,-41,-58,12,37,-49,-11,52,54,24,4,-37
32,-33,-65,0,48,-49,-6,83,104,78,38,-27
54,-15,-69,-19,61,-42,-5,115,166,155,89,-6
84,9,-75,-46,79,-33,-15,146,233,245,157,27
125,42,-83,-83,104,-20,-34,177,302,341,238,74
180,85,-95,-132,137,-5,-49,214,382,439,328,132
245,135,-110,-190,177,12,-56,264,476,541,424,197
308,185,-123,-246,215,31,-58,335,589,650,520,258
365,229,-136,-297,250,46,-60,415,700,756,608,310
424,263,-161,-343,292,51,-66,470,766,832,671,348
478,289,-189,-383,333,50,-74,484,779,872,706,374
506,315,-191,-410,348,62,-80,463,767,890,724,395
511,347,-164,-429,337,91,-83,415,745,896,735,419
515,385,-130,-450,322,127,-91,353,717,894,746,451
518,421,-97,-469,307,162,-102,281,667,867,747,484
497,440,-57,-468,277,191,-108,192,565,783,712,503
449,445,-4,-447,226,220,-108,87,419,654,644,506
399,453,54,-426,172,253,-105,-31,278,534,579,509
345,466,121,-405,112,293,-105,-170,143,426,515,512
259,462,203,-360,28,332,-109,-343,-30,282,418,494
141,435,294,-288,-76,364,-112,-529,-239,96,282,447
17,389,372,-203,-177,380,-108,-673,-429,-89,137,375
-85,335,420,-125,-252,377,-101,-762,-570,-242,8,291
-145,279,424,-67,-284,351,-107,-822,-665,-346,-82,220
-171,220,391,-24,-281,305,-127,-863,-718,-402,-139,167
-203,143,346,30,-274,244,-140,-873,-738,-431,-181,113
-243,51,294,96,-268,172,-145,-852,-733,-443,-218,53
-262,-38,224,150,-243,93,-160,-813,-705,-440,-245,-3
-251,-108,143,179,-197,17,-187,-762,-658,-422,-260,-50
-224,-142,82,183,-153,-30,-208,-698,-596,-393,-262,-80
-192,-145,47,168,-119,-49,-209,-616,-521,-357,-253,-93
-157,-136,21,146,-89,-57,-184,-510,-431,-313,-231,-99
-122,-127,-5,124,-58,-66,-141,-391,-336,-261,-198,-99
-93,-116,-23,104,-35,-69,-107,-290,-255,-206,-161,-92
-71,-105,-34,88,-18,-69,-84,-218,-196,-155,-129,-81
-56,-99,-43,77,-6,-71,-59,-166,-157,-123,-109,-77
-49,-98,-49,73,0,-73,-28,-128,-131,-110,-102,-80
-47,-95,-48,71,0,-71,-3,-97,-113,-104,-101,-82
-47,-89,-42,68,-2,-65,10,-75,-101,-99,-101,-82
-48,-84,-36,66,-6,-60,15,-63,-93,-95,-102,-81
-48,-82,-34,65,-7,-58,14,-59,-89,-93,-102,-82
-46,-81,-35,63,-5,-58,13,-54,-84,-90,-100,-81
-42,-81,-39,61,-1,-60,16,-44,-77,-85,-95,-81
-35,-81,-46,58,5,-63,22,-33,-67,-78,-88,-83
-30,-81,-51,55,10,-66,30,-22,-56,-70,-82,-85
-29,-82,-53,55,12,-67,36,-17,-51,-66,-83,-87
-35,-85,-50,60,7,-67,40,-15,-52,-66,-89,-87
-52,-88,-36,70,-8,-62,45,-11,-53,-69,-93,-86
-71,-90,-19,80,-26,-54,50,-5,-53,-71,-93,-86
-80,-93,-13,86,-33,-53,54,-5,-52,-73,-90,-87
-78,-95,-17,86,-30,-56,53,-11,-52,-73,-88,-87
-79,-97,-18,88,-30,-57,51,-15,-54,-71,-85,-85
-85,-98,-13,91,-36,-55,49,-17,-56,-69,-82,-83
-86,-95,-9,90,-38,-52,46,-21,-58,-67,-81,-81
-80,-89,-9,84,-35,-49,43,-26,-58,-67,-81,-82
-76,-84,-8,80,-34,-46,42,-29,-57,-68,-82,-81
-74,-82,-8,78,-33,-45,41,-29,-57,-68,-82,-79
-70,-81,-11,75,-29,-46,35,-28,-57,-67,-81,-77
-65,-81,-16,73,-24,-48,27,-29,-57,-68,-78,-77
-62,-81,-19,71,-21,-50,22,-28,-58,-67,-77,-78
-62,-81,-19,71,-21,-50,23,-25,-58,-67,-77,-81
-63,-83,-20,73,-21,-51,23,-21,-57,-68,-77,-82
-63,-85,-22,74,-20,-53,20,-17,-54,-68,-77,-82
-61,-87,-26,74,-17,-56,18,-10,-51,-67,-78,-81
-59,-87,-28,73,-15,-57,18,-5,-48,-64,-81,-78
-57,-86,-29,71,-14,-57,19,-4,-48,-62,-82,-77
-57,-86,-29,71,-14,-57,19,-6,-51,-62,-82,-77
-58,-87,-29,72,-14,-58,18,-10,-53,-64,-81,-78
-58,-87,-29,72,-14,-58,18,-13,-53,-66,-81,-78
-57,-86,-29,71,-14,-57,19,-14,-53,-68,-82,-78
-57,-86,-29,71,-14,-57,21,-14,-53,-68,-82,-78
-58,-87,-29,72,-14,-58,27,-13,-52,-67,-81,-77
-58,-87,-29,72,-14,-58,33,-13,-49,-67,-81,-77
-57,-86,-29,71,-14,-57,32,-14,-47,-68,-83,-78
-54,-86,-32,70,-11,-59,26,-14,-47,-68,-85,-80
-51,-88,-37,69,-7,-62,22,-12,-48,-67,-87,-82
-51,-90,-39,70,-6,-64,23,-9,-51,-67,-87,-82
-56,-92,-36,74,-10,-64,24,-8,-54,-68,-86,-81
-64,-92,-28,78,-18,-60,23,-9,-56,-68,-87,-78
-69,-91,-22,80,-23,-56,24,-8,-59,-67,-86,-77
-68,-91,-23,79,-22,-57,27,-5,-61,-67,-86,-77
-68,-92,-24,80,-22,-58,29,-3,-64,-69,-88,-77
-68,-92,-24,80,-22,-58,29,-3,-67,-75,-90,-77
-65,-91,-26,78,-19,-58,28,-5,-68,-79,-92,-78
-59,-91,-32,75,-13,-61,28,-7,-67,-81,-92,-81
-57,-92,-35,74,-11,-63,29,-9,-68,-82,-91,-82
-59,-92,-33,75,-13,-62,29,-9,-71,-82,-92,-81
-54,-91,-37,72,-8,-64,28,-7,-73,-81,-91,-82
-45,-91,-46,68,0,-68,28,-5,-73,-81,-91,-85
-43,-92,-49,67,3,-70,29,-3,-72,-82,-93,-87
-49,-92,-43,70,-3,-67,29,-3,-72,-82,-95,-87
-54,-91,-37,72,-8,-64,28,-4,-73,-81,-97,-86
-53,-91,-38,72,-7,-64,28,-4,-73,-81,-97,-86
-53,-93,-40,73,-6,-66,29,-3,-71,-83,-97,-87
-56,-96,-40,76,-8,-68,29,-1,-66,-85,-97,-86
-59,-96,-37,77,-11,-66,28,1,-59,-87,-95,-87
-61,-93,-32,77,-14,-62,28,3,-54,-87,-93,-87
-65,-91,-26,78,-19,-58,30,4,-52,-86,-91,-86
-70,-91,-21,80,-24,-56,32,7,-52,-86,-91,-86
-74,-91,-17,82,-28,-54,34,11,-53,-87,-91,-88
-74,-91,-17,82,-28,-54,34,16,-53,-87,-91,-90
-70,-92,-22,81,-24,-57,33,19,-52,-85,-92,-92
-65,-95,-30,80,-17,-62,33,19,-52,-83,-95,-92
-61,-98,-37,79,-12,-67,34,18,-53,-81,-97,-91
-60,-100,-40,80,-10,-70,34,18,-53,-81,-97,-91
-66,-103,-37,84,-14,-70,34,19,-53,-82,-96,-92
-75,-106,-31,90,-22,-68,34,19,-53,-82,-97,-92
-77,-107,-30,92,-23,-68,33,18,-52,-80,-96,-91
-71,-107,-36,89,-17,-71,33,18,-52,-78,-96,-91
-65,-107,-42,86,-11,-74,34,19,-53,-78,-97,-92
-63,-107,-44,85,-9,-75,36,22,-53,-83,-100,-92
-62,-106,-44,84,-9,-75,41,25,-52,-90,-103,-91
-62,-103,-41,82,-10,-72,46,28,-49,-95,-106,-91
-63,-101,-38,82,-12,-69,48,29,-46,-97,-107,-92
-63,-101,-38,82,-12,-69,48,28,-43,-94,-107,-92
-62,-102,-40,82,-11,-71,47,29,-42,-89,-106,-91
-59,-102,-43,80,-8,-72,47,32,-42,-83,-106,-91
-57,-102,-45,79,-6,-73,48,34,-43,-81,-107,-92
-57,-102,-45,79,-6,-73,47,34,-42,-81,-107,-95
-58,-101,-43,79,-7,-72,48,33,-43,-82,-106,-97
-61,-101,-40,81,-10,-70,48,33,-43,-82,-106,-97
-65,-102,-37,83,-14,-69,47,34,-42,-81,-107,-95
-70,-105,-35,87,-17,-70,47,37,-40,-78,-107,-93
-75,-107,-32,91,-21,-69,49,40,-37,-77,-106,-91
-80,-107,-27,93,-26,-67,51,41,-35,-77,-106,-91
-82,-105,-23,93,-29,-64,53,44,-32,-78,-107,-91
-83,-103,-20,93,-31,-61,53,46,-29,-78,-107,-91
-80,-101,-21,90,-29,-61,52,48,-28,-77,-106,-92
-75,-101,-26,88,-24,-63,52,48,-28,-78,-106,-95
-70,-102,-32,86,-19,-67,53,47,-29,-77,-107,-97
-65,-102,-37,83,-14,-69,52,47,-29,-77,-110,-97
-61,-100,-39,80,-11,-69,53,48,-28,-78,-112,-95
-58,-97,-39,77,-9,-68,53,51,-28,-78,-112,-93
-57,-96,-39,76,-9,-67,52,54,-29,-76,-110,-91
-58,-97,-39,77,-9,-68,52,56,-29,-74,-108,-91
-57,-96,-39,76,-9,-67,54,59,-27,-72,-106,-92
-57,-93,-36,75,-10,-64,56,62,-25,-72,-106,-92
-59,-91,-32,75,-13,-61,58,63,-23,-73,-107,-91
-64,-91,-27,77,-18,-59,58,63,-24,-72,-107,-91
-71,-92,-21,81,-25,-56,58,62,-23,-73,-106,-92
-76,-91,-15,83,-30,-53,58,63,-20,-73,-106,-92
-77,-92,-15,84,-31,-53,57,62,-18,-72,-107,-90
-72,-92,-20,82,-26,-56,54,62,-18,-69,-107,-88
-63,-91,-28,77,-17,-59,51,63,-20,-67,-105,-86
-56,-88,-32,72,-12,-60,48,66,-22,-67,-103,-86
-51,-86,-35,68,-8,-60,47,69,-24,-68,-101,-87
-51,-86,-35,68,-8,-60,47,72,-24,-68,-102,-86
-55,-87,-32,71,-11,-59,47,73,-23,-67,-101,-87
-60,-86,-26,73,-17,-56,47,72,-20,-64,-98,-87
-63,-87,-24,75,-19,-55,48,73,-16,-61,-95,-86
-63,-87,-24,75,-19,-55,50,76,-11,-59,-93,-83
-63,-86,-23,74,-20,-54,55,79,-7,-56,-90,-80
-63,-83,-20,73,-21,-51,60,81,-4,-53,-88,-79
-61,-80,-19,70,-21,-49,63,82,-3,-52,-85,-76
-55,-79,-24,67,-15,-51,63,82,-1,-52,-82,-74
-51,-76,-25,63,-13,-50,62,81,1,-53,-81,-72
-51,-74,-23,62,-14,-48,62,79,3,-52,-82,-72
-55,-71,-16,63,-19,-43,63,76,4,-53,-81,-73
-60,-69,-9,64,-25,-39,63,73,3,-53,-79,-73
-63,-66,-3,64,-30,-34,62,72,4,-52,-76,-72
-62,-64,-2,63,-30,-33,62,72,7,-49,-74,-69
-63,-61,2,62,-32,-29,63,72,10,-45,-71,-66
-67,-59,8,63,-37,-25,63,72,13,-41,-69,-63
-67,-57,10,62,-38,-23,62,73,14,-37,-67,-62
-64,-55,9,59,-36,-23,62,76,14,-35,-67,-63
-61,-49,12,55,-36,-18,63,78,13,-32,-69,-62
-61,-41,20,51,-40,-10,66,78,13,-30,-71,-59
-65,-38,27,51,-46,-5,68,77,14,-28,-73,-57
-70,-39,31,54,-50,-4,68,77,17,-28,-73,-54
-73,-37,36,55,-54,0,67,78,20,-29,-72,-50
-73,-31,42,52,-57,5,67,78,22,-29,-69,-44
-72,-28,44,50,-58,8,69,77,25,-28,-66,-42
-73,-29,44,51,-58,7,71,77,28,-25,-64,-43
-72,-27,45,49,-58,9,73,78,29,-22,-62,-41
-69,-22,47,45,-58,12,72,80,28,-19,-59,-37
-66,-15,51,40,-58,18,73,83,29,-19,-55,-31
-64,-8,56,36,-60,24,76,86,32,-19,-50,-26
-61,0,61,30,-61,30,78,87,34,-17,-46,-22
-61,6,67,27,-64,36,78,86,36,-11,-44,-20
-66,11,77,27,-71,44,77,88,41,-8,-41,-17
-76,13,89,31,-82,51,78,91,49,-9,-36,-11
-85,13,98,36,-91,55,77,91,56,-7,-31,-6
-88,12,100,38,-94,56,77,89,61,-2,-26,-2
-84,17,101,33,-92,59,78,84,64,2,-21,1
-76,29,105,23,-90,67,81,79,66,6,-16,6
-71,36,107,17,-89,71,81,77,69,11,-11,11
-72,37,109,17,-90,73,79,78,71,16,-6,16
-73,41,114,16,-93,77,76,77,73,21,-2,21
-73,48,121,12,-97,84,73,74,75,26,1,26
-72,55,127,8,-99,91,72,72,80,31,5,31
-69,60,129,4,-99,94,72,70,88,36,10,35
-66,65,131,0,-98,98,72,64,94,40,17,41
-62,73,135,-5,-98,104,72,56,96,45,25,49
-64,82,146,-9,-105,114,73,51,97,51,32,56
-71,92,163,-10,-117,127,73,51,99,59,38,63
-72,99,171,-13,-121,135,71,53,104,65,47,72
-67,104,171,-18,-119,137,65,54,110,70,58,82
-58,110,168,-26,-113,139,62,51,112,74,65,90
-50,118,168,-34,-109,143,62,45,112,79,69,94
-46,123,169,-38,-107,146,63,41,112,85,76,99
-46,124,170,-39,-108,147,63,39,115,92,87,104
-49,128,177,-39,-113,152,63,38,118,100,95,109
-51,136,187,-42,-119,161,63,38,120,107,99,114
-53,145,198,-46,-125,171,62,39,122,116,104,119
-54,152,206,-49,-130,179,59,39,124,127,112,126
-51,157,208,-53,-129,182,57,37,127,132,120,134
-46,160,206,-57,-126,183,54,35,132,131,127,142
-40,161,201,-60,-120,181,50,33,138,130,133,148
-35,163,198,-64,-116,180,45,34,143,133,137,153
-33,166,199,-66,-116,182,41,33,147,139,144,158
-33,169,202,-68,-117,185,39,30,150,147,153,163
-34,169,203,-67,-118,186,37,28,150,152,156,165
-32,168,200,-68,-116,184,35,28,150,154,155,165
-24,172,196,-74,-110,184,33,29,152,158,158,165
-11,182,193,-85,-102,187,33,32,160,165,165,167
2,196,194,-99,-96,195,34,35,169,173,172,172
13,209,196,-111,-91,202,34,40,179,180,177,177
11,215,204,-113,-96,209,33,44,189,188,182,181
0,212,212,-106,-106,212,30,46,197,197,187,184
-5,205,210,-100,-107,207,27,48,200,201,191,185
-2,197,199,-97,-100,198,24,51,200,202,194,185
0,193,193,-96,-96,193,23,54,199,206,195,184
0,194,194,-97,-97,194,23,59,201,214,198,181
0,195,195,-97,-97,195,24,65,206,222,202,178
4,195,191,-99,-93,193,24,71,214,227,207,176
13,194,181,-103,-84,187,23,73,222,229,209,174
24,194,170,-109,-73,182,23,72,230,228,209,174
30,195,165,-112,-67,180,24,73,235,229,208,175
30,195,165,-112,-67,180,27,78,238,232,208,178
27,194,167,-110,-70,180,29,85,239,235,208,180
22,191,169,-106,-73,180,30,93,241,237,208,181
14,188,174,-101,-80,181,26,98,246,240,209,178
6,186,180,-96,-87,183,21,100,251,243,212,172
4,184,180,-94,-88,182,18,103,253,244,214,168
12,181,169,-96,-78,175,18,108,252,244,215,166
23,178,155,-100,-66,166,19,114,253,244,212,163
34,173,139,-103,-52,156,19,120,256,244,207,158
42,166,124,-104,-41,145,18,123,258,243,201,153
49,159,110,-104,-30,134,18,124,258,240,194,148
55,153,98,-104,-21,125,19,127,257,237,186,144
59,147,88,-103,-14,117,19,133,257,232,178,143
65,145,80,-105,-7,112,18,137,258,225,173,138
71,143,72,-107,0,107,15,139,258,218,171,130
72,138,66,-105,3,102,13,143,257,210,168,123
66,130,64,-98,1,97,13,148,254,205,164,119
