I,II,III,aVR,aVL,aVF,V1,V2,V3,V4,V5,V6
-361,-117,244,239,-302,63,68,-39,-58,195,-1346,156
-361,-117,244,239,-302,63,68,-39,-58,195,-1346,156
-361,-117,244,239,-302,63,68,-39,-58,195,-1346,156
-361,-117,244,239,-302,63,68,-39,-58,195,-1346,156
-370,-141,229,256,-300,43,68,-39,-63,185,-1005,170
-370,-156,214,263,-292,29,68,-39,-68,185,-673,185
-370,-170,200,270,-285,14,68,-39,-73,185,-341,200
-370,-185,185,278,-278,0,68,-39,-78,185,-9,214
-380,-170,209,275,-295,19,68,-39,-78,185,112,214
-380,-165,214,273,-297,24,68,-39,-78,185,224,214
-380,-161,219,270,-300,29,68,-39,-78,185,336,214
-380,-156,224,268,-302,34,68,-39,-78,185,448,214
-395,-165,229,280,-312,31,68,-39,-92,175,375,209
-400,-165,234,283,-317,34,68,-39,-97,175,302,204
-405,-165,239,285,-322,36,68,-39,-102,175,229,200
-409,-165,244,287,-326,39,68,-39,-107,175,156,195
-400,-175,224,287,-312,24,68,-39,-112,165,112,180
-400,-175,224,287,-312,24,68,-39,-117,156,78,175
-400,-175,224,287,-312,24,68,-39,-122,146,43,170
-400,-175,224,287,-312,24,68,-39,-126,136,9,165
-405,-151,253,278,-329,51,68,-39,-131,136,-24,141
-409,-136,273,273,-341,68,68,-39,-136,136,-48,126
-414,-122,292,268,-353,85,68,-39,-141,136,-73,112
-419,-107,312,263,-366,102,68,-39,-146,136,-97,97
-424,-112,312,268,-368,100,68,-39,-131,146,-122,92
-429,-117,312,273,-370,97,68,-39,-126,146,-136,87
-434,-122,312,278,-373,95,68,-39,-122,146,-151,82
-439,-126,312,283,-375,92,68,-39,-117,146,-165,78
-434,-117,317,275,-375,100,68,-39,-112,161,-151,87
-429,-117,312,273,-370,97,68,-39,-107,165,-136,97
-424,-117,307,270,-366,95,68,-39,-102,170,-122,107
-419,-117,302,268,-361,92,68,-39,-97,175,-107,117
-424,-122,302,273,-363,90,68,-48,-73,151,-97,107
-429,-126,302,278,-366,87,68,-48,-48,136,-87,107
-434,-131,302,283,-368,85,68,-48,-24,122,-78,107
-439,-136,302,287,-370,82,68,-48,0,107,-68,107
-429,-151,278,290,-353,63,68,-48,649,-805,-58,107
-429,-156,273,292,-351,58,68,-48,1298,-1717,-58,107
-429,-161,268,295,-348,53,68,-48,1947,-2630,-58,107
-429,-165,263,297,-346,48,68,-48,2596,-3542,-58,107
-414,-175,239,295,-326,31,68,-48,2156,-3025,-53,97
-409,-175,234,292,-322,29,68,-48,1717,-2508,-48,97
-405,-175,229,290,-317,26,68,-48,1278,-1991,-43,97
-400,-175,224,287,-312,24,68,-48,839,-1473,-39,97
-409,-185,224,297,-317,19,78,-48,610,-1151,-24,73
-409,-185,224,297,-317,19,78,-48,390,-829,-9,58
-409,-185,224,297,-317,19,78,-48,170,-507,4,43
-409,-185,224,297,-317,19,78,-48,-48,-185,19,29
-400,-180,219,290,-309,19,78,-48,-78,-156,39,14
-400,-175,224,287,-312,24,78,-48,-97,-126,48,9
-400,-170,229,285,-314,29,78,-48,-117,-97,58,4
-400,-165,234,283,-317,34,78,-48,-136,-68,68,0
-405,-170,234,287,-319,31,78,-48,-151,-48,63,9
-409,-175,234,292,-322,29,78,-48,-165,-39,58,9
-414,-180,234,297,-324,26,78,-48,-180,-29,53,9
-419,-185,234,302,-326,24,78,-48,-195,-19,48,9
-400,-180,219,290,-309,19,78,-48,-195,-19,48,9
-390,-175,214,283,-302,19,78,-48,-195,-19,48,9
-380,-170,209,275,-295,19,78,-48,-195,-19,48,9
-370,-165,204,268,-287,19,78,-48,-195,-19,48,9
-375,-175,200,275,-287,12,78,-48,-200,-14,34,9
-380,-185,195,283,-287,4,78,-48,-204,-9,29,9
-385,-195,190,290,-287,-2,78,-48,-209,-4,24,9
-390,-204,185,297,-287,-9,78,-48,-214,0,19,9
-405,-204,200,305,-302,-2,78,-48,-209,4,4,-4
-409,-204,204,307,-307,0,78,-48,-204,9,0,-9
-414,-204,209,309,-312,2,78,-48,-200,14,-4,-14
-419,-204,214,312,-317,4,78,-48,-195,19,-9,-19
-409,-195,214,302,-312,9,78,-48,-185,24,4,-9
-409,-195,214,302,-312,9,78,-48,-185,29,9,-9
-409,-195,214,302,-312,9,78,-48,-185,34,14,-9
-409,-195,214,302,-312,9,78,-48,-185,39,19,-9
-409,-204,204,307,-307,0,78,-48,-195,34,19,-19
-409,-204,204,307,-307,0,78,-48,-195,29,19,-29
-409,-204,204,307,-307,0,78,-48,-195,24,19,-39
-409,-204,204,307,-307,0,78,-48,-195,19,19,-48
-409,-209,200,309,-305,-4,78,-48,-204,19,9,-63
-409,-214,195,312,-302,-9,78,-48,-204,19,9,-68
-409,-219,190,314,-300,-14,78,-48,-204,19,9,-73
-409,-224,185,317,-297,-19,78,-48,-204,19,9,-78
-405,-224,180,314,-292,-21,78,-48,-204,19,9,-78
-400,-224,175,312,-287,-24,78,-48,-204,19,9,-78
-395,-224,170,309,-283,-26,78,-48,-204,19,9,-78
-390,-224,165,307,-278,-29,78,-48,-204,19,9,-78
-390,-224,165,307,-278,-29,78,-48,-214,19,19,-82
-390,-224,165,307,-278,-29,78,-48,-214,19,19,-87
-390,-224,165,307,-278,-29,78,-48,-214,19,19,-92
-390,-224,165,307,-278,-29,78,-48,-214,19,19,-97
-380,-219,161,300,-270,-29,78,-48,-224,29,14,-87
-380,-214,165,297,-273,-24,78,-48,-224,29,9,-87
-380,-209,170,295,-275,-19,78,-48,-224,29,4,-87
-380,-204,175,292,-278,-14,78,-48,-224,29,0,-87
-380,-204,175,292,-278,-14,78,-48,-224,29,-9,-92
-380,-204,175,292,-278,-14,78,-48,-224,29,-9,-97
-380,-204,175,292,-278,-14,78,-48,-224,29,-9,-102
-380,-204,175,292,-278,-14,78,-48,-224,29,-9,-107
-366,-200,165,283,-265,-17,78,-48,-224,39,0,-97
-361,-195,165,278,-263,-14,78,-48,-224,39,0,-97
-356,-190,165,273,-261,-12,78,-48,-224,39,0,-97
-351,-185,165,268,-258,-9,78,-48,-224,39,0,-97
-341,-175,165,258,-253,-4,78,-48,-224,39,-14,-112
-341,-165,175,253,-258,4,78,-48,-224,39,-19,-117
-341,-156,185,248,-263,14,78,-48,-224,39,-24,-122
-341,-146,195,244,-268,24,78,-48,-224,39,-29,-126
-356,-117,239,236,-297,61,78,-48,-209,73,4,-97
-361,-97,263,229,-312,82,78,-48,-204,107,29,-78
-366,-78,287,222,-326,104,78,-48,-200,141,53,-58
-370,-58,312,214,-341,126,78,-48,-195,175,78,-39
-346,19,366,163,-356,192,87,-48,-146,283,239,102
-331,87,419,122,-375,253,87,-48,-107,390,400,244
-317,156,473,80,-395,314,87,-48,-68,497,561,385
-302,224,527,39,-414,375,87,-48,-29,605,722,527
-239,322,561,-41,-400,441,87,-48,-39,722,1127,785
-175,409,585,-117,-380,497,87,-48,-48,839,1522,1044
-112,497,610,-192,-361,553,87,-48,-58,956,1917,1302
-48,585,634,-268,-341,610,87,-48,-68,1073,2313,1561
-4,556,561,-275,-283,558,87,-48,-136,1024,2640,1551
29,527,497,-278,-234,512,87,-48,-204,985,2957,1542
63,497,434,-280,-185,466,87,-48,-273,946,3274,1532
97,468,370,-283,-136,419,87,-48,-341,907,3591,1522
29,331,302,-180,-136,317,87,-48,-507,624,3264,1239
-39,204,244,-82,-141,224,87,-48,-663,341,2937,966
-107,78,185,14,-146,131,87,-48,-819,58,2610,692
-175,-48,126,112,-151,39,87,-48,-976,-224,2283,419
-219,-78,141,148,-180,31,87,-48,-961,-326,2122,283
-263,-107,156,185,-209,24,87,-48,-946,-419,1971,156
-307,-136,170,222,-239,17,87,-48,-932,-512,1820,29
-351,-165,185,258,-268,9,87,-48,-917,-605,1668,-97
-341,-190,151,265,-246,-19,87,-48,-810,-502,1595,-117
-331,-204,126,268,-229,-39,87,-48,-702,-409,1532,-126
-322,-219,102,270,-212,-58,87,-48,-595,-317,1468,-136
-312,-234,78,273,-195,-78,87,-48,-488,-224,1405,-146
-302,-219,82,261,-192,-68,87,-48,-414,-146,1346,-131
-292,-214,78,253,-185,-68,87,-48,-351,-78,1298,-126
-283,-209,73,246,-178,-68,87,-48,-287,-9,1249,-122
-273,-204,68,239,-170,-68,87,-48,-224,58,1200,-117
-263,-175,87,219,-175,-43,87,-48,-214,78,1146,-107
-263,-156,107,209,-185,-24,87,-48,-204,87,1102,-97
-263,-136,126,200,-195,-4,87,-48,-195,97,1058,-87
-263,-117,146,190,-204,14,87,-48,-185,107,1015,-78
-248,-112,136,180,-192,12,87,-58,-190,97,976,-87
-244,-107,136,175,-190,14,87,-58,-195,97,946,-87
-239,-102,136,170,-187,17,87,-58,-200,97,917,-87
-234,-97,136,165,-185,19,87,-58,-204,97,888,-87
-234,-92,141,163,-187,24,87,-58,-204,102,878,-78
-234,-87,146,161,-190,29,87,-58,-204,107,868,-78
-234,-82,151,158,-192,34,87,-58,-204,112,858,-78
-234,-78,156,156,-195,39,87,-58,-204,117,849,-78
-224,-78,146,151,-185,34,87,-58,-195,126,824,-78
-224,-78,146,151,-185,34,87,-58,-195,126,800,-78
-224,-78,146,151,-185,34,87,-58,-195,126,775,-78
-224,-78,146,151,-185,34,87,-58,-195,126,751,-78
-214,-87,126,151,-170,19,87,-58,-204,126,732,-68
-214,-87,126,151,-170,19,87,-58,-204,126,712,-68
-214,-87,126,151,-170,19,87,-58,-204,126,692,-68
-214,-87,126,151,-170,19,87,-58,-204,126,673,-68
-204,-73,131,139,-168,29,87,-58,-204,136,658,-68
-195,-68,126,131,-161,29,87,-58,-204,136,644,-68
-185,-63,122,124,-153,29,87,-58,-204,136,629,-68
-175,-58,117,117,-146,29,87,-58,-204,136,614,-68
-175,-68,107,122,-141,19,97,-58,-200,146,610,-63
-175,-68,107,122,-141,19,97,-58,-195,146,605,-58
-175,-68,107,122,-141,19,97,-58,-190,146,600,-53
-175,-68,107,122,-141,19,97,-58,-185,146,595,-48
-165,-78,87,122,-126,4,97,-58,-190,146,585,-58
-165,-78,87,122,-126,4,97,-58,-195,146,575,-58
-165,-78,87,122,-126,4,97,-58,-200,146,566,-58
-165,-78,87,122,-126,4,97,-58,-204,146,556,-58
-175,-68,107,122,-141,19,97,-58,-195,151,541,-53
-175,-68,107,122,-141,19,97,-58,-195,156,536,-48
-175,-68,107,122,-141,19,97,-58,-195,161,531,-43
-175,-68,107,122,-141,19,97,-58,-195,165,527,-39
-175,-58,117,117,-146,29,97,-58,-195,165,527,-29
-175,-58,117,117,-146,29,97,-58,-195,165,527,-29
-175,-58,117,117,-146,29,97,-58,-195,165,527,-29
-175,-58,117,117,-146,29,97,-58,-195,165,527,-29
-175,-68,107,122,-141,19,97,-58,-195,175,517,-29
-175,-68,107,122,-141,19,97,-58,-195,175,517,-29
-175,-68,107,122,-141,19,97,-58,-195,175,517,-29
-175,-68,107,122,-141,19,97,-58,-195,175,517,-29
-165,-63,102,114,-134,19,97,-58,-190,190,517,-19
-165,-58,107,112,-136,24,97,-58,-185,195,517,-19
-165,-53,112,109,-139,29,97,-58,-180,200,517,-19
-165,-48,117,107,-141,34,97,-58,-175,204,517,-19
-151,-48,102,100,-126,26,97,-58,-175,219,527,-14
-146,-48,97,97,-122,24,97,-58,-175,224,527,-9
-141,-48,92,95,-117,21,97,-58,-175,229,527,-4
-136,-48,87,92,-112,19,97,-58,-175,234,527,0
-136,-63,73,100,-104,4,97,-58,-165,244,536,4
-136,-68,68,102,-102,0,97,-58,-165,244,536,9
-136,-73,63,104,-100,-4,97,-58,-165,244,536,14
-136,-78,58,107,-97,-9,97,-58,-165,244,536,19
-131,-68,63,100,-97,-2,97,-58,-165,258,556,34
-126,-68,58,97,-92,-4,97,-58,-165,263,566,39
-122,-68,53,95,-87,-7,97,-58,-165,268,575,43
-117,-68,48,92,-82,-9,97,-58,-165,273,585,48
-107,-68,39,87,-73,-14,97,-58,-151,278,610,58
-107,-68,39,87,-73,-14,97,-58,-146,283,624,58
-107,-68,39,87,-73,-14,97,-58,-141,287,639,58
-107,-68,39,87,-73,-14,97,-58,-136,292,653,58
-97,-78,19,87,-58,-29,97,-58,-136,307,683,73
-97,-78,19,87,-58,-29,97,-58,-136,312,702,78
-97,-78,19,87,-58,-29,97,-58,-136,317,722,82
-97,-78,19,87,-58,-29,97,-58,-136,322,741,87
-92,-68,24,80,-58,-21,97,-58,-136,326,756,97
-87,-68,19,78,-53,-24,97,-58,-136,331,761,97
-82,-68,14,75,-48,-26,97,-58,-136,336,766,97
-78,-68,9,73,-43,-29,97,-58,-136,341,771,97
-63,-53,9,58,-36,-21,97,-58,-146,351,756,97
-58,-48,9,53,-34,-19,97,-58,-146,351,751,97
-53,-43,9,48,-31,-17,97,-58,-146,351,746,97
-48,-39,9,43,-29,-14,97,-58,-146,351,741,97
-48,-43,4,46,-26,-19,107,-58,-156,346,732,107
-48,-48,0,48,-24,-24,107,-58,-156,341,732,107
-48,-53,-4,51,-21,-29,107,-58,-156,336,732,107
-48,-58,-9,53,-19,-34,107,-58,-156,331,732,107
-58,-48,9,53,-34,-19,107,-58,-165,331,732,102
-58,-48,9,53,-34,-19,107,-58,-165,331,732,97
-58,-48,9,53,-34,-19,107,-58,-165,331,732,92
-58,-48,9,53,-34,-19,107,-58,-165,331,732,87
-68,-53,14,61,-41,-19,107,-58,-156,322,727,78
-78,-58,19,68,-48,-19,107,-58,-156,322,722,78
-87,-63,24,75,-56,-19,107,-58,-156,322,717,78
-97,-68,29,82,-63,-19,107,-58,-156,322,712,78
-78,-78,0,78,-39,-39,107,-58,-161,312,692,87
-68,-78,-9,73,-29,-43,107,-58,-165,312,683,87
-58,-78,-19,68,-19,-48,107,-58,-170,312,673,87
-48,-78,-29,63,-9,-53,107,-58,-175,312,663,87
-48,-82,-34,65,-7,-58,107,-58,-185,307,639,78
-48,-87,-39,68,-4,-63,107,-58,-185,302,624,78
-48,-92,-43,70,-2,-68,107,-58,-185,297,610,78
-48,-97,-48,73,0,-73,107,-58,-185,292,595,78
-48,-82,-34,65,-7,-58,107,-68,-200,283,575,68
-48,-78,-29,63,-9,-53,107,-68,-204,283,566,68
-48,-73,-24,61,-12,-48,107,-68,-209,283,556,68
-48,-68,-19,58,-14,-43,107,-68,-214,283,546,68
-58,-78,-19,68,-19,-48,107,-68,-229,268,531,58
-58,-78,-19,68,-19,-48,107,-68,-234,263,517,58
-58,-78,-19,68,-19,-48,107,-68,-239,258,502,58
-58,-78,-19,68,-19,-48,107,-68,-244,253,488,58
-58,-68,-9,63,-24,-39,107,-68,-248,244,468,58
-58,-68,-9,63,-24,-39,107,-68,-253,234,458,58
-58,-68,-9,63,-24,-39,107,-68,-258,224,448,58
-58,-68,-9,63,-24,-39,107,-68,-263,214,439,58
-73,-68,4,70,-39,-31,107,-68,-268,200,424,53
-78,-68,9,73,-43,-29,107,-68,-273,195,409,48
-82,-68,14,75,-48,-26,107,-68,-278,190,395,43
-87,-68,19,78,-53,-24,107,-68,-283,185,380,39
-87,-58,29,73,-58,-14,107,-68,-292,165,356,34
-87,-58,29,73,-58,-14,107,-68,-302,156,341,29
-87,-58,29,73,-58,-14,107,-68,-312,146,326,24
-87,-58,29,73,-58,-14,107,-68,-322,136,312,19
-102,-53,48,78,-75,-2,107,-68,-326,131,287,9
-107,-48,58,78,-82,4,107,-68,-331,126,273,0
-112,-43,68,78,-90,12,107,-68,-336,122,258,-9
-117,-39,78,78,-97,19,107,-68,-341,117,244,-19
-126,-48,78,87,-102,14,117,-68,-341,112,224,-34
-126,-48,78,87,-102,14,117,-68,-341,107,214,-39
-126,-48,78,87,-102,14,117,-68,-341,102,204,-43
-126,-48,78,87,-102,14,117,-68,-341,97,195,-48
-136,-53,82,95,-109,14,117,-68,-331,97,180,-39
-136,-58,78,97,-107,9,117,-68,-331,97,175,-39
-136,-63,73,100,-104,4,117,-68,-331,97,170,-39
-136,-68,68,102,-102,0,117,-68,-331,97,165,-39
-126,-63,63,95,-95,0,117,-68,-331,97,156,-48
-126,-58,68,92,-97,4,117,-68,-331,97,156,-48
-126,-53,73,90,-100,9,117,-68,-331,97,156,-48
-126,-48,78,87,-102,14,117,-68,-331,97,156,-48
-126,-58,68,92,-97,4,117,-68,-331,87,141,-63
-126,-58,68,92,-97,4,117,-68,-331,87,136,-68
-126,-58,68,92,-97,4,117,-68,-331,87,131,-73
-126,-58,68,92,-97,4,117,-68,-331,87,126,-78
-126,-58,68,92,-97,4,117,-68,-346,78,117,-92
-126,-58,68,92,-97,4,117,-68,-351,78,107,-97
-126,-58,68,92,-97,4,117,-68,-356,78,97,-102
-126,-58,68,92,-97,4,117,-68,-361,78,87,-107
-126,-68,58,97,-92,-4,117,-68,-361,78,87,-97
-126,-68,58,97,-92,-4,117,-68,-361,78,87,-97
-126,-68,58,97,-92,-4,117,-68,-361,78,87,-97
-126,-68,58,97,-92,-4,117,-68,-361,78,87,-97
-136,-82,53,109,-95,-14,117,-68,-351,78,87,-107
-146,-87,58,117,-102,-14,117,-68,-351,78,87,-107
-156,-92,63,124,-109,-14,117,-68,-351,78,87,-107
-165,-97,68,131,-117,-14,117,-68,-351,78,87,-107
-156,-92,63,124,-109,-14,117,-68,-361,87,73,-117
-146,-87,58,117,-102,-14,117,-68,-361,87,68,-117
-136,-82,53,109,-95,-14,117,-68,-361,87,63,-117
-126,-78,48,102,-87,-14,117,-68,-361,87,58,-117
-122,-63,58,92,-90,-2,117,-68,-351,87,58,-117
-117,-58,58,87,-87,0,117,-68,-351,87,58,-117
-112,-53,58,82,-85,2,117,-68,-351,87,58,-117
-107,-48,58,78,-82,4,117,-68,-351,87,58,-117
-92,-43,48,68,-70,2,117,-68,-351,92,48,-126
-87,-39,48,63,-68,4,117,-68,-351,97,48,-126
-82,-34,48,58,-65,7,117,-68,-351,102,48,-126
-78,-29,48,53,-63,9,117,-68,-351,107,48,-126
-87,-43,43,65,-65,0,117,-68,-361,102,39,-117
-97,-48,48,73,-73,0,117,-68,-361,97,39,-117
-107,-53,53,80,-80,0,117,-68,-361,92,39,-117
-117,-58,58,87,-87,0,117,-68,-361,87,39,-117
-117,-63,53,90,-85,-4,126,-68,-366,78,34,-122
-117,-68,48,92,-82,-9,126,-68,-370,78,29,-126
-117,-73,43,95,-80,-14,126,-68,-375,78,24,-131
-117,-78,39,97,-78,-19,126,-68,-380,78,19,-136
-107,-68,39,87,-73,-14,126,-68,-370,87,29,-146
-107,-68,39,87,-73,-14,126,-68,-370,87,29,-146
-107,-68,39,87,-73,-14,126,-68,-370,87,29,-146
-107,-68,39,87,-73,-14,126,-68,-370,87,29,-146
-102,-58,43,80,-73,-7,126,-78,-361,87,29,-141
-97,-58,39,78,-68,-9,126,-78,-361,87,29,-136
-92,-58,34,75,-63,-12,126,-78,-361,87,29,-131
-87,-58,29,73,-58,-14,126,-78,-361,87,29,-126
-73,-43,29,58,-51,-7,126,-78,-361,92,39,-126
-68,-39,29,53,-48,-4,126,-78,-361,97,39,-126
-63,-34,29,48,-46,-2,126,-78,-361,102,39,-126
-58,-29,29,43,-43,0,126,-78,-361,107,39,-126
-53,-19,34,36,-43,7,126,-78,-356,117,43,-126
-48,-19,29,34,-39,4,126,-78,-351,117,48,-126
-43,-19,24,31,-34,2,126,-78,-346,117,53,-126
-39,-19,19,29,-29,0,126,-78,-341,117,58,-126
-34,-9,24,21,-29,7,126,-78,-346,126,58,-117
-29,-9,19,19,-24,4,126,-78,-351,126,58,-117
-24,-9,14,17,-19,2,126,-78,-356,126,58,-117
-19,-9,9,14,-14,0,126,-78,-361,126,58,-117
-9,0,9,4,-9,4,126,-78,-361,117,58,-102
-9,0,9,4,-9,4,126,-78,-361,117,58,-97
-9,0,9,4,-9,4,126,-78,-361,117,58,-92
-9,0,9,4,-9,4,126,-78,-361,117,58,-87
-9,-9,0,9,-4,-4,126,-78,-361,107,63,-78
-9,-9,0,9,-4,-4,126,-78,-361,107,68,-78
-9,-9,0,9,-4,-4,126,-78,-361,107,73,-78
-9,-9,0,9,-4,-4,126,-78,-361,107,78,-78
-14,-14,0,14,-7,-7,126,-78,-370,112,78,-78
-19,-19,0,19,-9,-9,126,-78,-370,117,78,-78
-24,-24,0,24,-12,-12,126,-78,-370,122,78,-78
-29,-29,0,29,-14,-14,126,-78,-370,126,78,-78
-14,-19,-4,17,-4,-12,136,-78,-380,117,78,-68
-9,-19,-9,14,0,-14,136,-78,-380,117,78,-68
-4,-19,-14,12,4,-17,136,-78,-380,117,78,-68
0,-19,-19,9,9,-19,136,-78,-380,117,78,-68
0,-4,-4,2,2,-4,136,-78,-380,126,78,-68
0,0,0,0,0,0,136,-78,-380,126,78,-68
0,4,4,-2,-2,4,136,-78,-380,126,78,-68
0,19,19,-9,-9,19,136,-73,-380,131,78,-63
19,0,-19,-9,19,-9,136,-73,-375,122,78,-58
0,0,0,0,0,0,136,-73,-375,122,78,-58
0,0,0,0,0,0,126,-82,-380,122,73,-68
4,-4,-9,0,7,-7,122,-82,-390,117,68,-68
9,-14,-24,2,17,-19,122,-82,-395,112,58,-73
4,-9,-14,2,9,-12,131,-78,-395,112,53,-78
0,0,0,0,0,0,131,-78,-400,112,53,-82
4,0,-4,-2,4,-2,131,-78,-405,117,48,-87
4,9,4,-7,0,7,136,-82,-405,117,58,-78
4,9,4,-7,0,7,136,-82,-400,117,58,-78
4,9,4,-7,0,7,136,-82,-395,117,53,-78
0,9,9,-4,-4,9,136,-82,-385,112,53,-78
0,24,24,-12,-12,24,136,-87,-390,122,39,-82
0,24,24,-12,-12,24,136,-87,-395,131,53,-82
4,29,24,-17,-9,26,136,-87,-400,136,48,-82
9,34,24,-21,-7,29,136,-82,-400,136,39,-87
9,43,34,-26,-12,39,136,-82,-390,131,39,-78
0,43,43,-21,-21,43,136,-82,-390,131,43,-78
-9,43,53,-17,-31,48,131,-82,-385,126,43,-78
0,43,43,-21,-21,43,131,-82,-380,122,43,-82
0,43,43,-21,-21,43,126,-87,-380,131,39,-92
0,39,39,-19,-19,39,141,-87,-380,141,39,-92
-4,39,43,-17,-24,41,141,-87,-380,141,39,-87
-9,34,43,-12,-26,39,131,-82,-380,151,43,-78
-9,29,39,-9,-24,34,131,-82,-395,151,34,-78
-9,14,24,-2,-17,19,131,-82,-395,146,34,-87
-9,4,14,2,-12,9,136,-82,-400,141,29,-87
-9,-4,4,7,-7,0,136,-87,-405,131,24,-87
-14,-9,4,12,-9,-2,146,-82,-419,122,9,-97
-4,-19,-14,12,4,-17,146,-82,-424,117,9,-97
-4,-24,-19,14,7,-21,146,-87,-434,117,0,-97
-9,-34,-24,21,7,-29,141,-97,-453,102,-4,-107
-19,-34,-14,26,-2,-24,141,-82,-458,82,-14,-117
-29,-39,-9,34,-9,-24,136,-92,-468,78,-24,-117
-34,-39,-4,36,-14,-21,136,-87,-473,63,-39,-122
-34,-48,-14,41,-9,-31,136,-97,-492,53,-48,-136
-43,-48,-4,46,-19,-26,146,-92,-507,53,-43,-126
-43,-48,-4,46,-19,-26,146,-92,-517,48,-43,-126
-43,-48,-4,46,-19,-26,141,-87,-522,43,-48,-131
-39,-48,-9,43,-14,-29,136,-92,-536,34,-63,-136
-29,-39,-9,34,-9,-24,141,-87,-531,34,-53,-136
-29,-39,-9,34,-9,-24,136,-87,-536,39,-48,-131
-19,-34,-14,26,-2,-24,136,-87,-522,43,-43,-122
-19,-29,-9,24,-4,-19,136,-87,-517,48,-43,-107
-19,-24,-4,21,-7,-14,136,-82,-507,53,-39,-107
-24,-24,0,24,-12,-12,136,-82,-507,58,-39,-107
-19,-29,-9,24,-4,-19,141,-87,-507,63,-34,-107
-9,-14,-4,12,-2,-9,151,-87,-507,68,-24,-107
-19,-19,0,19,-9,-9,151,-82,-522,68,-29,-117
-19,-34,-14,26,-2,-24,146,-82,-527,68,-43,-122
-29,-39,-9,34,-9,-24,146,-82,-531,63,-53,-122
-19,-39,-19,29,0,-29,151,-82,-536,63,-58,-122
-9,-39,-29,24,9,-34,151,-87,-531,48,-58,-117
-19,-39,-19,29,0,-29,151,-87,-531,48,-63,-117
-29,-43,-14,36,-7,-29,146,-87,-531,48,-68,-122
-48,-48,0,48,-24,-24,146,-87,-531,48,-68,-131
-58,-43,14,51,-36,-14,141,-97,-522,48,-68,-131
-58,-48,9,53,-34,-19,151,-87,-522,53,-68,-136
-58,-43,14,51,-36,-14,151,-87,-522,53,-68,-136
-68,-39,29,53,-48,-4,151,-87,-522,53,-73,-136
-63,-48,14,56,-39,-17,156,-97,-531,68,-82,-146
-63,-58,4,61,-34,-26,156,-87,-527,68,-82,-146
-63,-73,-9,68,-26,-41,151,-87,-531,58,-92,-156
-63,-92,-29,78,-17,-61,151,-87,-536,58,-92,-156
-68,-82,-14,75,-26,-48,151,-87,-541,58,-82,-151
-68,-78,-9,73,-29,-43,151,-87,-536,53,-78,-156
-63,-78,-14,70,-24,-46,151,-92,-531,48,-68,-161
-63,-82,-19,73,-21,-51,141,-92,-531,48,-68,-165
-63,-92,-29,78,-17,-61,141,-87,-541,48,-63,-165
-58,-82,-24,70,-17,-53,151,-87,-536,48,-63,-170
-58,-82,-24,70,-17,-53,151,-87,-536,53,-58,-170
-68,-97,-29,82,-19,-63,151,-87,-536,53,-58,-175
-68,-107,-39,87,-14,-73,151,-97,-541,48,-48,-180
-73,-97,-24,85,-24,-61,151,-97,-541,48,-53,-180
-78,-97,-19,87,-29,-58,156,-97,-546,43,-63,-180
-87,-102,-14,95,-36,-58,156,-92,-551,43,-63,-185
-78,-102,-24,90,-26,-63,151,-92,-561,34,-68,-185
-73,-102,-29,87,-21,-65,151,-97,-561,34,-68,-185
-73,-97,-24,85,-24,-61,151,-97,-566,34,-68,-185
-48,-87,-39,68,-4,-63,151,-97,-566,39,-68,-180
-53,-97,-43,75,-4,-70,151,-97,-575,39,-73,-180
-63,-97,-34,80,-14,-65,156,-92,-570,39,-73,-185
-68,-97,-29,82,-19,-63,156,-92,-570,39,-73,-195
-68,-107,-39,87,-14,-73,161,-92,-575,39,-78,-200
-68,-97,-29,82,-19,-63,161,-87,-566,43,-68,-190
-78,-97,-19,87,-29,-58,156,-87,-566,48,-63,-180
-78,-97,-19,87,-29,-58,156,-92,-566,48,-63,-170
-87,-87,0,87,-43,-43,156,-92,-570,53,-63,-161
-92,-87,4,90,-48,-41,156,-92,-570,43,-78,-170
-112,-87,24,100,-68,-31,156,-92,-570,53,-92,-185
-112,-78,34,95,-73,-21,156,-97,-580,53,-117,-190
-102,-53,48,78,-75,-2,156,-97,-561,87,-87,-180
-112,-24,87,68,-100,31,156,-97,-522,156,-9,-131
-92,39,131,26,-112,85,165,-92,-507,239,112,-39
-82,82,165,0,-124,124,165,-97,-497,317,244,82
-92,97,190,-2,-141,143,161,-97,-453,424,414,219
-53,185,239,-65,-146,212,161,-97,-366,556,614,400
9,297,287,-153,-139,292,161,-92,-331,697,868,644
63,405,341,-234,-139,373,161,-97,-346,829,1195,941
136,512,375,-324,-119,444,161,-97,-366,932,1537,1249
214,575,361,-395,-73,468,161,-92,-395,1019,1844,1532
278,629,351,-453,-36,490,161,-97,-434,1088,2078,1756
336,644,307,-490,14,475,161,-97,-448,1141,2142,1815
409,595,185,-502,112,390,165,-97,-453,1146,2015,1732
448,468,19,-458,214,244,165,-92,-522,1015,1737,1556
409,317,-92,-363,251,112,161,-97,-663,785,1356,1268
331,146,-185,-239,258,-19,161,-92,-771,614,956,893
258,24,-234,-141,246,-104,165,-92,-941,361,585,566
136,-43,-180,-46,158,-112,170,-97,-1220,-97,175,331
34,-107,-141,36,87,-124,165,-97,-1415,-492,-156,141
-4,-151,-146,78,70,-148,170,-92,-1444,-678,-375,-34
-58,-151,-92,104,17,-122,170,-97,-1410,-736,-522,-146
-97,-131,-34,114,-31,-82,170,-97,-1342,-683,-551,-195
-102,-122,-19,112,-41,-70,170,-97,-1132,-610,-468,-209
-97,-126,-29,112,-34,-78,165,-97,-239,-1405,-366,-209
-78,-141,-63,109,-7,-102,170,-97,1615,-3664,-326,-214
-68,-146,-78,107,4,-112,165,-102,2684,-5119,-297,-224
-63,-170,-107,117,21,-139,170,-97,2288,-4601,-244,-234
-48,-185,-136,117,43,-161,170,-102,2142,-4221,-185,-224
-24,-185,-161,104,68,-173,165,-102,2459,-4509,-141,-214
-34,-175,-141,104,53,-158,170,-97,2449,-4470,-97,-214
-14,-136,-122,75,53,-129,170,-102,2337,-4313,-78,-200
4,-112,-117,53,61,-114,170,-102,2386,-4382,-63,-185
-4,-112,-107,58,51,-109,170,-97,2386,-4416,-53,-180
-34,-87,-53,61,9,-70,170,-102,2357,-4372,-53,-156
-53,-63,-9,58,-21,-36,175,-97,2381,-4382,-43,-117
-43,-63,-19,53,-12,-41,180,-107,2371,-4401,-39,-126
-43,-58,-14,51,-14,-36,170,-112,2371,-4411,-58,-126
-39,-58,-19,48,-9,-39,170,-112,2371,-4416,-53,-122
-34,-53,-19,43,-7,-36,170,-107,2371,-4426,-34,-112
-24,-58,-34,41,4,-46,175,-112,2347,-4431,-24,-122
-19,-58,-39,39,9,-48,175,-107,2332,-4426,-24,-117
-14,-63,-48,39,17,-56,175,-107,2322,-4431,-24,-117
-9,-63,-53,36,21,-58,170,-102,2318,-4431,-24,-122
-14,-58,-43,36,14,-51,170,-97,2318,-4435,-24,-122
0,-58,-58,29,29,-58,170,-97,2318,-4435,-14,-112
4,-58,-63,26,34,-61,170,-97,2322,-4440,-24,-112
-14,-48,-34,31,9,-41,170,-102,2327,-4445,-24,-112
-19,-58,-39,39,9,-48,180,-102,2318,-4455,-14,-112
-14,-63,-48,39,17,-56,180,-112,2303,-4460,-4,-112
-4,-63,-58,34,26,-61,180,-97,2293,-4460,-4,-107
9,-48,-58,19,34,-53,180,-107,2288,-4455,9,-102
4,-39,-43,17,24,-41,170,-107,2298,-4455,9,-102
0,-39,-39,19,19,-39,175,-107,2303,-4455,0,-102
-14,-29,-14,21,0,-21,175,-97,2303,-4455,9,-102
-9,-29,-19,19,4,-24,175,-107,2303,-4455,14,-102
-19,-48,-29,34,4,-39,180,-107,1966,-4030,24,-92
-19,-48,-29,34,4,-39,175,-107,1644,-3616,24,-92
-24,-43,-19,34,-2,-31,175,-112,1322,-3201,29,-92
-24,-43,-19,34,-2,-31,175,-112,1000,-2786,29,-87
-19,-48,-29,34,4,-39,175,-107,658,-2239,24,-87
-24,-53,-29,39,2,-41,180,-107,312,-1698,19,-92
-29,-58,-29,43,0,-43,180,-107,-24,-1156,19,-92
-34,-68,-34,51,0,-51,180,-107,-366,-619,29,-97
-34,-58,-24,46,-4,-41,180,-112,-395,-556,39,-97
-34,-58,-24,46,-4,-41,180,-112,-414,-492,39,-97
-34,-58,-24,46,-4,-41,180,-107,-448,-434,43,-97
-34,-58,-24,46,-4,-41,180,-107,-468,-370,53,-97
-34,-48,-14,41,-9,-31,185,-107,-488,-341,43,-87
-34,-58,-24,46,-4,-41,185,-107,-497,-312,53,-87
-34,-58,-24,46,-4,-41,185,-107,-488,-278,63,-87
-24,-58,-34,41,4,-46,185,-107,-473,-248,68,-68
-34,-63,-29,48,-2,-46,185,-112,-483,-224,82,-73
-29,-39,-9,34,-9,-24,185,-112,-497,-204,82,-68
-29,-58,-29,43,0,-43,185,-112,-507,-180,68,-68
-39,-63,-24,51,-7,-43,185,-112,-507,-165,82,-73
-34,-63,-29,48,-2,-46,185,-112,-522,-151,78,-82
-19,-53,-34,36,7,-43,185,-117,-531,-131,82,-78
-9,-53,-43,31,17,-48,185,-117,-536,-112,82,-78
4,-53,-58,24,31,-56,185,-112,-536,-97,87,-78
0,-43,-43,21,21,-43,185,-107,-531,-92,87,-68
0,-39,-39,19,19,-39,185,-107,-527,-82,92,-68
9,-39,-48,14,29,-43,185,-107,-527,-68,92,-58
9,-39,-48,14,29,-43,185,-107,-536,-63,107,-53
4,-48,-53,21,29,-51,195,-117,-531,-48,102,-48
0,-48,-48,24,24,-48,190,-117,-536,-34,117,-48
0,-48,-48,24,24,-48,190,-112,-536,-19,126,-34
4,-43,-48,19,26,-46,190,-112,-527,-9,141,-29
9,-34,-43,12,26,-39,190,-112,-507,4,141,-34
19,-39,-58,9,39,-48,190,-112,-512,29,156,-29
19,-48,-68,14,43,-58,190,-117,-522,34,165,-24
24,-53,-78,14,51,-65,190,-117,-531,39,175,-9
19,-43,-63,12,41,-53,190,-117,-517,53,180,0
24,-34,-58,4,41,-46,185,-112,-512,78,185,0
53,-34,-87,-9,70,-61,185,-112,-512,87,204,9
43,-34,-78,-4,61,-56,190,-112,-507,92,209,9
58,-29,-87,-14,73,-58,200,-112,-507,107,224,14
53,-29,-82,-12,68,-56,190,-112,-522,107,239,14
58,-24,-82,-17,70,-53,185,-107,-522,112,248,19
78,-19,-97,-29,87,-58,185,-107,-517,117,258,29
87,-34,-122,-26,104,-78,195,-107,-507,136,273,29
87,-24,-112,-31,100,-68,195,-112,-497,141,283,39
78,-39,-117,-19,97,-78,195,-112,-497,151,283,43
58,-53,-112,-2,85,-82,195,-117,-497,151,278,43
68,-34,-102,-17,85,-68,195,-117,-512,156,283,43
87,-29,-117,-29,102,-73,195,-117,-507,170,292,58
102,-19,-122,-41,112,-70,200,-117,-512,175,287,63
107,-29,-136,-39,122,-82,200,-122,-517,180,283,63
117,-19,-136,-48,126,-78,200,-112,-517,175,278,63
122,-19,-141,-51,131,-80,195,-117,-522,175,283,63
126,-9,-136,-58,131,-73,195,-117,-522,180,278,63
117,-19,-136,-48,126,-78,195,-117,-522,180,283,63
92,-19,-112,-36,102,-65,200,-112,-531,185,292,63
122,-9,-131,-56,126,-70,200,-112,-531,190,287,63
136,0,-136,-68,136,-68,204,-112,-531,195,278,63
126,-14,-141,-56,134,-78,209,-117,-531,185,263,58
117,-24,-141,-46,129,-82,200,-107,-551,175,263,58
112,-24,-136,-43,124,-80,195,-117,-551,175,248,58
117,-19,-136,-48,126,-78,195,-117,-546,175,248,58
102,-19,-122,-41,112,-70,200,-112,-546,175,248,58
112,-9,-122,-51,117,-65,200,-112,-561,161,239,39
107,-14,-122,-46,114,-68,200,-117,-570,161,229,29
126,-14,-141,-56,134,-78,195,-117,-575,161,204,24
131,-9,-141,-61,136,-75,190,-117,-590,156,195,19
117,-9,-126,-53,122,-68,190,-122,-585,161,200,24
112,-14,-126,-48,119,-70,200,-122,-585,156,204,24
112,-29,-141,-41,126,-85,204,-122,-585,151,204,29
112,-29,-141,-41,126,-85,204,-122,-580,156,200,34
117,-29,-146,-43,131,-87,200,-122,-580,161,185,24
122,-29,-151,-46,136,-90,200,-122,-590,161,180,24
117,-29,-146,-43,131,-87,209,-122,-600,146,175,24
112,-19,-131,-46,122,-75,209,-131,-610,146,170,24
107,-9,-117,-48,112,-63,209,-122,-619,146,165,14
107,-9,-117,-48,112,-63,204,-117,-624,141,151,14
107,-14,-122,-46,114,-68,204,-117,-624,131,151,14
107,-14,-122,-46,114,-68,200,-117,-634,126,151,14
73,-24,-97,-24,85,-61,200,-117,-639,131,126,9
102,-19,-122,-41,112,-70,200,-122,-639,122,126,9
107,-19,-126,-43,117,-73,204,-126,-639,117,122,9
107,-19,-126,-43,117,-73,214,-126,-644,112,117,9
92,-14,-107,-39,100,-61,214,-131,-663,97,112,9
63,-24,-87,-19,75,-56,214,-136,-678,97,102,9
63,-19,-82,-21,73,-51,214,-131,-678,92,87,9
58,-9,-68,-24,63,-39,214,-126,-673,78,78,9
53,-9,-63,-21,58,-36,204,-122,-688,63,53,4
58,0,-58,-29,58,-29,209,-122,-692,63,43,0
63,0,-63,-31,63,-31,214,-122,-697,48,34,-14
43,0,-43,-21,43,-21,214,-126,-702,29,19,-19
48,9,-39,-29,43,-14,204,-126,-717,29,4,-39
48,9,-39,-29,43,-14,209,-126,-722,29,-4,-43
43,4,-39,-24,41,-17,214,-131,-727,14,-14,-43
29,0,-29,-14,29,-14,219,-131,-746,9,-29,-43
29,0,-29,-14,29,-14,219,-131,-751,9,-39,-53
29,0,-29,-14,29,-14,219,-131,-761,9,-39,-68
29,0,-29,-14,29,-14,219,-122,-736,9,-48,-73
29,-4,-34,-12,31,-19,219,-122,-736,0,-58,-78
9,-14,-24,2,17,-19,214,-131,-751,-4,-78,-78
-4,-4,0,4,-2,-2,219,-126,-766,-4,-82,-87
-9,0,9,4,-9,4,219,-126,-766,-9,-87,-87
-14,0,14,7,-14,7,219,-131,-761,-9,-92,-92
0,-9,-9,4,4,-9,224,-122,-766,9,-82,-92
0,-19,-19,9,9,-19,224,-122,-761,0,-87,-92
0,-19,-19,9,9,-19,219,-126,-746,0,-102,-97
4,-14,-19,4,12,-17,219,-126,-761,-4,-112,-107
29,-4,-34,-12,31,-19,219,-126,-756,-4,-102,-112
29,0,-29,-14,29,-14,219,-126,-756,-4,-102,-117
29,4,-24,-17,26,-9,219,-126,-761,-4,-107,-117
29,9,-19,-19,24,-4,219,-126,-761,-4,-117,-117
29,14,-14,-21,21,0,219,-136,-761,4,-126,-117
29,4,-24,-17,26,-9,219,-131,-756,4,-126,-117
39,4,-34,-21,36,-14,219,-131,-751,0,-131,-126
39,4,-34,-21,36,-14,214,-136,-756,-9,-141,-131
14,0,-14,-7,14,-7,214,-136,-766,-9,-146,-141
4,-4,-9,0,7,-7,219,-131,-766,0,-136,-141
-9,-9,0,9,-4,-4,224,-131,-766,0,-126,-141
-14,-19,-4,17,-4,-12,224,-131,-771,0,-126,-146
-14,-19,-4,17,-4,-12,224,-126,-771,-4,-141,-141
0,-19,-19,9,9,-19,224,-126,-771,-4,-146,-126
-9,-29,-19,19,4,-24,219,-126,-775,-9,-151,-131
-24,-29,-4,26,-9,-17,219,-126,-775,-14,-156,-136
-19,-24,-4,21,-7,-14,234,-136,-785,-14,-146,-146
-19,-24,-4,21,-7,-14,234,-131,-785,-19,-156,-146
-19,-29,-9,24,-4,-19,229,-131,-785,-19,-170,-151
-19,-29,-9,24,-4,-19,224,-136,-775,-19,-180,-151
-19,-14,4,17,-12,-4,234,-136,-771,-14,-170,-141
-34,-14,19,24,-26,2,234,-136,-771,-9,-170,-141
-34,-29,4,31,-19,-12,234,-136,-771,-4,-170,-141
-34,-29,4,31,-19,-12,234,-131,-771,-4,-170,-146
-29,-24,4,26,-17,-9,234,-131,-780,-4,-180,-165
-34,-24,9,29,-21,-7,234,-131,-800,-14,-180,-175
-34,-19,14,26,-24,-2,234,-136,-805,-14,-165,-180
-29,-19,9,24,-19,-4,234,-136,-805,-14,-165,-180
-19,-34,-14,26,-2,-24,234,-136,-785,0,-170,-161
-19,-34,-14,26,-2,-24,234,-136,-785,4,-170,-156
-24,-34,-9,29,-7,-21,239,-136,-785,4,-170,-151
-24,-34,-9,29,-7,-21,239,-131,-785,4,-175,-146
-24,-29,-4,26,-9,-17,239,-131,-771,14,-175,-136
-29,-29,0,29,-14,-14,239,-131,-756,14,-175,-146
-29,-39,-9,34,-9,-24,229,-131,-766,19,-170,-151
-19,-29,-9,24,-4,-19,229,-136,-766,19,-170,-156
-19,-24,-4,21,-7,-14,229,-146,-771,19,-165,-151
-19,-19,0,19,-9,-9,229,-141,-766,24,-170,-146
-29,-14,14,21,-21,0,234,-141,-771,34,-165,-141
-29,-9,19,19,-24,4,234,-141,-775,34,-136,-136
-4,-19,-14,12,4,-17,239,-136,-785,29,-146,-141
0,-19,-19,9,9,-19,239,-136,-795,24,-161,-146
9,-24,-34,7,21,-29,234,-136,-795,19,-180,-141
24,-24,-48,0,36,-36,234,-136,-805,14,-190,-146
4,-14,-19,4,12,-17,239,-146,-800,14,-165,-146
-4,-14,-9,9,2,-12,239,-141,-800,19,-161,-146
-9,-24,-14,17,2,-19,234,-141,-790,29,-146,-141
-14,-14,0,14,-7,-7,229,-136,-790,29,-141,-141
-19,-19,0,19,-9,-9,239,-136,-790,34,-146,-131
-9,-19,-9,14,0,-14,244,-136,-790,34,-141,-126
4,-14,-19,4,12,-17,244,-136,-790,39,-136,-122
0,-14,-14,7,7,-14,248,-136,-790,43,-136,-112
9,-14,-24,2,17,-19,248,-141,-785,43,-146,-112
4,-19,-24,7,14,-21,248,-141,-780,43,-146,-122
-9,-19,-9,14,0,-14,248,-136,-780,43,-131,-122
-14,-14,0,14,-7,-7,244,-136,-780,53,-126,-122
-4,-24,-19,14,7,-21,234,-141,-790,63,-126,-122
-4,-24,-19,14,7,-21,239,-141,-780,68,-126,-112
-4,-19,-14,12,4,-17,248,-141,-775,68,-122,-102
-4,-4,0,4,-2,-2,248,-146,-775,68,-117,-97
4,4,0,-4,2,2,258,-136,-785,68,-112,-97
4,-9,-14,2,9,-12,253,-136,-785,68,-117,-92
4,-9,-14,2,9,-12,244,-151,-790,68,-112,-92
9,-4,-14,-2,12,-9,244,-141,-790,73,-97,-97
14,4,-9,-9,12,-2,244,-151,-785,73,-87,-92
14,4,-9,-9,12,-2,244,-151,-785,82,-87,-87
14,4,-9,-9,12,-2,244,-151,-780,82,-87,-73
19,9,-9,-14,14,0,248,-146,-771,82,-87,-63
29,19,-9,-24,19,4,253,-146,-429,-341,-92,-63
14,9,-4,-12,9,2,253,-146,785,-1922,-92,-58
9,19,9,-14,0,14,253,-146,1210,-2713,-97,-58
19,14,-4,-17,12,4,253,-146,736,-2098,-97,-58
19,9,-9,-14,14,0,253,-146,273,-1493,-97,-58
19,4,-14,-12,17,-4,253,-146,-190,-888,-97,-58
19,0,-19,-9,19,-9,253,-146,-653,-283,-97,-58
9,9,0,-9,4,4,253,-151,-697,-195,-87,-63
19,0,-19,-9,19,-9,253,-151,-727,-122,-87,-58
0,0,0,0,0,0,253,-151,-761,-48,-87,-58
0,0,0,0,0,0,244,-161,-800,24,-92,-68
0,-9,-9,4,4,-9,244,-151,-800,19,-87,-53
4,-14,-19,4,12,-17,248,-151,-800,14,-87,-48
0,-14,-14,7,7,-14,263,-146,-795,14,-92,-43
-4,-9,-4,7,0,-7,268,-146,-795,14,-92,-39
14,0,-14,-7,14,-7,258,-146,-800,24,-97,-48
4,0,-4,-2,4,-2,253,-151,-810,29,-97,-48
4,0,-4,-2,4,-2,253,-151,-814,34,-97,-48
4,0,-4,-2,4,-2,253,-151,-819,39,-102,-48
9,9,0,-9,4,4,263,-151,-805,39,-97,-39
9,29,19,-19,-4,24,263,-156,-805,43,-92,-39
9,34,24,-21,-7,29,263,-156,-805,58,-68,-34
14,43,29,-29,-7,36,263,-156,-805,68,-63,-29
19,53,34,-36,-7,43,273,-151,-800,78,-58,-19
19,53,34,-36,-7,43,263,-151,-800,78,-58,-19
9,53,43,-31,-17,48,263,-151,-800,82,-53,-19
0,53,53,-26,-26,53,258,-151,-795,82,-53,-19
0,53,53,-26,-26,53,258,-161,-795,82,-63,-24
0,58,58,-29,-29,58,263,-156,-800,82,-58,-24
0,58,58,-29,-29,58,278,-156,-805,92,-58,-24
-4,63,68,-29,-36,65,278,-156,-810,92,-58,-19
0,73,73,-36,-36,73,278,-151,-800,92,-53,-19
9,73,63,-41,-26,68,273,-151,-800,97,-53,-19
19,63,43,-41,-12,53,268,-151,-795,97,-53,-29
29,58,29,-43,0,43,268,-151,-795,97,-58,-29
29,53,24,-41,2,39,273,-156,-800,92,-63,-39
34,53,19,-43,7,36,273,-161,-814,82,-68,-39
43,48,4,-46,19,26,273,-161,-819,78,-68,-39
43,48,4,-46,19,26,273,-165,-829,78,-78,-39
34,34,0,-34,17,17,278,-170,-854,73,-92,-39
29,24,-4,-26,17,9,278,-165,-858,63,-92,-39
14,19,4,-17,4,12,273,-175,-868,58,-102,-39
4,19,14,-12,-4,17,273,-170,-873,43,-117,-43
9,19,9,-14,0,14,273,-170,-902,24,-126,-68
14,9,-4,-12,9,2,273,-165,-907,14,-131,-68
19,9,-9,-14,14,0,273,-165,-917,9,-131,-68
24,9,-14,-17,19,-2,268,-161,-922,4,-136,-73
19,9,-9,-14,14,0,268,-161,-936,-4,-161,-87
19,9,-9,-14,14,0,268,-165,-936,-9,-161,-92
19,9,-9,-14,14,0,268,-165,-946,-9,-156,-92
29,14,-14,-21,21,0,273,-165,-936,-9,-151,-87
39,29,-9,-34,24,9,273,-165,-932,4,-136,-73
34,29,-4,-31,19,12,273,-161,-927,9,-131,-68
24,24,0,-24,12,12,273,-161,-922,14,-131,-63
24,14,-9,-19,17,2,278,-165,-917,19,-126,-58
29,24,-4,-26,17,9,287,-165,-927,14,-131,-68
29,24,-4,-26,17,9,287,-161,-927,9,-131,-68
29,14,-14,-21,21,0,283,-161,-927,4,-141,-73
19,14,-4,-17,12,4,283,-161,-927,-4,-146,-73
24,9,-14,-17,19,-2,278,-170,-936,-14,-151,-82
19,9,-9,-14,14,0,287,-165,-941,-19,-156,-87
4,9,4,-7,0,7,287,-165,-951,-19,-165,-87
-9,4,14,2,-12,9,283,-165,-961,-19,-175,-92
-24,9,34,7,-29,21,273,-165,-956,-14,-165,-92
-19,9,29,4,-24,19,278,-165,-951,-9,-165,-92
-14,0,14,7,-14,7,287,-156,-946,0,-165,-97
-9,0,9,4,-9,4,287,-156,-941,4,-165,-97
-34,0,34,17,-34,17,278,-161,-951,4,-180,-107
-24,0,24,12,-24,12,287,-165,-946,9,-180,-107
-29,0,29,14,-29,14,292,-161,-936,9,-180,-107
-34,-4,29,19,-31,12,292,-165,-936,0,-190,-117
-29,-14,14,21,-21,0,287,-165,-936,4,-195,-126
-34,-19,14,26,-24,-2,287,-165,-946,0,-200,-131
-34,-19,14,26,-24,-2,287,-165,-946,0,-209,-136
-29,-24,4,26,-17,-9,287,-170,-946,0,-214,-141
-24,-34,-9,29,-7,-21,287,-170,-956,-9,-229,-136
-24,-43,-19,34,-2,-31,287,-165,-961,-9,-239,-136
-19,-34,-14,26,-2,-24,297,-165,-961,-9,-244,-141
-19,-34,-14,26,-2,-24,297,-165,-966,-4,-244,-141
-29,-48,-19,39,-4,-34,297,-165,-951,-14,-248,-136
-14,-48,-34,31,9,-41,297,-165,-936,-19,-253,-141
-14,-39,-24,26,4,-31,297,-165,-917,-19,-263,-141
-14,-39,-24,26,4,-31,302,-165,-902,-24,-278,-141
-29,-43,-14,36,-7,-29,302,-170,-658,-9,-283,-156
-29,-53,-24,41,-2,-39,297,-170,-424,-4,-283,-156
-34,-53,-19,43,-7,-36,297,-175,-190,0,-287,-156
-43,-48,-4,46,-19,-26,297,-175,39,4,-292,-156
-19,-39,-19,29,0,-29,297,-175,297,4,-287,-161
-19,-39,-19,29,0,-29,297,-175,556,0,-287,-156
-24,-39,-14,31,-4,-26,302,-170,819,-4,-283,-156
-24,-39,-14,31,-4,-26,302,-170,1078,-9,-278,-161
-19,-39,-19,29,0,-29,307,-170,932,-9,-292,-161
-19,-39,-19,29,0,-29,307,-175,790,-9,-292,-161
-29,-39,-9,34,-9,-24,302,-175,649,-9,-287,-161
-29,-39,-9,34,-9,-24,302,-180,507,-14,-287,-161
-29,-39,-9,34,-9,-24,302,-170,-600,-24,-287,-170
-43,-39,4,41,-24,-17,302,-170,-1107,-14,-283,-161
-43,-29,14,36,-29,-7,302,-170,-1498,-4,-287,-165
-63,-29,34,46,-48,2,312,-175,-2132,-4,-312,-170
-73,-4,68,39,-70,31,312,-175,-3245,-9,-331,-170
-53,34,87,9,-70,61,312,-175,-4201,29,-312,-151
-43,58,102,-7,-73,80,312,-180,-4489,102,-229,-97
-43,92,136,-24,-90,114,312,-175,-3494,180,-97,-4
-34,136,170,-51,-102,153,307,-175,3440,248,53,112
-24,185,209,-80,-117,197,307,-175,25595,351,244,273
0,258,258,-129,-129,258,307,-180,46174,512,478,478
34,336,302,-185,-134,319,317,-175,38654,653,805,736
97,414,317,-256,-109,366,317,-175,25195,775,1205,1054
195,507,312,-351,-58,409,317,-180,21808,873,1561,1356
278,590,312,-434,-17,451,317,-175,18724,941,1864,1649
346,644,297,-495,24,470,317,-175,12190,976,2103,1864
419,663,244,-541,87,453,312,-175,9725,1010,2132,1888
468,605,136,-536,165,370,312,-180,7890,1015,1991,1781
488,492,4,-490,241,248,317,-175,5748,883,1727,1581
458,331,-126,-395,292,102,317,-180,3689,663,1337,1254
375,180,-195,-278,285,-7,322,-180,3128,507,946,858
292,82,-209,-187,251,-63,317,-185,1942,263,585,517
200,29,-170,-114,185,-70,322,-185,1942,-180,224,287
102,-34,-136,-34,119,-85,317,-180,2020,-580,-73,102
19,-82,-102,31,61,-92,317,-185,2942,-756,-287,-48
-48,-102,-53,75,2,-78,317,-185,3235,-829,-424,-156
-102,-82,19,92,-61,-31,317,-185,4216,-775,-419,-200
-107,-78,29,92,-68,-24,322,-185,4435,-634,-326,-209
-87,-92,-4,90,-41,-48,326,-185,5138,-492,-239,-214
-68,-87,-19,78,-24,-53,322,-180,5358,-405,-190,-224
-53,-102,-48,78,-2,-75,326,-185,6485,-307,-107,-234
-48,-126,-78,87,14,-102,326,-180,7305,-219,-29,-224
-14,-126,-112,70,48,-119,322,-180,9281,-156,34,-234
4,-136,-141,65,73,-139,326,-185,11497,-107,97,-244
4,-126,-131,61,68,-129,326,-190,15093,-48,165,-229
4,-102,-107,48,56,-104,326,-190,18343,-19,209,-204
-14,-92,-78,53,31,-85,326,-185,21584,-4,239,-180
-34,-78,-43,56,4,-61,326,-190,34,19,258,-156
-34,-63,-29,48,-2,-46,331,-185,29,29,258,-146
-34,-48,-14,41,-9,-31,336,-195,29,19,273,-156
-34,-39,-4,36,-14,-21,326,-200,29,19,253,-156
-29,-34,-4,31,-12,-19,326,-200,29,24,258,-151
-24,-24,0,24,-12,-12,326,-195,29,24,278,-141
-29,-29,0,29,-14,-14,331,-200,24,24,283,-146
-29,-29,0,29,-14,-14,331,-195,19,34,287,-146
-29,-34,-4,31,-12,-19,331,-195,19,34,292,-151
-29,-34,-4,31,-12,-19,326,-190,24,39,297,-161
-29,-39,-9,34,-9,-24,336,-195,24,39,302,-170
-9,-39,-29,24,9,-34,336,-195,24,43,307,-161
0,-39,-39,19,19,-39,336,-195,29,43,292,-161
-14,-29,-14,21,0,-21,336,-200,34,43,287,-161
-14,-19,-4,17,-4,-12,336,-190,34,39,287,-156
-14,-24,-9,19,-2,-17,336,-200,29,39,297,-151
-9,-24,-14,17,2,-19,336,-185,29,43,297,-141
0,-9,-9,4,4,-9,336,-195,34,53,312,-131
-9,-14,-4,12,-2,-9,336,-195,24,53,302,-141
-9,-19,-9,14,0,-14,341,-195,29,53,292,-141
-19,-14,4,17,-12,-4,341,-185,29,53,302,-141
-9,-19,-9,14,0,-14,341,-195,29,53,307,-141
0,-39,-39,19,19,-39,346,-195,34,53,307,-131
0,-39,-39,19,19,-39,341,-195,34,53,307,-131
-4,-34,-29,19,12,-31,341,-200,34,53,312,-131
-4,-34,-29,19,12,-31,341,-200,34,53,312,-126
-9,-34,-24,21,7,-29,341,-195,34,53,307,-131
-14,-34,-19,24,2,-26,346,-195,29,58,302,-131
-19,-34,-14,26,-2,-24,346,-195,34,63,302,-126
-24,-39,-14,31,-4,-26,346,-195,34,63,312,-126
-34,-39,-4,36,-14,-21,346,-200,34,53,322,-117
-34,-39,-4,36,-14,-21,346,-200,34,63,322,-117
-34,-39,-4,36,-14,-21,346,-195,19,68,326,-117
-34,-39,-4,36,-14,-21,346,-195,19,78,336,-117
-29,-34,-4,31,-12,-19,351,-204,14,78,326,-117
-24,-39,-14,31,-4,-26,351,-204,9,78,336,-117
-19,-34,-14,26,-2,-24,351,-204,24,82,346,-117
-4,-29,-24,17,9,-26,351,-204,43,82,351,-97
-9,-43,-34,26,12,-39,351,-200,34,82,366,-102
-9,-19,-9,14,0,-14,351,-200,29,87,366,-97
-14,-39,-24,26,4,-31,351,-200,29,97,351,-97
-29,-43,-14,36,-7,-29,351,-200,39,97,366,-102
-19,-48,-29,34,4,-39,361,-200,29,92,366,-92
-9,-34,-24,21,7,-29,361,-204,24,102,375,-87
-4,-29,-24,17,9,-26,361,-204,24,112,380,-87
4,-24,-29,9,17,-26,361,-200,29,117,390,-87
0,-29,-29,14,14,-29,361,-204,24,122,390,-87
0,-29,-29,14,14,-29,361,-204,29,131,395,-87
9,-34,-43,12,26,-39,361,-204,29,146,395,-78
9,-39,-48,14,29,-43,361,-204,19,151,409,-73
14,-34,-48,9,31,-41,361,-214,19,151,414,-68
19,-29,-48,4,34,-39,356,-214,19,151,429,-68
29,-24,-53,-2,41,-39,356,-209,24,151,439,-53
43,-14,-58,-14,51,-36,356,-209,39,146,453,-48
43,-9,-53,-17,48,-31,366,-209,58,156,453,-43
48,-9,-58,-19,53,-34,366,-209,53,175,468,-39
43,-14,-58,-14,51,-36,366,-214,43,175,478,-34
43,-14,-58,-14,51,-36,366,-214,34,175,488,-19
39,-14,-53,-12,46,-34,366,-214,34,185,502,-19
43,-4,-48,-19,46,-26,361,-209,34,204,507,-19
73,-4,-78,-34,75,-41,361,-209,29,209,527,-9
63,-4,-68,-29,65,-36,366,-209,29,209,531,-9
78,-14,-92,-31,85,-53,370,-219,48,214,536,-24
73,-19,-92,-26,82,-56,366,-219,34,214,551,-24
78,-19,-97,-29,87,-58,366,-214,34,219,561,-19
97,-19,-117,-39,107,-68,370,-214,39,224,570,-9
102,-19,-122,-41,112,-70,370,-219,43,239,585,9
107,-4,-112,-51,109,-58,370,-219,48,239,595,19
102,-14,-117,-43,109,-65,370,-214,43,244,595,24
87,-24,-112,-31,100,-68,370,-214,39,239,590,24
97,-14,-112,-41,104,-63,370,-214,29,239,610,34
117,-9,-126,-53,122,-68,370,-214,39,248,624,48
131,0,-131,-65,131,-65,375,-214,39,248,624,53
136,-9,-146,-63,141,-78,375,-219,39,248,624,53
131,-9,-141,-61,136,-75,370,-219,39,253,629,63
131,-9,-141,-61,136,-75,370,-224,34,253,644,63
131,0,-131,-65,131,-65,375,-224,34,258,649,63
117,-9,-126,-53,122,-68,380,-224,34,258,663,63
92,-19,-112,-36,102,-65,375,-219,34,253,668,53
122,-9,-131,-56,126,-70,375,-219,34,248,668,53
136,0,-136,-68,136,-68,380,-219,34,244,663,53
126,-14,-141,-56,134,-78,385,-224,34,224,653,48
112,-24,-136,-43,124,-80,385,-214,34,224,663,58
112,-24,-136,-43,124,-80,380,-224,34,224,649,58
122,-19,-141,-51,131,-80,380,-224,39,224,649,58
112,-19,-131,-46,122,-75,385,-219,39,224,649,58
117,-19,-136,-48,126,-78,395,-219,39,219,649,43
107,-24,-131,-41,119,-78,395,-224,34,219,649,39
122,-24,-146,-48,134,-85,390,-224,34,219,634,39
122,-19,-141,-51,131,-80,385,-224,24,214,634,39
117,-19,-136,-48,126,-78,385,-219,29,214,634,29
112,-24,-136,-43,124,-80,395,-219,29,204,634,24
112,-39,-151,-36,131,-95,400,-219,29,195,629,24
112,-39,-151,-36,131,-95,400,-219,34,195,619,24
126,-29,-156,-48,141,-92,395,-229,34,190,600,14
131,-29,-161,-51,146,-95,395,-229,34,190,600,14
126,-29,-156,-48,141,-92,405,-229,34,175,600,14
122,-19,-141,-51,131,-80,405,-239,34,175,600,14
112,-9,-122,-51,117,-65,405,-229,43,175,595,14
117,-9,-126,-53,122,-68,400,-224,39,170,580,14
122,-14,-136,-53,129,-75,400,-224,39,161,580,14
126,-14,-141,-56,134,-78,395,-224,29,156,580,14
102,-14,-117,-43,109,-65,400,-224,34,161,566,9
131,-9,-141,-61,136,-75,395,-229,34,151,566,9
136,-9,-146,-63,141,-78,395,-234,34,146,561,9
136,-9,-146,-63,141,-78,400,-234,29,141,556,9
117,-4,-122,-56,119,-63,409,-239,34,136,541,9
92,-14,-107,-39,100,-61,409,-244,24,136,531,9
97,-9,-107,-43,102,-58,409,-239,29,131,517,9
97,0,-97,-48,97,-48,409,-234,39,117,507,9
87,0,-87,-43,87,-43,400,-229,39,102,492,9
87,9,-78,-48,82,-34,405,-229,39,102,483,9
87,9,-78,-48,82,-34,409,-229,39,87,473,0
63,9,-53,-36,58,-21,409,-234,39,68,458,0
58,9,-48,-34,53,-19,400,-234,39,68,444,-19
58,9,-48,-34,53,-19,405,-234,39,68,434,-24
53,4,-48,-29,51,-21,409,-239,39,53,424,-24
39,0,-39,-19,39,-19,414,-239,24,48,409,-24
39,9,-29,-24,34,-9,414,-195,24,39,405,-24
39,9,-29,-24,34,-9,414,-141,19,39,400,-39
39,9,-29,-24,34,-9,414,-78,48,39,385,-43
39,4,-34,-21,36,-14,414,-24,53,29,370,-48
34,0,-34,-17,34,-17,409,24,48,14,400,-58
24,4,-19,-14,21,-7,414,78,34,14,424,-68
24,4,-19,-14,21,-7,414,126,34,9,448,-68
24,0,-24,-12,24,-12,414,170,39,9,473,-73
14,-9,-24,-2,19,-17,419,170,34,19,497,-73
9,-19,-29,4,19,-24,419,170,39,9,517,-73
4,-19,-24,7,14,-21,414,165,53,9,527,-78
4,-14,-19,4,12,-17,414,165,39,4,541,-87
9,-14,-24,2,17,-19,424,170,43,9,556,-92
0,-19,-19,9,9,-19,424,175,43,14,561,-97
-9,-24,-14,17,2,-19,424,180,39,19,561,-97
-19,-29,-9,24,-4,-19,424,185,39,24,556,-97
-19,-29,-9,24,-4,-19,424,185,39,24,556,-87
-19,-34,-14,26,-2,-24,424,190,43,24,556,-87
-9,-29,-19,19,4,-24,424,190,48,19,551,-97
-9,-24,-14,17,2,-19,419,185,43,9,541,-102
-24,-34,-9,29,-7,-21,419,175,43,0,585,-102
-24,-34,-9,29,-7,-21,424,180,43,9,653,-102
-29,-34,-4,31,-12,-19,429,180,43,9,722,-102
-24,-39,-14,31,-4,-26,429,180,39,9,780,-107
-24,-29,-4,26,-9,-17,439,185,39,9,1049,-107
-9,-29,-19,19,4,-24,439,185,39,14,1307,-97
-19,-39,-19,29,0,-29,434,185,34,14,1566,-107
-34,-39,-4,36,-14,-21,434,185,34,14,1825,-117
-29,-34,-4,31,-12,-19,439,175,34,14,1742,-107
-29,-34,-4,31,-12,-19,439,180,34,9,1659,-107
-29,-39,-9,34,-9,-24,434,180,34,9,1571,-112
-29,-39,-9,34,-9,-24,429,175,43,9,1488,-112
-29,-34,-4,31,-12,-19,439,175,39,9,1449,-107
-43,-34,9,39,-26,-12,439,175,39,9,1410,-112
-43,-48,-4,46,-19,-26,439,175,39,9,1371,-117
-43,-48,-4,46,-19,-26,439,180,39,4,1332,-126
-39,-43,-4,41,-17,-24,448,170,43,14,1244,-131
-43,-43,0,43,-21,-21,448,170,29,4,1176,-136
-43,-39,4,41,-24,-17,448,165,29,4,1122,-136
-39,-39,0,39,-19,-19,448,165,34,4,1054,-131
-29,-43,-14,36,-7,-29,448,175,43,9,1029,-126
-29,-43,-14,36,-7,-29,448,175,43,14,1010,-126
-34,-43,-9,39,-12,-26,453,175,43,14,990,-126
-34,-43,-9,39,-12,-26,453,180,43,14,966,-126
-34,-29,4,31,-19,-12,453,180,43,14,936,-117
-39,-29,9,34,-24,-9,453,180,53,14,917,-126
-39,-39,0,39,-19,-19,444,180,39,19,902,-131
-29,-29,0,29,-14,-14,444,175,34,19,883,-136
-29,-29,0,29,-14,-14,453,175,34,19,858,-131
-29,-29,0,29,-14,-14,453,180,43,24,834,-126
-39,-29,9,34,-24,-9,458,180,43,34,819,-122
-39,-29,9,34,-24,-9,458,180,43,34,829,-117
-39,-29,9,34,-24,-9,463,175,34,34,819,-117
-39,-29,9,34,-24,-9,463,175,34,34,805,-117
-34,-34,0,34,-17,-17,458,175,43,34,785,-107
-24,-34,-9,29,-7,-21,458,175,43,34,775,-107
-29,-34,-4,31,-12,-19,463,170,39,29,761,-117
-34,-34,0,34,-17,-17,463,170,39,29,746,-117
-34,-43,-9,39,-12,-26,458,165,48,34,741,-112
-34,-34,0,34,-17,-17,453,165,48,29,727,-112
-43,-39,4,41,-24,-17,463,175,48,29,717,-102
-29,-39,-9,34,-9,-24,468,175,48,34,717,-97
-9,-34,-24,21,7,-29,468,175,48,43,717,-92
-9,-34,-24,21,7,-29,473,175,48,53,712,-82
-19,-39,-19,29,0,-29,473,170,48,53,697,-82
-24,-39,-14,31,-4,-26,473,170,48,53,692,-92
-39,-34,4,36,-21,-14,473,175,43,53,702,-92
-43,-24,19,34,-31,-2,468,175,39,63,702,-92
-39,-34,4,36,-21,-14,468,165,39,58,707,-102
-34,-34,0,34,-17,-17,473,170,48,58,702,-92
-29,-29,0,29,-14,-14,483,175,53,53,702,-82
-24,-14,9,19,-17,-2,483,175,53,48,702,-78
-19,-4,14,12,-17,4,483,185,43,53,697,-73
-14,-19,-4,17,-4,-12,478,185,43,58,683,-63
-9,-19,-9,14,0,-14,468,170,39,63,678,-58
0,-14,-14,7,7,-14,468,180,39,73,683,-58
0,-14,-14,7,7,-14,478,170,48,73,683,-68
-4,-14,-9,9,2,-12,478,170,43,82,683,-68
-9,-14,-4,12,-2,-9,478,170,43,82,683,-58
-9,-9,0,9,-4,-4,483,175,48,82,683,-53
-29,-19,9,24,-19,-4,488,185,48,78,678,-43
-4,-9,-4,7,0,-7,488,175,43,68,658,-48
19,-9,-29,-4,24,-19,488,165,48,58,644,-48
9,-9,-19,0,14,-14,488,165,48,58,634,-48
9,-9,-19,0,14,-14,488,165,48,58,634,-48
9,-9,-19,0,14,-14,488,165,48,58,634,-48
9,-9,-19,0,14,-14,488,165,48,58,634,-48
4,-4,-9,0,7,-7,497,170,39,73,624,-43
9,-19,-29,4,19,-24,497,170,43,73,624,-39
-14,-24,-9,19,-2,-17,497,170,43,73,624,-39
-19,-29,-9,24,-4,-19,488,161,39,73,619,-48
-4,-29,-24,17,9,-26,492,156,39,63,600,-58
4,-24,-29,9,17,-26,492,151,39,53,595,-58
4,-14,-19,4,12,-17,502,151,43,48,585,-58
4,0,-4,-2,4,-2,502,146,43,43,580,-58
14,-9,-24,-2,19,-17,502,146,43,48,566,-48
4,-9,-14,2,9,-12,497,141,39,48,566,-48
4,-9,-14,2,9,-12,497,141,39,48,566,-48
4,-9,-14,2,9,-12,497,141,39,48,561,-48
0,-9,-9,4,4,-9,507,151,43,53,546,-58
0,9,9,-4,-4,9,507,146,43,53,541,-58
0,14,14,-7,-7,14,507,146,43,63,556,-53
4,24,19,-14,-7,21,507,146,43,68,551,-48
-4,34,39,-14,-21,36,517,151,48,68,541,-48
-9,34,43,-12,-26,39,507,151,48,68,536,-48
-24,34,58,-4,-41,46,507,151,48,73,536,-48
-39,34,73,2,-56,53,502,151,53,73,531,-48
-24,34,58,-4,-41,46,502,161,48,73,522,-53
-19,39,58,-9,-39,48,507,165,48,73,517,-53
-14,39,53,-12,-34,46,522,165,48,82,507,-53
-14,43,58,-14,-36,51,522,165,48,82,497,-48
-9,34,43,-12,-26,39,522,161,48,82,502,-39
-9,34,43,-12,-26,39,517,161,48,87,502,-39
-9,24,34,-7,-21,29,512,161,53,87,502,-48
-9,19,29,-4,-19,24,512,161,53,87,497,-48
-19,19,39,0,-29,29,517,165,53,82,502,-43
-14,24,39,-4,-26,31,517,161,43,73,497,-39
-4,24,29,-9,-17,26,517,161,43,68,497,-34
-4,29,34,-12,-19,31,517,156,39,68,488,-29
-9,9,19,0,-14,14,522,156,34,43,478,-53
-9,-4,4,7,-7,0,522,156,39,34,473,-58
-19,-14,4,17,-12,-4,517,141,39,29,458,-63
-24,-19,4,21,-14,-7,517,141,43,14,439,-73
-29,-24,4,26,-17,-9,527,117,34,9,424,-82
-34,-29,4,31,-19,-12,527,117,39,4,414,-78
-39,-24,14,31,-26,-4,527,112,39,4,409,-73
-43,-19,24,31,-34,2,522,112,43,4,400,-73
-48,-29,19,39,-34,-4,522,102,34,-4,385,-78
-48,-29,19,39,-34,-4,522,97,39,-9,385,-82
-48,-29,19,39,-34,-4,522,97,34,-9,390,-82
-39,-24,14,31,-26,-4,527,97,48,-9,395,-78
-24,-9,14,17,-19,2,536,92,48,-9,385,-68
-24,-9,14,17,-19,2,536,92,48,-9,385,-68
-29,-14,14,21,-21,0,536,87,48,-9,380,-68
-24,-24,0,24,-12,-12,541,78,48,-9,380,-68
-14,-24,-9,19,-2,-17,541,78,48,-19,385,-68
-9,-24,-14,17,2,-19,541,82,48,-19,385,-68
-4,-34,-29,19,12,-31,536,82,48,-19,375,-73
-9,-34,-24,21,7,-29,536,82,48,-24,370,-73
-9,-29,-19,19,4,-24,541,82,48,-24,370,-73
-9,-29,-19,19,4,-24,551,87,53,-29,370,-78
-19,-29,-9,24,-4,-19,551,87,53,-29,366,-78
-29,-34,-4,31,-12,-19,546,87,53,-29,361,-82
-48,-39,9,43,-29,-14,536,97,53,-19,351,-92
-48,-39,9,43,-29,-14,541,97,53,-19,351,-92
-48,-48,0,48,-24,-24,551,107,53,-14,351,-97
-48,-48,0,48,-24,-24,551,107,53,-14,351,-97
-73,-48,24,61,-48,-12,541,107,43,-24,346,-97
-63,-48,14,56,-39,-17,551,107,48,-19,346,-97
-68,-48,19,58,-43,-14,556,117,58,-19,346,-97
-73,-53,19,63,-46,-17,556,117,58,-29,336,-107
-68,-63,4,65,-36,-29,561,126,58,-29,326,-117
-73,-68,4,70,-39,-31,561,126,48,-39,326,-122
-73,-68,4,70,-39,-31,561,126,48,-43,322,-126
-68,-73,-4,70,-31,-39,561,122,48,-48,322,-131
-73,-82,-9,78,-31,-46,561,122,53,-48,307,-136
-73,-92,-19,82,-26,-56,561,126,53,-48,297,-136
-68,-82,-14,75,-26,-48,570,126,58,-48,292,-141
-68,-82,-14,75,-26,-48,570,126,58,-43,292,-141
-87,-87,0,87,-43,-43,561,126,48,-43,283,-136
-73,-87,-14,80,-29,-51,561,126,48,-48,283,-141
-73,-78,-4,75,-34,-41,561,126,53,-48,278,-141
-73,-78,-4,75,-34,-41,566,126,53,-53,268,-141
-68,-82,-14,75,-26,-48,575,131,53,-53,258,-146
-68,-92,-24,80,-21,-58,570,131,53,-53,263,-146
-73,-92,-19,82,-26,-56,570,126,53,-53,263,-146
-82,-87,-4,85,-39,-46,570,126,48,-53,263,-146
-58,-68,-9,63,-24,-39,570,131,48,-39,268,-141
-58,-68,-9,63,-24,-39,570,136,48,-39,268,-136
-63,-68,-4,65,-29,-36,575,146,53,-39,273,-136
-63,-68,-4,65,-29,-36,575,151,53,-39,278,-141
-68,-87,-19,78,-24,-53,580,136,58,-39,268,-141
-68,-87,-19,78,-24,-53,580,126,58,-39,263,-141
-78,-87,-9,82,-34,-48,575,122,58,-39,263,-141
-78,-87,-9,82,-34,-48,575,112,58,-43,258,-141
-68,-68,0,68,-34,-34,585,112,53,-43,258,-131
-53,-78,-24,65,-14,-51,585,92,53,-53,244,-151
-63,-78,-14,70,-24,-46,585,92,53,-43,229,-156
-63,-39,24,51,-43,-7,585,117,53,-43,224,-151
-82,-34,48,58,-65,7,585,126,53,-39,234,-151
-92,-24,68,58,-80,21,595,117,53,-19,224,-141
-92,-9,82,51,-87,36,595,102,58,4,248,-117
-92,4,97,43,-95,51,595,97,58,73,331,-63
-73,58,131,7,-102,95,590,78,53,151,453,14
-73,97,170,-12,-122,134,600,58,53,214,595,146
-68,141,209,-36,-139,175,600,73,58,326,780,312
-34,219,253,-92,-143,236,600,107,53,468,1000,502
9,307,297,-158,-143,302,600,107,53,600,1293,771
68,400,331,-234,-131,366,600,73,53,727,1629,1083
170,492,322,-331,-75,407,600,29,53,824,1961,1395
278,556,278,-417,0,417,600,-19,58,888,2269,1678
361,614,253,-488,53,434,605,-48,53,951,2483,1888
409,634,224,-522,92,429,605,-53,53,995,2498,1917
448,561,112,-505,168,336,610,-58,58,971,2332,1776
478,448,-29,-463,253,209,610,-73,58,819,2039,1566
453,307,-146,-380,300,80,605,-82,63,595,1649,1249
380,151,-229,-265,305,-39,610,-78,58,419,1268,858
278,39,-239,-158,258,-100,614,-136,58,180,888,512
190,-24,-214,-82,202,-119,610,-239,58,-248,483,278
126,-63,-190,-31,158,-126,610,-292,63,-629,141,97
39,-112,-151,36,95,-131,610,-263,63,-819,-92,-58
-63,-131,-68,97,2,-100,619,-224,58,-873,-263,-180
-87,-97,-9,92,-39,-53,614,-175,63,-810,-287,-229
-78,-63,14,70,-46,-24,619,-97,63,-668,-180,-224
-87,-97,-9,92,-39,-53,614,4,58,-541,-92,-214
-112,-122,-9,117,-51,-65,619,78,63,-453,-48,-214
-78,-126,-48,102,-14,-87,619,122,63,-375,0,-214
-24,-146,-122,85,48,-134,624,161,58,-302,43,-224
-4,-146,-141,75,68,-143,619,195,58,-224,97,-234
-34,-165,-131,100,48,-148,629,229,63,-126,156,-229
-53,-170,-117,112,31,-143,629,248,63,-58,209,-195
-43,-122,-78,82,17,-100,629,244,63,-24,248,-170
-34,-97,-63,65,14,-80,629,239,63,-19,268,-146
-34,-82,-48,58,7,-65,634,224,58,0,287,-136
-29,-63,-34,46,2,-48,639,209,58,-9,278,-146
-34,-48,-14,41,-9,-31,629,200,58,-9,253,-146
-34,-39,-4,36,-14,-21,629,195,58,-4,253,-141
-34,-24,9,29,-21,-7,629,195,58,-4,268,-131
-19,-29,-9,24,-4,-19,634,180,53,-4,258,-122
-9,-29,-19,19,4,-24,634,175,48,4,258,-117
0,-34,-34,17,17,-34,634,165,48,4,258,-117
9,-34,-43,12,26,-39,629,161,53,9,258,-122
-9,-29,-19,19,4,-24,639,170,53,19,258,-92
0,-29,-29,14,14,-29,639,175,53,24,268,-63
0,-29,-29,14,14,-29,639,180,58,24,258,-43
-24,-19,4,21,-14,-7,639,180,63,24,258,-24
-43,-29,14,36,-29,-7,649,170,63,9,268,-34
-43,-34,9,39,-26,-12,649,161,58,9,278,-34
-39,-34,4,36,-21,-14,649,175,58,14,278,-29
-29,-19,9,24,-19,-4,649,165,63,24,292,-24
-19,-29,-9,24,-4,-19,649,156,53,34,292,-39
-19,-29,-9,24,-4,-19,653,156,58,34,283,-43
-29,-19,9,24,-19,-4,653,165,58,34,292,-48
-19,-19,0,19,-9,-9,653,156,58,34,297,-53
-19,-34,-14,26,-2,-24,658,156,63,34,283,-53
-19,-29,-9,24,-4,-19,653,156,63,34,278,-53
-24,-19,4,21,-14,-7,653,151,63,34,278,-53
-24,-14,9,19,-17,-2,653,151,63,34,273,-48
0,-14,-14,7,7,-14,663,156,58,34,273,-48
4,-14,-19,4,12,-17,668,156,58,39,273,-53
9,-14,-24,2,17,-19,668,156,68,43,278,-53
14,-19,-34,2,24,-26,668,156,73,43,292,-58
0,-29,-29,14,14,-29,668,151,73,43,292,-58
-4,-29,-24,17,9,-26,668,151,73,53,292,-58
-9,-29,-19,19,4,-24,668,156,58,58,297,-58
-14,-29,-14,21,0,-21,668,156,58,68,307,-58
-4,-19,-14,12,4,-17,673,146,58,48,302,-58
-4,-29,-24,17,9,-26,673,146,48,48,307,-58
-4,-29,-24,17,9,-26,673,146,58,53,312,-58
4,-29,-34,12,19,-31,673,146,73,53,312,-39
4,-39,-43,17,24,-41,673,161,63,63,326,-48
9,-9,-19,0,14,-14,673,161,58,68,326,-39
9,-24,-34,7,21,-29,673,161,58,78,312,-34
0,-24,-24,12,12,-24,673,161,68,78,326,-34
-9,-34,-24,21,7,-29,683,161,68,73,336,-34
0,-24,-24,12,12,-24,683,156,63,82,346,-29
4,-24,-29,9,17,-26,683,156,63,92,351,-29
14,-24,-39,4,26,-31,683,161,68,97,361,-29
9,-24,-34,7,21,-29,590,165,63,97,361,-29
9,-19,-29,4,19,-24,517,165,68,102,366,-29
19,-19,-39,0,29,-29,444,165,68,112,366,-19
19,-19,-39,0,29,-29,370,165,58,112,380,-14
24,-19,-43,-2,34,-31,370,165,63,126,385,0
19,-19,-39,0,29,-29,366,165,58,131,400,0
19,-19,-39,0,29,-29,366,170,58,136,409,14
24,-14,-39,-4,31,-26,366,170,68,136,424,19
48,0,-48,-24,48,-24,366,175,87,126,429,9
58,0,-58,-29,58,-29,356,170,82,146,439,9
58,-4,-63,-26,61,-34,346,161,73,146,444,9
63,-4,-68,-29,65,-36,336,156,63,146,448,19
53,-14,-68,-19,61,-41,341,165,73,151,463,29
53,-4,-58,-24,56,-31,331,170,73,165,468,29
78,-4,-82,-36,80,-43,326,170,68,165,488,39
63,-4,-68,-29,65,-36,326,170,68,161,492,39
73,-4,-78,-34,75,-41,326,180,78,170,502,39
63,-9,-73,-26,68,-41,317,180,63,175,512,43
63,-9,-73,-26,68,-41,312,185,63,185,517,53
78,-9,-87,-34,82,-48,312,185,68,195,522,68
87,-19,-107,-34,97,-63,302,180,73,214,536,73
97,-4,-102,-46,100,-53,302,180,78,219,546,78
97,-14,-112,-41,104,-63,302,185,73,229,546,78
87,-24,-112,-31,100,-68,302,185,68,229,541,73
97,-14,-112,-41,104,-63,283,175,58,219,541,63
117,-9,-126,-53,122,-68,283,175,68,229,556,78
131,0,-131,-65,131,-65,287,175,68,229,556,82
136,-9,-146,-63,141,-78,287,170,68,229,556,82
126,0,-126,-63,126,-63,287,185,68,229,551,87
122,0,-122,-61,122,-61,283,185,63,234,556,92
117,9,-107,-63,112,-48,283,190,63,244,551,97
97,0,-97,-48,97,-48,283,195,63,248,556,102
82,-19,-102,-31,92,-61,273,195,58,239,570,97
112,-9,-122,-51,117,-65,268,190,63,239,570,92
126,0,-126,-63,126,-63,268,185,68,239,566,87
117,-14,-131,-51,124,-73,268,175,73,224,556,78
117,-24,-141,-46,129,-82,263,165,63,214,556,68
122,-24,-146,-48,134,-85,253,156,63,214,541,68
136,-19,-156,-58,146,-87,248,156,68,214,541,68
131,-19,-151,-56,141,-85,248,161,68,214,541,68
122,-19,-141,-51,131,-80,248,170,78,200,527,63
107,-24,-131,-41,119,-78,248,165,73,200,522,58
117,-24,-141,-46,129,-82,244,165,73,200,502,58
112,-19,-131,-46,122,-75,239,165,63,195,497,58
102,-19,-122,-41,112,-70,219,161,58,195,497,48
92,-24,-117,-34,104,-70,229,161,58,185,497,43
87,-39,-126,-24,107,-82,234,161,58,175,492,43
82,-39,-122,-21,102,-80,234,161,63,175,483,43
112,-24,-136,-43,124,-80,219,161,73,180,463,43
122,-19,-141,-51,131,-80,219,161,73,180,463,43
122,-14,-136,-53,129,-75,229,161,73,165,463,43
122,0,-122,-61,122,-61,229,151,73,165,463,43
107,-4,-112,-51,109,-58,219,151,82,175,448,34
107,-9,-117,-48,112,-63,214,156,78,170,434,34
107,-19,-126,-43,117,-73,214,156,78,161,434,34
107,-24,-131,-41,119,-78,209,156,68,156,434,34
82,-14,-97,-34,90,-56,204,156,73,151,409,34
112,-9,-122,-51,117,-65,200,151,73,141,409,39
117,-9,-126,-53,122,-68,200,146,73,136,405,43
117,-9,-126,-53,122,-68,204,146,68,131,400,48
102,0,-102,-51,102,-51,195,136,73,112,395,39
82,-14,-97,-34,90,-56,195,126,63,107,385,39
92,-14,-107,-39,100,-61,195,126,68,97,370,39
97,-9,-107,-43,102,-58,195,126,78,78,361,39
78,-19,-97,-29,87,-58,204,131,78,78,356,39
78,-9,-87,-34,82,-48,209,131,78,82,346,39
78,-9,-87,-34,82,-48,214,131,78,73,336,29
53,-9,-63,-21,58,-36,214,126,78,58,322,29
48,-9,-58,-19,53,-34,204,136,78,39,307,19
48,-9,-58,-19,53,-34,209,136,78,39,297,14
43,-14,-58,-14,51,-36,214,131,78,24,287,14
29,-19,-48,-4,39,-34,219,131,63,19,273,14
24,-4,-29,-9,26,-17,229,131,68,14,258,14
29,0,-29,-14,29,-14,229,131,58,19,253,0
34,4,-29,-19,31,-12,229,141,82,24,239,-4
39,4,-34,-21,36,-14,229,141,82,19,224,-9
14,0,-14,-7,14,-7,224,136,87,4,204,-14
4,4,0,-4,2,2,229,136,73,4,200,-29
4,4,0,-4,2,2,229,131,73,0,195,-34
4,0,-4,-2,4,-2,229,122,78,0,190,-43
9,0,-9,-4,9,-4,229,122,73,0,180,-53
9,-9,-19,0,14,-14,224,122,78,-9,175,-53
9,-9,-19,0,14,-14,214,117,92,-9,161,-58
14,-4,-19,-4,17,-12,209,117,78,-14,151,-68
14,-9,-24,-2,19,-17,209,107,82,-24,146,-73
9,-9,-19,0,14,-14,209,107,82,-24,141,-78
4,-9,-14,2,9,-12,209,107,78,-24,131,-78
0,-9,-9,4,4,-9,209,107,78,-24,117,-78
-14,-14,0,14,-7,-7,209,107,78,-24,112,-78
-19,-24,-4,21,-7,-14,209,112,82,-24,107,-78
-14,-24,-9,19,-2,-17,209,112,87,-29,97,-87
-19,-24,-4,21,-7,-14,204,107,82,-39,82,-92
-34,-14,19,24,-26,2,204,117,82,-34,82,-92
-34,-14,19,24,-26,2,209,122,82,-19,97,-92
-39,-14,24,26,-31,4,214,122,82,-14,112,-92
-34,-19,14,26,-24,-2,214,122,78,-9,117,-97
-4,-9,-4,7,0,-7,224,126,78,-9,107,-92
19,0,-19,-9,19,-9,224,126,78,-4,107,-78
19,0,-19,-9,19,-9,219,126,73,-4,107,-82
14,9,-4,-12,9,2,219,126,73,-4,107,-87
19,34,14,-26,2,24,224,136,73,4,97,-78
19,34,14,-26,2,24,224,141,73,0,87,-78
19,29,9,-24,4,19,219,141,73,0,73,-82
19,29,9,-24,4,19,214,136,82,0,63,-82
9,24,14,-17,-2,19,204,131,78,-4,53,-87
-4,14,19,-4,-12,17,204,126,78,-9,53,-92
-4,-9,-4,7,0,-7,204,122,78,-14,53,-97
-4,-19,-14,12,4,-17,204,122,78,-24,53,-107
-14,-14,0,14,-7,-7,214,122,82,-19,53,-107
-24,-14,9,19,-17,-2,214,122,68,-24,53,-107
-29,-9,19,19,-24,4,214,117,68,-19,68,-102
-29,-9,19,19,-24,4,214,117,73,-14,68,-92
-19,-24,-4,21,-7,-14,209,126,82,-4,53,-87
-19,-24,-4,21,-7,-14,204,126,82,-4,53,-97
-24,-24,0,24,-12,-12,204,126,82,-9,53,-107
-24,-24,0,24,-12,-12,200,131,82,-14,48,-117
-19,-9,9,14,-14,0,209,122,82,-4,58,-87
-19,0,19,9,-19,9,209,122,92,-4,58,-97
-14,0,14,7,-14,7,200,122,78,0,63,-102
0,19,19,-9,-9,19,200,117,73,0,63,-107
9,14,4,-12,2,9,204,126,73,0,63,-97
9,9,0,-9,4,4,200,131,82,4,53,-97
0,4,4,-2,-2,4,200,131,82,14,53,-97
0,0,0,0,0,0,195,131,82,14,78,-97
-4,9,14,-2,-9,12,190,126,82,4,68,-97
-9,9,19,0,-14,14,190,126,82,4,63,-97
-9,4,14,2,-12,9,185,126,92,4,53,-87
-4,4,9,0,-7,7,185,126,92,4,53,-87
-9,4,14,2,-12,9,190,136,78,4,68,-87
-14,4,19,4,-17,12,190,141,78,9,73,-87
-14,-4,9,9,-12,2,185,141,87,19,87,-82
-14,4,19,4,-17,12,180,146,87,19,92,-82
-9,9,19,0,-14,14,170,146,87,4,92,-82
9,9,0,-9,4,4,175,146,87,4,92,-78
34,14,-19,-24,26,-2,175,146,87,9,92,-73
39,14,-24,-26,31,-4,180,146,87,14,87,-63
39,14,-24,-26,31,-4,170,151,87,24,78,-63
34,9,-24,-21,29,-7,170,151,87,24,78,-73
19,9,-9,-14,14,0,170,156,82,24,92,-73
14,14,0,-14,7,7,165,156,78,34,97,-73
9,14,4,-12,2,9,165,156,78,39,117,-63
4,14,9,-9,-2,12,170,161,87,48,117,-53
0,19,19,-9,-9,19,180,165,92,53,122,-43
-4,34,39,-14,-21,36,180,165,92,58,126,-39
4,39,34,-21,-14,36,170,165,92,58,117,-39
4,19,14,-12,-4,17,165,165,92,58,107,-34
4,14,9,-9,-2,12,156,151,87,58,107,-34
9,14,4,-12,2,9,156,161,87,63,117,-39
19,29,9,-24,4,19,156,151,87,53,126,-29
24,34,9,-29,7,21,156,151,82,63,126,-29
29,39,9,-34,9,24,156,151,82,63,126,-19
39,48,9,-43,14,29,161,156,87,63,126,-14
29,39,9,-34,9,24,156,146,87,68,122,-14
24,39,14,-31,4,26,156,146,92,68,102,-9
39,39,0,-39,19,19,146,146,87,48,117,-9
29,29,0,-29,14,14,146,146,87,39,122,-19
29,29,0,-29,14,14,146,146,87,39,126,-19
29,29,0,-29,14,14,146,146,87,39,131,-19
29,29,0,-29,14,14,146,146,87,39,136,-19
29,48,19,-39,4,34,146,141,87,53,131,-24
39,39,0,-39,19,19,146,141,92,53,126,-19
19,39,19,-29,0,29,146,141,92,53,122,-19
19,39,19,-29,0,29,136,131,87,53,112,-29
24,24,0,-24,12,12,131,131,87,53,102,-19
34,24,-9,-29,21,7,131,131,87,53,97,-19
34,29,-4,-31,19,12,141,136,92,58,87,-19
34,39,4,-36,14,21,141,136,92,63,82,-19
53,48,-4,-51,29,21,131,146,92,58,87,-24
43,48,4,-46,19,26,126,141,87,58,87,-29
43,48,4,-46,19,26,126,141,87,58,87,-34
43,48,4,-46,19,26,126,141,87,58,82,-39
39,48,9,-43,14,29,117,141,92,63,92,-34
39,68,29,-53,4,48,117,136,92,63,92,-29
39,73,34,-56,2,53,117,136,92,73,112,-19
43,82,39,-63,2,61,117,136,92,78,112,-9
48,92,43,-70,2,68,107,131,87,73,97,-9
48,92,43,-70,2,68,97,131,87,68,97,-9
39,92,53,-65,-7,73,97,131,87,68,102,-9
29,92,63,-61,-17,78,92,131,92,63,102,-9
39,82,43,-61,-2,63,82,131,97,73,92,-14
39,87,48,-63,-4,68,87,136,97,73,97,-14
39,87,48,-63,-4,68,102,136,97,82,97,-14
34,92,58,-63,-12,75,102,136,97,82,97,-9
39,92,53,-65,-7,73,92,141,87,82,92,0
39,92,53,-65,-7,73,87,141,87,87,92,0
39,82,43,-61,-2,63,82,141,92,87,92,-9
39,78,39,-58,0,58,82,141,92,87,87,-9
39,82,43,-61,-2,63,68,131,102,82,82,-19
43,82,39,-63,2,61,58,122,92,73,78,-19
53,78,24,-65,14,51,48,117,92,68,78,-19
53,78,24,-65,14,51,39,107,87,68,68,-19
39,63,24,-51,7,43,24,107,82,43,73,-19
39,53,14,-46,12,34,24,107,87,34,73,-19
29,48,19,-39,4,34,19,92,87,29,63,-19
24,48,24,-36,0,36,19,92,92,14,48,-24
34,48,14,-41,9,31,9,68,82,4,39,-48
34,39,4,-36,14,21,0,68,87,-4,34,-48
34,39,4,-36,14,21,-9,63,87,-9,34,-48
34,39,4,-36,14,21,-24,63,92,-14,29,-53
39,39,0,-39,19,19,-39,53,82,-24,14,-58
39,39,0,-39,19,19,-43,48,87,-29,14,-63
39,39,0,-39,19,19,-48,48,82,-29,19,-63
48,43,-4,-46,26,19,-48,48,97,-29,24,-58
48,39,-9,-43,29,14,-58,48,97,-29,19,-39
43,39,-4,-41,24,17,-58,53,97,-29,14,-39
34,34,0,-34,17,17,-58,53,97,-29,4,-39
34,24,-9,-29,21,7,-53,48,97,-29,0,-39
29,43,14,-36,7,29,-43,58,97,-39,4,-48
29,43,14,-36,7,29,-43,63,97,-39,4,-48
29,34,4,-31,12,19,-48,63,97,-39,-4,-53
19,34,14,-26,2,24,-48,63,97,-43,-9,-53
19,39,19,-29,0,29,-43,73,97,-29,4,-53
19,39,19,-29,0,29,-34,78,102,-29,9,-58
9,39,29,-24,-9,34,-34,78,102,-24,9,-58
0,34,34,-17,-17,34,-39,78,102,-19,9,-63
-14,29,43,-7,-29,36,-29,78,102,-29,-4,-63
-9,29,39,-9,-24,34,-24,78,102,-29,-9,-63
-4,19,24,-7,-14,21,-14,87,102,-24,-14,-68
0,19,19,-9,-9,19,-14,87,102,-24,-19,-68
-19,9,29,4,-24,19,-14,87,92,-34,-24,-78
-4,9,14,-2,-9,12,-4,87,97,-29,-24,-78
-4,9,14,-2,-9,12,0,97,107,-29,-24,-78
-4,4,9,0,-7,7,0,97,107,-39,-34,-87
4,-4,-9,0,7,-7,0,87,107,-48,-43,-87
-4,-9,-4,7,0,-7,-4,87,97,-58,-43,-92
-9,-9,0,9,-4,-4,-9,87,97,-63,-48,-97
-9,-14,-4,12,-2,-9,-14,82,97,-68,-48,-102
-24,-24,0,24,-12,-12,-19,82,102,-58,-58,-97
-24,-34,-9,29,-7,-21,-14,87,102,-58,-63,-97
-19,-24,-4,21,-7,-14,0,87,107,-58,-63,-102
-19,-24,-4,21,-7,-14,4,87,107,-53,-58,-102
-29,-39,-9,34,-9,-24,-4,87,97,-53,-48,-107
-14,-39,-24,26,4,-31,-4,87,97,-58,-48,-112
-14,-29,-14,21,0,-21,-4,87,102,-58,-53,-112
-14,-29,-14,21,0,-21,0,87,102,-63,-63,-112
-9,-43,-34,26,12,-39,-9,87,102,-53,-53,-107
-9,-53,-43,31,17,-48,-14,82,102,-53,-48,-107
-14,-53,-39,34,12,-46,-14,73,102,-53,-48,-107
-24,-48,-24,36,0,-36,-14,68,97,-53,-48,-107
-19,-29,-9,24,-4,-19,-14,82,107,-48,-58,-112
-19,-29,-9,24,-4,-19,-14,87,107,-48,-63,-107
-24,-29,-4,26,-9,-17,-9,97,112,-48,-63,-107
-24,-29,-4,26,-9,-17,-9,102,112,-48,-63,-112
-24,-48,-24,36,0,-36,-4,92,107,-58,-68,-112
-29,-48,-19,39,-4,-34,-4,87,107,-58,-68,-112
-43,-48,-4,46,-19,-26,-9,87,107,-58,-63,-112
-48,-48,0,48,-24,-24,-9,82,107,-63,-63,-112
-29,-39,-9,34,-9,-24,9,82,112,-43,-53,-92
-4,-29,-24,17,9,-26,0,82,112,-43,-68,-92
-14,-29,-14,21,0,-21,-9,73,112,-53,-92,-107
-34,-19,14,26,-24,-2,-9,68,112,-63,-107,-122
-43,4,48,19,-46,26,0,68,112,-58,-126,-131
-73,4,78,34,-75,41,9,78,112,-39,-107,-122
-73,39,112,17,-92,75,0,63,107,14,-53,-78
-63,63,126,0,-95,95,-9,39,107,82,39,4
-63,78,141,-7,-102,109,-34,29,112,151,170,122
-43,146,190,-51,-117,168,-34,39,112,244,351,263
-19,229,248,-104,-134,239,-34,53,107,395,566,439
14,307,292,-161,-139,300,-53,58,112,556,824,658
68,385,317,-226,-124,351,-92,39,112,668,1146,956
136,458,322,-297,-92,390,-141,4,112,785,1503,1288
219,531,312,-375,-46,422,-219,-39,112,873,1825,1590
297,595,297,-446,0,446,-287,-68,117,936,2113,1844
380,624,244,-502,68,434,-331,-87,112,971,2230,1966
468,614,146,-541,161,380,-370,-102,112,976,2078,1878
507,531,24,-519,241,278,-395,-117,117,893,1805,1698
507,370,-136,-439,322,117,-395,-131,117,702,1444,1429
444,229,-214,-336,329,7,-380,-151,112,507,1024,1044
331,92,-239,-212,285,-73,-346,-185,117,312,663,663
239,9,-229,-124,234,-109,-331,-253,117,-53,292,385
180,-14,-195,-82,187,-104,-326,-326,117,-512,-82,200
107,-82,-190,-12,148,-136,-278,-322,112,-775,-375,29
9,-131,-141,61,75,-136,-229,-273,112,-878,-590,-117
-73,-102,-29,87,-21,-65,-200,-234,117,-854,-673,-180
-117,-68,48,92,-82,-9,-175,-185,112,-732,-600,-170
-97,-63,34,80,-65,-14,-151,-117,112,-610,-492,-175
-58,-48,9,53,-34,-19,-117,-34,117,-522,-434,-195
-53,-73,-19,63,-17,-46,-63,29,112,-424,-409,-195
-39,-97,-58,68,9,-78,-34,82,112,-356,-370,-195
-24,-117,-92,70,34,-104,0,131,117,-283,-287,-185
-24,-126,-102,75,39,-114,34,165,117,-195,-234,-195
-14,-117,-102,65,43,-109,53,170,122,-107,-185,-180
-14,-92,-78,53,31,-85,43,161,122,-48,-131,-146
-14,-63,-48,39,17,-56,34,146,122,-14,-102,-131
-14,-48,-34,31,9,-41,24,141,122,-19,-82,-126
-14,-53,-39,34,12,-46,9,136,117,-29,-73,-117
-9,-39,-29,24,9,-34,14,112,117,-29,-87,-117
-14,-29,-14,21,0,-21,4,102,117,-29,-117,-117
-14,-24,-9,19,-2,-17,4,97,117,-24,-122,-112
-14,-14,0,14,-7,-7,4,97,117,-24,-112,-102
-9,-19,-9,14,0,-14,0,78,112,-34,-107,-92
-9,-19,-9,14,0,-14,0,78,107,-24,-102,-87
-9,-24,-14,17,2,-19,0,73,107,-24,-97,-87
-9,-24,-14,17,2,-19,-4,73,112,-19,-92,-92
-4,-9,-4,7,0,-7,4,87,112,-19,-97,-92
19,-9,-29,-4,24,-19,4,87,112,-14,-92,-82
34,-9,-43,-12,39,-26,4,87,117,-14,-107,-82
24,0,-24,-12,24,-12,4,82,122,-14,-112,-82
4,-14,-19,4,12,-17,-4,78,122,-9,-122,-92
-4,-24,-19,14,7,-21,-4,63,117,-9,-112,-92
-9,-29,-19,19,4,-24,-4,73,117,-4,-112,-87
-9,-19,-9,14,0,-14,-4,58,122,4,-97,-82
-9,-19,-9,14,0,-14,4,73,122,24,-92,-73
-9,-19,-9,14,0,-14,9,78,126,24,-97,-73
-19,-9,9,14,-14,0,9,92,126,24,-82,-73
-9,-9,0,9,-4,-4,9,87,126,24,-73,-73
-4,-19,-14,12,4,-17,14,87,122,34,-63,-73
0,-9,-9,4,4,-9,9,87,122,34,-63,-73
0,4,4,-2,-2,4,9,82,122,34,-58,-73
4,14,9,-9,-2,12,9,82,122,34,-58,-68
24,19,-4,-21,14,7,9,97,117,24,-58,-53
24,14,-9,-19,17,2,14,97,117,29,-58,-53
24,9,-14,-17,19,-2,14,97,126,34,-53,-48
24,0,-24,-12,24,-12,14,97,131,34,-39,-48
24,9,-14,-17,19,-2,4,97,131,34,-34,-58
24,9,-14,-17,19,-2,4,92,131,43,-39,-58
24,9,-14,-17,19,-2,4,92,117,48,-39,-58
24,9,-14,-17,19,-2,4,87,117,58,-34,-58
19,0,-19,-9,19,-9,4,97,117,48,-34,-58
14,-9,-24,-2,19,-17,9,97,107,48,-24,-58
9,-9,-19,0,14,-14,14,97,117,53,-14,-58
14,-9,-24,-2,19,-17,19,97,131,53,-9,-39
19,-19,-39,0,29,-29,9,92,131,43,-4,-48
29,9,-19,-19,24,-4,9,92,126,48,-4,-39
34,-4,-39,-14,36,-21,9,92,126,58,-19,-34
29,-4,-34,-12,31,-19,9,92,136,58,-4,-34
29,-4,-34,-12,31,-19,9,102,126,63,14,-24
39,4,-34,-21,36,-14,9,97,122,73,24,-19
43,4,-39,-24,41,-17,9,97,122,82,29,-19
53,4,-48,-29,51,-21,9,102,126,87,39,-19
48,14,-34,-31,41,-9,0,107,122,87,39,-9
48,19,-29,-34,39,-4,0,107,126,92,43,-9
58,19,-39,-39,48,-9,0,107,126,102,43,0
58,19,-39,-39,48,-9,0,107,117,102,58,4
63,19,-43,-41,53,-12,0,112,117,117,53,4
58,19,-39,-39,48,-9,-4,117,117,122,68,0
58,19,-39,-39,48,-9,-4,126,122,126,78,9
63,24,-39,-43,51,-7,-4,131,136,126,92,9
78,29,-48,-53,63,-9,-4,151,156,126,97,14
87,29,-58,-58,73,-14,-4,151,151,146,107,19
87,24,-63,-56,75,-19,-4,146,141,146,112,24
92,24,-68,-58,80,-21,-4,146,131,146,117,39
87,34,-53,-61,70,-9,-9,136,131,156,126,39
92,43,-48,-68,70,-2,-19,141,131,175,136,39
122,43,-78,-82,100,-17,-24,141,126,180,161,48
112,43,-68,-78,90,-12,-24,141,126,180,170,48
112,34,-78,-73,95,-21,-14,141,146,195,195,53
102,29,-73,-65,87,-21,-24,141,131,195,209,53
102,29,-73,-65,87,-21,-29,146,131,200,219,58
117,29,-87,-73,102,-29,-29,146,136,204,229,68
136,19,-117,-78,126,-48,-39,141,141,219,239,68
146,34,-112,-90,129,-39,-39,141,146,219,244,78
146,24,-122,-85,134,-48,-39,146,141,224,239,82
136,14,-122,-75,129,-53,-39,146,136,219,229,82
131,14,-117,-73,124,-51,-48,156,126,209,239,73
146,19,-126,-82,136,-53,-48,156,136,219,253,87
156,29,-126,-92,141,-48,-43,156,136,219,253,92
156,19,-136,-87,146,-58,-43,151,136,219,253,92
161,29,-131,-95,146,-51,-53,151,136,204,244,102
161,29,-131,-95,146,-51,-58,146,131,204,244,102
161,39,-122,-100,141,-41,-58,146,131,209,234,102
146,29,-117,-87,131,-43,-58,146,131,209,234,102
112,9,-102,-61,107,-46,-63,141,126,214,258,102
141,19,-122,-80,131,-51,-63,141,131,219,258,102
156,29,-126,-92,141,-48,-58,141,136,224,253,102
146,14,-131,-80,139,-58,-53,136,141,214,244,97
151,9,-141,-80,146,-65,-63,146,131,214,244,87
151,14,-136,-82,143,-61,-68,136,131,214,229,87
161,24,-136,-92,148,-56,-68,136,136,214,229,87
151,29,-122,-90,136,-46,-63,141,136,214,229,87
156,29,-126,-92,141,-48,-63,151,146,209,214,82
146,24,-122,-85,134,-48,-63,146,141,209,209,78
161,24,-136,-92,148,-56,-68,146,141,209,190,78
161,29,-131,-95,146,-51,-73,146,131,204,185,78
165,39,-126,-102,146,-43,-73,131,126,200,175,68
161,34,-126,-97,143,-46,-63,131,126,185,175,63
161,19,-141,-90,151,-61,-58,131,126,170,170,63
161,19,-141,-90,151,-61,-58,131,131,165,161,63
170,24,-146,-97,158,-61,-73,131,141,161,146,63
170,19,-151,-95,161,-65,-73,131,141,161,141,63
161,14,-146,-87,153,-65,-63,131,141,146,136,63
151,19,-131,-85,141,-56,-63,122,141,146,131,63
146,19,-126,-82,136,-53,-63,122,151,146,112,63
146,19,-126,-82,136,-53,-68,126,146,141,92,63
146,14,-131,-80,139,-58,-68,126,146,131,87,63
146,14,-131,-80,139,-58,-73,126,136,126,82,63
112,14,-97,-63,104,-41,-68,126,141,112,73,58
141,19,-122,-80,131,-51,-73,122,141,102,78,58
146,19,-126,-82,136,-53,-73,117,141,97,78,58
146,19,-126,-82,136,-53,-68,117,136,92,78,58
136,24,-112,-80,124,-43,-68,117,141,92,73,39
112,14,-97,-63,104,-41,-68,107,131,97,73,39
117,19,-97,-68,107,-39,-68,107,136,97,68,39
117,29,-87,-73,102,-29,-68,107,146,87,68,39
112,19,-92,-65,102,-36,-78,102,146,78,53,43
117,29,-87,-73,102,-29,-73,102,146,73,43,48
122,29,-92,-75,107,-31,-68,102,146,53,34,43
102,29,-73,-65,87,-21,-68,97,146,29,19,48
87,19,-68,-53,78,-24,-68,97,146,34,14,29
78,19,-58,-48,68,-19,-63,97,146,39,4,24
63,14,-48,-39,56,-17,-58,92,146,29,-4,24
39,9,-29,-24,34,-9,-53,92,131,29,-19,24
39,19,-19,-29,29,0,-43,82,131,9,-34,24
39,19,-19,-29,29,0,-43,82,126,9,-39,9
39,19,-19,-29,29,0,-43,92,156,9,-53,4
39,14,-24,-26,31,-4,-43,92,161,0,-68,0
34,4,-29,-19,31,-12,-48,82,156,-4,-78,-9
24,14,-9,-19,17,2,-43,87,141,-4,-82,-19
24,19,-4,-21,14,7,-43,87,141,-9,-87,-19
24,19,-4,-21,14,7,-43,82,146,-9,-92,-24
19,24,4,-21,7,14,-29,92,141,0,-92,-29
19,19,0,-19,9,9,-29,92,146,-9,-97,-24
19,24,4,-21,7,14,-34,87,161,-9,-112,-24
24,34,9,-29,7,21,-34,87,146,-14,-122,-29
24,34,9,-29,7,21,-24,97,151,-14,-131,-34
19,29,9,-24,4,19,-24,97,151,-14,-131,-39
14,24,9,-19,2,17,-24,97,146,-14,-136,-39
9,19,9,-14,0,14,-24,97,146,-14,-146,-39
19,24,4,-21,7,14,-34,87,141,-24,-146,-43
19,14,-4,-17,12,4,-34,92,151,-24,-146,-48
29,14,-14,-21,21,0,-34,92,161,-29,-151,-63
29,14,-14,-21,21,0,-39,87,161,-39,-161,-73
14,14,0,-14,7,7,-39,78,151,-39,-175,-63
14,14,0,-14,7,7,-34,82,151,-29,-165,-63
9,14,4,-12,2,9,-29,82,151,-29,-156,-63
14,9,-4,-12,9,2,-29,82,146,-29,-156,-68
24,9,-14,-17,19,-2,-29,78,156,-34,-170,-73
39,9,-29,-24,34,-9,-29,78,156,-34,-175,-68
29,0,-29,-14,29,-14,-34,78,151,-39,-180,-82
14,0,-14,-7,14,-7,-34,78,151,-43,-185,-97
29,14,-14,-21,21,0,-19,78,151,-34,-180,-92
29,14,-14,-21,21,0,-19,82,151,-39,-185,-87
29,9,-19,-19,24,-4,-24,82,151,-39,-195,-87
29,9,-19,-19,24,-4,-29,78,161,-39,-200,-82
24,24,0,-24,12,12,-14,82,156,-39,-200,-73
4,24,19,-14,-7,21,-9,87,156,-39,-200,-73
0,9,9,-4,-4,9,-4,92,156,-39,-200,-73
-4,9,14,-2,-9,12,0,102,156,-43,-200,-78
-4,14,19,-4,-12,17,-4,92,161,-43,-209,-78
-4,14,19,-4,-12,17,-9,92,146,-53,-209,-87
0,19,19,-9,-9,19,-14,87,146,-53,-195,-92
9,19,9,-14,0,14,-19,87,151,-53,-195,-92
4,14,9,-9,-2,12,-9,97,161,-34,-195,-78
0,14,14,-7,-7,14,-9,97,161,-24,-190,-78
-9,14,24,-2,-17,19,-4,97,161,-19,-185,-78
-14,14,29,0,-21,21,-4,102,161,-14,-185,-78
-4,9,14,-2,-9,12,-4,102,161,-24,-190,-68
-9,9,19,0,-14,14,-4,102,170,-24,-195,-78
-9,0,9,4,-9,4,-14,102,156,-19,-195,-82
0,9,9,-4,-4,9,-14,97,151,-19,-200,-87
9,19,9,-14,0,14,-14,97,151,-9,-195,-78
9,19,9,-14,0,14,-14,102,161,-4,-200,-78
0,19,19,-9,-9,19,-9,102,161,4,-195,-78
0,19,19,-9,-9,19,-9,102,161,4,-165,-78
0,29,29,-14,-14,29,-14,97,161,4,-170,-68
0,29,29,-14,-14,29,-14,97,161,4,-180,-68
4,24,19,-14,-7,21,-19,97,170,4,-195,-58
14,24,9,-19,2,17,-19,97,170,4,-200,-58
9,24,14,-17,-2,19,-14,97,165,9,-175,-58
4,24,19,-14,-7,21,-14,102,165,19,-161,-58
4,14,9,-9,-2,12,-19,102,175,34,-136,-53
4,24,19,-14,-7,21,-24,107,175,39,-122,-53
-4,29,34,-12,-19,31,-24,107,165,24,-131,-43
9,29,19,-19,-4,24,-19,107,165,24,-131,-39
29,34,4,-31,12,19,-19,107,165,29,-131,-34
29,34,4,-31,12,19,-14,107,165,34,-136,-24
39,24,-14,-31,26,4,-14,102,165,34,-126,-24
34,19,-14,-26,24,2,-14,102,165,34,-126,-34
19,19,0,-19,9,9,-14,107,161,34,-112,-34
14,24,9,-19,2,17,-19,107,156,43,-107,-34
14,24,9,-19,2,17,-29,107,156,43,-97,-43
14,24,9,-19,2,17,-24,112,165,48,-97,-34
14,29,14,-21,0,21,-14,117,170,48,-92,-24
14,43,29,-29,-7,36,-14,117,170,48,-87,-19
14,43,29,-29,-7,36,-4,117,170,58,-87,-9
14,29,14,-21,0,21,-9,117,170,58,-97,-4
14,29,14,-21,0,21,-19,102,165,58,-97,-4
19,34,14,-26,2,24,-19,112,165,63,-87,-9
24,34,9,-29,7,21,-19,112,175,53,-87,-19
24,34,9,-29,7,21,-19,112,170,63,-87,-19
24,34,9,-29,7,21,-19,112,170,63,-87,-9
29,39,9,-34,9,24,-14,117,175,63,-87,-4
9,19,9,-14,0,14,-19,97,175,48,-112,-24
14,9,-4,-12,9,2,-19,97,170,39,-112,-19
29,9,-19,-19,24,-4,-29,87,175,29,-107,0
19,19,0,-19,9,9,-29,97,175,39,-97,0
19,19,0,-19,9,9,-29,97,175,39,-97,0
19,19,0,-19,9,9,-29,97,175,39,-97,0
19,19,0,-19,9,9,-29,97,175,39,-97,0
24,39,14,-31,4,26,-19,92,175,34,-107,4
39,29,-9,-34,24,9,-19,92,180,34,-107,9
24,29,4,-26,9,17,-19,92,180,34,-107,9
29,29,0,-29,14,14,-29,82,175,34,-112,0
29,24,-4,-26,17,9,-34,82,175,39,-107,-4
34,24,-9,-29,21,7,-34,82,175,34,-107,-9
29,29,0,-29,14,14,-24,87,180,34,-112,-14
24,39,14,-31,4,26,-24,87,180,34,-112,-19
34,29,-4,-31,19,12,-24,87,180,29,-117,-9
24,29,4,-26,9,17,-29,82,175,29,-117,-9
24,29,4,-26,9,17,-29,82,175,29,-117,-9
24,29,4,-26,9,17,-29,82,175,29,-122,-9
9,39,29,-24,-9,34,-29,92,180,14,-131,0
9,58,48,-34,-19,53,-29,87,180,14,-131,0
9,63,53,-36,-21,58,-29,87,180,24,-112,4
14,73,58,-43,-21,65,-29,87,180,29,-112,9
24,78,53,-51,-14,65,-39,82,175,39,-126,0
29,73,43,-51,-7,58,-48,82,175,39,-136,0
24,68,43,-46,-9,56,-48,82,175,43,-141,0
19,63,43,-41,-12,53,-53,82,180,43,-151,0
24,73,48,-48,-12,61,-53,92,185,58,-141,0
19,78,58,-48,-19,68,-48,97,185,63,-126,4
14,78,63,-46,-24,70,-34,97,185,78,-117,9
4,82,78,-43,-36,80,-34,97,185,82,-107,19
4,92,87,-48,-41,90,-34,112,185,92,-97,29
9,92,82,-51,-36,87,-39,112,185,97,-92,29
14,82,68,-48,-26,75,-43,112,190,97,-87,19
19,78,58,-48,-19,68,-43,112,190,97,-87,19
19,63,43,-41,-12,53,-58,102,190,82,-102,19
24,63,39,-43,-7,51,-58,92,180,73,-107,19
34,58,24,-46,4,41,-58,87,180,68,-107,19
34,58,24,-46,4,41,-58,78,175,68,-117,19
29,53,24,-41,2,39,-73,78,170,53,-112,19
29,43,14,-36,7,29,-73,78,175,43,-112,19
19,39,19,-29,0,29,-78,63,175,39,-122,19
14,39,24,-26,-4,31,-78,63,180,24,-136,14
14,34,19,-24,-2,26,-78,58,170,14,-136,0
14,29,14,-21,0,21,-78,58,175,4,-141,0
14,34,19,-24,-2,26,-78,53,175,0,-141,0
14,39,24,-26,-4,31,-82,53,180,-4,-146,-4
14,29,14,-21,0,21,-97,34,180,-24,-170,-19
9,29,19,-19,-4,24,-102,29,185,-29,-170,-24
4,29,24,-17,-9,26,-107,29,180,-29,-165,-24
9,34,24,-21,-7,29,-107,29,195,-29,-161,-19
29,39,9,-34,9,24,-107,19,195,-29,-170,-19
34,39,4,-36,14,21,-107,24,195,-29,-170,-19
34,34,0,-34,17,17,-107,24,195,-29,-175,-19
43,24,-19,-34,31,2,-102,19,195,-29,-175,-19
43,43,0,-43,21,21,-82,24,195,-29,-161,-9
39,43,4,-41,17,24,-82,34,195,-29,-161,-9
34,34,0,-34,17,17,-87,39,195,-29,-170,-14
19,34,14,-26,2,24,-87,43,195,-34,-175,-14
39,29,-9,-34,24,9,-73,39,195,-43,-185,-14
39,29,-9,-34,24,9,-63,39,200,-48,-195,-19
29,29,0,-29,14,14,-63,34,200,-48,-209,-19
19,24,4,-21,7,14,-68,29,200,-48,-224,-24
4,24,19,-14,-7,21,-58,39,200,-43,-209,-29
9,29,19,-19,-4,24,-53,39,200,-39,-204,-24
14,24,9,-19,2,17,-43,48,200,-29,-200,-24
19,29,9,-24,4,19,-43,48,200,-24,-195,-19
-4,19,24,-7,-14,21,-43,58,190,-14,-190,-24
4,19,14,-12,-4,17,-34,58,195,-9,-180,-29
0,19,19,-9,-9,19,-29,68,204,-9,-170,-34
-4,14,19,-4,-12,17,-29,68,204,-19,-170,-48
4,14,9,-9,-2,12,-34,58,204,-19,-180,-39
-4,9,14,-2,-9,12,-34,58,195,-29,-180,-43
-9,9,19,0,-14,14,-34,58,195,-34,-185,-48
-9,4,14,2,-12,9,-34,53,195,-39,-185,-53
-4,-4,0,4,-2,-2,-34,53,200,-43,-195,-48
-4,-14,-9,9,2,-12,-34,58,200,-48,-200,-48
0,-4,-4,2,2,-4,-24,58,204,-53,-200,-53
0,-4,-4,2,2,-4,-24,58,204,-53,-195,-53
-9,-9,0,9,-4,-4,-34,58,204,-43,-204,-68
4,-9,-14,2,9,-12,-34,58,204,-48,-204,-73
4,0,-4,-2,4,-2,-34,58,209,-48,-209,-73
4,0,-4,-2,4,-2,-29,58,209,-53,-219,-73
-9,-4,4,7,-7,0,-29,63,209,-43,-219,-68
-9,-14,-4,12,-2,-9,-34,63,209,-43,-214,-68
-14,-14,0,14,-7,-7,-34,58,209,-43,-214,-68
-24,-9,14,17,-19,2,-34,58,204,-43,-214,-68
-9,-9,0,9,-4,-4,-24,58,204,-39,-204,-63
-9,-9,0,9,-4,-4,-24,58,204,-39,-209,-58
-14,-9,4,12,-9,-2,-19,63,209,-39,-209,-58
-14,-9,4,12,-9,-2,-19,63,209,-39,-209,-63
-4,-9,-4,7,0,-7,-24,63,204,-39,-214,-63
0,-9,-9,4,4,-9,-24,58,204,-39,-214,-63
-4,-9,-4,7,0,-7,-29,58,204,-39,-209,-63
0,-9,-9,4,4,-9,-29,53,204,-43,-209,-63
0,-19,-19,9,9,-19,-39,53,209,-43,-209,-63
-4,-19,-14,12,4,-17,-29,53,209,-53,-214,-73
-14,-9,4,12,-9,-2,-29,53,209,-43,-209,-78
-14,0,14,7,-14,7,-29,48,209,-53,-224,-92
-24,14,39,4,-31,26,-29,39,209,-58,-253,-102
-34,34,68,0,-51,51,-19,39,209,-39,-253,-82
-53,39,92,7,-73,65,-19,43,214,4,-209,-48
-63,63,126,0,-95,95,-19,39,214,73,-126,4
-43,107,151,-31,-97,129,-34,29,209,161,4,102
-24,156,180,-65,-102,168,-43,19,209,224,165,263
-9,219,229,-104,-119,224,-63,24,214,326,351,419
4,278,273,-141,-134,275,-73,39,219,478,600,610
58,366,307,-212,-124,336,-102,39,219,639,902,878
136,458,322,-297,-92,390,-151,14,219,766,1259,1190
209,531,322,-370,-56,427,-200,-29,219,863,1600,1503
297,605,307,-451,-4,456,-258,-58,214,917,1898,1795
390,644,253,-517,68,448,-322,-87,219,951,2093,1986
439,634,195,-536,122,414,-370,-102,219,956,2059,1976
478,590,112,-534,183,351,-405,-117,214,922,1825,1815
517,468,-48,-492,283,209,-414,-122,214,790,1493,1576
492,307,-185,-400,339,61,-409,-141,219,556,1083,1229
419,170,-248,-295,334,-39,-366,-165,224,380,722,829
336,68,-268,-202,302,-100,-322,-204,224,131,370,502
248,14,-234,-131,241,-109,-326,-307,224,-307,-14,297
165,-14,-180,-75,173,-97,-317,-370,219,-688,-366,126
48,-73,-122,12,85,-97,-248,-322,219,-858,-600,-29
-43,-73,-29,58,-7,-51,-219,-253,224,-902,-722,-122
-58,-19,39,39,-48,9,-204,-214,219,-810,-707,-141
-48,-4,43,26,-46,19,-170,-156,219,-649,-610,-136
-48,-19,29,34,-39,4,-126,-82,224,-541,-541,-146
-43,-43,0,43,-21,-21,-92,-19,219,-473,-497,-165
-9,-68,-58,39,24,-63,-53,43,219,-395,-448,-175
-4,-78,-73,41,34,-75,-19,92,224,-312,-395,-175
-14,-97,-82,56,34,-90,4,126,224,-234,-341,-165
-4,-87,-82,46,39,-85,24,161,229,-146,-273,-161
4,-63,-68,29,36,-65,24,170,229,-78,-209,-136
4,-43,-48,19,26,-46,24,175,229,-53,-190,-102
4,-39,-43,17,24,-41,14,161,229,-29,-170,-87
14,-24,-39,4,26,-31,0,146,224,-9,-170,-87
19,-9,-29,-4,24,-19,0,131,224,-19,-161,-78
14,0,-14,-7,14,-7,-4,122,224,-19,-185,-78
14,4,-9,-9,12,-2,0,117,224,-14,-185,-73
14,14,0,-14,7,7,4,117,224,-14,-170,-63
14,14,0,-14,7,7,-4,97,229,-24,-161,-73
9,9,0,-9,4,4,-9,97,224,-14,-161,-68
4,0,-4,-2,4,-2,-14,92,224,-14,-161,-68
0,-4,-4,2,2,-4,-24,92,229,-9,-161,-73
0,9,9,-4,-4,9,-14,107,229,-19,-161,-82
19,9,-9,-14,14,0,-14,107,229,-14,-151,-73
29,9,-19,-19,24,-4,-14,107,234,-14,-161,-73
14,19,4,-17,4,12,-14,102,239,-14,-161,-73
4,19,14,-12,-4,17,-14,102,229,-9,-156,-68
4,14,9,-9,-2,12,-14,92,224,-9,-141,-63
9,14,4,-12,2,9,-14,107,224,-4,-136,-53
19,29,9,-24,4,19,-14,97,229,4,-117,-43
19,39,19,-29,0,29,-24,92,229,0,-131,-58
19,39,19,-29,0,29,-19,87,234,-4,-146,-63
9,48,39,-29,-14,43,-19,92,234,-9,-141,-68
19,48,29,-34,-4,39,-19,78,234,-14,-141,-73
29,43,14,-36,7,29,-34,87,239,-4,-141,-63
29,48,19,-39,4,34,-39,87,239,-4,-141,-63
24,58,34,-41,-4,46,-39,82,239,-4,-136,-63
24,63,39,-43,-7,51,-39,82,239,-4,-136,-58
34,58,24,-46,4,41,-39,87,229,0,-126,-53
34,53,19,-43,7,36,-34,87,214,9,-126,-53
34,48,14,-41,9,31,-34,87,209,19,-122,-48
34,39,4,-36,14,21,-34,87,200,24,-107,-48
29,29,0,-29,14,14,-34,82,200,14,-102,-58
24,29,4,-26,9,17,-34,82,200,24,-107,-58
19,29,9,-24,4,19,-34,87,185,29,-107,-58
14,29,14,-21,0,21,-34,87,185,39,-102,-58
29,48,19,-39,4,34,-43,87,175,14,-107,-68
34,48,14,-41,9,31,-48,87,165,9,-102,-68
39,58,19,-48,9,39,-53,87,175,9,-97,-68
53,68,14,-61,19,41,-58,87,190,4,-97,-48
48,63,14,-56,17,39,-48,92,195,24,-78,-48
48,87,39,-68,4,63,-48,92,195,39,-73,-39
43,68,24,-56,9,46,-48,92,200,58,-82,-34
29,63,34,-46,-2,48,-48,92,214,68,-63,-34
29,39,9,-34,9,24,-39,97,224,63,-53,-24
39,43,4,-41,17,24,-39,97,219,73,-43,-19
43,39,-4,-41,24,17,-39,102,219,82,-39,-19
53,34,-19,-43,36,7,-39,112,224,87,-29,-19
48,19,-29,-34,39,-4,-39,117,229,87,-19,-14
48,19,-29,-34,39,-4,-39,117,234,92,-14,-9
58,14,-43,-36,51,-14,-39,117,234,102,-14,4
58,9,-48,-34,53,-19,-39,117,224,102,0,14
68,19,-48,-43,58,-14,-48,117,229,97,0,4
68,29,-39,-48,53,-4,-53,117,224,102,9,0
73,39,-34,-56,53,2,-53,122,224,107,14,9
82,53,-29,-68,56,12,-53,122,234,107,24,9
87,68,-19,-78,53,24,-48,141,258,117,34,24
97,68,-29,-82,63,19,-53,141,258,136,48,29
97,63,-34,-80,65,14,-58,136,253,136,58,34
102,63,-39,-82,70,12,-63,136,248,136,68,48
97,48,-48,-73,73,0,-68,131,258,136,68,58
102,53,-48,-78,75,2,-78,131,258,156,68,58
131,48,-82,-90,107,-17,-82,126,253,161,82,68
122,43,-78,-82,100,-17,-82,122,253,161,82,68
117,53,-63,-85,90,-4,-73,122,253,165,97,63
102,48,-53,-75,78,-2,-82,122,239,165,112,63
97,48,-48,-73,73,0,-87,126,239,170,122,68
107,48,-58,-78,82,-4,-87,126,244,175,131,78
112,34,-78,-73,95,-21,-87,141,258,204,156,97
117,43,-73,-80,95,-14,-87,141,273,209,175,107
112,29,-82,-70,97,-26,-87,146,278,219,185,112
97,14,-82,-56,90,-34,-87,146,283,219,190,112
107,14,-92,-61,100,-39,-107,146,268,214,185,102
126,19,-107,-73,117,-43,-107,146,273,219,195,117
141,29,-112,-85,126,-41,-102,146,268,214,190,122
146,19,-126,-82,136,-53,-102,141,263,209,185,122
141,9,-131,-75,136,-61,-112,141,258,214,185,122
141,9,-131,-75,136,-61,-117,136,258,214,185,122
141,19,-122,-80,131,-51,-117,136,263,219,175,122
126,9,-117,-68,122,-53,-117,136,268,219,175,122
112,4,-107,-58,109,-51,-122,141,258,209,190,122
141,19,-122,-80,131,-51,-122,141,258,209,190,122
156,34,-122,-95,139,-43,-117,141,258,209,185,122
146,24,-122,-85,134,-48,-112,136,258,195,175,117
122,4,-117,-63,119,-56,-117,131,248,185,170,102
112,-4,-117,-53,114,-61,-126,117,248,185,151,97
112,-9,-122,-51,117,-65,-131,112,253,185,146,92
92,-19,-112,-36,102,-65,-131,112,253,185,141,87
107,-9,-117,-48,112,-63,-141,122,248,170,136,82
107,-14,-122,-46,114,-68,-141,117,239,170,131,78
131,-14,-146,-58,139,-80,-146,117,234,170,112,78
141,-9,-151,-65,146,-80,-151,117,219,165,107,78
126,4,-122,-65,124,-58,-170,102,219,156,107,58
122,4,-117,-63,119,-56,-161,102,214,146,107,53
122,-4,-126,-58,124,-65,-156,102,209,136,102,53
122,0,-122,-61,122,-61,-156,102,209,136,92,53
131,4,-126,-68,129,-61,-175,87,209,131,73,43
131,0,-131,-65,131,-65,-180,82,209,131,73,43
122,-4,-126,-58,124,-65,-175,78,209,117,73,43
112,0,-112,-56,112,-56,-180,63,209,117,73,43
92,-14,-107,-39,100,-61,-165,78,209,117,78,58
87,-19,-107,-34,97,-63,-165,87,204,112,63,63
82,-29,-112,-26,97,-70,-161,92,204,102,63,68
78,-34,-112,-21,95,-73,-161,97,195,97,63,73
39,-43,-82,2,61,-63,-165,87,200,92,39,63
63,-39,-102,-12,82,-70,-170,82,200,82,39,58
63,-39,-102,-12,82,-70,-170,78,200,78,34,53
58,-39,-97,-9,78,-68,-165,78,195,73,29,48
39,-24,-63,-7,51,-43,-175,58,175,63,14,34
14,-34,-48,9,31,-41,-175,48,161,68,4,29
19,-29,-48,4,34,-39,-175,48,161,68,-9,24
19,-19,-39,0,29,-29,-175,48,165,58,-19,19
9,-24,-34,7,21,-29,-175,53,165,63,-34,14
9,-19,-29,4,19,-24,-170,53,165,63,-43,9
9,-24,-34,7,21,-29,-165,53,165,48,-53,-4
-14,-29,-14,21,0,-21,-165,48,165,29,-68,-9
-19,-43,-24,31,2,-34,-165,53,156,19,-63,-9
-19,-48,-29,34,4,-39,-161,58,156,19,-73,-14
-24,-58,-34,41,4,-46,-156,58,156,4,-82,-14
-39,-68,-29,53,-4,-48,-151,63,141,0,-97,-14
-53,-58,-4,56,-24,-31,-151,43,151,-19,-112,-29
-58,-58,0,58,-29,-29,-151,43,146,-19,-117,-48
-63,-58,4,61,-34,-26,-151,53,175,-19,-131,-58
-68,-63,4,65,-36,-29,-151,53,180,-29,-146,-68
-73,-73,0,73,-36,-36,-146,53,165,-39,-156,-58
-82,-63,19,73,-51,-21,-141,58,151,-34,-161,-68
-82,-58,24,70,-53,-17,-141,58,151,-34,-165,-68
-82,-58,24,70,-53,-17,-141,53,156,-29,-170,-73
-82,-68,14,75,-48,-26,-146,48,146,-34,-175,-92
-87,-78,9,82,-48,-34,-146,43,146,-48,-185,-92
-92,-78,14,85,-53,-31,-151,34,156,-53,-204,-97
-92,-73,19,82,-56,-26,-151,29,136,-63,-219,-107
-97,-82,14,90,-56,-34,-141,34,146,-58,-214,-122
-107,-87,19,97,-63,-34,-141,39,151,-53,-209,-126
-117,-92,24,104,-70,-34,-141,43,151,-48,-209,-126
-126,-97,29,112,-78,-34,-141,48,156,-43,-214,-126
-126,-87,39,107,-82,-24,-131,48,161,-43,-214,-136
-126,-92,34,109,-80,-29,-131,53,170,-43,-214,-136
-117,-87,29,102,-73,-29,-131,53,180,-48,-219,-146
-117,-82,34,100,-75,-24,-136,48,180,-58,-229,-151
-122,-73,48,97,-85,-12,-146,43,165,-73,-253,-161
-122,-73,48,97,-85,-12,-141,43,161,-68,-244,-161
-126,-73,53,100,-90,-9,-136,39,156,-73,-234,-161
-122,-78,43,100,-82,-17,-136,34,146,-78,-234,-165
-117,-73,43,95,-80,-14,-131,34,146,-82,-239,-175
-107,-68,39,87,-73,-14,-136,29,146,-82,-244,-165
-122,-73,48,97,-85,-12,-146,24,141,-87,-248,-175
-141,-68,73,104,-107,2,-151,19,141,-92,-253,-185
-136,-68,68,102,-102,0,-141,24,156,-87,-248,-180
-136,-82,53,109,-95,-14,-136,34,161,-87,-253,-175
-136,-102,34,119,-85,-34,-136,39,165,-82,-263,-175
-136,-117,19,126,-78,-48,-136,39,180,-78,-268,-170
-126,-117,9,122,-68,-53,-136,39,170,-87,-258,-161
-141,-122,19,131,-80,-51,-136,39,165,-87,-258,-161
-141,-141,0,141,-70,-70,-136,39,161,-87,-258,-161
-141,-146,-4,143,-68,-75,-136,43,156,-92,-258,-165
-151,-131,19,141,-85,-56,-146,29,156,-102,-273,-180
-161,-122,39,141,-100,-41,-146,24,136,-112,-278,-195
-165,-107,58,136,-112,-24,-146,14,131,-112,-268,-204
-165,-97,68,131,-117,-14,-146,9,131,-112,-273,-209
-156,-102,53,129,-104,-24,-136,24,146,-87,-273,-204
-156,-102,53,129,-104,-24,-136,29,151,-82,-268,-204
-161,-102,58,131,-109,-21,-131,34,156,-82,-263,-204
-161,-102,58,131,-109,-21,-131,43,161,-82,-263,-204
-151,-87,63,119,-107,-12,-131,39,161,-73,-273,-185
-156,-87,68,122,-112,-9,-131,34,170,-73,-273,-195
-156,-97,58,126,-107,-19,-141,29,156,-68,-268,-200
-146,-87,58,117,-102,-14,-141,19,151,-68,-268,-204
-141,-92,48,117,-95,-21,-141,29,161,-78,-258,-190
-146,-97,48,122,-97,-24,-141,34,170,-73,-268,-185
-161,-102,58,131,-109,-21,-136,34,170,-63,-268,-180
-165,-107,58,136,-112,-24,-136,34,170,-63,-244,-175
-146,-102,43,124,-95,-29,-131,39,161,-73,-234,-175
-146,-97,48,122,-97,-24,-131,39,161,-73,-239,-175
-141,-97,43,119,-92,-26,-136,39,170,-73,-248,-165
-131,-92,39,112,-85,-26,-136,39,170,-73,-248,-165
-151,-87,63,119,-107,-12,-131,39,165,-68,-244,-175
-161,-92,68,126,-114,-12,-131,43,165,-58,-239,-175
-165,-107,58,136,-112,-24,-136,43,175,-43,-224,-170
-170,-102,68,136,-119,-17,-141,48,175,-39,-219,-170
-175,-107,68,141,-122,-19,-131,48,165,-43,-214,-170
-165,-107,58,136,-112,-24,-126,48,165,-43,-209,-165
-151,-102,48,126,-100,-26,-126,48,165,-39,-204,-161
-156,-102,53,129,-104,-24,-122,48,165,-34,-204,-151
-151,-107,43,129,-97,-31,-126,34,165,-24,-214,-151
-151,-107,43,129,-97,-31,-131,34,165,-24,-214,-161
-161,-102,58,131,-109,-21,-136,39,161,-24,-200,-161
-161,-92,68,126,-114,-12,-146,39,156,-14,-195,-161
-151,-102,48,126,-100,-26,-136,48,165,-4,-185,-151
-151,-102,48,126,-100,-26,-131,53,175,0,-185,-141
-151,-97,53,124,-102,-21,-122,58,180,0,-180,-131
-151,-82,68,117,-109,-7,-122,58,180,0,-175,-126
-161,-82,78,122,-119,-2,-122,58,180,4,-170,-126
-161,-97,63,129,-112,-17,-126,58,180,9,-175,-122
-161,-97,63,129,-112,-17,-136,43,175,14,-170,-122
-156,-92,63,124,-109,-14,-136,53,175,24,-156,-126
-141,-82,58,112,-100,-12,-146,43,165,14,-165,-136
-141,-82,58,112,-100,-12,-146,43,161,14,-165,-136
-141,-82,58,112,-100,-12,-146,43,161,4,-165,-126
-136,-78,58,107,-97,-9,-141,48,165,-4,-165,-122
-97,-48,48,73,-73,0,-146,29,156,0,-170,-141
-92,-48,43,70,-68,-2,-146,19,161,0,-161,-136
-131,-53,78,92,-104,12,-156,29,170,9,-165,-136
-146,-39,107,92,-126,34,-146,39,165,9,-156,-136
-141,-43,97,92,-119,26,-136,39,175,0,-156,-136
-136,-48,87,92,-112,19,-136,39,175,0,-156,-136
-131,-53,78,92,-104,12,-136,39,175,0,-156,-136
-126,-58,68,92,-97,4,-136,39,175,0,-156,-136
-126,-58,68,92,-97,4,-146,43,165,4,-146,-126
-117,-68,48,92,-82,-9,-146,43,170,4,-146,-117
-136,-68,68,102,-102,0,-146,43,170,4,-146,-112
-136,-68,68,102,-102,0,-156,34,165,4,-151,-117
-122,-68,53,95,-87,-7,-170,24,146,0,-161,-122
-112,-63,48,87,-80,-7,-170,24,146,-4,-165,-126
-112,-53,58,82,-85,2,-161,29,151,-4,-175,-131
-112,-39,73,75,-92,17,-161,29,151,-4,-180,-136
-107,-39,68,73,-87,14,-161,39,151,-9,-175,-126
-122,-39,82,80,-102,21,-165,34,146,-9,-175,-126
-126,-39,87,82,-107,24,-165,34,146,-9,-175,-126
-131,-39,92,85,-112,26,-165,34,146,-9,-180,-126
-126,-43,82,85,-104,19,-156,24,151,-14,-190,-131
-126,-29,97,78,-112,34,-156,19,151,-14,-190,-136
-126,-29,97,78,-112,34,-156,19,151,-4,-170,-136
-122,-24,97,73,-109,36,-156,19,151,0,-170,-136
-107,-24,82,65,-95,29,-165,24,156,0,-185,-136
-107,-24,82,65,-95,29,-175,24,156,0,-185,-136
-117,-24,92,70,-104,34,-175,24,156,4,-180,-136
-126,-24,102,75,-114,39,-180,24,161,4,-180,-136
-117,-9,107,63,-112,48,-165,34,170,-4,-170,-126
-117,0,117,58,-117,58,-156,39,175,-4,-165,-122
-117,4,122,56,-119,63,-136,39,180,4,-165,-117
-122,14,136,53,-129,75,-131,39,185,4,-165,-107
-122,4,126,58,-124,65,-165,29,170,14,-161,-107
-117,4,122,56,-119,63,-195,14,165,19,-161,-107
-112,-4,107,58,-109,51,-224,0,165,19,-161,-117
-107,-9,97,58,-102,43,-248,-14,161,19,-165,-117
-117,-24,92,70,-104,34,-224,0,165,19,-165,-126
-112,-24,87,68,-100,31,-195,14,161,14,-165,-126
-102,-29,73,65,-87,21,-165,34,165,14,-161,-126
-102,-29,73,65,-87,21,-136,48,165,19,-165,-126
-97,-19,78,58,-87,29,-175,24,141,0,-175,-141
-97,-24,73,61,-85,24,-200,9,126,-14,-180,-146
-107,-24,82,65,-95,29,-229,-19,107,-24,-195,-151
-112,-19,92,65,-102,36,-253,-34,92,-43,-214,-161
-112,-24,87,68,-100,31,-224,-39,82,-43,-219,-165
-112,-29,82,70,-97,26,-204,-29,87,-53,-219,-165
-112,-24,87,68,-100,31,-185,-24,87,-58,-214,-165
-112,-19,92,65,-102,36,-170,-14,92,-63,-214,-170
-92,-29,63,61,-78,17,-190,-39,73,-73,-229,-161
-87,-29,58,58,-73,14,-209,-48,68,-78,-229,-161
-82,-29,53,56,-68,12,-229,-53,53,-78,-224,-156
-68,-24,43,46,-56,9,-244,-58,58,-78,-219,-146
-82,-19,63,51,-73,21,-224,-43,63,-87,-219,-141
-92,-19,73,56,-82,26,-214,-34,68,-87,-219,-146
-107,-24,82,65,-95,29,-204,-29,73,-87,-224,-151
-112,-34,78,73,-95,21,-190,-29,78,-87,-224,-156
-107,-24,82,65,-95,29,-185,-39,68,-78,-219,-151
-107,-24,82,65,-95,29,-190,-34,68,-78,-219,-146
-107,-34,73,70,-90,19,-200,-34,68,-78,-229,-146
-117,-34,82,75,-100,24,-204,-34,68,-82,-234,-141
-97,-19,78,58,-87,29,-190,-24,68,-73,-234,-146
-97,-19,78,58,-87,29,-180,-19,73,-78,-234,-156
-107,-19,87,63,-97,34,-180,-19,73,-78,-239,-161
-117,-24,92,70,-104,34,-185,-19,73,-78,-244,-170
-126,-19,107,73,-117,43,-180,-9,73,-87,-244,-170
-126,-19,107,73,-117,43,-170,-9,73,-87,-244,-170
-126,-29,97,78,-112,34,-156,0,73,-82,-244,-175
-126,-29,97,78,-112,34,-151,0,73,-82,-244,-175
-131,-43,87,87,-109,21,-165,-9,73,-82,-258,-185
-112,-48,63,80,-87,7,-161,-9,78,-78,-258,-185
-107,-53,53,80,-80,0,-161,0,87,-78,-258,-185
-102,-63,39,82,-70,-12,-165,0,87,-87,-268,-195
-112,-68,43,90,-78,-12,-146,9,87,-87,-258,-185
-122,-68,53,95,-87,-7,-141,9,78,-97,-258,-190
-126,-63,63,95,-95,0,-136,9,78,-102,-263,-195
-126,-63,63,95,-95,0,-131,4,78,-107,-263,-200
-141,-73,68,107,-104,-2,-151,4,82,-97,-263,-204
-141,-82,58,112,-100,-12,-151,9,82,-97,-268,-204
-136,-73,63,104,-100,-4,-141,9,87,-97,-268,-209
-136,-73,63,104,-100,-4,-141,9,87,-92,-263,-209
-156,-97,58,126,-107,-19,-136,19,78,-97,-273,-224
-141,-97,43,119,-92,-26,-131,19,78,-107,-273,-229
-141,-87,53,114,-97,-17,-126,19,82,-112,-278,-229
-141,-87,53,114,-97,-17,-117,19,82,-122,-287,-229
-131,-82,48,107,-90,-17,-122,24,78,-112,-287,-224
-126,-92,34,109,-80,-29,-131,24,73,-112,-283,-224
-126,-92,34,109,-80,-29,-136,19,68,-112,-283,-224
-131,-87,43,109,-87,-21,-141,19,58,-112,-283,-224
-117,-78,39,97,-78,-19,-131,9,68,-97,-283,-219
-117,-78,39,97,-78,-19,-131,9,68,-97,-287,-214
-122,-78,43,100,-82,-17,-126,14,73,-97,-287,-214
-122,-78,43,100,-82,-17,-126,14,73,-97,-287,-219
-102,-78,24,90,-63,-26,-131,14,58,-112,-292,-219
-97,-78,19,87,-58,-29,-131,9,58,-117,-292,-219
-102,-78,24,90,-63,-26,-136,9,58,-122,-287,-219
-97,-78,19,87,-58,-29,-136,4,58,-131,-287,-219
-97,-68,29,82,-63,-19,-117,24,73,-122,-268,-219
-92,-48,43,70,-68,-2,-117,24,73,-92,-273,-219
-92,-48,43,70,-68,-2,-117,24,82,-102,-297,-214
-131,-68,63,100,-97,-2,-97,29,82,-112,-302,-239
-151,-43,107,97,-129,31,-97,29,82,-107,-312,-239
-141,-24,117,82,-129,46,-97,19,82,-87,-322,-248
-141,-9,131,75,-136,61,-107,4,78,-63,-307,-244
-131,14,146,58,-139,80,-126,0,68,-4,-244,-209
-131,58,190,36,-161,124,-141,-29,63,73,-141,-122
-112,117,229,-2,-170,173,-151,-39,63,136,-9,0
-97,190,287,-46,-192,239,-151,-24,97,239,146,126
-92,258,351,-82,-222,305,-170,0,151,390,356,287
-48,366,414,-158,-231,390,-209,-9,161,531,629,527
0,468,468,-234,-234,468,-258,-53,122,649,946,819
63,541,478,-302,-207,509,-307,-87,53,756,1268,1112
141,653,512,-397,-185,583,-405,-156,-39,868,1586,1415
234,741,507,-488,-136,624,-546,-234,-151,961,1839,1654
302,771,468,-536,-82,619,-644,-287,-239,1015,1922,1751
351,727,375,-539,-12,551,-668,-302,-312,990,1805,1708
370,624,253,-497,58,439,-619,-287,-380,839,1522,1566
346,463,117,-405,114,290,-536,-268,-434,634,1161,1288
263,278,14,-270,124,146,-434,-263,-458,468,810,936
161,97,-63,-129,112,17,-380,-302,-517,190,419,610
92,34,-58,-63,75,-12,-395,-395,-644,-287,-14,366
9,-24,-34,7,21,-29,-424,-439,-727,-678,-366,156
-97,-122,-24,109,-36,-73,-424,-419,-707,-888,-610,-39
-131,-122,9,126,-70,-56,-405,-351,-624,-961,-761,-180
-107,-68,39,87,-73,-14,-341,-253,-492,-868,-756,-239
-97,-63,34,80,-65,-14,-239,-146,-356,-707,-649,-253
-107,-97,9,102,-58,-43,-146,-63,-244,-610,-570,-263
-102,-122,-19,112,-41,-70,-92,0,-141,-522,-527,-283
-68,-146,-78,107,4,-112,-82,34,-73,-424,-488,-292
-34,-146,-112,90,39,-129,-107,53,-19,-341,-434,-283
-43,-165,-122,104,39,-143,-122,78,39,-253,-380,-263
-43,-165,-122,104,39,-143,-112,122,102,-165,-322,-268
-43,-131,-87,87,21,-109,-92,141,131,-117,-278,-253
-53,-92,-39,73,-7,-65,-73,156,151,-92,-248,-239
-43,-58,-14,51,-14,-36,-43,161,161,-87,-229,-224
-43,-34,9,39,-26,-12,-19,146,175,-68,-219,-204
-43,-34,9,39,-26,-12,-34,122,161,-73,-219,-204
-43,-29,14,36,-29,-7,-43,102,156,-68,-244,-204
-39,-29,9,34,-24,-9,-43,87,151,-58,-244,-200
-34,-24,9,29,-21,-7,-43,78,146,-53,-229,-190
-39,-29,9,34,-24,-9,-53,58,126,-53,-229,-200
-39,-29,9,34,-24,-9,-58,58,117,-43,-229,-195
-39,-34,4,36,-21,-14,-63,53,112,-43,-229,-195
-39,-34,4,36,-21,-14,-73,53,112,-39,-229,-200
-53,-29,24,41,-39,-2,-73,58,131,-39,-209,-195
-39,-29,9,34,-24,-9,-73,58,131,-34,-200,-180
-34,-29,4,31,-19,-12,-73,58,136,-34,-209,-175
-53,-19,34,36,-43,7,-73,53,141,-34,-209,-170
-53,-19,34,36,-43,7,-82,63,131,-39,-219,-180
-53,-24,29,39,-41,2,-82,53,126,-39,-209,-180
-48,-24,24,36,-36,0,-82,68,126,-34,-209,-175
-39,-9,29,24,-34,9,-82,58,131,-24,-195,-170
-39,-19,19,29,-29,0,-87,48,131,-24,-204,-170
-39,-19,19,29,-29,0,-87,48,136,-24,-214,-170
-48,-9,39,29,-43,14,-92,58,136,-24,-204,-170
-39,-9,29,24,-34,9,-97,48,136,-24,-200,-170
-39,-29,9,34,-24,-9,-97,48,131,-24,-200,-170
-39,-29,9,34,-24,-9,-97,48,131,-24,-200,-170
-43,-24,19,34,-31,-2,-92,43,131,-24,-195,-170
-43,-24,19,34,-31,-2,-87,43,131,-24,-195,-165
-43,-24,19,34,-31,-2,-92,48,126,-24,-185,-151
-43,-24,19,34,-31,-2,-92,48,126,-19,-185,-151
-43,-24,19,34,-31,-2,-97,48,136,-14,-180,-146
-43,-29,14,36,-29,-7,-102,48,141,-14,-165,-146
-43,-19,24,31,-34,2,-92,53,141,-14,-161,-146
-43,-19,24,31,-34,2,-92,53,141,-4,-165,-146
-43,-19,24,31,-34,2,-92,58,126,0,-165,-146
-43,-19,24,31,-34,2,-92,58,126,9,-161,-146
-34,-9,24,21,-29,7,-107,48,126,-9,-170,-146
-34,-19,14,26,-24,-2,-107,48,117,-9,-161,-146
-34,-19,14,26,-24,-2,-107,48,126,-4,-151,-146
-24,-19,4,21,-14,-7,-107,48,141,-4,-146,-126
-34,-29,4,31,-19,-12,-102,63,141,-4,-131,-136
-29,0,29,14,-29,14,-97,63,136,0,-131,-126
-29,-14,14,21,-21,0,-92,63,136,9,-146,-122
-39,-14,24,26,-31,4,-87,63,146,9,-131,-122
-34,-24,9,29,-21,-7,-102,53,136,24,-122,-112
-19,-14,4,17,-12,-4,-107,48,131,34,-112,-107
-9,-14,-4,12,-2,-9,-112,48,131,43,-107,-107
4,-14,-19,4,12,-17,-117,53,136,48,-97,-107
4,-14,-19,4,12,-17,-122,48,141,48,-87,-107
0,-9,-9,4,4,-9,-117,48,146,53,-82,-107
4,-9,-14,2,9,-12,-112,48,146,63,-82,-97
0,-9,-9,4,4,-9,-107,48,136,63,-68,-92
4,-9,-14,2,9,-12,-117,58,141,78,-63,-78
0,-9,-9,4,4,-9,-122,58,136,82,-48,-78
0,-9,-9,4,4,-9,-122,63,136,87,-39,-63
4,-4,-9,0,7,-7,-122,63,146,87,-24,-58
19,0,-19,-9,19,-9,-122,68,165,87,-24,-63
29,0,-29,-14,29,-14,-122,63,161,107,-9,-58
29,-4,-34,-12,31,-19,-122,53,151,107,0,-53
34,-4,-39,-14,36,-21,-122,48,141,107,9,-39
29,-4,-34,-12,31,-19,-117,48,141,117,19,-39
34,4,-29,-19,31,-12,-126,53,141,136,19,-39
63,4,-58,-34,61,-26,-131,53,136,141,34,-29
53,4,-48,-29,51,-21,-131,53,136,141,34,-29
58,4,-53,-31,56,-24,-122,63,151,156,58,-29
53,0,-53,-26,53,-26,-131,63,141,156,73,-24
58,0,-58,-29,58,-29,-136,68,146,161,82,-14
78,0,-78,-39,78,-39,-136,68,156,165,92,0
82,4,-78,-43,80,-36,-146,63,156,185,112,9
87,24,-63,-56,75,-19,-146,63,165,190,126,19
82,19,-63,-51,73,-21,-146,68,165,200,131,24
68,14,-53,-41,61,-19,-146,68,165,200,131,24
63,19,-43,-41,53,-12,-156,68,161,200,141,14
78,19,-58,-48,68,-19,-156,68,165,209,156,29
87,24,-63,-56,75,-19,-151,68,161,209,156,34
87,9,-78,-48,82,-34,-151,63,156,209,156,34
92,0,-92,-46,92,-46,-170,63,146,204,146,29
92,0,-92,-46,92,-46,-175,58,141,204,146,24
92,9,-82,-51,87,-36,-175,58,141,209,136,19
78,0,-78,-39,78,-39,-175,58,141,209,136,14
68,-9,-78,-29,73,-43,-175,63,136,200,141,29
102,0,-102,-51,102,-51,-170,63,141,200,141,34
122,9,-112,-65,117,-51,-161,63,146,200,136,39
117,-4,-122,-56,119,-63,-151,58,151,185,126,39
102,-19,-122,-41,112,-70,-156,68,141,185,136,29
102,-24,-126,-39,114,-75,-165,58,141,185,122,29
112,-24,-136,-43,124,-80,-170,58,146,185,122,29
102,-29,-131,-36,117,-80,-170,63,146,185,122,29
97,-19,-117,-39,107,-68,-161,63,146,180,117,24
87,-24,-112,-31,100,-68,-161,58,141,180,112,19
102,-24,-126,-39,114,-75,-165,58,141,180,92,19
102,-19,-122,-41,112,-70,-170,58,131,175,87,19
92,-19,-112,-36,102,-65,-170,63,136,175,82,19
82,-24,-107,-29,95,-65,-161,63,136,165,87,14
78,-39,-117,-19,97,-78,-156,63,136,156,87,14
73,-39,-112,-17,92,-75,-156,63,141,156,82,14
82,-39,-122,-21,102,-80,-165,53,141,141,58,9
92,-39,-131,-26,112,-85,-170,53,131,141,53,4
92,-39,-131,-26,112,-85,-165,53,122,126,48,0
92,-29,-122,-31,107,-75,-170,43,112,126,43,-4
78,-19,-97,-29,87,-58,-161,43,112,126,39,-4
78,-19,-97,-29,87,-58,-165,48,107,122,24,-4
78,-24,-102,-26,90,-63,-165,48,107,112,24,-4
78,-24,-102,-26,90,-63,-170,48,97,107,24,-4
53,-34,-87,-9,70,-61,-175,48,92,92,0,-9
82,-29,-112,-26,97,-70,-180,43,92,82,0,-9
87,-29,-117,-29,102,-73,-180,39,92,78,-4,-9
87,-29,-117,-29,102,-73,-175,39,87,73,-9,-9
78,-19,-97,-29,87,-58,-175,29,78,48,-34,-29
53,-34,-87,-9,70,-61,-175,19,63,48,-43,-29
58,-34,-92,-12,75,-63,-175,19,63,43,-58,-29
58,-29,-87,-14,73,-58,-175,19,68,29,-68,-29
43,-19,-63,-12,53,-41,-165,34,78,19,-78,-29
39,-9,-48,-14,43,-29,-161,34,78,14,-82,-29
34,-9,-43,-12,39,-26,-156,34,78,-4,-87,-39
4,-9,-14,2,9,-12,-156,29,78,-29,-97,-39
4,-9,-14,2,9,-12,-165,19,78,-34,-107,-39
9,-9,-19,0,14,-14,-161,19,78,-29,-122,-43
9,-14,-24,2,17,-19,-156,14,78,-39,-136,-43
0,-19,-19,9,9,-19,-151,14,63,-39,-156,-43
-9,-19,-9,14,0,-14,-151,4,48,-48,-161,-53
-9,-19,-9,14,0,-14,-151,4,39,-48,-165,-68
-9,-19,-9,14,0,-14,-151,14,63,-48,-180,-73
-9,-24,-14,17,2,-19,-151,14,63,-58,-195,-78
-9,-24,-14,17,2,-19,-146,4,58,-73,-204,-78
-14,-14,0,14,-7,-7,-141,9,43,-73,-209,-87
-9,-9,0,9,-4,-4,-141,9,43,-78,-214,-87
-4,-9,-4,7,0,-7,-141,4,48,-78,-219,-92
-14,-9,4,12,-9,-2,-126,14,53,-58,-209,-92
-19,-19,0,19,-9,-9,-126,14,58,-68,-214,-92
-24,-19,4,21,-14,-7,-131,9,73,-68,-229,-97
-24,-14,9,19,-17,-2,-131,9,58,-73,-239,-107
-19,-9,9,14,-14,0,-131,9,43,-78,-248,-122
-19,-9,9,14,-14,0,-131,9,43,-82,-248,-126
-19,-9,9,14,-14,0,-131,9,39,-87,-253,-126
-19,-9,9,14,-14,0,-131,9,39,-92,-263,-126
-24,-14,9,19,-17,-2,-122,19,34,-82,-263,-126
-29,-24,4,26,-17,-9,-122,24,43,-82,-263,-126
-24,-24,0,24,-12,-12,-122,24,53,-87,-268,-136
-29,-24,4,26,-17,-9,-126,19,53,-97,-278,-141
-34,-24,9,29,-21,-7,-136,9,43,-97,-283,-141
-34,-24,9,29,-21,-7,-131,14,43,-87,-273,-141
-39,-24,14,31,-26,-4,-126,14,43,-87,-263,-141
-34,-29,4,31,-19,-12,-126,14,39,-87,-263,-146
-29,-39,-9,34,-9,-24,-117,19,43,-87,-273,-156
-19,-39,-19,29,0,-29,-117,19,48,-82,-273,-146
-34,-48,-14,41,-9,-31,-122,19,48,-82,-273,-156
-53,-48,4,51,-29,-21,-122,19,53,-82,-273,-165
-39,-24,14,31,-26,-4,-117,19,53,-92,-263,-161
-39,-24,14,31,-26,-4,-117,24,53,-97,-273,-156
-39,-29,9,34,-24,-9,-122,24,53,-97,-287,-156
-39,-29,9,34,-24,-9,-126,19,63,-97,-297,-151
-29,-24,4,26,-17,-9,-117,29,68,-97,-287,-146
-43,-24,19,34,-31,-2,-117,29,68,-97,-287,-151
-43,-39,4,41,-24,-17,-117,29,68,-97,-287,-156
-43,-39,4,41,-24,-17,-117,34,68,-102,-287,-165
-48,-34,14,41,-31,-9,-117,24,73,-97,-287,-161
-53,-34,19,43,-36,-7,-117,24,58,-102,-287,-165
-53,-29,24,41,-39,-2,-117,19,58,-97,-273,-165
-48,-29,19,39,-34,-4,-117,19,63,-92,-273,-161
-48,-34,14,41,-31,-9,-117,19,63,-87,-278,-151
-48,-34,14,41,-31,-9,-117,19,63,-82,-278,-156
-53,-34,19,43,-36,-7,-112,19,63,-82,-278,-161
-53,-34,19,43,-36,-7,-112,24,63,-82,-283,-165
-53,-29,24,41,-39,-2,-112,24,63,-82,-283,-156
-58,-29,29,43,-43,0,-112,24,73,-82,-283,-165
-58,-39,19,48,-39,-9,-122,24,58,-78,-278,-170
-48,-29,19,39,-34,-4,-122,19,53,-78,-278,-175
-48,-29,19,39,-34,-4,-122,19,63,-87,-278,-170
-48,-29,19,39,-34,-4,-122,24,73,-82,-287,-165
-58,-29,29,43,-43,0,-117,24,73,-73,-287,-161
-58,-29,29,43,-43,0,-117,24,73,-73,-263,-156
-48,-39,9,43,-29,-14,-112,39,82,-68,-253,-156
-48,-39,9,43,-29,-14,-112,39,82,-63,-258,-156
-43,-43,0,43,-21,-21,-117,39,92,-58,-268,-146
-34,-43,-9,39,-12,-26,-117,39,92,-53,-268,-146
-48,-34,14,41,-31,-9,-112,39,87,-53,-263,-136
-53,-34,19,43,-36,-7,-112,43,87,-48,-258,-136
-53,-43,9,48,-31,-17,-117,43,97,-39,-244,-131
-53,-34,19,43,-36,-7,-122,48,97,-39,-239,-131
-63,-29,34,46,-48,2,-122,39,87,-53,-234,-131
-48,-29,19,39,-34,-4,-117,39,87,-53,-229,-126
-29,-24,4,26,-17,-9,-117,39,87,-48,-224,-122
-29,-24,4,26,-17,-9,-112,39,87,-43,-224,-112
-29,-24,4,26,-17,-9,-122,34,97,-34,-224,-102
-34,-29,4,31,-19,-12,-122,34,97,-34,-224,-112
-48,-29,19,39,-34,-4,-122,39,92,-34,-209,-112
-53,-24,29,39,-41,2,-126,39,87,-24,-204,-112
-39,-24,14,31,-26,-4,-126,39,87,-24,-204,-112
-34,-24,9,29,-21,-7,-122,43,97,-19,-204,-102
-29,-19,9,24,-19,-4,-112,48,102,-19,-200,-92
-24,-4,19,14,-21,7,-112,48,102,-19,-195,-87
-29,0,29,14,-29,14,-102,48,102,-19,-185,-87
-34,-19,14,26,-24,-2,-107,48,102,-19,-195,-82
-39,-24,14,31,-26,-4,-117,34,97,-19,-195,-82
-39,-24,14,31,-26,-4,-117,43,97,-14,-185,-87
-34,-24,9,29,-21,-7,-126,53,97,-29,-175,-87
-34,-24,9,29,-21,-7,-126,53,92,-24,-175,-87
-34,-24,9,29,-21,-7,-126,53,92,-29,-175,-78
-29,-19,9,24,-19,-4,-122,58,97,-34,-175,-73
-29,-19,9,24,-19,-4,-126,58,87,-19,-190,-82
-4,0,4,2,-4,2,-117,58,102,-9,-170,-68
14,24,9,-19,2,17,-107,58,102,0,-165,-58
-4,4,9,0,-7,7,-117,39,92,-9,-175,-73
-39,-39,0,39,-19,-19,-126,19,78,-9,-175,-87
-29,-19,9,24,-19,-4,-126,24,78,-9,-165,-82
-19,-9,9,14,-14,0,-126,29,78,-9,-165,-78
-9,0,9,4,-9,4,-126,34,78,-9,-165,-73
0,9,9,-4,-4,9,-126,39,78,-9,-165,-68
-9,9,19,0,-14,14,-126,34,78,-9,-175,-68
-9,-9,0,9,-4,-4,-126,34,82,-14,-175,-68
-39,-19,19,29,-29,0,-126,34,82,-19,-175,-73
-48,-29,19,39,-34,-4,-136,24,78,-24,-180,-87
-43,-29,14,36,-29,-7,-131,24,58,-24,-175,-78
-34,-24,9,29,-21,-7,-131,24,58,-24,-175,-78
-34,-14,19,24,-26,2,-122,29,63,-19,-180,-78
-34,0,34,17,-34,17,-122,29,63,-14,-180,-78
-9,9,19,0,-14,14,-112,29,73,-14,-185,-87
-14,9,24,2,-19,17,-117,24,68,-19,-185,-87
-9,9,19,0,-14,14,-117,24,68,-24,-185,-87
-4,9,14,-2,-9,12,-117,24,68,-29,-190,-87
-19,4,24,7,-21,14,-126,24,73,-34,-190,-87
-19,19,39,0,-29,29,-126,19,73,-34,-190,-87
-19,19,39,0,-29,29,-126,19,73,-24,-170,-82
-14,24,39,-4,-26,31,-126,19,73,-19,-170,-78
-9,39,48,-14,-29,43,-122,29,82,-14,-175,-68
-9,43,53,-17,-31,48,-126,34,87,-9,-175,-68
-19,48,68,-14,-43,58,-122,39,92,0,-170,-68
-29,53,82,-12,-56,68,-122,43,102,4,-170,-68
-29,48,78,-9,-53,63,-131,39,92,-4,-170,-73
-29,48,78,-9,-53,63,-126,39,87,-4,-165,-73
-29,43,73,-7,-51,58,-112,34,82,4,-165,-73
-34,43,78,-4,-56,61,-112,29,78,4,-165,-68
-34,48,82,-7,-58,65,-112,34,87,4,-170,-68
-29,53,82,-12,-56,68,-117,34,87,9,-170,-68
-24,48,73,-12,-48,61,-122,34,92,9,-170,-78
-19,48,68,-14,-43,58,-122,34,92,9,-175,-78
-19,43,63,-12,-41,53,-126,39,102,9,-165,-68
-14,43,58,-14,-36,51,-126,34,92,4,-165,-68
-4,39,43,-17,-24,41,-126,34,92,4,-161,-68
-4,39,43,-17,-24,41,-126,29,87,9,-165,-68
-9,34,43,-12,-26,39,-131,29,73,-14,-170,-68
-9,24,34,-7,-21,29,-131,29,68,-24,-170,-68
-19,19,39,0,-29,29,-136,14,58,-29,-180,-68
-24,19,43,2,-34,31,-136,14,53,-43,-195,-73
-14,9,24,2,-19,17,-146,-9,24,-43,-204,-78
-14,0,14,7,-14,7,-146,-9,19,-53,-209,-78
-14,0,14,7,-14,7,-146,-14,9,-58,-209,-78
-14,0,14,7,-14,7,-151,-14,4,-63,-214,-82
-14,0,14,7,-14,7,-146,-14,0,-82,-229,-87
-19,0,19,9,-19,9,-151,-19,0,-87,-229,-92
-24,0,24,12,-24,12,-156,-19,-9,-87,-224,-92
-19,4,24,7,-21,14,-156,-19,0,-87,-219,-87
-19,9,29,4,-24,19,-165,-19,0,-82,-219,-78
-24,9,34,7,-29,21,-165,-14,0,-78,-219,-78
-34,4,39,14,-36,21,-165,-14,0,-73,-224,-78
-34,-4,29,19,-31,12,-161,-19,0,-68,-224,-78
-19,4,24,7,-21,14,-141,-29,-4,-73,-209,-78
-9,4,14,2,-12,9,-141,-24,-9,-78,-209,-78
0,-4,-4,2,2,-4,-146,-24,-14,-82,-219,-82
0,-4,-4,2,2,-4,-146,-24,-19,-92,-224,-82
4,9,4,-7,0,7,-151,-24,-9,-97,-234,-82
0,9,9,-4,-4,9,-141,-19,-4,-107,-234,-87
-14,9,24,2,-19,17,-141,-19,-4,-112,-239,-87
-29,4,34,12,-31,19,-146,-19,-4,-117,-244,-92
-48,0,48,24,-48,24,-131,-9,4,-107,-239,-92
-48,0,48,24,-48,24,-122,-9,4,-97,-234,-92
-48,-9,39,29,-43,14,-107,0,4,-82,-229,-97
-48,-9,39,29,-43,14,-102,0,4,-73,-224,-97
-58,-19,39,39,-48,9,-112,0,4,-78,-234,-107
-43,-19,24,31,-34,2,-102,0,9,-78,-239,-107
-43,-19,24,31,-34,2,-97,9,19,-82,-244,-107
-43,-24,19,34,-31,-2,-97,9,19,-97,-258,-117
-39,-34,4,36,-21,-14,-92,9,9,-97,-258,-126
-43,-39,4,41,-24,-17,-92,9,0,-107,-258,-131
-43,-39,4,41,-24,-17,-92,9,0,-112,-263,-136
-39,-43,-4,41,-17,-24,-92,4,0,-117,-263,-141
-34,-43,-9,39,-12,-26,-112,-4,-4,-117,-273,-146
-34,-53,-19,43,-7,-36,-112,0,-4,-117,-278,-146
-29,-43,-14,36,-7,-29,-102,0,0,-117,-278,-151
-29,-43,-14,36,-7,-29,-102,0,0,-112,-273,-151
-48,-68,-19,58,-14,-43,-102,9,0,-117,-283,-146
-34,-68,-34,51,0,-51,-102,9,0,-126,-283,-151
-34,-58,-24,46,-4,-41,-102,9,4,-131,-287,-151
-34,-58,-24,46,-4,-41,-97,9,4,-141,-297,-151
-34,-53,-19,43,-7,-36,-97,9,-9,-141,-297,-161
-29,-63,-34,46,2,-48,-102,4,-14,-141,-292,-165
-29,-63,-34,46,2,-48,-102,-4,-19,-141,-292,-170
-34,-58,-24,46,-4,-41,-102,-9,-29,-141,-292,-175
-19,-48,-29,34,4,-39,-92,0,-24,-122,-283,-170
-19,-48,-29,34,4,-39,-92,0,-19,-117,-287,-165
-24,-48,-24,36,0,-36,-87,4,-9,-112,-287,-165
-24,-48,-24,36,0,-36,-87,4,-4,-107,-287,-170
-19,-68,-48,43,14,-58,-92,4,-9,-117,-283,-165
-19,-68,-48,43,14,-58,-92,0,-9,-117,-283,-161
-29,-68,-39,48,4,-53,-97,0,-9,-117,-278,-156
-29,-68,-39,48,4,-53,-97,-4,-9,-122,-278,-151
-9,-39,-29,24,9,-34,-87,4,-4,-112,-268,-141
-14,-39,-24,26,4,-31,-87,14,-4,-112,-273,-151
-34,-68,-34,51,0,-51,-97,-4,-14,-122,-297,-165
-43,-68,-24,56,-9,-46,-97,-9,-14,-131,-312,-180
-43,-43,0,43,-21,-21,-87,-9,-4,-117,-312,-190
-43,-24,19,34,-31,-2,-87,-9,4,-117,-331,-190
-53,-9,43,31,-48,17,-87,-14,0,-102,-317,-175
-63,-4,58,34,-61,26,-87,-9,9,-43,-253,-141
-53,39,92,7,-73,65,-112,-19,-4,53,-141,-63
-43,87,131,-21,-87,109,-122,-39,-4,136,0,68
-48,131,180,-41,-114,156,-131,-34,19,219,165,214
4,229,224,-117,-109,226,-151,-39,53,341,366,366
68,336,268,-202,-100,302,-190,-48,73,483,610,575
107,419,312,-263,-102,366,-229,-63,43,600,936,858
161,512,351,-336,-95,431,-268,-87,-4,707,1288,1161
239,575,336,-407,-48,456,-336,-136,-87,800,1615,1454
331,653,322,-492,4,488,-390,-185,-170,893,1888,1712
409,683,273,-546,68,478,-439,-200,-248,985,2000,1820
468,639,170,-553,148,405,-492,-214,-292,1000,1893,1776
488,546,58,-517,214,302,-522,-229,-341,917,1659,1634
463,395,-68,-429,265,163,-517,-239,-414,712,1288,1385
429,229,-200,-329,314,14,-473,-234,-468,517,878,1024
366,107,-258,-236,312,-75,-429,-263,-507,307,497,658
258,14,-244,-136,251,-114,-414,-336,-614,-122,92,395
136,-53,-190,-41,163,-122,-375,-390,-736,-580,-258,204
48,-112,-161,31,104,-136,-326,-361,-727,-829,-522,39
-14,-141,-126,78,56,-134,-287,-302,-653,-932,-702,-102
-48,-126,-78,87,14,-102,-283,-283,-590,-917,-775,-180
-39,-92,-53,65,7,-73,-258,-224,-502,-795,-717,-214
-29,-97,-68,63,19,-82,-214,-151,-380,-668,-629,-224
-24,-112,-87,68,31,-100,-180,-78,-268,-570,-575,-224
-19,-126,-107,73,43,-117,-141,-24,-161,-473,-517,-234
-14,-146,-131,80,58,-139,-97,43,-68,-380,-463,-253
4,-156,-161,75,82,-158,-63,87,-19,-292,-419,-244
4,-165,-170,80,87,-168,-43,102,14,-224,-380,-219
4,-161,-165,78,85,-163,-34,112,34,-175,-336,-224
14,-122,-136,53,75,-129,-53,97,34,-141,-297,-209
34,-97,-131,31,82,-114,-73,82,34,-117,-278,-175
43,-82,-126,19,85,-104,-78,68,29,-107,-268,-165
19,-68,-87,24,53,-78,-78,58,34,-107,-263,-156
4,-58,-63,26,34,-61,-82,53,39,-107,-283,-156
-4,-53,-48,29,21,-51,-78,53,43,-102,-278,-151
-14,-43,-29,29,7,-36,-73,58,48,-102,-258,-141
-14,-39,-24,26,4,-31,-78,43,39,-97,-248,-141
-19,-39,-19,29,0,-29,-78,39,29,-82,-248,-136
-24,-43,-19,34,-2,-31,-78,29,24,-78,-248,-136
-29,-43,-14,36,-7,-29,-82,24,24,-68,-248,-141
-19,-48,-29,34,4,-39,-82,19,29,-73,-244,-151
9,-48,-58,19,34,-53,-82,19,24,-73,-239,-141
29,-48,-78,9,53,-63,-82,19,24,-78,-253,-141
24,-39,-63,7,43,-51,-82,14,24,-82,-258,-141
4,-39,-43,17,24,-41,-92,14,14,-78,-258,-151
4,-43,-48,19,26,-46,-92,4,9,-78,-248,-151
9,-43,-53,17,31,-48,-92,19,9,-73,-248,-146
19,-29,-48,4,34,-39,-92,9,14,-63,-234,-141
39,-39,-78,0,58,-58,-97,0,4,-68,-244,-146
48,-39,-87,-4,68,-63,-97,0,9,-73,-253,-151
48,-29,-78,-9,63,-53,-102,9,9,-78,-244,-156
68,-29,-97,-19,82,-63,-107,0,9,-82,-239,-161
68,-43,-112,-12,90,-78,-102,0,-4,-82,-248,-151
68,-39,-107,-14,87,-73,-107,0,-4,-82,-248,-151
63,-29,-92,-17,78,-61,-107,-4,-4,-82,-244,-151
63,-24,-87,-19,75,-56,-107,-4,-4,-82,-244,-146
63,-14,-78,-24,70,-46,-97,4,9,-78,-234,-141
53,-14,-68,-19,61,-41,-92,9,9,-68,-234,-141
43,-14,-58,-14,51,-36,-92,14,19,-58,-229,-136
34,-19,-53,-7,43,-36,-92,19,24,-53,-214,-136
39,-19,-58,-9,48,-39,-97,19,14,-63,-209,-136
43,-19,-63,-12,53,-41,-102,14,14,-63,-214,-136
48,-19,-68,-14,58,-43,-107,14,0,-68,-214,-136
53,-19,-73,-17,63,-46,-112,9,0,-68,-209,-136
43,-29,-73,-7,58,-51,-107,9,-4,-68,-209,-126
43,-39,-82,-2,63,-61,-107,9,-9,-58,-200,-126
43,-39,-82,-2,63,-61,-107,9,4,-43,-190,-126
53,-39,-92,-7,73,-65,-107,9,24,-34,-185,-107
53,-39,-92,-7,73,-65,-97,24,34,-29,-170,-117
58,-9,-68,-24,63,-39,-97,24,29,-19,-170,-107
58,-24,-82,-17,70,-53,-97,24,29,-4,-185,-102
48,-24,-73,-12,61,-48,-97,24,39,0,-170,-102
29,-43,-73,7,51,-58,-87,29,48,4,-151,-97
29,-34,-63,2,46,-48,-87,29,43,14,-141,-87
24,-34,-58,4,41,-46,-87,34,43,24,-136,-82
24,-34,-58,4,41,-46,-87,43,48,29,-126,-78
43,-34,-78,-4,61,-56,-102,34,43,24,-136,-82
58,-29,-87,-14,73,-58,-107,29,39,24,-131,-87
82,-29,-112,-26,97,-70,-112,24,29,29,-131,-82
97,-29,-126,-34,112,-78,-117,19,9,24,-117,-82
102,-19,-122,-41,112,-70,-117,19,19,39,-122,-78
97,-19,-117,-39,107,-68,-122,19,19,43,-107,-78
97,-19,-117,-39,107,-68,-122,24,24,48,-97,-63
102,-14,-117,-43,109,-65,-122,24,39,48,-82,-58
112,-4,-117,-53,114,-61,-122,34,58,39,-73,-58
117,-9,-126,-53,122,-68,-122,34,53,58,-58,-58
112,-19,-131,-46,122,-75,-122,29,43,58,-48,-58
112,-24,-136,-43,124,-80,-122,29,34,58,-39,-48
112,-24,-136,-43,124,-80,-117,29,43,78,-34,-39
112,-14,-126,-48,119,-70,-126,34,43,97,-29,-39
136,-14,-151,-61,143,-82,-131,34,39,102,-9,-29
122,-14,-136,-53,129,-75,-131,34,39,102,-4,-29
131,-14,-146,-58,139,-80,-122,34,58,117,19,-19
122,-19,-141,-51,131,-80,-131,34,43,117,34,-14
122,-19,-141,-51,131,-80,-136,39,43,122,43,-4
136,-19,-156,-58,146,-87,-136,39,48,126,53,9
156,-9,-165,-73,161,-87,-136,43,48,141,58,14
165,4,-161,-85,163,-78,-136,43,58,141,68,19
165,-4,-170,-80,168,-87,-136,48,58,146,68,19
156,-14,-170,-70,163,-92,-136,48,58,141,63,14
156,-14,-170,-70,163,-92,-156,39,48,151,78,14
175,-9,-185,-82,180,-97,-156,39,58,161,97,29
190,0,-190,-95,190,-95,-151,39,58,161,102,34
195,-9,-204,-92,200,-107,-151,34,58,161,107,34
200,-9,-209,-95,204,-109,-161,34,39,156,107,34
200,-9,-209,-95,204,-109,-165,29,34,156,107,34
200,0,-200,-100,200,-100,-165,29,34,161,97,34
185,-9,-195,-87,190,-102,-165,29,34,161,97,34
170,-19,-190,-75,180,-104,-170,34,34,170,112,34
200,-9,-209,-95,204,-109,-170,34,34,170,112,34
214,0,-214,-107,214,-107,-165,34,34,170,107,34
204,-14,-219,-95,212,-117,-161,29,34,156,97,29
200,-14,-214,-92,207,-114,-170,29,24,156,97,29
200,-14,-214,-92,207,-114,-175,19,24,156,82,29
209,-9,-219,-100,214,-114,-175,19,29,156,82,29
200,-9,-209,-95,204,-109,-170,24,29,156,82,29
185,-19,-204,-82,195,-112,-161,34,39,161,87,24
165,-24,-190,-70,178,-107,-161,29,34,161,82,19
170,-24,-195,-73,183,-109,-165,29,34,161,63,19
161,-19,-180,-70,170,-100,-170,29,24,156,58,19
170,-9,-180,-80,175,-95,-190,14,4,156,43,0
170,-14,-185,-78,178,-100,-180,14,0,146,39,-4
175,-29,-204,-73,190,-117,-175,14,-4,136,29,-4
180,-29,-209,-75,195,-119,-175,14,-4,136,14,-4
200,-19,-219,-90,209,-119,-180,14,-4,126,14,-14
209,-19,-229,-95,219,-124,-180,14,-4,122,14,-14
209,-19,-229,-95,219,-124,-170,14,-4,102,14,-14
209,-9,-219,-100,214,-114,-170,4,-4,97,14,-14
185,-19,-204,-82,195,-112,-170,4,-4,87,0,-14
185,-19,-204,-82,195,-112,-175,9,-9,82,-14,-14
185,-24,-209,-80,197,-117,-175,9,-9,73,-14,-14
185,-24,-209,-80,197,-117,-180,9,-19,68,-14,-14
161,-34,-195,-63,178,-114,-175,9,-14,63,-29,-19
190,-29,-219,-80,204,-124,-180,4,-14,53,-29,-19
195,-29,-224,-82,209,-126,-180,0,-14,48,-34,-19
195,-29,-224,-82,209,-126,-175,0,-19,43,-39,-19
185,-14,-200,-85,192,-107,-175,-4,-19,29,-53,-24
161,-24,-185,-68,173,-104,-175,-9,-34,29,-63,-19
165,-19,-185,-73,175,-102,-175,-4,-34,24,-78,-14
165,-9,-175,-78,170,-92,-175,0,-29,9,-87,-9
161,-19,-180,-70,170,-100,-165,-4,-39,9,-92,-19
165,-9,-175,-78,170,-92,-161,-4,-39,14,-102,-19
170,-9,-180,-80,175,-95,-156,-4,-39,4,-112,-29
151,-9,-161,-70,156,-85,-156,-9,-39,-9,-126,-29
146,-4,-151,-70,148,-78,-156,-19,-39,-19,-131,-39
146,0,-146,-73,146,-73,-151,-19,-39,-19,-141,-43
141,0,-141,-70,141,-70,-146,-24,-39,-34,-151,-43
126,0,-126,-63,126,-63,-141,-24,-53,-39,-165,-43
112,0,-112,-56,112,-56,-141,-24,-58,-58,-170,-53
107,0,-107,-53,107,-53,-141,-24,-68,-58,-175,-68
102,0,-102,-51,102,-51,-141,-14,-43,-58,-190,-73
97,-4,-102,-46,100,-53,-141,-14,-43,-68,-204,-78
92,-14,-107,-39,100,-61,-146,-24,-48,-82,-224,-87
92,-4,-97,-43,95,-51,-141,-19,-63,-82,-229,-97
102,0,-102,-51,102,-51,-141,-19,-63,-87,-234,-97
112,0,-112,-56,112,-56,-141,-24,-58,-87,-239,-102
107,-9,-117,-48,112,-63,-131,-14,-53,-87,-229,-102
97,-19,-117,-39,107,-68,-126,-14,-48,-97,-234,-102
87,-19,-107,-34,97,-63,-126,-19,-34,-97,-248,-107
82,-14,-97,-34,90,-56,-122,-19,-48,-102,-258,-117
97,-9,-107,-43,102,-58,-122,-29,-53,-102,-268,-131
97,-9,-107,-43,102,-58,-122,-29,-53,-102,-268,-136
97,-9,-107,-43,102,-58,-122,-29,-58,-102,-273,-136
97,-9,-107,-43,102,-58,-122,-29,-58,-102,-283,-136
82,-14,-97,-34,90,-56,-122,-29,-58,-102,-273,-136
78,-24,-102,-26,90,-63,-122,-24,-53,-102,-273,-136
82,-24,-107,-29,95,-65,-122,-24,-48,-107,-278,-146
78,-24,-102,-26,90,-63,-126,-29,-53,-117,-287,-151
73,-34,-107,-19,90,-70,-126,-29,-63,-126,-312,-151
73,-34,-107,-19,90,-70,-122,-24,-63,-117,-302,-151
68,-34,-102,-17,85,-68,-117,-24,-63,-117,-292,-151
73,-39,-112,-17,92,-75,-117,-24,-68,-117,-292,-156
73,-29,-102,-21,87,-65,-117,-19,-63,-117,-292,-156
87,-29,-117,-29,102,-73,-117,-19,-58,-112,-292,-146
78,-39,-117,-19,97,-78,-122,-19,-58,-112,-292,-156
63,-39,-102,-12,82,-70,-122,-19,-53,-112,-292,-165
78,-29,-107,-24,92,-68,-117,-19,-58,-102,-302,-175
78,-34,-112,-21,95,-73,-117,-14,-63,-107,-312,-175
78,-43,-122,-17,100,-82,-122,-14,-68,-107,-326,-180
78,-48,-126,-14,102,-87,-126,-19,-63,-107,-336,-180
78,-43,-122,-17,100,-82,-126,-24,-63,-112,-331,-175
63,-43,-107,-9,85,-75,-126,-29,-68,-117,-326,-180
63,-58,-122,-2,92,-90,-126,-34,-73,-122,-322,-185
63,-58,-122,-2,92,-90,-126,-34,-78,-131,-317,-195
68,-53,-122,-7,95,-87,-136,-34,-63,-131,-331,-190
63,-53,-117,-4,90,-85,-136,-34,-78,-141,-336,-195
63,-48,-112,-7,87,-80,-136,-39,-78,-141,-326,-195
68,-48,-117,-9,92,-82,-136,-39,-73,-141,-331,-190
63,-43,-107,-9,85,-75,-131,-34,-63,-117,-331,-185
58,-43,-102,-7,80,-73,-126,-29,-63,-112,-326,-185
48,-43,-92,-2,70,-68,-117,-24,-63,-112,-322,-185
43,-43,-87,0,65,-65,-112,-14,-63,-112,-322,-185
43,-48,-92,2,68,-70,-112,-24,-53,-122,-331,-175
39,-48,-87,4,63,-68,-112,-24,-43,-122,-331,-185
39,-58,-97,9,68,-78,-122,-24,-58,-117,-326,-190
48,-48,-97,0,73,-73,-122,-29,-63,-117,-326,-195
68,-48,-117,-9,92,-82,-122,-19,-53,-107,-322,-190
68,-48,-117,-9,92,-82,-122,-14,-43,-102,-326,-185
58,-48,-107,-4,82,-78,-117,-14,-43,-92,-322,-180
58,-48,-107,-4,82,-78,-117,-14,-43,-92,-292,-175
53,-39,-92,-7,73,-65,-117,-19,-43,-92,-302,-175
48,-39,-87,-4,68,-63,-112,-19,-43,-92,-307,-175
48,-43,-92,-2,70,-68,-112,-19,-34,-92,-317,-165
53,-43,-97,-4,75,-70,-107,-19,-34,-92,-317,-165
39,-43,-82,2,61,-63,-102,-19,-48,-92,-302,-156
34,-43,-78,4,56,-61,-102,-14,-48,-87,-297,-156
34,-53,-87,9,61,-70,-107,-14,-39,-78,-283,-151
34,-43,-78,4,56,-61,-112,-9,-39,-78,-278,-151
19,-29,-48,4,34,-39,-112,0,-34,-78,-273,-151
29,-29,-58,0,43,-43,-107,0,-29,-73,-268,-146
43,-24,-68,-9,56,-46,-107,0,-24,-63,-263,-141
39,-24,-63,-7,51,-43,-102,0,-19,-53,-263,-131
48,-24,-73,-12,61,-48,-112,-4,-9,-63,-263,-122
43,-29,-73,-7,58,-51,-112,-4,-9,-63,-263,-131
29,-29,-58,0,43,-43,-112,0,-14,-63,-248,-131
24,-24,-48,0,36,-36,-117,0,-19,-53,-244,-131
24,-34,-58,4,41,-46,-117,0,-19,-43,-234,-131
24,-34,-58,4,41,-46,-112,4,-9,-39,-234,-122
24,-29,-53,2,39,-41,-102,9,-4,-39,-229,-112
24,-14,-39,-4,31,-26,-102,9,-4,-39,-224,-107
14,-14,-29,0,21,-21,-92,19,-4,-29,-214,-97
14,-29,-43,7,29,-36,-97,19,-4,-29,-224,-92
14,-29,-43,7,29,-36,-107,4,-9,-29,-224,-92
19,-24,-43,2,31,-34,-107,14,-9,-24,-214,-97
14,-14,-29,0,21,-21,-97,14,0,-34,-209,-87
14,-14,-29,0,21,-21,-97,14,-4,-24,-204,-87
14,-14,-29,0,21,-21,-97,14,-4,-24,-200,-78
19,-9,-29,-4,24,-19,-92,19,0,-24,-195,-73
9,-9,-19,0,14,-14,-87,19,0,-9,-200,-73
24,0,-24,-12,24,-12,-87,9,-4,-9,-200,-78
34,-4,-39,-14,36,-21,-87,9,-4,-9,-204,-87
29,-9,-39,-9,34,-24,-87,9,0,-9,-195,-78
24,-9,-34,-7,29,-21,-87,19,9,-9,-185,-78
19,-9,-29,-4,24,-19,-87,19,9,-9,-185,-78
14,-9,-24,-2,19,-17,-87,19,9,-9,-185,-78
9,-9,-19,0,14,-14,-87,19,9,-9,-185,-78
14,0,-14,-7,14,-7,-97,19,4,-9,-195,-73
29,-9,-39,-9,34,-24,-97,14,4,-14,-195,-68
