I,II,III,aVR,aVL,aVF,V1,V2,V3,V4,V5,V6
19,-19,-39,0,29,-29,390,185,-58,-87,165,39
19,-19,-39,0,29,-29,390,185,-58,-87,165,39
19,-19,-39,0,29,-29,390,185,-58,-87,165,39
19,-19,-39,0,29,-29,390,185,-58,-87,165,39
4,-24,-29,9,17,-26,400,195,-58,-97,156,34
0,-29,-29,14,14,-29,400,195,-58,-107,156,29
-4,-34,-29,19,12,-31,400,195,-58,-117,156,24
-9,-39,-29,24,9,-34,400,195,-58,-126,156,19
-9,-39,-29,24,9,-34,409,200,-53,-136,146,19
-9,-39,-29,24,9,-34,409,204,-48,-136,146,19
-9,-39,-29,24,9,-34,409,209,-43,-136,146,19
-9,-39,-29,24,9,-34,409,214,-39,-136,146,19
-9,-39,-29,24,9,-34,400,214,-48,-151,146,19
-9,-39,-29,24,9,-34,390,214,-48,-156,146,19
-9,-39,-29,24,9,-34,380,214,-48,-161,146,19
-9,-39,-29,24,9,-34,370,214,-48,-165,146,19
-9,-29,-19,19,4,-24,375,214,-48,-175,141,9
-9,-29,-19,19,4,-24,380,214,-48,-175,136,9
-9,-29,-19,19,4,-24,385,214,-48,-175,131,9
-9,-29,-19,19,4,-24,390,214,-48,-175,126,9
-19,-39,-19,29,0,-29,380,219,-43,-180,141,9
-19,-39,-19,29,0,-29,370,224,-39,-185,146,9
-19,-39,-19,29,0,-29,361,229,-34,-190,151,9
-19,-39,-19,29,0,-29,351,234,-29,-195,156,9
-19,-43,-24,31,2,-34,366,234,-39,-204,151,9
-19,-48,-29,34,4,-39,380,234,-39,-204,146,9
-19,-53,-34,36,7,-43,395,234,-39,-204,141,9
-19,-58,-39,39,9,-48,409,234,-39,-204,136,9
-29,-58,-29,43,0,-43,429,244,-39,-234,136,9
-29,-48,-19,39,-4,-34,429,244,-39,-244,146,0
-19,-39,-19,29,0,-29,429,234,-29,-224,136,9
-29,-29,0,29,-14,-14,429,234,-19,-224,136,19
-68,-29,39,48,-53,4,429,234,-9,-234,117,9
-87,-39,48,63,-68,4,439,244,0,-253,97,-9
-87,-9,78,48,-82,34,458,253,29,-263,87,-19
-97,19,117,39,-107,68,488,263,58,-263,78,-9
-117,9,126,53,-122,68,488,283,48,-292,68,-19
-126,0,126,63,-126,63,468,283,29,-322,48,-19
-117,19,136,48,-126,78,497,283,29,-322,48,-9
-107,39,146,34,-126,92,517,283,39,-312,78,9
-117,39,156,39,-136,97,507,292,58,-273,107,39
-107,68,175,19,-141,122,517,312,97,-204,156,68
-68,107,175,-19,-122,141,507,331,146,-146,195,97
-39,156,195,-58,-117,175,497,351,204,-78,253,146
-19,185,204,-82,-112,195,507,370,244,0,322,204
9,204,195,-107,-92,200,497,380,263,39,400,273
58,224,165,-141,-53,195,468,370,253,97,488,341
117,283,165,-200,-24,224,439,322,204,156,585,419
204,322,117,-263,43,219,409,253,126,185,692,507
292,341,48,-317,122,195,390,195,58,214,790,595
370,331,-39,-351,204,146,351,175,29,263,878,663
439,273,-165,-356,302,53,331,195,29,331,956,702
517,165,-351,-341,434,-92,361,224,39,390,1015,722
566,78,-488,-322,527,-204,370,224,29,400,1044,741
595,0,-595,-297,595,-297,400,244,19,341,1024,722
595,-97,-692,-248,644,-395,429,273,9,185,907,653
566,-185,-751,-190,658,-468,419,292,-19,-87,692,517
507,-263,-771,-122,639,-517,429,312,-9,-361,448,370
448,-302,-751,-73,600,-527,429,341,9,-527,253,253
429,-302,-732,-63,580,-517,400,331,-9,-595,126,195
409,-292,-702,-58,556,-497,400,312,-19,-614,39,146
351,-302,-653,-24,502,-478,429,341,29,-624,-19,97
283,-292,-575,4,429,-434,439,390,97,-605,-48,58
214,-263,-478,24,346,-370,478,429,175,-527,-39,19
146,-234,-380,43,263,-307,527,478,273,-458,-39,-9
97,-224,-322,63,209,-273,566,536,370,-429,-39,-39
78,-214,-292,68,185,-253,614,605,439,-409,-39,-58
29,-195,-224,82,126,-209,663,653,458,-409,-39,-58
-48,-195,-146,122,48,-170,692,673,409,-439,-58,-78
-78,-195,-117,136,19,-156,732,722,380,-429,-68,-87
-97,-175,-78,136,-9,-126,751,780,400,-429,-68,-78
-136,-175,-39,156,-48,-107,761,839,419,-419,-58,-78
-146,-185,-39,165,-53,-112,780,897,400,-429,-68,-87
-156,-185,-29,170,-63,-107,800,927,341,-439,-78,-97
-146,-195,-48,170,-48,-122,839,976,302,-448,-87,-97
-156,-195,-39,175,-58,-117,868,1044,312,-468,-97,-107
-165,-195,-29,180,-68,-112,868,1083,283,-497,-117,-117
-175,-195,-19,185,-78,-107,858,1102,244,-488,-117,-117
-185,-195,-9,190,-87,-102,878,1112,204,-488,-117,-117
-185,-204,-19,195,-82,-112,897,1122,156,-507,-117,-107
-195,-214,-19,204,-87,-117,917,1132,136,-497,-117,-97
-204,-224,-19,214,-92,-122,936,1141,126,-488,-117,-97
-204,-214,-9,209,-97,-112,976,1161,136,-468,-107,-87
-185,-185,0,185,-92,-92,985,1161,165,-448,-97,-87
-185,-175,9,180,-97,-82,995,1161,185,-439,-97,-78
-195,-175,19,185,-107,-78,1024,1122,175,-439,-97,-68
-214,-185,29,200,-122,-78,1054,1063,156,-439,-107,-68
-214,-185,29,200,-122,-78,1024,1005,117,-439,-97,-68
-214,-185,29,200,-122,-78,966,917,87,-429,-87,-58
-204,-156,48,180,-126,-53,878,810,58,-409,-68,-39
-185,-126,58,156,-122,-34,829,741,29,-390,-48,-19
-156,-107,48,131,-102,-29,810,673,-9,-380,-29,-9
-146,-107,39,126,-92,-34,771,585,-48,-380,-29,0
-136,-87,48,112,-92,-19,692,458,-97,-380,-19,19
-107,-68,39,87,-73,-14,624,370,-117,-351,0,48
-97,-58,39,78,-68,-9,575,312,-117,-331,19,68
-107,-58,48,82,-78,-4,546,263,-117,-341,29,78
-92,-48,43,70,-68,-2,546,253,-102,-336,34,87
-87,-48,39,68,-63,-4,546,253,-97,-331,39,87
-82,-48,34,65,-58,-7,546,253,-92,-326,43,87
-78,-48,29,63,-53,-9,546,253,-87,-322,48,87
-73,-48,24,61,-48,-12,546,244,-97,-312,63,97
-68,-48,19,58,-43,-14,546,244,-97,-312,68,97
-63,-48,14,56,-39,-17,546,244,-97,-312,73,97
-58,-48,9,53,-34,-19,546,244,-97,-312,78,97
-48,-48,0,48,-24,-24,556,229,-87,-312,87,97
-48,-48,0,48,-24,-24,556,224,-87,-312,87,97
-48,-48,0,48,-24,-24,556,219,-87,-312,87,97
-48,-48,0,48,-24,-24,556,214,-87,-312,87,97
-43,-43,0,43,-21,-21,566,209,-97,-302,97,87
-39,-39,0,39,-19,-19,566,204,-97,-302,97,87
-34,-34,0,34,-17,-17,566,200,-97,-302,97,87
-29,-29,0,29,-14,-14,566,195,-97,-302,97,87
-39,-19,19,29,-29,0,580,185,-107,-312,97,87
-39,-19,19,29,-29,0,585,185,-107,-312,97,87
-39,-19,19,29,-29,0,590,185,-107,-312,97,87
-39,-19,19,29,-29,0,595,185,-107,-312,97,87
-39,-19,19,29,-29,0,605,180,-107,-312,87,78
-39,-19,19,29,-29,0,614,175,-107,-312,87,78
-39,-19,19,29,-29,0,624,170,-107,-312,87,78
-39,-19,19,29,-29,0,634,165,-107,-312,87,78
-48,-29,19,39,-34,-4,624,165,-112,-322,97,78
-48,-29,19,39,-34,-4,624,165,-117,-322,97,78
-48,-29,19,39,-34,-4,624,165,-122,-322,97,78
-48,-29,19,39,-34,-4,624,165,-126,-322,97,78
-58,-39,19,48,-39,-9,634,156,-136,-322,107,68
-58,-39,19,48,-39,-9,634,156,-136,-322,107,68
-58,-39,19,48,-39,-9,634,156,-136,-322,107,68
-58,-39,19,48,-39,-9,634,156,-136,-322,107,68
-48,-29,19,39,-34,-4,639,156,-136,-331,107,78
-48,-29,19,39,-34,-4,644,156,-136,-331,107,78
-48,-29,19,39,-34,-4,649,156,-136,-331,107,78
-48,-29,19,39,-34,-4,653,156,-136,-331,107,78
-53,-29,24,41,-39,-2,649,151,-136,-341,107,82
-58,-29,29,43,-43,0,644,146,-136,-341,107,87
-63,-29,34,46,-48,2,639,141,-136,-341,107,92
-68,-29,39,48,-53,4,634,136,-136,-341,107,97
-58,-29,29,43,-43,0,624,126,-146,-346,107,107
-58,-29,29,43,-43,0,624,126,-146,-351,107,107
-58,-29,29,43,-43,0,624,126,-146,-356,107,107
-58,-29,29,43,-43,0,624,126,-146,-361,107,107
-58,-19,39,39,-48,9,634,117,-151,-366,107,107
-58,-19,39,39,-48,9,634,117,-156,-370,107,107
-58,-19,39,39,-48,9,634,117,-161,-375,107,107
-58,-19,39,39,-48,9,634,117,-165,-380,107,107
-68,-19,48,43,-58,14,619,102,-170,-390,97,97
-68,-19,48,43,-58,14,605,97,-175,-400,97,97
-68,-19,48,43,-58,14,590,92,-180,-409,97,97
-68,-19,48,43,-58,14,575,87,-185,-419,97,97
-63,-9,53,36,-58,21,551,78,-190,-434,97,97
-58,-9,48,34,-53,19,536,78,-195,-439,97,97
-53,-9,43,31,-48,17,522,78,-200,-444,97,97
-48,-9,39,29,-43,14,507,78,-204,-448,97,97
-53,-9,43,31,-48,17,488,63,-219,-463,87,87
-58,-9,48,34,-53,19,478,58,-224,-468,87,87
-63,-9,53,36,-58,21,468,53,-229,-473,87,87
-68,-9,58,39,-63,24,458,48,-234,-478,87,87
-68,-9,58,39,-63,24,439,39,-248,-488,78,78
-68,-9,58,39,-63,24,429,39,-253,-488,78,78
-68,-9,58,39,-63,24,419,39,-258,-488,78,78
-68,-9,58,39,-63,24,409,39,-263,-488,78,78
-78,-9,68,43,-73,29,390,34,-268,-502,78,78
-78,-9,68,43,-73,29,380,29,-273,-507,78,78
-78,-9,68,43,-73,29,370,24,-278,-512,78,78
-78,-9,68,43,-73,29,361,19,-283,-517,78,78
-78,0,78,39,-78,39,351,4,-292,-522,68,68
-78,0,78,39,-78,39,341,0,-302,-527,68,68
-78,0,78,39,-78,39,331,-4,-312,-531,68,68
-78,0,78,39,-78,39,322,-9,-322,-536,68,68
-68,14,82,26,-75,48,307,-14,-326,-551,78,78
-68,19,87,24,-78,53,302,-19,-331,-556,78,78
-68,24,92,21,-80,58,297,-24,-336,-561,78,78
-68,29,97,19,-82,63,292,-29,-341,-566,78,78
-63,39,102,12,-82,70,307,-39,-346,-575,78,78
-58,39,97,9,-78,68,312,-39,-351,-575,78,78
-53,39,92,7,-73,65,317,-39,-356,-575,78,78
-48,39,87,4,-68,63,322,-39,-361,-575,78,78
-48,29,78,9,-63,53,331,-39,-370,-585,82,87
-48,29,78,9,-63,53,341,-39,-370,-585,87,87
-48,29,78,9,-63,53,351,-39,-370,-585,92,87
-48,29,78,9,-63,53,361,-39,-370,-585,97,87
-39,29,68,4,-53,48,366,-48,-380,-580,97,97
-39,29,68,4,-53,48,370,-48,-380,-575,97,97
-39,29,68,4,-53,48,375,-48,-380,-570,97,97
-39,29,68,4,-53,48,380,-48,-380,-566,97,97
-29,39,68,-4,-48,53,390,-34,-375,-561,102,107
-29,39,68,-4,-48,53,390,-29,-370,-556,107,107
-29,39,68,-4,-48,53,390,-24,-366,-551,112,107
-29,39,68,-4,-48,53,390,-19,-361,-546,117,107
-19,29,48,-4,-34,39,405,-14,-346,-536,131,112
-19,29,48,-4,-34,39,419,-9,-341,-527,136,117
-19,29,48,-4,-34,39,434,-4,-336,-517,141,122
-19,29,48,-4,-34,39,448,0,-331,-507,146,126
-9,24,34,-7,-21,29,463,4,-326,-502,146,136
-9,19,29,-4,-19,24,468,9,-322,-497,146,136
-9,14,24,-2,-17,19,473,14,-317,-492,146,136
-9,9,19,0,-14,14,478,19,-312,-488,146,136
0,19,19,-9,-9,19,483,34,-302,-483,146,146
0,19,19,-9,-9,19,488,39,-292,-478,146,146
0,19,19,-9,-9,19,492,43,-283,-473,146,146
0,19,19,-9,-9,19,497,48,-273,-468,146,146
0,9,9,-4,-4,9,512,63,-263,-453,156,151
0,9,9,-4,-4,9,517,68,-253,-448,156,156
0,9,9,-4,-4,9,522,73,-244,-444,156,161
0,9,9,-4,-4,9,527,78,-234,-439,156,165
0,9,9,-4,-4,9,546,87,-209,-429,165,175
0,9,9,-4,-4,9,556,97,-195,-419,165,175
0,9,9,-4,-4,9,566,107,-180,-409,165,175
0,9,9,-4,-4,9,575,117,-165,-400,165,175
9,0,-9,-4,9,-4,590,122,-156,-390,165,165
9,0,-9,-4,9,-4,595,126,-146,-390,165,165
9,0,-9,-4,9,-4,600,131,-136,-390,165,165
9,0,-9,-4,9,-4,605,136,-126,-390,165,165
0,-9,-9,4,4,-9,614,146,-117,-380,156,165
0,-9,-9,4,4,-9,624,156,-107,-370,156,165
0,-9,-9,4,4,-9,634,165,-97,-361,156,165
0,-9,-9,4,4,-9,644,175,-87,-351,156,165
9,-19,-29,4,19,-24,658,190,-68,-341,156,156
9,-19,-29,4,19,-24,663,195,-58,-341,156,156
9,-19,-29,4,19,-24,668,200,-48,-341,156,156
9,-19,-29,4,19,-24,673,204,-39,-341,156,156
4,-19,-24,7,14,-21,688,214,-29,-336,146,146
0,-19,-19,9,9,-19,692,214,-19,-331,146,146
-4,-19,-14,12,4,-17,697,214,-9,-326,146,146
-9,-19,-9,14,0,-14,702,214,0,-322,146,146
-9,-19,-9,14,0,-14,712,229,14,-312,136,136
-9,-19,-9,14,0,-14,722,234,19,-312,136,136
-9,-19,-9,14,0,-14,732,239,24,-312,136,136
-9,-19,-9,14,0,-14,741,244,29,-312,136,136
-19,-19,0,19,-9,-9,741,244,34,-302,126,131
-19,-19,0,19,-9,-9,741,244,39,-302,126,126
-19,-19,0,19,-9,-9,741,244,43,-302,126,122
-19,-19,0,19,-9,-9,741,244,48,-302,126,117
-19,-24,-4,21,-7,-14,751,253,53,-302,126,107
-19,-29,-9,24,-4,-19,761,253,58,-302,126,107
-19,-34,-14,26,-2,-24,771,253,63,-302,126,107
-19,-39,-19,29,0,-29,780,253,68,-302,126,107
-9,-34,-24,21,7,-29,790,263,68,-292,136,107
-9,-29,-19,19,4,-24,800,263,68,-292,136,107
-9,-24,-14,17,2,-19,810,263,68,-292,136,107
-9,-19,-9,14,0,-14,819,263,68,-292,136,107
-14,-19,-4,17,-4,-12,829,273,73,-283,126,117
-19,-19,0,19,-9,-9,829,273,78,-283,126,117
-24,-19,4,21,-14,-7,829,273,82,-283,126,117
-29,-19,9,24,-19,-4,829,273,87,-283,126,117
-29,-29,0,29,-14,-14,829,273,78,-292,117,126
-29,-29,0,29,-14,-14,829,273,78,-292,117,126
-29,-29,0,29,-14,-14,829,273,78,-292,117,126
-29,-29,0,29,-14,-14,829,273,78,-292,117,126
-19,-19,0,19,-9,-9,829,283,87,-287,117,126
-19,-19,0,19,-9,-9,829,283,87,-283,117,126
-19,-19,0,19,-9,-9,829,283,87,-278,117,126
-19,-19,0,19,-9,-9,829,283,87,-273,117,126
-19,-9,9,14,-14,0,834,283,87,-273,117,136
-19,-9,9,14,-14,0,839,283,87,-273,117,136
-19,-9,9,14,-14,0,844,283,87,-273,117,136
-19,-9,9,14,-14,0,849,283,87,-273,117,136
-29,-19,9,24,-19,-4,854,283,87,-263,117,136
-29,-19,9,24,-19,-4,858,283,87,-263,117,136
-29,-19,9,24,-19,-4,863,283,87,-263,117,136
-29,-19,9,24,-19,-4,868,283,87,-263,117,136
-19,-19,0,19,-9,-9,849,273,78,-273,117,126
-19,-19,0,19,-9,-9,839,273,78,-273,117,126
-19,-19,0,19,-9,-9,829,273,78,-273,117,126
-19,-19,0,19,-9,-9,819,273,78,-273,117,126
-19,-19,0,19,-9,-9,839,273,78,-268,122,126
-19,-19,0,19,-9,-9,849,273,78,-263,126,126
-19,-19,0,19,-9,-9,858,273,78,-258,131,126
-19,-19,0,19,-9,-9,868,273,78,-253,136,126
-19,-9,9,14,-14,0,868,273,78,-258,141,136
-19,-9,9,14,-14,0,868,273,78,-263,146,136
-19,-9,9,14,-14,0,868,273,78,-268,151,136
-19,-9,9,14,-14,0,868,273,78,-273,156,136
-9,0,9,4,-9,4,868,273,78,-273,156,126
-9,0,9,4,-9,4,868,273,78,-273,156,126
-9,0,9,4,-9,4,868,273,78,-273,156,126
-9,0,9,4,-9,4,868,273,78,-273,156,126
-14,-9,4,12,-9,-2,863,263,68,-273,165,126
-19,-9,9,14,-14,0,858,263,68,-273,165,126
-24,-9,14,17,-19,2,854,263,68,-273,165,126
-29,-9,19,19,-24,4,849,263,68,-273,165,126
-24,-19,4,21,-14,-7,849,263,68,-273,156,126
-19,-19,0,19,-9,-9,849,263,68,-273,156,126
-14,-19,-4,17,-4,-12,849,263,68,-273,156,126
-9,-19,-9,14,0,-14,849,263,68,-273,156,126
-19,-9,9,14,-14,0,844,253,68,-283,156,136
-19,-9,9,14,-14,0,839,253,68,-283,156,136
-19,-9,9,14,-14,0,834,253,68,-283,156,136
-19,-9,9,14,-14,0,829,253,68,-283,156,136
-29,0,29,14,-29,14,839,253,68,-292,156,136
-19,-9,9,14,-14,0,829,253,68,-292,156,146
-9,0,9,4,-9,4,829,263,78,-283,156,136
-19,-4,14,12,-17,4,839,253,78,-292,146,136
-19,-9,9,14,-14,0,839,253,78,-292,146,136
-19,-14,4,17,-12,-4,839,253,78,-292,146,136
-19,-19,0,19,-9,-9,839,253,78,-292,146,136
-19,-19,0,19,-9,-9,839,244,68,-297,136,136
-19,-19,0,19,-9,-9,839,244,68,-302,136,136
-19,-19,0,19,-9,-9,839,244,68,-307,136,136
-19,-19,0,19,-9,-9,839,244,68,-312,136,136
-19,-9,9,14,-14,0,834,244,68,-312,131,131
-19,-9,9,14,-14,0,829,244,68,-312,126,126
-19,-9,9,14,-14,0,824,244,68,-312,122,122
-19,-9,9,14,-14,0,819,244,68,-312,117,117
-29,-14,14,21,-21,0,814,244,68,-317,117,117
-29,-19,9,24,-19,-4,810,244,68,-322,117,117
-29,-24,4,26,-17,-9,805,244,68,-326,117,117
-29,-29,0,29,-14,-14,800,244,68,-331,117,117
-39,-19,19,29,-29,0,810,234,58,-331,117,107
-39,-19,19,29,-29,0,819,234,58,-331,117,107
-39,-19,19,29,-29,0,829,234,58,-331,117,107
-39,-19,19,29,-29,0,839,234,58,-331,117,107
-29,-19,9,24,-19,-4,829,224,58,-336,117,107
-29,-19,9,24,-19,-4,819,224,58,-341,117,107
-29,-19,9,24,-19,-4,810,224,58,-346,117,107
-29,-19,9,24,-19,-4,800,224,58,-351,117,107
-29,-19,9,24,-19,-4,790,214,58,-351,117,97
-29,-19,9,24,-19,-4,790,214,58,-351,117,97
-29,-19,9,24,-19,-4,790,214,58,-351,117,97
-29,-19,9,24,-19,-4,790,214,58,-351,117,97
-29,-14,14,21,-21,0,775,204,58,-361,107,97
-29,-9,19,19,-24,4,771,204,58,-361,107,97
-29,-4,24,17,-26,9,766,204,58,-361,107,97
-29,0,29,14,-29,14,761,204,58,-361,107,97
-29,-9,19,19,-24,4,766,204,58,-370,107,97
-29,-9,19,19,-24,4,771,204,58,-370,107,97
-29,-9,19,19,-24,4,775,204,58,-370,107,97
-29,-9,19,19,-24,4,780,204,58,-370,107,97
-29,-9,19,19,-24,4,771,204,58,-380,117,97
-29,-9,19,19,-24,4,771,204,58,-380,117,97
-29,-9,19,19,-24,4,771,204,58,-380,117,97
-29,-9,19,19,-24,4,771,204,58,-380,117,97
-19,0,19,9,-19,9,771,209,68,-390,126,97
-19,0,19,9,-19,9,771,214,68,-390,126,97
-19,0,19,9,-19,9,771,219,68,-390,126,97
-19,0,19,9,-19,9,771,224,68,-390,126,97
-14,-9,4,12,-9,-2,775,214,78,-390,126,97
-9,-9,0,9,-4,-4,780,214,78,-390,126,97
-4,-9,-4,7,0,-7,785,214,78,-390,126,97
0,-9,-9,4,4,-9,790,214,78,-390,126,97
9,0,-9,-4,9,-4,780,200,73,-380,136,107
9,0,-9,-4,9,-4,771,195,68,-380,136,107
9,0,-9,-4,9,-4,761,190,63,-380,136,107
9,0,-9,-4,9,-4,751,185,58,-380,136,107
0,-9,-9,4,4,-9,761,185,58,-380,146,97
0,-9,-9,4,4,-9,761,185,58,-380,146,97
0,-9,-9,4,4,-9,761,185,58,-380,146,97
0,-9,-9,4,4,-9,761,185,58,-380,146,97
9,-9,-19,0,14,-14,766,185,48,-370,146,87
9,-9,-19,0,14,-14,771,185,48,-370,146,87
9,-9,-19,0,14,-14,775,185,48,-370,146,87
9,-9,-19,0,14,-14,780,185,48,-370,146,87
14,-19,-34,2,24,-26,771,175,39,-375,136,87
19,-19,-39,0,29,-29,771,175,39,-380,136,87
24,-19,-43,-2,34,-31,771,175,39,-385,136,87
29,-19,-48,-4,39,-34,771,175,39,-390,136,87
39,-19,-58,-9,48,-39,766,165,39,-390,146,87
39,-19,-58,-9,48,-39,761,165,39,-390,146,87
39,-19,-58,-9,48,-39,756,165,39,-390,146,87
39,-19,-58,-9,48,-39,751,165,39,-390,146,87
34,-19,-53,-7,43,-36,751,156,29,-400,136,87
29,-19,-48,-4,39,-34,751,156,29,-400,136,87
24,-19,-43,-2,34,-31,751,156,29,-400,136,87
19,-19,-39,0,29,-29,751,156,29,-400,136,87
9,-29,-39,9,24,-34,761,165,34,-400,136,73
0,-29,-29,14,14,-29,761,165,39,-400,136,68
-9,-29,-19,19,4,-24,761,165,43,-400,136,63
-19,-29,-9,24,-4,-19,761,165,48,-400,136,58
-19,-29,-9,24,-4,-19,756,165,48,-409,131,48
-19,-29,-9,24,-4,-19,751,165,48,-409,126,48
-19,-29,-9,24,-4,-19,746,165,48,-409,122,48
-19,-29,-9,24,-4,-19,741,165,48,-409,117,48
-29,-48,-19,39,-4,-34,741,156,58,-419,117,48
-29,-48,-19,39,-4,-34,722,156,58,-419,117,39
-9,-19,-9,14,0,-14,732,156,58,-409,117,48
-9,-9,0,9,-4,-4,751,156,68,-400,117,48
-39,-9,29,24,-34,9,722,156,78,-419,107,48
-48,0,48,24,-48,24,692,156,87,-429,97,39
-58,19,78,19,-68,48,702,156,107,-439,87,29
-78,19,97,29,-87,58,722,156,126,-458,78,19
-97,29,126,34,-112,78,741,165,136,-458,68,9
-97,48,146,24,-122,97,732,175,136,-468,58,9
-97,68,165,14,-131,117,722,165,136,-478,48,9
-97,87,185,4,-141,136,712,165,126,-468,48,19
-107,87,195,9,-151,141,683,156,126,-458,68,39
-97,107,204,-4,-151,156,683,165,146,-419,117,78
-58,165,224,-53,-141,195,702,175,185,-351,175,117
-39,214,253,-87,-146,234,692,175,244,-263,253,175
-9,253,263,-122,-136,258,702,185,292,-156,341,234
19,302,283,-161,-131,292,712,185,341,-48,429,292
68,331,263,-200,-97,297,692,175,351,9,507,361
117,361,244,-239,-63,302,683,156,331,78,585,429
185,409,224,-297,-19,317,653,107,273,117,683,507
263,448,185,-356,39,317,595,48,195,107,780,595
341,458,117,-400,112,287,527,-9,136,117,878,673
400,419,19,-409,190,219,478,-19,117,156,976,741
478,302,-175,-390,326,63,488,9,126,234,1044,771
546,204,-341,-375,444,-68,517,29,126,292,1102,790
575,146,-429,-361,502,-141,527,19,117,292,1112,790
585,78,-507,-331,546,-214,546,29,107,204,1044,751
575,-9,-585,-283,580,-297,566,48,78,-9,878,644
517,-107,-624,-204,570,-366,575,78,78,-302,624,497
448,-175,-624,-136,536,-400,585,126,97,-536,380,341
429,-204,-634,-112,531,-419,546,126,107,-653,214,253
419,-214,-634,-102,527,-424,488,97,87,-702,117,204
361,-224,-585,-68,473,-405,468,107,97,-712,19,146
283,-244,-527,-19,405,-385,488,146,165,-712,-48,68
204,-244,-448,19,326,-346,527,195,244,-673,-78,9
136,-204,-341,34,239,-273,575,263,361,-575,-68,-19
97,-185,-283,43,190,-234,624,341,478,-517,-68,-39
68,-195,-263,63,165,-229,644,400,546,-527,-68,-48
29,-204,-234,87,131,-219,663,448,536,-546,-68,-58
-19,-195,-175,107,78,-185,653,468,478,-566,-68,-68
-68,-195,-126,131,29,-161,683,478,429,-566,-87,-78
-107,-195,-87,151,-9,-141,712,536,439,-556,-97,-87
-136,-185,-48,161,-43,-117,741,595,468,-527,-87,-87
-156,-175,-19,165,-68,-97,771,663,458,-517,-87,-87
-156,-175,-19,165,-68,-97,790,702,400,-536,-97,-97
-156,-185,-29,170,-63,-107,780,732,361,-566,-117,-107
-165,-204,-39,185,-63,-122,790,790,361,-575,-117,-107
-165,-204,-39,185,-63,-122,790,839,331,-575,-107,-117
-175,-195,-19,185,-78,-107,800,858,292,-575,-107,-117
-175,-185,-9,180,-82,-97,819,849,244,-575,-107,-107
-175,-195,-19,185,-78,-107,819,849,175,-575,-117,-117
-175,-204,-29,190,-73,-117,829,839,146,-566,-117,-117
-195,-204,-9,200,-92,-107,839,829,146,-566,-117,-117
-214,-204,9,209,-112,-97,829,829,146,-575,-107,-117
-214,-214,0,214,-107,-107,819,829,165,-566,-117,-117
-204,-195,9,200,-107,-92,810,810,185,-556,-107,-107
-195,-185,9,190,-102,-87,800,751,175,-556,-107,-97
-204,-185,19,195,-112,-82,810,673,146,-556,-107,-97
-224,-185,39,204,-131,-73,829,595,107,-556,-107,-87
-214,-175,39,195,-126,-68,790,507,78,-536,-97,-78
-195,-156,39,175,-117,-58,702,429,78,-497,-68,-58
-185,-126,58,156,-122,-34,624,361,68,-468,-48,-29
-165,-107,58,136,-112,-24,575,292,39,-478,-39,-19
-146,-97,48,122,-97,-24,517,214,19,-468,-29,-9
-146,-87,58,117,-102,-14,429,107,9,-468,-9,9
-126,-68,58,97,-92,-4,361,19,0,-448,0,19
-107,-48,58,78,-82,4,302,-29,0,-419,0,39
-97,-48,48,73,-73,0,234,-78,-9,-409,9,48
-87,-39,48,63,-68,4,214,-107,-9,-390,19,48
-78,-29,48,53,-63,9,214,-97,0,-390,29,58
-68,-19,48,43,-58,14,209,-97,9,-385,34,63
-58,-19,39,39,-48,9,204,-97,19,-380,39,68
-48,-19,29,34,-39,4,200,-97,29,-375,43,73
-39,-19,19,29,-29,0,195,-97,39,-370,48,78
-39,-19,19,29,-29,0,175,-117,34,-361,48,78
-39,-19,19,29,-29,0,165,-126,29,-361,48,78
-39,-19,19,29,-29,0,156,-136,24,-361,48,78
-39,-19,19,29,-29,0,146,-146,19,-361,48,78
-48,-29,19,39,-34,-4,136,-161,29,-370,48,68
-48,-29,19,39,-34,-4,136,-165,29,-370,48,68
-48,-29,19,39,-34,-4,136,-170,29,-370,48,68
-48,-29,19,39,-34,-4,136,-175,29,-370,48,68
-43,-14,29,29,-36,7,136,-180,19,-366,48,68
-39,-9,29,24,-34,9,136,-185,19,-361,48,68
-34,-4,29,19,-31,12,136,-190,19,-356,48,68
-29,0,29,14,-29,14,136,-195,19,-351,48,68
-39,-4,34,21,-36,14,122,-204,19,-356,48,78
-39,-9,29,24,-34,9,117,-204,19,-361,48,78
-39,-14,24,26,-31,4,112,-204,19,-366,48,78
-39,-19,19,29,-29,0,107,-204,19,-370,48,78
-39,-19,19,29,-29,0,97,-219,4,-380,39,68
-39,-19,19,29,-29,0,97,-224,0,-380,39,68
-39,-19,19,29,-29,0,97,-229,-4,-380,39,68
-39,-19,19,29,-29,0,97,-234,-9,-380,39,68
-39,-9,29,24,-34,9,87,-234,-9,-370,48,68
-39,-9,29,24,-34,9,87,-234,-9,-370,48,68
-39,-9,29,24,-34,9,87,-234,-9,-370,48,68
-39,-9,29,24,-34,9,87,-234,-9,-370,48,68
-39,-9,29,24,-34,9,78,-239,-19,-370,39,58
-39,-9,29,24,-34,9,68,-244,-19,-370,39,58
-39,-9,29,24,-34,9,58,-248,-19,-370,39,58
-39,-9,29,24,-34,9,48,-253,-19,-370,39,58
-48,-9,39,29,-43,14,48,-263,-29,-380,39,58
-48,-9,39,29,-43,14,48,-263,-29,-380,39,58
-48,-9,39,29,-43,14,48,-263,-29,-380,39,58
-48,-9,39,29,-43,14,48,-263,-29,-380,39,58
-39,0,39,19,-39,19,39,-268,-39,-380,39,58
-39,0,39,19,-39,19,39,-273,-39,-380,39,58
-39,0,39,19,-39,19,39,-278,-39,-380,39,58
-39,0,39,19,-39,19,39,-283,-39,-380,39,58
-34,9,43,12,-39,26,29,-287,-43,-370,39,58
-29,9,39,9,-34,24,29,-292,-48,-370,39,58
-24,9,34,7,-29,21,29,-297,-53,-370,39,58
-19,9,29,4,-24,19,29,-302,-58,-370,39,58
-24,0,24,12,-24,12,24,-307,-63,-375,29,48
-29,0,29,14,-29,14,19,-312,-68,-380,29,48
-34,0,34,17,-34,17,14,-317,-73,-385,29,48
-39,0,39,19,-39,19,9,-322,-78,-390,29,48
-48,0,48,24,-48,24,0,-336,-82,-400,19,58
-48,0,48,24,-48,24,-9,-341,-87,-400,19,58
-48,0,48,24,-48,24,-19,-346,-92,-400,19,58
-48,0,48,24,-48,24,-29,-351,-97,-400,19,58
-58,-9,48,34,-53,19,-48,-356,-112,-409,9,68
-58,-9,48,34,-53,19,-58,-361,-117,-409,9,68
-58,-9,48,34,-53,19,-68,-366,-122,-409,9,68
-58,-9,48,34,-53,19,-78,-370,-126,-409,9,68
-48,0,48,24,-48,24,-87,-375,-131,-419,9,68
-48,0,48,24,-48,24,-87,-380,-136,-419,9,68
-48,0,48,24,-48,24,-87,-385,-141,-419,9,68
-48,0,48,24,-48,24,-87,-390,-146,-419,9,68
-58,9,68,24,-63,39,-107,-405,-161,-419,0,58
-58,9,68,24,-63,39,-117,-409,-165,-419,0,58
-58,9,68,24,-63,39,-126,-414,-170,-419,0,58
-58,9,68,24,-63,39,-136,-419,-175,-419,0,58
-58,9,68,24,-63,39,-126,-424,-190,-419,-4,48
-58,9,68,24,-63,39,-126,-429,-195,-419,-9,48
-58,9,68,24,-63,39,-126,-434,-200,-419,-14,48
-58,9,68,24,-63,39,-126,-439,-204,-419,-19,48
-48,14,63,17,-56,39,-136,-448,-214,-424,-29,48
-48,19,68,14,-58,43,-146,-458,-224,-429,-29,48
-48,24,73,12,-61,48,-156,-468,-234,-434,-29,48
-48,29,78,9,-63,53,-165,-478,-244,-439,-29,48
-48,29,78,9,-63,53,-175,-483,-253,-429,-19,48
-48,29,78,9,-63,53,-175,-488,-253,-429,-19,48
-48,29,78,9,-63,53,-175,-492,-253,-429,-19,48
-48,29,78,9,-63,53,-175,-497,-253,-429,-19,48
-48,39,87,4,-68,63,-185,-512,-268,-419,-29,39
-48,39,87,4,-68,63,-185,-517,-273,-419,-29,39
-48,39,87,4,-68,63,-185,-522,-278,-419,-29,39
-48,39,87,4,-68,63,-185,-527,-283,-419,-29,39
-58,39,97,9,-78,68,-185,-527,-283,-414,-29,29
-58,39,97,9,-78,68,-185,-527,-283,-409,-29,29
-58,39,97,9,-78,68,-185,-527,-283,-405,-29,29
-58,39,97,9,-78,68,-185,-527,-283,-400,-29,29
-58,29,87,14,-73,58,-195,-527,-283,-390,-29,39
-58,29,87,14,-73,58,-195,-536,-292,-390,-29,39
-58,48,107,4,-82,78,-214,-536,-283,-400,-9,39
-48,58,107,-4,-78,82,-224,-536,-283,-380,-9,48
-43,58,102,-7,-73,80,-214,-536,-273,-375,0,39
-39,58,97,-9,-68,78,-214,-536,-273,-370,0,39
-34,58,92,-12,-63,75,-214,-536,-273,-366,0,39
-29,58,87,-14,-58,73,-214,-536,-273,-361,0,39
-29,58,87,-14,-58,73,-204,-531,-253,-346,4,48
-29,58,87,-14,-58,73,-204,-527,-244,-341,9,48
-29,58,87,-14,-58,73,-204,-522,-234,-336,14,48
-29,58,87,-14,-58,73,-204,-517,-224,-331,19,48
-19,58,78,-19,-48,68,-214,-512,-214,-322,29,58
-19,58,78,-19,-48,68,-214,-507,-204,-312,39,58
-19,58,78,-19,-48,68,-214,-502,-195,-302,48,58
-19,58,78,-19,-48,68,-214,-497,-185,-292,58,58
-14,63,78,-24,-46,70,-204,-497,-170,-283,73,58
-9,68,78,-29,-43,73,-204,-497,-165,-273,78,58
-4,73,78,-34,-41,75,-204,-497,-161,-263,82,58
0,78,78,-39,-39,78,-204,-497,-156,-253,87,58
9,78,68,-43,-29,73,-195,-507,-146,-239,97,68
9,78,68,-43,-29,73,-195,-507,-136,-234,97,68
9,78,68,-43,-29,73,-195,-507,-126,-229,97,68
9,78,68,-43,-29,73,-195,-507,-117,-224,97,68
4,73,68,-39,-31,70,-204,-497,-112,-219,107,58
0,68,68,-34,-34,68,-204,-497,-107,-214,107,58
-4,63,68,-29,-36,65,-204,-497,-102,-209,107,58
-9,58,68,-24,-39,63,-204,-497,-97,-204,107,58
0,48,48,-24,-24,48,-209,-483,-78,-190,107,48
0,48,48,-24,-24,48,-214,-478,-68,-185,107,48
0,48,48,-24,-24,48,-219,-473,-58,-180,107,48
0,48,48,-24,-24,48,-224,-468,-48,-175,107,48
4,48,43,-26,-19,46,-224,-463,-34,-170,107,39
9,48,39,-29,-14,43,-224,-458,-29,-165,107,39
14,48,34,-31,-9,41,-224,-453,-24,-161,107,39
19,48,29,-34,-4,39,-224,-448,-19,-156,107,39
19,39,19,-29,0,29,-209,-439,-4,-146,117,39
19,39,19,-29,0,29,-195,-439,0,-146,117,39
19,39,19,-29,0,29,-180,-439,4,-146,117,39
19,39,19,-29,0,29,-165,-439,9,-146,117,39
29,39,9,-34,9,24,-170,-429,19,-141,117,39
29,39,9,-34,9,24,-175,-429,29,-136,117,39
29,39,9,-34,9,24,-180,-429,39,-131,117,39
29,39,9,-34,9,24,-185,-429,48,-126,117,39
39,34,-4,-36,21,14,-175,-419,58,-136,117,29
39,29,-9,-34,24,9,-175,-419,58,-136,117,29
39,24,-14,-31,26,4,-175,-419,58,-136,117,29
39,19,-19,-29,29,0,-175,-419,58,-136,117,29
43,29,-14,-36,29,7,-175,-409,73,-126,117,19
48,29,-19,-39,34,4,-175,-409,78,-126,117,19
53,29,-24,-41,39,2,-175,-409,82,-126,117,19
58,29,-29,-43,43,0,-175,-409,87,-126,117,19
53,24,-29,-39,41,-2,-165,-405,97,-126,107,19
48,19,-29,-34,39,-4,-165,-400,97,-126,107,19
43,14,-29,-29,36,-7,-165,-395,97,-126,107,19
39,9,-29,-24,34,-9,-165,-390,97,-126,107,19
34,4,-29,-19,31,-12,-156,-390,107,-122,107,9
29,0,-29,-14,29,-14,-156,-390,107,-117,107,9
24,-4,-29,-9,26,-17,-156,-390,107,-112,107,9
19,-9,-29,-4,24,-19,-156,-390,107,-107,107,9
29,0,-29,-14,29,-14,-161,-380,112,-107,107,9
29,0,-29,-14,29,-14,-165,-380,117,-107,107,9
29,0,-29,-14,29,-14,-170,-380,122,-107,107,9
29,0,-29,-14,29,-14,-175,-380,126,-107,107,9
29,-9,-39,-9,34,-24,-161,-370,126,-97,107,0
29,-9,-39,-9,34,-24,-156,-370,126,-97,107,0
29,-9,-39,-9,34,-24,-151,-370,126,-97,107,0
29,-9,-39,-9,34,-24,-146,-370,126,-97,107,0
39,0,-39,-19,39,-19,-146,-370,131,-97,107,0
39,0,-39,-19,39,-19,-146,-370,136,-97,107,0
39,0,-39,-19,39,-19,-146,-370,141,-97,107,0
39,0,-39,-19,39,-19,-146,-370,146,-97,107,0
29,-4,-34,-12,31,-19,-136,-361,146,-97,92,-4
19,-9,-29,-4,24,-19,-136,-361,146,-97,87,-9
9,-14,-24,2,17,-19,-136,-361,146,-97,82,-14
0,-19,-19,9,9,-19,-136,-361,146,-97,78,-19
-4,-29,-24,17,9,-26,-146,-351,156,-97,68,-24
-9,-29,-19,19,4,-24,-146,-351,156,-97,68,-29
-14,-29,-14,21,0,-21,-146,-351,156,-97,68,-34
-19,-29,-9,24,-4,-19,-146,-351,156,-97,68,-39
-19,-19,0,19,-9,-9,-136,-341,165,-82,78,-39
-19,-19,0,19,-9,-9,-136,-341,165,-78,78,-39
-19,-19,0,19,-9,-9,-136,-341,165,-73,78,-39
-19,-19,0,19,-9,-9,-136,-341,165,-68,78,-39
-39,-39,0,39,-19,-19,-126,-341,165,-68,68,-39
-48,-48,0,48,-24,-24,-126,-351,165,-78,78,-39
-29,-29,0,29,-14,-14,-126,-341,175,-68,87,-29
-9,-19,-9,14,0,-14,-126,-331,175,-48,87,-29
-29,-19,9,24,-19,-4,-126,-341,185,-68,97,-29
-39,0,39,19,-39,19,-97,-331,204,-58,97,-29
-19,29,48,-4,-34,39,-58,-322,234,-48,97,-39
-29,29,58,0,-43,43,-39,-312,253,-58,87,-48
-68,29,97,19,-82,63,-29,-302,292,-58,78,-58
-78,58,136,9,-107,97,-19,-283,331,-48,78,-48
-58,87,146,-14,-102,117,-19,-273,341,-48,78,-39
-68,87,156,-9,-112,122,-29,-283,322,-39,87,-39
-97,78,175,9,-136,126,-68,-292,312,-29,97,-29
-78,107,185,-14,-131,146,-78,-292,331,29,156,0
-39,165,204,-63,-122,185,-68,-292,370,126,224,39
-19,195,214,-87,-117,204,-68,-273,439,214,283,78
-19,224,244,-102,-131,234,-58,-263,517,322,361,117
9,273,263,-141,-126,268,-48,-253,575,448,448,175
48,312,263,-180,-107,287,-39,-253,614,536,527,244
87,361,273,-224,-92,317,-48,-244,624,634,614,322
146,409,263,-278,-58,336,-87,-283,585,712,722,400
214,458,244,-336,-14,351,-136,-341,488,761,819,468
292,478,185,-385,53,331,-146,-390,409,800,907,546
361,478,117,-419,122,297,-156,-439,351,829,995,614
409,400,-9,-405,209,195,-156,-429,341,868,1054,653
468,273,-195,-370,331,39,-136,-370,380,917,1112,683
507,185,-322,-346,414,-68,-136,-331,370,858,1112,692
507,126,-380,-317,444,-126,-136,-331,292,683,1034,663
488,58,-429,-273,458,-185,-136,-322,185,361,878,595
458,-39,-497,-209,478,-268,-136,-292,136,-48,644,468
400,-126,-527,-136,463,-326,-136,-224,165,-351,409,322
361,-175,-536,-92,448,-356,-136,-156,214,-448,263,234
331,-185,-517,-73,424,-351,-146,-146,224,-468,175,175
312,-185,-497,-63,405,-341,-156,-136,253,-497,107,126
273,-185,-458,-43,366,-322,-165,-87,331,-468,58,78
214,-175,-390,-19,302,-283,-146,-29,439,-400,19,39
146,-175,-322,14,234,-248,-68,48,575,-312,-9,-19
78,-195,-273,58,175,-234,-19,117,673,-273,-39,-78
48,-195,-244,73,146,-219,19,136,653,-283,-48,-107
9,-195,-204,92,107,-200,39,117,546,-292,-68,-136
-39,-204,-165,122,63,-185,68,107,458,-312,-87,-165
-87,-234,-146,161,29,-190,117,146,429,-331,-117,-195
-136,-244,-107,190,-14,-175,146,175,390,-361,-136,-204
-165,-224,-58,195,-53,-141,165,195,361,-351,-136,-204
-175,-204,-29,190,-73,-117,204,244,361,-312,-117,-195
-165,-204,-39,185,-63,-122,224,302,351,-312,-126,-214
-175,-234,-58,204,-58,-146,214,331,322,-331,-136,-234
-195,-244,-48,219,-73,-146,224,370,302,-322,-136,-244
-195,-234,-39,214,-78,-136,244,409,312,-312,-136,-244
-195,-234,-39,214,-78,-136,253,429,302,-322,-136,-253
-204,-244,-39,224,-82,-141,253,429,283,-331,-146,-253
-214,-253,-39,234,-87,-146,253,419,283,-341,-156,-253
-224,-253,-29,239,-97,-141,273,400,273,-341,-146,-253
-224,-244,-19,234,-102,-131,292,351,244,-331,-146,-253
-214,-224,-9,219,-102,-117,283,322,234,-341,-156,-253
-214,-214,0,214,-107,-107,263,312,234,-331,-146,-263
-234,-214,19,224,-126,-97,214,263,214,-312,-136,-263
-224,-204,19,214,-122,-92,97,146,165,-292,-117,-253
-195,-175,19,185,-107,-78,0,19,97,-283,-87,-224
-165,-156,9,161,-87,-73,-58,-117,48,-283,-68,-204
-146,-126,19,136,-82,-53,-107,-214,19,-263,-39,-185
-136,-117,19,126,-78,-48,-156,-263,29,-244,-19,-156
-126,-97,29,112,-78,-34,-204,-292,58,-214,0,-146
-107,-68,39,87,-73,-14,-253,-292,87,-185,9,-126
-68,-48,19,58,-43,-14,-253,-283,107,-165,29,-126
-58,-39,19,48,-39,-9,-253,-273,126,-165,39,-126
-58,-48,9,53,-34,-19,-253,-283,126,-165,39,-117
-58,-48,9,53,-34,-19,-273,-292,117,-165,48,-97
-29,-39,-9,34,-9,-24,-292,-292,117,-165,58,-97
-29,-39,-9,34,-9,-24,-302,-292,117,-165,68,-97
-39,-48,-9,43,-14,-29,-302,-283,117,-156,68,-97
-39,-39,0,39,-19,-19,-292,-283,117,-151,58,-107
-39,-39,0,39,-19,-19,-292,-283,117,-146,58,-107
-39,-39,0,39,-19,-19,-292,-283,117,-141,58,-107
-39,-39,0,39,-19,-19,-292,-283,117,-136,58,-107
-29,-39,-9,34,-9,-24,-292,-292,112,-151,58,-107
-29,-39,-9,34,-9,-24,-292,-302,107,-156,58,-107
-29,-39,-9,34,-9,-24,-292,-312,102,-161,58,-107
-29,-39,-9,34,-9,-24,-292,-322,97,-165,58,-107
-29,-34,-4,31,-12,-19,-292,-322,97,-156,68,-107
-29,-29,0,29,-14,-14,-292,-322,97,-156,68,-107
-29,-24,4,26,-17,-9,-292,-322,97,-156,68,-107
-29,-19,9,24,-19,-4,-292,-322,97,-156,68,-107
-19,-29,-9,24,-4,-19,-302,-322,87,-156,58,-97
-19,-29,-9,24,-4,-19,-302,-322,87,-156,58,-97
-19,-29,-9,24,-4,-19,-302,-322,87,-156,58,-97
-19,-29,-9,24,-4,-19,-302,-322,87,-156,58,-97
-29,-29,0,29,-14,-14,-302,-331,82,-146,58,-87
-29,-29,0,29,-14,-14,-302,-331,78,-146,58,-87
-29,-29,0,29,-14,-14,-302,-331,73,-146,58,-87
-29,-29,0,29,-14,-14,-302,-331,68,-146,58,-87
-19,-24,-4,21,-7,-14,-297,-331,68,-136,68,-78
-19,-19,0,19,-9,-9,-292,-331,68,-136,68,-78
-19,-14,4,17,-12,-4,-287,-331,68,-136,68,-78
-19,-9,9,14,-14,0,-283,-331,68,-136,68,-78
-29,-9,19,19,-24,4,-263,-331,63,-126,58,-87
-29,-9,19,19,-24,4,-253,-331,58,-126,58,-87
-29,-9,19,19,-24,4,-244,-331,53,-126,58,-87
-29,-9,19,19,-24,4,-234,-331,48,-126,58,-87
-39,-19,19,29,-29,0,-244,-331,39,-117,58,-87
-39,-19,19,29,-29,0,-244,-331,39,-117,58,-87
-39,-19,19,29,-29,0,-244,-331,39,-117,58,-87
-39,-19,19,29,-29,0,-244,-331,39,-117,58,-87
-29,-14,14,21,-21,0,-253,-331,34,-112,68,-97
-29,-9,19,19,-24,4,-253,-331,29,-107,68,-97
-29,-4,24,17,-26,9,-253,-331,24,-102,68,-97
-29,0,29,14,-29,14,-253,-331,19,-97,68,-97
-19,0,19,9,-19,9,-244,-322,9,-97,68,-107
-19,0,19,9,-19,9,-244,-322,9,-97,68,-107
-19,0,19,9,-19,9,-244,-322,9,-97,68,-107
-19,0,19,9,-19,9,-244,-322,9,-97,68,-107
-19,0,19,9,-19,9,-229,-331,0,-87,58,-117
-19,0,19,9,-19,9,-224,-331,0,-87,58,-117
-19,0,19,9,-19,9,-219,-331,0,-87,58,-117
-19,0,19,9,-19,9,-214,-331,0,-87,58,-117
-24,9,34,7,-29,21,-209,-331,-9,-78,58,-126
-29,9,39,9,-34,24,-204,-331,-9,-78,58,-126
-34,9,43,12,-39,26,-200,-331,-9,-78,58,-126
-39,9,48,14,-43,29,-195,-331,-9,-78,58,-126
-29,19,48,4,-39,34,-204,-322,-14,-78,58,-136
-29,19,48,4,-39,34,-204,-322,-19,-78,58,-136
-29,19,48,4,-39,34,-204,-322,-24,-78,58,-136
-29,19,48,4,-39,34,-204,-322,-29,-78,58,-136
-34,14,48,9,-41,31,-214,-336,-43,-82,48,-136
-39,9,48,14,-43,29,-214,-341,-48,-87,48,-136
-43,4,48,19,-46,26,-214,-346,-53,-92,48,-136
-48,0,48,24,-48,24,-214,-351,-58,-97,48,-136
-39,14,53,12,-46,34,-219,-351,-63,-107,58,-126
-39,19,58,9,-48,39,-224,-351,-68,-107,58,-126
-39,24,63,7,-51,43,-229,-351,-73,-107,58,-126
-39,29,68,4,-53,48,-234,-351,-78,-107,58,-126
-39,29,68,4,-53,48,-239,-356,-92,-107,68,-126
-39,29,68,4,-53,48,-244,-361,-97,-107,68,-126
-39,29,68,4,-53,48,-248,-366,-102,-107,68,-126
-39,29,68,4,-53,48,-253,-370,-107,-107,68,-126
-39,29,68,4,-53,48,-268,-380,-122,-117,73,-126
-39,29,68,4,-53,48,-273,-380,-126,-126,78,-126
-39,29,68,4,-53,48,-278,-380,-131,-136,82,-126
-39,29,68,4,-53,48,-283,-380,-136,-146,87,-126
-29,34,63,-2,-46,48,-292,-390,-136,-136,92,-122
-29,39,68,-4,-48,53,-292,-390,-136,-136,97,-117
-29,43,73,-7,-51,58,-292,-390,-136,-136,102,-112
-29,48,78,-9,-53,63,-292,-390,-136,-136,107,-107
-19,58,78,-19,-48,68,-302,-400,-146,-146,107,-97
-19,58,78,-19,-48,68,-302,-400,-146,-146,107,-97
-19,58,78,-19,-48,68,-302,-400,-146,-146,107,-97
-19,58,78,-19,-48,68,-302,-400,-146,-146,107,-97
-19,63,82,-21,-51,73,-302,-400,-146,-141,117,-107
-19,68,87,-24,-53,78,-302,-400,-146,-136,117,-107
-19,73,92,-26,-56,82,-302,-400,-146,-131,117,-107
-19,78,97,-29,-58,87,-302,-400,-146,-126,117,-107
-14,82,97,-34,-56,90,-307,-395,-136,-117,117,-92
-9,87,97,-39,-53,92,-312,-390,-126,-117,117,-87
-4,92,97,-43,-51,95,-317,-385,-117,-117,117,-82
0,97,97,-48,-48,97,-322,-380,-107,-117,117,-78
4,97,92,-51,-43,95,-322,-375,-97,-112,126,-87
9,97,87,-53,-39,92,-322,-370,-87,-107,126,-87
14,97,82,-56,-34,90,-322,-366,-78,-102,126,-87
19,97,78,-58,-29,87,-322,-361,-68,-97,126,-87
19,87,68,-53,-24,78,-322,-356,-53,-92,136,-78
19,87,68,-53,-24,78,-322,-351,-48,-87,136,-78
19,87,68,-53,-24,78,-322,-346,-43,-82,136,-78
19,87,68,-53,-24,78,-322,-341,-39,-78,136,-78
29,97,68,-63,-19,82,-317,-351,-29,-63,141,-78
29,97,68,-63,-19,82,-312,-351,-19,-58,146,-78
29,97,68,-63,-19,82,-307,-351,-9,-53,151,-78
29,97,68,-63,-19,82,-302,-351,0,-48,156,-78
48,107,58,-78,-4,82,-312,-351,29,-29,156,-78
48,117,68,-82,-9,92,-312,-351,48,-29,156,-68
58,126,68,-92,-4,97,-302,-341,58,-19,156,-68
68,126,58,-97,4,92,-302,-331,58,-9,156,-68
68,112,43,-90,12,78,-297,-331,68,0,156,-68
68,107,39,-87,14,73,-292,-331,68,0,156,-68
68,102,34,-85,17,68,-287,-331,68,0,156,-68
68,97,29,-82,19,63,-283,-331,68,0,156,-68
78,97,19,-87,29,58,-278,-312,82,19,165,-58
87,97,9,-92,39,53,-283,-307,87,24,165,-58
87,102,14,-95,36,58,-273,-292,97,24,165,-58
87,102,14,-95,36,58,-268,-287,102,34,165,-58
82,87,4,-85,39,46,-258,-278,112,39,156,-68
82,87,4,-85,39,46,-219,-273,126,48,161,-63
82,87,4,-85,39,46,-175,-263,141,58,161,-53
78,87,9,-82,34,48,-156,-248,151,63,161,-53
63,78,14,-70,24,46,-151,-244,161,68,151,-53
58,73,14,-65,21,43,-146,-244,161,68,146,-63
58,68,9,-63,24,39,-136,-244,161,68,146,-53
58,68,9,-63,24,39,-126,-239,161,73,146,-53
58,48,-9,-53,34,19,-126,-229,161,82,131,-63
48,29,-19,-39,34,4,-136,-239,161,78,126,-63
48,29,-19,-39,34,4,-126,-239,161,78,122,-68
48,29,-19,-39,34,4,-122,-239,156,78,122,-73
34,19,-14,-26,24,2,-112,-229,165,68,117,-73
34,19,-14,-26,24,2,-112,-224,170,73,117,-68
39,24,-14,-31,26,4,-112,-219,170,73,122,-68
43,24,-19,-34,31,2,-112,-219,170,78,122,-68
43,14,-29,-29,36,-7,-102,-209,180,78,102,-68
29,4,-24,-17,26,-9,-82,-204,180,82,102,-68
29,4,-24,-17,26,-9,-53,-204,180,97,102,-58
39,14,-24,-26,31,-4,-43,-195,185,102,107,-58
34,4,-29,-19,31,-12,-48,-185,195,107,102,-58
24,-4,-29,-9,26,-17,-29,-185,195,102,87,-68
4,-14,-19,4,12,-17,-19,-185,185,97,78,-78
0,-24,-24,12,12,-24,-4,-185,185,112,68,-78
-9,-19,-9,14,0,-14,0,-170,190,126,78,-73
-19,-19,0,19,-9,-9,19,-170,195,136,73,-78
-24,-29,-4,26,-9,-17,39,-165,195,156,68,-82
-24,-29,-4,26,-9,-17,58,-161,190,165,68,-82
-14,-19,-4,17,-4,-12,68,-170,190,175,63,-78
-14,-19,-4,17,-4,-12,82,-156,200,175,63,-73
-19,-19,0,19,-9,-9,82,-156,200,180,58,-63
-24,-19,4,21,-14,-7,82,-156,200,190,58,-58
-24,-39,-14,31,-4,-26,102,-165,185,204,53,-58
-29,-39,-9,34,-9,-24,126,-165,185,214,53,-58
-29,-39,-9,34,-9,-24,141,-165,190,219,58,-58
-24,-39,-14,31,-4,-26,146,-165,190,239,58,-58
-29,-39,-9,34,-9,-24,151,-165,195,253,48,-68
-24,-39,-14,31,-4,-26,161,-165,195,258,48,-68
-24,-39,-14,31,-4,-26,180,-161,200,263,48,-68
-24,-34,-9,29,-7,-21,195,-161,200,268,43,-63
-24,-34,-9,29,-7,-21,209,-151,190,283,43,-53
-24,-34,-9,29,-7,-21,214,-151,190,287,43,-53
-24,-34,-9,29,-7,-21,200,-151,190,287,39,-63
-24,-34,-9,29,-7,-21,204,-151,190,292,39,-68
-24,-24,0,24,-12,-12,234,-161,200,297,39,-73
-29,-29,0,29,-14,-14,248,-161,200,292,39,-73
-34,-34,0,34,-17,-17,258,-161,200,292,39,-73
-34,-34,0,34,-17,-17,268,-161,204,292,39,-78
-34,-29,4,31,-19,-12,278,-151,204,302,39,-68
-9,-9,0,9,-4,-4,292,-151,214,312,39,-58
-19,-19,0,19,-9,-9,292,-156,209,297,39,-58
-39,-39,0,39,-19,-19,287,-156,219,297,34,-73
-43,-14,29,29,-36,7,292,-161,214,287,34,-73
-48,9,58,19,-53,34,273,-170,219,263,24,-82
-68,14,82,26,-75,48,273,-175,214,239,4,-87
-92,14,107,39,-100,61,273,-175,229,204,-4,-87
-102,24,126,39,-114,75,253,-175,229,180,-9,-87
-112,24,136,43,-124,80,244,-175,219,165,-19,-87
-117,29,146,43,-131,87,229,-185,195,141,-19,-82
-107,43,151,31,-129,97,214,-200,185,131,-4,-63
-87,68,156,9,-122,112,204,-209,195,170,29,-43
-87,107,195,-9,-141,151,190,-214,209,195,78,-14
-63,151,214,-43,-139,183,185,-185,263,248,136,24
-53,204,258,-75,-156,231,165,-136,346,331,204,73
-39,248,287,-104,-163,268,156,-102,439,429,283,117
-4,268,273,-131,-139,270,185,-87,492,546,351,161
39,287,248,-163,-104,268,195,-68,536,644,434,224
78,322,244,-200,-82,283,165,-63,556,722,527,297
156,361,204,-258,-24,283,122,-97,517,795,629,366
234,385,151,-309,41,268,73,-131,458,854,722,434
297,380,82,-339,107,231,14,-122,439,888,795,488
356,326,-29,-341,192,148,-14,-87,492,961,868,522
439,209,-229,-324,334,-9,4,-14,561,1049,932,536
512,107,-405,-309,458,-148,29,34,590,1098,985,556
551,43,-507,-297,529,-231,29,58,561,1034,976,546
570,-34,-605,-268,588,-319,14,78,488,795,868,488
546,-151,-697,-197,622,-424,-14,97,395,429,673,380
488,-244,-732,-122,610,-488,-43,102,326,24,434,244
424,-268,-692,-78,558,-480,-82,102,283,-292,234,141
380,-278,-658,-51,519,-468,-136,73,239,-429,117,82
346,-297,-644,-24,495,-470,-190,43,214,-483,24,24
317,-297,-614,-9,466,-456,-204,53,244,-502,-53,-29
283,-273,-556,-4,419,-414,-204,82,302,-448,-97,-73
219,-268,-488,24,353,-378,-165,117,385,-366,-107,-107
136,-248,-385,56,261,-317,-112,170,512,-287,-117,-146
92,-224,-317,65,204,-270,-87,258,624,-234,-122,-175
68,-204,-273,68,170,-239,-107,302,644,-234,-131,-195
19,-195,-214,87,117,-204,-73,297,590,-253,-141,-204
-39,-185,-146,112,53,-165,-43,292,527,-278,-156,-214
-92,-190,-97,141,2,-143,-63,317,478,-297,-165,-239
-126,-190,-63,158,-31,-126,-43,361,473,-287,-175,-248
-156,-185,-29,170,-63,-107,24,419,478,-268,-170,-258
-185,-195,-9,190,-87,-102,53,458,444,-268,-165,-263
-185,-214,-29,200,-78,-122,58,502,419,-278,-165,-268
-190,-214,-24,202,-82,-119,63,570,409,-287,-175,-273
-190,-219,-29,204,-80,-124,73,619,395,-322,-190,-287
-185,-204,-19,195,-82,-112,73,644,346,-326,-195,-292
-185,-209,-24,197,-80,-117,48,649,297,-356,-204,-292
-200,-219,-19,209,-90,-119,48,658,253,-366,-219,-302
-200,-224,-24,212,-87,-124,73,644,229,-366,-219,-307
-200,-224,-24,212,-87,-124,92,634,229,-375,-209,-307
-209,-234,-24,222,-92,-129,102,629,244,-366,-209,-307
-224,-244,-19,234,-102,-131,112,614,258,-361,-214,-307
-234,-229,4,231,-119,-112,117,556,258,-361,-204,-307
-244,-224,19,234,-131,-102,117,483,224,-370,-209,-307
-253,-234,19,244,-136,-107,87,414,190,-370,-219,-312
-239,-214,24,226,-131,-95,-4,366,175,-366,-209,-302
-209,-185,24,197,-117,-80,-92,307,165,-317,-185,-273
-200,-165,34,183,-117,-65,-141,253,156,-287,-165,-263
-190,-156,34,173,-112,-61,-185,185,131,-278,-161,-248
-165,-136,29,151,-97,-53,-234,107,112,-258,-146,-229
-126,-112,14,119,-70,-48,-322,14,107,-224,-112,-200
-97,-73,24,85,-61,-24,-409,-43,117,-185,-78,-175
-58,-39,19,48,-39,-9,-478,-78,122,-161,-58,-156
-63,-34,29,48,-46,-2,-517,-122,122,-161,-48,-161
-63,-43,19,53,-41,-12,-497,-131,122,-151,-39,-156
-48,-53,-4,51,-21,-29,-492,-136,122,-136,-34,-156
-34,-53,-19,43,-7,-36,-483,-146,122,-126,-34,-146
-34,-43,-9,39,-12,-26,-473,-151,117,-122,-34,-146
-29,-43,-14,36,-7,-29,-463,-156,117,-126,-34,-146
-34,-48,-14,41,-9,-31,-453,-161,107,-122,-34,-156
-39,-48,-9,43,-14,-29,-468,-165,107,-117,-34,-156
-39,-43,-4,41,-17,-24,-488,-175,102,-117,-34,-151
-43,-43,0,43,-21,-21,-502,-195,97,-126,-29,-151
-43,-39,4,41,-24,-17,-502,-204,97,-122,-19,-161
-43,-39,4,41,-24,-17,-502,-209,92,-117,-19,-156
-43,-39,4,41,-24,-17,-502,-219,87,-117,-19,-156
-39,-34,4,36,-21,-14,-502,-224,87,-112,-19,-156
-29,-34,-4,31,-12,-19,-507,-214,87,-126,-9,-165
-24,-34,-9,29,-7,-21,-507,-214,82,-131,-9,-165
-24,-34,-9,29,-7,-21,-512,-219,82,-146,-4,-156
-24,-34,-9,29,-7,-21,-546,-219,73,-161,-4,-156
-24,-19,4,21,-14,-7,-556,-224,68,-175,-4,-156
-9,-9,0,9,-4,-4,-566,-224,58,-195,-4,-156
-24,-24,0,24,-12,-12,-575,-229,48,-219,-4,-156
-43,-34,9,39,-26,-12,-580,-234,43,-239,-14,-161
-48,-29,19,39,-34,-4,-605,-234,43,-258,-4,-161
-34,-24,9,29,-21,-7,-619,-229,43,-263,0,-146
-39,-29,9,34,-24,-9,-649,-229,39,-253,4,-146
-48,-39,9,43,-29,-14,-673,-229,34,-273,4,-156
-43,-39,4,41,-24,-17,-697,-229,29,-287,4,-156
-43,-39,4,41,-24,-17,-702,-229,24,-302,4,-151
-43,-39,4,41,-24,-17,-707,-234,14,-307,0,-151
-48,-39,9,43,-29,-14,-717,-234,14,-322,-4,-161
-43,-29,14,36,-29,-7,-727,-234,0,-336,-4,-161
-43,-29,14,36,-29,-7,-736,-234,0,-341,-9,-161
-48,-29,19,39,-34,-4,-736,-239,-4,-331,-9,-165
-48,-24,24,36,-36,0,-736,-239,-4,-336,-9,-165
-53,-34,19,43,-36,-7,-751,-234,0,-341,-14,-156
-48,-34,14,41,-31,-9,-766,-234,-4,-341,-14,-161
-48,-34,14,41,-31,-9,-766,-234,-4,-331,-9,-161
-53,-34,19,43,-36,-7,-766,-234,-9,-322,-9,-156
-43,-29,14,36,-29,-7,-761,-224,-24,-326,0,-156
-39,-19,19,29,-29,0,-756,-234,-24,-326,0,-165
-39,-14,24,26,-31,4,-751,-234,-29,-326,-9,-165
-43,-9,34,26,-39,12,-741,-239,-43,-331,-9,-170
-53,-19,34,36,-43,7,-756,-239,-43,-341,-9,-161
-53,-19,34,36,-43,7,-761,-234,-43,-322,-4,-156
-53,-14,39,34,-46,12,-766,-234,-48,-307,-4,-156
-53,-14,39,34,-46,12,-766,-239,-58,-297,-9,-161
-43,-4,39,24,-41,17,-751,-229,-68,-297,-9,-161
-39,-4,34,21,-36,14,-732,-239,-73,-297,-9,-161
-39,0,39,19,-39,19,-717,-239,-73,-297,-4,-156
-39,0,39,19,-39,19,-717,-244,-87,-297,-4,-156
-58,-9,48,34,-53,19,-727,-258,-97,-312,0,-156
-68,-14,53,41,-61,19,-727,-263,-102,-317,0,-156
-78,-14,63,46,-70,24,-732,-268,-107,-312,0,-156
-68,-14,53,41,-61,19,-736,-268,-117,-312,-4,-156
-73,-19,53,46,-63,17,-732,-273,-112,-322,-14,-156
-73,-19,53,46,-63,17,-727,-278,-122,-326,-14,-156
-73,-14,58,43,-65,21,-732,-287,-126,-326,-14,-156
-73,-14,58,43,-65,21,-746,-292,-136,-326,-14,-165
-68,-4,63,36,-65,29,-761,-312,-151,-341,-24,-156
-58,0,58,29,-58,29,-771,-317,-156,-341,-24,-146
-53,4,58,24,-56,31,-775,-317,-175,-336,-19,-146
-53,4,58,24,-56,31,-761,-326,-190,-336,-19,-146
-63,14,78,24,-70,46,-756,-336,-200,-341,-29,-156
-68,14,82,26,-75,48,-761,-341,-209,-341,-29,-156
-73,4,78,34,-75,41,-771,-351,-219,-351,-34,-156
-82,4,87,39,-85,46,-780,-356,-224,-361,-34,-156
-73,9,82,31,-78,46,-775,-366,-234,-361,-34,-161
-73,19,92,26,-82,56,-766,-370,-244,-366,-34,-161
-73,19,92,26,-82,56,-761,-380,-258,-366,-29,-156
-82,19,102,31,-92,61,-756,-380,-263,-370,-29,-151
-78,29,107,24,-92,68,-766,-380,-268,-366,-29,-151
-68,34,102,17,-85,68,-766,-395,-283,-366,-34,-151
-58,34,92,12,-75,63,-766,-400,-283,-370,-34,-146
-53,34,87,9,-70,61,-771,-400,-292,-375,-29,-146
-63,29,92,17,-78,61,-775,-405,-312,-375,-29,-156
-63,29,92,17,-78,61,-785,-419,-322,-375,-29,-156
-63,34,97,14,-80,65,-780,-419,-326,-380,-24,-156
-63,34,97,14,-80,65,-780,-434,-331,-380,-24,-156
-53,34,87,9,-70,61,-785,-439,-336,-361,-34,-156
-53,34,87,9,-70,61,-780,-439,-336,-346,-34,-156
-53,39,92,7,-73,65,-780,-453,-351,-346,-34,-156
-53,39,92,7,-73,65,-790,-453,-351,-346,-29,-156
-48,39,87,4,-68,63,-775,-453,-341,-331,-19,-141
-48,43,92,2,-70,68,-775,-453,-341,-326,-14,-141
-58,43,102,7,-80,73,-771,-448,-341,-322,-14,-131
-43,53,97,-4,-70,75,-751,-448,-341,-307,-14,-126
-29,58,87,-14,-58,73,-717,-448,-341,-292,-9,-136
-19,63,82,-21,-51,73,-702,-444,-336,-273,-4,-136
-19,63,82,-21,-51,73,-688,-439,-331,-258,-4,-126
-19,63,82,-21,-51,73,-683,-434,-326,-253,0,-122
-14,53,68,-19,-41,61,-668,-424,-312,-234,19,-126
-9,58,68,-24,-39,63,-658,-414,-297,-209,34,-112
-9,58,68,-24,-39,63,-653,-409,-292,-200,34,-112
-4,53,58,-24,-31,56,-649,-405,-287,-190,34,-122
-4,43,48,-19,-26,46,-634,-405,-273,-165,24,-131
-4,48,53,-21,-29,51,-629,-409,-268,-151,24,-131
0,53,53,-26,-26,53,-605,-405,-258,-146,24,-131
14,58,43,-36,-14,51,-590,-390,-239,-141,34,-122
29,53,24,-41,2,39,-580,-370,-229,-126,29,-122
19,48,29,-34,-4,39,-590,-366,-219,-117,24,-122
19,34,14,-26,2,24,-580,-361,-204,-112,19,-122
24,29,4,-26,9,17,-566,-346,-195,-107,14,-107
19,43,24,-31,-2,34,-556,-336,-161,-92,19,-107
14,43,29,-29,-7,36,-536,-326,-146,-87,19,-107
9,34,24,-21,-7,29,-527,-326,-141,-73,24,-102
4,29,24,-17,-9,26,-517,-312,-126,-63,24,-102
14,19,4,-17,4,12,-512,-292,-107,-53,14,-82
14,14,0,-14,7,7,-507,-292,-102,-53,14,-82
14,14,0,-14,7,7,-512,-283,-82,-63,19,-73
19,14,-4,-17,12,4,-522,-268,-58,-63,19,-68
9,0,-9,-4,9,-4,-512,-248,-43,-53,19,-68
9,0,-9,-4,9,-4,-497,-248,-29,-48,19,-68
9,0,-9,-4,9,-4,-473,-239,-14,-43,19,-68
9,0,-9,-4,9,-4,-453,-224,4,-34,19,-78
4,-4,-9,0,7,-7,-463,-224,9,-39,19,-78
4,-9,-14,2,9,-12,-483,-214,24,-39,19,-78
9,-9,-19,0,14,-14,-492,-200,34,-39,19,-82
9,-9,-19,0,14,-14,-492,-190,53,-48,19,-82
-4,-9,-4,7,0,-7,-478,-180,53,-48,14,-73
-4,-9,-4,7,0,-7,-458,-170,63,-43,14,-82
0,-9,-9,4,4,-9,-444,-170,82,-39,9,-82
0,-9,-9,4,4,-9,-429,-161,97,-34,9,-87
4,-9,-14,2,9,-12,-429,-165,97,-29,4,-87
4,-14,-19,4,12,-17,-434,-151,107,-39,4,-92
4,-14,-19,4,12,-17,-439,-146,107,-39,4,-92
14,-14,-29,0,21,-21,-453,-141,117,-39,0,-92
14,-4,-19,-4,17,-12,-448,-136,131,-34,0,-87
14,0,-14,-7,14,-7,-444,-131,141,-39,0,-87
4,-4,-9,0,7,-7,-453,-126,141,-53,0,-92
-4,-4,0,4,-2,-2,-453,-126,141,-63,-9,-92
-4,-14,-9,9,2,-12,-453,-136,136,-63,0,-92
0,-14,-14,7,7,-14,-463,-131,136,-68,0,-92
4,-14,-19,4,12,-17,-453,-122,141,-73,0,-92
4,-19,-24,7,14,-21,-434,-122,151,-58,-9,-92
-14,-19,-4,17,-4,-12,-419,-122,161,-53,-9,-97
-14,-14,0,14,-7,-7,-419,-107,165,-53,-4,-97
-14,-14,0,14,-7,-7,-434,-107,165,-63,-4,-97
-24,-14,9,19,-17,-2,-434,-107,165,-58,-4,-97
-24,-24,0,24,-12,-12,-429,-107,165,-53,-14,-97
-19,-29,-9,24,-4,-19,-429,-107,161,-68,-14,-97
-19,-29,-9,24,-4,-19,-434,-107,161,-82,-14,-92
-19,-29,-9,24,-4,-19,-429,-102,156,-68,-4,-92
-9,-24,-14,17,2,-19,-439,-112,156,-63,-14,-87
-9,-24,-14,17,2,-19,-448,-112,156,-58,-14,-92
-9,-19,-9,14,0,-14,-448,-112,156,-58,-14,-97
-9,-9,0,9,-4,-4,-444,-112,156,-53,-9,-102
-14,-9,4,12,-9,-2,-439,-107,156,-63,-9,-92
-14,-14,0,14,-7,-7,-429,-107,156,-63,-9,-92
-14,-14,0,14,-7,-7,-444,-107,156,-63,-9,-92
-19,-19,0,19,-9,-9,-458,-102,161,-58,-9,-97
-9,-19,-9,14,0,-14,-444,-92,161,-48,-19,-97
-4,-19,-14,12,4,-17,-409,-87,161,-48,-19,-97
4,-9,-14,2,9,-12,-400,-87,161,-29,-19,-97
4,-4,-9,0,7,-7,-395,-82,161,-19,-19,-97
-9,-4,4,7,-7,0,-385,-92,161,-19,-9,-97
-34,-14,19,24,-26,2,-366,-92,161,-4,-14,-102
-39,-29,9,34,-24,-9,-361,-92,161,4,-14,-102
-39,-29,9,34,-24,-9,-351,-87,161,4,-14,-107
-14,-24,-9,19,-2,-17,-341,-87,151,14,-14,-97
-14,-9,4,12,-9,-2,-336,-87,146,14,-14,-102
-14,-9,4,12,-9,-2,-322,-87,146,34,-14,-102
-24,-19,4,21,-14,-7,-302,-82,146,39,-14,-102
-34,-19,14,26,-24,-2,-297,-92,146,34,-29,-107
-29,-14,14,21,-21,0,-283,-87,146,53,-29,-112
-29,-14,14,21,-21,0,-273,-87,146,63,-24,-112
-19,-14,4,17,-12,-4,-283,-87,146,63,-24,-117
-9,-19,-9,14,0,-14,-283,-97,136,53,-34,-122
-14,-24,-9,19,-2,-17,-268,-97,136,53,-39,-122
-19,-24,-4,21,-7,-14,-263,-97,136,53,-39,-122
-24,-19,4,21,-14,-7,-263,-97,136,63,-39,-122
-34,-9,24,21,-29,7,-268,-97,146,78,-24,-117
-29,-9,19,19,-24,4,-263,-97,141,78,-24,-117
-29,-9,19,19,-24,4,-248,-97,136,78,-24,-117
-29,-19,9,24,-19,-4,-253,-102,136,87,-24,-112
-19,-19,0,19,-9,-9,-244,-102,126,87,-24,-102
-19,-19,0,19,-9,-9,-244,-102,126,82,-24,-102
-19,-19,0,19,-9,-9,-248,-102,126,78,-24,-102
-29,-29,0,29,-14,-14,-248,-102,126,73,-24,-97
-29,-19,9,24,-19,-4,-248,-102,126,63,-24,-92
-24,-19,4,21,-14,-7,-239,-102,122,63,-24,-82
-14,-14,0,14,-7,-7,-229,-102,122,78,-24,-78
-14,-4,9,9,-12,2,-234,-102,122,82,-29,-68
-24,-14,9,19,-17,-2,-234,-122,122,73,-29,-58
-29,-24,4,26,-17,-9,-253,-122,122,73,-29,-53
-34,-39,-4,36,-14,-21,-273,-117,122,73,-24,-53
-34,-39,-4,36,-14,-21,-273,-117,122,73,-24,-58
-24,-29,-4,26,-9,-17,-244,-117,122,73,-24,-58
-24,-29,-4,26,-9,-17,-244,-117,122,78,-24,-53
-24,-24,0,24,-12,-12,-229,-122,117,102,-29,-53
-24,-24,0,24,-12,-12,-190,-122,117,117,-29,-63
0,-14,-14,7,7,-14,-146,-126,117,156,-29,-53
0,-9,-9,4,4,-9,-112,-126,117,175,-29,-53
0,-4,-4,2,2,-4,-92,-126,117,195,-29,-48
-9,0,9,4,-9,4,-78,-131,117,219,-34,-48
-14,-9,4,12,-9,-2,-39,-131,107,244,-34,-48
-14,-9,4,12,-9,-2,0,-126,107,268,-29,-48
-4,-4,0,4,-2,-2,39,-126,112,297,-24,-48
-4,-4,0,4,-2,-2,63,-131,112,322,-24,-48
-19,-19,0,19,-9,-9,87,-136,107,351,-24,-48
-19,-19,0,19,-9,-9,141,-136,107,370,-29,-48
-19,-19,0,19,-9,-9,195,-136,97,395,-29,-48
-39,-34,4,36,-21,-14,229,-136,97,424,-29,-48
-29,-43,-14,36,-7,-29,268,-136,92,473,-19,-48
-24,-29,-4,26,-9,-17,302,-131,92,502,-19,-48
-29,-24,4,26,-17,-9,317,-131,92,522,-19,-48
-39,-24,14,31,-26,-4,331,-131,92,541,-19,-48
-29,-19,9,24,-19,-4,366,-131,92,551,-19,-48
-24,-19,4,21,-14,-7,395,-131,92,570,-19,-48
-24,-24,0,24,-12,-12,419,-131,92,580,-19,-48
-34,-24,9,29,-21,-7,434,-131,92,580,-19,-48
-34,-24,9,29,-21,-7,473,-131,102,610,-19,-58
-34,-19,14,26,-24,-2,517,-131,107,634,-14,-58
-19,-19,0,19,-9,-9,531,-126,107,649,-14,-58
-4,-9,-4,7,0,-7,546,-122,107,663,-19,-58
-24,-9,14,17,-19,2,575,-122,97,668,-19,-58
-34,-9,24,21,-29,7,590,-122,97,673,-19,-58
-24,-9,14,17,-19,2,585,-122,97,673,-19,-58
-24,-9,14,17,-19,2,580,-122,97,653,-19,-58
-19,-14,4,17,-12,-4,570,-131,87,649,-19,-63
-19,-4,14,12,-17,4,570,-136,87,649,-14,-68
-19,-19,0,19,-9,-9,570,-136,87,649,-14,-73
-19,-29,-9,24,-4,-19,556,-136,87,644,-14,-68
-29,-29,0,29,-14,-14,546,-131,97,629,-14,-68
-29,-9,19,19,-24,4,551,-131,97,624,-14,-68
-39,-9,29,24,-34,9,561,-126,97,624,-14,-68
-29,-14,14,21,-21,0,551,-117,97,619,-9,-63
0,-9,-9,4,4,-9,561,-97,102,614,-9,-63
9,0,-9,-4,9,-4,561,-92,107,614,-9,-63
-9,4,14,2,-12,9,551,-92,112,610,-9,-63
-9,9,19,0,-14,14,546,-92,117,600,-9,-63
-4,19,24,-7,-14,21,527,-97,126,590,-19,-63
4,29,24,-17,-9,26,512,-97,136,585,-19,-48
9,43,34,-26,-12,39,502,-82,141,575,-9,-43
9,34,24,-21,-7,29,488,-78,141,556,-4,-43
0,24,24,-12,-12,24,458,-68,141,531,-4,-53
-4,24,29,-9,-17,26,429,-68,146,517,-4,-53
-4,14,19,-4,-12,17,395,-68,146,497,-4,-58
-9,9,19,0,-14,14,361,-73,131,478,-9,-63
0,9,9,-4,-4,9,322,-87,141,444,-14,-58
0,9,9,-4,-4,9,278,-92,126,419,-14,-58
0,14,14,-7,-7,14,258,-97,126,400,-14,-53
0,19,19,-9,-9,19,248,-102,126,385,-14,-53
-9,24,34,-7,-21,29,170,-102,136,326,-14,-43
0,48,48,-24,-24,48,165,-97,126,312,-9,-58
9,48,39,-29,-14,43,151,-107,136,297,0,-48
9,48,39,-29,-14,43,146,-107,136,292,0,-48
9,48,39,-29,-14,43,141,-107,136,287,0,-48
9,48,39,-29,-14,43,136,-107,136,283,0,-48
9,39,29,-24,-9,34,97,-107,126,258,0,-39
19,39,19,-29,0,29,58,-112,126,239,0,-39
19,43,24,-31,-2,34,34,-107,131,214,0,-39
19,43,24,-31,-2,34,4,-112,131,200,0,-39
24,48,24,-36,0,36,-24,-107,126,185,9,-39
34,48,14,-41,9,31,-24,-107,126,185,14,-34
43,48,4,-46,19,26,-19,-102,126,185,14,-24
48,48,0,-48,24,24,-39,-92,122,180,14,-24
34,39,4,-36,14,21,-68,-97,112,161,14,-29
29,34,4,-31,12,19,-87,-97,112,146,9,-43
29,29,0,-29,14,14,-102,-97,112,131,9,-39
29,29,0,-29,14,14,-117,-92,112,122,9,-43
29,29,0,-29,14,14,-131,-97,97,97,-4,-43
19,9,-9,-14,14,0,-156,-112,92,78,-9,-43
19,9,-9,-14,14,0,-161,-117,87,63,-14,-48
19,9,-9,-14,14,0,-170,-122,78,48,-14,-53
24,0,-24,-12,24,-12,-195,-112,78,29,-19,-53
24,0,-24,-12,24,-12,-219,-107,82,24,-19,-48
29,4,-24,-17,26,-9,-244,-102,82,14,-14,-48
34,4,-29,-19,31,-12,-268,-102,82,9,-14,-48
34,4,-29,-19,31,-12,-292,-107,73,-4,-24,-58
19,-4,-24,-7,21,-14,-287,-107,73,-14,-24,-58
19,-4,-24,-7,21,-14,-273,-112,73,-14,-24,-48
29,4,-24,-17,26,-9,-278,-107,78,-24,-19,-48
39,14,-24,-26,31,-4,-312,-107,68,-43,-19,-58
34,4,-29,-19,31,-12,-322,-107,68,-63,-29,-68
19,-4,-24,-7,21,-14,-341,-107,58,-82,-34,-78
19,-14,-34,-2,26,-24,-356,-107,58,-82,-39,-78
0,-29,-29,14,14,-29,-375,-102,63,-87,-48,-92
-9,-29,-19,19,4,-24,-380,-102,68,-97,-53,-97
-14,-39,-24,26,4,-31,-385,-97,68,-97,-58,-102
-14,-39,-24,26,4,-31,-390,-92,63,-107,-58,-102
-14,-48,-34,31,9,-41,-405,-92,63,-122,-63,-102
-14,-48,-34,31,9,-41,-405,-78,73,-126,-63,-102
-19,-48,-29,34,4,-39,-419,-78,73,-126,-68,-97
-24,-48,-24,36,0,-36,-434,-78,73,-122,-68,-97
-24,-48,-24,36,0,-36,-434,-78,68,-122,-73,-107
-29,-48,-19,39,-4,-34,-409,-78,68,-117,-73,-107
-29,-48,-19,39,-4,-34,-395,-78,73,-117,-68,-107
-24,-48,-24,36,0,-36,-390,-78,73,-102,-68,-107
-29,-58,-29,43,0,-43,-385,-78,68,-78,-58,-97
-24,-58,-34,41,4,-46,-375,-78,68,-73,-58,-97
-24,-58,-34,41,4,-46,-356,-73,73,-68,-58,-97
-24,-53,-29,39,2,-41,-341,-73,73,-63,-63,-92
-34,-53,-19,43,-7,-36,-331,-73,73,-43,-63,-102
-34,-53,-19,43,-7,-36,-322,-73,73,-34,-63,-102
-34,-53,-19,43,-7,-36,-331,-73,73,-29,-68,-112
-34,-53,-19,43,-7,-36,-322,-73,73,-19,-68,-117
-34,-43,-9,39,-12,-26,-287,-73,73,-9,-68,-122
-39,-48,-9,43,-14,-29,-278,-73,73,-9,-68,-122
-43,-53,-9,48,-17,-31,-273,-73,73,-4,-68,-122
-43,-53,-9,48,-17,-31,-268,-73,78,0,-68,-126
-43,-39,4,41,-24,-17,-219,-63,78,19,-58,-126
-48,-48,0,48,-24,-24,-244,-73,78,9,-68,-136
-48,-48,0,48,-24,-24,-253,-78,82,4,-87,-136
-48,-29,19,39,-34,-4,-268,-68,102,-4,-92,-141
-53,-14,39,34,-46,12,-263,-73,117,-14,-102,-141
-87,-19,68,53,-78,24,-263,-73,131,-29,-112,-161
-126,-14,112,70,-119,48,-253,-58,136,-63,-131,-165
-141,-4,136,73,-139,65,-244,-58,141,-78,-131,-165
-141,4,146,68,-143,75,-253,-58,131,-102,-136,-165
-131,34,165,48,-148,100,-263,-68,112,-117,-136,-156
-126,58,185,34,-156,122,-268,-58,107,-122,-126,-131
-117,53,170,31,-143,112,-292,-63,107,-122,-102,-122
-107,68,175,19,-141,122,-331,-63,117,-102,-87,-102
-97,117,214,-9,-156,165,-346,-48,151,-58,-39,-63
-63,190,253,-63,-158,222,-370,-19,224,4,29,-4
-14,234,248,-109,-131,241,-390,9,297,78,107,53
19,268,248,-143,-114,258,-409,24,331,136,185,107
63,287,224,-175,-80,256,-458,19,336,204,283,180
107,326,219,-217,-56,273,-527,-9,312,292,375,253
175,380,204,-278,-14,292,-566,-63,253,341,478,336
253,409,156,-331,48,283,-580,-107,175,356,570,405
351,414,63,-383,143,239,-610,-141,126,414,663,483
444,380,-63,-412,253,158,-629,-122,136,507,766,536
531,287,-244,-409,387,21,-610,-48,209,629,858,580
595,190,-405,-392,500,-107,-580,-4,248,707,932,614
610,107,-502,-358,556,-197,-575,4,248,697,936,605
619,4,-614,-312,617,-305,-566,29,239,595,868,556
610,-112,-722,-248,666,-417,-541,68,214,375,702,439
566,-200,-766,-183,666,-483,-522,78,190,58,448,292
507,-253,-761,-126,634,-507,-522,82,161,-219,219,156
463,-278,-741,-92,602,-509,-561,53,117,-361,68,82
429,-268,-697,-80,563,-483,-605,24,82,-439,-39,34
375,-287,-663,-43,519,-475,-590,53,117,-492,-141,-43
317,-307,-624,-4,470,-466,-566,102,156,-522,-229,-117
263,-283,-546,9,405,-414,-536,131,214,-468,-253,-161
190,-258,-448,34,319,-353,-478,185,317,-375,-253,-195
117,-258,-375,70,246,-317,-405,287,434,-326,-263,-214
73,-273,-346,100,209,-309,-361,346,439,-322,-278,-244
29,-263,-292,117,161,-278,-341,331,361,-331,-307,-263
-39,-253,-214,146,87,-234,-326,336,307,-341,-307,-273
-78,-244,-165,161,43,-204,-307,380,322,-346,-292,-273
-122,-239,-117,180,-2,-178,-287,434,331,-346,-292,-287
-165,-229,-63,197,-51,-146,-278,468,317,-336,-283,-287
-185,-234,-48,209,-68,-141,-229,517,302,-307,-287,-287
-195,-234,-39,214,-78,-136,-170,566,307,-297,-292,-292
-195,-234,-39,214,-78,-136,-146,619,292,-317,-292,-307
-190,-224,-34,207,-78,-129,-141,658,263,-307,-302,-312
-180,-219,-39,200,-70,-129,-141,688,248,-312,-307,-326
-204,-234,-29,219,-87,-131,-170,692,219,-326,-322,-331
-214,-258,-43,236,-85,-151,-185,697,180,-336,-322,-331
-219,-248,-29,234,-95,-139,-146,707,175,-336,-317,-322
-219,-244,-24,231,-97,-134,-82,702,180,-336,-326,-317
-219,-234,-14,226,-102,-124,-53,692,180,-336,-326,-317
-219,-244,-24,231,-97,-134,-73,688,195,-326,-326,-317
-234,-244,-9,239,-112,-126,-63,673,209,-312,-322,-317
-253,-239,14,246,-134,-112,-29,614,200,-302,-322,-326
-244,-224,19,234,-131,-102,-29,541,165,-312,-326,-326
-244,-224,19,234,-131,-102,-39,483,131,-302,-326,-331
-239,-224,14,231,-126,-104,-82,424,107,-297,-326,-322
-229,-224,4,226,-117,-109,-180,356,97,-297,-302,-312
-200,-204,-4,202,-97,-104,-248,312,78,-278,-283,-292
-170,-165,4,168,-87,-80,-302,253,63,-278,-268,-268
-165,-136,29,151,-97,-53,-361,185,43,-268,-244,-239
-156,-122,34,139,-95,-43,-458,112,39,-244,-229,-229
-146,-102,43,124,-95,-29,-556,53,39,-224,-214,-214
-126,-87,39,107,-82,-24,-605,9,53,-219,-204,-195
-92,-82,9,87,-51,-36,-653,-24,63,-219,-185,-170
-82,-82,0,82,-41,-41,-712,-43,53,-239,-185,-175
-78,-82,-4,80,-36,-43,-707,-39,53,-234,-170,-165
-63,-82,-19,73,-21,-51,-707,-48,53,-234,-170,-156
-63,-73,-9,68,-26,-41,-707,-53,48,-239,-170,-156
-58,-73,-14,65,-21,-43,-707,-58,48,-253,-170,-156
-68,-78,-9,73,-29,-43,-722,-58,48,-253,-161,-146
-68,-78,-9,73,-29,-43,-741,-58,48,-253,-161,-146
-63,-73,-9,68,-26,-41,-766,-63,43,-258,-161,-141
-63,-73,-9,68,-26,-41,-785,-78,39,-273,-156,-141
-63,-68,-4,65,-29,-36,-771,-78,29,-273,-156,-131
-63,-68,-4,65,-29,-36,-766,-82,24,-273,-156,-126
-63,-68,-4,65,-29,-36,-761,-92,19,-278,-156,-126
-58,-63,-4,61,-26,-34,-756,-97,19,-278,-156,-126
-58,-53,4,56,-31,-24,-746,-107,29,-268,-165,-117
-53,-53,0,53,-26,-26,-741,-107,24,-258,-165,-117
-53,-53,0,53,-26,-26,-741,-112,24,-258,-161,-107
-53,-53,0,53,-26,-26,-771,-112,14,-258,-161,-107
-63,-58,4,61,-34,-26,-761,-107,14,-239,-161,-117
-48,-48,0,48,-24,-24,-751,-107,9,-234,-161,-117
-63,-63,0,63,-31,-31,-741,-112,4,-234,-161,-117
-82,-73,9,78,-46,-31,-727,-117,4,-229,-170,-122
-73,-63,9,68,-41,-26,-702,-126,4,-214,-170,-122
-53,-53,0,53,-26,-26,-678,-122,4,-195,-165,-107
-53,-53,0,53,-26,-26,-668,-122,0,-161,-161,-107
-58,-58,0,58,-29,-29,-653,-122,-4,-156,-161,-117
-63,-58,4,61,-34,-26,-634,-117,-9,-141,-151,-117
-63,-58,4,61,-34,-26,-605,-112,-14,-126,-151,-112
-63,-58,4,61,-34,-26,-575,-112,-24,-102,-156,-112
-68,-58,9,63,-39,-24,-551,-107,-24,-87,-161,-122
-63,-53,9,58,-36,-21,-536,-117,-19,-68,-161,-122
-63,-48,14,56,-39,-17,-522,-117,-19,-58,-165,-122
-68,-43,24,56,-46,-9,-497,-122,-24,-34,-165,-126
-68,-34,34,51,-51,0,-473,-122,-24,-24,-165,-126
-73,-43,29,58,-51,-7,-448,-107,-29,-9,-151,-126
-68,-43,24,56,-46,-9,-434,-107,-34,0,-151,-131
-68,-43,24,56,-46,-9,-405,-107,-34,19,-146,-131
-73,-43,29,58,-51,-7,-375,-107,-39,39,-146,-126
-73,-53,19,63,-46,-17,-341,-117,-43,53,-156,-136
-68,-48,19,58,-43,-14,-326,-126,-43,63,-156,-146
-68,-48,19,58,-43,-14,-312,-126,-48,73,-165,-146
-73,-48,24,61,-48,-12,-292,-131,-63,78,-165,-151
-63,-48,14,56,-39,-17,-268,-141,-63,78,-165,-151
-63,-48,14,56,-39,-17,-253,-136,-63,107,-161,-146
-63,-43,19,53,-41,-12,-239,-136,-68,131,-161,-146
-63,-43,19,53,-41,-12,-219,-141,-78,151,-165,-151
-63,-34,29,48,-46,-2,-180,-131,-68,170,-165,-141
-58,-34,24,46,-41,-4,-146,-141,-73,180,-165,-141
-58,-29,29,43,-43,0,-117,-141,-73,190,-161,-136
-58,-29,29,43,-43,0,-102,-146,-87,200,-161,-136
-78,-39,39,58,-58,0,-92,-151,-87,204,-175,-136
-87,-43,43,65,-65,0,-82,-156,-92,209,-175,-136
-97,-43,53,70,-75,4,-78,-161,-97,224,-175,-136
-87,-43,43,65,-65,0,-73,-161,-107,234,-180,-136
-73,-39,34,56,-53,-2,-39,-165,-112,244,-170,-136
-73,-39,34,56,-53,-2,-14,-170,-122,248,-170,-136
-73,-34,39,53,-56,2,0,-180,-126,258,-170,-136
-73,-34,39,53,-56,2,4,-185,-136,268,-170,-146
-73,-34,39,53,-56,2,4,-185,-136,278,-190,-146
-68,-29,39,48,-53,4,9,-190,-136,283,-190,-136
-68,-24,43,46,-56,9,19,-190,-151,292,-185,-136
-73,-24,48,48,-61,12,48,-200,-161,297,-185,-136
-73,-24,48,48,-61,12,82,-200,-161,302,-185,-126
-78,-24,53,51,-65,14,87,-204,-170,312,-185,-126
-82,-34,48,58,-65,7,87,-214,-180,312,-190,-126
-92,-34,58,63,-75,12,87,-219,-185,312,-190,-126
-73,-24,48,48,-61,12,107,-229,-195,307,-190,-122
-73,-9,63,41,-68,26,122,-234,-204,307,-190,-122
-73,-4,68,39,-70,31,131,-244,-219,312,-185,-117
-82,0,82,41,-82,41,141,-244,-224,312,-185,-112
-87,-4,82,46,-85,39,136,-244,-239,322,-204,-117
-87,-4,82,46,-85,39,141,-258,-253,326,-209,-122
-87,-9,78,48,-82,34,146,-263,-253,326,-209,-122
-92,-14,78,53,-85,31,146,-263,-263,326,-204,-126
-82,0,82,41,-82,41,165,-268,-263,331,-195,-126
-82,0,82,41,-82,41,170,-283,-273,336,-195,-126
-82,4,87,39,-85,46,190,-283,-278,336,-190,-126
-82,4,87,39,-85,46,204,-297,-283,341,-190,-126
-82,14,97,34,-90,56,195,-302,-302,336,-200,-126
-82,14,97,34,-90,56,204,-302,-307,346,-200,-126
-82,19,102,31,-92,61,209,-317,-326,341,-200,-126
-82,19,102,31,-92,61,204,-317,-331,336,-195,-126
-78,19,97,29,-87,58,204,-331,-341,341,-195,-131
-78,24,102,26,-90,63,200,-336,-341,336,-190,-131
-87,24,112,31,-100,68,200,-336,-341,331,-190,-122
-73,34,107,19,-90,70,214,-341,-341,336,-190,-117
-78,39,117,19,-97,78,224,-356,-356,331,-195,-117
-68,43,112,12,-90,78,224,-356,-356,341,-190,-117
-68,43,112,12,-90,78,224,-356,-356,346,-190,-107
-68,43,112,12,-90,78,214,-356,-356,341,-185,-102
-63,43,107,9,-85,75,209,-361,-361,336,-175,-102
-58,48,107,4,-82,78,200,-356,-356,346,-161,-92
-58,48,107,4,-82,78,185,-356,-361,341,-161,-97
-53,43,97,4,-75,70,170,-356,-366,336,-161,-112
-63,34,97,14,-80,65,156,-361,-366,326,-151,-122
-63,39,102,12,-82,70,151,-370,-366,326,-151,-122
-58,43,102,7,-80,73,165,-370,-361,317,-151,-122
-43,48,92,-2,-68,70,170,-361,-346,307,-141,-112
-29,53,82,-12,-56,68,141,-351,-356,297,-131,-102
-39,58,97,-9,-68,78,112,-346,-346,292,-131,-102
-39,53,92,-7,-65,73,102,-341,-331,283,-131,-102
-34,58,92,-12,-63,75,97,-326,-322,273,-131,-87
-24,63,87,-19,-56,75,82,-326,-307,268,-117,-97
-24,63,87,-19,-56,75,87,-317,-292,263,-117,-97
-24,53,78,-14,-51,65,82,-317,-287,268,-112,-92
-24,48,73,-12,-48,61,78,-302,-273,268,-112,-92
-14,48,63,-17,-39,56,63,-302,-268,258,-102,-82
-14,43,58,-14,-36,51,58,-302,-268,258,-102,-82
-14,43,58,-14,-36,51,43,-292,-253,248,-97,-73
-9,43,53,-17,-31,48,24,-278,-234,248,-97,-68
0,48,48,-24,-24,48,9,-278,-224,244,-107,-78
0,48,48,-24,-24,48,9,-278,-214,244,-107,-78
0,48,48,-24,-24,48,19,-268,-204,244,-107,-78
0,48,48,-24,-24,48,24,-253,-190,248,-107,-87
4,43,39,-24,-17,41,24,-239,-180,253,-97,-78
4,39,34,-21,-14,36,4,-224,-161,253,-97,-78
9,39,29,-24,-9,34,-4,-204,-146,253,-97,-82
9,39,29,-24,-9,34,-4,-190,-122,244,-97,-82
4,39,34,-21,-14,36,-14,-190,-112,229,-92,-82
4,39,34,-21,-14,36,-9,-180,-102,229,-92,-92
9,39,29,-24,-9,34,-9,-180,-82,229,-97,-92
9,39,29,-24,-9,34,-9,-170,-68,229,-97,-97
4,39,34,-21,-14,36,-19,-156,-48,214,-102,-97
4,34,29,-19,-12,31,-24,-141,-39,204,-102,-102
4,34,29,-19,-12,31,-29,-136,-39,204,-102,-102
14,34,19,-24,-2,26,-43,-131,-29,204,-107,-102
14,34,19,-24,-2,26,-58,-117,-14,195,-107,-117
14,29,14,-21,0,21,-63,-112,-4,185,-107,-117
4,14,9,-9,-2,12,-82,-107,-4,165,-107,-122
-4,4,9,0,-7,7,-92,-107,-4,151,-117,-122
-14,4,19,4,-17,12,-112,-107,9,141,-126,-122
-9,4,14,2,-12,9,-141,-102,9,126,-126,-122
-4,4,9,0,-7,7,-151,-92,14,112,-126,-122
-4,0,4,2,-4,2,-151,-92,24,117,-136,-122
-4,-9,-4,7,0,-7,-156,-82,43,107,-136,-126
-4,-4,0,4,-2,-2,-156,-68,48,102,-131,-126
-4,-4,0,4,-2,-2,-170,-68,48,87,-131,-126
-14,-4,9,9,-12,2,-170,-68,48,87,-131,-126
-14,4,19,4,-17,12,-175,-68,63,78,-122,-146
-9,0,9,4,-9,4,-185,-68,63,58,-122,-146
-9,0,9,4,-9,4,-200,-68,68,39,-122,-141
-9,0,9,4,-9,4,-204,-63,68,48,-112,-141
-19,-14,4,17,-12,-4,-224,-63,78,24,-107,-156
-19,-14,4,17,-12,-4,-234,-63,78,19,-102,-161
-19,-9,9,14,-14,0,-234,-63,78,9,-97,-165
-19,0,19,9,-19,9,-229,-63,78,4,-87,-170
-14,0,14,7,-14,7,-214,-58,68,9,-87,-170
-14,-4,9,9,-12,2,-204,-58,68,14,-87,-170
-14,-4,9,9,-12,2,-219,-58,68,19,-87,-170
-19,-9,9,14,-14,0,-234,-53,73,29,-87,-175
-24,-9,14,17,-19,2,-229,-53,73,19,-87,-185
-24,-9,14,17,-19,2,-204,-48,73,19,-87,-185
-19,0,19,9,-19,9,-204,-48,73,39,-87,-185
-24,4,29,9,-26,17,-209,-43,73,48,-87,-185
-19,4,24,7,-21,14,-190,-34,73,39,-87,-185
-43,-4,39,24,-41,17,-170,-34,73,53,-92,-190
-48,-19,29,34,-39,4,-165,-34,73,63,-92,-190
-48,-19,29,34,-39,4,-156,-29,73,63,-92,-195
-43,-14,29,29,-36,7,-161,-39,82,63,-92,-195
-43,0,43,21,-43,21,-161,-39,78,63,-92,-200
-43,0,43,21,-43,21,-151,-39,78,82,-92,-200
-53,-9,43,31,-48,17,-136,-34,78,87,-92,-200
-43,-9,34,26,-39,12,-141,-24,78,92,-87,-200
-39,-4,34,21,-36,14,-126,-19,78,112,-87,-200
-39,-4,34,21,-36,14,-117,-19,78,122,-82,-195
-29,-4,24,17,-26,9,-126,-19,78,122,-82,-195
-29,0,29,14,-29,14,-126,-9,87,131,-82,-200
-34,-4,29,19,-31,12,-112,-9,87,131,-87,-200
-39,-4,34,21,-36,14,-107,-9,87,131,-87,-200
-43,0,43,21,-43,21,-107,-9,87,141,-87,-200
-43,0,43,21,-43,21,-92,-9,87,146,-82,-209
-39,0,39,19,-39,19,-78,-9,82,146,-82,-214
-39,0,39,19,-39,19,-53,-9,78,146,-82,-219
-39,-9,29,24,-34,9,-48,-14,78,156,-82,-219
-48,-9,39,29,-43,14,-58,-4,78,165,-82,-229
-48,-9,39,29,-43,14,-58,-4,78,170,-82,-229
-48,-9,39,29,-43,14,-63,-4,78,175,-82,-229
-58,-19,39,39,-48,9,-63,-4,78,180,-82,-224
-58,-29,29,43,-43,0,-43,-4,68,190,-82,-229
-53,-29,24,41,-39,-2,-14,-4,63,190,-82,-229
-43,-24,19,34,-31,-2,14,-4,63,204,-82,-234
-43,-14,29,29,-36,7,29,-4,63,209,-87,-234
-34,-4,29,19,-31,12,48,-4,73,229,-87,-244
-39,-14,24,26,-31,4,48,-4,73,239,-87,-239
-43,-29,14,36,-29,-7,48,0,73,248,-82,-239
-43,-29,14,36,-29,-7,68,0,73,258,-82,-244
-43,-19,24,31,-34,2,82,-9,73,268,-82,-244
-43,-19,24,31,-34,2,78,-9,73,273,-82,-239
-43,-14,29,29,-36,7,87,-14,68,297,-87,-239
-43,-14,29,29,-36,7,122,-14,68,312,-87,-248
-39,-19,19,29,-29,0,156,-9,68,331,-87,-239
-39,-19,19,29,-29,0,190,-9,68,341,-87,-239
-39,-19,19,29,-29,0,209,-9,68,351,-87,-234
-48,-19,29,34,-39,4,224,-14,68,366,-92,-234
-63,-19,43,41,-53,12,224,-14,48,370,-102,-234
-63,-19,43,41,-53,12,224,-9,48,375,-97,-234
-53,-14,39,34,-46,12,224,-9,53,385,-92,-234
-53,-14,39,34,-46,12,209,-14,53,390,-92,-234
-48,-19,29,34,-39,4,204,-19,58,380,-92,-234
-48,-19,29,34,-39,4,229,-19,58,370,-97,-234
-48,-19,29,34,-39,4,253,-19,48,366,-97,-234
-68,-34,34,51,-51,0,258,-19,48,366,-97,-234
-48,-29,19,39,-34,-4,253,-29,53,370,-87,-234
-34,-9,24,21,-29,7,253,-24,53,366,-87,-234
-29,0,29,14,-29,14,234,-24,53,351,-87,-234
-29,4,34,12,-31,19,214,-24,53,336,-87,-234
-39,9,48,14,-43,29,200,-24,53,326,-87,-234
-34,9,43,12,-39,26,200,-24,53,326,-87,-234
-34,4,39,14,-36,21,195,-24,53,317,-87,-234
-43,4,48,19,-46,26,180,-24,53,297,-87,-234
-43,4,48,19,-46,26,180,-14,73,307,-87,-234
-43,9,53,17,-48,31,195,-14,78,312,-82,-234
-29,9,39,9,-34,24,180,-9,78,307,-82,-234
-14,19,34,-2,-24,26,165,-4,78,302,-87,-234
-14,19,34,-2,-24,26,165,-4,87,307,-78,-224
-24,19,43,2,-34,31,170,-4,87,312,-78,-224
-14,19,34,-2,-24,26,156,-4,87,312,-78,-224
-14,19,34,-2,-24,26,141,-4,87,292,-78,-224
0,34,34,-17,-17,34,151,-14,87,292,-78,-214
0,34,34,-17,-17,34,161,-19,78,317,-73,-204
0,29,29,-14,-14,29,156,-29,78,331,-78,-204
-9,34,43,-12,-26,39,146,-34,68,326,-78,-195
-9,39,48,-14,-29,43,146,-39,68,322,-78,-195
-9,43,53,-17,-31,48,146,-43,68,317,-78,-195
-9,48,58,-19,-34,53,146,-48,68,312,-78,-195
0,39,39,-19,-19,39,141,-43,58,322,-68,-185
9,39,29,-24,-9,34,126,-43,58,317,-68,-185
9,43,34,-26,-12,39,126,-34,63,307,-68,-185
9,43,34,-26,-12,39,122,-34,63,307,-68,-185
0,29,29,-14,-14,29,112,-39,58,317,-68,-185
4,29,24,-17,-9,26,131,-39,58,322,-63,-180
9,29,19,-19,-4,24,156,-34,58,326,-63,-170
9,29,19,-19,-4,24,156,-24,53,326,-63,-170
19,43,24,-31,-2,34,165,-19,53,341,-58,-161
19,43,24,-31,-2,34,175,-19,53,341,-58,-170
24,43,19,-34,2,31,190,-19,53,341,-53,-161
29,48,19,-39,4,34,204,-14,53,346,-48,-161
19,39,19,-29,0,29,224,-4,39,370,-43,-170
9,19,9,-14,0,14,224,-14,34,380,-48,-170
9,19,9,-14,0,14,244,-14,29,395,-53,-175
9,19,9,-14,0,14,258,-14,19,409,-53,-180
14,0,-14,-7,14,-7,287,-19,9,429,-68,-190
14,0,-14,-7,14,-7,307,-19,14,444,-68,-185
19,4,-14,-12,17,-4,326,-19,14,453,-63,-185
24,4,-19,-14,21,-7,346,-24,14,468,-63,-185
24,-4,-29,-9,26,-17,361,-14,4,483,-68,-195
9,-14,-24,2,17,-19,395,-9,4,502,-63,-195
9,-14,-24,2,17,-19,439,-9,4,531,-58,-185
19,-4,-24,-7,21,-14,463,0,9,551,-48,-185
29,-4,-34,-12,31,-19,458,-9,19,561,-43,-175
24,-14,-39,-4,31,-26,478,-9,19,561,-48,-185
9,-24,-34,7,21,-29,488,-9,9,561,-48,-195
9,-34,-43,12,26,-39,502,-9,9,580,-48,-195
0,-29,-29,14,14,-29,517,-4,4,600,-48,-200
-9,-29,-19,19,4,-24,546,-4,9,614,-53,-204
-14,-39,-24,26,4,-31,575,0,9,639,-58,-209
-14,-39,-24,26,4,-31,605,4,4,653,-58,-209
-24,-43,-19,34,-2,-31,639,4,4,663,-73,-224
-24,-48,-24,36,0,-36,668,19,14,663,-73,-229
-29,-53,-24,41,-2,-39,683,19,14,668,-78,-229
-34,-58,-24,46,-4,-41,697,19,14,678,-78,-234
-34,-68,-34,51,0,-51,707,19,19,692,-73,-224
-39,-68,-29,53,-4,-48,732,19,19,702,-73,-224
-39,-68,-29,53,-4,-48,746,19,24,707,-68,-224
-34,-68,-34,51,0,-51,751,19,24,727,-68,-224
-19,-58,-39,39,9,-48,741,19,9,722,-78,-224
-14,-58,-43,36,14,-51,736,19,9,707,-78,-224
-14,-58,-43,36,14,-51,741,24,14,692,-78,-224
-14,-53,-39,34,12,-46,741,24,14,678,-82,-219
-24,-63,-39,43,7,-51,717,34,14,668,-73,-209
-24,-63,-39,43,7,-51,702,34,14,658,-73,-209
-24,-63,-39,43,7,-51,668,34,14,644,-78,-219
-24,-63,-39,43,7,-51,653,34,14,634,-78,-224
-24,-53,-29,39,2,-41,649,24,14,610,-87,-229
-29,-58,-29,43,0,-43,639,24,14,585,-87,-229
-34,-63,-29,48,-2,-46,624,24,14,566,-87,-229
-34,-63,-29,48,-2,-46,610,24,19,546,-87,-234
-24,-58,-34,41,4,-46,522,24,19,507,-78,-224
-29,-39,-9,34,-9,-24,507,34,29,497,-78,-224
-29,-29,0,29,-14,-14,478,29,34,473,-87,-224
-29,-39,-9,34,-9,-24,453,19,34,444,-92,-239
-43,-34,9,39,-26,-12,439,24,29,405,-102,-248
-58,-29,29,43,-43,0,400,24,34,361,-122,-258
-97,-34,63,65,-80,14,370,19,48,317,-141,-263
-131,-34,97,82,-114,31,331,19,53,263,-170,-283
-141,-14,126,78,-134,56,283,19,53,209,-185,-292
-131,14,146,58,-139,80,273,9,43,185,-185,-283
-117,39,156,39,-136,97,248,0,19,151,-185,-287
-126,34,161,46,-143,97,214,4,0,112,-180,-278
-126,39,165,43,-146,102,165,4,0,102,-165,-258
-117,58,175,29,-146,117,122,9,24,107,-126,-239
-82,102,185,-9,-134,143,97,19,78,122,-78,-209
-43,146,190,-51,-117,168,78,48,141,165,-9,-161
-29,200,229,-85,-129,214,48,73,214,224,58,-107
-14,229,244,-107,-129,236,9,97,258,302,136,-53
19,258,239,-139,-109,248,-29,97,273,380,219,0
87,312,224,-200,-68,268,-97,82,273,458,312,73
185,380,195,-283,-4,287,-151,48,244,522,414,161
263,424,161,-344,51,292,-219,14,185,561,527,239
326,409,82,-368,122,246,-248,-4,156,605,629,322
405,375,-29,-390,217,173,-278,0,170,678,732,385
488,297,-190,-392,339,53,-297,63,229,775,814,419
561,204,-356,-383,458,-75,-292,112,278,863,878,439
590,131,-458,-361,524,-163,-263,126,287,888,897,429
600,53,-546,-326,573,-246,-268,156,283,795,849,390
595,-53,-649,-270,622,-351,-258,185,258,575,702,292
546,-156,-702,-195,624,-429,-258,219,229,248,473,156
483,-229,-712,-126,597,-470,-278,239,204,-107,244,24
439,-258,-697,-90,568,-478,-331,219,161,-322,78,-63
405,-258,-663,-73,534,-461,-405,180,107,-434,-24,-112
375,-268,-644,-53,509,-456,-458,170,87,-512,-131,-175
302,-283,-585,-9,444,-434,-448,209,117,-536,-214,-239
219,-278,-497,29,358,-387,-419,234,180,-492,-244,-283
165,-258,-424,46,295,-341,-395,278,278,-414,-253,-322
112,-244,-356,65,234,-300,-370,366,390,-370,-248,-341
78,-244,-322,82,200,-283,-351,439,419,-390,-258,-351
39,-234,-273,97,156,-253,-336,453,366,-419,-268,-380
-19,-234,-214,126,97,-224,-326,439,292,-444,-292,-400
-73,-229,-156,151,41,-192,-317,463,273,-473,-312,-414
-117,-219,-102,168,-7,-161,-287,507,278,-453,-322,-414
-165,-214,-48,190,-58,-131,-258,546,273,-424,-307,-405
-195,-195,0,195,-97,-97,-248,585,239,-414,-302,-409
-185,-185,0,185,-92,-92,-224,619,224,-414,-292,-405
-170,-195,-24,183,-73,-109,-209,688,224,-444,-302,-409
-170,-219,-48,195,-61,-134,-209,727,209,-478,-317,-414
-195,-224,-29,209,-82,-126,-209,741,170,-483,-322,-419
-185,-209,-24,197,-80,-117,-224,746,141,-492,-312,-419
-200,-219,-19,209,-90,-119,-234,727,107,-512,-326,-419
-219,-224,-4,222,-107,-114,-219,712,73,-512,-326,-414
-229,-224,4,226,-117,-109,-219,683,53,-512,-336,-414
-239,-234,4,236,-122,-114,-219,658,48,-522,-336,-414
-224,-224,0,224,-112,-112,-219,653,63,-517,-331,-414
-214,-209,4,212,-109,-102,-224,644,92,-527,-322,-405
-234,-214,19,224,-126,-97,-195,590,97,-536,-336,-414
-253,-224,29,239,-141,-97,-185,512,73,-556,-346,-429
-248,-214,34,231,-141,-90,-209,453,39,-561,-346,-419
-239,-204,34,222,-136,-85,-278,395,19,-541,-331,-409
-239,-185,53,212,-146,-65,-395,351,19,-522,-312,-380
-219,-175,43,197,-131,-65,-488,302,4,-512,-278,-356
-195,-156,39,175,-117,-58,-556,263,-4,-502,-263,-346
-175,-131,43,153,-109,-43,-634,209,-19,-507,-248,-336
-146,-102,43,124,-95,-29,-712,151,-9,-488,-224,-322
-117,-78,39,97,-78,-19,-800,126,4,-463,-204,-302
-112,-63,48,87,-80,-7,-868,92,4,-463,-195,-287
-92,-53,39,73,-65,-7,-907,63,4,-463,-195,-273
-78,-63,14,70,-46,-24,-932,48,-4,-463,-180,-273
-63,-63,0,63,-31,-31,-941,39,-4,-458,-180,-263
-63,-53,9,58,-36,-21,-951,34,-9,-458,-180,-263
-58,-53,4,56,-31,-24,-961,29,-9,-468,-180,-263
-53,-48,4,51,-29,-21,-980,39,-4,-473,-161,-253
-48,-48,0,48,-24,-24,-1005,39,0,-478,-161,-253
-39,-43,-4,41,-17,-24,-1034,34,0,-488,-161,-248
-34,-43,-9,39,-12,-26,-1058,19,0,-507,-156,-248
-43,-39,4,41,-24,-17,-1063,9,0,-512,-165,-258
-43,-39,4,41,-24,-17,-1068,4,-4,-517,-165,-253
-43,-39,4,41,-24,-17,-1073,-4,-9,-527,-165,-253
-39,-34,4,36,-21,-14,-1078,-9,-9,-531,-165,-253
-48,-43,4,46,-26,-19,-1078,-9,-9,-536,-165,-244
-43,-43,0,43,-21,-21,-1073,-9,-14,-541,-165,-244
-43,-43,0,43,-21,-21,-1073,-14,-14,-556,-161,-234
-43,-43,0,43,-21,-21,-1102,-14,-24,-570,-161,-234
-34,-29,4,31,-19,-12,-1102,-19,-14,-566,-170,-234
-19,-19,0,19,-9,-9,-1102,-19,-19,-566,-170,-234
-34,-34,0,34,-17,-17,-1102,-24,-24,-570,-170,-234
-53,-43,9,48,-31,-17,-1098,-29,-24,-570,-180,-239
-48,-24,24,36,-36,0,-1102,-29,-14,-580,-180,-229
-24,-14,9,19,-17,-2,-1107,-24,-14,-575,-175,-214
-19,-14,4,17,-12,-4,-1127,-24,-19,-556,-170,-214
-19,-19,0,19,-9,-9,-1141,-24,-24,-566,-170,-224
-29,-29,0,29,-14,-14,-1151,-29,-34,-575,-170,-224
-34,-29,4,31,-19,-12,-1141,-34,-43,-575,-170,-219
-39,-29,9,34,-24,-9,-1132,-43,-58,-566,-175,-219
-48,-29,19,39,-34,-4,-1127,-48,-63,-566,-180,-229
-63,-34,29,48,-46,-2,-1132,-39,-58,-566,-180,-229
-63,-39,24,51,-43,-7,-1137,-39,-58,-566,-185,-229
-68,-43,24,56,-46,-9,-1132,-43,-63,-551,-185,-234
-68,-43,24,56,-46,-9,-1127,-43,-63,-551,-185,-234
-58,-34,24,46,-41,-4,-1132,-48,-68,-556,-190,-234
-48,-34,14,41,-31,-9,-1137,-48,-73,-556,-190,-239
-43,-34,9,39,-26,-12,-1127,-48,-73,-546,-185,-239
-43,-34,9,39,-26,-12,-1117,-48,-78,-536,-185,-234
-43,-24,19,34,-31,-2,-1102,-48,-73,-546,-185,-244
-39,-29,9,34,-24,-9,-1137,-58,-82,-551,-185,-244
-39,-29,9,34,-24,-9,-1132,-48,-87,-546,-185,-244
-43,-19,24,31,-34,2,-1117,-58,-97,-556,-185,-253
-48,-19,29,34,-39,4,-1112,-58,-97,-556,-185,-253
-53,-19,34,36,-43,7,-1107,-58,-97,-556,-185,-253
-58,-19,39,39,-48,9,-1102,-58,-97,-556,-185,-253
-58,-29,29,43,-43,0,-1102,-68,-102,-551,-190,-258
-58,-29,29,43,-43,0,-1102,-68,-107,-546,-195,-263
-58,-29,29,43,-43,0,-1102,-68,-112,-541,-200,-268
-58,-29,29,43,-43,0,-1102,-68,-117,-536,-204,-273
-68,-19,48,43,-58,14,-1093,-78,-126,-527,-195,-273
-68,-19,48,43,-58,14,-1083,-78,-126,-527,-195,-273
-68,-19,48,43,-58,14,-1073,-78,-126,-527,-195,-273
-68,-19,48,43,-58,14,-1063,-78,-126,-527,-195,-273
-58,-9,48,34,-53,19,-1049,-82,-141,-512,-204,-273
-58,-9,48,34,-53,19,-1044,-87,-146,-507,-204,-273
-58,-9,48,34,-53,19,-1039,-92,-151,-502,-204,-273
-58,-9,48,34,-53,19,-1034,-97,-156,-497,-204,-273
-58,-9,48,34,-53,19,-1019,-112,-165,-492,-204,-283
-58,-9,48,34,-53,19,-1015,-117,-175,-488,-204,-283
-58,-9,48,34,-53,19,-1010,-122,-185,-483,-204,-283
-58,-9,48,34,-53,19,-1005,-126,-195,-478,-204,-283
-68,-9,58,39,-63,24,-976,-141,-209,-453,-214,-273
-68,-9,58,39,-63,24,-946,-146,-214,-439,-214,-273
-68,-9,58,39,-63,24,-917,-151,-219,-424,-214,-273
-68,-9,58,39,-63,24,-888,-156,-224,-409,-214,-273
-78,-9,68,43,-73,29,-873,-161,-234,-400,-214,-268
-78,-9,68,43,-73,29,-858,-165,-244,-390,-214,-263
-78,-9,68,43,-73,29,-844,-170,-253,-380,-214,-258
-78,-9,68,43,-73,29,-829,-175,-263,-370,-214,-253
-87,-9,78,48,-82,34,-800,-185,-283,-351,-224,-248
-87,-9,78,48,-82,34,-780,-195,-292,-341,-224,-244
-87,-9,78,48,-82,34,-761,-204,-302,-331,-224,-239
-87,-9,78,48,-82,34,-741,-214,-312,-322,-224,-234
-78,0,78,39,-78,39,-736,-229,-326,-317,-234,-224
-78,0,78,39,-78,39,-732,-234,-331,-312,-234,-224
-78,0,78,39,-78,39,-727,-239,-336,-307,-234,-224
-78,0,78,39,-78,39,-722,-244,-341,-302,-234,-224
-87,9,97,39,-92,53,-697,-248,-351,-283,-234,-224
-87,9,97,39,-92,53,-673,-253,-361,-273,-234,-224
-87,9,97,39,-92,53,-649,-258,-370,-263,-234,-224
-87,9,97,39,-92,53,-624,-263,-380,-253,-234,-224
-97,4,102,46,-100,53,-610,-278,-395,-234,-244,-219
-97,0,97,48,-97,48,-595,-283,-400,-224,-244,-214
-97,-4,92,51,-95,43,-580,-287,-405,-214,-244,-209
-97,-9,87,53,-92,39,-566,-292,-409,-204,-244,-204
-92,0,92,46,-92,46,-541,-297,-414,-180,-239,-200
-87,9,97,39,-92,53,-527,-302,-419,-165,-234,-195
-82,19,102,31,-92,61,-512,-307,-424,-151,-229,-190
-78,29,107,24,-92,68,-497,-312,-429,-136,-224,-185
-73,29,102,21,-87,65,-478,-312,-429,-122,-219,-165
-68,29,97,19,-82,63,-468,-312,-429,-117,-214,-156
-63,29,92,17,-78,61,-458,-312,-429,-112,-209,-146
-58,29,87,14,-73,58,-448,-312,-429,-107,-204,-136
-58,29,87,14,-73,58,-439,-312,-429,-92,-195,-131
-58,29,87,14,-73,58,-429,-312,-429,-87,-195,-126
-58,29,87,14,-73,58,-419,-312,-429,-82,-195,-122
-58,29,87,14,-73,58,-409,-312,-429,-78,-195,-117
-48,39,87,4,-68,63,-370,-292,-390,-29,-175,-78
-39,29,68,4,-53,48,-380,-283,-380,-19,-165,-78
-29,39,68,-4,-48,53,-400,-283,-380,-9,-165,-78
-29,39,68,-4,-48,53,-419,-283,-370,-9,-165,-78
-29,29,58,0,-43,43,-370,-273,-370,0,-165,-68
-29,29,58,0,-43,43,-322,-263,-351,9,-156,-58
-29,39,68,-4,-48,53,-312,-263,-331,19,-156,-58
-19,39,58,-9,-39,48,-312,-253,-322,39,-156,-58
-9,29,39,-9,-24,34,-312,-244,-312,39,-156,-58
-9,39,48,-14,-29,43,-302,-224,-283,58,-136,-48
-9,48,58,-19,-34,53,-312,-214,-263,78,-117,-29
9,58,48,-34,-19,53,-322,-204,-244,78,-117,-29
9,58,48,-34,-19,53,-312,-195,-234,78,-107,-29
0,58,58,-29,-29,58,-312,-195,-224,78,-107,-29
0,58,58,-29,-29,58,-331,-195,-214,78,-97,-29
19,78,58,-48,-19,68,-341,-185,-175,87,-78,-9
19,87,68,-53,-24,78,-341,-165,-146,107,-48,9
9,78,68,-43,-29,73,-341,-146,-117,117,-29,19
19,78,58,-48,-19,68,-341,-146,-97,126,-19,29
29,97,68,-63,-19,82,-351,-146,-97,117,-19,29
39,117,78,-78,-19,97,-351,-136,-87,107,-19,29
39,117,78,-78,-19,97,-341,-126,-78,117,-19,39
39,107,68,-73,-14,87,-361,-136,-78,97,-19,48
48,107,58,-78,-4,82,-380,-156,-97,87,0,68
68,156,87,-112,-9,122,-390,-165,-97,87,29,87
87,185,97,-136,-4,141,-419,-175,-87,97,48,107
78,165,87,-122,-4,126,-429,-195,-97,107,68,126
58,146,87,-102,-14,117,-419,-204,-97,126,87,136
68,165,97,-117,-14,131,-419,-204,-87,156,117,156
97,185,87,-141,4,136,-419,-214,-78,204,165,175
117,185,68,-151,24,126,-409,-214,-78,244,195,204
126,185,58,-156,34,122,-409,-214,-68,273,224,224
136,175,39,-156,48,107,-390,-175,0,322,224,224
136,107,-29,-122,82,39,-341,-87,117,380,224,185
136,29,-107,-82,122,-39,-273,29,253,478,224,136
146,-19,-165,-63,156,-92,-195,136,419,624,244,107
175,-58,-234,-58,204,-146,-146,234,556,751,263,87
185,-117,-302,-34,244,-209,-87,341,702,888,263,58
204,-195,-400,-4,302,-297,39,497,878,1054,273,19
224,-283,-507,29,366,-395,165,673,1063,1190,263,-29
234,-390,-624,78,429,-507,273,858,1278,1268,175,-126
214,-507,-722,146,468,-614,370,1073,1512,1288,9,-263
195,-624,-819,214,507,-722,429,1239,1698,1249,-165,-390
185,-692,-878,253,531,-785,448,1337,1766,1171,-292,-458
175,-732,-907,278,541,-819,439,1405,1805,1054,-370,-497
175,-771,-946,297,561,-858,429,1483,1844,946,-448,-536
185,-790,-976,302,580,-883,419,1542,1844,839,-507,-556
175,-829,-1005,326,590,-917,400,1610,1815,653,-566,-575
185,-878,-1063,346,624,-971,390,1698,1795,458,-605,-605
234,-897,-1132,331,683,-1015,370,1766,1776,302,-634,-624
263,-878,-1141,307,702,-1010,312,1766,1698,185,-644,-614
244,-868,-1112,312,678,-990,253,1747,1600,87,-663,-605
224,-878,-1102,326,663,-990,204,1727,1551,9,-673,-605
214,-868,-1083,326,649,-976,156,1708,1493,-29,-663,-595
195,-839,-1034,322,614,-936,146,1678,1415,-39,-653,-566
146,-800,-946,326,546,-873,165,1659,1356,-68,-653,-556
107,-761,-868,326,488,-814,165,1620,1288,-107,-634,-546
87,-722,-810,317,448,-766,146,1532,1180,-136,-614,-527
68,-683,-751,307,409,-717,107,1415,1024,-185,-595,-517
29,-644,-673,307,351,-658,87,1337,927,-204,-595,-507
0,-595,-595,297,297,-595,97,1288,907,-195,-575,-478
-48,-546,-497,297,224,-522,87,1229,878,-185,-556,-458
-97,-507,-409,302,156,-458,78,1132,800,-175,-527,-429
-136,-458,-322,297,92,-390,87,1034,722,-156,-507,-409
-175,-409,-234,292,29,-322,126,1005,702,-146,-488,-400
-204,-390,-185,297,-9,-287,165,1005,712,-117,-468,-380
-214,-380,-165,297,-24,-273,165,1005,702,-87,-439,-361
-204,-370,-165,287,-19,-268,146,1005,653,-87,-419,-341
-185,-361,-175,273,-4,-268,136,985,556,-97,-409,-331
-165,-351,-185,258,9,-268,117,976,478,-107,-400,-312
-165,-322,-156,244,-4,-239,97,1005,478,-87,-370,-283
-175,-302,-126,239,-24,-214,126,1044,488,-68,-351,-263
-175,-283,-107,229,-34,-195,126,1054,448,-58,-341,-253
-165,-263,-97,214,-34,-180,107,1044,409,-39,-322,-244
-165,-253,-87,209,-39,-170,78,1034,380,-9,-302,-224
-156,-244,-87,200,-34,-165,58,1024,341,-9,-283,-204
-136,-234,-97,185,-19,-165,78,995,292,-9,-273,-185
-126,-224,-97,175,-14,-161,97,976,234,-9,-263,-185
-117,-214,-97,165,-9,-156,48,985,195,-19,-253,-175
-117,-185,-68,151,-24,-126,-19,956,156,-19,-234,-175
-107,-146,-39,126,-34,-92,-87,868,117,0,-214,-165
-107,-126,-19,117,-43,-73,-146,732,68,19,-195,-146
-87,-107,-19,97,-34,-63,-204,575,48,39,-175,-126
-78,-68,9,73,-43,-29,-283,409,9,48,-156,-117
-68,-39,29,53,-48,-4,-370,253,-29,39,-146,-107
-48,-9,39,29,-43,14,-409,117,-48,48,-126,-87
-29,29,58,0,-43,43,-419,19,-68,39,-117,-78
-29,39,68,-4,-48,53,-419,-29,-87,29,-117,-68
-43,34,78,4,-61,56,-414,-39,-92,19,-117,-58
-48,29,78,9,-63,53,-409,-48,-97,19,-117,-58
-53,24,78,14,-65,51,-405,-58,-102,19,-117,-58
-58,19,78,19,-68,48,-400,-68,-107,19,-117,-58
-68,9,78,29,-73,43,-409,-82,-122,19,-126,-53
-68,9,78,29,-73,43,-409,-97,-126,19,-126,-48
-68,9,78,29,-73,43,-409,-112,-131,19,-126,-43
-68,9,78,29,-73,43,-409,-126,-136,19,-126,-39
-58,14,73,21,-65,43,-419,-141,-151,9,-117,-39
-58,19,78,19,-68,48,-419,-156,-156,9,-117,-39
-58,24,82,17,-70,53,-419,-170,-161,9,-117,-39
-58,29,87,14,-73,58,-419,-185,-165,9,-117,-39
-58,29,87,14,-73,58,-429,-190,-175,9,-117,-24
-58,29,87,14,-73,58,-429,-195,-175,9,-117,-19
-58,29,87,14,-73,58,-429,-200,-175,9,-117,-14
-58,29,87,14,-73,58,-429,-204,-175,9,-117,-9
-58,34,92,12,-75,63,-439,-214,-180,4,-117,-4
-58,39,97,9,-78,68,-448,-224,-185,0,-117,0
-58,43,102,7,-80,73,-458,-234,-190,-4,-117,4
-58,48,107,4,-82,78,-468,-244,-195,-9,-117,9
-48,48,97,0,-73,73,-478,-253,-209,-14,-107,19
-48,48,97,0,-73,73,-478,-263,-214,-19,-107,19
-48,48,97,0,-73,73,-478,-273,-219,-24,-107,19
-48,48,97,0,-73,73,-478,-283,-224,-29,-107,19
-48,53,102,-2,-75,78,-488,-302,-239,-43,-117,29
-48,58,107,-4,-78,82,-497,-312,-244,-48,-117,29
-48,63,112,-7,-80,87,-507,-322,-248,-53,-117,29
-48,68,117,-9,-82,92,-517,-331,-253,-58,-117,29
-39,78,117,-19,-78,97,-531,-346,-258,-68,-107,39
-39,78,117,-19,-78,97,-536,-351,-263,-68,-107,39
-39,78,117,-19,-78,97,-541,-356,-268,-68,-107,39
-39,78,117,-19,-78,97,-546,-361,-273,-68,-107,39
-43,78,122,-17,-82,100,-561,-380,-283,-82,-117,48
-48,78,126,-14,-87,102,-566,-390,-292,-87,-117,48
-53,78,131,-12,-92,104,-570,-400,-302,-92,-117,48
-58,78,136,-9,-97,107,-575,-409,-312,-97,-117,48
-58,82,141,-12,-100,112,-570,-424,-326,-97,-112,63
-58,87,146,-14,-102,117,-566,-429,-331,-97,-107,68
-58,92,151,-17,-104,122,-561,-434,-336,-97,-102,73
-58,97,156,-19,-107,126,-556,-439,-341,-97,-97,78
-58,102,161,-21,-109,131,-561,-453,-346,-92,-87,82
-58,107,165,-24,-112,136,-566,-458,-351,-87,-87,87
-58,112,170,-26,-114,141,-570,-463,-356,-82,-87,92
-58,117,175,-29,-117,146,-575,-468,-361,-78,-87,97
-48,131,180,-41,-114,156,-580,-478,-370,-87,-78,102
-48,136,185,-43,-117,161,-585,-488,-380,-87,-78,107
-48,141,190,-46,-119,165,-590,-497,-390,-87,-78,112
-48,146,195,-48,-122,170,-595,-507,-400,-87,-78,117
-39,151,190,-56,-114,170,-595,-522,-414,-78,-73,131
-39,156,195,-58,-117,175,-595,-527,-419,-78,-68,136
-39,161,200,-61,-119,180,-595,-531,-424,-78,-63,141
-39,165,204,-63,-122,185,-595,-536,-429,-78,-58,146
-39,175,214,-68,-126,195,-610,-551,-444,-78,-58,156
-39,175,214,-68,-126,195,-614,-556,-448,-78,-58,156
-39,175,214,-68,-126,195,-619,-561,-453,-78,-58,156
-39,175,214,-68,-126,195,-624,-566,-458,-78,-58,156
-39,185,224,-73,-131,204,-634,-575,-473,-78,-53,156
-39,195,234,-78,-136,214,-634,-585,-478,-78,-48,156
-39,204,244,-82,-141,224,-634,-595,-483,-78,-43,156
-39,214,253,-87,-146,234,-634,-605,-488,-78,-39,156
-39,224,263,-92,-151,244,-619,-619,-497,-68,-29,161
-39,224,263,-92,-151,244,-614,-624,-497,-68,-29,165
-39,224,263,-92,-151,244,-610,-629,-497,-68,-29,170
-39,224,263,-92,-151,244,-605,-634,-497,-68,-29,175
-34,239,273,-102,-153,256,-595,-644,-507,-63,-24,180
-29,244,273,-107,-151,258,-595,-644,-507,-58,-19,185
-24,248,273,-112,-148,261,-595,-644,-507,-53,-14,190
-19,253,273,-117,-146,263,-595,-644,-507,-48,-9,195
-19,258,278,-119,-148,268,-585,-649,-507,-39,0,195
-19,263,283,-122,-151,273,-585,-653,-507,-39,0,195
-19,268,287,-124,-153,278,-585,-658,-507,-39,0,195
-19,273,292,-126,-156,283,-585,-663,-507,-39,0,195
-19,263,283,-122,-151,273,-595,-663,-497,-29,9,204
-19,263,283,-122,-151,273,-595,-663,-497,-29,9,204
-19,263,283,-122,-151,273,-595,-663,-497,-29,9,204
-19,263,283,-122,-151,273,-595,-663,-497,-29,9,204
-9,253,263,-122,-136,258,-575,-658,-488,-9,19,195
-9,253,263,-122,-136,258,-566,-653,-478,0,19,195
-9,253,263,-122,-136,258,-556,-649,-468,9,19,195
-9,253,263,-122,-136,258,-546,-644,-458,19,19,195
-9,244,253,-117,-131,248,-541,-629,-448,24,9,195
-9,244,253,-117,-131,248,-536,-624,-439,29,9,195
-9,244,253,-117,-131,248,-531,-619,-429,34,9,195
-9,244,253,-117,-131,248,-527,-614,-419,39,9,195
-19,244,263,-112,-141,253,-507,-585,-380,48,9,185
-19,234,253,-107,-136,244,-497,-575,-361,58,9,185
-29,214,244,-92,-136,229,-488,-566,-341,78,9,175
-24,224,248,-100,-136,236,-483,-556,-322,87,19,165
-19,224,244,-102,-131,234,-478,-546,-312,87,19,165
-14,224,239,-104,-126,231,-473,-536,-302,87,19,165
-9,224,234,-107,-122,229,-468,-527,-292,87,19,165
-9,219,229,-104,-119,224,-453,-502,-273,102,9,161
-9,214,224,-102,-117,219,-448,-488,-253,107,9,156
-9,209,219,-100,-114,214,-444,-473,-234,112,9,151
-9,204,214,-97,-112,209,-439,-458,-214,117,9,146
-9,195,204,-92,-107,200,-429,-434,-195,126,4,141
-9,195,204,-92,-107,200,-419,-419,-175,126,0,136
-9,195,204,-92,-107,200,-409,-405,-156,126,-4,131
-9,195,204,-92,-107,200,-400,-390,-136,126,-9,126
-9,190,200,-90,-104,195,-385,-366,-107,136,-19,122
-9,185,195,-87,-102,190,-380,-341,-87,136,-19,117
-9,180,190,-85,-100,185,-375,-317,-68,136,-19,112
-9,175,185,-82,-97,180,-370,-292,-48,136,-19,107
0,165,165,-82,-82,165,-366,-268,-19,151,-29,97
0,165,165,-82,-82,165,-361,-244,0,156,-29,97
0,165,165,-82,-82,165,-356,-219,19,161,-29,97
0,165,165,-82,-82,165,-351,-195,39,165,-29,97
4,156,151,-80,-73,153,-341,-175,58,156,-34,92
9,156,146,-82,-68,151,-341,-165,68,156,-39,87
14,156,141,-85,-63,148,-341,-156,78,156,-43,82
19,156,136,-87,-58,146,-341,-146,87,156,-48,78
9,141,131,-75,-61,136,-341,-136,92,165,-58,68
9,136,126,-73,-58,131,-341,-126,97,165,-58,68
9,131,122,-70,-56,126,-341,-117,102,165,-58,68
9,126,117,-68,-53,122,-341,-107,107,165,-58,68
19,122,102,-70,-41,112,-341,-92,112,156,-63,63
19,117,97,-68,-39,107,-341,-87,117,156,-68,58
19,112,92,-65,-36,102,-341,-82,122,156,-73,53
19,107,87,-63,-34,97,-341,-78,126,156,-78,48
29,97,68,-63,-19,82,-341,-68,117,156,-87,43
29,87,58,-58,-14,73,-341,-58,117,156,-87,39
29,78,48,-53,-9,63,-341,-48,117,156,-87,34
29,68,39,-48,-4,53,-341,-39,117,156,-87,29
39,58,19,-48,9,39,-341,-34,126,156,-87,19
39,58,19,-48,9,39,-341,-29,126,156,-87,19
39,58,19,-48,9,39,-341,-24,126,156,-87,19
39,58,19,-48,9,39,-341,-19,126,156,-87,19
29,53,24,-41,2,39,-336,-9,112,141,-97,14
29,48,19,-39,4,34,-331,-9,107,136,-97,9
29,43,14,-36,7,29,-326,-9,102,131,-97,4
29,39,9,-34,9,24,-322,-9,97,126,-97,0
19,24,4,-21,7,14,-322,-9,82,126,-102,-4
19,19,0,-19,9,9,-322,-9,78,126,-107,-9
19,14,-4,-17,12,4,-322,-9,73,126,-112,-14
19,9,-9,-14,14,0,-322,-9,68,126,-117,-19
24,19,-4,-21,14,7,-331,-9,78,136,-117,-29
29,19,-9,-24,19,4,-331,-9,78,136,-117,-29
34,19,-14,-26,24,2,-331,-9,78,136,-117,-29
39,19,-19,-29,29,0,-331,-9,78,136,-117,-29
34,14,-19,-24,26,-2,-326,0,68,136,-126,-39
29,9,-19,-19,24,-4,-322,0,68,136,-126,-39
24,4,-19,-14,21,-7,-317,0,68,136,-126,-39
19,0,-19,-9,19,-9,-312,0,68,136,-126,-39
14,-4,-19,-4,17,-12,-312,0,58,136,-141,-53
9,-9,-19,0,14,-14,-312,0,58,136,-146,-58
4,-14,-19,4,12,-17,-312,0,58,136,-151,-63
0,-19,-19,9,9,-19,-312,0,58,136,-156,-68
-4,-29,-24,17,9,-26,-297,4,63,126,-165,-73
-9,-29,-19,19,4,-24,-292,9,68,126,-165,-78
-14,-29,-14,21,0,-21,-287,14,73,126,-165,-82
-19,-29,-9,24,-4,-19,-283,19,78,126,-165,-87
-19,-39,-19,29,0,-29,-273,19,78,131,-175,-97
-19,-39,-19,29,0,-29,-273,19,78,136,-175,-97
-19,-39,-19,29,0,-29,-273,19,78,141,-175,-97
-19,-39,-19,29,0,-29,-273,19,78,146,-175,-97
-19,-29,-9,24,-4,-19,-263,9,78,146,-185,-97
-19,-29,-9,24,-4,-19,-263,9,78,146,-185,-97
-19,-29,-9,24,-4,-19,-263,9,78,146,-185,-97
-19,-29,-9,24,-4,-19,-263,9,78,146,-185,-97
-19,-39,-19,29,0,-29,-268,0,78,146,-195,-97
-19,-39,-19,29,0,-29,-273,0,78,146,-195,-97
-19,-39,-19,29,0,-29,-278,0,78,146,-195,-97
-19,-39,-19,29,0,-29,-283,0,78,146,-195,-97
-24,-48,-24,36,0,-36,-273,-4,68,136,-195,-107
-29,-48,-19,39,-4,-34,-263,-9,68,136,-195,-107
-34,-48,-14,41,-9,-31,-253,-14,68,136,-195,-107
-39,-48,-9,43,-14,-29,-244,-19,68,136,-195,-107
-9,-29,-19,19,4,-24,-234,-19,68,156,-195,-117
-29,-39,-9,34,-9,-24,-244,-19,68,156,-185,-117
-29,-39,-9,34,-9,-24,-263,-19,78,165,-175,-117
-39,-39,0,39,-19,-19,-273,-29,78,156,-185,-117
-39,-48,-9,43,-14,-29,-263,-19,78,156,-185,-126
-48,-39,9,43,-29,-14,-224,-9,87,146,-185,-126
-58,-19,39,39,-48,9,-214,-9,97,126,-195,-136
-68,-9,58,39,-63,24,-214,-9,117,107,-214,-146
-87,-9,78,48,-82,34,-185,-9,146,126,-224,-146
-117,-9,107,63,-112,48,-185,0,156,117,-234,-156
-126,9,136,58,-131,73,-204,-9,146,97,-234,-165
-136,19,156,58,-146,87,-204,-9,136,97,-234,-156
-126,29,156,48,-141,92,-195,0,146,107,-214,-146
-117,48,165,34,-141,107,-204,-9,165,156,-175,-126
-117,78,195,19,-156,136,-204,0,195,204,-136,-97
-107,107,214,0,-161,161,-185,39,253,253,-87,-68
-78,156,234,-39,-156,195,-175,68,341,361,-29,-29
-39,204,244,-82,-141,224,-175,87,419,478,39,9
0,224,224,-112,-112,224,-185,117,458,575,107,58
39,253,214,-146,-87,234,-175,146,488,653,195,117
97,312,214,-204,-58,263,-195,126,468,741,302,204
165,351,185,-258,-9,268,-244,48,390,810,400,283
234,370,136,-302,48,253,-273,0,302,878,488,351
302,380,78,-341,112,229,-302,-29,263,936,575,419
370,331,-39,-351,204,146,-283,-29,263,1024,644,468
458,234,-224,-346,341,4,-244,29,302,1132,692,488
527,156,-370,-341,448,-107,-224,87,331,1190,722,507
566,97,-468,-331,517,-185,-214,107,302,1093,692,488
536,9,-527,-273,531,-258,-224,117,195,839,575,429
478,-97,-575,-190,527,-336,-234,117,87,478,390,322
419,-185,-605,-117,512,-395,-214,126,19,97,165,204
380,-244,-624,-68,502,-434,-244,136,-9,-175,-19,97
351,-263,-614,-43,483,-439,-312,107,-39,-263,-117,39
322,-253,-575,-34,448,-414,-312,97,-48,-283,-175,0
302,-244,-546,-29,424,-395,-302,136,-9,-283,-244,-48
263,-244,-507,-9,385,-375,-283,156,58,-234,-302,-107
185,-234,-419,24,302,-326,-253,204,156,-156,-322,-156
107,-234,-341,63,224,-287,-185,302,292,-97,-341,-195
68,-234,-302,82,185,-268,-48,409,390,39,-351,-214
29,-253,-283,112,156,-268,234,458,380,273,-361,-244
-19,-253,-234,136,107,-244,390,448,322,370,-370,-253
-68,-244,-175,156,53,-209,341,429,244,283,-380,-273
-107,-244,-136,175,14,-190,312,439,204,214,-400,-302
-146,-244,-97,195,-24,-170,351,488,204,234,-400,-302
-185,-244,-58,214,-63,-151,351,536,224,244,-390,-302
-214,-234,-19,224,-97,-126,331,566,204,204,-390,-312
-214,-234,-19,224,-97,-126,341,585,175,175,-400,-322
-214,-234,-19,224,-97,-126,351,644,165,146,-409,-331
-224,-253,-29,239,-97,-141,331,673,136,97,-419,-341
-244,-263,-19,253,-112,-141,312,653,87,78,-419,-351
-244,-263,-19,253,-112,-141,302,634,39,78,-429,-351
-234,-263,-29,248,-102,-146,292,634,0,68,-439,-351
-244,-273,-29,258,-107,-151,312,595,-29,68,-439,-361
-253,-273,-19,263,-117,-146,331,546,-58,48,-439,-361
-253,-263,-9,258,-122,-136,331,507,-58,29,-439,-361
-244,-263,-19,253,-112,-141,331,497,-39,29,-429,-351
-263,-253,9,258,-136,-122,312,448,-29,19,-419,-361
-263,-244,19,253,-141,-112,302,370,-29,9,-429,-361
-263,-244,19,253,-141,-112,322,292,-48,9,-429,-361
-263,-244,19,253,-141,-112,302,234,-78,9,-429,-361
-244,-224,19,234,-131,-102,244,195,-78,39,-429,-351
-214,-195,19,204,-117,-87,146,165,-58,68,-419,-331
-204,-175,29,190,-117,-73,39,146,-48,78,-400,-312
-195,-165,29,180,-112,-68,-29,117,-48,87,-380,-292
-185,-156,29,170,-107,-63,-97,68,-58,87,-361,-292
-165,-146,19,156,-92,-63,-185,39,-48,87,-341,-283
-146,-126,19,136,-82,-53,-263,9,-29,117,-312,-263
-117,-107,9,112,-63,-48,-331,-19,-9,126,-292,-244
-97,-87,9,92,-53,-39,-370,-39,0,146,-283,-224
-78,-68,9,73,-43,-29,-390,-39,9,156,-273,-214
-68,-68,0,68,-34,-34,-409,-39,0,146,-273,-204
-58,-58,0,58,-29,-29,-419,-39,9,131,-263,-214
-58,-58,0,58,-29,-29,-429,-39,9,126,-263,-214
-58,-58,0,58,-29,-29,-439,-39,9,122,-263,-214
-58,-58,0,58,-29,-29,-448,-39,9,117,-263,-214
-58,-48,9,53,-34,-19,-453,-43,9,117,-263,-214
-58,-48,9,53,-34,-19,-458,-48,9,117,-263,-214
-58,-48,9,53,-34,-19,-463,-53,9,117,-263,-214
-58,-48,9,53,-34,-19,-468,-58,9,117,-263,-214
-58,-58,0,58,-29,-29,-468,-63,0,107,-263,-204
-58,-58,0,58,-29,-29,-468,-68,0,107,-263,-204
-58,-58,0,58,-29,-29,-468,-73,0,107,-263,-204
-58,-58,0,58,-29,-29,-468,-78,0,107,-263,-204
-48,-58,-9,53,-19,-34,-468,-87,0,117,-263,-214
-48,-58,-9,53,-19,-34,-468,-87,0,117,-263,-214
-48,-58,-9,53,-19,-34,-468,-87,0,117,-263,-214
-48,-58,-9,53,-19,-34,-468,-87,0,117,-263,-214
-39,-48,-9,43,-14,-29,-448,-97,-9,146,-263,-214
-39,-48,-9,43,-14,-29,-429,-97,-9,165,-263,-214
-39,-48,-9,43,-14,-29,-409,-97,-9,185,-263,-214
-39,-48,-9,43,-14,-29,-390,-97,-9,204,-263,-214
-39,-48,-9,43,-14,-29,-385,-97,-19,214,-273,-214
-39,-48,-9,43,-14,-29,-380,-97,-19,214,-273,-214
-39,-48,-9,43,-14,-29,-375,-97,-19,214,-273,-214
-39,-48,-9,43,-14,-29,-370,-97,-19,214,-273,-214
-43,-48,-4,46,-19,-26,-380,-107,-29,204,-283,-204
-48,-48,0,48,-24,-24,-380,-107,-29,204,-283,-204
-53,-48,4,51,-29,-21,-380,-107,-29,204,-283,-204
-58,-48,9,53,-34,-19,-380,-107,-29,204,-283,-204
-48,-58,-9,53,-19,-34,-380,-97,-39,200,-283,-195
-48,-58,-9,53,-19,-34,-380,-97,-39,195,-283,-195
-48,-58,-9,53,-19,-34,-380,-97,-39,190,-283,-195
-48,-58,-9,53,-19,-34,-380,-97,-39,185,-283,-195
-58,-48,9,53,-34,-19,-390,-107,-48,170,-273,-204
-58,-48,9,53,-34,-19,-400,-107,-48,165,-273,-204
-58,-48,9,53,-34,-19,-409,-107,-48,161,-273,-204
-58,-48,9,53,-34,-19,-419,-107,-48,156,-273,-204
-48,-48,0,48,-24,-24,-429,-107,-53,146,-263,-204
-48,-48,0,48,-24,-24,-429,-107,-58,146,-263,-204
-48,-48,0,48,-24,-24,-429,-107,-63,146,-263,-204
-48,-48,0,48,-24,-24,-429,-107,-68,146,-263,-204
-48,-39,9,43,-29,-14,-434,-117,-73,136,-253,-214
-48,-39,9,43,-29,-14,-439,-117,-78,136,-253,-214
-48,-39,9,43,-29,-14,-444,-117,-82,136,-253,-214
-48,-39,9,43,-29,-14,-448,-117,-87,136,-253,-214
-48,-39,9,43,-29,-14,-458,-122,-97,131,-253,-224
-48,-39,9,43,-29,-14,-458,-126,-107,126,-253,-224
-48,-39,9,43,-29,-14,-458,-131,-117,122,-253,-224
-48,-39,9,43,-29,-14,-458,-136,-126,117,-253,-224
-63,-48,14,56,-39,-17,-468,-141,-136,107,-253,-224
-68,-48,19,58,-43,-14,-468,-146,-136,107,-253,-224
-73,-48,24,61,-48,-12,-468,-151,-136,107,-253,-224
-78,-48,29,63,-53,-9,-468,-156,-136,107,-253,-224
-68,-48,19,58,-43,-14,-473,-170,-156,92,-253,-234
-68,-48,19,58,-43,-14,-478,-175,-165,87,-253,-234
-68,-48,19,58,-43,-14,-483,-180,-175,82,-253,-234
-68,-48,19,58,-43,-14,-488,-185,-185,78,-253,-234
-78,-48,29,63,-53,-9,-502,-200,-200,68,-244,-234
-78,-48,29,63,-53,-9,-507,-204,-204,68,-244,-234
-78,-48,29,63,-53,-9,-512,-209,-209,68,-244,-234
-78,-48,29,63,-53,-9,-517,-214,-214,68,-244,-234
-78,-48,29,63,-53,-9,-531,-229,-234,53,-248,-244
-78,-48,29,63,-53,-9,-536,-234,-244,48,-253,-244
-78,-48,29,63,-53,-9,-541,-239,-253,43,-258,-244
-78,-48,29,63,-53,-9,-546,-244,-263,39,-263,-244
-68,-34,34,51,-51,0,-546,-248,-278,29,-273,-253
-68,-29,39,48,-53,4,-546,-253,-283,29,-273,-253
-68,-24,43,46,-56,9,-546,-258,-287,29,-273,-253
-68,-19,48,43,-58,14,-546,-263,-292,29,-273,-253
-78,-19,58,48,-68,19,-561,-278,-307,19,-263,-244
-78,-19,58,48,-68,19,-566,-283,-312,19,-263,-244
-78,-19,58,48,-68,19,-570,-287,-317,19,-263,-244
-78,-19,58,48,-68,19,-575,-292,-322,19,-263,-244
-73,-9,63,41,-68,26,-585,-297,-336,19,-263,-253
-68,-9,58,39,-63,24,-585,-302,-341,19,-263,-253
-63,-9,53,36,-58,21,-585,-307,-346,19,-263,-253
-58,-9,48,34,-53,19,-585,-312,-351,19,-263,-253
-53,0,53,26,-53,26,-600,-322,-351,29,-258,-244
-48,0,48,24,-48,24,-605,-322,-351,29,-253,-244
-43,0,43,21,-43,21,-610,-322,-351,29,-248,-244
-39,0,39,19,-39,19,-614,-322,-351,29,-244,-244
-39,9,48,14,-43,29,-614,-331,-361,39,-244,-239
-39,9,48,14,-43,29,-614,-331,-361,39,-244,-234
-39,9,48,14,-43,29,-614,-331,-361,39,-244,-229
-39,9,48,14,-43,29,-614,-331,-361,39,-244,-224
-24,19,43,2,-34,31,-605,-322,-356,53,-239,-214
-19,19,39,0,-29,29,-605,-322,-351,58,-234,-214
-14,19,34,-2,-24,26,-605,-322,-346,63,-229,-214
-9,19,29,-4,-19,24,-605,-322,-341,68,-224,-214
-4,19,24,-7,-14,21,-610,-317,-326,82,-224,-214
0,19,19,-9,-9,19,-614,-312,-322,87,-224,-214
4,19,14,-12,-4,17,-619,-307,-317,92,-224,-214
9,19,9,-14,0,14,-624,-302,-312,97,-224,-214
9,14,4,-12,2,9,-614,-297,-302,102,-214,-214
9,9,0,-9,4,4,-614,-292,-292,107,-214,-214
9,4,-4,-7,7,0,-614,-287,-283,112,-214,-214
9,0,-9,-4,9,-4,-614,-283,-273,117,-214,-214
0,9,9,-4,-4,9,-605,-268,-253,122,-204,-204
0,9,9,-4,-4,9,-595,-263,-244,126,-204,-204
0,9,9,-4,-4,9,-585,-258,-234,131,-204,-204
0,9,9,-4,-4,9,-575,-253,-224,136,-204,-204
4,9,4,-7,0,7,-561,-244,-209,161,-195,-204
9,9,0,-9,4,4,-546,-234,-195,175,-195,-204
14,9,-4,-12,9,2,-531,-224,-180,190,-195,-204
19,9,-9,-14,14,0,-517,-214,-165,204,-195,-204
29,9,-19,-19,24,-4,-502,-195,-151,224,-185,-204
29,9,-19,-19,24,-4,-488,-185,-136,234,-185,-204
29,9,-19,-19,24,-4,-473,-175,-122,244,-185,-204
29,9,-19,-19,24,-4,-458,-165,-107,253,-185,-204
19,0,-19,-9,19,-9,-468,-151,-92,244,-195,-214
19,0,-19,-9,19,-9,-468,-146,-78,244,-195,-214
19,0,-19,-9,19,-9,-468,-141,-63,244,-195,-214
19,0,-19,-9,19,-9,-468,-136,-48,244,-195,-214
14,-9,-24,-2,19,-17,-458,-122,-29,244,-200,-204
9,-9,-19,0,14,-14,-458,-117,-19,244,-204,-204
4,-9,-14,2,9,-12,-458,-112,-9,244,-209,-204
0,-9,-9,4,4,-9,-458,-107,0,244,-214,-204
-9,-14,-4,12,-2,-9,-458,-92,14,244,-224,-204
-9,-19,-9,14,0,-14,-458,-87,19,244,-224,-204
-9,-24,-14,17,2,-19,-458,-82,24,244,-224,-204
-9,-29,-19,19,4,-24,-458,-78,29,244,-224,-204
-4,-19,-14,12,4,-17,-444,-73,48,253,-224,-209
0,-19,-19,9,9,-19,-439,-68,58,253,-224,-214
4,-19,-24,7,14,-21,-434,-63,68,253,-224,-219
9,-19,-29,4,19,-24,-429,-58,78,253,-224,-224
9,-9,-19,0,14,-14,-419,-48,87,253,-224,-234
9,-9,-19,0,14,-14,-419,-48,87,253,-224,-234
9,-9,-19,0,14,-14,-419,-48,87,253,-224,-234
9,-9,-19,0,14,-14,-419,-48,87,253,-224,-234
4,-14,-19,4,12,-17,-429,-48,97,244,-234,-244
0,-19,-19,9,9,-19,-429,-48,97,244,-234,-244
-4,-24,-19,14,7,-21,-429,-48,97,244,-234,-244
-9,-29,-19,19,4,-24,-429,-48,97,244,-234,-244
-19,-29,-9,24,-4,-19,-434,-48,107,244,-234,-244
-19,-29,-9,24,-4,-19,-439,-48,107,244,-234,-244
-19,-29,-9,24,-4,-19,-444,-48,107,244,-234,-244
-19,-29,-9,24,-4,-19,-448,-48,107,244,-234,-244
-19,-29,-9,24,-4,-19,-439,-48,107,234,-244,-244
-19,-29,-9,24,-4,-19,-429,-48,107,234,-244,-244
-19,-29,-9,24,-4,-19,-419,-48,107,234,-244,-244
-19,-29,-9,24,-4,-19,-409,-48,107,234,-244,-244
-19,-29,-9,24,-4,-19,-414,-43,97,244,-244,-248
-19,-29,-9,24,-4,-19,-419,-39,97,244,-244,-253
-19,-29,-9,24,-4,-19,-424,-34,97,244,-244,-258
-19,-29,-9,24,-4,-19,-429,-29,97,244,-244,-263
-9,-29,-19,19,4,-24,-444,-29,97,234,-244,-273
-9,-29,-19,19,4,-24,-448,-29,97,234,-244,-273
-9,-29,-19,19,4,-24,-453,-29,97,234,-244,-273
-9,-29,-19,19,4,-24,-458,-29,97,234,-244,-273
0,-19,-19,9,9,-19,-444,-19,97,244,-244,-283
0,-19,-19,9,9,-19,-439,-19,97,244,-244,-283
0,-19,-19,9,9,-19,-434,-19,97,244,-244,-283
0,-19,-19,9,9,-19,-429,-19,97,244,-244,-283
0,-19,-19,9,9,-19,-439,-19,107,234,-244,-292
0,-19,-19,9,9,-19,-448,-19,107,234,-244,-292
0,-19,-19,9,9,-19,-458,-19,107,234,-244,-292
0,-19,-19,9,9,-19,-468,-19,107,234,-244,-292
-9,-29,-19,19,4,-24,-468,-19,107,234,-244,-292
-9,-29,-19,19,4,-24,-468,-19,107,234,-244,-292
-9,-29,-19,19,4,-24,-468,-19,107,234,-244,-292
-9,-29,-19,19,4,-24,-468,-19,107,234,-244,-292
-9,-19,-9,14,0,-14,-458,-19,107,234,-244,-302
-9,-19,-9,14,0,-14,-458,-19,107,234,-244,-302
-9,-19,-9,14,0,-14,-458,-19,107,234,-244,-302
-9,-19,-9,14,0,-14,-458,-19,107,234,-244,-302
-9,-29,-19,19,4,-24,-473,-29,102,224,-253,-312
-9,-29,-19,19,4,-24,-478,-29,97,224,-253,-312
-9,-29,-19,19,4,-24,-483,-29,92,224,-253,-312
-9,-29,-19,19,4,-24,-488,-29,87,224,-253,-312
-19,-39,-19,29,0,-29,-478,-19,87,234,-263,-312
-19,-39,-19,29,0,-29,-478,-19,87,234,-263,-312
-19,-39,-19,29,0,-29,-478,-19,87,234,-263,-312
-19,-39,-19,29,0,-29,-478,-19,87,234,-263,-312
-9,-39,-29,24,9,-34,-488,-29,78,234,-273,-312
-9,-39,-29,24,9,-34,-488,-29,78,234,-273,-312
-9,-39,-29,24,9,-34,-488,-29,78,234,-273,-312
-9,-39,-29,24,9,-34,-488,-29,78,234,-273,-312
-9,-48,-39,29,14,-43,-497,-29,78,224,-273,-317
-9,-48,-39,29,14,-43,-507,-29,78,224,-273,-322
-9,-48,-39,29,14,-43,-517,-29,78,224,-273,-326
-9,-48,-39,29,14,-43,-527,-29,78,224,-273,-331
-9,-43,-34,26,12,-39,-512,-34,78,224,-263,-322
-9,-39,-29,24,9,-34,-497,-39,78,224,-263,-322
-9,-34,-24,21,7,-29,-483,-43,78,224,-263,-322
-9,-29,-19,19,4,-24,-468,-48,78,224,-263,-322
-9,-29,-19,19,4,-24,-478,-39,87,234,-273,-326
-9,-29,-19,19,4,-24,-478,-39,87,234,-273,-331
-9,-29,-19,19,4,-24,-478,-39,87,234,-273,-336
-9,-29,-19,19,4,-24,-478,-39,87,234,-273,-341
-9,-29,-19,19,4,-24,-483,-48,78,224,-263,-341
-9,-29,-19,19,4,-24,-488,-48,78,224,-263,-341
-9,-29,-19,19,4,-24,-492,-48,78,224,-263,-341
-9,-29,-19,19,4,-24,-497,-48,78,224,-263,-341
-9,-29,-19,19,4,-24,-497,-39,87,234,-263,-341
-9,-29,-19,19,4,-24,-497,-39,87,234,-263,-341
-9,-29,-19,19,4,-24,-497,-39,87,234,-263,-341
-9,-29,-19,19,4,-24,-497,-39,87,234,-263,-341
-9,-34,-24,21,7,-29,-483,-48,78,224,-273,-351
-9,-39,-29,24,9,-34,-478,-48,78,224,-273,-351
-9,-43,-34,26,12,-39,-473,-48,78,224,-273,-351
-9,-48,-39,29,14,-43,-468,-48,78,224,-273,-351
-9,-39,-29,24,9,-34,-468,-39,78,214,-273,-361
-9,-39,-29,24,9,-34,-468,-39,78,214,-273,-361
-9,-39,-29,24,9,-34,-468,-39,78,214,-273,-361
-9,-39,-29,24,9,-34,-468,-39,78,214,-273,-361
-9,-48,-39,29,14,-43,-463,-39,78,214,-263,-370
-9,-48,-39,29,14,-43,-458,-39,78,214,-263,-370
-9,-48,-39,29,14,-43,-453,-39,78,214,-263,-370
-9,-48,-39,29,14,-43,-448,-39,78,214,-263,-370
-14,-48,-34,31,9,-41,-439,-29,78,219,-258,-370
-19,-48,-29,34,4,-39,-439,-29,78,224,-253,-370
-24,-48,-24,36,0,-36,-439,-29,78,229,-248,-370
-29,-48,-19,39,-4,-34,-439,-29,78,234,-244,-370
-19,-48,-29,34,4,-39,-439,-29,78,229,-234,-380
-19,-48,-29,34,4,-39,-439,-29,78,224,-234,-380
-19,-48,-29,34,4,-39,-439,-29,78,219,-234,-380
-19,-48,-29,34,4,-39,-439,-29,78,214,-234,-380
-19,-48,-29,34,4,-39,-390,-19,87,214,-224,-380
-39,-58,-19,48,-9,-39,-400,-29,87,224,-214,-380
-34,-48,-14,41,-9,-31,-400,-29,78,224,-214,-380
-29,-48,-19,39,-4,-34,-400,-29,78,224,-214,-380
-24,-48,-24,36,0,-36,-400,-29,78,224,-214,-380
-19,-48,-29,34,4,-39,-400,-29,78,224,-214,-380
-19,-48,-29,34,4,-39,-390,-29,87,224,-204,-390
-19,-48,-29,34,4,-39,-390,-29,87,224,-204,-390
-19,-48,-29,34,4,-39,-390,-29,87,224,-204,-390
-19,-48,-29,34,4,-39,-390,-29,87,224,-204,-390
-29,-39,-9,34,-9,-24,-390,-29,78,229,-200,-390
-29,-39,-9,34,-9,-24,-390,-29,78,234,-195,-390
-29,-39,-9,34,-9,-24,-390,-29,78,239,-190,-390
-29,-39,-9,34,-9,-24,-390,-29,78,244,-185,-390
-19,-39,-19,29,0,-29,-380,-29,78,253,-175,-380
-19,-39,-19,29,0,-29,-370,-29,78,253,-175,-370
-19,-39,-19,29,0,-29,-361,-29,78,253,-175,-361
-19,-39,-19,29,0,-29,-351,-29,78,253,-175,-351
-9,-29,-19,19,4,-24,-346,-19,87,244,-165,-346
-9,-29,-19,19,4,-24,-341,-19,87,244,-165,-341
-9,-29,-19,19,4,-24,-336,-19,87,244,-165,-336
-9,-29,-19,19,4,-24,-331,-19,87,244,-165,-331
-9,-19,-9,14,0,-14,-317,-19,87,239,-165,-317
-9,-19,-9,14,0,-14,-312,-19,87,234,-165,-312
-9,-19,-9,14,0,-14,-307,-19,87,229,-165,-307
-9,-19,-9,14,0,-14,-302,-19,87,224,-165,-302
-9,-14,-4,12,-2,-9,-302,-19,97,224,-156,-283
-9,-9,0,9,-4,-4,-302,-19,97,224,-156,-273
-9,-4,4,7,-7,0,-302,-19,97,224,-156,-263
-9,0,9,4,-9,4,-302,-19,97,224,-156,-253
-9,0,9,4,-9,4,-297,-4,102,244,-151,-244
-9,0,9,4,-9,4,-292,0,107,253,-146,-244
-9,0,9,4,-9,4,-287,4,112,263,-141,-244
-9,0,9,4,-9,4,-283,9,117,273,-136,-244
-4,4,9,0,-7,7,-287,4,117,273,-126,-239
0,9,9,-4,-4,9,-292,0,117,273,-126,-234
4,14,9,-9,-2,12,-297,-4,117,273,-126,-229
9,19,9,-14,0,14,-302,-9,117,273,-126,-224
19,19,0,-19,9,9,-302,-19,112,283,-117,-209
19,19,0,-19,9,9,-302,-19,107,283,-117,-204
19,19,0,-19,9,9,-302,-19,102,283,-117,-200
19,19,0,-19,9,9,-302,-19,97,283,-117,-195
9,4,-4,-7,7,0,-292,-9,92,283,-107,-185
9,0,-9,-4,9,-4,-292,-9,87,283,-107,-185
9,-4,-14,-2,12,-9,-292,-9,82,283,-107,-185
9,-9,-19,0,14,-14,-292,-9,78,283,-107,-185
19,-4,-24,-7,21,-14,-283,-9,78,287,-102,-180
29,0,-29,-14,29,-14,-283,-9,78,292,-97,-175
39,4,-34,-21,36,-14,-283,-9,78,297,-92,-170
48,9,-39,-29,43,-14,-283,-9,78,302,-87,-165
39,4,-34,-21,36,-14,-278,-9,68,292,-78,-146
39,0,-39,-19,39,-19,-273,-9,68,292,-78,-136
39,-4,-43,-17,41,-24,-268,-9,68,292,-78,-126
39,-9,-48,-14,43,-29,-263,-9,68,292,-78,-117
29,-14,-43,-7,36,-29,-273,-14,53,287,-87,-112
29,-19,-48,-4,39,-34,-273,-19,48,283,-87,-107
29,-24,-53,-2,41,-39,-273,-24,43,278,-87,-102
29,-29,-58,0,43,-43,-273,-29,39,273,-87,-97
29,-19,-48,-4,39,-34,-263,-24,43,278,-78,-87
29,-19,-48,-4,39,-34,-263,-19,48,283,-78,-78
29,-19,-48,-4,39,-34,-263,-14,53,287,-78,-68
29,-19,-48,-4,39,-34,-263,-9,58,292,-78,-58
29,-24,-53,-2,41,-39,-248,-19,43,283,-78,-68
29,-29,-58,0,43,-43,-244,-19,39,283,-78,-68
29,-34,-63,2,46,-48,-239,-19,34,283,-78,-68
29,-39,-68,4,48,-53,-234,-19,29,283,-78,-68
19,-48,-68,14,43,-58,-224,-9,29,273,-87,-58
19,-48,-68,14,43,-58,-224,-9,29,273,-87,-58
19,-48,-68,14,43,-58,-224,-9,29,273,-87,-58
19,-48,-68,14,43,-58,-224,-9,29,273,-87,-58
4,-48,-53,21,29,-51,-214,0,29,263,-102,-58
0,-48,-48,24,24,-48,-214,0,29,253,-107,-58
-4,-48,-43,26,19,-46,-214,0,29,244,-112,-58
-9,-48,-39,29,14,-43,-214,0,29,234,-117,-58
-9,-58,-48,34,19,-53,-200,0,29,224,-107,-43
-9,-58,-48,34,19,-53,-195,0,29,224,-107,-39
-9,-58,-48,34,19,-53,-190,0,29,224,-107,-34
-9,-58,-48,34,19,-53,-185,0,29,224,-107,-29
-19,-48,-29,34,4,-39,-175,9,19,219,-117,-24
-19,-48,-29,34,4,-39,-175,9,19,214,-117,-19
-19,-48,-29,34,4,-39,-175,9,19,209,-117,-14
-19,-48,-29,34,4,-39,-175,9,19,204,-117,-9
-19,-58,-39,39,9,-48,-156,9,19,204,-117,0
0,-48,-48,24,24,-48,-165,19,19,214,-117,9
-9,-39,-29,24,9,-34,-175,19,29,214,-117,19
-19,-48,-29,34,4,-39,-156,19,29,214,-117,19
-39,-48,-9,43,-14,-29,-146,19,39,214,-117,19
-39,-29,9,34,-24,-9,-146,19,48,224,-126,19
-48,-9,39,29,-43,14,-126,19,58,214,-136,9
-48,0,48,24,-48,24,-117,29,78,185,-146,9
-68,9,78,29,-73,43,-87,39,97,185,-146,9
-107,9,117,48,-112,63,-58,39,107,185,-156,0
-117,19,136,48,-126,78,-78,39,87,165,-175,0
-107,39,146,34,-126,92,-87,29,68,146,-175,9
-107,48,156,29,-131,102,-87,29,68,146,-165,19
-97,68,165,14,-131,117,-87,29,87,175,-146,39
-78,97,175,-9,-126,136,-87,39,107,234,-107,68
-58,136,195,-39,-126,165,-87,58,146,292,-58,117
-39,185,224,-73,-131,204,-87,78,214,370,9,185
-9,234,244,-112,-126,239,-68,97,283,468,97,244
19,263,244,-141,-112,253,-48,126,331,566,175,312
68,292,224,-180,-78,258,-48,136,351,634,253,370
136,341,204,-239,-34,273,-78,107,322,692,331,429
214,400,185,-307,14,292,-136,48,253,732,419,507
292,439,146,-366,73,292,-165,0,185,780,517,585
380,439,58,-409,161,248,-204,-39,117,829,605,663
458,390,-68,-424,263,161,-224,-39,87,878,692,712
527,263,-263,-395,395,0,-185,19,117,956,761,741
585,156,-429,-370,507,-136,-136,58,136,1015,810,741
614,87,-527,-351,570,-219,-126,58,126,1005,819,732
624,19,-605,-322,614,-292,-107,58,107,907,761,683
614,-78,-692,-268,653,-385,-107,78,78,683,614,575
566,-195,-761,-185,663,-478,-97,107,68,400,390,429
497,-273,-771,-112,634,-522,-68,136,87,165,175,292
458,-302,-761,-78,610,-531,-58,146,97,29,29,214
419,-312,-732,-53,575,-522,-78,136,78,-9,-39,175
361,-312,-673,-24,517,-492,-68,156,107,-39,-126,126
302,-312,-614,4,458,-463,-39,214,175,-58,-195,68
244,-302,-546,29,395,-424,0,263,244,-19,-214,29
165,-283,-448,58,307,-366,29,331,351,48,-204,-9
97,-273,-370,87,234,-322,58,419,478,97,-204,-48
78,-273,-351,97,214,-312,107,497,536,117,-214,-68
58,-263,-322,102,190,-292,126,507,458,87,-214,-78
19,-244,-263,112,141,-253,156,488,341,58,-224,-87
-48,-234,-185,141,68,-209,214,517,302,68,-224,-87
-126,-253,-126,190,0,-190,273,566,322,87,-214,-87
-175,-244,-68,209,-53,-156,312,624,312,107,-204,-78
-195,-224,-29,209,-82,-126,331,653,273,107,-214,-87
-195,-224,-29,209,-82,-126,341,692,234,87,-214,-97
-195,-234,-39,214,-78,-136,380,751,234,87,-214,-87
-195,-234,-39,214,-78,-136,400,800,204,78,-214,-87
-195,-244,-48,219,-73,-146,400,839,165,58,-204,-78
-195,-244,-48,219,-73,-146,419,849,136,68,-185,-68
-204,-234,-29,219,-87,-131,429,849,87,68,-185,-48
-214,-244,-29,229,-92,-136,429,849,39,68,-185,-29
-224,-253,-29,239,-97,-141,468,839,19,58,-175,-9
-234,-253,-19,244,-107,-136,488,819,9,39,-175,0
-234,-244,-9,239,-112,-126,488,800,9,39,-165,9
-224,-234,-9,229,-107,-122,507,790,29,58,-156,19
-224,-224,0,224,-112,-112,517,761,48,68,-146,19
-244,-224,19,234,-131,-102,527,673,19,68,-136,29
-244,-214,29,229,-136,-92,546,566,-9,68,-126,39
-244,-204,39,224,-141,-82,536,478,-39,68,-107,58
-234,-195,39,214,-136,-78,488,419,-68,78,-87,68
-214,-175,39,195,-126,-68,380,361,-58,87,-68,87
-195,-165,29,180,-112,-68,273,322,-39,97,-48,97
-195,-165,29,180,-112,-68,234,273,-58,107,-29,97
-175,-146,29,161,-102,-58,185,204,-68,117,-9,107
-165,-126,39,146,-102,-43,117,136,-58,146,29,126
-146,-107,39,126,-92,-34,48,97,-48,165,58,156
-117,-87,29,102,-73,-29,-29,58,-48,175,78,175
-97,-68,29,82,-63,-19,-87,29,-48,195,87,185
-107,-68,39,87,-73,-14,-126,19,-39,195,97,185
-92,-78,14,85,-53,-31,-126,34,-24,195,102,175
-87,-78,9,82,-48,-34,-126,39,-19,195,107,175
-82,-78,4,80,-43,-36,-126,43,-14,195,112,175
-78,-78,0,78,-39,-39,-126,48,-9,195,117,175
-73,-73,0,73,-36,-36,-122,39,-9,200,131,175
-68,-68,0,68,-34,-34,-117,39,-9,204,136,175
-63,-63,0,63,-31,-31,-112,39,-9,209,141,175
-58,-58,0,58,-29,-29,-107,39,-9,214,146,175
-48,-58,-9,53,-19,-34,-117,29,-14,200,136,165
-48,-58,-9,53,-19,-34,-117,19,-19,195,136,156
-48,-58,-9,53,-19,-34,-117,9,-24,190,136,146
-48,-58,-9,53,-19,-34,-117,0,-29,185,136,136
-48,-48,0,48,-24,-24,-107,-9,-39,195,146,136
-48,-48,0,48,-24,-24,-107,-9,-39,195,146,136
-48,-48,0,48,-24,-24,-107,-9,-39,195,146,136
-48,-48,0,48,-24,-24,-107,-9,-39,195,146,136
-39,-39,0,39,-19,-19,-117,-9,-39,180,156,126
-39,-39,0,39,-19,-19,-117,-9,-39,175,156,126
-39,-39,0,39,-19,-19,-117,-9,-39,170,156,126
-39,-39,0,39,-19,-19,-117,-9,-39,165,156,126
-48,-43,4,46,-26,-19,-107,-9,-43,175,156,112
-48,-48,0,48,-24,-24,-97,-9,-48,175,156,107
-48,-53,-4,51,-21,-29,-87,-9,-53,175,156,102
-48,-58,-9,53,-19,-34,-78,-9,-58,175,156,97
-48,-48,0,48,-24,-24,-63,-19,-68,161,156,87
-48,-48,0,48,-24,-24,-58,-19,-68,156,156,87
-48,-48,0,48,-24,-24,-53,-19,-68,151,156,87
-48,-48,0,48,-24,-24,-48,-19,-68,146,156,87
-48,-48,0,48,-24,-24,-43,-19,-73,136,165,97
-48,-48,0,48,-24,-24,-39,-19,-78,136,165,97
-48,-48,0,48,-24,-24,-34,-19,-82,136,165,97
-48,-48,0,48,-24,-24,-29,-19,-87,136,165,97
-48,-39,9,43,-29,-14,-14,-19,-97,131,175,87
-48,-39,9,43,-29,-14,0,-19,-97,126,175,87
-48,-39,9,43,-29,-14,14,-19,-97,122,175,87
-48,-39,9,43,-29,-14,29,-19,-97,117,175,87
-48,-39,9,43,-29,-14,34,-29,-102,117,185,78
-48,-39,9,43,-29,-14,39,-29,-107,117,185,78
-48,-39,9,43,-29,-14,43,-29,-112,117,185,78
-48,-39,9,43,-29,-14,48,-29,-117,117,185,78
-39,-39,0,39,-19,-19,53,-34,-122,112,185,73
-39,-39,0,39,-19,-19,58,-39,-126,107,185,68
-39,-39,0,39,-19,-19,63,-43,-131,102,185,63
-39,-39,0,39,-19,-19,68,-48,-136,97,185,58
-39,-39,0,39,-19,-19,78,-48,-141,97,185,58
-39,-39,0,39,-19,-19,78,-48,-146,97,185,58
-39,-39,0,39,-19,-19,78,-48,-151,97,185,58
-39,-39,0,39,-19,-19,78,-48,-156,97,185,58
-48,-29,19,39,-34,-4,63,-58,-165,87,175,48
-48,-29,19,39,-34,-4,58,-58,-165,87,175,48
-48,-29,19,39,-34,-4,53,-58,-165,87,175,48
-48,-29,19,39,-34,-4,48,-58,-165,87,175,48
-53,-39,14,46,-34,-12,53,-68,-175,73,165,48
-58,-39,19,48,-39,-9,58,-68,-185,68,165,48
-63,-39,24,51,-43,-7,63,-68,-195,63,165,48
-68,-39,29,53,-48,-4,68,-68,-204,58,165,48
-78,-29,48,53,-63,9,58,-73,-209,48,175,58
-78,-29,48,53,-63,9,58,-78,-214,48,175,58
-78,-29,48,53,-63,9,58,-82,-219,48,175,58
-78,-29,48,53,-63,9,58,-87,-224,48,175,58
-68,-24,43,46,-56,9,58,-97,-239,34,170,48
-58,-19,39,39,-48,9,58,-97,-244,29,165,48
-48,-14,34,31,-41,9,58,-97,-248,24,161,48
-39,-9,29,24,-34,9,58,-97,-253,19,156,48
-53,-19,34,36,-43,7,53,-112,-263,9,156,43
-58,-19,39,39,-48,9,48,-117,-273,0,156,39
-63,-19,43,41,-53,12,43,-122,-283,-9,156,34
-68,-19,48,43,-58,14,39,-126,-292,-19,156,29
-78,-9,68,43,-73,29,34,-136,-307,-34,161,14
-78,-9,68,43,-73,29,29,-136,-312,-39,165,9
-78,-9,68,43,-73,29,24,-136,-317,-43,170,4
-78,-9,68,43,-73,29,19,-136,-322,-48,175,0
-68,0,68,34,-68,34,24,-141,-326,-53,175,0
-68,0,68,34,-68,34,29,-146,-331,-58,175,0
-68,0,68,34,-68,34,34,-151,-336,-63,175,0
-68,0,68,34,-68,34,39,-156,-341,-68,175,0
-68,9,78,29,-73,43,29,-170,-351,-73,165,-9
-68,9,78,29,-73,43,29,-175,-361,-78,165,-9
-68,9,78,29,-73,43,29,-180,-370,-82,165,-9
-68,9,78,29,-73,43,29,-185,-380,-87,165,-9
-63,19,82,21,-73,51,29,-195,-385,-92,175,-9
-58,19,78,19,-68,48,29,-195,-390,-97,175,-9
-53,19,73,17,-63,46,29,-195,-395,-102,175,-9
-48,19,68,14,-58,43,29,-195,-400,-107,175,-9
-48,24,73,12,-61,48,43,-195,-409,-117,180,-9
-48,29,78,9,-63,53,58,-195,-409,-117,185,-9
-48,34,82,7,-65,58,73,-195,-409,-117,190,-9
-48,39,87,4,-68,63,87,-195,-409,-117,195,-9
-48,39,87,4,-68,63,92,-185,-409,-117,204,-9
-48,39,87,4,-68,63,97,-185,-409,-117,204,-9
-48,39,87,4,-68,63,102,-185,-409,-117,204,-9
-48,39,87,4,-68,63,107,-185,-409,-117,204,-9
-43,34,78,4,-61,56,97,-175,-419,-117,209,-9
-39,29,68,4,-53,48,97,-175,-419,-117,214,-9
-34,24,58,4,-46,41,97,-175,-419,-117,219,-9
-29,19,48,4,-39,34,97,-175,-419,-117,224,-9
-19,29,48,-4,-34,39,112,-170,-405,-107,229,0
-19,29,48,-4,-34,39,117,-165,-400,-107,234,9
-19,29,48,-4,-34,39,122,-161,-395,-107,239,19
-19,29,48,-4,-34,39,126,-156,-390,-107,244,29
-14,39,53,-12,-34,46,136,-146,-375,-92,253,39
-9,39,48,-14,-29,43,136,-136,-370,-87,253,48
-4,39,43,-17,-24,41,136,-126,-366,-82,253,58
0,39,39,-19,-19,39,136,-117,-361,-78,253,68
0,34,34,-17,-17,34,146,-112,-351,-68,263,73
0,29,29,-14,-14,29,146,-107,-341,-68,263,78
0,24,24,-12,-12,24,146,-102,-331,-68,263,82
0,19,19,-9,-9,19,146,-97,-322,-68,263,87
9,19,9,-14,0,14,136,-87,-302,-58,263,102
9,19,9,-14,0,14,136,-78,-292,-58,263,107
9,19,9,-14,0,14,136,-68,-283,-58,263,112
9,19,9,-14,0,14,136,-58,-273,-58,263,117
14,29,14,-21,0,21,161,-48,-253,-48,268,131
19,29,9,-24,4,19,175,-39,-244,-48,273,136
24,29,4,-26,9,17,190,-29,-234,-48,278,141
29,29,0,-29,14,14,204,-19,-224,-48,283,146
19,24,4,-21,7,14,204,-9,-209,-39,273,136
19,19,0,-19,9,9,204,0,-195,-39,273,136
19,14,-4,-17,12,4,204,9,-180,-39,273,136
19,9,-9,-14,14,0,204,19,-165,-39,273,136
9,9,0,-9,4,4,209,34,-151,-29,273,136
9,9,0,-9,4,4,214,39,-136,-29,273,136
9,9,0,-9,4,4,219,43,-122,-29,273,136
9,9,0,-9,4,4,224,48,-107,-29,273,136
19,9,-9,-14,14,0,229,63,-97,-39,263,126
19,9,-9,-14,14,0,234,68,-87,-39,263,126
19,9,-9,-14,14,0,239,73,-78,-39,263,126
19,9,-9,-14,14,0,244,78,-68,-39,263,126
14,4,-9,-9,12,-2,244,87,-48,-29,263,117
9,0,-9,-4,9,-4,244,97,-39,-29,263,117
4,-4,-9,0,7,-7,244,107,-29,-29,263,117
0,-9,-9,4,4,-9,244,117,-19,-29,263,117
9,0,-9,-4,9,-4,258,131,-14,-39,253,126
9,0,-9,-4,9,-4,263,136,-9,-39,253,126
9,0,-9,-4,9,-4,268,141,-4,-39,253,126
9,0,-9,-4,9,-4,273,146,0,-39,253,126
9,0,-9,-4,9,-4,263,151,9,-39,244,126
9,0,-9,-4,9,-4,263,156,19,-39,244,126
9,0,-9,-4,9,-4,263,161,29,-39,244,126
9,0,-9,-4,9,-4,263,165,39,-39,244,126
0,-9,-9,4,4,-9,273,175,48,-48,234,136
0,-9,-9,4,4,-9,273,175,48,-48,234,136
0,-9,-9,4,4,-9,273,175,48,-48,234,136
0,-9,-9,4,4,-9,273,175,48,-48,234,136
0,-19,-19,9,9,-19,273,185,58,-39,224,146
0,-19,-19,9,9,-19,273,185,58,-39,224,146
0,-19,-19,9,9,-19,273,185,58,-39,224,146
0,-19,-19,9,9,-19,273,185,58,-39,224,146
-9,-9,0,9,-4,-4,263,185,68,-48,219,141
-9,-9,0,9,-4,-4,263,185,68,-48,214,136
-9,-9,0,9,-4,-4,263,185,68,-48,209,131
-9,-9,0,9,-4,-4,263,185,68,-48,204,126
0,-4,-4,2,2,-4,263,195,73,-43,214,136
0,0,0,0,0,0,263,195,78,-39,214,136
0,4,4,-2,-2,4,263,195,82,-34,214,136
0,9,9,-4,-4,9,263,195,87,-29,214,136
-4,4,9,0,-7,7,268,200,97,-29,214,136
-9,0,9,4,-9,4,273,204,97,-29,214,136
-14,-4,9,9,-12,2,278,209,97,-29,214,136
-19,-9,9,14,-14,0,283,214,97,-29,214,136
-19,-9,9,14,-14,0,292,204,87,-39,204,136
-19,-9,9,14,-14,0,292,204,87,-39,204,136
-19,-9,9,14,-14,0,292,204,87,-39,204,136
-19,-9,9,14,-14,0,292,204,87,-39,204,136
-9,0,9,4,-9,4,302,214,97,-29,209,126
-9,0,9,4,-9,4,302,214,97,-29,214,126
-9,0,9,4,-9,4,302,214,97,-29,219,126
-9,0,9,4,-9,4,302,214,97,-29,224,126
-9,0,9,4,-9,4,292,219,97,-29,234,126
-9,0,9,4,-9,4,292,224,97,-29,234,126
-9,0,9,4,-9,4,292,229,97,-29,234,126
-9,0,9,4,-9,4,292,234,97,-29,234,126
-9,-9,0,9,-4,-4,283,234,97,-34,224,122
-9,-9,0,9,-4,-4,283,234,97,-39,224,117
-9,-9,0,9,-4,-4,283,234,97,-43,224,112
-9,-9,0,9,-4,-4,283,234,97,-48,224,107
-9,0,9,4,-9,4,292,234,97,-48,224,102
-9,0,9,4,-9,4,292,234,97,-48,224,97
-9,0,9,4,-9,4,292,234,97,-48,224,92
-9,0,9,4,-9,4,292,234,97,-48,224,87
-19,0,19,9,-19,9,287,244,97,-48,224,87
-19,0,19,9,-19,9,283,244,97,-48,224,87
-19,0,19,9,-19,9,278,244,97,-48,224,87
-19,0,19,9,-19,9,273,244,97,-48,224,87
-19,-9,9,14,-14,0,283,234,97,-53,224,87
-19,-9,9,14,-14,0,283,234,97,-58,224,87
-19,-9,9,14,-14,0,283,234,97,-63,224,87
-19,-9,9,14,-14,0,283,234,97,-68,224,87
-9,-9,0,9,-4,-4,273,234,92,-68,224,78
-9,-9,0,9,-4,-4,273,234,87,-68,224,78
-9,-9,0,9,-4,-4,273,234,82,-68,224,78
-9,-9,0,9,-4,-4,273,234,78,-68,224,78
-9,-9,0,9,-4,-4,278,224,53,-68,224,87
-9,-9,0,9,-4,-4,283,224,39,-68,224,87
-9,-9,0,9,-4,-4,287,224,24,-68,224,87
-9,-9,0,9,-4,-4,292,224,9,-68,224,87
-19,-9,9,14,-14,0,292,224,-4,-68,224,78
-19,-9,9,14,-14,0,292,224,-19,-68,224,78
