I,II,III,aVR,aVL,aVF,V1,V2,V3,V4,V5,V6
175,214,39,-195,68,126,224,409,468,448,204,-126
175,214,39,-195,68,126,224,409,468,448,204,-126
175,214,39,-195,68,126,224,409,468,448,204,-126
175,214,39,-195,68,126,224,409,468,448,204,-126
165,214,48,-190,58,131,214,395,453,448,204,-126
165,214,48,-190,58,131,214,390,448,448,204,-126
165,214,48,-190,58,131,214,385,444,448,204,-126
165,214,48,-190,58,131,214,380,439,448,204,-126
156,214,58,-185,48,136,204,366,419,439,200,-136
156,214,58,-185,48,136,204,351,409,429,195,-136
156,214,58,-185,48,136,204,336,400,419,190,-136
156,214,58,-185,48,136,204,322,390,409,185,-136
151,209,58,-180,46,134,204,297,375,400,170,-136
146,204,58,-175,43,131,204,283,361,390,165,-136
141,200,58,-170,41,129,204,268,346,380,161,-136
136,195,58,-165,39,126,204,253,331,370,156,-136
126,190,63,-158,31,126,200,224,312,351,146,-136
126,185,58,-156,34,122,195,204,292,341,136,-136
126,180,53,-153,36,117,190,185,273,331,126,-136
126,175,48,-151,39,112,185,165,253,322,117,-136
122,161,39,-141,41,100,185,141,229,302,107,-136
117,156,39,-136,39,97,185,126,214,292,97,-136
112,151,39,-131,36,95,185,112,200,283,87,-136
107,146,39,-126,34,92,185,97,185,273,78,-136
92,131,39,-112,26,85,195,78,165,258,63,-136
87,126,39,-107,24,82,195,68,156,253,58,-136
82,122,39,-102,21,80,195,58,146,248,53,-136
78,117,39,-97,19,78,195,48,136,244,48,-136
73,112,39,-92,17,75,195,34,117,234,43,-136
68,107,39,-87,14,73,195,19,107,224,39,-136
63,102,39,-82,12,70,195,4,97,214,34,-136
58,97,39,-78,9,68,195,-9,87,204,29,-136
53,92,39,-73,7,65,195,-14,73,200,14,-136
48,87,39,-68,4,63,195,-19,68,195,9,-136
43,82,39,-63,2,61,195,-24,63,190,4,-136
39,78,39,-58,0,58,195,-29,58,185,0,-136
34,68,34,-51,0,51,204,-43,53,180,9,-136
29,68,39,-48,-4,53,204,-48,48,175,9,-136
24,68,43,-46,-9,56,204,-53,43,170,9,-136
19,68,48,-43,-14,58,204,-58,39,165,9,-136
24,63,39,-43,-7,51,195,-63,24,161,-4,-136
29,58,29,-43,0,43,195,-68,19,156,-9,-136
34,53,19,-43,7,36,195,-73,14,151,-14,-136
39,48,9,-43,14,29,195,-78,9,146,-19,-136
24,39,14,-31,4,26,204,-78,9,146,-14,-146
19,39,19,-29,0,29,204,-78,9,146,-9,-146
14,39,24,-26,-4,31,204,-78,9,146,-4,-146
9,39,29,-24,-9,34,204,-78,9,146,0,-146
19,39,19,-29,0,29,195,-78,0,136,-9,-146
19,39,19,-29,0,29,195,-78,0,136,-9,-146
19,39,19,-29,0,29,195,-78,0,136,-9,-146
19,39,19,-29,0,29,195,-78,0,136,-9,-146
19,48,29,-34,-4,39,195,-87,0,136,-9,-146
19,48,29,-34,-4,39,195,-87,0,136,-9,-146
19,48,29,-34,-4,39,195,-87,0,136,-9,-146
19,48,29,-34,-4,39,195,-87,0,136,-9,-146
29,48,19,-39,4,34,185,-87,-9,136,-19,-146
29,48,19,-39,4,34,185,-87,-9,136,-19,-146
29,48,19,-39,4,34,185,-87,-9,136,-19,-146
29,48,19,-39,4,34,185,-87,-9,136,-19,-146
19,48,29,-34,-4,39,185,-87,0,136,-9,-146
19,48,29,-34,-4,39,185,-87,0,136,-9,-146
19,48,29,-34,-4,39,185,-87,0,136,-9,-146
19,48,29,-34,-4,39,185,-87,0,136,-9,-146
29,48,19,-39,4,34,175,-87,0,146,-4,-146
29,48,19,-39,4,34,175,-87,0,146,0,-146
29,48,19,-39,4,34,175,-87,0,146,4,-146
29,48,19,-39,4,34,175,-87,0,146,9,-146
19,48,29,-34,-4,39,185,-78,0,156,9,-146
19,48,29,-34,-4,39,185,-78,0,156,9,-146
19,48,29,-34,-4,39,185,-78,0,156,9,-146
19,48,29,-34,-4,39,185,-78,0,156,9,-146
29,58,29,-43,0,43,175,-78,0,156,9,-146
29,58,29,-43,0,43,175,-78,0,156,9,-146
29,58,29,-43,0,43,175,-78,0,156,9,-146
29,58,29,-43,0,43,175,-78,0,156,9,-146
39,58,19,-48,9,39,180,-68,9,165,9,-146
39,58,19,-48,9,39,185,-68,9,165,9,-146
39,58,19,-48,9,39,190,-68,9,165,9,-146
39,58,19,-48,9,39,195,-68,9,165,9,-146
43,68,24,-56,9,46,190,-78,9,165,9,-156
48,68,19,-58,14,43,185,-78,9,165,9,-156
53,68,14,-61,19,41,180,-78,9,165,9,-156
58,68,9,-63,24,39,175,-78,9,165,9,-156
48,68,19,-58,14,43,180,-73,14,170,14,-156
39,68,29,-53,4,48,185,-68,19,175,19,-156
29,68,39,-48,-4,53,190,-63,24,180,24,-156
19,68,48,-43,-14,58,195,-58,29,185,29,-156
9,68,58,-39,-24,63,195,-48,39,185,29,-156
9,68,58,-39,-24,63,195,-48,39,185,29,-156
9,68,58,-39,-24,63,195,-48,39,185,29,-156
9,68,58,-39,-24,63,195,-48,39,185,29,-156
14,68,53,-41,-19,61,185,-58,39,175,29,-156
19,68,48,-43,-14,58,185,-58,39,175,29,-156
24,68,43,-46,-9,56,185,-58,39,175,29,-156
29,68,39,-48,-4,53,185,-58,39,175,29,-156
19,58,39,-39,-9,48,185,-58,39,185,29,-156
19,58,39,-39,-9,48,185,-58,39,185,29,-156
19,58,39,-39,-9,48,185,-58,39,185,29,-156
19,58,39,-39,-9,48,185,-58,39,185,29,-156
29,68,39,-48,-4,53,195,-48,29,185,29,-156
29,68,39,-48,-4,53,195,-48,29,185,29,-156
29,68,39,-48,-4,53,195,-48,29,185,29,-156
29,68,39,-48,-4,53,195,-48,29,185,29,-156
24,78,53,-51,-14,65,195,-48,39,175,29,-156
19,78,58,-48,-19,68,195,-48,39,175,29,-156
14,78,63,-46,-24,70,195,-48,39,175,29,-156
9,78,68,-43,-29,73,195,-48,39,175,29,-156
9,78,68,-43,-29,73,185,-53,39,175,19,-156
9,78,68,-43,-29,73,185,-58,39,175,19,-156
9,78,68,-43,-29,73,185,-63,39,175,19,-156
9,78,68,-43,-29,73,185,-68,39,175,19,-156
19,78,58,-48,-19,68,195,-58,29,175,29,-165
19,78,58,-48,-19,68,195,-58,29,175,29,-165
19,78,58,-48,-19,68,195,-58,29,175,29,-165
19,78,58,-48,-19,68,195,-58,29,175,29,-165
19,73,53,-46,-17,63,195,-68,29,175,19,-165
19,68,48,-43,-14,58,195,-68,29,175,19,-165
19,63,43,-41,-12,53,195,-68,29,175,19,-165
19,58,39,-39,-9,48,195,-68,29,175,19,-165
9,58,48,-34,-19,53,195,-68,29,165,29,-165
9,58,48,-34,-19,53,195,-68,29,165,29,-165
9,58,48,-34,-19,53,195,-68,29,165,29,-165
9,58,48,-34,-19,53,195,-68,29,165,29,-165
19,58,39,-39,-9,48,185,-78,19,165,19,-165
19,58,39,-39,-9,48,185,-78,19,165,19,-165
19,58,39,-39,-9,48,185,-78,19,165,19,-165
19,58,39,-39,-9,48,185,-78,19,165,19,-165
19,68,48,-43,-14,58,185,-78,29,165,19,-165
19,68,48,-43,-14,58,185,-78,29,165,19,-165
19,68,48,-43,-14,58,185,-78,29,165,19,-165
19,68,48,-43,-14,58,185,-78,29,165,19,-165
19,68,48,-43,-14,58,175,-82,24,165,19,-165
19,68,48,-43,-14,58,175,-87,19,165,19,-165
19,68,48,-43,-14,58,175,-92,14,165,19,-165
19,68,48,-43,-14,58,175,-97,9,165,19,-165
4,63,58,-34,-26,61,175,-87,19,156,19,-165
0,58,58,-29,-29,58,175,-87,19,156,19,-165
-4,53,58,-24,-31,56,175,-87,19,156,19,-165
-9,48,58,-19,-34,53,175,-87,19,156,19,-165
0,48,48,-24,-24,48,175,-97,19,165,19,-175
0,48,48,-24,-24,48,175,-97,19,165,19,-175
0,48,48,-24,-24,48,175,-97,19,165,19,-175
0,48,48,-24,-24,48,175,-97,19,165,19,-175
4,48,43,-26,-19,46,175,-97,9,156,9,-175
9,48,39,-29,-14,43,175,-97,9,156,9,-175
14,48,34,-31,-9,41,175,-97,9,156,9,-175
19,48,29,-34,-4,39,175,-97,9,156,9,-175
29,58,29,-43,0,43,165,-107,9,156,19,-175
29,58,29,-43,0,43,165,-107,9,156,19,-175
29,58,29,-43,0,43,165,-107,9,156,19,-175
29,58,29,-43,0,43,165,-107,9,156,19,-175
14,58,43,-36,-14,51,170,-102,19,165,19,-175
9,58,48,-34,-19,53,175,-97,19,165,19,-175
4,58,53,-31,-24,56,180,-92,19,165,19,-175
0,58,58,-29,-29,58,185,-87,19,165,19,-175
0,58,58,-29,-29,58,185,-97,19,165,29,-175
0,58,58,-29,-29,58,185,-97,19,165,29,-175
0,58,58,-29,-29,58,185,-97,19,165,29,-175
0,58,58,-29,-29,58,185,-97,19,165,29,-175
9,58,48,-34,-19,53,175,-107,9,161,29,-175
9,58,48,-34,-19,53,175,-107,9,156,29,-175
9,58,48,-34,-19,53,175,-107,9,151,29,-175
9,58,48,-34,-19,53,175,-107,9,146,29,-175
0,58,58,-29,-29,58,165,-107,9,156,29,-175
0,58,58,-29,-29,58,165,-107,9,156,29,-175
0,58,58,-29,-29,58,165,-107,9,156,29,-175
0,58,58,-29,-29,58,165,-107,9,156,29,-175
9,58,48,-34,-19,53,156,-107,0,146,19,-185
19,58,39,-39,-9,48,156,-107,0,146,19,-185
29,58,29,-43,0,43,156,-107,0,146,19,-185
39,58,19,-48,9,39,156,-107,0,146,19,-185
29,58,29,-43,0,43,156,-107,0,156,29,-185
29,58,29,-43,0,43,156,-107,0,156,29,-185
29,58,29,-43,0,43,156,-107,0,156,29,-185
29,58,29,-43,0,43,156,-107,0,156,29,-185
24,48,24,-36,0,36,156,-117,0,146,19,-185
19,48,29,-34,-4,39,156,-117,0,146,19,-185
14,48,34,-31,-9,41,156,-117,0,146,19,-185
9,48,39,-29,-14,43,156,-117,0,146,19,-185
9,58,48,-34,-19,53,165,-112,9,146,24,-185
9,58,48,-34,-19,53,165,-107,9,146,29,-185
9,58,48,-34,-19,53,165,-102,9,146,34,-185
9,58,48,-34,-19,53,165,-97,9,146,39,-185
14,58,43,-36,-14,51,156,-107,0,136,29,-185
19,58,39,-39,-9,48,156,-107,0,136,29,-185
24,58,34,-41,-4,46,156,-107,0,136,29,-185
29,58,29,-43,0,43,156,-107,0,136,29,-185
24,48,24,-36,0,36,156,-107,9,146,39,-185
19,48,29,-34,-4,39,156,-107,9,146,39,-185
14,48,34,-31,-9,41,156,-107,9,146,39,-185
9,48,39,-29,-14,43,156,-107,9,146,39,-185
9,48,39,-29,-14,43,156,-107,9,136,29,-185
9,48,39,-29,-14,43,156,-107,9,136,29,-185
9,48,39,-29,-14,43,156,-107,9,136,29,-185
9,48,39,-29,-14,43,156,-107,9,136,29,-185
19,48,29,-34,-4,39,146,-97,9,146,39,-195
19,48,29,-34,-4,39,146,-97,9,146,39,-195
19,48,29,-34,-4,39,146,-97,9,146,39,-195
19,48,29,-34,-4,39,146,-97,9,146,39,-195
9,58,48,-34,-19,53,146,-97,9,146,39,-195
9,58,48,-34,-19,53,146,-97,9,146,39,-195
9,58,48,-34,-19,53,146,-97,14,146,39,-190
14,68,53,-41,-19,61,151,-92,24,156,48,-190
34,102,68,-68,-17,85,170,-87,29,170,58,-190
39,117,78,-78,-19,97,170,-87,34,175,63,-185
39,131,92,-85,-26,112,170,-87,39,180,63,-190
34,146,112,-90,-39,129,185,-87,43,185,73,-190
24,151,126,-87,-51,139,190,-68,63,204,82,-185
24,161,136,-92,-56,148,200,-63,68,214,87,-185
24,161,136,-92,-56,148,204,-63,73,219,92,-190
24,161,136,-92,-56,148,209,-63,78,224,92,-195
34,161,126,-97,-46,143,209,-63,78,234,102,-195
34,165,131,-100,-48,148,209,-63,78,234,102,-195
34,165,131,-100,-48,148,204,-63,78,234,97,-204
34,165,131,-100,-48,148,200,-68,78,234,97,-204
43,161,117,-102,-36,139,200,-58,78,244,97,-195
43,161,117,-102,-36,139,200,-58,78,248,97,-195
43,156,112,-100,-34,134,195,-58,78,248,102,-195
39,151,112,-95,-36,131,180,-58,78,248,102,-195
48,156,107,-102,-29,131,161,-68,68,239,92,-204
53,151,97,-102,-21,124,141,-68,68,239,92,-200
53,151,97,-102,-21,124,122,-63,68,244,102,-195
68,161,92,-114,-12,126,102,-53,78,258,107,-185
87,170,82,-129,2,126,92,-53,82,263,117,-190
92,175,82,-134,4,129,78,-53,82,263,117,-195
112,175,63,-143,24,119,63,-68,73,253,112,-204
122,175,53,-148,34,114,58,-73,58,248,112,-209
102,165,63,-134,19,114,48,-73,58,244,112,-204
92,161,68,-126,12,114,48,-78,53,239,107,-204
78,156,78,-117,0,117,43,-92,43,224,97,-209
73,151,78,-112,-2,114,39,-107,24,214,92,-214
82,151,68,-117,7,109,24,-122,0,214,92,-204
92,156,63,-124,14,109,14,-122,0,214,92,-200
117,161,43,-139,36,102,14,-122,4,214,92,-200
117,161,43,-139,36,102,14,-112,4,214,92,-195
107,146,39,-126,34,92,14,-107,4,204,97,-200
107,146,39,-126,34,92,14,-112,4,204,97,-200
107,146,39,-126,34,92,14,-117,4,209,97,-204
102,146,43,-124,29,95,19,-117,9,209,97,-209
107,141,34,-124,36,87,24,-112,9,219,97,-200
112,141,29,-126,41,85,29,-102,9,214,92,-209
112,126,14,-119,48,70,29,-97,4,209,87,-214
102,117,14,-109,43,65,29,-97,0,209,82,-219
87,117,29,-102,29,73,24,-97,0,204,92,-214
78,107,29,-92,24,68,34,-97,4,204,92,-214
73,97,24,-85,24,61,39,-97,4,204,87,-214
63,87,24,-75,19,56,53,-97,4,204,82,-214
48,58,9,-53,19,34,63,-112,-4,195,58,-209
29,34,4,-31,12,19,68,-117,-19,180,48,-219
29,19,-9,-24,19,4,68,-122,-24,170,39,-224
29,19,-9,-24,19,4,68,-122,-24,161,29,-229
14,0,-14,-7,14,-7,73,-112,-14,170,34,-219
9,0,-9,-4,9,-4,73,-112,-14,170,39,-214
4,4,0,-4,2,2,73,-112,-14,170,48,-214
0,4,4,-2,-2,4,78,-112,-14,175,53,-214
0,-4,-4,2,2,-4,78,-112,-14,175,43,-214
0,-4,-4,2,2,-4,82,-107,-14,175,43,-219
0,-4,-4,2,2,-4,82,-107,-14,175,43,-219
0,-9,-9,4,4,-9,82,-107,-14,170,43,-219
0,-19,-19,9,9,-19,73,-107,-29,170,39,-219
0,-19,-19,9,9,-19,73,-107,-29,170,39,-219
0,-14,-14,7,7,-14,78,-107,-19,170,43,-219
0,-14,-14,7,7,-14,78,-107,-19,175,43,-219
0,-9,-9,4,4,-9,78,-107,-19,165,53,-219
0,-9,-9,4,4,-9,82,-107,-19,165,53,-219
-4,-9,-4,7,0,-7,87,-102,-9,165,53,-219
-4,-9,-4,7,0,-7,87,-102,-19,165,53,-219
-4,-19,-14,12,4,-17,78,-107,-19,161,48,-214
-4,-19,-14,12,4,-17,78,-107,-19,161,48,-214
-4,-24,-19,14,7,-21,78,-107,-19,161,48,-214
0,-24,-24,12,12,-24,78,-102,-19,161,48,-214
0,-24,-24,12,12,-24,73,-102,-19,161,39,-224
0,-24,-24,12,12,-24,73,-102,-19,165,43,-224
-9,-24,-14,17,2,-19,73,-102,-14,165,43,-219
-14,-24,-9,19,-2,-17,73,-102,-14,165,43,-219
-14,-24,-9,19,-2,-17,78,-112,-19,170,53,-219
-9,-24,-14,17,2,-19,78,-112,-19,170,48,-224
-9,-24,-14,17,2,-19,78,-112,-14,170,48,-224
-9,-24,-14,17,2,-19,73,-112,-14,170,53,-224
4,-4,-9,0,7,-7,82,-102,-14,170,63,-224
4,-4,-9,0,7,-7,82,-102,-14,161,53,-224
-4,-14,-9,9,2,-12,78,-102,-24,161,53,-219
-4,-19,-14,12,4,-17,87,-87,-24,165,53,-224
-9,-29,-19,19,4,-24,102,-68,-9,165,53,-224
-4,-9,-4,7,0,-7,107,-58,9,170,48,-229
-14,0,14,7,-14,7,126,-39,39,185,48,-229
-24,4,29,9,-26,17,156,0,82,219,68,-229
-24,19,43,2,-34,31,170,68,156,268,107,-229
-14,87,102,-36,-58,95,190,175,278,390,200,-224
48,185,136,-117,-43,161,190,322,439,527,317,-229
141,239,97,-190,21,168,165,468,580,644,429,-224
214,253,39,-234,87,146,126,585,692,736,531,-229
287,287,0,-287,143,143,34,624,707,824,634,-229
405,361,-43,-383,224,158,-82,561,649,878,732,-224
536,458,-78,-497,307,190,-234,473,556,927,839,-229
668,556,-112,-612,390,222,-434,380,468,976,951,-229
805,629,-175,-717,490,226,-614,297,395,1034,1078,-229
951,732,-219,-841,585,256,-761,258,361,1132,1229,-229
1068,854,-214,-961,641,319,-897,185,307,1244,1390,-234
1137,995,-141,-1066,639,427,-1034,82,239,1346,1551,-229
1224,1117,-107,-1171,666,505,-1166,-53,156,1400,1683,-234
1263,1180,-82,-1222,673,549,-1307,-258,39,1405,1732,-234
1249,1190,-58,-1220,653,566,-1385,-453,-58,1361,1712,-229
1220,1166,-53,-1193,636,556,-1395,-566,-131,1298,1649,-229
1200,1049,-151,-1124,675,448,-1390,-619,-214,1166,1517,-229
1122,785,-336,-954,729,224,-1356,-649,-322,961,1278,-234
1039,556,-483,-797,761,36,-1273,-610,-405,741,1015,-234
946,453,-492,-700,719,-19,-1171,-566,-434,585,829,-234
751,385,-366,-568,558,9,-1029,-546,-424,473,658,-239
556,283,-273,-419,414,4,-888,-531,-444,326,458,-234
453,185,-268,-319,361,-41,-775,-541,-497,146,253,-234
356,107,-248,-231,302,-70,-658,-541,-517,24,102,-239
268,48,-219,-158,244,-85,-531,-512,-497,-24,29,-239
224,29,-195,-126,209,-82,-414,-448,-458,-24,14,-234
204,19,-185,-112,195,-82,-307,-356,-395,0,19,-234
165,4,-161,-85,163,-78,-219,-253,-326,48,43,-234
136,-9,-146,-63,141,-78,-126,-161,-244,102,63,-244
107,-4,-112,-51,109,-58,-58,-92,-175,136,82,-239
97,-4,-102,-46,100,-53,-14,-53,-117,151,87,-239
87,-14,-102,-36,95,-58,9,-29,-68,165,87,-239
68,-29,-97,-19,82,-63,29,-9,-24,185,107,-244
58,-29,-87,-14,73,-58,39,-14,-14,204,117,-239
39,-29,-68,-4,53,-48,43,-14,-19,200,117,-239
29,-48,-78,9,53,-63,43,-29,-43,180,102,-239
48,-29,-78,-9,63,-53,53,-39,-53,170,78,-239
29,-24,-53,-2,41,-39,73,-39,-34,175,63,-248
14,-29,-43,7,29,-36,73,-34,-19,175,63,-248
4,-24,-29,9,17,-26,78,-29,-4,180,63,-248
0,-19,-19,9,9,-19,87,-19,4,180,73,-248
4,-29,-34,12,19,-31,97,-19,9,190,82,-248
4,-29,-34,12,19,-31,102,-19,9,195,87,-248
0,-29,-29,14,14,-29,112,-19,9,195,87,-253
4,-29,-34,12,19,-31,112,-19,9,190,78,-253
-4,-39,-34,21,14,-36,122,-9,9,190,73,-248
-14,-43,-29,29,7,-36,122,-9,19,190,73,-248
-24,-48,-24,36,0,-36,126,4,34,195,73,-248
-34,-53,-19,43,-7,-36,126,9,34,195,78,-244
-24,-43,-19,34,-2,-31,117,9,48,204,87,-253
-14,-43,-29,29,7,-36,117,9,48,209,87,-258
-24,-43,-19,34,-2,-31,122,14,53,214,92,-258
-24,-39,-14,31,-4,-26,122,14,53,214,92,-258
-19,-48,-29,34,4,-39,122,14,48,214,92,-253
-19,-43,-24,31,2,-34,131,24,48,214,92,-253
-19,-43,-24,31,2,-34,122,24,53,219,92,-248
-19,-48,-29,34,4,-39,122,29,63,219,92,-248
-9,-48,-39,29,14,-43,112,19,58,209,82,-253
-9,-48,-39,29,14,-43,117,24,58,214,87,-253
-9,-48,-39,29,14,-43,117,24,58,214,87,-253
9,-48,-58,19,34,-53,117,29,58,214,87,-248
9,-34,-43,12,26,-39,126,43,63,214,97,-258
0,-34,-34,17,17,-34,126,43,68,219,102,-258
0,-34,-34,17,17,-34,126,48,73,219,102,-253
4,-34,-39,14,21,-36,126,53,78,224,107,-253
9,-34,-43,12,26,-39,122,58,73,219,97,-263
14,-29,-43,7,29,-36,122,63,82,224,102,-263
24,-29,-53,2,39,-41,122,63,87,224,107,-263
29,-29,-58,0,43,-43,117,73,87,224,107,-263
24,-19,-43,-2,34,-31,126,87,92,239,107,-258
19,-14,-34,-2,26,-24,126,87,97,239,107,-258
14,-14,-29,0,21,-21,122,92,107,239,107,-258
9,-14,-24,2,17,-19,117,97,117,244,112,-258
24,-24,-48,0,36,-36,117,97,122,239,112,-268
34,-19,-53,-7,43,-36,117,97,122,239,112,-258
39,-19,-58,-9,48,-39,117,107,117,248,117,-258
39,-19,-58,-9,48,-39,122,107,112,248,117,-258
29,-9,-39,-9,34,-24,122,102,131,248,122,-268
29,-9,-39,-9,34,-24,122,107,131,253,122,-268
29,-9,-39,-9,34,-24,112,112,131,253,122,-268
29,-4,-34,-12,31,-19,112,117,141,253,122,-268
19,-4,-24,-7,21,-14,112,122,136,248,122,-273
19,-9,-29,-4,24,-19,112,131,141,253,126,-263
19,-9,-29,-4,24,-19,112,146,156,258,136,-263
14,-14,-29,0,21,-21,112,151,156,263,136,-263
19,-4,-24,-7,21,-14,112,165,175,278,156,-263
34,0,-34,-17,34,-17,112,165,180,283,156,-263
39,0,-39,-19,39,-19,112,175,185,283,156,-263
34,0,-34,-17,34,-17,107,175,190,287,156,-268
39,0,-39,-19,39,-19,107,190,180,278,161,-278
53,4,-48,-29,51,-21,107,200,190,287,161,-273
53,4,-48,-29,51,-21,107,204,195,292,165,-273
53,4,-48,-29,51,-21,107,209,200,292,165,-273
82,19,-63,-51,73,-21,97,209,200,302,161,-278
82,29,-53,-56,68,-12,97,214,204,302,170,-273
78,29,-48,-53,63,-9,97,224,219,307,175,-268
68,34,-34,-51,51,0,97,234,229,317,180,-263
63,34,-29,-48,46,2,97,248,234,336,195,-273
58,34,-24,-46,41,4,97,263,248,341,200,-278
58,43,-14,-51,36,14,97,273,268,356,209,-273
68,48,-19,-58,43,14,97,283,283,356,214,-273
78,39,-39,-58,58,0,107,292,283,351,204,-278
78,39,-39,-58,58,0,107,302,292,356,214,-278
78,48,-29,-63,53,9,102,307,297,366,219,-278
87,48,-39,-68,63,4,102,312,292,370,224,-273
92,58,-34,-75,63,12,102,331,307,385,224,-283
92,63,-29,-78,61,17,102,346,317,390,229,-278
92,63,-29,-78,61,17,97,351,326,395,234,-278
102,73,-29,-87,65,21,97,361,336,400,239,-268
117,92,-24,-104,70,34,87,361,336,409,253,-268
122,97,-24,-109,73,36,87,375,346,409,263,-268
122,102,-19,-112,70,41,87,385,356,414,268,-273
131,107,-24,-119,78,41,78,390,361,409,273,-278
146,102,-43,-124,95,29,78,395,366,419,278,-273
146,112,-34,-129,90,39,82,405,380,429,283,-273
146,117,-29,-131,87,43,82,414,390,444,292,-273
141,122,-19,-131,80,51,78,414,395,448,297,-273
122,117,-4,-119,63,56,68,429,400,453,302,-273
131,122,-9,-126,70,56,63,434,409,453,312,-278
151,126,-24,-139,87,51,58,439,414,458,317,-283
156,136,-19,-146,87,58,58,444,419,463,322,-278
146,151,4,-148,70,78,68,448,424,478,331,-273
146,156,9,-151,68,82,63,453,429,483,331,-278
156,161,4,-158,75,82,58,463,429,488,341,-278
156,165,9,-161,73,87,53,468,434,492,351,-283
161,175,14,-168,73,95,48,473,434,483,341,-287
161,175,14,-168,73,95,48,468,439,483,346,-287
165,180,14,-173,75,97,43,468,444,497,346,-283
170,185,14,-178,78,100,29,463,444,497,351,-287
180,185,4,-183,87,95,29,473,439,497,351,-292
185,195,9,-190,87,102,29,468,439,497,351,-292
190,200,9,-195,90,104,29,463,439,492,341,-292
190,200,9,-195,90,104,24,463,434,488,341,-292
200,200,0,-200,100,100,29,458,444,497,341,-302
195,200,4,-197,95,102,29,453,439,497,346,-302
195,200,4,-197,95,102,24,448,439,492,351,-302
200,200,0,-200,100,100,24,444,429,483,351,-297
195,195,0,-195,97,97,24,444,424,492,346,-292
190,190,0,-190,95,95,14,434,419,492,351,-292
185,185,0,-185,92,92,9,424,405,488,351,-292
180,175,-4,-178,92,85,9,414,395,473,351,-292
170,175,4,-173,82,90,-4,405,385,463,336,-292
175,175,0,-175,87,87,-4,390,375,458,336,-297
175,175,0,-175,87,87,-4,375,366,453,326,-302
146,170,24,-158,61,97,-4,366,361,444,317,-302
156,180,24,-168,65,102,-4,341,336,424,312,-302
161,175,14,-168,73,95,-14,326,326,409,292,-302
161,170,9,-165,75,90,-14,312,312,390,283,-307
156,165,9,-161,73,87,-14,287,297,380,268,-312
156,156,0,-156,78,78,-4,292,292,375,273,-312
156,156,0,-156,78,78,0,278,278,370,258,-312
146,141,-4,-143,75,68,0,263,263,361,253,-322
131,136,4,-134,63,70,0,239,239,356,244,-322
112,136,24,-124,43,80,-9,214,219,346,234,-312
107,131,24,-119,41,78,-4,204,209,336,224,-312
107,117,9,-112,48,63,-4,185,200,326,214,-312
102,117,14,-109,43,65,-4,170,185,312,209,-307
92,112,19,-102,36,65,-4,151,161,307,214,-297
82,97,14,-90,34,56,-4,141,146,297,200,-307
73,92,19,-82,26,56,-4,126,141,287,190,-312
73,82,9,-78,31,46,0,117,122,283,185,-322
58,82,24,-70,17,53,0,102,112,258,175,-322
53,78,24,-65,14,51,0,87,97,244,165,-326
53,73,19,-63,17,46,0,78,92,239,161,-322
48,68,19,-58,14,43,0,68,87,239,156,-322
19,53,34,-36,-7,43,9,63,82,244,161,-322
14,48,34,-31,-9,41,14,58,78,244,156,-322
9,43,34,-26,-12,39,14,53,63,234,151,-326
4,43,39,-24,-17,41,14,48,43,229,141,-331
0,39,39,-19,-19,39,14,34,29,224,126,-326
0,34,34,-17,-17,34,19,24,24,219,126,-322
4,29,24,-17,-9,26,19,24,24,204,126,-322
9,19,9,-14,0,14,19,19,19,195,122,-322
4,9,4,-7,0,7,14,14,4,200,107,-317
-4,9,14,-2,-9,12,9,9,0,195,102,-317
-4,9,14,-2,-9,12,4,4,0,190,97,-317
-4,4,9,0,-7,7,4,4,-4,190,97,-317
-9,14,24,-2,-17,19,14,14,-9,190,107,-317
-9,9,19,0,-14,14,14,9,-19,185,102,-317
-19,4,24,7,-21,14,9,4,-19,180,102,-317
-19,0,19,9,-19,9,9,4,-19,180,102,-322
-14,0,14,7,-14,7,0,4,-24,180,87,-322
-14,0,14,7,-14,7,0,0,-24,180,87,-322
-14,-4,9,9,-12,2,0,-4,-24,180,87,-322
-24,-4,19,14,-21,7,0,-4,-24,180,82,-322
-34,-14,19,24,-26,2,0,0,-29,175,82,-322
-29,-9,19,19,-24,4,0,0,-34,170,82,-322
-24,-9,14,17,-19,2,0,-9,-34,156,82,-322
-24,-9,14,17,-19,2,0,-9,-34,151,82,-322
-29,-9,19,19,-24,4,0,-19,-24,156,78,-331
-24,-9,14,17,-19,2,0,-19,-24,156,78,-331
-14,-4,9,9,-12,2,-4,-19,-29,161,82,-326
0,-4,-4,2,2,-4,-4,-19,-29,165,82,-326
-4,-4,0,4,-2,-2,-4,-19,-29,165,92,-326
-9,-4,4,7,-7,0,-4,-19,-29,165,92,-326
-14,-4,9,9,-12,2,0,-19,-29,165,87,-331
-19,-4,14,12,-17,4,0,-19,-24,165,87,-331
-24,-24,0,24,-12,-12,-9,-9,-34,165,87,-341
-24,-14,9,19,-17,-2,-4,-4,-34,170,92,-336
-24,-14,9,19,-17,-2,-4,-4,-34,170,92,-336
-29,-19,9,24,-19,-4,-4,-4,-34,161,92,-336
-29,-9,19,19,-24,4,-9,-9,-34,161,92,-336
-29,-4,24,17,-26,9,-9,-9,-29,165,92,-336
-29,-4,24,17,-26,9,-4,-9,-29,165,97,-336
-29,-4,24,17,-26,9,-4,-9,-29,165,97,-336
-24,-9,14,17,-19,2,-14,0,-19,170,97,-278
-24,-9,14,17,-19,2,-9,0,-14,175,102,-234
-24,-9,14,17,-19,2,-9,4,-14,180,102,-195
-19,-14,4,17,-12,-4,-9,4,-14,185,97,-151
-4,-24,-19,14,7,-21,-9,-14,-19,175,92,-146
-4,-19,-14,12,4,-17,-14,-14,-24,175,92,-146
-9,-19,-9,14,0,-14,-14,-9,-29,175,97,-146
-19,-19,0,19,-9,-9,-14,-4,-29,180,97,-141
-43,-9,34,26,-39,12,-4,4,-19,180,92,-141
-34,-4,29,19,-31,12,-4,9,-19,180,92,-141
-34,-4,29,19,-31,12,-9,9,-19,180,92,-141
-39,-4,34,21,-36,14,-9,9,-19,185,92,-141
-39,-4,34,21,-36,14,-14,0,-24,180,92,-141
-29,-4,24,17,-26,9,-14,0,-24,180,87,-136
-29,0,29,14,-29,14,-19,0,-24,180,87,-136
-34,0,34,17,-34,17,-19,0,-24,175,87,-136
-34,0,34,17,-34,17,-14,9,-14,180,97,-126
-19,0,19,9,-19,9,-14,9,-14,180,97,-126
-29,0,29,14,-29,14,-14,9,-14,180,97,-126
-29,0,29,14,-29,14,-9,14,-4,185,107,-126
-48,-9,39,29,-43,14,-9,4,-14,175,97,-117
-68,-14,53,41,-61,19,-9,4,-14,180,97,-122
-58,-19,39,39,-48,9,-14,4,-14,180,92,-122
-58,-24,34,41,-46,4,-14,4,-14,180,92,-122
-39,-19,19,29,-29,0,-14,19,-14,180,92,-112
-29,-14,14,21,-21,0,-9,19,-14,180,102,-112
-19,-9,9,14,-14,0,-9,19,-14,180,102,-117
-29,-4,24,17,-26,9,-9,19,-14,175,102,-126
-34,-4,29,19,-31,12,-9,9,-9,180,102,-117
-29,-4,24,17,-26,9,-9,9,-9,185,102,-107
-29,-4,24,17,-26,9,-9,9,-9,190,107,-97
-24,0,24,12,-24,12,-9,9,-14,195,112,-87
-29,9,39,9,-34,24,-19,9,-14,185,97,-97
-43,9,53,17,-48,31,-19,9,-14,190,97,-97
-48,9,58,19,-53,34,-19,14,-14,190,97,-97
-43,9,53,17,-48,31,-19,14,-19,185,97,-97
-63,4,68,29,-65,36,-14,14,-19,185,87,-97
-68,4,73,31,-70,39,-14,14,-14,185,92,-87
-68,4,73,31,-70,39,-14,14,-14,185,92,-87
-53,4,58,24,-56,31,-14,14,-14,185,92,-87
-53,-4,48,29,-51,21,-14,14,-24,185,92,-78
-48,-4,43,26,-46,19,-19,4,-24,185,92,-82
-48,-4,43,26,-46,19,-19,4,-29,185,87,-82
-48,-14,34,31,-41,9,-19,4,-29,185,87,-82
-43,-4,39,24,-41,17,-19,4,-19,180,97,-82
-43,0,43,21,-43,21,-19,4,-19,175,92,-82
-48,0,48,24,-48,24,-14,4,-19,175,92,-87
-48,0,48,24,-48,24,-14,4,-19,175,92,-87
-43,9,53,17,-48,31,-24,-4,-29,180,87,-82
-43,9,53,17,-48,31,-19,-4,-29,180,87,-78
-58,9,68,24,-63,39,-19,-4,-29,180,87,-78
-58,9,68,24,-63,39,-19,-4,-29,180,82,-82
-34,19,53,7,-43,36,-29,0,-34,175,92,-92
-34,19,53,7,-43,36,-29,0,-34,175,92,-82
-34,14,48,9,-41,31,-24,0,-34,175,87,-78
-48,14,63,17,-56,39,-24,-9,-34,175,87,-78
-53,4,58,24,-56,31,-24,-9,-48,175,87,-82
-48,9,58,19,-53,34,-24,-9,-48,170,82,-87
-53,9,63,21,-58,36,-24,-9,-48,165,78,-87
-63,9,73,26,-68,41,-29,-9,-48,165,73,-82
-53,0,53,26,-53,26,-29,-19,-48,156,78,-82
-39,0,39,19,-39,19,-29,-24,-48,156,78,-82
-48,0,48,24,-48,24,-29,-24,-48,156,68,-87
-53,-9,43,31,-48,17,-29,-24,-53,151,68,-92
-63,0,63,31,-63,31,-39,-24,-53,161,63,-92
-63,9,73,26,-68,41,-34,-19,-48,161,68,-87
-63,9,73,26,-68,41,-34,-19,-48,161,68,-82
-63,4,68,29,-65,36,-34,-24,-48,161,68,-82
-68,-4,63,36,-65,29,-34,-24,-48,151,73,-87
-68,-4,63,36,-65,29,-34,-24,-58,151,73,-87
-78,-14,63,46,-70,24,-39,-29,-58,146,73,-87
-68,-14,53,41,-61,19,-39,-29,-58,146,68,-87
-58,-9,48,34,-53,19,-34,-29,-58,156,78,-97
-63,-9,53,36,-58,21,-34,-29,-63,161,78,-97
-63,-9,53,36,-58,21,-34,-29,-68,161,78,-92
-63,-9,53,36,-58,21,-34,-29,-73,156,78,-92
-58,0,58,29,-58,29,-24,-29,-58,146,68,-102
-58,0,58,29,-58,29,-24,-29,-58,146,68,-102
-58,-4,53,31,-56,24,-29,-29,-63,141,68,-112
-58,-14,43,36,-51,14,-29,-29,-63,141,63,-117
-58,-9,48,34,-53,19,-29,-19,-73,151,68,-107
-58,-9,48,34,-53,19,-29,-29,-73,151,73,-107
-78,-9,68,43,-73,29,-29,-29,-78,151,78,-102
-78,-9,68,43,-73,29,-29,-24,-78,151,82,-92
-78,-4,73,41,-75,34,-39,-34,-73,141,73,-97
-73,0,73,36,-73,36,-39,-34,-73,136,68,-102
-63,4,68,29,-65,36,-39,-34,-73,136,68,-107
-48,9,58,19,-53,34,-39,-34,-73,136,73,-112
-58,0,58,29,-58,29,-39,-34,-73,141,63,-112
-58,0,58,29,-58,29,-39,-39,-73,141,58,-112
-58,0,58,29,-58,29,-39,-39,-78,136,58,-112
-58,0,58,29,-58,29,-39,-34,-78,136,58,-112
-78,-9,68,43,-73,29,-34,-24,-73,146,73,-107
-87,-14,73,51,-80,29,-29,-24,-73,146,73,-107
-73,-14,58,43,-65,21,-29,-24,-73,146,73,-102
-73,-14,58,43,-65,21,-34,-24,-73,146,78,-97
-68,0,68,34,-68,34,-34,-34,-78,136,78,-107
-73,0,73,36,-73,36,-34,-34,-78,136,73,-107
-78,-4,73,41,-75,34,-34,-39,-78,136,73,-107
-78,-4,73,41,-75,34,-34,-43,-78,136,73,-112
-63,-14,48,39,-56,17,-39,-39,-87,136,68,-117
-48,-14,34,31,-41,9,-39,-39,-87,136,63,-122
-48,-14,34,31,-41,9,-39,-39,-87,136,63,-122
-58,-14,43,36,-51,14,-39,-39,-87,131,68,-122
-63,-14,48,39,-56,17,-39,-39,-87,131,63,-107
-63,-14,48,39,-56,17,-29,-39,-87,136,63,-107
-68,-19,48,43,-58,14,-29,-39,-87,136,63,-107
-73,-24,48,48,-61,12,-34,-34,-87,131,63,-107
-68,-14,53,41,-61,19,-39,-39,-97,131,58,-117
-58,-4,53,31,-56,24,-43,-43,-97,131,58,-117
-53,-4,48,29,-51,21,-48,-53,-97,131,58,-117
-58,-14,43,36,-51,14,-58,-58,-97,126,58,-117
-68,-24,43,46,-56,9,-53,-53,-97,136,58,-112
-63,-14,48,39,-56,17,-48,-48,-97,136,58,-112
-63,-9,53,36,-58,21,-43,-43,-97,136,58,-112
-73,-4,68,39,-70,31,-39,-39,-97,136,58,-112
-73,-14,58,43,-65,21,-39,-39,-87,131,68,-131
-68,-14,53,41,-61,19,-39,-39,-87,131,58,-136
-68,-19,48,43,-58,14,-39,-39,-87,131,58,-141
-68,-29,39,48,-53,4,-39,-39,-87,131,58,-141
-78,-19,58,48,-68,19,-48,-39,-97,131,63,-151
-73,-19,53,46,-63,17,-48,-43,-97,122,63,-161
-73,-19,53,46,-63,17,-43,-43,-97,122,63,-161
-73,-14,58,43,-65,21,-39,-43,-97,126,58,-156
-58,-24,34,41,-46,4,-48,-34,-87,136,68,-156
-48,-19,29,34,-39,4,-48,-43,-97,126,58,-165
-58,-9,48,34,-53,19,-48,-39,-97,117,48,-165
-68,-9,58,39,-63,24,-39,-39,-87,131,58,-165
-68,-9,58,39,-63,24,-39,-39,-87,136,58,-165
-68,-9,58,39,-63,24,-39,-39,-87,141,58,-165
-68,-9,58,39,-63,24,-39,-39,-87,146,58,-165
-58,0,58,29,-58,29,-39,-29,-82,146,68,-156
-53,9,63,21,-58,36,-34,-24,-73,156,78,-151
-43,39,82,2,-63,61,-24,-19,-68,161,78,-141
-39,48,87,-4,-63,68,-24,-19,-63,165,82,-126
-29,48,78,-9,-53,63,-24,-19,-58,161,73,-131
-34,58,92,-12,-63,75,-9,-19,-53,165,82,-131
-34,73,107,-19,-70,90,-4,-9,-43,180,92,-126
-34,82,117,-24,-75,100,4,-4,-39,185,97,-126
-43,82,126,-19,-85,104,0,-14,-43,185,92,-136
-43,82,126,-19,-85,104,4,-14,-39,185,92,-136
-43,82,126,-19,-85,104,4,-14,-39,185,92,-136
-43,87,131,-21,-87,109,4,-14,-39,185,92,-136
-34,87,122,-26,-78,104,-9,-14,-39,175,87,-146
-34,87,122,-26,-78,104,-14,-19,-39,175,87,-146
-24,92,117,-34,-70,104,-14,-19,-39,175,87,-136
-24,92,117,-34,-70,104,-14,-19,-39,180,87,-136
-29,82,112,-26,-70,97,-9,-9,-39,180,92,-146
-39,73,112,-17,-75,92,-24,-9,-39,180,92,-146
-43,63,107,-9,-75,85,-39,-9,-39,180,92,-146
-43,53,97,-4,-70,75,-53,-9,-39,180,92,-141
-39,58,97,-9,-68,78,-68,-9,-48,185,102,-126
-19,73,92,-26,-56,82,-82,-4,-39,200,107,-117
-4,87,92,-41,-48,90,-92,-9,-34,204,117,-117
4,97,92,-51,-43,95,-107,-14,-34,204,117,-117
24,107,82,-65,-29,95,-122,-19,-43,185,102,-122
34,107,73,-70,-19,90,-126,-24,-58,180,102,-122
24,107,82,-65,-29,95,-136,-34,-68,175,92,-126
14,102,87,-58,-36,95,-136,-39,-73,170,87,-126
9,97,87,-53,-39,92,-141,-63,-82,165,87,-131
4,92,87,-48,-41,90,-146,-78,-102,156,82,-136
4,92,87,-48,-41,90,-151,-92,-117,146,82,-136
14,97,82,-56,-34,90,-161,-92,-117,146,82,-131
48,92,43,-70,2,68,-161,-82,-112,146,82,-141
48,92,43,-70,2,68,-161,-73,-112,146,82,-136
48,78,29,-63,9,53,-156,-63,-112,146,87,-136
48,78,29,-63,9,53,-151,-63,-112,146,87,-131
34,68,34,-51,0,51,-146,-53,-102,151,97,-122
24,68,43,-46,-9,56,-136,-48,-97,151,97,-122
19,63,43,-41,-12,53,-131,-48,-97,151,97,-122
14,63,48,-39,-17,56,-126,-43,-97,146,92,-131
9,48,39,-29,-14,43,-126,-48,-107,131,82,-151
-4,39,43,-17,-24,41,-126,-58,-117,131,73,-161
-9,39,48,-14,-29,43,-122,-63,-122,126,68,-165
-19,29,48,-4,-34,39,-112,-68,-122,126,63,-175
-24,9,34,7,-29,21,-97,-68,-131,117,58,-180
-34,0,34,17,-34,17,-82,-68,-131,117,53,-185
-48,-19,29,34,-39,4,-82,-73,-141,107,39,-195
-68,-43,24,56,-46,-9,-78,-78,-156,92,29,-209
-68,-58,9,63,-39,-24,-78,-73,-151,87,29,-209
-68,-58,9,63,-39,-24,-78,-73,-151,82,19,-219
-68,-68,0,68,-34,-34,-73,-73,-151,87,19,-219
-68,-68,0,68,-34,-34,-73,-73,-151,92,19,-214
-63,-63,0,63,-31,-31,-82,-78,-161,87,14,-224
-58,-63,-4,61,-26,-34,-78,-82,-161,87,14,-224
-63,-73,-9,68,-26,-41,-78,-87,-161,82,14,-224
-58,-73,-14,65,-21,-43,-73,-87,-161,78,14,-229
-73,-63,9,68,-41,-26,-73,-78,-151,78,14,-229
-78,-68,9,73,-43,-29,-73,-78,-151,73,14,-229
-82,-68,14,75,-48,-26,-73,-78,-156,73,9,-229
-87,-68,19,78,-53,-24,-73,-78,-156,73,9,-229
-87,-73,14,80,-51,-29,-78,-78,-156,82,14,-229
-87,-73,14,80,-51,-29,-78,-78,-156,87,14,-229
-87,-78,9,82,-48,-34,-78,-78,-156,87,14,-229
-87,-78,9,82,-48,-34,-73,-78,-156,87,14,-229
-78,-68,9,73,-43,-29,-78,-73,-156,78,4,-229
-73,-68,4,70,-39,-31,-78,-73,-165,78,4,-229
-68,-68,0,68,-34,-34,-78,-78,-165,73,0,-234
-63,-68,-4,65,-29,-36,-78,-78,-165,73,0,-234
-53,-82,-29,68,-12,-56,-78,-87,-165,82,0,-234
-48,-82,-34,65,-7,-58,-78,-82,-165,82,0,-234
-48,-82,-34,65,-7,-58,-73,-82,-165,82,0,-234
-48,-82,-34,65,-7,-58,-73,-82,-165,87,4,-234
-73,-73,0,73,-36,-36,-63,-73,-161,87,14,-229
-82,-73,9,78,-46,-31,-63,-73,-161,87,14,-229
-87,-73,14,80,-51,-29,-58,-73,-165,82,14,-229
-87,-73,14,80,-51,-29,-58,-73,-165,82,9,-234
-97,-73,24,85,-61,-24,-48,-73,-151,92,9,-244
-97,-73,24,85,-61,-24,-53,-73,-151,92,14,-253
-92,-73,19,82,-56,-26,-53,-73,-151,92,14,-263
-92,-73,19,82,-56,-26,-53,-73,-151,92,14,-273
-73,-92,-19,82,-26,-56,-58,-73,-161,82,4,-326
-63,-78,-14,70,-24,-46,-48,-48,-151,87,14,-322
-78,-58,19,68,-48,-19,-24,-29,-136,97,14,-322
-102,-58,43,80,-73,-7,-9,-19,-107,102,9,-317
-122,-48,73,85,-97,12,9,0,-68,126,19,-307
-122,-34,87,78,-104,26,39,48,-4,170,39,-297
-112,0,112,56,-112,56,53,126,87,258,97,-258
-82,68,151,7,-117,109,43,224,219,370,190,-195
-39,136,175,-48,-107,156,34,361,370,497,307,-122
43,161,117,-102,-36,139,19,517,522,624,429,-48
195,195,0,-195,97,97,-48,624,624,746,561,24
326,278,-48,-302,187,114,-141,634,649,873,722,131
385,370,-14,-378,200,178,-219,610,610,995,888,283
478,458,-19,-468,248,219,-361,551,517,1054,1024,424
610,527,-82,-568,346,222,-551,439,400,1102,1146,551
727,619,-107,-673,417,256,-741,356,336,1210,1322,688
824,751,-73,-788,448,339,-897,307,312,1356,1532,854
922,912,-9,-917,466,451,-1024,224,258,1498,1732,1034
990,1015,24,-1002,483,519,-1141,82,151,1561,1873,1166
1029,1068,39,-1049,495,553,-1234,-122,0,1556,1947,1268
1010,1102,92,-1056,458,597,-1307,-336,-156,1503,1927,1288
976,1093,117,-1034,429,605,-1337,-512,-292,1390,1849,1254
927,1039,112,-983,407,575,-1327,-624,-405,1259,1698,1166
858,873,14,-866,422,444,-1263,-639,-488,1058,1459,1010
761,649,-112,-705,436,268,-1171,-590,-556,844,1190,790
658,497,-161,-578,409,168,-1098,-551,-600,663,956,624
527,414,-112,-470,319,151,-1024,-536,-629,507,751,478
409,307,-102,-358,256,102,-922,-527,-668,326,512,297
331,214,-117,-273,224,48,-829,-531,-707,141,283,107
258,156,-102,-207,180,26,-736,-531,-732,9,117,-19
180,87,-92,-134,136,-2,-649,-512,-722,-73,14,-102
131,0,-131,-65,131,-65,-561,-453,-683,-122,-39,-180
107,-19,-126,-43,117,-73,-463,-361,-614,-112,-53,-204
58,-29,-87,-14,73,-58,-366,-248,-512,-58,-29,-204
29,-63,-92,17,61,-78,-278,-146,-424,0,4,-204
39,-68,-107,14,73,-87,-214,-73,-361,43,14,-214
48,-53,-102,2,75,-78,-175,-14,-292,87,43,-219
19,-43,-63,12,41,-53,-122,24,-214,122,58,-219
0,-53,-53,26,26,-53,-97,48,-175,126,58,-229
19,-58,-78,19,48,-68,-97,39,-170,117,48,-244
9,-58,-68,24,39,-63,-97,14,-180,107,39,-248
-9,-58,-48,34,19,-53,-73,4,-175,112,39,-258
-29,-58,-29,43,0,-43,-53,9,-170,122,43,-248
-58,-68,-9,63,-24,-39,-43,19,-170,122,29,-258
-58,-58,0,58,-29,-29,-39,14,-161,117,24,-248
-63,-68,-4,65,-29,-36,-43,14,-146,117,24,-248
-63,-68,-4,65,-29,-36,-43,14,-131,122,24,-248
-58,-68,-9,63,-24,-39,-39,19,-122,122,34,-248
-58,-58,0,58,-29,-29,-29,9,-117,122,34,-258
-63,-58,4,61,-34,-26,-24,9,-117,126,39,-258
-73,-58,14,65,-43,-21,-14,9,-117,126,39,-263
-73,-58,14,65,-43,-21,-14,9,-117,122,29,-263
-58,-73,-14,65,-21,-43,-24,0,-122,112,9,-283
-53,-73,-19,63,-17,-46,-24,0,-117,112,4,-287
-48,-73,-24,61,-12,-48,-19,14,-107,117,0,-292
-43,-73,-29,58,-7,-51,-19,19,-112,117,0,-292
-43,-63,-19,53,-12,-41,-29,29,-97,126,9,-283
-34,-63,-29,48,-2,-46,-29,29,-97,131,9,-287
-43,-63,-19,53,-12,-41,-24,34,-92,136,14,-287
-43,-58,-14,51,-14,-36,-24,34,-92,136,14,-287
-53,-68,-14,61,-19,-41,-14,34,-87,136,24,-283
-58,-63,-4,61,-26,-34,-4,43,-87,136,24,-283
-63,-63,0,63,-31,-31,-14,43,-82,141,24,-278
-68,-68,0,68,-34,-34,-14,48,-73,141,24,-278
-78,-68,9,73,-43,-29,-4,48,-58,151,34,-273
-78,-68,9,73,-43,-29,0,53,-58,156,39,-273
-78,-68,9,73,-43,-29,0,53,-58,156,39,-273
-58,-68,-9,63,-24,-39,0,58,-58,156,39,-268
-48,-63,-14,56,-17,-39,0,63,-63,146,39,-273
-58,-63,-4,61,-26,-34,0,63,-58,151,43,-278
-58,-63,-4,61,-26,-34,0,68,-53,151,43,-278
-53,-63,-9,58,-21,-36,0,73,-48,156,48,-283
-53,-63,-9,58,-21,-36,0,78,-43,161,48,-273
-53,-58,-4,56,-24,-31,4,82,-34,165,53,-273
-48,-58,-9,53,-19,-34,9,82,-29,165,58,-273
-48,-58,-9,53,-19,-34,9,92,-29,165,58,-273
-39,-68,-29,53,-4,-48,0,87,-39,170,48,-278
-39,-63,-24,51,-7,-43,0,87,-39,170,48,-278
-39,-63,-24,51,-7,-43,-4,92,-34,170,48,-278
-39,-63,-24,51,-7,-43,-9,97,-29,175,53,-278
-43,-53,-9,48,-17,-31,0,107,-9,180,63,-268
-34,-48,-14,41,-9,-31,0,107,-4,180,63,-258
-29,-48,-19,39,-4,-34,0,117,-4,190,68,-258
-29,-48,-19,39,-4,-34,4,117,-4,190,68,-258
-19,-48,-29,34,4,-39,-4,112,-4,190,73,-258
-19,-48,-29,34,4,-39,-4,117,-4,195,73,-258
-19,-48,-29,34,4,-39,-14,122,-4,195,73,-258
-19,-43,-24,31,2,-34,-14,126,4,195,73,-258
-29,-48,-19,39,-4,-34,-4,131,19,200,82,-253
-29,-48,-19,39,-4,-34,-4,141,24,204,87,-244
-29,-43,-14,36,-7,-29,-4,156,39,209,97,-244
-34,-43,-9,39,-12,-26,-4,161,39,214,97,-244
-24,-34,-9,29,-7,-21,4,175,39,229,107,-234
-14,-29,-14,21,0,-21,4,175,43,234,107,-234
-14,-29,-14,21,0,-21,4,185,48,234,107,-234
-24,-29,-4,26,-9,-17,0,185,53,239,107,-239
0,-29,-29,14,14,-29,-9,185,63,239,112,-248
14,-24,-39,4,26,-31,-9,190,73,248,112,-244
14,-24,-39,4,26,-31,-9,190,78,253,117,-244
14,-24,-39,4,26,-31,-9,190,82,253,117,-244
19,-19,-39,0,29,-29,-9,209,92,273,122,-229
14,-9,-24,-2,19,-17,-9,214,97,273,131,-224
4,-9,-14,2,9,-12,-9,224,112,278,136,-219
-9,-4,4,7,-7,0,-9,234,122,287,141,-214
0,4,4,-2,-2,4,-9,229,122,297,156,-200
0,4,4,-2,-2,4,-9,244,131,302,161,-200
4,14,9,-9,-2,12,-9,253,146,317,170,-190
19,19,0,-19,9,9,-9,263,156,317,175,-185
29,19,-9,-24,19,4,-19,273,161,322,175,-190
29,19,-9,-24,19,4,-19,283,175,326,185,-190
29,29,0,-29,14,14,-24,287,185,336,190,-190
39,29,-9,-34,24,9,-24,292,185,341,195,-185
53,39,-14,-46,34,12,-14,292,190,356,204,-175
53,43,-9,-48,31,17,-14,307,200,361,209,-170
53,43,-9,-48,31,17,-19,312,209,366,214,-170
63,53,-9,-58,36,21,-19,322,219,370,219,-161
58,53,-4,-56,31,24,-29,331,239,395,234,-151
63,58,-4,-61,34,26,-29,346,248,400,244,-141
63,63,0,-63,31,31,-29,356,258,409,248,-136
73,68,-4,-70,39,31,-39,361,263,409,253,-131
78,82,4,-80,36,43,-39,356,258,409,248,-122
78,92,14,-85,31,53,-34,366,273,419,253,-117
78,97,19,-87,29,58,-34,375,283,434,263,-112
73,102,29,-87,21,65,-39,375,287,439,268,-107
73,117,43,-95,14,80,-39,390,292,453,283,-102
82,122,39,-102,21,80,-43,395,302,453,292,-102
102,126,24,-114,39,75,-48,400,307,458,297,-102
107,136,29,-122,39,82,-48,405,312,463,302,-92
97,131,34,-114,31,82,-48,405,317,468,302,-73
97,136,39,-117,29,87,-53,405,322,473,302,-73
107,141,34,-124,36,87,-58,409,322,478,312,-68
107,146,39,-126,34,92,-63,409,326,483,322,-68
107,136,29,-122,39,82,-73,409,322,473,322,-78
102,136,34,-119,34,85,-68,409,322,473,326,-73
102,141,39,-122,31,90,-68,414,322,488,326,-63
102,146,43,-124,29,95,-78,414,317,488,331,-63
117,151,34,-134,41,92,-82,409,307,483,317,-68
126,165,39,-146,43,102,-87,400,302,478,312,-68
136,175,39,-156,48,107,-92,390,297,468,297,-68
141,180,39,-161,51,109,-102,385,287,458,292,-68
126,175,48,-151,39,112,-102,390,287,468,302,-68
117,170,53,-143,31,112,-97,385,283,468,307,-68
112,165,53,-139,29,109,-97,380,283,463,312,-68
112,161,48,-136,31,104,-92,375,273,453,312,-63
107,161,53,-134,26,107,-82,375,278,453,312,-53
102,161,58,-131,21,109,-92,366,273,453,312,-48
97,161,63,-129,17,112,-97,356,258,448,307,-43
92,156,63,-124,14,109,-97,346,248,434,302,-39
102,156,53,-129,24,104,-102,336,229,414,287,-58
107,156,48,-131,29,102,-102,322,219,409,287,-63
107,156,48,-131,29,102,-102,307,209,405,278,-68
78,151,73,-114,2,112,-102,297,204,395,268,-68
68,151,82,-109,-7,117,-92,287,180,390,258,-78
73,146,73,-109,0,109,-102,278,170,380,244,-78
73,141,68,-107,2,104,-102,268,156,366,239,-82
68,136,68,-102,0,102,-102,248,141,361,229,-87
58,126,68,-92,-4,97,-102,234,117,341,214,-82
58,126,68,-92,-4,97,-97,219,102,331,200,-87
48,112,63,-80,-7,87,-97,204,87,317,195,-102
34,107,73,-70,-19,90,-97,180,63,307,185,-107
19,117,97,-68,-39,107,-97,175,53,297,175,-112
19,112,92,-65,-36,102,-92,165,43,287,165,-117
24,97,73,-61,-24,85,-92,146,34,278,156,-122
24,97,73,-61,-24,85,-92,131,19,263,151,-122
34,82,48,-58,-7,65,-92,112,-4,258,146,-122
24,68,43,-46,-9,56,-92,102,-19,248,131,-131
14,63,48,-39,-17,56,-92,87,-24,239,122,-136
14,53,39,-34,-12,46,-87,78,-43,234,117,-146
-4,53,58,-24,-31,56,-78,68,-58,219,117,-151
-14,48,63,-17,-39,56,-78,58,-68,204,107,-161
-19,43,63,-12,-41,53,-78,53,-68,200,102,-161
-29,39,68,-4,-48,53,-78,48,-68,200,97,-165
-48,29,78,9,-63,53,-68,39,-82,200,92,-165
-43,29,73,7,-58,51,-63,29,-87,195,87,-165
-39,29,68,4,-53,48,-63,19,-102,180,82,-170
-34,34,68,0,-51,51,-63,9,-122,170,73,-175
-34,29,63,2,-48,46,-63,14,-126,170,68,-185
-39,24,63,7,-51,43,-58,4,-131,170,68,-185
-39,19,58,9,-48,39,-58,4,-131,161,68,-190
-39,9,48,14,-43,29,-58,0,-136,156,63,-195
-48,0,48,24,-48,24,-68,-4,-151,141,58,-190
-63,0,63,31,-63,31,-68,-9,-156,136,53,-190
-68,0,68,34,-68,34,-68,-14,-156,131,48,-190
-73,-4,68,39,-70,31,-63,-14,-161,131,48,-190
-63,4,68,29,-65,36,-73,-24,-165,131,48,-200
-58,0,58,29,-58,29,-73,-29,-175,126,43,-200
-63,-4,58,34,-61,26,-78,-34,-175,122,43,-200
-58,-9,48,34,-53,19,-78,-34,-175,122,43,-204
-68,-19,48,43,-58,14,-73,-24,-170,122,39,-209
-73,-19,53,46,-63,17,-68,-29,-170,122,39,-204
-78,-24,53,51,-65,14,-63,-34,-170,122,39,-200
-92,-24,68,58,-80,21,-58,-34,-170,122,34,-195
-87,-14,73,51,-80,29,-68,-29,-185,122,24,-204
-78,-9,68,43,-73,29,-68,-29,-190,122,24,-204
-68,-9,58,39,-63,24,-68,-39,-190,112,24,-204
-63,-9,53,36,-58,21,-68,-39,-190,112,24,-204
-78,-9,68,43,-73,29,-68,-29,-180,122,29,-214
-73,-9,63,41,-68,26,-68,-29,-180,117,29,-214
-63,-4,58,34,-61,26,-73,-29,-185,117,34,-209
-48,-4,43,26,-46,19,-73,-29,-185,117,34,-209
-58,-14,43,36,-51,14,-63,-39,-195,117,34,-209
-68,-14,53,41,-61,19,-63,-39,-195,117,34,-209
-78,-14,63,46,-70,24,-58,-39,-195,117,29,-214
-87,-14,73,51,-80,29,-58,-39,-190,117,29,-214
-82,-14,68,48,-75,26,-68,-29,-180,117,29,-214
-82,-4,78,43,-80,36,-63,-24,-180,122,34,-209
-82,-4,78,43,-80,36,-63,-24,-180,122,34,-209
-87,-9,78,48,-82,34,-63,-24,-180,112,34,-209
-73,0,73,36,-73,36,-68,-29,-190,122,34,-219
-68,4,73,31,-70,39,-68,-29,-185,126,34,-219
-63,4,68,29,-65,36,-63,-29,-185,126,39,-219
-58,4,63,26,-61,34,-63,-29,-185,126,39,-219
-63,9,73,26,-68,41,-53,-19,-180,136,39,-204
-63,9,73,26,-68,41,-48,-19,-170,136,43,-204
-63,9,73,26,-68,41,-48,-14,-165,136,43,-209
-58,4,63,26,-61,34,-48,-14,-161,136,39,-209
-53,14,68,19,-61,41,-48,-19,-161,136,48,-195
-53,19,73,17,-63,46,-53,-14,-161,136,53,-195
-58,19,78,19,-68,48,-53,-4,-161,136,63,-195
-68,19,87,24,-78,53,-53,4,-156,141,68,-190
-63,9,73,26,-68,41,-63,-9,-165,131,63,-195
-43,14,58,14,-51,36,-63,-9,-165,131,53,-200
-34,14,48,9,-41,31,-68,-14,-165,131,43,-204
-29,14,43,7,-36,29,-68,-19,-165,136,34,-209
-39,14,53,12,-46,34,-53,-19,-170,131,43,-219
-29,14,43,7,-36,29,-53,-19,-170,131,39,-214
-29,19,48,4,-39,34,-58,-19,-170,131,39,-214
-34,19,53,7,-43,36,-58,-19,-170,126,39,-214
-48,9,58,19,-53,34,-53,-9,-161,126,48,-204
-39,9,48,14,-43,29,-53,-9,-161,131,48,-204
-53,9,63,21,-58,36,-53,-9,-161,136,48,-204
-58,9,68,24,-63,39,-48,-4,-151,146,58,-204
-73,4,78,34,-75,41,-58,-4,-161,136,48,-204
-87,4,92,41,-90,48,-58,-4,-161,141,48,-209
-73,4,78,34,-75,41,-63,-4,-161,141,43,-209
-68,4,73,31,-70,39,-63,-4,-161,141,43,-209
-78,14,92,31,-85,53,-53,-9,-161,151,43,-190
-78,14,92,31,-85,53,-48,-9,-161,151,53,-190
-78,14,92,31,-85,53,-48,-9,-161,151,53,-195
-97,14,112,41,-104,63,-48,-9,-161,146,53,-204
-87,4,92,41,-90,48,-58,-9,-165,136,48,-214
-78,4,82,36,-80,43,-58,-9,-165,136,43,-214
-73,4,78,34,-75,41,-58,-9,-165,136,43,-214
-63,9,73,26,-68,41,-58,-9,-170,136,43,-214
-63,9,73,26,-68,41,-58,-19,-170,136,48,-214
-73,9,82,31,-78,46,-58,-19,-170,141,48,-214
-73,9,82,31,-78,46,-58,-14,-170,141,48,-214
-63,9,73,26,-68,41,-58,-14,-175,136,48,-214
-92,4,97,43,-95,51,-53,-14,-185,136,39,-214
-97,4,102,46,-100,53,-53,-14,-180,136,43,-204
-97,4,102,46,-100,53,-53,-14,-180,136,43,-204
-82,4,87,39,-85,46,-53,-14,-180,136,43,-204
-82,4,87,39,-85,46,-53,-14,-200,136,43,-204
-78,4,82,36,-80,43,-58,-24,-200,136,43,-209
-78,4,82,36,-80,43,-58,-24,-204,136,39,-209
-78,-4,73,41,-75,34,-58,-24,-204,136,39,-209
-82,-4,78,43,-80,36,-58,-34,-214,131,39,-219
-82,0,82,41,-82,41,-58,-34,-214,126,34,-219
-87,0,87,43,-87,43,-53,-34,-214,126,34,-224
-87,0,87,43,-87,43,-53,-34,-214,126,34,-224
-73,0,73,36,-73,36,-43,-43,-214,126,39,-219
-73,0,73,36,-73,36,-39,-43,-214,122,39,-214
-87,0,87,43,-87,43,-39,-43,-214,117,39,-214
-87,0,87,43,-87,43,-39,-43,-214,112,34,-219
-53,9,63,21,-58,36,-58,-39,-219,112,24,-219
-53,9,63,21,-58,36,-58,-39,-219,117,24,-209
-53,4,58,24,-56,31,-53,-39,-219,122,19,-204
-68,4,73,31,-70,39,-53,-48,-219,126,19,-204
-73,14,87,29,-80,51,-43,-39,-209,126,29,-200
-68,19,87,24,-78,53,-43,-39,-204,122,34,-204
-73,19,92,26,-82,56,-43,-39,-200,117,39,-204
-82,19,102,31,-92,61,-48,-39,-195,117,43,-200
-73,9,82,31,-78,46,-48,-39,-185,107,39,-209
-58,9,68,24,-63,39,-48,-43,-185,107,39,-209
-68,9,78,29,-73,43,-48,-43,-185,107,29,-214
-73,0,73,36,-73,36,-48,-43,-190,102,29,-219
-73,0,73,36,-73,36,-48,-53,-185,112,24,-209
-73,9,82,31,-78,46,-43,-48,-175,112,29,-204
-73,9,82,31,-78,46,-43,-48,-170,112,29,-200
-73,4,78,34,-75,41,-43,-53,-165,112,29,-200
-68,14,82,26,-75,48,-43,-53,-151,102,24,-209
-68,14,82,26,-75,48,-43,-53,-156,102,24,-214
-78,4,82,36,-80,43,-48,-58,-151,97,24,-219
-68,4,73,31,-70,39,-48,-58,-146,97,19,-224
-68,0,68,34,-68,34,-53,-48,-136,107,29,-214
-73,0,73,36,-73,36,-53,-48,-131,112,29,-214
-73,0,73,36,-73,36,-53,-48,-126,112,29,-209
-73,0,73,36,-73,36,-53,-48,-122,107,29,-209
-68,9,78,29,-73,43,-43,-58,-107,107,29,-209
-68,9,78,29,-73,43,-43,-58,-107,107,29,-209
-68,4,73,31,-70,39,-48,-58,-112,102,29,-219
-68,-4,63,36,-65,29,-48,-58,-112,102,24,-224
-58,0,58,29,-58,29,-48,-48,-107,102,24,-224
-58,0,58,29,-58,29,-48,-58,-102,102,24,-224
-78,0,78,39,-78,39,-48,-58,-102,102,24,-219
-78,0,78,39,-78,39,-48,-53,-97,102,24,-209
-73,0,73,36,-73,36,-48,-53,-82,112,34,-209
-73,0,73,36,-73,36,-48,-53,-82,107,29,-209
-68,0,68,34,-68,34,-48,-53,-82,107,29,-209
-58,0,58,29,-58,29,-48,-53,-82,107,34,-209
-68,0,68,34,-68,34,-48,-63,-73,107,29,-219
-68,0,68,34,-68,34,-48,-68,-73,102,19,-219
-68,0,68,34,-68,34,-48,-68,-78,92,14,-219
-68,0,68,34,-68,34,-48,-63,-78,87,9,-219
-78,0,78,39,-78,39,-53,-63,-63,87,14,-219
-87,-4,82,46,-85,39,-48,-63,-63,87,14,-224
-73,-4,68,39,-70,31,-48,-63,-63,87,14,-224
-73,-4,68,39,-70,31,-53,-63,-63,87,19,-224
-78,0,78,39,-78,39,-43,-53,-63,87,29,-234
-82,0,82,41,-82,41,-43,-53,-58,87,24,-234
-87,-4,82,46,-85,39,-43,-58,-53,87,24,-234
-87,-4,82,46,-85,39,-43,-63,-48,87,24,-239
-73,-4,68,39,-70,31,-48,-58,-48,87,19,-248
-58,-4,53,31,-56,24,-48,-58,-48,87,14,-258
-58,-4,53,31,-56,24,-48,-58,-48,87,14,-263
-68,-4,63,36,-65,29,-48,-58,-48,82,19,-268
-73,-4,68,39,-70,31,-48,-58,-39,82,14,-273
-73,-4,68,39,-70,31,-39,-58,-39,87,14,-273
-78,-9,68,43,-73,29,-39,-58,-39,87,14,-273
-82,-14,68,48,-75,26,-43,-53,-39,82,14,-273
-73,-14,58,43,-65,21,-43,-63,-39,73,9,-278
-68,-4,63,36,-65,29,-43,-63,-39,73,9,-283
-68,-4,63,36,-65,29,-43,-68,-39,73,9,-287
-78,-14,63,46,-70,24,-48,-68,-39,68,9,-292
-68,-14,53,41,-61,19,-48,-68,-29,68,9,-297
-63,-4,58,34,-61,26,-48,-68,-29,68,9,-297
-63,0,63,31,-63,31,-48,-68,-29,68,9,-297
-73,4,78,34,-75,41,-48,-68,-29,68,9,-297
-73,4,78,34,-75,41,-48,-68,-19,73,9,-292
-68,4,73,31,-70,39,-48,-68,-19,73,0,-292
-68,0,68,34,-68,34,-48,-68,-19,73,0,-292
-68,-9,58,39,-63,24,-48,-68,-19,73,0,-287
-68,-9,58,39,-63,24,-48,-68,-19,73,4,-287
-63,-9,53,36,-58,21,-48,-73,-19,63,4,-297
-63,-9,53,36,-58,21,-43,-73,-19,63,4,-297
-63,-4,58,34,-61,26,-39,-73,-19,68,0,-292
-68,-4,63,36,-65,29,-39,-63,-19,68,9,-283
-68,0,68,34,-68,34,-48,-63,-19,68,9,-283
-68,0,68,34,-68,34,-48,-63,-19,68,9,-283
-58,0,58,29,-58,29,-48,-63,-24,68,9,-283
-48,-9,39,29,-43,14,-48,-73,-24,58,9,-278
-48,9,58,19,-53,34,-48,-68,-19,68,9,-273
-53,0,53,26,-53,26,-43,-58,-14,78,9,-263
-58,0,58,29,-58,29,-39,-58,-9,78,9,-263
-63,0,63,31,-63,31,-34,-58,-4,78,9,-263
-68,0,68,34,-68,34,-29,-58,0,78,9,-263
-68,0,68,34,-68,34,-29,-58,4,68,19,-268
-63,9,73,26,-68,41,-24,-53,14,78,29,-268
-53,39,92,7,-73,65,-14,-48,19,82,29,-263
-48,48,97,0,-73,73,-14,-48,24,87,34,-253
-48,58,107,-4,-78,82,-14,-48,39,102,24,-244
-53,68,122,-7,-87,95,0,-48,43,107,34,-239
-53,82,136,-14,-95,109,4,-39,53,122,43,-229
-53,92,146,-19,-100,119,14,-34,58,126,48,-224
-63,102,165,-19,-114,134,9,-34,63,126,63,-214
-63,102,165,-19,-114,134,14,-34,68,126,63,-214
-63,102,165,-19,-114,134,14,-34,68,126,63,-214
-63,107,170,-21,-117,139,14,-34,68,126,63,-214
-63,107,170,-21,-117,139,19,-34,68,126,58,-214
-63,107,170,-21,-117,139,14,-39,68,126,58,-214
-53,112,165,-29,-109,139,14,-39,68,126,58,-204
-53,112,165,-29,-109,139,14,-39,68,131,58,-204
-43,107,151,-31,-97,129,9,-48,68,122,53,-214
-48,102,151,-26,-100,126,-4,-48,68,122,53,-214
-48,97,146,-24,-97,122,-19,-48,68,122,53,-214
-43,92,136,-24,-90,114,-34,-48,68,122,53,-209
-53,92,146,-19,-100,119,-48,-34,78,126,63,-204
-39,102,141,-31,-90,122,-63,-24,87,141,68,-195
-29,112,141,-41,-85,126,-73,-24,92,146,78,-195
-24,117,141,-46,-82,129,-87,-24,92,146,78,-195
4,126,122,-65,-58,124,-102,-39,82,136,73,-190
14,126,112,-70,-48,119,-107,-43,68,131,73,-190
4,126,122,-65,-58,124,-117,-53,58,126,63,-195
-4,122,126,-58,-65,124,-117,-58,53,122,58,-195
-24,107,131,-41,-78,119,-131,-73,43,107,39,-200
-34,102,136,-34,-85,119,-136,-87,24,97,34,-204
-39,102,141,-31,-90,122,-141,-102,9,87,34,-204
-34,107,141,-36,-87,124,-151,-102,9,87,34,-200
4,102,97,-53,-46,100,-151,-107,9,82,24,-209
9,102,92,-56,-41,97,-151,-102,4,78,24,-204
14,87,73,-51,-29,80,-146,-97,0,73,29,-204
19,87,68,-53,-24,78,-141,-102,-4,68,29,-200
9,92,82,-51,-36,87,-136,-92,0,82,29,-200
4,97,92,-51,-43,95,-126,-87,9,82,29,-200
4,97,92,-51,-43,95,-122,-87,14,82,29,-200
4,102,97,-53,-46,100,-117,-82,19,78,24,-209
-9,78,87,-34,-48,82,-117,-82,14,73,29,-204
-24,68,92,-21,-58,80,-117,-87,9,73,24,-209
-29,68,97,-19,-63,82,-112,-87,9,68,24,-209
-39,58,97,-9,-68,78,-102,-87,14,68,24,-214
-34,53,87,-9,-61,70,-97,-78,24,68,29,-209
-43,48,92,-2,-68,70,-82,-78,24,68,24,-214
-58,34,92,12,-75,63,-82,-82,14,58,9,-224
-78,14,92,31,-85,53,-78,-87,0,43,0,-239
-87,-9,78,48,-82,34,-68,-92,-4,43,0,-239
-87,-9,78,48,-82,34,-68,-92,-4,34,-9,-248
-87,-19,68,53,-78,24,-63,-92,-4,34,-9,-248
-87,-19,68,53,-78,24,-63,-92,-4,34,-9,-244
-87,-24,63,56,-75,19,-63,-102,-14,24,-14,-253
-87,-24,63,56,-75,19,-58,-102,-14,29,-14,-253
-97,-34,63,65,-80,14,-58,-102,-14,29,-14,-253
-97,-34,63,65,-80,14,-53,-97,-14,29,-14,-258
-92,-24,68,58,-80,21,-63,-107,-14,19,-14,-268
-87,-29,58,58,-73,14,-63,-107,-14,14,-14,-268
-82,-29,53,56,-68,12,-63,-107,-19,14,-19,-268
-78,-29,48,53,-63,9,-63,-107,-19,14,-19,-268
-82,-24,58,53,-70,17,-48,-97,0,24,-14,-258
-87,-24,63,56,-75,19,-48,-97,0,29,-14,-258
-92,-29,63,61,-78,17,-48,-97,0,29,-14,-258
-97,-29,68,63,-82,19,-43,-97,0,29,-14,-258
-102,-29,73,65,-87,21,-39,-92,9,29,-24,-258
-102,-29,73,65,-87,21,-39,-92,0,29,-24,-258
-102,-29,73,65,-87,21,-39,-97,0,24,-29,-263
-102,-29,73,65,-87,21,-39,-97,0,24,-29,-263
-102,-34,68,68,-85,17,-39,-97,-9,24,-29,-263
-97,-34,63,65,-80,14,-39,-92,-9,24,-29,-263
-97,-34,63,65,-80,14,-34,-92,-9,24,-29,-263
-97,-34,63,65,-80,14,-34,-92,-9,29,-24,-263
-117,-34,82,75,-100,24,-34,-82,0,39,-24,-258
-122,-34,87,78,-104,26,-34,-82,4,39,-24,-258
-122,-34,87,78,-104,26,-29,-82,4,34,-24,-258
-117,-34,82,75,-100,24,-29,-82,9,34,-29,-263
-112,-34,78,73,-95,21,-29,-92,9,29,-29,-263
-107,-34,73,70,-90,19,-34,-92,4,24,-24,-263
-97,-34,63,65,-80,14,-34,-92,0,19,-24,-263
-92,-34,58,63,-75,12,-34,-92,-4,14,-24,-263
-82,-34,48,58,-65,7,-29,-82,4,24,-34,-258
-112,-48,63,80,-87,7,-29,-78,14,19,-34,-263
-117,-48,68,82,-92,9,-4,-68,48,29,-24,-263
-102,-19,82,61,-92,31,19,-48,68,53,-19,-258
-112,-9,102,61,-107,46,39,-19,87,68,-19,-268
-151,4,156,73,-153,80,68,29,161,102,9,-248
-161,39,200,61,-180,119,92,117,263,180,68,-200
-102,107,209,-2,-156,158,73,214,385,292,161,-156
-9,185,195,-87,-102,190,53,341,536,429,287,-73
73,229,156,-151,-41,192,29,488,697,575,409,9
165,253,87,-209,39,170,-39,575,780,678,522,82
258,317,58,-287,100,187,-141,566,756,756,644,170
346,419,73,-383,136,246,-268,502,688,819,771,283
458,527,68,-492,195,297,-419,424,575,878,897,405
600,605,4,-602,297,305,-619,312,448,927,1019,522
727,688,-39,-707,383,324,-790,248,385,1015,1156,639
824,780,-43,-802,434,368,-917,219,361,1141,1327,785
902,902,0,-902,451,451,-1034,146,317,1263,1517,936
990,1024,34,-1007,478,529,-1151,34,248,1366,1668,1088
1049,1127,78,-1088,485,602,-1283,-131,146,1410,1771,1200
1039,1171,131,-1105,453,651,-1376,-346,29,1376,1810,1249
1015,1161,146,-1088,434,653,-1415,-512,-78,1302,1761,1234
995,1117,122,-1056,436,619,-1444,-614,-190,1200,1659,1185
966,961,-4,-963,485,478,-1429,-658,-292,1029,1459,1039
878,697,-180,-788,529,258,-1346,-629,-361,805,1180,839
736,507,-229,-622,483,139,-1254,-570,-395,614,946,653
605,405,-200,-505,402,102,-1151,-556,-405,468,741,507
497,317,-180,-407,339,68,-1039,-556,-424,317,541,346
380,214,-165,-297,273,24,-907,-541,-463,122,302,175
278,126,-151,-202,214,-12,-795,-541,-507,-58,107,19
180,58,-122,-119,151,-31,-668,-531,-507,-161,-14,-63
112,19,-92,-65,102,-36,-541,-473,-478,-209,-58,-112
78,-9,-87,-34,82,-48,-434,-390,-419,-200,-82,-146
58,-9,-68,-24,63,-39,-326,-297,-336,-156,-68,-165
39,-14,-53,-12,46,-34,-248,-195,-248,-97,-43,-175
29,-19,-48,-4,39,-34,-195,-122,-175,-53,-24,-185
9,-24,-34,7,21,-29,-136,-63,-107,-29,-14,-190
0,-24,-24,12,12,-24,-92,-24,-48,4,0,-190
0,-14,-14,7,7,-14,-68,0,0,29,19,-190
-9,-19,-9,14,0,-14,-48,0,14,39,19,-195
-29,-29,0,29,-14,-14,-48,-14,14,29,0,-209
-29,-29,0,29,-14,-14,-34,-24,0,24,-9,-219
-48,-29,19,39,-34,-4,-24,-29,-4,24,-4,-229
-68,-29,39,48,-53,4,-14,-29,4,24,-9,-219
-82,-39,43,61,-63,2,-14,-29,4,9,-24,-229
-92,-48,43,70,-68,-2,-14,-24,19,9,-24,-229
-97,-48,48,73,-73,0,-9,-19,34,14,-24,-229
-97,-48,48,73,-73,0,0,-9,43,14,-14,-229
-87,-48,39,68,-63,-4,9,-19,58,14,-24,-239
-92,-48,43,70,-68,-2,14,-19,58,19,-19,-239
-102,-48,53,75,-78,2,24,-19,58,19,-19,-244
-102,-48,53,75,-78,2,24,-19,58,14,-29,-244
-107,-53,53,80,-80,0,24,-19,48,14,-34,-248
-112,-53,58,82,-85,2,24,-19,58,14,-34,-248
-117,-53,63,85,-90,4,29,-4,73,19,-34,-248
-122,-53,68,87,-95,7,29,0,73,19,-29,-244
-97,-43,53,70,-75,4,29,0,78,9,-29,-244
-82,-43,39,63,-61,-2,29,0,78,14,-29,-248
-87,-43,43,65,-65,0,34,4,82,19,-24,-248
-82,-39,43,61,-63,2,34,4,82,19,-24,-248
-87,-39,48,63,-68,4,43,4,97,24,-14,-248
-87,-34,53,61,-70,9,53,14,97,29,-14,-244
-87,-34,53,61,-70,9,43,14,102,39,-14,-234
-87,-39,48,63,-68,4,43,19,112,43,-14,-229
-92,-48,43,70,-68,-2,43,19,107,43,-4,-234
-97,-48,48,73,-73,0,48,24,107,48,0,-234
-102,-48,53,75,-78,2,48,24,107,48,0,-234
-87,-48,39,68,-63,-4,48,29,107,48,0,-229
-82,-34,48,58,-65,7,39,24,112,48,-9,-229
-87,-34,53,61,-70,9,39,24,117,53,-4,-229
-82,-34,48,58,-65,7,39,29,122,53,-4,-224
-73,-34,39,53,-56,2,39,34,126,58,0,-224
-78,-24,53,51,-65,14,43,43,136,73,4,-214
-82,-19,63,51,-73,21,53,53,151,78,14,-214
-82,-19,63,51,-73,21,63,58,161,78,24,-214
-87,-19,68,53,-78,24,68,73,165,78,29,-214
-82,-19,63,51,-73,21,58,73,161,73,24,-219
-78,-14,63,46,-70,24,58,68,156,73,19,-219
-73,-14,58,43,-65,21,53,68,156,73,14,-219
-68,-14,53,41,-61,19,48,68,156,78,14,-219
-63,-14,48,39,-56,17,48,78,175,82,24,-209
-53,-9,43,31,-48,17,48,78,180,82,24,-200
-48,-9,39,29,-43,14,48,87,180,92,29,-200
-48,-9,39,29,-43,14,53,87,180,92,29,-200
-63,-14,48,39,-56,17,53,92,190,92,43,-200
-68,-19,48,43,-58,14,53,97,190,97,43,-200
-73,-24,48,48,-61,12,43,102,190,97,43,-200
-78,-24,53,51,-65,14,43,107,200,97,43,-200
-73,-9,63,41,-68,26,53,112,204,102,43,-204
-68,-9,58,39,-63,24,53,122,209,107,48,-195
-63,-4,58,34,-61,26,53,136,224,112,58,-195
-63,-4,58,34,-61,26,53,141,224,117,58,-195
-63,-14,48,39,-56,17,53,146,234,122,68,-190
-53,-9,43,31,-48,17,53,146,239,126,68,-185
-53,-9,43,31,-48,17,53,156,244,126,68,-180
-63,-9,53,36,-58,21,48,156,248,131,68,-180
-63,-9,53,36,-58,21,48,151,248,122,73,-170
-53,-4,48,29,-51,21,48,161,258,131,73,-165
-58,-4,53,31,-56,24,48,165,263,136,78,-165
-63,-4,58,34,-61,26,48,170,268,136,78,-165
-34,0,34,17,-34,17,48,180,268,146,73,-161
-34,9,43,12,-39,26,48,185,273,146,82,-156
-39,9,48,14,-43,29,48,195,287,151,87,-151
-48,14,63,17,-56,39,48,204,297,161,92,-146
-39,14,53,12,-46,34,48,219,307,161,97,-141
-39,14,53,12,-46,34,48,234,317,165,102,-141
-34,24,58,4,-46,41,48,244,331,180,112,-131
-19,29,48,-4,-34,39,48,253,341,180,117,-126
-19,34,53,-7,-36,43,48,253,346,195,126,-112
-19,39,58,-9,-39,48,48,263,361,200,136,-112
-19,53,73,-17,-46,63,43,268,370,209,141,-112
-9,58,68,-24,-39,63,43,273,370,214,146,-107
4,58,53,-31,-24,56,43,287,385,229,156,-92
4,63,58,-34,-26,61,43,307,395,234,161,-82
4,63,58,-34,-26,61,39,317,405,239,165,-78
14,73,58,-43,-21,65,39,331,414,244,170,-63
14,82,68,-48,-26,75,48,331,434,268,185,-48
14,87,73,-51,-29,80,48,346,444,273,195,-43
9,92,82,-51,-36,87,48,356,453,283,200,-43
14,97,82,-56,-34,90,39,361,458,283,204,-43
39,102,63,-70,-12,82,39,375,463,292,209,-34
39,112,73,-75,-17,92,43,385,478,302,214,-29
39,117,78,-78,-19,97,43,395,488,317,224,-24
34,122,87,-78,-26,104,39,395,492,322,229,-19
34,117,82,-75,-24,100,29,405,488,322,219,-14
43,122,78,-82,-17,100,24,405,497,317,224,-14
63,126,63,-95,0,95,19,405,502,317,224,-14
68,136,68,-102,0,102,19,405,507,317,224,-4
58,151,92,-104,-17,122,29,409,517,331,234,4
58,156,97,-107,-19,126,24,414,527,336,234,4
68,161,92,-114,-12,126,19,424,531,341,244,9
68,165,97,-117,-14,131,14,429,541,346,253,9
58,165,107,-112,-24,136,24,439,531,346,244,19
53,165,112,-109,-29,139,29,439,536,346,248,24
53,170,117,-112,-31,143,29,444,541,361,248,34
53,175,122,-114,-34,148,19,444,541,361,253,34
68,175,107,-122,-19,141,14,434,527,351,244,29
78,185,107,-131,-14,146,9,429,527,351,244,29
87,190,102,-139,-7,146,4,424,527,346,234,29
92,190,97,-141,-2,143,-4,424,522,341,234,29
87,190,102,-139,-7,146,0,429,522,346,244,39
78,190,112,-134,-17,151,0,424,517,351,248,39
73,190,117,-131,-21,153,-4,419,517,351,253,39
73,190,117,-131,-21,153,-4,414,507,346,253,43
78,200,122,-139,-21,161,-4,405,502,336,244,39
82,200,117,-141,-17,158,-14,395,497,336,244,39
87,200,112,-143,-12,156,-19,385,483,331,239,39
92,195,102,-143,-4,148,-19,375,473,317,234,39
82,185,102,-134,-9,143,-34,356,453,307,209,19
87,185,97,-136,-4,141,-34,341,444,302,209,14
87,185,97,-136,-4,141,-34,326,434,297,200,9
58,180,122,-119,-31,151,-34,317,429,287,190,9
58,170,112,-114,-26,141,-34,302,395,278,180,0
63,165,102,-114,-19,134,-43,287,385,263,165,0
63,161,97,-112,-17,129,-43,273,370,244,161,-4
58,156,97,-107,-19,126,-43,248,356,234,151,-9
48,151,102,-100,-26,126,-34,234,341,234,146,-14
48,156,107,-102,-29,131,-29,219,326,224,131,-19
39,146,107,-92,-34,126,-29,204,312,209,126,-34
24,146,122,-85,-48,134,-29,180,287,200,117,-39
-4,136,141,-65,-73,139,-39,175,287,190,117,-34
-9,131,141,-61,-75,136,-34,165,278,180,107,-39
-9,117,126,-53,-68,122,-34,146,268,170,97,-43
-14,117,131,-51,-73,124,-34,131,253,156,92,-43
-4,112,117,-53,-61,114,-24,102,234,141,78,-53
-14,97,112,-41,-63,104,-24,92,214,131,63,-63
-24,92,117,-34,-70,104,-24,78,204,122,53,-68
-24,82,107,-29,-65,95,-19,68,180,117,48,-78
-19,73,92,-26,-56,82,-19,53,170,102,39,-73
-24,68,92,-21,-58,80,-19,39,156,87,29,-82
-24,63,87,-19,-56,75,-19,29,151,82,24,-82
-29,58,87,-14,-58,73,-19,19,146,82,19,-87
-63,53,117,4,-90,85,-19,19,131,82,24,-82
-63,48,112,7,-87,80,-14,9,126,78,19,-87
-63,43,107,9,-85,75,-14,0,112,63,14,-97
-63,43,107,9,-85,75,-14,-9,92,53,4,-107
-63,29,92,17,-78,61,-24,-24,97,43,-9,-107
-68,24,92,21,-80,58,-19,-34,92,43,-9,-107
-68,19,87,24,-78,53,-19,-34,92,34,-9,-112
-68,9,78,29,-73,43,-19,-39,87,29,-14,-117
-73,9,82,31,-78,46,-29,-43,73,24,-19,-122
-82,9,92,36,-87,51,-29,-48,68,19,-24,-122
-82,9,92,36,-87,51,-29,-53,68,14,-29,-122
-82,4,87,39,-85,46,-24,-53,63,14,-29,-122
-87,4,92,41,-90,48,-14,-53,58,24,-39,-131
-87,0,87,43,-87,43,-14,-58,48,19,-43,-131
-97,-4,92,51,-95,43,-19,-63,48,14,-43,-131
-97,-9,87,53,-92,39,-19,-63,48,14,-43,-136
-82,0,82,41,-82,41,-9,-53,53,14,-39,-141
-82,0,82,41,-82,41,-9,-58,53,14,-39,-136
-82,-4,78,43,-80,36,-9,-63,53,14,-39,-131
-92,-4,87,48,-90,41,-9,-63,53,14,-43,-126
-92,-4,87,48,-90,41,-19,-58,39,14,-43,-126
-87,0,87,43,-87,43,-19,-58,34,14,-43,-126
-82,0,82,41,-82,41,-19,-68,34,4,-43,-126
-82,0,82,41,-82,41,-19,-68,34,4,-43,-126
-97,0,97,48,-97,48,-19,-68,34,4,-53,-126
-92,0,92,46,-92,46,-19,-68,34,0,-58,-126
-82,4,87,39,-85,46,-24,-68,29,0,-58,-122
-68,4,73,31,-70,39,-24,-68,29,0,-63,-122
-78,0,78,39,-78,39,-34,-78,29,0,-63,-122
-87,-4,82,46,-85,39,-34,-78,29,0,-63,-122
-97,-9,87,53,-92,39,-29,-78,29,0,-68,-126
-107,-14,92,61,-100,39,-29,-78,34,0,-68,-126
-97,-19,78,58,-87,29,-29,-68,34,9,-58,-122
-92,-4,87,48,-90,41,-24,-63,34,14,-53,-112
-87,0,87,43,-87,43,-24,-63,34,14,-53,-107
-87,0,87,43,-87,43,-24,-63,34,4,-53,-102
-78,0,78,39,-78,39,-29,-68,24,4,-63,-112
-78,4,82,36,-80,43,-29,-68,29,9,-63,-112
-78,4,82,36,-80,43,-24,-68,29,9,-58,-112
-78,4,82,36,-80,43,-24,-68,29,9,-58,-112
-87,0,87,43,-87,43,-14,-58,39,19,-48,-87
-92,0,92,46,-92,46,-9,-58,43,19,-43,-87
-97,0,97,48,-97,48,-9,-53,43,19,-43,-92
-97,-4,92,51,-95,43,-9,-53,43,19,-48,-92
-87,-4,82,46,-85,39,-19,-63,43,9,-63,-97
-82,0,82,41,-82,41,-24,-63,43,9,-63,-97
-82,0,82,41,-82,41,-24,-58,43,9,-58,-97
-87,0,87,43,-87,43,-24,-53,48,14,-58,-92
-107,9,117,48,-112,63,-14,-43,48,14,-53,-82
-92,14,107,39,-100,61,-14,-39,48,14,-53,-82
-87,14,102,36,-95,58,-19,-39,48,14,-53,-82
-87,14,102,36,-95,58,-19,-39,48,19,-53,-82
-97,4,102,46,-100,53,-24,-48,53,24,-43,-92
-87,4,92,41,-90,48,-24,-48,53,24,-48,-87
-87,9,97,39,-92,53,-29,-48,53,24,-48,-87
-92,9,102,41,-97,56,-29,-48,53,19,-48,-87
-97,19,117,39,-107,68,-24,-48,53,14,-48,-78
-78,19,97,29,-87,58,-24,-48,53,14,-48,-78
-82,19,102,31,-92,61,-24,-48,53,14,-48,-78
-78,19,97,29,-87,58,-19,-43,63,19,-39,-78
-92,24,117,34,-104,70,-9,-34,53,19,-39,-73
-107,24,131,41,-119,78,-9,-34,53,24,-39,-73
-92,24,117,34,-104,70,-14,-34,53,24,-43,-68
-87,24,112,31,-100,68,-14,-34,53,24,-43,-63
-97,14,112,41,-104,63,-14,-39,63,24,-53,-63
-97,14,112,41,-104,63,-9,-39,63,24,-43,-63
-97,14,112,41,-104,63,-9,-39,63,24,-43,-68
-117,14,131,51,-124,73,-9,-39,63,19,-43,-78
-112,14,126,48,-119,70,-9,-39,58,19,-48,-68
-97,14,112,41,-104,63,-9,-39,58,19,-53,-68
-87,14,102,36,-95,58,-9,-39,58,19,-53,-68
-73,19,92,26,-82,56,-9,-39,53,19,-53,-68
-78,19,97,29,-87,58,-9,-39,63,19,-48,-58
-92,19,112,36,-102,65,-9,-39,63,24,-48,-58
-97,19,117,39,-107,68,-9,-34,63,24,-48,-58
-92,19,112,36,-102,65,-9,-34,58,19,-48,-58
-102,9,112,46,-107,61,-4,-43,58,29,-48,-58
-107,4,112,51,-109,58,-4,-43,63,29,-43,-48
-107,0,107,53,-107,53,-4,-43,63,29,-43,-48
-92,-4,87,48,-90,41,-4,-43,63,29,-43,-48
-82,0,82,41,-82,41,-4,-43,43,24,-53,-58
-78,4,82,36,-80,43,-9,-53,43,19,-53,-63
-78,9,87,34,-82,48,-9,-53,39,14,-58,-63
-78,4,82,36,-80,43,-9,-53,39,9,-58,-63
-82,4,87,39,-85,46,-9,-53,48,14,-48,-58
-82,9,92,36,-87,51,-9,-53,48,9,-53,-53
-87,9,97,39,-92,53,-4,-53,48,9,-53,-53
-87,9,97,39,-92,53,-4,-53,48,9,-53,-48
-82,0,82,41,-82,41,-4,-53,48,4,-48,-43
-82,0,82,41,-82,41,0,-53,48,4,-48,-39
-97,0,97,48,-97,48,0,-53,48,4,-48,-39
-97,0,97,48,-97,48,0,-53,48,4,-53,-43
-78,0,78,39,-78,39,-4,-48,53,9,-43,-43
-82,0,82,41,-82,41,0,-48,53,9,-43,-34
-87,-4,82,46,-85,39,9,-48,53,9,-48,-29
-107,-4,102,56,-104,48,14,-58,53,9,-48,-29
-92,-4,87,48,-90,41,9,-68,43,0,-53,-43
-78,0,78,39,-78,39,4,-68,39,-4,-53,-48
-73,0,73,36,-73,36,0,-68,34,-9,-53,-48
-73,0,73,36,-73,36,-9,-68,29,-9,-53,-43
-78,0,78,39,-78,39,0,-58,39,0,-53,-34
-68,0,68,34,-68,34,0,-63,39,0,-48,-34
-82,0,82,41,-82,41,0,-63,39,0,-53,-39
-92,-9,82,51,-87,36,0,-63,34,-4,-48,-43
-82,-9,73,46,-78,31,0,-63,34,-14,-53,-34
-82,0,82,41,-82,41,4,-58,39,-14,-48,-29
-82,0,82,41,-82,41,4,-58,39,-14,-48,-24
-82,-4,78,43,-80,36,4,-63,39,-14,-48,-24
-82,0,82,41,-82,41,4,-63,39,-4,-43,-19
-87,4,92,41,-90,48,4,-63,29,-4,-43,-19
-102,0,102,51,-102,51,0,-68,29,-9,-43,-19
-97,4,102,46,-100,53,0,-68,29,-9,-48,-19
-97,4,102,46,-100,53,4,-68,24,-9,-48,-29
-102,0,102,51,-102,51,4,-68,24,-4,-48,-29
-102,-4,97,53,-100,46,4,-68,24,-4,-48,-24
-102,-9,92,56,-97,41,4,-68,24,-9,-48,-24
-107,-19,87,63,-97,34,4,-68,19,-19,-58,-24
-107,-19,87,63,-97,34,4,-68,19,-19,-58,-24
-107,-24,82,65,-95,29,0,-68,14,-24,-58,-34
-107,-34,73,70,-90,19,0,-68,14,-24,-63,-39
-92,-9,82,51,-87,36,0,-68,24,-14,-53,-34
-87,-9,78,48,-82,34,0,-78,24,-14,-53,-29
-102,-9,92,56,-97,41,0,-78,19,-14,-53,-19
-97,-9,87,53,-92,39,0,-73,19,-14,-53,-4
-92,-9,82,51,-87,36,0,-73,14,-14,-63,-14
-92,-9,82,51,-87,36,0,-73,14,-19,-68,-14
-87,-9,78,48,-82,34,0,-73,14,-19,-68,-14
-78,-9,68,43,-73,29,0,-73,14,-19,-63,-14
-87,-9,78,48,-82,34,0,-82,4,-14,-63,-14
-87,-9,78,48,-82,34,0,-87,4,-14,-68,-14
-87,-9,78,48,-82,34,0,-87,0,-19,-68,-14
-87,-9,78,48,-82,34,0,-82,0,-19,-68,-14
-82,0,82,41,-82,41,-4,-82,-4,-29,-73,-14
-87,-4,82,46,-85,39,0,-82,-4,-29,-73,-19
-68,-4,63,36,-65,29,0,-82,-4,-29,-73,-19
-63,-4,58,34,-61,26,-4,-82,-4,-29,-68,-19
-73,-9,63,41,-68,26,0,-82,-4,-29,-58,-14
-82,-9,73,46,-78,31,4,-82,0,-29,-63,-9
-92,-14,78,53,-85,31,9,-87,4,-29,-63,-4
-97,-14,82,56,-90,34,14,-92,9,-29,-63,-4
-92,-14,78,53,-85,31,9,-92,9,-29,-58,0
-78,-14,63,46,-70,24,9,-87,9,-29,-63,-4
-78,-14,63,46,-70,24,9,-82,9,-29,-63,-4
-87,-14,73,51,-80,29,9,-78,9,-34,-58,-4
-78,-14,63,46,-70,24,0,-87,0,-34,-58,0
-73,-14,58,43,-65,21,9,-87,0,-29,-63,0
-73,-19,53,46,-63,17,9,-87,0,-29,-68,0
-73,-24,48,48,-61,12,4,-82,0,-34,-73,0
-73,-24,48,48,-61,12,14,-82,0,-24,-68,9
-68,-14,53,41,-61,19,14,-82,0,-24,-68,9
-68,-14,53,41,-61,19,14,-87,0,-24,-68,9
-78,-24,53,51,-65,14,9,-87,0,-29,-68,9
-87,-24,63,56,-75,19,9,-87,-9,-19,-68,4
-82,-14,68,48,-75,26,9,-87,-9,-19,-68,4
-82,-9,73,46,-78,31,9,-87,-9,-19,-68,4
-92,-4,87,48,-90,41,9,-87,-9,-19,-68,4
-102,-14,87,58,-95,36,19,-87,0,-24,-58,9
-97,-14,82,56,-90,34,19,-87,0,-24,-68,9
-97,-19,78,58,-87,29,19,-87,0,-24,-68,9
-97,-29,68,63,-82,19,19,-87,0,-24,-68,14
-92,-19,73,56,-82,26,14,-87,-9,-24,-73,4
-82,-19,63,51,-73,21,9,-92,-9,-34,-73,-4
-78,-19,58,48,-68,19,9,-92,-9,-34,-73,-4
-73,-14,58,43,-65,21,9,-92,-9,-29,-78,0
-68,-24,43,46,-56,9,19,-92,0,-29,-78,4
-68,-19,48,43,-58,14,9,-92,0,-29,-78,9
-68,-19,48,43,-58,14,9,-92,0,-29,-78,14
-58,-19,39,39,-48,9,9,-92,-4,-29,-78,19
-68,-19,48,43,-58,14,9,-92,-4,-29,-68,24
-78,-19,58,48,-68,19,9,-92,0,-19,-68,24
-92,-24,68,58,-80,21,14,-87,0,-19,-68,24
-92,-24,68,58,-80,21,14,-87,4,-19,-63,24
-87,-24,63,56,-75,19,14,-82,4,-9,-63,24
-82,-19,63,51,-73,21,19,-82,4,-14,-68,24
-82,-19,63,51,-73,21,19,-87,4,-14,-68,14
-82,-19,63,51,-73,21,19,-87,4,-14,-68,24
-92,-29,63,61,-78,17,14,-87,4,-24,-63,29
-92,-19,73,56,-82,26,14,-87,0,-24,-58,29
-78,-14,63,46,-70,24,14,-87,-4,-14,-58,29
-78,-14,63,46,-70,24,14,-82,-4,-14,-58,29
-78,-24,53,51,-65,14,9,-82,-4,-24,-58,19
-78,-19,58,48,-68,19,14,-97,4,-24,-68,19
-87,-19,68,53,-78,24,14,-87,4,-19,-58,29
-78,-19,58,48,-68,19,19,-78,0,-19,-58,29
-68,-19,48,43,-58,14,9,-82,0,-29,-68,29
-68,-19,48,43,-58,14,9,-87,0,-29,-68,29
-68,-19,48,43,-58,14,9,-92,0,-29,-68,29
-68,-19,48,43,-58,14,9,-97,0,-29,-68,29
-73,-19,53,46,-63,17,19,-87,4,-19,-58,43
-73,-9,63,41,-68,26,24,-82,14,-9,-48,43
-68,19,87,24,-78,53,34,-78,19,-4,-48,48
-68,29,97,19,-82,63,34,-78,24,0,-43,58
-58,39,97,9,-78,68,24,-78,29,-4,-43,58
-63,48,112,7,-87,80,39,-78,34,0,-34,63
-63,63,126,0,-95,95,43,-68,43,14,-24,73
-63,73,136,-4,-100,104,53,-63,48,19,-19,78
-63,73,136,-4,-100,104,58,-63,43,29,-14,87
-63,73,136,-4,-100,104,63,-63,48,29,-14,87
-63,73,136,-4,-100,104,63,-63,48,29,-14,87
-63,78,141,-7,-102,109,63,-63,48,29,-14,87
-63,87,151,-12,-107,119,63,-53,58,29,-9,78
-63,87,151,-12,-107,119,63,-58,58,29,-9,78
-53,92,146,-19,-100,119,68,-58,58,29,-9,87
-53,92,146,-19,-100,119,73,-58,58,34,-9,87
-53,87,141,-17,-97,114,68,-58,58,34,-14,87
-58,82,141,-12,-100,112,53,-58,58,34,-14,87
-58,78,136,-9,-97,107,39,-58,58,34,-14,87
-53,73,126,-9,-90,100,24,-58,58,34,-14,92
-53,73,126,-9,-90,100,0,-53,58,29,-14,97
-39,82,122,-21,-80,102,-14,-43,68,43,-9,107
-29,92,122,-31,-75,107,-24,-43,73,48,0,107
-24,97,122,-36,-73,109,-39,-43,73,48,0,107
-14,87,102,-36,-58,95,-53,-58,73,48,-4,112
-4,87,92,-41,-48,90,-58,-63,58,43,-4,112
-14,87,102,-36,-58,95,-68,-73,48,39,-14,107
-24,82,107,-29,-65,95,-68,-78,43,34,-19,107
-34,68,102,-17,-68,85,-82,-92,24,9,-39,102
-34,63,97,-14,-65,80,-87,-107,4,0,-43,97
-29,63,92,-17,-61,78,-92,-122,-9,-9,-43,97
-14,68,82,-26,-48,75,-102,-122,-9,-9,-43,102
0,82,82,-41,-41,82,-92,-131,-4,0,-34,102
0,82,82,-41,-41,82,-92,-122,-4,0,-34,107
0,68,68,-34,-34,68,-87,-112,-4,0,-29,107
0,68,68,-34,-34,68,-82,-112,-4,0,-29,112
0,68,68,-34,-34,68,-87,-112,-4,-4,-29,102
-4,68,73,-31,-39,70,-78,-107,0,-4,-29,102
-4,63,68,-29,-36,65,-73,-107,0,-4,-29,102
-4,63,68,-29,-36,65,-68,-102,0,-9,-34,92
-9,39,48,-14,-29,43,-58,-92,4,-9,-39,78
-24,29,53,-2,-39,41,-58,-97,0,-4,-43,73
-29,29,58,0,-43,43,-53,-97,0,-4,-43,73
-39,19,58,9,-48,39,-43,-97,4,0,-43,68
-43,24,68,9,-56,46,-39,-97,-4,-9,-39,73
-53,19,73,17,-63,46,-24,-97,-4,-9,-43,68
-68,4,73,31,-70,39,-24,-102,-14,-19,-58,58
-87,-14,73,51,-80,29,-19,-107,-29,-34,-68,43
-97,-34,63,65,-80,14,-19,-112,-34,-34,-87,29
-97,-39,58,68,-78,9,-19,-112,-34,-43,-97,14
-97,-53,43,75,-70,-4,-14,-112,-34,-43,-97,9
-97,-58,39,78,-68,-9,-14,-112,-34,-43,-97,9
-97,-43,53,70,-75,4,-14,-112,-43,-53,-102,9
-97,-43,53,70,-75,4,-9,-112,-43,-48,-102,9
-107,-53,53,80,-80,0,-9,-112,-43,-48,-102,9
-107,-53,53,80,-80,0,-4,-107,-43,-48,-102,4
-97,-63,34,80,-65,-14,-4,-112,-43,-48,-102,-4
-97,-68,29,82,-63,-19,-4,-117,-43,-53,-102,-4
-97,-68,29,82,-63,-19,-4,-122,-48,-53,-107,-4
-97,-68,29,82,-63,-19,-4,-126,-48,-53,-107,-4
-107,-63,43,85,-75,-9,-9,-117,-39,-53,-112,-4
-107,-63,43,85,-75,-9,-9,-117,-39,-48,-112,-4
-107,-68,39,87,-73,-14,-9,-117,-39,-48,-112,-4
-107,-68,39,87,-73,-14,-4,-117,-39,-48,-112,-4
-102,-68,34,85,-68,-17,9,-112,-29,-39,-107,-4
-102,-68,34,85,-68,-17,9,-112,-39,-39,-102,-4
-102,-68,34,85,-68,-17,9,-117,-39,-43,-102,-9
-102,-68,34,85,-68,-17,9,-117,-39,-43,-97,-9
-112,-73,39,92,-75,-17,0,-126,-48,-48,-102,-9
-107,-73,34,90,-70,-19,0,-122,-48,-53,-107,-9
-107,-73,34,90,-70,-19,4,-122,-48,-58,-112,-9
-107,-73,34,90,-70,-19,4,-122,-48,-58,-112,-9
-126,-82,43,104,-85,-19,-4,-122,-43,-68,-122,-9
-131,-92,39,112,-85,-26,-4,-122,-43,-68,-122,-14
-131,-102,29,117,-80,-36,0,-122,-48,-73,-122,-19
-126,-112,14,119,-70,-48,0,-122,-48,-73,-126,-29
-136,-112,24,124,-80,-43,-9,-131,-53,-63,-126,-19
-146,-112,34,129,-90,-39,-14,-131,-53,-63,-122,-19
-151,-112,39,131,-95,-36,-14,-131,-53,-63,-122,-19
-161,-112,48,136,-104,-31,-14,-131,-53,-63,-122,-19
-170,-92,78,131,-124,-7,9,-112,-43,-63,-112,-4
-151,-97,53,124,-102,-21,9,-117,-43,-68,-112,-19
-156,-117,39,136,-97,-39,14,-117,-39,-68,-122,-19
-170,-117,53,143,-112,-31,29,-97,-19,-53,-126,-24
-180,-107,73,143,-126,-17,48,-78,9,-39,-117,-24
-180,-92,87,136,-134,-2,68,-58,34,-24,-107,-24
-190,-97,92,143,-141,-2,82,0,78,4,-97,-24
-180,-58,122,119,-151,31,92,87,170,78,-34,9
-126,29,156,48,-141,92,102,214,331,214,73,82
-63,102,165,-19,-114,134,87,361,492,351,204,165
0,126,126,-63,-63,126,68,497,624,473,317,239
82,161,78,-122,2,119,4,566,688,561,409,307
190,234,43,-212,73,139,-92,561,678,644,517,400
312,331,19,-322,146,175,-224,483,585,692,624,502
444,419,-24,-431,234,197,-414,361,468,722,736,600
580,512,-68,-546,324,222,-624,258,366,771,854,707
697,605,-92,-651,395,256,-790,209,312,858,995,824
795,697,-97,-746,446,300,-917,165,268,961,1146,956
883,800,-82,-841,483,358,-1044,73,219,1073,1317,1107
980,932,-48,-956,514,441,-1166,-53,146,1166,1468,1249
1058,1044,-14,-1051,536,514,-1298,-209,48,1210,1576,1366
1044,1093,48,-1068,497,570,-1405,-414,-58,1185,1615,1410
1005,1078,73,-1041,466,575,-1464,-585,-151,1132,1561,1400
995,1029,34,-1012,480,531,-1488,-668,-224,1039,1468,1351
966,873,-92,-919,529,390,-1473,-707,-322,873,1288,1210
883,605,-278,-744,580,163,-1400,-688,-414,644,1024,985
771,395,-375,-583,573,9,-1298,-634,-453,468,780,810
624,307,-317,-466,470,-4,-1176,-595,-453,346,600,678
488,214,-273,-351,380,-29,-1034,-590,-483,190,409,536
356,78,-278,-217,317,-100,-912,-600,-527,0,185,370
248,0,-248,-124,248,-124,-805,-600,-566,-161,4,229
151,-39,-190,-56,170,-114,-668,-580,-566,-248,-107,141
107,-68,-175,-19,141,-122,-551,-527,-546,-278,-161,87
78,-87,-165,4,122,-126,-444,-453,-492,-273,-165,48
29,-112,-141,41,85,-126,-346,-361,-414,-224,-141,48
-9,-117,-107,63,48,-112,-244,-248,-322,-170,-112,58
-19,-122,-102,70,41,-112,-165,-161,-234,-126,-92,63
-48,-122,-73,85,12,-97,-102,-102,-165,-92,-78,63
-87,-122,-34,104,-26,-78,-68,-68,-107,-68,-68,53
-78,-126,-48,102,-14,-87,-48,-48,-73,-58,-68,39
-68,-126,-58,97,-4,-92,-48,-53,-63,-48,-58,34
-117,-136,-19,126,-48,-78,-34,-63,-58,-43,-58,34
-165,-146,19,156,-92,-63,-14,-58,-53,-34,-53,43
-175,-136,39,156,-107,-48,4,-58,-43,-34,-58,43
-165,-141,24,153,-95,-58,4,-63,-48,-43,-73,39
-170,-156,14,163,-92,-70,4,-63,-39,-48,-82,34
-170,-161,9,165,-90,-75,9,-63,-29,-48,-92,29
-165,-165,0,165,-82,-82,19,-58,-24,-53,-92,24
-175,-156,19,165,-97,-68,19,-58,-29,-53,-102,24
-180,-156,24,168,-102,-65,24,-58,-29,-48,-97,24
-190,-156,34,173,-112,-61,34,-58,-29,-48,-97,19
-190,-156,34,173,-112,-61,34,-58,-29,-53,-107,19
-190,-161,29,175,-109,-65,43,-58,-29,-53,-112,14
-190,-161,29,175,-109,-65,43,-58,-19,-53,-112,14
-190,-161,29,175,-109,-65,48,-43,-4,-48,-112,14
-190,-161,29,175,-109,-65,48,-39,-4,-48,-107,19
-190,-170,19,180,-104,-75,48,-29,9,-48,-107,19
-180,-170,9,175,-95,-80,48,-29,9,-43,-107,14
-190,-170,19,180,-104,-75,53,-24,14,-39,-102,14
-190,-165,24,178,-107,-70,53,-24,14,-39,-102,14
-185,-156,29,170,-107,-63,53,-34,14,-48,-107,0
-185,-151,34,168,-109,-58,63,-24,9,-48,-112,0
-185,-151,34,168,-109,-58,53,-24,9,-43,-117,4
-185,-156,29,170,-107,-63,53,-19,14,-43,-122,4
-185,-156,29,170,-107,-63,63,-14,24,-34,-122,9
-185,-156,29,170,-107,-63,68,-4,29,-29,-117,9
-185,-156,29,170,-107,-63,68,0,34,-29,-117,9
-165,-156,9,161,-87,-73,68,9,39,-29,-117,14
-165,-161,4,163,-85,-78,58,4,34,-39,-122,4
-175,-161,14,168,-95,-73,58,4,39,-34,-122,4
-175,-161,14,168,-95,-73,58,9,43,-34,-126,9
-170,-161,9,165,-90,-75,58,14,48,-29,-126,9
-165,-151,14,158,-90,-68,58,9,53,-24,-126,19
-161,-146,14,153,-87,-65,63,14,63,-19,-122,19
-151,-146,4,148,-78,-70,68,14,68,-19,-117,19
-146,-146,0,146,-73,-73,68,24,68,-19,-117,19
-156,-156,0,156,-78,-78,68,29,68,-14,-117,24
-156,-151,4,153,-80,-73,68,29,68,-14,-117,24
-156,-151,4,153,-80,-73,63,34,73,-14,-117,24
-156,-151,4,153,-80,-73,58,39,78,-9,-112,24
-161,-151,9,156,-85,-70,58,39,87,-4,-112,14
-151,-146,4,148,-78,-70,58,39,92,-4,-112,24
-146,-146,0,146,-73,-73,58,48,92,4,-107,24
-146,-146,0,146,-73,-73,63,48,92,4,-107,24
-161,-136,24,148,-92,-56,73,63,112,14,-92,29
-165,-136,29,151,-97,-53,73,68,112,19,-92,34
-170,-136,34,153,-102,-51,63,73,112,19,-92,39
-175,-131,43,153,-109,-43,63,78,122,19,-92,43
-165,-136,29,151,-97,-53,63,73,117,24,-82,43
-165,-136,29,151,-97,-53,63,82,122,29,-78,48
-165,-131,34,148,-100,-48,63,97,136,34,-68,43
-170,-131,39,151,-104,-46,63,102,136,39,-68,39
-161,-141,19,151,-90,-61,53,97,136,39,-68,48
-151,-136,14,143,-82,-61,53,97,141,39,-68,48
-151,-136,14,143,-82,-61,53,107,146,34,-68,48
-161,-136,24,148,-92,-56,48,107,151,34,-68,43
-156,-136,19,146,-87,-58,53,122,151,43,-53,53
-141,-131,9,136,-75,-61,58,131,161,53,-53,58
-141,-131,9,136,-75,-61,63,136,165,58,-48,58
-141,-131,9,136,-75,-61,68,141,170,58,-48,58
-122,-117,4,119,-63,-56,58,161,180,58,-53,63
-122,-107,14,114,-68,-46,58,165,185,58,-43,68
-126,-107,19,117,-73,-43,58,175,200,63,-39,73
-136,-102,34,119,-85,-34,58,185,209,73,-34,78
-126,-107,19,117,-73,-43,68,190,200,82,-29,82
-126,-112,14,119,-70,-48,68,204,209,87,-24,82
-122,-107,14,114,-68,-46,68,214,224,102,-14,92
-107,-107,0,107,-53,-53,68,224,234,102,-9,97
-97,-97,0,97,-48,-48,68,234,248,107,-19,102
-97,-97,0,97,-48,-48,68,244,263,112,-9,102
-97,-87,9,92,-53,-39,63,248,273,122,-4,102
-87,-87,0,87,-43,-43,63,253,273,126,0,107
-87,-78,9,82,-48,-34,63,263,278,141,0,117
-92,-73,19,82,-56,-26,63,278,287,146,4,122
-97,-73,24,85,-61,-24,58,283,297,151,9,122
-92,-63,29,78,-61,-17,58,292,307,156,14,131
-87,-58,29,73,-58,-14,58,302,317,161,9,136
-82,-58,24,70,-53,-17,58,317,326,165,19,141
-82,-58,24,70,-53,-17,58,326,336,175,24,141
-73,-58,14,65,-43,-21,48,331,341,175,29,141
-58,-43,14,51,-36,-14,48,346,346,180,43,151
-58,-34,24,46,-41,-4,53,356,361,195,48,156
-58,-29,29,43,-43,0,53,366,370,214,58,161
-63,-24,39,43,-51,7,48,366,375,224,63,165
-58,-29,29,43,-43,0,48,370,370,224,63,161
-43,-24,19,34,-31,-2,43,375,380,219,68,161
-19,-19,0,19,-9,-9,39,380,385,219,68,161
-9,-9,0,9,-4,-4,39,385,390,219,68,170
-24,-4,19,14,-21,7,48,390,405,234,78,185
-29,0,29,14,-29,14,43,395,409,239,78,190
-24,4,29,9,-26,17,39,405,409,244,87,200
-29,9,39,9,-34,24,34,409,414,248,97,204
-39,0,39,19,-39,19,34,419,424,248,97,214
-43,0,43,21,-43,21,39,419,429,248,102,219
-43,4,48,19,-46,26,39,424,434,263,102,229
-43,9,53,17,-48,31,29,424,434,263,107,229
-24,9,34,7,-29,21,29,424,419,263,107,234
-19,19,39,0,-29,29,29,419,419,263,107,234
-14,24,39,-4,-26,31,29,414,419,258,97,234
-14,24,39,-4,-26,31,24,414,414,253,97,234
-14,24,39,-4,-26,31,19,419,419,263,107,234
-19,24,43,-2,-31,34,19,414,419,263,112,234
-19,24,43,-2,-31,34,14,409,424,258,117,234
-14,24,39,-4,-26,31,14,405,419,248,117,239
-14,34,48,-9,-31,41,14,405,405,248,107,234
-14,34,48,-9,-31,41,4,395,400,248,107,234
-14,34,48,-9,-31,41,0,385,385,244,102,234
-14,29,43,-7,-29,36,0,375,375,229,97,234
-9,39,48,-14,-29,43,-14,366,366,219,92,234
0,39,39,-19,-19,39,-14,351,356,214,92,229
4,39,34,-21,-14,36,-14,336,346,209,82,224
-19,34,53,-7,-36,43,-14,326,341,200,73,224
-29,34,63,-2,-46,48,-14,302,326,204,82,224
-24,29,53,-2,-39,41,-24,287,317,195,68,224
-24,24,48,0,-36,36,-24,273,302,180,63,219
-29,19,48,4,-39,34,-24,248,287,175,53,214
-29,9,39,9,-34,24,-24,244,273,156,48,209
-29,9,39,9,-34,24,-19,229,258,146,34,204
-39,-4,34,21,-36,14,-19,214,244,131,29,190
-53,-9,43,31,-48,17,-19,190,219,122,19,185
-68,-9,58,39,-63,24,-29,165,200,122,0,190
-68,-14,53,41,-61,19,-24,156,190,112,-9,185
-63,-29,34,46,-48,2,-24,136,180,102,-19,180
-63,-29,34,46,-48,2,-24,122,165,87,-24,180
-68,-34,34,51,-51,0,-24,102,161,82,-24,180
-82,-48,34,65,-58,-7,-24,92,146,73,-34,170
-97,-53,43,75,-70,-4,-24,78,141,63,-39,165
-102,-63,39,82,-70,-12,-19,68,122,58,-39,156
-102,-73,29,87,-65,-21,-29,48,97,34,-58,151
-102,-78,24,90,-63,-26,-29,29,78,19,-68,141
-97,-82,14,90,-56,-34,-29,14,68,14,-73,141
-97,-87,9,92,-53,-39,-29,0,58,14,-78,136
-126,-102,24,114,-75,-39,-29,0,53,14,-73,141
-131,-107,24,119,-78,-41,-24,-9,48,9,-78,136
-136,-112,24,124,-80,-43,-24,-19,34,-4,-82,126
-141,-112,29,126,-85,-41,-24,-29,14,-14,-92,117
-156,-107,48,131,-102,-29,-14,-34,19,-4,-97,122
-165,-112,53,139,-109,-29,-9,-43,14,-4,-97,126
-170,-117,53,143,-112,-31,-9,-43,14,-14,-97,126
-175,-126,48,151,-112,-39,-9,-48,9,-19,-102,126
-175,-136,39,156,-107,-48,-19,-63,0,-34,-107,112
-180,-136,43,158,-112,-46,-19,-68,-9,-39,-112,112
-175,-136,39,156,-107,-48,-19,-73,-14,-43,-117,112
-170,-141,29,156,-100,-56,-14,-73,-24,-43,-117,112
-165,-141,24,153,-95,-58,-14,-82,-29,-53,-126,102
-165,-146,19,156,-92,-63,-14,-87,-39,-58,-131,102
-175,-151,24,163,-100,-63,-19,-92,-39,-63,-131,102
-175,-156,19,165,-97,-68,-19,-92,-39,-63,-131,97
-170,-146,24,158,-97,-61,-9,-82,-43,-63,-136,92
-170,-146,24,158,-97,-61,-9,-87,-43,-63,-136,97
-170,-151,19,161,-95,-65,-9,-92,-43,-63,-136,102
-180,-151,29,165,-104,-61,-9,-92,-43,-63,-141,107
-180,-161,19,170,-100,-70,-19,-92,-58,-63,-141,97
-175,-156,19,165,-97,-68,-19,-97,-63,-63,-141,97
-170,-156,14,163,-92,-70,-19,-112,-63,-73,-141,97
-170,-156,14,163,-92,-70,-19,-117,-63,-73,-141,97
-190,-165,24,178,-107,-70,-19,-107,-63,-63,-146,107
-190,-165,24,178,-107,-70,-19,-107,-63,-68,-146,107
-185,-161,24,173,-104,-68,-24,-107,-68,-68,-141,112
-175,-161,14,168,-95,-73,-24,-107,-68,-68,-141,112
-175,-151,24,163,-100,-63,-24,-107,-58,-68,-141,112
-175,-151,24,163,-100,-63,-24,-107,-58,-68,-141,112
-175,-151,24,163,-100,-63,-19,-107,-58,-68,-146,107
-175,-151,24,163,-100,-63,-19,-107,-53,-68,-146,107
-180,-161,19,170,-100,-70,-19,-107,-63,-68,-136,117
-180,-151,29,165,-104,-61,-14,-102,-63,-63,-131,122
-180,-151,29,165,-104,-61,-14,-102,-63,-63,-131,122
-185,-156,29,170,-107,-63,-14,-102,-63,-73,-131,122
-175,-161,14,168,-95,-73,-19,-97,-63,-63,-141,112
-175,-161,14,168,-95,-73,-19,-97,-58,-58,-141,112
-175,-165,9,170,-92,-78,-14,-97,-58,-58,-136,112
-175,-170,4,173,-90,-82,-14,-97,-58,-58,-136,112
-161,-165,-4,163,-78,-85,-24,-107,-68,-63,-146,126
-161,-165,-4,163,-78,-85,-19,-107,-63,-68,-141,126
-161,-165,-4,163,-78,-85,-19,-102,-63,-73,-141,122
-156,-170,-14,163,-70,-92,-19,-102,-63,-78,-146,122
-161,-161,0,161,-80,-80,-9,-102,-53,-68,-141,117
-161,-156,4,158,-82,-75,-14,-102,-53,-68,-141,117
-165,-156,9,161,-87,-73,-14,-97,-53,-68,-136,117
-175,-156,19,165,-97,-68,-14,-92,-48,-63,-136,122
-200,-156,43,178,-122,-56,-4,-92,-48,-63,-131,126
-190,-151,39,170,-114,-56,-4,-87,-48,-63,-131,131
-190,-151,39,170,-114,-56,-9,-87,-48,-63,-131,136
-195,-151,43,173,-119,-53,-9,-87,-48,-58,-131,141
-190,-151,39,170,-114,-56,-4,-87,-43,-63,-131,131
-175,-151,24,163,-100,-63,-4,-87,-43,-63,-136,136
-170,-146,24,158,-97,-61,-9,-87,-43,-63,-136,136
-170,-146,24,158,-97,-61,-9,-87,-43,-68,-136,136
-170,-156,14,163,-92,-70,-4,-87,-34,-63,-136,146
-156,-156,0,156,-78,-78,-4,-87,-34,-63,-136,146
-165,-156,9,161,-87,-73,-4,-87,-34,-63,-136,146
-165,-156,9,161,-87,-73,0,-82,-24,-58,-126,146
-190,-151,39,170,-114,-56,0,-82,-34,-58,-126,156
-204,-151,53,178,-129,-48,0,-82,-34,-53,-126,151
-190,-151,39,170,-114,-56,-4,-82,-34,-53,-131,151
-185,-151,34,168,-109,-58,-4,-82,-34,-53,-131,151
-180,-151,29,165,-104,-61,-14,-87,-34,-53,-141,161
-175,-151,24,163,-100,-63,-9,-87,-34,-53,-131,161
-170,-151,19,161,-95,-65,-9,-87,-34,-53,-131,156
-185,-151,34,168,-109,-58,-9,-87,-34,-58,-131,146
-195,-151,43,173,-119,-53,-4,-78,-19,-58,-131,156
-185,-151,34,168,-109,-58,0,-78,-19,-58,-131,156
-180,-151,29,165,-104,-61,4,-78,-19,-58,-126,156
-170,-146,24,158,-97,-61,9,-78,-24,-58,-122,156
-180,-146,34,163,-107,-56,0,-87,-24,-48,-136,156
-190,-146,43,168,-117,-51,0,-87,-24,-43,-136,156
-190,-146,43,168,-117,-51,0,-82,-24,-43,-136,156
-180,-146,34,163,-107,-56,0,-82,-29,-48,-136,156
-190,-151,39,170,-114,-56,-4,-82,-39,-58,-126,156
-195,-151,43,173,-119,-53,-4,-82,-34,-58,-122,165
-195,-151,43,173,-119,-53,-4,-82,-34,-58,-122,165
-180,-151,29,165,-104,-61,-4,-82,-34,-58,-122,165
-180,-151,29,165,-104,-61,4,-82,-34,-58,-131,165
-175,-151,24,163,-100,-63,0,-92,-34,-58,-131,161
-175,-151,24,163,-100,-63,0,-92,-39,-58,-136,161
-175,-161,14,168,-95,-73,0,-92,-39,-58,-136,161
-180,-151,29,165,-104,-61,0,-92,-39,-53,-126,161
-180,-146,34,163,-107,-56,0,-92,-39,-58,-131,161
-185,-146,39,165,-112,-53,4,-92,-39,-58,-131,156
-185,-146,39,165,-112,-53,4,-92,-39,-58,-131,156
-165,-156,9,161,-87,-73,-4,-102,-48,-58,-136,151
-161,-156,4,158,-82,-75,0,-102,-48,-63,-136,156
-170,-156,14,163,-92,-70,0,-102,-48,-68,-136,156
-165,-156,9,161,-87,-73,0,-102,-48,-73,-141,151
-156,-156,0,156,-78,-78,-4,-102,-43,-73,-131,146
-170,-156,14,163,-92,-70,0,-97,-43,-68,-131,161
-185,-161,24,173,-104,-68,9,-92,-43,-63,-136,170
-214,-161,53,187,-134,-53,14,-97,-43,-58,-136,175
-209,-161,48,185,-129,-56,4,-107,-48,-58,-141,161
-195,-156,39,175,-117,-58,4,-107,-48,-63,-141,156
-190,-156,34,173,-112,-61,4,-107,-48,-68,-141,156
-190,-156,34,173,-112,-61,0,-107,-48,-68,-141,161
-190,-146,43,168,-117,-51,0,-107,-58,-68,-146,161
-175,-146,29,161,-102,-58,0,-112,-58,-68,-146,161
-185,-146,39,165,-112,-53,0,-112,-58,-68,-156,156
-190,-156,34,173,-112,-61,0,-112,-63,-73,-156,151
-190,-156,34,173,-112,-61,0,-122,-63,-73,-151,151
-190,-146,43,168,-117,-51,4,-117,-58,-73,-146,156
-190,-146,43,168,-117,-51,4,-117,-58,-73,-146,161
-190,-151,39,170,-114,-56,4,-122,-58,-73,-146,161
-175,-161,14,168,-95,-73,4,-122,-58,-73,-151,165
-175,-161,14,168,-95,-73,4,-122,-68,-73,-151,165
-185,-170,14,178,-100,-78,0,-126,-68,-78,-151,165
-175,-170,4,173,-90,-82,0,-126,-68,-78,-156,165
-185,-165,19,175,-102,-73,14,-117,-63,-68,-146,165
-190,-165,24,178,-107,-70,14,-117,-63,-63,-146,165
-190,-165,24,178,-107,-70,14,-117,-63,-63,-146,170
-190,-165,24,178,-107,-70,14,-117,-63,-68,-146,170
-185,-156,29,170,-107,-63,14,-117,-68,-68,-156,180
-185,-156,29,170,-107,-63,14,-117,-68,-68,-156,180
-185,-161,24,173,-104,-68,9,-117,-73,-73,-156,170
-185,-170,14,178,-100,-78,9,-117,-73,-73,-161,165
-175,-165,9,170,-92,-78,0,-126,-73,-82,-161,156
-175,-165,9,170,-92,-78,0,-136,-73,-82,-161,156
-195,-165,29,180,-112,-68,0,-136,-78,-82,-161,161
-195,-165,29,180,-112,-68,0,-131,-78,-82,-161,170
-185,-165,19,175,-102,-73,-9,-141,-78,-92,-165,165
-170,-165,4,168,-87,-80,-9,-141,-82,-97,-175,161
-151,-165,-14,158,-68,-90,-9,-141,-87,-97,-180,156
-126,-165,-39,146,-43,-102,-9,-141,-92,-97,-180,151
-151,-161,-9,156,-70,-85,-4,-136,-78,-87,-175,161
-165,-156,9,161,-87,-73,0,-136,-73,-82,-175,161
-180,-151,29,165,-104,-61,4,-131,-73,-82,-170,161
-195,-146,48,170,-122,-48,9,-122,-68,-78,-165,161
-195,-151,43,173,-119,-53,4,-131,-68,-78,-161,170
-204,-161,43,183,-124,-58,9,-131,-73,-78,-161,165
-190,-165,24,178,-107,-70,9,-131,-78,-78,-161,165
-190,-170,19,180,-104,-75,4,-131,-82,-78,-156,165
-190,-165,24,178,-107,-70,4,-141,-97,-82,-161,156
-190,-165,24,178,-107,-70,4,-141,-97,-87,-170,156
-190,-170,19,180,-104,-75,4,-146,-97,-92,-175,156
-185,-170,14,178,-100,-78,4,-151,-97,-97,-180,151
-195,-170,24,183,-109,-73,9,-141,-87,-92,-180,151
-185,-170,14,178,-100,-78,9,-136,-87,-87,-180,151
-190,-170,19,180,-104,-75,9,-131,-87,-82,-175,156
-204,-170,34,187,-119,-68,9,-126,-87,-82,-165,161
-190,-170,19,180,-104,-75,4,-131,-97,-87,-175,161
-180,-170,9,175,-95,-80,9,-136,-97,-87,-180,156
-175,-175,0,175,-87,-87,4,-141,-97,-92,-185,151
-170,-180,-9,175,-80,-95,-4,-141,-97,-102,-190,146
-180,-175,4,178,-92,-85,4,-131,-92,-97,-190,151
-175,-161,14,168,-95,-73,4,-131,-87,-92,-185,156
-175,-156,19,165,-97,-68,4,-136,-82,-87,-180,161
-185,-161,24,173,-104,-68,0,-136,-78,-87,-175,165
-185,-170,14,178,-100,-78,0,-136,-87,-87,-175,161
-180,-161,19,170,-100,-70,0,-136,-87,-87,-175,161
-180,-156,24,168,-102,-65,0,-136,-87,-87,-175,161
-190,-151,39,170,-114,-56,0,-136,-87,-87,-175,161
-190,-161,29,175,-109,-65,9,-136,-87,-92,-175,165
-185,-161,24,173,-104,-68,9,-136,-87,-92,-185,165
-185,-165,19,175,-102,-73,9,-136,-87,-92,-185,165
-185,-175,9,180,-97,-82,9,-136,-87,-92,-185,170
-195,-165,29,180,-112,-68,9,-126,-78,-87,-180,170
-190,-165,24,178,-107,-70,9,-131,-78,-92,-180,161
-190,-165,24,178,-107,-70,14,-131,-78,-87,-180,161
-190,-161,29,175,-109,-65,19,-131,-78,-78,-185,165
-175,-170,4,173,-90,-82,9,-136,-82,-82,-185,156
-175,-165,9,170,-92,-78,0,-141,-87,-87,-185,156
-175,-165,9,170,-92,-78,0,-146,-92,-92,-185,156
-165,-165,0,165,-82,-82,0,-151,-102,-97,-185,156
-165,-165,0,165,-82,-82,0,-141,-92,-97,-185,151
-175,-165,9,170,-92,-78,0,-141,-87,-87,-185,151
-190,-170,19,180,-104,-75,4,-136,-87,-87,-185,151
-190,-170,19,180,-104,-75,4,-136,-82,-87,-180,151
-185,-170,14,178,-100,-78,-4,-141,-87,-87,-185,161
-180,-165,14,173,-97,-75,0,-141,-92,-92,-195,161
-180,-165,14,173,-97,-75,0,-146,-97,-92,-200,151
-180,-165,14,173,-97,-75,0,-146,-102,-92,-204,161
-204,-170,34,187,-119,-68,14,-136,-92,-92,-195,156
-209,-165,43,187,-126,-61,14,-136,-87,-92,-185,156
-200,-165,34,183,-117,-65,14,-136,-82,-82,-180,156
-204,-170,34,187,-119,-68,14,-131,-73,-82,-175,156
-195,-175,19,185,-107,-78,9,-141,-78,-82,-185,156
-185,-175,9,180,-97,-82,4,-146,-82,-82,-195,156
-185,-180,4,183,-95,-87,4,-146,-87,-87,-195,156
-195,-175,19,185,-107,-78,4,-141,-92,-87,-185,161
-185,-165,19,175,-102,-73,9,-151,-92,-92,-195,151
-180,-165,14,173,-97,-75,14,-151,-87,-92,-195,156
-180,-165,14,173,-97,-75,14,-151,-87,-97,-195,156
-185,-180,4,183,-95,-87,14,-151,-87,-97,-190,156
-195,-170,24,183,-109,-73,14,-141,-78,-92,-180,161
-185,-161,24,173,-104,-68,14,-141,-78,-82,-190,161
-180,-161,19,170,-100,-70,14,-141,-82,-87,-185,156
-190,-175,14,183,-102,-80,14,-131,-92,-87,-185,156
-214,-185,29,200,-122,-78,19,-126,-78,-87,-185,165
-204,-180,24,192,-114,-78,19,-126,-68,-78,-175,165
-195,-175,19,185,-107,-78,19,-126,-68,-78,-175,165
-185,-170,14,178,-100,-78,19,-126,-68,-78,-175,165
-175,-165,9,170,-92,-78,19,-126,-68,-78,-175,165
-175,-165,9,170,-92,-78,29,-126,-63,-68,-165,170
-170,-156,14,163,-92,-70,34,-122,-53,-58,-156,170
-161,-126,34,143,-97,-46,43,-117,-48,-53,-156,175
-156,-117,39,136,-97,-39,43,-117,-43,-48,-151,185
-156,-97,58,126,-107,-19,43,-107,-39,-43,-151,195
-161,-87,73,124,-117,-7,58,-107,-34,-39,-141,200
-161,-73,87,117,-124,7,63,-97,-24,-24,-131,209
-161,-63,97,112,-129,17,73,-92,-19,-19,-126,214
-151,-63,87,107,-119,12,78,-102,-14,-19,-131,214
-151,-63,87,107,-119,12,82,-102,-9,-19,-131,214
-151,-63,87,107,-119,12,82,-102,-9,-19,-131,214
-151,-58,92,104,-122,17,82,-102,-9,-19,-131,214
-141,-58,82,100,-112,12,78,-102,-19,-29,-136,195
-141,-58,82,100,-112,12,73,-107,-19,-29,-136,195
-131,-53,78,92,-104,12,73,-107,-19,-29,-136,204
-131,-53,78,92,-104,12,73,-107,-19,-24,-136,204
-136,-58,78,97,-107,9,68,-107,-9,-24,-131,214
-146,-63,82,104,-114,9,53,-107,-9,-24,-131,214
-151,-68,82,109,-117,7,39,-107,-9,-24,-131,214
-151,-73,78,112,-114,2,24,-107,-9,-24,-131,219
-146,-73,73,109,-109,0,0,-102,-19,-19,-122,224
-126,-63,63,95,-95,0,-14,-92,-9,-4,-117,234
-112,-53,58,82,-85,2,-24,-92,-4,0,-107,234
-102,-48,53,75,-78,2,-39,-92,-4,0,-107,234
-82,-48,34,65,-58,-7,-53,-107,-14,-9,-102,229
-73,-48,24,61,-48,-12,-58,-112,-29,-14,-102,229
-82,-48,34,65,-58,-7,-68,-122,-39,-19,-112,224
-92,-53,39,73,-65,-7,-68,-126,-43,-24,-117,224
-122,-48,73,85,-97,12,-68,-131,-43,-29,-126,229
-131,-53,78,92,-104,12,-68,-146,-63,-39,-131,224
-136,-53,82,95,-109,14,-68,-161,-78,-48,-131,224
-131,-48,82,90,-107,17,-73,-161,-78,-48,-131,229
-97,-48,48,73,-73,0,-73,-161,-73,-48,-131,219
-97,-53,43,75,-70,-4,-73,-151,-73,-48,-131,224
-97,-73,24,85,-61,-24,-68,-141,-73,-48,-126,224
-97,-78,19,87,-58,-29,-63,-141,-73,-48,-126,229
-92,-68,24,80,-58,-21,-58,-151,-73,-43,-126,239
-92,-68,24,80,-58,-21,-48,-146,-68,-43,-126,239
-87,-73,14,80,-51,-29,-43,-146,-68,-43,-126,239
-82,-73,9,78,-46,-31,-39,-141,-68,-48,-131,229
-102,-87,14,95,-58,-36,-39,-131,-73,-63,-146,219
-122,-97,24,109,-73,-36,-39,-136,-78,-63,-151,209
-131,-97,34,114,-82,-31,-34,-136,-78,-68,-151,204
-146,-107,39,126,-92,-34,-24,-136,-73,-68,-151,195
-141,-126,14,134,-78,-56,-29,-146,-82,-78,-165,180
-151,-136,14,143,-82,-61,-14,-146,-82,-78,-170,175
-165,-156,9,161,-87,-73,-14,-151,-92,-87,-185,165
-185,-180,4,183,-95,-87,-9,-156,-107,-102,-195,151
-185,-185,0,185,-92,-92,-9,-161,-102,-102,-200,141
-185,-185,0,185,-92,-92,-9,-161,-102,-112,-204,131
-185,-195,-9,190,-87,-102,-4,-161,-102,-112,-200,131
-185,-195,-9,190,-87,-102,-4,-161,-102,-112,-195,136
-185,-200,-14,192,-85,-107,-4,-151,-102,-112,-190,136
-185,-200,-14,192,-85,-107,0,-151,-102,-107,-190,136
-195,-209,-14,202,-90,-112,0,-151,-102,-107,-190,136
-195,-209,-14,202,-90,-112,4,-146,-102,-107,-190,131
-185,-200,-14,192,-85,-107,-4,-151,-112,-117,-195,122
-185,-204,-19,195,-82,-112,-4,-156,-112,-122,-200,122
-185,-204,-19,195,-82,-112,-4,-161,-117,-122,-209,122
-185,-204,-19,195,-82,-112,-4,-165,-117,-122,-214,122
-185,-200,-14,192,-85,-107,9,-156,-97,-112,-204,112
-185,-200,-14,192,-85,-107,9,-156,-97,-107,-200,112
-185,-204,-19,195,-82,-112,9,-156,-97,-107,-195,112
-185,-204,-19,195,-82,-112,14,-156,-97,-107,-190,112
-195,-204,-9,200,-92,-107,19,-151,-87,-107,-190,122
-200,-204,-4,202,-97,-104,19,-151,-97,-107,-190,122
-204,-204,0,204,-102,-102,19,-156,-97,-112,-195,117
-209,-204,4,207,-107,-100,19,-156,-97,-112,-195,117
-209,-219,-9,214,-100,-114,19,-146,-97,-122,-195,117
-204,-219,-14,212,-95,-117,19,-141,-97,-122,-195,117
-204,-219,-14,212,-95,-117,24,-141,-97,-122,-195,117
-204,-219,-14,212,-95,-117,24,-141,-97,-117,-190,117
-204,-219,-14,212,-95,-117,24,-141,-92,-117,-200,122
-209,-219,-9,214,-100,-114,24,-141,-92,-117,-200,122
-209,-219,-9,214,-100,-114,29,-141,-97,-122,-200,122
-204,-219,-14,212,-95,-117,29,-141,-97,-122,-204,117
-204,-219,-14,212,-95,-117,29,-151,-102,-122,-204,107
-204,-219,-14,212,-95,-117,24,-151,-102,-122,-200,107
-200,-219,-19,209,-90,-119,24,-151,-102,-122,-200,107
-200,-219,-19,209,-90,-119,24,-151,-102,-122,-200,107
-161,-200,-39,180,-61,-119,19,-161,-102,-131,-209,92
-170,-214,-43,192,-63,-129,39,-146,-92,-117,-209,97
-234,-224,9,229,-122,-107,63,-117,-68,-97,-190,107
-248,-214,34,231,-141,-90,78,-97,-39,-92,-185,112
-239,-204,34,222,-136,-85,87,-87,-29,-78,-185,112
-248,-200,48,224,-148,-75,117,-39,14,-43,-156,131
-258,-165,92,212,-175,-36,141,19,87,4,-126,141
-209,-117,92,163,-151,-12,141,107,180,78,-63,165
-156,-29,126,92,-141,48,131,224,312,195,43,229
-102,14,117,43,-109,65,117,370,463,322,156,322
-19,39,58,-9,-39,48,87,517,595,434,258,385
102,102,0,-102,51,51,24,595,678,551,380,463
200,185,-14,-192,107,85,-73,561,668,653,507,575
302,263,-39,-283,170,112,-204,473,575,702,624,678
444,341,-102,-392,273,119,-395,370,448,722,727,795
580,434,-146,-507,363,143,-585,278,366,790,854,912
707,527,-180,-617,444,173,-741,209,322,878,1015,1039
824,658,-165,-741,495,246,-878,146,287,1000,1185,1180
922,810,-112,-866,517,348,-1015,43,229,1112,1346,1332
1000,902,-97,-951,549,402,-1146,-112,117,1166,1468,1454
1019,946,-73,-983,546,436,-1249,-317,-19,1161,1527,1542
995,946,-48,-971,522,448,-1307,-522,-136,1107,1517,1546
966,941,-24,-954,495,458,-1317,-634,-219,1024,1434,1507
946,863,-82,-905,514,390,-1302,-697,-312,883,1302,1410
878,639,-239,-758,558,200,-1249,-697,-409,688,1063,1229
756,400,-356,-578,556,21,-1176,-668,-492,468,800,1015
614,268,-346,-441,480,-39,-1093,-644,-531,322,605,878
478,209,-268,-344,373,-29,-1000,-644,-551,200,424,746
351,117,-234,-234,292,-58,-878,-639,-590,34,195,566
239,9,-229,-124,234,-109,-785,-629,-634,-146,-19,409
141,-68,-209,-36,175,-139,-688,-619,-644,-268,-151,297
82,-136,-219,26,151,-178,-580,-590,-634,-346,-244,219
39,-185,-224,73,131,-204,-473,-517,-585,-356,-268,165
-19,-195,-175,107,78,-185,-356,-444,-512,-322,-263,146
-48,-209,-161,129,56,-185,-268,-351,-434,-283,-248,146
-58,-214,-156,136,48,-185,-195,-258,-361,-229,-229,146
-107,-219,-112,163,2,-165,-117,-180,-283,-185,-209,151
-165,-219,-53,192,-56,-136,-53,-102,-195,-131,-185,161
-165,-219,-53,192,-56,-136,-9,-48,-136,-107,-165,151
-146,-224,-78,185,-34,-151,-9,-48,-112,-97,-165,136
-136,-224,-87,180,-24,-156,0,-53,-102,-97,-165,131
-146,-195,-48,170,-48,-122,24,-63,-107,-92,-156,122
-165,-204,-39,185,-63,-122,24,-78,-112,-112,-170,112
-204,-234,-29,219,-87,-131,34,-97,-122,-122,-195,102
-204,-234,-29,219,-87,-131,43,-97,-112,-117,-190,102
-209,-244,-34,226,-87,-139,43,-92,-97,-117,-190,102
-209,-244,-34,226,-87,-139,48,-87,-82,-112,-190,102
-204,-244,-39,224,-82,-141,58,-78,-73,-112,-180,102
-214,-234,-19,224,-97,-126,58,-68,-58,-112,-190,102
-219,-234,-14,226,-102,-124,63,-68,-58,-107,-185,102
-229,-234,-4,231,-112,-119,73,-68,-58,-107,-185,97
-229,-234,-4,231,-112,-119,73,-68,-58,-112,-195,97
-239,-244,-4,241,-117,-124,73,-78,-68,-112,-200,82
-239,-248,-9,244,-114,-129,73,-78,-58,-112,-200,82
-239,-253,-14,246,-112,-134,78,-63,-43,-107,-200,82
-239,-258,-19,248,-109,-139,78,-58,-43,-107,-195,87
-229,-253,-24,241,-102,-139,87,-48,-29,-97,-195,87
-219,-248,-29,234,-95,-139,87,-48,-29,-92,-195,82
-229,-244,-14,236,-107,-129,92,-43,-24,-87,-190,82
-229,-234,-4,231,-112,-119,92,-43,-24,-87,-190,82
-234,-244,-9,239,-112,-126,82,-53,-29,-87,-190,87
-234,-239,-4,236,-114,-122,92,-43,-29,-87,-190,87
-234,-239,-4,236,-114,-122,82,-43,-24,-82,-190,92
-234,-244,-9,239,-112,-126,82,-39,-14,-82,-190,92
-244,-253,-9,248,-117,-131,92,-29,0,-82,-190,87
-244,-253,-9,248,-117,-131,97,-24,0,-78,-185,87
-244,-253,-9,248,-117,-131,97,-24,0,-78,-185,87
-224,-253,-29,239,-97,-141,97,-19,0,-78,-185,92
-234,-248,-14,241,-109,-131,97,-14,4,-68,-175,82
-244,-248,-4,246,-119,-126,97,-14,9,-63,-170,82
-244,-248,-4,246,-119,-126,97,-9,14,-63,-170,87
-239,-248,-9,244,-114,-129,97,-4,19,-58,-165,87
-234,-248,-14,241,-109,-131,92,-9,14,-58,-180,87
-229,-244,-14,236,-107,-129,92,-4,24,-58,-180,87
-219,-244,-24,231,-97,-134,92,-4,29,-63,-180,87
-214,-244,-29,229,-92,-136,87,4,29,-68,-185,87
-204,-234,-29,219,-87,-131,78,9,29,-53,-180,92
-204,-229,-24,217,-90,-126,78,9,29,-53,-175,92
-204,-229,-24,217,-90,-126,73,14,34,-53,-170,92
-204,-229,-24,217,-90,-126,68,19,39,-48,-161,92
-200,-219,-19,209,-90,-119,73,29,58,-34,-151,102
-190,-214,-24,202,-82,-119,78,29,63,-34,-151,112
-185,-214,-29,200,-78,-122,82,39,63,-24,-146,112
-185,-214,-29,200,-78,-122,92,39,63,-24,-146,112
-175,-214,-39,195,-68,-126,92,43,73,-34,-151,112
-175,-214,-39,195,-68,-126,92,48,73,-29,-151,112
-175,-214,-39,195,-68,-126,82,53,73,-29,-151,112
-175,-209,-34,192,-70,-122,82,58,82,-29,-151,112
-175,-195,-19,185,-78,-107,73,63,78,-24,-141,126
-175,-195,-19,185,-78,-107,73,73,82,-19,-136,136
-175,-190,-14,183,-80,-102,73,87,97,-14,-126,136
-180,-190,-9,185,-85,-100,73,92,97,-9,-126,136
-180,-200,-19,190,-80,-109,82,107,112,4,-107,146
-170,-195,-24,183,-73,-109,82,107,122,9,-107,146
-170,-195,-24,183,-73,-109,82,117,131,9,-107,146
-180,-195,-14,187,-82,-104,78,117,141,14,-107,141
-165,-195,-29,180,-68,-112,68,122,131,14,-102,151
-151,-190,-39,170,-56,-114,68,131,141,24,-102,156
-151,-190,-39,170,-56,-114,68,136,146,29,-97,156
-151,-190,-39,170,-56,-114,68,141,151,29,-97,156
-141,-175,-34,158,-53,-104,78,141,161,39,-92,151
-141,-165,-24,153,-58,-95,78,146,165,39,-82,156
-146,-165,-19,156,-63,-92,78,156,180,43,-78,161
-156,-161,-4,158,-75,-82,78,165,190,53,-73,165
-141,-170,-29,156,-56,-100,68,170,190,53,-78,161
-136,-170,-34,153,-51,-102,68,185,200,58,-73,161
-126,-161,-34,143,-46,-97,68,195,214,73,-63,170
-107,-156,-48,131,-29,-102,68,204,224,73,-58,175
-107,-146,-39,126,-34,-92,68,214,229,87,-48,185
-107,-146,-39,126,-34,-92,68,224,244,92,-39,190
-107,-136,-29,122,-39,-82,63,229,253,102,-34,195
-97,-136,-39,117,-29,-87,63,234,253,107,-29,204
-92,-136,-43,114,-24,-90,63,244,258,112,-19,204
-92,-131,-39,112,-26,-85,63,258,268,117,-14,209
-92,-131,-39,112,-26,-85,58,263,278,122,-9,209
-82,-122,-39,102,-21,-80,58,273,287,126,-4,219
-82,-122,-39,102,-21,-80,68,283,307,151,-9,224
-82,-117,-34,100,-24,-75,68,297,317,156,0,229
-87,-112,-24,100,-31,-68,68,307,326,165,4,229
-82,-107,-24,95,-29,-65,58,312,331,165,9,229
-58,-97,-39,78,-9,-68,48,317,336,165,24,229
-58,-82,-24,70,-17,-53,53,326,351,175,29,234
-58,-73,-14,65,-21,-43,53,336,361,190,39,239
-63,-63,0,63,-31,-31,48,336,366,195,43,244
-82,-63,19,73,-51,-21,48,351,370,219,48,258
-73,-63,9,68,-41,-26,43,356,380,219,58,258
-53,-63,-9,58,-21,-36,39,361,385,224,63,258
-48,-58,-9,53,-19,-34,39,366,390,229,68,268
-43,-43,0,43,-21,-21,39,366,385,224,68,268
-39,-39,0,39,-19,-19,34,366,390,229,68,268
-24,-34,-9,29,-7,-21,29,370,390,234,78,273
-19,-29,-9,24,-4,-19,24,370,395,239,87,273
-29,-39,-9,34,-9,-24,24,380,405,248,87,283
-34,-39,-4,36,-14,-21,29,380,409,248,92,287
-34,-34,0,34,-17,-17,29,385,414,263,92,297
-34,-29,4,31,-19,-12,19,385,414,263,97,297
-24,-24,0,24,-12,-12,9,385,409,263,97,302
-19,-9,9,14,-14,0,9,380,409,263,97,302
-14,0,14,7,-14,7,9,375,409,258,87,302
-14,4,19,4,-17,12,4,375,405,253,87,302
-14,-4,9,9,-12,2,0,370,414,253,97,302
-19,-4,14,12,-17,4,0,366,409,253,102,302
-19,-4,14,12,-17,4,-4,361,409,248,107,302
-14,-4,9,9,-12,2,-4,356,400,239,107,307
-19,-4,14,12,-17,4,4,356,385,239,87,302
-24,-4,19,14,-21,7,-4,346,380,239,87,302
-29,-4,24,17,-26,9,-9,336,366,234,82,302
-34,-9,24,21,-29,7,-9,326,356,219,78,302
-19,0,19,9,-19,9,-24,317,356,209,73,302
-9,0,9,4,-9,4,-24,302,346,204,73,297
-4,0,4,2,-4,2,-24,287,336,200,63,292
-29,-4,24,17,-26,9,-24,278,331,190,53,292
-19,-4,14,12,-17,4,-34,273,307,175,53,287
-14,-9,4,12,-9,-2,-43,258,297,165,39,283
-14,-14,0,14,-7,-7,-43,244,283,151,34,273
-19,-19,0,19,-9,-9,-43,219,268,146,24,263
-34,-39,-4,36,-14,-21,-39,214,258,146,29,263
-39,-39,0,39,-19,-19,-29,200,248,136,14,263
-53,-53,0,53,-26,-26,-24,185,239,122,9,253
-73,-58,14,65,-43,-21,-19,161,219,112,0,253
-92,-48,43,70,-68,-2,-19,156,209,107,0,239
-97,-53,43,75,-70,-4,-14,146,200,102,-9,234
-97,-68,29,82,-63,-19,-14,126,190,97,-19,229
-102,-68,34,85,-68,-17,-14,112,175,87,-24,229
-87,-63,24,75,-56,-19,-14,82,151,78,-39,219
-92,-78,14,85,-53,-31,-14,73,136,63,-53,209
-97,-82,14,90,-56,-34,-14,58,131,48,-63,204
-92,-92,0,92,-46,-46,-9,48,112,39,-68,195
-102,-102,0,102,-51,-51,0,43,102,34,-68,180
-112,-107,4,109,-58,-51,0,29,87,19,-78,170
-117,-112,4,114,-61,-53,0,19,82,14,-82,170
-126,-117,9,122,-68,-53,0,9,78,14,-87,165
-141,-141,0,141,-70,-70,9,9,73,9,-82,161
-141,-146,-4,143,-68,-75,14,0,68,9,-87,156
-141,-151,-9,146,-65,-80,14,-9,53,0,-92,146
-141,-151,-9,146,-65,-80,14,-19,34,-4,-102,136
-156,-146,9,151,-82,-68,14,-24,29,-14,-107,146
-165,-151,14,158,-90,-68,19,-34,24,-14,-107,146
-170,-156,14,163,-92,-70,19,-34,24,-24,-107,141
-175,-165,9,170,-92,-78,19,-39,19,-29,-112,136
-175,-165,9,170,-92,-78,19,-53,4,-34,-122,122
-180,-165,14,173,-97,-75,19,-58,0,-39,-131,122
-175,-165,9,170,-92,-78,19,-63,0,-43,-141,122
-170,-170,0,170,-85,-85,24,-63,-4,-43,-146,122
-170,-170,0,170,-85,-85,24,-63,-9,-53,-136,112
-175,-175,0,175,-87,-87,24,-68,-19,-58,-141,112
-190,-180,9,185,-100,-85,19,-73,-19,-63,-141,112
-195,-185,9,190,-102,-87,19,-73,-19,-63,-141,107
-190,-185,4,187,-97,-90,9,-73,-24,-63,-156,97
-190,-185,4,187,-97,-90,9,-78,-24,-63,-156,97
-190,-190,0,190,-95,-95,9,-82,-24,-63,-156,97
-200,-190,9,195,-104,-90,9,-82,-24,-63,-161,97
-190,-200,-9,195,-90,-104,19,-78,-29,-63,-151,87
-185,-195,-9,190,-87,-102,19,-78,-34,-63,-151,87
-180,-195,-14,187,-82,-104,19,-87,-34,-73,-151,87
-180,-195,-14,187,-82,-104,19,-87,-34,-73,-151,87
-195,-204,-9,200,-92,-107,9,-97,-34,-82,-161,82
-190,-204,-14,197,-87,-109,9,-97,-34,-87,-165,78
-180,-200,-19,190,-80,-109,4,-97,-39,-87,-165,78
-165,-200,-34,183,-65,-117,4,-97,-39,-87,-170,73
-180,-190,-9,185,-85,-100,14,-87,-29,-73,-165,78
-185,-190,-4,187,-90,-97,14,-87,-29,-68,-161,82
-190,-190,0,190,-95,-95,19,-87,-29,-63,-161,82
-195,-190,4,192,-100,-92,19,-87,-24,-58,-156,87
-209,-209,0,209,-104,-104,19,-78,-19,-58,-146,87
-209,-200,9,204,-109,-95,24,-73,-14,-53,-141,92
-209,-200,9,204,-109,-95,24,-73,-9,-53,-141,92
-214,-204,9,209,-112,-97,24,-73,-4,-63,-141,92
-204,-204,0,204,-102,-102,29,-78,-9,-63,-151,92
-204,-200,4,202,-104,-97,29,-78,-9,-58,-151,92
-204,-200,4,202,-104,-97,34,-78,-14,-58,-146,92
-204,-200,4,202,-104,-97,34,-78,-19,-58,-146,92
-200,-185,14,192,-107,-85,24,-78,-19,-58,-146,102
-200,-185,14,192,-107,-85,29,-78,-14,-58,-141,97
-200,-185,14,192,-107,-85,29,-73,-14,-58,-141,87
-195,-190,4,192,-100,-92,29,-73,-14,-58,-146,82
-195,-200,-4,197,-95,-102,29,-73,-4,-58,-151,78
-200,-195,4,197,-102,-95,24,-73,-4,-58,-151,78
-209,-195,14,202,-112,-90,24,-68,-4,-58,-146,78
-224,-195,29,209,-126,-82,24,-63,0,-53,-146,82
-219,-185,34,202,-126,-75,24,-73,0,-53,-141,73
-200,-180,19,190,-109,-80,24,-68,0,-53,-141,73
-190,-180,9,185,-100,-85,19,-68,0,-53,-141,73
-185,-180,4,183,-95,-87,19,-68,0,-48,-141,73
-185,-180,4,183,-95,-87,24,-78,-4,-43,-131,63
-175,-180,-4,178,-85,-92,24,-78,-4,-43,-136,68
-175,-175,0,175,-87,-87,19,-78,-4,-43,-136,68
-180,-175,4,178,-92,-85,19,-78,-4,-48,-136,68
-204,-185,19,195,-112,-82,24,-73,4,-48,-136,68
-195,-185,9,190,-102,-87,24,-68,4,-43,-136,68
-209,-185,24,197,-117,-80,24,-63,4,-39,-136,68
-214,-185,29,200,-122,-78,29,-53,14,-29,-126,68
-219,-190,29,204,-124,-80,29,-63,4,-39,-136,58
-224,-190,34,207,-129,-78,29,-63,4,-34,-136,53
-200,-190,9,195,-104,-90,24,-63,4,-34,-141,53
-185,-190,-4,187,-90,-97,24,-63,4,-34,-141,53
-195,-190,4,192,-100,-92,24,-68,4,-43,-151,53
-195,-190,4,192,-100,-92,29,-68,4,-43,-141,53
-195,-190,4,192,-100,-92,29,-68,4,-43,-141,48
-214,-190,24,202,-119,-82,29,-68,4,-48,-141,39
-224,-200,24,212,-124,-87,39,-63,19,-43,-131,53
-214,-200,14,207,-114,-92,39,-58,19,-39,-131,58
-209,-200,9,204,-109,-95,39,-53,19,-34,-126,63
-200,-195,4,197,-102,-95,39,-48,14,-29,-122,68
-209,-195,14,202,-112,-90,39,-68,14,-39,-136,58
-219,-195,24,207,-122,-85,39,-68,14,-34,-136,58
-219,-195,24,207,-122,-85,39,-63,14,-34,-136,58
-209,-195,14,202,-112,-90,39,-63,9,-39,-136,58
-224,-190,34,207,-129,-78,34,-63,0,-48,-136,48
-224,-190,34,207,-129,-78,34,-63,4,-48,-131,58
-219,-190,29,204,-124,-80,34,-63,4,-48,-131,58
-200,-190,9,195,-104,-90,34,-63,4,-48,-131,58
-204,-190,14,197,-109,-87,24,-73,4,-58,-141,48
-204,-190,14,197,-109,-87,19,-82,4,-58,-141,43
-209,-190,19,200,-114,-85,19,-82,0,-58,-146,43
-214,-200,14,207,-114,-92,19,-82,0,-58,-146,43
-209,-200,9,204,-109,-95,24,-82,-9,-53,-146,43
-209,-195,14,202,-112,-90,29,-82,-9,-58,-151,43
-214,-195,19,204,-117,-87,39,-82,-9,-58,-151,39
-214,-195,19,204,-117,-87,43,-82,-9,-58,-151,39
-219,-204,14,212,-117,-95,34,-82,0,-53,-146,53
-219,-204,14,212,-117,-95,39,-82,0,-53,-146,58
-234,-204,29,219,-131,-87,39,-82,0,-53,-146,58
-234,-204,29,219,-131,-87,39,-82,0,-53,-151,53
-200,-195,4,197,-102,-95,19,-87,-14,-58,-151,39
-200,-195,4,197,-102,-95,19,-87,-14,-58,-151,43
-200,-200,0,200,-100,-100,24,-87,-14,-58,-156,43
-214,-200,14,207,-114,-92,24,-97,-14,-58,-156,39
-224,-204,19,214,-122,-92,24,-97,-29,-58,-151,43
-214,-204,9,209,-112,-97,24,-97,-29,-63,-151,39
-214,-209,4,212,-109,-102,24,-97,-29,-68,-151,39
-219,-214,4,217,-112,-104,19,-97,-29,-68,-151,43
-229,-214,14,222,-122,-100,29,-97,-29,-68,-146,34
-214,-214,0,214,-107,-107,29,-102,-29,-68,-146,34
-224,-214,9,219,-117,-102,29,-102,-29,-68,-156,29
-229,-224,4,226,-117,-109,29,-102,-34,-73,-156,24
-214,-214,0,214,-107,-107,19,-92,-34,-73,-156,14
-209,-204,4,207,-107,-100,24,-87,-29,-73,-156,19
-204,-204,0,204,-102,-102,24,-87,-29,-73,-161,24
-200,-209,-9,204,-95,-109,24,-92,-29,-73,-165,24
-200,-200,0,200,-100,-100,34,-102,-39,-73,-170,9
-204,-200,4,202,-104,-97,34,-102,-48,-73,-170,9
-219,-209,9,214,-114,-100,29,-107,-48,-78,-170,9
-214,-209,4,212,-109,-102,29,-107,-48,-78,-175,9
-214,-214,0,214,-107,-107,34,-107,-43,-78,-175,19
-219,-214,4,217,-112,-104,34,-107,-43,-73,-175,19
-219,-214,4,217,-112,-104,34,-107,-43,-73,-175,24
-219,-214,4,217,-112,-104,34,-107,-43,-78,-175,24
-214,-214,0,214,-107,-107,34,-107,-39,-78,-175,24
-214,-214,0,214,-107,-107,34,-107,-39,-78,-175,24
-214,-219,-4,217,-104,-112,29,-107,-43,-82,-175,14
-214,-229,-14,222,-100,-122,29,-107,-43,-82,-180,9
-214,-214,0,214,-107,-107,19,-97,-43,-73,-170,14
-214,-214,0,214,-107,-107,19,-107,-43,-73,-170,19
-234,-214,19,224,-126,-97,19,-107,-48,-73,-170,29
-234,-214,19,224,-126,-97,19,-102,-48,-73,-170,43
-248,-214,34,231,-141,-90,29,-102,-34,-63,-161,39
-248,-214,34,231,-141,-90,29,-102,-34,-68,-165,34
-244,-214,29,229,-136,-92,29,-102,-34,-68,-165,29
-234,-214,19,224,-126,-97,29,-102,-34,-68,-161,24
-224,-204,19,214,-122,-92,29,-112,-34,-73,-161,24
-224,-204,19,214,-122,-92,29,-117,-34,-73,-165,24
-224,-204,19,214,-122,-92,29,-117,-39,-78,-165,24
-224,-204,19,214,-122,-92,29,-112,-39,-78,-165,24
-224,-214,9,219,-117,-102,34,-112,-34,-78,-170,24
-234,-219,14,226,-124,-102,39,-112,-34,-78,-170,19
-219,-219,0,219,-109,-109,39,-112,-34,-78,-170,19
-219,-219,0,219,-109,-109,34,-112,-34,-78,-165,19
-219,-204,14,212,-117,-95,24,-112,-39,-78,-165,9
-219,-204,14,212,-117,-95,24,-112,-39,-78,-170,9
-219,-209,9,214,-114,-100,24,-117,-39,-78,-170,9
-214,-209,4,212,-109,-102,24,-122,-39,-78,-170,4
-209,-209,0,209,-104,-104,29,-122,-39,-78,-165,9
-195,-209,-14,202,-90,-112,29,-117,-39,-78,-170,4
-195,-209,-14,202,-90,-112,29,-112,-39,-78,-170,4
-204,-209,-4,207,-100,-107,29,-107,-39,-82,-165,4
-214,-200,14,207,-114,-92,19,-117,-48,-82,-170,9
-209,-200,9,204,-109,-95,29,-117,-48,-78,-170,9
-209,-204,4,207,-107,-100,29,-117,-48,-78,-170,9
-209,-209,0,209,-104,-104,24,-112,-48,-82,-170,9
-195,-204,-9,200,-92,-107,24,-112,-39,-82,-165,0
-185,-190,-4,187,-90,-97,24,-112,-39,-82,-165,0
-180,-185,-4,183,-87,-95,24,-117,-39,-82,-165,0
-185,-190,-4,187,-90,-97,19,-117,-39,-87,-165,0
-175,-209,-34,192,-70,-122,19,-117,-39,-78,-165,4
-170,-200,-29,185,-70,-114,19,-117,-39,-78,-165,4
-170,-195,-24,183,-73,-109,19,-117,-39,-78,-165,4
-180,-190,-9,185,-85,-100,19,-117,-39,-78,-165,4
-190,-180,9,185,-100,-85,29,-117,-39,-82,-156,0
-185,-180,4,183,-95,-87,29,-117,-39,-82,-165,0
-185,-185,0,185,-92,-92,29,-117,-39,-82,-165,0
-185,-195,-9,190,-87,-102,29,-117,-39,-82,-165,4
-190,-185,4,187,-97,-90,39,-112,-29,-78,-151,9
-190,-185,4,187,-97,-90,39,-112,-29,-82,-151,4
-195,-185,9,190,-102,-87,43,-107,-29,-78,-151,9
-200,-180,19,190,-109,-80,48,-102,-29,-68,-156,19
-185,-170,14,178,-100,-78,39,-112,-39,-68,-156,14
-185,-165,19,175,-102,-73,29,-112,-39,-68,-156,9
-185,-165,19,175,-102,-73,29,-112,-39,-68,-156,4
-175,-165,9,170,-92,-78,29,-112,-43,-68,-156,0
-165,-175,-9,170,-78,-92,29,-112,-43,-78,-151,-4
-175,-175,0,175,-87,-87,29,-112,-39,-68,-156,-4
-190,-180,9,185,-100,-85,34,-107,-39,-68,-161,-4
-190,-180,9,185,-100,-85,34,-107,-34,-68,-161,-4
-185,-180,4,183,-95,-87,34,-102,-24,-58,-151,0
-180,-175,4,178,-92,-85,39,-102,-24,-63,-156,4
-180,-175,4,178,-92,-85,39,-107,-24,-63,-156,0
-180,-175,4,178,-92,-85,39,-107,-24,-63,-156,14
-180,-175,4,178,-92,-85,43,-97,-29,-63,-151,9
-180,-165,14,173,-97,-75,43,-97,-29,-63,-146,9
-165,-161,4,163,-85,-78,43,-97,-29,-53,-146,9
-165,-161,4,163,-85,-78,43,-92,-24,-53,-146,9
-156,-161,-4,158,-75,-82,39,-92,-34,-63,-146,0
-136,-156,-19,146,-58,-87,24,-107,-43,-73,-165,-9
-136,-156,-19,146,-58,-87,24,-117,-43,-78,-165,-19
-175,-146,29,161,-102,-58,39,-97,-29,-68,-146,-9
-165,-156,9,161,-87,-73,48,-87,-19,-58,-136,0
-165,-156,9,161,-87,-73,48,-87,-19,-58,-136,0
-165,-156,9,161,-87,-73,48,-87,-19,-58,-136,0
-165,-156,9,161,-87,-73,48,-87,-19,-58,-136,0
-161,-151,9,156,-85,-70,58,-87,-14,-48,-126,4
-151,-136,14,143,-82,-61,63,-82,-4,-39,-117,4
-136,-102,34,119,-85,-34,73,-78,0,-34,-117,9
-126,-87,39,107,-82,-24,73,-78,4,-29,-112,19
-126,-78,48,102,-87,-14,63,-78,9,-34,-122,19
-131,-68,63,100,-97,-2,78,-78,14,-29,-112,24
-131,-53,78,92,-104,12,82,-68,24,-14,-102,34
-131,-43,87,87,-109,21,92,-63,29,-9,-97,39
-131,-34,97,82,-114,31,97,-63,34,0,-82,48
-131,-34,97,82,-114,31,102,-63,39,0,-82,48
-131,-34,97,82,-114,31,102,-63,39,0,-82,48
-131,-29,102,80,-117,36,102,-63,39,0,-82,48
-126,-39,87,82,-107,24,97,-63,39,-9,-97,29
-122,-39,82,80,-102,21,92,-68,39,-9,-97,29
-107,-34,73,70,-90,19,92,-68,39,-9,-97,39
-102,-34,68,68,-85,17,92,-68,39,-4,-97,39
-102,-34,68,68,-85,17,78,-68,39,-4,-82,29
-107,-34,73,70,-90,19,63,-68,39,-4,-82,29
-107,-34,73,70,-90,19,48,-68,39,-4,-82,29
-102,-34,68,68,-85,17,34,-68,39,-4,-82,34
-112,-29,82,70,-97,26,19,-63,48,9,-73,48
-97,-14,82,56,-90,34,4,-53,58,24,-68,58
-87,0,87,43,-87,43,-4,-53,63,29,-58,58
-82,9,92,36,-87,51,-19,-53,63,29,-58,58
-63,9,73,26,-68,41,-24,-68,53,9,-53,43
-53,9,63,21,-58,36,-29,-73,39,4,-53,43
-63,9,73,26,-68,41,-39,-82,29,0,-63,39
-73,4,78,34,-75,41,-39,-87,24,-4,-68,39
-78,0,78,39,-78,39,-39,-102,14,-9,-78,43
-82,-4,78,43,-80,36,-39,-117,-4,-19,-82,39
-82,-4,78,43,-80,36,-39,-131,-19,-29,-82,39
-73,0,73,36,-73,36,-43,-131,-19,-29,-82,43
-34,14,48,9,-41,31,-48,-122,-14,-29,-92,34
-29,14,43,7,-36,29,-53,-112,-14,-29,-92,39
-24,0,24,12,-24,12,-53,-102,-14,-29,-87,39
-19,0,19,9,-19,9,-53,-102,-14,-29,-87,43
-29,0,29,14,-29,14,-43,-102,-14,-24,-78,43
-34,0,34,17,-34,17,-29,-97,-9,-24,-78,43
-34,-4,29,19,-31,12,-19,-97,-9,-24,-78,43
-34,-4,29,19,-31,12,-9,-92,-9,-29,-82,34
-29,-19,9,24,-19,-4,-14,-92,-14,-24,-97,29
-43,-29,14,36,-29,-7,-19,-97,-19,-24,-102,24
-48,-29,19,39,-34,-4,-19,-97,-19,-29,-102,24
-58,-39,19,48,-39,-9,-14,-97,-14,-29,-102,19
-68,-39,29,53,-48,-4,4,-87,-4,-29,-97,24
-82,-48,34,65,-58,-7,24,-87,-4,-29,-102,19
-102,-68,34,85,-68,-17,29,-92,-14,-39,-117,9
-126,-92,34,109,-80,-29,39,-97,-29,-53,-126,-4
-122,-107,14,114,-68,-46,29,-112,-39,-63,-136,-24
-117,-107,9,112,-63,-48,29,-112,-43,-73,-146,-34
-112,-117,-4,114,-53,-61,34,-112,-48,-73,-146,-34
-107,-117,-9,112,-48,-63,34,-112,-53,-73,-146,-29
-117,-102,14,109,-65,-43,43,-102,-48,-73,-131,-19
-117,-102,14,109,-65,-43,48,-102,-43,-68,-131,-19
-126,-112,14,119,-70,-48,48,-102,-39,-68,-131,-19
-126,-112,14,119,-70,-48,53,-97,-34,-68,-131,-24
-122,-112,9,117,-65,-51,48,-107,-43,-68,-141,-34
-117,-117,0,117,-58,-58,43,-107,-43,-73,-141,-34
-112,-117,-4,114,-53,-61,39,-107,-48,-73,-146,-34
-107,-117,-9,112,-48,-63,34,-107,-48,-73,-146,-34
-117,-102,14,109,-65,-43,43,-102,-29,-73,-141,-34
-117,-102,14,109,-65,-43,48,-97,-29,-68,-141,-34
-117,-107,9,112,-63,-48,53,-92,-29,-68,-141,-34
-117,-107,9,112,-63,-48,63,-87,-29,-68,-141,-34
-122,-107,14,114,-68,-46,58,-92,-29,-68,-131,-24
-122,-107,14,114,-68,-46,58,-92,-39,-68,-131,-24
-122,-107,14,114,-68,-46,58,-97,-39,-73,-136,-29
-122,-107,14,114,-68,-46,58,-97,-39,-73,-136,-29
-112,-102,9,107,-61,-46,68,-92,-34,-68,-126,-19
-107,-102,4,104,-56,-48,68,-82,-29,-63,-126,-19
-107,-102,4,104,-56,-48,73,-78,-24,-58,-126,-19
-107,-102,4,104,-56,-48,73,-73,-19,-48,-122,-19
-112,-92,19,102,-65,-36,63,-78,-19,-58,-131,-24
-112,-92,19,102,-65,-36,63,-82,-24,-58,-131,-24
-107,-92,14,100,-61,-39,68,-87,-34,-63,-131,-24
-97,-92,4,95,-51,-43,68,-92,-39,-63,-136,-29
-97,-92,4,95,-51,-43,68,-82,-24,-63,-136,-29
-97,-92,4,95,-51,-43,63,-82,-24,-63,-131,-29
-92,-92,0,92,-46,-46,63,-82,-24,-63,-131,-29
-92,-92,0,92,-46,-46,63,-82,-24,-63,-131,-29
-92,-92,0,92,-46,-46,78,-63,-4,-53,-131,-14
-63,-78,-14,70,-24,-46,87,-58,4,-48,-131,-29
-78,-68,9,73,-43,-29,112,-48,19,-39,-131,-29
-112,-68,43,90,-78,-12,126,-29,39,-24,-126,-24
-122,-58,63,90,-92,2,156,19,87,9,-117,-14
-112,-24,87,68,-100,31,175,107,170,63,-78,-4
-82,29,112,26,-97,70,180,185,292,170,9,43
-43,97,141,-26,-92,119,170,283,444,302,122,117
39,156,117,-97,-39,136,151,419,605,448,248,200
131,180,48,-156,41,114,117,546,736,575,370,283
224,253,29,-239,97,141,48,605,800,707,522,395
326,356,29,-341,148,192,-53,585,775,814,673,522
434,439,4,-436,214,222,-180,531,678,878,810,644
546,517,-29,-531,287,244,-351,444,556,927,956,775
688,614,-73,-651,380,270,-541,361,468,1015,1117,912
805,707,-97,-756,451,305,-702,297,444,1141,1302,1058
902,839,-63,-871,483,387,-839,229,409,1298,1522,1224
971,990,19,-980,475,505,-946,117,336,1420,1703,1395
1000,1093,92,-1046,453,592,-1034,-53,200,1464,1815,1527
980,1117,136,-1049,422,627,-1127,-268,39,1429,1849,1581
941,1122,180,-1032,380,651,-1171,-463,-97,1346,1810,1581
927,1112,185,-1019,370,649,-1190,-580,-214,1234,1703,1537
907,1039,131,-973,387,585,-1161,-624,-297,1073,1522,1410
839,814,-24,-827,431,395,-1088,-610,-361,863,1263,1205
741,580,-161,-661,451,209,-1005,-570,-429,649,976,985
629,468,-161,-549,395,153,-932,-570,-473,478,751,819
488,395,-92,-441,290,151,-839,-556,-492,312,536,673
361,287,-73,-324,217,107,-717,-546,-531,112,287,473
273,195,-78,-234,175,58,-634,-541,-570,-73,68,312
209,126,-82,-168,146,21,-570,-512,-585,-185,-48,214
151,39,-112,-95,131,-36,-473,-463,-556,-248,-131,131
141,-9,-151,-65,146,-80,-385,-395,-497,-258,-175,82
136,-9,-146,-63,141,-78,-287,-302,-419,-219,-151,68
107,-29,-136,-39,122,-82,-200,-209,-336,-175,-126,48
87,-53,-141,-17,114,-97,-112,-126,-239,-136,-112,39
68,-29,-97,-19,82,-63,-48,-53,-175,-92,-102,39
48,-24,-73,-12,61,-48,0,-4,-117,-58,-92,43
39,-34,-73,-2,56,-53,24,34,-58,-24,-68,43
9,-43,-53,17,31,-48,48,58,-9,0,-58,43
-9,-39,-29,24,9,-34,58,58,4,0,-58,48
0,-48,-48,24,24,-48,58,34,4,0,-58,34
-19,-58,-39,39,9,-48,73,14,0,-4,-68,14
-39,-58,-19,48,-9,-39,102,9,-4,-4,-73,14
-29,-29,0,29,-14,-14,122,9,-4,-4,-78,14
-24,-24,0,24,-12,-12,112,4,-4,-14,-87,9
-24,-29,-4,26,-9,-17,102,4,9,-19,-92,4
-19,-24,-4,21,-7,-14,97,4,24,-19,-97,0
-9,-19,-9,14,0,-14,97,9,34,-24,-92,-4
-19,-24,-4,21,-7,-14,117,19,48,-4,-82,-4
-24,-29,-4,26,-9,-17,122,19,48,0,-78,-4
-34,-34,0,34,-17,-17,131,19,48,0,-78,-9
-34,-39,-4,36,-14,-21,131,19,48,-4,-87,-9
-34,-34,0,34,-17,-17,131,19,48,-4,-92,-14
-34,-34,0,34,-17,-17,131,19,58,-4,-92,-14
-34,-34,0,34,-17,-17,136,34,73,0,-92,-14
-34,-34,0,34,-17,-17,136,39,73,0,-87,-9
-14,-34,-19,24,2,-26,136,39,68,-9,-87,-9
-4,-34,-29,19,12,-31,136,39,68,-4,-87,-14
-14,-34,-19,24,2,-26,141,43,73,0,-82,-14
-14,-29,-14,21,0,-21,141,43,73,0,-82,-14
-19,-29,-9,24,-4,-19,141,34,78,0,-82,-9
-19,-24,-4,21,-7,-14,151,43,78,0,-82,-9
-19,-24,-4,21,-7,-14,141,43,82,4,-82,-4
-19,-29,-9,24,-4,-19,141,48,92,4,-82,-4
-14,-29,-14,21,0,-21,131,39,87,4,-82,-19
-9,-29,-19,19,4,-24,136,43,87,9,-78,-19
-4,-29,-24,17,9,-26,136,43,87,9,-78,-19
19,-29,-48,4,34,-39,136,48,87,9,-78,-14
9,-14,-24,2,17,-19,146,63,102,19,-78,-4
-9,-14,-4,12,-2,-9,146,63,107,24,-73,-4
-19,-14,4,17,-12,-4,146,68,112,24,-73,0
-24,-14,9,19,-17,-2,146,73,117,29,-68,0
-34,-14,19,24,-26,2,156,87,131,39,-63,4
-34,-9,24,21,-29,7,161,92,141,48,-53,9
-29,-9,19,19,-24,4,165,92,146,53,-43,14
-29,-9,19,19,-24,4,165,102,146,58,-39,19
-19,-9,9,14,-14,0,161,102,136,58,-43,9
-9,-4,4,7,-7,0,156,97,136,53,-48,4
0,-4,-4,2,2,-4,146,97,141,48,-53,0
9,-4,-14,-2,12,-9,136,97,146,48,-53,-4
14,-4,-19,-4,17,-12,136,97,146,53,-43,-4
24,0,-24,-12,24,-12,136,97,151,53,-43,4
29,0,-29,-14,29,-14,136,107,151,63,-39,4
29,0,-29,-14,29,-14,141,107,151,63,-39,4
24,0,-24,-12,24,-12,151,122,161,63,-34,14
19,0,-19,-9,19,-9,151,126,161,68,-34,14
14,0,-14,-7,14,-7,141,131,161,68,-34,14
9,4,-4,-7,7,0,141,136,170,68,-34,14
9,9,0,-9,4,4,131,141,185,82,-24,19
9,9,0,-9,4,4,131,151,190,87,-19,29
9,14,4,-12,2,9,131,165,204,92,-9,29
4,14,9,-9,-2,12,131,170,204,97,-9,29
14,14,0,-14,7,7,141,165,204,102,-9,39
24,19,-4,-21,14,7,141,165,209,107,-9,39
24,19,-4,-21,14,7,141,175,214,107,-9,39
14,19,4,-17,4,12,136,175,219,112,-9,34
39,29,-9,-34,24,9,126,180,229,102,4,43
53,34,-19,-43,36,7,126,190,239,112,4,48
53,34,-19,-43,36,7,126,195,244,117,9,48
53,34,-19,-43,36,7,126,200,248,117,9,48
68,34,-34,-51,51,0,136,209,258,136,14,43
63,39,-24,-51,43,7,136,214,263,136,24,48
53,34,-19,-43,36,7,136,224,278,141,29,53
39,34,-4,-36,21,14,136,234,287,151,34,58
58,43,-14,-51,36,14,126,229,278,151,39,53
58,43,-14,-51,36,14,126,244,287,156,43,53
63,53,-9,-58,36,21,126,253,302,170,53,63
78,58,-19,-68,48,19,126,263,312,170,58,68
87,58,-29,-73,58,14,126,273,317,175,48,82
87,58,-29,-73,58,14,126,283,331,180,58,82
87,68,-19,-78,53,24,122,287,341,190,63,82
97,68,-29,-82,63,19,122,292,341,195,68,87
92,78,-14,-85,53,31,122,302,356,209,87,87
92,82,-9,-87,51,36,122,317,366,214,92,92
92,82,-9,-87,51,36,117,322,375,219,97,92
102,92,-9,-97,56,41,117,331,385,224,102,102
102,102,0,-102,51,51,117,341,405,248,117,112
102,107,4,-104,48,56,117,356,414,253,126,122
97,112,14,-104,41,63,117,366,424,263,131,126
102,117,14,-109,43,65,107,370,429,263,136,131
117,112,-4,-114,61,53,107,366,424,263,141,141
117,122,4,-119,56,63,112,375,439,273,146,146
117,126,9,-122,53,68,112,385,448,287,156,151
112,131,19,-122,46,75,107,385,453,292,161,156
112,146,34,-129,39,90,107,400,458,297,156,170
122,151,29,-136,46,90,102,405,468,297,165,170
141,156,14,-148,63,85,97,409,473,302,170,170
146,165,19,-156,63,92,97,414,478,307,175,180
156,170,14,-163,70,92,87,405,473,307,175,180
156,175,19,-165,68,97,82,405,478,307,175,180
165,180,14,-173,75,97,78,409,478,307,185,185
165,185,19,-175,73,102,73,409,483,307,195,185
156,185,29,-170,63,107,82,419,483,317,195,195
151,185,34,-168,58,109,87,419,488,317,200,200
151,190,39,-170,56,114,87,424,492,331,200,209
151,195,43,-173,53,119,78,424,492,331,204,209
156,185,29,-170,63,107,78,424,488,322,204,214
156,195,39,-175,58,117,78,419,488,322,204,214
156,200,43,-178,56,122,78,414,488,317,195,214
151,200,48,-175,51,124,73,414,483,312,195,214
156,209,53,-183,51,131,68,409,473,312,185,214
156,209,53,-183,51,131,68,405,468,312,190,214
161,209,48,-185,56,129,63,400,468,307,195,214
170,209,39,-190,65,124,63,395,458,297,195,219
180,209,29,-195,75,119,63,385,444,287,185,214
180,209,29,-195,75,119,53,375,439,287,185,214
180,209,29,-195,75,119,48,366,424,283,180,214
180,204,24,-192,78,114,48,356,414,268,175,214
170,204,34,-187,68,119,43,356,405,248,161,204
175,204,29,-190,73,117,43,341,395,244,161,200
175,204,29,-190,73,117,43,326,385,239,151,195
146,200,53,-173,46,126,43,317,380,229,141,195
151,209,58,-180,46,134,43,292,346,214,131,185
161,204,43,-183,58,124,34,278,336,204,117,185
165,200,34,-183,65,117,34,263,322,190,112,180
165,195,29,-180,68,112,34,239,307,185,102,175
151,170,19,-161,65,95,34,234,302,165,97,170
146,165,19,-156,63,92,39,219,287,156,82,165
131,146,14,-139,58,80,39,204,273,141,78,151
112,136,24,-124,43,80,39,180,248,131,68,146
82,146,63,-114,9,104,48,170,239,126,68,151
78,141,63,-109,7,102,53,165,229,122,58,146
78,126,48,-102,14,87,53,151,219,117,48,141
73,126,53,-100,9,90,53,141,204,107,43,141
73,131,58,-102,7,95,63,126,200,102,43,141
63,117,53,-90,4,85,63,122,185,92,34,131
53,112,58,-82,-2,85,63,112,180,82,29,126
53,102,48,-78,2,75,68,107,161,78,29,117
58,102,43,-80,7,73,58,82,141,63,19,102
53,97,43,-75,4,70,58,68,126,48,9,92
53,92,39,-73,7,65,58,58,122,43,4,92
48,87,39,-68,4,63,58,48,117,43,0,87
14,82,68,-48,-26,75,68,48,112,43,4,92
14,78,63,-46,-24,70,73,39,107,39,0,87
14,73,58,-43,-21,65,73,29,92,24,-4,78
14,73,58,-43,-21,65,73,19,73,14,-14,68
9,58,48,-34,-19,53,63,4,58,4,-24,58
9,53,43,-31,-17,48,68,-4,53,4,-29,58
14,48,34,-31,-9,41,68,-4,53,-4,-34,53
19,39,19,-29,0,29,68,-9,48,-9,-43,48
4,39,34,-21,-14,36,68,-4,53,-4,-39,43
-4,39,43,-17,-24,41,68,-9,48,-9,-43,43
-4,39,43,-17,-24,41,68,-14,48,-14,-48,43
-4,34,39,-14,-21,36,73,-14,43,-14,-48,43
9,43,34,-26,-12,39,63,-24,29,-24,-58,34
9,39,29,-24,-9,34,63,-29,19,-29,-63,34
0,34,34,-17,-17,34,58,-34,19,-34,-63,34
0,29,29,-14,-14,29,58,-34,19,-34,-63,29
-4,39,43,-17,-24,41,68,-24,14,-34,-68,29
-4,39,43,-17,-24,41,68,-29,14,-34,-68,29
-4,34,39,-14,-21,36,68,-34,14,-34,-68,29
-14,34,48,-9,-31,41,68,-34,14,-34,-73,29
-4,29,34,-12,-19,31,68,-39,9,-34,-73,29
0,29,29,-14,-14,29,68,-39,4,-34,-73,29
4,24,19,-14,-7,21,68,-48,4,-43,-73,29
4,19,14,-12,-4,17,68,-48,4,-43,-73,29
-4,19,24,-7,-14,21,68,-39,4,-34,-78,29
-4,19,24,-7,-14,21,68,-39,4,-39,-78,29
0,24,24,-12,-12,24,63,-39,0,-39,-73,34
9,24,14,-17,-2,19,63,-39,0,-39,-73,34
0,24,24,-12,-12,24,53,-48,9,-39,-63,34
0,24,24,-12,-12,24,53,-48,9,-39,-63,34
0,24,24,-12,-12,24,58,-48,9,-39,-68,29
0,24,24,-12,-12,24,58,-48,14,-39,-68,29
-4,24,29,-9,-17,26,68,-39,4,-39,-68,29
-4,34,39,-14,-21,36,73,-34,4,-34,-63,34
-4,34,39,-14,-21,36,73,-34,4,-34,-63,34
-9,29,39,-9,-24,34,73,-34,4,-43,-63,34
